22.044,-50.037,32.237,-35.015,20.702,0.46062,80.709,10.304,-126.6,-17.144,-34.928,5.6901,-122.51,49.547,7.069,13.152
22.044,-50.037,32.237,-35.015,20.702,0.46062,80.709,10.304,-126.6,-17.144,-34.928,5.6901,-122.51,49.547,7.069,13.152
22.044,-50.037,32.237,-35.015,20.702,0.46062,80.709,10.304,-126.6,-17.144,-34.928,5.6901,-122.51,49.547,7.069,13.152
21.52,-49.946,32.293,-34.543,20.751,0.56348,80.667,10.747,-126.42,-17.574,-34.948,5.8449,-122.51,49.102,6.9177,13.01
21.52,-49.946,32.293,-34.543,20.751,0.56348,80.667,10.747,-126.42,-17.574,-34.948,5.8449,-122.51,49.102,6.9177,13.01
21.52,-49.946,32.293,-34.543,20.751,0.56348,80.667,10.747,-126.42,-17.574,-34.948,5.8449,-122.51,49.102,6.9177,13.01
20.469,-49.771,32.398,-33.606,20.846,0.76305,80.579,11.619,-126.06,-18.435,-34.988,6.1455,-122.5,48.215,6.6076,12.717
20.469,-49.771,32.398,-33.606,20.846,0.76305,80.579,11.619,-126.06,-18.435,-34.988,6.1455,-122.5,48.215,6.6076,12.717
19.941,-49.687,32.448,-33.142,20.893,0.85977,80.533,12.049,-125.87,-18.866,-35.009,6.2913,-122.5,47.771,6.4488,12.566
19.941,-49.687,32.448,-33.142,20.893,0.85977,80.533,12.049,-125.87,-18.866,-35.009,6.2913,-122.5,47.771,6.4488,12.566
19.941,-49.687,32.448,-33.142,20.893,0.85977,80.533,12.049,-125.87,-18.866,-35.009,6.2913,-122.5,47.771,6.4488,12.566
19.411,-49.605,32.496,-32.681,20.938,0.95446,80.485,12.474,-125.68,-19.298,-35.031,6.434,-122.5,47.328,6.2875,12.412
18.88,-49.526,32.543,-32.223,20.983,1.0471,80.435,12.894,-125.49,-19.731,-35.053,6.5736,-122.49,46.886,6.1237,12.255
18.88,-49.526,32.543,-32.223,20.983,1.0471,80.435,12.894,-125.49,-19.731,-35.053,6.5736,-122.49,46.886,6.1237,12.255
18.347,-49.449,32.587,-31.768,21.026,1.1377,80.385,13.31,-125.3,-20.165,-35.076,6.7101,-122.49,46.443,5.9574,12.095
18.347,-49.449,32.587,-31.768,21.026,1.1377,80.385,13.31,-125.3,-20.165,-35.076,6.7101,-122.49,46.443,5.9574,12.095
17.813,-49.374,32.629,-31.317,21.069,1.2263,80.332,13.721,-125.1,-20.599,-35.099,6.8436,-122.48,46.001,5.7887,11.933
17.813,-49.374,32.629,-31.317,21.069,1.2263,80.332,13.721,-125.1,-20.599,-35.099,6.8436,-122.48,46.001,5.7887,11.933
17.813,-49.374,32.629,-31.317,21.069,1.2263,80.332,13.721,-125.1,-20.599,-35.099,6.8436,-122.48,46.001,5.7887,11.933
17.278,-49.302,32.67,-30.868,21.111,1.3129,80.278,14.127,-124.9,-21.034,-35.123,6.974,-122.48,45.56,5.6174,11.768
17.278,-49.302,32.67,-30.868,21.111,1.3129,80.278,14.127,-124.9,-21.034,-35.123,6.974,-122.48,45.56,5.6174,11.768
16.741,-49.232,32.708,-30.422,21.152,1.3975,80.223,14.529,-124.7,-21.47,-35.147,7.1014,-122.47,45.118,5.4437,11.6
16.741,-49.232,32.708,-30.422,21.152,1.3975,80.223,14.529,-124.7,-21.47,-35.147,7.1014,-122.47,45.118,5.4437,11.6
16.741,-49.232,32.708,-30.422,21.152,1.3975,80.223,14.529,-124.7,-21.47,-35.147,7.1014,-122.47,45.118,5.4437,11.6
16.203,-49.164,32.745,-29.979,21.192,1.48,80.166,14.926,-124.5,-21.906,-35.172,7.2257,-122.46,44.677,5.2676,11.429
16.203,-49.164,32.745,-29.979,21.192,1.48,80.166,14.926,-124.5,-21.906,-35.172,7.2257,-122.46,44.677,5.2676,11.429
15.124,-49.036,32.813,-29.103,21.269,1.6391,80.048,15.707,-124.09,-22.781,-35.224,7.4649,-122.45,43.796,4.9079,11.079
15.124,-49.036,32.813,-29.103,21.269,1.6391,80.048,15.707,-124.09,-22.781,-35.224,7.4649,-122.45,43.796,4.9079,11.079
14.582,-48.976,32.844,-28.67,21.306,1.7157,79.987,16.09,-123.88,-23.219,-35.25,7.58,-122.44,43.356,4.7244,10.899
14.582,-48.976,32.844,-28.67,21.306,1.7157,79.987,16.09,-123.88,-23.219,-35.25,7.58,-122.44,43.356,4.7244,10.899
14.582,-48.976,32.844,-28.67,21.306,1.7157,79.987,16.09,-123.88,-23.219,-35.25,7.58,-122.44,43.356,4.7244,10.899
14.039,-48.918,32.873,-28.24,21.342,1.7903,79.924,16.469,-123.67,-23.659,-35.277,7.6919,-122.43,42.917,4.5385,10.717
14.039,-48.918,32.873,-28.24,21.342,1.7903,79.924,16.469,-123.67,-23.659,-35.277,7.6919,-122.43,42.917,4.5385,10.717
13.495,-48.862,32.9,-27.813,21.378,1.8629,79.86,16.843,-123.46,-24.099,-35.305,7.8008,-122.42,42.477,4.3502,10.533
12.95,-48.809,32.925,-27.389,21.412,1.9335,79.794,17.212,-123.24,-24.539,-35.334,7.9065,-122.4,42.038,4.1594,10.345
12.403,-48.758,32.948,-26.968,21.446,2.0022,79.726,17.577,-123.03,-24.981,-35.363,8.0092,-122.39,41.6,3.9663,10.155
12.403,-48.758,32.948,-26.968,21.446,2.0022,79.726,17.577,-123.03,-24.981,-35.363,8.0092,-122.39,41.6,3.9663,10.155
12.403,-48.758,32.948,-26.968,21.446,2.0022,79.726,17.577,-123.03,-24.981,-35.363,8.0092,-122.39,41.6,3.9663,10.155
11.856,-48.71,32.969,-26.551,21.478,2.0689,79.657,17.937,-122.81,-25.423,-35.393,8.1088,-122.38,41.161,3.7707,9.9626
11.856,-48.71,32.969,-26.551,21.478,2.0689,79.657,17.937,-122.81,-25.423,-35.393,8.1088,-122.38,41.161,3.7707,9.9626
11.856,-48.71,32.969,-26.551,21.478,2.0689,79.657,17.937,-122.81,-25.423,-35.393,8.1088,-122.38,41.161,3.7707,9.9626
11.307,-48.664,32.988,-26.136,21.51,2.1336,79.586,18.292,-122.59,-25.865,-35.423,8.2053,-122.37,40.723,3.5728,9.7672
11.307,-48.664,32.988,-26.136,21.51,2.1336,79.586,18.292,-122.59,-25.865,-35.423,8.2053,-122.37,40.723,3.5728,9.7672
11.307,-48.664,32.988,-26.136,21.51,2.1336,79.586,18.292,-122.59,-25.865,-35.423,8.2053,-122.37,40.723,3.5728,9.7672
10.207,-48.579,33.021,-25.317,21.571,2.2573,79.44,18.989,-122.14,-26.753,-35.486,8.3891,-122.34,39.848,3.1698,9.3685
10.207,-48.579,33.021,-25.317,21.571,2.2573,79.44,18.989,-122.14,-26.753,-35.486,8.3891,-122.34,39.848,3.1698,9.3685
9.656,-48.541,33.034,-24.913,21.6,2.3163,79.365,19.33,-121.91,-27.198,-35.518,8.4764,-122.32,39.411,2.9648,9.1652
9.656,-48.541,33.034,-24.913,21.6,2.3163,79.365,19.33,-121.91,-27.198,-35.518,8.4764,-122.32,39.411,2.9648,9.1652
9.656,-48.541,33.034,-24.913,21.6,2.3163,79.365,19.33,-121.91,-27.198,-35.518,8.4764,-122.32,39.411,2.9648,9.1652
9.1037,-48.504,33.045,-24.511,21.628,2.3733,79.288,19.666,-121.69,-27.643,-35.551,8.5606,-122.31,38.975,2.7574,8.9594
8.5505,-48.47,33.054,-24.113,21.656,2.4284,79.21,19.998,-121.45,-28.089,-35.585,8.6417,-122.29,38.538,2.5477,8.7509
8.5505,-48.47,33.054,-24.113,21.656,2.4284,79.21,19.998,-121.45,-28.089,-35.585,8.6417,-122.29,38.538,2.5477,8.7509
7.9964,-48.439,33.061,-23.718,21.682,2.4817,79.13,20.326,-121.22,-28.536,-35.619,8.7198,-122.27,38.102,2.3356,8.5399
7.9964,-48.439,33.061,-23.718,21.682,2.4817,79.13,20.326,-121.22,-28.536,-35.619,8.7198,-122.27,38.102,2.3356,8.5399
7.4415,-48.41,33.067,-23.326,21.708,2.533,79.048,20.648,-120.99,-28.984,-35.654,8.7948,-122.25,37.666,2.1213,8.3264
7.4415,-48.41,33.067,-23.326,21.708,2.533,79.048,20.648,-120.99,-28.984,-35.654,8.7948,-122.25,37.666,2.1213,8.3264
6.8859,-48.384,33.07,-22.937,21.732,2.5824,78.964,20.966,-120.75,-29.432,-35.69,8.8668,-122.24,37.231,1.9046,8.1104
6.8859,-48.384,33.07,-22.937,21.732,2.5824,78.964,20.966,-120.75,-29.432,-35.69,8.8668,-122.24,37.231,1.9046,8.1104
6.3294,-48.359,33.071,-22.552,21.756,2.63,78.879,21.279,-120.51,-29.881,-35.726,8.9357,-122.22,36.796,1.6856,7.8918
6.3294,-48.359,33.071,-22.552,21.756,2.63,78.879,21.279,-120.51,-29.881,-35.726,8.9357,-122.22,36.796,1.6856,7.8918
6.3294,-48.359,33.071,-22.552,21.756,2.63,78.879,21.279,-120.51,-29.881,-35.726,8.9357,-122.22,36.796,1.6856,7.8918
5.7723,-48.338,33.07,-22.17,21.779,2.6757,78.793,21.587,-120.27,-30.33,-35.763,9.0015,-122.2,36.361,1.4644,7.6708
5.2144,-48.319,33.067,-21.791,21.801,2.7196,78.705,21.891,-120.03,-30.78,-35.801,9.0643,-122.18,35.927,1.2409,7.4472
5.2144,-48.319,33.067,-21.791,21.801,2.7196,78.705,21.891,-120.03,-30.78,-35.801,9.0643,-122.18,35.927,1.2409,7.4472
4.6559,-48.302,33.062,-21.416,21.822,2.7616,78.615,22.19,-119.79,-31.231,-35.839,9.1241,-122.16,35.493,1.0151,7.2213
4.6559,-48.302,33.062,-21.416,21.822,2.7616,78.615,22.19,-119.79,-31.231,-35.839,9.1241,-122.16,35.493,1.0151,7.2213
4.0968,-48.287,33.055,-21.043,21.842,2.8018,78.523,22.484,-119.54,-31.683,-35.878,9.1808,-122.14,35.059,0.78705,6.9929
4.0968,-48.287,33.055,-21.043,21.842,2.8018,78.523,22.484,-119.54,-31.683,-35.878,9.1808,-122.14,35.059,0.78705,6.9929
4.0968,-48.287,33.055,-21.043,21.842,2.8018,78.523,22.484,-119.54,-31.683,-35.878,9.1808,-122.14,35.059,0.78705,6.9929
3.537,-48.276,33.046,-20.674,21.862,2.8401,78.43,22.774,-119.3,-32.135,-35.918,9.2345,-122.12,34.625,0.55678,6.7621
3.537,-48.276,33.046,-20.674,21.862,2.8401,78.43,22.774,-119.3,-32.135,-35.918,9.2345,-122.12,34.625,0.55678,6.7621
2.9767,-48.266,33.035,-20.309,21.88,2.8767,78.336,23.059,-119.05,-32.587,-35.959,9.2852,-122.09,34.192,0.32429,6.5289
2.4159,-48.259,33.022,-19.946,21.898,2.9114,78.239,23.339,-118.8,-33.041,-36,9.3329,-122.07,33.76,0.089576,6.2933
2.4159,-48.259,33.022,-19.946,21.898,2.9114,78.239,23.339,-118.8,-33.041,-36,9.3329,-122.07,33.76,0.089576,6.2933
2.4159,-48.259,33.022,-19.946,21.898,2.9114,78.239,23.339,-118.8,-33.041,-36,9.3329,-122.07,33.76,0.089576,6.2933
1.8546,-48.254,33.007,-19.587,21.915,2.9444,78.141,23.615,-118.54,-33.495,-36.042,9.3776,-122.05,33.327,-0.14734,6.0554
1.8546,-48.254,33.007,-19.587,21.915,2.9444,78.141,23.615,-118.54,-33.495,-36.042,9.3776,-122.05,33.327,-0.14734,6.0554
1.8546,-48.254,33.007,-19.587,21.915,2.9444,78.141,23.615,-118.54,-33.495,-36.042,9.3776,-122.05,33.327,-0.14734,6.0554
0.73058,-48.252,32.971,-18.878,21.946,3.0049,77.94,24.152,-118.03,-34.405,-36.128,9.458,-122,32.463,-0.62771,5.5726
0.73058,-48.252,32.971,-18.878,21.946,3.0049,77.94,24.152,-118.03,-34.405,-36.128,9.458,-122,32.463,-0.62771,5.5726
0.73058,-48.252,32.971,-18.878,21.946,3.0049,77.94,24.152,-118.03,-34.405,-36.128,9.458,-122,32.463,-0.62771,5.5726
0.16796,-48.255,32.949,-18.529,21.96,3.0326,77.837,24.413,-117.78,-34.86,-36.172,9.4937,-121.98,32.032,-0.87116,5.3277
0.16796,-48.255,32.949,-18.529,21.96,3.0326,77.837,24.413,-117.78,-34.86,-36.172,9.4937,-121.98,32.032,-0.87116,5.3277
-0.39503,-48.26,32.926,-18.183,21.973,3.0584,77.732,24.67,-117.52,-35.317,-36.217,9.5265,-121.95,31.6,-1.1167,5.0805
-0.39503,-48.26,32.926,-18.183,21.973,3.0584,77.732,24.67,-117.52,-35.317,-36.217,9.5265,-121.95,31.6,-1.1167,5.0805
-0.39503,-48.26,32.926,-18.183,21.973,3.0584,77.732,24.67,-117.52,-35.317,-36.217,9.5265,-121.95,31.6,-1.1167,5.0805
-1.522,-48.278,32.874,-17.501,21.998,3.105,77.518,25.17,-116.99,-36.232,-36.309,9.5831,-121.9,30.739,-1.6143,4.5794
-1.522,-48.278,32.874,-17.501,21.998,3.105,77.518,25.17,-116.99,-36.232,-36.309,9.5831,-121.9,30.739,-1.6143,4.5794
-2.0858,-48.29,32.844,-17.164,22.009,3.1257,77.408,25.413,-116.73,-36.69,-36.356,9.607,-121.88,30.309,-1.8663,4.3255
-2.0858,-48.29,32.844,-17.164,22.009,3.1257,77.408,25.413,-116.73,-36.69,-36.356,9.607,-121.88,30.309,-1.8663,4.3255
-2.0858,-48.29,32.844,-17.164,22.009,3.1257,77.408,25.413,-116.73,-36.69,-36.356,9.607,-121.88,30.309,-1.8663,4.3255
-2.65,-48.305,32.813,-16.831,22.019,3.1447,77.296,25.652,-116.46,-37.149,-36.404,9.628,-121.85,29.879,-2.1204,4.0694
-3.2143,-48.322,32.779,-16.502,22.028,3.1621,77.183,25.885,-116.2,-37.608,-36.453,9.646,-121.82,29.449,-2.3765,3.8111
-3.2143,-48.322,32.779,-16.502,22.028,3.1621,77.183,25.885,-116.2,-37.608,-36.453,9.646,-121.82,29.449,-2.3765,3.8111
-3.7788,-48.341,32.744,-16.175,22.037,3.1777,77.068,26.114,-115.93,-38.068,-36.502,9.6612,-121.8,29.02,-2.6347,3.5507
-3.7788,-48.341,32.744,-16.175,22.037,3.1777,77.068,26.114,-115.93,-38.068,-36.502,9.6612,-121.8,29.02,-2.6347,3.5507
-4.3434,-48.363,32.706,-15.852,22.045,3.1917,76.952,26.339,-115.66,-38.528,-36.552,9.6734,-121.77,28.591,-2.895,3.2881
-4.3434,-48.363,32.706,-15.852,22.045,3.1917,76.952,26.339,-115.66,-38.528,-36.552,9.6734,-121.77,28.591,-2.895,3.2881
-4.9081,-48.388,32.666,-15.532,22.051,3.204,76.833,26.559,-115.38,-38.989,-36.603,9.6828,-121.74,28.162,-3.1573,3.0233
-4.9081,-48.388,32.666,-15.532,22.051,3.204,76.833,26.559,-115.38,-38.989,-36.603,9.6828,-121.74,28.162,-3.1573,3.0233
-4.9081,-48.388,32.666,-15.532,22.051,3.204,76.833,26.559,-115.38,-38.989,-36.603,9.6828,-121.74,28.162,-3.1573,3.0233
-5.4729,-48.414,32.625,-15.215,22.058,3.2147,76.713,26.774,-115.11,-39.451,-36.654,9.6893,-121.71,27.734,-3.4216,2.7565
-5.4729,-48.414,32.625,-15.215,22.058,3.2147,76.713,26.774,-115.11,-39.451,-36.654,9.6893,-121.71,27.734,-3.4216,2.7565
-6.0377,-48.443,32.581,-14.902,22.063,3.2237,76.592,26.985,-114.83,-39.913,-36.707,9.6929,-121.68,27.306,-3.688,2.4876
-6.0377,-48.443,32.581,-14.902,22.063,3.2237,76.592,26.985,-114.83,-39.913,-36.707,9.6929,-121.68,27.306,-3.688,2.4876
-6.0377,-48.443,32.581,-14.902,22.063,3.2237,76.592,26.985,-114.83,-39.913,-36.707,9.6929,-121.68,27.306,-3.688,2.4876
-7.1673,-48.509,32.487,-14.284,22.071,3.237,76.343,27.393,-114.28,-40.839,-36.814,9.6916,-121.62,26.45,-4.2267,1.9436
-7.1673,-48.509,32.487,-14.284,22.071,3.237,76.343,27.393,-114.28,-40.839,-36.814,9.6916,-121.62,26.45,-4.2267,1.9436
-7.1673,-48.509,32.487,-14.284,22.071,3.237,76.343,27.393,-114.28,-40.839,-36.814,9.6916,-121.62,26.45,-4.2267,1.9436
-7.732,-48.545,32.438,-13.981,22.074,3.2413,76.216,27.59,-114,-41.302,-36.868,9.6867,-121.59,26.023,-4.499,1.6685
-7.732,-48.545,32.438,-13.981,22.074,3.2413,76.216,27.59,-114,-41.302,-36.868,9.6867,-121.59,26.023,-4.499,1.6685
-8.2966,-48.583,32.386,-13.68,22.077,3.2439,76.088,27.783,-113.72,-41.766,-36.923,9.679,-121.56,25.597,-4.7732,1.3914
-8.2966,-48.583,32.386,-13.68,22.077,3.2439,76.088,27.783,-113.72,-41.766,-36.923,9.679,-121.56,25.597,-4.7732,1.3914
-8.8611,-48.624,32.332,-13.383,22.078,3.245,75.957,27.971,-113.44,-42.231,-36.98,9.6684,-121.53,25.17,-5.0494,1.1124
-9.4254,-48.668,32.276,-13.089,22.079,3.2446,75.825,28.154,-113.15,-42.696,-37.036,9.6551,-121.5,24.744,-5.3275,0.83134
-9.4254,-48.668,32.276,-13.089,22.079,3.2446,75.825,28.154,-113.15,-42.696,-37.036,9.6551,-121.5,24.744,-5.3275,0.83134
-9.9895,-48.713,32.218,-12.798,22.079,3.2426,75.691,28.334,-112.87,-43.162,-37.094,9.6391,-121.47,24.318,-5.6076,0.54837
-9.9895,-48.713,32.218,-12.798,22.079,3.2426,75.691,28.334,-112.87,-43.162,-37.094,9.6391,-121.47,24.318,-5.6076,0.54837
-10.553,-48.761,32.158,-12.51,22.078,3.2391,75.556,28.508,-112.58,-43.628,-37.152,9.6202,-121.44,23.892,-5.8895,0.26346
-10.553,-48.761,32.158,-12.51,22.078,3.2391,75.556,28.508,-112.58,-43.628,-37.152,9.6202,-121.44,23.892,-5.8895,0.26346
-10.553,-48.761,32.158,-12.51,22.078,3.2391,75.556,28.508,-112.58,-43.628,-37.152,9.6202,-121.44,23.892,-5.8895,0.26346
-11.117,-48.811,32.096,-12.226,22.076,3.234,75.419,28.678,-112.29,-44.094,-37.211,9.5986,-121.4,23.467,-6.1732,-0.023346
-11.117,-48.811,32.096,-12.226,22.076,3.234,75.419,28.678,-112.29,-44.094,-37.211,9.5986,-121.4,23.467,-6.1732,-0.023346
-11.68,-48.864,32.032,-11.945,22.074,3.2275,75.28,28.844,-112,-44.561,-37.271,9.5743,-121.37,23.042,-6.4589,-0.31204
-11.68,-48.864,32.032,-11.945,22.074,3.2275,75.28,28.844,-112,-44.561,-37.271,9.5743,-121.37,23.042,-6.4589,-0.31204
-11.68,-48.864,32.032,-11.945,22.074,3.2275,75.28,28.844,-112,-44.561,-37.271,9.5743,-121.37,23.042,-6.4589,-0.31204
-12.806,-48.976,31.898,-11.392,22.068,3.21,74.996,29.162,-111.42,-45.497,-37.393,9.5176,-121.31,22.193,-7.0357,-0.89502
-12.806,-48.976,31.898,-11.392,22.068,3.21,74.996,29.162,-111.42,-45.497,-37.393,9.5176,-121.31,22.193,-7.0357,-0.89502
-13.368,-49.035,31.828,-11.12,22.063,3.199,74.852,29.315,-111.13,-45.965,-37.455,9.4851,-121.27,21.769,-7.3268,-1.1893
-13.368,-49.035,31.828,-11.12,22.063,3.199,74.852,29.315,-111.13,-45.965,-37.455,9.4851,-121.27,21.769,-7.3268,-1.1893
-13.368,-49.035,31.828,-11.12,22.063,3.199,74.852,29.315,-111.13,-45.965,-37.455,9.4851,-121.27,21.769,-7.3268,-1.1893
-13.93,-49.097,31.756,-10.851,22.058,3.1867,74.706,29.463,-110.83,-46.434,-37.518,9.45,-121.24,21.346,-7.6197,-1.4853
-14.491,-49.161,31.682,-10.586,22.053,3.1728,74.558,29.606,-110.54,-46.903,-37.582,9.4123,-121.21,20.922,-7.9144,-1.7831
-15.052,-49.227,31.606,-10.324,22.046,3.1576,74.409,29.746,-110.24,-47.372,-37.646,9.3719,-121.17,20.499,-8.2109,-2.0827
-15.052,-49.227,31.606,-10.324,22.046,3.1576,74.409,29.746,-110.24,-47.372,-37.646,9.3719,-121.17,20.499,-8.2109,-2.0827
-15.052,-49.227,31.606,-10.324,22.046,3.1576,74.409,29.746,-110.24,-47.372,-37.646,9.3719,-121.17,20.499,-8.2109,-2.0827
-15.612,-49.295,31.528,-10.065,22.039,3.1409,74.258,29.881,-109.94,-47.842,-37.711,9.3289,-121.14,20.076,-8.5091,-2.3841
-15.612,-49.295,31.528,-10.065,22.039,3.1409,74.258,29.881,-109.94,-47.842,-37.711,9.3289,-121.14,20.076,-8.5091,-2.3841
-15.612,-49.295,31.528,-10.065,22.039,3.1409,74.258,29.881,-109.94,-47.842,-37.711,9.3289,-121.14,20.076,-8.5091,-2.3841
-16.171,-49.366,31.448,-9.8086,22.031,3.1229,74.105,30.011,-109.64,-48.313,-37.777,9.2832,-121.1,19.654,-8.809,-2.6871
-16.171,-49.366,31.448,-9.8086,22.031,3.1229,74.105,30.011,-109.64,-48.313,-37.777,9.2832,-121.1,19.654,-8.809,-2.6871
-16.73,-49.439,31.366,-9.5557,22.023,3.1034,73.95,30.138,-109.34,-48.783,-37.843,9.235,-121.07,19.231,-9.1106,-2.9919
-16.73,-49.439,31.366,-9.5557,22.023,3.1034,73.95,30.138,-109.34,-48.783,-37.843,9.235,-121.07,19.231,-9.1106,-2.9919
-17.289,-49.514,31.283,-9.3058,22.014,3.0827,73.793,30.26,-109.04,-49.254,-37.911,9.1842,-121.03,18.809,-9.414,-3.2983
-17.289,-49.514,31.283,-9.3058,22.014,3.0827,73.793,30.26,-109.04,-49.254,-37.911,9.1842,-121.03,18.809,-9.414,-3.2983
-17.289,-49.514,31.283,-9.3058,22.014,3.0827,73.793,30.26,-109.04,-49.254,-37.911,9.1842,-121.03,18.809,-9.414,-3.2983
-18.403,-49.671,31.109,-8.8155,21.993,3.037,73.475,30.491,-108.44,-50.197,-38.047,9.0749,-120.96,17.967,-10.026,-3.9162
-18.403,-49.671,31.109,-8.8155,21.993,3.037,73.475,30.491,-108.44,-50.197,-38.047,9.0749,-120.96,17.967,-10.026,-3.9162
-18.96,-49.753,31.02,-8.5749,21.982,3.0122,73.313,30.6,-108.13,-50.669,-38.117,9.0164,-120.92,17.545,-10.334,-4.2275
-18.96,-49.753,31.02,-8.5749,21.982,3.0122,73.313,30.6,-108.13,-50.669,-38.117,9.0164,-120.92,17.545,-10.334,-4.2275
-19.515,-49.837,30.928,-8.3374,21.971,2.9861,73.15,30.705,-107.82,-51.142,-38.187,8.9555,-120.89,17.125,-10.644,-4.5405
-19.515,-49.837,30.928,-8.3374,21.971,2.9861,73.15,30.705,-107.82,-51.142,-38.187,8.9555,-120.89,17.125,-10.644,-4.5405
-20.07,-49.923,30.835,-8.103,21.958,2.9587,72.985,30.806,-107.52,-51.614,-38.258,8.892,-120.85,16.704,-10.955,-4.8551
-20.07,-49.923,30.835,-8.103,21.958,2.9587,72.985,30.806,-107.52,-51.614,-38.258,8.892,-120.85,16.704,-10.955,-4.8551
-20.07,-49.923,30.835,-8.103,21.958,2.9587,72.985,30.806,-107.52,-51.614,-38.258,8.892,-120.85,16.704,-10.955,-4.8551
-20.623,-50.011,30.739,-7.8715,21.945,2.93,72.818,30.903,-107.21,-52.087,-38.33,8.8261,-120.82,16.284,-11.268,-5.1712
-20.623,-50.011,30.739,-7.8715,21.945,2.93,72.818,30.903,-107.21,-52.087,-38.33,8.8261,-120.82,16.284,-11.268,-5.1712
-20.623,-50.011,30.739,-7.8715,21.945,2.93,72.818,30.903,-107.21,-52.087,-38.33,8.8261,-120.82,16.284,-11.268,-5.1712
-21.728,-50.194,30.543,-7.4178,21.918,2.8688,72.478,31.084,-106.59,-53.034,-38.475,8.6869,-120.74,15.445,-11.899,-5.808
-21.728,-50.194,30.543,-7.4178,21.918,2.8688,72.478,31.084,-106.59,-53.034,-38.475,8.6869,-120.74,15.445,-11.899,-5.808
-22.279,-50.288,30.442,-7.1954,21.903,2.8364,72.306,31.168,-106.28,-53.508,-38.549,8.6137,-120.7,15.026,-12.217,-6.1286
-22.279,-50.288,30.442,-7.1954,21.903,2.8364,72.306,31.168,-106.28,-53.508,-38.549,8.6137,-120.7,15.026,-12.217,-6.1286
-22.279,-50.288,30.442,-7.1954,21.903,2.8364,72.306,31.168,-106.28,-53.508,-38.549,8.6137,-120.7,15.026,-12.217,-6.1286
-22.829,-50.385,30.339,-6.976,21.887,2.8027,72.132,31.248,-105.96,-53.982,-38.623,8.538,-120.67,14.607,-12.536,-6.4507
-22.829,-50.385,30.339,-6.976,21.887,2.8027,72.132,31.248,-105.96,-53.982,-38.623,8.538,-120.67,14.607,-12.536,-6.4507
-23.926,-50.584,30.128,-6.5461,21.855,2.7317,71.779,31.396,-105.34,-54.93,-38.774,8.3795,-120.59,13.77,-13.179,-7.0993
-23.926,-50.584,30.128,-6.5461,21.855,2.7317,71.779,31.396,-105.34,-54.93,-38.774,8.3795,-120.59,13.77,-13.179,-7.0993
-23.926,-50.584,30.128,-6.5461,21.855,2.7317,71.779,31.396,-105.34,-54.93,-38.774,8.3795,-120.59,13.77,-13.179,-7.0993
-24.473,-50.687,30.019,-6.3357,21.838,2.6944,71.599,31.464,-105.02,-55.405,-38.851,8.2968,-120.55,13.351,-13.503,-7.4257
-24.473,-50.687,30.019,-6.3357,21.838,2.6944,71.599,31.464,-105.02,-55.405,-38.851,8.2968,-120.55,13.351,-13.503,-7.4257
-25.019,-50.792,29.909,-6.1281,21.82,2.6559,71.418,31.528,-104.7,-55.88,-38.928,8.2117,-120.52,12.934,-13.828,-7.7535
-25.019,-50.792,29.909,-6.1281,21.82,2.6559,71.418,31.528,-104.7,-55.88,-38.928,8.2117,-120.52,12.934,-13.828,-7.7535
-25.564,-50.899,29.797,-5.9235,21.802,2.6163,71.236,31.588,-104.39,-56.355,-39.006,8.1243,-120.48,12.516,-14.155,-8.0827
-25.564,-50.899,29.797,-5.9235,21.802,2.6163,71.236,31.588,-104.39,-56.355,-39.006,8.1243,-120.48,12.516,-14.155,-8.0827
-26.107,-51.008,29.683,-5.7218,21.784,2.5755,71.051,31.644,-104.07,-56.83,-39.084,8.0346,-120.44,12.099,-14.483,-8.4132
-26.107,-51.008,29.683,-5.7218,21.784,2.5755,71.051,31.644,-104.07,-56.83,-39.084,8.0346,-120.44,12.099,-14.483,-8.4132
-26.649,-51.119,29.567,-5.5229,21.764,2.5336,70.865,31.695,-103.75,-57.306,-39.164,7.9426,-120.4,11.682,-14.812,-8.7451
-26.649,-51.119,29.567,-5.5229,21.764,2.5336,70.865,31.695,-103.75,-57.306,-39.164,7.9426,-120.4,11.682,-14.812,-8.7451
-27.19,-51.232,29.45,-5.327,21.745,2.4906,70.677,31.743,-103.43,-57.781,-39.244,7.8483,-120.36,11.265,-15.143,-9.0782
-27.19,-51.232,29.45,-5.327,21.745,2.4906,70.677,31.743,-103.43,-57.781,-39.244,7.8483,-120.36,11.265,-15.143,-9.0782
-27.19,-51.232,29.45,-5.327,21.745,2.4906,70.677,31.743,-103.43,-57.781,-39.244,7.8483,-120.36,11.265,-15.143,-9.0782
-27.73,-51.347,29.331,-5.1339,21.724,2.4465,70.487,31.788,-103.11,-58.257,-39.324,7.7519,-120.32,10.849,-15.475,-9.4127
-28.268,-51.463,29.21,-4.9438,21.704,2.4013,70.296,31.828,-102.79,-58.733,-39.405,7.6532,-120.29,10.433,-15.808,-9.7484
-28.268,-51.463,29.21,-4.9438,21.704,2.4013,70.296,31.828,-102.79,-58.733,-39.405,7.6532,-120.29,10.433,-15.808,-9.7484
-28.805,-51.582,29.087,-4.7564,21.682,2.355,70.103,31.864,-102.46,-59.209,-39.487,7.5523,-120.25,10.017,-16.142,-10.085
-28.805,-51.582,29.087,-4.7564,21.682,2.355,70.103,31.864,-102.46,-59.209,-39.487,7.5523,-120.25,10.017,-16.142,-10.085
-29.34,-51.703,28.962,-4.5719,21.66,2.3076,69.908,31.897,-102.14,-59.685,-39.57,7.4492,-120.21,9.6015,-16.478,-10.423
-29.34,-51.703,28.962,-4.5719,21.66,2.3076,69.908,31.897,-102.14,-59.685,-39.57,7.4492,-120.21,9.6015,-16.478,-10.423
-29.34,-51.703,28.962,-4.5719,21.66,2.3076,69.908,31.897,-102.14,-59.685,-39.57,7.4492,-120.21,9.6015,-16.478,-10.423
-29.875,-51.825,28.836,-4.3902,21.638,2.2592,69.711,31.925,-101.81,-60.161,-39.653,7.344,-120.17,9.1863,-16.815,-10.763
-29.875,-51.825,28.836,-4.3902,21.638,2.2592,69.711,31.925,-101.81,-60.161,-39.653,7.344,-120.17,9.1863,-16.815,-10.763
-30.407,-51.95,28.708,-4.2113,21.616,2.2098,69.513,31.95,-101.49,-60.637,-39.737,7.2366,-120.13,8.7713,-17.154,-11.103
-30.938,-52.076,28.579,-4.0351,21.592,2.1593,69.313,31.971,-101.16,-61.114,-39.821,7.1271,-120.09,8.3567,-17.493,-11.445
-30.938,-52.076,28.579,-4.0351,21.592,2.1593,69.313,31.971,-101.16,-61.114,-39.821,7.1271,-120.09,8.3567,-17.493,-11.445
-30.938,-52.076,28.579,-4.0351,21.592,2.1593,69.313,31.971,-101.16,-61.114,-39.821,7.1271,-120.09,8.3567,-17.493,-11.445
-31.468,-52.204,28.447,-3.8618,21.569,2.1078,69.111,31.989,-100.84,-61.59,-39.906,7.0155,-120.05,7.9423,-17.834,-11.788
-31.468,-52.204,28.447,-3.8618,21.569,2.1078,69.111,31.989,-100.84,-61.59,-39.906,7.0155,-120.05,7.9423,-17.834,-11.788
-31.468,-52.204,28.447,-3.8618,21.569,2.1078,69.111,31.989,-100.84,-61.59,-39.906,7.0155,-120.05,7.9423,-17.834,-11.788
-32.523,-52.466,28.18,-3.5234,21.52,2.0019,68.703,32.012,-100.18,-62.543,-40.078,6.7861,-119.97,7.1144,-18.519,-12.477
-32.523,-52.466,28.18,-3.5234,21.52,2.0019,68.703,32.012,-100.18,-62.543,-40.078,6.7861,-119.97,7.1144,-18.519,-12.477
-32.523,-52.466,28.18,-3.5234,21.52,2.0019,68.703,32.012,-100.18,-62.543,-40.078,6.7861,-119.97,7.1144,-18.519,-12.477
-33.048,-52.6,28.043,-3.3582,21.495,1.9475,68.496,32.018,-99.853,-63.019,-40.165,6.6684,-119.93,6.7009,-18.864,-12.823
-33.048,-52.6,28.043,-3.3582,21.495,1.9475,68.496,32.018,-99.853,-63.019,-40.165,6.6684,-119.93,6.7009,-18.864,-12.823
-33.571,-52.735,27.905,-3.1958,21.47,1.8921,68.287,32.021,-99.524,-63.496,-40.252,6.5486,-119.89,6.2876,-19.209,-13.17
-34.092,-52.872,27.766,-3.0361,21.444,1.8358,68.077,32.02,-99.194,-63.972,-40.34,6.4268,-119.85,5.8747,-19.555,-13.518
-34.092,-52.872,27.766,-3.0361,21.444,1.8358,68.077,32.02,-99.194,-63.972,-40.34,6.4268,-119.85,5.8747,-19.555,-13.518
-34.612,-53.011,27.624,-2.8791,21.418,1.7785,67.865,32.015,-98.863,-64.449,-40.428,6.303,-119.81,5.462,-19.903,-13.867
-34.612,-53.011,27.624,-2.8791,21.418,1.7785,67.865,32.015,-98.863,-64.449,-40.428,6.303,-119.81,5.462,-19.903,-13.867
-35.13,-53.152,27.482,-2.7248,21.391,1.7203,67.651,32.007,-98.532,-64.925,-40.518,6.1773,-119.77,5.0496,-20.252,-14.218
-35.13,-53.152,27.482,-2.7248,21.391,1.7203,67.651,32.007,-98.532,-64.925,-40.518,6.1773,-119.77,5.0496,-20.252,-14.218
-35.13,-53.152,27.482,-2.7248,21.391,1.7203,67.651,32.007,-98.532,-64.925,-40.518,6.1773,-119.77,5.0496,-20.252,-14.218
-35.647,-53.294,27.337,-2.5731,21.364,1.6613,67.436,31.995,-98.2,-65.401,-40.607,6.0496,-119.73,4.6374,-20.601,-14.569
-36.161,-53.439,27.191,-2.424,21.337,1.6013,67.219,31.98,-97.867,-65.878,-40.697,5.9201,-119.69,4.2256,-20.952,-14.921
-36.674,-53.584,27.044,-2.2775,21.309,1.5405,67,31.961,-97.534,-66.354,-40.788,5.7886,-119.65,3.814,-21.303,-15.274
-36.674,-53.584,27.044,-2.2775,21.309,1.5405,67,31.961,-97.534,-66.354,-40.788,5.7886,-119.65,3.814,-21.303,-15.274
-37.184,-53.732,26.895,-2.1337,21.281,1.4787,66.78,31.938,-97.2,-66.83,-40.879,5.6552,-119.61,3.4027,-21.656,-15.628
-37.184,-53.732,26.895,-2.1337,21.281,1.4787,66.78,31.938,-97.2,-66.83,-40.879,5.6552,-119.61,3.4027,-21.656,-15.628
-37.184,-53.732,26.895,-2.1337,21.281,1.4787,66.78,31.938,-97.2,-66.83,-40.879,5.6552,-119.61,3.4027,-21.656,-15.628
-37.693,-53.881,26.744,-1.9924,21.252,1.4162,66.558,31.913,-96.866,-67.306,-40.971,5.52,-119.57,2.9917,-22.009,-15.982
-37.693,-53.881,26.744,-1.9924,21.252,1.4162,66.558,31.913,-96.866,-67.306,-40.971,5.52,-119.57,2.9917,-22.009,-15.982
-38.2,-54.031,26.592,-1.8538,21.224,1.3528,66.334,31.883,-96.531,-67.782,-41.064,5.383,-119.53,2.581,-22.364,-16.338
-38.2,-54.031,26.592,-1.8538,21.224,1.3528,66.334,31.883,-96.531,-67.782,-41.064,5.383,-119.53,2.581,-22.364,-16.338
-38.705,-54.184,26.439,-1.7176,21.194,1.2886,66.109,31.851,-96.195,-68.257,-41.156,5.2441,-119.49,2.1706,-22.719,-16.694
-39.208,-54.337,26.283,-1.5841,21.165,1.2235,65.882,31.815,-95.859,-68.733,-41.25,5.1035,-119.45,1.7604,-23.075,-17.052
-39.208,-54.337,26.283,-1.5841,21.165,1.2235,65.882,31.815,-95.859,-68.733,-41.25,5.1035,-119.45,1.7604,-23.075,-17.052
-39.208,-54.337,26.283,-1.5841,21.165,1.2235,65.882,31.815,-95.859,-68.733,-41.25,5.1035,-119.45,1.7604,-23.075,-17.052
-39.709,-54.493,26.127,-1.453,21.135,1.1577,65.654,31.775,-95.523,-69.208,-41.344,4.9611,-119.41,1.3505,-23.432,-17.41
-39.709,-54.493,26.127,-1.453,21.135,1.1577,65.654,31.775,-95.523,-69.208,-41.344,4.9611,-119.41,1.3505,-23.432,-17.41
-39.709,-54.493,26.127,-1.453,21.135,1.1577,65.654,31.775,-95.523,-69.208,-41.344,4.9611,-119.41,1.3505,-23.432,-17.41
-40.207,-54.65,25.969,-1.3245,21.105,1.0911,65.423,31.733,-95.186,-69.684,-41.438,4.8169,-119.37,0.94095,-23.79,-17.768
-40.207,-54.65,25.969,-1.3245,21.105,1.0911,65.423,31.733,-95.186,-69.684,-41.438,4.8169,-119.37,0.94095,-23.79,-17.768
-40.207,-54.65,25.969,-1.3245,21.105,1.0911,65.423,31.733,-95.186,-69.684,-41.438,4.8169,-119.37,0.94095,-23.79,-17.768
-41.198,-54.968,25.649,-1.0749,21.044,0.9555,64.958,31.637,-94.511,-70.634,-41.628,4.5234,-119.29,0.12261,-24.508,-18.488
-41.198,-54.968,25.649,-1.0749,21.044,0.9555,64.958,31.637,-94.511,-70.634,-41.628,4.5234,-119.29,0.12261,-24.508,-18.488
-41.198,-54.968,25.649,-1.0749,21.044,0.9555,64.958,31.637,-94.511,-70.634,-41.628,4.5234,-119.29,0.12261,-24.508,-18.488
-41.691,-55.13,25.487,-0.95376,21.013,0.88659,64.723,31.585,-94.173,-71.108,-41.724,4.3741,-119.25,-0.28614,-24.868,-18.849
-41.691,-55.13,25.487,-0.95376,21.013,0.88659,64.723,31.585,-94.173,-71.108,-41.724,4.3741,-119.25,-0.28614,-24.868,-18.849
-41.691,-55.13,25.487,-0.95376,21.013,0.88659,64.723,31.585,-94.173,-71.108,-41.724,4.3741,-119.25,-0.28614,-24.868,-18.849
-41.691,-55.13,25.487,-0.95376,21.013,0.88659,64.723,31.585,-94.173,-71.108,-41.724,4.3741,-119.25,-0.28614,-24.868,-18.849
-42.669,-55.457,25.158,-0.71887,20.95,0.74656,64.248,31.47,-93.495,-72.057,-41.916,4.0706,-119.17,-1.1028,-25.591,-19.573
-42.669,-55.457,25.158,-0.71887,20.95,0.74656,64.248,31.47,-93.495,-72.057,-41.916,4.0706,-119.17,-1.1028,-25.591,-19.573
-43.154,-55.622,24.992,-0.60505,20.918,0.67547,64.008,31.408,-93.155,-72.531,-42.013,3.9164,-119.13,-1.5107,-25.953,-19.936
-43.154,-55.622,24.992,-0.60505,20.918,0.67547,64.008,31.408,-93.155,-72.531,-42.013,3.9164,-119.13,-1.5107,-25.953,-19.936
-43.638,-55.79,24.824,-0.49363,20.886,0.60368,63.767,31.343,-92.816,-73.004,-42.111,3.7606,-119.09,-1.9183,-26.316,-20.299
-43.638,-55.79,24.824,-0.49363,20.886,0.60368,63.767,31.343,-92.816,-73.004,-42.111,3.7606,-119.09,-1.9183,-26.316,-20.299
-44.597,-56.128,24.485,-0.27792,20.822,0.45805,63.279,31.203,-92.135,-73.95,-42.307,3.4442,-119.01,-2.7326,-27.044,-21.028
-44.597,-56.128,24.485,-0.27792,20.822,0.45805,63.279,31.203,-92.135,-73.95,-42.307,3.4442,-119.01,-2.7326,-27.044,-21.028
-44.597,-56.128,24.485,-0.27792,20.822,0.45805,63.279,31.203,-92.135,-73.95,-42.307,3.4442,-119.01,-2.7326,-27.044,-21.028
-45.073,-56.299,24.314,-0.1736,20.789,0.38423,63.033,31.128,-91.794,-74.423,-42.405,3.2837,-118.97,-3.1394,-27.409,-21.393
-45.073,-56.299,24.314,-0.1736,20.789,0.38423,63.033,31.128,-91.794,-74.423,-42.405,3.2837,-118.97,-3.1394,-27.409,-21.393
-45.073,-56.299,24.314,-0.1736,20.789,0.38423,63.033,31.128,-91.794,-74.423,-42.405,3.2837,-118.97,-3.1394,-27.409,-21.393
-45.547,-56.471,24.141,-0.071605,20.756,0.30976,62.786,31.051,-91.453,-74.895,-42.504,3.1217,-118.93,-3.5458,-27.774,-21.759
-46.018,-56.645,23.967,0.02807,20.723,0.23465,62.536,30.97,-91.111,-75.367,-42.604,2.9582,-118.89,-3.952,-28.14,-22.125
-46.018,-56.645,23.967,0.02807,20.723,0.23465,62.536,30.97,-91.111,-75.367,-42.604,2.9582,-118.89,-3.952,-28.14,-22.125
-46.487,-56.82,23.792,0.12544,20.689,0.15892,62.286,30.887,-90.77,-75.839,-42.703,2.7933,-118.85,-4.3579,-28.507,-22.492
-46.487,-56.82,23.792,0.12544,20.689,0.15892,62.286,30.887,-90.77,-75.839,-42.703,2.7933,-118.85,-4.3579,-28.507,-22.492
-46.954,-56.996,23.615,0.22053,20.656,0.082563,62.033,30.8,-90.428,-76.31,-42.803,2.6268,-118.81,-4.7635,-28.874,-22.859
-46.954,-56.996,23.615,0.22053,20.656,0.082563,62.033,30.8,-90.428,-76.31,-42.803,2.6268,-118.81,-4.7635,-28.874,-22.859
-47.418,-57.174,23.438,0.31336,20.622,0.005605,61.78,30.711,-90.085,-76.78,-42.904,2.459,-118.77,-5.1688,-29.241,-23.227
-47.418,-57.174,23.438,0.31336,20.622,0.005605,61.78,30.711,-90.085,-76.78,-42.904,2.459,-118.77,-5.1688,-29.241,-23.227
-47.418,-57.174,23.438,0.31336,20.622,0.005605,61.78,30.711,-90.085,-76.78,-42.904,2.459,-118.77,-5.1688,-29.241,-23.227
-47.879,-57.352,23.259,0.40393,20.588,-0.071945,61.524,30.619,-89.743,-77.251,-43.005,2.2897,-118.73,-5.5737,-29.609,-23.595
-48.337,-57.532,23.079,0.49227,20.554,-0.15008,61.268,30.524,-89.4,-77.72,-43.106,2.1191,-118.69,-5.9784,-29.977,-23.963
-48.337,-57.532,23.079,0.49227,20.554,-0.15008,61.268,30.524,-89.4,-77.72,-43.106,2.1191,-118.69,-5.9784,-29.977,-23.963
-48.793,-57.713,22.898,0.57838,20.52,-0.22878,61.009,30.426,-89.057,-78.19,-43.207,1.9471,-118.66,-6.3828,-30.346,-24.332
-48.793,-57.713,22.898,0.57838,20.52,-0.22878,61.009,30.426,-89.057,-78.19,-43.207,1.9471,-118.66,-6.3828,-30.346,-24.332
-49.247,-57.895,22.715,0.6623,20.486,-0.30803,60.75,30.325,-88.714,-78.659,-43.309,1.7737,-118.62,-6.7869,-30.715,-24.701
-49.247,-57.895,22.715,0.6623,20.486,-0.30803,60.75,30.325,-88.714,-78.659,-43.309,1.7737,-118.62,-6.7869,-30.715,-24.701
-49.697,-58.078,22.532,0.74402,20.451,-0.38784,60.488,30.222,-88.371,-79.127,-43.411,1.599,-118.58,-7.1907,-31.084,-25.07
-49.697,-58.078,22.532,0.74402,20.451,-0.38784,60.488,30.222,-88.371,-79.127,-43.411,1.599,-118.58,-7.1907,-31.084,-25.07
-49.697,-58.078,22.532,0.74402,20.451,-0.38784,60.488,30.222,-88.371,-79.127,-43.411,1.599,-118.58,-7.1907,-31.084,-25.07
-50.145,-58.262,22.348,0.82358,20.417,-0.46818,60.226,30.115,-88.027,-79.595,-43.513,1.423,-118.54,-7.5942,-31.454,-25.44
-50.145,-58.262,22.348,0.82358,20.417,-0.46818,60.226,30.115,-88.027,-79.595,-43.513,1.423,-118.54,-7.5942,-31.454,-25.44
-50.145,-58.262,22.348,0.82358,20.417,-0.46818,60.226,30.115,-88.027,-79.595,-43.513,1.423,-118.54,-7.5942,-31.454,-25.44
-50.145,-58.262,22.348,0.82358,20.417,-0.46818,60.226,30.115,-88.027,-79.595,-43.513,1.423,-118.54,-7.5942,-31.454,-25.44
-51.033,-58.634,21.975,0.97625,20.347,-0.63041,59.696,29.895,-87.34,-80.529,-43.718,1.0672,-118.46,-8.4002,-32.194,-26.18
-51.033,-58.634,21.975,0.97625,20.347,-0.63041,59.696,29.895,-87.34,-80.529,-43.718,1.0672,-118.46,-8.4002,-32.194,-26.18
-51.033,-58.634,21.975,0.97625,20.347,-0.63041,59.696,29.895,-87.34,-80.529,-43.718,1.0672,-118.46,-8.4002,-32.194,-26.18
-51.909,-59.009,21.599,1.1204,20.277,-0.79465,59.16,29.663,-86.652,-81.461,-43.924,0.7065,-118.38,-9.205,-32.936,-26.92
-51.909,-59.009,21.599,1.1204,20.277,-0.79465,59.16,29.663,-86.652,-81.461,-43.924,0.7065,-118.38,-9.205,-32.936,-26.92
-52.343,-59.198,21.41,1.1894,20.242,-0.87749,58.89,29.544,-86.308,-81.926,-44.028,0.52432,-118.34,-9.607,-33.307,-27.291
-52.343,-59.198,21.41,1.1894,20.242,-0.87749,58.89,29.544,-86.308,-81.926,-44.028,0.52432,-118.34,-9.607,-33.307,-27.291
-52.343,-59.198,21.41,1.1894,20.242,-0.87749,58.89,29.544,-86.308,-81.926,-44.028,0.52432,-118.34,-9.607,-33.307,-27.291
-52.774,-59.388,21.219,1.2562,20.207,-0.9608,58.619,29.422,-85.964,-82.39,-44.132,0.34097,-118.3,-10.009,-33.678,-27.662
-52.774,-59.388,21.219,1.2562,20.207,-0.9608,58.619,29.422,-85.964,-82.39,-44.132,0.34097,-118.3,-10.009,-33.678,-27.662
-52.774,-59.388,21.219,1.2562,20.207,-0.9608,58.619,29.422,-85.964,-82.39,-44.132,0.34097,-118.3,-10.009,-33.678,-27.662
-53.628,-59.771,20.835,1.3838,20.136,-1.1288,58.072,29.17,-85.275,-83.317,-44.34,-0.029167,-118.22,-10.811,-34.42,-28.404
-53.628,-59.771,20.835,1.3838,20.136,-1.1288,58.072,29.17,-85.275,-83.317,-44.34,-0.029167,-118.22,-10.811,-34.42,-28.404
-54.05,-59.964,20.642,1.4446,20.101,-1.2134,57.797,29.04,-84.931,-83.78,-44.444,-0.21591,-118.18,-11.211,-34.792,-28.775
-54.05,-59.964,20.642,1.4446,20.101,-1.2134,57.797,29.04,-84.931,-83.78,-44.444,-0.21591,-118.18,-11.211,-34.792,-28.775
-54.469,-60.157,20.447,1.5033,20.066,-1.2985,57.52,28.908,-84.587,-84.241,-44.548,-0.40375,-118.14,-11.612,-35.163,-29.146
-54.469,-60.157,20.447,1.5033,20.066,-1.2985,57.52,28.908,-84.587,-84.241,-44.548,-0.40375,-118.14,-11.612,-35.163,-29.146
-54.469,-60.157,20.447,1.5033,20.066,-1.2985,57.52,28.908,-84.587,-84.241,-44.548,-0.40375,-118.14,-11.612,-35.163,-29.146
-54.885,-60.352,20.252,1.56,20.03,-1.384,57.242,28.774,-84.243,-84.703,-44.653,-0.59266,-118.11,-12.012,-35.535,-29.518
-55.298,-60.547,20.056,1.6148,19.995,-1.4698,56.962,28.637,-83.898,-85.163,-44.758,-0.78261,-118.07,-12.411,-35.907,-29.889
-55.708,-60.743,19.859,1.6676,19.959,-1.5561,56.681,28.497,-83.554,-85.622,-44.863,-0.97359,-118.03,-12.811,-36.278,-30.26
-55.708,-60.743,19.859,1.6676,19.959,-1.5561,56.681,28.497,-83.554,-85.622,-44.863,-0.97359,-118.03,-12.811,-36.278,-30.26
-55.708,-60.743,19.859,1.6676,19.959,-1.5561,56.681,28.497,-83.554,-85.622,-44.863,-0.97359,-118.03,-12.811,-36.278,-30.26
-56.115,-60.939,19.661,1.7185,19.924,-1.6428,56.399,28.356,-83.21,-86.081,-44.968,-1.1656,-117.99,-13.21,-36.65,-30.631
-56.115,-60.939,19.661,1.7185,19.924,-1.6428,56.399,28.356,-83.21,-86.081,-44.968,-1.1656,-117.99,-13.21,-36.65,-30.631
-56.519,-61.136,19.463,1.7674,19.888,-1.7298,56.116,28.212,-82.866,-86.539,-45.073,-1.3586,-117.95,-13.608,-37.021,-31.002
-56.519,-61.136,19.463,1.7674,19.888,-1.7298,56.116,28.212,-82.866,-86.539,-45.073,-1.3586,-117.95,-13.608,-37.021,-31.002
-56.92,-61.334,19.263,1.8144,19.853,-1.8172,55.831,28.065,-82.522,-86.997,-45.178,-1.5525,-117.91,-14.007,-37.393,-31.373
-57.317,-61.533,19.063,1.8595,19.817,-1.9049,55.545,27.917,-82.178,-87.453,-45.284,-1.7474,-117.87,-14.405,-37.764,-31.744
-57.317,-61.533,19.063,1.8595,19.817,-1.9049,55.545,27.917,-82.178,-87.453,-45.284,-1.7474,-117.87,-14.405,-37.764,-31.744
-57.317,-61.533,19.063,1.8595,19.817,-1.9049,55.545,27.917,-82.178,-87.453,-45.284,-1.7474,-117.87,-14.405,-37.764,-31.744
-57.712,-61.732,18.863,1.9027,19.782,-1.9929,55.258,27.766,-81.834,-87.909,-45.389,-1.9432,-117.83,-14.802,-38.135,-32.115
-57.712,-61.732,18.863,1.9027,19.782,-1.9929,55.258,27.766,-81.834,-87.909,-45.389,-1.9432,-117.83,-14.802,-38.135,-32.115
-57.712,-61.732,18.863,1.9027,19.782,-1.9929,55.258,27.766,-81.834,-87.909,-45.389,-1.9432,-117.83,-14.802,-38.135,-32.115
-58.103,-61.932,18.661,1.944,19.747,-2.0813,54.969,27.613,-81.49,-88.364,-45.495,-2.1399,-117.8,-15.199,-38.506,-32.486
-58.103,-61.932,18.661,1.944,19.747,-2.0813,54.969,27.613,-81.49,-88.364,-45.495,-2.1399,-117.8,-15.199,-38.506,-32.486
-58.103,-61.932,18.661,1.944,19.747,-2.0813,54.969,27.613,-81.49,-88.364,-45.495,-2.1399,-117.8,-15.199,-38.506,-32.486
-58.875,-62.333,18.256,2.0212,19.676,-2.2591,54.388,27.301,-80.803,-89.27,-45.706,-2.5359,-117.72,-15.993,-39.248,-33.226
-58.875,-62.333,18.256,2.0212,19.676,-2.2591,54.388,27.301,-80.803,-89.27,-45.706,-2.5359,-117.72,-15.993,-39.248,-33.226
-58.875,-62.333,18.256,2.0212,19.676,-2.2591,54.388,27.301,-80.803,-89.27,-45.706,-2.5359,-117.72,-15.993,-39.248,-33.226
-59.256,-62.534,18.052,2.057,19.641,-2.3484,54.096,27.142,-80.459,-89.723,-45.812,-2.7352,-117.68,-16.389,-39.618,-33.596
-59.256,-62.534,18.052,2.057,19.641,-2.3484,54.096,27.142,-80.459,-89.723,-45.812,-2.7352,-117.68,-16.389,-39.618,-33.596
-59.256,-62.534,18.052,2.057,19.641,-2.3484,54.096,27.142,-80.459,-89.723,-45.812,-2.7352,-117.68,-16.389,-39.618,-33.596
-60.009,-62.938,17.643,2.1233,19.571,-2.5278,53.508,26.817,-79.773,-90.624,-46.023,-3.1362,-117.6,-17.18,-40.358,-34.335
-60.009,-62.938,17.643,2.1233,19.571,-2.5278,53.508,26.817,-79.773,-90.624,-46.023,-3.1362,-117.6,-17.18,-40.358,-34.335
-60.38,-63.14,17.437,2.1537,19.536,-2.618,53.212,26.652,-79.43,-91.073,-46.129,-3.3379,-117.57,-17.575,-40.728,-34.704
-60.38,-63.14,17.437,2.1537,19.536,-2.618,53.212,26.652,-79.43,-91.073,-46.129,-3.3379,-117.57,-17.575,-40.728,-34.704
-60.38,-63.14,17.437,2.1537,19.536,-2.618,53.212,26.652,-79.43,-91.073,-46.129,-3.3379,-117.57,-17.575,-40.728,-34.704
-60.748,-63.343,17.231,2.1824,19.501,-2.7083,52.915,26.484,-79.088,-91.521,-46.235,-3.5403,-117.53,-17.969,-41.097,-35.073
-60.748,-63.343,17.231,2.1824,19.501,-2.7083,52.915,26.484,-79.088,-91.521,-46.235,-3.5403,-117.53,-17.969,-41.097,-35.073
-60.748,-63.343,17.231,2.1824,19.501,-2.7083,52.915,26.484,-79.088,-91.521,-46.235,-3.5403,-117.53,-17.969,-41.097,-35.073
-61.473,-63.751,16.817,2.2345,19.431,-2.8899,52.317,26.144,-78.403,-92.415,-46.446,-3.9474,-117.45,-18.758,-41.834,-35.809
-61.473,-63.751,16.817,2.2345,19.431,-2.8899,52.317,26.144,-78.403,-92.415,-46.446,-3.9474,-117.45,-18.758,-41.834,-35.809
-61.831,-63.955,16.609,2.258,19.397,-2.9809,52.016,25.971,-78.061,-92.86,-46.552,-4.152,-117.41,-19.151,-42.202,-36.177
-61.831,-63.955,16.609,2.258,19.397,-2.9809,52.016,25.971,-78.061,-92.86,-46.552,-4.152,-117.41,-19.151,-42.202,-36.177
-62.185,-64.159,16.401,2.2798,19.362,-3.0723,51.715,25.796,-77.719,-93.304,-46.658,-4.3572,-117.38,-19.544,-42.57,-36.544
-62.185,-64.159,16.401,2.2798,19.362,-3.0723,51.715,25.796,-77.719,-93.304,-46.658,-4.3572,-117.38,-19.544,-42.57,-36.544
-62.185,-64.159,16.401,2.2798,19.362,-3.0723,51.715,25.796,-77.719,-93.304,-46.658,-4.3572,-117.38,-19.544,-42.57,-36.544
-62.535,-64.363,16.192,2.2999,19.328,-3.1638,51.412,25.619,-77.378,-93.747,-46.763,-4.5632,-117.34,-19.936,-42.937,-36.91
-62.882,-64.568,15.982,2.3183,19.294,-3.2555,51.108,25.44,-77.037,-94.189,-46.869,-4.7697,-117.3,-20.329,-43.303,-37.276
-63.225,-64.773,15.773,2.3351,19.26,-3.3474,50.803,25.26,-76.696,-94.63,-46.974,-4.9769,-117.26,-20.72,-43.669,-37.642
-63.225,-64.773,15.773,2.3351,19.26,-3.3474,50.803,25.26,-76.696,-94.63,-46.974,-4.9769,-117.26,-20.72,-43.669,-37.642
-63.225,-64.773,15.773,2.3351,19.26,-3.3474,50.803,25.26,-76.696,-94.63,-46.974,-4.9769,-117.26,-20.72,-43.669,-37.642
-63.565,-64.978,15.562,2.3502,19.226,-3.4394,50.497,25.078,-76.355,-95.07,-47.08,-5.1847,-117.22,-21.112,-44.034,-38.007
-63.565,-64.978,15.562,2.3502,19.226,-3.4394,50.497,25.078,-76.355,-95.07,-47.08,-5.1847,-117.22,-21.112,-44.034,-38.007
-63.565,-64.978,15.562,2.3502,19.226,-3.4394,50.497,25.078,-76.355,-95.07,-47.08,-5.1847,-117.22,-21.112,-44.034,-38.007
-63.901,-65.183,15.352,2.3637,19.192,-3.5317,50.19,24.894,-76.015,-95.508,-47.185,-5.393,-117.19,-21.503,-44.399,-38.372
-64.234,-65.389,15.14,2.3756,19.159,-3.6241,49.882,24.709,-75.675,-95.945,-47.29,-5.6019,-117.15,-21.893,-44.764,-38.736
-64.234,-65.389,15.14,2.3756,19.159,-3.6241,49.882,24.709,-75.675,-95.945,-47.29,-5.6019,-117.15,-21.893,-44.764,-38.736
-64.563,-65.594,14.929,2.3858,19.125,-3.7166,49.573,24.521,-75.335,-96.382,-47.395,-5.8113,-117.11,-22.283,-45.127,-39.099
-64.563,-65.594,14.929,2.3858,19.125,-3.7166,49.573,24.521,-75.335,-96.382,-47.395,-5.8113,-117.11,-22.283,-45.127,-39.099
-64.888,-65.8,14.717,2.3945,19.092,-3.8093,49.262,24.333,-74.996,-96.816,-47.5,-6.0213,-117.07,-22.673,-45.49,-39.461
-64.888,-65.8,14.717,2.3945,19.092,-3.8093,49.262,24.333,-74.996,-96.816,-47.5,-6.0213,-117.07,-22.673,-45.49,-39.461
-64.888,-65.8,14.717,2.3945,19.092,-3.8093,49.262,24.333,-74.996,-96.816,-47.5,-6.0213,-117.07,-22.673,-45.49,-39.461
-65.21,-66.005,14.505,2.4016,19.059,-3.9021,48.951,24.142,-74.657,-97.25,-47.605,-6.2317,-117.03,-23.062,-45.852,-39.823
-65.21,-66.005,14.505,2.4016,19.059,-3.9021,48.951,24.142,-74.657,-97.25,-47.605,-6.2317,-117.03,-23.062,-45.852,-39.823
-65.21,-66.005,14.505,2.4016,19.059,-3.9021,48.951,24.142,-74.657,-97.25,-47.605,-6.2317,-117.03,-23.062,-45.852,-39.823
-65.842,-66.416,14.08,2.4112,18.994,-4.088,48.326,23.757,-73.981,-98.114,-47.814,-6.654,-116.96,-23.838,-46.575,-40.545
-65.842,-66.416,14.08,2.4112,18.994,-4.088,48.326,23.757,-73.981,-98.114,-47.814,-6.654,-116.96,-23.838,-46.575,-40.545
-65.842,-66.416,14.08,2.4112,18.994,-4.088,48.326,23.757,-73.981,-98.114,-47.814,-6.654,-116.96,-23.838,-46.575,-40.545
-66.152,-66.621,13.867,2.4137,18.961,-4.1812,48.012,23.562,-73.643,-98.543,-47.919,-6.8659,-116.92,-24.226,-46.935,-40.905
-66.152,-66.621,13.867,2.4137,18.961,-4.1812,48.012,23.562,-73.643,-98.543,-47.919,-6.8659,-116.92,-24.226,-46.935,-40.905
-66.152,-66.621,13.867,2.4137,18.961,-4.1812,48.012,23.562,-73.643,-98.543,-47.919,-6.8659,-116.92,-24.226,-46.935,-40.905
-66.762,-67.032,13.44,2.4141,18.897,-4.3677,47.381,23.168,-72.969,-99.399,-48.127,-7.2907,-116.85,-25,-47.652,-41.622
-66.762,-67.032,13.44,2.4141,18.897,-4.3677,47.381,23.168,-72.969,-99.399,-48.127,-7.2907,-116.85,-25,-47.652,-41.622
-67.061,-67.237,13.226,2.412,18.865,-4.461,47.064,22.969,-72.632,-99.824,-48.231,-7.5037,-116.81,-25.386,-48.01,-41.98
-67.061,-67.237,13.226,2.412,18.865,-4.461,47.064,22.969,-72.632,-99.824,-48.231,-7.5037,-116.81,-25.386,-48.01,-41.98
-67.061,-67.237,13.226,2.412,18.865,-4.461,47.064,22.969,-72.632,-99.824,-48.231,-7.5037,-116.81,-25.386,-48.01,-41.98
-67.356,-67.442,13.012,2.4085,18.834,-4.5545,46.746,22.768,-72.296,-100.25,-48.334,-7.7171,-116.77,-25.772,-48.366,-42.336
-67.648,-67.646,12.797,2.4036,18.803,-4.648,46.427,22.566,-71.961,-100.67,-48.438,-7.9308,-116.73,-26.157,-48.722,-42.692
-67.648,-67.646,12.797,2.4036,18.803,-4.648,46.427,22.566,-71.961,-100.67,-48.438,-7.9308,-116.73,-26.157,-48.722,-42.692
-67.935,-67.85,12.583,2.3971,18.772,-4.7415,46.108,22.363,-71.626,-101.09,-48.541,-8.1448,-116.69,-26.542,-49.077,-43.046
-67.935,-67.85,12.583,2.3971,18.772,-4.7415,46.108,22.363,-71.626,-101.09,-48.541,-8.1448,-116.69,-26.542,-49.077,-43.046
-68.219,-68.054,12.368,2.3893,18.741,-4.835,45.787,22.159,-71.291,-101.51,-48.644,-8.3592,-116.66,-26.926,-49.431,-43.4
-68.219,-68.054,12.368,2.3893,18.741,-4.835,45.787,22.159,-71.291,-101.51,-48.644,-8.3592,-116.66,-26.926,-49.431,-43.4
-68.499,-68.258,12.153,2.38,18.71,-4.9286,45.466,21.953,-70.957,-101.93,-48.746,-8.5738,-116.62,-27.31,-49.784,-43.753
-68.499,-68.258,12.153,2.38,18.71,-4.9286,45.466,21.953,-70.957,-101.93,-48.746,-8.5738,-116.62,-27.31,-49.784,-43.753
-68.499,-68.258,12.153,2.38,18.71,-4.9286,45.466,21.953,-70.957,-101.93,-48.746,-8.5738,-116.62,-27.31,-49.784,-43.753
-68.775,-68.461,11.939,2.3693,18.68,-5.0222,45.144,21.746,-70.624,-102.35,-48.849,-8.7887,-116.58,-27.693,-50.136,-44.105
-68.775,-68.461,11.939,2.3693,18.68,-5.0222,45.144,21.746,-70.624,-102.35,-48.849,-8.7887,-116.58,-27.693,-50.136,-44.105
-68.775,-68.461,11.939,2.3693,18.68,-5.0222,45.144,21.746,-70.624,-102.35,-48.849,-8.7887,-116.58,-27.693,-50.136,-44.105
-69.047,-68.664,11.724,2.3572,18.65,-5.1158,44.821,21.538,-70.291,-102.76,-48.951,-9.0038,-116.54,-28.075,-50.487,-44.455
-69.047,-68.664,11.724,2.3572,18.65,-5.1158,44.821,21.538,-70.291,-102.76,-48.951,-9.0038,-116.54,-28.075,-50.487,-44.455
-69.579,-69.069,11.294,2.329,18.591,-5.303,44.172,21.118,-69.626,-103.59,-49.154,-9.4347,-116.46,-28.839,-51.185,-45.154
-69.579,-69.069,11.294,2.329,18.591,-5.303,44.172,21.118,-69.626,-103.59,-49.154,-9.4347,-116.46,-28.839,-51.185,-45.154
-69.579,-69.069,11.294,2.329,18.591,-5.303,44.172,21.118,-69.626,-103.59,-49.154,-9.4347,-116.46,-28.839,-51.185,-45.154
-69.839,-69.271,11.078,2.3128,18.562,-5.3965,43.847,20.906,-69.295,-104,-49.255,-9.6504,-116.43,-29.22,-51.533,-45.501
-70.095,-69.472,10.863,2.2952,18.534,-5.4901,43.521,20.694,-68.964,-104.41,-49.356,-9.8663,-116.39,-29.6,-51.879,-45.848
-70.095,-69.472,10.863,2.2952,18.534,-5.4901,43.521,20.694,-68.964,-104.41,-49.356,-9.8663,-116.39,-29.6,-51.879,-45.848
-70.347,-69.673,10.648,2.2764,18.505,-5.5836,43.194,20.48,-68.634,-104.82,-49.457,-10.082,-116.35,-29.98,-52.225,-46.193
-70.596,-69.873,10.433,2.2562,18.477,-5.677,42.867,20.265,-68.304,-105.22,-49.557,-10.299,-116.31,-30.359,-52.569,-46.537
-70.596,-69.873,10.433,2.2562,18.477,-5.677,42.867,20.265,-68.304,-105.22,-49.557,-10.299,-116.31,-30.359,-52.569,-46.537
-70.596,-69.873,10.433,2.2562,18.477,-5.677,42.867,20.265,-68.304,-105.22,-49.557,-10.299,-116.31,-30.359,-52.569,-46.537
-70.84,-70.072,10.218,2.2347,18.449,-5.7704,42.538,20.05,-67.975,-105.63,-49.657,-10.515,-116.27,-30.737,-52.912,-46.88
-70.84,-70.072,10.218,2.2347,18.449,-5.7704,42.538,20.05,-67.975,-105.63,-49.657,-10.515,-116.27,-30.737,-52.912,-46.88
-71.08,-70.271,10.003,2.212,18.422,-5.8637,42.209,19.833,-67.646,-106.03,-49.757,-10.731,-116.23,-31.115,-53.253,-47.221
-71.08,-70.271,10.003,2.212,18.422,-5.8637,42.209,19.833,-67.646,-106.03,-49.757,-10.731,-116.23,-31.115,-53.253,-47.221
-71.316,-70.469,9.7877,2.1879,18.394,-5.957,41.88,19.616,-67.318,-106.43,-49.856,-10.948,-116.19,-31.493,-53.594,-47.562
-71.316,-70.469,9.7877,2.1879,18.394,-5.957,41.88,19.616,-67.318,-106.43,-49.856,-10.948,-116.19,-31.493,-53.594,-47.562
-71.316,-70.469,9.7877,2.1879,18.394,-5.957,41.88,19.616,-67.318,-106.43,-49.856,-10.948,-116.19,-31.493,-53.594,-47.562
-71.548,-70.667,9.5727,2.1626,18.368,-6.0501,41.549,19.397,-66.991,-106.83,-49.955,-11.164,-116.15,-31.869,-53.933,-47.901
-71.548,-70.667,9.5727,2.1626,18.368,-6.0501,41.549,19.397,-66.991,-106.83,-49.955,-11.164,-116.15,-31.869,-53.933,-47.901
-71.999,-71.059,9.1432,2.1082,18.315,-6.2362,40.887,18.958,-66.338,-107.62,-50.152,-11.598,-116.07,-32.621,-54.607,-48.574
-71.999,-71.059,9.1432,2.1082,18.315,-6.2362,40.887,18.958,-66.338,-107.62,-50.152,-11.598,-116.07,-32.621,-54.607,-48.574
-71.999,-71.059,9.1432,2.1082,18.315,-6.2362,40.887,18.958,-66.338,-107.62,-50.152,-11.598,-116.07,-32.621,-54.607,-48.574
-72.219,-71.255,8.9286,2.0792,18.289,-6.329,40.555,18.737,-66.013,-108.02,-50.25,-11.814,-116.03,-32.995,-54.942,-48.909
-72.219,-71.255,8.9286,2.0792,18.289,-6.329,40.555,18.737,-66.013,-108.02,-50.25,-11.814,-116.03,-32.995,-54.942,-48.909
-72.435,-71.449,8.7142,2.049,18.264,-6.4217,40.222,18.516,-65.688,-108.41,-50.347,-12.031,-115.99,-33.369,-55.276,-49.243
-72.435,-71.449,8.7142,2.049,18.264,-6.4217,40.222,18.516,-65.688,-108.41,-50.347,-12.031,-115.99,-33.369,-55.276,-49.243
-72.646,-71.643,8.5,2.0175,18.239,-6.5143,39.888,18.293,-65.364,-108.8,-50.444,-12.247,-115.95,-33.743,-55.608,-49.575
-72.646,-71.643,8.5,2.0175,18.239,-6.5143,39.888,18.293,-65.364,-108.8,-50.444,-12.247,-115.95,-33.743,-55.608,-49.575
-72.853,-71.835,8.286,1.9849,18.214,-6.6068,39.554,18.07,-65.041,-109.19,-50.54,-12.464,-115.91,-34.116,-55.939,-49.906
-72.853,-71.835,8.286,1.9849,18.214,-6.6068,39.554,18.07,-65.041,-109.19,-50.54,-12.464,-115.91,-34.116,-55.939,-49.906
-73.057,-72.027,8.0722,1.951,18.19,-6.6991,39.22,17.846,-64.718,-109.57,-50.636,-12.68,-115.87,-34.488,-56.269,-50.235
-73.057,-72.027,8.0722,1.951,18.19,-6.6991,39.22,17.846,-64.718,-109.57,-50.636,-12.68,-115.87,-34.488,-56.269,-50.235
-73.256,-72.218,7.8586,1.916,18.166,-6.7913,38.885,17.622,-64.396,-109.96,-50.732,-12.897,-115.83,-34.859,-56.596,-50.562
-73.256,-72.218,7.8586,1.916,18.166,-6.7913,38.885,17.622,-64.396,-109.96,-50.732,-12.897,-115.83,-34.859,-56.596,-50.562
-73.256,-72.218,7.8586,1.916,18.166,-6.7913,38.885,17.622,-64.396,-109.96,-50.732,-12.897,-115.83,-34.859,-56.596,-50.562
-73.45,-72.408,7.6452,1.8799,18.142,-6.8833,38.549,17.397,-64.075,-110.34,-50.827,-13.113,-115.79,-35.23,-56.923,-50.888
-73.641,-72.597,7.4321,1.8426,18.119,-6.9752,38.213,17.171,-63.754,-110.72,-50.922,-13.329,-115.75,-35.6,-57.248,-51.213
-73.641,-72.597,7.4321,1.8426,18.119,-6.9752,38.213,17.171,-63.754,-110.72,-50.922,-13.329,-115.75,-35.6,-57.248,-51.213
-73.827,-72.784,7.2193,1.8042,18.096,-7.0668,37.876,16.945,-63.434,-111.1,-51.016,-13.545,-115.71,-35.969,-57.571,-51.536
-73.827,-72.784,7.2193,1.8042,18.096,-7.0668,37.876,16.945,-63.434,-111.1,-51.016,-13.545,-115.71,-35.969,-57.571,-51.536
-74.009,-72.971,7.0068,1.7646,18.073,-7.1583,37.539,16.719,-63.115,-111.47,-51.11,-13.761,-115.67,-36.337,-57.893,-51.857
-74.009,-72.971,7.0068,1.7646,18.073,-7.1583,37.539,16.719,-63.115,-111.47,-51.11,-13.761,-115.67,-36.337,-57.893,-51.857
-74.187,-73.157,6.7946,1.724,18.051,-7.2496,37.202,16.492,-62.797,-111.85,-51.203,-13.976,-115.63,-36.705,-58.213,-52.176
-74.187,-73.157,6.7946,1.724,18.051,-7.2496,37.202,16.492,-62.797,-111.85,-51.203,-13.976,-115.63,-36.705,-58.213,-52.176
-74.361,-73.341,6.5828,1.6822,18.03,-7.3407,36.864,16.264,-62.479,-112.22,-51.296,-14.192,-115.59,-37.072,-58.531,-52.494
-74.361,-73.341,6.5828,1.6822,18.03,-7.3407,36.864,16.264,-62.479,-112.22,-51.296,-14.192,-115.59,-37.072,-58.531,-52.494
-74.531,-73.525,6.3713,1.6394,18.008,-7.4315,36.525,16.036,-62.162,-112.59,-51.388,-14.407,-115.55,-37.438,-58.848,-52.81
-74.531,-73.525,6.3713,1.6394,18.008,-7.4315,36.525,16.036,-62.162,-112.59,-51.388,-14.407,-115.55,-37.438,-58.848,-52.81
-74.531,-73.525,6.3713,1.6394,18.008,-7.4315,36.525,16.036,-62.162,-112.59,-51.388,-14.407,-115.55,-37.438,-58.848,-52.81
-74.696,-73.707,6.1601,1.5955,17.987,-7.5221,36.186,15.807,-61.846,-112.96,-51.48,-14.622,-115.5,-37.804,-59.163,-53.124
-74.696,-73.707,6.1601,1.5955,17.987,-7.5221,36.186,15.807,-61.846,-112.96,-51.48,-14.622,-115.5,-37.804,-59.163,-53.124
-74.696,-73.707,6.1601,1.5955,17.987,-7.5221,36.186,15.807,-61.846,-112.96,-51.48,-14.622,-115.5,-37.804,-59.163,-53.124
-75.014,-74.067,5.739,1.5045,17.947,-7.7027,35.507,15.349,-61.216,-113.69,-51.662,-15.052,-115.42,-38.532,-59.789,-53.748
-75.014,-74.067,5.739,1.5045,17.947,-7.7027,35.507,15.349,-61.216,-113.69,-51.662,-15.052,-115.42,-38.532,-59.789,-53.748
-75.166,-74.246,5.5291,1.4574,17.927,-7.7926,35.167,15.12,-60.902,-114.05,-51.753,-15.266,-115.38,-38.895,-60.099,-54.057
-75.166,-74.246,5.5291,1.4574,17.927,-7.7926,35.167,15.12,-60.902,-114.05,-51.753,-15.266,-115.38,-38.895,-60.099,-54.057
-75.166,-74.246,5.5291,1.4574,17.927,-7.7926,35.167,15.12,-60.902,-114.05,-51.753,-15.266,-115.38,-38.895,-60.099,-54.057
-75.314,-74.423,5.3196,1.4093,17.908,-7.8823,34.827,14.89,-60.589,-114.41,-51.842,-15.48,-115.33,-39.257,-60.407,-54.364
-75.314,-74.423,5.3196,1.4093,17.908,-7.8823,34.827,14.89,-60.589,-114.41,-51.842,-15.48,-115.33,-39.257,-60.407,-54.364
-75.314,-74.423,5.3196,1.4093,17.908,-7.8823,34.827,14.89,-60.589,-114.41,-51.842,-15.48,-115.33,-39.257,-60.407,-54.364
-75.598,-74.772,4.9019,1.3101,17.871,-8.0609,34.145,14.43,-59.966,-115.12,-52.02,-15.907,-115.24,-39.979,-61.018,-54.972
-75.598,-74.772,4.9019,1.3101,17.871,-8.0609,34.145,14.43,-59.966,-115.12,-52.02,-15.907,-115.24,-39.979,-61.018,-54.972
-75.733,-74.945,4.6938,1.259,17.853,-8.1497,33.803,14.199,-59.655,-115.48,-52.108,-16.12,-115.2,-40.339,-61.321,-55.273
-75.733,-74.945,4.6938,1.259,17.853,-8.1497,33.803,14.199,-59.655,-115.48,-52.108,-16.12,-115.2,-40.339,-61.321,-55.273
-75.733,-74.945,4.6938,1.259,17.853,-8.1497,33.803,14.199,-59.655,-115.48,-52.108,-16.12,-115.2,-40.339,-61.321,-55.273
-75.864,-75.117,4.4862,1.2069,17.836,-8.2383,33.462,13.969,-59.345,-115.83,-52.195,-16.332,-115.16,-40.698,-61.621,-55.572
-75.991,-75.286,4.2791,1.1538,17.819,-8.3265,33.12,13.738,-59.036,-116.17,-52.282,-16.545,-115.11,-41.056,-61.92,-55.869
-75.991,-75.286,4.2791,1.1538,17.819,-8.3265,33.12,13.738,-59.036,-116.17,-52.282,-16.545,-115.11,-41.056,-61.92,-55.869
-76.113,-75.455,4.0725,1.0998,17.802,-8.4145,32.777,13.507,-58.728,-116.52,-52.369,-16.757,-115.07,-41.413,-62.218,-56.164
-76.231,-75.622,3.8665,1.0448,17.786,-8.5022,32.435,13.276,-58.421,-116.86,-52.454,-16.968,-115.02,-41.769,-62.513,-56.458
-76.231,-75.622,3.8665,1.0448,17.786,-8.5022,32.435,13.276,-58.421,-116.86,-52.454,-16.968,-115.02,-41.769,-62.513,-56.458
-76.231,-75.622,3.8665,1.0448,17.786,-8.5022,32.435,13.276,-58.421,-116.86,-52.454,-16.968,-115.02,-41.769,-62.513,-56.458
-76.345,-75.787,3.661,0.98888,17.77,-8.5895,32.092,13.045,-58.115,-117.2,-52.539,-17.179,-114.97,-42.124,-62.806,-56.748
-76.345,-75.787,3.661,0.98888,17.77,-8.5895,32.092,13.045,-58.115,-117.2,-52.539,-17.179,-114.97,-42.124,-62.806,-56.748
-76.345,-75.787,3.661,0.98888,17.77,-8.5895,32.092,13.045,-58.115,-117.2,-52.539,-17.179,-114.97,-42.124,-62.806,-56.748
-76.455,-75.95,3.4561,0.93202,17.755,-8.6765,31.749,12.814,-57.809,-117.54,-52.624,-17.39,-114.93,-42.478,-63.097,-57.037
-76.455,-75.95,3.4561,0.93202,17.755,-8.6765,31.749,12.814,-57.809,-117.54,-52.624,-17.39,-114.93,-42.478,-63.097,-57.037
-76.56,-76.112,3.2518,0.87425,17.74,-8.7632,31.406,12.583,-57.505,-117.88,-52.708,-17.6,-114.88,-42.832,-63.387,-57.324
-76.56,-76.112,3.2518,0.87425,17.74,-8.7632,31.406,12.583,-57.505,-117.88,-52.708,-17.6,-114.88,-42.832,-63.387,-57.324
-76.56,-76.112,3.2518,0.87425,17.74,-8.7632,31.406,12.583,-57.505,-117.88,-52.708,-17.6,-114.88,-42.832,-63.387,-57.324
-76.757,-76.431,2.845,0.75598,17.712,-8.9355,30.719,12.121,-56.898,-118.54,-52.873,-18.019,-114.79,-43.536,-63.959,-57.891
-76.757,-76.431,2.845,0.75598,17.712,-8.9355,30.719,12.121,-56.898,-118.54,-52.873,-18.019,-114.79,-43.536,-63.959,-57.891
-76.849,-76.588,2.6425,0.69551,17.698,-9.0211,30.375,11.89,-56.596,-118.87,-52.955,-18.227,-114.74,-43.887,-64.242,-58.171
-76.849,-76.588,2.6425,0.69551,17.698,-9.0211,30.375,11.89,-56.596,-118.87,-52.955,-18.227,-114.74,-43.887,-64.242,-58.171
-76.937,-76.743,2.4407,0.63416,17.685,-9.1064,30.031,11.659,-56.295,-119.2,-53.037,-18.435,-114.69,-44.236,-64.524,-58.448
-76.937,-76.743,2.4407,0.63416,17.685,-9.1064,30.031,11.659,-56.295,-119.2,-53.037,-18.435,-114.69,-44.236,-64.524,-58.448
-77.02,-76.896,2.2396,0.57195,17.673,-9.1912,29.687,11.429,-55.995,-119.52,-53.117,-18.643,-114.64,-44.585,-64.803,-58.724
-77.099,-77.047,2.0391,0.50888,17.66,-9.2757,29.343,11.198,-55.695,-119.84,-53.197,-18.85,-114.59,-44.932,-65.08,-58.997
-77.099,-77.047,2.0391,0.50888,17.66,-9.2757,29.343,11.198,-55.695,-119.84,-53.197,-18.85,-114.59,-44.932,-65.08,-58.997
-77.174,-77.197,1.8393,0.44496,17.649,-9.3598,28.999,10.968,-55.397,-120.16,-53.276,-19.057,-114.55,-45.279,-65.354,-59.267
-77.174,-77.197,1.8393,0.44496,17.649,-9.3598,28.999,10.968,-55.397,-120.16,-53.276,-19.057,-114.55,-45.279,-65.354,-59.267
-77.174,-77.197,1.8393,0.44496,17.649,-9.3598,28.999,10.968,-55.397,-120.16,-53.276,-19.057,-114.55,-45.279,-65.354,-59.267
-77.174,-77.197,1.8393,0.44496,17.649,-9.3598,28.999,10.968,-55.397,-120.16,-53.276,-19.057,-114.55,-45.279,-65.354,-59.267
-77.244,-77.344,1.6403,0.38021,17.638,-9.4436,28.654,10.738,-55.099,-120.48,-53.355,-19.263,-114.5,-45.625,-65.627,-59.536
-77.244,-77.344,1.6403,0.38021,17.638,-9.4436,28.654,10.738,-55.099,-120.48,-53.355,-19.263,-114.5,-45.625,-65.627,-59.536
-77.31,-77.49,1.4419,0.31463,17.627,-9.5269,28.31,10.508,-54.803,-120.79,-53.433,-19.468,-114.44,-45.969,-65.897,-59.802
-77.31,-77.49,1.4419,0.31463,17.627,-9.5269,28.31,10.508,-54.803,-120.79,-53.433,-19.468,-114.44,-45.969,-65.897,-59.802
-77.372,-77.634,1.2443,0.24824,17.617,-9.6097,27.966,10.279,-54.507,-121.1,-53.51,-19.673,-114.39,-46.313,-66.166,-60.065
-77.429,-77.775,1.0474,0.18104,17.607,-9.6922,27.621,10.05,-54.212,-121.41,-53.587,-19.877,-114.34,-46.655,-66.432,-60.326
-77.429,-77.775,1.0474,0.18104,17.607,-9.6922,27.621,10.05,-54.212,-121.41,-53.587,-19.877,-114.34,-46.655,-66.432,-60.326
-77.482,-77.915,0.85135,0.11305,17.598,-9.7742,27.276,9.8207,-53.919,-121.72,-53.662,-20.08,-114.29,-46.997,-66.696,-60.584
-77.482,-77.915,0.85135,0.11305,17.598,-9.7742,27.276,9.8207,-53.919,-121.72,-53.662,-20.08,-114.29,-46.997,-66.696,-60.584
-77.53,-78.052,0.65602,0.044281,17.589,-9.8558,26.932,9.5922,-53.626,-122.02,-53.737,-20.283,-114.24,-47.337,-66.957,-60.84
-77.53,-78.052,0.65602,0.044281,17.589,-9.8558,26.932,9.5922,-53.626,-122.02,-53.737,-20.283,-114.24,-47.337,-66.957,-60.84
-77.53,-78.052,0.65602,0.044281,17.589,-9.8558,26.932,9.5922,-53.626,-122.02,-53.737,-20.283,-114.24,-47.337,-66.957,-60.84
-77.575,-78.188,0.46148,-0.025266,17.58,-9.937,26.587,9.3642,-53.334,-122.32,-53.812,-20.485,-114.19,-47.677,-67.217,-61.094
-77.615,-78.321,0.26774,-0.095577,17.572,-10.018,26.243,9.1365,-53.043,-122.61,-53.885,-20.687,-114.13,-48.015,-67.474,-61.344
-77.615,-78.321,0.26774,-0.095577,17.572,-10.018,26.243,9.1365,-53.043,-122.61,-53.885,-20.687,-114.13,-48.015,-67.474,-61.344
-77.65,-78.452,0.074818,-0.16664,17.565,-10.098,25.898,8.9093,-52.753,-122.91,-53.958,-20.887,-114.08,-48.352,-67.728,-61.592
-77.65,-78.452,0.074818,-0.16664,17.565,-10.098,25.898,8.9093,-52.753,-122.91,-53.958,-20.887,-114.08,-48.352,-67.728,-61.592
-77.681,-78.581,-0.11728,-0.23845,17.558,-10.178,25.554,8.6826,-52.464,-123.2,-54.03,-21.088,-114.03,-48.688,-67.981,-61.838
-77.681,-78.581,-0.11728,-0.23845,17.558,-10.178,25.554,8.6826,-52.464,-123.2,-54.03,-21.088,-114.03,-48.688,-67.981,-61.838
-77.708,-78.708,-0.30854,-0.31099,17.552,-10.257,25.209,8.4564,-52.176,-123.49,-54.102,-21.287,-113.97,-49.023,-68.231,-62.081
-77.708,-78.708,-0.30854,-0.31099,17.552,-10.257,25.209,8.4564,-52.176,-123.49,-54.102,-21.287,-113.97,-49.023,-68.231,-62.081
-77.731,-78.833,-0.49895,-0.38425,17.546,-10.336,24.865,8.2307,-51.889,-123.78,-54.172,-21.485,-113.91,-49.356,-68.479,-62.321
-77.731,-78.833,-0.49895,-0.38425,17.546,-10.336,24.865,8.2307,-51.889,-123.78,-54.172,-21.485,-113.91,-49.356,-68.479,-62.321
-77.749,-78.955,-0.68849,-0.45822,17.54,-10.414,24.521,8.0056,-51.603,-124.06,-54.242,-21.683,-113.86,-49.689,-68.724,-62.558
-77.749,-78.955,-0.68849,-0.45822,17.54,-10.414,24.521,8.0056,-51.603,-124.06,-54.242,-21.683,-113.86,-49.689,-68.724,-62.558
-77.763,-79.075,-0.87716,-0.5329,17.535,-10.492,24.176,7.7811,-51.318,-124.34,-54.311,-21.88,-113.8,-50.02,-68.967,-62.793
-77.772,-79.192,-1.0649,-0.60827,17.53,-10.569,23.832,7.5571,-51.033,-124.62,-54.38,-22.077,-113.75,-50.35,-69.208,-63.025
-77.772,-79.192,-1.0649,-0.60827,17.53,-10.569,23.832,7.5571,-51.033,-124.62,-54.38,-22.077,-113.75,-50.35,-69.208,-63.025
-77.772,-79.192,-1.0649,-0.60827,17.53,-10.569,23.832,7.5571,-51.033,-124.62,-54.38,-22.077,-113.75,-50.35,-69.208,-63.025
-77.777,-79.308,-1.2518,-0.68432,17.526,-10.646,23.488,7.3338,-50.75,-124.89,-54.447,-22.272,-113.69,-50.679,-69.446,-63.254
-77.777,-79.308,-1.2518,-0.68432,17.526,-10.646,23.488,7.3338,-50.75,-124.89,-54.447,-22.272,-113.69,-50.679,-69.446,-63.254
-77.778,-79.42,-1.4378,-0.76104,17.523,-10.723,23.145,7.1112,-50.468,-125.16,-54.514,-22.467,-113.63,-51.007,-69.682,-63.48
-77.778,-79.42,-1.4378,-0.76104,17.523,-10.723,23.145,7.1112,-50.468,-125.16,-54.514,-22.467,-113.63,-51.007,-69.682,-63.48
-77.774,-79.531,-1.6229,-0.83843,17.519,-10.798,22.801,6.8892,-50.187,-125.43,-54.58,-22.66,-113.57,-51.334,-69.915,-63.703
-77.774,-79.531,-1.6229,-0.83843,17.519,-10.798,22.801,6.8892,-50.187,-125.43,-54.58,-22.66,-113.57,-51.334,-69.915,-63.703
-77.767,-79.639,-1.807,-0.91646,17.517,-10.874,22.457,6.668,-49.907,-125.69,-54.645,-22.853,-113.51,-51.659,-70.146,-63.923
-77.767,-79.639,-1.807,-0.91646,17.517,-10.874,22.457,6.668,-49.907,-125.69,-54.645,-22.853,-113.51,-51.659,-70.146,-63.923
-77.767,-79.639,-1.807,-0.91646,17.517,-10.874,22.457,6.668,-49.907,-125.69,-54.645,-22.853,-113.51,-51.659,-70.146,-63.923
-77.754,-79.744,-1.9901,-0.99514,17.514,-10.948,22.114,6.4475,-49.628,-125.96,-54.709,-23.046,-113.45,-51.983,-70.374,-64.141
-77.754,-79.744,-1.9901,-0.99514,17.514,-10.948,22.114,6.4475,-49.628,-125.96,-54.709,-23.046,-113.45,-51.983,-70.374,-64.141
-77.738,-79.847,-2.1724,-1.0744,17.513,-11.023,21.771,6.2278,-49.35,-126.22,-54.773,-23.237,-113.39,-52.306,-70.6,-64.355
-77.738,-79.847,-2.1724,-1.0744,17.513,-11.023,21.771,6.2278,-49.35,-126.22,-54.773,-23.237,-113.39,-52.306,-70.6,-64.355
-77.717,-79.948,-2.3536,-1.1544,17.511,-11.096,21.428,6.0088,-49.072,-126.47,-54.836,-23.427,-113.33,-52.628,-70.823,-64.567
-77.692,-80.046,-2.5339,-1.2349,17.51,-11.169,21.085,5.7907,-48.796,-126.72,-54.897,-23.617,-113.27,-52.948,-71.044,-64.775
-77.692,-80.046,-2.5339,-1.2349,17.51,-11.169,21.085,5.7907,-48.796,-126.72,-54.897,-23.617,-113.27,-52.948,-71.044,-64.775
-77.663,-80.141,-2.7132,-1.316,17.51,-11.242,20.743,5.5734,-48.521,-126.97,-54.958,-23.805,-113.2,-53.267,-71.262,-64.981
-77.663,-80.141,-2.7132,-1.316,17.51,-11.242,20.743,5.5734,-48.521,-126.97,-54.958,-23.805,-113.2,-53.267,-71.262,-64.981
-77.629,-80.234,-2.8915,-1.3978,17.51,-11.314,20.4,5.357,-48.247,-127.22,-55.019,-23.993,-113.14,-53.585,-71.478,-65.183
-77.629,-80.234,-2.8915,-1.3978,17.51,-11.314,20.4,5.357,-48.247,-127.22,-55.019,-23.993,-113.14,-53.585,-71.478,-65.183
-77.591,-80.324,-3.0688,-1.4801,17.511,-11.385,20.058,5.1415,-47.974,-127.46,-55.078,-24.18,-113.08,-53.901,-71.691,-65.383
-77.591,-80.324,-3.0688,-1.4801,17.511,-11.385,20.058,5.1415,-47.974,-127.46,-55.078,-24.18,-113.08,-53.901,-71.691,-65.383
-77.549,-80.411,-3.2451,-1.563,17.512,-11.456,19.717,4.9269,-47.702,-127.71,-55.136,-24.366,-113.01,-54.216,-71.901,-65.579
-77.549,-80.411,-3.2451,-1.563,17.512,-11.456,19.717,4.9269,-47.702,-127.71,-55.136,-24.366,-113.01,-54.216,-71.901,-65.579
-77.503,-80.496,-3.4203,-1.6464,17.513,-11.526,19.375,4.7132,-47.431,-127.94,-55.194,-24.55,-112.94,-54.53,-72.109,-65.772
-77.503,-80.496,-3.4203,-1.6464,17.513,-11.526,19.375,4.7132,-47.431,-127.94,-55.194,-24.55,-112.94,-54.53,-72.109,-65.772
-77.452,-80.577,-3.5945,-1.7304,17.515,-11.596,19.034,4.5005,-47.162,-128.18,-55.251,-24.734,-112.88,-54.843,-72.314,-65.962
-77.397,-80.657,-3.7677,-1.8149,17.518,-11.665,18.693,4.2888,-46.893,-128.41,-55.307,-24.917,-112.81,-55.154,-72.517,-66.149
-77.397,-80.657,-3.7677,-1.8149,17.518,-11.665,18.693,4.2888,-46.893,-128.41,-55.307,-24.917,-112.81,-55.154,-72.517,-66.149
-77.397,-80.657,-3.7677,-1.8149,17.518,-11.665,18.693,4.2888,-46.893,-128.41,-55.307,-24.917,-112.81,-55.154,-72.517,-66.149
-77.338,-80.733,-3.9399,-1.8999,17.52,-11.733,18.353,4.0781,-46.625,-128.64,-55.362,-25.099,-112.74,-55.463,-72.717,-66.333
-77.338,-80.733,-3.9399,-1.8999,17.52,-11.733,18.353,4.0781,-46.625,-128.64,-55.362,-25.099,-112.74,-55.463,-72.717,-66.333
-77.338,-80.733,-3.9399,-1.8999,17.52,-11.733,18.353,4.0781,-46.625,-128.64,-55.362,-25.099,-112.74,-55.463,-72.717,-66.333
-77.275,-80.807,-4.1109,-1.9855,17.524,-11.801,18.012,3.8684,-46.358,-128.86,-55.416,-25.28,-112.68,-55.772,-72.914,-66.514
-77.207,-80.877,-4.2809,-2.0715,17.528,-11.868,17.673,3.6598,-46.092,-129.08,-55.469,-25.46,-112.61,-56.079,-73.109,-66.691
-77.207,-80.877,-4.2809,-2.0715,17.528,-11.868,17.673,3.6598,-46.092,-129.08,-55.469,-25.46,-112.61,-56.079,-73.109,-66.691
-77.207,-80.877,-4.2809,-2.0715,17.528,-11.868,17.673,3.6598,-46.092,-129.08,-55.469,-25.46,-112.61,-56.079,-73.109,-66.691
-77.135,-80.945,-4.4499,-2.1581,17.532,-11.934,17.333,3.4523,-45.828,-129.3,-55.522,-25.638,-112.54,-56.384,-73.301,-66.865
-77.135,-80.945,-4.4499,-2.1581,17.532,-11.934,17.333,3.4523,-45.828,-129.3,-55.522,-25.638,-112.54,-56.384,-73.301,-66.865
-77.135,-80.945,-4.4499,-2.1581,17.532,-11.934,17.333,3.4523,-45.828,-129.3,-55.522,-25.638,-112.54,-56.384,-73.301,-66.865
-76.979,-81.072,-4.7845,-2.3326,17.541,-12.065,16.655,3.0406,-45.302,-129.72,-55.624,-25.993,-112.39,-56.991,-73.676,-67.203
-76.979,-81.072,-4.7845,-2.3326,17.541,-12.065,16.655,3.0406,-45.302,-129.72,-55.624,-25.993,-112.39,-56.991,-73.676,-67.203
-76.894,-81.132,-4.9501,-2.4206,17.547,-12.13,16.317,2.8365,-45.04,-129.93,-55.673,-26.169,-112.32,-57.293,-73.86,-67.367
-76.894,-81.132,-4.9501,-2.4206,17.547,-12.13,16.317,2.8365,-45.04,-129.93,-55.673,-26.169,-112.32,-57.293,-73.86,-67.367
-76.806,-81.188,-5.1147,-2.509,17.553,-12.194,15.979,2.6336,-44.78,-130.14,-55.722,-26.343,-112.25,-57.592,-74.041,-67.528
-76.806,-81.188,-5.1147,-2.509,17.553,-12.194,15.979,2.6336,-44.78,-130.14,-55.722,-26.343,-112.25,-57.592,-74.041,-67.528
-76.713,-81.241,-5.2782,-2.5979,17.559,-12.257,15.641,2.4319,-44.521,-130.34,-55.77,-26.516,-112.17,-57.891,-74.219,-67.685
-76.616,-81.292,-5.4405,-2.6871,17.566,-12.32,15.304,2.2313,-44.262,-130.53,-55.817,-26.689,-112.1,-58.188,-74.395,-67.839
-76.616,-81.292,-5.4405,-2.6871,17.566,-12.32,15.304,2.2313,-44.262,-130.53,-55.817,-26.689,-112.1,-58.188,-74.395,-67.839
-76.616,-81.292,-5.4405,-2.6871,17.566,-12.32,15.304,2.2313,-44.262,-130.53,-55.817,-26.689,-112.1,-58.188,-74.395,-67.839
-76.515,-81.339,-5.6017,-2.7768,17.574,-12.381,14.967,2.0321,-44.005,-130.73,-55.863,-26.86,-112.02,-58.483,-74.568,-67.99
-76.515,-81.339,-5.6017,-2.7768,17.574,-12.381,14.967,2.0321,-44.005,-130.73,-55.863,-26.86,-112.02,-58.483,-74.568,-67.99
-76.515,-81.339,-5.6017,-2.7768,17.574,-12.381,14.967,2.0321,-44.005,-130.73,-55.863,-26.86,-112.02,-58.483,-74.568,-67.99
-76.41,-81.383,-5.7618,-2.8669,17.581,-12.443,14.631,1.8341,-43.749,-130.92,-55.908,-27.03,-111.95,-58.777,-74.738,-68.137
-76.41,-81.383,-5.7618,-2.8669,17.581,-12.443,14.631,1.8341,-43.749,-130.92,-55.908,-27.03,-111.95,-58.777,-74.738,-68.137
-76.301,-81.424,-5.9207,-2.9574,17.589,-12.503,14.295,1.6374,-43.494,-131.11,-55.952,-27.199,-111.87,-59.07,-74.905,-68.281
-76.187,-81.463,-6.0786,-3.0482,17.598,-12.563,13.959,1.442,-43.24,-131.29,-55.995,-27.367,-111.79,-59.361,-75.069,-68.421
-76.187,-81.463,-6.0786,-3.0482,17.598,-12.563,13.959,1.442,-43.24,-131.29,-55.995,-27.367,-111.79,-59.361,-75.069,-68.421
-76.07,-81.498,-6.2352,-3.1395,17.607,-12.622,13.624,1.2479,-42.987,-131.47,-56.037,-27.533,-111.71,-59.651,-75.231,-68.558
-76.07,-81.498,-6.2352,-3.1395,17.607,-12.622,13.624,1.2479,-42.987,-131.47,-56.037,-27.533,-111.71,-59.651,-75.231,-68.558
-75.948,-81.53,-6.3907,-3.2311,17.616,-12.681,13.29,1.0552,-42.735,-131.65,-56.079,-27.699,-111.63,-59.939,-75.389,-68.691
-75.948,-81.53,-6.3907,-3.2311,17.616,-12.681,13.29,1.0552,-42.735,-131.65,-56.079,-27.699,-111.63,-59.939,-75.389,-68.691
-75.948,-81.53,-6.3907,-3.2311,17.616,-12.681,13.29,1.0552,-42.735,-131.65,-56.079,-27.699,-111.63,-59.939,-75.389,-68.691
-75.822,-81.558,-6.5451,-3.323,17.626,-12.738,12.956,0.86392,-42.485,-131.82,-56.119,-27.863,-111.55,-60.225,-75.545,-68.821
-75.822,-81.558,-6.5451,-3.323,17.626,-12.738,12.956,0.86392,-42.485,-131.82,-56.119,-27.863,-111.55,-60.225,-75.545,-68.821
-75.693,-81.584,-6.6983,-3.4152,17.636,-12.795,12.622,0.67399,-42.235,-131.99,-56.159,-28.026,-111.47,-60.51,-75.698,-68.948
-75.693,-81.584,-6.6983,-3.4152,17.636,-12.795,12.622,0.67399,-42.235,-131.99,-56.159,-28.026,-111.47,-60.51,-75.698,-68.948
-75.693,-81.584,-6.6983,-3.4152,17.636,-12.795,12.622,0.67399,-42.235,-131.99,-56.159,-28.026,-111.47,-60.51,-75.698,-68.948
-75.421,-81.626,-7.0012,-3.6007,17.658,-12.907,11.957,0.29843,-41.739,-132.32,-56.234,-28.348,-111.3,-61.075,-75.995,-69.189
-75.421,-81.626,-7.0012,-3.6007,17.658,-12.907,11.957,0.29843,-41.739,-132.32,-56.234,-28.348,-111.3,-61.075,-75.995,-69.189
-75.279,-81.642,-7.1509,-3.6939,17.669,-12.962,11.625,0.11283,-41.493,-132.48,-56.271,-28.508,-111.22,-61.355,-76.14,-69.305
-75.279,-81.642,-7.1509,-3.6939,17.669,-12.962,11.625,0.11283,-41.493,-132.48,-56.271,-28.508,-111.22,-61.355,-76.14,-69.305
-75.133,-81.655,-7.2995,-3.7873,17.681,-13.016,11.293,-0.071296,-41.248,-132.63,-56.307,-28.666,-111.13,-61.634,-76.281,-69.417
-75.133,-81.655,-7.2995,-3.7873,17.681,-13.016,11.293,-0.071296,-41.248,-132.63,-56.307,-28.666,-111.13,-61.634,-76.281,-69.417
-74.983,-81.664,-7.4468,-3.8811,17.693,-13.069,10.962,-0.25392,-41.003,-132.78,-56.341,-28.822,-111.04,-61.911,-76.42,-69.526
-74.83,-81.671,-7.593,-3.9751,17.705,-13.122,10.632,-0.43502,-40.76,-132.93,-56.375,-28.978,-110.96,-62.187,-76.555,-69.63
-74.83,-81.671,-7.593,-3.9751,17.705,-13.122,10.632,-0.43502,-40.76,-132.93,-56.375,-28.978,-110.96,-62.187,-76.555,-69.63
-74.672,-81.674,-7.738,-4.0693,17.718,-13.174,10.302,-0.61459,-40.518,-133.08,-56.407,-29.132,-110.87,-62.461,-76.688,-69.731
-74.672,-81.674,-7.738,-4.0693,17.718,-13.174,10.302,-0.61459,-40.518,-133.08,-56.407,-29.132,-110.87,-62.461,-76.688,-69.731
-74.672,-81.674,-7.738,-4.0693,17.718,-13.174,10.302,-0.61459,-40.518,-133.08,-56.407,-29.132,-110.87,-62.461,-76.688,-69.731
-74.51,-81.673,-7.8818,-4.1638,17.731,-13.225,9.9728,-0.79259,-40.277,-133.22,-56.439,-29.285,-110.78,-62.733,-76.818,-69.829
-74.51,-81.673,-7.8818,-4.1638,17.731,-13.225,9.9728,-0.79259,-40.277,-133.22,-56.439,-29.285,-110.78,-62.733,-76.818,-69.829
-74.344,-81.67,-8.0244,-4.2585,17.745,-13.275,9.6441,-0.96902,-40.038,-133.35,-56.469,-29.437,-110.69,-63.004,-76.945,-69.923
-74.344,-81.67,-8.0244,-4.2585,17.745,-13.275,9.6441,-0.96902,-40.038,-133.35,-56.469,-29.437,-110.69,-63.004,-76.945,-69.923
-74.175,-81.663,-8.1658,-4.3534,17.759,-13.325,9.3161,-1.1439,-39.799,-133.49,-56.499,-29.587,-110.6,-63.273,-77.068,-70.013
-74.175,-81.663,-8.1658,-4.3534,17.759,-13.325,9.3161,-1.1439,-39.799,-133.49,-56.499,-29.587,-110.6,-63.273,-77.068,-70.013
-74.175,-81.663,-8.1658,-4.3534,17.759,-13.325,9.3161,-1.1439,-39.799,-133.49,-56.499,-29.587,-110.6,-63.273,-77.068,-70.013
-74.001,-81.653,-8.306,-4.4485,17.773,-13.373,8.9886,-1.3171,-39.562,-133.62,-56.528,-29.736,-110.5,-63.54,-77.189,-70.1
-73.824,-81.639,-8.4451,-4.5438,17.788,-13.421,8.6617,-1.4887,-39.325,-133.74,-56.555,-29.884,-110.41,-63.806,-77.307,-70.182
-73.824,-81.639,-8.4451,-4.5438,17.788,-13.421,8.6617,-1.4887,-39.325,-133.74,-56.555,-29.884,-110.41,-63.806,-77.307,-70.182
-73.643,-81.622,-8.5829,-4.6392,17.803,-13.469,8.3354,-1.6586,-39.09,-133.86,-56.582,-30.03,-110.31,-64.07,-77.422,-70.261
-73.643,-81.622,-8.5829,-4.6392,17.803,-13.469,8.3354,-1.6586,-39.09,-133.86,-56.582,-30.03,-110.31,-64.07,-77.422,-70.261
-73.643,-81.622,-8.5829,-4.6392,17.803,-13.469,8.3354,-1.6586,-39.09,-133.86,-56.582,-30.03,-110.31,-64.07,-77.422,-70.261
-73.458,-81.602,-8.7195,-4.7349,17.818,-13.515,8.0097,-1.8269,-38.855,-133.98,-56.608,-30.175,-110.22,-64.332,-77.534,-70.337
-73.458,-81.602,-8.7195,-4.7349,17.818,-13.515,8.0097,-1.8269,-38.855,-133.98,-56.608,-30.175,-110.22,-64.332,-77.534,-70.337
-73.269,-81.578,-8.855,-4.8306,17.834,-13.561,7.6847,-1.9935,-38.622,-134.1,-56.632,-30.319,-110.12,-64.593,-77.643,-70.408
-73.269,-81.578,-8.855,-4.8306,17.834,-13.561,7.6847,-1.9935,-38.622,-134.1,-56.632,-30.319,-110.12,-64.593,-77.643,-70.408
-73.076,-81.551,-8.9892,-4.9266,17.85,-13.606,7.3603,-2.1584,-38.39,-134.21,-56.656,-30.461,-110.03,-64.852,-77.749,-70.476
-73.076,-81.551,-8.9892,-4.9266,17.85,-13.606,7.3603,-2.1584,-38.39,-134.21,-56.656,-30.461,-110.03,-64.852,-77.749,-70.476
-73.076,-81.551,-8.9892,-4.9266,17.85,-13.606,7.3603,-2.1584,-38.39,-134.21,-56.656,-30.461,-110.03,-64.852,-77.749,-70.476
-72.679,-81.487,-9.2541,-5.1188,17.883,-13.693,6.7134,-2.4831,-37.929,-134.42,-56.7,-30.741,-109.83,-65.365,-77.952,-70.601
-72.679,-81.487,-9.2541,-5.1188,17.883,-13.693,6.7134,-2.4831,-37.929,-134.42,-56.7,-30.741,-109.83,-65.365,-77.952,-70.601
-72.679,-81.487,-9.2541,-5.1188,17.883,-13.693,6.7134,-2.4831,-37.929,-134.42,-56.7,-30.741,-109.83,-65.365,-77.952,-70.601
-72.475,-81.449,-9.3847,-5.215,17.899,-13.735,6.3909,-2.6428,-37.701,-134.52,-56.721,-30.879,-109.73,-65.619,-78.049,-70.658
-72.475,-81.449,-9.3847,-5.215,17.899,-13.735,6.3909,-2.6428,-37.701,-134.52,-56.721,-30.879,-109.73,-65.619,-78.049,-70.658
-72.267,-81.408,-9.5141,-5.3114,17.917,-13.777,6.0691,-2.8007,-37.473,-134.61,-56.74,-31.016,-109.62,-65.872,-78.143,-70.71
-72.267,-81.408,-9.5141,-5.3114,17.917,-13.777,6.0691,-2.8007,-37.473,-134.61,-56.74,-31.016,-109.62,-65.872,-78.143,-70.71
-72.267,-81.408,-9.5141,-5.3114,17.917,-13.777,6.0691,-2.8007,-37.473,-134.61,-56.74,-31.016,-109.62,-65.872,-78.143,-70.71
-71.84,-81.316,-9.7693,-5.5043,17.952,-13.858,5.4275,-3.1113,-37.021,-134.79,-56.776,-31.285,-109.42,-66.371,-78.321,-70.805
-71.84,-81.316,-9.7693,-5.5043,17.952,-13.858,5.4275,-3.1113,-37.021,-134.79,-56.776,-31.285,-109.42,-66.371,-78.321,-70.805
-71.621,-81.265,-9.8952,-5.6009,17.97,-13.897,5.1077,-3.2639,-36.797,-134.87,-56.793,-31.417,-109.31,-66.618,-78.406,-70.846
-71.621,-81.265,-9.8952,-5.6009,17.97,-13.897,5.1077,-3.2639,-36.797,-134.87,-56.793,-31.417,-109.31,-66.618,-78.406,-70.846
-71.398,-81.21,-10.02,-5.6975,17.988,-13.935,4.7886,-3.4146,-36.574,-134.95,-56.808,-31.548,-109.2,-66.864,-78.488,-70.884
-71.398,-81.21,-10.02,-5.6975,17.988,-13.935,4.7886,-3.4146,-36.574,-134.95,-56.808,-31.548,-109.2,-66.864,-78.488,-70.884
-71.172,-81.152,-10.143,-5.7942,18.006,-13.973,4.4702,-3.5636,-36.351,-135.03,-56.823,-31.677,-109.1,-67.107,-78.566,-70.918
-71.172,-81.152,-10.143,-5.7942,18.006,-13.973,4.4702,-3.5636,-36.351,-135.03,-56.823,-31.677,-109.1,-67.107,-78.566,-70.918
-70.942,-81.09,-10.265,-5.8908,18.025,-14.01,4.1525,-3.7106,-36.13,-135.1,-56.836,-31.805,-108.99,-67.349,-78.642,-70.948
-70.942,-81.09,-10.265,-5.8908,18.025,-14.01,4.1525,-3.7106,-36.13,-135.1,-56.836,-31.805,-108.99,-67.349,-78.642,-70.948
-70.708,-81.025,-10.386,-5.9875,18.044,-14.046,3.8354,-3.8559,-35.911,-135.17,-56.849,-31.932,-108.88,-67.59,-78.714,-70.974
-70.708,-81.025,-10.386,-5.9875,18.044,-14.046,3.8354,-3.8559,-35.911,-135.17,-56.849,-31.932,-108.88,-67.59,-78.714,-70.974
-70.471,-80.956,-10.506,-6.0842,18.063,-14.081,3.5191,-3.9992,-35.692,-135.24,-56.86,-32.057,-108.77,-67.828,-78.784,-70.997
-70.471,-80.956,-10.506,-6.0842,18.063,-14.081,3.5191,-3.9992,-35.692,-135.24,-56.86,-32.057,-108.77,-67.828,-78.784,-70.997
-70.471,-80.956,-10.506,-6.0842,18.063,-14.081,3.5191,-3.9992,-35.692,-135.24,-56.86,-32.057,-108.77,-67.828,-78.784,-70.997
-70.23,-80.883,-10.625,-6.1808,18.083,-14.115,3.2036,-4.1407,-35.474,-135.3,-56.87,-32.18,-108.66,-68.065,-78.85,-71.015
-70.23,-80.883,-10.625,-6.1808,18.083,-14.115,3.2036,-4.1407,-35.474,-135.3,-56.87,-32.18,-108.66,-68.065,-78.85,-71.015
-69.986,-80.807,-10.742,-6.2775,18.103,-14.148,2.8887,-4.2803,-35.258,-135.35,-56.879,-32.302,-108.54,-68.299,-78.913,-71.03
-69.738,-80.728,-10.858,-6.3741,18.123,-14.181,2.5745,-4.4179,-35.042,-135.4,-56.888,-32.422,-108.43,-68.533,-78.973,-71.041
-69.738,-80.728,-10.858,-6.3741,18.123,-14.181,2.5745,-4.4179,-35.042,-135.4,-56.888,-32.422,-108.43,-68.533,-78.973,-71.041
-69.486,-80.645,-10.973,-6.4706,18.143,-14.212,2.2611,-4.5537,-34.828,-135.45,-56.895,-32.541,-108.31,-68.764,-79.03,-71.048
-69.486,-80.645,-10.973,-6.4706,18.143,-14.212,2.2611,-4.5537,-34.828,-135.45,-56.895,-32.541,-108.31,-68.764,-79.03,-71.048
-69.232,-80.558,-11.087,-6.5671,18.163,-14.243,1.9485,-4.6875,-34.614,-135.5,-56.901,-32.659,-108.2,-68.993,-79.084,-71.051
-68.973,-80.468,-11.2,-6.6636,18.183,-14.273,1.6365,-4.8194,-34.402,-135.54,-56.906,-32.775,-108.08,-69.221,-79.135,-71.051
-68.973,-80.468,-11.2,-6.6636,18.183,-14.273,1.6365,-4.8194,-34.402,-135.54,-56.906,-32.775,-108.08,-69.221,-79.135,-71.051
-68.973,-80.468,-11.2,-6.6636,18.183,-14.273,1.6365,-4.8194,-34.402,-135.54,-56.906,-32.775,-108.08,-69.221,-79.135,-71.051
-68.973,-80.468,-11.2,-6.6636,18.183,-14.273,1.6365,-4.8194,-34.402,-135.54,-56.906,-32.775,-108.08,-69.221,-79.135,-71.051
-68.711,-80.374,-11.311,-6.7599,18.204,-14.302,1.3253,-4.9493,-34.191,-135.57,-56.91,-32.889,-107.96,-69.447,-79.183,-71.046
-68.711,-80.374,-11.311,-6.7599,18.204,-14.302,1.3253,-4.9493,-34.191,-135.57,-56.91,-32.889,-107.96,-69.447,-79.183,-71.046
-68.711,-80.374,-11.311,-6.7599,18.204,-14.302,1.3253,-4.9493,-34.191,-135.57,-56.91,-32.889,-107.96,-69.447,-79.183,-71.046
-68.446,-80.277,-11.422,-6.8562,18.225,-14.331,1.0149,-5.0773,-33.981,-135.61,-56.913,-33.002,-107.84,-69.671,-79.227,-71.038
-68.446,-80.277,-11.422,-6.8562,18.225,-14.331,1.0149,-5.0773,-33.981,-135.61,-56.913,-33.002,-107.84,-69.671,-79.227,-71.038
-67.905,-80.071,-11.639,-7.0485,18.267,-14.385,0.39631,-5.3273,-33.565,-135.66,-56.916,-33.223,-107.6,-70.114,-79.307,-71.01
-67.905,-80.071,-11.639,-7.0485,18.267,-14.385,0.39631,-5.3273,-33.565,-135.66,-56.916,-33.223,-107.6,-70.114,-79.307,-71.01
-67.63,-79.963,-11.746,-7.1444,18.289,-14.411,0.088159,-5.4493,-33.358,-135.68,-56.916,-33.331,-107.47,-70.332,-79.343,-70.99
-67.63,-79.963,-11.746,-7.1444,18.289,-14.411,0.088159,-5.4493,-33.358,-135.68,-56.916,-33.331,-107.47,-70.332,-79.343,-70.99
-67.351,-79.852,-11.851,-7.2402,18.31,-14.436,-0.21923,-5.5693,-33.152,-135.7,-56.915,-33.438,-107.35,-70.549,-79.375,-70.966
-67.351,-79.852,-11.851,-7.2402,18.31,-14.436,-0.21923,-5.5693,-33.152,-135.7,-56.915,-33.438,-107.35,-70.549,-79.375,-70.966
-67.069,-79.736,-11.956,-7.3359,18.332,-14.46,-0.52584,-5.6874,-32.948,-135.71,-56.913,-33.543,-107.22,-70.764,-79.404,-70.939
-66.784,-79.617,-12.059,-7.4315,18.353,-14.483,-0.83167,-5.8034,-32.745,-135.72,-56.91,-33.646,-107.09,-70.977,-79.43,-70.907
-66.784,-79.617,-12.059,-7.4315,18.353,-14.483,-0.83167,-5.8034,-32.745,-135.72,-56.91,-33.646,-107.09,-70.977,-79.43,-70.907
-66.784,-79.617,-12.059,-7.4315,18.353,-14.483,-0.83167,-5.8034,-32.745,-135.72,-56.91,-33.646,-107.09,-70.977,-79.43,-70.907
-66.495,-79.495,-12.161,-7.5268,18.375,-14.505,-1.1367,-5.9174,-32.542,-135.72,-56.905,-33.748,-106.96,-71.188,-79.453,-70.872
-66.495,-79.495,-12.161,-7.5268,18.375,-14.505,-1.1367,-5.9174,-32.542,-135.72,-56.905,-33.748,-106.96,-71.188,-79.453,-70.872
-66.203,-79.369,-12.262,-7.6221,18.397,-14.527,-1.441,-6.0293,-32.341,-135.72,-56.9,-33.848,-106.83,-71.397,-79.472,-70.833
-66.203,-79.369,-12.262,-7.6221,18.397,-14.527,-1.441,-6.0293,-32.341,-135.72,-56.9,-33.848,-106.83,-71.397,-79.472,-70.833
-65.908,-79.239,-12.362,-7.7171,18.419,-14.547,-1.7445,-6.1393,-32.141,-135.72,-56.894,-33.947,-106.7,-71.605,-79.489,-70.79
-65.908,-79.239,-12.362,-7.7171,18.419,-14.547,-1.7445,-6.1393,-32.141,-135.72,-56.894,-33.947,-106.7,-71.605,-79.489,-70.79
-65.61,-79.106,-12.46,-7.8119,18.441,-14.567,-2.0472,-6.2472,-31.942,-135.71,-56.886,-34.044,-106.57,-71.811,-79.502,-70.743
-65.61,-79.106,-12.46,-7.8119,18.441,-14.567,-2.0472,-6.2472,-31.942,-135.71,-56.886,-34.044,-106.57,-71.811,-79.502,-70.743
-65.309,-78.969,-12.558,-7.9066,18.464,-14.586,-2.3491,-6.353,-31.744,-135.7,-56.878,-34.139,-106.44,-72.014,-79.513,-70.693
-65.309,-78.969,-12.558,-7.9066,18.464,-14.586,-2.3491,-6.353,-31.744,-135.7,-56.878,-34.139,-106.44,-72.014,-79.513,-70.693
-65.004,-78.828,-12.654,-8.001,18.486,-14.604,-2.6502,-6.4568,-31.547,-135.68,-56.868,-34.233,-106.3,-72.216,-79.52,-70.638
-65.004,-78.828,-12.654,-8.001,18.486,-14.604,-2.6502,-6.4568,-31.547,-135.68,-56.868,-34.233,-106.3,-72.216,-79.52,-70.638
-65.004,-78.828,-12.654,-8.001,18.486,-14.604,-2.6502,-6.4568,-31.547,-135.68,-56.868,-34.233,-106.3,-72.216,-79.52,-70.638
-64.696,-78.684,-12.749,-8.0953,18.508,-14.621,-2.9505,-6.5585,-31.352,-135.66,-56.858,-34.326,-106.17,-72.416,-79.524,-70.58
-64.696,-78.684,-12.749,-8.0953,18.508,-14.621,-2.9505,-6.5585,-31.352,-135.66,-56.858,-34.326,-106.17,-72.416,-79.524,-70.58
-64.386,-78.536,-12.843,-8.1893,18.53,-14.638,-3.25,-6.6582,-31.157,-135.64,-56.846,-34.416,-106.03,-72.614,-79.525,-70.518
-64.072,-78.385,-12.936,-8.283,18.553,-14.653,-3.5487,-6.7558,-30.964,-135.61,-56.834,-34.505,-105.89,-72.811,-79.523,-70.452
-64.072,-78.385,-12.936,-8.283,18.553,-14.653,-3.5487,-6.7558,-30.964,-135.61,-56.834,-34.505,-105.89,-72.811,-79.523,-70.452
-63.755,-78.23,-13.028,-8.3766,18.575,-14.668,-3.8466,-6.8514,-30.771,-135.58,-56.82,-34.592,-105.75,-73.005,-79.518,-70.382
-63.755,-78.23,-13.028,-8.3766,18.575,-14.668,-3.8466,-6.8514,-30.771,-135.58,-56.82,-34.592,-105.75,-73.005,-79.518,-70.382
-63.435,-78.071,-13.119,-8.4699,18.598,-14.682,-4.1436,-6.9448,-30.58,-135.54,-56.805,-34.678,-105.61,-73.197,-79.51,-70.308
-63.435,-78.071,-13.119,-8.4699,18.598,-14.682,-4.1436,-6.9448,-30.58,-135.54,-56.805,-34.678,-105.61,-73.197,-79.51,-70.308
-63.112,-77.909,-13.209,-8.5629,18.62,-14.695,-4.4399,-7.0362,-30.389,-135.5,-56.79,-34.762,-105.47,-73.388,-79.498,-70.231
-63.112,-77.909,-13.209,-8.5629,18.62,-14.695,-4.4399,-7.0362,-30.389,-135.5,-56.79,-34.762,-105.47,-73.388,-79.498,-70.231
-63.112,-77.909,-13.209,-8.5629,18.62,-14.695,-4.4399,-7.0362,-30.389,-135.5,-56.79,-34.762,-105.47,-73.388,-79.498,-70.231
-62.786,-77.743,-13.297,-8.6556,18.643,-14.707,-4.7354,-7.1255,-30.2,-135.45,-56.773,-34.845,-105.32,-73.577,-79.484,-70.15
-62.458,-77.574,-13.385,-8.7481,18.665,-14.718,-5.03,-7.2127,-30.012,-135.41,-56.755,-34.926,-105.18,-73.763,-79.466,-70.065
-62.458,-77.574,-13.385,-8.7481,18.665,-14.718,-5.03,-7.2127,-30.012,-135.41,-56.755,-34.926,-105.18,-73.763,-79.466,-70.065
-62.458,-77.574,-13.385,-8.7481,18.665,-14.718,-5.03,-7.2127,-30.012,-135.41,-56.755,-34.926,-105.18,-73.763,-79.466,-70.065
-62.126,-77.401,-13.471,-8.8403,18.687,-14.729,-5.3238,-7.2978,-29.825,-135.35,-56.737,-35.005,-105.03,-73.948,-79.446,-69.976
-62.126,-77.401,-13.471,-8.8403,18.687,-14.729,-5.3238,-7.2978,-29.825,-135.35,-56.737,-35.005,-105.03,-73.948,-79.446,-69.976
-62.126,-77.401,-13.471,-8.8403,18.687,-14.729,-5.3238,-7.2978,-29.825,-135.35,-56.737,-35.005,-105.03,-73.948,-79.446,-69.976
-61.454,-77.044,-13.641,-9.0239,18.732,-14.747,-5.909,-7.4618,-29.454,-135.23,-56.696,-35.158,-104.73,-74.312,-79.395,-69.787
-61.454,-77.044,-13.641,-9.0239,18.732,-14.747,-5.909,-7.4618,-29.454,-135.23,-56.696,-35.158,-104.73,-74.312,-79.395,-69.787
-61.454,-77.044,-13.641,-9.0239,18.732,-14.747,-5.909,-7.4618,-29.454,-135.23,-56.696,-35.158,-104.73,-74.312,-79.395,-69.787
-61.114,-76.86,-13.724,-9.1152,18.754,-14.755,-6.2004,-7.5407,-29.27,-135.17,-56.674,-35.232,-104.58,-74.491,-79.365,-69.686
-60.771,-76.673,-13.806,-9.2062,18.776,-14.762,-6.4909,-7.6174,-29.087,-135.1,-56.651,-35.305,-104.43,-74.668,-79.332,-69.582
-60.425,-76.482,-13.887,-9.2968,18.799,-14.769,-6.7806,-7.6921,-28.906,-135.03,-56.628,-35.376,-104.28,-74.844,-79.296,-69.475
-60.425,-76.482,-13.887,-9.2968,18.799,-14.769,-6.7806,-7.6921,-28.906,-135.03,-56.628,-35.376,-104.28,-74.844,-79.296,-69.475
-60.076,-76.287,-13.967,-9.3872,18.821,-14.774,-7.0696,-7.7647,-28.725,-134.95,-56.603,-35.445,-104.12,-75.017,-79.257,-69.363
-60.076,-76.287,-13.967,-9.3872,18.821,-14.774,-7.0696,-7.7647,-28.725,-134.95,-56.603,-35.445,-104.12,-75.017,-79.257,-69.363
-60.076,-76.287,-13.967,-9.3872,18.821,-14.774,-7.0696,-7.7647,-28.725,-134.95,-56.603,-35.445,-104.12,-75.017,-79.257,-69.363
-59.725,-76.089,-14.046,-9.4772,18.842,-14.779,-7.3576,-7.8351,-28.546,-134.87,-56.577,-35.512,-103.97,-75.188,-79.214,-69.248
-59.725,-76.089,-14.046,-9.4772,18.842,-14.779,-7.3576,-7.8351,-28.546,-134.87,-56.577,-35.512,-103.97,-75.188,-79.214,-69.248
-59.371,-75.887,-14.124,-9.5669,18.864,-14.783,-7.6449,-7.9035,-28.367,-134.78,-56.55,-35.578,-103.81,-75.358,-79.169,-69.129
-59.371,-75.887,-14.124,-9.5669,18.864,-14.783,-7.6449,-7.9035,-28.367,-134.78,-56.55,-35.578,-103.81,-75.358,-79.169,-69.129
-59.015,-75.682,-14.201,-9.6562,18.886,-14.786,-7.9313,-7.9698,-28.19,-134.69,-56.522,-35.643,-103.65,-75.525,-79.121,-69.006
-58.656,-75.473,-14.277,-9.7451,18.907,-14.788,-8.2169,-8.034,-28.013,-134.6,-56.493,-35.705,-103.49,-75.69,-79.069,-68.88
-58.656,-75.473,-14.277,-9.7451,18.907,-14.788,-8.2169,-8.034,-28.013,-134.6,-56.493,-35.705,-103.49,-75.69,-79.069,-68.88
-58.656,-75.473,-14.277,-9.7451,18.907,-14.788,-8.2169,-8.034,-28.013,-134.6,-56.493,-35.705,-103.49,-75.69,-79.069,-68.88
-58.294,-75.261,-14.352,-9.8337,18.929,-14.789,-8.5017,-8.096,-27.838,-134.5,-56.464,-35.766,-103.33,-75.854,-79.015,-68.749
-58.294,-75.261,-14.352,-9.8337,18.929,-14.789,-8.5017,-8.096,-27.838,-134.5,-56.464,-35.766,-103.33,-75.854,-79.015,-68.749
-58.294,-75.261,-14.352,-9.8337,18.929,-14.789,-8.5017,-8.096,-27.838,-134.5,-56.464,-35.766,-103.33,-75.854,-79.015,-68.749
-57.93,-75.045,-14.426,-9.922,18.95,-14.79,-8.7857,-8.156,-27.664,-134.39,-56.433,-35.825,-103.17,-76.016,-78.958,-68.616
-57.93,-75.045,-14.426,-9.922,18.95,-14.79,-8.7857,-8.156,-27.664,-134.39,-56.433,-35.825,-103.17,-76.016,-78.958,-68.616
-57.563,-74.826,-14.499,-10.01,18.971,-14.789,-9.0688,-8.2139,-27.49,-134.29,-56.401,-35.883,-103.01,-76.175,-78.897,-68.478
-57.563,-74.826,-14.499,-10.01,18.971,-14.789,-9.0688,-8.2139,-27.49,-134.29,-56.401,-35.883,-103.01,-76.175,-78.897,-68.478
-57.194,-74.603,-14.571,-10.097,18.992,-14.788,-9.3512,-8.2697,-27.318,-134.18,-56.368,-35.938,-102.84,-76.333,-78.834,-68.337
-56.822,-74.377,-14.642,-10.184,19.013,-14.786,-9.6327,-8.3234,-27.147,-134.06,-56.334,-35.993,-102.67,-76.489,-78.767,-68.192
-56.822,-74.377,-14.642,-10.184,19.013,-14.786,-9.6327,-8.3234,-27.147,-134.06,-56.334,-35.993,-102.67,-76.489,-78.767,-68.192
-56.448,-74.147,-14.712,-10.271,19.033,-14.784,-9.9133,-8.3751,-26.977,-133.94,-56.3,-36.045,-102.51,-76.642,-78.698,-68.043
-56.448,-74.147,-14.712,-10.271,19.033,-14.784,-9.9133,-8.3751,-26.977,-133.94,-56.3,-36.045,-102.51,-76.642,-78.698,-68.043
-56.071,-73.914,-14.781,-10.357,19.053,-14.78,-10.193,-8.4246,-26.808,-133.82,-56.264,-36.096,-102.34,-76.794,-78.625,-67.891
-56.071,-73.914,-14.781,-10.357,19.053,-14.78,-10.193,-8.4246,-26.808,-133.82,-56.264,-36.096,-102.34,-76.794,-78.625,-67.891
-55.692,-73.677,-14.849,-10.443,19.073,-14.776,-10.472,-8.4721,-26.64,-133.69,-56.227,-36.145,-102.17,-76.944,-78.55,-67.735
-55.692,-73.677,-14.849,-10.443,19.073,-14.776,-10.472,-8.4721,-26.64,-133.69,-56.227,-36.145,-102.17,-76.944,-78.55,-67.735
-55.692,-73.677,-14.849,-10.443,19.073,-14.776,-10.472,-8.4721,-26.64,-133.69,-56.227,-36.145,-102.17,-76.944,-78.55,-67.735
-55.311,-73.436,-14.916,-10.529,19.093,-14.771,-10.75,-8.5175,-26.473,-133.56,-56.19,-36.192,-102,-77.092,-78.471,-67.575
-55.311,-73.436,-14.916,-10.529,19.093,-14.771,-10.75,-8.5175,-26.473,-133.56,-56.19,-36.192,-102,-77.092,-78.471,-67.575
-55.311,-73.436,-14.916,-10.529,19.093,-14.771,-10.75,-8.5175,-26.473,-133.56,-56.19,-36.192,-102,-77.092,-78.471,-67.575
-54.541,-72.946,-15.048,-10.698,19.132,-14.759,-11.305,-8.6021,-26.142,-133.29,-56.112,-36.282,-101.65,-77.381,-78.306,-67.245
-54.541,-72.946,-15.048,-10.698,19.132,-14.759,-11.305,-8.6021,-26.142,-133.29,-56.112,-36.282,-101.65,-77.381,-78.306,-67.245
-54.153,-72.695,-15.113,-10.783,19.151,-14.751,-11.58,-8.6412,-25.978,-133.14,-56.071,-36.325,-101.47,-77.523,-78.218,-67.075
-54.153,-72.695,-15.113,-10.783,19.151,-14.751,-11.58,-8.6412,-25.978,-133.14,-56.071,-36.325,-101.47,-77.523,-78.218,-67.075
-54.153,-72.695,-15.113,-10.783,19.151,-14.751,-11.58,-8.6412,-25.978,-133.14,-56.071,-36.325,-101.47,-77.523,-78.218,-67.075
-53.762,-72.441,-15.176,-10.866,19.169,-14.743,-11.855,-8.6784,-25.815,-132.99,-56.03,-36.365,-101.29,-77.663,-78.128,-66.901
-53.37,-72.183,-15.239,-10.95,19.188,-14.734,-12.13,-8.7134,-25.653,-132.84,-55.988,-36.404,-101.12,-77.801,-78.035,-66.723
-53.37,-72.183,-15.239,-10.95,19.188,-14.734,-12.13,-8.7134,-25.653,-132.84,-55.988,-36.404,-101.12,-77.801,-78.035,-66.723
-52.975,-71.922,-15.301,-11.033,19.206,-14.725,-12.403,-8.7464,-25.493,-132.68,-55.944,-36.442,-100.94,-77.937,-77.939,-66.542
-52.975,-71.922,-15.301,-11.033,19.206,-14.725,-12.403,-8.7464,-25.493,-132.68,-55.944,-36.442,-100.94,-77.937,-77.939,-66.542
-52.578,-71.658,-15.362,-11.115,19.223,-14.714,-12.675,-8.7774,-25.333,-132.52,-55.9,-36.477,-100.75,-78.071,-77.84,-66.357
-52.578,-71.658,-15.362,-11.115,19.223,-14.714,-12.675,-8.7774,-25.333,-132.52,-55.9,-36.477,-100.75,-78.071,-77.84,-66.357
-52.179,-71.39,-15.422,-11.197,19.241,-14.703,-12.947,-8.8064,-25.174,-132.36,-55.855,-36.511,-100.57,-78.203,-77.738,-66.169
-52.179,-71.39,-15.422,-11.197,19.241,-14.703,-12.947,-8.8064,-25.174,-132.36,-55.855,-36.511,-100.57,-78.203,-77.738,-66.169
-52.179,-71.39,-15.422,-11.197,19.241,-14.703,-12.947,-8.8064,-25.174,-132.36,-55.855,-36.511,-100.57,-78.203,-77.738,-66.169
-51.778,-71.119,-15.481,-11.279,19.258,-14.691,-13.218,-8.8332,-25.016,-132.19,-55.809,-36.543,-100.39,-78.333,-77.634,-65.977
-51.375,-70.845,-15.54,-11.36,19.274,-14.679,-13.488,-8.8581,-24.86,-132.02,-55.762,-36.574,-100.2,-78.46,-77.526,-65.782
-51.375,-70.845,-15.54,-11.36,19.274,-14.679,-13.488,-8.8581,-24.86,-132.02,-55.762,-36.574,-100.2,-78.46,-77.526,-65.782
-50.97,-70.567,-15.598,-11.44,19.291,-14.665,-13.758,-8.881,-24.704,-131.84,-55.715,-36.603,-100.01,-78.586,-77.416,-65.583
-50.97,-70.567,-15.598,-11.44,19.291,-14.665,-13.758,-8.881,-24.704,-131.84,-55.715,-36.603,-100.01,-78.586,-77.416,-65.583
-50.563,-70.286,-15.654,-11.521,19.307,-14.651,-14.027,-8.9018,-24.549,-131.66,-55.666,-36.63,-99.826,-78.71,-77.303,-65.38
-50.563,-70.286,-15.654,-11.521,19.307,-14.651,-14.027,-8.9018,-24.549,-131.66,-55.666,-36.63,-99.826,-78.71,-77.303,-65.38
-50.563,-70.286,-15.654,-11.521,19.307,-14.651,-14.027,-8.9018,-24.549,-131.66,-55.666,-36.63,-99.826,-78.71,-77.303,-65.38
-50.154,-70.002,-15.711,-11.6,19.322,-14.636,-14.294,-8.9206,-24.396,-131.48,-55.616,-36.656,-99.636,-78.832,-77.187,-65.175
-50.154,-70.002,-15.711,-11.6,19.322,-14.636,-14.294,-8.9206,-24.396,-131.48,-55.616,-36.656,-99.636,-78.832,-77.187,-65.175
-50.154,-70.002,-15.711,-11.6,19.322,-14.636,-14.294,-8.9206,-24.396,-131.48,-55.616,-36.656,-99.636,-78.832,-77.187,-65.175
-49.331,-69.423,-15.82,-11.758,19.352,-14.605,-14.828,-8.9523,-24.091,-131.09,-55.515,-36.702,-99.252,-79.07,-76.946,-64.753
-49.331,-69.423,-15.82,-11.758,19.352,-14.605,-14.828,-8.9523,-24.091,-131.09,-55.515,-36.702,-99.252,-79.07,-76.946,-64.753
-48.916,-69.129,-15.874,-11.836,19.366,-14.588,-15.093,-8.9651,-23.94,-130.9,-55.463,-36.722,-99.058,-79.186,-76.822,-64.537
-48.916,-69.129,-15.874,-11.836,19.366,-14.588,-15.093,-8.9651,-23.94,-130.9,-55.463,-36.722,-99.058,-79.186,-76.822,-64.537
-48.916,-69.129,-15.874,-11.836,19.366,-14.588,-15.093,-8.9651,-23.94,-130.9,-55.463,-36.722,-99.058,-79.186,-76.822,-64.537
-48.916,-69.129,-15.874,-11.836,19.366,-14.588,-15.093,-8.9651,-23.94,-130.9,-55.463,-36.722,-99.058,-79.186,-76.822,-64.537
-48.082,-68.531,-15.98,-11.992,19.393,-14.552,-15.622,-8.9849,-23.642,-130.49,-55.356,-36.758,-98.666,-79.412,-76.565,-64.094
-48.082,-68.531,-15.98,-11.992,19.393,-14.552,-15.622,-8.9849,-23.642,-130.49,-55.356,-36.758,-98.666,-79.412,-76.565,-64.094
-47.662,-68.227,-16.031,-12.068,19.405,-14.533,-15.885,-8.9918,-23.494,-130.28,-55.301,-36.774,-98.468,-79.521,-76.432,-63.868
-47.662,-68.227,-16.031,-12.068,19.405,-14.533,-15.885,-8.9918,-23.494,-130.28,-55.301,-36.774,-98.468,-79.521,-76.432,-63.868
-47.241,-67.92,-16.082,-12.145,19.418,-14.514,-16.148,-8.9968,-23.347,-130.07,-55.246,-36.788,-98.268,-79.629,-76.297,-63.638
-47.241,-67.92,-16.082,-12.145,19.418,-14.514,-16.148,-8.9968,-23.347,-130.07,-55.246,-36.788,-98.268,-79.629,-76.297,-63.638
-46.818,-67.61,-16.132,-12.22,19.429,-14.493,-16.41,-8.9998,-23.202,-129.85,-55.189,-36.8,-98.067,-79.735,-76.159,-63.405
-46.393,-67.296,-16.182,-12.296,19.441,-14.472,-16.671,-9.0009,-23.057,-129.63,-55.132,-36.81,-97.865,-79.839,-76.018,-63.168
-46.393,-67.296,-16.182,-12.296,19.441,-14.472,-16.671,-9.0009,-23.057,-129.63,-55.132,-36.81,-97.865,-79.839,-76.018,-63.168
-46.393,-67.296,-16.182,-12.296,19.441,-14.472,-16.671,-9.0009,-23.057,-129.63,-55.132,-36.81,-97.865,-79.839,-76.018,-63.168
-45.967,-66.979,-16.231,-12.37,19.451,-14.451,-16.931,-9.0001,-22.913,-129.4,-55.074,-36.819,-97.661,-79.941,-75.874,-62.929
-45.967,-66.979,-16.231,-12.37,19.451,-14.451,-16.931,-9.0001,-22.913,-129.4,-55.074,-36.819,-97.661,-79.941,-75.874,-62.929
-45.967,-66.979,-16.231,-12.37,19.451,-14.451,-16.931,-9.0001,-22.913,-129.4,-55.074,-36.819,-97.661,-79.941,-75.874,-62.929
-45.539,-66.66,-16.279,-12.445,19.461,-14.429,-17.19,-8.9974,-22.77,-129.17,-55.015,-36.827,-97.456,-80.04,-75.728,-62.686
-45.11,-66.337,-16.327,-12.518,19.471,-14.406,-17.449,-8.9927,-22.628,-128.94,-54.956,-36.832,-97.249,-80.138,-75.58,-62.439
-45.11,-66.337,-16.327,-12.518,19.471,-14.406,-17.449,-8.9927,-22.628,-128.94,-54.956,-36.832,-97.249,-80.138,-75.58,-62.439
-44.679,-66.011,-16.374,-12.592,19.48,-14.382,-17.707,-8.9862,-22.487,-128.7,-54.895,-36.836,-97.041,-80.234,-75.428,-62.19
-44.679,-66.011,-16.374,-12.592,19.48,-14.382,-17.707,-8.9862,-22.487,-128.7,-54.895,-36.836,-97.041,-80.234,-75.428,-62.19
-44.247,-65.682,-16.42,-12.664,19.488,-14.358,-17.965,-8.9777,-22.347,-128.46,-54.834,-36.838,-96.832,-80.327,-75.274,-61.937
-44.247,-65.682,-16.42,-12.664,19.488,-14.358,-17.965,-8.9777,-22.347,-128.46,-54.834,-36.838,-96.832,-80.327,-75.274,-61.937
-43.813,-65.35,-16.466,-12.737,19.496,-14.333,-18.221,-8.9674,-22.209,-128.22,-54.772,-36.839,-96.621,-80.419,-75.118,-61.681
-43.813,-65.35,-16.466,-12.737,19.496,-14.333,-18.221,-8.9674,-22.209,-128.22,-54.772,-36.839,-96.621,-80.419,-75.118,-61.681
-43.378,-65.014,-16.511,-12.808,19.503,-14.308,-18.477,-8.9553,-22.07,-127.97,-54.71,-36.838,-96.409,-80.509,-74.959,-61.421
-43.378,-65.014,-16.511,-12.808,19.503,-14.308,-18.477,-8.9553,-22.07,-127.97,-54.71,-36.838,-96.409,-80.509,-74.959,-61.421
-42.941,-64.676,-16.555,-12.88,19.51,-14.282,-18.732,-8.9412,-21.933,-127.71,-54.646,-36.835,-96.195,-80.596,-74.797,-61.159
-42.941,-64.676,-16.555,-12.88,19.51,-14.282,-18.732,-8.9412,-21.933,-127.71,-54.646,-36.835,-96.195,-80.596,-74.797,-61.159
-42.504,-64.335,-16.599,-12.95,19.516,-14.256,-18.987,-8.9253,-21.797,-127.46,-54.582,-36.831,-95.98,-80.682,-74.633,-60.893
-42.504,-64.335,-16.599,-12.95,19.516,-14.256,-18.987,-8.9253,-21.797,-127.46,-54.582,-36.831,-95.98,-80.682,-74.633,-60.893
-42.065,-63.991,-16.643,-13.02,19.521,-14.228,-19.241,-8.9076,-21.662,-127.2,-54.517,-36.825,-95.764,-80.765,-74.466,-60.624
-42.065,-63.991,-16.643,-13.02,19.521,-14.228,-19.241,-8.9076,-21.662,-127.2,-54.517,-36.825,-95.764,-80.765,-74.466,-60.624
-42.065,-63.991,-16.643,-13.02,19.521,-14.228,-19.241,-8.9076,-21.662,-127.2,-54.517,-36.825,-95.764,-80.765,-74.466,-60.624
-41.624,-63.644,-16.686,-13.09,19.525,-14.201,-19.494,-8.8881,-21.528,-126.93,-54.452,-36.817,-95.546,-80.847,-74.297,-60.352
-41.624,-63.644,-16.686,-13.09,19.525,-14.201,-19.494,-8.8881,-21.528,-126.93,-54.452,-36.817,-95.546,-80.847,-74.297,-60.352
-41.624,-63.644,-16.686,-13.09,19.525,-14.201,-19.494,-8.8881,-21.528,-126.93,-54.452,-36.817,-95.546,-80.847,-74.297,-60.352
-40.74,-62.94,-16.77,-13.227,19.533,-14.144,-19.999,-8.8436,-21.262,-126.39,-54.318,-36.797,-95.106,-81.004,-73.951,-59.798
-40.297,-62.585,-16.812,-13.295,19.535,-14.114,-20.25,-8.8186,-21.131,-126.11,-54.25,-36.785,-94.884,-81.079,-73.774,-59.517
-40.297,-62.585,-16.812,-13.295,19.535,-14.114,-20.25,-8.8186,-21.131,-126.11,-54.25,-36.785,-94.884,-81.079,-73.774,-59.517
-40.297,-62.585,-16.812,-13.295,19.535,-14.114,-20.25,-8.8186,-21.131,-126.11,-54.25,-36.785,-94.884,-81.079,-73.774,-59.517
-39.852,-62.226,-16.853,-13.363,19.537,-14.084,-20.5,-8.7919,-21,-125.83,-54.182,-36.771,-94.66,-81.152,-73.595,-59.232
-39.852,-62.226,-16.853,-13.363,19.537,-14.084,-20.5,-8.7919,-21,-125.83,-54.182,-36.771,-94.66,-81.152,-73.595,-59.232
-39.406,-61.864,-16.893,-13.43,19.538,-14.054,-20.75,-8.7634,-20.871,-125.55,-54.113,-36.755,-94.435,-81.224,-73.413,-58.944
-39.406,-61.864,-16.893,-13.43,19.538,-14.054,-20.75,-8.7634,-20.871,-125.55,-54.113,-36.755,-94.435,-81.224,-73.413,-58.944
-38.959,-61.499,-16.933,-13.496,19.538,-14.023,-20.999,-8.7332,-20.742,-125.26,-54.043,-36.738,-94.209,-81.293,-73.229,-58.654
-38.959,-61.499,-16.933,-13.496,19.538,-14.023,-20.999,-8.7332,-20.742,-125.26,-54.043,-36.738,-94.209,-81.293,-73.229,-58.654
-38.959,-61.499,-16.933,-13.496,19.538,-14.023,-20.999,-8.7332,-20.742,-125.26,-54.043,-36.738,-94.209,-81.293,-73.229,-58.654
-38.511,-61.132,-16.973,-13.562,19.538,-13.992,-21.248,-8.7012,-20.615,-124.96,-53.972,-36.719,-93.981,-81.36,-73.043,-58.36
-38.511,-61.132,-16.973,-13.562,19.538,-13.992,-21.248,-8.7012,-20.615,-124.96,-53.972,-36.719,-93.981,-81.36,-73.043,-58.36
-37.612,-60.389,-17.051,-13.692,19.534,-13.927,-21.743,-8.632,-20.362,-124.37,-53.829,-36.677,-93.522,-81.488,-72.663,-57.763
-37.612,-60.389,-17.051,-13.692,19.534,-13.927,-21.743,-8.632,-20.362,-124.37,-53.829,-36.677,-93.522,-81.488,-72.663,-57.763
-37.612,-60.389,-17.051,-13.692,19.534,-13.927,-21.743,-8.632,-20.362,-124.37,-53.829,-36.677,-93.522,-81.488,-72.663,-57.763
-37.162,-60.013,-17.09,-13.756,19.532,-13.894,-21.99,-8.5949,-20.237,-124.06,-53.757,-36.653,-93.29,-81.549,-72.47,-57.461
-37.162,-60.013,-17.09,-13.756,19.532,-13.894,-21.99,-8.5949,-20.237,-124.06,-53.757,-36.653,-93.29,-81.549,-72.47,-57.461
-36.71,-59.635,-17.128,-13.82,19.528,-13.86,-22.236,-8.5561,-20.113,-123.76,-53.684,-36.628,-93.056,-81.608,-72.275,-57.155
-36.71,-59.635,-17.128,-13.82,19.528,-13.86,-22.236,-8.5561,-20.113,-123.76,-53.684,-36.628,-93.056,-81.608,-72.275,-57.155
-36.258,-59.254,-17.165,-13.883,19.524,-13.826,-22.482,-8.5156,-19.99,-123.44,-53.61,-36.601,-92.822,-81.665,-72.077,-56.846
-36.258,-59.254,-17.165,-13.883,19.524,-13.826,-22.482,-8.5156,-19.99,-123.44,-53.61,-36.601,-92.822,-81.665,-72.077,-56.846
-35.805,-58.87,-17.203,-13.946,19.518,-13.792,-22.727,-8.4734,-19.868,-123.13,-53.535,-36.572,-92.585,-81.72,-71.877,-56.535
-35.805,-58.87,-17.203,-13.946,19.518,-13.792,-22.727,-8.4734,-19.868,-123.13,-53.535,-36.572,-92.585,-81.72,-71.877,-56.535
-35.351,-58.484,-17.24,-14.008,19.512,-13.757,-22.971,-8.4296,-19.746,-122.81,-53.461,-36.542,-92.348,-81.773,-71.674,-56.22
-35.351,-58.484,-17.24,-14.008,19.512,-13.757,-22.971,-8.4296,-19.746,-122.81,-53.461,-36.542,-92.348,-81.773,-71.674,-56.22
-34.896,-58.094,-17.277,-14.069,19.505,-13.722,-23.215,-8.3841,-19.626,-122.49,-53.385,-36.511,-92.109,-81.824,-71.47,-55.903
-34.896,-58.094,-17.277,-14.069,19.505,-13.722,-23.215,-8.3841,-19.626,-122.49,-53.385,-36.511,-92.109,-81.824,-71.47,-55.903
-34.896,-58.094,-17.277,-14.069,19.505,-13.722,-23.215,-8.3841,-19.626,-122.49,-53.385,-36.511,-92.109,-81.824,-71.47,-55.903
-34.441,-57.703,-17.313,-14.13,19.497,-13.686,-23.458,-8.337,-19.506,-122.16,-53.309,-36.478,-91.869,-81.873,-71.263,-55.583
-34.441,-57.703,-17.313,-14.13,19.497,-13.686,-23.458,-8.337,-19.506,-122.16,-53.309,-36.478,-91.869,-81.873,-71.263,-55.583
-34.441,-57.703,-17.313,-14.13,19.497,-13.686,-23.458,-8.337,-19.506,-122.16,-53.309,-36.478,-91.869,-81.873,-71.263,-55.583
-33.528,-56.912,-17.385,-14.25,19.479,-13.613,-23.943,-8.238,-19.27,-121.5,-53.155,-36.407,-91.384,-81.964,-70.843,-54.934
-33.528,-56.912,-17.385,-14.25,19.479,-13.613,-23.943,-8.238,-19.27,-121.5,-53.155,-36.407,-91.384,-81.964,-70.843,-54.934
-33.071,-56.512,-17.421,-14.31,19.468,-13.576,-24.185,-8.1861,-19.153,-121.16,-53.077,-36.369,-91.139,-82.007,-70.63,-54.605
-33.071,-56.512,-17.421,-14.31,19.468,-13.576,-24.185,-8.1861,-19.153,-121.16,-53.077,-36.369,-91.139,-82.007,-70.63,-54.605
-33.071,-56.512,-17.421,-14.31,19.468,-13.576,-24.185,-8.1861,-19.153,-121.16,-53.077,-36.369,-91.139,-82.007,-70.63,-54.605
-32.613,-56.11,-17.457,-14.368,19.457,-13.538,-24.426,-8.1327,-19.037,-120.82,-52.998,-36.33,-90.893,-82.048,-70.415,-54.274
-32.613,-56.11,-17.457,-14.368,19.457,-13.538,-24.426,-8.1327,-19.037,-120.82,-52.998,-36.33,-90.893,-82.048,-70.415,-54.274
-31.697,-55.299,-17.527,-14.484,19.431,-13.462,-24.907,-8.0211,-18.808,-120.12,-52.84,-36.247,-90.397,-82.123,-69.978,-53.602
-31.697,-55.299,-17.527,-14.484,19.431,-13.462,-24.907,-8.0211,-18.808,-120.12,-52.84,-36.247,-90.397,-82.123,-69.978,-53.602
-31.237,-54.89,-17.562,-14.541,19.416,-13.424,-25.146,-7.963,-18.694,-119.77,-52.76,-36.203,-90.147,-82.157,-69.756,-53.262
-31.237,-54.89,-17.562,-14.541,19.416,-13.424,-25.146,-7.963,-18.694,-119.77,-52.76,-36.203,-90.147,-82.157,-69.756,-53.262
-31.237,-54.89,-17.562,-14.541,19.416,-13.424,-25.146,-7.963,-18.694,-119.77,-52.76,-36.203,-90.147,-82.157,-69.756,-53.262
-30.778,-54.478,-17.596,-14.598,19.401,-13.384,-25.385,-7.9034,-18.582,-119.41,-52.679,-36.157,-89.895,-82.189,-69.533,-52.92
-30.778,-54.478,-17.596,-14.598,19.401,-13.384,-25.385,-7.9034,-18.582,-119.41,-52.679,-36.157,-89.895,-82.189,-69.533,-52.92
-30.318,-54.064,-17.631,-14.654,19.385,-13.345,-25.624,-7.8423,-18.47,-119.05,-52.598,-36.11,-89.642,-82.22,-69.307,-52.575
-30.318,-54.064,-17.631,-14.654,19.385,-13.345,-25.624,-7.8423,-18.47,-119.05,-52.598,-36.11,-89.642,-82.22,-69.307,-52.575
-29.858,-53.647,-17.665,-14.709,19.368,-13.305,-25.862,-7.7798,-18.359,-118.69,-52.517,-36.062,-89.388,-82.248,-69.08,-52.227
-29.858,-53.647,-17.665,-14.709,19.368,-13.305,-25.862,-7.7798,-18.359,-118.69,-52.517,-36.062,-89.388,-82.248,-69.08,-52.227
-29.397,-53.229,-17.7,-14.764,19.349,-13.265,-26.099,-7.7157,-18.249,-118.32,-52.435,-36.012,-89.132,-82.274,-68.85,-51.877
-28.937,-52.808,-17.734,-14.819,19.33,-13.225,-26.336,-7.6502,-18.14,-117.95,-52.352,-35.961,-88.875,-82.299,-68.619,-51.523
-28.937,-52.808,-17.734,-14.819,19.33,-13.225,-26.336,-7.6502,-18.14,-117.95,-52.352,-35.961,-88.875,-82.299,-68.619,-51.523
-28.476,-52.384,-17.768,-14.872,19.31,-13.184,-26.573,-7.5832,-18.032,-117.58,-52.269,-35.908,-88.616,-82.321,-68.386,-51.168
-28.476,-52.384,-17.768,-14.872,19.31,-13.184,-26.573,-7.5832,-18.032,-117.58,-52.269,-35.908,-88.616,-82.321,-68.386,-51.168
-28.476,-52.384,-17.768,-14.872,19.31,-13.184,-26.573,-7.5832,-18.032,-117.58,-52.269,-35.908,-88.616,-82.321,-68.386,-51.168
-28.015,-51.959,-17.802,-14.926,19.288,-13.143,-26.809,-7.5149,-17.925,-117.2,-52.186,-35.853,-88.356,-82.341,-68.151,-50.809
-28.015,-51.959,-17.802,-14.926,19.288,-13.143,-26.809,-7.5149,-17.925,-117.2,-52.186,-35.853,-88.356,-82.341,-68.151,-50.809
-27.553,-51.531,-17.836,-14.978,19.266,-13.101,-27.045,-7.4451,-17.818,-116.82,-52.102,-35.797,-88.095,-82.359,-67.914,-50.449
-27.553,-51.531,-17.836,-14.978,19.266,-13.101,-27.045,-7.4451,-17.818,-116.82,-52.102,-35.797,-88.095,-82.359,-67.914,-50.449
-27.092,-51.101,-17.87,-15.03,19.242,-13.06,-27.28,-7.3739,-17.713,-116.43,-52.018,-35.74,-87.832,-82.375,-67.675,-50.085
-27.092,-51.101,-17.87,-15.03,19.242,-13.06,-27.28,-7.3739,-17.713,-116.43,-52.018,-35.74,-87.832,-82.375,-67.675,-50.085
-26.63,-50.668,-17.904,-15.082,19.218,-13.018,-27.515,-7.3013,-17.608,-116.05,-51.933,-35.681,-87.568,-82.389,-67.434,-49.719
-26.63,-50.668,-17.904,-15.082,19.218,-13.018,-27.515,-7.3013,-17.608,-116.05,-51.933,-35.681,-87.568,-82.389,-67.434,-49.719
-26.63,-50.668,-17.904,-15.082,19.218,-13.018,-27.515,-7.3013,-17.608,-116.05,-51.933,-35.681,-87.568,-82.389,-67.434,-49.719
-26.63,-50.668,-17.904,-15.082,19.218,-13.018,-27.515,-7.3013,-17.608,-116.05,-51.933,-35.681,-87.568,-82.389,-67.434,-49.719
-25.707,-49.798,-17.971,-15.183,19.165,-12.933,-27.984,-7.1521,-17.401,-115.26,-51.762,-35.559,-87.035,-82.411,-66.948,-48.98
-25.707,-49.798,-17.971,-15.183,19.165,-12.933,-27.984,-7.1521,-17.401,-115.26,-51.762,-35.559,-87.035,-82.411,-66.948,-48.98
-25.707,-49.798,-17.971,-15.183,19.165,-12.933,-27.984,-7.1521,-17.401,-115.26,-51.762,-35.559,-87.035,-82.411,-66.948,-48.98
-25.246,-49.359,-18.005,-15.233,19.137,-12.89,-28.217,-7.0754,-17.298,-114.86,-51.676,-35.496,-86.767,-82.418,-66.702,-48.606
-25.246,-49.359,-18.005,-15.233,19.137,-12.89,-28.217,-7.0754,-17.298,-114.86,-51.676,-35.496,-86.767,-82.418,-66.702,-48.606
-24.323,-48.476,-18.073,-15.331,19.078,-12.804,-28.684,-6.9182,-17.096,-114.05,-51.503,-35.365,-86.226,-82.428,-66.205,-47.852
-24.323,-48.476,-18.073,-15.331,19.078,-12.804,-28.684,-6.9182,-17.096,-114.05,-51.503,-35.365,-86.226,-82.428,-66.205,-47.852
-24.323,-48.476,-18.073,-15.331,19.078,-12.804,-28.684,-6.9182,-17.096,-114.05,-51.503,-35.365,-86.226,-82.428,-66.205,-47.852
-23.861,-48.031,-18.107,-15.38,19.047,-12.76,-28.916,-6.8376,-16.996,-113.64,-51.416,-35.297,-85.954,-82.429,-65.954,-47.472
-23.861,-48.031,-18.107,-15.38,19.047,-12.76,-28.916,-6.8376,-16.996,-113.64,-51.416,-35.297,-85.954,-82.429,-65.954,-47.472
-23.861,-48.031,-18.107,-15.38,19.047,-12.76,-28.916,-6.8376,-16.996,-113.64,-51.416,-35.297,-85.954,-82.429,-65.954,-47.472
-22.939,-47.136,-18.175,-15.475,18.981,-12.672,-29.38,-6.6727,-16.799,-112.82,-51.241,-35.158,-85.405,-82.427,-65.447,-46.703
-22.939,-47.136,-18.175,-15.475,18.981,-12.672,-29.38,-6.6727,-16.799,-112.82,-51.241,-35.158,-85.405,-82.427,-65.447,-46.703
-22.478,-46.685,-18.21,-15.521,18.946,-12.628,-29.612,-6.5884,-16.701,-112.4,-51.152,-35.086,-85.128,-82.422,-65.191,-46.316
-22.478,-46.685,-18.21,-15.521,18.946,-12.628,-29.612,-6.5884,-16.701,-112.4,-51.152,-35.086,-85.128,-82.422,-65.191,-46.316
-22.478,-46.685,-18.21,-15.521,18.946,-12.628,-29.612,-6.5884,-16.701,-112.4,-51.152,-35.086,-85.128,-82.422,-65.191,-46.316
-22.018,-46.233,-18.244,-15.567,18.91,-12.583,-29.843,-6.5028,-16.604,-111.98,-51.064,-35.013,-84.85,-82.416,-64.933,-45.926
-22.018,-46.233,-18.244,-15.567,18.91,-12.583,-29.843,-6.5028,-16.604,-111.98,-51.064,-35.013,-84.85,-82.416,-64.933,-45.926
-22.018,-46.233,-18.244,-15.567,18.91,-12.583,-29.843,-6.5028,-16.604,-111.98,-51.064,-35.013,-84.85,-82.416,-64.933,-45.926
-21.098,-45.322,-18.314,-15.658,18.835,-12.494,-30.304,-6.328,-16.413,-111.12,-50.886,-34.862,-84.29,-82.396,-64.414,-45.139
-21.098,-45.322,-18.314,-15.658,18.835,-12.494,-30.304,-6.328,-16.413,-111.12,-50.886,-34.862,-84.29,-82.396,-64.414,-45.139
-21.098,-45.322,-18.314,-15.658,18.835,-12.494,-30.304,-6.328,-16.413,-111.12,-50.886,-34.862,-84.29,-82.396,-64.414,-45.139
-20.638,-44.864,-18.348,-15.702,18.795,-12.449,-30.534,-6.2389,-16.319,-110.69,-50.796,-34.785,-84.008,-82.384,-64.152,-44.742
-20.638,-44.864,-18.348,-15.702,18.795,-12.449,-30.534,-6.2389,-16.319,-110.69,-50.796,-34.785,-84.008,-82.384,-64.152,-44.742
-20.179,-44.405,-18.384,-15.746,18.754,-12.404,-30.764,-6.1485,-16.225,-110.25,-50.707,-34.706,-83.724,-82.369,-63.888,-44.343
-20.179,-44.405,-18.384,-15.746,18.754,-12.404,-30.764,-6.1485,-16.225,-110.25,-50.707,-34.706,-83.724,-82.369,-63.888,-44.343
-19.72,-43.943,-18.419,-15.789,18.712,-12.358,-30.994,-6.057,-16.133,-109.82,-50.617,-34.626,-83.44,-82.352,-63.623,-43.941
-19.72,-43.943,-18.419,-15.789,18.712,-12.358,-30.994,-6.057,-16.133,-109.82,-50.617,-34.626,-83.44,-82.352,-63.623,-43.941
-19.262,-43.48,-18.454,-15.832,18.669,-12.313,-31.223,-5.9644,-16.041,-109.37,-50.526,-34.545,-83.153,-82.333,-63.356,-43.538
-19.262,-43.48,-18.454,-15.832,18.669,-12.313,-31.223,-5.9644,-16.041,-109.37,-50.526,-34.545,-83.153,-82.333,-63.356,-43.538
-18.804,-43.015,-18.49,-15.874,18.625,-12.267,-31.452,-5.8706,-15.95,-108.93,-50.436,-34.462,-82.866,-82.312,-63.089,-43.132
-18.804,-43.015,-18.49,-15.874,18.625,-12.267,-31.452,-5.8706,-15.95,-108.93,-50.436,-34.462,-82.866,-82.312,-63.089,-43.132
-18.804,-43.015,-18.49,-15.874,18.625,-12.267,-31.452,-5.8706,-15.95,-108.93,-50.436,-34.462,-82.866,-82.312,-63.089,-43.132
-18.346,-42.549,-18.526,-15.916,18.579,-12.222,-31.681,-5.7758,-15.859,-108.48,-50.345,-34.378,-82.577,-82.289,-62.819,-42.724
-17.89,-42.081,-18.562,-15.957,18.532,-12.176,-31.909,-5.6798,-15.77,-108.03,-50.254,-34.292,-82.287,-82.264,-62.549,-42.315
-17.89,-42.081,-18.562,-15.957,18.532,-12.176,-31.909,-5.6798,-15.77,-108.03,-50.254,-34.292,-82.287,-82.264,-62.549,-42.315
-17.433,-41.611,-18.599,-15.998,18.484,-12.13,-32.137,-5.5828,-15.681,-107.58,-50.162,-34.205,-81.995,-82.237,-62.277,-41.903
-17.433,-41.611,-18.599,-15.998,18.484,-12.13,-32.137,-5.5828,-15.681,-107.58,-50.162,-34.205,-81.995,-82.237,-62.277,-41.903
-16.978,-41.14,-18.636,-16.038,18.434,-12.084,-32.365,-5.4847,-15.592,-107.12,-50.071,-34.117,-81.702,-82.208,-62.003,-41.489
-16.978,-41.14,-18.636,-16.038,18.434,-12.084,-32.365,-5.4847,-15.592,-107.12,-50.071,-34.117,-81.702,-82.208,-62.003,-41.489
-16.523,-40.667,-18.673,-16.077,18.383,-12.037,-32.593,-5.3855,-15.505,-106.66,-49.979,-34.027,-81.408,-82.177,-61.729,-41.072
-16.523,-40.667,-18.673,-16.077,18.383,-12.037,-32.593,-5.3855,-15.505,-106.66,-49.979,-34.027,-81.408,-82.177,-61.729,-41.072
-16.523,-40.667,-18.673,-16.077,18.383,-12.037,-32.593,-5.3855,-15.505,-106.66,-49.979,-34.027,-81.408,-82.177,-61.729,-41.072
-16.068,-40.193,-18.71,-16.116,18.331,-11.991,-32.82,-5.2854,-15.418,-106.19,-49.887,-33.936,-81.112,-82.144,-61.453,-40.654
-16.068,-40.193,-18.71,-16.116,18.331,-11.991,-32.82,-5.2854,-15.418,-106.19,-49.887,-33.936,-81.112,-82.144,-61.453,-40.654
-16.068,-40.193,-18.71,-16.116,18.331,-11.991,-32.82,-5.2854,-15.418,-106.19,-49.887,-33.936,-81.112,-82.144,-61.453,-40.654
-15.162,-39.24,-18.786,-16.193,18.223,-11.898,-33.275,-5.082,-15.247,-105.26,-49.702,-33.751,-80.516,-82.071,-60.897,-39.812
-15.162,-39.24,-18.786,-16.193,18.223,-11.898,-33.275,-5.082,-15.247,-105.26,-49.702,-33.751,-80.516,-82.071,-60.897,-39.812
-14.71,-38.761,-18.825,-16.23,18.167,-11.852,-33.502,-4.9788,-15.163,-104.79,-49.61,-33.656,-80.217,-82.032,-60.618,-39.388
-14.71,-38.761,-18.825,-16.23,18.167,-11.852,-33.502,-4.9788,-15.163,-104.79,-49.61,-33.656,-80.217,-82.032,-60.618,-39.388
-14.71,-38.761,-18.825,-16.23,18.167,-11.852,-33.502,-4.9788,-15.163,-104.79,-49.61,-33.656,-80.217,-82.032,-60.618,-39.388
-14.258,-38.281,-18.863,-16.267,18.11,-11.805,-33.728,-4.8747,-15.079,-104.31,-49.517,-33.56,-79.915,-81.991,-60.337,-38.962
-14.258,-38.281,-18.863,-16.267,18.11,-11.805,-33.728,-4.8747,-15.079,-104.31,-49.517,-33.56,-79.915,-81.991,-60.337,-38.962
-14.258,-38.281,-18.863,-16.267,18.11,-11.805,-33.728,-4.8747,-15.079,-104.31,-49.517,-33.56,-79.915,-81.991,-60.337,-38.962
-13.358,-37.317,-18.942,-16.339,17.991,-11.712,-34.181,-4.6636,-14.914,-103.35,-49.331,-33.363,-79.309,-81.902,-59.772,-38.104
-13.358,-37.317,-18.942,-16.339,17.991,-11.712,-34.181,-4.6636,-14.914,-103.35,-49.331,-33.363,-79.309,-81.902,-59.772,-38.104
-13.358,-37.317,-18.942,-16.339,17.991,-11.712,-34.181,-4.6636,-14.914,-103.35,-49.331,-33.363,-79.309,-81.902,-59.772,-38.104
-12.909,-36.833,-18.982,-16.374,17.929,-11.665,-34.407,-4.5566,-14.833,-102.87,-49.238,-33.264,-79.004,-81.854,-59.488,-37.672
-12.909,-36.833,-18.982,-16.374,17.929,-11.665,-34.407,-4.5566,-14.833,-102.87,-49.238,-33.264,-79.004,-81.854,-59.488,-37.672
-12.909,-36.833,-18.982,-16.374,17.929,-11.665,-34.407,-4.5566,-14.833,-102.87,-49.238,-33.264,-79.004,-81.854,-59.488,-37.672
-12.015,-35.862,-19.064,-16.443,17.803,-11.572,-34.859,-4.34,-14.672,-101.89,-49.051,-33.06,-78.39,-81.753,-58.917,-36.803
-12.015,-35.862,-19.064,-16.443,17.803,-11.572,-34.859,-4.34,-14.672,-101.89,-49.051,-33.06,-78.39,-81.753,-58.917,-36.803
-11.569,-35.374,-19.105,-16.476,17.737,-11.525,-35.085,-4.2304,-14.593,-101.4,-48.957,-32.956,-78.081,-81.7,-58.63,-36.366
-11.569,-35.374,-19.105,-16.476,17.737,-11.525,-35.085,-4.2304,-14.593,-101.4,-48.957,-32.956,-78.081,-81.7,-58.63,-36.366
-11.124,-34.885,-19.147,-16.509,17.67,-11.478,-35.311,-4.1199,-14.514,-100.9,-48.863,-32.851,-77.77,-81.644,-58.342,-35.927
-11.124,-34.885,-19.147,-16.509,17.67,-11.478,-35.311,-4.1199,-14.514,-100.9,-48.863,-32.851,-77.77,-81.644,-58.342,-35.927
-10.68,-34.395,-19.19,-16.542,17.602,-11.432,-35.536,-4.0086,-14.436,-100.4,-48.769,-32.745,-77.458,-81.587,-58.052,-35.486
-10.68,-34.395,-19.19,-16.542,17.602,-11.432,-35.536,-4.0086,-14.436,-100.4,-48.769,-32.745,-77.458,-81.587,-58.052,-35.486
-10.237,-33.904,-19.233,-16.574,17.532,-11.385,-35.761,-3.8965,-14.359,-99.9,-48.675,-32.638,-77.145,-81.527,-57.762,-35.043
-10.237,-33.904,-19.233,-16.574,17.532,-11.385,-35.761,-3.8965,-14.359,-99.9,-48.675,-32.638,-77.145,-81.527,-57.762,-35.043
-9.7952,-33.412,-19.276,-16.605,17.461,-11.338,-35.986,-3.7835,-14.283,-99.396,-48.581,-32.529,-76.831,-81.465,-57.471,-34.599
-9.7952,-33.412,-19.276,-16.605,17.461,-11.338,-35.986,-3.7835,-14.283,-99.396,-48.581,-32.529,-76.831,-81.465,-57.471,-34.599
-9.7952,-33.412,-19.276,-16.605,17.461,-11.338,-35.986,-3.7835,-14.283,-99.396,-48.581,-32.529,-76.831,-81.465,-57.471,-34.599
-9.3546,-32.919,-19.32,-16.636,17.389,-11.292,-36.211,-3.6697,-14.207,-98.889,-48.487,-32.419,-76.515,-81.401,-57.179,-34.153
-9.3546,-32.919,-19.32,-16.636,17.389,-11.292,-36.211,-3.6697,-14.207,-98.889,-48.487,-32.419,-76.515,-81.401,-57.179,-34.153
-8.9152,-32.425,-19.364,-16.666,17.315,-11.245,-36.436,-3.5552,-14.132,-98.38,-48.393,-32.308,-76.198,-81.336,-56.886,-33.705
-8.4769,-31.93,-19.409,-16.696,17.24,-11.199,-36.661,-3.4399,-14.057,-97.868,-48.299,-32.196,-75.879,-81.268,-56.593,-33.256
-8.4769,-31.93,-19.409,-16.696,17.24,-11.199,-36.661,-3.4399,-14.057,-97.868,-48.299,-32.196,-75.879,-81.268,-56.593,-33.256
-8.0398,-31.434,-19.455,-16.725,17.163,-11.152,-36.886,-3.3238,-13.983,-97.353,-48.204,-32.082,-75.56,-81.198,-56.298,-32.805
-8.0398,-31.434,-19.455,-16.725,17.163,-11.152,-36.886,-3.3238,-13.983,-97.353,-48.204,-32.082,-75.56,-81.198,-56.298,-32.805
-7.604,-30.937,-19.501,-16.754,17.085,-11.106,-37.111,-3.207,-13.91,-96.835,-48.11,-31.968,-75.239,-81.126,-56.003,-32.352
-7.604,-30.937,-19.501,-16.754,17.085,-11.106,-37.111,-3.207,-13.91,-96.835,-48.11,-31.968,-75.239,-81.126,-56.003,-32.352
-7.604,-30.937,-19.501,-16.754,17.085,-11.106,-37.111,-3.207,-13.91,-96.835,-48.11,-31.968,-75.239,-81.126,-56.003,-32.352
-7.1695,-30.439,-19.548,-16.782,17.005,-11.06,-37.335,-3.0895,-13.838,-96.315,-48.015,-31.852,-74.916,-81.052,-55.707,-31.898
-7.1695,-30.439,-19.548,-16.782,17.005,-11.06,-37.335,-3.0895,-13.838,-96.315,-48.015,-31.852,-74.916,-81.052,-55.707,-31.898
-7.1695,-30.439,-19.548,-16.782,17.005,-11.06,-37.335,-3.0895,-13.838,-96.315,-48.015,-31.852,-74.916,-81.052,-55.707,-31.898
-6.3043,-29.441,-19.643,-16.837,16.842,-10.967,-37.784,-2.8523,-13.695,-95.267,-47.826,-31.617,-74.268,-80.899,-55.112,-30.985
-6.3043,-29.441,-19.643,-16.837,16.842,-10.967,-37.784,-2.8523,-13.695,-95.267,-47.826,-31.617,-74.268,-80.899,-55.112,-30.985
-5.8737,-28.941,-19.692,-16.864,16.758,-10.921,-38.009,-2.7327,-13.625,-94.74,-47.732,-31.497,-73.941,-80.819,-54.814,-30.526
-5.8737,-28.941,-19.692,-16.864,16.758,-10.921,-38.009,-2.7327,-13.625,-94.74,-47.732,-31.497,-73.941,-80.819,-54.814,-30.526
-5.8737,-28.941,-19.692,-16.864,16.758,-10.921,-38.009,-2.7327,-13.625,-94.74,-47.732,-31.497,-73.941,-80.819,-54.814,-30.526
-5.4445,-28.44,-19.741,-16.89,16.673,-10.875,-38.233,-2.6124,-13.555,-94.209,-47.637,-31.377,-73.614,-80.737,-54.515,-30.066
-5.4445,-28.44,-19.741,-16.89,16.673,-10.875,-38.233,-2.6124,-13.555,-94.209,-47.637,-31.377,-73.614,-80.737,-54.515,-30.066
-5.4445,-28.44,-19.741,-16.89,16.673,-10.875,-38.233,-2.6124,-13.555,-94.209,-47.637,-31.377,-73.614,-80.737,-54.515,-30.066
-4.5904,-27.436,-19.842,-16.94,16.498,-10.784,-38.682,-2.3699,-13.417,-93.141,-47.448,-31.133,-72.955,-80.567,-53.915,-29.141
-4.5904,-27.436,-19.842,-16.94,16.498,-10.784,-38.682,-2.3699,-13.417,-93.141,-47.448,-31.133,-72.955,-80.567,-53.915,-29.141
-4.1655,-26.933,-19.893,-16.965,16.409,-10.738,-38.906,-2.2477,-13.35,-92.604,-47.353,-31.009,-72.624,-80.479,-53.614,-28.676
-4.1655,-26.933,-19.893,-16.965,16.409,-10.738,-38.906,-2.2477,-13.35,-92.604,-47.353,-31.009,-72.624,-80.479,-53.614,-28.676
-3.7421,-26.429,-19.945,-16.989,16.318,-10.692,-39.13,-2.1249,-13.282,-92.064,-47.259,-30.884,-72.291,-80.389,-53.312,-28.21
-3.7421,-26.429,-19.945,-16.989,16.318,-10.692,-39.13,-2.1249,-13.282,-92.064,-47.259,-30.884,-72.291,-80.389,-53.312,-28.21
-3.3202,-25.925,-19.997,-17.012,16.225,-10.647,-39.355,-2.0015,-13.216,-91.521,-47.164,-30.758,-71.957,-80.297,-53.01,-27.743
-3.3202,-25.925,-19.997,-17.012,16.225,-10.647,-39.355,-2.0015,-13.216,-91.521,-47.164,-30.758,-71.957,-80.297,-53.01,-27.743
-2.8998,-25.42,-20.051,-17.035,16.131,-10.602,-39.579,-1.8776,-13.15,-90.976,-47.07,-30.631,-71.622,-80.203,-52.707,-27.274
-2.8998,-25.42,-20.051,-17.035,16.131,-10.602,-39.579,-1.8776,-13.15,-90.976,-47.07,-30.631,-71.622,-80.203,-52.707,-27.274
-2.8998,-25.42,-20.051,-17.035,16.131,-10.602,-39.579,-1.8776,-13.15,-90.976,-47.07,-30.631,-71.622,-80.203,-52.707,-27.274
-2.481,-24.915,-20.105,-17.058,16.036,-10.557,-39.803,-1.7531,-13.085,-90.429,-46.975,-30.502,-71.285,-80.107,-52.404,-26.804
-2.0638,-24.409,-20.16,-17.079,15.939,-10.512,-40.027,-1.628,-13.02,-89.88,-46.881,-30.373,-70.947,-80.009,-52.1,-26.332
-1.6482,-23.903,-20.215,-17.101,15.841,-10.467,-40.252,-1.5024,-12.956,-89.328,-46.787,-30.243,-70.608,-79.909,-51.796,-25.86
-1.6482,-23.903,-20.215,-17.101,15.841,-10.467,-40.252,-1.5024,-12.956,-89.328,-46.787,-30.243,-70.608,-79.909,-51.796,-25.86
-1.2343,-23.396,-20.271,-17.121,15.741,-10.423,-40.476,-1.3762,-12.893,-88.774,-46.692,-30.111,-70.268,-79.807,-51.491,-25.386
-1.2343,-23.396,-20.271,-17.121,15.741,-10.423,-40.476,-1.3762,-12.893,-88.774,-46.692,-30.111,-70.268,-79.807,-51.491,-25.386
-1.2343,-23.396,-20.271,-17.121,15.741,-10.423,-40.476,-1.3762,-12.893,-88.774,-46.692,-30.111,-70.268,-79.807,-51.491,-25.386
-0.82203,-22.889,-20.328,-17.142,15.639,-10.378,-40.7,-1.2496,-12.83,-88.218,-46.598,-29.979,-69.926,-79.703,-51.186,-24.91
-0.82203,-22.889,-20.328,-17.142,15.639,-10.378,-40.7,-1.2496,-12.83,-88.218,-46.598,-29.979,-69.926,-79.703,-51.186,-24.91
-0.82203,-22.889,-20.328,-17.142,15.639,-10.378,-40.7,-1.2496,-12.83,-88.218,-46.598,-29.979,-69.926,-79.703,-51.186,-24.91
-0.41145,-22.381,-20.386,-17.161,15.537,-10.334,-40.924,-1.1225,-12.768,-87.659,-46.504,-29.845,-69.584,-79.597,-50.881,-24.434
-0.0025906,-21.874,-20.445,-17.18,15.433,-10.29,-41.149,-0.99488,-12.706,-87.099,-46.41,-29.71,-69.239,-79.489,-50.575,-23.956
-0.0025906,-21.874,-20.445,-17.18,15.433,-10.29,-41.149,-0.99488,-12.706,-87.099,-46.41,-29.71,-69.239,-79.489,-50.575,-23.956
0.40453,-21.366,-20.504,-17.199,15.327,-10.246,-41.373,-0.8668,-12.645,-86.536,-46.316,-29.575,-68.894,-79.379,-50.268,-23.477
0.80989,-20.857,-20.564,-17.217,15.22,-10.203,-41.597,-0.73827,-12.585,-85.971,-46.222,-29.438,-68.548,-79.267,-49.962,-22.997
0.80989,-20.857,-20.564,-17.217,15.22,-10.203,-41.597,-0.73827,-12.585,-85.971,-46.222,-29.438,-68.548,-79.267,-49.962,-22.997
0.80989,-20.857,-20.564,-17.217,15.22,-10.203,-41.597,-0.73827,-12.585,-85.971,-46.222,-29.438,-68.548,-79.267,-49.962,-22.997
1.2135,-20.349,-20.625,-17.235,15.111,-10.159,-41.822,-0.60931,-12.525,-85.404,-46.128,-29.3,-68.2,-79.153,-49.655,-22.516
1.2135,-20.349,-20.625,-17.235,15.111,-10.159,-41.822,-0.60931,-12.525,-85.404,-46.128,-29.3,-68.2,-79.153,-49.655,-22.516
1.2135,-20.349,-20.625,-17.235,15.111,-10.159,-41.822,-0.60931,-12.525,-85.404,-46.128,-29.3,-68.2,-79.153,-49.655,-22.516
1.6152,-19.84,-20.687,-17.252,15.001,-10.116,-42.046,-0.47992,-12.466,-84.835,-46.034,-29.161,-67.851,-79.037,-49.348,-22.033
1.6152,-19.84,-20.687,-17.252,15.001,-10.116,-42.046,-0.47992,-12.466,-84.835,-46.034,-29.161,-67.851,-79.037,-49.348,-22.033
