-8.1715,32.399,-1.9759,10.891,2.8969,8.3074,-13.366,20.843,-24.664,44.327,-12.914,10.055,-18.479,0.62541,-12.419,16.622
-8.1715,32.399,-1.9759,10.891,2.8969,8.3074,-13.366,20.843,-24.664,44.327,-12.914,10.055,-18.479,0.62541,-12.419,16.622
-8.2144,32.298,-2.0088,10.902,2.9675,8.2709,-13.354,20.795,-24.567,44.315,-12.883,10.053,-18.42,0.60902,-12.384,16.604
-8.2144,32.298,-2.0088,10.902,2.9675,8.2709,-13.354,20.795,-24.567,44.315,-12.883,10.053,-18.42,0.60902,-12.384,16.604
-8.2576,32.197,-2.0421,10.913,3.0375,8.2345,-13.344,20.747,-24.47,44.302,-12.851,10.051,-18.362,0.59294,-12.35,16.587
-8.3011,32.095,-2.0757,10.924,3.1068,8.1984,-13.334,20.7,-24.373,44.288,-12.82,10.049,-18.304,0.57718,-12.316,16.569
-8.3011,32.095,-2.0757,10.924,3.1068,8.1984,-13.334,20.7,-24.373,44.288,-12.82,10.049,-18.304,0.57718,-12.316,16.569
-8.3449,31.992,-2.1097,10.934,3.1756,8.1625,-13.324,20.652,-24.276,44.274,-12.789,10.047,-18.247,0.56172,-12.282,16.551
-8.3449,31.992,-2.1097,10.934,3.1756,8.1625,-13.324,20.652,-24.276,44.274,-12.789,10.047,-18.247,0.56172,-12.282,16.551
-8.3889,31.89,-2.1441,10.944,3.2436,8.1267,-13.315,20.605,-24.178,44.26,-12.758,10.044,-18.19,0.54659,-12.249,16.533
-8.3889,31.89,-2.1441,10.944,3.2436,8.1267,-13.315,20.605,-24.178,44.26,-12.758,10.044,-18.19,0.54659,-12.249,16.533
-8.3889,31.89,-2.1441,10.944,3.2436,8.1267,-13.315,20.605,-24.178,44.26,-12.758,10.044,-18.19,0.54659,-12.249,16.533
-8.4333,31.786,-2.1789,10.955,3.3111,8.0912,-13.307,20.557,-24.08,44.245,-12.727,10.041,-18.133,0.53177,-12.215,16.515
-8.4333,31.786,-2.1789,10.955,3.3111,8.0912,-13.307,20.557,-24.08,44.245,-12.727,10.041,-18.133,0.53177,-12.215,16.515
-8.4333,31.786,-2.1789,10.955,3.3111,8.0912,-13.307,20.557,-24.08,44.245,-12.727,10.041,-18.133,0.53177,-12.215,16.515
-8.5228,31.577,-2.2497,10.974,3.444,8.0207,-13.293,20.463,-23.884,44.212,-12.666,10.034,-18.02,0.50306,-12.149,16.478
-8.5228,31.577,-2.2497,10.974,3.444,8.0207,-13.293,20.463,-23.884,44.212,-12.666,10.034,-18.02,0.50306,-12.149,16.478
-8.568,31.472,-2.2856,10.983,3.5095,7.9858,-13.287,20.416,-23.785,44.195,-12.635,10.031,-17.964,0.48918,-12.115,16.46
-8.568,31.472,-2.2856,10.983,3.5095,7.9858,-13.287,20.416,-23.785,44.195,-12.635,10.031,-17.964,0.48918,-12.115,16.46
-8.568,31.472,-2.2856,10.983,3.5095,7.9858,-13.287,20.416,-23.785,44.195,-12.635,10.031,-17.964,0.48918,-12.115,16.46
-8.6134,31.367,-2.3219,10.993,3.5744,7.9511,-13.282,20.368,-23.686,44.177,-12.605,10.027,-17.909,0.4756,-12.083,16.441
-8.6592,31.26,-2.3586,11.002,3.6386,7.9166,-13.278,20.322,-23.587,44.159,-12.575,10.022,-17.854,0.46234,-12.05,16.423
-8.6592,31.26,-2.3586,11.002,3.6386,7.9166,-13.278,20.322,-23.587,44.159,-12.575,10.022,-17.854,0.46234,-12.05,16.423
-8.7051,31.154,-2.3957,11.011,3.7021,7.8823,-13.274,20.275,-23.488,44.14,-12.545,10.018,-17.799,0.44939,-12.017,16.404
-8.7051,31.154,-2.3957,11.011,3.7021,7.8823,-13.274,20.275,-23.488,44.14,-12.545,10.018,-17.799,0.44939,-12.017,16.404
-8.7514,31.046,-2.4332,11.019,3.765,7.8482,-13.27,20.228,-23.388,44.121,-12.515,10.013,-17.744,0.43676,-11.985,16.385
-8.7514,31.046,-2.4332,11.019,3.765,7.8482,-13.27,20.228,-23.388,44.121,-12.515,10.013,-17.744,0.43676,-11.985,16.385
-8.7979,30.939,-2.471,11.028,3.8272,7.8143,-13.268,20.181,-23.288,44.1,-12.485,10.008,-17.69,0.42443,-11.952,16.366
-8.7979,30.939,-2.471,11.028,3.8272,7.8143,-13.268,20.181,-23.288,44.1,-12.485,10.008,-17.69,0.42443,-11.952,16.366
-8.8447,30.83,-2.5092,11.036,3.8887,7.7807,-13.266,20.135,-23.188,44.08,-12.455,10.002,-17.636,0.41241,-11.92,16.347
-8.8447,30.83,-2.5092,11.036,3.8887,7.7807,-13.266,20.135,-23.188,44.08,-12.455,10.002,-17.636,0.41241,-11.92,16.347
-8.8447,30.83,-2.5092,11.036,3.8887,7.7807,-13.266,20.135,-23.188,44.08,-12.455,10.002,-17.636,0.41241,-11.92,16.347
-8.8917,30.722,-2.5478,11.044,3.9496,7.7473,-13.265,20.088,-23.088,44.058,-12.426,9.9964,-17.582,0.4007,-11.888,16.328
-8.939,30.612,-2.5868,11.052,4.0097,7.714,-13.264,20.042,-22.987,44.036,-12.396,9.9903,-17.528,0.38929,-11.856,16.308
-8.939,30.612,-2.5868,11.052,4.0097,7.714,-13.264,20.042,-22.987,44.036,-12.396,9.9903,-17.528,0.38929,-11.856,16.308
-8.9865,30.503,-2.6262,11.06,4.0692,7.6811,-13.265,19.996,-22.886,44.014,-12.367,9.9841,-17.475,0.3782,-11.824,16.289
-8.9865,30.503,-2.6262,11.06,4.0692,7.6811,-13.265,19.996,-22.886,44.014,-12.367,9.9841,-17.475,0.3782,-11.824,16.289
-9.0343,30.392,-2.6659,11.067,4.128,7.6483,-13.265,19.95,-22.785,43.99,-12.338,9.9775,-17.423,0.36741,-11.793,16.269
-9.0343,30.392,-2.6659,11.067,4.128,7.6483,-13.265,19.95,-22.785,43.99,-12.338,9.9775,-17.423,0.36741,-11.793,16.269
-9.0343,30.392,-2.6659,11.067,4.128,7.6483,-13.265,19.95,-22.785,43.99,-12.338,9.9775,-17.423,0.36741,-11.793,16.269
-9.0823,30.282,-2.706,11.074,4.1861,7.6158,-13.267,19.904,-22.684,43.966,-12.309,9.9706,-17.37,0.35693,-11.761,16.25
-9.1306,30.171,-2.7464,11.082,4.2436,7.5835,-13.269,19.858,-22.582,43.942,-12.28,9.9635,-17.318,0.34676,-11.73,16.23
-9.1306,30.171,-2.7464,11.082,4.2436,7.5835,-13.269,19.858,-22.582,43.942,-12.28,9.9635,-17.318,0.34676,-11.73,16.23
-9.1791,30.059,-2.7873,11.089,4.3003,7.5514,-13.272,19.812,-22.48,43.917,-12.252,9.9561,-17.267,0.33689,-11.699,16.21
-9.1791,30.059,-2.7873,11.089,4.3003,7.5514,-13.272,19.812,-22.48,43.917,-12.252,9.9561,-17.267,0.33689,-11.699,16.21
-9.2279,29.947,-2.8285,11.095,4.3563,7.5196,-13.276,19.766,-22.378,43.891,-12.223,9.9484,-17.215,0.32732,-11.668,16.19
-9.2279,29.947,-2.8285,11.095,4.3563,7.5196,-13.276,19.766,-22.378,43.891,-12.223,9.9484,-17.215,0.32732,-11.668,16.19
-9.2279,29.947,-2.8285,11.095,4.3563,7.5196,-13.276,19.766,-22.378,43.891,-12.223,9.9484,-17.215,0.32732,-11.668,16.19
-9.2769,29.835,-2.8701,11.102,4.4116,7.488,-13.28,19.721,-22.276,43.865,-12.195,9.9404,-17.164,0.31806,-11.637,16.17
-9.2769,29.835,-2.8701,11.102,4.4116,7.488,-13.28,19.721,-22.276,43.865,-12.195,9.9404,-17.164,0.31806,-11.637,16.17
-9.2769,29.835,-2.8701,11.102,4.4116,7.488,-13.28,19.721,-22.276,43.865,-12.195,9.9404,-17.164,0.31806,-11.637,16.17
-9.3756,29.609,-2.9544,11.114,4.5202,7.4256,-13.29,19.63,-22.071,43.811,-12.139,9.9236,-17.063,0.30044,-11.576,16.129
-9.3756,29.609,-2.9544,11.114,4.5202,7.4256,-13.29,19.63,-22.071,43.811,-12.139,9.9236,-17.063,0.30044,-11.576,16.129
-9.4252,29.495,-2.997,11.12,4.5734,7.3948,-13.296,19.585,-21.968,43.783,-12.111,9.9147,-17.013,0.29209,-11.546,16.109
-9.4252,29.495,-2.997,11.12,4.5734,7.3948,-13.296,19.585,-21.968,43.783,-12.111,9.9147,-17.013,0.29209,-11.546,16.109
-9.4752,29.381,-3.0401,11.126,4.6258,7.3641,-13.303,19.54,-21.865,43.754,-12.083,9.9056,-16.963,0.28404,-11.516,16.088
-9.4752,29.381,-3.0401,11.126,4.6258,7.3641,-13.303,19.54,-21.865,43.754,-12.083,9.9056,-16.963,0.28404,-11.516,16.088
-9.5253,29.267,-3.0835,11.132,4.6776,7.3338,-13.311,19.495,-21.761,43.725,-12.056,9.8962,-16.914,0.27628,-11.486,16.068
-9.5253,29.267,-3.0835,11.132,4.6776,7.3338,-13.311,19.495,-21.761,43.725,-12.056,9.8962,-16.914,0.27628,-11.486,16.068
-9.5756,29.152,-3.1273,11.137,4.7286,7.3037,-13.319,19.45,-21.658,43.695,-12.028,9.8866,-16.865,0.26883,-11.456,16.047
-9.5756,29.152,-3.1273,11.137,4.7286,7.3037,-13.319,19.45,-21.658,43.695,-12.028,9.8866,-16.865,0.26883,-11.456,16.047
-9.6262,29.037,-3.1715,11.143,4.779,7.2738,-13.328,19.406,-21.554,43.665,-12.001,9.8766,-16.816,0.26168,-11.426,16.026
-9.6262,29.037,-3.1715,11.143,4.779,7.2738,-13.328,19.406,-21.554,43.665,-12.001,9.8766,-16.816,0.26168,-11.426,16.026
-9.6262,29.037,-3.1715,11.143,4.779,7.2738,-13.328,19.406,-21.554,43.665,-12.001,9.8766,-16.816,0.26168,-11.426,16.026
-9.677,28.921,-3.216,11.148,4.8286,7.2442,-13.337,19.361,-21.45,43.634,-11.974,9.8663,-16.768,0.25482,-11.397,16.005
-9.677,28.921,-3.216,11.148,4.8286,7.2442,-13.337,19.361,-21.45,43.634,-11.974,9.8663,-16.768,0.25482,-11.397,16.005
-9.677,28.921,-3.216,11.148,4.8286,7.2442,-13.337,19.361,-21.45,43.634,-11.974,9.8663,-16.768,0.25482,-11.397,16.005
-9.7791,28.689,-3.3061,11.157,4.9256,7.1858,-13.358,19.273,-21.241,43.57,-11.92,9.845,-16.672,0.24199,-11.338,15.963
-9.7791,28.689,-3.3061,11.157,4.9256,7.1858,-13.358,19.273,-21.241,43.57,-11.92,9.845,-16.672,0.24199,-11.338,15.963
-9.7791,28.689,-3.3061,11.157,4.9256,7.1858,-13.358,19.273,-21.241,43.57,-11.92,9.845,-16.672,0.24199,-11.338,15.963
-9.8305,28.572,-3.3517,11.162,4.973,7.157,-13.369,19.229,-21.137,43.538,-11.894,9.8339,-16.625,0.23603,-11.309,15.941
-9.8305,28.572,-3.3517,11.162,4.973,7.157,-13.369,19.229,-21.137,43.538,-11.894,9.8339,-16.625,0.23603,-11.309,15.941
-9.8821,28.456,-3.3976,11.166,5.0196,7.1284,-13.381,19.185,-21.032,43.504,-11.867,9.8226,-16.578,0.23035,-11.28,15.92
-9.9339,28.338,-3.4439,11.171,5.0656,7.1001,-13.394,19.142,-20.927,43.471,-11.841,9.8109,-16.532,0.22497,-11.252,15.898
-9.9339,28.338,-3.4439,11.171,5.0656,7.1001,-13.394,19.142,-20.927,43.471,-11.841,9.8109,-16.532,0.22497,-11.252,15.898
-9.9859,28.221,-3.4906,11.175,5.1108,7.0721,-13.407,19.098,-20.821,43.436,-11.815,9.799,-16.485,0.21988,-11.223,15.877
-9.9859,28.221,-3.4906,11.175,5.1108,7.0721,-13.407,19.098,-20.821,43.436,-11.815,9.799,-16.485,0.21988,-11.223,15.877
-10.038,28.103,-3.5376,11.179,5.1552,7.0444,-13.421,19.055,-20.716,43.401,-11.789,9.7868,-16.44,0.21508,-11.195,15.855
-10.038,28.103,-3.5376,11.179,5.1552,7.0444,-13.421,19.055,-20.716,43.401,-11.789,9.7868,-16.44,0.21508,-11.195,15.855
-10.09,27.985,-3.585,11.182,5.1989,7.0169,-13.435,19.012,-20.61,43.366,-11.764,9.7743,-16.394,0.21058,-11.166,15.833
-10.09,27.985,-3.585,11.182,5.1989,7.0169,-13.435,19.012,-20.61,43.366,-11.764,9.7743,-16.394,0.21058,-11.166,15.833
-10.143,27.866,-3.6327,11.186,5.2419,6.9897,-13.451,18.969,-20.505,43.33,-11.738,9.7615,-16.349,0.20636,-11.138,15.811
-10.143,27.866,-3.6327,11.186,5.2419,6.9897,-13.451,18.969,-20.505,43.33,-11.738,9.7615,-16.349,0.20636,-11.138,15.811
-10.196,27.747,-3.6808,11.189,5.2841,6.9627,-13.466,18.926,-20.399,43.293,-11.713,9.7484,-16.304,0.20243,-11.11,15.789
-10.196,27.747,-3.6808,11.189,5.2841,6.9627,-13.466,18.926,-20.399,43.293,-11.713,9.7484,-16.304,0.20243,-11.11,15.789
-10.249,27.628,-3.7292,11.193,5.3255,6.9361,-13.483,18.884,-20.292,43.256,-11.688,9.7351,-16.26,0.19879,-11.083,15.767
-10.249,27.628,-3.7292,11.193,5.3255,6.9361,-13.483,18.884,-20.292,43.256,-11.688,9.7351,-16.26,0.19879,-11.083,15.767
-10.302,27.509,-3.7779,11.196,5.3662,6.9097,-13.5,18.841,-20.186,43.218,-11.663,9.7215,-16.216,0.19543,-11.055,15.745
-10.302,27.509,-3.7779,11.196,5.3662,6.9097,-13.5,18.841,-20.186,43.218,-11.663,9.7215,-16.216,0.19543,-11.055,15.745
-10.355,27.389,-3.827,11.199,5.4062,6.8836,-13.517,18.799,-20.079,43.18,-11.638,9.7076,-16.172,0.19236,-11.028,15.723
-10.355,27.389,-3.827,11.199,5.4062,6.8836,-13.517,18.799,-20.079,43.18,-11.638,9.7076,-16.172,0.19236,-11.028,15.723
-10.408,27.27,-3.8765,11.201,5.4454,6.8578,-13.536,18.757,-19.973,43.141,-11.613,9.6934,-16.129,0.18957,-11,15.7
-10.408,27.27,-3.8765,11.201,5.4454,6.8578,-13.536,18.757,-19.973,43.141,-11.613,9.6934,-16.129,0.18957,-11,15.7
-10.408,27.27,-3.8765,11.201,5.4454,6.8578,-13.536,18.757,-19.973,43.141,-11.613,9.6934,-16.129,0.18957,-11,15.7
-10.462,27.15,-3.9263,11.204,5.4838,6.8323,-13.554,18.715,-19.866,43.102,-11.589,9.679,-16.086,0.18707,-10.973,15.678
-10.462,27.15,-3.9263,11.204,5.4838,6.8323,-13.554,18.715,-19.866,43.102,-11.589,9.679,-16.086,0.18707,-10.973,15.678
-10.462,27.15,-3.9263,11.204,5.4838,6.8323,-13.554,18.715,-19.866,43.102,-11.589,9.679,-16.086,0.18707,-10.973,15.678
-10.516,27.029,-3.9764,11.206,5.5214,6.807,-13.574,18.673,-19.758,43.062,-11.565,9.6643,-16.043,0.18485,-10.946,15.655
-10.516,27.029,-3.9764,11.206,5.5214,6.807,-13.574,18.673,-19.758,43.062,-11.565,9.6643,-16.043,0.18485,-10.946,15.655
-10.624,26.788,-4.0777,11.211,5.5945,6.7574,-13.614,18.591,-19.544,42.98,-11.517,9.634,-15.959,0.18124,-10.893,15.61
-10.624,26.788,-4.0777,11.211,5.5945,6.7574,-13.614,18.591,-19.544,42.98,-11.517,9.634,-15.959,0.18124,-10.893,15.61
-10.624,26.788,-4.0777,11.211,5.5945,6.7574,-13.614,18.591,-19.544,42.98,-11.517,9.634,-15.959,0.18124,-10.893,15.61
-10.678,26.667,-4.1289,11.213,5.6299,6.733,-13.636,18.55,-19.436,42.939,-11.493,9.6185,-15.917,0.17986,-10.866,15.587
-10.678,26.667,-4.1289,11.213,5.6299,6.733,-13.636,18.55,-19.436,42.939,-11.493,9.6185,-15.917,0.17986,-10.866,15.587
-10.678,26.667,-4.1289,11.213,5.6299,6.733,-13.636,18.55,-19.436,42.939,-11.493,9.6185,-15.917,0.17986,-10.866,15.587
-10.787,26.424,-4.2322,11.216,5.6983,6.6851,-13.68,18.468,-19.22,42.854,-11.446,9.5866,-15.835,0.17792,-10.814,15.541
-10.787,26.424,-4.2322,11.216,5.6983,6.6851,-13.68,18.468,-19.22,42.854,-11.446,9.5866,-15.835,0.17792,-10.814,15.541
-10.841,26.303,-4.2843,11.218,5.7314,6.6616,-13.703,18.428,-19.112,42.811,-11.423,9.5702,-15.795,0.17737,-10.788,15.518
-10.841,26.303,-4.2843,11.218,5.7314,6.6616,-13.703,18.428,-19.112,42.811,-11.423,9.5702,-15.795,0.17737,-10.788,15.518
-10.841,26.303,-4.2843,11.218,5.7314,6.6616,-13.703,18.428,-19.112,42.811,-11.423,9.5702,-15.795,0.17737,-10.788,15.518
-10.896,26.181,-4.3368,11.219,5.7637,6.6384,-13.726,18.387,-19.004,42.767,-11.4,9.5536,-15.754,0.17708,-10.762,15.495
-10.896,26.181,-4.3368,11.219,5.7637,6.6384,-13.726,18.387,-19.004,42.767,-11.4,9.5536,-15.754,0.17708,-10.762,15.495
-10.951,26.059,-4.3896,11.221,5.7952,6.6155,-13.75,18.347,-18.895,42.723,-11.377,9.5367,-15.715,0.17707,-10.736,15.472
-10.951,26.059,-4.3896,11.221,5.7952,6.6155,-13.75,18.347,-18.895,42.723,-11.377,9.5367,-15.715,0.17707,-10.736,15.472
-10.951,26.059,-4.3896,11.221,5.7952,6.6155,-13.75,18.347,-18.895,42.723,-11.377,9.5367,-15.715,0.17707,-10.736,15.472
-11.061,25.815,-4.4962,11.223,5.8559,6.5706,-13.8,18.268,-18.677,42.633,-11.332,9.5021,-15.636,0.17785,-10.685,15.425
-11.061,25.815,-4.4962,11.223,5.8559,6.5706,-13.8,18.268,-18.677,42.633,-11.332,9.5021,-15.636,0.17785,-10.685,15.425
-11.116,25.693,-4.55,11.224,5.8851,6.5486,-13.826,18.229,-18.568,42.588,-11.31,9.4844,-15.598,0.17865,-10.66,15.402
-11.116,25.693,-4.55,11.224,5.8851,6.5486,-13.826,18.229,-18.568,42.588,-11.31,9.4844,-15.598,0.17865,-10.66,15.402
-11.116,25.693,-4.55,11.224,5.8851,6.5486,-13.826,18.229,-18.568,42.588,-11.31,9.4844,-15.598,0.17865,-10.66,15.402
-11.172,25.57,-4.6041,11.225,5.9135,6.527,-13.852,18.189,-18.459,42.541,-11.288,9.4664,-15.559,0.17971,-10.635,15.378
-11.227,25.447,-4.6585,11.225,5.9412,6.5056,-13.879,18.151,-18.35,42.495,-11.266,9.4482,-15.521,0.18103,-10.61,15.355
-11.227,25.447,-4.6585,11.225,5.9412,6.5056,-13.879,18.151,-18.35,42.495,-11.266,9.4482,-15.521,0.18103,-10.61,15.355
-11.283,25.325,-4.7133,11.226,5.968,6.4845,-13.907,18.112,-18.241,42.447,-11.245,9.4297,-15.484,0.18262,-10.586,15.331
-11.283,25.325,-4.7133,11.226,5.968,6.4845,-13.907,18.112,-18.241,42.447,-11.245,9.4297,-15.484,0.18262,-10.586,15.331
-11.338,25.202,-4.7683,11.226,5.9941,6.4638,-13.935,18.074,-18.131,42.4,-11.223,9.4109,-15.447,0.18447,-10.561,15.307
-11.338,25.202,-4.7683,11.226,5.9941,6.4638,-13.935,18.074,-18.131,42.4,-11.223,9.4109,-15.447,0.18447,-10.561,15.307
-11.394,25.079,-4.8237,11.226,6.0194,6.4433,-13.964,18.035,-18.021,42.351,-11.202,9.3919,-15.41,0.18657,-10.537,15.283
-11.45,24.956,-4.8794,11.226,6.0439,6.4232,-13.993,17.997,-17.911,42.303,-11.181,9.3726,-15.373,0.18894,-10.512,15.259
-11.45,24.956,-4.8794,11.226,6.0439,6.4232,-13.993,17.997,-17.911,42.303,-11.181,9.3726,-15.373,0.18894,-10.512,15.259
-11.45,24.956,-4.8794,11.226,6.0439,6.4232,-13.993,17.997,-17.911,42.303,-11.181,9.3726,-15.373,0.18894,-10.512,15.259
-11.506,24.833,-4.9354,11.227,6.0677,6.4033,-14.022,17.96,-17.801,42.253,-11.16,9.353,-15.337,0.19157,-10.488,15.235
-11.506,24.833,-4.9354,11.227,6.0677,6.4033,-14.022,17.96,-17.801,42.253,-11.16,9.353,-15.337,0.19157,-10.488,15.235
-11.506,24.833,-4.9354,11.227,6.0677,6.4033,-14.022,17.96,-17.801,42.253,-11.16,9.353,-15.337,0.19157,-10.488,15.235
-11.506,24.833,-4.9354,11.227,6.0677,6.4033,-14.022,17.96,-17.801,42.253,-11.16,9.353,-15.337,0.19157,-10.488,15.235
-11.619,24.586,-5.0483,11.226,6.1128,6.3647,-14.083,17.885,-17.581,42.153,-11.119,9.3132,-15.266,0.19758,-10.44,15.187
-11.619,24.586,-5.0483,11.226,6.1128,6.3647,-14.083,17.885,-17.581,42.153,-11.119,9.3132,-15.266,0.19758,-10.44,15.187
-11.675,24.463,-5.1052,11.226,6.1342,6.3458,-14.115,17.848,-17.47,42.103,-11.099,9.2928,-15.231,0.20096,-10.417,15.163
-11.675,24.463,-5.1052,11.226,6.1342,6.3458,-14.115,17.848,-17.47,42.103,-11.099,9.2928,-15.231,0.20096,-10.417,15.163
-11.731,24.34,-5.1624,11.226,6.1548,6.3272,-14.146,17.812,-17.359,42.052,-11.078,9.2723,-15.196,0.20459,-10.393,15.139
-11.731,24.34,-5.1624,11.226,6.1548,6.3272,-14.146,17.812,-17.359,42.052,-11.078,9.2723,-15.196,0.20459,-10.393,15.139
-11.788,24.216,-5.2199,11.225,6.1746,6.309,-14.179,17.775,-17.249,42,-11.059,9.2514,-15.162,0.20848,-10.37,15.114
-11.788,24.216,-5.2199,11.225,6.1746,6.309,-14.179,17.775,-17.249,42,-11.059,9.2514,-15.162,0.20848,-10.37,15.114
-11.844,24.093,-5.2778,11.224,6.1936,6.2911,-14.211,17.739,-17.138,41.948,-11.039,9.2303,-15.128,0.21261,-10.347,15.09
-11.844,24.093,-5.2778,11.224,6.1936,6.2911,-14.211,17.739,-17.138,41.948,-11.039,9.2303,-15.128,0.21261,-10.347,15.09
-11.844,24.093,-5.2778,11.224,6.1936,6.2911,-14.211,17.739,-17.138,41.948,-11.039,9.2303,-15.128,0.21261,-10.347,15.09
-11.901,23.969,-5.3359,11.224,6.2119,6.2735,-14.245,17.703,-17.027,41.895,-11.019,9.209,-15.094,0.21698,-10.324,15.066
-11.901,23.969,-5.3359,11.224,6.2119,6.2735,-14.245,17.703,-17.027,41.895,-11.019,9.209,-15.094,0.21698,-10.324,15.066
-11.901,23.969,-5.3359,11.224,6.2119,6.2735,-14.245,17.703,-17.027,41.895,-11.019,9.209,-15.094,0.21698,-10.324,15.066
-12.014,23.722,-5.453,11.222,6.246,6.2393,-14.313,17.632,-16.804,41.789,-10.981,9.1655,-15.028,0.22646,-10.278,15.017
-12.014,23.722,-5.453,11.222,6.246,6.2393,-14.313,17.632,-16.804,41.789,-10.981,9.1655,-15.028,0.22646,-10.278,15.017
-12.014,23.722,-5.453,11.222,6.246,6.2393,-14.313,17.632,-16.804,41.789,-10.981,9.1655,-15.028,0.22646,-10.278,15.017
-12.071,23.599,-5.5119,11.221,6.2619,6.2227,-14.348,17.597,-16.693,41.735,-10.962,9.1434,-14.995,0.23155,-10.255,14.992
-12.128,23.475,-5.5712,11.22,6.277,6.2064,-14.383,17.563,-16.581,41.68,-10.943,9.1211,-14.963,0.23689,-10.233,14.967
-12.128,23.475,-5.5712,11.22,6.277,6.2064,-14.383,17.563,-16.581,41.68,-10.943,9.1211,-14.963,0.23689,-10.233,14.967
-12.185,23.351,-5.6307,11.219,6.2913,6.1905,-14.419,17.528,-16.47,41.625,-10.924,9.0985,-14.931,0.24246,-10.211,14.943
-12.185,23.351,-5.6307,11.219,6.2913,6.1905,-14.419,17.528,-16.47,41.625,-10.924,9.0985,-14.931,0.24246,-10.211,14.943
-12.242,23.228,-5.6906,11.218,6.3048,6.1749,-14.455,17.494,-16.358,41.57,-10.906,9.0757,-14.9,0.24826,-10.189,14.918
-12.242,23.228,-5.6906,11.218,6.3048,6.1749,-14.455,17.494,-16.358,41.57,-10.906,9.0757,-14.9,0.24826,-10.189,14.918
-12.299,23.105,-5.7507,11.216,6.3176,6.1596,-14.492,17.46,-16.246,41.514,-10.888,9.0526,-14.869,0.2543,-10.167,14.893
-12.299,23.105,-5.7507,11.216,6.3176,6.1596,-14.492,17.46,-16.246,41.514,-10.888,9.0526,-14.869,0.2543,-10.167,14.893
-12.356,22.981,-5.8111,11.215,6.3296,6.1446,-14.529,17.426,-16.134,41.458,-10.87,9.0293,-14.838,0.26056,-10.145,14.868
-12.413,22.858,-5.8717,11.214,6.3407,6.13,-14.567,17.393,-16.022,41.401,-10.852,9.0057,-14.807,0.26705,-10.123,14.843
-12.413,22.858,-5.8717,11.214,6.3407,6.13,-14.567,17.393,-16.022,41.401,-10.852,9.0057,-14.807,0.26705,-10.123,14.843
-12.413,22.858,-5.8717,11.214,6.3407,6.13,-14.567,17.393,-16.022,41.401,-10.852,9.0057,-14.807,0.26705,-10.123,14.843
-12.47,22.734,-5.9327,11.212,6.3511,6.1157,-14.605,17.36,-15.91,41.344,-10.834,8.9819,-14.777,0.27377,-10.101,14.818
-12.47,22.734,-5.9327,11.212,6.3511,6.1157,-14.605,17.36,-15.91,41.344,-10.834,8.9819,-14.777,0.27377,-10.101,14.818
-12.527,22.611,-5.9939,11.211,6.3607,6.1018,-14.644,17.327,-15.797,41.286,-10.817,8.9579,-14.748,0.28071,-10.08,14.793
-12.527,22.611,-5.9939,11.211,6.3607,6.1018,-14.644,17.327,-15.797,41.286,-10.817,8.9579,-14.748,0.28071,-10.08,14.793
-12.527,22.611,-5.9939,11.211,6.3607,6.1018,-14.644,17.327,-15.797,41.286,-10.817,8.9579,-14.748,0.28071,-10.08,14.793
-12.584,22.488,-6.0554,11.209,6.3696,6.0882,-14.683,17.295,-15.685,41.228,-10.8,8.9336,-14.718,0.28787,-10.059,14.768
-12.584,22.488,-6.0554,11.209,6.3696,6.0882,-14.683,17.295,-15.685,41.228,-10.8,8.9336,-14.718,0.28787,-10.059,14.768
-12.584,22.488,-6.0554,11.209,6.3696,6.0882,-14.683,17.295,-15.685,41.228,-10.8,8.9336,-14.718,0.28787,-10.059,14.768
-12.641,22.365,-6.1171,11.207,6.3776,6.0749,-14.722,17.263,-15.572,41.17,-10.783,8.9091,-14.689,0.29525,-10.037,14.743
-12.641,22.365,-6.1171,11.207,6.3776,6.0749,-14.722,17.263,-15.572,41.17,-10.783,8.9091,-14.689,0.29525,-10.037,14.743
-12.641,22.365,-6.1171,11.207,6.3776,6.0749,-14.722,17.263,-15.572,41.17,-10.783,8.9091,-14.689,0.29525,-10.037,14.743
-12.756,22.119,-6.2414,11.204,6.3914,6.0493,-14.803,17.2,-15.347,41.051,-10.749,8.8593,-14.632,0.31066,-9.9956,14.693
-12.756,22.119,-6.2414,11.204,6.3914,6.0493,-14.803,17.2,-15.347,41.051,-10.749,8.8593,-14.632,0.31066,-9.9956,14.693
-12.756,22.119,-6.2414,11.204,6.3914,6.0493,-14.803,17.2,-15.347,41.051,-10.749,8.8593,-14.632,0.31066,-9.9956,14.693
-12.87,21.873,-6.3667,11.2,6.402,6.0251,-14.885,17.138,-15.121,40.931,-10.716,8.8086,-14.576,0.32692,-9.9543,14.642
-12.87,21.873,-6.3667,11.2,6.402,6.0251,-14.885,17.138,-15.121,40.931,-10.716,8.8086,-14.576,0.32692,-9.9543,14.642
-12.87,21.873,-6.3667,11.2,6.402,6.0251,-14.885,17.138,-15.121,40.931,-10.716,8.8086,-14.576,0.32692,-9.9543,14.642
-12.928,21.751,-6.4297,11.198,6.4061,6.0136,-14.927,17.107,-15.008,40.871,-10.7,8.7829,-14.549,0.33536,-9.9338,14.617
-12.928,21.751,-6.4297,11.198,6.4061,6.0136,-14.927,17.107,-15.008,40.871,-10.7,8.7829,-14.549,0.33536,-9.9338,14.617
-12.928,21.751,-6.4297,11.198,6.4061,6.0136,-14.927,17.107,-15.008,40.871,-10.7,8.7829,-14.549,0.33536,-9.9338,14.617
-13.042,21.506,-6.5565,11.194,6.4121,5.9914,-15.012,17.047,-14.782,40.748,-10.669,8.7309,-14.495,0.35285,-9.8933,14.566
-13.042,21.506,-6.5565,11.194,6.4121,5.9914,-15.012,17.047,-14.782,40.748,-10.669,8.7309,-14.495,0.35285,-9.8933,14.566
-13.099,21.384,-6.6203,11.192,6.4139,5.9809,-15.055,17.018,-14.668,40.687,-10.653,8.7045,-14.469,0.3619,-9.8733,14.541
-13.099,21.384,-6.6203,11.192,6.4139,5.9809,-15.055,17.018,-14.668,40.687,-10.653,8.7045,-14.469,0.3619,-9.8733,14.541
-13.099,21.384,-6.6203,11.192,6.4139,5.9809,-15.055,17.018,-14.668,40.687,-10.653,8.7045,-14.469,0.3619,-9.8733,14.541
-13.157,21.262,-6.6843,11.19,6.415,5.9706,-15.099,16.988,-14.555,40.624,-10.638,8.6779,-14.443,0.37115,-9.8534,14.516
-13.157,21.262,-6.6843,11.19,6.415,5.9706,-15.099,16.988,-14.555,40.624,-10.638,8.6779,-14.443,0.37115,-9.8534,14.516
-13.157,21.262,-6.6843,11.19,6.415,5.9706,-15.099,16.988,-14.555,40.624,-10.638,8.6779,-14.443,0.37115,-9.8534,14.516
-13.271,21.018,-6.8131,11.185,6.4147,5.9513,-15.187,16.931,-14.328,40.499,-10.608,8.6241,-14.392,0.39023,-9.814,14.465
-13.271,21.018,-6.8131,11.185,6.4147,5.9513,-15.187,16.931,-14.328,40.499,-10.608,8.6241,-14.392,0.39023,-9.814,14.465
-13.328,20.896,-6.8778,11.183,6.4135,5.9421,-15.231,16.903,-14.214,40.435,-10.593,8.5968,-14.367,0.40006,-9.7944,14.439
-13.328,20.896,-6.8778,11.183,6.4135,5.9421,-15.231,16.903,-14.214,40.435,-10.593,8.5968,-14.367,0.40006,-9.7944,14.439
-13.385,20.775,-6.9428,11.181,6.4114,5.9332,-15.277,16.875,-14.1,40.371,-10.578,8.5693,-14.342,0.41007,-9.7751,14.414
-13.385,20.775,-6.9428,11.181,6.4114,5.9332,-15.277,16.875,-14.1,40.371,-10.578,8.5693,-14.342,0.41007,-9.7751,14.414
-13.385,20.775,-6.9428,11.181,6.4114,5.9332,-15.277,16.875,-14.1,40.371,-10.578,8.5693,-14.342,0.41007,-9.7751,14.414
-13.442,20.654,-7.0079,11.178,6.4086,5.9247,-15.322,16.847,-13.986,40.307,-10.564,8.5416,-14.318,0.42027,-9.7558,14.388
-13.442,20.654,-7.0079,11.178,6.4086,5.9247,-15.322,16.847,-13.986,40.307,-10.564,8.5416,-14.318,0.42027,-9.7558,14.388
-13.442,20.654,-7.0079,11.178,6.4086,5.9247,-15.322,16.847,-13.986,40.307,-10.564,8.5416,-14.318,0.42027,-9.7558,14.388
-13.557,20.412,-7.139,11.174,6.4007,5.9088,-15.414,16.793,-13.759,40.177,-10.535,8.4856,-14.27,0.44122,-9.7177,14.337
-13.557,20.412,-7.139,11.174,6.4007,5.9088,-15.414,16.793,-13.759,40.177,-10.535,8.4856,-14.27,0.44122,-9.7177,14.337
-13.614,20.291,-7.2049,11.172,6.3956,5.9014,-15.461,16.767,-13.645,40.112,-10.522,8.4572,-14.247,0.45196,-9.6988,14.311
-13.614,20.291,-7.2049,11.172,6.3956,5.9014,-15.461,16.767,-13.645,40.112,-10.522,8.4572,-14.247,0.45196,-9.6988,14.311
-13.671,20.171,-7.2709,11.169,6.3898,5.8943,-15.508,16.741,-13.53,40.046,-10.508,8.4286,-14.224,0.46287,-9.68,14.286
-13.671,20.171,-7.2709,11.169,6.3898,5.8943,-15.508,16.741,-13.53,40.046,-10.508,8.4286,-14.224,0.46287,-9.68,14.286
-13.671,20.171,-7.2709,11.169,6.3898,5.8943,-15.508,16.741,-13.53,40.046,-10.508,8.4286,-14.224,0.46287,-9.68,14.286
-13.727,20.051,-7.3372,11.167,6.3832,5.8875,-15.555,16.715,-13.416,39.98,-10.494,8.3999,-14.201,0.47396,-9.6614,14.26
-13.727,20.051,-7.3372,11.167,6.3832,5.8875,-15.555,16.715,-13.416,39.98,-10.494,8.3999,-14.201,0.47396,-9.6614,14.26
-13.841,19.811,-7.4705,11.162,6.3677,5.875,-15.651,16.665,-13.188,39.847,-10.468,8.3417,-14.157,0.49663,-9.6245,14.208
-13.841,19.811,-7.4705,11.162,6.3677,5.875,-15.651,16.665,-13.188,39.847,-10.468,8.3417,-14.157,0.49663,-9.6245,14.208
-13.898,19.692,-7.5374,11.16,6.3588,5.8693,-15.7,16.64,-13.073,39.779,-10.455,8.3123,-14.135,0.50822,-9.6063,14.183
-13.898,19.692,-7.5374,11.16,6.3588,5.8693,-15.7,16.64,-13.073,39.779,-10.455,8.3123,-14.135,0.50822,-9.6063,14.183
-13.955,19.572,-7.6045,11.157,6.3491,5.864,-15.748,16.616,-12.959,39.712,-10.442,8.2827,-14.114,0.51996,-9.5881,14.157
-13.955,19.572,-7.6045,11.157,6.3491,5.864,-15.748,16.616,-12.959,39.712,-10.442,8.2827,-14.114,0.51996,-9.5881,14.157
-13.955,19.572,-7.6045,11.157,6.3491,5.864,-15.748,16.616,-12.959,39.712,-10.442,8.2827,-14.114,0.51996,-9.5881,14.157
-14.011,19.454,-7.6718,11.155,6.3388,5.859,-15.798,16.592,-12.844,39.644,-10.429,8.2529,-14.092,0.53186,-9.5701,14.131
-14.011,19.454,-7.6718,11.155,6.3388,5.859,-15.798,16.592,-12.844,39.644,-10.429,8.2529,-14.092,0.53186,-9.5701,14.131
-14.068,19.335,-7.7394,11.153,6.3276,5.8543,-15.847,16.568,-12.73,39.575,-10.417,8.2229,-14.072,0.54392,-9.5522,14.105
-14.068,19.335,-7.7394,11.153,6.3276,5.8543,-15.847,16.568,-12.73,39.575,-10.417,8.2229,-14.072,0.54392,-9.5522,14.105
-14.124,19.216,-7.8071,11.151,6.3158,5.85,-15.897,16.545,-12.615,39.507,-10.404,8.1926,-14.051,0.55613,-9.5344,14.08
-14.124,19.216,-7.8071,11.151,6.3158,5.85,-15.897,16.545,-12.615,39.507,-10.404,8.1926,-14.051,0.55613,-9.5344,14.08
-14.181,19.098,-7.875,11.148,6.3032,5.846,-15.947,16.523,-12.5,39.437,-10.392,8.1622,-14.031,0.56848,-9.5167,14.054
-14.181,19.098,-7.875,11.148,6.3032,5.846,-15.947,16.523,-12.5,39.437,-10.392,8.1622,-14.031,0.56848,-9.5167,14.054
-14.237,18.981,-7.9431,11.146,6.2898,5.8424,-15.998,16.5,-12.386,39.368,-10.38,8.1316,-14.011,0.58099,-9.4991,14.028
-14.237,18.981,-7.9431,11.146,6.2898,5.8424,-15.998,16.5,-12.386,39.368,-10.38,8.1316,-14.011,0.58099,-9.4991,14.028
-14.293,18.863,-8.0114,11.144,6.2757,5.8391,-16.048,16.478,-12.271,39.298,-10.368,8.1008,-13.991,0.59363,-9.4817,14.002
-14.293,18.863,-8.0114,11.144,6.2757,5.8391,-16.048,16.478,-12.271,39.298,-10.368,8.1008,-13.991,0.59363,-9.4817,14.002
-14.35,18.746,-8.0799,11.141,6.2609,5.8362,-16.099,16.457,-12.156,39.228,-10.357,8.0698,-13.972,0.60641,-9.4644,13.976
-14.35,18.746,-8.0799,11.141,6.2609,5.8362,-16.099,16.457,-12.156,39.228,-10.357,8.0698,-13.972,0.60641,-9.4644,13.976
-14.406,18.629,-8.1485,11.139,6.2454,5.8337,-16.151,16.435,-12.041,39.158,-10.345,8.0386,-13.953,0.61933,-9.4471,13.95
-14.406,18.629,-8.1485,11.139,6.2454,5.8337,-16.151,16.435,-12.041,39.158,-10.345,8.0386,-13.953,0.61933,-9.4471,13.95
-14.462,18.512,-8.2173,11.137,6.2291,5.8314,-16.203,16.414,-11.926,39.087,-10.334,8.0072,-13.934,0.63239,-9.43,13.924
-14.462,18.512,-8.2173,11.137,6.2291,5.8314,-16.203,16.414,-11.926,39.087,-10.334,8.0072,-13.934,0.63239,-9.43,13.924
-14.462,18.512,-8.2173,11.137,6.2291,5.8314,-16.203,16.414,-11.926,39.087,-10.334,8.0072,-13.934,0.63239,-9.43,13.924
-14.573,18.28,-8.3555,11.133,6.1944,5.8281,-16.307,16.374,-11.696,38.944,-10.312,7.9438,-13.898,0.65888,-9.3961,13.873
-14.573,18.28,-8.3555,11.133,6.1944,5.8281,-16.307,16.374,-11.696,38.944,-10.312,7.9438,-13.898,0.65888,-9.3961,13.873
-14.573,18.28,-8.3555,11.133,6.1944,5.8281,-16.307,16.374,-11.696,38.944,-10.312,7.9438,-13.898,0.65888,-9.3961,13.873
-14.629,18.164,-8.4248,11.131,6.176,5.8269,-16.36,16.354,-11.581,38.872,-10.301,7.9118,-13.88,0.67231,-9.3793,13.847
-14.629,18.164,-8.4248,11.131,6.176,5.8269,-16.36,16.354,-11.581,38.872,-10.301,7.9118,-13.88,0.67231,-9.3793,13.847
-14.685,18.049,-8.4944,11.129,6.1568,5.8261,-16.413,16.335,-11.466,38.8,-10.29,7.8796,-13.862,0.68586,-9.3626,13.821
-14.685,18.049,-8.4944,11.129,6.1568,5.8261,-16.413,16.335,-11.466,38.8,-10.29,7.8796,-13.862,0.68586,-9.3626,13.821
-14.74,17.934,-8.564,11.127,6.1369,5.8256,-16.466,16.316,-11.351,38.728,-10.28,7.8473,-13.845,0.69953,-9.346,13.795
-14.74,17.934,-8.564,11.127,6.1369,5.8256,-16.466,16.316,-11.351,38.728,-10.28,7.8473,-13.845,0.69953,-9.346,13.795
-14.795,17.82,-8.6338,11.125,6.1164,5.8255,-16.519,16.297,-11.236,38.655,-10.27,7.8147,-13.828,0.71331,-9.3295,13.769
-14.795,17.82,-8.6338,11.125,6.1164,5.8255,-16.519,16.297,-11.236,38.655,-10.27,7.8147,-13.828,0.71331,-9.3295,13.769
-14.851,17.705,-8.7038,11.123,6.0951,5.8257,-16.573,16.279,-11.121,38.582,-10.259,7.782,-13.811,0.7272,-9.3131,13.743
-14.851,17.705,-8.7038,11.123,6.0951,5.8257,-16.573,16.279,-11.121,38.582,-10.259,7.782,-13.811,0.7272,-9.3131,13.743
-14.851,17.705,-8.7038,11.123,6.0951,5.8257,-16.573,16.279,-11.121,38.582,-10.259,7.782,-13.811,0.7272,-9.3131,13.743
-14.906,17.591,-8.7739,11.121,6.0731,5.8263,-16.627,16.262,-11.006,38.508,-10.249,7.7491,-13.795,0.7412,-9.2968,13.717
-14.961,17.478,-8.8442,11.119,6.0504,5.8272,-16.681,16.244,-10.89,38.435,-10.239,7.716,-13.779,0.7553,-9.2805,13.691
-14.961,17.478,-8.8442,11.119,6.0504,5.8272,-16.681,16.244,-10.89,38.435,-10.239,7.716,-13.779,0.7553,-9.2805,13.691
-15.015,17.365,-8.9146,11.117,6.027,5.8285,-16.736,16.228,-10.775,38.36,-10.23,7.6827,-13.763,0.7695,-9.2644,13.665
-15.015,17.365,-8.9146,11.117,6.027,5.8285,-16.736,16.228,-10.775,38.36,-10.23,7.6827,-13.763,0.7695,-9.2644,13.665
-15.07,17.252,-8.9852,11.116,6.0029,5.8301,-16.791,16.211,-10.66,38.286,-10.22,7.6493,-13.747,0.78379,-9.2484,13.639
-15.07,17.252,-8.9852,11.116,6.0029,5.8301,-16.791,16.211,-10.66,38.286,-10.22,7.6493,-13.747,0.78379,-9.2484,13.639
-15.07,17.252,-8.9852,11.116,6.0029,5.8301,-16.791,16.211,-10.66,38.286,-10.22,7.6493,-13.747,0.78379,-9.2484,13.639
-15.125,17.14,-9.0559,11.114,5.9781,5.8321,-16.846,16.195,-10.545,38.211,-10.211,7.6156,-13.732,0.79818,-9.2325,13.613
-15.125,17.14,-9.0559,11.114,5.9781,5.8321,-16.846,16.195,-10.545,38.211,-10.211,7.6156,-13.732,0.79818,-9.2325,13.613
-15.125,17.14,-9.0559,11.114,5.9781,5.8321,-16.846,16.195,-10.545,38.211,-10.211,7.6156,-13.732,0.79818,-9.2325,13.613
-15.125,17.14,-9.0559,11.114,5.9781,5.8321,-16.846,16.195,-10.545,38.211,-10.211,7.6156,-13.732,0.79818,-9.2325,13.613
-15.233,16.916,-9.1977,11.111,5.9266,5.837,-16.957,16.164,-10.314,38.061,-10.192,7.5478,-13.702,0.82721,-9.2009,13.561
-15.233,16.916,-9.1977,11.111,5.9266,5.837,-16.957,16.164,-10.314,38.061,-10.192,7.5478,-13.702,0.82721,-9.2009,13.561
-15.341,16.695,-9.34,11.108,5.8722,5.8434,-17.068,16.135,-10.084,37.909,-10.174,7.4793,-13.673,0.85657,-9.1697,13.509
-15.341,16.695,-9.34,11.108,5.8722,5.8434,-17.068,16.135,-10.084,37.909,-10.174,7.4793,-13.673,0.85657,-9.1697,13.509
-15.341,16.695,-9.34,11.108,5.8722,5.8434,-17.068,16.135,-10.084,37.909,-10.174,7.4793,-13.673,0.85657,-9.1697,13.509
-15.341,16.695,-9.34,11.108,5.8722,5.8434,-17.068,16.135,-10.084,37.909,-10.174,7.4793,-13.673,0.85657,-9.1697,13.509
-15.395,16.584,-9.4114,11.107,5.8441,5.8471,-17.125,16.121,-9.9682,37.833,-10.166,7.4448,-13.659,0.87136,-9.1542,13.483
-15.395,16.584,-9.4114,11.107,5.8441,5.8471,-17.125,16.121,-9.9682,37.833,-10.166,7.4448,-13.659,0.87136,-9.1542,13.483
-15.449,16.475,-9.4828,11.106,5.8152,5.8511,-17.181,16.107,-9.8528,37.757,-10.157,7.4101,-13.646,0.88622,-9.1388,13.457
-15.449,16.475,-9.4828,11.106,5.8152,5.8511,-17.181,16.107,-9.8528,37.757,-10.157,7.4101,-13.646,0.88622,-9.1388,13.457
-15.502,16.365,-9.5544,11.105,5.7857,5.8555,-17.238,16.094,-9.7375,37.68,-10.149,7.3752,-13.632,0.90115,-9.1235,13.431
-15.502,16.365,-9.5544,11.105,5.7857,5.8555,-17.238,16.094,-9.7375,37.68,-10.149,7.3752,-13.632,0.90115,-9.1235,13.431
-15.502,16.365,-9.5544,11.105,5.7857,5.8555,-17.238,16.094,-9.7375,37.68,-10.149,7.3752,-13.632,0.90115,-9.1235,13.431
-15.609,16.148,-9.6979,11.103,5.7248,5.8653,-17.352,16.069,-9.5067,37.525,-10.132,7.305,-13.606,0.93118,-9.0931,13.379
-15.609,16.148,-9.6979,11.103,5.7248,5.8653,-17.352,16.069,-9.5067,37.525,-10.132,7.305,-13.606,0.93118,-9.0931,13.379
-15.609,16.148,-9.6979,11.103,5.7248,5.8653,-17.352,16.069,-9.5067,37.525,-10.132,7.305,-13.606,0.93118,-9.0931,13.379
-15.662,16.04,-9.7698,11.102,5.6933,5.8707,-17.409,16.057,-9.3914,37.448,-10.124,7.2696,-13.593,0.94628,-9.078,13.353
-15.662,16.04,-9.7698,11.102,5.6933,5.8707,-17.409,16.057,-9.3914,37.448,-10.124,7.2696,-13.593,0.94628,-9.078,13.353
-15.715,15.932,-9.8418,11.101,5.6612,5.8765,-17.466,16.046,-9.276,37.37,-10.116,7.2341,-13.581,0.96143,-9.063,13.327
-15.767,15.825,-9.9139,11.1,5.6285,5.8826,-17.524,16.035,-9.1607,37.292,-10.108,7.1984,-13.569,0.97663,-9.048,13.301
-15.767,15.825,-9.9139,11.1,5.6285,5.8826,-17.524,16.035,-9.1607,37.292,-10.108,7.1984,-13.569,0.97663,-9.048,13.301
-15.82,15.718,-9.9861,11.1,5.5951,5.889,-17.582,16.024,-9.0453,37.213,-10.101,7.1625,-13.557,0.99187,-9.0332,13.275
-15.82,15.718,-9.9861,11.1,5.5951,5.889,-17.582,16.024,-9.0453,37.213,-10.101,7.1625,-13.557,0.99187,-9.0332,13.275
-15.82,15.718,-9.9861,11.1,5.5951,5.889,-17.582,16.024,-9.0453,37.213,-10.101,7.1625,-13.557,0.99187,-9.0332,13.275
-15.872,15.612,-10.058,11.099,5.561,5.8958,-17.64,16.014,-8.93,37.134,-10.093,7.1265,-13.545,1.0071,-9.0184,13.249
-15.872,15.612,-10.058,11.099,5.561,5.8958,-17.64,16.014,-8.93,37.134,-10.093,7.1265,-13.545,1.0071,-9.0184,13.249
-15.872,15.612,-10.058,11.099,5.561,5.8958,-17.64,16.014,-8.93,37.134,-10.093,7.1265,-13.545,1.0071,-9.0184,13.249
-15.976,15.401,-10.203,11.099,5.4911,5.9104,-17.756,15.994,-8.6993,36.976,-10.078,7.0539,-13.522,1.0378,-8.989,13.197
-15.976,15.401,-10.203,11.099,5.4911,5.9104,-17.756,15.994,-8.6993,36.976,-10.078,7.0539,-13.522,1.0378,-8.989,13.197
-15.976,15.401,-10.203,11.099,5.4911,5.9104,-17.756,15.994,-8.6993,36.976,-10.078,7.0539,-13.522,1.0378,-8.989,13.197
-16.028,15.296,-10.276,11.099,5.4552,5.9182,-17.815,15.986,-8.584,36.896,-10.071,7.0174,-13.511,1.0532,-8.9744,13.171
-16.079,15.192,-10.348,11.098,5.4187,5.9263,-17.873,15.977,-8.4688,36.817,-10.064,6.9808,-13.5,1.0685,-8.9599,13.145
-16.079,15.192,-10.348,11.098,5.4187,5.9263,-17.873,15.977,-8.4688,36.817,-10.064,6.9808,-13.5,1.0685,-8.9599,13.145
-16.13,15.088,-10.421,11.098,5.3816,5.9348,-17.932,15.969,-8.3535,36.736,-10.057,6.9439,-13.49,1.0839,-8.9454,13.119
-16.13,15.088,-10.421,11.098,5.3816,5.9348,-17.932,15.969,-8.3535,36.736,-10.057,6.9439,-13.49,1.0839,-8.9454,13.119
-16.13,15.088,-10.421,11.098,5.3816,5.9348,-17.932,15.969,-8.3535,36.736,-10.057,6.9439,-13.49,1.0839,-8.9454,13.119
-16.182,14.985,-10.494,11.099,5.3438,5.9436,-17.991,15.961,-8.2382,36.656,-10.05,6.9069,-13.48,1.0994,-8.931,13.093
-16.182,14.985,-10.494,11.099,5.3438,5.9436,-17.991,15.961,-8.2382,36.656,-10.05,6.9069,-13.48,1.0994,-8.931,13.093
-16.182,14.985,-10.494,11.099,5.3438,5.9436,-17.991,15.961,-8.2382,36.656,-10.05,6.9069,-13.48,1.0994,-8.931,13.093
-16.283,14.78,-10.639,11.099,5.2666,5.9623,-18.109,15.947,-8.0078,36.495,-10.037,6.8325,-13.46,1.1302,-8.9024,13.041
-16.283,14.78,-10.639,11.099,5.2666,5.9623,-18.109,15.947,-8.0078,36.495,-10.037,6.8325,-13.46,1.1302,-8.9024,13.041
-16.333,14.678,-10.712,11.1,5.227,5.9721,-18.169,15.941,-7.8926,36.413,-10.031,6.795,-13.45,1.1456,-8.8882,13.015
-16.333,14.678,-10.712,11.1,5.227,5.9721,-18.169,15.941,-7.8926,36.413,-10.031,6.795,-13.45,1.1456,-8.8882,13.015
-16.384,14.577,-10.785,11.1,5.1869,5.9822,-18.228,15.935,-7.7775,36.332,-10.024,6.7574,-13.441,1.161,-8.874,12.989
-16.384,14.577,-10.785,11.1,5.1869,5.9822,-18.228,15.935,-7.7775,36.332,-10.024,6.7574,-13.441,1.161,-8.874,12.989
-16.434,14.476,-10.858,11.101,5.1462,5.9927,-18.288,15.929,-7.6623,36.25,-10.018,6.7196,-13.431,1.1764,-8.8599,12.963
-16.483,14.376,-10.932,11.102,5.105,6.0036,-18.347,15.924,-7.5473,36.168,-10.012,6.6817,-13.422,1.1918,-8.8458,12.937
-16.483,14.376,-10.932,11.102,5.105,6.0036,-18.347,15.924,-7.5473,36.168,-10.012,6.6817,-13.422,1.1918,-8.8458,12.937
-16.483,14.376,-10.932,11.102,5.105,6.0036,-18.347,15.924,-7.5473,36.168,-10.012,6.6817,-13.422,1.1918,-8.8458,12.937
-16.533,14.276,-11.005,11.103,5.0631,6.0147,-18.407,15.92,-7.4322,36.086,-10.006,6.6436,-13.414,1.2072,-8.8318,12.911
-16.533,14.276,-11.005,11.103,5.0631,6.0147,-18.407,15.92,-7.4322,36.086,-10.006,6.6436,-13.414,1.2072,-8.8318,12.911
-16.582,14.177,-11.078,11.104,5.0207,6.0262,-18.467,15.915,-7.3172,36.004,-9.9997,6.6054,-13.405,1.2226,-8.8178,12.885
-16.582,14.177,-11.078,11.104,5.0207,6.0262,-18.467,15.915,-7.3172,36.004,-9.9997,6.6054,-13.405,1.2226,-8.8178,12.885
-16.582,14.177,-11.078,11.104,5.0207,6.0262,-18.467,15.915,-7.3172,36.004,-9.9997,6.6054,-13.405,1.2226,-8.8178,12.885
-16.631,14.079,-11.151,11.105,4.9778,6.038,-18.527,15.912,-7.2022,35.921,-9.9938,6.567,-13.397,1.2379,-8.8039,12.859
-16.631,14.079,-11.151,11.105,4.9778,6.038,-18.527,15.912,-7.2022,35.921,-9.9938,6.567,-13.397,1.2379,-8.8039,12.859
-16.68,13.981,-11.224,11.106,4.9342,6.0502,-18.588,15.908,-7.0872,35.838,-9.988,6.5285,-13.388,1.2532,-8.79,12.833
-16.68,13.981,-11.224,11.106,4.9342,6.0502,-18.588,15.908,-7.0872,35.838,-9.988,6.5285,-13.388,1.2532,-8.79,12.833
-16.68,13.981,-11.224,11.106,4.9342,6.0502,-18.588,15.908,-7.0872,35.838,-9.988,6.5285,-13.388,1.2532,-8.79,12.833
-16.777,13.787,-11.371,11.109,4.8455,6.0755,-18.708,15.903,-6.8575,35.672,-9.9767,6.451,-13.373,1.2836,-8.7624,12.78
-16.777,13.787,-11.371,11.109,4.8455,6.0755,-18.708,15.903,-6.8575,35.672,-9.9767,6.451,-13.373,1.2836,-8.7624,12.78
-16.825,13.69,-11.444,11.111,4.8004,6.0886,-18.769,15.901,-6.7427,35.588,-9.9711,6.4121,-13.365,1.2988,-8.7486,12.754
-16.825,13.69,-11.444,11.111,4.8004,6.0886,-18.769,15.901,-6.7427,35.588,-9.9711,6.4121,-13.365,1.2988,-8.7486,12.754
-16.873,13.595,-11.518,11.113,4.7547,6.1021,-18.829,15.899,-6.6279,35.504,-9.9657,6.373,-13.358,1.3139,-8.7349,12.728
-16.873,13.595,-11.518,11.113,4.7547,6.1021,-18.829,15.899,-6.6279,35.504,-9.9657,6.373,-13.358,1.3139,-8.7349,12.728
-16.92,13.5,-11.591,11.115,4.7084,6.1159,-18.89,15.898,-6.5132,35.42,-9.9603,6.3337,-13.351,1.3289,-8.7212,12.702
-16.92,13.5,-11.591,11.115,4.7084,6.1159,-18.89,15.898,-6.5132,35.42,-9.9603,6.3337,-13.351,1.3289,-8.7212,12.702
-16.967,13.405,-11.664,11.117,4.6617,6.13,-18.95,15.897,-6.3985,35.336,-9.955,6.2943,-13.344,1.3439,-8.7075,12.676
-16.967,13.405,-11.664,11.117,4.6617,6.13,-18.95,15.897,-6.3985,35.336,-9.955,6.2943,-13.344,1.3439,-8.7075,12.676
-17.014,13.311,-11.738,11.119,4.6144,6.1444,-19.011,15.897,-6.2839,35.251,-9.9498,6.2548,-13.337,1.3588,-8.6939,12.65
-17.014,13.311,-11.738,11.119,4.6144,6.1444,-19.011,15.897,-6.2839,35.251,-9.9498,6.2548,-13.337,1.3588,-8.6939,12.65
-17.061,13.218,-11.811,11.122,4.5666,6.1592,-19.072,15.897,-6.1693,35.167,-9.9447,6.2151,-13.33,1.3737,-8.6803,12.623
-17.061,13.218,-11.811,11.122,4.5666,6.1592,-19.072,15.897,-6.1693,35.167,-9.9447,6.2151,-13.33,1.3737,-8.6803,12.623
-17.108,13.125,-11.885,11.124,4.5184,6.1743,-19.133,15.897,-6.0548,35.082,-9.9397,6.1752,-13.324,1.3884,-8.6667,12.597
-17.108,13.125,-11.885,11.124,4.5184,6.1743,-19.133,15.897,-6.0548,35.082,-9.9397,6.1752,-13.324,1.3884,-8.6667,12.597
-17.154,13.033,-11.958,11.127,4.4696,6.1897,-19.193,15.898,-5.9404,34.996,-9.9347,6.1353,-13.318,1.4031,-8.6532,12.571
-17.154,13.033,-11.958,11.127,4.4696,6.1897,-19.193,15.898,-5.9404,34.996,-9.9347,6.1353,-13.318,1.4031,-8.6532,12.571
-17.154,13.033,-11.958,11.127,4.4696,6.1897,-19.193,15.898,-5.9404,34.996,-9.9347,6.1353,-13.318,1.4031,-8.6532,12.571
-17.2,12.941,-12.031,11.13,4.4203,6.2054,-19.254,15.899,-5.826,34.911,-9.9298,6.0951,-13.312,1.4177,-8.6397,12.545
-17.245,12.85,-12.105,11.133,4.3705,6.2215,-19.315,15.901,-5.7117,34.825,-9.9249,6.0549,-13.306,1.4322,-8.6262,12.519
-17.245,12.85,-12.105,11.133,4.3705,6.2215,-19.315,15.901,-5.7117,34.825,-9.9249,6.0549,-13.306,1.4322,-8.6262,12.519
-17.291,12.76,-12.178,11.136,4.3203,6.2379,-19.376,15.903,-5.5974,34.739,-9.9201,6.0145,-13.3,1.4466,-8.6127,12.492
-17.291,12.76,-12.178,11.136,4.3203,6.2379,-19.376,15.903,-5.5974,34.739,-9.9201,6.0145,-13.3,1.4466,-8.6127,12.492
-17.336,12.67,-12.252,11.139,4.2695,6.2546,-19.437,15.906,-5.4832,34.653,-9.9154,5.9739,-13.294,1.4609,-8.5992,12.466
-17.336,12.67,-12.252,11.139,4.2695,6.2546,-19.437,15.906,-5.4832,34.653,-9.9154,5.9739,-13.294,1.4609,-8.5992,12.466
-17.381,12.581,-12.325,11.143,4.2183,6.2716,-19.498,15.909,-5.3691,34.567,-9.9107,5.9333,-13.289,1.4751,-8.5857,12.44
-17.381,12.581,-12.325,11.143,4.2183,6.2716,-19.498,15.909,-5.3691,34.567,-9.9107,5.9333,-13.289,1.4751,-8.5857,12.44
-17.381,12.581,-12.325,11.143,4.2183,6.2716,-19.498,15.909,-5.3691,34.567,-9.9107,5.9333,-13.289,1.4751,-8.5857,12.44
-17.425,12.492,-12.398,11.147,4.1667,6.2889,-19.559,15.912,-5.2551,34.481,-9.9061,5.8924,-13.284,1.4892,-8.5723,12.413
-17.425,12.492,-12.398,11.147,4.1667,6.2889,-19.559,15.912,-5.2551,34.481,-9.9061,5.8924,-13.284,1.4892,-8.5723,12.413
-17.469,12.405,-12.471,11.15,4.1145,6.3065,-19.62,15.916,-5.1411,34.394,-9.9016,5.8515,-13.279,1.5032,-8.5589,12.387
-17.469,12.405,-12.471,11.15,4.1145,6.3065,-19.62,15.916,-5.1411,34.394,-9.9016,5.8515,-13.279,1.5032,-8.5589,12.387
-17.513,12.317,-12.545,11.154,4.0619,6.3245,-19.682,15.92,-5.0272,34.307,-9.8971,5.8104,-13.274,1.517,-8.5455,12.361
-17.513,12.317,-12.545,11.154,4.0619,6.3245,-19.682,15.92,-5.0272,34.307,-9.8971,5.8104,-13.274,1.517,-8.5455,12.361
-17.513,12.317,-12.545,11.154,4.0619,6.3245,-19.682,15.92,-5.0272,34.307,-9.8971,5.8104,-13.274,1.517,-8.5455,12.361
-17.557,12.231,-12.618,11.158,4.0089,6.3428,-19.743,15.925,-4.9134,34.22,-9.8926,5.7692,-13.269,1.5307,-8.5321,12.334
-17.557,12.231,-12.618,11.158,4.0089,6.3428,-19.743,15.925,-4.9134,34.22,-9.8926,5.7692,-13.269,1.5307,-8.5321,12.334
-17.6,12.145,-12.691,11.163,3.9554,6.3614,-19.804,15.93,-4.7996,34.132,-9.8882,5.7278,-13.265,1.5443,-8.5186,12.308
-17.6,12.145,-12.691,11.163,3.9554,6.3614,-19.804,15.93,-4.7996,34.132,-9.8882,5.7278,-13.265,1.5443,-8.5186,12.308
-17.643,12.059,-12.764,11.167,3.9015,6.3803,-19.865,15.936,-4.686,34.045,-9.8839,5.6863,-13.261,1.5577,-8.5052,12.281
-17.686,11.975,-12.837,11.172,3.8472,6.3995,-19.926,15.942,-4.5724,33.957,-9.8796,5.6446,-13.256,1.571,-8.4918,12.255
-17.728,11.89,-12.91,11.176,3.7925,6.419,-19.987,15.948,-4.4589,33.869,-9.8753,5.6028,-13.252,1.5842,-8.4784,12.228
-17.728,11.89,-12.91,11.176,3.7925,6.419,-19.987,15.948,-4.4589,33.869,-9.8753,5.6028,-13.252,1.5842,-8.4784,12.228
-17.77,11.807,-12.983,11.181,3.7373,6.4388,-20.048,15.955,-4.3455,33.781,-9.871,5.5609,-13.248,1.5972,-8.465,12.201
-17.77,11.807,-12.983,11.181,3.7373,6.4388,-20.048,15.955,-4.3455,33.781,-9.871,5.5609,-13.248,1.5972,-8.465,12.201
-17.77,11.807,-12.983,11.181,3.7373,6.4388,-20.048,15.955,-4.3455,33.781,-9.871,5.5609,-13.248,1.5972,-8.465,12.201
-17.812,11.724,-13.056,11.186,3.6817,6.4589,-20.109,15.962,-4.2322,33.693,-9.8668,5.5189,-13.245,1.61,-8.4516,12.175
-17.812,11.724,-13.056,11.186,3.6817,6.4589,-20.109,15.962,-4.2322,33.693,-9.8668,5.5189,-13.245,1.61,-8.4516,12.175
-17.853,11.642,-13.129,11.191,3.6257,6.4794,-20.17,15.969,-4.119,33.604,-9.8627,5.4767,-13.241,1.6226,-8.4382,12.148
-17.853,11.642,-13.129,11.191,3.6257,6.4794,-20.17,15.969,-4.119,33.604,-9.8627,5.4767,-13.241,1.6226,-8.4382,12.148
-17.894,11.561,-13.202,11.197,3.5694,6.5001,-20.231,15.977,-4.0059,33.515,-9.8585,5.4344,-13.237,1.6351,-8.4248,12.122
-17.894,11.561,-13.202,11.197,3.5694,6.5001,-20.231,15.977,-4.0059,33.515,-9.8585,5.4344,-13.237,1.6351,-8.4248,12.122
-17.894,11.561,-13.202,11.197,3.5694,6.5001,-20.231,15.977,-4.0059,33.515,-9.8585,5.4344,-13.237,1.6351,-8.4248,12.122
-17.935,11.48,-13.274,11.202,3.5126,6.5212,-20.292,15.986,-3.8929,33.426,-9.8544,5.3919,-13.234,1.6474,-8.4114,12.095
-17.935,11.48,-13.274,11.202,3.5126,6.5212,-20.292,15.986,-3.8929,33.426,-9.8544,5.3919,-13.234,1.6474,-8.4114,12.095
-17.975,11.4,-13.347,11.208,3.4554,6.5425,-20.353,15.994,-3.7799,33.337,-9.8504,5.3493,-13.231,1.6596,-8.3979,12.068
-18.015,11.32,-13.42,11.214,3.3979,6.5642,-20.414,16.004,-3.6671,33.248,-9.8463,5.3066,-13.228,1.6715,-8.3844,12.041
-18.015,11.32,-13.42,11.214,3.3979,6.5642,-20.414,16.004,-3.6671,33.248,-9.8463,5.3066,-13.228,1.6715,-8.3844,12.041
-18.055,11.241,-13.492,11.22,3.34,6.5861,-20.474,16.013,-3.5544,33.158,-9.8423,5.2637,-13.225,1.6833,-8.371,12.014
-18.055,11.241,-13.492,11.22,3.34,6.5861,-20.474,16.013,-3.5544,33.158,-9.8423,5.2637,-13.225,1.6833,-8.371,12.014
-18.095,11.163,-13.565,11.226,3.2817,6.6084,-20.535,16.023,-3.4418,33.069,-9.8382,5.2207,-13.222,1.6948,-8.3575,11.987
-18.095,11.163,-13.565,11.226,3.2817,6.6084,-20.535,16.023,-3.4418,33.069,-9.8382,5.2207,-13.222,1.6948,-8.3575,11.987
-18.095,11.163,-13.565,11.226,3.2817,6.6084,-20.535,16.023,-3.4418,33.069,-9.8382,5.2207,-13.222,1.6948,-8.3575,11.987
-18.134,11.085,-13.637,11.233,3.2231,6.6309,-20.596,16.033,-3.3293,32.979,-9.8342,5.1776,-13.22,1.7062,-8.3439,11.96
-18.134,11.085,-13.637,11.233,3.2231,6.6309,-20.596,16.033,-3.3293,32.979,-9.8342,5.1776,-13.22,1.7062,-8.3439,11.96
-18.134,11.085,-13.637,11.233,3.2231,6.6309,-20.596,16.033,-3.3293,32.979,-9.8342,5.1776,-13.22,1.7062,-8.3439,11.96
-18.211,10.932,-13.781,11.246,3.1048,6.6769,-20.717,16.055,-3.1046,32.799,-9.8262,5.0909,-13.215,1.7282,-8.3168,11.906
-18.211,10.932,-13.781,11.246,3.1048,6.6769,-20.717,16.055,-3.1046,32.799,-9.8262,5.0909,-13.215,1.7282,-8.3168,11.906
-18.211,10.932,-13.781,11.246,3.1048,6.6769,-20.717,16.055,-3.1046,32.799,-9.8262,5.0909,-13.215,1.7282,-8.3168,11.906
-18.211,10.932,-13.781,11.246,3.1048,6.6769,-20.717,16.055,-3.1046,32.799,-9.8262,5.0909,-13.215,1.7282,-8.3168,11.906
-18.286,10.782,-13.925,11.26,2.9852,6.7241,-20.838,16.079,-2.8804,32.618,-9.8183,5.0037,-13.21,1.7494,-8.2896,11.852
-18.286,10.782,-13.925,11.26,2.9852,6.7241,-20.838,16.079,-2.8804,32.618,-9.8183,5.0037,-13.21,1.7494,-8.2896,11.852
-18.324,10.708,-13.997,11.267,2.9249,6.7481,-20.898,16.091,-2.7684,32.527,-9.8143,4.9599,-13.208,1.7596,-8.2759,11.825
-18.324,10.708,-13.997,11.267,2.9249,6.7481,-20.898,16.091,-2.7684,32.527,-9.8143,4.9599,-13.208,1.7596,-8.2759,11.825
-18.361,10.635,-14.069,11.275,2.8643,6.7724,-20.959,16.103,-2.6566,32.436,-9.8104,4.916,-13.206,1.7696,-8.2622,11.797
-18.361,10.635,-14.069,11.275,2.8643,6.7724,-20.959,16.103,-2.6566,32.436,-9.8104,4.916,-13.206,1.7696,-8.2622,11.797
-18.397,10.562,-14.14,11.282,2.8033,6.797,-21.019,16.116,-2.545,32.345,-9.8064,4.8719,-13.205,1.7794,-8.2485,11.77
-18.397,10.562,-14.14,11.282,2.8033,6.797,-21.019,16.116,-2.545,32.345,-9.8064,4.8719,-13.205,1.7794,-8.2485,11.77
-18.434,10.49,-14.212,11.29,2.7421,6.8219,-21.079,16.13,-2.4334,32.253,-9.8024,4.8277,-13.203,1.7889,-8.2347,11.743
-18.434,10.49,-14.212,11.29,2.7421,6.8219,-21.079,16.13,-2.4334,32.253,-9.8024,4.8277,-13.203,1.7889,-8.2347,11.743
-18.434,10.49,-14.212,11.29,2.7421,6.8219,-21.079,16.13,-2.4334,32.253,-9.8024,4.8277,-13.203,1.7889,-8.2347,11.743
-18.469,10.419,-14.283,11.298,2.6806,6.8471,-21.139,16.144,-2.322,32.162,-9.7984,4.7834,-13.201,1.7982,-8.2209,11.715
-18.469,10.419,-14.283,11.298,2.6806,6.8471,-21.139,16.144,-2.322,32.162,-9.7984,4.7834,-13.201,1.7982,-8.2209,11.715
-18.505,10.348,-14.354,11.306,2.6188,6.8725,-21.199,16.158,-2.2107,32.07,-9.7944,4.7389,-13.2,1.8072,-8.207,11.687
-18.54,10.278,-14.425,11.314,2.5566,6.8983,-21.258,16.172,-2.0995,31.978,-9.7904,4.6943,-13.198,1.8159,-8.1931,11.66
-18.54,10.278,-14.425,11.314,2.5566,6.8983,-21.258,16.172,-2.0995,31.978,-9.7904,4.6943,-13.198,1.8159,-8.1931,11.66
-18.575,10.209,-14.496,11.323,2.4943,6.9243,-21.318,16.187,-1.9885,31.887,-9.7864,4.6496,-13.197,1.8244,-8.1792,11.632
-18.575,10.209,-14.496,11.323,2.4943,6.9243,-21.318,16.187,-1.9885,31.887,-9.7864,4.6496,-13.197,1.8244,-8.1792,11.632
-18.575,10.209,-14.496,11.323,2.4943,6.9243,-21.318,16.187,-1.9885,31.887,-9.7864,4.6496,-13.197,1.8244,-8.1792,11.632
-18.609,10.14,-14.567,11.332,2.4316,6.9506,-21.377,16.202,-1.8776,31.794,-9.7824,4.6047,-13.196,1.8326,-8.1652,11.604
-18.609,10.14,-14.567,11.332,2.4316,6.9506,-21.377,16.202,-1.8776,31.794,-9.7824,4.6047,-13.196,1.8326,-8.1652,11.604
-18.609,10.14,-14.567,11.332,2.4316,6.9506,-21.377,16.202,-1.8776,31.794,-9.7824,4.6047,-13.196,1.8326,-8.1652,11.604
-18.677,10.005,-14.708,11.349,2.3055,7.004,-21.496,16.234,-1.6562,31.61,-9.7742,4.5145,-13.194,1.8481,-8.137,11.548
-18.677,10.005,-14.708,11.349,2.3055,7.004,-21.496,16.234,-1.6562,31.61,-9.7742,4.5145,-13.194,1.8481,-8.137,11.548
-18.71,9.9385,-14.779,11.359,2.2421,7.0311,-21.555,16.25,-1.5457,31.517,-9.7701,4.4693,-13.193,1.8555,-8.1229,11.52
-18.71,9.9385,-14.779,11.359,2.2421,7.0311,-21.555,16.25,-1.5457,31.517,-9.7701,4.4693,-13.193,1.8555,-8.1229,11.52
-18.743,9.8727,-14.849,11.368,2.1785,7.0585,-21.614,16.267,-1.4354,31.424,-9.766,4.4239,-13.192,1.8625,-8.1086,11.492
-18.743,9.8727,-14.849,11.368,2.1785,7.0585,-21.614,16.267,-1.4354,31.424,-9.766,4.4239,-13.192,1.8625,-8.1086,11.492
-18.775,9.8076,-14.919,11.377,2.1146,7.0862,-21.673,16.284,-1.3252,31.331,-9.7618,4.3783,-13.192,1.8693,-8.0943,11.464
-18.775,9.8076,-14.919,11.377,2.1146,7.0862,-21.673,16.284,-1.3252,31.331,-9.7618,4.3783,-13.192,1.8693,-8.0943,11.464
-18.807,9.7433,-14.989,11.387,2.0505,7.1142,-21.732,16.301,-1.2152,31.238,-9.7576,4.3326,-13.191,1.8757,-8.08,11.436
-18.807,9.7433,-14.989,11.387,2.0505,7.1142,-21.732,16.301,-1.2152,31.238,-9.7576,4.3326,-13.191,1.8757,-8.08,11.436
-18.839,9.6796,-15.059,11.397,1.9861,7.1424,-21.79,16.319,-1.1053,31.145,-9.7534,4.2868,-13.191,1.8818,-8.0656,11.407
-18.839,9.6796,-15.059,11.397,1.9861,7.1424,-21.79,16.319,-1.1053,31.145,-9.7534,4.2868,-13.191,1.8818,-8.0656,11.407
-18.87,9.6167,-15.129,11.407,1.9216,7.1708,-21.849,16.337,-0.99564,31.052,-9.7491,4.2409,-13.19,1.8876,-8.0511,11.379
-18.87,9.6167,-15.129,11.407,1.9216,7.1708,-21.849,16.337,-0.99564,31.052,-9.7491,4.2409,-13.19,1.8876,-8.0511,11.379
-18.901,9.5545,-15.198,11.417,1.8568,7.1996,-21.907,16.355,-0.88609,30.958,-9.7448,4.1948,-13.19,1.8931,-8.0365,11.35
-18.901,9.5545,-15.198,11.417,1.8568,7.1996,-21.907,16.355,-0.88609,30.958,-9.7448,4.1948,-13.19,1.8931,-8.0365,11.35
-18.932,9.493,-15.267,11.428,1.7919,7.2286,-21.965,16.373,-0.77671,30.864,-9.7404,4.1486,-13.19,1.8982,-8.0219,11.322
-18.932,9.493,-15.267,11.428,1.7919,7.2286,-21.965,16.373,-0.77671,30.864,-9.7404,4.1486,-13.19,1.8982,-8.0219,11.322
-18.932,9.493,-15.267,11.428,1.7919,7.2286,-21.965,16.373,-0.77671,30.864,-9.7404,4.1486,-13.19,1.8982,-8.0219,11.322
-18.962,9.4322,-15.337,11.438,1.7267,7.2579,-22.023,16.392,-0.66749,30.77,-9.736,4.1022,-13.189,1.9031,-8.0072,11.293
-18.992,9.3721,-15.405,11.449,1.6614,7.2874,-22.081,16.412,-0.55843,30.676,-9.7315,4.0557,-13.189,1.9075,-7.9924,11.264
-18.992,9.3721,-15.405,11.449,1.6614,7.2874,-22.081,16.412,-0.55843,30.676,-9.7315,4.0557,-13.189,1.9075,-7.9924,11.264
-19.021,9.3127,-15.474,11.46,1.5959,7.3172,-22.138,16.431,-0.44955,30.582,-9.727,4.0091,-13.189,1.9117,-7.9776,11.235
-19.021,9.3127,-15.474,11.46,1.5959,7.3172,-22.138,16.431,-0.44955,30.582,-9.727,4.0091,-13.189,1.9117,-7.9776,11.235
-19.05,9.254,-15.543,11.471,1.5302,7.3472,-22.196,16.451,-0.34084,30.488,-9.7225,3.9623,-13.189,1.9155,-7.9626,11.206
-19.05,9.254,-15.543,11.471,1.5302,7.3472,-22.196,16.451,-0.34084,30.488,-9.7225,3.9623,-13.189,1.9155,-7.9626,11.206
-19.078,9.1961,-15.611,11.482,1.4643,7.3775,-22.253,16.472,-0.2323,30.394,-9.7178,3.9154,-13.189,1.9189,-7.9476,11.177
-19.078,9.1961,-15.611,11.482,1.4643,7.3775,-22.253,16.472,-0.2323,30.394,-9.7178,3.9154,-13.189,1.9189,-7.9476,11.177
-19.078,9.1961,-15.611,11.482,1.4643,7.3775,-22.253,16.472,-0.2323,30.394,-9.7178,3.9154,-13.189,1.9189,-7.9476,11.177
-19.107,9.1388,-15.679,11.494,1.3983,7.4081,-22.31,16.492,-0.12394,30.299,-9.7132,3.8684,-13.19,1.9219,-7.9325,11.147
-19.134,9.0823,-15.748,11.505,1.3321,7.4389,-22.367,16.513,-0.015759,30.204,-9.7084,3.8212,-13.19,1.9246,-7.9173,11.118
-19.134,9.0823,-15.748,11.505,1.3321,7.4389,-22.367,16.513,-0.015759,30.204,-9.7084,3.8212,-13.19,1.9246,-7.9173,11.118
-19.162,9.0265,-15.815,11.517,1.2658,7.4699,-22.424,16.534,0.092239,30.11,-9.7036,3.7739,-13.19,1.927,-7.902,11.088
-19.162,9.0265,-15.815,11.517,1.2658,7.4699,-22.424,16.534,0.092239,30.11,-9.7036,3.7739,-13.19,1.927,-7.902,11.088
-19.188,8.9714,-15.883,11.529,1.1994,7.5012,-22.48,16.556,0.20005,30.015,-9.6987,3.7264,-13.191,1.9289,-7.8866,11.059
-19.188,8.9714,-15.883,11.529,1.1994,7.5012,-22.48,16.556,0.20005,30.015,-9.6987,3.7264,-13.191,1.9289,-7.8866,11.059
-19.215,8.9171,-15.95,11.541,1.1328,7.5327,-22.537,16.577,0.30767,29.919,-9.6938,3.6788,-13.191,1.9305,-7.8711,11.029
-19.215,8.9171,-15.95,11.541,1.1328,7.5327,-22.537,16.577,0.30767,29.919,-9.6938,3.6788,-13.191,1.9305,-7.8711,11.029
-19.215,8.9171,-15.95,11.541,1.1328,7.5327,-22.537,16.577,0.30767,29.919,-9.6938,3.6788,-13.191,1.9305,-7.8711,11.029
-19.241,8.8634,-16.018,11.553,1.0661,7.5645,-22.593,16.599,0.41511,29.824,-9.6888,3.6311,-13.191,1.9317,-7.8555,10.999
-19.241,8.8634,-16.018,11.553,1.0661,7.5645,-22.593,16.599,0.41511,29.824,-9.6888,3.6311,-13.191,1.9317,-7.8555,10.999
-19.266,8.8105,-16.085,11.566,0.99932,7.5965,-22.648,16.622,0.52235,29.729,-9.6837,3.5832,-13.192,1.9325,-7.8398,10.969
-19.292,8.7583,-16.151,11.578,0.93241,7.6288,-22.704,16.644,0.62939,29.633,-9.6785,3.5352,-13.192,1.9329,-7.824,10.938
-19.292,8.7583,-16.151,11.578,0.93241,7.6288,-22.704,16.644,0.62939,29.633,-9.6785,3.5352,-13.192,1.9329,-7.824,10.938
-19.316,8.7068,-16.218,11.591,0.86538,7.6613,-22.76,16.667,0.73624,29.538,-9.6732,3.4871,-13.193,1.9329,-7.8081,10.908
-19.316,8.7068,-16.218,11.591,0.86538,7.6613,-22.76,16.667,0.73624,29.538,-9.6732,3.4871,-13.193,1.9329,-7.8081,10.908
-19.316,8.7068,-16.218,11.591,0.86538,7.6613,-22.76,16.667,0.73624,29.538,-9.6732,3.4871,-13.193,1.9329,-7.8081,10.908
-19.341,8.656,-16.284,11.604,0.79827,7.694,-22.815,16.69,0.84288,29.442,-9.6679,3.4388,-13.194,1.9325,-7.7921,10.878
-19.341,8.656,-16.284,11.604,0.79827,7.694,-22.815,16.69,0.84288,29.442,-9.6679,3.4388,-13.194,1.9325,-7.7921,10.878
-19.365,8.6059,-16.351,11.617,0.73106,7.727,-22.87,16.714,0.94932,29.346,-9.6625,3.3903,-13.194,1.9317,-7.776,10.847
-19.365,8.6059,-16.351,11.617,0.73106,7.727,-22.87,16.714,0.94932,29.346,-9.6625,3.3903,-13.194,1.9317,-7.776,10.847
-19.388,8.5566,-16.417,11.63,0.66378,7.7602,-22.925,16.737,1.0556,29.25,-9.657,3.3417,-13.195,1.9304,-7.7597,10.816
-19.411,8.508,-16.482,11.644,0.59642,7.7936,-22.979,16.761,1.1616,29.154,-9.6514,3.293,-13.196,1.9288,-7.7434,10.785
-19.411,8.508,-16.482,11.644,0.59642,7.7936,-22.979,16.761,1.1616,29.154,-9.6514,3.293,-13.196,1.9288,-7.7434,10.785
-19.434,8.46,-16.548,11.657,0.52899,7.8273,-23.034,16.786,1.2674,29.058,-9.6457,3.2441,-13.197,1.9267,-7.7269,10.754
-19.434,8.46,-16.548,11.657,0.52899,7.8273,-23.034,16.786,1.2674,29.058,-9.6457,3.2441,-13.197,1.9267,-7.7269,10.754
-19.456,8.4129,-16.613,11.671,0.4615,7.8612,-23.088,16.81,1.373,28.962,-9.6399,3.1951,-13.198,1.9242,-7.7103,10.723
-19.456,8.4129,-16.613,11.671,0.4615,7.8612,-23.088,16.81,1.373,28.962,-9.6399,3.1951,-13.198,1.9242,-7.7103,10.723
-19.456,8.4129,-16.613,11.671,0.4615,7.8612,-23.088,16.81,1.373,28.962,-9.6399,3.1951,-13.198,1.9242,-7.7103,10.723
-19.478,8.3664,-16.678,11.685,0.39396,7.8953,-23.142,16.835,1.4784,28.865,-9.634,3.146,-13.198,1.9212,-7.6936,10.692
-19.478,8.3664,-16.678,11.685,0.39396,7.8953,-23.142,16.835,1.4784,28.865,-9.634,3.146,-13.198,1.9212,-7.6936,10.692
-19.499,8.3206,-16.743,11.699,0.32636,7.9296,-23.195,16.86,1.5835,28.769,-9.628,3.0967,-13.199,1.9178,-7.6767,10.66
-19.499,8.3206,-16.743,11.699,0.32636,7.9296,-23.195,16.86,1.5835,28.769,-9.628,3.0967,-13.199,1.9178,-7.6767,10.66
-19.499,8.3206,-16.743,11.699,0.32636,7.9296,-23.195,16.86,1.5835,28.769,-9.628,3.0967,-13.199,1.9178,-7.6767,10.66
-19.499,8.3206,-16.743,11.699,0.32636,7.9296,-23.195,16.86,1.5835,28.769,-9.628,3.0967,-13.199,1.9178,-7.6767,10.66
-19.541,8.2312,-16.871,11.728,0.19107,7.9989,-23.302,16.91,1.7931,28.575,-9.6157,2.9976,-13.201,1.9097,-7.6426,10.597
-19.541,8.2312,-16.871,11.728,0.19107,7.9989,-23.302,16.91,1.7931,28.575,-9.6157,2.9976,-13.201,1.9097,-7.6426,10.597
-19.541,8.2312,-16.871,11.728,0.19107,7.9989,-23.302,16.91,1.7931,28.575,-9.6157,2.9976,-13.201,1.9097,-7.6426,10.597
-19.58,8.1447,-16.999,11.757,0.055664,8.0691,-23.407,16.962,2.0019,28.381,-9.603,2.898,-13.203,1.8998,-7.608,10.533
-19.58,8.1447,-16.999,11.757,0.055664,8.0691,-23.407,16.962,2.0019,28.381,-9.603,2.898,-13.203,1.8998,-7.608,10.533
-19.58,8.1447,-16.999,11.757,0.055664,8.0691,-23.407,16.962,2.0019,28.381,-9.603,2.898,-13.203,1.8998,-7.608,10.533
-19.6,8.1025,-17.063,11.772,-0.012061,8.1045,-23.459,16.988,2.1059,28.284,-9.5964,2.848,-13.204,1.8941,-7.5905,10.5
-19.6,8.1025,-17.063,11.772,-0.012061,8.1045,-23.459,16.988,2.1059,28.284,-9.5964,2.848,-13.204,1.8941,-7.5905,10.5
-19.618,8.061,-17.126,11.787,-0.079794,8.1401,-23.512,17.015,2.2096,28.187,-9.5898,2.7978,-13.205,1.888,-7.5728,10.468
-19.637,8.0202,-17.189,11.802,-0.14753,8.1759,-23.563,17.041,2.3132,28.09,-9.583,2.7474,-13.206,1.8814,-7.555,10.435
-19.655,7.9801,-17.252,11.817,-0.21525,8.2119,-23.615,17.068,2.4164,27.992,-9.5761,2.697,-13.207,1.8743,-7.5371,10.402
-19.655,7.9801,-17.252,11.817,-0.21525,8.2119,-23.615,17.068,2.4164,27.992,-9.5761,2.697,-13.207,1.8743,-7.5371,10.402
-19.655,7.9801,-17.252,11.817,-0.21525,8.2119,-23.615,17.068,2.4164,27.992,-9.5761,2.697,-13.207,1.8743,-7.5371,10.402
-19.672,7.9407,-17.314,11.832,-0.28297,8.2481,-23.666,17.095,2.5195,27.895,-9.5691,2.6463,-13.208,1.8668,-7.519,10.369
-19.672,7.9407,-17.314,11.832,-0.28297,8.2481,-23.666,17.095,2.5195,27.895,-9.5691,2.6463,-13.208,1.8668,-7.519,10.369
-19.672,7.9407,-17.314,11.832,-0.28297,8.2481,-23.666,17.095,2.5195,27.895,-9.5691,2.6463,-13.208,1.8668,-7.519,10.369
-19.689,7.9021,-17.377,11.848,-0.35066,8.2846,-23.717,17.122,2.6223,27.797,-9.562,2.5955,-13.209,1.8587,-7.5007,10.336
-19.689,7.9021,-17.377,11.848,-0.35066,8.2846,-23.717,17.122,2.6223,27.797,-9.562,2.5955,-13.209,1.8587,-7.5007,10.336
-19.722,7.8268,-17.5,11.879,-0.48596,8.358,-23.818,17.177,2.8271,27.602,-9.5473,2.4935,-13.211,1.8411,-7.4637,10.269
-19.722,7.8268,-17.5,11.879,-0.48596,8.358,-23.818,17.177,2.8271,27.602,-9.5473,2.4935,-13.211,1.8411,-7.4637,10.269
-19.722,7.8268,-17.5,11.879,-0.48596,8.358,-23.818,17.177,2.8271,27.602,-9.5473,2.4935,-13.211,1.8411,-7.4637,10.269
-19.737,7.7903,-17.562,11.895,-0.55356,8.395,-23.869,17.205,2.9291,27.504,-9.5397,2.4423,-13.213,1.8316,-7.445,10.235
-19.737,7.7903,-17.562,11.895,-0.55356,8.395,-23.869,17.205,2.9291,27.504,-9.5397,2.4423,-13.213,1.8316,-7.445,10.235
-19.737,7.7903,-17.562,11.895,-0.55356,8.395,-23.869,17.205,2.9291,27.504,-9.5397,2.4423,-13.213,1.8316,-7.445,10.235
-19.752,7.7544,-17.623,11.912,-0.62111,8.4322,-23.918,17.233,3.0308,27.406,-9.5321,2.3909,-13.214,1.8216,-7.4261,10.201
-19.752,7.7544,-17.623,11.912,-0.62111,8.4322,-23.918,17.233,3.0308,27.406,-9.5321,2.3909,-13.214,1.8216,-7.4261,10.201
-19.752,7.7544,-17.623,11.912,-0.62111,8.4322,-23.918,17.233,3.0308,27.406,-9.5321,2.3909,-13.214,1.8216,-7.4261,10.201
-19.782,7.6848,-17.744,11.944,-0.75604,8.5071,-24.017,17.289,3.2335,27.21,-9.5163,2.2876,-13.216,1.7999,-7.3878,10.132
-19.782,7.6848,-17.744,11.944,-0.75604,8.5071,-24.017,17.289,3.2335,27.21,-9.5163,2.2876,-13.216,1.7999,-7.3878,10.132
-19.795,7.651,-17.804,11.961,-0.82341,8.5449,-24.066,17.318,3.3345,27.112,-9.5082,2.2358,-13.217,1.7884,-7.3684,10.098
-19.795,7.651,-17.804,11.961,-0.82341,8.5449,-24.066,17.318,3.3345,27.112,-9.5082,2.2358,-13.217,1.7884,-7.3684,10.098
-19.795,7.651,-17.804,11.961,-0.82341,8.5449,-24.066,17.318,3.3345,27.112,-9.5082,2.2358,-13.217,1.7884,-7.3684,10.098
-19.809,7.6179,-17.864,11.977,-0.89072,8.5828,-24.115,17.346,3.4352,27.014,-9.4999,2.1837,-13.218,1.7763,-7.3489,10.063
-19.809,7.6179,-17.864,11.977,-0.89072,8.5828,-24.115,17.346,3.4352,27.014,-9.4999,2.1837,-13.218,1.7763,-7.3489,10.063
-19.809,7.6179,-17.864,11.977,-0.89072,8.5828,-24.115,17.346,3.4352,27.014,-9.4999,2.1837,-13.218,1.7763,-7.3489,10.063
-19.834,7.5538,-17.984,12.011,-1.0251,8.6592,-24.211,17.404,3.6357,26.817,-9.483,2.0792,-13.22,1.7505,-7.3092,9.9929
-19.834,7.5538,-17.984,12.011,-1.0251,8.6592,-24.211,17.404,3.6357,26.817,-9.483,2.0792,-13.22,1.7505,-7.3092,9.9929
-19.847,7.5228,-18.043,12.028,-1.0921,8.6976,-24.259,17.433,3.7355,26.719,-9.4743,2.0268,-13.221,1.7368,-7.2891,9.9574
-19.847,7.5228,-18.043,12.028,-1.0921,8.6976,-24.259,17.433,3.7355,26.719,-9.4743,2.0268,-13.221,1.7368,-7.2891,9.9574
-19.858,7.4925,-18.102,12.045,-1.1591,8.7363,-24.307,17.463,3.835,26.62,-9.4654,1.9741,-13.222,1.7226,-7.2688,9.9218
-19.858,7.4925,-18.102,12.045,-1.1591,8.7363,-24.307,17.463,3.835,26.62,-9.4654,1.9741,-13.222,1.7226,-7.2688,9.9218
-19.869,7.4628,-18.16,12.063,-1.2259,8.7751,-24.354,17.492,3.9343,26.522,-9.4564,1.9213,-13.222,1.7079,-7.2483,9.8859
-19.869,7.4628,-18.16,12.063,-1.2259,8.7751,-24.354,17.492,3.9343,26.522,-9.4564,1.9213,-13.222,1.7079,-7.2483,9.8859
-19.88,7.4338,-18.218,12.08,-1.2927,8.814,-24.401,17.522,4.0332,26.423,-9.4472,1.8683,-13.223,1.6926,-7.2277,9.8498
-19.88,7.4338,-18.218,12.08,-1.2927,8.814,-24.401,17.522,4.0332,26.423,-9.4472,1.8683,-13.223,1.6926,-7.2277,9.8498
-19.891,7.4055,-18.276,12.097,-1.3593,8.8531,-24.447,17.551,4.1319,26.324,-9.4379,1.8152,-13.224,1.6767,-7.2068,9.8135
-19.9,7.3779,-18.334,12.115,-1.4258,8.8924,-24.493,17.581,4.2302,26.225,-9.4284,1.7619,-13.225,1.6603,-7.1858,9.7769
-19.9,7.3779,-18.334,12.115,-1.4258,8.8924,-24.493,17.581,4.2302,26.225,-9.4284,1.7619,-13.225,1.6603,-7.1858,9.7769
-19.91,7.351,-18.391,12.133,-1.4922,8.9319,-24.539,17.611,4.3283,26.127,-9.4187,1.7085,-13.226,1.6434,-7.1645,9.7402
-19.91,7.351,-18.391,12.133,-1.4922,8.9319,-24.539,17.611,4.3283,26.127,-9.4187,1.7085,-13.226,1.6434,-7.1645,9.7402
-19.91,7.351,-18.391,12.133,-1.4922,8.9319,-24.539,17.611,4.3283,26.127,-9.4187,1.7085,-13.226,1.6434,-7.1645,9.7402
-19.919,7.3247,-18.448,12.151,-1.5584,8.9715,-24.585,17.641,4.426,26.028,-9.4089,1.6549,-13.226,1.6259,-7.1431,9.7032
-19.919,7.3247,-18.448,12.151,-1.5584,8.9715,-24.585,17.641,4.426,26.028,-9.4089,1.6549,-13.226,1.6259,-7.1431,9.7032
-19.919,7.3247,-18.448,12.151,-1.5584,8.9715,-24.585,17.641,4.426,26.028,-9.4089,1.6549,-13.226,1.6259,-7.1431,9.7032
-19.927,7.2991,-18.505,12.169,-1.6245,9.0112,-24.63,17.671,4.5235,25.929,-9.3989,1.6011,-13.227,1.6078,-7.1214,9.6659
-19.927,7.2991,-18.505,12.169,-1.6245,9.0112,-24.63,17.671,4.5235,25.929,-9.3989,1.6011,-13.227,1.6078,-7.1214,9.6659
-19.927,7.2991,-18.505,12.169,-1.6245,9.0112,-24.63,17.671,4.5235,25.929,-9.3989,1.6011,-13.227,1.6078,-7.1214,9.6659
-19.943,7.2498,-18.617,12.205,-1.7563,9.0912,-24.72,17.732,4.7174,25.731,-9.3783,1.4931,-13.228,1.5699,-7.0775,9.5907
-19.943,7.2498,-18.617,12.205,-1.7563,9.0912,-24.72,17.732,4.7174,25.731,-9.3783,1.4931,-13.228,1.5699,-7.0775,9.5907
-19.95,7.2262,-18.673,12.223,-1.822,9.1314,-24.764,17.762,4.8139,25.632,-9.3677,1.4388,-13.229,1.5502,-7.0553,9.5527
-19.95,7.2262,-18.673,12.223,-1.822,9.1314,-24.764,17.762,4.8139,25.632,-9.3677,1.4388,-13.229,1.5502,-7.0553,9.5527
-19.95,7.2262,-18.673,12.223,-1.822,9.1314,-24.764,17.762,4.8139,25.632,-9.3677,1.4388,-13.229,1.5502,-7.0553,9.5527
-19.957,7.2032,-18.728,12.242,-1.8875,9.1717,-24.808,17.793,4.9101,25.533,-9.357,1.3844,-13.229,1.5298,-7.0328,9.5145
-19.957,7.2032,-18.728,12.242,-1.8875,9.1717,-24.808,17.793,4.9101,25.533,-9.357,1.3844,-13.229,1.5298,-7.0328,9.5145
-19.957,7.2032,-18.728,12.242,-1.8875,9.1717,-24.808,17.793,4.9101,25.533,-9.357,1.3844,-13.229,1.5298,-7.0328,9.5145
-19.969,7.1593,-18.838,12.279,-2.0179,9.2528,-24.894,17.854,5.1014,25.334,-9.335,1.275,-13.23,1.4874,-6.9872,9.4373
-19.969,7.1593,-18.838,12.279,-2.0179,9.2528,-24.894,17.854,5.1014,25.334,-9.335,1.275,-13.23,1.4874,-6.9872,9.4373
-19.975,7.1383,-18.893,12.297,-2.0829,9.2935,-24.937,17.885,5.1966,25.235,-9.3237,1.2201,-13.231,1.4653,-6.964,9.3984
-19.975,7.1383,-18.893,12.297,-2.0829,9.2935,-24.937,17.885,5.1966,25.235,-9.3237,1.2201,-13.231,1.4653,-6.964,9.3984
-19.975,7.1383,-18.893,12.297,-2.0829,9.2935,-24.937,17.885,5.1966,25.235,-9.3237,1.2201,-13.231,1.4653,-6.964,9.3984
-19.98,7.1179,-18.947,12.316,-2.1477,9.3344,-24.98,17.916,5.2914,25.136,-9.3122,1.165,-13.231,1.4426,-6.9407,9.3592
-19.98,7.1179,-18.947,12.316,-2.1477,9.3344,-24.98,17.916,5.2914,25.136,-9.3122,1.165,-13.231,1.4426,-6.9407,9.3592
-19.984,7.0981,-19.001,12.335,-2.2123,9.3754,-25.022,17.947,5.3859,25.037,-9.3005,1.1097,-13.231,1.4193,-6.9171,9.3197
-19.988,7.0791,-19.054,12.354,-2.2767,9.4166,-25.064,17.978,5.48,24.937,-9.2886,1.0543,-13.231,1.3954,-6.8933,9.2799
-19.988,7.0791,-19.054,12.354,-2.2767,9.4166,-25.064,17.978,5.48,24.937,-9.2886,1.0543,-13.231,1.3954,-6.8933,9.2799
-19.992,7.0606,-19.107,12.373,-2.3409,9.4578,-25.105,18.009,5.5738,24.838,-9.2766,0.99864,-13.231,1.3709,-6.8692,9.2399
-19.992,7.0606,-19.107,12.373,-2.3409,9.4578,-25.105,18.009,5.5738,24.838,-9.2766,0.99864,-13.231,1.3709,-6.8692,9.2399
-19.995,7.0428,-19.16,12.392,-2.4049,9.4992,-25.146,18.04,5.6673,24.739,-9.2643,0.94286,-13.231,1.3459,-6.8449,9.1997
-19.995,7.0428,-19.16,12.392,-2.4049,9.4992,-25.146,18.04,5.6673,24.739,-9.2643,0.94286,-13.231,1.3459,-6.8449,9.1997
-19.998,7.0256,-19.213,12.412,-2.4687,9.5407,-25.187,18.071,5.7604,24.639,-9.2518,0.88691,-13.231,1.3202,-6.8204,9.1591
-19.998,7.0256,-19.213,12.412,-2.4687,9.5407,-25.187,18.071,5.7604,24.639,-9.2518,0.88691,-13.231,1.3202,-6.8204,9.1591
-20,7.009,-19.265,12.431,-2.5322,9.5824,-25.227,18.103,5.8531,24.54,-9.2391,0.83078,-13.231,1.2939,-6.7956,9.1183
-20,7.009,-19.265,12.431,-2.5322,9.5824,-25.227,18.103,5.8531,24.54,-9.2391,0.83078,-13.231,1.2939,-6.7956,9.1183
-20.002,6.993,-19.316,12.45,-2.5956,9.6241,-25.267,18.134,5.9455,24.44,-9.2262,0.77449,-13.231,1.267,-6.7706,9.0772
-20.002,6.993,-19.316,12.45,-2.5956,9.6241,-25.267,18.134,5.9455,24.44,-9.2262,0.77449,-13.231,1.267,-6.7706,9.0772
-20.002,6.993,-19.316,12.45,-2.5956,9.6241,-25.267,18.134,5.9455,24.44,-9.2262,0.77449,-13.231,1.267,-6.7706,9.0772
-20.003,6.9777,-19.368,12.47,-2.6587,9.6659,-25.307,18.165,6.0375,24.341,-9.2131,0.71802,-13.23,1.2395,-6.7454,9.0359
-20.003,6.9777,-19.368,12.47,-2.6587,9.6659,-25.307,18.165,6.0375,24.341,-9.2131,0.71802,-13.23,1.2395,-6.7454,9.0359
-20.004,6.963,-19.419,12.489,-2.7216,9.7079,-25.346,18.196,6.1292,24.242,-9.1998,0.66137,-13.23,1.2114,-6.7199,8.9943
-20.004,6.963,-19.419,12.489,-2.7216,9.7079,-25.346,18.196,6.1292,24.242,-9.1998,0.66137,-13.23,1.2114,-6.7199,8.9943
-20.005,6.9489,-19.47,12.509,-2.7842,9.75,-25.385,18.228,6.2204,24.142,-9.1863,0.60456,-13.23,1.1827,-6.6942,8.9523
-20.005,6.9489,-19.47,12.509,-2.7842,9.75,-25.385,18.228,6.2204,24.142,-9.1863,0.60456,-13.23,1.1827,-6.6942,8.9523
-20.005,6.9354,-19.52,12.529,-2.8466,9.7921,-25.424,18.259,6.3113,24.043,-9.1725,0.54756,-13.229,1.1534,-6.6682,8.9101
-20.005,6.9354,-19.52,12.529,-2.8466,9.7921,-25.424,18.259,6.3113,24.043,-9.1725,0.54756,-13.229,1.1534,-6.6682,8.9101
-20.005,6.9225,-19.57,12.548,-2.9088,9.8344,-25.462,18.291,6.4018,23.943,-9.1586,0.4904,-13.228,1.1234,-6.6419,8.8677
-20.005,6.9225,-19.57,12.548,-2.9088,9.8344,-25.462,18.291,6.4018,23.943,-9.1586,0.4904,-13.228,1.1234,-6.6419,8.8677
-20.004,6.9101,-19.62,12.568,-2.9707,9.8767,-25.5,18.322,6.492,23.844,-9.1444,0.43305,-13.228,1.0928,-6.6154,8.8249
-20.003,6.8984,-19.669,12.588,-3.0323,9.9192,-25.537,18.353,6.5817,23.744,-9.13,0.37553,-13.227,1.0616,-6.5886,8.7818
-20.003,6.8984,-19.669,12.588,-3.0323,9.9192,-25.537,18.353,6.5817,23.744,-9.13,0.37553,-13.227,1.0616,-6.5886,8.7818
-20.003,6.8984,-19.669,12.588,-3.0323,9.9192,-25.537,18.353,6.5817,23.744,-9.13,0.37553,-13.227,1.0616,-6.5886,8.7818
-20.001,6.8873,-19.718,12.608,-3.0937,9.9617,-25.574,18.385,6.6711,23.645,-9.1153,0.31783,-13.226,1.0298,-6.5616,8.7385
-20.001,6.8873,-19.718,12.608,-3.0937,9.9617,-25.574,18.385,6.6711,23.645,-9.1153,0.31783,-13.226,1.0298,-6.5616,8.7385
-19.999,6.8768,-19.767,12.628,-3.1548,10.004,-25.611,18.416,6.76,23.546,-9.1005,0.25996,-13.225,0.99729,-6.5343,8.6949
-19.997,6.8668,-19.815,12.648,-3.2156,10.047,-25.648,18.447,6.8486,23.446,-9.0854,0.2019,-13.224,0.96419,-6.5067,8.6509
-19.997,6.8668,-19.815,12.648,-3.2156,10.047,-25.648,18.447,6.8486,23.446,-9.0854,0.2019,-13.224,0.96419,-6.5067,8.6509
-19.994,6.8575,-19.863,12.668,-3.2762,10.09,-25.684,18.479,6.9367,23.347,-9.0701,0.14367,-13.222,0.93045,-6.4789,8.6067
-19.994,6.8575,-19.863,12.668,-3.2762,10.09,-25.684,18.479,6.9367,23.347,-9.0701,0.14367,-13.222,0.93045,-6.4789,8.6067
-19.994,6.8575,-19.863,12.668,-3.2762,10.09,-25.684,18.479,6.9367,23.347,-9.0701,0.14367,-13.222,0.93045,-6.4789,8.6067
-19.99,6.8487,-19.911,12.688,-3.3364,10.133,-25.719,18.51,7.0245,23.247,-9.0545,0.085262,-13.221,0.89608,-6.4508,8.5622
-19.99,6.8487,-19.911,12.688,-3.3364,10.133,-25.719,18.51,7.0245,23.247,-9.0545,0.085262,-13.221,0.89608,-6.4508,8.5622
-19.987,6.8404,-19.958,12.709,-3.3964,10.176,-25.754,18.541,7.1118,23.148,-9.0388,0.026671,-13.22,0.86107,-6.4224,8.5174
-19.982,6.8328,-20.005,12.729,-3.4561,10.219,-25.789,18.573,7.1988,23.049,-9.0227,-0.032099,-13.218,0.82542,-6.3937,8.4722
-19.982,6.8328,-20.005,12.729,-3.4561,10.219,-25.789,18.573,7.1988,23.049,-9.0227,-0.032099,-13.218,0.82542,-6.3937,8.4722
-19.982,6.8328,-20.005,12.729,-3.4561,10.219,-25.789,18.573,7.1988,23.049,-9.0227,-0.032099,-13.218,0.82542,-6.3937,8.4722
-19.978,6.8257,-20.052,12.749,-3.5155,10.262,-25.824,18.604,7.2853,22.949,-9.0065,-0.09105,-13.216,0.78913,-6.3648,8.4268
-19.978,6.8257,-20.052,12.749,-3.5155,10.262,-25.824,18.604,7.2853,22.949,-9.0065,-0.09105,-13.216,0.78913,-6.3648,8.4268
-19.973,6.8191,-20.098,12.769,-3.5746,10.305,-25.858,18.635,7.3714,22.85,-8.99,-0.15018,-13.214,0.7522,-6.3356,8.3811
-19.967,6.8131,-20.144,12.79,-3.6334,10.348,-25.891,18.666,7.4571,22.751,-8.9732,-0.20949,-13.213,0.71462,-6.306,8.335
-19.967,6.8131,-20.144,12.79,-3.6334,10.348,-25.891,18.666,7.4571,22.751,-8.9732,-0.20949,-13.213,0.71462,-6.306,8.335
-19.967,6.8131,-20.144,12.79,-3.6334,10.348,-25.891,18.666,7.4571,22.751,-8.9732,-0.20949,-13.213,0.71462,-6.306,8.335
-19.961,6.8077,-20.189,12.81,-3.6919,10.392,-25.925,18.697,7.5423,22.652,-8.9562,-0.26899,-13.21,0.6764,-6.2762,8.2887
-19.955,6.8028,-20.234,12.831,-3.75,10.435,-25.958,18.728,7.6271,22.553,-8.939,-0.32866,-13.208,0.63753,-6.2461,8.242
-19.955,6.8028,-20.234,12.831,-3.75,10.435,-25.958,18.728,7.6271,22.553,-8.939,-0.32866,-13.208,0.63753,-6.2461,8.242
-19.948,6.7984,-20.279,12.851,-3.8079,10.478,-25.99,18.759,7.7115,22.454,-8.9215,-0.38852,-13.206,0.59801,-6.2157,8.195
-19.948,6.7984,-20.279,12.851,-3.8079,10.478,-25.99,18.759,7.7115,22.454,-8.9215,-0.38852,-13.206,0.59801,-6.2157,8.195
-19.941,6.7946,-20.323,12.872,-3.8654,10.522,-26.022,18.79,7.7955,22.354,-8.9038,-0.44857,-13.204,0.55784,-6.1851,8.1477
-19.941,6.7946,-20.323,12.872,-3.8654,10.522,-26.022,18.79,7.7955,22.354,-8.9038,-0.44857,-13.204,0.55784,-6.1851,8.1477
-19.941,6.7946,-20.323,12.872,-3.8654,10.522,-26.022,18.79,7.7955,22.354,-8.9038,-0.44857,-13.204,0.55784,-6.1851,8.1477
-19.934,6.7912,-20.367,12.892,-3.9226,10.565,-26.054,18.821,7.879,22.255,-8.8858,-0.50879,-13.201,0.51702,-6.1541,8.1001
-19.934,6.7912,-20.367,12.892,-3.9226,10.565,-26.054,18.821,7.879,22.255,-8.8858,-0.50879,-13.201,0.51702,-6.1541,8.1001
-19.917,6.7862,-20.454,12.933,-4.0361,10.653,-26.116,18.883,8.0446,22.058,-8.8491,-0.62979,-13.195,0.43342,-6.0912,8.0039
-19.917,6.7862,-20.454,12.933,-4.0361,10.653,-26.116,18.883,8.0446,22.058,-8.8491,-0.62979,-13.195,0.43342,-6.0912,8.0039
-19.917,6.7862,-20.454,12.933,-4.0361,10.653,-26.116,18.883,8.0446,22.058,-8.8491,-0.62979,-13.195,0.43342,-6.0912,8.0039
-19.909,6.7844,-20.497,12.954,-4.0923,10.696,-26.147,18.913,8.1268,21.959,-8.8303,-0.69057,-13.192,0.39063,-6.0593,7.9554
-19.909,6.7844,-20.497,12.954,-4.0923,10.696,-26.147,18.913,8.1268,21.959,-8.8303,-0.69057,-13.192,0.39063,-6.0593,7.9554
-19.899,6.7832,-20.54,12.974,-4.1481,10.74,-26.177,18.944,8.2085,21.86,-8.8113,-0.75153,-13.189,0.34719,-6.0271,7.9065
-19.899,6.7832,-20.54,12.974,-4.1481,10.74,-26.177,18.944,8.2085,21.86,-8.8113,-0.75153,-13.189,0.34719,-6.0271,7.9065
-19.899,6.7832,-20.54,12.974,-4.1481,10.74,-26.177,18.944,8.2085,21.86,-8.8113,-0.75153,-13.189,0.34719,-6.0271,7.9065
-19.89,6.7825,-20.582,12.995,-4.2036,10.784,-26.207,18.974,8.2897,21.761,-8.792,-0.81268,-13.186,0.30309,-5.9946,7.8572
-19.89,6.7825,-20.582,12.995,-4.2036,10.784,-26.207,18.974,8.2897,21.761,-8.792,-0.81268,-13.186,0.30309,-5.9946,7.8572
-19.88,6.7822,-20.624,13.016,-4.2588,10.828,-26.237,19.004,8.3705,21.663,-8.7725,-0.87401,-13.183,0.25833,-5.9617,7.8077
-19.88,6.7822,-20.624,13.016,-4.2588,10.828,-26.237,19.004,8.3705,21.663,-8.7725,-0.87401,-13.183,0.25833,-5.9617,7.8077
-19.869,6.7825,-20.665,13.036,-4.3136,10.871,-26.266,19.035,8.4508,21.564,-8.7527,-0.93552,-13.179,0.21292,-5.9286,7.7578
-19.869,6.7825,-20.665,13.036,-4.3136,10.871,-26.266,19.035,8.4508,21.564,-8.7527,-0.93552,-13.179,0.21292,-5.9286,7.7578
-19.847,6.7845,-20.747,13.077,-4.4222,10.959,-26.322,19.095,8.61,21.367,-8.7122,-1.0591,-13.171,0.1201,-5.8613,7.6571
-19.847,6.7845,-20.747,13.077,-4.4222,10.959,-26.322,19.095,8.61,21.367,-8.7122,-1.0591,-13.171,0.1201,-5.8613,7.6571
-19.836,6.7862,-20.787,13.098,-4.4759,11.003,-26.35,19.125,8.6889,21.269,-8.6916,-1.1212,-13.167,0.072706,-5.8272,7.6063
-19.836,6.7862,-20.787,13.098,-4.4759,11.003,-26.35,19.125,8.6889,21.269,-8.6916,-1.1212,-13.167,0.072706,-5.8272,7.6063
-19.836,6.7862,-20.787,13.098,-4.4759,11.003,-26.35,19.125,8.6889,21.269,-8.6916,-1.1212,-13.167,0.072706,-5.8272,7.6063
-19.824,6.7883,-20.827,13.119,-4.5293,11.047,-26.378,19.154,8.7673,21.171,-8.6707,-1.1835,-13.163,0.024645,-5.7928,7.5551
-19.824,6.7883,-20.827,13.119,-4.5293,11.047,-26.378,19.154,8.7673,21.171,-8.6707,-1.1835,-13.163,0.024645,-5.7928,7.5551
-19.811,6.791,-20.867,13.139,-4.5822,11.091,-26.405,19.184,8.8452,21.073,-8.6496,-1.2459,-13.159,-0.024078,-5.758,7.5035
-19.811,6.791,-20.867,13.139,-4.5822,11.091,-26.405,19.184,8.8452,21.073,-8.6496,-1.2459,-13.159,-0.024078,-5.758,7.5035
-19.799,6.7941,-20.906,13.16,-4.6349,11.135,-26.432,19.213,8.9226,20.975,-8.6281,-1.3085,-13.154,-0.073465,-5.7229,7.4517
-19.799,6.7941,-20.906,13.16,-4.6349,11.135,-26.432,19.213,8.9226,20.975,-8.6281,-1.3085,-13.154,-0.073465,-5.7229,7.4517
-19.785,6.7976,-20.945,13.181,-4.6871,11.179,-26.458,19.243,8.9995,20.877,-8.6064,-1.3714,-13.15,-0.12352,-5.6875,7.3995
-19.785,6.7976,-20.945,13.181,-4.6871,11.179,-26.458,19.243,8.9995,20.877,-8.6064,-1.3714,-13.15,-0.12352,-5.6875,7.3995
-19.772,6.8016,-20.983,13.201,-4.739,11.223,-26.484,19.272,9.0759,20.779,-8.5844,-1.4344,-13.145,-0.17423,-5.6517,7.347
-19.772,6.8016,-20.983,13.201,-4.739,11.223,-26.484,19.272,9.0759,20.779,-8.5844,-1.4344,-13.145,-0.17423,-5.6517,7.347
-19.758,6.8061,-21.021,13.222,-4.7904,11.267,-26.509,19.301,9.1519,20.681,-8.5621,-1.4976,-13.14,-0.22561,-5.6157,7.2941
-19.758,6.8061,-21.021,13.222,-4.7904,11.267,-26.509,19.301,9.1519,20.681,-8.5621,-1.4976,-13.14,-0.22561,-5.6157,7.2941
-19.744,6.811,-21.059,13.242,-4.8415,11.311,-26.535,19.33,9.2273,20.584,-8.5396,-1.5609,-13.135,-0.27765,-5.5792,7.2409
-19.744,6.811,-21.059,13.242,-4.8415,11.311,-26.535,19.33,9.2273,20.584,-8.5396,-1.5609,-13.135,-0.27765,-5.5792,7.2409
-19.729,6.8163,-21.097,13.263,-4.8922,11.355,-26.559,19.359,9.3022,20.486,-8.5167,-1.6245,-13.129,-0.33036,-5.5424,7.1874
-19.729,6.8163,-21.097,13.263,-4.8922,11.355,-26.559,19.359,9.3022,20.486,-8.5167,-1.6245,-13.129,-0.33036,-5.5424,7.1874
-19.714,6.8221,-21.134,13.283,-4.9425,11.399,-26.584,19.387,9.3766,20.389,-8.4936,-1.6883,-13.124,-0.38374,-5.5053,7.1335
-19.714,6.8221,-21.134,13.283,-4.9425,11.399,-26.584,19.387,9.3766,20.389,-8.4936,-1.6883,-13.124,-0.38374,-5.5053,7.1335
-19.714,6.8221,-21.134,13.283,-4.9425,11.399,-26.584,19.387,9.3766,20.389,-8.4936,-1.6883,-13.124,-0.38374,-5.5053,7.1335
-19.698,6.8283,-21.17,13.304,-4.9925,11.442,-26.608,19.416,9.4505,20.292,-8.4701,-1.7522,-13.118,-0.43777,-5.4679,7.0793
-19.683,6.8349,-21.206,13.324,-5.042,11.486,-26.631,19.444,9.5238,20.194,-8.4464,-1.8163,-13.112,-0.49248,-5.4301,7.0247
-19.666,6.8419,-21.242,13.345,-5.0911,11.53,-26.654,19.472,9.5967,20.097,-8.4224,-1.8807,-13.106,-0.54784,-5.3919,6.9698
-19.666,6.8419,-21.242,13.345,-5.0911,11.53,-26.654,19.472,9.5967,20.097,-8.4224,-1.8807,-13.106,-0.54784,-5.3919,6.9698
-19.65,6.8493,-21.278,13.365,-5.1398,11.574,-26.677,19.5,9.669,20.001,-8.3981,-1.9452,-13.1,-0.60388,-5.3534,6.9146
-19.65,6.8493,-21.278,13.365,-5.1398,11.574,-26.677,19.5,9.669,20.001,-8.3981,-1.9452,-13.1,-0.60388,-5.3534,6.9146
-19.65,6.8493,-21.278,13.365,-5.1398,11.574,-26.677,19.5,9.669,20.001,-8.3981,-1.9452,-13.1,-0.60388,-5.3534,6.9146
-19.633,6.8571,-21.313,13.385,-5.1881,11.618,-26.7,19.528,9.7408,19.904,-8.3736,-2.0099,-13.093,-0.66057,-5.3145,6.859
-19.633,6.8571,-21.313,13.385,-5.1881,11.618,-26.7,19.528,9.7408,19.904,-8.3736,-2.0099,-13.093,-0.66057,-5.3145,6.859
-19.633,6.8571,-21.313,13.385,-5.1881,11.618,-26.7,19.528,9.7408,19.904,-8.3736,-2.0099,-13.093,-0.66057,-5.3145,6.859
-19.598,6.8739,-21.382,13.426,-5.2835,11.706,-26.743,19.582,9.8827,19.711,-8.3235,-2.1398,-13.08,-0.77596,-5.2357,6.7468
-19.598,6.8739,-21.382,13.426,-5.2835,11.706,-26.743,19.582,9.8827,19.711,-8.3235,-2.1398,-13.08,-0.77596,-5.2357,6.7468
-19.58,6.8828,-21.416,13.446,-5.3305,11.75,-26.765,19.61,9.9529,19.614,-8.298,-2.2051,-13.073,-0.83465,-5.1958,6.6902
-19.58,6.8828,-21.416,13.446,-5.3305,11.75,-26.765,19.61,9.9529,19.614,-8.298,-2.2051,-13.073,-0.83465,-5.1958,6.6902
-19.561,6.8922,-21.45,13.466,-5.3772,11.793,-26.786,19.637,10.023,19.518,-8.2722,-2.2705,-13.066,-0.894,-5.1555,6.6332
-19.561,6.8922,-21.45,13.466,-5.3772,11.793,-26.786,19.637,10.023,19.518,-8.2722,-2.2705,-13.066,-0.894,-5.1555,6.6332
-19.543,6.9019,-21.483,13.486,-5.4234,11.837,-26.806,19.663,10.092,19.422,-8.2461,-2.3362,-13.058,-0.95402,-5.1148,6.5759
-19.543,6.9019,-21.483,13.486,-5.4234,11.837,-26.806,19.663,10.092,19.422,-8.2461,-2.3362,-13.058,-0.95402,-5.1148,6.5759
-19.543,6.9019,-21.483,13.486,-5.4234,11.837,-26.806,19.663,10.092,19.422,-8.2461,-2.3362,-13.058,-0.95402,-5.1148,6.5759
-19.524,6.9119,-21.516,13.506,-5.4692,11.881,-26.826,19.69,10.16,19.326,-8.2198,-2.402,-13.051,-1.0147,-5.0738,6.5183
-19.524,6.9119,-21.516,13.506,-5.4692,11.881,-26.826,19.69,10.16,19.326,-8.2198,-2.402,-13.051,-1.0147,-5.0738,6.5183
-19.524,6.9119,-21.516,13.506,-5.4692,11.881,-26.826,19.69,10.16,19.326,-8.2198,-2.402,-13.051,-1.0147,-5.0738,6.5183
-19.484,6.9331,-21.581,13.546,-5.5595,11.968,-26.865,19.742,10.295,19.135,-8.1661,-2.5342,-13.035,-1.138,-4.9906,6.402
-19.484,6.9331,-21.581,13.546,-5.5595,11.968,-26.865,19.742,10.295,19.135,-8.1661,-2.5342,-13.035,-1.138,-4.9906,6.402
-19.484,6.9331,-21.581,13.546,-5.5595,11.968,-26.865,19.742,10.295,19.135,-8.1661,-2.5342,-13.035,-1.138,-4.9906,6.402
-19.484,6.9331,-21.581,13.546,-5.5595,11.968,-26.865,19.742,10.295,19.135,-8.1661,-2.5342,-13.035,-1.138,-4.9906,6.402
-19.444,6.9557,-21.644,13.586,-5.6482,12.055,-26.903,19.794,10.429,18.945,-8.1112,-2.6671,-13.018,-1.264,-4.906,6.2843
-19.444,6.9557,-21.644,13.586,-5.6482,12.055,-26.903,19.794,10.429,18.945,-8.1112,-2.6671,-13.018,-1.264,-4.906,6.2843
-19.423,6.9675,-21.675,13.606,-5.6918,12.099,-26.921,19.819,10.494,18.85,-8.0833,-2.7339,-13.01,-1.328,-4.8631,6.2249
-19.423,6.9675,-21.675,13.606,-5.6918,12.099,-26.921,19.819,10.494,18.85,-8.0833,-2.7339,-13.01,-1.328,-4.8631,6.2249
-19.423,6.9675,-21.675,13.606,-5.6918,12.099,-26.921,19.819,10.494,18.85,-8.0833,-2.7339,-13.01,-1.328,-4.8631,6.2249
-19.38,6.992,-21.736,13.645,-5.7779,12.186,-26.957,19.869,10.624,18.66,-8.0265,-2.868,-12.992,-1.4579,-4.7762,6.1051
-19.38,6.992,-21.736,13.645,-5.7779,12.186,-26.957,19.869,10.624,18.66,-8.0265,-2.868,-12.992,-1.4579,-4.7762,6.1051
-19.38,6.992,-21.736,13.645,-5.7779,12.186,-26.957,19.869,10.624,18.66,-8.0265,-2.868,-12.992,-1.4579,-4.7762,6.1051
-19.359,7.0048,-21.766,13.665,-5.8202,12.229,-26.974,19.894,10.688,18.566,-7.9976,-2.9353,-12.982,-1.5238,-4.7322,6.0447
-19.359,7.0048,-21.766,13.665,-5.8202,12.229,-26.974,19.894,10.688,18.566,-7.9976,-2.9353,-12.982,-1.5238,-4.7322,6.0447
-19.359,7.0048,-21.766,13.665,-5.8202,12.229,-26.974,19.894,10.688,18.566,-7.9976,-2.9353,-12.982,-1.5238,-4.7322,6.0447
-19.336,7.0178,-21.796,13.684,-5.8621,12.272,-26.99,19.918,10.751,18.472,-7.9685,-3.0028,-12.973,-1.5904,-4.6878,5.984
-19.336,7.0178,-21.796,13.684,-5.8621,12.272,-26.99,19.918,10.751,18.472,-7.9685,-3.0028,-12.973,-1.5904,-4.6878,5.984
-19.336,7.0178,-21.796,13.684,-5.8621,12.272,-26.99,19.918,10.751,18.472,-7.9685,-3.0028,-12.973,-1.5904,-4.6878,5.984
-19.291,7.0448,-21.854,13.723,-5.9446,12.358,-27.023,19.967,10.876,18.284,-7.9092,-3.1383,-12.953,-1.7256,-4.5979,5.8614
-19.291,7.0448,-21.854,13.723,-5.9446,12.358,-27.023,19.967,10.876,18.284,-7.9092,-3.1383,-12.953,-1.7256,-4.5979,5.8614
-19.268,7.0587,-21.882,13.742,-5.9852,12.401,-27.038,19.99,10.938,18.19,-7.8791,-3.2064,-12.943,-1.7941,-4.5523,5.7997
-19.268,7.0587,-21.882,13.742,-5.9852,12.401,-27.038,19.99,10.938,18.19,-7.8791,-3.2064,-12.943,-1.7941,-4.5523,5.7997
-19.245,7.0729,-21.91,13.761,-6.0254,12.444,-27.054,20.014,10.999,18.097,-7.8486,-3.2746,-12.933,-1.8633,-4.5064,5.7375
-19.245,7.0729,-21.91,13.761,-6.0254,12.444,-27.054,20.014,10.999,18.097,-7.8486,-3.2746,-12.933,-1.8633,-4.5064,5.7375
-19.221,7.0873,-21.938,13.78,-6.0651,12.487,-27.069,20.037,11.059,18.004,-7.8179,-3.343,-12.922,-1.9332,-4.4601,5.6751
-19.221,7.0873,-21.938,13.78,-6.0651,12.487,-27.069,20.037,11.059,18.004,-7.8179,-3.343,-12.922,-1.9332,-4.4601,5.6751
-19.197,7.1021,-21.965,13.799,-6.1043,12.53,-27.083,20.06,11.119,17.911,-7.7868,-3.4116,-12.911,-2.0037,-4.4133,5.6123
-19.197,7.1021,-21.965,13.799,-6.1043,12.53,-27.083,20.06,11.119,17.911,-7.7868,-3.4116,-12.911,-2.0037,-4.4133,5.6123
-19.197,7.1021,-21.965,13.799,-6.1043,12.53,-27.083,20.06,11.119,17.911,-7.7868,-3.4116,-12.911,-2.0037,-4.4133,5.6123
-19.172,7.117,-21.992,13.818,-6.1431,12.573,-27.097,20.083,11.178,17.818,-7.7554,-3.4804,-12.9,-2.0748,-4.3662,5.5491
-19.172,7.117,-21.992,13.818,-6.1431,12.573,-27.097,20.083,11.178,17.818,-7.7554,-3.4804,-12.9,-2.0748,-4.3662,5.5491
-19.148,7.1323,-22.019,13.837,-6.1815,12.615,-27.111,20.105,11.237,17.726,-7.7236,-3.5494,-12.889,-2.1466,-4.3187,5.4856
-19.148,7.1323,-22.019,13.837,-6.1815,12.615,-27.111,20.105,11.237,17.726,-7.7236,-3.5494,-12.889,-2.1466,-4.3187,5.4856
-19.123,7.1477,-22.046,13.856,-6.2194,12.658,-27.125,20.127,11.295,17.633,-7.6916,-3.6185,-12.877,-2.219,-4.2708,5.4218
-19.123,7.1477,-22.046,13.856,-6.2194,12.658,-27.125,20.127,11.295,17.633,-7.6916,-3.6185,-12.877,-2.219,-4.2708,5.4218
-19.098,7.1635,-22.071,13.874,-6.2568,12.7,-27.138,20.149,11.352,17.541,-7.6592,-3.6879,-12.866,-2.2921,-4.2226,5.3576
-19.098,7.1635,-22.071,13.874,-6.2568,12.7,-27.138,20.149,11.352,17.541,-7.6592,-3.6879,-12.866,-2.2921,-4.2226,5.3576
-19.098,7.1635,-22.071,13.874,-6.2568,12.7,-27.138,20.149,11.352,17.541,-7.6592,-3.6879,-12.866,-2.2921,-4.2226,5.3576
-19.046,7.1956,-22.122,13.911,-6.3303,12.785,-27.163,20.192,11.465,17.358,-7.5935,-3.8271,-12.841,-2.4401,-4.1248,5.2283
-19.02,7.2119,-22.147,13.93,-6.3664,12.827,-27.175,20.213,11.521,17.267,-7.5601,-3.897,-12.829,-2.515,-4.0753,5.1631
-19.02,7.2119,-22.147,13.93,-6.3664,12.827,-27.175,20.213,11.521,17.267,-7.5601,-3.897,-12.829,-2.515,-4.0753,5.1631
-19.02,7.2119,-22.147,13.93,-6.3664,12.827,-27.175,20.213,11.521,17.267,-7.5601,-3.897,-12.829,-2.515,-4.0753,5.1631
-18.993,7.2285,-22.172,13.948,-6.402,12.869,-27.187,20.233,11.576,17.176,-7.5264,-3.967,-12.816,-2.5906,-4.0254,5.0976
-18.993,7.2285,-22.172,13.948,-6.402,12.869,-27.187,20.233,11.576,17.176,-7.5264,-3.967,-12.816,-2.5906,-4.0254,5.0976
-18.993,7.2285,-22.172,13.948,-6.402,12.869,-27.187,20.233,11.576,17.176,-7.5264,-3.967,-12.816,-2.5906,-4.0254,5.0976
-18.993,7.2285,-22.172,13.948,-6.402,12.869,-27.187,20.233,11.576,17.176,-7.5264,-3.967,-12.816,-2.5906,-4.0254,5.0976
-18.94,7.2623,-22.22,13.984,-6.4719,12.953,-27.209,20.274,11.683,16.995,-7.458,-4.1077,-12.79,-2.7437,-3.9244,4.9655
-18.94,7.2623,-22.22,13.984,-6.4719,12.953,-27.209,20.274,11.683,16.995,-7.458,-4.1077,-12.79,-2.7437,-3.9244,4.9655
-18.94,7.2623,-22.22,13.984,-6.4719,12.953,-27.209,20.274,11.683,16.995,-7.458,-4.1077,-12.79,-2.7437,-3.9244,4.9655
-18.94,7.2623,-22.22,13.984,-6.4719,12.953,-27.209,20.274,11.683,16.995,-7.458,-4.1077,-12.79,-2.7437,-3.9244,4.9655
-18.912,7.2795,-22.243,14.002,-6.5061,12.994,-27.22,20.294,11.736,16.904,-7.4233,-4.1783,-12.777,-2.8212,-3.8733,4.899
-18.912,7.2795,-22.243,14.002,-6.5061,12.994,-27.22,20.294,11.736,16.904,-7.4233,-4.1783,-12.777,-2.8212,-3.8733,4.899
-18.857,7.3144,-22.289,14.037,-6.5732,13.077,-27.24,20.332,11.84,16.725,-7.353,-4.32,-12.749,-2.978,-3.7699,4.765
-18.857,7.3144,-22.289,14.037,-6.5732,13.077,-27.24,20.332,11.84,16.725,-7.353,-4.32,-12.749,-2.978,-3.7699,4.765
-18.829,7.332,-22.312,14.054,-6.6061,13.119,-27.25,20.351,11.891,16.635,-7.3173,-4.3911,-12.735,-3.0574,-3.7176,4.6975
-18.8,7.3499,-22.334,14.072,-6.6385,13.16,-27.259,20.37,11.942,16.546,-7.2813,-4.4624,-12.72,-3.1373,-3.6649,4.6296
-18.8,7.3499,-22.334,14.072,-6.6385,13.16,-27.259,20.37,11.942,16.546,-7.2813,-4.4624,-12.72,-3.1373,-3.6649,4.6296
-18.8,7.3499,-22.334,14.072,-6.6385,13.16,-27.259,20.37,11.942,16.546,-7.2813,-4.4624,-12.72,-3.1373,-3.6649,4.6296
-18.772,7.3679,-22.356,14.089,-6.6704,13.201,-27.268,20.388,11.991,16.457,-7.2449,-4.5339,-12.706,-3.2179,-3.6117,4.5615
-18.772,7.3679,-22.356,14.089,-6.6704,13.201,-27.268,20.388,11.991,16.457,-7.2449,-4.5339,-12.706,-3.2179,-3.6117,4.5615
-18.743,7.386,-22.377,14.106,-6.7019,13.242,-27.277,20.406,12.04,16.369,-7.2082,-4.6056,-12.691,-3.2991,-3.5582,4.493
-18.743,7.386,-22.377,14.106,-6.7019,13.242,-27.277,20.406,12.04,16.369,-7.2082,-4.6056,-12.691,-3.2991,-3.5582,4.493
-18.714,7.4043,-22.398,14.123,-6.7329,13.282,-27.286,20.424,12.089,16.281,-7.1712,-4.6774,-12.676,-3.3809,-3.5043,4.4242
-18.714,7.4043,-22.398,14.123,-6.7329,13.282,-27.286,20.424,12.089,16.281,-7.1712,-4.6774,-12.676,-3.3809,-3.5043,4.4242
-18.684,7.4227,-22.419,14.14,-6.7634,13.323,-27.294,20.441,12.136,16.193,-7.1338,-4.7494,-12.66,-3.4633,-3.4499,4.355
-18.684,7.4227,-22.419,14.14,-6.7634,13.323,-27.294,20.441,12.136,16.193,-7.1338,-4.7494,-12.66,-3.4633,-3.4499,4.355
-18.654,7.4413,-22.439,14.156,-6.7935,13.364,-27.302,20.458,12.183,16.105,-7.0961,-4.8216,-12.644,-3.5463,-3.3951,4.2856
-18.654,7.4413,-22.439,14.156,-6.7935,13.364,-27.302,20.458,12.183,16.105,-7.0961,-4.8216,-12.644,-3.5463,-3.3951,4.2856
-18.624,7.4599,-22.459,14.173,-6.8232,13.404,-27.309,20.474,12.23,16.018,-7.058,-4.8939,-12.629,-3.6299,-3.3399,4.2158
-18.624,7.4599,-22.459,14.173,-6.8232,13.404,-27.309,20.474,12.23,16.018,-7.058,-4.8939,-12.629,-3.6299,-3.3399,4.2158
-18.594,7.4787,-22.479,14.189,-6.8523,13.444,-27.316,20.491,12.275,15.931,-7.0196,-4.9664,-12.612,-3.7141,-3.2843,4.1457
-18.594,7.4787,-22.479,14.189,-6.8523,13.444,-27.316,20.491,12.275,15.931,-7.0196,-4.9664,-12.612,-3.7141,-3.2843,4.1457
-18.594,7.4787,-22.479,14.189,-6.8523,13.444,-27.316,20.491,12.275,15.931,-7.0196,-4.9664,-12.612,-3.7141,-3.2843,4.1457
-18.564,7.4975,-22.498,14.206,-6.881,13.484,-27.323,20.506,12.32,15.844,-6.9809,-5.0391,-12.596,-3.7989,-3.2283,4.0753
-18.564,7.4975,-22.498,14.206,-6.881,13.484,-27.323,20.506,12.32,15.844,-6.9809,-5.0391,-12.596,-3.7989,-3.2283,4.0753
-18.564,7.4975,-22.498,14.206,-6.881,13.484,-27.323,20.506,12.32,15.844,-6.9809,-5.0391,-12.596,-3.7989,-3.2283,4.0753
-18.502,7.5355,-22.536,14.238,-6.9371,13.564,-27.336,20.537,12.408,15.672,-6.9024,-5.185,-12.562,-3.9703,-3.115,3.9336
-18.502,7.5355,-22.536,14.238,-6.9371,13.564,-27.336,20.537,12.408,15.672,-6.9024,-5.185,-12.562,-3.9703,-3.115,3.9336
-18.502,7.5355,-22.536,14.238,-6.9371,13.564,-27.336,20.537,12.408,15.672,-6.9024,-5.185,-12.562,-3.9703,-3.115,3.9336
-18.471,7.5546,-22.555,14.253,-6.9644,13.603,-27.342,20.552,12.451,15.586,-6.8626,-5.2582,-12.545,-4.0569,-3.0578,3.8623
-18.471,7.5546,-22.555,14.253,-6.9644,13.603,-27.342,20.552,12.451,15.586,-6.8626,-5.2582,-12.545,-4.0569,-3.0578,3.8623
-18.471,7.5546,-22.555,14.253,-6.9644,13.603,-27.342,20.552,12.451,15.586,-6.8626,-5.2582,-12.545,-4.0569,-3.0578,3.8623
-18.408,7.593,-22.59,14.285,-7.0176,13.682,-27.353,20.581,12.535,15.416,-6.7821,-5.4051,-12.51,-4.2318,-2.942,3.7187
-18.408,7.593,-22.59,14.285,-7.0176,13.682,-27.353,20.581,12.535,15.416,-6.7821,-5.4051,-12.51,-4.2318,-2.942,3.7187
-18.408,7.593,-22.59,14.285,-7.0176,13.682,-27.353,20.581,12.535,15.416,-6.7821,-5.4051,-12.51,-4.2318,-2.942,3.7187
-18.376,7.6123,-22.608,14.3,-7.0436,13.721,-27.358,20.595,12.576,15.331,-6.7413,-5.4788,-12.492,-4.3202,-2.8835,3.6464
-18.344,7.6317,-22.625,14.315,-7.069,13.76,-27.363,20.608,12.616,15.247,-6.7002,-5.5526,-12.474,-4.4091,-2.8246,3.5739
-18.344,7.6317,-22.625,14.315,-7.069,13.76,-27.363,20.608,12.616,15.247,-6.7002,-5.5526,-12.474,-4.4091,-2.8246,3.5739
-18.312,7.651,-22.642,14.33,-7.0941,13.799,-27.367,20.622,12.656,15.163,-6.6587,-5.6267,-12.455,-4.4986,-2.7653,3.501
-18.312,7.651,-22.642,14.33,-7.0941,13.799,-27.367,20.622,12.656,15.163,-6.6587,-5.6267,-12.455,-4.4986,-2.7653,3.501
-18.279,7.6705,-22.658,14.345,-7.1186,13.837,-27.371,20.634,12.695,15.079,-6.6169,-5.7009,-12.436,-4.5886,-2.7055,3.4279
-18.279,7.6705,-22.658,14.345,-7.1186,13.837,-27.371,20.634,12.695,15.079,-6.6169,-5.7009,-12.436,-4.5886,-2.7055,3.4279
-18.246,7.6899,-22.674,14.36,-7.1427,13.875,-27.375,20.647,12.733,14.996,-6.5747,-5.7752,-12.417,-4.6792,-2.6453,3.3544
-18.246,7.6899,-22.674,14.36,-7.1427,13.875,-27.375,20.647,12.733,14.996,-6.5747,-5.7752,-12.417,-4.6792,-2.6453,3.3544
-18.213,7.7094,-22.69,14.374,-7.1664,13.914,-27.379,20.659,12.77,14.913,-6.5322,-5.8497,-12.398,-4.7704,-2.5847,3.2807
-18.18,7.7288,-22.705,14.389,-7.1896,13.951,-27.382,20.671,12.807,14.83,-6.4893,-5.9244,-12.379,-4.8622,-2.5237,3.2067
-18.18,7.7288,-22.705,14.389,-7.1896,13.951,-27.382,20.671,12.807,14.83,-6.4893,-5.9244,-12.379,-4.8622,-2.5237,3.2067
-18.18,7.7288,-22.705,14.389,-7.1896,13.951,-27.382,20.671,12.807,14.83,-6.4893,-5.9244,-12.379,-4.8622,-2.5237,3.2067
-18.147,7.7483,-22.721,14.403,-7.2123,13.989,-27.386,20.682,12.843,14.748,-6.4461,-5.9992,-12.359,-4.9545,-2.4623,3.1324
-18.113,7.7677,-22.736,14.417,-7.2346,14.027,-27.388,20.693,12.878,14.667,-6.4025,-6.0742,-12.339,-5.0473,-2.4004,3.0578
-18.113,7.7677,-22.736,14.417,-7.2346,14.027,-27.388,20.693,12.878,14.667,-6.4025,-6.0742,-12.339,-5.0473,-2.4004,3.0578
-18.079,7.7872,-22.75,14.431,-7.2564,14.064,-27.391,20.703,12.912,14.585,-6.3586,-6.1494,-12.318,-5.1407,-2.3382,2.9829
-18.079,7.7872,-22.75,14.431,-7.2564,14.064,-27.391,20.703,12.912,14.585,-6.3586,-6.1494,-12.318,-5.1407,-2.3382,2.9829
-18.079,7.7872,-22.75,14.431,-7.2564,14.064,-27.391,20.703,12.912,14.585,-6.3586,-6.1494,-12.318,-5.1407,-2.3382,2.9829
-18.045,7.8066,-22.764,14.445,-7.2778,14.101,-27.393,20.714,12.946,14.504,-6.3144,-6.2247,-12.298,-5.2347,-2.2755,2.9078
-18.045,7.8066,-22.764,14.445,-7.2778,14.101,-27.393,20.714,12.946,14.504,-6.3144,-6.2247,-12.298,-5.2347,-2.2755,2.9078
-18.011,7.826,-22.778,14.458,-7.2987,14.138,-27.396,20.724,12.979,14.424,-6.2698,-6.3001,-12.277,-5.3292,-2.2124,2.8323
-18.011,7.826,-22.778,14.458,-7.2987,14.138,-27.396,20.724,12.979,14.424,-6.2698,-6.3001,-12.277,-5.3292,-2.2124,2.8323
-17.977,7.8454,-22.792,14.471,-7.3192,14.175,-27.397,20.733,13.011,14.343,-6.2248,-6.3758,-12.256,-5.4242,-2.1489,2.7566
-17.977,7.8454,-22.792,14.471,-7.3192,14.175,-27.397,20.733,13.011,14.343,-6.2248,-6.3758,-12.256,-5.4242,-2.1489,2.7566
-17.942,7.8647,-22.805,14.485,-7.3392,14.212,-27.399,20.742,13.043,14.264,-6.1796,-6.4515,-12.234,-5.5198,-2.085,2.6807
-17.942,7.8647,-22.805,14.485,-7.3392,14.212,-27.399,20.742,13.043,14.264,-6.1796,-6.4515,-12.234,-5.5198,-2.085,2.6807
-17.942,7.8647,-22.805,14.485,-7.3392,14.212,-27.399,20.742,13.043,14.264,-6.1796,-6.4515,-12.234,-5.5198,-2.085,2.6807
-17.908,7.8839,-22.818,14.498,-7.3588,14.248,-27.4,20.751,13.074,14.184,-6.1339,-6.5275,-12.213,-5.6159,-2.0206,2.6044
-17.873,7.9031,-22.831,14.51,-7.378,14.284,-27.402,20.759,13.104,14.105,-6.0879,-6.6036,-12.191,-5.7126,-1.9559,2.5279
-17.873,7.9031,-22.831,14.51,-7.378,14.284,-27.402,20.759,13.104,14.105,-6.0879,-6.6036,-12.191,-5.7126,-1.9559,2.5279
-17.838,7.9223,-22.843,14.523,-7.3967,14.32,-27.403,20.767,13.133,14.027,-6.0416,-6.6798,-12.169,-5.8098,-1.8907,2.4512
-17.838,7.9223,-22.843,14.523,-7.3967,14.32,-27.403,20.767,13.133,14.027,-6.0416,-6.6798,-12.169,-5.8098,-1.8907,2.4512
-17.802,7.9413,-22.856,14.535,-7.4149,14.356,-27.403,20.775,13.162,13.949,-5.9949,-6.7562,-12.146,-5.9075,-1.8251,2.3741
-17.767,7.9603,-22.867,14.548,-7.4327,14.391,-27.404,20.782,13.19,13.871,-5.9479,-6.8327,-12.124,-6.0057,-1.7591,2.2968
-17.767,7.9603,-22.867,14.548,-7.4327,14.391,-27.404,20.782,13.19,13.871,-5.9479,-6.8327,-12.124,-6.0057,-1.7591,2.2968
-17.767,7.9603,-22.867,14.548,-7.4327,14.391,-27.404,20.782,13.19,13.871,-5.9479,-6.8327,-12.124,-6.0057,-1.7591,2.2968
-17.731,7.9792,-22.879,14.56,-7.4501,14.427,-27.404,20.789,13.217,13.794,-5.9005,-6.9094,-12.101,-6.1044,-1.6926,2.2193
-17.731,7.9792,-22.879,14.56,-7.4501,14.427,-27.404,20.789,13.217,13.794,-5.9005,-6.9094,-12.101,-6.1044,-1.6926,2.2193
-17.695,7.9979,-22.89,14.572,-7.467,14.462,-27.404,20.795,13.243,13.717,-5.8528,-6.9862,-12.078,-6.2037,-1.6258,2.1415
-17.695,7.9979,-22.89,14.572,-7.467,14.462,-27.404,20.795,13.243,13.717,-5.8528,-6.9862,-12.078,-6.2037,-1.6258,2.1415
-17.659,8.0166,-22.901,14.583,-7.4835,14.496,-27.404,20.801,13.269,13.64,-5.8047,-7.0632,-12.054,-6.3034,-1.5586,2.0635
-17.659,8.0166,-22.901,14.583,-7.4835,14.496,-27.404,20.801,13.269,13.64,-5.8047,-7.0632,-12.054,-6.3034,-1.5586,2.0635
-17.623,8.0352,-22.912,14.595,-7.4996,14.531,-27.403,20.807,13.294,13.564,-5.7563,-7.1403,-12.03,-6.4037,-1.4909,1.9852
-17.623,8.0352,-22.912,14.595,-7.4996,14.531,-27.403,20.807,13.294,13.564,-5.7563,-7.1403,-12.03,-6.4037,-1.4909,1.9852
-17.587,8.0536,-22.922,14.606,-7.5152,14.565,-27.403,20.812,13.318,13.489,-5.7076,-7.2176,-12.006,-6.5045,-1.4228,1.9067
-17.587,8.0536,-22.922,14.606,-7.5152,14.565,-27.403,20.812,13.318,13.489,-5.7076,-7.2176,-12.006,-6.5045,-1.4228,1.9067
-17.55,8.0719,-22.932,14.617,-7.5304,14.599,-27.402,20.817,13.341,13.414,-5.6584,-7.295,-11.982,-6.6057,-1.3543,1.8279
-17.55,8.0719,-22.932,14.617,-7.5304,14.599,-27.402,20.817,13.341,13.414,-5.6584,-7.295,-11.982,-6.6057,-1.3543,1.8279
-17.55,8.0719,-22.932,14.617,-7.5304,14.599,-27.402,20.817,13.341,13.414,-5.6584,-7.295,-11.982,-6.6057,-1.3543,1.8279
-17.514,8.09,-22.942,14.628,-7.5452,14.633,-27.401,20.822,13.364,13.339,-5.609,-7.3725,-11.958,-6.7075,-1.2854,1.7489
-17.514,8.09,-22.942,14.628,-7.5452,14.633,-27.401,20.822,13.364,13.339,-5.609,-7.3725,-11.958,-6.7075,-1.2854,1.7489
-17.514,8.09,-22.942,14.628,-7.5452,14.633,-27.401,20.822,13.364,13.339,-5.609,-7.3725,-11.958,-6.7075,-1.2854,1.7489
-17.44,8.1259,-22.961,14.649,-7.5735,14.7,-27.398,20.83,13.407,13.191,-5.509,-7.5281,-11.908,-6.9125,-1.1464,1.5902
-17.44,8.1259,-22.961,14.649,-7.5735,14.7,-27.398,20.83,13.407,13.191,-5.509,-7.5281,-11.908,-6.9125,-1.1464,1.5902
-17.44,8.1259,-22.961,14.649,-7.5735,14.7,-27.398,20.83,13.407,13.191,-5.509,-7.5281,-11.908,-6.9125,-1.1464,1.5902
-17.403,8.1436,-22.97,14.66,-7.587,14.733,-27.397,20.833,13.427,13.118,-5.4586,-7.606,-11.883,-7.0157,-1.0763,1.5106
-17.403,8.1436,-22.97,14.66,-7.587,14.733,-27.397,20.833,13.427,13.118,-5.4586,-7.606,-11.883,-7.0157,-1.0763,1.5106
-17.366,8.1611,-22.979,14.67,-7.6001,14.766,-27.395,20.836,13.447,13.045,-5.4077,-7.6842,-11.857,-7.1194,-1.0058,1.4307
-17.366,8.1611,-22.979,14.67,-7.6001,14.766,-27.395,20.836,13.447,13.045,-5.4077,-7.6842,-11.857,-7.1194,-1.0058,1.4307
-17.291,8.1957,-22.996,14.689,-7.625,14.831,-27.391,20.84,13.484,12.901,-5.305,-7.8408,-11.806,-7.3282,-0.86349,1.2702
-17.291,8.1957,-22.996,14.689,-7.625,14.831,-27.391,20.84,13.484,12.901,-5.305,-7.8408,-11.806,-7.3282,-0.86349,1.2702
-17.291,8.1957,-22.996,14.689,-7.625,14.831,-27.391,20.84,13.484,12.901,-5.305,-7.8408,-11.806,-7.3282,-0.86349,1.2702
-17.291,8.1957,-22.996,14.689,-7.625,14.831,-27.391,20.84,13.484,12.901,-5.305,-7.8408,-11.806,-7.3282,-0.86349,1.2702
-17.253,8.2126,-23.004,14.699,-7.6368,14.863,-27.389,20.842,13.501,12.83,-5.2531,-7.9193,-11.78,-7.4333,-0.79174,1.1897
-17.253,8.2126,-23.004,14.699,-7.6368,14.863,-27.389,20.842,13.501,12.83,-5.2531,-7.9193,-11.78,-7.4333,-0.79174,1.1897
-17.253,8.2126,-23.004,14.699,-7.6368,14.863,-27.389,20.842,13.501,12.83,-5.2531,-7.9193,-11.78,-7.4333,-0.79174,1.1897
-17.178,8.246,-23.019,14.717,-7.6593,14.926,-27.384,20.844,13.533,12.688,-5.1484,-8.0767,-11.726,-7.6449,-0.64705,1.028
-17.178,8.246,-23.019,14.717,-7.6593,14.926,-27.384,20.844,13.533,12.688,-5.1484,-8.0767,-11.726,-7.6449,-0.64705,1.028
-17.14,8.2623,-23.026,14.726,-7.6699,14.957,-27.381,20.845,13.548,12.618,-5.0955,-8.1556,-11.699,-7.7513,-0.57411,0.94682
-17.14,8.2623,-23.026,14.726,-7.6699,14.957,-27.381,20.845,13.548,12.618,-5.0955,-8.1556,-11.699,-7.7513,-0.57411,0.94682
-17.102,8.2784,-23.033,14.734,-7.6801,14.988,-27.378,20.845,13.562,12.549,-5.0422,-8.2347,-11.672,-7.8583,-0.50076,0.86548
-17.102,8.2784,-23.033,14.734,-7.6801,14.988,-27.378,20.845,13.562,12.549,-5.0422,-8.2347,-11.672,-7.8583,-0.50076,0.86548
-17.063,8.2943,-23.04,14.743,-7.6899,15.019,-27.375,20.845,13.575,12.48,-4.9887,-8.3139,-11.645,-7.9656,-0.42702,0.78394
-17.063,8.2943,-23.04,14.743,-7.6899,15.019,-27.375,20.845,13.575,12.48,-4.9887,-8.3139,-11.645,-7.9656,-0.42702,0.78394
-17.063,8.2943,-23.04,14.743,-7.6899,15.019,-27.375,20.845,13.575,12.48,-4.9887,-8.3139,-11.645,-7.9656,-0.42702,0.78394
-17.063,8.2943,-23.04,14.743,-7.6899,15.019,-27.375,20.845,13.575,12.48,-4.9887,-8.3139,-11.645,-7.9656,-0.42702,0.78394
-16.986,8.3253,-23.053,14.759,-7.7083,15.079,-27.369,20.843,13.6,12.344,-4.8805,-8.4726,-11.589,-8.1817,-0.27836,0.62031
-16.986,8.3253,-23.053,14.759,-7.7083,15.079,-27.369,20.843,13.6,12.344,-4.8805,-8.4726,-11.589,-8.1817,-0.27836,0.62031
-16.948,8.3405,-23.059,14.767,-7.7169,15.109,-27.365,20.842,13.61,12.276,-4.8259,-8.5521,-11.561,-8.2904,-0.20343,0.53822
-16.909,8.3553,-23.064,14.774,-7.7251,15.139,-27.362,20.84,13.621,12.209,-4.7709,-8.6318,-11.533,-8.3995,-0.12812,0.45596
-16.909,8.3553,-23.064,14.774,-7.7251,15.139,-27.362,20.84,13.621,12.209,-4.7709,-8.6318,-11.533,-8.3995,-0.12812,0.45596
-16.909,8.3553,-23.064,14.774,-7.7251,15.139,-27.362,20.84,13.621,12.209,-4.7709,-8.6318,-11.533,-8.3995,-0.12812,0.45596
-16.87,8.3699,-23.07,14.782,-7.733,15.168,-27.358,20.838,13.63,12.143,-4.7157,-8.7116,-11.504,-8.509,-0.052415,0.37353
-16.87,8.3699,-23.07,14.782,-7.733,15.168,-27.358,20.838,13.63,12.143,-4.7157,-8.7116,-11.504,-8.509,-0.052415,0.37353
-16.831,8.3843,-23.075,14.789,-7.7404,15.197,-27.354,20.835,13.638,12.077,-4.6601,-8.7915,-11.475,-8.619,0.023676,0.29092
-16.831,8.3843,-23.075,14.789,-7.7404,15.197,-27.354,20.835,13.638,12.077,-4.6601,-8.7915,-11.475,-8.619,0.023676,0.29092
-16.792,8.3983,-23.08,14.796,-7.7475,15.226,-27.35,20.832,13.646,12.012,-4.6041,-8.8716,-11.446,-8.7294,0.10015,0.20815
-16.792,8.3983,-23.08,14.796,-7.7475,15.226,-27.35,20.832,13.646,12.012,-4.6041,-8.8716,-11.446,-8.7294,0.10015,0.20815
-16.753,8.412,-23.085,14.802,-7.7542,15.254,-27.346,20.828,13.653,11.947,-4.5478,-8.9517,-11.417,-8.8402,0.17701,0.12523
-16.753,8.412,-23.085,14.802,-7.7542,15.254,-27.346,20.828,13.653,11.947,-4.5478,-8.9517,-11.417,-8.8402,0.17701,0.12523
-16.714,8.4255,-23.089,14.809,-7.7605,15.282,-27.342,20.825,13.659,11.883,-4.4912,-9.032,-11.388,-8.9513,0.25426,0.042144
-16.714,8.4255,-23.089,14.809,-7.7605,15.282,-27.342,20.825,13.659,11.883,-4.4912,-9.032,-11.388,-8.9513,0.25426,0.042144
-16.674,8.4386,-23.094,14.815,-7.7665,15.31,-27.338,20.82,13.665,11.819,-4.4343,-9.1124,-11.358,-9.0629,0.33188,-0.04109
-16.674,8.4386,-23.094,14.815,-7.7665,15.31,-27.338,20.82,13.665,11.819,-4.4343,-9.1124,-11.358,-9.0629,0.33188,-0.04109
-16.635,8.4514,-23.098,14.821,-7.772,15.337,-27.333,20.816,13.669,11.756,-4.377,-9.1929,-11.328,-9.1749,0.40989,-0.12447
-16.635,8.4514,-23.098,14.821,-7.772,15.337,-27.333,20.816,13.669,11.756,-4.377,-9.1929,-11.328,-9.1749,0.40989,-0.12447
-16.635,8.4514,-23.098,14.821,-7.772,15.337,-27.333,20.816,13.669,11.756,-4.377,-9.1929,-11.328,-9.1749,0.40989,-0.12447
-16.595,8.4639,-23.102,14.827,-7.7772,15.364,-27.329,20.811,13.673,11.693,-4.3193,-9.2735,-11.298,-9.2873,0.48827,-0.208
-16.595,8.4639,-23.102,14.827,-7.7772,15.364,-27.329,20.811,13.673,11.693,-4.3193,-9.2735,-11.298,-9.2873,0.48827,-0.208
-16.595,8.4639,-23.102,14.827,-7.7772,15.364,-27.329,20.811,13.673,11.693,-4.3193,-9.2735,-11.298,-9.2873,0.48827,-0.208
-16.516,8.4878,-23.109,14.838,-7.7866,15.418,-27.32,20.799,13.678,11.569,-4.2031,-9.4351,-11.237,-9.5132,0.64615,-0.37546
-16.516,8.4878,-23.109,14.838,-7.7866,15.418,-27.32,20.799,13.678,11.569,-4.2031,-9.4351,-11.237,-9.5132,0.64615,-0.37546
-16.476,8.4993,-23.112,14.843,-7.7907,15.444,-27.315,20.793,13.679,11.508,-4.1445,-9.5161,-11.206,-9.6268,0.72565,-0.45938
-16.476,8.4993,-23.112,14.843,-7.7907,15.444,-27.315,20.793,13.679,11.508,-4.1445,-9.5161,-11.206,-9.6268,0.72565,-0.45938
-16.436,8.5104,-23.115,14.848,-7.7945,15.47,-27.31,20.786,13.679,11.447,-4.0856,-9.5972,-11.175,-9.7407,0.80552,-0.54344
-16.436,8.5104,-23.115,14.848,-7.7945,15.47,-27.31,20.786,13.679,11.447,-4.0856,-9.5972,-11.175,-9.7407,0.80552,-0.54344
-16.396,8.5211,-23.118,14.852,-7.7979,15.495,-27.305,20.779,13.679,11.387,-4.0263,-9.6783,-11.144,-9.855,0.88575,-0.62761
-16.396,8.5211,-23.118,14.852,-7.7979,15.495,-27.305,20.779,13.679,11.387,-4.0263,-9.6783,-11.144,-9.855,0.88575,-0.62761
-16.356,8.5315,-23.121,14.857,-7.8009,15.52,-27.3,20.772,13.678,11.328,-3.9667,-9.7596,-11.113,-9.9696,0.96635,-0.7119
-16.316,8.5414,-23.123,14.861,-7.8037,15.545,-27.295,20.764,13.676,11.269,-3.9068,-9.841,-11.081,-10.085,1.0473,-0.7963
-16.316,8.5414,-23.123,14.861,-7.8037,15.545,-27.295,20.764,13.676,11.269,-3.9068,-9.841,-11.081,-10.085,1.0473,-0.7963
-16.316,8.5414,-23.123,14.861,-7.8037,15.545,-27.295,20.764,13.676,11.269,-3.9068,-9.841,-11.081,-10.085,1.0473,-0.7963
-16.276,8.551,-23.125,14.865,-7.806,15.57,-27.29,20.756,13.673,11.211,-3.8465,-9.9225,-11.049,-10.2,1.1286,-0.88081
-16.276,8.551,-23.125,14.865,-7.806,15.57,-27.29,20.756,13.673,11.211,-3.8465,-9.9225,-11.049,-10.2,1.1286,-0.88081
-16.235,8.5602,-23.127,14.868,-7.8081,15.594,-27.285,20.747,13.669,11.153,-3.786,-10.004,-11.017,-10.316,1.2103,-0.96543
-16.235,8.5602,-23.127,14.868,-7.8081,15.594,-27.285,20.747,13.669,11.153,-3.786,-10.004,-11.017,-10.316,1.2103,-0.96543
-16.195,8.569,-23.129,14.872,-7.8098,15.618,-27.28,20.738,13.664,11.096,-3.7251,-10.086,-10.985,-10.432,1.2923,-1.0501
-16.195,8.569,-23.129,14.872,-7.8098,15.618,-27.28,20.738,13.664,11.096,-3.7251,-10.086,-10.985,-10.432,1.2923,-1.0501
-16.195,8.569,-23.129,14.872,-7.8098,15.618,-27.28,20.738,13.664,11.096,-3.7251,-10.086,-10.985,-10.432,1.2923,-1.0501
-16.154,8.5774,-23.131,14.875,-7.8112,15.641,-27.275,20.729,13.659,11.039,-3.6639,-10.168,-10.953,-10.548,1.3747,-1.1349
-16.154,8.5774,-23.131,14.875,-7.8112,15.641,-27.275,20.729,13.659,11.039,-3.6639,-10.168,-10.953,-10.548,1.3747,-1.1349
-16.154,8.5774,-23.131,14.875,-7.8112,15.641,-27.275,20.729,13.659,11.039,-3.6639,-10.168,-10.953,-10.548,1.3747,-1.1349
-16.073,8.5929,-23.134,14.881,-7.813,15.687,-27.264,20.709,13.646,10.928,-3.5405,-10.332,-10.887,-10.782,1.5405,-1.3048
-16.073,8.5929,-23.134,14.881,-7.813,15.687,-27.264,20.709,13.646,10.928,-3.5405,-10.332,-10.887,-10.782,1.5405,-1.3048
-16.032,8.6,-23.135,14.884,-7.8134,15.71,-27.259,20.698,13.638,10.873,-3.4783,-10.414,-10.855,-10.9,1.624,-1.3899
-16.032,8.6,-23.135,14.884,-7.8134,15.71,-27.259,20.698,13.638,10.873,-3.4783,-10.414,-10.855,-10.9,1.624,-1.3899
-16.032,8.6,-23.135,14.884,-7.8134,15.71,-27.259,20.698,13.638,10.873,-3.4783,-10.414,-10.855,-10.9,1.624,-1.3899
-15.992,8.6067,-23.136,14.886,-7.8134,15.732,-27.254,20.687,13.629,10.819,-3.4159,-10.496,-10.821,-11.017,1.7077,-1.475
-15.992,8.6067,-23.136,14.886,-7.8134,15.732,-27.254,20.687,13.629,10.819,-3.4159,-10.496,-10.821,-11.017,1.7077,-1.475
-15.951,8.6129,-23.136,14.888,-7.8132,15.754,-27.248,20.676,13.62,10.765,-3.3531,-10.578,-10.788,-11.135,1.7918,-1.5602
-15.951,8.6129,-23.136,14.888,-7.8132,15.754,-27.248,20.676,13.62,10.765,-3.3531,-10.578,-10.788,-11.135,1.7918,-1.5602
-15.91,8.6187,-23.137,14.89,-7.8127,15.775,-27.243,20.664,13.609,10.712,-3.2899,-10.661,-10.755,-11.254,1.8763,-1.6455
-15.869,8.624,-23.137,14.891,-7.8118,15.796,-27.237,20.652,13.598,10.659,-3.2265,-10.743,-10.721,-11.372,1.961,-1.7308
-15.828,8.6288,-23.137,14.893,-7.8107,15.817,-27.232,20.639,13.586,10.607,-3.1628,-10.826,-10.688,-11.491,2.0462,-1.8162
-15.828,8.6288,-23.137,14.893,-7.8107,15.817,-27.232,20.639,13.586,10.607,-3.1628,-10.826,-10.688,-11.491,2.0462,-1.8162
-15.828,8.6288,-23.137,14.893,-7.8107,15.817,-27.232,20.639,13.586,10.607,-3.1628,-10.826,-10.688,-11.491,2.0462,-1.8162
-15.787,8.6332,-23.137,14.894,-7.8092,15.837,-27.226,20.626,13.573,10.556,-3.0988,-10.908,-10.654,-11.611,2.1316,-1.9017
-15.787,8.6332,-23.137,14.894,-7.8092,15.837,-27.226,20.626,13.573,10.556,-3.0988,-10.908,-10.654,-11.611,2.1316,-1.9017
-15.746,8.6371,-23.137,14.895,-7.8075,15.857,-27.221,20.613,13.559,10.505,-3.0344,-10.991,-10.62,-11.73,2.2173,-1.9871
-15.746,8.6371,-23.137,14.895,-7.8075,15.857,-27.221,20.613,13.559,10.505,-3.0344,-10.991,-10.62,-11.73,2.2173,-1.9871
-15.705,8.6405,-23.137,14.896,-7.8055,15.877,-27.215,20.599,13.544,10.455,-2.9697,-11.074,-10.585,-11.85,2.3034,-2.0727
-15.705,8.6405,-23.137,14.896,-7.8055,15.877,-27.215,20.599,13.544,10.455,-2.9697,-11.074,-10.585,-11.85,2.3034,-2.0727
-15.664,8.6433,-23.137,14.896,-7.8032,15.896,-27.21,20.585,13.529,10.405,-2.9048,-11.157,-10.551,-11.97,2.3898,-2.1582
-15.664,8.6433,-23.137,14.896,-7.8032,15.896,-27.21,20.585,13.529,10.405,-2.9048,-11.157,-10.551,-11.97,2.3898,-2.1582
-15.622,8.6457,-23.136,14.896,-7.8006,15.915,-27.204,20.571,13.513,10.356,-2.8395,-11.24,-10.517,-12.091,2.4765,-2.2438
-15.622,8.6457,-23.136,14.896,-7.8006,15.915,-27.204,20.571,13.513,10.356,-2.8395,-11.24,-10.517,-12.091,2.4765,-2.2438
-15.622,8.6457,-23.136,14.896,-7.8006,15.915,-27.204,20.571,13.513,10.356,-2.8395,-11.24,-10.517,-12.091,2.4765,-2.2438
-15.581,8.6476,-23.135,14.896,-7.7977,15.934,-27.199,20.556,13.495,10.308,-2.7739,-11.323,-10.482,-12.212,2.5636,-2.3295
-15.581,8.6476,-23.135,14.896,-7.7977,15.934,-27.199,20.556,13.495,10.308,-2.7739,-11.323,-10.482,-12.212,2.5636,-2.3295
-15.581,8.6476,-23.135,14.896,-7.7977,15.934,-27.199,20.556,13.495,10.308,-2.7739,-11.323,-10.482,-12.212,2.5636,-2.3295
-15.498,8.6498,-23.133,14.895,-7.7911,15.97,-27.188,20.525,13.458,10.213,-2.6419,-11.489,-10.412,-12.454,2.7386,-2.5008
-15.498,8.6498,-23.133,14.895,-7.7911,15.97,-27.188,20.525,13.458,10.213,-2.6419,-11.489,-10.412,-12.454,2.7386,-2.5008
-15.498,8.6498,-23.133,14.895,-7.7911,15.97,-27.188,20.525,13.458,10.213,-2.6419,-11.489,-10.412,-12.454,2.7386,-2.5008
-15.498,8.6498,-23.133,14.895,-7.7911,15.97,-27.188,20.525,13.458,10.213,-2.6419,-11.489,-10.412,-12.454,2.7386,-2.5008
-15.415,8.6498,-23.131,14.894,-7.7834,16.004,-27.177,20.493,13.418,10.121,-2.5087,-11.656,-10.342,-12.697,2.9148,-2.6721
-15.415,8.6498,-23.131,14.894,-7.7834,16.004,-27.177,20.493,13.418,10.121,-2.5087,-11.656,-10.342,-12.697,2.9148,-2.6721
-15.374,8.649,-23.129,14.892,-7.7792,16.021,-27.172,20.476,13.397,10.075,-2.4416,-11.74,-10.307,-12.819,3.0033,-2.7578
-15.374,8.649,-23.129,14.892,-7.7792,16.021,-27.172,20.476,13.397,10.075,-2.4416,-11.74,-10.307,-12.819,3.0033,-2.7578
-15.332,8.6477,-23.127,14.891,-7.7747,16.037,-27.167,20.459,13.374,10.031,-2.3743,-11.823,-10.271,-12.942,3.0921,-2.8435
-15.332,8.6477,-23.127,14.891,-7.7747,16.037,-27.167,20.459,13.374,10.031,-2.3743,-11.823,-10.271,-12.942,3.0921,-2.8435
-15.291,8.6458,-23.125,14.889,-7.77,16.053,-27.161,20.441,13.351,9.9865,-2.3066,-11.907,-10.236,-13.064,3.1813,-2.9291
-15.291,8.6458,-23.125,14.889,-7.77,16.053,-27.161,20.441,13.351,9.9865,-2.3066,-11.907,-10.236,-13.064,3.1813,-2.9291
-15.249,8.6433,-23.124,14.887,-7.765,16.068,-27.156,20.423,13.327,9.943,-2.2387,-11.991,-10.2,-13.187,3.2707,-3.0148
-15.249,8.6433,-23.124,14.887,-7.765,16.068,-27.156,20.423,13.327,9.943,-2.2387,-11.991,-10.2,-13.187,3.2707,-3.0148
-15.207,8.6402,-23.121,14.885,-7.7598,16.083,-27.151,20.405,13.302,9.9001,-2.1705,-12.074,-10.165,-13.31,3.3604,-3.1004
-15.207,8.6402,-23.121,14.885,-7.7598,16.083,-27.151,20.405,13.302,9.9001,-2.1705,-12.074,-10.165,-13.31,3.3604,-3.1004
-15.207,8.6402,-23.121,14.885,-7.7598,16.083,-27.151,20.405,13.302,9.9001,-2.1705,-12.074,-10.165,-13.31,3.3604,-3.1004
-15.166,8.6366,-23.119,14.883,-7.7543,16.098,-27.146,20.387,13.276,9.8579,-2.1019,-12.158,-10.129,-13.433,3.4504,-3.186
-15.166,8.6366,-23.119,14.883,-7.7543,16.098,-27.146,20.387,13.276,9.8579,-2.1019,-12.158,-10.129,-13.433,3.4504,-3.186
-15.124,8.6324,-23.117,14.88,-7.7486,16.112,-27.141,20.368,13.25,9.8163,-2.0332,-12.242,-10.093,-13.557,3.5406,-3.2716
-15.124,8.6324,-23.117,14.88,-7.7486,16.112,-27.141,20.368,13.25,9.8163,-2.0332,-12.242,-10.093,-13.557,3.5406,-3.2716
-15.124,8.6324,-23.117,14.88,-7.7486,16.112,-27.141,20.368,13.25,9.8163,-2.0332,-12.242,-10.093,-13.557,3.5406,-3.2716
-15.124,8.6324,-23.117,14.88,-7.7486,16.112,-27.141,20.368,13.25,9.8163,-2.0332,-12.242,-10.093,-13.557,3.5406,-3.2716
-15.04,8.6221,-23.112,14.874,-7.7365,16.139,-27.131,20.329,13.194,9.7348,-1.8947,-12.41,-10.021,-13.805,3.7219,-3.4427
-15.04,8.6221,-23.112,14.874,-7.7365,16.139,-27.131,20.329,13.194,9.7348,-1.8947,-12.41,-10.021,-13.805,3.7219,-3.4427
-15.04,8.6221,-23.112,14.874,-7.7365,16.139,-27.131,20.329,13.194,9.7348,-1.8947,-12.41,-10.021,-13.805,3.7219,-3.4427
-15.04,8.6221,-23.112,14.874,-7.7365,16.139,-27.131,20.329,13.194,9.7348,-1.8947,-12.41,-10.021,-13.805,3.7219,-3.4427
-14.956,8.6094,-23.106,14.867,-7.7235,16.165,-27.121,20.288,13.135,9.6559,-1.7551,-12.579,-9.9484,-14.053,3.9043,-3.6135
-14.956,8.6094,-23.106,14.867,-7.7235,16.165,-27.121,20.288,13.135,9.6559,-1.7551,-12.579,-9.9484,-14.053,3.9043,-3.6135
-14.956,8.6094,-23.106,14.867,-7.7235,16.165,-27.121,20.288,13.135,9.6559,-1.7551,-12.579,-9.9484,-14.053,3.9043,-3.6135
-14.956,8.6094,-23.106,14.867,-7.7235,16.165,-27.121,20.288,13.135,9.6559,-1.7551,-12.579,-9.9484,-14.053,3.9043,-3.6135
-14.872,8.5943,-23.1,14.859,-7.7096,16.189,-27.112,20.246,13.072,9.5795,-1.6145,-12.747,-9.8757,-14.303,4.0877,-3.7842
-14.872,8.5943,-23.1,14.859,-7.7096,16.189,-27.112,20.246,13.072,9.5795,-1.6145,-12.747,-9.8757,-14.303,4.0877,-3.7842
-14.872,8.5943,-23.1,14.859,-7.7096,16.189,-27.112,20.246,13.072,9.5795,-1.6145,-12.747,-9.8757,-14.303,4.0877,-3.7842
-14.788,8.5766,-23.094,14.851,-7.6949,16.211,-27.103,20.203,13.005,9.5056,-1.4727,-12.916,-9.8027,-14.553,4.2721,-3.9546
-14.788,8.5766,-23.094,14.851,-7.6949,16.211,-27.103,20.203,13.005,9.5056,-1.4727,-12.916,-9.8027,-14.553,4.2721,-3.9546
-14.788,8.5766,-23.094,14.851,-7.6949,16.211,-27.103,20.203,13.005,9.5056,-1.4727,-12.916,-9.8027,-14.553,4.2721,-3.9546
-14.788,8.5766,-23.094,14.851,-7.6949,16.211,-27.103,20.203,13.005,9.5056,-1.4727,-12.916,-9.8027,-14.553,4.2721,-3.9546
-14.704,8.5563,-23.087,14.841,-7.6794,16.232,-27.094,20.159,12.936,9.4342,-1.3299,-13.086,-9.7294,-14.804,4.4574,-4.1246
-14.704,8.5563,-23.087,14.841,-7.6794,16.232,-27.094,20.159,12.936,9.4342,-1.3299,-13.086,-9.7294,-14.804,4.4574,-4.1246
-14.662,8.5452,-23.083,14.836,-7.6714,16.241,-27.09,20.136,12.899,9.3995,-1.258,-13.17,-9.6928,-14.929,4.5505,-4.2096
-14.662,8.5452,-23.083,14.836,-7.6714,16.241,-27.09,20.136,12.899,9.3995,-1.258,-13.17,-9.6928,-14.929,4.5505,-4.2096
-14.62,8.5334,-23.08,14.83,-7.6631,16.25,-27.086,20.113,12.862,9.3654,-1.186,-13.255,-9.656,-15.055,4.6437,-4.2944
-14.62,8.5334,-23.08,14.83,-7.6631,16.25,-27.086,20.113,12.862,9.3654,-1.186,-13.255,-9.656,-15.055,4.6437,-4.2944
-14.578,8.5209,-23.076,14.824,-7.6547,16.259,-27.082,20.089,12.824,9.3319,-1.1136,-13.34,-9.6193,-15.181,4.7372,-4.3791
-14.578,8.5209,-23.076,14.824,-7.6547,16.259,-27.082,20.089,12.824,9.3319,-1.1136,-13.34,-9.6193,-15.181,4.7372,-4.3791
-14.578,8.5209,-23.076,14.824,-7.6547,16.259,-27.082,20.089,12.824,9.3319,-1.1136,-13.34,-9.6193,-15.181,4.7372,-4.3791
-14.536,8.5077,-23.072,14.818,-7.6461,16.268,-27.078,20.065,12.786,9.299,-1.041,-13.425,-9.5825,-15.307,4.8309,-4.4637
-14.536,8.5077,-23.072,14.818,-7.6461,16.268,-27.078,20.065,12.786,9.299,-1.041,-13.425,-9.5825,-15.307,4.8309,-4.4637
-14.536,8.5077,-23.072,14.818,-7.6461,16.268,-27.078,20.065,12.786,9.299,-1.041,-13.425,-9.5825,-15.307,4.8309,-4.4637
-14.536,8.5077,-23.072,14.818,-7.6461,16.268,-27.078,20.065,12.786,9.299,-1.041,-13.425,-9.5825,-15.307,4.8309,-4.4637
-14.451,8.4794,-23.064,14.806,-7.6284,16.283,-27.07,20.017,12.705,9.2352,-0.89499,-13.595,-9.5088,-15.56,5.0189,-4.6326
-14.451,8.4794,-23.064,14.806,-7.6284,16.283,-27.07,20.017,12.705,9.2352,-0.89499,-13.595,-9.5088,-15.56,5.0189,-4.6326
-14.451,8.4794,-23.064,14.806,-7.6284,16.283,-27.07,20.017,12.705,9.2352,-0.89499,-13.595,-9.5088,-15.56,5.0189,-4.6326
-14.367,8.4483,-23.055,14.792,-7.61,16.297,-27.063,19.967,12.622,9.1739,-0.74797,-13.765,-9.435,-15.814,5.2078,-4.801
-14.367,8.4483,-23.055,14.792,-7.61,16.297,-27.063,19.967,12.622,9.1739,-0.74797,-13.765,-9.435,-15.814,5.2078,-4.801
-14.324,8.4316,-23.051,14.785,-7.6006,16.303,-27.06,19.941,12.578,9.1442,-0.67408,-13.85,-9.3981,-15.941,5.3025,-4.885
-14.324,8.4316,-23.051,14.785,-7.6006,16.303,-27.06,19.941,12.578,9.1442,-0.67408,-13.85,-9.3981,-15.941,5.3025,-4.885
-14.324,8.4316,-23.051,14.785,-7.6006,16.303,-27.06,19.941,12.578,9.1442,-0.67408,-13.85,-9.3981,-15.941,5.3025,-4.885
-14.282,8.4143,-23.046,14.778,-7.591,16.309,-27.057,19.915,12.534,9.1152,-0.59994,-13.935,-9.3612,-16.068,5.3975,-4.9689
-14.24,8.3962,-23.042,14.77,-7.5813,16.314,-27.053,19.889,12.489,9.0867,-0.52555,-14.02,-9.3243,-16.195,5.4926,-5.0526
-14.24,8.3962,-23.042,14.77,-7.5813,16.314,-27.053,19.889,12.489,9.0867,-0.52555,-14.02,-9.3243,-16.195,5.4926,-5.0526
-14.197,8.3774,-23.037,14.763,-7.5714,16.319,-27.05,19.863,12.444,9.0589,-0.45092,-14.106,-9.2874,-16.322,5.5879,-5.1362
-14.197,8.3774,-23.037,14.763,-7.5714,16.319,-27.05,19.863,12.444,9.0589,-0.45092,-14.106,-9.2874,-16.322,5.5879,-5.1362
-14.155,8.3579,-23.033,14.755,-7.5614,16.323,-27.048,19.836,12.397,9.0317,-0.37604,-14.191,-9.2505,-16.45,5.6834,-5.2196
-14.155,8.3579,-23.033,14.755,-7.5614,16.323,-27.048,19.836,12.397,9.0317,-0.37604,-14.191,-9.2505,-16.45,5.6834,-5.2196
-14.112,8.3377,-23.028,14.746,-7.5512,16.327,-27.045,19.809,12.349,9.0052,-0.30092,-14.276,-9.2137,-16.577,5.779,-5.3029
-14.112,8.3377,-23.028,14.746,-7.5512,16.327,-27.045,19.809,12.349,9.0052,-0.30092,-14.276,-9.2137,-16.577,5.779,-5.3029
-14.112,8.3377,-23.028,14.746,-7.5512,16.327,-27.045,19.809,12.349,9.0052,-0.30092,-14.276,-9.2137,-16.577,5.779,-5.3029
-14.07,8.3167,-23.023,14.738,-7.541,16.33,-27.042,19.782,12.301,8.9793,-0.22556,-14.362,-9.1768,-16.705,5.8749,-5.386
-14.027,8.2949,-23.018,14.729,-7.5305,16.333,-27.04,19.754,12.251,8.954,-0.14996,-14.447,-9.14,-16.833,5.9709,-5.469
-14.027,8.2949,-23.018,14.729,-7.5305,16.333,-27.04,19.754,12.251,8.954,-0.14996,-14.447,-9.14,-16.833,5.9709,-5.469
-13.985,8.2724,-23.013,14.72,-7.52,16.336,-27.038,19.726,12.201,8.9293,-0.074128,-14.533,-9.1032,-16.961,6.067,-5.5517
-13.985,8.2724,-23.013,14.72,-7.52,16.336,-27.038,19.726,12.201,8.9293,-0.074128,-14.533,-9.1032,-16.961,6.067,-5.5517
-13.985,8.2724,-23.013,14.72,-7.52,16.336,-27.038,19.726,12.201,8.9293,-0.074128,-14.533,-9.1032,-16.961,6.067,-5.5517
-13.942,8.2492,-23.008,14.711,-7.5093,16.338,-27.035,19.698,12.15,8.9053,0.0019401,-14.618,-9.0664,-17.089,6.1633,-5.6343
-13.942,8.2492,-23.008,14.711,-7.5093,16.338,-27.035,19.698,12.15,8.9053,0.0019401,-14.618,-9.0664,-17.089,6.1633,-5.6343
-13.942,8.2492,-23.008,14.711,-7.5093,16.338,-27.035,19.698,12.15,8.9053,0.0019401,-14.618,-9.0664,-17.089,6.1633,-5.6343
-13.857,8.2004,-22.998,14.692,-7.4876,16.341,-27.032,19.64,12.045,8.8591,0.15477,-14.79,-8.993,-17.345,6.3564,-5.7989
-13.857,8.2004,-22.998,14.692,-7.4876,16.341,-27.032,19.64,12.045,8.8591,0.15477,-14.79,-8.993,-17.345,6.3564,-5.7989
-13.857,8.2004,-22.998,14.692,-7.4876,16.341,-27.032,19.64,12.045,8.8591,0.15477,-14.79,-8.993,-17.345,6.3564,-5.7989
-13.814,8.1748,-22.993,14.682,-7.4766,16.341,-27.03,19.611,11.992,8.8369,0.23153,-14.875,-8.9564,-17.473,6.4532,-5.8809
-13.772,8.1485,-22.987,14.672,-7.4655,16.341,-27.028,19.582,11.937,8.8154,0.30852,-14.961,-8.9198,-17.601,6.55,-5.9628
-13.772,8.1485,-22.987,14.672,-7.4655,16.341,-27.028,19.582,11.937,8.8154,0.30852,-14.961,-8.9198,-17.601,6.55,-5.9628
-13.729,8.1213,-22.982,14.662,-7.4543,16.341,-27.027,19.552,11.882,8.7945,0.38573,-15.047,-8.8833,-17.73,6.6471,-6.0444
-13.729,8.1213,-22.982,14.662,-7.4543,16.341,-27.027,19.552,11.882,8.7945,0.38573,-15.047,-8.8833,-17.73,6.6471,-6.0444
-13.686,8.0934,-22.977,14.651,-7.443,16.34,-27.026,19.522,11.825,8.7742,0.46316,-15.133,-8.8469,-17.858,6.7442,-6.1258
-13.686,8.0934,-22.977,14.651,-7.443,16.34,-27.026,19.522,11.825,8.7742,0.46316,-15.133,-8.8469,-17.858,6.7442,-6.1258
-13.686,8.0934,-22.977,14.651,-7.443,16.34,-27.026,19.522,11.825,8.7742,0.46316,-15.133,-8.8469,-17.858,6.7442,-6.1258
-13.644,8.0647,-22.971,14.641,-7.4316,16.339,-27.025,19.492,11.768,8.7545,0.54082,-15.219,-8.8105,-17.987,6.8415,-6.2069
-13.601,8.0352,-22.966,14.63,-7.4201,16.337,-27.024,19.461,11.71,8.7354,0.61869,-15.305,-8.7742,-18.116,6.9389,-6.2879
-13.601,8.0352,-22.966,14.63,-7.4201,16.337,-27.024,19.461,11.71,8.7354,0.61869,-15.305,-8.7742,-18.116,6.9389,-6.2879
-13.558,8.0049,-22.96,14.619,-7.4085,16.335,-27.023,19.43,11.651,8.717,0.69678,-15.391,-8.738,-18.244,7.0364,-6.3686
