871.54,54.233,19.158,0,0.027748,0,1000.5,70.84,0,0,0,0,0.013109,1
871.54,54.233,19.158,0,0.027748,0,1000.5,70.84,0,0,0,0,0.013109,1
872.69,54.233,19.16,0,0.027941,0,1000.5,70.84,0,0,0,0,0.013225,1
872.69,54.233,19.16,0,0.027941,0,1000.5,70.84,0,0,0,0,0.013225,1
873.07,54.233,19.16,0,0.028005,0,1000.5,70.84,0,0,0,0,0.013264,1
873.07,54.233,19.16,0,0.028005,0,1000.5,70.84,0,0,0,0,0.013264,1
873.07,54.233,19.16,0,0.028005,0,1000.5,70.84,0,0,0,0,0.013264,1
873.07,54.233,19.16,0,0.028005,0,1000.5,70.84,0,0,0,0,0.013264,1
873.07,54.233,19.16,0,0.028005,0,1000.5,70.84,0,0,0,0,0.013264,1
873.07,54.233,19.16,0,0.028005,0,1000.5,70.84,0,0,0,0,0.013264,1
873.07,54.233,19.16,0,0.028005,0,1000.5,70.84,0,0,0,0,0.013264,1
873.07,54.233,19.16,0,0.028005,0,1000.5,70.84,0,0,0,0,0.013264,1
874.22,54.233,19.162,0,0.028197,0,1000.5,70.84,0,0,0,0,0.013382,1
874.22,54.233,19.162,0,0.028197,0,1000.5,70.84,0,0,0,0,0.013382,1
874.61,54.233,19.162,0,0.028261,0,1000.5,70.84,0,0,0,0,0.013422,1
874.61,54.233,19.162,0,0.028261,0,1000.5,70.84,0,0,0,0,0.013422,1
874.61,54.233,19.162,0,0.028261,0,1000.5,70.84,0,0,0,0,0.013422,1
874.61,54.233,19.162,0,0.028261,0,1000.5,70.84,0,0,0,0,0.013422,1
874.61,54.233,19.162,0,0.028261,0,1000.5,70.84,0,0,0,0,0.013422,1
874.61,54.233,19.162,0,0.028261,0,1000.5,70.84,0,0,0,0,0.013422,1
874.61,54.233,19.162,0,0.028261,0,1000.5,70.84,0,0,0,0,0.013422,1
874.61,54.233,19.162,0,0.028261,0,1000.5,70.84,0,0,0,0,0.013422,1
876.52,54.233,19.165,0,0.028579,0,1000.5,70.84,0,0,0,0,0.013626,1
876.52,54.233,19.165,0,0.028579,0,1000.5,70.84,0,0,0,0,0.013626,1
876.52,54.233,19.165,0,0.028579,0,1000.5,70.84,0,0,0,0,0.013626,1
876.52,54.233,19.165,0,0.028579,0,1000.5,70.84,0,0,0,0,0.013626,1
876.52,54.233,19.165,0,0.028579,0,1000.5,70.84,0,0,0,0,0.013626,1
876.52,54.233,19.165,0,0.028579,0,1000.5,70.84,0,0,0,0,0.013626,1
876.52,54.233,19.165,0,0.028579,0,1000.5,70.84,0,0,0,0,0.013626,1
876.52,54.233,19.165,0,0.028579,0,1000.5,70.84,0,0,0,0,0.013626,1
876.52,54.233,19.165,0,0.028579,0,1000.5,70.84,0,0,0,0,0.013626,1
876.52,54.233,19.165,0,0.028579,0,1000.5,70.84,0,0,0,0,0.013626,1
876.52,54.233,19.165,0,0.028579,0,1000.5,70.84,0,0,0,0,0.013626,1
876.52,54.233,19.165,0,0.028579,0,1000.5,70.84,0,0,0,0,0.013626,1
876.52,54.233,19.165,0,0.028579,0,1000.5,70.84,0,0,0,0,0.013626,1
876.52,54.233,19.165,0,0.028579,0,1000.5,70.84,0,0,0,0,0.013626,1
876.52,54.233,19.165,0,0.028579,0,1000.5,70.84,0,0,0,0,0.013626,1
876.52,54.233,19.165,0,0.028579,0,1000.5,70.84,0,0,0,0,0.013626,1
879.59,54.233,19.17,0,0.029083,0,1000.5,70.84,0,0,0,0,0.013965,1
879.59,54.233,19.17,0,0.029083,0,1000.5,70.84,0,0,0,0,0.013965,1
879.59,54.233,19.17,0,0.029083,0,1000.5,70.84,0,0,0,0,0.013965,1
879.59,54.233,19.17,0,0.029083,0,1000.5,70.84,0,0,0,0,0.013965,1
879.59,54.233,19.17,0,0.029083,0,1000.5,70.84,0,0,0,0,0.013965,1
879.59,54.233,19.17,0,0.029083,0,1000.5,70.84,0,0,0,0,0.013965,1
879.59,54.233,19.17,0,0.029083,0,1000.5,70.84,0,0,0,0,0.013965,1
879.59,54.233,19.17,0,0.029083,0,1000.5,70.84,0,0,0,0,0.013965,1
879.59,54.233,19.17,0,0.029083,0,1000.5,70.84,0,0,0,0,0.013965,1
879.59,54.233,19.17,0,0.029083,0,1000.5,70.84,0,0,0,0,0.013965,1
879.59,54.233,19.17,0,0.029083,0,1000.5,70.84,0,0,0,0,0.013965,1
879.59,54.233,19.17,0,0.029083,0,1000.5,70.84,0,0,0,0,0.013965,1
879.59,54.233,19.17,0,0.029083,0,1000.5,70.84,0,0,0,0,0.013965,1
879.59,54.233,19.17,0,0.029083,0,1000.5,70.84,0,0,0,0,0.013965,1
879.59,54.233,19.17,0,0.029083,0,1000.5,70.84,0,0,0,0,0.013965,1
879.59,54.233,19.17,0,0.029083,0,1000.5,70.84,0,0,0,0,0.013965,1
882.27,54.233,19.174,0,0.029519,0,1000.5,70.84,0,0,0,0,0.014276,1
882.66,54.233,19.175,0,0.02958,0,1000.5,70.84,0,0,0,0,0.014322,1
882.66,54.233,19.175,0,0.02958,0,1000.5,70.84,0,0,0,0,0.014322,1
882.66,54.233,19.175,0,0.02958,0,1000.4,70.246,-0.98267,-3.9401,-8.1889,-32.834,0.013664,1
883.81,54.233,19.176,0,0.029766,0,1000.4,70.186,-0.98267,-3.9401,-8.1889,-32.834,0.013798,1
883.81,54.233,19.176,0,0.029766,0,1000.4,70.186,-0.98267,-3.9401,-8.1889,-32.834,0.013798,1
883.81,54.233,19.176,0,0.029766,0,1000.4,70.186,-0.98267,-3.9401,-8.1889,-32.834,0.013798,1
883.81,54.233,19.176,0,0.029766,0,1000.4,70.064,-0.98267,-3.9401,-8.1889,-32.834,0.013799,1
883.81,54.233,19.176,0,0.029766,0,1000.4,70.064,-0.98267,-3.9401,-8.1889,-32.834,0.013799,1
883.81,54.233,19.176,0,0.029766,0,1000.4,70.004,-0.014242,-3.0305,8.0702,7.5796,0.014479,1
883.81,54.233,19.176,0,0.029766,0,1000.4,70.004,-0.014242,-3.0305,8.0702,7.5796,0.014479,1
883.81,54.233,19.176,0,0.029766,0,1000.4,70.004,-0.014242,-3.0305,8.0702,7.5796,0.014479,1
883.81,54.233,19.176,0,0.029766,0,1000.4,70.004,-0.014242,-3.0305,8.0702,7.5796,0.014479,1
883.81,54.233,19.176,0,0.029766,0,1000.4,70.004,-0.014242,-3.0305,8.0702,7.5796,0.014479,1
883.81,54.233,19.176,0,0.029766,0,1000.4,70.004,-0.014242,-3.0305,8.0702,7.5796,0.014479,1
883.81,54.233,19.176,0,0.029766,0,1000.4,70.004,-0.014242,-3.0305,8.0702,7.5796,0.014479,1
883.81,54.233,19.176,0,0.029766,0,1000.4,70.004,-0.014242,-3.0305,8.0702,7.5796,0.014479,1
884.96,54.233,19.178,0,0.029951,0,1000.4,70.004,-0.014242,-3.0305,8.0702,7.5796,0.01462,1
884.96,54.233,19.178,0,0.029951,0,1000.4,70.004,-0.014242,-3.0305,8.0702,7.5796,0.01462,1
884.96,54.233,19.178,0,0.029951,0,1000.4,70.004,-0.014242,-3.0305,8.0702,7.5796,0.01462,1
884.96,54.233,19.178,0,0.029951,0,1000.4,69.883,-0.014242,-3.0305,8.0702,7.5796,0.014622,1
884.96,54.233,19.178,0,0.029951,0,1000.4,69.822,-0.014242,-3.0305,8.0702,7.5796,0.014624,1
884.96,54.233,19.178,0,0.029951,0,1000.4,69.822,-0.014242,-3.0305,8.0702,7.5796,0.014624,1
884.96,54.233,19.178,0,0.029951,0,1000.4,69.822,-0.014242,-3.0305,8.0702,7.5796,0.014624,1
884.96,54.233,19.178,0,0.029951,0,1000.4,69.822,-0.014242,-3.0305,8.0702,7.5796,0.014624,1
884.96,54.233,19.178,0,0.029951,0,1000.4,69.822,-0.014242,-3.0305,8.0702,7.5796,0.014624,1
884.96,54.233,19.178,0,0.029951,0,1000.4,69.64,-0.014242,-3.0305,0,0,0.014627,1
887.26,54.233,19.182,0,0.030319,0,1000.4,69.64,-0.014242,-3.0305,0,0,0.014919,1
887.26,54.233,19.182,0,0.030319,0,1000.4,69.64,-0.014242,-3.0305,0,0,0.014919,1
887.26,54.233,19.182,0,0.030319,0,1000.4,69.519,-0.014242,-3.0305,0,0,0.014921,1
888.03,54.233,19.183,0,0.030439,0,1000.4,69.519,-0.014242,-3.0305,0,0,0.015021,1
888.03,54.233,19.183,0,0.030439,0,1000.4,69.519,-0.014242,-3.0305,0,0,0.015021,1
888.03,54.233,19.183,0,0.030439,0,1000.4,69.398,-0.014242,-3.0305,0,0,0.015023,1
888.8,54.233,19.184,0,0.030561,0,1000.4,69.398,-0.014242,-3.0305,0,0,0.015125,1
889.18,54.233,19.185,0,0.030621,0,1000.4,69.398,-0.014242,-3.0305,0,0,0.015176,1
889.18,54.233,19.185,0,0.030621,0,1000.4,69.398,-0.014242,-3.0305,0,0,0.015176,1
889.18,54.233,19.185,0,0.030621,0,1000.4,69.216,-0.014242,-3.0305,0,0,0.015179,1
889.18,54.233,19.185,0,0.030621,0,1000.4,69.216,-0.014242,-3.0305,0,0,0.015179,1
889.18,54.233,19.185,0,0.030621,0,1000.4,69.216,-0.014242,-3.0305,0,0,0.015179,1
889.18,54.233,19.185,0,0.030621,0,1000.4,69.216,-0.014242,-3.0305,0,0,0.015179,1
889.18,54.233,19.185,0,0.030621,0,1000.4,69.216,-0.014242,-3.0305,0,0,0.015179,1
889.18,54.233,19.185,0,0.030621,0,1000.4,69.155,-0.014242,-3.0305,0,0,0.01518,1
890.33,54.233,19.187,0,0.030802,0,1000.4,69.155,-0.014242,-3.0305,0,0,0.015336,1
890.33,54.233,19.187,0,0.030802,0,1000.4,69.155,-0.014242,-3.0305,0,0,0.015336,1
890.33,54.233,19.187,0,0.030802,0,1000.4,69.155,-0.014242,-3.0305,0,0,0.015336,1
890.33,54.233,19.187,0,0.030802,0,1000.4,69.155,-0.014242,-3.0305,0,0,0.015336,1
890.33,54.233,19.187,0,0.030802,0,1000.4,69.155,-0.014242,-3.0305,0,0,0.015336,1
890.33,54.233,19.187,0,0.030802,0,1000.4,69.155,-0.014242,-3.0305,0,0,0.015336,1
890.71,54.233,19.187,0,0.030862,0,1000.4,69.155,-0.014242,-3.0305,0,0,0.015389,1
890.71,54.233,19.187,0,0.030862,0,1000.4,69.155,-0.014242,-3.0305,0,0,0.015389,1
890.71,54.233,19.187,0,0.030862,0,1000.4,69.155,-0.014242,-3.0305,0,0,0.015389,1
890.71,54.233,19.187,0,0.030862,0,1000.4,69.155,-0.014242,-3.0305,0,0,0.015389,1
890.71,54.233,19.187,0,0.030862,0,1000.4,69.155,-0.014242,-3.0305,0,0,0.015389,1
891.87,54.233,19.189,0,0.031041,0,1000.4,69.155,-0.014242,-3.0305,0,0,0.015549,1
891.87,54.233,19.189,0,0.031041,0,1000.4,69.155,-0.014242,-3.0305,0,0,0.015549,1
891.87,54.233,19.189,0,0.031041,0,1000.4,69.155,-0.014242,-3.0305,0,0,0.015549,1
891.87,54.233,19.189,0,0.031041,0,1000.4,69.155,-0.014242,-3.0305,0,0,0.015549,1
891.87,54.233,19.189,0,0.031041,0,1000.4,69.155,-0.014242,-3.0305,0,0,0.015549,1
891.87,54.233,19.189,0,0.031041,0,1000.4,69.155,-0.014242,-3.0305,0,0,0.015549,1
891.87,54.233,19.189,0,0.031041,0,1000.4,69.155,-0.014242,-3.0305,0,0,0.015549,1
892.25,54.233,19.19,0,0.0311,0,1000.4,69.155,-0.014242,-3.0305,0,0,0.015603,1
892.25,54.233,19.19,0,0.0311,0,1000.4,68.67,-0.013733,-3.0305,0.0042386,0,0.015613,1
893.4,54.233,19.192,0,0.031279,0,1000.4,68.67,-0.013733,-3.0305,0.0042386,0,0.015778,1
893.4,54.233,19.192,0,0.031279,0,1000.4,68.489,-0.014242,-3.0305,-0.0042386,0,0.015782,1
894.55,54.233,19.194,0,0.031457,0,1000.4,68.489,-0.014242,-3.0305,-0.0042386,0,0.01595,1
894.55,54.233,19.194,0,0.031457,0,1000.4,68.489,-0.014242,-3.0305,-0.0042386,0,0.01595,1
895.7,54.233,19.195,0,0.031634,0,1000.4,68.307,-0.014242,-3.0305,-0.0042386,0,0.016126,1
895.7,54.233,19.195,0,0.031634,0,1000.4,68.307,-0.014242,-3.0305,-0.0042386,0,0.016126,1
895.7,54.233,19.195,0,0.031634,0,1000.4,68.307,-0.014242,-3.0305,-0.0042386,0,0.016126,1
895.7,54.233,19.195,0,0.031634,0,1000.4,68.307,-0.014242,-3.0305,-0.0042386,0,0.016126,1
895.7,54.233,19.195,0,0.031634,0,1000.4,68.307,-0.014242,-3.0305,-0.0042386,0,0.016126,1
895.7,54.233,19.195,0,0.031634,0,1000.4,68.307,-0.014242,-3.0305,-0.0042386,0,0.016126,1
896.09,54.233,19.196,0,0.031692,0,1000.4,68.307,-0.014242,-3.0305,-0.0042386,0,0.016185,1
896.09,54.233,19.196,0,0.031692,0,1000.4,68.307,-0.014242,-3.0305,-0.0042386,0,0.016185,1
896.09,54.233,19.196,0,0.031692,0,1000.4,68.307,-0.014242,-3.0305,-0.0042386,0,0.016185,1
896.09,54.233,19.196,0,0.031692,0,1000.4,68.307,-0.014242,-3.0305,-0.0042386,0,0.016185,1
896.09,54.233,19.196,0,0.031692,0,1000.4,68.307,-0.014242,-3.0305,-0.0042386,0,0.016185,1
896.09,54.233,19.196,0,0.031692,0,1000.4,68.307,-0.014242,-3.0305,-0.0042386,0,0.016185,1
896.09,54.233,19.196,0,0.031692,0,1000.4,68.125,-0.014242,-3.0305,0,0,0.016188,1
896.09,54.233,19.196,0,0.031692,0,1000.4,68.125,-0.014242,-3.0305,0,0,0.016188,1
896.09,54.233,19.196,0,0.031692,0,1000.4,68.125,-0.014242,-3.0305,0,0,0.016188,1
896.09,54.233,19.196,0,0.031692,0,1000.4,68.125,-0.014242,-3.0305,0,0,0.016188,1
896.09,54.233,19.196,0,0.031692,0,1000.4,68.125,-0.014242,-3.0305,0,0,0.016188,1
896.09,54.233,19.196,0,0.031692,0,1000.4,68.125,-0.014242,-3.0305,0,0,0.016188,1
896.86,54.233,19.197,0,0.03181,0,1000.4,68.125,-0.014242,-3.0305,0,0,0.016306,1
896.86,54.233,19.197,0,0.03181,0,1000.4,67.943,-0.014242,-3.0305,0,0,0.01631,1
898.01,54.233,19.199,0,0.031984,0,1000.4,67.943,-0.014242,-3.0305,0,0,0.016491,1
898.01,54.233,19.199,0,0.031984,0,1000.4,67.943,-0.014242,-3.0305,0,0,0.016491,1
899.16,54.233,19.201,0,0.032159,0,1000.4,67.761,-0.014242,-3.0305,0,0,0.016679,1
899.16,54.233,19.201,0,0.032159,0,1000.4,67.579,-0.014242,-3.0305,0,0,0.016683,1
900.31,54.233,19.203,0,0.032332,0,1000.4,67.579,-0.014242,-3.0305,0,0,0.016872,1
900.31,54.233,19.203,0,0.032332,0,1000.4,67.579,-0.014242,-3.0305,0,0,0.016872,1
900.31,54.233,19.203,0,0.032332,0,1000.4,67.579,-0.014242,-3.0305,0,0,0.016872,1
900.31,54.233,19.203,0,0.032332,0,1000.4,67.579,-0.014242,-3.0305,0,0,0.016872,1
900.31,54.233,19.203,0,0.032332,0,1000.4,67.579,-0.014242,-3.0305,0,0,0.016872,1
900.7,54.233,19.204,0,0.03239,0,1000.4,67.579,-0.014242,-3.0305,0,0,0.016935,1
900.7,54.233,19.204,0,0.03239,0,1000.4,67.579,-0.014242,-3.0305,0,0,0.016935,1
900.7,54.233,19.204,0,0.03239,0,1000.4,67.579,-0.014242,-3.0305,0,0,0.016935,1
900.7,54.233,19.204,0,0.03239,0,1000.4,67.579,-0.014242,-3.0305,0,0,0.016935,1
900.7,54.233,19.204,0,0.03239,0,1000.4,67.579,-0.014242,-3.0305,0,0,0.016935,1
900.7,54.233,19.204,0,0.03239,0,1000.4,67.579,-0.014242,-3.0305,0,0,0.016935,1
900.7,54.233,19.204,0,0.03239,0,1000.4,67.579,-0.014242,-3.0305,0,0,0.016935,1
900.7,54.233,19.204,0,0.03239,0,1000.4,67.579,-0.014242,-3.0305,0,0,0.016935,1
900.7,54.233,19.204,0,0.03239,0,1000.4,67.398,-0.013733,-3.0305,0.0042386,0,0.01694,1
900.7,54.233,19.204,0,0.03239,0,1000.4,67.398,-0.013733,-3.0305,0.0042386,0,0.01694,1
900.7,54.233,19.204,0,0.03239,0,1000.4,67.398,-0.013733,-3.0305,0.0042386,0,0.01694,1
900.7,54.233,19.204,0,0.03239,0,1000.4,67.398,-0.013733,-3.0305,0.0042386,0,0.01694,1
900.7,54.233,19.204,0,0.03239,0,1000.4,67.398,-0.013733,-3.0305,0.0042386,0,0.01694,1
901.46,54.233,19.205,0,0.032505,0,1000.4,67.398,-0.013733,-3.0305,0.0042386,0,0.017069,1
901.46,54.233,19.205,0,0.032505,0,1000.4,67.216,-0.013733,-3.0305,0.0042386,0,0.017073,1
901.46,54.233,19.205,0,0.032505,0,1000.4,67.216,-0.013733,-3.0305,0.0042386,0,0.017073,1
902.62,54.233,19.207,0,0.032676,0,1000.4,67.216,-0.013733,-3.0305,0.0042386,0,0.017271,1
902.62,54.233,19.207,0,0.032676,0,1000.4,67.216,-0.013733,-3.0305,0.0042386,0,0.017271,1
902.62,54.233,19.207,0,0.032676,0,1000.4,67.216,-0.013733,-3.0305,0.0042386,0,0.017271,1
902.62,54.233,19.207,0,0.032676,0,1000.4,66.973,-0.014242,-3.0305,-0.0042386,0,0.017277,1
902.62,54.233,19.207,0,0.032676,0,1000.4,66.973,-0.014242,-3.0305,-0.0042386,0,0.017277,1
902.62,54.233,19.207,0,0.032676,0,1000.4,66.852,-0.014242,-3.0305,-0.0042386,0,0.017279,1
904.92,54.233,19.211,0,0.033015,0,1000.4,66.852,-0.014242,-3.0305,-0.0042386,0,0.017689,1
904.92,54.233,19.211,0,0.033015,0,1000.4,66.852,-0.014242,-3.0305,-0.0042386,0,0.017689,1
904.92,54.233,19.211,0,0.033015,0,1000.4,66.731,-0.014242,-3.0305,0,0,0.017692,1
904.92,54.233,19.211,0,0.033015,0,1000.4,66.67,-0.014242,-3.0305,0,0,0.017694,1
904.92,54.233,19.211,0,0.033015,0,1000.4,66.67,-0.014242,-3.0305,0,0,0.017694,1
904.92,54.233,19.211,0,0.033015,0,1000.4,66.61,-0.014242,-3.0305,0,0,0.017695,1
904.92,54.233,19.211,0,0.033015,0,1000.4,66.61,-0.014242,-3.0305,0,0,0.017695,1
906.84,54.233,19.214,0,0.033297,0,1000.4,66.549,-0.014242,-3.0305,0,0,0.018054,1
906.84,54.233,19.214,0,0.033297,0,1000.4,66.549,-0.014242,-3.0305,0,0,0.018054,1
906.84,54.233,19.214,0,0.033297,0,1000.4,66.549,-0.014242,-3.0305,0,0,0.018054,1
906.84,54.233,19.214,0,0.033297,0,1000.4,66.549,-0.014242,-3.0305,0,0,0.018054,1
906.84,54.233,19.214,0,0.033297,0,1000.4,66.549,-0.014242,-3.0305,0,0,0.018054,1
906.84,54.233,19.214,0,0.033297,0,1000.4,66.549,-0.014242,-3.0305,0,0,0.018054,1
906.84,54.233,19.214,0,0.033297,0,1000.4,66.549,-0.014242,-3.0305,0,0,0.018054,1
906.84,54.233,19.214,0,0.033297,0,1000.4,66.549,-0.014242,-3.0305,0,0,0.018054,1
907.23,54.233,19.215,0,0.033353,0,1000.4,66.549,-0.014242,-3.0305,0,0,0.018127,1
907.23,54.233,19.215,0,0.033353,0,1000.4,66.549,-0.014242,-3.0305,0,0,0.018127,1
907.23,54.233,19.215,0,0.033353,0,1000.4,66.367,-0.013733,-3.0305,0.0042386,0,0.018132,1
907.23,54.233,19.215,0,0.033353,0,1000.4,66.367,-0.013733,-3.0305,0.0042386,0,0.018132,1
907.23,54.233,19.215,0,0.033353,0,1000.4,66.367,-0.013733,-3.0305,0.0042386,0,0.018132,1
907.23,54.233,19.215,0,0.033353,0,1000.4,66.367,-0.013733,-3.0305,0.0042386,0,0.018132,1
907.23,54.233,19.215,0,0.033353,0,1000.4,66.367,-0.013733,-3.0305,0.0042386,0,0.018132,1
907.23,54.233,19.215,0,0.033353,0,1000.4,66.367,-0.013733,-3.0305,0.0042386,0,0.018132,1
907.23,54.233,19.215,0,0.033353,0,1000.4,66.367,-0.013733,-3.0305,0.0042386,0,0.018132,1
908.76,54.233,19.218,0,0.033576,0,1000.4,66.307,-0.013733,-3.0305,0.0042386,0,0.018433,1
909.53,54.233,19.219,0,0.033686,0,1000.4,66.125,-0.013733,-3.0305,0.0042386,0,0.018591,1
909.53,54.233,19.219,0,0.033686,0,1000.4,66.125,-0.013733,-3.0305,0.0042386,0,0.018591,1
909.53,54.233,19.219,0,0.033686,0,1000.4,66.125,-0.013733,-3.0305,0.0042386,0,0.018591,1
909.53,54.233,19.219,0,0.033686,0,1000.4,66.004,-0.014242,-3.0305,-0.0042386,0,0.018594,1
911.07,54.233,19.222,0,0.033906,0,1000.4,66.004,-0.014242,-3.0305,-0.0042386,0,0.018909,1
911.07,54.233,19.222,0,0.033906,0,1000.4,66.004,-0.014242,-3.0305,-0.0042386,0,0.018909,1
911.07,54.233,19.222,0,0.033906,0,1000.4,66.004,-0.014242,-3.0305,-0.0042386,0,0.018909,1
911.07,54.233,19.222,0,0.033906,0,1000.4,66.004,-0.014242,-3.0305,-0.0042386,0,0.018909,1
911.07,54.233,19.222,0,0.033906,0,1000.4,66.004,-0.014242,-3.0305,-0.0042386,0,0.018909,1
911.07,54.233,19.222,0,0.033906,0,1000.4,66.004,-0.014242,-3.0305,-0.0042386,0,0.018909,1
911.07,54.233,19.222,0,0.033906,0,1000.4,66.004,-0.014242,-3.0305,-0.0042386,0,0.018909,1
911.07,54.233,19.222,0,0.033906,0,1000.4,66.004,-0.014242,-3.0305,-0.0042386,0,0.018909,1
911.07,54.233,19.222,0,0.033906,0,1000.4,66.004,-0.014242,-3.0305,-0.0042386,0,0.018909,1
911.07,54.233,19.222,0,0.033906,0,1000.4,66.004,-0.014242,-3.0305,-0.0042386,0,0.018909,1
911.07,54.233,19.222,0,0.033906,0,1000.4,66.004,-0.014242,-3.0305,-0.0042386,0,0.018909,1
911.07,54.233,19.222,0,0.033906,0,1000.4,65.761,-0.014242,-3.0305,-0.0042386,0,0.018916,1
911.07,54.233,19.222,0,0.033906,0,1000.4,65.701,-0.014242,-3.0305,-0.0042386,0,0.018917,1
911.07,54.233,19.222,0,0.033906,0,1000.4,65.701,-0.014242,-3.0305,-0.0042386,0,0.018917,1
911.07,54.233,19.222,0,0.033906,0,1000.4,65.701,-0.014242,-3.0305,-0.0042386,0,0.018917,1
912.99,54.233,19.225,0,0.034179,0,1000.4,65.64,-0.014242,-3.0305,0,0,0.019328,1
912.99,54.233,19.225,0,0.034179,0,1000.4,65.337,-0.014242,-3.0305,0,0,0.019337,1
912.99,54.233,19.225,0,0.034179,0,1000.4,65.337,-0.014242,-3.0305,0,0,0.019337,1
912.99,54.233,19.225,0,0.034179,0,1000.4,65.337,-0.014242,-3.0305,0,0,0.019337,1
912.99,54.233,19.225,0,0.034179,0,1000.4,65.337,-0.014242,-3.0305,0,0,0.019337,1
912.99,54.233,19.225,0,0.034179,0,1000.4,65.337,-0.014242,-3.0305,0,0,0.019337,1
912.99,54.233,19.225,0,0.034179,0,1000.4,65.337,-0.014242,-3.0305,0,0,0.019337,1
912.99,54.233,19.225,0,0.034179,0,1000.4,65.337,-0.014242,-3.0305,0,0,0.019337,1
912.99,54.233,19.225,0,0.034179,0,1000.4,65.337,-0.014242,-3.0305,0,0,0.019337,1
914.53,54.233,19.228,0,0.034395,0,1000.4,65.337,-0.014242,-3.0305,0,0,0.019678,1
914.53,54.233,19.228,0,0.034395,0,1000.4,65.337,-0.014242,-3.0305,0,0,0.019678,1
914.53,54.233,19.228,0,0.034395,0,1000.4,65.216,-0.014242,-3.0305,0,0,0.019681,1
914.53,54.233,19.228,0,0.034395,0,1000.4,65.216,-0.014242,-3.0305,0,0,0.019681,1
914.53,54.233,19.228,0,0.034395,0,1000.4,65.216,-0.014242,-3.0305,0,0,0.019681,1
914.53,54.233,19.228,0,0.034395,0,1000.4,65.216,-0.014242,-3.0305,0,0,0.019681,1
914.53,54.233,19.228,0,0.034395,0,1000.4,65.216,-0.014242,-3.0305,0,0,0.019681,1
914.53,54.233,19.228,0,0.034395,0,1000.4,65.216,-0.014242,-3.0305,0,0,0.019681,1
915.3,54.233,19.229,0,0.034503,0,1000.4,65.216,-0.014242,-3.0305,0,0,0.019856,1
915.3,54.233,19.229,0,0.034503,0,1000.4,65.216,-0.014242,-3.0305,0,0,0.019856,1
916.45,54.233,19.231,0,0.034663,0,1000.4,65.034,-0.014242,-3.0305,0,0,0.02013,1
916.45,54.233,19.231,0,0.034663,0,1000.4,65.034,-0.014242,-3.0305,0,0,0.02013,1
916.45,54.233,19.231,0,0.034663,0,1000.4,64.913,-0.013733,-3.0305,0.0042386,0,0.020135,1
916.45,54.233,19.231,0,0.034663,0,1000.4,64.731,-0.013733,-3.0305,0.0042386,0,0.02014,1
916.45,54.233,19.231,0,0.034663,0,1000.4,64.731,-0.013733,-3.0305,0.0042386,0,0.02014,1
916.45,54.233,19.231,0,0.034663,0,1000.4,64.731,-0.013733,-3.0305,0.0042386,0,0.02014,1
916.45,54.233,19.231,0,0.034663,0,1000.4,64.731,-0.013733,-3.0305,0.0042386,0,0.02014,1
916.45,54.233,19.231,0,0.034663,0,1000.4,64.67,-0.013733,-3.0305,0.0042386,0,0.020142,1
916.45,54.233,19.231,0,0.034663,0,1000.4,64.67,-0.013733,-3.0305,0.0042386,0,0.020142,1
916.45,54.233,19.231,0,0.034663,0,1000.4,64.67,-0.013733,-3.0305,0.0042386,0,0.020142,1
916.45,54.233,19.231,0,0.034663,0,1000.4,64.67,-0.013733,-3.0305,0.0042386,0,0.020142,1
916.45,54.233,19.231,0,0.034663,0,1000.4,64.61,-0.013733,-3.0305,0.0042386,0,0.020144,1
916.45,54.233,19.231,0,0.034663,0,1000.4,64.61,-0.013733,-3.0305,0.0042386,0,0.020144,1
916.45,54.233,19.231,0,0.034663,0,1000.4,64.549,-0.014242,-3.0305,-0.0042386,0,0.020145,1
919.53,54.233,19.237,0,0.035086,0,1000.4,64.549,-0.014242,-3.0305,-0.0042386,0,0.0209,1
919.53,54.233,19.237,0,0.035086,0,1000.4,64.549,-0.014242,-3.0305,-0.0042386,0,0.0209,1
919.53,54.233,19.237,0,0.035086,0,1000.4,64.428,-0.014242,-3.0305,-0.0042386,0,0.020904,1
920.3,54.233,19.238,0,0.03519,0,1000.4,64.428,-0.014242,-3.0305,-0.0042386,0,0.021102,1
920.3,54.233,19.238,0,0.03519,0,1000.4,64.306,-0.014242,-3.0305,-0.0042386,0,0.021106,1
921.07,54.233,19.24,0,0.035294,0,1000.4,64.306,-0.014242,-3.0305,-0.0042386,0,0.021307,1
921.07,54.233,19.24,0,0.035294,0,1000.4,64.306,-0.014242,-3.0305,-0.0042386,0,0.021307,1
921.07,54.233,19.24,0,0.035294,0,1000.4,64.306,-0.014242,-3.0305,-0.0042386,0,0.021307,1
921.07,54.233,19.24,0,0.035294,0,1000.4,64.306,-0.014242,-3.0305,-0.0042386,0,0.021307,1
921.07,54.233,19.24,0,0.035294,0,1000.4,64.306,-0.014242,-3.0305,-0.0042386,0,0.021307,1
921.46,54.233,19.24,0,0.035347,0,1000.4,64.306,-0.014242,-3.0305,-0.0042386,0,0.021409,1
921.46,54.233,19.24,0,0.035347,0,1000.4,64.125,-0.014242,-3.0305,0,0,0.021416,1
921.46,54.233,19.24,0,0.035347,0,1000.4,64.125,-0.014242,-3.0305,0,0,0.021416,1
921.46,54.233,19.24,0,0.035347,0,1000.4,64.125,-0.014242,-3.0305,0,0,0.021416,1
921.46,54.233,19.24,0,0.035347,0,1000.4,64.125,-0.014242,-3.0305,0,0,0.021416,1
921.46,54.233,19.24,0,0.035347,0,1000.4,64.125,-0.014242,-3.0305,0,0,0.021416,1
921.46,54.233,19.24,0,0.035347,0,1000.4,64.125,-0.014242,-3.0305,0,0,0.021416,1
922.22,54.233,19.242,0,0.035451,0,1000.4,64.125,-0.014242,-3.0305,0,0,0.021623,1
922.22,54.233,19.242,0,0.035451,0,1000.4,64.125,-0.014242,-3.0305,0,0,0.021623,1
922.22,54.233,19.242,0,0.035451,0,1000.4,64.125,-0.014242,-3.0305,0,0,0.021623,1
922.22,54.233,19.242,0,0.035451,0,1000.4,64.003,-0.014242,-3.0305,0,0,0.021628,1
922.99,54.233,19.243,0,0.035555,0,1000.4,64.003,-0.014242,-3.0305,0,0,0.021839,1
923.76,54.233,19.245,0,0.035657,0,1000.4,63.882,-0.014242,-3.0305,0,0,0.02206,1
924.92,54.233,19.247,0,0.03581,0,1000.4,63.7,-0.014242,-3.0305,0,0,0.022399,1
925.3,54.233,19.247,0,0.035861,0,1000.4,63.7,-0.014242,-3.0305,0,0,0.022512,1
925.3,54.233,19.247,0,0.035861,0,1000.4,63.7,-0.014242,-3.0305,0,0,0.022512,1
925.3,54.233,19.247,0,0.035861,0,1000.4,63.7,-0.014242,-3.0305,0,0,0.022512,1
925.3,54.233,19.247,0,0.035861,0,1000.4,63.7,-0.014242,-3.0305,0,0,0.022512,1
925.3,54.233,19.247,0,0.035861,0,1000.4,63.7,-0.014242,-3.0305,0,0,0.022512,1
925.3,54.233,19.247,0,0.035861,0,1000.4,63.7,-0.014242,-3.0305,0,0,0.022512,1
925.3,54.233,19.247,0,0.035861,0,1000.4,63.7,-0.014242,-3.0305,0,0,0.022512,1
925.3,54.233,19.247,0,0.035861,0,1000.4,63.7,-0.014242,-3.0305,0,0,0.022512,1
925.3,54.233,19.247,0,0.035861,0,1000.4,63.7,-0.014242,-3.0305,0,0,0.022512,1
925.3,54.233,19.247,0,0.035861,0,1000.4,63.7,-0.014242,-3.0305,0,0,0.022512,1
925.3,54.233,19.247,0,0.035861,0,1000.4,63.519,-0.014242,-3.0305,0,0,0.022519,1
925.3,54.233,19.247,0,0.035861,0,1000.4,63.519,-0.014242,-3.0305,0,0,0.022519,1
925.3,54.233,19.247,0,0.035861,0,1000.4,63.519,-0.014242,-3.0305,0,0,0.022519,1
925.3,54.233,19.247,0,0.035861,0,1000.4,63.519,-0.014242,-3.0305,0,0,0.022519,1
925.3,54.233,19.247,0,0.035861,0,1000.4,63.519,-0.014242,-3.0305,0,0,0.022519,1
925.3,54.233,19.247,0,0.035861,0,1000.4,63.519,-0.014242,-3.0305,0,0,0.022519,1
925.3,54.233,19.247,0,0.035861,0,1000.4,63.519,-0.014242,-3.0305,0,0,0.022519,1
925.3,54.233,19.247,0,0.035861,0,1000.4,63.519,-0.014242,-3.0305,0,0,0.022519,1
925.3,54.233,19.247,0,0.035861,0,1000.4,63.519,-0.014242,-3.0305,0,0,0.022519,1
926.07,54.233,19.249,0,0.035963,0,1000.4,63.519,-0.014242,-3.0305,0,0,0.022749,1
926.07,54.233,19.249,0,0.035963,0,1000.4,63.519,-0.014242,-3.0305,0,0,0.022749,1
926.07,54.233,19.249,0,0.035963,0,1000.4,63.519,-0.014242,-3.0305,0,0,0.022749,1
927.61,54.233,19.252,0,0.036165,0,1000.4,63.397,-0.013733,-3.0305,0.0042386,0,0.023228,1
928,54.233,19.252,0,0.036216,0,1000.4,63.397,-0.013733,-3.0305,0.0042386,0,0.023349,1
929.54,54.233,19.255,0,0.036415,0,1000.4,62.973,-0.014242,-3.0305,-0.0042386,0,0.023867,1
929.92,54.233,19.256,0,0.036465,0,1000.4,62.973,-0.014242,-3.0305,-0.0042386,0,0.023995,1
929.92,54.233,19.256,0,0.036465,0,1000.4,62.973,-0.014242,-3.0305,-0.0042386,0,0.023995,1
929.92,54.233,19.256,0,0.036465,0,1000.4,62.973,-0.014242,-3.0305,-0.0042386,0,0.023995,1
929.92,54.233,19.256,0,0.036465,0,1000.4,62.791,-0.014242,-3.0305,-0.0042386,0,0.024003,1
929.92,54.233,19.256,0,0.036465,0,1000.4,62.791,-0.014242,-3.0305,-0.0042386,0,0.024003,1
929.92,54.233,19.256,0,0.036465,0,1000.4,62.791,-0.014242,-3.0305,-0.0042386,0,0.024003,1
929.92,54.233,19.256,0,0.036465,0,1000.4,62.791,-0.014242,-3.0305,-0.0042386,0,0.024003,1
929.92,54.233,19.256,0,0.036465,0,1000.4,62.791,-0.014242,-3.0305,-0.0042386,0,0.024003,1
929.92,54.233,19.256,0,0.036465,0,1000.4,62.791,-0.014242,-3.0305,-0.0042386,0,0.024003,1
929.92,54.233,19.256,0,0.036465,0,1000.4,62.791,-0.014242,-3.0305,-0.0042386,0,0.024003,1
929.92,54.233,19.256,0,0.036465,0,1000.4,62.791,-0.014242,-3.0305,-0.0042386,0,0.024003,1
929.92,54.233,19.256,0,0.036465,0,1000.4,62.791,-0.014242,-3.0305,-0.0042386,0,0.024003,1
930.69,54.233,19.258,0,0.036564,0,1000.4,62.791,-0.014242,-3.0305,-0.0042386,0,0.024264,1
930.69,54.233,19.258,0,0.036564,0,1000.4,62.791,-0.014242,-3.0305,-0.0042386,0,0.024264,1
930.69,54.233,19.258,0,0.036564,0,1000.4,62.791,-0.014242,-3.0305,-0.0042386,0,0.024264,1
930.69,54.233,19.258,0,0.036564,0,1000.4,62.791,-0.014242,-3.0305,-0.0042386,0,0.024264,1
930.69,54.233,19.258,0,0.036564,0,1000.4,62.791,-0.014242,-3.0305,-0.0042386,0,0.024264,1
930.69,54.233,19.258,0,0.036564,0,1000.4,62.791,-0.014242,-3.0305,-0.0042386,0,0.024264,1
930.69,54.233,19.258,0,0.036564,0,1000.4,62.791,-0.014242,-3.0305,-0.0042386,0,0.024264,1
930.69,54.233,19.258,0,0.036564,0,1000.4,62.791,-0.014242,-3.0305,-0.0042386,0,0.024264,1
931.08,54.233,19.258,0,0.036612,0,1000.4,62.791,-0.014242,-3.0305,-0.0042386,0,0.024397,1
931.47,54.233,19.259,0,0.036662,0,1000.4,62.791,-0.014242,-3.0305,-0.0042386,0,0.024531,1
931.47,54.233,19.259,0,0.036662,0,1000.4,62.428,-0.014242,-3.0305,0,0,0.024547,1
933.01,54.233,19.262,0,0.036857,0,1000.4,62.428,-0.014242,-3.0305,0,0,0.025101,1
934.55,54.233,19.265,0,0.037051,0,1000.4,62.306,-0.013733,-3.0305,0.0042386,0,0.025686,1
934.55,54.233,19.265,0,0.037051,0,1000.4,62.306,-0.013733,-3.0305,0.0042386,0,0.025686,1
934.55,54.233,19.265,0,0.037051,0,1000.4,62.306,-0.013733,-3.0305,0.0042386,0,0.025686,1
934.55,54.233,19.265,0,0.037051,0,1000.4,62.306,-0.013733,-3.0305,0.0042386,0,0.025686,1
934.55,54.233,19.265,0,0.037051,0,1000.4,62.306,-0.013733,-3.0305,0.0042386,0,0.025686,1
934.55,54.233,19.265,0,0.037051,0,1000.4,62.306,-0.013733,-3.0305,0.0042386,0,0.025686,1
934.55,54.233,19.265,0,0.037051,0,1000.4,62.306,-0.013733,-3.0305,0.0042386,0,0.025686,1
934.55,54.233,19.265,0,0.037051,0,1000.4,62.306,-0.013733,-3.0305,0.0042386,0,0.025686,1
934.93,54.233,19.266,0,0.037099,0,1000.4,62.306,-0.013733,-3.0305,0.0042386,0,0.025835,1
934.93,54.233,19.266,0,0.037099,0,1000.4,62.306,-0.013733,-3.0305,0.0042386,0,0.025835,1
934.93,54.233,19.266,0,0.037099,0,1000.4,62.306,-0.013733,-3.0305,0.0042386,0,0.025835,1
934.93,54.233,19.266,0,0.037099,0,1000.4,62.003,-0.014242,-3.0305,-0.0042386,0,0.025849,1
934.93,54.233,19.266,0,0.037099,0,1000.4,62.003,-0.014242,-3.0305,-0.0042386,0,0.025849,1
934.93,54.233,19.266,0,0.037099,0,1000.4,62.003,-0.014242,-3.0305,-0.0042386,0,0.025849,1
934.93,54.233,19.266,0,0.037099,0,1000.4,62.003,-0.014242,-3.0305,-0.0042386,0,0.025849,1
934.93,54.233,19.266,0,0.037099,0,1000.4,62.003,-0.014242,-3.0305,-0.0042386,0,0.025849,1
934.93,54.233,19.266,0,0.037099,0,1000.4,62.003,-0.014242,-3.0305,-0.0042386,0,0.025849,1
934.93,54.233,19.266,0,0.037099,0,1000.4,62.003,-0.014242,-3.0305,-0.0042386,0,0.025849,1
934.93,54.233,19.266,0,0.037099,0,1000.4,62.003,-0.014242,-3.0305,-0.0042386,0,0.025849,1
935.7,54.233,19.267,0,0.037195,0,1000.4,62.003,-0.014242,-3.0305,-0.0042386,0,0.026153,1
935.7,54.233,19.267,0,0.037195,0,1000.4,61.761,-0.014242,-3.0305,-0.0042386,0,0.026165,1
935.7,54.233,19.267,0,0.037195,0,1000.4,61.7,-0.014242,-3.0305,-0.0042386,0,0.026167,1
935.7,54.233,19.267,0,0.037195,0,1000.4,61.7,-0.014242,-3.0305,-0.0042386,0,0.026167,1
938.79,54.233,19.273,0,0.037575,0,1000.4,61.64,-0.014242,-3.0305,0,0,0.027462,1
938.79,54.233,19.273,0,0.037575,0,1000.4,61.64,-0.014242,-3.0305,0,0,0.027462,1
938.79,54.233,19.273,0,0.037575,0,1000.4,61.397,-0.014242,-3.0305,0,0,0.027475,1
938.79,54.233,19.273,0,0.037575,0,1000.4,61.397,-0.014242,-3.0305,0,0,0.027475,1
938.79,54.233,19.273,0,0.037575,0,1000.4,61.397,-0.014242,-3.0305,0,0,0.027475,1
938.79,54.233,19.273,0,0.037575,0,1000.4,61.397,-0.014242,-3.0305,0,0,0.027475,1
938.79,54.233,19.273,0,0.037575,0,1000.4,61.397,-0.014242,-3.0305,0,0,0.027475,1
938.79,54.233,19.273,0,0.037575,0,1000.4,61.397,-0.014242,-3.0305,0,0,0.027475,1
938.79,54.233,19.273,0,0.037575,0,1000.4,61.397,-0.014242,-3.0305,0,0,0.027475,1
938.79,54.233,19.273,0,0.037575,0,1000.4,61.397,-0.014242,-3.0305,0,0,0.027475,1
938.79,54.233,19.273,0,0.037575,0,1000.4,61.397,-0.014242,-3.0305,0,0,0.027475,1
939.56,54.233,19.275,0,0.037669,0,1000.4,61.397,-0.014242,-3.0305,0,0,0.027819,1
939.56,54.233,19.275,0,0.037669,0,1000.4,61.397,-0.014242,-3.0305,0,0,0.027819,1
939.56,54.233,19.275,0,0.037669,0,1000.4,61.397,-0.014242,-3.0305,0,0,0.027819,1
939.56,54.233,19.275,0,0.037669,0,1000.4,61.397,-0.014242,-3.0305,0,0,0.027819,1
939.56,54.233,19.275,0,0.037669,0,1000.4,61.397,-0.014242,-3.0305,0,0,0.027819,1
939.56,54.233,19.275,0,0.037669,0,1000.4,61.397,-0.014242,-3.0305,0,0,0.027819,1
939.56,54.233,19.275,0,0.037669,0,1000.4,61.397,-0.014242,-3.0305,0,0,0.027819,1
939.56,54.233,19.275,0,0.037669,0,1000.4,61.397,-0.014242,-3.0305,0,0,0.027819,1
939.56,54.233,19.275,0,0.037669,0,1000.4,61.397,-0.014242,-3.0305,0,0,0.027819,1
940.33,54.233,19.276,0,0.037762,0,1000.4,61.276,-0.014242,-3.0305,0,0,0.028178,1
940.33,54.233,19.276,0,0.037762,0,1000.4,61.276,-0.014242,-3.0305,0,0,0.028178,1
941.87,54.233,19.279,0,0.037947,0,1000.4,61.094,-0.014242,-3.0305,0,0,0.028921,1
943.03,54.233,19.281,0,0.038085,0,1000.4,60.912,-0.013733,-3.0305,0.0042386,0,0.029508,1
943.03,54.233,19.281,0,0.038085,0,1000.4,60.912,-0.013733,-3.0305,0.0042386,0,0.029508,1
943.03,54.233,19.281,0,0.038085,0,1000.4,60.73,-0.013733,-3.0305,0.0042386,0,0.029519,1
943.03,54.233,19.281,0,0.038085,0,1000.4,60.67,-0.013733,-3.0305,0.0042386,0,0.029523,1
943.03,54.233,19.281,0,0.038085,0,1000.4,60.67,-0.013733,-3.0305,0.0042386,0,0.029523,1
943.03,54.233,19.281,0,0.038085,0,1000.4,60.67,-0.013733,-3.0305,0.0042386,0,0.029523,1
943.03,54.233,19.281,0,0.038085,0,1000.4,60.67,-0.013733,-3.0305,0.0042386,0,0.029523,1
943.03,54.233,19.281,0,0.038085,0,1000.4,60.67,-0.013733,-3.0305,0.0042386,0,0.029523,1
943.03,54.233,19.281,0,0.038085,0,1000.4,60.609,-0.013733,-3.0305,0.0042386,0,0.029526,1
944.57,54.233,19.285,0,0.038267,0,1000.4,60.609,-0.013733,-3.0305,0.0042386,0,0.030332,1
944.57,54.233,19.285,0,0.038267,0,1000.4,60.609,-0.013733,-3.0305,0.0042386,0,0.030332,1
944.57,54.233,19.285,0,0.038267,0,1000.4,60.609,-0.013733,-3.0305,0.0042386,0,0.030332,1
944.57,54.233,19.285,0,0.038267,0,1000.4,60.609,-0.013733,-3.0305,0.0042386,0,0.030332,1
944.57,54.233,19.285,0,0.038267,0,1000.4,60.609,-0.013733,-3.0305,0.0042386,0,0.030332,1
944.57,54.233,19.285,0,0.038267,0,1000.4,60.609,-0.013733,-3.0305,0.0042386,0,0.030332,1
944.57,54.233,19.285,0,0.038267,0,1000.4,60.609,-0.013733,-3.0305,0.0042386,0,0.030332,1
944.57,54.233,19.285,0,0.038267,0,1000.4,60.609,-0.013733,-3.0305,0.0042386,0,0.030332,1
945.34,54.233,19.286,0,0.038356,0,1000.4,60.488,-0.014242,-3.0305,-0.0042386,0,0.030759,1
945.34,54.233,19.286,0,0.038356,0,1000.4,60.367,-0.014242,-3.0305,-0.0042386,0,0.030767,1
945.34,54.233,19.286,0,0.038356,0,1000.4,60.367,-0.014242,-3.0305,-0.0042386,0,0.030767,1
946.11,54.233,19.288,0,0.038447,0,1000.4,60.367,-0.014242,-3.0305,-0.0042386,0,0.031199,1
946.11,54.233,19.288,0,0.038447,0,1000.4,60.367,-0.014242,-3.0305,-0.0042386,0,0.031199,1
946.11,54.233,19.288,0,0.038447,0,1000.4,60.124,-0.014242,-3.0305,0,0,0.031214,1
946.11,54.233,19.288,0,0.038447,0,1000.4,60.124,-0.014242,-3.0305,0,0,0.031214,1
946.11,54.233,19.288,0,0.038447,0,1000.4,60.124,-0.014242,-3.0305,0,0,0.031214,1
946.11,54.233,19.288,0,0.038447,0,1000.4,60.124,-0.014242,-3.0305,0,0,0.031214,1
946.11,54.233,19.288,0,0.038447,0,1000.4,60.124,-0.014242,-3.0305,0,0,0.031214,1
946.11,54.233,19.288,0,0.038447,0,1000.4,60.124,-0.014242,-3.0305,0,0,0.031214,1
946.11,54.233,19.288,0,0.038447,0,1000.4,60.124,-0.014242,-3.0305,0,0,0.031214,1
946.11,54.233,19.288,0,0.038447,0,1000.4,60.064,-0.014242,-3.0305,0,0,0.031218,1
946.11,54.233,19.288,0,0.038447,0,1000.4,60.064,-0.014242,-3.0305,0,0,0.031218,1
946.11,54.233,19.288,0,0.038447,0,1000.4,60.064,-0.014242,-3.0305,0,0,0.031218,1
946.11,54.233,19.288,0,0.038447,0,1000.4,60.064,-0.014242,-3.0305,0,0,0.031218,1
946.11,54.233,19.288,0,0.038447,0,1000.4,60.003,-0.014242,-3.0305,0,0,0.031222,1
948.43,54.233,19.292,0,0.038715,0,1000.4,60.003,-0.014242,-3.0305,0,0,0.032597,1
948.81,54.233,19.293,0,0.038759,0,1000.4,60.003,-0.014242,-3.0305,0,0,0.032838,1
948.81,54.233,19.293,0,0.038759,0,1000.4,60.003,-0.014242,-3.0305,0,0,0.032838,1
950.36,54.233,19.296,0,0.038934,0,1000.4,59.761,-0.014242,-3.0305,0,0,0.033857,1
950.74,54.233,19.297,0,0.038977,0,1000.4,59.761,-0.014242,-3.0305,0,0,0.034117,1
950.74,54.233,19.297,0,0.038977,0,1000.4,59.761,-0.014242,-3.0305,0,0,0.034117,1
950.74,54.233,19.297,0,0.038977,0,1000.4,59.761,-0.014242,-3.0305,0,0,0.034117,1
950.74,54.233,19.297,0,0.038977,0,1000.4,59.761,-0.014242,-3.0305,0,0,0.034117,1
950.74,54.233,19.297,0,0.038977,0,1000.4,59.761,-0.014242,-3.0305,0,0,0.034117,1
950.74,54.233,19.297,0,0.038977,0,1000.4,59.761,-0.014242,-3.0305,0,0,0.034117,1
950.74,54.233,19.297,0,0.038977,0,1000.4,59.761,-0.014242,-3.0305,0,0,0.034117,1
950.74,54.233,19.297,0,0.038977,0,1000.4,59.761,-0.014242,-3.0305,0,0,0.034117,1
951.13,54.233,19.298,0,0.03902,0,1000.4,59.761,-0.014242,-3.0305,0,0,0.034381,1
951.13,54.233,19.298,0,0.03902,0,1000.4,59.761,-0.014242,-3.0305,0,0,0.034381,1
951.13,54.233,19.298,0,0.03902,0,1000.4,59.761,-0.014242,-3.0305,0,0,0.034381,1
951.13,54.233,19.298,0,0.03902,0,1000.4,59.761,-0.014242,-3.0305,0,0,0.034381,1
951.13,54.233,19.298,0,0.03902,0,1000.4,59.761,-0.014242,-3.0305,0,0,0.034381,1
951.13,54.233,19.298,0,0.03902,0,1000.4,59.761,-0.014242,-3.0305,0,0,0.034381,1
951.13,54.233,19.298,0,0.03902,0,1000.4,59.761,-0.014242,-3.0305,0,0,0.034381,1
951.13,54.233,19.298,0,0.03902,0,1000.4,59.458,-0.013733,-3.0305,0.0042386,0,0.034406,1
951.13,54.233,19.298,0,0.03902,0,1000.4,59.458,-0.013733,-3.0305,0.0042386,0,0.034406,1
951.13,54.233,19.298,0,0.03902,0,1000.4,59.458,-0.013733,-3.0305,0.0042386,0,0.034406,1
951.13,54.233,19.298,0,0.03902,0,1000.4,59.458,-0.013733,-3.0305,0.0042386,0,0.034406,1
951.13,54.233,19.298,0,0.03902,0,1000.4,59.458,-0.013733,-3.0305,0.0042386,0,0.034406,1
951.13,54.233,19.298,0,0.03902,0,1000.4,59.458,-0.013733,-3.0305,0.0042386,0,0.034406,1
953.06,54.233,19.302,0,0.039236,0,1000.4,59.397,-0.013733,-3.0305,0.0042386,0,0.035798,1
953.06,54.233,19.302,0,0.039236,0,1000.4,59.397,-0.013733,-3.0305,0.0042386,0,0.035798,1
953.44,54.233,19.302,0,0.039279,0,1000.4,59.397,-0.013733,-3.0305,0.0042386,0,0.036089,1
954.6,54.233,19.305,0,0.039406,0,1000.4,59.033,-0.014242,-3.0305,-0.0042386,0,0.037023,1
954.6,54.233,19.305,0,0.039406,0,1000.4,59.033,-0.014242,-3.0305,-0.0042386,0,0.037023,1
954.6,54.233,19.305,0,0.039406,0,1000.4,58.852,-0.014242,-3.0305,-0.0042386,0,0.037038,1
954.6,54.233,19.305,0,0.039406,0,1000.4,58.791,-0.014242,-3.0305,-0.0042386,0,0.037043,1
954.6,54.233,19.305,0,0.039406,0,1000.4,58.791,-0.014242,-3.0305,-0.0042386,0,0.037043,1
954.6,54.233,19.305,0,0.039406,0,1000.4,58.73,-0.014242,-3.0305,0,0,0.037048,1
954.6,54.233,19.305,0,0.039406,0,1000.4,58.73,-0.014242,-3.0305,0,0,0.037048,1
954.6,54.233,19.305,0,0.039406,0,1000.4,58.73,-0.014242,-3.0305,0,0,0.037048,1
954.6,54.233,19.305,0,0.039406,0,1000.4,58.73,-0.014242,-3.0305,0,0,0.037048,1
954.6,54.233,19.305,0,0.039406,0,1000.4,58.73,-0.014242,-3.0305,0,0,0.037048,1
954.6,54.233,19.305,0,0.039406,0,1000.4,58.73,-0.014242,-3.0305,0,0,0.037048,1
956.53,54.233,19.309,0,0.039616,0,1000.4,58.73,-0.014242,-3.0305,0,0,0.038663,1
956.53,54.233,19.309,0,0.039616,0,1000.4,58.73,-0.014242,-3.0305,0,0,0.038663,1
956.53,54.233,19.309,0,0.039616,0,1000.4,58.73,-0.014242,-3.0305,0,0,0.038663,1
956.53,54.233,19.309,0,0.039616,0,1000.4,58.73,-0.014242,-3.0305,0,0,0.038663,1
956.53,54.233,19.309,0,0.039616,0,1000.4,58.73,-0.014242,-3.0305,0,0,0.038663,1
956.53,54.233,19.309,0,0.039616,0,1000.4,58.73,-0.014242,-3.0305,0,0,0.038663,1
956.53,54.233,19.309,0,0.039616,0,1000.4,58.73,-0.014242,-3.0305,0,0,0.038663,1
956.53,54.233,19.309,0,0.039616,0,1000.4,58.73,-0.014242,-3.0305,0,0,0.038663,1
956.53,54.233,19.309,0,0.039616,0,1000.4,58.73,-0.014242,-3.0305,0,0,0.038663,1
956.53,54.233,19.309,0,0.039616,0,1000.4,58.73,-0.014242,-3.0305,0,0,0.038663,1
956.53,54.233,19.309,0,0.039616,0,1000.4,58.609,-0.014242,-3.0305,0,0,0.038675,1
958.08,54.233,19.312,0,0.039781,0,1000.4,58.548,-0.014242,-3.0305,0,0,0.040079,1
958.46,54.233,19.313,0,0.039822,0,1000.4,58.548,-0.014242,-3.0305,0,0,0.040444,1
960.01,54.233,19.316,0,0.039986,0,1000.4,58.185,-0.013733,-3.0305,0.0042386,0,0.042017,1
960.01,54.233,19.316,0,0.039986,0,1000.4,58.185,-0.013733,-3.0305,0.0042386,0,0.042017,1
960.01,54.233,19.316,0,0.039986,0,1000.4,58.064,-0.013733,-3.0305,0.0042386,0,0.042029,1
960.01,54.233,19.316,0,0.039986,0,1000.4,58.064,-0.013733,-3.0305,0.0042386,0,0.042029,1
960.01,54.233,19.316,0,0.039986,0,1000.4,58.064,-0.013733,-3.0305,0.0042386,0,0.042029,1
960.01,54.233,19.316,0,0.039986,0,1000.4,58.064,-0.013733,-3.0305,0.0042386,0,0.042029,1
960.01,54.233,19.316,0,0.039986,0,1000.4,58.064,-0.013733,-3.0305,0.0042386,0,0.042029,1
960.01,54.233,19.316,0,0.039986,0,1000.4,58.064,-0.013733,-3.0305,0.0042386,0,0.042029,1
960.01,54.233,19.316,0,0.039986,0,1000.4,58.064,-0.013733,-3.0305,0.0042386,0,0.042029,1
960.01,54.233,19.316,0,0.039986,0,1000.4,58.064,-0.013733,-3.0305,0.0042386,0,0.042029,1
960.01,54.233,19.316,0,0.039986,0,1000.4,58.064,-0.013733,-3.0305,0.0042386,0,0.042029,1
960.78,54.233,19.317,0,0.040066,0,1000.4,58.064,-0.013733,-3.0305,0.0042386,0,0.042842,1
960.78,54.233,19.317,0,0.040066,0,1000.4,58.064,-0.013733,-3.0305,0.0042386,0,0.042842,1
960.78,54.233,19.317,0,0.040066,0,1000.4,58.064,-0.013733,-3.0305,0.0042386,0,0.042842,1
960.78,54.233,19.317,0,0.040066,0,1000.4,58.064,-0.013733,-3.0305,0.0042386,0,0.042842,1
960.78,54.233,19.317,0,0.040066,0,1000.4,58.064,-0.013733,-3.0305,0.0042386,0,0.042842,1
960.78,54.233,19.317,0,0.040066,0,1000.4,58.064,-0.013733,-3.0305,0.0042386,0,0.042842,1
960.78,54.233,19.317,0,0.040066,0,1000.4,58.064,-0.013733,-3.0305,0.0042386,0,0.042842,1
960.78,54.233,19.317,0,0.040066,0,1000.4,58.064,-0.013733,-3.0305,0.0042386,0,0.042842,1
960.78,54.233,19.317,0,0.040066,0,1000.4,58.064,-0.013733,-3.0305,0.0042386,0,0.042842,1
960.78,54.233,19.317,0,0.040066,0,1000.4,57.942,-0.014242,-3.0305,-0.0042386,0,0.042854,1
960.78,54.233,19.317,0,0.040066,0,1000.4,57.942,-0.014242,-3.0305,-0.0042386,0,0.042854,1
960.78,54.233,19.317,0,0.040066,0,1000.4,57.942,-0.014242,-3.0305,-0.0042386,0,0.042854,1
960.78,54.233,19.317,0,0.040066,0,1000.4,57.882,-0.014242,-3.0305,-0.0042386,0,0.04286,1
962.71,54.233,19.321,0,0.040267,0,1000.4,57.882,-0.014242,-3.0305,-0.0042386,0,0.04504,1
963.1,54.233,19.322,0,0.040307,0,1000.4,57.882,-0.014242,-3.0305,-0.0042386,0,0.045502,1
964.65,54.233,19.326,0,0.040465,0,1000.4,57.518,-0.014242,-3.0305,0,0,0.0475,1
964.65,54.233,19.326,0,0.040465,0,1000.4,57.336,-0.014242,-3.0305,0,0,0.047523,1
964.65,54.233,19.326,0,0.040465,0,1000.4,57.276,-0.014242,-3.0305,0,0,0.04753,1
964.65,54.233,19.326,0,0.040465,0,1000.4,57.276,-0.014242,-3.0305,0,0,0.04753,1
964.65,54.233,19.326,0,0.040465,0,1000.4,57.276,-0.014242,-3.0305,0,0,0.04753,1
964.65,54.233,19.326,0,0.040465,0,1000.4,57.276,-0.014242,-3.0305,0,0,0.04753,1
964.65,54.233,19.326,0,0.040465,0,1000.4,57.215,-0.014242,-3.0305,0,0,0.047537,1
964.65,54.233,19.326,0,0.040465,0,1000.4,57.215,-0.014242,-3.0305,0,0,0.047537,1
964.65,54.233,19.326,0,0.040465,0,1000.4,57.215,-0.014242,-3.0305,0,0,0.047537,1
964.65,54.233,19.326,0,0.040465,0,1000.4,57.215,-0.014242,-3.0305,0,0,0.047537,1
964.65,54.233,19.326,0,0.040465,0,1000.4,57.215,-0.014242,-3.0305,0,0,0.047537,1
964.65,54.233,19.326,0,0.040465,0,1000.4,57.215,-0.014242,-3.0305,0,0,0.047537,1
964.65,54.233,19.326,0,0.040465,0,1000.4,57.215,-0.014242,-3.0305,0,0,0.047537,1
964.65,54.233,19.326,0,0.040465,0,1000.4,57.215,-0.014242,-3.0305,0,0,0.047537,1
964.65,54.233,19.326,0,0.040465,0,1000.4,57.215,-0.014242,-3.0305,0,0,0.047537,1
966.19,54.233,19.329,0,0.040619,0,1000.4,57.215,-0.014242,-3.0305,0,0,0.049672,1
966.19,54.233,19.329,0,0.040619,0,1000.4,57.215,-0.014242,-3.0305,0,0,0.049672,1
966.19,54.233,19.329,0,0.040619,0,1000.4,57.215,-0.014242,-3.0305,0,0,0.049672,1
966.19,54.233,19.329,0,0.040619,0,1000.4,57.215,-0.014242,-3.0305,0,0,0.049672,1
966.19,54.233,19.329,0,0.040619,0,1000.4,57.215,-0.014242,-3.0305,0,0,0.049672,1
966.19,54.233,19.329,0,0.040619,0,1000.4,57.215,-0.014242,-3.0305,0,0,0.049672,1
966.58,54.233,19.33,0,0.040658,0,1000.4,57.215,-0.014242,-3.0305,0,0,0.050236,1
966.58,54.233,19.33,0,0.040658,0,1000.4,57.033,-0.014242,-3.0305,0,0,0.050261,1
966.58,54.233,19.33,0,0.040658,0,1000.4,57.033,-0.014242,-3.0305,0,0,0.050261,1
968.51,54.233,19.334,0,0.040848,0,1000.4,56.851,-0.013733,-3.0305,0.0042386,0,0.053317,1
968.51,54.233,19.334,0,0.040848,0,1000.4,56.73,-0.013733,-3.0305,0.0042386,0,0.053334,1
969.67,54.233,19.336,0,0.040961,0,1000.4,56.73,-0.013733,-3.0305,0.0042386,0,0.055337,1
969.67,54.233,19.336,0,0.040961,0,1000.4,56.548,-0.014242,-3.0305,-0.0042386,0,0.055363,1
969.67,54.233,19.336,0,0.040961,0,1000.4,56.548,-0.014242,-3.0305,-0.0042386,0,0.055363,1
969.67,54.233,19.336,0,0.040961,0,1000.4,56.488,-0.014242,-3.0305,-0.0042386,0,0.055371,1
969.67,54.233,19.336,0,0.040961,0,1000.4,56.488,-0.014242,-3.0305,-0.0042386,0,0.055371,1
969.67,54.233,19.336,0,0.040961,0,1000.4,56.488,-0.014242,-3.0305,-0.0042386,0,0.055371,1
969.67,54.233,19.336,0,0.040961,0,1000.4,56.488,-0.014242,-3.0305,-0.0042386,0,0.055371,1
969.67,54.233,19.336,0,0.040961,0,1000.4,56.488,-0.014242,-3.0305,-0.0042386,0,0.055371,1
969.67,54.233,19.336,0,0.040961,0,1000.4,56.488,-0.014242,-3.0305,-0.0042386,0,0.055371,1
969.67,54.233,19.336,0,0.040961,0,1000.4,56.488,-0.014242,-3.0305,-0.0042386,0,0.055371,1
969.67,54.233,19.336,0,0.040961,0,1000.4,56.488,-0.014242,-3.0305,-0.0042386,0,0.055371,1
969.67,54.233,19.336,0,0.040961,0,1000.4,56.488,-0.014242,-3.0305,-0.0042386,0,0.055371,1
970.83,54.233,19.339,0,0.041073,0,1000.4,56.488,-0.014242,-3.0305,-0.0042386,0,0.057535,1
970.83,54.233,19.339,0,0.041073,0,1000.4,56.488,-0.014242,-3.0305,-0.0042386,0,0.057535,1
970.83,54.233,19.339,0,0.041073,0,1000.4,56.488,-0.014242,-3.0305,-0.0042386,0,0.057535,1
970.83,54.233,19.339,0,0.041073,0,1000.4,56.488,-0.014242,-3.0305,-0.0042386,0,0.057535,1
970.83,54.233,19.339,0,0.041073,0,1000.4,56.488,-0.014242,-3.0305,-0.0042386,0,0.057535,1
970.83,54.233,19.339,0,0.041073,0,1000.4,56.488,-0.014242,-3.0305,-0.0042386,0,0.057535,1
970.83,54.233,19.339,0,0.041073,0,1000.4,56.488,-0.014242,-3.0305,-0.0042386,0,0.057535,1
971.22,54.233,19.339,0,0.04111,0,1000.4,56.488,-0.014242,-3.0305,-0.0042386,0,0.058294,1
971.22,54.233,19.339,0,0.04111,0,1000.4,56.488,-0.014242,-3.0305,-0.0042386,0,0.058294,1
971.61,54.233,19.34,0,0.041147,0,1000.4,56.488,-0.014242,-3.0305,-0.0042386,0,0.059073,1
973.15,54.233,19.343,0,0.041294,0,1000.4,56.185,-0.014242,-3.0305,0,0,0.062467,1
973.54,54.233,19.344,0,0.041331,0,1000.4,56.185,-0.014242,-3.0305,0,0,0.063364,1
974.7,54.233,19.347,0,0.041438,0,1000.4,55.882,-0.014242,-3.0305,0,0,0.066272,1
974.7,54.233,19.347,0,0.041438,0,1000.4,55.882,-0.014242,-3.0305,0,0,0.066272,1
974.7,54.233,19.347,0,0.041438,0,1000.4,55.76,-0.014242,-3.0305,0,0,0.066293,1
974.7,54.233,19.347,0,0.041438,0,1000.4,55.76,-0.014242,-3.0305,0,0,0.066293,1
974.7,54.233,19.347,0,0.041438,0,1000.4,55.76,-0.014242,-3.0305,0,0,0.066293,1
974.7,54.233,19.347,0,0.041438,0,1000.4,55.76,-0.014242,-3.0305,0,0,0.066293,1
974.7,54.233,19.347,0,0.041438,0,1000.4,55.76,-0.014242,-3.0305,0,0,0.066293,1
974.7,54.233,19.347,0,0.041438,0,1000.4,55.76,-0.014242,-3.0305,0,0,0.066293,1
974.7,54.233,19.347,0,0.041438,0,1000.4,55.76,-0.014242,-3.0305,0,0,0.066293,1
974.7,54.233,19.347,0,0.041438,0,1000.4,55.76,-0.014242,-3.0305,0,0,0.066293,1
975.48,54.233,19.348,0,0.04151,0,1000.4,55.76,-0.014242,-3.0305,0,0,0.068347,1
975.48,54.233,19.348,0,0.04151,0,1000.4,55.76,-0.014242,-3.0305,0,0,0.068347,1
975.48,54.233,19.348,0,0.04151,0,1000.4,55.76,-0.014242,-3.0305,0,0,0.068347,1
975.48,54.233,19.348,0,0.04151,0,1000.4,55.76,-0.014242,-3.0305,0,0,0.068347,1
975.48,54.233,19.348,0,0.04151,0,1000.4,55.76,-0.014242,-3.0305,0,0,0.068347,1
975.48,54.233,19.348,0,0.04151,0,1000.4,55.76,-0.014242,-3.0305,0,0,0.068347,1
975.48,54.233,19.348,0,0.04151,0,1000.4,55.76,-0.014242,-3.0305,0,0,0.068347,1
975.48,54.233,19.348,0,0.04151,0,1000.4,55.76,-0.014242,-3.0305,0,0,0.068347,1
975.48,54.233,19.348,0,0.04151,0,1000.4,55.76,-0.014242,-3.0305,0,0,0.068347,1
975.48,54.233,19.348,0,0.04151,0,1000.4,55.76,-0.014242,-3.0305,0,0,0.068347,1
975.48,54.233,19.348,0,0.04151,0,1000.4,55.76,-0.014242,-3.0305,0,0,0.068347,1
975.48,54.233,19.348,0,0.04151,0,1000.4,55.639,-0.014242,-3.0305,0,0,0.068369,1
975.48,54.233,19.348,0,0.04151,0,1000.4,55.639,-0.014242,-3.0305,0,0,0.068369,1
975.48,54.233,19.348,0,0.04151,0,1000.4,55.639,-0.014242,-3.0305,0,0,0.068369,1
977.41,54.233,19.252,0,-10,0,1000.4,55.518,-0.014242,-3.0305,0,0,0.074136,1
977.41,54.233,19.252,0,-10,0,1000.4,55.518,-0.014242,-3.0305,0,0,0.074136,1
977.41,54.233,19.252,0,-10,0,1000.4,55.276,-0.013733,-3.0305,0.0042386,0,0.074181,1
979.29,54.233,18.252,0,-10,0,1000.4,55.276,-0.013733,-3.0305,0.0042386,0,0.080768,1
979.29,54.233,18.252,0,-10,0,1000.4,55.276,-0.013733,-3.0305,0.0042386,0,0.080768,1
979.29,54.233,18.252,0,-10,0,1000.4,55.276,-0.013733,-3.0305,0.0042386,0,0.080768,1
979.29,54.233,18.252,0,-10,0,1000.4,55.276,-0.013733,-3.0305,0.0042386,0,0.080768,1
979.65,54.233,18.052,0,-10,0,1000.4,55.276,-0.013733,-3.0305,0.0042386,0,0.08218,1
979.65,54.233,18.052,0,-10,0,1000.4,54.972,-0.014242,-3.0305,-0.0042386,0,0.082236,1
979.65,54.233,18.052,0,-10,0,1000.4,54.912,-0.014242,-3.0305,-0.0042386,0,0.082245,1
979.65,54.233,18.052,0,-10,0,1000.4,54.912,-0.014242,-3.0305,-0.0042386,0,0.082245,1
979.65,54.233,18.052,0,-10,0,1000.4,54.912,-0.014242,-3.0305,-0.0042386,0,0.082245,1
979.65,54.233,18.052,0,-10,0,1000.4,54.912,-0.014242,-3.0305,-0.0042386,0,0.082245,1
979.65,54.233,18.052,0,-10,0,1000.4,54.912,-0.014242,-3.0305,-0.0042386,0,0.082245,1
981.06,54.233,17.252,0,-10,0,1000.4,54.851,-0.014242,-3.0305,-0.0042386,0,0.088269,1
981.06,54.233,17.252,0,-10,0,1000.4,54.851,-0.014242,-3.0305,-0.0042386,0,0.088269,1
981.06,54.233,17.252,0,-10,0,1000.4,54.73,-0.014242,-3.0305,0,0,0.088287,1
981.06,54.233,17.252,0,-10,0,1000.4,54.73,-0.014242,-3.0305,0,0,0.088287,1
981.06,54.233,17.252,0,-10,0,1000.4,54.73,-0.014242,-3.0305,0,0,0.088287,1
981.06,54.233,17.252,0,-10,0,1000.4,54.73,-0.014242,-3.0305,0,0,0.088287,1
981.06,54.233,17.252,0,-10,0,1000.4,54.73,-0.014242,-3.0305,0,0,0.088287,1
981.06,54.233,17.252,0,-10,0,1000.4,54.73,-0.014242,-3.0305,0,0,0.088287,1
981.06,54.233,17.252,0,-10,0,1000.4,54.73,-0.014242,-3.0305,0,0,0.088287,1
981.06,54.233,17.252,0,-10,0,1000.4,54.669,-0.014242,-3.0305,0,0,0.088295,1
982.41,54.233,16.452,0,-10,0,1000.4,54.669,-0.014242,-3.0305,0,0,0.094925,1
982.41,54.233,16.452,0,-10,0,1000.4,54.669,-0.014242,-3.0305,0,0,0.094925,1
982.41,54.233,16.452,0,-10,0,1000.4,54.669,-0.014242,-3.0305,0,0,0.094925,1
982.41,54.233,16.452,0,-10,0,1000.4,54.488,-0.014242,-3.0305,0,0,0.094948,1
982.41,54.233,16.452,0,-10,0,1000.4,54.488,-0.014242,-3.0305,0,0,0.094948,1
982.41,54.233,16.452,0,-10,0,1000.4,54.488,-0.014242,-3.0305,0,0,0.094948,1
982.41,54.233,16.452,0,-10,0,1000.4,54.488,-0.014242,-3.0305,0,0,0.094948,1
982.41,54.233,16.452,0,-10,0,1000.4,54.488,-0.014242,-3.0305,0,0,0.094948,1
983.69,54.233,15.652,0,-10,0,1000.4,54.366,-0.014242,-3.0305,0,0,0.10228,1
983.69,54.233,15.652,0,-10,0,1000.3,54.245,-0.014242,-3.0305,0,0,0.10229,1
984.31,54.233,15.252,0,-10,0,1000.3,54.245,-0.014242,-3.0305,0,0,0.10623,1
984.31,54.233,15.252,0,-10,0,1000.3,54.245,-0.014242,-3.0305,0,0,0.10623,1
984.91,54.233,14.852,0,-10,0,1000.3,54.245,-0.014242,-3.0305,0,0,0.11037,1
984.91,54.233,14.852,0,-10,0,1000.3,54.245,-0.014242,-3.0305,0,0,0.11037,1
984.91,54.233,14.852,0,-10,0,1000.3,54.003,-0.013733,-3.0305,0.0042386,0,0.11037,1
984.91,54.233,14.852,0,-10,0,1000.3,54.003,-0.013733,-3.0305,0.0042386,0,0.11037,1
984.91,54.233,14.852,0,-10,0,1000.3,54.003,-0.013733,-3.0305,0.0042386,0,0.11037,1
984.91,54.233,14.852,0,-10,0,1000.3,54.003,-0.013733,-3.0305,0.0042386,0,0.11037,1
984.91,54.233,14.852,0,-10,0,1000.3,54.003,-0.013733,-3.0305,0.0042386,0,0.11037,1
984.91,54.233,14.852,0,-10,0,1000.3,54.003,-0.013733,-3.0305,0.0042386,0,0.11037,1
984.91,54.233,14.852,0,-10,0,1000.3,54.003,-0.013733,-3.0305,0.0042386,0,0.11037,1
985.5,54.233,14.452,0,-10,0,1000.3,54.003,-0.013733,-3.0305,0.0042386,0,0.11472,1
985.79,54.233,14.252,0,-10,0,1000.3,54.003,-0.013733,-3.0305,0.0042386,0,0.11698,1
985.79,54.233,14.252,0,-10,0,1000.3,54.003,-0.013733,-3.0305,0.0042386,0,0.11698,1
986.07,54.233,14.052,0,-10,0,1000.3,54.003,-0.013733,-3.0305,0.0042386,0,0.1193,1
986.07,54.233,14.052,0,-10,0,1000.3,54.003,-0.013733,-3.0305,0.0042386,0,0.1193,1
986.62,54.233,13.652,0,-10,0,1000.3,54.003,-0.013733,-3.0305,0.0042386,0,0.12412,1
987.16,54.233,13.252,0,-10,0,1000.3,53.639,-0.014242,-3.0305,-0.0042386,0,0.12908,1
987.16,54.233,13.252,0,-10,0,1000.3,53.639,-0.014242,-3.0305,-0.0042386,0,0.12908,1
987.42,54.233,13.052,0,-10,0,1000.3,53.639,-0.014242,-3.0305,-0.0042386,0,0.1317,1
987.42,54.233,13.052,0,-10,0,1000.3,53.639,-0.014242,-3.0305,-0.0042386,0,0.1317,1
987.68,54.233,12.852,0,-10,0,1000.3,53.639,-0.014242,-3.0305,-0.0042386,0,0.13439,1
987.68,54.233,12.852,0,-10,0,1000.3,53.639,-0.014242,-3.0305,-0.0042386,0,0.13439,1
987.68,54.233,12.852,0,-10,0,1000.3,53.639,-0.014242,-3.0305,-0.0042386,0,0.13439,1
987.68,54.233,12.852,0,-10,0,1000.3,53.639,-0.014242,-3.0305,-0.0042386,0,0.13439,1
987.68,54.233,12.852,0,-10,0,1000.3,53.639,-0.014242,-3.0305,-0.0042386,0,0.13439,1
987.68,54.233,12.852,0,-10,0,1000.3,53.639,-0.014242,-3.0305,-0.0042386,0,0.13439,1
987.68,54.233,12.852,0,-10,0,1000.3,53.639,-0.014242,-3.0305,-0.0042386,0,0.13439,1
987.68,54.233,12.852,0,-10,0,1000.3,53.639,-0.014242,-3.0305,-0.0042386,0,0.13439,1
987.68,54.233,12.852,0,-10,0,1000.3,53.639,-0.014242,-3.0305,-0.0042386,0,0.13439,1
987.68,54.233,12.852,0,-10,0,1000.3,53.639,-0.014242,-3.0305,-0.0042386,0,0.13439,1
987.68,54.233,12.852,0,-10,0,1000.3,53.639,-0.014242,-3.0305,-0.0042386,0,0.13439,1
987.68,54.233,12.852,0,-10,0,1000.3,53.397,-0.014242,-3.0305,-0.0042386,0,0.13426,1
987.68,54.233,12.852,0,-10,0,1000.3,53.397,-0.014242,-3.0305,-0.0042386,0,0.13426,1
987.68,54.233,12.852,0,-10,0,1000.3,53.336,-0.014242,-3.0305,-0.0042386,0,0.13422,1
987.68,54.233,12.852,0,-10,0,1000.3,53.336,-0.014242,-3.0305,-0.0042386,0,0.13422,1
988.92,54.233,11.852,0,-10,0,1000.3,53.275,-0.014242,-3.0305,0,0,0.14858,1
988.92,54.233,11.852,0,-10,0,1000.3,53.275,-0.014242,-3.0305,0,0,0.14858,1
988.92,54.233,11.852,0,-10,0,1000.3,52.972,-0.014242,-3.0305,0,0,0.14822,1
988.92,54.233,11.852,0,-10,0,1000.3,52.972,-0.014242,-3.0305,0,0,0.14822,1
988.92,54.233,11.852,0,-10,0,1000.3,52.912,-0.013733,-3.0305,0.0042386,0,0.14814,1
988.92,54.233,11.852,0,-10,0,1000.3,52.912,-0.013733,-3.0305,0.0042386,0,0.14814,1
988.92,54.233,11.852,0,-10,0,1000.3,52.851,-0.013733,-3.0305,0.0042386,0,0.14805,1
988.92,54.233,11.852,0,-10,0,1000.3,52.851,-0.013733,-3.0305,0.0042386,0,0.14805,1
988.92,54.233,11.852,0,-10,0,1000.3,52.851,-0.013733,-3.0305,0.0042386,0,0.14805,1
988.92,54.233,11.852,0,-10,0,1000.3,52.851,-0.013733,-3.0305,0.0042386,0,0.14805,1
988.92,54.233,11.852,0,-10,0,1000.3,52.851,-0.013733,-3.0305,0.0042386,0,0.14805,1
988.92,54.233,11.852,0,-10,0,1000.3,52.851,-0.013733,-3.0305,0.0042386,0,0.14805,1
990.27,54.233,10.784,0,3.1702,0,1000.3,52.851,-0.013733,-3.0305,0.0042386,0,0.16757,1
990.49,54.233,10.848,0,3.1962,0,1000.3,52.851,-0.013733,-3.0305,0.0042386,0,0.17117,1
990.49,54.233,10.848,0,3.1962,0,1000.3,52.851,-0.013733,-3.0305,0.0042386,0,0.17117,1
990.7,54.233,10.912,0,3.2047,0,1000.3,52.851,-0.013733,-3.0305,0.0042386,0,0.17496,1
990.7,54.233,10.912,0,3.2047,0,1000.3,52.851,-0.013733,-3.0305,0.0042386,0,0.17496,1
990.92,54.233,10.976,0,3.1967,0,1000.3,52.851,-0.013733,-3.0305,0.0042386,0,0.17894,1
990.92,54.233,10.976,0,3.1967,0,1000.3,52.487,-0.014242,-3.0305,-0.0042386,0,0.17786,1
990.92,54.233,10.976,0,3.1967,0,1000.3,52.487,-0.014242,-3.0305,-0.0042386,0,0.17786,1
990.92,54.233,10.976,0,3.1967,0,1000.3,52.487,-0.014242,-3.0305,-0.0042386,0,0.17786,1
990.92,54.233,10.976,0,3.1967,0,1000.3,52.487,-0.014242,-3.0305,-0.0042386,0,0.17786,1
990.92,54.233,10.976,0,3.1967,0,1000.3,52.427,-0.014242,-3.0305,-0.0042386,0,0.17765,1
990.92,54.233,10.976,0,3.1967,0,1000.3,52.427,-0.014242,-3.0305,-0.0042386,0,0.17765,1
990.92,54.233,10.976,0,3.1967,0,1000.3,52.366,-0.014242,-3.0305,-0.0042386,0,0.17744,1
990.92,54.233,10.976,0,3.1967,0,1000.3,52.366,-0.014242,-3.0305,-0.0042386,0,0.17744,1
990.92,54.233,10.976,0,3.1967,0,1000.3,52.306,-0.014242,-3.0305,-0.0042386,0,0.17723,1
990.92,54.233,10.976,0,3.1967,0,1000.3,52.306,-0.014242,-3.0305,-0.0042386,0,0.17723,1
990.92,54.233,10.976,0,3.1967,0,1000.3,52.306,-0.014242,-3.0305,-0.0042386,0,0.17723,1
992.49,54.233,11.419,0,3.1371,0,1000.3,52.245,-0.014242,-3.0305,-0.0042386,0,0.21039,1
992.49,54.233,11.419,0,3.1371,0,1000.3,52.245,-0.014242,-3.0305,-0.0042386,0,0.21039,1
992.49,54.233,11.419,0,3.1371,0,1000.3,52.124,-0.014242,-3.0305,0,0,0.20962,1
992.49,54.233,11.419,0,3.1371,0,1000.3,52.124,-0.014242,-3.0305,0,0,0.20962,1
992.49,54.233,11.419,0,3.1371,0,1000.3,52.124,-0.014242,-3.0305,0,0,0.20962,1
992.49,54.233,11.419,0,3.1371,0,1000.3,52.063,-0.014242,-3.0305,0,0,0.20921,1
992.49,54.233,11.419,0,3.1371,0,1000.3,52.063,-0.014242,-3.0305,0,0,0.20921,1
992.49,54.233,11.419,0,3.1371,0,1000.3,52.003,-0.014242,-3.0305,0,0,0.2088,1
992.49,54.233,11.419,0,3.1371,0,1000.3,51.942,-0.014242,-3.0305,0,0,0.20838,1
992.49,54.233,11.419,0,3.1371,0,1000.3,51.942,-0.014242,-3.0305,0,0,0.20838,1
993.88,54.233,11.792,0,3.0812,0,1000.3,51.881,-0.014242,-3.0305,0,0,0.24798,1
993.88,54.233,11.792,0,3.0812,0,1000.3,51.881,-0.014242,-3.0305,0,0,0.24798,1
993.88,54.233,11.792,0,3.0812,0,1000.3,51.881,-0.014242,-3.0305,0,0,0.24798,1
993.88,54.233,11.792,0,3.0812,0,1000.3,51.76,-0.014242,-3.0305,0,0,0.24648,1
993.88,54.233,11.792,0,3.0812,0,1000.3,51.76,-0.014242,-3.0305,0,0,0.24648,1
993.88,54.233,11.792,0,3.0812,0,1000.3,51.76,-0.014242,-3.0305,0,0,0.24648,1
993.88,54.233,11.792,0,3.0812,0,1000.3,51.76,-0.014242,-3.0305,0,0,0.24648,1
993.88,54.233,11.792,0,3.0812,0,1000.3,51.76,-0.014242,-3.0305,0,0,0.24648,1
993.88,54.233,11.792,0,3.0812,0,1000.3,51.76,-0.014242,-3.0305,0,0,0.24648,1
993.88,54.233,11.792,0,3.0812,0,1000.3,51.76,-0.014242,-3.0305,0,0,0.24648,1
993.88,54.233,11.792,0,3.0812,0,1000.3,51.699,-0.014242,-3.0305,0,0,0.24571,1
993.88,54.233,11.792,0,3.0812,0,1000.3,51.699,-0.014242,-3.0305,0,0,0.24571,1
993.88,54.233,11.792,0,3.0812,0,1000.3,51.699,-0.014242,-3.0305,0,0,0.24571,1
993.88,54.233,11.792,0,3.0812,0,1000.3,51.699,-0.014242,-3.0305,0,0,0.24571,1
993.88,54.233,11.792,0,3.0812,0,1000.3,51.699,-0.014242,-3.0305,0,0,0.24571,1
993.88,54.233,11.792,0,3.0812,0,1000.3,51.699,-0.014242,-3.0305,0,0,0.24571,1
993.88,54.233,11.792,0,3.0812,0,1000.3,51.639,-0.014242,-3.0305,0,0,0.24493,1
994.84,54.233,12.037,0,3.0415,0,1000.3,51.639,-0.014242,-3.0305,0,0,0.28012,1
994.84,54.233,12.037,0,3.0415,0,1000.3,51.639,-0.014242,-3.0305,0,0,0.28012,1
995.32,54.233,12.158,0,3.021,0,1000.3,51.639,-0.014242,-3.0305,0,0,0.30165,1
996.05,54.233,12.339,0,2.9892,0,1000.3,51.396,-0.013733,-3.0305,0.0042386,0,0.33177,1
996.55,54.233,12.458,0,2.9675,0,1000.3,51.215,-0.013733,-3.0305,0.0042386,0,0.352,1
996.55,54.233,12.458,0,2.9675,0,1000.3,51.215,-0.013733,-3.0305,0.0042386,0,0.352,1
996.55,54.233,12.458,0,2.9675,0,1000.3,51.215,-0.013733,-3.0305,0.0042386,0,0.352,1
996.8,54.233,12.517,0,2.9565,0,1000.3,51.215,-0.013733,-3.0305,0.0042386,0,0.36659,1
996.8,54.233,12.517,0,2.9565,0,1000.3,51.215,-0.013733,-3.0305,0.0042386,0,0.36659,1
996.8,54.233,12.517,0,2.9565,0,1000.3,51.215,-0.013733,-3.0305,0.0042386,0,0.36659,1
996.8,54.233,12.517,0,2.9565,0,1000.3,51.215,-0.013733,-3.0305,0.0042386,0,0.36659,1
996.8,54.233,12.517,0,2.9565,0,1000.3,51.215,-0.013733,-3.0305,0.0042386,0,0.36659,1
996.8,54.233,12.517,0,2.9565,0,1000.3,51.215,-0.013733,-3.0305,0.0042386,0,0.36659,1
996.8,54.233,12.517,0,2.9565,0,1000.3,51.215,-0.013733,-3.0305,0.0042386,0,0.36659,1
997.05,54.233,12.576,0,2.9453,0,1000.3,51.215,-0.013733,-3.0305,0.0042386,0,0.38204,1
997.05,54.233,12.576,0,2.9453,0,1000.3,51.215,-0.013733,-3.0305,0.0042386,0,0.38204,1
997.05,54.233,12.576,0,2.9453,0,1000.3,51.215,-0.013733,-3.0305,0.0042386,0,0.38204,1
997.05,54.233,12.576,0,2.9453,0,1000.3,51.215,-0.013733,-3.0305,0.0042386,0,0.38204,1
997.05,54.233,12.576,0,2.9453,0,1000.3,51.215,-0.013733,-3.0305,0.0042386,0,0.38204,1
997.05,54.233,12.576,0,2.9453,0,1000.3,51.215,-0.013733,-3.0305,0.0042386,0,0.38204,1
997.05,54.233,12.576,0,2.9453,0,1000.3,51.215,-0.013733,-3.0305,0.0042386,0,0.38204,1
997.05,54.233,12.576,0,2.9453,0,1000.3,50.972,-0.014242,-3.0305,-0.0042386,0,0.36827,1
997.05,54.233,12.576,0,2.9453,0,1000.3,50.972,-0.014242,-3.0305,-0.0042386,0,0.36827,1
998.07,54.233,12.81,0,2.8995,0,1000.3,50.912,-0.014242,-3.0305,-0.0042386,0,0.42379,1
998.07,54.233,12.81,0,2.8995,0,1000.3,50.73,-0.014242,-3.0305,0,0,0.40846,1
998.58,54.233,12.925,0,2.876,0,1000.3,50.73,-0.014242,-3.0305,0,0,0.43516,1
998.58,54.233,12.925,0,2.876,0,1000.3,50.548,-0.014242,-3.0305,0,0,0.41777,1
998.58,54.233,12.925,0,2.876,0,1000.3,50.548,-0.014242,-3.0305,0,0,0.41777,1
999.36,54.233,13.097,0,2.8398,0,1000.3,50.548,-0.014242,-3.0305,0,0,0.44734,1
999.36,54.233,13.097,0,2.8398,0,1000.3,50.548,-0.014242,-3.0305,0,0,0.44734,1
999.36,54.233,13.097,0,2.8398,0,1000.3,50.548,-0.014242,-3.0305,0,0,0.44734,1
999.36,54.233,13.097,0,2.8398,0,1000.3,50.548,-0.014242,-3.0305,0,0,0.44734,1
999.62,54.233,13.154,0,2.8276,0,1000.3,50.548,-0.014242,-3.0305,0,0,0.45431,1
999.62,54.233,13.154,0,2.8276,0,1000.3,50.548,-0.014242,-3.0305,0,0,0.45431,1
999.62,54.233,13.154,0,2.8276,0,1000.3,50.548,-0.014242,-3.0305,0,0,0.45431,1
999.62,54.233,13.154,0,2.8276,0,1000.3,50.548,-0.014242,-3.0305,0,0,0.45431,1
999.62,54.233,13.154,0,2.8276,0,1000.3,50.548,-0.014242,-3.0305,0,0,0.45431,1
999.62,54.233,13.154,0,2.8276,0,1000.3,50.548,-0.014242,-3.0305,0,0,0.45431,1
999.62,54.233,13.154,0,2.8276,0,1000.3,50.548,-0.014242,-3.0305,0,0,0.45431,1
999.62,54.233,13.154,0,2.8276,0,1000.3,50.548,-0.014242,-3.0305,0,0,0.45431,1
1000.2,54.233,13.266,0,2.8027,0,1000.3,50.366,-0.014242,-3.0305,0,0,0.44043,1
1000.2,54.233,13.266,0,2.8027,0,1000.3,50.366,-0.014242,-3.0305,0,0,0.44043,1
1000.2,54.233,13.266,0,2.8027,0,1000.3,50.366,-0.014242,-3.0305,0,0,0.44043,1
1000.7,54.233,13.378,0,2.7775,0,1000.3,50.245,-0.014242,-3.0305,0,0,0.42581,1
1001.8,54.233,13.598,0,2.7257,0,1000.3,50.124,-0.014242,-3.0305,0,0,0.39163,1
1001.8,54.233,13.598,0,2.7257,0,1000.3,50.124,-0.014242,-3.0305,0,0,0.39163,1
1001.8,54.233,13.598,0,2.7257,0,1000.3,50.124,-0.014242,-3.0305,0,0,0.39163,1
1001.8,54.233,13.598,0,2.7257,0,1000.3,50.124,-0.014242,-3.0305,0,0,0.39163,1
1001.8,54.233,13.598,0,2.7257,0,1000.3,50.124,-0.014242,-3.0305,0,0,0.39163,1
1001.8,54.233,13.598,0,2.7257,0,1000.3,50.124,-0.014242,-3.0305,0,0,0.39163,1
1001.8,54.233,13.598,0,2.7257,0,1000.3,50.124,-0.014242,-3.0305,0,0,0.39163,1
1002,54.233,13.652,0,2.7126,0,1000.3,50.124,-0.014242,-3.0305,0,0,0.38306,1
1002,54.233,13.652,0,2.7126,0,1000.3,50.124,-0.014242,-3.0305,0,0,0.38306,1
1002,54.233,13.652,0,2.7126,0,1000.3,50.124,-0.014242,-3.0305,0,0,0.38306,1
1002,54.233,13.652,0,2.7126,0,1000.3,50.124,-0.014242,-3.0305,0,0,0.38306,1
1002,54.233,13.652,0,2.7126,0,1000.3,50.124,-0.014242,-3.0305,0,0,0.38306,1
1002,54.233,13.652,0,2.7126,0,1000.3,50.124,-0.014242,-3.0305,0,0,0.38306,1
1002.3,54.233,13.706,0,2.6993,0,1000.3,50.124,-0.014242,-3.0305,0,0,0.37364,1
1002.3,54.233,13.706,0,2.6993,0,1000.3,50.124,-0.014242,-3.0305,0,0,0.37364,1
1002.3,54.233,13.706,0,2.6993,0,1000.3,50.124,-0.014242,-3.0305,0,0,0.37364,1
1002.3,54.233,13.706,0,2.6993,0,1000.3,50.124,-0.014242,-3.0305,0,0,0.37364,1
1002.3,54.233,13.706,0,2.6993,0,1000.3,50.124,-0.014242,-3.0305,0,0,0.37364,1
1002.3,54.233,13.706,0,2.6993,0,1000.3,50.124,-0.014242,-3.0305,0,0,0.37364,1
1002.3,54.233,13.706,0,2.6993,0,1000.3,50.124,-0.014242,-3.0305,0,0,0.37364,1
1003.1,54.233,13.867,0,2.659,0,1000.3,49.78,-0.013733,-3.0154,0.0042386,0.1261,0.32371,1
1003.1,54.233,13.867,0,2.659,0,1000.3,49.78,-0.013733,-3.0154,0.0042386,0.1261,0.32371,1
1004,54.233,14.025,0,2.6178,0,1000.3,49.624,-0.012716,-2.7426,0.0084771,2.2732,0.29,1
1004,54.233,14.025,0,2.6178,0,1000.3,49.624,-0.012716,-2.7426,0.0084771,2.2732,0.29,1
1004.8,54.233,14.181,0,2.576,0,1000.3,49.48,-0.012716,-2.7426,0.0084771,2.2732,0.26055,1
1004.8,54.233,14.181,0,2.576,0,1000.3,49.346,-0.01119,-2.379,0.012716,3.0303,0.25671,1
1004.8,54.233,14.181,0,2.576,0,1000.3,49.346,-0.01119,-2.379,0.012716,3.0303,0.25671,1
1004.8,54.233,14.181,0,2.576,0,1000.3,49.304,-0.01119,-2.379,0.012716,3.0303,0.25551,1
1004.8,54.233,14.181,0,2.576,0,1000.3,49.304,-0.01119,-2.379,0.012716,3.0303,0.25551,1
1004.8,54.233,14.181,0,2.576,0,1000.3,49.304,-0.01119,-2.379,0.012716,3.0303,0.25551,1
1004.8,54.233,14.181,0,2.576,0,1000.3,49.304,-0.01119,-2.379,0.012716,3.0303,0.25551,1
1004.8,54.233,14.181,0,2.576,0,1000.3,49.304,-0.01119,-2.379,0.012716,3.0303,0.25551,1
1004.8,54.233,14.181,0,2.576,0,1000.3,49.304,-0.01119,-2.379,0.012716,3.0303,0.25551,1
1005.7,54.233,14.335,0,2.5334,0,1000.3,49.304,-0.01119,-2.379,0.012716,3.0303,0.23429,1
1005.7,54.233,14.335,0,2.5334,0,1000.3,49.304,-0.01119,-2.379,0.012716,3.0303,0.23429,1
1005.7,54.233,14.335,0,2.5334,0,1000.3,49.304,-0.01119,-2.379,0.012716,3.0303,0.23429,1
1005.7,54.233,14.335,0,2.5334,0,1000.3,49.304,-0.01119,-2.379,0.012716,3.0303,0.23429,1
1005.7,54.233,14.335,0,2.5334,0,1000.3,49.304,-0.01119,-2.379,0.012716,3.0303,0.23429,1
1005.7,54.233,14.335,0,2.5334,0,1000.3,49.304,-0.01119,-2.379,0.012716,3.0303,0.23429,1
1005.7,54.233,14.335,0,2.5334,0,1000.3,49.304,-0.01119,-2.379,0.012716,3.0303,0.23429,1
1005.7,54.233,14.335,0,2.5334,0,1000.3,49.304,-0.01119,-2.379,0.012716,3.0303,0.23429,1
1005.7,54.233,14.335,0,2.5334,0,1000.3,49.304,-0.01119,-2.379,0.012716,3.0303,0.23429,1
1005.7,54.233,14.335,0,2.5334,0,1000.3,49.304,-0.01119,-2.379,0.012716,3.0303,0.23429,1
1005.7,54.233,14.335,0,2.5334,0,1000.3,49.304,-0.01119,-2.379,0.012716,3.0303,0.23429,1
1005.7,54.233,14.335,0,2.5334,0,1000.3,49.224,-0.01119,-2.379,0.012716,3.0303,0.23253,1
1005.7,54.233,14.335,0,2.5334,0,1000.3,49.224,-0.01119,-2.379,0.012716,3.0303,0.23253,1
1005.7,54.233,14.335,0,2.5334,0,1000.3,49.224,-0.01119,-2.379,0.012716,3.0303,0.23253,1
1005.7,54.233,14.335,0,2.5334,0,1000.3,49.224,-0.01119,-2.379,0.012716,3.0303,0.23253,1
1005.7,54.233,14.335,0,2.5334,0,1000.3,49.185,-0.01119,-2.379,0.012716,3.0303,0.23169,1
1006.8,54.233,14.535,0,2.4757,0,1000.3,49.185,-0.01119,-2.379,0.012716,3.0303,0.20697,1
1006.8,54.233,14.535,0,2.4757,0,1000.3,49.185,-0.01119,-2.379,0.012716,3.0303,0.20697,1
1006.8,54.233,14.535,0,2.4757,0,1000.3,49.185,-0.01119,-2.379,0.012716,3.0303,0.20697,1
1007.7,54.233,14.682,0,2.4317,0,1000.3,49.185,-0.01119,-2.379,0.012716,3.0303,0.19057,1
1007.7,54.233,14.682,0,2.4317,0,1000.3,48.921,-0.008138,-1.6516,0.0084771,3.0303,0.18739,1
1007.7,54.233,14.682,0,2.4317,0,1000.3,48.921,-0.008138,-1.6516,0.0084771,3.0303,0.18739,1
1007.7,54.233,14.682,0,2.4317,0,1000.3,48.921,-0.008138,-1.6516,0.0084771,3.0303,0.18739,1
1007.7,54.233,14.682,0,2.4317,0,1000.3,48.921,-0.008138,-1.6516,0.0084771,3.0303,0.18739,1
1007.7,54.233,14.682,0,2.4317,0,1000.3,48.867,-0.008138,-1.6516,0.0084771,3.0303,0.18674,1
1007.7,54.233,14.682,0,2.4317,0,1000.3,48.867,-0.008138,-1.6516,0.0084771,3.0303,0.18674,1
1007.7,54.233,14.682,0,2.4317,0,1000.3,48.867,-0.008138,-1.6516,0.0084771,3.0303,0.18674,1
1007.7,54.233,14.682,0,2.4317,0,1000.3,48.867,-0.008138,-1.6516,0.0084771,3.0303,0.18674,1
1009.8,54.233,15.015,0,2.3271,0,1000.3,48.842,-0.008138,-1.6516,0.0084771,3.0303,0.1565,1
1009.8,54.233,15.015,0,2.3271,0,1000.3,48.842,-0.008138,-1.6516,0.0084771,3.0303,0.1565,1
1010.1,54.233,15.062,0,2.312,0,1000.3,48.842,-0.008138,-1.6516,0.0084771,3.0303,0.15282,1
1010.1,54.233,15.062,0,2.312,0,1000.3,48.806,-0.0050863,-1.1945,0.025431,3.8091,0.1526,1
1010.1,54.233,15.062,0,2.312,0,1000.3,48.806,-0.0050863,-1.1945,0.025431,3.8091,0.1526,1
1011,54.233,15.199,0,2.2663,0,1000.3,48.806,-0.0050863,-1.1945,0.025431,3.8091,0.14239,1
1011,54.233,15.199,0,2.2663,0,1000.3,48.806,-0.0050863,-1.1945,0.025431,3.8091,0.14239,1
1011,54.233,15.199,0,2.2663,0,1000.3,48.806,-0.0050863,-1.1945,0.025431,3.8091,0.14239,1
1011,54.233,15.199,0,2.2663,0,1000.3,48.806,-0.0050863,-1.1945,0.025431,3.8091,0.14239,1
1011,54.233,15.199,0,2.2663,0,1000.3,48.806,-0.0050863,-1.1945,0.025431,3.8091,0.14239,1
1011,54.233,15.199,0,2.2663,0,1000.3,48.806,-0.0050863,-1.1945,0.025431,3.8091,0.14239,1
1011,54.233,15.199,0,2.2663,0,1000.3,48.806,-0.0050863,-1.1945,0.025431,3.8091,0.14239,1
1011,54.233,15.199,0,2.2663,0,1000.3,48.806,-0.0050863,-1.1945,0.025431,3.8091,0.14239,1
1011,54.233,15.199,0,2.2663,0,1000.3,48.806,0,0,0.042386,9.9545,0.14242,1
1011,54.233,15.199,0,2.2663,0,1000.3,48.806,0,0,0.042386,9.9545,0.14242,1
1011,54.233,15.199,0,2.2663,0,1000.3,48.806,0,0,0.042386,9.9545,0.14242,1
1011,54.233,15.199,0,2.2663,0,1000.3,48.806,0,0,0.042386,9.9545,0.14242,1
1011,54.233,15.199,0,2.2663,0,1000.3,48.806,0,0,0.042386,9.9545,0.14242,1
1011,54.233,15.199,0,2.2663,0,1000.3,48.806,0,0,0.042386,9.9545,0.14242,1
1011,54.233,15.199,0,2.2663,0,1000.3,48.806,0,0,0.042386,9.9545,0.14242,1
1012.5,54.233,15.422,0,2.1896,0,1000.3,48.806,0,0,0.042386,9.9545,0.12767,1
1012.5,54.233,15.422,0,2.1896,0,1000.3,48.806,0,0,0.042386,9.9545,0.12767,1
1012.5,54.233,15.422,0,2.1896,0,1000.3,48.806,0,0,0.042386,9.9545,0.12767,1
1013.1,54.233,15.509,0,2.1587,0,1000.3,48.806,0,0,0.042386,9.9545,0.12247,1
1013.5,54.233,15.552,0,2.1433,0,1000.3,48.806,0,0,0.042386,9.9545,0.12,1
1013.5,54.233,15.552,0,2.1433,0,1000.3,48.806,0,0,0.042386,9.9545,0.12,1
1013.5,54.233,15.552,0,2.1433,0,1000.3,48.806,0,0,0.042386,9.9545,0.12,1
1013.5,54.233,15.552,0,2.1433,0,1000.3,48.806,0,0,0,0,0.12,1
1014.4,54.233,15.679,0,2.0968,0,1000.3,48.806,0,0,0,0,0.11307,1
1014.4,54.233,15.679,0,2.0968,0,1000.3,48.806,0,0,0,0,0.11307,1
1014.4,54.233,15.679,0,2.0968,0,1000.3,48.806,0,0,0,0,0.11307,1
1014.4,54.233,15.679,0,2.0968,0,1000.3,48.806,0,0,0,0,0.11307,1
1014.4,54.233,15.679,0,2.0968,0,1000.3,48.806,0,0,0,0,0.11307,1
1014.4,54.233,15.679,0,2.0968,0,1000.3,48.806,0,0,0,0,0.11307,1
1014.4,54.233,15.679,0,2.0968,0,1000.3,48.806,0,0,0,0,0.11307,1
1014.4,54.233,15.679,0,2.0968,0,1000.3,48.806,0,0,0,0,0.11307,1
1014.4,54.233,15.679,0,2.0968,0,1000.3,48.806,0,0,0,0,0.11307,1
1014.4,54.233,15.679,0,2.0968,0,1000.3,48.806,0,0,0,0,0.11307,1
1015.3,54.233,15.803,0,2.0502,0,1000.3,48.806,0,0,0,0,0.1068,1
1015.3,54.233,15.803,0,2.0502,0,1000.3,48.806,0,0,0,0,0.1068,1
1015.3,54.233,15.803,0,2.0502,0,1000.3,48.806,0,0,0,0,0.1068,1
1015.3,54.233,15.803,0,2.0502,0,1000.3,48.806,0,0,0,0,0.1068,1
1015.3,54.233,15.803,0,2.0502,0,1000.3,48.806,0,0,0,0,0.1068,1
1016.9,54.233,16.005,0,1.9724,0,1000.3,48.806,0,0,0,0,0.097608,1
1016.9,54.233,16.005,0,1.9724,0,1000.3,48.806,0,0,0,0,0.097608,1
1016.9,54.233,16.005,0,1.9724,0,1000.3,48.806,0,0,0,0,0.097608,1
1016.9,54.233,16.005,0,1.9724,0,1000.3,48.806,0,0,0,0,0.097608,1
1016.9,54.233,16.005,0,1.9724,0,1000.3,48.806,0,0,0,0,0.097608,1
1017.9,54.233,16.121,0,1.9259,0,1000.3,48.806,0,0,0,0,0.092732,1
1017.9,54.233,16.121,0,1.9259,0,1000.3,48.806,0,0,0,0,0.092732,1
1017.9,54.233,16.121,0,1.9259,0,1000.3,48.806,0,0,0,0,0.092732,1
1017.9,54.233,16.121,0,1.9259,0,1000.3,48.806,0,0,0,0,0.092732,1
1017.9,54.233,16.121,0,1.9259,0,1000.3,48.806,0,0,0,0,0.092732,1
1017.9,54.233,16.121,0,1.9259,0,1000.3,48.806,0,0,0,0,0.092732,1
1017.9,54.233,16.121,0,1.9259,0,1000.3,48.806,0,0,0,0,0.092732,1
1018.2,54.233,16.16,0,1.9104,0,1000.3,48.806,0,0,0,0,0.091201,1
1018.2,54.233,16.16,0,1.9104,0,1000.3,48.806,0,0,0,0,0.091201,1
1018.5,54.233,16.198,0,1.8949,0,1000.3,48.806,0,0,0,0,0.089714,1
1018.5,54.233,16.198,0,1.8949,0,1000.3,48.806,0,0,0,0,0.089714,1
1018.5,54.233,16.198,0,1.8949,0,1000.3,48.806,0,0,0,0,0.089714,1
1018.5,54.233,16.198,0,1.8949,0,1000.3,48.806,0,0,0,0,0.089714,1
1018.5,54.233,16.198,0,1.8949,0,1000.3,48.806,0,0,0,0,0.089714,1
1018.5,54.233,16.198,0,1.8949,0,1000.3,48.806,0,0,0,0,0.089714,1
1018.9,54.233,16.236,0,1.8794,0,1000.3,48.806,0,0,0,0,0.088269,1
1018.9,54.233,16.236,0,1.8794,0,1000.3,48.806,0,0,0,0,0.088269,1
1018.9,54.233,16.236,0,1.8794,0,1000.3,48.806,0,0,0,0,0.088269,1
1018.9,54.233,16.236,0,1.8794,0,1000.3,48.806,0,0,0,0,0.088269,1
1018.9,54.233,16.236,0,1.8794,0,1000.3,48.806,0,0,0,0,0.088269,1
1018.9,54.233,16.236,0,1.8794,0,1000.3,48.806,0,0,0,0,0.088269,1
1018.9,54.233,16.236,0,1.8794,0,1000.3,48.806,0,0,0,0,0.088269,1
1021.2,54.233,16.491,0,1.7717,0,1000.3,48.806,0,0,0,0,0.079213,1
1021.8,54.233,16.561,0,1.7412,0,1000.3,48.806,0,0,0,0,0.076924,1
1021.8,54.233,16.561,0,1.7412,0,1000.3,48.806,0,0,0,0,0.076924,1
1021.8,54.233,16.561,0,1.7412,0,1000.3,48.806,0,0,0,0,0.076924,1
1021.8,54.233,16.561,0,1.7412,0,1000.3,48.806,0,0,0,0,0.076924,1
1021.8,54.233,16.561,0,1.7412,0,1000.3,48.806,0,0,0,0,0.076924,1
1021.8,54.233,16.561,0,1.7412,0,1000.3,48.806,0,0,0,0,0.076924,1
1021.8,54.233,16.561,0,1.7412,0,1000.3,48.806,0,0,0,0,0.076924,1
1021.8,54.233,16.561,0,1.7412,0,1000.3,48.806,0,0,0,0,0.076924,1
1022.1,54.233,16.596,0,1.726,0,1000.3,48.806,0,0,0,0,0.075824,1
1022.1,54.233,16.596,0,1.726,0,1000.3,48.806,0,0,0,0,0.075824,1
1022.1,54.233,16.596,0,1.726,0,1000.3,48.806,0,0,0,0,0.075824,1
1022.1,54.233,16.596,0,1.726,0,1000.3,48.806,0,0,0,0,0.075824,1
1022.1,54.233,16.596,0,1.726,0,1000.3,48.806,0,0,0,0,0.075824,1
1022.1,54.233,16.596,0,1.726,0,1000.3,48.806,0,0,0,0,0.075824,1
1022.1,54.233,16.596,0,1.726,0,1000.3,48.806,0,0,0,0,0.075824,1
1022.1,54.233,16.596,0,1.726,0,1000.3,48.806,0,0,0,0,0.075824,1
1022.1,54.233,16.596,0,1.726,0,1000.3,48.806,0,0,0,0,0.075824,1
1022.1,54.233,16.596,0,1.726,0,1000.3,48.806,0,0,0,0,0.075824,1
1022.8,54.233,16.665,0,1.6957,0,1000.3,48.806,0,0,0,0,0.073706,1
1022.8,54.233,16.665,0,1.6957,0,1000.3,48.806,0,0,0,0,0.073706,1
1022.8,54.233,16.665,0,1.6957,0,1000.3,48.806,0,0,0,0,0.073706,1
1022.8,54.233,16.665,0,1.6957,0,1000.3,48.806,0,0,0,0,0.073706,1
1022.8,54.233,16.665,0,1.6957,0,1000.3,48.806,0,0,0,0,0.073706,1
1025.5,54.233,16.926,0,1.5763,0,1000.3,48.806,0,0,0,0,0.066207,1
1025.5,54.233,16.926,0,1.5763,0,1000.3,48.806,0,0,0,0,0.066207,1
1025.5,54.233,16.926,0,1.5763,0,1000.3,48.806,0,0,0,0,0.066207,1
1025.5,54.233,16.926,0,1.5763,0,1000.3,48.806,0,0,0,0,0.066207,1
1025.5,54.233,16.926,0,1.5763,0,1000.3,48.806,0,0,0,0,0.066207,1
1025.5,54.233,16.926,0,1.5763,0,1000.3,48.806,0,0,0,0,0.066207,1
1025.5,54.233,16.926,0,1.5763,0,1000.3,48.806,0,0,0,0,0.066207,1
1025.8,54.233,16.958,0,1.5616,0,1000.3,48.806,0,0,0,0,0.065366,1
1025.8,54.233,16.958,0,1.5616,0,1000.3,48.806,0,0,0,0,0.065366,1
1025.8,54.233,16.958,0,1.5616,0,1000.3,48.806,0,0,0,0,0.065366,1
1026.2,54.233,16.989,0,1.547,0,1000.3,48.806,0,0,0,0,0.064544,1
1026.2,54.233,16.989,0,1.547,0,1000.3,48.806,0,0,0,0,0.064544,1
1026.2,54.233,16.989,0,1.547,0,1000.3,48.806,0,0,0,0,0.064544,1
1026.2,54.233,16.989,0,1.547,0,1000.3,48.806,0,0,0,0,0.064544,1
1026.2,54.233,16.989,0,1.547,0,1000.3,48.806,0,0,0,0,0.064544,1
1026.2,54.233,16.989,0,1.547,0,1000.3,48.806,0,0,0,0,0.064544,1
1026.2,54.233,16.989,0,1.547,0,1000.3,48.806,0,0,0,0,0.064544,1
1027.2,54.233,17.08,0,1.5034,0,1000.3,48.806,0,0,0,0,0.062187,1
1027.2,54.233,17.08,0,1.5034,0,1000.3,48.806,0,0,0,0,0.062187,1
1027.9,54.233,17.14,0,1.4747,0,1000.3,48.806,0,0,0,0,0.060701,1
1028.2,54.233,17.169,0,1.4604,0,1000.3,48.806,0,0,0,0,0.059982,1
1028.2,54.233,17.169,0,1.4604,0,1000.3,48.806,0,0,0,0,0.059982,1
1028.2,54.233,17.169,0,1.4604,0,1000.3,48.806,0,0,0,0,0.059982,1
1028.2,54.233,17.169,0,1.4604,0,1000.3,48.806,0,0,0,0,0.059982,1
1028.2,54.233,17.169,0,1.4604,0,1000.3,48.806,0,0,0,0,0.059982,1
1028.2,54.233,17.169,0,1.4604,0,1000.3,48.806,0,0,0,0,0.059982,1
1028.2,54.233,17.169,0,1.4604,0,1000.3,48.806,0,0,0,0,0.059982,1
1028.2,54.233,17.169,0,1.4604,0,1000.3,48.806,0,0,0,0,0.059982,1
1028.2,54.233,17.169,0,1.4604,0,1000.3,48.806,0,0,0,0,0.059982,1
1028.2,54.233,17.169,0,1.4604,0,1000.3,48.806,0,0,0,0,0.059982,1
1028.2,54.233,17.169,0,1.4604,0,1000.3,48.806,0,0,0,0,0.059982,1
1028.2,54.233,17.169,0,1.4604,0,1000.3,48.806,0,0,0,0,0.059982,1
1028.2,54.233,17.169,0,1.4604,0,1000.3,48.806,0,0,0,0,0.059982,1
1028.2,54.233,17.169,0,1.4604,0,1000.3,48.806,0,0,0,0,0.059982,1
1028.2,54.233,17.169,0,1.4604,0,1000.3,48.806,0,0,0,0,0.059982,1
1028.2,54.233,17.169,0,1.4604,0,1000.3,48.806,0,0,0,0,0.059982,1
1028.2,54.233,17.169,0,1.4604,0,1000.3,48.806,0,0,0,0,0.059982,1
1028.2,54.233,17.169,0,1.4604,0,1000.3,48.806,0,0,0,0,0.059982,1
1028.2,54.233,17.169,0,1.4604,0,1000.3,48.806,0,0,0,0,0.059982,1
1028.2,54.233,17.169,0,1.4604,0,1000.3,48.806,0,0,0,0,0.059982,1
1031.3,54.233,17.421,0,1.3349,0,1000.3,48.806,0,0,0,0,0.05415,1
1031.3,54.233,17.421,0,1.3349,0,1000.3,48.806,0,0,0,0,0.05415,1
1031.3,54.233,17.421,0,1.3349,0,1000.3,48.806,0,0,0,0,0.05415,1
1031.7,54.233,17.447,0,1.3214,0,1000.3,48.806,0,0,0,0,0.053565,1
1031.7,54.233,17.447,0,1.3214,0,1000.3,48.806,0,0,0,0,0.053565,1
1031.7,54.233,17.447,0,1.3214,0,1000.3,48.806,0,0,0,0,0.053565,1
1031.7,54.233,17.447,0,1.3214,0,1000.3,48.806,0,0,0,0,0.053565,1
1031.7,54.233,17.447,0,1.3214,0,1000.3,48.806,0,0,0,0,0.053565,1
1031.7,54.233,17.447,0,1.3214,0,1000.3,48.806,0,0,0,0,0.053565,1
1031.7,54.233,17.447,0,1.3214,0,1000.3,48.806,0,0,0,0,0.053565,1
1031.7,54.233,17.447,0,1.3214,0,1000.3,48.806,0,0,0,0,0.053565,1
1031.7,54.233,17.447,0,1.3214,0,1000.3,48.806,0,0,0,0,0.053565,1
1031.7,54.233,17.447,0,1.3214,0,1000.3,48.806,0,0,0,0,0.053565,1
1033.4,54.233,17.576,0,1.253,0,1000.3,48.806,0,0,0,0,0.050809,1
1033.4,54.233,17.576,0,1.253,0,1000.3,48.806,0,0,0,0,0.050809,1
1033.8,54.233,17.601,0,1.238,0,1000.3,48.806,0,0,0,0,0.050288,1
1033.8,54.233,17.601,0,1.238,0,1000.3,48.806,0,0,0,0,0.050288,1
1033.8,54.233,17.601,0,1.238,0,1000.3,48.806,0,0,0,0,0.050288,1
1033.8,54.233,17.601,0,1.238,0,1000.3,48.806,0,0,0,0,0.050288,1
1033.8,54.233,17.601,0,1.238,0,1000.3,48.806,0,0,0,0,0.050288,1
1033.8,54.233,17.601,0,1.238,0,1000.3,48.806,0,0,0,0,0.050288,1
1033.8,54.233,17.601,0,1.238,0,1000.3,48.806,0,0,0,0,0.050288,1
1033.8,54.233,17.601,0,1.238,0,1000.3,48.806,0,0,0,0,0.050288,1
1033.8,54.233,17.601,0,1.238,0,1000.3,48.806,0,0,0,0,0.050288,1
1035.6,54.233,17.721,0,1.1656,0,1000.3,48.806,0,0,0,0,0.047827,1
1035.6,54.233,17.721,0,1.1656,0,1000.3,48.806,0,0,0,0,0.047827,1
1035.6,54.233,17.721,0,1.1656,0,1000.3,48.806,0,0,0,0,0.047827,1
1035.6,54.233,17.721,0,1.1656,0,1000.3,48.806,0,0,0,0,0.047827,1
1035.6,54.233,17.721,0,1.1656,0,1000.3,48.806,0,0,0,0,0.047827,1
1035.6,54.233,17.721,0,1.1656,0,1000.3,48.806,0,0,0,0,0.047827,1
1037.3,54.233,17.834,0,1.0972,0,1000.3,48.806,0,0,0,0,0.04558,1
1037.3,54.233,17.834,0,1.0972,0,1000.3,48.806,0,0,0,0,0.04558,1
1037.3,54.233,17.834,0,1.0972,0,1000.3,48.806,0,0,0,0,0.04558,1
1037.3,54.233,17.834,0,1.0972,0,1000.3,48.806,0,0,0,0,0.04558,1
1037.3,54.233,17.834,0,1.0972,0,1000.3,48.806,0,0,0,0,0.04558,1
1037.7,54.233,17.856,0,1.0839,0,1000.3,48.806,0,0,0,0,0.045153,1
1037.7,54.233,17.856,0,1.0839,0,1000.3,48.806,0,0,0,0,0.045153,1
1038.1,54.233,17.878,0,1.0709,0,1000.3,48.806,0,0,0,0,0.044734,1
1038.1,54.233,17.878,0,1.0709,0,1000.3,48.806,0,0,0,0,0.044734,1
1038.1,54.233,17.878,0,1.0709,0,1000.3,48.806,0,0,0,0,0.044734,1
1038.1,54.233,17.878,0,1.0709,0,1000.3,48.806,0,0,0,0,0.044734,1
1038.1,54.233,17.878,0,1.0709,0,1000.3,48.806,0,0,0,0,0.044734,1
1038.1,54.233,17.878,0,1.0709,0,1000.3,48.806,0,0,0,0,0.044734,1
1038.1,54.233,17.878,0,1.0709,0,1000.3,48.806,0,0,0,0,0.044734,1
1038.8,54.233,17.92,0,1.0452,0,1000.3,48.806,0,0,0,0,0.043918,1
1039.5,54.233,17.961,0,1.02,0,1000.3,48.806,0,0,0,0,0.043128,1
1039.5,54.233,17.961,0,1.02,0,1000.3,48.806,0,0,0,0,0.043128,1
1039.8,54.233,17.981,0,1.0077,0,1000.3,48.806,0,0,0,0,0.042743,1
1039.8,54.233,17.981,0,1.0077,0,1000.3,48.806,0,0,0,0,0.042743,1
1039.8,54.233,17.981,0,1.0077,0,1000.3,48.806,0,0,0,0,0.042743,1
1040.6,54.233,18.021,0,0.98342,0,1000.3,48.806,0,0,0,0,0.041992,1
1041.3,54.233,18.06,0,0.95971,0,1000.3,48.806,0,0,0,0,0.041265,1
1042,54.233,18.098,0,0.93654,0,1000.3,48.806,0,0,0,0,0.040561,1
1042,54.233,18.098,0,0.93654,0,1000.3,48.806,0,0,0,0,0.040561,1
1042,54.233,18.098,0,0.93654,0,1000.3,48.806,0,0,0,0,0.040561,1
1042,54.233,18.098,0,0.93654,0,1000.3,48.806,0,0,0,0,0.040561,1
1042,54.233,18.098,0,0.93654,0,1000.3,48.806,0,0,0,0,0.040561,1
1042,54.233,18.098,0,0.93654,0,1000.3,48.806,0,0,0,0,0.040561,1
1042,54.233,18.098,0,0.93654,0,1000.3,48.806,0,0,0,0,0.040561,1
1042,54.233,18.098,0,0.93654,0,1000.3,48.806,0,0,0,0,0.040561,1
1042,54.233,18.098,0,0.93654,0,1000.3,48.806,0,0,0,0,0.040561,1
1042,54.233,18.098,0,0.93654,0,1000.3,48.806,0,0,0,0,0.040561,1
1042,54.233,18.098,0,0.93654,0,1000.3,48.806,0,0,0,0,0.040561,1
1042,54.233,18.098,0,0.93654,0,1000.3,48.806,0,0,0,0,0.040561,1
1042,54.233,18.098,0,0.93654,0,1000.3,48.806,0,0,0,0,0.040561,1
1042,54.233,18.098,0,0.93654,0,1000.3,48.806,0,0,0,0,0.040561,1
1042,54.233,18.098,0,0.93654,0,1000.3,48.806,0,0,0,0,0.040561,1
1042,54.233,18.098,0,0.93654,0,1000.3,48.806,0,0,0,0,0.040561,1
1042,54.233,18.098,0,0.93654,0,1000.3,48.806,0,0,0,0,0.040561,1
1042.7,54.233,18.135,0,0.9139,0,1000.3,48.806,0,0,0,0,0.039879,1
1042.7,54.233,18.135,0,0.9139,0,1000.3,48.806,0,0,0,0,0.039879,1
1042.7,54.233,18.135,0,0.9139,0,1000.3,48.806,0,0,0,0,0.039879,1
1042.7,54.233,18.135,0,0.9139,0,1000.3,48.806,0,0,0,0,0.039879,1
1043.5,54.233,18.171,0,0.89178,0,1000.3,48.806,0,0,0,0,0.039219,1
1043.5,54.233,18.171,0,0.89178,0,1000.3,48.806,0,0,0,0,0.039219,1
1044.2,54.233,18.206,0,0.87017,0,1000.3,48.806,0,0,0,0,0.038578,1
1045.6,54.233,18.274,0,0.82844,0,1000.3,48.806,0,0,0,0,0.037354,1
1045.6,54.233,18.274,0,0.82844,0,1000.3,48.806,0,0,0,0,0.037354,1
1045.6,54.233,18.274,0,0.82844,0,1000.3,48.806,0,0,0,0,0.037354,1
1045.6,54.233,18.274,0,0.82844,0,1000.3,48.806,0,0,0,0,0.037354,1
1045.6,54.233,18.274,0,0.82844,0,1000.3,48.806,0,0,0,0,0.037354,1
1045.6,54.233,18.274,0,0.82844,0,1000.3,48.806,0,0,0,0,0.037354,1
