3.5834,-0.5124,2.5535,-1.2318,2.2121,-0.0541,2.6788,0.0166,0.384,0.8103,1.6992,-0.7419,-0.5304,1.6611,0.5193,-0.0812
3.5491,-0.5003,2.3876,-1.2056,2.2894,-0.089,2.6577,0.0095,-0.0934,0.979,1.6245,-0.7338,-0.5585,1.6259,0.4958,-0.0688
3.5491,-0.5003,2.3876,-1.2056,2.2894,-0.089,2.6577,0.0095,-0.0934,0.979,1.6245,-0.7338,-0.5585,1.6259,0.4958,-0.0688
3.5628,-0.5201,2.3497,-1.257,2.2579,-0.0627,2.6552,0.0006,-0.391,0.8983,1.6164,-0.7553,-0.5985,1.6078,0.4613,-0.0567
3.5628,-0.5201,2.3497,-1.257,2.2579,-0.0627,2.6552,0.0006,-0.391,0.8983,1.6164,-0.7553,-0.5985,1.6078,0.4613,-0.0567
3.6868,-0.549,2.3983,-1.2741,2.1948,-0.0101,2.6437,0.0047,-0.6062,0.7912,1.6388,-0.7876,-0.6421,1.6104,0.4424,-0.0561
3.6868,-0.549,2.3983,-1.2741,2.1948,-0.0101,2.6437,0.0047,-0.6062,0.7912,1.6388,-0.7876,-0.6421,1.6104,0.4424,-0.0561
3.8811,-0.6027,2.4766,-1.334,2.1457,0.0224,2.6482,-0.0017,-0.599,0.6981,1.6444,-0.7957,-0.6501,1.6067,0.4284,-0.0574
3.8811,-0.6027,2.4766,-1.334,2.1457,0.0224,2.6482,-0.0017,-0.599,0.6981,1.6444,-0.7957,-0.6501,1.6067,0.4284,-0.0574
3.9646,-0.6471,2.4766,-1.334,2.1001,0.031,2.6641,-0.0122,-0.4817,0.6117,1.6236,-0.7822,-0.6639,1.6116,0.4261,-0.0648
3.9646,-0.6471,2.4766,-1.334,2.1001,0.031,2.6641,-0.0122,-0.4817,0.6117,1.6236,-0.7822,-0.6639,1.6116,0.4261,-0.0648
3.9371,-0.6075,2.5254,-1.3513,2.079,0.0232,2.6985,-0.0244,-0.2468,0.4391,1.582,-0.7554,-0.658,1.6031,0.4171,-0.0677
3.9371,-0.6075,2.5254,-1.3513,2.079,0.0232,2.6985,-0.0244,-0.2468,0.4391,1.582,-0.7554,-0.658,1.6031,0.4171,-0.0677
3.9371,-0.6075,2.5254,-1.3513,2.079,0.0232,2.6985,-0.0244,-0.2468,0.4391,1.582,-0.7554,-0.658,1.6031,0.4171,-0.0677
3.7983,-0.4833,2.5447,-1.3258,2.051,0.0255,2.7215,-0.0325,-0.2823,0.4071,1.5365,-0.7393,-0.6739,1.5959,0.4069,-0.0743
3.7983,-0.4833,2.5447,-1.3258,2.051,0.0255,2.7215,-0.0325,-0.2823,0.4071,1.5365,-0.7393,-0.6739,1.5959,0.4069,-0.0743
3.6111,-0.4773,2.6626,-1.4959,1.981,-0.0253,2.6545,-0.0234,-0.2112,0.4712,1.472,-0.7287,-0.5967,1.5751,0.3782,-0.0704
3.6111,-0.4773,2.6626,-1.4959,1.981,-0.0253,2.6545,-0.0234,-0.2112,0.4712,1.472,-0.7287,-0.5967,1.5751,0.3782,-0.0704
3.6111,-0.4773,2.6626,-1.4959,1.981,-0.0253,2.6545,-0.0234,-0.2112,0.4712,1.472,-0.7287,-0.5967,1.5751,0.3782,-0.0704
3.5354,-0.4805,2.6333,-1.4536,1.9566,-0.0468,2.6017,-0.0095,-0.0983,0.4762,1.4585,-0.7421,-0.6085,1.5921,0.3692,-0.0733
3.5354,-0.4805,2.6333,-1.4536,1.9566,-0.0468,2.6017,-0.0095,-0.0983,0.4762,1.4585,-0.7421,-0.6085,1.5921,0.3692,-0.0733
3.5354,-0.4805,2.6333,-1.4536,1.9566,-0.0468,2.6017,-0.0095,-0.0983,0.4762,1.4585,-0.7421,-0.6085,1.5921,0.3692,-0.0733
3.4873,-0.4485,2.4745,-1.1713,1.9913,-0.0591,2.5764,-0.0103,0.1617,0.6111,1.4507,-0.7636,-0.6816,1.6372,0.3639,-0.0817
3.4873,-0.4485,2.4745,-1.1713,1.9913,-0.0591,2.5764,-0.0103,0.1617,0.6111,1.4507,-0.7636,-0.6816,1.6372,0.3639,-0.0817
3.5078,-0.4408,2.4635,-1.102,2.0714,-0.0798,2.5764,-0.0103,0.1138,0.7661,1.4317,-0.769,-0.7112,1.6348,0.3666,-0.0908
3.5078,-0.4408,2.4635,-1.102,2.0714,-0.0798,2.5764,-0.0103,0.1138,0.7661,1.4317,-0.769,-0.7112,1.6348,0.3666,-0.0908
3.5078,-0.4408,2.4635,-1.102,2.0714,-0.0798,2.5764,-0.0103,0.1138,0.7661,1.4317,-0.769,-0.7112,1.6348,0.3666,-0.0908
3.5078,-0.4408,2.4635,-1.102,2.0714,-0.0798,2.5764,-0.0103,0.1138,0.7661,1.4317,-0.769,-0.7112,1.6348,0.3666,-0.0908
3.4668,-0.4563,2.4936,-1.1454,2.0714,-0.0798,2.5624,-0.015,-0.1223,0.8495,1.4088,-0.7851,-0.7291,1.6154,0.3478,-0.0902
3.4668,-0.4563,2.4936,-1.1454,2.0714,-0.0798,2.5624,-0.015,-0.1223,0.8495,1.4088,-0.7851,-0.7291,1.6154,0.3478,-0.0902
3.4668,-0.4563,2.4936,-1.1454,2.0714,-0.0798,2.5624,-0.015,-0.1223,0.8495,1.4088,-0.7851,-0.7291,1.6154,0.3478,-0.0902
3.4668,-0.4563,2.4936,-1.1454,2.0714,-0.0798,2.5624,-0.015,-0.1223,0.8495,1.4088,-0.7851,-0.7291,1.6154,0.3478,-0.0902
3.5422,-0.5277,2.4255,-1.154,1.9637,-0.0192,2.5599,-0.0238,-0.5577,0.6385,1.3986,-0.8358,-0.7961,1.5625,0.2818,-0.0853
3.5422,-0.5277,2.4255,-1.154,1.9637,-0.0192,2.5599,-0.0238,-0.5577,0.6385,1.3986,-0.8358,-0.7961,1.5625,0.2818,-0.0853
3.5491,-0.5003,2.4255,-1.154,1.9463,-0.0131,2.61,-0.0463,-0.5511,0.5466,1.3725,-0.8146,-0.8176,1.5637,0.268,-0.0865
3.5011,-0.4684,2.3876,-1.2056,1.9428,-0.0269,2.6258,-0.0567,-0.5102,0.4876,1.3465,-0.7933,-0.8039,1.5589,0.259,-0.0895
3.4122,-0.4519,2.3793,-1.2996,1.9116,-0.0384,2.5757,-0.0342,-0.5102,0.4876,1.3016,-0.7775,-0.7628,1.5443,0.2568,-0.0968
3.4122,-0.4519,2.3793,-1.2996,1.9116,-0.0384,2.5757,-0.0342,-0.5102,0.4876,1.3016,-0.7775,-0.7628,1.5443,0.2568,-0.0968
3.4122,-0.4519,2.3793,-1.2996,1.9116,-0.0384,2.5757,-0.0342,-0.5102,0.4876,1.3016,-0.7775,-0.7628,1.5443,0.2568,-0.0968
3.2766,-0.4785,2.4293,-1.4772,1.8459,-0.0377,2.5163,-0.0228,-0.5857,0.5143,1.253,-0.7723,-0.7295,1.5262,0.2467,-0.1034
3.2766,-0.4785,2.4293,-1.4772,1.8459,-0.0377,2.5163,-0.0228,-0.5857,0.5143,1.253,-0.7723,-0.7295,1.5262,0.2467,-0.1034
3.2766,-0.4785,2.4293,-1.4772,1.8459,-0.0377,2.5163,-0.0228,-0.5857,0.5143,1.253,-0.7723,-0.7295,1.5262,0.2467,-0.1034
3.2162,-0.5017,2.4876,-1.5611,1.7908,-0.0333,2.4752,-0.0132,-0.545,0.4555,1.2397,-0.7857,-0.7491,1.5395,0.2378,-0.1064
3.2162,-0.5017,2.4876,-1.5611,1.7908,-0.0333,2.4752,-0.0132,-0.545,0.4555,1.2397,-0.7857,-0.7491,1.5395,0.2378,-0.1064
3.2162,-0.5017,2.4876,-1.5611,1.7908,-0.0333,2.4752,-0.0132,-0.545,0.4555,1.2397,-0.7857,-0.7491,1.5395,0.2378,-0.1064
3.2162,-0.5017,2.4876,-1.5611,1.7908,-0.0333,2.4752,-0.0132,-0.545,0.4555,1.2397,-0.7857,-0.7491,1.5395,0.2378,-0.1064
3.2704,-0.5799,2.312,-1.308,1.7428,-0.0387,2.452,-0.029,0.1391,0.3028,1.2508,-0.8016,-0.8175,1.6083,0.224,-0.1076
3.2704,-0.5799,2.312,-1.308,1.7428,-0.0387,2.452,-0.029,0.1391,0.3028,1.2508,-0.8016,-0.8175,1.6083,0.224,-0.1076
3.2906,-0.5723,2.2046,-1.2057,1.784,-0.0608,2.4294,-0.021,0.2085,0.458,1.2414,-0.8043,-0.8371,1.6216,0.2344,-0.1174
3.2906,-0.5723,2.2046,-1.2057,1.784,-0.0608,2.4294,-0.021,0.2085,0.458,1.2414,-0.8043,-0.8371,1.6216,0.2344,-0.1174
3.2771,-0.5527,2.2155,-1.2739,1.8562,-0.0713,2.4249,-0.0147,-0.3136,0.8709,1.2541,-0.8388,-0.843,1.5854,0.2072,-0.1098
3.2771,-0.5527,2.2155,-1.2739,1.8562,-0.0713,2.4249,-0.0147,-0.3136,0.8709,1.2541,-0.8388,-0.843,1.5854,0.2072,-0.1098
3.2771,-0.5527,2.2155,-1.2739,1.8562,-0.0713,2.4249,-0.0147,-0.3136,0.8709,1.2541,-0.8388,-0.843,1.5854,0.2072,-0.1098
3.2771,-0.5527,2.2155,-1.2739,1.8562,-0.0713,2.4249,-0.0147,-0.3136,0.8709,1.2541,-0.8388,-0.843,1.5854,0.2072,-0.1098
3.4193,-0.5734,2.312,-1.308,1.8701,-0.0162,2.4456,-0.0075,-0.4187,0.7705,1.3247,-0.8757,-0.8665,1.5746,0.2016,-0.1017
3.4193,-0.5734,2.312,-1.308,1.8701,-0.0162,2.4456,-0.0075,-0.4187,0.7705,1.3247,-0.8757,-0.8665,1.5746,0.2016,-0.1017
3.4193,-0.5734,2.312,-1.308,1.8701,-0.0162,2.4456,-0.0075,-0.4187,0.7705,1.3247,-0.8757,-0.8665,1.5746,0.2016,-0.1017
3.7552,-0.6476,2.3793,-1.2996,1.9603,0.0424,2.5555,-0.0174,-0.2168,0.5631,1.4325,-0.8358,-0.8293,1.5806,0.2661,-0.0838
3.7552,-0.6476,2.3793,-1.2996,1.9603,0.0424,2.5555,-0.0174,-0.2168,0.5631,1.4325,-0.8358,-0.8293,1.5806,0.2661,-0.0838
3.7697,-0.5932,2.3983,-1.2741,1.9952,0.068,2.645,-0.0345,-0.1454,0.6284,1.4848,-0.7636,-0.7901,1.5986,0.3256,-0.0743
3.7697,-0.5932,2.3983,-1.2741,1.9952,0.068,2.645,-0.0345,-0.1454,0.6284,1.4848,-0.7636,-0.7901,1.5986,0.3256,-0.0743
3.7565,-0.4986,2.3876,-1.2056,2.0616,0.0674,2.7163,-0.05,-0.1515,0.7218,1.5045,-0.7097,-0.7665,1.6094,0.3813,-0.0694
3.7565,-0.4986,2.3876,-1.2056,2.0616,0.0674,2.7163,-0.05,-0.1515,0.7218,1.5045,-0.7097,-0.7665,1.6094,0.3813,-0.0694
3.7565,-0.4986,2.3876,-1.2056,2.0616,0.0674,2.7163,-0.05,-0.1515,0.7218,1.5045,-0.7097,-0.7665,1.6094,0.3813,-0.0694
3.7219,-0.411,2.4554,-1.1971,2.1353,0.0566,2.7445,-0.0406,-0.2004,0.8772,1.562,-0.6934,-0.6936,1.6093,0.4292,-0.0638
3.7219,-0.411,2.4554,-1.1971,2.1353,0.0566,2.7445,-0.0406,-0.2004,0.8772,1.562,-0.6934,-0.6936,1.6093,0.4292,-0.0638
3.7219,-0.411,2.4554,-1.1971,2.1353,0.0566,2.7445,-0.0406,-0.2004,0.8772,1.562,-0.6934,-0.6936,1.6093,0.4292,-0.0638
3.5078,-0.4408,2.6235,-1.5458,2.1316,0.0047,2.6526,-0.0082,-0.2004,0.8772,1.6783,-0.7283,-0.5391,1.5675,0.495,-0.0624
3.5078,-0.4408,2.6235,-1.5458,2.1316,0.0047,2.6526,-0.0082,-0.2004,0.8772,1.6783,-0.7283,-0.5391,1.5675,0.495,-0.0624
3.4668,-0.4563,2.6526,-1.5878,2.121,0.0008,2.6342,-0.0065,-0.158,0.816,1.6992,-0.7419,-0.5627,1.6016,0.5072,-0.0585
3.5148,-0.4882,2.5163,-1.4442,2.121,0.0008,2.6157,-0.0048,0.0046,0.6666,1.6895,-0.7446,-0.6141,1.6455,0.5053,-0.0558
3.5148,-0.4882,2.5163,-1.4442,2.121,0.0008,2.6157,-0.0048,0.0046,0.6666,1.6895,-0.7446,-0.6141,1.6455,0.5053,-0.0558
3.5491,-0.5003,2.3876,-1.2056,2.1421,0.0085,2.6227,-0.0024,0.4036,0.4344,1.6743,-0.7392,-0.6339,1.6589,0.5084,-0.0548
3.5491,-0.5003,2.3876,-1.2056,2.1421,0.0085,2.6227,-0.0024,0.4036,0.4344,1.6743,-0.7392,-0.6339,1.6589,0.5084,-0.0548
3.5834,-0.5124,2.3278,-1.1195,2.1491,-0.0015,2.6431,-0.0193,0.5628,0.3782,1.6687,-0.7311,-0.6478,1.6638,0.5311,-0.0608
3.5834,-0.5124,2.3278,-1.1195,2.1491,-0.0015,2.6431,-0.0193,0.5628,0.3782,1.6687,-0.7311,-0.6478,1.6638,0.5311,-0.0608
3.5834,-0.5124,2.3278,-1.1195,2.1842,-0.0139,2.659,-0.0298,0.4412,0.4667,1.6437,-0.7284,-0.6558,1.6602,0.5596,-0.0749
3.5834,-0.5124,2.3278,-1.1195,2.1842,-0.0139,2.659,-0.0298,0.4412,0.4667,1.6437,-0.7284,-0.6558,1.6602,0.5596,-0.0749
3.5834,-0.5124,2.3278,-1.1195,2.1842,-0.0139,2.659,-0.0298,0.4412,0.4667,1.6437,-0.7284,-0.6558,1.6602,0.5596,-0.0749
3.5834,-0.5124,2.3091,-1.1454,2.2509,-0.0527,2.645,-0.0345,0.1985,0.644,1.6301,-0.7419,-0.6301,1.6382,0.5634,-0.0804
3.5834,-0.5124,2.3091,-1.1454,2.2509,-0.0527,2.645,-0.0345,0.1985,0.644,1.6301,-0.7419,-0.6301,1.6382,0.5634,-0.0804
3.5834,-0.5124,2.3091,-1.1454,2.2509,-0.0527,2.645,-0.0345,0.1985,0.644,1.6301,-0.7419,-0.6301,1.6382,0.5634,-0.0804
3.5422,-0.5277,2.3497,-1.257,2.2473,-0.0665,2.6405,-0.0281,-0.0798,0.7883,1.6012,-0.75,-0.6401,1.6225,0.5436,-0.0734
3.5422,-0.5277,2.4089,-1.3422,2.2157,-0.0402,2.6405,-0.0281,-0.3,0.683,1.5836,-0.7742,-0.6777,1.6165,0.5121,-0.0602
3.5491,-0.5003,2.4869,-1.4019,2.1633,0.0162,2.6431,-0.0193,-0.5231,0.6713,1.6059,-0.8064,-0.7191,1.6312,0.4894,-0.0543
3.5491,-0.5003,2.4869,-1.4019,2.1633,0.0162,2.6431,-0.0193,-0.5231,0.6713,1.6059,-0.8064,-0.7191,1.6312,0.4894,-0.0543
3.7005,-0.5687,2.5163,-1.4442,2.1178,0.0628,2.6475,-0.0257,-0.6677,0.6325,1.6171,-0.8224,-0.7467,1.6409,0.4735,-0.0527
3.7005,-0.5687,2.5163,-1.4442,2.1178,0.0628,2.6475,-0.0257,-0.6677,0.6325,1.6171,-0.8224,-0.7467,1.6409,0.4735,-0.0527
3.7005,-0.5687,2.5163,-1.4442,2.1178,0.0628,2.6475,-0.0257,-0.6677,0.6325,1.6171,-0.8224,-0.7467,1.6409,0.4735,-0.0527
3.7005,-0.5687,2.5163,-1.4442,2.1178,0.0628,2.6475,-0.0257,-0.6677,0.6325,1.6171,-0.8224,-0.7467,1.6409,0.4735,-0.0527
3.8948,-0.6225,2.6138,-1.4787,2.1038,0.083,2.6431,-0.0193,-0.4817,0.6117,1.6419,-0.8251,-0.7388,1.6445,0.4765,-0.0518
3.8948,-0.6225,2.6138,-1.4787,2.1038,0.083,2.6431,-0.0193,-0.4817,0.6117,1.6419,-0.8251,-0.7388,1.6445,0.4765,-0.0518
3.9995,-0.6595,2.5549,-1.3938,2.1072,0.0589,2.7004,-0.0396,-0.0622,0.5085,1.614,-0.7849,-0.7231,1.6518,0.4882,-0.058
3.9995,-0.6595,2.5549,-1.3938,2.1072,0.0589,2.7004,-0.0396,-0.0622,0.5085,1.614,-0.7849,-0.7231,1.6518,0.4882,-0.058
3.9995,-0.6595,2.5549,-1.3938,2.1072,0.0589,2.7004,-0.0396,-0.0622,0.5085,1.614,-0.7849,-0.7231,1.6518,0.4882,-0.058
3.8958,-0.5478,2.5447,-1.3258,2.1036,0.0449,2.7349,-0.0517,0.0568,0.4214,1.5876,-0.7634,-0.725,1.6397,0.492,-0.0634
3.8958,-0.5478,2.5447,-1.3258,2.1036,0.0449,2.7349,-0.0517,0.0568,0.4214,1.5876,-0.7634,-0.725,1.6397,0.492,-0.0634
3.7916,-0.4356,2.5447,-1.3258,2.1176,0.0248,2.7393,-0.0582,0.0519,0.5133,1.5724,-0.7581,-0.7112,1.6348,0.489,-0.0644
3.7916,-0.4356,2.5447,-1.3258,2.1176,0.0248,2.7393,-0.0582,0.0519,0.5133,1.5724,-0.7581,-0.7112,1.6348,0.489,-0.0644
3.6872,-0.3987,2.4173,-1.2485,2.121,0.0008,2.7074,-0.0372,0.0102,0.5734,1.5381,-0.7581,-0.6777,1.6165,0.481,-0.0636
3.6872,-0.3987,2.4173,-1.2485,2.121,0.0008,2.7074,-0.0372,0.0102,0.5734,1.5381,-0.7581,-0.6777,1.6165,0.481,-0.0636
3.5903,-0.4098,2.5549,-1.3938,2.0963,-0.0208,2.6501,-0.0169,-0.0736,0.6942,1.519,-0.7635,-0.6165,1.5885,0.4681,-0.0611
3.5903,-0.4098,2.5549,-1.3938,2.0963,-0.0208,2.6501,-0.0169,-0.0736,0.6942,1.519,-0.7635,-0.6165,1.5885,0.4681,-0.0611
3.5422,-0.453,2.6138,-1.4787,2.0647,-0.0323,2.6062,-0.016,-0.1515,0.7218,1.5206,-0.7823,-0.6165,1.5885,0.4541,-0.0623
3.5422,-0.453,2.6138,-1.4787,2.0647,-0.0323,2.6062,-0.016,-0.1515,0.7218,1.5206,-0.7823,-0.6165,1.5885,0.4541,-0.0623
3.5697,-0.4926,2.5549,-1.3938,2.0611,-0.0461,2.5852,-0.0231,0.0102,0.5734,1.5126,-0.8037,-0.6639,1.6116,0.4341,-0.0655
3.5697,-0.4926,2.5549,-1.3938,2.0611,-0.0461,2.5852,-0.0231,0.0102,0.5734,1.5126,-0.8037,-0.6639,1.6116,0.4341,-0.0655
3.5834,-0.5124,2.4255,-1.154,2.0437,-0.0399,2.5827,-0.0318,0.2871,0.4302,1.4935,-0.809,-0.6974,1.6299,0.4171,-0.0677
3.5834,-0.5124,2.4255,-1.154,2.0437,-0.0399,2.5827,-0.0318,0.2871,0.4302,1.4935,-0.809,-0.6974,1.6299,0.4171,-0.0677
3.5834,-0.5124,2.4255,-1.154,2.0437,-0.0399,2.5827,-0.0318,0.2871,0.4302,1.4935,-0.809,-0.6974,1.6299,0.4171,-0.0677
3.5904,-0.485,2.354,-0.9976,2.0368,-0.0299,2.5827,-0.0318,0.4868,0.3145,1.4634,-0.7984,-0.7388,1.6445,0.4099,-0.0734
3.5904,-0.485,2.354,-0.9976,2.0368,-0.0299,2.5827,-0.0318,0.4868,0.3145,1.4634,-0.7984,-0.7388,1.6445,0.4099,-0.0734
3.5904,-0.485,2.354,-0.9976,2.0368,-0.0299,2.5827,-0.0318,0.4868,0.3145,1.4634,-0.7984,-0.7388,1.6445,0.4099,-0.0734
3.5904,-0.485,2.354,-0.9976,2.0368,-0.0299,2.5827,-0.0318,0.4868,0.3145,1.4634,-0.7984,-0.7388,1.6445,0.4099,-0.0734
3.549,-0.4253,2.3237,-0.9539,2.0473,-0.0261,2.5986,-0.0423,0.0773,0.7328,1.4048,-0.7958,-0.8038,1.6482,0.4208,-0.0997
3.549,-0.4253,2.3237,-0.9539,2.0473,-0.0261,2.5986,-0.0423,0.0773,0.7328,1.4048,-0.7958,-0.8038,1.6482,0.4208,-0.0997
3.4803,-0.401,2.3843,-1.0412,2.0717,-0.0423,2.6074,-0.055,-0.2585,1.1313,1.3804,-0.7932,-0.792,1.6313,0.4136,-0.1053
3.4803,-0.401,2.3843,-1.0412,2.0717,-0.0423,2.6074,-0.055,-0.2585,1.1313,1.3804,-0.7932,-0.792,1.6313,0.4136,-0.1053
3.4803,-0.401,2.3843,-1.0412,2.0717,-0.0423,2.6074,-0.055,-0.2585,1.1313,1.3804,-0.7932,-0.792,1.6313,0.4136,-0.1053
3.3918,-0.4597,2.515,-1.283,2.002,-0.0176,2.5523,-0.05,-0.7407,1.068,1.3812,-0.8597,-0.8019,1.5709,0.3455,-0.0976
3.3918,-0.4597,2.515,-1.283,2.002,-0.0176,2.5523,-0.05,-0.7407,1.068,1.3812,-0.8597,-0.8019,1.5709,0.3455,-0.0976
3.3918,-0.4597,2.515,-1.283,2.002,-0.0176,2.5523,-0.05,-0.7407,1.068,1.3812,-0.8597,-0.8019,1.5709,0.3455,-0.0976
3.3918,-0.4597,2.515,-1.283,2.002,-0.0176,2.5523,-0.05,-0.7407,1.068,1.3812,-0.8597,-0.8019,1.5709,0.3455,-0.0976
3.5832,-0.5869,2.3577,-1.1626,1.9013,0.033,2.5226,-0.0444,-0.6748,0.7249,1.4033,-0.8915,-0.8293,1.5806,0.2885,-0.0897
3.5832,-0.5869,2.3577,-1.1626,1.9013,0.033,2.5226,-0.0444,-0.6748,0.7249,1.4033,-0.8915,-0.8293,1.5806,0.2885,-0.0897
3.5832,-0.5869,2.3577,-1.1626,1.9013,0.033,2.5226,-0.0444,-0.6748,0.7249,1.4033,-0.8915,-0.8293,1.5806,0.2885,-0.0897
3.6312,-0.6187,2.2605,-1.1282,1.8701,0.0214,2.5384,-0.0548,-0.4405,0.5522,1.3718,-0.8624,-0.8547,1.6023,0.265,-0.0875
3.6312,-0.6187,2.2605,-1.1282,1.8701,0.0214,2.5384,-0.0548,-0.4405,0.5522,1.3718,-0.8624,-0.8547,1.6023,0.265,-0.0875
3.5832,-0.5869,2.212,-1.1111,1.8563,0.0037,2.577,-0.0732,-0.2823,0.4071,1.2994,-0.8068,-0.8547,1.6023,0.256,-0.0905
3.4669,-0.5309,2.1563,-1.1886,1.8667,-0.0301,2.5656,-0.0692,-0.2059,0.3801,1.2491,-0.783,-0.8469,1.6059,0.2538,-0.0978
3.4669,-0.5309,2.1563,-1.1886,1.8667,-0.0301,2.5656,-0.0692,-0.2059,0.3801,1.2491,-0.783,-0.8469,1.6059,0.2538,-0.0978
3.3039,-0.5178,2.2075,-1.367,1.8321,-0.0553,2.5132,-0.0555,-0.2468,0.4391,1.2006,-0.7779,-0.7804,1.5696,0.2467,-0.1034
3.3039,-0.5178,2.2075,-1.367,1.8321,-0.0553,2.5132,-0.0555,-0.2468,0.4391,1.2006,-0.7779,-0.7804,1.5696,0.2467,-0.1034
3.1224,-0.5129,2.276,-1.518,1.7668,-0.0547,2.4653,-0.0482,-0.3585,0.434,1.1688,-0.7967,-0.7608,1.5564,0.2348,-0.1073
3.1224,-0.5129,2.276,-1.518,1.7668,-0.0547,2.4653,-0.0482,-0.3585,0.434,1.1688,-0.7967,-0.7608,1.5564,0.2348,-0.1073
3.116,-0.54,2.2949,-1.4931,1.7463,-0.0624,2.4514,-0.0529,-0.3643,0.5253,1.1705,-0.8153,-0.7842,1.5901,0.2269,-0.1066
3.116,-0.54,2.2949,-1.4931,1.7463,-0.0624,2.4514,-0.0529,-0.3643,0.5253,1.1705,-0.8153,-0.7842,1.5901,0.2269,-0.1066
3.143,-0.579,2.2075,-1.367,1.7189,-0.0602,2.4514,-0.0529,-0.0571,0.4168,1.1629,-0.8365,-0.8234,1.6168,0.221,-0.1086
3.143,-0.579,2.2075,-1.367,1.7189,-0.0602,2.4514,-0.0529,-0.0571,0.4168,1.1629,-0.8365,-0.8234,1.6168,0.221,-0.1086
3.143,-0.579,2.1488,-1.2824,1.7086,-0.064,2.4559,-0.0592,0.1347,0.3939,1.1739,-0.8523,-0.8704,1.6398,0.2296,-0.1157
3.183,-0.5637,2.0898,-1.1974,1.76,-0.0821,2.4426,-0.0402,0.0046,0.6666,1.1739,-0.8523,-0.8899,1.6531,0.2392,-0.1191
3.183,-0.5637,2.0898,-1.1974,1.76,-0.0821,2.4426,-0.0402,0.0046,0.6666,1.1739,-0.8523,-0.8899,1.6531,0.2392,-0.1191
3.183,-0.5637,2.0236,-1.2061,1.7908,-0.1079,2.4269,-0.0298,-0.1223,0.8495,1.1257,-0.8472,-0.8997,1.6373,0.2296,-0.1157
3.183,-0.5637,2.0236,-1.2061,1.7908,-0.1079,2.4269,-0.0298,-0.1223,0.8495,1.1257,-0.8472,-0.8997,1.6373,0.2296,-0.1157
3.183,-0.5637,2.0236,-1.2061,1.7908,-0.1079,2.4269,-0.0298,-0.1223,0.8495,1.1257,-0.8472,-0.8997,1.6373,0.2296,-0.1157
3.183,-0.5637,2.0236,-1.2061,1.7976,-0.1178,2.4043,-0.0218,-0.2784,0.9047,1.1071,-0.8526,-0.9094,1.6216,0.1987,-0.1027
3.183,-0.5637,2.0236,-1.2061,1.7976,-0.1178,2.4043,-0.0218,-0.2784,0.9047,1.1071,-0.8526,-0.9094,1.6216,0.1987,-0.1027
3.183,-0.5637,2.0236,-1.2061,1.7976,-0.1178,2.4043,-0.0218,-0.2784,0.9047,1.1071,-0.8526,-0.9094,1.6216,0.1987,-0.1027
3.2301,-0.5951,2.064,-1.3163,1.7565,-0.0958,2.3905,-0.0265,-0.3769,0.7102,1.105,-0.8816,-0.9152,1.5855,0.1589,-0.0927
3.3581,-0.6697,2.1038,-1.4256,1.6711,-0.0656,2.3743,-0.04,-0.3291,0.5577,1.1176,-0.9157,-0.9327,1.5662,0.1344,-0.0942
3.3581,-0.6697,2.1038,-1.4256,1.6711,-0.0656,2.3743,-0.04,-0.3291,0.5577,1.1176,-0.9157,-0.9327,1.5662,0.1344,-0.0942
3.4392,-0.713,2.1328,-1.4674,1.6098,-0.0514,2.3762,-0.0551,-0.2524,0.5306,1.0974,-0.9027,-0.9327,1.5662,0.1177,-0.0964
3.4392,-0.713,2.1328,-1.4674,1.6098,-0.0514,2.3762,-0.0551,-0.2524,0.5306,1.0974,-0.9027,-0.9327,1.5662,0.1177,-0.0964
3.4392,-0.713,2.1328,-1.4674,1.6098,-0.0514,2.3762,-0.0551,-0.2524,0.5306,1.0974,-0.9027,-0.9327,1.5662,0.1177,-0.0964
3.3581,-0.6697,2.1142,-1.4923,1.5454,-0.051,2.3894,-0.0741,-0.2112,0.4712,1.0516,-0.8687,-0.9522,1.5795,0.1078,-0.103
3.3581,-0.6697,2.1142,-1.4923,1.5454,-0.051,2.3894,-0.0741,-0.2112,0.4712,1.0516,-0.8687,-0.9522,1.5795,0.1078,-0.103
3.2569,-0.5604,2.1328,-1.4674,1.5183,-0.0488,2.4051,-0.0844,-0.2583,0.6229,1.0113,-0.8426,-0.9638,1.5963,0.1008,-0.1087
3.1424,-0.5052,2.1906,-1.5507,1.4747,-0.0779,2.3801,-0.0852,-0.3838,0.8038,0.982,-0.8322,-0.9288,1.5903,0.0986,-0.116
3.1424,-0.5052,2.1906,-1.5507,1.4747,-0.0779,2.3801,-0.0852,-0.3838,0.8038,0.982,-0.8322,-0.9288,1.5903,0.0986,-0.116
2.9761,-0.52,2.2291,-1.6581,1.4144,-0.1009,2.3301,-0.0866,-0.3487,0.8373,0.9929,-0.848,-0.8528,1.5698,0.0897,-0.1189
2.9761,-0.52,2.2291,-1.6581,1.4144,-0.1009,2.3301,-0.0866,-0.3487,0.8373,0.9929,-0.848,-0.8528,1.5698,0.0897,-0.1189
2.917,-0.5431,2.2767,-1.6749,1.3911,-0.1221,2.2896,-0.0771,-0.3487,0.8373,0.98,-0.8612,-0.845,1.5734,0.0809,-0.1219
2.917,-0.5431,2.2767,-1.6749,1.3911,-0.1221,2.2896,-0.0771,-0.3487,0.8373,0.98,-0.8612,-0.845,1.5734,0.0809,-0.1219
2.8581,-0.5661,2.1906,-1.5507,1.3946,-0.1454,2.2536,-0.0739,-0.2292,0.7492,0.9525,-0.8693,-0.8762,1.6035,0.0643,-0.1241
2.8581,-0.5661,2.1906,-1.5507,1.3946,-0.1454,2.2536,-0.0739,-0.2292,0.7492,0.9525,-0.8693,-0.8762,1.6035,0.0643,-0.1241
2.8519,-0.593,1.9797,-1.3501,1.3746,-0.153,2.2176,-0.0707,0.0102,0.5734,0.9141,-0.8616,-0.923,1.6264,0.0525,-0.128
2.8519,-0.593,1.9797,-1.3501,1.3746,-0.153,2.2176,-0.0707,0.0102,0.5734,0.9141,-0.8616,-0.923,1.6264,0.0525,-0.128
2.8652,-0.6123,1.9214,-1.2659,1.3913,-0.1589,2.204,-0.0755,0.0884,0.5458,0.8867,-0.8697,-0.9445,1.6276,0.0551,-0.137
2.8652,-0.6123,1.9214,-1.2659,1.3913,-0.1589,2.204,-0.0755,0.0884,0.5458,0.8867,-0.8697,-0.9445,1.6276,0.0551,-0.137
2.859,-0.6391,1.8267,-1.2325,1.455,-0.196,2.1948,-0.0865,-0.0736,0.6942,0.8593,-0.8778,-0.96,1.6204,0.053,-0.1443
2.8394,-0.6466,1.8379,-1.3,1.4618,-0.2057,2.1813,-0.0912,-0.3418,0.7433,0.7994,-0.8861,-0.9716,1.5927,0.0268,-0.1431
2.8394,-0.6466,1.8379,-1.3,1.4618,-0.2057,2.1813,-0.0912,-0.3418,0.7433,0.7994,-0.8861,-0.9716,1.5927,0.0268,-0.1431
2.8199,-0.6542,1.8199,-1.3253,1.4383,-0.1901,2.1745,-0.0936,-0.6677,0.6325,0.7414,-0.9126,-1.0258,1.5674,-0.0117,-0.1395
2.8199,-0.6542,1.8199,-1.3253,1.4383,-0.1901,2.1745,-0.0936,-0.6677,0.6325,0.7414,-0.9126,-1.0258,1.5674,-0.0117,-0.1395
2.8199,-0.6542,1.8199,-1.3253,1.4383,-0.1901,2.1745,-0.0936,-0.6677,0.6325,0.7414,-0.9126,-1.0258,1.5674,-0.0117,-0.1395
2.8199,-0.6542,1.8199,-1.3253,1.4383,-0.1901,2.1745,-0.0936,-0.6677,0.6325,0.7414,-0.9126,-1.0258,1.5674,-0.0117,-0.1395
2.9052,-0.6699,1.867,-1.3419,1.3779,-0.1394,2.1924,-0.0952,-0.9931,0.6139,0.7305,-0.9439,-1.0759,1.5662,-0.0425,-0.1367
2.9052,-0.6699,1.867,-1.3419,1.3779,-0.1394,2.1924,-0.0952,-0.9931,0.6139,0.7305,-0.9439,-1.0759,1.5662,-0.0425,-0.1367
2.9967,-0.5859,1.9797,-1.3501,1.3941,-0.0716,2.3414,-0.0906,-0.8314,0.3808,0.7324,-0.9153,-1.1029,1.5757,-0.0338,-0.1338
2.9967,-0.5859,1.9797,-1.3501,1.3941,-0.0716,2.3414,-0.0906,-0.8314,0.3808,0.7324,-0.9153,-1.1029,1.5757,-0.0338,-0.1338
3.0363,-0.5706,2.1514,-1.4424,1.4679,-0.0681,2.3762,-0.0551,-0.7232,0.3863,0.7849,-0.881,-1.0451,1.5806,0.0109,-0.1254
3.0363,-0.5706,2.1514,-1.4424,1.4679,-0.0681,2.3762,-0.0551,-0.7232,0.3863,0.7849,-0.881,-1.0451,1.5806,0.0109,-0.1254
3.0363,-0.5706,2.1514,-1.4424,1.4679,-0.0681,2.3762,-0.0551,-0.7232,0.3863,0.7849,-0.881,-1.0451,1.5806,0.0109,-0.1254
3.0363,-0.5706,2.1514,-1.4424,1.4679,-0.0681,2.3762,-0.0551,-0.7232,0.3863,0.7849,-0.881,-1.0451,1.5806,0.0109,-0.1254
3.0626,-0.5359,2.3429,-1.51,1.5183,-0.0488,2.4131,-0.0345,-0.6546,0.4501,0.8813,-0.8619,-0.9658,1.5843,0.0705,-0.1121
3.0626,-0.5359,2.3429,-1.51,1.5183,-0.0488,2.4131,-0.0345,-0.6546,0.4501,0.8813,-0.8619,-0.9658,1.5843,0.0705,-0.1121
3.0626,-0.5359,2.3429,-1.51,1.5183,-0.0488,2.4131,-0.0345,-0.6546,0.4501,0.8813,-0.8619,-0.9658,1.5843,0.0705,-0.1121
3.1825,-0.4898,2.3793,-1.2996,1.6539,-0.0223,2.4664,-0.0004,0.18,0.2438,1.0831,-0.8501,-0.9075,1.6337,0.1942,-0.091
3.1825,-0.4898,2.3793,-1.2996,1.6539,-0.0223,2.4664,-0.0004,0.18,0.2438,1.0831,-0.8501,-0.9075,1.6337,0.1942,-0.091
3.2766,-0.4785,2.3278,-1.1195,1.7119,-0.0129,2.5099,-0.0013,0.37,0.3107,1.1536,-0.8392,-0.9114,1.6543,0.2601,-0.0858
3.2766,-0.4785,2.3278,-1.1195,1.7119,-0.0129,2.5099,-0.0013,0.37,0.3107,1.1536,-0.8392,-0.9114,1.6543,0.2601,-0.0858
3.3171,-0.4631,2.3166,-1.0501,1.8287,-0.0316,2.5421,0.0018,0.2777,0.616,1.2057,-0.8337,-0.8958,1.6615,0.3084,-0.0865
3.3171,-0.4631,2.3166,-1.0501,1.8287,-0.0316,2.5421,0.0018,0.2777,0.616,1.2057,-0.8337,-0.8958,1.6615,0.3084,-0.0865
3.3171,-0.4631,2.3166,-1.0501,1.8287,-0.0316,2.5421,0.0018,0.2777,0.616,1.2057,-0.8337,-0.8958,1.6615,0.3084,-0.0865
3.2832,-0.4511,2.3955,-1.1107,1.8977,-0.056,2.5421,0.0018,0.0284,0.8892,1.2244,-0.8283,-0.8762,1.6482,0.3313,-0.0824
3.2832,-0.4511,2.3955,-1.1107,1.8977,-0.056,2.5421,0.0018,0.0284,0.8892,1.2244,-0.8283,-0.8762,1.6482,0.3313,-0.0824
3.2766,-0.4785,2.4173,-1.2485,1.839,0.0098,2.5421,0.0018,-0.4884,0.7042,1.3184,-0.9153,-0.9133,1.5975,0.302,-0.072
3.2766,-0.4785,2.4173,-1.2485,1.839,0.0098,2.5421,0.0018,-0.4884,0.7042,1.3184,-0.9153,-0.9133,1.5975,0.302,-0.072
3.3581,-0.5222,2.4173,-1.2485,1.8079,0.0358,2.5352,-0.0005,-0.6677,0.6325,1.3497,-0.9443,-0.9347,1.5987,0.2911,-0.0723
3.3581,-0.5222,2.4173,-1.2485,1.8079,0.0358,2.5352,-0.0005,-0.6677,0.6325,1.3497,-0.9443,-0.9347,1.5987,0.2911,-0.0723
3.3581,-0.5222,2.4173,-1.2485,1.8079,0.0358,2.5352,-0.0005,-0.6677,0.6325,1.3497,-0.9443,-0.9347,1.5987,0.2911,-0.0723
3.4465,-0.5386,2.3876,-1.2056,1.7907,0.0419,2.5764,-0.0103,-0.6266,0.5733,1.3278,-0.9127,-0.9328,1.6107,0.2863,-0.0706
3.4465,-0.5386,2.3876,-1.2056,1.7907,0.0419,2.5764,-0.0103,-0.6266,0.5733,1.3278,-0.9127,-0.9328,1.6107,0.2863,-0.0706
3.4465,-0.5386,2.3876,-1.2056,1.7907,0.0419,2.5764,-0.0103,-0.6266,0.5733,1.3278,-0.9127,-0.9328,1.6107,0.2863,-0.0706
3.4192,-0.4992,2.3577,-1.1626,1.7976,0.0319,2.6221,-0.0264,-0.5102,0.4876,1.2855,-0.8678,-0.9308,1.6228,0.29,-0.076
3.4192,-0.4992,2.3577,-1.1626,1.7976,0.0319,2.6221,-0.0264,-0.5102,0.4876,1.2855,-0.8678,-0.9308,1.6228,0.29,-0.076
3.4192,-0.4992,2.3577,-1.1626,1.7976,0.0319,2.6221,-0.0264,-0.5102,0.4876,1.2855,-0.8678,-0.9308,1.6228,0.29,-0.076
3.1889,-0.4624,2.312,-1.308,1.7565,-0.0211,2.5922,-0.0207,-0.4055,0.5847,1.1947,-0.8178,-0.8058,1.5914,0.3005,-0.0858
3.1889,-0.4624,2.312,-1.308,1.7565,-0.0211,2.5922,-0.0207,-0.4055,0.5847,1.1947,-0.8178,-0.8058,1.5914,0.3005,-0.0858
3.069,-0.5087,2.3139,-1.4681,1.6949,-0.0442,2.5396,-0.007,-0.4817,0.6117,1.1464,-0.8127,-0.7254,1.5502,0.2957,-0.0841
3.069,-0.5087,2.3139,-1.4681,1.6949,-0.0442,2.5396,-0.007,-0.4817,0.6117,1.1464,-0.8127,-0.7254,1.5502,0.2957,-0.0841
2.9699,-0.5471,2.3817,-1.6182,1.6472,-0.0497,2.5143,-0.0077,-0.5577,0.6385,1.1333,-0.8261,-0.7234,1.5623,0.2908,-0.0824
2.9699,-0.5471,2.3817,-1.6182,1.6472,-0.0497,2.5143,-0.0077,-0.5577,0.6385,1.1333,-0.8261,-0.7234,1.5623,0.2908,-0.0824
2.9699,-0.5471,2.3817,-1.6182,1.6472,-0.0497,2.5143,-0.0077,-0.5577,0.6385,1.1333,-0.8261,-0.7234,1.5623,0.2908,-0.0824
3.0299,-0.5976,2.3049,-1.5597,1.6302,-0.0437,2.5143,-0.0077,-0.3704,0.6174,1.1536,-0.8392,-0.7448,1.6082,0.287,-0.0769
3.0299,-0.5976,2.3049,-1.5597,1.6302,-0.0437,2.5143,-0.0077,-0.3704,0.6174,1.1536,-0.8392,-0.7448,1.6082,0.287,-0.0769
3.0299,-0.5976,2.3049,-1.5597,1.6302,-0.0437,2.5143,-0.0077,-0.3704,0.6174,1.1536,-0.8392,-0.7448,1.6082,0.287,-0.0769
3.0965,-0.6212,2.1595,-1.3501,1.6335,-0.03,2.5555,-0.0174,0.2129,0.3662,1.1645,-0.855,-0.7939,1.664,0.3144,-0.0846
3.0965,-0.6212,2.1595,-1.3501,1.6335,-0.03,2.5555,-0.0174,0.2129,0.3662,1.1645,-0.855,-0.7939,1.664,0.3144,-0.0846
3.143,-0.579,2.1488,-1.2824,1.7052,-0.0404,2.5719,-0.0038,0.1617,0.6111,1.1591,-0.8471,-0.8136,1.6774,0.3436,-0.0949
3.163,-0.5714,2.1782,-1.3247,1.7291,-0.0563,2.5719,-0.0038,-0.0438,0.8218,1.135,-0.8446,-0.8077,1.6689,0.3429,-0.0885
3.163,-0.5714,2.1782,-1.3247,1.7291,-0.0563,2.5719,-0.0038,-0.0438,0.8218,1.135,-0.8446,-0.8077,1.6689,0.3429,-0.0885
3.1695,-0.5442,2.2555,-1.384,1.7154,-0.0365,2.5833,-0.0079,-0.158,0.816,1.1312,-0.8551,-0.8175,1.6531,0.3196,-0.0762
3.1695,-0.5442,2.2555,-1.384,1.7154,-0.0365,2.5833,-0.0079,-0.158,0.816,1.1312,-0.8551,-0.8175,1.6531,0.3196,-0.0762
3.1695,-0.5442,2.2555,-1.384,1.7154,-0.0365,2.5833,-0.0079,-0.158,0.816,1.1312,-0.8551,-0.8175,1.6531,0.3196,-0.0762
3.2502,-0.5875,2.3139,-1.4681,1.6641,-0.0184,2.5694,-0.0126,-0.1936,0.7825,1.1771,-0.8893,-0.8195,1.641,0.2953,-0.0676
3.2502,-0.5875,2.3139,-1.4681,1.6641,-0.0184,2.5694,-0.0126,-0.1936,0.7825,1.1771,-0.8893,-0.8195,1.641,0.2953,-0.0676
3.4191,-0.6472,2.381,-1.4601,1.647,-0.0124,2.5694,-0.0126,-0.1515,0.7218,1.2029,-0.9102,-0.8254,1.6494,0.2795,-0.0661
3.4191,-0.6472,2.381,-1.4601,1.647,-0.0124,2.5694,-0.0126,-0.1515,0.7218,1.2029,-0.9102,-0.8254,1.6494,0.2795,-0.0661
3.4395,-0.6396,2.3328,-1.4431,1.5926,-0.0081,2.5783,-0.0254,-0.0736,0.6942,1.1717,-0.8814,-0.8116,1.6446,0.2627,-0.0684
3.4395,-0.6396,2.3328,-1.4431,1.5926,-0.0081,2.5783,-0.0254,-0.0736,0.6942,1.1717,-0.8814,-0.8116,1.6446,0.2627,-0.0684
3.4193,-0.5734,2.3518,-1.418,1.5654,-0.0059,2.5897,-0.0295,-0.0736,0.6942,1.1405,-0.8525,-0.8234,1.6616,0.2556,-0.074
3.4193,-0.5734,2.3518,-1.418,1.5654,-0.0059,2.5897,-0.0295,-0.0736,0.6942,1.1405,-0.8525,-0.8234,1.6616,0.2556,-0.074
3.2903,-0.4982,2.2555,-1.384,1.5419,-0.0274,2.5599,-0.0238,-0.0014,0.7606,1.1054,-0.8341,-0.8018,1.6604,0.2485,-0.0797
3.2903,-0.4982,2.2555,-1.384,1.5419,-0.0274,2.5599,-0.0238,-0.0014,0.7606,1.1054,-0.8341,-0.8018,1.6604,0.2485,-0.0797
3.2903,-0.4982,2.2555,-1.384,1.5419,-0.0274,2.5599,-0.0238,-0.0014,0.7606,1.1054,-0.8341,-0.8018,1.6604,0.2485,-0.0797
3.1624,-0.4975,2.2949,-1.4931,1.515,-0.0625,2.5118,-0.0165,-0.0078,0.8555,1.0907,-0.8289,-0.7309,1.6482,0.2396,-0.0826
3.1624,-0.4975,2.2949,-1.4931,1.515,-0.0625,2.5118,-0.0165,-0.0078,0.8555,1.0907,-0.8289,-0.7309,1.6482,0.2396,-0.0826
2.9564,-0.5277,2.5548,-1.7107,1.4345,-0.0932,2.4318,-0.0123,-0.1223,0.8495,1.0499,-0.8503,-0.7231,1.6518,0.2109,-0.0888
2.9564,-0.5277,2.5548,-1.7107,1.4345,-0.0932,2.4318,-0.0123,-0.1223,0.8495,1.0499,-0.8503,-0.7231,1.6518,0.2109,-0.0888
2.9564,-0.5277,2.5548,-1.7107,1.4345,-0.0932,2.4318,-0.0123,-0.1223,0.8495,1.0499,-0.8503,-0.7231,1.6518,0.2109,-0.0888
2.9501,-0.5548,2.42,-1.5689,1.4312,-0.1068,2.4067,-0.013,-0.0798,0.7883,1.0131,-0.861,-0.7684,1.6871,0.1893,-0.0893
2.9501,-0.5548,2.42,-1.5689,1.4312,-0.1068,2.4067,-0.013,-0.0798,0.7883,1.0131,-0.861,-0.7684,1.6871,0.1893,-0.0893
2.9833,-0.5665,2.2931,-1.3334,1.4244,-0.097,2.418,-0.017,0.1985,0.644,0.9892,-0.8585,-0.7999,1.7176,0.1785,-0.0895
2.9833,-0.5665,2.2931,-1.3334,1.4244,-0.097,2.418,-0.017,0.1985,0.644,0.9892,-0.8585,-0.7999,1.7176,0.1785,-0.0895
3.0165,-0.5783,2.2342,-1.2484,1.4412,-0.103,2.4407,-0.025,0.1985,0.644,0.9708,-0.8639,-0.8078,1.7139,0.1841,-0.0976
3.0165,-0.5783,2.2342,-1.2484,1.4412,-0.103,2.4407,-0.025,0.1985,0.644,0.9708,-0.8639,-0.8078,1.7139,0.1841,-0.0976
3.0363,-0.5706,2.2046,-1.2057,1.5154,-0.1365,2.4564,-0.0354,-0.0864,0.8833,0.9378,-0.8641,-0.8019,1.7054,0.1868,-0.1066
3.0363,-0.5706,2.2046,-1.2057,1.5154,-0.1365,2.4564,-0.0354,-0.0864,0.8833,0.9378,-0.8641,-0.8019,1.7054,0.1868,-0.1066
3.0165,-0.5783,2.1194,-1.2399,1.5289,-0.1561,2.4426,-0.0402,-0.2784,0.9047,0.8867,-0.8697,-0.8195,1.6859,0.1652,-0.1071
2.9833,-0.5665,2.1488,-1.2824,1.5222,-0.1463,2.4382,-0.0338,-0.53,0.7643,0.8465,-0.8909,-0.845,1.6628,0.1255,-0.0972
2.9833,-0.5665,2.1488,-1.2824,1.5222,-0.1463,2.4382,-0.0338,-0.53,0.7643,0.8465,-0.8909,-0.845,1.6628,0.1255,-0.0972
2.9833,-0.5665,2.1488,-1.2824,1.5222,-0.1463,2.4382,-0.0338,-0.53,0.7643,0.8465,-0.8909,-0.845,1.6628,0.1255,-0.0972
3.0632,-0.6094,2.2075,-1.367,1.4445,-0.0894,2.4269,-0.0298,-0.77,0.5351,0.8409,-0.9302,-0.8919,1.6409,0.0867,-0.0936
3.0632,-0.6094,2.2075,-1.367,1.4445,-0.0894,2.4269,-0.0298,-0.77,0.5351,0.8409,-0.9302,-0.8919,1.6409,0.0867,-0.0936
3.0632,-0.6094,2.2075,-1.367,1.4445,-0.0894,2.4269,-0.0298,-0.77,0.5351,0.8409,-0.9302,-0.8919,1.6409,0.0867,-0.0936
3.0632,-0.6094,2.2075,-1.367,1.4445,-0.0894,2.4269,-0.0298,-0.77,0.5351,0.8409,-0.9302,-0.8919,1.6409,0.0867,-0.0936
3.1633,-0.6447,2.1782,-1.3247,1.3437,-0.0538,2.4722,-0.0458,-0.6486,0.36,0.8028,-0.9226,-0.9329,1.6554,0.0612,-0.0987
3.1633,-0.6447,2.1782,-1.3247,1.3437,-0.0538,2.4722,-0.0458,-0.6486,0.36,0.8028,-0.9226,-0.9329,1.6554,0.0612,-0.0987
3.1295,-0.5595,2.1968,-1.2994,1.327,-0.0478,2.5018,-0.0514,-0.4988,0.307,0.7631,-0.8968,-0.9251,1.6591,0.0572,-0.1034
3.1295,-0.5595,2.1968,-1.2994,1.327,-0.0478,2.5018,-0.0514,-0.4988,0.307,0.7631,-0.8968,-0.9251,1.6591,0.0572,-0.1034
3.0356,-0.4969,2.1782,-1.3247,1.3039,-0.0692,2.4791,-0.0434,-0.4345,0.4609,0.7433,-0.8839,-0.8684,1.6519,0.0495,-0.1027
2.9232,-0.516,2.2367,-1.4091,1.2709,-0.0943,2.418,-0.017,-0.3643,0.5253,0.7198,-0.8815,-0.7998,1.6276,0.0406,-0.1056
2.9232,-0.516,2.2367,-1.4091,1.2709,-0.0943,2.418,-0.017,-0.3643,0.5253,0.7198,-0.8815,-0.7998,1.6276,0.0406,-0.1056
2.8643,-0.5391,2.3719,-1.5519,1.238,-0.1193,2.3704,-0.0098,-0.3704,0.6174,0.7018,-0.8869,-0.792,1.6313,0.0241,-0.1079
2.8643,-0.5391,2.3719,-1.5519,1.238,-0.1193,2.3704,-0.0098,-0.3704,0.6174,0.7018,-0.8869,-0.792,1.6313,0.0241,-0.1079
2.8643,-0.5391,2.3719,-1.5519,1.238,-0.1193,2.3704,-0.0098,-0.3704,0.6174,0.7018,-0.8869,-0.792,1.6313,0.0241,-0.1079
2.8581,-0.5661,2.4393,-1.5441,1.2115,-0.1173,2.3297,-0.0003,-0.2937,0.5903,0.709,-0.9129,-0.8175,1.6531,0.0046,-0.1111
2.8581,-0.5661,2.4393,-1.5441,1.2115,-0.1173,2.3297,-0.0003,-0.2937,0.5903,0.709,-0.9129,-0.8175,1.6531,0.0046,-0.1111
2.8581,-0.5661,2.3708,-1.3928,1.185,-0.1153,2.316,-0.005,0.0934,0.4535,0.7107,-0.9311,-0.8489,1.6834,-0.0137,-0.1106
2.8777,-0.5584,2.2716,-1.197,1.185,-0.1153,2.3204,-0.0114,0.3287,0.3704,0.6873,-0.9287,-0.8901,1.698,-0.0236,-0.1172
2.8777,-0.5584,2.2716,-1.197,1.185,-0.1153,2.3204,-0.0114,0.3287,0.3704,0.6873,-0.9287,-0.8901,1.698,-0.0236,-0.1172
2.8973,-0.5508,2.1821,-1.068,1.2182,-0.127,2.3248,-0.0177,0.3618,0.4947,0.673,-0.9236,-0.9252,1.704,-0.0162,-0.1279
2.8973,-0.5508,2.1821,-1.068,1.2182,-0.127,2.3248,-0.0177,0.3618,0.4947,0.673,-0.9236,-0.9252,1.704,-0.0162,-0.1279
2.8973,-0.5508,2.1821,-1.068,1.2182,-0.127,2.3248,-0.0177,0.3618,0.4947,0.673,-0.9236,-0.9252,1.704,-0.0162,-0.1279
2.9367,-0.5354,2.2191,-1.0156,1.2946,-0.1467,2.3316,-0.0154,0.1504,0.7996,0.6496,-0.9212,-0.9408,1.6966,-0.0184,-0.1352
2.9367,-0.5354,2.2191,-1.0156,1.2946,-0.1467,2.3316,-0.0154,0.1504,0.7996,0.6496,-0.9212,-0.9408,1.6966,-0.0184,-0.1352
2.9367,-0.5354,2.2191,-1.0156,1.2946,-0.1467,2.3316,-0.0154,0.1504,0.7996,0.6496,-0.9212,-0.9408,1.6966,-0.0184,-0.1352
2.8447,-0.5468,2.1934,-1.137,1.2281,-0.1232,2.3043,-0.0249,-0.4607,0.831,0.6352,-0.9628,-0.9522,1.624,-0.0836,-0.1242
2.8447,-0.5468,2.1934,-1.137,1.2281,-0.1232,2.3043,-0.0249,-0.4607,0.831,0.6352,-0.9628,-0.9522,1.624,-0.0836,-0.1242
2.9241,-0.5894,2.1749,-1.1629,1.1648,-0.0862,2.2974,-0.0273,-0.6748,0.7249,0.6477,-0.9963,-0.9697,1.6047,-0.1172,-0.1224
2.9241,-0.5894,2.1749,-1.1629,1.1648,-0.0862,2.2974,-0.0273,-0.6748,0.7249,0.6477,-0.9963,-0.9697,1.6047,-0.1172,-0.1224
2.9241,-0.5894,2.1749,-1.1629,1.1648,-0.0862,2.2974,-0.0273,-0.6748,0.7249,0.6477,-0.9963,-0.9697,1.6047,-0.1172,-0.1224
2.9178,-0.6163,2.1378,-1.2143,1.0888,-0.0666,2.3175,-0.0439,-0.7769,0.6264,0.6191,-0.9862,-0.991,1.6059,-0.1441,-0.1249
2.9178,-0.6163,2.1378,-1.2143,1.0888,-0.0666,2.3175,-0.0439,-0.7769,0.6264,0.6191,-0.9862,-0.991,1.6059,-0.1441,-0.1249
2.9178,-0.6163,2.1378,-1.2143,1.0888,-0.0666,2.3175,-0.0439,-0.7769,0.6264,0.6191,-0.9862,-0.991,1.6059,-0.1441,-0.1249
2.7593,-0.5312,2.053,-1.2486,1.0235,-0.0801,2.3263,-0.0566,-0.6266,0.5733,0.5299,-0.9198,-0.9678,1.6167,-0.1625,-0.1345
2.7593,-0.5312,2.053,-1.2486,1.0235,-0.0801,2.3263,-0.0566,-0.6266,0.5733,0.5299,-0.9198,-0.9678,1.6167,-0.1625,-0.1345
2.7593,-0.5312,2.053,-1.2486,1.0235,-0.0801,2.3263,-0.0566,-0.6266,0.5733,0.5299,-0.9198,-0.9678,1.6167,-0.1625,-0.1345
2.7593,-0.5312,2.053,-1.2486,1.0235,-0.0801,2.3263,-0.0566,-0.6266,0.5733,0.5299,-0.9198,-0.9678,1.6167,-0.1625,-0.1345
2.6491,-0.5504,2.1224,-1.4005,0.9748,-0.0994,2.2857,-0.0471,-0.6266,0.5733,0.4925,-0.9124,-0.9133,1.5975,-0.1694,-0.1401
2.6491,-0.5504,2.1224,-1.4005,0.9748,-0.0994,2.2857,-0.0471,-0.6266,0.5733,0.4925,-0.9124,-0.9133,1.5975,-0.1694,-0.1401
2.5206,-0.5773,2.2094,-1.5259,0.9815,-0.109,2.2818,-0.0169,-0.4055,0.5847,0.4872,-0.9047,-0.8684,1.6519,-0.153,-0.1378
2.5206,-0.5773,2.2094,-1.5259,0.9815,-0.109,2.2818,-0.0169,-0.4055,0.5847,0.4872,-0.9047,-0.8684,1.6519,-0.153,-0.1378
2.5206,-0.5773,2.2094,-1.5259,0.9815,-0.109,2.2818,-0.0169,-0.4055,0.5847,0.4872,-0.9047,-0.8684,1.6519,-0.153,-0.1378
2.6239,-0.5849,2.1888,-1.3922,1.0466,-0.0956,2.3297,-0.0003,-0.0622,0.5085,0.5513,-0.904,-0.8685,1.6968,-0.1193,-0.1297
2.6239,-0.5849,2.1888,-1.3922,1.0466,-0.0956,2.3297,-0.0003,-0.0622,0.5085,0.5513,-0.904,-0.8685,1.6968,-0.1193,-0.1297
2.7738,-0.6234,2.1194,-1.2399,1.1483,-0.0803,2.3777,0.0165,0.25,0.3982,0.6335,-0.898,-0.8569,1.7248,-0.0642,-0.121
2.7738,-0.6234,2.1194,-1.2399,1.1483,-0.0803,2.3777,0.0165,0.25,0.3982,0.6335,-0.898,-0.8569,1.7248,-0.0642,-0.121
2.8652,-0.6123,2.0602,-1.1547,1.2808,-0.0905,2.4417,0.0228,0.3198,0.5552,0.7343,-0.8866,-0.8255,1.7395,0.016,-0.1171
2.8652,-0.6123,2.0602,-1.1547,1.2808,-0.0905,2.4417,0.0228,0.3198,0.5552,0.7343,-0.8866,-0.8255,1.7395,0.016,-0.1171
2.9438,-0.5818,2.0785,-1.1288,1.3808,-0.089,2.4763,0.0348,0.2298,0.7715,0.8121,-0.8729,-0.7901,1.7335,0.0794,-0.1092
2.9438,-0.5818,2.0785,-1.1288,1.3808,-0.089,2.4763,0.0348,0.2298,0.7715,0.8121,-0.8729,-0.7901,1.7335,0.0794,-0.1092
3.0031,-0.5589,2.1749,-1.1629,1.4309,-0.0698,2.5199,0.0339,-0.0078,0.8555,0.883,-0.8802,-0.792,1.7212,0.1148,-0.0974
3.0031,-0.5589,2.1749,-1.1629,1.4309,-0.0698,2.5199,0.0339,-0.0078,0.8555,0.883,-0.8802,-0.792,1.7212,0.1148,-0.0974
3.143,-0.579,2.2529,-1.2227,1.4238,-0.0229,2.5452,0.0347,-0.158,0.816,0.9796,-0.9085,-0.7802,1.7042,0.1269,-0.0835
3.2638,-0.607,2.2529,-1.2227,1.417,-0.013,2.5636,0.033,-0.158,0.816,1.0219,-0.9056,-0.7526,1.6944,0.1399,-0.0759
3.2638,-0.607,2.2529,-1.2227,1.417,-0.013,2.5636,0.033,-0.158,0.816,1.0219,-0.9056,-0.7526,1.6944,0.1399,-0.0759
3.2569,-0.5604,2.2825,-1.2654,1.3833,-0.0011,2.6094,0.0168,-0.2359,0.8435,1.0202,-0.8873,-0.7585,1.703,0.141,-0.0722
3.2569,-0.5604,2.2825,-1.2654,1.3833,-0.0011,2.6094,0.0168,-0.2359,0.8435,1.0202,-0.8873,-0.7585,1.703,0.141,-0.0722
3.2569,-0.5604,2.2825,-1.2654,1.3833,-0.0011,2.6094,0.0168,-0.2359,0.8435,1.0202,-0.8873,-0.7585,1.703,0.141,-0.0722
3.1825,-0.4898,2.3309,-1.2825,1.3633,-0.0089,2.6164,0.0192,-0.2004,0.8772,1.0131,-0.861,-0.721,1.7091,0.1439,-0.0712
3.1825,-0.4898,2.3309,-1.2825,1.3633,-0.0089,2.6164,0.0192,-0.2004,0.8772,1.0131,-0.861,-0.721,1.7091,0.1439,-0.0712
3.1825,-0.4898,2.3309,-1.2825,1.3633,-0.0089,2.6164,0.0192,-0.2004,0.8772,1.0131,-0.861,-0.721,1.7091,0.1439,-0.0712
3.0889,-0.501,2.497,-1.4693,1.3202,-0.0381,2.5706,0.0354,-0.2004,0.8772,1.0021,-0.8453,-0.6577,1.6931,0.1458,-0.0739
3.0889,-0.501,2.497,-1.4693,1.3202,-0.0381,2.5706,0.0354,-0.2004,0.8772,1.0021,-0.8453,-0.6577,1.6931,0.1458,-0.0739
3.0889,-0.501,2.497,-1.4693,1.3202,-0.0381,2.5706,0.0354,-0.2004,0.8772,1.0021,-0.8453,-0.6577,1.6931,0.1458,-0.0739
2.9429,-0.5083,2.6723,-1.563,1.2772,-0.0671,2.5155,0.0403,-0.0014,0.7606,0.9745,-0.8533,-0.6437,1.7335,0.1388,-0.0795
2.9429,-0.5083,2.6723,-1.563,1.2772,-0.0671,2.5155,0.0403,-0.0014,0.7606,0.9745,-0.8533,-0.6437,1.7335,0.1388,-0.0795
2.9035,-0.5237,2.4766,-1.334,1.2741,-0.0807,2.5085,0.0379,0.3148,0.6489,0.9307,-0.8378,-0.6397,1.7581,0.1377,-0.0832
2.9035,-0.5237,2.4766,-1.334,1.2741,-0.0807,2.5085,0.0379,0.3148,0.6489,0.9307,-0.8378,-0.6397,1.7581,0.1377,-0.0832
2.9501,-0.5548,2.3876,-1.2056,1.3142,-0.1023,2.5199,0.0339,0.3945,0.6207,0.9124,-0.8432,-0.6457,1.7667,0.1414,-0.0886
2.9501,-0.5548,2.3876,-1.2056,1.3142,-0.1023,2.5199,0.0339,0.3945,0.6207,0.9124,-0.8432,-0.6457,1.7667,0.1414,-0.0886
2.9699,-0.5471,2.3091,-1.1454,1.3811,-0.1259,2.5313,0.0299,0.2238,0.8669,0.8978,-0.8381,-0.6377,1.7704,0.1529,-0.0947
2.9699,-0.5471,2.3091,-1.1454,1.3811,-0.1259,2.5313,0.0299,0.2238,0.8669,0.8978,-0.8381,-0.6377,1.7704,0.1529,-0.0947
2.9699,-0.5471,2.3091,-1.1454,1.3811,-0.1259,2.5313,0.0299,0.2238,0.8669,0.8978,-0.8381,-0.6377,1.7704,0.1529,-0.0947
2.9833,-0.5665,2.2418,-1.1541,1.3844,-0.1123,2.5313,0.0299,-0.0078,0.8555,0.8904,-0.8592,-0.6477,1.7544,0.1385,-0.0896
2.9833,-0.5665,2.2418,-1.1541,1.3844,-0.1123,2.5313,0.0299,-0.0078,0.8555,0.8904,-0.8592,-0.6477,1.7544,0.1385,-0.0896
3.143,-0.579,2.3389,-1.1884,1.3469,-0.0401,2.5979,0.0209,-0.3769,0.7102,0.903,-0.8932,-0.6794,1.7397,0.1114,-0.082
3.143,-0.579,2.3389,-1.1884,1.3469,-0.0401,2.5979,0.0209,-0.3769,0.7102,0.903,-0.8932,-0.6794,1.7397,0.1114,-0.082
3.143,-0.579,2.3389,-1.1884,1.3469,-0.0401,2.5979,0.0209,-0.3769,0.7102,0.903,-0.8932,-0.6794,1.7397,0.1114,-0.082
3.1559,-0.5247,2.3876,-1.2056,1.3234,-0.0244,2.6393,0.0111,-0.3704,0.6174,0.8721,-0.8646,-0.6596,1.7262,0.1095,-0.0793
3.1559,-0.5247,2.3876,-1.2056,1.3234,-0.0244,2.6393,0.0111,-0.3704,0.6174,0.8721,-0.8646,-0.6596,1.7262,0.1095,-0.0793
3.0953,-0.4737,2.4173,-1.2485,1.3202,-0.0381,2.6259,0.0304,-0.3769,0.7102,0.8758,-0.854,-0.6159,1.7237,0.1125,-0.0783
3.0953,-0.4737,2.4173,-1.2485,1.3202,-0.0381,2.6259,0.0304,-0.3769,0.7102,0.8758,-0.854,-0.6159,1.7237,0.1125,-0.0783
3.0356,-0.4969,2.4766,-1.334,1.2971,-0.0594,2.5985,0.045,-0.3418,0.7433,0.8613,-0.8489,-0.5461,1.699,0.1058,-0.074
3.0356,-0.4969,2.4766,-1.334,1.2971,-0.0594,2.5985,0.045,-0.3418,0.7433,0.8613,-0.8489,-0.5461,1.699,0.1058,-0.074
3.0157,-0.5046,2.5844,-1.4363,1.2772,-0.0671,2.5642,0.0571,-0.2646,0.716,0.8521,-0.8516,-0.542,1.7236,0.101,-0.0723
3.0157,-0.5046,2.5844,-1.4363,1.2772,-0.0671,2.5642,0.0571,-0.2646,0.716,0.8521,-0.8516,-0.542,1.7236,0.101,-0.0723
3.0157,-0.5046,2.515,-1.283,1.2673,-0.071,2.5527,0.0611,0.125,0.5784,0.8576,-0.8594,-0.5659,1.758,0.0951,-0.0742
3.0157,-0.5046,2.515,-1.283,1.2673,-0.071,2.5527,0.0611,0.125,0.5784,0.8576,-0.8594,-0.5659,1.758,0.0951,-0.0742
3.0157,-0.5046,2.4554,-1.1971,1.2673,-0.071,2.5616,0.0483,0.4036,0.4344,0.8249,-0.8597,-0.5859,1.7716,0.0977,-0.0833
3.0356,-0.4969,2.3955,-1.1107,1.3174,-0.0887,2.5616,0.0483,0.3521,0.6819,0.8103,-0.8545,-0.6059,1.7852,0.11,-0.0957
3.0356,-0.4969,2.3955,-1.1107,1.3174,-0.0887,2.5616,0.0483,0.3521,0.6819,0.8103,-0.8545,-0.6059,1.7852,0.11,-0.0957
3.0356,-0.4969,2.3955,-1.1107,1.3174,-0.0887,2.5616,0.0483,0.3521,0.6819,0.8103,-0.8545,-0.6059,1.7852,0.11,-0.0957
3.0356,-0.4969,2.4333,-1.0585,1.3844,-0.1123,2.5731,0.0442,0.1807,0.929,0.7777,-0.8548,-0.6059,1.7852,0.1011,-0.0987
3.0356,-0.4969,2.4333,-1.0585,1.3844,-0.1123,2.5731,0.0442,0.1807,0.929,0.7777,-0.8548,-0.6059,1.7852,0.1011,-0.0987
3.0022,-0.4851,2.562,-1.1368,1.3844,-0.1123,2.5616,0.0483,-0.1008,1.0756,0.7506,-0.8629,-0.6019,1.7642,0.0741,-0.0912
3.0094,-0.5318,2.5236,-1.1886,1.3341,-0.0946,2.5363,0.0475,-0.3637,1.0278,0.7685,-0.9046,-0.6198,1.7445,0.0383,-0.0866
3.0094,-0.5318,2.5236,-1.1886,1.3341,-0.0946,2.5363,0.0475,-0.3637,1.0278,0.7685,-0.9046,-0.6198,1.7445,0.0383,-0.0866
3.1364,-0.606,2.5236,-1.1886,1.2605,-0.0612,2.5179,0.0491,-0.4259,0.8646,0.7811,-0.9384,-0.6357,1.7372,0.0063,-0.0874
3.1364,-0.606,2.5236,-1.1886,1.2605,-0.0612,2.5179,0.0491,-0.4259,0.8646,0.7811,-0.9384,-0.6357,1.7372,0.0063,-0.0874
3.1364,-0.606,2.5236,-1.1886,1.2605,-0.0612,2.5179,0.0491,-0.4259,0.8646,0.7811,-0.9384,-0.6357,1.7372,0.0063,-0.0874
3.2168,-0.649,2.4445,-1.128,1.2173,-0.0533,2.511,0.0467,-0.3838,0.8038,0.7703,-0.9228,-0.6477,1.7544,-0.0198,-0.0863
3.2168,-0.649,2.4445,-1.128,1.2173,-0.0533,2.511,0.0467,-0.3838,0.8038,0.7703,-0.9228,-0.6477,1.7544,-0.0198,-0.0863
3.2168,-0.649,2.4445,-1.128,1.2173,-0.0533,2.511,0.0467,-0.3838,0.8038,0.7703,-0.9228,-0.6477,1.7544,-0.0198,-0.0863
3.2168,-0.649,2.3466,-1.0934,1.1643,-0.0493,2.5383,0.0323,-0.1872,0.6887,0.7198,-0.8815,-0.6536,1.763,-0.0363,-0.0885
3.2168,-0.649,2.3466,-1.0934,1.1643,-0.0493,2.5383,0.0323,-0.1872,0.6887,0.7198,-0.8815,-0.6536,1.763,-0.0363,-0.0885
3.2168,-0.649,2.3466,-1.0934,1.1643,-0.0493,2.5383,0.0323,-0.1872,0.6887,0.7198,-0.8815,-0.6536,1.763,-0.0363,-0.0885
3.2168,-0.649,2.3466,-1.0934,1.1643,-0.0493,2.5383,0.0323,-0.1872,0.6887,0.7198,-0.8815,-0.6536,1.763,-0.0363,-0.0885
3.0292,-0.5241,2.2791,-1.1023,1.155,-0.09,2.5541,0.0218,-0.1095,0.6613,0.6316,-0.8327,-0.6318,1.7618,-0.056,-0.1018
3.0292,-0.5241,2.2791,-1.1023,1.155,-0.09,2.5541,0.0218,-0.1095,0.6613,0.6316,-0.8327,-0.6318,1.7618,-0.056,-0.1018
3.0292,-0.5241,2.2791,-1.1023,1.155,-0.09,2.5541,0.0218,-0.1095,0.6613,0.6316,-0.8327,-0.6318,1.7618,-0.056,-0.1018
2.7071,-0.5273,2.381,-1.4601,1.0569,-0.1284,2.4397,0.038,-0.2228,0.6558,0.569,-0.8517,-0.5441,1.7113,-0.0822,-0.1106
2.7071,-0.5273,2.381,-1.4601,1.0569,-0.1284,2.4397,0.038,-0.2228,0.6558,0.569,-0.8517,-0.5441,1.7113,-0.0822,-0.1106
2.7011,-0.5543,2.4293,-1.4772,1.0143,-0.1206,2.4259,0.0332,-0.1872,0.6887,0.5708,-0.87,-0.568,1.7457,-0.1023,-0.1075
2.7011,-0.5543,2.4293,-1.4772,1.0143,-0.1206,2.4259,0.0332,-0.1872,0.6887,0.5708,-0.87,-0.568,1.7457,-0.1023,-0.1075
2.6624,-0.5696,2.3414,-1.3505,0.9784,-0.1225,2.4348,0.0204,0.0466,0.6061,0.5584,-0.8831,-0.6198,1.7901,-0.1158,-0.1088
2.6624,-0.5696,2.3414,-1.3505,0.9784,-0.1225,2.4348,0.0204,0.0466,0.6061,0.5584,-0.8831,-0.6198,1.7901,-0.1158,-0.1088
2.6624,-0.5696,2.3414,-1.3505,0.9784,-0.1225,2.4348,0.0204,0.0466,0.6061,0.5584,-0.8831,-0.6198,1.7901,-0.1158,-0.1088
2.6757,-0.5888,2.2529,-1.2227,0.9621,-0.1167,2.4393,0.014,0.2406,0.5832,0.5548,-0.8936,-0.6318,1.8074,-0.1121,-0.1141
2.6757,-0.5888,2.2529,-1.2227,0.9621,-0.1167,2.4393,0.014,0.2406,0.5832,0.5548,-0.8936,-0.6318,1.8074,-0.1121,-0.1141
2.6757,-0.5888,2.2529,-1.2227,0.9621,-0.1167,2.4393,0.014,0.2406,0.5832,0.5548,-0.8936,-0.6318,1.8074,-0.1121,-0.1141
2.6951,-0.5811,2.1934,-1.137,0.9882,-0.1186,2.4097,0.0196,0.0712,0.8276,0.5227,-0.8939,-0.6557,1.7962,-0.1219,-0.1207
2.6951,-0.5811,2.1934,-1.137,0.9882,-0.1186,2.4097,0.0196,0.0712,0.8276,0.5227,-0.8939,-0.6557,1.7962,-0.1219,-0.1207
2.7738,-0.6234,2.2046,-1.2057,0.9554,-0.1071,2.3733,0.0229,-0.158,0.816,0.5299,-0.9198,-0.6656,1.7802,-0.1459,-0.1223
2.7738,-0.6234,2.2046,-1.2057,0.9554,-0.1071,2.3733,0.0229,-0.158,0.816,0.5299,-0.9198,-0.6656,1.7802,-0.1459,-0.1223
2.7933,-0.6158,2.2046,-1.2057,0.9226,-0.0955,2.3821,0.0101,-0.0798,0.7883,0.521,-0.9225,-0.6735,1.7765,-0.1717,-0.1212
2.7933,-0.6158,2.2046,-1.2057,0.9226,-0.0955,2.3821,0.0101,-0.0798,0.7883,0.521,-0.9225,-0.6735,1.7765,-0.1717,-0.1212
2.7994,-0.589,2.2046,-1.2057,0.8966,-0.0936,2.391,-0.0027,-0.1223,0.8495,0.4872,-0.9047,-0.6676,1.7679,-0.1881,-0.1234
2.7994,-0.589,2.2046,-1.2057,0.8966,-0.0936,2.391,-0.0027,-0.1223,0.8495,0.4872,-0.9047,-0.6676,1.7679,-0.1881,-0.1234
2.7994,-0.589,2.2046,-1.2057,0.8966,-0.0936,2.391,-0.0027,-0.1223,0.8495,0.4872,-0.9047,-0.6676,1.7679,-0.1881,-0.1234
2.7144,-0.5735,2.2155,-1.2739,0.8484,-0.1128,2.3389,0.0109,-0.1223,0.8495,0.4588,-0.8947,-0.6258,1.7531,-0.2091,-0.124
2.7144,-0.5735,2.2155,-1.2739,0.8484,-0.1128,2.3389,0.0109,-0.1223,0.8495,0.4588,-0.8947,-0.6258,1.7531,-0.2091,-0.124
2.6431,-0.5773,2.3708,-1.3928,0.8262,-0.1339,2.3027,0.0141,-0.2076,0.9726,0.4588,-0.8947,-0.5959,1.7556,-0.2177,-0.127
2.6431,-0.5773,2.3708,-1.3928,0.8262,-0.1339,2.3027,0.0141,-0.2076,0.9726,0.4588,-0.8947,-0.5959,1.7556,-0.2177,-0.127
2.6431,-0.5773,2.3708,-1.3928,0.8262,-0.1339,2.3027,0.0141,-0.2076,0.9726,0.4588,-0.8947,-0.5959,1.7556,-0.2177,-0.127
2.6046,-0.5926,2.2529,-1.2227,0.7717,-0.1435,2.2461,0.0101,0.0348,0.794,0.418,-0.8977,-0.6278,1.7864,-0.2513,-0.1351
2.6046,-0.5926,2.2529,-1.2227,0.7717,-0.1435,2.2461,0.0101,0.0348,0.794,0.418,-0.8977,-0.6278,1.7864,-0.2513,-0.1351
2.6046,-0.5926,2.1934,-1.137,0.7783,-0.1531,2.2481,-0.005,0.0712,0.8276,0.3862,-0.8981,-0.6417,1.7913,-0.2544,-0.146
2.5662,-0.6079,2.1082,-1.1716,0.8305,-0.1931,2.2321,-0.0185,-0.0576,1.0133,0.3545,-0.8985,-0.6278,1.7864,-0.2565,-0.1533
2.5662,-0.6079,2.1082,-1.1716,0.8305,-0.1931,2.2321,-0.0185,-0.0576,1.0133,0.3545,-0.8985,-0.6278,1.7864,-0.2565,-0.1533
2.5662,-0.6079,2.1082,-1.1716,0.8305,-0.1931,2.2321,-0.0185,-0.0576,1.0133,0.3545,-0.8985,-0.6278,1.7864,-0.2565,-0.1533
2.5279,-0.6231,2.0419,-1.1804,0.8113,-0.2007,2.2073,-0.0194,-0.3019,1.1939,0.3087,-0.894,-0.6358,1.7827,-0.2745,-0.1529
2.5279,-0.6231,2.0419,-1.1804,0.8113,-0.2007,2.2073,-0.0194,-0.3019,1.1939,0.3087,-0.894,-0.6358,1.7827,-0.2745,-0.1529
2.5471,-0.6155,2.0898,-1.1974,0.7819,-0.1759,2.1782,-0.0138,-0.596,1.1098,0.2897,-0.9278,-0.6755,1.7642,-0.3124,-0.1495
2.5471,-0.6155,2.0898,-1.1974,0.7819,-0.1759,2.1782,-0.0138,-0.596,1.1098,0.2897,-0.9278,-0.6755,1.7642,-0.3124,-0.1495
2.6383,-0.6765,2.0714,-1.223,0.7268,-0.1493,2.1646,-0.0186,-0.656,0.9459,0.2828,-0.9485,-0.7191,1.7666,-0.3408,-0.1494
2.6383,-0.6765,2.0714,-1.223,0.7268,-0.1493,2.1646,-0.0186,-0.656,0.9459,0.2828,-0.9485,-0.7191,1.7666,-0.3408,-0.1494
2.6575,-0.6689,2.0898,-1.1974,0.6946,-0.1379,2.1981,-0.0305,-0.5719,0.8246,0.2547,-0.9386,-0.727,1.7629,-0.3551,-0.1543
2.6046,-0.5926,2.1082,-1.1716,0.6879,-0.1283,2.2453,-0.0376,-0.4536,0.7373,0.2108,-0.9057,-0.727,1.7629,-0.3655,-0.1546
2.6046,-0.5926,2.1082,-1.1716,0.6879,-0.1283,2.2453,-0.0376,-0.4536,0.7373,0.2108,-0.9057,-0.727,1.7629,-0.3655,-0.1546
2.6046,-0.5926,2.1082,-1.1716,0.6879,-0.1283,2.2453,-0.0376,-0.4536,0.7373,0.2108,-0.9057,-0.727,1.7629,-0.3655,-0.1546
2.5973,-0.5466,2.1267,-1.1458,0.7298,-0.1359,2.2794,-0.0257,-0.4187,0.7705,0.2141,-0.8954,-0.7112,1.7703,-0.3626,-0.1536
2.5973,-0.5466,2.1267,-1.1458,0.7298,-0.1359,2.2794,-0.0257,-0.4187,0.7705,0.2141,-0.8954,-0.7112,1.7703,-0.3626,-0.1536
2.5456,-0.5428,2.2637,-1.2909,0.765,-0.1339,2.2822,0.0069,-0.4187,0.7705,0.2262,-0.8823,-0.6477,1.7544,-0.3426,-0.1468
2.5456,-0.5428,2.2637,-1.2909,0.765,-0.1339,2.2822,0.0069,-0.4187,0.7705,0.2262,-0.8823,-0.6477,1.7544,-0.3426,-0.1468
2.5973,-0.5466,2.3604,-1.3251,0.8455,-0.1262,2.3076,0.0316,-0.3418,0.7433,0.3156,-0.8732,-0.5939,1.7679,-0.2989,-0.1383
2.5973,-0.5466,2.3604,-1.3251,0.8455,-0.1262,2.3076,0.0316,-0.3418,0.7433,0.3156,-0.8732,-0.5939,1.7679,-0.2989,-0.1383
2.6684,-0.5427,2.3389,-1.1884,0.8966,-0.0936,2.36,0.042,0.0466,0.6061,0.4427,-0.8715,-0.5519,1.7987,-0.2453,-0.1233
2.6684,-0.5427,2.3389,-1.1884,0.8966,-0.0936,2.36,0.042,0.0466,0.6061,0.4427,-0.8715,-0.5519,1.7987,-0.2453,-0.1233
2.746,-0.5119,2.3166,-1.0501,0.9875,-0.082,2.4126,0.0524,0.3198,0.5552,0.5422,-0.8598,-0.5399,1.8272,-0.1849,-0.1125
2.8239,-0.4809,2.3728,-0.9712,1.1452,-0.0939,2.4654,0.0628,0.3467,0.7768,0.6424,-0.8483,-0.5017,1.8334,-0.1129,-0.1078
2.8239,-0.4809,2.3728,-0.9712,1.1452,-0.0939,2.4654,0.0628,0.3467,0.7768,0.6424,-0.8483,-0.5017,1.8334,-0.1129,-0.1078
2.8963,-0.4771,2.4598,-0.9357,1.2277,-0.0864,2.5046,0.0684,0.2543,0.9974,0.7018,-0.8398,-0.4514,1.8222,-0.0743,-0.1014
2.8963,-0.4771,2.4598,-0.9357,1.2277,-0.0864,2.5046,0.0684,0.2543,0.9974,0.7018,-0.8398,-0.4514,1.8222,-0.0743,-0.1014
2.9627,-0.5006,2.5093,-0.9532,1.234,-0.0592,2.507,0.0773,-0.0145,0.9511,0.7596,-0.8602,-0.4535,1.8098,-0.0597,-0.0964
2.9627,-0.5006,2.5093,-0.9532,1.234,-0.0592,2.507,0.0773,-0.0145,0.9511,0.7596,-0.8602,-0.4535,1.8098,-0.0597,-0.0964
3.0626,-0.5359,2.5588,-0.9707,1.2303,-0.0358,2.5552,0.07,-0.0505,0.9171,0.7922,-0.86,-0.4535,1.8098,-0.0575,-0.0891
3.0626,-0.5359,2.5588,-0.9707,1.2303,-0.0358,2.5552,0.07,-0.0505,0.9171,0.7922,-0.86,-0.4535,1.8098,-0.0575,-0.0891
3.0554,-0.4892,2.578,-0.9442,1.247,-0.0417,2.5965,0.0603,-0.0864,0.8833,0.7995,-0.8389,-0.4394,1.8048,-0.0528,-0.0908
3.0554,-0.4892,2.578,-0.9442,1.247,-0.0417,2.5965,0.0603,-0.0864,0.8833,0.7995,-0.8389,-0.4394,1.8048,-0.0528,-0.0908
3.0554,-0.4892,2.578,-0.9442,1.247,-0.0417,2.5965,0.0603,-0.0864,0.8833,0.7995,-0.8389,-0.4394,1.8048,-0.0528,-0.0908
2.9751,-0.4461,2.5397,-0.9971,1.2272,-0.0495,2.5921,0.0667,-0.0438,0.8218,0.7796,-0.8259,-0.4112,1.7948,-0.0461,-0.0952
2.9751,-0.4461,2.5397,-0.9971,1.2272,-0.0495,2.5921,0.0667,-0.0438,0.8218,0.7796,-0.8259,-0.4112,1.7948,-0.0461,-0.0952
2.9751,-0.4461,2.5397,-0.9971,1.2272,-0.0495,2.5921,0.0667,-0.0438,0.8218,0.7796,-0.8259,-0.4112,1.7948,-0.0461,-0.0952
2.8435,-0.4732,2.5127,-1.1194,1.1778,-0.0688,2.5463,0.0829,-0.0438,0.8218,0.7506,-0.8157,-0.3465,1.7786,-0.0538,-0.0945
2.8435,-0.4732,2.5127,-1.1194,1.1778,-0.0688,2.5463,0.0829,-0.0438,0.8218,0.7506,-0.8157,-0.3465,1.7786,-0.0538,-0.0945
2.6551,-0.5235,2.6724,-1.4032,1.0924,-0.0899,2.4614,0.0934,-0.0014,0.7606,0.7289,-0.8317,-0.3037,1.8094,-0.0663,-0.0921
2.6551,-0.5235,2.6724,-1.4032,1.0924,-0.0899,2.4614,0.0934,-0.0014,0.7606,0.7289,-0.8317,-0.3037,1.8094,-0.0663,-0.0921
2.6551,-0.5235,2.6724,-1.4032,1.0924,-0.0899,2.4614,0.0934,-0.0014,0.7606,0.7289,-0.8317,-0.3037,1.8094,-0.0663,-0.0921
2.7011,-0.5543,2.5833,-1.2748,1.0759,-0.084,2.4614,0.0934,0.2724,0.7101,0.7343,-0.8395,-0.3116,1.8518,-0.0711,-0.0904
2.7533,-0.5582,2.4936,-1.1454,1.1022,-0.086,2.4842,0.0853,0.631,0.6298,0.7397,-0.8473,-0.3359,1.8869,-0.0597,-0.0964
2.7533,-0.5582,2.4936,-1.1454,1.1022,-0.086,2.4842,0.0853,0.631,0.6298,0.7397,-0.8473,-0.3359,1.8869,-0.0597,-0.0964
2.7533,-0.5582,2.4936,-1.1454,1.1022,-0.086,2.4842,0.0853,0.631,0.6298,0.7397,-0.8473,-0.3359,1.8869,-0.0597,-0.0964
2.7727,-0.5505,2.4635,-1.102,1.1452,-0.0939,2.4936,0.0966,0.6213,0.8205,0.7253,-0.8422,-0.3338,1.8994,-0.0453,-0.1015
2.7727,-0.5505,2.4635,-1.102,1.1452,-0.0939,2.4936,0.0966,0.6213,0.8205,0.7253,-0.8422,-0.3338,1.8994,-0.0453,-0.1015
2.7922,-0.5428,2.3843,-1.0412,1.1716,-0.0959,2.5006,0.099,0.4156,0.9404,0.7162,-0.8449,-0.3359,1.8869,-0.0443,-0.0978
2.7922,-0.5428,2.3843,-1.0412,1.1716,-0.0959,2.5006,0.099,0.4156,0.9404,0.7162,-0.8449,-0.3359,1.8869,-0.0443,-0.0978
2.9241,-0.5894,2.4144,-1.0847,1.1679,-0.0726,2.5189,0.0974,0.1807,0.929,0.7325,-0.8683,-0.34,1.8619,-0.0557,-0.0918
2.9241,-0.5894,2.4144,-1.0847,1.1679,-0.0726,2.5189,0.0974,0.1807,0.929,0.7325,-0.8683,-0.34,1.8619,-0.0557,-0.0918
3.0766,-0.6287,2.4144,-1.0847,1.141,-0.0337,2.5259,0.0998,0.187,0.8332,0.7668,-0.8863,-0.334,1.8531,-0.0671,-0.0857
3.0766,-0.6287,2.4144,-1.0847,1.141,-0.0337,2.5259,0.0998,0.187,0.8332,0.7668,-0.8863,-0.334,1.8531,-0.0671,-0.0857
3.1767,-0.6641,2.4144,-1.0847,1.1078,-0.022,2.5532,0.0853,0.187,0.8332,0.7542,-0.8524,-0.3116,1.8518,-0.0708,-0.0804
3.1767,-0.6641,2.4144,-1.0847,1.1078,-0.022,2.5532,0.0853,0.187,0.8332,0.7542,-0.8524,-0.3116,1.8518,-0.0708,-0.0804
3.1364,-0.606,2.4144,-1.0847,1.0913,-0.0161,2.5991,0.0691,0.1441,0.8951,0.7216,-0.8055,-0.2892,1.8505,-0.0708,-0.0804
3.1364,-0.606,2.4144,-1.0847,1.0913,-0.0161,2.5991,0.0691,0.1441,0.8951,0.7216,-0.8055,-0.2892,1.8505,-0.0708,-0.0804
3.0491,-0.5164,2.4144,-1.0847,1.0717,-0.0239,2.6265,0.0545,0.1375,0.9914,0.7053,-0.7819,-0.2871,1.863,-0.0708,-0.0804
2.9159,-0.4694,2.4554,-1.1971,1.0558,-0.055,2.5965,0.0603,0.174,1.0258,0.6944,-0.7662,-0.2136,1.8503,-0.0708,-0.0804
2.9159,-0.4694,2.4554,-1.1971,1.0558,-0.055,2.5965,0.0603,0.174,1.0258,0.6944,-0.7662,-0.2136,1.8503,-0.0708,-0.0804
2.9159,-0.4694,2.4554,-1.1971,1.0558,-0.055,2.5965,0.0603,0.174,1.0258,0.6944,-0.7662,-0.2136,1.8503,-0.0708,-0.0804
2.7715,-0.477,2.5254,-1.3513,1.0204,-0.0936,2.5254,0.0757,0.2475,1.0949,0.6999,-0.7741,-0.1315,1.8412,-0.0689,-0.0831
2.7715,-0.477,2.5254,-1.3513,1.0204,-0.0936,2.5254,0.0757,0.2475,1.0949,0.6999,-0.7741,-0.1315,1.8412,-0.0689,-0.0831
2.6997,-0.4809,2.6038,-1.4111,0.9912,-0.1052,2.4842,0.0853,0.167,1.1233,0.7017,-0.7925,-0.1211,1.8575,-0.0729,-0.0877
2.6744,-0.5158,2.515,-1.283,0.9882,-0.1186,2.4476,0.0886,0.372,1.0033,0.6837,-0.798,-0.1394,1.8839,-0.0817,-0.0907
2.6744,-0.5158,2.515,-1.283,0.9882,-0.1186,2.4476,0.0886,0.372,1.0033,0.6837,-0.798,-0.1394,1.8839,-0.0817,-0.0907
2.6744,-0.5158,2.515,-1.283,0.9882,-0.1186,2.4476,0.0886,0.372,1.0033,0.6837,-0.798,-0.1394,1.8839,-0.0817,-0.0907
2.6744,-0.5158,2.515,-1.283,0.9882,-0.1186,2.4476,0.0886,0.372,1.0033,0.6837,-0.798,-0.1394,1.8839,-0.0817,-0.0907
2.6551,-0.5235,2.4554,-1.1971,1.0046,-0.1244,2.4382,0.0773,0.5343,0.9459,0.6567,-0.8062,-0.1661,1.9066,-0.0761,-0.0987
2.6551,-0.5235,2.4554,-1.1971,1.0046,-0.1244,2.4382,0.0773,0.5343,0.9459,0.6567,-0.8062,-0.1661,1.9066,-0.0761,-0.0987
2.6491,-0.5504,2.3278,-1.1195,1.0605,-0.1515,2.4106,0.0677,0.123,1.1867,0.5939,-0.8253,-0.1682,1.8941,-0.0984,-0.1029
2.6491,-0.5504,2.3278,-1.1195,1.0605,-0.1515,2.4106,0.0677,0.123,1.1867,0.5939,-0.8253,-0.1682,1.8941,-0.0984,-0.1029
2.7605,-0.6043,2.2791,-1.1023,1.0307,-0.1264,2.3968,0.0629,-0.0292,1.145,0.5976,-0.8618,-0.199,1.8916,-0.128,-0.0965
2.7605,-0.6043,2.2791,-1.1023,1.0307,-0.1264,2.3968,0.0629,-0.0292,1.145,0.5976,-0.8618,-0.199,1.8916,-0.128,-0.0965
2.7605,-0.6043,2.2791,-1.1023,1.0307,-0.1264,2.3968,0.0629,-0.0292,1.145,0.5976,-0.8618,-0.199,1.8916,-0.128,-0.0965
2.7605,-0.6043,2.2791,-1.1023,1.0307,-0.1264,2.3968,0.0629,-0.0292,1.145,0.5976,-0.8618,-0.199,1.8916,-0.128,-0.0965
2.8261,-0.6274,2.2605,-1.1282,0.9979,-0.1148,2.4171,0.046,-0.2152,1.0689,0.5762,-0.8777,-0.2298,1.8892,-0.152,-0.098
2.8261,-0.6274,2.2605,-1.1282,0.9979,-0.1148,2.4171,0.046,-0.2152,1.0689,0.5762,-0.8777,-0.2298,1.8892,-0.152,-0.098
2.8261,-0.6274,2.2605,-1.1282,0.9979,-0.1148,2.4171,0.046,-0.2152,1.0689,0.5762,-0.8777,-0.2298,1.8892,-0.152,-0.098
2.7399,-0.5389,2.2903,-1.1712,0.913,-0.0993,2.4126,0.0524,-0.0864,0.8833,0.519,-0.8575,-0.2237,1.8804,-0.1836,-0.0989
2.7399,-0.5389,2.2903,-1.1712,0.913,-0.0993,2.4126,0.0524,-0.0864,0.8833,0.519,-0.8575,-0.2237,1.8804,-0.1836,-0.0989
2.6491,-0.5504,2.4089,-1.3422,0.8551,-0.1224,2.3604,0.066,-0.0505,0.9171,0.4905,-0.8474,-0.1725,1.869,-0.196,-0.0966
2.6491,-0.5504,2.4089,-1.3422,0.8551,-0.1224,2.3604,0.066,-0.0505,0.9171,0.4905,-0.8474,-0.1725,1.869,-0.196,-0.0966
2.6106,-0.5658,2.4869,-1.4019,0.8166,-0.1377,2.3309,0.0716,-0.0505,0.9171,0.4585,-0.8478,-0.1703,1.8815,-0.2112,-0.0952
2.6106,-0.5658,2.4869,-1.4019,0.8166,-0.1377,2.3309,0.0716,-0.0505,0.9171,0.4585,-0.8478,-0.1703,1.8815,-0.2112,-0.0952
2.6106,-0.5658,2.4869,-1.4019,0.8166,-0.1377,2.3309,0.0716,-0.0505,0.9171,0.4585,-0.8478,-0.1703,1.8815,-0.2112,-0.0952
2.6106,-0.5658,2.447,-1.2913,0.7908,-0.1358,2.3083,0.0796,0.2667,0.805,0.4373,-0.8637,-0.1969,1.9042,-0.2256,-0.1001
2.6106,-0.5658,2.447,-1.2913,0.7908,-0.1358,2.3083,0.0796,0.2667,0.805,0.4373,-0.8637,-0.1969,1.9042,-0.2256,-0.1001
2.5706,-0.5082,2.4445,-1.128,0.8883,-0.1703,2.3172,0.0668,0.4093,1.0377,0.4055,-0.8642,-0.2521,1.937,-0.2317,-0.112
2.5706,-0.5082,2.4445,-1.128,0.8883,-0.1703,2.3172,0.0668,0.4093,1.0377,0.4055,-0.8642,-0.2521,1.937,-0.2317,-0.112
2.5706,-0.5082,2.4445,-1.128,0.8883,-0.1703,2.3172,0.0668,0.4093,1.0377,0.4055,-0.8642,-0.2521,1.937,-0.2317,-0.112
2.5381,-0.4967,2.4144,-1.0847,0.8913,-0.1569,2.3148,0.058,0.174,1.0258,0.3702,-0.875,-0.2788,1.9132,-0.2555,-0.1136
2.5381,-0.4967,2.4144,-1.0847,0.8913,-0.1569,2.3148,0.058,0.174,1.0258,0.3702,-0.875,-0.2788,1.9132,-0.2555,-0.1136
2.5973,-0.5466,2.3353,-1.0239,0.8684,-0.1416,2.3011,0.0532,-0.0145,0.9511,0.3491,-0.8909,-0.3054,1.8894,-0.2859,-0.1109
2.5973,-0.5466,2.3353,-1.0239,0.8684,-0.1416,2.3011,0.0532,-0.0145,0.9511,0.3491,-0.8909,-0.3054,1.8894,-0.2859,-0.1109
2.6298,-0.5581,2.2864,-1.0066,0.8358,-0.1301,2.3281,0.0388,-0.0864,0.8833,0.3209,-0.8809,-0.3217,1.8819,-0.3096,-0.1125
2.6298,-0.5581,2.2864,-1.0066,0.8358,-0.1301,2.3281,0.0388,-0.0864,0.8833,0.3209,-0.8809,-0.3217,1.8819,-0.3096,-0.1125
2.5706,-0.5082,2.1889,-0.9722,0.8262,-0.1339,2.3325,0.0324,-0.1223,0.8495,0.3015,-0.8682,-0.3298,1.8781,-0.3258,-0.1148
2.5706,-0.5082,2.1889,-0.9722,0.8262,-0.1339,2.3325,0.0324,-0.1223,0.8495,0.3015,-0.8682,-0.3298,1.8781,-0.3258,-0.1148
2.4675,-0.5007,2.1821,-1.068,0.7717,-0.1435,2.2943,0.0508,-0.158,0.816,0.2645,-0.861,-0.281,1.8543,-0.3383,-0.1224
2.3404,-0.5281,2.2825,-1.2654,0.6946,-0.1379,2.24,0.0555,-0.2713,0.81,0.2277,-0.8537,-0.2525,1.8442,-0.3544,-0.1247
2.3404,-0.5281,2.2825,-1.2654,0.6946,-0.1379,2.24,0.0555,-0.2713,0.81,0.2277,-0.8537,-0.2525,1.8442,-0.3544,-0.1247
2.3027,-0.5435,2.3309,-1.2825,0.6528,-0.1303,2.2108,0.061,-0.1515,0.7218,0.2015,-0.8619,-0.2647,1.8617,-0.3705,-0.127
2.3027,-0.5435,2.3309,-1.2825,0.6528,-0.1303,2.2108,0.061,-0.1515,0.7218,0.2015,-0.8619,-0.2647,1.8617,-0.3705,-0.127
2.3027,-0.5435,2.3309,-1.2825,0.6528,-0.1303,2.2108,0.061,-0.1515,0.7218,0.2015,-0.8619,-0.2647,1.8617,-0.3705,-0.127
2.3103,-0.5892,2.2529,-1.2227,0.6178,-0.1323,2.186,0.0601,0.125,0.5784,0.1948,-0.8827,-0.3033,1.9019,-0.382,-0.1309
2.3103,-0.5892,2.2529,-1.2227,0.6178,-0.1323,2.186,0.0601,0.125,0.5784,0.1948,-0.8827,-0.3033,1.9019,-0.382,-0.1309
2.3103,-0.5892,2.2529,-1.2227,0.6178,-0.1323,2.186,0.0601,0.125,0.5784,0.1948,-0.8827,-0.3033,1.9019,-0.382,-0.1309
2.3554,-0.6195,2.1037,-1.0076,0.5923,-0.1305,2.1948,0.0474,0.5589,0.4708,0.1861,-0.8855,-0.3216,1.9283,-0.3877,-0.1329
2.3554,-0.6195,2.1037,-1.0076,0.5923,-0.1305,2.1948,0.0474,0.5589,0.4708,0.1861,-0.8855,-0.3216,1.9283,-0.3877,-0.1329
2.3554,-0.6195,2.1037,-1.0076,0.5923,-0.1305,2.1948,0.0474,0.5589,0.4708,0.1861,-0.8855,-0.3216,1.9283,-0.3877,-0.1329
2.3554,-0.6195,2.1037,-1.0076,0.5923,-0.1305,2.1948,0.0474,0.5589,0.4708,0.1861,-0.8855,-0.3216,1.9283,-0.3877,-0.1329
2.3234,-0.6082,1.8988,-0.8697,0.596,-0.1533,2.1633,0.0441,0.54,0.8492,0.1495,-0.8783,-0.3501,1.9384,-0.3803,-0.1434
2.3234,-0.6082,1.8988,-0.8697,0.596,-0.1533,2.1633,0.0441,0.54,0.8492,0.1495,-0.8783,-0.3501,1.9384,-0.3803,-0.1434
2.3046,-0.6158,1.923,-1.009,0.5611,-0.1554,2.1027,0.0463,-0.073,1.2081,0.1062,-0.8919,-0.3785,1.902,-0.4226,-0.1384
2.3046,-0.6158,1.923,-1.009,0.5611,-0.1554,2.1027,0.0463,-0.073,1.2081,0.1062,-0.8919,-0.3785,1.902,-0.4226,-0.1384
2.3046,-0.6158,1.923,-1.009,0.5611,-0.1554,2.1027,0.0463,-0.073,1.2081,0.1062,-0.8919,-0.3785,1.902,-0.4226,-0.1384
2.3497,-0.6461,1.9529,-1.052,0.5132,-0.1384,2.0825,0.0391,-0.1798,1.1035,0.1048,-0.9203,-0.4029,1.8907,-0.4602,-0.1351
2.3497,-0.6461,1.9529,-1.052,0.5132,-0.1384,2.0825,0.0391,-0.1798,1.1035,0.1048,-0.9203,-0.4029,1.8907,-0.4602,-0.1351
2.3554,-0.6195,1.9529,-1.052,0.4879,-0.1366,2.0913,0.0264,-0.1798,1.1035,0.0803,-0.9001,-0.411,1.887,-0.4808,-0.1357
2.2839,-0.5513,1.9529,-1.052,0.4532,-0.1387,2.0934,0.0113,-0.2232,1.1661,0.0419,-0.875,-0.411,1.887,-0.495,-0.1407
2.2839,-0.5513,1.9529,-1.052,0.4532,-0.1387,2.0934,0.0113,-0.2232,1.1661,0.0419,-0.875,-0.411,1.887,-0.495,-0.1407
2.2839,-0.5513,1.9529,-1.052,0.4532,-0.1387,2.0934,0.0113,-0.2232,1.1661,0.0419,-0.875,-0.411,1.887,-0.495,-0.1407
2.2069,-0.5097,1.905,-1.0351,0.4411,-0.1558,2.0755,0.0129,-0.2316,1.2641,0.0141,-0.8651,-0.3461,1.8706,-0.5063,-0.1446
2.2069,-0.5097,1.905,-1.0351,0.4411,-0.1558,2.0755,0.0129,-0.2316,1.2641,0.0141,-0.8651,-0.3461,1.8706,-0.5063,-0.1446
2.1192,-0.5217,1.9759,-1.1892,0.4103,-0.1806,2.0355,0.0222,-0.1963,1.2995,0.0002,-0.8602,-0.2525,1.8442,-0.5148,-0.1476
2.1192,-0.5217,1.9759,-1.1892,0.4103,-0.1806,2.0355,0.0222,-0.1963,1.2995,0.0002,-0.8602,-0.2525,1.8442,-0.5148,-0.1476
2.1192,-0.5217,1.9759,-1.1892,0.4103,-0.1806,2.0355,0.0222,-0.1963,1.2995,0.0002,-0.8602,-0.2525,1.8442,-0.5148,-0.1476
2.1192,-0.5217,1.9759,-1.1892,0.4103,-0.1806,2.0355,0.0222,-0.1963,1.2995,0.0002,-0.8602,-0.2525,1.8442,-0.5148,-0.1476
2.1137,-0.5484,2.1194,-1.2399,0.4663,-0.1576,2.0424,0.0485,-0.1443,1.1382,0.0419,-0.875,-0.2258,1.8679,-0.5184,-0.1423
2.1137,-0.5484,2.1194,-1.2399,0.4663,-0.1576,2.0424,0.0485,-0.1443,1.1382,0.0419,-0.875,-0.2258,1.8679,-0.5184,-0.1423
2.1958,-0.5631,2.1082,-1.1716,0.548,-0.1364,2.0939,0.059,0.1375,0.9914,0.1162,-0.8608,-0.2277,1.9018,-0.4883,-0.1351
2.1958,-0.5631,2.1082,-1.1716,0.548,-0.1364,2.0939,0.059,0.1375,0.9914,0.1162,-0.8608,-0.2277,1.9018,-0.4883,-0.1351
2.2971,-0.5703,2.1267,-1.1458,0.6879,-0.1283,2.1636,0.068,0.2175,0.9631,0.2083,-0.8411,-0.2235,1.9269,-0.4178,-0.1302
2.2971,-0.5703,2.1267,-1.1458,0.6879,-0.1283,2.1636,0.068,0.2175,0.9631,0.2083,-0.8411,-0.2235,1.9269,-0.4178,-0.1302
2.2971,-0.5703,2.1267,-1.1458,0.6879,-0.1283,2.1636,0.068,0.2175,0.9631,0.2083,-0.8411,-0.2235,1.9269,-0.4178,-0.1302
2.3801,-0.5852,2.1451,-1.12,0.8129,-0.1148,2.2111,0.085,0.174,1.0258,0.301,-0.8214,-0.1783,1.9243,-0.3618,-0.1141
2.3801,-0.5852,2.1451,-1.12,0.8129,-0.1148,2.2111,0.085,0.174,1.0258,0.301,-0.8214,-0.1783,1.9243,-0.3618,-0.1141
2.3801,-0.5852,2.1451,-1.12,0.8129,-0.1148,2.2111,0.085,0.174,1.0258,0.301,-0.8214,-0.1783,1.9243,-0.3618,-0.1141
2.6829,-0.6347,2.3091,-1.1454,0.9085,-0.0395,2.3087,0.1037,-0.0864,0.8833,0.5029,-0.8342,-0.1762,1.9369,-0.2786,-0.0854
2.6829,-0.6347,2.3091,-1.1454,0.9085,-0.0395,2.3087,0.1037,-0.0864,0.8833,0.5029,-0.8342,-0.1762,1.9369,-0.2786,-0.0854
2.8004,-0.6617,2.2978,-1.0762,0.9376,-0.0278,2.3701,0.1014,-0.0078,0.8555,0.5617,-0.8256,-0.1515,1.9482,-0.2404,-0.0789
2.8128,-0.6082,2.3654,-1.0674,0.954,-0.0336,2.4362,0.0926,0.1504,0.7996,0.5669,-0.7862,-0.1349,1.9558,-0.206,-0.077
2.8128,-0.6082,2.3654,-1.0674,0.954,-0.0336,2.4362,0.0926,0.1504,0.7996,0.5669,-0.7862,-0.1349,1.9558,-0.206,-0.077
2.8128,-0.6082,2.3654,-1.0674,0.954,-0.0336,2.4362,0.0926,0.1504,0.7996,0.5669,-0.7862,-0.1349,1.9558,-0.206,-0.077
2.8128,-0.6082,2.3654,-1.0674,0.954,-0.0336,2.4362,0.0926,0.1504,0.7996,0.5669,-0.7862,-0.1349,1.9558,-0.206,-0.077
2.746,-0.5119,2.305,-0.9803,0.9443,-0.0375,2.4728,0.0894,0.187,0.8332,0.565,-0.7678,-0.1184,1.9633,-0.1849,-0.0763
2.746,-0.5119,2.305,-0.9803,0.9443,-0.0375,2.4728,0.0894,0.187,0.8332,0.565,-0.7678,-0.1184,1.9633,-0.1849,-0.0763
2.6594,-0.4228,2.354,-0.9976,0.9577,-0.0569,2.4664,0.1111,0.1441,0.8951,0.565,-0.7678,-0.0667,1.9518,-0.1744,-0.076
2.5689,-0.4347,2.3654,-1.0674,0.942,-0.0878,2.4301,0.1385,0.174,1.0258,0.5704,-0.7757,0.0225,1.9337,-0.1752,-0.0697
2.5114,-0.4582,2.5236,-1.1886,0.91,-0.1128,2.3915,0.1571,0.1305,1.0886,0.5525,-0.7812,0.0577,1.9145,-0.1847,-0.0664
2.5114,-0.4582,2.5236,-1.1886,0.91,-0.1128,2.3915,0.1571,0.1305,1.0886,0.5525,-0.7812,0.0577,1.9145,-0.1847,-0.0664
2.5114,-0.4582,2.5236,-1.1886,0.91,-0.1128,2.3915,0.1571,0.1305,1.0886,0.5525,-0.7812,0.0577,1.9145,-0.1847,-0.0664
2.519,-0.5044,2.6027,-1.2491,0.8973,-0.1301,2.3757,0.1675,0.174,1.0258,0.5544,-0.7995,0.0454,1.9323,-0.1952,-0.0667
2.519,-0.5044,2.6027,-1.2491,0.8973,-0.1301,2.3757,0.1675,0.174,1.0258,0.5544,-0.7995,0.0454,1.9323,-0.1952,-0.0667
2.5323,-0.5236,2.4635,-1.102,0.8617,-0.132,2.3643,0.1716,0.4156,0.9404,0.542,-0.8128,-0.0023,1.9693,-0.2058,-0.067
2.5323,-0.5236,2.4635,-1.102,0.8617,-0.132,2.3643,0.1716,0.4156,0.9404,0.542,-0.8128,-0.0023,1.9693,-0.2058,-0.067
2.5706,-0.5082,2.3611,-0.9008,0.8551,-0.1224,2.3939,0.166,0.7029,0.7916,0.5242,-0.8183,-0.023,1.9834,-0.2115,-0.069
2.5706,-0.5082,2.3611,-0.9008,0.8551,-0.1224,2.3939,0.166,0.7029,0.7916,0.5242,-0.8183,-0.023,1.9834,-0.2115,-0.069
2.5706,-0.5082,2.3611,-0.9008,0.8551,-0.1224,2.3939,0.166,0.7029,0.7916,0.5242,-0.8183,-0.023,1.9834,-0.2115,-0.069
2.5573,-0.4889,2.3492,-0.83,0.907,-0.1262,2.4077,0.1709,0.6978,0.8882,0.5099,-0.8132,-0.0458,1.9847,-0.2049,-0.0733
2.5573,-0.4889,2.3492,-0.83,0.907,-0.1262,2.4077,0.1709,0.6978,0.8882,0.5099,-0.8132,-0.0458,1.9847,-0.2049,-0.0733
2.5573,-0.4889,2.3492,-0.83,0.907,-0.1262,2.4077,0.1709,0.6978,0.8882,0.5099,-0.8132,-0.0458,1.9847,-0.2049,-0.0733
2.5248,-0.4774,2.3986,-0.8474,0.9493,-0.134,2.4215,0.1758,0.566,1.0781,0.4813,-0.8031,-0.0458,1.9847,-0.2031,-0.076
2.4999,-0.5122,2.2628,-0.8661,0.8996,-0.0801,2.4284,0.1782,0.0216,0.9853,0.5101,-0.8602,-0.0772,1.9354,-0.2344,-0.0669
2.4999,-0.5122,2.2628,-0.8661,0.8996,-0.0801,2.4284,0.1782,0.0216,0.9853,0.5101,-0.8602,-0.0772,1.9354,-0.2344,-0.0669
2.5913,-0.5734,2.2138,-0.8488,0.8929,-0.0704,2.4468,0.1766,-0.1721,1.0068,0.5244,-0.8653,-0.0772,1.9354,-0.2391,-0.0652
2.5913,-0.5734,2.2138,-0.8488,0.8929,-0.0704,2.4468,0.1766,-0.1721,1.0068,0.5244,-0.8653,-0.0772,1.9354,-0.2391,-0.0652
2.5913,-0.5734,2.2138,-0.8488,0.8929,-0.0704,2.4468,0.1766,-0.1721,1.0068,0.5244,-0.8653,-0.0772,1.9354,-0.2391,-0.0652
2.5648,-0.5351,2.165,-0.8315,0.8929,-0.0704,2.4696,0.1685,-0.0505,0.9171,0.5118,-0.8315,-0.075,1.948,-0.2363,-0.0642
2.5648,-0.5351,2.165,-0.8315,0.8929,-0.0704,2.4696,0.1685,-0.0505,0.9171,0.5118,-0.8315,-0.075,1.948,-0.2363,-0.0642
2.5248,-0.4774,2.1467,-0.8582,0.9093,-0.0762,2.4835,0.1734,0.0284,0.8892,0.4956,-0.8082,-0.0522,1.9467,-0.2268,-0.0676
2.5248,-0.4774,2.1467,-0.8582,0.9093,-0.0762,2.4835,0.1734,0.0284,0.8892,0.4956,-0.8082,-0.0522,1.9467,-0.2268,-0.0676
2.4351,-0.4893,2.122,-0.9813,0.887,-0.0974,2.4378,0.1896,0.0284,0.8892,0.4582,-0.8008,0.0203,1.9211,-0.2278,-0.0712
2.4351,-0.4893,2.122,-0.9813,0.887,-0.0974,2.4378,0.1896,0.0284,0.8892,0.4582,-0.8008,0.0203,1.9211,-0.2278,-0.0712
2.2951,-0.4977,2.2232,-1.1799,0.8418,-0.1032,2.3784,0.2008,0.0284,0.8892,0.412,-0.7962,0.0784,1.9005,-0.2307,-0.0722
2.2951,-0.4977,2.2232,-1.1799,0.8418,-0.1032,2.3784,0.2008,0.0284,0.8892,0.412,-0.7962,0.0784,1.9005,-0.2307,-0.0722
2.252,-0.54,2.2637,-1.2909,0.7967,-0.109,2.3395,0.195,0.0647,0.9231,0.4085,-0.8067,0.0829,1.9258,-0.2402,-0.0689
2.3103,-0.5892,2.1749,-1.1629,0.7643,-0.0975,2.3416,0.1796,0.4215,0.844,0.4051,-0.8172,0.0582,1.9615,-0.2459,-0.0709
2.3103,-0.5892,2.1749,-1.1629,0.7643,-0.0975,2.3416,0.1796,0.4215,0.844,0.4051,-0.8172,0.0582,1.9615,-0.2459,-0.0709
2.3686,-0.6384,2.0854,-1.0338,0.7547,-0.1014,2.3481,0.1578,0.9102,0.6713,0.3962,-0.82,0.025,1.9934,-0.2499,-0.0755
2.3686,-0.6384,2.0854,-1.0338,0.7547,-0.1014,2.3481,0.1578,0.9102,0.6713,0.3962,-0.82,0.025,1.9934,-0.2499,-0.0755
2.3686,-0.6384,2.0854,-1.0338,0.7547,-0.1014,2.3481,0.1578,0.9102,0.6713,0.3962,-0.82,0.025,1.9934,-0.2499,-0.0755
2.3875,-0.6308,2.0253,-0.9472,0.7709,-0.1071,2.3413,0.1553,1.028,0.7715,0.3962,-0.82,0.0042,2.0075,-0.2367,-0.0842
2.3875,-0.6308,2.0253,-0.9472,0.7709,-0.1071,2.3413,0.1553,1.028,0.7715,0.3962,-0.82,0.0042,2.0075,-0.2367,-0.0842
2.3875,-0.6308,2.0253,-0.9472,0.7709,-0.1071,2.3413,0.1553,1.028,0.7715,0.3962,-0.82,0.0042,2.0075,-0.2367,-0.0842
2.3554,-0.6195,1.9771,-0.9301,0.81,-0.1282,2.3117,0.1609,0.8075,1.0894,0.3679,-0.81,-0.0103,2.0126,-0.2378,-0.0878
2.3875,-0.6308,2.0072,-0.9735,0.8034,-0.1186,2.2867,0.16,0.5218,1.142,0.3468,-0.8259,-0.0291,1.9923,-0.2577,-0.0848
2.3875,-0.6308,2.0072,-0.9735,0.8034,-0.1186,2.2867,0.16,0.5218,1.142,0.3468,-0.8259,-0.0291,1.9923,-0.2577,-0.0848
2.4648,-0.6725,2.019,-1.0429,0.7643,-0.0975,2.2549,0.1566,0.4093,1.0377,0.3541,-0.8519,-0.0335,1.9669,-0.2852,-0.0811
2.4648,-0.6725,2.019,-1.0429,0.7643,-0.0975,2.2549,0.1566,0.4093,1.0377,0.3541,-0.8519,-0.0335,1.9669,-0.2852,-0.0811
2.4648,-0.6725,2.019,-1.0429,0.7643,-0.0975,2.2549,0.1566,0.4093,1.0377,0.3541,-0.8519,-0.0335,1.9669,-0.2852,-0.0811
2.5292,-0.6952,2.0008,-1.069,0.7223,-0.09,2.2389,0.1429,0.453,0.9746,0.3453,-0.8546,-0.0418,1.9631,-0.308,-0.0791
2.5292,-0.6952,2.0008,-1.069,0.7223,-0.09,2.2389,0.1429,0.453,0.9746,0.3453,-0.8546,-0.0418,1.9631,-0.308,-0.0791
2.348,-0.5739,1.9941,-1.1635,0.6264,-0.0922,2.2161,0.1267,0.3653,1.1011,0.2533,-0.7987,-0.0251,1.9707,-0.344,-0.0784
2.348,-0.5739,1.9941,-1.1635,0.6264,-0.0922,2.2161,0.1267,0.3653,1.1011,0.2533,-0.7987,-0.0251,1.9707,-0.344,-0.0784
2.348,-0.5739,1.9941,-1.1635,0.6264,-0.0922,2.2161,0.1267,0.3653,1.1011,0.2533,-0.7987,-0.0251,1.9707,-0.344,-0.0784
2.2464,-0.5667,2.053,-1.2486,0.6017,-0.1267,2.18,0.1298,0.4026,1.1359,0.2392,-0.7937,0.0268,1.9591,-0.3497,-0.0804
2.2464,-0.5667,2.053,-1.2486,0.6017,-0.1267,2.18,0.1298,0.4026,1.1359,0.2392,-0.7937,0.0268,1.9591,-0.3497,-0.0804
2.1269,-0.5673,2.1595,-1.3501,0.564,-0.142,2.1305,0.1279,0.2843,1.1297,0.2271,-0.807,0.056,1.9488,-0.3611,-0.0843
2.0898,-0.5827,2.1009,-1.2655,0.5452,-0.1497,2.0946,0.131,0.3653,1.1011,0.2043,-0.8048,0.0312,1.9845,-0.3744,-0.0856
2.0898,-0.5827,2.1009,-1.2655,0.5452,-0.1497,2.0946,0.131,0.3653,1.1011,0.2043,-0.8048,0.0312,1.9845,-0.3744,-0.0856
2.0898,-0.5827,2.1009,-1.2655,0.5452,-0.1497,2.0946,0.131,0.3653,1.1011,0.2043,-0.8048,0.0312,1.9845,-0.3744,-0.0856
2.1028,-0.6016,2.0123,-1.1377,0.5677,-0.1648,2.0788,0.1173,0.5282,1.0435,0.1729,-0.8053,0.0188,2.0024,-0.3736,-0.0919
2.1028,-0.6016,2.0123,-1.1377,0.5677,-0.1648,2.0788,0.1173,0.5282,1.0435,0.1729,-0.8053,0.0188,2.0024,-0.3736,-0.0919
2.0973,-0.6281,1.9167,-1.104,0.6129,-0.1951,2.0519,0.1075,0.3955,1.235,0.1415,-0.8058,0.025,1.9934,-0.3775,-0.0966
2.0973,-0.6281,1.9167,-1.104,0.6129,-0.1951,2.0519,0.1075,0.3955,1.235,0.1415,-0.8058,0.025,1.9934,-0.3775,-0.0966
2.0603,-0.6433,1.8037,-1.0963,0.6034,-0.1989,2.025,0.0978,0.2326,1.2925,0.0929,-0.8119,0.0083,1.9858,-0.3925,-0.0952
2.0603,-0.6433,1.8037,-1.0963,0.6034,-0.1989,2.025,0.0978,0.2326,1.2925,0.0929,-0.8119,0.0083,1.9858,-0.3925,-0.0952
2.1048,-0.6732,1.8153,-1.1646,0.5517,-0.1592,1.9938,0.0944,-0.0292,1.145,0.071,-0.8564,-0.0563,1.9682,-0.4273,-0.0909
2.1048,-0.6732,1.8153,-1.1646,0.5517,-0.1592,1.9938,0.0944,-0.0292,1.145,0.071,-0.8564,-0.0563,1.9682,-0.4273,-0.0909
2.1996,-0.7067,1.7859,-1.1221,0.5132,-0.1384,2.0026,0.0817,-0.1721,1.0068,0.0505,-0.8722,-0.0957,1.962,-0.4574,-0.0883
2.1996,-0.7067,1.7859,-1.1221,0.5132,-0.1384,2.0026,0.0817,-0.1721,1.0068,0.0505,-0.8722,-0.0957,1.962,-0.4574,-0.0883
2.1922,-0.6616,1.7859,-1.1221,0.4653,-0.1215,2.0292,0.0675,-0.1649,0.911,0.0227,-0.8624,-0.1328,1.9684,-0.4706,-0.0896
2.1922,-0.6616,1.7859,-1.1221,0.4653,-0.1215,2.0292,0.0675,-0.1649,0.911,0.0227,-0.8624,-0.1328,1.9684,-0.4706,-0.0896
2.153,-0.6051,1.8037,-1.0963,0.4335,-0.1103,2.0315,0.0763,-0.1649,0.911,-0.0104,-0.845,-0.1267,1.9596,-0.4838,-0.0909
2.153,-0.6051,1.8037,-1.0963,0.4335,-0.1103,2.0315,0.0763,-0.1649,0.911,-0.0104,-0.845,-0.1267,1.9596,-0.4838,-0.0909
2.0898,-0.5827,1.8512,-1.113,0.428,-0.1369,1.9982,0.088,-0.0864,0.8833,-0.052,-0.8303,-0.104,1.9582,-0.4959,-0.0886
2.0898,-0.5827,1.8512,-1.113,0.428,-0.1369,1.9982,0.088,-0.0864,0.8833,-0.052,-0.8303,-0.104,1.9582,-0.4959,-0.0886
2.0397,-0.5793,1.9759,-1.1892,0.3907,-0.1523,1.9582,0.0974,-0.0078,0.8555,-0.0882,-0.8232,-0.0833,1.9442,-0.5109,-0.0873
2.0212,-0.587,1.9826,-1.0949,0.3814,-0.1561,1.9294,0.1028,0.187,0.8332,-0.1052,-0.8288,-0.0895,1.9531,-0.5222,-0.0913
2.0212,-0.587,1.9826,-1.0949,0.3814,-0.1561,1.9294,0.1028,0.187,0.8332,-0.1052,-0.8288,-0.0895,1.9531,-0.5222,-0.0913
2.0212,-0.587,1.9826,-1.0949,0.3814,-0.1561,1.9294,0.1028,0.187,0.8332,-0.1052,-0.8288,-0.0895,1.9531,-0.5222,-0.0913
1.9898,-0.5759,1.8631,-0.9226,0.3721,-0.16,1.9161,0.0979,0.5453,0.7533,-0.1276,-0.8266,-0.0957,1.962,-0.5335,-0.0953
1.9898,-0.5759,1.8631,-0.9226,0.3721,-0.16,1.9161,0.0979,0.5453,0.7533,-0.1276,-0.8266,-0.0957,1.962,-0.5335,-0.0953
1.9637,-0.5382,1.7726,-0.7922,0.3814,-0.1561,1.9205,0.0915,0.5833,0.7868,-0.1583,-0.8273,-0.1328,1.9684,-0.5308,-0.1042
1.9637,-0.5382,1.7726,-0.7922,0.3814,-0.1561,1.9205,0.0915,0.5833,0.7868,-0.1583,-0.8273,-0.1328,1.9684,-0.5308,-0.1042
2.0004,-0.5227,1.8383,-0.7824,0.4822,-0.1632,1.956,0.0886,0.4093,1.0377,-0.1531,-0.8349,-0.1761,1.9837,-0.5225,-0.1111
2.0004,-0.5227,1.8383,-0.7824,0.4822,-0.1632,1.956,0.0886,0.4093,1.0377,-0.1531,-0.8349,-0.1761,1.9837,-0.5225,-0.1111
2.0504,-0.5261,1.9346,-0.8164,0.5866,-0.1572,1.9938,0.0944,0.277,1.2284,-0.1085,-0.8391,-0.1617,1.9786,-0.5066,-0.1088
2.1137,-0.5484,2.0434,-0.9208,0.6557,-0.117,2.0273,0.1066,-0.073,1.2081,-0.0031,-0.8706,-0.1597,1.9445,-0.4961,-0.0985
2.1137,-0.5484,2.0434,-0.9208,0.6557,-0.117,2.0273,0.1066,-0.073,1.2081,-0.0031,-0.8706,-0.1597,1.9445,-0.4961,-0.0985
2.1137,-0.5484,2.0434,-0.9208,0.6557,-0.117,2.0273,0.1066,-0.073,1.2081,-0.0031,-0.8706,-0.1597,1.9445,-0.4961,-0.0985
2.2464,-0.5667,2.0132,-0.8772,0.7119,-0.0573,2.0832,0.1109,-0.2152,1.0689,0.1601,-0.8936,-0.1392,1.9305,-0.4621,-0.0866
2.3801,-0.5852,2.0494,-0.8239,0.7817,-0.0166,2.1461,0.1176,-0.2152,1.0689,0.284,-0.8736,-0.0916,1.9405,-0.4176,-0.0744
2.3801,-0.5852,2.0494,-0.8239,0.7817,-0.0166,2.1461,0.1176,-0.2152,1.0689,0.284,-0.8736,-0.0916,1.9405,-0.4176,-0.0744
2.4369,-0.5622,2.0675,-0.7971,0.8624,-0.0086,2.2226,0.105,-0.0576,1.0133,0.3556,-0.8232,-0.0439,1.9504,-0.3712,-0.0648
2.4369,-0.5622,2.0675,-0.7971,0.8624,-0.0086,2.2226,0.105,-0.0576,1.0133,0.3556,-0.8232,-0.0439,1.9504,-0.3712,-0.0648
2.4104,-0.524,2.0798,-0.8677,0.8981,-0.0066,2.2431,0.1123,0.101,0.9572,0.4012,-0.7807,0.0246,1.9464,-0.3237,-0.0615
2.4104,-0.524,2.0798,-0.8677,0.8981,-0.0066,2.2431,0.1123,0.101,0.9572,0.4012,-0.7807,0.0246,1.9464,-0.3237,-0.0615
2.4104,-0.524,2.0798,-0.8677,0.8981,-0.0066,2.2431,0.1123,0.101,0.9572,0.4012,-0.7807,0.0246,1.9464,-0.3237,-0.0615
2.4104,-0.524,2.0798,-0.8677,0.8981,-0.0066,2.2431,0.1123,0.101,0.9572,0.4012,-0.7807,0.0246,1.9464,-0.3237,-0.0615
2.3404,-0.5281,2.0736,-0.9642,0.8951,-0.0202,2.2049,0.1307,0.1807,0.929,0.4257,-0.7541,0.1227,1.9319,-0.2876,-0.0622
2.3404,-0.5281,2.0736,-0.9642,0.8951,-0.0202,2.2049,0.1307,0.1807,0.929,0.4257,-0.7541,0.1227,1.9319,-0.2876,-0.0622
2.3404,-0.5281,2.0736,-0.9642,0.8951,-0.0202,2.2049,0.1307,0.1807,0.929,0.4257,-0.7541,0.1227,1.9319,-0.2876,-0.0622
2.2145,-0.5554,2.1153,-1.0769,0.8565,-0.0357,2.1508,0.1353,0.341,0.8724,0.4257,-0.7541,0.161,1.9724,-0.2685,-0.0589
2.2145,-0.5554,2.1153,-1.0769,0.8565,-0.0357,2.1508,0.1353,0.341,0.8724,0.4257,-0.7541,0.161,1.9724,-0.2685,-0.0589
2.2145,-0.5554,2.1153,-1.0769,0.8565,-0.0357,2.1508,0.1353,0.341,0.8724,0.4257,-0.7541,0.161,1.9724,-0.2685,-0.0589
2.1958,-0.5631,2.0554,-0.9905,0.8632,-0.0454,2.1485,0.1264,0.6595,0.8542,0.4257,-0.7541,0.1445,2.0121,-0.2515,-0.0629
2.1958,-0.5631,2.0554,-0.9905,0.8632,-0.0454,2.1485,0.1264,0.6595,0.8542,0.4257,-0.7541,0.1445,2.0121,-0.2515,-0.0629
2.1958,-0.5631,1.929,-0.9131,0.8862,-0.0608,2.1305,0.1279,0.6482,1.0491,0.4026,-0.7518,0.1383,2.0211,-0.2307,-0.0722
2.1958,-0.5631,1.929,-0.9131,0.8862,-0.0608,2.1305,0.1279,0.6482,1.0491,0.4026,-0.7518,0.1383,2.0211,-0.2307,-0.0722
2.1958,-0.5631,1.929,-0.9131,0.8862,-0.0608,2.1305,0.1279,0.6482,1.0491,0.4026,-0.7518,0.1383,2.0211,-0.2307,-0.0722
2.2539,-0.6122,1.9709,-1.0259,0.8536,-0.0492,2.0967,0.1157,0.5149,1.2413,0.387,-0.7757,0.113,2.0097,-0.2544,-0.0639
2.2539,-0.6122,1.9709,-1.0259,0.8536,-0.0492,2.0967,0.1157,0.5149,1.2413,0.387,-0.7757,0.113,2.0097,-0.2544,-0.0639
2.2539,-0.6122,1.9709,-1.0259,0.8536,-0.0492,2.0967,0.1157,0.5149,1.2413,0.387,-0.7757,0.113,2.0097,-0.2544,-0.0639
2.4137,-0.6687,2.0305,-1.1119,0.8076,-0.0184,2.09,0.1133,0.5595,1.177,0.4139,-0.8145,0.117,1.9879,-0.2724,-0.0635
2.4137,-0.6687,2.0305,-1.1119,0.8076,-0.0184,2.09,0.1133,0.5595,1.177,0.4139,-0.8145,0.117,1.9879,-0.2724,-0.0635
2.8277,-0.8435,2.0123,-1.1377,0.7233,-0.0032,2.0653,0.1124,0.8075,1.0894,0.3997,-0.8095,0.1254,1.9917,-0.2952,-0.0615
2.8277,-0.8435,2.0123,-1.1377,0.7233,-0.0032,2.0653,0.1124,0.8075,1.0894,0.3997,-0.8095,0.1254,1.9917,-0.2952,-0.0615
2.9061,-0.8854,1.9826,-1.0949,0.7272,-0.0264,2.0653,0.1124,0.852,1.0253,0.3585,-0.7656,0.1192,2.0007,-0.3028,-0.0608
2.9061,-0.8854,1.9826,-1.0949,0.7272,-0.0264,2.0653,0.1124,0.852,1.0253,0.3585,-0.7656,0.1192,2.0007,-0.3028,-0.0608
2.9061,-0.8854,1.9826,-1.0949,0.7272,-0.0264,2.0653,0.1124,0.852,1.0253,0.3585,-0.7656,0.1192,2.0007,-0.3028,-0.0608
2.8277,-0.8435,1.905,-1.0351,0.7081,-0.0342,2.0988,0.1005,0.852,1.0253,0.3261,-0.7189,0.1276,2.0045,-0.3047,-0.0582
2.8277,-0.8435,1.905,-1.0351,0.7081,-0.0342,2.0988,0.1005,0.852,1.0253,0.3261,-0.7189,0.1276,2.0045,-0.3047,-0.0582
2.8277,-0.8435,1.905,-1.0351,0.7081,-0.0342,2.0988,0.1005,0.852,1.0253,0.3261,-0.7189,0.1276,2.0045,-0.3047,-0.0582
2.6514,-0.6955,1.8931,-0.9659,0.7214,-0.0534,2.1435,0.0847,0.7246,1.1187,0.2957,-0.6904,0.1276,2.0045,-0.3,-0.0598
2.6514,-0.6955,1.8931,-0.9659,0.7214,-0.0534,2.1435,0.0847,0.7246,1.1187,0.2957,-0.6904,0.1276,2.0045,-0.3,-0.0598
2.6514,-0.6955,1.8931,-0.9659,0.7214,-0.0534,2.1435,0.0847,0.7246,1.1187,0.2957,-0.6904,0.1276,2.0045,-0.3,-0.0598
2.2575,-0.5132,1.905,-1.0351,0.7613,-0.111,2.0988,0.1005,0.6732,1.2831,0.3153,-0.7033,0.2242,1.9771,-0.2876,-0.0622
2.2575,-0.5132,1.905,-1.0351,0.7613,-0.111,2.0988,0.1005,0.6732,1.2831,0.3153,-0.7033,0.2242,1.9771,-0.2876,-0.0622
2.1377,-0.514,2.0419,-1.1804,0.726,-0.113,2.0563,0.1011,0.628,1.3482,0.3315,-0.7267,0.2684,1.9615,-0.2924,-0.0605
2.1377,-0.514,2.0419,-1.1804,0.726,-0.113,2.0563,0.1011,0.628,1.3482,0.3315,-0.7267,0.2684,1.9615,-0.2924,-0.0605
2.0821,-0.5372,2.0419,-1.1804,0.707,-0.1207,2.0139,0.1017,0.6732,1.2831,0.3335,-0.745,0.2435,1.9975,-0.2971,-0.0588
2.0821,-0.5372,2.0419,-1.1804,0.707,-0.1207,2.0139,0.1017,0.6732,1.2831,0.3335,-0.745,0.2435,1.9975,-0.2971,-0.0588
2.0451,-0.5527,1.923,-1.009,0.6908,-0.115,1.9827,0.0983,0.8014,1.1889,0.316,-0.7506,0.2225,2.0117,-0.3104,-0.0602
2.0451,-0.5527,1.923,-1.009,0.6908,-0.115,1.9827,0.0983,0.8014,1.1889,0.316,-0.7506,0.2225,2.0117,-0.3104,-0.0602
2.0397,-0.5793,1.7852,-0.8624,0.6813,-0.1188,1.9737,0.0871,1.0136,1.0651,0.293,-0.7483,0.1953,2.0349,-0.3038,-0.0645
2.0712,-0.5904,1.7551,-0.8189,0.6975,-0.1245,1.9714,0.0783,0.885,1.1593,0.2668,-0.7567,0.1868,2.0311,-0.2917,-0.0768
2.0712,-0.5904,1.7551,-0.8189,0.6975,-0.1245,1.9714,0.0783,0.885,1.1593,0.2668,-0.7567,0.1868,2.0311,-0.2917,-0.0768
2.0712,-0.5904,1.7551,-0.8189,0.6975,-0.1245,1.9714,0.0783,0.885,1.1593,0.2668,-0.7567,0.1868,2.0311,-0.2917,-0.0768
2.0212,-0.587,1.6898,-0.8287,0.7592,-0.1607,1.9514,0.0711,0.7113,1.3188,0.2405,-0.765,0.1846,2.0183,-0.2909,-0.0831
2.0212,-0.587,1.6898,-0.8287,0.7592,-0.1607,1.9514,0.0711,0.7113,1.3188,0.2405,-0.765,0.1846,2.0183,-0.2909,-0.0831
2.0028,-0.5947,1.6549,-0.8817,0.7592,-0.1607,1.916,0.074,0.4701,1.3059,0.1969,-0.7788,0.1739,2.0017,-0.3119,-0.0837
2.0028,-0.5947,1.6549,-0.8817,0.7592,-0.1607,1.916,0.074,0.4701,1.3059,0.1969,-0.7788,0.1739,2.0017,-0.3119,-0.0837
2.0028,-0.5947,1.6549,-0.8817,0.7592,-0.1607,1.916,0.074,0.4701,1.3059,0.1969,-0.7788,0.1739,2.0017,-0.3119,-0.0837
2.0159,-0.6135,1.6673,-0.9511,0.7136,-0.1302,1.896,0.0667,0.167,1.1233,0.1642,-0.8081,0.1086,1.9841,-0.3544,-0.0787
2.0159,-0.6135,1.6673,-0.9511,0.7136,-0.1302,1.896,0.0667,0.167,1.1233,0.1642,-0.8081,0.1086,1.9841,-0.3544,-0.0787
2.155,-0.6768,1.6971,-0.9941,0.6681,-0.0997,1.8893,0.0643,-0.0576,1.0133,0.1402,-0.8344,0.0604,1.9742,-0.3856,-0.0797
2.1866,-0.6879,1.7564,-1.0795,0.6264,-0.0922,1.9202,0.0439,-0.0145,0.9511,0.0896,-0.8224,0.052,1.9704,-0.4064,-0.0803
2.1866,-0.6879,1.7564,-1.0795,0.6264,-0.0922,1.9202,0.0439,-0.0145,0.9511,0.0896,-0.8224,0.052,1.9704,-0.4064,-0.0803
2.1866,-0.6879,1.7564,-1.0795,0.6264,-0.0922,1.9202,0.0439,-0.0145,0.9511,0.0896,-0.8224,0.052,1.9704,-0.4064,-0.0803
2.1661,-0.6239,1.7267,-1.0368,0.5914,-0.0942,1.9333,0.0249,0.1076,0.8612,0.0338,-0.8027,0.0374,1.9755,-0.4196,-0.0817
2.1661,-0.6239,1.7267,-1.0368,0.5914,-0.0942,1.9333,0.0249,0.1076,0.8612,0.0338,-0.8027,0.0374,1.9755,-0.4196,-0.0817
2.0135,-0.5416,1.7564,-1.0795,0.5508,-0.123,1.8672,0.0483,0.174,1.0258,-0.0476,-0.7913,0.1081,1.9371,-0.4479,-0.0817
2.0135,-0.5416,1.7564,-1.0795,0.5508,-0.123,1.8672,0.0483,0.174,1.0258,-0.0476,-0.7913,0.1081,1.9371,-0.4479,-0.0817
2.0135,-0.5416,1.7564,-1.0795,0.5508,-0.123,1.8672,0.0483,0.174,1.0258,-0.0476,-0.7913,0.1081,1.9371,-0.4479,-0.0817
2.0135,-0.5416,1.7564,-1.0795,0.5508,-0.123,1.8672,0.0483,0.174,1.0258,-0.0476,-0.7913,0.1081,1.9371,-0.4479,-0.0817
1.9767,-0.557,1.9101,-1.1981,0.5132,-0.1384,1.8209,0.0551,0.1305,1.0886,-0.0732,-0.7996,0.1289,1.923,-0.4611,-0.083
1.9767,-0.557,1.9101,-1.1981,0.5132,-0.1384,1.8209,0.0551,0.1305,1.0886,-0.0732,-0.7996,0.1289,1.923,-0.4611,-0.083
1.9584,-0.5648,1.7199,-0.872,0.4851,-0.1499,1.7726,0.0532,0.7799,0.8591,-0.1105,-0.8211,0.0643,1.9525,-0.4921,-0.084
1.9584,-0.5648,1.7199,-0.872,0.4851,-0.1499,1.7726,0.0532,0.7799,0.8591,-0.1105,-0.8211,0.0643,1.9525,-0.4921,-0.084
1.9584,-0.5648,1.7199,-0.872,0.4851,-0.1499,1.7726,0.0532,0.7799,0.8591,-0.1105,-0.8211,0.0643,1.9525,-0.4921,-0.084
1.9584,-0.5648,1.6597,-0.7852,0.4916,-0.1594,1.7485,0.0522,0.9886,0.738,-0.1329,-0.819,0.0268,1.9591,-0.5034,-0.088
1.9584,-0.5648,1.6597,-0.7852,0.4916,-0.1594,1.7485,0.0522,0.9886,0.738,-0.1329,-0.819,0.0268,1.9591,-0.5034,-0.088
1.94,-0.5725,1.6295,-0.7416,0.5301,-0.1801,1.7397,0.0411,0.8075,1.0894,-0.1604,-0.8093,0.0039,1.9604,-0.5072,-0.0926
1.94,-0.5725,1.6295,-0.7416,0.5301,-0.1801,1.7397,0.0411,0.8075,1.0894,-0.1604,-0.8093,0.0039,1.9604,-0.5072,-0.0926
1.8904,-0.5691,1.6121,-0.7684,0.5432,-0.199,1.72,0.0338,0.6352,1.2476,-0.1774,-0.8148,-0.0066,1.944,-0.5269,-0.0897
1.8904,-0.5691,1.6121,-0.7684,0.5432,-0.199,1.72,0.0338,0.6352,1.2476,-0.1774,-0.8148,-0.0066,1.944,-0.5269,-0.0897
1.8982,-0.6143,1.6076,-0.865,0.4888,-0.1727,1.6894,0.0304,0.3583,1.1997,-0.1647,-0.848,-0.0338,1.92,-0.5577,-0.0907
1.8982,-0.6143,1.6076,-0.865,0.4888,-0.1727,1.6894,0.0304,0.3583,1.1997,-0.1647,-0.848,-0.0338,1.92,-0.5577,-0.0907
1.9866,-0.6738,1.5603,-0.8483,0.4345,-0.1464,1.6655,0.0294,0.167,1.1233,-0.1574,-0.8736,-0.067,1.905,-0.5839,-0.0934
1.9866,-0.6738,1.5603,-0.8483,0.4345,-0.1464,1.6655,0.0294,0.167,1.1233,-0.1574,-0.8736,-0.067,1.905,-0.5839,-0.0934
2.005,-0.6662,1.5603,-0.8483,0.4028,-0.1351,1.6742,0.0169,0.0505,1.1169,-0.1817,-0.8535,-0.0959,1.9152,-0.5998,-0.0957
2.005,-0.6662,1.5603,-0.8483,0.4028,-0.1351,1.6742,0.0169,0.0505,1.1169,-0.1817,-0.8535,-0.0959,1.9152,-0.5998,-0.0957
1.9607,-0.6364,1.543,-0.8747,0.3841,-0.1428,1.6828,0.0044,0.0941,1.054,-0.225,-0.821,-0.1042,1.9115,-0.6166,-0.1016
1.9607,-0.6364,1.543,-0.8747,0.3841,-0.1428,1.6828,0.0044,0.0941,1.054,-0.225,-0.821,-0.1042,1.9115,-0.6166,-0.1016
1.8306,-0.6186,1.5382,-0.9702,0.3404,-0.1488,1.6546,0.0097,0.0578,1.0196,-0.2661,-0.8065,-0.0837,1.8975,-0.6242,-0.1109
1.8306,-0.6186,1.5382,-0.9702,0.3404,-0.1488,1.6546,0.0097,0.0578,1.0196,-0.2661,-0.8065,-0.0837,1.8975,-0.6242,-0.1109
1.7142,-0.6198,1.5799,-1.0814,0.2876,-0.1586,1.6241,0.0063,0.0216,0.9853,-0.2967,-0.8072,-0.0692,1.8924,-0.6401,-0.1132
1.7142,-0.6198,1.5799,-1.0814,0.2876,-0.1586,1.6241,0.0063,0.0216,0.9853,-0.2967,-0.8072,-0.0692,1.8924,-0.6401,-0.1132
1.6603,-0.6428,1.5918,-1.1495,0.2377,-0.1551,1.5895,0.0091,0.0216,0.9853,-0.3302,-0.8183,-0.0815,1.9101,-0.6541,-0.1182
1.6552,-0.6689,1.4397,-1.0319,0.2036,-0.1573,1.5873,0.0004,0.4215,0.844,-0.347,-0.8238,-0.0938,1.9278,-0.6689,-0.1169
1.6552,-0.6689,1.4397,-1.0319,0.2036,-0.1573,1.5873,0.0004,0.4215,0.844,-0.347,-0.8238,-0.0938,1.9278,-0.6689,-0.1169
1.6552,-0.6689,1.4397,-1.0319,0.2036,-0.1573,1.5873,0.0004,0.4215,0.844,-0.347,-0.8238,-0.0938,1.9278,-0.6689,-0.1169
1.6988,-0.6983,1.3342,-0.9304,0.2036,-0.1573,1.5938,0.0028,0.6213,0.8205,-0.3637,-0.8294,-0.1144,1.9418,-0.6652,-0.1221
1.6988,-0.6983,1.3342,-0.9304,0.2036,-0.1573,1.5938,0.0028,0.6213,0.8205,-0.3637,-0.8294,-0.1144,1.9418,-0.6652,-0.1221
1.7348,-0.6831,1.3046,-0.8877,0.2784,-0.1624,1.6198,0.0125,0.654,0.9512,-0.3637,-0.8294,-0.1288,1.9469,-0.6422,-0.1303
1.7348,-0.6831,1.3046,-0.8877,0.2784,-0.1624,1.6198,0.0125,0.654,0.9512,-0.3637,-0.8294,-0.1288,1.9469,-0.6422,-0.1303
1.8072,-0.6526,1.3215,-0.8614,0.4224,-0.1635,1.6611,0.0357,0.4327,1.2704,-0.3386,-0.821,-0.1061,1.9456,-0.6161,-0.1276
1.8617,-0.6296,1.3681,-0.8778,0.5226,-0.1346,1.7113,0.0464,0.3061,1.3639,-0.2556,-0.8217,-0.0772,1.9354,-0.5935,-0.1098
1.8617,-0.6296,1.3681,-0.8778,0.5226,-0.1346,1.7113,0.0464,0.3061,1.3639,-0.2556,-0.8217,-0.0772,1.9354,-0.5935,-0.1098
1.8617,-0.6296,1.3681,-0.8778,0.5226,-0.1346,1.7113,0.0464,0.3061,1.3639,-0.2556,-0.8217,-0.0772,1.9354,-0.5935,-0.1098
1.9607,-0.6364,1.5209,-0.9964,0.5847,-0.0847,1.7507,0.0609,0.196,1.2571,-0.1117,-0.8495,-0.0587,1.9088,-0.5652,-0.09
1.9607,-0.6364,1.5209,-0.9964,0.5847,-0.0847,1.7507,0.0609,0.196,1.2571,-0.1117,-0.8495,-0.0587,1.9088,-0.5652,-0.09
2.1605,-0.6504,1.7386,-1.1054,0.6567,-0.0306,1.8012,0.0716,0.2035,1.1582,0.0571,-0.8514,-0.0276,1.9112,-0.5154,-0.0758
2.3889,-0.7027,1.8037,-1.0963,0.7004,0.0121,1.8387,0.0775,0.2843,1.1297,0.1855,-0.8389,0.0119,1.9173,-0.4626,-0.0605
2.3889,-0.7027,1.8037,-1.0963,0.7004,0.0121,1.8387,0.0775,0.2843,1.1297,0.1855,-0.8389,0.0119,1.9173,-0.4626,-0.0605
2.4268,-0.6876,1.8512,-1.113,0.7357,0.0143,1.8893,0.0643,0.4026,1.1359,0.2654,-0.7855,0.0454,1.9323,-0.4134,-0.0498
2.4268,-0.6876,1.8512,-1.113,0.7357,0.0143,1.8893,0.0643,0.4026,1.1359,0.2654,-0.7855,0.0454,1.9323,-0.4134,-0.0498
2.4122,-0.5966,1.8871,-1.0612,0.7616,0.0124,1.9468,0.0536,0.4773,1.206,0.291,-0.73,0.0851,1.9385,-0.3708,-0.0448
2.4122,-0.5966,1.8871,-1.0612,0.7616,0.0124,1.9468,0.0536,0.4773,1.206,0.291,-0.73,0.0851,1.9385,-0.3708,-0.0448
2.3083,-0.5167,1.8394,-1.0443,0.7817,-0.0166,1.9535,0.056,0.4701,1.3059,0.3099,-0.6954,0.125,1.9446,-0.3395,-0.0438
2.3083,-0.5167,1.8394,-1.0443,0.7817,-0.0166,1.9535,0.056,0.4701,1.3059,0.3099,-0.6954,0.125,1.9446,-0.3395,-0.0438
2.3083,-0.5167,1.8394,-1.0443,0.7817,-0.0166,1.9535,0.056,0.4701,1.3059,0.3099,-0.6954,0.125,1.9446,-0.3395,-0.0438
2.1882,-0.5174,1.9282,-1.1724,0.7892,-0.0629,1.8983,0.0755,0.5902,1.3124,0.3362,-0.687,0.2067,1.9225,-0.3186,-0.0432
2.1882,-0.5174,1.9282,-1.1724,0.7892,-0.0629,1.8983,0.0755,0.5902,1.3124,0.3362,-0.687,0.2067,1.9225,-0.3186,-0.0432
2.1882,-0.5174,1.9282,-1.1724,0.7892,-0.0629,1.8983,0.0755,0.5902,1.3124,0.3362,-0.687,0.2067,1.9225,-0.3186,-0.0432
2.0689,-0.5183,2.064,-1.3163,0.7738,-0.0937,1.8563,0.076,0.5902,1.3124,0.3417,-0.6949,0.2445,1.9158,-0.3129,-0.0412
2.0689,-0.5183,2.064,-1.3163,0.7738,-0.0937,1.8563,0.076,0.5902,1.3124,0.3417,-0.6949,0.2445,1.9158,-0.3129,-0.0412
2.0689,-0.5183,2.064,-1.3163,0.7738,-0.0937,1.8563,0.076,0.5902,1.3124,0.3417,-0.6949,0.2445,1.9158,-0.3129,-0.0412
2.0212,-0.587,1.8987,-1.1298,0.7518,-0.1148,1.7946,0.0692,0.8462,1.1243,0.2944,-0.7194,0.1841,1.971,-0.3159,-0.0522
2.0212,-0.587,1.8987,-1.1298,0.7518,-0.1148,1.7946,0.0692,0.8462,1.1243,0.2944,-0.7194,0.1841,1.971,-0.3159,-0.0522
2.0028,-0.5947,1.7919,-1.0275,0.7746,-0.1301,1.7858,0.058,0.9298,1.0948,0.2593,-0.7306,0.1694,1.9762,-0.3104,-0.0602
2.0028,-0.5947,1.7919,-1.0275,0.7746,-0.1301,1.7858,0.058,0.9298,1.0948,0.2593,-0.7306,0.1694,1.9762,-0.3104,-0.0602
1.9975,-0.6211,1.6498,-0.9774,0.8137,-0.1511,1.777,0.0469,0.7949,1.2893,0.2385,-0.7467,0.161,1.9724,-0.3143,-0.0648
1.9975,-0.6211,1.6498,-0.9774,0.8137,-0.1511,1.777,0.0469,0.7949,1.2893,0.2385,-0.7467,0.161,1.9724,-0.3143,-0.0648
1.9661,-0.61,1.6498,-0.9774,0.8166,-0.1377,1.7813,0.0406,0.4327,1.2704,0.1862,-0.7633,0.0957,1.9549,-0.3417,-0.0611
1.9661,-0.61,1.6498,-0.9774,0.8166,-0.1377,1.7813,0.0406,0.4327,1.2704,0.1862,-0.7633,0.0957,1.9549,-0.3417,-0.0611
2.0343,-0.6058,1.6498,-0.9774,0.793,-0.086,1.777,0.0469,0.167,1.1233,0.1869,-0.8103,0.0392,1.9412,-0.3654,-0.0628
2.0343,-0.6058,1.6498,-0.9774,0.793,-0.086,1.777,0.0469,0.167,1.1233,0.1869,-0.8103,0.0392,1.9412,-0.3654,-0.0628
2.1475,-0.6316,1.6498,-0.9774,0.7568,-0.0514,1.7879,0.043,-0.0217,1.0476,0.1976,-0.8257,0.0225,1.9337,-0.3824,-0.0588
2.1475,-0.6316,1.6498,-0.9774,0.7568,-0.0514,1.7879,0.043,-0.0217,1.0476,0.1976,-0.8257,0.0225,1.9337,-0.3824,-0.0588
2.2296,-0.6464,1.6971,-0.9941,0.7338,-0.036,1.8274,0.0338,-0.0145,0.9511,0.1782,-0.813,0.0203,1.9211,-0.3834,-0.0624
2.2296,-0.6464,1.6971,-0.9941,0.7338,-0.036,1.8274,0.0338,-0.0145,0.9511,0.1782,-0.813,0.0203,1.9211,-0.3834,-0.0624
2.2221,-0.601,1.6673,-0.9511,0.7014,-0.0246,1.889,0.0168,0.1076,0.8612,0.1428,-0.7772,0.041,1.907,-0.3787,-0.0641
2.2221,-0.601,1.6673,-0.9511,0.7014,-0.0246,1.889,0.0168,0.1076,0.8612,0.1428,-0.7772,0.041,1.907,-0.3787,-0.0641
2.1882,-0.5174,1.6673,-0.9511,0.6919,-0.0285,1.9331,0.0012,0.2667,0.805,0.118,-0.7568,0.0616,1.893,-0.374,-0.0658
2.1882,-0.5174,1.6673,-0.9511,0.6919,-0.0285,1.9331,0.0012,0.2667,0.805,0.118,-0.7568,0.0616,1.893,-0.374,-0.0658
2.1035,-0.43,1.62,-0.9344,0.689,-0.042,1.9331,0.0012,0.2977,0.9348,0.1127,-0.749,0.1137,1.8813,-0.373,-0.0621
2.1035,-0.43,1.62,-0.9344,0.689,-0.042,1.9331,0.0012,0.2977,0.9348,0.1127,-0.749,0.1137,1.8813,-0.373,-0.0621
2.0902,-0.4108,1.5729,-0.9178,0.6928,-0.0651,1.8957,0.0192,0.3653,1.1011,0.1073,-0.7413,0.1829,1.877,-0.3738,-0.0558
2.0902,-0.4108,1.5729,-0.9178,0.6928,-0.0651,1.8957,0.0192,0.3653,1.1011,0.1073,-0.7413,0.1829,1.877,-0.3738,-0.0558
1.9978,-0.4502,1.5505,-1.0389,0.6681,-0.0997,1.8077,0.0503,0.3955,1.235,0.0933,-0.7363,0.2646,1.8549,-0.3757,-0.0532
1.9978,-0.4502,1.5505,-1.0389,0.6681,-0.0997,1.8077,0.0503,0.3955,1.235,0.0933,-0.7363,0.2646,1.8549,-0.3757,-0.0532
1.8878,-0.4971,1.6678,-1.2081,0.6339,-0.138,1.7398,0.0648,0.3955,1.235,0.0846,-0.7391,0.294,1.8445,-0.3851,-0.0498
1.8592,-0.5581,1.8489,-1.3671,0.6055,-0.1495,1.6873,0.0691,0.3583,1.1997,0.0641,-0.7552,0.25,1.8601,-0.3936,-0.0528
1.8592,-0.5581,1.8489,-1.3671,0.6055,-0.1495,1.6873,0.0691,0.3583,1.1997,0.0641,-0.7552,0.25,1.8601,-0.3936,-0.0528
1.854,-0.5846,1.8489,-1.3671,0.596,-0.1533,1.6568,0.0656,0.4467,1.0723,0.0715,-0.7811,0.1852,1.8897,-0.4032,-0.0595
1.854,-0.5846,1.8489,-1.3671,0.596,-0.1533,1.6568,0.0656,0.4467,1.0723,0.0715,-0.7811,0.1852,1.8897,-0.4032,-0.0595
1.9164,-0.6066,1.7503,-1.1736,0.6055,-0.1495,1.6437,0.0608,0.8186,0.8931,0.0736,-0.7993,0.1143,1.9282,-0.4146,-0.0634
1.9164,-0.6066,1.7503,-1.1736,0.6055,-0.1495,1.6437,0.0608,0.8186,0.8931,0.0736,-0.7993,0.1143,1.9282,-0.4146,-0.0634
1.9164,-0.6066,1.7503,-1.1736,0.6055,-0.1495,1.6437,0.0608,0.8186,0.8931,0.0736,-0.7993,0.1143,1.9282,-0.4146,-0.0634
1.9034,-0.5879,1.6026,-0.9607,0.5989,-0.14,1.6416,0.0521,1.1511,0.7756,0.051,-0.7971,0.0621,1.9399,-0.4148,-0.0734
1.9034,-0.5879,1.6026,-0.9607,0.5989,-0.14,1.6416,0.0521,1.1511,0.7756,0.051,-0.7971,0.0621,1.9399,-0.4148,-0.0734
1.94,-0.5725,1.5303,-0.805,0.5857,-0.121,1.6611,0.0357,1.2349,0.746,0.0145,-0.79,0.0308,1.9375,-0.4121,-0.0823
1.94,-0.5725,1.5303,-0.805,0.5857,-0.121,1.6611,0.0357,1.2349,0.746,0.0145,-0.79,0.0308,1.9375,-0.4121,-0.0823
1.9453,-0.5459,1.453,-0.745,0.6112,-0.1228,1.6742,0.0169,0.9744,1.0304,-0.0219,-0.783,-0.0088,1.9313,-0.4029,-0.0956
1.9453,-0.5459,1.453,-0.745,0.6112,-0.1228,1.6742,0.0169,0.9744,1.0304,-0.0219,-0.783,-0.0088,1.9313,-0.4029,-0.0956
1.9453,-0.5459,1.5002,-0.7617,0.6755,-0.1455,1.6785,0.0106,0.6205,1.4497,-0.0582,-0.776,-0.0109,1.9187,-0.4115,-0.0985
1.9453,-0.5459,1.5002,-0.7617,0.6755,-0.1455,1.6785,0.0106,0.6205,1.4497,-0.0582,-0.776,-0.0109,1.9187,-0.4115,-0.0985
1.8774,-0.5503,1.543,-0.8747,0.65,-0.1437,1.648,0.0072,0.2891,1.5668,-0.0732,-0.7996,-0.0175,1.8809,-0.4452,-0.0906
1.9347,-0.599,1.5555,-0.944,0.6112,-0.1228,1.6241,0.0063,-0.0544,1.4425,-0.0914,-0.8336,-0.053,1.8534,-0.4828,-0.0873
1.9347,-0.599,1.5555,-0.944,0.6112,-0.1228,1.6241,0.0063,-0.0544,1.4425,-0.0914,-0.8336,-0.053,1.8534,-0.4828,-0.0873
2.0419,-0.651,1.4788,-0.8845,0.5697,-0.1153,1.6111,0.0014,-0.0813,1.3068,-0.0894,-0.8516,-0.0779,1.8422,-0.5127,-0.0847
2.0419,-0.651,1.4788,-0.8845,0.5697,-0.1153,1.6111,0.0014,-0.0813,1.3068,-0.0894,-0.8516,-0.0779,1.8422,-0.5127,-0.0847
2.0549,-0.6697,1.4616,-0.9109,0.5188,-0.1117,1.6154,-0.0048,0.0505,1.1169,-0.1467,-0.8141,-0.1006,1.8436,-0.5408,-0.0847
2.0549,-0.6697,1.4616,-0.9109,0.5188,-0.1117,1.6154,-0.0048,0.0505,1.1169,-0.1467,-0.8141,-0.1006,1.8436,-0.5408,-0.0847
1.9975,-0.6211,1.4616,-0.9109,0.5,-0.1194,1.6523,-0.0225,0.0941,1.054,-0.2039,-0.7766,-0.1089,1.8399,-0.5586,-0.0844
1.9975,-0.6211,1.4616,-0.9109,0.5,-0.1194,1.6523,-0.0225,0.0941,1.054,-0.2039,-0.7766,-0.1089,1.8399,-0.5586,-0.0844
1.8644,-0.5315,1.3978,-0.9206,0.4879,-0.1366,1.6609,-0.035,0.2543,0.9974,-0.242,-0.7516,-0.1006,1.8436,-0.5624,-0.089
1.8644,-0.5315,1.3978,-0.9206,0.4879,-0.1366,1.6609,-0.035,0.2543,0.9974,-0.242,-0.7516,-0.1006,1.8436,-0.5624,-0.089
1.8644,-0.5315,1.3978,-0.9206,0.4879,-0.1366,1.6609,-0.035,0.2543,0.9974,-0.242,-0.7516,-0.1006,1.8436,-0.5624,-0.089
1.8644,-0.5315,1.3978,-0.9206,0.4879,-0.1366,1.6609,-0.035,0.2543,0.9974,-0.242,-0.7516,-0.1006,1.8436,-0.5624,-0.089
1.7707,-0.4985,1.4103,-0.9894,0.4663,-0.1576,1.6284,-0.0235,0.2912,1.0318,-0.2726,-0.7523,-0.0574,1.8283,-0.5644,-0.0963
1.7707,-0.4985,1.4103,-0.9894,0.4663,-0.1576,1.6284,-0.0235,0.2912,1.0318,-0.2726,-0.7523,-0.0574,1.8283,-0.5644,-0.0963
1.7707,-0.4985,1.4103,-0.9894,0.4663,-0.1576,1.6284,-0.0235,0.2912,1.0318,-0.2726,-0.7523,-0.0574,1.8283,-0.5644,-0.0963
1.5472,-0.5467,1.5683,-1.2679,0.3442,-0.1715,1.5246,-0.015,0.2543,0.9974,-0.3125,-0.7843,-0.0081,1.8042,-0.5933,-0.1
1.5472,-0.5467,1.5683,-1.2679,0.3442,-0.1715,1.5246,-0.015,0.2543,0.9974,-0.3125,-0.7843,-0.0081,1.8042,-0.5933,-0.1
1.5472,-0.5467,1.5683,-1.2679,0.3442,-0.1715,1.5246,-0.015,0.2543,0.9974,-0.3125,-0.7843,-0.0081,1.8042,-0.5933,-0.1
1.5423,-0.573,1.4929,-1.2097,0.3099,-0.1735,1.5009,-0.016,0.4156,0.9404,-0.3187,-0.8051,-0.0408,1.8357,-0.611,-0.0997
1.5423,-0.573,1.4929,-1.2097,0.3099,-0.1735,1.5009,-0.016,0.4156,0.9404,-0.3187,-0.8051,-0.0408,1.8357,-0.611,-0.0997
1.5423,-0.573,1.4929,-1.2097,0.3099,-0.1735,1.5009,-0.016,0.4156,0.9404,-0.3187,-0.8051,-0.0408,1.8357,-0.611,-0.0997
1.5809,-0.6287,1.3004,-0.9826,0.3007,-0.1774,1.4816,-0.0232,0.6922,0.9856,-0.3302,-0.8183,-0.1251,1.8788,-0.6112,-0.1095
1.5809,-0.6287,1.3004,-0.9826,0.3007,-0.1774,1.4816,-0.0232,0.6922,0.9856,-0.3302,-0.8183,-0.1251,1.8788,-0.6112,-0.1095
1.5988,-0.621,1.2247,-0.9238,0.3545,-0.2035,1.4773,-0.017,0.5149,1.2413,-0.3386,-0.821,-0.1416,1.8714,-0.6075,-0.1148
1.5988,-0.621,1.2247,-0.9238,0.3545,-0.2035,1.4773,-0.017,0.5149,1.2413,-0.3386,-0.821,-0.1416,1.8714,-0.6075,-0.1148
1.5681,-0.6102,1.2373,-0.9923,0.3452,-0.2073,1.4429,-0.0143,0.3509,1.2993,-0.3637,-0.8294,-0.1603,1.8514,-0.6288,-0.1092
1.5681,-0.6102,1.2373,-0.9923,0.3452,-0.2073,1.4429,-0.0143,0.3509,1.2993,-0.3637,-0.8294,-0.1603,1.8514,-0.6288,-0.1092
1.6295,-0.6319,1.2835,-1.0086,0.3164,-0.1829,1.4258,-0.0129,0.2035,1.1582,-0.3783,-0.8528,-0.2036,1.8203,-0.6585,-0.1067
1.6295,-0.6319,1.2835,-1.0086,0.3164,-0.1829,1.4258,-0.0129,0.2035,1.1582,-0.3783,-0.8528,-0.2036,1.8203,-0.6585,-0.1067
1.6988,-0.6983,1.2789,-1.1025,0.2469,-0.1513,1.3915,-0.0102,0.2107,1.0602,-0.3573,-0.883,-0.2139,1.8041,-0.6789,-0.1074
1.6988,-0.6983,1.2789,-1.1025,0.2469,-0.1513,1.3915,-0.0102,0.2107,1.0602,-0.3573,-0.883,-0.2139,1.8041,-0.6789,-0.1074
1.7168,-0.6907,1.2789,-1.1025,0.2063,-0.144,1.4044,-0.0287,0.2977,0.9348,-0.3845,-0.8734,-0.2364,1.8055,-0.6965,-0.1071
1.7168,-0.6907,1.2789,-1.1025,0.2063,-0.144,1.4044,-0.0287,0.2977,0.9348,-0.3845,-0.8734,-0.2364,1.8055,-0.6965,-0.1071
1.6654,-0.6165,1.2037,-1.0442,0.1658,-0.1368,1.4301,-0.0425,0.3348,0.969,-0.4409,-0.8364,-0.2446,1.8018,-0.7141,-0.1068
1.6654,-0.6165,1.2037,-1.0442,0.1658,-0.1368,1.4301,-0.0425,0.3348,0.969,-0.4409,-0.8364,-0.2446,1.8018,-0.7141,-0.1068
1.5958,-0.5498,1.1869,-1.07,0.154,-0.1539,1.4301,-0.0425,0.2843,1.1297,-0.4733,-0.8192,-0.2364,1.8055,-0.7179,-0.1114
1.5958,-0.5498,1.1869,-1.07,0.154,-0.1539,1.4301,-0.0425,0.2843,1.1297,-0.4733,-0.8192,-0.2364,1.8055,-0.7179,-0.1114
1.5294,-0.5545,1.2281,-1.1792,0.1487,-0.1803,1.4151,-0.0325,0.3212,1.1646,-0.4785,-0.8117,-0.165,1.7802,-0.7179,-0.1114
1.5294,-0.5545,1.2281,-1.1792,0.1487,-0.1803,1.4151,-0.0325,0.3212,1.1646,-0.4785,-0.8117,-0.165,1.7802,-0.7179,-0.1114
1.4633,-0.5592,1.4522,-1.3524,0.1956,-0.1969,1.4129,-0.0177,0.2035,1.1582,-0.4567,-0.8137,-0.1424,1.7789,-0.7141,-0.1068
1.4939,-0.57,1.6194,-1.4426,0.26,-0.1701,1.4364,0.0068,0.2035,1.1582,-0.3962,-0.8122,-0.1381,1.8038,-0.6872,-0.1005
1.4939,-0.57,1.6194,-1.4426,0.26,-0.1701,1.4364,0.0068,0.2035,1.1582,-0.3962,-0.8122,-0.1381,1.8038,-0.6872,-0.1005
1.6087,-0.5684,1.6549,-1.3928,0.3841,-0.1428,1.4879,0.0261,0.4093,1.0377,-0.3019,-0.7996,-0.152,1.8551,-0.6434,-0.0882
1.6087,-0.5684,1.6549,-1.3928,0.3841,-0.1428,1.4879,0.0261,0.4093,1.0377,-0.3019,-0.7996,-0.152,1.8551,-0.6434,-0.0882
1.6087,-0.5684,1.6549,-1.3928,0.3841,-0.1428,1.4879,0.0261,0.4093,1.0377,-0.3019,-0.7996,-0.152,1.8551,-0.6434,-0.0882
1.6087,-0.5684,1.6549,-1.3928,0.3841,-0.1428,1.4879,0.0261,0.4093,1.0377,-0.3019,-0.7996,-0.152,1.8551,-0.6434,-0.0882
1.7244,-0.567,1.5276,-1.1586,0.4775,-0.1043,1.5332,0.0431,0.7362,0.9222,-0.1954,-0.7738,-0.1312,1.8876,-0.5957,-0.0713
1.7244,-0.567,1.5276,-1.1586,0.4775,-0.1043,1.5332,0.0431,0.7362,0.9222,-0.1954,-0.7738,-0.1312,1.8876,-0.5957,-0.0713
1.927,-0.5537,1.4021,-0.8249,0.6738,-0.0728,1.6524,0.0482,1.4002,0.7834,0.0233,-0.7116,-0.0465,1.8911,-0.4512,-0.0565
1.927,-0.5537,1.4021,-0.8249,0.6738,-0.0728,1.6524,0.0482,1.4002,0.7834,0.0233,-0.7116,-0.0465,1.8911,-0.4512,-0.0565
1.927,-0.5537,1.4021,-0.8249,0.6738,-0.0728,1.6524,0.0482,1.4002,0.7834,0.0233,-0.7116,-0.0465,1.8911,-0.4512,-0.0565
1.927,-0.5537,1.3851,-0.8514,0.7805,-0.1033,1.6742,0.0405,0.9175,1.2953,0.1237,-0.6885,0.0611,1.8464,-0.3661,-0.0465
1.927,-0.5537,1.3851,-0.8514,0.7805,-0.1033,1.6742,0.0405,0.9175,1.2953,0.1237,-0.6885,0.0611,1.8464,-0.3661,-0.0465
1.927,-0.5537,1.3851,-0.8514,0.7805,-0.1033,1.6742,0.0405,0.9175,1.2953,0.1237,-0.6885,0.0611,1.8464,-0.3661,-0.0465
1.9139,-0.5348,1.4148,-0.8943,0.8551,-0.1224,1.6742,0.0405,0.4701,1.3059,0.1452,-0.7196,0.0337,1.8227,-0.3679,-0.0439
1.927,-0.5537,1.4569,-1.0059,0.8255,-0.0975,1.6611,0.0357,0.277,1.2284,0.1581,-0.7534,0.0003,1.8079,-0.3802,-0.0415
1.927,-0.5537,1.4569,-1.0059,0.8255,-0.0975,1.6611,0.0357,0.277,1.2284,0.1581,-0.7534,0.0003,1.8079,-0.3802,-0.0415
2.0397,-0.5793,1.4864,-1.0483,0.7988,-0.059,1.6546,0.0333,0.2035,1.1582,0.1581,-0.7534,-0.0225,1.8093,-0.3859,-0.0435
2.0397,-0.5793,1.4864,-1.0483,0.7988,-0.059,1.6546,0.0333,0.2035,1.1582,0.1581,-0.7534,-0.0225,1.8093,-0.3859,-0.0435
2.1159,-0.6204,1.4864,-1.0483,0.7568,-0.0514,1.6524,0.0246,0.2912,1.0318,0.1106,-0.7308,-0.0452,1.8107,-0.3898,-0.0482
2.1159,-0.6204,1.4864,-1.0483,0.7568,-0.0514,1.6524,0.0246,0.2912,1.0318,0.1106,-0.7308,-0.0452,1.8107,-0.3898,-0.0482
2.1159,-0.6204,1.4864,-1.0483,0.7568,-0.0514,1.6524,0.0246,0.2912,1.0318,0.1106,-0.7308,-0.0452,1.8107,-0.3898,-0.0482
2.1159,-0.6204,1.4864,-1.0483,0.7568,-0.0514,1.6524,0.0246,0.2912,1.0318,0.1106,-0.7308,-0.0452,1.8107,-0.3898,-0.0482
2.1214,-0.5939,1.5505,-1.0389,0.7052,-0.0477,1.7307,-0.0173,0.459,0.8778,0.0158,-0.6856,-0.0679,1.8121,-0.3928,-0.0591
2.1214,-0.5939,1.5505,-1.0389,0.7052,-0.0477,1.7307,-0.0173,0.459,0.8778,0.0158,-0.6856,-0.0679,1.8121,-0.3928,-0.0591
2.0373,-0.5071,1.5209,-0.9964,0.6928,-0.0651,1.7569,-0.0312,0.4156,0.9404,-0.0014,-0.6912,-0.0535,1.807,-0.4032,-0.0595
2.0373,-0.5071,1.5209,-0.9964,0.6928,-0.0651,1.7569,-0.0312,0.4156,0.9404,-0.0014,-0.6912,-0.0535,1.807,-0.4032,-0.0595
1.9479,-0.4469,1.4741,-0.9798,0.6805,-0.0824,1.746,-0.0274,0.372,1.0033,-0.0186,-0.6968,-0.0042,1.783,-0.4144,-0.0535
1.9479,-0.4469,1.4741,-0.9798,0.6805,-0.0824,1.746,-0.0274,0.372,1.0033,-0.0186,-0.6968,-0.0042,1.783,-0.4144,-0.0535
1.8747,-0.4782,1.545,-1.133,0.6491,-0.1074,1.6915,-0.0081,0.4093,1.0377,-0.0164,-0.7151,0.0041,1.7866,-0.4219,-0.0528
1.8747,-0.4782,1.545,-1.133,0.6491,-0.1074,1.6915,-0.0081,0.4093,1.0377,-0.0164,-0.7151,0.0041,1.7866,-0.4219,-0.0528
1.8513,-0.5127,1.6034,-1.2171,0.6367,-0.1246,1.648,0.0072,0.5343,0.9459,-0.0089,-0.7411,-0.002,1.7954,-0.4266,-0.0512
1.8513,-0.5127,1.6034,-1.2171,0.6367,-0.1246,1.648,0.0072,0.5343,0.9459,-0.0089,-0.7411,-0.002,1.7954,-0.4266,-0.0512
1.8513,-0.5127,1.6034,-1.2171,0.6367,-0.1246,1.648,0.0072,0.5343,0.9459,-0.0089,-0.7411,-0.002,1.7954,-0.4266,-0.0512
1.8957,-0.5426,1.4864,-1.0483,0.6396,-0.1113,1.622,0.0212,0.9059,0.7672,0.0017,-0.7565,-0.0225,1.8093,-0.4266,-0.0512
1.8957,-0.5426,1.4274,-0.9633,0.6623,-0.1265,1.6177,0.0274,0.9403,0.8979,0.0103,-0.7537,-0.0369,1.8144,-0.4079,-0.0578
1.8957,-0.5426,1.4274,-0.9633,0.6623,-0.1265,1.6177,0.0274,0.9403,0.8979,0.0103,-0.7537,-0.0369,1.8144,-0.4079,-0.0578
1.9453,-0.5459,1.4148,-0.8943,0.7298,-0.1359,1.6285,0.0236,0.769,1.0546,0.0017,-0.7565,-0.0474,1.7982,-0.4032,-0.0595
1.9453,-0.5459,1.4148,-0.8943,0.7298,-0.1359,1.6285,0.0236,0.769,1.0546,0.0017,-0.7565,-0.0474,1.7982,-0.4032,-0.0595
1.9584,-0.5648,1.4741,-0.9798,0.7584,-0.1244,1.622,0.0212,0.2543,0.9974,0.0444,-0.818,-0.1017,1.7513,-0.4352,-0.0542
1.9584,-0.5648,1.4741,-0.9798,0.7584,-0.1244,1.622,0.0212,0.2543,0.9974,0.0444,-0.818,-0.1017,1.7513,-0.4352,-0.0542
1.9584,-0.5648,1.4741,-0.9798,0.7584,-0.1244,1.622,0.0212,0.2543,0.9974,0.0444,-0.818,-0.1017,1.7513,-0.4352,-0.0542
2.0527,-0.5981,1.4741,-0.9798,0.7223,-0.09,1.609,0.0163,0.1807,0.929,0.0358,-0.8208,-0.1182,1.7439,-0.4502,-0.0529
2.0527,-0.5981,1.4741,-0.9798,0.7223,-0.09,1.609,0.0163,0.1807,0.929,0.0358,-0.8208,-0.1182,1.7439,-0.4502,-0.0529
2.0527,-0.5981,1.4741,-0.9798,0.7223,-0.09,1.609,0.0163,0.1807,0.929,0.0358,-0.8208,-0.1182,1.7439,-0.4502,-0.0529
2.1475,-0.6316,1.4445,-0.9371,0.6995,-0.0747,1.6241,0.0063,0.2607,0.9008,0.0145,-0.79,-0.1386,1.7577,-0.4606,-0.0532
2.1475,-0.6316,1.4445,-0.9371,0.6995,-0.0747,1.6241,0.0063,0.2607,0.9008,0.0145,-0.79,-0.1386,1.7577,-0.4606,-0.0532
2.1661,-0.6239,1.4445,-0.9371,0.6833,-0.069,1.6567,-0.0053,0.2607,0.9008,-0.0347,-0.7494,-0.1325,1.749,-0.4644,-0.0578
2.1661,-0.6239,1.4445,-0.9371,0.6833,-0.069,1.6567,-0.0053,0.2607,0.9008,-0.0347,-0.7494,-0.1325,1.749,-0.4644,-0.0578
2.0898,-0.5827,1.4274,-0.9633,0.6643,-0.0767,1.6762,-0.0216,0.341,0.8724,-0.0764,-0.7347,-0.1039,1.7389,-0.4664,-0.0651
2.0898,-0.5827,1.4274,-0.9633,0.6643,-0.0767,1.6762,-0.0216,0.341,0.8724,-0.0764,-0.7347,-0.1039,1.7389,-0.4664,-0.0651
1.982,-0.5304,1.3638,-0.973,0.6358,-0.0883,1.6393,-0.0038,0.3038,0.8387,-0.1212,-0.7305,-0.0548,1.7149,-0.4731,-0.0708
1.982,-0.5304,1.3638,-0.973,0.6358,-0.0883,1.6393,-0.0038,0.3038,0.8387,-0.1212,-0.7305,-0.0548,1.7149,-0.4731,-0.0708
1.982,-0.5304,1.3638,-0.973,0.6358,-0.0883,1.6393,-0.0038,0.3038,0.8387,-0.1212,-0.7305,-0.0548,1.7149,-0.4731,-0.0708
1.8461,-0.5393,1.5103,-1.1842,0.5885,-0.1076,1.5938,0.0028,0.3038,0.8387,-0.1467,-0.7389,-0.0752,1.7287,-0.4844,-0.0747
1.8461,-0.5393,1.5103,-1.1842,0.5885,-0.1076,1.5938,0.0028,0.3038,0.8387,-0.1467,-0.7389,-0.0752,1.7287,-0.4844,-0.0747
1.7295,-0.5406,1.5219,-1.2515,0.5442,-0.1135,1.5462,0.0008,0.5022,0.8155,-0.1583,-0.7522,-0.0995,1.7637,-0.4929,-0.0777
1.7295,-0.5406,1.5219,-1.2515,0.5442,-0.1135,1.5462,0.0008,0.5022,0.8155,-0.1583,-0.7522,-0.0995,1.7637,-0.4929,-0.0777
1.7374,-0.5857,1.4929,-1.2097,0.5254,-0.1212,1.5225,-0.0002,0.9102,0.6713,-0.1785,-0.7682,-0.1342,1.7826,-0.5061,-0.0791
1.7374,-0.5857,1.4929,-1.2097,0.5254,-0.1212,1.5225,-0.0002,0.9102,0.6713,-0.1785,-0.7682,-0.1342,1.7826,-0.5061,-0.0791
1.7503,-0.6044,1.3761,-1.0414,0.5066,-0.1289,1.5246,-0.015,1.0753,0.613,-0.1901,-0.7814,-0.1485,1.7876,-0.5006,-0.087
1.7503,-0.6044,1.3761,-1.0414,0.5066,-0.1289,1.5246,-0.015,1.0753,0.613,-0.1901,-0.7814,-0.1485,1.7876,-0.5006,-0.087
1.7503,-0.6044,1.149,-0.8649,0.5358,-0.1535,1.4945,-0.0184,0.7246,1.1187,-0.2208,-0.7821,-0.1732,1.7766,-0.5016,-0.0906
1.7503,-0.6044,1.149,-0.8649,0.5358,-0.1535,1.4945,-0.0184,0.7246,1.1187,-0.2208,-0.7821,-0.1732,1.7766,-0.5016,-0.0906
1.7503,-0.6044,1.149,-0.8649,0.5358,-0.1535,1.4945,-0.0184,0.7246,1.1187,-0.2208,-0.7821,-0.1732,1.7766,-0.5016,-0.0906
1.7193,-0.5934,1.1324,-0.8912,0.5423,-0.163,1.4816,-0.0232,0.4026,1.1359,-0.2165,-0.8182,-0.2083,1.7494,-0.5287,-0.087
1.7193,-0.5934,1.1324,-0.8912,0.5423,-0.163,1.4816,-0.0232,0.4026,1.1359,-0.2165,-0.8182,-0.2083,1.7494,-0.5287,-0.087
1.7684,-0.5967,1.1912,-0.976,0.5292,-0.1441,1.4751,-0.0257,0.3282,1.0664,-0.2282,-0.8314,-0.2329,1.7384,-0.5576,-0.0808
1.8746,-0.6483,1.2037,-1.0442,0.4747,-0.1176,1.4515,-0.0267,0.3282,1.0664,-0.2577,-0.8037,-0.2209,1.7211,-0.5725,-0.0795
1.8746,-0.6483,1.2037,-1.0442,0.4747,-0.1176,1.4515,-0.0267,0.3282,1.0664,-0.2577,-0.8037,-0.2209,1.7211,-0.5725,-0.0795
1.937,-0.6704,1.2329,-1.0862,0.4401,-0.1197,1.4558,-0.0329,0.2475,1.0949,-0.3094,-0.7739,-0.2373,1.7137,-0.5967,-0.0749
1.937,-0.6704,1.2329,-1.0862,0.4401,-0.1197,1.4558,-0.0329,0.2475,1.0949,-0.3094,-0.7739,-0.2373,1.7137,-0.5967,-0.0749
1.8852,-0.5956,1.2329,-1.0862,0.3989,-0.1124,1.4816,-0.0466,0.2402,1.1933,-0.3284,-0.7614,-0.2149,1.7124,-0.6005,-0.0796
1.7916,-0.5625,1.245,-1.1537,0.3617,-0.1278,1.4644,-0.0452,0.277,1.2284,-0.3421,-0.7566,-0.1579,1.6922,-0.6089,-0.0825
1.7916,-0.5625,1.245,-1.1537,0.3617,-0.1278,1.4644,-0.0452,0.277,1.2284,-0.3421,-0.7566,-0.1579,1.6922,-0.6089,-0.0825
1.6575,-0.5716,1.2687,-1.2875,0.3126,-0.1603,1.4087,-0.0349,0.277,1.2284,-0.3315,-0.7719,-0.1496,1.6959,-0.6173,-0.0855
1.6575,-0.5716,1.2687,-1.2875,0.3126,-0.1603,1.4087,-0.0349,0.277,1.2284,-0.3315,-0.7719,-0.1496,1.6959,-0.6173,-0.0855
1.6575,-0.5716,1.2687,-1.2875,0.3126,-0.1603,1.4087,-0.0349,0.277,1.2284,-0.3315,-0.7719,-0.1496,1.6959,-0.6173,-0.0855
1.5909,-0.5762,1.2973,-1.3288,0.298,-0.1906,1.3531,-0.0246,0.4467,1.0723,-0.3482,-0.7775,-0.176,1.7183,-0.6286,-0.0895
1.5909,-0.5762,1.2973,-1.3288,0.298,-0.1906,1.3531,-0.0246,0.4467,1.0723,-0.3482,-0.7775,-0.176,1.7183,-0.6286,-0.0895
1.5909,-0.5762,1.2973,-1.3288,0.298,-0.1906,1.3531,-0.0246,0.4467,1.0723,-0.3482,-0.7775,-0.176,1.7183,-0.6286,-0.0895
1.5245,-0.5808,1.1943,-1.23,0.2638,-0.1927,1.3297,-0.0257,0.6101,1.0146,-0.365,-0.783,-0.2045,1.7284,-0.6277,-0.0958
1.5245,-0.5808,1.1943,-1.23,0.2638,-0.1927,1.3297,-0.0257,0.6101,1.0146,-0.365,-0.783,-0.2045,1.7284,-0.6277,-0.0958
1.489,-0.5962,1.0622,-1.0891,0.3305,-0.2375,1.3085,-0.0415,0.2402,1.1933,-0.4234,-0.8025,-0.2657,1.7238,-0.6463,-0.0991
1.489,-0.5962,1.0622,-1.0891,0.3305,-0.2375,1.3085,-0.0415,0.2402,1.1933,-0.4234,-0.8025,-0.2657,1.7238,-0.6463,-0.0991
1.489,-0.5962,1.0622,-1.0891,0.3305,-0.2375,1.3085,-0.0415,0.2402,1.1933,-0.4234,-0.8025,-0.2657,1.7238,-0.6463,-0.0991
1.489,-0.5962,1.0622,-1.0891,0.3425,-0.2205,1.3021,-0.0439,-0.0292,1.145,-0.4379,-0.826,-0.3125,1.7142,-0.6658,-0.0962
1.489,-0.5962,1.0622,-1.0891,0.3425,-0.2205,1.3021,-0.0439,-0.0292,1.145,-0.4379,-0.826,-0.3125,1.7142,-0.6658,-0.0962
1.6424,-0.6504,1.1077,-1.1052,0.3573,-0.1903,1.3255,-0.0428,-0.1008,1.0756,-0.4243,-0.8308,-0.3489,1.7205,-0.6648,-0.0926
1.6424,-0.6504,1.1077,-1.1052,0.3573,-0.1903,1.3255,-0.0428,-0.1008,1.0756,-0.4243,-0.8308,-0.3489,1.7205,-0.6648,-0.0926
1.7271,-0.6383,1.1244,-1.0795,0.3814,-0.1561,1.3895,-0.0421,-0.0145,0.9511,-0.3879,-0.8094,-0.3267,1.7192,-0.636,-0.0889
1.7271,-0.6383,1.1244,-1.0795,0.3814,-0.1561,1.3895,-0.0421,-0.0145,0.9511,-0.3879,-0.8094,-0.3267,1.7192,-0.636,-0.0889
1.8228,-0.5735,1.1286,-0.9858,0.4653,-0.1215,1.473,-0.0343,0.1375,0.9914,-0.3094,-0.7739,-0.2395,1.7014,-0.5921,-0.0766
1.8228,-0.5735,1.1286,-0.9858,0.4653,-0.1215,1.473,-0.0343,0.1375,0.9914,-0.3094,-0.7739,-0.2395,1.7014,-0.5921,-0.0766
1.8331,-0.5205,1.2329,-1.0862,0.5442,-0.1135,1.5095,-0.005,0.1807,0.929,-0.2114,-0.7508,-0.1519,1.6836,-0.5367,-0.0603
1.8331,-0.5205,1.2329,-1.0862,0.5442,-0.1135,1.5095,-0.005,0.1807,0.929,-0.2114,-0.7508,-0.1519,1.6836,-0.5367,-0.0603
1.8331,-0.5205,1.2329,-1.0862,0.5442,-0.1135,1.5095,-0.005,0.1807,0.929,-0.2114,-0.7508,-0.1519,1.6836,-0.5367,-0.0603
1.8331,-0.5205,1.4465,-1.1933,0.6074,-0.0999,1.544,0.0157,0.3782,0.9064,-0.0934,-0.7403,-0.1023,1.7054,-0.4793,-0.0466
1.8331,-0.5205,1.4465,-1.1933,0.6074,-0.0999,1.544,0.0157,0.3782,0.9064,-0.0934,-0.7403,-0.1023,1.7054,-0.4793,-0.0466
1.8331,-0.5205,1.4465,-1.1933,0.6074,-0.0999,1.544,0.0157,0.3782,0.9064,-0.0934,-0.7403,-0.1023,1.7054,-0.4793,-0.0466
1.9873,-0.5037,1.5974,-1.0555,0.7701,-0.0706,1.6198,0.0361,0.8623,0.83,0.0825,-0.7208,-0.0851,1.7586,-0.3857,-0.0335
1.9873,-0.5037,1.5974,-1.0555,0.7701,-0.0706,1.6198,0.0361,0.8623,0.83,0.0825,-0.7208,-0.0851,1.7586,-0.3857,-0.0335
2.0426,-0.4804,1.5258,-0.9011,0.841,-0.0666,1.6329,0.0409,0.8962,0.9615,0.1399,-0.7118,-0.0768,1.7623,-0.3403,-0.0375
2.0426,-0.4804,1.5258,-0.9011,0.841,-0.0666,1.6329,0.0409,0.8962,0.9615,0.1399,-0.7118,-0.0768,1.7623,-0.3403,-0.0375
2.0796,-0.4647,1.5603,-0.8483,0.9681,-0.0897,1.6655,0.0294,0.6419,1.1479,0.1539,-0.7168,-0.073,1.7411,-0.3223,-0.0379
2.0796,-0.4647,1.5603,-0.8483,0.9681,-0.0897,1.6655,0.0294,0.6419,1.1479,0.1539,-0.7168,-0.073,1.7411,-0.3223,-0.0379
2.0796,-0.4647,1.5603,-0.8483,0.9681,-0.0897,1.6655,0.0294,0.6419,1.1479,0.1539,-0.7168,-0.073,1.7411,-0.3223,-0.0379
2.0479,-0.4535,1.5603,-0.8483,1.0009,-0.1013,1.6698,0.0232,0.372,1.0033,0.1668,-0.7506,-0.1023,1.7054,-0.3412,-0.0312
2.0479,-0.4535,1.5603,-0.8483,1.0009,-0.1013,1.6698,0.0232,0.372,1.0033,0.1668,-0.7506,-0.1023,1.7054,-0.3412,-0.0312
2.0479,-0.4535,1.5603,-0.8483,1.0009,-0.1013,1.6698,0.0232,0.372,1.0033,0.1668,-0.7506,-0.1023,1.7054,-0.3412,-0.0312
2.1509,-0.5329,1.5258,-0.9011,0.948,-0.0607,1.6568,0.0183,0.2238,0.8669,0.1634,-0.7611,-0.1436,1.6872,-0.3667,-0.0302
2.1509,-0.5329,1.5258,-0.9011,0.948,-0.0607,1.6568,0.0183,0.2238,0.8669,0.1634,-0.7611,-0.1436,1.6872,-0.3667,-0.0302
2.1827,-0.5442,1.5085,-0.9274,0.9219,-0.0588,1.6937,0.0005,0.2667,0.805,0.1246,-0.7357,-0.1579,1.6922,-0.3677,-0.0339
2.1564,-0.5062,1.4616,-0.9109,0.919,-0.0723,1.7416,-0.0211,0.341,0.8724,0.1052,-0.723,-0.1211,1.6858,-0.3565,-0.0399
2.1564,-0.5062,1.4616,-0.9109,0.919,-0.0723,1.7416,-0.0211,0.341,0.8724,0.1052,-0.723,-0.1211,1.6858,-0.3565,-0.0399
2.1564,-0.5062,1.4616,-0.9109,0.919,-0.0723,1.7416,-0.0211,0.341,0.8724,0.1052,-0.723,-0.1211,1.6858,-0.3565,-0.0399
2.0796,-0.4647,1.4103,-0.9894,0.9033,-0.1032,1.7264,-0.011,0.341,0.8724,0.0825,-0.7208,-0.0578,1.6569,-0.3585,-0.0472
2.0796,-0.4647,1.4103,-0.9894,0.9033,-0.1032,1.7264,-0.011,0.341,0.8724,0.0825,-0.7208,-0.0578,1.6569,-0.3585,-0.0472
2.0796,-0.4647,1.4103,-0.9894,0.9033,-0.1032,1.7264,-0.011,0.341,0.8724,0.0825,-0.7208,-0.0578,1.6569,-0.3585,-0.0472
2.0796,-0.4647,1.4103,-0.9894,0.9033,-0.1032,1.7264,-0.011,0.341,0.8724,0.0825,-0.7208,-0.0578,1.6569,-0.3585,-0.0472
1.8616,-0.4593,1.5219,-1.2515,0.8166,-0.1377,1.6459,0.0222,0.2607,0.9008,0.0534,-0.7398,-0.0412,1.6641,-0.3661,-0.0465
1.8616,-0.4593,1.5219,-1.2515,0.8166,-0.1377,1.6459,0.0222,0.2607,0.9008,0.0534,-0.7398,-0.0412,1.6641,-0.3661,-0.0465
1.8616,-0.4593,1.5219,-1.2515,0.8166,-0.1377,1.6459,0.0222,0.2607,0.9008,0.0534,-0.7398,-0.0412,1.6641,-0.3661,-0.0465
1.8616,-0.4593,1.5219,-1.2515,0.8166,-0.1377,1.6459,0.0222,0.2607,0.9008,0.0534,-0.7398,-0.0412,1.6641,-0.3661,-0.0465
1.8878,-0.4971,1.5683,-1.2679,0.7842,-0.1263,1.6415,0.0284,0.7462,0.7293,0.0587,-0.7475,-0.0737,1.6953,-0.3604,-0.0445
1.8878,-0.4971,1.5683,-1.2679,0.7842,-0.1263,1.6415,0.0284,0.7462,0.7293,0.0587,-0.7475,-0.0737,1.6953,-0.3604,-0.0445
1.9322,-0.5271,1.4519,-1.1,0.7842,-0.1263,1.6481,0.0308,1.1184,0.5509,0.0674,-0.7447,-0.0857,1.7127,-0.3452,-0.0458
2.0082,-0.5681,1.3342,-0.9304,0.7842,-0.1263,1.6764,0.0256,1.115,0.646,0.076,-0.7419,-0.1001,1.7178,-0.3159,-0.0522
2.0082,-0.5681,1.3342,-0.9304,0.7842,-0.1263,1.6764,0.0256,1.115,0.646,0.076,-0.7419,-0.1001,1.7178,-0.3159,-0.0522
2.0135,-0.5416,1.2749,-0.8449,0.8004,-0.132,1.7047,0.0203,0.9353,0.9959,0.0846,-0.7391,-0.094,1.7091,-0.296,-0.0552
2.0135,-0.5416,1.2749,-0.8449,0.8004,-0.132,1.7047,0.0203,0.9353,0.9959,0.0846,-0.7391,-0.094,1.7091,-0.296,-0.0552
2.0636,-0.545,1.2582,-0.8713,0.8587,-0.1454,1.7003,0.0266,0.6732,1.2831,0.0846,-0.7391,-0.1023,1.7054,-0.2903,-0.0532
2.0636,-0.545,1.2582,-0.8713,0.8587,-0.1454,1.7003,0.0266,0.6732,1.2831,0.0846,-0.7391,-0.1023,1.7054,-0.2903,-0.0532
2.0636,-0.545,1.2582,-0.8713,0.8587,-0.1454,1.7003,0.0266,0.6732,1.2831,0.0846,-0.7391,-0.1023,1.7054,-0.2903,-0.0532
2.1586,-0.5785,1.2835,-1.0086,0.8714,-0.1282,1.6829,0.028,0.4773,1.206,0.1094,-0.7595,-0.1293,1.6822,-0.3168,-0.0459
2.1586,-0.5785,1.2835,-1.0086,0.8714,-0.1282,1.6829,0.028,0.4773,1.206,0.1094,-0.7595,-0.1293,1.6822,-0.3168,-0.0459
2.1586,-0.5785,1.2835,-1.0086,0.8714,-0.1282,1.6829,0.028,0.4773,1.206,0.1094,-0.7595,-0.1293,1.6822,-0.3168,-0.0459
2.1958,-0.5631,1.3128,-1.0509,0.8484,-0.1128,1.6981,0.0179,0.5595,1.177,0.0879,-0.7286,-0.1436,1.6872,-0.3262,-0.0425
2.1958,-0.5631,1.3128,-1.0509,0.8484,-0.1128,1.6981,0.0179,0.5595,1.177,0.0879,-0.7286,-0.1436,1.6872,-0.3262,-0.0425
2.1958,-0.5631,1.3128,-1.0509,0.8484,-0.1128,1.6981,0.0179,0.5595,1.177,0.0879,-0.7286,-0.1436,1.6872,-0.3262,-0.0425
2.1958,-0.5631,1.3128,-1.0509,0.8484,-0.1128,1.6981,0.0179,0.5595,1.177,0.0879,-0.7286,-0.1436,1.6872,-0.3262,-0.0425
2.0743,-0.4915,1.2619,-1.1281,0.81,-0.1282,1.6611,0.0121,0.4327,1.2704,0.0772,-0.7131,-0.0352,1.6555,-0.3395,-0.0438
2.0743,-0.4915,1.2619,-1.1281,0.81,-0.1282,1.6611,0.0121,0.4327,1.2704,0.0772,-0.7131,-0.0352,1.6555,-0.3395,-0.0438
2.0743,-0.4915,1.2619,-1.1281,0.81,-0.1282,1.6611,0.0121,0.4327,1.2704,0.0772,-0.7131,-0.0352,1.6555,-0.3395,-0.0438
1.9506,-0.5193,1.4235,-1.311,0.7525,-0.1512,1.5895,0.0091,0.6482,1.0491,0.0427,-0.7243,-0.1001,1.7178,-0.3726,-0.0422
1.9506,-0.5193,1.4235,-1.311,0.7525,-0.1512,1.5895,0.0091,0.6482,1.0491,0.0427,-0.7243,-0.1001,1.7178,-0.3726,-0.0422
1.9322,-0.5271,1.3369,-1.1862,0.7173,-0.1531,1.5656,0.0081,0.8186,0.8931,0.0061,-0.7172,-0.1083,1.7141,-0.3718,-0.0485
1.9322,-0.5271,1.3369,-1.1862,0.7173,-0.1531,1.5656,0.0081,0.8186,0.8931,0.0061,-0.7172,-0.1083,1.7141,-0.3718,-0.0485
1.9322,-0.5271,1.3369,-1.1862,0.7173,-0.1531,1.5656,0.0081,0.8186,0.8931,0.0061,-0.7172,-0.1083,1.7141,-0.3718,-0.0485
1.9453,-0.5459,1.2497,-1.0604,0.7012,-0.1474,1.5635,-0.0006,0.7362,0.9222,-0.0389,-0.713,-0.1309,1.7155,-0.3644,-0.0591
1.9453,-0.5459,1.2497,-1.0604,0.7012,-0.1474,1.5635,-0.0006,0.7362,0.9222,-0.0389,-0.713,-0.1309,1.7155,-0.3644,-0.0591
1.9139,-0.5348,1.2037,-1.0442,0.7305,-0.1722,1.5548,-0.0116,0.4842,1.1071,-0.087,-0.7193,-0.1354,1.6908,-0.3748,-0.0595
1.9139,-0.5348,1.2037,-1.0442,0.7305,-0.1722,1.5548,-0.0116,0.4842,1.1071,-0.087,-0.7193,-0.1354,1.6908,-0.3748,-0.0595
1.9139,-0.5348,1.2037,-1.0442,0.7305,-0.1722,1.5548,-0.0116,0.4842,1.1071,-0.087,-0.7193,-0.1354,1.6908,-0.3748,-0.0595
1.8774,-0.5503,1.1992,-1.1375,0.7144,-0.1665,1.5397,-0.025,0.0216,0.9853,-0.0924,-0.7871,-0.2072,1.6704,-0.4323,-0.0532
1.8774,-0.5503,1.1992,-1.1375,0.7144,-0.1665,1.5397,-0.025,0.0216,0.9853,-0.0924,-0.7871,-0.2072,1.6704,-0.4323,-0.0532
1.8774,-0.5503,1.1992,-1.1375,0.7144,-0.1665,1.5397,-0.025,0.0216,0.9853,-0.0924,-0.7871,-0.2072,1.6704,-0.4323,-0.0532
2.0028,-0.5947,1.1992,-1.1375,0.6784,-0.1322,1.5181,-0.0174,-0.0145,0.9511,-0.0903,-0.8052,-0.2296,1.6718,-0.4484,-0.0555
2.0028,-0.5947,1.1992,-1.1375,0.6784,-0.1322,1.5181,-0.0174,-0.0145,0.9511,-0.0903,-0.8052,-0.2296,1.6718,-0.4484,-0.0555
2.0028,-0.5947,1.1992,-1.1375,0.6784,-0.1322,1.5181,-0.0174,-0.0145,0.9511,-0.0903,-0.8052,-0.2296,1.6718,-0.4484,-0.0555
2.1159,-0.6204,1.216,-1.1119,0.6207,-0.119,1.5634,-0.0475,0.187,0.8332,-0.1668,-0.755,-0.246,1.6645,-0.4607,-0.0631
2.1159,-0.6204,1.216,-1.1119,0.6207,-0.119,1.5634,-0.0475,0.187,0.8332,-0.1668,-0.755,-0.246,1.6645,-0.4607,-0.0631
2.1159,-0.6204,1.216,-1.1119,0.6207,-0.119,1.5634,-0.0475,0.187,0.8332,-0.1668,-0.755,-0.246,1.6645,-0.4607,-0.0631
2.0504,-0.5261,1.216,-1.1119,0.6017,-0.1267,1.5893,-0.0613,0.1807,0.929,-0.2029,-0.748,-0.2482,1.6523,-0.4692,-0.0661
2.0504,-0.5261,1.216,-1.1119,0.6017,-0.1267,1.5893,-0.0613,0.1807,0.929,-0.2029,-0.748,-0.2482,1.6523,-0.4692,-0.0661
1.9662,-0.439,1.1869,-1.07,0.6149,-0.1457,1.5807,-0.0489,0.174,1.0258,-0.2527,-0.7362,-0.1937,1.62,-0.4796,-0.0665
1.8667,-0.4325,1.2739,-1.1954,0.5772,-0.161,1.5375,-0.0337,0.2175,0.9631,-0.2726,-0.7523,-0.1818,1.6028,-0.4974,-0.0662
1.8667,-0.4325,1.2739,-1.1954,0.5772,-0.161,1.5375,-0.0337,0.2175,0.9631,-0.2726,-0.7523,-0.1818,1.6028,-0.4974,-0.0662
1.8667,-0.4325,1.2739,-1.1954,0.5772,-0.161,1.5375,-0.0337,0.2175,0.9631,-0.2726,-0.7523,-0.1818,1.6028,-0.4974,-0.0662
1.8251,-0.475,1.4062,-1.3361,0.5555,-0.182,1.488,-0.0208,0.2175,0.9631,-0.2842,-0.7655,-0.1959,1.6078,-0.5181,-0.0668
1.8251,-0.475,1.4062,-1.3361,0.5555,-0.182,1.488,-0.0208,0.2175,0.9631,-0.2842,-0.7655,-0.1959,1.6078,-0.5181,-0.0668
1.8644,-0.5315,1.4348,-1.3774,0.5366,-0.1896,1.4536,-0.0181,0.5833,0.7868,-0.282,-0.7836,-0.2504,1.64,-0.5358,-0.0666
1.8774,-0.5503,1.3369,-1.1862,0.5272,-0.1934,1.4472,-0.0205,0.828,0.7003,-0.2988,-0.7892,-0.2929,1.655,-0.5443,-0.0695
1.8774,-0.5503,1.3369,-1.1862,0.5272,-0.1934,1.4472,-0.0205,0.828,0.7003,-0.2988,-0.7892,-0.2929,1.655,-0.5443,-0.0695
1.8331,-0.5205,1.1912,-0.976,0.5113,-0.1878,1.4408,-0.0229,0.9059,0.7672,-0.3125,-0.7843,-0.3152,1.6564,-0.5323,-0.0817
1.8331,-0.5205,1.1912,-0.976,0.5113,-0.1878,1.4408,-0.0229,0.9059,0.7672,-0.3125,-0.7843,-0.3152,1.6564,-0.5323,-0.0817
1.8331,-0.5205,1.1912,-0.976,0.5113,-0.1878,1.4408,-0.0229,0.9059,0.7672,-0.3125,-0.7843,-0.3152,1.6564,-0.5323,-0.0817
1.7888,-0.4906,1.1324,-0.8912,0.5272,-0.1934,1.4386,-0.0315,0.6922,0.9856,-0.3346,-0.7823,-0.3314,1.6491,-0.5362,-0.0864
1.7758,-0.4718,1.1951,-0.8812,0.5846,-0.2065,1.4451,-0.0291,0.3653,1.1011,-0.3733,-0.7858,-0.358,1.6261,-0.5539,-0.0861
1.7758,-0.4718,1.1951,-0.8812,0.5846,-0.2065,1.4451,-0.0291,0.3653,1.1011,-0.3733,-0.7858,-0.358,1.6261,-0.5539,-0.0861
1.7758,-0.4718,1.1951,-0.8812,0.5846,-0.2065,1.4451,-0.0291,0.3653,1.1011,-0.3733,-0.7858,-0.358,1.6261,-0.5539,-0.0861
1.7265,-0.4686,1.2541,-0.9663,0.5846,-0.2065,1.4386,-0.0315,0.0941,1.054,-0.3606,-0.819,-0.3785,1.5945,-0.5838,-0.0835
1.7265,-0.4686,1.2541,-0.9663,0.5846,-0.2065,1.4386,-0.0315,0.0941,1.054,-0.3606,-0.819,-0.3785,1.5945,-0.5838,-0.0835
1.7265,-0.4686,1.2541,-0.9663,0.5846,-0.2065,1.4386,-0.0315,0.0941,1.054,-0.3606,-0.819,-0.3785,1.5945,-0.5838,-0.0835
1.828,-0.5471,1.1618,-0.9337,0.501,-0.1556,1.4044,-0.0287,-0.0864,0.8833,-0.3962,-0.8122,-0.4249,1.5851,-0.6312,-0.0806
1.8592,-0.5581,1.1158,-0.9174,0.4851,-0.1499,1.4408,-0.0463,-0.0438,0.8218,-0.4528,-0.775,-0.4249,1.5851,-0.635,-0.0852
1.8592,-0.5581,1.1158,-0.9174,0.4851,-0.1499,1.4408,-0.0463,-0.0438,0.8218,-0.4528,-0.775,-0.4249,1.5851,-0.635,-0.0852
1.8592,-0.5581,1.1158,-0.9174,0.4851,-0.1499,1.4408,-0.0463,-0.0438,0.8218,-0.4528,-0.775,-0.4249,1.5851,-0.635,-0.0852
1.8019,-0.5095,1.024,-0.885,0.4757,-0.1538,1.4665,-0.06,0.0348,0.794,-0.4852,-0.7578,-0.3829,1.5702,-0.636,-0.0889
1.8019,-0.5095,1.024,-0.885,0.4757,-0.1538,1.4665,-0.06,0.0348,0.794,-0.4852,-0.7578,-0.3829,1.5702,-0.636,-0.0889
1.7085,-0.4765,1.0497,-1.0215,0.4888,-0.1727,1.458,-0.0476,-0.0375,0.7274,-0.4935,-0.7606,-0.3348,1.5468,-0.6378,-0.0862
1.7085,-0.4765,1.0497,-1.0215,0.4888,-0.1727,1.458,-0.0476,-0.0375,0.7274,-0.4935,-0.7606,-0.3348,1.5468,-0.6378,-0.0862
1.6415,-0.4812,1.1655,-1.1885,0.5076,-0.165,1.4494,-0.0353,0.0348,0.794,-0.4195,-0.7638,-0.306,1.5818,-0.6107,-0.0799
1.6415,-0.4812,1.1655,-1.1885,0.5076,-0.165,1.4494,-0.0353,0.0348,0.794,-0.4195,-0.7638,-0.306,1.5818,-0.6107,-0.0799
1.6415,-0.4812,1.1655,-1.1885,0.5076,-0.165,1.4494,-0.0353,0.0348,0.794,-0.4195,-0.7638,-0.306,1.5818,-0.6107,-0.0799
1.6905,-0.4843,1.2112,-1.2047,0.58,-0.1477,1.4708,-0.0195,0.5123,0.6253,-0.2979,-0.7607,-0.2772,1.617,-0.5584,-0.0745
