-49.307,145.9,-25.311,82.062,-120.58,136.64,-20.935,85.663,-202.31,315.72,-50.877,160.02,-124.14,235.16,-5.4421,110.51
-49.647,145.6,-25.68,81.94,-121.14,136.35,-20.94,85.747,-202.42,314.43,-51.235,159.85,-124.49,234.8,-5.3981,110.32
-49.647,145.6,-25.68,81.94,-121.14,136.35,-20.94,85.747,-202.42,314.43,-51.235,159.85,-124.49,234.8,-5.3981,110.32
-49.985,145.29,-26.049,81.818,-121.7,136.05,-20.944,85.831,-202.51,313.13,-51.593,159.68,-124.83,234.43,-5.3534,110.14
-49.985,145.29,-26.049,81.818,-121.7,136.05,-20.944,85.831,-202.51,313.13,-51.593,159.68,-124.83,234.43,-5.3534,110.14
-50.321,144.97,-26.419,81.694,-122.25,135.74,-20.946,85.918,-202.6,311.82,-51.952,159.5,-125.16,234.05,-5.308,109.96
-50.321,144.97,-26.419,81.694,-122.25,135.74,-20.946,85.918,-202.6,311.82,-51.952,159.5,-125.16,234.05,-5.308,109.96
-50.321,144.97,-26.419,81.694,-122.25,135.74,-20.946,85.918,-202.6,311.82,-51.952,159.5,-125.16,234.05,-5.308,109.96
-50.654,144.65,-26.789,81.569,-122.79,135.42,-20.946,86.006,-202.69,310.49,-52.311,159.33,-125.48,233.66,-5.262,109.78
-50.654,144.65,-26.789,81.569,-122.79,135.42,-20.946,86.006,-202.69,310.49,-52.311,159.33,-125.48,233.66,-5.262,109.78
-50.654,144.65,-26.789,81.569,-122.79,135.42,-20.946,86.006,-202.69,310.49,-52.311,159.33,-125.48,233.66,-5.262,109.78
-50.985,144.31,-27.16,81.443,-123.33,135.08,-20.944,86.096,-202.76,309.15,-52.671,159.15,-125.8,233.26,-5.2153,109.6
-51.314,143.97,-27.53,81.316,-123.86,134.74,-20.941,86.187,-202.82,307.8,-53.032,158.97,-126.12,232.85,-5.1679,109.42
-51.64,143.62,-27.902,81.188,-124.39,134.38,-20.937,86.28,-202.88,306.43,-53.394,158.79,-126.42,232.43,-5.1199,109.24
-51.64,143.62,-27.902,81.188,-124.39,134.38,-20.937,86.28,-202.88,306.43,-53.394,158.79,-126.42,232.43,-5.1199,109.24
-51.64,143.62,-27.902,81.188,-124.39,134.38,-20.937,86.28,-202.88,306.43,-53.394,158.79,-126.42,232.43,-5.1199,109.24
-51.964,143.26,-28.273,81.059,-124.91,134.01,-20.931,86.375,-202.93,305.05,-53.756,158.61,-126.73,232,-5.0712,109.06
-51.964,143.26,-28.273,81.059,-124.91,134.01,-20.931,86.375,-202.93,305.05,-53.756,158.61,-126.73,232,-5.0712,109.06
-51.964,143.26,-28.273,81.059,-124.91,134.01,-20.931,86.375,-202.93,305.05,-53.756,158.61,-126.73,232,-5.0712,109.06
-52.285,142.89,-28.646,80.929,-125.42,133.63,-20.923,86.472,-202.97,303.65,-54.119,158.43,-127.02,231.56,-5.0219,108.89
-52.604,142.51,-29.018,80.798,-125.93,133.24,-20.914,86.57,-203,302.24,-54.483,158.24,-127.31,231.11,-4.9719,108.71
-52.604,142.51,-29.018,80.798,-125.93,133.24,-20.914,86.57,-203,302.24,-54.483,158.24,-127.31,231.11,-4.9719,108.71
-52.92,142.13,-29.391,80.665,-126.43,132.84,-20.903,86.671,-203.02,300.81,-54.847,158.05,-127.59,230.65,-4.9213,108.54
-52.92,142.13,-29.391,80.665,-126.43,132.84,-20.903,86.671,-203.02,300.81,-54.847,158.05,-127.59,230.65,-4.9213,108.54
-53.234,141.73,-29.764,80.532,-126.93,132.42,-20.89,86.772,-203.04,299.37,-55.212,157.86,-127.87,230.18,-4.87,108.37
-53.234,141.73,-29.764,80.532,-126.93,132.42,-20.89,86.772,-203.04,299.37,-55.212,157.86,-127.87,230.18,-4.87,108.37
-53.545,141.33,-30.138,80.397,-127.42,131.99,-20.876,86.876,-203.04,297.92,-55.578,157.67,-128.14,229.69,-4.8181,108.19
-53.545,141.33,-30.138,80.397,-127.42,131.99,-20.876,86.876,-203.04,297.92,-55.578,157.67,-128.14,229.69,-4.8181,108.19
-53.854,140.92,-30.512,80.261,-127.91,131.56,-20.86,86.982,-203.04,296.45,-55.945,157.48,-128.4,229.2,-4.7656,108.02
-53.854,140.92,-30.512,80.261,-127.91,131.56,-20.86,86.982,-203.04,296.45,-55.945,157.48,-128.4,229.2,-4.7656,108.02
-54.16,140.5,-30.886,80.124,-128.38,131.11,-20.842,87.089,-203.03,294.97,-56.312,157.28,-128.66,228.7,-4.7125,107.85
-54.16,140.5,-30.886,80.124,-128.38,131.11,-20.842,87.089,-203.03,294.97,-56.312,157.28,-128.66,228.7,-4.7125,107.85
-54.463,140.08,-31.261,79.987,-128.86,130.64,-20.823,87.198,-203.01,293.48,-56.68,157.09,-128.91,228.18,-4.6587,107.68
-54.463,140.08,-31.261,79.987,-128.86,130.64,-20.823,87.198,-203.01,293.48,-56.68,157.09,-128.91,228.18,-4.6587,107.68
-54.463,140.08,-31.261,79.987,-128.86,130.64,-20.823,87.198,-203.01,293.48,-56.68,157.09,-128.91,228.18,-4.6587,107.68
-54.763,139.64,-31.636,79.847,-129.32,130.17,-20.803,87.309,-202.98,291.97,-57.049,156.89,-129.16,227.66,-4.6043,107.52
-54.763,139.64,-31.636,79.847,-129.32,130.17,-20.803,87.309,-202.98,291.97,-57.049,156.89,-129.16,227.66,-4.6043,107.52
-54.763,139.64,-31.636,79.847,-129.32,130.17,-20.803,87.309,-202.98,291.97,-57.049,156.89,-129.16,227.66,-4.6043,107.52
-55.356,138.74,-32.387,79.566,-130.23,129.19,-20.757,87.536,-202.9,288.91,-57.789,156.48,-129.63,226.58,-4.4937,107.18
-55.356,138.74,-32.387,79.566,-130.23,129.19,-20.757,87.536,-202.9,288.91,-57.789,156.48,-129.63,226.58,-4.4937,107.18
-55.356,138.74,-32.387,79.566,-130.23,129.19,-20.757,87.536,-202.9,288.91,-57.789,156.48,-129.63,226.58,-4.4937,107.18
-55.648,138.28,-32.764,79.423,-130.67,128.68,-20.732,87.652,-202.84,287.36,-58.16,156.28,-129.85,226.02,-4.4375,107.02
-55.648,138.28,-32.764,79.423,-130.67,128.68,-20.732,87.652,-202.84,287.36,-58.16,156.28,-129.85,226.02,-4.4375,107.02
-55.648,138.28,-32.764,79.423,-130.67,128.68,-20.732,87.652,-202.84,287.36,-58.16,156.28,-129.85,226.02,-4.4375,107.02
-56.224,137.33,-33.517,79.135,-131.54,127.62,-20.676,87.89,-202.71,284.22,-58.905,155.86,-130.28,224.88,-4.3233,106.69
-56.224,137.33,-33.517,79.135,-131.54,127.62,-20.676,87.89,-202.71,284.22,-58.905,155.86,-130.28,224.88,-4.3233,106.69
-56.507,136.84,-33.895,78.989,-131.97,127.07,-20.646,88.012,-202.63,282.63,-59.278,155.65,-130.49,224.29,-4.2653,106.53
-56.507,136.84,-33.895,78.989,-131.97,127.07,-20.646,88.012,-202.63,282.63,-59.278,155.65,-130.49,224.29,-4.2653,106.53
-56.788,136.35,-34.272,78.842,-132.39,126.51,-20.614,88.135,-202.54,281.02,-59.652,155.44,-130.68,223.69,-4.2067,106.37
-56.788,136.35,-34.272,78.842,-132.39,126.51,-20.614,88.135,-202.54,281.02,-59.652,155.44,-130.68,223.69,-4.2067,106.37
-56.788,136.35,-34.272,78.842,-132.39,126.51,-20.614,88.135,-202.54,281.02,-59.652,155.44,-130.68,223.69,-4.2067,106.37
-57.065,135.84,-34.65,78.693,-132.8,125.94,-20.581,88.261,-202.44,279.4,-60.027,155.22,-130.88,223.08,-4.1475,106.21
-57.34,135.33,-35.029,78.544,-133.2,125.36,-20.546,88.388,-202.33,277.77,-60.402,155.01,-131.06,222.46,-4.0878,106.05
-57.34,135.33,-35.029,78.544,-133.2,125.36,-20.546,88.388,-202.33,277.77,-60.402,155.01,-131.06,222.46,-4.0878,106.05
-57.34,135.33,-35.029,78.544,-133.2,125.36,-20.546,88.388,-202.33,277.77,-60.402,155.01,-131.06,222.46,-4.0878,106.05
-57.612,134.8,-35.408,78.393,-133.6,124.76,-20.51,88.517,-202.22,276.12,-60.779,154.79,-131.24,221.83,-4.0275,105.89
-57.612,134.8,-35.408,78.393,-133.6,124.76,-20.51,88.517,-202.22,276.12,-60.779,154.79,-131.24,221.83,-4.0275,105.89
-57.88,134.27,-35.787,78.241,-133.99,124.15,-20.472,88.649,-202.09,274.46,-61.156,154.57,-131.41,221.18,-3.9666,105.74
-57.88,134.27,-35.787,78.241,-133.99,124.15,-20.472,88.649,-202.09,274.46,-61.156,154.57,-131.41,221.18,-3.9666,105.74
-58.146,133.73,-36.166,78.088,-134.37,123.53,-20.433,88.782,-201.96,272.79,-61.534,154.34,-131.57,220.53,-3.9052,105.58
-58.146,133.73,-36.166,78.088,-134.37,123.53,-20.433,88.782,-201.96,272.79,-61.534,154.34,-131.57,220.53,-3.9052,105.58
-58.408,133.19,-36.546,77.934,-134.74,122.9,-20.392,88.917,-201.82,271.1,-61.913,154.12,-131.73,219.86,-3.8432,105.43
-58.667,132.63,-36.926,77.778,-135.11,122.25,-20.349,89.053,-201.67,269.4,-62.292,153.89,-131.88,219.19,-3.7807,105.27
-58.923,132.06,-37.307,77.622,-135.47,121.59,-20.305,89.192,-201.51,267.69,-62.672,153.66,-132.03,218.5,-3.7176,105.12
-58.923,132.06,-37.307,77.622,-135.47,121.59,-20.305,89.192,-201.51,267.69,-62.672,153.66,-132.03,218.5,-3.7176,105.12
-58.923,132.06,-37.307,77.622,-135.47,121.59,-20.305,89.192,-201.51,267.69,-62.672,153.66,-132.03,218.5,-3.7176,105.12
-59.176,131.49,-37.688,77.464,-135.82,120.92,-20.26,89.333,-201.34,265.96,-63.053,153.43,-132.16,217.8,-3.6539,104.97
-59.176,131.49,-37.688,77.464,-135.82,120.92,-20.26,89.333,-201.34,265.96,-63.053,153.43,-132.16,217.8,-3.6539,104.97
-59.176,131.49,-37.688,77.464,-135.82,120.92,-20.26,89.333,-201.34,265.96,-63.053,153.43,-132.16,217.8,-3.6539,104.97
-59.425,130.9,-38.069,77.305,-136.17,120.24,-20.212,89.475,-201.17,264.22,-63.435,153.19,-132.29,217.09,-3.5898,104.82
-59.425,130.9,-38.069,77.305,-136.17,120.24,-20.212,89.475,-201.17,264.22,-63.435,153.19,-132.29,217.09,-3.5898,104.82
-59.671,130.31,-38.45,77.145,-136.51,119.54,-20.164,89.62,-200.98,262.47,-63.817,152.96,-132.42,216.37,-3.5251,104.67
-59.914,129.71,-38.832,76.983,-136.84,118.83,-20.114,89.766,-200.79,260.7,-64.201,152.72,-132.53,215.64,-3.4599,104.52
-59.914,129.71,-38.832,76.983,-136.84,118.83,-20.114,89.766,-200.79,260.7,-64.201,152.72,-132.53,215.64,-3.4599,104.52
-60.154,129.1,-39.214,76.821,-137.16,118.1,-20.062,89.914,-200.59,258.92,-64.585,152.48,-132.64,214.9,-3.3941,104.38
-60.154,129.1,-39.214,76.821,-137.16,118.1,-20.062,89.914,-200.59,258.92,-64.585,152.48,-132.64,214.9,-3.3941,104.38
-60.39,128.48,-39.597,76.657,-137.48,117.37,-20.009,90.065,-200.37,257.12,-64.969,152.23,-132.74,214.14,-3.3279,104.23
-60.39,128.48,-39.597,76.657,-137.48,117.37,-20.009,90.065,-200.37,257.12,-64.969,152.23,-132.74,214.14,-3.3279,104.23
-60.623,127.85,-39.98,76.491,-137.78,116.62,-19.954,90.217,-200.15,255.32,-65.355,151.99,-132.84,213.38,-3.2611,104.09
-60.623,127.85,-39.98,76.491,-137.78,116.62,-19.954,90.217,-200.15,255.32,-65.355,151.99,-132.84,213.38,-3.2611,104.09
-60.853,127.22,-40.363,76.325,-138.08,115.85,-19.898,90.371,-199.92,253.5,-65.741,151.74,-132.92,212.6,-3.1939,103.94
-60.853,127.22,-40.363,76.325,-138.08,115.85,-19.898,90.371,-199.92,253.5,-65.741,151.74,-132.92,212.6,-3.1939,103.94
-61.079,126.57,-40.746,76.158,-138.37,115.08,-19.841,90.527,-199.69,251.66,-66.128,151.49,-133,211.81,-3.1261,103.8
-61.079,126.57,-40.746,76.158,-138.37,115.08,-19.841,90.527,-199.69,251.66,-66.128,151.49,-133,211.81,-3.1261,103.8
-61.302,125.92,-41.13,75.989,-138.66,114.29,-19.782,90.685,-199.44,249.81,-66.516,151.24,-133.08,211.02,-3.0579,103.66
-61.302,125.92,-41.13,75.989,-138.66,114.29,-19.782,90.685,-199.44,249.81,-66.516,151.24,-133.08,211.02,-3.0579,103.66
-61.521,125.25,-41.514,75.819,-138.93,113.49,-19.721,90.845,-199.18,247.95,-66.905,150.98,-133.14,210.2,-2.9892,103.52
-61.521,125.25,-41.514,75.819,-138.93,113.49,-19.721,90.845,-199.18,247.95,-66.905,150.98,-133.14,210.2,-2.9892,103.52
-61.737,124.58,-41.899,75.647,-139.2,112.67,-19.659,91.007,-198.92,246.08,-67.294,150.73,-133.2,209.38,-2.92,103.38
-61.737,124.58,-41.899,75.647,-139.2,112.67,-19.659,91.007,-198.92,246.08,-67.294,150.73,-133.2,209.38,-2.92,103.38
-61.949,123.9,-42.283,75.475,-139.46,111.84,-19.596,91.171,-198.65,244.2,-67.684,150.47,-133.25,208.55,-2.8503,103.24
-61.949,123.9,-42.283,75.475,-139.46,111.84,-19.596,91.171,-198.65,244.2,-67.684,150.47,-133.25,208.55,-2.8503,103.24
-62.157,123.21,-42.668,75.301,-139.71,111,-19.531,91.337,-198.36,242.3,-68.075,150.21,-133.3,207.71,-2.7801,103.1
-62.157,123.21,-42.668,75.301,-139.71,111,-19.531,91.337,-198.36,242.3,-68.075,150.21,-133.3,207.71,-2.7801,103.1
-62.362,122.52,-43.054,75.126,-139.95,110.15,-19.465,91.505,-198.07,240.39,-68.467,149.94,-133.33,206.85,-2.7095,102.97
-62.362,122.52,-43.054,75.126,-139.95,110.15,-19.465,91.505,-198.07,240.39,-68.467,149.94,-133.33,206.85,-2.7095,102.97
-62.564,121.81,-43.439,74.95,-140.19,109.28,-19.398,91.675,-197.77,238.46,-68.859,149.67,-133.36,205.98,-2.6385,102.83
-62.564,121.81,-43.439,74.95,-140.19,109.28,-19.398,91.675,-197.77,238.46,-68.859,149.67,-133.36,205.98,-2.6385,102.83
-62.762,121.09,-43.825,74.772,-140.41,108.4,-19.328,91.846,-197.47,236.52,-69.252,149.4,-133.38,205.1,-2.567,102.7
-62.762,121.09,-43.825,74.772,-140.41,108.4,-19.328,91.846,-197.47,236.52,-69.252,149.4,-133.38,205.1,-2.567,102.7
-62.956,120.37,-44.212,74.593,-140.63,107.5,-19.258,92.02,-197.15,234.57,-69.646,149.13,-133.4,204.21,-2.495,102.57
-62.956,120.37,-44.212,74.593,-140.63,107.5,-19.258,92.02,-197.15,234.57,-69.646,149.13,-133.4,204.21,-2.495,102.57
-62.956,120.37,-44.212,74.593,-140.63,107.5,-19.258,92.02,-197.15,234.57,-69.646,149.13,-133.4,204.21,-2.495,102.57
-63.146,119.63,-44.598,74.413,-140.84,106.59,-19.186,92.196,-196.82,232.61,-70.041,148.86,-133.4,203.31,-2.4226,102.43
-63.146,119.63,-44.598,74.413,-140.84,106.59,-19.186,92.196,-196.82,232.61,-70.041,148.86,-133.4,203.31,-2.4226,102.43
-63.333,118.89,-44.985,74.232,-141.04,105.67,-19.113,92.374,-196.49,230.63,-70.436,148.58,-133.4,202.4,-2.3498,102.3
-63.333,118.89,-44.985,74.232,-141.04,105.67,-19.113,92.374,-196.49,230.63,-70.436,148.58,-133.4,202.4,-2.3498,102.3
-63.695,117.38,-45.759,73.865,-141.42,103.79,-18.963,92.735,-195.79,226.65,-71.229,148.02,-133.38,200.54,-2.2029,102.05
-63.695,117.38,-45.759,73.865,-141.42,103.79,-18.963,92.735,-195.79,226.65,-71.229,148.02,-133.38,200.54,-2.2029,102.05
-63.695,117.38,-45.759,73.865,-141.42,103.79,-18.963,92.735,-195.79,226.65,-71.229,148.02,-133.38,200.54,-2.2029,102.05
-63.871,116.61,-46.147,73.68,-141.6,102.83,-18.885,92.918,-195.43,224.63,-71.627,147.74,-133.36,199.59,-2.1289,101.92
-63.871,116.61,-46.147,73.68,-141.6,102.83,-18.885,92.918,-195.43,224.63,-71.627,147.74,-133.36,199.59,-2.1289,101.92
-63.871,116.61,-46.147,73.68,-141.6,102.83,-18.885,92.918,-195.43,224.63,-71.627,147.74,-133.36,199.59,-2.1289,101.92
-64.043,115.83,-46.535,73.494,-141.76,101.85,-18.807,93.104,-195.06,222.61,-72.025,147.45,-133.33,198.63,-2.0544,101.79
-64.211,115.05,-46.923,73.306,-141.92,100.86,-18.727,93.292,-194.68,220.57,-72.424,147.16,-133.29,197.66,-1.9795,101.67
-64.211,115.05,-46.923,73.306,-141.92,100.86,-18.727,93.292,-194.68,220.57,-72.424,147.16,-133.29,197.66,-1.9795,101.67
-64.211,115.05,-46.923,73.306,-141.92,100.86,-18.727,93.292,-194.68,220.57,-72.424,147.16,-133.29,197.66,-1.9795,101.67
-64.375,114.25,-47.312,73.117,-142.07,99.858,-18.646,93.481,-194.3,218.52,-72.824,146.87,-133.24,196.68,-1.9043,101.54
-64.375,114.25,-47.312,73.117,-142.07,99.858,-18.646,93.481,-194.3,218.52,-72.824,146.87,-133.24,196.68,-1.9043,101.54
-64.375,114.25,-47.312,73.117,-142.07,99.858,-18.646,93.481,-194.3,218.52,-72.824,146.87,-133.24,196.68,-1.9043,101.54
-64.691,112.64,-48.089,72.735,-142.35,97.811,-18.479,93.866,-193.49,214.38,-73.626,146.28,-133.13,194.68,-1.7527,101.3
-64.691,112.64,-48.089,72.735,-142.35,97.811,-18.479,93.866,-193.49,214.38,-73.626,146.28,-133.13,194.68,-1.7527,101.3
-64.844,111.81,-48.478,72.542,-142.47,96.768,-18.394,94.061,-193.08,212.29,-74.028,145.98,-133.06,193.66,-1.6763,101.18
-64.844,111.81,-48.478,72.542,-142.47,96.768,-18.394,94.061,-193.08,212.29,-74.028,145.98,-133.06,193.66,-1.6763,101.18
-64.993,110.98,-48.868,72.348,-142.59,95.71,-18.308,94.259,-192.66,210.19,-74.431,145.67,-132.99,192.63,-1.5996,101.06
-64.993,110.98,-48.868,72.348,-142.59,95.71,-18.308,94.259,-192.66,210.19,-74.431,145.67,-132.99,192.63,-1.5996,101.06
-65.137,110.15,-49.257,72.153,-142.69,94.639,-18.22,94.458,-192.23,208.08,-74.834,145.37,-132.9,191.59,-1.5225,100.94
-65.137,110.15,-49.257,72.153,-142.69,94.639,-18.22,94.458,-192.23,208.08,-74.834,145.37,-132.9,191.59,-1.5225,100.94
-65.278,109.3,-49.647,71.956,-142.79,93.554,-18.131,94.659,-191.79,205.96,-75.238,145.06,-132.81,190.54,-1.4451,100.82
-65.278,109.3,-49.647,71.956,-142.79,93.554,-18.131,94.659,-191.79,205.96,-75.238,145.06,-132.81,190.54,-1.4451,100.82
-65.415,108.44,-50.037,71.758,-142.88,92.455,-18.041,94.863,-191.34,203.82,-75.643,144.75,-132.71,189.48,-1.3673,100.7
-65.415,108.44,-50.037,71.758,-142.88,92.455,-18.041,94.863,-191.34,203.82,-75.643,144.75,-132.71,189.48,-1.3673,100.7
-65.548,107.58,-50.428,71.559,-142.96,91.343,-17.95,95.068,-190.88,201.68,-76.048,144.44,-132.61,188.4,-1.2893,100.59
-65.548,107.58,-50.428,71.559,-142.96,91.343,-17.95,95.068,-190.88,201.68,-76.048,144.44,-132.61,188.4,-1.2893,100.59
-65.676,106.7,-50.818,71.358,-143.03,90.217,-17.857,95.275,-190.41,199.52,-76.454,144.12,-132.49,187.32,-1.2108,100.47
-65.676,106.7,-50.818,71.358,-143.03,90.217,-17.857,95.275,-190.41,199.52,-76.454,144.12,-132.49,187.32,-1.2108,100.47
-65.801,105.82,-51.209,71.156,-143.09,89.077,-17.764,95.484,-189.94,197.35,-76.861,143.8,-132.37,186.22,-1.1321,100.36
-65.801,105.82,-51.209,71.156,-143.09,89.077,-17.764,95.484,-189.94,197.35,-76.861,143.8,-132.37,186.22,-1.1321,100.36
-65.922,104.93,-51.6,70.953,-143.14,87.924,-17.669,95.695,-189.46,195.16,-77.269,143.48,-132.24,185.11,-1.0531,100.24
-65.922,104.93,-51.6,70.953,-143.14,87.924,-17.669,95.695,-189.46,195.16,-77.269,143.48,-132.24,185.11,-1.0531,100.24
-66.039,104.03,-51.991,70.749,-143.18,86.756,-17.573,95.908,-188.96,192.97,-77.677,143.15,-132.11,183.99,-0.97378,100.13
-66.039,104.03,-51.991,70.749,-143.18,86.756,-17.573,95.908,-188.96,192.97,-77.677,143.15,-132.11,183.99,-0.97378,100.13
-66.151,103.12,-52.383,70.543,-143.21,85.575,-17.475,96.123,-188.46,190.76,-78.086,142.83,-131.96,182.85,-0.89418,100.02
-66.151,103.12,-52.383,70.543,-143.21,85.575,-17.475,96.123,-188.46,190.76,-78.086,142.83,-131.96,182.85,-0.89418,100.02
-66.26,102.2,-52.774,70.336,-143.24,84.381,-17.377,96.34,-187.95,188.55,-78.495,142.5,-131.81,181.71,-0.81429,99.912
-66.26,102.2,-52.774,70.336,-143.24,84.381,-17.377,96.34,-187.95,188.55,-78.495,142.5,-131.81,181.71,-0.81429,99.912
-66.364,101.28,-53.166,70.128,-143.25,83.172,-17.277,96.559,-187.44,186.32,-78.905,142.16,-131.65,180.55,-0.73412,99.804
-66.465,100.34,-53.558,69.918,-143.26,81.95,-17.177,96.78,-186.91,184.08,-79.316,141.83,-131.48,179.38,-0.6537,99.696
-66.465,100.34,-53.558,69.918,-143.26,81.95,-17.177,96.78,-186.91,184.08,-79.316,141.83,-131.48,179.38,-0.6537,99.696
-66.465,100.34,-53.558,69.918,-143.26,81.95,-17.177,96.78,-186.91,184.08,-79.316,141.83,-131.48,179.38,-0.6537,99.696
-66.561,99.401,-53.95,69.707,-143.26,80.714,-17.075,97.002,-186.38,181.83,-79.727,141.49,-131.31,178.2,-0.57301,99.589
-66.561,99.401,-53.95,69.707,-143.26,80.714,-17.075,97.002,-186.38,181.83,-79.727,141.49,-131.31,178.2,-0.57301,99.589
-66.653,98.45,-54.343,69.495,-143.24,79.464,-16.972,97.227,-185.83,179.57,-80.139,141.15,-131.12,177.01,-0.49208,99.483
-66.741,97.49,-54.735,69.281,-143.22,78.2,-16.868,97.453,-185.28,177.29,-80.552,140.8,-130.93,175.81,-0.41092,99.378
-66.741,97.49,-54.735,69.281,-143.22,78.2,-16.868,97.453,-185.28,177.29,-80.552,140.8,-130.93,175.81,-0.41092,99.378
-66.825,96.522,-55.128,69.067,-143.19,76.923,-16.763,97.681,-184.72,175.01,-80.965,140.46,-130.73,174.6,-0.32952,99.274
-66.825,96.522,-55.128,69.067,-143.19,76.923,-16.763,97.681,-184.72,175.01,-80.965,140.46,-130.73,174.6,-0.32952,99.274
-66.825,96.522,-55.128,69.067,-143.19,76.923,-16.763,97.681,-184.72,175.01,-80.965,140.46,-130.73,174.6,-0.32952,99.274
-66.904,95.545,-55.521,68.851,-143.15,75.632,-16.657,97.912,-184.15,172.71,-81.379,140.11,-130.53,173.37,-0.2479,99.171
-66.904,95.545,-55.521,68.851,-143.15,75.632,-16.657,97.912,-184.15,172.71,-81.379,140.11,-130.53,173.37,-0.2479,99.171
-66.904,95.545,-55.521,68.851,-143.15,75.632,-16.657,97.912,-184.15,172.71,-81.379,140.11,-130.53,173.37,-0.2479,99.171
-66.98,94.56,-55.914,68.633,-143.1,74.327,-16.55,98.144,-183.57,170.41,-81.794,139.75,-130.31,172.13,-0.16608,99.069
-66.98,94.56,-55.914,68.633,-143.1,74.327,-16.55,98.144,-183.57,170.41,-81.794,139.75,-130.31,172.13,-0.16608,99.069
-67.051,93.566,-56.307,68.415,-143.04,73.009,-16.442,98.378,-182.99,168.09,-82.209,139.4,-130.09,170.88,-0.084044,98.968
-67.051,93.566,-56.307,68.415,-143.04,73.009,-16.442,98.378,-182.99,168.09,-82.209,139.4,-130.09,170.88,-0.084044,98.968
-67.051,93.566,-56.307,68.415,-143.04,73.009,-16.442,98.378,-182.99,168.09,-82.209,139.4,-130.09,170.88,-0.084044,98.968
-67.051,93.566,-56.307,68.415,-143.04,73.009,-16.442,98.378,-182.99,168.09,-82.209,139.4,-130.09,170.88,-0.084044,98.968
-67.18,91.554,-57.093,67.973,-142.89,70.33,-16.223,98.851,-181.79,163.42,-83.04,138.67,-129.62,168.35,0.080588,98.769
-67.18,91.554,-57.093,67.973,-142.89,70.33,-16.223,98.851,-181.79,163.42,-83.04,138.67,-129.62,168.35,0.080588,98.769
-67.239,90.535,-57.487,67.751,-142.8,68.97,-16.112,99.091,-181.18,161.07,-83.457,138.31,-129.38,167.07,0.16317,98.671
-67.239,90.535,-57.487,67.751,-142.8,68.97,-16.112,99.091,-181.18,161.07,-83.457,138.31,-129.38,167.07,0.16317,98.671
-67.293,89.508,-57.881,67.527,-142.7,67.597,-16,99.332,-180.56,158.71,-83.874,137.94,-129.13,165.77,0.24592,98.573
-67.343,88.472,-58.274,67.302,-142.6,66.21,-15.888,99.575,-179.93,156.34,-84.292,137.57,-128.86,164.47,0.32882,98.477
-67.343,88.472,-58.274,67.302,-142.6,66.21,-15.888,99.575,-179.93,156.34,-84.292,137.57,-128.86,164.47,0.32882,98.477
-67.389,87.429,-58.668,67.076,-142.48,64.809,-15.774,99.82,-179.3,153.96,-84.71,137.2,-128.6,163.15,0.41187,98.382
-67.389,87.429,-58.668,67.076,-142.48,64.809,-15.774,99.82,-179.3,153.96,-84.71,137.2,-128.6,163.15,0.41187,98.382
-67.43,86.377,-59.062,66.848,-142.35,63.395,-15.659,100.07,-178.65,151.57,-85.129,136.82,-128.32,161.82,0.49506,98.287
-67.43,86.377,-59.062,66.848,-142.35,63.395,-15.659,100.07,-178.65,151.57,-85.129,136.82,-128.32,161.82,0.49506,98.287
-67.468,85.317,-59.456,66.619,-142.21,61.967,-15.544,100.32,-178,149.17,-85.549,136.44,-128.04,160.48,0.57837,98.193
-67.468,85.317,-59.456,66.619,-142.21,61.967,-15.544,100.32,-178,149.17,-85.549,136.44,-128.04,160.48,0.57837,98.193
-67.5,84.249,-59.85,66.389,-142.07,60.525,-15.427,100.57,-177.34,146.76,-85.968,136.06,-127.74,159.12,0.6618,98.1
-67.5,84.249,-59.85,66.389,-142.07,60.525,-15.427,100.57,-177.34,146.76,-85.968,136.06,-127.74,159.12,0.6618,98.1
-67.529,83.172,-60.244,66.158,-141.91,59.069,-15.31,100.82,-176.67,144.34,-86.389,135.67,-127.44,157.76,0.74533,98.008
-67.529,83.172,-60.244,66.158,-141.91,59.069,-15.31,100.82,-176.67,144.34,-86.389,135.67,-127.44,157.76,0.74533,98.008
-67.553,82.088,-60.639,65.925,-141.75,57.601,-15.192,101.07,-175.99,141.91,-86.81,135.28,-127.14,156.38,0.82897,97.917
-67.553,82.088,-60.639,65.925,-141.75,57.601,-15.192,101.07,-175.99,141.91,-86.81,135.28,-127.14,156.38,0.82897,97.917
-67.573,80.996,-61.033,65.691,-141.57,56.118,-15.073,101.33,-175.31,139.47,-87.231,134.89,-126.82,155,0.91268,97.827
-67.573,80.996,-61.033,65.691,-141.57,56.118,-15.073,101.33,-175.31,139.47,-87.231,134.89,-126.82,155,0.91268,97.827
-67.589,79.895,-61.428,65.456,-141.39,54.622,-14.953,101.59,-174.62,137.02,-87.653,134.49,-126.5,153.6,0.99648,97.738
-67.589,79.895,-61.428,65.456,-141.39,54.622,-14.953,101.59,-174.62,137.02,-87.653,134.49,-126.5,153.6,0.99648,97.738
-67.6,78.787,-61.822,65.219,-141.19,53.113,-14.833,101.84,-173.92,134.56,-88.075,134.09,-126.17,152.19,1.0803,97.649
-67.6,78.787,-61.822,65.219,-141.19,53.113,-14.833,101.84,-173.92,134.56,-88.075,134.09,-126.17,152.19,1.0803,97.649
-67.608,77.67,-62.216,64.982,-140.99,51.59,-14.711,102.11,-173.21,132.09,-88.497,133.69,-125.83,150.77,1.1642,97.561
-67.608,77.67,-62.216,64.982,-140.99,51.59,-14.711,102.11,-173.21,132.09,-88.497,133.69,-125.83,150.77,1.1642,97.561
-67.61,76.546,-62.611,64.743,-140.77,50.053,-14.589,102.37,-172.49,129.61,-88.921,133.28,-125.48,149.34,1.2482,97.475
-67.61,76.546,-62.611,64.743,-140.77,50.053,-14.589,102.37,-172.49,129.61,-88.921,133.28,-125.48,149.34,1.2482,97.475
-67.609,75.414,-63.006,64.502,-140.55,48.503,-14.467,102.63,-171.76,127.12,-89.344,132.88,-125.13,147.9,1.3322,97.389
-67.603,74.274,-63.4,64.261,-140.31,46.94,-14.343,102.9,-171.03,124.62,-89.768,132.46,-124.77,146.44,1.4162,97.303
-67.603,74.274,-63.4,64.261,-140.31,46.94,-14.343,102.9,-171.03,124.62,-89.768,132.46,-124.77,146.44,1.4162,97.303
-67.603,74.274,-63.4,64.261,-140.31,46.94,-14.343,102.9,-171.03,124.62,-89.768,132.46,-124.77,146.44,1.4162,97.303
-67.592,73.126,-63.795,64.018,-140.07,45.364,-14.219,103.17,-170.29,122.12,-90.192,132.05,-124.4,144.98,1.5002,97.219
-67.592,73.126,-63.795,64.018,-140.07,45.364,-14.219,103.17,-170.29,122.12,-90.192,132.05,-124.4,144.98,1.5002,97.219
-67.592,73.126,-63.795,64.018,-140.07,45.364,-14.219,103.17,-170.29,122.12,-90.192,132.05,-124.4,144.98,1.5002,97.219
-67.578,71.97,-64.189,63.774,-139.82,43.774,-14.094,103.44,-169.54,119.6,-90.617,131.63,-124.02,143.5,1.5843,97.135
-67.578,71.97,-64.189,63.774,-139.82,43.774,-14.094,103.44,-169.54,119.6,-90.617,131.63,-124.02,143.5,1.5843,97.135
-67.578,71.97,-64.189,63.774,-139.82,43.774,-14.094,103.44,-169.54,119.6,-90.617,131.63,-124.02,143.5,1.5843,97.135
-67.578,71.97,-64.189,63.774,-139.82,43.774,-14.094,103.44,-169.54,119.6,-90.617,131.63,-124.02,143.5,1.5843,97.135
-67.536,69.636,-64.978,63.283,-139.28,40.554,-13.843,103.98,-168.02,114.54,-91.467,130.79,-123.24,140.51,1.7523,96.97
-67.536,69.636,-64.978,63.283,-139.28,40.554,-13.843,103.98,-168.02,114.54,-91.467,130.79,-123.24,140.51,1.7523,96.97
-67.536,69.636,-64.978,63.283,-139.28,40.554,-13.843,103.98,-168.02,114.54,-91.467,130.79,-123.24,140.51,1.7523,96.97
-67.476,67.271,-65.767,62.786,-138.7,37.282,-13.589,104.53,-166.47,109.45,-92.319,129.93,-122.43,137.48,1.9201,96.808
-67.476,67.271,-65.767,62.786,-138.7,37.282,-13.589,104.53,-166.47,109.45,-92.319,129.93,-122.43,137.48,1.9201,96.808
-67.476,67.271,-65.767,62.786,-138.7,37.282,-13.589,104.53,-166.47,109.45,-92.319,129.93,-122.43,137.48,1.9201,96.808
-67.44,66.077,-66.162,62.536,-138.4,35.626,-13.461,104.81,-165.68,106.89,-92.745,129.49,-122.02,135.95,2.004,96.728
-67.399,64.876,-66.556,62.285,-138.09,33.957,-13.332,105.08,-164.89,104.32,-93.171,129.06,-121.6,134.41,2.0878,96.649
-67.354,63.668,-66.951,62.032,-137.77,32.275,-13.203,105.37,-164.09,101.75,-93.598,128.61,-121.16,132.85,2.1715,96.57
-67.354,63.668,-66.951,62.032,-137.77,32.275,-13.203,105.37,-164.09,101.75,-93.598,128.61,-121.16,132.85,2.1715,96.57
-67.305,62.452,-67.345,61.778,-137.43,30.58,-13.074,105.65,-163.28,99.161,-94.025,128.17,-120.73,131.29,2.2551,96.492
-67.305,62.452,-67.345,61.778,-137.43,30.58,-13.074,105.65,-163.28,99.161,-94.025,128.17,-120.73,131.29,2.2551,96.492
-67.305,62.452,-67.345,61.778,-137.43,30.58,-13.074,105.65,-163.28,99.161,-94.025,128.17,-120.73,131.29,2.2551,96.492
-67.251,61.228,-67.739,61.523,-137.09,28.872,-12.944,105.93,-162.46,96.568,-94.453,127.72,-120.28,129.71,2.3386,96.415
-67.251,61.228,-67.739,61.523,-137.09,28.872,-12.944,105.93,-162.46,96.568,-94.453,127.72,-120.28,129.71,2.3386,96.415
-67.193,59.998,-68.133,61.267,-136.74,27.151,-12.813,106.22,-161.64,93.968,-94.88,127.27,-119.83,128.12,2.422,96.339
-67.193,59.998,-68.133,61.267,-136.74,27.151,-12.813,106.22,-161.64,93.968,-94.88,127.27,-119.83,128.12,2.422,96.339
-67.131,58.76,-68.527,61.01,-136.38,25.418,-12.682,106.5,-160.8,91.359,-95.308,126.82,-119.36,126.53,2.5053,96.263
-67.131,58.76,-68.527,61.01,-136.38,25.418,-12.682,106.5,-160.8,91.359,-95.308,126.82,-119.36,126.53,2.5053,96.263
-67.064,57.515,-68.921,60.751,-136,23.671,-12.551,106.79,-159.96,88.743,-95.736,126.36,-118.9,124.92,2.5885,96.188
-67.064,57.515,-68.921,60.751,-136,23.671,-12.551,106.79,-159.96,88.743,-95.736,126.36,-118.9,124.92,2.5885,96.188
-66.993,56.263,-69.315,60.492,-135.62,21.912,-12.419,107.08,-159.12,86.119,-96.164,125.9,-118.42,123.3,2.6714,96.113
-66.993,56.263,-69.315,60.492,-135.62,21.912,-12.419,107.08,-159.12,86.119,-96.164,125.9,-118.42,123.3,2.6714,96.113
-66.918,55.004,-69.709,60.231,-135.23,20.14,-12.287,107.37,-158.26,83.488,-96.593,125.44,-117.93,121.67,2.7543,96.04
-66.918,55.004,-69.709,60.231,-135.23,20.14,-12.287,107.37,-158.26,83.488,-96.593,125.44,-117.93,121.67,2.7543,96.04
-66.838,53.737,-70.103,59.969,-134.83,18.356,-12.154,107.66,-157.4,80.849,-97.021,124.97,-117.44,120.03,2.8369,95.966
-66.838,53.737,-70.103,59.969,-134.83,18.356,-12.154,107.66,-157.4,80.849,-97.021,124.97,-117.44,120.03,2.8369,95.966
-66.754,52.464,-70.496,59.706,-134.42,16.558,-12.021,107.96,-156.54,78.203,-97.45,124.5,-116.94,118.38,2.9194,95.894
-66.666,51.184,-70.889,59.441,-134,14.749,-11.888,108.25,-155.66,75.549,-97.879,124.02,-116.44,116.72,3.0016,95.822
-66.666,51.184,-70.889,59.441,-134,14.749,-11.888,108.25,-155.66,75.549,-97.879,124.02,-116.44,116.72,3.0016,95.822
-66.666,51.184,-70.889,59.441,-134,14.749,-11.888,108.25,-155.66,75.549,-97.879,124.02,-116.44,116.72,3.0016,95.822
-66.574,49.897,-71.283,59.176,-133.57,12.927,-11.754,108.55,-154.78,72.889,-98.308,123.55,-115.92,115.05,3.0837,95.75
-66.574,49.897,-71.283,59.176,-133.57,12.927,-11.754,108.55,-154.78,72.889,-98.308,123.55,-115.92,115.05,3.0837,95.75
-66.477,48.603,-71.676,58.909,-133.13,11.092,-11.621,108.84,-153.89,70.221,-98.737,123.07,-115.4,113.36,3.1655,95.679
-66.477,48.603,-71.676,58.909,-133.13,11.092,-11.621,108.84,-153.89,70.221,-98.737,123.07,-115.4,113.36,3.1655,95.679
-66.376,47.303,-72.068,58.642,-132.68,9.2457,-11.486,109.14,-152.99,67.547,-99.166,122.58,-114.87,111.67,3.2471,95.609
-66.376,47.303,-72.068,58.642,-132.68,9.2457,-11.486,109.14,-152.99,67.547,-99.166,122.58,-114.87,111.67,3.2471,95.609
-66.271,45.995,-72.461,58.373,-132.22,7.3867,-11.352,109.44,-152.09,64.866,-99.595,122.09,-114.34,109.97,3.3284,95.539
-66.271,45.995,-72.461,58.373,-132.22,7.3867,-11.352,109.44,-152.09,64.866,-99.595,122.09,-114.34,109.97,3.3284,95.539
-66.271,45.995,-72.461,58.373,-132.22,7.3867,-11.352,109.44,-152.09,64.866,-99.595,122.09,-114.34,109.97,3.3284,95.539
-66.161,44.682,-72.853,58.103,-131.75,5.5156,-11.217,109.74,-151.18,62.178,-100.02,121.6,-113.79,108.26,3.4094,95.47
-66.161,44.682,-72.853,58.103,-131.75,5.5156,-11.217,109.74,-151.18,62.178,-100.02,121.6,-113.79,108.26,3.4094,95.47
-66.161,44.682,-72.853,58.103,-131.75,5.5156,-11.217,109.74,-151.18,62.178,-100.02,121.6,-113.79,108.26,3.4094,95.47
-65.929,42.034,-73.638,57.56,-130.78,1.7369,-10.947,110.35,-149.34,56.783,-100.88,120.61,-112.68,104.8,3.5707,95.333
-65.929,42.034,-73.638,57.56,-130.78,1.7369,-10.947,110.35,-149.34,56.783,-100.88,120.61,-112.68,104.8,3.5707,95.333
-65.807,40.701,-74.029,57.286,-130.28,-0.17047,-10.812,110.66,-148.41,54.077,-101.31,120.11,-112.12,103.06,3.6509,95.265
-65.807,40.701,-74.029,57.286,-130.28,-0.17047,-10.812,110.66,-148.41,54.077,-101.31,120.11,-112.12,103.06,3.6509,95.265
-65.807,40.701,-74.029,57.286,-130.28,-0.17047,-10.812,110.66,-148.41,54.077,-101.31,120.11,-112.12,103.06,3.6509,95.265
-65.681,39.361,-74.421,57.012,-129.77,-2.0897,-10.676,110.96,-147.48,51.364,-101.74,119.61,-111.55,101.3,3.7308,95.198
-65.681,39.361,-74.421,57.012,-129.77,-2.0897,-10.676,110.96,-147.48,51.364,-101.74,119.61,-111.55,101.3,3.7308,95.198
-65.415,36.663,-75.203,56.46,-128.73,-5.9637,-10.405,111.58,-145.58,45.92,-102.6,118.59,-110.38,97.767,3.8895,95.065
-65.415,36.663,-75.203,56.46,-128.73,-5.9637,-10.405,111.58,-145.58,45.92,-102.6,118.59,-110.38,97.767,3.8895,95.065
-65.415,36.663,-75.203,56.46,-128.73,-5.9637,-10.405,111.58,-145.58,45.92,-102.6,118.59,-110.38,97.767,3.8895,95.065
-65.415,36.663,-75.203,56.46,-128.73,-5.9637,-10.405,111.58,-145.58,45.92,-102.6,118.59,-110.38,97.767,3.8895,95.065
-65.276,35.305,-75.594,56.182,-128.19,-7.9182,-10.269,111.89,-144.63,43.19,-103.03,118.07,-109.78,95.984,3.9683,94.999
-65.276,35.305,-75.594,56.182,-128.19,-7.9182,-10.269,111.89,-144.63,43.19,-103.03,118.07,-109.78,95.984,3.9683,94.999
-65.133,33.94,-75.984,55.904,-127.64,-9.8844,-10.133,112.2,-143.67,40.453,-103.46,117.55,-109.18,94.191,4.0468,94.934
-64.986,32.57,-76.375,55.624,-127.08,-11.862,-9.9976,112.51,-142.7,37.712,-103.89,117.03,-108.57,92.388,4.1248,94.869
-64.834,31.194,-76.764,55.344,-126.52,-13.851,-9.8616,112.82,-141.72,34.965,-104.31,116.51,-107.96,90.576,4.2025,94.804
-64.834,31.194,-76.764,55.344,-126.52,-13.851,-9.8616,112.82,-141.72,34.965,-104.31,116.51,-107.96,90.576,4.2025,94.804
-64.679,29.811,-77.154,55.062,-125.94,-15.852,-9.7257,113.14,-140.74,32.213,-104.74,115.98,-107.33,88.754,4.2798,94.74
-64.679,29.811,-77.154,55.062,-125.94,-15.852,-9.7257,113.14,-140.74,32.213,-104.74,115.98,-107.33,88.754,4.2798,94.74
-64.519,28.423,-77.543,54.779,-125.36,-17.864,-9.5898,113.45,-139.75,29.455,-105.17,115.44,-106.7,86.922,4.3566,94.676
-64.519,28.423,-77.543,54.779,-125.36,-17.864,-9.5898,113.45,-139.75,29.455,-105.17,115.44,-106.7,86.922,4.3566,94.676
-64.519,28.423,-77.543,54.779,-125.36,-17.864,-9.5898,113.45,-139.75,29.455,-105.17,115.44,-106.7,86.922,4.3566,94.676
-64.355,27.029,-77.932,54.495,-124.76,-19.887,-9.454,113.77,-138.76,26.693,-105.6,114.91,-106.07,85.081,4.433,94.612
-64.355,27.029,-77.932,54.495,-124.76,-19.887,-9.454,113.77,-138.76,26.693,-105.6,114.91,-106.07,85.081,4.433,94.612
-64.187,25.629,-78.321,54.211,-124.16,-21.921,-9.3182,114.08,-137.76,23.926,-106.03,114.37,-105.42,83.231,4.5089,94.549
-64.187,25.629,-78.321,54.211,-124.16,-21.921,-9.3182,114.08,-137.76,23.926,-106.03,114.37,-105.42,83.231,4.5089,94.549
-64.015,24.224,-78.709,53.925,-123.54,-23.966,-9.1825,114.4,-136.76,21.154,-106.46,113.83,-104.77,81.371,4.5844,94.486
-64.015,24.224,-78.709,53.925,-123.54,-23.966,-9.1825,114.4,-136.76,21.154,-106.46,113.83,-104.77,81.371,4.5844,94.486
-63.839,22.813,-79.097,53.638,-122.92,-26.022,-9.0469,114.72,-135.75,18.378,-106.88,113.28,-104.11,79.502,4.6593,94.424
-63.839,22.813,-79.097,53.638,-122.92,-26.022,-9.0469,114.72,-135.75,18.378,-106.88,113.28,-104.11,79.502,4.6593,94.424
-63.659,21.397,-79.484,53.35,-122.29,-28.089,-8.9114,115.04,-134.73,15.597,-107.31,112.73,-103.45,77.624,4.7338,94.361
-63.659,21.397,-79.484,53.35,-122.29,-28.089,-8.9114,115.04,-134.73,15.597,-107.31,112.73,-103.45,77.624,4.7338,94.361
-63.475,19.976,-79.871,53.062,-121.65,-30.166,-8.7761,115.36,-133.71,12.812,-107.74,112.18,-102.78,75.736,4.8078,94.299
-63.475,19.976,-79.871,53.062,-121.65,-30.166,-8.7761,115.36,-133.71,12.812,-107.74,112.18,-102.78,75.736,4.8078,94.299
-63.287,18.549,-80.258,52.772,-121,-32.255,-8.641,115.68,-132.68,10.023,-108.16,111.62,-102.1,73.84,4.8812,94.238
-63.287,18.549,-80.258,52.772,-121,-32.255,-8.641,115.68,-132.68,10.023,-108.16,111.62,-102.1,73.84,4.8812,94.238
-63.287,18.549,-80.258,52.772,-121,-32.255,-8.641,115.68,-132.68,10.023,-108.16,111.62,-102.1,73.84,4.8812,94.238
-63.095,17.117,-80.644,52.481,-120.34,-34.354,-8.506,116,-131.65,7.2297,-108.59,111.06,-101.41,71.934,4.9541,94.176
-63.095,17.117,-80.644,52.481,-120.34,-34.354,-8.506,116,-131.65,7.2297,-108.59,111.06,-101.41,71.934,4.9541,94.176
-63.095,17.117,-80.644,52.481,-120.34,-34.354,-8.506,116,-131.65,7.2297,-108.59,111.06,-101.41,71.934,4.9541,94.176
-62.7,14.237,-81.415,51.898,-118.99,-38.583,-8.2368,116.64,-129.56,1.6318,-109.44,109.93,-100.02,68.096,5.0983,94.054
-62.7,14.237,-81.415,51.898,-118.99,-38.583,-8.2368,116.64,-129.56,1.6318,-109.44,109.93,-100.02,68.096,5.0983,94.054
-62.496,12.789,-81.8,51.604,-118.3,-40.713,-8.1026,116.97,-128.51,-1.1726,-109.87,109.36,-99.317,66.164,5.1694,93.993
-62.496,12.789,-81.8,51.604,-118.3,-40.713,-8.1026,116.97,-128.51,-1.1726,-109.87,109.36,-99.317,66.164,5.1694,93.993
-62.288,11.337,-82.185,51.31,-117.6,-42.853,-7.9687,117.29,-127.46,-3.9804,-110.29,108.79,-98.605,64.224,5.24,93.933
-62.288,11.337,-82.185,51.31,-117.6,-42.853,-7.9687,117.29,-127.46,-3.9804,-110.29,108.79,-98.605,64.224,5.24,93.933
-62.077,9.8799,-82.569,51.015,-116.9,-45.003,-7.8351,117.62,-126.4,-6.7916,-110.72,108.21,-97.886,62.274,5.31,93.872
-61.862,8.418,-82.953,50.719,-116.18,-47.163,-7.7018,117.94,-125.33,-9.6059,-111.14,107.63,-97.161,60.316,5.3794,93.812
-61.862,8.418,-82.953,50.719,-116.18,-47.163,-7.7018,117.94,-125.33,-9.6059,-111.14,107.63,-97.161,60.316,5.3794,93.812
-61.862,8.418,-82.953,50.719,-116.18,-47.163,-7.7018,117.94,-125.33,-9.6059,-111.14,107.63,-97.161,60.316,5.3794,93.812
-61.642,6.9514,-83.336,50.422,-115.46,-49.333,-7.5689,118.27,-124.26,-12.423,-111.56,107.05,-96.429,58.35,5.4481,93.752
-61.642,6.9514,-83.336,50.422,-115.46,-49.333,-7.5689,118.27,-124.26,-12.423,-111.56,107.05,-96.429,58.35,5.4481,93.752
-61.642,6.9514,-83.336,50.422,-115.46,-49.333,-7.5689,118.27,-124.26,-12.423,-111.56,107.05,-96.429,58.35,5.4481,93.752
-61.419,5.4802,-83.718,50.124,-114.72,-51.513,-7.4363,118.6,-123.19,-15.243,-111.99,106.46,-95.691,56.375,5.5161,93.692
-61.193,4.0044,-84.1,49.826,-113.98,-53.703,-7.3042,118.92,-122.11,-18.066,-112.41,105.87,-94.946,54.393,5.5835,93.632
-60.962,2.5243,-84.482,49.526,-113.23,-55.902,-7.1724,119.25,-121.02,-20.892,-112.83,105.27,-94.195,52.401,5.6502,93.572
-60.962,2.5243,-84.482,49.526,-113.23,-55.902,-7.1724,119.25,-121.02,-20.892,-112.83,105.27,-94.195,52.401,5.6502,93.572
-60.728,1.0398,-84.863,49.226,-112.47,-58.11,-7.0412,119.58,-119.93,-23.72,-113.25,104.68,-93.438,50.402,5.7162,93.513
-60.728,1.0398,-84.863,49.226,-112.47,-58.11,-7.0412,119.58,-119.93,-23.72,-113.25,104.68,-93.438,50.402,5.7162,93.513
-60.728,1.0398,-84.863,49.226,-112.47,-58.11,-7.0412,119.58,-119.93,-23.72,-113.25,104.68,-93.438,50.402,5.7162,93.513
-60.49,-0.44898,-85.243,48.925,-111.7,-60.328,-6.9104,119.91,-118.83,-26.55,-113.67,104.07,-92.674,48.395,5.7815,93.453
-60.49,-0.44898,-85.243,48.925,-111.7,-60.328,-6.9104,119.91,-118.83,-26.55,-113.67,104.07,-92.674,48.395,5.7815,93.453
-60.49,-0.44898,-85.243,48.925,-111.7,-60.328,-6.9104,119.91,-118.83,-26.55,-113.67,104.07,-92.674,48.395,5.7815,93.453
-60.249,-1.9419,-85.623,48.623,-110.92,-62.555,-6.78,120.24,-117.74,-29.383,-114.09,103.47,-91.904,46.38,5.846,93.394
-60.249,-1.9419,-85.623,48.623,-110.92,-62.555,-6.78,120.24,-117.74,-29.383,-114.09,103.47,-91.904,46.38,5.846,93.394
-60.004,-3.4389,-86.002,48.321,-110.14,-64.791,-6.6502,120.57,-116.63,-32.217,-114.51,102.86,-91.128,44.356,5.9098,93.334
-59.755,-4.94,-86.381,48.017,-109.34,-67.036,-6.521,120.9,-115.52,-35.054,-114.93,102.25,-90.346,42.326,5.9728,93.275
-59.755,-4.94,-86.381,48.017,-109.34,-67.036,-6.521,120.9,-115.52,-35.054,-114.93,102.25,-90.346,42.326,5.9728,93.275
-59.502,-6.4449,-86.759,47.713,-108.54,-69.29,-6.3923,121.23,-114.41,-37.892,-115.35,101.64,-89.557,40.287,6.0351,93.216
-59.502,-6.4449,-86.759,47.713,-108.54,-69.29,-6.3923,121.23,-114.41,-37.892,-115.35,101.64,-89.557,40.287,6.0351,93.216
-59.246,-7.9537,-87.137,47.408,-107.73,-71.553,-6.2641,121.56,-113.29,-40.731,-115.77,101.02,-88.763,38.241,6.0966,93.156
-59.246,-7.9537,-87.137,47.408,-107.73,-71.553,-6.2641,121.56,-113.29,-40.731,-115.77,101.02,-88.763,38.241,6.0966,93.156
-58.987,-9.4662,-87.514,47.103,-106.91,-73.825,-6.1366,121.89,-112.17,-43.572,-116.19,100.4,-87.962,36.187,6.1572,93.097
-58.987,-9.4662,-87.514,47.103,-106.91,-73.825,-6.1366,121.89,-112.17,-43.572,-116.19,100.4,-87.962,36.187,6.1572,93.097
-58.724,-10.982,-87.89,46.796,-106.08,-76.105,-6.0097,122.22,-111.04,-46.415,-116.6,99.77,-87.155,34.126,6.2171,93.037
-58.724,-10.982,-87.89,46.796,-106.08,-76.105,-6.0097,122.22,-111.04,-46.415,-116.6,99.77,-87.155,34.126,6.2171,93.037
-58.457,-12.502,-88.265,46.489,-105.24,-78.393,-5.8835,122.55,-109.91,-49.258,-117.02,99.141,-86.343,32.058,6.2761,92.978
-58.457,-12.502,-88.265,46.489,-105.24,-78.393,-5.8835,122.55,-109.91,-49.258,-117.02,99.141,-86.343,32.058,6.2761,92.978
-58.187,-14.025,-88.64,46.182,-104.4,-80.689,-5.7579,122.88,-108.78,-52.102,-117.43,98.509,-85.525,29.982,6.3342,92.918
-58.187,-14.025,-88.64,46.182,-104.4,-80.689,-5.7579,122.88,-108.78,-52.102,-117.43,98.509,-85.525,29.982,6.3342,92.918
-57.914,-15.552,-89.015,45.873,-103.54,-82.994,-5.6331,123.21,-107.64,-54.948,-117.85,97.874,-84.701,27.899,6.3915,92.858
-57.914,-15.552,-89.015,45.873,-103.54,-82.994,-5.6331,123.21,-107.64,-54.948,-117.85,97.874,-84.701,27.899,6.3915,92.858
-57.637,-17.082,-89.388,45.564,-102.68,-85.307,-5.5089,123.54,-106.5,-57.793,-118.26,97.235,-83.871,25.81,6.4479,92.799
-57.637,-17.082,-89.388,45.564,-102.68,-85.307,-5.5089,123.54,-106.5,-57.793,-118.26,97.235,-83.871,25.81,6.4479,92.799
-57.357,-18.615,-89.761,45.254,-101.81,-87.628,-5.3855,123.87,-105.35,-60.64,-118.67,96.593,-83.035,23.713,6.5034,92.739
-57.357,-18.615,-89.761,45.254,-101.81,-87.628,-5.3855,123.87,-105.35,-60.64,-118.67,96.593,-83.035,23.713,6.5034,92.739
-57.073,-20.151,-90.133,44.944,-100.93,-89.956,-5.2629,124.21,-104.2,-63.486,-119.08,95.947,-82.193,21.61,6.558,92.679
-57.073,-20.151,-90.133,44.944,-100.93,-89.956,-5.2629,124.21,-104.2,-63.486,-119.08,95.947,-82.193,21.61,6.558,92.679
-56.786,-21.69,-90.505,44.633,-100.05,-92.292,-5.1411,124.54,-103.05,-66.333,-119.5,95.298,-81.347,19.499,6.6116,92.619
-56.786,-21.69,-90.505,44.633,-100.05,-92.292,-5.1411,124.54,-103.05,-66.333,-119.5,95.298,-81.347,19.499,6.6116,92.619
-56.496,-23.232,-90.876,44.321,-99.154,-94.636,-5.0201,124.87,-101.89,-69.18,-119.9,94.646,-80.494,17.382,6.6644,92.558
-56.496,-23.232,-90.876,44.321,-99.154,-94.636,-5.0201,124.87,-101.89,-69.18,-119.9,94.646,-80.494,17.382,6.6644,92.558
-56.203,-24.777,-91.246,44.009,-98.252,-96.987,-4.8999,125.2,-100.73,-72.027,-120.31,93.991,-79.636,15.259,6.7161,92.498
-56.203,-24.777,-91.246,44.009,-98.252,-96.987,-4.8999,125.2,-100.73,-72.027,-120.31,93.991,-79.636,15.259,6.7161,92.498
-55.906,-26.324,-91.615,43.696,-97.342,-99.345,-4.7805,125.53,-99.57,-74.873,-120.72,93.332,-78.772,13.129,6.7669,92.437
-55.906,-26.324,-91.615,43.696,-97.342,-99.345,-4.7805,125.53,-99.57,-74.873,-120.72,93.332,-78.772,13.129,6.7669,92.437
-55.607,-27.875,-91.983,43.383,-96.425,-101.71,-4.6621,125.86,-98.403,-77.72,-121.13,92.67,-77.903,10.993,6.8167,92.376
-55.304,-29.427,-92.351,43.069,-95.499,-104.08,-4.5445,126.19,-97.233,-80.565,-121.54,92.004,-77.029,8.8508,6.8655,92.315
-55.304,-29.427,-92.351,43.069,-95.499,-104.08,-4.5445,126.19,-97.233,-80.565,-121.54,92.004,-77.029,8.8508,6.8655,92.315
-55.304,-29.427,-92.351,43.069,-95.499,-104.08,-4.5445,126.19,-97.233,-80.565,-121.54,92.004,-77.029,8.8508,6.8655,92.315
-54.998,-30.982,-92.718,42.754,-94.566,-106.46,-4.4279,126.52,-96.06,-83.41,-121.94,91.336,-76.15,6.7023,6.9133,92.254
-54.998,-30.982,-92.718,42.754,-94.566,-106.46,-4.4279,126.52,-96.06,-83.41,-121.94,91.336,-76.15,6.7023,6.9133,92.254
-54.689,-32.54,-93.084,42.439,-93.626,-108.85,-4.3123,126.86,-94.884,-86.254,-122.34,90.664,-75.265,4.5479,6.9601,92.192
-54.377,-34.1,-93.45,42.124,-92.678,-111.24,-4.1976,127.19,-93.704,-89.097,-122.75,89.988,-74.375,2.3875,7.0057,92.13
-54.377,-34.1,-93.45,42.124,-92.678,-111.24,-4.1976,127.19,-93.704,-89.097,-122.75,89.988,-74.375,2.3875,7.0057,92.13
-54.377,-34.1,-93.45,42.124,-92.678,-111.24,-4.1976,127.19,-93.704,-89.097,-122.75,89.988,-74.375,2.3875,7.0057,92.13
-54.062,-35.661,-93.814,41.808,-91.722,-113.64,-4.0839,127.52,-92.522,-91.938,-123.15,89.31,-73.48,0.22131,7.0504,92.068
-54.062,-35.661,-93.814,41.808,-91.722,-113.64,-4.0839,127.52,-92.522,-91.938,-123.15,89.31,-73.48,0.22131,7.0504,92.068
-53.743,-37.225,-94.178,41.491,-90.759,-116.04,-3.9712,127.85,-91.338,-94.779,-123.55,88.628,-72.579,-1.9506,7.0939,92.005
-53.743,-37.225,-94.178,41.491,-90.759,-116.04,-3.9712,127.85,-91.338,-94.779,-123.55,88.628,-72.579,-1.9506,7.0939,92.005
-53.422,-38.791,-94.541,41.174,-89.789,-118.46,-3.8595,128.17,-90.15,-97.617,-123.95,87.943,-71.674,-4.128,7.1364,91.943
-53.422,-38.791,-94.541,41.174,-89.789,-118.46,-3.8595,128.17,-90.15,-97.617,-123.95,87.943,-71.674,-4.128,7.1364,91.943
-53.098,-40.359,-94.903,40.857,-88.812,-120.87,-3.749,128.5,-88.96,-100.45,-124.35,87.255,-70.764,-6.3109,7.1777,91.879
-53.098,-40.359,-94.903,40.857,-88.812,-120.87,-3.749,128.5,-88.96,-100.45,-124.35,87.255,-70.764,-6.3109,7.1777,91.879
-52.772,-41.928,-95.264,40.539,-87.827,-123.3,-3.6395,128.83,-87.767,-103.29,-124.75,86.563,-69.849,-8.4992,7.218,91.816
-52.772,-41.928,-95.264,40.539,-87.827,-123.3,-3.6395,128.83,-87.767,-103.29,-124.75,86.563,-69.849,-8.4992,7.218,91.816
-52.442,-43.499,-95.624,40.221,-86.835,-125.73,-3.5311,129.16,-86.572,-106.12,-125.14,85.869,-68.929,-10.693,7.2571,91.752
-52.442,-43.499,-95.624,40.221,-86.835,-125.73,-3.5311,129.16,-86.572,-106.12,-125.14,85.869,-68.929,-10.693,7.2571,91.752
-52.11,-45.072,-95.983,39.902,-85.837,-128.16,-3.4239,129.49,-85.374,-108.95,-125.54,85.171,-68.004,-12.891,7.295,91.688
-52.11,-45.072,-95.983,39.902,-85.837,-128.16,-3.4239,129.49,-85.374,-108.95,-125.54,85.171,-68.004,-12.891,7.295,91.688
-51.774,-46.646,-96.342,39.583,-84.831,-130.6,-3.3178,129.82,-84.175,-111.78,-125.93,84.47,-67.075,-15.095,7.3317,91.623
-51.774,-46.646,-96.342,39.583,-84.831,-130.6,-3.3178,129.82,-84.175,-111.78,-125.93,84.47,-67.075,-15.095,7.3317,91.623
-51.437,-48.221,-96.699,39.263,-83.818,-133.05,-3.2128,130.14,-82.973,-114.61,-126.32,83.766,-66.141,-17.304,7.3673,91.558
-51.437,-48.221,-96.699,39.263,-83.818,-133.05,-3.2128,130.14,-82.973,-114.61,-126.32,83.766,-66.141,-17.304,7.3673,91.558
-51.096,-49.797,-97.056,38.944,-82.799,-135.5,-3.1091,130.47,-81.769,-117.43,-126.72,83.059,-65.203,-19.517,7.4017,91.492
-50.753,-51.375,-97.411,38.623,-81.773,-137.95,-3.0066,130.79,-80.563,-120.25,-127.11,82.349,-64.26,-21.735,7.4348,91.426
-50.753,-51.375,-97.411,38.623,-81.773,-137.95,-3.0066,130.79,-80.563,-120.25,-127.11,82.349,-64.26,-21.735,7.4348,91.426
-50.407,-52.954,-97.766,38.303,-80.74,-140.41,-2.9054,131.12,-79.355,-123.07,-127.5,81.636,-63.312,-23.957,7.4668,91.36
-50.407,-52.954,-97.766,38.303,-80.74,-140.41,-2.9054,131.12,-79.355,-123.07,-127.5,81.636,-63.312,-23.957,7.4668,91.36
-50.407,-52.954,-97.766,38.303,-80.74,-140.41,-2.9054,131.12,-79.355,-123.07,-127.5,81.636,-63.312,-23.957,7.4668,91.36
-50.059,-54.533,-98.119,37.982,-79.701,-142.88,-2.8054,131.44,-78.145,-125.89,-127.88,80.919,-62.36,-26.184,7.4974,91.293
-50.059,-54.533,-98.119,37.982,-79.701,-142.88,-2.8054,131.44,-78.145,-125.89,-127.88,80.919,-62.36,-26.184,7.4974,91.293
-49.708,-56.113,-98.472,37.661,-78.655,-145.35,-2.7067,131.76,-76.934,-128.7,-128.27,80.2,-61.404,-28.416,7.5269,91.225
-49.708,-56.113,-98.472,37.661,-78.655,-145.35,-2.7067,131.76,-76.934,-128.7,-128.27,80.2,-61.404,-28.416,7.5269,91.225
-49.354,-57.694,-98.824,37.339,-77.603,-147.82,-2.6093,132.09,-75.721,-131.51,-128.65,79.477,-60.444,-30.651,7.555,91.157
-48.998,-59.276,-99.174,37.018,-76.545,-150.3,-2.5132,132.41,-74.507,-134.31,-129.04,78.752,-59.479,-32.891,7.5818,91.089
-48.998,-59.276,-99.174,37.018,-76.545,-150.3,-2.5132,132.41,-74.507,-134.31,-129.04,78.752,-59.479,-32.891,7.5818,91.089
-48.64,-60.858,-99.524,36.696,-75.48,-152.78,-2.4185,132.73,-73.291,-137.11,-129.42,78.023,-58.51,-35.134,7.6074,91.019
-48.64,-60.858,-99.524,36.696,-75.48,-152.78,-2.4185,132.73,-73.291,-137.11,-129.42,78.023,-58.51,-35.134,7.6074,91.019
-48.64,-60.858,-99.524,36.696,-75.48,-152.78,-2.4185,132.73,-73.291,-137.11,-129.42,78.023,-58.51,-35.134,7.6074,91.019
-48.28,-62.44,-99.873,36.374,-74.41,-155.27,-2.3252,133.05,-72.073,-139.91,-129.8,77.292,-57.537,-37.382,7.6316,90.95
-48.28,-62.44,-99.873,36.374,-74.41,-155.27,-2.3252,133.05,-72.073,-139.91,-129.8,77.292,-57.537,-37.382,7.6316,90.95
-48.28,-62.44,-99.873,36.374,-74.41,-155.27,-2.3252,133.05,-72.073,-139.91,-129.8,77.292,-57.537,-37.382,7.6316,90.95
-47.917,-64.023,-100.22,36.051,-73.333,-157.76,-2.2332,133.37,-70.855,-142.7,-130.18,76.558,-56.561,-39.633,7.6545,90.879
-47.917,-64.023,-100.22,36.051,-73.333,-157.76,-2.2332,133.37,-70.855,-142.7,-130.18,76.558,-56.561,-39.633,7.6545,90.879
-47.551,-65.606,-100.57,35.729,-72.25,-160.25,-2.1427,133.69,-69.635,-145.49,-130.56,75.82,-55.58,-41.888,7.676,90.808
-47.551,-65.606,-100.57,35.729,-72.25,-160.25,-2.1427,133.69,-69.635,-145.49,-130.56,75.82,-55.58,-41.888,7.676,90.808
-46.814,-68.772,-101.26,35.083,-70.067,-165.25,-1.966,134.32,-67.193,-151.05,-131.31,74.337,-53.607,-46.407,7.715,90.665
-46.814,-68.772,-101.26,35.083,-70.067,-165.25,-1.966,134.32,-67.193,-151.05,-131.31,74.337,-53.607,-46.407,7.715,90.665
-46.814,-68.772,-101.26,35.083,-70.067,-165.25,-1.966,134.32,-67.193,-151.05,-131.31,74.337,-53.607,-46.407,7.715,90.665
-46.443,-70.354,-101.6,34.76,-68.967,-167.75,-1.8798,134.63,-65.97,-153.83,-131.68,73.591,-52.615,-48.672,7.7324,90.592
-46.443,-70.354,-101.6,34.76,-68.967,-167.75,-1.8798,134.63,-65.97,-153.83,-131.68,73.591,-52.615,-48.672,7.7324,90.592
-46.069,-71.937,-101.94,34.437,-67.861,-170.26,-1.7952,134.95,-64.747,-156.6,-132.05,72.842,-51.62,-50.94,7.7483,90.518
-46.069,-71.937,-101.94,34.437,-67.861,-170.26,-1.7952,134.95,-64.747,-156.6,-132.05,72.842,-51.62,-50.94,7.7483,90.518
-45.693,-73.519,-102.28,34.114,-66.75,-172.77,-1.7121,135.26,-63.522,-159.36,-132.42,72.091,-50.62,-53.211,7.7629,90.444
-45.315,-75.1,-102.62,33.79,-65.633,-175.28,-1.6305,135.57,-62.298,-162.12,-132.79,71.336,-49.618,-55.484,7.776,90.369
-45.315,-75.1,-102.62,33.79,-65.633,-175.28,-1.6305,135.57,-62.298,-162.12,-132.79,71.336,-49.618,-55.484,7.776,90.369
-45.315,-75.1,-102.62,33.79,-65.633,-175.28,-1.6305,135.57,-62.298,-162.12,-132.79,71.336,-49.618,-55.484,7.776,90.369
-44.935,-76.681,-102.96,33.467,-64.511,-177.79,-1.5505,135.88,-61.073,-164.87,-133.16,70.579,-48.611,-57.76,7.7877,90.294
-44.935,-76.681,-102.96,33.467,-64.511,-177.79,-1.5505,135.88,-61.073,-164.87,-133.16,70.579,-48.611,-57.76,7.7877,90.294
-44.553,-78.261,-103.3,33.143,-63.384,-180.31,-1.4721,136.19,-59.847,-167.62,-133.52,69.819,-47.602,-60.039,7.7979,90.217
-44.553,-78.261,-103.3,33.143,-63.384,-180.31,-1.4721,136.19,-59.847,-167.62,-133.52,69.819,-47.602,-60.039,7.7979,90.217
-44.169,-79.84,-103.64,32.82,-62.251,-182.83,-1.3953,136.5,-58.621,-170.36,-133.89,69.057,-46.589,-62.321,7.8066,90.14
-44.169,-79.84,-103.64,32.82,-62.251,-182.83,-1.3953,136.5,-58.621,-170.36,-133.89,69.057,-46.589,-62.321,7.8066,90.14
-43.784,-81.419,-103.97,32.496,-61.114,-185.35,-1.3202,136.81,-57.395,-173.1,-134.25,68.291,-45.573,-64.604,7.8138,90.062
-43.784,-81.419,-103.97,32.496,-61.114,-185.35,-1.3202,136.81,-57.395,-173.1,-134.25,68.291,-45.573,-64.604,7.8138,90.062
-43.396,-82.996,-104.31,32.173,-59.971,-187.87,-1.2466,137.11,-56.169,-175.83,-134.61,67.523,-44.554,-66.89,7.8195,89.983
-43.396,-82.996,-104.31,32.173,-59.971,-187.87,-1.2466,137.11,-56.169,-175.83,-134.61,67.523,-44.554,-66.89,7.8195,89.983
-43.396,-82.996,-104.31,32.173,-59.971,-187.87,-1.2466,137.11,-56.169,-175.83,-134.61,67.523,-44.554,-66.89,7.8195,89.983
-43.396,-82.996,-104.31,32.173,-59.971,-187.87,-1.2466,137.11,-56.169,-175.83,-134.61,67.523,-44.554,-66.89,7.8195,89.983
-42.616,-86.147,-104.97,31.526,-57.672,-192.92,-1.1046,137.72,-53.717,-181.27,-135.33,65.979,-42.507,-71.468,7.8262,89.824
-42.616,-86.147,-104.97,31.526,-57.672,-192.92,-1.1046,137.72,-53.717,-181.27,-135.33,65.979,-42.507,-71.468,7.8262,89.824
-42.224,-87.72,-105.3,31.202,-56.515,-195.44,-1.0362,138.02,-52.491,-183.98,-135.68,65.203,-41.479,-73.759,7.8273,89.742
-42.224,-87.72,-105.3,31.202,-56.515,-195.44,-1.0362,138.02,-52.491,-183.98,-135.68,65.203,-41.479,-73.759,7.8273,89.742
-41.829,-89.292,-105.63,30.879,-55.354,-197.97,-0.96948,138.32,-51.266,-186.69,-136.03,64.425,-40.448,-76.052,7.8268,89.66
-41.434,-90.862,-105.96,30.556,-54.188,-200.5,-0.90452,138.61,-50.04,-189.39,-136.39,63.644,-39.415,-78.347,7.8247,89.577
-41.434,-90.862,-105.96,30.556,-54.188,-200.5,-0.90452,138.61,-50.04,-189.39,-136.39,63.644,-39.415,-78.347,7.8247,89.577
-41.036,-92.431,-106.28,30.233,-53.018,-203.03,-0.84133,138.91,-48.816,-192.08,-136.74,62.86,-38.379,-80.643,7.821,89.494
-41.036,-92.431,-106.28,30.233,-53.018,-203.03,-0.84133,138.91,-48.816,-192.08,-136.74,62.86,-38.379,-80.643,7.821,89.494
-41.036,-92.431,-106.28,30.233,-53.018,-203.03,-0.84133,138.91,-48.816,-192.08,-136.74,62.86,-38.379,-80.643,7.821,89.494
-40.638,-93.998,-106.61,29.91,-51.843,-205.56,-0.77993,139.21,-47.592,-194.76,-137.08,62.074,-37.34,-82.94,7.8157,89.409
-40.638,-93.998,-106.61,29.91,-51.843,-205.56,-0.77993,139.21,-47.592,-194.76,-137.08,62.074,-37.34,-82.94,7.8157,89.409
-40.638,-93.998,-106.61,29.91,-51.843,-205.56,-0.77993,139.21,-47.592,-194.76,-137.08,62.074,-37.34,-82.94,7.8157,89.409
-40.238,-95.562,-106.93,29.587,-50.664,-208.09,-0.72034,139.5,-46.368,-197.44,-137.43,61.286,-36.299,-85.239,7.8088,89.323
-39.836,-97.125,-107.26,29.264,-49.482,-210.62,-0.66259,139.79,-45.146,-200.11,-137.77,60.495,-35.255,-87.538,7.8002,89.236
-39.433,-98.685,-107.58,28.941,-48.295,-213.15,-0.60668,140.08,-43.924,-202.77,-138.12,59.702,-34.209,-89.838,7.79,89.149
-39.433,-98.685,-107.58,28.941,-48.295,-213.15,-0.60668,140.08,-43.924,-202.77,-138.12,59.702,-34.209,-89.838,7.79,89.149
-39.029,-100.24,-107.9,28.619,-47.104,-215.68,-0.55264,140.37,-42.703,-205.42,-138.46,58.906,-33.16,-92.139,7.7781,89.06
-39.029,-100.24,-107.9,28.619,-47.104,-215.68,-0.55264,140.37,-42.703,-205.42,-138.46,58.906,-33.16,-92.139,7.7781,89.06
-39.029,-100.24,-107.9,28.619,-47.104,-215.68,-0.55264,140.37,-42.703,-205.42,-138.46,58.906,-33.16,-92.139,7.7781,89.06
-38.624,-101.8,-108.22,28.297,-45.91,-218.21,-0.50049,140.65,-41.484,-208.06,-138.79,58.108,-32.11,-94.441,7.7645,88.971
-38.624,-101.8,-108.22,28.297,-45.91,-218.21,-0.50049,140.65,-41.484,-208.06,-138.79,58.108,-32.11,-94.441,7.7645,88.971
-38.217,-103.35,-108.54,27.975,-44.712,-220.74,-0.45025,140.94,-40.265,-210.7,-139.13,57.308,-31.057,-96.742,7.7492,88.88
-38.217,-103.35,-108.54,27.975,-44.712,-220.74,-0.45025,140.94,-40.265,-210.7,-139.13,57.308,-31.057,-96.742,7.7492,88.88
-38.217,-103.35,-108.54,27.975,-44.712,-220.74,-0.45025,140.94,-40.265,-210.7,-139.13,57.308,-31.057,-96.742,7.7492,88.88
-37.809,-104.9,-108.85,27.653,-43.51,-223.27,-0.40194,141.22,-39.048,-213.33,-139.47,56.506,-30.002,-99.044,7.7322,88.788
-37.809,-104.9,-108.85,27.653,-43.51,-223.27,-0.40194,141.22,-39.048,-213.33,-139.47,56.506,-30.002,-99.044,7.7322,88.788
-37.401,-106.45,-109.17,27.332,-42.305,-225.8,-0.35557,141.5,-37.832,-215.95,-139.8,55.701,-28.946,-101.35,7.7135,88.696
-37.401,-106.45,-109.17,27.332,-42.305,-225.8,-0.35557,141.5,-37.832,-215.95,-139.8,55.701,-28.946,-101.35,7.7135,88.696
-37.401,-106.45,-109.17,27.332,-42.305,-225.8,-0.35557,141.5,-37.832,-215.95,-139.8,55.701,-28.946,-101.35,7.7135,88.696
-36.58,-109.54,-109.79,26.69,-39.886,-230.85,-0.26874,142.05,-35.405,-221.16,-140.46,54.085,-26.827,-105.95,7.6709,88.507
-36.58,-109.54,-109.79,26.69,-39.886,-230.85,-0.26874,142.05,-35.405,-221.16,-140.46,54.085,-26.827,-105.95,7.6709,88.507
-36.58,-109.54,-109.79,26.69,-39.886,-230.85,-0.26874,142.05,-35.405,-221.16,-140.46,54.085,-26.827,-105.95,7.6709,88.507
-36.168,-111.07,-110.1,26.37,-38.671,-233.37,-0.22832,142.33,-34.194,-223.75,-140.78,53.273,-25.765,-108.25,7.6469,88.411
-35.756,-112.61,-110.41,26.05,-37.453,-235.9,-0.18992,142.6,-32.985,-226.34,-141.11,52.46,-24.701,-110.55,7.6211,88.314
-35.342,-114.14,-110.72,25.73,-36.233,-238.42,-0.15355,142.87,-31.778,-228.91,-141.43,51.645,-23.636,-112.85,7.5936,88.216
-35.342,-114.14,-110.72,25.73,-36.233,-238.42,-0.15355,142.87,-31.778,-228.91,-141.43,51.645,-23.636,-112.85,7.5936,88.216
-35.342,-114.14,-110.72,25.73,-36.233,-238.42,-0.15355,142.87,-31.778,-228.91,-141.43,51.645,-23.636,-112.85,7.5936,88.216
-34.928,-115.67,-111.03,25.411,-35.009,-240.94,-0.11924,143.14,-30.572,-231.48,-141.75,50.827,-22.569,-115.15,7.5643,88.116
-34.928,-115.67,-111.03,25.411,-35.009,-240.94,-0.11924,143.14,-30.572,-231.48,-141.75,50.827,-22.569,-115.15,7.5643,88.116
-34.513,-117.2,-111.33,25.092,-33.783,-243.45,-0.087008,143.4,-29.369,-234.03,-142.07,50.008,-21.501,-117.45,7.5331,88.016
-34.513,-117.2,-111.33,25.092,-33.783,-243.45,-0.087008,143.4,-29.369,-234.03,-142.07,50.008,-21.501,-117.45,7.5331,88.016
-34.097,-118.72,-111.64,24.774,-32.554,-245.97,-0.056862,143.66,-28.168,-236.58,-142.38,49.186,-20.431,-119.75,7.5001,87.914
-34.097,-118.72,-111.64,24.774,-32.554,-245.97,-0.056862,143.66,-28.168,-236.58,-142.38,49.186,-20.431,-119.75,7.5001,87.914
-33.681,-120.23,-111.94,24.456,-31.323,-248.48,-0.028825,143.92,-26.969,-239.11,-142.7,48.363,-19.361,-122.05,7.4652,87.811
-33.681,-120.23,-111.94,24.456,-31.323,-248.48,-0.028825,143.92,-26.969,-239.11,-142.7,48.363,-19.361,-122.05,7.4652,87.811
-33.264,-121.75,-112.24,24.138,-30.09,-250.99,-0.0029127,144.18,-25.773,-241.64,-143.01,47.537,-18.289,-124.34,7.4285,87.707
-32.846,-123.26,-112.54,23.821,-28.854,-253.5,0.020856,144.44,-24.579,-244.15,-143.32,46.71,-17.216,-126.64,7.39,87.601
-32.846,-123.26,-112.54,23.821,-28.854,-253.5,0.020856,144.44,-24.579,-244.15,-143.32,46.71,-17.216,-126.64,7.39,87.601
-32.846,-123.26,-112.54,23.821,-28.854,-253.5,0.020856,144.44,-24.579,-244.15,-143.32,46.71,-17.216,-126.64,7.39,87.601
-32.429,-124.76,-112.83,23.505,-27.616,-256,0.042466,144.69,-23.388,-246.65,-143.63,45.881,-16.143,-128.93,7.3495,87.495
-32.429,-124.76,-112.83,23.505,-27.616,-256,0.042466,144.69,-23.388,-246.65,-143.63,45.881,-16.143,-128.93,7.3495,87.495
-32.01,-126.26,-113.13,23.189,-26.377,-258.5,0.061898,144.94,-22.2,-249.15,-143.93,45.051,-15.068,-131.22,7.3072,87.387
-32.01,-126.26,-113.13,23.189,-26.377,-258.5,0.061898,144.94,-22.2,-249.15,-143.93,45.051,-15.068,-131.22,7.3072,87.387
-31.591,-127.76,-113.42,22.874,-25.135,-260.99,0.079138,145.19,-21.014,-251.63,-144.23,44.218,-13.993,-133.51,7.2629,87.277
-31.172,-129.25,-113.72,22.559,-23.892,-263.49,0.094168,145.44,-19.831,-254.1,-144.54,43.384,-12.916,-135.8,7.2167,87.167
-31.172,-129.25,-113.72,22.559,-23.892,-263.49,0.094168,145.44,-19.831,-254.1,-144.54,43.384,-12.916,-135.8,7.2167,87.167
-30.753,-130.74,-114.01,22.245,-22.646,-265.98,0.10697,145.68,-18.651,-256.56,-144.83,42.548,-11.84,-138.08,7.1686,87.055
-30.753,-130.74,-114.01,22.245,-22.646,-265.98,0.10697,145.68,-18.651,-256.56,-144.83,42.548,-11.84,-138.08,7.1686,87.055
-30.333,-132.22,-114.3,21.931,-21.4,-268.46,0.11753,145.92,-17.475,-259.01,-145.13,41.711,-10.763,-140.36,7.1185,86.942
-30.333,-132.22,-114.3,21.931,-21.4,-268.46,0.11753,145.92,-17.475,-259.01,-145.13,41.711,-10.763,-140.36,7.1185,86.942
-29.914,-133.7,-114.59,21.618,-20.152,-270.94,0.12583,146.16,-16.301,-261.45,-145.42,40.872,-9.6849,-142.64,7.0665,86.827
-29.914,-133.7,-114.59,21.618,-20.152,-270.94,0.12583,146.16,-16.301,-261.45,-145.42,40.872,-9.6849,-142.64,7.0665,86.827
-29.914,-133.7,-114.59,21.618,-20.152,-270.94,0.12583,146.16,-16.301,-261.45,-145.42,40.872,-9.6849,-142.64,7.0665,86.827
-29.914,-133.7,-114.59,21.618,-20.152,-270.94,0.12583,146.16,-16.301,-261.45,-145.42,40.872,-9.6849,-142.64,7.0665,86.827
-29.494,-135.17,-114.87,21.306,-18.902,-273.42,0.13186,146.4,-15.131,-263.87,-145.71,40.031,-8.6068,-144.92,7.0125,86.711
-29.494,-135.17,-114.87,21.306,-18.902,-273.42,0.13186,146.4,-15.131,-263.87,-145.71,40.031,-8.6068,-144.92,7.0125,86.711
-29.074,-136.64,-115.16,20.994,-17.652,-275.89,0.1356,146.63,-13.965,-266.29,-146,39.189,-7.5285,-147.2,6.9565,86.593
-29.074,-136.64,-115.16,20.994,-17.652,-275.89,0.1356,146.63,-13.965,-266.29,-146,39.189,-7.5285,-147.2,6.9565,86.593
-28.234,-139.55,-115.72,20.373,-15.148,-280.82,0.13615,147.09,-11.642,-271.08,-146.58,37.5,-5.3715,-151.74,6.8386,86.354
-28.234,-139.55,-115.72,20.373,-15.148,-280.82,0.13615,147.09,-11.642,-271.08,-146.58,37.5,-5.3715,-151.74,6.8386,86.354
-28.234,-139.55,-115.72,20.373,-15.148,-280.82,0.13615,147.09,-11.642,-271.08,-146.58,37.5,-5.3715,-151.74,6.8386,86.354
-27.814,-141.01,-116,20.063,-13.894,-283.28,0.13292,147.31,-10.486,-273.46,-146.86,36.654,-4.2929,-154,6.7766,86.233
-27.814,-141.01,-116,20.063,-13.894,-283.28,0.13292,147.31,-10.486,-273.46,-146.86,36.654,-4.2929,-154,6.7766,86.233
-27.814,-141.01,-116,20.063,-13.894,-283.28,0.13292,147.31,-10.486,-273.46,-146.86,36.654,-4.2929,-154,6.7766,86.233
-27.395,-142.45,-116.28,19.755,-12.64,-285.73,0.12735,147.53,-9.3346,-275.82,-147.14,35.806,-3.2144,-156.26,6.7126,86.11
-26.975,-143.89,-116.56,19.447,-11.385,-288.17,0.11941,147.75,-8.1867,-278.17,-147.41,34.957,-2.1361,-158.52,6.6465,85.985
-26.556,-145.32,-116.84,19.14,-10.13,-290.61,0.10909,147.97,-7.0429,-280.51,-147.69,34.107,-1.058,-160.78,6.5784,85.859
-26.556,-145.32,-116.84,19.14,-10.13,-290.61,0.10909,147.97,-7.0429,-280.51,-147.69,34.107,-1.058,-160.78,6.5784,85.859
-26.137,-146.75,-117.11,18.833,-8.8747,-293.05,0.096375,148.18,-5.9031,-282.84,-147.96,33.255,0.019685,-163.03,6.5083,85.731
-26.137,-146.75,-117.11,18.833,-8.8747,-293.05,0.096375,148.18,-5.9031,-282.84,-147.96,33.255,0.019685,-163.03,6.5083,85.731
-26.137,-146.75,-117.11,18.833,-8.8747,-293.05,0.096375,148.18,-5.9031,-282.84,-147.96,33.255,0.019685,-163.03,6.5083,85.731
-25.719,-148.17,-117.38,18.528,-7.619,-295.47,0.081252,148.39,-4.7677,-285.15,-148.23,32.402,1.0969,-165.27,6.436,85.602
-25.719,-148.17,-117.38,18.528,-7.619,-295.47,0.081252,148.39,-4.7677,-285.15,-148.23,32.402,1.0969,-165.27,6.436,85.602
-25.3,-149.59,-117.65,18.223,-6.3632,-297.89,0.063706,148.6,-3.6366,-287.45,-148.5,31.548,2.1737,-167.51,6.3617,85.471
-25.3,-149.59,-117.65,18.223,-6.3632,-297.89,0.063706,148.6,-3.6366,-287.45,-148.5,31.548,2.1737,-167.51,6.3617,85.471
-24.883,-151,-117.92,17.919,-5.1074,-300.31,0.043723,148.8,-2.5099,-289.74,-148.76,30.694,3.2498,-169.75,6.2852,85.339
-24.883,-151,-117.92,17.919,-5.1074,-300.31,0.043723,148.8,-2.5099,-289.74,-148.76,30.694,3.2498,-169.75,6.2852,85.339
-24.466,-152.4,-118.19,17.617,-3.8517,-302.72,0.02129,149,-1.3878,-292.01,-149.03,29.838,4.3252,-171.99,6.2067,85.205
-24.466,-152.4,-118.19,17.617,-3.8517,-302.72,0.02129,149,-1.3878,-292.01,-149.03,29.838,4.3252,-171.99,6.2067,85.205
-24.049,-153.8,-118.45,17.315,-2.5963,-305.12,-0.0036058,149.2,-0.2704,-294.27,-149.29,28.981,5.3998,-174.22,6.1261,85.069
-24.049,-153.8,-118.45,17.315,-2.5963,-305.12,-0.0036058,149.2,-0.2704,-294.27,-149.29,28.981,5.3998,-174.22,6.1261,85.069
-23.633,-155.19,-118.71,17.014,-1.3413,-307.51,-0.030979,149.39,0.84226,-296.52,-149.55,28.123,6.4735,-176.44,6.0433,84.932
-23.633,-155.19,-118.71,17.014,-1.3413,-307.51,-0.030979,149.39,0.84226,-296.52,-149.55,28.123,6.4735,-176.44,6.0433,84.932
-23.218,-156.57,-118.98,16.713,-0.0868,-309.9,-0.060842,149.58,1.9501,-298.75,-149.8,27.264,7.5462,-178.66,5.9584,84.794
-22.804,-157.94,-119.24,16.414,1.1671,-312.28,-0.093207,149.77,3.0529,-300.96,-150.05,26.404,8.6179,-180.87,5.8713,84.653
-22.804,-157.94,-119.24,16.414,1.1671,-312.28,-0.093207,149.77,3.0529,-300.96,-150.05,26.404,8.6179,-180.87,5.8713,84.653
-22.39,-159.31,-119.49,16.116,2.4201,-314.65,-0.12809,149.95,4.1507,-303.17,-150.3,25.544,9.6883,-183.08,5.7821,84.511
-22.39,-159.31,-119.49,16.116,2.4201,-314.65,-0.12809,149.95,4.1507,-303.17,-150.3,25.544,9.6883,-183.08,5.7821,84.511
-21.977,-160.67,-119.75,15.819,3.6723,-317.01,-0.1655,150.13,5.2432,-305.36,-150.55,24.682,10.758,-185.29,5.6907,84.367
-21.977,-160.67,-119.75,15.819,3.6723,-317.01,-0.1655,150.13,5.2432,-305.36,-150.55,24.682,10.758,-185.29,5.6907,84.367
-21.977,-160.67,-119.75,15.819,3.6723,-317.01,-0.1655,150.13,5.2432,-305.36,-150.55,24.682,10.758,-185.29,5.6907,84.367
-21.565,-162.03,-120.01,15.523,4.9235,-319.37,-0.20544,150.31,6.3306,-307.53,-150.8,23.82,11.825,-187.48,5.5971,84.222
-21.565,-162.03,-120.01,15.523,4.9235,-319.37,-0.20544,150.31,6.3306,-307.53,-150.8,23.82,11.825,-187.48,5.5971,84.222
-21.154,-163.38,-120.26,15.228,6.1736,-321.71,-0.24794,150.48,7.4125,-309.69,-151.04,22.958,12.892,-189.68,5.5013,84.075
-21.154,-163.38,-120.26,15.228,6.1736,-321.71,-0.24794,150.48,7.4125,-309.69,-151.04,22.958,12.892,-189.68,5.5013,84.075
-20.744,-164.72,-120.51,14.934,7.4224,-324.05,-0.29301,150.65,8.489,-311.83,-151.28,22.094,13.957,-191.86,5.4034,83.926
-20.744,-164.72,-120.51,14.934,7.4224,-324.05,-0.29301,150.65,8.489,-311.83,-151.28,22.094,13.957,-191.86,5.4034,83.926
-20.335,-166.05,-120.76,14.641,8.6698,-326.38,-0.34065,150.82,9.5599,-313.96,-151.52,21.23,15.02,-194.04,5.3032,83.775
-20.335,-166.05,-120.76,14.641,8.6698,-326.38,-0.34065,150.82,9.5599,-313.96,-151.52,21.23,15.02,-194.04,5.3032,83.775
-20.335,-166.05,-120.76,14.641,8.6698,-326.38,-0.34065,150.82,9.5599,-313.96,-151.52,21.23,15.02,-194.04,5.3032,83.775
-20.335,-166.05,-120.76,14.641,8.6698,-326.38,-0.34065,150.82,9.5599,-313.96,-151.52,21.23,15.02,-194.04,5.3032,83.775
-19.521,-168.69,-121.25,14.059,11.16,-331.01,-0.44369,151.14,11.685,-318.17,-151.98,19.501,17.142,-198.39,5.0963,83.469
-19.521,-168.69,-121.25,14.059,11.16,-331.01,-0.44369,151.14,11.685,-318.17,-151.98,19.501,17.142,-198.39,5.0963,83.469
-19.521,-168.69,-121.25,14.059,11.16,-331.01,-0.44369,151.14,11.685,-318.17,-151.98,19.501,17.142,-198.39,5.0963,83.469
-19.116,-170,-121.49,13.77,12.402,-333.32,-0.49912,151.29,12.738,-320.26,-152.21,18.636,18.199,-200.55,4.9894,83.313
-19.116,-170,-121.49,13.77,12.402,-333.32,-0.49912,151.29,12.738,-320.26,-152.21,18.636,18.199,-200.55,4.9894,83.313
-18.309,-172.59,-121.98,13.195,14.882,-337.89,-0.61785,151.59,14.827,-324.37,-152.66,16.904,20.309,-204.85,4.769,82.995
-18.309,-172.59,-121.98,13.195,14.882,-337.89,-0.61785,151.59,14.827,-324.37,-152.66,16.904,20.309,-204.85,4.769,82.995
-17.907,-173.87,-122.21,12.909,16.118,-340.16,-0.68117,151.74,15.863,-326.41,-152.89,16.037,21.361,-206.99,4.6554,82.834
-17.907,-173.87,-122.21,12.909,16.118,-340.16,-0.68117,151.74,15.863,-326.41,-152.89,16.037,21.361,-206.99,4.6554,82.834
-17.907,-173.87,-122.21,12.909,16.118,-340.16,-0.68117,151.74,15.863,-326.41,-152.89,16.037,21.361,-206.99,4.6554,82.834
-17.507,-175.15,-122.45,12.624,17.352,-342.43,-0.74714,151.88,16.892,-328.43,-153.1,15.171,22.41,-209.13,4.5396,82.671
-17.507,-175.15,-122.45,12.624,17.352,-342.43,-0.74714,151.88,16.892,-328.43,-153.1,15.171,22.41,-209.13,4.5396,82.671
-17.507,-175.15,-122.45,12.624,17.352,-342.43,-0.74714,151.88,16.892,-328.43,-153.1,15.171,22.41,-209.13,4.5396,82.671
-17.109,-176.41,-122.68,12.341,18.584,-344.68,-0.81576,152.01,17.914,-330.43,-153.32,14.304,23.457,-211.25,4.4215,82.505
-16.712,-177.67,-122.92,12.059,19.813,-346.92,-0.88706,152.15,18.931,-332.42,-153.54,13.437,24.502,-213.37,4.3011,82.338
-16.317,-178.92,-123.15,11.778,21.04,-349.15,-0.96103,152.27,19.94,-334.38,-153.75,12.57,25.544,-215.48,4.1784,82.169
-16.317,-178.92,-123.15,11.778,21.04,-349.15,-0.96103,152.27,19.94,-334.38,-153.75,12.57,25.544,-215.48,4.1784,82.169
-16.317,-178.92,-123.15,11.778,21.04,-349.15,-0.96103,152.27,19.94,-334.38,-153.75,12.57,25.544,-215.48,4.1784,82.169
-15.923,-180.16,-123.37,11.499,22.263,-351.37,-1.0377,152.4,20.943,-336.34,-153.95,11.703,26.583,-217.59,4.0534,81.999
-15.923,-180.16,-123.37,11.499,22.263,-351.37,-1.0377,152.4,20.943,-336.34,-153.95,11.703,26.583,-217.59,4.0534,81.999
-15.531,-181.39,-123.6,11.221,23.484,-353.58,-1.117,152.52,21.94,-338.27,-154.16,10.835,27.62,-219.69,3.9261,81.826
-15.531,-181.39,-123.6,11.221,23.484,-353.58,-1.117,152.52,21.94,-338.27,-154.16,10.835,27.62,-219.69,3.9261,81.826
-15.141,-182.61,-123.82,10.944,24.702,-355.78,-1.1991,152.63,22.929,-340.19,-154.36,9.9684,28.654,-221.77,3.7965,81.651
-15.141,-182.61,-123.82,10.944,24.702,-355.78,-1.1991,152.63,22.929,-340.19,-154.36,9.9684,28.654,-221.77,3.7965,81.651
-14.753,-183.83,-124.05,10.668,25.917,-357.97,-1.2839,152.75,23.911,-342.09,-154.56,9.1014,29.685,-223.85,3.6645,81.474
-14.753,-183.83,-124.05,10.668,25.917,-357.97,-1.2839,152.75,23.911,-342.09,-154.56,9.1014,29.685,-223.85,3.6645,81.474
-14.367,-185.03,-124.27,10.395,27.128,-360.14,-1.3714,152.85,24.887,-343.98,-154.76,8.2346,30.713,-225.93,3.5303,81.296
-14.367,-185.03,-124.27,10.395,27.128,-360.14,-1.3714,152.85,24.887,-343.98,-154.76,8.2346,30.713,-225.93,3.5303,81.296
-13.982,-186.23,-124.49,10.122,28.336,-362.3,-1.4616,152.96,25.855,-345.85,-154.96,7.368,31.738,-227.99,3.3937,81.115
-13.982,-186.23,-124.49,10.122,28.336,-362.3,-1.4616,152.96,25.855,-345.85,-154.96,7.368,31.738,-227.99,3.3937,81.115
-13.6,-187.41,-124.7,9.8508,29.54,-364.46,-1.5546,153.06,26.816,-347.69,-155.15,6.5017,32.76,-230.04,3.2548,80.932
-13.6,-187.41,-124.7,9.8508,29.54,-364.46,-1.5546,153.06,26.816,-347.69,-155.15,6.5017,32.76,-230.04,3.2548,80.932
-13.219,-188.59,-124.92,9.5811,30.741,-366.59,-1.6503,153.15,27.77,-349.53,-155.34,5.6357,33.778,-232.09,3.1135,80.748
-13.219,-188.59,-124.92,9.5811,30.741,-366.59,-1.6503,153.15,27.77,-349.53,-155.34,5.6357,33.778,-232.09,3.1135,80.748
-12.841,-189.75,-125.13,9.3128,31.938,-368.72,-1.7487,153.24,28.716,-351.34,-155.52,4.77,34.793,-234.13,2.9699,80.561
-12.841,-189.75,-125.13,9.3128,31.938,-368.72,-1.7487,153.24,28.716,-351.34,-155.52,4.77,34.793,-234.13,2.9699,80.561
-12.841,-189.75,-125.13,9.3128,31.938,-368.72,-1.7487,153.24,28.716,-351.34,-155.52,4.77,34.793,-234.13,2.9699,80.561
-12.091,-192.05,-125.55,8.7808,34.32,-372.93,-1.9539,153.41,30.586,-354.91,-155.89,3.04,36.813,-238.18,2.6756,80.182
-12.091,-192.05,-125.55,8.7808,34.32,-372.93,-1.9539,153.41,30.586,-354.91,-155.89,3.04,36.813,-238.18,2.6756,80.182
-12.091,-192.05,-125.55,8.7808,34.32,-372.93,-1.9539,153.41,30.586,-354.91,-155.89,3.04,36.813,-238.18,2.6756,80.182
-11.719,-193.19,-125.76,8.5171,35.505,-375.02,-2.0606,153.49,31.509,-356.67,-156.07,2.1758,37.818,-240.18,2.5248,79.989
-11.719,-193.19,-125.76,8.5171,35.505,-375.02,-2.0606,153.49,31.509,-356.67,-156.07,2.1758,37.818,-240.18,2.5248,79.989
-11.719,-193.19,-125.76,8.5171,35.505,-375.02,-2.0606,153.49,31.509,-356.67,-156.07,2.1758,37.818,-240.18,2.5248,79.989
-11.349,-194.31,-125.96,8.2548,36.685,-377.1,-2.1702,153.56,32.425,-358.42,-156.24,1.3121,38.818,-242.18,2.3718,79.794
-10.982,-195.43,-126.16,7.9942,37.861,-379.16,-2.2825,153.63,33.333,-360.14,-156.42,0.44907,39.815,-244.17,2.2163,79.597
-10.618,-196.53,-126.36,7.7351,39.033,-381.21,-2.3975,153.7,34.232,-361.84,-156.59,-0.4133,40.808,-246.16,2.0585,79.398
-10.618,-196.53,-126.36,7.7351,39.033,-381.21,-2.3975,153.7,34.232,-361.84,-156.59,-0.4133,40.808,-246.16,2.0585,79.398
-10.255,-197.63,-126.56,7.4776,40.199,-383.24,-2.5154,153.76,35.124,-363.53,-156.76,-1.2749,41.797,-248.13,1.8982,79.196
-10.255,-197.63,-126.56,7.4776,40.199,-383.24,-2.5154,153.76,35.124,-363.53,-156.76,-1.2749,41.797,-248.13,1.8982,79.196
-10.255,-197.63,-126.56,7.4776,40.199,-383.24,-2.5154,153.76,35.124,-363.53,-156.76,-1.2749,41.797,-248.13,1.8982,79.196
-9.8958,-198.71,-126.76,7.2218,41.361,-385.26,-2.6361,153.81,36.008,-365.2,-156.92,-2.1358,42.782,-250.09,1.7356,78.993
-9.8958,-198.71,-126.76,7.2218,41.361,-385.26,-2.6361,153.81,36.008,-365.2,-156.92,-2.1358,42.782,-250.09,1.7356,78.993
-9.8958,-198.71,-126.76,7.2218,41.361,-385.26,-2.6361,153.81,36.008,-365.2,-156.92,-2.1358,42.782,-250.09,1.7356,78.993
-9.5386,-199.78,-126.95,6.9675,42.518,-387.26,-2.7596,153.86,36.883,-366.84,-157.08,-2.9958,43.763,-252.04,1.5706,78.787
-9.5386,-199.78,-126.95,6.9675,42.518,-387.26,-2.7596,153.86,36.883,-366.84,-157.08,-2.9958,43.763,-252.04,1.5706,78.787
-9.1841,-200.84,-127.14,6.7149,43.67,-389.25,-2.8859,153.91,37.75,-368.47,-157.24,-3.8549,44.739,-253.98,1.4032,78.58
-9.1841,-200.84,-127.14,6.7149,43.67,-389.25,-2.8859,153.91,37.75,-368.47,-157.24,-3.8549,44.739,-253.98,1.4032,78.58
-9.1841,-200.84,-127.14,6.7149,43.67,-389.25,-2.8859,153.91,37.75,-368.47,-157.24,-3.8549,44.739,-253.98,1.4032,78.58
-8.4831,-202.94,-127.52,6.2147,45.959,-393.19,-3.1469,153.99,39.458,-371.67,-157.55,-5.5703,46.679,-257.82,1.0612,78.158
-8.4831,-202.94,-127.52,6.2147,45.959,-393.19,-3.1469,153.99,39.458,-371.67,-157.55,-5.5703,46.679,-257.82,1.0612,78.158
-8.1367,-203.96,-127.71,5.9671,47.095,-395.14,-3.2816,154.02,40.3,-373.24,-157.7,-6.4264,47.642,-259.73,0.88652,77.944
-8.1367,-203.96,-127.71,5.9671,47.095,-395.14,-3.2816,154.02,40.3,-373.24,-157.7,-6.4264,47.642,-259.73,0.88652,77.944
-8.1367,-203.96,-127.71,5.9671,47.095,-395.14,-3.2816,154.02,40.3,-373.24,-157.7,-6.4264,47.642,-259.73,0.88652,77.944
-7.7932,-204.98,-127.89,5.7212,48.225,-397.07,-3.4192,154.05,41.132,-374.79,-157.85,-7.2814,48.6,-261.63,0.70947,77.727
-7.4526,-205.99,-128.07,5.4771,49.35,-398.99,-3.5596,154.07,41.956,-376.32,-158,-8.1353,49.554,-263.51,0.53001,77.509
-7.1148,-206.98,-128.25,5.2347,50.469,-400.89,-3.7028,154.09,42.771,-377.84,-158.14,-8.988,50.503,-265.39,0.34812,77.288
-7.1148,-206.98,-128.25,5.2347,50.469,-400.89,-3.7028,154.09,42.771,-377.84,-158.14,-8.988,50.503,-265.39,0.34812,77.288
-6.7801,-207.97,-128.43,4.994,51.582,-402.77,-3.8488,154.1,43.577,-379.33,-158.28,-9.8393,51.447,-267.25,0.16382,77.065
-6.7801,-207.97,-128.43,4.994,51.582,-402.77,-3.8488,154.1,43.577,-379.33,-158.28,-9.8393,51.447,-267.25,0.16382,77.065
-6.7801,-207.97,-128.43,4.994,51.582,-402.77,-3.8488,154.1,43.577,-379.33,-158.28,-9.8393,51.447,-267.25,0.16382,77.065
-6.4484,-208.94,-128.61,4.7552,52.689,-404.64,-3.9977,154.11,44.374,-380.8,-158.42,-10.689,52.386,-269.1,-0.02291,76.839
-6.4484,-208.94,-128.61,4.7552,52.689,-404.64,-3.9977,154.11,44.374,-380.8,-158.42,-10.689,52.386,-269.1,-0.02291,76.839
-6.1197,-209.9,-128.78,4.5181,53.789,-406.5,-4.1494,154.11,45.162,-382.25,-158.55,-11.538,53.32,-270.94,-0.21206,76.612
-6.1197,-209.9,-128.78,4.5181,53.789,-406.5,-4.1494,154.11,45.162,-382.25,-158.55,-11.538,53.32,-270.94,-0.21206,76.612
-6.1197,-209.9,-128.78,4.5181,53.789,-406.5,-4.1494,154.11,45.162,-382.25,-158.55,-11.538,53.32,-270.94,-0.21206,76.612
-5.7942,-210.85,-128.95,4.2828,54.884,-408.33,-4.304,154.11,45.941,-383.68,-158.68,-12.385,54.249,-272.77,-0.40364,76.382
-5.7942,-210.85,-128.95,4.2828,54.884,-408.33,-4.304,154.11,45.941,-383.68,-158.68,-12.385,54.249,-272.77,-0.40364,76.382
-5.1528,-212.71,-129.28,3.8178,57.053,-411.96,-4.6216,154.09,47.47,-386.48,-158.94,-14.075,56.09,-276.38,-0.79409,75.915
-5.1528,-212.71,-129.28,3.8178,57.053,-411.96,-4.6216,154.09,47.47,-386.48,-158.94,-14.075,56.09,-276.38,-0.79409,75.915
-5.1528,-212.71,-129.28,3.8178,57.053,-411.96,-4.6216,154.09,47.47,-386.48,-158.94,-14.075,56.09,-276.38,-0.79409,75.915
-4.8369,-213.62,-129.45,3.588,58.128,-413.75,-4.7847,154.07,48.221,-387.85,-159.06,-14.918,57.003,-278.17,-0.99296,75.678
-4.8369,-213.62,-129.45,3.588,58.128,-413.75,-4.7847,154.07,48.221,-387.85,-159.06,-14.918,57.003,-278.17,-0.99296,75.678
-4.8369,-213.62,-129.45,3.588,58.128,-413.75,-4.7847,154.07,48.221,-387.85,-159.06,-14.918,57.003,-278.17,-0.99296,75.678
-4.5244,-214.52,-129.61,3.3601,59.196,-415.52,-4.9506,154.05,48.962,-389.2,-159.18,-15.759,57.91,-279.95,-1.1943,75.439
-4.5244,-214.52,-129.61,3.3601,59.196,-415.52,-4.9506,154.05,48.962,-389.2,-159.18,-15.759,57.91,-279.95,-1.1943,75.439
-3.9095,-216.28,-129.93,2.91,61.311,-419.01,-5.291,153.99,50.415,-391.84,-159.42,-17.436,59.707,-283.47,-1.6042,74.954
-3.9095,-216.28,-129.93,2.91,61.311,-419.01,-5.291,153.99,50.415,-391.84,-159.42,-17.436,59.707,-283.47,-1.6042,74.954
-3.6073,-217.15,-130.08,2.6878,62.358,-420.72,-5.4654,153.95,51.128,-393.13,-159.53,-18.272,60.597,-285.21,-1.8128,74.708
-3.6073,-217.15,-130.08,2.6878,62.358,-420.72,-5.4654,153.95,51.128,-393.13,-159.53,-18.272,60.597,-285.21,-1.8128,74.708
-3.6073,-217.15,-130.08,2.6878,62.358,-420.72,-5.4654,153.95,51.128,-393.13,-159.53,-18.272,60.597,-285.21,-1.8128,74.708
-3.3086,-218,-130.24,2.4675,63.398,-422.43,-5.6427,153.91,51.83,-394.39,-159.64,-19.106,61.481,-286.94,-2.0238,74.46
-3.3086,-218,-130.24,2.4675,63.398,-422.43,-5.6427,153.91,51.83,-394.39,-159.64,-19.106,61.481,-286.94,-2.0238,74.46
-3.0134,-218.83,-130.39,2.2492,64.43,-424.11,-5.8228,153.86,52.522,-395.64,-159.75,-19.938,62.36,-288.65,-2.2373,74.209
-3.0134,-218.83,-130.39,2.2492,64.43,-424.11,-5.8228,153.86,52.522,-395.64,-159.75,-19.938,62.36,-288.65,-2.2373,74.209
-2.7218,-219.66,-130.54,2.0328,65.455,-425.77,-6.0058,153.81,53.205,-396.86,-159.85,-20.768,63.232,-290.35,-2.4531,73.956
-2.7218,-219.66,-130.54,2.0328,65.455,-425.77,-6.0058,153.81,53.205,-396.86,-159.85,-20.768,63.232,-290.35,-2.4531,73.956
-2.4339,-220.47,-130.69,1.8184,66.472,-427.42,-6.1916,153.75,53.877,-398.06,-159.95,-21.596,64.098,-292.04,-2.6715,73.701
-2.4339,-220.47,-130.69,1.8184,66.472,-427.42,-6.1916,153.75,53.877,-398.06,-159.95,-21.596,64.098,-292.04,-2.6715,73.701
-2.1497,-221.27,-130.83,1.6059,67.481,-429.05,-6.3803,153.68,54.539,-399.24,-160.05,-22.422,64.958,-293.71,-2.8922,73.443
-2.1497,-221.27,-130.83,1.6059,67.481,-429.05,-6.3803,153.68,54.539,-399.24,-160.05,-22.422,64.958,-293.71,-2.8922,73.443
-1.8693,-222.06,-130.97,1.3955,68.483,-430.66,-6.5718,153.62,55.191,-400.4,-160.15,-23.246,65.811,-295.37,-3.1154,73.183
-1.8693,-222.06,-130.97,1.3955,68.483,-430.66,-6.5718,153.62,55.191,-400.4,-160.15,-23.246,65.811,-295.37,-3.1154,73.183
-1.5926,-222.83,-131.11,1.187,69.476,-432.25,-6.7661,153.54,55.833,-401.54,-160.24,-24.068,66.658,-297.01,-3.341,72.92
-1.5926,-222.83,-131.11,1.187,69.476,-432.25,-6.7661,153.54,55.833,-401.54,-160.24,-24.068,66.658,-297.01,-3.341,72.92
-1.3198,-223.59,-131.25,0.98058,70.462,-433.82,-6.9633,153.46,56.464,-402.65,-160.33,-24.887,67.499,-298.65,-3.5691,72.655
-1.3198,-223.59,-131.25,0.98058,70.462,-433.82,-6.9633,153.46,56.464,-402.65,-160.33,-24.887,67.499,-298.65,-3.5691,72.655
-1.0509,-224.34,-131.39,0.77616,71.439,-435.38,-7.1633,153.38,57.085,-403.75,-160.42,-25.704,68.333,-300.26,-3.7995,72.388
-1.0509,-224.34,-131.39,0.77616,71.439,-435.38,-7.1633,153.38,57.085,-403.75,-160.42,-25.704,68.333,-300.26,-3.7995,72.388
-0.78588,-225.07,-131.52,0.57379,72.408,-436.91,-7.3662,153.29,57.696,-404.82,-160.51,-26.519,69.16,-301.87,-4.0324,72.118
-0.78588,-225.07,-131.52,0.57379,72.408,-436.91,-7.3662,153.29,57.696,-404.82,-160.51,-26.519,69.16,-301.87,-4.0324,72.118
-0.52485,-225.79,-131.65,0.37346,73.368,-438.43,-7.5718,153.19,58.296,-405.87,-160.59,-27.332,69.981,-303.46,-4.2677,71.846
-0.52485,-225.79,-131.65,0.37346,73.368,-438.43,-7.5718,153.19,58.296,-405.87,-160.59,-27.332,69.981,-303.46,-4.2677,71.846
-0.26784,-226.5,-131.78,0.17519,74.32,-439.92,-7.7803,153.09,58.885,-406.9,-160.67,-28.142,70.795,-305.03,-4.5054,71.571
-0.26784,-226.5,-131.78,0.17519,74.32,-439.92,-7.7803,153.09,58.885,-406.9,-160.67,-28.142,70.795,-305.03,-4.5054,71.571
-0.014888,-227.19,-131.91,-0.021007,75.264,-441.4,-7.9916,152.98,59.464,-407.9,-160.75,-28.95,71.602,-306.59,-4.7455,71.294
0.23396,-227.87,-132.03,-0.21512,76.198,-442.86,-8.2058,152.87,60.032,-408.89,-160.82,-29.755,72.402,-308.14,-4.988,71.015
0.23396,-227.87,-132.03,-0.21512,76.198,-442.86,-8.2058,152.87,60.032,-408.89,-160.82,-29.755,72.402,-308.14,-4.988,71.015
0.47866,-228.54,-132.15,-0.40714,77.124,-444.29,-8.4227,152.75,60.589,-409.85,-160.89,-30.557,73.195,-309.67,-5.233,70.733
0.47866,-228.54,-132.15,-0.40714,77.124,-444.29,-8.4227,152.75,60.589,-409.85,-160.89,-30.557,73.195,-309.67,-5.233,70.733
0.71918,-229.19,-132.27,-0.59706,78.041,-445.71,-8.6424,152.63,61.136,-410.79,-160.96,-31.357,73.981,-311.18,-5.4803,70.449
0.71918,-229.19,-132.27,-0.59706,78.041,-445.71,-8.6424,152.63,61.136,-410.79,-160.96,-31.357,73.981,-311.18,-5.4803,70.449
0.71918,-229.19,-132.27,-0.59706,78.041,-445.71,-8.6424,152.63,61.136,-410.79,-160.96,-31.357,73.981,-311.18,-5.4803,70.449
0.95547,-229.83,-132.39,-0.78487,78.949,-447.1,-8.865,152.5,61.671,-411.7,-161.03,-32.154,74.76,-312.68,-5.73,70.162
0.95547,-229.83,-132.39,-0.78487,78.949,-447.1,-8.865,152.5,61.671,-411.7,-161.03,-32.154,74.76,-312.68,-5.73,70.162
1.1875,-230.46,-132.51,-0.97055,79.847,-448.48,-9.0904,152.36,62.196,-412.6,-161.09,-32.949,75.531,-314.16,-5.9822,69.873
1.4152,-231.07,-132.62,-1.1541,80.736,-449.84,-9.3185,152.22,62.709,-413.47,-161.15,-33.74,76.295,-315.63,-6.2367,69.581
1.4152,-231.07,-132.62,-1.1541,80.736,-449.84,-9.3185,152.22,62.709,-413.47,-161.15,-33.74,76.295,-315.63,-6.2367,69.581
1.6385,-231.66,-132.73,-1.3355,81.616,-451.17,-9.5494,152.08,63.211,-414.32,-161.21,-34.529,77.052,-317.09,-6.4936,69.287
1.6385,-231.66,-132.73,-1.3355,81.616,-451.17,-9.5494,152.08,63.211,-414.32,-161.21,-34.529,77.052,-317.09,-6.4936,69.287
1.6385,-231.66,-132.73,-1.3355,81.616,-451.17,-9.5494,152.08,63.211,-414.32,-161.21,-34.529,77.052,-317.09,-6.4936,69.287
1.8575,-232.25,-132.84,-1.5148,82.487,-452.48,-9.7832,151.93,63.702,-415.15,-161.27,-35.315,77.801,-318.53,-6.7528,68.991
1.8575,-232.25,-132.84,-1.5148,82.487,-452.48,-9.7832,151.93,63.702,-415.15,-161.27,-35.315,77.801,-318.53,-6.7528,68.991
2.072,-232.81,-132.94,-1.6919,83.347,-453.78,-10.02,151.77,64.182,-415.95,-161.32,-36.098,78.543,-319.95,-7.0145,68.692
2.072,-232.81,-132.94,-1.6919,83.347,-453.78,-10.02,151.77,64.182,-415.95,-161.32,-36.098,78.543,-319.95,-7.0145,68.692
2.2821,-233.37,-133.05,-1.8669,84.198,-455.05,-10.259,151.61,64.651,-416.73,-161.37,-36.878,79.277,-321.35,-7.2785,68.39
2.4877,-233.91,-133.15,-2.0396,85.04,-456.3,-10.501,151.44,65.108,-417.49,-161.42,-37.655,80.003,-322.74,-7.5448,68.086
2.4877,-233.91,-133.15,-2.0396,85.04,-456.3,-10.501,151.44,65.108,-417.49,-161.42,-37.655,80.003,-322.74,-7.5448,68.086
2.4877,-233.91,-133.15,-2.0396,85.04,-456.3,-10.501,151.44,65.108,-417.49,-161.42,-37.655,80.003,-322.74,-7.5448,68.086
2.6887,-234.43,-133.25,-2.2102,85.871,-457.53,-10.746,151.26,65.554,-418.22,-161.47,-38.429,80.721,-324.12,-7.8136,67.78
2.6887,-234.43,-133.25,-2.2102,85.871,-457.53,-10.746,151.26,65.554,-418.22,-161.47,-38.429,80.721,-324.12,-7.8136,67.78
2.8851,-234.95,-133.35,-2.3786,86.693,-458.73,-10.993,151.09,65.989,-418.94,-161.51,-39.2,81.431,-325.48,-8.0846,67.471
2.8851,-234.95,-133.35,-2.3786,86.693,-458.73,-10.993,151.09,65.989,-418.94,-161.51,-39.2,81.431,-325.48,-8.0846,67.471
3.077,-235.44,-133.44,-2.5449,87.504,-459.92,-11.244,150.9,66.412,-419.63,-161.55,-39.967,82.134,-326.82,-8.3581,67.16
3.2641,-235.92,-133.53,-2.7089,88.305,-461.08,-11.497,150.71,66.823,-420.29,-161.59,-40.732,82.828,-328.14,-8.6338,66.846
3.2641,-235.92,-133.53,-2.7089,88.305,-461.08,-11.497,150.71,66.823,-420.29,-161.59,-40.732,82.828,-328.14,-8.6338,66.846
3.2641,-235.92,-133.53,-2.7089,88.305,-461.08,-11.497,150.71,66.823,-420.29,-161.59,-40.732,82.828,-328.14,-8.6338,66.846
3.4466,-236.39,-133.62,-2.8707,89.096,-462.23,-11.753,150.51,67.223,-420.94,-161.62,-41.493,83.515,-329.45,-8.9119,66.53
3.4466,-236.39,-133.62,-2.8707,89.096,-462.23,-11.753,150.51,67.223,-420.94,-161.62,-41.493,83.515,-329.45,-8.9119,66.53
3.4466,-236.39,-133.62,-2.8707,89.096,-462.23,-11.753,150.51,67.223,-420.94,-161.62,-41.493,83.515,-329.45,-8.9119,66.53
3.7973,-237.28,-133.8,-3.1877,90.646,-464.44,-12.272,150.1,67.988,-422.16,-161.69,-43.005,84.863,-332.02,-9.475,65.89
3.7973,-237.28,-133.8,-3.1877,90.646,-464.44,-12.272,150.1,67.988,-422.16,-161.69,-43.005,84.863,-332.02,-9.475,65.89
3.7973,-237.28,-133.8,-3.1877,90.646,-464.44,-12.272,150.1,67.988,-422.16,-161.69,-43.005,84.863,-332.02,-9.475,65.89
3.9655,-237.71,-133.88,-3.3429,91.406,-465.52,-12.536,149.89,68.353,-422.73,-161.72,-43.756,85.524,-333.28,-9.76,65.567
3.9655,-237.71,-133.88,-3.3429,91.406,-465.52,-12.536,149.89,68.353,-422.73,-161.72,-43.756,85.524,-333.28,-9.76,65.567
4.1289,-238.12,-133.96,-3.4958,92.154,-466.57,-12.803,149.67,68.707,-423.28,-161.74,-44.503,86.177,-334.52,-10.047,65.241
4.1289,-238.12,-133.96,-3.4958,92.154,-466.57,-12.803,149.67,68.707,-423.28,-161.74,-44.503,86.177,-334.52,-10.047,65.241
4.2874,-238.51,-134.04,-3.6466,92.892,-467.6,-13.072,149.44,69.048,-423.81,-161.76,-45.247,86.822,-335.74,-10.337,64.912
4.2874,-238.51,-134.04,-3.6466,92.892,-467.6,-13.072,149.44,69.048,-423.81,-161.76,-45.247,86.822,-335.74,-10.337,64.912
4.441,-238.89,-134.12,-3.7951,93.62,-468.61,-13.344,149.21,69.378,-424.31,-161.78,-45.988,87.458,-336.95,-10.629,64.581
4.441,-238.89,-134.12,-3.7951,93.62,-468.61,-13.344,149.21,69.378,-424.31,-161.78,-45.988,87.458,-336.95,-10.629,64.581
4.5897,-239.25,-134.19,-3.9413,94.336,-469.6,-13.619,148.97,69.695,-424.79,-161.8,-46.725,88.086,-338.14,-10.923,64.248
4.5897,-239.25,-134.19,-3.9413,94.336,-469.6,-13.619,148.97,69.695,-424.79,-161.8,-46.725,88.086,-338.14,-10.923,64.248
4.7335,-239.6,-134.26,-4.0854,95.041,-470.56,-13.896,148.73,70.001,-425.25,-161.82,-47.458,88.705,-339.31,-11.219,63.912
4.7335,-239.6,-134.26,-4.0854,95.041,-470.56,-13.896,148.73,70.001,-425.25,-161.82,-47.458,88.705,-339.31,-11.219,63.912
4.8722,-239.93,-134.33,-4.2271,95.735,-471.5,-14.176,148.48,70.295,-425.69,-161.83,-48.188,89.315,-340.47,-11.518,63.573
5.006,-240.25,-134.4,-4.3667,96.418,-472.41,-14.459,148.23,70.577,-426.1,-161.84,-48.914,89.917,-341.6,-11.819,63.232
5.006,-240.25,-134.4,-4.3667,96.418,-472.41,-14.459,148.23,70.577,-426.1,-161.84,-48.914,89.917,-341.6,-11.819,63.232
5.1347,-240.56,-134.46,-4.504,97.09,-473.3,-14.744,147.97,70.847,-426.48,-161.85,-49.636,90.509,-342.72,-12.122,62.889
5.1347,-240.56,-134.46,-4.504,97.09,-473.3,-14.744,147.97,70.847,-426.48,-161.85,-49.636,90.509,-342.72,-12.122,62.889
5.1347,-240.56,-134.46,-4.504,97.09,-473.3,-14.744,147.97,70.847,-426.48,-161.85,-49.636,90.509,-342.72,-12.122,62.889
5.2583,-240.84,-134.52,-4.6391,97.751,-474.17,-15.032,147.7,71.105,-426.85,-161.85,-50.354,91.093,-343.83,-12.427,62.543
5.2583,-240.84,-134.52,-4.6391,97.751,-474.17,-15.032,147.7,71.105,-426.85,-161.85,-50.354,91.093,-343.83,-12.427,62.543
5.2583,-240.84,-134.52,-4.6391,97.751,-474.17,-15.032,147.7,71.105,-426.85,-161.85,-50.354,91.093,-343.83,-12.427,62.543
5.3769,-241.12,-134.58,-4.7719,98.4,-475.02,-15.323,147.43,71.351,-427.19,-161.85,-51.069,91.667,-344.91,-12.735,62.195
5.4903,-241.38,-134.64,-4.9024,99.037,-475.84,-15.616,147.15,71.584,-427.51,-161.86,-51.779,92.233,-345.97,-13.045,61.845
5.5985,-241.62,-134.7,-5.0308,99.663,-476.64,-15.912,146.87,71.806,-427.8,-161.85,-52.486,92.79,-347.02,-13.357,61.492
5.5985,-241.62,-134.7,-5.0308,99.663,-476.64,-15.912,146.87,71.806,-427.8,-161.85,-52.486,92.79,-347.02,-13.357,61.492
5.7016,-241.85,-134.75,-5.1568,100.28,-477.41,-16.21,146.58,72.015,-428.07,-161.85,-53.189,93.337,-348.05,-13.671,61.136
5.7016,-241.85,-134.75,-5.1568,100.28,-477.41,-16.21,146.58,72.015,-428.07,-161.85,-53.189,93.337,-348.05,-13.671,61.136
5.7016,-241.85,-134.75,-5.1568,100.28,-477.41,-16.21,146.58,72.015,-428.07,-161.85,-53.189,93.337,-348.05,-13.671,61.136
5.7995,-242.06,-134.8,-5.2807,100.88,-478.17,-16.511,146.28,72.212,-428.32,-161.84,-53.887,93.875,-349.06,-13.987,60.778
5.7995,-242.06,-134.8,-5.2807,100.88,-478.17,-16.511,146.28,72.212,-428.32,-161.84,-53.887,93.875,-349.06,-13.987,60.778
5.8921,-242.25,-134.85,-5.4023,101.47,-478.89,-16.815,145.98,72.397,-428.54,-161.83,-54.582,94.404,-350.06,-14.305,60.418
5.9795,-242.43,-134.9,-5.5216,102.05,-479.59,-17.121,145.67,72.57,-428.74,-161.82,-55.273,94.924,-351.03,-14.626,60.055
5.9795,-242.43,-134.9,-5.5216,102.05,-479.59,-17.121,145.67,72.57,-428.74,-161.82,-55.273,94.924,-351.03,-14.626,60.055
6.0616,-242.6,-134.94,-5.6387,102.62,-480.27,-17.429,145.36,72.73,-428.91,-161.81,-55.959,95.434,-351.99,-14.949,59.69
6.0616,-242.6,-134.94,-5.6387,102.62,-480.27,-17.429,145.36,72.73,-428.91,-161.81,-55.959,95.434,-351.99,-14.949,59.69
6.1384,-242.75,-134.98,-5.7536,103.17,-480.93,-17.74,145.04,72.878,-429.07,-161.79,-56.642,95.934,-352.92,-15.274,59.322
6.1384,-242.75,-134.98,-5.7536,103.17,-480.93,-17.74,145.04,72.878,-429.07,-161.79,-56.642,95.934,-352.92,-15.274,59.322
6.1384,-242.75,-134.98,-5.7536,103.17,-480.93,-17.74,145.04,72.878,-429.07,-161.79,-56.642,95.934,-352.92,-15.274,59.322
6.2099,-242.89,-135.02,-5.8663,103.72,-481.56,-18.054,144.72,73.014,-429.2,-161.77,-57.32,96.426,-353.84,-15.601,58.952
6.2099,-242.89,-135.02,-5.8663,103.72,-481.56,-18.054,144.72,73.014,-429.2,-161.77,-57.32,96.426,-353.84,-15.601,58.952
6.2099,-242.89,-135.02,-5.8663,103.72,-481.56,-18.054,144.72,73.014,-429.2,-161.77,-57.32,96.426,-353.84,-15.601,58.952
6.276,-243,-135.06,-5.9767,104.25,-482.16,-18.37,144.39,73.137,-429.3,-161.75,-57.994,96.907,-354.74,-15.93,58.58
6.3368,-243.11,-135.09,-6.0849,104.76,-482.74,-18.689,144.05,73.249,-429.38,-161.73,-58.663,97.379,-355.62,-16.261,58.205
6.3368,-243.11,-135.09,-6.0849,104.76,-482.74,-18.689,144.05,73.249,-429.38,-161.73,-58.663,97.379,-355.62,-16.261,58.205
6.3368,-243.11,-135.09,-6.0849,104.76,-482.74,-18.689,144.05,73.249,-429.38,-161.73,-58.663,97.379,-355.62,-16.261,58.205
6.3922,-243.2,-135.12,-6.1908,105.27,-483.3,-19.01,143.71,73.347,-429.44,-161.7,-59.329,97.842,-356.49,-16.594,57.828
6.3922,-243.2,-135.12,-6.1908,105.27,-483.3,-19.01,143.71,73.347,-429.44,-161.7,-59.329,97.842,-356.49,-16.594,57.828
6.3922,-243.2,-135.12,-6.1908,105.27,-483.3,-19.01,143.71,73.347,-429.44,-161.7,-59.329,97.842,-356.49,-16.594,57.828
6.4868,-243.32,-135.18,-6.3961,106.25,-484.34,-19.66,143.01,73.508,-429.49,-161.64,-60.647,98.738,-358.16,-17.266,57.066
6.4868,-243.32,-135.18,-6.3961,106.25,-484.34,-19.66,143.01,73.508,-429.49,-161.64,-60.647,98.738,-358.16,-17.266,57.066
6.526,-243.36,-135.21,-6.4955,106.72,-484.82,-19.988,142.65,73.569,-429.48,-161.61,-61.299,99.171,-358.96,-17.606,56.682
6.526,-243.36,-135.21,-6.4955,106.72,-484.82,-19.988,142.65,73.569,-429.48,-161.61,-61.299,99.171,-358.96,-17.606,56.682
6.5597,-243.39,-135.23,-6.5926,107.17,-485.28,-20.319,142.28,73.618,-429.44,-161.58,-61.947,99.594,-359.75,-17.947,56.295
6.5597,-243.39,-135.23,-6.5926,107.17,-485.28,-20.319,142.28,73.618,-429.44,-161.58,-61.947,99.594,-359.75,-17.947,56.295
6.588,-243.4,-135.25,-6.6876,107.62,-485.71,-20.653,141.91,73.655,-429.38,-161.54,-62.59,100.01,-360.51,-18.29,55.906
6.588,-243.4,-135.25,-6.6876,107.62,-485.71,-20.653,141.91,73.655,-429.38,-161.54,-62.59,100.01,-360.51,-18.29,55.906
6.6107,-243.39,-135.27,-6.7803,108.05,-486.12,-20.988,141.54,73.68,-429.3,-161.5,-63.229,100.41,-361.26,-18.636,55.515
6.6107,-243.39,-135.27,-6.7803,108.05,-486.12,-20.988,141.54,73.68,-429.3,-161.5,-63.229,100.41,-361.26,-18.636,55.515
6.628,-243.37,-135.29,-6.8709,108.47,-486.5,-21.326,141.15,73.691,-429.19,-161.46,-63.864,100.8,-361.99,-18.983,55.121
6.628,-243.37,-135.29,-6.8709,108.47,-486.5,-21.326,141.15,73.691,-429.19,-161.46,-63.864,100.8,-361.99,-18.983,55.121
6.6397,-243.33,-135.3,-6.9593,108.88,-486.86,-21.667,140.77,73.691,-429.06,-161.42,-64.494,101.19,-362.7,-19.332,54.725
6.6397,-243.33,-135.3,-6.9593,108.88,-486.86,-21.667,140.77,73.691,-429.06,-161.42,-64.494,101.19,-362.7,-19.332,54.725
6.646,-243.28,-135.31,-7.0456,109.27,-487.19,-22.01,140.37,73.678,-428.91,-161.37,-65.119,101.56,-363.39,-19.683,54.327
6.6467,-243.21,-135.32,-7.1297,109.65,-487.5,-22.355,139.97,73.652,-428.73,-161.32,-65.74,101.92,-364.06,-20.036,53.926
6.6467,-243.21,-135.32,-7.1297,109.65,-487.5,-22.355,139.97,73.652,-428.73,-161.32,-65.74,101.92,-364.06,-20.036,53.926
6.6418,-243.13,-135.33,-7.2117,110.02,-487.78,-22.703,139.57,73.615,-428.53,-161.27,-66.356,102.28,-364.71,-20.391,53.523
6.6418,-243.13,-135.33,-7.2117,110.02,-487.78,-22.703,139.57,73.615,-428.53,-161.27,-66.356,102.28,-364.71,-20.391,53.523
6.6418,-243.13,-135.33,-7.2117,110.02,-487.78,-22.703,139.57,73.615,-428.53,-161.27,-66.356,102.28,-364.71,-20.391,53.523
6.6315,-243.03,-135.33,-7.2915,110.37,-488.04,-23.053,139.15,73.564,-428.31,-161.22,-66.968,102.62,-365.34,-20.748,53.118
6.6315,-243.03,-135.33,-7.2915,110.37,-488.04,-23.053,139.15,73.564,-428.31,-161.22,-66.968,102.62,-365.34,-20.748,53.118
6.6315,-243.03,-135.33,-7.2915,110.37,-488.04,-23.053,139.15,73.564,-428.31,-161.22,-66.968,102.62,-365.34,-20.748,53.118
6.6155,-242.91,-135.33,-7.3692,110.72,-488.27,-23.405,138.74,73.502,-428.07,-161.16,-67.575,102.95,-365.95,-21.107,52.711
6.6155,-242.91,-135.33,-7.3692,110.72,-488.27,-23.405,138.74,73.502,-428.07,-161.16,-67.575,102.95,-365.95,-21.107,52.711
6.594,-242.78,-135.33,-7.4448,111.04,-488.47,-23.759,138.32,73.426,-427.8,-161.11,-68.177,103.28,-366.54,-21.467,52.301
6.5669,-242.63,-135.33,-7.5184,111.36,-488.65,-24.116,137.89,73.339,-427.5,-161.05,-68.775,103.59,-367.11,-21.83,51.889
6.5669,-242.63,-135.33,-7.5184,111.36,-488.65,-24.116,137.89,73.339,-427.5,-161.05,-68.775,103.59,-367.11,-21.83,51.889
6.5342,-242.47,-135.33,-7.5898,111.66,-488.81,-24.475,137.45,73.239,-427.19,-160.99,-69.367,103.89,-367.66,-22.194,51.475
6.4959,-242.29,-135.32,-7.6591,111.96,-488.94,-24.837,137.01,73.126,-426.85,-160.92,-69.955,104.18,-368.2,-22.56,51.058
6.4959,-242.29,-135.32,-7.6591,111.96,-488.94,-24.837,137.01,73.126,-426.85,-160.92,-69.955,104.18,-368.2,-22.56,51.058
6.4959,-242.29,-135.32,-7.6591,111.96,-488.94,-24.837,137.01,73.126,-426.85,-160.92,-69.955,104.18,-368.2,-22.56,51.058
6.452,-242.09,-135.31,-7.7264,112.23,-489.04,-25.2,136.57,73.001,-426.49,-160.86,-70.539,104.46,-368.71,-22.928,50.64
6.452,-242.09,-135.31,-7.7264,112.23,-489.04,-25.2,136.57,73.001,-426.49,-160.86,-70.539,104.46,-368.71,-22.928,50.64
6.4026,-241.88,-135.3,-7.7917,112.5,-489.12,-25.566,136.12,72.864,-426.1,-160.79,-71.117,104.73,-369.2,-23.297,50.219
6.4026,-241.88,-135.3,-7.7917,112.5,-489.12,-25.566,136.12,72.864,-426.1,-160.79,-71.117,104.73,-369.2,-23.297,50.219
6.4026,-241.88,-135.3,-7.7917,112.5,-489.12,-25.566,136.12,72.864,-426.1,-160.79,-71.117,104.73,-369.2,-23.297,50.219
6.3475,-241.66,-135.28,-7.8549,112.75,-489.17,-25.934,135.66,72.714,-425.7,-160.72,-71.691,104.99,-369.67,-23.669,49.796
6.3475,-241.66,-135.28,-7.8549,112.75,-489.17,-25.934,135.66,72.714,-425.7,-160.72,-71.691,104.99,-369.67,-23.669,49.796
6.3475,-241.66,-135.28,-7.8549,112.75,-489.17,-25.934,135.66,72.714,-425.7,-160.72,-71.691,104.99,-369.67,-23.669,49.796
6.2205,-241.16,-135.25,-7.9753,113.21,-489.2,-26.676,134.73,72.378,-424.81,-160.58,-72.824,105.48,-370.56,-24.417,48.943
6.2205,-241.16,-135.25,-7.9753,113.21,-489.2,-26.676,134.73,72.378,-424.81,-160.58,-72.824,105.48,-370.56,-24.417,48.943
6.1486,-240.88,-135.23,-8.0325,113.42,-489.17,-27.051,134.26,72.191,-424.34,-160.5,-73.383,105.71,-370.97,-24.793,48.514
6.1486,-240.88,-135.23,-8.0325,113.42,-489.17,-27.051,134.26,72.191,-424.34,-160.5,-73.383,105.71,-370.97,-24.793,48.514
6.0711,-240.6,-135.21,-8.0877,113.62,-489.12,-27.428,133.78,71.992,-423.84,-160.42,-73.937,105.93,-371.36,-25.171,48.082
6.0711,-240.6,-135.21,-8.0877,113.62,-489.12,-27.428,133.78,71.992,-423.84,-160.42,-73.937,105.93,-371.36,-25.171,48.082
5.988,-240.29,-135.18,-8.141,113.8,-489.05,-27.806,133.3,71.781,-423.32,-160.34,-74.486,106.14,-371.73,-25.551,47.648
5.988,-240.29,-135.18,-8.141,113.8,-489.05,-27.806,133.3,71.781,-423.32,-160.34,-74.486,106.14,-371.73,-25.551,47.648
5.8993,-239.97,-135.15,-8.1924,113.98,-488.95,-28.187,132.81,71.557,-422.78,-160.26,-75.031,106.33,-372.08,-25.932,47.212
5.8993,-239.97,-135.15,-8.1924,113.98,-488.95,-28.187,132.81,71.557,-422.78,-160.26,-75.031,106.33,-372.08,-25.932,47.212
5.805,-239.63,-135.13,-8.2418,114.13,-488.82,-28.57,132.31,71.322,-422.21,-160.18,-75.57,106.52,-372.42,-26.315,46.774
5.805,-239.63,-135.13,-8.2418,114.13,-488.82,-28.57,132.31,71.322,-422.21,-160.18,-75.57,106.52,-372.42,-26.315,46.774
5.7052,-239.28,-135.09,-8.2893,114.28,-488.67,-28.955,131.81,71.074,-421.62,-160.09,-76.105,106.7,-372.73,-26.7,46.334
5.7052,-239.28,-135.09,-8.2893,114.28,-488.67,-28.955,131.81,71.074,-421.62,-160.09,-76.105,106.7,-372.73,-26.7,46.334
5.5997,-238.92,-135.06,-8.335,114.41,-488.49,-29.342,131.31,70.813,-421.01,-160,-76.634,106.86,-373.02,-27.086,45.892
5.5997,-238.92,-135.06,-8.335,114.41,-488.49,-29.342,131.31,70.813,-421.01,-160,-76.634,106.86,-373.02,-27.086,45.892
5.4886,-238.53,-135.02,-8.3787,114.53,-488.28,-29.731,130.8,70.541,-420.38,-159.91,-77.159,107.01,-373.29,-27.474,45.448
5.4886,-238.53,-135.02,-8.3787,114.53,-488.28,-29.731,130.8,70.541,-420.38,-159.91,-77.159,107.01,-373.29,-27.474,45.448
5.372,-238.14,-134.98,-8.4207,114.63,-488.05,-30.123,130.28,70.256,-419.72,-159.82,-77.679,107.16,-373.54,-27.863,45.001
5.372,-238.14,-134.98,-8.4207,114.63,-488.05,-30.123,130.28,70.256,-419.72,-159.82,-77.679,107.16,-373.54,-27.863,45.001
5.2497,-237.72,-134.94,-8.4608,114.73,-487.8,-30.516,129.76,69.96,-419.04,-159.72,-78.194,107.29,-373.77,-28.254,44.553
5.2497,-237.72,-134.94,-8.4608,114.73,-487.8,-30.516,129.76,69.96,-419.04,-159.72,-78.194,107.29,-373.77,-28.254,44.553
5.122,-237.3,-134.9,-8.4991,114.81,-487.52,-30.911,129.23,69.651,-418.35,-159.63,-78.703,107.41,-373.98,-28.646,44.103
5.122,-237.3,-134.9,-8.4991,114.81,-487.52,-30.911,129.23,69.651,-418.35,-159.63,-78.703,107.41,-373.98,-28.646,44.103
4.9887,-236.85,-134.85,-8.5356,114.87,-487.21,-31.308,128.7,69.33,-417.62,-159.53,-79.208,107.53,-374.17,-29.04,43.65
4.9887,-236.85,-134.85,-8.5356,114.87,-487.21,-31.308,128.7,69.33,-417.62,-159.53,-79.208,107.53,-374.17,-29.04,43.65
4.8498,-236.39,-134.81,-8.5704,114.92,-486.87,-31.707,128.16,68.997,-416.88,-159.43,-79.708,107.63,-374.34,-29.436,43.196
4.8498,-236.39,-134.81,-8.5704,114.92,-486.87,-31.707,128.16,68.997,-416.88,-159.43,-79.708,107.63,-374.34,-29.436,43.196
4.7054,-235.92,-134.76,-8.6035,114.96,-486.52,-32.108,127.62,68.652,-416.12,-159.33,-80.203,107.72,-374.49,-29.832,42.74
4.5555,-235.43,-134.71,-8.6348,114.99,-486.13,-32.511,127.07,68.296,-415.33,-159.22,-80.692,107.8,-374.62,-30.23,42.282
4.5555,-235.43,-134.71,-8.6348,114.99,-486.13,-32.511,127.07,68.296,-415.33,-159.22,-80.692,107.8,-374.62,-30.23,42.282
4.5555,-235.43,-134.71,-8.6348,114.99,-486.13,-32.511,127.07,68.296,-415.33,-159.22,-80.692,107.8,-374.62,-30.23,42.282
4.4001,-234.92,-134.65,-8.6644,115,-485.72,-32.916,126.52,67.927,-414.52,-159.12,-81.177,107.86,-374.73,-30.63,41.821
4.4001,-234.92,-134.65,-8.6644,115,-485.72,-32.916,126.52,67.927,-414.52,-159.12,-81.177,107.86,-374.73,-30.63,41.821
4.4001,-234.92,-134.65,-8.6644,115,-485.72,-32.916,126.52,67.927,-414.52,-159.12,-81.177,107.86,-374.73,-30.63,41.821
4.2392,-234.4,-134.59,-8.6924,115,-485.29,-33.323,125.96,67.547,-413.69,-159.01,-81.657,107.92,-374.82,-31.031,41.359
4.0729,-233.87,-134.54,-8.7187,114.98,-484.82,-33.731,125.4,67.154,-412.84,-158.9,-82.132,107.97,-374.88,-31.433,40.895
3.901,-233.32,-134.47,-8.7434,114.95,-484.34,-34.142,124.83,66.75,-411.97,-158.79,-82.601,108.01,-374.93,-31.836,40.43
3.901,-233.32,-134.47,-8.7434,114.95,-484.34,-34.142,124.83,66.75,-411.97,-158.79,-82.601,108.01,-374.93,-31.836,40.43
3.7238,-232.75,-134.41,-8.7665,114.91,-483.83,-34.554,124.26,66.335,-411.07,-158.67,-83.066,108.03,-374.96,-32.241,39.962
3.7238,-232.75,-134.41,-8.7665,114.91,-483.83,-34.554,124.26,66.335,-411.07,-158.67,-83.066,108.03,-374.96,-32.241,39.962
3.7238,-232.75,-134.41,-8.7665,114.91,-483.83,-34.554,124.26,66.335,-411.07,-158.67,-83.066,108.03,-374.96,-32.241,39.962
3.5411,-232.17,-134.35,-8.7881,114.86,-483.29,-34.968,123.68,65.907,-410.16,-158.56,-83.526,108.05,-374.97,-32.647,39.492
3.5411,-232.17,-134.35,-8.7881,114.86,-483.29,-34.968,123.68,65.907,-410.16,-158.56,-83.526,108.05,-374.97,-32.647,39.492
3.5411,-232.17,-134.35,-8.7881,114.86,-483.29,-34.968,123.68,65.907,-410.16,-158.56,-83.526,108.05,-374.97,-32.647,39.492
3.3531,-231.58,-134.28,-8.8081,114.79,-482.72,-35.384,123.09,65.468,-409.22,-158.44,-83.981,108.05,-374.96,-33.054,39.021
3.1596,-230.97,-134.21,-8.8265,114.71,-482.14,-35.802,122.51,65.017,-408.27,-158.32,-84.43,108.04,-374.92,-33.463,38.548
2.9608,-230.34,-134.14,-8.8435,114.61,-481.52,-36.221,121.91,64.555,-407.29,-158.2,-84.875,108.03,-374.87,-33.873,38.073
2.9608,-230.34,-134.14,-8.8435,114.61,-481.52,-36.221,121.91,64.555,-407.29,-158.2,-84.875,108.03,-374.87,-33.873,38.073
2.9608,-230.34,-134.14,-8.8435,114.61,-481.52,-36.221,121.91,64.555,-407.29,-158.2,-84.875,108.03,-374.87,-33.873,38.073
2.7567,-229.7,-134.06,-8.8591,114.5,-480.88,-36.643,121.32,64.082,-406.29,-158.08,-85.315,108,-374.8,-34.284,37.596
2.7567,-229.7,-134.06,-8.8591,114.5,-480.88,-36.643,121.32,64.082,-406.29,-158.08,-85.315,108,-374.8,-34.284,37.596
2.5472,-229.05,-133.99,-8.8732,114.38,-480.22,-37.066,120.71,63.597,-405.28,-157.95,-85.749,107.96,-374.7,-34.696,37.117
2.5472,-229.05,-133.99,-8.8732,114.38,-480.22,-37.066,120.71,63.597,-405.28,-157.95,-85.749,107.96,-374.7,-34.696,37.117
2.3325,-228.38,-133.91,-8.8859,114.25,-479.53,-37.49,120.11,63.1,-404.24,-157.82,-86.179,107.91,-374.59,-35.109,36.637
2.1125,-227.69,-133.83,-8.8972,114.1,-478.82,-37.916,119.49,62.593,-403.18,-157.7,-86.604,107.85,-374.46,-35.523,36.155
2.1125,-227.69,-133.83,-8.8972,114.1,-478.82,-37.916,119.49,62.593,-403.18,-157.7,-86.604,107.85,-374.46,-35.523,36.155
1.8873,-227,-133.74,-8.9072,113.94,-478.08,-38.344,118.88,62.074,-402.1,-157.56,-87.024,107.78,-374.31,-35.939,35.671
1.8873,-227,-133.74,-8.9072,113.94,-478.08,-38.344,118.88,62.074,-402.1,-157.56,-87.024,107.78,-374.31,-35.939,35.671
1.6568,-226.28,-133.66,-8.9159,113.77,-477.31,-38.774,118.26,61.544,-401,-157.43,-87.439,107.7,-374.13,-36.355,35.185
1.6568,-226.28,-133.66,-8.9159,113.77,-477.31,-38.774,118.26,61.544,-401,-157.43,-87.439,107.7,-374.13,-36.355,35.185
1.6568,-226.28,-133.66,-8.9159,113.77,-477.31,-38.774,118.26,61.544,-401,-157.43,-87.439,107.7,-374.13,-36.355,35.185
1.4212,-225.56,-133.57,-8.9233,113.58,-476.52,-39.205,117.63,61.002,-399.88,-157.3,-87.848,107.6,-373.94,-36.772,34.698
1.4212,-225.56,-133.57,-8.9233,113.58,-476.52,-39.205,117.63,61.002,-399.88,-157.3,-87.848,107.6,-373.94,-36.772,34.698
1.4212,-225.56,-133.57,-8.9233,113.58,-476.52,-39.205,117.63,61.002,-399.88,-157.3,-87.848,107.6,-373.94,-36.772,34.698
1.4212,-225.56,-133.57,-8.9233,113.58,-476.52,-39.205,117.63,61.002,-399.88,-157.3,-87.848,107.6,-373.94,-36.772,34.698
0.93456,-224.06,-133.39,-8.9343,113.17,-474.87,-40.073,116.36,59.887,-397.58,-157.02,-88.654,107.39,-373.49,-37.61,33.719
0.93456,-224.06,-133.39,-8.9343,113.17,-474.87,-40.073,116.36,59.887,-397.58,-157.02,-88.654,107.39,-373.49,-37.61,33.719
0.93456,-224.06,-133.39,-8.9343,113.17,-474.87,-40.073,116.36,59.887,-397.58,-157.02,-88.654,107.39,-373.49,-37.61,33.719
0.68359,-223.29,-133.3,-8.938,112.94,-474.01,-40.509,115.72,59.313,-396.41,-156.88,-89.049,107.26,-373.24,-38.031,33.227
0.68359,-223.29,-133.3,-8.938,112.94,-474.01,-40.509,115.72,59.313,-396.41,-156.88,-89.049,107.26,-373.24,-38.031,33.227
0.68359,-223.29,-133.3,-8.938,112.94,-474.01,-40.509,115.72,59.313,-396.41,-156.88,-89.049,107.26,-373.24,-38.031,33.227
0.16651,-221.71,-133.1,-8.942,112.46,-472.2,-41.386,114.43,58.132,-393.99,-156.6,-89.824,106.98,-372.68,-38.874,32.237
0.16651,-221.71,-133.1,-8.942,112.46,-472.2,-41.386,114.43,58.132,-393.99,-156.6,-89.824,106.98,-372.68,-38.874,32.237
-0.099525,-220.9,-133,-8.9424,112.19,-471.27,-41.826,113.78,57.525,-392.76,-156.45,-90.205,106.83,-372.36,-39.298,31.741
-0.099525,-220.9,-133,-8.9424,112.19,-471.27,-41.826,113.78,57.525,-392.76,-156.45,-90.205,106.83,-372.36,-39.298,31.741
-0.099525,-220.9,-133,-8.9424,112.19,-471.27,-41.826,113.78,57.525,-392.76,-156.45,-90.205,106.83,-372.36,-39.298,31.741
-0.37052,-220.07,-132.9,-8.9416,111.92,-470.3,-42.268,113.12,56.908,-391.5,-156.3,-90.581,106.66,-372.03,-39.722,31.242
-0.37052,-220.07,-132.9,-8.9416,111.92,-470.3,-42.268,113.12,56.908,-391.5,-156.3,-90.581,106.66,-372.03,-39.722,31.242
-0.92721,-218.38,-132.69,-8.9372,111.32,-468.31,-43.157,111.8,55.642,-388.94,-156,-91.318,106.3,-371.31,-40.572,30.24
-0.92721,-218.38,-132.69,-8.9372,111.32,-468.31,-43.157,111.8,55.642,-388.94,-156,-91.318,106.3,-371.31,-40.572,30.24
-0.92721,-218.38,-132.69,-8.9372,111.32,-468.31,-43.157,111.8,55.642,-388.94,-156,-91.318,106.3,-371.31,-40.572,30.24
-1.2128,-217.51,-132.58,-8.9335,111.01,-467.27,-43.604,111.13,54.993,-387.63,-155.85,-91.679,106.1,-370.92,-40.998,29.737
-1.2128,-217.51,-132.58,-8.9335,111.01,-467.27,-43.604,111.13,54.993,-387.63,-155.85,-91.679,106.1,-370.92,-40.998,29.737
-1.5033,-216.63,-132.47,-8.9289,110.68,-466.22,-44.052,110.45,54.334,-386.3,-155.7,-92.035,105.89,-370.51,-41.425,29.233
-1.5033,-216.63,-132.47,-8.9289,110.68,-466.22,-44.052,110.45,54.334,-386.3,-155.7,-92.035,105.89,-370.51,-41.425,29.233
-1.7985,-215.74,-132.36,-8.9234,110.34,-465.13,-44.501,109.77,53.665,-384.95,-155.54,-92.387,105.67,-370.08,-41.853,28.727
-2.0984,-214.83,-132.24,-8.917,109.99,-464.03,-44.952,109.09,52.986,-383.59,-155.38,-92.734,105.44,-369.63,-42.282,28.219
-2.0984,-214.83,-132.24,-8.917,109.99,-464.03,-44.952,109.09,52.986,-383.59,-155.38,-92.734,105.44,-369.63,-42.282,28.219
-2.403,-213.91,-132.12,-8.9098,109.63,-462.9,-45.404,108.4,52.296,-382.2,-155.22,-93.077,105.2,-369.17,-42.711,27.71
-2.403,-213.91,-132.12,-8.9098,109.63,-462.9,-45.404,108.4,52.296,-382.2,-155.22,-93.077,105.2,-369.17,-42.711,27.71
-2.403,-213.91,-132.12,-8.9098,109.63,-462.9,-45.404,108.4,52.296,-382.2,-155.22,-93.077,105.2,-369.17,-42.711,27.71
-2.7122,-212.98,-132,-8.9019,109.25,-461.75,-45.857,107.71,51.596,-380.8,-155.06,-93.414,104.95,-368.68,-43.141,27.2
-2.7122,-212.98,-132,-8.9019,109.25,-461.75,-45.857,107.71,51.596,-380.8,-155.06,-93.414,104.95,-368.68,-43.141,27.2
-2.7122,-212.98,-132,-8.9019,109.25,-461.75,-45.857,107.71,51.596,-380.8,-155.06,-93.414,104.95,-368.68,-43.141,27.2
-3.026,-212.04,-131.88,-8.8932,108.86,-460.57,-46.312,107.02,50.887,-379.38,-154.9,-93.747,104.7,-368.18,-43.571,26.688
-3.026,-212.04,-131.88,-8.8932,108.86,-460.57,-46.312,107.02,50.887,-379.38,-154.9,-93.747,104.7,-368.18,-43.571,26.688
-3.6672,-210.1,-131.63,-8.8737,108.05,-458.15,-47.225,105.62,49.439,-376.49,-154.56,-94.4,104.15,-367.11,-44.434,25.661
-3.6672,-210.1,-131.63,-8.8737,108.05,-458.15,-47.225,105.62,49.439,-376.49,-154.56,-94.4,104.15,-367.11,-44.434,25.661
-3.6672,-210.1,-131.63,-8.8737,108.05,-458.15,-47.225,105.62,49.439,-376.49,-154.56,-94.4,104.15,-367.11,-44.434,25.661
-3.9945,-209.12,-131.51,-8.8631,107.63,-456.9,-47.683,104.91,48.7,-375.02,-154.39,-94.719,103.86,-366.55,-44.866,25.145
-3.9945,-209.12,-131.51,-8.8631,107.63,-456.9,-47.683,104.91,48.7,-375.02,-154.39,-94.719,103.86,-366.55,-44.866,25.145
-3.9945,-209.12,-131.51,-8.8631,107.63,-456.9,-47.683,104.91,48.7,-375.02,-154.39,-94.719,103.86,-366.55,-44.866,25.145
-3.9945,-209.12,-131.51,-8.8631,107.63,-456.9,-47.683,104.91,48.7,-375.02,-154.39,-94.719,103.86,-366.55,-44.866,25.145
-4.6623,-207.11,-131.24,-8.84,106.74,-454.34,-48.604,103.49,47.194,-372.03,-154.05,-95.344,103.25,-365.37,-45.731,24.109
-4.6623,-207.11,-131.24,-8.84,106.74,-454.34,-48.604,103.49,47.194,-372.03,-154.05,-95.344,103.25,-365.37,-45.731,24.109
-5.0027,-206.09,-131.11,-8.8276,106.28,-453.02,-49.066,102.78,46.427,-370.51,-153.88,-95.65,102.93,-364.75,-46.164,23.589
-5.0027,-206.09,-131.11,-8.8276,106.28,-453.02,-49.066,102.78,46.427,-370.51,-153.88,-95.65,102.93,-364.75,-46.164,23.589
-5.3474,-205.06,-130.97,-8.8148,105.81,-451.69,-49.529,102.06,45.65,-368.98,-153.7,-95.951,102.6,-364.11,-46.598,23.068
-5.6962,-204.01,-130.84,-8.8015,105.32,-450.33,-49.994,101.33,44.865,-367.42,-153.52,-96.248,102.26,-363.46,-47.032,22.546
-5.6962,-204.01,-130.84,-8.8015,105.32,-450.33,-49.994,101.33,44.865,-367.42,-153.52,-96.248,102.26,-363.46,-47.032,22.546
-5.6962,-204.01,-130.84,-8.8015,105.32,-450.33,-49.994,101.33,44.865,-367.42,-153.52,-96.248,102.26,-363.46,-47.032,22.546
-6.0492,-202.95,-130.69,-8.7879,104.83,-448.95,-50.459,100.6,44.07,-365.85,-153.34,-96.54,101.91,-362.78,-47.467,22.022
-6.0492,-202.95,-130.69,-8.7879,104.83,-448.95,-50.459,100.6,44.07,-365.85,-153.34,-96.54,101.91,-362.78,-47.467,22.022
-6.4063,-201.88,-130.55,-8.7739,104.32,-447.54,-50.926,99.873,43.266,-364.27,-153.16,-96.829,101.55,-362.09,-47.902,21.497
-6.4063,-201.88,-130.55,-8.7739,104.32,-447.54,-50.926,99.873,43.266,-364.27,-153.16,-96.829,101.55,-362.09,-47.902,21.497
-6.7674,-200.8,-130.41,-8.7596,103.8,-446.11,-51.393,99.139,42.453,-362.67,-152.98,-97.113,101.18,-361.38,-48.337,20.971
-6.7674,-200.8,-130.41,-8.7596,103.8,-446.11,-51.393,99.139,42.453,-362.67,-152.98,-97.113,101.18,-361.38,-48.337,20.971
-7.1325,-199.71,-130.26,-8.745,103.27,-444.67,-51.862,98.401,41.632,-361.05,-152.79,-97.392,100.8,-360.65,-48.772,20.444
-7.1325,-199.71,-130.26,-8.745,103.27,-444.67,-51.862,98.401,41.632,-361.05,-152.79,-97.392,100.8,-360.65,-48.772,20.444
-7.5016,-198.6,-130.11,-8.7302,102.73,-443.2,-52.332,97.66,40.802,-359.42,-152.6,-97.668,100.41,-359.91,-49.208,19.916
-7.5016,-198.6,-130.11,-8.7302,102.73,-443.2,-52.332,97.66,40.802,-359.42,-152.6,-97.668,100.41,-359.91,-49.208,19.916
-7.8745,-197.48,-129.96,-8.7152,102.18,-441.7,-52.803,96.916,39.963,-357.77,-152.42,-97.939,100.01,-359.15,-49.643,19.386
-7.8745,-197.48,-129.96,-8.7152,102.18,-441.7,-52.803,96.916,39.963,-357.77,-152.42,-97.939,100.01,-359.15,-49.643,19.386
-8.2513,-196.35,-129.81,-8.7,101.62,-440.19,-53.274,96.169,39.116,-356.11,-152.23,-98.206,99.608,-358.37,-50.079,18.855
-8.2513,-196.35,-129.81,-8.7,101.62,-440.19,-53.274,96.169,39.116,-356.11,-152.23,-98.206,99.608,-358.37,-50.079,18.855
-8.6318,-195.21,-129.65,-8.6848,101.04,-438.66,-53.747,95.418,38.26,-354.44,-152.03,-98.469,99.191,-357.57,-50.515,18.323
-9.016,-194.06,-129.5,-8.6694,100.46,-437.1,-54.221,94.664,37.396,-352.75,-151.84,-98.727,98.766,-356.75,-50.951,17.79
-9.016,-194.06,-129.5,-8.6694,100.46,-437.1,-54.221,94.664,37.396,-352.75,-151.84,-98.727,98.766,-356.75,-50.951,17.79
-9.016,-194.06,-129.5,-8.6694,100.46,-437.1,-54.221,94.664,37.396,-352.75,-151.84,-98.727,98.766,-356.75,-50.951,17.79
-9.4038,-192.9,-129.34,-8.6541,99.864,-435.53,-54.695,93.908,36.524,-351.04,-151.64,-98.982,98.331,-355.92,-51.387,17.256
-9.4038,-192.9,-129.34,-8.6541,99.864,-435.53,-54.695,93.908,36.524,-351.04,-151.64,-98.982,98.331,-355.92,-51.387,17.256
-9.7952,-191.73,-129.18,-8.6387,99.258,-433.93,-55.171,93.148,35.644,-349.32,-151.44,-99.233,97.886,-355.07,-51.823,16.721
-9.7952,-191.73,-129.18,-8.6387,99.258,-433.93,-55.171,93.148,35.644,-349.32,-151.44,-99.233,97.886,-355.07,-51.823,16.721
-10.19,-190.54,-129.01,-8.6235,98.642,-432.31,-55.647,92.385,34.756,-347.59,-151.24,-99.48,97.433,-354.2,-52.26,16.185
-10.19,-190.54,-129.01,-8.6235,98.642,-432.31,-55.647,92.385,34.756,-347.59,-151.24,-99.48,97.433,-354.2,-52.26,16.185
-10.589,-189.35,-128.85,-8.6083,98.015,-430.67,-56.124,91.62,33.86,-345.84,-151.04,-99.723,96.971,-353.31,-52.696,15.648
-10.589,-189.35,-128.85,-8.6083,98.015,-430.67,-56.124,91.62,33.86,-345.84,-151.04,-99.723,96.971,-353.31,-52.696,15.648
-10.99,-188.14,-128.68,-8.5933,97.377,-429.01,-56.602,90.851,32.956,-344.08,-150.84,-99.962,96.5,-352.41,-53.132,15.109
-10.99,-188.14,-128.68,-8.5933,97.377,-429.01,-56.602,90.851,32.956,-344.08,-150.84,-99.962,96.5,-352.41,-53.132,15.109
-10.99,-188.14,-128.68,-8.5933,97.377,-429.01,-56.602,90.851,32.956,-344.08,-150.84,-99.962,96.5,-352.41,-53.132,15.109
-11.395,-186.93,-128.51,-8.5785,96.73,-427.33,-57.081,90.08,32.045,-342.31,-150.63,-100.2,96.02,-351.5,-53.567,14.57
-11.395,-186.93,-128.51,-8.5785,96.73,-427.33,-57.081,90.08,32.045,-342.31,-150.63,-100.2,96.02,-351.5,-53.567,14.57
-11.804,-185.7,-128.34,-8.5639,96.072,-425.64,-57.56,89.306,31.126,-340.52,-150.43,-100.43,95.531,-350.56,-54.003,14.03
-11.804,-185.7,-128.34,-8.5639,96.072,-425.64,-57.56,89.306,31.126,-340.52,-150.43,-100.43,95.531,-350.56,-54.003,14.03
-11.804,-185.7,-128.34,-8.5639,96.072,-425.64,-57.56,89.306,31.126,-340.52,-150.43,-100.43,95.531,-350.56,-54.003,14.03
-12.63,-183.22,-127.99,-8.5356,94.726,-422.18,-58.521,87.75,29.267,-336.91,-150.01,-100.88,94.526,-348.64,-54.874,12.946
-12.63,-183.22,-127.99,-8.5356,94.726,-422.18,-58.521,87.75,29.267,-336.91,-150.01,-100.88,94.526,-348.64,-54.874,12.946
-13.048,-181.97,-127.82,-8.5219,94.039,-420.42,-59.003,86.968,28.326,-335.08,-149.8,-101.1,94.011,-347.66,-55.309,12.402
-13.048,-181.97,-127.82,-8.5219,94.039,-420.42,-59.003,86.968,28.326,-335.08,-149.8,-101.1,94.011,-347.66,-55.309,12.402
-13.468,-180.7,-127.64,-8.5087,93.341,-418.64,-59.485,86.184,27.379,-333.24,-149.58,-101.32,93.488,-346.66,-55.744,11.858
-13.468,-180.7,-127.64,-8.5087,93.341,-418.64,-59.485,86.184,27.379,-333.24,-149.58,-101.32,93.488,-346.66,-55.744,11.858
-13.892,-179.43,-127.46,-8.4959,92.634,-416.85,-59.968,85.397,26.424,-331.39,-149.37,-101.53,92.956,-345.64,-56.179,11.313
-13.892,-179.43,-127.46,-8.4959,92.634,-416.85,-59.968,85.397,26.424,-331.39,-149.37,-101.53,92.956,-345.64,-56.179,11.313
-14.318,-178.14,-127.27,-8.4837,91.918,-415.03,-60.452,84.607,25.463,-329.53,-149.15,-101.74,92.415,-344.61,-56.613,10.767
-14.748,-176.85,-127.09,-8.4719,91.192,-413.2,-60.936,83.815,24.495,-327.66,-148.93,-101.95,91.867,-343.56,-57.047,10.22
-14.748,-176.85,-127.09,-8.4719,91.192,-413.2,-60.936,83.815,24.495,-327.66,-148.93,-101.95,91.867,-343.56,-57.047,10.22
-15.18,-175.55,-126.9,-8.4608,90.457,-411.35,-61.421,83.021,23.521,-325.77,-148.71,-102.15,91.31,-342.5,-57.48,9.6718
-15.18,-175.55,-126.9,-8.4608,90.457,-411.35,-61.421,83.021,23.521,-325.77,-148.71,-102.15,91.31,-342.5,-57.48,9.6718
-15.614,-174.24,-126.71,-8.4503,89.713,-409.48,-61.906,82.225,22.54,-323.87,-148.48,-102.35,90.745,-341.42,-57.913,9.1229
-15.614,-174.24,-126.71,-8.4503,89.713,-409.48,-61.906,82.225,22.54,-323.87,-148.48,-102.35,90.745,-341.42,-57.913,9.1229
-15.614,-174.24,-126.71,-8.4503,89.713,-409.48,-61.906,82.225,22.54,-323.87,-148.48,-102.35,90.745,-341.42,-57.913,9.1229
-16.051,-172.92,-126.52,-8.4405,88.96,-407.59,-62.392,81.426,21.553,-321.97,-148.26,-102.54,90.172,-340.32,-58.345,8.5732
-16.051,-172.92,-126.52,-8.4405,88.96,-407.59,-62.392,81.426,21.553,-321.97,-148.26,-102.54,90.172,-340.32,-58.345,8.5732
-16.051,-172.92,-126.52,-8.4405,88.96,-407.59,-62.392,81.426,21.553,-321.97,-148.26,-102.54,90.172,-340.32,-58.345,8.5732
-16.491,-171.59,-126.33,-8.4314,88.198,-405.68,-62.878,80.625,20.559,-320.05,-148.03,-102.74,89.591,-339.21,-58.777,8.0226
-16.933,-170.25,-126.14,-8.423,87.427,-403.76,-63.365,79.822,19.56,-318.12,-147.8,-102.93,89.002,-338.09,-59.209,7.4711
-17.377,-168.91,-125.94,-8.4155,86.647,-401.82,-63.852,79.017,18.555,-316.18,-147.57,-103.11,88.406,-336.95,-59.639,6.9188
-17.377,-168.91,-125.94,-8.4155,86.647,-401.82,-63.852,79.017,18.555,-316.18,-147.57,-103.11,88.406,-336.95,-59.639,6.9188
-17.824,-167.55,-125.74,-8.4088,85.859,-399.86,-64.339,78.21,17.544,-314.23,-147.34,-103.3,87.801,-335.8,-60.069,6.3657
-17.824,-167.55,-125.74,-8.4088,85.859,-399.86,-64.339,78.21,17.544,-314.23,-147.34,-103.3,87.801,-335.8,-60.069,6.3657
-17.824,-167.55,-125.74,-8.4088,85.859,-399.86,-64.339,78.21,17.544,-314.23,-147.34,-103.3,87.801,-335.8,-60.069,6.3657
-18.273,-166.19,-125.54,-8.403,85.063,-397.88,-64.827,77.401,16.527,-312.27,-147.1,-103.48,87.189,-334.63,-60.499,5.8118
-18.273,-166.19,-125.54,-8.403,85.063,-397.88,-64.827,77.401,16.527,-312.27,-147.1,-103.48,87.189,-334.63,-60.499,5.8118
-18.273,-166.19,-125.54,-8.403,85.063,-397.88,-64.827,77.401,16.527,-312.27,-147.1,-103.48,87.189,-334.63,-60.499,5.8118
-18.724,-164.82,-125.34,-8.3982,84.258,-395.89,-65.315,76.59,15.505,-310.3,-146.86,-103.66,86.57,-333.45,-60.928,5.257
-19.176,-163.44,-125.13,-8.3943,83.445,-393.88,-65.804,75.777,14.478,-308.32,-146.63,-103.83,85.943,-332.25,-61.356,4.7015
-19.176,-163.44,-125.13,-8.3943,83.445,-393.88,-65.804,75.777,14.478,-308.32,-146.63,-103.83,85.943,-332.25,-61.356,4.7015
-19.631,-162.06,-124.93,-8.3915,82.624,-391.85,-66.293,74.962,13.445,-306.33,-146.38,-104,85.309,-331.04,-61.783,4.1451
-19.631,-162.06,-124.93,-8.3915,82.624,-391.85,-66.293,74.962,13.445,-306.33,-146.38,-104,85.309,-331.04,-61.783,4.1451
-20.088,-160.67,-124.72,-8.3898,81.796,-389.81,-66.782,74.145,12.407,-304.34,-146.14,-104.17,84.668,-329.81,-62.209,3.588
-20.088,-160.67,-124.72,-8.3898,81.796,-389.81,-66.782,74.145,12.407,-304.34,-146.14,-104.17,84.668,-329.81,-62.209,3.588
-20.088,-160.67,-124.72,-8.3898,81.796,-389.81,-66.782,74.145,12.407,-304.34,-146.14,-104.17,84.668,-329.81,-62.209,3.588
-20.547,-159.27,-124.51,-8.3892,80.959,-387.75,-67.271,73.327,11.364,-302.33,-145.9,-104.34,84.02,-328.57,-62.635,3.0301
-20.547,-159.27,-124.51,-8.3892,80.959,-387.75,-67.271,73.327,11.364,-302.33,-145.9,-104.34,84.02,-328.57,-62.635,3.0301
-21.469,-156.44,-124.08,-8.3916,79.263,-383.58,-68.25,71.685,9.2639,-298.29,-145.4,-104.66,82.702,-326.06,-63.484,1.9121
-21.469,-156.44,-124.08,-8.3916,79.263,-383.58,-68.25,71.685,9.2639,-298.29,-145.4,-104.66,82.702,-326.06,-63.484,1.9121
-21.932,-155.02,-123.87,-8.3946,78.404,-381.48,-68.74,70.862,8.2069,-296.26,-145.15,-104.82,82.033,-324.78,-63.906,1.3519
-21.932,-155.02,-123.87,-8.3946,78.404,-381.48,-68.74,70.862,8.2069,-296.26,-145.15,-104.82,82.033,-324.78,-63.906,1.3519
-22.397,-153.6,-123.65,-8.399,77.538,-379.36,-69.23,70.037,7.1454,-294.22,-144.9,-104.98,81.357,-323.48,-64.328,0.79103
-22.397,-153.6,-123.65,-8.399,77.538,-379.36,-69.23,70.037,7.1454,-294.22,-144.9,-104.98,81.357,-323.48,-64.328,0.79103
-22.863,-152.16,-123.43,-8.4047,76.664,-377.22,-69.72,69.21,6.0797,-292.18,-144.65,-105.13,80.674,-322.18,-64.749,0.22943
-22.863,-152.16,-123.43,-8.4047,76.664,-377.22,-69.72,69.21,6.0797,-292.18,-144.65,-105.13,80.674,-322.18,-64.749,0.22943
-22.863,-152.16,-123.43,-8.4047,76.664,-377.22,-69.72,69.21,6.0797,-292.18,-144.65,-105.13,80.674,-322.18,-64.749,0.22943
-23.331,-150.72,-123.21,-8.4118,75.784,-375.07,-70.21,68.383,5.0098,-290.12,-144.39,-105.28,79.985,-320.86,-65.169,-0.33289
-23.331,-150.72,-123.21,-8.4118,75.784,-375.07,-70.21,68.383,5.0098,-290.12,-144.39,-105.28,79.985,-320.86,-65.169,-0.33289
-23.8,-149.28,-122.98,-8.4204,74.897,-372.9,-70.7,67.553,3.9359,-288.06,-144.13,-105.43,79.29,-319.53,-65.587,-0.89592
-24.269,-147.82,-122.76,-8.4304,74.003,-370.72,-71.19,66.723,2.8581,-285.99,-143.87,-105.57,78.588,-318.19,-66.005,-1.4597
-24.269,-147.82,-122.76,-8.4304,74.003,-370.72,-71.19,66.723,2.8581,-285.99,-143.87,-105.57,78.588,-318.19,-66.005,-1.4597
-24.74,-146.37,-122.53,-8.442,73.102,-368.53,-71.68,65.891,1.7766,-283.92,-143.61,-105.72,77.88,-316.83,-66.421,-2.0241
-24.74,-146.37,-122.53,-8.442,73.102,-368.53,-71.68,65.891,1.7766,-283.92,-143.61,-105.72,77.88,-316.83,-66.421,-2.0241
-24.74,-146.37,-122.53,-8.442,73.102,-368.53,-71.68,65.891,1.7766,-283.92,-143.61,-105.72,77.88,-316.83,-66.421,-2.0241
-25.212,-144.9,-122.3,-8.4551,72.196,-366.32,-72.17,65.058,0.69142,-281.84,-143.35,-105.86,77.166,-315.47,-66.836,-2.5892
-25.212,-144.9,-122.3,-8.4551,72.196,-366.32,-72.17,65.058,0.69142,-281.84,-143.35,-105.86,77.166,-315.47,-66.836,-2.5892
-25.685,-143.43,-122.07,-8.4698,71.282,-364.1,-72.66,64.223,-0.39718,-279.75,-143.08,-106,76.446,-314.09,-67.25,-3.155
-25.685,-143.43,-122.07,-8.4698,71.282,-364.1,-72.66,64.223,-0.39718,-279.75,-143.08,-106,76.446,-314.09,-67.25,-3.155
-26.159,-141.96,-121.84,-8.4863,70.363,-361.87,-73.15,63.387,-1.4891,-277.65,-142.81,-106.14,75.72,-312.69,-67.663,-3.7215
-26.159,-141.96,-121.84,-8.4863,70.363,-361.87,-73.15,63.387,-1.4891,-277.65,-142.81,-106.14,75.72,-312.69,-67.663,-3.7215
-26.159,-141.96,-121.84,-8.4863,70.363,-361.87,-73.15,63.387,-1.4891,-277.65,-142.81,-106.14,75.72,-312.69,-67.663,-3.7215
-26.633,-140.48,-121.61,-8.5044,69.438,-359.62,-73.639,62.551,-2.5842,-275.55,-142.54,-106.27,74.988,-311.29,-68.074,-4.2887
-26.633,-140.48,-121.61,-8.5044,69.438,-359.62,-73.639,62.551,-2.5842,-275.55,-142.54,-106.27,74.988,-311.29,-68.074,-4.2887
-26.633,-140.48,-121.61,-8.5044,69.438,-359.62,-73.639,62.551,-2.5842,-275.55,-142.54,-106.27,74.988,-311.29,-68.074,-4.2887
-27.584,-137.5,-121.13,-8.5459,67.57,-355.08,-74.618,60.874,-4.7834,-271.34,-142,-106.54,73.508,-308.45,-68.892,-5.425
-27.584,-137.5,-121.13,-8.5459,67.57,-355.08,-74.618,60.874,-4.7834,-271.34,-142,-106.54,73.508,-308.45,-68.892,-5.425
-27.584,-137.5,-121.13,-8.5459,67.57,-355.08,-74.618,60.874,-4.7834,-271.34,-142,-106.54,73.508,-308.45,-68.892,-5.425
-28.06,-136.01,-120.89,-8.5695,66.627,-352.8,-75.106,60.034,-5.8872,-269.22,-141.72,-106.67,72.759,-307.02,-69.299,-5.9941
-28.06,-136.01,-120.89,-8.5695,66.627,-352.8,-75.106,60.034,-5.8872,-269.22,-141.72,-106.67,72.759,-307.02,-69.299,-5.9941
-29.013,-133.01,-120.41,-8.6222,64.727,-348.18,-76.083,58.351,-8.1024,-264.98,-141.17,-106.93,71.246,-304.11,-70.109,-7.1344
-29.013,-133.01,-120.41,-8.6222,64.727,-348.18,-76.083,58.351,-8.1024,-264.98,-141.17,-106.93,71.246,-304.11,-70.109,-7.1344
-29.013,-133.01,-120.41,-8.6222,64.727,-348.18,-76.083,58.351,-8.1024,-264.98,-141.17,-106.93,71.246,-304.11,-70.109,-7.1344
-29.489,-131.5,-120.16,-8.6515,63.768,-345.86,-76.571,57.508,-9.2136,-262.85,-140.88,-107.05,70.482,-302.64,-70.511,-7.7055
-29.489,-131.5,-120.16,-8.6515,63.768,-345.86,-76.571,57.508,-9.2136,-262.85,-140.88,-107.05,70.482,-302.64,-70.511,-7.7055
-29.489,-131.5,-120.16,-8.6515,63.768,-345.86,-76.571,57.508,-9.2136,-262.85,-140.88,-107.05,70.482,-302.64,-70.511,-7.7055
-29.966,-129.99,-119.92,-8.6827,62.805,-343.53,-77.058,56.665,-10.327,-260.72,-140.6,-107.18,69.713,-301.16,-70.912,-8.2772
-29.966,-129.99,-119.92,-8.6827,62.805,-343.53,-77.058,56.665,-10.327,-260.72,-140.6,-107.18,69.713,-301.16,-70.912,-8.2772
-30.92,-126.96,-119.42,-8.7515,60.864,-338.82,-78.031,54.975,-12.56,-256.44,-140.03,-107.42,68.16,-298.18,-71.708,-9.4226
-30.92,-126.96,-119.42,-8.7515,60.864,-338.82,-78.031,54.975,-12.56,-256.44,-140.03,-107.42,68.16,-298.18,-71.708,-9.4226
-31.397,-125.44,-119.17,-8.7891,59.886,-336.46,-78.517,54.13,-13.679,-254.29,-139.74,-107.54,67.376,-296.67,-72.104,-9.9963
