-0.8292,-0.4528,-2.8668,-4.7036,-4.557,-3.4523,-3.8691,-2.1274,-3.696,-0.4275,-2.9255,-2.4371,-1.7888,0.3887,-3.7083,-1.3183
-0.8292,-0.4528,-2.8668,-4.7036,-4.557,-3.4523,-3.8691,-2.1274,-3.696,-0.4275,-2.9255,-2.4371,-1.7888,0.3887,-3.7083,-1.3183
-0.8292,-0.4528,-2.8668,-4.7036,-4.557,-3.4523,-3.8691,-2.1274,-3.696,-0.4275,-2.9255,-2.4371,-1.7888,0.3887,-3.7083,-1.3183
-1.0192,-0.4965,-2.8455,-4.7111,-4.4804,-3.4648,-3.8142,-2.1107,-3.8061,-0.4541,-2.9166,-2.463,-1.7667,0.3898,-3.6841,-1.309
-1.2067,-0.5401,-2.8455,-4.7111,-4.451,-3.4678,-3.7799,-2.0981,-3.9251,-0.5033,-2.9355,-2.4882,-1.7791,0.3912,-3.6745,-1.2981
-1.2067,-0.5401,-2.8455,-4.7111,-4.451,-3.4678,-3.7799,-2.0981,-3.9251,-0.5033,-2.9355,-2.4882,-1.7791,0.3912,-3.6745,-1.2981
-1.2067,-0.5401,-2.8455,-4.7111,-4.451,-3.4678,-3.7799,-2.0981,-3.9251,-0.5033,-2.9355,-2.4882,-1.7791,0.3912,-3.6745,-1.2981
-1.342,-0.6553,-2.8309,-4.7206,-4.4634,-3.4598,-3.7593,-2.0882,-4.0528,-0.5745,-2.9623,-2.515,-1.8012,0.3901,-3.6692,-1.2914
-1.342,-0.6553,-2.8309,-4.7206,-4.4634,-3.4598,-3.7593,-2.0882,-4.0528,-0.5745,-2.9623,-2.515,-1.8012,0.3901,-3.6692,-1.2914
-1.5798,-0.5172,-2.8029,-4.7262,-4.4949,-3.4341,-3.7385,-2.0841,-4.2218,-0.6554,-2.9687,-2.558,-1.8432,0.393,-3.6664,-1.2888
-1.5859,-0.4061,-2.7575,-4.7335,-4.5578,-3.3826,-3.7247,-2.0814,-4.3277,-0.6814,-2.936,-2.5921,-1.861,0.4023,-3.6609,-1.289
-1.5859,-0.4061,-2.7575,-4.7335,-4.5578,-3.3826,-3.7247,-2.0814,-4.3277,-0.6814,-2.936,-2.5921,-1.861,0.4023,-3.6609,-1.289
-1.5859,-0.4061,-2.7575,-4.7335,-4.5578,-3.3826,-3.7247,-2.0814,-4.3277,-0.6814,-2.936,-2.5921,-1.861,0.4023,-3.6609,-1.289
-1.3524,-0.4338,-2.7227,-4.7371,-4.6185,-3.3244,-3.716,-2.0825,-4.3277,-0.6814,-2.888,-2.609,-1.8671,0.4193,-3.6541,-1.2909
-1.3524,-0.4338,-2.7227,-4.7371,-4.6185,-3.3244,-3.716,-2.0825,-4.3277,-0.6814,-2.888,-2.609,-1.8671,0.4193,-3.6541,-1.2909
-0.8759,-0.4918,-2.6906,-4.7485,-4.6692,-3.2808,-3.716,-2.0883,-4.2102,-0.6723,-2.8606,-2.5961,-1.8554,0.4271,-3.6473,-1.2942
-0.8759,-0.4918,-2.6906,-4.7485,-4.6692,-3.2808,-3.716,-2.0883,-4.2102,-0.6723,-2.8606,-2.5961,-1.8554,0.4271,-3.6473,-1.2942
-0.8759,-0.4918,-2.6906,-4.7485,-4.6692,-3.2808,-3.716,-2.0883,-4.2102,-0.6723,-2.8606,-2.5961,-1.8554,0.4271,-3.6473,-1.2942
-0.0333,-0.734,-2.6839,-4.7465,-4.6905,-3.2696,-3.7194,-2.0947,-4.037,-0.6698,-2.8536,-2.567,-1.8334,0.4282,-3.6413,-1.2977
-0.0333,-0.734,-2.6839,-4.7465,-4.6905,-3.2696,-3.7194,-2.0947,-4.037,-0.6698,-2.8536,-2.567,-1.8334,0.4282,-3.6413,-1.2977
-0.0333,-0.734,-2.6839,-4.7465,-4.6905,-3.2696,-3.7194,-2.0947,-4.037,-0.6698,-2.8536,-2.567,-1.8334,0.4282,-3.6413,-1.2977
-0.0333,-0.734,-2.6839,-4.7465,-4.6905,-3.2696,-3.7194,-2.0947,-4.037,-0.6698,-2.8536,-2.567,-1.8334,0.4282,-3.6413,-1.2977
0.3747,-0.6534,-2.6879,-4.7407,-4.7105,-3.2993,-3.681,-2.1273,-3.6597,-0.7391,-2.904,-2.4811,-1.8106,0.4202,-3.6324,-1.304
0.3747,-0.6534,-2.6879,-4.7407,-4.7105,-3.2993,-3.681,-2.1273,-3.6597,-0.7391,-2.904,-2.4811,-1.8106,0.4202,-3.6324,-1.304
-0.4197,0.2672,-2.7133,-4.7274,-4.6858,-3.3447,-3.674,-2.1317,-3.5386,-0.6917,-2.9365,-2.4605,-1.7424,0.3961,-3.6281,-1.3024
-0.4197,0.2672,-2.7133,-4.7274,-4.6858,-3.3447,-3.674,-2.1317,-3.5386,-0.6917,-2.9365,-2.4605,-1.7424,0.3961,-3.6281,-1.3024
-0.4197,0.2672,-2.7133,-4.7274,-4.6858,-3.3447,-3.674,-2.1317,-3.5386,-0.6917,-2.9365,-2.4605,-1.7424,0.3961,-3.6281,-1.3024
-0.8657,0.2469,-2.7188,-4.7429,-4.6914,-3.3756,-3.7088,-2.1156,-3.5282,-0.6695,-2.9444,-2.4623,-1.7272,0.3907,-3.627,-1.3001
-0.8657,0.2469,-2.7188,-4.7429,-4.6914,-3.3756,-3.7088,-2.1156,-3.5282,-0.6695,-2.9444,-2.4623,-1.7272,0.3907,-3.627,-1.3001
-1.1855,-0.0453,-2.6841,-4.7811,-4.7092,-3.3985,-3.7505,-2.1009,-3.494,-0.6816,-2.9318,-2.4804,-1.7375,0.3973,-3.6254,-1.2997
-1.3203,-0.1674,-2.6186,-4.8173,-4.7081,-3.4098,-3.773,-2.0967,-3.4821,-0.6987,-2.9151,-2.5044,-1.7658,0.4133,-3.6266,-1.2993
-1.3203,-0.1674,-2.6186,-4.8173,-4.7081,-3.4098,-3.773,-2.0967,-3.4821,-0.6987,-2.9151,-2.5044,-1.7658,0.4133,-3.6266,-1.2993
-1.3203,-0.1674,-2.6186,-4.8173,-4.7081,-3.4098,-3.773,-2.0967,-3.4821,-0.6987,-2.9151,-2.5044,-1.7658,0.4133,-3.6266,-1.2993
-1.121,-0.3497,-2.5824,-4.8344,-4.7137,-3.4115,-3.7851,-2.0963,-3.3103,-0.7594,-2.8785,-2.531,-1.7919,0.4345,-3.6282,-1.2996
-1.121,-0.3497,-2.5824,-4.8344,-4.7137,-3.4115,-3.7851,-2.0963,-3.3103,-0.7594,-2.8785,-2.531,-1.7919,0.4345,-3.6282,-1.2996
-0.8292,-0.4528,-2.5836,-4.821,-4.7081,-3.4098,-3.7885,-2.1027,-3.0559,-0.8622,-2.8818,-2.5525,-1.8222,0.4452,-3.6341,-1.3002
-0.8292,-0.4528,-2.5836,-4.821,-4.7081,-3.4098,-3.7885,-2.1027,-3.0559,-0.8622,-2.8818,-2.5525,-1.8222,0.4452,-3.6341,-1.3002
-0.5851,-0.4832,-2.6155,-4.775,-4.7059,-3.4033,-3.7988,-2.1047,-2.8811,-0.924,-2.8938,-2.5482,-1.8443,0.444,-3.6392,-1.302
-0.5851,-0.4832,-2.6155,-4.775,-4.7059,-3.4033,-3.7988,-2.1047,-2.8811,-0.924,-2.8938,-2.5482,-1.8443,0.444,-3.6392,-1.302
-0.589,-0.3695,-2.6689,-4.7213,-4.7059,-3.4033,-3.8039,-2.1144,-2.8579,-0.9192,-2.9059,-2.544,-1.8636,0.4389,-3.6423,-1.3054
-0.5985,-0.1383,-2.7064,-4.6906,-4.697,-3.4065,-3.8107,-2.1215,-3.0116,-0.774,-2.9142,-2.532,-1.8904,0.4365,-3.6437,-1.3098
-0.5985,-0.1383,-2.7064,-4.6906,-4.697,-3.4065,-3.8107,-2.1215,-3.0116,-0.774,-2.9142,-2.532,-1.8904,0.4365,-3.6437,-1.3098
-0.5985,-0.1383,-2.7064,-4.6906,-4.697,-3.4065,-3.8107,-2.1215,-3.0116,-0.774,-2.9142,-2.532,-1.8904,0.4365,-3.6437,-1.3098
-0.5566,0.0206,-2.7212,-4.6811,-4.6612,-3.4191,-3.8244,-2.1299,-3.2247,-0.5808,-2.9142,-2.532,-1.8994,0.4248,-3.65,-1.3125
-0.5566,0.0206,-2.7212,-4.6811,-4.6612,-3.4191,-3.8244,-2.1299,-3.2247,-0.5808,-2.9142,-2.532,-1.8994,0.4248,-3.65,-1.3125
-0.5566,0.0206,-2.7212,-4.6811,-4.6612,-3.4191,-3.8244,-2.1299,-3.2247,-0.5808,-2.9142,-2.532,-1.8994,0.4248,-3.65,-1.3125
-0.5629,0.1399,-2.7119,-4.7062,-4.5852,-3.4605,-3.8655,-2.1438,-3.682,-0.4849,-2.929,-2.5629,-1.9426,0.3807,-3.6851,-1.3126
-0.5629,0.1399,-2.7119,-4.7062,-4.5852,-3.4605,-3.8655,-2.1438,-3.682,-0.4849,-2.929,-2.5629,-1.9426,0.3807,-3.6851,-1.3126
-0.6575,0.0562,-2.7133,-4.7274,-4.6054,-3.4607,-3.9014,-2.1482,-3.9231,-0.5429,-2.888,-2.609,-1.9796,0.3524,-3.7072,-1.3133
-0.6575,0.0562,-2.7133,-4.7274,-4.6054,-3.4607,-3.9014,-2.1482,-3.9231,-0.5429,-2.888,-2.609,-1.9796,0.3524,-3.7072,-1.3133
-0.5985,-0.1383,-2.7295,-4.7391,-4.6568,-3.4352,-3.9372,-2.1525,-4.041,-0.5915,-2.8354,-2.6456,-2.0157,0.3475,-3.728,-1.3144
-0.5985,-0.1383,-2.7295,-4.7391,-4.6568,-3.4352,-3.9372,-2.1525,-4.041,-0.5915,-2.8354,-2.6456,-2.0157,0.3475,-3.728,-1.3144
-0.5985,-0.1383,-2.7295,-4.7391,-4.6568,-3.4352,-3.9372,-2.1525,-4.041,-0.5915,-2.8354,-2.6456,-2.0157,0.3475,-3.728,-1.3144
-0.3929,-0.3254,-2.7602,-4.7412,-4.7115,-3.405,-3.9713,-2.1593,-4.0272,-0.6477,-2.8437,-2.6337,-2.0374,0.3463,-3.7425,-1.3182
-0.3929,-0.3254,-2.7602,-4.7412,-4.7115,-3.405,-3.9713,-2.1593,-4.0272,-0.6477,-2.8437,-2.6337,-2.0374,0.3463,-3.7425,-1.3182
0.0655,-0.5442,-2.7776,-4.7394,-4.765,-3.3861,-4.0018,-2.1655,-3.9371,-0.7051,-2.8847,-2.5876,-2.0598,0.3542,-3.7566,-1.3213
0.0655,-0.5442,-2.7776,-4.7394,-4.765,-3.3861,-4.0018,-2.1655,-3.9371,-0.7051,-2.8847,-2.5876,-2.0598,0.3542,-3.7566,-1.3213
0.0655,-0.5442,-2.7776,-4.7394,-4.765,-3.3861,-4.0018,-2.1655,-3.9371,-0.7051,-2.8847,-2.5876,-2.0598,0.3542,-3.7566,-1.3213
0.6879,-0.7641,-2.7989,-4.7319,-4.785,-3.3863,-4.0255,-2.1703,-3.8367,-0.7405,-2.9424,-2.5175,-2.0673,0.3569,-3.7698,-1.3242
0.6879,-0.7641,-2.7989,-4.7319,-4.785,-3.3863,-4.0255,-2.1703,-3.8367,-0.7405,-2.9424,-2.5175,-2.0673,0.3569,-3.7698,-1.3242
0.6879,-0.7641,-2.7989,-4.7319,-4.785,-3.3863,-4.0255,-2.1703,-3.8367,-0.7405,-2.9424,-2.5175,-2.0673,0.3569,-3.7698,-1.3242
0.8452,-0.8762,-2.819,-4.7378,-4.8127,-3.3947,-4.0322,-2.183,-3.7696,-0.7643,-3.0201,-2.4446,-2.0795,0.3582,-3.7819,-1.3275
0.8452,-0.8762,-2.819,-4.7378,-4.8127,-3.3947,-4.0322,-2.183,-3.7696,-0.7643,-3.0201,-2.4446,-2.0795,0.3582,-3.7819,-1.3275
0.8452,-0.8762,-2.819,-4.7378,-4.8127,-3.3947,-4.0322,-2.183,-3.7696,-0.7643,-3.0201,-2.4446,-2.0795,0.3582,-3.7819,-1.3275
0.2174,-0.4266,-2.8522,-4.7477,-4.827,-3.4223,-4.0029,-2.2252,-3.6802,-0.783,-3.0692,-2.4,-2.0862,0.3518,-3.7989,-1.3366
0.2174,-0.4266,-2.8522,-4.7477,-4.827,-3.4223,-4.0029,-2.2252,-3.6802,-0.783,-3.0692,-2.4,-2.0862,0.3518,-3.7989,-1.3366
-1.0199,0.3604,-2.9053,-4.7635,-4.8325,-3.4529,-4.0519,-2.2378,-3.793,-0.7304,-3.0831,-2.4451,-2.0077,0.3035,-3.8237,-1.3447
-1.0199,0.3604,-2.9053,-4.7635,-4.8325,-3.4529,-4.0519,-2.2378,-3.793,-0.7304,-3.0831,-2.4451,-2.0077,0.3035,-3.8237,-1.3447
-1.0199,0.3604,-2.9053,-4.7635,-4.8325,-3.4529,-4.0519,-2.2378,-3.793,-0.7304,-3.0831,-2.4451,-2.0077,0.3035,-3.8237,-1.3447
-1.6342,0.2852,-2.9305,-4.7848,-4.8679,-3.4693,-4.1246,-2.2215,-3.8484,-0.7236,-3.0981,-2.4625,-1.997,0.2879,-3.8389,-1.3473
-1.6342,0.2852,-2.9305,-4.7848,-4.8679,-3.4693,-4.1246,-2.2215,-3.8484,-0.7236,-3.0981,-2.4625,-1.997,0.2879,-3.8389,-1.3473
-2.0693,-0.0147,-2.9477,-4.8173,-4.9152,-3.4778,-4.1902,-2.2151,-3.9154,-0.7,-3.0815,-2.4865,-2.0322,0.3063,-3.8556,-1.349
-2.1439,-0.209,-2.932,-4.84,-4.9492,-3.4766,-4.2389,-2.2109,-3.8149,-0.7355,-3.0571,-2.5087,-2.0883,0.3466,-3.8707,-1.3516
-2.1439,-0.209,-2.932,-4.84,-4.9492,-3.4766,-4.2389,-2.2109,-3.8149,-0.7355,-3.0571,-2.5087,-2.0883,0.3466,-3.8707,-1.3516
-2.1439,-0.209,-2.932,-4.84,-4.9492,-3.4766,-4.2389,-2.2109,-3.8149,-0.7355,-3.0571,-2.5087,-2.0883,0.3466,-3.8707,-1.3516
-1.8593,-0.4184,-2.9425,-4.8363,-4.9569,-3.4847,-4.2773,-2.2104,-3.567,-0.8358,-3.0524,-2.5284,-2.1531,0.3754,-3.8886,-1.3542
-1.8593,-0.4184,-2.9425,-4.8363,-4.9569,-3.4847,-4.2773,-2.2104,-3.567,-0.8358,-3.0524,-2.5284,-2.1531,0.3754,-3.8886,-1.3542
-1.5301,-0.5888,-2.9649,-4.8156,-4.9711,-3.4832,-4.2938,-2.2194,-3.2709,-0.966,-3.0405,-2.5326,-2.1895,0.3795,-3.9028,-1.358
-1.5301,-0.5888,-2.9649,-4.8156,-4.9711,-3.4832,-4.2938,-2.2194,-3.2709,-0.966,-3.0405,-2.5326,-2.1895,0.3795,-3.9028,-1.358
-1.1486,-0.8311,-3.0056,-4.7797,-4.9821,-3.4865,-4.3053,-2.2302,-3.1678,-1.0024,-3.0524,-2.5284,-2.2278,0.3783,-3.9139,-1.3638
-1.1486,-0.8311,-3.0056,-4.7797,-4.9821,-3.4865,-4.3053,-2.2302,-3.1678,-1.0024,-3.0524,-2.5284,-2.2278,0.3783,-3.9139,-1.3638
-1.1486,-0.8311,-3.0056,-4.7797,-4.9821,-3.4865,-4.3053,-2.2302,-3.1678,-1.0024,-3.0524,-2.5284,-2.2278,0.3783,-3.9139,-1.3638
-0.9557,-1.0058,-3.053,-4.7458,-4.993,-3.4899,-4.3201,-2.2417,-3.1678,-1.0024,-3.0607,-2.5164,-2.2432,0.3603,-3.9227,-1.3704
-0.9557,-1.0058,-3.053,-4.7458,-4.993,-3.4899,-4.3201,-2.2417,-3.1678,-1.0024,-3.0607,-2.5164,-2.2432,0.3603,-3.9227,-1.3704
-0.9557,-1.0058,-3.053,-4.7458,-4.993,-3.4899,-4.3201,-2.2417,-3.1678,-1.0024,-3.0607,-2.5164,-2.2432,0.3603,-3.9227,-1.3704
-0.6685,-1.1073,-3.1159,-4.7235,-5.0116,-3.5012,-4.3596,-2.2611,-3.4898,-0.7991,-3.0851,-2.4942,-2.2939,0.3373,-3.9424,-1.3855
-0.6685,-1.1073,-3.1159,-4.7235,-5.0116,-3.5012,-4.3596,-2.2611,-3.4898,-0.7991,-3.0851,-2.4942,-2.2939,0.3373,-3.9424,-1.3855
-0.6685,-1.1073,-3.1159,-4.7235,-5.0116,-3.5012,-4.3596,-2.2611,-3.4898,-0.7991,-3.0851,-2.4942,-2.2939,0.3373,-3.9424,-1.3855
-0.7664,-0.9661,-3.1211,-4.7389,-4.9962,-3.5138,-4.396,-2.263,-3.6866,-0.6265,-3.097,-2.49,-2.3173,0.3309,-3.9624,-1.3886
-0.7664,-0.9661,-3.1211,-4.7389,-4.9962,-3.5138,-4.396,-2.263,-3.6866,-0.6265,-3.097,-2.49,-2.3173,0.3309,-3.9624,-1.3886
-1.0241,-0.3839,-3.1405,-4.7792,-4.9218,-3.5544,-4.4736,-2.2596,-3.9827,-0.457,-3.1245,-2.4894,-2.3612,0.3144,-4.0192,-1.3883
-1.0241,-0.3839,-3.1405,-4.7792,-4.9218,-3.5544,-4.4736,-2.2596,-3.9827,-0.457,-3.1245,-2.4894,-2.3612,0.3144,-4.0192,-1.3883
-1.0241,-0.3839,-3.1405,-4.7792,-4.9218,-3.5544,-4.4736,-2.2596,-3.9827,-0.457,-3.1245,-2.4894,-2.3612,0.3144,-4.0192,-1.3883
-1.1269,-0.2358,-3.1587,-4.7984,-4.9262,-3.5672,-4.5146,-2.2653,-4.1217,-0.5115,-3.1513,-2.5025,-2.4003,0.2991,-4.056,-1.385
-1.1269,-0.2358,-3.1587,-4.7984,-4.9262,-3.5672,-4.5146,-2.2653,-4.1217,-0.5115,-3.1513,-2.5025,-2.4003,0.2991,-4.056,-1.385
-1.2688,-0.2417,-3.1808,-4.8119,-4.9568,-3.5706,-4.5538,-2.2736,-4.2781,-0.6101,-3.1301,-2.546,-2.4531,0.2802,-4.089,-1.3856
-1.2688,-0.2417,-3.1808,-4.8119,-4.9568,-3.5706,-4.5538,-2.2736,-4.2781,-0.6101,-3.1301,-2.546,-2.4531,0.2802,-4.089,-1.3856
-1.1665,-0.3891,-3.1885,-4.8348,-5.0115,-3.5585,-4.5928,-2.2818,-4.3045,-0.7149,-3.0779,-2.5824,-2.4972,0.2726,-4.1177,-1.3886
-1.1665,-0.3891,-3.1885,-4.8348,-5.0115,-3.5585,-4.5928,-2.2818,-4.3045,-0.7149,-3.0779,-2.5824,-2.4972,0.2726,-4.1177,-1.3886
-1.07,-0.4232,-3.1794,-4.8592,-5.079,-3.5274,-4.6236,-2.2911,-4.2582,-0.7817,-3.0221,-2.6111,-2.5229,0.2701,-4.1397,-1.3936
-1.07,-0.4232,-3.1794,-4.8592,-5.079,-3.5274,-4.6236,-2.2911,-4.2582,-0.7817,-3.0221,-2.6111,-2.5229,0.2701,-4.1397,-1.3936
-0.4828,-0.6307,-3.1638,-4.8817,-5.1324,-3.4979,-4.6545,-2.2948,-4.1056,-0.823,-2.9986,-2.6059,-2.5354,0.2803,-4.1586,-1.4005
-0.4828,-0.6307,-3.1638,-4.8817,-5.1324,-3.4979,-4.6545,-2.2948,-4.1056,-0.823,-2.9986,-2.6059,-2.5354,0.2803,-4.1586,-1.4005
0.2716,-0.9526,-3.1833,-4.8875,-5.1812,-3.4842,-4.6836,-2.3009,-4.0512,-0.8296,-3.0156,-2.5684,-2.5354,0.2803,-4.1775,-1.406
0.683,-1.0979,-3.1963,-4.8914,-5.2114,-3.4878,-4.7109,-2.3095,-4.0414,-0.8079,-3.0809,-2.5002,-2.5472,0.2816,-4.1976,-1.4112
0.683,-1.0979,-3.1963,-4.8914,-5.2114,-3.4878,-4.7109,-2.3095,-4.0414,-0.8079,-3.0809,-2.5002,-2.5472,0.2816,-4.1976,-1.4112
0.683,-1.0979,-3.1963,-4.8914,-5.2114,-3.4878,-4.7109,-2.3095,-4.0414,-0.8079,-3.0809,-2.5002,-2.5472,0.2816,-4.1976,-1.4112
0.5287,-0.9881,-3.2338,-4.8824,-5.2317,-3.5056,-4.717,-2.3274,-4.0995,-0.7241,-3.1261,-2.448,-2.559,0.2829,-4.2157,-1.4166
0.5287,-0.9881,-3.2338,-4.8824,-5.2317,-3.5056,-4.717,-2.3274,-4.0995,-0.7241,-3.1261,-2.448,-2.559,0.2829,-4.2157,-1.4166
0.0133,-0.4689,-3.2545,-4.8751,-5.2466,-3.5216,-4.7133,-2.3487,-4.1131,-0.6684,-3.1547,-2.4198,-2.5827,0.2855,-4.2345,-1.4221
0.0133,-0.4689,-3.2545,-4.8751,-5.2466,-3.5216,-4.7133,-2.3487,-4.1131,-0.6684,-3.1547,-2.4198,-2.5827,0.2855,-4.2345,-1.4221
0.0133,-0.4689,-3.2545,-4.8751,-5.2466,-3.5216,-4.7133,-2.3487,-4.1131,-0.6684,-3.1547,-2.4198,-2.5827,0.2855,-4.2345,-1.4221
-0.7184,0.2539,-3.2752,-4.8678,-5.2508,-3.5343,-4.7131,-2.3597,-4.082,-0.6411,-3.1589,-2.4138,-2.58,0.2817,-4.245,-1.4258
-0.7184,0.2539,-3.2752,-4.8678,-5.2508,-3.5343,-4.7131,-2.3597,-4.082,-0.6411,-3.1589,-2.4138,-2.58,0.2817,-4.245,-1.4258
-0.7184,0.2539,-3.2752,-4.8678,-5.2508,-3.5343,-4.7131,-2.3597,-4.082,-0.6411,-3.1589,-2.4138,-2.58,0.2817,-4.245,-1.4258
-1.803,1.0581,-3.2623,-4.8639,-5.1862,-3.543,-4.6539,-2.3224,-4.0272,-0.6477,-3.0842,-2.4174,-2.4325,0.2584,-4.2103,-1.418
-1.803,1.0581,-3.2623,-4.8639,-5.1862,-3.543,-4.6539,-2.3224,-4.0272,-0.6477,-3.0842,-2.4174,-2.4325,0.2584,-4.2103,-1.418
-1.803,1.0581,-3.2623,-4.8639,-5.1862,-3.543,-4.6539,-2.3224,-4.0272,-0.6477,-3.0842,-2.4174,-2.4325,0.2584,-4.2103,-1.418
-2.0945,0.7401,-3.2144,-4.8765,-5.1353,-3.5503,-4.5896,-2.2811,-3.9939,-0.6594,-3.0014,-2.4194,-2.3424,0.2555,-4.1584,-1.4071
-2.2757,0.283,-3.1118,-4.9001,-5.0833,-3.5402,-4.5019,-2.2403,-3.9822,-0.6764,-2.958,-2.4164,-2.2798,0.2769,-4.1059,-1.3954
-2.2757,0.283,-3.1118,-4.9001,-5.0833,-3.5402,-4.5019,-2.2403,-3.9822,-0.6764,-2.958,-2.4164,-2.2798,0.2769,-4.1059,-1.3954
-2.286,-0.104,-3.006,-4.9162,-5.0377,-3.5206,-4.4069,-2.2092,-3.8719,-0.6897,-2.8945,-2.416,-2.2377,0.3203,-4.0548,-1.3841
-2.286,-0.104,-3.006,-4.9162,-5.0377,-3.5206,-4.4069,-2.2092,-3.8719,-0.6897,-2.8945,-2.416,-2.2377,0.3203,-4.0548,-1.3841
-2.1357,-0.3208,-2.9113,-4.9157,-4.9897,-3.4946,-4.311,-2.1892,-3.6935,-0.7271,-2.855,-2.4071,-2.2029,0.3666,-4.0135,-1.3749
-2.1357,-0.3208,-2.9113,-4.9157,-4.9897,-3.4946,-4.311,-2.1892,-3.6935,-0.7271,-2.855,-2.4071,-2.2029,0.3666,-4.0135,-1.3749
-2.1357,-0.3208,-2.9113,-4.9157,-4.9897,-3.4946,-4.311,-2.1892,-3.6935,-0.7271,-2.855,-2.4071,-2.2029,0.3666,-4.0135,-1.3749
-1.5798,-0.5172,-2.8726,-4.8567,-4.9119,-3.4537,-4.1809,-2.1679,-3.251,-0.8449,-2.8359,-2.3817,-2.1586,0.4156,-3.9628,-1.3651
-1.5798,-0.5172,-2.8726,-4.8567,-4.9119,-3.4537,-4.1809,-2.1679,-3.251,-0.8449,-2.8359,-2.3817,-2.1586,0.4156,-3.9628,-1.3651
-1.5798,-0.5172,-2.8726,-4.8567,-4.9119,-3.4537,-4.1809,-2.1679,-3.251,-0.8449,-2.8359,-2.3817,-2.1586,0.4156,-3.9628,-1.3651
-1.5798,-0.5172,-2.8726,-4.8567,-4.9119,-3.4537,-4.1809,-2.1679,-3.251,-0.8449,-2.8359,-2.3817,-2.1586,0.4156,-3.9628,-1.3651
-1.202,-0.6507,-2.9094,-4.7922,-4.8899,-3.4471,-4.1523,-2.1649,-3.1017,-0.8719,-2.8322,-2.3738,-2.137,0.4169,-3.9465,-1.3642
-1.202,-0.6507,-2.9094,-4.7922,-4.8899,-3.4471,-4.1523,-2.1649,-3.1017,-0.8719,-2.8322,-2.3738,-2.137,0.4169,-3.9465,-1.3642
-1.202,-0.6507,-2.9094,-4.7922,-4.8899,-3.4471,-4.1523,-2.1649,-3.1017,-0.8719,-2.8322,-2.3738,-2.137,0.4169,-3.9465,-1.3642
-0.7713,-0.7485,-2.9754,-4.7085,-4.8601,-3.4612,-4.1067,-2.1754,-3.265,-0.7495,-2.8433,-2.3974,-2.1085,0.3921,-3.9164,-1.3704
-0.7713,-0.7485,-2.9754,-4.7085,-4.8601,-3.4612,-4.1067,-2.1754,-3.265,-0.7495,-2.8433,-2.3974,-2.1085,0.3921,-3.9164,-1.3704
-0.7745,-0.638,-2.982,-4.7105,-4.8447,-3.4739,-4.0862,-2.1883,-3.4731,-0.637,-2.8587,-2.4149,-2.0876,0.3699,-3.9101,-1.3744
-0.7745,-0.638,-2.982,-4.7105,-4.8447,-3.4739,-4.0862,-2.1883,-3.4731,-0.637,-2.8587,-2.4149,-2.0876,0.3699,-3.9101,-1.3744
-0.7782,-0.5264,-2.9661,-4.7334,-4.8204,-3.4897,-4.076,-2.1975,-3.6377,-0.4743,-2.8703,-2.4246,-2.0598,0.3542,-3.9093,-1.3769
-0.7782,-0.5264,-2.9661,-4.7334,-4.8204,-3.4897,-4.076,-2.1975,-3.6377,-0.4743,-2.8703,-2.4246,-2.0598,0.3542,-3.9093,-1.3769
-0.8804,-0.3789,-2.978,-4.7508,-4.7751,-3.5165,-4.0843,-2.2077,-3.8445,-0.3619,-2.8898,-2.436,-2.0564,0.3413,-3.9186,-1.3763
-0.8804,-0.3789,-2.978,-4.7508,-4.7751,-3.5165,-4.0843,-2.2077,-3.8445,-0.3619,-2.8898,-2.436,-2.0564,0.3413,-3.9186,-1.3763
-0.9781,-0.3444,-2.9859,-4.7738,-4.7264,-3.5481,-4.1062,-2.2093,-3.9993,-0.3597,-2.9166,-2.463,-2.0923,0.3363,-3.9319,-1.3738
-0.9781,-0.3444,-2.9859,-4.7738,-4.7264,-3.5481,-4.1062,-2.2093,-3.9993,-0.3597,-2.9166,-2.463,-2.0923,0.3363,-3.9319,-1.3738
-1.1665,-0.3891,-2.9977,-4.7911,-4.7342,-3.5562,-4.1315,-2.2059,-4.2,-0.4709,-2.9549,-2.4995,-2.1544,0.3289,-3.9498,-1.3696
-1.1665,-0.3891,-2.9977,-4.7911,-4.7342,-3.5562,-4.1315,-2.2059,-4.2,-0.4709,-2.9549,-2.4995,-2.1544,0.3289,-3.9498,-1.3696
-1.3137,-0.2816,-2.9793,-4.8062,-4.753,-3.5387,-4.1434,-2.1999,-4.4093,-0.5637,-2.9493,-2.5467,-2.217,0.3305,-3.9635,-1.3666
-1.3137,-0.2816,-2.9793,-4.8062,-4.753,-3.5387,-4.1434,-2.1999,-4.4093,-0.5637,-2.9493,-2.5467,-2.217,0.3305,-3.9635,-1.3666
-1.2175,-0.3156,-2.9609,-4.8212,-4.8115,-3.4928,-4.1536,-2.1963,-4.4582,-0.6353,-2.9207,-2.5749,-2.2512,0.3397,-3.9682,-1.3649
-1.2175,-0.3156,-2.9609,-4.8212,-4.8115,-3.4928,-4.1536,-2.1963,-4.4582,-0.6353,-2.9207,-2.5749,-2.2512,0.3397,-3.9682,-1.3649
-0.6801,-0.561,-2.9425,-4.8363,-4.8668,-3.4517,-4.1654,-2.1902,-4.3372,-0.7034,-2.917,-2.5672,-2.2492,0.3448,-3.9671,-1.364
-0.6801,-0.561,-2.9425,-4.8363,-4.8668,-3.4517,-4.1654,-2.1902,-4.3372,-0.7034,-2.917,-2.5672,-2.2492,0.3448,-3.9671,-1.364
-0.0333,-0.734,-2.9399,-4.8287,-4.8999,-3.4327,-4.157,-2.1913,-4.1733,-0.7613,-2.9461,-2.5252,-2.2472,0.35,-3.962,-1.3649
0.4256,-0.9517,-2.9372,-4.821,-4.9142,-3.4313,-4.1418,-2.1967,-3.9652,-0.8095,-2.9836,-2.4712,-2.2331,0.3538,-3.955,-1.366
0.4256,-0.9517,-2.9372,-4.821,-4.9142,-3.4313,-4.1418,-2.1967,-3.9652,-0.8095,-2.9836,-2.4712,-2.2331,0.3538,-3.955,-1.366
0.3746,-0.8781,-2.9372,-4.821,-4.9274,-3.4411,-4.113,-2.2106,-3.8219,-0.8348,-3.0129,-2.429,-2.2237,0.3563,-3.9522,-1.3675
0.3746,-0.8781,-2.9372,-4.821,-4.9274,-3.4411,-4.113,-2.2106,-3.8219,-0.8348,-3.0129,-2.429,-2.2237,0.3563,-3.9522,-1.3675
0.3746,-0.8781,-2.9372,-4.821,-4.9274,-3.4411,-4.113,-2.2106,-3.8219,-0.8348,-3.0129,-2.429,-2.2237,0.3563,-3.9522,-1.3675
0.1666,-0.466,-2.9345,-4.8134,-4.9229,-3.4571,-4.0688,-2.23,-3.7447,-0.8367,-3.0369,-2.4205,-2.219,0.3576,-3.9541,-1.3686
0.1666,-0.466,-2.9345,-4.8134,-4.9229,-3.4571,-4.0688,-2.23,-3.7447,-0.8367,-3.0369,-2.4205,-2.219,0.3576,-3.9541,-1.3686
-0.4131,0.146,-2.949,-4.804,-4.9185,-3.4731,-4.0518,-2.2435,-3.7578,-0.7812,-3.0483,-2.4301,-2.1968,0.3498,-3.9587,-1.3696
-0.4131,0.146,-2.949,-4.804,-4.9185,-3.4731,-4.0518,-2.2435,-3.7578,-0.7812,-3.0483,-2.4301,-2.1968,0.3498,-3.9587,-1.3696
-0.7902,0.5785,-2.9596,-4.8003,-4.9141,-3.489,-4.0721,-2.2419,-3.7712,-0.7253,-3.0597,-2.4397,-2.1571,0.3328,-3.9681,-1.3689
-0.7902,0.5785,-2.9596,-4.8003,-4.9141,-3.489,-4.0721,-2.2419,-3.7712,-0.7253,-3.0597,-2.4397,-2.1571,0.3328,-3.9681,-1.3689
-1.2182,0.9745,-2.9767,-4.7985,-4.9042,-3.5033,-4.116,-2.2338,-3.8065,-0.6744,-3.0867,-2.4529,-2.11,0.3132,-3.9777,-1.369
-1.2182,0.9745,-2.9767,-4.7985,-4.9042,-3.5033,-4.116,-2.2338,-3.8065,-0.6744,-3.0867,-2.4529,-2.11,0.3132,-3.9777,-1.369
-1.3066,0.8827,-2.9964,-4.8044,-4.9086,-3.5161,-4.17,-2.2222,-3.8301,-0.6403,-3.1059,-2.4643,-2.0675,0.2923,-3.9917,-1.3681
-1.3066,0.8827,-2.9964,-4.8044,-4.9086,-3.5161,-4.17,-2.2222,-3.8301,-0.6403,-3.1059,-2.4643,-2.0675,0.2923,-3.9917,-1.3681
-1.4162,0.5004,-3.0214,-4.8256,-4.9349,-3.5355,-4.2423,-2.206,-3.8183,-0.6573,-3.1369,-2.4714,-2.0567,0.2768,-4.0024,-1.3704
-1.4162,0.5004,-3.0214,-4.8256,-4.9349,-3.5355,-4.2423,-2.206,-3.8183,-0.6573,-3.1369,-2.4714,-2.0567,0.2768,-4.0024,-1.3704
-1.4681,-0.0589,-3.032,-4.856,-4.9721,-3.5581,-4.321,-2.1913,-3.8502,-0.6846,-3.1441,-2.4869,-2.0952,0.2758,-4.0147,-1.3732
-1.4681,-0.0589,-3.032,-4.856,-4.9721,-3.5581,-4.321,-2.1913,-3.8502,-0.6846,-3.1441,-2.4869,-2.0952,0.2758,-4.0147,-1.3732
-1.4681,-0.0589,-3.032,-4.856,-4.9721,-3.5581,-4.321,-2.1913,-3.8502,-0.6846,-3.1441,-2.4869,-2.0952,0.2758,-4.0147,-1.3732
-1.5798,-0.5172,-3.0255,-4.8881,-5.0125,-3.5759,-4.3808,-2.1868,-3.9371,-0.7051,-3.1513,-2.5025,-2.1565,0.2916,-4.0281,-1.3768
-1.5798,-0.5172,-3.0255,-4.8881,-5.0125,-3.5759,-4.3808,-2.1868,-3.9371,-0.7051,-3.1513,-2.5025,-2.1565,0.2916,-4.0281,-1.3768
-1.0046,-0.9354,-3.006,-4.9162,-5.0604,-3.5732,-4.4317,-2.2115,-3.7899,-0.808,-3.1224,-2.5442,-2.31,0.3605,-4.0553,-1.3822
-1.0046,-0.9354,-3.006,-4.9162,-5.0604,-3.5732,-4.4317,-2.2115,-3.7899,-0.808,-3.1224,-2.5442,-2.31,0.3605,-4.0553,-1.3822
-0.8625,-0.9322,-3.0387,-4.8919,-5.0691,-3.5701,-4.4446,-2.2255,-3.5646,-0.9131,-3.1301,-2.546,-2.3708,0.3761,-4.0671,-1.3855
-0.8625,-0.9322,-3.0387,-4.8919,-5.0691,-3.5701,-4.4446,-2.2255,-3.5646,-0.9131,-3.1301,-2.546,-2.3708,0.3761,-4.0671,-1.3855
-0.8625,-0.9322,-3.0387,-4.8919,-5.0691,-3.5701,-4.4446,-2.2255,-3.5646,-0.9131,-3.1301,-2.546,-2.3708,0.3761,-4.0671,-1.3855
-0.9148,-0.7522,-3.0765,-4.8488,-5.0811,-3.5623,-4.4543,-2.2331,-3.4513,-0.9658,-3.1461,-2.5358,-2.4113,0.3787,-4.0754,-1.3886
-0.9148,-0.7522,-3.0765,-4.8488,-5.0811,-3.5623,-4.4543,-2.2331,-3.4513,-0.9658,-3.1461,-2.5358,-2.4113,0.3787,-4.0754,-1.3886
-0.9731,-0.4575,-3.1026,-4.8225,-5.0898,-3.5593,-4.4607,-2.2457,-3.5436,-0.8696,-3.1544,-2.5239,-2.4517,0.3814,-4.0806,-1.3938
-1.1333,-0.1206,-3.1209,-4.8075,-5.0844,-3.5576,-4.4605,-2.2568,-3.7053,-0.7101,-3.1627,-2.512,-2.4775,0.3788,-4.0863,-1.3984
-1.1333,-0.1206,-3.1209,-4.8075,-5.0844,-3.5576,-4.4605,-2.2568,-3.7053,-0.7101,-3.1627,-2.512,-2.4775,0.3788,-4.0863,-1.3984
-1.0949,0.0371,-3.117,-4.8132,-5.0496,-3.5699,-4.462,-2.2655,-3.9013,-0.5376,-3.1668,-2.506,-2.496,0.3737,-4.0965,-1.4014
-1.0949,0.0371,-3.117,-4.8132,-5.0496,-3.5699,-4.462,-2.2655,-3.9013,-0.5376,-3.1668,-2.506,-2.496,0.3737,-4.0965,-1.4014
-1.0949,0.0371,-3.117,-4.8132,-5.0496,-3.5699,-4.462,-2.2655,-3.9013,-0.5376,-3.1668,-2.506,-2.496,0.3737,-4.0965,-1.4014
-1.1478,0.1134,-3.113,-4.8188,-5.0114,-3.5869,-4.4734,-2.2707,-4.014,-0.4849,-3.1787,-2.5018,-2.4972,0.3595,-4.115,-1.4001
-1.1478,0.1134,-3.113,-4.8188,-5.0114,-3.5869,-4.4734,-2.2707,-4.014,-0.4849,-3.1787,-2.5018,-2.4972,0.3595,-4.115,-1.4001
-1.1929,0.0717,-3.0908,-4.8395,-4.9984,-3.6058,-4.503,-2.2713,-4.1976,-0.5104,-3.1776,-2.5292,-2.5114,0.3326,-4.1388,-1.3987
-1.1929,0.0717,-3.0908,-4.8395,-4.9984,-3.6058,-4.503,-2.2713,-4.1976,-0.5104,-3.1776,-2.5292,-2.5114,0.3326,-4.1388,-1.3987
-1.1855,-0.0453,-3.0791,-4.8564,-5.0082,-3.6201,-4.5308,-2.2743,-4.3415,-0.6258,-3.1801,-2.5642,-2.5467,0.3046,-4.1671,-1.397
-1.1855,-0.0453,-3.0791,-4.8564,-5.0082,-3.6201,-4.5308,-2.2743,-4.3415,-0.6258,-3.1801,-2.5642,-2.5467,0.3046,-4.1671,-1.397
-1.1855,-0.0453,-3.0791,-4.8564,-5.0082,-3.6201,-4.5308,-2.2743,-4.3415,-0.6258,-3.1801,-2.5642,-2.5467,0.3046,-4.1671,-1.397
-1.3203,-0.1674,-3.0909,-4.8735,-5.0474,-3.6204,-4.5618,-2.278,-4.56,-0.7001,-3.1472,-2.6117,-2.5872,0.2842,-4.1927,-1.398
-1.2175,-0.3156,-3.1105,-4.8793,-5.1027,-3.5973,-4.5911,-2.2842,-4.5763,-0.7819,-3.0875,-2.6462,-2.6082,0.283,-4.2124,-1.4011
-1.2175,-0.3156,-3.1105,-4.8793,-5.1027,-3.5973,-4.5911,-2.2842,-4.5763,-0.7819,-3.0875,-2.6462,-2.6082,0.283,-4.2124,-1.4011
-0.9269,-0.4183,-3.1443,-4.8759,-5.1558,-3.5679,-4.6237,-2.2855,-4.5119,-0.8047,-3.0642,-2.641,-2.6233,0.297,-4.2302,-1.4045
-0.9269,-0.4183,-3.1443,-4.8759,-5.1558,-3.5679,-4.6237,-2.2855,-4.5119,-0.8047,-3.0642,-2.641,-2.6233,0.297,-4.2302,-1.4045
-0.2348,-0.6628,-3.1833,-4.8536,-5.1937,-3.551,-4.6513,-2.2886,-4.417,-0.8008,-3.093,-2.5995,-2.6339,0.3123,-4.2441,-1.4096
-0.2348,-0.6628,-3.1833,-4.8536,-5.1937,-3.551,-4.6513,-2.2886,-4.417,-0.8008,-3.093,-2.5995,-2.6339,0.3123,-4.2441,-1.4096
0.4264,-0.8406,-3.2054,-4.833,-5.211,-3.5449,-4.6823,-2.2868,-4.31,-0.8135,-3.142,-2.5418,-2.6392,0.3199,-4.2599,-1.4132
0.4264,-0.8406,-3.2054,-4.833,-5.211,-3.5449,-4.6823,-2.2868,-4.31,-0.8135,-3.142,-2.5418,-2.6392,0.3199,-4.2599,-1.4132
0.4264,-0.8406,-3.2054,-4.833,-5.211,-3.5449,-4.6823,-2.2868,-4.31,-0.8135,-3.142,-2.5418,-2.6392,0.3199,-4.2599,-1.4132
0.7382,-0.9508,-3.2404,-4.8164,-5.2152,-3.5576,-4.6983,-2.2957,-4.1811,-0.8215,-3.2035,-2.466,-2.6491,0.3263,-4.2753,-1.416
0.7382,-0.9508,-3.2404,-4.8164,-5.2152,-3.5576,-4.6983,-2.2957,-4.1811,-0.8215,-3.2035,-2.466,-2.6491,0.3263,-4.2753,-1.416
0.7382,-0.9508,-3.2404,-4.8164,-5.2152,-3.5576,-4.6983,-2.2957,-4.1811,-0.8215,-3.2035,-2.466,-2.6491,0.3263,-4.2753,-1.416
0.219,-0.5416,-3.2831,-4.8226,-5.2139,-3.597,-4.6877,-2.3323,-4.1172,-0.8063,-3.289,-2.3814,-2.6699,0.325,-4.3015,-1.4259
0.219,-0.5416,-3.2831,-4.8226,-5.2139,-3.597,-4.6877,-2.3323,-4.1172,-0.8063,-3.289,-2.3814,-2.6699,0.325,-4.3015,-1.4259
-0.5153,0.1821,-3.2817,-4.8358,-5.1891,-3.6234,-4.6842,-2.3481,-4.1288,-0.7896,-3.3044,-2.3851,-2.662,0.3135,-4.3142,-1.4314
-0.5153,0.1821,-3.2817,-4.8358,-5.1891,-3.6234,-4.6842,-2.3481,-4.1288,-0.7896,-3.3044,-2.3851,-2.662,0.3135,-4.3142,-1.4314
-1.2061,0.8472,-3.2946,-4.8397,-5.1729,-3.6468,-4.7002,-2.357,-4.1946,-0.7664,-3.3073,-2.4067,-2.637,0.2932,-4.3295,-1.4369
-1.2061,0.8472,-3.2946,-4.8397,-5.1729,-3.6468,-4.7002,-2.357,-4.1946,-0.7664,-3.3073,-2.4067,-2.637,0.2932,-4.3295,-1.4369
-1.7045,1.0233,-3.3126,-4.8588,-5.1879,-3.6626,-4.7439,-2.3524,-4.3024,-0.7535,-3.3255,-2.4319,-2.6041,0.2614,-4.3497,-1.4414
-1.7045,1.0233,-3.3126,-4.8588,-5.1879,-3.6626,-4.7439,-2.3524,-4.3024,-0.7535,-3.3255,-2.4319,-2.6041,0.2614,-4.3497,-1.4414
-1.7045,1.0233,-3.3126,-4.8588,-5.1879,-3.6626,-4.7439,-2.3524,-4.3024,-0.7535,-3.3255,-2.4319,-2.6041,0.2614,-4.3497,-1.4414
-1.9446,0.6281,-3.3536,-4.8781,-5.2384,-3.6834,-4.8183,-2.3407,-4.4306,-0.7459,-3.3554,-2.4529,-2.6072,0.2424,-4.3748,-1.4451
-1.9446,0.6281,-3.3536,-4.8781,-5.2384,-3.6834,-4.8183,-2.3407,-4.4306,-0.7459,-3.3554,-2.4529,-2.6072,0.2424,-4.3748,-1.4451
-1.9446,0.6281,-3.3536,-4.8781,-5.2384,-3.6834,-4.8183,-2.3407,-4.4306,-0.7459,-3.3554,-2.4529,-2.6072,0.2424,-4.3748,-1.4451
-2.6693,-0.2402,-3.3316,-4.9657,-5.3899,-3.6789,-4.9529,-2.3366,-4.5785,-0.7437,-3.3424,-2.4845,-2.698,0.2716,-4.4198,-1.4487
-2.6693,-0.2402,-3.3316,-4.9657,-5.3899,-3.6789,-4.9529,-2.3366,-4.5785,-0.7437,-3.3424,-2.4845,-2.698,0.2716,-4.4198,-1.4487
-2.9371,-0.62,-3.3111,-5.0065,-5.4483,-3.6687,-4.9927,-2.3369,-4.5785,-0.7437,-3.323,-2.4868,-2.7452,0.3084,-4.4296,-1.4483
-2.8425,-0.7564,-3.288,-5.0063,-5.4388,-3.6546,-4.9723,-2.3243,-4.417,-0.8008,-3.2841,-2.4916,-2.7626,0.3491,-4.4185,-1.4444
-2.8425,-0.7564,-3.288,-5.0063,-5.4388,-3.6546,-4.9723,-2.3243,-4.417,-0.8008,-3.2841,-2.4916,-2.7626,0.3491,-4.4185,-1.4444
-2.8425,-0.7564,-3.288,-5.0063,-5.4388,-3.6546,-4.9723,-2.3243,-4.417,-0.8008,-3.2841,-2.4916,-2.7626,0.3491,-4.4185,-1.4444
-2.8425,-0.7564,-3.288,-5.0063,-5.4388,-3.6546,-4.9723,-2.3243,-4.417,-0.8008,-3.2841,-2.4916,-2.7626,0.3491,-4.4185,-1.4444
-2.4524,-0.8429,-3.2854,-4.9653,-5.3944,-3.6353,-4.8849,-2.3081,-4.1466,-0.8713,-3.2302,-2.4791,-2.7423,0.3823,-4.3857,-1.437
-2.4524,-0.8429,-3.2854,-4.9653,-5.3944,-3.6353,-4.8849,-2.3081,-4.1466,-0.8713,-3.2302,-2.4791,-2.7423,0.3823,-4.3857,-1.437
-2.4524,-0.8429,-3.2854,-4.9653,-5.3944,-3.6353,-4.8849,-2.3081,-4.1466,-0.8713,-3.2302,-2.4791,-2.7423,0.3823,-4.3857,-1.437
-1.5122,-1.0195,-3.2507,-4.8468,-5.2451,-3.5895,-4.621,-2.2627,-3.8654,-0.8448,-3.1076,-2.4228,-2.5977,0.4096,-4.2656,-1.4225
-1.5122,-1.0195,-3.2507,-4.8468,-5.2451,-3.5895,-4.621,-2.2627,-3.8654,-0.8448,-3.1076,-2.4228,-2.5977,0.4096,-4.2656,-1.4225
-1.2849,-0.9424,-3.2185,-4.8029,-5.1666,-3.5712,-4.497,-2.2421,-3.8585,-0.7456,-3.0494,-2.4024,-2.5254,0.4161,-4.1993,-1.4163
-1.2849,-0.9424,-3.2185,-4.8029,-5.1666,-3.5712,-4.497,-2.2421,-3.8585,-0.7456,-3.0494,-2.4024,-2.5254,0.4161,-4.1993,-1.4163
-1.1486,-0.8311,-3.177,-4.7834,-5.1039,-3.5578,-4.4033,-2.2253,-3.9092,-0.5995,-3.0025,-2.3916,-2.4693,0.4226,-4.1517,-1.4117
-1.1486,-0.8311,-3.177,-4.7834,-5.1039,-3.5578,-4.4033,-2.2253,-3.9092,-0.5995,-3.0025,-2.3916,-2.4693,0.4226,-4.1517,-1.4117
-1.1486,-0.8311,-3.177,-4.7834,-5.1039,-3.5578,-4.4033,-2.2253,-3.9092,-0.5995,-3.0025,-2.3916,-2.4693,0.4226,-4.1517,-1.4117
-1.2067,-0.5401,-3.1445,-4.7735,-5.0311,-3.5586,-4.3389,-2.2091,-3.949,-0.4689,-2.9832,-2.3801,-2.427,0.4252,-4.1232,-1.406
-1.2067,-0.5401,-3.1445,-4.7735,-5.0311,-3.5586,-4.3389,-2.2091,-3.949,-0.4689,-2.9832,-2.3801,-2.427,0.4252,-4.1232,-1.406
-1.2175,-0.3156,-3.1249,-4.7676,-4.9393,-3.5768,-4.2942,-2.197,-3.9969,-0.3998,-2.979,-2.3862,-2.3837,0.4187,-4.1097,-1.3989
-1.2175,-0.3156,-3.1249,-4.7676,-4.9393,-3.5768,-4.2942,-2.197,-3.9969,-0.3998,-2.979,-2.3862,-2.3837,0.4187,-4.1097,-1.3989
-1.2238,-0.2015,-3.104,-4.775,-4.8812,-3.5938,-4.2693,-2.189,-4.0833,-0.4214,-2.9821,-2.4079,-2.3756,0.4071,-4.1088,-1.3914
-1.2238,-0.2015,-3.104,-4.775,-4.8812,-3.5938,-4.2693,-2.189,-4.0833,-0.4214,-2.9821,-2.4079,-2.3756,0.4071,-4.1088,-1.3914
-1.2238,-0.2015,-3.104,-4.775,-4.8812,-3.5938,-4.2693,-2.189,-4.0833,-0.4214,-2.9821,-2.4079,-2.3756,0.4071,-4.1088,-1.3914
-1.2627,-0.3552,-3.0817,-4.7957,-4.9108,-3.5797,-4.2627,-2.1876,-4.2452,-0.6217,-2.9272,-2.5002,-2.3928,0.3839,-4.1156,-1.3828
-1.2627,-0.3552,-3.0817,-4.7957,-4.9108,-3.5797,-4.2627,-2.1876,-4.2452,-0.6217,-2.9272,-2.5002,-2.3928,0.3839,-4.1156,-1.3828
-1.0192,-0.4965,-3.066,-4.8184,-4.9612,-3.5548,-4.2726,-2.1897,-4.1539,-0.7175,-2.8985,-2.5285,-2.3901,0.38,-4.1167,-1.3824
-1.0192,-0.4965,-3.066,-4.8184,-4.9612,-3.5548,-4.2726,-2.1897,-4.1539,-0.7175,-2.8985,-2.5285,-2.3901,0.38,-4.1167,-1.3824
-0.3814,-0.7769,-3.0752,-4.8279,-5.0104,-3.541,-4.2876,-2.1956,-4.1093,-0.746,-2.923,-2.5062,-2.3854,0.3813,-4.1183,-1.3827
-0.3814,-0.7769,-3.0752,-4.8279,-5.0104,-3.541,-4.2876,-2.1956,-4.1093,-0.746,-2.923,-2.5062,-2.3854,0.3813,-4.1183,-1.3827
-0.0824,-0.8826,-3.0817,-4.8299,-5.0442,-3.5398,-4.2874,-2.2068,-4.0664,-0.7357,-2.9763,-2.4556,-2.3835,0.3864,-4.1194,-1.3837
-0.0824,-0.8826,-3.0817,-4.8299,-5.0442,-3.5398,-4.2874,-2.2068,-4.0664,-0.7357,-2.9763,-2.4556,-2.3835,0.3864,-4.1194,-1.3837
-0.1855,-0.6244,-3.0817,-4.8299,-5.0659,-3.5463,-4.2705,-2.2203,-4.0585,-0.6749,-2.9972,-2.4254,-2.3769,0.3929,-4.1178,-1.3847
-0.1855,-0.6244,-3.0817,-4.8299,-5.0659,-3.5463,-4.2705,-2.2203,-4.0585,-0.6749,-2.9972,-2.4254,-2.3769,0.3929,-4.1178,-1.3847
-0.6041,-0.0208,-3.0921,-4.8262,-5.0876,-3.5529,-4.2553,-2.2312,-4.039,-0.6307,-3.0176,-2.4091,-2.3629,0.3967,-4.1147,-1.3853
-0.6041,-0.0208,-3.0921,-4.8262,-5.0876,-3.5529,-4.2553,-2.2312,-4.039,-0.6307,-3.0176,-2.4091,-2.3629,0.3967,-4.1147,-1.3853
-1.084,0.5617,-3.1026,-4.8225,-5.0952,-3.5609,-4.2485,-2.2354,-3.9743,-0.6151,-3.014,-2.4012,-2.3149,0.3915,-4.1094,-1.3841
-1.084,0.5617,-3.1026,-4.8225,-5.0952,-3.5609,-4.2485,-2.2354,-3.9743,-0.6151,-3.014,-2.4012,-2.3149,0.3915,-4.1094,-1.3841
-1.4765,1.1277,-3.0961,-4.8205,-5.0659,-3.5748,-4.2486,-2.2298,-3.9092,-0.5995,-2.9983,-2.3976,-2.2372,0.3758,-4.1025,-1.3826
-1.4765,1.1277,-3.0961,-4.8205,-5.0659,-3.5748,-4.2486,-2.2298,-3.9092,-0.5995,-2.9983,-2.3976,-2.2372,0.3758,-4.1025,-1.3826
-1.662,1.0696,-3.0987,-4.8281,-5.0495,-3.5984,-4.2722,-2.2178,-3.842,-0.6232,-2.9863,-2.4019,-2.176,0.36,-4.0961,-1.3805
-1.662,1.0696,-3.0987,-4.8281,-5.0495,-3.5984,-4.2722,-2.2178,-3.842,-0.6232,-2.9863,-2.4019,-2.176,0.36,-4.0961,-1.3805
-1.662,1.0696,-3.0987,-4.8281,-5.0495,-3.5984,-4.2722,-2.2178,-3.842,-0.6232,-2.9863,-2.4019,-2.176,0.36,-4.0961,-1.3805
-1.8484,0.5941,-3.1065,-4.851,-5.0637,-3.6253,-4.3141,-2.2011,-3.8638,-0.6284,-2.9538,-2.4225,-2.1511,0.3483,-4.0919,-1.3789
-1.8484,0.5941,-3.1065,-4.851,-5.0637,-3.6253,-4.3141,-2.2011,-3.8638,-0.6284,-2.9538,-2.4225,-2.1511,0.3483,-4.0919,-1.3789
-2.0183,-0.0882,-3.1066,-4.885,-5.1005,-3.6476,-4.3592,-2.1908,-3.929,-0.6439,-2.9491,-2.4424,-2.1827,0.3536,-4.0904,-1.3785
-2.0183,-0.0882,-3.1066,-4.885,-5.1005,-3.6476,-4.3592,-2.1908,-3.929,-0.6439,-2.9491,-2.4424,-2.1827,0.3536,-4.0904,-1.3785
-2.0183,-0.0882,-3.1066,-4.885,-5.1005,-3.6476,-4.3592,-2.1908,-3.929,-0.6439,-2.9491,-2.4424,-2.1827,0.3536,-4.0904,-1.3785
-2.2335,-0.8686,-3.0363,-4.9521,-5.1535,-3.6747,-4.4173,-2.1888,-4.0917,-0.6632,-2.9956,-2.4669,-2.3136,0.4057,-4.0961,-1.3791
-2.2335,-0.8686,-3.0363,-4.9521,-5.1535,-3.6747,-4.4173,-2.1888,-4.0917,-0.6632,-2.9956,-2.4669,-2.3136,0.4057,-4.0961,-1.3791
-2.1441,-0.9002,-2.9984,-4.9613,-5.1599,-3.6654,-4.4187,-2.1976,-4.0566,-0.7138,-3.043,-2.4638,-2.3786,0.4433,-4.1014,-1.3803
-2.1441,-0.9002,-2.9984,-4.9613,-5.1599,-3.6654,-4.4187,-2.1976,-4.0566,-0.7138,-3.043,-2.4638,-2.3786,0.4433,-4.1014,-1.3803
-1.9266,-0.8209,-3.0036,-4.9426,-5.1675,-3.6451,-4.4285,-2.2053,-3.8902,-0.7726,-3.0873,-2.4391,-2.4307,0.4706,-4.108,-1.3811
-1.6619,-0.7031,-3.0479,-4.9014,-5.1632,-3.6325,-4.4383,-2.2129,-3.5879,-0.8794,-3.1356,-2.4084,-2.4574,0.477,-4.1148,-1.3826
-1.6619,-0.7031,-3.0479,-4.9014,-5.1632,-3.6325,-4.4383,-2.2129,-3.5879,-0.8794,-3.1356,-2.4084,-2.4574,0.477,-4.1148,-1.3826
-1.6619,-0.7031,-3.0479,-4.9014,-5.1632,-3.6325,-4.4383,-2.2129,-3.5879,-0.8794,-3.1356,-2.4084,-2.4574,0.477,-4.1148,-1.3826
-1.342,-0.6553,-3.1,-4.849,-5.1611,-3.6262,-4.458,-2.2171,-3.3384,-0.9803,-3.1679,-2.3879,-2.4612,0.4666,-4.1224,-1.3843
-1.0608,-0.6462,-3.1626,-4.7928,-5.1643,-3.6216,-4.466,-2.2272,-3.3159,-0.9755,-3.1833,-2.3915,-2.467,0.4511,-4.1257,-1.3884
-1.0608,-0.6462,-3.1626,-4.7928,-5.1643,-3.6216,-4.466,-2.2272,-3.3159,-0.9755,-3.1833,-2.3915,-2.467,0.4511,-4.1257,-1.3884
-1.0608,-0.6462,-3.1626,-4.7928,-5.1643,-3.6216,-4.466,-2.2272,-3.3159,-0.9755,-3.1833,-2.3915,-2.467,0.4511,-4.1257,-1.3884
-0.8717,-0.6037,-3.2017,-4.7704,-5.1664,-3.6279,-4.4706,-2.2422,-3.4534,-0.8887,-3.1869,-2.3993,-2.4555,0.4265,-4.1282,-1.3937
-0.8717,-0.6037,-3.2017,-4.7704,-5.1664,-3.6279,-4.4706,-2.2422,-3.4534,-0.8887,-3.1869,-2.3993,-2.4555,0.4265,-4.1282,-1.3937
-0.9223,-0.5307,-3.2251,-4.7707,-5.1481,-3.6449,-4.4803,-2.2554,-3.7037,-0.7491,-3.1982,-2.409,-2.444,0.402,-4.135,-1.3979
-1.0241,-0.3839,-3.2471,-4.7843,-5.1179,-3.6697,-4.4931,-2.2692,-3.9211,-0.5824,-3.2137,-2.4126,-2.4306,0.3826,-4.146,-1.3997
-1.0241,-0.3839,-3.2471,-4.7843,-5.1179,-3.6697,-4.4931,-2.2692,-3.9211,-0.5824,-3.2137,-2.4126,-2.4306,0.3826,-4.146,-1.3997
-1.0241,-0.3839,-3.2471,-4.7843,-5.1179,-3.6697,-4.4931,-2.2692,-3.9211,-0.5824,-3.2137,-2.4126,-2.4306,0.3826,-4.146,-1.3997
-1.3137,-0.2816,-3.2754,-4.7998,-5.079,-3.6975,-4.5159,-2.2796,-4.1335,-0.4944,-3.2326,-2.424,-2.4364,0.3672,-4.164,-1.399
-1.3137,-0.2816,-3.2754,-4.7998,-5.079,-3.6975,-4.5159,-2.2796,-4.1335,-0.4944,-3.2326,-2.424,-2.4364,0.3672,-4.164,-1.399
-1.498,-0.3273,-3.2999,-4.8209,-5.0423,-3.7316,-4.5503,-2.284,-4.3087,-0.4583,-3.2516,-2.4354,-2.4714,0.3621,-4.1867,-1.3954
-1.498,-0.3273,-3.2999,-4.8209,-5.0423,-3.7316,-4.5503,-2.284,-4.3087,-0.4583,-3.2516,-2.4354,-2.4714,0.3621,-4.1867,-1.3954
-1.6733,-0.4842,-3.3345,-4.8383,-5.0489,-3.7503,-4.5895,-2.2866,-4.4772,-0.5015,-3.2859,-2.4504,-2.5228,0.357,-4.2096,-1.3925
-1.6733,-0.4842,-3.3345,-4.8383,-5.0489,-3.7503,-4.5895,-2.2866,-4.4772,-0.5015,-3.2859,-2.4504,-2.5228,0.357,-4.2096,-1.3925
-1.6733,-0.4842,-3.3345,-4.8383,-5.0489,-3.7503,-4.5895,-2.2866,-4.4772,-0.5015,-3.2859,-2.4504,-2.5228,0.357,-4.2096,-1.3925
-1.7168,-0.5229,-3.3396,-4.8535,-5.077,-3.7474,-4.6222,-2.2824,-4.6939,-0.5773,-3.3077,-2.4833,-2.6004,0.3582,-4.2356,-1.3903
-1.9021,-0.4574,-3.328,-4.8703,-5.1256,-3.7338,-4.6482,-2.2824,-4.8868,-0.6473,-3.2865,-2.5267,-2.6684,0.362,-4.2573,-1.3905
-1.9021,-0.4574,-3.3241,-4.8758,-5.1836,-3.7062,-4.6693,-2.284,-4.9853,-0.7119,-3.2346,-2.5629,-2.7253,0.3734,-4.2762,-1.3921
-1.9021,-0.4574,-3.3241,-4.8758,-5.1836,-3.7062,-4.6693,-2.284,-4.9853,-0.7119,-3.2346,-2.5629,-2.7253,0.3734,-4.2762,-1.3921
-1.9021,-0.4574,-3.3241,-4.8758,-5.1836,-3.7062,-4.6693,-2.284,-4.9853,-0.7119,-3.2346,-2.5629,-2.7253,0.3734,-4.2762,-1.3921
-1.4415,-0.5117,-3.3099,-4.8851,-5.2459,-3.6632,-4.6855,-2.2875,-4.9424,-0.7395,-3.1914,-2.5737,-2.7396,0.3785,-4.2862,-1.3977
-1.4415,-0.5117,-3.3099,-4.8851,-5.2459,-3.6632,-4.6855,-2.2875,-4.9424,-0.7395,-3.1914,-2.5737,-2.7396,0.3785,-4.2862,-1.3977
-0.6241,-0.8549,-3.306,-4.8907,-5.2867,-3.6417,-4.7081,-2.2923,-4.7954,-0.779,-3.1925,-2.5464,-2.7442,0.3772,-4.2956,-1.4019
-0.6241,-0.8549,-3.306,-4.8907,-5.2867,-3.6417,-4.7081,-2.2923,-4.7954,-0.779,-3.1925,-2.5464,-2.7442,0.3772,-4.2956,-1.4019
-0.6241,-0.8549,-3.306,-4.8907,-5.2867,-3.6417,-4.7081,-2.2923,-4.7954,-0.779,-3.1925,-2.5464,-2.7442,0.3772,-4.2956,-1.4019
0.2182,-1.2065,-3.3163,-4.887,-5.3177,-3.6343,-4.7225,-2.2981,-4.6382,-0.7973,-3.2338,-2.4868,-2.7396,0.3785,-4.3014,-1.4072
0.2182,-1.2065,-3.3163,-4.887,-5.3177,-3.6343,-4.7225,-2.2981,-4.6382,-0.7973,-3.2338,-2.4868,-2.7396,0.3785,-4.3014,-1.4072
0.6244,-1.3501,-3.3266,-4.8834,-5.3305,-3.6438,-4.7255,-2.3098,-4.4568,-0.849,-3.2913,-2.4169,-2.7396,0.3785,-4.3073,-1.4125
0.6244,-1.3501,-3.3266,-4.8834,-5.3305,-3.6438,-4.7255,-2.3098,-4.4568,-0.849,-3.2913,-2.4169,-2.7396,0.3785,-4.3073,-1.4125
0.6244,-1.3501,-3.3266,-4.8834,-5.3305,-3.6438,-4.7255,-2.3098,-4.4568,-0.849,-3.2913,-2.4169,-2.7396,0.3785,-4.3073,-1.4125
0.2195,-1.0986,-3.3575,-4.8725,-5.3527,-3.6675,-4.7168,-2.3384,-4.2641,-0.8798,-3.39,-2.3003,-2.7604,0.3772,-4.3254,-1.4227
0.2195,-1.0986,-3.3575,-4.8725,-5.3527,-3.6675,-4.7168,-2.3384,-4.2641,-0.8798,-3.39,-2.3003,-2.7604,0.3772,-4.3254,-1.4227
-0.1321,-0.9198,-3.3845,-4.8672,-5.3623,-3.6816,-4.7132,-2.3542,-4.2967,-0.8683,-3.438,-2.2697,-2.7766,0.3771,-4.3401,-1.4266
-0.6293,-0.6343,-3.4075,-4.8675,-5.3803,-3.6927,-4.721,-2.3642,-4.3292,-0.8568,-3.454,-2.2595,-2.7973,0.3758,-4.3565,-1.4304
-0.6293,-0.6343,-3.4075,-4.8675,-5.3803,-3.6927,-4.721,-2.3642,-4.3292,-0.8568,-3.454,-2.2595,-2.7973,0.3758,-4.3565,-1.4304
-0.6293,-0.6343,-3.4075,-4.8675,-5.3803,-3.6927,-4.721,-2.3642,-4.3292,-0.8568,-3.454,-2.2595,-2.7973,0.3758,-4.3565,-1.4304
-0.9781,-0.3444,-3.4203,-4.8714,-5.3898,-3.7068,-4.7305,-2.3771,-4.3712,-0.8668,-3.4692,-2.2632,-2.827,0.3718,-4.3771,-1.4344
-0.9781,-0.3444,-3.4203,-4.8714,-5.3898,-3.7068,-4.7305,-2.3771,-4.3712,-0.8668,-3.4692,-2.2632,-2.827,0.3718,-4.3771,-1.4344
-0.9781,-0.3444,-3.4203,-4.8714,-5.3898,-3.7068,-4.7305,-2.3771,-4.3712,-0.8668,-3.4692,-2.2632,-2.827,0.3718,-4.3771,-1.4344
-1.4848,0.1748,-3.4433,-4.8717,-5.4025,-3.7163,-4.7562,-2.3826,-4.4473,-0.8275,-3.4483,-2.2934,-2.8379,0.3641,-4.3977,-1.4371
-1.8606,0.7167,-3.456,-4.8756,-5.4131,-3.7195,-4.7916,-2.3845,-4.5025,-0.783,-3.435,-2.3253,-2.8416,0.3539,-4.4194,-1.4394
-1.8606,0.7167,-3.456,-4.8756,-5.4131,-3.7195,-4.7916,-2.3845,-4.5025,-0.783,-3.435,-2.3253,-2.8416,0.3539,-4.4194,-1.4394
-2.1929,1.1959,-3.4789,-4.8759,-5.4236,-3.7227,-4.8447,-2.3766,-4.537,-0.7333,-3.4183,-2.3493,-2.8239,0.3362,-4.4412,-1.4403
-2.1929,1.1959,-3.4789,-4.8759,-5.4236,-3.7227,-4.8447,-2.3766,-4.537,-0.7333,-3.4183,-2.3493,-2.8239,0.3362,-4.4412,-1.4403
-2.096,1.1616,-3.5057,-4.8707,-5.4257,-3.7289,-4.9091,-2.3629,-4.5808,-0.7054,-3.4252,-2.365,-2.7892,0.3096,-4.464,-1.4409
-2.096,1.1616,-3.5057,-4.8707,-5.4257,-3.7289,-4.9091,-2.3629,-4.5808,-0.7054,-3.4252,-2.365,-2.7892,0.3096,-4.464,-1.4409
-1.9703,0.8749,-3.5247,-4.8765,-5.4384,-3.7383,-4.9732,-2.3492,-4.5485,-0.7167,-3.4405,-2.3687,-2.7572,0.2868,-4.4846,-1.4423
-1.9703,0.8749,-3.5247,-4.8765,-5.4384,-3.7383,-4.9732,-2.3492,-4.5485,-0.7167,-3.4405,-2.3687,-2.7572,0.2868,-4.4846,-1.4423
-1.8261,0.353,-3.5423,-4.8955,-5.4616,-3.751,-5.042,-2.334,-4.59,-0.7271,-3.4792,-2.3641,-2.7629,0.2716,-4.5057,-1.4452
-1.9251,-0.1211,-3.5358,-4.9271,-5.4921,-3.7713,-5.1039,-2.3283,-4.6198,-0.7541,-3.4826,-2.3719,-2.79,0.2639,-4.5265,-1.4486
-1.9251,-0.1211,-3.5358,-4.9271,-5.4921,-3.7713,-5.1039,-2.3283,-4.6198,-0.7541,-3.4826,-2.3719,-2.79,0.2639,-4.5265,-1.4486
-1.9251,-0.1211,-3.5358,-4.9271,-5.4921,-3.7713,-5.1039,-2.3283,-4.6198,-0.7541,-3.4826,-2.3719,-2.79,0.2639,-4.5265,-1.4486
-1.8955,-0.5672,-3.5191,-4.9622,-5.5393,-3.7857,-5.1525,-2.3363,-4.629,-0.7757,-3.4667,-2.382,-2.8488,0.279,-4.5472,-1.4534
-1.8955,-0.5672,-3.5191,-4.9622,-5.5393,-3.7857,-5.1525,-2.3363,-4.629,-0.7757,-3.4667,-2.382,-2.8488,0.279,-4.5472,-1.4534
-1.8955,-0.5672,-3.5191,-4.9622,-5.5393,-3.7857,-5.1525,-2.3363,-4.629,-0.7757,-3.4667,-2.382,-2.8488,0.279,-4.5472,-1.4534
-1.4232,-0.9463,-3.5076,-4.9788,-5.5739,-3.7907,-5.1988,-2.363,-4.3789,-0.9262,-3.4384,-2.41,-2.9863,0.3305,-4.5866,-1.4631
-1.4232,-0.9463,-3.5076,-4.9788,-5.5739,-3.7907,-5.1988,-2.363,-4.3789,-0.9262,-3.4384,-2.41,-2.9863,0.3305,-4.5866,-1.4631
-1.2884,-0.8351,-3.561,-4.9349,-5.5823,-3.7878,-5.2188,-2.3756,-4.259,-0.9933,-3.4619,-2.4018,-3.0439,0.3365,-4.6061,-1.4683
-1.2884,-0.8351,-3.561,-4.9349,-5.5823,-3.7878,-5.2188,-2.3756,-4.259,-0.9933,-3.4619,-2.4018,-3.0439,0.3365,-4.6061,-1.4683
-1.2884,-0.8351,-3.561,-4.9349,-5.5823,-3.7878,-5.2188,-2.3756,-4.259,-0.9933,-3.4619,-2.4018,-3.0439,0.3365,-4.6061,-1.4683
-1.297,-0.6171,-3.6246,-4.8873,-5.6042,-3.7835,-5.2402,-2.3912,-4.2801,-0.9982,-3.466,-2.3958,-3.0845,0.3337,-4.6214,-1.4745
-1.297,-0.6171,-3.6246,-4.8873,-5.6042,-3.7835,-5.2402,-2.3912,-4.2801,-0.9982,-3.466,-2.3958,-3.0845,0.3337,-4.6214,-1.4745
-1.297,-0.6171,-3.6246,-4.8873,-5.6042,-3.7835,-5.2402,-2.3912,-4.2801,-0.9982,-3.466,-2.3958,-3.0845,0.3337,-4.6214,-1.4745
-1.5488,-0.2541,-3.6867,-4.8528,-5.621,-3.7775,-5.2617,-2.4015,-4.3884,-0.9476,-3.486,-2.3797,-3.1137,0.3298,-4.6312,-1.48
-1.7543,0.0422,-3.7132,-4.8477,-5.6242,-3.773,-5.2648,-2.4021,-4.5192,-0.8642,-3.4943,-2.3677,-3.1269,0.3259,-4.6259,-1.4828
-1.8685,0.3104,-3.7132,-4.8477,-5.6012,-3.7604,-5.2135,-2.3935,-4.6749,-0.7097,-3.4681,-2.3544,-3.1119,0.3348,-4.5985,-1.4804
-1.8685,0.3104,-3.7132,-4.8477,-5.6012,-3.7604,-5.2135,-2.3935,-4.6749,-0.7097,-3.4681,-2.3544,-3.1119,0.3348,-4.5985,-1.4804
-1.8685,0.3104,-3.7132,-4.8477,-5.6012,-3.7604,-5.2135,-2.3935,-4.6749,-0.7097,-3.4681,-2.3544,-3.1119,0.3348,-4.5985,-1.4804
-1.8261,0.353,-3.6805,-4.8509,-5.5237,-3.7532,-5.1215,-2.3706,-4.7814,-0.5211,-3.4114,-2.3336,-3.0395,0.3378,-4.5441,-1.4738
-1.8261,0.353,-3.6805,-4.8509,-5.5237,-3.7532,-5.1215,-2.3706,-4.7814,-0.5211,-3.4114,-2.3336,-3.0395,0.3378,-4.5441,-1.4738
-1.6874,0.3619,-3.6124,-4.8497,-5.3939,-3.7471,-4.9942,-2.34,-4.8017,-0.3868,-3.3426,-2.317,-2.9444,0.3472,-4.4881,-1.4557
-1.6874,0.3619,-3.6124,-4.8497,-5.3939,-3.7471,-4.9942,-2.34,-4.8017,-0.3868,-3.3426,-2.317,-2.9444,0.3472,-4.4881,-1.4557
-1.5909,0.3278,-3.5377,-4.8467,-5.2566,-3.7504,-4.8625,-2.3087,-4.8252,-0.3529,-3.2728,-2.3143,-2.8408,0.345,-4.4315,-1.4394
-1.5909,0.3278,-3.5377,-4.8467,-5.2566,-3.7504,-4.8625,-2.3087,-4.8252,-0.3529,-3.2728,-2.3143,-2.8408,0.345,-4.4315,-1.4394
-1.5286,0.133,-3.4446,-4.8586,-5.174,-3.7481,-4.7488,-2.2815,-4.8717,-0.4258,-3.2133,-2.3354,-2.7682,0.3338,-4.3869,-1.424
-1.5286,0.133,-3.4446,-4.8586,-5.174,-3.7481,-4.7488,-2.2815,-4.8717,-0.4258,-3.2133,-2.3354,-2.7682,0.3338,-4.3869,-1.424
-1.5639,-0.025,-3.3678,-4.8688,-5.1546,-3.72,-4.6486,-2.2657,-4.9674,-0.5311,-3.1488,-2.3764,-2.7278,0.3224,-4.3546,-1.4119
-1.5639,-0.025,-3.3678,-4.8688,-5.1546,-3.72,-4.6486,-2.2657,-4.9674,-0.5311,-3.1488,-2.3764,-2.7278,0.3224,-4.3546,-1.4119
-1.5048,-0.2141,-3.3486,-4.863,-5.1664,-3.6842,-4.5936,-2.2485,-4.9819,-0.6137,-3.0609,-2.412,-2.7025,0.325,-4.3295,-1.4042
-1.5048,-0.2141,-3.3486,-4.863,-5.1664,-3.6842,-4.5936,-2.2485,-4.9819,-0.6137,-3.0609,-2.412,-2.7025,0.325,-4.3295,-1.4042
-1.2118,-0.4284,-3.3318,-4.8647,-5.2074,-3.6346,-4.5577,-2.2409,-4.8842,-0.6856,-3.0134,-2.4151,-2.6878,0.3428,-4.3097,-1.4004
-1.2118,-0.4284,-3.3318,-4.8647,-5.2074,-3.6346,-4.5577,-2.2409,-4.8842,-0.6856,-3.0134,-2.4151,-2.6878,0.3428,-4.3097,-1.4004
-0.7745,-0.638,-3.3435,-4.8479,-5.2472,-3.5958,-4.5431,-2.235,-4.7365,-0.7253,-2.9742,-2.4061,-2.6684,0.362,-4.2942,-1.3989
-0.7745,-0.638,-3.3435,-4.8479,-5.2472,-3.5958,-4.5431,-2.235,-4.7365,-0.7253,-2.9742,-2.4061,-2.6684,0.362,-4.2942,-1.3989
-0.1321,-0.9198,-3.3552,-4.831,-5.2763,-3.582,-4.5366,-2.2336,-4.5992,-0.7489,-3.0036,-2.3637,-2.651,0.3761,-4.2832,-1.3984
-0.1321,-0.9198,-3.3552,-4.831,-5.2763,-3.582,-4.5366,-2.2336,-4.5992,-0.7489,-3.0036,-2.3637,-2.651,0.3761,-4.2832,-1.3984
0.3725,-1.0981,-3.3629,-4.8198,-5.2719,-3.5977,-4.5234,-2.2364,-4.44,-0.7676,-3.0458,-2.3029,-2.6399,0.3838,-4.2752,-1.3986
0.3725,-1.0981,-3.3629,-4.8198,-5.2719,-3.5977,-4.5234,-2.2364,-4.44,-0.7676,-3.0458,-2.3029,-2.6399,0.3838,-4.2752,-1.3986
0.3725,-1.0981,-3.3629,-4.8198,-5.2719,-3.5977,-4.5234,-2.2364,-4.44,-0.7676,-3.0458,-2.3029,-2.6399,0.3838,-4.2752,-1.3986
0.3233,-0.8042,-3.3707,-4.8086,-5.2589,-3.6163,-4.4852,-2.2536,-4.3866,-0.774,-3.103,-2.2597,-2.6327,0.3813,-4.2679,-1.4016
0.3233,-0.8042,-3.3707,-4.8086,-5.2589,-3.6163,-4.4852,-2.2536,-4.3866,-0.774,-3.103,-2.2597,-2.6327,0.3813,-4.2679,-1.4016
0.3233,-0.8042,-3.3707,-4.8086,-5.2589,-3.6163,-4.4852,-2.2536,-4.3866,-0.774,-3.103,-2.2597,-2.6327,0.3813,-4.2679,-1.4016
0.3233,-0.8042,-3.3707,-4.8086,-5.2589,-3.6163,-4.4852,-2.2536,-4.3866,-0.774,-3.103,-2.2597,-2.6327,0.3813,-4.2679,-1.4016
-0.8047,0.0501,-3.4091,-4.8204,-5.2191,-3.6832,-4.4965,-2.2644,-4.3771,-0.7522,-3.1906,-2.238,-2.5542,0.3391,-4.2658,-1.4058
-0.8047,0.0501,-3.4091,-4.8204,-5.2191,-3.6832,-4.4965,-2.2644,-4.3771,-0.7522,-3.1906,-2.238,-2.5542,0.3391,-4.2658,-1.4058
-1.7376,-0.1874,-3.4471,-4.8661,-5.2897,-3.7212,-4.5922,-2.2342,-4.5578,-0.7385,-3.2714,-2.2645,-2.5349,0.3033,-4.275,-1.4039
-1.7376,-0.1874,-3.4471,-4.8661,-5.2897,-3.7212,-4.5922,-2.2342,-4.5578,-0.7385,-3.2714,-2.2645,-2.5349,0.3033,-4.275,-1.4039
-2.2114,-0.509,-3.4533,-4.9018,-5.3526,-3.7234,-4.6333,-2.2234,-4.6428,-0.721,-3.2588,-2.2827,-2.5612,0.3097,-4.2759,-1.4014
-2.2114,-0.509,-3.4533,-4.9018,-5.3526,-3.7234,-4.6333,-2.2234,-4.6428,-0.721,-3.2588,-2.2827,-2.5612,0.3097,-4.2759,-1.4014
-2.5879,-0.7434,-3.4404,-4.9315,-5.394,-3.7193,-4.6595,-2.2178,-4.7299,-0.6652,-3.2188,-2.3014,-2.5863,0.3301,-4.2722,-1.3992
-2.5879,-0.7434,-3.4404,-4.9315,-5.394,-3.7193,-4.6595,-2.2178,-4.7299,-0.6652,-3.2188,-2.3014,-2.5863,0.3301,-4.2722,-1.3992
-2.5879,-0.7434,-3.4404,-4.9315,-5.394,-3.7193,-4.6595,-2.2178,-4.7299,-0.6652,-3.2188,-2.3014,-2.5863,0.3301,-4.2722,-1.3992
-2.8352,-0.8611,-3.402,-4.9534,-5.4311,-3.7026,-4.666,-2.2192,-4.7209,-0.6433,-3.1752,-2.3123,-2.6122,0.3595,-4.2665,-1.3973
-2.8352,-0.8611,-3.402,-4.9534,-5.4311,-3.7026,-4.666,-2.2192,-4.7209,-0.6433,-3.1752,-2.3123,-2.6122,0.3595,-4.2665,-1.3973
-2.8352,-0.8611,-3.402,-4.9534,-5.4311,-3.7026,-4.666,-2.2192,-4.7209,-0.6433,-3.1752,-2.3123,-2.6122,0.3595,-4.2665,-1.3973
-2.882,-0.7936,-3.3649,-4.9623,-5.4355,-3.6872,-4.6561,-2.2227,-4.5508,-0.6783,-3.1435,-2.3189,-2.6388,0.398,-4.2601,-1.3965
-2.882,-0.7936,-3.3649,-4.9623,-5.4355,-3.6872,-4.6561,-2.2227,-4.5508,-0.6783,-3.1435,-2.3189,-2.6388,0.398,-4.2601,-1.3965
-1.9748,-0.7514,-3.3804,-4.9065,-5.3888,-3.6897,-4.615,-2.2391,-3.8639,-0.8832,-3.0998,-2.3297,-2.6674,0.4313,-4.2544,-1.3972
-1.9748,-0.7514,-3.3804,-4.9065,-5.3888,-3.6897,-4.615,-2.2391,-3.8639,-0.8832,-3.0998,-2.3297,-2.6674,0.4313,-4.2544,-1.3972
-1.9748,-0.7514,-3.3804,-4.9065,-5.3888,-3.6897,-4.615,-2.2391,-3.8639,-0.8832,-3.0998,-2.3297,-2.6674,0.4313,-4.2544,-1.3972
-1.9748,-0.7514,-3.3804,-4.9065,-5.3888,-3.6897,-4.615,-2.2391,-3.8639,-0.8832,-3.0998,-2.3297,-2.6674,0.4313,-4.2544,-1.3972
-1.4759,-0.7689,-3.4036,-4.873,-5.3601,-3.7034,-4.6017,-2.2474,-3.5508,-1.0064,-3.0878,-2.334,-2.6693,0.4262,-4.2559,-1.3976
-1.4759,-0.7689,-3.4036,-4.873,-5.3601,-3.7034,-4.6017,-2.2474,-3.5508,-1.0064,-3.0878,-2.334,-2.6693,0.4262,-4.2559,-1.3976
-1.4759,-0.7689,-3.4036,-4.873,-5.3601,-3.7034,-4.6017,-2.2474,-3.5508,-1.0064,-3.0878,-2.334,-2.6693,0.4262,-4.2559,-1.3976
-0.8651,-0.8238,-3.4912,-4.7914,-5.3419,-3.7202,-4.5964,-2.2658,-3.6076,-0.9611,-3.1124,-2.3115,-2.6761,0.3966,-4.2553,-1.4034
-0.8682,-0.7143,-3.5117,-4.7842,-5.327,-3.7325,-4.611,-2.2717,-3.8802,-0.7507,-3.1287,-2.3012,-2.6817,0.3812,-4.2586,-1.4062
-0.8682,-0.7143,-3.5117,-4.7842,-5.327,-3.7325,-4.611,-2.2717,-3.8802,-0.7507,-3.1287,-2.3012,-2.6817,0.3812,-4.2586,-1.4062
-0.9731,-0.4575,-3.5243,-4.7882,-5.295,-3.7507,-4.6338,-2.271,-4.1387,-0.5955,-3.1646,-2.2885,-2.6946,0.3684,-4.2712,-1.4057
-0.9731,-0.4575,-3.5243,-4.7882,-5.295,-3.7507,-4.6338,-2.271,-4.1387,-0.5955,-3.1646,-2.2885,-2.6946,0.3684,-4.2712,-1.4057
-0.9731,-0.4575,-3.5243,-4.7882,-5.295,-3.7507,-4.6338,-2.271,-4.1387,-0.5955,-3.1646,-2.2885,-2.6946,0.3684,-4.2712,-1.4057
-1.0241,-0.3839,-3.5331,-4.7978,-5.2801,-3.763,-4.668,-2.2699,-4.4118,-0.5246,-3.1837,-2.3001,-2.7237,0.3555,-4.2902,-1.4033
-1.0241,-0.3839,-3.5331,-4.7978,-5.2801,-3.763,-4.668,-2.2699,-4.4118,-0.5246,-3.1837,-2.3001,-2.7237,0.3555,-4.2902,-1.4033
-1.07,-0.4232,-3.5405,-4.8205,-5.2961,-3.7678,-4.7053,-2.275,-4.6112,-0.5559,-3.1584,-2.3365,-2.7546,0.3376,-4.3122,-1.4016
-1.07,-0.4232,-3.5405,-4.8205,-5.2961,-3.7678,-4.7053,-2.275,-4.6112,-0.5559,-3.1584,-2.3365,-2.7546,0.3376,-4.3122,-1.4016
-1.07,-0.4232,-3.5405,-4.8205,-5.2961,-3.7678,-4.7053,-2.275,-4.6112,-0.5559,-3.1584,-2.3365,-2.7546,0.3376,-4.3122,-1.4016
-0.825,-0.5651,-3.5416,-4.8412,-5.3334,-3.7511,-4.7392,-2.2795,-4.6385,-0.6221,-3.1375,-2.3667,-2.7818,0.3299,-4.3304,-1.4031
-0.825,-0.5651,-3.5416,-4.8412,-5.3334,-3.7511,-4.7392,-2.2795,-4.6385,-0.6221,-3.1375,-2.3667,-2.7818,0.3299,-4.3304,-1.4031
-0.825,-0.5651,-3.5416,-4.8412,-5.3334,-3.7511,-4.7392,-2.2795,-4.6385,-0.6221,-3.1375,-2.3667,-2.7818,0.3299,-4.3304,-1.4031
-0.2318,-0.8846,-3.5679,-4.8697,-5.4194,-3.7381,-4.8,-2.2981,-4.6038,-0.6721,-3.183,-2.3141,-2.8051,0.3324,-4.3597,-1.4071
-0.2318,-0.8846,-3.5679,-4.8697,-5.4194,-3.7381,-4.8,-2.2981,-4.6038,-0.6721,-3.183,-2.3141,-2.8051,0.3324,-4.3597,-1.4071
-0.4376,-0.4793,-3.5742,-4.8716,-5.4521,-3.737,-4.8094,-2.3112,-4.6269,-0.6388,-3.2314,-2.2832,-2.8122,0.3349,-4.372,-1.4106
-0.4376,-0.4793,-3.5742,-4.8716,-5.4521,-3.737,-4.8094,-2.3112,-4.6269,-0.6388,-3.2314,-2.2832,-2.8122,0.3349,-4.372,-1.4106
-0.8391,-0.2246,-3.5931,-4.8775,-5.4837,-3.7466,-4.835,-2.3166,-4.5971,-0.6115,-3.216,-2.2795,-2.7648,0.321,-4.3835,-1.4139
-0.8391,-0.2246,-3.5931,-4.8775,-5.4837,-3.7466,-4.835,-2.3166,-4.5971,-0.6115,-3.216,-2.2795,-2.7648,0.321,-4.3835,-1.4139
-0.8391,-0.2246,-3.5931,-4.8775,-5.4837,-3.7466,-4.835,-2.3166,-4.5971,-0.6115,-3.216,-2.2795,-2.7648,0.321,-4.3835,-1.4139
-1.3137,-0.2816,-3.6068,-4.902,-5.5162,-3.7732,-4.888,-2.3142,-4.6178,-0.6168,-3.2195,-2.2875,-2.7621,0.3172,-4.3962,-1.4168
-1.3137,-0.2816,-3.6068,-4.902,-5.5162,-3.7732,-4.888,-2.3142,-4.6178,-0.6168,-3.2195,-2.2875,-2.7621,0.3172,-4.3962,-1.4168
-1.3137,-0.2816,-3.6068,-4.902,-5.5162,-3.7732,-4.888,-2.3142,-4.6178,-0.6168,-3.2195,-2.2875,-2.7621,0.3172,-4.3962,-1.4168
-1.6733,-0.4842,-3.6079,-4.9225,-5.5634,-3.7875,-4.9647,-2.3143,-4.4746,-0.7178,-3.2588,-2.2827,-2.8307,0.3616,-4.4239,-1.4204
-1.6733,-0.4842,-3.6079,-4.9225,-5.5634,-3.7875,-4.9647,-2.3143,-4.4746,-0.7178,-3.2588,-2.2827,-2.8307,0.3616,-4.4239,-1.4204
-1.5301,-0.5888,-3.6473,-4.8877,-5.5739,-3.7907,-4.9996,-2.3164,-4.2889,-0.8085,-3.2868,-2.2683,-2.8638,0.3704,-4.4378,-1.4216
-1.5301,-0.5888,-3.6473,-4.8877,-5.5739,-3.7907,-4.9996,-2.3164,-4.2889,-0.8085,-3.2868,-2.2683,-2.8638,0.3704,-4.4378,-1.4216
-1.4806,-0.6602,-3.7007,-4.8437,-5.5759,-3.7969,-5.0217,-2.3213,-4.2236,-0.8315,-3.3029,-2.258,-2.8844,0.3691,-4.4455,-1.4254
-1.4806,-0.6602,-3.7007,-4.8437,-5.5759,-3.7969,-5.0217,-2.3213,-4.2236,-0.8315,-3.3029,-2.258,-2.8844,0.3691,-4.4455,-1.4254
-1.342,-0.6553,-3.7185,-4.829,-5.5644,-3.8044,-5.0342,-2.3295,-4.2793,-0.7868,-3.3302,-2.2575,-2.8997,0.3601,-4.4513,-1.4307
-1.342,-0.6553,-3.7185,-4.829,-5.5644,-3.8044,-5.0342,-2.3295,-4.2793,-0.7868,-3.3302,-2.2575,-2.8997,0.3601,-4.4513,-1.4307
-1.3916,-0.5837,-3.7449,-4.8239,-5.5213,-3.83,-5.0481,-2.3408,-4.4118,-0.7022,-3.3574,-2.2571,-2.9052,0.3448,-4.4628,-1.434
-1.5301,-0.5888,-3.766,-4.8374,-5.4982,-3.845,-5.0749,-2.3439,-4.6451,-0.6826,-3.3873,-2.2785,-2.9402,0.3256,-4.4853,-1.4338
-1.5301,-0.5888,-3.766,-4.8374,-5.4982,-3.845,-5.0749,-2.3439,-4.6451,-0.6826,-3.3873,-2.2785,-2.9402,0.3256,-4.4853,-1.4338
-1.5301,-0.5888,-3.766,-4.8374,-5.4982,-3.845,-5.0749,-2.3439,-4.6451,-0.6826,-3.3873,-2.2785,-2.9402,0.3256,-4.4853,-1.4338
-1.6181,-0.6652,-3.7732,-4.8599,-5.5118,-3.8436,-5.1065,-2.3454,-4.9247,-0.6961,-3.3927,-2.3221,-2.9918,0.3152,-4.5095,-1.4348
-1.6181,-0.6652,-3.7732,-4.8599,-5.5118,-3.8436,-5.1065,-2.3454,-4.9247,-0.6961,-3.3927,-2.3221,-2.9918,0.3152,-4.5095,-1.4348
-1.6181,-0.6652,-3.778,-4.8749,-5.5549,-3.8181,-5.1332,-2.3485,-5.0883,-0.7003,-3.3795,-2.354,-3.0326,0.3125,-4.5319,-1.4359
-1.6181,-0.6652,-3.778,-4.8749,-5.5549,-3.8181,-5.1332,-2.3485,-5.0883,-0.7003,-3.3795,-2.354,-3.0326,0.3125,-4.5319,-1.4359
-1.6181,-0.6652,-3.778,-4.8749,-5.5549,-3.8181,-5.1332,-2.3485,-5.0883,-0.7003,-3.3795,-2.354,-3.0326,0.3125,-4.5319,-1.4359
-1.0075,-0.8273,-3.7665,-4.8915,-5.6063,-3.7896,-5.1551,-2.3533,-5.0657,-0.733,-3.3837,-2.348,-3.0529,0.3111,-4.5501,-1.4381
-1.0075,-0.8273,-3.7665,-4.8915,-5.6063,-3.7896,-5.1551,-2.3533,-5.0657,-0.733,-3.3837,-2.348,-3.0529,0.3111,-4.5501,-1.4381
-1.0075,-0.8273,-3.7665,-4.8915,-5.6063,-3.7896,-5.1551,-2.3533,-5.0657,-0.733,-3.3837,-2.348,-3.0529,0.3111,-4.5501,-1.4381
-0.4803,-0.742,-3.7828,-4.8899,-5.6606,-3.7842,-5.151,-2.3852,-4.8857,-0.8212,-3.4524,-2.2873,-3.0821,0.3072,-4.5784,-1.4454
-0.4803,-0.742,-3.7828,-4.8899,-5.6606,-3.7842,-5.151,-2.3852,-4.8857,-0.8212,-3.4524,-2.2873,-3.0821,0.3072,-4.5784,-1.4454
-0.4803,-0.742,-3.7828,-4.8899,-5.6606,-3.7842,-5.151,-2.3852,-4.8857,-0.8212,-3.4524,-2.2873,-3.0821,0.3072,-4.5784,-1.4454
-0.8913,-0.1493,-3.8028,-4.8828,-5.6782,-3.7951,-5.1569,-2.3975,-4.9197,-0.7722,-3.4961,-2.2628,-3.0813,0.2984,-4.5943,-1.4484
-0.8913,-0.1493,-3.8028,-4.8828,-5.6782,-3.7951,-5.1569,-2.3975,-4.9197,-0.7722,-3.4961,-2.2628,-3.0813,0.2984,-4.5943,-1.4484
-1.698,0.4823,-3.8477,-4.8836,-5.6987,-3.829,-5.2387,-2.3882,-4.9449,-0.7014,-3.5658,-2.2518,-3.0489,0.267,-4.6339,-1.4516
-1.698,0.4823,-3.8477,-4.8836,-5.6987,-3.829,-5.2387,-2.3882,-4.9449,-0.7014,-3.5658,-2.2518,-3.0489,0.267,-4.6339,-1.4516
-1.698,0.4823,-3.8477,-4.8836,-5.6987,-3.829,-5.2387,-2.3882,-4.9449,-0.7014,-3.5658,-2.2518,-3.0489,0.267,-4.6339,-1.4516
-1.953,0.2258,-3.8348,-4.913,-5.7204,-3.8521,-5.3014,-2.3803,-4.9967,-0.6955,-3.5726,-2.2676,-3.0692,0.2657,-4.6537,-1.4549
-1.953,0.2258,-3.8348,-4.913,-5.7204,-3.8521,-5.3014,-2.3803,-4.9967,-0.6955,-3.5726,-2.2676,-3.0692,0.2657,-4.6537,-1.4549
-1.8315,-0.1542,-3.8082,-4.9515,-5.7513,-3.8616,-5.3543,-2.3812,-4.9424,-0.7395,-3.5752,-2.2894,-3.1184,0.2831,-4.6757,-1.4587
-1.8315,-0.1542,-3.8082,-4.9515,-5.7513,-3.8616,-5.3543,-2.3812,-4.9424,-0.7395,-3.5752,-2.2894,-3.1184,0.2831,-4.6757,-1.4587
-1.542,-0.3668,-3.8144,-4.9534,-5.7616,-3.8648,-5.3977,-2.3801,-4.6977,-0.8506,-3.5702,-2.3093,-3.1674,0.3004,-4.6963,-1.4622
-1.542,-0.3668,-3.8144,-4.9534,-5.7616,-3.8648,-5.3977,-2.3801,-4.6977,-0.8506,-3.5702,-2.3093,-3.1674,0.3004,-4.6963,-1.4622
-1.4415,-0.5117,-3.8596,-4.9209,-5.7833,-3.8605,-5.4284,-2.387,-4.4832,-0.9511,-3.5895,-2.307,-3.2042,0.3077,-4.7156,-1.4661
-1.4415,-0.5117,-3.8596,-4.9209,-5.7833,-3.8605,-5.4284,-2.387,-4.4832,-0.9511,-3.5895,-2.307,-3.2042,0.3077,-4.7156,-1.4661
-1.4474,-0.4003,-3.9124,-4.8773,-5.7999,-3.8547,-5.4482,-2.3942,-4.504,-0.9561,-3.6087,-2.3047,-3.2514,0.3074,-4.7316,-1.4711
-1.4474,-0.4003,-3.9124,-4.8773,-5.7999,-3.8547,-5.4482,-2.3942,-4.504,-0.9561,-3.6087,-2.3047,-3.2514,0.3074,-4.7316,-1.4711
-1.4607,-0.1739,-3.9476,-4.8483,-5.8081,-3.8518,-5.4603,-2.4024,-4.6041,-0.8466,-3.6245,-2.2946,-3.2802,0.3034,-4.7435,-1.4772
-1.4607,-0.1739,-3.9476,-4.8483,-5.8081,-3.8518,-5.4603,-2.4024,-4.6041,-0.8466,-3.6245,-2.2946,-3.2802,0.3034,-4.7435,-1.4772
-1.4681,-0.0589,-3.9637,-4.8468,-5.7968,-3.8592,-5.477,-2.4088,-4.8117,-0.6863,-3.6437,-2.2924,-3.3063,0.2956,-4.7606,-1.4819
-1.4681,-0.0589,-3.9637,-4.8468,-5.7968,-3.8592,-5.477,-2.4088,-4.8117,-0.6863,-3.6437,-2.2924,-3.3063,0.2956,-4.7606,-1.4819
-1.5286,0.133,-3.9537,-4.8503,-5.744,-3.8812,-5.489,-2.417,-4.9705,-0.6302,-3.6546,-2.3021,-3.3202,0.278,-4.7844,-1.4828
-1.5286,0.133,-3.9537,-4.8503,-5.744,-3.8812,-5.489,-2.417,-4.9705,-0.6302,-3.6546,-2.3021,-3.3202,0.278,-4.7844,-1.4828
-1.5639,-0.025,-3.9546,-4.8707,-5.7366,-3.9008,-5.5195,-2.4239,-5.2248,-0.6397,-3.6522,-2.3435,-3.3602,0.2526,-4.8143,-1.4846
-1.5639,-0.025,-3.9546,-4.8707,-5.7366,-3.9008,-5.5195,-2.4239,-5.2248,-0.6397,-3.6522,-2.3435,-3.3602,0.2526,-4.8143,-1.4846
-1.556,-0.1402,-3.9592,-4.8857,-5.7646,-3.8876,-5.5469,-2.4301,-5.3825,-0.6825,-3.639,-2.3752,-3.3948,0.2424,-4.8399,-1.4867
-1.556,-0.1402,-3.9592,-4.8857,-5.7646,-3.8876,-5.5469,-2.4301,-5.3825,-0.6825,-3.639,-2.3752,-3.3948,0.2424,-4.8399,-1.4867
-1.2627,-0.3552,-3.9776,-4.8916,-5.8153,-3.8594,-5.5746,-2.4256,-5.4105,-0.7094,-3.6274,-2.3793,-3.4017,0.2448,-4.8523,-1.4857
-1.2627,-0.3552,-3.9776,-4.8916,-5.8153,-3.8594,-5.5746,-2.4256,-5.4105,-0.7094,-3.6274,-2.3793,-3.4017,0.2448,-4.8523,-1.4857
-0.9223,-0.5307,-3.999,-4.8716,-5.8258,-3.8353,-5.5507,-2.4093,-5.3375,-0.7474,-3.6289,-2.3517,-3.3801,0.2512,-4.8409,-1.4804
-0.9223,-0.5307,-3.999,-4.8716,-5.8258,-3.8353,-5.5507,-2.4093,-5.3375,-0.7474,-3.6289,-2.3517,-3.3801,0.2512,-4.8409,-1.4804
-0.9223,-0.5307,-3.999,-4.8716,-5.8258,-3.8353,-5.5507,-2.4093,-5.3375,-0.7474,-3.6289,-2.3517,-3.3801,0.2512,-4.8409,-1.4804
-0.5308,-0.669,-3.976,-4.8507,-5.7992,-3.8106,-5.4578,-2.3855,-5.2051,-0.7697,-3.6253,-2.2807,-3.3281,0.2666,-4.8003,-1.4708
-0.4803,-0.742,-3.9391,-4.8388,-5.7477,-3.7946,-5.3114,-2.3607,-5.063,-0.7709,-3.6069,-2.2054,-3.2401,0.2836,-4.7374,-1.458
-0.4803,-0.742,-3.9391,-4.8388,-5.7477,-3.7946,-5.3114,-2.3607,-5.063,-0.7709,-3.6069,-2.2054,-3.2401,0.2836,-4.7374,-1.458
-0.9319,-0.3046,-3.8836,-4.8209,-5.6606,-3.7842,-5.1415,-2.3366,-4.8994,-0.767,-3.5397,-2.1743,-3.1104,0.2944,-4.656,-1.4442
-1.2379,0.0303,-3.824,-4.8085,-5.575,-3.78,-4.9951,-2.3072,-4.8092,-0.7245,-3.4629,-2.1693,-2.9645,0.2913,-4.5853,-1.433
-1.2379,0.0303,-3.824,-4.8085,-5.575,-3.78,-4.9951,-2.3072,-4.8092,-0.7245,-3.4629,-2.1693,-2.9645,0.2913,-4.5853,-1.433
-1.2379,0.0303,-3.824,-4.8085,-5.575,-3.78,-4.9951,-2.3072,-4.8092,-0.7245,-3.4629,-2.1693,-2.9645,0.2913,-4.5853,-1.433
-1.6593,0.0086,-3.7853,-4.8096,-5.5288,-3.7825,-4.8971,-2.2747,-4.7684,-0.714,-3.4358,-2.1697,-2.8515,0.2828,-4.5298,-1.4228
-1.6593,0.0086,-3.7853,-4.8096,-5.5288,-3.7825,-4.8971,-2.2747,-4.7684,-0.714,-3.4358,-2.1697,-2.8515,0.2828,-4.5298,-1.4228
-2.1022,-0.1689,-3.7411,-4.8294,-5.5288,-3.7825,-4.8416,-2.2488,-4.7594,-0.6923,-3.3926,-2.1804,-2.802,0.2968,-4.4879,-1.4152
-2.1022,-0.1689,-3.7411,-4.8294,-5.5288,-3.7825,-4.8416,-2.2488,-4.7594,-0.6923,-3.3926,-2.1804,-2.802,0.2968,-4.4879,-1.4152
-2.3919,-0.4452,-3.6892,-4.8603,-5.5456,-3.7766,-4.8082,-2.2331,-4.7184,-0.6818,-3.3528,-2.1991,-2.7961,0.335,-4.4589,-1.4098
-2.3919,-0.4452,-3.6892,-4.8603,-5.5456,-3.7766,-4.8082,-2.2331,-4.7184,-0.6818,-3.3528,-2.1991,-2.7961,0.335,-4.4589,-1.4098
-2.4328,-0.4839,-3.6564,-4.8635,-5.5436,-3.7704,-4.7858,-2.2283,-4.537,-0.7333,-3.317,-2.2117,-2.818,0.3744,-4.4391,-1.4073
-2.4328,-0.4839,-3.6564,-4.8635,-5.5436,-3.7704,-4.7858,-2.2283,-4.537,-0.7333,-3.317,-2.2117,-2.818,0.3744,-4.4391,-1.4073
-2.114,-0.6495,-3.6694,-4.8338,-5.5383,-3.7688,-4.7663,-2.2296,-4.2985,-0.8301,-3.3009,-2.222,-2.8358,0.3922,-4.4263,-1.407
-2.114,-0.6495,-3.6694,-4.8338,-5.5383,-3.7688,-4.7663,-2.2296,-4.2985,-0.8301,-3.3009,-2.222,-2.8358,0.3922,-4.4263,-1.407
-2.114,-0.6495,-3.6694,-4.8338,-5.5383,-3.7688,-4.7663,-2.2296,-4.2985,-0.8301,-3.3009,-2.222,-2.8358,0.3922,-4.4263,-1.407
-1.749,-0.7785,-3.6863,-4.7984,-5.5331,-3.7672,-4.7467,-2.2366,-4.1793,-0.8597,-3.2932,-2.2201,-2.8456,0.3986,-4.4119,-1.409
-1.749,-0.7785,-3.6863,-4.7984,-5.5331,-3.7672,-4.7467,-2.2366,-4.1793,-0.8597,-3.2932,-2.2201,-2.8456,0.3986,-4.4119,-1.409
-1.613,-0.7736,-3.7017,-4.7762,-5.5247,-3.7702,-4.7385,-2.2431,-4.2602,-0.7432,-3.2932,-2.2201,-2.8519,0.3922,-4.4032,-1.4117
-1.613,-0.7736,-3.7017,-4.7762,-5.5247,-3.7702,-4.7385,-2.2431,-4.2602,-0.7432,-3.2932,-2.2201,-2.8519,0.3922,-4.4032,-1.4117
-1.4415,-0.5117,-3.7383,-4.7674,-5.473,-3.7988,-4.7642,-2.2487,-4.5789,-0.5674,-3.324,-2.2276,-2.8773,0.3665,-4.415,-1.4071
-1.4415,-0.5117,-3.7383,-4.7674,-5.473,-3.7988,-4.7642,-2.2487,-4.5789,-0.5674,-3.324,-2.2276,-2.8773,0.3665,-4.415,-1.4071
-1.4917,-0.4394,-3.7407,-4.775,-5.4751,-3.805,-4.7803,-2.2522,-4.7991,-0.5654,-3.2868,-2.2683,-2.9078,0.3486,-4.4295,-1.4024
-1.4917,-0.4394,-3.7407,-4.775,-5.4751,-3.805,-4.7803,-2.2522,-4.7991,-0.5654,-3.2868,-2.2683,-2.9078,0.3486,-4.4295,-1.4024
-1.4917,-0.4394,-3.7407,-4.775,-5.4751,-3.805,-4.7803,-2.2522,-4.7991,-0.5654,-3.2868,-2.2683,-2.9078,0.3486,-4.4295,-1.4024
-1.4917,-0.4394,-3.7407,-4.775,-5.4751,-3.805,-4.7803,-2.2522,-4.7991,-0.5654,-3.2868,-2.2683,-2.9078,0.3486,-4.4295,-1.4024
-1.3469,-0.5451,-3.7392,-4.7881,-5.4951,-3.7944,-4.7963,-2.2556,-4.8576,-0.6201,-3.2104,-2.3136,-2.9186,0.3409,-4.4352,-1.4004
-1.3469,-0.5451,-3.7392,-4.7881,-5.4951,-3.7944,-4.7963,-2.2556,-4.8576,-0.6201,-3.2104,-2.3136,-2.9186,0.3409,-4.4352,-1.4004
-0.9183,-0.642,-3.7176,-4.8084,-5.5331,-3.7672,-4.8076,-2.2553,-4.7913,-0.681,-3.1704,-2.3323,-2.916,0.3371,-4.4368,-1.3981
-0.9183,-0.642,-3.7176,-4.8084,-5.5331,-3.7672,-4.8076,-2.2553,-4.7913,-0.681,-3.1704,-2.3323,-2.916,0.3371,-4.4368,-1.3981
-0.3311,-0.8495,-3.7238,-4.8104,-5.5647,-3.7491,-4.8125,-2.2536,-4.7069,-0.6983,-3.1801,-2.2922,-2.9026,0.341,-4.4327,-1.3965
-0.3311,-0.8495,-3.7238,-4.8104,-5.5647,-3.7491,-4.8125,-2.2536,-4.7069,-0.6983,-3.1801,-2.2922,-2.9026,0.341,-4.4327,-1.3965
0.0181,-0.9181,-3.7214,-4.8028,-5.5919,-3.7464,-4.7768,-2.2625,-4.6154,-0.6555,-3.2577,-2.1543,-2.8836,0.3601,-4.4182,-1.3938
0.0181,-0.9181,-3.7214,-4.8028,-5.5919,-3.7464,-4.7768,-2.2625,-4.6154,-0.6555,-3.2577,-2.1543,-2.8836,0.3601,-4.4182,-1.3938
0.0181,-0.9181,-3.7214,-4.8028,-5.5919,-3.7464,-4.7768,-2.2625,-4.6154,-0.6555,-3.2577,-2.1543,-2.8836,0.3601,-4.4182,-1.3938
0.0181,-0.9181,-3.7214,-4.8028,-5.5919,-3.7464,-4.7768,-2.2625,-4.6154,-0.6555,-3.2577,-2.1543,-2.8836,0.3601,-4.4182,-1.3938
-0.4376,-0.4793,-3.7354,-4.7937,-5.5992,-3.7542,-4.7474,-2.2729,-4.6294,-0.6001,-3.2867,-2.1255,-2.8675,0.3602,-4.411,-1.3941
-0.4376,-0.4793,-3.7354,-4.7937,-5.5992,-3.7542,-4.7474,-2.2729,-4.6294,-0.6001,-3.2867,-2.1255,-2.8675,0.3602,-4.411,-1.3941
-0.4376,-0.4793,-3.7354,-4.7937,-5.5992,-3.7542,-4.7474,-2.2729,-4.6294,-0.6001,-3.2867,-2.1255,-2.8675,0.3602,-4.411,-1.3941
-1.4383,0.7471,-3.7291,-4.7917,-5.5802,-3.7816,-4.7441,-2.2777,-4.5697,-0.5452,-3.2867,-2.1255,-2.7592,0.3363,-4.4023,-1.3968
-1.4383,0.7471,-3.7291,-4.7917,-5.5802,-3.7816,-4.7441,-2.2777,-4.5697,-0.5452,-3.2867,-2.1255,-2.7592,0.3363,-4.4023,-1.3968
-1.4383,0.7471,-3.7291,-4.7917,-5.5802,-3.7816,-4.7441,-2.2777,-4.5697,-0.5452,-3.2867,-2.1255,-2.7592,0.3363,-4.4023,-1.3968
-1.803,1.0581,-3.7416,-4.7957,-5.5707,-3.7953,-4.7684,-2.2746,-4.5489,-0.5399,-3.2901,-2.1336,-2.6946,0.3135,-4.4041,-1.3979
-1.803,1.0581,-3.7416,-4.7957,-5.5707,-3.7953,-4.7684,-2.2746,-4.5489,-0.5399,-3.2901,-2.1336,-2.6946,0.3135,-4.4041,-1.3979
-2.1524,0.4107,-3.7396,-4.8425,-5.604,-3.8385,-4.8685,-2.2629,-4.6112,-0.5559,-3.2519,-2.1887,-2.667,0.2894,-4.4214,-1.3979
-2.1524,0.4107,-3.7396,-4.8425,-5.604,-3.8385,-4.8685,-2.2629,-4.6112,-0.5559,-3.2519,-2.1887,-2.667,0.2894,-4.4214,-1.3979
-2.1524,0.4107,-3.7396,-4.8425,-5.604,-3.8385,-4.8685,-2.2629,-4.6112,-0.5559,-3.2519,-2.1887,-2.667,0.2894,-4.4214,-1.3979
-2.3775,-0.0717,-3.7291,-4.8797,-5.6508,-3.8528,-4.923,-2.2637,-4.6294,-0.6001,-3.2666,-2.2065,-2.7244,0.3097,-4.4345,-1.3989
-2.3775,-0.0717,-3.7291,-4.8797,-5.6508,-3.8528,-4.923,-2.2637,-4.6294,-0.6001,-3.2666,-2.2065,-2.7244,0.3097,-4.4345,-1.3989
-2.3509,-0.4063,-3.7339,-4.8946,-5.6913,-3.8487,-4.9676,-2.268,-4.5508,-0.6783,-3.2974,-2.214,-2.8066,0.3502,-4.4499,-1.4004
-2.3509,-0.4063,-3.7339,-4.8946,-5.6913,-3.8487,-4.9676,-2.268,-4.5508,-0.6783,-3.2974,-2.214,-2.8066,0.3502,-4.4499,-1.4004
-2.0296,-0.5732,-3.767,-4.8579,-5.6997,-3.8458,-5.0009,-2.2725,-4.463,-0.7344,-3.3366,-2.2094,-2.8683,0.3691,-4.4618,-1.4031
-2.0296,-0.5732,-3.767,-4.8579,-5.6997,-3.8458,-5.0009,-2.2725,-4.463,-0.7344,-3.3366,-2.2094,-2.8683,0.3691,-4.4618,-1.4031
-1.7976,-0.7083,-3.814,-4.8121,-5.708,-3.8428,-5.0277,-2.2812,-4.4191,-0.7625,-3.3681,-2.2029,-2.9129,0.3791,-4.4695,-1.4069
-1.7055,-0.7409,-3.8695,-4.7757,-5.7183,-3.846,-5.0416,-2.2926,-4.4515,-0.751,-3.3953,-2.2024,-2.945,0.379,-4.4723,-1.4129
-1.7055,-0.7409,-3.8695,-4.7757,-5.7183,-3.846,-5.0416,-2.2926,-4.4515,-0.751,-3.3953,-2.2024,-2.945,0.379,-4.4723,-1.4129
-1.7055,-0.7409,-3.8695,-4.7757,-5.7183,-3.846,-5.0416,-2.2926,-4.4515,-0.751,-3.3953,-2.2024,-2.945,0.379,-4.4723,-1.4129
-1.7055,-0.7409,-3.8695,-4.7757,-5.7183,-3.846,-5.0416,-2.2926,-4.4515,-0.751,-3.3953,-2.2024,-2.945,0.379,-4.4723,-1.4129
-1.569,-0.7359,-3.8958,-4.7706,-5.7152,-3.8505,-5.0474,-2.3104,-4.5831,-0.6669,-3.4105,-2.2062,-2.9602,0.37,-4.4761,-1.4184
-1.569,-0.7359,-3.8958,-4.7706,-5.7152,-3.8505,-5.0474,-2.3104,-4.5831,-0.6669,-3.4105,-2.2062,-2.9602,0.37,-4.4761,-1.4184
-1.569,-0.7359,-3.8958,-4.7706,-5.7152,-3.8505,-5.0474,-2.3104,-4.5831,-0.6669,-3.4105,-2.2062,-2.9602,0.37,-4.4761,-1.4184
-1.6673,-0.5942,-3.9351,-4.7902,-5.658,-3.8878,-5.0799,-2.3368,-4.8659,-0.5039,-3.4563,-2.2175,-2.9853,0.3444,-4.5021,-1.4231
-1.6673,-0.5942,-3.9351,-4.7902,-5.658,-3.8878,-5.0799,-2.3368,-4.8659,-0.5039,-3.4563,-2.2175,-2.9853,0.3444,-4.5021,-1.4231
-1.6673,-0.5942,-3.9351,-4.7902,-5.658,-3.8878,-5.0799,-2.3368,-4.8659,-0.5039,-3.4563,-2.2175,-2.9853,0.3444,-4.5021,-1.4231
-1.7602,-0.5614,-3.9497,-4.8017,-5.6486,-3.9013,-5.1098,-2.3406,-5.0911,-0.525,-3.4893,-2.247,-3.0439,0.3365,-4.5314,-1.4192
-1.7602,-0.5614,-3.9497,-4.8017,-5.6486,-3.9013,-5.1098,-2.3406,-5.0911,-0.525,-3.4893,-2.247,-3.0439,0.3365,-4.5314,-1.4192
-1.7602,-0.5614,-3.9497,-4.8017,-5.6486,-3.9013,-5.1098,-2.3406,-5.0911,-0.525,-3.4893,-2.247,-3.0439,0.3365,-4.5314,-1.4192
-1.8526,-0.5287,-3.9529,-4.8298,-5.7026,-3.8686,-5.1729,-2.3381,-5.4863,-0.6336,-3.5048,-2.3142,-3.1471,0.3245,-4.5799,-1.4185
-1.8526,-0.5287,-3.9529,-4.8298,-5.7026,-3.8686,-5.1729,-2.3381,-5.4863,-0.6336,-3.5048,-2.3142,-3.1471,0.3245,-4.5799,-1.4185
-1.2925,-0.7266,-3.9552,-4.8373,-5.7484,-3.8388,-5.2028,-2.3365,-5.4637,-0.6661,-3.509,-2.3082,-3.1629,0.3244,-4.5959,-1.4202
-1.2925,-0.7266,-3.9552,-4.8373,-5.7484,-3.8388,-5.2028,-2.3365,-5.4637,-0.6661,-3.509,-2.3082,-3.1629,0.3244,-4.5959,-1.4202
-0.4767,-0.961,-3.9652,-4.8337,-5.7764,-3.8255,-5.2184,-2.3399,-5.3094,-0.7206,-3.5223,-2.2763,-3.1629,0.3244,-4.608,-1.4224
-0.4767,-0.961,-3.9652,-4.8337,-5.7764,-3.8255,-5.2184,-2.3399,-5.3094,-0.7206,-3.5223,-2.2763,-3.1629,0.3244,-4.608,-1.4224
-0.4767,-0.961,-3.9652,-4.8337,-5.7764,-3.8255,-5.2184,-2.3399,-5.3094,-0.7206,-3.5223,-2.2763,-3.1629,0.3244,-4.608,-1.4224
-0.1813,-1.0654,-3.9775,-4.8377,-5.8053,-3.8289,-5.2226,-2.3546,-5.1654,-0.7593,-3.5633,-2.23,-3.1725,0.3306,-4.6187,-1.4255
-0.1813,-1.0654,-3.9775,-4.8377,-5.8053,-3.8289,-5.2226,-2.3546,-5.1654,-0.7593,-3.5633,-2.23,-3.1725,0.3306,-4.6187,-1.4255
-0.2821,-0.812,-3.9775,-4.8377,-5.8207,-3.8337,-5.208,-2.3705,-5.0718,-0.7923,-3.5918,-2.2016,-3.1769,0.3293,-4.6319,-1.4286
-0.7871,-0.2995,-3.9897,-4.8417,-5.8381,-3.8446,-5.2043,-2.3861,-5.0116,-0.7767,-3.6077,-2.1915,-3.1699,0.3269,-4.6466,-1.4308
-0.7871,-0.2995,-3.9897,-4.8417,-5.8381,-3.8446,-5.2043,-2.3861,-5.0116,-0.7767,-3.6077,-2.1915,-3.1699,0.3269,-4.6466,-1.4308
-1.4062,0.3792,-4.0096,-4.8347,-5.8421,-3.8568,-5.2183,-2.3918,-4.9827,-0.7499,-3.6153,-2.1934,-3.1533,0.3181,-4.6617,-1.4323
-1.4062,0.3792,-4.0096,-4.8347,-5.8421,-3.8568,-5.2183,-2.3918,-4.9827,-0.7499,-3.6153,-2.1934,-3.1533,0.3181,-4.6617,-1.4323
-1.8606,0.7167,-4.0318,-4.8351,-5.8512,-3.8705,-5.2606,-2.3876,-4.9853,-0.7119,-3.6303,-2.1972,-3.1367,0.3094,-4.6783,-1.4342
-1.8606,0.7167,-4.0318,-4.8351,-5.8512,-3.8705,-5.2606,-2.3876,-4.9853,-0.7119,-3.6303,-2.1972,-3.1367,0.3094,-4.6783,-1.4342
-2.1643,0.5304,-4.0486,-4.8541,-5.8725,-3.8935,-5.3281,-2.3726,-4.9967,-0.6955,-3.6453,-2.201,-3.1384,0.3044,-4.6933,-1.437
-2.1643,0.5304,-4.0486,-4.8541,-5.8725,-3.8935,-5.3281,-2.3726,-4.9967,-0.6955,-3.6453,-2.201,-3.1384,0.3044,-4.6933,-1.437
-2.1643,0.5304,-4.0486,-4.8541,-5.8725,-3.8935,-5.3281,-2.3726,-4.9967,-0.6955,-3.6453,-2.201,-3.1384,0.3044,-4.6933,-1.437
-1.9674,-0.1615,-4.022,-4.8925,-5.9123,-3.9167,-5.4401,-2.3651,-4.8475,-0.773,-3.6587,-2.2327,-3.2198,0.3303,-4.7273,-1.4444
-1.9674,-0.1615,-4.022,-4.8925,-5.9123,-3.9167,-5.4401,-2.3651,-4.8475,-0.773,-3.6587,-2.2327,-3.2198,0.3303,-4.7273,-1.4444
-1.9674,-0.1615,-4.022,-4.8925,-5.9123,-3.9167,-5.4401,-2.3651,-4.8475,-0.773,-3.6587,-2.2327,-3.2198,0.3303,-4.7273,-1.4444
-1.9169,-0.2344,-4.0372,-4.8706,-5.9205,-3.9138,-5.4723,-2.3697,-4.6453,-0.8568,-3.6737,-2.2364,-3.2679,0.3387,-4.7452,-1.4479
-1.9169,-0.2344,-4.0372,-4.8706,-5.9205,-3.9138,-5.4723,-2.3697,-4.6453,-0.8568,-3.6737,-2.2364,-3.2679,0.3387,-4.7452,-1.4479
-1.8743,-0.1944,-4.0798,-4.8306,-5.9256,-3.9154,-5.4982,-2.3783,-4.6247,-0.8517,-3.6928,-2.2342,-3.3036,0.3371,-4.7586,-1.453
-1.8743,-0.1944,-4.0798,-4.8306,-5.9256,-3.9154,-5.4982,-2.3783,-4.6247,-0.8517,-3.6928,-2.2342,-3.3036,0.3371,-4.7586,-1.453
-1.8399,-0.0399,-4.0913,-4.8141,-5.9256,-3.9154,-5.5132,-2.3872,-4.7045,-0.7366,-3.7045,-2.2301,-3.3349,0.3369,-4.7712,-1.458
-1.8399,-0.0399,-4.0913,-4.8141,-5.9256,-3.9154,-5.5132,-2.3872,-4.7045,-0.7366,-3.7045,-2.2301,-3.3349,0.3369,-4.7712,-1.458
-1.8399,-0.0399,-4.0913,-4.8141,-5.9256,-3.9154,-5.5132,-2.3872,-4.7045,-0.7366,-3.7045,-2.2301,-3.3349,0.3369,-4.7712,-1.458
-1.9008,0.1506,-4.1088,-4.7996,-5.8928,-3.9269,-5.5313,-2.3967,-4.8895,-0.6088,-3.712,-2.232,-3.3514,0.3229,-4.7927,-1.4611
-1.9008,0.1506,-4.1088,-4.7996,-5.8928,-3.9269,-5.5313,-2.3967,-4.8895,-0.6088,-3.712,-2.232,-3.3514,0.3229,-4.7927,-1.4611
-1.9008,0.1506,-4.1088,-4.7996,-5.8928,-3.9269,-5.5313,-2.3967,-4.8895,-0.6088,-3.712,-2.232,-3.3514,0.3229,-4.7927,-1.4611
-1.8489,0.0756,-4.1111,-4.8071,-5.8671,-3.9461,-5.557,-2.4053,-5.1082,-0.5691,-3.7219,-2.2557,-3.3808,0.305,-4.8187,-1.4626
-1.8489,0.0756,-4.1111,-4.8071,-5.8671,-3.9461,-5.557,-2.4053,-5.1082,-0.5691,-3.7219,-2.2557,-3.3808,0.305,-4.8187,-1.4626
-1.8489,0.0756,-4.1111,-4.8071,-5.8671,-3.9461,-5.557,-2.4053,-5.1082,-0.5691,-3.7219,-2.2557,-3.3808,0.305,-4.8187,-1.4626
-1.6868,-0.2606,-4.1361,-4.8356,-5.9163,-3.9288,-5.6191,-2.4222,-5.4863,-0.6336,-3.6638,-2.3394,-3.4534,0.2743,-4.8729,-1.4669
-1.6868,-0.2606,-4.1361,-4.8356,-5.9163,-3.9288,-5.6191,-2.4222,-5.4863,-0.6336,-3.6638,-2.3394,-3.4534,0.2743,-4.8729,-1.4669
-1.6868,-0.2606,-4.1361,-4.8356,-5.9163,-3.9288,-5.6191,-2.4222,-5.4863,-0.6336,-3.6638,-2.3394,-3.4534,0.2743,-4.8729,-1.4669
-1.2067,-0.5401,-4.1619,-4.8306,-5.9792,-3.8558,-5.6137,-2.4047,-5.5139,-0.6606,-3.5988,-2.3443,-3.449,0.2981,-4.8655,-1.4632
-1.2067,-0.5401,-4.1619,-4.8306,-5.9792,-3.8558,-5.6137,-2.4047,-5.5139,-0.6606,-3.5988,-2.3443,-3.449,0.2981,-4.8655,-1.4632
-1.2067,-0.5401,-4.1619,-4.8306,-5.9792,-3.8558,-5.6137,-2.4047,-5.5139,-0.6606,-3.5988,-2.3443,-3.449,0.2981,-4.8655,-1.4632
-0.674,-0.7829,-4.1354,-4.8151,-5.9479,-3.8296,-5.5288,-2.3799,-5.3825,-0.6825,-3.5903,-2.2931,-3.3904,0.3112,-4.8246,-1.4541
-0.674,-0.7829,-4.1354,-4.8151,-5.9479,-3.8296,-5.5288,-2.3799,-5.3825,-0.6825,-3.5903,-2.2931,-3.3904,0.3112,-4.8246,-1.4541
-0.674,-0.7829,-4.1354,-4.8151,-5.9479,-3.8296,-5.5288,-2.3799,-5.3825,-0.6825,-3.5903,-2.2931,-3.3904,0.3112,-4.8246,-1.4541
0.0685,-0.9907,-4.0234,-4.7715,-5.8107,-3.8031,-5.2394,-2.3199,-4.9739,-0.7283,-3.5574,-2.136,-3.1988,0.3456,-4.6842,-1.427
0.0685,-0.9907,-4.0234,-4.7715,-5.8107,-3.8031,-5.2394,-2.3199,-4.9739,-0.7283,-3.5574,-2.136,-3.1988,0.3456,-4.6842,-1.427
0.0685,-0.9907,-4.0234,-4.7715,-5.8107,-3.8031,-5.2394,-2.3199,-4.9739,-0.7283,-3.5574,-2.136,-3.1988,0.3456,-4.6842,-1.427
-0.0832,-0.7719,-3.9559,-4.7494,-5.7342,-3.7959,-5.0667,-2.3036,-4.8092,-0.7245,-3.5222,-2.0839,-3.0959,0.3577,-4.6139,-1.4152
-0.6932,-0.2193,-3.9027,-4.7388,-5.6646,-3.7965,-4.9317,-2.2933,-4.7069,-0.6983,-3.4808,-2.0662,-3.0029,0.3621,-4.5525,-1.4075
-1.362,0.4223,-3.8718,-4.7287,-5.6073,-3.8065,-4.8342,-2.286,-4.6154,-0.6555,-3.4299,-2.0749,-2.9086,0.3575,-4.5053,-1.4025
-1.362,0.4223,-3.8718,-4.7287,-5.6073,-3.8065,-4.8342,-2.286,-4.6154,-0.6555,-3.4299,-2.0749,-2.9086,0.3575,-4.5053,-1.4025
-1.8869,0.966,-3.847,-4.7206,-5.5549,-3.8181,-4.7747,-2.2815,-4.6178,-0.6168,-3.4095,-2.0914,-2.8389,0.3501,-4.4731,-1.4004
-1.8869,0.966,-3.847,-4.7206,-5.5549,-3.8181,-4.7747,-2.2815,-4.6178,-0.6168,-3.4095,-2.0914,-2.8389,0.3501,-4.4731,-1.4004
-1.8869,0.966,-3.847,-4.7206,-5.5549,-3.8181,-4.7747,-2.2815,-4.6178,-0.6168,-3.4095,-2.0914,-2.8389,0.3501,-4.4731,-1.4004
-2.3628,1.4408,-3.8307,-4.7222,-5.5213,-3.83,-4.7522,-2.2767,-4.588,-0.5895,-3.389,-2.1079,-2.778,0.3401,-4.4548,-1.3982
-2.3628,1.4408,-3.8307,-4.7222,-5.5213,-3.83,-4.7522,-2.2767,-4.588,-0.5895,-3.389,-2.1079,-2.778,0.3401,-4.4548,-1.3982
-2.3628,1.4408,-3.8307,-4.7222,-5.5213,-3.83,-4.7522,-2.2767,-4.588,-0.5895,-3.389,-2.1079,-2.778,0.3401,-4.4548,-1.3982
-2.6126,1.5914,-3.8307,-4.7222,-5.515,-3.8391,-4.754,-2.2688,-4.6733,-0.572,-3.3959,-2.1239,-2.7252,0.3186,-4.4466,-1.3977
-2.6126,1.5914,-3.8307,-4.7222,-5.515,-3.8391,-4.754,-2.2688,-4.6733,-0.572,-3.3959,-2.1239,-2.7252,0.3186,-4.4466,-1.3977
-2.6126,1.5914,-3.8307,-4.7222,-5.515,-3.8391,-4.754,-2.2688,-4.6733,-0.572,-3.3959,-2.1239,-2.7252,0.3186,-4.4466,-1.3977
-2.6126,1.5914,-3.8307,-4.7222,-5.515,-3.8391,-4.754,-2.2688,-4.6733,-0.572,-3.3959,-2.1239,-2.7252,0.3186,-4.4466,-1.3977
-2.8165,0.7609,-3.8347,-4.7712,-5.6081,-3.8508,-4.8352,-2.2474,-4.808,-0.5874,-3.4129,-2.164,-2.712,0.2995,-4.449,-1.3942
-2.8165,0.7609,-3.8347,-4.7712,-5.6081,-3.8508,-4.8352,-2.2474,-4.808,-0.5874,-3.4129,-2.164,-2.712,0.2995,-4.449,-1.3942
-2.9188,0.1196,-3.8202,-4.8141,-5.6758,-3.8439,-4.8883,-2.245,-4.8373,-0.6147,-3.4121,-2.1781,-2.7629,0.3261,-4.4547,-1.3922
-2.8765,-0.3271,-3.801,-4.8417,-5.7183,-3.846,-4.9218,-2.2496,-4.7734,-0.6373,-3.3842,-2.1926,-2.8297,0.3757,-4.4589,-1.3912
-2.8765,-0.3271,-3.801,-4.8417,-5.7183,-3.846,-4.9218,-2.2496,-4.7734,-0.6373,-3.3842,-2.1926,-2.8297,0.3757,-4.4589,-1.3912
-2.5548,-0.5989,-3.8048,-4.8362,-5.7401,-3.8417,-4.9409,-2.2538,-4.613,-0.694,-3.3723,-2.1968,-2.8938,0.4214,-4.4623,-1.3899
-2.5548,-0.5989,-3.8048,-4.8362,-5.7401,-3.8417,-4.9409,-2.2538,-4.613,-0.694,-3.3723,-2.1968,-2.8938,0.4214,-4.4623,-1.3899
-2.0598,-0.8261,-3.8202,-4.8141,-5.7401,-3.8417,-4.9391,-2.2617,-4.333,-0.7803,-3.3646,-2.1949,-2.9329,0.4468,-4.4616,-1.3898
-2.0598,-0.8261,-3.8202,-4.8141,-5.7401,-3.8417,-4.9391,-2.2617,-4.333,-0.7803,-3.3646,-2.1949,-2.9329,0.4468,-4.4616,-1.3898
-1.6085,-0.8808,-3.8548,-4.7641,-5.7246,-3.837,-4.9197,-2.2686,-4.0924,-0.8779,-3.3654,-2.1808,-2.9445,0.448,-4.4575,-1.3895
-1.6085,-0.8808,-3.8548,-4.7641,-5.7246,-3.837,-4.9197,-2.2686,-4.0924,-0.8779,-3.3654,-2.1808,-2.9445,0.448,-4.4575,-1.3895
-1.6085,-0.8808,-3.8548,-4.7641,-5.7246,-3.837,-4.9197,-2.2686,-4.0924,-0.8779,-3.3654,-2.1808,-2.9445,0.448,-4.4575,-1.3895
-1.191,-0.9756,-3.8795,-4.7176,-5.7194,-3.8354,-4.8939,-2.274,-3.949,-0.9411,-3.362,-2.1728,-2.9419,0.4442,-4.4504,-1.3885
-1.191,-0.9756,-3.8795,-4.7176,-5.7194,-3.8354,-4.8939,-2.274,-3.949,-0.9411,-3.362,-2.1728,-2.9419,0.4442,-4.4504,-1.3885
-1.191,-0.9756,-3.8795,-4.7176,-5.7194,-3.8354,-4.8939,-2.274,-3.949,-0.9411,-3.362,-2.1728,-2.9419,0.4442,-4.4504,-1.3885
-1.191,-0.9756,-3.8795,-4.7176,-5.7194,-3.8354,-4.8939,-2.274,-3.949,-0.9411,-3.362,-2.1728,-2.9419,0.4442,-4.4504,-1.3885
-0.9071,-1.0759,-3.926,-4.6505,-5.7059,-3.8367,-4.852,-2.2816,-4.1154,-0.8447,-3.3789,-2.1484,-2.9046,0.4137,-4.4228,-1.3922
-0.9071,-1.0759,-3.926,-4.6505,-5.7059,-3.8367,-4.852,-2.2816,-4.1154,-0.8447,-3.3789,-2.1484,-2.9046,0.4137,-4.4228,-1.3922
-1.0075,-0.8273,-3.9128,-4.6805,-5.6862,-3.8471,-4.8602,-2.275,-4.4981,-0.5068,-3.3713,-2.1465,-2.8805,0.4023,-4.4042,-1.3953
-1.0075,-0.8273,-3.9128,-4.6805,-5.6862,-3.8471,-4.8602,-2.275,-4.4981,-0.5068,-3.3713,-2.1465,-2.8805,0.4023,-4.4042,-1.3953
-1.0075,-0.8273,-3.9128,-4.6805,-5.6862,-3.8471,-4.8602,-2.275,-4.4981,-0.5068,-3.3713,-2.1465,-2.8805,0.4023,-4.4042,-1.3953
-1.2067,-0.5401,-3.9073,-4.6993,-5.6445,-3.8618,-4.8764,-2.2674,-4.6546,-0.3876,-3.3789,-2.1484,-2.8779,0.3984,-4.4096,-1.3938
-1.2067,-0.5401,-3.9073,-4.6993,-5.6445,-3.8618,-4.8764,-2.2674,-4.6546,-0.3876,-3.3789,-2.1484,-2.8779,0.3984,-4.4096,-1.3938
-1.2067,-0.5401,-3.9073,-4.6993,-5.6445,-3.8618,-4.8764,-2.2674,-4.6546,-0.3876,-3.3789,-2.1484,-2.8779,0.3984,-4.4096,-1.3938
-1.3076,-0.3946,-3.9081,-4.7201,-5.6049,-3.8827,-4.8942,-2.263,-4.7401,-0.3702,-3.39,-2.1583,-2.8815,0.3882,-4.4229,-1.3895
-1.3076,-0.3946,-3.9081,-4.7201,-5.6049,-3.8827,-4.8942,-2.263,-4.7401,-0.3702,-3.39,-2.1583,-2.8815,0.3882,-4.4229,-1.3895
-1.3076,-0.3946,-3.9081,-4.7201,-5.6049,-3.8827,-4.8942,-2.263,-4.7401,-0.3702,-3.39,-2.1583,-2.8815,0.3882,-4.4229,-1.3895
-1.5926,-0.2939,-3.9112,-4.7484,-5.6174,-3.8919,-4.9404,-2.2703,-4.9674,-0.5311,-3.3623,-2.237,-2.9434,0.3611,-4.4585,-1.383
-1.5926,-0.2939,-3.9112,-4.7484,-5.6174,-3.8919,-4.9404,-2.2703,-4.9674,-0.5311,-3.3623,-2.237,-2.9434,0.3611,-4.4585,-1.383
-1.4917,-0.4394,-3.8919,-4.7761,-5.6736,-3.8652,-4.9673,-2.279,-4.9617,-0.6083,-3.3455,-2.2612,-2.9754,0.361,-4.4727,-1.3837
-1.4917,-0.4394,-3.8919,-4.7761,-5.6736,-3.8652,-4.9673,-2.279,-4.9617,-0.6083,-3.3455,-2.2612,-2.9754,0.361,-4.4727,-1.3837
-1.0148,-0.6079,-3.8943,-4.7837,-5.7152,-3.8505,-4.991,-2.2869,-4.9071,-0.6526,-3.37,-2.2389,-2.994,0.3647,-4.4842,-1.3857
-1.0148,-0.6079,-3.8943,-4.7837,-5.7152,-3.8505,-4.991,-2.2869,-4.9071,-0.6526,-3.37,-2.2389,-2.994,0.3647,-4.4842,-1.3857
-1.0148,-0.6079,-3.8943,-4.7837,-5.7152,-3.8505,-4.991,-2.2869,-4.9071,-0.6526,-3.37,-2.2389,-2.994,0.3647,-4.4842,-1.3857
-0.7214,-0.8205,-3.9166,-4.7842,-5.7639,-3.8436,-5.0016,-2.3031,-4.8461,-0.6366,-3.396,-2.1884,-2.9993,0.3723,-4.4935,-1.3885
-0.7214,-0.8205,-3.9166,-4.7842,-5.7639,-3.8436,-5.0016,-2.3031,-4.8461,-0.6366,-3.396,-2.1884,-2.9993,0.3723,-4.4935,-1.3885
-1.1723,-0.2758,-3.9428,-4.7791,-5.8215,-3.8504,-5.0038,-2.3366,-4.8311,-0.5541,-3.4536,-2.1312,-3.0161,0.3811,-4.5116,-1.3947
-1.1723,-0.2758,-3.9428,-4.7791,-5.8215,-3.8504,-5.0038,-2.3366,-4.8311,-0.5541,-3.4536,-2.1312,-3.0161,0.3811,-4.5116,-1.3947
-1.1723,-0.2758,-3.9428,-4.7791,-5.8215,-3.8504,-5.0038,-2.3366,-4.8311,-0.5541,-3.4536,-2.1312,-3.0161,0.3811,-4.5116,-1.3947
-1.7408,0.439,-3.9628,-4.772,-5.8338,-3.8597,-5.0242,-2.3438,-4.8223,-0.532,-3.4654,-2.127,-2.9904,0.3749,-4.5211,-1.3982
-1.7408,0.439,-3.9628,-4.772,-5.8338,-3.8597,-5.0242,-2.3438,-4.8223,-0.532,-3.4654,-2.127,-2.9904,0.3749,-4.5211,-1.3982
-2.081,1.0346,-3.9728,-4.7685,-5.8327,-3.8703,-5.0591,-2.3459,-4.7698,-0.5379,-3.4536,-2.1312,-2.946,0.3649,-4.5311,-1.4012
-2.081,1.0346,-3.9728,-4.7685,-5.8327,-3.8703,-5.0591,-2.3459,-4.7698,-0.5379,-3.4536,-2.1312,-2.946,0.3649,-4.5311,-1.4012
-2.081,1.0346,-3.9728,-4.7685,-5.8327,-3.8703,-5.0591,-2.3459,-4.7698,-0.5379,-3.4536,-2.1312,-2.946,0.3649,-4.5311,-1.4012
-2.4593,1.4749,-3.9789,-4.7705,-5.8233,-3.8838,-5.0954,-2.3457,-4.7171,-0.5439,-3.457,-2.1392,-2.9052,0.3448,-4.5421,-1.4051
-2.4593,1.4749,-3.9789,-4.7705,-5.8233,-3.8838,-5.0954,-2.3457,-4.7171,-0.5439,-3.457,-2.1392,-2.9052,0.3448,-4.5421,-1.4051
-2.4593,1.4749,-3.9789,-4.7705,-5.8233,-3.8838,-5.0954,-2.3457,-4.7171,-0.5439,-3.457,-2.1392,-2.9052,0.3448,-4.5421,-1.4051
-2.6317,1.7236,-3.995,-4.769,-5.8171,-3.8928,-5.1334,-2.3431,-4.641,-0.5834,-3.4527,-2.1454,-2.8741,0.3309,-4.5539,-1.4078
-2.6317,1.7236,-3.995,-4.769,-5.8171,-3.8928,-5.1334,-2.3431,-4.641,-0.5834,-3.4527,-2.1454,-2.8741,0.3309,-4.5539,-1.4078
-2.5766,1.3315,-4.0057,-4.7861,-5.8283,-3.9125,-5.1903,-2.3337,-4.6501,-0.6054,-3.4401,-2.1636,-2.8609,0.3119,-4.568,-1.4098
-2.5766,1.3315,-4.0057,-4.7861,-5.8283,-3.9125,-5.1903,-2.3337,-4.6501,-0.6054,-3.4401,-2.1636,-2.8609,0.3119,-4.568,-1.4098
-2.729,-0.0568,-4.0203,-4.8516,-5.9079,-3.9587,-5.3097,-2.322,-4.8258,-0.6313,-3.414,-2.2142,-2.9404,0.3028,-4.6037,-1.4114
-2.729,-0.0568,-4.0203,-4.8516,-5.9079,-3.9587,-5.3097,-2.322,-4.8258,-0.6313,-3.414,-2.2142,-2.9404,0.3028,-4.6037,-1.4114
-2.8503,-0.6507,-3.9998,-4.892,-5.9556,-3.9788,-5.3609,-2.3254,-4.9388,-0.6414,-3.4445,-2.2217,-3.0033,0.3165,-4.6192,-1.4137
-2.8503,-0.6507,-3.9998,-4.892,-5.9556,-3.9788,-5.3609,-2.3254,-4.9388,-0.6414,-3.4445,-2.2217,-3.0033,0.3165,-4.6192,-1.4137
-2.8503,-0.6507,-3.9998,-4.892,-5.9556,-3.9788,-5.3609,-2.3254,-4.9388,-0.6414,-3.4445,-2.2217,-3.0033,0.3165,-4.6192,-1.4137
-2.8503,-0.6507,-3.9998,-4.892,-5.9556,-3.9788,-5.3609,-2.3254,-4.9388,-0.6414,-3.4445,-2.2217,-3.0033,0.3165,-4.6192,-1.4137
-2.7821,-1.0315,-3.935,-4.9315,-6.0085,-3.9735,-5.4036,-2.346,-4.9159,-0.6744,-3.5221,-2.2126,-3.1345,0.3828,-4.6505,-1.4177
-2.7821,-1.0315,-3.935,-4.9315,-6.0085,-3.9735,-5.4036,-2.346,-4.9159,-0.6744,-3.5221,-2.2126,-3.1345,0.3828,-4.6505,-1.4177
-2.4872,-0.9841,-3.9502,-4.9096,-6.0239,-3.9513,-5.411,-2.3558,-4.725,-0.7418,-3.554,-2.1922,-3.1872,0.4129,-4.666,-1.42
-2.4872,-0.9841,-3.9502,-4.9096,-6.0239,-3.9513,-5.411,-2.3558,-4.725,-0.7418,-3.554,-2.1922,-3.1872,0.4129,-4.666,-1.42
-2.0967,-0.9685,-3.9943,-4.8567,-6.02,-3.9392,-5.4216,-2.361,-4.5648,-0.7984,-3.5901,-2.1657,-3.2153,0.4228,-4.6803,-1.4227
-2.0967,-0.9685,-3.9943,-4.8567,-6.02,-3.9392,-5.4216,-2.361,-4.5648,-0.7984,-3.5901,-2.1657,-3.2153,0.4228,-4.6803,-1.4227
-1.7875,-0.9223,-4.0524,-4.7946,-6.0261,-3.9303,-5.4307,-2.3685,-4.4588,-0.811,-3.6061,-2.1554,-3.2258,0.4151,-4.6886,-1.428
-1.7875,-0.9223,-4.0524,-4.7946,-6.0261,-3.9303,-5.4307,-2.3685,-4.4588,-0.811,-3.6061,-2.1554,-3.2258,0.4151,-4.6886,-1.428
-1.5644,-0.8437,-4.109,-4.7454,-6.0129,-3.9316,-5.4349,-2.3776,-4.5255,-0.7499,-3.6254,-2.1532,-3.2311,0.3998,-4.6945,-1.4353
-1.5644,-0.8437,-4.109,-4.7454,-6.0129,-3.9316,-5.4349,-2.3776,-4.5255,-0.7499,-3.6254,-2.1532,-3.2311,0.3998,-4.6945,-1.4353
-1.5742,-0.6271,-4.1387,-4.7349,-5.9986,-3.9434,-5.4407,-2.3898,-4.6707,-0.6107,-3.6446,-2.151,-3.2223,0.3796,-4.7042,-1.4409
-1.5742,-0.6271,-4.1387,-4.7349,-5.9986,-3.9434,-5.4407,-2.3898,-4.6707,-0.6107,-3.6446,-2.151,-3.2223,0.3796,-4.7042,-1.4409
-1.5358,-0.4784,-4.1607,-4.7355,-5.9517,-3.9667,-5.4542,-2.401,-4.8367,-0.4763,-3.6479,-2.159,-3.2066,0.3569,-4.7199,-1.444
-1.5358,-0.4784,-4.1607,-4.7355,-5.9517,-3.9667,-5.4542,-2.401,-4.8367,-0.4763,-3.6479,-2.159,-3.2066,0.3569,-4.7199,-1.444
-1.7232,-0.4122,-4.191,-4.7456,-5.9066,-3.9961,-5.4801,-2.4095,-4.9849,-0.4366,-3.6897,-2.1625,-3.2207,0.3391,-4.7424,-1.4446
-1.7232,-0.4122,-4.191,-4.7456,-5.9066,-3.9961,-5.4801,-2.4095,-4.9849,-0.4366,-3.6897,-2.1625,-3.2207,0.3391,-4.7424,-1.4446
-1.9447,-0.4962,-4.2295,-4.7653,-5.8769,-4.03,-5.523,-2.4138,-5.1572,-0.464,-3.7304,-2.18,-3.2662,0.3211,-4.7704,-1.4433
-1.9447,-0.4962,-4.2295,-4.7653,-5.8769,-4.03,-5.523,-2.4138,-5.1572,-0.464,-3.7304,-2.18,-3.2662,0.3211,-4.7704,-1.4433
-2.0787,-0.5025,-4.234,-4.7803,-5.9004,-4.0318,-5.5629,-2.4121,-5.3834,-0.5465,-3.7544,-2.2215,-3.3306,0.3155,-4.7994,-1.4429
-2.0787,-0.5025,-4.234,-4.7803,-5.9004,-4.0318,-5.5629,-2.4121,-5.3834,-0.5465,-3.7544,-2.2215,-3.3306,0.3155,-4.7994,-1.4429
-2.1207,-0.541,-4.2324,-4.7933,-5.9493,-4.0145,-5.5951,-2.4113,-5.5752,-0.639,-3.736,-2.2733,-3.3973,0.3136,-4.8268,-1.4448
-2.1207,-0.541,-4.2324,-4.7933,-5.9493,-4.0145,-5.5951,-2.4113,-5.5752,-0.639,-3.736,-2.2733,-3.3973,0.3136,-4.8268,-1.4448
-2.1207,-0.541,-4.2324,-4.7933,-5.9493,-4.0145,-5.5951,-2.4113,-5.5752,-0.639,-3.736,-2.2733,-3.3973,0.3136,-4.8268,-1.4448
-1.9873,-0.5348,-4.2149,-4.8078,-6.0024,-3.9824,-5.6255,-2.4129,-5.6605,-0.6822,-3.7119,-2.2954,-3.4379,0.3195,-4.8472,-1.4483
-1.9873,-0.5348,-4.2149,-4.8078,-6.0024,-3.9824,-5.6255,-2.4129,-5.6605,-0.6822,-3.7119,-2.2954,-3.4379,0.3195,-4.8472,-1.4483
-1.5249,-0.6981,-4.2073,-4.8187,-6.0634,-3.9474,-5.6481,-2.4207,-5.6077,-0.7251,-3.7202,-2.2834,-3.4603,0.3218,-4.8644,-1.4537
-0.9582,-0.8984,-4.2134,-4.8207,-6.1009,-3.9375,-5.6614,-2.4319,-5.4661,-0.763,-3.7535,-2.2355,-3.4646,0.3205,-4.8791,-1.4592
-0.9582,-0.8984,-4.2134,-4.8207,-6.1009,-3.9375,-5.6614,-2.4319,-5.4661,-0.763,-3.7535,-2.2355,-3.4646,0.3205,-4.8791,-1.4592
-0.9117,-0.8612,-4.2232,-4.8172,-6.1241,-3.9393,-5.6607,-2.4479,-5.3432,-0.8064,-3.81,-2.1792,-3.4715,0.3229,-4.891,-1.464
-1.0652,-0.5353,-4.2308,-4.8063,-6.1422,-3.9396,-5.6344,-2.4607,-5.2842,-0.7907,-3.8309,-2.1491,-3.4629,0.3255,-4.8956,-1.4657
-1.0652,-0.5353,-4.2308,-4.8063,-6.1422,-3.9396,-5.6344,-2.4607,-5.2842,-0.7907,-3.8309,-2.1491,-3.4629,0.3255,-4.8956,-1.4657
-1.5201,0.016,-4.2089,-4.8057,-6.1322,-3.9365,-5.5686,-2.4646,-5.2672,-0.7478,-3.8277,-2.1411,-3.4232,0.3285,-4.8805,-1.4621
-1.5201,0.016,-4.2089,-4.8057,-6.1322,-3.9365,-5.5686,-2.4646,-5.2672,-0.7478,-3.8277,-2.1411,-3.4232,0.3285,-4.8805,-1.4621
-1.5201,0.016,-4.2089,-4.8057,-6.1322,-3.9365,-5.5686,-2.4646,-5.2672,-0.7478,-3.8277,-2.1411,-3.4232,0.3285,-4.8805,-1.4621
-1.8906,0.5503,-4.1726,-4.7937,-6.0839,-3.9267,-5.4791,-2.4364,-5.1908,-0.6888,-3.7947,-2.1254,-3.3271,0.3256,-4.8415,-1.4515
-1.8906,0.5503,-4.1726,-4.7937,-6.0839,-3.9267,-5.4791,-2.4364,-5.1908,-0.6888,-3.7947,-2.1254,-3.3271,0.3256,-4.8415,-1.4515
-2.1357,0.6956,-4.134,-4.7741,-6.0202,-3.9122,-5.3726,-2.3908,-5.1253,-0.6128,-3.7425,-2.1118,-3.1919,0.3204,-4.7795,-1.4375
-2.1357,0.6956,-4.134,-4.7741,-6.0202,-3.9122,-5.3726,-2.3908,-5.1253,-0.6128,-3.7425,-2.1118,-3.1919,0.3204,-4.7795,-1.4375
-2.2992,0.5202,-4.0776,-4.769,-5.9583,-3.9038,-5.2622,-2.3388,-5.0049,-0.5806,-3.6825,-2.0963,-3.0678,0.325,-4.7088,-1.4221
-2.2992,0.5202,-4.0776,-4.769,-5.9583,-3.9038,-5.2622,-2.3388,-5.0049,-0.5806,-3.6825,-2.0963,-3.0678,0.325,-4.7088,-1.4221
-2.2992,0.5202,-4.0776,-4.769,-5.9583,-3.9038,-5.2622,-2.3388,-5.0049,-0.5806,-3.6825,-2.0963,-3.0678,0.325,-4.7088,-1.4221
-2.4384,0.1158,-3.9935,-4.7821,-5.9196,-3.8972,-5.1666,-2.2899,-4.901,-0.5922,-3.6021,-2.0972,-2.9782,0.3419,-4.6354,-1.4076
-2.4384,0.1158,-3.9935,-4.7821,-5.9196,-3.8972,-5.1666,-2.2899,-4.901,-0.5922,-3.6021,-2.0972,-2.9782,0.3419,-4.6354,-1.4076
-2.4384,0.1158,-3.9935,-4.7821,-5.9196,-3.8972,-5.1666,-2.2899,-4.901,-0.5922,-3.6021,-2.0972,-2.9782,0.3419,-4.6354,-1.4076
-2.1207,-0.541,-3.8379,-4.7994,-5.847,-3.8856,-5.0018,-2.245,-4.6062,-0.6335,-3.4468,-2.1152,-2.9117,0.4162,-4.5342,-1.3906
-2.1207,-0.541,-3.8379,-4.7994,-5.847,-3.8856,-5.0018,-2.245,-4.6062,-0.6335,-3.4468,-2.1152,-2.9117,0.4162,-4.5342,-1.3906
-1.6619,-0.7031,-3.7906,-4.791,-5.8111,-3.8745,-4.9414,-2.2372,-4.3256,-0.7201,-3.3874,-2.1362,-2.9052,0.4457,-4.5056,-1.3859
-1.6619,-0.7031,-3.7906,-4.791,-5.8111,-3.8745,-4.9414,-2.2372,-4.3256,-0.7201,-3.3874,-2.1362,-2.9052,0.4457,-4.5056,-1.3859
-1.4806,-0.6602,-3.7989,-4.746,-5.774,-3.874,-4.8982,-2.2361,-4.1074,-0.7845,-3.3678,-2.1385,-2.9087,0.4585,-4.4862,-1.3841
-1.4806,-0.6602,-3.7989,-4.746,-5.774,-3.874,-4.8982,-2.2361,-4.1074,-0.7845,-3.3678,-2.1385,-2.9087,0.4585,-4.4862,-1.3841
-1.3469,-0.5451,-3.8136,-4.7029,-5.7668,-3.8664,-4.8692,-2.2408,-4.0199,-0.8028,-3.3721,-2.1324,-2.9087,0.4585,-4.4692,-1.3862
-1.3469,-0.5451,-3.8136,-4.7029,-5.7668,-3.8664,-4.8692,-2.2408,-4.0199,-0.8028,-3.3721,-2.1324,-2.9087,0.4585,-4.4692,-1.3862
-1.3076,-0.3946,-3.819,-4.6841,-5.7482,-3.8661,-4.8465,-2.247,-4.1559,-0.6787,-3.3763,-2.1262,-2.9195,0.4507,-4.4575,-1.3882
-1.3076,-0.3946,-3.819,-4.6841,-5.7482,-3.8661,-4.8465,-2.247,-4.1559,-0.6787,-3.3763,-2.1262,-2.9195,0.4507,-4.4575,-1.3882
-1.3076,-0.3946,-3.819,-4.6841,-5.7482,-3.8661,-4.8465,-2.247,-4.1559,-0.6787,-3.3763,-2.1262,-2.9195,0.4507,-4.4575,-1.3882
-1.3076,-0.3946,-3.819,-4.6841,-5.7482,-3.8661,-4.8465,-2.247,-4.1559,-0.6787,-3.3763,-2.1262,-2.9195,0.4507,-4.4575,-1.3882
-1.372,-0.0928,-3.7864,-4.6872,-5.66,-3.8939,-4.8366,-2.256,-4.5606,-0.523,-3.4027,-2.14,-2.918,0.4097,-4.464,-1.385
-1.372,-0.0928,-3.7864,-4.6872,-5.66,-3.8939,-4.8366,-2.256,-4.5606,-0.523,-3.4027,-2.14,-2.918,0.4097,-4.464,-1.385
-1.4164,-0.1335,-3.767,-4.7151,-5.6756,-3.8986,-4.8492,-2.2643,-4.7787,-0.56,-3.3968,-2.1743,-2.929,0.379,-4.4769,-1.3826
-1.4164,-0.1335,-3.767,-4.7151,-5.6756,-3.8986,-4.8492,-2.2643,-4.7787,-0.56,-3.3968,-2.1743,-2.929,0.379,-4.4769,-1.3826
-1.556,-0.1402,-3.7857,-4.7212,-5.7057,-3.8914,-4.8701,-2.2661,-4.9847,-0.5752,-3.3359,-2.2234,-2.9478,0.3598,-4.4855,-1.3813
-1.556,-0.1402,-3.7857,-4.7212,-5.7057,-3.8914,-4.8701,-2.2661,-4.9847,-0.5752,-3.3359,-2.2234,-2.9478,0.3598,-4.4855,-1.3813
-1.4538,-0.2877,-3.8043,-4.7273,-5.7482,-3.8661,-4.8828,-2.2688,-5.0451,-0.5913,-3.3037,-2.244,-2.9523,0.3586,-4.4886,-1.3807
-1.4538,-0.2877,-3.8043,-4.7273,-5.7482,-3.8661,-4.8828,-2.2688,-5.0451,-0.5913,-3.3037,-2.244,-2.9523,0.3586,-4.4886,-1.3807
-1.07,-0.4232,-3.8245,-4.7201,-5.7887,-3.8348,-4.8909,-2.2678,-4.9934,-0.5971,-3.3009,-2.222,-2.9442,0.37,-4.4849,-1.3798
-1.07,-0.4232,-3.8245,-4.7201,-5.7887,-3.8348,-4.8909,-2.2678,-4.9934,-0.5971,-3.3009,-2.222,-2.9442,0.37,-4.4849,-1.3798
-0.5308,-0.669,-3.8423,-4.7054,-5.797,-3.8319,-4.8893,-2.2647,-4.8895,-0.6088,-3.3313,-2.1652,-2.9342,0.3867,-4.48,-1.378
-0.5308,-0.669,-3.8423,-4.7054,-5.797,-3.8319,-4.8893,-2.2647,-4.8895,-0.6088,-3.3313,-2.1652,-2.9342,0.3867,-4.48,-1.378
-0.233,-0.7743,-3.8462,-4.6998,-5.797,-3.8319,-4.8554,-2.2712,-4.7734,-0.6373,-3.3814,-2.1059,-2.9216,0.3995,-4.4711,-1.3773
-0.233,-0.7743,-3.8462,-4.6998,-5.797,-3.8319,-4.8554,-2.2712,-4.7734,-0.6373,-3.3814,-2.1059,-2.9216,0.3995,-4.4711,-1.3773
-0.3861,-0.5535,-3.8361,-4.7034,-5.7773,-3.8422,-4.815,-2.2819,-4.7003,-0.638,-3.4265,-2.0669,-2.9037,0.4047,-4.4602,-1.3781
-0.3861,-0.5535,-3.8361,-4.7034,-5.7773,-3.8422,-4.815,-2.2819,-4.7003,-0.638,-3.4265,-2.0669,-2.9037,0.4047,-4.4602,-1.3781
-0.7983,-0.0677,-3.8361,-4.7034,-5.7379,-3.863,-4.789,-2.2874,-4.6385,-0.6221,-3.4426,-2.0565,-2.8572,0.3998,-4.4492,-1.3802
-0.7983,-0.0677,-3.8361,-4.7034,-5.7379,-3.863,-4.789,-2.2874,-4.6385,-0.6221,-3.4426,-2.0565,-2.8572,0.3998,-4.4492,-1.3802
-0.7983,-0.0677,-3.8361,-4.7034,-5.7379,-3.863,-4.789,-2.2874,-4.6385,-0.6221,-3.4426,-2.0565,-2.8572,0.3998,-4.4492,-1.3802
-1.3081,0.3445,-3.8385,-4.711,-5.715,-3.8779,-4.7875,-2.2843,-4.6823,-0.594,-3.4655,-2.0623,-2.8,0.3796,-4.4443,-1.3811
-1.3081,0.3445,-3.8385,-4.711,-5.715,-3.8779,-4.7875,-2.2843,-4.6823,-0.594,-3.4655,-2.0623,-2.8,0.3796,-4.4443,-1.3811
-1.6342,0.2852,-3.8393,-4.7318,-5.7243,-3.8916,-4.8185,-2.2715,-4.7671,-0.5767,-3.5036,-2.072,-2.7705,0.3605,-4.4446,-1.3818
-1.6342,0.2852,-3.8393,-4.7318,-5.7243,-3.8916,-4.8185,-2.2715,-4.7671,-0.5767,-3.5036,-2.072,-2.7705,0.3605,-4.4446,-1.3818
-2.1205,0.0593,-3.8587,-4.7585,-5.7573,-3.9071,-4.8687,-2.2574,-4.84,-0.5761,-3.5179,-2.0901,-2.7671,0.3478,-4.4496,-1.381
-2.1205,0.0593,-3.8587,-4.7585,-5.7573,-3.9071,-4.8687,-2.2574,-4.84,-0.5761,-3.5179,-2.0901,-2.7671,0.3478,-4.4496,-1.381
-2.5799,-0.2718,-3.8642,-4.7943,-5.8232,-3.911,-4.925,-2.2503,-4.9037,-0.5536,-3.5052,-2.1084,-2.7886,0.3554,-4.456,-1.3791
-2.8585,-0.5439,-3.8512,-4.824,-5.8683,-3.9085,-4.9584,-2.2549,-4.8834,-0.5482,-3.4731,-2.129,-2.8323,0.3795,-4.4624,-1.3786
-2.8585,-0.5439,-3.8512,-4.824,-5.8683,-3.9085,-4.9584,-2.2549,-4.8834,-0.5482,-3.4731,-2.129,-2.8323,0.3795,-4.4624,-1.3786
-2.8585,-0.5439,-3.8512,-4.824,-5.8683,-3.9085,-4.9584,-2.2549,-4.8834,-0.5482,-3.4731,-2.129,-2.8323,0.3795,-4.4624,-1.3786
-2.7631,-0.6815,-3.8172,-4.8402,-5.8848,-3.9027,-4.9741,-2.2638,-4.7234,-0.6047,-3.4451,-2.1434,-2.8795,0.4163,-4.4684,-1.38
-2.7631,-0.6815,-3.8172,-4.8402,-5.8848,-3.9027,-4.9741,-2.2638,-4.7234,-0.6047,-3.4451,-2.1434,-2.8795,0.4163,-4.4684,-1.38
-2.7631,-0.6815,-3.8172,-4.8402,-5.8848,-3.9027,-4.9741,-2.2638,-4.7234,-0.6047,-3.4451,-2.1434,-2.8795,0.4163,-4.4684,-1.38
-2.459,-0.7371,-3.8249,-4.8291,-5.8816,-3.9072,-4.9801,-2.2763,-4.3887,-0.7356,-3.4248,-2.1598,-2.9258,0.4443,-4.4758,-1.3817
-2.459,-0.7371,-3.8249,-4.8291,-5.8816,-3.9072,-4.9801,-2.2763,-4.3887,-0.7356,-3.4248,-2.1598,-2.9258,0.4443,-4.4758,-1.3817
-1.7006,-0.8483,-3.8834,-4.7666,-5.8816,-3.9072,-4.9745,-2.3054,-4.0265,-0.9012,-3.4485,-2.1514,-2.9793,0.4516,-4.4875,-1.3884
-1.7006,-0.8483,-3.8834,-4.7666,-5.8816,-3.9072,-4.9745,-2.3054,-4.0265,-0.9012,-3.4485,-2.1514,-2.9793,0.4516,-4.4875,-1.3884
-1.5202,-0.8063,-3.9251,-4.7393,-5.8816,-3.9072,-4.9821,-2.3154,-4.1404,-0.7729,-3.457,-2.1392,-2.9855,0.4452,-4.4877,-1.3918
-1.5202,-0.8063,-3.9251,-4.7393,-5.8816,-3.9072,-4.9821,-2.3154,-4.1404,-0.7729,-3.457,-2.1392,-2.9855,0.4452,-4.4877,-1.3918
-1.5202,-0.8063,-3.9251,-4.7393,-5.8816,-3.9072,-4.9821,-2.3154,-4.1404,-0.7729,-3.457,-2.1392,-2.9855,0.4452,-4.4877,-1.3918
-1.4362,-0.622,-3.9551,-4.7287,-5.857,-3.9159,-4.995,-2.3127,-4.3204,-0.6206,-3.4967,-2.1206,-2.9811,0.4465,-4.4922,-1.3928
-1.4362,-0.622,-3.9551,-4.7287,-5.857,-3.9159,-4.995,-2.3127,-4.3204,-0.6206,-3.4967,-2.1206,-2.9811,0.4465,-4.4922,-1.3928
-1.5859,-0.4061,-3.9836,-4.7312,-5.8127,-3.9349,-5.0144,-2.3004,-4.5098,-0.4899,-3.528,-2.1142,-2.9543,0.4544,-4.5012,-1.3909
-1.5926,-0.2939,-4.0081,-4.7393,-5.7767,-3.9511,-5.0322,-2.2905,-4.6903,-0.4772,-3.5583,-2.1219,-2.9462,0.466,-4.5182,-1.3876
-1.6798,-0.373,-4.0372,-4.7625,-5.7756,-3.9616,-5.0655,-2.2895,-4.9066,-0.5148,-3.5675,-2.1599,-2.9605,0.471,-4.5396,-1.3852
-1.6798,-0.373,-4.0372,-4.7625,-5.7756,-3.9616,-5.0655,-2.2895,-4.9066,-0.5148,-3.5675,-2.1599,-2.9605,0.471,-4.5396,-1.3852
-1.7665,-0.4512,-4.0662,-4.7856,-5.8075,-3.9604,-5.1032,-2.2979,-5.1082,-0.5691,-3.5297,-2.2145,-2.9836,0.4734,-4.5601,-1.3853
-1.7665,-0.4512,-4.0662,-4.7856,-5.8075,-3.9604,-5.1032,-2.2979,-5.1082,-0.5691,-3.5297,-2.2145,-2.9836,0.4734,-4.5601,-1.3853
-1.7665,-0.4512,-4.0662,-4.7856,-5.8075,-3.9604,-5.1032,-2.2979,-5.1082,-0.5691,-3.5297,-2.2145,-2.9836,0.4734,-4.5601,-1.3853
-1.7168,-0.5229,-4.0852,-4.8121,-5.8517,-3.9414,-5.1503,-2.3083,-5.1338,-0.6347,-3.4616,-2.2613,-2.9997,0.4733,-4.5764,-1.3878
-1.7168,-0.5229,-4.0852,-4.8121,-5.8517,-3.9414,-5.1503,-2.3083,-5.1338,-0.6347,-3.4616,-2.2613,-2.9997,0.4733,-4.5764,-1.3878
-1.7168,-0.5229,-4.0852,-4.8121,-5.8517,-3.9414,-5.1503,-2.3083,-5.1338,-0.6347,-3.4616,-2.2613,-2.9997,0.4733,-4.5764,-1.3878
-1.569,-0.7359,-4.1064,-4.8461,-5.9154,-3.9122,-5.2065,-2.3208,-5.0168,-0.7008,-3.4338,-2.2757,-3.0112,0.4745,-4.586,-1.3913
-1.0996,-0.9018,-4.1254,-4.8724,-5.9707,-3.8859,-5.2546,-2.3343,-4.8703,-0.7402,-3.4304,-2.2678,-3.0246,0.4705,-4.5947,-1.3947
-1.0996,-0.9018,-4.1254,-4.8724,-5.9707,-3.8859,-5.2546,-2.3343,-4.8703,-0.7402,-3.4304,-2.2678,-3.0246,0.4705,-4.5947,-1.3947
-0.5239,-1.1052,-4.1497,-4.8804,-6.0065,-3.8699,-5.298,-2.344,-4.725,-0.7418,-3.4521,-2.2236,-3.0379,0.4665,-4.6006,-1.3974
-0.5239,-1.1052,-4.1497,-4.8804,-6.0065,-3.8699,-5.298,-2.344,-4.725,-0.7418,-3.4521,-2.2236,-3.0379,0.4665,-4.6006,-1.3974
-0.2309,-1.2087,-4.1679,-4.8863,-6.0349,-3.8733,-5.3287,-2.3564,-4.6428,-0.721,-3.4866,-2.161,-3.0459,0.4549,-4.609,-1.4001
-0.2309,-1.2087,-4.1679,-4.8863,-6.0349,-3.8733,-5.3287,-2.3564,-4.6428,-0.721,-3.4866,-2.161,-3.0459,0.4549,-4.609,-1.4001
-0.4757,-1.0688,-4.2011,-4.8704,-6.0458,-3.8931,-5.3374,-2.3747,-4.6567,-0.666,-3.544,-2.1039,-3.0699,0.4432,-4.617,-1.4033
-0.4757,-1.0688,-4.2011,-4.8704,-6.0458,-3.8931,-5.3374,-2.3747,-4.6567,-0.666,-3.544,-2.1039,-3.0699,0.4432,-4.617,-1.4033
-0.9183,-0.642,-4.2208,-4.8635,-6.068,-3.9055,-5.3352,-2.3933,-4.6823,-0.594,-3.5567,-2.0856,-3.0752,0.4279,-4.6247,-1.407
-0.9183,-0.642,-4.2208,-4.8635,-6.068,-3.9055,-5.3352,-2.3933,-4.6823,-0.594,-3.5567,-2.0856,-3.0752,0.4279,-4.6247,-1.407
-1.5201,0.016,-4.2185,-4.856,-6.0769,-3.9191,-5.3316,-2.4088,-4.7492,-0.5325,-3.5879,-2.0792,-3.085,0.4112,-4.6349,-1.4108
-1.5201,0.016,-4.2185,-4.856,-6.0769,-3.9191,-5.3316,-2.4088,-4.7492,-0.5325,-3.5879,-2.0792,-3.085,0.4112,-4.6349,-1.4108
-1.5201,0.016,-4.2185,-4.856,-6.0769,-3.9191,-5.3316,-2.4088,-4.7492,-0.5325,-3.5879,-2.0792,-3.085,0.4112,-4.6349,-1.4108
-1.5201,0.016,-4.2185,-4.856,-6.0769,-3.9191,-5.3316,-2.4088,-4.7492,-0.5325,-3.5879,-2.0792,-3.085,0.4112,-4.6349,-1.4108
-2.2585,0.5637,-4.2223,-4.8506,-6.0704,-3.955,-5.3655,-2.4163,-4.7609,-0.5157,-3.5752,-2.0975,-3.0154,0.3493,-4.6595,-1.4159
-2.2585,0.5637,-4.2223,-4.8506,-6.0704,-3.955,-5.3655,-2.4163,-4.7609,-0.5157,-3.5752,-2.0975,-3.0154,0.3493,-4.6595,-1.4159
-2.5811,0.222,-4.2328,-4.8675,-6.0934,-3.9837,-5.4199,-2.4095,-4.7902,-0.5433,-3.5583,-2.1219,-3.0209,0.3341,-4.6738,-1.4186
-2.5811,0.222,-4.2328,-4.8675,-6.0934,-3.9837,-5.4199,-2.4095,-4.7902,-0.5433,-3.5583,-2.1219,-3.0209,0.3341,-4.6738,-1.4186
-2.7584,-0.2087,-4.2041,-4.8982,-6.1224,-4.0034,-5.4632,-2.4084,-4.8719,-0.5648,-3.5768,-2.1337,-3.0721,0.3465,-4.6896,-1.4216
-2.7584,-0.2087,-4.2041,-4.8982,-6.1224,-4.0034,-5.4632,-2.4084,-4.8719,-0.5648,-3.5768,-2.1337,-3.0721,0.3465,-4.6896,-1.4216
-2.7584,-0.2087,-4.2041,-4.8982,-6.1224,-4.0034,-5.4632,-2.4084,-4.8719,-0.5648,-3.5768,-2.1337,-3.0721,0.3465,-4.6896,-1.4216
-2.8279,-0.3973,-4.1671,-4.9195,-6.1536,-4.0024,-5.4986,-2.4083,-4.8691,-0.6035,-3.5877,-2.1436,-3.1389,0.3815,-4.7053,-1.4246
-2.8279,-0.3973,-4.1671,-4.9195,-6.1536,-4.0024,-5.4986,-2.4083,-4.8691,-0.6035,-3.5877,-2.1436,-3.1389,0.3815,-4.7053,-1.4246
-2.466,-0.6303,-4.2072,-4.8724,-6.1827,-3.9954,-5.5457,-2.4217,-4.6198,-0.7541,-3.6582,-2.1187,-3.2389,0.4111,-4.7389,-1.4312
-2.466,-0.6303,-4.2072,-4.8724,-6.1827,-3.9954,-5.5457,-2.4217,-4.6198,-0.7541,-3.6582,-2.1187,-3.2389,0.4111,-4.7389,-1.4312
-2.466,-0.6303,-4.2072,-4.8724,-6.1827,-3.9954,-5.5457,-2.4217,-4.6198,-0.7541,-3.6582,-2.1187,-3.2389,0.4111,-4.7389,-1.4312
-2.1978,-0.7251,-4.2495,-4.8327,-6.1908,-3.9926,-5.5592,-2.4275,-4.5992,-0.7489,-3.6774,-2.1165,-3.2538,0.4021,-4.7461,-1.4356
-2.1978,-0.7251,-4.2495,-4.8327,-6.1908,-3.9926,-5.5592,-2.4275,-4.5992,-0.7489,-3.6774,-2.1165,-3.2538,0.4021,-4.7461,-1.4356
-2.0656,-0.7193,-4.2549,-4.8143,-6.1627,-3.9892,-5.5424,-2.4264,-4.6773,-0.6713,-3.6849,-2.1184,-3.239,0.3883,-4.7375,-1.4382
-2.0656,-0.7193,-4.2549,-4.8143,-6.1627,-3.9892,-5.5424,-2.4264,-4.6773,-0.6713,-3.6849,-2.1184,-3.239,0.3883,-4.7375,-1.4382
-2.0232,-0.6816,-4.2466,-4.8048,-6.1054,-3.9928,-5.4843,-2.4186,-4.7902,-0.5433,-3.6582,-2.1187,-3.1838,0.3774,-4.7109,-1.4326
-2.0232,-0.6816,-4.2466,-4.8048,-6.1054,-3.9928,-5.4843,-2.4186,-4.7902,-0.5433,-3.6582,-2.1187,-3.1838,0.3774,-4.7109,-1.4326
-2.0232,-0.6816,-4.2466,-4.8048,-6.1054,-3.9928,-5.4843,-2.4186,-4.7902,-0.5433,-3.6582,-2.1187,-3.1838,0.3774,-4.7109,-1.4326
-2.0232,-0.6816,-4.2225,-4.7968,-6.0032,-3.9988,-5.3863,-2.3966,-4.8891,-0.4704,-3.6238,-2.1171,-3.1222,0.3728,-4.6697,-1.4196
-2.0232,-0.6816,-4.2225,-4.7968,-6.0032,-3.9988,-5.3863,-2.3966,-4.8891,-0.4704,-3.6238,-2.1171,-3.1222,0.3728,-4.6697,-1.4196
-2.0232,-0.6816,-4.2225,-4.7968,-6.0032,-3.9988,-5.3863,-2.3966,-4.8891,-0.4704,-3.6238,-2.1171,-3.1222,0.3728,-4.6697,-1.4196
-2.1078,-0.7569,-4.1043,-4.7846,-5.8444,-3.9609,-5.1291,-2.3284,-5.1141,-0.4918,-3.5178,-2.1545,-3.0303,0.3861,-4.569,-1.386
-2.1078,-0.7569,-4.1043,-4.7846,-5.8444,-3.9609,-5.1291,-2.3284,-5.1141,-0.4918,-3.5178,-2.1545,-3.0303,0.3861,-4.569,-1.386
-1.9322,-0.7137,-4.0157,-4.7826,-5.8015,-3.9152,-5.0081,-2.299,-5.1426,-0.5194,-3.4121,-2.1781,-2.9795,0.4055,-4.5169,-1.3746
-1.9322,-0.7137,-4.0157,-4.7826,-5.8015,-3.9152,-5.0081,-2.299,-5.1426,-0.5194,-3.4121,-2.1781,-2.9795,0.4055,-4.5169,-1.3746
-1.1942,-0.8684,-3.9366,-4.7771,-5.7771,-3.8695,-4.9049,-2.2792,-5.048,-0.5528,-3.3382,-2.1812,-2.9162,0.4149,-4.4719,-1.3674
-1.1942,-0.8684,-3.9366,-4.7771,-5.7771,-3.8695,-4.9049,-2.2792,-5.048,-0.5528,-3.3382,-2.1812,-2.9162,0.4149,-4.4719,-1.3674
-0.6222,-0.9635,-3.8834,-4.7666,-5.767,-3.839,-4.8185,-2.2715,-4.8373,-0.6147,-3.3337,-2.1228,-2.8668,0.4292,-4.4326,-1.3644
-0.6222,-0.9635,-3.8834,-4.7666,-5.767,-3.839,-4.8185,-2.2715,-4.8373,-0.6147,-3.3337,-2.1228,-2.8668,0.4292,-4.4326,-1.3644
-0.4803,-0.742,-3.8362,-4.7581,-5.7578,-3.8252,-4.7376,-2.2764,-4.6682,-0.6494,-3.3447,-2.0679,-2.8165,0.4346,-4.4037,-1.3624
-0.4803,-0.742,-3.8362,-4.7581,-5.7578,-3.8252,-4.7376,-2.2764,-4.6682,-0.6494,-3.3447,-2.0679,-2.8165,0.4346,-4.4037,-1.3624
-0.6932,-0.2193,-3.8013,-4.7536,-5.7526,-3.8236,-4.6841,-2.2788,-4.5648,-0.623,-3.3584,-2.0352,-2.7652,0.431,-4.386,-1.3616
-0.6932,-0.2193,-3.8013,-4.7536,-5.7526,-3.8236,-4.6841,-2.2788,-4.5648,-0.623,-3.3584,-2.0352,-2.7652,0.431,-4.386,-1.3616
-0.6932,-0.2193,-3.8013,-4.7536,-5.7526,-3.8236,-4.6841,-2.2788,-4.5648,-0.623,-3.3584,-2.0352,-2.7652,0.431,-4.386,-1.3616
-1.1108,0.2748,-3.7889,-4.7496,-5.7381,-3.8356,-4.663,-2.2771,-4.5048,-0.5682,-3.3712,-2.0167,-2.6894,0.4158,-4.3751,-1.3598
-1.1108,0.2748,-3.7889,-4.7496,-5.7381,-3.8356,-4.663,-2.2771,-4.5048,-0.5682,-3.3712,-2.0167,-2.6894,0.4158,-4.3751,-1.3598
-1.4601,0.4569,-3.7951,-4.7516,-5.7421,-3.8478,-4.6713,-2.2706,-4.4864,-0.5238,-3.3832,-2.0124,-2.6106,0.3967,-4.3688,-1.3577
-1.4601,0.4569,-3.7951,-4.7516,-5.7421,-3.8478,-4.6713,-2.2706,-4.4864,-0.5238,-3.3832,-2.0124,-2.6106,0.3967,-4.3688,-1.3577
-1.5909,0.3278,-3.8075,-4.7556,-5.7451,-3.8706,-4.696,-2.2563,-4.4655,-0.5184,-3.4062,-2.0183,-2.5599,0.3788,-4.3665,-1.3572
-1.5909,0.3278,-3.8075,-4.7556,-5.7451,-3.8706,-4.696,-2.2563,-4.4655,-0.5184,-3.4062,-2.0183,-2.5599,0.3788,-4.3665,-1.3572
-1.5909,0.3278,-3.8075,-4.7556,-5.7451,-3.8706,-4.696,-2.2563,-4.4655,-0.5184,-3.4062,-2.0183,-2.5599,0.3788,-4.3665,-1.3572
-1.9021,-0.4574,-3.7473,-4.8314,-5.8047,-3.9107,-4.7738,-2.2508,-4.463,-0.5575,-3.3797,-2.0695,-2.5943,0.3967,-4.3706,-1.3588
-1.9021,-0.4574,-3.7473,-4.8314,-5.8047,-3.9107,-4.7738,-2.2508,-4.463,-0.5575,-3.3797,-2.0695,-2.5943,0.3967,-4.3706,-1.3588
-1.9021,-0.4574,-3.7473,-4.8314,-5.8047,-3.9107,-4.7738,-2.2508,-4.463,-0.5575,-3.3797,-2.0695,-2.5943,0.3967,-4.3706,-1.3588
-1.7055,-0.7409,-3.7257,-4.8516,-5.8201,-3.9154,-4.7914,-2.2574,-4.3626,-0.6311,-3.3464,-2.1044,-2.6511,0.4314,-4.3725,-1.3599
-1.7055,-0.7409,-3.7257,-4.8516,-5.8201,-3.9154,-4.7914,-2.2574,-4.3626,-0.6311,-3.3464,-2.1044,-2.6511,0.4314,-4.3725,-1.3599
-1.1942,-0.8684,-3.7387,-4.8219,-5.816,-3.9033,-4.7896,-2.2653,-3.8219,-0.8348,-3.3005,-2.1576,-2.733,0.4866,-4.3671,-1.3613
-1.1942,-0.8684,-3.7387,-4.8219,-5.816,-3.9033,-4.7896,-2.2653,-3.8219,-0.8348,-3.3005,-2.1576,-2.733,0.4866,-4.3671,-1.3613
-1.1942,-0.8684,-3.7387,-4.8219,-5.816,-3.9033,-4.7896,-2.2653,-3.8219,-0.8348,-3.3005,-2.1576,-2.733,0.4866,-4.3671,-1.3613
-1.0075,-0.8273,-3.7695,-4.7774,-5.8037,-3.8941,-4.7783,-2.2656,-3.6204,-0.906,-3.3124,-2.1534,-2.7474,0.4917,-4.3599,-1.3617
-1.0148,-0.6079,-3.802,-4.7197,-5.7914,-3.8849,-4.7589,-2.267,-3.5983,-0.9011,-3.3209,-2.1412,-2.7493,0.4865,-4.3508,-1.3623
-1.0148,-0.6079,-3.802,-4.7197,-5.7914,-3.8849,-4.7589,-2.267,-3.5983,-0.9011,-3.3209,-2.1412,-2.7493,0.4865,-4.3508,-1.3623
-1.0148,-0.6079,-3.802,-4.7197,-5.7914,-3.8849,-4.7589,-2.267,-3.5983,-0.9011,-3.3209,-2.1412,-2.7493,0.4865,-4.3508,-1.3623
-1.0148,-0.6079,-3.802,-4.7197,-5.7914,-3.8849,-4.7589,-2.267,-3.5983,-0.9011,-3.3209,-2.1412,-2.7493,0.4865,-4.3508,-1.3623
-1.2175,-0.3156,-3.8113,-4.6953,-5.7811,-3.8817,-4.7377,-2.2708,-3.7242,-0.793,-3.3217,-2.127,-2.7512,0.4813,-4.3371,-1.3645
-1.2175,-0.3156,-3.8113,-4.6953,-5.7811,-3.8817,-4.7377,-2.2708,-3.7242,-0.793,-3.3217,-2.127,-2.7512,0.4813,-4.3371,-1.3645
-1.2175,-0.3156,-3.8113,-4.6953,-5.7811,-3.8817,-4.7377,-2.2708,-3.7242,-0.793,-3.3217,-2.127,-2.7512,0.4813,-4.3371,-1.3645
-1.4762,0.0574,-3.7771,-4.7116,-5.688,-3.9078,-4.7051,-2.2805,-4.2095,-0.4934,-3.3337,-2.1228,-2.7415,0.4517,-4.3311,-1.3631
-1.4762,0.0574,-3.7771,-4.7116,-5.688,-3.9078,-4.7051,-2.2805,-4.2095,-0.4934,-3.3337,-2.1228,-2.7415,0.4517,-4.3311,-1.3631
-1.5639,-0.025,-3.7514,-4.7375,-5.6682,-3.9182,-4.7067,-2.2837,-4.5098,-0.4899,-3.3355,-2.1591,-2.767,0.4258,-4.3414,-1.3608
-1.5639,-0.025,-3.7514,-4.7375,-5.6682,-3.9182,-4.7067,-2.2837,-4.5098,-0.4899,-3.3355,-2.1591,-2.767,0.4258,-4.3414,-1.3608
-1.556,-0.1402,-3.7422,-4.7619,-5.6911,-3.9033,-4.7179,-2.2888,-4.7609,-0.5157,-3.3178,-2.1976,-2.788,0.4014,-4.3536,-1.3596
-1.556,-0.1402,-3.7422,-4.7619,-5.6911,-3.9033,-4.7179,-2.2888,-4.7609,-0.5157,-3.3178,-2.1976,-2.788,0.4014,-4.3536,-1.3596
-1.556,-0.1402,-3.7422,-4.7619,-5.6911,-3.9033,-4.7179,-2.2888,-4.7609,-0.5157,-3.3178,-2.1976,-2.788,0.4014,-4.3536,-1.3596
-1.556,-0.1402,-3.7422,-4.7619,-5.6911,-3.9033,-4.7179,-2.2888,-4.7609,-0.5157,-3.3178,-2.1976,-2.788,0.4014,-4.3536,-1.3596
-0.7782,-0.5264,-3.7788,-4.7531,-5.7596,-3.8587,-4.7469,-2.295,-4.8196,-0.5707,-3.3509,-2.1629,-2.7918,0.3911,-4.3732,-1.36
-0.7782,-0.5264,-3.7788,-4.7531,-5.7596,-3.8587,-4.7469,-2.295,-4.8196,-0.5707,-3.3509,-2.1629,-2.7918,0.3911,-4.3732,-1.36
-0.432,-0.704,-3.7951,-4.7516,-5.7865,-3.856,-4.7515,-2.3043,-4.7555,-0.5934,-3.401,-2.1037,-2.7872,0.3924,-4.3799,-1.3616
-0.432,-0.704,-3.7951,-4.7516,-5.7865,-3.856,-4.7515,-2.3043,-4.7555,-0.5934,-3.401,-2.1037,-2.7872,0.3924,-4.3799,-1.3616
-0.4803,-0.742,-3.8137,-4.7576,-5.809,-3.8685,-4.743,-2.3219,-4.6797,-0.6327,-3.4503,-2.0585,-2.7944,0.395,-4.3859,-1.3643
-0.4803,-0.742,-3.8137,-4.7576,-5.809,-3.8685,-4.743,-2.3219,-4.6797,-0.6327,-3.4503,-2.0585,-2.7944,0.395,-4.3859,-1.3643
-0.7824,-0.4135,-3.8122,-4.7708,-5.8079,-3.879,-4.7313,-2.3387,-4.6269,-0.6388,-3.4783,-2.0439,-2.7872,0.3924,-4.3914,-1.3676
-0.7824,-0.4135,-3.8122,-4.7708,-5.8079,-3.879,-4.7313,-2.3387,-4.6269,-0.6388,-3.4783,-2.0439,-2.7872,0.3924,-4.3914,-1.3676
-0.7824,-0.4135,-3.8122,-4.7708,-5.8079,-3.879,-4.7313,-2.3387,-4.6269,-0.6388,-3.4783,-2.0439,-2.7872,0.3924,-4.3914,-1.3676
-1.1333,-0.1206,-3.8371,-4.7788,-5.8057,-3.9002,-4.7555,-2.3411,-4.6154,-0.6555,-3.5045,-2.0578,-2.7631,0.381,-4.4003,-1.371
-1.1333,-0.1206,-3.8371,-4.7788,-5.8057,-3.9002,-4.7555,-2.3411,-4.6154,-0.6555,-3.5045,-2.0578,-2.7631,0.381,-4.4003,-1.371
-1.1333,-0.1206,-3.8371,-4.7788,-5.8057,-3.9002,-4.7555,-2.3411,-4.6154,-0.6555,-3.5045,-2.0578,-2.7631,0.381,-4.4003,-1.371
-1.5122,-0.0996,-3.8541,-4.7979,-5.8303,-3.9186,-4.8088,-2.3331,-4.6567,-0.666,-3.5416,-2.0817,-2.7453,0.3631,-4.4119,-1.373
-2.3842,-0.554,-3.853,-4.8651,-5.9346,-3.929,-4.9343,-2.316,-4.7209,-0.6433,-3.5313,-2.1222,-2.791,0.3822,-4.4332,-1.3772
-2.3842,-0.554,-3.853,-4.8651,-5.9346,-3.929,-4.9343,-2.316,-4.7209,-0.6433,-3.5313,-2.1222,-2.791,0.3822,-4.4332,-1.3772
-2.3842,-0.554,-3.853,-4.8651,-5.9346,-3.929,-4.9343,-2.316,-4.7209,-0.6433,-3.5313,-2.1222,-2.791,0.3822,-4.4332,-1.3772
-2.6757,-0.7124,-3.8138,-4.8997,-5.9713,-3.9295,-4.9805,-2.3178,-4.7324,-0.6267,-3.5111,-2.1385,-2.8329,0.4115,-4.4433,-1.3789
-2.6757,-0.7124,-3.8138,-4.8997,-5.9713,-3.9295,-4.9805,-2.3178,-4.7324,-0.6267,-3.5111,-2.1385,-2.8329,0.4115,-4.4433,-1.3789
-2.6757,-0.7124,-3.8138,-4.8997,-5.9713,-3.9295,-4.9805,-2.3178,-4.7324,-0.6267,-3.5111,-2.1385,-2.8329,0.4115,-4.4433,-1.3789
-2.6757,-0.7124,-3.8138,-4.8997,-5.9713,-3.9295,-4.9805,-2.3178,-4.7324,-0.6267,-3.5111,-2.1385,-2.8329,0.4115,-4.4433,-1.3789
-2.8029,-0.719,-3.7761,-4.9213,-5.9876,-3.9238,-5.001,-2.325,-4.7119,-0.6214,-3.4908,-2.1549,-2.8775,0.4446,-4.4541,-1.3807
-2.8029,-0.719,-3.7761,-4.9213,-5.9876,-3.9238,-5.001,-2.325,-4.7119,-0.6214,-3.4908,-2.1549,-2.8775,0.4446,-4.4541,-1.3807
-2.3769,-0.6618,-3.7952,-4.8938,-5.9744,-3.9251,-5.0179,-2.3425,-4.237,-0.7766,-3.4824,-2.1671,-2.9497,0.4788,-4.4734,-1.3852
-2.3769,-0.6618,-3.7952,-4.8938,-5.9744,-3.9251,-5.0179,-2.3425,-4.237,-0.7766,-3.4824,-2.1671,-2.9497,0.4788,-4.4734,-1.3852
-1.8838,-0.7835,-3.832,-4.8516,-5.9724,-3.919,-5.0161,-2.3503,-4.0727,-0.8346,-3.4984,-2.1568,-2.9578,0.4672,-4.4789,-1.3884
-1.8838,-0.7835,-3.832,-4.8516,-5.9724,-3.919,-5.0161,-2.3503,-4.0727,-0.8346,-3.4984,-2.1568,-2.9578,0.4672,-4.4789,-1.3884
-1.5644,-0.8437,-3.8851,-4.8079,-5.9724,-3.919,-5.0127,-2.3605,-4.0958,-0.8012,-3.5144,-2.1465,-2.9632,0.4517,-4.4809,-1.3929
-1.5644,-0.8437,-3.8851,-4.8079,-5.9724,-3.919,-5.0127,-2.3605,-4.0958,-0.8012,-3.5144,-2.1465,-2.9632,0.4517,-4.4809,-1.3929
-1.5644,-0.8437,-3.8851,-4.8079,-5.9724,-3.919,-5.0127,-2.3605,-4.0958,-0.8012,-3.5144,-2.1465,-2.9632,0.4517,-4.4809,-1.3929
-1.569,-0.7359,-3.9128,-4.7897,-5.9611,-3.9264,-5.0236,-2.3656,-4.2431,-0.6606,-3.5144,-2.1465,-2.966,0.4325,-4.486,-1.3968
-1.569,-0.7359,-3.9128,-4.7897,-5.9611,-3.9264,-5.0236,-2.3656,-4.2431,-0.6606,-3.5144,-2.1465,-2.966,0.4325,-4.486,-1.3968
-1.5798,-0.5172,-3.9428,-4.7791,-5.9222,-3.9469,-5.0379,-2.366,-4.3907,-0.5192,-3.5187,-2.1405,-2.9554,0.4172,-4.4969,-1.3973
-1.5798,-0.5172,-3.9428,-4.7791,-5.9222,-3.9469,-5.0379,-2.366,-4.3907,-0.5192,-3.5187,-2.1405,-2.9554,0.4172,-4.4969,-1.3973
-1.7232,-0.4122,-3.9812,-4.7781,-5.8884,-3.9689,-5.0617,-2.363,-4.5424,-0.4784,-3.5372,-2.1523,-2.9653,0.4005,-4.5145,-1.3954
-1.7232,-0.4122,-3.9812,-4.7781,-5.8884,-3.9689,-5.0617,-2.363,-4.5424,-0.4784,-3.5372,-2.1523,-2.9653,0.4005,-4.5145,-1.3954
-1.7232,-0.4122,-3.9812,-4.7781,-5.8884,-3.9689,-5.0617,-2.363,-4.5424,-0.4784,-3.5372,-2.1523,-2.9653,0.4005,-4.5145,-1.3954
-1.9021,-0.4574,-3.9966,-4.8102,-5.9057,-3.9796,-5.1078,-2.3539,-4.9356,-0.5423,-3.4859,-2.239,-2.9992,0.3952,-4.5554,-1.3909
-1.9021,-0.4574,-3.9966,-4.8102,-5.9057,-3.9796,-5.1078,-2.3539,-4.9356,-0.5423,-3.4859,-2.239,-2.9992,0.3952,-4.5554,-1.3909
-1.9021,-0.4574,-3.9966,-4.8102,-5.9057,-3.9796,-5.1078,-2.3539,-4.9356,-0.5423,-3.4859,-2.239,-2.9992,0.3952,-4.5554,-1.3909
-1.9447,-0.4962,-3.9775,-4.8377,-5.9497,-3.9607,-5.1207,-2.3457,-5.0135,-0.6025,-3.433,-2.2896,-3.0061,0.4207,-4.5725,-1.3922
-1.9447,-0.4962,-3.9775,-4.8377,-5.9497,-3.9607,-5.1207,-2.3457,-5.0135,-0.6025,-3.433,-2.2896,-3.0061,0.4207,-4.5725,-1.3922
-1.7543,-0.6705,-3.9783,-4.8582,-5.9966,-3.9374,-5.1336,-2.3376,-4.9361,-0.6797,-3.4045,-2.3179,-2.9962,0.4605,-4.5873,-1.3956
-1.7543,-0.6705,-3.9783,-4.8582,-5.9966,-3.9374,-5.1336,-2.3376,-4.9361,-0.6797,-3.4045,-2.3179,-2.9962,0.4605,-4.5873,-1.3956
-1.7543,-0.6705,-3.9783,-4.8582,-5.9966,-3.9374,-5.1336,-2.3376,-4.9361,-0.6797,-3.4045,-2.3179,-2.9962,0.4605,-4.5873,-1.3956
-0.475,-1.2813,-3.9776,-4.8916,-6.0854,-3.8892,-5.1749,-2.3248,-4.597,-0.7871,-3.4642,-2.2832,-2.9701,0.547,-4.6166,-1.4051
-0.475,-1.2813,-3.9776,-4.8916,-6.0854,-3.8892,-5.1749,-2.3248,-4.597,-0.7871,-3.4642,-2.2832,-2.9701,0.547,-4.6166,-1.4051
0.2116,-1.5238,-3.9937,-4.89,-6.0985,-3.8879,-5.1967,-2.3296,-4.5119,-0.8047,-3.5364,-2.2303,-2.9719,0.5651,-4.6324,-1.4095
0.2116,-1.5238,-3.9937,-4.89,-6.0985,-3.8879,-5.1967,-2.3296,-4.5119,-0.8047,-3.5364,-2.2303,-2.9719,0.5651,-4.6324,-1.4095
0.4113,-1.5944,-4.0235,-4.8795,-6.1186,-3.8943,-5.2262,-2.3389,-4.4932,-0.7613,-3.5986,-2.1535,-2.9835,0.5663,-4.647,-1.4129
0.4113,-1.5944,-4.0235,-4.8795,-6.1186,-3.8943,-5.2262,-2.3389,-4.4932,-0.7613,-3.5986,-2.1535,-2.9835,0.5663,-4.647,-1.4129
0.0657,-1.3135,-4.057,-4.8636,-6.1306,-3.9035,-5.2334,-2.3597,-4.53,-0.673,-3.6365,-2.0988,-3.0058,0.5596,-4.6591,-1.4164
0.0657,-1.3135,-4.057,-4.8636,-6.1306,-3.9035,-5.2334,-2.3597,-4.53,-0.673,-3.6365,-2.0988,-3.0058,0.5596,-4.6591,-1.4164
-0.5787,-0.7072,-4.0867,-4.8531,-6.1414,-3.9232,-5.242,-2.3835,-4.6203,-0.578,-3.6567,-2.0825,-3.0263,0.5348,-4.6719,-1.4201
-0.5787,-0.7072,-4.0867,-4.8531,-6.1414,-3.9232,-5.242,-2.3835,-4.6203,-0.578,-3.6567,-2.0825,-3.0263,0.5348,-4.6719,-1.4201
-1.3879,0.1406,-4.1004,-4.8441,-6.1403,-3.9336,-5.257,-2.4031,-4.6436,-0.5445,-3.6642,-2.0844,-3.0325,0.5051,-4.6839,-1.4236
-1.3879,0.1406,-4.1004,-4.8441,-6.1403,-3.9336,-5.257,-2.4031,-4.6436,-0.5445,-3.6642,-2.0844,-3.0325,0.5051,-4.6839,-1.4236
-1.9571,0.7508,-4.1103,-4.8406,-6.1199,-3.9542,-5.2847,-2.4147,-4.6346,-0.5223,-3.6482,-2.0947,-3.0006,0.4591,-4.696,-1.4271
-1.9571,0.7508,-4.1103,-4.8406,-6.1199,-3.9542,-5.2847,-2.4147,-4.6346,-0.5223,-3.6482,-2.0947,-3.0006,0.4591,-4.696,-1.4271
-2.4196,0.7959,-4.1209,-4.8575,-6.1146,-3.9795,-5.3468,-2.4176,-4.6965,-0.5385,-3.6196,-2.1232,-2.9848,0.4132,-4.7128,-1.4297
-2.4196,0.7959,-4.1209,-4.8575,-6.1146,-3.9795,-5.3468,-2.4176,-4.6965,-0.5385,-3.6196,-2.1232,-2.9848,0.4132,-4.7128,-1.4297
-2.4196,0.7959,-4.1209,-4.8575,-6.1146,-3.9795,-5.3468,-2.4176,-4.6965,-0.5385,-3.6196,-2.1232,-2.9848,0.4132,-4.7128,-1.4297
-2.6843,0.3708,-4.1164,-4.8963,-6.1486,-4.0008,-5.4118,-2.4213,-4.735,-0.588,-3.6178,-2.1513,-3.0143,0.3862,-4.7337,-1.4326
-2.6843,0.3708,-4.1164,-4.8963,-6.1486,-4.0008,-5.4118,-2.4213,-4.735,-0.588,-3.6178,-2.1513,-3.0143,0.3862,-4.7337,-1.4326
-2.6843,0.3708,-4.1164,-4.8963,-6.1486,-4.0008,-5.4118,-2.4213,-4.735,-0.588,-3.6178,-2.1513,-3.0143,0.3862,-4.7337,-1.4326
-2.6497,0.0245,-4.0914,-4.9216,-6.1686,-4.0071,-5.4595,-2.4239,-4.7003,-0.638,-3.6212,-2.1593,-3.0727,0.4011,-4.7473,-1.4339
-2.6497,0.0245,-4.0914,-4.9216,-6.1686,-4.0071,-5.4595,-2.4239,-4.7003,-0.638,-3.6212,-2.1593,-3.0727,0.4011,-4.7473,-1.4339
-2.1626,-0.5794,-4.1087,-4.8535,-6.1508,-3.9801,-5.4217,-2.4018,-4.4076,-0.7791,-3.6347,-2.127,-3.1044,0.4238,-4.719,-1.4245
-2.1626,-0.5794,-4.1087,-4.8535,-6.1508,-3.9801,-5.4217,-2.4018,-4.4076,-0.7791,-3.6347,-2.127,-3.1044,0.4238,-4.719,-1.4245
-2.1626,-0.5794,-4.1087,-4.8535,-6.1508,-3.9801,-5.4217,-2.4018,-4.4076,-0.7791,-3.6347,-2.127,-3.1044,0.4238,-4.719,-1.4245
-1.9322,-0.7137,-4.0806,-4.7971,-6.0836,-3.9537,-5.2985,-2.3742,-4.2678,-0.8034,-3.5819,-2.1135,-3.0575,0.4331,-4.6651,-1.4152
-1.7006,-0.8483,-4.0387,-4.7494,-6.0079,-3.9301,-5.1553,-2.3479,-4.239,-0.7381,-3.5213,-2.0981,-2.9784,0.4426,-4.5939,-1.4058
-1.7006,-0.8483,-4.0387,-4.7494,-6.0079,-3.9301,-5.1553,-2.3479,-4.239,-0.7381,-3.5213,-2.0981,-2.9784,0.4426,-4.5939,-1.4058
-1.7006,-0.8483,-4.0387,-4.7494,-6.0079,-3.9301,-5.1553,-2.3479,-4.239,-0.7381,-3.5213,-2.0981,-2.9784,0.4426,-4.5939,-1.4058
-1.4716,-0.8765,-3.9551,-4.7287,-5.9236,-3.9093,-4.9978,-2.3243,-4.2664,-0.6269,-3.4366,-2.0911,-2.8685,0.4472,-4.5216,-1.3963
-1.4716,-0.8765,-3.9551,-4.7287,-5.9236,-3.9093,-4.9978,-2.3243,-4.2664,-0.6269,-3.4366,-2.0911,-2.8685,0.4472,-4.5216,-1.3963
-1.342,-0.6553,-3.8144,-4.7237,-5.7315,-3.8993,-4.755,-2.294,-4.4103,-0.3837,-3.3438,-2.0821,-2.68,0.4416,-4.4173,-1.3789
-1.342,-0.6553,-3.8144,-4.7237,-5.7315,-3.8993,-4.755,-2.294,-4.4103,-0.3837,-3.3438,-2.0821,-2.68,0.4416,-4.4173,-1.3789
-1.342,-0.6553,-3.8144,-4.7237,-5.7315,-3.8993,-4.755,-2.294,-4.4103,-0.3837,-3.3438,-2.0821,-2.68,0.4416,-4.4173,-1.3789
-1.5249,-0.6981,-3.7841,-4.7344,-5.6714,-3.9137,-4.6953,-2.284,-4.5388,-0.377,-3.343,-2.0963,-2.661,0.4378,-4.3992,-1.37
-1.5249,-0.6981,-3.7841,-4.7344,-5.6714,-3.9137,-4.6953,-2.284,-4.5388,-0.377,-3.343,-2.0963,-2.661,0.4378,-4.3992,-1.37
-1.6619,-0.7031,-3.7461,-4.7563,-5.661,-3.9106,-4.6581,-2.2789,-4.7048,-0.421,-3.3371,-2.1308,-2.6773,0.4377,-4.3919,-1.3643
-1.6619,-0.7031,-3.7461,-4.7563,-5.661,-3.9106,-4.6581,-2.2789,-4.7048,-0.421,-3.3371,-2.1308,-2.6773,0.4377,-4.3919,-1.3643
-1.7109,-0.6324,-3.7056,-4.7706,-5.6798,-3.8835,-4.6371,-2.2716,-4.7958,-0.4653,-3.304,-2.1657,-2.6918,0.4428,-4.3871,-1.3626
-1.7109,-0.6324,-3.7056,-4.7706,-5.6798,-3.8835,-4.6371,-2.2716,-4.7958,-0.4653,-3.304,-2.1657,-2.6918,0.4428,-4.3871,-1.3626
-1.7109,-0.6324,-3.7056,-4.7706,-5.6798,-3.8835,-4.6371,-2.2716,-4.7958,-0.4653,-3.304,-2.1657,-2.6918,0.4428,-4.3871,-1.3626
-0.7191,-0.9292,-3.651,-4.7941,-5.7475,-3.822,-4.6142,-2.2724,-4.6319,-0.5613,-3.2646,-2.1703,-2.6907,0.457,-4.3762,-1.3621
-0.7191,-0.9292,-3.651,-4.7941,-5.7475,-3.822,-4.6142,-2.2724,-4.6319,-0.5613,-3.2646,-2.1703,-2.6907,0.457,-4.3762,-1.3621
-0.7191,-0.9292,-3.651,-4.7941,-5.7475,-3.822,-4.6142,-2.2724,-4.6319,-0.5613,-3.2646,-2.1703,-2.6907,0.457,-4.3762,-1.3621
-0.0321,-1.064,-3.6385,-4.7901,-5.7672,-3.8116,-4.6093,-2.2741,-4.5023,-0.6071,-3.2901,-2.1336,-2.6816,0.4596,-4.3708,-1.3635
-0.0321,-1.064,-3.6385,-4.7901,-5.7672,-3.8116,-4.6093,-2.2741,-4.5023,-0.6071,-3.2901,-2.1336,-2.6816,0.4596,-4.3708,-1.3635
-0.0321,-1.064,-3.6385,-4.7901,-5.7672,-3.8116,-4.6093,-2.2741,-4.5023,-0.6071,-3.2901,-2.1336,-2.6816,0.4596,-4.3708,-1.3635
0.4205,-1.278,-3.6322,-4.7881,-5.7744,-3.8194,-4.6043,-2.2814,-4.3393,-0.6647,-3.3319,-2.0864,-2.6816,0.4596,-4.3662,-1.3651
0.4226,-1.1704,-3.6399,-4.7769,-5.7701,-3.8345,-4.5745,-2.2974,-4.3161,-0.6982,-3.3686,-2.0595,-2.6835,0.4545,-4.3635,-1.3679
0.4226,-1.1704,-3.6399,-4.7769,-5.7701,-3.8345,-4.5745,-2.2974,-4.3161,-0.6982,-3.3686,-2.0595,-2.6835,0.4545,-4.3635,-1.3679
0.4226,-1.1704,-3.6399,-4.7769,-5.7701,-3.8345,-4.5745,-2.2974,-4.3161,-0.6982,-3.3686,-2.0595,-2.6835,0.4545,-4.3635,-1.3679
-0.0347,-0.6216,-3.6234,-4.7785,-5.7773,-3.8422,-4.5563,-2.3075,-4.2854,-0.671,-3.3848,-2.0491,-2.6663,0.4455,-4.362,-1.3675
-0.0347,-0.6216,-3.6234,-4.7785,-5.7773,-3.8422,-4.5563,-2.3075,-4.2854,-0.671,-3.3848,-2.0491,-2.6663,0.4455,-4.362,-1.3675
-0.0347,-0.6216,-3.6234,-4.7785,-5.7773,-3.8422,-4.5563,-2.3075,-4.2854,-0.671,-3.3848,-2.0491,-2.6663,0.4455,-4.362,-1.3675
-1.2379,0.0303,-3.6399,-4.7769,-5.7771,-3.8695,-4.5813,-2.2877,-4.311,-0.5985,-3.3797,-2.0695,-2.5893,0.4212,-4.358,-1.3632
-1.2379,0.0303,-3.6399,-4.7769,-5.7771,-3.8695,-4.5813,-2.2877,-4.311,-0.5985,-3.3797,-2.0695,-2.5893,0.4212,-4.358,-1.3632
-1.6075,-0.0659,-3.6002,-4.812,-5.7945,-3.8804,-4.6044,-2.2759,-4.3438,-0.5869,-3.3626,-2.0941,-2.5828,0.4277,-4.3546,-1.3618
-1.6075,-0.0659,-3.6002,-4.812,-5.7945,-3.8804,-4.6044,-2.2759,-4.3438,-0.5869,-3.3626,-2.0941,-2.5828,0.4277,-4.3546,-1.3618
-1.6363,-0.3335,-3.5377,-4.8467,-5.8017,-3.888,-4.6175,-2.2731,-4.2898,-0.5932,-3.326,-2.1209,-2.6062,0.4534,-4.3501,-1.3608
-1.6363,-0.3335,-3.5377,-4.8467,-5.8017,-3.888,-4.6175,-2.2731,-4.2898,-0.5932,-3.326,-2.1209,-2.6062,0.4534,-4.3501,-1.3608
-1.3971,-0.4729,-3.4969,-4.8612,-5.7883,-3.8894,-4.6192,-2.2706,-4.1131,-0.6684,-3.3005,-2.1576,-2.6341,0.4779,-4.3468,-1.3607
-1.3971,-0.4729,-3.4969,-4.8612,-5.7883,-3.8894,-4.6192,-2.2706,-4.1131,-0.6684,-3.3005,-2.1576,-2.6341,0.4779,-4.3468,-1.3607
-1.2519,-0.5787,-3.5124,-4.8389,-5.7914,-3.8849,-4.6192,-2.2706,-3.8133,-0.7743,-3.2801,-2.1741,-2.6613,0.4934,-4.3456,-1.3597
-1.2519,-0.5787,-3.5124,-4.8389,-5.7914,-3.8849,-4.6192,-2.2706,-3.8133,-0.7743,-3.2801,-2.1741,-2.6613,0.4934,-4.3456,-1.3597
-1.2519,-0.5787,-3.5124,-4.8389,-5.7914,-3.8849,-4.6192,-2.2706,-3.8133,-0.7743,-3.2801,-2.1741,-2.6613,0.4934,-4.3456,-1.3597
-1.1109,-0.5739,-3.537,-4.7922,-5.7894,-3.8788,-4.6175,-2.2731,-3.6113,-0.8457,-3.292,-2.1699,-2.6776,0.4933,-4.3422,-1.361
-1.1109,-0.5739,-3.537,-4.7922,-5.7894,-3.8788,-4.6175,-2.2731,-3.6113,-0.8457,-3.292,-2.1699,-2.6776,0.4933,-4.3422,-1.361
-1.1157,-0.4624,-3.5744,-4.7493,-5.7894,-3.8788,-4.619,-2.2762,-3.623,-0.8288,-3.3082,-2.1595,-2.6958,0.488,-4.3375,-1.3639
-1.1786,-0.1612,-3.5939,-4.7213,-5.776,-3.8801,-4.614,-2.2835,-3.8166,-0.6965,-3.3244,-2.1492,-2.7186,0.4815,-4.334,-1.3678
-1.1786,-0.1612,-3.5939,-4.7213,-5.776,-3.8801,-4.614,-2.2835,-3.8166,-0.6965,-3.3244,-2.1492,-2.7186,0.4815,-4.334,-1.3678
-1.2379,0.0303,-3.6041,-4.7176,-5.7677,-3.8831,-4.6154,-2.2921,-4.0237,-0.5074,-3.3363,-2.145,-2.7367,0.4762,-4.3339,-1.3704
-1.2379,0.0303,-3.6041,-4.7176,-5.7677,-3.8831,-4.6154,-2.2921,-4.0237,-0.5074,-3.3363,-2.145,-2.7367,0.4762,-4.3339,-1.3704
-1.3436,0.1825,-3.5963,-4.7289,-5.7201,-3.9067,-4.6234,-2.3021,-4.2194,-0.3342,-3.3321,-2.1511,-2.7332,0.4633,-4.3403,-1.3713
