23522,54.3,19.049,0,0.00090275,0,23735,57.694,0,0,0,0,0.008007,0
23522,54.3,19.049,0,0.00090275,0,23735,57.694,0,0,0,0,0.008007,0
23522,54.3,19.049,0,0.00090275,0,23735,57.694,0,0,0,0,0.008007,0
23522,54.3,19.049,0,0.00090275,0,23735,57.694,0,0,0,0,0.008007,0
23524,54.3,19.049,0,0.0010959,0,23735,57.694,0,0,0,0,0.0080647,0
23524,54.3,19.049,0,0.0010959,0,23735,57.694,0,0,0,0,0.0080647,0
23524,54.3,19.049,0,0.0010959,0,23735,57.694,0,0,0,0,0.0080647,0
23524,54.3,19.049,0,0.0010959,0,23735,57.694,0,0,0,0,0.0080647,0
23525,54.3,19.049,0,0.0012963,0,23735,57.694,0,0,0,0,0.0081233,0
23525,54.3,19.049,0,0.0012963,0,23735,57.694,0,0,0,0,0.0081233,0
23525,54.3,19.049,0,0.0012963,0,23735,57.694,0,0,0,0,0.0081233,0
23525,54.3,19.049,0,0.0012963,0,23735,57.694,0,0,0,0,0.0081233,0
23525,54.3,19.049,0,0.0012963,0,23735,57.694,0,0,0,0,0.0081233,0
23525,54.3,19.049,0,0.0012963,0,23735,57.694,0,0,0,0,0.0081233,0
23525,54.3,19.049,0,0.0012963,0,23735,57.694,0,0,0,0,0.0081233,0
23525,54.3,19.049,0,0.0012963,0,23735,57.694,0,0,0,0,0.0081233,0
23525,54.3,19.049,0,0.0012963,0,23735,57.694,0,0,0,0,0.0081233,0
23526,54.3,19.049,0,0.0014511,0,23735,57.694,0,0,0,0,0.0081678,0
23526,54.3,19.049,0,0.0014511,0,23735,57.694,0,0,0,0,0.0081678,0
23526,54.3,19.049,0,0.0014511,0,23735,57.694,0,0,0,0,0.0081678,0
23526,54.3,19.049,0,0.0014511,0,23735,57.694,0,0,0,0,0.0081678,0
23526,54.3,19.049,0,0.0014511,0,23735,57.694,0,0,0,0,0.0081678,0
23526,54.3,19.049,0,0.0014511,0,23735,57.694,0,0,0,0,0.0081678,0
23526,54.3,19.049,0,0.0014511,0,23735,57.694,0,0,0,0,0.0081678,0
23526,54.3,19.049,0,0.0014511,0,23735,57.694,0,0,0,0,0.0081678,0
23526,54.3,19.049,0,0.0014511,0,23735,57.694,0,0,0,0,0.0081678,0
23526,54.3,19.049,0,0.0014511,0,23735,57.694,0,0,0,0,0.0081678,0
23527,54.3,19.049,0,0.0015568,0,23735,57.694,0,0,0,0,0.0081977,0
23527,54.3,19.049,0,0.0015568,0,23735,57.694,0,0,0,0,0.0081977,0
23527,54.3,19.049,0,0.0015568,0,23735,57.694,0,0,0,0,0.0081977,0
23527,54.3,19.049,0,0.0015568,0,23735,57.694,0,0,0,0,0.0081977,0
23528,54.3,19.05,0,0.0016642,0,23735,57.694,0,0,0,0,0.0082278,0
23529,54.3,19.05,0,0.0018821,0,23735,57.694,0,0,0,0,0.0082888,0
23529,54.3,19.05,0,0.0018821,0,23735,57.694,0,0,0,0,0.0082888,0
23529,54.3,19.05,0,0.0018821,0,23735,57.694,0,0,0,0,0.0082888,0
23531,54.3,19.05,0,0.0020499,0,23735,57.694,0,0,0,0,0.0083351,0
23531,54.3,19.05,0,0.0020499,0,23735,57.694,0,0,0,0,0.0083351,0
23531,54.3,19.05,0,0.0020499,0,23735,57.694,0,0,0,0,0.0083351,0
23531,54.3,19.05,0,0.0020499,0,23735,57.694,0,0,0,0,0.0083351,0
23531,54.3,19.05,0,0.0020499,0,23735,57.694,0,0,0,0,0.0083351,0
23531,54.3,19.05,0,0.0020499,0,23735,57.694,0,0,0,0,0.0083351,0
23531,54.3,19.05,0,0.0020499,0,23735,57.694,0,0,0,0,0.0083351,0
23531,54.3,19.05,0,0.0020499,0,23735,57.694,0,0,0,0,0.0083351,0
23531,54.3,19.05,0,0.0020499,0,23735,57.694,0,0,0,0,0.0083351,0
23531,54.3,19.05,0,0.0020499,0,23735,57.694,0,0,0,0,0.0083351,0
23531,54.3,19.05,0,0.0021629,0,23735,57.694,0,0,0,0,0.0083662,0
23531,54.3,19.05,0,0.0021629,0,23735,57.694,0,0,0,0,0.0083662,0
23531,54.3,19.05,0,0.0021629,0,23735,57.694,0,0,0,0,0.0083662,0
23531,54.3,19.05,0,0.0021629,0,23735,57.694,0,0,0,0,0.0083662,0
23531,54.3,19.05,0,0.0021629,0,23735,57.694,0,0,0,0,0.0083662,0
23531,54.3,19.05,0,0.0021629,0,23735,57.694,0,0,0,0,0.0083662,0
23531,54.3,19.05,0,0.0021629,0,23735,57.694,0,0,0,0,0.0083662,0
23531,54.3,19.05,0,0.0021629,0,23735,57.694,0,0,0,0,0.0083662,0
23532,54.3,19.05,0,0.0022198,0,23735,57.694,0,0,0,0,0.0083819,0
23532,54.3,19.05,0,0.0022198,0,23735,57.694,0,0,0,0,0.0083819,0
23532,54.3,19.05,0,0.0022198,0,23735,57.694,0,0,0,0,0.0083819,0
23532,54.3,19.05,0,0.0022198,0,23735,57.694,0,0,0,0,0.0083819,0
23532,54.3,19.05,0,0.0023356,0,23735,57.694,0,0,0,0,0.0084134,0
23534,54.3,19.05,0,0.0025104,0,23735,57.694,0,0,0,0,0.0084611,0
23534,54.3,19.05,0,0.0025104,0,23735,57.694,0,0,0,0,0.0084611,0
23534,54.3,19.05,0,0.0025104,0,23735,57.694,0,0,0,0,0.0084611,0
23536,54.3,19.05,0,0.0028089,0,23735,57.694,0,0,0,0,0.0085419,0
23536,54.3,19.05,0,0.0028089,0,23735,57.694,0,0,0,0,0.0085419,0
23536,54.3,19.05,0,0.0028089,0,23735,57.694,0,0,0,0,0.0085419,0
23536,54.3,19.05,0,0.0028089,0,23735,57.694,0,0,0,0,0.0085419,0
23536,54.3,19.05,0,0.0028089,0,23735,57.694,0,0,0,0,0.0085419,0
23536,54.3,19.05,0,0.0028089,0,23735,57.694,0,0,0,0,0.0085419,0
23536,54.3,19.05,0,0.0028089,0,23735,57.694,0,0,0,0,0.0085419,0
23536,54.3,19.05,0,0.0028089,0,23735,57.694,0,0,0,0,0.0085419,0
23536,54.3,19.05,0,0.0028089,0,23735,57.694,0,0,0,0,0.0085419,0
23536,54.3,19.05,0,0.0028089,0,23735,57.694,0,0,0,0,0.0085419,0
23536,54.3,19.05,0,0.0028089,0,23735,57.694,0,0,0,0,0.0085419,0
23536,54.3,19.051,0,0.0029298,0,23735,57.694,0,0,0,0,0.0085746,0
23536,54.3,19.051,0,0.0029298,0,23735,57.694,0,0,0,0,0.0085746,0
23536,54.3,19.051,0,0.0029298,0,23735,57.694,0,0,0,0,0.0085746,0
23536,54.3,19.051,0,0.0029298,0,23735,57.694,0,0,0,0,0.0085746,0
23536,54.3,19.051,0,0.0029298,0,23735,57.694,0,0,0,0,0.0085746,0
23536,54.3,19.051,0,0.0029298,0,23735,57.694,0,0,0,0,0.0085746,0
23536,54.3,19.051,0,0.0029298,0,23735,57.694,0,0,0,0,0.0085746,0
23537,54.3,19.051,0,0.0029906,0,23735,57.694,0,0,0,0,0.0085911,0
23537,54.3,19.051,0,0.0029906,0,23735,57.694,0,0,0,0,0.0085911,0
23537,54.3,19.051,0,0.0030525,0,23735,57.694,0,0,0,0,0.0086076,0
23537,54.3,19.051,0,0.0030525,0,23735,57.694,0,0,0,0,0.0086076,0
23537,54.3,19.051,0,0.0030525,0,23735,57.694,0,0,0,0,0.0086076,0
23537,54.3,19.051,0,0.0030525,0,23735,57.694,0,0,0,0,0.0086076,0
23539,54.3,19.051,0,0.003426,0,23735,57.694,0,0,0,0,0.0087081,0
23539,54.3,19.051,0,0.003426,0,23735,57.694,0,0,0,0,0.0087081,0
23540,54.3,19.051,0,0.003552,0,23735,57.694,0,0,0,0,0.0087421,0
23540,54.3,19.051,0,0.003616,0,23735,57.694,0,0,0,0,0.0087592,0
23540,54.3,19.051,0,0.003616,0,23735,57.694,0,0,0,0,0.0087592,0
23541,54.3,19.051,0,0.0036797,0,23735,57.694,0,0,0,0,0.0087764,0
23541,54.3,19.051,0,0.0036797,0,23735,57.694,0,0,0,0,0.0087764,0
23541,54.3,19.051,0,0.0036797,0,23735,57.694,0,0,0,0,0.0087764,0
23541,54.3,19.051,0,0.0036797,0,23735,57.694,0,0,0,0,0.0087764,0
23541,54.3,19.051,0,0.0036797,0,23735,57.694,0,0,0,0,0.0087764,0
23541,54.3,19.051,0,0.0036797,0,23735,57.694,0,0,0,0,0.0087764,0
23541,54.3,19.051,0,0.0036797,0,23735,57.694,0,0,0,0,0.0087764,0
23541,54.3,19.051,0,0.0036797,0,23735,57.694,0,0,0,0,0.0087764,0
23542,54.3,19.051,0,0.0038079,0,23735,57.694,0,0,0,0,0.0088109,0
23542,54.3,19.051,0,0.0038079,0,23735,57.694,0,0,0,0,0.0088109,0
23542,54.3,19.051,0,0.0038079,0,23735,57.694,0,0,0,0,0.0088109,0
23542,54.3,19.051,0,0.0038079,0,23735,57.694,0,0,0,0,0.0088109,0
23542,54.3,19.051,0,0.0038079,0,23735,57.694,0,0,0,0,0.0088109,0
23542,54.3,19.051,0,0.0038079,0,23735,57.694,0,0,0,0,0.0088109,0
23542,54.3,19.051,0,0.0038079,0,23735,57.694,0,0,0,0,0.0088109,0
23542,54.3,19.051,0,0.0038079,0,23735,57.694,0,0,0,0,0.0088109,0
23542,54.3,19.051,0,0.0038079,0,23735,57.694,0,0,0,0,0.0088109,0
23542,54.3,19.051,0,0.0038079,0,23735,57.694,0,0,0,0,0.0088109,0
23542,54.3,19.051,0,0.0038079,0,23735,57.694,0,0,0,0,0.0088109,0
23542,54.3,19.051,0,0.0038079,0,23735,57.694,0,0,0,0,0.0088109,0
23542,54.3,19.052,0,0.0039366,0,23735,57.694,0,0,0,0,0.0088458,0
23542,54.3,19.052,0,0.0039366,0,23735,57.694,0,0,0,0,0.0088458,0
23542,54.3,19.052,0,0.0039366,0,23735,57.694,0,0,0,0,0.0088458,0
23542,54.3,19.052,0,0.0039366,0,23735,57.694,0,0,0,0,0.0088458,0
23542,54.3,19.052,0,0.0039366,0,23735,57.694,0,0,0,0,0.0088458,0
23542,54.3,19.052,0,0.0039366,0,23735,57.694,0,0,0,0,0.0088458,0
23542,54.3,19.052,0,0.0039366,0,23735,57.694,0,0,0,0,0.0088458,0
23542,54.3,19.052,0,0.0039366,0,23735,57.694,0,0,0,0,0.0088458,0
23542,54.3,19.052,0,0.0039366,0,23735,57.694,0,0,0,0,0.0088458,0
23542,54.3,19.052,0,0.0039366,0,23735,57.694,0,0,0,0,0.0088458,0
23542,54.3,19.052,0,0.0039366,0,23735,57.694,0,0,0,0,0.0088458,0
23542,54.3,19.052,0,0.0039366,0,23735,57.694,0,0,0,0,0.0088458,0
23542,54.3,19.052,0,0.0039366,0,23735,57.694,0,0,0,0,0.0088458,0
23542,54.3,19.052,0,0.0039366,0,23735,57.694,0,0,0,0,0.0088458,0
23542,54.3,19.052,0,0.0039366,0,23735,57.694,0,0,0,0,0.0088458,0
23542,54.3,19.052,0,0.0039366,0,23735,57.694,0,0,0,0,0.0088458,0
23542,54.3,19.052,0,0.0039366,0,23735,57.694,0,0,0,0,0.0088458,0
23547,54.3,19.053,0,0.0046634,0,23735,57.694,0,0,0,0,0.0090424,0
23547,54.3,19.053,0,0.0046634,0,23735,57.694,0,0,0,0,0.0090424,0
23547,54.3,19.053,0,0.0047303,0,23735,57.694,0,0,0,0,0.0090607,0
23547,54.3,19.053,0,0.0047303,0,23735,57.694,0,0,0,0,0.0090607,0
23547,54.3,19.053,0,0.0047971,0,23735,57.694,0,0,0,0,0.0090791,0
23549,54.3,19.053,0,0.0050684,0,23735,57.694,0,0,0,0,0.0091533,0
23549,54.3,19.053,0,0.0050684,0,23735,57.694,0,0,0,0,0.0091533,0
23549,54.3,19.053,0,0.0050684,0,23735,57.694,0,0,0,0,0.0091533,0
23549,54.3,19.053,0,0.0050684,0,23735,57.694,0,0,0,0,0.0091533,0
23549,54.3,19.053,0,0.0050684,0,23735,57.694,0,0,0,0,0.0091533,0
23550,54.3,19.053,0,0.0052726,0,23735,57.694,0,0,0,0,0.0092098,0
23550,54.3,19.053,0,0.0052726,0,23735,57.694,0,0,0,0,0.0092098,0
23550,54.3,19.053,0,0.0052726,0,23735,57.694,0,0,0,0,0.0092098,0
23550,54.3,19.053,0,0.0052726,0,23735,57.694,0,0,0,0,0.0092098,0
23550,54.3,19.053,0,0.0052726,0,23735,57.694,0,0,0,0,0.0092098,0
23550,54.3,19.053,0,0.0052726,0,23735,57.694,0,0,0,0,0.0092098,0
23550,54.3,19.053,0,0.0052726,0,23735,57.694,0,0,0,0,0.0092098,0
23550,54.3,19.054,0,0.0053416,0,23735,57.694,0,0,0,0,0.0092288,0
23551,54.3,19.054,0,0.0054103,0,23735,57.694,0,0,0,0,0.0092479,0
23551,54.3,19.054,0,0.0054103,0,23735,57.694,0,0,0,0,0.0092479,0
23551,54.3,19.054,0,0.0054103,0,23735,57.694,0,0,0,0,0.0092479,0
23551,54.3,19.054,0,0.0054103,0,23735,57.694,0,0,0,0,0.0092479,0
23551,54.3,19.054,0,0.0054103,0,23735,57.694,0,0,0,0,0.0092479,0
23551,54.3,19.054,0,0.0054103,0,23735,57.694,0,0,0,0,0.0092479,0
23551,54.3,19.054,0,0.0054103,0,23735,57.694,0,0,0,0,0.0092479,0
23551,54.3,19.054,0,0.0054788,0,23735,57.694,0,0,0,0,0.0092671,0
23552,54.3,19.054,0,0.0056869,0,23735,57.694,0,0,0,0,0.009325,0
23552,54.3,19.054,0,0.0056869,0,23735,57.694,0,0,0,0,0.009325,0
23552,54.3,19.054,0,0.0056869,0,23735,57.694,0,0,0,0,0.009325,0
23552,54.3,19.054,0,0.0056869,0,23735,57.694,0,0,0,0,0.009325,0
23553,54.3,19.054,0,0.0057559,0,23735,57.694,0,0,0,0,0.0093445,0
23554,54.3,19.055,0,0.0059653,0,23735,57.694,0,0,0,0,0.0094034,0
23554,54.3,19.055,0,0.0059653,0,23735,57.694,0,0,0,0,0.0094034,0
23554,54.3,19.055,0,0.0059653,0,23735,57.694,0,0,0,0,0.0094034,0
23554,54.3,19.055,0,0.0059653,0,23735,57.694,0,0,0,0,0.0094034,0
23554,54.3,19.055,0,0.0059653,0,23735,57.694,0,0,0,0,0.0094034,0
23554,54.3,19.055,0,0.0059653,0,23735,57.694,0,0,0,0,0.0094034,0
23554,54.3,19.055,0,0.0059653,0,23735,57.694,0,0,0,0,0.0094034,0
23554,54.3,19.055,0,0.006036,0,23735,57.694,0,0,0,0,0.0094232,0
23555,54.3,19.055,0,0.0061065,0,23735,57.694,0,0,0,0,0.0094431,0
23555,54.3,19.055,0,0.0061767,0,23735,57.694,0,0,0,0,0.009463,0
23555,54.3,19.055,0,0.0061767,0,23735,57.694,0,0,0,0,0.009463,0
23555,54.3,19.055,0,0.0061767,0,23735,57.694,0,0,0,0,0.009463,0
23555,54.3,19.055,0,0.0061767,0,23735,57.694,0,0,0,0,0.009463,0
23555,54.3,19.055,0,0.0061767,0,23735,57.694,0,0,0,0,0.009463,0
23555,54.3,19.055,0,0.0061767,0,23735,57.694,0,0,0,0,0.009463,0
23555,54.3,19.055,0,0.0061767,0,23735,57.694,0,0,0,0,0.009463,0
23555,54.3,19.055,0,0.0062467,0,23735,57.694,0,0,0,0,0.0094831,0
23556,54.3,19.055,0,0.0064594,0,23735,57.694,0,0,0,0,0.0095438,0
23556,54.3,19.055,0,0.0064594,0,23735,57.694,0,0,0,0,0.0095438,0
23556,54.3,19.055,0,0.0064594,0,23735,57.694,0,0,0,0,0.0095438,0
23556,54.3,19.055,0,0.0064594,0,23735,57.694,0,0,0,0,0.0095438,0
23556,54.3,19.055,0,0.0064594,0,23735,57.694,0,0,0,0,0.0095438,0
23558,54.3,19.056,0,0.0066726,0,23735,57.694,0,0,0,0,0.0096052,0
23558,54.3,19.056,0,0.0066726,0,23735,57.694,0,0,0,0,0.0096052,0
23558,54.3,19.056,0,0.0066726,0,23735,57.694,0,0,0,0,0.0096052,0
23558,54.3,19.056,0,0.0066726,0,23735,57.694,0,0,0,0,0.0096052,0
23558,54.3,19.056,0,0.0066726,0,23735,57.694,0,0,0,0,0.0096052,0
23558,54.3,19.056,0,0.0066726,0,23735,57.694,0,0,0,0,0.0096052,0
23558,54.3,19.056,0,0.0066726,0,23735,57.694,0,0,0,0,0.0096052,0
23558,54.3,19.056,0,0.0066726,0,23735,57.694,0,0,0,0,0.0096052,0
23558,54.3,19.056,0,0.0066726,0,23735,57.694,0,0,0,0,0.0096052,0
23558,54.3,19.056,0,0.0066726,0,23735,57.694,0,0,0,0,0.0096052,0
23558,54.3,19.056,0,0.0066726,0,23735,57.694,0,0,0,0,0.0096052,0
23558,54.3,19.056,0,0.0066726,0,23735,57.694,0,0,0,0,0.0096052,0
23558,54.3,19.056,0,0.0066726,0,23735,57.694,0,0,0,0,0.0096052,0
23560,54.3,19.057,0,0.0070297,0,23735,57.694,0,0,0,0,0.0097094,0
23560,54.3,19.057,0,0.0070297,0,23735,57.694,0,0,0,0,0.0097094,0
23560,54.3,19.057,0,0.0070297,0,23735,57.694,0,0,0,0,0.0097094,0
23560,54.3,19.057,0,0.0070297,0,23735,57.694,0,0,0,0,0.0097094,0
23561,54.3,19.057,0,0.0072454,0,23735,57.694,0,0,0,0,0.0097731,0
23561,54.3,19.057,0,0.0072454,0,23735,57.694,0,0,0,0,0.0097731,0
23561,54.3,19.057,0,0.0073889,0,23735,57.694,0,0,0,0,0.009816,0
23562,54.3,19.057,0,0.0074616,0,23735,57.694,0,0,0,0,0.0098375,0
23562,54.3,19.057,0,0.0074616,0,23735,57.694,0,0,0,0,0.0098375,0
23562,54.3,19.057,0,0.0074616,0,23735,57.694,0,0,0,0,0.0098375,0
23562,54.3,19.057,0,0.0074616,0,23735,57.694,0,0,0,0,0.0098375,0
23562,54.3,19.057,0,0.0074616,0,23735,57.694,0,0,0,0,0.0098375,0
23562,54.3,19.057,0,0.0074616,0,23735,57.694,0,0,0,0,0.0098375,0
23562,54.3,19.057,0,0.0074616,0,23735,57.694,0,0,0,0,0.0098375,0
23562,54.3,19.057,0,0.0074616,0,23735,57.694,0,0,0,0,0.0098375,0
23563,54.3,19.058,0,0.0076784,0,23735,57.694,0,0,0,0,0.0099029,0
23563,54.3,19.058,0,0.0076784,0,23735,57.694,0,0,0,0,0.0099029,0
23563,54.3,19.058,0,0.0076784,0,23735,57.694,0,0,0,0,0.0099029,0
23563,54.3,19.058,0,0.0076784,0,23735,57.694,0,0,0,0,0.0099029,0
23563,54.3,19.058,0,0.0076784,0,23735,57.694,0,0,0,0,0.0099029,0
23563,54.3,19.058,0,0.0076784,0,23735,57.694,0,0,0,0,0.0099029,0
23563,54.3,19.058,0,0.0076784,0,23735,57.694,0,0,0,0,0.0099029,0
23564,54.3,19.058,0,0.0078244,0,23735,57.694,0,0,0,0,0.0099469,0
23564,54.3,19.058,0,0.0078244,0,23735,57.694,0,0,0,0,0.0099469,0
23564,54.3,19.058,0,0.007897,0,23735,57.694,0,0,0,0,0.0099691,0
23565,54.3,19.059,0,0.0080429,0,23735,57.694,0,0,0,0,0.010014,0
23565,54.3,19.059,0,0.0080429,0,23735,57.694,0,0,0,0,0.010014,0
23565,54.3,19.059,0,0.0080429,0,23735,57.694,0,0,0,0,0.010014,0
23565,54.3,19.059,0,0.0080429,0,23735,57.694,0,0,0,0,0.010014,0
23565,54.3,19.059,0,0.0080429,0,23735,57.694,0,0,0,0,0.010014,0
23565,54.3,19.059,0,0.0080429,0,23735,57.694,0,0,0,0,0.010014,0
23565,54.3,19.059,0,0.0080429,0,23735,57.694,0,0,0,0,0.010014,0
23566,54.3,19.059,0,0.0083358,0,23735,57.694,0,0,0,0,0.010104,0
23566,54.3,19.059,0,0.0083358,0,23735,57.694,0,0,0,0,0.010104,0
23566,54.3,19.059,0,0.0083358,0,23735,57.694,0,0,0,0,0.010104,0
23566,54.3,19.059,0,0.0083358,0,23735,57.694,0,0,0,0,0.010104,0
23566,54.3,19.059,0,0.0083358,0,23735,57.694,0,0,0,0,0.010104,0
23566,54.3,19.059,0,0.0083358,0,23735,57.694,0,0,0,0,0.010104,0
23566,54.3,19.059,0,0.0083358,0,23735,57.694,0,0,0,0,0.010104,0
23566,54.3,19.059,0,0.0083358,0,23735,57.694,0,0,0,0,0.010104,0
23566,54.3,19.059,0,0.0083358,0,23735,57.694,0,0,0,0,0.010104,0
23566,54.3,19.059,0,0.0083358,0,23735,57.694,0,0,0,0,0.010104,0
23567,54.3,19.059,0,0.0084094,0,23735,57.694,0,0,0,0,0.010127,0
23567,54.3,19.06,0,0.0084828,0,23735,57.694,0,0,0,0,0.01015,0
23568,54.3,19.06,0,0.0086288,0,23735,57.694,0,0,0,0,0.010196,0
23568,54.3,19.06,0,0.0086288,0,23735,57.694,0,0,0,0,0.010196,0
23569,54.3,19.061,0,0.0089232,0,23735,57.694,0,0,0,0,0.01029,0
23569,54.3,19.061,0,0.0089232,0,23735,57.694,0,0,0,0,0.01029,0
23569,54.3,19.061,0,0.0089232,0,23735,57.694,0,0,0,0,0.01029,0
23569,54.3,19.061,0,0.0089232,0,23735,57.694,0,0,0,0,0.01029,0
23569,54.3,19.061,0,0.0089232,0,23735,57.694,0,0,0,0,0.01029,0
23569,54.3,19.061,0,0.0089232,0,23735,57.694,0,0,0,0,0.01029,0
23569,54.3,19.061,0,0.0089232,0,23735,57.694,0,0,0,0,0.01029,0
23569,54.3,19.061,0,0.0089232,0,23735,57.694,0,0,0,0,0.01029,0
23569,54.3,19.061,0,0.0089232,0,23735,57.694,0,0,0,0,0.01029,0
23569,54.3,19.061,0,0.0089232,0,23735,57.694,0,0,0,0,0.01029,0
23569,54.3,19.061,0,0.0089232,0,23735,57.694,0,0,0,0,0.01029,0
23570,54.3,19.061,0,0.0090716,0,23735,57.694,0,0,0,0,0.010338,0
23570,54.3,19.061,0,0.0090716,0,23735,57.694,0,0,0,0,0.010338,0
23570,54.3,19.061,0,0.0090716,0,23735,57.694,0,0,0,0,0.010338,0
23570,54.3,19.061,0,0.0090716,0,23735,57.694,0,0,0,0,0.010338,0
23570,54.3,19.061,0,0.0090716,0,23735,57.694,0,0,0,0,0.010338,0
23570,54.3,19.061,0,0.0090716,0,23735,57.694,0,0,0,0,0.010338,0
23570,54.3,19.061,0,0.0090716,0,23735,57.694,0,0,0,0,0.010338,0
23571,54.3,19.061,0,0.0091454,0,23735,57.694,0,0,0,0,0.010362,0
23571,54.3,19.061,0,0.0091454,0,23735,57.694,0,0,0,0,0.010362,0
23571,54.3,19.061,0,0.0091454,0,23735,57.694,0,0,0,0,0.010362,0
23571,54.3,19.061,0,0.0091454,0,23735,57.694,0,0,0,0,0.010362,0
23571,54.3,19.062,0,0.0092924,0,23735,57.694,0,0,0,0,0.01041,0
23571,54.3,19.062,0,0.0092924,0,23735,57.694,0,0,0,0,0.01041,0
23571,54.3,19.062,0,0.0092924,0,23735,57.694,0,0,0,0,0.01041,0
23571,54.3,19.062,0,0.0092924,0,23735,57.694,0,0,0,0,0.01041,0
23571,54.3,19.062,0,0.0092924,0,23735,57.694,0,0,0,0,0.01041,0
23571,54.3,19.062,0,0.0092924,0,23735,57.694,0,0,0,0,0.01041,0
23571,54.3,19.062,0,0.0092924,0,23735,57.694,0,0,0,0,0.01041,0
23574,54.3,19.063,0,0.0098119,0,23735,57.694,0,0,0,0,0.010582,0
23574,54.3,19.063,0,0.0098119,0,23735,57.694,0,0,0,0,0.010582,0
23575,54.3,19.063,0,0.0099609,0,23735,57.694,0,0,0,0,0.010632,0
23575,54.3,19.063,0,0.0099609,0,23735,57.694,0,0,0,0,0.010632,0
23576,54.3,19.064,0,0.01011,0,23735,57.694,0,0,0,0,0.010683,0
23576,54.3,19.064,0,0.01011,0,23735,57.694,0,0,0,0,0.010683,0
23576,54.3,19.064,0,0.01011,0,23735,57.694,0,0,0,0,0.010683,0
23576,54.3,19.064,0,0.01011,0,23735,57.694,0,0,0,0,0.010683,0
23576,54.3,19.064,0,0.01011,0,23735,57.694,0,0,0,0,0.010683,0
23576,54.3,19.064,0,0.01011,0,23735,57.694,0,0,0,0,0.010683,0
23576,54.3,19.064,0,0.01011,0,23735,57.694,0,0,0,0,0.010683,0
23576,54.3,19.064,0,0.01011,0,23735,57.694,0,0,0,0,0.010683,0
23576,54.3,19.064,0,0.01011,0,23735,57.694,0,0,0,0,0.010683,0
23576,54.3,19.064,0,0.01011,0,23735,57.694,0,0,0,0,0.010683,0
23576,54.3,19.064,0,0.01011,0,23735,57.694,0,0,0,0,0.010683,0
23577,54.3,19.065,0,0.010408,0,23735,57.694,0,0,0,0,0.010786,0
23577,54.3,19.065,0,0.010408,0,23735,57.694,0,0,0,0,0.010786,0
23577,54.3,19.065,0,0.010408,0,23735,57.694,0,0,0,0,0.010786,0
23577,54.3,19.065,0,0.010408,0,23735,57.694,0,0,0,0,0.010786,0
23577,54.3,19.065,0,0.010408,0,23735,57.694,0,0,0,0,0.010786,0
23577,54.3,19.065,0,0.010408,0,23735,57.694,0,0,0,0,0.010786,0
23577,54.3,19.065,0,0.010408,0,23735,57.694,0,0,0,0,0.010786,0
23577,54.3,19.065,0,0.010408,0,23735,57.694,0,0,0,0,0.010786,0
23577,54.3,19.065,0,0.010408,0,23735,57.694,0,0,0,0,0.010786,0
23577,54.3,19.065,0,0.010408,0,23735,57.694,0,0,0,0,0.010786,0
23577,54.3,19.065,0,0.010408,0,23735,57.694,0,0,0,0,0.010786,0
23577,54.3,19.065,0,0.010408,0,23735,57.694,0,0,0,0,0.010786,0
23577,54.3,19.065,0,0.010408,0,23735,57.694,0,0,0,0,0.010786,0
23577,54.3,19.065,0,0.010408,0,23735,57.694,0,0,0,0,0.010786,0
23577,54.3,19.065,0,0.010408,0,23735,57.694,0,0,0,0,0.010786,0
23579,54.3,19.065,0,0.010707,0,23735,57.694,0,0,0,0,0.010891,0
23579,54.3,19.065,0,0.010707,0,23735,57.694,0,0,0,0,0.010891,0
23580,54.3,19.066,0,0.011006,0,23735,57.694,0,0,0,0,0.010999,0
23580,54.3,19.066,0,0.011006,0,23735,57.694,0,0,0,0,0.010999,0
23581,54.3,19.067,0,0.01123,0,23735,57.694,0,0,0,0,0.01108,0
23581,54.3,19.067,0,0.01123,0,23735,57.694,0,0,0,0,0.01108,0
23581,54.3,19.067,0,0.01123,0,23735,57.694,0,0,0,0,0.01108,0
23581,54.3,19.067,0,0.01123,0,23735,57.694,0,0,0,0,0.01108,0
23581,54.3,19.067,0,0.01123,0,23735,57.694,0,0,0,0,0.01108,0
23581,54.3,19.067,0,0.01123,0,23735,57.694,0,0,0,0,0.01108,0
23581,54.3,19.067,0,0.01123,0,23735,57.694,0,0,0,0,0.01108,0
23581,54.3,19.067,0,0.01123,0,23735,57.694,0,0,0,0,0.01108,0
23581,54.3,19.067,0,0.01123,0,23735,57.694,0,0,0,0,0.01108,0
23581,54.3,19.067,0,0.01123,0,23735,57.694,0,0,0,0,0.01108,0
23582,54.3,19.068,0,0.011455,0,23735,57.694,0,0,0,0,0.011163,0
23582,54.3,19.068,0,0.011455,0,23735,57.694,0,0,0,0,0.011163,0
23582,54.3,19.068,0,0.011455,0,23735,57.694,0,0,0,0,0.011163,0
23582,54.3,19.068,0,0.011455,0,23735,57.694,0,0,0,0,0.011163,0
23582,54.3,19.068,0,0.011455,0,23735,57.694,0,0,0,0,0.011163,0
23582,54.3,19.068,0,0.011455,0,23735,57.694,0,0,0,0,0.011163,0
23582,54.3,19.068,0,0.011455,0,23735,57.694,0,0,0,0,0.011163,0
23582,54.3,19.068,0,0.011455,0,23735,57.694,0,0,0,0,0.011163,0
23582,54.3,19.068,0,0.011455,0,23735,57.694,0,0,0,0,0.011163,0
23582,54.3,19.068,0,0.011455,0,23735,57.694,0,0,0,0,0.011163,0
23582,54.3,19.068,0,0.011455,0,23735,57.694,0,0,0,0,0.011163,0
23582,54.3,19.068,0,0.011455,0,23735,57.694,0,0,0,0,0.011163,0
23582,54.3,19.068,0,0.011455,0,23735,57.694,0,0,0,0,0.011163,0
23582,54.3,19.068,0,0.011455,0,23735,57.694,0,0,0,0,0.011163,0
23584,54.3,19.069,0,0.01183,0,23735,57.694,0,0,0,0,0.011304,0
23585,54.3,19.069,0,0.011979,0,23735,57.694,0,0,0,0,0.011362,0
23585,54.3,19.069,0,0.011979,0,23735,57.694,0,0,0,0,0.011362,0
23585,54.3,19.069,0,0.011979,0,23735,57.694,0,0,0,0,0.011362,0
23587,54.3,19.07,0,0.012354,0,23735,57.694,0,0,0,0,0.011508,0
23587,54.3,19.07,0,0.012354,0,23735,57.694,0,0,0,0,0.011508,0
23587,54.3,19.07,0,0.012354,0,23735,57.694,0,0,0,0,0.011508,0
23587,54.3,19.07,0,0.012354,0,23735,57.694,0,0,0,0,0.011508,0
23587,54.3,19.07,0,0.012354,0,23735,57.694,0,0,0,0,0.011508,0
23587,54.3,19.07,0,0.012354,0,23735,57.694,0,0,0,0,0.011508,0
23587,54.3,19.07,0,0.012354,0,23735,57.694,0,0,0,0,0.011508,0
23587,54.3,19.07,0,0.012354,0,23735,57.694,0,0,0,0,0.011508,0
23587,54.3,19.071,0,0.01243,0,23735,57.694,0,0,0,0,0.011538,0
23587,54.3,19.071,0,0.01243,0,23735,57.694,0,0,0,0,0.011538,0
23587,54.3,19.071,0,0.01243,0,23735,57.694,0,0,0,0,0.011538,0
23587,54.3,19.071,0,0.01243,0,23735,57.694,0,0,0,0,0.011538,0
23587,54.3,19.071,0,0.01243,0,23735,57.694,0,0,0,0,0.011538,0
23587,54.3,19.071,0,0.01243,0,23735,57.694,0,0,0,0,0.011538,0
23587,54.3,19.071,0,0.01243,0,23735,57.694,0,0,0,0,0.011538,0
23587,54.3,19.071,0,0.01243,0,23735,57.694,0,0,0,0,0.011538,0
23587,54.3,19.071,0,0.01243,0,23735,57.694,0,0,0,0,0.011538,0
23587,54.3,19.071,0,0.01243,0,23735,57.694,0,0,0,0,0.011538,0
23589,54.3,19.072,0,0.012729,0,23735,57.694,0,0,0,0,0.011658,0
23589,54.3,19.072,0,0.012729,0,23735,57.694,0,0,0,0,0.011658,0
23589,54.3,19.072,0,0.012729,0,23735,57.694,0,0,0,0,0.011658,0
23590,54.3,19.072,0,0.01288,0,23735,57.694,0,0,0,0,0.011719,0
23590,54.3,19.072,0,0.012955,0,23735,57.694,0,0,0,0,0.01175,0
23590,54.3,19.072,0,0.012955,0,23735,57.694,0,0,0,0,0.01175,0
23590,54.3,19.072,0,0.012955,0,23735,57.694,0,0,0,0,0.01175,0
23590,54.3,19.072,0,0.012955,0,23735,57.694,0,0,0,0,0.01175,0
23590,54.3,19.072,0,0.012955,0,23735,57.694,0,0,0,0,0.01175,0
23590,54.3,19.072,0,0.012955,0,23735,57.694,0,0,0,0,0.01175,0
23590,54.3,19.072,0,0.012955,0,23735,57.694,0,0,0,0,0.01175,0
23590,54.3,19.072,0,0.012955,0,23735,57.694,0,0,0,0,0.01175,0
23590,54.3,19.072,0,0.012955,0,23735,57.694,0,0,0,0,0.01175,0
23592,54.3,19.074,0,0.013331,0,23735,57.694,0,0,0,0,0.011906,0
23592,54.3,19.074,0,0.013331,0,23735,57.694,0,0,0,0,0.011906,0
23592,54.3,19.074,0,0.013331,0,23735,57.694,0,0,0,0,0.011906,0
23592,54.3,19.074,0,0.013331,0,23735,57.694,0,0,0,0,0.011906,0
23592,54.3,19.074,0,0.013331,0,23735,57.694,0,0,0,0,0.011906,0
23592,54.3,19.074,0,0.013331,0,23735,57.694,0,0,0,0,0.011906,0
23592,54.3,19.074,0,0.013331,0,23735,57.694,0,0,0,0,0.011906,0
23592,54.3,19.074,0,0.013331,0,23735,57.694,0,0,0,0,0.011906,0
23592,54.3,19.074,0,0.013331,0,23735,57.694,0,0,0,0,0.011906,0
23592,54.3,19.074,0,0.013331,0,23735,57.694,0,0,0,0,0.011906,0
23592,54.3,19.074,0,0.013331,0,23735,57.694,0,0,0,0,0.011906,0
23592,54.3,19.074,0,0.013331,0,23735,57.694,0,0,0,0,0.011906,0
23593,54.3,19.074,0,0.013481,0,23735,57.694,0,0,0,0,0.01197,0
23593,54.3,19.075,0,0.013631,0,23735,57.694,0,0,0,0,0.012035,0
23593,54.3,19.075,0,0.013631,0,23735,57.694,0,0,0,0,0.012035,0
23595,54.3,19.076,0,0.013931,0,23735,57.694,0,0,0,0,0.012166,0
23595,54.3,19.076,0,0.013931,0,23735,57.694,0,0,0,0,0.012166,0
23595,54.3,19.076,0,0.013931,0,23735,57.694,0,0,0,0,0.012166,0
23595,54.3,19.076,0,0.013931,0,23735,57.694,0,0,0,0,0.012166,0
23595,54.3,19.076,0,0.013931,0,23735,57.694,0,0,0,0,0.012166,0
23595,54.3,19.076,0,0.013931,0,23735,57.694,0,0,0,0,0.012166,0
23595,54.3,19.076,0,0.013931,0,23735,57.694,0,0,0,0,0.012166,0
23595,54.3,19.076,0,0.013931,0,23735,57.694,0,0,0,0,0.012166,0
23595,54.3,19.076,0,0.013931,0,23735,57.694,0,0,0,0,0.012166,0
23595,54.3,19.076,0,0.013931,0,23735,57.694,0,0,0,0,0.012166,0
23597,54.3,19.077,0,0.014231,0,23735,57.694,0,0,0,0,0.012299,0
23597,54.3,19.077,0,0.014231,0,23735,57.694,0,0,0,0,0.012299,0
23597,54.3,19.077,0,0.014306,0,23735,57.694,0,0,0,0,0.012333,0
23597,54.3,19.077,0,0.014306,0,23735,57.694,0,0,0,0,0.012333,0
23597,54.3,19.078,0,0.014381,0,23735,57.694,0,0,0,0,0.012368,0
23597,54.3,19.078,0,0.014381,0,23735,57.694,0,0,0,0,0.012368,0
23598,54.3,19.078,0,0.014531,0,23735,57.694,0,0,0,0,0.012436,0
23599,54.3,19.079,0,0.014681,0,23735,57.694,0,0,0,0,0.012506,0
23599,54.3,19.079,0,0.014681,0,23735,57.694,0,0,0,0,0.012506,0
23599,54.3,19.079,0,0.014681,0,23735,57.694,0,0,0,0,0.012506,0
23599,54.3,19.079,0,0.014681,0,23735,57.694,0,0,0,0,0.012506,0
23599,54.3,19.079,0,0.014755,0,23735,57.694,0,0,0,0,0.012541,0
23600,54.3,19.079,0,0.01483,0,23735,57.694,0,0,0,0,0.012576,0
23600,54.3,19.079,0,0.01483,0,23735,57.694,0,0,0,0,0.012576,0
23600,54.3,19.079,0,0.01483,0,23735,57.694,0,0,0,0,0.012576,0
23600,54.3,19.079,0,0.01483,0,23735,57.694,0,0,0,0,0.012576,0
23600,54.3,19.079,0,0.01483,0,23735,57.694,0,0,0,0,0.012576,0
23600,54.3,19.079,0,0.01483,0,23735,57.694,0,0,0,0,0.012576,0
23600,54.3,19.079,0,0.01483,0,23735,57.694,0,0,0,0,0.012576,0
23600,54.3,19.079,0,0.01483,0,23735,57.694,0,0,0,0,0.012576,0
23600,54.3,19.079,0,0.01483,0,23735,57.694,0,0,0,0,0.012576,0
23600,54.3,19.079,0,0.01483,0,23735,57.694,0,0,0,0,0.012576,0
23600,54.3,19.08,0,0.01498,0,23735,57.694,0,0,0,0,0.012648,0
23601,54.3,19.08,0,0.015055,0,23735,57.694,0,0,0,0,0.012683,0
23601,54.3,19.08,0,0.015055,0,23735,57.694,0,0,0,0,0.012683,0
23601,54.3,19.081,0,0.015129,0,23735,57.694,0,0,0,0,0.01272,0
23603,54.3,19.082,0,0.015429,0,23735,57.694,0,0,0,0,0.012866,0
23603,54.3,19.082,0,0.015429,0,23735,57.694,0,0,0,0,0.012866,0
23603,54.3,19.082,0,0.015429,0,23735,57.694,0,0,0,0,0.012866,0
23603,54.3,19.082,0,0.015429,0,23735,57.694,0,0,0,0,0.012866,0
23603,54.3,19.082,0,0.015429,0,23735,57.694,0,0,0,0,0.012866,0
23603,54.3,19.082,0,0.015429,0,23735,57.694,0,0,0,0,0.012866,0
23603,54.3,19.082,0,0.015429,0,23735,57.694,0,0,0,0,0.012866,0
23603,54.3,19.082,0,0.015429,0,23735,57.694,0,0,0,0,0.012866,0
23603,54.3,19.082,0,0.015429,0,23735,57.694,0,0,0,0,0.012866,0
23603,54.3,19.082,0,0.015503,0,23735,57.694,0,0,0,0,0.012903,0
23603,54.3,19.082,0,0.015503,0,23735,57.694,0,0,0,0,0.012903,0
23603,54.3,19.082,0,0.015578,0,23735,57.694,0,0,0,0,0.01294,0
23603,54.3,19.082,0,0.015578,0,23735,57.694,0,0,0,0,0.01294,0
23603,54.3,19.082,0,0.015578,0,23735,57.694,0,0,0,0,0.01294,0
23603,54.3,19.082,0,0.015578,0,23735,57.694,0,0,0,0,0.01294,0
23603,54.3,19.082,0,0.015578,0,23735,57.694,0,0,0,0,0.01294,0
23603,54.3,19.082,0,0.015578,0,23735,57.694,0,0,0,0,0.01294,0
23603,54.3,19.082,0,0.015578,0,23735,57.694,0,0,0,0,0.01294,0
23603,54.3,19.082,0,0.015578,0,23735,57.694,0,0,0,0,0.01294,0
23603,54.3,19.082,0,0.015578,0,23735,57.694,0,0,0,0,0.01294,0
23603,54.3,19.082,0,0.015578,0,23735,57.694,0,0,0,0,0.01294,0
23606,54.3,19.085,0,0.016173,0,23735,57.694,0,0,0,0,0.013247,0
23606,54.3,19.085,0,0.016173,0,23735,57.694,0,0,0,0,0.013247,0
23606,54.3,19.085,0,0.016173,0,23735,57.694,0,0,0,0,0.013247,0
23606,54.3,19.085,0,0.016173,0,23735,57.694,0,0,0,0,0.013247,0
23606,54.3,19.085,0,0.016173,0,23735,57.694,0,0,0,0,0.013247,0
23606,54.3,19.085,0,0.016173,0,23735,57.694,0,0,0,0,0.013247,0
23606,54.3,19.085,0,0.016173,0,23735,57.694,0,0,0,0,0.013247,0
23606,54.3,19.085,0,0.016173,0,23735,57.694,0,0,0,0,0.013247,0
23606,54.3,19.085,0,0.016173,0,23735,57.694,0,0,0,0,0.013247,0
23606,54.3,19.085,0,0.016173,0,23735,57.694,0,0,0,0,0.013247,0
23606,54.3,19.085,0,0.016173,0,23735,57.694,0,0,0,0,0.013247,0
23606,54.3,19.085,0,0.016173,0,23735,57.694,0,0,0,0,0.013247,0
23606,54.3,19.085,0,0.016173,0,23735,57.694,0,0,0,0,0.013247,0
23606,54.3,19.085,0,0.016173,0,23735,57.694,0,0,0,0,0.013247,0
23608,54.3,19.086,0,0.016397,0,23735,57.694,0,0,0,0,0.013366,0
23608,54.3,19.086,0,0.016397,0,23735,57.694,0,0,0,0,0.013366,0
23608,54.3,19.086,0,0.016397,0,23735,57.694,0,0,0,0,0.013366,0
23608,54.3,19.086,0,0.016397,0,23735,57.694,0,0,0,0,0.013366,0
23608,54.3,19.086,0,0.016397,0,23735,57.694,0,0,0,0,0.013366,0
23608,54.3,19.087,0,0.016545,0,23735,57.694,0,0,0,0,0.013447,0
23608,54.3,19.087,0,0.016545,0,23735,57.694,0,0,0,0,0.013447,0
23608,54.3,19.087,0,0.016545,0,23735,57.694,0,0,0,0,0.013447,0
23610,54.3,19.088,0,0.016841,0,23735,57.694,0,0,0,0,0.013611,0
23611,54.3,19.089,0,0.01699,0,23735,57.694,0,0,0,0,0.013694,0
23611,54.3,19.089,0,0.01699,0,23735,57.694,0,0,0,0,0.013694,0
23611,54.3,19.089,0,0.01699,0,23735,57.694,0,0,0,0,0.013694,0
23611,54.3,19.089,0,0.01699,0,23735,57.694,0,0,0,0,0.013694,0
23611,54.3,19.089,0,0.01699,0,23735,57.694,0,0,0,0,0.013694,0
23611,54.3,19.089,0,0.01699,0,23735,57.694,0,0,0,0,0.013694,0
23611,54.3,19.089,0,0.01699,0,23735,57.694,0,0,0,0,0.013694,0
23611,54.3,19.089,0,0.01699,0,23735,57.694,0,0,0,0,0.013694,0
23611,54.3,19.089,0,0.01699,0,23735,57.694,0,0,0,0,0.013694,0
23612,54.3,19.09,0,0.017211,0,23735,57.694,0,0,0,0,0.013821,0
23612,54.3,19.09,0,0.017211,0,23735,57.694,0,0,0,0,0.013821,0
23612,54.3,19.09,0,0.017211,0,23735,57.694,0,0,0,0,0.013821,0
23612,54.3,19.09,0,0.017211,0,23735,57.694,0,0,0,0,0.013821,0
23612,54.3,19.09,0,0.017211,0,23735,57.694,0,0,0,0,0.013821,0
23612,54.3,19.09,0,0.017211,0,23735,57.694,0,0,0,0,0.013821,0
23613,54.3,19.091,0,0.017507,0,23735,57.694,0,0,0,0,0.013994,0
23613,54.3,19.091,0,0.017507,0,23735,57.694,0,0,0,0,0.013994,0
23614,54.3,19.091,0,0.017581,0,23735,57.694,0,0,0,0,0.014038,0
23614,54.3,19.092,0,0.017655,0,23735,57.694,0,0,0,0,0.014083,0
23614,54.3,19.092,0,0.017655,0,23735,57.694,0,0,0,0,0.014083,0
23614,54.3,19.092,0,0.017729,0,23735,57.694,0,0,0,0,0.014127,0
23614,54.3,19.092,0,0.017729,0,23735,57.694,0,0,0,0,0.014127,0
23614,54.3,19.092,0,0.017729,0,23735,57.694,0,0,0,0,0.014127,0
23614,54.3,19.092,0,0.017729,0,23735,57.694,0,0,0,0,0.014127,0
23614,54.3,19.092,0,0.017729,0,23735,57.694,0,0,0,0,0.014127,0
23614,54.3,19.092,0,0.017729,0,23735,57.694,0,0,0,0,0.014127,0
23614,54.3,19.092,0,0.017729,0,23735,57.694,0,0,0,0,0.014127,0
23614,54.3,19.092,0,0.017729,0,23735,57.694,0,0,0,0,0.014127,0
23614,54.3,19.092,0,0.017729,0,23735,57.694,0,0,0,0,0.014127,0
23614,54.3,19.092,0,0.017729,0,23735,57.694,0,0,0,0,0.014127,0
23616,54.3,19.093,0,0.017949,0,23735,57.694,0,0,0,0,0.014262,0
23616,54.3,19.093,0,0.017949,0,23735,57.694,0,0,0,0,0.014262,0
23616,54.3,19.094,0,0.018023,0,23735,57.694,0,0,0,0,0.014308,0
23616,54.3,19.094,0,0.018023,0,23735,57.694,0,0,0,0,0.014308,0
23616,54.3,19.094,0,0.018023,0,23735,57.694,0,0,0,0,0.014308,0
23618,54.3,19.095,0,0.018316,0,23735,57.694,0,0,0,0,0.014494,0
23618,54.3,19.095,0,0.018316,0,23735,57.694,0,0,0,0,0.014494,0
23618,54.3,19.095,0,0.018316,0,23735,57.694,0,0,0,0,0.014494,0
23618,54.3,19.095,0,0.018316,0,23735,57.694,0,0,0,0,0.014494,0
23618,54.3,19.095,0,0.01839,0,23735,57.694,0,0,0,0,0.014541,0
23618,54.3,19.095,0,0.01839,0,23735,57.694,0,0,0,0,0.014541,0
23618,54.3,19.095,0,0.01839,0,23735,57.694,0,0,0,0,0.014541,0
23618,54.3,19.095,0,0.01839,0,23735,57.694,0,0,0,0,0.014541,0
23618,54.3,19.095,0,0.01839,0,23735,57.694,0,0,0,0,0.014541,0
23618,54.3,19.095,0,0.01839,0,23735,57.694,0,0,0,0,0.014541,0
23618,54.3,19.095,0,0.01839,0,23735,57.694,0,0,0,0,0.014541,0
23618,54.3,19.095,0,0.01839,0,23735,57.694,0,0,0,0,0.014541,0
23618,54.3,19.095,0,0.01839,0,23735,57.694,0,0,0,0,0.014541,0
23618,54.3,19.095,0,0.01839,0,23735,57.694,0,0,0,0,0.014541,0
23618,54.3,19.095,0,0.01839,0,23735,57.694,0,0,0,0,0.014541,0
23618,54.3,19.095,0,0.01839,0,23735,57.694,0,0,0,0,0.014541,0
23618,54.3,19.095,0,0.01839,0,23735,57.694,0,0,0,0,0.014541,0
23618,54.3,19.095,0,0.01839,0,23735,57.694,0,0,0,0,0.014541,0
23618,54.3,19.095,0,0.01839,0,23735,57.694,0,0,0,0,0.014541,0
23621,54.3,19.099,0,0.019047,0,23735,57.694,0,0,0,0,0.01498,0
23621,54.3,19.099,0,0.019047,0,23735,57.694,0,0,0,0,0.01498,0
23621,54.3,19.099,0,0.019047,0,23735,57.694,0,0,0,0,0.01498,0
23621,54.3,19.099,0,0.019047,0,23735,57.694,0,0,0,0,0.01498,0
23621,54.3,19.099,0,0.019047,0,23735,57.694,0,0,0,0,0.01498,0
23621,54.3,19.099,0,0.019047,0,23735,57.694,0,0,0,0,0.01498,0
23621,54.3,19.099,0,0.019047,0,23735,57.694,0,0,0,0,0.01498,0
23621,54.3,19.099,0,0.019047,0,23735,57.694,0,0,0,0,0.01498,0
23622,54.3,19.099,0,0.01912,0,23735,57.694,0,0,0,0,0.01503,0
23622,54.3,19.099,0,0.01912,0,23735,57.694,0,0,0,0,0.01503,0
23622,54.3,19.099,0,0.01912,0,23735,57.694,0,0,0,0,0.01503,0
23622,54.3,19.099,0,0.01912,0,23735,57.694,0,0,0,0,0.01503,0
23622,54.3,19.1,0,0.019193,0,23735,57.694,0,0,0,0,0.015081,0
23622,54.3,19.1,0,0.019193,0,23735,57.694,0,0,0,0,0.015081,0
23622,54.3,19.1,0,0.019193,0,23735,57.694,0,0,0,0,0.015081,0
23622,54.3,19.1,0,0.019193,0,23735,57.694,0,0,0,0,0.015081,0
23622,54.3,19.1,0,0.019193,0,23735,57.694,0,0,0,0,0.015081,0
23623,54.3,19.1,0,0.019338,0,23735,57.694,0,0,0,0,0.015184,0
23623,54.3,19.1,0,0.019338,0,23735,57.694,0,0,0,0,0.015184,0
23623,54.3,19.1,0,0.019338,0,23735,57.694,0,0,0,0,0.015184,0
23624,54.3,19.102,0,0.019629,0,23735,57.694,0,0,0,0,0.015393,0
23624,54.3,19.102,0,0.019629,0,23735,57.694,0,0,0,0,0.015393,0
23625,54.3,19.103,0,0.019774,0,23735,57.694,0,0,0,0,0.0155,0
23625,54.3,19.103,0,0.019774,0,23735,57.694,0,0,0,0,0.0155,0
23626,54.3,19.103,0,0.019847,0,23735,57.694,0,0,0,0,0.015554,0
23626,54.3,19.103,0,0.019847,0,23735,57.694,0,0,0,0,0.015554,0
23626,54.3,19.103,0,0.019847,0,23735,57.694,0,0,0,0,0.015554,0
23626,54.3,19.103,0,0.019847,0,23735,57.694,0,0,0,0,0.015554,0
23626,54.3,19.103,0,0.019847,0,23735,57.694,0,0,0,0,0.015554,0
23626,54.3,19.103,0,0.019847,0,23735,57.694,0,0,0,0,0.015554,0
23626,54.3,19.103,0,0.019847,0,23735,57.694,0,0,0,0,0.015554,0
23626,54.3,19.103,0,0.019847,0,23735,57.694,0,0,0,0,0.015554,0
23626,54.3,19.103,0,0.019847,0,23735,57.694,0,0,0,0,0.015554,0
23626,54.3,19.104,0,0.019991,0,23735,57.694,0,0,0,0,0.015663,0
23627,54.3,19.104,0,0.020064,0,23735,57.694,0,0,0,0,0.015718,0
23627,54.3,19.104,0,0.020064,0,23735,57.694,0,0,0,0,0.015718,0
23627,54.3,19.104,0,0.020064,0,23735,57.694,0,0,0,0,0.015718,0
23627,54.3,19.104,0,0.020064,0,23735,57.694,0,0,0,0,0.015718,0
23627,54.3,19.104,0,0.020064,0,23735,57.694,0,0,0,0,0.015718,0
23627,54.3,19.104,0,0.020064,0,23735,57.694,0,0,0,0,0.015718,0
23627,54.3,19.104,0,0.020064,0,23735,57.694,0,0,0,0,0.015718,0
23627,54.3,19.104,0,0.020064,0,23735,57.694,0,0,0,0,0.015718,0
23628,54.3,19.106,0,0.020352,0,23735,57.694,0,0,0,0,0.015943,0
23628,54.3,19.106,0,0.020352,0,23735,57.694,0,0,0,0,0.015943,0
23628,54.3,19.106,0,0.020352,0,23735,57.694,0,0,0,0,0.015943,0
23629,54.3,19.106,0,0.020424,0,23735,57.694,0,0,0,0,0.016,0
23629,54.3,19.106,0,0.020424,0,23735,57.694,0,0,0,0,0.016,0
23629,54.3,19.106,0,0.020424,0,23735,57.694,0,0,0,0,0.016,0
23630,54.3,19.107,0,0.020639,0,23735,57.694,0,0,0,0,0.016174,0
23630,54.3,19.107,0,0.020639,0,23735,57.694,0,0,0,0,0.016174,0
23630,54.3,19.107,0,0.020639,0,23735,57.694,0,0,0,0,0.016174,0
23630,54.3,19.107,0,0.020639,0,23735,57.694,0,0,0,0,0.016174,0
23631,54.3,19.109,0,0.020854,0,23735,57.694,0,0,0,0,0.016352,0
23631,54.3,19.109,0,0.020854,0,23735,57.694,0,0,0,0,0.016352,0
23631,54.3,19.109,0,0.020854,0,23735,57.694,0,0,0,0,0.016352,0
23631,54.3,19.109,0,0.020854,0,23735,57.694,0,0,0,0,0.016352,0
23631,54.3,19.109,0,0.020854,0,23735,57.694,0,0,0,0,0.016352,0
23631,54.3,19.109,0,0.020854,0,23735,57.694,0,0,0,0,0.016352,0
23631,54.3,19.109,0,0.020854,0,23735,57.694,0,0,0,0,0.016352,0
23631,54.3,19.109,0,0.020854,0,23735,57.694,0,0,0,0,0.016352,0
23631,54.3,19.109,0,0.020854,0,23735,57.694,0,0,0,0,0.016352,0
23631,54.3,19.109,0,0.020854,0,23735,57.694,0,0,0,0,0.016352,0
23631,54.3,19.109,0,0.020854,0,23735,57.694,0,0,0,0,0.016352,0
23632,54.3,19.11,0,0.021069,0,23735,57.694,0,0,0,0,0.016533,0
23632,54.3,19.11,0,0.021069,0,23735,57.694,0,0,0,0,0.016533,0
23632,54.3,19.11,0,0.021069,0,23735,57.694,0,0,0,0,0.016533,0
23632,54.3,19.11,0,0.021069,0,23735,57.694,0,0,0,0,0.016533,0
23632,54.3,19.11,0,0.021069,0,23735,57.694,0,0,0,0,0.016533,0
23632,54.3,19.11,0,0.021069,0,23735,57.694,0,0,0,0,0.016533,0
23632,54.3,19.11,0,0.021069,0,23735,57.694,0,0,0,0,0.016533,0
23632,54.3,19.11,0,0.021069,0,23735,57.694,0,0,0,0,0.016533,0
23632,54.3,19.11,0,0.021069,0,23735,57.694,0,0,0,0,0.016533,0
23632,54.3,19.11,0,0.021069,0,23735,57.694,0,0,0,0,0.016533,0
23634,54.3,19.112,0,0.021424,0,23735,57.694,0,0,0,0,0.016845,0
23634,54.3,19.113,0,0.021495,0,23735,57.694,0,0,0,0,0.016909,0
23634,54.3,19.113,0,0.021495,0,23735,57.694,0,0,0,0,0.016909,0
23634,54.3,19.113,0,0.021495,0,23735,57.694,0,0,0,0,0.016909,0
23634,54.3,19.113,0,0.021495,0,23735,57.694,0,0,0,0,0.016909,0
23634,54.3,19.113,0,0.021495,0,23735,57.694,0,0,0,0,0.016909,0
23634,54.3,19.113,0,0.021495,0,23735,57.694,0,0,0,0,0.016909,0
23634,54.3,19.113,0,0.021495,0,23735,57.694,0,0,0,0,0.016909,0
23634,54.3,19.113,0,0.021495,0,23735,57.694,0,0,0,0,0.016909,0
23634,54.3,19.113,0,0.021495,0,23735,57.694,0,0,0,0,0.016909,0
23636,54.3,19.115,0,0.02185,0,23735,57.694,0,0,0,0,0.017236,0
23636,54.3,19.115,0,0.02185,0,23735,57.694,0,0,0,0,0.017236,0
23636,54.3,19.115,0,0.02185,0,23735,57.694,0,0,0,0,0.017236,0
23636,54.3,19.115,0,0.02185,0,23735,57.694,0,0,0,0,0.017236,0
23636,54.3,19.115,0,0.02185,0,23735,57.694,0,0,0,0,0.017236,0
23636,54.3,19.115,0,0.02185,0,23735,57.694,0,0,0,0,0.017236,0
23636,54.3,19.115,0,0.02185,0,23735,57.694,0,0,0,0,0.017236,0
23637,54.3,19.115,0,0.02192,0,23735,57.694,0,0,0,0,0.017302,0
23637,54.3,19.115,0,0.02192,0,23735,57.694,0,0,0,0,0.017302,0
23637,54.3,19.116,0,0.021991,0,23735,57.694,0,0,0,0,0.01737,0
23637,54.3,19.116,0,0.021991,0,23735,57.694,0,0,0,0,0.01737,0
23638,54.3,19.116,0,0.022133,0,23735,57.694,0,0,0,0,0.017506,0
23638,54.3,19.117,0,0.022203,0,23735,57.694,0,0,0,0,0.017575,0
23639,54.3,19.118,0,0.022415,0,23735,57.694,0,0,0,0,0.017785,0
23639,54.3,19.118,0,0.022415,0,23735,57.694,0,0,0,0,0.017785,0
23639,54.3,19.118,0,0.022415,0,23735,57.694,0,0,0,0,0.017785,0
23639,54.3,19.118,0,0.022415,0,23735,57.694,0,0,0,0,0.017785,0
23639,54.3,19.118,0,0.022415,0,23735,57.694,0,0,0,0,0.017785,0
23639,54.3,19.118,0,0.022415,0,23735,57.694,0,0,0,0,0.017785,0
23639,54.3,19.118,0,0.022415,0,23735,57.694,0,0,0,0,0.017785,0
23639,54.3,19.118,0,0.022415,0,23735,57.694,0,0,0,0,0.017785,0
23639,54.3,19.118,0,0.022415,0,23735,57.694,0,0,0,0,0.017785,0
23640,54.3,19.12,0,0.022626,0,23735,57.694,0,0,0,0,0.018,0
23640,54.3,19.12,0,0.022626,0,23735,57.694,0,0,0,0,0.018,0
23640,54.3,19.12,0,0.022626,0,23735,57.694,0,0,0,0,0.018,0
23640,54.3,19.12,0,0.022626,0,23735,57.694,0,0,0,0,0.018,0
23640,54.3,19.12,0,0.022626,0,23735,57.694,0,0,0,0,0.018,0
23640,54.3,19.12,0,0.022626,0,23735,57.694,0,0,0,0,0.018,0
23640,54.3,19.12,0,0.022626,0,23735,57.694,0,0,0,0,0.018,0
23640,54.3,19.12,0,0.022626,0,23735,57.694,0,0,0,0,0.018,0
23640,54.3,19.12,0,0.022626,0,23735,57.694,0,0,0,0,0.018,0
23640,54.3,19.12,0,0.022626,0,23735,57.694,0,0,0,0,0.018,0
23640,54.3,19.12,0,0.022626,0,23735,57.694,0,0,0,0,0.018,0
23640,54.3,19.12,0,0.022626,0,23735,57.694,0,0,0,0,0.018,0
23642,54.3,19.121,0,0.022906,0,23735,57.694,0,0,0,0,0.018296,0
23642,54.3,19.121,0,0.022906,0,23735,57.694,0,0,0,0,0.018296,0
23642,54.3,19.121,0,0.022906,0,23735,57.694,0,0,0,0,0.018296,0
23643,54.3,19.123,0,0.023184,0,23735,57.694,0,0,0,0,0.018601,0
23643,54.3,19.123,0,0.023184,0,23735,57.694,0,0,0,0,0.018601,0
23643,54.3,19.123,0,0.023184,0,23735,57.694,0,0,0,0,0.018601,0
23643,54.3,19.123,0,0.023184,0,23735,57.694,0,0,0,0,0.018601,0
23643,54.3,19.123,0,0.023184,0,23735,57.694,0,0,0,0,0.018601,0
23643,54.3,19.123,0,0.023184,0,23735,57.694,0,0,0,0,0.018601,0
23643,54.3,19.123,0,0.023184,0,23735,57.694,0,0,0,0,0.018601,0
23643,54.3,19.123,0,0.023184,0,23735,57.694,0,0,0,0,0.018601,0
23643,54.3,19.123,0,0.023184,0,23735,57.694,0,0,0,0,0.018601,0
23643,54.3,19.123,0,0.023184,0,23735,57.694,0,0,0,0,0.018601,0
23645,54.3,19.125,0,0.023393,0,23735,57.694,0,0,0,0,0.018836,0
23645,54.3,19.125,0,0.023462,0,23735,57.694,0,0,0,0,0.018916,0
23645,54.3,19.125,0,0.023462,0,23735,57.694,0,0,0,0,0.018916,0
23645,54.3,19.125,0,0.023462,0,23735,57.694,0,0,0,0,0.018916,0
23645,54.3,19.125,0,0.023462,0,23735,57.694,0,0,0,0,0.018916,0
23645,54.3,19.125,0,0.023462,0,23735,57.694,0,0,0,0,0.018916,0
23645,54.3,19.125,0,0.023462,0,23735,57.694,0,0,0,0,0.018916,0
23645,54.3,19.125,0,0.023462,0,23735,57.694,0,0,0,0,0.018916,0
23645,54.3,19.125,0,0.023462,0,23735,57.694,0,0,0,0,0.018916,0
23645,54.3,19.126,0,0.023532,0,23735,57.694,0,0,0,0,0.018997,0
23647,54.3,19.127,0,0.023808,0,23735,57.694,0,0,0,0,0.019326,0
23647,54.3,19.127,0,0.023808,0,23735,57.694,0,0,0,0,0.019326,0
23647,54.3,19.128,0,0.023876,0,23735,57.694,0,0,0,0,0.01941,0
23647,54.3,19.128,0,0.023876,0,23735,57.694,0,0,0,0,0.01941,0
23647,54.3,19.128,0,0.023876,0,23735,57.694,0,0,0,0,0.01941,0
23648,54.3,19.129,0,0.024083,0,23735,57.694,0,0,0,0,0.019667,0
23648,54.3,19.129,0,0.024083,0,23735,57.694,0,0,0,0,0.019667,0
23648,54.3,19.129,0,0.024083,0,23735,57.694,0,0,0,0,0.019667,0
23648,54.3,19.129,0,0.024083,0,23735,57.694,0,0,0,0,0.019667,0
23648,54.3,19.129,0,0.024083,0,23735,57.694,0,0,0,0,0.019667,0
23648,54.3,19.129,0,0.024083,0,23735,57.694,0,0,0,0,0.019667,0
23648,54.3,19.129,0,0.024083,0,23735,57.694,0,0,0,0,0.019667,0
23648,54.3,19.129,0,0.024083,0,23735,57.694,0,0,0,0,0.019667,0
23648,54.3,19.129,0,0.024083,0,23735,57.694,0,0,0,0,0.019667,0
23650,54.3,19.131,0,0.024357,0,23735,57.694,0,0,0,0,0.02002,0
23650,54.3,19.131,0,0.024357,0,23735,57.694,0,0,0,0,0.02002,0
23651,54.3,19.132,0,0.024494,0,23735,57.694,0,0,0,0,0.020201,0
23651,54.3,19.133,0,0.024562,0,23735,57.694,0,0,0,0,0.020293,0
23651,54.3,19.133,0,0.024562,0,23735,57.694,0,0,0,0,0.020293,0
23652,54.3,19.133,0,0.024631,0,23735,57.694,0,0,0,0,0.020386,0
23652,54.3,19.134,0,0.024699,0,23735,57.694,0,0,0,0,0.02048,0
23652,54.3,19.134,0,0.024699,0,23735,57.694,0,0,0,0,0.02048,0
23652,54.3,19.134,0,0.024699,0,23735,57.694,0,0,0,0,0.02048,0
23652,54.3,19.134,0,0.024699,0,23735,57.694,0,0,0,0,0.02048,0
23652,54.3,19.134,0,0.024699,0,23735,57.694,0,0,0,0,0.02048,0
23652,54.3,19.134,0,0.024699,0,23735,57.694,0,0,0,0,0.02048,0
23652,54.3,19.134,0,0.024699,0,23735,57.694,0,0,0,0,0.02048,0
23652,54.3,19.134,0,0.024699,0,23735,57.694,0,0,0,0,0.02048,0
23652,54.3,19.134,0,0.024699,0,23735,57.694,0,0,0,0,0.02048,0
23652,54.3,19.134,0,0.024699,0,23735,57.694,0,0,0,0,0.02048,0
23652,54.3,19.134,0,0.024699,0,23735,57.694,0,0,0,0,0.02048,0
23652,54.3,19.134,0,0.024699,0,23735,57.694,0,0,0,0,0.02048,0
23652,54.3,19.134,0,0.024699,0,23735,57.694,0,0,0,0,0.02048,0
23652,54.3,19.134,0,0.024699,0,23735,57.694,0,0,0,0,0.02048,0
23652,54.3,19.134,0,0.024699,0,23735,57.694,0,0,0,0,0.02048,0
23652,54.3,19.134,0,0.024699,0,23735,57.694,0,0,0,0,0.02048,0
23653,54.3,19.135,0,0.024835,0,23735,57.694,0,0,0,0,0.02067,0
23653,54.3,19.135,0,0.024835,0,23735,57.694,0,0,0,0,0.02067,0
23653,54.3,19.135,0,0.024835,0,23735,57.694,0,0,0,0,0.02067,0
23653,54.3,19.135,0,0.024835,0,23735,57.694,0,0,0,0,0.02067,0
23653,54.3,19.136,0,0.024971,0,23735,57.694,0,0,0,0,0.020863,0
23655,54.3,19.137,0,0.025174,0,23735,57.694,0,0,0,0,0.02116,0
23655,54.3,19.137,0,0.025174,0,23735,57.694,0,0,0,0,0.02116,0
23656,54.3,19.139,0,0.025376,0,23735,57.694,0,0,0,0,0.021466,0
23656,54.3,19.139,0,0.025376,0,23735,57.694,0,0,0,0,0.021466,0
23656,54.3,19.139,0,0.025376,0,23735,57.694,0,0,0,0,0.021466,0
23656,54.3,19.139,0,0.025376,0,23735,57.694,0,0,0,0,0.021466,0
23656,54.3,19.139,0,0.025376,0,23735,57.694,0,0,0,0,0.021466,0
23656,54.3,19.139,0,0.025376,0,23735,57.694,0,0,0,0,0.021466,0
23656,54.3,19.139,0,0.025376,0,23735,57.694,0,0,0,0,0.021466,0
23656,54.3,19.139,0,0.025376,0,23735,57.694,0,0,0,0,0.021466,0
23656,54.3,19.139,0,0.025376,0,23735,57.694,0,0,0,0,0.021466,0
23656,54.3,19.139,0,0.025376,0,23735,57.694,0,0,0,0,0.021466,0
23657,54.3,19.14,0,0.025578,0,23735,57.694,0,0,0,0,0.02178,0
23657,54.3,19.14,0,0.025578,0,23735,57.694,0,0,0,0,0.02178,0
23657,54.3,19.14,0,0.025578,0,23735,57.694,0,0,0,0,0.02178,0
23657,54.3,19.14,0,0.025578,0,23735,57.694,0,0,0,0,0.02178,0
23657,54.3,19.14,0,0.025578,0,23735,57.694,0,0,0,0,0.02178,0
23657,54.3,19.14,0,0.025578,0,23735,57.694,0,0,0,0,0.02178,0
23657,54.3,19.14,0,0.025578,0,23735,57.694,0,0,0,0,0.02178,0
23657,54.3,19.14,0,0.025578,0,23735,57.694,0,0,0,0,0.02178,0
23657,54.3,19.141,0,0.025646,0,23735,57.694,0,0,0,0,0.021887,0
23657,54.3,19.141,0,0.025646,0,23735,57.694,0,0,0,0,0.021887,0
23658,54.3,19.141,0,0.025712,0,23735,57.694,0,0,0,0,0.021995,0
23659,54.3,19.143,0,0.025979,0,23735,57.694,0,0,0,0,0.022438,0
23659,54.3,19.143,0,0.025979,0,23735,57.694,0,0,0,0,0.022438,0
23661,54.3,19.146,0,0.026245,0,23735,57.694,0,0,0,0,0.022899,0
23661,54.3,19.146,0,0.026245,0,23735,57.694,0,0,0,0,0.022899,0
23661,54.3,19.146,0,0.026245,0,23735,57.694,0,0,0,0,0.022899,0
23661,54.3,19.146,0,0.026245,0,23735,57.694,0,0,0,0,0.022899,0
23661,54.3,19.146,0,0.026312,0,23735,57.694,0,0,0,0,0.023017,0
23661,54.3,19.146,0,0.026312,0,23735,57.694,0,0,0,0,0.023017,0
23661,54.3,19.146,0,0.026312,0,23735,57.694,0,0,0,0,0.023017,0
23661,54.3,19.146,0,0.026312,0,23735,57.694,0,0,0,0,0.023017,0
23661,54.3,19.146,0,0.026312,0,23735,57.694,0,0,0,0,0.023017,0
23661,54.3,19.146,0,0.026312,0,23735,57.694,0,0,0,0,0.023017,0
23661,54.3,19.146,0,0.026312,0,23735,57.694,0,0,0,0,0.023017,0
23661,54.3,19.147,0,0.026378,0,23735,57.694,0,0,0,0,0.023137,0
23661,54.3,19.147,0,0.026378,0,23735,57.694,0,0,0,0,0.023137,0
23661,54.3,19.147,0,0.026378,0,23735,57.694,0,0,0,0,0.023137,0
23661,54.3,19.147,0,0.026378,0,23735,57.694,0,0,0,0,0.023137,0
23661,54.3,19.147,0,0.026378,0,23735,57.694,0,0,0,0,0.023137,0
23661,54.3,19.147,0,0.026378,0,23735,57.694,0,0,0,0,0.023137,0
23661,54.3,19.147,0,0.026378,0,23735,57.694,0,0,0,0,0.023137,0
23662,54.3,19.148,0,0.02651,0,23735,57.694,0,0,0,0,0.02338,0
23663,54.3,19.149,0,0.026707,0,23735,57.694,0,0,0,0,0.023753,0
23664,54.3,19.15,0,0.026773,0,23735,57.694,0,0,0,0,0.023881,0
23664,54.3,19.15,0,0.026773,0,23735,57.694,0,0,0,0,0.023881,0
23664,54.3,19.15,0,0.026773,0,23735,57.694,0,0,0,0,0.023881,0
23664,54.3,19.15,0,0.026773,0,23735,57.694,0,0,0,0,0.023881,0
23664,54.3,19.15,0,0.026773,0,23735,57.694,0,0,0,0,0.023881,0
23664,54.3,19.15,0,0.026773,0,23735,57.694,0,0,0,0,0.023881,0
23664,54.3,19.15,0,0.026773,0,23735,57.694,0,0,0,0,0.023881,0
23664,54.3,19.15,0,0.026773,0,23735,57.694,0,0,0,0,0.023881,0
23664,54.3,19.15,0,0.026773,0,23735,57.694,0,0,0,0,0.023881,0
23664,54.3,19.15,0,0.026773,0,23735,57.694,0,0,0,0,0.023881,0
23665,54.3,19.152,0,0.027035,0,23735,57.694,0,0,0,0,0.024404,0
23665,54.3,19.152,0,0.027035,0,23735,57.694,0,0,0,0,0.024404,0
23665,54.3,19.152,0,0.027035,0,23735,57.694,0,0,0,0,0.024404,0
23665,54.3,19.152,0,0.027035,0,23735,57.694,0,0,0,0,0.024404,0
23665,54.3,19.152,0,0.027035,0,23735,57.694,0,0,0,0,0.024404,0
23665,54.3,19.152,0,0.027035,0,23735,57.694,0,0,0,0,0.024404,0
23665,54.3,19.152,0,0.027035,0,23735,57.694,0,0,0,0,0.024404,0
23665,54.3,19.152,0,0.027035,0,23735,57.694,0,0,0,0,0.024404,0
23665,54.3,19.152,0,0.027035,0,23735,57.694,0,0,0,0,0.024404,0
23665,54.3,19.152,0,0.027035,0,23735,57.694,0,0,0,0,0.024404,0
23665,54.3,19.152,0,0.027035,0,23735,57.694,0,0,0,0,0.024404,0
23665,54.3,19.152,0,0.027035,0,23735,57.694,0,0,0,0,0.024404,0
23665,54.3,19.152,0,0.027035,0,23735,57.694,0,0,0,0,0.024404,0
23665,54.3,19.152,0,0.027035,0,23735,57.694,0,0,0,0,0.024404,0
23667,54.3,19.155,0,0.027361,0,23735,57.694,0,0,0,0,0.025091,0
23668,54.3,19.156,0,0.027555,0,23735,57.694,0,0,0,0,0.025522,0
23668,54.3,19.156,0,0.027555,0,23735,57.694,0,0,0,0,0.025522,0
23670,54.3,19.158,0,0.027748,0,23735,57.694,0,0,0,0,0.025968,0
23670,54.3,19.158,0,0.027748,0,23735,57.694,0,0,0,0,0.025968,0
23670,54.3,19.158,0,0.027748,0,23735,57.694,0,0,0,0,0.025968,0
23670,54.3,19.158,0,0.027748,0,23735,57.694,0,0,0,0,0.025968,0
23670,54.3,19.158,0,0.027748,0,23735,57.694,0,0,0,0,0.025968,0
23670,54.3,19.158,0,0.027748,0,23735,57.694,0,0,0,0,0.025968,0
23670,54.3,19.158,0,0.027748,0,23735,57.694,0,0,0,0,0.025968,0
23670,54.3,19.158,0,0.027748,0,23735,57.694,0,0,0,0,0.025968,0
23670,54.3,19.158,0,0.027748,0,23735,57.694,0,0,0,0,0.025968,0
23670,54.3,19.158,0,0.027748,0,23735,57.694,0,0,0,0,0.025968,0
23670,54.3,19.158,0,0.027748,0,23735,57.694,0,0,0,0,0.025968,0
23670,54.3,19.159,0,0.027876,0,23735,57.694,0,0,0,0,0.026274,0
23670,54.3,19.159,0,0.027876,0,23735,57.694,0,0,0,0,0.026274,0
23670,54.3,19.159,0,0.027876,0,23735,57.694,0,0,0,0,0.026274,0
23670,54.3,19.159,0,0.027876,0,23735,57.694,0,0,0,0,0.026274,0
23670,54.3,19.159,0,0.027876,0,23735,57.694,0,0,0,0,0.026274,0
23670,54.3,19.159,0,0.027876,0,23735,57.694,0,0,0,0,0.026274,0
23670,54.3,19.159,0,0.027876,0,23735,57.694,0,0,0,0,0.026274,0
23671,54.3,19.16,0,0.027941,0,23735,57.694,0,0,0,0,0.02643,0
23671,54.3,19.16,0,0.027941,0,23735,57.694,0,0,0,0,0.02643,0
23671,54.3,19.16,0,0.028005,0,23735,57.694,0,0,0,0,0.026588,0
23671,54.3,19.16,0,0.028005,0,23735,57.694,0,0,0,0,0.026588,0
23671,54.3,19.16,0,0.028005,0,23735,57.694,0,0,0,0,0.026588,0
23671,54.3,19.16,0,0.028005,0,23735,57.694,0,0,0,0,0.026588,0
23671,54.3,19.16,0,0.028005,0,23735,57.694,0,0,0,0,0.026588,0
23674,54.3,19.164,0,0.028451,0,23735,57.694,0,0,0,0,0.027747,0
23674,54.3,19.164,0,0.028451,0,23735,57.694,0,0,0,0,0.027747,0
23674,54.3,19.164,0,0.028451,0,23735,57.694,0,0,0,0,0.027747,0
23674,54.3,19.164,0,0.028451,0,23735,57.694,0,0,0,0,0.027747,0
23675,54.3,19.166,0,0.028705,0,23735,57.694,0,0,0,0,0.028456,0
23675,54.3,19.166,0,0.028705,0,23735,57.694,0,0,0,0,0.028456,0
23675,54.3,19.166,0,0.028705,0,23735,57.694,0,0,0,0,0.028456,0
23675,54.3,19.166,0,0.028705,0,23735,57.694,0,0,0,0,0.028456,0
23675,54.3,19.166,0,0.028705,0,23735,57.694,0,0,0,0,0.028456,0
23675,54.3,19.166,0,0.028705,0,23735,57.694,0,0,0,0,0.028456,0
23675,54.3,19.166,0,0.028705,0,23735,57.694,0,0,0,0,0.028456,0
23675,54.3,19.166,0,0.028705,0,23735,57.694,0,0,0,0,0.028456,0
23676,54.3,19.167,0,0.028768,0,23735,57.694,0,0,0,0,0.028639,0
23676,54.3,19.167,0,0.028768,0,23735,57.694,0,0,0,0,0.028639,0
23676,54.3,19.168,0,0.028831,0,23735,57.694,0,0,0,0,0.028824,0
23676,54.3,19.168,0,0.028831,0,23735,57.694,0,0,0,0,0.028824,0
23676,54.3,19.168,0,0.028831,0,23735,57.694,0,0,0,0,0.028824,0
23676,54.3,19.168,0,0.028831,0,23735,57.694,0,0,0,0,0.028824,0
23676,54.3,19.168,0,0.028831,0,23735,57.694,0,0,0,0,0.028824,0
23676,54.3,19.168,0,0.028831,0,23735,57.694,0,0,0,0,0.028824,0
23676,54.3,19.168,0,0.028831,0,23735,57.694,0,0,0,0,0.028824,0
23677,54.3,19.169,0,0.02902,0,23735,57.694,0.12,1.3498e-06,4,7.8734e-05,0.029571,0
23677,54.3,19.169,0,0.02902,0,23735,57.694,0.36,2.6585e-05,4,0.00069427,0.02992,0
23677,54.3,19.169,0,0.02902,0,23735,57.694,0.36,2.6585e-05,4,0.00069427,0.02992,0
23677,54.3,19.169,0,0.02902,0,23735,57.694,0.44,4.6373e-05,4,0.0010259,0.030035,0
23677,54.3,19.169,0,0.02902,0,23735,57.694,0.44,4.6373e-05,4,0.0010259,0.030035,0
23677,54.3,19.169,0,0.02902,0,23735,57.694,0.68,0.00015629,4,0.0023609,0.03038,0
23677,54.3,19.169,0,0.02902,0,23735,57.694,0.68,0.00015629,4,0.0023609,0.03038,0
23677,54.3,19.169,0,0.02902,0,23735,57.694,0.68,0.00015629,4,0.0023609,0.03038,0
23677,54.3,19.169,0,0.02902,0,23735,57.694,0.76,0.00021322,4,0.0029067,0.030494,0
23677,54.3,19.169,0,0.02902,0,23735,57.694,0.76,0.00021322,4,0.0029067,0.030494,0
23680,54.3,19.173,0,0.029457,0,23735,57.694,0.76,0.00021322,4,0.0029067,0.031968,0
23680,54.3,19.173,0,0.029457,0,23735,57.694,0.76,0.00021322,4,0.0029067,0.031968,0
23680,54.3,19.173,0,0.029457,0,23735,57.694,0.76,0.00021322,4,0.0029067,0.031968,0
23680,54.3,19.173,0,0.029457,0,23735,57.694,0.92,0.00036278,4,0.0041221,0.032205,0
23680,54.3,19.173,0,0.029457,0,23735,57.694,1,0.00045681,4,0.0047813,0.032323,0
23680,54.3,19.173,0,0.029457,0,23735,57.694,1.08,0.00056444,4,0.0054676,0.03244,0
23680,54.3,19.173,0,0.029457,0,23735,57.694,1.08,0.00056444,4,0.0054676,0.03244,0
23680,54.3,19.173,0,0.029457,0,23735,57.694,1.08,0.00056444,4,0.0054676,0.03244,0
23682,54.3,19.176,0,0.029766,0,23735,57.694,1.16,0.00068607,4,0.0061751,0.033719,0
23682,54.3,19.176,0,0.029766,0,23735,57.694,1.16,0.00068607,4,0.0061751,0.033719,0
23682,54.3,19.176,0,0.029766,0,23735,57.694,1.16,0.00068607,4,0.0061751,0.033719,0
23682,54.3,19.176,0,0.029766,0,23735,57.694,1.16,0.00068607,4,0.0061751,0.033719,0
23682,54.3,19.176,0,0.029766,0,23735,57.694,1.16,0.00068607,4,0.0061751,0.033719,0
23682,54.3,19.176,0,0.029766,0,23735,57.694,1.16,0.00068607,4,0.0061751,0.033719,0
23682,54.3,19.176,0,0.029766,0,23735,57.694,1.16,0.00068607,4,0.0061751,0.033719,0
23682,54.3,19.176,0,0.029766,0,23735,57.694,1.16,0.00068607,4,0.0061751,0.033719,0
23682,54.3,19.176,0,0.029766,0,23735,57.694,1.32,0.00097246,4,0.0076297,0.033958,0
23682,54.3,19.176,0,0.029766,0,23735,57.694,1.32,0.00097246,4,0.0076297,0.033958,0
23683,54.3,19.178,0,0.029889,0,23735,57.694,1.32,0.00097246,4,0.0076297,0.03445,0
23683,54.3,19.178,0,0.029889,0,23735,57.694,1.32,0.00097246,4,0.0076297,0.03445,0
23683,54.3,19.178,0,0.029889,0,23735,57.694,1.32,0.00097246,4,0.0076297,0.03445,0
23683,54.3,19.178,0,0.029889,0,23735,57.694,1.32,0.00097246,4,0.0076297,0.03445,0
23683,54.3,19.178,0,0.029951,0,23735,57.694,1.32,0.00097246,4,0.0076297,0.034701,0
23683,54.3,19.178,0,0.029951,0,23735,57.694,1.64,0.0017185,4,0.010527,0.03518,0
23684,54.3,19.18,0,0.030135,0,23735,57.694,1.64,0.0017185,4,0.010527,0.035965,0
23684,54.3,19.18,0,0.030135,0,23735,57.694,1.8,0.0021743,4,0.011874,0.036205,0
23684,54.3,19.18,0,0.030135,0,23735,57.694,1.8,0.0021743,4,0.011874,0.036205,0
23684,54.3,19.18,0,0.030135,0,23736,57.694,1.96,0.0026796,4,0.013094,0.036442,0
23684,54.3,19.18,0,0.030135,0,23736,57.694,1.96,0.0026796,4,0.013094,0.036442,0
23684,54.3,19.18,0,0.030135,0,23736,57.694,2.04,0.002949,4,0.013645,0.036559,0
23684,54.3,19.18,0,0.030135,0,23736,57.694,2.04,0.002949,4,0.013645,0.036559,0
23684,54.3,19.18,0,0.030135,0,23736,57.694,2.04,0.002949,4,0.013645,0.036559,0
23684,54.3,19.18,0,0.030135,0,23736,57.694,2.04,0.002949,4,0.013645,0.036559,0
23684,54.3,19.18,0,0.030135,0,23736,57.694,2.04,0.002949,4,0.013645,0.036559,0
23684,54.3,19.18,0,0.030135,0,23736,57.694,2.04,0.002949,4,0.013645,0.036559,0
23686,54.3,19.183,0,0.030439,0,23736,57.694,2.04,0.002949,4,0.013645,0.037966,0
23686,54.3,19.183,0,0.030439,0,23736,57.694,2.04,0.002949,4,0.013645,0.037966,0
23686,54.3,19.184,0,0.0305,0,23736,57.694,2.04,0.002949,4,0.013645,0.03826,0
23687,54.3,19.184,0,0.03056,0,23736,57.694,2.04,0.002949,4,0.013645,0.03856,0
23687,54.3,19.184,0,0.03056,0,23736,57.694,2.04,0.002949,4,0.013645,0.03856,0
23687,54.3,19.184,0,0.03056,0,23736,57.694,2.04,0.002949,4,0.013645,0.03856,0
23687,54.3,19.184,0,0.03056,0,23736,57.694,2.04,0.002949,4,0.013645,0.03856,0
23688,54.3,19.186,0,0.030742,0,23736,57.694,2.04,0.002949,4,0.013645,0.039485,0
23688,54.3,19.186,0,0.030742,0,23736,57.694,2.04,0.002949,4,0.013645,0.039485,0
23688,54.3,19.187,0,0.030803,0,23736,57.694,2.04,0.002949,4,0.013645,0.039804,0
23688,54.3,19.187,0,0.030803,0,23736,57.694,2.04,0.002949,4,0.013645,0.039804,0
23688,54.3,19.187,0,0.030803,0,23736,57.694,2.04,0.002949,4,0.013645,0.039804,0
23688,54.3,19.187,0,0.030803,0,23736,57.694,2.04,0.002949,4,0.013645,0.039804,0
23688,54.3,19.187,0,0.030803,0,23736,57.694,2.04,0.002949,4,0.013645,0.039804,0
23688,54.3,19.187,0,0.030803,0,23736,57.694,2.04,0.002949,4,0.013645,0.039804,0
23688,54.3,19.187,0,0.030803,0,23736,57.694,2.04,0.002949,4,0.013645,0.039804,0
23688,54.3,19.187,0,0.030803,0,23736,57.694,2.04,0.002949,4,0.013645,0.039804,0
23689,54.3,19.187,0,0.030863,0,23736,57.694,2.04,0.002949,4,0.013645,0.040127,0
23689,54.3,19.187,0,0.030863,0,23736,57.695,2.76,0.0056905,4,0.016159,0.041217,0
23689,54.3,19.189,0,0.030983,0,23736,57.695,2.76,0.0056905,4,0.016159,0.041892,0
23689,54.3,19.189,0,0.030983,0,23736,57.695,2.76,0.0056905,4,0.016159,0.041892,0
23690,54.3,19.189,0,0.031042,0,23736,57.695,2.76,0.0056905,4,0.016159,0.042238,0
23690,54.3,19.189,0,0.031042,0,23736,57.696,3.08,0.0069461,4,0.015653,0.042703,0
23691,54.3,19.191,0,0.031221,0,23736,57.696,3.08,0.0069461,4,0.015653,0.043782,0
23691,54.3,19.191,0,0.031221,0,23736,57.696,3.24,0.0075448,4,0.015026,0.04401,0
23691,54.3,19.191,0,0.031221,0,23736,57.696,3.32,0.0078328,4,0.014626,0.044123,0
23691,54.3,19.191,0,0.031221,0,23736,57.696,3.32,0.0078328,4,0.014626,0.044123,0
23691,54.3,19.191,0,0.031221,0,23736,57.696,3.32,0.0078328,4,0.014626,0.044123,0
23691,54.3,19.191,0,0.031221,0,23737,57.696,3.4,0.0081117,4,0.014171,0.044234,0
23691,54.3,19.191,0,0.031221,0,23737,57.696,3.4,0.0081117,4,0.014171,0.044234,0
23691,54.3,19.191,0,0.031221,0,23737,57.696,3.4,0.0081117,4,0.014171,0.044234,0
23691,54.3,19.191,0,0.031221,0,23737,57.696,3.4,0.0081117,4,0.014171,0.044234,0
23691,54.3,19.191,0,0.031221,0,23737,57.696,3.4,0.0081117,4,0.014171,0.044234,0
23693,54.3,19.193,0,0.031458,0,23737,57.696,3.4,0.0081117,4,0.014171,0.045767,0
23693,54.3,19.193,0,0.031458,0,23737,57.696,3.4,0.0081117,4,0.014171,0.045767,0
23693,54.3,19.193,0,0.031458,0,23737,57.696,3.4,0.0081117,4,0.014171,0.045767,0
23693,54.3,19.193,0,0.031458,0,23737,57.696,3.4,0.0081117,4,0.014171,0.045767,0
23693,54.3,19.193,0,0.031458,0,23737,57.696,3.4,0.0081117,4,0.014171,0.045767,0
23693,54.3,19.193,0,0.031458,0,23737,57.696,3.4,0.0081117,4,0.014171,0.045767,0
23693,54.3,19.193,0,0.031458,0,23737,57.696,3.4,0.0081117,4,0.014171,0.045767,0
23693,54.3,19.194,0,0.031517,0,23737,57.696,3.4,0.0081117,4,0.014171,0.046167,0
23693,54.3,19.194,0,0.031517,0,23737,57.696,3.4,0.0081117,4,0.014171,0.046167,0
23693,54.3,19.194,0,0.031517,0,23737,57.697,3.64,0.0088842,4,0.012505,0.046499,0
23694,54.3,19.196,0,0.031693,0,23737,57.697,3.72,0.0091172,4,0.011861,0.047854,0
23694,54.3,19.196,0,0.031693,0,23737,57.697,3.88,0.0095421,4,0.01046,0.048067,0
23696,54.3,19.199,0,0.031927,0,23737,57.697,3.88,0.0095421,4,0.01046,0.049838,0
23696,54.3,19.199,0,0.031927,0,23737,57.698,4.2,0.01021,4,0.0073224,0.050249,0
23696,54.3,19.199,0,0.031927,0,23737,57.698,4.2,0.01021,4,0.0073224,0.050249,0
23696,54.3,19.199,0,0.031927,0,23737,57.698,4.2,0.01021,4,0.0073224,0.050249,0
23696,54.3,19.199,0,0.031927,0,23737,57.698,4.2,0.01021,4,0.0073224,0.050249,0
23696,54.3,19.199,0,0.031927,0,23737,57.698,4.2,0.01021,4,0.0073224,0.050249,0
23696,54.3,19.199,0,0.031927,0,23737,57.698,4.2,0.01021,4,0.0073224,0.050249,0
23696,54.3,19.199,0,0.031927,0,23737,57.698,4.2,0.01021,4,0.0073224,0.050249,0
23696,54.3,19.199,0,0.031927,0,23737,57.698,4.2,0.01021,4,0.0073224,0.050249,0
23696,54.3,19.199,0,0.031927,0,23737,57.698,4.2,0.01021,4,0.0073224,0.050249,0
23696,54.3,19.2,0,0.032044,0,23737,57.698,4.2,0.01021,4,0.0073224,0.051184,0
23696,54.3,19.2,0,0.032044,0,23737,57.698,4.2,0.01021,4,0.0073224,0.051184,0
23696,54.3,19.2,0,0.032044,0,23737,57.698,4.2,0.01021,4,0.0073224,0.051184,0
23696,54.3,19.2,0,0.032044,0,23737,57.698,4.2,0.01021,4,0.0073224,0.051184,0
23696,54.3,19.2,0,0.032044,0,23737,57.698,4.2,0.01021,4,0.0073224,0.051184,0
23696,54.3,19.2,0,0.032044,0,23737,57.698,4.2,0.01021,4,0.0073224,0.051184,0
23696,54.3,19.2,0,0.032044,0,23737,57.698,4.2,0.01021,4,0.0073224,0.051184,0
23696,54.3,19.2,0,0.032044,0,23737,57.698,4.2,0.01021,4,0.0073224,0.051184,0
23697,54.3,19.2,0,0.032102,0,23737,57.698,4.2,0.01021,4,0.0073224,0.051665,0
23697,54.3,19.2,0,0.032102,0,23737,57.698,4.2,0.01021,4,0.0073224,0.051665,0
23697,54.3,19.201,0,0.03216,0,23737,57.698,4.2,0.01021,4,0.0073224,0.052155,0
23697,54.3,19.201,0,0.03216,0,23737,57.698,4.2,0.01021,4,0.0073224,0.052155,0
23698,54.3,19.203,0,0.032333,0,23738,57.699,4.6,0.010677,4,0.0030939,0.054157,0
23700,54.3,19.206,0,0.032563,0,23738,57.7,4.76,0.010746,4,0.0014048,0.056505,0
23700,54.3,19.206,0,0.032563,0,23738,57.7,5.08,0.0092955,4.0001,-0.04186,0.056831,0
23700,54.3,19.206,0,0.032563,0,23738,57.7,5.08,0.0092955,4.0001,-0.04186,0.056831,0
23700,54.3,19.206,0,0.032563,0,23738,57.701,5.16,0.0076955,4.0001,-0.073708,0.056908,0
23700,54.3,19.206,0,0.032563,0,23738,57.701,5.16,0.0076955,4.0001,-0.073708,0.056908,0
23700,54.3,19.206,0,0.032563,0,23739,57.701,5.24,0.0052526,4.0001,-0.11422,0.056983,0
23700,54.3,19.206,0,0.032563,0,23739,57.701,5.24,0.0052526,4.0001,-0.11422,0.056983,0
23700,54.3,19.206,0,0.032563,0,23739,57.701,5.24,0.0052526,4.0001,-0.11422,0.056983,0
23700,54.3,19.206,0,0.032563,0,23739,57.701,5.24,0.0052526,4.0001,-0.11422,0.056983,0
23700,54.3,19.206,0,0.032563,0,23739,57.701,5.24,0.0052526,4.0001,-0.11422,0.056983,0
23700,54.3,19.206,0,0.032563,0,23739,57.701,5.24,0.0052526,4.0001,-0.11422,0.056983,0
23700,54.3,19.206,0,0.032563,0,23739,57.701,5.24,0.0052526,4.0001,-0.11422,0.056983,0
23700,54.3,19.206,0,0.032563,0,23739,57.701,5.24,0.0052526,4.0001,-0.11422,0.056983,0
23700,54.3,19.206,0,0.032563,0,23739,57.701,5.24,0.0052526,4.0001,-0.11422,0.056983,0
23701,54.3,19.208,0,0.032791,0,23739,57.701,5.24,0.0052526,4.0001,-0.11422,0.059315,0
23701,54.3,19.208,0,0.032791,0,23739,57.701,5.24,0.0052526,4.0001,-0.11422,0.059315,0
23701,54.3,19.208,0,0.032791,0,23739,57.701,5.24,0.0052526,4.0001,-0.11422,0.059315,0
23702,54.3,19.209,0,0.032847,0,23739,57.701,5.24,0.0052526,4.0001,-0.11422,0.059928,0
23702,54.3,19.209,0,0.032847,0,23739,57.701,5.24,0.0052526,4.0001,-0.11422,0.059928,0
23702,54.3,19.21,0,0.032903,0,23739,57.701,5.24,0.0052526,4.0001,-0.11422,0.060554,0
23704,54.3,19.212,0,0.033129,0,23739,57.7,5.56,-0.016187,3.9992,-0.35803,0.06343,0
23704,54.3,19.212,0,0.033129,0,23739,57.697,5.8797,-0.06322,3.9933,-0.71481,0.063633,0
23704,54.3,19.212,0,0.033129,0,23739,57.697,5.8797,-0.06322,3.9933,-0.71481,0.063633,0
23704,54.3,19.212,0,0.033129,0,23739,57.697,5.8797,-0.06322,3.9933,-0.71481,0.063633,0
23704,54.3,19.214,0,0.033242,0,23739,57.697,5.8797,-0.06322,3.9933,-0.71481,0.065015,0
23705,54.3,19.214,0,0.033298,0,23739,57.697,5.8797,-0.06322,3.9933,-0.71481,0.065728,0
23705,54.3,19.214,0,0.033298,0,23739,57.697,5.8797,-0.06322,3.9933,-0.71481,0.065728,0
23705,54.3,19.214,0,0.033298,0,23739,57.697,5.8797,-0.06322,3.9933,-0.71481,0.065728,0
23705,54.3,19.214,0,0.033298,0,23739,57.697,5.8797,-0.06322,3.9933,-0.71481,0.065728,0
23705,54.3,19.214,0,0.033298,0,23739,57.697,5.8797,-0.06322,3.9933,-0.71481,0.065728,0
23705,54.3,19.214,0,0.033298,0,23739,57.697,5.8797,-0.06322,3.9933,-0.71481,0.065728,0
23705,54.3,19.214,0,0.033298,0,23739,57.697,5.8797,-0.06322,3.9933,-0.71481,0.065728,0
23705,54.3,19.214,0,0.033298,0,23739,57.697,5.8797,-0.06322,3.9933,-0.71481,0.065728,0
23705,54.3,19.214,0,0.033298,0,23739,57.697,5.8797,-0.06322,3.9933,-0.71481,0.065728,0
23705,54.3,19.214,0,0.033298,0,23739,57.697,5.8797,-0.06322,3.9933,-0.71481,0.065728,0
23705,54.3,19.214,0,0.033298,0,23740,57.691,6.1188,-0.11978,3.982,-1.0377,0.06584,0
23705,54.3,19.214,0,0.033298,0,23740,57.689,6.1984,-0.14314,3.9763,-1.1528,0.065872,0
23705,54.3,19.214,0,0.033298,0,23740,57.689,6.1984,-0.14314,3.9763,-1.1528,0.065872,0
23705,54.3,19.214,0,0.033298,0,23740,57.689,6.1984,-0.14314,3.9763,-1.1528,0.065872,0
23705,54.3,19.214,0,0.033298,0,23740,57.689,6.1984,-0.14314,3.9763,-1.1528,0.065872,0
23705,54.3,19.214,0,0.033298,0,23740,57.689,6.1984,-0.14314,3.9763,-1.1528,0.065872,0
23705,54.3,19.214,0,0.033298,0,23740,57.689,6.1984,-0.14314,3.9763,-1.1528,0.065872,0
23705,54.3,19.214,0,0.033298,0,23740,57.689,6.1984,-0.14314,3.9763,-1.1528,0.065872,0
23706,54.3,19.216,0,0.033466,0,23740,57.689,6.1984,-0.14314,3.9763,-1.1528,0.068082,0
23708,54.3,19.219,0,0.033687,0,23740,57.682,6.357,-0.19694,3.9614,-1.3905,0.071291,0
23708,54.3,19.219,0,0.033687,0,23741,57.66,6.6717,-0.33355,3.9153,-1.879,0.0713,0
23708,54.3,19.219,0,0.033687,0,23741,57.66,6.6717,-0.33355,3.9153,-1.879,0.0713,0
23708,54.3,19.219,0,0.033687,0,23741,57.66,6.6717,-0.33355,3.9153,-1.879,0.0713,0
23708,54.3,19.219,0,0.033687,0,23741,57.66,6.6717,-0.33355,3.9153,-1.879,0.0713,0
23708,54.3,19.219,0,0.033687,0,23741,57.636,6.9046,-0.46122,3.8651,-2.2382,0.071274,0
23708,54.3,19.219,0,0.033687,0,23741,57.626,6.9815,-0.50841,3.8454,-2.3536,0.071259,0
23708,54.3,19.219,0,0.033687,0,23741,57.626,6.9815,-0.50841,3.8454,-2.3536,0.071259,0
23708,54.3,19.219,0,0.033687,0,23741,57.626,6.9815,-0.50841,3.8454,-2.3536,0.071259,0
23708,54.3,19.219,0,0.033687,0,23741,57.626,6.9815,-0.50841,3.8454,-2.3536,0.071259,0
23708,54.3,19.219,0,0.033687,0,23741,57.626,6.9815,-0.50841,3.8454,-2.3536,0.071259,0
23708,54.3,19.219,0,0.033687,0,23741,57.626,6.9815,-0.50841,3.8454,-2.3536,0.071259,0
23708,54.3,19.219,0,0.033687,0,23741,57.626,6.9815,-0.50841,3.8454,-2.3536,0.071259,0
23708,54.3,19.219,0,0.033687,0,23741,57.626,6.9815,-0.50841,3.8454,-2.3536,0.071259,0
23708,54.3,19.219,0,0.033687,0,23741,57.626,6.9815,-0.50841,3.8454,-2.3536,0.071259,0
23708,54.3,19.219,0,0.033687,0,23741,57.626,6.9815,-0.50841,3.8454,-2.3536,0.071259,0
23710,54.3,19.223,0,0.034016,0,23741,57.626,6.9815,-0.50841,3.8454,-2.3536,0.076419,0
23710,54.3,19.223,0,0.034016,0,23741,57.603,7.1341,-0.60938,3.8017,-2.5753,0.076332,0
23710,54.3,19.223,0,0.034016,0,23741,57.603,7.1341,-0.60938,3.8017,-2.5753,0.076332,0
23710,54.3,19.223,0,0.034016,0,23742,57.59,7.2096,-0.66302,3.7779,-2.6806,0.076284,0
23710,54.3,19.223,0,0.034016,0,23742,57.59,7.2096,-0.66302,3.7779,-2.6806,0.076284,0
23713,54.3,19.228,0,0.034396,0,23742,57.561,7.3592,-0.77618,3.727,-2.8784,0.083034,0
23713,54.3,19.228,0,0.034396,0,23742,57.561,7.3592,-0.77618,3.727,-2.8784,0.083034,0
23713,54.3,19.228,0,0.034396,0,23742,57.561,7.3592,-0.77618,3.727,-2.8784,0.083034,0
23713,54.3,19.228,0,0.034396,0,23742,57.561,7.3592,-0.77618,3.727,-2.8784,0.083034,0
23713,54.3,19.228,0,0.034449,0,23742,57.561,7.3592,-0.77618,3.727,-2.8784,0.084115,0
23713,54.3,19.228,0,0.034449,0,23742,57.561,7.3592,-0.77618,3.727,-2.8784,0.084115,0
23713,54.3,19.229,0,0.034504,0,23742,57.561,7.3592,-0.77618,3.727,-2.8784,0.085224,0
23713,54.3,19.229,0,0.034504,0,23742,57.561,7.3592,-0.77618,3.727,-2.8784,0.085224,0
23713,54.3,19.229,0,0.034504,0,23742,57.561,7.3592,-0.77618,3.727,-2.8784,0.085224,0
23713,54.3,19.229,0,0.034504,0,23742,57.561,7.3592,-0.77618,3.727,-2.8784,0.085224,0
23713,54.3,19.229,0,0.034504,0,23742,57.561,7.3592,-0.77618,3.727,-2.8784,0.085224,0
23713,54.3,19.229,0,0.034504,0,23742,57.561,7.3592,-0.77618,3.727,-2.8784,0.085224,0
23713,54.3,19.229,0,0.034504,0,23742,57.561,7.3592,-0.77618,3.727,-2.8784,0.085224,0
23714,54.3,19.23,0,0.034557,0,23742,57.561,7.3592,-0.77618,3.727,-2.8784,0.086363,0
23714,54.3,19.23,0,0.034557,0,23743,57.42,7.8655,-1.2235,3.5281,-3.4083,0.085462,0
23714,54.3,19.231,0,0.034664,0,23743,57.42,7.8655,-1.2235,3.5281,-3.4083,0.087726,0
23714,54.3,19.231,0,0.034664,0,23743,57.42,7.8655,-1.2235,3.5281,-3.4083,0.087726,0
23715,54.3,19.232,0,0.034716,0,23743,57.42,7.8655,-1.2235,3.5281,-3.4083,0.088903,0
23716,54.3,19.234,0,0.034876,0,23744,57.31,8.1442,-1.4938,3.4705,-3.2969,0.091844,0
23716,54.3,19.234,0,0.034876,0,23744,57.31,8.1442,-1.4938,3.4705,-3.2969,0.091844,0
23716,54.3,19.234,0,0.034876,0,23744,57.31,8.1442,-1.4938,3.4705,-3.2969,0.091844,0
23716,54.3,19.234,0,0.034876,0,23744,57.31,8.1442,-1.4938,3.4705,-3.2969,0.091844,0
23716,54.3,19.234,0,0.034876,0,23744,57.31,8.1442,-1.4938,3.4705,-3.2969,0.091844,0
23716,54.3,19.235,0,0.034929,0,23744,57.31,8.1442,-1.4938,3.4705,-3.2969,0.093118,0
23717,54.3,19.235,0,0.034982,0,23744,57.31,8.1442,-1.4938,3.4705,-3.2969,0.094426,0
23717,54.3,19.235,0,0.034982,0,23744,57.31,8.1442,-1.4938,3.4705,-3.2969,0.094426,0
23717,54.3,19.235,0,0.034982,0,23744,57.31,8.1442,-1.4938,3.4705,-3.2969,0.094426,0
23717,54.3,19.235,0,0.034982,0,23744,57.31,8.1442,-1.4938,3.4705,-3.2969,0.094426,0
23717,54.3,19.235,0,0.034982,0,23744,57.31,8.1442,-1.4938,3.4705,-3.2969,0.094426,0
23717,54.3,19.235,0,0.034982,0,23744,57.31,8.1442,-1.4938,3.4705,-3.2969,0.094426,0
23717,54.3,19.235,0,0.034982,0,23744,57.31,8.1442,-1.4938,3.4705,-3.2969,0.094426,0
23717,54.3,19.235,0,0.034982,0,23744,57.31,8.1442,-1.4938,3.4705,-3.2969,0.094426,0
23717,54.3,19.236,0,0.035035,0,23744,57.31,8.1442,-1.4938,3.4705,-3.2969,0.095772,0
23717,54.3,19.236,0,0.035035,0,23745,57.107,8.5616,-1.854,3.4732,-2.8846,0.094383,0
23717,54.3,19.236,0,0.035035,0,23745,57.107,8.5616,-1.854,3.4732,-2.8846,0.094383,0
23717,54.3,19.236,0,0.035035,0,23745,57.107,8.5616,-1.854,3.4732,-2.8846,0.094383,0
23717,54.3,19.236,0,0.035035,0,23745,57.107,8.5616,-1.854,3.4732,-2.8846,0.094383,0
23717,54.3,19.236,0,0.035035,0,23745,57.107,8.5616,-1.854,3.4732,-2.8846,0.094383,0
23717,54.3,19.236,0,0.035035,0,23745,57.107,8.5616,-1.854,3.4732,-2.8846,0.094383,0
23717,54.3,19.236,0,0.035035,0,23745,57.107,8.5616,-1.854,3.4732,-2.8846,0.094383,0
23717,54.3,19.236,0,0.035035,0,23745,57.107,8.5616,-1.854,3.4732,-2.8846,0.094383,0
23717,54.3,19.236,0,0.035035,0,23745,57.107,8.5616,-1.854,3.4732,-2.8846,0.094383,0
23717,54.3,19.236,0,0.035035,0,23745,57.107,8.5616,-1.854,3.4732,-2.8846,0.094383,0
23719,54.3,19.24,0,0.035295,0,23745,57.069,8.6312,-1.91,3.4749,-2.8318,0.10107,0
23719,54.3,19.24,0,0.035295,0,23745,57.069,8.6312,-1.91,3.4749,-2.8318,0.10107,0
23719,54.3,19.24,0,0.035295,0,23745,56.949,8.8404,-2.0724,3.482,-2.6883,0.10019,0
23720,54.3,19.241,0,0.0354,0,23745,56.949,8.8404,-2.0724,3.482,-2.6883,0.10317,0
23720,54.3,19.241,0,0.0354,0,23746,56.864,8.9801,-2.1763,3.4887,-2.601,0.10252,0
23720,54.3,19.241,0,0.0354,0,23746,56.864,8.9801,-2.1763,3.4887,-2.601,0.10252,0
23722,54.3,19.245,0,0.035658,0,23746,56.864,8.9801,-2.1763,3.4887,-2.601,0.11063,0
23722,54.3,19.245,0,0.035658,0,23746,56.864,8.9801,-2.1763,3.4887,-2.601,0.11063,0
23722,54.3,19.245,0,0.035658,0,23746,56.864,8.9801,-2.1763,3.4887,-2.601,0.11063,0
23722,54.3,19.245,0,0.035658,0,23746,56.864,8.9801,-2.1763,3.4887,-2.601,0.11063,0
23722,54.3,19.245,0,0.035709,0,23746,56.864,8.9801,-2.1763,3.4887,-2.601,0.11241,0
23722,54.3,19.245,0,0.035709,0,23746,56.864,8.9801,-2.1763,3.4887,-2.601,0.11241,0
23722,54.3,19.245,0,0.035709,0,23746,56.864,8.9801,-2.1763,3.4887,-2.601,0.11241,0
23722,54.3,19.245,0,0.035709,0,23746,56.864,8.9801,-2.1763,3.4887,-2.601,0.11241,0
23722,54.3,19.245,0,0.035709,0,23746,56.864,8.9801,-2.1763,3.4887,-2.601,0.11241,0
23722,54.3,19.245,0,0.035709,0,23746,56.864,8.9801,-2.1763,3.4887,-2.601,0.11241,0
23722,54.3,19.245,0,0.035709,0,23746,56.864,8.9801,-2.1763,3.4887,-2.601,0.11241,0
23722,54.3,19.245,0,0.035709,0,23746,56.864,8.9801,-2.1763,3.4887,-2.601,0.11241,0
23723,54.3,19.247,0,0.035811,0,23747,56.584,9.4014,-2.4683,3.5195,-2.3543,0.11341,0
23723,54.3,19.247,0,0.035811,0,23747,56.584,9.4014,-2.4683,3.5195,-2.3543,0.11341,0
23723,54.3,19.247,0,0.035811,0,23747,56.584,9.4014,-2.4683,3.5195,-2.3543,0.11341,0
23724,54.3,18.947,0,-10,0,23747,56.483,9.5428,-2.5592,3.5337,-2.2721,0.11613,0
23725,54.3,18.147,0,-10,0,23748,56.379,9.6848,-2.6468,3.5501,-2.1883,0.1227,0
23725,54.3,18.147,0,-10,0,23748,56.379,9.6848,-2.6468,3.5501,-2.1883,0.1227,0
23725,54.3,18.147,0,-10,0,23748,56.379,9.6848,-2.6468,3.5501,-2.1883,0.1227,0
23725,54.3,18.147,0,-10,0,23748,56.379,9.6848,-2.6468,3.5501,-2.1883,0.1227,0
23725,54.3,18.147,0,-10,0,23748,56.379,9.6848,-2.6468,3.5501,-2.1883,0.1227,0
23725,54.3,18.147,0,-10,0,23748,56.379,9.6848,-2.6468,3.5501,-2.1883,0.1227,0
23725,54.3,18.147,0,-10,0,23748,56.379,9.6848,-2.6468,3.5501,-2.1883,0.1227,0
23725,54.3,18.147,0,-10,0,23748,56.379,9.6848,-2.6468,3.5501,-2.1883,0.1227,0
23725,54.3,18.147,0,-10,0,23748,56.16,9.9712,-2.8117,3.5892,-2.0132,0.12043,0
23725,54.3,18.147,0,-10,0,23748,56.16,9.9712,-2.8117,3.5892,-2.0132,0.12043,0
23725,54.3,18.147,0,-10,0,23748,56.16,9.9712,-2.8117,3.5892,-2.0132,0.12043,0
23725,54.3,18.147,0,-10,0,23748,56.16,9.9712,-2.8117,3.5892,-2.0132,0.12043,0
23725,54.3,18.147,0,-10,0,23748,56.16,9.9712,-2.8117,3.5892,-2.0132,0.12043,0
23726,54.3,17.747,0,-10,0,23748,56.16,9.9712,-2.8117,3.5892,-2.0132,0.12424,0
23726,54.3,17.747,0,-10,0,23748,56.16,9.9712,-2.8117,3.5892,-2.0132,0.12424,0
23726,54.3,17.747,0,-10,0,23748,56.16,9.9712,-2.8117,3.5892,-2.0132,0.12424,0
23726,54.3,17.747,0,-10,0,23748,56.16,9.9712,-2.8117,3.5892,-2.0132,0.12424,0
23726,54.3,17.747,0,-10,0,23748,56.16,9.9712,-2.8117,3.5892,-2.0132,0.12424,0
23726,54.3,17.747,0,-10,0,23748,56.16,9.9712,-2.8117,3.5892,-2.0132,0.12424,0
23726,54.3,17.747,0,-10,0,23748,56.16,9.9712,-2.8117,3.5892,-2.0132,0.12424,0
23726,54.3,17.747,0,-10,0,23748,56.16,9.9712,-2.8117,3.5892,-2.0132,0.12424,0
23726,54.3,17.747,0,-10,0,23749,56.046,10.116,-2.8887,3.612,-1.921,0.12304,0
23727,54.3,16.947,0,-10,0,23749,56.046,10.116,-2.8887,3.612,-1.921,0.13091,0
23728,54.3,16.547,0,-10,0,23749,56.046,10.116,-2.8887,3.612,-1.921,0.13507,0
23728,54.3,16.347,0,-10,0,23749,56.046,10.116,-2.8887,3.612,-1.921,0.13722,0
23728,54.3,16.347,0,-10,0,23749,56.046,10.116,-2.8887,3.612,-1.921,0.13722,0
23730,54.3,15.547,0,-10,0,23751,55.498,10.654,-3.1532,-0.13102,-0.44339,0.13735,0
23730,54.3,15.547,0,-10,0,23751,55.498,10.654,-3.1532,-0.13102,-0.44339,0.13735,0
23730,54.3,15.547,0,-10,0,23751,55.498,10.654,-3.1532,-0.13102,-0.44339,0.13735,0
23730,54.3,15.547,0,-10,0,23751,55.498,10.654,-3.1532,-0.13102,-0.44339,0.13735,0
23730,54.3,15.547,0,-10,0,23751,55.498,10.654,-3.1532,-0.13102,-0.44339,0.13735,0
23730,54.3,15.547,0,-10,0,23751,55.498,10.654,-3.1532,-0.13102,-0.44339,0.13735,0
23730,54.3,15.547,0,-10,0,23751,55.498,10.654,-3.1532,-0.13102,-0.44339,0.13735,0
23730,54.3,15.547,0,-10,0,23751,55.498,10.654,-3.1532,-0.13102,-0.44339,0.13735,0
23730,54.3,15.347,0,-10,0,23751,55.498,10.654,-3.1532,-0.13102,-0.44339,0.13938,0
23730,54.3,15.347,0,-10,0,23751,55.498,10.654,-3.1532,-0.13102,-0.44339,0.13938,0
23730,54.3,15.147,0,-10,0,23751,55.498,10.654,-3.1532,-0.13102,-0.44339,0.14144,0
23730,54.3,15.147,0,-10,0,23751,55.498,10.654,-3.1532,-0.13102,-0.44339,0.14144,0
23730,54.3,15.147,0,-10,0,23751,55.498,10.654,-3.1532,-0.13102,-0.44339,0.14144,0
23730,54.3,15.147,0,-10,0,23751,55.498,10.654,-3.1532,-0.13102,-0.44339,0.14144,0
23730,54.3,15.147,0,-10,0,23751,55.498,10.654,-3.1532,-0.13102,-0.44339,0.14144,0
23730,54.3,15.147,0,-10,0,23751,55.498,10.654,-3.1532,-0.13102,-0.44339,0.14144,0
23730,54.3,15.147,0,-10,0,23751,55.498,10.654,-3.1532,-0.13102,-0.44339,0.14144,0
23731,54.3,14.552,0,-9.5986,0,23751,55.244,10.642,-3.1959,-0.16828,-0.56141,0.14176,0
23732,54.3,14.182,0,-8.8748,0,23752,55.051,10.631,-3.2307,-0.17602,-0.58034,0.14134,0
23732,54.3,14.182,0,-8.8748,0,23752,55.051,10.631,-3.2307,-0.17602,-0.58034,0.14134,0
23732,54.3,14.182,0,-8.8748,0,23752,55.051,10.631,-3.2307,-0.17602,-0.58034,0.14134,0
23732,54.3,14.182,0,-8.8748,0,23752,55.051,10.631,-3.2307,-0.17602,-0.58034,0.14134,0
23732,54.3,13.679,0,-7.9138,0,23753,54.921,10.624,-3.2535,-0.17276,-0.56522,0.14421,0
23732,54.3,13.679,0,-7.9138,0,23753,54.921,10.624,-3.2535,-0.17276,-0.56522,0.14421,0
23733,54.3,13.524,0,-7.6258,0,23753,54.921,10.624,-3.2535,-0.17276,-0.56522,0.14619,0
23733,54.3,13.524,0,-7.6258,0,23753,54.921,10.624,-3.2535,-0.17276,-0.56522,0.14619,0
23733,54.3,13.524,0,-7.6258,0,23753,54.921,10.624,-3.2535,-0.17276,-0.56522,0.14619,0
23733,54.3,13.524,0,-7.6258,0,23753,54.921,10.624,-3.2535,-0.17276,-0.56522,0.14619,0
23733,54.3,13.524,0,-7.6258,0,23753,54.921,10.624,-3.2535,-0.17276,-0.56522,0.14619,0
23733,54.3,13.524,0,-7.6258,0,23753,54.921,10.624,-3.2535,-0.17276,-0.56522,0.14619,0
23733,54.3,13.524,0,-7.6258,0,23753,54.921,10.624,-3.2535,-0.17276,-0.56522,0.14619,0
23733,54.3,13.374,0,-7.352,0,23753,54.921,10.624,-3.2535,-0.17276,-0.56522,0.1482,0
23733,54.3,13.374,0,-7.352,0,23754,54.593,10.609,-3.3032,-0.13934,-0.44818,0.14055,0
23733,54.3,13.374,0,-7.352,0,23754,54.593,10.609,-3.3032,-0.13934,-0.44818,0.14055,0
23734,54.3,13.09,0,-6.8433,0,23754,54.593,10.609,-3.3032,-0.13934,-0.44818,0.14425,0
23734,54.3,13.09,0,-6.8433,0,23754,54.593,10.609,-3.3032,-0.13934,-0.44818,0.14425,0
23734,54.3,13.09,0,-6.8433,0,23754,54.593,10.609,-3.3032,-0.13934,-0.44818,0.14425,0
23734,54.3,12.701,0,-6.1648,0,23754,54.46,10.604,-3.3186,-0.11728,-0.37521,0.14678,0
23734,54.3,12.701,0,-6.1648,0,23755,54.261,10.599,-3.3353,-0.076514,-0.24333,0.14217,0
23734,54.3,12.701,0,-6.1648,0,23755,54.261,10.599,-3.3353,-0.076514,-0.24333,0.14217,0
23734,54.3,12.701,0,-6.1648,0,23755,54.194,10.598,-3.339,-0.061136,-0.19416,0.14069,0
23734,54.3,12.701,0,-6.1648,0,23755,54.194,10.598,-3.339,-0.061136,-0.19416,0.14069,0
23734,54.3,12.701,0,-6.1648,0,23755,54.127,10.597,-3.3416,-0.044968,-0.14267,0.13925,0
23734,54.3,12.701,0,-6.1648,0,23755,54.127,10.597,-3.3416,-0.044968,-0.14267,0.13925,0
23734,54.3,12.701,0,-6.1648,0,23755,54.127,10.597,-3.3416,-0.044968,-0.14267,0.13925,0
23734,54.3,12.701,0,-6.1648,0,23755,54.127,10.597,-3.3416,-0.044968,-0.14267,0.13925,0
23734,54.3,12.701,0,-6.1648,0,23755,54.127,10.597,-3.3416,-0.044968,-0.14267,0.13925,0
23735,54.3,12.239,0,-5.3901,0,23755,54.127,10.597,-3.3416,-0.044968,-0.14267,0.14626,0
23735,54.3,12.239,0,-5.3901,0,23755,54.127,10.597,-3.3416,-0.044968,-0.14267,0.14626,0
23735,54.3,12.239,0,-5.3901,0,23755,54.127,10.597,-3.3416,-0.044968,-0.14267,0.14626,0
23736,54.3,12.133,0,-5.216,0,23755,54.127,10.597,-3.3416,-0.044968,-0.14267,0.14809,0
23736,54.3,12.133,0,-5.216,0,23755,54.127,10.597,-3.3416,-0.044968,-0.14267,0.14809,0
23736,54.3,12.031,0,-5.0489,0,23755,54.127,10.597,-3.3416,-0.044968,-0.14267,0.14994,0
23736,54.3,12.031,0,-5.0489,0,23755,54.127,10.597,-3.3416,-0.044968,-0.14267,0.14994,0
23736,54.3,12.031,0,-5.0489,0,23755,54.127,10.597,-3.3416,-0.044968,-0.14267,0.14994,0
23736,54.3,11.835,0,-4.734,0,23755,54.127,10.597,-3.3416,-0.044968,-0.14267,0.15374,0
23736,54.3,11.835,0,-4.734,0,23755,54.127,10.597,-3.3416,-0.044968,-0.14267,0.15374,0
23737,54.3,11.651,0,-4.4425,0,23756,53.726,10.599,-3.3331,0.065053,0.20673,0.14739,0
23737,54.3,11.651,0,-4.4425,0,23756,53.726,10.599,-3.3331,0.065053,0.20673,0.14739,0
23737,54.3,11.564,0,-4.3048,0,23756,53.726,10.599,-3.3331,0.065053,0.20673,0.14915,0
23737,54.3,11.479,0,-4.1722,0,23756,53.726,10.599,-3.3331,0.065053,0.20673,0.15094,0
23737,54.3,11.479,0,-4.1722,0,23757,53.461,10.609,-3.3023,0.14623,0.46906,0.14452,0
23737,54.3,11.479,0,-4.1722,0,23757,53.461,10.609,-3.3023,0.14623,0.46906,0.14452,0
23737,54.3,11.479,0,-4.1722,0,23757,53.461,10.609,-3.3023,0.14623,0.46906,0.14452,0
23737,54.3,11.479,0,-4.1722,0,23757,53.461,10.609,-3.3023,0.14623,0.46906,0.14452,0
23737,54.3,11.479,0,-4.1722,0,23757,53.461,10.609,-3.3023,0.14623,0.46906,0.14452,0
23737,54.3,11.479,0,-4.1722,0,23757,53.461,10.609,-3.3023,0.14623,0.46906,0.14452,0
23738,54.3,11.318,0,-3.8492,0,23757,53.461,10.609,-3.3023,0.14623,0.46906,0.14788,0
23738,54.3,11.318,0,-3.8492,0,23757,53.461,10.609,-3.3023,0.14623,0.46906,0.14788,0
23738,54.3,11.244,0,-3.5946,0,23757,53.461,10.609,-3.3023,0.14623,0.46906,0.1496,0
23738,54.3,11.244,0,-3.5946,0,23757,53.461,10.609,-3.3023,0.14623,0.46906,0.1496,0
23738,54.3,11.244,0,-3.5946,0,23757,53.461,10.609,-3.3023,0.14623,0.46906,0.1496,0
23738,54.3,11.244,0,-3.5946,0,23757,53.461,10.609,-3.3023,0.14623,0.46906,0.1496,0
23738,54.3,11.244,0,-3.5946,0,23757,53.461,10.609,-3.3023,0.14623,0.46906,0.1496,0
23738,54.3,11.244,0,-3.5946,0,23757,53.461,10.609,-3.3023,0.14623,0.46906,0.1496,0
23738,54.3,11.244,0,-3.5946,0,23757,53.461,10.609,-3.3023,0.14623,0.46906,0.1496,0
23738,54.3,11.244,0,-3.5946,0,23757,53.461,10.609,-3.3023,0.14623,0.46906,0.1496,0
23738,54.3,11.244,0,-3.5946,0,23757,53.461,10.609,-3.3023,0.14623,0.46906,0.1496,0
23738,54.3,11.244,0,-3.5946,0,23757,53.461,10.609,-3.3023,0.14623,0.46906,0.1496,0
23739,54.3,11.053,0,-2.7678,0,23758,53.264,10.621,-3.2648,0.20845,0.67654,0.14982,0
23739,54.3,11,0,-2.5183,0,23758,53.264,10.621,-3.2648,0.20845,0.67654,0.15154,0
23739,54.3,11,0,-2.5183,0,23758,53.264,10.621,-3.2648,0.20845,0.67654,0.15154,0
23739,54.3,11,0,-2.5183,0,23758,53.264,10.621,-3.2648,0.20845,0.67654,0.15154,0
23739,54.3,11,0,-2.5183,0,23758,53.264,10.621,-3.2648,0.20845,0.67654,0.15154,0
23740,54.3,10.832,0,-1.7315,0,23759,53.006,10.642,-3.195,0.29012,0.96317,0.15169,0
23740,54.3,10.832,0,-1.7315,0,23759,53.006,10.642,-3.195,0.29012,0.96317,0.15169,0
23740,54.3,10.832,0,-1.7315,0,23760,52.754,10.669,-3.1019,0.367,1.2568,0.14524,0
23740,54.3,10.832,0,-1.7315,0,23760,52.693,10.677,-3.0749,0.38505,1.3308,0.14372,0
23740,54.3,10.832,0,-1.7315,0,23760,52.693,10.677,-3.0749,0.38505,1.3308,0.14372,0
23740,54.3,10.741,0,-1.3223,0,23760,52.693,10.677,-3.0749,0.38505,1.3308,0.14844,0
23740,54.3,10.741,0,-1.3223,0,23760,52.571,10.694,-3.0165,0.4194,1.479,0.14529,0
23740,54.3,10.741,0,-1.3223,0,23760,52.511,10.703,-2.9851,0.43559,1.5531,0.14377,0
23740,54.3,10.741,0,-1.3223,0,23760,52.511,10.703,-2.9851,0.43559,1.5531,0.14377,0
23740,54.3,10.741,0,-1.3223,0,23760,52.511,10.703,-2.9851,0.43559,1.5531,0.14377,0
23740,54.3,10.741,0,-1.3223,0,23760,52.511,10.703,-2.9851,0.43559,1.5531,0.14377,0
23740,54.3,10.741,0,-1.3223,0,23760,52.511,10.703,-2.9851,0.43559,1.5531,0.14377,0
23740,54.3,10.741,0,-1.3223,0,23760,52.511,10.703,-2.9851,0.43559,1.5531,0.14377,0
23740,54.3,10.741,0,-1.3223,0,23760,52.511,10.703,-2.9851,0.43559,1.5531,0.14377,0
23740,54.3,10.741,0,-1.3223,0,23760,52.511,10.703,-2.9851,0.43559,1.5531,0.14377,0
23741,54.3,10.671,0,-1.0168,0,23760,52.511,10.703,-2.9851,0.43559,1.5531,0.14845,0
23741,54.3,10.652,0,-0.93208,0,23760,52.511,10.703,-2.9851,0.43559,1.5531,0.15007,0
23741,54.3,10.652,0,-0.93208,0,23760,52.511,10.703,-2.9851,0.43559,1.5531,0.15007,0
23741,54.3,10.652,0,-0.93208,0,23760,52.511,10.703,-2.9851,0.43559,1.5531,0.15007,0
23741,54.3,10.652,0,-0.93208,0,23760,52.511,10.703,-2.9851,0.43559,1.5531,0.15007,0
23741,54.3,10.652,0,-0.93208,0,23760,52.511,10.703,-2.9851,0.43559,1.5531,0.15007,0
23741,54.3,10.652,0,-0.93208,0,23760,52.511,10.703,-2.9851,0.43559,1.5531,0.15007,0
23741,54.3,10.652,0,-0.93208,0,23760,52.511,10.703,-2.9851,0.43559,1.5531,0.15007,0
23741,54.3,10.652,0,-0.93208,0,23760,52.511,10.703,-2.9851,0.43559,1.5531,0.15007,0
23741,54.3,10.652,0,-0.93208,0,23760,52.511,10.703,-2.9851,0.43559,1.5531,0.15007,0
23742,54.3,10.868,0,3.2102,0,23761,52.336,10.731,-2.8819,0.47967,1.7743,0.15176,0
23742,54.3,10.932,0,3.2023,0,23761,52.336,10.731,-2.8819,0.47967,1.7743,0.15348,0
23742,54.3,10.932,0,3.2023,0,23761,52.336,10.731,-2.8819,0.47967,1.7743,0.15348,0
23742,54.3,10.996,0,3.1942,0,23761,52.336,10.731,-2.8819,0.47967,1.7743,0.15526,0
23742,54.3,10.996,0,3.1942,0,23763,51.953,10.805,-2.5906,0.55087,2.2764,0.14389,0
23743,54.3,11.187,0,3.1692,0,23763,51.953,10.805,-2.5906,0.55087,2.2764,0.1487,0
23743,54.3,11.25,0,3.1607,0,23763,51.953,10.805,-2.5906,0.55087,2.2764,0.1504,0
23743,54.3,11.25,0,3.1607,0,23763,51.953,10.805,-2.5906,0.55087,2.2764,0.1504,0
23744,54.3,11.313,0,3.152,0,23763,51.953,10.805,-2.5906,0.55087,2.2764,0.15214,0
23744,54.3,11.313,0,3.152,0,23763,51.953,10.805,-2.5906,0.55087,2.2764,0.15214,0
23744,54.3,11.313,0,3.152,0,23763,51.953,10.805,-2.5906,0.55087,2.2764,0.15214,0
23744,54.3,11.376,0,3.1432,0,23763,51.953,10.805,-2.5906,0.55087,2.2764,0.15394,0
23744,54.3,11.376,0,3.1432,0,23763,51.953,10.805,-2.5906,0.55087,2.2764,0.15394,0
23744,54.3,11.376,0,3.1432,0,23763,51.953,10.805,-2.5906,0.55087,2.2764,0.15394,0
23744,54.3,11.376,0,3.1432,0,23763,51.953,10.805,-2.5906,0.55087,2.2764,0.15394,0
23744,54.3,11.376,0,3.1432,0,23763,51.953,10.805,-2.5906,0.55087,2.2764,0.15394,0
23744,54.3,11.376,0,3.1432,0,23763,51.953,10.805,-2.5906,0.55087,2.2764,0.15394,0
23744,54.3,11.376,0,3.1432,0,23763,51.953,10.805,-2.5906,0.55087,2.2764,0.15394,0
23744,54.3,11.376,0,3.1432,0,23763,51.953,10.805,-2.5906,0.55087,2.2764,0.15394,0
23744,54.3,11.439,0,3.1342,0,23763,51.953,10.805,-2.5906,0.55087,2.2764,0.15578,0
23744,54.3,11.439,0,3.1342,0,23763,51.953,10.805,-2.5906,0.55087,2.2764,0.15578,0
23744,54.3,11.501,0,3.1252,0,23763,51.953,10.805,-2.5906,0.55087,2.2764,0.15769,0
23744,54.3,11.501,0,3.1252,0,23764,51.617,10.885,-2.2321,0.56882,2.7387,0.14599,0
23745,54.3,11.75,0,3.0878,0,23764,51.573,10.896,-2.1758,0.56663,2.8001,0.15128,0
23746,54.3,11.873,0,3.0683,0,23765,51.448,10.93,-1.9999,0.55284,2.9756,0.14993,0
23746,54.3,11.873,0,3.0683,0,23765,51.448,10.93,-1.9999,0.55284,2.9756,0.14993,0
23746,54.3,11.873,0,3.0683,0,23765,51.448,10.93,-1.9999,0.55284,2.9756,0.14993,0
23746,54.3,11.873,0,3.0683,0,23765,51.448,10.93,-1.9999,0.55284,2.9756,0.14993,0
23746,54.3,11.873,0,3.0683,0,23765,51.448,10.93,-1.9999,0.55284,2.9756,0.14993,0
23746,54.3,11.873,0,3.0683,0,23765,51.448,10.93,-1.9999,0.55284,2.9756,0.14993,0
23746,54.3,11.873,0,3.0683,0,23765,51.448,10.93,-1.9999,0.55284,2.9756,0.14993,0
23746,54.3,11.873,0,3.0683,0,23765,51.448,10.93,-1.9999,0.55284,2.9756,0.14993,0
23746,54.3,11.873,0,3.0683,0,23765,51.448,10.93,-1.9999,0.55284,2.9756,0.14993,0
23746,54.3,11.873,0,3.0683,0,23765,51.371,10.951,-1.877,0.53766,3.0847,0.14674,0
23746,54.3,11.873,0,3.0683,0,23765,51.371,10.951,-1.877,0.53766,3.0847,0.14674,0
23746,54.3,11.873,0,3.0683,0,23765,51.371,10.951,-1.877,0.53766,3.0847,0.14674,0
23746,54.3,11.873,0,3.0683,0,23765,51.371,10.951,-1.877,0.53766,3.0847,0.14674,0
23746,54.3,11.873,0,3.0683,0,23765,51.371,10.951,-1.877,0.53766,3.0847,0.14674,0
23746,54.3,11.873,0,3.0683,0,23765,51.371,10.951,-1.877,0.53766,3.0847,0.14674,0
23746,54.3,11.873,0,3.0683,0,23765,51.371,10.951,-1.877,0.53766,3.0847,0.14674,0
23746,54.3,11.873,0,3.0683,0,23765,51.371,10.951,-1.877,0.53766,3.0847,0.14674,0
23746,54.3,11.995,0,3.0484,0,23765,51.371,10.951,-1.877,0.53766,3.0847,0.15025,0
23746,54.3,11.995,0,3.0484,0,23765,51.371,10.951,-1.877,0.53766,3.0847,0.15025,0
23746,54.3,11.995,0,3.0484,0,23765,51.371,10.951,-1.877,0.53766,3.0847,0.15025,0
23746,54.3,12.056,0,3.0383,0,23765,51.371,10.951,-1.877,0.53766,3.0847,0.15208,0
23746,54.3,12.056,0,3.0383,0,23765,51.371,10.951,-1.877,0.53766,3.0847,0.15208,0
23746,54.3,12.056,0,3.0383,0,23766,51.201,11.001,-1.5574,0.46437,3.2126,0.14414,0
23746,54.3,12.056,0,3.0383,0,23767,51.171,11.01,-1.4935,0.44318,3.1973,0.14265,0
23748,54.3,12.477,0,2.964,0,23767,51.171,11.01,-1.4935,0.44318,3.1973,0.15527,0
23748,54.3,12.536,0,2.9529,0,23767,51.171,11.01,-1.4935,0.44318,3.1973,0.15729,0
23748,54.3,12.536,0,2.9529,0,23768,51.039,11.048,-1.1865,0.32781,2.9768,0.14877,0
23748,54.3,12.536,0,2.9529,0,23768,51.039,11.048,-1.1865,0.32781,2.9768,0.14877,0
23748,54.3,12.536,0,2.9529,0,23768,51.016,11.054,-1.1286,0.30499,2.9112,0.14717,0
23748,54.3,12.536,0,2.9529,0,23768,51.016,11.054,-1.1286,0.30499,2.9112,0.14717,0
23748,54.3,12.536,0,2.9529,0,23768,51.016,11.054,-1.1286,0.30499,2.9112,0.14717,0
23748,54.3,12.536,0,2.9529,0,23768,51.016,11.054,-1.1286,0.30499,2.9112,0.14717,0
23748,54.3,12.536,0,2.9529,0,23768,51.016,11.054,-1.1286,0.30499,2.9112,0.14717,0
23748,54.3,12.536,0,2.9529,0,23768,51.016,11.054,-1.1286,0.30499,2.9112,0.14717,0
23749,54.3,12.712,0,2.919,0,23768,51.016,11.054,-1.1286,0.30499,2.9112,0.15279,0
23749,54.3,12.712,0,2.919,0,23768,51.016,11.054,-1.1286,0.30499,2.9112,0.15279,0
23749,54.3,12.712,0,2.919,0,23768,51.016,11.054,-1.1286,0.30499,2.9112,0.15279,0
23749,54.3,12.712,0,2.919,0,23768,51.016,11.054,-1.1286,0.30499,2.9112,0.15279,0
23749,54.3,12.712,0,2.919,0,23768,51.016,11.054,-1.1286,0.30499,2.9112,0.15279,0
23749,54.3,12.712,0,2.919,0,23768,51.016,11.054,-1.1286,0.30499,2.9112,0.15279,0
23749,54.3,12.712,0,2.919,0,23768,51.016,11.054,-1.1286,0.30499,2.9112,0.15279,0
23749,54.3,12.712,0,2.919,0,23768,51.016,11.054,-1.1286,0.30499,2.9112,0.15279,0
23749,54.3,12.712,0,2.919,0,23768,51.016,11.054,-1.1286,0.30499,2.9112,0.15279,0
23749,54.3,12.712,0,2.919,0,23768,51.016,11.054,-1.1286,0.30499,2.9112,0.15279,0
23749,54.3,12.712,0,2.919,0,23768,50.974,11.064,-1.0172,0.26124,2.7657,0.14945,0
23749,54.3,12.712,0,2.919,0,23768,50.974,11.064,-1.0172,0.26124,2.7657,0.14945,0
23749,54.3,12.712,0,2.919,0,23768,50.974,11.064,-1.0172,0.26124,2.7657,0.14945,0
23749,54.3,12.712,0,2.919,0,23768,50.974,11.064,-1.0172,0.26124,2.7657,0.14945,0
23749,54.3,12.712,0,2.919,0,23769,50.954,11.069,-0.96384,0.24058,2.6874,0.14784,0
23750,54.3,12.944,0,2.8722,0,23769,50.954,11.069,-0.96384,0.24058,2.6874,0.15561,0
23750,54.3,12.944,0,2.8722,0,23769,50.954,11.069,-0.96384,0.24058,2.6874,0.15561,0
23751,54.3,13.171,0,2.8237,0,23769,50.902,11.081,-0.81377,0.18441,2.4377,0.15866,0
23752,54.3,13.284,0,2.7987,0,23770,50.845,11.093,-0.63782,0.12417,2.0907,0.15572,0
23752,54.3,13.395,0,2.7734,0,23771,50.821,11.097,-0.56023,0.10019,1.9186,0.15641,0
23752,54.3,13.395,0,2.7734,0,23771,50.821,11.097,-0.56023,0.10019,1.9186,0.15641,0
23752,54.3,13.395,0,2.7734,0,23771,50.8,11.1,-0.48938,0.079955,1.7508,0.15291,0
23752,54.3,13.395,0,2.7734,0,23771,50.8,11.1,-0.48938,0.079955,1.7508,0.15291,0
23752,54.3,13.395,0,2.7734,0,23771,50.8,11.1,-0.48938,0.079955,1.7508,0.15291,0
23752,54.3,13.395,0,2.7734,0,23771,50.8,11.1,-0.48938,0.079955,1.7508,0.15291,0
23752,54.3,13.395,0,2.7734,0,23771,50.8,11.1,-0.48938,0.079955,1.7508,0.15291,0
23752,54.3,13.395,0,2.7734,0,23771,50.8,11.1,-0.48938,0.079955,1.7508,0.15291,0
23752,54.3,13.395,0,2.7734,0,23771,50.8,11.1,-0.48938,0.079955,1.7508,0.15291,0
23752,54.3,13.395,0,2.7734,0,23771,50.8,11.1,-0.48938,0.079955,1.7508,0.15291,0
23753,54.3,13.506,0,2.7477,0,23771,50.8,11.1,-0.48938,0.079955,1.7508,0.15714,0
23753,54.3,13.506,0,2.7477,0,23771,50.8,11.1,-0.48938,0.079955,1.7508,0.15714,0
23753,54.3,13.506,0,2.7477,0,23771,50.8,11.1,-0.48938,0.079955,1.7508,0.15714,0
23753,54.3,13.506,0,2.7477,0,23771,50.8,11.1,-0.48938,0.079955,1.7508,0.15714,0
23753,54.3,13.506,0,2.7477,0,23771,50.8,11.1,-0.48938,0.079955,1.7508,0.15714,0
23753,54.3,13.506,0,2.7477,0,23771,50.8,11.1,-0.48938,0.079955,1.7508,0.15714,0
23753,54.3,13.506,0,2.7477,0,23771,50.8,11.1,-0.48938,0.079955,1.7508,0.15714,0
23753,54.3,13.506,0,2.7477,0,23771,50.8,11.1,-0.48938,0.079955,1.7508,0.15714,0
23753,54.3,13.506,0,2.7477,0,23771,50.8,11.1,-0.48938,0.079955,1.7508,0.15714,0
23753,54.3,13.506,0,2.7477,0,23771,50.8,11.1,-0.48938,0.079955,1.7508,0.15714,0
23753,54.3,13.506,0,2.7477,0,23772,50.782,11.103,-0.42503,0.063108,1.589,0.15361,0
23753,54.3,13.506,0,2.7477,0,23772,50.782,11.103,-0.42503,0.063108,1.589,0.15361,0
23753,54.3,13.506,0,2.7477,0,23772,50.782,11.103,-0.42503,0.063108,1.589,0.15361,0
23754,54.3,13.777,0,2.6817,0,23772,50.774,11.104,-0.39521,0.055832,1.5109,0.16295,0
23754,54.3,13.777,0,2.6817,0,23772,50.774,11.104,-0.39521,0.055832,1.5109,0.16295,0
23754,54.3,13.831,0,2.6682,0,23772,50.774,11.104,-0.39521,0.055832,1.5109,0.16538,0
23755,54.3,14.042,0,2.6134,0,23773,50.737,11.108,-0.24653,0.025177,1.0866,0.16339,0
23755,54.3,14.042,0,2.6134,0,23773,50.737,11.108,-0.24653,0.025177,1.0866,0.16339,0
23755,54.3,14.042,0,2.6134,0,23774,50.724,11.109,-0.18958,0.016194,0.90568,0.15775,0
23755,54.3,14.042,0,2.6134,0,23774,50.724,11.109,-0.18958,0.016194,0.90568,0.15775,0
23755,54.3,14.042,0,2.6134,0,23774,50.724,11.109,-0.18958,0.016194,0.90568,0.15775,0
23755,54.3,14.042,0,2.6134,0,23774,50.724,11.109,-0.18958,0.016194,0.90568,0.15775,0
23755,54.3,14.042,0,2.6134,0,23774,50.724,11.109,-0.18958,0.016194,0.90568,0.15775,0
23756,54.3,14.146,0,2.5856,0,23774,50.724,11.109,-0.18958,0.016194,0.90568,0.16247,0
23756,54.3,14.198,0,2.5715,0,23774,50.724,11.109,-0.18958,0.016194,0.90568,0.16495,0
23756,54.3,14.198,0,2.5715,0,23774,50.724,11.109,-0.18958,0.016194,0.90568,0.16495,0
23756,54.3,14.198,0,2.5715,0,23774,50.724,11.109,-0.18958,0.016194,0.90568,0.16495,0
23756,54.3,14.198,0,2.5715,0,23774,50.715,11.11,-0.14253,0.010072,0.74604,0.15922,0
23756,54.3,14.198,0,2.5715,0,23774,50.715,11.11,-0.14253,0.010072,0.74604,0.15922,0
23756,54.3,14.198,0,2.5715,0,23774,50.715,11.11,-0.14253,0.010072,0.74604,0.15922,0
23756,54.3,14.198,0,2.5715,0,23774,50.715,11.11,-0.14253,0.010072,0.74604,0.15922,0
23756,54.3,14.198,0,2.5715,0,23775,50.71,11.111,-0.11604,0.0071815,0.6511,0.15561,0
23757,54.3,14.401,0,2.5145,0,23775,50.71,11.111,-0.11604,0.0071815,0.6511,0.1652,0
23757,54.3,14.401,0,2.5145,0,23775,50.71,11.111,-0.11604,0.0071815,0.6511,0.1652,0
23757,54.3,14.401,0,2.5145,0,23775,50.71,11.111,-0.11604,0.0071815,0.6511,0.1652,0
23757,54.3,14.401,0,2.5145,0,23775,50.71,11.111,-0.11604,0.0071815,0.6511,0.1652,0
23757,54.3,14.401,0,2.5145,0,23775,50.71,11.111,-0.11604,0.0071815,0.6511,0.1652,0
23757,54.3,14.401,0,2.5145,0,23775,50.71,11.111,-0.11604,0.0071815,0.6511,0.1652,0
23757,54.3,14.401,0,2.5145,0,23775,50.706,11.111,-0.093033,0.0050178,0.56495,0.16133,0
23757,54.3,14.401,0,2.5145,0,23775,50.706,11.111,-0.093033,0.0050178,0.56495,0.16133,0
23758,54.3,14.551,0,2.471,0,23776,50.704,11.111,-0.082734,0.0041579,0.52506,0.167,0
23758,54.3,14.551,0,2.471,0,23776,50.704,11.111,-0.082734,0.0041579,0.52506,0.167,0
23758,54.3,14.551,0,2.471,0,23776,50.701,11.111,-0.064337,0.0027968,0.45133,0.16306,0
23759,54.3,14.649,0,2.4417,0,23776,50.701,11.111,-0.064337,0.0027968,0.45133,0.16827,0
23760,54.3,14.794,0,2.3973,0,23777,50.698,11.111,-0.041672,0.0014449,0.35501,0.17028,0
23760,54.3,14.794,0,2.3973,0,23777,50.698,11.111,-0.041672,0.0014449,0.35501,0.17028,0
23760,54.3,14.794,0,2.3973,0,23777,50.698,11.111,-0.041672,0.0014449,0.35501,0.17028,0
23760,54.3,14.794,0,2.3973,0,23777,50.698,11.111,-0.041672,0.0014449,0.35501,0.17028,0
23760,54.3,14.794,0,2.3973,0,23777,50.697,11.111,-0.029433,0.0008743,0.29957,0.16619,0
23760,54.3,14.794,0,2.3973,0,23777,50.697,11.111,-0.029433,0.0008743,0.29957,0.16619,0
23760,54.3,14.794,0,2.3973,0,23777,50.697,11.111,-0.029433,0.0008743,0.29957,0.16619,0
23760,54.3,14.794,0,2.3973,0,23777,50.697,11.111,-0.029433,0.0008743,0.29957,0.16619,0
23760,54.3,14.794,0,2.3973,0,23777,50.697,11.111,-0.029433,0.0008743,0.29957,0.16619,0
23760,54.3,14.794,0,2.3973,0,23777,50.697,11.111,-0.029433,0.0008743,0.29957,0.16619,0
23760,54.3,14.889,0,2.3675,0,23777,50.697,11.111,-0.029433,0.0008743,0.29957,0.17169,0
23760,54.3,14.889,0,2.3675,0,23777,50.697,11.111,-0.029433,0.0008743,0.29957,0.17169,0
23760,54.3,14.889,0,2.3675,0,23777,50.697,11.111,-0.029433,0.0008743,0.29957,0.17169,0
23760,54.3,14.889,0,2.3675,0,23777,50.697,11.111,-0.029433,0.0008743,0.29957,0.17169,0
23760,54.3,14.889,0,2.3675,0,23777,50.697,11.111,-0.029433,0.0008743,0.29957,0.17169,0
23760,54.3,14.889,0,2.3675,0,23777,50.697,11.111,-0.029433,0.0008743,0.29957,0.17169,0
23760,54.3,14.889,0,2.3675,0,23777,50.697,11.111,-0.029433,0.0008743,0.29957,0.17169,0
23760,54.3,14.889,0,2.3675,0,23777,50.697,11.111,-0.029433,0.0008743,0.29957,0.17169,0
23761,54.3,14.936,0,2.3525,0,23777,50.697,11.111,-0.029433,0.0008743,0.29957,0.17459,0
23761,54.3,14.936,0,2.3525,0,23778,50.695,11.111,-0.014734,0.00034957,0.22826,0.16823,0
23762,54.3,15.076,0,2.3072,0,23778,50.695,11.111,-0.014734,0.00034957,0.22826,0.17693,0
23762,54.3,15.076,0,2.3072,0,23778,50.695,11.111,-0.014734,0.00034957,0.22826,0.17693,0
23762,54.3,15.168,0,2.2767,0,23778,50.695,11.111,-0.0037332,8.2903e-05,0.16965,0.1763,0
23762,54.3,15.168,0,2.2767,0,23779,50.695,11.111,0.0063538,-5.1414e-05,0.1084,0.16777,0
23762,54.3,15.168,0,2.2767,0,23779,50.695,11.111,0.0063538,-5.1414e-05,0.1084,0.16777,0
23762,54.3,15.168,0,2.2767,0,23779,50.695,11.111,0.0063538,-5.1414e-05,0.1084,0.16777,0
23762,54.3,15.168,0,2.2767,0,23779,50.695,11.111,0.0063538,-5.1414e-05,0.1084,0.16777,0
23762,54.3,15.168,0,2.2767,0,23779,50.695,11.111,0.0063538,-5.1414e-05,0.1084,0.16777,0
23762,54.3,15.168,0,2.2767,0,23780,50.695,11.111,0.0082037,-6.2431e-05,0.095726,0.16576,0
23762,54.3,15.168,0,2.2767,0,23780,50.695,11.111,0.0098237,-6.7912e-05,0.083992,0.1638,0
23762,54.3,15.168,0,2.2767,0,23780,50.695,11.111,0.0098237,-6.7912e-05,0.083992,0.1638,0
23762,54.3,15.168,0,2.2767,0,23780,50.695,11.111,0.0098237,-6.7912e-05,0.083992,0.1638,0
23762,54.3,15.168,0,2.2767,0,23780,50.695,11.111,0.0098237,-6.7912e-05,0.083992,0.1638,0
23762,54.3,15.168,0,2.2767,0,23780,50.695,11.111,0.0098237,-6.7912e-05,0.083992,0.1638,0
23762,54.3,15.168,0,2.2767,0,23780,50.695,11.111,0.0098237,-6.7912e-05,0.083992,0.1638,0
23762,54.3,15.168,0,2.2767,0,23780,50.695,11.111,0.0098237,-6.7912e-05,0.083992,0.1638,0
23762,54.3,15.168,0,2.2767,0,23780,50.695,11.111,0.0098237,-6.7912e-05,0.083992,0.1638,0
23762,54.3,15.168,0,2.2767,0,23780,50.695,11.111,0.0098237,-6.7912e-05,0.083992,0.1638,0
23764,54.3,15.436,0,2.1847,0,23780,50.695,11.111,0.0098237,-6.7912e-05,0.083992,0.18152,0
23764,54.3,15.436,0,2.1847,0,23780,50.695,11.111,0.0098237,-6.7912e-05,0.083992,0.18152,0
23764,54.3,15.436,0,2.1847,0,23780,50.696,11.111,0.013476,-6.2819e-05,0.053956,0.17468,0
23764,54.3,15.436,0,2.1847,0,23780,50.696,11.111,0.013476,-6.2819e-05,0.053956,0.17468,0
23764,54.3,15.436,0,2.1847,0,23780,50.696,11.111,0.013476,-6.2819e-05,0.053956,0.17468,0
23764,54.3,15.436,0,2.1847,0,23780,50.696,11.111,0.013476,-6.2819e-05,0.053956,0.17468,0
23764,54.3,15.436,0,2.1847,0,23780,50.696,11.111,0.013476,-6.2819e-05,0.053956,0.17468,0
23764,54.3,15.436,0,2.1847,0,23780,50.696,11.111,0.013476,-6.2819e-05,0.053956,0.17468,0
23764,54.3,15.436,0,2.1847,0,23780,50.696,11.111,0.013476,-6.2819e-05,0.053956,0.17468,0
23764,54.3,15.436,0,2.1847,0,23780,50.696,11.111,0.013476,-6.2819e-05,0.053956,0.17468,0
23764,54.3,15.436,0,2.1847,0,23780,50.696,11.111,0.013476,-6.2819e-05,0.053956,0.17468,0
23765,54.3,15.565,0,2.1384,0,23780,50.696,11.111,0.013476,-6.2819e-05,0.053956,0.18437,0
23765,54.3,15.565,0,2.1384,0,23781,50.697,11.111,0.015636,-4.2328e-05,0.030681,0.17732,0
23766,54.3,15.734,0,2.0763,0,23781,50.697,11.111,0.015636,-4.2328e-05,0.030681,0.19101,0
23767,54.3,15.816,0,2.0452,0,23782,50.698,11.111,0.016657,-1.9361e-05,0.013016,0.1906,0
23767,54.3,15.816,0,2.0452,0,23782,50.698,11.111,0.016657,-1.9361e-05,0.013016,0.1906,0
23768,54.3,15.938,0,1.9986,0,23782,50.699,11.111,0.01683,7.0126e-08,-4.6295e-05,0.194,0
23768,54.3,15.938,0,1.9986,0,23783,50.7,11.111,0.016593,9.9493e-06,-0.0066358,0.18877,0
23768,54.3,15.938,0,1.9986,0,23783,50.7,11.111,0.016593,9.9493e-06,-0.0066358,0.18877,0
23768,54.3,15.938,0,1.9986,0,23783,50.7,11.111,0.016391,1.3921e-05,-0.0093827,0.18625,0
23768,54.3,15.938,0,1.9986,0,23783,50.7,11.111,0.016391,1.3921e-05,-0.0093827,0.18625,0
23768,54.3,15.938,0,1.9986,0,23783,50.7,11.111,0.016143,1.7269e-05,-0.0118,0.1838,0
23768,54.3,15.938,0,1.9986,0,23783,50.7,11.111,0.016143,1.7269e-05,-0.0118,0.1838,0
23768,54.3,15.938,0,1.9986,0,23783,50.7,11.111,0.016143,1.7269e-05,-0.0118,0.1838,0
23768,54.3,15.938,0,1.9986,0,23783,50.7,11.111,0.016143,1.7269e-05,-0.0118,0.1838,0
23768,54.3,15.938,0,1.9986,0,23783,50.7,11.111,0.016143,1.7269e-05,-0.0118,0.1838,0
23768,54.3,15.938,0,1.9986,0,23783,50.7,11.111,0.016143,1.7269e-05,-0.0118,0.1838,0
23768,54.3,15.938,0,1.9986,0,23783,50.7,11.111,0.016143,1.7269e-05,-0.0118,0.1838,0
23768,54.3,15.938,0,1.9986,0,23783,50.7,11.111,0.016143,1.7269e-05,-0.0118,0.1838,0
23768,54.3,15.938,0,1.9986,0,23783,50.7,11.111,0.016143,1.7269e-05,-0.0118,0.1838,0
23769,54.3,16.095,0,1.9365,0,23783,50.7,11.111,0.016143,1.7269e-05,-0.0118,0.19887,0
23769,54.3,16.095,0,1.9365,0,23783,50.7,11.111,0.016143,1.7269e-05,-0.0118,0.19887,0
23769,54.3,16.095,0,1.9365,0,23783,50.7,11.111,0.016143,1.7269e-05,-0.0118,0.19887,0
23769,54.3,16.095,0,1.9365,0,23783,50.7,11.111,0.016143,1.7269e-05,-0.0118,0.19887,0
23769,54.3,16.095,0,1.9365,0,23783,50.7,11.111,0.016143,1.7269e-05,-0.0118,0.19887,0
23769,54.3,16.095,0,1.9365,0,23783,50.7,11.111,0.016143,1.7269e-05,-0.0118,0.19887,0
23769,54.3,16.095,0,1.9365,0,23783,50.7,11.111,0.016143,1.7269e-05,-0.0118,0.19887,0
23769,54.3,16.134,0,1.921,0,23783,50.7,11.111,0.016143,1.7269e-05,-0.0118,0.20303,0
23769,54.3,16.134,0,1.921,0,23783,50.7,11.111,0.016143,1.7269e-05,-0.0118,0.20303,0
23769,54.3,16.134,0,1.921,0,23783,50.7,11.111,0.016143,1.7269e-05,-0.0118,0.20303,0
23769,54.3,16.134,0,1.921,0,23784,50.701,11.111,0.015175,2.3917e-05,-0.017315,0.1946,0
23771,54.3,16.322,0,1.8436,0,23784,50.701,11.111,0.015175,2.3917e-05,-0.017315,0.21642,0
23771,54.3,16.359,0,1.8282,0,23784,50.701,11.111,0.015175,2.3917e-05,-0.017315,0.22138,0
23772,54.3,16.467,0,1.7822,0,23786,50.703,11.111,0.012196,2.5344e-05,-0.022669,0.21286,0
23772,54.3,16.467,0,1.7822,0,23786,50.703,11.111,0.012196,2.5344e-05,-0.022669,0.21286,0
23772,54.3,16.467,0,1.7822,0,23786,50.704,11.111,0.01128,2.3686e-05,-0.022867,0.20664,0
23772,54.3,16.467,0,1.7822,0,23786,50.704,11.111,0.01128,2.3686e-05,-0.022867,0.20664,0
23772,54.3,16.467,0,1.7822,0,23786,50.704,11.111,0.010824,2.269e-05,-0.022811,0.20365,0
23772,54.3,16.467,0,1.7822,0,23786,50.704,11.111,0.010824,2.269e-05,-0.022811,0.20365,0
23772,54.3,16.467,0,1.7822,0,23786,50.704,11.111,0.010824,2.269e-05,-0.022811,0.20365,0
23772,54.3,16.467,0,1.7822,0,23786,50.704,11.111,0.010824,2.269e-05,-0.022811,0.20365,0
23772,54.3,16.467,0,1.7822,0,23786,50.704,11.111,0.010824,2.269e-05,-0.022811,0.20365,0
23772,54.3,16.467,0,1.7822,0,23786,50.704,11.111,0.010824,2.269e-05,-0.022811,0.20365,0
23772,54.3,16.467,0,1.7822,0,23786,50.704,11.111,0.010824,2.269e-05,-0.022811,0.20365,0
23772,54.3,16.467,0,1.7822,0,23786,50.704,11.111,0.010824,2.269e-05,-0.022811,0.20365,0
23772,54.3,16.467,0,1.7822,0,23786,50.704,11.111,0.010824,2.269e-05,-0.022811,0.20365,0
23772,54.3,16.467,0,1.7822,0,23786,50.704,11.111,0.010824,2.269e-05,-0.022811,0.20365,0
23773,54.3,16.572,0,1.7364,0,23786,50.704,11.111,0.010824,2.269e-05,-0.022811,0.21764,0
23773,54.3,16.572,0,1.7364,0,23786,50.704,11.111,0.010824,2.269e-05,-0.022811,0.21764,0
23773,54.3,16.572,0,1.7364,0,23786,50.704,11.111,0.010824,2.269e-05,-0.022811,0.21764,0
23773,54.3,16.572,0,1.7364,0,23786,50.704,11.111,0.010824,2.269e-05,-0.022811,0.21764,0
23773,54.3,16.572,0,1.7364,0,23786,50.704,11.111,0.010824,2.269e-05,-0.022811,0.21764,0
23773,54.3,16.572,0,1.7364,0,23786,50.704,11.111,0.010824,2.269e-05,-0.022811,0.21764,0
23773,54.3,16.572,0,1.7364,0,23786,50.704,11.111,0.010824,2.269e-05,-0.022811,0.21764,0
23774,54.3,16.607,0,1.7212,0,23786,50.704,11.111,0.010824,2.269e-05,-0.022811,0.22273,0
23774,54.3,16.607,0,1.7212,0,23786,50.704,11.111,0.010824,2.269e-05,-0.022811,0.22273,0
23774,54.3,16.607,0,1.7212,0,23787,50.705,11.111,0.0094823,1.9344e-05,-0.022149,0.21272,0
23775,54.3,16.775,0,1.6458,0,23787,50.705,11.111,0.0094823,1.9344e-05,-0.022149,0.23955,0
23775,54.3,16.775,0,1.6458,0,23787,50.705,11.111,0.0094823,1.9344e-05,-0.022149,0.23955,0
23776,54.3,16.808,0,1.6309,0,23787,50.705,11.111,0.0094823,1.9344e-05,-0.022149,0.24571,0
23776,54.3,16.808,0,1.6309,0,23789,50.706,10.791,0.006117,-4,-0.019776,0.21292,0
23776,54.3,16.808,0,1.6309,0,23789,50.706,10.791,0.006117,-4,-0.019776,0.21292,0
23777,54.3,16.936,0,1.5717,0,23789,50.706,10.791,0.006117,-4,-0.019776,0.23453,0
23777,54.3,16.936,0,1.5717,0,23789,50.706,10.791,0.006117,-4,-0.019776,0.23453,0
23777,54.3,16.936,0,1.5717,0,23789,50.706,10.791,0.006117,-4,-0.019776,0.23453,0
23777,54.3,16.936,0,1.5717,0,23789,50.706,10.631,0.0053819,-4,-0.018043,0.22551,0
23777,54.3,16.936,0,1.5717,0,23789,50.706,10.631,0.0053819,-4,-0.018043,0.22551,0
23777,54.3,16.936,0,1.5717,0,23789,50.706,10.631,0.0053819,-4,-0.018043,0.22551,0
23777,54.3,16.936,0,1.5717,0,23789,50.706,10.631,0.0053819,-4,-0.018043,0.22551,0
23777,54.3,16.936,0,1.5717,0,23789,50.706,10.551,0.0050398,-4,-0.017199,0.22124,0
23778,54.3,17.029,0,1.5278,0,23789,50.706,10.551,0.0050398,-4,-0.017199,0.23859,0
23778,54.3,17.029,0,1.5278,0,23789,50.706,10.551,0.0050398,-4,-0.017199,0.23859,0
23778,54.3,17.029,0,1.5278,0,23789,50.706,10.551,0.0050398,-4,-0.017199,0.23859,0
23778,54.3,17.029,0,1.5278,0,23789,50.706,10.551,0.0050398,-4,-0.017199,0.23859,0
23778,54.3,17.029,0,1.5278,0,23789,50.706,10.551,0.0050398,-4,-0.017199,0.23859,0
23778,54.3,17.029,0,1.5278,0,23789,50.706,10.551,0.0050398,-4,-0.017199,0.23859,0
23778,54.3,17.029,0,1.5278,0,23790,50.706,10.391,0.0044049,-4,-0.015565,0.22941,0
23779,54.3,17.12,0,1.4845,0,23790,50.706,10.311,0.0041112,-4,-0.014779,0.24329,0
23779,54.3,17.12,0,1.4845,0,23790,50.707,10.151,0.0035692,-4,-0.013272,0.2339,0
23779,54.3,17.12,0,1.4845,0,23790,50.707,10.151,0.0035692,-4,-0.013272,0.2339,0
23779,54.3,17.12,0,1.4845,0,23790,50.707,10.151,0.0035692,-4,-0.013272,0.2339,0
23779,54.3,17.12,0,1.4845,0,23790,50.707,10.151,0.0035692,-4,-0.013272,0.2339,0
23779,54.3,17.12,0,1.4845,0,23791,50.707,9.9111,0.0028625,-4,-0.011191,0.221,0
23779,54.3,17.12,0,1.4845,0,23791,50.707,9.9111,0.0028625,-4,-0.011191,0.221,0
23779,54.3,17.12,0,1.4845,0,23791,50.707,9.9111,0.0028625,-4,-0.011191,0.221,0
23779,54.3,17.12,0,1.4845,0,23791,50.707,9.9111,0.0028625,-4,-0.011191,0.221,0
23779,54.3,17.12,0,1.4845,0,23791,50.707,9.9111,0.0028625,-4,-0.011191,0.221,0
23779,54.3,17.12,0,1.4845,0,23791,50.707,9.9111,0.0028625,-4,-0.011191,0.221,0
23779,54.3,17.12,0,1.4845,0,23791,50.707,9.9111,0.0028625,-4,-0.011191,0.221,0
23779,54.3,17.12,0,1.4845,0,23791,50.707,9.9111,0.0028625,-4,-0.011191,0.221,0
23779,54.3,17.12,0,1.4845,0,23791,50.707,9.9111,0.0028625,-4,-0.011191,0.221,0
23781,54.3,17.264,0,1.4135,0,23791,50.707,9.9111,0.0028625,-4,-0.011191,0.25274,0
23781,54.3,17.264,0,1.4135,0,23791,50.707,9.9111,0.0028625,-4,-0.011191,0.25274,0
23781,54.3,17.264,0,1.4135,0,23791,50.707,9.9111,0.0028625,-4,-0.011191,0.25274,0
23781,54.3,17.264,0,1.4135,0,23791,50.707,9.9111,0.0028625,-4,-0.011191,0.25274,0
23781,54.3,17.264,0,1.4135,0,23791,50.707,9.9111,0.0028625,-4,-0.011191,0.25274,0
23781,54.3,17.32,0,1.3856,0,23791,50.707,9.7511,0.0024564,-4,-0.0099265,0.25716,0
23781,54.3,17.32,0,1.3856,0,23791,50.707,9.7511,0.0024564,-4,-0.0099265,0.25716,0
23782,54.3,17.375,0,1.358,0,23791,50.707,9.7511,0.0024564,-4,-0.0099265,0.27299,0
23783,54.3,17.456,0,1.3171,0,23792,50.707,9.3511,0.0016397,-4,-0.0072012,0.2701,0
23783,54.3,17.456,0,1.3171,0,23793,50.707,9.1111,0.0012663,-4,-0.0058527,0.25448,0
23783,54.3,17.456,0,1.3171,0,23793,50.707,9.1111,0.0012663,-4,-0.0058527,0.25448,0
23783,54.3,17.456,0,1.3171,0,23793,50.707,9.1111,0.0012663,-4,-0.0058527,0.25448,0
23783,54.3,17.456,0,1.3171,0,23793,50.707,9.0311,0.0011585,-4,-0.0054481,0.24964,0
23783,54.3,17.456,0,1.3171,0,23793,50.707,9.0311,0.0011585,-4,-0.0054481,0.24964,0
23783,54.3,17.456,0,1.3171,0,23793,50.707,9.0311,0.0011585,-4,-0.0054481,0.24964,0
23783,54.3,17.456,0,1.3171,0,23793,50.707,9.0311,0.0011585,-4,-0.0054481,0.24964,0
23783,54.3,17.456,0,1.3171,0,23793,50.707,9.0311,0.0011585,-4,-0.0054481,0.24964,0
23783,54.3,17.456,0,1.3171,0,23793,50.707,9.0311,0.0011585,-4,-0.0054481,0.24964,0
23783,54.3,17.456,0,1.3171,0,23793,50.707,9.0311,0.0011585,-4,-0.0054481,0.24964,0
23783,54.3,17.456,0,1.3171,0,23793,50.707,9.0311,0.0011585,-4,-0.0054481,0.24964,0
23783,54.3,17.456,0,1.3171,0,23793,50.707,9.0311,0.0011585,-4,-0.0054481,0.24964,0
23783,54.3,17.456,0,1.3171,0,23793,50.707,9.0311,0.0011585,-4,-0.0054481,0.24964,0
23785,54.3,17.559,0,1.2633,0,23793,50.707,9.0311,0.0011585,-4,-0.0054481,0.28273,0
23785,54.3,17.559,0,1.2633,0,23793,50.707,9.0311,0.0011585,-4,-0.0054481,0.28273,0
23785,54.3,17.559,0,1.2633,0,23793,50.707,9.0311,0.0011585,-4,-0.0054481,0.28273,0
23785,54.3,17.559,0,1.2633,0,23793,50.707,9.0311,0.0011585,-4,-0.0054481,0.28273,0
23785,54.3,17.559,0,1.2633,0,23793,50.707,9.0311,0.0011585,-4,-0.0054481,0.28273,0
23785,54.3,17.559,0,1.2633,0,23793,50.707,9.0311,0.0011585,-4,-0.0054481,0.28273,0
23785,54.3,17.559,0,1.2633,0,23793,50.707,9.0311,0.0011585,-4,-0.0054481,0.28273,0
23785,54.3,17.584,0,1.2483,0,23793,50.707,9.0311,0.0011585,-4,-0.0054481,0.29223,0
23786,54.3,17.633,0,1.2186,0,23793,50.707,9.0311,0.0011585,-4,-0.0054481,0.31293,0
23787,54.3,17.705,0,1.1753,0,23794,50.707,8.5511,0.00065739,-4,-0.0034484,0.30642,0
23788,54.3,17.797,0,1.1198,0,23794,50.707,8.3911,0.0005368,-4,-0.0029281,0.34008,0
23788,54.3,17.797,0,1.1198,0,23794,50.707,8.3911,0.0005368,-4,-0.0029281,0.34008,0
23788,54.3,17.797,0,1.1198,0,23794,50.707,8.3911,0.0005368,-4,-0.0029281,0.34008,0
23788,54.3,17.797,0,1.1198,0,23794,50.707,8.3911,0.0005368,-4,-0.0029281,0.34008,0
23788,54.3,17.797,0,1.1198,0,23794,50.707,8.3911,0.0005368,-4,-0.0029281,0.34008,0
23788,54.3,17.797,0,1.1198,0,23794,50.707,8.3911,0.0005368,-4,-0.0029281,0.34008,0
23788,54.3,17.797,0,1.1198,0,23794,50.707,8.3911,0.0005368,-4,-0.0029281,0.34008,0
23788,54.3,17.797,0,1.1198,0,23794,50.707,8.3911,0.0005368,-4,-0.0029281,0.34008,0
23788,54.3,17.797,0,1.1198,0,23795,50.707,8.0711,0.0003494,-4,-0.0020729,0.31305,0
23788,54.3,17.797,0,1.1198,0,23795,50.707,8.0711,0.0003494,-4,-0.0020729,0.31305,0
23788,54.3,17.797,0,1.1198,0,23795,50.707,8.0711,0.0003494,-4,-0.0020729,0.31305,0
23788,54.3,17.797,0,1.1198,0,23795,50.707,8.0711,0.0003494,-4,-0.0020729,0.31305,0
23788,54.3,17.797,0,1.1198,0,23795,50.707,8.0711,0.0003494,-4,-0.0020729,0.31305,0
23788,54.3,17.797,0,1.1198,0,23795,50.707,8.0711,0.0003494,-4,-0.0020729,0.31305,0
23788,54.3,17.797,0,1.1198,0,23795,50.707,8.0711,0.0003494,-4,-0.0020729,0.31305,0
23788,54.3,17.797,0,1.1198,0,23795,50.707,8.0711,0.0003494,-4,-0.0020729,0.31305,0
23788,54.3,17.797,0,1.1198,0,23795,50.707,8.0711,0.0003494,-4,-0.0020729,0.31305,0
23789,54.3,17.841,0,1.093,0,23795,50.707,8.0711,0.0003494,-4,-0.0020729,0.33733,0
23789,54.3,17.841,0,1.093,0,23795,50.707,8.0711,0.0003494,-4,-0.0020729,0.33733,0
23789,54.3,17.841,0,1.093,0,23795,50.707,8.0711,0.0003494,-4,-0.0020729,0.33733,0
23789,54.3,17.863,0,1.0798,0,23795,50.707,8.0711,0.0003494,-4,-0.0020729,0.35051,0
23789,54.3,17.863,0,1.0798,0,23796,50.707,7.7511,0.00022198,-4,-0.0013768,0.32307,0
23789,54.3,17.863,0,1.0798,0,23796,50.707,7.7511,0.00022198,-4,-0.0013768,0.32307,0
23792,54.3,18.008,0,0.99165,0,23796,50.707,7.5911,0.0001758,-4,-0.0011141,0.40839,0
23792,54.3,18.008,0,0.99165,0,23796,50.707,7.5911,0.0001758,-4,-0.0011141,0.40839,0
23792,54.3,18.027,0,0.97963,0,23796,50.707,7.5911,0.0001758,-4,-0.0011141,0.42453,0
23792,54.3,18.027,0,0.97963,0,23797,50.707,7.1911,9.5775e-05,-4,-0.00064848,0.38559,0
23792,54.3,18.027,0,0.97963,0,23797,50.707,7.1911,9.5775e-05,-4,-0.00064848,0.38559,0
23792,54.3,18.027,0,0.97963,0,23797,50.707,7.1111,8.4385e-05,-4,-0.00058073,0.37826,0
23792,54.3,18.027,0,0.97963,0,23797,50.707,7.1111,8.4385e-05,-4,-0.00058073,0.37826,0
23792,54.3,18.027,0,0.97963,0,23797,50.707,7.1111,8.4385e-05,-4,-0.00058073,0.37826,0
23792,54.3,18.027,0,0.97963,0,23797,50.707,7.1111,8.4385e-05,-4,-0.00058073,0.37826,0
23792,54.3,18.027,0,0.97963,0,23797,50.707,7.1111,8.4385e-05,-4,-0.00058073,0.37826,0
23792,54.3,18.027,0,0.97963,0,23797,50.707,7.1111,8.4385e-05,-4,-0.00058073,0.37826,0
23793,54.3,18.085,0,0.94439,0,23797,50.707,7.1111,8.4385e-05,-4,-0.00058073,0.42617,0
23793,54.3,18.085,0,0.94439,0,23797,50.707,7.1111,8.4385e-05,-4,-0.00058073,0.42617,0
23793,54.3,18.085,0,0.94439,0,23797,50.707,7.1111,8.4385e-05,-4,-0.00058073,0.42617,0
23793,54.3,18.085,0,0.94439,0,23797,50.707,7.1111,8.4385e-05,-4,-0.00058073,0.42617,0
23793,54.3,18.085,0,0.94439,0,23797,50.707,7.1111,8.4385e-05,-4,-0.00058073,0.42617,0
23793,54.3,18.085,0,0.94439,0,23797,50.707,7.1111,8.4385e-05,-4,-0.00058073,0.42617,0
23793,54.3,18.085,0,0.94439,0,23797,50.707,7.1111,8.4385e-05,-4,-0.00058073,0.42617,0
23793,54.3,18.085,0,0.94439,0,23797,50.707,7.1111,8.4385e-05,-4,-0.00058073,0.42617,0
23793,54.3,18.085,0,0.94439,0,23797,50.707,7.1111,8.4385e-05,-4,-0.00058073,0.42617,0
23793,54.3,18.085,0,0.94439,0,23797,50.707,7.1111,8.4385e-05,-4,-0.00058073,0.42617,0
23793,54.3,18.085,0,0.94439,0,23797,50.707,6.9511,6.5083e-05,-4,-0.00046468,0.41104,0
23793,54.3,18.085,0,0.94439,0,23797,50.707,6.9511,6.5083e-05,-4,-0.00046468,0.41104,0
23795,54.3,18.159,0,0.89928,0,23797,50.707,6.8711,5.6943e-05,-4,-0.00041517,0.46712,0
23795,54.3,18.194,0,0.8775,0,23798,50.707,6.6311,3.7423e-05,-4,-0.00029458,0.47589,0
23795,54.3,18.194,0,0.8775,0,23798,50.707,6.3111,2.0053e-05,-4,-0.00018384,0.45124,0
23795,54.3,18.194,0,0.8775,0,23798,50.707,6.3111,2.0053e-05,-4,-0.00018384,0.45124,0
23795,54.3,18.194,0,0.8775,0,23798,50.707,6.2311,1.6863e-05,-4,-0.00016291,0.44471,0
23795,54.3,18.194,0,0.8775,0,23798,50.707,6.2311,1.6863e-05,-4,-0.00016291,0.44471,0
23795,54.3,18.194,0,0.8775,0,23798,50.707,6.1511,1.404e-05,-4,-0.00014417,0.43813,0
23795,54.3,18.194,0,0.8775,0,23798,50.707,6.1511,1.404e-05,-4,-0.00014417,0.43813,0
23795,54.3,18.194,0,0.8775,0,23798,50.707,6.1511,1.404e-05,-4,-0.00014417,0.43813,0
23795,54.3,18.194,0,0.8775,0,23798,50.707,6.1511,1.404e-05,-4,-0.00014417,0.43813,0
23795,54.3,18.194,0,0.8775,0,23798,50.707,6.1511,1.404e-05,-4,-0.00014417,0.43813,0
23795,54.3,18.194,0,0.8775,0,23798,50.707,6.1511,1.404e-05,-4,-0.00014417,0.43813,0
23795,54.3,18.194,0,0.8775,0,23798,50.707,6.1511,1.404e-05,-4,-0.00014417,0.43813,0
23795,54.3,18.194,0,0.8775,0,23798,50.707,6.1511,1.404e-05,-4,-0.00014417,0.43813,0
23795,54.3,18.194,0,0.8775,0,23798,50.707,6.1511,1.404e-05,-4,-0.00014417,0.43813,0
23798,54.3,18.296,0,0.81512,0,23798,50.707,6.1511,1.404e-05,-4,-0.00014417,0.49627,0
23798,54.3,18.296,0,0.81512,0,23798,50.707,6.1511,1.404e-05,-4,-0.00014417,0.49627,0
23798,54.3,18.296,0,0.81512,0,23798,50.707,6.1511,1.404e-05,-4,-0.00014417,0.49627,0
23798,54.3,18.296,0,0.81512,0,23798,50.707,6.1511,1.404e-05,-4,-0.00014417,0.49627,0
23798,54.3,18.296,0,0.81512,0,23798,50.707,6.1511,1.404e-05,-4,-0.00014417,0.49627,0
23798,54.3,18.296,0,0.81512,0,23798,50.707,6.1511,1.404e-05,-4,-0.00014417,0.49627,0
23798,54.3,18.296,0,0.81512,0,23798,50.707,6.1511,1.404e-05,-4,-0.00014417,0.49627,0
23798,54.3,18.312,0,0.80515,0,23798,50.707,6.1511,1.404e-05,-4,-0.00014417,0.49186,0
23798,54.3,18.312,0,0.80515,0,23798,50.707,6.1511,1.404e-05,-4,-0.00014417,0.49186,0
23798,54.3,18.312,0,0.80515,0,23798,50.707,6.1511,1.404e-05,-4,-0.00014417,0.49186,0
23798,54.3,18.328,0,0.79529,0,23798,50.707,6.1511,1.404e-05,-4,-0.00014417,0.48213,0
23798,54.3,18.328,0,0.79529,0,23799,50.707,5.5911,1.7755e-06,-4,-5.8223e-05,0.49275,0
23798,54.3,18.328,0,0.79529,0,23799,50.707,5.5911,1.7755e-06,-4,-5.8223e-05,0.49275,0
23801,54.3,18.435,0,0.72943,0,23799,50.707,5.5111,7.8687e-07,-4,-5.064e-05,0.48812,0
23802,54.3,18.464,0,0.7116,0,23800,50.707,5.2711,-1.4421e-06,-4,-3.2554e-05,0.47599,0
23802,54.3,18.464,0,0.7116,0,23800,50.707,5.2711,-1.4421e-06,-4,-3.2554e-05,0.47599,0
23802,54.3,18.464,0,0.7116,0,23800,50.707,5.2711,-1.4421e-06,-4,-3.2554e-05,0.47599,0
23802,54.3,18.464,0,0.7116,0,23800,50.707,5.2711,-1.4421e-06,-4,-3.2554e-05,0.47599,0
23802,54.3,18.464,0,0.7116,0,23800,50.707,5.2711,-1.4421e-06,-4,-3.2554e-05,0.47599,0
23802,54.3,18.464,0,0.7116,0,23800,50.707,5.2711,-1.4421e-06,-4,-3.2554e-05,0.47599,0
23802,54.3,18.464,0,0.7116,0,23800,50.707,5.2711,-1.4421e-06,-4,-3.2554e-05,0.47599,0
23802,54.3,18.464,0,0.7116,0,23800,50.707,5.2711,-1.4421e-06,-4,-3.2554e-05,0.47599,0
23802,54.3,18.478,0,0.70284,0,23800,50.707,5.2711,-1.4421e-06,-4,-3.2554e-05,0.46368,0
23802,54.3,18.478,0,0.70284,0,23800,50.707,5.2711,-1.4421e-06,-4,-3.2554e-05,0.46368,0
23802,54.3,18.478,0,0.70284,0,23800,50.707,5.2711,-1.4421e-06,-4,-3.2554e-05,0.46368,0
23802,54.3,18.478,0,0.70284,0,23800,50.707,5.0311,-2.8286e-06,-4,-1.9906e-05,0.47151,0
23802,54.3,18.478,0,0.70284,0,23800,50.707,5.0311,-2.8286e-06,-4,-1.9906e-05,0.47151,0
23802,54.3,18.478,0,0.70284,0,23800,50.707,5.0311,-2.8286e-06,-4,-1.9906e-05,0.47151,0
23802,54.3,18.478,0,0.70284,0,23800,50.707,5.0311,-2.8286e-06,-4,-1.9906e-05,0.47151,0
23802,54.3,18.478,0,0.70284,0,23800,50.707,5.0311,-2.8286e-06,-4,-1.9906e-05,0.47151,0
23802,54.3,18.478,0,0.70284,0,23800,50.707,5.0311,-2.8286e-06,-4,-1.9906e-05,0.47151,0
23802,54.3,18.478,0,0.70284,0,23800,50.707,5.0311,-2.8286e-06,-4,-1.9906e-05,0.47151,0
23802,54.3,18.478,0,0.70284,0,23800,50.707,5.0311,-2.8286e-06,-4,-1.9906e-05,0.47151,0
23803,54.3,18.506,0,0.68563,0,23800,50.707,5.0311,-2.8286e-06,-4,-1.9906e-05,0.44337,0
23803,54.3,18.506,0,0.68563,0,23800,50.707,4.7111,-3.8004e-06,-4,-8.8952e-06,0.45532,0
23803,54.3,18.506,0,0.68563,0,23801,50.707,4.6311,-3.9321e-06,-4,-6.9118e-06,0.45795,0
23806,54.3,18.61,0,0.62074,0,23801,50.707,4.5511,-4.0297e-06,-4,-5.1717e-06,0.33132,0
23806,54.3,18.61,0,0.62074,0,23801,50.707,4.5511,-4.0297e-06,-4,-5.1717e-06,0.33132,0
23806,54.3,18.61,0,0.62074,0,23801,50.707,4.5511,-4.0297e-06,-4,-5.1717e-06,0.33132,0
23806,54.3,18.61,0,0.62074,0,23801,50.707,4.2311,-4.1578e-06,-4,-1.5225e-07,0.34118,0
23806,54.3,18.61,0,0.62074,0,23801,50.707,4.2311,-4.1578e-06,-4,-1.5225e-07,0.34118,0
23806,54.3,18.61,0,0.62074,0,23801,50.707,4.2311,-4.1578e-06,-4,-1.5225e-07,0.34118,0
23806,54.3,18.61,0,0.62074,0,23801,50.707,4.2311,-4.1578e-06,-4,-1.5225e-07,0.34118,0
23806,54.3,18.61,0,0.62074,0,23801,50.707,4.2311,-4.1578e-06,-4,-1.5225e-07,0.34118,0
23806,54.3,18.61,0,0.62074,0,23801,50.707,4.2311,-4.1578e-06,-4,-1.5225e-07,0.34118,0
23806,54.3,18.61,0,0.62074,0,23801,50.707,4.2311,-4.1578e-06,-4,-1.5225e-07,0.34118,0
23806,54.3,18.635,0,0.60547,0,23801,50.707,4.2311,-4.1578e-06,-4,-1.5225e-07,0.31205,0
23806,54.3,18.635,0,0.60547,0,23801,50.707,4.2311,-4.1578e-06,-4,-1.5225e-07,0.31205,0
23806,54.3,18.635,0,0.60547,0,23801,50.707,4.2311,-4.1578e-06,-4,-1.5225e-07,0.31205,0
23806,54.3,18.635,0,0.60547,0,23801,50.707,4.2311,-4.1578e-06,-4,-1.5225e-07,0.31205,0
23806,54.3,18.635,0,0.60547,0,23801,50.707,4.2311,-4.1578e-06,-4,-1.5225e-07,0.31205,0
23806,54.3,18.635,0,0.60547,0,23801,50.707,4.2311,-4.1578e-06,-4,-1.5225e-07,0.31205,0
23806,54.3,18.635,0,0.60547,0,23801,50.707,4.2311,-4.1578e-06,-4,-1.5225e-07,0.31205,0
23806,54.3,18.635,0,0.60547,0,23801,50.707,4.0711,-4.108e-06,-4,1.4698e-06,0.31615,0
23806,54.3,18.635,0,0.60547,0,23801,50.707,4.0711,-4.108e-06,-4,1.4698e-06,0.31615,0
23806,54.3,18.635,0,0.60547,0,23801,50.707,4.0711,-4.108e-06,-4,1.4698e-06,0.31615,0
23806,54.3,18.635,0,0.60547,0,23801,50.707,4.0711,-4.108e-06,-4,1.4698e-06,0.31615,0
23806,54.3,18.635,0,0.60547,0,23801,50.707,4.0711,-4.108e-06,-4,1.4698e-06,0.31615,0
23806,54.3,18.635,0,0.60547,0,23801,50.707,4.0711,-4.108e-06,-4,1.4698e-06,0.31615,0
23807,54.3,18.658,0,0.59056,0,23801,50.707,4.0711,-4.108e-06,-4,1.4698e-06,0.28968,0
23807,54.3,18.658,0,0.59056,0,23801,50.707,3.7511,-3.8708e-06,-4,3.5248e-06,0.29634,0
23809,54.3,18.727,0,0.54792,0,23802,50.707,3.6711,-3.7921e-06,-4,3.8533e-06,0.23277,0
23810,54.3,18.738,0,0.54111,0,23802,50.707,3.6711,-3.7921e-06,-4,3.8533e-06,0.22421,0
23810,54.3,18.738,0,0.54111,0,23802,50.707,3.2711,-3.338e-06,-4,4.768e-06,0.22793,0
23810,54.3,18.738,0,0.54111,0,23802,50.707,3.1911,-3.2404e-06,-4,4.8443e-06,0.22861,0
23810,54.3,18.738,0,0.54111,0,23802,50.707,3.1911,-3.2404e-06,-4,4.8443e-06,0.22861,0
23810,54.3,18.738,0,0.54111,0,23802,50.707,3.1911,-3.2404e-06,-4,4.8443e-06,0.22861,0
23810,54.3,18.738,0,0.54111,0,23802,50.707,3.1911,-3.2404e-06,-4,4.8443e-06,0.22861,0
23810,54.3,18.738,0,0.54111,0,23802,50.707,3.1911,-3.2404e-06,-4,4.8443e-06,0.22861,0
23810,54.3,18.738,0,0.54111,0,23802,50.707,3.1911,-3.2404e-06,-4,4.8443e-06,0.22861,0
23810,54.3,18.738,0,0.54111,0,23802,50.707,3.1911,-3.2404e-06,-4,4.8443e-06,0.22861,0
23810,54.3,18.738,0,0.54111,0,23802,50.707,3.1911,-3.2404e-06,-4,4.8443e-06,0.22861,0
23810,54.3,18.738,0,0.54111,0,23802,50.707,3.1911,-3.2404e-06,-4,4.8443e-06,0.22861,0
23810,54.3,18.738,0,0.54111,0,23802,50.707,3.1111,-3.1418e-06,-4,4.8953e-06,0.22925,0
23810,54.3,18.738,0,0.54111,0,23802,50.707,3.1111,-3.1418e-06,-4,4.8953e-06,0.22925,0
23810,54.3,18.738,0,0.54111,0,23802,50.707,3.1111,-3.1418e-06,-4,4.8953e-06,0.22925,0
23810,54.3,18.738,0,0.54111,0,23802,50.707,3.1111,-3.1418e-06,-4,4.8953e-06,0.22925,0
23810,54.3,18.738,0,0.54111,0,23802,50.707,3.1111,-3.1418e-06,-4,4.8953e-06,0.22925,0
23810,54.3,18.738,0,0.54111,0,23802,50.707,3.1111,-3.1418e-06,-4,4.8953e-06,0.22925,0
23810,54.3,18.738,0,0.54111,0,23802,50.707,3.1111,-3.1418e-06,-4,4.8953e-06,0.22925,0
23810,54.3,18.738,0,0.54111,0,23802,50.707,3.1111,-3.1418e-06,-4,4.8953e-06,0.22925,0
23810,54.3,18.738,0,0.54111,0,23802,50.707,3.0311,-3.0426e-06,-4,4.9245e-06,0.22987,0
23810,54.3,18.738,0,0.54111,0,23802,50.707,3.0311,-3.0426e-06,-4,4.9245e-06,0.22987,0
