-196.27,211.87,-363.74,465.97,-201.98,162.33,-176.24,158.05,-191.8,60.366,-30.249,-17.812,-80.215,-89.985,-107.48,316.19
-196.27,211.87,-363.74,465.97,-201.98,162.33,-176.24,158.05,-191.8,60.366,-30.249,-17.812,-80.215,-89.985,-107.48,316.19
-196.27,211.87,-363.74,465.97,-201.98,162.33,-176.24,158.05,-191.8,60.366,-30.249,-17.812,-80.215,-89.985,-107.48,316.19
-199.65,216.99,-366.42,469.81,-204.5,165.94,-176.51,158.79,-191.54,61.393,-30.772,-17.32,-80.984,-89.215,-107.58,316.87
-199.65,216.99,-366.42,469.81,-204.5,165.94,-176.51,158.79,-191.54,61.393,-30.772,-17.32,-80.984,-89.215,-107.58,316.87
-203.01,222.07,-369.06,473.61,-207,169.52,-176.78,159.51,-191.27,62.418,-31.295,-16.823,-81.752,-88.445,-107.69,317.54
-206.35,227.13,-371.67,477.36,-209.48,173.07,-177.03,160.22,-191,63.44,-31.819,-16.32,-82.517,-87.676,-107.79,318.19
-206.35,227.13,-371.67,477.36,-209.48,173.07,-177.03,160.22,-191,63.44,-31.819,-16.32,-82.517,-87.676,-107.79,318.19
-209.66,232.15,-374.24,481.07,-211.95,176.58,-177.29,160.92,-190.72,64.46,-32.342,-15.812,-83.279,-86.906,-107.88,318.84
-209.66,232.15,-374.24,481.07,-211.95,176.58,-177.29,160.92,-190.72,64.46,-32.342,-15.812,-83.279,-86.906,-107.88,318.84
-209.66,232.15,-374.24,481.07,-211.95,176.58,-177.29,160.92,-190.72,64.46,-32.342,-15.812,-83.279,-86.906,-107.88,318.84
-212.95,237.14,-376.78,484.73,-214.4,180.07,-177.53,161.61,-190.43,65.476,-32.866,-15.298,-84.04,-86.137,-107.97,319.47
-212.95,237.14,-376.78,484.73,-214.4,180.07,-177.53,161.61,-190.43,65.476,-32.866,-15.298,-84.04,-86.137,-107.97,319.47
-216.21,242.11,-379.29,488.35,-216.84,183.52,-177.77,162.29,-190.14,66.49,-33.389,-14.78,-84.798,-85.369,-108.06,320.08
-219.46,247.04,-381.76,491.93,-219.26,186.94,-178.01,162.95,-189.84,67.501,-33.913,-14.256,-85.553,-84.601,-108.14,320.69
-219.46,247.04,-381.76,491.93,-219.26,186.94,-178.01,162.95,-189.84,67.501,-33.913,-14.256,-85.553,-84.601,-108.14,320.69
-222.67,251.94,-384.21,495.46,-221.66,190.33,-178.24,163.6,-189.54,68.509,-34.437,-13.727,-86.306,-83.834,-108.21,321.28
-222.67,251.94,-384.21,495.46,-221.66,190.33,-178.24,163.6,-189.54,68.509,-34.437,-13.727,-86.306,-83.834,-108.21,321.28
-225.87,256.81,-386.61,498.94,-224.04,193.68,-178.46,164.25,-189.22,69.514,-34.96,-13.193,-87.057,-83.067,-108.28,321.86
-225.87,256.81,-386.61,498.94,-224.04,193.68,-178.46,164.25,-189.22,69.514,-34.96,-13.193,-87.057,-83.067,-108.28,321.86
-225.87,256.81,-386.61,498.94,-224.04,193.68,-178.46,164.25,-189.22,69.514,-34.96,-13.193,-87.057,-83.067,-108.28,321.86
-229.03,261.65,-388.99,502.39,-226.41,197,-178.67,164.88,-188.9,70.516,-35.484,-12.655,-87.805,-82.302,-108.35,322.43
-229.03,261.65,-388.99,502.39,-226.41,197,-178.67,164.88,-188.9,70.516,-35.484,-12.655,-87.805,-82.302,-108.35,322.43
-232.18,266.45,-391.33,505.79,-228.76,200.29,-178.88,165.49,-188.58,71.515,-36.007,-12.111,-88.55,-81.537,-108.41,322.98
-235.3,271.23,-393.64,509.15,-231.1,203.55,-179.09,166.1,-188.24,72.511,-36.53,-11.562,-89.293,-80.773,-108.46,323.52
-238.39,275.97,-395.92,512.46,-233.41,206.77,-179.28,166.69,-187.9,73.503,-37.053,-11.009,-90.033,-80.01,-108.51,324.05
-238.39,275.97,-395.92,512.46,-233.41,206.77,-179.28,166.69,-187.9,73.503,-37.053,-11.009,-90.033,-80.01,-108.51,324.05
-238.39,275.97,-395.92,512.46,-233.41,206.77,-179.28,166.69,-187.9,73.503,-37.053,-11.009,-90.033,-80.01,-108.51,324.05
-241.47,280.68,-398.16,515.73,-235.72,209.97,-179.48,167.27,-187.56,74.492,-37.575,-10.45,-90.77,-79.248,-108.56,324.57
-241.47,280.68,-398.16,515.73,-235.72,209.97,-179.48,167.27,-187.56,74.492,-37.575,-10.45,-90.77,-79.248,-108.56,324.57
-241.47,280.68,-398.16,515.73,-235.72,209.97,-179.48,167.27,-187.56,74.492,-37.575,-10.45,-90.77,-79.248,-108.56,324.57
-244.51,285.36,-400.38,518.96,-238,213.12,-179.66,167.85,-187.21,75.478,-38.097,-9.8875,-91.504,-78.488,-108.6,325.07
-247.53,290.01,-402.55,522.14,-240.27,216.25,-179.84,168.4,-186.85,76.46,-38.618,-9.3199,-92.236,-77.728,-108.63,325.56
-247.53,290.01,-402.55,522.14,-240.27,216.25,-179.84,168.4,-186.85,76.46,-38.618,-9.3199,-92.236,-77.728,-108.63,325.56
-250.53,294.62,-404.7,525.28,-242.52,219.34,-180.01,168.95,-186.48,77.439,-39.139,-8.7477,-92.964,-76.97,-108.67,326.04
-250.53,294.62,-404.7,525.28,-242.52,219.34,-180.01,168.95,-186.48,77.439,-39.139,-8.7477,-92.964,-76.97,-108.67,326.04
-253.5,299.2,-406.82,528.38,-244.75,222.41,-180.18,169.48,-186.11,78.414,-39.66,-8.171,-93.69,-76.214,-108.69,326.51
-253.5,299.2,-406.82,528.38,-244.75,222.41,-180.18,169.48,-186.11,78.414,-39.66,-8.171,-93.69,-76.214,-108.69,326.51
-256.45,303.75,-408.9,531.43,-246.97,225.43,-180.34,170.01,-185.73,79.385,-40.179,-7.5898,-94.413,-75.459,-108.71,326.96
-256.45,303.75,-408.9,531.43,-246.97,225.43,-180.34,170.01,-185.73,79.385,-40.179,-7.5898,-94.413,-75.459,-108.71,326.96
-259.37,308.27,-410.95,534.45,-249.16,228.43,-180.49,170.52,-185.35,80.353,-40.698,-7.0042,-95.133,-74.705,-108.73,327.4
-259.37,308.27,-410.95,534.45,-249.16,228.43,-180.49,170.52,-185.35,80.353,-40.698,-7.0042,-95.133,-74.705,-108.73,327.4
-262.27,312.75,-412.97,537.42,-251.35,231.39,-180.64,171.02,-184.96,81.317,-41.216,-6.4143,-95.849,-73.953,-108.74,327.83
-262.27,312.75,-412.97,537.42,-251.35,231.39,-180.64,171.02,-184.96,81.317,-41.216,-6.4143,-95.849,-73.953,-108.74,327.83
-265.14,317.21,-414.95,540.34,-253.51,234.32,-180.78,171.5,-184.56,82.277,-41.734,-5.82,-96.563,-73.203,-108.75,328.24
-265.14,317.21,-414.95,540.34,-253.51,234.32,-180.78,171.5,-184.56,82.277,-41.734,-5.82,-96.563,-73.203,-108.75,328.24
-267.99,321.62,-416.91,543.23,-255.66,237.21,-180.91,171.98,-184.15,83.234,-42.25,-5.2216,-97.273,-72.454,-108.75,328.65
-267.99,321.62,-416.91,543.23,-255.66,237.21,-180.91,171.98,-184.15,83.234,-42.25,-5.2216,-97.273,-72.454,-108.75,328.65
-270.81,326.01,-418.83,546.07,-257.79,240.08,-181.04,172.44,-183.74,84.186,-42.766,-4.6189,-97.98,-71.707,-108.75,329.04
-270.81,326.01,-418.83,546.07,-257.79,240.08,-181.04,172.44,-183.74,84.186,-42.766,-4.6189,-97.98,-71.707,-108.75,329.04
-273.61,330.36,-420.72,548.87,-259.91,242.91,-181.16,172.89,-183.33,85.135,-43.281,-4.0122,-98.684,-70.962,-108.74,329.41
-273.61,330.36,-420.72,548.87,-259.91,242.91,-181.16,172.89,-183.33,85.135,-43.281,-4.0122,-98.684,-70.962,-108.74,329.41
-276.38,334.68,-422.58,551.63,-262.01,245.7,-181.28,173.33,-182.91,86.08,-43.794,-3.4013,-99.385,-70.219,-108.73,329.78
-276.38,334.68,-422.58,551.63,-262.01,245.7,-181.28,173.33,-182.91,86.08,-43.794,-3.4013,-99.385,-70.219,-108.73,329.78
-276.38,334.68,-422.58,551.63,-262.01,245.7,-181.28,173.33,-182.91,86.08,-43.794,-3.4013,-99.385,-70.219,-108.73,329.78
-279.13,338.97,-424.41,554.35,-264.09,248.47,-181.39,173.75,-182.48,87.02,-44.307,-2.7865,-100.08,-69.478,-108.71,330.13
-279.13,338.97,-424.41,554.35,-264.09,248.47,-181.39,173.75,-182.48,87.02,-44.307,-2.7865,-100.08,-69.478,-108.71,330.13
-279.13,338.97,-424.41,554.35,-264.09,248.47,-181.39,173.75,-182.48,87.02,-44.307,-2.7865,-100.08,-69.478,-108.71,330.13
-284.55,347.44,-427.97,559.67,-268.2,253.89,-181.58,174.57,-181.6,88.889,-45.329,-1.5452,-101.47,-68.003,-108.67,330.8
-284.55,347.44,-427.97,559.67,-268.2,253.89,-181.58,174.57,-181.6,88.889,-45.329,-1.5452,-101.47,-68.003,-108.67,330.8
-284.55,347.44,-427.97,559.67,-268.2,253.89,-181.58,174.57,-181.6,88.889,-45.329,-1.5452,-101.47,-68.003,-108.67,330.8
-287.22,351.63,-429.7,562.26,-270.23,256.56,-181.67,174.96,-181.16,89.817,-45.838,-0.91879,-102.15,-67.268,-108.64,331.12
-289.86,355.78,-431.4,564.81,-272.24,259.19,-181.76,175.34,-180.7,90.741,-46.346,-0.28863,-102.84,-66.536,-108.6,331.42
-289.86,355.78,-431.4,564.81,-272.24,259.19,-181.76,175.34,-180.7,90.741,-46.346,-0.28863,-102.84,-66.536,-108.6,331.42
-292.48,359.9,-433.08,567.33,-274.24,261.79,-181.84,175.7,-180.25,91.661,-46.852,0.34521,-103.52,-65.806,-108.56,331.71
-292.48,359.9,-433.08,567.33,-274.24,261.79,-181.84,175.7,-180.25,91.661,-46.852,0.34521,-103.52,-65.806,-108.56,331.71
-295.08,363.98,-434.72,569.8,-276.21,264.35,-181.91,176.05,-179.78,92.576,-47.357,0.98268,-104.19,-65.078,-108.51,331.99
-295.08,363.98,-434.72,569.8,-276.21,264.35,-181.91,176.05,-179.78,92.576,-47.357,0.98268,-104.19,-65.078,-108.51,331.99
-297.64,368.04,-436.33,572.23,-278.18,266.88,-181.97,176.4,-179.31,93.486,-47.861,1.6237,-104.87,-64.353,-108.47,332.26
-297.64,368.04,-436.33,572.23,-278.18,266.88,-181.97,176.4,-179.31,93.486,-47.861,1.6237,-104.87,-64.353,-108.47,332.26
-300.19,372.05,-437.91,574.62,-280.12,269.38,-182.03,176.72,-178.84,94.393,-48.363,2.2682,-105.54,-63.63,-108.41,332.51
-300.19,372.05,-437.91,574.62,-280.12,269.38,-182.03,176.72,-178.84,94.393,-48.363,2.2682,-105.54,-63.63,-108.41,332.51
-302.7,376.04,-439.46,576.98,-282.05,271.85,-182.08,177.04,-178.35,95.294,-48.864,2.9162,-106.2,-62.91,-108.35,332.75
-302.7,376.04,-439.46,576.98,-282.05,271.85,-182.08,177.04,-178.35,95.294,-48.864,2.9162,-106.2,-62.91,-108.35,332.75
-302.7,376.04,-439.46,576.98,-282.05,271.85,-182.08,177.04,-178.35,95.294,-48.864,2.9162,-106.2,-62.91,-108.35,332.75
-305.2,379.99,-440.98,579.29,-283.96,274.28,-182.13,177.35,-177.87,96.192,-49.363,3.5675,-106.87,-62.192,-108.29,332.98
-305.2,379.99,-440.98,579.29,-283.96,274.28,-182.13,177.35,-177.87,96.192,-49.363,3.5675,-106.87,-62.192,-108.29,332.98
-307.66,383.9,-442.47,581.56,-285.86,276.68,-182.17,177.64,-177.37,97.084,-49.86,4.2222,-107.52,-61.477,-108.22,333.2
-307.66,383.9,-442.47,581.56,-285.86,276.68,-182.17,177.64,-177.37,97.084,-49.86,4.2222,-107.52,-61.477,-108.22,333.2
-310.1,387.79,-443.93,583.79,-287.73,279.04,-182.2,177.92,-176.87,97.972,-50.356,4.8801,-108.18,-60.764,-108.15,333.41
-310.1,387.79,-443.93,583.79,-287.73,279.04,-182.2,177.92,-176.87,97.972,-50.356,4.8801,-108.18,-60.764,-108.15,333.41
-312.52,391.64,-445.36,585.99,-289.59,281.38,-182.22,178.19,-176.37,98.856,-50.85,5.5412,-108.83,-60.055,-108.07,333.6
-314.91,395.45,-446.76,588.14,-291.44,283.67,-182.24,178.45,-175.86,99.734,-51.342,6.2054,-109.48,-59.348,-107.99,333.78
-317.27,399.23,-448.13,590.26,-293.26,285.94,-182.26,178.69,-175.34,100.61,-51.833,6.8727,-110.12,-58.644,-107.9,333.95
-317.27,399.23,-448.13,590.26,-293.26,285.94,-182.26,178.69,-175.34,100.61,-51.833,6.8727,-110.12,-58.644,-107.9,333.95
-317.27,399.23,-448.13,590.26,-293.26,285.94,-182.26,178.69,-175.34,100.61,-51.833,6.8727,-110.12,-58.644,-107.9,333.95
-319.61,402.97,-449.47,592.33,-295.07,288.17,-182.27,178.92,-174.82,101.48,-52.321,7.543,-110.76,-57.943,-107.81,334.11
-319.61,402.97,-449.47,592.33,-295.07,288.17,-182.27,178.92,-174.82,101.48,-52.321,7.543,-110.76,-57.943,-107.81,334.11
-321.92,406.69,-450.79,594.37,-296.87,290.38,-182.27,179.14,-174.3,102.34,-52.808,8.2162,-111.39,-57.245,-107.71,334.25
-321.92,406.69,-450.79,594.37,-296.87,290.38,-182.27,179.14,-174.3,102.34,-52.808,8.2162,-111.39,-57.245,-107.71,334.25
-321.92,406.69,-450.79,594.37,-296.87,290.38,-182.27,179.14,-174.3,102.34,-52.808,8.2162,-111.39,-57.245,-107.71,334.25
-324.21,410.36,-452.07,596.37,-298.64,292.54,-182.26,179.35,-173.76,103.2,-53.292,8.8923,-112.03,-56.549,-107.61,334.39
-326.47,414.01,-453.32,598.33,-300.4,294.68,-182.25,179.55,-173.23,104.05,-53.775,9.5712,-112.65,-55.857,-107.51,334.51
-326.47,414.01,-453.32,598.33,-300.4,294.68,-182.25,179.55,-173.23,104.05,-53.775,9.5712,-112.65,-55.857,-107.51,334.51
-328.7,417.62,-454.55,600.26,-302.15,296.78,-182.23,179.73,-172.68,104.9,-54.255,10.253,-113.28,-55.168,-107.4,334.62
-328.7,417.62,-454.55,600.26,-302.15,296.78,-182.23,179.73,-172.68,104.9,-54.255,10.253,-113.28,-55.168,-107.4,334.62
-330.91,421.19,-455.75,602.14,-303.87,298.85,-182.21,179.91,-172.13,105.75,-54.733,10.937,-113.9,-54.482,-107.29,334.72
-330.91,421.19,-455.75,602.14,-303.87,298.85,-182.21,179.91,-172.13,105.75,-54.733,10.937,-113.9,-54.482,-107.29,334.72
-333.1,424.73,-456.91,603.99,-305.58,300.88,-182.18,180.07,-171.58,106.59,-55.209,11.624,-114.51,-53.799,-107.17,334.81
-333.1,424.73,-456.91,603.99,-305.58,300.88,-182.18,180.07,-171.58,106.59,-55.209,11.624,-114.51,-53.799,-107.17,334.81
-335.26,428.24,-458.05,605.8,-307.28,302.89,-182.14,180.22,-171.02,107.42,-55.683,12.314,-115.12,-53.12,-107.05,334.88
-335.26,428.24,-458.05,605.8,-307.28,302.89,-182.14,180.22,-171.02,107.42,-55.683,12.314,-115.12,-53.12,-107.05,334.88
-337.39,431.71,-459.17,607.58,-308.95,304.86,-182.1,180.35,-170.46,108.25,-56.155,13.006,-115.73,-52.443,-106.92,334.94
-337.39,431.71,-459.17,607.58,-308.95,304.86,-182.1,180.35,-170.46,108.25,-56.155,13.006,-115.73,-52.443,-106.92,334.94
-339.5,435.14,-460.25,609.32,-310.61,306.8,-182.05,180.48,-169.89,109.07,-56.624,13.7,-116.33,-51.77,-106.79,335
-339.5,435.14,-460.25,609.32,-310.61,306.8,-182.05,180.48,-169.89,109.07,-56.624,13.7,-116.33,-51.77,-106.79,335
-341.58,438.55,-461.3,611.02,-312.25,308.7,-181.99,180.59,-169.31,109.89,-57.091,14.397,-116.93,-51.1,-106.65,335.04
-341.58,438.55,-461.3,611.02,-312.25,308.7,-181.99,180.59,-169.31,109.89,-57.091,14.397,-116.93,-51.1,-106.65,335.04
-343.63,441.92,-462.33,612.68,-313.88,310.58,-181.93,180.69,-168.73,110.71,-57.555,15.096,-117.53,-50.434,-106.51,335.06
-343.63,441.92,-462.33,612.68,-313.88,310.58,-181.93,180.69,-168.73,110.71,-57.555,15.096,-117.53,-50.434,-106.51,335.06
-343.63,441.92,-462.33,612.68,-313.88,310.58,-181.93,180.69,-168.73,110.71,-57.555,15.096,-117.53,-50.434,-106.51,335.06
-345.66,445.25,-463.33,614.31,-315.49,312.42,-181.86,180.78,-168.15,111.51,-58.018,15.797,-118.12,-49.77,-106.37,335.08
-347.67,448.55,-464.31,615.9,-317.08,314.23,-181.78,180.86,-167.56,112.32,-58.477,16.501,-118.7,-49.111,-106.22,335.09
-347.67,448.55,-464.31,615.9,-317.08,314.23,-181.78,180.86,-167.56,112.32,-58.477,16.501,-118.7,-49.111,-106.22,335.09
-349.65,451.81,-465.25,617.46,-318.66,316,-181.7,180.93,-166.96,113.11,-58.934,17.207,-119.28,-48.455,-106.07,335.08
-349.65,451.81,-465.25,617.46,-318.66,316,-181.7,180.93,-166.96,113.11,-58.934,17.207,-119.28,-48.455,-106.07,335.08
-351.6,455.04,-466.17,618.98,-320.22,317.74,-181.62,180.98,-166.36,113.91,-59.388,17.914,-119.86,-47.802,-105.91,335.07
-351.6,455.04,-466.17,618.98,-320.22,317.74,-181.62,180.98,-166.36,113.91,-59.388,17.914,-119.86,-47.802,-105.91,335.07
-353.53,458.24,-467.06,620.46,-321.77,319.46,-181.52,181.02,-165.76,114.69,-59.84,18.624,-120.43,-47.153,-105.75,335.04
-353.53,458.24,-467.06,620.46,-321.77,319.46,-181.52,181.02,-165.76,114.69,-59.84,18.624,-120.43,-47.153,-105.75,335.04
-353.53,458.24,-467.06,620.46,-321.77,319.46,-181.52,181.02,-165.76,114.69,-59.84,18.624,-120.43,-47.153,-105.75,335.04
-355.43,461.4,-467.93,621.91,-323.29,321.14,-181.42,181.05,-165.15,115.47,-60.289,19.336,-121,-46.507,-105.58,335
-355.43,461.4,-467.93,621.91,-323.29,321.14,-181.42,181.05,-165.15,115.47,-60.289,19.336,-121,-46.507,-105.58,335
-357.3,464.53,-468.77,623.32,-324.8,322.78,-181.32,181.07,-164.54,116.25,-60.735,20.049,-121.57,-45.865,-105.41,334.95
-357.3,464.53,-468.77,623.32,-324.8,322.78,-181.32,181.07,-164.54,116.25,-60.735,20.049,-121.57,-45.865,-105.41,334.95
-359.16,467.62,-469.58,624.7,-326.3,324.4,-181.21,181.08,-163.92,117.02,-61.179,20.765,-122.13,-45.226,-105.24,334.89
-360.98,470.68,-470.36,626.05,-327.78,325.98,-181.09,181.08,-163.29,117.78,-61.62,21.482,-122.68,-44.592,-105.06,334.82
-360.98,470.68,-470.36,626.05,-327.78,325.98,-181.09,181.08,-163.29,117.78,-61.62,21.482,-122.68,-44.592,-105.06,334.82
-360.98,470.68,-470.36,626.05,-327.78,325.98,-181.09,181.08,-163.29,117.78,-61.62,21.482,-122.68,-44.592,-105.06,334.82
-362.78,473.71,-471.12,627.36,-329.24,327.53,-180.96,181.06,-162.66,118.54,-62.058,22.201,-123.23,-43.96,-104.88,334.73
-362.78,473.71,-471.12,627.36,-329.24,327.53,-180.96,181.06,-162.66,118.54,-62.058,22.201,-123.23,-43.96,-104.88,334.73
-364.56,476.7,-471.86,628.64,-330.68,329.05,-180.83,181.03,-162.03,119.3,-62.493,22.921,-123.78,-43.333,-104.69,334.64
-364.56,476.7,-471.86,628.64,-330.68,329.05,-180.83,181.03,-162.03,119.3,-62.493,22.921,-123.78,-43.333,-104.69,334.64
-366.31,479.65,-472.56,629.88,-332.11,330.54,-180.7,180.99,-161.39,120.04,-62.925,23.643,-124.32,-42.709,-104.5,334.53
-366.31,479.65,-472.56,629.88,-332.11,330.54,-180.7,180.99,-161.39,120.04,-62.925,23.643,-124.32,-42.709,-104.5,334.53
-366.31,479.65,-472.56,629.88,-332.11,330.54,-180.7,180.99,-161.39,120.04,-62.925,23.643,-124.32,-42.709,-104.5,334.53
-369.73,485.46,-473.9,632.27,-334.92,333.42,-180.4,180.88,-160.1,121.52,-63.78,25.092,-125.39,-41.473,-104.11,334.29
-369.73,485.46,-473.9,632.27,-334.92,333.42,-180.4,180.88,-160.1,121.52,-63.78,25.092,-125.39,-41.473,-104.11,334.29
-371.4,488.31,-474.53,633.41,-336.3,334.82,-180.25,180.81,-159.45,122.25,-64.203,25.818,-125.92,-40.861,-103.91,334.15
-371.4,488.31,-474.53,633.41,-336.3,334.82,-180.25,180.81,-159.45,122.25,-64.203,25.818,-125.92,-40.861,-103.91,334.15
-371.4,488.31,-474.53,633.41,-336.3,334.82,-180.25,180.81,-159.45,122.25,-64.203,25.818,-125.92,-40.861,-103.91,334.15
-373.05,491.13,-475.14,634.52,-337.67,336.18,-180.09,180.73,-158.8,122.98,-64.623,26.546,-126.44,-40.252,-103.7,334.01
-373.05,491.13,-475.14,634.52,-337.67,336.18,-180.09,180.73,-158.8,122.98,-64.623,26.546,-126.44,-40.252,-103.7,334.01
-374.67,493.92,-475.72,635.6,-339.02,337.51,-179.92,180.63,-158.14,123.7,-65.039,27.274,-126.96,-39.647,-103.49,333.85
-374.67,493.92,-475.72,635.6,-339.02,337.51,-179.92,180.63,-158.14,123.7,-65.039,27.274,-126.96,-39.647,-103.49,333.85
-374.67,493.92,-475.72,635.6,-339.02,337.51,-179.92,180.63,-158.14,123.7,-65.039,27.274,-126.96,-39.647,-103.49,333.85
-377.85,499.39,-476.81,637.66,-341.67,340.08,-179.57,180.41,-156.8,125.12,-65.863,28.736,-127.99,-38.449,-103.05,333.5
-377.85,499.39,-476.81,637.66,-341.67,340.08,-179.57,180.41,-156.8,125.12,-65.863,28.736,-127.99,-38.449,-103.05,333.5
-379.39,502.07,-477.32,638.64,-342.97,341.32,-179.38,180.28,-156.13,125.82,-66.27,29.468,-128.49,-37.856,-102.83,333.31
-379.39,502.07,-477.32,638.64,-342.97,341.32,-179.38,180.28,-156.13,125.82,-66.27,29.468,-128.49,-37.856,-102.83,333.31
-380.92,504.72,-477.8,639.59,-344.25,342.53,-179.19,180.14,-155.46,126.51,-66.674,30.201,-128.99,-37.267,-102.61,333.11
-380.92,504.72,-477.8,639.59,-344.25,342.53,-179.19,180.14,-155.46,126.51,-66.674,30.201,-128.99,-37.267,-102.61,333.11
-382.42,507.33,-478.26,640.5,-345.52,343.7,-179,179.99,-154.77,127.2,-67.075,30.936,-129.49,-36.682,-102.38,332.9
-382.42,507.33,-478.26,640.5,-345.52,343.7,-179,179.99,-154.77,127.2,-67.075,30.936,-129.49,-36.682,-102.38,332.9
-383.89,509.91,-478.69,641.39,-346.78,344.85,-178.79,179.83,-154.09,127.89,-67.472,31.671,-129.98,-36.1,-102.14,332.68
-383.89,509.91,-478.69,641.39,-346.78,344.85,-178.79,179.83,-154.09,127.89,-67.472,31.671,-129.98,-36.1,-102.14,332.68
-385.34,512.46,-479.11,642.25,-348.01,345.96,-178.58,179.65,-153.4,128.57,-67.865,32.407,-130.46,-35.523,-101.9,332.45
-385.34,512.46,-479.11,642.25,-348.01,345.96,-178.58,179.65,-153.4,128.57,-67.865,32.407,-130.46,-35.523,-101.9,332.45
-386.76,514.97,-479.49,643.07,-349.24,347.05,-178.37,179.47,-152.71,129.24,-68.256,33.144,-130.95,-34.95,-101.66,332.21
-386.76,514.97,-479.49,643.07,-349.24,347.05,-178.37,179.47,-152.71,129.24,-68.256,33.144,-130.95,-34.95,-101.66,332.21
-388.16,517.45,-479.86,643.86,-350.44,348.1,-178.15,179.27,-152.01,129.9,-68.643,33.881,-131.42,-34.38,-101.42,331.96
-388.16,517.45,-479.86,643.86,-350.44,348.1,-178.15,179.27,-152.01,129.9,-68.643,33.881,-131.42,-34.38,-101.42,331.96
-389.54,519.9,-480.2,644.63,-351.63,349.13,-177.92,179.07,-151.31,130.56,-69.026,34.619,-131.89,-33.815,-101.17,331.7
-389.54,519.9,-480.2,644.63,-351.63,349.13,-177.92,179.07,-151.31,130.56,-69.026,34.619,-131.89,-33.815,-101.17,331.7
-389.54,519.9,-480.2,644.63,-351.63,349.13,-177.92,179.07,-151.31,130.56,-69.026,34.619,-131.89,-33.815,-101.17,331.7
-390.89,522.31,-480.52,645.36,-352.81,350.12,-177.69,178.85,-150.6,131.22,-69.406,35.358,-132.36,-33.253,-100.92,331.43
-392.21,524.69,-480.81,646.07,-353.97,351.09,-177.45,178.63,-149.89,131.87,-69.782,36.097,-132.82,-32.696,-100.66,331.15
-392.21,524.69,-480.81,646.07,-353.97,351.09,-177.45,178.63,-149.89,131.87,-69.782,36.097,-132.82,-32.696,-100.66,331.15
-393.51,527.03,-481.09,646.74,-355.11,352.02,-177.21,178.39,-149.18,132.51,-70.154,36.837,-133.28,-32.142,-100.4,330.86
-393.51,527.03,-481.09,646.74,-355.11,352.02,-177.21,178.39,-149.18,132.51,-70.154,36.837,-133.28,-32.142,-100.4,330.86
-394.79,529.34,-481.34,647.38,-356.24,352.93,-176.96,178.14,-148.46,133.15,-70.523,37.577,-133.73,-31.593,-100.14,330.56
-394.79,529.34,-481.34,647.38,-356.24,352.93,-176.96,178.14,-148.46,133.15,-70.523,37.577,-133.73,-31.593,-100.14,330.56
-396.04,531.62,-481.57,648,-357.35,353.81,-176.7,177.88,-147.74,133.78,-70.889,38.318,-134.18,-31.048,-99.868,330.25
-396.04,531.62,-481.57,648,-357.35,353.81,-176.7,177.88,-147.74,133.78,-70.889,38.318,-134.18,-31.048,-99.868,330.25
-397.27,533.87,-481.77,648.59,-358.45,354.65,-176.44,177.61,-147.02,134.4,-71.25,39.059,-134.62,-30.506,-99.597,329.93
-398.47,536.08,-481.96,649.15,-359.53,355.47,-176.17,177.33,-146.29,135.02,-71.608,39.8,-135.06,-29.969,-99.323,329.61
-398.47,536.08,-481.96,649.15,-359.53,355.47,-176.17,177.33,-146.29,135.02,-71.608,39.8,-135.06,-29.969,-99.323,329.61
-398.47,536.08,-481.96,649.15,-359.53,355.47,-176.17,177.33,-146.29,135.02,-71.608,39.8,-135.06,-29.969,-99.323,329.61
-399.65,538.26,-482.12,649.68,-360.6,356.26,-175.9,177.04,-145.56,135.63,-71.962,40.541,-135.49,-29.436,-99.045,329.27
-399.65,538.26,-482.12,649.68,-360.6,356.26,-175.9,177.04,-145.56,135.63,-71.962,40.541,-135.49,-29.436,-99.045,329.27
-399.65,538.26,-482.12,649.68,-360.6,356.26,-175.9,177.04,-145.56,135.63,-71.962,40.541,-135.49,-29.436,-99.045,329.27
-400.81,540.4,-482.26,650.18,-361.65,357.02,-175.62,176.74,-144.83,136.23,-72.312,41.283,-135.92,-28.907,-98.764,328.92
-401.94,542.51,-482.38,650.65,-362.68,357.75,-175.34,176.43,-144.09,136.83,-72.659,42.024,-136.34,-28.382,-98.479,328.57
-401.94,542.51,-482.38,650.65,-362.68,357.75,-175.34,176.43,-144.09,136.83,-72.659,42.024,-136.34,-28.382,-98.479,328.57
-403.05,544.59,-482.48,651.1,-363.7,358.45,-175.05,176.11,-143.35,137.43,-73.001,42.766,-136.76,-27.861,-98.191,328.2
-403.05,544.59,-482.48,651.1,-363.7,358.45,-175.05,176.11,-143.35,137.43,-73.001,42.766,-136.76,-27.861,-98.191,328.2
-404.14,546.64,-482.56,651.52,-364.71,359.12,-174.75,175.78,-142.6,138.01,-73.34,43.507,-137.17,-27.344,-97.899,327.83
-404.14,546.64,-482.56,651.52,-364.71,359.12,-174.75,175.78,-142.6,138.01,-73.34,43.507,-137.17,-27.344,-97.899,327.83
-405.2,548.65,-482.61,651.91,-365.7,359.77,-174.45,175.44,-141.85,138.59,-73.675,44.249,-137.58,-26.831,-97.604,327.45
-405.2,548.65,-482.61,651.91,-365.7,359.77,-174.45,175.44,-141.85,138.59,-73.675,44.249,-137.58,-26.831,-97.604,327.45
-406.23,550.63,-482.65,652.27,-366.68,360.38,-174.14,175.09,-141.1,139.17,-74.006,44.99,-137.98,-26.322,-97.306,327.05
-406.23,550.63,-482.65,652.27,-366.68,360.38,-174.14,175.09,-141.1,139.17,-74.006,44.99,-137.98,-26.322,-97.306,327.05
-407.25,552.58,-482.66,652.61,-367.64,360.97,-173.83,174.73,-140.35,139.74,-74.333,45.731,-138.38,-25.817,-97.004,326.65
-407.25,552.58,-482.66,652.61,-367.64,360.97,-173.83,174.73,-140.35,139.74,-74.333,45.731,-138.38,-25.817,-97.004,326.65
-408.24,554.5,-482.66,652.92,-368.58,361.53,-173.51,174.36,-139.59,140.3,-74.656,46.472,-138.77,-25.316,-96.699,326.24
-409.2,556.38,-482.64,653.21,-369.51,362.06,-173.19,173.98,-138.83,140.86,-74.974,47.213,-139.16,-24.82,-96.391,325.83
-409.2,556.38,-482.64,653.21,-369.51,362.06,-173.19,173.98,-138.83,140.86,-74.974,47.213,-139.16,-24.82,-96.391,325.83
-409.2,556.38,-482.64,653.21,-369.51,362.06,-173.19,173.98,-138.83,140.86,-74.974,47.213,-139.16,-24.82,-96.391,325.83
-410.15,558.23,-482.59,653.47,-370.43,362.57,-172.86,173.59,-138.06,141.41,-75.289,47.953,-139.54,-24.327,-96.079,325.4
-410.15,558.23,-482.59,653.47,-370.43,362.57,-172.86,173.59,-138.06,141.41,-75.289,47.953,-139.54,-24.327,-96.079,325.4
-411.07,560.05,-482.53,653.7,-371.33,363.04,-172.53,173.19,-137.3,141.95,-75.6,48.693,-139.92,-23.838,-95.764,324.96
-411.07,560.05,-482.53,653.7,-371.33,363.04,-172.53,173.19,-137.3,141.95,-75.6,48.693,-139.92,-23.838,-95.764,324.96
-411.07,560.05,-482.53,653.7,-371.33,363.04,-172.53,173.19,-137.3,141.95,-75.6,48.693,-139.92,-23.838,-95.764,324.96
-411.96,561.84,-482.44,653.91,-372.22,363.49,-172.19,172.78,-136.53,142.49,-75.907,49.432,-140.29,-23.354,-95.446,324.52
-412.84,563.59,-482.34,654.1,-373.09,363.91,-171.84,172.37,-135.75,143.02,-76.209,50.171,-140.66,-22.873,-95.125,324.07
-412.84,563.59,-482.34,654.1,-373.09,363.91,-171.84,172.37,-135.75,143.02,-76.209,50.171,-140.66,-22.873,-95.125,324.07
-413.69,565.31,-482.22,654.25,-373.94,364.31,-171.49,171.94,-134.98,143.54,-76.508,50.91,-141.02,-22.397,-94.801,323.61
-413.69,565.31,-482.22,654.25,-373.94,364.31,-171.49,171.94,-134.98,143.54,-76.508,50.91,-141.02,-22.397,-94.801,323.61
-414.52,567,-482.08,654.39,-374.79,364.67,-171.14,171.5,-134.2,144.06,-76.802,51.647,-141.38,-21.924,-94.474,323.14
-414.52,567,-482.08,654.39,-374.79,364.67,-171.14,171.5,-134.2,144.06,-76.802,51.647,-141.38,-21.924,-94.474,323.14
-415.32,568.66,-481.92,654.5,-375.61,365.01,-170.78,171.05,-133.42,144.58,-77.092,52.384,-141.73,-21.455,-94.143,322.66
-415.32,568.66,-481.92,654.5,-375.61,365.01,-170.78,171.05,-133.42,144.58,-77.092,52.384,-141.73,-21.455,-94.143,322.66
-416.1,570.29,-481.74,654.58,-376.43,365.33,-170.41,170.6,-132.63,145.08,-77.378,53.12,-142.08,-20.991,-93.81,322.18
-416.1,570.29,-481.74,654.58,-376.43,365.33,-170.41,170.6,-132.63,145.08,-77.378,53.12,-142.08,-20.991,-93.81,322.18
-416.1,570.29,-481.74,654.58,-376.43,365.33,-170.41,170.6,-132.63,145.08,-77.378,53.12,-142.08,-20.991,-93.81,322.18
-416.86,571.89,-481.54,654.64,-377.23,365.62,-170.04,170.13,-131.84,145.58,-77.659,53.856,-142.42,-20.53,-93.473,321.68
-416.86,571.89,-481.54,654.64,-377.23,365.62,-170.04,170.13,-131.84,145.58,-77.659,53.856,-142.42,-20.53,-93.473,321.68
-416.86,571.89,-481.54,654.64,-377.23,365.62,-170.04,170.13,-131.84,145.58,-77.659,53.856,-142.42,-20.53,-93.473,321.68
-418.32,574.98,-481.09,654.7,-378.78,366.11,-169.28,169.18,-130.26,146.56,-78.21,55.324,-143.09,-19.621,-92.791,320.68
-418.32,574.98,-481.09,654.7,-378.78,366.11,-169.28,169.18,-130.26,146.56,-78.21,55.324,-143.09,-19.621,-92.791,320.68
-419.01,576.48,-480.84,654.69,-379.54,366.32,-168.9,168.68,-129.47,147.05,-78.479,56.057,-143.41,-19.172,-92.446,320.16
-419.01,576.48,-480.84,654.69,-379.54,366.32,-168.9,168.68,-129.47,147.05,-78.479,56.057,-143.41,-19.172,-92.446,320.16
-419.01,576.48,-480.84,654.69,-379.54,366.32,-168.9,168.68,-129.47,147.05,-78.479,56.057,-143.41,-19.172,-92.446,320.16
-419.68,577.95,-480.57,654.65,-380.28,366.5,-168.51,168.18,-128.67,147.52,-78.743,56.789,-143.74,-18.727,-92.098,319.63
-419.68,577.95,-480.57,654.65,-380.28,366.5,-168.51,168.18,-128.67,147.52,-78.743,56.789,-143.74,-18.727,-92.098,319.63
-420.95,580.8,-479.98,654.52,-381.72,366.79,-167.71,167.15,-127.06,148.45,-79.259,58.25,-144.36,-17.849,-91.393,318.56
-420.95,580.8,-479.98,654.52,-381.72,366.79,-167.71,167.15,-127.06,148.45,-79.259,58.25,-144.36,-17.849,-91.393,318.56
-420.95,580.8,-479.98,654.52,-381.72,366.79,-167.71,167.15,-127.06,148.45,-79.259,58.25,-144.36,-17.849,-91.393,318.56
-421.56,582.18,-479.66,654.42,-382.42,366.9,-167.3,166.63,-126.26,148.91,-79.51,58.978,-144.67,-17.416,-91.036,318.02
-421.56,582.18,-479.66,654.42,-382.42,366.9,-167.3,166.63,-126.26,148.91,-79.51,58.978,-144.67,-17.416,-91.036,318.02
-422.14,583.53,-479.32,654.3,-383.1,366.98,-166.89,166.09,-125.45,149.36,-79.757,59.706,-144.97,-16.987,-90.676,317.46
-422.14,583.53,-479.32,654.3,-383.1,366.98,-166.89,166.09,-125.45,149.36,-79.757,59.706,-144.97,-16.987,-90.676,317.46
-422.14,583.53,-479.32,654.3,-383.1,366.98,-166.89,166.09,-125.45,149.36,-79.757,59.706,-144.97,-16.987,-90.676,317.46
-422.7,584.84,-478.97,654.16,-383.77,367.03,-166.47,165.55,-124.64,149.8,-80,60.432,-145.27,-16.561,-90.314,316.9
-422.7,584.84,-478.97,654.16,-383.77,367.03,-166.47,165.55,-124.64,149.8,-80,60.432,-145.27,-16.561,-90.314,316.9
-422.7,584.84,-478.97,654.16,-383.77,367.03,-166.47,165.55,-124.64,149.8,-80,60.432,-145.27,-16.561,-90.314,316.9
-423.76,587.38,-478.21,653.8,-385.07,367.07,-165.62,164.43,-123.01,150.67,-80.472,61.881,-145.84,-15.722,-89.581,315.75
-423.76,587.38,-478.21,653.8,-385.07,367.07,-165.62,164.43,-123.01,150.67,-80.472,61.881,-145.84,-15.722,-89.581,315.75
-423.76,587.38,-478.21,653.8,-385.07,367.07,-165.62,164.43,-123.01,150.67,-80.472,61.881,-145.84,-15.722,-89.581,315.75
-424.26,588.61,-477.8,653.6,-385.7,367.05,-165.19,163.87,-122.2,151.1,-80.701,62.603,-146.12,-15.307,-89.21,315.17
-424.26,588.61,-477.8,653.6,-385.7,367.05,-165.19,163.87,-122.2,151.1,-80.701,62.603,-146.12,-15.307,-89.21,315.17
-424.73,589.8,-477.38,653.37,-386.32,367,-164.75,163.29,-121.38,151.52,-80.926,63.324,-146.4,-14.897,-88.837,314.58
-424.73,589.8,-477.38,653.37,-386.32,367,-164.75,163.29,-121.38,151.52,-80.926,63.324,-146.4,-14.897,-88.837,314.58
-424.73,589.8,-477.38,653.37,-386.32,367,-164.75,163.29,-121.38,151.52,-80.926,63.324,-146.4,-14.897,-88.837,314.58
-425.62,592.1,-476.5,652.85,-387.51,366.84,-163.87,162.11,-119.73,152.34,-81.363,64.761,-146.93,-14.087,-88.083,313.38
-425.62,592.1,-476.5,652.85,-387.51,366.84,-163.87,162.11,-119.73,152.34,-81.363,64.761,-146.93,-14.087,-88.083,313.38
-426.03,593.21,-476.03,652.56,-388.08,366.73,-163.42,161.51,-118.91,152.74,-81.574,65.477,-147.19,-13.688,-87.702,312.77
-426.03,593.21,-476.03,652.56,-388.08,366.73,-163.42,161.51,-118.91,152.74,-81.574,65.477,-147.19,-13.688,-87.702,312.77
-426.42,594.29,-475.55,652.25,-388.64,366.59,-162.96,160.9,-118.08,153.13,-81.781,66.192,-147.45,-13.293,-87.319,312.15
-426.42,594.29,-475.55,652.25,-388.64,366.59,-162.96,160.9,-118.08,153.13,-81.781,66.192,-147.45,-13.293,-87.319,312.15
-426.79,595.33,-475.05,651.92,-389.19,366.43,-162.5,160.28,-117.25,153.52,-81.983,66.905,-147.69,-12.901,-86.933,311.53
-426.79,595.33,-475.05,651.92,-389.19,366.43,-162.5,160.28,-117.25,153.52,-81.983,66.905,-147.69,-12.901,-86.933,311.53
-427.14,596.35,-474.54,651.57,-389.72,366.24,-162.04,159.66,-116.42,153.9,-82.181,67.617,-147.94,-12.512,-86.544,310.9
-427.14,596.35,-474.54,651.57,-389.72,366.24,-162.04,159.66,-116.42,153.9,-82.181,67.617,-147.94,-12.512,-86.544,310.9
-427.47,597.34,-474.01,651.21,-390.24,366.03,-161.57,159.03,-115.59,154.28,-82.374,68.326,-148.18,-12.127,-86.153,310.26
-427.47,597.34,-474.01,651.21,-390.24,366.03,-161.57,159.03,-115.59,154.28,-82.374,68.326,-148.18,-12.127,-86.153,310.26
-427.78,598.3,-473.47,650.82,-390.75,365.8,-161.09,158.39,-114.75,154.65,-82.563,69.034,-148.41,-11.746,-85.76,309.62
-427.78,598.3,-473.47,650.82,-390.75,365.8,-161.09,158.39,-114.75,154.65,-82.563,69.034,-148.41,-11.746,-85.76,309.62
-428.06,599.23,-472.91,650.42,-391.24,365.54,-160.61,157.74,-113.92,155.01,-82.747,69.74,-148.64,-11.369,-85.364,308.97
-428.06,599.23,-472.91,650.42,-391.24,365.54,-160.61,157.74,-113.92,155.01,-82.747,69.74,-148.64,-11.369,-85.364,308.97
-428.33,600.13,-472.34,649.99,-391.72,365.26,-160.13,157.08,-113.08,155.37,-82.926,70.444,-148.86,-10.994,-84.966,308.31
-428.33,600.13,-472.34,649.99,-391.72,365.26,-160.13,157.08,-113.08,155.37,-82.926,70.444,-148.86,-10.994,-84.966,308.31
-428.58,601,-471.76,649.55,-392.19,364.96,-159.64,156.42,-112.24,155.72,-83.101,71.147,-149.08,-10.624,-84.565,307.65
-428.58,601,-471.76,649.55,-392.19,364.96,-159.64,156.42,-112.24,155.72,-83.101,71.147,-149.08,-10.624,-84.565,307.65
-428.81,601.84,-471.16,649.09,-392.64,364.64,-159.15,155.75,-111.4,156.06,-83.272,71.847,-149.3,-10.256,-84.162,306.98
-429.01,602.66,-470.55,648.61,-393.08,364.29,-158.65,155.08,-110.55,156.4,-83.437,72.545,-149.5,-9.8924,-83.757,306.31
-429.01,602.66,-470.55,648.61,-393.08,364.29,-158.65,155.08,-110.55,156.4,-83.437,72.545,-149.5,-9.8924,-83.757,306.31
-429.2,603.45,-469.93,648.12,-393.51,363.92,-158.15,154.39,-109.71,156.74,-83.599,73.242,-149.71,-9.5319,-83.35,305.63
-429.2,603.45,-469.93,648.12,-393.51,363.92,-158.15,154.39,-109.71,156.74,-83.599,73.242,-149.71,-9.5319,-83.35,305.63
-429.2,603.45,-469.93,648.12,-393.51,363.92,-158.15,154.39,-109.71,156.74,-83.599,73.242,-149.71,-9.5319,-83.35,305.63
-429.37,604.21,-469.29,647.61,-393.92,363.53,-157.64,153.7,-108.86,157.06,-83.755,73.936,-149.9,-9.1747,-82.94,304.94
-429.37,604.21,-469.29,647.61,-393.92,363.53,-157.64,153.7,-108.86,157.06,-83.755,73.936,-149.9,-9.1747,-82.94,304.94
-429.37,604.21,-469.29,647.61,-393.92,363.53,-157.64,153.7,-108.86,157.06,-83.755,73.936,-149.9,-9.1747,-82.94,304.94
-429.52,604.94,-468.64,647.08,-394.33,363.12,-157.13,153.01,-108.02,157.38,-83.907,74.628,-150.1,-8.8208,-82.528,304.25
-429.65,605.64,-467.97,646.53,-394.71,362.69,-156.62,152.3,-107.17,157.7,-84.054,75.318,-150.29,-8.4703,-82.114,303.55
-429.76,606.32,-467.29,645.97,-395.09,362.24,-156.1,151.59,-106.32,158.01,-84.197,76.006,-150.47,-8.1229,-81.698,302.85
-429.76,606.32,-467.29,645.97,-395.09,362.24,-156.1,151.59,-106.32,158.01,-84.197,76.006,-150.47,-8.1229,-81.698,302.85
-429.76,606.32,-467.29,645.97,-395.09,362.24,-156.1,151.59,-106.32,158.01,-84.197,76.006,-150.47,-8.1229,-81.698,302.85
-429.85,606.97,-466.6,645.39,-395.45,361.76,-155.58,150.87,-105.47,158.31,-84.335,76.691,-150.65,-7.7788,-81.279,302.14
-429.85,606.97,-466.6,645.39,-395.45,361.76,-155.58,150.87,-105.47,158.31,-84.335,76.691,-150.65,-7.7788,-81.279,302.14
-429.92,607.59,-465.9,644.79,-395.8,361.27,-155.05,150.15,-104.61,158.61,-84.468,77.375,-150.82,-7.4379,-80.859,301.43
-429.92,607.59,-465.9,644.79,-395.8,361.27,-155.05,150.15,-104.61,158.61,-84.468,77.375,-150.82,-7.4379,-80.859,301.43
-429.92,607.59,-465.9,644.79,-395.8,361.27,-155.05,150.15,-104.61,158.61,-84.468,77.375,-150.82,-7.4379,-80.859,301.43
-429.98,608.18,-465.19,644.18,-396.14,360.75,-154.52,149.42,-103.76,158.9,-84.596,78.055,-150.98,-7.1001,-80.436,300.71
-430.01,608.75,-464.46,643.56,-396.46,360.22,-153.98,148.69,-102.9,159.18,-84.72,78.734,-151.15,-6.7654,-80.011,299.99
-430.01,608.75,-464.46,643.56,-396.46,360.22,-153.98,148.69,-102.9,159.18,-84.72,78.734,-151.15,-6.7654,-80.011,299.99
-430.03,609.29,-463.72,642.92,-396.78,359.66,-153.44,147.94,-102.05,159.46,-84.84,79.41,-151.3,-6.4338,-79.585,299.26
-430.03,609.29,-463.72,642.92,-396.78,359.66,-153.44,147.94,-102.05,159.46,-84.84,79.41,-151.3,-6.4338,-79.585,299.26
-430.02,609.8,-462.97,642.26,-397.08,359.08,-152.9,147.19,-101.19,159.74,-84.954,80.084,-151.46,-6.1052,-79.156,298.52
-430.02,609.8,-462.97,642.26,-397.08,359.08,-152.9,147.19,-101.19,159.74,-84.954,80.084,-151.46,-6.1052,-79.156,298.52
-430,610.29,-462.21,641.59,-397.36,358.48,-152.35,146.44,-100.33,160,-85.064,80.755,-151.6,-5.7796,-78.725,297.78
-430,610.29,-462.21,641.59,-397.36,358.48,-152.35,146.44,-100.33,160,-85.064,80.755,-151.6,-5.7796,-78.725,297.78
-429.96,610.75,-461.44,640.9,-397.64,357.87,-151.8,145.68,-99.473,160.26,-85.17,81.424,-151.75,-5.457,-78.293,297.04
-429.96,610.75,-461.44,640.9,-397.64,357.87,-151.8,145.68,-99.473,160.26,-85.17,81.424,-151.75,-5.457,-78.293,297.04
-429.96,610.75,-461.44,640.9,-397.64,357.87,-151.8,145.68,-99.473,160.26,-85.17,81.424,-151.75,-5.457,-78.293,297.04
-429.9,611.18,-460.65,640.2,-397.9,357.23,-151.24,144.91,-98.613,160.52,-85.27,82.09,-151.88,-5.1373,-77.858,296.29
-429.9,611.18,-460.65,640.2,-397.9,357.23,-151.24,144.91,-98.613,160.52,-85.27,82.09,-151.88,-5.1373,-77.858,296.29
-429.9,611.18,-460.65,640.2,-397.9,357.23,-151.24,144.91,-98.613,160.52,-85.27,82.09,-151.88,-5.1373,-77.858,296.29
-429.73,611.97,-459.05,638.75,-398.39,355.9,-150.12,143.36,-96.889,161.01,-85.457,83.415,-152.14,-4.5065,-76.983,294.78
-429.73,611.97,-459.05,638.75,-398.39,355.9,-150.12,143.36,-96.889,161.01,-85.457,83.415,-152.14,-4.5065,-76.983,294.78
-429.62,612.32,-458.24,638.01,-398.61,355.21,-149.55,142.58,-96.026,161.25,-85.544,84.074,-152.26,-4.1953,-76.543,294.02
-429.62,612.32,-458.24,638.01,-398.61,355.21,-149.55,142.58,-96.026,161.25,-85.544,84.074,-152.26,-4.1953,-76.543,294.02
-429.62,612.32,-458.24,638.01,-398.61,355.21,-149.55,142.58,-96.026,161.25,-85.544,84.074,-152.26,-4.1953,-76.543,294.02
-429.49,612.65,-457.41,637.25,-398.82,354.49,-148.98,141.79,-95.162,161.48,-85.626,84.729,-152.38,-3.8869,-76.101,293.25
-429.35,612.96,-456.57,636.48,-399.02,353.76,-148.41,140.99,-94.298,161.71,-85.703,85.382,-152.49,-3.5812,-75.657,292.48
-429.35,612.96,-456.57,636.48,-399.02,353.76,-148.41,140.99,-94.298,161.71,-85.703,85.382,-152.49,-3.5812,-75.657,292.48
-429.18,613.24,-455.72,635.69,-399.21,353.01,-147.83,140.19,-93.432,161.93,-85.776,86.033,-152.6,-3.2782,-75.212,291.7
-429.18,613.24,-455.72,635.69,-399.21,353.01,-147.83,140.19,-93.432,161.93,-85.776,86.033,-152.6,-3.2782,-75.212,291.7
-429,613.49,-454.87,634.9,-399.39,352.25,-147.24,139.39,-92.566,162.14,-85.844,86.68,-152.7,-2.9778,-74.765,290.92
-429,613.49,-454.87,634.9,-399.39,352.25,-147.24,139.39,-92.566,162.14,-85.844,86.68,-152.7,-2.9778,-74.765,290.92
-428.8,613.72,-454,634.09,-399.55,351.46,-146.66,138.58,-91.7,162.35,-85.907,87.325,-152.8,-2.68,-74.316,290.13
-428.8,613.72,-454,634.09,-399.55,351.46,-146.66,138.58,-91.7,162.35,-85.907,87.325,-152.8,-2.68,-74.316,290.13
-428.8,613.72,-454,634.09,-399.55,351.46,-146.66,138.58,-91.7,162.35,-85.907,87.325,-152.8,-2.68,-74.316,290.13
-428.58,613.92,-453.12,633.26,-399.71,350.66,-146.07,137.76,-90.833,162.56,-85.965,87.967,-152.89,-2.3848,-73.865,289.34
-428.35,614.1,-452.23,632.43,-399.85,349.83,-145.47,136.94,-89.965,162.76,-86.019,88.606,-152.98,-2.0921,-73.412,288.55
-428.35,614.1,-452.23,632.43,-399.85,349.83,-145.47,136.94,-89.965,162.76,-86.019,88.606,-152.98,-2.0921,-73.412,288.55
-428.1,614.25,-451.34,631.58,-399.98,349,-144.87,136.12,-89.097,162.95,-86.069,89.242,-153.06,-1.8018,-72.958,287.75
-428.1,614.25,-451.34,631.58,-399.98,349,-144.87,136.12,-89.097,162.95,-86.069,89.242,-153.06,-1.8018,-72.958,287.75
-427.84,614.38,-450.43,630.72,-400.09,348.14,-144.27,135.29,-88.228,163.14,-86.113,89.875,-153.14,-1.514,-72.503,286.95
-427.84,614.38,-450.43,630.72,-400.09,348.14,-144.27,135.29,-88.228,163.14,-86.113,89.875,-153.14,-1.514,-72.503,286.95
-427.55,614.49,-449.52,629.85,-400.2,347.27,-143.67,134.45,-87.359,163.32,-86.153,90.505,-153.21,-1.2286,-72.045,286.15
-427.55,614.49,-449.52,629.85,-400.2,347.27,-143.67,134.45,-87.359,163.32,-86.153,90.505,-153.21,-1.2286,-72.045,286.15
-427.25,614.57,-448.6,628.97,-400.29,346.38,-143.06,133.61,-86.49,163.49,-86.189,91.132,-153.28,-0.94543,-71.586,285.34
-427.25,614.57,-448.6,628.97,-400.29,346.38,-143.06,133.61,-86.49,163.49,-86.189,91.132,-153.28,-0.94543,-71.586,285.34
-426.94,614.63,-447.66,628.07,-400.38,345.47,-142.44,132.77,-85.62,163.66,-86.219,91.756,-153.34,-0.66459,-71.126,284.53
-426.6,614.66,-446.72,627.17,-400.45,344.55,-141.83,131.92,-84.75,163.83,-86.245,92.377,-153.4,-0.386,-70.664,283.71
-426.6,614.66,-446.72,627.17,-400.45,344.55,-141.83,131.92,-84.75,163.83,-86.245,92.377,-153.4,-0.386,-70.664,283.71
-426.6,614.66,-446.72,627.17,-400.45,344.55,-141.83,131.92,-84.75,163.83,-86.245,92.377,-153.4,-0.386,-70.664,283.71
-426.26,614.67,-445.78,626.25,-400.51,343.61,-141.21,131.07,-83.88,163.99,-86.267,92.995,-153.45,-0.1096,-70.2,282.89
-426.26,614.67,-445.78,626.25,-400.51,343.61,-141.21,131.07,-83.88,163.99,-86.267,92.995,-153.45,-0.1096,-70.2,282.89
-425.89,614.66,-444.82,625.33,-400.55,342.65,-140.59,130.21,-83.009,164.14,-86.284,93.61,-153.5,0.16465,-69.735,282.07
-425.89,614.66,-444.82,625.33,-400.55,342.65,-140.59,130.21,-83.009,164.14,-86.284,93.61,-153.5,0.16465,-69.735,282.07
-425.51,614.62,-443.86,624.39,-400.59,341.68,-139.96,129.35,-82.138,164.29,-86.296,94.221,-153.54,0.4368,-69.269,281.24
-425.51,614.62,-443.86,624.39,-400.59,341.68,-139.96,129.35,-82.138,164.29,-86.296,94.221,-153.54,0.4368,-69.269,281.24
-425.12,614.56,-442.88,623.44,-400.62,340.69,-139.33,128.48,-81.268,164.43,-86.304,94.83,-153.58,0.70689,-68.801,280.41
-425.12,614.56,-442.88,623.44,-400.62,340.69,-139.33,128.48,-81.268,164.43,-86.304,94.83,-153.58,0.70689,-68.801,280.41
-425.12,614.56,-442.88,623.44,-400.62,340.69,-139.33,128.48,-81.268,164.43,-86.304,94.83,-153.58,0.70689,-68.801,280.41
-424.71,614.48,-441.9,622.49,-400.63,339.69,-138.7,127.61,-80.397,164.57,-86.307,95.435,-153.62,0.97498,-68.332,279.58
-424.71,614.48,-441.9,622.49,-400.63,339.69,-138.7,127.61,-80.397,164.57,-86.307,95.435,-153.62,0.97498,-68.332,279.58
-424.71,614.48,-441.9,622.49,-400.63,339.69,-138.7,127.61,-80.397,164.57,-86.307,95.435,-153.62,0.97498,-68.332,279.58
-423.84,614.25,-439.92,620.54,-400.62,337.64,-137.42,125.86,-78.655,164.83,-86.299,96.635,-153.67,1.5053,-67.389,277.91
-423.84,614.25,-439.92,620.54,-400.62,337.64,-137.42,125.86,-78.655,164.83,-86.299,96.635,-153.67,1.5053,-67.389,277.91
-423.84,614.25,-439.92,620.54,-400.62,337.64,-137.42,125.86,-78.655,164.83,-86.299,96.635,-153.67,1.5053,-67.389,277.91
-423.38,614.1,-438.92,619.56,-400.6,336.59,-136.78,124.98,-77.784,164.95,-86.288,97.231,-153.69,1.7677,-66.916,277.06
-422.91,613.93,-437.91,618.56,-400.57,335.53,-136.13,124.1,-76.913,165.07,-86.273,97.823,-153.71,2.0282,-66.441,276.22
-422.42,613.73,-436.89,617.56,-400.53,334.45,-135.48,123.21,-76.043,165.18,-86.253,98.412,-153.72,2.287,-65.965,275.37
-422.42,613.73,-436.89,617.56,-400.53,334.45,-135.48,123.21,-76.043,165.18,-86.253,98.412,-153.72,2.287,-65.965,275.37
-422.42,613.73,-436.89,617.56,-400.53,334.45,-135.48,123.21,-76.043,165.18,-86.253,98.412,-153.72,2.287,-65.965,275.37
-421.92,613.51,-435.87,616.54,-400.48,333.36,-134.83,122.32,-75.172,165.29,-86.229,98.997,-153.72,2.544,-65.488,274.52
-421.92,613.51,-435.87,616.54,-400.48,333.36,-134.83,122.32,-75.172,165.29,-86.229,98.997,-153.72,2.544,-65.488,274.52
-421.4,613.28,-434.84,615.52,-400.41,332.26,-134.18,121.42,-74.302,165.39,-86.2,99.579,-153.72,2.7994,-65.009,273.67
-421.4,613.28,-434.84,615.52,-400.41,332.26,-134.18,121.42,-74.302,165.39,-86.2,99.579,-153.72,2.7994,-65.009,273.67
-420.87,613.02,-433.81,614.49,-400.34,331.14,-133.52,120.52,-73.432,165.48,-86.167,100.16,-153.72,3.0532,-64.529,272.81
-420.87,613.02,-433.81,614.49,-400.34,331.14,-133.52,120.52,-73.432,165.48,-86.167,100.16,-153.72,3.0532,-64.529,272.81
-420.33,612.73,-432.76,613.45,-400.25,330,-132.86,119.62,-72.562,165.57,-86.129,100.73,-153.71,3.3054,-64.048,271.96
-419.77,612.43,-431.72,612.4,-400.15,328.86,-132.19,118.72,-71.693,165.66,-86.087,101.3,-153.7,3.5561,-63.566,271.09
-419.77,612.43,-431.72,612.4,-400.15,328.86,-132.19,118.72,-71.693,165.66,-86.087,101.3,-153.7,3.5561,-63.566,271.09
-419.77,612.43,-431.72,612.4,-400.15,328.86,-132.19,118.72,-71.693,165.66,-86.087,101.3,-153.7,3.5561,-63.566,271.09
-419.2,612.11,-430.66,611.35,-400.05,327.7,-131.52,117.81,-70.823,165.74,-86.04,101.87,-153.68,3.8053,-63.083,270.23
-419.2,612.11,-430.66,611.35,-400.05,327.7,-131.52,117.81,-70.823,165.74,-86.04,101.87,-153.68,3.8053,-63.083,270.23
-418.61,611.76,-429.6,610.28,-399.93,326.52,-130.85,116.9,-69.955,165.82,-85.989,102.44,-153.66,4.0531,-62.598,269.37
-418.61,611.76,-429.6,610.28,-399.93,326.52,-130.85,116.9,-69.955,165.82,-85.989,102.44,-153.66,4.0531,-62.598,269.37
-418.61,611.76,-429.6,610.28,-399.93,326.52,-130.85,116.9,-69.955,165.82,-85.989,102.44,-153.66,4.0531,-62.598,269.37
-417.39,611.01,-427.47,608.14,-399.66,324.14,-129.5,115.07,-68.219,165.96,-85.873,103.56,-153.61,4.5446,-61.626,267.63
-417.39,611.01,-427.47,608.14,-399.66,324.14,-129.5,115.07,-68.219,165.96,-85.873,103.56,-153.61,4.5446,-61.626,267.63
-416.77,610.61,-426.39,607.05,-399.51,322.93,-128.82,114.15,-67.351,166.02,-85.808,104.11,-153.57,4.7885,-61.138,266.76
-416.77,610.61,-426.39,607.05,-399.51,322.93,-128.82,114.15,-67.351,166.02,-85.808,104.11,-153.57,4.7885,-61.138,266.76
-416.12,610.18,-425.31,605.96,-399.35,321.7,-128.14,113.23,-66.485,166.07,-85.739,104.66,-153.53,5.0312,-60.649,265.88
-416.12,610.18,-425.31,605.96,-399.35,321.7,-128.14,113.23,-66.485,166.07,-85.739,104.66,-153.53,5.0312,-60.649,265.88
-416.12,610.18,-425.31,605.96,-399.35,321.7,-128.14,113.23,-66.485,166.07,-85.739,104.66,-153.53,5.0312,-60.649,265.88
-415.47,609.73,-424.22,604.86,-399.18,320.47,-127.46,112.31,-65.619,166.13,-85.666,105.21,-153.49,5.2727,-60.159,265.01
-415.47,609.73,-424.22,604.86,-399.18,320.47,-127.46,112.31,-65.619,166.13,-85.666,105.21,-153.49,5.2727,-60.159,265.01
-415.47,609.73,-424.22,604.86,-399.18,320.47,-127.46,112.31,-65.619,166.13,-85.666,105.21,-153.49,5.2727,-60.159,265.01
-414.8,609.27,-423.13,603.75,-399,319.22,-126.77,111.39,-64.753,166.17,-85.588,105.75,-153.44,5.513,-59.668,264.13
-414.12,608.78,-422.03,602.64,-398.81,317.96,-126.08,110.46,-63.888,166.22,-85.506,106.29,-153.39,5.7524,-59.176,263.25
-413.42,608.28,-420.93,601.52,-398.61,316.69,-125.39,109.53,-63.024,166.25,-85.419,106.82,-153.33,5.9907,-58.683,262.37
-413.42,608.28,-420.93,601.52,-398.61,316.69,-125.39,109.53,-63.024,166.25,-85.419,106.82,-153.33,5.9907,-58.683,262.37
-413.42,608.28,-420.93,601.52,-398.61,316.69,-125.39,109.53,-63.024,166.25,-85.419,106.82,-153.33,5.9907,-58.683,262.37
-412.72,607.75,-419.83,600.4,-398.4,315.4,-124.69,108.6,-62.161,166.29,-85.328,107.36,-153.27,6.2281,-58.19,261.49
-412.72,607.75,-419.83,600.4,-398.4,315.4,-124.69,108.6,-62.161,166.29,-85.328,107.36,-153.27,6.2281,-58.19,261.49
-412,607.21,-418.72,599.27,-398.17,314.11,-123.99,107.66,-61.298,166.31,-85.233,107.88,-153.2,6.4645,-57.695,260.6
-412,607.21,-418.72,599.27,-398.17,314.11,-123.99,107.66,-61.298,166.31,-85.233,107.88,-153.2,6.4645,-57.695,260.6
-412,607.21,-418.72,599.27,-398.17,314.11,-123.99,107.66,-61.298,166.31,-85.233,107.88,-153.2,6.4645,-57.695,260.6
-411.27,606.65,-417.6,598.13,-397.94,312.8,-123.29,106.73,-60.437,166.34,-85.134,108.41,-153.13,6.7002,-57.199,259.72
-411.27,606.65,-417.6,598.13,-397.94,312.8,-123.29,106.73,-60.437,166.34,-85.134,108.41,-153.13,6.7002,-57.199,259.72
-410.52,606.07,-416.48,596.99,-397.7,311.49,-122.59,105.79,-59.576,166.36,-85.03,108.93,-153.06,6.935,-56.702,258.83
-410.52,606.07,-416.48,596.99,-397.7,311.49,-122.59,105.79,-59.576,166.36,-85.03,108.93,-153.06,6.935,-56.702,258.83
-410.52,606.07,-416.48,596.99,-397.7,311.49,-122.59,105.79,-59.576,166.36,-85.03,108.93,-153.06,6.935,-56.702,258.83
-408.99,604.85,-414.24,594.69,-397.18,308.82,-121.17,103.91,-57.857,166.38,-84.81,109.96,-152.9,7.4025,-55.706,257.05
-408.99,604.85,-414.24,594.69,-397.18,308.82,-121.17,103.91,-57.857,166.38,-84.81,109.96,-152.9,7.4025,-55.706,257.05
-408.21,604.21,-413.11,593.54,-396.91,307.48,-120.46,102.97,-56.999,166.39,-84.693,110.47,-152.81,7.6353,-55.207,256.16
-408.21,604.21,-413.11,593.54,-396.91,307.48,-120.46,102.97,-56.999,166.39,-84.693,110.47,-152.81,7.6353,-55.207,256.16
-408.21,604.21,-413.11,593.54,-396.91,307.48,-120.46,102.97,-56.999,166.39,-84.693,110.47,-152.81,7.6353,-55.207,256.16
-407.42,603.56,-411.97,592.38,-396.63,306.12,-119.75,102.02,-56.142,166.39,-84.573,110.97,-152.72,7.8675,-54.707,255.27
-406.62,602.88,-410.84,591.21,-396.34,304.75,-119.03,101.08,-55.286,166.39,-84.448,111.47,-152.63,8.0991,-54.206,254.37
-406.62,602.88,-410.84,591.21,-396.34,304.75,-119.03,101.08,-55.286,166.39,-84.448,111.47,-152.63,8.0991,-54.206,254.37
-405.8,602.19,-409.7,590.04,-396.04,303.38,-118.31,100.13,-54.431,166.38,-84.319,111.97,-152.53,8.3303,-53.704,253.48
-405.8,602.19,-409.7,590.04,-396.04,303.38,-118.31,100.13,-54.431,166.38,-84.319,111.97,-152.53,8.3303,-53.704,253.48
-404.97,601.49,-408.55,588.86,-395.73,301.99,-117.59,99.185,-53.577,166.37,-84.186,112.47,-152.43,8.5611,-53.202,252.58
-404.97,601.49,-408.55,588.86,-395.73,301.99,-117.59,99.185,-53.577,166.37,-84.186,112.47,-152.43,8.5611,-53.202,252.58
-404.97,601.49,-408.55,588.86,-395.73,301.99,-117.59,99.185,-53.577,166.37,-84.186,112.47,-152.43,8.5611,-53.202,252.58
-404.13,600.76,-407.41,587.68,-395.41,300.59,-116.87,98.237,-52.724,166.35,-84.048,112.96,-152.32,8.7915,-52.699,251.68
-404.13,600.76,-407.41,587.68,-395.41,300.59,-116.87,98.237,-52.724,166.35,-84.048,112.96,-152.32,8.7915,-52.699,251.68
-403.28,600.02,-406.26,586.5,-395.07,299.19,-116.14,97.287,-51.873,166.33,-83.907,113.44,-152.21,9.0216,-52.195,250.79
-403.28,600.02,-406.26,586.5,-395.07,299.19,-116.14,97.287,-51.873,166.33,-83.907,113.44,-152.21,9.0216,-52.195,250.79
-402.42,599.26,-405.11,585.31,-394.73,297.78,-115.41,96.337,-51.023,166.31,-83.761,113.92,-152.09,9.2514,-51.69,249.89
-402.42,599.26,-405.11,585.31,-394.73,297.78,-115.41,96.337,-51.023,166.31,-83.761,113.92,-152.09,9.2514,-51.69,249.89
-401.55,598.48,-403.96,584.12,-394.39,296.35,-114.68,95.386,-50.174,166.28,-83.612,114.4,-151.97,9.481,-51.185,248.99
-401.55,598.48,-403.96,584.12,-394.39,296.35,-114.68,95.386,-50.174,166.28,-83.612,114.4,-151.97,9.481,-51.185,248.99
-401.55,598.48,-403.96,584.12,-394.39,296.35,-114.68,95.386,-50.174,166.28,-83.612,114.4,-151.97,9.481,-51.185,248.99
-399.77,596.88,-401.64,581.73,-393.66,293.48,-113.22,93.483,-48.48,166.21,-83.3,115.34,-151.72,9.9398,-50.172,247.19
-399.77,596.88,-401.64,581.73,-393.66,293.48,-113.22,93.483,-48.48,166.21,-83.3,115.34,-151.72,9.9398,-50.172,247.19
-398.87,596.05,-400.48,580.52,-393.28,292.04,-112.48,92.53,-47.635,166.17,-83.139,115.81,-151.59,10.169,-49.665,246.29
-398.87,596.05,-400.48,580.52,-393.28,292.04,-112.48,92.53,-47.635,166.17,-83.139,115.81,-151.59,10.169,-49.665,246.29
-398.87,596.05,-400.48,580.52,-393.28,292.04,-112.48,92.53,-47.635,166.17,-83.139,115.81,-151.59,10.169,-49.665,246.29
-397.95,595.21,-399.32,579.32,-392.89,290.58,-111.74,91.577,-46.792,166.13,-82.973,116.27,-151.46,10.398,-49.157,245.39
-397.95,595.21,-399.32,579.32,-392.89,290.58,-111.74,91.577,-46.792,166.13,-82.973,116.27,-151.46,10.398,-49.157,245.39
-397.95,595.21,-399.32,579.32,-392.89,290.58,-111.74,91.577,-46.792,166.13,-82.973,116.27,-151.46,10.398,-49.157,245.39
-396.09,593.48,-396.99,576.9,-392.09,287.65,-110.26,89.67,-45.11,166.03,-82.63,117.18,-151.18,10.857,-48.14,243.58
-396.09,593.48,-396.99,576.9,-392.09,287.65,-110.26,89.67,-45.11,166.03,-82.63,117.18,-151.18,10.857,-48.14,243.58
-395.15,592.59,-395.82,575.69,-391.68,286.17,-109.51,88.716,-44.271,165.97,-82.452,117.63,-151.03,11.087,-47.63,242.68
-395.15,592.59,-395.82,575.69,-391.68,286.17,-109.51,88.716,-44.271,165.97,-82.452,117.63,-151.03,11.087,-47.63,242.68
-395.15,592.59,-395.82,575.69,-391.68,286.17,-109.51,88.716,-44.271,165.97,-82.452,117.63,-151.03,11.087,-47.63,242.68
-394.19,591.69,-394.65,574.47,-391.25,284.69,-108.77,87.762,-43.433,165.91,-82.271,118.08,-150.88,11.317,-47.12,241.78
-393.23,590.77,-393.48,573.25,-390.82,283.19,-108.02,86.808,-42.598,165.85,-82.086,118.52,-150.73,11.547,-46.609,240.87
-392.25,589.83,-392.3,572.03,-390.38,281.69,-107.27,85.855,-41.764,165.78,-81.896,118.96,-150.58,11.777,-46.098,239.97
-392.25,589.83,-392.3,572.03,-390.38,281.69,-107.27,85.855,-41.764,165.78,-81.896,118.96,-150.58,11.777,-46.098,239.97
-392.25,589.83,-392.3,572.03,-390.38,281.69,-107.27,85.855,-41.764,165.78,-81.896,118.96,-150.58,11.777,-46.098,239.97
-391.27,588.88,-391.13,570.81,-389.93,280.19,-106.51,84.901,-40.931,165.71,-81.703,119.39,-150.42,12.008,-45.586,239.07
-391.27,588.88,-391.13,570.81,-389.93,280.19,-106.51,84.901,-40.931,165.71,-81.703,119.39,-150.42,12.008,-45.586,239.07
-391.27,588.88,-391.13,570.81,-389.93,280.19,-106.51,84.901,-40.931,165.71,-81.703,119.39,-150.42,12.008,-45.586,239.07
-390.27,587.92,-389.95,569.59,-389.47,278.68,-105.76,83.948,-40.1,165.64,-81.507,119.82,-150.25,12.239,-45.074,238.16
-390.27,587.92,-389.95,569.59,-389.47,278.68,-105.76,83.948,-40.1,165.64,-81.507,119.82,-150.25,12.239,-45.074,238.16
-390.27,587.92,-389.95,569.59,-389.47,278.68,-105.76,83.948,-40.1,165.64,-81.507,119.82,-150.25,12.239,-45.074,238.16
-388.26,585.95,-387.6,567.13,-388.52,275.63,-104.24,82.043,-38.444,165.48,-81.102,120.67,-149.91,12.703,-44.048,236.36
-387.24,584.94,-386.42,565.91,-388.04,274.1,-103.48,81.091,-37.619,165.39,-80.894,121.08,-149.74,12.936,-43.535,235.46
-387.24,584.94,-386.42,565.91,-388.04,274.1,-103.48,81.091,-37.619,165.39,-80.894,121.08,-149.74,12.936,-43.535,235.46
-386.21,583.92,-385.25,564.68,-387.54,272.57,-102.72,80.14,-36.795,165.31,-80.682,121.5,-149.56,13.17,-43.021,234.55
-386.21,583.92,-385.25,564.68,-387.54,272.57,-102.72,80.14,-36.795,165.31,-80.682,121.5,-149.56,13.17,-43.021,234.55
-386.21,583.92,-385.25,564.68,-387.54,272.57,-102.72,80.14,-36.795,165.31,-80.682,121.5,-149.56,13.17,-43.021,234.55
-385.17,582.88,-384.07,563.44,-387.04,271.03,-101.96,79.189,-35.974,165.21,-80.466,121.91,-149.38,13.404,-42.507,233.65
-385.17,582.88,-384.07,563.44,-387.04,271.03,-101.96,79.189,-35.974,165.21,-80.466,121.91,-149.38,13.404,-42.507,233.65
-385.17,582.88,-384.07,563.44,-387.04,271.03,-101.96,79.189,-35.974,165.21,-80.466,121.91,-149.38,13.404,-42.507,233.65
-384.12,581.84,-382.89,562.21,-386.53,269.48,-101.19,78.24,-35.154,165.12,-80.247,122.31,-149.19,13.639,-41.992,232.75
-383.07,580.77,-381.71,560.98,-386.01,267.93,-100.42,77.291,-34.336,165.02,-80.025,122.71,-149.01,13.874,-41.477,231.85
-383.07,580.77,-381.71,560.98,-386.01,267.93,-100.42,77.291,-34.336,165.02,-80.025,122.71,-149.01,13.874,-41.477,231.85
-382,579.7,-380.53,559.74,-385.48,266.37,-99.656,76.343,-33.52,164.92,-79.798,123.11,-148.82,14.111,-40.961,230.95
-382,579.7,-380.53,559.74,-385.48,266.37,-99.656,76.343,-33.52,164.92,-79.798,123.11,-148.82,14.111,-40.961,230.95
-380.93,578.61,-379.35,558.51,-384.94,264.81,-98.885,75.397,-32.706,164.81,-79.568,123.5,-148.62,14.348,-40.446,230.05
-380.93,578.61,-379.35,558.51,-384.94,264.81,-98.885,75.397,-32.706,164.81,-79.568,123.5,-148.62,14.348,-40.446,230.05
-379.85,577.51,-378.17,557.27,-384.39,263.24,-98.113,74.451,-31.895,164.7,-79.335,123.89,-148.42,14.586,-39.93,229.15
-379.85,577.51,-378.17,557.27,-384.39,263.24,-98.113,74.451,-31.895,164.7,-79.335,123.89,-148.42,14.586,-39.93,229.15
-378.76,576.39,-376.99,556.04,-383.84,261.67,-97.34,73.507,-31.085,164.59,-79.098,124.27,-148.22,14.826,-39.413,228.25
-378.76,576.39,-376.99,556.04,-383.84,261.67,-97.34,73.507,-31.085,164.59,-79.098,124.27,-148.22,14.826,-39.413,228.25
-377.66,575.27,-375.81,554.8,-383.28,260.09,-96.565,72.564,-30.278,164.48,-78.857,124.65,-148.02,15.066,-38.897,227.35
-376.56,574.13,-374.63,553.56,-382.71,258.51,-95.788,71.623,-29.472,164.36,-78.613,125.02,-147.81,15.308,-38.38,226.45
-376.56,574.13,-374.63,553.56,-382.71,258.51,-95.788,71.623,-29.472,164.36,-78.613,125.02,-147.81,15.308,-38.38,226.45
-376.56,574.13,-374.63,553.56,-382.71,258.51,-95.788,71.623,-29.472,164.36,-78.613,125.02,-147.81,15.308,-38.38,226.45
-375.45,572.98,-373.45,552.33,-382.13,256.93,-95.01,70.683,-28.669,164.24,-78.366,125.4,-147.6,15.55,-37.863,225.55
-375.45,572.98,-373.45,552.33,-382.13,256.93,-95.01,70.683,-28.669,164.24,-78.366,125.4,-147.6,15.55,-37.863,225.55
-374.33,571.81,-372.27,551.09,-381.54,255.34,-94.231,69.744,-27.868,164.12,-78.115,125.76,-147.39,15.794,-37.346,224.66
-374.33,571.81,-372.27,551.09,-381.54,255.34,-94.231,69.744,-27.868,164.12,-78.115,125.76,-147.39,15.794,-37.346,224.66
-374.33,571.81,-372.27,551.09,-381.54,255.34,-94.231,69.744,-27.868,164.12,-78.115,125.76,-147.39,15.794,-37.346,224.66
-373.2,570.64,-371.1,549.86,-380.95,253.75,-93.45,68.807,-27.069,163.99,-77.861,126.12,-147.17,16.039,-36.828,223.76
-373.2,570.64,-371.1,549.86,-380.95,253.75,-93.45,68.807,-27.069,163.99,-77.861,126.12,-147.17,16.039,-36.828,223.76
-372.07,569.45,-369.92,548.62,-380.34,252.16,-92.667,67.872,-26.273,163.86,-77.603,126.48,-146.95,16.285,-36.311,222.87
-370.92,568.25,-368.75,547.38,-379.73,250.56,-91.884,66.939,-25.479,163.73,-77.342,126.84,-146.73,16.533,-35.793,221.98
-370.92,568.25,-368.75,547.38,-379.73,250.56,-91.884,66.939,-25.479,163.73,-77.342,126.84,-146.73,16.533,-35.793,221.98
-369.78,567.04,-367.57,546.15,-379.11,248.96,-91.099,66.008,-24.687,163.59,-77.078,127.19,-146.5,16.782,-35.275,221.08
-369.78,567.04,-367.57,546.15,-379.11,248.96,-91.099,66.008,-24.687,163.59,-77.078,127.19,-146.5,16.782,-35.275,221.08
-368.62,565.82,-366.4,544.91,-378.49,247.36,-90.312,65.079,-23.898,163.45,-76.811,127.53,-146.27,17.032,-34.757,220.19
-368.62,565.82,-366.4,544.91,-378.49,247.36,-90.312,65.079,-23.898,163.45,-76.811,127.53,-146.27,17.032,-34.757,220.19
-367.46,564.59,-365.23,543.68,-377.85,245.75,-89.525,64.151,-23.111,163.31,-76.54,127.87,-146.04,17.284,-34.238,219.3
-367.46,564.59,-365.23,543.68,-377.85,245.75,-89.525,64.151,-23.111,163.31,-76.54,127.87,-146.04,17.284,-34.238,219.3
-366.29,563.34,-364.05,542.45,-377.21,244.14,-88.736,63.226,-22.326,163.17,-76.266,128.21,-145.81,17.538,-33.72,218.41
-366.29,563.34,-364.05,542.45,-377.21,244.14,-88.736,63.226,-22.326,163.17,-76.266,128.21,-145.81,17.538,-33.72,218.41
-365.11,562.09,-362.88,541.22,-376.56,242.53,-87.946,62.303,-21.544,163.02,-75.989,128.54,-145.57,17.793,-33.201,217.53
-363.93,560.83,-361.72,539.99,-375.9,240.92,-87.155,61.383,-20.765,162.88,-75.708,128.87,-145.33,18.05,-32.683,216.64
-363.93,560.83,-361.72,539.99,-375.9,240.92,-87.155,61.383,-20.765,162.88,-75.708,128.87,-145.33,18.05,-32.683,216.64
-363.93,560.83,-361.72,539.99,-375.9,240.92,-87.155,61.383,-20.765,162.88,-75.708,128.87,-145.33,18.05,-32.683,216.64
-362.74,559.55,-360.55,538.76,-375.24,239.3,-86.363,60.465,-19.988,162.72,-75.425,129.19,-145.09,18.308,-32.164,215.76
-362.74,559.55,-360.55,538.76,-375.24,239.3,-86.363,60.465,-19.988,162.72,-75.425,129.19,-145.09,18.308,-32.164,215.76
-362.74,559.55,-360.55,538.76,-375.24,239.3,-86.363,60.465,-19.988,162.72,-75.425,129.19,-145.09,18.308,-32.164,215.76
-361.55,558.27,-359.38,537.53,-374.56,237.69,-85.569,59.549,-19.214,162.57,-75.138,129.51,-144.84,18.568,-31.646,214.87
-361.55,558.27,-359.38,537.53,-374.56,237.69,-85.569,59.549,-19.214,162.57,-75.138,129.51,-144.84,18.568,-31.646,214.87
-360.35,556.97,-358.22,536.3,-373.88,236.07,-84.775,58.636,-18.442,162.41,-74.849,129.83,-144.6,18.83,-31.127,213.99
-359.14,555.67,-357.06,535.08,-373.19,234.45,-83.979,57.726,-17.673,162.25,-74.556,130.14,-144.35,19.093,-30.608,213.11
-359.14,555.67,-357.06,535.08,-373.19,234.45,-83.979,57.726,-17.673,162.25,-74.556,130.14,-144.35,19.093,-30.608,213.11
-357.93,554.35,-355.9,533.86,-372.5,232.83,-83.182,56.818,-16.906,162.09,-74.26,130.45,-144.09,19.359,-30.09,212.23
-357.93,554.35,-355.9,533.86,-372.5,232.83,-83.182,56.818,-16.906,162.09,-74.26,130.45,-144.09,19.359,-30.09,212.23
-356.71,553.03,-354.74,532.63,-371.8,231.2,-82.385,55.913,-16.143,161.93,-73.962,130.75,-143.84,19.626,-29.571,211.36
-356.71,553.03,-354.74,532.63,-371.8,231.2,-82.385,55.913,-16.143,161.93,-73.962,130.75,-143.84,19.626,-29.571,211.36
-355.49,551.7,-353.58,531.41,-371.09,229.58,-81.586,55.011,-15.382,161.76,-73.66,131.05,-143.58,19.895,-29.052,210.48
-355.49,551.7,-353.58,531.41,-371.09,229.58,-81.586,55.011,-15.382,161.76,-73.66,131.05,-143.58,19.895,-29.052,210.48
-355.49,551.7,-353.58,531.41,-371.09,229.58,-81.586,55.011,-15.382,161.76,-73.66,131.05,-143.58,19.895,-29.052,210.48
-354.26,550.35,-352.43,530.2,-370.37,227.96,-80.786,54.112,-14.624,161.6,-73.356,131.34,-143.32,20.167,-28.534,209.61
-354.26,550.35,-352.43,530.2,-370.37,227.96,-80.786,54.112,-14.624,161.6,-73.356,131.34,-143.32,20.167,-28.534,209.61
-354.26,550.35,-352.43,530.2,-370.37,227.96,-80.786,54.112,-14.624,161.6,-73.356,131.34,-143.32,20.167,-28.534,209.61
-351.79,547.64,-350.13,527.77,-368.91,224.71,-79.185,52.322,-13.116,161.25,-72.738,131.92,-142.79,20.715,-27.497,207.86
-351.79,547.64,-350.13,527.77,-368.91,224.71,-79.185,52.322,-13.116,161.25,-72.738,131.92,-142.79,20.715,-27.497,207.86
-350.54,546.27,-348.98,526.56,-368.18,223.08,-78.382,51.433,-12.366,161.08,-72.425,132.2,-142.52,20.993,-26.978,207
-350.54,546.27,-348.98,526.56,-368.18,223.08,-78.382,51.433,-12.366,161.08,-72.425,132.2,-142.52,20.993,-26.978,207
-349.29,544.89,-347.84,525.35,-367.43,221.45,-77.579,50.546,-11.619,160.9,-72.109,132.47,-142.25,21.273,-26.46,206.13
-349.29,544.89,-347.84,525.35,-367.43,221.45,-77.579,50.546,-11.619,160.9,-72.109,132.47,-142.25,21.273,-26.46,206.13
-349.29,544.89,-347.84,525.35,-367.43,221.45,-77.579,50.546,-11.619,160.9,-72.109,132.47,-142.25,21.273,-26.46,206.13
-348.04,543.51,-346.7,524.14,-366.68,219.83,-76.775,49.663,-10.875,160.72,-71.79,132.75,-141.98,21.554,-25.942,205.26
-346.78,542.12,-345.56,522.94,-365.92,218.2,-75.971,48.783,-10.134,160.54,-71.469,133.02,-141.71,21.838,-25.424,204.4
-346.78,542.12,-345.56,522.94,-365.92,218.2,-75.971,48.783,-10.134,160.54,-71.469,133.02,-141.71,21.838,-25.424,204.4
-345.51,540.71,-344.42,521.74,-365.15,216.57,-75.165,47.906,-9.3963,160.36,-71.145,133.28,-141.43,22.125,-24.906,203.54
-345.51,540.71,-344.42,521.74,-365.15,216.57,-75.165,47.906,-9.3963,160.36,-71.145,133.28,-141.43,22.125,-24.906,203.54
-344.25,539.3,-343.29,520.54,-364.38,214.95,-74.359,47.033,-8.6613,160.17,-70.818,133.54,-141.15,22.413,-24.388,202.68
-344.25,539.3,-343.29,520.54,-364.38,214.95,-74.359,47.033,-8.6613,160.17,-70.818,133.54,-141.15,22.413,-24.388,202.68
-342.97,537.89,-342.16,519.34,-363.6,213.32,-73.553,46.164,-7.9294,159.99,-70.489,133.79,-140.87,22.704,-23.871,201.83
-342.97,537.89,-342.16,519.34,-363.6,213.32,-73.553,46.164,-7.9294,159.99,-70.489,133.79,-140.87,22.704,-23.871,201.83
-342.97,537.89,-342.16,519.34,-363.6,213.32,-73.553,46.164,-7.9294,159.99,-70.489,133.79,-140.87,22.704,-23.871,201.83
-341.69,536.46,-341.03,518.15,-362.81,211.7,-72.745,45.299,-7.2006,159.8,-70.157,134.05,-140.59,22.998,-23.354,200.97
-341.69,536.46,-341.03,518.15,-362.81,211.7,-72.745,45.299,-7.2006,159.8,-70.157,134.05,-140.59,22.998,-23.354,200.97
-341.69,536.46,-341.03,518.15,-362.81,211.7,-72.745,45.299,-7.2006,159.8,-70.157,134.05,-140.59,22.998,-23.354,200.97
-339.13,533.59,-338.79,515.77,-361.22,208.45,-71.129,43.579,-5.7523,159.42,-69.485,134.54,-140.01,23.592,-22.32,199.27
-339.13,533.59,-338.79,515.77,-361.22,208.45,-71.129,43.579,-5.7523,159.42,-69.485,134.54,-140.01,23.592,-22.32,199.27
-337.84,532.14,-337.67,514.59,-360.41,206.83,-70.319,42.725,-5.0329,159.22,-69.146,134.77,-139.73,23.893,-21.804,198.42
-337.84,532.14,-337.67,514.59,-360.41,206.83,-70.319,42.725,-5.0329,159.22,-69.146,134.77,-139.73,23.893,-21.804,198.42
-336.54,530.69,-336.55,513.41,-359.6,205.21,-69.51,41.874,-4.3166,159.03,-68.804,135.01,-139.43,24.196,-21.287,197.58
-336.54,530.69,-336.55,513.41,-359.6,205.21,-69.51,41.874,-4.3166,159.03,-68.804,135.01,-139.43,24.196,-21.287,197.58
-335.25,529.23,-335.44,512.23,-358.78,203.59,-68.699,41.028,-3.6036,158.83,-68.459,135.24,-139.14,24.502,-20.771,196.73
-335.25,529.23,-335.44,512.23,-358.78,203.59,-68.699,41.028,-3.6036,158.83,-68.459,135.24,-139.14,24.502,-20.771,196.73
-335.25,529.23,-335.44,512.23,-358.78,203.59,-68.699,41.028,-3.6036,158.83,-68.459,135.24,-139.14,24.502,-20.771,196.73
-333.95,527.76,-334.33,511.06,-357.95,201.98,-67.889,40.186,-2.8938,158.63,-68.112,135.46,-138.85,24.81,-20.256,195.89
-333.95,527.76,-334.33,511.06,-357.95,201.98,-67.889,40.186,-2.8938,158.63,-68.112,135.46,-138.85,24.81,-20.256,195.89
-333.95,527.76,-334.33,511.06,-357.95,201.98,-67.889,40.186,-2.8938,158.63,-68.112,135.46,-138.85,24.81,-20.256,195.89
-331.33,524.81,-332.13,508.72,-356.28,198.75,-66.266,38.515,-1.4841,158.23,-67.412,135.9,-138.25,25.435,-19.225,194.22
-331.33,524.81,-332.13,508.72,-356.28,198.75,-66.266,38.515,-1.4841,158.23,-67.412,135.9,-138.25,25.435,-19.225,194.22
-330.02,523.33,-331.03,507.55,-355.44,197.14,-65.454,37.686,-0.78427,158.03,-67.058,136.11,-137.95,25.752,-18.711,193.38
-330.02,523.33,-331.03,507.55,-355.44,197.14,-65.454,37.686,-0.78427,158.03,-67.058,136.11,-137.95,25.752,-18.711,193.38
-330.02,523.33,-331.03,507.55,-355.44,197.14,-65.454,37.686,-0.78427,158.03,-67.058,136.11,-137.95,25.752,-18.711,193.38
-328.71,521.83,-329.93,506.39,-354.59,195.53,-64.641,36.861,-0.087771,157.82,-66.702,136.32,-137.65,26.071,-18.196,192.55
-328.71,521.83,-329.93,506.39,-354.59,195.53,-64.641,36.861,-0.087771,157.82,-66.702,136.32,-137.65,26.071,-18.196,192.55
-326.07,518.83,-327.76,504.09,-352.87,192.32,-63.016,35.225,1.295,157.41,-65.983,136.73,-137.04,26.718,-17.169,190.9
-326.07,518.83,-327.76,504.09,-352.87,192.32,-63.016,35.225,1.295,157.41,-65.983,136.73,-137.04,26.718,-17.169,190.9
-326.07,518.83,-327.76,504.09,-352.87,192.32,-63.016,35.225,1.295,157.41,-65.983,136.73,-137.04,26.718,-17.169,190.9
-324.74,517.33,-326.67,502.94,-352,190.72,-62.202,34.413,1.9813,157.2,-65.62,136.92,-136.73,27.046,-16.656,190.07
-324.74,517.33,-326.67,502.94,-352,190.72,-62.202,34.413,1.9813,157.2,-65.62,136.92,-136.73,27.046,-16.656,190.07
-323.42,515.81,-325.59,501.79,-351.12,189.12,-61.389,33.607,2.664,156.99,-65.255,137.11,-136.43,27.376,-16.143,189.25
-323.42,515.81,-325.59,501.79,-351.12,189.12,-61.389,33.607,2.664,156.99,-65.255,137.11,-136.43,27.376,-16.143,189.25
-322.09,514.29,-324.52,500.65,-350.24,187.53,-60.575,32.805,3.3433,156.78,-64.888,137.3,-136.12,27.71,-15.631,188.44
-322.09,514.29,-324.52,500.65,-350.24,187.53,-60.575,32.805,3.3433,156.78,-64.888,137.3,-136.12,27.71,-15.631,188.44
-320.76,512.77,-323.45,499.51,-349.36,185.94,-59.761,32.008,4.0191,156.57,-64.519,137.49,-135.8,28.046,-15.119,187.62
-320.76,512.77,-323.45,499.51,-349.36,185.94,-59.761,32.008,4.0191,156.57,-64.519,137.49,-135.8,28.046,-15.119,187.62
-319.42,511.24,-322.38,498.38,-348.46,184.35,-58.947,31.215,4.6912,156.35,-64.148,137.66,-135.49,28.386,-14.608,186.81
-319.42,511.24,-322.38,498.38,-348.46,184.35,-58.947,31.215,4.6912,156.35,-64.148,137.66,-135.49,28.386,-14.608,186.81
-318.09,509.71,-321.32,497.25,-347.57,182.76,-58.133,30.428,5.3598,156.14,-63.775,137.84,-135.18,28.728,-14.097,186
-318.09,509.71,-321.32,497.25,-347.57,182.76,-58.133,30.428,5.3598,156.14,-63.775,137.84,-135.18,28.728,-14.097,186
-316.75,508.17,-320.26,496.13,-346.66,181.18,-57.318,29.646,6.0248,155.92,-63.4,138.01,-134.86,29.074,-13.587,185.19
-316.75,508.17,-320.26,496.13,-346.66,181.18,-57.318,29.646,6.0248,155.92,-63.4,138.01,-134.86,29.074,-13.587,185.19
-316.75,508.17,-320.26,496.13,-346.66,181.18,-57.318,29.646,6.0248,155.92,-63.4,138.01,-134.86,29.074,-13.587,185.19
-315.41,506.63,-319.2,495.01,-345.75,179.6,-56.504,28.868,6.6862,155.7,-63.023,138.18,-134.55,29.422,-13.077,184.39
-315.41,506.63,-319.2,495.01,-345.75,179.6,-56.504,28.868,6.6862,155.7,-63.023,138.18,-134.55,29.422,-13.077,184.39
-314.06,505.08,-318.15,493.89,-344.84,178.03,-55.689,28.096,7.3439,155.49,-62.644,138.34,-134.23,29.774,-12.568,183.58
-314.06,505.08,-318.15,493.89,-344.84,178.03,-55.689,28.096,7.3439,155.49,-62.644,138.34,-134.23,29.774,-12.568,183.58
-314.06,505.08,-318.15,493.89,-344.84,178.03,-55.689,28.096,7.3439,155.49,-62.644,138.34,-134.23,29.774,-12.568,183.58
-311.37,501.98,-316.07,491.67,-342.99,174.89,-54.06,26.567,8.6482,155.05,-61.881,138.65,-133.59,30.486,-11.551,181.99
-311.37,501.98,-316.07,491.67,-342.99,174.89,-54.06,26.567,8.6482,155.05,-61.881,138.65,-133.59,30.486,-11.551,181.99
-310.02,500.42,-315.03,490.57,-342.06,173.33,-53.246,25.81,9.2947,154.83,-61.497,138.8,-133.27,30.847,-11.044,181.2
-310.02,500.42,-315.03,490.57,-342.06,173.33,-53.246,25.81,9.2947,154.83,-61.497,138.8,-133.27,30.847,-11.044,181.2
-310.02,500.42,-315.03,490.57,-342.06,173.33,-53.246,25.81,9.2947,154.83,-61.497,138.8,-133.27,30.847,-11.044,181.2
-308.67,498.86,-314,489.47,-341.12,171.77,-52.431,25.059,9.9375,154.61,-61.111,138.95,-132.94,31.211,-10.537,180.41
-308.67,498.86,-314,489.47,-341.12,171.77,-52.431,25.059,9.9375,154.61,-61.111,138.95,-132.94,31.211,-10.537,180.41
-308.67,498.86,-314,489.47,-341.12,171.77,-52.431,25.059,9.9375,154.61,-61.111,138.95,-132.94,31.211,-10.537,180.41
-305.97,495.72,-311.94,487.29,-339.23,168.67,-50.803,23.572,11.212,154.16,-60.334,139.23,-132.29,31.949,-9.5253,178.84
-305.97,495.72,-311.94,487.29,-339.23,168.67,-50.803,23.572,11.212,154.16,-60.334,139.23,-132.29,31.949,-9.5253,178.84
-304.61,494.15,-310.92,486.21,-338.28,167.13,-49.989,22.837,11.843,153.94,-59.943,139.36,-131.97,32.323,-9.0203,178.06
-304.61,494.15,-310.92,486.21,-338.28,167.13,-49.989,22.837,11.843,153.94,-59.943,139.36,-131.97,32.323,-9.0203,178.06
-303.26,492.58,-309.91,485.13,-337.32,165.59,-49.175,22.108,12.47,153.71,-59.55,139.49,-131.64,32.7,-8.5161,177.28
-303.26,492.58,-309.91,485.13,-337.32,165.59,-49.175,22.108,12.47,153.71,-59.55,139.49,-131.64,32.7,-8.5161,177.28
-301.9,491,-308.9,484.05,-336.36,164.06,-48.361,21.384,13.094,153.49,-59.156,139.61,-131.31,33.08,-8.0125,176.5
-301.9,491,-308.9,484.05,-336.36,164.06,-48.361,21.384,13.094,153.49,-59.156,139.61,-131.31,33.08,-8.0125,176.5
-300.54,489.42,-307.9,482.98,-335.39,162.53,-47.548,20.666,13.714,153.26,-58.761,139.74,-130.98,33.463,-7.5097,175.73
-299.18,487.84,-306.9,481.92,-334.42,161,-46.735,19.953,14.329,153.03,-58.363,139.85,-130.65,33.85,-7.0076,174.96
-299.18,487.84,-306.9,481.92,-334.42,161,-46.735,19.953,14.329,153.03,-58.363,139.85,-130.65,33.85,-7.0076,174.96
-297.82,486.25,-305.9,480.86,-333.44,159.49,-45.922,19.247,14.941,152.81,-57.965,139.97,-130.32,34.241,-6.5062,174.2
-297.82,486.25,-305.9,480.86,-333.44,159.49,-45.922,19.247,14.941,152.81,-57.965,139.97,-130.32,34.241,-6.5062,174.2
-296.46,484.66,-304.91,479.8,-332.46,157.97,-45.109,18.546,15.549,152.58,-57.565,140.07,-129.99,34.634,-6.0056,173.44
-296.46,484.66,-304.91,479.8,-332.46,157.97,-45.109,18.546,15.549,152.58,-57.565,140.07,-129.99,34.634,-6.0056,173.44
-296.46,484.66,-304.91,479.8,-332.46,157.97,-45.109,18.546,15.549,152.58,-57.565,140.07,-129.99,34.634,-6.0056,173.44
-295.1,483.07,-303.92,478.75,-331.47,156.47,-44.297,17.851,16.152,152.35,-57.163,140.18,-129.66,35.031,-5.5057,172.68
-295.1,483.07,-303.92,478.75,-331.47,156.47,-44.297,17.851,16.152,152.35,-57.163,140.18,-129.66,35.031,-5.5057,172.68
-293.74,481.48,-302.94,477.7,-330.48,154.96,-43.485,17.162,16.752,152.12,-56.761,140.28,-129.32,35.432,-5.0067,171.92
-293.74,481.48,-302.94,477.7,-330.48,154.96,-43.485,17.162,16.752,152.12,-56.761,140.28,-129.32,35.432,-5.0067,171.92
-292.37,479.88,-301.97,476.66,-329.48,153.47,-42.674,16.479,17.348,151.89,-56.357,140.38,-128.99,35.835,-4.5084,171.17
-292.37,479.88,-301.97,476.66,-329.48,153.47,-42.674,16.479,17.348,151.89,-56.357,140.38,-128.99,35.835,-4.5084,171.17
-291.01,478.29,-301,475.63,-328.48,151.98,-41.863,15.802,17.939,151.67,-55.951,140.47,-128.66,36.242,-4.011,170.42
-291.01,478.29,-301,475.63,-328.48,151.98,-41.863,15.802,17.939,151.67,-55.951,140.47,-128.66,36.242,-4.011,170.42
-289.65,476.69,-300.03,474.6,-327.47,150.5,-41.052,15.131,18.526,151.44,-55.545,140.56,-128.32,36.653,-3.5145,169.68
-289.65,476.69,-300.03,474.6,-327.47,150.5,-41.052,15.131,18.526,151.44,-55.545,140.56,-128.32,36.653,-3.5145,169.68
-289.65,476.69,-300.03,474.6,-327.47,150.5,-41.052,15.131,18.526,151.44,-55.545,140.56,-128.32,36.653,-3.5145,169.68
-288.28,475.09,-299.07,473.57,-326.46,149.02,-40.242,14.466,19.11,151.21,-55.137,140.64,-127.98,37.067,-3.0188,168.93
-286.92,473.49,-298.11,472.55,-325.45,147.55,-39.432,13.807,19.689,150.98,-54.728,140.73,-127.65,37.485,-2.5239,168.19
-286.92,473.49,-298.11,472.55,-325.45,147.55,-39.432,13.807,19.689,150.98,-54.728,140.73,-127.65,37.485,-2.5239,168.19
-285.55,471.89,-297.16,471.54,-324.43,146.08,-38.623,13.155,20.264,150.75,-54.318,140.8,-127.31,37.906,-2.03,167.46
-285.55,471.89,-297.16,471.54,-324.43,146.08,-38.623,13.155,20.264,150.75,-54.318,140.8,-127.31,37.906,-2.03,167.46
-284.19,470.28,-296.22,470.53,-323.4,144.63,-37.815,12.509,20.834,150.51,-53.907,140.88,-126.97,38.33,-1.537,166.73
-284.19,470.28,-296.22,470.53,-323.4,144.63,-37.815,12.509,20.834,150.51,-53.907,140.88,-126.97,38.33,-1.537,166.73
-284.19,470.28,-296.22,470.53,-323.4,144.63,-37.815,12.509,20.834,150.51,-53.907,140.88,-126.97,38.33,-1.537,166.73
-282.83,468.68,-295.28,469.52,-322.38,143.18,-37.007,11.869,21.401,150.28,-53.494,140.95,-126.64,38.758,-1.0449,166
-282.83,468.68,-295.28,469.52,-322.38,143.18,-37.007,11.869,21.401,150.28,-53.494,140.95,-126.64,38.758,-1.0449,166
-281.46,467.07,-294.34,468.52,-321.34,141.73,-36.2,11.236,21.963,150.05,-53.081,141.01,-126.3,39.189,-0.55379,165.27
-281.46,467.07,-294.34,468.52,-321.34,141.73,-36.2,11.236,21.963,150.05,-53.081,141.01,-126.3,39.189,-0.55379,165.27
-280.1,465.47,-293.41,467.53,-320.31,140.29,-35.393,10.609,22.521,149.82,-52.667,141.07,-125.96,39.624,-0.063633,164.55
-280.1,465.47,-293.41,467.53,-320.31,140.29,-35.393,10.609,22.521,149.82,-52.667,141.07,-125.96,39.624,-0.063633,164.55
-280.1,465.47,-293.41,467.53,-320.31,140.29,-35.393,10.609,22.521,149.82,-52.667,141.07,-125.96,39.624,-0.063633,164.55
-277.38,462.25,-291.57,465.55,-318.22,137.44,-33.782,9.374,23.624,149.36,-51.836,141.18,-125.28,40.505,0.91372,163.12
-277.38,462.25,-291.57,465.55,-318.22,137.44,-33.782,9.374,23.624,149.36,-51.836,141.18,-125.28,40.505,0.91372,163.12
-276.01,460.64,-290.66,464.58,-317.17,136.02,-32.978,8.7665,24.169,149.13,-51.419,141.23,-124.94,40.95,1.4009,162.41
-276.01,460.64,-290.66,464.58,-317.17,136.02,-32.978,8.7665,24.169,149.13,-51.419,141.23,-124.94,40.95,1.4009,162.41
-276.01,460.64,-290.66,464.58,-317.17,136.02,-32.978,8.7665,24.169,149.13,-51.419,141.23,-124.94,40.95,1.4009,162.41
-274.65,459.04,-289.75,463.6,-316.12,134.62,-32.174,8.1656,24.709,148.9,-51.001,141.28,-124.6,41.399,1.887,161.7
-274.65,459.04,-289.75,463.6,-316.12,134.62,-32.174,8.1656,24.709,148.9,-51.001,141.28,-124.6,41.399,1.887,161.7
-274.65,459.04,-289.75,463.6,-316.12,134.62,-32.174,8.1656,24.709,148.9,-51.001,141.28,-124.6,41.399,1.887,161.7
-271.93,455.82,-287.95,461.67,-314,131.82,-30.569,6.9837,25.777,148.44,-50.163,141.36,-123.92,42.308,2.856,160.29
-271.93,455.82,-287.95,461.67,-314,131.82,-30.569,6.9837,25.777,148.44,-50.163,141.36,-123.92,42.308,2.856,160.29
-270.57,454.21,-287.06,460.72,-312.94,130.44,-29.768,6.4028,26.304,148.2,-49.743,141.4,-123.58,42.767,3.3389,159.6
-270.57,454.21,-287.06,460.72,-312.94,130.44,-29.768,6.4028,26.304,148.2,-49.743,141.4,-123.58,42.767,3.3389,159.6
-269.22,452.6,-286.17,459.76,-311.87,129.06,-28.968,5.8287,26.827,147.97,-49.323,141.43,-123.24,43.23,3.8207,158.9
-269.22,452.6,-286.17,459.76,-311.87,129.06,-28.968,5.8287,26.827,147.97,-49.323,141.43,-123.24,43.23,3.8207,158.9
-267.86,451,-285.29,458.82,-310.8,127.69,-28.168,5.2613,27.346,147.74,-48.901,141.45,-122.9,43.697,4.3013,158.21
-267.86,451,-285.29,458.82,-310.8,127.69,-28.168,5.2613,27.346,147.74,-48.901,141.45,-122.9,43.697,4.3013,158.21
-266.51,449.39,-284.41,457.88,-309.72,126.32,-27.37,4.7007,27.86,147.51,-48.479,141.48,-122.56,44.167,4.7808,157.53
-266.51,449.39,-284.41,457.88,-309.72,126.32,-27.37,4.7007,27.86,147.51,-48.479,141.48,-122.56,44.167,4.7808,157.53
-265.15,447.78,-283.54,456.94,-308.64,124.97,-26.572,4.147,28.369,147.28,-48.057,141.5,-122.22,44.641,5.2591,156.84
-265.15,447.78,-283.54,456.94,-308.64,124.97,-26.572,4.147,28.369,147.28,-48.057,141.5,-122.22,44.641,5.2591,156.84
-263.8,446.18,-282.68,456.01,-307.56,123.62,-25.776,3.6002,28.874,147.05,-47.634,141.51,-121.88,45.118,5.7363,156.16
-263.8,446.18,-282.68,456.01,-307.56,123.62,-25.776,3.6002,28.874,147.05,-47.634,141.51,-121.88,45.118,5.7363,156.16
-262.45,444.57,-281.82,455.09,-306.48,122.28,-24.98,3.0604,29.374,146.82,-47.21,141.53,-121.53,45.599,6.2122,155.49
-262.45,444.57,-281.82,455.09,-306.48,122.28,-24.98,3.0604,29.374,146.82,-47.21,141.53,-121.53,45.599,6.2122,155.49
-262.45,444.57,-281.82,455.09,-306.48,122.28,-24.98,3.0604,29.374,146.82,-47.21,141.53,-121.53,45.599,6.2122,155.49
-261.1,442.97,-280.96,454.17,-305.39,120.95,-24.185,2.5275,29.87,146.59,-46.786,141.54,-121.19,46.083,6.6869,154.82
-259.75,441.37,-280.12,453.25,-304.3,119.63,-23.392,2.0016,30.361,146.36,-46.362,141.54,-120.85,46.571,7.1604,154.15
-258.4,439.77,-279.27,452.35,-303.2,118.32,-22.599,1.4827,30.848,146.14,-45.937,141.54,-120.51,47.062,7.6326,153.48
-258.4,439.77,-279.27,452.35,-303.2,118.32,-22.599,1.4827,30.848,146.14,-45.937,141.54,-120.51,47.062,7.6326,153.48
-257.06,438.16,-278.44,451.44,-302.1,117.02,-21.808,0.9709,31.33,145.91,-45.512,141.54,-120.17,47.557,8.1035,152.82
-257.06,438.16,-278.44,451.44,-302.1,117.02,-21.808,0.9709,31.33,145.91,-45.512,141.54,-120.17,47.557,8.1035,152.82
-257.06,438.16,-278.44,451.44,-302.1,117.02,-21.808,0.9709,31.33,145.91,-45.512,141.54,-120.17,47.557,8.1035,152.82
-255.72,436.57,-277.6,450.55,-301,115.72,-21.018,0.46618,31.807,145.68,-45.087,141.53,-119.83,48.056,8.5732,152.16
-255.72,436.57,-277.6,450.55,-301,115.72,-21.018,0.46618,31.807,145.68,-45.087,141.53,-119.83,48.056,8.5732,152.16
-255.72,436.57,-277.6,450.55,-301,115.72,-21.018,0.46618,31.807,145.68,-45.087,141.53,-119.83,48.056,8.5732,152.16
-254.37,434.97,-276.78,449.65,-299.89,114.43,-20.229,-0.031407,32.279,145.45,-44.661,141.53,-119.49,48.557,9.0415,151.51
-254.37,434.97,-276.78,449.65,-299.89,114.43,-20.229,-0.031407,32.279,145.45,-44.661,141.53,-119.49,48.557,9.0415,151.51
-253.04,433.37,-275.96,448.77,-298.79,113.15,-19.441,-0.52184,32.747,145.23,-44.235,141.51,-119.15,49.063,9.5084,150.86
-253.04,433.37,-275.96,448.77,-298.79,113.15,-19.441,-0.52184,32.747,145.23,-44.235,141.51,-119.15,49.063,9.5084,150.86
-253.04,433.37,-275.96,448.77,-298.79,113.15,-19.441,-0.52184,32.747,145.23,-44.235,141.51,-119.15,49.063,9.5084,150.86
-250.36,430.19,-274.33,447.01,-296.56,110.63,-17.869,-1.4811,33.669,144.77,-43.383,141.48,-118.47,50.084,10.438,149.57
-250.36,430.19,-274.33,447.01,-296.56,110.63,-17.869,-1.4811,33.669,144.77,-43.383,141.48,-118.47,50.084,10.438,149.57
-249.03,428.6,-273.53,446.14,-295.44,109.37,-17.085,-1.9499,34.123,144.55,-42.956,141.45,-118.13,50.6,10.901,148.93
-249.03,428.6,-273.53,446.14,-295.44,109.37,-17.085,-1.9499,34.123,144.55,-42.956,141.45,-118.13,50.6,10.901,148.93
-249.03,428.6,-273.53,446.14,-295.44,109.37,-17.085,-1.9499,34.123,144.55,-42.956,141.45,-118.13,50.6,10.901,148.93
-247.7,427.01,-272.73,445.28,-294.32,108.13,-16.302,-2.4115,34.571,144.32,-42.53,141.43,-117.8,51.119,11.363,148.3
-246.37,425.42,-271.94,444.42,-293.2,106.9,-15.521,-2.8657,35.016,144.1,-42.103,141.4,-117.46,51.642,11.823,147.67
-245.05,423.84,-271.15,443.56,-292.07,105.68,-14.74,-3.3126,35.455,143.87,-41.677,141.36,-117.12,52.168,12.281,147.04
-245.05,423.84,-271.15,443.56,-292.07,105.68,-14.74,-3.3126,35.455,143.87,-41.677,141.36,-117.12,52.168,12.281,147.04
-243.72,422.26,-270.37,442.71,-290.95,104.46,-13.962,-3.7522,35.889,143.65,-41.25,141.33,-116.78,52.697,12.738,146.42
-243.72,422.26,-270.37,442.71,-290.95,104.46,-13.962,-3.7522,35.889,143.65,-41.25,141.33,-116.78,52.697,12.738,146.42
-243.72,422.26,-270.37,442.71,-290.95,104.46,-13.962,-3.7522,35.889,143.65,-41.25,141.33,-116.78,52.697,12.738,146.42
-242.4,420.68,-269.59,441.87,-289.82,103.26,-13.184,-4.1844,36.319,143.43,-40.824,141.29,-116.45,53.23,13.194,145.8
-242.4,420.68,-269.59,441.87,-289.82,103.26,-13.184,-4.1844,36.319,143.43,-40.824,141.29,-116.45,53.23,13.194,145.8
-242.4,420.68,-269.59,441.87,-289.82,103.26,-13.184,-4.1844,36.319,143.43,-40.824,141.29,-116.45,53.23,13.194,145.8
-241.09,419.11,-268.82,441.03,-288.68,102.06,-12.408,-4.6093,36.744,143.21,-40.398,141.24,-116.11,53.766,13.648,145.18
-239.77,417.53,-268.06,440.2,-287.55,100.88,-11.634,-5.0267,37.164,142.99,-39.972,141.19,-115.77,54.306,14.1,144.57
-238.46,415.96,-267.3,439.37,-286.41,99.704,-10.86,-5.4367,37.579,142.77,-39.546,141.14,-115.44,54.849,14.551,143.96
-238.46,415.96,-267.3,439.37,-286.41,99.704,-10.86,-5.4367,37.579,142.77,-39.546,141.14,-115.44,54.849,14.551,143.96
-238.46,415.96,-267.3,439.37,-286.41,99.704,-10.86,-5.4367,37.579,142.77,-39.546,141.14,-115.44,54.849,14.551,143.96
-237.15,414.39,-266.55,438.55,-285.27,98.539,-10.089,-5.8393,37.989,142.55,-39.12,141.09,-115.1,55.395,15.001,143.35
-237.15,414.39,-266.55,438.55,-285.27,98.539,-10.089,-5.8393,37.989,142.55,-39.12,141.09,-115.1,55.395,15.001,143.35
-235.84,412.83,-265.8,437.73,-284.13,97.383,-9.3187,-6.2344,38.394,142.33,-38.694,141.03,-114.77,55.944,15.448,142.75
-235.84,412.83,-265.8,437.73,-284.13,97.383,-9.3187,-6.2344,38.394,142.33,-38.694,141.03,-114.77,55.944,15.448,142.75
-235.84,412.83,-265.8,437.73,-284.13,97.383,-9.3187,-6.2344,38.394,142.33,-38.694,141.03,-114.77,55.944,15.448,142.75
-234.54,411.27,-265.06,436.92,-282.98,96.237,-8.5501,-6.622,38.795,142.11,-38.269,140.97,-114.43,56.497,15.895,142.16
-234.54,411.27,-265.06,436.92,-282.98,96.237,-8.5501,-6.622,38.795,142.11,-38.269,140.97,-114.43,56.497,15.895,142.16
-234.54,411.27,-265.06,436.92,-282.98,96.237,-8.5501,-6.622,38.795,142.11,-38.269,140.97,-114.43,56.497,15.895,142.16
-231.94,408.16,-263.59,435.32,-280.68,93.976,-7.0176,-7.3747,39.58,141.68,-37.42,140.84,-113.77,57.613,16.782,140.97
-231.94,408.16,-263.59,435.32,-280.68,93.976,-7.0176,-7.3747,39.58,141.68,-37.42,140.84,-113.77,57.613,16.782,140.97
-231.94,408.16,-263.59,435.32,-280.68,93.976,-7.0176,-7.3747,39.58,141.68,-37.42,140.84,-113.77,57.613,16.782,140.97
-231.94,408.16,-263.59,435.32,-280.68,93.976,-7.0176,-7.3747,39.58,141.68,-37.42,140.84,-113.77,57.613,16.782,140.97
-229.36,405.06,-262.14,433.73,-278.38,91.755,-5.4915,-8.0973,40.346,141.24,-36.572,140.7,-113.11,58.741,17.663,139.8
-229.36,405.06,-262.14,433.73,-278.38,91.755,-5.4915,-8.0973,40.346,141.24,-36.572,140.7,-113.11,58.741,17.663,139.8
-229.36,405.06,-262.14,433.73,-278.38,91.755,-5.4915,-8.0973,40.346,141.24,-36.572,140.7,-113.11,58.741,17.663,139.8
-228.07,403.51,-261.43,432.94,-277.22,90.66,-4.731,-8.4472,40.721,141.03,-36.149,140.62,-112.78,59.31,18.101,139.22
-226.78,401.97,-260.72,432.16,-276.07,89.576,-3.9721,-8.7896,41.092,140.82,-35.726,140.54,-112.45,59.882,18.537,138.65
-226.78,401.97,-260.72,432.16,-276.07,89.576,-3.9721,-8.7896,41.092,140.82,-35.726,140.54,-112.45,59.882,18.537,138.65
-225.5,400.44,-260.02,431.39,-274.91,88.502,-3.2149,-9.1244,41.457,140.61,-35.304,140.46,-112.12,60.457,18.971,138.08
-225.5,400.44,-260.02,431.39,-274.91,88.502,-3.2149,-9.1244,41.457,140.61,-35.304,140.46,-112.12,60.457,18.971,138.08
-224.23,398.9,-259.32,430.62,-273.75,87.438,-2.4594,-9.4516,41.817,140.39,-34.882,140.37,-111.79,61.035,19.403,137.51
-224.23,398.9,-259.32,430.62,-273.75,87.438,-2.4594,-9.4516,41.817,140.39,-34.882,140.37,-111.79,61.035,19.403,137.51
-222.95,397.37,-258.63,429.85,-272.58,86.384,-1.7057,-9.7712,42.172,140.18,-34.461,140.28,-111.46,61.616,19.834,136.95
-222.95,397.37,-258.63,429.85,-272.58,86.384,-1.7057,-9.7712,42.172,140.18,-34.461,140.28,-111.46,61.616,19.834,136.95
-221.68,395.85,-257.94,429.1,-271.42,85.342,-0.95376,-10.083,42.522,139.97,-34.041,140.19,-111.14,62.201,20.263,136.39
-221.68,395.85,-257.94,429.1,-271.42,85.342,-0.95376,-10.083,42.522,139.97,-34.041,140.19,-111.14,62.201,20.263,136.39
-220.42,394.33,-257.26,428.34,-270.25,84.309,-0.2036,-10.387,42.867,139.77,-33.621,140.1,-110.81,62.788,20.69,135.83
-220.42,394.33,-257.26,428.34,-270.25,84.309,-0.2036,-10.387,42.867,139.77,-33.621,140.1,-110.81,62.788,20.69,135.83
-219.15,392.81,-256.58,427.59,-269.08,83.288,0.54476,-10.684,43.207,139.56,-33.202,140,-110.49,63.378,21.115,135.28
-219.15,392.81,-256.58,427.59,-269.08,83.288,0.54476,-10.684,43.207,139.56,-33.202,140,-110.49,63.378,21.115,135.28
-217.9,391.3,-255.91,426.85,-267.92,82.277,1.2913,-10.973,43.542,139.35,-32.784,139.9,-110.16,63.971,21.539,134.73
-217.9,391.3,-255.91,426.85,-267.92,82.277,1.2913,-10.973,43.542,139.35,-32.784,139.9,-110.16,63.971,21.539,134.73
-216.64,389.79,-255.25,426.11,-266.74,81.277,2.0359,-11.255,43.871,139.15,-32.367,139.79,-109.84,64.567,21.96,134.19
-216.64,389.79,-255.25,426.11,-266.74,81.277,2.0359,-11.255,43.871,139.15,-32.367,139.79,-109.84,64.567,21.96,134.19
-216.64,389.79,-255.25,426.11,-266.74,81.277,2.0359,-11.255,43.871,139.15,-32.367,139.79,-109.84,64.567,21.96,134.19
-215.39,388.29,-254.59,425.37,-265.57,80.288,2.7787,-11.529,44.196,138.94,-31.951,139.68,-109.52,65.166,22.379,133.64
-214.14,386.79,-253.93,424.64,-264.4,79.31,3.5196,-11.795,44.515,138.74,-31.535,139.57,-109.2,65.768,22.797,133.11
-214.14,386.79,-253.93,424.64,-264.4,79.31,3.5196,-11.795,44.515,138.74,-31.535,139.57,-109.2,65.768,22.797,133.11
-214.14,386.79,-253.93,424.64,-264.4,79.31,3.5196,-11.795,44.515,138.74,-31.535,139.57,-109.2,65.768,22.797,133.11
-212.9,385.3,-253.29,423.92,-263.22,78.342,4.2586,-12.053,44.829,138.54,-31.12,139.46,-108.88,66.372,23.213,132.57
-212.9,385.3,-253.29,423.92,-263.22,78.342,4.2586,-12.053,44.829,138.54,-31.12,139.46,-108.88,66.372,23.213,132.57
-212.9,385.3,-253.29,423.92,-263.22,78.342,4.2586,-12.053,44.829,138.54,-31.12,139.46,-108.88,66.372,23.213,132.57
-210.43,382.32,-252,422.48,-260.87,76.441,5.7307,-12.547,45.441,138.13,-30.294,139.23,-108.24,67.59,24.038,131.52
-210.43,382.32,-252,422.48,-260.87,76.441,5.7307,-12.547,45.441,138.13,-30.294,139.23,-108.24,67.59,24.038,131.52
-210.43,382.32,-252,422.48,-260.87,76.441,5.7307,-12.547,45.441,138.13,-30.294,139.23,-108.24,67.59,24.038,131.52
-209.2,380.84,-251.37,421.77,-259.69,75.506,6.4638,-12.783,45.74,137.93,-29.882,139.1,-107.93,68.202,24.447,130.99
-207.97,379.37,-250.74,421.06,-258.51,74.583,7.1949,-13.01,46.033,137.74,-29.471,138.98,-107.61,68.818,24.855,130.48
-207.97,379.37,-250.74,421.06,-258.51,74.583,7.1949,-13.01,46.033,137.74,-29.471,138.98,-107.61,68.818,24.855,130.48
-206.75,377.9,-250.12,420.36,-257.33,73.671,7.9239,-13.231,46.321,137.54,-29.062,138.85,-107.3,69.436,25.26,129.96
-205.54,376.43,-249.5,419.66,-256.15,72.77,8.6509,-13.443,46.603,137.34,-28.653,138.72,-106.98,70.056,25.663,129.45
-205.54,376.43,-249.5,419.66,-256.15,72.77,8.6509,-13.443,46.603,137.34,-28.653,138.72,-106.98,70.056,25.663,129.45
-205.54,376.43,-249.5,419.66,-256.15,72.77,8.6509,-13.443,46.603,137.34,-28.653,138.72,-106.98,70.056,25.663,129.45
-204.32,374.97,-248.89,418.97,-254.97,71.88,9.3759,-13.648,46.881,137.15,-28.246,138.59,-106.67,70.679,26.064,128.94
-204.32,374.97,-248.89,418.97,-254.97,71.88,9.3759,-13.648,46.881,137.15,-28.246,138.59,-106.67,70.679,26.064,128.94
-204.32,374.97,-248.89,418.97,-254.97,71.88,9.3759,-13.648,46.881,137.15,-28.246,138.59,-106.67,70.679,26.064,128.94
-203.11,373.52,-248.28,418.28,-253.78,71.002,10.099,-13.845,47.153,136.95,-27.84,138.45,-106.36,71.305,26.463,128.44
-203.11,373.52,-248.28,418.28,-253.78,71.002,10.099,-13.845,47.153,136.95,-27.84,138.45,-106.36,71.305,26.463,128.44
-201.91,372.07,-247.68,417.6,-252.6,70.134,10.82,-14.035,47.42,136.76,-27.435,138.31,-106.05,71.933,26.86,127.94
-201.91,372.07,-247.68,417.6,-252.6,70.134,10.82,-14.035,47.42,136.76,-27.435,138.31,-106.05,71.933,26.86,127.94
-201.91,372.07,-247.68,417.6,-252.6,70.134,10.82,-14.035,47.42,136.76,-27.435,138.31,-106.05,71.933,26.86,127.94
-199.52,369.19,-246.49,416.24,-250.23,68.434,12.255,-14.391,47.937,136.38,-26.629,138.03,-105.43,73.196,27.647,126.95
-199.52,369.19,-246.49,416.24,-250.23,68.434,12.255,-14.391,47.937,136.38,-26.629,138.03,-105.43,73.196,27.647,126.95
-199.52,369.19,-246.49,416.24,-250.23,68.434,12.255,-14.391,47.937,136.38,-26.629,138.03,-105.43,73.196,27.647,126.95
-198.33,367.76,-245.91,415.57,-249.04,67.601,12.969,-14.558,48.188,136.19,-26.228,137.88,-105.13,73.831,28.037,126.46
-197.14,366.33,-245.33,414.91,-247.85,66.779,13.681,-14.717,48.434,136,-25.828,137.73,-104.82,74.468,28.425,125.97
-197.14,366.33,-245.33,414.91,-247.85,66.779,13.681,-14.717,48.434,136,-25.828,137.73,-104.82,74.468,28.425,125.97
-195.96,364.91,-244.75,414.24,-246.66,65.968,14.391,-14.868,48.674,135.81,-25.43,137.58,-104.52,75.107,28.811,125.49
-194.79,363.49,-244.18,413.59,-245.48,65.17,15.099,-15.012,48.909,135.63,-25.033,137.43,-104.21,75.749,29.194,125.01
-194.79,363.49,-244.18,413.59,-245.48,65.17,15.099,-15.012,48.909,135.63,-25.033,137.43,-104.21,75.749,29.194,125.01
-194.79,363.49,-244.18,413.59,-245.48,65.17,15.099,-15.012,48.909,135.63,-25.033,137.43,-104.21,75.749,29.194,125.01
-193.62,362.08,-243.61,412.93,-244.29,64.382,15.804,-15.149,49.138,135.44,-24.638,137.27,-103.91,76.393,29.575,124.53
-193.62,362.08,-243.61,412.93,-244.29,64.382,15.804,-15.149,49.138,135.44,-24.638,137.27,-103.91,76.393,29.575,124.53
-192.46,360.68,-243.05,412.28,-243.1,63.606,16.508,-15.277,49.362,135.26,-24.244,137.11,-103.61,77.039,29.954,124.06
-192.46,360.68,-243.05,412.28,-243.1,63.606,16.508,-15.277,49.362,135.26,-24.244,137.11,-103.61,77.039,29.954,124.06
-191.3,359.28,-242.5,411.64,-241.91,62.842,17.209,-15.398,49.581,135.08,-23.851,136.95,-103.31,77.686,30.33,123.59
-191.3,359.28,-242.5,411.64,-241.91,62.842,17.209,-15.398,49.581,135.08,-23.851,136.95,-103.31,77.686,30.33,123.59
-191.3,359.28,-242.5,411.64,-241.91,62.842,17.209,-15.398,49.581,135.08,-23.851,136.95,-103.31,77.686,30.33,123.59
-190.14,357.89,-241.94,411,-240.72,62.089,17.907,-15.512,49.795,134.89,-23.461,136.78,-103.01,78.336,30.704,123.13
-188.99,356.5,-241.4,410.36,-239.53,61.348,18.604,-15.618,50.003,134.71,-23.071,136.62,-102.72,78.988,31.076,122.67
-188.99,356.5,-241.4,410.36,-239.53,61.348,18.604,-15.618,50.003,134.71,-23.071,136.62,-102.72,78.988,31.076,122.67
-187.85,355.12,-240.85,409.72,-238.34,60.618,19.298,-15.717,50.205,134.53,-22.684,136.45,-102.42,79.642,31.445,122.21
-187.85,355.12,-240.85,409.72,-238.34,60.618,19.298,-15.717,50.205,134.53,-22.684,136.45,-102.42,79.642,31.445,122.21
-186.71,353.74,-240.32,409.09,-237.15,59.9,19.99,-15.808,50.402,134.36,-22.298,136.27,-102.13,80.297,31.812,121.75
-186.71,353.74,-240.32,409.09,-237.15,59.9,19.99,-15.808,50.402,134.36,-22.298,136.27,-102.13,80.297,31.812,121.75
-186.71,353.74,-240.32,409.09,-237.15,59.9,19.99,-15.808,50.402,134.36,-22.298,136.27,-102.13,80.297,31.812,121.75
-185.57,352.38,-239.78,408.47,-235.95,59.194,20.679,-15.892,50.594,134.18,-21.913,136.1,-101.83,80.954,32.176,121.3
-185.57,352.38,-239.78,408.47,-235.95,59.194,20.679,-15.892,50.594,134.18,-21.913,136.1,-101.83,80.954,32.176,121.3
-184.44,351.01,-239.26,407.84,-234.76,58.499,21.366,-15.968,50.78,134,-21.531,135.92,-101.54,81.613,32.538,120.86
-183.32,349.66,-238.73,407.22,-233.57,57.816,22.051,-16.036,50.961,133.83,-21.15,135.74,-101.25,82.274,32.897,120.41
-182.2,348.31,-238.21,406.61,-232.38,57.144,22.733,-16.098,51.137,133.66,-20.771,135.56,-100.96,82.936,33.254,119.97
-182.2,348.31,-238.21,406.61,-232.38,57.144,22.733,-16.098,51.137,133.66,-20.771,135.56,-100.96,82.936,33.254,119.97
-182.2,348.31,-238.21,406.61,-232.38,57.144,22.733,-16.098,51.137,133.66,-20.771,135.56,-100.96,82.936,33.254,119.97
-181.09,346.97,-237.7,406,-231.19,56.485,23.413,-16.152,51.307,133.48,-20.393,135.38,-100.67,83.599,33.608,119.53
-181.09,346.97,-237.7,406,-231.19,56.485,23.413,-16.152,51.307,133.48,-20.393,135.38,-100.67,83.599,33.608,119.53
-181.09,346.97,-237.7,406,-231.19,56.485,23.413,-16.152,51.307,133.48,-20.393,135.38,-100.67,83.599,33.608,119.53
-179.98,345.63,-237.19,405.39,-230,55.836,24.09,-16.198,51.471,133.31,-20.018,135.19,-100.39,84.265,33.959,119.1
-178.88,344.3,-236.69,404.78,-228.81,55.2,24.765,-16.237,51.63,133.14,-19.644,135,-100.1,84.931,34.308,118.67
-178.88,344.3,-236.69,404.78,-228.81,55.2,24.765,-16.237,51.63,133.14,-19.644,135,-100.1,84.931,34.308,118.67
-177.78,342.98,-236.19,404.18,-227.62,54.575,25.437,-16.269,51.784,132.97,-19.273,134.81,-99.818,85.599,34.654,118.24
-177.78,342.98,-236.19,404.18,-227.62,54.575,25.437,-16.269,51.784,132.97,-19.273,134.81,-99.818,85.599,34.654,118.24
-176.69,341.66,-235.69,403.58,-226.43,53.962,26.107,-16.294,51.932,132.8,-18.903,134.62,-99.536,86.268,34.998,117.82
-176.69,341.66,-235.69,403.58,-226.43,53.962,26.107,-16.294,51.932,132.8,-18.903,134.62,-99.536,86.268,34.998,117.82
-175.61,340.35,-235.2,402.99,-225.24,53.361,26.775,-16.311,52.075,132.64,-18.535,134.42,-99.255,86.939,35.339,117.4
-175.61,340.35,-235.2,402.99,-225.24,53.361,26.775,-16.311,52.075,132.64,-18.535,134.42,-99.255,86.939,35.339,117.4
-175.61,340.35,-235.2,402.99,-225.24,53.361,26.775,-16.311,52.075,132.64,-18.535,134.42,-99.255,86.939,35.339,117.4
-174.53,339.04,-234.71,402.39,-224.05,52.772,27.44,-16.321,52.212,132.47,-18.169,134.22,-98.976,87.61,35.677,116.98
-174.53,339.04,-234.71,402.39,-224.05,52.772,27.44,-16.321,52.212,132.47,-18.169,134.22,-98.976,87.61,35.677,116.98
-173.45,337.75,-234.23,401.8,-222.86,52.194,28.102,-16.324,52.344,132.31,-17.805,134.02,-98.697,88.283,36.013,116.57
-172.39,336.46,-233.75,401.22,-221.67,51.628,28.762,-16.319,52.47,132.14,-17.443,133.82,-98.421,88.957,36.346,116.16
-172.39,336.46,-233.75,401.22,-221.67,51.628,28.762,-16.319,52.47,132.14,-17.443,133.82,-98.421,88.957,36.346,116.16
-172.39,336.46,-233.75,401.22,-221.67,51.628,28.762,-16.319,52.47,132.14,-17.443,133.82,-98.421,88.957,36.346,116.16
-171.32,335.17,-233.27,400.64,-220.48,51.073,29.419,-16.308,52.591,131.98,-17.083,133.62,-98.145,89.632,36.676,115.75
-171.32,335.17,-233.27,400.64,-220.48,51.073,29.419,-16.308,52.591,131.98,-17.083,133.62,-98.145,89.632,36.676,115.75
-171.32,335.17,-233.27,400.64,-220.48,51.073,29.419,-16.308,52.591,131.98,-17.083,133.62,-98.145,89.632,36.676,115.75
-169.22,332.63,-232.33,399.48,-218.1,49.999,30.726,-16.263,52.816,131.66,-16.37,133.2,-97.598,90.985,37.328,114.94
-169.22,332.63,-232.33,399.48,-218.1,49.999,30.726,-16.263,52.816,131.66,-16.37,133.2,-97.598,90.985,37.328,114.94
-169.22,332.63,-232.33,399.48,-218.1,49.999,30.726,-16.263,52.816,131.66,-16.37,133.2,-97.598,90.985,37.328,114.94
-168.17,331.36,-231.87,398.9,-216.92,49.48,31.376,-16.23,52.92,131.5,-16.017,132.99,-97.327,91.662,37.649,114.54
-168.17,331.36,-231.87,398.9,-216.92,49.48,31.376,-16.23,52.92,131.5,-16.017,132.99,-97.327,91.662,37.649,114.54
-167.13,330.11,-231.41,398.33,-215.73,48.972,32.023,-16.19,53.019,131.34,-15.665,132.77,-97.057,92.34,37.968,114.15
-167.13,330.11,-231.41,398.33,-215.73,48.972,32.023,-16.19,53.019,131.34,-15.665,132.77,-97.057,92.34,37.968,114.15
-167.13,330.11,-231.41,398.33,-215.73,48.972,32.023,-16.19,53.019,131.34,-15.665,132.77,-97.057,92.34,37.968,114.15
-165.07,327.61,-230.51,397.19,-213.36,47.992,33.309,-16.09,53.2,131.03,-14.969,132.34,-96.521,93.699,38.598,113.37
-165.07,327.61,-230.51,397.19,-213.36,47.992,33.309,-16.09,53.2,131.03,-14.969,132.34,-96.521,93.699,38.598,113.37
-164.05,326.38,-230.06,396.63,-212.18,47.52,33.948,-16.029,53.283,130.87,-14.625,132.12,-96.256,94.379,38.908,112.98
-164.05,326.38,-230.06,396.63,-212.18,47.52,33.948,-16.029,53.283,130.87,-14.625,132.12,-96.256,94.379,38.908,112.98
-163.03,325.15,-229.62,396.07,-211,47.059,34.584,-15.961,53.36,130.72,-14.282,131.9,-95.991,95.06,39.215,112.6
-163.03,325.15,-229.62,396.07,-211,47.059,34.584,-15.961,53.36,130.72,-14.282,131.9,-95.991,95.06,39.215,112.6
-162.02,323.93,-229.18,395.51,-209.81,46.609,35.218,-15.886,53.431,130.56,-13.942,131.67,-95.728,95.741,39.519,112.22
-161.02,322.71,-228.74,394.95,-208.63,46.172,35.849,-15.805,53.497,130.41,-13.604,131.45,-95.467,96.422,39.821,111.84
-161.02,322.71,-228.74,394.95,-208.63,46.172,35.849,-15.805,53.497,130.41,-13.604,131.45,-95.467,96.422,39.821,111.84
-161.02,322.71,-228.74,394.95,-208.63,46.172,35.849,-15.805,53.497,130.41,-13.604,131.45,-95.467,96.422,39.821,111.84
-160.02,321.5,-228.31,394.4,-207.45,45.746,36.478,-15.717,53.557,130.26,-13.269,131.22,-95.207,97.104,40.119,111.47
-160.02,321.5,-228.31,394.4,-207.45,45.746,36.478,-15.717,53.557,130.26,-13.269,131.22,-95.207,97.104,40.119,111.47
-159.03,320.3,-227.88,393.84,-206.27,45.331,37.103,-15.622,53.612,130.11,-12.936,130.99,-94.948,97.786,40.415,111.1
-159.03,320.3,-227.88,393.84,-206.27,45.331,37.103,-15.622,53.612,130.11,-12.936,130.99,-94.948,97.786,40.415,111.1
-158.05,319.11,-227.46,393.29,-205.09,44.928,37.726,-15.52,53.661,129.96,-12.605,130.76,-94.691,98.468,40.707,110.73
-158.05,319.11,-227.46,393.29,-205.09,44.928,37.726,-15.52,53.661,129.96,-12.605,130.76,-94.691,98.468,40.707,110.73
-157.07,317.92,-227.04,392.74,-203.92,44.537,38.346,-15.411,53.705,129.81,-12.277,130.52,-94.435,99.15,40.997,110.37
-157.07,317.92,-227.04,392.74,-203.92,44.537,38.346,-15.411,53.705,129.81,-12.277,130.52,-94.435,99.15,40.997,110.37
-156.1,316.75,-226.62,392.2,-202.74,44.157,38.964,-15.296,53.744,129.66,-11.951,130.29,-94.18,99.832,41.283,110
-156.1,316.75,-226.62,392.2,-202.74,44.157,38.964,-15.296,53.744,129.66,-11.951,130.29,-94.18,99.832,41.283,110
-155.13,315.57,-226.21,391.65,-201.57,43.789,39.579,-15.175,53.777,129.52,-11.627,130.05,-93.927,100.51,41.566,109.64
-155.13,315.57,-226.21,391.65,-201.57,43.789,39.579,-15.175,53.777,129.52,-11.627,130.05,-93.927,100.51,41.566,109.64
-155.13,315.57,-226.21,391.65,-201.57,43.789,39.579,-15.175,53.777,129.52,-11.627,130.05,-93.927,100.51,41.566,109.64
-154.17,314.41,-225.8,391.11,-200.39,43.432,40.191,-15.046,53.804,129.37,-11.306,129.81,-93.675,101.2,41.846,109.29
-153.21,313.25,-225.39,390.56,-199.22,43.087,40.8,-14.912,53.826,129.23,-10.988,129.57,-93.425,101.88,42.123,108.93
-153.21,313.25,-225.39,390.56,-199.22,43.087,40.8,-14.912,53.826,129.23,-10.988,129.57,-93.425,101.88,42.123,108.93
-152.27,312.1,-224.98,390.02,-198.05,42.753,41.406,-14.771,53.842,129.08,-10.672,129.32,-93.176,102.56,42.397,108.58
-152.27,312.1,-224.98,390.02,-198.05,42.753,41.406,-14.771,53.842,129.08,-10.672,129.32,-93.176,102.56,42.397,108.58
-152.27,312.1,-224.98,390.02,-198.05,42.753,41.406,-14.771,53.842,129.08,-10.672,129.32,-93.176,102.56,42.397,108.58
-151.32,310.96,-224.58,389.49,-196.88,42.43,42.01,-14.623,53.853,128.94,-10.358,129.08,-92.928,103.24,42.668,108.24
-151.32,310.96,-224.58,389.49,-196.88,42.43,42.01,-14.623,53.853,128.94,-10.358,129.08,-92.928,103.24,42.668,108.24
-151.32,310.96,-224.58,389.49,-196.88,42.43,42.01,-14.623,53.853,128.94,-10.358,129.08,-92.928,103.24,42.668,108.24
-149.46,308.69,-223.79,388.41,-194.55,41.819,43.209,-14.309,53.859,128.65,-9.739,128.58,-92.437,104.6,43.2,107.55
-149.46,308.69,-223.79,388.41,-194.55,41.819,43.209,-14.309,53.859,128.65,-9.739,128.58,-92.437,104.6,43.2,107.55
-149.46,308.69,-223.79,388.41,-194.55,41.819,43.209,-14.309,53.859,128.65,-9.739,128.58,-92.437,104.6,43.2,107.55
-148.54,307.57,-223.4,387.88,-193.38,41.531,43.804,-14.142,53.853,128.51,-9.4333,128.33,-92.194,105.28,43.461,107.21
-148.54,307.57,-223.4,387.88,-193.38,41.531,43.804,-14.142,53.853,128.51,-9.4333,128.33,-92.194,105.28,43.461,107.21
-147.62,306.46,-223.01,387.35,-192.22,41.254,44.397,-13.969,53.842,128.37,-9.1302,128.08,-91.951,105.96,43.719,106.87
-147.62,306.46,-223.01,387.35,-192.22,41.254,44.397,-13.969,53.842,128.37,-9.1302,128.08,-91.951,105.96,43.719,106.87
-147.62,306.46,-223.01,387.35,-192.22,41.254,44.397,-13.969,53.842,128.37,-9.1302,128.08,-91.951,105.96,43.719,106.87
-145.81,304.25,-222.24,386.28,-189.89,40.733,45.573,-13.605,53.804,128.09,-8.5318,127.56,-91.471,107.32,44.225,106.2
-145.81,304.25,-222.24,386.28,-189.89,40.733,45.573,-13.605,53.804,128.09,-8.5318,127.56,-91.471,107.32,44.225,106.2
-144.91,303.16,-221.86,385.75,-188.73,40.49,46.157,-13.414,53.776,127.95,-8.2366,127.3,-91.233,107.99,44.473,105.87
-144.91,303.16,-221.86,385.75,-188.73,40.49,46.157,-13.414,53.776,127.95,-8.2366,127.3,-91.233,107.99,44.473,105.87
-144.02,302.07,-221.48,385.22,-187.58,40.257,46.738,-13.217,53.744,127.82,-7.9441,127.04,-90.996,108.67,44.718,105.54
-144.02,302.07,-221.48,385.22,-187.58,40.257,46.738,-13.217,53.744,127.82,-7.9441,127.04,-90.996,108.67,44.718,105.54
-143.13,300.99,-221.11,384.7,-186.42,40.036,47.316,-13.013,53.706,127.68,-7.6543,126.78,-90.761,109.34,44.96,105.22
-143.13,300.99,-221.11,384.7,-186.42,40.036,47.316,-13.013,53.706,127.68,-7.6543,126.78,-90.761,109.34,44.96,105.22
-142.25,299.92,-220.74,384.17,-185.27,39.826,47.891,-12.804,53.662,127.54,-7.3672,126.52,-90.527,110.02,45.198,104.9
-142.25,299.92,-220.74,384.17,-185.27,39.826,47.891,-12.804,53.662,127.54,-7.3672,126.52,-90.527,110.02,45.198,104.9
-141.38,298.86,-220.37,383.64,-184.11,39.627,48.464,-12.589,53.613,127.41,-7.0829,126.25,-90.294,110.69,45.433,104.58
-141.38,298.86,-220.37,383.64,-184.11,39.627,48.464,-12.589,53.613,127.41,-7.0829,126.25,-90.294,110.69,45.433,104.58
-140.51,297.8,-220,383.12,-182.96,39.439,49.033,-12.368,53.558,127.27,-6.8013,125.98,-90.062,111.36,45.664,104.26
-140.51,297.8,-220,383.12,-182.96,39.439,49.033,-12.368,53.558,127.27,-6.8013,125.98,-90.062,111.36,45.664,104.26
-140.51,297.8,-220,383.12,-182.96,39.439,49.033,-12.368,53.558,127.27,-6.8013,125.98,-90.062,111.36,45.664,104.26
-139.66,296.75,-219.64,382.59,-181.81,39.262,49.6,-12.141,53.499,127.14,-6.5224,125.71,-89.832,112.03,45.892,103.94
-138.8,295.71,-219.28,382.07,-180.67,39.096,50.163,-11.909,53.433,127,-6.2464,125.44,-89.603,112.7,46.117,103.63
-138.8,295.71,-219.28,382.07,-180.67,39.096,50.163,-11.909,53.433,127,-6.2464,125.44,-89.603,112.7,46.117,103.63
-137.96,294.68,-218.92,381.54,-179.52,38.941,50.724,-11.671,53.363,126.87,-5.9731,125.17,-89.375,113.37,46.338,103.32
-137.96,294.68,-218.92,381.54,-179.52,38.941,50.724,-11.671,53.363,126.87,-5.9731,125.17,-89.375,113.37,46.338,103.32
-137.12,293.65,-218.56,381.02,-178.38,38.796,51.282,-11.427,53.287,126.73,-5.7027,124.89,-89.149,114.03,46.556,103.01
-137.12,293.65,-218.56,381.02,-178.38,38.796,51.282,-11.427,53.287,126.73,-5.7027,124.89,-89.149,114.03,46.556,103.01
-136.28,292.63,-218.21,380.5,-177.24,38.662,51.837,-11.177,53.205,126.6,-5.4351,124.62,-88.924,114.69,46.771,102.71
-136.28,292.63,-218.21,380.5,-177.24,38.662,51.837,-11.177,53.205,126.6,-5.4351,124.62,-88.924,114.69,46.771,102.71
-135.46,291.62,-217.85,379.97,-176.1,38.54,52.389,-10.923,53.119,126.47,-5.1703,124.34,-88.7,115.36,46.981,102.4
-135.46,291.62,-217.85,379.97,-176.1,38.54,52.389,-10.923,53.119,126.47,-5.1703,124.34,-88.7,115.36,46.981,102.4
-135.46,291.62,-217.85,379.97,-176.1,38.54,52.389,-10.923,53.119,126.47,-5.1703,124.34,-88.7,115.36,46.981,102.4
-134.64,290.61,-217.5,379.45,-174.96,38.427,52.938,-10.662,53.026,126.34,-4.9083,124.06,-88.477,116.02,47.189,102.1
-134.64,290.61,-217.5,379.45,-174.96,38.427,52.938,-10.662,53.026,126.34,-4.9083,124.06,-88.477,116.02,47.189,102.1
-133.82,289.61,-217.16,378.93,-173.83,38.326,53.484,-10.397,52.929,126.2,-4.6493,123.78,-88.256,116.68,47.393,101.8
-133.82,289.61,-217.16,378.93,-173.83,38.326,53.484,-10.397,52.929,126.2,-4.6493,123.78,-88.256,116.68,47.393,101.8
-133.82,289.61,-217.16,378.93,-173.83,38.326,53.484,-10.397,52.929,126.2,-4.6493,123.78,-88.256,116.68,47.393,101.8
-132.21,287.64,-216.47,377.88,-171.56,38.154,54.567,-9.8492,52.718,125.94,-4.1398,123.21,-87.817,117.99,47.79,101.21
-132.21,287.64,-216.47,377.88,-171.56,38.154,54.567,-9.8492,52.718,125.94,-4.1398,123.21,-87.817,117.99,47.79,101.21
-131.42,286.66,-216.12,377.36,-170.43,38.084,55.105,-9.5676,52.605,125.81,-3.8894,122.92,-87.599,118.64,47.984,100.91
-131.42,286.66,-216.12,377.36,-170.43,38.084,55.105,-9.5676,52.605,125.81,-3.8894,122.92,-87.599,118.64,47.984,100.91
-130.63,285.69,-215.78,376.84,-169.31,38.025,55.639,-9.2808,52.486,125.68,-3.6419,122.63,-87.382,119.29,48.173,100.62
-129.85,284.73,-215.45,376.31,-168.18,37.976,56.17,-8.989,52.362,125.55,-3.3974,122.34,-87.167,119.94,48.36,100.33
-129.85,284.73,-215.45,376.31,-168.18,37.976,56.17,-8.989,52.362,125.55,-3.3974,122.34,-87.167,119.94,48.36,100.33
-129.07,283.77,-215.11,375.79,-167.06,37.937,56.698,-8.692,52.233,125.42,-3.1557,122.05,-86.953,120.58,48.542,100.05
-129.07,283.77,-215.11,375.79,-167.06,37.937,56.698,-8.692,52.233,125.42,-3.1557,122.05,-86.953,120.58,48.542,100.05
-129.07,283.77,-215.11,375.79,-167.06,37.937,56.698,-8.692,52.233,125.42,-3.1557,122.05,-86.953,120.58,48.542,100.05
-128.3,282.82,-214.78,375.26,-165.94,37.908,57.224,-8.3901,52.099,125.29,-2.9171,121.76,-86.74,121.23,48.721,99.76
-128.3,282.82,-214.78,375.26,-165.94,37.908,57.224,-8.3901,52.099,125.29,-2.9171,121.76,-86.74,121.23,48.721,99.76
-127.54,281.88,-214.44,374.74,-164.82,37.89,57.746,-8.0832,51.959,125.16,-2.6814,121.47,-86.528,121.87,48.897,99.477
-127.54,281.88,-214.44,374.74,-164.82,37.89,57.746,-8.0832,51.959,125.16,-2.6814,121.47,-86.528,121.87,48.897,99.477
-126.78,280.95,-214.11,374.21,-163.71,37.882,58.265,-7.7714,51.814,125.03,-2.4486,121.17,-86.317,122.51,49.069,99.195
-126.03,280.02,-213.78,373.69,-162.59,37.884,58.782,-7.4548,51.664,124.9,-2.2189,120.87,-86.107,123.14,49.237,98.915
-126.03,280.02,-213.78,373.69,-162.59,37.884,58.782,-7.4548,51.664,124.9,-2.2189,120.87,-86.107,123.14,49.237,98.915
-126.03,280.02,-213.78,373.69,-162.59,37.884,58.782,-7.4548,51.664,124.9,-2.2189,120.87,-86.107,123.14,49.237,98.915
-125.29,279.1,-213.45,373.16,-161.48,37.896,59.295,-7.1334,51.509,124.77,-1.9921,120.57,-85.899,123.77,49.401,98.637
-125.29,279.1,-213.45,373.16,-161.48,37.896,59.295,-7.1334,51.509,124.77,-1.9921,120.57,-85.899,123.77,49.401,98.637
-125.29,279.1,-213.45,373.16,-161.48,37.896,59.295,-7.1334,51.509,124.77,-1.9921,120.57,-85.899,123.77,49.401,98.637
-124.55,278.19,-213.13,372.63,-160.37,37.918,59.805,-6.8074,51.349,124.64,-1.7683,120.27,-85.691,124.4,49.562,98.361
-124.55,278.19,-213.13,372.63,-160.37,37.918,59.805,-6.8074,51.349,124.64,-1.7683,120.27,-85.691,124.4,49.562,98.361
-123.82,277.28,-212.8,372.1,-159.27,37.95,60.312,-6.4767,51.183,124.51,-1.5475,119.97,-85.485,125.03,49.72,98.086
-123.1,276.38,-212.48,371.57,-158.17,37.992,60.816,-6.1414,51.012,124.38,-1.3298,119.66,-85.28,125.66,49.873,97.813
-123.1,276.38,-212.48,371.57,-158.17,37.992,60.816,-6.1414,51.012,124.38,-1.3298,119.66,-85.28,125.66,49.873,97.813
-122.38,275.49,-212.16,371.04,-157.06,38.044,61.317,-5.8016,50.837,124.25,-1.115,119.36,-85.076,126.28,50.023,97.542
-122.38,275.49,-212.16,371.04,-157.06,38.044,61.317,-5.8016,50.837,124.25,-1.115,119.36,-85.076,126.28,50.023,97.542
-121.67,274.6,-211.83,370.51,-155.97,38.105,61.816,-5.4573,50.656,124.12,-0.9033,119.05,-84.872,126.9,50.169,97.273
-121.67,274.6,-211.83,370.51,-155.97,38.105,61.816,-5.4573,50.656,124.12,-0.9033,119.05,-84.872,126.9,50.169,97.273
-121.67,274.6,-211.83,370.51,-155.97,38.105,61.816,-5.4573,50.656,124.12,-0.9033,119.05,-84.872,126.9,50.169,97.273
-120.97,273.73,-211.51,369.98,-154.87,38.176,62.311,-5.1086,50.47,123.98,-0.69463,118.74,-84.67,127.51,50.312,97.005
-120.97,273.73,-211.51,369.98,-154.87,38.176,62.311,-5.1086,50.47,123.98,-0.69463,118.74,-84.67,127.51,50.312,97.005
-120.27,272.85,-211.2,369.44,-153.78,38.257,62.803,-4.7556,50.279,123.85,-0.48899,118.43,-84.469,128.12,50.45,96.738
-120.27,272.85,-211.2,369.44,-153.78,38.257,62.803,-4.7556,50.279,123.85,-0.48899,118.43,-84.469,128.12,50.45,96.738
-119.58,271.99,-210.88,368.91,-152.69,38.347,63.291,-4.3983,50.082,123.72,-0.28641,118.12,-84.269,128.73,50.585,96.474
-118.89,271.13,-210.56,368.37,-151.6,38.447,63.777,-4.0368,49.881,123.59,-0.086881,117.8,-84.07,129.34,50.717,96.21
-118.89,271.13,-210.56,368.37,-151.6,38.447,63.777,-4.0368,49.881,123.59,-0.086881,117.8,-84.07,129.34,50.717,96.21
-118.21,270.28,-210.25,367.83,-150.51,38.557,64.26,-3.6712,49.675,123.46,0.10959,117.49,-83.872,129.94,50.844,95.949
-118.21,270.28,-210.25,367.83,-150.51,38.557,64.26,-3.6712,49.675,123.46,0.10959,117.49,-83.872,129.94,50.844,95.949
-117.54,269.43,-209.93,367.29,-149.43,38.675,64.74,-3.3014,49.464,123.33,0.30298,117.17,-83.674,130.54,50.968,95.688
-117.54,269.43,-209.93,367.29,-149.43,38.675,64.74,-3.3014,49.464,123.33,0.30298,117.17,-83.674,130.54,50.968,95.688
-117.54,269.43,-209.93,367.29,-149.43,38.675,64.74,-3.3014,49.464,123.33,0.30298,117.17,-83.674,130.54,50.968,95.688
-116.87,268.6,-209.62,366.75,-148.35,38.803,65.216,-2.9276,49.248,123.2,0.49331,116.85,-83.478,131.13,51.088,95.429
-116.21,267.77,-209.3,366.21,-147.28,38.94,65.69,-2.5499,49.027,123.06,0.68056,116.53,-83.283,131.72,51.204,95.172
-116.21,267.77,-209.3,366.21,-147.28,38.94,65.69,-2.5499,49.027,123.06,0.68056,116.53,-83.283,131.72,51.204,95.172
-115.56,266.94,-208.99,365.67,-146.2,39.087,66.16,-2.1683,48.801,122.93,0.86472,116.21,-83.089,132.31,51.316,94.915
-115.56,266.94,-208.99,365.67,-146.2,39.087,66.16,-2.1683,48.801,122.93,0.86472,116.21,-83.089,132.31,51.316,94.915
-114.91,266.12,-208.68,365.12,-145.13,39.242,66.628,-1.7828,48.57,122.8,1.0458,115.89,-82.895,132.89,51.425,94.661
-114.91,266.12,-208.68,365.12,-145.13,39.242,66.628,-1.7828,48.57,122.8,1.0458,115.89,-82.895,132.89,51.425,94.661
-114.27,265.31,-208.37,364.57,-144.06,39.407,67.092,-1.3935,48.334,122.66,1.2238,115.56,-82.702,133.47,51.53,94.407
-114.27,265.31,-208.37,364.57,-144.06,39.407,67.092,-1.3935,48.334,122.66,1.2238,115.56,-82.702,133.47,51.53,94.407
-114.27,265.31,-208.37,364.57,-144.06,39.407,67.092,-1.3935,48.334,122.66,1.2238,115.56,-82.702,133.47,51.53,94.407
-113.64,264.5,-208.06,364.02,-143,39.58,67.553,-1.0006,48.093,122.53,1.3987,115.24,-82.511,134.04,51.631,94.155
-113.01,263.71,-207.75,363.47,-141.93,39.762,68.011,-0.60397,47.848,122.4,1.5705,114.91,-82.32,134.61,51.728,93.903
-113.01,263.71,-207.75,363.47,-141.93,39.762,68.011,-0.60397,47.848,122.4,1.5705,114.91,-82.32,134.61,51.728,93.903
-112.39,262.91,-207.44,362.92,-140.87,39.954,68.466,-0.20378,47.597,122.26,1.7392,114.58,-82.13,135.18,51.821,93.654
-112.39,262.91,-207.44,362.92,-140.87,39.954,68.466,-0.20378,47.597,122.26,1.7392,114.58,-82.13,135.18,51.821,93.654
-111.77,262.13,-207.13,362.36,-139.81,40.153,68.918,0.19993,47.342,122.12,1.9048,114.25,-81.941,135.74,51.911,93.405
-111.77,262.13,-207.13,362.36,-139.81,40.153,68.918,0.19993,47.342,122.12,1.9048,114.25,-81.941,135.74,51.911,93.405
-111.16,261.35,-206.82,361.8,-138.76,40.362,69.366,0.6071,47.082,121.99,2.0673,113.92,-81.752,136.3,51.996,93.157
-111.16,261.35,-206.82,361.8,-138.76,40.362,69.366,0.6071,47.082,121.99,2.0673,113.92,-81.752,136.3,51.996,93.157
-110.56,260.57,-206.51,361.24,-137.71,40.579,69.812,1.0177,46.818,121.85,2.2266,113.59,-81.565,136.86,52.078,92.911
-110.56,260.57,-206.51,361.24,-137.71,40.579,69.812,1.0177,46.818,121.85,2.2266,113.59,-81.565,136.86,52.078,92.911
-109.96,259.81,-206.21,360.68,-136.66,40.805,70.254,1.4316,46.548,121.71,2.3829,113.25,-81.378,137.41,52.156,92.665
-109.96,259.81,-206.21,360.68,-136.66,40.805,70.254,1.4316,46.548,121.71,2.3829,113.25,-81.378,137.41,52.156,92.665
-109.37,259.05,-205.9,360.11,-135.62,41.039,70.694,1.8487,46.274,121.57,2.5361,112.92,-81.192,137.95,52.23,92.421
-109.37,259.05,-205.9,360.11,-135.62,41.039,70.694,1.8487,46.274,121.57,2.5361,112.92,-81.192,137.95,52.23,92.421
-108.78,258.29,-205.59,359.55,-134.57,41.282,71.13,2.2691,45.995,121.43,2.6861,112.58,-81.007,138.49,52.301,92.177
-108.78,258.29,-205.59,359.55,-134.57,41.282,71.13,2.2691,45.995,121.43,2.6861,112.58,-81.007,138.49,52.301,92.177
-108.78,258.29,-205.59,359.55,-134.57,41.282,71.13,2.2691,45.995,121.43,2.6861,112.58,-81.007,138.49,52.301,92.177
-108.2,257.54,-205.29,358.98,-133.53,41.532,71.563,2.6926,45.712,121.29,2.833,112.24,-80.822,139.03,52.367,91.935
-108.2,257.54,-205.29,358.98,-133.53,41.532,71.563,2.6926,45.712,121.29,2.833,112.24,-80.822,139.03,52.367,91.935
-107.63,256.8,-204.98,358.41,-132.5,41.792,71.992,3.1191,45.424,121.15,2.9768,111.9,-80.638,139.56,52.43,91.693
-107.06,256.06,-204.67,357.83,-131.46,42.059,72.419,3.5487,45.131,121.01,3.1175,111.56,-80.455,140.08,52.488,91.452
-107.06,256.06,-204.67,357.83,-131.46,42.059,72.419,3.5487,45.131,121.01,3.1175,111.56,-80.455,140.08,52.488,91.452
-107.06,256.06,-204.67,357.83,-131.46,42.059,72.419,3.5487,45.131,121.01,3.1175,111.56,-80.455,140.08,52.488,91.452
-106.5,255.33,-204.37,357.26,-130.43,42.334,72.843,3.9812,44.834,120.87,3.2551,111.21,-80.273,140.6,52.543,91.212
-106.5,255.33,-204.37,357.26,-130.43,42.334,72.843,3.9812,44.834,120.87,3.2551,111.21,-80.273,140.6,52.543,91.212
-106.5,255.33,-204.37,357.26,-130.43,42.334,72.843,3.9812,44.834,120.87,3.2551,111.21,-80.273,140.6,52.543,91.212
-105.4,253.89,-203.75,356.09,-128.38,42.909,73.68,4.8548,44.226,120.58,3.521,110.52,-79.91,141.63,52.641,90.735
-105.4,253.89,-203.75,356.09,-128.38,42.909,73.68,4.8548,44.226,120.58,3.521,110.52,-79.91,141.63,52.641,90.735
-104.85,253.18,-203.45,355.51,-127.36,43.208,74.094,5.2958,43.915,120.43,3.6492,110.18,-79.73,142.14,52.684,90.498
-104.85,253.18,-203.45,355.51,-127.36,43.208,74.094,5.2958,43.915,120.43,3.6492,110.18,-79.73,142.14,52.684,90.498
-104.32,252.47,-203.14,354.92,-126.35,43.515,74.505,5.7394,43.6,120.29,3.7743,109.83,-79.55,142.64,52.724,90.261
-103.78,251.77,-202.83,354.33,-125.33,43.829,74.913,6.1857,43.28,120.14,3.8963,109.48,-79.371,143.13,52.759,90.025
-103.78,251.77,-202.83,354.33,-125.33,43.829,74.913,6.1857,43.28,120.14,3.8963,109.48,-79.371,143.13,52.759,90.025
-103.78,251.77,-202.83,354.33,-125.33,43.829,74.913,6.1857,43.28,120.14,3.8963,109.48,-79.371,143.13,52.759,90.025
-103.26,251.07,-202.52,353.74,-124.32,44.151,75.317,6.6345,42.956,119.99,4.0153,109.13,-79.192,143.62,52.791,89.79
-103.26,251.07,-202.52,353.74,-124.32,44.151,75.317,6.6345,42.956,119.99,4.0153,109.13,-79.192,143.62,52.791,89.79
-102.74,250.39,-202.22,353.14,-123.31,44.481,75.718,7.0858,42.628,119.84,4.1311,108.77,-79.014,144.11,52.818,89.555
-102.74,250.39,-202.22,353.14,-123.31,44.481,75.718,7.0858,42.628,119.84,4.1311,108.77,-79.014,144.11,52.818,89.555
-102.74,250.39,-202.22,353.14,-123.31,44.481,75.718,7.0858,42.628,119.84,4.1311,108.77,-79.014,144.11,52.818,89.555
-102.22,249.7,-201.91,352.54,-122.31,44.818,76.117,7.5396,42.295,119.69,4.2437,108.42,-78.836,144.59,52.842,89.321
-101.72,249.02,-201.6,351.94,-121.31,45.163,76.512,7.9957,41.958,119.54,4.3533,108.06,-78.66,145.06,52.862,89.087
-101.21,248.35,-201.29,351.33,-120.31,45.515,76.903,8.4541,41.616,119.38,4.4598,107.71,-78.483,145.53,52.878,88.854
-101.21,248.35,-201.29,351.33,-120.31,45.515,76.903,8.4541,41.616,119.38,4.4598,107.71,-78.483,145.53,52.878,88.854
-101.21,248.35,-201.29,351.33,-120.31,45.515,76.903,8.4541,41.616,119.38,4.4598,107.71,-78.483,145.53,52.878,88.854
-100.72,247.68,-200.98,350.72,-119.31,45.874,77.292,8.9148,41.271,119.23,4.5632,107.35,-78.307,145.99,52.89,88.622
-100.72,247.68,-200.98,350.72,-119.31,45.874,77.292,8.9148,41.271,119.23,4.5632,107.35,-78.307,145.99,52.89,88.622
-100.22,247.02,-200.67,350.11,-118.32,46.24,77.677,9.3776,40.921,119.07,4.6635,106.99,-78.132,146.45,52.899,88.39
-100.22,247.02,-200.67,350.11,-118.32,46.24,77.677,9.3776,40.921,119.07,4.6635,106.99,-78.132,146.45,52.899,88.39
-99.739,246.36,-200.36,349.5,-117.33,46.614,78.059,9.8426,40.567,118.92,4.7607,106.63,-77.957,146.9,52.903,88.159
-99.739,246.36,-200.36,349.5,-117.33,46.614,78.059,9.8426,40.567,118.92,4.7607,106.63,-77.957,146.9,52.903,88.159
-99.259,245.71,-200.05,348.88,-116.35,46.994,78.438,10.31,40.208,118.76,4.8549,106.27,-77.782,147.34,52.904,87.928
-98.785,245.06,-199.74,348.26,-115.37,47.381,78.814,10.779,39.846,118.6,4.9459,105.9,-77.608,147.78,52.9,87.697
-98.785,245.06,-199.74,348.26,-115.37,47.381,78.814,10.779,39.846,118.6,4.9459,105.9,-77.608,147.78,52.9,87.697
-98.785,245.06,-199.74,348.26,-115.37,47.381,78.814,10.779,39.846,118.6,4.9459,105.9,-77.608,147.78,52.9,87.697
-98.316,244.42,-199.43,347.63,-114.39,47.775,79.186,11.249,39.479,118.44,5.0338,105.54,-77.435,148.22,52.893,87.466
-98.316,244.42,-199.43,347.63,-114.39,47.775,79.186,11.249,39.479,118.44,5.0338,105.54,-77.435,148.22,52.893,87.466
-98.316,244.42,-199.43,347.63,-114.39,47.775,79.186,11.249,39.479,118.44,5.0338,105.54,-77.435,148.22,52.893,87.466
-97.853,243.79,-199.11,347,-113.41,48.176,79.556,11.722,39.109,118.27,5.1187,105.17,-77.262,148.64,52.882,87.236
-97.853,243.79,-199.11,347,-113.41,48.176,79.556,11.722,39.109,118.27,5.1187,105.17,-77.262,148.64,52.882,87.236
-97.853,243.79,-199.11,347,-113.41,48.176,79.556,11.722,39.109,118.27,5.1187,105.17,-77.262,148.64,52.882,87.236
-96.942,242.53,-198.49,345.74,-111.47,48.997,80.285,12.673,38.356,117.94,5.2793,104.44,-76.917,149.48,52.848,86.777
-96.942,242.53,-198.49,345.74,-111.47,48.997,80.285,12.673,38.356,117.94,5.2793,104.44,-76.917,149.48,52.848,86.777
-96.942,242.53,-198.49,345.74,-111.47,48.997,80.285,12.673,38.356,117.94,5.2793,104.44,-76.917,149.48,52.848,86.777
-96.495,241.91,-198.17,345.1,-110.51,49.418,80.644,13.151,37.973,117.78,5.355,104.07,-76.745,149.89,52.826,86.548
-96.495,241.91,-198.17,345.1,-110.51,49.418,80.644,13.151,37.973,117.78,5.355,104.07,-76.745,149.89,52.826,86.548
-96.495,241.91,-198.17,345.1,-110.51,49.418,80.644,13.151,37.973,117.78,5.355,104.07,-76.745,149.89,52.826,86.548
-95.617,240.68,-197.54,343.81,-108.59,50.278,81.354,14.111,37.196,117.44,5.4972,103.32,-76.402,150.69,52.769,86.09
-95.617,240.68,-197.54,343.81,-108.59,50.278,81.354,14.111,37.196,117.44,5.4972,103.32,-76.402,150.69,52.769,86.09
-95.617,240.68,-197.54,343.81,-108.59,50.278,81.354,14.111,37.196,117.44,5.4972,103.32,-76.402,150.69,52.769,86.09
-95.186,240.08,-197.22,343.16,-107.64,50.717,81.704,14.594,36.802,117.26,5.5637,102.95,-76.231,151.07,52.735,85.861
-94.761,239.48,-196.9,342.51,-106.68,51.163,82.051,15.078,36.404,117.09,5.6272,102.58,-76.06,151.46,52.697,85.633
-94.761,239.48,-196.9,342.51,-106.68,51.163,82.051,15.078,36.404,117.09,5.6272,102.58,-76.06,151.46,52.697,85.633
-94.34,238.88,-196.58,341.85,-105.74,51.614,82.394,15.563,36.002,116.91,5.6877,102.2,-75.889,151.83,52.655,85.404
-94.34,238.88,-196.58,341.85,-105.74,51.614,82.394,15.563,36.002,116.91,5.6877,102.2,-75.889,151.83,52.655,85.404
-93.925,238.29,-196.26,341.19,-104.79,52.072,82.735,16.05,35.596,116.74,5.7451,101.82,-75.719,152.2,52.61,85.176
-93.925,238.29,-196.26,341.19,-104.79,52.072,82.735,16.05,35.596,116.74,5.7451,101.82,-75.719,152.2,52.61,85.176
-93.514,237.7,-195.94,340.53,-103.85,52.536,83.072,16.538,35.186,116.56,5.7995,101.44,-75.549,152.57,52.56,84.947
-93.514,237.7,-195.94,340.53,-103.85,52.536,83.072,16.538,35.186,116.56,5.7995,101.44,-75.549,152.57,52.56,84.947
-93.514,237.7,-195.94,340.53,-103.85,52.536,83.072,16.538,35.186,116.56,5.7995,101.44,-75.549,152.57,52.56,84.947
-93.109,237.12,-195.62,339.86,-102.92,53.005,83.406,17.027,34.773,116.38,5.8509,101.06,-75.38,152.92,52.507,84.719
-93.109,237.12,-195.62,339.86,-102.92,53.005,83.406,17.027,34.773,116.38,5.8509,101.06,-75.38,152.92,52.507,84.719
-92.709,236.54,-195.29,339.19,-101.98,53.48,83.736,17.517,34.357,116.2,5.8993,100.68,-75.21,153.27,52.45,84.49
