1464.7,54.3,20.105,0,-0.013138,0,1660.9,57.57,0,0,0,0,0.0086902,0
1464.7,54.3,20.105,0,-0.013138,0,1660.9,57.57,0,0,0,0,0.0086902,0
1466.7,54.3,20.104,0,-0.013552,0,1660.9,57.57,0,0,0,0,0.0087801,0
1467.9,54.3,20.103,0,-0.013794,0,1660.9,57.57,0,0,0,0,0.008835,0
1467.9,54.3,20.103,0,-0.013794,0,1660.9,57.57,0,0,0,0,0.008835,0
1467.9,54.3,20.103,0,-0.013794,0,1660.9,57.57,0,0,0,0,0.008835,0
1467.9,54.3,20.103,0,-0.013794,0,1660.9,57.57,0,0,0,0,0.008835,0
1469.5,54.3,20.102,0,-0.01412,0,1660.9,57.57,0,0,0,0,0.0089092,0
1469.5,54.3,20.102,0,-0.01412,0,1660.9,57.57,0,0,0,0,0.0089092,0
1469.5,54.3,20.102,0,-0.01412,0,1660.9,57.57,0,0,0,0,0.0089092,0
1469.5,54.3,20.102,0,-0.01412,0,1660.9,57.57,0,0,0,0,0.0089092,0
1469.5,54.3,20.102,0,-0.01412,0,1660.9,57.57,0,0,0,0,0.0089092,0
1469.5,54.3,20.102,0,-0.01412,0,1660.9,57.57,0,0,0,0,0.0089092,0
1469.5,54.3,20.102,0,-0.01412,0,1660.9,57.57,0,0,0,0,0.0089092,0
1469.5,54.3,20.102,0,-0.01412,0,1660.9,57.57,0,0,0,0,0.0089092,0
1469.5,54.3,20.102,0,-0.01412,0,1660.9,57.57,0,0,0,0,0.0089092,0
1469.5,54.3,20.102,0,-0.01412,0,1660.9,57.57,0,0,0,0,0.0089092,0
1469.5,54.3,20.102,0,-0.01412,0,1660.9,57.57,0,0,0,0,0.0089092,0
1469.5,54.3,20.102,0,-0.01412,0,1660.9,57.57,0,0,0,0,0.0089092,0
1469.5,54.3,20.102,0,-0.01412,0,1660.9,57.57,0,0,0,0,0.0089092,0
1469.5,54.3,20.102,0,-0.01412,0,1660.9,57.57,0,0,0,0,0.0089092,0
1469.5,54.3,20.102,0,-0.01412,0,1660.9,57.57,0,0,0,0,0.0089092,0
1469.5,54.3,20.102,0,-0.01412,0,1660.9,57.57,0,0,0,0,0.0089092,0
1469.5,54.3,20.102,0,-0.01412,0,1660.9,57.57,0,0,0,0,0.0089092,0
1469.5,54.3,20.102,0,-0.01412,0,1660.9,57.57,0,0,0,0,0.0089092,0
1469.5,54.3,20.102,0,-0.01412,0,1660.9,57.57,0,0,0,0,0.0089092,0
1471.5,54.3,20.101,0,-0.014525,0,1660.9,57.57,0,0,0,0,0.0090038,0
1472.8,54.3,20.1,0,-0.014764,0,1660.9,57.57,0,0,0,0,0.0090615,0
1472.8,54.3,20.1,0,-0.014764,0,1660.9,57.57,0,0,0,0,0.0090615,0
1472.8,54.3,20.1,0,-0.014764,0,1660.9,57.57,0,0,0,0,0.0090615,0
1472.8,54.3,20.1,0,-0.014764,0,1660.9,57.57,0,0,0,0,0.0090615,0
1474.4,54.3,20.099,0,-0.015084,0,1660.9,57.57,0,0,0,0,0.0091396,0
1474.4,54.3,20.099,0,-0.015084,0,1660.9,57.57,0,0,0,0,0.0091396,0
1474.4,54.3,20.099,0,-0.015084,0,1660.9,57.57,0,0,0,0,0.0091396,0
1474.4,54.3,20.099,0,-0.015084,0,1660.9,57.57,0,0,0,0,0.0091396,0
1474.4,54.3,20.099,0,-0.015084,0,1660.9,57.57,0,0,0,0,0.0091396,0
1474.4,54.3,20.099,0,-0.015084,0,1660.9,57.57,0,0,0,0,0.0091396,0
1474.4,54.3,20.099,0,-0.015084,0,1660.9,57.57,0,0,0,0,0.0091396,0
1474.4,54.3,20.099,0,-0.015084,0,1660.9,57.57,0,0,0,0,0.0091396,0
1474.4,54.3,20.099,0,-0.015084,0,1660.9,57.57,0,0,0,0,0.0091396,0
1474.4,54.3,20.099,0,-0.015084,0,1660.9,57.57,0,0,0,0,0.0091396,0
1474.4,54.3,20.099,0,-0.015084,0,1660.9,57.57,0,0,0,0,0.0091396,0
1474.4,54.3,20.099,0,-0.015084,0,1660.9,57.57,0,0,0,0,0.0091396,0
1474.4,54.3,20.099,0,-0.015084,0,1660.9,57.57,0,0,0,0,0.0091396,0
1474.4,54.3,20.099,0,-0.015084,0,1660.9,57.57,0,0,0,0,0.0091396,0
1474.4,54.3,20.099,0,-0.015084,0,1660.9,57.57,0,0,0,0,0.0091396,0
1474.4,54.3,20.099,0,-0.015084,0,1660.9,57.57,0,0,0,0,0.0091396,0
1474.4,54.3,20.099,0,-0.015084,0,1660.9,57.57,0,0,0,0,0.0091396,0
1474.4,54.3,20.099,0,-0.015084,0,1660.9,57.57,0,0,0,0,0.0091396,0
1474.4,54.3,20.099,0,-0.015084,0,1660.9,57.57,0,0,0,0,0.0091396,0
1476.4,54.3,20.097,0,-0.01548,0,1660.9,57.57,0,0,0,0,0.0092391,0
1476.4,54.3,20.097,0,-0.01548,0,1660.9,57.57,0,0,0,0,0.0092391,0
1477.6,54.3,20.096,0,-0.015717,0,1660.9,57.57,0,0,0,0,0.0092998,0
1477.6,54.3,20.096,0,-0.015717,0,1660.9,57.57,0,0,0,0,0.0092998,0
1477.6,54.3,20.096,0,-0.015717,0,1660.9,57.57,0,0,0,0,0.0092998,0
1477.6,54.3,20.096,0,-0.015717,0,1660.9,57.57,0,0,0,0,0.0092998,0
1477.6,54.3,20.096,0,-0.015717,0,1660.9,57.57,0,0,0,0,0.0092998,0
1477.6,54.3,20.096,0,-0.015717,0,1660.9,57.57,0,0,0,0,0.0092998,0
1477.6,54.3,20.096,0,-0.015717,0,1660.9,57.57,0,0,0,0,0.0092998,0
1477.6,54.3,20.096,0,-0.015717,0,1660.9,57.57,0,0,0,0,0.0092998,0
1477.6,54.3,20.096,0,-0.015717,0,1660.9,57.57,0,0,0,0,0.0092998,0
1477.6,54.3,20.096,0,-0.015717,0,1660.9,57.57,0,0,0,0,0.0092998,0
1479.2,54.3,20.095,0,-0.016032,0,1660.9,57.57,0,0,0,0,0.0093821,0
1479.2,54.3,20.095,0,-0.016032,0,1660.9,57.57,0,0,0,0,0.0093821,0
1479.2,54.3,20.095,0,-0.016032,0,1660.9,57.57,0,0,0,0,0.0093821,0
1479.2,54.3,20.095,0,-0.016032,0,1660.9,57.57,0,0,0,0,0.0093821,0
1479.2,54.3,20.095,0,-0.016032,0,1660.9,57.57,0,0,0,0,0.0093821,0
1479.2,54.3,20.095,0,-0.016032,0,1660.9,57.57,0,0,0,0,0.0093821,0
1479.2,54.3,20.095,0,-0.016032,0,1660.9,57.57,0,0,0,0,0.0093821,0
1479.2,54.3,20.095,0,-0.016032,0,1660.9,57.57,0,0,0,0,0.0093821,0
1479.2,54.3,20.095,0,-0.016032,0,1660.9,57.57,0,0,0,0,0.0093821,0
1479.2,54.3,20.095,0,-0.016032,0,1660.9,57.57,0,0,0,0,0.0093821,0
1479.2,54.3,20.095,0,-0.016032,0,1660.9,57.57,0,0,0,0,0.0093821,0
1481.2,54.3,20.093,0,-0.016422,0,1660.9,57.57,0,0,0,0,0.009487,0
1482.4,54.3,20.092,0,-0.016654,0,1660.9,57.57,0,0,0,0,0.009551,0
1482.4,54.3,20.092,0,-0.016654,0,1660.9,57.57,0,0,0,0,0.009551,0
1482.4,54.3,20.092,0,-0.016654,0,1660.9,57.57,0,0,0,0,0.009551,0
1482.4,54.3,20.092,0,-0.016654,0,1660.9,57.57,0,0,0,0,0.009551,0
1482.4,54.3,20.092,0,-0.016654,0,1660.9,57.57,0,0,0,0,0.009551,0
1482.4,54.3,20.092,0,-0.016654,0,1660.9,57.57,0,0,0,0,0.009551,0
1482.4,54.3,20.092,0,-0.016654,0,1660.9,57.57,0,0,0,0,0.009551,0
1482.4,54.3,20.092,0,-0.016654,0,1660.9,57.57,0,0,0,0,0.009551,0
1482.4,54.3,20.092,0,-0.016654,0,1660.9,57.57,0,0,0,0,0.009551,0
1482.4,54.3,20.092,0,-0.016654,0,1660.9,57.57,0,0,0,0,0.009551,0
1482.4,54.3,20.092,0,-0.016654,0,1660.9,57.57,0,0,0,0,0.009551,0
1484,54.3,20.091,0,-0.016967,0,1660.9,57.57,0,0,0,0,0.0096378,0
1484,54.3,20.091,0,-0.016967,0,1660.9,57.57,0,0,0,0,0.0096378,0
1484,54.3,20.091,0,-0.016967,0,1660.9,57.57,0,0,0,0,0.0096378,0
1484,54.3,20.091,0,-0.016967,0,1660.9,57.57,0,0,0,0,0.0096378,0
1484,54.3,20.091,0,-0.016967,0,1660.9,57.57,0,0,0,0,0.0096378,0
1484,54.3,20.091,0,-0.016967,0,1660.9,57.57,0,0,0,0,0.0096378,0
1484,54.3,20.091,0,-0.016967,0,1660.9,57.57,0,0,0,0,0.0096378,0
1484,54.3,20.091,0,-0.016967,0,1660.9,57.57,0,0,0,0,0.0096378,0
1484,54.3,20.091,0,-0.016967,0,1660.9,57.57,0,0,0,0,0.0096378,0
1484,54.3,20.091,0,-0.016967,0,1660.9,57.57,0,0,0,0,0.0096378,0
1484,54.3,20.091,0,-0.016967,0,1660.9,57.57,0,0,0,0,0.0096378,0
1484,54.3,20.091,0,-0.016967,0,1660.9,57.57,0,0,0,0,0.0096378,0
1485.2,54.3,20.09,0,-0.017198,0,1660.9,57.57,0,0,0,0,0.0097039,0
1486.4,54.3,20.089,0,-0.017429,0,1660.9,57.57,0,0,0,0,0.0097709,0
1488,54.3,20.087,0,-0.017737,0,1660.9,57.57,0,0,0,0,0.0098617,0
1488.4,54.3,20.087,0,-0.017813,0,1660.9,57.57,0,0,0,0,0.0098847,0
1488.4,54.3,20.087,0,-0.017813,0,1660.9,57.57,0,0,0,0,0.0098847,0
1488.4,54.3,20.087,0,-0.017813,0,1660.9,57.57,0,0,0,0,0.0098847,0
1488.4,54.3,20.087,0,-0.017813,0,1660.9,57.57,0,0,0,0,0.0098847,0
1488.4,54.3,20.087,0,-0.017813,0,1660.9,57.57,0,0,0,0,0.0098847,0
1488.4,54.3,20.087,0,-0.017813,0,1660.9,57.57,0,0,0,0,0.0098847,0
1488.4,54.3,20.087,0,-0.017813,0,1660.9,57.57,0,0,0,0,0.0098847,0
1488.4,54.3,20.087,0,-0.017813,0,1660.9,57.57,0,0,0,0,0.0098847,0
1488.4,54.3,20.087,0,-0.017813,0,1660.9,57.57,0,0,0,0,0.0098847,0
1488.4,54.3,20.087,0,-0.017813,0,1660.9,57.57,0,0,0,0,0.0098847,0
1488.4,54.3,20.087,0,-0.017813,0,1660.9,57.57,0,0,0,0,0.0098847,0
1488.4,54.3,20.087,0,-0.017813,0,1660.9,57.57,0,0,0,0,0.0098847,0
1488.4,54.3,20.087,0,-0.017813,0,1660.9,57.57,0,0,0,0,0.0098847,0
1488.4,54.3,20.087,0,-0.017813,0,1660.9,57.57,0,0,0,0,0.0098847,0
1488.4,54.3,20.087,0,-0.017813,0,1660.9,57.57,0,0,0,0,0.0098847,0
1488.4,54.3,20.087,0,-0.017813,0,1660.9,57.57,0,0,0,0,0.0098847,0
1488.4,54.3,20.087,0,-0.017813,0,1660.9,57.57,0,0,0,0,0.0098847,0
1488.4,54.3,20.087,0,-0.017813,0,1660.9,57.57,0,0,0,0,0.0098847,0
1488.4,54.3,20.087,0,-0.017813,0,1660.9,57.57,0,0,0,0,0.0098847,0
1489.2,54.3,20.086,0,-0.017966,0,1660.9,57.57,0,0,0,0,0.009931,0
1489.2,54.3,20.086,0,-0.017966,0,1660.9,57.57,0,0,0,0,0.009931,0
1489.6,54.3,20.086,0,-0.018044,0,1660.9,57.57,0,0,0,0,0.0099542,0
1489.6,54.3,20.086,0,-0.018044,0,1660.9,57.57,0,0,0,0,0.0099542,0
1492.4,54.3,20.083,0,-0.018577,0,1660.9,57.57,0,0,0,0,0.01012,0
1493.2,54.3,20.083,0,-0.018729,0,1660.9,57.57,0,0,0,0,0.010169,0
1493.2,54.3,20.083,0,-0.018729,0,1660.9,57.57,0,0,0,0,0.010169,0
1493.2,54.3,20.083,0,-0.018729,0,1660.9,57.57,0,0,0,0,0.010169,0
1493.2,54.3,20.083,0,-0.018729,0,1660.9,57.57,0,0,0,0,0.010169,0
1493.2,54.3,20.083,0,-0.018729,0,1660.9,57.57,0,0,0,0,0.010169,0
1493.2,54.3,20.083,0,-0.018729,0,1660.9,57.57,0,0,0,0,0.010169,0
1493.2,54.3,20.083,0,-0.018729,0,1660.9,57.57,0,0,0,0,0.010169,0
1493.6,54.3,20.082,0,-0.018806,0,1660.9,57.57,0,0,0,0,0.010193,0
1493.6,54.3,20.082,0,-0.018806,0,1660.9,57.57,0,0,0,0,0.010193,0
1493.6,54.3,20.082,0,-0.018806,0,1660.9,57.57,0,0,0,0,0.010193,0
1493.6,54.3,20.082,0,-0.018806,0,1660.9,57.57,0,0,0,0,0.010193,0
1493.6,54.3,20.082,0,-0.018806,0,1660.9,57.57,0,0,0,0,0.010193,0
1493.6,54.3,20.082,0,-0.018806,0,1660.9,57.57,0,0,0,0,0.010193,0
1493.6,54.3,20.082,0,-0.018806,0,1660.9,57.57,0,0,0,0,0.010193,0
1493.6,54.3,20.082,0,-0.018806,0,1660.9,57.57,0,0,0,0,0.010193,0
1493.6,54.3,20.082,0,-0.018806,0,1660.9,57.57,0,0,0,0,0.010193,0
1493.6,54.3,20.082,0,-0.018806,0,1660.9,57.57,0,0,0,0,0.010193,0
1493.6,54.3,20.082,0,-0.018806,0,1660.9,57.57,0,0,0,0,0.010193,0
1493.6,54.3,20.082,0,-0.018806,0,1660.9,57.57,0,0,0,0,0.010193,0
1493.6,54.3,20.082,0,-0.018806,0,1660.9,57.57,0,0,0,0,0.010193,0
1494.5,54.3,20.081,0,-0.018957,0,1660.9,57.57,0,0,0,0,0.010242,0
1494.5,54.3,20.081,0,-0.018957,0,1660.9,57.57,0,0,0,0,0.010242,0
1495.7,54.3,20.08,0,-0.019184,0,1660.9,57.57,0,0,0,0,0.010317,0
1497.3,54.3,20.079,0,-0.019484,0,1660.9,57.57,0,0,0,0,0.010418,0
1497.7,54.3,20.078,0,-0.01956,0,1660.9,57.57,0,0,0,0,0.010444,0
1497.7,54.3,20.078,0,-0.01956,0,1660.9,57.57,0,0,0,0,0.010444,0
1497.7,54.3,20.078,0,-0.01956,0,1660.9,57.57,0,0,0,0,0.010444,0
1498.5,54.3,20.078,0,-0.019709,0,1660.9,57.57,0,0,0,0,0.010496,0
1498.5,54.3,20.078,0,-0.019709,0,1660.9,57.57,0,0,0,0,0.010496,0
1498.5,54.3,20.078,0,-0.019709,0,1660.9,57.57,0,0,0,0,0.010496,0
1498.5,54.3,20.078,0,-0.019709,0,1660.9,57.57,0,0,0,0,0.010496,0
1498.5,54.3,20.078,0,-0.019709,0,1660.9,57.57,0,0,0,0,0.010496,0
1498.5,54.3,20.078,0,-0.019709,0,1660.9,57.57,0,0,0,0,0.010496,0
1498.5,54.3,20.078,0,-0.019709,0,1660.9,57.57,0,0,0,0,0.010496,0
1498.5,54.3,20.078,0,-0.019709,0,1660.9,57.57,0,0,0,0,0.010496,0
1498.5,54.3,20.078,0,-0.019709,0,1660.9,57.57,0,0,0,0,0.010496,0
1498.5,54.3,20.078,0,-0.019709,0,1660.9,57.57,0,0,0,0,0.010496,0
1498.5,54.3,20.078,0,-0.019709,0,1660.9,57.57,0,0,0,0,0.010496,0
1498.5,54.3,20.078,0,-0.019709,0,1660.9,57.57,0,0,0,0,0.010496,0
1498.5,54.3,20.078,0,-0.019709,0,1660.9,57.57,0,0,0,0,0.010496,0
1498.5,54.3,20.078,0,-0.019709,0,1660.9,57.57,0,0,0,0,0.010496,0
1498.5,54.3,20.078,0,-0.019709,0,1660.9,57.57,0,0,0,0,0.010496,0
1498.5,54.3,20.078,0,-0.019709,0,1660.9,57.57,0,0,0,0,0.010496,0
1498.5,54.3,20.078,0,-0.019709,0,1660.9,57.57,0,0,0,0,0.010496,0
1498.5,54.3,20.078,0,-0.019709,0,1660.9,57.57,0,0,0,0,0.010496,0
1498.5,54.3,20.078,0,-0.019709,0,1660.9,57.57,0,0,0,0,0.010496,0
1498.5,54.3,20.078,0,-0.019709,0,1660.9,57.57,0,0,0,0,0.010496,0
1501.3,54.3,20.075,0,-0.020235,0,1660.9,57.57,0,0,0,0,0.01068,0
1501.3,54.3,20.075,0,-0.020235,0,1660.9,57.57,0,0,0,0,0.01068,0
1501.7,54.3,20.074,0,-0.020309,0,1660.9,57.57,0,0,0,0,0.010707,0
1501.7,54.3,20.074,0,-0.020309,0,1660.9,57.57,0,0,0,0,0.010707,0
1503.3,54.3,20.073,0,-0.020606,0,1660.9,57.57,0,0,0,0,0.010816,0
1503.3,54.3,20.073,0,-0.020606,0,1660.9,57.57,0,0,0,0,0.010816,0
1503.7,54.3,20.072,0,-0.02068,0,1660.9,57.57,0,0,0,0,0.010844,0
1503.7,54.3,20.072,0,-0.02068,0,1660.9,57.57,0,0,0,0,0.010844,0
1503.7,54.3,20.072,0,-0.02068,0,1660.9,57.57,0,0,0,0,0.010844,0
1503.7,54.3,20.072,0,-0.02068,0,1660.9,57.57,0,0,0,0,0.010844,0
1503.7,54.3,20.072,0,-0.02068,0,1660.9,57.57,0,0,0,0,0.010844,0
1503.7,54.3,20.072,0,-0.02068,0,1660.9,57.57,0,0,0,0,0.010844,0
1503.7,54.3,20.072,0,-0.02068,0,1660.9,57.57,0,0,0,0,0.010844,0
1503.7,54.3,20.072,0,-0.02068,0,1660.9,57.57,0,0,0,0,0.010844,0
1503.7,54.3,20.072,0,-0.02068,0,1660.9,57.57,0,0,0,0,0.010844,0
1503.7,54.3,20.072,0,-0.02068,0,1660.9,57.57,0,0,0,0,0.010844,0
1503.7,54.3,20.072,0,-0.02068,0,1660.9,57.57,0,0,0,0,0.010844,0
1503.7,54.3,20.072,0,-0.02068,0,1660.9,57.57,0,0,0,0,0.010844,0
1503.7,54.3,20.072,0,-0.02068,0,1660.9,57.57,0,0,0,0,0.010844,0
1503.7,54.3,20.072,0,-0.02068,0,1660.9,57.57,0,0,0,0,0.010844,0
1503.7,54.3,20.072,0,-0.02068,0,1660.9,57.57,0,0,0,0,0.010844,0
1503.7,54.3,20.072,0,-0.02068,0,1660.9,57.57,0,0,0,0,0.010844,0
1503.7,54.3,20.072,0,-0.02068,0,1660.9,57.57,0,0,0,0,0.010844,0
1505.7,54.3,20.07,0,-0.02105,0,1660.9,57.57,0,0,0,0,0.010984,0
1505.7,54.3,20.07,0,-0.02105,0,1660.9,57.57,0,0,0,0,0.010984,0
1505.7,54.3,20.07,0,-0.02105,0,1660.9,57.57,0,0,0,0,0.010984,0
1507.3,54.3,20.069,0,-0.021344,0,1660.9,57.57,0,0,0,0,0.011099,0
1507.7,54.3,20.068,0,-0.021416,0,1660.9,57.57,0,0,0,0,0.011128,0
1507.7,54.3,20.068,0,-0.021416,0,1660.9,57.57,0,0,0,0,0.011128,0
1507.7,54.3,20.068,0,-0.021416,0,1660.9,57.57,0,0,0,0,0.011128,0
1507.7,54.3,20.068,0,-0.021416,0,1660.9,57.57,0,0,0,0,0.011128,0
1507.7,54.3,20.068,0,-0.021416,0,1660.9,57.57,0,0,0,0,0.011128,0
1507.7,54.3,20.068,0,-0.021416,0,1660.9,57.57,0,0,0,0,0.011128,0
1507.7,54.3,20.068,0,-0.021416,0,1660.9,57.57,0,0,0,0,0.011128,0
1507.7,54.3,20.068,0,-0.021416,0,1660.9,57.57,0,0,0,0,0.011128,0
1507.7,54.3,20.068,0,-0.021416,0,1660.9,57.57,0,0,0,0,0.011128,0
1507.7,54.3,20.068,0,-0.021416,0,1660.9,57.57,0,0,0,0,0.011128,0
1507.7,54.3,20.068,0,-0.021416,0,1660.9,57.57,0,0,0,0,0.011128,0
1507.7,54.3,20.068,0,-0.021416,0,1660.9,57.57,0,0,0,0,0.011128,0
1507.7,54.3,20.068,0,-0.021416,0,1660.9,57.57,0,0,0,0,0.011128,0
1507.7,54.3,20.068,0,-0.021416,0,1660.9,57.57,0,0,0,0,0.011128,0
1509.3,54.3,20.066,0,-0.02171,0,1660.9,57.57,0,0,0,0,0.011246,0
1509.3,54.3,20.066,0,-0.02171,0,1660.9,57.57,0,0,0,0,0.011246,0
1509.7,54.3,20.066,0,-0.021782,0,1660.9,57.57,0,0,0,0,0.011276,0
1509.7,54.3,20.066,0,-0.021782,0,1660.9,57.57,0,0,0,0,0.011276,0
1509.7,54.3,20.066,0,-0.021782,0,1660.9,57.57,0,0,0,0,0.011276,0
1509.7,54.3,20.066,0,-0.021782,0,1660.9,57.57,0,0,0,0,0.011276,0
1509.7,54.3,20.066,0,-0.021782,0,1660.9,57.57,0,0,0,0,0.011276,0
1509.7,54.3,20.066,0,-0.021782,0,1660.9,57.57,0,0,0,0,0.011276,0
1509.7,54.3,20.066,0,-0.021782,0,1660.9,57.57,0,0,0,0,0.011276,0
1509.7,54.3,20.066,0,-0.021782,0,1660.9,57.57,0,0,0,0,0.011276,0
1509.7,54.3,20.066,0,-0.021782,0,1660.9,57.57,0,0,0,0,0.011276,0
1509.7,54.3,20.066,0,-0.021782,0,1660.9,57.57,0,0,0,0,0.011276,0
1509.7,54.3,20.066,0,-0.021782,0,1660.9,57.57,0,0,0,0,0.011276,0
1509.7,54.3,20.066,0,-0.021782,0,1660.9,57.57,0,0,0,0,0.011276,0
1509.7,54.3,20.066,0,-0.021782,0,1660.9,57.57,0,0,0,0,0.011276,0
1512.9,54.3,20.062,0,-0.022363,0,1660.9,57.57,0,0,0,0,0.01152,0
1512.9,54.3,20.062,0,-0.022363,0,1660.9,57.57,0,0,0,0,0.01152,0
1512.9,54.3,20.062,0,-0.022363,0,1660.9,57.57,0,0,0,0,0.01152,0
1512.9,54.3,20.062,0,-0.022363,0,1660.9,57.57,0,0,0,0,0.01152,0
1512.9,54.3,20.062,0,-0.022363,0,1660.9,57.57,0,0,0,0,0.01152,0
1512.9,54.3,20.062,0,-0.022363,0,1660.9,57.57,0,0,0,0,0.01152,0
1512.9,54.3,20.062,0,-0.022363,0,1660.9,57.57,0,0,0,0,0.01152,0
1512.9,54.3,20.062,0,-0.022363,0,1660.9,57.57,0,0,0,0,0.01152,0
1512.9,54.3,20.062,0,-0.022363,0,1660.9,57.57,0,0,0,0,0.01152,0
1512.9,54.3,20.062,0,-0.022363,0,1660.9,57.57,0,0,0,0,0.01152,0
1512.9,54.3,20.062,0,-0.022363,0,1660.9,57.57,0,0,0,0,0.01152,0
1512.9,54.3,20.062,0,-0.022363,0,1660.9,57.57,0,0,0,0,0.01152,0
1512.9,54.3,20.062,0,-0.022363,0,1660.9,57.57,0,0,0,0,0.01152,0
1512.9,54.3,20.062,0,-0.022363,0,1660.9,57.57,0,0,0,0,0.01152,0
1512.9,54.3,20.062,0,-0.022363,0,1660.9,57.57,0,0,0,0,0.01152,0
1512.9,54.3,20.062,0,-0.022363,0,1660.9,57.57,0,0,0,0,0.01152,0
1512.9,54.3,20.062,0,-0.022363,0,1660.9,57.57,0,0,0,0,0.01152,0
1514.9,54.3,20.06,0,-0.022726,0,1660.9,57.57,0,0,0,0,0.011678,0
1514.9,54.3,20.06,0,-0.022726,0,1660.9,57.57,0,0,0,0,0.011678,0
1515.3,54.3,20.06,0,-0.022798,0,1660.9,57.57,0,0,0,0,0.011711,0
1515.3,54.3,20.06,0,-0.022798,0,1660.9,57.57,0,0,0,0,0.011711,0
1515.3,54.3,20.06,0,-0.022798,0,1660.9,57.57,0,0,0,0,0.011711,0
1517.7,54.3,20.057,0,-0.023229,0,1660.9,57.57,0,0,0,0,0.011907,0
1517.7,54.3,20.057,0,-0.023229,0,1660.9,57.57,0,0,0,0,0.011907,0
1517.7,54.3,20.057,0,-0.023229,0,1660.9,57.57,0,0,0,0,0.011907,0
1517.7,54.3,20.057,0,-0.023229,0,1660.9,57.57,0,0,0,0,0.011907,0
1517.7,54.3,20.057,0,-0.023229,0,1660.9,57.57,0,0,0,0,0.011907,0
1517.7,54.3,20.057,0,-0.023229,0,1660.9,57.57,0,0,0,0,0.011907,0
1517.7,54.3,20.057,0,-0.023229,0,1660.9,57.57,0,0,0,0,0.011907,0
1517.7,54.3,20.057,0,-0.023229,0,1660.9,57.57,0,0,0,0,0.011907,0
1517.7,54.3,20.057,0,-0.023229,0,1660.9,57.57,0,0,0,0,0.011907,0
1517.7,54.3,20.057,0,-0.023229,0,1660.9,57.57,0,0,0,0,0.011907,0
1517.7,54.3,20.057,0,-0.023229,0,1660.9,57.57,0,0,0,0,0.011907,0
1517.7,54.3,20.057,0,-0.023229,0,1660.9,57.57,0,0,0,0,0.011907,0
1517.7,54.3,20.057,0,-0.023229,0,1660.9,57.57,0,0,0,0,0.011907,0
1517.7,54.3,20.057,0,-0.023229,0,1660.9,57.57,0,0,0,0,0.011907,0
1517.7,54.3,20.057,0,-0.023229,0,1660.9,57.57,0,0,0,0,0.011907,0
1519.3,54.3,20.055,0,-0.023516,0,1660.9,57.57,0,0,0,0,0.012042,0
1519.3,54.3,20.055,0,-0.023516,0,1660.9,57.57,0,0,0,0,0.012042,0
1519.3,54.3,20.055,0,-0.023516,0,1660.9,57.57,0,0,0,0,0.012042,0
1519.3,54.3,20.055,0,-0.023516,0,1660.9,57.57,0,0,0,0,0.012042,0
1519.3,54.3,20.055,0,-0.023516,0,1660.9,57.57,0,0,0,0,0.012042,0
1519.3,54.3,20.055,0,-0.023516,0,1660.9,57.57,0,0,0,0,0.012042,0
1519.7,54.3,20.055,0,-0.023589,0,1660.9,57.57,0,0,0,0,0.012076,0
1520.1,54.3,20.054,0,-0.02366,0,1660.9,57.57,0,0,0,0,0.012111,0
1520.1,54.3,20.054,0,-0.02366,0,1660.9,57.57,0,0,0,0,0.012111,0
1521.7,54.3,20.052,0,-0.023945,0,1660.9,57.57,0,0,0,0,0.01225,0
1522.9,54.3,20.051,0,-0.024158,0,1660.9,57.57,0,0,0,0,0.012357,0
1522.9,54.3,20.051,0,-0.024158,0,1660.9,57.57,0,0,0,0,0.012357,0
1522.9,54.3,20.051,0,-0.024158,0,1660.9,57.57,0,0,0,0,0.012357,0
1522.9,54.3,20.051,0,-0.024158,0,1660.9,57.57,0,0,0,0,0.012357,0
1522.9,54.3,20.051,0,-0.024158,0,1660.9,57.57,0,0,0,0,0.012357,0
1522.9,54.3,20.051,0,-0.024158,0,1660.9,57.57,0,0,0,0,0.012357,0
1522.9,54.3,20.051,0,-0.024158,0,1660.9,57.57,0,0,0,0,0.012357,0
1523.7,54.3,20.05,0,-0.024299,0,1660.9,57.57,0,0,0,0,0.012429,0
1523.7,54.3,20.05,0,-0.024299,0,1660.9,57.57,0,0,0,0,0.012429,0
1523.7,54.3,20.05,0,-0.024299,0,1660.9,57.57,0,0,0,0,0.012429,0
1523.7,54.3,20.05,0,-0.024299,0,1660.9,57.57,0,0,0,0,0.012429,0
1523.7,54.3,20.05,0,-0.024299,0,1660.9,57.57,0,0,0,0,0.012429,0
1523.7,54.3,20.05,0,-0.024299,0,1660.9,57.57,0,0,0,0,0.012429,0
1523.7,54.3,20.05,0,-0.024299,0,1660.9,57.57,0,0,0,0,0.012429,0
1523.7,54.3,20.05,0,-0.024299,0,1660.9,57.57,0,0,0,0,0.012429,0
1523.7,54.3,20.05,0,-0.024299,0,1660.9,57.57,0,0,0,0,0.012429,0
1523.7,54.3,20.05,0,-0.024299,0,1660.9,57.57,0,0,0,0,0.012429,0
1523.7,54.3,20.05,0,-0.024299,0,1660.9,57.57,0,0,0,0,0.012429,0
1523.7,54.3,20.05,0,-0.024299,0,1660.9,57.57,0,0,0,0,0.012429,0
1523.7,54.3,20.05,0,-0.024299,0,1660.9,57.57,0,0,0,0,0.012429,0
1523.7,54.3,20.05,0,-0.024299,0,1660.9,57.57,0,0,0,0,0.012429,0
1523.7,54.3,20.05,0,-0.024299,0,1660.9,57.57,0,0,0,0,0.012429,0
1523.7,54.3,20.05,0,-0.024299,0,1660.9,57.57,0,0,0,0,0.012429,0
1525.4,54.3,20.048,0,-0.024581,0,1660.9,57.57,0,0,0,0,0.012576,0
1526.6,54.3,20.046,0,-0.024791,0,1660.9,57.57,0,0,0,0,0.012689,0
1526.6,54.3,20.046,0,-0.024791,0,1660.9,57.57,0,0,0,0,0.012689,0
1527.8,54.3,20.045,0,-0.025,0,1660.9,57.57,0,0,0,0,0.012804,0
1527.8,54.3,20.045,0,-0.025,0,1660.9,57.57,0,0,0,0,0.012804,0
1527.8,54.3,20.045,0,-0.025,0,1660.9,57.57,0,0,0,0,0.012804,0
1527.8,54.3,20.045,0,-0.025,0,1660.9,57.57,0,0,0,0,0.012804,0
1527.8,54.3,20.045,0,-0.025,0,1660.9,57.57,0,0,0,0,0.012804,0
1527.8,54.3,20.045,0,-0.025,0,1660.9,57.57,0,0,0,0,0.012804,0
1527.8,54.3,20.045,0,-0.025,0,1660.9,57.57,0,0,0,0,0.012804,0
1527.8,54.3,20.045,0,-0.025,0,1660.9,57.57,0,0,0,0,0.012804,0
1527.8,54.3,20.045,0,-0.025,0,1660.9,57.57,0,0,0,0,0.012804,0
1527.8,54.3,20.045,0,-0.025,0,1660.9,57.57,0,0,0,0,0.012804,0
1529,54.3,20.043,0,-0.025207,0,1660.9,57.57,0,0,0,0,0.01292,0
1529,54.3,20.043,0,-0.025207,0,1660.9,57.57,0,0,0,0,0.01292,0
1529,54.3,20.043,0,-0.025207,0,1660.9,57.57,0,0,0,0,0.01292,0
1529,54.3,20.043,0,-0.025207,0,1660.9,57.57,0,0,0,0,0.01292,0
1529,54.3,20.043,0,-0.025207,0,1660.9,57.57,0,0,0,0,0.01292,0
1529,54.3,20.043,0,-0.025207,0,1660.9,57.57,0,0,0,0,0.01292,0
1529,54.3,20.043,0,-0.025207,0,1660.9,57.57,0,0,0,0,0.01292,0
1529,54.3,20.043,0,-0.025207,0,1660.9,57.57,0,0,0,0,0.01292,0
1529,54.3,20.043,0,-0.025207,0,1660.9,57.57,0,0,0,0,0.01292,0
1529,54.3,20.043,0,-0.025207,0,1660.9,57.57,0,0,0,0,0.01292,0
1531,54.3,20.041,0,-0.025555,0,1660.9,57.57,0,0,0,0,0.013119,0
1531.8,54.3,20.04,0,-0.025691,0,1660.9,57.57,0,0,0,0,0.013201,0
1531.8,54.3,20.04,0,-0.025691,0,1660.9,57.57,0,0,0,0,0.013201,0
1531.8,54.3,20.04,0,-0.025691,0,1660.9,57.57,0,0,0,0,0.013201,0
1531.8,54.3,20.04,0,-0.025691,0,1660.9,57.57,0,0,0,0,0.013201,0
1533.4,54.3,20.038,0,-0.025968,0,1660.9,57.57,0,0,0,0,0.013367,0
1533.4,54.3,20.038,0,-0.025968,0,1660.9,57.57,0,0,0,0,0.013367,0
1533.4,54.3,20.038,0,-0.025968,0,1660.9,57.57,0,0,0,0,0.013367,0
1533.4,54.3,20.038,0,-0.025968,0,1660.9,57.57,0,0,0,0,0.013367,0
1533.4,54.3,20.038,0,-0.025968,0,1660.9,57.57,0,0,0,0,0.013367,0
1533.4,54.3,20.038,0,-0.025968,0,1660.9,57.57,0,0,0,0,0.013367,0
1533.4,54.3,20.038,0,-0.025968,0,1660.9,57.57,0,0,0,0,0.013367,0
1533.4,54.3,20.038,0,-0.025968,0,1660.9,57.57,0,0,0,0,0.013367,0
1533.4,54.3,20.038,0,-0.025968,0,1660.9,57.57,0,0,0,0,0.013367,0
1533.4,54.3,20.038,0,-0.025968,0,1660.9,57.57,0,0,0,0,0.013367,0
1533.4,54.3,20.038,0,-0.025968,0,1660.9,57.57,0,0,0,0,0.013367,0
1533.4,54.3,20.038,0,-0.025968,0,1660.9,57.57,0,0,0,0,0.013367,0
1533.4,54.3,20.038,0,-0.025968,0,1660.9,57.57,0,0,0,0,0.013367,0
1533.4,54.3,20.038,0,-0.025968,0,1660.9,57.57,0,0,0,0,0.013367,0
1533.4,54.3,20.038,0,-0.025968,0,1660.9,57.57,0,0,0,0,0.013367,0
1533.4,54.3,20.038,0,-0.025968,0,1660.9,57.57,0,0,0,0,0.013367,0
1533.4,54.3,20.038,0,-0.025968,0,1660.9,57.57,0,0,0,0,0.013367,0
1533.4,54.3,20.038,0,-0.025968,0,1660.9,57.57,0,0,0,0,0.013367,0
1533.4,54.3,20.038,0,-0.025968,0,1660.9,57.57,0,0,0,0,0.013367,0
1535.4,54.3,20.035,0,-0.026311,0,1660.9,57.57,0,0,0,0,0.01358,0
1536.6,54.3,20.034,0,-0.026514,0,1660.9,57.57,0.12,7.935e-06,4,0.00047278,0.013793,0
1536.6,54.3,20.034,0,-0.026514,0,1660.9,57.57,0.36,0.00024983,4,0.0068764,0.013958,0
1536.6,54.3,20.034,0,-0.026514,0,1660.9,57.57,0.44,0.00044805,4,0.010286,0.014013,0
1536.6,54.3,20.034,0,-0.026514,0,1660.9,57.57,0.44,0.00044805,4,0.010286,0.014013,0
1538.2,54.3,20.031,0,-0.026786,0,1660.9,57.57,0.44,0.00044805,4,0.010286,0.014196,0
1538.2,54.3,20.031,0,-0.026786,0,1660.9,57.57,0.44,0.00044805,4,0.010286,0.014196,0
1538.2,54.3,20.031,0,-0.026786,0,1660.9,57.57,0.44,0.00044805,4,0.010286,0.014196,0
1538.2,54.3,20.031,0,-0.026786,0,1660.9,57.57,0.44,0.00044805,4,0.010286,0.014196,0
1538.2,54.3,20.031,0,-0.026786,0,1660.9,57.57,0.44,0.00044805,4,0.010286,0.014196,0
1538.2,54.3,20.031,0,-0.026786,0,1660.9,57.57,0.44,0.00044805,4,0.010286,0.014196,0
1538.2,54.3,20.031,0,-0.026786,0,1660.9,57.57,0.44,0.00044805,4,0.010286,0.014196,0
1538.2,54.3,20.031,0,-0.026786,0,1660.9,57.57,0.44,0.00044805,4,0.010286,0.014196,0
1538.2,54.3,20.031,0,-0.026786,0,1660.9,57.57,0.44,0.00044805,4,0.010286,0.014196,0
1538.2,54.3,20.031,0,-0.026786,0,1660.9,57.57,0.44,0.00044805,4,0.010286,0.014196,0
1538.2,54.3,20.031,0,-0.026786,0,1660.9,57.57,0.6,0.0010933,4,0.018891,0.014308,0
1538.2,54.3,20.031,0,-0.026786,0,1660.9,57.57,0.6,0.0010933,4,0.018891,0.014308,0
1538.2,54.3,20.031,0,-0.026786,0,1660.9,57.57,0.6,0.0010933,4,0.018891,0.014308,0
1538.2,54.3,20.031,0,-0.026786,0,1660.9,57.57,0.6,0.0010933,4,0.018891,0.014308,0
1538.2,54.3,20.031,0,-0.026786,0,1660.9,57.57,0.6,0.0010933,4,0.018891,0.014308,0
1538.2,54.3,20.031,0,-0.026786,0,1660.9,57.57,0.6,0.0010933,4,0.018891,0.014308,0
1538.2,54.3,20.031,0,-0.026786,0,1660.9,57.57,0.6,0.0010933,4,0.018891,0.014308,0
1538.2,54.3,20.031,0,-0.026786,0,1660.9,57.57,0.68,0.0015625,4,0.024013,0.014364,0
1538.2,54.3,20.031,0,-0.026786,0,1660.9,57.57,0.68,0.0015625,4,0.024013,0.014364,0
1538.2,54.3,20.031,0,-0.026786,0,1660.9,57.57,0.68,0.0015625,4,0.024013,0.014364,0
1541,54.3,20.028,0,-0.027257,0,1661,57.57,0.76,0.0021426,3.9999,0.029627,0.014756,0
1541,54.3,20.028,0,-0.027257,0,1661,57.57,0.76,0.0021426,3.9999,0.029627,0.014756,0
1541.4,54.3,20.027,0,-0.027323,0,1661,57.57,0.76,0.0021426,3.9999,0.029627,0.014806,0
1541.4,54.3,20.027,0,-0.027323,0,1661.1,57.571,1.32,0.0099157,3.9995,0.078236,0.015207,0
1543,54.3,20.025,0,-0.027591,0,1661.1,57.571,1.4,0.011608,3.9994,0.085805,0.015472,0
1543,54.3,20.025,0,-0.027591,0,1661.1,57.571,1.4,0.011608,3.9994,0.085805,0.015472,0
1543.4,54.3,20.024,0,-0.027658,0,1661.1,57.571,1.4,0.011608,3.9994,0.085805,0.015524,0
1543.4,54.3,20.024,0,-0.027658,0,1661.1,57.571,1.4,0.011608,3.9994,0.085805,0.015524,0
1543.4,54.3,20.024,0,-0.027658,0,1661.1,57.571,1.4,0.011608,3.9994,0.085805,0.015524,0
1543.4,54.3,20.024,0,-0.027658,0,1661.1,57.571,1.4,0.011608,3.9994,0.085805,0.015524,0
1543.4,54.3,20.024,0,-0.027658,0,1661.1,57.571,1.4,0.011608,3.9994,0.085805,0.015524,0
1543.4,54.3,20.024,0,-0.027658,0,1661.1,57.571,1.4,0.011608,3.9994,0.085805,0.015524,0
1543.4,54.3,20.024,0,-0.027658,0,1661.1,57.571,1.4,0.011608,3.9994,0.085805,0.015524,0
1543.4,54.3,20.024,0,-0.027658,0,1661.1,57.571,1.4,0.011608,3.9994,0.085805,0.015524,0
1543.4,54.3,20.024,0,-0.027658,0,1661.2,57.572,1.6399,0.017572,3.9991,0.10809,0.015699,0
1543.4,54.3,20.024,0,-0.027658,0,1661.2,57.572,1.6399,0.017572,3.9991,0.10809,0.015699,0
1543.4,54.3,20.024,0,-0.027658,0,1661.2,57.572,1.6399,0.017572,3.9991,0.10809,0.015699,0
1543.4,54.3,20.024,0,-0.027658,0,1661.2,57.572,1.6399,0.017572,3.9991,0.10809,0.015699,0
1543.4,54.3,20.024,0,-0.027658,0,1661.2,57.572,1.6399,0.017572,3.9991,0.10809,0.015699,0
1543.4,54.3,20.024,0,-0.027658,0,1661.2,57.572,1.6399,0.017572,3.9991,0.10809,0.015699,0
1543.4,54.3,20.024,0,-0.027658,0,1661.2,57.572,1.6399,0.017572,3.9991,0.10809,0.015699,0
1543.4,54.3,20.024,0,-0.027658,0,1661.3,57.572,1.7199,0.019846,3.999,0.11517,0.015758,0
1543.4,54.3,20.024,0,-0.027658,0,1661.3,57.572,1.7199,0.019846,3.999,0.11517,0.015758,0
1543.4,54.3,20.024,0,-0.027658,0,1661.3,57.573,1.7999,0.022254,3.9988,0.12198,0.015816,0
1543.4,54.3,20.024,0,-0.027658,0,1661.3,57.573,1.7999,0.022254,3.9988,0.12198,0.015816,0
1545.8,54.3,20.021,0,-0.028057,0,1661.3,57.573,1.7999,0.022254,3.9988,0.12198,0.016145,0
1546.2,54.3,20.02,0,-0.028124,0,1661.3,57.573,1.7999,0.022254,3.9988,0.12198,0.016201,0
1546.2,54.3,20.02,0,-0.028124,0,1661.5,57.576,2.2797,0.039099,3.998,0.15433,0.016559,0
1546.2,54.3,20.02,0,-0.028124,0,1661.5,57.576,2.2797,0.039099,3.998,0.15433,0.016559,0
1547.8,54.3,20.018,0,-0.028386,0,1661.6,57.577,2.3596,0.042216,3.9978,0.15791,0.016852,0
1547.8,54.3,20.018,0,-0.028386,0,1661.6,57.577,2.3596,0.042216,3.9978,0.15791,0.016852,0
1547.8,54.3,20.018,0,-0.028386,0,1661.6,57.577,2.3596,0.042216,3.9978,0.15791,0.016852,0
1547.8,54.3,20.018,0,-0.028386,0,1661.7,57.579,2.5195,0.048612,3.9976,0.16322,0.016973,0
1547.8,54.3,20.018,0,-0.028386,0,1661.7,57.579,2.5195,0.048612,3.9976,0.16322,0.016973,0
1547.8,54.3,20.018,0,-0.028386,0,1661.7,57.579,2.5195,0.048612,3.9976,0.16322,0.016973,0
1547.8,54.3,20.018,0,-0.028386,0,1661.7,57.579,2.5195,0.048612,3.9976,0.16322,0.016973,0
1547.8,54.3,20.018,0,-0.028386,0,1661.7,57.579,2.5195,0.048612,3.9976,0.16322,0.016973,0
1547.8,54.3,20.018,0,-0.028386,0,1661.7,57.579,2.5195,0.048612,3.9976,0.16322,0.016973,0
1547.8,54.3,20.018,0,-0.028386,0,1661.7,57.58,2.5995,0.051866,3.9975,0.16492,0.017033,0
1547.8,54.3,20.018,0,-0.028386,0,1661.7,57.58,2.5995,0.051866,3.9975,0.16492,0.017033,0
1547.8,54.3,20.018,0,-0.028386,0,1661.7,57.58,2.5995,0.051866,3.9975,0.16492,0.017033,0
1547.8,54.3,20.018,0,-0.028386,0,1661.7,57.58,2.5995,0.051866,3.9975,0.16492,0.017033,0
1547.8,54.3,20.018,0,-0.028386,0,1661.7,57.58,2.5995,0.051866,3.9975,0.16492,0.017033,0
1547.8,54.3,20.018,0,-0.028386,0,1661.7,57.58,2.5995,0.051866,3.9975,0.16492,0.017033,0
1547.8,54.3,20.018,0,-0.028386,0,1661.7,57.58,2.5995,0.051866,3.9975,0.16492,0.017033,0
1547.8,54.3,20.018,0,-0.028386,0,1661.7,57.58,2.5995,0.051866,3.9975,0.16492,0.017033,0
1549,54.3,20.017,0,-0.028582,0,1661.7,57.58,2.5995,0.051866,3.9975,0.16492,0.017214,0
1549,54.3,20.017,0,-0.028582,0,1661.8,57.582,2.7594,0.058421,3.9974,0.16634,0.017336,0
1549,54.3,20.017,0,-0.028582,0,1662,57.586,2.9992,0.068173,3.9973,0.16349,0.017518,0
1549,54.3,20.017,0,-0.028582,0,1662,57.586,2.9992,0.068173,3.9973,0.16349,0.017518,0
1552.2,54.3,20.012,0,-0.029105,0,1662.1,57.587,3.0792,0.07135,3.9974,0.16122,0.018091,0
1552.2,54.3,20.012,0,-0.029105,0,1662.1,57.587,3.0792,0.07135,3.9974,0.16122,0.018091,0
1552.2,54.3,20.012,0,-0.029105,0,1662.1,57.587,3.0792,0.07135,3.9974,0.16122,0.018091,0
1552.2,54.3,20.012,0,-0.029105,0,1662.1,57.587,3.0792,0.07135,3.9974,0.16122,0.018091,0
1552.2,54.3,20.012,0,-0.029105,0,1662.1,57.587,3.0792,0.07135,3.9974,0.16122,0.018091,0
1552.2,54.3,20.012,0,-0.029105,0,1662.1,57.587,3.0792,0.07135,3.9974,0.16122,0.018091,0
1552.2,54.3,20.012,0,-0.029105,0,1662.1,57.587,3.0792,0.07135,3.9974,0.16122,0.018091,0
1552.2,54.3,20.012,0,-0.029105,0,1662.1,57.587,3.0792,0.07135,3.9974,0.16122,0.018091,0
1552.2,54.3,20.012,0,-0.029105,0,1662.3,57.594,3.399,0.083361,3.9976,0.14605,0.018339,0
1552.2,54.3,20.012,0,-0.029105,0,1662.3,57.594,3.399,0.083361,3.9976,0.14605,0.018339,0
1552.2,54.3,20.012,0,-0.029105,0,1662.4,57.595,3.4789,0.086132,3.9977,0.14085,0.018401,0
1552.2,54.3,20.012,0,-0.029105,0,1662.4,57.595,3.4789,0.086132,3.9977,0.14085,0.018401,0
1552.2,54.3,20.012,0,-0.029105,0,1662.4,57.595,3.4789,0.086132,3.9977,0.14085,0.018401,0
1552.2,54.3,20.012,0,-0.029105,0,1662.4,57.595,3.4789,0.086132,3.9977,0.14085,0.018401,0
1552.2,54.3,20.012,0,-0.029105,0,1662.4,57.595,3.4789,0.086132,3.9977,0.14085,0.018401,0
1552.2,54.3,20.012,0,-0.029105,0,1662.4,57.595,3.4789,0.086132,3.9977,0.14085,0.018401,0
1552.2,54.3,20.012,0,-0.029105,0,1662.4,57.595,3.4789,0.086132,3.9977,0.14085,0.018401,0
1554.2,54.3,20.009,0,-0.029426,0,1662.5,57.597,3.5589,0.08879,3.9979,0.13514,0.018804,0
1554.6,54.3,20.008,0,-0.029489,0,1662.5,57.597,3.5589,0.08879,3.9979,0.13514,0.018873,0
1554.6,54.3,20.008,0,-0.029489,0,1662.8,57.605,3.8788,0.098114,3.9985,0.10796,0.019125,0
1554.6,54.3,20.008,0,-0.029489,0,1662.8,57.605,3.8788,0.098114,3.9985,0.10796,0.019125,0
1556.2,54.3,20.006,0,-0.029745,0,1662.8,57.606,3.9587,0.10008,3.9987,0.10027,0.019475,0
1556.2,54.3,20.006,0,-0.029745,0,1662.8,57.606,3.9587,0.10008,3.9987,0.10027,0.019475,0
1556.2,54.3,20.006,0,-0.029745,0,1662.8,57.606,3.9587,0.10008,3.9987,0.10027,0.019475,0
1556.6,54.3,20.005,0,-0.029808,0,1662.8,57.606,3.9587,0.10008,3.9987,0.10027,0.019548,0
1556.6,54.3,20.005,0,-0.029808,0,1662.8,57.606,3.9587,0.10008,3.9987,0.10027,0.019548,0
1556.6,54.3,20.005,0,-0.029808,0,1662.8,57.606,3.9587,0.10008,3.9987,0.10027,0.019548,0
1556.6,54.3,20.005,0,-0.029808,0,1662.8,57.606,3.9587,0.10008,3.9987,0.10027,0.019548,0
1556.6,54.3,20.005,0,-0.029808,0,1662.8,57.606,3.9587,0.10008,3.9987,0.10027,0.019548,0
1556.6,54.3,20.005,0,-0.029808,0,1662.8,57.606,3.9587,0.10008,3.9987,0.10027,0.019548,0
1556.6,54.3,20.005,0,-0.029808,0,1662.8,57.606,3.9587,0.10008,3.9987,0.10027,0.019548,0
1557,54.3,20.005,0,-0.029871,0,1662.8,57.606,3.9587,0.10008,3.9987,0.10027,0.019622,0
1557,54.3,20.005,0,-0.029871,0,1662.8,57.606,3.9587,0.10008,3.9987,0.10027,0.019622,0
1557,54.3,20.005,0,-0.029871,0,1662.8,57.606,3.9587,0.10008,3.9987,0.10027,0.019622,0
1557,54.3,20.005,0,-0.029871,0,1662.8,57.606,3.9587,0.10008,3.9987,0.10027,0.019622,0
1557,54.3,20.005,0,-0.029871,0,1662.8,57.606,3.9587,0.10008,3.9987,0.10027,0.019622,0
1557.4,54.3,20.004,0,-0.029935,0,1662.8,57.606,3.9587,0.10008,3.9987,0.10027,0.019697,0
1557.4,54.3,20.004,0,-0.029935,0,1663.3,57.619,4.4387,0.10844,4,0.049732,0.020079,0
1557.4,54.3,20.004,0,-0.029935,0,1663.3,57.619,4.4387,0.10844,4,0.049732,0.020079,0
1559,54.3,20.002,0,-0.030188,0,1663.4,57.621,4.5187,0.10923,4.0002,0.040955,0.02045,0
1559,54.3,20.002,0,-0.030188,0,1663.4,57.621,4.5187,0.10923,4.0002,0.040955,0.02045,0
1560.2,54.3,20,0,-0.030376,0,1663.7,57.628,4.7587,0.11058,4.0007,0.014789,0.020881,0
1560.2,54.3,20,0,-0.030376,0,1663.7,57.628,4.7587,0.11058,4.0007,0.014789,0.020881,0
1560.2,54.3,20,0,-0.030376,0,1663.7,57.628,4.7587,0.11058,4.0007,0.014789,0.020881,0
1560.2,54.3,20,0,-0.030376,0,1663.7,57.628,4.7587,0.11058,4.0007,0.014789,0.020881,0
1560.6,54.3,19.999,0,-0.030438,0,1663.7,57.628,4.7587,0.11058,4.0007,0.014789,0.020962,0
1560.6,54.3,19.999,0,-0.030438,0,1663.7,57.628,4.7587,0.11058,4.0007,0.014789,0.020962,0
1560.6,54.3,19.999,0,-0.030438,0,1663.7,57.628,4.7587,0.11058,4.0007,0.014789,0.020962,0
1560.6,54.3,19.999,0,-0.030438,0,1663.7,57.628,4.7587,0.11058,4.0007,0.014789,0.020962,0
1560.6,54.3,19.999,0,-0.030438,0,1663.7,57.628,4.7587,0.11058,4.0007,0.014789,0.020962,0
1560.6,54.3,19.999,0,-0.030438,0,1663.7,57.628,4.7587,0.11058,4.0007,0.014789,0.020962,0
1560.6,54.3,19.999,0,-0.030438,0,1663.7,57.628,4.7587,0.11058,4.0007,0.014789,0.020962,0
1560.6,54.3,19.999,0,-0.030438,0,1663.7,57.628,4.7587,0.11058,4.0007,0.014789,0.020962,0
1560.6,54.3,19.999,0,-0.030438,0,1664.1,57.637,5.0788,0.11004,4.0014,-0.018462,0.021219,0
1560.6,54.3,19.999,0,-0.030438,0,1664.1,57.637,5.0788,0.11004,4.0014,-0.018462,0.021219,0
1560.6,54.3,19.999,0,-0.030438,0,1664.1,57.637,5.0788,0.11004,4.0014,-0.018462,0.021219,0
1560.6,54.3,19.999,0,-0.030438,0,1664.1,57.637,5.0788,0.11004,4.0014,-0.018462,0.021219,0
1561.8,54.3,19.998,0,-0.030628,0,1664.2,57.639,5.1588,0.10951,4.0015,-0.026285,0.021532,0
1561.8,54.3,19.998,0,-0.030628,0,1664.2,57.639,5.1588,0.10951,4.0015,-0.026285,0.021532,0
1562.2,54.3,19.997,0,-0.030691,0,1664.2,57.639,5.1588,0.10951,4.0015,-0.026285,0.021617,0
1562.2,54.3,19.997,0,-0.030691,0,1664.7,57.649,5.559,0.10473,4.0019,-0.061323,0.021938,0
1564.2,54.3,19.994,0,-0.031004,0,1664.9,57.652,5.6391,0.10339,4.0019,-0.067396,0.022438,0
1564.6,54.3,19.993,0,-0.031066,0,1664.9,57.652,5.6391,0.10339,4.0019,-0.067396,0.022528,0
1565,54.3,19.993,0,-0.031127,0,1664.9,57.652,5.6391,0.10339,4.0019,-0.067396,0.022618,0
1565,54.3,19.993,0,-0.031127,0,1664.9,57.652,5.6391,0.10339,4.0019,-0.067396,0.022618,0
1565,54.3,19.993,0,-0.031127,0,1664.9,57.652,5.6391,0.10339,4.0019,-0.067396,0.022618,0
1565,54.3,19.993,0,-0.031127,0,1664.9,57.652,5.6391,0.10339,4.0019,-0.067396,0.022618,0
1565,54.3,19.993,0,-0.031127,0,1664.9,57.652,5.6391,0.10339,4.0019,-0.067396,0.022618,0
1565,54.3,19.993,0,-0.031127,0,1664.9,57.652,5.6391,0.10339,4.0019,-0.067396,0.022618,0
1565,54.3,19.993,0,-0.031127,0,1664.9,57.652,5.6391,0.10339,4.0019,-0.067396,0.022618,0
1565,54.3,19.993,0,-0.031127,0,1664.9,57.652,5.6391,0.10339,4.0019,-0.067396,0.022618,0
1565,54.3,19.993,0,-0.031127,0,1664.9,57.652,5.6391,0.10339,4.0019,-0.067396,0.022618,0
1565,54.3,19.993,0,-0.031127,0,1664.9,57.652,5.6391,0.10339,4.0019,-0.067396,0.022618,0
1565,54.3,19.993,0,-0.031127,0,1665.3,57.659,5.9592,0.096983,4.002,-0.088207,0.022876,0
1565,54.3,19.993,0,-0.031127,0,1665.3,57.659,5.9592,0.096983,4.002,-0.088207,0.022876,0
1565,54.3,19.993,0,-0.031127,0,1665.3,57.659,5.9592,0.096983,4.002,-0.088207,0.022876,0
1565,54.3,19.993,0,-0.031127,0,1665.3,57.659,5.9592,0.096983,4.002,-0.088207,0.022876,0
1565,54.3,19.993,0,-0.031127,0,1665.3,57.659,5.9592,0.096983,4.002,-0.088207,0.022876,0
1565,54.3,19.993,0,-0.031127,0,1665.3,57.659,5.9592,0.096983,4.002,-0.088207,0.022876,0
1565,54.3,19.993,0,-0.031127,0,1665.3,57.659,5.9592,0.096983,4.002,-0.088207,0.022876,0
1565,54.3,19.993,0,-0.031127,0,1665.3,57.659,5.9592,0.096983,4.002,-0.088207,0.022876,0
1565,54.3,19.993,0,-0.031127,0,1665.3,57.659,5.9592,0.096983,4.002,-0.088207,0.022876,0
1565.8,54.3,19.991,0,-0.031252,0,1665.3,57.659,5.9592,0.096983,4.002,-0.088207,0.02306,0
1565.8,54.3,19.991,0,-0.031252,0,1665.3,57.659,5.9592,0.096983,4.002,-0.088207,0.02306,0
1566.2,54.3,19.991,0,-0.031313,0,1665.3,57.659,5.9592,0.096983,4.002,-0.088207,0.023153,0
1566.2,54.3,19.991,0,-0.031313,0,1665.9,57.669,6.3594,0.087131,4.0019,-0.1061,0.023475,0
1569,54.3,19.986,0,-0.031742,0,1666.1,57.67,6.4394,0.084986,4.0018,-0.10861,0.024216,0
1569.8,54.3,19.985,0,-0.031861,0,1666.6,57.677,6.7596,0.076054,4.0016,-0.11525,0.024675,0
1569.8,54.3,19.985,0,-0.031861,0,1666.6,57.677,6.7596,0.076054,4.0016,-0.11525,0.024675,0
1569.8,54.3,19.985,0,-0.031861,0,1666.6,57.677,6.7596,0.076054,4.0016,-0.11525,0.024675,0
1569.8,54.3,19.985,0,-0.031861,0,1666.6,57.677,6.7596,0.076054,4.0016,-0.11525,0.024675,0
1569.8,54.3,19.985,0,-0.031861,0,1666.6,57.677,6.7596,0.076054,4.0016,-0.11525,0.024675,0
1569.8,54.3,19.985,0,-0.031861,0,1666.6,57.677,6.7596,0.076054,4.0016,-0.11525,0.024675,0
1569.8,54.3,19.985,0,-0.031861,0,1666.6,57.677,6.7596,0.076054,4.0016,-0.11525,0.024675,0
1570.2,54.3,19.984,0,-0.031922,0,1666.6,57.677,6.7596,0.076054,4.0016,-0.11525,0.024778,0
1570.2,54.3,19.984,0,-0.031922,0,1666.6,57.677,6.7596,0.076054,4.0016,-0.11525,0.024778,0
1570.2,54.3,19.984,0,-0.031922,0,1666.6,57.677,6.7596,0.076054,4.0016,-0.11525,0.024778,0
1570.2,54.3,19.984,0,-0.031922,0,1666.6,57.677,6.7596,0.076054,4.0016,-0.11525,0.024778,0
1570.2,54.3,19.984,0,-0.031922,0,1666.6,57.677,6.7596,0.076054,4.0016,-0.11525,0.024778,0
1570.2,54.3,19.984,0,-0.031922,0,1666.6,57.677,6.7596,0.076054,4.0016,-0.11525,0.024778,0
1570.2,54.3,19.984,0,-0.031922,0,1666.6,57.677,6.7596,0.076054,4.0016,-0.11525,0.024778,0
1570.2,54.3,19.984,0,-0.031922,0,1666.6,57.677,6.7596,0.076054,4.0016,-0.11525,0.024778,0
1570.2,54.3,19.984,0,-0.031922,0,1666.6,57.677,6.7596,0.076054,4.0016,-0.11525,0.024778,0
1570.2,54.3,19.984,0,-0.031922,0,1666.6,57.677,6.7596,0.076054,4.0016,-0.11525,0.024778,0
1570.2,54.3,19.984,0,-0.031922,0,1666.6,57.677,6.7596,0.076054,4.0016,-0.11525,0.024778,0
1570.2,54.3,19.984,0,-0.031922,0,1667,57.681,6.9997,0.069161,4.0014,-0.11694,0.02497,0
1570.2,54.3,19.984,0,-0.031922,0,1667,57.681,6.9997,0.069161,4.0014,-0.11694,0.02497,0
1571,54.3,19.983,0,-0.032044,0,1667,57.681,6.9997,0.069161,4.0014,-0.11694,0.025177,0
1571,54.3,19.983,0,-0.032044,0,1667,57.681,6.9997,0.069161,4.0014,-0.11694,0.025177,0
1572.2,54.3,19.981,0,-0.032225,0,1667.4,57.685,7.2397,0.062272,4.0012,-0.11616,0.025687,0
1573.8,54.3,19.979,0,-0.032463,0,1667.9,57.688,7.4798,0.05552,4.001,-0.11325,0.026316,0
1573.8,54.3,19.979,0,-0.032463,0,1667.9,57.688,7.4798,0.05552,4.001,-0.11325,0.026316,0
1573.8,54.3,19.979,0,-0.032463,0,1668.3,57.691,7.7198,0.049014,4.0008,-0.10859,0.026506,0
1574.6,54.3,19.977,0,-0.032584,0,1668.3,57.691,7.7198,0.049014,4.0008,-0.10859,0.026731,0
1574.6,54.3,19.977,0,-0.032584,0,1668.3,57.691,7.7198,0.049014,4.0008,-0.10859,0.026731,0
1574.6,54.3,19.977,0,-0.032584,0,1668.3,57.691,7.7198,0.049014,4.0008,-0.10859,0.026731,0
1574.6,54.3,19.977,0,-0.032584,0,1668.3,57.691,7.7198,0.049014,4.0008,-0.10859,0.026731,0
1575,54.3,19.977,0,-0.032643,0,1668.3,57.691,7.7198,0.049014,4.0008,-0.10859,0.026845,0
1575,54.3,19.977,0,-0.032643,0,1668.3,57.691,7.7198,0.049014,4.0008,-0.10859,0.026845,0
1575,54.3,19.977,0,-0.032643,0,1668.3,57.691,7.7198,0.049014,4.0008,-0.10859,0.026845,0
1575,54.3,19.977,0,-0.032643,0,1668.3,57.691,7.7198,0.049014,4.0008,-0.10859,0.026845,0
1575,54.3,19.977,0,-0.032643,0,1668.3,57.691,7.7198,0.049014,4.0008,-0.10859,0.026845,0
1575,54.3,19.977,0,-0.032643,0,1668.3,57.691,7.7198,0.049014,4.0008,-0.10859,0.026845,0
1575,54.3,19.977,0,-0.032643,0,1668.3,57.691,7.7198,0.049014,4.0008,-0.10859,0.026845,0
1575,54.3,19.977,0,-0.032643,0,1668.8,57.694,7.9599,0.042844,4.0006,-0.10254,0.027033,0
1575,54.3,19.977,0,-0.032643,0,1668.8,57.694,7.9599,0.042844,4.0006,-0.10254,0.027033,0
1575,54.3,19.977,0,-0.032643,0,1668.8,57.694,7.9599,0.042844,4.0006,-0.10254,0.027033,0
1575,54.3,19.977,0,-0.032643,0,1668.8,57.694,7.9599,0.042844,4.0006,-0.10254,0.027033,0
1575,54.3,19.977,0,-0.032643,0,1668.8,57.694,7.9599,0.042844,4.0006,-0.10254,0.027033,0
1576.2,54.3,19.975,0,-0.03282,0,1669,57.695,8.0399,0.040874,4.0006,-0.10028,0.027445,0
1576.2,54.3,19.975,0,-0.03282,0,1669,57.695,8.0399,0.040874,4.0006,-0.10028,0.027445,0
1577.4,54.3,19.973,0,-0.032998,0,1669.3,57.697,8.1999,0.037087,4.0005,-0.095063,0.027928,0
1577.4,54.3,19.973,0,-0.032998,0,1669.3,57.697,8.1999,0.037087,4.0005,-0.095063,0.027928,0
1578.2,54.3,19.971,0,-0.033115,0,1669.8,57.699,8.4399,0.031833,4.0004,-0.086406,0.028357,0
1578.2,54.3,19.971,0,-0.033115,0,1670.1,57.7,8.6,0.028617,4.0003,-0.080591,0.028479,0
1579,54.3,19.97,0,-0.033232,0,1670.1,57.7,8.6,0.028617,4.0003,-0.080591,0.028728,0
1579,54.3,19.97,0,-0.033232,0,1670.1,57.7,8.6,0.028617,4.0003,-0.080591,0.028728,0
1579,54.3,19.97,0,-0.033232,0,1670.1,57.7,8.6,0.028617,4.0003,-0.080591,0.028728,0
1579,54.3,19.97,0,-0.033232,0,1670.1,57.7,8.6,0.028617,4.0003,-0.080591,0.028728,0
1579.4,54.3,19.969,0,-0.03329,0,1670.1,57.7,8.6,0.028617,4.0003,-0.080591,0.028854,0
1579.4,54.3,19.969,0,-0.03329,0,1670.1,57.7,8.6,0.028617,4.0003,-0.080591,0.028854,0
1579.4,54.3,19.969,0,-0.03329,0,1670.1,57.7,8.6,0.028617,4.0003,-0.080591,0.028854,0
1579.4,54.3,19.969,0,-0.03329,0,1670.1,57.7,8.6,0.028617,4.0003,-0.080591,0.028854,0
1579.4,54.3,19.969,0,-0.03329,0,1670.1,57.7,8.6,0.028617,4.0003,-0.080591,0.028854,0
1579.4,54.3,19.969,0,-0.03329,0,1670.1,57.7,8.6,0.028617,4.0003,-0.080591,0.028854,0
1579.4,54.3,19.969,0,-0.03329,0,1670.1,57.7,8.6,0.028617,4.0003,-0.080591,0.028854,0
1579.4,54.3,19.969,0,-0.03329,0,1670.6,57.701,8.84,0.024217,4.0002,-0.072004,0.029035,0
1579.4,54.3,19.969,0,-0.03329,0,1670.6,57.701,8.84,0.024217,4.0002,-0.072004,0.029035,0
1579.4,54.3,19.969,0,-0.03329,0,1670.6,57.701,8.84,0.024217,4.0002,-0.072004,0.029035,0
1579.4,54.3,19.969,0,-0.03329,0,1670.6,57.701,8.84,0.024217,4.0002,-0.072004,0.029035,0
1579.4,54.3,19.969,0,-0.03329,0,1670.6,57.701,8.84,0.024217,4.0002,-0.072004,0.029035,0
1580.6,54.3,19.967,0,-0.033465,0,1670.8,57.702,8.92,0.022862,4.0002,-0.069208,0.02948,0
1580.6,54.3,19.967,0,-0.033465,0,1670.8,57.702,8.92,0.022862,4.0002,-0.069208,0.02948,0
1581.8,54.3,19.965,0,-0.033638,0,1671.2,57.703,9.08,0.020312,4.0002,-0.063747,0.029995,0
1582.6,54.3,19.964,0,-0.033753,0,1671.7,57.704,9.32,0.016875,4.0001,-0.055948,0.03044,0
1582.6,54.3,19.964,0,-0.033753,0,1672.1,57.704,9.48,0.01483,4.0001,-0.051046,0.030556,0
1582.6,54.3,19.964,0,-0.033753,0,1672.1,57.704,9.48,0.01483,4.0001,-0.051046,0.030556,0
1582.6,54.3,19.964,0,-0.033753,0,1672.3,57.705,9.56,0.013878,4.0001,-0.04869,0.030613,0
1582.6,54.3,19.964,0,-0.033753,0,1672.3,57.705,9.56,0.013878,4.0001,-0.04869,0.030613,0
1583.8,54.3,19.962,0,-0.033925,0,1672.3,57.705,9.56,0.013878,4.0001,-0.04869,0.031027,0
1583.8,54.3,19.962,0,-0.033925,0,1672.3,57.705,9.56,0.013878,4.0001,-0.04869,0.031027,0
1583.8,54.3,19.962,0,-0.033925,0,1672.3,57.705,9.56,0.013878,4.0001,-0.04869,0.031027,0
1583.8,54.3,19.962,0,-0.033925,0,1672.3,57.705,9.56,0.013878,4.0001,-0.04869,0.031027,0
1583.8,54.3,19.962,0,-0.033925,0,1672.3,57.705,9.56,0.013878,4.0001,-0.04869,0.031027,0
1583.8,54.3,19.962,0,-0.033925,0,1672.3,57.705,9.56,0.013878,4.0001,-0.04869,0.031027,0
1583.8,54.3,19.962,0,-0.033925,0,1672.3,57.705,9.56,0.013878,4.0001,-0.04869,0.031027,0
1583.8,54.3,19.962,0,-0.033925,0,1672.3,57.705,9.56,0.013878,4.0001,-0.04869,0.031027,0
1583.8,54.3,19.962,0,-0.033925,0,1672.7,57.705,9.72,0.012106,4.0001,-0.044176,0.03114,0
1583.8,54.3,19.962,0,-0.033925,0,1672.7,57.705,9.72,0.012106,4.0001,-0.044176,0.03114,0
1583.8,54.3,19.962,0,-0.033925,0,1672.9,57.705,9.8,0.011284,4.0001,-0.04202,0.031197,0
1583.8,54.3,19.962,0,-0.033925,0,1672.9,57.705,9.8,0.011284,4.0001,-0.04202,0.031197,0
1583.8,54.3,19.962,0,-0.033925,0,1672.9,57.705,9.8,0.011284,4.0001,-0.04202,0.031197,0
1585,54.3,19.96,0,-0.034097,0,1672.9,57.705,9.8,0.011284,4.0001,-0.04202,0.031621,0
1586.2,54.3,19.958,0,-0.034266,0,1673.5,57.706,10.04,0.0090592,4,-0.035958,0.032223,0
1586.6,54.3,19.957,0,-0.034323,0,1673.5,57.706,10.04,0.0090592,4,-0.035958,0.03237,0
1587.4,54.3,19.956,0,-0.034435,0,1674.1,57.706,10.28,0.007167,4,-0.030504,0.032832,0
1587.4,54.3,19.956,0,-0.034435,0,1674.1,57.706,10.28,0.007167,4,-0.030504,0.032832,0
1587.4,54.3,19.956,0,-0.034435,0,1674.1,57.706,10.28,0.007167,4,-0.030504,0.032832,0
1587.4,54.3,19.956,0,-0.034435,0,1674.1,57.706,10.28,0.007167,4,-0.030504,0.032832,0
1587.4,54.3,19.956,0,-0.034435,0,1674.1,57.706,10.28,0.007167,4,-0.030504,0.032832,0
1587.4,54.3,19.956,0,-0.034435,0,1674.1,57.706,10.28,0.007167,4,-0.030504,0.032832,0
1587.4,54.3,19.956,0,-0.034435,0,1674.1,57.706,10.28,0.007167,4,-0.030504,0.032832,0
1587.4,54.3,19.956,0,-0.034435,0,1674.1,57.706,10.28,0.007167,4,-0.030504,0.032832,0
1587.4,54.3,19.956,0,-0.034435,0,1674.1,57.706,10.28,0.007167,4,-0.030504,0.032832,0
1587.4,54.3,19.956,0,-0.034435,0,1674.1,57.706,10.28,0.007167,4,-0.030504,0.032832,0
1587.4,54.3,19.956,0,-0.034435,0,1674.5,57.707,10.44,0.0060729,4,-0.027199,0.032938,0
1587.4,54.3,19.956,0,-0.034435,0,1674.5,57.707,10.44,0.0060729,4,-0.027199,0.032938,0
1587.4,54.3,19.956,0,-0.034435,0,1674.5,57.707,10.44,0.0060729,4,-0.027199,0.032938,0
1587.4,54.3,19.956,0,-0.034435,0,1674.5,57.707,10.44,0.0060729,4,-0.027199,0.032938,0
1587.4,54.3,19.956,0,-0.034435,0,1674.5,57.707,10.44,0.0060729,4,-0.027199,0.032938,0
1587.4,54.3,19.956,0,-0.034435,0,1674.5,57.707,10.44,0.0060729,4,-0.027199,0.032938,0
1587.4,54.3,19.956,0,-0.034435,0,1674.5,57.707,10.44,0.0060729,4,-0.027199,0.032938,0
1587.4,54.3,19.956,0,-0.034435,0,1674.5,57.707,10.44,0.0060729,4,-0.027199,0.032938,0
1587.4,54.3,19.956,0,-0.034435,0,1674.5,57.707,10.44,0.0060729,4,-0.027199,0.032938,0
1588.2,54.3,19.954,0,-0.034547,0,1674.5,57.707,10.44,0.0060729,4,-0.027199,0.033242,0
1588.6,54.3,19.954,0,-0.034604,0,1674.5,57.707,10.44,0.0060729,4,-0.027199,0.033396,0
1589.8,54.3,19.952,0,-0.03477,0,1675.4,57.707,10.76,0.0042408,4,-0.021351,0.034072,0
1591.8,54.3,19.948,0,-0.035048,0,1675.8,57.707,10.92,0.0034834,4,-0.018788,0.034982,0
1591.8,54.3,19.948,0,-0.035048,0,1675.8,57.707,10.92,0.0034834,4,-0.018788,0.034982,0
1591.8,54.3,19.948,0,-0.035048,0,1675.8,57.707,10.92,0.0034834,4,-0.018788,0.034982,0
1591.8,54.3,19.948,0,-0.035048,0,1675.8,57.707,10.92,0.0034834,4,-0.018788,0.034982,0
1591.8,54.3,19.948,0,-0.035048,0,1675.8,57.707,10.92,0.0034834,4,-0.018788,0.034982,0
1591.8,54.3,19.948,0,-0.035048,0,1675.8,57.707,10.92,0.0034834,4,-0.018788,0.034982,0
1591.8,54.3,19.948,0,-0.035048,0,1675.8,57.707,10.92,0.0034834,4,-0.018788,0.034982,0
1592.2,54.3,19.948,0,-0.035102,0,1675.8,57.707,10.92,0.0034834,4,-0.018788,0.035149,0
1592.2,54.3,19.948,0,-0.035102,0,1675.8,57.707,10.92,0.0034834,4,-0.018788,0.035149,0
1592.2,54.3,19.948,0,-0.035102,0,1675.8,57.707,10.92,0.0034834,4,-0.018788,0.035149,0
1592.2,54.3,19.948,0,-0.035102,0,1675.8,57.707,10.92,0.0034834,4,-0.018788,0.035149,0
1592.2,54.3,19.948,0,-0.035102,0,1675.8,57.707,10.92,0.0034834,4,-0.018788,0.035149,0
1592.2,54.3,19.948,0,-0.035102,0,1675.8,57.707,10.92,0.0034834,4,-0.018788,0.035149,0
1592.2,54.3,19.948,0,-0.035102,0,1675.8,57.707,10.92,0.0034834,4,-0.018788,0.035149,0
1592.2,54.3,19.948,0,-0.035102,0,1675.8,57.707,10.92,0.0034834,4,-0.018788,0.035149,0
1592.2,54.3,19.948,0,-0.035102,0,1675.8,57.707,10.92,0.0034834,4,-0.018788,0.035149,0
1592.2,54.3,19.948,0,-0.035102,0,1675.8,57.707,10.92,0.0034834,4,-0.018788,0.035149,0
1592.2,54.3,19.948,0,-0.035102,0,1677.1,57.708,11.111,0.0016886,2.1075e-06,-0.012884,0.034932,0
1592.2,54.3,19.948,0,-0.035102,0,1677.3,57.708,11.111,0.001456,1.6844e-06,-0.011884,0.034841,0
1593.7,54.3,19.945,0,-0.035321,0,1677.3,57.708,11.111,0.001456,1.6844e-06,-0.011884,0.035505,0
1594.1,54.3,19.944,0,-0.035374,0,1677.3,57.708,11.111,0.001456,1.6844e-06,-0.011884,0.035675,0
1595.7,54.3,19.941,0,-0.03559,0,1678.4,57.708,11.111,0.00055071,4.3446e-07,-0.0076913,0.035883,0
1595.7,54.3,19.941,0,-0.03559,0,1678.4,57.708,11.111,0.00055071,4.3446e-07,-0.0076913,0.035883,0
1596.1,54.3,19.94,0,-0.035645,0,1678.4,57.708,11.111,0.00055071,4.3446e-07,-0.0076913,0.036056,0
1596.1,54.3,19.94,0,-0.035645,0,1678.4,57.708,11.111,0.00055071,4.3446e-07,-0.0076913,0.036056,0
1596.1,54.3,19.94,0,-0.035645,0,1678.4,57.708,11.111,0.00055071,4.3446e-07,-0.0076913,0.036056,0
1596.1,54.3,19.94,0,-0.035645,0,1678.4,57.708,11.111,0.00055071,4.3446e-07,-0.0076913,0.036056,0
1596.1,54.3,19.94,0,-0.035645,0,1678.4,57.708,11.111,0.00055071,4.3446e-07,-0.0076913,0.036056,0
1596.1,54.3,19.94,0,-0.035645,0,1678.4,57.708,11.111,0.00055071,4.3446e-07,-0.0076913,0.036056,0
1596.1,54.3,19.94,0,-0.035645,0,1678.4,57.708,11.111,0.00055071,4.3446e-07,-0.0076913,0.036056,0
1596.1,54.3,19.94,0,-0.035645,0,1678.4,57.708,11.111,0.00055071,4.3446e-07,-0.0076913,0.036056,0
1596.1,54.3,19.94,0,-0.035645,0,1679.3,57.708,11.111,7.7882e-05,6.0481e-08,-0.0051814,0.035672,0
1596.1,54.3,19.94,0,-0.035645,0,1679.3,57.708,11.111,7.7882e-05,6.0481e-08,-0.0051814,0.035672,0
1596.1,54.3,19.94,0,-0.035645,0,1679.3,57.708,11.111,7.7882e-05,6.0481e-08,-0.0051814,0.035672,0
1596.1,54.3,19.94,0,-0.035645,0,1679.3,57.708,11.111,7.7882e-05,6.0481e-08,-0.0051814,0.035672,0
1596.1,54.3,19.94,0,-0.035645,0,1679.3,57.708,11.111,7.7882e-05,6.0481e-08,-0.0051814,0.035672,0
1596.1,54.3,19.94,0,-0.035645,0,1679.3,57.708,11.111,7.7882e-05,6.0481e-08,-0.0051814,0.035672,0
1596.1,54.3,19.94,0,-0.035645,0,1679.3,57.708,11.111,7.7882e-05,6.0481e-08,-0.0051814,0.035672,0
1596.1,54.3,19.94,0,-0.035645,0,1679.6,57.708,11.111,-1.253e-05,1.425e-08,-0.0046546,0.035577,0
1596.1,54.3,19.94,0,-0.035645,0,1679.6,57.708,11.111,-1.253e-05,1.425e-08,-0.0046546,0.035577,0
1596.1,54.3,19.94,0,-0.035645,0,1679.8,57.708,11.111,-9.3318e-05,-1.9367e-08,-0.0041642,0.035483,0
1598.5,54.3,19.936,0,-0.035966,0,1679.8,57.708,11.111,-9.3318e-05,-1.9367e-08,-0.0041642,0.036525,0
1598.5,54.3,19.936,0,-0.035966,0,1679.8,57.708,11.111,-9.3318e-05,-1.9367e-08,-0.0041642,0.036525,0
1598.9,54.3,19.935,0,-0.03602,0,1679.8,57.708,11.111,-9.3318e-05,-1.9367e-08,-0.0041642,0.036705,0
1598.9,54.3,19.935,0,-0.03602,0,1681.1,57.708,11.111,-0.00041183,-6.68e-08,-0.0018889,0.036111,0
1598.9,54.3,19.935,0,-0.03602,0,1681.1,57.708,11.111,-0.00041183,-6.68e-08,-0.0018889,0.036111,0
1600.5,54.3,19.933,0,-0.036231,0,1681.3,57.708,11.111,-0.00044249,-6.1619e-08,-0.0016055,0.036723,0
1600.9,54.3,19.932,0,-0.036284,0,1681.3,57.708,11.111,-0.00044249,-6.1619e-08,-0.0016055,0.036904,0
1600.9,54.3,19.932,0,-0.036284,0,1681.3,57.708,11.111,-0.00044249,-6.1619e-08,-0.0016055,0.036904,0
1600.9,54.3,19.932,0,-0.036284,0,1681.3,57.708,11.111,-0.00044249,-6.1619e-08,-0.0016055,0.036904,0
1600.9,54.3,19.932,0,-0.036284,0,1681.3,57.708,11.111,-0.00044249,-6.1619e-08,-0.0016055,0.036904,0
1600.9,54.3,19.932,0,-0.036284,0,1681.3,57.708,11.111,-0.00044249,-6.1619e-08,-0.0016055,0.036904,0
1600.9,54.3,19.932,0,-0.036284,0,1681.3,57.708,11.111,-0.00044249,-6.1619e-08,-0.0016055,0.036904,0
1600.9,54.3,19.932,0,-0.036284,0,1681.3,57.708,11.111,-0.00044249,-6.1619e-08,-0.0016055,0.036904,0
1600.9,54.3,19.932,0,-0.036284,0,1681.3,57.708,11.111,-0.00044249,-6.1619e-08,-0.0016055,0.036904,0
1600.9,54.3,19.932,0,-0.036284,0,1682,57.708,11.111,-0.00050569,-3.9787e-08,-0.00088988,0.036601,0
1600.9,54.3,19.932,0,-0.036284,0,1682,57.708,11.111,-0.00050569,-3.9787e-08,-0.00088988,0.036601,0
1600.9,54.3,19.932,0,-0.036284,0,1682,57.708,11.111,-0.00050569,-3.9787e-08,-0.00088988,0.036601,0
1600.9,54.3,19.932,0,-0.036284,0,1682,57.708,11.111,-0.00050569,-3.9787e-08,-0.00088988,0.036601,0
1600.9,54.3,19.932,0,-0.036284,0,1682,57.708,11.111,-0.00050569,-3.9787e-08,-0.00088988,0.036601,0
1600.9,54.3,19.932,0,-0.036284,0,1682,57.708,11.111,-0.00050569,-3.9787e-08,-0.00088988,0.036601,0
1600.9,54.3,19.932,0,-0.036284,0,1682,57.708,11.111,-0.00050569,-3.9787e-08,-0.00088988,0.036601,0
1601.7,54.3,19.93,0,-0.036389,0,1682,57.708,11.111,-0.00050569,-3.9787e-08,-0.00088988,0.036964,0
1601.7,54.3,19.93,0,-0.036389,0,1682,57.708,11.111,-0.00050569,-3.9787e-08,-0.00088988,0.036964,0
1602.1,54.3,19.93,0,-0.03644,0,1682,57.708,11.111,-0.00050569,-3.9787e-08,-0.00088988,0.037148,0
1603.3,54.3,19.927,0,-0.036598,0,1682.9,57.708,11.111,-0.00053722,-9.6937e-09,-0.00020124,0.037291,0
1604.5,54.3,19.925,0,-0.036754,0,1683.3,57.708,11.111,-0.0005363,2.42e-09,5.009e-05,0.037645,0
1604.5,54.3,19.925,0,-0.036754,0,1684,57.708,11.111,-0.00052005,1.5704e-08,0.00033338,0.03733,0
1604.5,54.3,19.925,0,-0.036754,0,1684.2,57.708,11.111,-0.00051155,1.8856e-08,0.00040633,0.037226,0
1604.5,54.3,19.925,0,-0.036754,0,1684.2,57.708,11.111,-0.00051155,1.8856e-08,0.00040633,0.037226,0
1604.5,54.3,19.925,0,-0.036754,0,1684.2,57.708,11.111,-0.00051155,1.8856e-08,0.00040633,0.037226,0
1604.5,54.3,19.925,0,-0.036754,0,1684.2,57.708,11.111,-0.00051155,1.8856e-08,0.00040633,0.037226,0
1604.5,54.3,19.925,0,-0.036754,0,1684.2,57.708,11.111,-0.00051155,1.8856e-08,0.00040633,0.037226,0
1604.5,54.3,19.925,0,-0.036754,0,1684.2,57.708,11.111,-0.00051155,1.8856e-08,0.00040633,0.037226,0
1604.5,54.3,19.925,0,-0.036754,0,1684.2,57.708,11.111,-0.00051155,1.8856e-08,0.00040633,0.037226,0
1604.5,54.3,19.925,0,-0.036754,0,1684.2,57.708,11.111,-0.00051155,1.8856e-08,0.00040633,0.037226,0
1604.5,54.3,19.925,0,-0.036754,0,1684.2,57.708,11.111,-0.00051155,1.8856e-08,0.00040633,0.037226,0
1605.7,54.3,19.923,0,-0.036906,0,1684.2,57.708,11.111,-0.00051155,1.8856e-08,0.00040633,0.037792,0
1605.7,54.3,19.923,0,-0.036906,0,1684.2,57.708,11.111,-0.00051155,1.8856e-08,0.00040633,0.037792,0
1605.7,54.3,19.923,0,-0.036906,0,1684.2,57.708,11.111,-0.00051155,1.8856e-08,0.00040633,0.037792,0
1605.7,54.3,19.923,0,-0.036906,0,1684.2,57.708,11.111,-0.00051155,1.8856e-08,0.00040633,0.037792,0
1605.7,54.3,19.923,0,-0.036906,0,1684.2,57.708,11.111,-0.00051155,1.8856e-08,0.00040633,0.037792,0
1605.7,54.3,19.923,0,-0.036906,0,1684.2,57.708,11.111,-0.00051155,1.8856e-08,0.00040633,0.037792,0
1605.7,54.3,19.923,0,-0.036906,0,1684.2,57.708,11.111,-0.00051155,1.8856e-08,0.00040633,0.037792,0
1605.7,54.3,19.923,0,-0.036906,0,1684.2,57.708,11.111,-0.00051155,1.8856e-08,0.00040633,0.037792,0
1605.7,54.3,19.923,0,-0.036906,0,1684.2,57.708,11.111,-0.00051155,1.8856e-08,0.00040633,0.037792,0
1605.7,54.3,19.923,0,-0.036906,0,1684.2,57.708,11.111,-0.00051155,1.8856e-08,0.00040633,0.037792,0
1605.7,54.3,19.923,0,-0.036906,0,1684.7,57.708,11.111,-0.00049104,2.3438e-08,0.00052474,0.037579,0
1605.7,54.3,19.923,0,-0.036906,0,1684.7,57.708,11.111,-0.00049104,2.3438e-08,0.00052474,0.037579,0
1606.9,54.3,19.921,0,-0.03706,0,1684.7,57.708,11.111,-0.00049104,2.3438e-08,0.00052474,0.038155,0
1606.9,54.3,19.921,0,-0.03706,0,1685.6,57.707,11.111,-0.00044033,2.6983e-08,0.00067066,0.037725,0
1609.7,54.3,19.916,0,-0.037415,0,1685.8,57.707,11.111,-0.00042638,2.6975e-08,0.00069172,0.038994,0
1609.7,54.3,19.916,0,-0.037415,0,1685.8,57.707,11.111,-0.00042638,2.6975e-08,0.00069172,0.038994,0
1610.1,54.3,19.915,0,-0.037464,0,1685.8,57.707,11.111,-0.00042638,2.6975e-08,0.00069172,0.039198,0
1610.1,54.3,19.915,0,-0.037464,0,1685.8,57.707,11.111,-0.00042638,2.6975e-08,0.00069172,0.039198,0
1610.1,54.3,19.915,0,-0.037464,0,1685.8,57.707,11.111,-0.00042638,2.6975e-08,0.00069172,0.039198,0
1610.1,54.3,19.915,0,-0.037464,0,1685.8,57.707,11.111,-0.00042638,2.6975e-08,0.00069172,0.039198,0
1610.1,54.3,19.915,0,-0.037464,0,1685.8,57.707,11.111,-0.00042638,2.6975e-08,0.00069172,0.039198,0
1610.1,54.3,19.915,0,-0.037464,0,1685.8,57.707,11.111,-0.00042638,2.6975e-08,0.00069172,0.039198,0
1610.1,54.3,19.915,0,-0.037464,0,1685.8,57.707,11.111,-0.00042638,2.6975e-08,0.00069172,0.039198,0
1610.1,54.3,19.915,0,-0.037464,0,1685.8,57.707,11.111,-0.00042638,2.6975e-08,0.00069172,0.039198,0
1610.1,54.3,19.915,0,-0.037464,0,1687.1,57.707,11.111,-0.00033941,2.2668e-08,0.00072653,0.038522,0
1610.1,54.3,19.915,0,-0.037464,0,1687.1,57.707,11.111,-0.00033941,2.2668e-08,0.00072653,0.038522,0
1610.1,54.3,19.915,0,-0.037464,0,1687.1,57.707,11.111,-0.00033941,2.2668e-08,0.00072653,0.038522,0
1610.1,54.3,19.915,0,-0.037464,0,1687.1,57.707,11.111,-0.00033941,2.2668e-08,0.00072653,0.038522,0
1610.1,54.3,19.915,0,-0.037464,0,1687.1,57.707,11.111,-0.00033941,2.2668e-08,0.00072653,0.038522,0
1610.1,54.3,19.915,0,-0.037464,0,1687.1,57.707,11.111,-0.00033941,2.2668e-08,0.00072653,0.038522,0
1610.1,54.3,19.915,0,-0.037464,0,1687.1,57.707,11.111,-0.00033941,2.2668e-08,0.00072653,0.038522,0
1610.1,54.3,19.915,0,-0.037464,0,1687.3,57.707,11.111,-0.00032502,2.1552e-08,0.00072081,0.038412,0
1612.1,54.3,19.911,0,-0.037711,0,1687.6,57.707,11.111,-0.0003108,2.0393e-08,0.0007127,0.039309,0
1612.1,54.3,19.911,0,-0.037711,0,1688.2,57.707,11.111,-0.00026958,1.6833e-08,0.00067681,0.038966,0
1613.7,54.3,19.908,0,-0.037907,0,1688.2,57.707,11.111,-0.00026958,1.6833e-08,0.00067681,0.039796,0
1613.7,54.3,19.908,0,-0.037907,0,1688.2,57.707,11.111,-0.00026958,1.6833e-08,0.00067681,0.039796,0
1613.7,54.3,19.908,0,-0.037907,0,1688.2,57.707,11.111,-0.00026958,1.6833e-08,0.00067681,0.039796,0
1613.7,54.3,19.908,0,-0.037907,0,1688.2,57.707,11.111,-0.00026958,1.6833e-08,0.00067681,0.039796,0
1613.7,54.3,19.908,0,-0.037907,0,1689.1,57.707,11.111,-0.00021897,1.2369e-08,0.0006106,0.039328,0
1613.7,54.3,19.908,0,-0.037907,0,1689.1,57.707,11.111,-0.00021897,1.2369e-08,0.0006106,0.039328,0
1613.7,54.3,19.908,0,-0.037907,0,1689.1,57.707,11.111,-0.00021897,1.2369e-08,0.0006106,0.039328,0
1613.7,54.3,19.908,0,-0.037907,0,1689.1,57.707,11.111,-0.00021897,1.2369e-08,0.0006106,0.039328,0
1613.7,54.3,19.908,0,-0.037907,0,1689.1,57.707,11.111,-0.00021897,1.2369e-08,0.0006106,0.039328,0
1613.7,54.3,19.908,0,-0.037907,0,1689.1,57.707,11.111,-0.00021897,1.2369e-08,0.0006106,0.039328,0
1613.7,54.3,19.908,0,-0.037907,0,1689.1,57.707,11.111,-0.00021897,1.2369e-08,0.0006106,0.039328,0
1613.7,54.3,19.908,0,-0.037907,0,1689.1,57.707,11.111,-0.00021897,1.2369e-08,0.0006106,0.039328,0
1613.7,54.3,19.908,0,-0.037907,0,1689.1,57.707,11.111,-0.00021897,1.2369e-08,0.0006106,0.039328,0
1614.5,54.3,19.907,0,-0.038004,0,1689.1,57.707,11.111,-0.00021897,1.2369e-08,0.0006106,0.039747,0
1614.5,54.3,19.907,0,-0.038004,0,1689.1,57.707,11.111,-0.00021897,1.2369e-08,0.0006106,0.039747,0
1614.5,54.3,19.907,0,-0.038004,0,1689.1,57.707,11.111,-0.00021897,1.2369e-08,0.0006106,0.039747,0
1615.3,54.3,19.905,0,-0.038101,0,1689.6,57.707,11.111,-0.00019586,1.0396e-08,0.00057299,0.039934,0
1615.7,54.3,19.904,0,-0.038149,0,1689.6,57.707,11.111,-0.00019586,1.0396e-08,0.00057299,0.040149,0
1617.3,54.3,19.901,0,-0.038342,0,1690.7,57.707,11.111,-0.00014494,6.3927e-09,0.00047451,0.040411,0
1617.3,54.3,19.901,0,-0.038342,0,1691.1,57.707,11.111,-0.00012733,5.1603e-09,0.00043539,0.040168,0
1617.3,54.3,19.901,0,-0.038342,0,1691.1,57.707,11.111,-0.00012733,5.1603e-09,0.00043539,0.040168,0
1617.3,54.3,19.901,0,-0.038342,0,1691.1,57.707,11.111,-0.00012733,5.1603e-09,0.00043539,0.040168,0
1617.3,54.3,19.901,0,-0.038342,0,1691.1,57.707,11.111,-0.00012733,5.1603e-09,0.00043539,0.040168,0
1617.3,54.3,19.901,0,-0.038342,0,1691.1,57.707,11.111,-0.00012733,5.1603e-09,0.00043539,0.040168,0
1617.3,54.3,19.901,0,-0.038342,0,1691.1,57.707,11.111,-0.00012733,5.1603e-09,0.00043539,0.040168,0
1617.3,54.3,19.901,0,-0.038342,0,1691.1,57.707,11.111,-0.00012733,5.1603e-09,0.00043539,0.040168,0
1617.3,54.3,19.901,0,-0.038342,0,1691.1,57.707,11.111,-0.00012733,5.1603e-09,0.00043539,0.040168,0
1617.3,54.3,19.901,0,-0.038342,0,1691.1,57.707,11.111,-0.00012733,5.1603e-09,0.00043539,0.040168,0
1618.1,54.3,19.9,0,-0.038438,0,1691.1,57.707,11.111,-0.00012733,5.1603e-09,0.00043539,0.040605,0
1618.1,54.3,19.9,0,-0.038438,0,1691.1,57.707,11.111,-0.00012733,5.1603e-09,0.00043539,0.040605,0
1618.1,54.3,19.9,0,-0.038438,0,1691.1,57.707,11.111,-0.00012733,5.1603e-09,0.00043539,0.040605,0
1618.1,54.3,19.9,0,-0.038438,0,1691.1,57.707,11.111,-0.00012733,5.1603e-09,0.00043539,0.040605,0
1618.1,54.3,19.9,0,-0.038438,0,1691.1,57.707,11.111,-0.00012733,5.1603e-09,0.00043539,0.040605,0
1618.1,54.3,19.9,0,-0.038438,0,1691.1,57.707,11.111,-0.00012733,5.1603e-09,0.00043539,0.040605,0
1618.1,54.3,19.9,0,-0.038438,0,1691.1,57.707,11.111,-0.00012733,5.1603e-09,0.00043539,0.040605,0
1618.1,54.3,19.9,0,-0.038438,0,1691.1,57.707,11.111,-0.00012733,5.1603e-09,0.00043539,0.040605,0
1618.1,54.3,19.9,0,-0.038438,0,1691.1,57.707,11.111,-0.00012733,5.1603e-09,0.00043539,0.040605,0
1618.1,54.3,19.9,0,-0.038438,0,1691.1,57.707,11.111,-0.00012733,5.1603e-09,0.00043539,0.040605,0
1618.1,54.3,19.9,0,-0.038438,0,1691.6,57.707,11.111,-0.00011126,4.12e-09,0.00039728,0.04036,0
1618.1,54.3,19.9,0,-0.038438,0,1691.6,57.707,11.111,-0.00011126,4.12e-09,0.00039728,0.04036,0
1619.2,54.3,19.897,0,-0.038582,0,1691.6,57.707,11.111,-0.00011126,4.12e-09,0.00039728,0.041024,0
1619.2,54.3,19.897,0,-0.038582,0,1691.6,57.707,11.111,-0.00011126,4.12e-09,0.00039728,0.041024,0
1619.2,54.3,19.897,0,-0.038582,0,1692.4,57.707,11.111,-8.3464e-05,2.5409e-09,0.00032555,0.040528,0
1619.2,54.3,19.897,0,-0.038582,0,1692.9,57.707,11.111,-7.1607e-05,1.9617e-09,0.00029245,0.040284,0
1622,54.3,19.892,0,-0.03891,0,1692.9,57.707,11.111,-7.1607e-05,1.9617e-09,0.00029245,0.041862,0
1622.4,54.3,19.891,0,-0.038957,0,1692.9,57.707,11.111,-7.1607e-05,1.9617e-09,0.00029245,0.042097,0
1622.8,54.3,19.89,0,-0.039003,0,1692.9,57.707,11.111,-7.1607e-05,1.9617e-09,0.00029245,0.042335,0
1622.8,54.3,19.89,0,-0.039003,0,1692.9,57.707,11.111,-7.1607e-05,1.9617e-09,0.00029245,0.042335,0
1622.8,54.3,19.89,0,-0.039003,0,1692.9,57.707,11.111,-7.1607e-05,1.9617e-09,0.00029245,0.042335,0
1622.8,54.3,19.89,0,-0.039003,0,1692.9,57.707,11.111,-7.1607e-05,1.9617e-09,0.00029245,0.042335,0
1622.8,54.3,19.89,0,-0.039003,0,1692.9,57.707,11.111,-7.1607e-05,1.9617e-09,0.00029245,0.042335,0
1623.2,54.3,19.89,0,-0.03905,0,1692.9,57.707,11.111,-7.1607e-05,1.9617e-09,0.00029245,0.042576,0
1623.2,54.3,19.89,0,-0.03905,0,1692.9,57.707,11.111,-7.1607e-05,1.9617e-09,0.00029245,0.042576,0
1623.2,54.3,19.89,0,-0.03905,0,1692.9,57.707,11.111,-7.1607e-05,1.9617e-09,0.00029245,0.042576,0
1623.2,54.3,19.89,0,-0.03905,0,1692.9,57.707,11.111,-7.1607e-05,1.9617e-09,0.00029245,0.042576,0
1623.2,54.3,19.89,0,-0.03905,0,1692.9,57.707,11.111,-7.1607e-05,1.9617e-09,0.00029245,0.042576,0
1623.2,54.3,19.89,0,-0.03905,0,1692.9,57.707,11.111,-7.1607e-05,1.9617e-09,0.00029245,0.042576,0
1623.2,54.3,19.89,0,-0.03905,0,1692.9,57.707,11.111,-7.1607e-05,1.9617e-09,0.00029245,0.042576,0
1623.2,54.3,19.89,0,-0.03905,0,1692.9,57.707,11.111,-7.1607e-05,1.9617e-09,0.00029245,0.042576,0
1623.6,54.3,19.889,0,-0.039095,0,1692.9,57.707,11.111,-7.1607e-05,1.9617e-09,0.00029245,0.04282,0
1623.6,54.3,19.889,0,-0.039095,0,1692.9,57.707,11.111,-7.1607e-05,1.9617e-09,0.00029245,0.04282,0
1623.6,54.3,19.889,0,-0.039095,0,1692.9,57.707,11.111,-7.1607e-05,1.9617e-09,0.00029245,0.04282,0
1623.6,54.3,19.889,0,-0.039095,0,1692.9,57.707,11.111,-7.1607e-05,1.9617e-09,0.00029245,0.04282,0
1623.6,54.3,19.889,0,-0.039095,0,1692.9,57.707,11.111,-7.1607e-05,1.9617e-09,0.00029245,0.04282,0
1623.6,54.3,19.889,0,-0.039095,0,1692.9,57.707,11.111,-7.1607e-05,1.9617e-09,0.00029245,0.04282,0
1623.6,54.3,19.889,0,-0.039095,0,1692.9,57.707,11.111,-7.1607e-05,1.9617e-09,0.00029245,0.04282,0
1624.4,54.3,19.887,0,-0.039186,0,1694.7,57.707,11.111,-3.5855e-05,6.1364e-10,0.00018102,0.042223,0
1624.4,54.3,19.887,0,-0.039186,0,1695.1,57.707,11.111,-2.941e-05,4.4207e-10,0.00015847,0.041959,0
1626,54.3,19.884,0,-0.039367,0,1695.1,57.707,11.111,-2.941e-05,4.4207e-10,0.00015847,0.042921,0
1626.8,54.3,19.883,0,-0.039457,0,1696,57.707,11.111,-1.8933e-05,2.1627e-10,0.00011939,0.042863,0
1626.8,54.3,19.883,0,-0.039457,0,1696.7,57.707,11.111,-1.2887e-05,1.1827e-10,9.4974e-05,0.042456,0
1626.8,54.3,19.883,0,-0.039457,0,1696.7,57.707,11.111,-1.2887e-05,1.1827e-10,9.4974e-05,0.042456,0
1626.8,54.3,19.883,0,-0.039457,0,1696.7,57.707,11.111,-1.2887e-05,1.1827e-10,9.4974e-05,0.042456,0
1626.8,54.3,19.883,0,-0.039457,0,1696.7,57.707,11.111,-1.2887e-05,1.1827e-10,9.4974e-05,0.042456,0
1626.8,54.3,19.883,0,-0.039457,0,1696.7,57.707,11.111,-1.2887e-05,1.1827e-10,9.4974e-05,0.042456,0
1626.8,54.3,19.883,0,-0.039457,0,1696.7,57.707,11.111,-1.2887e-05,1.1827e-10,9.4974e-05,0.042456,0
1628,54.3,19.88,0,-0.03959,0,1696.7,57.707,11.111,-1.2887e-05,1.1827e-10,9.4974e-05,0.04319,0
1628,54.3,19.88,0,-0.03959,0,1696.7,57.707,11.111,-1.2887e-05,1.1827e-10,9.4974e-05,0.04319,0
1628,54.3,19.88,0,-0.03959,0,1696.7,57.707,11.111,-1.2887e-05,1.1827e-10,9.4974e-05,0.04319,0
1628,54.3,19.88,0,-0.03959,0,1696.7,57.707,11.111,-1.2887e-05,1.1827e-10,9.4974e-05,0.04319,0
1628,54.3,19.88,0,-0.03959,0,1696.7,57.707,11.111,-1.2887e-05,1.1827e-10,9.4974e-05,0.04319,0
1628,54.3,19.88,0,-0.03959,0,1696.7,57.707,11.111,-1.2887e-05,1.1827e-10,9.4974e-05,0.04319,0
1628,54.3,19.88,0,-0.03959,0,1696.7,57.707,11.111,-1.2887e-05,1.1827e-10,9.4974e-05,0.04319,0
1628,54.3,19.88,0,-0.03959,0,1696.7,57.707,11.111,-1.2887e-05,1.1827e-10,9.4974e-05,0.04319,0
1628,54.3,19.88,0,-0.03959,0,1696.7,57.707,11.111,-1.2887e-05,1.1827e-10,9.4974e-05,0.04319,0
1628,54.3,19.88,0,-0.03959,0,1696.7,57.707,11.111,-1.2887e-05,1.1827e-10,9.4974e-05,0.04319,0
1628,54.3,19.88,0,-0.03959,0,1697.1,57.707,11.111,-9.5886e-06,7.5626e-11,8.0822e-05,0.042914,0
1628,54.3,19.88,0,-0.03959,0,1697.1,57.707,11.111,-9.5886e-06,7.5626e-11,8.0822e-05,0.042914,0
1628,54.3,19.88,0,-0.03959,0,1697.1,57.707,11.111,-9.5886e-06,7.5626e-11,8.0822e-05,0.042914,0
1628,54.3,19.88,0,-0.03959,0,1697.1,57.707,11.111,-9.5886e-06,7.5626e-11,8.0822e-05,0.042914,0
1628,54.3,19.88,0,-0.03959,0,1697.1,57.707,11.111,-9.5886e-06,7.5626e-11,8.0822e-05,0.042914,0
1628,54.3,19.88,0,-0.03959,0,1697.1,57.707,11.111,-9.5886e-06,7.5626e-11,8.0822e-05,0.042914,0
1628,54.3,19.88,0,-0.03959,0,1697.3,57.707,11.111,-8.1347e-06,5.9401e-11,7.4341e-05,0.042777,0
1629.6,54.3,19.877,0,-0.03977,0,1697.3,57.707,11.111,-8.1347e-06,5.9401e-11,7.4341e-05,0.043777,0
1629.6,54.3,19.877,0,-0.03977,0,1697.3,57.707,11.111,-8.1347e-06,5.9401e-11,7.4341e-05,0.043777,0
1631.6,54.3,19.873,0,-0.03999,0,1698,57.707,11.111,-4.4653e-06,2.5885e-11,5.7106e-05,0.044644,0
1631.6,54.3,19.873,0,-0.03999,0,1698,57.707,11.111,-4.4653e-06,2.5885e-11,5.7106e-05,0.044644,0
1632,54.3,19.872,0,-0.040032,0,1698,57.707,11.111,-4.4653e-06,2.5885e-11,5.7106e-05,0.044911,0
1632,54.3,19.872,0,-0.040032,0,1699.6,57.707,11.111,8.8685e-07,-1.5269e-12,2.7921e-05,0.043882,0
1632,54.3,19.872,0,-0.040032,0,1699.8,57.707,11.111,1.3672e-06,-2.499e-12,2.4811e-05,0.043739,0
1632,54.3,19.872,0,-0.040032,0,1699.8,57.707,11.111,1.3672e-06,-2.499e-12,2.4811e-05,0.043739,0
1632,54.3,19.872,0,-0.040032,0,1699.8,57.707,11.111,1.3672e-06,-2.499e-12,2.4811e-05,0.043739,0
1632,54.3,19.872,0,-0.040032,0,1699.8,57.707,11.111,1.3672e-06,-2.499e-12,2.4811e-05,0.043739,0
1632,54.3,19.872,0,-0.040032,0,1699.8,57.707,11.111,1.3672e-06,-2.499e-12,2.4811e-05,0.043739,0
1632,54.3,19.872,0,-0.040032,0,1700,57.707,11.111,1.7911e-06,-3.102e-12,2.1928e-05,0.043596,0
1632,54.3,19.872,0,-0.040032,0,1700,57.707,11.111,1.7911e-06,-3.102e-12,2.1928e-05,0.043596,0
1632,54.3,19.872,0,-0.040032,0,1700.2,57.707,11.111,2.1626e-06,-3.4146e-12,1.9258e-05,0.043455,0
1632,54.3,19.872,0,-0.040032,0,1700.2,57.707,11.111,2.1626e-06,-3.4146e-12,1.9258e-05,0.043455,0
1632,54.3,19.872,0,-0.040032,0,1700.2,57.707,11.111,2.1626e-06,-3.4146e-12,1.9258e-05,0.043455,0
1632,54.3,19.872,0,-0.040032,0,1700.2,57.707,11.111,2.1626e-06,-3.4146e-12,1.9258e-05,0.043455,0
1632,54.3,19.872,0,-0.040032,0,1700.2,57.707,11.111,2.1626e-06,-3.4146e-12,1.9258e-05,0.043455,0
1632,54.3,19.872,0,-0.040032,0,1700.2,57.707,11.111,2.1626e-06,-3.4146e-12,1.9258e-05,0.043455,0
1632,54.3,19.872,0,-0.040032,0,1700.2,57.707,11.111,2.1626e-06,-3.4146e-12,1.9258e-05,0.043455,0
1632,54.3,19.872,0,-0.040032,0,1700.2,57.707,11.111,2.1626e-06,-3.4146e-12,1.9258e-05,0.043455,0
1632,54.3,19.872,0,-0.040032,0,1700.2,57.707,11.111,2.1626e-06,-3.4146e-12,1.9258e-05,0.043455,0
1634.4,54.3,19.867,0,-0.040292,0,1700.2,57.707,11.111,2.1626e-06,-3.4146e-12,1.9258e-05,0.045022,0
1634.4,54.3,19.867,0,-0.040292,0,1700.9,57.707,11.111,3.0023e-06,-3.2175e-12,1.2421e-05,0.044572,0
1634.4,54.3,19.867,0,-0.040292,0,1700.9,57.707,11.111,3.0023e-06,-3.2175e-12,1.2421e-05,0.044572,0
1634.4,54.3,19.867,0,-0.040292,0,1701.1,57.707,11.111,3.2024e-06,-2.9262e-12,1.0497e-05,0.044425,0
1634.4,54.3,19.867,0,-0.040292,0,1701.1,57.707,11.111,3.2024e-06,-2.9262e-12,1.0497e-05,0.044425,0
1637.1,54.3,19.862,0,-0.040589,0,1701.3,57.707,11.111,3.3681e-06,-2.5784e-12,8.7324e-06,0.046188,0
1637.1,54.3,19.862,0,-0.040589,0,1702.2,57.707,11.111,3.7424e-06,-1.0321e-12,3.0898e-06,0.04556,0
1637.1,54.3,19.862,0,-0.040589,0,1702.2,57.707,11.111,3.7424e-06,-1.0321e-12,3.0898e-06,0.04556,0
1637.1,54.3,19.862,0,-0.040589,0,1702.4,57.707,11.111,3.7766e-06,-6.7269e-13,1.9896e-06,0.045405,0
1637.1,54.3,19.862,0,-0.040589,0,1702.4,57.707,11.111,3.7766e-06,-6.7269e-13,1.9896e-06,0.045405,0
1637.1,54.3,19.862,0,-0.040589,0,1702.7,57.707,11.111,3.7914e-06,-3.3953e-13,9.9766e-07,0.045252,0
1637.1,54.3,19.862,0,-0.040589,0,1702.7,57.707,11.111,3.7914e-06,-3.3953e-13,9.9766e-07,0.045252,0
1637.1,54.3,19.862,0,-0.040589,0,1702.7,57.707,11.111,3.7914e-06,-3.3953e-13,9.9766e-07,0.045252,0
1637.1,54.3,19.862,0,-0.040589,0,1702.7,57.707,11.111,3.7914e-06,-3.3953e-13,9.9766e-07,0.045252,0
1637.1,54.3,19.862,0,-0.040589,0,1702.7,57.707,11.111,3.7914e-06,-3.3953e-13,9.9766e-07,0.045252,0
1637.1,54.3,19.862,0,-0.040589,0,1702.7,57.707,11.111,3.7914e-06,-3.3953e-13,9.9766e-07,0.045252,0
1637.1,54.3,19.862,0,-0.040589,0,1702.7,57.707,11.111,3.7914e-06,-3.3953e-13,9.9766e-07,0.045252,0
1637.1,54.3,19.862,0,-0.040589,0,1702.7,57.707,11.111,3.7914e-06,-3.3953e-13,9.9766e-07,0.045252,0
1637.1,54.3,19.862,0,-0.040589,0,1702.7,57.707,11.111,3.7914e-06,-3.3953e-13,9.9766e-07,0.045252,0
1638.7,54.3,19.858,0,-0.040756,0,1702.7,57.707,11.111,3.7914e-06,-3.3953e-13,9.9766e-07,0.046371,0
1638.7,54.3,19.858,0,-0.040756,0,1702.7,57.707,11.111,3.7914e-06,-3.3953e-13,9.9766e-07,0.046371,0
1638.7,54.3,19.858,0,-0.040756,0,1702.7,57.707,11.111,3.7914e-06,-3.3953e-13,9.9766e-07,0.046371,0
1638.7,54.3,19.858,0,-0.040756,0,1703.1,57.707,11.111,3.7711e-06,2.3483e-13,-6.9065e-07,0.046053,0
1638.7,54.3,19.858,0,-0.040756,0,1703.1,57.707,11.111,3.7711e-06,2.3483e-13,-6.9065e-07,0.046053,0
1638.7,54.3,19.858,0,-0.040756,0,1703.1,57.707,11.111,3.7711e-06,2.3483e-13,-6.9065e-07,0.046053,0
1638.7,54.3,19.858,0,-0.040756,0,1703.1,57.707,11.111,3.7711e-06,2.3483e-13,-6.9065e-07,0.046053,0
1638.7,54.3,19.858,0,-0.040756,0,1703.1,57.707,11.111,3.7711e-06,2.3483e-13,-6.9065e-07,0.046053,0
1638.7,54.3,19.858,0,-0.040756,0,1703.1,57.707,11.111,3.7711e-06,2.3483e-13,-6.9065e-07,0.046053,0
1639.5,54.3,19.857,0,-0.040838,0,1703.1,57.707,11.111,3.7711e-06,2.3483e-13,-6.9065e-07,0.046625,0
1641.1,54.3,19.854,0,-0.041001,0,1704,57.707,11.111,3.5772e-06,9.9625e-13,-3.0682e-06,0.047142,0
1641.1,54.3,19.854,0,-0.041001,0,1704.4,57.707,11.111,3.4263e-06,1.2007e-12,-3.8503e-06,0.046812,0
1642.7,54.3,19.85,0,-0.041162,0,1704.7,57.707,11.111,3.3416e-06,1.2659e-12,-4.1576e-06,0.047839,0
1642.7,54.3,19.85,0,-0.041162,0,1705.3,57.707,11.111,3.0614e-06,1.3425e-12,-4.7974e-06,0.047332,0
1642.7,54.3,19.85,0,-0.041162,0,1705.3,57.707,11.111,3.0614e-06,1.3425e-12,-4.7974e-06,0.047332,0
1642.7,54.3,19.85,0,-0.041162,0,1705.3,57.707,11.111,3.0614e-06,1.3425e-12,-4.7974e-06,0.047332,0
1642.7,54.3,19.85,0,-0.041162,0,1705.3,57.707,11.111,3.0614e-06,1.3425e-12,-4.7974e-06,0.047332,0
1642.7,54.3,19.85,0,-0.041162,0,1705.3,57.707,11.111,3.0614e-06,1.3425e-12,-4.7974e-06,0.047332,0
1642.7,54.3,19.85,0,-0.041162,0,1705.3,57.707,11.111,3.0614e-06,1.3425e-12,-4.7974e-06,0.047332,0
1642.7,54.3,19.85,0,-0.041162,0,1705.3,57.707,11.111,3.0614e-06,1.3425e-12,-4.7974e-06,0.047332,0
1642.7,54.3,19.85,0,-0.041162,0,1705.3,57.707,11.111,3.0614e-06,1.3425e-12,-4.7974e-06,0.047332,0
1642.7,54.3,19.85,0,-0.041162,0,1705.3,57.707,11.111,3.0614e-06,1.3425e-12,-4.7974e-06,0.047332,0
1643.5,54.3,19.849,0,-0.041243,0,1705.3,57.707,11.111,3.0614e-06,1.3425e-12,-4.7974e-06,0.047937,0
1643.5,54.3,19.849,0,-0.041243,0,1705.3,57.707,11.111,3.0614e-06,1.3425e-12,-4.7974e-06,0.047937,0
1643.5,54.3,19.849,0,-0.041243,0,1705.3,57.707,11.111,3.0614e-06,1.3425e-12,-4.7974e-06,0.047937,0
1643.5,54.3,19.849,0,-0.041243,0,1705.3,57.707,11.111,3.0614e-06,1.3425e-12,-4.7974e-06,0.047937,0
1643.5,54.3,19.849,0,-0.041243,0,1705.3,57.707,11.111,3.0614e-06,1.3425e-12,-4.7974e-06,0.047937,0
1643.5,54.3,19.849,0,-0.041243,0,1705.3,57.707,11.111,3.0614e-06,1.3425e-12,-4.7974e-06,0.047937,0
1643.5,54.3,19.849,0,-0.041243,0,1705.3,57.707,11.111,3.0614e-06,1.3425e-12,-4.7974e-06,0.047937,0
1643.5,54.3,19.849,0,-0.041243,0,1705.3,57.707,11.111,3.0614e-06,1.3425e-12,-4.7974e-06,0.047937,0
1643.5,54.3,19.849,0,-0.041243,0,1705.3,57.707,11.111,3.0614e-06,1.3425e-12,-4.7974e-06,0.047937,0
1643.5,54.3,19.849,0,-0.041243,0,1705.3,57.707,11.111,3.0614e-06,1.3425e-12,-4.7974e-06,0.047937,0
1643.5,54.3,19.849,0,-0.041243,0,1705.8,57.707,11.111,2.861e-06,1.3173e-12,-5.0277e-06,0.047597,0
1643.5,54.3,19.849,0,-0.041243,0,1705.8,57.707,11.111,2.861e-06,1.3173e-12,-5.0277e-06,0.047597,0
1644.7,54.3,19.846,0,-0.041361,0,1705.8,57.707,11.111,2.861e-06,1.3173e-12,-5.0277e-06,0.04852,0
1644.7,54.3,19.846,0,-0.041361,0,1706.7,57.707,11.111,2.4502e-06,1.1564e-12,-5.1362e-06,0.047828,0
1647.5,54.3,19.84,0,-0.041632,0,1706.9,57.707,11.111,2.3482e-06,1.1026e-12,-5.1063e-06,0.049874,0
1647.5,54.3,19.84,0,-0.041632,0,1706.9,57.707,11.111,2.3482e-06,1.1026e-12,-5.1063e-06,0.049874,0
1647.5,54.3,19.84,0,-0.041632,0,1706.9,57.707,11.111,2.3482e-06,1.1026e-12,-5.1063e-06,0.049874,0
1647.9,54.3,19.84,0,-0.041671,0,1706.9,57.707,11.111,2.3482e-06,1.1026e-12,-5.1063e-06,0.050208,0
1647.9,54.3,19.84,0,-0.041671,0,1706.9,57.707,11.111,2.3482e-06,1.1026e-12,-5.1063e-06,0.050208,0
1647.9,54.3,19.84,0,-0.041671,0,1706.9,57.707,11.111,2.3482e-06,1.1026e-12,-5.1063e-06,0.050208,0
1647.9,54.3,19.84,0,-0.041671,0,1706.9,57.707,11.111,2.3482e-06,1.1026e-12,-5.1063e-06,0.050208,0
1647.9,54.3,19.84,0,-0.041671,0,1706.9,57.707,11.111,2.3482e-06,1.1026e-12,-5.1063e-06,0.050208,0
1647.9,54.3,19.84,0,-0.041671,0,1706.9,57.707,11.111,2.3482e-06,1.1026e-12,-5.1063e-06,0.050208,0
1647.9,54.3,19.84,0,-0.041671,0,1706.9,57.707,11.111,2.3482e-06,1.1026e-12,-5.1063e-06,0.050208,0
1647.9,54.3,19.84,0,-0.041671,0,1708.2,57.707,11.111,1.7678e-06,7.5367e-13,-4.6166e-06,0.049104,0
1647.9,54.3,19.84,0,-0.041671,0,1708.2,57.707,11.111,1.7678e-06,7.5367e-13,-4.6166e-06,0.049104,0
1647.9,54.3,19.84,0,-0.041671,0,1708.2,57.707,11.111,1.7678e-06,7.5367e-13,-4.6166e-06,0.049104,0
1647.9,54.3,19.84,0,-0.041671,0,1708.2,57.707,11.111,1.7678e-06,7.5367e-13,-4.6166e-06,0.049104,0
1647.9,54.3,19.84,0,-0.041671,0,1708.2,57.707,11.111,1.7678e-06,7.5367e-13,-4.6166e-06,0.049104,0
1647.9,54.3,19.84,0,-0.041671,0,1708.2,57.707,11.111,1.7678e-06,7.5367e-13,-4.6166e-06,0.049104,0
1647.9,54.3,19.84,0,-0.041671,0,1708.2,57.707,11.111,1.7678e-06,7.5367e-13,-4.6166e-06,0.049104,0
1648.7,54.3,19.838,0,-0.041748,0,1708.2,57.707,11.111,1.7678e-06,7.5367e-13,-4.6166e-06,0.049755,0
1649,54.3,19.837,0,-0.041787,0,1708.2,57.707,11.111,1.7678e-06,7.5367e-13,-4.6166e-06,0.050087,0
1649,54.3,19.837,0,-0.041787,0,1708.2,57.707,11.111,1.7678e-06,7.5367e-13,-4.6166e-06,0.050087,0
1650.2,54.3,19.834,0,-0.0419,0,1709.1,57.707,11.111,-0.00018056,-7.2549e-08,-0.0080799,0.050342,0
1651.4,54.3,19.832,0,-0.042011,0,1709.6,57.707,11.111,-0.0024217,-1.0625e-05,-0.067644,0.050984,0
1651.4,54.3,19.832,0,-0.042011,0,1709.6,57.707,11.111,-0.0024217,-1.0625e-05,-0.067644,0.050984,0
1651.4,54.3,19.832,0,-0.042011,0,1710.2,57.707,11.111,-0.013896,-0.00024975,-0.24177,0.050409,0
1651.4,54.3,19.832,0,-0.042011,0,1710.4,57.706,11.111,-0.020599,-0.00049705,-0.31684,0.05022,0
1651.4,54.3,19.832,0,-0.042011,0,1710.4,57.706,11.111,-0.020599,-0.00049705,-0.31684,0.05022,0
1651.4,54.3,19.832,0,-0.042011,0,1710.4,57.706,11.111,-0.020599,-0.00049705,-0.31684,0.05022,0
1651.4,54.3,19.832,0,-0.042011,0,1710.4,57.706,11.111,-0.020599,-0.00049705,-0.31684,0.05022,0
1651.4,54.3,19.832,0,-0.042011,0,1710.4,57.706,11.111,-0.020599,-0.00049705,-0.31684,0.05022,0
1651.4,54.3,19.832,0,-0.042011,0,1710.4,57.706,11.111,-0.020599,-0.00049705,-0.31684,0.05022,0
1651.4,54.3,19.832,0,-0.042011,0,1710.4,57.706,11.111,-0.020599,-0.00049705,-0.31684,0.05022,0
1651.4,54.3,19.832,0,-0.042011,0,1710.4,57.706,11.111,-0.020599,-0.00049705,-0.31684,0.05022,0
1651.4,54.3,19.832,0,-0.042011,0,1710.4,57.706,11.111,-0.020599,-0.00049705,-0.31684,0.05022,0
1652.6,54.3,19.829,0,-0.042123,0,1710.4,57.706,11.111,-0.020599,-0.00049705,-0.31684,0.051248,0
1652.6,54.3,19.829,0,-0.042123,0,1710.4,57.706,11.111,-0.020599,-0.00049705,-0.31684,0.051248,0
1652.6,54.3,19.829,0,-0.042123,0,1710.4,57.706,11.111,-0.020599,-0.00049705,-0.31684,0.051248,0
1652.6,54.3,19.829,0,-0.042123,0,1710.4,57.706,11.111,-0.020599,-0.00049705,-0.31684,0.051248,0
1652.6,54.3,19.829,0,-0.042123,0,1710.4,57.706,11.111,-0.020599,-0.00049705,-0.31684,0.051248,0
1652.6,54.3,19.829,0,-0.042123,0,1710.4,57.706,11.111,-0.020599,-0.00049705,-0.31684,0.051248,0
1652.6,54.3,19.829,0,-0.042123,0,1710.4,57.706,11.111,-0.020599,-0.00049705,-0.31684,0.051248,0
1652.6,54.3,19.829,0,-0.042123,0,1710.4,57.706,11.111,-0.020599,-0.00049705,-0.31684,0.051248,0
1652.6,54.3,19.829,0,-0.042123,0,1710.9,57.705,11.111,-0.039104,-0.0014962,-0.48537,0.050859,0
1652.6,54.3,19.829,0,-0.042123,0,1710.9,57.705,11.111,-0.039104,-0.0014962,-0.48537,0.050859,0
1654.6,54.3,19.825,0,-0.042305,0,1711.1,57.704,11.111,-0.051091,-0.0023526,-0.57675,0.052435,0
1655.4,54.3,19.824,0,-0.042378,0,1712,57.697,11.11,-0.11861,-0.0094988,-0.96898,0.052346,0
1655.4,54.3,19.824,0,-0.042378,0,1712.7,57.688,11.109,-0.19036,-0.020327,-1.2712,0.051738,0
1655.4,54.3,19.824,0,-0.042378,0,1712.7,57.688,11.109,-0.19036,-0.020327,-1.2712,0.051738,0
1655.4,54.3,19.824,0,-0.042378,0,1712.9,57.683,11.109,-0.21827,-0.025234,-1.3704,0.051538,0
1655.4,54.3,19.824,0,-0.042378,0,1712.9,57.683,11.109,-0.21827,-0.025234,-1.3704,0.051538,0
1655.4,54.3,19.824,0,-0.042378,0,1713.1,57.679,11.108,-0.24812,-0.030849,-1.468,0.05134,0
1655.4,54.3,19.824,0,-0.042378,0,1713.1,57.679,11.108,-0.24812,-0.030849,-1.468,0.05134,0
1655.4,54.3,19.824,0,-0.042378,0,1713.1,57.679,11.108,-0.24812,-0.030849,-1.468,0.05134,0
1655.4,54.3,19.824,0,-0.042378,0,1713.1,57.679,11.108,-0.24812,-0.030849,-1.468,0.05134,0
1655.4,54.3,19.824,0,-0.042378,0,1713.1,57.679,11.108,-0.24812,-0.030849,-1.468,0.05134,0
1655.4,54.3,19.824,0,-0.042378,0,1713.1,57.679,11.108,-0.24812,-0.030849,-1.468,0.05134,0
1655.4,54.3,19.824,0,-0.042378,0,1713.1,57.679,11.108,-0.24812,-0.030849,-1.468,0.05134,0
1655.4,54.3,19.824,0,-0.042378,0,1713.1,57.679,11.108,-0.24812,-0.030849,-1.468,0.05134,0
1655.4,54.3,19.824,0,-0.042378,0,1713.1,57.679,11.108,-0.24812,-0.030849,-1.468,0.05134,0
1657.4,54.3,19.819,0,-0.042557,0,1713.1,57.679,11.108,-0.24812,-0.030849,-1.468,0.053155,0
1657.4,54.3,19.819,0,-0.042557,0,1713.1,57.679,11.108,-0.24812,-0.030849,-1.468,0.053155,0
1657.4,54.3,19.819,0,-0.042557,0,1713.1,57.679,11.108,-0.24812,-0.030849,-1.468,0.053155,0
1657.4,54.3,19.819,0,-0.042557,0,1713.1,57.679,11.108,-0.24812,-0.030849,-1.468,0.053155,0
1657.4,54.3,19.819,0,-0.042557,0,1713.1,57.679,11.108,-0.24812,-0.030849,-1.468,0.053155,0
1657.4,54.3,19.819,0,-0.042557,0,1713.1,57.679,11.108,-0.24812,-0.030849,-1.468,0.053155,0
1657.4,54.3,19.819,0,-0.042557,0,1713.1,57.679,11.108,-0.24812,-0.030849,-1.468,0.053155,0
1657.4,54.3,19.819,0,-0.042557,0,1713.1,57.679,11.108,-0.24812,-0.030849,-1.468,0.053155,0
1657.8,54.3,19.818,0,-0.042591,0,1713.1,57.679,11.108,-0.24812,-0.030849,-1.468,0.053534,0
1658.2,54.3,19.818,0,-0.042627,0,1713.1,57.679,11.108,-0.24812,-0.030849,-1.468,0.053918,0
1659.8,54.3,19.814,0,-0.042766,0,1714.4,57.635,11.101,-0.46533,-0.080287,-2.0016,0.054151,0
1659.8,54.3,19.814,0,-0.042766,0,1714.9,57.615,11.097,-0.55076,-0.10269,-2.1535,0.053708,0
1661.3,54.3,19.811,0,-0.042903,0,1714.9,57.615,11.097,-0.55076,-0.10269,-2.1535,0.055289,0
1661.3,54.3,19.811,0,-0.042903,0,1714.9,57.615,11.097,-0.55076,-0.10269,-2.1535,0.055289,0
1661.3,54.3,19.811,0,-0.042903,0,1714.9,57.615,11.097,-0.55076,-0.10269,-2.1535,0.055289,0
1661.3,54.3,19.811,0,-0.042903,0,1714.9,57.615,11.097,-0.55076,-0.10269,-2.1535,0.055289,0
1661.3,54.3,19.811,0,-0.042903,0,1714.9,57.615,11.097,-0.55076,-0.10269,-2.1535,0.055289,0
1661.3,54.3,19.811,0,-0.042903,0,1714.9,57.615,11.097,-0.55076,-0.10269,-2.1535,0.055289,0
1661.7,54.3,19.81,0,-0.042938,0,1714.9,57.615,11.097,-0.55076,-0.10269,-2.1535,0.055698,0
1661.7,54.3,19.81,0,-0.042938,0,1714.9,57.615,11.097,-0.55076,-0.10269,-2.1535,0.055698,0
1661.7,54.3,19.81,0,-0.042938,0,1714.9,57.615,11.097,-0.55076,-0.10269,-2.1535,0.055698,0
1661.7,54.3,19.81,0,-0.042938,0,1714.9,57.615,11.097,-0.55076,-0.10269,-2.1535,0.055698,0
1661.7,54.3,19.81,0,-0.042938,0,1714.9,57.615,11.097,-0.55076,-0.10269,-2.1535,0.055698,0
1661.7,54.3,19.81,0,-0.042938,0,1714.9,57.615,11.097,-0.55076,-0.10269,-2.1535,0.055698,0
1661.7,54.3,19.81,0,-0.042938,0,1714.9,57.615,11.097,-0.55076,-0.10269,-2.1535,0.055698,0
1661.7,54.3,19.81,0,-0.042938,0,1714.9,57.615,11.097,-0.55076,-0.10269,-2.1535,0.055698,0
1661.7,54.3,19.81,0,-0.042938,0,1714.9,57.615,11.097,-0.55076,-0.10269,-2.1535,0.055698,0
1661.7,54.3,19.81,0,-0.042938,0,1714.9,57.615,11.097,-0.55076,-0.10269,-2.1535,0.055698,0
1661.7,54.3,19.81,0,-0.042938,0,1716,57.547,11.083,-0.7872,-0.16957,-2.4649,0.054534,0
1661.7,54.3,19.81,0,-0.042938,0,1716,57.547,11.083,-0.7872,-0.16957,-2.4649,0.054534,0
1661.7,54.3,19.81,0,-0.042938,0,1716,57.547,11.083,-0.7872,-0.16957,-2.4649,0.054534,0
1662.5,54.3,19.808,0,-0.043005,0,1716,57.547,11.083,-0.7872,-0.16957,-2.4649,0.055338,0
1662.5,54.3,19.808,0,-0.043005,0,1716.7,57.494,11.071,-0.94149,-0.21517,-2.6026,0.054634,0
1663.7,54.3,19.806,0,-0.043107,0,1716.7,57.494,11.071,-0.94149,-0.21517,-2.6026,0.055854,0
1665.3,54.3,19.802,0,-0.043239,0,1717.3,57.432,11.056,-1.1024,-0.26287,-2.7034,0.0568,0
1665.7,54.3,19.801,0,-0.043272,0,1717.3,57.432,11.056,-1.1024,-0.26287,-2.7034,0.057234,0
1665.7,54.3,19.801,0,-0.043272,0,1718.2,57.334,11.032,-1.3234,-0.3267,-2.7827,0.056218,0
1665.7,54.3,19.801,0,-0.043272,0,1718.2,57.334,11.032,-1.3234,-0.3267,-2.7827,0.056218,0
1666.5,54.3,19.8,0,-0.043336,0,1718.2,57.334,11.032,-1.3234,-0.3267,-2.7827,0.057074,0
1666.5,54.3,19.8,0,-0.043336,0,1718.2,57.334,11.032,-1.3234,-0.3267,-2.7827,0.057074,0
1666.5,54.3,19.8,0,-0.043336,0,1718.2,57.334,11.032,-1.3234,-0.3267,-2.7827,0.057074,0
1666.5,54.3,19.8,0,-0.043336,0,1718.2,57.334,11.032,-1.3234,-0.3267,-2.7827,0.057074,0
1666.5,54.3,19.8,0,-0.043336,0,1718.2,57.334,11.032,-1.3234,-0.3267,-2.7827,0.057074,0
1666.5,54.3,19.8,0,-0.043336,0,1718.2,57.334,11.032,-1.3234,-0.3267,-2.7827,0.057074,0
1666.5,54.3,19.8,0,-0.043336,0,1718.2,57.334,11.032,-1.3234,-0.3267,-2.7827,0.057074,0
1666.5,54.3,19.8,0,-0.043336,0,1718.2,57.334,11.032,-1.3234,-0.3267,-2.7827,0.057074,0
1666.5,54.3,19.8,0,-0.043336,0,1718.2,57.334,11.032,-1.3234,-0.3267,-2.7827,0.057074,0
1666.5,54.3,19.8,0,-0.043336,0,1718.2,57.334,11.032,-1.3234,-0.3267,-2.7827,0.057074,0
1666.5,54.3,19.8,0,-0.043336,0,1718.7,57.278,11.018,-1.4354,-0.35755,-2.8,0.05656,0
1666.5,54.3,19.8,0,-0.043336,0,1718.7,57.278,11.018,-1.4354,-0.35755,-2.8,0.05656,0
1666.5,54.3,19.8,0,-0.043336,0,1718.7,57.278,11.018,-1.4354,-0.35755,-2.8,0.05656,0
1666.5,54.3,19.8,0,-0.043336,0,1718.7,57.278,11.018,-1.4354,-0.35755,-2.8,0.05656,0
1666.5,54.3,19.8,0,-0.043336,0,1718.7,57.278,11.018,-1.4354,-0.35755,-2.8,0.05656,0
1666.5,54.3,19.8,0,-0.043336,0,1718.7,57.278,11.018,-1.4354,-0.35755,-2.8,0.05656,0
1666.5,54.3,19.8,0,-0.043336,0,1718.7,57.278,11.018,-1.4354,-0.35755,-2.8,0.05656,0
1666.5,54.3,19.8,0,-0.043336,0,1718.9,57.249,11.011,-1.4915,-0.37249,-2.8034,0.056305,0
1666.5,54.3,19.8,0,-0.043336,0,1718.9,57.249,11.011,-1.4915,-0.37249,-2.8034,0.056305,0
1668.5,54.3,19.795,0,-0.043497,0,1719.1,57.218,11.003,-1.5476,-0.38704,-2.8035,0.058233,0
1669.7,54.3,19.793,0,-0.043591,0,1720,57.084,10.969,-1.7705,-0.44025,-2.7721,0.058504,0
1669.7,54.3,19.793,0,-0.043591,0,1720,57.084,10.969,-1.7705,-0.44025,-2.7721,0.058504,0
1670.8,54.3,19.79,0,-0.043684,0,1720.6,56.972,10.941,-1.9346,-0.47369,-2.7184,0.059053,0
1670.8,54.3,19.79,0,-0.043684,0,1720.6,56.972,10.941,-1.9346,-0.47369,-2.7184,0.059053,0
1670.8,54.3,19.79,0,-0.043684,0,1720.6,56.972,10.941,-1.9346,-0.47369,-2.7184,0.059053,0
1670.8,54.3,19.79,0,-0.043684,0,1720.6,56.972,10.941,-1.9346,-0.47369,-2.7184,0.059053,0
1670.8,54.3,19.79,0,-0.043684,0,1720.6,56.972,10.941,-1.9346,-0.47369,-2.7184,0.059053,0
1670.8,54.3,19.79,0,-0.043684,0,1720.6,56.972,10.941,-1.9346,-0.47369,-2.7184,0.059053,0
1670.8,54.3,19.79,0,-0.043684,0,1720.6,56.972,10.941,-1.9346,-0.47369,-2.7184,0.059053,0
1670.8,54.3,19.79,0,-0.043684,0,1721.1,56.892,10.922,-2.0417,-0.49235,-2.6699,0.058492,0
1670.8,54.3,19.79,0,-0.043684,0,1721.1,56.892,10.922,-2.0417,-0.49235,-2.6699,0.058492,0
1670.8,54.3,19.79,0,-0.043684,0,1721.1,56.892,10.922,-2.0417,-0.49235,-2.6699,0.058492,0
1670.8,54.3,19.79,0,-0.043684,0,1721.1,56.892,10.922,-2.0417,-0.49235,-2.6699,0.058492,0
1670.8,54.3,19.79,0,-0.043684,0,1721.1,56.892,10.922,-2.0417,-0.49235,-2.6699,0.058492,0
1670.8,54.3,19.79,0,-0.043684,0,1721.1,56.892,10.922,-2.0417,-0.49235,-2.6699,0.058492,0
1670.8,54.3,19.79,0,-0.043684,0,1721.1,56.892,10.922,-2.0417,-0.49235,-2.6699,0.058492,0
1671.6,54.3,19.788,0,-0.043744,0,1721.1,56.892,10.922,-2.0417,-0.49235,-2.6699,0.059425,0
1671.6,54.3,19.788,0,-0.043744,0,1721.1,56.892,10.922,-2.0417,-0.49235,-2.6699,0.059425,0
1671.6,54.3,19.788,0,-0.043744,0,1721.1,56.892,10.922,-2.0417,-0.49235,-2.6699,0.059425,0
1671.6,54.3,19.788,0,-0.043744,0,1721.1,56.892,10.922,-2.0417,-0.49235,-2.6699,0.059425,0
1671.6,54.3,19.788,0,-0.043744,0,1721.1,56.892,10.922,-2.0417,-0.49235,-2.6699,0.059425,0
1671.6,54.3,19.788,0,-0.043744,0,1721.1,56.892,10.922,-2.0417,-0.49235,-2.6699,0.059425,0
1672,54.3,19.787,0,-0.043775,0,1721.1,56.892,10.922,-2.0417,-0.49235,-2.6699,0.059902,0
1672,54.3,19.787,0,-0.043775,0,1721.9,56.719,10.881,-2.2487,-0.51999,-2.5462,0.058756,0
1672,54.3,19.787,0,-0.043775,0,1721.9,56.719,10.881,-2.2487,-0.51999,-2.5462,0.058756,0
1672,54.3,19.787,0,-0.043775,0,1722.2,56.674,10.871,-2.2988,-0.52477,-2.5102,0.058475,0
1674.4,54.3,19.782,0,-0.043956,0,1722.2,56.674,10.871,-2.2988,-0.52477,-2.5102,0.061372,0
1675.2,54.3,19.714,0,-6.7113,0,1722.2,56.674,10.871,-2.2988,-0.52477,-2.5102,0.062402,0
1675.2,54.3,19.714,0,-6.7113,0,1722.2,56.674,10.871,-2.2988,-0.52477,-2.5102,0.062402,0
1675.2,54.3,19.714,0,-6.7113,0,1723.5,56.379,10.807,-2.5818,-0.53477,-2.2593,0.06056,0
1676.4,54.3,19.314,0,-6.3244,0,1723.7,56.327,10.796,-2.6258,-0.53329,-2.2124,0.06175,0
1676.4,54.3,19.314,0,-6.3244,0,1723.7,56.327,10.796,-2.6258,-0.53329,-2.2124,0.06175,0
1676.4,54.3,19.314,0,-6.3244,0,1723.7,56.327,10.796,-2.6258,-0.53329,-2.2124,0.06175,0
1676.4,54.3,19.314,0,-6.3244,0,1723.7,56.327,10.796,-2.6258,-0.53329,-2.2124,0.06175,0
1676.4,54.3,19.314,0,-6.3244,0,1723.7,56.327,10.796,-2.6258,-0.53329,-2.2124,0.06175,0
1676.4,54.3,19.314,0,-6.3244,0,1723.7,56.327,10.796,-2.6258,-0.53329,-2.2124,0.06175,0
1676.4,54.3,19.314,0,-6.3244,0,1723.7,56.327,10.796,-2.6258,-0.53329,-2.2124,0.06175,0
1676.4,54.3,19.314,0,-6.3244,0,1723.7,56.327,10.796,-2.6258,-0.53329,-2.2124,0.06175,0
1676.4,54.3,19.314,0,-6.3244,0,1724.1,56.22,10.775,-2.7109,-0.52766,-2.1148,0.061138,0
1676.4,54.3,19.314,0,-6.3244,0,1724.1,56.22,10.775,-2.7109,-0.52766,-2.1148,0.061138,0
1676.4,54.3,19.314,0,-6.3244,0,1724.3,56.165,10.765,-2.752,-0.52352,-2.0643,0.060837,0
1676.4,54.3,19.314,0,-6.3244,0,1724.3,56.165,10.765,-2.752,-0.52352,-2.0643,0.060837,0
1676.4,54.3,19.314,0,-6.3244,0,1724.3,56.165,10.765,-2.752,-0.52352,-2.0643,0.060837,0
1676.4,54.3,19.314,0,-6.3244,0,1724.3,56.165,10.765,-2.752,-0.52352,-2.0643,0.060837,0
1676.4,54.3,19.314,0,-6.3244,0,1724.3,56.165,10.765,-2.752,-0.52352,-2.0643,0.060837,0
1676.4,54.3,19.314,0,-6.3244,0,1724.3,56.165,10.765,-2.752,-0.52352,-2.0643,0.060837,0
1677.5,54.3,18.966,0,-5.3072,0,1724.3,56.165,10.765,-2.752,-0.52352,-2.0643,0.062325,0
1677.5,54.3,18.966,0,-5.3072,0,1725,55.996,10.734,-2.8688,-0.50589,-1.9065,0.061399,0
1678.6,54.3,18.67,0,-4.5736,0,1725,55.996,10.734,-2.8688,-0.50589,-1.9065,0.062893,0
1678.6,54.3,18.67,0,-4.5736,0,1725,55.996,10.734,-2.8688,-0.50589,-1.9065,0.062893,0
1678.6,54.3,18.67,0,-4.5736,0,1725.4,55.879,10.715,-2.9413,-0.48991,-1.7965,0.062264,0
1680.1,54.3,18.339,0,-3.7471,0,1725.6,55.82,10.705,-2.9758,-0.4807,-1.7403,0.063968,0
1680.5,54.3,18.266,0,-3.5806,0,1725.6,55.82,10.705,-2.9758,-0.4807,-1.7403,0.064486,0
1680.5,54.3,18.266,0,-3.5806,0,1725.6,55.82,10.705,-2.9758,-0.4807,-1.7403,0.064486,0
1680.9,54.3,18.196,0,-3.4272,0,1725.6,55.82,10.705,-2.9758,-0.4807,-1.7403,0.06501,0
1680.9,54.3,18.196,0,-3.4272,0,1725.6,55.82,10.705,-2.9758,-0.4807,-1.7403,0.06501,0
1680.9,54.3,18.196,0,-3.4272,0,1725.6,55.82,10.705,-2.9758,-0.4807,-1.7403,0.06501,0
1680.9,54.3,18.196,0,-3.4272,0,1725.6,55.82,10.705,-2.9758,-0.4807,-1.7403,0.06501,0
1680.9,54.3,18.196,0,-3.4272,0,1725.6,55.82,10.705,-2.9758,-0.4807,-1.7403,0.06501,0
1680.9,54.3,18.196,0,-3.4272,0,1725.6,55.82,10.705,-2.9758,-0.4807,-1.7403,0.06501,0
1680.9,54.3,18.196,0,-3.4272,0,1725.6,55.82,10.705,-2.9758,-0.4807,-1.7403,0.06501,0
1680.9,54.3,18.196,0,-3.4272,0,1725.6,55.82,10.705,-2.9758,-0.4807,-1.7403,0.06501,0
1680.9,54.3,18.196,0,-3.4272,0,1725.6,55.82,10.705,-2.9758,-0.4807,-1.7403,0.06501,0
1680.9,54.3,18.196,0,-3.4272,0,1726.7,55.513,10.661,-3.131,-0.42307,-1.4478,0.063376,0
1680.9,54.3,18.196,0,-3.4272,0,1726.7,55.513,10.661,-3.131,-0.42307,-1.4478,0.063376,0
1680.9,54.3,18.196,0,-3.4272,0,1726.7,55.513,10.661,-3.131,-0.42307,-1.4478,0.063376,0
1680.9,54.3,18.196,0,-3.4272,0,1726.7,55.513,10.661,-3.131,-0.42307,-1.4478,0.063376,0
1680.9,54.3,18.196,0,-3.4272,0,1726.7,55.513,10.661,-3.131,-0.42307,-1.4478,0.063376,0
1680.9,54.3,18.196,0,-3.4272,0,1726.7,55.513,10.661,-3.131,-0.42307,-1.4478,0.063376,0
1680.9,54.3,18.196,0,-3.4272,0,1726.7,55.513,10.661,-3.131,-0.42307,-1.4478,0.063376,0
1681.6,54.3,18.064,0,-3.1546,0,1726.7,55.513,10.661,-3.131,-0.42307,-1.4478,0.064394,0
1681.6,54.3,18.064,0,-3.1546,0,1726.7,55.513,10.661,-3.131,-0.42307,-1.4478,0.064394,0
1681.6,54.3,18.064,0,-3.1546,0,1726.7,55.513,10.661,-3.131,-0.42307,-1.4478,0.064394,0
1683,54.3,17.83,0,-2.7172,0,1727.1,55.387,10.645,-3.1847,-0.39496,-1.3262,0.065822,0
1683.4,54.3,17.777,0,-2.6258,0,1727.1,55.387,10.645,-3.1847,-0.39496,-1.3262,0.066358,0
1683.4,54.3,17.777,0,-2.6258,0,1728.6,54.929,10.599,-3.333,-0.27698,-0.88341,0.064051,0
1683.4,54.3,17.777,0,-2.6258,0,1728.8,54.862,10.594,-3.349,-0.25796,-0.81822,0.063738,0
1683.4,54.3,17.777,0,-2.6258,0,1728.8,54.862,10.594,-3.349,-0.25796,-0.81822,0.063738,0
1683.4,54.3,17.777,0,-2.6258,0,1728.8,54.862,10.594,-3.349,-0.25796,-0.81822,0.063738,0
1683.4,54.3,17.777,0,-2.6258,0,1728.8,54.862,10.594,-3.349,-0.25796,-0.81822,0.063738,0
1683.4,54.3,17.777,0,-2.6258,0,1728.8,54.862,10.594,-3.349,-0.25796,-0.81822,0.063738,0
1683.4,54.3,17.777,0,-2.6258,0,1728.8,54.862,10.594,-3.349,-0.25796,-0.81822,0.063738,0
1683.4,54.3,17.777,0,-2.6258,0,1728.8,54.862,10.594,-3.349,-0.25796,-0.81822,0.063738,0
1683.4,54.3,17.777,0,-2.6258,0,1729,54.795,10.59,-3.3638,-0.23847,-0.75259,0.063429,0
1683.4,54.3,17.777,0,-2.6258,0,1729,54.795,10.59,-3.3638,-0.23847,-0.75259,0.063429,0
1683.4,54.3,17.777,0,-2.6258,0,1729,54.795,10.59,-3.3638,-0.23847,-0.75259,0.063429,0
1683.4,54.3,17.777,0,-2.6258,0,1729,54.795,10.59,-3.3638,-0.23847,-0.75259,0.063429,0
1683.4,54.3,17.777,0,-2.6258,0,1729,54.795,10.59,-3.3638,-0.23847,-0.75259,0.063429,0
1683.4,54.3,17.777,0,-2.6258,0,1729,54.795,10.59,-3.3638,-0.23847,-0.75259,0.063429,0
1683.4,54.3,17.777,0,-2.6258,0,1729,54.795,10.59,-3.3638,-0.23847,-0.75259,0.063429,0
1683.4,54.3,17.777,0,-2.6258,0,1729,54.795,10.59,-3.3638,-0.23847,-0.75259,0.063429,0
1683.4,54.3,17.777,0,-2.6258,0,1729,54.795,10.59,-3.3638,-0.23847,-0.75259,0.063429,0
1685.5,54.3,17.49,0,-2.1855,0,1729,54.795,10.59,-3.3638,-0.23847,-0.75259,0.066511,0
1685.5,54.3,17.49,0,-2.1855,0,1729,54.795,10.59,-3.3638,-0.23847,-0.75259,0.066511,0
1685.5,54.3,17.49,0,-2.1855,0,1729,54.795,10.59,-3.3638,-0.23847,-0.75259,0.066511,0
1686.5,54.3,17.363,0,-2.0331,0,1729.4,54.66,10.582,-3.3892,-0.1982,-0.62005,0.067451,0
1686.5,54.3,17.363,0,-2.0331,0,1729.4,54.66,10.582,-3.3892,-0.1982,-0.62005,0.067451,0
1687.2,54.3,17.284,0,-1.9571,0,1729.4,54.66,10.582,-3.3892,-0.1982,-0.62005,0.068559,0
1687.2,54.3,17.284,0,-1.9571,0,1730.9,54.181,10.567,-3.4358,-0.046763,-0.14388,0.06619,0
1687.2,54.3,17.284,0,-1.9571,0,1730.9,54.181,10.567,-3.4358,-0.046763,-0.14388,0.06619,0
1687.2,54.3,17.284,0,-1.9571,0,1731.1,54.112,10.566,-3.4369,-0.024203,-0.074425,0.065869,0
1687.2,54.3,17.284,0,-1.9571,0,1731.1,54.112,10.566,-3.4369,-0.024203,-0.074425,0.065869,0
1687.2,54.3,17.284,0,-1.9571,0,1731.1,54.112,10.566,-3.4369,-0.024203,-0.074425,0.065869,0
1687.2,54.3,17.284,0,-1.9571,0,1731.1,54.112,10.566,-3.4369,-0.024203,-0.074425,0.065869,0
1687.2,54.3,17.284,0,-1.9571,0,1731.3,54.044,10.566,-3.4367,-0.0015082,-0.0046373,0.065553,0
1687.2,54.3,17.284,0,-1.9571,0,1731.3,54.044,10.566,-3.4367,-0.0015082,-0.0046373,0.065553,0
1687.2,54.3,17.284,0,-1.9571,0,1731.5,53.975,10.567,-3.435,0.021287,0.06547,0.065241,0
1687.2,54.3,17.284,0,-1.9571,0,1731.5,53.975,10.567,-3.435,0.021287,0.06547,0.065241,0
1687.2,54.3,17.284,0,-1.9571,0,1731.8,53.906,10.568,-3.4319,0.044149,0.13589,0.064934,0
1687.2,54.3,17.284,0,-1.9571,0,1731.8,53.906,10.568,-3.4319,0.044149,0.13589,0.064934,0
1690.3,54.3,16.957,0,-1.6925,0,1731.8,53.906,10.568,-3.4319,0.044149,0.13589,0.069759,0
1690.3,54.3,16.957,0,-1.6925,0,1731.8,53.906,10.568,-3.4319,0.044149,0.13589,0.069759,0
1690.6,54.3,16.923,0,-1.6692,0,1731.8,53.906,10.568,-3.4319,0.044149,0.13589,0.070334,0
1690.6,54.3,16.923,0,-1.6692,0,1731.8,53.906,10.568,-3.4319,0.044149,0.13589,0.070334,0
1690.6,54.3,16.923,0,-1.6692,0,1731.8,53.906,10.568,-3.4319,0.044149,0.13589,0.070334,0
1691,54.3,16.89,0,-1.6469,0,1731.8,53.906,10.568,-3.4319,0.044149,0.13589,0.070917,0
1691.3,54.3,16.857,0,-1.6255,0,1731.8,53.906,10.568,-3.4319,0.044149,0.13589,0.071509,0
1691.3,54.3,16.857,0,-1.6255,0,1731.8,53.906,10.568,-3.4319,0.044149,0.13589,0.071509,0
1691.7,54.3,16.825,0,-1.605,0,1731.8,53.906,10.568,-3.4319,0.044149,0.13589,0.072109,0
1691.7,54.3,16.825,0,-1.605,0,1731.8,53.906,10.568,-3.4319,0.044149,0.13589,0.072109,0
1691.7,54.3,16.825,0,-1.605,0,1731.8,53.906,10.568,-3.4319,0.044149,0.13589,0.072109,0
1691.7,54.3,16.825,0,-1.605,0,1731.8,53.906,10.568,-3.4319,0.044149,0.13589,0.072109,0
1691.7,54.3,16.825,0,-1.605,0,1731.8,53.906,10.568,-3.4319,0.044149,0.13589,0.072109,0
1692,54.3,16.793,0,-1.5852,0,1731.8,53.906,10.568,-3.4319,0.044149,0.13589,0.072719,0
1692.3,54.3,16.762,0,-1.5663,0,1731.8,53.906,10.568,-3.4319,0.044149,0.13589,0.073337,0
1692.3,54.3,16.762,0,-1.5663,0,1731.8,53.906,10.568,-3.4319,0.044149,0.13589,0.073337,0
1692.7,54.3,16.73,0,-1.5481,0,1731.8,53.906,10.568,-3.4319,0.044149,0.13589,0.073966,0
1692.7,54.3,16.73,0,-1.5481,0,1731.8,53.906,10.568,-3.4319,0.044149,0.13589,0.073966,0
1692.7,54.3,16.73,0,-1.5481,0,1731.8,53.906,10.568,-3.4319,0.044149,0.13589,0.073966,0
1692.7,54.3,16.73,0,-1.5481,0,1731.8,53.906,10.568,-3.4319,0.044149,0.13589,0.073966,0
1693.3,54.3,16.669,0,-1.5137,0,1731.8,53.906,10.568,-3.4319,0.044149,0.13589,0.075251,0
1693.3,54.3,16.669,0,-1.5137,0,1731.8,53.906,10.568,-3.4319,0.044149,0.13589,0.075251,0
1693.3,54.3,16.669,0,-1.5137,0,1734.3,53.097,10.615,-3.2833,0.31032,0.99993,0.07071,0
1693.3,54.3,16.669,0,-1.5137,0,1734.3,53.097,10.615,-3.2833,0.31032,0.99993,0.07071,0
1693.3,54.3,16.669,0,-1.5137,0,1734.3,53.097,10.615,-3.2833,0.31032,0.99993,0.07071,0
1693.3,54.3,16.669,0,-1.5137,0,1734.5,53.032,10.622,-3.2615,0.33065,1.073,0.070364,0
1694.7,54.3,16.551,0,-1.4521,0,1734.7,52.967,10.629,-3.2382,0.3505,1.146,0.072341,0
1694.7,54.3,16.551,0,-1.4521,0,1735.2,52.838,10.644,-3.1872,0.38864,1.2922,0.071625,0
1694.7,54.3,16.551,0,-1.4521,0,1735.2,52.838,10.644,-3.1872,0.38864,1.2922,0.071625,0
1694.7,54.3,16.551,0,-1.4521,0,1735.4,52.775,10.652,-3.1596,0.40684,1.3652,0.071274,0
1694.7,54.3,16.551,0,-1.4521,0,1735.4,52.775,10.652,-3.1596,0.40684,1.3652,0.071274,0
1694.7,54.3,16.551,0,-1.4521,0,1735.4,52.775,10.652,-3.1596,0.40684,1.3652,0.071274,0
1694.7,54.3,16.551,0,-1.4521,0,1735.4,52.775,10.652,-3.1596,0.40684,1.3652,0.071274,0
1694.7,54.3,16.551,0,-1.4521,0,1735.6,52.712,10.661,-3.1305,0.4244,1.4381,0.070928,0
1694.7,54.3,16.551,0,-1.4521,0,1735.6,52.712,10.661,-3.1305,0.4244,1.4381,0.070928,0
1694.7,54.3,16.551,0,-1.4521,0,1735.6,52.712,10.661,-3.1305,0.4244,1.4381,0.070928,0
1694.7,54.3,16.551,0,-1.4521,0,1735.6,52.712,10.661,-3.1305,0.4244,1.4381,0.070928,0
1694.7,54.3,16.551,0,-1.4521,0,1735.6,52.712,10.661,-3.1305,0.4244,1.4381,0.070928,0
1694.7,54.3,16.551,0,-1.4521,0,1735.6,52.712,10.661,-3.1305,0.4244,1.4381,0.070928,0
1694.7,54.3,16.551,0,-1.4521,0,1735.6,52.712,10.661,-3.1305,0.4244,1.4381,0.070928,0
1694.7,54.3,16.551,0,-1.4521,0,1735.6,52.712,10.661,-3.1305,0.4244,1.4381,0.070928,0
1694.7,54.3,16.551,0,-1.4521,0,1735.6,52.712,10.661,-3.1305,0.4244,1.4381,0.070928,0
1696,54.3,16.437,0,-1.3984,0,1735.6,52.712,10.661,-3.1305,0.4244,1.4381,0.073286,0
1696.3,54.3,16.409,0,-1.3859,0,1735.6,52.712,10.661,-3.1305,0.4244,1.4381,0.073897,0
1696.3,54.3,16.409,0,-1.3859,0,1736.2,52.528,10.689,-3.0344,0.47288,1.656,0.072793,0
1697.6,54.3,16.331,0,1.7995,0,1736.6,52.408,10.709,-2.9631,0.50131,1.8,0.074488,0
1697.6,54.3,16.331,0,1.7995,0,1737.3,52.234,10.741,-2.8455,0.53738,2.0131,0.073376,0
1697.6,54.3,16.331,0,1.7995,0,1737.3,52.234,10.741,-2.8455,0.53738,2.0131,0.073376,0
1698.6,54.3,16.439,0,1.7939,0,1737.3,52.234,10.741,-2.8455,0.53738,2.0131,0.075232,0
1698.6,54.3,16.439,0,1.7939,0,1737.3,52.234,10.741,-2.8455,0.53738,2.0131,0.075232,0
1698.6,54.3,16.439,0,1.7939,0,1737.3,52.234,10.741,-2.8455,0.53738,2.0131,0.075232,0
1698.6,54.3,16.439,0,1.7939,0,1737.3,52.234,10.741,-2.8455,0.53738,2.0131,0.075232,0
1698.6,54.3,16.439,0,1.7939,0,1737.3,52.234,10.741,-2.8455,0.53738,2.0131,0.075232,0
1698.6,54.3,16.439,0,1.7939,0,1737.3,52.234,10.741,-2.8455,0.53738,2.0131,0.075232,0
1698.6,54.3,16.439,0,1.7939,0,1737.3,52.234,10.741,-2.8455,0.53738,2.0131,0.075232,0
1698.6,54.3,16.439,0,1.7939,0,1737.3,52.234,10.741,-2.8455,0.53738,2.0131,0.075232,0
1698.6,54.3,16.439,0,1.7939,0,1737.3,52.234,10.741,-2.8455,0.53738,2.0131,0.075232,0
1698.6,54.3,16.439,0,1.7939,0,1737.3,52.234,10.741,-2.8455,0.53738,2.0131,0.075232,0
1698.6,54.3,16.439,0,1.7939,0,1737.7,52.123,10.763,-2.7601,0.55666,2.1527,0.074474,0
1698.6,54.3,16.439,0,1.7939,0,1737.7,52.123,10.763,-2.7601,0.55666,2.1527,0.074474,0
1698.6,54.3,16.439,0,1.7939,0,1737.7,52.123,10.763,-2.7601,0.55666,2.1527,0.074474,0
1698.6,54.3,16.439,0,1.7939,0,1737.7,52.123,10.763,-2.7601,0.55666,2.1527,0.074474,0
1698.6,54.3,16.439,0,1.7939,0,1737.7,52.123,10.763,-2.7601,0.55666,2.1527,0.074474,0
1698.6,54.3,16.439,0,1.7939,0,1737.7,52.123,10.763,-2.7601,0.55666,2.1527,0.074474,0
1698.6,54.3,16.439,0,1.7939,0,1737.7,52.123,10.763,-2.7601,0.55666,2.1527,0.074474,0
1698.6,54.3,16.439,0,1.7939,0,1737.9,52.068,10.774,-2.7154,0.56477,2.2216,0.074101,0
1698.6,54.3,16.439,0,1.7939,0,1737.9,52.068,10.774,-2.7154,0.56477,2.2216,0.074101,0
1700.3,54.3,16.615,0,1.7177,0,1738.2,52.015,10.786,-2.6692,0.57183,2.2898,0.07693,0
1700.3,54.3,16.615,0,1.7177,0,1739,51.81,10.833,-2.4715,0.58908,2.5542,0.075362,0
1701.9,54.3,16.783,0,1.6424,0,1739.2,51.761,10.845,-2.4188,0.59055,2.6179,0.078314,0
1701.9,54.3,16.783,0,1.6424,0,1739.9,51.622,10.88,-2.2534,0.58792,2.8023,0.077085,0
1701.9,54.3,16.783,0,1.6424,0,1739.9,51.622,10.88,-2.2534,0.58792,2.8023,0.077085,0
1702.6,54.3,16.848,0,1.6126,0,1739.9,51.622,10.88,-2.2534,0.58792,2.8023,0.078464,0
1702.6,54.3,16.848,0,1.6126,0,1739.9,51.622,10.88,-2.2534,0.58792,2.8023,0.078464,0
1702.6,54.3,16.848,0,1.6126,0,1739.9,51.622,10.88,-2.2534,0.58792,2.8023,0.078464,0
1702.6,54.3,16.848,0,1.6126,0,1739.9,51.622,10.88,-2.2534,0.58792,2.8023,0.078464,0
1702.6,54.3,16.848,0,1.6126,0,1739.9,51.622,10.88,-2.2534,0.58792,2.8023,0.078464,0
1702.6,54.3,16.848,0,1.6126,0,1739.9,51.622,10.88,-2.2534,0.58792,2.8023,0.078464,0
1702.6,54.3,16.848,0,1.6126,0,1739.9,51.622,10.88,-2.2534,0.58792,2.8023,0.078464,0
1702.6,54.3,16.848,0,1.6126,0,1739.9,51.622,10.88,-2.2534,0.58792,2.8023,0.078464,0
1702.6,54.3,16.848,0,1.6126,0,1739.9,51.622,10.88,-2.2534,0.58792,2.8023,0.078464,0
1702.6,54.3,16.848,0,1.6126,0,1739.9,51.622,10.88,-2.2534,0.58792,2.8023,0.078464,0
1702.6,54.3,16.848,0,1.6126,0,1740.3,51.535,10.904,-2.1373,0.58025,2.9188,0.077636,0
1702.6,54.3,16.848,0,1.6126,0,1740.3,51.535,10.904,-2.1373,0.58025,2.9188,0.077636,0
1702.6,54.3,16.848,0,1.6126,0,1740.3,51.535,10.904,-2.1373,0.58025,2.9188,0.077636,0
1702.6,54.3,16.848,0,1.6126,0,1740.3,51.535,10.904,-2.1373,0.58025,2.9188,0.077636,0
1702.6,54.3,16.848,0,1.6126,0,1740.3,51.535,10.904,-2.1373,0.58025,2.9188,0.077636,0
1702.6,54.3,16.848,0,1.6126,0,1740.3,51.535,10.904,-2.1373,0.58025,2.9188,0.077636,0
1702.6,54.3,16.848,0,1.6126,0,1740.3,51.535,10.904,-2.1373,0.58025,2.9188,0.077636,0
1702.6,54.3,16.848,0,1.6126,0,1740.5,51.493,10.915,-2.0775,0.57465,2.975,0.077228,0
1702.6,54.3,16.848,0,1.6126,0,1740.5,51.493,10.915,-2.0775,0.57465,2.975,0.077228,0
1702.6,54.3,16.848,0,1.6126,0,1740.5,51.493,10.915,-2.0775,0.57465,2.975,0.077228,0
1705,54.3,17.067,0,1.5099,0,1740.8,51.452,10.927,-2.0167,0.56786,3.0297,0.081872,0
1705,54.3,17.067,0,1.5099,0,1740.8,51.452,10.927,-2.0167,0.56786,3.0297,0.081872,0
1705.3,54.3,17.097,0,1.4955,0,1740.8,51.452,10.927,-2.0167,0.56786,3.0297,0.082654,0
1705.3,54.3,17.097,0,1.4955,0,1742.3,51.203,11,-1.5679,0.47334,3.2519,0.079478,0
1706.7,54.3,17.214,0,1.4384,0,1742.5,51.173,11.009,-1.5033,0.45139,3.2347,0.082033,0
1706.7,54.3,17.214,0,1.4384,0,1742.5,51.173,11.009,-1.5033,0.45139,3.2347,0.082033,0
1707,54.3,17.243,0,1.4243,0,1742.5,51.173,11.009,-1.5033,0.45139,3.2347,0.08282,0
1707,54.3,17.243,0,1.4243,0,1742.5,51.173,11.009,-1.5033,0.45139,3.2347,0.08282,0
1707,54.3,17.243,0,1.4243,0,1742.5,51.173,11.009,-1.5033,0.45139,3.2347,0.08282,0
1707,54.3,17.243,0,1.4243,0,1742.5,51.173,11.009,-1.5033,0.45139,3.2347,0.08282,0
1707,54.3,17.243,0,1.4243,0,1742.5,51.173,11.009,-1.5033,0.45139,3.2347,0.08282,0
1707,54.3,17.243,0,1.4243,0,1742.5,51.173,11.009,-1.5033,0.45139,3.2347,0.08282,0
1707,54.3,17.243,0,1.4243,0,1742.5,51.173,11.009,-1.5033,0.45139,3.2347,0.08282,0
1707,54.3,17.243,0,1.4243,0,1742.5,51.173,11.009,-1.5033,0.45139,3.2347,0.08282,0
1707,54.3,17.243,0,1.4243,0,1743.2,51.089,11.033,-1.314,0.38068,3.1213,0.081395,0
1707,54.3,17.243,0,1.4243,0,1743.2,51.089,11.033,-1.314,0.38068,3.1213,0.081395,0
1707,54.3,17.243,0,1.4243,0,1743.2,51.089,11.033,-1.314,0.38068,3.1213,0.081395,0
1707,54.3,17.243,0,1.4243,0,1743.2,51.089,11.033,-1.314,0.38068,3.1213,0.081395,0
1707,54.3,17.243,0,1.4243,0,1743.2,51.089,11.033,-1.314,0.38068,3.1213,0.081395,0
1707,54.3,17.243,0,1.4243,0,1743.2,51.089,11.033,-1.314,0.38068,3.1213,0.081395,0
1707,54.3,17.243,0,1.4243,0,1743.2,51.089,11.033,-1.314,0.38068,3.1213,0.081395,0
1707,54.3,17.243,0,1.4243,0,1743.4,51.064,11.04,-1.2529,0.35666,3.0667,0.080928,0
1708.8,54.3,17.382,0,1.3548,0,1743.6,51.04,11.047,-1.1931,0.33286,3.0053,0.084408,0
1709.5,54.3,17.435,0,1.3275,0,1744.3,50.974,11.064,-1.0223,0.26486,2.7897,0.084536,0
1709.5,54.3,17.435,0,1.3275,0,1744.9,50.918,11.077,-0.86595,0.20464,2.5426,0.083011,0
1709.5,54.3,17.435,0,1.3275,0,1745.2,50.902,11.081,-0.81726,0.18664,2.4563,0.082513,0
1709.5,54.3,17.435,0,1.3275,0,1745.2,50.902,11.081,-0.81726,0.18664,2.4563,0.082513,0
1709.5,54.3,17.435,0,1.3275,0,1745.2,50.902,11.081,-0.81726,0.18664,2.4563,0.082513,0
1709.5,54.3,17.435,0,1.3275,0,1745.2,50.902,11.081,-0.81726,0.18664,2.4563,0.082513,0
1709.5,54.3,17.435,0,1.3275,0,1745.2,50.902,11.081,-0.81726,0.18664,2.4563,0.082513,0
1709.5,54.3,17.435,0,1.3275,0,1745.2,50.902,11.081,-0.81726,0.18664,2.4563,0.082513,0
1709.5,54.3,17.435,0,1.3275,0,1745.2,50.902,11.081,-0.81726,0.18664,2.4563,0.082513,0
1709.5,54.3,17.435,0,1.3275,0,1745.2,50.902,11.081,-0.81726,0.18664,2.4563,0.082513,0
1709.5,54.3,17.435,0,1.3275,0,1745.2,50.902,11.081,-0.81726,0.18664,2.4563,0.082513,0
1710.9,54.3,17.539,0,1.2738,0,1745.2,50.902,11.081,-0.81726,0.18664,2.4563,0.085827,0
1710.9,54.3,17.539,0,1.2738,0,1745.2,50.902,11.081,-0.81726,0.18664,2.4563,0.085827,0
1710.9,54.3,17.539,0,1.2738,0,1745.2,50.902,11.081,-0.81726,0.18664,2.4563,0.085827,0
1710.9,54.3,17.539,0,1.2738,0,1745.2,50.902,11.081,-0.81726,0.18664,2.4563,0.085827,0
1710.9,54.3,17.539,0,1.2738,0,1745.2,50.902,11.081,-0.81726,0.18664,2.4563,0.085827,0
1710.9,54.3,17.539,0,1.2738,0,1745.2,50.902,11.081,-0.81726,0.18664,2.4563,0.085827,0
1710.9,54.3,17.539,0,1.2738,0,1745.2,50.902,11.081,-0.81726,0.18664,2.4563,0.085827,0
1710.9,54.3,17.539,0,1.2738,0,1745.2,50.902,11.081,-0.81726,0.18664,2.4563,0.085827,0
1710.9,54.3,17.539,0,1.2738,0,1745.2,50.902,11.081,-0.81726,0.18664,2.4563,0.085827,0
1710.9,54.3,17.539,0,1.2738,0,1745.2,50.902,11.081,-0.81726,0.18664,2.4563,0.085827,0
1710.9,54.3,17.539,0,1.2738,0,1745.6,50.871,11.087,-0.72515,0.15389,2.2809,0.084764,0
1712.3,54.3,17.639,0,1.2152,0,1745.8,50.857,11.09,-0.68174,0.13915,2.1927,0.087717,0
1713,54.3,17.687,0,1.1862,0,1746.5,50.821,11.097,-0.562,0.10115,1.9308,0.087836,0
1713,54.3,17.687,0,1.1862,0,1747.6,50.774,11.104,-0.39603,0.056255,1.519,0.085078,0
1713,54.3,17.687,0,1.1862,0,1747.6,50.774,11.104,-0.39603,0.056255,1.519,0.085078,0
1713,54.3,17.687,0,1.1862,0,1747.6,50.774,11.104,-0.39603,0.056255,1.519,0.085078,0
1713,54.3,17.687,0,1.1862,0,1747.6,50.774,11.104,-0.39603,0.056255,1.519,0.085078,0
1713,54.3,17.687,0,1.1862,0,1747.6,50.774,11.104,-0.39603,0.056255,1.519,0.085078,0
1713,54.3,17.687,0,1.1862,0,1747.6,50.774,11.104,-0.39603,0.056255,1.519,0.085078,0
1713,54.3,17.687,0,1.1862,0,1747.6,50.774,11.104,-0.39603,0.056255,1.519,0.085078,0
1713,54.3,17.687,0,1.1862,0,1747.6,50.774,11.104,-0.39603,0.056255,1.519,0.085078,0
1713,54.3,17.687,0,1.1862,0,1747.6,50.774,11.104,-0.39603,0.056255,1.519,0.085078,0
1714.7,54.3,17.802,0,1.1166,0,1747.6,50.774,11.104,-0.39603,0.056255,1.519,0.089592,0
1714.7,54.3,17.802,0,1.1166,0,1747.6,50.774,11.104,-0.39603,0.056255,1.519,0.089592,0
1714.7,54.3,17.802,0,1.1166,0,1747.6,50.774,11.104,-0.39603,0.056255,1.519,0.089592,0
1714.7,54.3,17.802,0,1.1166,0,1747.6,50.774,11.104,-0.39603,0.056255,1.519,0.089592,0
1714.7,54.3,17.802,0,1.1166,0,1747.6,50.774,11.104,-0.39603,0.056255,1.519,0.089592,0
1714.7,54.3,17.802,0,1.1166,0,1747.6,50.774,11.104,-0.39603,0.056255,1.519,0.089592,0
1714.7,54.3,17.802,0,1.1166,0,1747.6,50.774,11.104,-0.39603,0.056255,1.519,0.089592,0
1714.7,54.3,17.802,0,1.1166,0,1747.6,50.774,11.104,-0.39603,0.056255,1.519,0.089592,0
1714.7,54.3,17.802,0,1.1166,0,1747.6,50.774,11.104,-0.39603,0.056255,1.519,0.089592,0
1714.7,54.3,17.802,0,1.1166,0,1747.6,50.774,11.104,-0.39603,0.056255,1.519,0.089592,0
1714.7,54.3,17.802,0,1.1166,0,1748.1,50.76,11.106,-0.34061,0.043621,1.3673,0.08842,0
1714.7,54.3,17.802,0,1.1166,0,1748.1,50.76,11.106,-0.34061,0.043621,1.3673,0.08842,0
1715.8,54.3,17.868,0,1.0767,0,1748.1,50.76,11.106,-0.34061,0.043621,1.3673,0.091302,0
1715.8,54.3,17.868,0,1.0767,0,1748.1,50.76,11.106,-0.34061,0.043621,1.3673,0.091302,0
1715.8,54.3,17.868,0,1.0767,0,1748.9,50.737,11.108,-0.24666,0.025302,1.0912,0.088897,0
1718.3,54.3,18.012,0,0.98884,0,1749.4,50.728,11.109,-0.20738,0.0189,0.96733,0.094698,0
1718.3,54.3,18.012,0,0.98884,0,1749.4,50.728,11.109,-0.20738,0.0189,0.96733,0.094698,0
1718.7,54.3,18.032,0,0.97685,0,1749.4,50.728,11.109,-0.20738,0.0189,0.96733,0.095787,0
1719,54.3,18.051,0,0.965,0,1749.4,50.728,11.109,-0.20738,0.0189,0.96733,0.096902,0
1719,54.3,18.051,0,0.965,0,1749.4,50.728,11.109,-0.20738,0.0189,0.96733,0.096902,0
1719,54.3,18.051,0,0.965,0,1749.4,50.728,11.109,-0.20738,0.0189,0.96733,0.096902,0
1719,54.3,18.051,0,0.965,0,1749.4,50.728,11.109,-0.20738,0.0189,0.96733,0.096902,0
1719,54.3,18.051,0,0.965,0,1749.4,50.728,11.109,-0.20738,0.0189,0.96733,0.096902,0
1719,54.3,18.051,0,0.965,0,1749.4,50.728,11.109,-0.20738,0.0189,0.96733,0.096902,0
1719,54.3,18.051,0,0.965,0,1749.4,50.728,11.109,-0.20738,0.0189,0.96733,0.096902,0
1719,54.3,18.051,0,0.965,0,1749.4,50.728,11.109,-0.20738,0.0189,0.96733,0.096902,0
1719,54.3,18.051,0,0.965,0,1749.4,50.728,11.109,-0.20738,0.0189,0.96733,0.096902,0
1719,54.3,18.051,0,0.965,0,1749.4,50.728,11.109,-0.20738,0.0189,0.96733,0.096902,0
1719,54.3,18.051,0,0.965,0,1750.7,50.709,11.111,-0.11572,0.0071833,0.65285,0.092901,0
1719,54.3,18.051,0,0.965,0,1750.7,50.709,11.111,-0.11572,0.0071833,0.65285,0.092901,0
1719,54.3,18.051,0,0.965,0,1750.7,50.709,11.111,-0.11572,0.0071833,0.65285,0.092901,0
1719,54.3,18.051,0,0.965,0,1750.7,50.709,11.111,-0.11572,0.0071833,0.65285,0.092901,0
1719,54.3,18.051,0,0.965,0,1750.7,50.709,11.111,-0.11572,0.0071833,0.65285,0.092901,0
1719,54.3,18.051,0,0.965,0,1750.7,50.709,11.111,-0.11572,0.0071833,0.65285,0.092901,0
1719,54.3,18.051,0,0.965,0,1750.7,50.709,11.111,-0.11572,0.0071833,0.65285,0.092901,0
1719,54.3,18.051,0,0.965,0,1750.7,50.709,11.111,-0.11572,0.0071833,0.65285,0.092901,0
1719,54.3,18.051,0,0.965,0,1750.9,50.707,11.111,-0.10378,0.0060163,0.60845,0.092266,0
1720.9,54.3,18.145,0,0.90777,0,1751.2,50.705,11.111,-0.092664,0.005011,0.56623,0.096997,0
1721.9,54.3,18.199,0,0.875,0,1752.1,50.7,11.111,-0.055733,0.0022535,0.41792,0.09763,0
1721.9,54.3,18.199,0,0.875,0,1752.9,50.696,11.111,-0.02899,0.00086249,0.2996,0.094887,0
1721.9,54.3,18.199,0,0.875,0,1752.9,50.696,11.111,-0.02899,0.00086249,0.2996,0.094887,0
1721.9,54.3,18.199,0,0.875,0,1752.9,50.696,11.111,-0.02899,0.00086249,0.2996,0.094887,0
1721.9,54.3,18.199,0,0.875,0,1752.9,50.696,11.111,-0.02899,0.00086249,0.2996,0.094887,0
1721.9,54.3,18.199,0,0.875,0,1752.9,50.696,11.111,-0.02899,0.00086249,0.2996,0.094887,0
1721.9,54.3,18.199,0,0.875,0,1752.9,50.696,11.111,-0.02899,0.00086249,0.2996,0.094887,0
1721.9,54.3,18.199,0,0.875,0,1752.9,50.696,11.111,-0.02899,0.00086249,0.2996,0.094887,0
1721.9,54.3,18.199,0,0.875,0,1752.9,50.696,11.111,-0.02899,0.00086249,0.2996,0.094887,0
1721.9,54.3,18.199,0,0.875,0,1752.9,50.696,11.111,-0.02899,0.00086249,0.2996,0.094887,0
1723.4,54.3,18.267,0,0.83304,0,1752.9,50.696,11.111,-0.02899,0.00086249,0.2996,0.09947,0
1723.4,54.3,18.267,0,0.83304,0,1752.9,50.696,11.111,-0.02899,0.00086249,0.2996,0.09947,0
1723.4,54.3,18.267,0,0.83304,0,1752.9,50.696,11.111,-0.02899,0.00086249,0.2996,0.09947,0
1723.4,54.3,18.267,0,0.83304,0,1752.9,50.696,11.111,-0.02899,0.00086249,0.2996,0.09947,0
1723.4,54.3,18.267,0,0.83304,0,1752.9,50.696,11.111,-0.02899,0.00086249,0.2996,0.09947,0
1723.4,54.3,18.267,0,0.83304,0,1752.9,50.696,11.111,-0.02899,0.00086249,0.2996,0.09947,0
1723.4,54.3,18.267,0,0.83304,0,1752.9,50.696,11.111,-0.02899,0.00086249,0.2996,0.09947,0
1723.4,54.3,18.267,0,0.83304,0,1752.9,50.696,11.111,-0.02899,0.00086249,0.2996,0.09947,0
1723.4,54.3,18.267,0,0.83304,0,1752.9,50.696,11.111,-0.02899,0.00086249,0.2996,0.09947,0
1723.4,54.3,18.267,0,0.83304,0,1752.9,50.696,11.111,-0.02899,0.00086249,0.2996,0.09947,0
1723.4,54.3,18.267,0,0.83304,0,1753.4,50.696,11.111,-0.018748,0.00047891,0.25039,0.098027,0
1723.4,54.3,18.267,0,0.83304,0,1753.4,50.696,11.111,-0.018748,0.00047891,0.25039,0.098027,0
1724.5,54.3,18.316,0,0.80284,0,1753.4,50.696,11.111,-0.018748,0.00047891,0.25039,0.10167,0
1724.5,54.3,18.316,0,0.80284,0,1754.3,50.695,11.111,-0.0033222,7.6388e-05,0.16925,0.098698,0
1725.6,54.3,18.363,0,0.77369,0,1754.3,50.695,11.111,-0.0033222,7.6388e-05,0.16925,0.1024,0
1725.6,54.3,18.363,0,0.77369,0,1755.4,50.695,11.111,0.0085635,-6.5198e-05,0.09517,0.098664,0
1725.6,54.3,18.363,0,0.77369,0,1755.4,50.695,11.111,0.0085635,-6.5198e-05,0.09517,0.098664,0
1725.6,54.3,18.363,0,0.77369,0,1755.4,50.695,11.111,0.0085635,-6.5198e-05,0.09517,0.098664,0
1725.6,54.3,18.363,0,0.77369,0,1755.4,50.695,11.111,0.0085635,-6.5198e-05,0.09517,0.098664,0
1725.6,54.3,18.363,0,0.77369,0,1755.6,50.695,11.111,0.010172,-7.0107e-05,0.08342,0.097949,0
1725.6,54.3,18.363,0,0.77369,0,1755.6,50.695,11.111,0.010172,-7.0107e-05,0.08342,0.097949,0
1725.6,54.3,18.363,0,0.77369,0,1755.6,50.695,11.111,0.010172,-7.0107e-05,0.08342,0.097949,0
1725.6,54.3,18.363,0,0.77369,0,1755.6,50.695,11.111,0.010172,-7.0107e-05,0.08342,0.097949,0
1725.6,54.3,18.363,0,0.77369,0,1755.6,50.695,11.111,0.010172,-7.0107e-05,0.08342,0.097949,0
1725.6,54.3,18.363,0,0.77369,0,1755.6,50.695,11.111,0.010172,-7.0107e-05,0.08342,0.097949,0
1725.6,54.3,18.363,0,0.77369,0,1755.6,50.695,11.111,0.010172,-7.0107e-05,0.08342,0.097949,0
1725.6,54.3,18.363,0,0.77369,0,1755.8,50.696,11.111,0.011568,-7.0813e-05,0.072568,0.097245,0
1725.6,54.3,18.363,0,0.77369,0,1755.8,50.696,11.111,0.011568,-7.0813e-05,0.072568,0.097245,0
1725.6,54.3,18.363,0,0.77369,0,1755.8,50.696,11.111,0.011568,-7.0813e-05,0.072568,0.097245,0
1728.2,54.3,18.467,0,0.70955,0,1755.8,50.696,11.111,0.011568,-7.0813e-05,0.072568,0.10609,0
1728.2,54.3,18.467,0,0.70955,0,1756.3,50.696,11.111,0.013788,-6.3653e-05,0.053358,0.10445,0
1730,54.3,18.536,0,0.66689,0,1756.5,50.696,11.111,0.014643,-5.7367e-05,0.044906,0.1107,0
1730.4,54.3,18.549,0,0.65866,0,1756.5,50.696,11.111,0.014643,-5.7367e-05,0.044906,0.11223,0
1730.4,54.3,18.549,0,0.65866,0,1756.5,50.696,11.111,0.014643,-5.7367e-05,0.044906,0.11223,0
1730.4,54.3,18.549,0,0.65866,0,1756.5,50.696,11.111,0.014643,-5.7367e-05,0.044906,0.11223,0
1730.8,54.3,18.562,0,0.65053,0,1756.5,50.696,11.111,0.014643,-5.7367e-05,0.044906,0.1138,0
1730.8,54.3,18.562,0,0.65053,0,1756.5,50.696,11.111,0.014643,-5.7367e-05,0.044906,0.1138,0
1730.8,54.3,18.562,0,0.65053,0,1756.5,50.696,11.111,0.014643,-5.7367e-05,0.044906,0.1138,0
1730.8,54.3,18.562,0,0.65053,0,1756.5,50.696,11.111,0.014643,-5.7367e-05,0.044906,0.1138,0
1730.8,54.3,18.562,0,0.65053,0,1756.5,50.696,11.111,0.014643,-5.7367e-05,0.044906,0.1138,0
1730.8,54.3,18.562,0,0.65053,0,1756.5,50.696,11.111,0.014643,-5.7367e-05,0.044906,0.1138,0
1730.8,54.3,18.562,0,0.65053,0,1756.5,50.696,11.111,0.014643,-5.7367e-05,0.044906,0.1138,0
1730.8,54.3,18.562,0,0.65053,0,1756.5,50.696,11.111,0.014643,-5.7367e-05,0.044906,0.1138,0
1730.8,54.3,18.562,0,0.65053,0,1756.5,50.696,11.111,0.014643,-5.7367e-05,0.044906,0.1138,0
1730.8,54.3,18.562,0,0.65053,0,1757.8,50.698,11.111,0.017027,-1.1642e-05,0.0076311,0.10835,0
1730.8,54.3,18.562,0,0.65053,0,1757.8,50.698,11.111,0.017027,-1.1642e-05,0.0076311,0.10835,0
1730.8,54.3,18.562,0,0.65053,0,1757.8,50.698,11.111,0.017027,-1.1642e-05,0.0076311,0.10835,0
1730.8,54.3,18.562,0,0.65053,0,1757.8,50.698,11.111,0.017027,-1.1642e-05,0.0076311,0.10835,0
1730.8,54.3,18.562,0,0.65053,0,1757.8,50.698,11.111,0.017027,-1.1642e-05,0.0076311,0.10835,0
1730.8,54.3,18.562,0,0.65053,0,1757.8,50.698,11.111,0.017027,-1.1642e-05,0.0076311,0.10835,0
1730.8,54.3,18.562,0,0.65053,0,1757.8,50.698,11.111,0.017027,-1.1642e-05,0.0076311,0.10835,0
1730.8,54.3,18.562,0,0.65053,0,1758.1,50.699,11.111,0.017071,-5.0588e-06,0.0032991,0.10749,0
1732.6,54.3,18.625,0,0.61129,0,1758.3,50.699,11.111,0.017039,9.0196e-07,-0.00058797,0.11416,0
1732.6,54.3,18.625,0,0.61129,0,1759.2,50.7,11.111,0.016311,1.8168e-05,-0.012284,0.11044,0
1732.6,54.3,18.625,0,0.61129,0,1759.8,50.701,11.111,0.015316,2.4752e-05,-0.017751,0.10781,0
1732.6,54.3,18.625,0,0.61129,0,1759.8,50.701,11.111,0.015316,2.4752e-05,-0.017751,0.10781,0
1734.9,54.3,18.696,0,0.56721,0,1759.8,50.701,11.111,0.015316,2.4752e-05,-0.017751,0.11719,0
1734.9,54.3,18.696,0,0.56721,0,1759.8,50.701,11.111,0.015316,2.4752e-05,-0.017751,0.11719,0
1734.9,54.3,18.696,0,0.56721,0,1759.8,50.701,11.111,0.015316,2.4752e-05,-0.017751,0.11719,0
1734.9,54.3,18.696,0,0.56721,0,1759.8,50.701,11.111,0.015316,2.4752e-05,-0.017751,0.11719,0
1734.9,54.3,18.696,0,0.56721,0,1759.8,50.701,11.111,0.015316,2.4752e-05,-0.017751,0.11719,0
1734.9,54.3,18.696,0,0.56721,0,1759.8,50.701,11.111,0.015316,2.4752e-05,-0.017751,0.11719,0
1734.9,54.3,18.696,0,0.56721,0,1759.8,50.701,11.111,0.015316,2.4752e-05,-0.017751,0.11719,0
1734.9,54.3,18.696,0,0.56721,0,1759.8,50.701,11.111,0.015316,2.4752e-05,-0.017751,0.11719,0
1734.9,54.3,18.696,0,0.56721,0,1759.8,50.701,11.111,0.015316,2.4752e-05,-0.017751,0.11719,0
1734.9,54.3,18.696,0,0.56721,0,1759.8,50.701,11.111,0.015316,2.4752e-05,-0.017751,0.11719,0
1734.9,54.3,18.696,0,0.56721,0,1760.3,50.702,11.111,0.014519,2.6718e-05,-0.020167,0.1152,0
1734.9,54.3,18.696,0,0.56721,0,1760.3,50.702,11.111,0.014519,2.6718e-05,-0.020167,0.1152,0
1734.9,54.3,18.696,0,0.56721,0,1760.3,50.702,11.111,0.014519,2.6718e-05,-0.020167,0.1152,0
1734.9,54.3,18.696,0,0.56721,0,1760.3,50.702,11.111,0.014519,2.6718e-05,-0.020167,0.1152,0
1734.9,54.3,18.696,0,0.56721,0,1760.3,50.702,11.111,0.014519,2.6718e-05,-0.020167,0.1152,0
1734.9,54.3,18.696,0,0.56721,0,1760.3,50.702,11.111,0.014519,2.6718e-05,-0.020167,0.1152,0
1734.9,54.3,18.696,0,0.56721,0,1760.3,50.702,11.111,0.014519,2.6718e-05,-0.020167,0.1152,0
1734.9,54.3,18.696,0,0.56721,0,1760.5,50.702,11.111,0.014093,2.7118e-05,-0.021065,0.11423,0
1734.9,54.3,18.696,0,0.56721,0,1760.5,50.702,11.111,0.014093,2.7118e-05,-0.021065,0.11423,0
1734.9,54.3,18.696,0,0.56721,0,1760.5,50.702,11.111,0.014093,2.7118e-05,-0.021065,0.11423,0
1734.9,54.3,18.696,0,0.56721,0,1760.5,50.702,11.111,0.014093,2.7118e-05,-0.021065,0.11423,0
1737.5,54.3,18.772,0,0.51965,0,1760.7,50.702,11.111,0.013653,2.7192e-05,-0.021781,0.12563,0
1737.5,54.3,18.772,0,0.51965,0,1760.7,50.702,11.111,0.013653,2.7192e-05,-0.021781,0.12563,0
1737.9,54.3,18.782,0,0.51318,0,1760.7,50.702,11.111,0.013653,2.7192e-05,-0.021781,0.12762,0
1737.9,54.3,18.782,0,0.51318,0,1762.3,50.704,11.111,0.010439,2.2017e-05,-0.022931,0.11976,0
1739.4,54.3,18.822,0,0.48807,0,1762.3,50.704,11.111,0.010439,2.2017e-05,-0.022931,0.12735,0
1739.4,54.3,18.822,0,0.48807,0,1762.3,50.704,11.111,0.010439,2.2017e-05,-0.022931,0.12735,0
1739.4,54.3,18.822,0,0.48807,0,1762.3,50.704,11.111,0.010439,2.2017e-05,-0.022931,0.12735,0
1739.4,54.3,18.822,0,0.48807,0,1762.3,50.704,11.111,0.010439,2.2017e-05,-0.022931,0.12735,0
1739.4,54.3,18.822,0,0.48807,0,1762.3,50.704,11.111,0.010439,2.2017e-05,-0.022931,0.12735,0
1739.4,54.3,18.822,0,0.48807,0,1762.3,50.704,11.111,0.010439,2.2017e-05,-0.022931,0.12735,0
1739.4,54.3,18.822,0,0.48807,0,1762.3,50.704,11.111,0.010439,2.2017e-05,-0.022931,0.12735,0
1739.8,54.3,18.832,0,0.48199,0,1762.3,50.704,11.111,0.010439,2.2017e-05,-0.022931,0.1294,0
1739.8,54.3,18.832,0,0.48199,0,1762.3,50.704,11.111,0.010439,2.2017e-05,-0.022931,0.1294,0
1739.8,54.3,18.832,0,0.48199,0,1762.3,50.704,11.111,0.010439,2.2017e-05,-0.022931,0.1294,0
1739.8,54.3,18.832,0,0.48199,0,1762.3,50.704,11.111,0.010439,2.2017e-05,-0.022931,0.1294,0
1740.1,54.3,18.842,0,0.47597,0,1762.3,50.704,11.111,0.010439,2.2017e-05,-0.022931,0.13151,0
1740.1,54.3,18.842,0,0.47597,0,1762.3,50.704,11.111,0.010439,2.2017e-05,-0.022931,0.13151,0
1740.1,54.3,18.842,0,0.47597,0,1762.3,50.704,11.111,0.010439,2.2017e-05,-0.022931,0.13151,0
1740.1,54.3,18.842,0,0.47597,0,1763.4,50.705,11.111,0.0082511,1.6098e-05,-0.021136,0.12546,0
1741.3,54.3,18.87,0,0.45836,0,1763.4,50.705,11.111,0.0082511,1.6098e-05,-0.021136,0.13163,0
1742.4,54.3,18.897,0,0.44138,0,1764,50.706,10.951,0.0069565,-4,-0.02173,0.13331,0
1742.4,54.3,18.897,0,0.44138,0,1764,50.706,10.951,0.0069565,-4,-0.02173,0.13331,0
1742.4,54.3,18.897,0,0.44138,0,1764,50.706,10.951,0.0069565,-4,-0.02173,0.13331,0
1742.4,54.3,18.897,0,0.44138,0,1764,50.706,10.951,0.0069565,-4,-0.02173,0.13331,0
1742.8,54.3,18.905,0,0.43586,0,1764,50.706,10.951,0.0069565,-4,-0.02173,0.13558,0
1742.8,54.3,18.905,0,0.43586,0,1764,50.706,10.951,0.0069565,-4,-0.02173,0.13558,0
1743.1,54.3,18.914,0,0.43041,0,1764,50.706,10.951,0.0069565,-4,-0.02173,0.13792,0
1743.1,54.3,18.914,0,0.43041,0,1764,50.706,10.951,0.0069565,-4,-0.02173,0.13792,0
1743.1,54.3,18.914,0,0.43041,0,1764,50.706,10.951,0.0069565,-4,-0.02173,0.13792,0
