24088,54.3,20.045,0,0.024168,0,24221,70.338,0,0,0,0,0.012735,1
24088,54.3,20.045,0,0.024168,0,24221,70.338,0,0,0,0,0.012735,1
24088,54.3,20.045,0,0.024168,0,24221,70.338,0,0,0,0,0.012735,1
24088,54.3,20.045,0,0.024168,0,24221,70.338,0,0,0,0,0.012735,1
24088,54.3,20.045,0,0.024168,0,24221,70.338,0,0,0,0,0.012735,1
24088,54.3,20.045,0,0.024168,0,24221,70.338,0,0,0,0,0.012735,1
24088,54.3,20.045,0,0.024168,0,24221,70.338,0,0,0,0,0.012735,1
24089,54.3,20.046,0,0.023958,0,24221,70.338,0,0,0,0,0.01285,1
24090,54.3,20.048,0,0.023748,0,24221,70.338,0,0,0,0,0.012966,1
24090,54.3,20.048,0,0.023748,0,24221,70.338,0,0,0,0,0.012966,1
24090,54.3,20.048,0,0.023748,0,24221,70.338,0,0,0,0,0.012966,1
24090,54.3,20.048,0,0.023748,0,24221,70.338,0,0,0,0,0.012966,1
24090,54.3,20.048,0,0.023748,0,24221,70.338,0,0,0,0,0.012966,1
24090,54.3,20.048,0,0.023748,0,24221,70.338,0,0,0,0,0.012966,1
24090,54.3,20.048,0,0.023748,0,24221,70.338,0,0,0,0,0.012966,1
24090,54.3,20.048,0,0.023748,0,24221,70.338,0,0,0,0,0.012966,1
24090,54.3,20.048,0,0.023748,0,24221,70.338,0,0,0,0,0.012966,1
24090,54.3,20.048,0,0.023748,0,24221,70.338,0,0,0,0,0.012966,1
24090,54.3,20.048,0,0.023748,0,24221,70.338,0,0,0,0,0.012966,1
24092,54.3,20.049,0,0.023538,0,24221,70.338,0,0,0,0,0.013085,1
24092,54.3,20.049,0,0.023538,0,24221,70.338,0,0,0,0,0.013085,1
24092,54.3,20.049,0,0.023538,0,24221,70.338,0,0,0,0,0.013085,1
24092,54.3,20.049,0,0.023538,0,24221,70.338,0,0,0,0,0.013085,1
24092,54.3,20.049,0,0.023538,0,24221,70.338,0,0,0,0,0.013085,1
24092,54.3,20.049,0,0.023538,0,24221,70.338,0,0,0,0,0.013085,1
24092,54.3,20.049,0,0.023538,0,24221,70.338,0,0,0,0,0.013085,1
24092,54.3,20.049,0,0.023538,0,24221,70.338,0,0,0,0,0.013085,1
24092,54.3,20.049,0,0.023538,0,24221,70.338,0,0,0,0,0.013085,1
24092,54.3,20.049,0,0.023538,0,24221,70.338,0,0,0,0,0.013085,1
24092,54.3,20.049,0,0.023538,0,24221,70.338,0,0,0,0,0.013085,1
24092,54.3,20.049,0,0.023538,0,24221,70.338,0,0,0,0,0.013085,1
24092,54.3,20.049,0,0.023538,0,24221,70.338,0,0,0,0,0.013085,1
24092,54.3,20.049,0,0.023538,0,24221,70.338,0,0,0,0,0.013085,1
24094,54.3,20.052,0,0.023187,0,24221,70.338,0,0,0,0,0.013288,1
24094,54.3,20.052,0,0.023187,0,24221,70.338,0,0,0,0,0.013288,1
24094,54.3,20.052,0,0.023187,0,24221,70.338,0,0,0,0,0.013288,1
24096,54.3,20.054,0,0.022833,0,24221,70.338,0,0,0,0,0.013497,1
24096,54.3,20.054,0,0.022762,0,24221,70.338,0,0,0,0,0.01354,1
24096,54.3,20.054,0,0.022762,0,24221,70.338,0,0,0,0,0.01354,1
24096,54.3,20.054,0,0.022762,0,24221,70.338,0,0,0,0,0.01354,1
24096,54.3,20.054,0,0.022762,0,24221,70.338,0,0,0,0,0.01354,1
24096,54.3,20.054,0,0.022762,0,24221,70.338,0,0,0,0,0.01354,1
24097,54.3,20.056,0,0.02255,0,24221,70.338,0,0,0,0,0.013669,1
24097,54.3,20.056,0,0.02255,0,24221,70.338,0,0,0,0,0.013669,1
24097,54.3,20.056,0,0.02255,0,24221,70.338,0,0,0,0,0.013669,1
24097,54.3,20.056,0,0.02255,0,24221,70.338,0,0,0,0,0.013669,1
24097,54.3,20.056,0,0.02255,0,24221,70.338,0,0,0,0,0.013669,1
24097,54.3,20.056,0,0.02255,0,24221,70.338,0,0,0,0,0.013669,1
24097,54.3,20.056,0,0.02255,0,24221,70.338,0,0,0,0,0.013669,1
24097,54.3,20.056,0,0.02255,0,24221,70.338,0,0,0,0,0.013669,1
24097,54.3,20.056,0,0.02255,0,24221,70.338,0,0,0,0,0.013669,1
24097,54.3,20.056,0,0.02255,0,24221,70.338,0,0,0,0,0.013669,1
24098,54.3,20.057,0,0.022407,0,24221,70.338,0,0,0,0,0.013757,1
24098,54.3,20.057,0,0.022407,0,24221,70.338,0,0,0,0,0.013757,1
24098,54.3,20.057,0,0.022407,0,24221,70.338,0,0,0,0,0.013757,1
24098,54.3,20.057,0,0.022407,0,24221,70.338,0,0,0,0,0.013757,1
24098,54.3,20.057,0,0.022407,0,24221,70.338,0,0,0,0,0.013757,1
24098,54.3,20.057,0,0.022407,0,24221,70.338,0,0,0,0,0.013757,1
24098,54.3,20.057,0,0.022407,0,24221,70.338,0,0,0,0,0.013757,1
24100,54.3,20.059,0,0.02205,0,24221,70.338,0,0,0,0,0.013981,1
24100,54.3,20.059,0,0.02205,0,24221,70.338,0,0,0,0,0.013981,1
24100,54.3,20.059,0,0.02205,0,24221,70.338,0,0,0,0,0.013981,1
24101,54.3,20.06,0,0.021835,0,24221,70.338,0,0,0,0,0.01412,1
24101,54.3,20.06,0,0.021835,0,24221,70.338,0,0,0,0,0.01412,1
24101,54.3,20.06,0,0.021835,0,24221,70.338,0,0,0,0,0.01412,1
24101,54.3,20.06,0,0.021835,0,24221,70.338,0,0,0,0,0.01412,1
24101,54.3,20.06,0,0.021835,0,24221,70.338,0,0,0,0,0.01412,1
24101,54.3,20.06,0,0.021835,0,24221,70.338,0,0,0,0,0.01412,1
24101,54.3,20.06,0,0.021835,0,24221,70.338,0,0,0,0,0.01412,1
24101,54.3,20.06,0,0.021835,0,24221,70.338,0,0,0,0,0.01412,1
24101,54.3,20.06,0,0.021835,0,24221,70.366,0,0,0,0,0.014125,1
24101,54.3,20.06,0,0.021835,0,24221,70.366,0,0,0,0,0.014125,1
24101,54.3,20.06,0,0.021835,0,24221,70.366,0,0,0,0,0.014125,1
24101,54.3,20.06,0,0.021835,0,24221,70.366,0,0,0,0,0.014125,1
24101,54.3,20.06,0,0.021835,0,24221,70.366,0,0,0,0,0.014125,1
24101,54.3,20.06,0,0.021835,0,24221,70.366,0,0,0,0,0.014125,1
24101,54.3,20.06,0,0.021835,0,24221,70.366,0,0,0,0,0.014125,1
24101,54.3,20.06,0,0.021835,0,24221,70.366,0,0,0,0,0.014125,1
24101,54.3,20.06,0,0.021835,0,24221,70.366,0,0,0,0,0.014125,1
24103,54.3,20.062,0,0.021548,0,24221,70.366,0,0,0,0,0.014314,1
24103,54.3,20.062,0,0.021548,0,24221,70.366,0,0,0,0,0.014314,1
24103,54.3,20.062,0,0.021476,0,24221,70.366,0,0,0,0,0.014362,1
24103,54.3,20.062,0,0.021476,0,24221,70.366,0,0,0,0,0.014362,1
24103,54.3,20.062,0,0.021476,0,24221,70.123,-0.45573,-1.2893,-3.7977,-10.744,0.014045,1
24106,54.3,20.065,0,0.021043,0,24221,70.063,-0.45573,-1.2893,-3.7977,-10.744,0.014334,1
24106,54.3,20.065,0,0.021043,0,24221,69.82,0.016276,-3.0306,3.9334,-14.511,0.014677,1
24106,54.3,20.065,0,0.021043,0,24221,69.82,0.016276,-3.0306,3.9334,-14.511,0.014677,1
24106,54.3,20.065,0,0.021043,0,24221,69.82,0.016276,-3.0306,3.9334,-14.511,0.014677,1
24106,54.3,20.065,0,0.021043,0,24221,69.759,0.016276,-3.0306,3.9334,-14.511,0.014678,1
24106,54.3,20.065,0,0.021043,0,24221,69.699,0.016276,-3.0306,3.9334,-14.511,0.014679,1
24106,54.3,20.065,0,0.021043,0,24221,69.699,0.016276,-3.0306,3.9334,-14.511,0.014679,1
24106,54.3,20.065,0,0.021043,0,24221,69.699,0.016276,-3.0306,3.9334,-14.511,0.014679,1
24106,54.3,20.065,0,0.021043,0,24221,69.699,0.016276,-3.0306,3.9334,-14.511,0.014679,1
24106,54.3,20.065,0,0.021043,0,24221,69.699,0.016276,-3.0306,3.9334,-14.511,0.014679,1
24106,54.3,20.065,0,0.021043,0,24221,69.699,0.016276,-3.0306,3.9334,-14.511,0.014679,1
24106,54.3,20.065,0,0.021043,0,24221,69.699,0.016276,-3.0306,3.9334,-14.511,0.014679,1
24106,54.3,20.065,0,0.021043,0,24221,69.699,0.016276,-3.0306,3.9334,-14.511,0.014679,1
24106,54.3,20.065,0,0.021043,0,24221,69.699,0.016276,-3.0306,3.9334,-14.511,0.014679,1
24106,54.3,20.065,0,0.021043,0,24221,69.699,0.016276,-3.0306,3.9334,-14.511,0.014679,1
24107,54.3,20.067,0,0.020753,0,24221,69.699,0.016276,-3.0306,3.9334,-14.511,0.014883,1
24107,54.3,20.067,0,0.020753,0,24221,69.699,0.016276,-3.0306,3.9334,-14.511,0.014883,1
24107,54.3,20.067,0,0.020753,0,24221,69.578,0.016276,-3.0306,3.9334,-14.511,0.014885,1
24107,54.3,20.067,0,0.020753,0,24221,69.578,0.016276,-3.0306,3.9334,-14.511,0.014885,1
24107,54.3,20.067,0,0.020753,0,24221,69.578,0.016276,-3.0306,3.9334,-14.511,0.014885,1
24107,54.3,20.067,0,0.020753,0,24221,69.578,0.016276,-3.0306,3.9334,-14.511,0.014885,1
24107,54.3,20.067,0,0.020753,0,24221,69.578,0.016276,-3.0306,3.9334,-14.511,0.014885,1
24107,54.3,20.067,0,0.020753,0,24221,69.578,0.016276,-3.0306,3.9334,-14.511,0.014885,1
24107,54.3,20.067,0,0.020753,0,24221,69.578,0.016276,-3.0306,3.9334,-14.511,0.014885,1
24108,54.3,20.067,0,0.020607,0,24221,69.578,0.016276,-3.0306,3.9334,-14.511,0.014989,1
24108,54.3,20.067,0,0.020607,0,24221,69.578,0.016276,-3.0306,3.9334,-14.511,0.014989,1
24108,54.3,20.067,0,0.020607,0,24221,69.335,0,-3.0305,-0.13563,0.00052982,0.014981,1
24110,54.3,20.069,0,0.020317,0,24221,69.335,0,-3.0305,-0.13563,0.00052982,0.015194,1
24110,54.3,20.069,0,0.020317,0,24221,69.214,0,-3.0305,-0.13563,0.00052982,0.015196,1
24110,54.3,20.069,0,0.020317,0,24221,69.214,0,-3.0305,-0.13563,0.00052982,0.015196,1
24111,54.3,20.071,0,0.020025,0,24221,69.214,0,-3.0305,-0.13563,0.00052982,0.015415,1
24112,54.3,20.071,0,0.019879,0,24221,68.972,0.016276,-3.0306,0.13563,-0.00052982,0.015543,1
24112,54.3,20.071,0,0.019879,0,24221,68.972,0.016276,-3.0306,0.13563,-0.00052982,0.015543,1
24112,54.3,20.071,0,0.019879,0,24221,68.972,0.016276,-3.0306,0.13563,-0.00052982,0.015543,1
24112,54.3,20.071,0,0.019879,0,24221,68.972,0.016276,-3.0306,0.13563,-0.00052982,0.015543,1
24112,54.3,20.071,0,0.019879,0,24221,68.972,0.016276,-3.0306,0.13563,-0.00052982,0.015543,1
24113,54.3,20.072,0,0.019805,0,24221,68.972,0.016276,-3.0306,0.13563,-0.00052982,0.0156,1
24113,54.3,20.072,0,0.019805,0,24221,68.972,0.016276,-3.0306,0.13563,-0.00052982,0.0156,1
24113,54.3,20.072,0,0.019805,0,24221,68.79,0.016276,-3.0306,0.13563,-0.00052982,0.015603,1
24113,54.3,20.072,0,0.019805,0,24221,68.79,0.016276,-3.0306,0.13563,-0.00052982,0.015603,1
24113,54.3,20.072,0,0.019805,0,24221,68.79,0.016276,-3.0306,0.13563,-0.00052982,0.015603,1
24113,54.3,20.072,0,0.019805,0,24221,68.79,0.016276,-3.0306,0.13563,-0.00052982,0.015603,1
24113,54.3,20.072,0,0.019805,0,24221,68.79,0.016276,-3.0306,0.13563,-0.00052982,0.015603,1
24113,54.3,20.072,0,0.019805,0,24221,68.79,0.016276,-3.0306,0.13563,-0.00052982,0.015603,1
24113,54.3,20.072,0,0.019805,0,24221,68.79,0.016276,-3.0306,0.13563,-0.00052982,0.015603,1
24113,54.3,20.072,0,0.019805,0,24221,68.79,0.016276,-3.0306,0.13563,-0.00052982,0.015603,1
24113,54.3,20.072,0,0.019805,0,24221,68.79,0.016276,-3.0306,0.13563,-0.00052982,0.015603,1
24113,54.3,20.072,0,0.019805,0,24221,68.79,0.016276,-3.0306,0.13563,-0.00052982,0.015603,1
24113,54.3,20.073,0,0.019659,0,24221,68.79,0.016276,-3.0306,0.13563,-0.00052982,0.015718,1
24114,54.3,20.073,0,0.019511,0,24221,68.79,0.016276,-3.0306,0.13563,-0.00052982,0.015834,1
24114,54.3,20.073,0,0.019511,0,24221,68.547,0,-3.0305,-0.13563,0.00052982,0.015826,1
24114,54.3,20.073,0,0.019511,0,24221,68.547,0,-3.0305,-0.13563,0.00052982,0.015826,1
24114,54.3,20.073,0,0.019511,0,24221,68.547,0,-3.0305,-0.13563,0.00052982,0.015826,1
24114,54.3,20.073,0,0.019511,0,24221,68.547,0,-3.0305,-0.13563,0.00052982,0.015826,1
24114,54.3,20.073,0,0.019511,0,24221,68.426,0,-3.0305,-0.13563,0.00052982,0.015828,1
24117,54.3,20.076,0,0.019069,0,24221,68.426,0,-3.0305,-0.13563,0.00052982,0.016187,1
24117,54.3,20.076,0,0.019069,0,24221,68.426,0,-3.0305,-0.13563,0.00052982,0.016187,1
24117,54.3,20.076,0,0.019069,0,24221,68.426,0,-3.0305,-0.13563,0.00052982,0.016187,1
24117,54.3,20.076,0,0.019069,0,24221,68.426,0,-3.0305,-0.13563,0.00052982,0.016187,1
24117,54.3,20.076,0,0.019069,0,24221,68.426,0,-3.0305,-0.13563,0.00052982,0.016187,1
24117,54.3,20.076,0,0.019069,0,24221,68.426,0,-3.0305,-0.13563,0.00052982,0.016187,1
24117,54.3,20.076,0,0.019069,0,24221,68.426,0,-3.0305,-0.13563,0.00052982,0.016187,1
24117,54.3,20.076,0,0.018995,0,24221,68.426,0,-3.0305,-0.13563,0.00052982,0.016248,1
24117,54.3,20.076,0,0.018995,0,24221,68.426,0,-3.0305,-0.13563,0.00052982,0.016248,1
24117,54.3,20.077,0,0.018922,0,24221,68.426,0,-3.0305,-0.13563,0.00052982,0.01631,1
24117,54.3,20.077,0,0.018922,0,24221,68.062,0,-3.0305,0,0,0.016317,1
24117,54.3,20.077,0,0.018922,0,24221,68.062,0,-3.0305,0,0,0.016317,1
24118,54.3,20.077,0,0.018773,0,24221,68.062,0,-3.0305,0,0,0.016442,1
24118,54.3,20.077,0,0.018773,0,24221,68.062,0,-3.0305,0,0,0.016442,1
24118,54.3,20.077,0,0.018773,0,24221,67.82,0.016276,-3.0306,0.13563,-0.00052982,0.016461,1
24118,54.3,20.077,0,0.018773,0,24221,67.759,0.016276,-3.0306,0.13563,-0.00052982,0.016462,1
24118,54.3,20.077,0,0.018773,0,24221,67.759,0.016276,-3.0306,0.13563,-0.00052982,0.016462,1
24118,54.3,20.077,0,0.018773,0,24221,67.759,0.016276,-3.0306,0.13563,-0.00052982,0.016462,1
24118,54.3,20.077,0,0.018773,0,24221,67.759,0.016276,-3.0306,0.13563,-0.00052982,0.016462,1
24118,54.3,20.077,0,0.018773,0,24221,67.699,0.016276,-3.0306,0.13563,-0.00052982,0.016463,1
24118,54.3,20.077,0,0.018773,0,24221,67.638,0,-3.0305,-0.13563,0.00052982,0.016451,1
24118,54.3,20.077,0,0.018773,0,24221,67.638,0,-3.0305,-0.13563,0.00052982,0.016451,1
24118,54.3,20.077,0,0.018773,0,24221,67.638,0,-3.0305,-0.13563,0.00052982,0.016451,1
24118,54.3,20.077,0,0.018773,0,24221,67.577,0,-3.0305,-0.13563,0.00052982,0.016452,1
24122,54.3,20.081,0,0.018104,0,24221,67.517,0,-3.0305,-0.13563,0.00052982,0.017043,1
24122,54.3,20.081,0,0.018104,0,24221,67.517,0,-3.0305,-0.13563,0.00052982,0.017043,1
24122,54.3,20.081,0,0.018104,0,24221,67.517,0,-3.0305,-0.13563,0.00052982,0.017043,1
24122,54.3,20.081,0,0.018104,0,24221,67.517,0,-3.0305,-0.13563,0.00052982,0.017043,1
24122,54.3,20.081,0,0.01803,0,24221,67.517,0,-3.0305,-0.13563,0.00052982,0.017111,1
24123,54.3,20.081,0,0.017955,0,24221,67.517,0,-3.0305,-0.13563,0.00052982,0.017179,1
24123,54.3,20.081,0,0.017955,0,24221,67.517,0,-3.0305,-0.13563,0.00052982,0.017179,1
24123,54.3,20.081,0,0.017955,0,24221,67.517,0,-3.0305,-0.13563,0.00052982,0.017179,1
24123,54.3,20.081,0,0.017955,0,24221,67.517,0,-3.0305,-0.13563,0.00052982,0.017179,1
24123,54.3,20.081,0,0.017955,0,24221,67.517,0,-3.0305,-0.13563,0.00052982,0.017179,1
24123,54.3,20.081,0,0.017955,0,24221,67.517,0,-3.0305,-0.13563,0.00052982,0.017179,1
24123,54.3,20.081,0,0.017955,0,24221,67.517,0,-3.0305,-0.13563,0.00052982,0.017179,1
24123,54.3,20.081,0,0.017955,0,24221,67.517,0,-3.0305,-0.13563,0.00052982,0.017179,1
24123,54.3,20.081,0,0.017955,0,24221,67.517,0,-3.0305,-0.13563,0.00052982,0.017179,1
24123,54.3,20.082,0,0.017881,0,24221,67.517,0,-3.0305,-0.13563,0.00052982,0.017249,1
24123,54.3,20.082,0,0.017806,0,24221,67.517,0,-3.0305,-0.13563,0.00052982,0.017318,1
24123,54.3,20.082,0,0.017806,0,24221,67.517,0,-3.0305,-0.13563,0.00052982,0.017318,1
24123,54.3,20.082,0,0.017806,0,24221,67.153,0.016276,-3.0305,0.13563,0,0.017341,1
24123,54.3,20.082,0,0.017806,0,24221,67.153,0.016276,-3.0305,0.13563,0,0.017341,1
24123,54.3,20.082,0,0.017806,0,24221,67.153,0.016276,-3.0305,0.13563,0,0.017341,1
24123,54.3,20.082,0,0.017806,0,24221,67.153,0.016276,-3.0305,0.13563,0,0.017341,1
24123,54.3,20.082,0,0.017806,0,24221,67.153,0.016276,-3.0305,0.13563,0,0.017341,1
24125,54.3,20.084,0,0.017431,0,24221,66.971,0.016276,-3.0305,0.13563,0,0.017703,1
24125,54.3,20.084,0,0.017431,0,24221,66.85,0,-3.0306,-0.13563,-0.00052982,0.017692,1
24125,54.3,20.084,0,0.017431,0,24221,66.85,0,-3.0306,-0.13563,-0.00052982,0.017692,1
24126,54.3,20.084,0,0.017281,0,24221,66.85,0,-3.0306,-0.13563,-0.00052982,0.017839,1
24126,54.3,20.084,0,0.017281,0,24221,66.85,0,-3.0306,-0.13563,-0.00052982,0.017839,1
24127,54.3,20.085,0,0.017206,0,24221,66.85,0,-3.0306,-0.13563,-0.00052982,0.017914,1
24127,54.3,20.085,0,0.017206,0,24221,66.668,0,-3.0306,-0.13563,-0.00052982,0.017918,1
24127,54.3,20.085,0,0.017206,0,24221,66.668,0,-3.0306,-0.13563,-0.00052982,0.017918,1
24127,54.3,20.085,0,0.017206,0,24221,66.668,0,-3.0306,-0.13563,-0.00052982,0.017918,1
24128,54.3,20.086,0,0.01698,0,24221,66.608,0,-3.0306,-0.13563,-0.00052982,0.018148,1
24128,54.3,20.086,0,0.01698,0,24221,66.608,0,-3.0306,-0.13563,-0.00052982,0.018148,1
24128,54.3,20.086,0,0.016904,0,24221,66.608,0,-3.0306,-0.13563,-0.00052982,0.018225,1
24128,54.3,20.086,0,0.016904,0,24221,66.608,0,-3.0306,-0.13563,-0.00052982,0.018225,1
24128,54.3,20.086,0,0.016904,0,24221,66.608,0,-3.0306,-0.13563,-0.00052982,0.018225,1
24128,54.3,20.086,0,0.016904,0,24221,66.608,0,-3.0306,-0.13563,-0.00052982,0.018225,1
24128,54.3,20.086,0,0.016904,0,24221,66.608,0,-3.0306,-0.13563,-0.00052982,0.018225,1
24128,54.3,20.086,0,0.016904,0,24221,66.608,0,-3.0306,-0.13563,-0.00052982,0.018225,1
24128,54.3,20.086,0,0.016904,0,24221,66.608,0,-3.0306,-0.13563,-0.00052982,0.018225,1
24129,54.3,20.087,0,0.016754,0,24221,66.426,0.016276,-3.0305,0.13563,0.00052982,0.018401,1
24129,54.3,20.087,0,0.016754,0,24221,66.426,0.016276,-3.0305,0.13563,0.00052982,0.018401,1
24129,54.3,20.087,0,0.016754,0,24221,66.426,0.016276,-3.0305,0.13563,0.00052982,0.018401,1
24129,54.3,20.087,0,0.016754,0,24221,66.426,0.016276,-3.0305,0.13563,0.00052982,0.018401,1
24129,54.3,20.087,0,0.016754,0,24221,66.426,0.016276,-3.0305,0.13563,0.00052982,0.018401,1
24129,54.3,20.087,0,0.016754,0,24221,66.305,0.016276,-3.0305,0.13563,0.00052982,0.018404,1
24129,54.3,20.087,0,0.016754,0,24221,66.305,0.016276,-3.0305,0.13563,0.00052982,0.018404,1
24131,54.3,20.088,0,0.016452,0,24221,66.244,0.016276,-3.0305,0.13563,0.00052982,0.018727,1
24131,54.3,20.088,0,0.016452,0,24221,66.244,0.016276,-3.0305,0.13563,0.00052982,0.018727,1
24131,54.3,20.089,0,0.016376,0,24221,66.244,0.016276,-3.0305,0.13563,0.00052982,0.01881,1
24132,54.3,20.089,0,0.016224,0,24221,66.244,0.016276,-3.0305,0.13563,0.00052982,0.018976,1
24132,54.3,20.089,0,0.016224,0,24221,66.244,0.016276,-3.0305,0.13563,0.00052982,0.018976,1
24132,54.3,20.089,0,0.016224,0,24221,66.244,0.016276,-3.0305,0.13563,0.00052982,0.018976,1
24132,54.3,20.089,0,0.016224,0,24221,65.88,0,-3.0306,-0.13563,-0.00052982,0.018971,1
24132,54.3,20.089,0,0.016224,0,24221,65.88,0,-3.0306,-0.13563,-0.00052982,0.018971,1
24132,54.3,20.089,0,0.016224,0,24221,65.88,0,-3.0306,-0.13563,-0.00052982,0.018971,1
24132,54.3,20.089,0,0.016224,0,24221,65.88,0,-3.0306,-0.13563,-0.00052982,0.018971,1
24132,54.3,20.089,0,0.016224,0,24221,65.88,0,-3.0306,-0.13563,-0.00052982,0.018971,1
24132,54.3,20.089,0,0.016224,0,24221,65.88,0,-3.0306,-0.13563,-0.00052982,0.018971,1
24132,54.3,20.089,0,0.016224,0,24221,65.88,0,-3.0306,-0.13563,-0.00052982,0.018971,1
24133,54.3,20.09,0,0.016072,0,24221,65.88,0,-3.0306,-0.13563,-0.00052982,0.01914,1
24133,54.3,20.09,0,0.016072,0,24221,65.88,0,-3.0306,-0.13563,-0.00052982,0.01914,1
24133,54.3,20.09,0,0.016072,0,24221,65.88,0,-3.0306,-0.13563,-0.00052982,0.01914,1
24133,54.3,20.09,0,0.016072,0,24221,65.88,0,-3.0306,-0.13563,-0.00052982,0.01914,1
24133,54.3,20.09,0,0.016072,0,24221,65.759,0.016276,-3.0305,0.13563,0.00052982,0.019159,1
24133,54.3,20.09,0,0.01592,0,24221,65.759,0.016276,-3.0305,0.13563,0.00052982,0.019332,1
24133,54.3,20.09,0,0.01592,0,24221,65.759,0.016276,-3.0305,0.13563,0.00052982,0.019332,1
24135,54.3,20.091,0,0.015691,0,24221,65.577,0.016276,-3.0305,0.13563,0.00052982,0.019603,1
24135,54.3,20.092,0,0.015539,0,24221,65.456,0,-3.0305,-0.13563,0,0.019771,1
24135,54.3,20.092,0,0.015539,0,24221,65.335,0,-3.0305,-0.13563,0,0.019775,1
24135,54.3,20.092,0,0.015539,0,24221,65.335,0,-3.0305,-0.13563,0,0.019775,1
24135,54.3,20.092,0,0.015539,0,24221,65.274,0,-3.0305,-0.13563,0,0.019777,1
24135,54.3,20.092,0,0.015539,0,24221,65.274,0,-3.0305,-0.13563,0,0.019777,1
24135,54.3,20.092,0,0.015539,0,24221,65.274,0,-3.0305,-0.13563,0,0.019777,1
24135,54.3,20.092,0,0.015539,0,24221,65.274,0,-3.0305,-0.13563,0,0.019777,1
24135,54.3,20.092,0,0.015539,0,24221,65.274,0,-3.0305,-0.13563,0,0.019777,1
24135,54.3,20.092,0,0.015539,0,24221,65.274,0,-3.0305,-0.13563,0,0.019777,1
24135,54.3,20.092,0,0.015539,0,24221,65.274,0,-3.0305,-0.13563,0,0.019777,1
24135,54.3,20.092,0,0.015539,0,24221,65.274,0,-3.0305,-0.13563,0,0.019777,1
24135,54.3,20.092,0,0.015539,0,24221,65.274,0,-3.0305,-0.13563,0,0.019777,1
24137,54.3,20.093,0,0.015309,0,24221,65.274,0,-3.0305,-0.13563,0,0.020055,1
24137,54.3,20.093,0,0.015309,0,24221,65.274,0,-3.0305,-0.13563,0,0.020055,1
24137,54.3,20.093,0,0.015309,0,24221,65.274,0,-3.0305,-0.13563,0,0.020055,1
24137,54.3,20.093,0,0.015309,0,24221,65.274,0,-3.0305,-0.13563,0,0.020055,1
24137,54.3,20.093,0,0.015309,0,24221,65.274,0,-3.0305,-0.13563,0,0.020055,1
24137,54.3,20.093,0,0.015309,0,24221,65.274,0,-3.0305,-0.13563,0,0.020055,1
24137,54.3,20.093,0,0.015309,0,24221,65.274,0,-3.0305,-0.13563,0,0.020055,1
24137,54.3,20.093,0,0.015309,0,24221,65.274,0,-3.0305,-0.13563,0,0.020055,1
24137,54.3,20.093,0,0.015233,0,24221,65.274,0,-3.0305,-0.13563,0,0.020149,1
24137,54.3,20.093,0,0.015233,0,24221,65.274,0,-3.0305,-0.13563,0,0.020149,1
24137,54.3,20.093,0,0.015233,0,24221,65.274,0,-3.0305,-0.13563,0,0.020149,1
24137,54.3,20.093,0,0.015233,0,24221,65.274,0,-3.0305,-0.13563,0,0.020149,1
24137,54.3,20.093,0,0.015233,0,24221,64.971,0,-3.0306,0,-0.00052982,0.020158,1
24139,54.3,20.094,0,0.014926,0,24221,64.971,0,-3.0306,0,-0.00052982,0.020545,1
24139,54.3,20.094,0,0.014926,0,24221,64.971,0,-3.0306,0,-0.00052982,0.020545,1
24140,54.3,20.096,0,0.014619,0,24221,64.85,0,-3.0306,0,-0.00052982,0.020952,1
24140,54.3,20.096,0,0.014619,0,24221,64.85,0,-3.0306,0,-0.00052982,0.020952,1
24141,54.3,20.096,0,0.014466,0,24221,64.608,0.016276,-3.0305,0.13563,0.00052982,0.021184,1
24141,54.3,20.096,0,0.014466,0,24221,64.486,0.016276,-3.0305,0.13563,0.00052982,0.021189,1
24141,54.3,20.096,0,0.014466,0,24221,64.486,0.016276,-3.0305,0.13563,0.00052982,0.021189,1
24141,54.3,20.096,0,0.014466,0,24221,64.486,0.016276,-3.0305,0.13563,0.00052982,0.021189,1
24141,54.3,20.096,0,0.014466,0,24221,64.426,0.016276,-3.0305,0.13563,0.00052982,0.021191,1
24141,54.3,20.096,0,0.014466,0,24221,64.426,0.016276,-3.0305,0.13563,0.00052982,0.021191,1
24141,54.3,20.096,0,0.014466,0,24221,64.426,0.016276,-3.0305,0.13563,0.00052982,0.021191,1
24141,54.3,20.096,0,0.014466,0,24221,64.426,0.016276,-3.0305,0.13563,0.00052982,0.021191,1
24141,54.3,20.096,0,0.014466,0,24221,64.426,0.016276,-3.0305,0.13563,0.00052982,0.021191,1
24141,54.3,20.096,0,0.014466,0,24221,64.426,0.016276,-3.0305,0.13563,0.00052982,0.021191,1
24142,54.3,20.097,0,0.014235,0,24221,64.426,0.016276,-3.0305,0.13563,0.00052982,0.02151,1
24142,54.3,20.097,0,0.014235,0,24221,64.426,0.016276,-3.0305,0.13563,0.00052982,0.02151,1
24142,54.3,20.097,0,0.014235,0,24221,64.426,0.016276,-3.0305,0.13563,0.00052982,0.02151,1
24142,54.3,20.097,0,0.014235,0,24221,64.426,0.016276,-3.0305,0.13563,0.00052982,0.02151,1
24142,54.3,20.097,0,0.014235,0,24221,64.426,0.016276,-3.0305,0.13563,0.00052982,0.02151,1
24142,54.3,20.097,0,0.014235,0,24221,64.426,0.016276,-3.0305,0.13563,0.00052982,0.02151,1
24142,54.3,20.097,0,0.014235,0,24221,64.426,0.016276,-3.0305,0.13563,0.00052982,0.02151,1
24142,54.3,20.097,0,0.014235,0,24221,64.426,0.016276,-3.0305,0.13563,0.00052982,0.02151,1
24142,54.3,20.097,0,0.014235,0,24221,64.426,0.016276,-3.0305,0.13563,0.00052982,0.02151,1
24143,54.3,20.098,0,0.014081,0,24221,64.304,0,-3.0305,-0.13563,0,0.021715,1
24143,54.3,20.098,0,0.014081,0,24221,64.304,0,-3.0305,-0.13563,0,0.021715,1
24143,54.3,20.098,0,0.014081,0,24221,64.304,0,-3.0305,-0.13563,0,0.021715,1
24143,54.3,20.098,0,0.014081,0,24221,64.062,0,-3.0305,-0.13563,0,0.021723,1
24143,54.3,20.098,0,0.014081,0,24221,64.062,0,-3.0305,-0.13563,0,0.021723,1
24145,54.3,20.099,0,0.013695,0,24221,64.062,0,-3.0305,-0.13563,0,0.022289,1
24145,54.3,20.099,0,0.013695,0,24221,63.82,0.016276,-3.0306,0.13563,-0.00052982,0.022316,1
24145,54.3,20.099,0,0.013695,0,24221,63.82,0.016276,-3.0306,0.13563,-0.00052982,0.022316,1
24146,54.3,20.1,0,0.013463,0,24221,63.82,0.016276,-3.0306,0.13563,-0.00052982,0.022671,1
24146,54.3,20.1,0,0.013463,0,24221,63.698,0.016276,-3.0306,0.13563,-0.00052982,0.022676,1
24147,54.3,20.1,0,0.013307,0,24221,63.698,0.016276,-3.0306,0.13563,-0.00052982,0.022918,1
24147,54.3,20.1,0,0.013307,0,24221,63.698,0.016276,-3.0306,0.13563,-0.00052982,0.022918,1
24147,54.3,20.1,0,0.013307,0,24221,63.698,0.016276,-3.0306,0.13563,-0.00052982,0.022918,1
24147,54.3,20.1,0,0.013307,0,24221,63.698,0.016276,-3.0306,0.13563,-0.00052982,0.022918,1
24147,54.3,20.1,0,0.013307,0,24221,63.698,0.016276,-3.0306,0.13563,-0.00052982,0.022918,1
24147,54.3,20.1,0,0.013307,0,24221,63.698,0.016276,-3.0306,0.13563,-0.00052982,0.022918,1
24147,54.3,20.1,0,0.013307,0,24221,63.698,0.016276,-3.0306,0.13563,-0.00052982,0.022918,1
24147,54.3,20.1,0,0.013307,0,24221,63.698,0.016276,-3.0306,0.13563,-0.00052982,0.022918,1
24147,54.3,20.101,0,0.01323,0,24221,63.698,0.016276,-3.0306,0.13563,-0.00052982,0.023042,1
24147,54.3,20.101,0,0.01323,0,24221,63.698,0.016276,-3.0306,0.13563,-0.00052982,0.023042,1
24147,54.3,20.101,0,0.01323,0,24221,63.517,0,-3.0305,-0.13563,0.00052982,0.02303,1
24147,54.3,20.101,0,0.01323,0,24221,63.517,0,-3.0305,-0.13563,0.00052982,0.02303,1
24147,54.3,20.101,0,0.01323,0,24221,63.517,0,-3.0305,-0.13563,0.00052982,0.02303,1
24147,54.3,20.101,0,0.01323,0,24221,63.517,0,-3.0305,-0.13563,0.00052982,0.02303,1
24147,54.3,20.101,0,0.01323,0,24221,63.517,0,-3.0305,-0.13563,0.00052982,0.02303,1
24147,54.3,20.101,0,0.01323,0,24221,63.517,0,-3.0305,-0.13563,0.00052982,0.02303,1
24147,54.3,20.101,0,0.01323,0,24221,63.456,0,-3.0305,-0.13563,0.00052982,0.023033,1
24149,54.3,20.102,0,0.01284,0,24221,63.395,0,-3.0305,-0.13563,0.00052982,0.023672,1
24149,54.3,20.102,0,0.01284,0,24221,63.213,0.016276,-3.0306,0.13563,-0.00026491,0.023699,1
24151,54.3,20.103,0,0.012529,0,24221,63.153,0.016276,-3.0306,0.13563,-0.00026491,0.024239,1
24151,54.3,20.103,0,0.012529,0,24221,63.153,0.016276,-3.0306,0.13563,-0.00026491,0.024239,1
24151,54.3,20.103,0,0.012529,0,24221,62.971,0.016276,-3.0306,0.13563,-0.00026491,0.024246,1
24151,54.3,20.103,0,0.012529,0,24221,62.971,0.016276,-3.0306,0.13563,-0.00026491,0.024246,1
24151,54.3,20.103,0,0.012529,0,24221,62.971,0.016276,-3.0306,0.13563,-0.00026491,0.024246,1
24151,54.3,20.103,0,0.012529,0,24221,62.971,0.016276,-3.0306,0.13563,-0.00026491,0.024246,1
24151,54.3,20.103,0,0.012529,0,24221,62.971,0.016276,-3.0306,0.13563,-0.00026491,0.024246,1
24151,54.3,20.103,0,0.012529,0,24221,62.971,0.016276,-3.0306,0.13563,-0.00026491,0.024246,1
24151,54.3,20.103,0,0.012529,0,24221,62.971,0.016276,-3.0306,0.13563,-0.00026491,0.024246,1
24151,54.3,20.103,0,0.012529,0,24221,62.971,0.016276,-3.0306,0.13563,-0.00026491,0.024246,1
24152,54.3,20.103,0,0.012373,0,24221,62.971,0.016276,-3.0306,0.13563,-0.00026491,0.024524,1
24152,54.3,20.103,0,0.012373,0,24221,62.971,0.016276,-3.0306,0.13563,-0.00026491,0.024524,1
24152,54.3,20.103,0,0.012373,0,24221,62.971,0.016276,-3.0306,0.13563,-0.00026491,0.024524,1
24152,54.3,20.103,0,0.012373,0,24221,62.971,0.016276,-3.0306,0.13563,-0.00026491,0.024524,1
24152,54.3,20.103,0,0.012373,0,24221,62.971,0.016276,-3.0306,0.13563,-0.00026491,0.024524,1
24152,54.3,20.103,0,0.012373,0,24221,62.971,0.016276,-3.0306,0.13563,-0.00026491,0.024524,1
24152,54.3,20.103,0,0.012373,0,24221,62.971,0.016276,-3.0306,0.13563,-0.00026491,0.024524,1
24152,54.3,20.103,0,0.012373,0,24221,62.971,0.016276,-3.0306,0.13563,-0.00026491,0.024524,1
24152,54.3,20.103,0,0.012373,0,24221,62.971,0.016276,-3.0306,0.13563,-0.00026491,0.024524,1
24152,54.3,20.103,0,0.012373,0,24221,62.971,0.016276,-3.0306,0.13563,-0.00026491,0.024524,1
24152,54.3,20.104,0,0.012295,0,24221,62.971,0.016276,-3.0306,0.13563,-0.00026491,0.024666,1
24152,54.3,20.104,0,0.012295,0,24221,62.971,0.016276,-3.0306,0.13563,-0.00026491,0.024666,1
24152,54.3,20.104,0,0.012295,0,24221,62.971,0.016276,-3.0306,0.13563,-0.00026491,0.024666,1
24152,54.3,20.104,0,0.012295,0,24221,62.971,0.016276,-3.0306,0.13563,-0.00026491,0.024666,1
24152,54.3,20.104,0,0.012295,0,24221,62.971,0.016276,-3.0306,0.13563,-0.00026491,0.024666,1
24154,54.3,20.105,0,0.011981,0,24221,62.729,0,-3.0306,-0.13563,0,0.025239,1
24154,54.3,20.105,0,0.011981,0,24221,62.729,0,-3.0306,-0.13563,0,0.025239,1
24155,54.3,20.105,0,0.011747,0,24221,62.729,0,-3.0306,-0.13563,0,0.025694,1
24155,54.3,20.105,0,0.011747,0,24221,62.304,0.016276,-3.0306,0.13563,0,0.025735,1
24156,54.3,20.106,0,0.011511,0,24221,62.304,0.016276,-3.0306,0.13563,0,0.026208,1
24156,54.3,20.106,0,0.011511,0,24221,62.183,0,-3.0305,-0.13563,0.00026491,0.026193,1
24156,54.3,20.106,0,0.011511,0,24221,62.183,0,-3.0305,-0.13563,0.00026491,0.026193,1
24156,54.3,20.106,0,0.011511,0,24221,62.122,0,-3.0305,-0.13563,0.00026491,0.026196,1
24156,54.3,20.106,0,0.011511,0,24221,62.122,0,-3.0305,-0.13563,0.00026491,0.026196,1
24156,54.3,20.106,0,0.011511,0,24221,62.062,0,-3.0305,-0.13563,0.00026491,0.026199,1
24156,54.3,20.106,0,0.011511,0,24221,62.062,0,-3.0305,-0.13563,0.00026491,0.026199,1
24156,54.3,20.106,0,0.011511,0,24221,62.062,0,-3.0305,-0.13563,0.00026491,0.026199,1
24156,54.3,20.106,0,0.011511,0,24221,62.062,0,-3.0305,-0.13563,0.00026491,0.026199,1
24156,54.3,20.106,0,0.011511,0,24221,62.062,0,-3.0305,-0.13563,0.00026491,0.026199,1
24158,54.3,20.107,0,0.011198,0,24221,62.062,0,-3.0305,-0.13563,0.00026491,0.026858,1
24158,54.3,20.107,0,0.011198,0,24221,62.062,0,-3.0305,-0.13563,0.00026491,0.026858,1
24158,54.3,20.107,0,0.011119,0,24221,62.062,0,-3.0305,-0.13563,0.00026491,0.027028,1
24158,54.3,20.107,0,0.011119,0,24221,62.062,0,-3.0305,-0.13563,0.00026491,0.027028,1
24159,54.3,20.107,0,0.01104,0,24221,62.062,0,-3.0305,-0.13563,0.00026491,0.0272,1
24159,54.3,20.107,0,0.01104,0,24221,62.062,0,-3.0305,-0.13563,0.00026491,0.0272,1
24159,54.3,20.108,0,0.010961,0,24221,62.062,0,-3.0305,-0.13563,0.00026491,0.027374,1
24159,54.3,20.108,0,0.010961,0,24221,61.759,0,-3.0306,0,-0.00026491,0.027389,1
24160,54.3,20.108,0,0.010804,0,24221,61.759,0,-3.0306,0,-0.00026491,0.027745,1
24160,54.3,20.108,0,0.010804,0,24221,61.638,0,-3.0306,0,-0.00026491,0.027752,1
24160,54.3,20.108,0,0.010804,0,24221,61.638,0,-3.0306,0,-0.00026491,0.027752,1
24160,54.3,20.108,0,0.010804,0,24221,61.577,0,-3.0306,0,-0.00026491,0.027755,1
24160,54.3,20.108,0,0.010804,0,24221,61.516,0,-3.0306,0,-0.00026491,0.027758,1
24160,54.3,20.108,0,0.010804,0,24221,61.516,0,-3.0306,0,-0.00026491,0.027758,1
24160,54.3,20.108,0,0.010804,0,24221,61.516,0,-3.0306,0,-0.00026491,0.027758,1
24160,54.3,20.108,0,0.010804,0,24221,61.516,0,-3.0306,0,-0.00026491,0.027758,1
24160,54.3,20.108,0,0.010804,0,24221,61.516,0,-3.0306,0,-0.00026491,0.027758,1
24160,54.3,20.108,0,0.010804,0,24221,61.516,0,-3.0306,0,-0.00026491,0.027758,1
24162,54.3,20.109,0,0.010488,0,24221,61.516,0,-3.0306,0,-0.00026491,0.028499,1
24162,54.3,20.109,0,0.010488,0,24221,61.516,0,-3.0306,0,-0.00026491,0.028499,1
24162,54.3,20.109,0,0.010488,0,24221,61.516,0,-3.0306,0,-0.00026491,0.028499,1
24162,54.3,20.109,0,0.010488,0,24221,61.516,0,-3.0306,0,-0.00026491,0.028499,1
24162,54.3,20.109,0,0.010488,0,24221,61.395,0.016276,-3.0306,0.13563,0,0.028529,1
24162,54.3,20.109,0,0.010488,0,24221,61.395,0.016276,-3.0306,0.13563,0,0.028529,1
24162,54.3,20.109,0,0.010488,0,24221,61.395,0.016276,-3.0306,0.13563,0,0.028529,1
24162,54.3,20.109,0,0.010488,0,24221,61.395,0.016276,-3.0306,0.13563,0,0.028529,1
24162,54.3,20.109,0,0.010488,0,24221,61.395,0.016276,-3.0306,0.13563,0,0.028529,1
24162,54.3,20.109,0,0.010488,0,24221,61.395,0.016276,-3.0306,0.13563,0,0.028529,1
24163,54.3,20.11,0,0.010172,0,24221,61.335,0.016276,-3.0306,0.13563,0,0.029316,1
24163,54.3,20.11,0,0.010172,0,24221,61.335,0.016276,-3.0306,0.13563,0,0.029316,1
24164,54.3,20.11,0,0.010013,0,24221,61.153,0.016276,-3.0306,0.13563,0,0.029735,1
24164,54.3,20.11,0,0.010013,0,24221,61.153,0.016276,-3.0306,0.13563,0,0.029735,1
24164,54.3,20.11,0,0.010013,0,24221,61.153,0.016276,-3.0306,0.13563,0,0.029735,1
24164,54.3,20.11,0,0.010013,0,24221,61.153,0.016276,-3.0306,0.13563,0,0.029735,1
24165,54.3,20.111,0,0.0097761,0,24221,61.153,0.016276,-3.0306,0.13563,0,0.030369,1
24165,54.3,20.111,0,0.0097761,0,24221,61.153,0.016276,-3.0306,0.13563,0,0.030369,1
24165,54.3,20.111,0,0.0097761,0,24221,61.153,0.016276,-3.0306,0.13563,0,0.030369,1
24165,54.3,20.111,0,0.0097761,0,24221,61.153,0.016276,-3.0306,0.13563,0,0.030369,1
24165,54.3,20.111,0,0.0097761,0,24221,61.153,0.016276,-3.0306,0.13563,0,0.030369,1
24165,54.3,20.111,0,0.0097761,0,24221,61.153,0.016276,-3.0306,0.13563,0,0.030369,1
24165,54.3,20.111,0,0.0097761,0,24221,61.153,0.016276,-3.0306,0.13563,0,0.030369,1
24166,54.3,20.111,0,0.0096966,0,24221,61.153,0.016276,-3.0306,0.13563,0,0.030586,1
24166,54.3,20.111,0,0.0096966,0,24221,61.153,0.016276,-3.0306,0.13563,0,0.030586,1
24166,54.3,20.111,0,0.0096966,0,24221,61.153,0.016276,-3.0306,0.13563,0,0.030586,1
24166,54.3,20.111,0,0.0096966,0,24221,61.153,0.016276,-3.0306,0.13563,0,0.030586,1
24166,54.3,20.111,0,0.0096172,0,24221,61.153,0.016276,-3.0306,0.13563,0,0.030806,1
24167,54.3,20.112,0,0.009459,0,24221,60.728,0.016276,-3.0305,0.13563,0.00026491,0.031285,1
24167,54.3,20.112,0,0.009459,0,24221,60.547,0.016276,-3.0305,0.13563,0.00026491,0.031297,1
24168,54.3,20.112,0,0.0092205,0,24221,60.547,0.016276,-3.0305,0.13563,0.00026491,0.032001,1
24168,54.3,20.112,0,0.0092205,0,24221,60.547,0.016276,-3.0305,0.13563,0.00026491,0.032001,1
24168,54.3,20.112,0,0.0092205,0,24221,60.365,0,-3.0306,-0.13563,-0.00026491,0.031988,1
24168,54.3,20.112,0,0.0092205,0,24221,60.365,0,-3.0306,-0.13563,-0.00026491,0.031988,1
24168,54.3,20.112,0,0.0092205,0,24221,60.365,0,-3.0306,-0.13563,-0.00026491,0.031988,1
24168,54.3,20.112,0,0.0092205,0,24221,60.365,0,-3.0306,-0.13563,-0.00026491,0.031988,1
24168,54.3,20.112,0,0.0092205,0,24221,60.365,0,-3.0306,-0.13563,-0.00026491,0.031988,1
24168,54.3,20.112,0,0.0092205,0,24221,60.365,0,-3.0306,-0.13563,-0.00026491,0.031988,1
24168,54.3,20.112,0,0.0092205,0,24221,60.365,0,-3.0306,-0.13563,-0.00026491,0.031988,1
24168,54.3,20.112,0,0.0092205,0,24221,60.365,0,-3.0306,-0.13563,-0.00026491,0.031988,1
24168,54.3,20.112,0,0.0092205,0,24221,60.365,0,-3.0306,-0.13563,-0.00026491,0.031988,1
24169,54.3,20.113,0,0.0089824,0,24221,60.365,0,-3.0306,-0.13563,-0.00026491,0.032724,1
24169,54.3,20.113,0,0.0089824,0,24221,60.365,0,-3.0306,-0.13563,-0.00026491,0.032724,1
24169,54.3,20.113,0,0.0089824,0,24221,60.365,0,-3.0306,-0.13563,-0.00026491,0.032724,1
24169,54.3,20.113,0,0.0089824,0,24221,60.365,0,-3.0306,-0.13563,-0.00026491,0.032724,1
24169,54.3,20.113,0,0.0089824,0,24221,60.365,0,-3.0306,-0.13563,-0.00026491,0.032724,1
24169,54.3,20.113,0,0.0089824,0,24221,60.365,0,-3.0306,-0.13563,-0.00026491,0.032724,1
24169,54.3,20.113,0,0.0089824,0,24221,60.365,0,-3.0306,-0.13563,-0.00026491,0.032724,1
24169,54.3,20.113,0,0.0089824,0,24221,60.365,0,-3.0306,-0.13563,-0.00026491,0.032724,1
24169,54.3,20.113,0,0.0089824,0,24221,60.244,0,-3.0306,-0.13563,-0.00026491,0.032732,1
24169,54.3,20.113,0,0.0089824,0,24221,60.244,0,-3.0306,-0.13563,-0.00026491,0.032732,1
24169,54.3,20.113,0,0.0089824,0,24221,60.244,0,-3.0306,-0.13563,-0.00026491,0.032732,1
24169,54.3,20.113,0,0.0089824,0,24221,60.244,0,-3.0306,-0.13563,-0.00026491,0.032732,1
24172,54.3,20.114,0,0.0085047,0,24221,60.183,0,-3.0306,-0.13563,-0.00026491,0.034316,1
24172,54.3,20.114,0,0.0084255,0,24221,60.183,0,-3.0306,-0.13563,-0.00026491,0.034594,1
24172,54.3,20.114,0,0.0084255,0,24221,60.183,0,-3.0306,-0.13563,-0.00026491,0.034594,1
24172,54.3,20.114,0,0.0084255,0,24221,59.698,0.016276,-3.0306,0.13563,0,0.03466,1
24174,54.3,20.115,0,0.008026,0,24221,59.637,0,-3.0306,-0.13563,0,0.036103,1
24174,54.3,20.115,0,0.008026,0,24221,59.637,0,-3.0306,-0.13563,0,0.036103,1
24174,54.3,20.115,0,0.008026,0,24221,59.637,0,-3.0306,-0.13563,0,0.036103,1
24174,54.3,20.115,0,0.008026,0,24221,59.637,0,-3.0306,-0.13563,0,0.036103,1
24174,54.3,20.115,0,0.008026,0,24221,59.637,0,-3.0306,-0.13563,0,0.036103,1
24174,54.3,20.115,0,0.008026,0,24221,59.637,0,-3.0306,-0.13563,0,0.036103,1
24174,54.3,20.115,0,0.008026,0,24221,59.637,0,-3.0306,-0.13563,0,0.036103,1
24174,54.3,20.115,0,0.008026,0,24221,59.637,0,-3.0306,-0.13563,0,0.036103,1
24174,54.3,20.115,0,0.0079466,0,24221,59.637,0,-3.0306,-0.13563,0,0.036411,1
24174,54.3,20.115,0,0.0079466,0,24221,59.637,0,-3.0306,-0.13563,0,0.036411,1
24174,54.3,20.115,0,0.0079466,0,24221,59.637,0,-3.0306,-0.13563,0,0.036411,1
24175,54.3,20.115,0,0.0078662,0,24221,59.637,0,-3.0306,-0.13563,0,0.036724,1
24175,54.3,20.115,0,0.0078662,0,24221,59.637,0,-3.0306,-0.13563,0,0.036724,1
24175,54.3,20.115,0,0.0078662,0,24221,59.637,0,-3.0306,-0.13563,0,0.036724,1
24175,54.3,20.115,0,0.0078662,0,24221,59.637,0,-3.0306,-0.13563,0,0.036724,1
24175,54.3,20.115,0,0.0078662,0,24221,59.637,0,-3.0306,-0.13563,0,0.036724,1
24175,54.3,20.115,0,0.0078662,0,24221,59.637,0,-3.0306,-0.13563,0,0.036724,1
24175,54.3,20.115,0,0.0078662,0,24221,59.637,0,-3.0306,-0.13563,0,0.036724,1
24176,54.3,20.116,0,0.0075461,0,24221,59.395,0,-3.0306,-0.13563,0,0.038058,1
24176,54.3,20.116,0,0.0075461,0,24221,59.395,0,-3.0306,-0.13563,0,0.038058,1
24176,54.3,20.116,0,0.0075461,0,24221,59.395,0,-3.0306,-0.13563,0,0.038058,1
24177,54.3,20.116,0,0.0074665,0,24221,59.395,0,-3.0306,-0.13563,0,0.0384,1
24177,54.3,20.116,0,0.0073859,0,24221,59.395,0,-3.0306,-0.13563,0,0.038749,1
24177,54.3,20.116,0,0.0073859,0,24221,58.91,0,-3.0305,-0.13563,0.00026491,0.038794,1
24177,54.3,20.116,0,0.0073859,0,24221,58.91,0,-3.0305,-0.13563,0.00026491,0.038794,1
24177,54.3,20.116,0,0.0073859,0,24221,58.91,0,-3.0305,-0.13563,0.00026491,0.038794,1
24177,54.3,20.116,0,0.0073859,0,24221,58.91,0,-3.0305,-0.13563,0.00026491,0.038794,1
24177,54.3,20.116,0,0.0073859,0,24221,58.91,0,-3.0305,-0.13563,0.00026491,0.038794,1
24177,54.3,20.116,0,0.0073859,0,24221,58.91,0,-3.0305,-0.13563,0.00026491,0.038794,1
24177,54.3,20.116,0,0.0073859,0,24221,58.91,0,-3.0305,-0.13563,0.00026491,0.038794,1
24177,54.3,20.116,0,0.0073859,0,24221,58.91,0,-3.0305,-0.13563,0.00026491,0.038794,1
24179,54.3,20.117,0,0.0070651,0,24221,58.91,0,-3.0305,-0.13563,0.00026491,0.04026,1
24179,54.3,20.117,0,0.0070651,0,24221,58.91,0,-3.0305,-0.13563,0.00026491,0.04026,1
24179,54.3,20.117,0,0.0069853,0,24221,58.91,0,-3.0305,-0.13563,0.00026491,0.040644,1
24179,54.3,20.117,0,0.0069853,0,24221,58.91,0,-3.0305,-0.13563,0.00026491,0.040644,1
24179,54.3,20.117,0,0.0069853,0,24221,58.91,0,-3.0305,-0.13563,0.00026491,0.040644,1
24179,54.3,20.117,0,0.0069853,0,24221,58.91,0,-3.0305,-0.13563,0.00026491,0.040644,1
24179,54.3,20.117,0,0.0069853,0,24221,58.91,0,-3.0305,-0.13563,0.00026491,0.040644,1
24179,54.3,20.117,0,0.0069853,0,24221,58.91,0,-3.0305,-0.13563,0.00026491,0.040644,1
24179,54.3,20.117,0,0.0069853,0,24221,58.91,0,-3.0305,-0.13563,0.00026491,0.040644,1
24181,54.3,20.117,0,0.0066631,0,24221,58.728,0,-3.0305,-0.13563,0.00026491,0.042276,1
24181,54.3,20.117,0,0.0066631,0,24221,58.728,0,-3.0305,-0.13563,0.00026491,0.042276,1
24181,54.3,20.117,0,0.006583,0,24221,58.728,0,-3.0305,-0.13563,0.00026491,0.0427,1
24182,54.3,20.117,0,0.006503,0,24221,58.728,0,-3.0305,-0.13563,0.00026491,0.043132,1
24183,54.3,20.118,0,0.0062616,0,24221,58.304,0.016276,-3.0306,0.13563,-0.00026491,0.044569,1
24183,54.3,20.118,0,0.0062616,0,24221,58.304,0.016276,-3.0306,0.13563,-0.00026491,0.044569,1
24183,54.3,20.118,0,0.0062616,0,24221,58.304,0.016276,-3.0306,0.13563,-0.00026491,0.044569,1
24183,54.3,20.118,0,0.0062616,0,24221,58.304,0.016276,-3.0306,0.13563,-0.00026491,0.044569,1
24183,54.3,20.118,0,0.0061811,0,24221,58.304,0.016276,-3.0306,0.13563,-0.00026491,0.04504,1
24183,54.3,20.118,0,0.0061811,0,24221,58.304,0.016276,-3.0306,0.13563,-0.00026491,0.04504,1
24183,54.3,20.118,0,0.0061811,0,24221,58.304,0.016276,-3.0306,0.13563,-0.00026491,0.04504,1
24183,54.3,20.118,0,0.0061811,0,24221,58.304,0.016276,-3.0306,0.13563,-0.00026491,0.04504,1
24183,54.3,20.118,0,0.0061811,0,24221,58.304,0.016276,-3.0306,0.13563,-0.00026491,0.04504,1
24183,54.3,20.118,0,0.0061811,0,24221,58.304,0.016276,-3.0306,0.13563,-0.00026491,0.04504,1
24183,54.3,20.118,0,0.0061811,0,24221,58.304,0.016276,-3.0306,0.13563,-0.00026491,0.04504,1
24184,54.3,20.118,0,0.0061008,0,24221,58.304,0.016276,-3.0306,0.13563,-0.00026491,0.04552,1
24184,54.3,20.118,0,0.0061008,0,24221,58.304,0.016276,-3.0306,0.13563,-0.00026491,0.04552,1
24184,54.3,20.118,0,0.0061008,0,24221,58.304,0.016276,-3.0306,0.13563,-0.00026491,0.04552,1
24184,54.3,20.118,0,0.0061008,0,24221,58.304,0.016276,-3.0306,0.13563,-0.00026491,0.04552,1
24184,54.3,20.118,0,0.0061008,0,24221,58.304,0.016276,-3.0306,0.13563,-0.00026491,0.04552,1
24184,54.3,20.118,0,0.0061008,0,24221,58.304,0.016276,-3.0306,0.13563,-0.00026491,0.04552,1
24184,54.3,20.118,0,0.0061008,0,24221,58.304,0.016276,-3.0306,0.13563,-0.00026491,0.04552,1
24184,54.3,20.118,0,0.0061008,0,24221,58.304,0.016276,-3.0306,0.13563,-0.00026491,0.04552,1
24184,54.3,20.118,0,0.0061008,0,24221,58.304,0.016276,-3.0306,0.13563,-0.00026491,0.04552,1
24184,54.3,20.118,0,0.0061008,0,24221,58.001,0,-3.0306,-0.13563,0,0.045521,1
24186,54.3,20.119,0,0.005698,0,24221,57.94,0,-3.0306,-0.13563,0,0.0481,1
24186,54.3,20.119,0,0.005698,0,24221,57.94,0,-3.0306,-0.13563,0,0.0481,1
24186,54.3,20.119,0,0.005698,0,24221,57.94,0,-3.0306,-0.13563,0,0.0481,1
24186,54.3,20.119,0,0.0056174,0,24221,57.94,0,-3.0306,-0.13563,0,0.048649,1
24186,54.3,20.119,0,0.0056174,0,24221,57.516,0,-3.0306,0,0,0.048704,1
24186,54.3,20.119,0,0.0056174,0,24221,57.516,0,-3.0306,0,0,0.048704,1
24186,54.3,20.119,0,0.0056174,0,24221,57.516,0,-3.0306,0,0,0.048704,1
24186,54.3,20.119,0,0.0056174,0,24221,57.516,0,-3.0306,0,0,0.048704,1
24186,54.3,20.119,0,0.0056174,0,24221,57.516,0,-3.0306,0,0,0.048704,1
24186,54.3,20.119,0,0.0056174,0,24221,57.516,0,-3.0306,0,0,0.048704,1
24186,54.3,20.119,0,0.0056174,0,24221,57.516,0,-3.0306,0,0,0.048704,1
24186,54.3,20.119,0,0.0056174,0,24221,57.516,0,-3.0306,0,0,0.048704,1
24186,54.3,20.119,0,0.0056174,0,24221,57.516,0,-3.0306,0,0,0.048704,1
24188,54.3,20.119,0,0.0052148,0,24221,57.516,0,-3.0306,0,0,0.05166,1
24189,54.3,20.119,0,0.005134,0,24221,57.516,0,-3.0306,0,0,0.052294,1
24189,54.3,20.119,0,0.005134,0,24221,57.516,0,-3.0306,0,0,0.052294,1
24189,54.3,20.119,0,0.005134,0,24221,57.516,0,-3.0306,0,0,0.052294,1
24189,54.3,20.119,0,0.005134,0,24221,57.516,0,-3.0306,0,0,0.052294,1
24189,54.3,20.119,0,0.005134,0,24221,57.516,0,-3.0306,0,0,0.052294,1
24189,54.3,20.119,0,0.005134,0,24221,57.516,0,-3.0306,0,0,0.052294,1
24189,54.3,20.119,0,0.005134,0,24221,57.516,0,-3.0306,0,0,0.052294,1
24190,54.3,20.12,0,0.0048927,0,24221,57.334,0.016276,-3.0305,0.13563,0.00026491,0.05437,1
24190,54.3,20.12,0,0.0048927,0,24221,57.092,0,-3.0306,-0.13563,-0.00026491,0.054365,1
24190,54.3,20.12,0,0.0048927,0,24221,57.092,0,-3.0306,-0.13563,-0.00026491,0.054365,1
24190,54.3,20.12,0,0.0048927,0,24221,57.092,0,-3.0306,-0.13563,-0.00026491,0.054365,1
24190,54.3,20.12,0,0.0048927,0,24221,57.092,0,-3.0306,-0.13563,-0.00026491,0.054365,1
24190,54.3,20.12,0,0.0048927,0,24221,57.092,0,-3.0306,-0.13563,-0.00026491,0.054365,1
24190,54.3,20.12,0,0.0048927,0,24221,57.092,0,-3.0306,-0.13563,-0.00026491,0.054365,1
24190,54.3,20.12,0,0.0048927,0,24221,57.092,0,-3.0306,-0.13563,-0.00026491,0.054365,1
24191,54.3,20.12,0,0.0046495,0,24221,57.092,0,-3.0306,-0.13563,-0.00026491,0.056532,1
24192,54.3,20.12,0,0.0044076,0,24221,56.91,0,-3.0306,-0.13563,-0.00026491,0.058908,1
24192,54.3,20.12,0,0.0044076,0,24221,56.91,0,-3.0306,-0.13563,-0.00026491,0.058908,1
24192,54.3,20.12,0,0.0044076,0,24221,56.91,0,-3.0306,-0.13563,-0.00026491,0.058908,1
24192,54.3,20.12,0,0.0044076,0,24221,56.91,0,-3.0306,-0.13563,-0.00026491,0.058908,1
24192,54.3,20.12,0,0.0044076,0,24221,56.91,0,-3.0306,-0.13563,-0.00026491,0.058908,1
24192,54.3,20.12,0,0.0044076,0,24221,56.91,0,-3.0306,-0.13563,-0.00026491,0.058908,1
24193,54.3,20.121,0,0.0041649,0,24221,56.789,0,-3.0306,-0.13563,-0.00026491,0.061486,1
24193,54.3,20.121,0,0.0041649,0,24221,56.607,0.016276,-3.0306,0.13563,0,0.06157,1
24193,54.3,20.121,0,0.0041649,0,24221,56.607,0.016276,-3.0306,0.13563,0,0.06157,1
24193,54.3,20.121,0,0.0041649,0,24221,56.607,0.016276,-3.0306,0.13563,0,0.06157,1
24193,54.3,20.121,0,0.0041649,0,24221,56.607,0.016276,-3.0306,0.13563,0,0.06157,1
24193,54.3,20.121,0,0.0041649,0,24221,56.607,0.016276,-3.0306,0.13563,0,0.06157,1
24193,54.3,20.121,0,0.0041649,0,24221,56.607,0.016276,-3.0306,0.13563,0,0.06157,1
24193,54.3,20.121,0,0.0041649,0,24221,56.607,0.016276,-3.0306,0.13563,0,0.06157,1
24194,54.3,20.121,0,0.0040031,0,24221,56.607,0.016276,-3.0306,0.13563,0,0.063405,1
24194,54.3,20.121,0,0.0040031,0,24221,56.607,0.016276,-3.0306,0.13563,0,0.063405,1
24194,54.3,20.121,0,0.0040031,0,24221,56.425,0.016276,-3.0306,0.13563,0,0.06344,1
24194,54.3,20.121,0,0.0040031,0,24221,56.425,0.016276,-3.0306,0.13563,0,0.06344,1
24194,54.3,20.121,0,0.0040031,0,24221,56.425,0.016276,-3.0306,0.13563,0,0.06344,1
24194,54.3,20.121,0,0.0040031,0,24221,56.364,0,-3.0306,-0.13563,0,0.0634,1
24194,54.3,20.121,0,0.0040031,0,24221,56.364,0,-3.0306,-0.13563,0,0.0634,1
24194,54.3,20.121,0,0.0040031,0,24221,56.304,0,-3.0306,-0.13563,0,0.063411,1
24197,54.3,20.121,0,0.0035169,0,24221,56.304,0,-3.0306,-0.13563,0,0.069646,1
24197,54.3,20.121,0,0.0035169,0,24221,56.304,0,-3.0306,-0.13563,0,0.069646,1
24197,54.3,20.121,0,0.0035169,0,24221,56.122,0,-3.0306,-0.13563,0,0.069686,1
24197,54.3,20.121,0,0.0035169,0,24221,56.001,0.016276,-3.0305,0.13563,0.00026491,0.069762,1
24197,54.3,20.121,0,0.0035169,0,24221,56.001,0.016276,-3.0305,0.13563,0.00026491,0.069762,1
24198,54.3,20.121,0,0.0031933,0,24221,56.001,0.016276,-3.0305,0.13563,0.00026491,0.074663,1
24198,54.3,20.121,0,0.0031933,0,24221,56.001,0.016276,-3.0305,0.13563,0.00026491,0.074663,1
24198,54.3,20.121,0,0.0031933,0,24221,56.001,0.016276,-3.0305,0.13563,0.00026491,0.074663,1
24198,54.3,20.121,0,0.0031933,0,24221,56.001,0.016276,-3.0305,0.13563,0.00026491,0.074663,1
24198,54.3,20.121,0,0.0031933,0,24221,55.88,0.016276,-3.0305,0.13563,0.00026491,0.074692,1
24198,54.3,20.121,0,0.0031933,0,24221,55.819,0.016276,-3.0305,0.13563,0.00026491,0.074705,1
24198,54.3,20.121,0,0.0031933,0,24221,55.819,0.016276,-3.0305,0.13563,0.00026491,0.074705,1
24198,54.3,20.121,0,0.0031933,0,24221,55.758,0.016276,-3.0305,0.13563,0.00026491,0.074718,1
24198,54.3,20.121,0,0.0031933,0,24221,55.758,0.016276,-3.0305,0.13563,0.00026491,0.074718,1
24198,54.3,20.121,0,0.0031933,0,24221,55.758,0.016276,-3.0305,0.13563,0.00026491,0.074718,1
24200,54.3,20.122,0,0.0027881,0,24221,55.698,0.016276,-3.0305,0.13563,0.00026491,0.081936,1
24200,54.3,20.122,0,0.0027881,0,24221,55.698,0.016276,-3.0305,0.13563,0.00026491,0.081936,1
24200,54.3,20.122,0,0.0027881,0,24221,55.698,0.016276,-3.0305,0.13563,0.00026491,0.081936,1
24200,54.3,20.122,0,0.0027881,0,24221,55.698,0.016276,-3.0305,0.13563,0.00026491,0.081936,1
24200,54.3,20.122,0,0.0027881,0,24221,55.698,0.016276,-3.0305,0.13563,0.00026491,0.081936,1
24200,54.3,20.122,0,0.0027881,0,24221,55.698,0.016276,-3.0305,0.13563,0.00026491,0.081936,1
24200,54.3,20.122,0,0.0027881,0,24221,55.698,0.016276,-3.0305,0.13563,0.00026491,0.081936,1
24200,54.3,20.122,0,0.0027881,0,24221,55.577,0,-3.0306,-0.13563,-0.00026491,0.0819,1
24200,54.3,20.122,0,0.0027881,0,24221,55.577,0,-3.0306,-0.13563,-0.00026491,0.0819,1
24200,54.3,20.122,0,0.0027881,0,24221,55.577,0,-3.0306,-0.13563,-0.00026491,0.0819,1
24201,54.3,20.022,0,-10,0,24221,55.516,0,-3.0306,-0.13563,-0.00026491,0.086945,1
24201,54.3,20.022,0,-10,0,24221,55.516,0,-3.0306,-0.13563,-0.00026491,0.086945,1
24201,54.3,20.022,0,-10,0,24221,55.516,0,-3.0306,-0.13563,-0.00026491,0.086945,1
24201,54.3,20.022,0,-10,0,24221,55.516,0,-3.0306,-0.13563,-0.00026491,0.086945,1
24202,54.3,19.822,0,-10,0,24221,55.516,0,-3.0306,-0.13563,-0.00026491,0.088745,1
24202,54.3,19.822,0,-10,0,24221,55.273,0.016276,-3.0306,0.13563,0,0.088872,1
24203,54.3,19.222,0,-10,0,24221,55.273,0.016276,-3.0306,0.13563,0,0.094638,1
24203,54.3,19.222,0,-10,0,24221,55.152,0.016276,-3.0306,0.13563,0,0.09467,1
24203,54.3,19.222,0,-10,0,24221,55.152,0.016276,-3.0306,0.13563,0,0.09467,1
24203,54.3,19.222,0,-10,0,24221,55.152,0.016276,-3.0306,0.13563,0,0.09467,1
24203,54.3,19.222,0,-10,0,24221,55.152,0.016276,-3.0306,0.13563,0,0.09467,1
24204,54.3,18.822,0,-10,0,24221,55.152,0.016276,-3.0306,0.13563,0,0.098837,1
24204,54.3,18.822,0,-10,0,24221,55.152,0.016276,-3.0306,0.13563,0,0.098837,1
24204,54.3,18.822,0,-10,0,24221,55.031,0.016276,-3.0306,0.13563,0,0.098869,1
24204,54.3,18.822,0,-10,0,24221,54.97,0.016276,-3.0306,0.13563,0,0.098883,1
24204,54.3,18.822,0,-10,0,24221,54.97,0.016276,-3.0306,0.13563,0,0.098883,1
24204,54.3,18.822,0,-10,0,24221,54.97,0.016276,-3.0306,0.13563,0,0.098883,1
24204,54.3,18.822,0,-10,0,24221,54.97,0.016276,-3.0306,0.13563,0,0.098883,1
24204,54.3,18.822,0,-10,0,24221,54.97,0.016276,-3.0306,0.13563,0,0.098883,1
24205,54.3,18.222,0,-10,0,24221,54.97,0.016276,-3.0306,0.13563,0,0.10568,1
24205,54.3,18.222,0,-10,0,24221,54.97,0.016276,-3.0306,0.13563,0,0.10568,1
24206,54.3,17.822,0,-10,0,24221,54.849,0,-3.0306,-0.13563,0,0.11056,1
24206,54.3,17.822,0,-10,0,24221,54.849,0,-3.0306,-0.13563,0,0.11056,1
24206,54.3,17.822,0,-10,0,24221,54.728,0,-3.0306,-0.13563,0,0.11059,1
24206,54.3,17.822,0,-10,0,24221,54.728,0,-3.0306,-0.13563,0,0.11059,1
24206,54.3,17.822,0,-10,0,24221,54.667,0,-3.0306,-0.13563,0,0.1106,1
24207,54.3,17.222,0,-10,0,24221,54.667,0,-3.0306,-0.13563,0,0.11869,1
24207,54.3,17.222,0,-10,0,24221,54.546,0,-3.0305,0,0.00026491,0.11871,1
24207,54.3,17.222,0,-10,0,24221,54.546,0,-3.0305,0,0.00026491,0.11871,1
24207,54.3,16.822,0,-10,0,24221,54.546,0,-3.0305,0,0.00026491,0.12462,1
24207,54.3,16.822,0,-10,0,24221,54.546,0,-3.0305,0,0.00026491,0.12462,1
24207,54.3,16.822,0,-10,0,24221,54.425,0,-3.0305,0,0.00026491,0.12462,1
24207,54.3,16.822,0,-10,0,24221,54.425,0,-3.0305,0,0.00026491,0.12462,1
24207,54.3,16.822,0,-10,0,24221,54.364,0,-3.0305,0,0.00026491,0.12462,1
24207,54.3,16.822,0,-10,0,24221,54.364,0,-3.0305,0,0.00026491,0.12462,1
24207,54.3,16.822,0,-10,0,24221,54.304,0,-3.0305,0,0.00026491,0.12462,1
24207,54.3,16.822,0,-10,0,24221,54.304,0,-3.0305,0,0.00026491,0.12462,1
24207,54.3,16.822,0,-10,0,24221,54.304,0,-3.0305,0,0.00026491,0.12462,1
24207,54.3,16.822,0,-10,0,24221,54.304,0,-3.0305,0,0.00026491,0.12462,1
24207,54.3,16.822,0,-10,0,24221,54.243,0,-3.0305,0,0.00026491,0.12462,1
24207,54.3,16.822,0,-10,0,24221,54.243,0,-3.0305,0,0.00026491,0.12462,1
24207,54.3,16.822,0,-10,0,24221,54.243,0,-3.0305,0,0.00026491,0.12462,1
24207,54.3,16.822,0,-10,0,24221,54.182,0.016276,-3.0306,0.13563,-0.00026491,0.12472,1
24207,54.3,16.822,0,-10,0,24221,54.182,0.016276,-3.0306,0.13563,-0.00026491,0.12472,1
24207,54.3,16.822,0,-10,0,24221,54.182,0.016276,-3.0306,0.13563,-0.00026491,0.12472,1
24209,54.3,15.622,0,-10,0,24221,54.182,0.016276,-3.0306,0.13563,-0.00026491,0.14541,1
24210,54.3,15.222,0,-10,0,24221,54.061,0.016276,-3.0306,0.13563,-0.00026491,0.15345,1
24210,54.3,15.222,0,-10,0,24221,54.061,0.016276,-3.0306,0.13563,-0.00026491,0.15345,1
24210,54.3,14.822,0,-10,0,24221,53.94,0.016276,-3.0306,0.13563,-0.00026491,0.16216,1
24210,54.3,14.822,0,-10,0,24221,53.819,0,-3.0306,-0.13563,0,0.16195,1
24210,54.3,14.822,0,-10,0,24221,53.819,0,-3.0306,-0.13563,0,0.16195,1
24210,54.3,14.822,0,-10,0,24221,53.758,0,-3.0306,-0.13563,0,0.16191,1
24210,54.3,14.822,0,-10,0,24221,53.758,0,-3.0306,-0.13563,0,0.16191,1
24210,54.3,14.822,0,-10,0,24221,53.758,0,-3.0306,-0.13563,0,0.16191,1
24210,54.3,14.822,0,-10,0,24221,53.758,0,-3.0306,-0.13563,0,0.16191,1
24210,54.3,14.822,0,-10,0,24221,53.758,0,-3.0306,-0.13563,0,0.16191,1
24210,54.3,14.822,0,-10,0,24221,53.758,0,-3.0306,-0.13563,0,0.16191,1
24210,54.3,14.822,0,-10,0,24221,53.758,0,-3.0306,-0.13563,0,0.16191,1
24211,54.3,14.222,0,-10,0,24221,53.758,0,-3.0306,-0.13563,0,0.17649,1
24211,54.3,14.222,0,-10,0,24221,53.758,0,-3.0306,-0.13563,0,0.17649,1
24211,54.3,14.222,0,-10,0,24221,53.758,0,-3.0306,-0.13563,0,0.17649,1
24211,54.3,14.222,0,-10,0,24221,53.758,0,-3.0306,-0.13563,0,0.17649,1
24211,54.3,14.222,0,-10,0,24221,53.758,0,-3.0306,-0.13563,0,0.17649,1
24211,54.3,14.222,0,-10,0,24221,53.758,0,-3.0306,-0.13563,0,0.17649,1
24211,54.3,14.222,0,-10,0,24221,53.758,0,-3.0306,-0.13563,0,0.17649,1
24211,54.3,14.222,0,-10,0,24221,53.758,0,-3.0306,-0.13563,0,0.17649,1
24211,54.3,14.222,0,-10,0,24221,53.758,0,-3.0306,-0.13563,0,0.17649,1
24211,54.3,14.222,0,-10,0,24221,53.758,0,-3.0306,-0.13563,0,0.17649,1
24211,54.3,14.222,0,-10,0,24221,53.637,0,-3.0306,-0.13563,0,0.17632,1
24211,54.3,14.222,0,-10,0,24221,53.637,0,-3.0306,-0.13563,0,0.17632,1
24211,54.3,14.222,0,-10,0,24221,53.637,0,-3.0306,-0.13563,0,0.17632,1
24211,54.3,14.222,0,-10,0,24221,53.637,0,-3.0306,-0.13563,0,0.17632,1
24211,54.3,14.222,0,-10,0,24221,53.576,0,-3.0306,-0.13563,0,0.17624,1
24213,54.3,13.222,0,-10,0,24221,53.576,0,-3.0306,-0.13563,0,0.20525,1
24213,54.3,12.622,0,-10,0,24221,53.576,0,-3.0306,-0.13563,0,0.22628,1
24213,54.3,12.622,0,-10,0,24221,53.091,0,-3.0305,-0.13563,0.00026491,0.22444,1
24213,54.3,12.622,0,-10,0,24221,53.091,0,-3.0305,-0.13563,0.00026491,0.22444,1
24213,54.3,12.622,0,-10,0,24221,52.97,0,-3.0305,-0.13563,0.00026491,0.22384,1
24213,54.3,12.622,0,-10,0,24221,52.97,0,-3.0305,-0.13563,0.00026491,0.22384,1
24213,54.3,12.622,0,-10,0,24221,52.97,0,-3.0305,-0.13563,0.00026491,0.22384,1
24213,54.3,12.622,0,-10,0,24221,52.97,0,-3.0305,-0.13563,0.00026491,0.22384,1
24213,54.3,12.622,0,-10,0,24221,52.97,0,-3.0305,-0.13563,0.00026491,0.22384,1
24213,54.3,12.622,0,-10,0,24221,52.97,0,-3.0305,-0.13563,0.00026491,0.22384,1
24215,54.3,11.622,0,-10,0,24221,52.97,0,-3.0305,-0.13563,0.00026491,0.2653,1
24215,54.3,11.622,0,-10,0,24221,52.97,0,-3.0305,-0.13563,0.00026491,0.2653,1
24215,54.3,11.622,0,-10,0,24221,52.97,0,-3.0305,-0.13563,0.00026491,0.2653,1
24215,54.3,11.622,0,-10,0,24221,52.97,0,-3.0305,-0.13563,0.00026491,0.2653,1
24215,54.3,11.622,0,-10,0,24221,52.97,0,-3.0305,-0.13563,0.00026491,0.2653,1
24215,54.3,11.622,0,-10,0,24221,52.97,0,-3.0305,-0.13563,0.00026491,0.2653,1
24215,54.3,11.622,0,-10,0,24221,52.97,0,-3.0305,-0.13563,0.00026491,0.2653,1
24215,54.3,11.552,0,3.0568,0,24221,52.97,0,-3.0305,-0.13563,0.00026491,0.27497,1
24215,54.3,11.552,0,3.0568,0,24221,52.97,0,-3.0305,-0.13563,0.00026491,0.27497,1
24215,54.3,11.552,0,3.0568,0,24221,52.97,0,-3.0305,-0.13563,0.00026491,0.27497,1
24215,54.3,11.552,0,3.0568,0,24221,52.97,0,-3.0305,-0.13563,0.00026491,0.27497,1
24215,54.3,11.552,0,3.0568,0,24221,52.97,0,-3.0305,-0.13563,0.00026491,0.27497,1
24215,54.3,11.552,0,3.0568,0,24221,52.97,0,-3.0305,-0.13563,0.00026491,0.27497,1
24215,54.3,11.552,0,3.0568,0,24221,52.97,0,-3.0305,-0.13563,0.00026491,0.27497,1
24215,54.3,11.614,0,3.0884,0,24221,52.97,0,-3.0305,-0.13563,0.00026491,0.28537,1
24215,54.3,11.614,0,3.0884,0,24221,52.97,0,-3.0305,-0.13563,0.00026491,0.28537,1
24215,54.3,11.614,0,3.0884,0,24221,52.667,0.016276,-3.0306,0.13563,-0.00026491,0.28198,1
24216,54.3,11.799,0,3.0801,0,24221,52.667,0.016276,-3.0306,0.13563,-0.00026491,0.31727,1
24216,54.3,11.799,0,3.0801,0,24221,52.667,0.016276,-3.0306,0.13563,-0.00026491,0.31727,1
24217,54.3,12.044,0,3.0403,0,24221,52.425,0.016276,-3.0306,0.13563,-0.00026491,0.37314,1
24217,54.3,12.044,0,3.0403,0,24221,52.243,0,-3.0306,-0.13563,0,0.36664,1
24218,54.3,12.226,0,3.0093,0,24221,52.243,0,-3.0306,-0.13563,0,0.42516,1
24218,54.3,12.226,0,3.0093,0,24221,52.122,0,-3.0306,-0.13563,0,0.41853,1
24218,54.3,12.226,0,3.0093,0,24221,52.122,0,-3.0306,-0.13563,0,0.41853,1
24218,54.3,12.226,0,3.0093,0,24221,52.061,0,-3.0306,-0.13563,0,0.4152,1
24218,54.3,12.226,0,3.0093,0,24221,52.061,0,-3.0306,-0.13563,0,0.4152,1
24218,54.3,12.226,0,3.0093,0,24221,52.061,0,-3.0306,-0.13563,0,0.4152,1
24218,54.3,12.226,0,3.0093,0,24221,52.061,0,-3.0306,-0.13563,0,0.4152,1
24218,54.3,12.226,0,3.0093,0,24221,52.061,0,-3.0306,-0.13563,0,0.4152,1
24218,54.3,12.226,0,3.0093,0,24221,52.061,0,-3.0306,-0.13563,0,0.4152,1
24218,54.3,12.226,0,3.0093,0,24221,52.061,0,-3.0306,-0.13563,0,0.4152,1
24218,54.3,12.226,0,3.0093,0,24221,52.061,0,-3.0306,-0.13563,0,0.4152,1
24218,54.3,12.226,0,3.0093,0,24221,52.061,0,-3.0306,-0.13563,0,0.4152,1
24218,54.3,12.405,0,2.9772,0,24221,52.061,0,-3.0306,-0.13563,0,0.48572,1
24218,54.3,12.405,0,2.9772,0,24221,52.061,0,-3.0306,-0.13563,0,0.48572,1
24218,54.3,12.405,0,2.9772,0,24221,52.061,0,-3.0306,-0.13563,0,0.48572,1
24218,54.3,12.405,0,2.9772,0,24221,52.061,0,-3.0306,-0.13563,0,0.48572,1
24218,54.3,12.405,0,2.9772,0,24221,52.061,0,-3.0306,-0.13563,0,0.48572,1
24218,54.3,12.405,0,2.9772,0,24221,52.061,0,-3.0306,-0.13563,0,0.48572,1
24218,54.3,12.405,0,2.9772,0,24221,52.061,0,-3.0306,-0.13563,0,0.48572,1
24219,54.3,12.465,0,2.9662,0,24221,52.061,0,-3.0306,-0.13563,0,0.51317,1
24219,54.3,12.465,0,2.9662,0,24221,52.061,0,-3.0306,-0.13563,0,0.51317,1
24219,54.3,12.465,0,2.9662,0,24221,52.061,0,-3.0306,-0.13563,0,0.51317,1
24220,54.3,12.7,0,2.9213,0,24221,51.879,0.016276,-3.0306,0.13563,0,0.60446,1
24220,54.3,12.817,0,2.8982,0,24221,51.637,0,-3.0305,-0.13563,0.00026491,0.60372,1
24221,54.3,12.989,0,2.8626,0,24221,51.455,0,-3.0305,-0.13563,0.00026491,0.59828,1
24221,54.3,12.989,0,2.8626,0,24221,51.455,0,-3.0305,-0.13563,0.00026491,0.59828,1
24221,54.3,12.989,0,2.8626,0,24221,51.334,0,-3.0305,-0.13563,0.00026491,0.57391,1
24221,54.3,12.989,0,2.8626,0,24221,51.334,0,-3.0305,-0.13563,0.00026491,0.57391,1
24221,54.3,12.989,0,2.8626,0,24221,51.334,0,-3.0305,-0.13563,0.00026491,0.57391,1
24221,54.3,12.989,0,2.8626,0,24221,51.334,0,-3.0305,-0.13563,0.00026491,0.57391,1
24221,54.3,12.989,0,2.8626,0,24221,51.334,0,-3.0305,-0.13563,0.00026491,0.57391,1
24221,54.3,12.989,0,2.8626,0,24221,51.334,0,-3.0305,-0.13563,0.00026491,0.57391,1
24221,54.3,12.989,0,2.8626,0,24221,51.334,0,-3.0305,-0.13563,0.00026491,0.57391,1
24221,54.3,12.989,0,2.8626,0,24221,51.334,0,-3.0305,-0.13563,0.00026491,0.57391,1
24221,54.3,13.103,0,2.8384,0,24221,51.334,0,-3.0305,-0.13563,0.00026491,0.5707,1
24221,54.3,13.103,0,2.8384,0,24221,51.334,0,-3.0305,-0.13563,0.00026491,0.5707,1
24221,54.3,13.103,0,2.8384,0,24221,51.334,0,-3.0305,-0.13563,0.00026491,0.5707,1
24221,54.3,13.103,0,2.8384,0,24221,51.334,0,-3.0305,-0.13563,0.00026491,0.5707,1
24221,54.3,13.103,0,2.8384,0,24221,51.334,0,-3.0305,-0.13563,0.00026491,0.5707,1
24221,54.3,13.103,0,2.8384,0,24221,51.334,0,-3.0305,-0.13563,0.00026491,0.5707,1
24221,54.3,13.103,0,2.8384,0,24221,51.334,0,-3.0305,-0.13563,0.00026491,0.5707,1
24221,54.3,13.103,0,2.8384,0,24221,51.334,0,-3.0305,-0.13563,0.00026491,0.5707,1
24221,54.3,13.103,0,2.8384,0,24221,51.334,0,-3.0305,-0.13563,0.00026491,0.5707,1
24221,54.3,13.103,0,2.8384,0,24221,51.334,0,-3.0305,-0.13563,0.00026491,0.5707,1
24221,54.3,13.103,0,2.8384,0,24221,51.213,0,-3.0306,0,-0.00026491,0.54859,1
24221,54.3,13.103,0,2.8384,0,24221,51.213,0,-3.0306,0,-0.00026491,0.54859,1
24221,54.3,13.103,0,2.8384,0,24221,51.213,0,-3.0306,0,-0.00026491,0.54859,1
24223,54.3,13.384,0,2.776,0,24221,51.152,0,-3.0306,0,-0.00026491,0.4779,1
24223,54.3,13.384,0,2.776,0,24221,51.152,0,-3.0306,0,-0.00026491,0.4779,1
24223,54.3,13.495,0,2.7503,0,24221,51.152,0,-3.0306,0,-0.00026491,0.44286,1
24223,54.3,13.495,0,2.7503,0,24221,50.667,0.016276,-3.0306,0.13563,0,0.40081,1
24223,54.3,13.495,0,2.7503,0,24221,50.606,0.016276,-3.0306,0.13563,0,0.39599,1
24223,54.3,13.495,0,2.7503,0,24221,50.606,0.016276,-3.0306,0.13563,0,0.39599,1
24223,54.3,13.495,0,2.7503,0,24221,50.606,0.016276,-3.0306,0.13563,0,0.39599,1
24223,54.3,13.495,0,2.7503,0,24221,50.606,0.016276,-3.0306,0.13563,0,0.39599,1
24223,54.3,13.495,0,2.7503,0,24221,50.606,0.016276,-3.0306,0.13563,0,0.39599,1
24223,54.3,13.495,0,2.7503,0,24221,50.606,0.016276,-3.0306,0.13563,0,0.39599,1
24225,54.3,13.766,0,2.6844,0,24221,50.606,0.016276,-3.0306,0.13563,0,0.33168,1
24225,54.3,13.766,0,2.6844,0,24221,50.606,0.016276,-3.0306,0.13563,0,0.33168,1
24225,54.3,13.82,0,2.6709,0,24221,50.606,0.016276,-3.0306,0.13563,0,0.31953,1
24225,54.3,13.82,0,2.6709,0,24221,50.606,0.016276,-3.0306,0.13563,0,0.31953,1
24225,54.3,13.82,0,2.6709,0,24221,50.606,0.016276,-3.0306,0.13563,0,0.31953,1
24225,54.3,13.82,0,2.6709,0,24221,50.606,0.016276,-3.0306,0.13563,0,0.31953,1
24225,54.3,13.82,0,2.6709,0,24221,50.606,0.016276,-3.0306,0.13563,0,0.31953,1
24225,54.3,13.82,0,2.6709,0,24221,50.606,0.016276,-3.0306,0.13563,0,0.31953,1
24225,54.3,13.82,0,2.6709,0,24221,50.606,0.016276,-3.0306,0.13563,0,0.31953,1
24225,54.3,13.82,0,2.6709,0,24221,50.606,0.016276,-3.0306,0.13563,0,0.31953,1
24225,54.3,13.82,0,2.6709,0,24221,50.606,0.016276,-3.0306,0.13563,0,0.31953,1
24225,54.3,13.82,0,2.6709,0,24221,50.606,0.016276,-3.0306,0.13563,0,0.31953,1
24225,54.3,13.82,0,2.6709,0,24221,50.606,0.016276,-3.0306,0.13563,0,0.31953,1
24225,54.3,13.82,0,2.6709,0,24221,50.425,0,-3.0306,-0.13563,0,0.31191,1
24226,54.3,13.979,0,2.63,0,24221,50.425,0,-3.0306,-0.13563,0,0.28028,1
24226,54.3,13.979,0,2.63,0,24221,50.425,0,-3.0306,-0.13563,0,0.28028,1
24226,54.3,13.979,0,2.63,0,24221,50.251,0,-3.0306,-0.13563,0,0.27527,1
24226,54.3,13.979,0,2.63,0,24221,50.251,0,-3.0306,-0.13563,0,0.27527,1
24226,54.3,13.979,0,2.63,0,24221,50.196,0.016276,-2.9169,0.13563,0.94732,0.27383,1
24226,54.3,13.979,0,2.63,0,24221,50.196,0.016276,-2.9169,0.13563,0.94732,0.27383,1
24228,54.3,14.34,0,2.5317,0,24221,50.196,0.016276,-2.9169,0.13563,0.94732,0.21786,1
24228,54.3,14.34,0,2.5317,0,24221,50.196,0.016276,-2.9169,0.13563,0.94732,0.21786,1
24228,54.3,14.34,0,2.5317,0,24221,50.196,0.016276,-2.9169,0.13563,0.94732,0.21786,1
24228,54.3,14.34,0,2.5317,0,24221,50.196,0.016276,-2.9169,0.13563,0.94732,0.21786,1
24228,54.3,14.34,0,2.5317,0,24221,50.196,0.016276,-2.9169,0.13563,0.94732,0.21786,1
24228,54.3,14.34,0,2.5317,0,24221,50.196,0.016276,-2.9169,0.13563,0.94732,0.21786,1
24228,54.3,14.34,0,2.5317,0,24221,49.888,0,-2.5608,-0.13563,2.967,0.21321,1
24228,54.3,14.34,0,2.5317,0,24221,49.888,0,-2.5608,-0.13563,2.967,0.21321,1
24228,54.3,14.34,0,2.5317,0,24221,49.888,0,-2.5608,-0.13563,2.967,0.21321,1
24228,54.3,14.34,0,2.5317,0,24221,49.888,0,-2.5608,-0.13563,2.967,0.21321,1
24228,54.3,14.34,0,2.5317,0,24221,49.888,0,-2.5608,-0.13563,2.967,0.21321,1
24228,54.3,14.34,0,2.5317,0,24221,49.842,0,-2.5608,-0.13563,2.967,0.21252,1
24229,54.3,14.491,0,2.4885,0,24221,49.842,0,-2.5608,-0.13563,2.967,0.19474,1
24229,54.3,14.491,0,2.4885,0,24221,49.751,0,-2.5608,-0.13563,2.967,0.19372,1
24229,54.3,14.639,0,2.4447,0,24221,49.751,0,-2.5608,-0.13563,2.967,0.17834,1
24229,54.3,14.639,0,2.4447,0,24221,49.625,0,-2.1971,0,3.0308,0.17722,1
24229,54.3,14.639,0,2.4447,0,24221,49.625,0,-2.1971,0,3.0308,0.17722,1
24230,54.3,14.784,0,2.4003,0,24221,49.625,0,-2.1971,0,3.0308,0.16392,1
24230,54.3,14.784,0,2.4003,0,24221,49.625,0,-2.1971,0,3.0308,0.16392,1
24230,54.3,14.784,0,2.4003,0,24221,49.625,0,-2.1971,0,3.0308,0.16392,1
24230,54.3,14.784,0,2.4003,0,24221,49.625,0,-2.1971,0,3.0308,0.16392,1
24230,54.3,14.784,0,2.4003,0,24221,49.625,0,-2.1971,0,3.0308,0.16392,1
24231,54.3,14.832,0,2.3854,0,24221,49.625,0,-2.1971,0,3.0308,0.15984,1
24231,54.3,14.832,0,2.3854,0,24221,49.625,0,-2.1971,0,3.0308,0.15984,1
24231,54.3,14.832,0,2.3854,0,24221,49.625,0,-2.1971,0,3.0308,0.15984,1
24231,54.3,14.832,0,2.3854,0,24221,49.625,0,-2.1971,0,3.0308,0.15984,1
24231,54.3,14.832,0,2.3854,0,24221,49.625,0,-2.1971,0,3.0308,0.15984,1
24231,54.3,14.832,0,2.3854,0,24221,49.625,0,-2.1971,0,3.0308,0.15984,1
24231,54.3,14.832,0,2.3854,0,24221,49.473,0,-2.1971,0,3.0308,0.15887,1
24231,54.3,14.927,0,2.3555,0,24221,49.473,0,-2.1971,0,3.0308,0.15133,1
24231,54.3,14.927,0,2.3555,0,24221,49.473,0,-2.1971,0,3.0308,0.15133,1
24231,54.3,14.927,0,2.3555,0,24221,49.473,0,-2.1971,0,3.0308,0.15133,1
24232,54.3,15.021,0,2.3253,0,24221,49.405,0.016276,-1.8335,0.13563,3.0306,0.14412,1
24232,54.3,15.021,0,2.3253,0,24221,49.405,0.016276,-1.8335,0.13563,3.0306,0.14412,1
24232,54.3,15.021,0,2.3253,0,24221,49.282,0.016276,-1.8335,0.13563,3.0306,0.1435,1
24233,54.3,15.204,0,2.2645,0,24221,49.282,0.016276,-1.8335,0.13563,3.0306,0.13129,1
24233,54.3,15.204,0,2.2645,0,24221,49.282,0.016276,-1.8335,0.13563,3.0306,0.13129,1
24233,54.3,15.204,0,2.2645,0,24221,49.282,0.016276,-1.8335,0.13563,3.0306,0.13129,1
24233,54.3,15.249,0,2.2493,0,24221,49.282,0.016276,-1.8335,0.13563,3.0306,0.12851,1
24233,54.3,15.249,0,2.2493,0,24221,49.282,0.016276,-1.8335,0.13563,3.0306,0.12851,1
24233,54.3,15.249,0,2.2493,0,24221,49.282,0.016276,-1.8335,0.13563,3.0306,0.12851,1
24233,54.3,15.249,0,2.2493,0,24221,49.282,0.016276,-1.8335,0.13563,3.0306,0.12851,1
24233,54.3,15.249,0,2.2493,0,24221,49.282,0.016276,-1.8335,0.13563,3.0306,0.12851,1
24233,54.3,15.249,0,2.2493,0,24221,49.282,0.016276,-1.8335,0.13563,3.0306,0.12851,1
24234,54.3,15.294,0,2.2339,0,24221,49.282,0.016276,-1.8335,0.13563,3.0306,0.12582,1
24234,54.3,15.339,0,2.2186,0,24221,49.282,0.016276,-1.8335,0.13563,3.0306,0.12323,1
24234,54.3,15.339,0,2.2186,0,24221,49.282,0.016276,-1.8335,0.13563,3.0306,0.12323,1
24234,54.3,15.339,0,2.2186,0,24221,49.157,0,-1.4698,-0.13563,3.0303,0.12273,1
24234,54.3,15.339,0,2.2186,0,24221,49.157,0,-1.4698,-0.13563,3.0303,0.12273,1
24235,54.3,15.514,0,2.1569,0,24221,49.157,0,-1.4698,-0.13563,3.0303,0.11332,1
24235,54.3,15.514,0,2.1569,0,24221,49.157,0,-0.59853,0,7.2609,0.11332,1
24235,54.3,15.514,0,2.1569,0,24221,49.157,0,-0.59853,0,7.2609,0.11332,1
24235,54.3,15.514,0,2.1569,0,24221,49.157,0,-0.59853,0,7.2609,0.11332,1
24235,54.3,15.514,0,2.1569,0,24221,49.157,0,-0.59853,0,7.2609,0.11332,1
24235,54.3,15.514,0,2.1569,0,24221,49.157,0,-0.59853,0,7.2609,0.11332,1
24235,54.3,15.514,0,2.1569,0,24221,49.157,0,-0.59853,0,7.2609,0.11332,1
24235,54.3,15.514,0,2.1569,0,24221,49.157,0,-0.59853,0,7.2609,0.11332,1
24235,54.3,15.514,0,2.1569,0,24221,49.157,0,-0.59853,0,7.2609,0.11332,1
24235,54.3,15.514,0,2.1569,0,24221,49.157,0,-0.59853,0,7.2609,0.11332,1
24235,54.3,15.514,0,2.1569,0,24221,49.157,0,-0.59853,0,7.2609,0.11332,1
24235,54.3,15.514,0,2.1569,0,24221,49.157,0,-0.59853,0,7.2609,0.11332,1
24235,54.3,15.514,0,2.1569,0,24221,49.157,0,-0.59853,0,7.2609,0.11332,1
24235,54.3,15.514,0,2.1569,0,24221,49.157,0,-0.59853,0,7.2609,0.11332,1
24235,54.3,15.514,0,2.1569,0,24221,49.157,0,-0.59853,0,7.2609,0.11332,1
24237,54.3,15.726,0,2.0794,0,24221,49.157,0,-0.59853,0,7.2609,0.10319,1
24237,54.3,15.726,0,2.0794,0,24221,49.157,0,-0.59853,0,7.2609,0.10319,1
24237,54.3,15.767,0,2.0639,0,24221,49.157,0,-0.59853,0,7.2609,0.10136,1
24237,54.3,15.767,0,2.0639,0,24221,49.157,0,0,0,4.9877,0.10136,1
24237,54.3,15.767,0,2.0639,0,24221,49.157,0,0,0,4.9877,0.10136,1
24237,54.3,15.767,0,2.0639,0,24221,49.157,0,0,0,4.9877,0.10136,1
24237,54.3,15.767,0,2.0639,0,24221,49.157,0,0,0,4.9877,0.10136,1
24237,54.3,15.767,0,2.0639,0,24221,49.157,0,0,0,4.9877,0.10136,1
24237,54.3,15.767,0,2.0639,0,24221,49.157,0,0,0,4.9877,0.10136,1
24237,54.3,15.767,0,2.0639,0,24221,49.157,0,0,0,4.9877,0.10136,1
24237,54.3,15.767,0,2.0639,0,24221,49.157,0,0,0,4.9877,0.10136,1
24237,54.3,15.767,0,2.0639,0,24221,49.157,0,0,0,4.9877,0.10136,1
24237,54.3,15.767,0,2.0639,0,24221,49.157,0,0,0,4.9877,0.10136,1
24237,54.3,15.767,0,2.0639,0,24221,49.157,0,0,0,0,0.10136,1
24237,54.3,15.767,0,2.0639,0,24221,49.157,0,0,0,0,0.10136,1
24239,54.3,16.048,0,1.9551,0,24221,49.157,0,0,0,0,0.089951,1
24239,54.3,16.048,0,1.9551,0,24221,49.157,0,0,0,0,0.089951,1
24240,54.3,16.126,0,1.9241,0,24221,49.157,0,0,0,0,0.087102,1
24240,54.3,16.164,0,1.9086,0,24221,49.157,0,0,0,0,0.085736,1
24241,54.3,16.24,0,1.8776,0,24221,49.157,0,0,0,0,0.083117,1
24241,54.3,16.24,0,1.8776,0,24221,49.157,0,0,0,0,0.083117,1
24241,54.3,16.24,0,1.8776,0,24221,49.157,0,0,0,0,0.083117,1
24241,54.3,16.24,0,1.8776,0,24221,49.157,0,0,0,0,0.083117,1
24241,54.3,16.24,0,1.8776,0,24221,49.157,0,0,0,0,0.083117,1
24241,54.3,16.24,0,1.8776,0,24221,49.157,0,0,0,0,0.083117,1
24241,54.3,16.24,0,1.8776,0,24221,49.157,0,0,0,0,0.083117,1
24241,54.3,16.24,0,1.8776,0,24221,49.157,0,0,0,0,0.083117,1
24241,54.3,16.24,0,1.8776,0,24221,49.157,0,0,0,0,0.083117,1
24241,54.3,16.24,0,1.8776,0,24221,49.157,0,0,0,0,0.083117,1
24241,54.3,16.314,0,1.8467,0,24221,49.157,0,0,0,0,0.080637,1
24241,54.3,16.314,0,1.8467,0,24221,49.157,0,0,0,0,0.080637,1
24241,54.3,16.314,0,1.8467,0,24221,49.157,0,0,0,0,0.080637,1
24241,54.3,16.314,0,1.8467,0,24221,49.157,0,0,0,0,0.080637,1
24241,54.3,16.314,0,1.8467,0,24221,49.157,0,0,0,0,0.080637,1
24241,54.3,16.314,0,1.8467,0,24221,49.157,0,0,0,0,0.080637,1
24241,54.3,16.314,0,1.8467,0,24221,49.157,0,0,0,0,0.080637,1
24241,54.3,16.314,0,1.8467,0,24221,49.157,0,0,0,0,0.080637,1
24241,54.3,16.314,0,1.8467,0,24221,49.157,0,0,0,0,0.080637,1
24241,54.3,16.314,0,1.8467,0,24221,49.157,0,0,0,0,0.080637,1
24241,54.3,16.314,0,1.8467,0,24221,49.157,0,0,0,0,0.080637,1
24241,54.3,16.314,0,1.8467,0,24221,49.157,0,0,0,0,0.080637,1
24241,54.3,16.314,0,1.8467,0,24221,49.157,0,0,0,0,0.080637,1
24243,54.3,16.495,0,1.7699,0,24221,49.157,0,0,0,0,0.074981,1
24243,54.3,16.495,0,1.7699,0,24221,49.157,0,0,0,0,0.074981,1
24244,54.3,16.6,0,1.7242,0,24221,49.157,0,0,0,0,0.071919,1
24244,54.3,16.6,0,1.7242,0,24221,49.157,0,0,0,0,0.071919,1
24245,54.3,16.702,0,1.6789,0,24221,49.157,0,0,0,0,0.069075,1
24245,54.3,16.702,0,1.6789,0,24221,49.157,0,0,0,0,0.069075,1
24245,54.3,16.702,0,1.6789,0,24221,49.157,0,0,0,0,0.069075,1
24245,54.3,16.702,0,1.6789,0,24221,49.157,0,0,0,0,0.069075,1
24245,54.3,16.702,0,1.6789,0,24221,49.157,0,0,0,0,0.069075,1
24245,54.3,16.736,0,1.6638,0,24221,49.157,0,0,0,0,0.068171,1
24245,54.3,16.736,0,1.6638,0,24221,49.157,0,0,0,0,0.068171,1
24245,54.3,16.736,0,1.6638,0,24221,49.157,0,0,0,0,0.068171,1
24245,54.3,16.736,0,1.6638,0,24221,49.157,0,0,0,0,0.068171,1
24245,54.3,16.736,0,1.6638,0,24221,49.157,0,0,0,0,0.068171,1
24245,54.3,16.736,0,1.6638,0,24221,49.157,0,0,0,0,0.068171,1
24245,54.3,16.736,0,1.6638,0,24221,49.157,0,0,0,0,0.068171,1
24245,54.3,16.736,0,1.6638,0,24221,49.157,0,0,0,0,0.068171,1
24245,54.3,16.736,0,1.6638,0,24221,49.157,0,0,0,0,0.068171,1
24245,54.3,16.736,0,1.6638,0,24221,49.157,0,0,0,0,0.068171,1
24245,54.3,16.736,0,1.6638,0,24221,49.157,0,0,0,0,0.068171,1
24245,54.3,16.736,0,1.6638,0,24221,49.157,0,0,0,0,0.068171,1
24245,54.3,16.736,0,1.6638,0,24221,49.157,0,0,0,0,0.068171,1
24245,54.3,16.736,0,1.6638,0,24221,49.157,0,0,0,0,0.068171,1
24246,54.3,16.802,0,1.6339,0,24221,49.157,0,0,0,0,0.066427,1
24246,54.3,16.802,0,1.6339,0,24221,49.157,0,0,0,0,0.066427,1
24246,54.3,16.802,0,1.6339,0,24221,49.157,0,0,0,0,0.066427,1
24248,54.3,16.961,0,1.5599,0,24221,49.157,0,0,0,0,0.062401,1
24249,54.3,17.084,0,1.5017,0,24221,49.157,0,0,0,0,0.059486,1
24249,54.3,17.084,0,1.5017,0,24221,49.157,0,0,0,0,0.059486,1
24249,54.3,17.084,0,1.5017,0,24221,49.157,0,0,0,0,0.059486,1
24249,54.3,17.084,0,1.5017,0,24221,49.157,0,0,0,0,0.059486,1
24249,54.3,17.084,0,1.5017,0,24221,49.157,0,0,0,0,0.059486,1
24249,54.3,17.084,0,1.5017,0,24221,49.157,0,0,0,0,0.059486,1
24249,54.3,17.084,0,1.5017,0,24221,49.157,0,0,0,0,0.059486,1
24249,54.3,17.084,0,1.5017,0,24221,49.157,0,0,0,0,0.059486,1
24249,54.3,17.084,0,1.5017,0,24221,49.157,0,0,0,0,0.059486,1
24249,54.3,17.084,0,1.5017,0,24221,49.157,0,0,0,0,0.059486,1
24250,54.3,17.143,0,1.473,0,24221,49.157,0,0,0,0,0.05812,1
24250,54.3,17.143,0,1.473,0,24221,49.157,0,0,0,0,0.05812,1
24250,54.3,17.143,0,1.473,0,24221,49.157,0,0,0,0,0.05812,1
24250,54.3,17.143,0,1.473,0,24221,49.157,0,0,0,0,0.05812,1
24250,54.3,17.143,0,1.473,0,24221,49.157,0,0,0,0,0.05812,1
24250,54.3,17.143,0,1.473,0,24221,49.157,0,0,0,0,0.05812,1
24250,54.3,17.143,0,1.473,0,24221,49.157,0,0,0,0,0.05812,1
24250,54.3,17.143,0,1.473,0,24221,49.157,0,0,0,0,0.05812,1
24250,54.3,17.143,0,1.473,0,24221,49.157,0,0,0,0,0.05812,1
24250,54.3,17.143,0,1.473,0,24221,49.157,0,0,0,0,0.05812,1
24250,54.3,17.143,0,1.473,0,24221,49.157,0,0,0,0,0.05812,1
24250,54.3,17.143,0,1.473,0,24221,49.157,0,0,0,0,0.05812,1
24250,54.3,17.143,0,1.473,0,24221,49.157,0,0,0,0,0.05812,1
24250,54.3,17.143,0,1.473,0,24221,49.157,0,0,0,0,0.05812,1
24250,54.3,17.143,0,1.473,0,24221,49.157,0,0,0,0,0.05812,1
24252,54.3,17.287,0,1.4023,0,24221,49.157,0,0,0,0,0.054943,1
24252,54.3,17.287,0,1.4023,0,24221,49.157,0,0,0,0,0.054943,1
24253,54.3,17.397,0,1.347,0,24221,49.157,0,0,0,0,0.052622,1
24254,54.3,17.45,0,1.3198,0,24221,49.157,0,0,0,0,0.051527,1
24254,54.3,17.45,0,1.3198,0,24221,49.157,0,0,0,0,0.051527,1
24254,54.3,17.45,0,1.3198,0,24221,49.157,0,0,0,0,0.051527,1
24254,54.3,17.45,0,1.3198,0,24221,49.157,0,0,0,0,0.051527,1
24254,54.3,17.45,0,1.3198,0,24221,49.157,0,0,0,0,0.051527,1
24255,54.3,17.528,0,1.2795,0,24221,49.157,0,0,0,0,0.049961,1
24255,54.3,17.528,0,1.2795,0,24221,49.157,0,0,0,0,0.049961,1
24255,54.3,17.528,0,1.2795,0,24221,49.157,0,0,0,0,0.049961,1
24255,54.3,17.528,0,1.2795,0,24221,49.157,0,0,0,0,0.049961,1
24255,54.3,17.554,0,1.2663,0,24221,49.157,0,0,0,0,0.049459,1
24255,54.3,17.554,0,1.2663,0,24221,49.157,0,0,0,0,0.049459,1
24255,54.3,17.554,0,1.2663,0,24221,49.157,0,0,0,0,0.049459,1
24255,54.3,17.554,0,1.2663,0,24221,49.157,0,0,0,0,0.049459,1
24255,54.3,17.554,0,1.2663,0,24221,49.157,0,0,0,0,0.049459,1
24255,54.3,17.554,0,1.2663,0,24221,49.157,0,0,0,0,0.049459,1
24255,54.3,17.554,0,1.2663,0,24221,49.157,0,0,0,0,0.049459,1
24255,54.3,17.554,0,1.2663,0,24221,49.157,0,0,0,0,0.049459,1
24255,54.3,17.554,0,1.2663,0,24221,49.157,0,0,0,0,0.049459,1
24255,54.3,17.554,0,1.2663,0,24221,49.157,0,0,0,0,0.049459,1
24256,54.3,17.604,0,1.2363,0,24221,49.157,0,0,0,0,0.048481,1
24256,54.3,17.604,0,1.2363,0,24221,49.157,0,0,0,0,0.048481,1
24256,54.3,17.604,0,1.2363,0,24221,49.157,0,0,0,0,0.048481,1
24256,54.3,17.604,0,1.2363,0,24221,49.157,0,0,0,0,0.048481,1
24257,54.3,17.677,0,1.1924,0,24221,49.157,0,0,0,0,0.047079,1
24258,54.3,17.747,0,1.15,0,24221,49.157,0,0,0,0,0.045749,1
24258,54.3,17.747,0,1.15,0,24221,49.157,0,0,0,0,0.045749,1
24258,54.3,17.747,0,1.15,0,24221,49.157,0,0,0,0,0.045749,1
24258,54.3,17.77,0,1.1361,0,24221,49.157,0,0,0,0,0.045321,1
24259,54.3,17.792,0,1.1225,0,24221,49.157,0,0,0,0,0.044901,1
24259,54.3,17.792,0,1.1225,0,24221,49.157,0,0,0,0,0.044901,1
24259,54.3,17.792,0,1.1225,0,24221,49.157,0,0,0,0,0.044901,1
24259,54.3,17.792,0,1.1225,0,24221,49.157,0,0,0,0,0.044901,1
24259,54.3,17.792,0,1.1225,0,24221,49.157,0,0,0,0,0.044901,1
24259,54.3,17.792,0,1.1225,0,24221,49.157,0,0,0,0,0.044901,1
24259,54.3,17.792,0,1.1225,0,24221,49.157,0,0,0,0,0.044901,1
24259,54.3,17.792,0,1.1225,0,24221,49.157,0,0,0,0,0.044901,1
24259,54.3,17.792,0,1.1225,0,24221,49.157,0,0,0,0,0.044901,1
24259,54.3,17.792,0,1.1225,0,24221,49.157,0,0,0,0,0.044901,1
24259,54.3,17.792,0,1.1225,0,24221,49.157,0,0,0,0,0.044901,1
24259,54.3,17.792,0,1.1225,0,24221,49.157,0,0,0,0,0.044901,1
24259,54.3,17.792,0,1.1225,0,24221,49.157,0,0,0,0,0.044901,1
24259,54.3,17.792,0,1.1225,0,24221,49.157,0,0,0,0,0.044901,1
24259,54.3,17.792,0,1.1225,0,24221,49.157,0,0,0,0,0.044901,1
24259,54.3,17.792,0,1.1225,0,24221,49.157,0,0,0,0,0.044901,1
24261,54.3,17.943,0,1.0311,0,24221,49.157,0,0,0,0,0.042148,1
24261,54.3,17.943,0,1.0311,0,24221,49.157,0,0,0,0,0.042148,1
24261,54.3,17.943,0,1.0311,0,24221,49.157,0,0,0,0,0.042148,1
24262,54.3,17.984,0,1.0063,0,24221,49.157,0,0,0,0,0.041418,1
24262,54.3,17.984,0,1.0063,0,24221,49.157,0,0,0,0,0.041418,1
24262,54.3,17.984,0,1.0063,0,24221,49.157,0,0,0,0,0.041418,1
24262,54.3,17.984,0,1.0063,0,24221,49.157,0,0,0,0,0.041418,1
24262,54.3,17.984,0,1.0063,0,24221,49.157,0,0,0,0,0.041418,1
24262,54.3,17.984,0,1.0063,0,24221,49.157,0,0,0,0,0.041418,1
24262,54.3,17.984,0,1.0063,0,24221,49.157,0,0,0,0,0.041418,1
24262,54.3,17.984,0,1.0063,0,24221,49.157,0,0,0,0,0.041418,1
24262,54.3,17.984,0,1.0063,0,24221,49.157,0,0,0,0,0.041418,1
24262,54.3,17.984,0,1.0063,0,24221,49.157,0,0,0,0,0.041418,1
24262,54.3,17.984,0,1.0063,0,24221,49.157,0,0,0,0,0.041418,1
24263,54.3,18.062,0,0.95834,0,24221,49.157,0,0,0,0,0.040027,1
24264,54.3,18.081,0,0.94671,0,24221,49.157,0,0,0,0,0.039693,1
24264,54.3,18.081,0,0.94671,0,24221,49.157,0,0,0,0,0.039693,1
24264,54.3,18.081,0,0.94671,0,24221,49.157,0,0,0,0,0.039693,1
24264,54.3,18.081,0,0.94671,0,24221,49.157,0,0,0,0,0.039693,1
24264,54.3,18.081,0,0.94671,0,24221,49.157,0,0,0,0,0.039693,1
24264,54.3,18.081,0,0.94671,0,24221,49.157,0,0,0,0,0.039693,1
24264,54.3,18.081,0,0.94671,0,24221,49.157,0,0,0,0,0.039693,1
24264,54.3,18.081,0,0.94671,0,24221,49.157,0,0,0,0,0.039693,1
24264,54.3,18.1,0,0.9352,0,24221,49.157,0,0,0,0,0.039363,1
24264,54.3,18.1,0,0.9352,0,24221,49.157,0,0,0,0,0.039363,1
24265,54.3,18.155,0,0.90149,0,24221,49.157,0,0,0,0,0.038406,1
24265,54.3,18.155,0,0.90149,0,24221,49.157,0,0,0,0,0.038406,1
24266,54.3,18.208,0,0.86893,0,24221,49.157,0,0,0,0,0.037491,1
24267,54.3,18.243,0,0.84784,0,24221,49.157,0,0,0,0,0.036903,1
24267,54.3,18.243,0,0.84784,0,24221,49.157,0,0,0,0,0.036903,1
24267,54.3,18.243,0,0.84784,0,24221,49.157,0,0,0,0,0.036903,1
24267,54.3,18.243,0,0.84784,0,24221,49.157,0,0,0,0,0.036903,1
24267,54.3,18.243,0,0.84784,0,24221,49.157,0,0,0,0,0.036903,1
24267,54.3,18.243,0,0.84784,0,24221,49.157,0,0,0,0,0.036903,1
24267,54.3,18.243,0,0.84784,0,24221,49.157,0,0,0,0,0.036903,1
24267,54.3,18.243,0,0.84784,0,24221,49.157,0,0,0,0,0.036903,1
24267,54.3,18.243,0,0.84784,0,24221,49.157,0,0,0,0,0.036903,1
24267,54.3,18.243,0,0.84784,0,24221,49.157,0,0,0,0,0.036903,1
24268,54.3,18.276,0,0.82725,0,24221,49.157,0,0,0,0,0.036332,1
24268,54.3,18.276,0,0.82725,0,24221,49.157,0,0,0,0,0.036332,1
24268,54.3,18.276,0,0.82725,0,24221,49.157,0,0,0,0,0.036332,1
24268,54.3,18.276,0,0.82725,0,24221,49.157,0,0,0,0,0.036332,1
24268,54.3,18.276,0,0.82725,0,24221,49.157,0,0,0,0,0.036332,1
24268,54.3,18.276,0,0.82725,0,24221,49.157,0,0,0,0,0.036332,1
24268,54.3,18.276,0,0.82725,0,24221,49.157,0,0,0,0,0.036332,1
24268,54.3,18.293,0,0.81713,0,24221,49.157,0,0,0,0,0.036053,1
24268,54.3,18.293,0,0.81713,0,24221,49.157,0,0,0,0,0.036053,1
24268,54.3,18.293,0,0.81713,0,24221,49.157,0,0,0,0,0.036053,1
24268,54.3,18.293,0,0.81713,0,24221,49.157,0,0,0,0,0.036053,1
24268,54.3,18.293,0,0.81713,0,24221,49.157,0,0,0,0,0.036053,1
