16529,54.3,19.819,0,-0.042559,0,16661,70.167,0,0,0,0,0.012842,0
16529,54.3,19.819,0,-0.042559,0,16661,70.167,0,0,0,0,0.012842,0
16530,54.3,19.818,0,-0.042629,0,16661,70.167,0,0,0,0,0.012918,0
16530,54.3,19.818,0,-0.042629,0,16661,70.167,0,0,0,0,0.012918,0
16530,54.3,19.818,0,-0.042629,0,16661,70.167,0,0,0,0,0.012918,0
16530,54.3,19.816,0,-0.0427,0,16661,70.167,0,0,0,0,0.012996,0
16530,54.3,19.816,0,-0.0427,0,16661,70.167,0,0,0,0,0.012996,0
16531,54.3,19.814,0,-0.042769,0,16661,70.167,0,0,0,0,0.013074,0
16531,54.3,19.814,0,-0.042769,0,16661,70.167,0,0,0,0,0.013074,0
16531,54.3,19.814,0,-0.042769,0,16661,70.167,0,0,0,0,0.013074,0
16531,54.3,19.814,0,-0.042769,0,16661,70.167,0,0,0,0,0.013074,0
16531,54.3,19.814,0,-0.042769,0,16661,70.167,0,0,0,0,0.013074,0
16531,54.3,19.814,0,-0.042769,0,16661,70.167,0,0,0,0,0.013074,0
16531,54.3,19.814,0,-0.042769,0,16661,70.167,0,0,0,0,0.013074,0
16531,54.3,19.814,0,-0.042769,0,16661,70.167,0,0,0,0,0.013074,0
16531,54.3,19.814,0,-0.042769,0,16661,70.167,0,0,0,0,0.013074,0
16531,54.3,19.814,0,-0.042769,0,16661,70.167,0,0,0,0,0.013074,0
16531,54.3,19.814,0,-0.042769,0,16661,70.167,0,0,0,0,0.013074,0
16531,54.3,19.814,0,-0.042769,0,16661,70.167,0,0,0,0,0.013074,0
16533,54.3,19.811,0,-0.042906,0,16661,70.167,0,0,0,0,0.013234,0
16533,54.3,19.811,0,-0.042906,0,16661,70.167,0,0,0,0,0.013234,0
16533,54.3,19.811,0,-0.042906,0,16661,70.167,0,0,0,0,0.013234,0
16533,54.3,19.811,0,-0.042906,0,16661,70.167,0,0,0,0,0.013234,0
16533,54.3,19.811,0,-0.042906,0,16661,70.167,0,0,0,0,0.013234,0
16533,54.3,19.811,0,-0.042906,0,16661,70.167,0,0,0,0,0.013234,0
16533,54.3,19.811,0,-0.042906,0,16661,70.167,0,0,0,0,0.013234,0
16535,54.3,19.806,0,-0.043076,0,16661,70.167,0,0,0,0,0.013439,0
16535,54.3,19.806,0,-0.043076,0,16661,70.167,0,0,0,0,0.013439,0
16536,54.3,19.804,0,-0.043174,0,16661,70.167,0,0,0,0,0.013565,0
16536,54.3,19.804,0,-0.043174,0,16661,70.167,0,0,0,0,0.013565,0
16536,54.3,19.803,0,-0.043208,0,16661,70.167,0,0,0,0,0.013607,0
16536,54.3,19.803,0,-0.043208,0,16661,70.167,0,0,0,0,0.013607,0
16536,54.3,19.803,0,-0.043208,0,16661,70.167,0,0,0,0,0.013607,0
16536,54.3,19.803,0,-0.043208,0,16661,70.167,0,0,0,0,0.013607,0
16536,54.3,19.803,0,-0.043208,0,16661,70.167,0,0,0,0,0.013607,0
16536,54.3,19.803,0,-0.043208,0,16661,70.167,0,0,0,0,0.013607,0
16536,54.3,19.803,0,-0.043208,0,16661,70.167,0,0,0,0,0.013607,0
16536,54.3,19.803,0,-0.043208,0,16661,70.167,0,0,0,0,0.013607,0
16537,54.3,19.802,0,-0.043239,0,16661,70.167,0,0,0,0,0.01365,0
16537,54.3,19.802,0,-0.043239,0,16661,70.167,0,0,0,0,0.01365,0
16537,54.3,19.802,0,-0.043239,0,16661,70.167,0,0,0,0,0.01365,0
16537,54.3,19.802,0,-0.043239,0,16661,70.167,0,0,0,0,0.01365,0
16537,54.3,19.802,0,-0.043239,0,16661,70.167,0,0,0,0,0.01365,0
16537,54.3,19.802,0,-0.043239,0,16661,70.167,0,0,0,0,0.01365,0
16537,54.3,19.802,0,-0.043239,0,16661,70.167,0,0,0,0,0.01365,0
16537,54.3,19.802,0,-0.043239,0,16661,70.167,0,0,0,0,0.01365,0
16537,54.3,19.802,0,-0.043239,0,16661,70.167,0,0,0,0,0.01365,0
16537,54.3,19.802,0,-0.043239,0,16661,70.167,0,0,0,0,0.01365,0
16538,54.3,19.799,0,-0.043368,0,16661,70.167,0,0,0,0,0.013824,0
16539,54.3,19.797,0,-0.043432,0,16661,70.167,0,0,0,0,0.013913,0
16539,54.3,19.797,0,-0.043432,0,16661,70.167,0,0,0,0,0.013913,0
16539,54.3,19.797,0,-0.043432,0,16661,70.167,0,0,0,0,0.013913,0
16539,54.3,19.797,0,-0.043432,0,16661,70.167,0,0,0,0,0.013913,0
16539,54.3,19.797,0,-0.043432,0,16661,70.167,0,0,0,0,0.013913,0
16539,54.3,19.797,0,-0.043432,0,16661,70.167,0,0,0,0,0.013913,0
16539,54.3,19.797,0,-0.043432,0,16661,70.167,0,0,0,0,0.013913,0
16539,54.3,19.797,0,-0.043432,0,16661,70.167,0,0,0,0,0.013913,0
16539,54.3,19.797,0,-0.043432,0,16661,70.167,0,0,0,0,0.013913,0
16539,54.3,19.797,0,-0.043432,0,16661,70.167,0,0,0,0,0.013913,0
16539,54.3,19.797,0,-0.043432,0,16661,70.167,0,0,0,0,0.013913,0
16541,54.3,19.793,0,-0.043591,0,16661,70.167,0,0,0,0,0.014139,0
16541,54.3,19.793,0,-0.043591,0,16661,70.167,0,0,0,0,0.014139,0
16541,54.3,19.793,0,-0.043591,0,16661,70.167,0,0,0,0,0.014139,0
16541,54.3,19.793,0,-0.043591,0,16661,70.167,0,0,0,0,0.014139,0
16541,54.3,19.793,0,-0.043591,0,16661,70.167,0,0,0,0,0.014139,0
16541,54.3,19.793,0,-0.043591,0,16661,70.167,0,0,0,0,0.014139,0
16541,54.3,19.793,0,-0.043591,0,16661,70.167,0,0,0,0,0.014139,0
16541,54.3,19.793,0,-0.043591,0,16661,70.167,0,0,0,0,0.014139,0
16541,54.3,19.793,0,-0.043591,0,16661,70.167,0,0,0,0,0.014139,0
16541,54.3,19.793,0,-0.043591,0,16661,70.167,0,0,0,0,0.014139,0
16541,54.3,19.793,0,-0.043591,0,16661,70.167,0,0,0,0,0.014139,0
16541,54.3,19.793,0,-0.043591,0,16661,70.167,0,0,0,0,0.014139,0
16541,54.3,19.793,0,-0.043591,0,16661,70.167,0,0,0,0,0.014139,0
16543,54.3,19.788,0,-0.043744,0,16661,70.167,0,0,0,0,0.014373,0
16543,54.3,19.788,0,-0.043744,0,16661,70.167,0,0,0,0,0.014373,0
16544,54.3,19.786,0,-0.043804,0,16661,70.167,0,0,0,0,0.014469,0
16544,54.3,19.786,0,-0.043804,0,16661,69.781,0.016276,-3.0305,5.0184,-27.919,0.014495,0
16544,54.3,19.786,0,-0.043804,0,16661,69.781,0.016276,-3.0305,5.0184,-27.919,0.014495,0
16544,54.3,19.786,0,-0.043804,0,16661,69.781,0.016276,-3.0305,5.0184,-27.919,0.014495,0
16544,54.3,19.786,0,-0.043804,0,16661,69.781,0.016276,-3.0305,5.0184,-27.919,0.014495,0
16544,54.3,19.786,0,-0.043804,0,16661,69.721,0.016276,-3.0305,5.0184,-27.919,0.014496,0
16544,54.3,19.786,0,-0.043804,0,16661,69.721,0.016276,-3.0305,5.0184,-27.919,0.014496,0
16544,54.3,19.786,0,-0.043804,0,16661,69.721,0.016276,-3.0305,5.0184,-27.919,0.014496,0
16544,54.3,19.786,0,-0.043804,0,16661,69.721,0.016276,-3.0305,5.0184,-27.919,0.014496,0
16544,54.3,19.786,0,-0.043804,0,16661,69.66,0.016276,-3.0305,5.0184,-27.919,0.014497,0
16544,54.3,19.786,0,-0.043804,0,16661,69.66,0.016276,-3.0305,5.0184,-27.919,0.014497,0
16544,54.3,19.786,0,-0.043804,0,16661,69.6,0.016276,-3.0305,5.0184,-27.919,0.014498,0
16547,54.3,19.779,0,-0.044046,0,16661,69.539,0.016276,-3.0305,5.0184,-27.919,0.014896,0
16548,54.3,19.778,0,-0.044104,0,16661,69.418,0.032552,-3.0305,0.13563,0.00052982,0.015012,0
16548,54.3,19.778,0,-0.044104,0,16661,69.297,0.032552,-3.0305,0.13563,0.00052982,0.015014,0
16548,54.3,19.778,0,-0.044104,0,16661,69.297,0.032552,-3.0305,0.13563,0.00052982,0.015014,0
16548,54.3,19.778,0,-0.044104,0,16661,69.297,0.032552,-3.0305,0.13563,0.00052982,0.015014,0
16548,54.3,19.778,0,-0.044104,0,16661,69.297,0.032552,-3.0305,0.13563,0.00052982,0.015014,0
16548,54.3,19.778,0,-0.044104,0,16661,69.297,0.032552,-3.0305,0.13563,0.00052982,0.015014,0
16548,54.3,19.778,0,-0.044104,0,16661,69.297,0.032552,-3.0305,0.13563,0.00052982,0.015014,0
16548,54.3,19.778,0,-0.044104,0,16661,69.297,0.032552,-3.0305,0.13563,0.00052982,0.015014,0
16548,54.3,19.778,0,-0.044104,0,16661,69.297,0.032552,-3.0305,0.13563,0.00052982,0.015014,0
16548,54.3,19.778,0,-0.044104,0,16661,69.297,0.032552,-3.0305,0.13563,0.00052982,0.015014,0
16549,54.3,19.776,0,-0.044163,0,16661,69.297,0.032552,-3.0305,0.13563,0.00052982,0.015119,0
16549,54.3,19.776,0,-0.044163,0,16661,69.297,0.032552,-3.0305,0.13563,0.00052982,0.015119,0
16549,54.3,19.776,0,-0.044163,0,16661,69.297,0.032552,-3.0305,0.13563,0.00052982,0.015119,0
16549,54.3,19.776,0,-0.044163,0,16661,69.297,0.032552,-3.0305,0.13563,0.00052982,0.015119,0
16549,54.3,19.776,0,-0.044163,0,16661,69.297,0.032552,-3.0305,0.13563,0.00052982,0.015119,0
16549,54.3,19.776,0,-0.044163,0,16661,69.297,0.032552,-3.0305,0.13563,0.00052982,0.015119,0
16549,54.3,19.776,0,-0.044163,0,16661,69.297,0.032552,-3.0305,0.13563,0.00052982,0.015119,0
16549,54.3,19.776,0,-0.044163,0,16661,69.297,0.032552,-3.0305,0.13563,0.00052982,0.015119,0
16549,54.3,19.776,0,-0.044163,0,16661,69.297,0.032552,-3.0305,0.13563,0.00052982,0.015119,0
16549,54.3,19.776,0,-0.044163,0,16661,69.297,0.032552,-3.0305,0.13563,0.00052982,0.015119,0
16549,54.3,19.776,0,-0.044163,0,16661,69.297,0.032552,-3.0305,0.13563,0.00052982,0.015119,0
16549,54.3,19.776,0,-0.044163,0,16661,69.175,0.032552,-3.0305,0.13563,0.00052982,0.015121,0
16549,54.3,19.776,0,-0.044163,0,16661,69.175,0.032552,-3.0305,0.13563,0.00052982,0.015121,0
16551,54.3,19.771,0,-0.044303,0,16661,69.115,0.016276,-3.0305,-0.13563,-0.00052982,0.015376,0
16551,54.3,19.771,0,-0.044303,0,16661,69.115,0.016276,-3.0305,-0.13563,-0.00052982,0.015376,0
16551,54.3,19.771,0,-0.044303,0,16661,68.872,0.016276,-3.0305,-0.13563,-0.00052982,0.01538,0
16552,54.3,19.768,0,-0.044415,0,16661,68.872,0.016276,-3.0305,-0.13563,-0.00052982,0.015601,0
16553,54.3,19.766,0,-0.04447,0,16661,68.63,0.016276,-3.0305,0,0.00052982,0.015718,0
16553,54.3,19.766,0,-0.04447,0,16661,68.63,0.016276,-3.0305,0,0.00052982,0.015718,0
16553,54.3,19.766,0,-0.04447,0,16661,68.63,0.016276,-3.0305,0,0.00052982,0.015718,0
16553,54.3,19.766,0,-0.04447,0,16661,68.63,0.016276,-3.0305,0,0.00052982,0.015718,0
16553,54.3,19.766,0,-0.04447,0,16661,68.63,0.016276,-3.0305,0,0.00052982,0.015718,0
16553,54.3,19.766,0,-0.04447,0,16661,68.63,0.016276,-3.0305,0,0.00052982,0.015718,0
16553,54.3,19.765,0,-0.044497,0,16661,68.63,0.016276,-3.0305,0,0.00052982,0.015775,0
16553,54.3,19.765,0,-0.044497,0,16661,68.448,0.016276,-3.0305,0,0.00052982,0.015778,0
16553,54.3,19.765,0,-0.044497,0,16661,68.448,0.016276,-3.0305,0,0.00052982,0.015778,0
16553,54.3,19.765,0,-0.044497,0,16661,68.448,0.016276,-3.0305,0,0.00052982,0.015778,0
16553,54.3,19.765,0,-0.044497,0,16661,68.448,0.016276,-3.0305,0,0.00052982,0.015778,0
16553,54.3,19.765,0,-0.044497,0,16661,68.448,0.016276,-3.0305,0,0.00052982,0.015778,0
16553,54.3,19.765,0,-0.044497,0,16661,68.448,0.016276,-3.0305,0,0.00052982,0.015778,0
16553,54.3,19.765,0,-0.044497,0,16661,68.448,0.016276,-3.0305,0,0.00052982,0.015778,0
16553,54.3,19.765,0,-0.044497,0,16661,68.448,0.016276,-3.0305,0,0.00052982,0.015778,0
16553,54.3,19.765,0,-0.044497,0,16661,68.448,0.016276,-3.0305,0,0.00052982,0.015778,0
16554,54.3,19.763,0,-0.044552,0,16661,68.448,0.016276,-3.0305,0,0.00052982,0.015894,0
16554,54.3,19.763,0,-0.044552,0,16661,68.448,0.016276,-3.0305,0,0.00052982,0.015894,0
16554,54.3,19.763,0,-0.044552,0,16661,68.448,0.016276,-3.0305,0,0.00052982,0.015894,0
16554,54.3,19.763,0,-0.044552,0,16661,68.448,0.016276,-3.0305,0,0.00052982,0.015894,0
16555,54.3,19.762,0,-0.044605,0,16661,68.448,0.016276,-3.0305,0,0.00052982,0.01601,0
16555,54.3,19.762,0,-0.044605,0,16661,68.206,0.016276,-3.0305,0,-0.00052982,0.016015,0
16555,54.3,19.762,0,-0.044605,0,16661,68.206,0.016276,-3.0305,0,-0.00052982,0.016015,0
16557,54.3,19.757,0,-0.044737,0,16661,68.145,0.016276,-3.0305,0,-0.00052982,0.016316,0
16557,54.3,19.757,0,-0.044737,0,16661,67.902,0.016276,-3.0305,0,0.00052982,0.016321,0
16558,54.3,19.755,0,-0.044788,0,16661,67.902,0.016276,-3.0305,0,0.00052982,0.016444,0
16558,54.3,19.755,0,-0.044788,0,16661,67.781,0.016276,-3.0305,0,0.00052982,0.016446,0
16558,54.3,19.755,0,-0.044788,0,16661,67.721,0.016276,-3.0305,0,0.00052982,0.016448,0
16558,54.3,19.755,0,-0.044788,0,16661,67.721,0.016276,-3.0305,0,0.00052982,0.016448,0
16558,54.3,19.755,0,-0.044788,0,16661,67.721,0.016276,-3.0305,0,0.00052982,0.016448,0
16558,54.3,19.755,0,-0.044788,0,16661,67.721,0.016276,-3.0305,0,0.00052982,0.016448,0
16558,54.3,19.755,0,-0.044788,0,16661,67.721,0.016276,-3.0305,0,0.00052982,0.016448,0
16558,54.3,19.755,0,-0.044788,0,16661,67.721,0.016276,-3.0305,0,0.00052982,0.016448,0
16558,54.3,19.755,0,-0.044788,0,16661,67.721,0.016276,-3.0305,0,0.00052982,0.016448,0
16558,54.3,19.755,0,-0.044788,0,16661,67.721,0.016276,-3.0305,0,0.00052982,0.016448,0
16558,54.3,19.755,0,-0.044788,0,16661,67.66,0.032552,-3.0305,0.13563,-0.00052982,0.016462,0
16558,54.3,19.755,0,-0.044788,0,16661,67.66,0.032552,-3.0305,0.13563,-0.00052982,0.016462,0
16558,54.3,19.755,0,-0.044788,0,16661,67.66,0.032552,-3.0305,0.13563,-0.00052982,0.016462,0
16558,54.3,19.755,0,-0.044788,0,16661,67.66,0.032552,-3.0305,0.13563,-0.00052982,0.016462,0
16558,54.3,19.755,0,-0.044788,0,16661,67.66,0.032552,-3.0305,0.13563,-0.00052982,0.016462,0
16558,54.3,19.755,0,-0.044788,0,16661,67.66,0.032552,-3.0305,0.13563,-0.00052982,0.016462,0
16558,54.3,19.755,0,-0.044788,0,16661,67.66,0.032552,-3.0305,0.13563,-0.00052982,0.016462,0
16558,54.3,19.755,0,-0.044788,0,16661,67.66,0.032552,-3.0305,0.13563,-0.00052982,0.016462,0
16558,54.3,19.755,0,-0.044788,0,16661,67.66,0.032552,-3.0305,0.13563,-0.00052982,0.016462,0
16558,54.3,19.755,0,-0.044788,0,16661,67.599,0.032552,-3.0305,0.13563,-0.00052982,0.016463,0
16558,54.3,19.755,0,-0.044788,0,16661,67.599,0.032552,-3.0305,0.13563,-0.00052982,0.016463,0
16561,54.3,19.748,0,-0.044987,0,16661,67.539,0.032552,-3.0305,0.13563,-0.00052982,0.016977,0
16561,54.3,19.748,0,-0.044987,0,16661,67.539,0.032552,-3.0305,0.13563,-0.00052982,0.016977,0
16561,54.3,19.748,0,-0.044987,0,16661,67.539,0.032552,-3.0305,0.13563,-0.00052982,0.016977,0
16561,54.3,19.747,0,-0.045013,0,16661,67.539,0.032552,-3.0305,0.13563,-0.00052982,0.017044,0
16561,54.3,19.747,0,-0.045013,0,16661,67.115,0.016276,-3.0305,-0.13563,0.00052982,0.017039,0
16561,54.3,19.747,0,-0.045013,0,16661,67.115,0.016276,-3.0305,-0.13563,0.00052982,0.017039,0
16561,54.3,19.747,0,-0.045013,0,16661,67.115,0.016276,-3.0305,-0.13563,0.00052982,0.017039,0
16561,54.3,19.747,0,-0.045013,0,16661,67.054,0.016276,-3.0305,-0.13563,0.00052982,0.01704,0
16564,54.3,19.742,0,-0.045155,0,16661,66.993,0.016276,-3.0305,-0.13563,0.00052982,0.017451,0
16564,54.3,19.742,0,-0.045155,0,16661,66.993,0.016276,-3.0305,-0.13563,0.00052982,0.017451,0
16564,54.3,19.742,0,-0.045155,0,16661,66.993,0.016276,-3.0305,-0.13563,0.00052982,0.017451,0
16564,54.3,19.741,0,-0.045179,0,16661,66.993,0.016276,-3.0305,-0.13563,0.00052982,0.017521,0
16564,54.3,19.741,0,-0.045179,0,16661,66.812,0.016276,-3.0305,0,-0.00052982,0.017525,0
16564,54.3,19.741,0,-0.045179,0,16661,66.812,0.016276,-3.0305,0,-0.00052982,0.017525,0
16564,54.3,19.741,0,-0.045179,0,16661,66.812,0.016276,-3.0305,0,-0.00052982,0.017525,0
16564,54.3,19.741,0,-0.045179,0,16661,66.812,0.016276,-3.0305,0,-0.00052982,0.017525,0
16564,54.3,19.741,0,-0.045179,0,16661,66.812,0.016276,-3.0305,0,-0.00052982,0.017525,0
16564,54.3,19.741,0,-0.045179,0,16661,66.812,0.016276,-3.0305,0,-0.00052982,0.017525,0
16564,54.3,19.741,0,-0.045179,0,16661,66.812,0.016276,-3.0305,0,-0.00052982,0.017525,0
16564,54.3,19.741,0,-0.045179,0,16661,66.812,0.016276,-3.0305,0,-0.00052982,0.017525,0
16564,54.3,19.741,0,-0.045179,0,16661,66.812,0.016276,-3.0305,0,-0.00052982,0.017525,0
16564,54.3,19.741,0,-0.045179,0,16661,66.812,0.016276,-3.0305,0,-0.00052982,0.017525,0
16565,54.3,19.739,0,-0.045226,0,16661,66.812,0.016276,-3.0305,0,-0.00052982,0.017667,0
16565,54.3,19.738,0,-0.045249,0,16661,66.812,0.016276,-3.0305,0,-0.00052982,0.017739,0
16565,54.3,19.738,0,-0.045249,0,16661,66.812,0.016276,-3.0305,0,-0.00052982,0.017739,0
16565,54.3,19.738,0,-0.045249,0,16661,66.812,0.016276,-3.0305,0,-0.00052982,0.017739,0
16565,54.3,19.738,0,-0.045249,0,16661,66.812,0.016276,-3.0305,0,-0.00052982,0.017739,0
16565,54.3,19.738,0,-0.045249,0,16661,66.812,0.016276,-3.0305,0,-0.00052982,0.017739,0
16565,54.3,19.738,0,-0.045249,0,16661,66.812,0.016276,-3.0305,0,-0.00052982,0.017739,0
16565,54.3,19.738,0,-0.045249,0,16661,66.812,0.016276,-3.0305,0,-0.00052982,0.017739,0
16565,54.3,19.738,0,-0.045249,0,16661,66.812,0.016276,-3.0305,0,-0.00052982,0.017739,0
16565,54.3,19.738,0,-0.045249,0,16661,66.812,0.016276,-3.0305,0,-0.00052982,0.017739,0
16565,54.3,19.738,0,-0.045249,0,16661,66.63,0.016276,-3.0305,0,-0.00052982,0.017743,0
16567,54.3,19.734,0,-0.045362,0,16661,66.63,0.016276,-3.0305,0,-0.00052982,0.018112,0
16567,54.3,19.734,0,-0.045362,0,16661,66.327,0.016276,-3.0305,0,0.00052982,0.018119,0
16567,54.3,19.734,0,-0.045362,0,16661,66.327,0.016276,-3.0305,0,0.00052982,0.018119,0
16567,54.3,19.734,0,-0.045362,0,16661,66.327,0.016276,-3.0305,0,0.00052982,0.018119,0
16567,54.3,19.734,0,-0.045362,0,16661,66.266,0.016276,-3.0305,0,0.00052982,0.01812,0
16569,54.3,19.729,0,-0.045472,0,16661,66.266,0.016276,-3.0305,0,0.00052982,0.018505,0
16569,54.3,19.729,0,-0.045472,0,16661,66.266,0.016276,-3.0305,0,0.00052982,0.018505,0
16569,54.3,19.729,0,-0.045472,0,16661,66.024,0.032552,-3.0305,0.13563,-0.00052982,0.018526,0
16569,54.3,19.729,0,-0.045472,0,16661,66.024,0.032552,-3.0305,0.13563,-0.00052982,0.018526,0
16569,54.3,19.729,0,-0.045472,0,16661,66.024,0.032552,-3.0305,0.13563,-0.00052982,0.018526,0
16569,54.3,19.729,0,-0.045472,0,16661,66.024,0.032552,-3.0305,0.13563,-0.00052982,0.018526,0
16569,54.3,19.729,0,-0.045472,0,16661,66.024,0.032552,-3.0305,0.13563,-0.00052982,0.018526,0
16569,54.3,19.729,0,-0.045472,0,16661,66.024,0.032552,-3.0305,0.13563,-0.00052982,0.018526,0
16570,54.3,19.727,0,-0.045516,0,16661,66.024,0.032552,-3.0305,0.13563,-0.00052982,0.018684,0
16570,54.3,19.727,0,-0.045516,0,16661,65.902,0.032552,-3.0305,0.13563,-0.00052982,0.018687,0
16570,54.3,19.727,0,-0.045516,0,16661,65.842,0.016276,-3.0305,-0.13563,0.00052982,0.018673,0
16570,54.3,19.727,0,-0.045516,0,16661,65.842,0.016276,-3.0305,-0.13563,0.00052982,0.018673,0
16572,54.3,19.723,0,-0.045621,0,16661,65.781,0.016276,-3.0305,-0.13563,0.00052982,0.019084,0
16572,54.3,19.723,0,-0.045621,0,16661,65.781,0.016276,-3.0305,-0.13563,0.00052982,0.019084,0
16572,54.3,19.723,0,-0.045621,0,16661,65.599,0.016276,-3.0305,-0.13563,0.00052982,0.019088,0
16572,54.3,19.723,0,-0.045621,0,16661,65.599,0.016276,-3.0305,-0.13563,0.00052982,0.019088,0
16572,54.3,19.723,0,-0.045621,0,16661,65.599,0.016276,-3.0305,-0.13563,0.00052982,0.019088,0
16572,54.3,19.723,0,-0.045621,0,16661,65.599,0.016276,-3.0305,-0.13563,0.00052982,0.019088,0
16572,54.3,19.723,0,-0.045621,0,16661,65.599,0.016276,-3.0305,-0.13563,0.00052982,0.019088,0
16572,54.3,19.723,0,-0.045621,0,16661,65.599,0.016276,-3.0305,-0.13563,0.00052982,0.019088,0
16572,54.3,19.723,0,-0.045621,0,16661,65.599,0.016276,-3.0305,-0.13563,0.00052982,0.019088,0
16572,54.3,19.723,0,-0.045621,0,16661,65.599,0.016276,-3.0305,-0.13563,0.00052982,0.019088,0
16572,54.3,19.723,0,-0.045621,0,16661,65.599,0.016276,-3.0305,-0.13563,0.00052982,0.019088,0
16573,54.3,19.721,0,-0.045663,0,16661,65.599,0.016276,-3.0305,-0.13563,0.00052982,0.019257,0
16573,54.3,19.721,0,-0.045663,0,16661,65.599,0.016276,-3.0305,-0.13563,0.00052982,0.019257,0
16573,54.3,19.721,0,-0.045663,0,16661,65.599,0.016276,-3.0305,-0.13563,0.00052982,0.019257,0
16573,54.3,19.721,0,-0.045663,0,16661,65.599,0.016276,-3.0305,-0.13563,0.00052982,0.019257,0
16573,54.3,19.721,0,-0.045663,0,16661,65.599,0.016276,-3.0305,-0.13563,0.00052982,0.019257,0
16573,54.3,19.721,0,-0.045663,0,16661,65.599,0.016276,-3.0305,-0.13563,0.00052982,0.019257,0
16573,54.3,19.721,0,-0.045663,0,16661,65.599,0.016276,-3.0305,-0.13563,0.00052982,0.019257,0
16573,54.3,19.721,0,-0.045663,0,16661,65.599,0.016276,-3.0305,-0.13563,0.00052982,0.019257,0
16573,54.3,19.721,0,-0.045663,0,16661,65.478,0.016276,-3.0305,0,-0.00052982,0.01926,0
16573,54.3,19.721,0,-0.045663,0,16661,65.478,0.016276,-3.0305,0,-0.00052982,0.01926,0
16575,54.3,19.716,0,-0.045764,0,16661,65.417,0.016276,-3.0305,0,-0.00052982,0.019697,0
16575,54.3,19.716,0,-0.045764,0,16661,65.175,0.016276,-3.0305,0,-0.00052982,0.019703,0
16576,54.3,19.713,0,-0.045841,0,16661,65.175,0.016276,-3.0305,0,-0.00052982,0.020066,0
16576,54.3,19.713,0,-0.045841,0,16661,64.933,0.016276,-3.0305,0,0.00052982,0.020072,0
16576,54.3,19.713,0,-0.045841,0,16661,64.933,0.016276,-3.0305,0,0.00052982,0.020072,0
16576,54.3,19.713,0,-0.045841,0,16661,64.872,0.016276,-3.0305,0,0.00052982,0.020074,0
16576,54.3,19.713,0,-0.045841,0,16661,64.872,0.016276,-3.0305,0,0.00052982,0.020074,0
16576,54.3,19.713,0,-0.045841,0,16661,64.872,0.016276,-3.0305,0,0.00052982,0.020074,0
16576,54.3,19.713,0,-0.045841,0,16661,64.872,0.016276,-3.0305,0,0.00052982,0.020074,0
16576,54.3,19.713,0,-0.045841,0,16661,64.872,0.016276,-3.0305,0,0.00052982,0.020074,0
16576,54.3,19.713,0,-0.045841,0,16661,64.872,0.016276,-3.0305,0,0.00052982,0.020074,0
16576,54.3,19.713,0,-0.045841,0,16661,64.872,0.016276,-3.0305,0,0.00052982,0.020074,0
16576,54.3,19.713,0,-0.045841,0,16661,64.872,0.016276,-3.0305,0,0.00052982,0.020074,0
16577,54.3,19.71,0,-0.045897,0,16661,64.872,0.016276,-3.0305,0,0.00052982,0.020355,0
16577,54.3,19.71,0,-0.045897,0,16661,64.872,0.016276,-3.0305,0,0.00052982,0.020355,0
16577,54.3,19.71,0,-0.045897,0,16661,64.872,0.016276,-3.0305,0,0.00052982,0.020355,0
16577,54.3,19.71,0,-0.045897,0,16661,64.872,0.016276,-3.0305,0,0.00052982,0.020355,0
16577,54.3,19.71,0,-0.045897,0,16661,64.751,0.016276,-3.0305,0,0,0.020359,0
16577,54.3,19.71,0,-0.045897,0,16661,64.751,0.016276,-3.0305,0,0,0.020359,0
16577,54.3,19.71,0,-0.045897,0,16661,64.751,0.016276,-3.0305,0,0,0.020359,0
16577,54.3,19.71,0,-0.045897,0,16661,64.751,0.016276,-3.0305,0,0,0.020359,0
16577,54.3,19.71,0,-0.045897,0,16661,64.751,0.016276,-3.0305,0,0,0.020359,0
16577,54.3,19.71,0,-0.045897,0,16661,64.751,0.016276,-3.0305,0,0,0.020359,0
16577,54.3,19.71,0,-0.045897,0,16661,64.751,0.016276,-3.0305,0,0,0.020359,0
16577,54.3,19.71,0,-0.045897,0,16661,64.751,0.016276,-3.0305,0,0,0.020359,0
16579,54.3,19.705,0,-0.045988,0,16661,64.69,0.016276,-3.0305,0,0,0.020847,0
16580,54.3,19.704,0,-0.046024,0,16661,64.448,0.016276,-3.0305,0,0,0.021056,0
16581,54.3,19.701,0,-0.046078,0,16661,64.327,0.032552,-3.0305,0.13563,-0.00052982,0.021386,0
16581,54.3,19.701,0,-0.046078,0,16661,64.145,0.032552,-3.0305,0.13563,-0.00052982,0.021392,0
16581,54.3,19.701,0,-0.046078,0,16661,64.145,0.032552,-3.0305,0.13563,-0.00052982,0.021392,0
16581,54.3,19.701,0,-0.046078,0,16661,64.084,0.032552,-3.0305,0.13563,-0.00052982,0.021393,0
16581,54.3,19.701,0,-0.046078,0,16661,64.084,0.032552,-3.0305,0.13563,-0.00052982,0.021393,0
16581,54.3,19.701,0,-0.046078,0,16661,64.084,0.032552,-3.0305,0.13563,-0.00052982,0.021393,0
16581,54.3,19.701,0,-0.046078,0,16661,64.084,0.032552,-3.0305,0.13563,-0.00052982,0.021393,0
16581,54.3,19.701,0,-0.046078,0,16661,64.084,0.032552,-3.0305,0.13563,-0.00052982,0.021393,0
16581,54.3,19.701,0,-0.046078,0,16661,64.084,0.032552,-3.0305,0.13563,-0.00052982,0.021393,0
16581,54.3,19.701,0,-0.046078,0,16661,64.084,0.032552,-3.0305,0.13563,-0.00052982,0.021393,0
16581,54.3,19.701,0,-0.046078,0,16661,64.084,0.032552,-3.0305,0.13563,-0.00052982,0.021393,0
16583,54.3,19.698,0,-0.04613,0,16661,64.084,0.032552,-3.0305,0.13563,-0.00052982,0.021712,0
16583,54.3,19.698,0,-0.04613,0,16661,64.084,0.032552,-3.0305,0.13563,-0.00052982,0.021712,0
16583,54.3,19.698,0,-0.04613,0,16661,64.084,0.032552,-3.0305,0.13563,-0.00052982,0.021712,0
16583,54.3,19.698,0,-0.04613,0,16661,64.084,0.032552,-3.0305,0.13563,-0.00052982,0.021712,0
16583,54.3,19.698,0,-0.04613,0,16661,64.084,0.032552,-3.0305,0.13563,-0.00052982,0.021712,0
16583,54.3,19.698,0,-0.04613,0,16661,64.084,0.032552,-3.0305,0.13563,-0.00052982,0.021712,0
16583,54.3,19.698,0,-0.04613,0,16661,64.084,0.032552,-3.0305,0.13563,-0.00052982,0.021712,0
16583,54.3,19.698,0,-0.04613,0,16661,64.084,0.032552,-3.0305,0.13563,-0.00052982,0.021712,0
16583,54.3,19.698,0,-0.04613,0,16661,64.084,0.032552,-3.0305,0.13563,-0.00052982,0.021712,0
16583,54.3,19.698,0,-0.04613,0,16661,64.084,0.032552,-3.0305,0.13563,-0.00052982,0.021712,0
16583,54.3,19.698,0,-0.04613,0,16661,63.963,0.016276,-3.0305,-0.13563,0.00052982,0.021699,0
16583,54.3,19.698,0,-0.04613,0,16661,63.963,0.016276,-3.0305,-0.13563,0.00052982,0.021699,0
16583,54.3,19.698,0,-0.04613,0,16661,63.963,0.016276,-3.0305,-0.13563,0.00052982,0.021699,0
16583,54.3,19.696,0,-0.046163,0,16661,63.963,0.016276,-3.0305,-0.13563,0.00052982,0.021917,0
16583,54.3,19.696,0,-0.046163,0,16661,63.72,0.016276,-3.0305,-0.13563,0.00052982,0.021924,0
16583,54.3,19.696,0,-0.046163,0,16661,63.72,0.016276,-3.0305,-0.13563,0.00052982,0.021924,0
16586,54.3,19.691,0,-0.046261,0,16661,63.66,0.016276,-3.0305,0,-0.00052982,0.022608,0
16586,54.3,19.691,0,-0.046261,0,16661,63.66,0.016276,-3.0305,0,-0.00052982,0.022608,0
16587,54.3,19.688,0,-0.046307,0,16661,63.417,0.016276,-3.0305,0,-0.00052982,0.022973,0
16587,54.3,19.688,0,-0.046307,0,16661,63.417,0.016276,-3.0305,0,-0.00052982,0.022973,0
16587,54.3,19.688,0,-0.046307,0,16661,63.296,0.016276,-3.0305,0,0.00026491,0.022978,0
16587,54.3,19.688,0,-0.046307,0,16661,63.296,0.016276,-3.0305,0,0.00026491,0.022978,0
16587,54.3,19.688,0,-0.046307,0,16661,63.236,0.016276,-3.0305,0,0.00026491,0.02298,0
16587,54.3,19.688,0,-0.046307,0,16661,63.175,0.016276,-3.0305,0,0.00026491,0.022982,0
16587,54.3,19.688,0,-0.046307,0,16661,63.175,0.016276,-3.0305,0,0.00026491,0.022982,0
16587,54.3,19.688,0,-0.046307,0,16661,63.175,0.016276,-3.0305,0,0.00026491,0.022982,0
16587,54.3,19.688,0,-0.046307,0,16661,63.175,0.016276,-3.0305,0,0.00026491,0.022982,0
16587,54.3,19.688,0,-0.046307,0,16661,63.175,0.016276,-3.0305,0,0.00026491,0.022982,0
16587,54.3,19.688,0,-0.046307,0,16661,63.175,0.016276,-3.0305,0,0.00026491,0.022982,0
16589,54.3,19.684,0,-0.046368,0,16661,63.175,0.016276,-3.0305,0,0.00026491,0.023476,0
16589,54.3,19.684,0,-0.046368,0,16661,63.175,0.016276,-3.0305,0,0.00026491,0.023476,0
16589,54.3,19.684,0,-0.046368,0,16661,63.175,0.016276,-3.0305,0,0.00026491,0.023476,0
16589,54.3,19.683,0,-0.046383,0,16661,63.175,0.016276,-3.0305,0,0.00026491,0.023603,0
16589,54.3,19.683,0,-0.046383,0,16661,63.175,0.016276,-3.0305,0,0.00026491,0.023603,0
16589,54.3,19.683,0,-0.046383,0,16661,63.175,0.016276,-3.0305,0,0.00026491,0.023603,0
16589,54.3,19.683,0,-0.046383,0,16661,63.175,0.016276,-3.0305,0,0.00026491,0.023603,0
16589,54.3,19.683,0,-0.046383,0,16661,63.175,0.016276,-3.0305,0,0.00026491,0.023603,0
16589,54.3,19.683,0,-0.046383,0,16661,63.175,0.016276,-3.0305,0,0.00026491,0.023603,0
16589,54.3,19.683,0,-0.046383,0,16661,63.175,0.016276,-3.0305,0,0.00026491,0.023603,0
16589,54.3,19.683,0,-0.046383,0,16661,63.175,0.016276,-3.0305,0,0.00026491,0.023603,0
16589,54.3,19.683,0,-0.046383,0,16661,63.175,0.016276,-3.0305,0,0.00026491,0.023603,0
16590,54.3,19.681,0,-0.046428,0,16661,62.993,0.016276,-3.0305,0,0.00026491,0.023999,0
16590,54.3,19.681,0,-0.046428,0,16661,62.811,0.032552,-3.0305,0.13563,0,0.024026,0
16591,54.3,19.679,0,-0.046454,0,16661,62.811,0.032552,-3.0305,0.13563,0,0.024293,0
16591,54.3,19.678,0,-0.046467,0,16661,62.811,0.032552,-3.0305,0.13563,0,0.024428,0
16591,54.3,19.678,0,-0.046467,0,16661,62.811,0.032552,-3.0305,0.13563,0,0.024428,0
16591,54.3,19.678,0,-0.046467,0,16661,62.508,0.016276,-3.0305,-0.13563,0,0.024421,0
16591,54.3,19.678,0,-0.046467,0,16661,62.448,0.016276,-3.0305,-0.13563,0,0.024423,0
16591,54.3,19.678,0,-0.046467,0,16661,62.448,0.016276,-3.0305,-0.13563,0,0.024423,0
16591,54.3,19.678,0,-0.046467,0,16661,62.448,0.016276,-3.0305,-0.13563,0,0.024423,0
16591,54.3,19.678,0,-0.046467,0,16661,62.448,0.016276,-3.0305,-0.13563,0,0.024423,0
16591,54.3,19.678,0,-0.046467,0,16661,62.448,0.016276,-3.0305,-0.13563,0,0.024423,0
16591,54.3,19.678,0,-0.046467,0,16661,62.448,0.016276,-3.0305,-0.13563,0,0.024423,0
16593,54.3,19.673,0,-0.046536,0,16661,62.448,0.016276,-3.0305,-0.13563,0,0.025126,0
16593,54.3,19.673,0,-0.046536,0,16661,62.448,0.016276,-3.0305,-0.13563,0,0.025126,0
16593,54.3,19.673,0,-0.046536,0,16661,62.448,0.016276,-3.0305,-0.13563,0,0.025126,0
16593,54.3,19.673,0,-0.046536,0,16661,62.448,0.016276,-3.0305,-0.13563,0,0.025126,0
16594,54.3,19.672,0,-0.046548,0,16661,62.448,0.016276,-3.0305,-0.13563,0,0.025271,0
16594,54.3,19.672,0,-0.046548,0,16661,62.448,0.016276,-3.0305,-0.13563,0,0.025271,0
16594,54.3,19.672,0,-0.046548,0,16661,62.448,0.016276,-3.0305,-0.13563,0,0.025271,0
16594,54.3,19.672,0,-0.046548,0,16661,62.448,0.016276,-3.0305,-0.13563,0,0.025271,0
16594,54.3,19.672,0,-0.046548,0,16661,62.448,0.016276,-3.0305,-0.13563,0,0.025271,0
16594,54.3,19.672,0,-0.046548,0,16661,62.448,0.016276,-3.0305,-0.13563,0,0.025271,0
16594,54.3,19.672,0,-0.046548,0,16661,62.448,0.016276,-3.0305,-0.13563,0,0.025271,0
16594,54.3,19.672,0,-0.046548,0,16661,62.448,0.016276,-3.0305,-0.13563,0,0.025271,0
16594,54.3,19.672,0,-0.046548,0,16661,62.448,0.016276,-3.0305,-0.13563,0,0.025271,0
16594,54.3,19.671,0,-0.04656,0,16661,62.448,0.016276,-3.0305,-0.13563,0,0.025418,0
16594,54.3,19.671,0,-0.04656,0,16661,62.145,0.016276,-3.0305,0,0,0.025431,0
16594,54.3,19.671,0,-0.04656,0,16661,62.145,0.016276,-3.0305,0,0,0.025431,0
16594,54.3,19.671,0,-0.04656,0,16661,62.023,0.016276,-3.0305,0,0,0.025436,0
16594,54.3,19.671,0,-0.04656,0,16661,62.023,0.016276,-3.0305,0,0,0.025436,0
16597,54.3,19.664,0,-0.046657,0,16661,61.963,0.016276,-3.0305,0,0,0.026681,0
16597,54.3,19.664,0,-0.046657,0,16661,61.72,0.016276,-3.0305,0,0,0.026692,0
16597,54.3,19.664,0,-0.046657,0,16661,61.72,0.016276,-3.0305,0,0,0.026692,0
16597,54.3,19.664,0,-0.046657,0,16661,61.72,0.016276,-3.0305,0,0,0.026692,0
16597,54.3,19.664,0,-0.046657,0,16661,61.66,0.016276,-3.0305,0,0,0.026695,0
16597,54.3,19.664,0,-0.046657,0,16661,61.599,0.016276,-3.0305,0,0,0.026698,0
16597,54.3,19.664,0,-0.046657,0,16661,61.599,0.016276,-3.0305,0,0,0.026698,0
16597,54.3,19.664,0,-0.046657,0,16661,61.599,0.016276,-3.0305,0,0,0.026698,0
16597,54.3,19.664,0,-0.046657,0,16661,61.538,0.016276,-3.0305,0,0,0.026701,0
16597,54.3,19.664,0,-0.046657,0,16661,61.538,0.016276,-3.0305,0,0,0.026701,0
16597,54.3,19.664,0,-0.046657,0,16661,61.478,0.016276,-3.0305,0,0,0.026704,0
16597,54.3,19.664,0,-0.046657,0,16661,61.478,0.016276,-3.0305,0,0,0.026704,0
16597,54.3,19.664,0,-0.046657,0,16661,61.478,0.016276,-3.0305,0,0,0.026704,0
16597,54.3,19.664,0,-0.046657,0,16661,61.417,0.016276,-3.0305,0,0,0.026706,0
16597,54.3,19.664,0,-0.046657,0,16661,61.357,0.016276,-3.0305,0,0,0.026709,0
16597,54.3,19.664,0,-0.046657,0,16661,61.357,0.016276,-3.0305,0,0,0.026709,0
16597,54.3,19.664,0,-0.046657,0,16661,61.296,0.016276,-3.0305,0,0,0.026712,0
16597,54.3,19.664,0,-0.046657,0,16661,61.296,0.016276,-3.0305,0,0,0.026712,0
16601,54.3,19.654,0,-0.046765,0,16661,61.235,0.016276,-3.0305,0,0,0.028455,0
16601,54.3,19.654,0,-0.046765,0,16661,61.235,0.016276,-3.0305,0,0,0.028455,0
16601,54.3,19.654,0,-0.046765,0,16661,61.235,0.016276,-3.0305,0,0,0.028455,0
16601,54.3,19.654,0,-0.046765,0,16661,61.235,0.016276,-3.0305,0,0,0.028455,0
16601,54.3,19.654,0,-0.046765,0,16661,61.235,0.016276,-3.0305,0,0,0.028455,0
16601,54.3,19.654,0,-0.046765,0,16661,61.235,0.016276,-3.0305,0,0,0.028455,0
16601,54.3,19.654,0,-0.046765,0,16661,61.235,0.016276,-3.0305,0,0,0.028455,0
16601,54.3,19.654,0,-0.046765,0,16661,61.235,0.016276,-3.0305,0,0,0.028455,0
16601,54.3,19.654,0,-0.046765,0,16661,61.114,0.032552,-3.0305,0.13563,0,0.028484,0
16601,54.3,19.654,0,-0.046765,0,16661,61.114,0.032552,-3.0305,0.13563,0,0.028484,0
16601,54.3,19.654,0,-0.046765,0,16661,61.054,0.032552,-3.0305,0.13563,0,0.028487,0
16601,54.3,19.654,0,-0.046765,0,16661,61.054,0.032552,-3.0305,0.13563,0,0.028487,0
16601,54.3,19.654,0,-0.046765,0,16661,61.054,0.032552,-3.0305,0.13563,0,0.028487,0
16601,54.3,19.654,0,-0.046765,0,16661,61.054,0.032552,-3.0305,0.13563,0,0.028487,0
16602,54.3,19.652,0,-0.046798,0,16661,61.054,0.032552,-3.0305,0.13563,0,0.029055,0
16603,54.3,19.649,0,-0.046823,0,16661,60.932,0.032552,-3.0305,0.13563,0,0.029653,0
16604,54.3,19.648,0,-0.046832,0,16661,60.932,0.032552,-3.0305,0.13563,0,0.029855,0
16604,54.3,19.648,0,-0.046832,0,16661,60.932,0.032552,-3.0305,0.13563,0,0.029855,0
16604,54.3,19.647,0,-0.046841,0,16661,60.932,0.032552,-3.0305,0.13563,0,0.03006,0
16605,54.3,19.645,0,-0.046859,0,16661,60.629,0.016276,-3.0305,-0.13563,0,0.030472,0
16605,54.3,19.645,0,-0.046859,0,16661,60.629,0.016276,-3.0305,-0.13563,0,0.030472,0
16605,54.3,19.645,0,-0.046859,0,16661,60.629,0.016276,-3.0305,-0.13563,0,0.030472,0
16605,54.3,19.645,0,-0.046859,0,16661,60.629,0.016276,-3.0305,-0.13563,0,0.030472,0
16605,54.3,19.645,0,-0.046859,0,16661,60.629,0.016276,-3.0305,-0.13563,0,0.030472,0
16605,54.3,19.645,0,-0.046859,0,16661,60.629,0.016276,-3.0305,-0.13563,0,0.030472,0
16605,54.3,19.645,0,-0.046859,0,16661,60.629,0.016276,-3.0305,-0.13563,0,0.030472,0
16605,54.3,19.645,0,-0.046859,0,16661,60.629,0.016276,-3.0305,-0.13563,0,0.030472,0
16605,54.3,19.645,0,-0.046859,0,16661,60.629,0.016276,-3.0305,-0.13563,0,0.030472,0
16605,54.3,19.644,0,-0.046868,0,16661,60.629,0.016276,-3.0305,-0.13563,0,0.030686,0
16606,54.3,19.643,0,-0.046878,0,16661,60.629,0.016276,-3.0305,-0.13563,0,0.030903,0
16606,54.3,19.643,0,-0.046878,0,16661,60.629,0.016276,-3.0305,-0.13563,0,0.030903,0
16606,54.3,19.643,0,-0.046878,0,16661,60.629,0.016276,-3.0305,-0.13563,0,0.030903,0
16606,54.3,19.643,0,-0.046878,0,16661,60.629,0.016276,-3.0305,-0.13563,0,0.030903,0
16606,54.3,19.643,0,-0.046878,0,16661,60.629,0.016276,-3.0305,-0.13563,0,0.030903,0
16606,54.3,19.643,0,-0.046878,0,16661,60.629,0.016276,-3.0305,-0.13563,0,0.030903,0
16606,54.3,19.643,0,-0.046878,0,16661,60.629,0.016276,-3.0305,-0.13563,0,0.030903,0
16606,54.3,19.643,0,-0.046878,0,16661,60.629,0.016276,-3.0305,-0.13563,0,0.030903,0
16606,54.3,19.643,0,-0.046878,0,16661,60.629,0.016276,-3.0305,-0.13563,0,0.030903,0
16607,54.3,19.639,0,-0.046911,0,16661,60.387,0.016276,-3.0305,0,0,0.031817,0
16608,54.3,19.638,0,-0.046918,0,16661,60.387,0.016276,-3.0305,0,0,0.03205,0
16608,54.3,19.638,0,-0.046918,0,16661,60.387,0.016276,-3.0305,0,0,0.03205,0
16608,54.3,19.638,0,-0.046925,0,16661,60.387,0.016276,-3.0305,0,0,0.032287,0
16608,54.3,19.638,0,-0.046925,0,16661,59.902,0.016276,-3.0305,0,0,0.032317,0
16608,54.3,19.638,0,-0.046925,0,16661,59.902,0.016276,-3.0305,0,0,0.032317,0
16608,54.3,19.638,0,-0.046925,0,16661,59.902,0.016276,-3.0305,0,0,0.032317,0
16608,54.3,19.638,0,-0.046925,0,16661,59.902,0.016276,-3.0305,0,0,0.032317,0
16608,54.3,19.638,0,-0.046925,0,16661,59.902,0.016276,-3.0305,0,0,0.032317,0
16608,54.3,19.638,0,-0.046925,0,16661,59.902,0.016276,-3.0305,0,0,0.032317,0
16610,54.3,19.634,0,-0.046955,0,16661,59.902,0.016276,-3.0305,0,0,0.033302,0
16610,54.3,19.634,0,-0.046955,0,16661,59.902,0.016276,-3.0305,0,0,0.033302,0
16610,54.3,19.634,0,-0.046955,0,16661,59.902,0.016276,-3.0305,0,0,0.033302,0
16610,54.3,19.634,0,-0.046955,0,16661,59.902,0.016276,-3.0305,0,0,0.033302,0
16610,54.3,19.634,0,-0.046955,0,16661,59.902,0.016276,-3.0305,0,0,0.033302,0
16610,54.3,19.634,0,-0.046955,0,16661,59.781,0.016276,-3.0305,0,0,0.033311,0
16610,54.3,19.634,0,-0.046955,0,16661,59.781,0.016276,-3.0305,0,0,0.033311,0
16610,54.3,19.634,0,-0.046955,0,16661,59.781,0.016276,-3.0305,0,0,0.033311,0
16610,54.3,19.634,0,-0.046955,0,16661,59.781,0.016276,-3.0305,0,0,0.033311,0
16610,54.3,19.634,0,-0.046955,0,16661,59.781,0.016276,-3.0305,0,0,0.033311,0
16610,54.3,19.634,0,-0.046955,0,16661,59.781,0.016276,-3.0305,0,0,0.033311,0
16610,54.3,19.634,0,-0.046955,0,16661,59.781,0.016276,-3.0305,0,0,0.033311,0
16610,54.3,19.634,0,-0.046955,0,16661,59.781,0.016276,-3.0305,0,0,0.033311,0
16610,54.3,19.634,0,-0.046955,0,16661,59.781,0.016276,-3.0305,0,0,0.033311,0
16611,54.3,19.632,0,-0.04697,0,16661,59.781,0.016276,-3.0305,0,0,0.033827,0
16611,54.3,19.632,0,-0.04697,0,16661,59.599,0.032552,-3.0305,0.13563,0,0.033866,0
16612,54.3,19.629,0,-0.046991,0,16661,59.599,0.032552,-3.0305,0.13563,0,0.034671,0
16612,54.3,19.629,0,-0.046991,0,16661,59.417,0.032552,-3.0305,0.13563,0,0.034684,0
16613,54.3,19.626,0,-0.047006,0,16661,59.417,0.032552,-3.0305,0.13563,0,0.035529,0
16613,54.3,19.626,0,-0.047006,0,16661,59.175,0.016276,-3.0305,-0.13563,0,0.035518,0
16613,54.3,19.626,0,-0.047006,0,16661,59.114,0.016276,-3.0305,-0.13563,0,0.035522,0
16613,54.3,19.626,0,-0.047006,0,16661,59.114,0.016276,-3.0305,-0.13563,0,0.035522,0
16613,54.3,19.626,0,-0.047006,0,16661,59.114,0.016276,-3.0305,-0.13563,0,0.035522,0
16613,54.3,19.626,0,-0.047006,0,16661,59.114,0.016276,-3.0305,-0.13563,0,0.035522,0
16613,54.3,19.626,0,-0.047006,0,16661,59.114,0.016276,-3.0305,-0.13563,0,0.035522,0
16613,54.3,19.626,0,-0.047006,0,16661,59.053,0.016276,-3.0305,-0.13563,0,0.035526,0
16615,54.3,19.621,0,-0.047038,0,16661,59.053,0.016276,-3.0305,-0.13563,0,0.037347,0
16615,54.3,19.621,0,-0.047038,0,16661,59.053,0.016276,-3.0305,-0.13563,0,0.037347,0
16615,54.3,19.621,0,-0.047038,0,16661,59.053,0.016276,-3.0305,-0.13563,0,0.037347,0
16615,54.3,19.621,0,-0.047038,0,16661,59.053,0.016276,-3.0305,-0.13563,0,0.037347,0
16615,54.3,19.621,0,-0.047038,0,16661,59.053,0.016276,-3.0305,-0.13563,0,0.037347,0
16615,54.3,19.621,0,-0.047038,0,16661,59.053,0.016276,-3.0305,-0.13563,0,0.037347,0
16615,54.3,19.621,0,-0.047038,0,16661,59.053,0.016276,-3.0305,-0.13563,0,0.037347,0
16615,54.3,19.621,0,-0.047038,0,16661,59.053,0.016276,-3.0305,-0.13563,0,0.037347,0
16615,54.3,19.621,0,-0.047038,0,16661,58.932,0.016276,-3.0305,0,0,0.037357,0
16616,54.3,19.618,0,-0.047054,0,16661,58.932,0.016276,-3.0305,0,0,0.03834,0
16616,54.3,19.618,0,-0.047054,0,16661,58.932,0.016276,-3.0305,0,0,0.03834,0
16616,54.3,19.618,0,-0.047054,0,16661,58.932,0.016276,-3.0305,0,0,0.03834,0
16616,54.3,19.618,0,-0.047054,0,16661,58.932,0.016276,-3.0305,0,0,0.03834,0
16616,54.3,19.618,0,-0.047054,0,16661,58.932,0.016276,-3.0305,0,0,0.03834,0
16616,54.3,19.618,0,-0.047054,0,16661,58.932,0.016276,-3.0305,0,0,0.03834,0
16616,54.3,19.618,0,-0.047054,0,16661,58.932,0.016276,-3.0305,0,0,0.03834,0
16616,54.3,19.618,0,-0.047054,0,16661,58.932,0.016276,-3.0305,0,0,0.03834,0
16618,54.3,19.615,0,-0.04707,0,16661,58.75,0.016276,-3.0305,0,0,0.039391,0
16618,54.3,19.615,0,-0.04707,0,16661,58.569,0.016276,-3.0305,0,0,0.039408,0
16618,54.3,19.613,0,-0.047078,0,16661,58.569,0.016276,-3.0305,0,0,0.040131,0
16620,54.3,19.61,0,-0.047086,0,16661,58.447,0.016276,-3.0305,0,0,0.041278,0
16620,54.3,19.61,0,-0.047086,0,16661,58.266,0.016276,-3.0305,0,0,0.041296,0
16620,54.3,19.61,0,-0.047086,0,16661,58.266,0.016276,-3.0305,0,0,0.041296,0
16620,54.3,19.61,0,-0.047086,0,16661,58.266,0.016276,-3.0305,0,0,0.041296,0
16620,54.3,19.61,0,-0.047086,0,16661,58.266,0.016276,-3.0305,0,0,0.041296,0
16620,54.3,19.61,0,-0.047086,0,16661,58.266,0.016276,-3.0305,0,0,0.041296,0
16620,54.3,19.61,0,-0.047086,0,16661,58.266,0.016276,-3.0305,0,0,0.041296,0
16620,54.3,19.61,0,-0.047086,0,16661,58.266,0.016276,-3.0305,0,0,0.041296,0
16620,54.3,19.61,0,-0.047086,0,16661,58.266,0.016276,-3.0305,0,0,0.041296,0
16620,54.3,19.61,0,-0.047086,0,16661,58.205,0.016276,-3.0305,0,0,0.041301,0
16620,54.3,19.61,0,-0.047086,0,16661,58.205,0.016276,-3.0305,0,0,0.041301,0
16620,54.3,19.61,0,-0.047086,0,16661,58.205,0.016276,-3.0305,0,0,0.041301,0
16620,54.3,19.61,0,-0.047086,0,16661,58.205,0.016276,-3.0305,0,0,0.041301,0
16620,54.3,19.61,0,-0.047086,0,16661,58.205,0.016276,-3.0305,0,0,0.041301,0
16620,54.3,19.61,0,-0.047086,0,16661,58.205,0.016276,-3.0305,0,0,0.041301,0
16620,54.3,19.61,0,-0.047086,0,16661,58.205,0.016276,-3.0305,0,0,0.041301,0
16620,54.3,19.61,0,-0.047086,0,16661,58.205,0.016276,-3.0305,0,0,0.041301,0
16621,54.3,19.607,0,-0.047093,0,16661,58.205,0.016276,-3.0305,0,0,0.042506,0
16621,54.3,19.607,0,-0.047093,0,16661,58.205,0.016276,-3.0305,0,0,0.042506,0
16621,54.3,19.607,0,-0.047093,0,16661,58.205,0.016276,-3.0305,0,0,0.042506,0
16621,54.3,19.607,0,-0.047095,0,16661,58.205,0.016276,-3.0305,0,0,0.042923,0
16621,54.3,19.607,0,-0.047095,0,16661,58.205,0.016276,-3.0305,0,0,0.042923,0
16621,54.3,19.607,0,-0.047095,0,16661,57.902,0.016276,-3.0305,0,0,0.042952,0
16624,54.3,19.6,0,-0.047109,0,16661,57.841,0.032552,-3.0305,0.13563,0,0.046167,0
16624,54.3,19.599,0,-0.047111,0,16661,57.841,0.032552,-3.0305,0.13563,0,0.046659,0
16625,54.3,19.598,0,-0.047113,0,16661,57.841,0.032552,-3.0305,0.13563,0,0.047162,0
16625,54.3,19.597,0,-0.047114,0,16661,57.841,0.032552,-3.0305,0.13563,0,0.047675,0
16625,54.3,19.597,0,-0.047114,0,16661,57.841,0.032552,-3.0305,0.13563,0,0.047675,0
16625,54.3,19.597,0,-0.047114,0,16661,57.841,0.032552,-3.0305,0.13563,0,0.047675,0
16625,54.3,19.597,0,-0.047114,0,16661,57.841,0.032552,-3.0305,0.13563,0,0.047675,0
16625,54.3,19.597,0,-0.047114,0,16661,57.841,0.032552,-3.0305,0.13563,0,0.047675,0
16625,54.3,19.597,0,-0.047114,0,16661,57.841,0.032552,-3.0305,0.13563,0,0.047675,0
16625,54.3,19.597,0,-0.047114,0,16661,57.841,0.032552,-3.0305,0.13563,0,0.047675,0
16625,54.3,19.597,0,-0.047114,0,16661,57.841,0.032552,-3.0305,0.13563,0,0.047675,0
16625,54.3,19.597,0,-0.047114,0,16661,57.841,0.032552,-3.0305,0.13563,0,0.047675,0
16625,54.3,19.597,0,-0.047114,0,16661,57.841,0.032552,-3.0305,0.13563,0,0.047675,0
16625,54.3,19.597,0,-0.047114,0,16661,57.417,0.016276,-3.0305,-0.13563,0,0.047687,0
16625,54.3,19.597,0,-0.047114,0,16661,57.417,0.016276,-3.0305,-0.13563,0,0.047687,0
16625,54.3,19.597,0,-0.047114,0,16661,57.417,0.016276,-3.0305,-0.13563,0,0.047687,0
16625,54.3,19.597,0,-0.047114,0,16661,57.417,0.016276,-3.0305,-0.13563,0,0.047687,0
16625,54.3,19.597,0,-0.047114,0,16661,57.417,0.016276,-3.0305,-0.13563,0,0.047687,0
16625,54.3,19.597,0,-0.047114,0,16661,57.417,0.016276,-3.0305,-0.13563,0,0.047687,0
16625,54.3,19.597,0,-0.047114,0,16661,57.417,0.016276,-3.0305,-0.13563,0,0.047687,0
16625,54.3,19.597,0,-0.047114,0,16661,57.417,0.016276,-3.0305,-0.13563,0,0.047687,0
16625,54.3,19.597,0,-0.047114,0,16661,57.417,0.016276,-3.0305,-0.13563,0,0.047687,0
16626,54.3,19.595,0,-0.047117,0,16661,57.417,0.016276,-3.0305,-0.13563,0,0.04875,0
16626,54.3,19.594,0,-0.047118,0,16661,57.417,0.016276,-3.0305,-0.13563,0,0.0493,0
16627,54.3,19.591,0,-0.047122,0,16661,57.175,0.016276,-3.0305,-0.13563,0,0.051056,0
16629,54.3,19.587,0,-0.047124,0,16661,57.053,0.016276,-3.0305,0,0,0.05424,0
16629,54.3,19.587,0,-0.047124,0,16661,57.053,0.016276,-3.0305,0,0,0.05424,0
16629,54.3,19.587,0,-0.047124,0,16661,57.053,0.016276,-3.0305,0,0,0.05424,0
16629,54.3,19.587,0,-0.047124,0,16661,57.053,0.016276,-3.0305,0,0,0.05424,0
16629,54.3,19.587,0,-0.047124,0,16661,57.053,0.016276,-3.0305,0,0,0.05424,0
16629,54.3,19.587,0,-0.047124,0,16661,57.053,0.016276,-3.0305,0,0,0.05424,0
16629,54.3,19.587,0,-0.047124,0,16661,57.053,0.016276,-3.0305,0,0,0.05424,0
16629,54.3,19.587,0,-0.047124,0,16661,57.053,0.016276,-3.0305,0,0,0.05424,0
16629,54.3,19.587,0,-0.047124,0,16661,56.75,0.016276,-3.0305,0,0,0.05428,0
16629,54.3,19.587,0,-0.047124,0,16661,56.75,0.016276,-3.0305,0,0,0.05428,0
16629,54.3,19.587,0,-0.047124,0,16661,56.75,0.016276,-3.0305,0,0,0.05428,0
16629,54.3,19.587,0,-0.047124,0,16661,56.75,0.016276,-3.0305,0,0,0.05428,0
16629,54.3,19.587,0,-0.047124,0,16661,56.75,0.016276,-3.0305,0,0,0.05428,0
16629,54.3,19.587,0,-0.047124,0,16661,56.75,0.016276,-3.0305,0,0,0.05428,0
16629,54.3,19.587,0,-0.047124,0,16661,56.75,0.016276,-3.0305,0,0,0.05428,0
16629,54.3,19.587,0,-0.047124,0,16661,56.75,0.016276,-3.0305,0,0,0.05428,0
16629,54.3,19.587,0,-0.047124,0,16661,56.75,0.016276,-3.0305,0,0,0.05428,0
16629,54.3,19.587,0,-0.047124,0,16661,56.75,0.016276,-3.0305,0,0,0.05428,0
16629,54.3,19.587,0,-0.047124,0,16661,56.69,0.016276,-3.0305,0,0,0.054288,0
16629,54.3,19.587,0,-0.047124,0,16661,56.69,0.016276,-3.0305,0,0,0.054288,0
16629,54.3,19.587,0,-0.047124,0,16661,56.69,0.016276,-3.0305,0,0,0.054288,0
16631,54.3,19.584,0,-0.047124,0,16661,56.69,0.016276,-3.0305,0,0,0.05639,0
16631,54.3,19.584,0,-0.047124,0,16661,56.69,0.016276,-3.0305,0,0,0.05639,0
16631,54.3,19.584,0,-0.047124,0,16661,56.508,0.016276,-3.0305,0,0,0.056412,0
16631,54.3,19.584,0,-0.047124,0,16661,56.508,0.016276,-3.0305,0,0,0.056412,0
16633,54.3,19.577,0,-0.047119,0,16661,56.326,0.016276,-3.0305,0,0,0.062043,0
16633,54.3,19.577,0,-0.047119,0,16661,56.084,0.016276,-3.0305,0,0,0.062077,0
16633,54.3,19.577,0,-0.047119,0,16661,56.084,0.016276,-3.0305,0,0,0.062077,0
16633,54.3,19.577,0,-0.047119,0,16661,56.084,0.016276,-3.0305,0,0,0.062077,0
16634,54.3,19.574,0,-0.047114,0,16661,56.084,0.016276,-3.0305,0,0,0.064841,0
16635,54.3,19.574,0,-0.047112,0,16661,56.084,0.016276,-3.0305,0,0,0.065818,0
16635,54.3,19.574,0,-0.047112,0,16661,56.084,0.016276,-3.0305,0,0,0.065818,0
16635,54.3,19.574,0,-0.047112,0,16661,56.084,0.016276,-3.0305,0,0,0.065818,0
16635,54.3,19.574,0,-0.047112,0,16661,56.084,0.016276,-3.0305,0,0,0.065818,0
16635,54.3,19.574,0,-0.047112,0,16661,56.084,0.016276,-3.0305,0,0,0.065818,0
16635,54.3,19.574,0,-0.047112,0,16661,56.084,0.016276,-3.0305,0,0,0.065818,0
16635,54.3,19.574,0,-0.047112,0,16661,56.084,0.016276,-3.0305,0,0,0.065818,0
16635,54.3,19.574,0,-0.047112,0,16661,56.084,0.016276,-3.0305,0,0,0.065818,0
16635,54.3,19.574,0,-0.047112,0,16661,56.084,0.016276,-3.0305,0,0,0.065818,0
16635,54.3,19.574,0,-0.047112,0,16661,56.084,0.016276,-3.0305,0,0,0.065818,0
16635,54.3,19.574,0,-0.047112,0,16661,55.902,0.032552,-3.0305,0.13563,0,0.065902,0
16636,54.3,19.572,0,-0.047107,0,16661,55.902,0.032552,-3.0305,0.13563,0,0.06795,0
16636,54.3,19.572,0,-0.047107,0,16661,55.902,0.032552,-3.0305,0.13563,0,0.06795,0
16636,54.3,19.572,0,-0.047107,0,16661,55.902,0.032552,-3.0305,0.13563,0,0.06795,0
16636,54.3,19.572,0,-0.047107,0,16661,55.902,0.032552,-3.0305,0.13563,0,0.06795,0
16636,54.3,19.572,0,-0.047107,0,16661,55.902,0.032552,-3.0305,0.13563,0,0.06795,0
16636,54.3,19.572,0,-0.047107,0,16661,55.902,0.032552,-3.0305,0.13563,0,0.06795,0
16636,54.3,19.572,0,-0.047107,0,16661,55.902,0.032552,-3.0305,0.13563,0,0.06795,0
16636,54.3,19.572,0,-0.047107,0,16661,55.902,0.032552,-3.0305,0.13563,0,0.06795,0
16636,54.3,19.571,0,-0.047104,0,16661,55.902,0.032552,-3.0305,0.13563,0,0.069023,0
16636,54.3,19.571,0,-0.047104,0,16661,55.659,0.016276,-3.0305,-0.13563,0,0.069002,0
16636,54.3,19.571,0,-0.047104,0,16661,55.538,0.016276,-3.0305,-0.13563,0,0.06902,0
16638,54.3,19.466,0,-10,0,16661,55.538,0.016276,-3.0305,-0.13563,0,0.074942,0
16639,54.3,19.066,0,-10,0,16661,55.538,0.016276,-3.0305,-0.13563,0,0.077563,0
16639,54.3,19.066,0,-10,0,16661,55.538,0.016276,-3.0305,-0.13563,0,0.077563,0
16639,54.3,19.066,0,-10,0,16661,55.235,0.016276,-3.0305,0,0.00026491,0.077609,0
16639,54.3,19.066,0,-10,0,16661,55.235,0.016276,-3.0305,0,0.00026491,0.077609,0
16639,54.3,19.066,0,-10,0,16661,55.174,0.016276,-3.0305,0,0.00026491,0.077611,0
16639,54.3,19.066,0,-10,0,16661,55.174,0.016276,-3.0305,0,0.00026491,0.077611,0
16639,54.3,19.066,0,-10,0,16661,55.174,0.016276,-3.0305,0,0.00026491,0.077611,0
16639,54.3,19.066,0,-10,0,16661,55.174,0.016276,-3.0305,0,0.00026491,0.077611,0
16639,54.3,19.066,0,-10,0,16661,55.174,0.016276,-3.0305,0,0.00026491,0.077611,0
16640,54.3,18.266,0,-10,0,16661,55.174,0.016276,-3.0305,0,0.00026491,0.083261,0
16640,54.3,18.266,0,-10,0,16661,55.174,0.016276,-3.0305,0,0.00026491,0.083261,0
16640,54.3,18.266,0,-10,0,16661,55.174,0.016276,-3.0305,0,0.00026491,0.083261,0
16640,54.3,18.266,0,-10,0,16661,55.174,0.016276,-3.0305,0,0.00026491,0.083261,0
16640,54.3,18.266,0,-10,0,16661,55.053,0.016276,-3.0305,0,0.00026491,0.08328,0
16640,54.3,18.266,0,-10,0,16661,55.053,0.016276,-3.0305,0,0.00026491,0.08328,0
16640,54.3,18.266,0,-10,0,16661,54.993,0.016276,-3.0305,0,0.00026491,0.083289,0
16640,54.3,18.266,0,-10,0,16661,54.993,0.016276,-3.0305,0,0.00026491,0.083289,0
16642,54.3,17.266,0,-10,0,16661,54.871,0.016276,-3.0305,0,-0.00026491,0.091203,0
16642,54.3,17.266,0,-10,0,16661,54.871,0.016276,-3.0305,0,-0.00026491,0.091203,0
16642,54.3,17.266,0,-10,0,16661,54.75,0.016276,-3.0305,0,-0.00026491,0.091219,0
16642,54.3,17.266,0,-10,0,16661,54.75,0.016276,-3.0305,0,-0.00026491,0.091219,0
16642,54.3,17.266,0,-10,0,16661,54.69,0.016276,-3.0305,0,-0.00026491,0.091226,0
16642,54.3,17.266,0,-10,0,16661,54.629,0.016276,-3.0305,0,-0.00026491,0.091231,0
16642,54.3,17.266,0,-10,0,16661,54.629,0.016276,-3.0305,0,-0.00026491,0.091231,0
16642,54.3,17.266,0,-10,0,16661,54.629,0.016276,-3.0305,0,-0.00026491,0.091231,0
16642,54.3,17.266,0,-10,0,16661,54.568,0.032552,-3.0305,0.13563,0,0.091301,0
16642,54.3,17.266,0,-10,0,16661,54.568,0.032552,-3.0305,0.13563,0,0.091301,0
16642,54.3,17.266,0,-10,0,16661,54.568,0.032552,-3.0305,0.13563,0,0.091301,0
16642,54.3,17.266,0,-10,0,16661,54.508,0.032552,-3.0305,0.13563,0,0.091304,0
16642,54.3,17.266,0,-10,0,16661,54.447,0.032552,-3.0305,0.13563,0,0.091307,0
16642,54.3,17.266,0,-10,0,16661,54.447,0.032552,-3.0305,0.13563,0,0.091307,0
16642,54.3,17.266,0,-10,0,16661,54.447,0.032552,-3.0305,0.13563,0,0.091307,0
16642,54.3,17.266,0,-10,0,16661,54.387,0.032552,-3.0305,0.13563,0,0.091309,0
16645,54.3,15.666,0,-10,0,16661,54.387,0.032552,-3.0305,0.13563,0,0.10628,0
16645,54.3,15.666,0,-10,0,16661,54.265,0.032552,-3.0305,0.13563,0,0.10627,0
16645,54.3,15.666,0,-10,0,16661,54.265,0.032552,-3.0305,0.13563,0,0.10627,0
16645,54.3,15.666,0,-10,0,16661,54.265,0.032552,-3.0305,0.13563,0,0.10627,0
16645,54.3,15.666,0,-10,0,16661,54.265,0.032552,-3.0305,0.13563,0,0.10627,0
16645,54.3,15.666,0,-10,0,16661,54.265,0.032552,-3.0305,0.13563,0,0.10627,0
16645,54.3,15.666,0,-10,0,16661,54.265,0.032552,-3.0305,0.13563,0,0.10627,0
16645,54.3,15.666,0,-10,0,16661,54.265,0.032552,-3.0305,0.13563,0,0.10627,0
16645,54.3,15.666,0,-10,0,16661,54.265,0.032552,-3.0305,0.13563,0,0.10627,0
16645,54.3,15.666,0,-10,0,16661,54.205,0.016276,-3.0305,-0.13563,0,0.10618,0
16646,54.3,15.066,0,-10,0,16661,54.205,0.016276,-3.0305,-0.13563,0,0.11264,0
16646,54.3,15.066,0,-10,0,16661,54.205,0.016276,-3.0305,-0.13563,0,0.11264,0
16646,54.3,15.066,0,-10,0,16661,54.205,0.016276,-3.0305,-0.13563,0,0.11264,0
16646,54.3,15.066,0,-10,0,16661,54.083,0.016276,-3.0305,-0.13563,0,0.11263,0
16646,54.3,15.066,0,-10,0,16661,54.083,0.016276,-3.0305,-0.13563,0,0.11263,0
16647,54.3,14.266,0,-10,0,16661,54.083,0.016276,-3.0305,-0.13563,0,0.12209,0
16647,54.3,14.266,0,-10,0,16661,53.841,0.016276,-3.0305,0,0,0.12202,0
16647,54.3,14.266,0,-10,0,16661,53.841,0.016276,-3.0305,0,0,0.12202,0
16647,54.3,14.266,0,-10,0,16661,53.841,0.016276,-3.0305,0,0,0.12202,0
16647,54.3,13.866,0,-10,0,16661,53.841,0.016276,-3.0305,0,0,0.12713,0
16647,54.3,13.866,0,-10,0,16661,53.841,0.016276,-3.0305,0,0,0.12713,0
16647,54.3,13.866,0,-10,0,16661,53.72,0.016276,-3.0305,0,0,0.12709,0
16647,54.3,13.866,0,-10,0,16661,53.659,0.016276,-3.0305,0,0,0.12704,0
16647,54.3,13.866,0,-10,0,16661,53.659,0.016276,-3.0305,0,0,0.12704,0
16647,54.3,13.866,0,-10,0,16661,53.659,0.016276,-3.0305,0,0,0.12704,0
16647,54.3,13.866,0,-10,0,16661,53.659,0.016276,-3.0305,0,0,0.12704,0
16647,54.3,13.866,0,-10,0,16661,53.659,0.016276,-3.0305,0,0,0.12704,0
16648,54.3,13.066,0,-10,0,16661,53.599,0.016276,-3.0305,0,0,0.13807,0
16648,54.3,13.066,0,-10,0,16661,53.599,0.016276,-3.0305,0,0,0.13807,0
16648,54.3,13.066,0,-10,0,16661,53.477,0.016276,-3.0305,0,0,0.13799,0
16648,54.3,13.066,0,-10,0,16661,53.477,0.016276,-3.0305,0,0,0.13799,0
16648,54.3,13.066,0,-10,0,16661,53.477,0.016276,-3.0305,0,0,0.13799,0
16648,54.3,13.066,0,-10,0,16661,53.477,0.016276,-3.0305,0,0,0.13799,0
16648,54.3,13.066,0,-10,0,16661,53.477,0.016276,-3.0305,0,0,0.13799,0
16648,54.3,13.066,0,-10,0,16661,53.477,0.016276,-3.0305,0,0,0.13799,0
16648,54.3,13.066,0,-10,0,16661,53.417,0.016276,-3.0305,0,0,0.13794,0
16649,54.3,12.266,0,-10,0,16661,53.417,0.016276,-3.0305,0,0,0.15021,0
16649,54.3,12.266,0,-10,0,16661,53.417,0.016276,-3.0305,0,0,0.15021,0
16649,54.3,12.266,0,-10,0,16661,53.417,0.016276,-3.0305,0,0,0.15021,0
16649,54.3,12.266,0,-10,0,16661,53.417,0.016276,-3.0305,0,0,0.15021,0
16649,54.3,12.266,0,-10,0,16661,53.235,0.016276,-3.0305,0,0,0.14998,0
16649,54.3,12.266,0,-10,0,16661,53.235,0.016276,-3.0305,0,0,0.14998,0
16650,54.3,11.666,0,-10,0,16661,53.235,0.016276,-3.0305,0,0,0.16003,0
16650,54.3,11.666,0,-10,0,16661,53.053,0.016276,-3.0305,0,0,0.1597,0
16650,54.3,11.666,0,-10,0,16661,53.053,0.016276,-3.0305,0,0,0.1597,0
16651,54.3,11.266,0,-10,0,16661,53.053,0.016276,-3.0305,0,0,0.16681,0
16651,54.3,11.266,0,-10,0,16661,53.053,0.016276,-3.0305,0,0,0.16681,0
16651,54.3,11.266,0,-10,0,16661,52.932,0.016276,-3.0305,0,0,0.16656,0
16651,54.3,11.266,0,-10,0,16661,52.871,0.016276,-3.0305,0,0,0.16643,0
16651,54.3,11.266,0,-10,0,16661,52.811,0.016276,-3.0305,0,0,0.16629,0
16651,54.3,11.266,0,-10,0,16661,52.811,0.016276,-3.0305,0,0,0.16629,0
16651,54.3,11.124,0,3.1774,0,16661,52.811,0.016276,-3.0305,0,0,0.1818,0
16652,54.3,11.188,0,3.169,0,16661,52.811,0.016276,-3.0305,0,0,0.18617,0
16652,54.3,11.188,0,3.169,0,16661,52.811,0.016276,-3.0305,0,0,0.18617,0
16652,54.3,11.188,0,3.169,0,16661,52.811,0.016276,-3.0305,0,0,0.18617,0
16652,54.3,11.188,0,3.169,0,16661,52.811,0.016276,-3.0305,0,0,0.18617,0
16652,54.3,11.188,0,3.169,0,16661,52.811,0.016276,-3.0305,0,0,0.18617,0
16652,54.3,11.188,0,3.169,0,16661,52.811,0.016276,-3.0305,0,0,0.18617,0
16652,54.3,11.188,0,3.169,0,16661,52.811,0.016276,-3.0305,0,0,0.18617,0
16652,54.3,11.188,0,3.169,0,16661,52.811,0.016276,-3.0305,0,0,0.18617,0
16652,54.3,11.188,0,3.169,0,16661,52.629,0.032552,-3.0305,0.13563,0,0.18565,0
16652,54.3,11.188,0,3.169,0,16661,52.629,0.032552,-3.0305,0.13563,0,0.18565,0
16652,54.3,11.314,0,3.1518,0,16661,52.629,0.032552,-3.0305,0.13563,0,0.19502,0
16652,54.3,11.314,0,3.1518,0,16661,52.629,0.032552,-3.0305,0.13563,0,0.19502,0
16652,54.3,11.314,0,3.1518,0,16661,52.629,0.032552,-3.0305,0.13563,0,0.19502,0
16652,54.3,11.314,0,3.1518,0,16661,52.629,0.032552,-3.0305,0.13563,0,0.19502,0
16652,54.3,11.314,0,3.1518,0,16661,52.629,0.032552,-3.0305,0.13563,0,0.19502,0
16652,54.3,11.314,0,3.1518,0,16661,52.629,0.032552,-3.0305,0.13563,0,0.19502,0
16652,54.3,11.314,0,3.1518,0,16661,52.629,0.032552,-3.0305,0.13563,0,0.19502,0
16653,54.3,11.503,0,3.125,0,16661,52.508,0.032552,-3.0305,0.13563,0,0.21047,0
16653,54.3,11.503,0,3.125,0,16661,52.326,0.016276,-3.0305,-0.13563,0,0.20922,0
16653,54.3,11.503,0,3.125,0,16661,52.265,0.016276,-3.0305,-0.13563,0,0.20884,0
16653,54.3,11.503,0,3.125,0,16661,52.265,0.016276,-3.0305,-0.13563,0,0.20884,0
16653,54.3,11.503,0,3.125,0,16661,52.205,0.016276,-3.0305,-0.13563,0,0.2084,0
16654,54.3,11.874,0,3.0682,0,16661,52.205,0.016276,-3.0305,-0.13563,0,0.24942,0
16654,54.3,11.874,0,3.0682,0,16661,52.205,0.016276,-3.0305,-0.13563,0,0.24942,0
16654,54.3,11.874,0,3.0682,0,16661,52.205,0.016276,-3.0305,-0.13563,0,0.24942,0
16654,54.3,11.874,0,3.0682,0,16661,52.205,0.016276,-3.0305,-0.13563,0,0.24942,0
16654,54.3,11.874,0,3.0682,0,16661,52.205,0.016276,-3.0305,-0.13563,0,0.24942,0
16654,54.3,11.874,0,3.0682,0,16661,52.205,0.016276,-3.0305,-0.13563,0,0.24942,0
16654,54.3,11.874,0,3.0682,0,16661,52.205,0.016276,-3.0305,-0.13563,0,0.24942,0
16654,54.3,11.936,0,3.0583,0,16661,52.205,0.016276,-3.0305,-0.13563,0,0.25795,0
16654,54.3,11.936,0,3.0583,0,16661,52.205,0.016276,-3.0305,-0.13563,0,0.25795,0
16655,54.3,11.997,0,3.0483,0,16661,52.205,0.016276,-3.0305,-0.13563,0,0.26709,0
16655,54.3,11.997,0,3.0483,0,16661,52.205,0.016276,-3.0305,-0.13563,0,0.26709,0
16655,54.3,11.997,0,3.0483,0,16661,52.205,0.016276,-3.0305,-0.13563,0,0.26709,0
16655,54.3,11.997,0,3.0483,0,16661,52.205,0.016276,-3.0305,-0.13563,0,0.26709,0
16655,54.3,11.997,0,3.0483,0,16661,52.205,0.016276,-3.0305,-0.13563,0,0.26709,0
16655,54.3,11.997,0,3.0483,0,16661,52.205,0.016276,-3.0305,-0.13563,0,0.26709,0
16655,54.3,11.997,0,3.0483,0,16661,52.205,0.016276,-3.0305,-0.13563,0,0.26709,0
16655,54.3,11.997,0,3.0483,0,16661,52.205,0.016276,-3.0305,-0.13563,0,0.26709,0
16655,54.3,12.179,0,3.0175,0,16661,51.841,0.016276,-3.0305,0,0,0.2915,0
16655,54.3,12.179,0,3.0175,0,16661,51.841,0.016276,-3.0305,0,0,0.2915,0
16655,54.3,12.179,0,3.0175,0,16661,51.659,0.016276,-3.0305,0,0,0.28763,0
16656,54.3,12.299,0,2.9964,0,16661,51.659,0.016276,-3.0305,0,0,0.31033,0
16656,54.3,12.299,0,2.9964,0,16661,51.659,0.016276,-3.0305,0,0,0.31033,0
16656,54.3,12.299,0,2.9964,0,16661,51.538,0.016276,-3.0305,0,0,0.30693,0
16657,54.3,12.537,0,2.9527,0,16661,51.538,0.016276,-3.0305,0,0,0.36126,0
16657,54.3,12.537,0,2.9527,0,16661,51.538,0.016276,-3.0305,0,0,0.36126,0
16657,54.3,12.537,0,2.9527,0,16661,51.538,0.016276,-3.0305,0,0,0.36126,0
16657,54.3,12.537,0,2.9527,0,16661,51.538,0.016276,-3.0305,0,0,0.36126,0
16657,54.3,12.537,0,2.9527,0,16661,51.538,0.016276,-3.0305,0,0,0.36126,0
16657,54.3,12.596,0,2.9416,0,16661,51.538,0.016276,-3.0305,0,0,0.37735,0
16657,54.3,12.596,0,2.9416,0,16661,51.538,0.016276,-3.0305,0,0,0.37735,0
16657,54.3,12.596,0,2.9416,0,16661,51.538,0.016276,-3.0305,0,0,0.37735,0
16657,54.3,12.596,0,2.9416,0,16661,51.538,0.016276,-3.0305,0,0,0.37735,0
16657,54.3,12.596,0,2.9416,0,16661,51.538,0.016276,-3.0305,0,0,0.37735,0
16657,54.3,12.596,0,2.9416,0,16661,51.538,0.016276,-3.0305,0,0,0.37735,0
16657,54.3,12.596,0,2.9416,0,16661,51.235,0.032552,-3.0305,0.13563,0,0.36214,0
16658,54.3,12.713,0,2.9188,0,16661,51.235,0.032552,-3.0305,0.13563,0,0.39314,0
16658,54.3,12.713,0,2.9188,0,16661,51.235,0.032552,-3.0305,0.13563,0,0.39314,0
16658,54.3,12.713,0,2.9188,0,16661,51.235,0.032552,-3.0305,0.13563,0,0.39314,0
16658,54.3,12.713,0,2.9188,0,16661,51.114,0.032552,-3.0305,0.13563,0,0.38546,0
16658,54.3,12.829,0,2.8956,0,16661,51.114,0.032552,-3.0305,0.13563,0,0.41729,0
16658,54.3,12.829,0,2.8956,0,16661,50.871,0.016276,-3.0305,-0.13563,0,0.39829,0
16659,54.3,13.059,0,2.8479,0,16661,50.871,0.016276,-3.0305,-0.13563,0,0.45421,0
16659,54.3,13.059,0,2.8479,0,16661,50.871,0.016276,-3.0305,-0.13563,0,0.45421,0
16659,54.3,13.116,0,2.8357,0,16661,50.871,0.016276,-3.0305,-0.13563,0,0.46647,0
16659,54.3,13.116,0,2.8357,0,16661,50.871,0.016276,-3.0305,-0.13563,0,0.46647,0
16659,54.3,13.116,0,2.8357,0,16661,50.871,0.016276,-3.0305,-0.13563,0,0.46647,0
16660,54.3,13.172,0,2.8234,0,16661,50.871,0.016276,-3.0305,-0.13563,0,0.47725,0
16660,54.3,13.172,0,2.8234,0,16661,50.871,0.016276,-3.0305,-0.13563,0,0.47725,0
16660,54.3,13.229,0,2.811,0,16661,50.871,0.016276,-3.0305,-0.13563,0,0.48608,0
16660,54.3,13.229,0,2.811,0,16661,50.871,0.016276,-3.0305,-0.13563,0,0.48608,0
16660,54.3,13.229,0,2.811,0,16661,50.568,0.016276,-3.0305,0,0,0.44813,0
16660,54.3,13.229,0,2.811,0,16661,50.568,0.016276,-3.0305,0,0,0.44813,0
16660,54.3,13.229,0,2.811,0,16661,50.507,0.016276,-3.0305,0,0,0.44123,0
16660,54.3,13.229,0,2.811,0,16661,50.507,0.016276,-3.0305,0,0,0.44123,0
16661,54.3,13.396,0,2.7732,0,16661,50.507,0.016276,-3.0305,0,0,0.44953,0
16661,54.3,13.396,0,2.7732,0,16661,50.507,0.016276,-3.0305,0,0,0.44953,0
16661,54.3,13.452,0,2.7604,0,16661,50.507,0.016276,-3.0305,0,0,0.44798,0
16661,54.3,13.452,0,2.7604,0,16661,50.507,0.016276,-3.0305,0,0,0.44798,0
16661,54.3,13.452,0,2.7604,0,16661,50.507,0.016276,-3.0305,0,0,0.44798,0
16662,54.3,13.562,0,2.7344,0,16661,50.327,0.016276,-3.0305,0,0,0.41943,0
16662,54.3,13.562,0,2.7344,0,16661,50.327,0.016276,-3.0305,0,0,0.41943,0
16662,54.3,13.562,0,2.7344,0,16661,50.327,0.016276,-3.0305,0,0,0.41943,0
16662,54.3,13.562,0,2.7344,0,16661,50.211,0.016276,-2.9775,0,0.44187,0.40806,0
16662,54.3,13.562,0,2.7344,0,16661,50.211,0.016276,-2.9775,0,0.44187,0.40806,0
16662,54.3,13.724,0,2.6948,0,16661,50.155,0.016276,-2.9775,0,0.44187,0.38131,0
16662,54.3,13.724,0,2.6948,0,16661,50.155,0.016276,-2.9775,0,0.44187,0.38131,0
16662,54.3,13.724,0,2.6948,0,16661,50.155,0.016276,-2.9775,0,0.44187,0.38131,0
16662,54.3,13.724,0,2.6948,0,16661,50.155,0.016276,-2.9775,0,0.44187,0.38131,0
16662,54.3,13.724,0,2.6948,0,16661,50.155,0.016276,-2.9775,0,0.44187,0.38131,0
16663,54.3,13.778,0,2.6815,0,16661,50.155,0.016276,-2.9775,0,0.44187,0.37214,0
16663,54.3,13.778,0,2.6815,0,16661,50.155,0.016276,-2.9775,0,0.44187,0.37214,0
16663,54.3,13.832,0,2.668,0,16661,50.155,0.016276,-2.9775,0,0.44187,0.36232,0
16663,54.3,13.832,0,2.668,0,16661,50.155,0.016276,-2.9775,0,0.44187,0.36232,0
16663,54.3,13.832,0,2.668,0,16661,50.155,0.016276,-2.9775,0,0.44187,0.36232,0
16663,54.3,13.832,0,2.668,0,16661,50.155,0.016276,-2.9775,0,0.44187,0.36232,0
16663,54.3,13.832,0,2.668,0,16661,50.155,0.016276,-2.9775,0,0.44187,0.36232,0
16663,54.3,13.832,0,2.668,0,16661,50.155,0.016276,-2.9775,0,0.44187,0.36232,0
16663,54.3,13.832,0,2.668,0,16661,50.155,0.016276,-2.9775,0,0.44187,0.36232,0
16663,54.3,13.885,0,2.6544,0,16661,50.155,0.016276,-2.9775,0,0.44187,0.35205,0
16663,54.3,13.885,0,2.6544,0,16661,49.844,0.016276,-2.6517,0,2.7148,0.33361,0
16663,54.3,13.885,0,2.6544,0,16661,49.844,0.016276,-2.6517,0,2.7148,0.33361,0
16663,54.3,13.885,0,2.6544,0,16661,49.844,0.016276,-2.6517,0,2.7148,0.33361,0
16663,54.3,13.885,0,2.6544,0,16661,49.796,0.016276,-2.6517,0,2.7148,0.33099,0
16664,54.3,14.095,0,2.5993,0,16661,49.796,0.016276,-2.6517,0,2.7148,0.2951,0
16664,54.3,14.095,0,2.5993,0,16661,49.796,0.016276,-2.6517,0,2.7148,0.2951,0
16664,54.3,14.095,0,2.5993,0,16661,49.661,0.016276,-2.6517,0,2.7148,0.28978,0
16665,54.3,14.25,0,2.5571,0,16661,49.661,0.016276,-2.6517,0,2.7148,0.26469,0
16666,54.3,14.301,0,2.5429,0,16661,49.661,0.016276,-2.6517,0,2.7148,0.25667,0
16666,54.3,14.301,0,2.5429,0,16661,49.661,0.016276,-2.6517,0,2.7148,0.25667,0
16666,54.3,14.301,0,2.5429,0,16661,49.661,0.016276,-2.6517,0,2.7148,0.25667,0
16666,54.3,14.301,0,2.5429,0,16661,49.536,0.016276,-2.288,0,3.0308,0.25334,0
16666,54.3,14.301,0,2.5429,0,16661,49.536,0.016276,-2.288,0,3.0308,0.25334,0
16666,54.3,14.301,0,2.5429,0,16661,49.497,0.016276,-2.288,0,3.0308,0.25235,0
16666,54.3,14.301,0,2.5429,0,16661,49.497,0.016276,-2.288,0,3.0308,0.25235,0
16666,54.3,14.301,0,2.5429,0,16661,49.497,0.016276,-2.288,0,3.0308,0.25235,0
16666,54.3,14.301,0,2.5429,0,16661,49.497,0.016276,-2.288,0,3.0308,0.25235,0
16666,54.3,14.301,0,2.5429,0,16661,49.497,0.016276,-2.288,0,3.0308,0.25235,0
16666,54.3,14.301,0,2.5429,0,16661,49.497,0.016276,-2.288,0,3.0308,0.25235,0
16666,54.3,14.452,0,2.4998,0,16661,49.497,0.016276,-2.288,0,3.0308,0.23077,0
16666,54.3,14.452,0,2.4998,0,16661,49.497,0.016276,-2.288,0,3.0308,0.23077,0
16666,54.3,14.452,0,2.4998,0,16661,49.497,0.016276,-2.288,0,3.0308,0.23077,0
16666,54.3,14.452,0,2.4998,0,16661,49.497,0.016276,-2.288,0,3.0308,0.23077,0
16667,54.3,14.551,0,2.4708,0,16661,49.423,0.016276,-2.288,0,3.0308,0.21627,0
16667,54.3,14.551,0,2.4708,0,16661,49.423,0.016276,-2.288,0,3.0308,0.21627,0
16667,54.3,14.551,0,2.4708,0,16661,49.353,0.016276,-1.9244,0,3.03,0.21509,0
16668,54.3,14.698,0,2.4267,0,16661,49.353,0.016276,-1.9244,0,3.03,0.19758,0
16668,54.3,14.698,0,2.4267,0,16661,49.353,0.016276,-1.9244,0,3.03,0.19758,0
16668,54.3,14.795,0,2.3971,0,16661,49.257,0.016276,-1.9244,0,3.03,0.18591,0
16668,54.3,14.795,0,2.3971,0,16661,49.257,0.016276,-1.9244,0,3.03,0.18591,0
16668,54.3,14.795,0,2.3971,0,16661,49.257,0.016276,-1.9244,0,3.03,0.18591,0
16668,54.3,14.795,0,2.3971,0,16661,49.257,0.016276,-1.9244,0,3.03,0.18591,0
16668,54.3,14.795,0,2.3971,0,16661,49.2,0.016276,-1.5607,0,3.0308,0.1853,0
16669,54.3,14.89,0,2.3672,0,16661,49.2,0.016276,-1.5607,0,3.0308,0.17576,0
16669,54.3,14.937,0,2.3522,0,16661,49.2,0.016276,-1.5607,0,3.0308,0.17127,0
16669,54.3,14.937,0,2.3522,0,16661,49.2,0.016276,-1.5607,0,3.0308,0.17127,0
16669,54.3,14.937,0,2.3522,0,16661,49.2,0.016276,-1.5607,0,3.0308,0.17127,0
16670,54.3,15.031,0,2.322,0,16661,49.123,0.016276,-1.5607,0,3.0308,0.1622,0
16670,54.3,15.031,0,2.322,0,16661,49.123,0.016276,-1.5607,0,3.0308,0.1622,0
16670,54.3,15.031,0,2.322,0,16661,49.123,0.016276,-1.5607,0,3.0308,0.1622,0
16670,54.3,15.031,0,2.322,0,16661,49.123,0.016276,-1.5607,0,3.0308,0.1622,0
16670,54.3,15.077,0,2.3069,0,16661,49.123,0.016276,-1.5607,0,3.0308,0.15824,0
16670,54.3,15.077,0,2.3069,0,16661,49.123,0.016276,-1.5607,0,3.0308,0.15824,0
16670,54.3,15.077,0,2.3069,0,16661,49.123,0.016276,-1.5607,0,3.0308,0.15824,0
16670,54.3,15.077,0,2.3069,0,16661,49.123,0.016276,-1.5607,0,3.0308,0.15824,0
16671,54.3,15.123,0,2.2917,0,16661,49.123,0.016276,-1.5607,0,3.0308,0.15443,0
16671,54.3,15.123,0,2.2917,0,16661,49.123,0.016276,-1.5607,0,3.0308,0.15443,0
16671,54.3,15.123,0,2.2917,0,16661,49.123,0.016276,-1.5607,0,3.0308,0.15443,0
16671,54.3,15.123,0,2.2917,0,16661,49.123,0.016276,-1.5607,0,3.0308,0.15443,0
16671,54.3,15.123,0,2.2917,0,16661,49.123,0.016276,-1.5607,0,3.0308,0.15443,0
16671,54.3,15.123,0,2.2917,0,16661,49.123,0.016276,-1.5607,0,3.0308,0.15443,0
16671,54.3,15.123,0,2.2917,0,16661,49.123,0.016276,-1.5607,0,3.0308,0.15443,0
16671,54.3,15.123,0,2.2917,0,16661,49.123,0.016276,-1.5607,0,3.0308,0.15443,0
16671,54.3,15.169,0,2.2765,0,16661,49.123,0.016276,-1.5607,0,3.0308,0.15077,0
16671,54.3,15.169,0,2.2765,0,16661,49.123,0.016276,-1.5607,0,3.0308,0.15077,0
16671,54.3,15.169,0,2.2765,0,16661,49.088,0,-0.93187,-0.13563,5.2402,0.15045,0
16671,54.3,15.169,0,2.2765,0,16661,49.088,0,-0.93187,-0.13563,5.2402,0.15045,0
16671,54.3,15.169,0,2.2765,0,16661,49.088,0,-0.93187,-0.13563,5.2402,0.15045,0
16671,54.3,15.169,0,2.2765,0,16661,49.088,0,-0.93187,-0.13563,5.2402,0.15045,0
16673,54.3,15.48,0,2.169,0,16661,49.088,0,-0.93187,-0.13563,5.2402,0.12844,0
16673,54.3,15.48,0,2.169,0,16661,49.088,0,-0.93187,-0.13563,5.2402,0.12844,0
16673,54.3,15.523,0,2.1536,0,16661,49.088,0,-0.93187,-0.13563,5.2402,0.12573,0
16673,54.3,15.523,0,2.1536,0,16661,49.088,0,-0.93187,-0.13563,5.2402,0.12573,0
16673,54.3,15.523,0,2.1536,0,16661,49.088,0,0,0,7.7656,0.12573,0
16673,54.3,15.523,0,2.1536,0,16661,49.088,0,0,0,7.7656,0.12573,0
16673,54.3,15.523,0,2.1536,0,16661,49.088,0,0,0,7.7656,0.12573,0
16673,54.3,15.523,0,2.1536,0,16661,49.088,0,0,0,7.7656,0.12573,0
16673,54.3,15.523,0,2.1536,0,16661,49.088,0,0,0,7.7656,0.12573,0
16673,54.3,15.523,0,2.1536,0,16661,49.088,0,0,0,0,0.12573,0
16673,54.3,15.523,0,2.1536,0,16661,49.088,0,0,0,0,0.12573,0
16673,54.3,15.523,0,2.1536,0,16661,49.088,0,0,0,0,0.12573,0
16673,54.3,15.523,0,2.1536,0,16661,49.088,0,0,0,0,0.12573,0
16673,54.3,15.523,0,2.1536,0,16661,49.088,0,0,0,0,0.12573,0
16673,54.3,15.523,0,2.1536,0,16661,49.088,0,0,0,0,0.12573,0
16673,54.3,15.523,0,2.1536,0,16661,49.088,0,0,0,0,0.12573,0
16673,54.3,15.523,0,2.1536,0,16661,49.088,0,0,0,0,0.12573,0
16675,54.3,15.817,0,2.045,0,16661,49.088,0,0,0,0,0.10923,0
16675,54.3,15.817,0,2.045,0,16661,49.088,0,0,0,0,0.10923,0
16676,54.3,15.858,0,2.0294,0,16661,49.088,0,0,0,0,0.10718,0
16676,54.3,15.938,0,1.9983,0,16661,49.088,0,0,0,0,0.10327,0
16677,54.3,15.978,0,1.9828,0,16661,49.088,0,0,0,0,0.10141,0
16677,54.3,15.978,0,1.9828,0,16661,49.088,0,0,0,0,0.10141,0
16677,54.3,15.978,0,1.9828,0,16661,49.088,0,0,0,0,0.10141,0
16677,54.3,15.978,0,1.9828,0,16661,49.088,0,0,0,0,0.10141,0
16677,54.3,15.978,0,1.9828,0,16661,49.088,0,0,0,0,0.10141,0
16677,54.3,15.978,0,1.9828,0,16661,49.088,0,0,0,0,0.10141,0
16677,54.3,15.978,0,1.9828,0,16661,49.088,0,0,0,0,0.10141,0
16677,54.3,15.978,0,1.9828,0,16661,49.088,0,0,0,0,0.10141,0
16677,54.3,15.978,0,1.9828,0,16661,49.088,0,0,0,0,0.10141,0
16677,54.3,15.978,0,1.9828,0,16661,49.088,0,0,0,0,0.10141,0
16677,54.3,15.978,0,1.9828,0,16661,49.088,0,0,0,0,0.10141,0
16677,54.3,15.978,0,1.9828,0,16661,49.088,0,0,0,0,0.10141,0
16677,54.3,16.057,0,1.9517,0,16661,49.088,0,0,0,0,0.097859,0
16677,54.3,16.057,0,1.9517,0,16661,49.088,0,0,0,0,0.097859,0
16677,54.3,16.057,0,1.9517,0,16661,49.088,0,0,0,0,0.097859,0
16677,54.3,16.057,0,1.9517,0,16661,49.088,0,0,0,0,0.097859,0
16678,54.3,16.096,0,1.9362,0,16661,49.088,0,0,0,0,0.096164,0
16678,54.3,16.096,0,1.9362,0,16661,49.088,0,0,0,0,0.096164,0
16678,54.3,16.096,0,1.9362,0,16661,49.088,0,0,0,0,0.096164,0
16678,54.3,16.096,0,1.9362,0,16661,49.088,0,0,0,0,0.096164,0
16678,54.3,16.096,0,1.9362,0,16661,49.088,0,0,0,0,0.096164,0
16679,54.3,16.248,0,1.8742,0,16661,49.088,0,0,0,0,0.089876,0
16679,54.3,16.248,0,1.8742,0,16661,49.088,0,0,0,0,0.089876,0
16680,54.3,16.359,0,1.8279,0,16661,49.088,0,0,0,0,0.085622,0
16680,54.3,16.359,0,1.8279,0,16661,49.088,0,0,0,0,0.085622,0
16680,54.3,16.396,0,1.8126,0,16661,49.088,0,0,0,0,0.084284,0
16680,54.3,16.396,0,1.8126,0,16661,49.088,0,0,0,0,0.084284,0
16680,54.3,16.396,0,1.8126,0,16661,49.088,0,0,0,0,0.084284,0
16680,54.3,16.396,0,1.8126,0,16661,49.088,0,0,0,0,0.084284,0
16680,54.3,16.396,0,1.8126,0,16661,49.088,0,0,0,0,0.084284,0
16680,54.3,16.396,0,1.8126,0,16661,49.088,0,0,0,0,0.084284,0
16680,54.3,16.396,0,1.8126,0,16661,49.088,0,0,0,0,0.084284,0
16680,54.3,16.396,0,1.8126,0,16661,49.088,0,0,0,0,0.084284,0
16680,54.3,16.396,0,1.8126,0,16661,49.088,0,0,0,0,0.084284,0
16680,54.3,16.396,0,1.8126,0,16661,49.088,0,0,0,0,0.084284,0
16680,54.3,16.396,0,1.8126,0,16661,49.088,0,0,0,0,0.084284,0
16680,54.3,16.396,0,1.8126,0,16661,49.088,0,0,0,0,0.084284,0
16682,54.3,16.608,0,1.7209,0,16661,49.088,0,0,0,0,0.07698,0
16682,54.3,16.608,0,1.7209,0,16661,49.088,0,0,0,0,0.07698,0
16683,54.3,16.676,0,1.6907,0,16661,49.088,0,0,0,0,0.074793,0
16683,54.3,16.676,0,1.6907,0,16661,49.088,0,0,0,0,0.074793,0
16683,54.3,16.676,0,1.6907,0,16661,49.088,0,0,0,0,0.074793,0
16683,54.3,16.676,0,1.6907,0,16661,49.088,0,0,0,0,0.074793,0
16683,54.3,16.676,0,1.6907,0,16661,49.088,0,0,0,0,0.074793,0
16683,54.3,16.676,0,1.6907,0,16661,49.088,0,0,0,0,0.074793,0
16683,54.3,16.676,0,1.6907,0,16661,49.088,0,0,0,0,0.074793,0
16683,54.3,16.676,0,1.6907,0,16661,49.088,0,0,0,0,0.074793,0
16683,54.3,16.71,0,1.6756,0,16661,49.088,0,0,0,0,0.073741,0
16683,54.3,16.71,0,1.6756,0,16661,49.088,0,0,0,0,0.073741,0
16683,54.3,16.71,0,1.6756,0,16661,49.088,0,0,0,0,0.073741,0
16683,54.3,16.71,0,1.6756,0,16661,49.088,0,0,0,0,0.073741,0
16683,54.3,16.71,0,1.6756,0,16661,49.088,0,0,0,0,0.073741,0
16683,54.3,16.71,0,1.6756,0,16661,49.088,0,0,0,0,0.073741,0
16683,54.3,16.71,0,1.6756,0,16661,49.088,0,0,0,0,0.073741,0
16683,54.3,16.71,0,1.6756,0,16661,49.088,0,0,0,0,0.073741,0
16683,54.3,16.71,0,1.6756,0,16661,49.088,0,0,0,0,0.073741,0
16683,54.3,16.71,0,1.6756,0,16661,49.088,0,0,0,0,0.073741,0
16683,54.3,16.71,0,1.6756,0,16661,49.088,0,0,0,0,0.073741,0
16685,54.3,16.873,0,1.6009,0,16661,49.088,0,0,0,0,0.068861,0
16685,54.3,16.873,0,1.6009,0,16661,49.088,0,0,0,0,0.068861,0
16685,54.3,16.905,0,1.5861,0,16661,49.088,0,0,0,0,0.067954,0
16686,54.3,16.968,0,1.5567,0,16661,49.088,0,0,0,0,0.066204,0
16686,54.3,16.968,0,1.5567,0,16661,49.088,0,0,0,0,0.066204,0
16686,54.3,16.968,0,1.5567,0,16661,49.088,0,0,0,0,0.066204,0
16687,54.3,17.06,0,1.513,0,16661,49.088,0,0,0,0,0.063728,0
16687,54.3,17.06,0,1.513,0,16661,49.088,0,0,0,0,0.063728,0
16687,54.3,17.06,0,1.513,0,16661,49.088,0,0,0,0,0.063728,0
16687,54.3,17.06,0,1.513,0,16661,49.088,0,0,0,0,0.063728,0
16687,54.3,17.06,0,1.513,0,16661,49.088,0,0,0,0,0.063728,0
16687,54.3,17.06,0,1.513,0,16661,49.088,0,0,0,0,0.063728,0
16687,54.3,17.06,0,1.513,0,16661,49.088,0,0,0,0,0.063728,0
16687,54.3,17.06,0,1.513,0,16661,49.088,0,0,0,0,0.063728,0
16687,54.3,17.06,0,1.513,0,16661,49.088,0,0,0,0,0.063728,0
16687,54.3,17.06,0,1.513,0,16661,49.088,0,0,0,0,0.063728,0
16688,54.3,17.12,0,1.4842,0,16661,49.088,0,0,0,0,0.06217,0
16688,54.3,17.12,0,1.4842,0,16661,49.088,0,0,0,0,0.06217,0
16688,54.3,17.12,0,1.4842,0,16661,49.088,0,0,0,0,0.06217,0
16688,54.3,17.12,0,1.4842,0,16661,49.088,0,0,0,0,0.06217,0
16688,54.3,17.179,0,1.4556,0,16661,49.088,0,0,0,0,0.060679,0
16688,54.3,17.179,0,1.4556,0,16661,49.088,0,0,0,0,0.060679,0
16689,54.3,17.237,0,1.4273,0,16661,49.088,0,0,0,0,0.059252,0
16690,54.3,17.321,0,1.3853,0,16661,49.088,0,0,0,0,0.057223,0
16690,54.3,17.349,0,1.3715,0,16661,49.088,0,0,0,0,0.056575,0
16690,54.3,17.349,0,1.3715,0,16661,49.088,0,0,0,0,0.056575,0
16690,54.3,17.349,0,1.3715,0,16661,49.088,0,0,0,0,0.056575,0
16691,54.3,17.376,0,1.3577,0,16661,49.088,0,0,0,0,0.05594,0
16691,54.3,17.376,0,1.3577,0,16661,49.088,0,0,0,0,0.05594,0
16691,54.3,17.376,0,1.3577,0,16661,49.088,0,0,0,0,0.05594,0
16691,54.3,17.376,0,1.3577,0,16661,49.088,0,0,0,0,0.05594,0
16691,54.3,17.376,0,1.3577,0,16661,49.088,0,0,0,0,0.05594,0
16691,54.3,17.376,0,1.3577,0,16661,49.088,0,0,0,0,0.05594,0
16691,54.3,17.376,0,1.3577,0,16661,49.088,0,0,0,0,0.05594,0
16691,54.3,17.376,0,1.3577,0,16661,49.088,0,0,0,0,0.05594,0
16691,54.3,17.376,0,1.3577,0,16661,49.088,0,0,0,0,0.05594,0
16691,54.3,17.376,0,1.3577,0,16661,49.088,0,0,0,0,0.05594,0
16691,54.3,17.403,0,1.344,0,16661,49.088,0,0,0,0,0.055318,0
16691,54.3,17.403,0,1.344,0,16661,49.088,0,0,0,0,0.055318,0
16691,54.3,17.403,0,1.344,0,16661,49.088,0,0,0,0,0.055318,0
16691,54.3,17.403,0,1.344,0,16661,49.088,0,0,0,0,0.055318,0
16691,54.3,17.403,0,1.344,0,16661,49.088,0,0,0,0,0.055318,0
16691,54.3,17.403,0,1.344,0,16661,49.088,0,0,0,0,0.055318,0
16691,54.3,17.403,0,1.344,0,16661,49.088,0,0,0,0,0.055318,0
16691,54.3,17.43,0,1.3304,0,16661,49.088,0,0,0,0,0.054709,0
16692,54.3,17.482,0,1.3034,0,16661,49.088,0,0,0,0,0.053526,0
16693,54.3,17.559,0,1.2631,0,16661,49.088,0,0,0,0,0.051837,0
16695,54.3,17.658,0,1.2037,0,16661,49.088,0,0,0,0,0.049733,0
16695,54.3,17.658,0,1.2037,0,16661,49.088,0,0,0,0,0.049733,0
16695,54.3,17.658,0,1.2037,0,16661,49.088,0,0,0,0,0.049733,0
16695,54.3,17.658,0,1.2037,0,16661,49.088,0,0,0,0,0.049733,0
16695,54.3,17.658,0,1.2037,0,16661,49.088,0,0,0,0,0.049733,0
16695,54.3,17.658,0,1.2037,0,16661,49.088,0,0,0,0,0.049733,0
16695,54.3,17.658,0,1.2037,0,16661,49.088,0,0,0,0,0.049733,0
16695,54.3,17.658,0,1.2037,0,16661,49.088,0,0,0,0,0.049733,0
16695,54.3,17.658,0,1.2037,0,16661,49.088,0,0,0,0,0.049733,0
16695,54.3,17.658,0,1.2037,0,16661,49.088,0,0,0,0,0.049733,0
16695,54.3,17.658,0,1.2037,0,16661,49.088,0,0,0,0,0.049733,0
16695,54.3,17.658,0,1.2037,0,16661,49.088,0,0,0,0,0.049733,0
16695,54.3,17.658,0,1.2037,0,16661,49.088,0,0,0,0,0.049733,0
16695,54.3,17.658,0,1.2037,0,16661,49.088,0,0,0,0,0.049733,0
16695,54.3,17.658,0,1.2037,0,16661,49.088,0,0,0,0,0.049733,0
16695,54.3,17.658,0,1.2037,0,16661,49.088,0,0,0,0,0.049733,0
16695,54.3,17.658,0,1.2037,0,16661,49.088,0,0,0,0,0.049733,0
16695,54.3,17.705,0,1.175,0,16661,49.088,0,0,0,0,0.048739,0
16695,54.3,17.705,0,1.175,0,16661,49.088,0,0,0,0,0.048739,0
16695,54.3,17.705,0,1.175,0,16661,49.088,0,0,0,0,0.048739,0
16696,54.3,17.729,0,1.1609,0,16661,49.088,0,0,0,0,0.048256,0
16696,54.3,17.729,0,1.1609,0,16661,49.088,0,0,0,0,0.048256,0
16696,54.3,17.729,0,1.1609,0,16661,49.088,0,0,0,0,0.048256,0
16698,54.3,17.863,0,1.0795,0,16661,49.088,0,0,0,0,0.045532,0
16699,54.3,17.906,0,1.0536,0,16661,49.088,0,0,0,0,0.044686,0
16699,54.3,17.906,0,1.0536,0,16661,49.088,0,0,0,0,0.044686,0
16699,54.3,17.927,0,1.0409,0,16661,49.088,0,0,0,0,0.044275,0
16699,54.3,17.927,0,1.0409,0,16661,49.088,0,0,0,0,0.044275,0
16699,54.3,17.927,0,1.0409,0,16661,49.088,0,0,0,0,0.044275,0
16699,54.3,17.927,0,1.0409,0,16661,49.088,0,0,0,0,0.044275,0
16699,54.3,17.927,0,1.0409,0,16661,49.088,0,0,0,0,0.044275,0
16699,54.3,17.927,0,1.0409,0,16661,49.088,0,0,0,0,0.044275,0
16699,54.3,17.927,0,1.0409,0,16661,49.088,0,0,0,0,0.044275,0
16699,54.3,17.927,0,1.0409,0,16661,49.088,0,0,0,0,0.044275,0
16699,54.3,17.927,0,1.0409,0,16661,49.088,0,0,0,0,0.044275,0
16699,54.3,17.927,0,1.0409,0,16661,49.088,0,0,0,0,0.044275,0
16699,54.3,17.927,0,1.0409,0,16661,49.088,0,0,0,0,0.044275,0
16699,54.3,17.927,0,1.0409,0,16661,49.088,0,0,0,0,0.044275,0
16699,54.3,17.927,0,1.0409,0,16661,49.088,0,0,0,0,0.044275,0
16700,54.3,17.968,0,1.0159,0,16661,49.088,0,0,0,0,0.043471,0
16700,54.3,17.968,0,1.0159,0,16661,49.088,0,0,0,0,0.043471,0
16700,54.3,17.968,0,1.0159,0,16661,49.088,0,0,0,0,0.043471,0
16700,54.3,17.968,0,1.0159,0,16661,49.088,0,0,0,0,0.043471,0
16700,54.3,18.008,0,0.99143,0,16661,49.088,0,0,0,0,0.042695,0
16700,54.3,18.008,0,0.99143,0,16661,49.088,0,0,0,0,0.042695,0
16700,54.3,18.008,0,0.99143,0,16661,49.088,0,0,0,0,0.042695,0
16702,54.3,18.104,0,0.93271,0,16661,49.088,0,0,0,0,0.040862,0
16702,54.3,18.104,0,0.93271,0,16661,49.088,0,0,0,0,0.040862,0
16702,54.3,18.104,0,0.93271,0,16661,49.088,0,0,0,0,0.040862,0
16702,54.3,18.104,0,0.93271,0,16661,49.088,0,0,0,0,0.040862,0
16703,54.3,18.141,0,0.91016,0,16661,49.088,0,0,0,0,0.04017,0
16703,54.3,18.141,0,0.91016,0,16661,49.088,0,0,0,0,0.04017,0
16703,54.3,18.141,0,0.91016,0,16661,49.088,0,0,0,0,0.04017,0
16703,54.3,18.141,0,0.91016,0,16661,49.088,0,0,0,0,0.04017,0
16703,54.3,18.141,0,0.91016,0,16661,49.088,0,0,0,0,0.04017,0
16703,54.3,18.141,0,0.91016,0,16661,49.088,0,0,0,0,0.04017,0
16703,54.3,18.141,0,0.91016,0,16661,49.088,0,0,0,0,0.04017,0
16703,54.3,18.141,0,0.91016,0,16661,49.088,0,0,0,0,0.04017,0
16703,54.3,18.141,0,0.91016,0,16661,49.088,0,0,0,0,0.04017,0
16703,54.3,18.141,0,0.91016,0,16661,49.088,0,0,0,0,0.04017,0
16703,54.3,18.141,0,0.91016,0,16661,49.088,0,0,0,0,0.04017,0
16704,54.3,18.212,0,0.8666,0,16661,49.088,0,0,0,0,0.038849,0
16704,54.3,18.212,0,0.8666,0,16661,49.088,0,0,0,0,0.038849,0
16704,54.3,18.212,0,0.8666,0,16661,49.088,0,0,0,0,0.038849,0
16704,54.3,18.212,0,0.8666,0,16661,49.088,0,0,0,0,0.038849,0
16704,54.3,18.212,0,0.8666,0,16661,49.088,0,0,0,0,0.038849,0
16704,54.3,18.212,0,0.8666,0,16661,49.088,0,0,0,0,0.038849,0
16704,54.3,18.212,0,0.8666,0,16661,49.088,0,0,0,0,0.038849,0
16704,54.3,18.212,0,0.8666,0,16661,49.088,0,0,0,0,0.038849,0
16706,54.3,18.28,0,0.82504,0,16661,49.088,0,0,0,0,0.037607,0
16706,54.3,18.28,0,0.82504,0,16661,49.088,0,0,0,0,0.037607,0
16706,54.3,18.28,0,0.82504,0,16661,49.088,0,0,0,0,0.037607,0
16706,54.3,18.28,0,0.82504,0,16661,49.088,0,0,0,0,0.037607,0
16707,54.3,18.312,0,0.80497,0,16661,49.088,0,0,0,0,0.037013,0
16707,54.3,18.312,0,0.80497,0,16661,49.088,0,0,0,0,0.037013,0
