-19.95,33.49,-19.697,12.751,-17.753,21.049,-19.265,14.04,2.7154,21.214,-16.567,22.267,-0.40121,14.501,1.6355,9.7954
-19.998,33.367,-19.719,12.707,-17.801,20.961,-19.323,13.97,2.7224,21.151,-16.549,22.195,-0.39239,14.457,1.6361,9.7281
-19.998,33.367,-19.719,12.707,-17.801,20.961,-19.323,13.97,2.7224,21.151,-16.549,22.195,-0.39239,14.457,1.6361,9.7281
-20.046,33.245,-19.74,12.663,-17.849,20.873,-19.381,13.899,2.7293,21.089,-16.53,22.125,-0.3834,14.414,1.6373,9.6615
-20.046,33.245,-19.74,12.663,-17.849,20.873,-19.381,13.899,2.7293,21.089,-16.53,22.125,-0.3834,14.414,1.6373,9.6615
-20.094,33.124,-19.761,12.62,-17.896,20.785,-19.438,13.829,2.7362,21.027,-16.512,22.055,-0.37425,14.371,1.6392,9.5955
-20.094,33.124,-19.761,12.62,-17.896,20.785,-19.438,13.829,2.7362,21.027,-16.512,22.055,-0.37425,14.371,1.6392,9.5955
-20.094,33.124,-19.761,12.62,-17.896,20.785,-19.438,13.829,2.7362,21.027,-16.512,22.055,-0.37425,14.371,1.6392,9.5955
-20.094,33.124,-19.761,12.62,-17.896,20.785,-19.438,13.829,2.7362,21.027,-16.512,22.055,-0.37425,14.371,1.6392,9.5955
-20.19,32.885,-19.8,12.535,-17.99,20.613,-19.548,13.69,2.7496,20.905,-16.473,21.916,-0.35544,14.286,1.645,9.4653
-20.19,32.885,-19.8,12.535,-17.99,20.613,-19.548,13.69,2.7496,20.905,-16.473,21.916,-0.35544,14.286,1.645,9.4653
-20.239,32.767,-19.818,12.492,-18.037,20.527,-19.602,13.621,2.7563,20.845,-16.454,21.848,-0.3458,14.244,1.649,9.4012
-20.239,32.767,-19.818,12.492,-18.037,20.527,-19.602,13.621,2.7563,20.845,-16.454,21.848,-0.3458,14.244,1.649,9.4012
-20.288,32.65,-19.836,12.451,-18.083,20.443,-19.654,13.553,2.7628,20.785,-16.434,21.781,-0.33599,14.203,1.6536,9.3376
-20.288,32.65,-19.836,12.451,-18.083,20.443,-19.654,13.553,2.7628,20.785,-16.434,21.781,-0.33599,14.203,1.6536,9.3376
-20.338,32.534,-19.853,12.409,-18.129,20.359,-19.706,13.484,2.7693,20.726,-16.414,21.714,-0.32603,14.162,1.659,9.2747
-20.338,32.534,-19.853,12.409,-18.129,20.359,-19.706,13.484,2.7693,20.726,-16.414,21.714,-0.32603,14.162,1.659,9.2747
-20.387,32.419,-19.869,12.368,-18.175,20.275,-19.757,13.417,2.7756,20.668,-16.393,21.648,-0.31592,14.121,1.665,9.2124
-20.387,32.419,-19.869,12.368,-18.175,20.275,-19.757,13.417,2.7756,20.668,-16.393,21.648,-0.31592,14.121,1.665,9.2124
-20.437,32.305,-19.884,12.327,-18.22,20.192,-19.807,13.349,2.7819,20.61,-16.373,21.583,-0.30565,14.081,1.6718,9.1508
-20.437,32.305,-19.884,12.327,-18.22,20.192,-19.807,13.349,2.7819,20.61,-16.373,21.583,-0.30565,14.081,1.6718,9.1508
-20.437,32.305,-19.884,12.327,-18.22,20.192,-19.807,13.349,2.7819,20.61,-16.373,21.583,-0.30565,14.081,1.6718,9.1508
-20.487,32.192,-19.899,12.287,-18.265,20.11,-19.856,13.282,2.7881,20.553,-16.352,21.518,-0.29523,14.041,1.6793,9.0897
-20.487,32.192,-19.899,12.287,-18.265,20.11,-19.856,13.282,2.7881,20.553,-16.352,21.518,-0.29523,14.041,1.6793,9.0897
-20.487,32.192,-19.899,12.287,-18.265,20.11,-19.856,13.282,2.7881,20.553,-16.352,21.518,-0.29523,14.041,1.6793,9.0897
-20.589,31.969,-19.926,12.207,-18.354,19.948,-19.951,13.15,2.8002,20.441,-16.309,21.391,-0.27396,13.962,1.6963,8.9697
-20.589,31.969,-19.926,12.207,-18.354,19.948,-19.951,13.15,2.8002,20.441,-16.309,21.391,-0.27396,13.962,1.6963,8.9697
-20.64,31.859,-19.939,12.168,-18.398,19.868,-19.997,13.084,2.8062,20.385,-16.287,21.329,-0.26311,13.923,1.7059,8.9106
-20.64,31.859,-19.939,12.168,-18.398,19.868,-19.997,13.084,2.8062,20.385,-16.287,21.329,-0.26311,13.923,1.7059,8.9106
-20.691,31.75,-19.951,12.129,-18.442,19.788,-20.042,13.019,2.812,20.331,-16.265,21.267,-0.25212,13.884,1.7163,8.8522
-20.691,31.75,-19.951,12.129,-18.442,19.788,-20.042,13.019,2.812,20.331,-16.265,21.267,-0.25212,13.884,1.7163,8.8522
-20.691,31.75,-19.951,12.129,-18.442,19.788,-20.042,13.019,2.812,20.331,-16.265,21.267,-0.25212,13.884,1.7163,8.8522
-20.742,31.642,-19.962,12.091,-18.485,19.709,-20.086,12.954,2.8177,20.277,-16.242,21.206,-0.24099,13.846,1.7273,8.7944
-20.794,31.535,-19.972,12.052,-18.528,19.631,-20.129,12.889,2.8233,20.223,-16.219,21.146,-0.22972,13.808,1.7391,8.7374
-20.847,31.43,-19.982,12.015,-18.571,19.554,-20.171,12.825,2.8289,20.17,-16.196,21.086,-0.21832,13.77,1.7516,8.681
-20.847,31.43,-19.982,12.015,-18.571,19.554,-20.171,12.825,2.8289,20.17,-16.196,21.086,-0.21832,13.77,1.7516,8.681
-20.847,31.43,-19.982,12.015,-18.571,19.554,-20.171,12.825,2.8289,20.17,-16.196,21.086,-0.21832,13.77,1.7516,8.681
-20.899,31.325,-19.991,11.977,-18.613,19.477,-20.212,12.761,2.8343,20.118,-16.173,21.027,-0.20679,13.733,1.7648,8.6252
-20.899,31.325,-19.991,11.977,-18.613,19.477,-20.212,12.761,2.8343,20.118,-16.173,21.027,-0.20679,13.733,1.7648,8.6252
-20.952,31.221,-20,11.94,-18.655,19.401,-20.252,12.698,2.8396,20.066,-16.149,20.969,-0.19513,13.696,1.7788,8.5701
-20.952,31.221,-20,11.94,-18.655,19.401,-20.252,12.698,2.8396,20.066,-16.149,20.969,-0.19513,13.696,1.7788,8.5701
-20.952,31.221,-20,11.94,-18.655,19.401,-20.252,12.698,2.8396,20.066,-16.149,20.969,-0.19513,13.696,1.7788,8.5701
-21.005,31.119,-20.007,11.903,-18.697,19.325,-20.291,12.635,2.8448,20.015,-16.125,20.912,-0.18334,13.66,1.7935,8.5158
-21.005,31.119,-20.007,11.903,-18.697,19.325,-20.291,12.635,2.8448,20.015,-16.125,20.912,-0.18334,13.66,1.7935,8.5158
-21.112,30.917,-20.021,11.831,-18.779,19.176,-20.367,12.511,2.8549,19.915,-16.077,20.799,-0.15939,13.588,1.825,8.409
-21.112,30.917,-20.021,11.831,-18.779,19.176,-20.367,12.511,2.8549,19.915,-16.077,20.799,-0.15939,13.588,1.825,8.409
-21.166,30.818,-20.026,11.795,-18.82,19.103,-20.403,12.45,2.8597,19.865,-16.052,20.744,-0.14724,13.553,1.8419,8.3567
-21.166,30.818,-20.026,11.795,-18.82,19.103,-20.403,12.45,2.8597,19.865,-16.052,20.744,-0.14724,13.553,1.8419,8.3567
-21.166,30.818,-20.026,11.795,-18.82,19.103,-20.403,12.45,2.8597,19.865,-16.052,20.744,-0.14724,13.553,1.8419,8.3567
-21.166,30.818,-20.026,11.795,-18.82,19.103,-20.403,12.45,2.8597,19.865,-16.052,20.744,-0.14724,13.553,1.8419,8.3567
-21.22,30.72,-20.031,11.76,-18.86,19.03,-20.438,12.389,2.8645,19.817,-16.027,20.689,-0.13497,13.517,1.8596,8.3051
-21.22,30.72,-20.031,11.76,-18.86,19.03,-20.438,12.389,2.8645,19.817,-16.027,20.689,-0.13497,13.517,1.8596,8.3051
-21.274,30.623,-20.035,11.725,-18.9,18.958,-20.472,12.328,2.8691,19.769,-16.001,20.636,-0.12258,13.483,1.8779,8.2542
-21.274,30.623,-20.035,11.725,-18.9,18.958,-20.472,12.328,2.8691,19.769,-16.001,20.636,-0.12258,13.483,1.8779,8.2542
-21.329,30.527,-20.039,11.691,-18.94,18.886,-20.505,12.268,2.8737,19.721,-15.976,20.583,-0.11007,13.448,1.8971,8.2039
-21.329,30.527,-20.039,11.691,-18.94,18.886,-20.505,12.268,2.8737,19.721,-15.976,20.583,-0.11007,13.448,1.8971,8.2039
-21.44,30.338,-20.044,11.623,-19.018,18.746,-20.569,12.149,2.8824,19.628,-15.923,20.479,-0.084733,13.38,1.9375,8.1056
-21.44,30.338,-20.044,11.623,-19.018,18.746,-20.569,12.149,2.8824,19.628,-15.923,20.479,-0.084733,13.38,1.9375,8.1056
-21.44,30.338,-20.044,11.623,-19.018,18.746,-20.569,12.149,2.8824,19.628,-15.923,20.479,-0.084733,13.38,1.9375,8.1056
-21.496,30.245,-20.046,11.589,-19.056,18.676,-20.599,12.091,2.8865,19.583,-15.897,20.428,-0.071901,13.347,1.9589,8.0575
-21.496,30.245,-20.046,11.589,-19.056,18.676,-20.599,12.091,2.8865,19.583,-15.897,20.428,-0.071901,13.347,1.9589,8.0575
-21.552,30.154,-20.046,11.556,-19.095,18.608,-20.628,12.032,2.8906,19.538,-15.87,20.378,-0.058964,13.314,1.981,8.0101
-21.552,30.154,-20.046,11.556,-19.095,18.608,-20.628,12.032,2.8906,19.538,-15.87,20.378,-0.058964,13.314,1.981,8.0101
-21.608,30.064,-20.047,11.524,-19.132,18.54,-20.656,11.975,2.8945,19.494,-15.843,20.329,-0.045923,13.281,2.0038,7.9634
-21.665,29.974,-20.046,11.492,-19.17,18.472,-20.684,11.917,2.8983,19.45,-15.815,20.28,-0.032782,13.249,2.0275,7.9175
-21.665,29.974,-20.046,11.492,-19.17,18.472,-20.684,11.917,2.8983,19.45,-15.815,20.28,-0.032782,13.249,2.0275,7.9175
-21.665,29.974,-20.046,11.492,-19.17,18.472,-20.684,11.917,2.8983,19.45,-15.815,20.28,-0.032782,13.249,2.0275,7.9175
-21.722,29.886,-20.045,11.46,-19.207,18.406,-20.71,11.861,2.9019,19.407,-15.787,20.232,-0.019542,13.217,2.0518,7.8723
-21.722,29.886,-20.045,11.46,-19.207,18.406,-20.71,11.861,2.9019,19.407,-15.787,20.232,-0.019542,13.217,2.0518,7.8723
-21.722,29.886,-20.045,11.46,-19.207,18.406,-20.71,11.861,2.9019,19.407,-15.787,20.232,-0.019542,13.217,2.0518,7.8723
-21.779,29.799,-20.044,11.428,-19.244,18.34,-20.735,11.804,2.9054,19.365,-15.759,20.185,-0.006205,13.185,2.0769,7.8278
-21.779,29.799,-20.044,11.428,-19.244,18.34,-20.735,11.804,2.9054,19.365,-15.759,20.185,-0.006205,13.185,2.0769,7.8278
-21.836,29.713,-20.041,11.397,-19.28,18.275,-20.759,11.748,2.9088,19.323,-15.731,20.139,0.0072267,13.154,2.1028,7.784
-21.894,29.629,-20.038,11.367,-19.316,18.211,-20.782,11.693,2.9121,19.282,-15.702,20.093,0.020751,13.122,2.1294,7.741
-21.952,29.545,-20.035,11.336,-19.352,18.147,-20.805,11.638,2.9152,19.241,-15.673,20.049,0.034366,13.092,2.1568,7.6987
-21.952,29.545,-20.035,11.336,-19.352,18.147,-20.805,11.638,2.9152,19.241,-15.673,20.049,0.034366,13.092,2.1568,7.6987
-22.011,29.463,-20.03,11.306,-19.387,18.084,-20.826,11.584,2.9182,19.201,-15.644,20.005,0.04807,13.061,2.185,7.6572
-22.011,29.463,-20.03,11.306,-19.387,18.084,-20.826,11.584,2.9182,19.201,-15.644,20.005,0.04807,13.061,2.185,7.6572
-22.07,29.382,-20.025,11.277,-19.422,18.022,-20.846,11.53,2.9211,19.162,-15.614,19.962,0.06186,13.031,2.2139,7.6164
-22.07,29.382,-20.025,11.277,-19.422,18.022,-20.846,11.53,2.9211,19.162,-15.614,19.962,0.06186,13.031,2.2139,7.6164
-22.129,29.301,-20.02,11.248,-19.456,17.96,-20.865,11.477,2.9238,19.123,-15.585,19.919,0.075735,13.001,2.2435,7.5763
-22.129,29.301,-20.02,11.248,-19.456,17.96,-20.865,11.477,2.9238,19.123,-15.585,19.919,0.075735,13.001,2.2435,7.5763
-22.129,29.301,-20.02,11.248,-19.456,17.96,-20.865,11.477,2.9238,19.123,-15.585,19.919,0.075735,13.001,2.2435,7.5763
-22.188,29.223,-20.014,11.219,-19.49,17.899,-20.884,11.424,2.9264,19.086,-15.555,19.877,0.089692,12.972,2.274,7.537
-22.188,29.223,-20.014,11.219,-19.49,17.899,-20.884,11.424,2.9264,19.086,-15.555,19.877,0.089692,12.972,2.274,7.537
-22.248,29.145,-20.007,11.19,-19.524,17.839,-20.901,11.371,2.9288,19.048,-15.524,19.836,0.10373,12.943,2.3052,7.4985
-22.308,29.068,-20,11.162,-19.557,17.78,-20.917,11.32,2.9311,19.011,-15.493,19.796,0.11785,12.914,2.3371,7.4607
-22.308,29.068,-20,11.162,-19.557,17.78,-20.917,11.32,2.9311,19.011,-15.493,19.796,0.11785,12.914,2.3371,7.4607
-22.308,29.068,-20,11.162,-19.557,17.78,-20.917,11.32,2.9311,19.011,-15.493,19.796,0.11785,12.914,2.3371,7.4607
-22.369,28.993,-19.992,11.135,-19.59,17.721,-20.933,11.268,2.9332,18.975,-15.462,19.757,0.13204,12.885,2.3698,7.4237
-22.369,28.993,-19.992,11.135,-19.59,17.721,-20.933,11.268,2.9332,18.975,-15.462,19.757,0.13204,12.885,2.3698,7.4237
-22.369,28.993,-19.992,11.135,-19.59,17.721,-20.933,11.268,2.9332,18.975,-15.462,19.757,0.13204,12.885,2.3698,7.4237
-22.429,28.919,-19.983,11.108,-19.623,17.663,-20.947,11.217,2.9352,18.94,-15.431,19.718,0.14631,12.857,2.4033,7.3874
-22.49,28.846,-19.974,11.081,-19.655,17.606,-20.96,11.167,2.9371,18.905,-15.399,19.681,0.16065,12.829,2.4375,7.3519
-22.552,28.774,-19.964,11.054,-19.687,17.55,-20.972,11.117,2.9388,18.871,-15.367,19.644,0.17506,12.801,2.4725,7.3172
-22.552,28.774,-19.964,11.054,-19.687,17.55,-20.972,11.117,2.9388,18.871,-15.367,19.644,0.17506,12.801,2.4725,7.3172
-22.613,28.703,-19.954,11.028,-19.718,17.494,-20.984,11.068,2.9403,18.838,-15.335,19.607,0.18954,12.774,2.5083,7.2833
-22.613,28.703,-19.954,11.028,-19.718,17.494,-20.984,11.068,2.9403,18.838,-15.335,19.607,0.18954,12.774,2.5083,7.2833
-22.613,28.703,-19.954,11.028,-19.718,17.494,-20.984,11.068,2.9403,18.838,-15.335,19.607,0.18954,12.774,2.5083,7.2833
-22.675,28.634,-19.943,11.003,-19.749,17.439,-20.994,11.019,2.9417,18.805,-15.303,19.572,0.20408,12.747,2.5448,7.2501
-22.675,28.634,-19.943,11.003,-19.749,17.439,-20.994,11.019,2.9417,18.805,-15.303,19.572,0.20408,12.747,2.5448,7.2501
-22.738,28.565,-19.932,10.978,-19.779,17.384,-21.003,10.971,2.943,18.772,-15.27,19.537,0.21869,12.72,2.5821,7.2177
-22.738,28.565,-19.932,10.978,-19.779,17.384,-21.003,10.971,2.943,18.772,-15.27,19.537,0.21869,12.72,2.5821,7.2177
-22.8,28.498,-19.919,10.953,-19.81,17.331,-21.012,10.924,2.9441,18.741,-15.237,19.503,0.23337,12.694,2.6201,7.1861
-22.8,28.498,-19.919,10.953,-19.81,17.331,-21.012,10.924,2.9441,18.741,-15.237,19.503,0.23337,12.694,2.6201,7.1861
-22.863,28.432,-19.907,10.928,-19.839,17.278,-21.019,10.876,2.945,18.71,-15.204,19.47,0.2481,12.668,2.6589,7.1552
-22.863,28.432,-19.907,10.928,-19.839,17.278,-21.019,10.876,2.945,18.71,-15.204,19.47,0.2481,12.668,2.6589,7.1552
-22.927,28.367,-19.894,10.904,-19.869,17.226,-21.025,10.83,2.9458,18.679,-15.17,19.438,0.2629,12.642,2.6985,7.1252
-22.927,28.367,-19.894,10.904,-19.869,17.226,-21.025,10.83,2.9458,18.679,-15.17,19.438,0.2629,12.642,2.6985,7.1252
-22.99,28.304,-19.88,10.881,-19.898,17.175,-21.031,10.784,2.9464,18.65,-15.136,19.406,0.27775,12.617,2.7388,7.0959
-22.99,28.304,-19.88,10.881,-19.898,17.175,-21.031,10.784,2.9464,18.65,-15.136,19.406,0.27775,12.617,2.7388,7.0959
-23.054,28.242,-19.866,10.857,-19.926,17.124,-21.035,10.738,2.9469,18.621,-15.102,19.375,0.29266,12.591,2.7799,7.0674
-23.054,28.242,-19.866,10.857,-19.926,17.124,-21.035,10.738,2.9469,18.621,-15.102,19.375,0.29266,12.591,2.7799,7.0674
-23.119,28.181,-19.851,10.834,-19.955,17.074,-21.039,10.693,2.9472,18.592,-15.067,19.345,0.30762,12.567,2.8218,7.0397
-23.183,28.121,-19.835,10.812,-19.982,17.025,-21.041,10.649,2.9473,18.564,-15.032,19.316,0.32263,12.542,2.8644,7.0128
-23.183,28.121,-19.835,10.812,-19.982,17.025,-21.041,10.649,2.9473,18.564,-15.032,19.316,0.32263,12.542,2.8644,7.0128
-23.183,28.121,-19.835,10.812,-19.982,17.025,-21.041,10.649,2.9473,18.564,-15.032,19.316,0.32263,12.542,2.8644,7.0128
-23.248,28.062,-19.82,10.79,-20.01,16.976,-21.042,10.605,2.9473,18.537,-14.997,19.287,0.3377,12.518,2.9078,6.9867
-23.248,28.062,-19.82,10.79,-20.01,16.976,-21.042,10.605,2.9473,18.537,-14.997,19.287,0.3377,12.518,2.9078,6.9867
-23.248,28.062,-19.82,10.79,-20.01,16.976,-21.042,10.605,2.9473,18.537,-14.997,19.287,0.3377,12.518,2.9078,6.9867
-23.313,28.004,-19.803,10.768,-20.037,16.929,-21.043,10.561,2.9471,18.511,-14.962,19.26,0.35281,12.494,2.9519,6.9614
-23.313,28.004,-19.803,10.768,-20.037,16.929,-21.043,10.561,2.9471,18.511,-14.962,19.26,0.35281,12.494,2.9519,6.9614
-23.313,28.004,-19.803,10.768,-20.037,16.929,-21.043,10.561,2.9471,18.511,-14.962,19.26,0.35281,12.494,2.9519,6.9614
-23.445,27.893,-19.769,10.726,-20.089,16.836,-21.041,10.476,2.9463,18.459,-14.89,19.207,0.38317,12.446,3.0425,6.9132
-23.445,27.893,-19.769,10.726,-20.089,16.836,-21.041,10.476,2.9463,18.459,-14.89,19.207,0.38317,12.446,3.0425,6.9132
-23.445,27.893,-19.769,10.726,-20.089,16.836,-21.041,10.476,2.9463,18.459,-14.89,19.207,0.38317,12.446,3.0425,6.9132
-23.511,27.839,-19.751,10.706,-20.115,16.79,-21.038,10.435,2.9456,18.435,-14.854,19.181,0.39842,12.423,3.0889,6.8904
-23.511,27.839,-19.751,10.706,-20.115,16.79,-21.038,10.435,2.9456,18.435,-14.854,19.181,0.39842,12.423,3.0889,6.8904
-23.511,27.839,-19.751,10.706,-20.115,16.79,-21.038,10.435,2.9456,18.435,-14.854,19.181,0.39842,12.423,3.0889,6.8904
-23.578,27.786,-19.732,10.686,-20.14,16.745,-21.035,10.394,2.9448,18.411,-14.818,19.157,0.41371,12.4,3.1361,6.8683
-23.578,27.786,-19.732,10.686,-20.14,16.745,-21.035,10.394,2.9448,18.411,-14.818,19.157,0.41371,12.4,3.1361,6.8683
-23.712,27.685,-19.694,10.647,-20.19,16.658,-21.025,10.313,2.9426,18.364,-14.744,19.11,0.4444,12.356,3.2327,6.8266
-23.712,27.685,-19.694,10.647,-20.19,16.658,-21.025,10.313,2.9426,18.364,-14.744,19.11,0.4444,12.356,3.2327,6.8266
-23.712,27.685,-19.694,10.647,-20.19,16.658,-21.025,10.313,2.9426,18.364,-14.744,19.11,0.4444,12.356,3.2327,6.8266
-23.779,27.636,-19.674,10.628,-20.214,16.616,-21.019,10.273,2.9412,18.342,-14.707,19.088,0.4598,12.333,3.2821,6.8069
-23.779,27.636,-19.674,10.628,-20.214,16.616,-21.019,10.273,2.9412,18.342,-14.707,19.088,0.4598,12.333,3.2821,6.8069
-23.916,27.541,-19.632,10.591,-20.261,16.533,-21.003,10.196,2.938,18.3,-14.631,19.046,0.49071,12.29,3.3832,6.7701
-23.916,27.541,-19.632,10.591,-20.261,16.533,-21.003,10.196,2.938,18.3,-14.631,19.046,0.49071,12.29,3.3832,6.7701
-23.916,27.541,-19.632,10.591,-20.261,16.533,-21.003,10.196,2.938,18.3,-14.631,19.046,0.49071,12.29,3.3832,6.7701
-23.984,27.496,-19.611,10.574,-20.283,16.493,-20.994,10.158,2.9362,18.279,-14.593,19.026,0.50621,12.269,3.4349,6.7529
-23.984,27.496,-19.611,10.574,-20.283,16.493,-20.994,10.158,2.9362,18.279,-14.593,19.026,0.50621,12.269,3.4349,6.7529
-23.984,27.496,-19.611,10.574,-20.283,16.493,-20.994,10.158,2.9362,18.279,-14.593,19.026,0.50621,12.269,3.4349,6.7529
-24.053,27.452,-19.589,10.556,-20.306,16.453,-20.984,10.121,2.9341,18.26,-14.555,19.007,0.52175,12.248,3.4873,6.7365
-24.053,27.452,-19.589,10.556,-20.306,16.453,-20.984,10.121,2.9341,18.26,-14.555,19.007,0.52175,12.248,3.4873,6.7365
-24.053,27.452,-19.589,10.556,-20.306,16.453,-20.984,10.121,2.9341,18.26,-14.555,19.007,0.52175,12.248,3.4873,6.7365
-24.192,27.367,-19.544,10.523,-20.349,16.376,-20.961,10.049,2.9295,18.222,-14.477,18.971,0.55289,12.207,3.5944,6.7063
-24.192,27.367,-19.544,10.523,-20.349,16.376,-20.961,10.049,2.9295,18.222,-14.477,18.971,0.55289,12.207,3.5944,6.7063
-24.262,27.326,-19.521,10.507,-20.37,16.339,-20.948,10.013,2.9269,18.204,-14.438,18.955,0.5685,12.187,3.649,6.6924
-24.262,27.326,-19.521,10.507,-20.37,16.339,-20.948,10.013,2.9269,18.204,-14.438,18.955,0.5685,12.187,3.649,6.6924
-24.332,27.287,-19.497,10.491,-20.391,16.302,-20.934,9.9783,2.9242,18.187,-14.398,18.939,0.58414,12.167,3.7044,6.6793
-24.332,27.287,-19.497,10.491,-20.391,16.302,-20.934,9.9783,2.9242,18.187,-14.398,18.939,0.58414,12.167,3.7044,6.6793
-24.403,27.249,-19.473,10.476,-20.411,16.267,-20.919,9.944,2.9213,18.17,-14.358,18.924,0.5998,12.148,3.7606,6.6671
-24.403,27.249,-19.473,10.476,-20.411,16.267,-20.919,9.944,2.9213,18.17,-14.358,18.924,0.5998,12.148,3.7606,6.6671
-24.473,27.212,-19.448,10.461,-20.431,16.232,-20.903,9.9103,2.9181,18.154,-14.318,18.909,0.61548,12.128,3.8174,6.6557
-24.545,27.176,-19.423,10.447,-20.451,16.197,-20.886,9.8771,2.9149,18.139,-14.278,18.896,0.63117,12.109,3.875,6.6451
-24.545,27.176,-19.423,10.447,-20.451,16.197,-20.886,9.8771,2.9149,18.139,-14.278,18.896,0.63117,12.109,3.875,6.6451
-24.545,27.176,-19.423,10.447,-20.451,16.197,-20.886,9.8771,2.9149,18.139,-14.278,18.896,0.63117,12.109,3.875,6.6451
-24.616,27.142,-19.398,10.433,-20.47,16.164,-20.869,9.8446,2.9114,18.124,-14.237,18.883,0.64689,12.09,3.9334,6.6354
-24.688,27.109,-19.372,10.419,-20.488,16.131,-20.85,9.8126,2.9077,18.11,-14.197,18.871,0.66262,12.072,3.9924,6.6265
-24.688,27.109,-19.372,10.419,-20.488,16.131,-20.85,9.8126,2.9077,18.11,-14.197,18.871,0.66262,12.072,3.9924,6.6265
-24.688,27.109,-19.372,10.419,-20.488,16.131,-20.85,9.8126,2.9077,18.11,-14.197,18.871,0.66262,12.072,3.9924,6.6265
-24.76,27.077,-19.346,10.406,-20.506,16.099,-20.831,9.7812,2.9039,18.097,-14.156,18.86,0.67836,12.054,4.0522,6.6184
-24.76,27.077,-19.346,10.406,-20.506,16.099,-20.831,9.7812,2.9039,18.097,-14.156,18.86,0.67836,12.054,4.0522,6.6184
-24.76,27.077,-19.346,10.406,-20.506,16.099,-20.831,9.7812,2.9039,18.097,-14.156,18.86,0.67836,12.054,4.0522,6.6184
-24.833,27.046,-19.319,10.393,-20.524,16.067,-20.81,9.7504,2.8999,18.084,-14.114,18.85,0.69412,12.036,4.1128,6.6112
-24.833,27.046,-19.319,10.393,-20.524,16.067,-20.81,9.7504,2.8999,18.084,-14.114,18.85,0.69412,12.036,4.1128,6.6112
-24.833,27.046,-19.319,10.393,-20.524,16.067,-20.81,9.7504,2.8999,18.084,-14.114,18.85,0.69412,12.036,4.1128,6.6112
-24.979,26.988,-19.265,10.369,-20.558,16.007,-20.766,9.6906,2.8913,18.059,-14.031,18.831,0.72567,12,4.236,6.5993
-24.979,26.988,-19.265,10.369,-20.558,16.007,-20.766,9.6906,2.8913,18.059,-14.031,18.831,0.72567,12,4.236,6.5993
-25.053,26.961,-19.237,10.358,-20.575,15.978,-20.743,9.6616,2.8867,18.048,-13.989,18.823,0.74146,11.983,4.2986,6.5946
-25.053,26.961,-19.237,10.358,-20.575,15.978,-20.743,9.6616,2.8867,18.048,-13.989,18.823,0.74146,11.983,4.2986,6.5946
-25.127,26.935,-19.209,10.346,-20.591,15.95,-20.719,9.6332,2.882,18.037,-13.946,18.816,0.75725,11.966,4.362,6.5907
-25.127,26.935,-19.209,10.346,-20.591,15.95,-20.719,9.6332,2.882,18.037,-13.946,18.816,0.75725,11.966,4.362,6.5907
-25.201,26.91,-19.18,10.336,-20.606,15.922,-20.694,9.6053,2.877,18.027,-13.904,18.809,0.77305,11.949,4.4262,6.5877
-25.201,26.91,-19.18,10.336,-20.606,15.922,-20.694,9.6053,2.877,18.027,-13.904,18.809,0.77305,11.949,4.4262,6.5877
-25.275,26.887,-19.151,10.325,-20.621,15.895,-20.668,9.5781,2.8719,18.018,-13.861,18.804,0.78886,11.933,4.491,6.5855
-25.275,26.887,-19.151,10.325,-20.621,15.895,-20.668,9.5781,2.8719,18.018,-13.861,18.804,0.78886,11.933,4.491,6.5855
-25.35,26.864,-19.122,10.315,-20.636,15.869,-20.641,9.5515,2.8666,18.009,-13.818,18.799,0.80467,11.916,4.5565,6.5842
-25.426,26.843,-19.092,10.306,-20.65,15.844,-20.614,9.5255,2.8611,18.001,-13.775,18.795,0.82048,11.9,4.6227,6.5837
-25.426,26.843,-19.092,10.306,-20.65,15.844,-20.614,9.5255,2.8611,18.001,-13.775,18.795,0.82048,11.9,4.6227,6.5837
-25.426,26.843,-19.092,10.306,-20.65,15.844,-20.614,9.5255,2.8611,18.001,-13.775,18.795,0.82048,11.9,4.6227,6.5837
-25.501,26.823,-19.062,10.297,-20.664,15.819,-20.585,9.5001,2.8554,17.993,-13.731,18.791,0.83629,11.884,4.6897,6.5841
-25.501,26.823,-19.062,10.297,-20.664,15.819,-20.585,9.5001,2.8554,17.993,-13.731,18.791,0.83629,11.884,4.6897,6.5841
-25.577,26.805,-19.032,10.288,-20.678,15.795,-20.555,9.4752,2.8495,17.986,-13.687,18.788,0.85211,11.869,4.7573,6.5853
-25.653,26.787,-19.002,10.28,-20.691,15.772,-20.525,9.451,2.8435,17.98,-13.643,18.787,0.86792,11.853,4.8256,6.5874
-25.653,26.787,-19.002,10.28,-20.691,15.772,-20.525,9.451,2.8435,17.98,-13.643,18.787,0.86792,11.853,4.8256,6.5874
-25.73,26.771,-18.971,10.272,-20.703,15.75,-20.494,9.4274,2.8372,17.974,-13.599,18.786,0.88372,11.838,4.8946,6.5903
-25.73,26.771,-18.971,10.272,-20.703,15.75,-20.494,9.4274,2.8372,17.974,-13.599,18.786,0.88372,11.838,4.8946,6.5903
-25.73,26.771,-18.971,10.272,-20.703,15.75,-20.494,9.4274,2.8372,17.974,-13.599,18.786,0.88372,11.838,4.8946,6.5903
-25.807,26.756,-18.939,10.264,-20.715,15.728,-20.462,9.4044,2.8307,17.968,-13.555,18.785,0.89953,11.823,4.9643,6.5941
-25.807,26.756,-18.939,10.264,-20.715,15.728,-20.462,9.4044,2.8307,17.968,-13.555,18.785,0.89953,11.823,4.9643,6.5941
-25.884,26.742,-18.908,10.257,-20.727,15.707,-20.429,9.3821,2.8241,17.963,-13.51,18.786,0.91532,11.809,5.0347,6.5987
-25.884,26.742,-18.908,10.257,-20.727,15.707,-20.429,9.3821,2.8241,17.963,-13.51,18.786,0.91532,11.809,5.0347,6.5987
-25.961,26.729,-18.876,10.251,-20.738,15.687,-20.395,9.3603,2.8173,17.959,-13.465,18.787,0.93111,11.794,5.1058,6.6042
-25.961,26.729,-18.876,10.251,-20.738,15.687,-20.395,9.3603,2.8173,17.959,-13.465,18.787,0.93111,11.794,5.1058,6.6042
-26.039,26.718,-18.844,10.244,-20.749,15.668,-20.36,9.3391,2.8102,17.955,-13.42,18.789,0.9469,11.78,5.1776,6.6105
-26.118,26.708,-18.811,10.239,-20.759,15.649,-20.324,9.3186,2.803,17.952,-13.374,18.792,0.96267,11.766,5.25,6.6177
-26.118,26.708,-18.811,10.239,-20.759,15.649,-20.324,9.3186,2.803,17.952,-13.374,18.792,0.96267,11.766,5.25,6.6177
-26.118,26.708,-18.811,10.239,-20.759,15.649,-20.324,9.3186,2.803,17.952,-13.374,18.792,0.96267,11.766,5.25,6.6177
-26.196,26.699,-18.779,10.233,-20.769,15.631,-20.288,9.2986,2.7956,17.949,-13.329,18.795,0.97843,11.752,5.3231,6.6258
-26.196,26.699,-18.779,10.233,-20.769,15.631,-20.288,9.2986,2.7956,17.949,-13.329,18.795,0.97843,11.752,5.3231,6.6258
-26.196,26.699,-18.779,10.233,-20.769,15.631,-20.288,9.2986,2.7956,17.949,-13.329,18.795,0.97843,11.752,5.3231,6.6258
-26.275,26.691,-18.746,10.228,-20.779,15.614,-20.251,9.2793,2.788,17.947,-13.283,18.799,0.99419,11.738,5.3969,6.6347
-26.275,26.691,-18.746,10.228,-20.779,15.614,-20.251,9.2793,2.788,17.947,-13.283,18.799,0.99419,11.738,5.3969,6.6347
-26.354,26.684,-18.712,10.223,-20.788,15.598,-20.213,9.2606,2.7802,17.946,-13.237,18.804,1.0099,11.725,5.4713,6.6444
-26.354,26.684,-18.712,10.223,-20.788,15.598,-20.213,9.2606,2.7802,17.946,-13.237,18.804,1.0099,11.725,5.4713,6.6444
-26.434,26.679,-18.679,10.219,-20.797,15.582,-20.174,9.2425,2.7722,17.945,-13.191,18.81,1.0256,11.712,5.5464,6.655
-26.513,26.674,-18.645,10.215,-20.805,15.567,-20.134,9.225,2.7641,17.944,-13.144,18.817,1.0414,11.699,5.6221,6.6665
-26.594,26.671,-18.611,10.212,-20.812,15.553,-20.093,9.2082,2.7557,17.944,-13.098,18.824,1.0571,11.686,5.6985,6.6788
-26.594,26.671,-18.611,10.212,-20.812,15.553,-20.093,9.2082,2.7557,17.944,-13.098,18.824,1.0571,11.686,5.6985,6.6788
-26.594,26.671,-18.611,10.212,-20.812,15.553,-20.093,9.2082,2.7557,17.944,-13.098,18.824,1.0571,11.686,5.6985,6.6788
-26.674,26.669,-18.576,10.209,-20.82,15.539,-20.052,9.192,2.7471,17.945,-13.051,18.832,1.0727,11.674,5.7756,6.6919
-26.674,26.669,-18.576,10.209,-20.82,15.539,-20.052,9.192,2.7471,17.945,-13.051,18.832,1.0727,11.674,5.7756,6.6919
-26.755,26.668,-18.542,10.206,-20.827,15.527,-20.009,9.1764,2.7384,17.946,-13.004,18.841,1.0884,11.661,5.8533,6.706
-26.755,26.668,-18.542,10.206,-20.827,15.527,-20.009,9.1764,2.7384,17.946,-13.004,18.841,1.0884,11.661,5.8533,6.706
-26.836,26.669,-18.507,10.204,-20.833,15.515,-19.966,9.1614,2.7294,17.948,-12.956,18.85,1.104,11.649,5.9316,6.7208
-26.917,26.67,-18.472,10.202,-20.839,15.504,-19.922,9.147,2.7203,17.95,-12.909,18.861,1.1197,11.637,6.0105,6.7366
-26.917,26.67,-18.472,10.202,-20.839,15.504,-19.922,9.147,2.7203,17.95,-12.909,18.861,1.1197,11.637,6.0105,6.7366
-26.917,26.67,-18.472,10.202,-20.839,15.504,-19.922,9.147,2.7203,17.95,-12.909,18.861,1.1197,11.637,6.0105,6.7366
-26.999,26.673,-18.437,10.201,-20.845,15.493,-19.878,9.1333,2.7109,17.953,-12.861,18.872,1.1353,11.625,6.0901,6.7532
-26.999,26.673,-18.437,10.201,-20.845,15.493,-19.878,9.1333,2.7109,17.953,-12.861,18.872,1.1353,11.625,6.0901,6.7532
-26.999,26.673,-18.437,10.201,-20.845,15.493,-19.878,9.1333,2.7109,17.953,-12.861,18.872,1.1353,11.625,6.0901,6.7532
-27.081,26.677,-18.401,10.2,-20.85,15.483,-19.832,9.1201,2.7014,17.956,-12.813,18.883,1.1508,11.614,6.1704,6.7706
-27.164,26.682,-18.366,10.2,-20.855,15.474,-19.786,9.1076,2.6917,17.96,-12.765,18.896,1.1664,11.603,6.2512,6.7889
-27.246,26.688,-18.33,10.199,-20.859,15.466,-19.739,9.0958,2.6817,17.964,-12.717,18.909,1.1819,11.591,6.3327,6.8081
-27.246,26.688,-18.33,10.199,-20.859,15.466,-19.739,9.0958,2.6817,17.964,-12.717,18.909,1.1819,11.591,6.3327,6.8081
-27.329,26.696,-18.294,10.2,-20.863,15.458,-19.691,9.0845,2.6716,17.969,-12.669,18.923,1.1974,11.58,6.4148,6.8281
-27.329,26.696,-18.294,10.2,-20.863,15.458,-19.691,9.0845,2.6716,17.969,-12.669,18.923,1.1974,11.58,6.4148,6.8281
-27.329,26.696,-18.294,10.2,-20.863,15.458,-19.691,9.0845,2.6716,17.969,-12.669,18.923,1.1974,11.58,6.4148,6.8281
-27.413,26.704,-18.258,10.2,-20.866,15.451,-19.642,9.0739,2.6613,17.974,-12.62,18.938,1.2129,11.57,6.4974,6.849
-27.413,26.704,-18.258,10.2,-20.866,15.451,-19.642,9.0739,2.6613,17.974,-12.62,18.938,1.2129,11.57,6.4974,6.849
-27.413,26.704,-18.258,10.2,-20.866,15.451,-19.642,9.0739,2.6613,17.974,-12.62,18.938,1.2129,11.57,6.4974,6.849
-27.496,26.714,-18.221,10.201,-20.869,15.445,-19.592,9.0639,2.6508,17.98,-12.571,18.953,1.2284,11.559,6.5807,6.8707
-27.496,26.714,-18.221,10.201,-20.869,15.445,-19.592,9.0639,2.6508,17.98,-12.571,18.953,1.2284,11.559,6.5807,6.8707
-27.58,26.725,-18.185,10.203,-20.872,15.44,-19.542,9.0546,2.6401,17.986,-12.522,18.97,1.2438,11.548,6.6646,6.8933
-27.58,26.725,-18.185,10.203,-20.872,15.44,-19.542,9.0546,2.6401,17.986,-12.522,18.97,1.2438,11.548,6.6646,6.8933
-27.749,26.75,-18.111,10.207,-20.875,15.431,-19.439,9.0377,2.6181,18,-12.424,19.004,1.2746,11.528,6.8342,6.941
-27.749,26.75,-18.111,10.207,-20.875,15.431,-19.439,9.0377,2.6181,18,-12.424,19.004,1.2746,11.528,6.8342,6.941
-27.749,26.75,-18.111,10.207,-20.875,15.431,-19.439,9.0377,2.6181,18,-12.424,19.004,1.2746,11.528,6.8342,6.941
-27.834,26.764,-18.074,10.21,-20.877,15.428,-19.387,9.0303,2.6069,18.007,-12.375,19.022,1.2899,11.518,6.9198,6.9661
-27.834,26.764,-18.074,10.21,-20.877,15.428,-19.387,9.0303,2.6069,18.007,-12.375,19.022,1.2899,11.518,6.9198,6.9661
-27.919,26.78,-18.036,10.213,-20.877,15.425,-19.334,9.0234,2.5954,18.015,-12.325,19.041,1.3052,11.508,7.0061,6.9921
-27.919,26.78,-18.036,10.213,-20.877,15.425,-19.334,9.0234,2.5954,18.015,-12.325,19.041,1.3052,11.508,7.0061,6.9921
-28.005,26.796,-17.999,10.216,-20.878,15.424,-19.28,9.0172,2.5837,18.024,-12.275,19.061,1.3205,11.499,7.0929,7.0189
-28.005,26.796,-17.999,10.216,-20.878,15.424,-19.28,9.0172,2.5837,18.024,-12.275,19.061,1.3205,11.499,7.0929,7.0189
-28.091,26.814,-17.962,10.22,-20.878,15.422,-19.225,9.0116,2.5719,18.033,-12.225,19.082,1.3357,11.489,7.1803,7.0466
-28.177,26.833,-17.924,10.224,-20.877,15.422,-19.169,9.0067,2.5598,18.042,-12.175,19.103,1.3509,11.48,7.2682,7.0751
-28.177,26.833,-17.924,10.224,-20.877,15.422,-19.169,9.0067,2.5598,18.042,-12.175,19.103,1.3509,11.48,7.2682,7.0751
-28.263,26.852,-17.886,10.229,-20.876,15.422,-19.113,9.0024,2.5476,18.052,-12.125,19.125,1.3661,11.471,7.3567,7.1045
-28.263,26.852,-17.886,10.229,-20.876,15.422,-19.113,9.0024,2.5476,18.052,-12.125,19.125,1.3661,11.471,7.3567,7.1045
-28.263,26.852,-17.886,10.229,-20.876,15.422,-19.113,9.0024,2.5476,18.052,-12.125,19.125,1.3661,11.471,7.3567,7.1045
-28.35,26.873,-17.848,10.234,-20.875,15.423,-19.056,8.9987,2.5352,18.063,-12.075,19.147,1.3813,11.462,7.4458,7.1348
-28.35,26.873,-17.848,10.234,-20.875,15.423,-19.056,8.9987,2.5352,18.063,-12.075,19.147,1.3813,11.462,7.4458,7.1348
-28.437,26.896,-17.81,10.24,-20.873,15.425,-18.999,8.9957,2.5225,18.074,-12.024,19.171,1.3964,11.453,7.5354,7.1658
-28.524,26.919,-17.772,10.246,-20.871,15.428,-18.94,8.9933,2.5097,18.085,-11.973,19.195,1.4114,11.445,7.6255,7.1978
-28.524,26.919,-17.772,10.246,-20.871,15.428,-18.94,8.9933,2.5097,18.085,-11.973,19.195,1.4114,11.445,7.6255,7.1978
-28.524,26.919,-17.772,10.246,-20.871,15.428,-18.94,8.9933,2.5097,18.085,-11.973,19.195,1.4114,11.445,7.6255,7.1978
-28.612,26.943,-17.734,10.252,-20.868,15.431,-18.881,8.9915,2.4967,18.097,-11.923,19.219,1.4265,11.436,7.7162,7.2305
-28.612,26.943,-17.734,10.252,-20.868,15.431,-18.881,8.9915,2.4967,18.097,-11.923,19.219,1.4265,11.436,7.7162,7.2305
-28.699,26.968,-17.696,10.259,-20.865,15.435,-18.821,8.9903,2.4835,18.109,-11.872,19.245,1.4415,11.428,7.8075,7.2642
-28.699,26.968,-17.696,10.259,-20.865,15.435,-18.821,8.9903,2.4835,18.109,-11.872,19.245,1.4415,11.428,7.8075,7.2642
-28.788,26.995,-17.657,10.266,-20.862,15.44,-18.761,8.9898,2.4702,18.121,-11.821,19.271,1.4564,11.42,7.8992,7.2986
-28.788,26.995,-17.657,10.266,-20.862,15.44,-18.761,8.9898,2.4702,18.121,-11.821,19.271,1.4564,11.42,7.8992,7.2986
-28.788,26.995,-17.657,10.266,-20.862,15.44,-18.761,8.9898,2.4702,18.121,-11.821,19.271,1.4564,11.42,7.8992,7.2986
-28.876,27.023,-17.619,10.273,-20.858,15.445,-18.7,8.99,2.4566,18.134,-11.769,19.297,1.4714,11.412,7.9915,7.3339
-28.965,27.051,-17.58,10.281,-20.853,15.451,-18.638,8.9907,2.4428,18.148,-11.718,19.325,1.4862,11.404,8.0843,7.37
-28.965,27.051,-17.58,10.281,-20.853,15.451,-18.638,8.9907,2.4428,18.148,-11.718,19.325,1.4862,11.404,8.0843,7.37
-28.965,27.051,-17.58,10.281,-20.853,15.451,-18.638,8.9907,2.4428,18.148,-11.718,19.325,1.4862,11.404,8.0843,7.37
-29.054,27.081,-17.542,10.29,-20.848,15.458,-18.576,8.9921,2.4289,18.161,-11.667,19.353,1.5011,11.396,8.1775,7.407
-29.054,27.081,-17.542,10.29,-20.848,15.458,-18.576,8.9921,2.4289,18.161,-11.667,19.353,1.5011,11.396,8.1775,7.407
-29.233,27.144,-17.464,10.307,-20.838,15.473,-18.449,8.9969,2.4004,18.19,-11.563,19.411,1.5306,11.381,8.3656,7.4835
-29.233,27.144,-17.464,10.307,-20.838,15.473,-18.449,8.9969,2.4004,18.19,-11.563,19.411,1.5306,11.381,8.3656,7.4835
-29.233,27.144,-17.464,10.307,-20.838,15.473,-18.449,8.9969,2.4004,18.19,-11.563,19.411,1.5306,11.381,8.3656,7.4835
-29.323,27.177,-17.425,10.317,-20.832,15.482,-18.384,9.0002,2.3859,18.205,-11.512,19.441,1.5454,11.373,8.4604,7.523
-29.323,27.177,-17.425,10.317,-20.832,15.482,-18.384,9.0002,2.3859,18.205,-11.512,19.441,1.5454,11.373,8.4604,7.523
-29.413,27.211,-17.387,10.327,-20.825,15.492,-18.319,9.0041,2.3712,18.221,-11.46,19.472,1.56,11.366,8.5557,7.5633
-29.413,27.211,-17.387,10.327,-20.825,15.492,-18.319,9.0041,2.3712,18.221,-11.46,19.472,1.56,11.366,8.5557,7.5633
-29.413,27.211,-17.387,10.327,-20.825,15.492,-18.319,9.0041,2.3712,18.221,-11.46,19.472,1.56,11.366,8.5557,7.5633
-29.503,27.246,-17.348,10.337,-20.818,15.502,-18.253,9.0087,2.3564,18.236,-11.408,19.504,1.5747,11.359,8.6514,7.6045
-29.503,27.246,-17.348,10.337,-20.818,15.502,-18.253,9.0087,2.3564,18.236,-11.408,19.504,1.5747,11.359,8.6514,7.6045
-29.503,27.246,-17.348,10.337,-20.818,15.502,-18.253,9.0087,2.3564,18.236,-11.408,19.504,1.5747,11.359,8.6514,7.6045
-29.503,27.246,-17.348,10.337,-20.818,15.502,-18.253,9.0087,2.3564,18.236,-11.408,19.504,1.5747,11.359,8.6514,7.6045
-29.685,27.319,-17.27,10.359,-20.803,15.524,-18.12,9.0198,2.3261,18.269,-11.304,19.568,1.6038,11.345,8.8444,7.6893
-29.685,27.319,-17.27,10.359,-20.803,15.524,-18.12,9.0198,2.3261,18.269,-11.304,19.568,1.6038,11.345,8.8444,7.6893
-29.776,27.357,-17.231,10.37,-20.795,15.537,-18.052,9.0263,2.3106,18.286,-11.251,19.602,1.6183,11.338,8.9415,7.7329
-29.868,27.396,-17.192,10.382,-20.786,15.55,-17.984,9.0334,2.295,18.303,-11.199,19.636,1.6328,11.332,9.0391,7.7774
-29.959,27.436,-17.153,10.394,-20.777,15.563,-17.915,9.0412,2.2793,18.321,-11.146,19.671,1.6472,11.325,9.1372,7.8226
-29.959,27.436,-17.153,10.394,-20.777,15.563,-17.915,9.0412,2.2793,18.321,-11.146,19.671,1.6472,11.325,9.1372,7.8226
-30.051,27.478,-17.114,10.407,-20.768,15.578,-17.845,9.0496,2.2633,18.339,-11.094,19.706,1.6616,11.318,9.2357,7.8688
-30.051,27.478,-17.114,10.407,-20.768,15.578,-17.845,9.0496,2.2633,18.339,-11.094,19.706,1.6616,11.318,9.2357,7.8688
-30.051,27.478,-17.114,10.407,-20.768,15.578,-17.845,9.0496,2.2633,18.339,-11.094,19.706,1.6616,11.318,9.2357,7.8688
-30.144,27.52,-17.075,10.42,-20.758,15.593,-17.775,9.0587,2.2472,18.357,-11.041,19.742,1.6759,11.312,9.3346,7.9157
-30.144,27.52,-17.075,10.42,-20.758,15.593,-17.775,9.0587,2.2472,18.357,-11.041,19.742,1.6759,11.312,9.3346,7.9157
-30.236,27.563,-17.036,10.433,-20.748,15.608,-17.705,9.0683,2.2308,18.376,-10.989,19.779,1.6902,11.306,9.434,7.9634
-30.236,27.563,-17.036,10.433,-20.748,15.608,-17.705,9.0683,2.2308,18.376,-10.989,19.779,1.6902,11.306,9.434,7.9634
-30.329,27.608,-16.997,10.447,-20.737,15.625,-17.633,9.0787,2.2144,18.395,-10.936,19.816,1.7044,11.3,9.5338,8.012
-30.329,27.608,-16.997,10.447,-20.737,15.625,-17.633,9.0787,2.2144,18.395,-10.936,19.816,1.7044,11.3,9.5338,8.012
-30.422,27.653,-16.958,10.461,-20.726,15.642,-17.561,9.0896,2.1977,18.414,-10.883,19.854,1.7186,11.294,9.634,8.0614
-30.422,27.653,-16.958,10.461,-20.726,15.642,-17.561,9.0896,2.1977,18.414,-10.883,19.854,1.7186,11.294,9.634,8.0614
-30.515,27.699,-16.919,10.476,-20.714,15.66,-17.489,9.1012,2.1808,18.434,-10.83,19.892,1.7328,11.288,9.7346,8.1116
-30.515,27.699,-16.919,10.476,-20.714,15.66,-17.489,9.1012,2.1808,18.434,-10.83,19.892,1.7328,11.288,9.7346,8.1116
-30.609,27.746,-16.88,10.491,-20.702,15.678,-17.416,9.1134,2.1638,18.454,-10.777,19.931,1.7469,11.282,9.8356,8.1626
-30.609,27.746,-16.88,10.491,-20.702,15.678,-17.416,9.1134,2.1638,18.454,-10.777,19.931,1.7469,11.282,9.8356,8.1626
-30.703,27.795,-16.842,10.506,-20.69,15.697,-17.342,9.1263,2.1466,18.474,-10.724,19.971,1.7609,11.276,9.937,8.2144
-30.703,27.795,-16.842,10.506,-20.69,15.697,-17.342,9.1263,2.1466,18.474,-10.724,19.971,1.7609,11.276,9.937,8.2144
-30.797,27.844,-16.803,10.522,-20.677,15.717,-17.268,9.1398,2.1293,18.495,-10.671,20.011,1.7749,11.27,10.039,8.267
-30.891,27.894,-16.764,10.538,-20.664,15.737,-17.194,9.1539,2.1117,18.515,-10.618,20.052,1.7889,11.264,10.141,8.3204
-30.891,27.894,-16.764,10.538,-20.664,15.737,-17.194,9.1539,2.1117,18.515,-10.618,20.052,1.7889,11.264,10.141,8.3204
-30.891,27.894,-16.764,10.538,-20.664,15.737,-17.194,9.1539,2.1117,18.515,-10.618,20.052,1.7889,11.264,10.141,8.3204
-30.985,27.945,-16.725,10.554,-20.651,15.758,-17.118,9.1687,2.094,18.537,-10.565,20.094,1.8028,11.259,10.244,8.3746
-30.985,27.945,-16.725,10.554,-20.651,15.758,-17.118,9.1687,2.094,18.537,-10.565,20.094,1.8028,11.259,10.244,8.3746
-31.08,27.997,-16.687,10.571,-20.637,15.78,-17.043,9.1841,2.0762,18.558,-10.511,20.136,1.8167,11.253,10.347,8.4296
-31.08,27.997,-16.687,10.571,-20.637,15.78,-17.043,9.1841,2.0762,18.558,-10.511,20.136,1.8167,11.253,10.347,8.4296
-31.175,28.05,-16.648,10.588,-20.622,15.802,-16.966,9.2002,2.0581,18.58,-10.458,20.179,1.8305,11.248,10.45,8.4854
-31.175,28.05,-16.648,10.588,-20.622,15.802,-16.966,9.2002,2.0581,18.58,-10.458,20.179,1.8305,11.248,10.45,8.4854
-31.27,28.104,-16.61,10.606,-20.607,15.825,-16.89,9.2168,2.0399,18.602,-10.405,20.222,1.8443,11.243,10.553,8.542
-31.27,28.104,-16.61,10.606,-20.607,15.825,-16.89,9.2168,2.0399,18.602,-10.405,20.222,1.8443,11.243,10.553,8.542
-31.366,28.159,-16.571,10.624,-20.592,15.849,-16.812,9.2341,2.0216,18.624,-10.351,20.266,1.858,11.237,10.658,8.5994
-31.366,28.159,-16.571,10.624,-20.592,15.849,-16.812,9.2341,2.0216,18.624,-10.351,20.266,1.858,11.237,10.658,8.5994
-31.461,28.215,-16.533,10.642,-20.577,15.873,-16.734,9.2521,2.003,18.647,-10.298,20.31,1.8716,11.232,10.762,8.6576
-31.461,28.215,-16.533,10.642,-20.577,15.873,-16.734,9.2521,2.003,18.647,-10.298,20.31,1.8716,11.232,10.762,8.6576
-31.461,28.215,-16.533,10.642,-20.577,15.873,-16.734,9.2521,2.003,18.647,-10.298,20.31,1.8716,11.232,10.762,8.6576
-31.557,28.272,-16.494,10.661,-20.561,15.898,-16.656,9.2707,1.9843,18.669,-10.245,20.355,1.8853,11.227,10.867,8.7165
-31.557,28.272,-16.494,10.661,-20.561,15.898,-16.656,9.2707,1.9843,18.669,-10.245,20.355,1.8853,11.227,10.867,8.7165
-31.653,28.329,-16.456,10.68,-20.544,15.924,-16.577,9.2899,1.9655,18.692,-10.191,20.401,1.8988,11.222,10.972,8.7763
-31.75,28.388,-16.418,10.7,-20.527,15.95,-16.498,9.3097,1.9465,18.716,-10.138,20.447,1.9124,11.217,11.077,8.8368
-31.75,28.388,-16.418,10.7,-20.527,15.95,-16.498,9.3097,1.9465,18.716,-10.138,20.447,1.9124,11.217,11.077,8.8368
-31.75,28.388,-16.418,10.7,-20.527,15.95,-16.498,9.3097,1.9465,18.716,-10.138,20.447,1.9124,11.217,11.077,8.8368
-31.846,28.447,-16.38,10.72,-20.51,15.977,-16.418,9.3302,1.9273,18.739,-10.084,20.494,1.9258,11.212,11.183,8.8981
-31.846,28.447,-16.38,10.72,-20.51,15.977,-16.418,9.3302,1.9273,18.739,-10.084,20.494,1.9258,11.212,11.183,8.8981
-31.846,28.447,-16.38,10.72,-20.51,15.977,-16.418,9.3302,1.9273,18.739,-10.084,20.494,1.9258,11.212,11.183,8.8981
-32.04,28.569,-16.304,10.761,-20.475,16.033,-16.257,9.373,1.8885,18.787,-9.9776,20.589,1.9527,11.202,11.395,9.023
-32.04,28.569,-16.304,10.761,-20.475,16.033,-16.257,9.373,1.8885,18.787,-9.9776,20.589,1.9527,11.202,11.395,9.023
-32.137,28.631,-16.267,10.782,-20.456,16.062,-16.176,9.3953,1.8689,18.811,-9.9242,20.638,1.966,11.197,11.501,9.0866
-32.137,28.631,-16.267,10.782,-20.456,16.062,-16.176,9.3953,1.8689,18.811,-9.9242,20.638,1.966,11.197,11.501,9.0866
-32.235,28.694,-16.229,10.803,-20.438,16.091,-16.094,9.4183,1.8491,18.835,-9.8707,20.687,1.9793,11.192,11.608,9.151
-32.332,28.758,-16.191,10.825,-20.418,16.121,-16.012,9.4419,1.8292,18.86,-9.8173,20.736,1.9925,11.187,11.715,9.2161
-32.332,28.758,-16.191,10.825,-20.418,16.121,-16.012,9.4419,1.8292,18.86,-9.8173,20.736,1.9925,11.187,11.715,9.2161
-32.43,28.823,-16.154,10.847,-20.399,16.152,-15.93,9.4662,1.8091,18.885,-9.7639,20.786,2.0057,11.182,11.823,9.282
-32.43,28.823,-16.154,10.847,-20.399,16.152,-15.93,9.4662,1.8091,18.885,-9.7639,20.786,2.0057,11.182,11.823,9.282
-32.43,28.823,-16.154,10.847,-20.399,16.152,-15.93,9.4662,1.8091,18.885,-9.7639,20.786,2.0057,11.182,11.823,9.282
-32.528,28.889,-16.117,10.869,-20.379,16.183,-15.847,9.491,1.7889,18.91,-9.7105,20.837,2.0188,11.177,11.93,9.3486
-32.528,28.889,-16.117,10.869,-20.379,16.183,-15.847,9.491,1.7889,18.91,-9.7105,20.837,2.0188,11.177,11.93,9.3486
-32.626,28.955,-16.08,10.892,-20.358,16.215,-15.763,9.5165,1.7685,18.935,-9.6571,20.888,2.0319,11.172,12.038,9.416
-32.626,28.955,-16.08,10.892,-20.358,16.215,-15.763,9.5165,1.7685,18.935,-9.6571,20.888,2.0319,11.172,12.038,9.416
-32.724,29.022,-16.043,10.915,-20.338,16.247,-15.679,9.5426,1.748,18.96,-9.6037,20.939,2.045,11.168,12.146,9.4841
-32.724,29.022,-16.043,10.915,-20.338,16.247,-15.679,9.5426,1.748,18.96,-9.6037,20.939,2.045,11.168,12.146,9.4841
-32.724,29.022,-16.043,10.915,-20.338,16.247,-15.679,9.5426,1.748,18.96,-9.6037,20.939,2.045,11.168,12.146,9.4841
-32.823,29.09,-16.006,10.939,-20.317,16.281,-15.595,9.5694,1.7273,18.986,-9.5504,20.991,2.058,11.163,12.255,9.553
-32.823,29.09,-16.006,10.939,-20.317,16.281,-15.595,9.5694,1.7273,18.986,-9.5504,20.991,2.058,11.163,12.255,9.553
-32.823,29.09,-16.006,10.939,-20.317,16.281,-15.595,9.5694,1.7273,18.986,-9.5504,20.991,2.058,11.163,12.255,9.553
-33.02,29.229,-15.933,10.987,-20.273,16.349,-15.426,9.6247,1.6856,19.038,-9.4438,21.097,2.0838,11.153,12.472,9.693
-33.02,29.229,-15.933,10.987,-20.273,16.349,-15.426,9.6247,1.6856,19.038,-9.4438,21.097,2.0838,11.153,12.472,9.693
-33.119,29.3,-15.896,11.011,-20.251,16.384,-15.34,9.6533,1.6645,19.064,-9.3906,21.151,2.0967,11.148,12.581,9.7641
-33.119,29.3,-15.896,11.011,-20.251,16.384,-15.34,9.6533,1.6645,19.064,-9.3906,21.151,2.0967,11.148,12.581,9.7641
-33.119,29.3,-15.896,11.011,-20.251,16.384,-15.34,9.6533,1.6645,19.064,-9.3906,21.151,2.0967,11.148,12.581,9.7641
-33.219,29.371,-15.86,11.036,-20.228,16.419,-15.254,9.6825,1.6433,19.09,-9.3374,21.205,2.1095,11.144,12.69,9.8359
-33.219,29.371,-15.86,11.036,-20.228,16.419,-15.254,9.6825,1.6433,19.09,-9.3374,21.205,2.1095,11.144,12.69,9.8359
-33.318,29.443,-15.824,11.062,-20.205,16.455,-15.168,9.7123,1.622,19.116,-9.2843,21.259,2.1222,11.139,12.8,9.9084
-33.417,29.516,-15.788,11.087,-20.182,16.492,-15.082,9.7428,1.6005,19.143,-9.2312,21.314,2.135,11.134,12.91,9.9817
-33.417,29.516,-15.788,11.087,-20.182,16.492,-15.082,9.7428,1.6005,19.143,-9.2312,21.314,2.135,11.134,12.91,9.9817
-33.517,29.59,-15.753,11.113,-20.158,16.529,-14.995,9.7739,1.579,19.169,-9.1781,21.37,2.1476,11.129,13.019,10.056
-33.517,29.59,-15.753,11.113,-20.158,16.529,-14.995,9.7739,1.579,19.169,-9.1781,21.37,2.1476,11.129,13.019,10.056
-33.617,29.664,-15.717,11.14,-20.134,16.567,-14.907,9.8055,1.5572,19.196,-9.1252,21.426,2.1602,11.125,13.129,10.13
-33.617,29.664,-15.717,11.14,-20.134,16.567,-14.907,9.8055,1.5572,19.196,-9.1252,21.426,2.1602,11.125,13.129,10.13
-33.717,29.739,-15.682,11.166,-20.11,16.606,-14.82,9.8378,1.5354,19.223,-9.0722,21.482,2.1728,11.12,13.24,10.206
-33.717,29.739,-15.682,11.166,-20.11,16.606,-14.82,9.8378,1.5354,19.223,-9.0722,21.482,2.1728,11.12,13.24,10.206
-33.817,29.815,-15.647,11.194,-20.085,16.645,-14.732,9.8707,1.5134,19.25,-9.0194,21.539,2.1854,11.115,13.35,10.282
-33.917,29.892,-15.612,11.221,-20.059,16.684,-14.643,9.9042,1.4913,19.277,-8.9666,21.597,2.1978,11.11,13.461,10.359
-33.917,29.892,-15.612,11.221,-20.059,16.684,-14.643,9.9042,1.4913,19.277,-8.9666,21.597,2.1978,11.11,13.461,10.359
-33.917,29.892,-15.612,11.221,-20.059,16.684,-14.643,9.9042,1.4913,19.277,-8.9666,21.597,2.1978,11.11,13.461,10.359
-34.018,29.969,-15.577,11.249,-20.034,16.725,-14.555,9.9384,1.4691,19.304,-8.9139,21.654,2.2103,11.105,13.571,10.436
-34.018,29.969,-15.577,11.249,-20.034,16.725,-14.555,9.9384,1.4691,19.304,-8.9139,21.654,2.2103,11.105,13.571,10.436
-34.018,29.969,-15.577,11.249,-20.034,16.725,-14.555,9.9384,1.4691,19.304,-8.9139,21.654,2.2103,11.105,13.571,10.436
-34.119,30.048,-15.542,11.277,-20.008,16.765,-14.466,9.9731,1.4468,19.331,-8.8613,21.713,2.2227,11.1,13.682,10.514
-34.219,30.126,-15.508,11.305,-19.982,16.807,-14.377,10.008,1.4244,19.358,-8.8088,21.771,2.235,11.095,13.793,10.593
-34.32,30.206,-15.474,11.334,-19.955,16.849,-14.287,10.044,1.4018,19.385,-8.7563,21.831,2.2474,11.09,13.904,10.673
-34.32,30.206,-15.474,11.334,-19.955,16.849,-14.287,10.044,1.4018,19.385,-8.7563,21.831,2.2474,11.09,13.904,10.673
-34.32,30.206,-15.474,11.334,-19.955,16.849,-14.287,10.044,1.4018,19.385,-8.7563,21.831,2.2474,11.09,13.904,10.673
-34.421,30.286,-15.44,11.363,-19.928,16.891,-14.197,10.081,1.3791,19.413,-8.7039,21.89,2.2596,11.085,14.015,10.753
-34.421,30.286,-15.44,11.363,-19.928,16.891,-14.197,10.081,1.3791,19.413,-8.7039,21.89,2.2596,11.085,14.015,10.753
-34.421,30.286,-15.44,11.363,-19.928,16.891,-14.197,10.081,1.3791,19.413,-8.7039,21.89,2.2596,11.085,14.015,10.753
-34.522,30.367,-15.406,11.392,-19.9,16.934,-14.107,10.118,1.3564,19.44,-8.6517,21.95,2.2718,11.08,14.127,10.834
-34.623,30.449,-15.372,11.422,-19.873,16.978,-14.016,10.156,1.3335,19.468,-8.5995,22.01,2.284,11.075,14.238,10.916
-34.623,30.449,-15.372,11.422,-19.873,16.978,-14.016,10.156,1.3335,19.468,-8.5995,22.01,2.284,11.075,14.238,10.916
-34.725,30.531,-15.339,11.452,-19.844,17.022,-13.926,10.194,1.3105,19.495,-8.5474,22.071,2.2962,11.07,14.349,10.998
-34.725,30.531,-15.339,11.452,-19.844,17.022,-13.926,10.194,1.3105,19.495,-8.5474,22.071,2.2962,11.07,14.349,10.998
-34.725,30.531,-15.339,11.452,-19.844,17.022,-13.926,10.194,1.3105,19.495,-8.5474,22.071,2.2962,11.07,14.349,10.998
-34.826,30.614,-15.306,11.483,-19.816,17.066,-13.835,10.233,1.2874,19.523,-8.4955,22.132,2.3083,11.064,14.461,11.081
-34.826,30.614,-15.306,11.483,-19.816,17.066,-13.835,10.233,1.2874,19.523,-8.4955,22.132,2.3083,11.064,14.461,11.081
-34.826,30.614,-15.306,11.483,-19.816,17.066,-13.835,10.233,1.2874,19.523,-8.4955,22.132,2.3083,11.064,14.461,11.081
-35.029,30.782,-15.24,11.545,-19.758,17.157,-13.652,10.313,1.241,19.578,-8.3919,22.256,2.3324,11.054,14.684,11.249
-35.029,30.782,-15.24,11.545,-19.758,17.157,-13.652,10.313,1.241,19.578,-8.3919,22.256,2.3324,11.054,14.684,11.249
-35.029,30.782,-15.24,11.545,-19.758,17.157,-13.652,10.313,1.241,19.578,-8.3919,22.256,2.3324,11.054,14.684,11.249
-35.131,30.867,-15.208,11.576,-19.728,17.203,-13.56,10.353,1.2176,19.606,-8.3403,22.318,2.3443,11.048,14.796,11.334
-35.131,30.867,-15.208,11.576,-19.728,17.203,-13.56,10.353,1.2176,19.606,-8.3403,22.318,2.3443,11.048,14.796,11.334
-35.335,31.039,-15.143,11.64,-19.668,17.297,-13.375,10.437,1.1706,19.661,-8.2374,22.444,2.3682,11.037,15.02,11.505
-35.335,31.039,-15.143,11.64,-19.668,17.297,-13.375,10.437,1.1706,19.661,-8.2374,22.444,2.3682,11.037,15.02,11.505
-35.335,31.039,-15.143,11.64,-19.668,17.297,-13.375,10.437,1.1706,19.661,-8.2374,22.444,2.3682,11.037,15.02,11.505
-35.437,31.126,-15.112,11.672,-19.637,17.345,-13.283,10.479,1.147,19.689,-8.1862,22.508,2.3801,11.031,15.132,11.592
-35.437,31.126,-15.112,11.672,-19.637,17.345,-13.283,10.479,1.147,19.689,-8.1862,22.508,2.3801,11.031,15.132,11.592
-35.437,31.126,-15.112,11.672,-19.637,17.345,-13.283,10.479,1.147,19.689,-8.1862,22.508,2.3801,11.031,15.132,11.592
-35.539,31.213,-15.08,11.705,-19.606,17.394,-13.19,10.522,1.1232,19.716,-8.1351,22.572,2.3919,11.025,15.244,11.679
-35.539,31.213,-15.08,11.705,-19.606,17.394,-13.19,10.522,1.1232,19.716,-8.1351,22.572,2.3919,11.025,15.244,11.679
-35.641,31.301,-15.049,11.738,-19.575,17.442,-13.097,10.566,1.0994,19.744,-8.0841,22.636,2.4037,11.019,15.356,11.768
-35.744,31.39,-15.018,11.771,-19.544,17.492,-13.004,10.61,1.0756,19.771,-8.0333,22.7,2.4155,11.013,15.468,11.856
-35.744,31.39,-15.018,11.771,-19.544,17.492,-13.004,10.61,1.0756,19.771,-8.0333,22.7,2.4155,11.013,15.468,11.856
-35.846,31.479,-14.987,11.805,-19.512,17.541,-12.91,10.655,1.0516,19.799,-7.9826,22.765,2.4272,11.007,15.58,11.945
-35.846,31.479,-14.987,11.805,-19.512,17.541,-12.91,10.655,1.0516,19.799,-7.9826,22.765,2.4272,11.007,15.58,11.945
-35.949,31.569,-14.956,11.839,-19.479,17.592,-12.817,10.7,1.0276,19.826,-7.9321,22.83,2.4389,11.001,15.692,12.035
-35.949,31.569,-14.956,11.839,-19.479,17.592,-12.817,10.7,1.0276,19.826,-7.9321,22.83,2.4389,11.001,15.692,12.035
-36.051,31.659,-14.926,11.873,-19.447,17.643,-12.723,10.746,1.0035,19.854,-7.8817,22.896,2.4505,10.995,15.804,12.126
-36.051,31.659,-14.926,11.873,-19.447,17.643,-12.723,10.746,1.0035,19.854,-7.8817,22.896,2.4505,10.995,15.804,12.126
-36.154,31.75,-14.896,11.907,-19.414,17.694,-12.629,10.793,0.9793,19.881,-7.8315,22.962,2.4622,10.988,15.916,12.217
-36.154,31.75,-14.896,11.907,-19.414,17.694,-12.629,10.793,0.9793,19.881,-7.8315,22.962,2.4622,10.988,15.916,12.217
-36.256,31.841,-14.866,11.942,-19.38,17.746,-12.535,10.84,0.95506,19.908,-7.7814,23.028,2.4738,10.982,16.028,12.309
-36.359,31.933,-14.837,11.977,-19.347,17.798,-12.44,10.888,0.93075,19.936,-7.7315,23.094,2.4853,10.975,16.14,12.401
-36.359,31.933,-14.837,11.977,-19.347,17.798,-12.44,10.888,0.93075,19.936,-7.7315,23.094,2.4853,10.975,16.14,12.401
-36.462,32.025,-14.807,12.013,-19.313,17.851,-12.346,10.936,0.90639,19.963,-7.6818,23.161,2.4969,10.968,16.252,12.494
-36.462,32.025,-14.807,12.013,-19.313,17.851,-12.346,10.936,0.90639,19.963,-7.6818,23.161,2.4969,10.968,16.252,12.494
-36.462,32.025,-14.807,12.013,-19.313,17.851,-12.346,10.936,0.90639,19.963,-7.6818,23.161,2.4969,10.968,16.252,12.494
-36.565,32.118,-14.778,12.049,-19.278,17.904,-12.251,10.985,0.88197,19.99,-7.6322,23.228,2.5084,10.961,16.364,12.587
-36.565,32.118,-14.778,12.049,-19.278,17.904,-12.251,10.985,0.88197,19.99,-7.6322,23.228,2.5084,10.961,16.364,12.587
-36.565,32.118,-14.778,12.049,-19.278,17.904,-12.251,10.985,0.88197,19.99,-7.6322,23.228,2.5084,10.961,16.364,12.587
-36.667,32.212,-14.75,12.085,-19.244,17.957,-12.156,11.034,0.85749,20.017,-7.5828,23.296,2.5199,10.954,16.475,12.681
-36.667,32.212,-14.75,12.085,-19.244,17.957,-12.156,11.034,0.85749,20.017,-7.5828,23.296,2.5199,10.954,16.475,12.681
-36.667,32.212,-14.75,12.085,-19.244,17.957,-12.156,11.034,0.85749,20.017,-7.5828,23.296,2.5199,10.954,16.475,12.681
-36.873,32.4,-14.693,12.158,-19.173,18.066,-11.966,11.134,0.80839,20.07,-7.4846,23.431,2.5427,10.939,16.699,12.871
-36.873,32.4,-14.693,12.158,-19.173,18.066,-11.966,11.134,0.80839,20.07,-7.4846,23.431,2.5427,10.939,16.699,12.871
-36.976,32.495,-14.665,12.194,-19.138,18.121,-11.871,11.185,0.78376,20.097,-7.4358,23.499,2.5541,10.932,16.81,12.966
-36.976,32.495,-14.665,12.194,-19.138,18.121,-11.871,11.185,0.78376,20.097,-7.4358,23.499,2.5541,10.932,16.81,12.966
-37.079,32.59,-14.637,12.232,-19.102,18.177,-11.776,11.237,0.75909,20.123,-7.3871,23.568,2.5655,10.924,16.922,13.062
-37.079,32.59,-14.637,12.232,-19.102,18.177,-11.776,11.237,0.75909,20.123,-7.3871,23.568,2.5655,10.924,16.922,13.062
-37.079,32.59,-14.637,12.232,-19.102,18.177,-11.776,11.237,0.75909,20.123,-7.3871,23.568,2.5655,10.924,16.922,13.062
-37.182,32.686,-14.61,12.269,-19.066,18.232,-11.68,11.289,0.73439,20.15,-7.3387,23.636,2.5769,10.916,17.033,13.159
-37.182,32.686,-14.61,12.269,-19.066,18.232,-11.68,11.289,0.73439,20.15,-7.3387,23.636,2.5769,10.916,17.033,13.159
-37.388,32.878,-14.556,12.345,-18.992,18.346,-11.489,11.395,0.68486,20.202,-7.2424,23.774,2.5995,10.9,17.256,13.354
-37.388,32.878,-14.556,12.345,-18.992,18.346,-11.489,11.395,0.68486,20.202,-7.2424,23.774,2.5995,10.9,17.256,13.354
-37.491,32.975,-14.529,12.383,-18.955,18.403,-11.393,11.448,0.66004,20.228,-7.1946,23.844,2.6108,10.892,17.367,13.452
-37.491,32.975,-14.529,12.383,-18.955,18.403,-11.393,11.448,0.66004,20.228,-7.1946,23.844,2.6108,10.892,17.367,13.452
-37.594,33.073,-14.503,12.422,-18.917,18.46,-11.297,11.503,0.6352,20.254,-7.1469,23.913,2.622,10.884,17.478,13.551
-37.594,33.073,-14.503,12.422,-18.917,18.46,-11.297,11.503,0.6352,20.254,-7.1469,23.913,2.622,10.884,17.478,13.551
-37.594,33.073,-14.503,12.422,-18.917,18.46,-11.297,11.503,0.6352,20.254,-7.1469,23.913,2.622,10.884,17.478,13.551
-37.697,33.171,-14.477,12.46,-18.88,18.518,-11.201,11.557,0.61033,20.279,-7.0995,23.983,2.6333,10.875,17.588,13.65
-37.697,33.171,-14.477,12.46,-18.88,18.518,-11.201,11.557,0.61033,20.279,-7.0995,23.983,2.6333,10.875,17.588,13.65
-37.8,33.269,-14.451,12.5,-18.841,18.577,-11.105,11.613,0.58544,20.305,-7.0523,24.053,2.6445,10.866,17.699,13.75
-37.8,33.269,-14.451,12.5,-18.841,18.577,-11.105,11.613,0.58544,20.305,-7.0523,24.053,2.6445,10.866,17.699,13.75
-37.903,33.367,-14.426,12.539,-18.803,18.636,-11.009,11.669,0.56053,20.33,-7.0053,24.123,2.6557,10.857,17.809,13.85
-37.903,33.367,-14.426,12.539,-18.803,18.636,-11.009,11.669,0.56053,20.33,-7.0053,24.123,2.6557,10.857,17.809,13.85
-38.006,33.466,-14.401,12.579,-18.764,18.695,-10.912,11.725,0.53561,20.355,-6.9586,24.194,2.6669,10.848,17.92,13.951
-38.006,33.466,-14.401,12.579,-18.764,18.695,-10.912,11.725,0.53561,20.355,-6.9586,24.194,2.6669,10.848,17.92,13.951
-38.109,33.565,-14.376,12.618,-18.725,18.754,-10.816,11.782,0.51067,20.38,-6.912,24.264,2.6781,10.838,18.03,14.052
-38.109,33.565,-14.376,12.618,-18.725,18.754,-10.816,11.782,0.51067,20.38,-6.912,24.264,2.6781,10.838,18.03,14.052
-38.212,33.665,-14.351,12.659,-18.686,18.814,-10.72,11.839,0.48572,20.404,-6.8657,24.335,2.6893,10.829,18.14,14.154
-38.212,33.665,-14.351,12.659,-18.686,18.814,-10.72,11.839,0.48572,20.404,-6.8657,24.335,2.6893,10.829,18.14,14.154
-38.315,33.765,-14.327,12.699,-18.646,18.875,-10.623,11.897,0.46076,20.429,-6.8197,24.406,2.7004,10.819,18.25,14.256
-38.315,33.765,-14.327,12.699,-18.646,18.875,-10.623,11.897,0.46076,20.429,-6.8197,24.406,2.7004,10.819,18.25,14.256
-38.418,33.865,-14.303,12.74,-18.606,18.935,-10.527,11.956,0.4358,20.453,-6.7738,24.477,2.7116,10.809,18.359,14.359
-38.418,33.865,-14.303,12.74,-18.606,18.935,-10.527,11.956,0.4358,20.453,-6.7738,24.477,2.7116,10.809,18.359,14.359
-38.521,33.966,-14.279,12.78,-18.566,18.996,-10.43,12.014,0.41084,20.477,-6.7282,24.549,2.7227,10.799,18.469,14.462
-38.624,34.067,-14.256,12.822,-18.525,19.058,-10.334,12.074,0.38588,20.5,-6.6829,24.62,2.7339,10.788,18.578,14.565
-38.624,34.067,-14.256,12.822,-18.525,19.058,-10.334,12.074,0.38588,20.5,-6.6829,24.62,2.7339,10.788,18.578,14.565
-38.624,34.067,-14.256,12.822,-18.525,19.058,-10.334,12.074,0.38588,20.5,-6.6829,24.62,2.7339,10.788,18.578,14.565
-38.726,34.168,-14.233,12.863,-18.484,19.12,-10.237,12.134,0.36093,20.524,-6.6378,24.692,2.745,10.778,18.687,14.669
-38.726,34.168,-14.233,12.863,-18.484,19.12,-10.237,12.134,0.36093,20.524,-6.6378,24.692,2.745,10.778,18.687,14.669
-38.726,34.168,-14.233,12.863,-18.484,19.12,-10.237,12.134,0.36093,20.524,-6.6378,24.692,2.745,10.778,18.687,14.669
-38.829,34.269,-14.21,12.904,-18.443,19.182,-10.141,12.194,0.33599,20.547,-6.5929,24.763,2.7561,10.767,18.796,14.774
-38.829,34.269,-14.21,12.904,-18.443,19.182,-10.141,12.194,0.33599,20.547,-6.5929,24.763,2.7561,10.767,18.796,14.774
-38.829,34.269,-14.21,12.904,-18.443,19.182,-10.141,12.194,0.33599,20.547,-6.5929,24.763,2.7561,10.767,18.796,14.774
-39.034,34.473,-14.166,12.988,-18.36,19.307,-9.9473,12.316,0.28615,20.592,-6.504,24.907,2.7783,10.744,19.012,14.984
-39.034,34.473,-14.166,12.988,-18.36,19.307,-9.9473,12.316,0.28615,20.592,-6.504,24.907,2.7783,10.744,19.012,14.984
-39.137,34.575,-14.144,13.031,-18.318,19.371,-9.8507,12.378,0.26125,20.615,-6.4599,24.979,2.7894,10.733,19.12,15.089
-39.137,34.575,-14.144,13.031,-18.318,19.371,-9.8507,12.378,0.26125,20.615,-6.4599,24.979,2.7894,10.733,19.12,15.089
-39.239,34.677,-14.122,13.073,-18.276,19.434,-9.754,12.441,0.23638,20.637,-6.416,25.051,2.8005,10.721,19.228,15.195
-39.239,34.677,-14.122,13.073,-18.276,19.434,-9.754,12.441,0.23638,20.637,-6.416,25.051,2.8005,10.721,19.228,15.195
-39.342,34.78,-14.101,13.116,-18.233,19.498,-9.6574,12.503,0.21154,20.659,-6.3725,25.124,2.8116,10.709,19.336,15.302
-39.342,34.78,-14.101,13.116,-18.233,19.498,-9.6574,12.503,0.21154,20.659,-6.3725,25.124,2.8116,10.709,19.336,15.302
-39.444,34.883,-14.08,13.159,-18.19,19.562,-9.5608,12.567,0.18673,20.68,-6.3292,25.196,2.8227,10.696,19.443,15.408
-39.444,34.883,-14.08,13.159,-18.19,19.562,-9.5608,12.567,0.18673,20.68,-6.3292,25.196,2.8227,10.696,19.443,15.408
-39.546,34.986,-14.059,13.202,-18.147,19.627,-9.4642,12.63,0.16195,20.701,-6.2862,25.268,2.8338,10.684,19.55,15.516
-39.546,34.986,-14.059,13.202,-18.147,19.627,-9.4642,12.63,0.16195,20.701,-6.2862,25.268,2.8338,10.684,19.55,15.516
-39.546,34.986,-14.059,13.202,-18.147,19.627,-9.4642,12.63,0.16195,20.701,-6.2862,25.268,2.8338,10.684,19.55,15.516
-39.649,35.089,-14.039,13.245,-18.103,19.691,-9.3676,12.695,0.13721,20.722,-6.2434,25.341,2.8449,10.671,19.657,15.623
-39.751,35.192,-14.019,13.289,-18.059,19.756,-9.2711,12.759,0.11251,20.743,-6.2009,25.413,2.8561,10.658,19.763,15.731
-39.853,35.296,-13.999,13.333,-18.015,19.822,-9.1746,12.824,0.087851,20.763,-6.1588,25.486,2.8672,10.644,19.869,15.839
-39.853,35.296,-13.999,13.333,-18.015,19.822,-9.1746,12.824,0.087851,20.763,-6.1588,25.486,2.8672,10.644,19.869,15.839
-39.955,35.4,-13.98,13.377,-17.971,19.887,-9.0781,12.89,0.063241,20.783,-6.1168,25.559,2.8783,10.63,19.975,15.948
-39.955,35.4,-13.98,13.377,-17.971,19.887,-9.0781,12.89,0.063241,20.783,-6.1168,25.559,2.8783,10.63,19.975,15.948
-39.955,35.4,-13.98,13.377,-17.971,19.887,-9.0781,12.89,0.063241,20.783,-6.1168,25.559,2.8783,10.63,19.975,15.948
-40.056,35.504,-13.96,13.421,-17.926,19.953,-8.9817,12.956,0.038684,20.802,-6.0752,25.631,2.8895,10.616,20.081,16.057
-40.056,35.504,-13.96,13.421,-17.926,19.953,-8.9817,12.956,0.038684,20.802,-6.0752,25.631,2.8895,10.616,20.081,16.057
-40.158,35.608,-13.942,13.466,-17.882,20.019,-8.8853,13.023,0.014181,20.821,-6.0339,25.704,2.9006,10.602,20.186,16.166
-40.158,35.608,-13.942,13.466,-17.882,20.019,-8.8853,13.023,0.014181,20.821,-6.0339,25.704,2.9006,10.602,20.186,16.166
-40.259,35.712,-13.923,13.51,-17.836,20.086,-8.789,13.089,-0.010263,20.84,-5.9928,25.777,2.9118,10.588,20.291,16.276
-40.259,35.712,-13.923,13.51,-17.836,20.086,-8.789,13.089,-0.010263,20.84,-5.9928,25.777,2.9118,10.588,20.291,16.276
-40.361,35.816,-13.905,13.555,-17.791,20.153,-8.6927,13.157,-0.034645,20.859,-5.9521,25.849,2.923,10.573,20.395,16.385
-40.361,35.816,-13.905,13.555,-17.791,20.153,-8.6927,13.157,-0.034645,20.859,-5.9521,25.849,2.923,10.573,20.395,16.385
-40.462,35.92,-13.887,13.6,-17.745,20.219,-8.5965,13.225,-0.05896,20.877,-5.9116,25.922,2.9342,10.558,20.499,16.496
-40.563,36.025,-13.869,13.645,-17.699,20.287,-8.5004,13.293,-0.083206,20.895,-5.8715,25.995,2.9454,10.542,20.603,16.606
-40.563,36.025,-13.869,13.645,-17.699,20.287,-8.5004,13.293,-0.083206,20.895,-5.8715,25.995,2.9454,10.542,20.603,16.606
-40.563,36.025,-13.869,13.645,-17.699,20.287,-8.5004,13.293,-0.083206,20.895,-5.8715,25.995,2.9454,10.542,20.603,16.606
-40.664,36.129,-13.852,13.691,-17.653,20.354,-8.4044,13.361,-0.10738,20.912,-5.8316,26.068,2.9566,10.526,20.706,16.717
-40.664,36.129,-13.852,13.691,-17.653,20.354,-8.4044,13.361,-0.10738,20.912,-5.8316,26.068,2.9566,10.526,20.706,16.717
-40.664,36.129,-13.852,13.691,-17.653,20.354,-8.4044,13.361,-0.10738,20.912,-5.8316,26.068,2.9566,10.526,20.706,16.717
-40.765,36.233,-13.835,13.736,-17.606,20.422,-8.3084,13.43,-0.13147,20.929,-5.7921,26.14,2.9679,10.51,20.81,16.828
-40.765,36.233,-13.835,13.736,-17.606,20.422,-8.3084,13.43,-0.13147,20.929,-5.7921,26.14,2.9679,10.51,20.81,16.828
-40.866,36.338,-13.818,13.782,-17.559,20.49,-8.2126,13.5,-0.15549,20.945,-5.7529,26.213,2.9792,10.494,20.912,16.939
-40.966,36.443,-13.802,13.828,-17.512,20.558,-8.1168,13.57,-0.17942,20.961,-5.7139,26.286,2.9905,10.477,21.015,17.051
-41.067,36.547,-13.786,13.874,-17.465,20.626,-8.0211,13.64,-0.20326,20.977,-5.6753,26.358,3.0018,10.46,21.117,17.163
-41.067,36.547,-13.786,13.874,-17.465,20.626,-8.0211,13.64,-0.20326,20.977,-5.6753,26.358,3.0018,10.46,21.117,17.163
-41.067,36.547,-13.786,13.874,-17.465,20.626,-8.0211,13.64,-0.20326,20.977,-5.6753,26.358,3.0018,10.46,21.117,17.163
-41.167,36.652,-13.77,13.92,-17.417,20.694,-7.9255,13.71,-0.22701,20.992,-5.637,26.431,3.0132,10.443,21.218,17.275
-41.167,36.652,-13.77,13.92,-17.417,20.694,-7.9255,13.71,-0.22701,20.992,-5.637,26.431,3.0132,10.443,21.218,17.275
-41.267,36.756,-13.754,13.966,-17.369,20.763,-7.8301,13.781,-0.25066,21.007,-5.599,26.503,3.0246,10.425,21.319,17.387
-41.267,36.756,-13.754,13.966,-17.369,20.763,-7.8301,13.781,-0.25066,21.007,-5.599,26.503,3.0246,10.425,21.319,17.387
-41.367,36.861,-13.739,14.013,-17.321,20.832,-7.7347,13.853,-0.27421,21.021,-5.5614,26.576,3.036,10.407,21.42,17.5
-41.467,36.966,-13.724,14.06,-17.273,20.901,-7.6395,13.925,-0.29766,21.035,-5.524,26.648,3.0474,10.389,21.52,17.613
-41.467,36.966,-13.724,14.06,-17.273,20.901,-7.6395,13.925,-0.29766,21.035,-5.524,26.648,3.0474,10.389,21.52,17.613
-41.467,36.966,-13.724,14.06,-17.273,20.901,-7.6395,13.925,-0.29766,21.035,-5.524,26.648,3.0474,10.389,21.52,17.613
-41.467,36.966,-13.724,14.06,-17.273,20.901,-7.6395,13.925,-0.29766,21.035,-5.524,26.648,3.0474,10.389,21.52,17.613
-41.566,37.07,-13.71,14.106,-17.224,20.97,-7.5444,13.997,-0.321,21.049,-5.487,26.72,3.0589,10.37,21.62,17.726
-41.566,37.07,-13.71,14.106,-17.224,20.97,-7.5444,13.997,-0.321,21.049,-5.487,26.72,3.0589,10.37,21.62,17.726
-41.566,37.07,-13.71,14.106,-17.224,20.97,-7.5444,13.997,-0.321,21.049,-5.487,26.72,3.0589,10.37,21.62,17.726
-41.765,37.279,-13.682,14.2,-17.126,21.109,-7.3545,14.142,-0.36734,21.074,-5.4139,26.864,3.082,10.331,21.819,17.952
-41.765,37.279,-13.682,14.2,-17.126,21.109,-7.3545,14.142,-0.36734,21.074,-5.4139,26.864,3.082,10.331,21.819,17.952
-41.864,37.383,-13.668,14.248,-17.076,21.179,-7.2598,14.215,-0.39034,21.087,-5.3779,26.936,3.0936,10.311,21.918,18.066
-41.963,37.488,-13.655,14.295,-17.027,21.249,-7.1653,14.289,-0.41321,21.098,-5.3422,27.008,3.1052,10.291,22.016,18.18
-41.963,37.488,-13.655,14.295,-17.027,21.249,-7.1653,14.289,-0.41321,21.098,-5.3422,27.008,3.1052,10.291,22.016,18.18
-42.061,37.592,-13.641,14.343,-16.977,21.319,-7.0708,14.363,-0.43595,21.109,-5.3068,27.08,3.1169,10.27,22.114,18.294
-42.061,37.592,-13.641,14.343,-16.977,21.319,-7.0708,14.363,-0.43595,21.109,-5.3068,27.08,3.1169,10.27,22.114,18.294
-42.061,37.592,-13.641,14.343,-16.977,21.319,-7.0708,14.363,-0.43595,21.109,-5.3068,27.08,3.1169,10.27,22.114,18.294
-42.159,37.696,-13.629,14.39,-16.926,21.389,-6.9765,14.437,-0.45856,21.12,-5.2718,27.151,3.1286,10.25,22.211,18.408
-42.159,37.696,-13.629,14.39,-16.926,21.389,-6.9765,14.437,-0.45856,21.12,-5.2718,27.151,3.1286,10.25,22.211,18.408
-42.159,37.696,-13.629,14.39,-16.926,21.389,-6.9765,14.437,-0.45856,21.12,-5.2718,27.151,3.1286,10.25,22.211,18.408
-42.258,37.8,-13.616,14.438,-16.876,21.459,-6.8824,14.512,-0.48103,21.13,-5.2371,27.223,3.1404,10.228,22.308,18.522
-42.258,37.8,-13.616,14.438,-16.876,21.459,-6.8824,14.512,-0.48103,21.13,-5.2371,27.223,3.1404,10.228,22.308,18.522
-42.355,37.904,-13.604,14.486,-16.825,21.53,-6.7884,14.587,-0.50337,21.14,-5.2027,27.294,3.1522,10.206,22.404,18.636
-42.355,37.904,-13.604,14.486,-16.825,21.53,-6.7884,14.587,-0.50337,21.14,-5.2027,27.294,3.1522,10.206,22.404,18.636
-42.453,38.007,-13.592,14.534,-16.774,21.6,-6.6946,14.662,-0.52556,21.149,-5.1687,27.365,3.1641,10.184,22.5,18.751
-42.453,38.007,-13.592,14.534,-16.774,21.6,-6.6946,14.662,-0.52556,21.149,-5.1687,27.365,3.1641,10.184,22.5,18.751
-42.453,38.007,-13.592,14.534,-16.774,21.6,-6.6946,14.662,-0.52556,21.149,-5.1687,27.365,3.1641,10.184,22.5,18.751
-42.648,38.214,-13.569,14.63,-16.671,21.741,-6.5075,14.813,-0.5695,21.165,-5.1017,27.507,3.188,10.139,22.69,18.98
-42.648,38.214,-13.569,14.63,-16.671,21.741,-6.5075,14.813,-0.5695,21.165,-5.1017,27.507,3.188,10.139,22.69,18.98
-42.648,38.214,-13.569,14.63,-16.671,21.741,-6.5075,14.813,-0.5695,21.165,-5.1017,27.507,3.188,10.139,22.69,18.98
-42.745,38.317,-13.558,14.679,-16.619,21.812,-6.4142,14.89,-0.59124,21.173,-5.0687,27.577,3.2,10.116,22.785,19.095
-42.841,38.42,-13.548,14.727,-16.567,21.883,-6.3211,14.966,-0.61282,21.18,-5.036,27.647,3.2121,10.092,22.878,19.21
-42.938,38.523,-13.537,14.776,-16.515,21.953,-6.2282,15.043,-0.63423,21.186,-5.0037,27.717,3.2243,10.068,22.972,19.325
-42.938,38.523,-13.537,14.776,-16.515,21.953,-6.2282,15.043,-0.63423,21.186,-5.0037,27.717,3.2243,10.068,22.972,19.325
-43.034,38.625,-13.527,14.824,-16.463,22.024,-6.1354,15.12,-0.65548,21.192,-4.9718,27.787,3.2365,10.043,23.065,19.44
-43.034,38.625,-13.527,14.824,-16.463,22.024,-6.1354,15.12,-0.65548,21.192,-4.9718,27.787,3.2365,10.043,23.065,19.44
-43.13,38.728,-13.517,14.873,-16.41,22.095,-6.0429,15.197,-0.67656,21.197,-4.9402,27.857,3.2488,10.018,23.157,19.555
-43.13,38.728,-13.517,14.873,-16.41,22.095,-6.0429,15.197,-0.67656,21.197,-4.9402,27.857,3.2488,10.018,23.157,19.555
-43.13,38.728,-13.517,14.873,-16.41,22.095,-6.0429,15.197,-0.67656,21.197,-4.9402,27.857,3.2488,10.018,23.157,19.555
-43.225,38.83,-13.508,14.922,-16.357,22.166,-5.9505,15.275,-0.69745,21.202,-4.909,27.926,3.2611,9.9926,23.249,19.67
-43.225,38.83,-13.508,14.922,-16.357,22.166,-5.9505,15.275,-0.69745,21.202,-4.909,27.926,3.2611,9.9926,23.249,19.67
-43.321,38.931,-13.499,14.971,-16.303,22.237,-5.8584,15.353,-0.71817,21.206,-4.8781,27.995,3.2735,9.9667,23.34,19.786
-43.321,38.931,-13.499,14.971,-16.303,22.237,-5.8584,15.353,-0.71817,21.206,-4.8781,27.995,3.2735,9.9667,23.34,19.786
-43.416,39.033,-13.49,15.019,-16.25,22.308,-5.7664,15.431,-0.73871,21.21,-4.8475,28.064,3.286,9.9404,23.431,19.901
-43.416,39.033,-13.49,15.019,-16.25,22.308,-5.7664,15.431,-0.73871,21.21,-4.8475,28.064,3.286,9.9404,23.431,19.901
-43.416,39.033,-13.49,15.019,-16.25,22.308,-5.7664,15.431,-0.73871,21.21,-4.8475,28.064,3.286,9.9404,23.431,19.901
-43.51,39.134,-13.481,15.068,-16.196,22.379,-5.6746,15.509,-0.75905,21.213,-4.8174,28.133,3.2985,9.9136,23.521,20.016
-43.51,39.134,-13.481,15.068,-16.196,22.379,-5.6746,15.509,-0.75905,21.213,-4.8174,28.133,3.2985,9.9136,23.521,20.016
-43.51,39.134,-13.481,15.068,-16.196,22.379,-5.6746,15.509,-0.75905,21.213,-4.8174,28.133,3.2985,9.9136,23.521,20.016
-43.51,39.134,-13.481,15.068,-16.196,22.379,-5.6746,15.509,-0.75905,21.213,-4.8174,28.133,3.2985,9.9136,23.521,20.016
-43.699,39.336,-13.464,15.167,-16.088,22.522,-5.4917,15.667,-0.79917,21.217,-4.7581,28.269,3.3239,9.8588,23.7,20.247
-43.699,39.336,-13.464,15.167,-16.088,22.522,-5.4917,15.667,-0.79917,21.217,-4.7581,28.269,3.3239,9.8588,23.7,20.247
-43.793,39.436,-13.457,15.216,-16.033,22.593,-5.4006,15.746,-0.81892,21.218,-4.729,28.337,3.3366,9.8307,23.788,20.362
-43.793,39.436,-13.457,15.216,-16.033,22.593,-5.4006,15.746,-0.81892,21.218,-4.729,28.337,3.3366,9.8307,23.788,20.362
-43.886,39.536,-13.449,15.265,-15.978,22.664,-5.3097,15.826,-0.83847,21.219,-4.7003,28.405,3.3495,9.8021,23.876,20.478
-43.886,39.536,-13.449,15.265,-15.978,22.664,-5.3097,15.826,-0.83847,21.219,-4.7003,28.405,3.3495,9.8021,23.876,20.478
-43.98,39.635,-13.442,15.314,-15.923,22.735,-5.219,15.905,-0.85782,21.219,-4.6719,28.472,3.3624,9.7731,23.964,20.593
-43.98,39.635,-13.442,15.314,-15.923,22.735,-5.219,15.905,-0.85782,21.219,-4.6719,28.472,3.3624,9.7731,23.964,20.593
-43.98,39.635,-13.442,15.314,-15.923,22.735,-5.219,15.905,-0.85782,21.219,-4.6719,28.472,3.3624,9.7731,23.964,20.593
-44.165,39.834,-13.428,15.413,-15.812,22.877,-5.0384,16.065,-0.89586,21.217,-4.6163,28.605,3.3886,9.7137,24.137,20.824
-44.165,39.834,-13.428,15.413,-15.812,22.877,-5.0384,16.065,-0.89586,21.217,-4.6163,28.605,3.3886,9.7137,24.137,20.824
-44.257,39.932,-13.422,15.463,-15.756,22.947,-4.9484,16.145,-0.91455,21.215,-4.589,28.671,3.4018,9.6832,24.222,20.939
-44.257,39.932,-13.422,15.463,-15.756,22.947,-4.9484,16.145,-0.91455,21.215,-4.589,28.671,3.4018,9.6832,24.222,20.939
-44.349,40.03,-13.415,15.512,-15.7,23.018,-4.8586,16.226,-0.93301,21.212,-4.5621,28.737,3.4151,9.6523,24.307,21.054
-44.349,40.03,-13.415,15.512,-15.7,23.018,-4.8586,16.226,-0.93301,21.212,-4.5621,28.737,3.4151,9.6523,24.307,21.054
-44.44,40.128,-13.41,15.562,-15.644,23.089,-4.7691,16.306,-0.95125,21.209,-4.5355,28.802,3.4285,9.6209,24.392,21.169
-44.44,40.128,-13.41,15.562,-15.644,23.089,-4.7691,16.306,-0.95125,21.209,-4.5355,28.802,3.4285,9.6209,24.392,21.169
-44.532,40.225,-13.404,15.611,-15.588,23.16,-4.6798,16.387,-0.96925,21.205,-4.5093,28.868,3.4419,9.589,24.476,21.284
-44.532,40.225,-13.404,15.611,-15.588,23.16,-4.6798,16.387,-0.96925,21.205,-4.5093,28.868,3.4419,9.589,24.476,21.284
-44.622,40.322,-13.399,15.661,-15.531,23.23,-4.5908,16.468,-0.98701,21.2,-4.4835,28.932,3.4555,9.5566,24.559,21.399
-44.622,40.322,-13.399,15.661,-15.531,23.23,-4.5908,16.468,-0.98701,21.2,-4.4835,28.932,3.4555,9.5566,24.559,21.399
-44.713,40.418,-13.393,15.71,-15.474,23.301,-4.502,16.549,-1.0045,21.195,-4.4581,28.997,3.4692,9.5237,24.641,21.514
-44.713,40.418,-13.393,15.71,-15.474,23.301,-4.502,16.549,-1.0045,21.195,-4.4581,28.997,3.4692,9.5237,24.641,21.514
-44.803,40.514,-13.389,15.76,-15.417,23.371,-4.4134,16.63,-1.0218,21.189,-4.433,29.061,3.483,9.4903,24.723,21.628
-44.892,40.61,-13.384,15.809,-15.359,23.441,-4.3252,16.712,-1.0388,21.183,-4.4083,29.124,3.4969,9.4564,24.805,21.743
-44.892,40.61,-13.384,15.809,-15.359,23.441,-4.3252,16.712,-1.0388,21.183,-4.4083,29.124,3.4969,9.4564,24.805,21.743
-44.982,40.705,-13.38,15.859,-15.301,23.512,-4.2371,16.793,-1.0556,21.175,-4.3839,29.187,3.5108,9.422,24.886,21.857
-44.982,40.705,-13.38,15.859,-15.301,23.512,-4.2371,16.793,-1.0556,21.175,-4.3839,29.187,3.5108,9.422,24.886,21.857
-44.982,40.705,-13.38,15.859,-15.301,23.512,-4.2371,16.793,-1.0556,21.175,-4.3839,29.187,3.5108,9.422,24.886,21.857
-44.982,40.705,-13.38,15.859,-15.301,23.512,-4.2371,16.793,-1.0556,21.175,-4.3839,29.187,3.5108,9.422,24.886,21.857
-45.071,40.799,-13.376,15.908,-15.243,23.582,-4.1493,16.875,-1.0721,21.167,-4.3599,29.25,3.5249,9.3871,24.966,21.972
-45.071,40.799,-13.376,15.908,-15.243,23.582,-4.1493,16.875,-1.0721,21.167,-4.3599,29.25,3.5249,9.3871,24.966,21.972
-45.071,40.799,-13.376,15.908,-15.243,23.582,-4.1493,16.875,-1.0721,21.167,-4.3599,29.25,3.5249,9.3871,24.966,21.972
-45.247,40.987,-13.368,16.007,-15.127,23.721,-3.9746,17.039,-1.1043,21.149,-4.3131,29.374,3.5535,9.3157,25.124,22.2
-45.247,40.987,-13.368,16.007,-15.127,23.721,-3.9746,17.039,-1.1043,21.149,-4.3131,29.374,3.5535,9.3157,25.124,22.2
-45.247,40.987,-13.368,16.007,-15.127,23.721,-3.9746,17.039,-1.1043,21.149,-4.3131,29.374,3.5535,9.3157,25.124,22.2
-45.335,41.08,-13.365,16.057,-15.068,23.791,-3.8876,17.121,-1.12,21.139,-4.2902,29.435,3.5679,9.2793,25.202,22.314
-45.335,41.08,-13.365,16.057,-15.068,23.791,-3.8876,17.121,-1.12,21.139,-4.2902,29.435,3.5679,9.2793,25.202,22.314
-45.335,41.08,-13.365,16.057,-15.068,23.791,-3.8876,17.121,-1.12,21.139,-4.2902,29.435,3.5679,9.2793,25.202,22.314
-45.509,41.264,-13.359,16.156,-14.95,23.929,-3.7144,17.285,-1.1506,21.117,-4.2456,29.557,3.5971,9.2047,25.357,22.541
-45.509,41.264,-13.359,16.156,-14.95,23.929,-3.7144,17.285,-1.1506,21.117,-4.2456,29.557,3.5971,9.2047,25.357,22.541
-45.509,41.264,-13.359,16.156,-14.95,23.929,-3.7144,17.285,-1.1506,21.117,-4.2456,29.557,3.5971,9.2047,25.357,22.541
-45.595,41.355,-13.356,16.205,-14.89,23.999,-3.6282,17.368,-1.1655,21.105,-4.2238,29.617,3.6119,9.1666,25.433,22.654
-45.681,41.446,-13.354,16.255,-14.83,24.067,-3.5423,17.45,-1.1801,21.092,-4.2024,29.676,3.6269,9.128,25.509,22.767
-45.767,41.536,-13.352,16.304,-14.771,24.136,-3.4566,17.533,-1.1944,21.078,-4.1814,29.735,3.6419,9.0889,25.583,22.88
-45.767,41.536,-13.352,16.304,-14.771,24.136,-3.4566,17.533,-1.1944,21.078,-4.1814,29.735,3.6419,9.0889,25.583,22.88
-45.767,41.536,-13.352,16.304,-14.771,24.136,-3.4566,17.533,-1.1944,21.078,-4.1814,29.735,3.6419,9.0889,25.583,22.88
-45.852,41.625,-13.35,16.353,-14.71,24.204,-3.3713,17.615,-1.2083,21.064,-4.1607,29.794,3.6571,9.0491,25.658,22.992
-45.852,41.625,-13.35,16.353,-14.71,24.204,-3.3713,17.615,-1.2083,21.064,-4.1607,29.794,3.6571,9.0491,25.658,22.992
-45.936,41.714,-13.348,16.402,-14.65,24.273,-3.2862,17.698,-1.222,21.049,-4.1404,29.852,3.6724,9.0089,25.731,23.105
-45.936,41.714,-13.348,16.402,-14.65,24.273,-3.2862,17.698,-1.222,21.049,-4.1404,29.852,3.6724,9.0089,25.731,23.105
-45.936,41.714,-13.348,16.402,-14.65,24.273,-3.2862,17.698,-1.222,21.049,-4.1404,29.852,3.6724,9.0089,25.731,23.105
-46.021,41.802,-13.347,16.452,-14.589,24.341,-3.2014,17.78,-1.2354,21.033,-4.1205,29.909,3.6879,8.9681,25.804,23.217
-46.021,41.802,-13.347,16.452,-14.589,24.341,-3.2014,17.78,-1.2354,21.033,-4.1205,29.909,3.6879,8.9681,25.804,23.217
-46.021,41.802,-13.347,16.452,-14.589,24.341,-3.2014,17.78,-1.2354,21.033,-4.1205,29.909,3.6879,8.9681,25.804,23.217
-46.021,41.802,-13.347,16.452,-14.589,24.341,-3.2014,17.78,-1.2354,21.033,-4.1205,29.909,3.6879,8.9681,25.804,23.217
-46.188,41.977,-13.345,16.55,-14.467,24.476,-3.0326,17.946,-1.2613,20.999,-4.0817,30.022,3.7192,8.8848,25.948,23.44
-46.188,41.977,-13.345,16.55,-14.467,24.476,-3.0326,17.946,-1.2613,20.999,-4.0817,30.022,3.7192,8.8848,25.948,23.44
-46.188,41.977,-13.345,16.55,-14.467,24.476,-3.0326,17.946,-1.2613,20.999,-4.0817,30.022,3.7192,8.8848,25.948,23.44
-46.353,42.149,-13.344,16.648,-14.344,24.61,-2.865,18.111,-1.2858,20.962,-4.0444,30.133,3.751,8.7992,26.089,23.662
-46.353,42.149,-13.344,16.648,-14.344,24.61,-2.865,18.111,-1.2858,20.962,-4.0444,30.133,3.751,8.7992,26.089,23.662
-46.434,42.233,-13.343,16.697,-14.282,24.677,-2.7816,18.194,-1.2976,20.942,-4.0263,30.188,3.7672,8.7556,26.158,23.773
-46.434,42.233,-13.343,16.697,-14.282,24.677,-2.7816,18.194,-1.2976,20.942,-4.0263,30.188,3.7672,8.7556,26.158,23.773
-46.516,42.318,-13.343,16.745,-14.22,24.743,-2.6986,18.277,-1.3091,20.922,-4.0086,30.242,3.7835,8.7114,26.227,23.883
-46.596,42.401,-13.343,16.794,-14.158,24.809,-2.6158,18.36,-1.3202,20.901,-3.9912,30.296,3.8,8.6666,26.295,23.993
-46.596,42.401,-13.343,16.794,-14.158,24.809,-2.6158,18.36,-1.3202,20.901,-3.9912,30.296,3.8,8.6666,26.295,23.993
-46.677,42.484,-13.344,16.843,-14.095,24.875,-2.5333,18.442,-1.331,20.879,-3.9742,30.349,3.8166,8.6212,26.363,24.103
-46.677,42.484,-13.344,16.843,-14.095,24.875,-2.5333,18.442,-1.331,20.879,-3.9742,30.349,3.8166,8.6212,26.363,24.103
-46.677,42.484,-13.344,16.843,-14.095,24.875,-2.5333,18.442,-1.331,20.879,-3.9742,30.349,3.8166,8.6212,26.363,24.103
-46.756,42.566,-13.344,16.891,-14.032,24.94,-2.4511,18.525,-1.3415,20.856,-3.9575,30.401,3.8333,8.5752,26.429,24.212
-46.756,42.566,-13.344,16.891,-14.032,24.94,-2.4511,18.525,-1.3415,20.856,-3.9575,30.401,3.8333,8.5752,26.429,24.212
-46.836,42.647,-13.345,16.939,-13.969,25.006,-2.3691,18.608,-1.3516,20.833,-3.9412,30.453,3.8503,8.5287,26.495,24.321
-46.914,42.727,-13.346,16.988,-13.906,25.07,-2.2875,18.69,-1.3614,20.808,-3.9252,30.504,3.8673,8.4816,26.56,24.429
-46.914,42.727,-13.346,16.988,-13.906,25.07,-2.2875,18.69,-1.3614,20.808,-3.9252,30.504,3.8673,8.4816,26.56,24.429
-46.992,42.807,-13.347,17.036,-13.842,25.135,-2.2062,18.773,-1.3708,20.783,-3.9096,30.554,3.8846,8.4338,26.625,24.537
-46.992,42.807,-13.347,17.036,-13.842,25.135,-2.2062,18.773,-1.3708,20.783,-3.9096,30.554,3.8846,8.4338,26.625,24.537
-46.992,42.807,-13.347,17.036,-13.842,25.135,-2.2062,18.773,-1.3708,20.783,-3.9096,30.554,3.8846,8.4338,26.625,24.537
-47.07,42.886,-13.349,17.084,-13.778,25.199,-2.1252,18.855,-1.3798,20.757,-3.8944,30.604,3.902,8.3855,26.689,24.645
-47.07,42.886,-13.349,17.084,-13.778,25.199,-2.1252,18.855,-1.3798,20.757,-3.8944,30.604,3.902,8.3855,26.689,24.645
-47.07,42.886,-13.349,17.084,-13.778,25.199,-2.1252,18.855,-1.3798,20.757,-3.8944,30.604,3.902,8.3855,26.689,24.645
-47.147,42.964,-13.35,17.132,-13.714,25.263,-2.0445,18.938,-1.3885,20.731,-3.8795,30.653,3.9196,8.3366,26.752,24.753
-47.147,42.964,-13.35,17.132,-13.714,25.263,-2.0445,18.938,-1.3885,20.731,-3.8795,30.653,3.9196,8.3366,26.752,24.753
-47.224,43.041,-13.352,17.18,-13.65,25.326,-1.964,19.02,-1.3968,20.703,-3.865,30.702,3.9373,8.287,26.814,24.86
-47.3,43.118,-13.354,17.227,-13.585,25.389,-1.8839,19.103,-1.4048,20.675,-3.8508,30.75,3.9553,8.2369,26.876,24.966
-47.3,43.118,-13.354,17.227,-13.585,25.389,-1.8839,19.103,-1.4048,20.675,-3.8508,30.75,3.9553,8.2369,26.876,24.966
-47.375,43.193,-13.356,17.275,-13.52,25.452,-1.8041,19.185,-1.4124,20.646,-3.837,30.797,3.9734,8.1862,26.937,25.072
-47.375,43.193,-13.356,17.275,-13.52,25.452,-1.8041,19.185,-1.4124,20.646,-3.837,30.797,3.9734,8.1862,26.937,25.072
-47.45,43.268,-13.359,17.322,-13.455,25.514,-1.7246,19.267,-1.4196,20.616,-3.8235,30.843,3.9917,8.1348,26.997,25.178
-47.45,43.268,-13.359,17.322,-13.455,25.514,-1.7246,19.267,-1.4196,20.616,-3.8235,30.843,3.9917,8.1348,26.997,25.178
-47.524,43.342,-13.361,17.369,-13.39,25.576,-1.6454,19.349,-1.4264,20.585,-3.8104,30.889,4.0101,8.0828,27.056,25.283
-47.524,43.342,-13.361,17.369,-13.39,25.576,-1.6454,19.349,-1.4264,20.585,-3.8104,30.889,4.0101,8.0828,27.056,25.283
-47.524,43.342,-13.361,17.369,-13.39,25.576,-1.6454,19.349,-1.4264,20.585,-3.8104,30.889,4.0101,8.0828,27.056,25.283
-47.598,43.415,-13.364,17.416,-13.324,25.637,-1.5664,19.43,-1.4329,20.553,-3.7976,30.934,4.0288,8.0303,27.115,25.388
-47.671,43.487,-13.367,17.463,-13.259,25.698,-1.4878,19.512,-1.4389,20.521,-3.7851,30.979,4.0476,7.9771,27.173,25.492
-47.743,43.558,-13.37,17.51,-13.193,25.758,-1.4095,19.594,-1.4446,20.487,-3.773,31.022,4.0667,7.9232,27.23,25.596
-47.743,43.558,-13.37,17.51,-13.193,25.758,-1.4095,19.594,-1.4446,20.487,-3.773,31.022,4.0667,7.9232,27.23,25.596
-47.743,43.558,-13.37,17.51,-13.193,25.758,-1.4095,19.594,-1.4446,20.487,-3.773,31.022,4.0667,7.9232,27.23,25.596
-47.815,43.629,-13.373,17.556,-13.126,25.818,-1.3315,19.675,-1.4498,20.453,-3.7613,31.065,4.0859,7.8688,27.286,25.699
-47.815,43.629,-13.373,17.556,-13.126,25.818,-1.3315,19.675,-1.4498,20.453,-3.7613,31.065,4.0859,7.8688,27.286,25.699
-47.887,43.698,-13.377,17.603,-13.06,25.878,-1.2538,19.756,-1.4547,20.418,-3.7498,31.107,4.1053,7.8137,27.342,25.802
-47.887,43.698,-13.377,17.603,-13.06,25.878,-1.2538,19.756,-1.4547,20.418,-3.7498,31.107,4.1053,7.8137,27.342,25.802
-47.887,43.698,-13.377,17.603,-13.06,25.878,-1.2538,19.756,-1.4547,20.418,-3.7498,31.107,4.1053,7.8137,27.342,25.802
-47.957,43.767,-13.38,17.649,-12.993,25.937,-1.1764,19.837,-1.4592,20.383,-3.7388,31.149,4.1249,7.758,27.397,25.904
-48.027,43.834,-13.384,17.695,-12.926,25.996,-1.0994,19.918,-1.4632,20.346,-3.728,31.19,4.1447,7.7017,27.451,26.006
-48.097,43.901,-13.388,17.741,-12.858,26.054,-1.0226,19.998,-1.4669,20.309,-3.7176,31.229,4.1647,7.6447,27.505,26.107
-48.097,43.901,-13.388,17.741,-12.858,26.054,-1.0226,19.998,-1.4669,20.309,-3.7176,31.229,4.1647,7.6447,27.505,26.107
-48.166,43.966,-13.392,17.786,-12.791,26.111,-0.9461,20.079,-1.4701,20.27,-3.7075,31.269,4.1849,7.5871,27.558,26.207
-48.166,43.966,-13.392,17.786,-12.791,26.111,-0.9461,20.079,-1.4701,20.27,-3.7075,31.269,4.1849,7.5871,27.558,26.207
-48.166,43.966,-13.392,17.786,-12.791,26.111,-0.9461,20.079,-1.4701,20.27,-3.7075,31.269,4.1849,7.5871,27.558,26.207
-48.234,44.031,-13.396,17.832,-12.723,26.168,-0.86993,20.159,-1.4729,20.231,-3.6977,31.307,4.2054,7.5289,27.61,26.307
-48.234,44.031,-13.396,17.832,-12.723,26.168,-0.86993,20.159,-1.4729,20.231,-3.6977,31.307,4.2054,7.5289,27.61,26.307
-48.234,44.031,-13.396,17.832,-12.723,26.168,-0.86993,20.159,-1.4729,20.231,-3.6977,31.307,4.2054,7.5289,27.61,26.307
-48.301,44.095,-13.401,17.877,-12.655,26.225,-0.79406,20.239,-1.4753,20.191,-3.6882,31.345,4.226,7.47,27.661,26.407
-48.301,44.095,-13.401,17.877,-12.655,26.225,-0.79406,20.239,-1.4753,20.191,-3.6882,31.345,4.226,7.47,27.661,26.407
-48.434,44.219,-13.41,17.967,-12.518,26.336,-0.64325,20.398,-1.4788,20.109,-3.6703,31.417,4.2679,7.3503,27.761,26.604
-48.434,44.219,-13.41,17.967,-12.518,26.336,-0.64325,20.398,-1.4788,20.109,-3.6703,31.417,4.2679,7.3503,27.761,26.604
-48.434,44.219,-13.41,17.967,-12.518,26.336,-0.64325,20.398,-1.4788,20.109,-3.6703,31.417,4.2679,7.3503,27.761,26.604
-48.5,44.28,-13.415,18.011,-12.449,26.391,-0.56829,20.477,-1.4799,20.066,-3.6618,31.453,4.2892,7.2895,27.81,26.702
-48.5,44.28,-13.415,18.011,-12.449,26.391,-0.56829,20.477,-1.4799,20.066,-3.6618,31.453,4.2892,7.2895,27.81,26.702
-48.5,44.28,-13.415,18.011,-12.449,26.391,-0.56829,20.477,-1.4799,20.066,-3.6618,31.453,4.2892,7.2895,27.81,26.702
-48.565,44.339,-13.42,18.056,-12.38,26.446,-0.49365,20.556,-1.4806,20.023,-3.6537,31.487,4.3107,7.228,27.858,26.799
-48.565,44.339,-13.42,18.056,-12.38,26.446,-0.49365,20.556,-1.4806,20.023,-3.6537,31.487,4.3107,7.228,27.858,26.799
-48.629,44.398,-13.425,18.1,-12.311,26.499,-0.4193,20.635,-1.4808,19.979,-3.6458,31.521,4.3324,7.1659,27.906,26.895
-48.692,44.455,-13.43,18.143,-12.241,26.553,-0.34526,20.713,-1.4806,19.934,-3.6383,31.553,4.3543,7.1031,27.952,26.991
-48.755,44.512,-13.436,18.187,-12.171,26.605,-0.27152,20.791,-1.4799,19.888,-3.631,31.585,4.3765,7.0397,27.998,27.086
-48.755,44.512,-13.436,18.187,-12.171,26.605,-0.27152,20.791,-1.4799,19.888,-3.631,31.585,4.3765,7.0397,27.998,27.086
-48.755,44.512,-13.436,18.187,-12.171,26.605,-0.27152,20.791,-1.4799,19.888,-3.631,31.585,4.3765,7.0397,27.998,27.086
-48.817,44.567,-13.441,18.23,-12.101,26.657,-0.19809,20.869,-1.4788,19.841,-3.6241,31.616,4.3989,6.9757,28.043,27.18
-48.817,44.567,-13.441,18.23,-12.101,26.657,-0.19809,20.869,-1.4788,19.841,-3.6241,31.616,4.3989,6.9757,28.043,27.18
-48.817,44.567,-13.441,18.23,-12.101,26.657,-0.19809,20.869,-1.4788,19.841,-3.6241,31.616,4.3989,6.9757,28.043,27.18
-48.879,44.621,-13.447,18.273,-12.031,26.709,-0.12495,20.946,-1.4773,19.793,-3.6174,31.646,4.4215,6.9109,28.088,27.274
-48.879,44.621,-13.447,18.273,-12.031,26.709,-0.12495,20.946,-1.4773,19.793,-3.6174,31.646,4.4215,6.9109,28.088,27.274
-48.939,44.674,-13.453,18.316,-11.96,26.76,-0.052117,21.024,-1.4752,19.745,-3.6111,31.676,4.4444,6.8456,28.131,27.367
-49,44.726,-13.458,18.359,-11.889,26.81,0.020418,21.1,-1.4728,19.695,-3.6051,31.704,4.4675,6.7795,28.174,27.46
-49.059,44.777,-13.465,18.401,-11.818,26.859,0.092653,21.177,-1.4698,19.645,-3.5993,31.731,4.4908,6.7128,28.216,27.551
-49.059,44.777,-13.465,18.401,-11.818,26.859,0.092653,21.177,-1.4698,19.645,-3.5993,31.731,4.4908,6.7128,28.216,27.551
-49.117,44.827,-13.471,18.443,-11.746,26.908,0.16459,21.253,-1.4664,19.594,-3.5939,31.758,4.5144,6.6455,28.258,27.642
-49.117,44.827,-13.471,18.443,-11.746,26.908,0.16459,21.253,-1.4664,19.594,-3.5939,31.758,4.5144,6.6455,28.258,27.642
-49.117,44.827,-13.471,18.443,-11.746,26.908,0.16459,21.253,-1.4664,19.594,-3.5939,31.758,4.5144,6.6455,28.258,27.642
-49.175,44.876,-13.477,18.485,-11.675,26.956,0.23623,21.328,-1.4625,19.542,-3.5887,31.784,4.5382,6.5775,28.298,27.733
-49.175,44.876,-13.477,18.485,-11.675,26.956,0.23623,21.328,-1.4625,19.542,-3.5887,31.784,4.5382,6.5775,28.298,27.733
-49.175,44.876,-13.477,18.485,-11.675,26.956,0.23623,21.328,-1.4625,19.542,-3.5887,31.784,4.5382,6.5775,28.298,27.733
-49.232,44.923,-13.483,18.526,-11.603,27.004,0.30758,21.404,-1.4582,19.489,-3.5838,31.808,4.5623,6.5088,28.338,27.822
-49.232,44.923,-13.483,18.526,-11.603,27.004,0.30758,21.404,-1.4582,19.489,-3.5838,31.808,4.5623,6.5088,28.338,27.822
-49.232,44.923,-13.483,18.526,-11.603,27.004,0.30758,21.404,-1.4582,19.489,-3.5838,31.808,4.5623,6.5088,28.338,27.822
-49.344,45.015,-13.496,18.608,-11.458,27.097,0.44938,21.553,-1.4481,19.38,-3.5749,31.855,4.6112,6.3694,28.415,27.999
-49.344,45.015,-13.496,18.608,-11.458,27.097,0.44938,21.553,-1.4481,19.38,-3.5749,31.855,4.6112,6.3694,28.415,27.999
-49.399,45.059,-13.503,18.648,-11.385,27.142,0.51984,21.627,-1.4423,19.325,-3.5708,31.877,4.636,6.2987,28.453,28.086
-49.399,45.059,-13.503,18.648,-11.385,27.142,0.51984,21.627,-1.4423,19.325,-3.5708,31.877,4.636,6.2987,28.453,28.086
-49.453,45.102,-13.51,18.688,-11.312,27.187,0.59001,21.701,-1.436,19.268,-3.5671,31.898,4.6611,6.2274,28.49,28.173
-49.453,45.102,-13.51,18.688,-11.312,27.187,0.59001,21.701,-1.436,19.268,-3.5671,31.898,4.6611,6.2274,28.49,28.173
-49.453,45.102,-13.51,18.688,-11.312,27.187,0.59001,21.701,-1.436,19.268,-3.5671,31.898,4.6611,6.2274,28.49,28.173
-49.506,45.143,-13.517,18.728,-11.239,27.231,0.65989,21.774,-1.4293,19.211,-3.5636,31.919,4.6864,6.1554,28.526,28.259
-49.506,45.143,-13.517,18.728,-11.239,27.231,0.65989,21.774,-1.4293,19.211,-3.5636,31.919,4.6864,6.1554,28.526,28.259
-49.506,45.143,-13.517,18.728,-11.239,27.231,0.65989,21.774,-1.4293,19.211,-3.5636,31.919,4.6864,6.1554,28.526,28.259
-49.611,45.223,-13.531,18.807,-11.092,27.317,0.79879,21.919,-1.4143,19.094,-3.5573,31.956,4.7379,6.0094,28.595,28.428
-49.611,45.223,-13.531,18.807,-11.092,27.317,0.79879,21.919,-1.4143,19.094,-3.5573,31.956,4.7379,6.0094,28.595,28.428
-49.662,45.261,-13.538,18.846,-11.017,27.358,0.86781,21.991,-1.4061,19.034,-3.5546,31.973,4.764,5.9353,28.629,28.511
-49.662,45.261,-13.538,18.846,-11.017,27.358,0.86781,21.991,-1.4061,19.034,-3.5546,31.973,4.764,5.9353,28.629,28.511
-49.712,45.297,-13.545,18.884,-10.943,27.399,0.93654,22.062,-1.3974,18.973,-3.5521,31.989,4.7904,5.8606,28.662,28.593
-49.712,45.297,-13.545,18.884,-10.943,27.399,0.93654,22.062,-1.3974,18.973,-3.5521,31.989,4.7904,5.8606,28.662,28.593
-49.761,45.333,-13.553,18.922,-10.868,27.44,1.005,22.133,-1.3882,18.912,-3.5499,32.005,4.8171,5.7853,28.694,28.675
-49.761,45.333,-13.553,18.922,-10.868,27.44,1.005,22.133,-1.3882,18.912,-3.5499,32.005,4.8171,5.7853,28.694,28.675
-49.81,45.367,-13.56,18.96,-10.794,27.479,1.0732,22.203,-1.3784,18.849,-3.5479,32.019,4.8441,5.7093,28.726,28.756
-49.81,45.367,-13.56,18.96,-10.794,27.479,1.0732,22.203,-1.3784,18.849,-3.5479,32.019,4.8441,5.7093,28.726,28.756
-49.858,45.4,-13.568,18.997,-10.718,27.518,1.141,22.273,-1.3682,18.786,-3.5462,32.032,4.8713,5.6326,28.756,28.836
-49.858,45.4,-13.568,18.997,-10.718,27.518,1.141,22.273,-1.3682,18.786,-3.5462,32.032,4.8713,5.6326,28.756,28.836
-49.905,45.431,-13.575,19.034,-10.643,27.556,1.2087,22.342,-1.3574,18.721,-3.5447,32.044,4.8988,5.5552,28.786,28.915
-49.905,45.431,-13.575,19.034,-10.643,27.556,1.2087,22.342,-1.3574,18.721,-3.5447,32.044,4.8988,5.5552,28.786,28.915
-49.951,45.462,-13.583,19.071,-10.567,27.593,1.276,22.411,-1.3462,18.656,-3.5434,32.056,4.9266,5.4771,28.815,28.993
-49.951,45.462,-13.583,19.071,-10.567,27.593,1.276,22.411,-1.3462,18.656,-3.5434,32.056,4.9266,5.4771,28.815,28.993
-49.951,45.462,-13.583,19.071,-10.567,27.593,1.276,22.411,-1.3462,18.656,-3.5434,32.056,4.9266,5.4771,28.815,28.993
-49.996,45.491,-13.591,19.107,-10.491,27.629,1.3431,22.479,-1.3344,18.59,-3.5424,32.066,4.9546,5.3984,28.844,29.07
-49.996,45.491,-13.591,19.107,-10.491,27.629,1.3431,22.479,-1.3344,18.59,-3.5424,32.066,4.9546,5.3984,28.844,29.07
-50.084,45.545,-13.606,19.179,-10.338,27.699,1.4764,22.614,-1.3093,18.456,-3.541,32.083,5.0116,5.239,28.898,29.222
-50.084,45.545,-13.606,19.179,-10.338,27.699,1.4764,22.614,-1.3093,18.456,-3.541,32.083,5.0116,5.239,28.898,29.222
-50.084,45.545,-13.606,19.179,-10.338,27.699,1.4764,22.614,-1.3093,18.456,-3.541,32.083,5.0116,5.239,28.898,29.222
-50.084,45.545,-13.606,19.179,-10.338,27.699,1.4764,22.614,-1.3093,18.456,-3.541,32.083,5.0116,5.239,28.898,29.222
-50.127,45.57,-13.614,19.214,-10.262,27.732,1.5426,22.68,-1.296,18.387,-3.5406,32.09,5.0405,5.1582,28.924,29.297
-50.127,45.57,-13.614,19.214,-10.262,27.732,1.5426,22.68,-1.296,18.387,-3.5406,32.09,5.0405,5.1582,28.924,29.297
-50.169,45.594,-13.622,19.248,-10.185,27.765,1.6086,22.746,-1.2822,18.317,-3.5405,32.097,5.0697,5.0768,28.95,29.37
-50.21,45.616,-13.63,19.282,-10.107,27.797,1.6743,22.811,-1.2678,18.247,-3.5405,32.102,5.0992,4.9947,28.974,29.443
-50.21,45.616,-13.63,19.282,-10.107,27.797,1.6743,22.811,-1.2678,18.247,-3.5405,32.102,5.0992,4.9947,28.974,29.443
-50.251,45.637,-13.638,19.316,-10.029,27.828,1.7398,22.876,-1.2529,18.176,-3.5408,32.105,5.129,4.912,28.998,29.515
-50.251,45.637,-13.638,19.316,-10.029,27.828,1.7398,22.876,-1.2529,18.176,-3.5408,32.105,5.129,4.912,28.998,29.515
-50.29,45.657,-13.647,19.35,-9.9516,27.858,1.805,22.94,-1.2375,18.104,-3.5413,32.108,5.1591,4.8286,29.021,29.586
-50.329,45.675,-13.655,19.383,-9.8734,27.887,1.8699,23.003,-1.2215,18.031,-3.542,32.11,5.1895,4.7445,29.044,29.655
-50.329,45.675,-13.655,19.383,-9.8734,27.887,1.8699,23.003,-1.2215,18.031,-3.542,32.11,5.1895,4.7445,29.044,29.655
-50.329,45.675,-13.655,19.383,-9.8734,27.887,1.8699,23.003,-1.2215,18.031,-3.542,32.11,5.1895,4.7445,29.044,29.655
-50.366,45.692,-13.663,19.415,-9.7949,27.916,1.9346,23.066,-1.205,17.957,-3.5428,32.111,5.2202,4.6597,29.065,29.724
-50.366,45.692,-13.663,19.415,-9.7949,27.916,1.9346,23.066,-1.205,17.957,-3.5428,32.111,5.2202,4.6597,29.065,29.724
-50.366,45.692,-13.663,19.415,-9.7949,27.916,1.9346,23.066,-1.205,17.957,-3.5428,32.111,5.2202,4.6597,29.065,29.724
-50.403,45.707,-13.671,19.447,-9.7161,27.943,1.999,23.128,-1.188,17.882,-3.5439,32.111,5.2512,4.5743,29.086,29.792
-50.403,45.707,-13.671,19.447,-9.7161,27.943,1.999,23.128,-1.188,17.882,-3.5439,32.111,5.2512,4.5743,29.086,29.792
-50.474,45.734,-13.688,19.51,-9.5577,27.995,2.1271,23.25,-1.1523,17.73,-3.5465,32.106,5.3141,4.4014,29.126,29.925
-50.474,45.734,-13.688,19.51,-9.5577,27.995,2.1271,23.25,-1.1523,17.73,-3.5465,32.106,5.3141,4.4014,29.126,29.925
-50.474,45.734,-13.688,19.51,-9.5577,27.995,2.1271,23.25,-1.1523,17.73,-3.5465,32.106,5.3141,4.4014,29.126,29.925
-50.508,45.745,-13.696,19.541,-9.4781,28.02,2.1908,23.31,-1.1336,17.653,-3.5481,32.103,5.346,4.314,29.144,29.99
-50.508,45.745,-13.696,19.541,-9.4781,28.02,2.1908,23.31,-1.1336,17.653,-3.5481,32.103,5.346,4.314,29.144,29.99
-50.541,45.755,-13.705,19.571,-9.3982,28.043,2.2543,23.369,-1.1144,17.575,-3.5499,32.098,5.3782,4.2259,29.162,30.053
-50.541,45.755,-13.705,19.571,-9.3982,28.043,2.2543,23.369,-1.1144,17.575,-3.5499,32.098,5.3782,4.2259,29.162,30.053
-50.573,45.763,-13.713,19.6,-9.318,28.066,2.3175,23.427,-1.0947,17.496,-3.5518,32.092,5.4108,4.1371,29.18,30.116
-50.573,45.763,-13.713,19.6,-9.318,28.066,2.3175,23.427,-1.0947,17.496,-3.5518,32.092,5.4108,4.1371,29.18,30.116
-50.605,45.77,-13.721,19.63,-9.2375,28.088,2.3804,23.485,-1.0744,17.416,-3.5539,32.085,5.4436,4.0477,29.196,30.178
-50.605,45.77,-13.721,19.63,-9.2375,28.088,2.3804,23.485,-1.0744,17.416,-3.5539,32.085,5.4436,4.0477,29.196,30.178
-50.635,45.776,-13.73,19.658,-9.1568,28.108,2.4432,23.542,-1.0535,17.335,-3.5562,32.077,5.4768,3.9576,29.212,30.239
-50.635,45.776,-13.73,19.658,-9.1568,28.108,2.4432,23.542,-1.0535,17.335,-3.5562,32.077,5.4768,3.9576,29.212,30.239
-50.665,45.78,-13.738,19.687,-9.0757,28.128,2.5057,23.598,-1.0321,17.253,-3.5586,32.068,5.5103,3.8668,29.227,30.298
-50.665,45.78,-13.738,19.687,-9.0757,28.128,2.5057,23.598,-1.0321,17.253,-3.5586,32.068,5.5103,3.8668,29.227,30.298
-50.693,45.782,-13.747,19.714,-8.9944,28.147,2.568,23.654,-1.0102,17.171,-3.5612,32.057,5.5441,3.7754,29.241,30.357
-50.693,45.782,-13.747,19.714,-8.9944,28.147,2.568,23.654,-1.0102,17.171,-3.5612,32.057,5.5441,3.7754,29.241,30.357
-50.721,45.783,-13.755,19.741,-8.9128,28.164,2.63,23.709,-0.98769,17.088,-3.5639,32.045,5.5782,3.6833,29.254,30.414
-50.721,45.783,-13.755,19.741,-8.9128,28.164,2.63,23.709,-0.98769,17.088,-3.5639,32.045,5.5782,3.6833,29.254,30.414
-50.748,45.783,-13.764,19.768,-8.8308,28.181,2.6918,23.762,-0.96463,17.004,-3.5667,32.033,5.6127,3.5906,29.267,30.47
-50.748,45.783,-13.764,19.768,-8.8308,28.181,2.6918,23.762,-0.96463,17.004,-3.5667,32.033,5.6127,3.5906,29.267,30.47
-50.774,45.781,-13.772,19.794,-8.7486,28.196,2.7534,23.815,-0.94102,16.919,-3.5697,32.019,5.6474,3.4972,29.279,30.525
-50.774,45.781,-13.772,19.794,-8.7486,28.196,2.7534,23.815,-0.94102,16.919,-3.5697,32.019,5.6474,3.4972,29.279,30.525
-50.774,45.781,-13.772,19.794,-8.7486,28.196,2.7534,23.815,-0.94102,16.919,-3.5697,32.019,5.6474,3.4972,29.279,30.525
-50.798,45.778,-13.78,19.82,-8.6661,28.211,2.8148,23.868,-0.91685,16.833,-3.5728,32.004,5.6825,3.4031,29.291,30.58
-50.798,45.778,-13.78,19.82,-8.6661,28.211,2.8148,23.868,-0.91685,16.833,-3.5728,32.004,5.6825,3.4031,29.291,30.58
-50.822,45.773,-13.789,19.845,-8.5833,28.224,2.876,23.919,-0.89212,16.746,-3.576,31.987,5.718,3.3084,29.301,30.633
-50.822,45.773,-13.789,19.845,-8.5833,28.224,2.876,23.919,-0.89212,16.746,-3.576,31.987,5.718,3.3084,29.301,30.633
-50.845,45.767,-13.797,19.87,-8.5002,28.236,2.9369,23.97,-0.86683,16.659,-3.5793,31.97,5.7537,3.2131,29.311,30.684
-50.845,45.767,-13.797,19.87,-8.5002,28.236,2.9369,23.97,-0.86683,16.659,-3.5793,31.97,5.7537,3.2131,29.311,30.684
-50.888,45.749,-13.814,19.917,-8.3332,28.258,3.0582,24.068,-0.81456,16.481,-3.5864,31.931,5.8262,3.0204,29.329,30.785
-50.888,45.749,-13.814,19.917,-8.3332,28.258,3.0582,24.068,-0.81456,16.481,-3.5864,31.931,5.8262,3.0204,29.329,30.785
-50.908,45.738,-13.823,19.94,-8.2492,28.267,3.1186,24.116,-0.78758,16.391,-3.59,31.91,5.863,2.9231,29.337,30.833
-50.908,45.738,-13.823,19.94,-8.2492,28.267,3.1186,24.116,-0.78758,16.391,-3.59,31.91,5.863,2.9231,29.337,30.833
-50.908,45.738,-13.823,19.94,-8.2492,28.267,3.1186,24.116,-0.78758,16.391,-3.59,31.91,5.863,2.9231,29.337,30.833
-50.927,45.726,-13.831,19.962,-8.1649,28.275,3.1787,24.163,-0.76003,16.301,-3.5938,31.888,5.9001,2.8252,29.344,30.88
-50.927,45.726,-13.831,19.962,-8.1649,28.275,3.1787,24.163,-0.76003,16.301,-3.5938,31.888,5.9001,2.8252,29.344,30.88
-50.927,45.726,-13.831,19.962,-8.1649,28.275,3.1787,24.163,-0.76003,16.301,-3.5938,31.888,5.9001,2.8252,29.344,30.88
-50.945,45.712,-13.839,19.984,-8.0804,28.282,3.2387,24.209,-0.73192,16.209,-3.5977,31.865,5.9375,2.7266,29.35,30.926
-50.945,45.712,-13.839,19.984,-8.0804,28.282,3.2387,24.209,-0.73192,16.209,-3.5977,31.865,5.9375,2.7266,29.35,30.926
-50.962,45.696,-13.848,20.005,-7.9955,28.288,3.2985,24.254,-0.70324,16.117,-3.6016,31.84,5.9753,2.6273,29.356,30.971
-50.962,45.696,-13.848,20.005,-7.9955,28.288,3.2985,24.254,-0.70324,16.117,-3.6016,31.84,5.9753,2.6273,29.356,30.971
-50.979,45.679,-13.856,20.025,-7.9103,28.292,3.358,24.299,-0.67399,16.023,-3.6057,31.814,6.0133,2.5275,29.361,31.015
-50.979,45.679,-13.856,20.025,-7.9103,28.292,3.358,24.299,-0.67399,16.023,-3.6057,31.814,6.0133,2.5275,29.361,31.015
-50.994,45.66,-13.864,20.045,-7.8249,28.296,3.4174,24.342,-0.64418,15.929,-3.6098,31.787,6.0518,2.427,29.365,31.057
-50.994,45.66,-13.864,20.045,-7.8249,28.296,3.4174,24.342,-0.64418,15.929,-3.6098,31.787,6.0518,2.427,29.365,31.057
-51.008,45.64,-13.872,20.064,-7.7391,28.298,3.4766,24.384,-0.61379,15.835,-3.614,31.759,6.0906,2.3258,29.369,31.098
-51.008,45.64,-13.872,20.064,-7.7391,28.298,3.4766,24.384,-0.61379,15.835,-3.614,31.759,6.0906,2.3258,29.369,31.098
-51.021,45.618,-13.881,20.083,-7.6531,28.299,3.5357,24.426,-0.58284,15.739,-3.6182,31.729,6.1297,2.224,29.372,31.138
-51.021,45.618,-13.881,20.083,-7.6531,28.299,3.5357,24.426,-0.58284,15.739,-3.6182,31.729,6.1297,2.224,29.372,31.138
-51.044,45.569,-13.897,20.118,-7.48,28.298,3.6532,24.505,-0.51921,15.545,-3.6269,31.667,6.209,2.0186,29.376,31.214
-51.044,45.569,-13.897,20.118,-7.48,28.298,3.6532,24.505,-0.51921,15.545,-3.6269,31.667,6.209,2.0186,29.376,31.214
-51.044,45.569,-13.897,20.118,-7.48,28.298,3.6532,24.505,-0.51921,15.545,-3.6269,31.667,6.209,2.0186,29.376,31.214
-51.054,45.542,-13.905,20.135,-7.393,28.295,3.7117,24.544,-0.48654,15.447,-3.6313,31.633,6.2491,1.9149,29.377,31.251
-51.054,45.542,-13.905,20.135,-7.393,28.295,3.7117,24.544,-0.48654,15.447,-3.6313,31.633,6.2491,1.9149,29.377,31.251
-51.063,45.514,-13.913,20.151,-7.3058,28.292,3.7701,24.581,-0.4533,15.348,-3.6358,31.599,6.2896,1.8107,29.377,31.286
-51.063,45.514,-13.913,20.151,-7.3058,28.292,3.7701,24.581,-0.4533,15.348,-3.6358,31.599,6.2896,1.8107,29.377,31.286
-51.063,45.514,-13.913,20.151,-7.3058,28.292,3.7701,24.581,-0.4533,15.348,-3.6358,31.599,6.2896,1.8107,29.377,31.286
-51.071,45.484,-13.921,20.167,-7.2182,28.287,3.8283,24.618,-0.41949,15.249,-3.6403,31.563,6.3305,1.7058,29.376,31.319
-51.071,45.484,-13.921,20.167,-7.2182,28.287,3.8283,24.618,-0.41949,15.249,-3.6403,31.563,6.3305,1.7058,29.376,31.319
-51.084,45.419,-13.936,20.196,-7.0421,28.273,3.9443,24.687,-0.35014,15.047,-3.6494,31.488,6.4132,1.4941,29.374,31.383
-51.084,45.419,-13.936,20.196,-7.0421,28.273,3.9443,24.687,-0.35014,15.047,-3.6494,31.488,6.4132,1.4941,29.374,31.383
-51.088,45.385,-13.944,20.209,-6.9536,28.265,4.002,24.72,-0.31461,14.945,-3.654,31.448,6.4551,1.3874,29.371,31.413
-51.088,45.385,-13.944,20.209,-6.9536,28.265,4.002,24.72,-0.31461,14.945,-3.654,31.448,6.4551,1.3874,29.371,31.413
-51.088,45.385,-13.944,20.209,-6.9536,28.265,4.002,24.72,-0.31461,14.945,-3.654,31.448,6.4551,1.3874,29.371,31.413
-51.092,45.348,-13.952,20.222,-6.8648,28.255,4.0596,24.753,-0.2785,14.843,-3.6586,31.407,6.4973,1.28,29.368,31.442
-51.092,45.348,-13.952,20.222,-6.8648,28.255,4.0596,24.753,-0.2785,14.843,-3.6586,31.407,6.4973,1.28,29.368,31.442
-51.092,45.348,-13.952,20.222,-6.8648,28.255,4.0596,24.753,-0.2785,14.843,-3.6586,31.407,6.4973,1.28,29.368,31.442
-51.095,45.31,-13.959,20.234,-6.7757,28.244,4.1171,24.784,-0.24182,14.739,-3.6632,31.365,6.5399,1.1721,29.364,31.469
-51.095,45.31,-13.959,20.234,-6.7757,28.244,4.1171,24.784,-0.24182,14.739,-3.6632,31.365,6.5399,1.1721,29.364,31.469
-51.095,45.31,-13.959,20.234,-6.7757,28.244,4.1171,24.784,-0.24182,14.739,-3.6632,31.365,6.5399,1.1721,29.364,31.469
-51.097,45.229,-13.974,20.256,-6.5965,28.218,4.2316,24.842,-0.16674,14.53,-3.6725,31.277,6.6262,0.95439,29.355,31.519
-51.097,45.229,-13.974,20.256,-6.5965,28.218,4.2316,24.842,-0.16674,14.53,-3.6725,31.277,6.6262,0.95439,29.355,31.519
-51.097,45.186,-13.981,20.266,-6.5065,28.203,4.2887,24.87,-0.12834,14.424,-3.6771,31.231,6.6698,0.84464,29.349,31.543
-51.097,45.186,-13.981,20.266,-6.5065,28.203,4.2887,24.87,-0.12834,14.424,-3.6771,31.231,6.6698,0.84464,29.349,31.543
-51.095,45.141,-13.988,20.275,-6.4161,28.187,4.3456,24.897,-0.089369,14.318,-3.6817,31.184,6.7138,0.73431,29.343,31.565
-51.095,45.141,-13.988,20.275,-6.4161,28.187,4.3456,24.897,-0.089369,14.318,-3.6817,31.184,6.7138,0.73431,29.343,31.565
-51.095,45.141,-13.988,20.275,-6.4161,28.187,4.3456,24.897,-0.089369,14.318,-3.6817,31.184,6.7138,0.73431,29.343,31.565
-51.093,45.095,-13.996,20.283,-6.3254,28.17,4.4025,24.922,-0.049823,14.211,-3.6863,31.136,6.7582,0.62338,29.336,31.585
-51.093,45.095,-13.996,20.283,-6.3254,28.17,4.4025,24.922,-0.049823,14.211,-3.6863,31.136,6.7582,0.62338,29.336,31.585
-51.089,45.047,-14.003,20.291,-6.2344,28.151,4.4592,24.946,-0.0097041,14.103,-3.6909,31.086,6.8029,0.51187,29.328,31.604
-51.089,45.047,-14.003,20.291,-6.2344,28.151,4.4592,24.946,-0.0097041,14.103,-3.6909,31.086,6.8029,0.51187,29.328,31.604
-51.084,44.997,-14.009,20.298,-6.1431,28.131,4.5158,24.969,0.030987,13.994,-3.6954,31.035,6.8479,0.39978,29.32,31.622
-51.084,44.997,-14.009,20.298,-6.1431,28.131,4.5158,24.969,0.030987,13.994,-3.6954,31.035,6.8479,0.39978,29.32,31.622
-51.079,44.946,-14.016,20.304,-6.0515,28.11,4.5723,24.991,0.07225,13.885,-3.7,30.982,6.8934,0.28711,29.311,31.639
-51.079,44.946,-14.016,20.304,-6.0515,28.11,4.5723,24.991,0.07225,13.885,-3.7,30.982,6.8934,0.28711,29.311,31.639
-51.079,44.946,-14.016,20.304,-6.0515,28.11,4.5723,24.991,0.07225,13.885,-3.7,30.982,6.8934,0.28711,29.311,31.639
-51.064,44.838,-14.03,20.315,-5.8674,28.063,4.685,25.032,0.15649,13.664,-3.7089,30.874,6.9853,0.060057,29.292,31.668
-51.064,44.838,-14.03,20.315,-5.8674,28.063,4.685,25.032,0.15649,13.664,-3.7089,30.874,6.9853,0.060057,29.292,31.668
-51.055,44.781,-14.036,20.319,-5.7748,28.038,4.7412,25.05,0.19947,13.552,-3.7133,30.817,7.0318,-0.054321,29.281,31.68
-51.044,44.723,-14.042,20.322,-5.6819,28.011,4.7973,25.067,0.24301,13.44,-3.7176,30.76,7.0786,-0.16926,29.27,31.691
-51.044,44.723,-14.042,20.322,-5.6819,28.011,4.7973,25.067,0.24301,13.44,-3.7176,30.76,7.0786,-0.16926,29.27,31.691
-51.033,44.663,-14.049,20.324,-5.5887,27.983,4.8534,25.083,0.28712,13.327,-3.7218,30.701,7.1258,-0.28476,29.258,31.7
-51.033,44.663,-14.049,20.324,-5.5887,27.983,4.8534,25.083,0.28712,13.327,-3.7218,30.701,7.1258,-0.28476,29.258,31.7
-51.021,44.602,-14.055,20.326,-5.4952,27.954,4.9093,25.097,0.33181,13.213,-3.726,30.64,7.1734,-0.40081,29.246,31.709
-51.021,44.602,-14.055,20.326,-5.4952,27.954,4.9093,25.097,0.33181,13.213,-3.726,30.64,7.1734,-0.40081,29.246,31.709
-51.021,44.602,-14.055,20.326,-5.4952,27.954,4.9093,25.097,0.33181,13.213,-3.726,30.64,7.1734,-0.40081,29.246,31.709
-51.007,44.538,-14.061,20.327,-5.4014,27.923,4.9652,25.111,0.37706,13.099,-3.7302,30.579,7.2213,-0.51742,29.233,31.715
-51.007,44.538,-14.061,20.327,-5.4014,27.923,4.9652,25.111,0.37706,13.099,-3.7302,30.579,7.2213,-0.51742,29.233,31.715
-50.993,44.473,-14.066,20.327,-5.3072,27.891,5.021,25.123,0.42287,12.984,-3.7342,30.516,7.2696,-0.63456,29.219,31.72
-50.993,44.473,-14.066,20.327,-5.3072,27.891,5.021,25.123,0.42287,12.984,-3.7342,30.516,7.2696,-0.63456,29.219,31.72
-50.977,44.407,-14.072,20.326,-5.2128,27.857,5.0768,25.133,0.46925,12.868,-3.7382,30.452,7.3182,-0.75225,29.205,31.724
-50.96,44.338,-14.078,20.324,-5.118,27.822,5.1324,25.143,0.5162,12.752,-3.742,30.386,7.3672,-0.87048,29.19,31.727
-50.96,44.338,-14.078,20.324,-5.118,27.822,5.1324,25.143,0.5162,12.752,-3.742,30.386,7.3672,-0.87048,29.19,31.727
-50.96,44.338,-14.078,20.324,-5.118,27.822,5.1324,25.143,0.5162,12.752,-3.742,30.386,7.3672,-0.87048,29.19,31.727
-50.942,44.268,-14.083,20.322,-5.0229,27.786,5.1881,25.151,0.5637,12.635,-3.7458,30.319,7.4165,-0.98924,29.175,31.728
-50.942,44.268,-14.083,20.322,-5.0229,27.786,5.1881,25.151,0.5637,12.635,-3.7458,30.319,7.4165,-0.98924,29.175,31.728
-50.923,44.196,-14.088,20.319,-4.9274,27.748,5.2436,25.158,0.61177,12.517,-3.7495,30.251,7.4662,-1.1085,29.159,31.727
-50.923,44.196,-14.088,20.319,-4.9274,27.748,5.2436,25.158,0.61177,12.517,-3.7495,30.251,7.4662,-1.1085,29.159,31.727
-50.923,44.196,-14.088,20.319,-4.9274,27.748,5.2436,25.158,0.61177,12.517,-3.7495,30.251,7.4662,-1.1085,29.159,31.727
-50.903,44.122,-14.093,20.314,-4.8317,27.709,5.2991,25.164,0.66041,12.399,-3.753,30.181,7.5163,-1.2283,29.142,31.725
-50.903,44.122,-14.093,20.314,-4.8317,27.709,5.2991,25.164,0.66041,12.399,-3.753,30.181,7.5163,-1.2283,29.142,31.725
-50.903,44.122,-14.093,20.314,-4.8317,27.709,5.2991,25.164,0.66041,12.399,-3.753,30.181,7.5163,-1.2283,29.142,31.725
-50.859,43.97,-14.103,20.304,-4.6392,27.626,5.41,25.171,0.75934,12.16,-3.7598,30.038,7.6174,-1.4695,29.107,31.717
-50.859,43.97,-14.103,20.304,-4.6392,27.626,5.41,25.171,0.75934,12.16,-3.7598,30.038,7.6174,-1.4695,29.107,31.717
-50.835,43.891,-14.108,20.297,-4.5425,27.582,5.4654,25.172,0.80965,12.04,-3.763,29.965,7.6686,-1.5909,29.089,31.71
-50.835,43.891,-14.108,20.297,-4.5425,27.582,5.4654,25.172,0.80965,12.04,-3.763,29.965,7.6686,-1.5909,29.089,31.71
-50.81,43.811,-14.112,20.289,-4.4454,27.538,5.5208,25.172,0.86051,11.919,-3.766,29.89,7.72,-1.7127,29.07,31.702
-50.81,43.811,-14.112,20.289,-4.4454,27.538,5.5208,25.172,0.86051,11.919,-3.766,29.89,7.72,-1.7127,29.07,31.702
-50.784,43.728,-14.116,20.281,-4.348,27.491,5.5761,25.171,0.91193,11.797,-3.7689,29.814,7.7719,-1.8351,29.051,31.693
-50.784,43.728,-14.116,20.281,-4.348,27.491,5.5761,25.171,0.91193,11.797,-3.7689,29.814,7.7719,-1.8351,29.051,31.693
-50.757,43.644,-14.12,20.272,-4.2503,27.443,5.6315,25.168,0.96389,11.675,-3.7717,29.736,7.824,-1.9579,29.031,31.682
-50.757,43.644,-14.12,20.272,-4.2503,27.443,5.6315,25.168,0.96389,11.675,-3.7717,29.736,7.824,-1.9579,29.031,31.682
-50.757,43.644,-14.12,20.272,-4.2503,27.443,5.6315,25.168,0.96389,11.675,-3.7717,29.736,7.824,-1.9579,29.031,31.682
-50.729,43.558,-14.124,20.261,-4.1523,27.394,5.6868,25.164,1.0164,11.552,-3.7743,29.657,7.8766,-2.0813,29.011,31.669
-50.729,43.558,-14.124,20.261,-4.1523,27.394,5.6868,25.164,1.0164,11.552,-3.7743,29.657,7.8766,-2.0813,29.011,31.669
-50.729,43.558,-14.124,20.261,-4.1523,27.394,5.6868,25.164,1.0164,11.552,-3.7743,29.657,7.8766,-2.0813,29.011,31.669
-50.669,43.381,-14.131,20.238,-3.9553,27.291,5.7973,25.152,1.1231,11.305,-3.7791,29.495,7.9827,-2.3294,28.968,31.64
-50.669,43.381,-14.131,20.238,-3.9553,27.291,5.7973,25.152,1.1231,11.305,-3.7791,29.495,7.9827,-2.3294,28.968,31.64
-50.637,43.29,-14.135,20.225,-3.8563,27.237,5.8526,25.144,1.1772,11.18,-3.7812,29.412,8.0363,-2.4542,28.946,31.623
-50.604,43.198,-14.138,20.211,-3.757,27.182,5.9079,25.134,1.232,11.055,-3.7832,29.328,8.0902,-2.5794,28.924,31.605
-50.604,43.198,-14.138,20.211,-3.757,27.182,5.9079,25.134,1.232,11.055,-3.7832,29.328,8.0902,-2.5794,28.924,31.605
-50.604,43.198,-14.138,20.211,-3.757,27.182,5.9079,25.134,1.232,11.055,-3.7832,29.328,8.0902,-2.5794,28.924,31.605
-50.57,43.103,-14.14,20.196,-3.6573,27.125,5.9631,25.123,1.2872,10.929,-3.785,29.242,8.1445,-2.7051,28.901,31.585
-50.57,43.103,-14.14,20.196,-3.6573,27.125,5.9631,25.123,1.2872,10.929,-3.785,29.242,8.1445,-2.7051,28.901,31.585
-50.535,43.007,-14.143,20.181,-3.5573,27.067,6.0184,25.11,1.343,10.803,-3.7865,29.155,8.1991,-2.8313,28.877,31.563
-50.535,43.007,-14.143,20.181,-3.5573,27.067,6.0184,25.11,1.343,10.803,-3.7865,29.155,8.1991,-2.8313,28.877,31.563
-50.498,42.909,-14.146,20.164,-3.457,27.007,6.0737,25.096,1.3993,10.676,-3.7879,29.067,8.2541,-2.9579,28.853,31.54
-50.498,42.909,-14.146,20.164,-3.457,27.007,6.0737,25.096,1.3993,10.676,-3.7879,29.067,8.2541,-2.9579,28.853,31.54
-50.498,42.909,-14.146,20.164,-3.457,27.007,6.0737,25.096,1.3993,10.676,-3.7879,29.067,8.2541,-2.9579,28.853,31.54
-50.461,42.809,-14.148,20.146,-3.3564,26.946,6.1291,25.081,1.4562,10.548,-3.7891,28.977,8.3094,-3.085,28.828,31.515
-50.461,42.809,-14.148,20.146,-3.3564,26.946,6.1291,25.081,1.4562,10.548,-3.7891,28.977,8.3094,-3.085,28.828,31.515
-50.382,42.604,-14.152,20.108,-3.1541,26.819,6.2398,25.045,1.5715,10.292,-3.7909,28.794,8.4211,-3.3404,28.778,31.461
-50.382,42.604,-14.152,20.108,-3.1541,26.819,6.2398,25.045,1.5715,10.292,-3.7909,28.794,8.4211,-3.3404,28.778,31.461
-50.382,42.604,-14.152,20.108,-3.1541,26.819,6.2398,25.045,1.5715,10.292,-3.7909,28.794,8.4211,-3.3404,28.778,31.461
-50.341,42.499,-14.153,20.088,-3.0525,26.754,6.2952,25.025,1.6299,10.162,-3.7915,28.7,8.4775,-3.4688,28.752,31.432
-50.341,42.499,-14.153,20.088,-3.0525,26.754,6.2952,25.025,1.6299,10.162,-3.7915,28.7,8.4775,-3.4688,28.752,31.432
-50.298,42.392,-14.154,20.066,-2.9505,26.686,6.3506,25.004,1.6889,10.033,-3.7918,28.605,8.5342,-3.5975,28.725,31.401
-50.298,42.392,-14.154,20.066,-2.9505,26.686,6.3506,25.004,1.6889,10.033,-3.7918,28.605,8.5342,-3.5975,28.725,31.401
-50.255,42.283,-14.155,20.044,-2.8482,26.617,6.4061,24.981,1.7484,9.9026,-3.7919,28.508,8.5912,-3.7267,28.698,31.369
-50.255,42.283,-14.155,20.044,-2.8482,26.617,6.4061,24.981,1.7484,9.9026,-3.7919,28.508,8.5912,-3.7267,28.698,31.369
-50.21,42.173,-14.156,20.02,-2.7456,26.547,6.4616,24.956,1.8084,9.7718,-3.7918,28.41,8.6486,-3.8563,28.671,31.335
-50.21,42.173,-14.156,20.02,-2.7456,26.547,6.4616,24.956,1.8084,9.7718,-3.7918,28.41,8.6486,-3.8563,28.671,31.335
-50.164,42.06,-14.157,19.996,-2.6427,26.475,6.5172,24.93,1.869,9.6406,-3.7915,28.311,8.7063,-3.9863,28.643,31.299
-50.164,42.06,-14.157,19.996,-2.6427,26.475,6.5172,24.93,1.869,9.6406,-3.7915,28.311,8.7063,-3.9863,28.643,31.299
-50.117,41.947,-14.157,19.97,-2.5394,26.402,6.5728,24.903,1.93,9.5088,-3.7909,28.211,8.7644,-4.1168,28.614,31.262
-50.117,41.947,-14.157,19.97,-2.5394,26.402,6.5728,24.903,1.93,9.5088,-3.7909,28.211,8.7644,-4.1168,28.614,31.262
-50.069,41.831,-14.157,19.944,-2.4358,26.327,6.6285,24.873,1.9916,9.3766,-3.79,28.109,8.8228,-4.2475,28.585,31.223
-50.069,41.831,-14.157,19.944,-2.4358,26.327,6.6285,24.873,1.9916,9.3766,-3.79,28.109,8.8228,-4.2475,28.585,31.223
-50.019,41.713,-14.157,19.917,-2.3319,26.25,6.6842,24.843,2.0537,9.2438,-3.7889,28.006,8.8815,-4.3787,28.556,31.183
-50.019,41.713,-14.157,19.917,-2.3319,26.25,6.6842,24.843,2.0537,9.2438,-3.7889,28.006,8.8815,-4.3787,28.556,31.183
-49.968,41.594,-14.157,19.888,-2.2276,26.172,6.7401,24.811,2.1163,9.1106,-3.7875,27.901,8.9406,-4.5103,28.526,31.141
-49.968,41.594,-14.157,19.888,-2.2276,26.172,6.7401,24.811,2.1163,9.1106,-3.7875,27.901,8.9406,-4.5103,28.526,31.141
-49.916,41.473,-14.156,19.859,-2.1231,26.093,6.7959,24.777,2.1794,8.9769,-3.7859,27.795,9,-4.6422,28.496,31.097
-49.916,41.473,-14.156,19.859,-2.1231,26.093,6.7959,24.777,2.1794,8.9769,-3.7859,27.795,9,-4.6422,28.496,31.097
-49.863,41.35,-14.155,19.828,-2.0181,26.012,6.8519,24.742,2.243,8.8427,-3.7839,27.688,9.0597,-4.7745,28.465,31.052
-49.863,41.35,-14.155,19.828,-2.0181,26.012,6.8519,24.742,2.243,8.8427,-3.7839,27.688,9.0597,-4.7745,28.465,31.052
-49.863,41.35,-14.155,19.828,-2.0181,26.012,6.8519,24.742,2.243,8.8427,-3.7839,27.688,9.0597,-4.7745,28.465,31.052
-49.809,41.226,-14.153,19.796,-1.9129,25.929,6.9079,24.705,2.3071,8.7081,-3.7817,27.58,9.1198,-4.9071,28.434,31.005
-49.809,41.226,-14.153,19.796,-1.9129,25.929,6.9079,24.705,2.3071,8.7081,-3.7817,27.58,9.1198,-4.9071,28.434,31.005
-49.753,41.1,-14.152,19.764,-1.8073,25.845,6.964,24.666,2.3717,8.573,-3.7793,27.47,9.1802,-5.0401,28.402,30.957
-49.697,40.972,-14.15,19.73,-1.7014,25.759,7.0203,24.626,2.4368,8.4374,-3.7765,27.359,9.2409,-5.1735,28.37,30.907
-49.639,40.842,-14.148,19.696,-1.5952,25.671,7.0765,24.584,2.5024,8.3014,-3.7734,27.246,9.3019,-5.3072,28.338,30.855
-49.639,40.842,-14.148,19.696,-1.5952,25.671,7.0765,24.584,2.5024,8.3014,-3.7734,27.246,9.3019,-5.3072,28.338,30.855
-49.639,40.842,-14.148,19.696,-1.5952,25.671,7.0765,24.584,2.5024,8.3014,-3.7734,27.246,9.3019,-5.3072,28.338,30.855
-49.579,40.711,-14.145,19.66,-1.4887,25.582,7.1329,24.541,2.5685,8.165,-3.77,27.132,9.3633,-5.4412,28.305,30.802
-49.579,40.711,-14.145,19.66,-1.4887,25.582,7.1329,24.541,2.5685,8.165,-3.77,27.132,9.3633,-5.4412,28.305,30.802
-49.579,40.711,-14.145,19.66,-1.4887,25.582,7.1329,24.541,2.5685,8.165,-3.77,27.132,9.3633,-5.4412,28.305,30.802
-49.519,40.577,-14.143,19.623,-1.3818,25.492,7.1894,24.496,2.6351,8.0282,-3.7663,27.017,9.425,-5.5755,28.272,30.747
-49.519,40.577,-14.143,19.623,-1.3818,25.492,7.1894,24.496,2.6351,8.0282,-3.7663,27.017,9.425,-5.5755,28.272,30.747
-49.457,40.442,-14.139,19.585,-1.2746,25.4,7.246,24.45,2.7021,7.8909,-3.7623,26.901,9.487,-5.7101,28.238,30.691
-49.457,40.442,-14.139,19.585,-1.2746,25.4,7.246,24.45,2.7021,7.8909,-3.7623,26.901,9.487,-5.7101,28.238,30.691
-49.457,40.442,-14.139,19.585,-1.2746,25.4,7.246,24.45,2.7021,7.8909,-3.7623,26.901,9.487,-5.7101,28.238,30.691
-49.33,40.167,-14.132,19.506,-1.0592,25.211,7.3595,24.352,2.8377,7.6152,-3.7534,26.664,9.6119,-5.9803,28.17,30.573
-49.33,40.167,-14.132,19.506,-1.0592,25.211,7.3595,24.352,2.8377,7.6152,-3.7534,26.664,9.6119,-5.9803,28.17,30.573
-49.33,40.167,-14.132,19.506,-1.0592,25.211,7.3595,24.352,2.8377,7.6152,-3.7534,26.664,9.6119,-5.9803,28.17,30.573
-49.265,40.027,-14.128,19.465,-0.95107,25.114,7.4164,24.301,2.9062,7.4768,-3.7484,26.543,9.6749,-6.1158,28.135,30.512
-49.198,39.885,-14.124,19.423,-0.84258,25.015,7.4734,24.248,2.9751,7.3379,-3.743,26.421,9.7381,-6.2517,28.099,30.449
-49.198,39.885,-14.124,19.423,-0.84258,25.015,7.4734,24.248,2.9751,7.3379,-3.743,26.421,9.7381,-6.2517,28.099,30.449
-49.13,39.741,-14.119,19.38,-0.73377,24.915,7.5306,24.193,3.0445,7.1987,-3.7374,26.298,9.8017,-6.3878,28.064,30.384
-49.13,39.741,-14.119,19.38,-0.73377,24.915,7.5306,24.193,3.0445,7.1987,-3.7374,26.298,9.8017,-6.3878,28.064,30.384
-49.061,39.596,-14.114,19.335,-0.62463,24.814,7.5879,24.137,3.1144,7.0591,-3.7314,26.174,9.8656,-6.5241,28.028,30.318
-48.991,39.449,-14.109,19.29,-0.51518,24.711,7.6453,24.079,3.1848,6.9192,-3.725,26.048,9.9298,-6.6607,27.991,30.25
-48.991,39.449,-14.109,19.29,-0.51518,24.711,7.6453,24.079,3.1848,6.9192,-3.725,26.048,9.9298,-6.6607,27.991,30.25
-48.919,39.3,-14.103,19.243,-0.40541,24.606,7.7028,24.019,3.2556,6.7789,-3.7183,25.921,9.9943,-6.7976,27.954,30.181
-48.919,39.3,-14.103,19.243,-0.40541,24.606,7.7028,24.019,3.2556,6.7789,-3.7183,25.921,9.9943,-6.7976,27.954,30.181
-48.919,39.3,-14.103,19.243,-0.40541,24.606,7.7028,24.019,3.2556,6.7789,-3.7183,25.921,9.9943,-6.7976,27.954,30.181
-48.847,39.149,-14.097,19.195,-0.29532,24.5,7.7605,23.958,3.3268,6.6383,-3.7112,25.793,10.059,-6.9347,27.917,30.11
-48.847,39.149,-14.097,19.195,-0.29532,24.5,7.7605,23.958,3.3268,6.6383,-3.7112,25.793,10.059,-6.9347,27.917,30.11
-48.847,39.149,-14.097,19.195,-0.29532,24.5,7.7605,23.958,3.3268,6.6383,-3.7112,25.793,10.059,-6.9347,27.917,30.11
-48.773,38.997,-14.091,19.147,-0.18491,24.392,7.8183,23.896,3.3985,6.4973,-3.7038,25.663,10.124,-7.0721,27.88,30.037
-48.697,38.843,-14.084,19.097,-0.074185,24.282,7.8762,23.831,3.4707,6.356,-3.6959,25.532,10.19,-7.2097,27.842,29.963
-48.697,38.843,-14.084,19.097,-0.074185,24.282,7.8762,23.831,3.4707,6.356,-3.6959,25.532,10.19,-7.2097,27.842,29.963
-48.621,38.687,-14.077,19.046,0.036853,24.171,7.9343,23.765,3.5433,6.2144,-3.6877,25.4,10.255,-7.3475,27.803,29.887
-48.621,38.687,-14.077,19.046,0.036853,24.171,7.9343,23.765,3.5433,6.2144,-3.6877,25.4,10.255,-7.3475,27.803,29.887
-48.621,38.687,-14.077,19.046,0.036853,24.171,7.9343,23.765,3.5433,6.2144,-3.6877,25.4,10.255,-7.3475,27.803,29.887
-48.621,38.687,-14.077,19.046,0.036853,24.171,7.9343,23.765,3.5433,6.2144,-3.6877,25.4,10.255,-7.3475,27.803,29.887
-48.464,38.371,-14.061,18.94,0.25987,23.944,8.0509,23.628,3.6898,5.9303,-3.6701,25.132,10.387,-7.6237,27.726,29.73
-48.464,38.371,-14.061,18.94,0.25987,23.944,8.0509,23.628,3.6898,5.9303,-3.6701,25.132,10.387,-7.6237,27.726,29.73
-48.464,38.371,-14.061,18.94,0.25987,23.944,8.0509,23.628,3.6898,5.9303,-3.6701,25.132,10.387,-7.6237,27.726,29.73
-48.384,38.21,-14.053,18.886,0.37184,23.829,8.1094,23.557,3.7637,5.7878,-3.6607,24.996,10.454,-7.7621,27.686,29.65
-48.303,38.048,-14.044,18.83,0.48412,23.711,8.1681,23.484,3.8381,5.645,-3.651,24.859,10.521,-7.9007,27.647,29.567
-48.22,37.884,-14.035,18.774,0.59671,23.592,8.2269,23.41,3.9128,5.502,-3.6408,24.72,10.588,-8.0395,27.607,29.483
-48.22,37.884,-14.035,18.774,0.59671,23.592,8.2269,23.41,3.9128,5.502,-3.6408,24.72,10.588,-8.0395,27.607,29.483
-48.22,37.884,-14.035,18.774,0.59671,23.592,8.2269,23.41,3.9128,5.502,-3.6408,24.72,10.588,-8.0395,27.607,29.483
-48.136,37.718,-14.026,18.716,0.70961,23.472,8.2859,23.334,3.988,5.3587,-3.6302,24.581,10.655,-8.1784,27.566,29.398
-48.136,37.718,-14.026,18.716,0.70961,23.472,8.2859,23.334,3.988,5.3587,-3.6302,24.581,10.655,-8.1784,27.566,29.398
-48.051,37.55,-14.016,18.657,0.82281,23.35,8.345,23.256,4.0636,5.2151,-3.6192,24.44,10.723,-8.3175,27.526,29.31
-48.051,37.55,-14.016,18.657,0.82281,23.35,8.345,23.256,4.0636,5.2151,-3.6192,24.44,10.723,-8.3175,27.526,29.31
-48.051,37.55,-14.016,18.657,0.82281,23.35,8.345,23.256,4.0636,5.2151,-3.6192,24.44,10.723,-8.3175,27.526,29.31
-47.964,37.381,-14.006,18.597,0.93631,23.226,8.4043,23.177,4.1397,5.0713,-3.6077,24.297,10.791,-8.4568,27.485,29.221
-47.964,37.381,-14.006,18.597,0.93631,23.226,8.4043,23.177,4.1397,5.0713,-3.6077,24.297,10.791,-8.4568,27.485,29.221
-47.877,37.21,-13.995,18.536,1.0501,23.101,8.4638,23.096,4.2161,4.9272,-3.5959,24.154,10.859,-8.5962,27.443,29.131
-47.788,37.038,-13.984,18.473,1.1642,22.974,8.5234,23.013,4.2929,4.783,-3.5836,24.009,10.928,-8.7357,27.402,29.039
-47.788,37.038,-13.984,18.473,1.1642,22.974,8.5234,23.013,4.2929,4.783,-3.5836,24.009,10.928,-8.7357,27.402,29.039
-47.697,36.864,-13.973,18.41,1.2786,22.846,8.5833,22.929,4.3702,4.6385,-3.5709,23.863,10.997,-8.8753,27.36,28.945
-47.697,36.864,-13.973,18.41,1.2786,22.846,8.5833,22.929,4.3702,4.6385,-3.5709,23.863,10.997,-8.8753,27.36,28.945
-47.697,36.864,-13.973,18.41,1.2786,22.846,8.5833,22.929,4.3702,4.6385,-3.5709,23.863,10.997,-8.8753,27.36,28.945
-47.606,36.688,-13.961,18.345,1.3933,22.716,8.6432,22.843,4.4478,4.4937,-3.5577,23.716,11.066,-9.0151,27.318,28.85
-47.606,36.688,-13.961,18.345,1.3933,22.716,8.6432,22.843,4.4478,4.4937,-3.5577,23.716,11.066,-9.0151,27.318,28.85
-47.513,36.511,-13.949,18.279,1.5083,22.585,8.7034,22.756,4.5258,4.3488,-3.5441,23.568,11.135,-9.1549,27.275,28.753
-47.419,36.332,-13.936,18.212,1.6235,22.452,8.7637,22.666,4.6043,4.2037,-3.53,23.418,11.205,-9.2949,27.232,28.654
-47.324,36.151,-13.923,18.144,1.7391,22.318,8.8242,22.576,4.6831,4.0585,-3.5155,23.267,11.275,-9.4349,27.189,28.554
-47.324,36.151,-13.923,18.144,1.7391,22.318,8.8242,22.576,4.6831,4.0585,-3.5155,23.267,11.275,-9.4349,27.189,28.554
-47.324,36.151,-13.923,18.144,1.7391,22.318,8.8242,22.576,4.6831,4.0585,-3.5155,23.267,11.275,-9.4349,27.189,28.554
-47.228,35.969,-13.91,18.075,1.855,22.182,8.8849,22.483,4.7623,3.913,-3.5006,23.115,11.345,-9.575,27.146,28.452
-47.228,35.969,-13.91,18.075,1.855,22.182,8.8849,22.483,4.7623,3.913,-3.5006,23.115,11.345,-9.575,27.146,28.452
-47.228,35.969,-13.91,18.075,1.855,22.182,8.8849,22.483,4.7623,3.913,-3.5006,23.115,11.345,-9.575,27.146,28.452
-47.13,35.785,-13.896,18.004,1.9711,22.044,8.9457,22.389,4.8419,3.7674,-3.4851,22.962,11.415,-9.7152,27.102,28.349
-47.13,35.785,-13.896,18.004,1.9711,22.044,8.9457,22.389,4.8419,3.7674,-3.4851,22.962,11.415,-9.7152,27.102,28.349
-47.031,35.599,-13.881,17.933,2.0875,21.905,9.0068,22.293,4.9218,3.6216,-3.4692,22.808,11.486,-9.8555,27.058,28.244
-46.931,35.412,-13.866,17.86,2.2042,21.765,9.068,22.196,5.0021,3.4757,-3.4529,22.652,11.557,-9.9957,27.014,28.137
-46.931,35.412,-13.866,17.86,2.2042,21.765,9.068,22.196,5.0021,3.4757,-3.4529,22.652,11.557,-9.9957,27.014,28.137
-46.829,35.224,-13.851,17.786,2.3211,21.623,9.1294,22.097,5.0828,3.3296,-3.436,22.496,11.628,-10.136,26.969,28.029
-46.829,35.224,-13.851,17.786,2.3211,21.623,9.1294,22.097,5.0828,3.3296,-3.436,22.496,11.628,-10.136,26.969,28.029
-46.727,35.034,-13.835,17.711,2.4384,21.479,9.1909,21.996,5.1639,3.1835,-3.4187,22.338,11.699,-10.276,26.924,27.919
-46.727,35.034,-13.835,17.711,2.4384,21.479,9.1909,21.996,5.1639,3.1835,-3.4187,22.338,11.699,-10.276,26.924,27.919
-46.623,34.842,-13.819,17.635,2.5559,21.334,9.2527,21.894,5.2453,3.0372,-3.4009,22.179,11.771,-10.417,26.879,27.808
-46.623,34.842,-13.819,17.635,2.5559,21.334,9.2527,21.894,5.2453,3.0372,-3.4009,22.179,11.771,-10.417,26.879,27.808
-46.518,34.649,-13.802,17.557,2.6736,21.188,9.3146,21.79,5.3271,2.8908,-3.3826,22.019,11.842,-10.557,26.834,27.695
-46.518,34.649,-13.802,17.557,2.6736,21.188,9.3146,21.79,5.3271,2.8908,-3.3826,22.019,11.842,-10.557,26.834,27.695
-46.411,34.454,-13.785,17.478,2.7917,21.04,9.3767,21.684,5.4092,2.7443,-3.3638,21.857,11.915,-10.697,26.788,27.58
-46.411,34.454,-13.785,17.478,2.7917,21.04,9.3767,21.684,5.4092,2.7443,-3.3638,21.857,11.915,-10.697,26.788,27.58
-46.303,34.257,-13.768,17.399,2.9099,20.89,9.4391,21.577,5.4917,2.5977,-3.3445,21.695,11.987,-10.838,26.743,27.464
-46.303,34.257,-13.768,17.399,2.9099,20.89,9.4391,21.577,5.4917,2.5977,-3.3445,21.695,11.987,-10.838,26.743,27.464
-46.194,34.059,-13.75,17.318,3.0285,20.739,9.5015,21.468,5.5745,2.451,-3.3247,21.532,12.059,-10.978,26.696,27.347
-46.194,34.059,-13.75,17.318,3.0285,20.739,9.5015,21.468,5.5745,2.451,-3.3247,21.532,12.059,-10.978,26.696,27.347
-46.084,33.86,-13.731,17.236,3.1473,20.587,9.5642,21.358,5.6576,2.3043,-3.3044,21.367,12.132,-11.118,26.65,27.227
-46.084,33.86,-13.731,17.236,3.1473,20.587,9.5642,21.358,5.6576,2.3043,-3.3044,21.367,12.132,-11.118,26.65,27.227
-45.973,33.659,-13.712,17.153,3.2663,20.433,9.6271,21.246,5.7411,2.1575,-3.2836,21.201,12.205,-11.259,26.603,27.107
-45.973,33.659,-13.712,17.153,3.2663,20.433,9.6271,21.246,5.7411,2.1575,-3.2836,21.201,12.205,-11.259,26.603,27.107
-45.86,33.456,-13.693,17.068,3.3856,20.278,9.6901,21.132,5.8249,2.0107,-3.2623,21.034,12.278,-11.399,26.557,26.984
-45.86,33.456,-13.693,17.068,3.3856,20.278,9.6901,21.132,5.8249,2.0107,-3.2623,21.034,12.278,-11.399,26.557,26.984
-45.746,33.252,-13.673,16.983,3.5052,20.121,9.7533,21.017,5.9091,1.8638,-3.2405,20.866,12.352,-11.539,26.509,26.86
-45.631,33.047,-13.652,16.896,3.6249,19.963,9.8167,20.901,5.9935,1.7169,-3.2182,20.697,12.426,-11.679,26.462,26.735
-45.631,33.047,-13.652,16.896,3.6249,19.963,9.8167,20.901,5.9935,1.7169,-3.2182,20.697,12.426,-11.679,26.462,26.735
-45.631,33.047,-13.652,16.896,3.6249,19.963,9.8167,20.901,5.9935,1.7169,-3.2182,20.697,12.426,-11.679,26.462,26.735
-45.514,32.84,-13.631,16.808,3.745,19.803,9.8803,20.782,6.0783,1.57,-3.1953,20.527,12.499,-11.819,26.415,26.608
-45.514,32.84,-13.631,16.808,3.745,19.803,9.8803,20.782,6.0783,1.57,-3.1953,20.527,12.499,-11.819,26.415,26.608
-45.397,32.632,-13.61,16.719,3.8652,19.642,9.9441,20.662,6.1634,1.4231,-3.1719,20.356,12.573,-11.959,26.367,26.48
-45.397,32.632,-13.61,16.719,3.8652,19.642,9.9441,20.662,6.1634,1.4231,-3.1719,20.356,12.573,-11.959,26.367,26.48
-45.278,32.422,-13.588,16.629,3.9857,19.48,10.008,20.541,6.2488,1.2762,-3.148,20.184,12.648,-12.099,26.319,26.35
-45.278,32.422,-13.588,16.629,3.9857,19.48,10.008,20.541,6.2488,1.2762,-3.148,20.184,12.648,-12.099,26.319,26.35
-45.157,32.21,-13.565,16.538,4.1064,19.316,10.072,20.418,6.3345,1.1292,-3.1236,20.011,12.722,-12.238,26.27,26.218
-45.157,32.21,-13.565,16.538,4.1064,19.316,10.072,20.418,6.3345,1.1292,-3.1236,20.011,12.722,-12.238,26.27,26.218
-45.036,31.998,-13.542,16.445,4.2273,19.151,10.136,20.294,6.4205,0.98235,-3.0986,19.837,12.797,-12.378,26.222,26.085
