0.37032,-48.064,5.0807,-35.566,-7.0671,-41.663,1.2608,-46.88,-23.834,-12.786,-22.744,-12.433,-55.203,3.6881,-31.442,1.7428
0.54754,-48.185,5.2888,-35.696,-6.7986,-41.857,1.5793,-47.095,-23.85,-12.837,-22.775,-12.423,-55.281,3.6209,-31.406,1.7341
0.54754,-48.185,5.2888,-35.696,-6.7986,-41.857,1.5793,-47.095,-23.85,-12.837,-22.775,-12.423,-55.281,3.6209,-31.406,1.7341
0.72587,-48.307,5.4977,-35.827,-6.529,-42.052,1.8986,-47.312,-23.864,-12.887,-22.806,-12.414,-55.358,3.5533,-31.37,1.725
0.72587,-48.307,5.4977,-35.827,-6.529,-42.052,1.8986,-47.312,-23.864,-12.887,-22.806,-12.414,-55.358,3.5533,-31.37,1.725
0.72587,-48.307,5.4977,-35.827,-6.529,-42.052,1.8986,-47.312,-23.864,-12.887,-22.806,-12.414,-55.358,3.5533,-31.37,1.725
0.9053,-48.431,5.7073,-35.96,-6.2582,-42.249,2.2187,-47.529,-23.878,-12.938,-22.837,-12.404,-55.434,3.4854,-31.334,1.7157
0.9053,-48.431,5.7073,-35.96,-6.2582,-42.249,2.2187,-47.529,-23.878,-12.938,-22.837,-12.404,-55.434,3.4854,-31.334,1.7157
0.9053,-48.431,5.7073,-35.96,-6.2582,-42.249,2.2187,-47.529,-23.878,-12.938,-22.837,-12.404,-55.434,3.4854,-31.334,1.7157
1.2675,-48.681,6.1288,-36.227,-5.7134,-42.648,2.8612,-47.969,-23.905,-13.041,-22.895,-12.387,-55.585,3.3487,-31.259,1.6959
1.2675,-48.681,6.1288,-36.227,-5.7134,-42.648,2.8612,-47.969,-23.905,-13.041,-22.895,-12.387,-55.585,3.3487,-31.259,1.6959
1.4503,-48.809,6.3406,-36.362,-5.4394,-42.849,3.1835,-48.191,-23.918,-13.093,-22.923,-12.379,-55.659,3.2798,-31.222,1.6855
1.4503,-48.809,6.3406,-36.362,-5.4394,-42.849,3.1835,-48.191,-23.918,-13.093,-22.923,-12.379,-55.659,3.2798,-31.222,1.6855
1.6341,-48.937,6.5532,-36.498,-5.1642,-43.053,3.5066,-48.414,-23.93,-13.145,-22.951,-12.372,-55.732,3.2106,-31.184,1.6748
1.6341,-48.937,6.5532,-36.498,-5.1642,-43.053,3.5066,-48.414,-23.93,-13.145,-22.951,-12.372,-55.732,3.2106,-31.184,1.6748
1.8191,-49.067,6.7665,-36.635,-4.888,-43.257,3.8304,-48.639,-23.941,-13.197,-22.978,-12.365,-55.805,3.141,-31.145,1.6637
2.0051,-49.197,6.9805,-36.773,-4.6108,-43.464,4.1549,-48.865,-23.952,-13.25,-23.004,-12.358,-55.877,3.0711,-31.107,1.6523
2.0051,-49.197,6.9805,-36.773,-4.6108,-43.464,4.1549,-48.865,-23.952,-13.25,-23.004,-12.358,-55.877,3.0711,-31.107,1.6523
2.0051,-49.197,6.9805,-36.773,-4.6108,-43.464,4.1549,-48.865,-23.952,-13.25,-23.004,-12.358,-55.877,3.0711,-31.107,1.6523
2.1923,-49.33,7.1952,-36.912,-4.3324,-43.672,4.4801,-49.093,-23.962,-13.303,-23.029,-12.352,-55.949,3.0008,-31.068,1.6406
2.1923,-49.33,7.1952,-36.912,-4.3324,-43.672,4.4801,-49.093,-23.962,-13.303,-23.029,-12.352,-55.949,3.0008,-31.068,1.6406
2.1923,-49.33,7.1952,-36.912,-4.3324,-43.672,4.4801,-49.093,-23.962,-13.303,-23.029,-12.352,-55.949,3.0008,-31.068,1.6406
2.3806,-49.463,7.4107,-37.052,-4.0531,-43.881,4.806,-49.322,-23.972,-13.356,-23.054,-12.346,-56.019,2.9302,-31.029,1.6285
2.3806,-49.463,7.4107,-37.052,-4.0531,-43.881,4.806,-49.322,-23.972,-13.356,-23.054,-12.346,-56.019,2.9302,-31.029,1.6285
2.5699,-49.598,7.6268,-37.193,-3.7727,-44.092,5.1326,-49.553,-23.981,-13.409,-23.078,-12.341,-56.089,2.8593,-30.989,1.616
2.7604,-49.734,7.8437,-37.335,-3.4912,-44.305,5.4599,-49.785,-23.99,-13.463,-23.101,-12.336,-56.159,2.788,-30.949,1.6032
2.952,-49.871,8.0612,-37.477,-3.2087,-44.519,5.7879,-50.018,-23.998,-13.517,-23.124,-12.332,-56.227,2.7164,-30.909,1.59
2.952,-49.871,8.0612,-37.477,-3.2087,-44.519,5.7879,-50.018,-23.998,-13.517,-23.124,-12.332,-56.227,2.7164,-30.909,1.59
2.952,-49.871,8.0612,-37.477,-3.2087,-44.519,5.7879,-50.018,-23.998,-13.517,-23.124,-12.332,-56.227,2.7164,-30.909,1.59
3.1446,-50.01,8.2794,-37.621,-2.9252,-44.734,6.1165,-50.253,-24.005,-13.572,-23.146,-12.328,-56.295,2.6445,-30.868,1.5765
3.1446,-50.01,8.2794,-37.621,-2.9252,-44.734,6.1165,-50.253,-24.005,-13.572,-23.146,-12.328,-56.295,2.6445,-30.868,1.5765
3.1446,-50.01,8.2794,-37.621,-2.9252,-44.734,6.1165,-50.253,-24.005,-13.572,-23.146,-12.328,-56.295,2.6445,-30.868,1.5765
3.3383,-50.149,8.4983,-37.766,-2.6408,-44.952,6.4458,-50.489,-24.012,-13.627,-23.167,-12.325,-56.363,2.5722,-30.828,1.5626
3.5332,-50.291,8.7178,-37.911,-2.3553,-45.171,6.7758,-50.726,-24.019,-13.682,-23.187,-12.322,-56.429,2.4995,-30.786,1.5484
3.7291,-50.433,8.938,-38.058,-2.0688,-45.391,7.1064,-50.965,-24.025,-13.737,-23.207,-12.32,-56.495,2.4265,-30.745,1.5338
3.7291,-50.433,8.938,-38.058,-2.0688,-45.391,7.1064,-50.965,-24.025,-13.737,-23.207,-12.32,-56.495,2.4265,-30.745,1.5338
3.7291,-50.433,8.938,-38.058,-2.0688,-45.391,7.1064,-50.965,-24.025,-13.737,-23.207,-12.32,-56.495,2.4265,-30.745,1.5338
3.7291,-50.433,8.938,-38.058,-2.0688,-45.391,7.1064,-50.965,-24.025,-13.737,-23.207,-12.32,-56.495,2.4265,-30.745,1.5338
3.9261,-50.577,9.1589,-38.205,-1.7813,-45.613,7.4376,-51.205,-24.03,-13.793,-23.226,-12.318,-56.561,2.3532,-30.703,1.5189
3.9261,-50.577,9.1589,-38.205,-1.7813,-45.613,7.4376,-51.205,-24.03,-13.793,-23.226,-12.318,-56.561,2.3532,-30.703,1.5189
4.3233,-50.869,9.6026,-38.503,-1.2035,-46.062,8.102,-51.69,-24.039,-13.905,-23.262,-12.315,-56.689,2.2054,-30.619,1.4879
4.3233,-50.869,9.6026,-38.503,-1.2035,-46.062,8.102,-51.69,-24.039,-13.905,-23.262,-12.315,-56.689,2.2054,-30.619,1.4879
4.3233,-50.869,9.6026,-38.503,-1.2035,-46.062,8.102,-51.69,-24.039,-13.905,-23.262,-12.315,-56.689,2.2054,-30.619,1.4879
4.5236,-51.017,9.8254,-38.653,-0.91317,-46.288,8.4351,-51.935,-24.042,-13.962,-23.279,-12.315,-56.753,2.1311,-30.576,1.4719
4.5236,-51.017,9.8254,-38.653,-0.91317,-46.288,8.4351,-51.935,-24.042,-13.962,-23.279,-12.315,-56.753,2.1311,-30.576,1.4719
4.5236,-51.017,9.8254,-38.653,-0.91317,-46.288,8.4351,-51.935,-24.042,-13.962,-23.279,-12.315,-56.753,2.1311,-30.576,1.4719
4.7249,-51.166,10.049,-38.804,-0.62188,-46.517,8.7688,-52.18,-24.045,-14.019,-23.295,-12.315,-56.815,2.0563,-30.533,1.4555
4.7249,-51.166,10.049,-38.804,-0.62188,-46.517,8.7688,-52.18,-24.045,-14.019,-23.295,-12.315,-56.815,2.0563,-30.533,1.4555
4.7249,-51.166,10.049,-38.804,-0.62188,-46.517,8.7688,-52.18,-24.045,-14.019,-23.295,-12.315,-56.815,2.0563,-30.533,1.4555
5.1307,-51.468,10.498,-39.108,-0.036536,-46.978,9.4379,-52.676,-24.05,-14.134,-23.325,-12.317,-56.939,1.9058,-30.446,1.4216
5.1307,-51.468,10.498,-39.108,-0.036536,-46.978,9.4379,-52.676,-24.05,-14.134,-23.325,-12.317,-56.939,1.9058,-30.446,1.4216
5.1307,-51.468,10.498,-39.108,-0.036536,-46.978,9.4379,-52.676,-24.05,-14.134,-23.325,-12.317,-56.939,1.9058,-30.446,1.4216
5.3352,-51.622,10.723,-39.262,0.25751,-47.211,9.7734,-52.926,-24.051,-14.192,-23.339,-12.319,-57,1.83,-30.402,1.4041
5.5408,-51.776,10.949,-39.417,0.55246,-47.445,10.109,-53.177,-24.052,-14.251,-23.353,-12.321,-57.06,1.7538,-30.358,1.3862
5.7475,-51.932,11.175,-39.572,0.8483,-47.681,10.446,-53.43,-24.052,-14.309,-23.365,-12.324,-57.119,1.6773,-30.314,1.3679
5.7475,-51.932,11.175,-39.572,0.8483,-47.681,10.446,-53.43,-24.052,-14.309,-23.365,-12.324,-57.119,1.6773,-30.314,1.3679
5.7475,-51.932,11.175,-39.572,0.8483,-47.681,10.446,-53.43,-24.052,-14.309,-23.365,-12.324,-57.119,1.6773,-30.314,1.3679
5.9552,-52.09,11.402,-39.729,1.145,-47.919,10.783,-53.684,-24.052,-14.369,-23.377,-12.327,-57.178,1.6005,-30.269,1.3493
5.9552,-52.09,11.402,-39.729,1.145,-47.919,10.783,-53.684,-24.052,-14.369,-23.377,-12.327,-57.178,1.6005,-30.269,1.3493
6.1639,-52.248,11.63,-39.886,1.4426,-48.158,11.121,-53.94,-24.051,-14.428,-23.389,-12.331,-57.236,1.5233,-30.224,1.3304
6.1639,-52.248,11.63,-39.886,1.4426,-48.158,11.121,-53.94,-24.051,-14.428,-23.389,-12.331,-57.236,1.5233,-30.224,1.3304
6.3737,-52.408,11.858,-40.044,1.7411,-48.399,11.459,-54.196,-24.049,-14.488,-23.399,-12.335,-57.294,1.4457,-30.179,1.311
6.3737,-52.408,11.858,-40.044,1.7411,-48.399,11.459,-54.196,-24.049,-14.488,-23.399,-12.335,-57.294,1.4457,-30.179,1.311
6.5846,-52.57,12.087,-40.203,2.0404,-48.641,11.798,-54.454,-24.047,-14.548,-23.409,-12.34,-57.351,1.3678,-30.133,1.2913
6.5846,-52.57,12.087,-40.203,2.0404,-48.641,11.798,-54.454,-24.047,-14.548,-23.409,-12.34,-57.351,1.3678,-30.133,1.2913
6.7965,-52.733,12.316,-40.363,2.3405,-48.885,12.137,-54.714,-24.045,-14.609,-23.418,-12.346,-57.408,1.2895,-30.087,1.2712
6.7965,-52.733,12.316,-40.363,2.3405,-48.885,12.137,-54.714,-24.045,-14.609,-23.418,-12.346,-57.408,1.2895,-30.087,1.2712
7.0094,-52.897,12.546,-40.524,2.6415,-49.13,12.476,-54.975,-24.041,-14.67,-23.426,-12.352,-57.464,1.2109,-30.041,1.2507
7.0094,-52.897,12.546,-40.524,2.6415,-49.13,12.476,-54.975,-24.041,-14.67,-23.426,-12.352,-57.464,1.2109,-30.041,1.2507
7.2234,-53.063,12.776,-40.685,2.9433,-49.377,12.817,-55.237,-24.038,-14.731,-23.434,-12.358,-57.519,1.1319,-29.995,1.2298
7.2234,-53.063,12.776,-40.685,2.9433,-49.377,12.817,-55.237,-24.038,-14.731,-23.434,-12.358,-57.519,1.1319,-29.995,1.2298
7.4384,-53.23,13.007,-40.848,3.2459,-49.626,13.157,-55.5,-24.033,-14.793,-23.441,-12.365,-57.574,1.0525,-29.948,1.2086
7.4384,-53.23,13.007,-40.848,3.2459,-49.626,13.157,-55.5,-24.033,-14.793,-23.441,-12.365,-57.574,1.0525,-29.948,1.2086
7.6545,-53.399,13.239,-41.011,3.5493,-49.876,13.498,-55.765,-24.029,-14.855,-23.447,-12.373,-57.628,0.97277,-29.901,1.187
7.8715,-53.568,13.471,-41.175,3.8535,-50.127,13.84,-56.031,-24.023,-14.917,-23.452,-12.382,-57.681,0.89269,-29.854,1.165
7.8715,-53.568,13.471,-41.175,3.8535,-50.127,13.84,-56.031,-24.023,-14.917,-23.452,-12.382,-57.681,0.89269,-29.854,1.165
7.8715,-53.568,13.471,-41.175,3.8535,-50.127,13.84,-56.031,-24.023,-14.917,-23.452,-12.382,-57.681,0.89269,-29.854,1.165
7.8715,-53.568,13.471,-41.175,3.8535,-50.127,13.84,-56.031,-24.023,-14.917,-23.452,-12.382,-57.681,0.89269,-29.854,1.165
8.0896,-53.74,13.703,-41.34,4.1584,-50.38,14.182,-56.298,-24.017,-14.98,-23.457,-12.39,-57.734,0.81225,-29.807,1.1426
8.0896,-53.74,13.703,-41.34,4.1584,-50.38,14.182,-56.298,-24.017,-14.98,-23.457,-12.39,-57.734,0.81225,-29.807,1.1426
8.3087,-53.912,13.936,-41.505,4.4641,-50.635,14.525,-56.567,-24.011,-15.043,-23.461,-12.4,-57.786,0.73145,-29.759,1.1199
8.5288,-54.086,14.169,-41.672,4.7706,-50.891,14.867,-56.836,-24.004,-15.106,-23.464,-12.41,-57.838,0.65028,-29.711,1.0968
8.7499,-54.262,14.403,-41.839,5.0778,-51.148,15.211,-57.107,-23.996,-15.17,-23.467,-12.421,-57.889,0.56875,-29.663,1.0733
8.7499,-54.262,14.403,-41.839,5.0778,-51.148,15.211,-57.107,-23.996,-15.17,-23.467,-12.421,-57.889,0.56875,-29.663,1.0733
8.9721,-54.439,14.638,-42.007,5.3858,-51.407,15.555,-57.38,-23.988,-15.235,-23.469,-12.432,-57.94,0.48685,-29.614,1.0494
8.9721,-54.439,14.638,-42.007,5.3858,-51.407,15.555,-57.38,-23.988,-15.235,-23.469,-12.432,-57.94,0.48685,-29.614,1.0494
9.1952,-54.617,14.873,-42.176,5.6944,-51.668,15.899,-57.653,-23.979,-15.299,-23.47,-12.444,-57.99,0.40459,-29.565,1.0251
9.1952,-54.617,14.873,-42.176,5.6944,-51.668,15.899,-57.653,-23.979,-15.299,-23.47,-12.444,-57.99,0.40459,-29.565,1.0251
9.1952,-54.617,14.873,-42.176,5.6944,-51.668,15.899,-57.653,-23.979,-15.299,-23.47,-12.444,-57.99,0.40459,-29.565,1.0251
9.4193,-54.797,15.108,-42.346,6.0038,-51.93,16.243,-57.928,-23.97,-15.364,-23.471,-12.456,-58.04,0.32197,-29.517,1.0005
9.4193,-54.797,15.108,-42.346,6.0038,-51.93,16.243,-57.928,-23.97,-15.364,-23.471,-12.456,-58.04,0.32197,-29.517,1.0005
9.4193,-54.797,15.108,-42.346,6.0038,-51.93,16.243,-57.928,-23.97,-15.364,-23.471,-12.456,-58.04,0.32197,-29.517,1.0005
9.6444,-54.978,15.344,-42.516,6.3138,-52.193,16.588,-58.204,-23.96,-15.43,-23.47,-12.469,-58.089,0.23898,-29.467,0.97544
9.6444,-54.978,15.344,-42.516,6.3138,-52.193,16.588,-58.204,-23.96,-15.43,-23.47,-12.469,-58.089,0.23898,-29.467,0.97544
9.8705,-55.16,15.58,-42.688,6.6245,-52.458,16.933,-58.482,-23.95,-15.496,-23.469,-12.483,-58.137,0.15562,-29.418,0.95003
10.098,-55.344,15.816,-42.86,6.9359,-52.725,17.279,-58.76,-23.939,-15.562,-23.468,-12.497,-58.185,0.071903,-29.368,0.92423
10.326,-55.53,16.053,-43.032,7.248,-52.993,17.625,-59.04,-23.927,-15.629,-23.465,-12.512,-58.232,-0.012186,-29.318,0.89805
10.326,-55.53,16.053,-43.032,7.248,-52.993,17.625,-59.04,-23.927,-15.629,-23.465,-12.512,-58.232,-0.012186,-29.318,0.89805
10.326,-55.53,16.053,-43.032,7.248,-52.993,17.625,-59.04,-23.927,-15.629,-23.465,-12.512,-58.232,-0.012186,-29.318,0.89805
10.555,-55.716,16.291,-43.206,7.5607,-53.262,17.971,-59.321,-23.915,-15.696,-23.462,-12.527,-58.279,-0.096642,-29.268,0.87149
10.555,-55.716,16.291,-43.206,7.5607,-53.262,17.971,-59.321,-23.915,-15.696,-23.462,-12.527,-58.279,-0.096642,-29.268,0.87149
10.785,-55.904,16.529,-43.38,7.874,-53.533,18.318,-59.603,-23.903,-15.763,-23.458,-12.544,-58.326,-0.18147,-29.218,0.84455
10.785,-55.904,16.529,-43.38,7.874,-53.533,18.318,-59.603,-23.903,-15.763,-23.458,-12.544,-58.326,-0.18147,-29.218,0.84455
11.016,-56.094,16.767,-43.555,8.1879,-53.805,18.665,-59.886,-23.89,-15.831,-23.454,-12.56,-58.371,-0.26666,-29.167,0.81723
11.016,-56.094,16.767,-43.555,8.1879,-53.805,18.665,-59.886,-23.89,-15.831,-23.454,-12.56,-58.371,-0.26666,-29.167,0.81723
11.247,-56.285,17.005,-43.731,8.5025,-54.079,19.012,-60.17,-23.876,-15.899,-23.448,-12.578,-58.417,-0.35222,-29.116,0.78952
11.247,-56.285,17.005,-43.731,8.5025,-54.079,19.012,-60.17,-23.876,-15.899,-23.448,-12.578,-58.417,-0.35222,-29.116,0.78952
11.48,-56.477,17.244,-43.907,8.8176,-54.354,19.359,-60.456,-23.862,-15.968,-23.442,-12.596,-58.461,-0.43814,-29.065,0.76142
11.48,-56.477,17.244,-43.907,8.8176,-54.354,19.359,-60.456,-23.862,-15.968,-23.442,-12.596,-58.461,-0.43814,-29.065,0.76142
11.714,-56.67,17.484,-44.084,9.1334,-54.63,19.707,-60.742,-23.847,-16.037,-23.436,-12.614,-58.506,-0.52444,-29.014,0.73295
11.714,-56.67,17.484,-44.084,9.1334,-54.63,19.707,-60.742,-23.847,-16.037,-23.436,-12.614,-58.506,-0.52444,-29.014,0.73295
11.714,-56.67,17.484,-44.084,9.1334,-54.63,19.707,-60.742,-23.847,-16.037,-23.436,-12.614,-58.506,-0.52444,-29.014,0.73295
11.949,-56.865,17.723,-44.262,9.4496,-54.908,20.055,-61.03,-23.832,-16.107,-23.428,-12.633,-58.549,-0.61111,-28.962,0.70409
11.949,-56.865,17.723,-44.262,9.4496,-54.908,20.055,-61.03,-23.832,-16.107,-23.428,-12.633,-58.549,-0.61111,-28.962,0.70409
11.949,-56.865,17.723,-44.262,9.4496,-54.908,20.055,-61.03,-23.832,-16.107,-23.428,-12.633,-58.549,-0.61111,-28.962,0.70409
12.421,-57.259,18.204,-44.619,10.084,-55.468,20.752,-61.609,-23.8,-16.247,-23.411,-12.674,-58.635,-0.78555,-28.858,0.64522
12.421,-57.259,18.204,-44.619,10.084,-55.468,20.752,-61.609,-23.8,-16.247,-23.411,-12.674,-58.635,-0.78555,-28.858,0.64522
12.658,-57.459,18.444,-44.799,10.402,-55.75,21.1,-61.9,-23.783,-16.317,-23.402,-12.695,-58.677,-0.87332,-28.806,0.61522
12.658,-57.459,18.444,-44.799,10.402,-55.75,21.1,-61.9,-23.783,-16.317,-23.402,-12.695,-58.677,-0.87332,-28.806,0.61522
12.897,-57.659,18.685,-44.98,10.72,-56.033,21.449,-62.192,-23.766,-16.389,-23.392,-12.717,-58.719,-0.96146,-28.754,0.58482
12.897,-57.659,18.685,-44.98,10.72,-56.033,21.449,-62.192,-23.766,-16.389,-23.392,-12.717,-58.719,-0.96146,-28.754,0.58482
13.136,-57.861,18.926,-45.161,11.039,-56.317,21.799,-62.485,-23.748,-16.46,-23.381,-12.739,-58.761,-1.05,-28.701,0.55405
13.136,-57.861,18.926,-45.161,11.039,-56.317,21.799,-62.485,-23.748,-16.46,-23.381,-12.739,-58.761,-1.05,-28.701,0.55405
13.376,-58.064,19.168,-45.342,11.358,-56.603,22.148,-62.78,-23.729,-16.532,-23.369,-12.763,-58.801,-1.1389,-28.648,0.5229
13.376,-58.064,19.168,-45.342,11.358,-56.603,22.148,-62.78,-23.729,-16.532,-23.369,-12.763,-58.801,-1.1389,-28.648,0.5229
13.617,-58.268,19.41,-45.525,11.678,-56.89,22.497,-63.075,-23.71,-16.604,-23.357,-12.786,-58.842,-1.2281,-28.595,0.49136
13.859,-58.474,19.652,-45.707,11.999,-57.179,22.847,-63.371,-23.691,-16.677,-23.344,-12.811,-58.881,-1.3177,-28.542,0.45944
13.859,-58.474,19.652,-45.707,11.999,-57.179,22.847,-63.371,-23.691,-16.677,-23.344,-12.811,-58.881,-1.3177,-28.542,0.45944
14.102,-58.681,19.894,-45.891,12.319,-57.469,23.197,-63.668,-23.671,-16.75,-23.33,-12.836,-58.921,-1.4077,-28.488,0.42714
14.102,-58.681,19.894,-45.891,12.319,-57.469,23.197,-63.668,-23.671,-16.75,-23.33,-12.836,-58.921,-1.4077,-28.488,0.42714
14.102,-58.681,19.894,-45.891,12.319,-57.469,23.197,-63.668,-23.671,-16.75,-23.33,-12.836,-58.921,-1.4077,-28.488,0.42714
14.346,-58.89,20.136,-46.075,12.641,-57.76,23.547,-63.966,-23.65,-16.824,-23.316,-12.862,-58.96,-1.4981,-28.435,0.39446
14.346,-58.89,20.136,-46.075,12.641,-57.76,23.547,-63.966,-23.65,-16.824,-23.316,-12.862,-58.96,-1.4981,-28.435,0.39446
14.346,-58.89,20.136,-46.075,12.641,-57.76,23.547,-63.966,-23.65,-16.824,-23.316,-12.862,-58.96,-1.4981,-28.435,0.39446
14.59,-59.099,20.379,-46.26,12.962,-58.052,23.897,-64.266,-23.629,-16.898,-23.3,-12.888,-58.998,-1.5888,-28.381,0.3614
14.836,-59.311,20.622,-46.445,13.284,-58.346,24.247,-64.566,-23.608,-16.972,-23.285,-12.915,-59.036,-1.6799,-28.327,0.32796
15.082,-59.523,20.865,-46.631,13.607,-58.64,24.597,-64.867,-23.586,-17.047,-23.268,-12.943,-59.074,-1.7714,-28.273,0.29413
15.082,-59.523,20.865,-46.631,13.607,-58.64,24.597,-64.867,-23.586,-17.047,-23.268,-12.943,-59.074,-1.7714,-28.273,0.29413
15.329,-59.737,21.109,-46.817,13.93,-58.936,24.948,-65.169,-23.563,-17.122,-23.251,-12.971,-59.111,-1.8632,-28.218,0.25993
15.329,-59.737,21.109,-46.817,13.93,-58.936,24.948,-65.169,-23.563,-17.122,-23.251,-12.971,-59.111,-1.8632,-28.218,0.25993
15.329,-59.737,21.109,-46.817,13.93,-58.936,24.948,-65.169,-23.563,-17.122,-23.251,-12.971,-59.111,-1.8632,-28.218,0.25993
15.577,-59.951,21.352,-47.004,14.253,-59.234,25.298,-65.472,-23.54,-17.198,-23.233,-13,-59.148,-1.9554,-28.164,0.22536
15.577,-59.951,21.352,-47.004,14.253,-59.234,25.298,-65.472,-23.54,-17.198,-23.233,-13,-59.148,-1.9554,-28.164,0.22536
15.577,-59.951,21.352,-47.004,14.253,-59.234,25.298,-65.472,-23.54,-17.198,-23.233,-13,-59.148,-1.9554,-28.164,0.22536
15.826,-60.168,21.596,-47.191,14.576,-59.532,25.649,-65.775,-23.517,-17.274,-23.214,-13.03,-59.184,-2.048,-28.109,0.1904
15.826,-60.168,21.596,-47.191,14.576,-59.532,25.649,-65.775,-23.517,-17.274,-23.214,-13.03,-59.184,-2.048,-28.109,0.1904
15.826,-60.168,21.596,-47.191,14.576,-59.532,25.649,-65.775,-23.517,-17.274,-23.214,-13.03,-59.184,-2.048,-28.109,0.1904
15.826,-60.168,21.596,-47.191,14.576,-59.532,25.649,-65.775,-23.517,-17.274,-23.214,-13.03,-59.184,-2.048,-28.109,0.1904
16.326,-60.604,22.084,-47.567,15.224,-60.132,26.35,-66.385,-23.468,-17.428,-23.175,-13.092,-59.255,-2.2343,-27.999,0.11935
16.326,-60.604,22.084,-47.567,15.224,-60.132,26.35,-66.385,-23.468,-17.428,-23.175,-13.092,-59.255,-2.2343,-27.999,0.11935
16.326,-60.604,22.084,-47.567,15.224,-60.132,26.35,-66.385,-23.468,-17.428,-23.175,-13.092,-59.255,-2.2343,-27.999,0.11935
16.829,-61.045,22.573,-47.945,15.873,-60.737,27.051,-66.999,-23.418,-17.583,-23.133,-13.156,-59.325,-2.422,-27.888,0.046807
16.829,-61.045,22.573,-47.945,15.873,-60.737,27.051,-66.999,-23.418,-17.583,-23.133,-13.156,-59.325,-2.422,-27.888,0.046807
17.082,-61.267,22.817,-48.135,16.198,-61.041,27.401,-67.306,-23.392,-17.661,-23.111,-13.189,-59.359,-2.5164,-27.833,0.0099709
17.082,-61.267,22.817,-48.135,16.198,-61.041,27.401,-67.306,-23.392,-17.661,-23.111,-13.189,-59.359,-2.5164,-27.833,0.0099709
17.336,-61.491,23.062,-48.325,16.523,-61.346,27.752,-67.615,-23.365,-17.739,-23.088,-13.223,-59.392,-2.6112,-27.777,-0.027239
17.336,-61.491,23.062,-48.325,16.523,-61.346,27.752,-67.615,-23.365,-17.739,-23.088,-13.223,-59.392,-2.6112,-27.777,-0.027239
17.59,-61.716,23.306,-48.515,16.849,-61.652,28.102,-67.924,-23.338,-17.818,-23.064,-13.257,-59.426,-2.7063,-27.721,-0.064821
17.59,-61.716,23.306,-48.515,16.849,-61.652,28.102,-67.924,-23.338,-17.818,-23.064,-13.257,-59.426,-2.7063,-27.721,-0.064821
17.845,-61.942,23.551,-48.706,17.175,-61.959,28.453,-68.235,-23.311,-17.898,-23.04,-13.293,-59.459,-2.8018,-27.665,-0.10278
17.845,-61.942,23.551,-48.706,17.175,-61.959,28.453,-68.235,-23.311,-17.898,-23.04,-13.293,-59.459,-2.8018,-27.665,-0.10278
18.101,-62.169,23.796,-48.897,17.5,-62.267,28.803,-68.545,-23.283,-17.978,-23.015,-13.329,-59.491,-2.8977,-27.609,-0.1411
18.101,-62.169,23.796,-48.897,17.5,-62.267,28.803,-68.545,-23.283,-17.978,-23.015,-13.329,-59.491,-2.8977,-27.609,-0.1411
18.358,-62.397,24.041,-49.089,17.827,-62.577,29.154,-68.857,-23.255,-18.058,-22.99,-13.365,-59.523,-2.9939,-27.552,-0.1798
18.358,-62.397,24.041,-49.089,17.827,-62.577,29.154,-68.857,-23.255,-18.058,-22.99,-13.365,-59.523,-2.9939,-27.552,-0.1798
18.358,-62.397,24.041,-49.089,17.827,-62.577,29.154,-68.857,-23.255,-18.058,-22.99,-13.365,-59.523,-2.9939,-27.552,-0.1798
18.615,-62.627,24.286,-49.281,18.153,-62.887,29.504,-69.169,-23.226,-18.139,-22.964,-13.402,-59.555,-3.0905,-27.496,-0.21886
18.615,-62.627,24.286,-49.281,18.153,-62.887,29.504,-69.169,-23.226,-18.139,-22.964,-13.402,-59.555,-3.0905,-27.496,-0.21886
18.615,-62.627,24.286,-49.281,18.153,-62.887,29.504,-69.169,-23.226,-18.139,-22.964,-13.402,-59.555,-3.0905,-27.496,-0.21886
18.615,-62.627,24.286,-49.281,18.153,-62.887,29.504,-69.169,-23.226,-18.139,-22.964,-13.402,-59.555,-3.0905,-27.496,-0.21886
19.132,-63.089,24.776,-49.666,18.806,-63.51,30.204,-69.795,-23.167,-18.301,-22.909,-13.479,-59.617,-3.2847,-27.382,-0.29809
19.132,-63.089,24.776,-49.666,18.806,-63.51,30.204,-69.795,-23.167,-18.301,-22.909,-13.479,-59.617,-3.2847,-27.382,-0.29809
19.392,-63.322,25.021,-49.859,19.132,-63.823,30.554,-70.109,-23.137,-18.383,-22.881,-13.518,-59.648,-3.3824,-27.325,-0.33826
19.652,-63.555,25.266,-50.052,19.459,-64.137,30.903,-70.424,-23.106,-18.465,-22.852,-13.558,-59.678,-3.4804,-27.268,-0.37879
19.652,-63.555,25.266,-50.052,19.459,-64.137,30.903,-70.424,-23.106,-18.465,-22.852,-13.558,-59.678,-3.4804,-27.268,-0.37879
19.913,-63.79,25.511,-50.246,19.786,-64.452,31.253,-70.739,-23.075,-18.548,-22.823,-13.599,-59.708,-3.5788,-27.211,-0.41968
20.174,-64.026,25.756,-50.44,20.113,-64.767,31.602,-71.055,-23.043,-18.631,-22.793,-13.64,-59.738,-3.6775,-27.153,-0.46094
20.174,-64.026,25.756,-50.44,20.113,-64.767,31.602,-71.055,-23.043,-18.631,-22.793,-13.64,-59.738,-3.6775,-27.153,-0.46094
20.437,-64.263,26.001,-50.634,20.44,-65.084,31.951,-71.371,-23.011,-18.715,-22.762,-13.682,-59.767,-3.7766,-27.096,-0.50255
20.437,-64.263,26.001,-50.634,20.44,-65.084,31.951,-71.371,-23.011,-18.715,-22.762,-13.682,-59.767,-3.7766,-27.096,-0.50255
20.437,-64.263,26.001,-50.634,20.44,-65.084,31.951,-71.371,-23.011,-18.715,-22.762,-13.682,-59.767,-3.7766,-27.096,-0.50255
20.7,-64.501,26.246,-50.828,20.767,-65.401,32.3,-71.688,-22.979,-18.799,-22.73,-13.725,-59.796,-3.8761,-27.038,-0.54453
20.7,-64.501,26.246,-50.828,20.767,-65.401,32.3,-71.688,-22.979,-18.799,-22.73,-13.725,-59.796,-3.8761,-27.038,-0.54453
20.7,-64.501,26.246,-50.828,20.767,-65.401,32.3,-71.688,-22.979,-18.799,-22.73,-13.725,-59.796,-3.8761,-27.038,-0.54453
20.963,-64.741,26.49,-51.023,21.094,-65.719,32.649,-72.005,-22.946,-18.883,-22.698,-13.768,-59.824,-3.9759,-26.98,-0.58687
21.227,-64.981,26.735,-51.217,21.421,-66.038,32.997,-72.322,-22.913,-18.968,-22.665,-13.813,-59.852,-4.076,-26.922,-0.62956
21.492,-65.222,26.98,-51.412,21.748,-66.358,33.346,-72.641,-22.879,-19.053,-22.632,-13.857,-59.88,-4.1765,-26.864,-0.67261
21.492,-65.222,26.98,-51.412,21.748,-66.358,33.346,-72.641,-22.879,-19.053,-22.632,-13.857,-59.88,-4.1765,-26.864,-0.67261
21.758,-65.464,27.224,-51.607,22.075,-66.678,33.694,-72.959,-22.845,-19.138,-22.597,-13.903,-59.907,-4.2773,-26.806,-0.71602
21.758,-65.464,27.224,-51.607,22.075,-66.678,33.694,-72.959,-22.845,-19.138,-22.597,-13.903,-59.907,-4.2773,-26.806,-0.71602
21.758,-65.464,27.224,-51.607,22.075,-66.678,33.694,-72.959,-22.845,-19.138,-22.597,-13.903,-59.907,-4.2773,-26.806,-0.71602
22.024,-65.707,27.469,-51.802,22.402,-66.999,34.041,-73.278,-22.81,-19.224,-22.562,-13.949,-59.934,-4.3785,-26.748,-0.75977
22.024,-65.707,27.469,-51.802,22.402,-66.999,34.041,-73.278,-22.81,-19.224,-22.562,-13.949,-59.934,-4.3785,-26.748,-0.75977
22.291,-65.95,27.713,-51.998,22.729,-67.321,34.388,-73.597,-22.775,-19.311,-22.527,-13.996,-59.961,-4.4801,-26.689,-0.80389
22.291,-65.95,27.713,-51.998,22.729,-67.321,34.388,-73.597,-22.775,-19.311,-22.527,-13.996,-59.961,-4.4801,-26.689,-0.80389
22.291,-65.95,27.713,-51.998,22.729,-67.321,34.388,-73.597,-22.775,-19.311,-22.527,-13.996,-59.961,-4.4801,-26.689,-0.80389
22.558,-66.195,27.957,-52.193,23.056,-67.643,34.735,-73.916,-22.74,-19.397,-22.491,-14.043,-59.987,-4.5819,-26.631,-0.84835
22.558,-66.195,27.957,-52.193,23.056,-67.643,34.735,-73.916,-22.74,-19.397,-22.491,-14.043,-59.987,-4.5819,-26.631,-0.84835
22.558,-66.195,27.957,-52.193,23.056,-67.643,34.735,-73.916,-22.74,-19.397,-22.491,-14.043,-59.987,-4.5819,-26.631,-0.84835
23.094,-66.687,28.445,-52.584,23.709,-68.289,35.428,-74.556,-22.667,-19.572,-22.416,-14.141,-60.039,-4.7867,-26.514,-0.93831
23.094,-66.687,28.445,-52.584,23.709,-68.289,35.428,-74.556,-22.667,-19.572,-22.416,-14.141,-60.039,-4.7867,-26.514,-0.93831
23.363,-66.935,28.688,-52.779,24.036,-68.613,35.774,-74.876,-22.631,-19.66,-22.378,-14.19,-60.065,-4.8896,-26.455,-0.98382
23.363,-66.935,28.688,-52.779,24.036,-68.613,35.774,-74.876,-22.631,-19.66,-22.378,-14.19,-60.065,-4.8896,-26.455,-0.98382
23.363,-66.935,28.688,-52.779,24.036,-68.613,35.774,-74.876,-22.631,-19.66,-22.378,-14.19,-60.065,-4.8896,-26.455,-0.98382
23.633,-67.183,28.932,-52.975,24.362,-68.938,36.12,-75.197,-22.594,-19.748,-22.34,-14.241,-60.09,-4.9928,-26.396,-1.0297
23.903,-67.432,29.175,-53.171,24.688,-69.263,36.465,-75.518,-22.556,-19.837,-22.3,-14.291,-60.114,-5.0964,-26.337,-1.0759
23.903,-67.432,29.175,-53.171,24.688,-69.263,36.465,-75.518,-22.556,-19.837,-22.3,-14.291,-60.114,-5.0964,-26.337,-1.0759
24.173,-67.681,29.418,-53.366,25.014,-69.589,36.81,-75.838,-22.518,-19.926,-22.26,-14.343,-60.139,-5.2003,-26.278,-1.1224
24.173,-67.681,29.418,-53.366,25.014,-69.589,36.81,-75.838,-22.518,-19.926,-22.26,-14.343,-60.139,-5.2003,-26.278,-1.1224
24.444,-67.932,29.661,-53.562,25.34,-69.915,37.154,-76.159,-22.48,-20.015,-22.219,-14.395,-60.163,-5.3045,-26.218,-1.1693
24.716,-68.183,29.903,-53.757,25.666,-70.241,37.498,-76.48,-22.441,-20.105,-22.178,-14.448,-60.187,-5.409,-26.159,-1.2165
24.716,-68.183,29.903,-53.757,25.666,-70.241,37.498,-76.48,-22.441,-20.105,-22.178,-14.448,-60.187,-5.409,-26.159,-1.2165
24.716,-68.183,29.903,-53.757,25.666,-70.241,37.498,-76.48,-22.441,-20.105,-22.178,-14.448,-60.187,-5.409,-26.159,-1.2165
24.988,-68.435,30.145,-53.952,25.991,-70.568,37.841,-76.802,-22.402,-20.195,-22.136,-14.502,-60.21,-5.5139,-26.1,-1.264
24.988,-68.435,30.145,-53.952,25.991,-70.568,37.841,-76.802,-22.402,-20.195,-22.136,-14.502,-60.21,-5.5139,-26.1,-1.264
25.261,-68.687,30.387,-54.148,26.316,-70.896,38.184,-77.123,-22.363,-20.286,-22.093,-14.556,-60.234,-5.6191,-26.04,-1.3119
25.534,-68.941,30.629,-54.343,26.641,-71.223,38.526,-77.444,-22.323,-20.377,-22.05,-14.612,-60.257,-5.7246,-25.98,-1.3601
25.534,-68.941,30.629,-54.343,26.641,-71.223,38.526,-77.444,-22.323,-20.377,-22.05,-14.612,-60.257,-5.7246,-25.98,-1.3601
25.807,-69.195,30.87,-54.538,26.965,-71.551,38.868,-77.765,-22.283,-20.468,-22.006,-14.667,-60.279,-5.8305,-25.921,-1.4087
25.807,-69.195,30.87,-54.538,26.965,-71.551,38.868,-77.765,-22.283,-20.468,-22.006,-14.667,-60.279,-5.8305,-25.921,-1.4087
25.807,-69.195,30.87,-54.538,26.965,-71.551,38.868,-77.765,-22.283,-20.468,-22.006,-14.667,-60.279,-5.8305,-25.921,-1.4087
26.081,-69.449,31.111,-54.733,27.289,-71.879,39.209,-78.086,-22.243,-20.559,-21.962,-14.724,-60.302,-5.9366,-25.861,-1.4575
26.081,-69.449,31.111,-54.733,27.289,-71.879,39.209,-78.086,-22.243,-20.559,-21.962,-14.724,-60.302,-5.9366,-25.861,-1.4575
26.081,-69.449,31.111,-54.733,27.289,-71.879,39.209,-78.086,-22.243,-20.559,-21.962,-14.724,-60.302,-5.9366,-25.861,-1.4575
26.356,-69.704,31.352,-54.927,27.613,-72.208,39.55,-78.407,-22.202,-20.651,-21.917,-14.781,-60.324,-6.0431,-25.801,-1.5067
26.356,-69.704,31.352,-54.927,27.613,-72.208,39.55,-78.407,-22.202,-20.651,-21.917,-14.781,-60.324,-6.0431,-25.801,-1.5067
26.906,-70.216,31.832,-55.316,28.26,-72.865,40.229,-79.049,-22.119,-20.836,-21.825,-14.897,-60.367,-6.257,-25.681,-1.6061
26.906,-70.216,31.832,-55.316,28.26,-72.865,40.229,-79.049,-22.119,-20.836,-21.825,-14.897,-60.367,-6.257,-25.681,-1.6061
26.906,-70.216,31.832,-55.316,28.26,-72.865,40.229,-79.049,-22.119,-20.836,-21.825,-14.897,-60.367,-6.257,-25.681,-1.6061
27.181,-70.473,32.072,-55.51,28.582,-73.194,40.568,-79.37,-22.077,-20.929,-21.778,-14.956,-60.388,-6.3644,-25.621,-1.6563
27.181,-70.473,32.072,-55.51,28.582,-73.194,40.568,-79.37,-22.077,-20.929,-21.778,-14.956,-60.388,-6.3644,-25.621,-1.6563
27.181,-70.473,32.072,-55.51,28.582,-73.194,40.568,-79.37,-22.077,-20.929,-21.778,-14.956,-60.388,-6.3644,-25.621,-1.6563
27.457,-70.73,32.311,-55.704,28.904,-73.524,40.906,-79.69,-22.035,-21.022,-21.73,-15.015,-60.409,-6.4721,-25.561,-1.7068
27.733,-70.988,32.549,-55.897,29.226,-73.853,41.244,-80.01,-21.993,-21.116,-21.682,-15.076,-60.43,-6.5801,-25.501,-1.7576
28.01,-71.246,32.788,-56.09,29.548,-74.182,41.581,-80.33,-21.95,-21.21,-21.633,-15.137,-60.451,-6.6884,-25.441,-1.8087
28.01,-71.246,32.788,-56.09,29.548,-74.182,41.581,-80.33,-21.95,-21.21,-21.633,-15.137,-60.451,-6.6884,-25.441,-1.8087
28.01,-71.246,32.788,-56.09,29.548,-74.182,41.581,-80.33,-21.95,-21.21,-21.633,-15.137,-60.451,-6.6884,-25.441,-1.8087
28.287,-71.505,33.026,-56.283,29.868,-74.512,41.917,-80.65,-21.907,-21.304,-21.583,-15.198,-60.471,-6.797,-25.38,-1.8602
28.287,-71.505,33.026,-56.283,29.868,-74.512,41.917,-80.65,-21.907,-21.304,-21.583,-15.198,-60.471,-6.797,-25.38,-1.8602
28.564,-71.764,33.263,-56.476,30.189,-74.841,42.252,-80.969,-21.863,-21.399,-21.533,-15.26,-60.491,-6.906,-25.32,-1.9119
28.564,-71.764,33.263,-56.476,30.189,-74.841,42.252,-80.969,-21.863,-21.399,-21.533,-15.26,-60.491,-6.906,-25.32,-1.9119
28.842,-72.023,33.5,-56.667,30.508,-75.17,42.587,-81.288,-21.819,-21.494,-21.482,-15.323,-60.51,-7.0151,-25.259,-1.964
28.842,-72.023,33.5,-56.667,30.508,-75.17,42.587,-81.288,-21.819,-21.494,-21.482,-15.323,-60.51,-7.0151,-25.259,-1.964
28.842,-72.023,33.5,-56.667,30.508,-75.17,42.587,-81.288,-21.819,-21.494,-21.482,-15.323,-60.51,-7.0151,-25.259,-1.964
29.12,-72.283,33.736,-56.859,30.828,-75.499,42.921,-81.607,-21.775,-21.589,-21.431,-15.387,-60.53,-7.1246,-25.199,-2.0164
29.12,-72.283,33.736,-56.859,30.828,-75.499,42.921,-81.607,-21.775,-21.589,-21.431,-15.387,-60.53,-7.1246,-25.199,-2.0164
29.398,-72.543,33.972,-57.05,31.146,-75.829,43.254,-81.925,-21.731,-21.685,-21.379,-15.451,-60.549,-7.2344,-25.138,-2.0691
29.398,-72.543,33.972,-57.05,31.146,-75.829,43.254,-81.925,-21.731,-21.685,-21.379,-15.451,-60.549,-7.2344,-25.138,-2.0691
29.955,-73.063,34.443,-57.431,31.782,-76.486,43.919,-82.56,-21.641,-21.877,-21.274,-15.581,-60.586,-7.4548,-25.017,-2.1753
29.955,-73.063,34.443,-57.431,31.782,-76.486,43.919,-82.56,-21.641,-21.877,-21.274,-15.581,-60.586,-7.4548,-25.017,-2.1753
29.955,-73.063,34.443,-57.431,31.782,-76.486,43.919,-82.56,-21.641,-21.877,-21.274,-15.581,-60.586,-7.4548,-25.017,-2.1753
30.234,-73.324,34.677,-57.621,32.099,-76.815,44.249,-82.877,-21.596,-21.973,-21.22,-15.647,-60.605,-7.5654,-24.956,-2.2289
30.234,-73.324,34.677,-57.621,32.099,-76.815,44.249,-82.877,-21.596,-21.973,-21.22,-15.647,-60.605,-7.5654,-24.956,-2.2289
30.514,-73.585,34.911,-57.81,32.415,-77.143,44.579,-83.193,-21.55,-22.07,-21.166,-15.714,-60.623,-7.6763,-24.896,-2.2828
30.514,-73.585,34.911,-57.81,32.415,-77.143,44.579,-83.193,-21.55,-22.07,-21.166,-15.714,-60.623,-7.6763,-24.896,-2.2828
30.793,-73.846,35.144,-57.998,32.731,-77.471,44.909,-83.508,-21.504,-22.167,-21.111,-15.782,-60.641,-7.7874,-24.835,-2.337
30.793,-73.846,35.144,-57.998,32.731,-77.471,44.909,-83.508,-21.504,-22.167,-21.111,-15.782,-60.641,-7.7874,-24.835,-2.337
31.073,-74.107,35.377,-58.186,33.046,-77.799,45.237,-83.823,-21.458,-22.264,-21.055,-15.849,-60.658,-7.8988,-24.774,-2.3915
31.073,-74.107,35.377,-58.186,33.046,-77.799,45.237,-83.823,-21.458,-22.264,-21.055,-15.849,-60.658,-7.8988,-24.774,-2.3915
31.352,-74.368,35.609,-58.374,33.36,-78.127,45.564,-84.138,-21.412,-22.362,-20.999,-15.918,-60.676,-8.0105,-24.713,-2.4463
31.352,-74.368,35.609,-58.374,33.36,-78.127,45.564,-84.138,-21.412,-22.362,-20.999,-15.918,-60.676,-8.0105,-24.713,-2.4463
31.632,-74.63,35.84,-58.56,33.673,-78.454,45.891,-84.451,-21.365,-22.46,-20.942,-15.987,-60.693,-8.1225,-24.652,-2.5013
31.632,-74.63,35.84,-58.56,33.673,-78.454,45.891,-84.451,-21.365,-22.46,-20.942,-15.987,-60.693,-8.1225,-24.652,-2.5013
31.912,-74.891,36.071,-58.746,33.986,-78.78,46.216,-84.764,-21.318,-22.558,-20.885,-16.057,-60.71,-8.2347,-24.591,-2.5567
31.912,-74.891,36.071,-58.746,33.986,-78.78,46.216,-84.764,-21.318,-22.558,-20.885,-16.057,-60.71,-8.2347,-24.591,-2.5567
31.912,-74.891,36.071,-58.746,33.986,-78.78,46.216,-84.764,-21.318,-22.558,-20.885,-16.057,-60.71,-8.2347,-24.591,-2.5567
32.193,-75.152,36.301,-58.932,34.298,-79.106,46.541,-85.076,-21.271,-22.656,-20.827,-16.127,-60.726,-8.3471,-24.53,-2.6123
32.193,-75.152,36.301,-58.932,34.298,-79.106,46.541,-85.076,-21.271,-22.656,-20.827,-16.127,-60.726,-8.3471,-24.53,-2.6123
32.193,-75.152,36.301,-58.932,34.298,-79.106,46.541,-85.076,-21.271,-22.656,-20.827,-16.127,-60.726,-8.3471,-24.53,-2.6123
32.473,-75.414,36.53,-59.116,34.609,-79.432,46.864,-85.387,-21.224,-22.755,-20.769,-16.198,-60.743,-8.4598,-24.469,-2.6682
32.473,-75.414,36.53,-59.116,34.609,-79.432,46.864,-85.387,-21.224,-22.755,-20.769,-16.198,-60.743,-8.4598,-24.469,-2.6682
33.034,-75.936,36.987,-59.483,35.228,-80.082,47.508,-86.007,-21.128,-22.953,-20.65,-16.342,-60.775,-8.686,-24.347,-2.7809
33.034,-75.936,36.987,-59.483,35.228,-80.082,47.508,-86.007,-21.128,-22.953,-20.65,-16.342,-60.775,-8.686,-24.347,-2.7809
33.034,-75.936,36.987,-59.483,35.228,-80.082,47.508,-86.007,-21.128,-22.953,-20.65,-16.342,-60.775,-8.686,-24.347,-2.7809
33.315,-76.197,37.214,-59.665,35.537,-80.405,47.829,-86.316,-21.08,-23.053,-20.59,-16.415,-60.791,-8.7994,-24.286,-2.8376
33.595,-76.458,37.44,-59.847,35.844,-80.729,48.148,-86.623,-21.032,-23.152,-20.529,-16.488,-60.806,-8.9131,-24.225,-2.8946
33.876,-76.719,37.666,-60.027,36.151,-81.051,48.466,-86.93,-20.983,-23.252,-20.468,-16.562,-60.821,-9.027,-24.163,-2.9519
33.876,-76.719,37.666,-60.027,36.151,-81.051,48.466,-86.93,-20.983,-23.252,-20.468,-16.562,-60.821,-9.027,-24.163,-2.9519
34.157,-76.979,37.891,-60.207,36.457,-81.373,48.783,-87.235,-20.934,-23.352,-20.406,-16.636,-60.837,-9.1412,-24.102,-3.0095
34.157,-76.979,37.891,-60.207,36.457,-81.373,48.783,-87.235,-20.934,-23.352,-20.406,-16.636,-60.837,-9.1412,-24.102,-3.0095
34.157,-76.979,37.891,-60.207,36.457,-81.373,48.783,-87.235,-20.934,-23.352,-20.406,-16.636,-60.837,-9.1412,-24.102,-3.0095
34.438,-77.239,38.115,-60.386,36.762,-81.694,49.1,-87.54,-20.885,-23.452,-20.343,-16.711,-60.851,-9.2555,-24.041,-3.0673
34.438,-77.239,38.115,-60.386,36.762,-81.694,49.1,-87.54,-20.885,-23.452,-20.343,-16.711,-60.851,-9.2555,-24.041,-3.0673
34.438,-77.239,38.115,-60.386,36.762,-81.694,49.1,-87.54,-20.885,-23.452,-20.343,-16.711,-60.851,-9.2555,-24.041,-3.0673
34.718,-77.499,38.339,-60.563,37.066,-82.014,49.414,-87.843,-20.836,-23.553,-20.28,-16.787,-60.866,-9.3701,-23.98,-3.1254
34.999,-77.759,38.561,-60.74,37.368,-82.333,49.728,-88.145,-20.787,-23.654,-20.217,-16.863,-60.88,-9.4849,-23.918,-3.1838
34.999,-77.759,38.561,-60.74,37.368,-82.333,49.728,-88.145,-20.787,-23.654,-20.217,-16.863,-60.88,-9.4849,-23.918,-3.1838
35.28,-78.018,38.783,-60.916,37.67,-82.652,50.041,-88.446,-20.737,-23.755,-20.152,-16.94,-60.895,-9.5999,-23.857,-3.2424
35.28,-78.018,38.783,-60.916,37.67,-82.652,50.041,-88.446,-20.737,-23.755,-20.152,-16.94,-60.895,-9.5999,-23.857,-3.2424
35.56,-78.277,39.004,-61.091,37.971,-82.969,50.352,-88.746,-20.687,-23.856,-20.088,-17.017,-60.909,-9.7151,-23.796,-3.3013
35.56,-78.277,39.004,-61.091,37.971,-82.969,50.352,-88.746,-20.687,-23.856,-20.088,-17.017,-60.909,-9.7151,-23.796,-3.3013
35.841,-78.535,39.224,-61.265,38.271,-83.286,50.662,-89.045,-20.638,-23.957,-20.022,-17.095,-60.922,-9.8306,-23.735,-3.3604
35.841,-78.535,39.224,-61.265,38.271,-83.286,50.662,-89.045,-20.638,-23.957,-20.022,-17.095,-60.922,-9.8306,-23.735,-3.3604
35.841,-78.535,39.224,-61.265,38.271,-83.286,50.662,-89.045,-20.638,-23.957,-20.022,-17.095,-60.922,-9.8306,-23.735,-3.3604
36.121,-78.793,39.443,-61.437,38.569,-83.601,50.971,-89.342,-20.587,-24.058,-19.957,-17.173,-60.936,-9.9462,-23.673,-3.4198
36.402,-79.051,39.661,-61.609,38.867,-83.916,51.279,-89.638,-20.537,-24.16,-19.89,-17.252,-60.949,-10.062,-23.612,-3.4794
36.682,-79.307,39.878,-61.779,39.163,-84.229,51.585,-89.932,-20.487,-24.262,-19.823,-17.331,-60.962,-10.178,-23.551,-3.5393
36.682,-79.307,39.878,-61.779,39.163,-84.229,51.585,-89.932,-20.487,-24.262,-19.823,-17.331,-60.962,-10.178,-23.551,-3.5393
36.682,-79.307,39.878,-61.779,39.163,-84.229,51.585,-89.932,-20.487,-24.262,-19.823,-17.331,-60.962,-10.178,-23.551,-3.5393
36.962,-79.564,40.095,-61.948,39.458,-84.541,51.89,-90.225,-20.436,-24.364,-19.756,-17.411,-60.975,-10.294,-23.489,-3.5994
36.962,-79.564,40.095,-61.948,39.458,-84.541,51.89,-90.225,-20.436,-24.364,-19.756,-17.411,-60.975,-10.294,-23.489,-3.5994
37.242,-79.819,40.31,-62.116,39.752,-84.852,52.193,-90.517,-20.385,-24.466,-19.688,-17.491,-60.988,-10.411,-23.428,-3.6598
37.242,-79.819,40.31,-62.116,39.752,-84.852,52.193,-90.517,-20.385,-24.466,-19.688,-17.491,-60.988,-10.411,-23.428,-3.6598
37.521,-80.074,40.525,-62.283,40.044,-85.162,52.496,-90.807,-20.335,-24.568,-19.619,-17.572,-61,-10.527,-23.367,-3.7204
37.521,-80.074,40.525,-62.283,40.044,-85.162,52.496,-90.807,-20.335,-24.568,-19.619,-17.572,-61,-10.527,-23.367,-3.7204
37.801,-80.328,40.738,-62.448,40.336,-85.47,52.796,-91.095,-20.283,-24.671,-19.55,-17.653,-61.013,-10.644,-23.305,-3.7812
37.801,-80.328,40.738,-62.448,40.336,-85.47,52.796,-91.095,-20.283,-24.671,-19.55,-17.653,-61.013,-10.644,-23.305,-3.7812
38.08,-80.582,40.95,-62.612,40.626,-85.777,53.096,-91.382,-20.232,-24.773,-19.48,-17.735,-61.025,-10.761,-23.244,-3.8423
38.08,-80.582,40.95,-62.612,40.626,-85.777,53.096,-91.382,-20.232,-24.773,-19.48,-17.735,-61.025,-10.761,-23.244,-3.8423
38.359,-80.835,41.162,-62.775,40.915,-86.083,53.394,-91.667,-20.181,-24.876,-19.41,-17.818,-61.036,-10.878,-23.183,-3.9036
38.359,-80.835,41.162,-62.775,40.915,-86.083,53.394,-91.667,-20.181,-24.876,-19.41,-17.818,-61.036,-10.878,-23.183,-3.9036
38.638,-81.087,41.372,-62.936,41.202,-86.387,53.69,-91.951,-20.13,-24.979,-19.339,-17.9,-61.048,-10.995,-23.121,-3.9652
38.638,-81.087,41.372,-62.936,41.202,-86.387,53.69,-91.951,-20.13,-24.979,-19.339,-17.9,-61.048,-10.995,-23.121,-3.9652
38.917,-81.338,41.581,-63.096,41.489,-86.69,53.985,-92.232,-20.078,-25.082,-19.268,-17.984,-61.059,-11.113,-23.06,-4.027
38.917,-81.338,41.581,-63.096,41.489,-86.69,53.985,-92.232,-20.078,-25.082,-19.268,-17.984,-61.059,-11.113,-23.06,-4.027
39.195,-81.588,41.789,-63.255,41.773,-86.991,54.279,-92.512,-20.027,-25.185,-19.196,-18.067,-61.071,-11.23,-22.998,-4.089
39.195,-81.588,41.789,-63.255,41.773,-86.991,54.279,-92.512,-20.027,-25.185,-19.196,-18.067,-61.071,-11.23,-22.998,-4.089
39.473,-81.837,41.997,-63.412,42.057,-87.291,54.571,-92.79,-19.975,-25.288,-19.124,-18.152,-61.082,-11.348,-22.937,-4.1512
39.473,-81.837,41.997,-63.412,42.057,-87.291,54.571,-92.79,-19.975,-25.288,-19.124,-18.152,-61.082,-11.348,-22.937,-4.1512
39.75,-82.085,42.202,-63.568,42.339,-87.589,54.861,-93.067,-19.923,-25.391,-19.051,-18.236,-61.092,-11.466,-22.876,-4.2136
39.75,-82.085,42.202,-63.568,42.339,-87.589,54.861,-93.067,-19.923,-25.391,-19.051,-18.236,-61.092,-11.466,-22.876,-4.2136
39.75,-82.085,42.202,-63.568,42.339,-87.589,54.861,-93.067,-19.923,-25.391,-19.051,-18.236,-61.092,-11.466,-22.876,-4.2136
40.027,-82.333,42.407,-63.722,42.619,-87.885,55.15,-93.341,-19.871,-25.494,-18.978,-18.321,-61.103,-11.584,-22.814,-4.2763
40.027,-82.333,42.407,-63.722,42.619,-87.885,55.15,-93.341,-19.871,-25.494,-18.978,-18.321,-61.103,-11.584,-22.814,-4.2763
40.304,-82.579,42.611,-63.874,42.898,-88.18,55.438,-93.614,-19.819,-25.597,-18.904,-18.407,-61.113,-11.702,-22.753,-4.3392
40.581,-82.824,42.813,-64.025,43.176,-88.473,55.723,-93.884,-19.767,-25.701,-18.829,-18.493,-61.124,-11.82,-22.692,-4.4022
40.581,-82.824,42.813,-64.025,43.176,-88.473,55.723,-93.884,-19.767,-25.701,-18.829,-18.493,-61.124,-11.82,-22.692,-4.4022
40.857,-83.068,43.015,-64.174,43.452,-88.764,56.007,-94.153,-19.715,-25.804,-18.754,-18.579,-61.134,-11.939,-22.631,-4.4656
40.857,-83.068,43.015,-64.174,43.452,-88.764,56.007,-94.153,-19.715,-25.804,-18.754,-18.579,-61.134,-11.939,-22.631,-4.4656
41.132,-83.311,43.215,-64.322,43.726,-89.053,56.29,-94.419,-19.663,-25.908,-18.679,-18.666,-61.143,-12.057,-22.569,-4.5291
41.132,-83.311,43.215,-64.322,43.726,-89.053,56.29,-94.419,-19.663,-25.908,-18.679,-18.666,-61.143,-12.057,-22.569,-4.5291
41.407,-83.552,43.414,-64.468,43.999,-89.341,56.57,-94.683,-19.611,-26.011,-18.603,-18.753,-61.153,-12.176,-22.508,-4.5928
41.407,-83.552,43.414,-64.468,43.999,-89.341,56.57,-94.683,-19.611,-26.011,-18.603,-18.753,-61.153,-12.176,-22.508,-4.5928
41.407,-83.552,43.414,-64.468,43.999,-89.341,56.57,-94.683,-19.611,-26.011,-18.603,-18.753,-61.153,-12.176,-22.508,-4.5928
41.682,-83.793,43.611,-64.612,44.27,-89.626,56.849,-94.945,-19.558,-26.115,-18.526,-18.841,-61.162,-12.295,-22.447,-4.6567
41.682,-83.793,43.611,-64.612,44.27,-89.626,56.849,-94.945,-19.558,-26.115,-18.526,-18.841,-61.162,-12.295,-22.447,-4.6567
42.23,-84.269,44.003,-64.895,44.808,-90.192,57.402,-95.462,-19.454,-26.322,-18.372,-19.018,-61.18,-12.533,-22.324,-4.7851
42.23,-84.269,44.003,-64.895,44.808,-90.192,57.402,-95.462,-19.454,-26.322,-18.372,-19.018,-61.18,-12.533,-22.324,-4.7851
42.503,-84.506,44.197,-65.034,45.074,-90.471,57.676,-95.718,-19.401,-26.426,-18.294,-19.106,-61.189,-12.652,-22.263,-4.8496
42.503,-84.506,44.197,-65.034,45.074,-90.471,57.676,-95.718,-19.401,-26.426,-18.294,-19.106,-61.189,-12.652,-22.263,-4.8496
42.503,-84.506,44.197,-65.034,45.074,-90.471,57.676,-95.718,-19.401,-26.426,-18.294,-19.106,-61.189,-12.652,-22.263,-4.8496
42.776,-84.74,44.389,-65.171,45.339,-90.748,57.947,-95.971,-19.349,-26.529,-18.215,-19.196,-61.198,-12.771,-22.202,-4.9144
42.776,-84.74,44.389,-65.171,45.339,-90.748,57.947,-95.971,-19.349,-26.529,-18.215,-19.196,-61.198,-12.771,-22.202,-4.9144
42.776,-84.74,44.389,-65.171,45.339,-90.748,57.947,-95.971,-19.349,-26.529,-18.215,-19.196,-61.198,-12.771,-22.202,-4.9144
43.048,-84.974,44.58,-65.306,45.602,-91.024,58.217,-96.221,-19.296,-26.633,-18.137,-19.285,-61.206,-12.89,-22.141,-4.9793
43.319,-85.206,44.77,-65.439,45.863,-91.296,58.486,-96.469,-19.244,-26.737,-18.057,-19.375,-61.214,-13.01,-22.079,-5.0443
43.59,-85.436,44.959,-65.57,46.122,-91.567,58.752,-96.715,-19.191,-26.84,-17.977,-19.465,-61.222,-13.129,-22.018,-5.1096
43.59,-85.436,44.959,-65.57,46.122,-91.567,58.752,-96.715,-19.191,-26.84,-17.977,-19.465,-61.222,-13.129,-22.018,-5.1096
43.59,-85.436,44.959,-65.57,46.122,-91.567,58.752,-96.715,-19.191,-26.84,-17.977,-19.465,-61.222,-13.129,-22.018,-5.1096
43.86,-85.665,45.146,-65.7,46.379,-91.835,59.016,-96.958,-19.139,-26.944,-17.897,-19.556,-61.23,-13.249,-21.957,-5.1751
43.86,-85.665,45.146,-65.7,46.379,-91.835,59.016,-96.958,-19.139,-26.944,-17.897,-19.556,-61.23,-13.249,-21.957,-5.1751
44.13,-85.892,45.331,-65.827,46.635,-92.101,59.278,-97.198,-19.086,-27.047,-17.816,-19.647,-61.237,-13.368,-21.896,-5.2407
44.13,-85.892,45.331,-65.827,46.635,-92.101,59.278,-97.198,-19.086,-27.047,-17.816,-19.647,-61.237,-13.368,-21.896,-5.2407
44.398,-86.117,45.516,-65.952,46.888,-92.365,59.539,-97.436,-19.034,-27.151,-17.734,-19.738,-61.244,-13.488,-21.835,-5.3065
44.398,-86.117,45.516,-65.952,46.888,-92.365,59.539,-97.436,-19.034,-27.151,-17.734,-19.738,-61.244,-13.488,-21.835,-5.3065
44.398,-86.117,45.516,-65.952,46.888,-92.365,59.539,-97.436,-19.034,-27.151,-17.734,-19.738,-61.244,-13.488,-21.835,-5.3065
44.666,-86.341,45.698,-66.075,47.14,-92.626,59.797,-97.671,-18.981,-27.254,-17.652,-19.83,-61.251,-13.608,-21.774,-5.3725
44.666,-86.341,45.698,-66.075,47.14,-92.626,59.797,-97.671,-18.981,-27.254,-17.652,-19.83,-61.251,-13.608,-21.774,-5.3725
44.666,-86.341,45.698,-66.075,47.14,-92.626,59.797,-97.671,-18.981,-27.254,-17.652,-19.83,-61.251,-13.608,-21.774,-5.3725
45.2,-86.783,46.06,-66.314,47.638,-93.141,60.308,-98.133,-18.877,-27.461,-17.487,-20.014,-61.265,-13.848,-21.652,-5.505
45.466,-87.001,46.238,-66.431,47.884,-93.394,60.56,-98.36,-18.824,-27.564,-17.404,-20.107,-61.271,-13.967,-21.591,-5.5715
45.466,-87.001,46.238,-66.431,47.884,-93.394,60.56,-98.36,-18.824,-27.564,-17.404,-20.107,-61.271,-13.967,-21.591,-5.5715
45.466,-87.001,46.238,-66.431,47.884,-93.394,60.56,-98.36,-18.824,-27.564,-17.404,-20.107,-61.271,-13.967,-21.591,-5.5715
45.731,-87.217,46.415,-66.545,48.128,-93.645,60.811,-98.584,-18.772,-27.667,-17.32,-20.199,-61.278,-14.087,-21.53,-5.6382
45.731,-87.217,46.415,-66.545,48.128,-93.645,60.811,-98.584,-18.772,-27.667,-17.32,-20.199,-61.278,-14.087,-21.53,-5.6382
45.996,-87.432,46.59,-66.657,48.37,-93.892,61.059,-98.805,-18.72,-27.77,-17.235,-20.292,-61.284,-14.207,-21.469,-5.705
46.259,-87.644,46.764,-66.766,48.609,-94.138,61.305,-99.023,-18.668,-27.873,-17.151,-20.386,-61.289,-14.327,-21.408,-5.772
46.259,-87.644,46.764,-66.766,48.609,-94.138,61.305,-99.023,-18.668,-27.873,-17.151,-20.386,-61.289,-14.327,-21.408,-5.772
46.522,-87.854,46.936,-66.874,48.847,-94.38,61.549,-99.238,-18.616,-27.976,-17.065,-20.479,-61.295,-14.448,-21.347,-5.8391
46.522,-87.854,46.936,-66.874,48.847,-94.38,61.549,-99.238,-18.616,-27.976,-17.065,-20.479,-61.295,-14.448,-21.347,-5.8391
46.522,-87.854,46.936,-66.874,48.847,-94.38,61.549,-99.238,-18.616,-27.976,-17.065,-20.479,-61.295,-14.448,-21.347,-5.8391
46.783,-88.063,47.106,-66.978,49.082,-94.619,61.79,-99.45,-18.563,-28.079,-16.98,-20.573,-61.3,-14.568,-21.286,-5.9064
46.783,-88.063,47.106,-66.978,49.082,-94.619,61.79,-99.45,-18.563,-28.079,-16.98,-20.573,-61.3,-14.568,-21.286,-5.9064
46.783,-88.063,47.106,-66.978,49.082,-94.619,61.79,-99.45,-18.563,-28.079,-16.98,-20.573,-61.3,-14.568,-21.286,-5.9064
47.044,-88.269,47.275,-67.081,49.316,-94.856,62.03,-99.659,-18.512,-28.181,-16.894,-20.667,-61.306,-14.688,-21.225,-5.9739
47.304,-88.473,47.443,-67.181,49.547,-95.089,62.267,-99.864,-18.46,-28.284,-16.807,-20.762,-61.31,-14.808,-21.164,-6.0415
47.563,-88.674,47.608,-67.278,49.776,-95.32,62.502,-100.07,-18.408,-28.386,-16.72,-20.856,-61.315,-14.928,-21.103,-6.1093
47.563,-88.674,47.608,-67.278,49.776,-95.32,62.502,-100.07,-18.408,-28.386,-16.72,-20.856,-61.315,-14.928,-21.103,-6.1093
47.821,-88.874,47.772,-67.373,50.003,-95.547,62.734,-100.27,-18.356,-28.488,-16.632,-20.951,-61.32,-15.048,-21.042,-6.1772
47.821,-88.874,47.772,-67.373,50.003,-95.547,62.734,-100.27,-18.356,-28.488,-16.632,-20.951,-61.32,-15.048,-21.042,-6.1772
47.821,-88.874,47.772,-67.373,50.003,-95.547,62.734,-100.27,-18.356,-28.488,-16.632,-20.951,-61.32,-15.048,-21.042,-6.1772
48.078,-89.071,47.935,-67.466,50.227,-95.772,62.964,-100.46,-18.305,-28.59,-16.544,-21.046,-61.324,-15.168,-20.981,-6.2452
48.078,-89.071,47.935,-67.466,50.227,-95.772,62.964,-100.46,-18.305,-28.59,-16.544,-21.046,-61.324,-15.168,-20.981,-6.2452
48.078,-89.071,47.935,-67.466,50.227,-95.772,62.964,-100.46,-18.305,-28.59,-16.544,-21.046,-61.324,-15.168,-20.981,-6.2452
48.334,-89.265,48.095,-67.556,50.449,-95.993,63.192,-100.65,-18.253,-28.692,-16.456,-21.141,-61.328,-15.288,-20.921,-6.3134
48.334,-89.265,48.095,-67.556,50.449,-95.993,63.192,-100.65,-18.253,-28.692,-16.456,-21.141,-61.328,-15.288,-20.921,-6.3134
48.842,-89.648,48.411,-67.727,50.886,-96.425,63.641,-101.03,-18.151,-28.895,-16.278,-21.332,-61.335,-15.529,-20.799,-6.4502
48.842,-89.648,48.411,-67.727,50.886,-96.425,63.641,-101.03,-18.151,-28.895,-16.278,-21.332,-61.335,-15.529,-20.799,-6.4502
49.095,-89.835,48.566,-67.809,51.101,-96.636,63.862,-101.21,-18.099,-28.996,-16.188,-21.428,-61.339,-15.649,-20.738,-6.5188
49.095,-89.835,48.566,-67.809,51.101,-96.636,63.862,-101.21,-18.099,-28.996,-16.188,-21.428,-61.339,-15.649,-20.738,-6.5188
49.095,-89.835,48.566,-67.809,51.101,-96.636,63.862,-101.21,-18.099,-28.996,-16.188,-21.428,-61.339,-15.649,-20.738,-6.5188
49.346,-90.02,48.72,-67.888,51.314,-96.844,64.08,-101.39,-18.048,-29.097,-16.098,-21.524,-61.342,-15.769,-20.678,-6.5875
49.346,-90.02,48.72,-67.888,51.314,-96.844,64.08,-101.39,-18.048,-29.097,-16.098,-21.524,-61.342,-15.769,-20.678,-6.5875
49.346,-90.02,48.72,-67.888,51.314,-96.844,64.08,-101.39,-18.048,-29.097,-16.098,-21.524,-61.342,-15.769,-20.678,-6.5875
49.597,-90.202,48.872,-67.964,51.524,-97.048,64.296,-101.57,-17.998,-29.198,-16.007,-21.62,-61.345,-15.889,-20.617,-6.6563
49.597,-90.202,48.872,-67.964,51.524,-97.048,64.296,-101.57,-17.998,-29.198,-16.007,-21.62,-61.345,-15.889,-20.617,-6.6563
50.094,-90.559,49.17,-68.108,51.937,-97.446,64.72,-101.9,-17.897,-29.398,-15.825,-21.813,-61.35,-16.129,-20.496,-6.7944
50.094,-90.559,49.17,-68.108,51.937,-97.446,64.72,-101.9,-17.897,-29.398,-15.825,-21.813,-61.35,-16.129,-20.496,-6.7944
50.094,-90.559,49.17,-68.108,51.937,-97.446,64.72,-101.9,-17.897,-29.398,-15.825,-21.813,-61.35,-16.129,-20.496,-6.7944
50.341,-90.733,49.316,-68.176,52.139,-97.64,64.928,-102.07,-17.846,-29.498,-15.733,-21.909,-61.352,-16.249,-20.435,-6.8636
50.341,-90.733,49.316,-68.176,52.139,-97.64,64.928,-102.07,-17.846,-29.498,-15.733,-21.909,-61.352,-16.249,-20.435,-6.8636
50.587,-90.904,49.46,-68.241,52.34,-97.83,65.134,-102.23,-17.796,-29.598,-15.64,-22.006,-61.354,-16.369,-20.374,-6.933
50.587,-90.904,49.46,-68.241,52.34,-97.83,65.134,-102.23,-17.796,-29.598,-15.64,-22.006,-61.354,-16.369,-20.374,-6.933
50.587,-90.904,49.46,-68.241,52.34,-97.83,65.134,-102.23,-17.796,-29.598,-15.64,-22.006,-61.354,-16.369,-20.374,-6.933
50.831,-91.073,49.603,-68.302,52.537,-98.016,65.337,-102.39,-17.746,-29.698,-15.548,-22.103,-61.356,-16.489,-20.314,-7.0024
50.831,-91.073,49.603,-68.302,52.537,-98.016,65.337,-102.39,-17.746,-29.698,-15.548,-22.103,-61.356,-16.489,-20.314,-7.0024
51.316,-91.402,49.881,-68.417,52.924,-98.377,65.735,-102.69,-17.647,-29.896,-15.361,-22.297,-61.359,-16.728,-20.193,-7.1417
51.316,-91.402,49.881,-68.417,52.924,-98.377,65.735,-102.69,-17.647,-29.896,-15.361,-22.297,-61.359,-16.728,-20.193,-7.1417
51.316,-91.402,49.881,-68.417,52.924,-98.377,65.735,-102.69,-17.647,-29.896,-15.361,-22.297,-61.359,-16.728,-20.193,-7.1417
51.556,-91.561,50.018,-68.47,53.113,-98.552,65.93,-102.83,-17.597,-29.994,-15.267,-22.394,-61.36,-16.848,-20.132,-7.2115
51.556,-91.561,50.018,-68.47,53.113,-98.552,65.93,-102.83,-17.597,-29.994,-15.267,-22.394,-61.36,-16.848,-20.132,-7.2115
51.556,-91.561,50.018,-68.47,53.113,-98.552,65.93,-102.83,-17.597,-29.994,-15.267,-22.394,-61.36,-16.848,-20.132,-7.2115
51.556,-91.561,50.018,-68.47,53.113,-98.552,65.93,-102.83,-17.597,-29.994,-15.267,-22.394,-61.36,-16.848,-20.132,-7.2115
52.033,-91.872,50.285,-68.565,53.484,-98.89,66.311,-103.11,-17.499,-30.191,-15.077,-22.588,-61.361,-17.087,-20.011,-7.3514
52.033,-91.872,50.285,-68.565,53.484,-98.89,66.311,-103.11,-17.499,-30.191,-15.077,-22.588,-61.361,-17.087,-20.011,-7.3514
52.269,-92.023,50.416,-68.609,53.665,-99.052,66.498,-103.24,-17.45,-30.288,-14.982,-22.685,-61.361,-17.206,-19.951,-7.4215
52.269,-92.023,50.416,-68.609,53.665,-99.052,66.498,-103.24,-17.45,-30.288,-14.982,-22.685,-61.361,-17.206,-19.951,-7.4215
52.504,-92.17,50.544,-68.649,53.844,-99.211,66.682,-103.37,-17.402,-30.386,-14.886,-22.783,-61.361,-17.325,-19.89,-7.4917
52.504,-92.17,50.544,-68.649,53.844,-99.211,66.682,-103.37,-17.402,-30.386,-14.886,-22.783,-61.361,-17.325,-19.89,-7.4917
52.738,-92.315,50.671,-68.685,54.019,-99.365,66.863,-103.49,-17.353,-30.483,-14.79,-22.88,-61.361,-17.445,-19.83,-7.5621
52.738,-92.315,50.671,-68.685,54.019,-99.365,66.863,-103.49,-17.353,-30.483,-14.79,-22.88,-61.361,-17.445,-19.83,-7.5621
52.969,-92.456,50.795,-68.719,54.192,-99.516,67.041,-103.61,-17.305,-30.579,-14.694,-22.977,-61.361,-17.564,-19.769,-7.6325
52.969,-92.456,50.795,-68.719,54.192,-99.516,67.041,-103.61,-17.305,-30.579,-14.694,-22.977,-61.361,-17.564,-19.769,-7.6325
53.2,-92.593,50.917,-68.749,54.362,-99.662,67.217,-103.73,-17.257,-30.675,-14.597,-23.075,-61.36,-17.683,-19.709,-7.703
53.2,-92.593,50.917,-68.749,54.362,-99.662,67.217,-103.73,-17.257,-30.675,-14.597,-23.075,-61.36,-17.683,-19.709,-7.703
53.2,-92.593,50.917,-68.749,54.362,-99.662,67.217,-103.73,-17.257,-30.675,-14.597,-23.075,-61.36,-17.683,-19.709,-7.703
53.429,-92.728,51.037,-68.775,54.528,-99.803,67.389,-103.84,-17.21,-30.771,-14.5,-23.172,-61.359,-17.802,-19.648,-7.7736
53.429,-92.728,51.037,-68.775,54.528,-99.803,67.389,-103.84,-17.21,-30.771,-14.5,-23.172,-61.359,-17.802,-19.648,-7.7736
53.656,-92.859,51.155,-68.799,54.692,-99.941,67.559,-103.94,-17.162,-30.867,-14.402,-23.269,-61.358,-17.921,-19.588,-7.8442
53.656,-92.859,51.155,-68.799,54.692,-99.941,67.559,-103.94,-17.162,-30.867,-14.402,-23.269,-61.358,-17.921,-19.588,-7.8442
53.656,-92.859,51.155,-68.799,54.692,-99.941,67.559,-103.94,-17.162,-30.867,-14.402,-23.269,-61.358,-17.921,-19.588,-7.8442
54.106,-93.111,51.385,-68.835,55.011,-100.2,67.889,-104.14,-17.069,-31.057,-14.206,-23.464,-61.354,-18.158,-19.467,-7.9859
54.106,-93.111,51.385,-68.835,55.011,-100.2,67.889,-104.14,-17.069,-31.057,-14.206,-23.464,-61.354,-18.158,-19.467,-7.9859
54.328,-93.232,51.496,-68.847,55.166,-100.33,68.049,-104.23,-17.022,-31.151,-14.107,-23.561,-61.352,-18.277,-19.407,-8.0568
54.328,-93.232,51.496,-68.847,55.166,-100.33,68.049,-104.23,-17.022,-31.151,-14.107,-23.561,-61.352,-18.277,-19.407,-8.0568
54.549,-93.349,51.605,-68.857,55.317,-100.45,68.207,-104.32,-16.976,-31.245,-14.008,-23.659,-61.35,-18.395,-19.346,-8.1278
54.549,-93.349,51.605,-68.857,55.317,-100.45,68.207,-104.32,-16.976,-31.245,-14.008,-23.659,-61.35,-18.395,-19.346,-8.1278
54.768,-93.462,51.712,-68.862,55.466,-100.56,68.361,-104.41,-16.93,-31.338,-13.908,-23.756,-61.347,-18.513,-19.286,-8.1989
54.985,-93.572,51.817,-68.864,55.611,-100.67,68.512,-104.48,-16.884,-31.431,-13.808,-23.853,-61.345,-18.631,-19.226,-8.2701
54.985,-93.572,51.817,-68.864,55.611,-100.67,68.512,-104.48,-16.884,-31.431,-13.808,-23.853,-61.345,-18.631,-19.226,-8.2701
54.985,-93.572,51.817,-68.864,55.611,-100.67,68.512,-104.48,-16.884,-31.431,-13.808,-23.853,-61.345,-18.631,-19.226,-8.2701
55.201,-93.678,51.919,-68.863,55.754,-100.78,68.661,-104.56,-16.839,-31.524,-13.708,-23.95,-61.342,-18.749,-19.165,-8.3414
55.201,-93.678,51.919,-68.863,55.754,-100.78,68.661,-104.56,-16.839,-31.524,-13.708,-23.95,-61.342,-18.749,-19.165,-8.3414
55.414,-93.78,52.019,-68.857,55.893,-100.88,68.806,-104.63,-16.794,-31.616,-13.607,-24.047,-61.338,-18.867,-19.105,-8.4127
55.414,-93.78,52.019,-68.857,55.893,-100.88,68.806,-104.63,-16.794,-31.616,-13.607,-24.047,-61.338,-18.867,-19.105,-8.4127
55.626,-93.879,52.117,-68.848,56.028,-100.97,68.947,-104.69,-16.749,-31.708,-13.506,-24.144,-61.334,-18.985,-19.045,-8.4841
55.626,-93.879,52.117,-68.848,56.028,-100.97,68.947,-104.69,-16.749,-31.708,-13.506,-24.144,-61.334,-18.985,-19.045,-8.4841
55.836,-93.974,52.213,-68.835,56.161,-101.06,69.086,-104.75,-16.705,-31.799,-13.404,-24.241,-61.331,-19.102,-18.984,-8.5556
56.045,-94.064,52.306,-68.818,56.29,-101.15,69.221,-104.8,-16.661,-31.89,-13.303,-24.338,-61.326,-19.219,-18.924,-8.6271
56.045,-94.064,52.306,-68.818,56.29,-101.15,69.221,-104.8,-16.661,-31.89,-13.303,-24.338,-61.326,-19.219,-18.924,-8.6271
56.045,-94.064,52.306,-68.818,56.29,-101.15,69.221,-104.8,-16.661,-31.89,-13.303,-24.338,-61.326,-19.219,-18.924,-8.6271
56.251,-94.151,52.396,-68.798,56.416,-101.23,69.353,-104.85,-16.617,-31.98,-13.2,-24.434,-61.322,-19.337,-18.864,-8.6987
56.251,-94.151,52.396,-68.798,56.416,-101.23,69.353,-104.85,-16.617,-31.98,-13.2,-24.434,-61.322,-19.337,-18.864,-8.6987
56.456,-94.234,52.485,-68.773,56.538,-101.3,69.482,-104.9,-16.574,-32.069,-13.098,-24.531,-61.317,-19.454,-18.803,-8.7704
56.456,-94.234,52.485,-68.773,56.538,-101.3,69.482,-104.9,-16.574,-32.069,-13.098,-24.531,-61.317,-19.454,-18.803,-8.7704
56.658,-94.313,52.571,-68.745,56.657,-101.37,69.608,-104.94,-16.531,-32.159,-12.995,-24.627,-61.312,-19.57,-18.743,-8.8421
56.658,-94.313,52.571,-68.745,56.657,-101.37,69.608,-104.94,-16.531,-32.159,-12.995,-24.627,-61.312,-19.57,-18.743,-8.8421
56.859,-94.388,52.654,-68.713,56.773,-101.44,69.73,-104.97,-16.488,-32.247,-12.892,-24.723,-61.307,-19.687,-18.683,-8.9139
56.859,-94.388,52.654,-68.713,56.773,-101.44,69.73,-104.97,-16.488,-32.247,-12.892,-24.723,-61.307,-19.687,-18.683,-8.9139
57.058,-94.458,52.735,-68.676,56.885,-101.5,69.848,-105,-16.446,-32.335,-12.788,-24.819,-61.301,-19.804,-18.622,-8.9857
57.058,-94.458,52.735,-68.676,56.885,-101.5,69.848,-105,-16.446,-32.335,-12.788,-24.819,-61.301,-19.804,-18.622,-8.9857
57.254,-94.525,52.814,-68.636,56.994,-101.56,69.964,-105.02,-16.404,-32.423,-12.684,-24.915,-61.295,-19.92,-18.562,-9.0576
57.254,-94.525,52.814,-68.636,56.994,-101.56,69.964,-105.02,-16.404,-32.423,-12.684,-24.915,-61.295,-19.92,-18.562,-9.0576
57.449,-94.587,52.89,-68.591,57.099,-101.6,70.076,-105.04,-16.362,-32.51,-12.58,-25.011,-61.289,-20.036,-18.502,-9.1296
57.449,-94.587,52.89,-68.591,57.099,-101.6,70.076,-105.04,-16.362,-32.51,-12.58,-25.011,-61.289,-20.036,-18.502,-9.1296
57.641,-94.645,52.963,-68.543,57.201,-101.65,70.184,-105.05,-16.321,-32.596,-12.476,-25.106,-61.282,-20.152,-18.441,-9.2016
57.641,-94.645,52.963,-68.543,57.201,-101.65,70.184,-105.05,-16.321,-32.596,-12.476,-25.106,-61.282,-20.152,-18.441,-9.2016
57.832,-94.699,53.034,-68.49,57.299,-101.69,70.289,-105.06,-16.28,-32.682,-12.371,-25.202,-61.275,-20.268,-18.381,-9.2737
57.832,-94.699,53.034,-68.49,57.299,-101.69,70.289,-105.06,-16.28,-32.682,-12.371,-25.202,-61.275,-20.268,-18.381,-9.2737
58.02,-94.748,53.102,-68.433,57.393,-101.72,70.39,-105.06,-16.239,-32.768,-12.265,-25.297,-61.268,-20.383,-18.32,-9.3458
58.02,-94.748,53.102,-68.433,57.393,-101.72,70.39,-105.06,-16.239,-32.768,-12.265,-25.297,-61.268,-20.383,-18.32,-9.3458
58.206,-94.793,53.168,-68.372,57.484,-101.75,70.488,-105.06,-16.199,-32.852,-12.16,-25.392,-61.261,-20.499,-18.26,-9.418
58.206,-94.793,53.168,-68.372,57.484,-101.75,70.488,-105.06,-16.199,-32.852,-12.16,-25.392,-61.261,-20.499,-18.26,-9.418
58.206,-94.793,53.168,-68.372,57.484,-101.75,70.488,-105.06,-16.199,-32.852,-12.16,-25.392,-61.261,-20.499,-18.26,-9.418
58.39,-94.834,53.231,-68.307,57.571,-101.77,70.583,-105.05,-16.16,-32.937,-12.054,-25.486,-61.253,-20.614,-18.2,-9.4902
58.39,-94.834,53.231,-68.307,57.571,-101.77,70.583,-105.05,-16.16,-32.937,-12.054,-25.486,-61.253,-20.614,-18.2,-9.4902
58.572,-94.87,53.292,-68.237,57.655,-101.79,70.673,-105.03,-16.121,-33.02,-11.948,-25.581,-61.245,-20.729,-18.139,-9.5624
58.572,-94.87,53.292,-68.237,57.655,-101.79,70.673,-105.03,-16.121,-33.02,-11.948,-25.581,-61.245,-20.729,-18.139,-9.5624
58.572,-94.87,53.292,-68.237,57.655,-101.79,70.673,-105.03,-16.121,-33.02,-11.948,-25.581,-61.245,-20.729,-18.139,-9.5624
58.572,-94.87,53.292,-68.237,57.655,-101.79,70.673,-105.03,-16.121,-33.02,-11.948,-25.581,-61.245,-20.729,-18.139,-9.5624
58.929,-94.928,53.405,-68.084,57.81,-101.8,70.844,-104.98,-16.043,-33.185,-11.734,-25.769,-61.228,-20.958,-18.018,-9.707
58.929,-94.928,53.405,-68.084,57.81,-101.8,70.844,-104.98,-16.043,-33.185,-11.734,-25.769,-61.228,-20.958,-18.018,-9.707
58.929,-94.928,53.405,-68.084,57.81,-101.8,70.844,-104.98,-16.043,-33.185,-11.734,-25.769,-61.228,-20.958,-18.018,-9.707
59.276,-94.968,53.507,-67.915,57.951,-101.8,70.999,-104.91,-15.968,-33.348,-11.519,-25.956,-61.209,-21.186,-17.897,-9.8518
59.276,-94.968,53.507,-67.915,57.951,-101.8,70.999,-104.91,-15.968,-33.348,-11.519,-25.956,-61.209,-21.186,-17.897,-9.8518
59.447,-94.981,53.555,-67.823,58.015,-101.78,71.072,-104.87,-15.931,-33.429,-11.411,-26.049,-61.2,-21.3,-17.837,-9.9243
59.447,-94.981,53.555,-67.823,58.015,-101.78,71.072,-104.87,-15.931,-33.429,-11.411,-26.049,-61.2,-21.3,-17.837,-9.9243
59.447,-94.981,53.555,-67.823,58.015,-101.78,71.072,-104.87,-15.931,-33.429,-11.411,-26.049,-61.2,-21.3,-17.837,-9.9243
59.615,-94.989,53.599,-67.727,58.076,-101.76,71.14,-104.82,-15.894,-33.508,-11.303,-26.142,-61.19,-21.414,-17.776,-9.9968
59.615,-94.989,53.599,-67.727,58.076,-101.76,71.14,-104.82,-15.894,-33.508,-11.303,-26.142,-61.19,-21.414,-17.776,-9.9968
59.615,-94.989,53.599,-67.727,58.076,-101.76,71.14,-104.82,-15.894,-33.508,-11.303,-26.142,-61.19,-21.414,-17.776,-9.9968
59.944,-94.992,53.68,-67.521,58.185,-101.71,71.266,-104.7,-15.822,-33.666,-11.086,-26.327,-61.169,-21.64,-17.655,-10.142
59.944,-94.992,53.68,-67.521,58.185,-101.71,71.266,-104.7,-15.822,-33.666,-11.086,-26.327,-61.169,-21.64,-17.655,-10.142
59.944,-94.992,53.68,-67.521,58.185,-101.71,71.266,-104.7,-15.822,-33.666,-11.086,-26.327,-61.169,-21.64,-17.655,-10.142
60.104,-94.985,53.716,-67.411,58.234,-101.67,71.323,-104.63,-15.787,-33.743,-10.977,-26.419,-61.158,-21.753,-17.594,-10.214
60.104,-94.985,53.716,-67.411,58.234,-101.67,71.323,-104.63,-15.787,-33.743,-10.977,-26.419,-61.158,-21.753,-17.594,-10.214
60.263,-94.974,53.749,-67.297,58.278,-101.63,71.376,-104.56,-15.752,-33.821,-10.868,-26.51,-61.146,-21.866,-17.534,-10.287
60.418,-94.958,53.779,-67.178,58.319,-101.58,71.425,-104.48,-15.718,-33.897,-10.758,-26.601,-61.135,-21.978,-17.473,-10.36
60.418,-94.958,53.779,-67.178,58.319,-101.58,71.425,-104.48,-15.718,-33.897,-10.758,-26.601,-61.135,-21.978,-17.473,-10.36
60.571,-94.937,53.807,-67.054,58.355,-101.53,71.471,-104.39,-15.684,-33.972,-10.648,-26.692,-61.123,-22.091,-17.412,-10.432
60.571,-94.937,53.807,-67.054,58.355,-101.53,71.471,-104.39,-15.684,-33.972,-10.648,-26.692,-61.123,-22.091,-17.412,-10.432
60.722,-94.911,53.832,-66.925,58.388,-101.46,71.512,-104.3,-15.651,-34.047,-10.538,-26.783,-61.11,-22.203,-17.352,-10.505
60.722,-94.911,53.832,-66.925,58.388,-101.46,71.512,-104.3,-15.651,-34.047,-10.538,-26.783,-61.11,-22.203,-17.352,-10.505
60.87,-94.88,53.854,-66.792,58.416,-101.4,71.55,-104.2,-15.618,-34.122,-10.427,-26.873,-61.098,-22.314,-17.291,-10.578
60.87,-94.88,53.854,-66.792,58.416,-101.4,71.55,-104.2,-15.618,-34.122,-10.427,-26.873,-61.098,-22.314,-17.291,-10.578
61.016,-94.843,53.873,-66.654,58.44,-101.32,71.583,-104.09,-15.586,-34.195,-10.317,-26.963,-61.085,-22.426,-17.23,-10.651
61.016,-94.843,53.873,-66.654,58.44,-101.32,71.583,-104.09,-15.586,-34.195,-10.317,-26.963,-61.085,-22.426,-17.23,-10.651
61.159,-94.802,53.889,-66.511,58.46,-101.24,71.612,-103.98,-15.554,-34.268,-10.206,-27.052,-61.071,-22.537,-17.169,-10.723
61.159,-94.802,53.889,-66.511,58.46,-101.24,71.612,-103.98,-15.554,-34.268,-10.206,-27.052,-61.071,-22.537,-17.169,-10.723
61.299,-94.755,53.902,-66.363,58.476,-101.15,71.638,-103.86,-15.522,-34.34,-10.094,-27.141,-61.057,-22.648,-17.108,-10.796
61.299,-94.755,53.902,-66.363,58.476,-101.15,71.638,-103.86,-15.522,-34.34,-10.094,-27.141,-61.057,-22.648,-17.108,-10.796
61.436,-94.703,53.912,-66.21,58.487,-101.06,71.659,-103.74,-15.492,-34.411,-9.9827,-27.23,-61.043,-22.758,-17.047,-10.869
61.436,-94.703,53.912,-66.21,58.487,-101.06,71.659,-103.74,-15.492,-34.411,-9.9827,-27.23,-61.043,-22.758,-17.047,-10.869
61.571,-94.646,53.919,-66.053,58.495,-100.96,71.676,-103.61,-15.461,-34.482,-9.8709,-27.318,-61.029,-22.869,-16.986,-10.942
61.571,-94.646,53.919,-66.053,58.495,-100.96,71.676,-103.61,-15.461,-34.482,-9.8709,-27.318,-61.029,-22.869,-16.986,-10.942
61.571,-94.646,53.919,-66.053,58.495,-100.96,71.676,-103.61,-15.461,-34.482,-9.8709,-27.318,-61.029,-22.869,-16.986,-10.942
61.703,-94.584,53.923,-65.89,58.497,-100.85,71.689,-103.47,-15.432,-34.551,-9.7588,-27.406,-61.014,-22.979,-16.925,-11.015
61.832,-94.516,53.924,-65.723,58.496,-100.74,71.698,-103.33,-15.402,-34.62,-9.6464,-27.493,-60.999,-23.089,-16.864,-11.088
61.959,-94.443,53.922,-65.55,58.49,-100.62,71.703,-103.18,-15.374,-34.688,-9.5337,-27.58,-60.984,-23.198,-16.803,-11.161
61.959,-94.443,53.922,-65.55,58.49,-100.62,71.703,-103.18,-15.374,-34.688,-9.5337,-27.58,-60.984,-23.198,-16.803,-11.161
62.082,-94.364,53.917,-65.373,58.48,-100.49,71.703,-103.02,-15.345,-34.756,-9.4209,-27.666,-60.968,-23.308,-16.741,-11.234
62.082,-94.364,53.917,-65.373,58.48,-100.49,71.703,-103.02,-15.345,-34.756,-9.4209,-27.666,-60.968,-23.308,-16.741,-11.234
62.082,-94.364,53.917,-65.373,58.48,-100.49,71.703,-103.02,-15.345,-34.756,-9.4209,-27.666,-60.968,-23.308,-16.741,-11.234
62.203,-94.28,53.909,-65.19,58.465,-100.36,71.699,-102.85,-15.318,-34.822,-9.3077,-27.753,-60.951,-23.417,-16.68,-11.307
62.203,-94.28,53.909,-65.19,58.465,-100.36,71.699,-102.85,-15.318,-34.822,-9.3077,-27.753,-60.951,-23.417,-16.68,-11.307
62.321,-94.19,53.898,-65.002,58.446,-100.22,71.691,-102.68,-15.291,-34.888,-9.1943,-27.838,-60.935,-23.525,-16.619,-11.38
62.321,-94.19,53.898,-65.002,58.446,-100.22,71.691,-102.68,-15.291,-34.888,-9.1943,-27.838,-60.935,-23.525,-16.619,-11.38
62.321,-94.19,53.898,-65.002,58.446,-100.22,71.691,-102.68,-15.291,-34.888,-9.1943,-27.838,-60.935,-23.525,-16.619,-11.38
62.436,-94.095,53.884,-64.809,58.422,-100.07,71.679,-102.51,-15.264,-34.953,-9.0807,-27.923,-60.918,-23.634,-16.557,-11.453
62.436,-94.095,53.884,-64.809,58.422,-100.07,71.679,-102.51,-15.264,-34.953,-9.0807,-27.923,-60.918,-23.634,-16.557,-11.453
62.436,-94.095,53.884,-64.809,58.422,-100.07,71.679,-102.51,-15.264,-34.953,-9.0807,-27.923,-60.918,-23.634,-16.557,-11.453
62.657,-93.888,53.846,-64.408,58.362,-99.751,71.641,-102.13,-15.213,-35.08,-8.8528,-28.092,-60.883,-23.85,-16.434,-11.599
62.657,-93.888,53.846,-64.408,58.362,-99.751,71.641,-102.13,-15.213,-35.08,-8.8528,-28.092,-60.883,-23.85,-16.434,-11.599
62.657,-93.888,53.846,-64.408,58.362,-99.751,71.641,-102.13,-15.213,-35.08,-8.8528,-28.092,-60.883,-23.85,-16.434,-11.599
62.764,-93.776,53.822,-64.199,58.324,-99.583,71.616,-101.93,-15.188,-35.143,-8.7384,-28.175,-60.865,-23.958,-16.373,-11.672
62.764,-93.776,53.822,-64.199,58.324,-99.583,71.616,-101.93,-15.188,-35.143,-8.7384,-28.175,-60.865,-23.958,-16.373,-11.672
62.867,-93.658,53.795,-63.986,58.283,-99.407,71.586,-101.73,-15.164,-35.204,-8.6239,-28.259,-60.846,-24.065,-16.311,-11.745
62.867,-93.658,53.795,-63.986,58.283,-99.407,71.586,-101.73,-15.164,-35.204,-8.6239,-28.259,-60.846,-24.065,-16.311,-11.745
62.967,-93.535,53.765,-63.766,58.236,-99.223,71.552,-101.51,-15.14,-35.265,-8.5091,-28.341,-60.827,-24.172,-16.25,-11.818
63.064,-93.406,53.732,-63.542,58.185,-99.033,71.513,-101.3,-15.117,-35.325,-8.3941,-28.423,-60.808,-24.279,-16.188,-11.891
63.158,-93.271,53.695,-63.312,58.129,-98.836,71.47,-101.07,-15.095,-35.384,-8.2788,-28.505,-60.788,-24.385,-16.126,-11.964
63.158,-93.271,53.695,-63.312,58.129,-98.836,71.47,-101.07,-15.095,-35.384,-8.2788,-28.505,-60.788,-24.385,-16.126,-11.964
63.158,-93.271,53.695,-63.312,58.129,-98.836,71.47,-101.07,-15.095,-35.384,-8.2788,-28.505,-60.788,-24.385,-16.126,-11.964
63.249,-93.13,53.655,-63.077,58.069,-98.631,71.423,-100.84,-15.073,-35.442,-8.1634,-28.586,-60.768,-24.491,-16.064,-12.037
63.249,-93.13,53.655,-63.077,58.069,-98.631,71.423,-100.84,-15.073,-35.442,-8.1634,-28.586,-60.768,-24.491,-16.064,-12.037
63.249,-93.13,53.655,-63.077,58.069,-98.631,71.423,-100.84,-15.073,-35.442,-8.1634,-28.586,-60.768,-24.491,-16.064,-12.037
63.337,-92.984,53.612,-62.837,58.003,-98.419,71.371,-100.6,-15.052,-35.5,-8.0478,-28.666,-60.748,-24.597,-16.002,-12.11
63.421,-92.831,53.566,-62.591,57.933,-98.199,71.314,-100.35,-15.031,-35.556,-7.9319,-28.746,-60.727,-24.703,-15.94,-12.184
63.421,-92.831,53.566,-62.591,57.933,-98.199,71.314,-100.35,-15.031,-35.556,-7.9319,-28.746,-60.727,-24.703,-15.94,-12.184
63.503,-92.673,53.516,-62.34,57.859,-97.973,71.253,-100.09,-15.011,-35.612,-7.8159,-28.825,-60.706,-24.808,-15.878,-12.257
63.503,-92.673,53.516,-62.34,57.859,-97.973,71.253,-100.09,-15.011,-35.612,-7.8159,-28.825,-60.706,-24.808,-15.878,-12.257
63.581,-92.508,53.463,-62.083,57.779,-97.738,71.187,-99.831,-14.992,-35.666,-7.6996,-28.904,-60.685,-24.913,-15.815,-12.33
63.581,-92.508,53.463,-62.083,57.779,-97.738,71.187,-99.831,-14.992,-35.666,-7.6996,-28.904,-60.685,-24.913,-15.815,-12.33
63.581,-92.508,53.463,-62.083,57.779,-97.738,71.187,-99.831,-14.992,-35.666,-7.6996,-28.904,-60.685,-24.913,-15.815,-12.33
63.656,-92.338,53.407,-61.821,57.694,-97.497,71.117,-99.561,-14.973,-35.72,-7.5831,-28.982,-60.663,-25.018,-15.753,-12.403
63.656,-92.338,53.407,-61.821,57.694,-97.497,71.117,-99.561,-14.973,-35.72,-7.5831,-28.982,-60.663,-25.018,-15.753,-12.403
63.727,-92.162,53.347,-61.553,57.605,-97.247,71.042,-99.284,-14.955,-35.773,-7.4665,-29.06,-60.64,-25.122,-15.691,-12.476
63.796,-91.979,53.284,-61.28,57.511,-96.991,70.962,-99,-14.937,-35.825,-7.3497,-29.137,-60.617,-25.226,-15.628,-12.55
63.861,-91.791,53.218,-61.001,57.412,-96.726,70.878,-98.709,-14.92,-35.876,-7.2326,-29.213,-60.594,-25.33,-15.566,-12.623
63.861,-91.791,53.218,-61.001,57.412,-96.726,70.878,-98.709,-14.92,-35.876,-7.2326,-29.213,-60.594,-25.33,-15.566,-12.623
63.923,-91.596,53.148,-60.716,57.308,-96.454,70.789,-98.41,-14.904,-35.926,-7.1154,-29.289,-60.571,-25.433,-15.503,-12.696
63.923,-91.596,53.148,-60.716,57.308,-96.454,70.789,-98.41,-14.904,-35.926,-7.1154,-29.289,-60.571,-25.433,-15.503,-12.696
63.981,-91.396,53.075,-60.426,57.199,-96.175,70.695,-98.103,-14.888,-35.975,-6.9981,-29.364,-60.547,-25.536,-15.44,-12.769
63.981,-91.396,53.075,-60.426,57.199,-96.175,70.695,-98.103,-14.888,-35.975,-6.9981,-29.364,-60.547,-25.536,-15.44,-12.769
63.981,-91.396,53.075,-60.426,57.199,-96.175,70.695,-98.103,-14.888,-35.975,-6.9981,-29.364,-60.547,-25.536,-15.44,-12.769
64.036,-91.189,52.999,-60.131,57.084,-95.887,70.597,-97.789,-14.873,-36.024,-6.8805,-29.439,-60.522,-25.639,-15.377,-12.843
64.036,-91.189,52.999,-60.131,57.084,-95.887,70.597,-97.789,-14.873,-36.024,-6.8805,-29.439,-60.522,-25.639,-15.377,-12.843
64.088,-90.976,52.918,-59.829,56.965,-95.592,70.494,-97.468,-14.859,-36.071,-6.7628,-29.513,-60.498,-25.742,-15.314,-12.916
64.088,-90.976,52.918,-59.829,56.965,-95.592,70.494,-97.468,-14.859,-36.071,-6.7628,-29.513,-60.498,-25.742,-15.314,-12.916
64.136,-90.756,52.835,-59.522,56.841,-95.29,70.386,-97.139,-14.845,-36.117,-6.6449,-29.586,-60.472,-25.844,-15.251,-12.989
64.136,-90.756,52.835,-59.522,56.841,-95.29,70.386,-97.139,-14.845,-36.117,-6.6449,-29.586,-60.472,-25.844,-15.251,-12.989
64.181,-90.531,52.748,-59.209,56.712,-94.979,70.273,-96.802,-14.832,-36.163,-6.5269,-29.659,-60.447,-25.946,-15.188,-13.063
64.181,-90.531,52.748,-59.209,56.712,-94.979,70.273,-96.802,-14.832,-36.163,-6.5269,-29.659,-60.447,-25.946,-15.188,-13.063
64.222,-90.299,52.657,-58.891,56.578,-94.661,70.155,-96.458,-14.82,-36.207,-6.4087,-29.731,-60.421,-26.048,-15.125,-13.136
64.222,-90.299,52.657,-58.891,56.578,-94.661,70.155,-96.458,-14.82,-36.207,-6.4087,-29.731,-60.421,-26.048,-15.125,-13.136
64.222,-90.299,52.657,-58.891,56.578,-94.661,70.155,-96.458,-14.82,-36.207,-6.4087,-29.731,-60.421,-26.048,-15.125,-13.136
64.26,-90.061,52.564,-58.567,56.438,-94.334,70.033,-96.106,-14.808,-36.251,-6.2903,-29.802,-60.394,-26.149,-15.061,-13.209
64.26,-90.061,52.564,-58.567,56.438,-94.334,70.033,-96.106,-14.808,-36.251,-6.2903,-29.802,-60.394,-26.149,-15.061,-13.209
64.294,-89.817,52.466,-58.237,56.294,-94,69.906,-95.747,-14.797,-36.293,-6.1718,-29.873,-60.367,-26.25,-14.998,-13.283
64.294,-89.817,52.466,-58.237,56.294,-94,69.906,-95.747,-14.797,-36.293,-6.1718,-29.873,-60.367,-26.25,-14.998,-13.283
64.352,-89.309,52.26,-57.559,55.989,-93.308,69.636,-95.005,-14.777,-36.376,-5.9344,-30.012,-60.312,-26.451,-14.87,-13.429
64.352,-89.309,52.26,-57.559,55.989,-93.308,69.636,-95.005,-14.777,-36.376,-5.9344,-30.012,-60.312,-26.451,-14.87,-13.429
64.352,-89.309,52.26,-57.559,55.989,-93.308,69.636,-95.005,-14.777,-36.376,-5.9344,-30.012,-60.312,-26.451,-14.87,-13.429
64.375,-89.045,52.152,-57.212,55.829,-92.95,69.494,-94.622,-14.768,-36.415,-5.8155,-30.081,-60.284,-26.551,-14.807,-13.503
64.375,-89.045,52.152,-57.212,55.829,-92.95,69.494,-94.622,-14.768,-36.415,-5.8155,-30.081,-60.284,-26.551,-14.807,-13.503
64.375,-89.045,52.152,-57.212,55.829,-92.95,69.494,-94.622,-14.768,-36.415,-5.8155,-30.081,-60.284,-26.551,-14.807,-13.503
64.395,-88.775,52.041,-56.858,55.664,-92.583,69.347,-94.231,-14.76,-36.454,-5.6964,-30.149,-60.256,-26.651,-14.743,-13.576
64.412,-88.499,51.925,-56.499,55.493,-92.209,69.195,-93.833,-14.753,-36.492,-5.5773,-30.216,-60.227,-26.751,-14.679,-13.65
64.412,-88.499,51.925,-56.499,55.493,-92.209,69.195,-93.833,-14.753,-36.492,-5.5773,-30.216,-60.227,-26.751,-14.679,-13.65
64.424,-88.216,51.806,-56.134,55.317,-91.827,69.038,-93.427,-14.746,-36.528,-5.458,-30.283,-60.197,-26.85,-14.614,-13.723
64.424,-88.216,51.806,-56.134,55.317,-91.827,69.038,-93.427,-14.746,-36.528,-5.458,-30.283,-60.197,-26.85,-14.614,-13.723
64.433,-87.927,51.684,-55.763,55.136,-91.436,68.876,-93.013,-14.74,-36.564,-5.3385,-30.349,-60.168,-26.949,-14.55,-13.797
64.433,-87.927,51.684,-55.763,55.136,-91.436,68.876,-93.013,-14.74,-36.564,-5.3385,-30.349,-60.168,-26.949,-14.55,-13.797
64.438,-87.631,51.558,-55.387,54.949,-91.038,68.71,-92.591,-14.734,-36.599,-5.219,-30.414,-60.137,-27.048,-14.486,-13.87
64.438,-87.631,51.558,-55.387,54.949,-91.038,68.71,-92.591,-14.734,-36.599,-5.219,-30.414,-60.137,-27.048,-14.486,-13.87
64.44,-87.328,51.428,-55.004,54.757,-90.631,68.538,-92.161,-14.729,-36.633,-5.0993,-30.478,-60.107,-27.146,-14.421,-13.944
64.44,-87.328,51.428,-55.004,54.757,-90.631,68.538,-92.161,-14.729,-36.633,-5.0993,-30.478,-60.107,-27.146,-14.421,-13.944
64.438,-87.019,51.295,-54.615,54.56,-90.216,68.361,-91.723,-14.725,-36.665,-4.9796,-30.542,-60.076,-27.244,-14.357,-14.018
64.432,-86.704,51.158,-54.22,54.358,-89.793,68.178,-91.277,-14.722,-36.697,-4.8597,-30.605,-60.044,-27.342,-14.292,-14.091
64.432,-86.704,51.158,-54.22,54.358,-89.793,68.178,-91.277,-14.722,-36.697,-4.8597,-30.605,-60.044,-27.342,-14.292,-14.091
64.422,-86.382,51.017,-53.82,54.15,-89.361,67.991,-90.823,-14.719,-36.728,-4.7398,-30.667,-60.012,-27.439,-14.227,-14.165
64.422,-86.382,51.017,-53.82,54.15,-89.361,67.991,-90.823,-14.719,-36.728,-4.7398,-30.667,-60.012,-27.439,-14.227,-14.165
64.422,-86.382,51.017,-53.82,54.15,-89.361,67.991,-90.823,-14.719,-36.728,-4.7398,-30.667,-60.012,-27.439,-14.227,-14.165
64.408,-86.053,50.872,-53.413,53.936,-88.921,67.799,-90.361,-14.717,-36.758,-4.6197,-30.729,-59.98,-27.536,-14.162,-14.239
64.408,-86.053,50.872,-53.413,53.936,-88.921,67.799,-90.361,-14.717,-36.758,-4.6197,-30.729,-59.98,-27.536,-14.162,-14.239
64.391,-85.718,50.724,-53.001,53.717,-88.473,67.601,-89.891,-14.716,-36.786,-4.4996,-30.79,-59.947,-27.633,-14.097,-14.312
64.391,-85.718,50.724,-53.001,53.717,-88.473,67.601,-89.891,-14.716,-36.786,-4.4996,-30.79,-59.947,-27.633,-14.097,-14.312
64.37,-85.376,50.572,-52.582,53.493,-88.017,67.399,-89.413,-14.716,-36.814,-4.3793,-30.85,-59.914,-27.73,-14.031,-14.386
64.37,-85.376,50.572,-52.582,53.493,-88.017,67.399,-89.413,-14.716,-36.814,-4.3793,-30.85,-59.914,-27.73,-14.031,-14.386
64.345,-85.027,50.417,-52.157,53.263,-87.552,67.191,-88.927,-14.716,-36.841,-4.259,-30.909,-59.88,-27.826,-13.966,-14.46
64.345,-85.027,50.417,-52.157,53.263,-87.552,67.191,-88.927,-14.716,-36.841,-4.259,-30.909,-59.88,-27.826,-13.966,-14.46
64.316,-84.672,50.258,-51.726,53.028,-87.079,66.978,-88.433,-14.717,-36.866,-4.1386,-30.968,-59.846,-27.922,-13.9,-14.534
64.316,-84.672,50.258,-51.726,53.028,-87.079,66.978,-88.433,-14.717,-36.866,-4.1386,-30.968,-59.846,-27.922,-13.9,-14.534
64.283,-84.31,50.094,-51.29,52.787,-86.597,66.76,-87.931,-14.718,-36.891,-4.0182,-31.025,-59.811,-28.017,-13.834,-14.607
64.283,-84.31,50.094,-51.29,52.787,-86.597,66.76,-87.931,-14.718,-36.891,-4.0182,-31.025,-59.811,-28.017,-13.834,-14.607
64.246,-83.941,49.928,-50.847,52.541,-86.107,66.537,-87.42,-14.721,-36.915,-3.8977,-31.082,-59.776,-28.113,-13.769,-14.681
64.246,-83.941,49.928,-50.847,52.541,-86.107,66.537,-87.42,-14.721,-36.915,-3.8977,-31.082,-59.776,-28.113,-13.769,-14.681
64.205,-83.566,49.757,-50.398,52.289,-85.608,66.308,-86.902,-14.724,-36.937,-3.7771,-31.139,-59.741,-28.208,-13.702,-14.755
64.205,-83.566,49.757,-50.398,52.289,-85.608,66.308,-86.902,-14.724,-36.937,-3.7771,-31.139,-59.741,-28.208,-13.702,-14.755
64.16,-83.184,49.583,-49.943,52.031,-85.101,66.075,-86.375,-14.728,-36.959,-3.6564,-31.194,-59.705,-28.303,-13.636,-14.829
64.16,-83.184,49.583,-49.943,52.031,-85.101,66.075,-86.375,-14.728,-36.959,-3.6564,-31.194,-59.705,-28.303,-13.636,-14.829
64.112,-82.795,49.405,-49.482,51.768,-84.586,65.836,-85.84,-14.733,-36.979,-3.5357,-31.249,-59.668,-28.397,-13.57,-14.903
64.112,-82.795,49.405,-49.482,51.768,-84.586,65.836,-85.84,-14.733,-36.979,-3.5357,-31.249,-59.668,-28.397,-13.57,-14.903
64.059,-82.399,49.223,-49.015,51.5,-84.062,65.592,-85.297,-14.738,-36.999,-3.415,-31.302,-59.632,-28.492,-13.503,-14.977
64.059,-82.399,49.223,-49.015,51.5,-84.062,65.592,-85.297,-14.738,-36.999,-3.415,-31.302,-59.632,-28.492,-13.503,-14.977
64.059,-82.399,49.223,-49.015,51.5,-84.062,65.592,-85.297,-14.738,-36.999,-3.415,-31.302,-59.632,-28.492,-13.503,-14.977
64.002,-81.997,49.037,-48.541,51.225,-83.529,65.342,-84.745,-14.744,-37.018,-3.2942,-31.356,-59.594,-28.585,-13.437,-15.051
63.941,-81.588,48.848,-48.062,50.945,-82.988,65.087,-84.186,-14.751,-37.035,-3.1733,-31.408,-59.557,-28.679,-13.37,-15.125
63.941,-81.588,48.848,-48.062,50.945,-82.988,65.087,-84.186,-14.751,-37.035,-3.1733,-31.408,-59.557,-28.679,-13.37,-15.125
63.877,-81.172,48.654,-47.576,50.66,-82.438,64.827,-83.618,-14.759,-37.051,-3.0525,-31.459,-59.519,-28.773,-13.303,-15.199
63.808,-80.749,48.457,-47.084,50.369,-81.88,64.562,-83.042,-14.767,-37.067,-2.9316,-31.51,-59.48,-28.866,-13.236,-15.274
63.808,-80.749,48.457,-47.084,50.369,-81.88,64.562,-83.042,-14.767,-37.067,-2.9316,-31.51,-59.48,-28.866,-13.236,-15.274
63.808,-80.749,48.457,-47.084,50.369,-81.88,64.562,-83.042,-14.767,-37.067,-2.9316,-31.51,-59.48,-28.866,-13.236,-15.274
63.735,-80.32,48.256,-46.587,50.072,-81.313,64.291,-82.457,-14.776,-37.081,-2.8106,-31.56,-59.441,-28.959,-13.169,-15.348
63.735,-80.32,48.256,-46.587,50.072,-81.313,64.291,-82.457,-14.776,-37.081,-2.8106,-31.56,-59.441,-28.959,-13.169,-15.348
63.658,-79.883,48.051,-46.083,49.769,-80.738,64.015,-81.864,-14.786,-37.094,-2.6897,-31.609,-59.402,-29.051,-13.101,-15.422
63.658,-79.883,48.051,-46.083,49.769,-80.738,64.015,-81.864,-14.786,-37.094,-2.6897,-31.609,-59.402,-29.051,-13.101,-15.422
63.577,-79.44,47.843,-45.572,49.461,-80.154,63.734,-81.263,-14.797,-37.107,-2.5687,-31.657,-59.362,-29.143,-13.034,-15.496
63.492,-78.99,47.63,-45.056,49.147,-79.561,63.447,-80.654,-14.808,-37.118,-2.4478,-31.705,-59.321,-29.236,-12.966,-15.571
63.492,-78.99,47.63,-45.056,49.147,-79.561,63.447,-80.654,-14.808,-37.118,-2.4478,-31.705,-59.321,-29.236,-12.966,-15.571
63.402,-78.533,47.414,-44.534,48.828,-78.96,63.155,-80.036,-14.82,-37.128,-2.3268,-31.751,-59.281,-29.327,-12.898,-15.645
63.402,-78.533,47.414,-44.534,48.828,-78.96,63.155,-80.036,-14.82,-37.128,-2.3268,-31.751,-59.281,-29.327,-12.898,-15.645
63.402,-78.533,47.414,-44.534,48.828,-78.96,63.155,-80.036,-14.82,-37.128,-2.3268,-31.751,-59.281,-29.327,-12.898,-15.645
63.309,-78.07,47.193,-44.005,48.502,-78.35,62.857,-79.41,-14.833,-37.137,-2.2058,-31.797,-59.239,-29.419,-12.83,-15.72
63.309,-78.07,47.193,-44.005,48.502,-78.35,62.857,-79.41,-14.833,-37.137,-2.2058,-31.797,-59.239,-29.419,-12.83,-15.72
63.211,-77.599,46.969,-43.47,48.171,-77.731,62.555,-78.776,-14.847,-37.145,-2.0848,-31.842,-59.198,-29.51,-12.762,-15.794
63.109,-77.122,46.741,-42.929,47.834,-77.104,62.246,-78.133,-14.861,-37.153,-1.9638,-31.886,-59.155,-29.601,-12.694,-15.869
63.109,-77.122,46.741,-42.929,47.834,-77.104,62.246,-78.133,-14.861,-37.153,-1.9638,-31.886,-59.155,-29.601,-12.694,-15.869
63.109,-77.122,46.741,-42.929,47.834,-77.104,62.246,-78.133,-14.861,-37.153,-1.9638,-31.886,-59.155,-29.601,-12.694,-15.869
63.003,-76.638,46.509,-42.382,47.492,-76.468,61.933,-77.482,-14.876,-37.159,-1.8429,-31.929,-59.113,-29.692,-12.625,-15.944
63.003,-76.638,46.509,-42.382,47.492,-76.468,61.933,-77.482,-14.876,-37.159,-1.8429,-31.929,-59.113,-29.692,-12.625,-15.944
62.893,-76.147,46.273,-41.829,47.143,-75.823,61.614,-76.823,-14.892,-37.164,-1.7219,-31.972,-59.07,-29.783,-12.556,-16.018
62.893,-76.147,46.273,-41.829,47.143,-75.823,61.614,-76.823,-14.892,-37.164,-1.7219,-31.972,-59.07,-29.783,-12.556,-16.018
62.778,-75.649,46.034,-41.269,46.789,-75.169,61.289,-76.155,-14.909,-37.168,-1.601,-32.014,-59.026,-29.873,-12.487,-16.093
62.778,-75.649,46.034,-41.269,46.789,-75.169,61.289,-76.155,-14.909,-37.168,-1.601,-32.014,-59.026,-29.873,-12.487,-16.093
62.659,-75.144,45.79,-40.704,46.429,-74.507,60.959,-75.479,-14.926,-37.17,-1.4801,-32.054,-58.982,-29.963,-12.418,-16.168
62.659,-75.144,45.79,-40.704,46.429,-74.507,60.959,-75.479,-14.926,-37.17,-1.4801,-32.054,-58.982,-29.963,-12.418,-16.168
62.536,-74.632,45.543,-40.132,46.063,-73.836,60.624,-74.794,-14.945,-37.172,-1.3592,-32.094,-58.938,-30.053,-12.349,-16.243
62.536,-74.632,45.543,-40.132,46.063,-73.836,60.624,-74.794,-14.945,-37.172,-1.3592,-32.094,-58.938,-30.053,-12.349,-16.243
62.409,-74.114,45.291,-39.554,45.692,-73.157,60.283,-74.101,-14.964,-37.173,-1.2384,-32.133,-58.893,-30.142,-12.28,-16.318
62.409,-74.114,45.291,-39.554,45.692,-73.157,60.283,-74.101,-14.964,-37.173,-1.2384,-32.133,-58.893,-30.142,-12.28,-16.318
62.277,-73.589,45.036,-38.97,45.314,-72.468,59.937,-73.4,-14.984,-37.173,-1.1176,-32.172,-58.848,-30.232,-12.21,-16.393
62.277,-73.589,45.036,-38.97,45.314,-72.468,59.937,-73.4,-14.984,-37.173,-1.1176,-32.172,-58.848,-30.232,-12.21,-16.393
62.277,-73.589,45.036,-38.97,45.314,-72.468,59.937,-73.4,-14.984,-37.173,-1.1176,-32.172,-58.848,-30.232,-12.21,-16.393
62.142,-73.056,44.777,-38.379,44.931,-71.771,59.585,-72.69,-15.004,-37.172,-0.99683,-32.209,-58.802,-30.321,-12.14,-16.468
62.142,-73.056,44.777,-38.379,44.931,-71.771,59.585,-72.69,-15.004,-37.172,-0.99683,-32.209,-58.802,-30.321,-12.14,-16.468
62.002,-72.517,44.513,-37.783,44.542,-71.065,59.228,-71.972,-15.025,-37.17,-0.87614,-32.246,-58.756,-30.409,-12.07,-16.543
61.857,-71.972,44.246,-37.18,44.147,-70.351,58.866,-71.246,-15.048,-37.166,-0.7555,-32.281,-58.709,-30.498,-12,-16.619
61.708,-71.419,43.975,-36.571,43.746,-69.627,58.498,-70.511,-15.07,-37.162,-0.63492,-32.316,-58.662,-30.587,-11.93,-16.694
61.708,-71.419,43.975,-36.571,43.746,-69.627,58.498,-70.511,-15.07,-37.162,-0.63492,-32.316,-58.662,-30.587,-11.93,-16.694
61.555,-70.859,43.7,-35.956,43.34,-68.895,58.125,-69.768,-15.094,-37.157,-0.5144,-32.35,-58.614,-30.675,-11.859,-16.769
61.555,-70.859,43.7,-35.956,43.34,-68.895,58.125,-69.768,-15.094,-37.157,-0.5144,-32.35,-58.614,-30.675,-11.859,-16.769
61.555,-70.859,43.7,-35.956,43.34,-68.895,58.125,-69.768,-15.094,-37.157,-0.5144,-32.35,-58.614,-30.675,-11.859,-16.769
61.398,-70.293,43.421,-35.335,42.928,-68.154,57.746,-69.016,-15.118,-37.15,-0.39396,-32.383,-58.566,-30.763,-11.789,-16.845
61.398,-70.293,43.421,-35.335,42.928,-68.154,57.746,-69.016,-15.118,-37.15,-0.39396,-32.383,-58.566,-30.763,-11.789,-16.845
61.236,-69.72,43.139,-34.708,42.509,-67.405,57.361,-68.256,-15.144,-37.143,-0.27359,-32.416,-58.518,-30.85,-11.718,-16.92
61.236,-69.72,43.139,-34.708,42.509,-67.405,57.361,-68.256,-15.144,-37.143,-0.27359,-32.416,-58.518,-30.85,-11.718,-16.92
61.07,-69.14,42.852,-34.075,42.085,-66.647,56.972,-67.488,-15.17,-37.134,-0.15331,-32.447,-58.469,-30.938,-11.647,-16.996
61.07,-69.14,42.852,-34.075,42.085,-66.647,56.972,-67.488,-15.17,-37.134,-0.15331,-32.447,-58.469,-30.938,-11.647,-16.996
60.9,-68.553,42.561,-33.435,41.655,-65.88,56.576,-66.711,-15.196,-37.125,-0.033106,-32.478,-58.419,-31.025,-11.575,-17.072
60.725,-67.959,42.266,-32.79,41.22,-65.104,56.175,-65.926,-15.224,-37.114,0.087003,-32.507,-58.37,-31.112,-11.504,-17.148
60.725,-67.959,42.266,-32.79,41.22,-65.104,56.175,-65.926,-15.224,-37.114,0.087003,-32.507,-58.37,-31.112,-11.504,-17.148
60.546,-67.359,41.968,-32.138,40.778,-64.319,55.769,-65.133,-15.252,-37.103,0.20702,-32.536,-58.319,-31.199,-11.432,-17.224
60.546,-67.359,41.968,-32.138,40.778,-64.319,55.769,-65.133,-15.252,-37.103,0.20702,-32.536,-58.319,-31.199,-11.432,-17.224
60.546,-67.359,41.968,-32.138,40.778,-64.319,55.769,-65.133,-15.252,-37.103,0.20702,-32.536,-58.319,-31.199,-11.432,-17.224
60.362,-66.752,41.665,-31.481,40.33,-63.526,55.358,-64.331,-15.281,-37.09,0.32693,-32.564,-58.269,-31.286,-11.36,-17.3
60.362,-66.752,41.665,-31.481,40.33,-63.526,55.358,-64.331,-15.281,-37.09,0.32693,-32.564,-58.269,-31.286,-11.36,-17.3
60.174,-66.138,41.359,-30.817,39.877,-62.724,54.94,-63.521,-15.311,-37.077,0.44674,-32.591,-58.217,-31.373,-11.288,-17.376
59.982,-65.517,41.049,-30.147,39.418,-61.914,54.518,-62.703,-15.341,-37.062,0.56643,-32.617,-58.166,-31.459,-11.216,-17.452
59.982,-65.517,41.049,-30.147,39.418,-61.914,54.518,-62.703,-15.341,-37.062,0.56643,-32.617,-58.166,-31.459,-11.216,-17.452
59.786,-64.889,40.734,-29.471,38.953,-61.095,54.09,-61.876,-15.373,-37.047,0.68601,-32.643,-58.114,-31.545,-11.144,-17.528
59.786,-64.889,40.734,-29.471,38.953,-61.095,54.09,-61.876,-15.373,-37.047,0.68601,-32.643,-58.114,-31.545,-11.144,-17.528
59.584,-64.255,40.416,-28.789,38.482,-60.267,53.656,-61.042,-15.405,-37.03,0.80547,-32.667,-58.061,-31.631,-11.071,-17.605
59.584,-64.255,40.416,-28.789,38.482,-60.267,53.656,-61.042,-15.405,-37.03,0.80547,-32.667,-58.061,-31.631,-11.071,-17.605
59.379,-63.614,40.094,-28.101,38.005,-59.43,53.217,-60.198,-15.438,-37.013,0.92481,-32.691,-58.008,-31.717,-10.998,-17.681
59.379,-63.614,40.094,-28.101,38.005,-59.43,53.217,-60.198,-15.438,-37.013,0.92481,-32.691,-58.008,-31.717,-10.998,-17.681
59.379,-63.614,40.094,-28.101,38.005,-59.43,53.217,-60.198,-15.438,-37.013,0.92481,-32.691,-58.008,-31.717,-10.998,-17.681
59.169,-62.966,39.768,-27.407,37.523,-58.585,52.773,-59.347,-15.471,-36.994,1.044,-32.714,-57.955,-31.803,-10.925,-17.758
59.169,-62.966,39.768,-27.407,37.523,-58.585,52.773,-59.347,-15.471,-36.994,1.044,-32.714,-57.955,-31.803,-10.925,-17.758
59.169,-62.966,39.768,-27.407,37.523,-58.585,52.773,-59.347,-15.471,-36.994,1.044,-32.714,-57.955,-31.803,-10.925,-17.758
58.955,-62.312,39.438,-26.708,37.034,-57.731,52.323,-58.487,-15.506,-36.974,1.1631,-32.736,-57.901,-31.888,-10.852,-17.835
58.955,-62.312,39.438,-26.708,37.034,-57.731,52.323,-58.487,-15.506,-36.974,1.1631,-32.736,-57.901,-31.888,-10.852,-17.835
58.513,-60.983,38.766,-25.29,36.04,-55.997,51.407,-56.743,-15.577,-36.932,1.4008,-32.777,-57.792,-32.059,-10.705,-17.988
58.513,-60.983,38.766,-25.29,36.04,-55.997,51.407,-56.743,-15.577,-36.932,1.4008,-32.777,-57.792,-32.059,-10.705,-17.988
58.513,-60.983,38.766,-25.29,36.04,-55.997,51.407,-56.743,-15.577,-36.932,1.4008,-32.777,-57.792,-32.059,-10.705,-17.988
58.286,-60.309,38.424,-24.572,35.534,-55.117,50.941,-55.859,-15.613,-36.91,1.5194,-32.796,-57.736,-32.144,-10.631,-18.065
58.286,-60.309,38.424,-24.572,35.534,-55.117,50.941,-55.859,-15.613,-36.91,1.5194,-32.796,-57.736,-32.144,-10.631,-18.065
58.286,-60.309,38.424,-24.572,35.534,-55.117,50.941,-55.859,-15.613,-36.91,1.5194,-32.796,-57.736,-32.144,-10.631,-18.065
58.054,-59.628,38.079,-23.848,35.022,-54.229,50.469,-54.966,-15.651,-36.886,1.6379,-32.814,-57.681,-32.228,-10.557,-18.142
58.054,-59.628,38.079,-23.848,35.022,-54.229,50.469,-54.966,-15.651,-36.886,1.6379,-32.814,-57.681,-32.228,-10.557,-18.142
57.576,-58.246,37.376,-22.383,33.981,-52.427,49.51,-53.157,-15.728,-36.836,1.8743,-32.849,-57.568,-32.398,-10.408,-18.297
57.576,-58.246,37.376,-22.383,33.981,-52.427,49.51,-53.157,-15.728,-36.836,1.8743,-32.849,-57.568,-32.398,-10.408,-18.297
57.331,-57.545,37.019,-21.642,33.452,-51.513,49.022,-52.239,-15.767,-36.81,1.9923,-32.864,-57.511,-32.482,-10.334,-18.375
57.331,-57.545,37.019,-21.642,33.452,-51.513,49.022,-52.239,-15.767,-36.81,1.9923,-32.864,-57.511,-32.482,-10.334,-18.375
57.331,-57.545,37.019,-21.642,33.452,-51.513,49.022,-52.239,-15.767,-36.81,1.9923,-32.864,-57.511,-32.482,-10.334,-18.375
57.082,-56.838,36.657,-20.894,32.917,-50.59,48.528,-51.314,-15.808,-36.782,2.1101,-32.879,-57.453,-32.566,-10.259,-18.452
57.082,-56.838,36.657,-20.894,32.917,-50.59,48.528,-51.314,-15.808,-36.782,2.1101,-32.879,-57.453,-32.566,-10.259,-18.452
56.828,-56.124,36.292,-20.141,32.377,-49.659,48.03,-50.381,-15.849,-36.754,2.2277,-32.893,-57.395,-32.65,-10.184,-18.53
56.828,-56.124,36.292,-20.141,32.377,-49.659,48.03,-50.381,-15.849,-36.754,2.2277,-32.893,-57.395,-32.65,-10.184,-18.53
56.569,-55.403,35.923,-19.383,31.83,-48.72,47.526,-49.44,-15.891,-36.725,2.3451,-32.907,-57.337,-32.734,-10.108,-18.608
56.569,-55.403,35.923,-19.383,31.83,-48.72,47.526,-49.44,-15.891,-36.725,2.3451,-32.907,-57.337,-32.734,-10.108,-18.608
56.306,-54.676,35.551,-18.618,31.278,-47.772,47.016,-48.491,-15.933,-36.694,2.4623,-32.919,-57.278,-32.818,-10.033,-18.686
56.306,-54.676,35.551,-18.618,31.278,-47.772,47.016,-48.491,-15.933,-36.694,2.4623,-32.919,-57.278,-32.818,-10.033,-18.686
56.039,-53.943,35.174,-17.848,30.72,-46.816,46.502,-47.533,-15.977,-36.663,2.5794,-32.93,-57.219,-32.902,-9.9573,-18.764
56.039,-53.943,35.174,-17.848,30.72,-46.816,46.502,-47.533,-15.977,-36.663,2.5794,-32.93,-57.219,-32.902,-9.9573,-18.764
55.767,-53.203,34.794,-17.071,30.156,-45.851,45.982,-46.568,-16.021,-36.631,2.6962,-32.941,-57.159,-32.985,-9.8814,-18.842
55.491,-52.457,34.409,-16.29,29.587,-44.878,45.456,-45.595,-16.066,-36.598,2.8128,-32.951,-57.099,-33.069,-9.8052,-18.92
55.491,-52.457,34.409,-16.29,29.587,-44.878,45.456,-45.595,-16.066,-36.598,2.8128,-32.951,-57.099,-33.069,-9.8052,-18.92
55.211,-51.705,34.021,-15.502,29.012,-43.897,44.926,-44.614,-16.111,-36.564,2.9293,-32.96,-57.038,-33.152,-9.7289,-18.999
55.211,-51.705,34.021,-15.502,29.012,-43.897,44.926,-44.614,-16.111,-36.564,2.9293,-32.96,-57.038,-33.152,-9.7289,-18.999
55.211,-51.705,34.021,-15.502,29.012,-43.897,44.926,-44.614,-16.111,-36.564,2.9293,-32.96,-57.038,-33.152,-9.7289,-18.999
55.211,-51.705,34.021,-15.502,29.012,-43.897,44.926,-44.614,-16.111,-36.564,2.9293,-32.96,-57.038,-33.152,-9.7289,-18.999
54.926,-50.946,33.629,-14.709,28.431,-42.907,44.39,-43.625,-16.157,-36.528,3.0454,-32.968,-56.977,-33.235,-9.6524,-19.077
54.926,-50.946,33.629,-14.709,28.431,-42.907,44.39,-43.625,-16.157,-36.528,3.0454,-32.968,-56.977,-33.235,-9.6524,-19.077
54.343,-49.409,32.834,-13.106,27.252,-40.903,43.302,-41.623,-16.252,-36.456,3.2772,-32.981,-56.853,-33.401,-9.4987,-19.235
54.343,-49.409,32.834,-13.106,27.252,-40.903,43.302,-41.623,-16.252,-36.456,3.2772,-32.981,-56.853,-33.401,-9.4987,-19.235
54.343,-49.409,32.834,-13.106,27.252,-40.903,43.302,-41.623,-16.252,-36.456,3.2772,-32.981,-56.853,-33.401,-9.4987,-19.235
54.045,-48.631,32.431,-12.296,26.654,-39.889,42.75,-40.61,-16.3,-36.418,3.3927,-32.987,-56.791,-33.484,-9.4215,-19.314
54.045,-48.631,32.431,-12.296,26.654,-39.889,42.75,-40.61,-16.3,-36.418,3.3927,-32.987,-56.791,-33.484,-9.4215,-19.314
53.742,-47.847,32.024,-11.481,26.051,-38.866,42.193,-39.59,-16.349,-36.379,3.508,-32.991,-56.728,-33.567,-9.3441,-19.393
53.742,-47.847,32.024,-11.481,26.051,-38.866,42.193,-39.59,-16.349,-36.379,3.508,-32.991,-56.728,-33.567,-9.3441,-19.393
53.436,-47.057,31.613,-10.66,25.442,-37.835,41.631,-38.562,-16.399,-36.34,3.623,-32.995,-56.665,-33.65,-9.2665,-19.472
53.436,-47.057,31.613,-10.66,25.442,-37.835,41.631,-38.562,-16.399,-36.34,3.623,-32.995,-56.665,-33.65,-9.2665,-19.472
53.124,-46.26,31.198,-9.8332,24.827,-36.796,41.063,-37.526,-16.45,-36.299,3.7378,-32.998,-56.601,-33.733,-9.1886,-19.551
53.124,-46.26,31.198,-9.8332,24.827,-36.796,41.063,-37.526,-16.45,-36.299,3.7378,-32.998,-56.601,-33.733,-9.1886,-19.551
52.809,-45.458,30.78,-9.0014,24.207,-35.75,40.49,-36.482,-16.501,-36.258,3.8523,-33,-56.537,-33.815,-9.1106,-19.631
52.809,-45.458,30.78,-9.0014,24.207,-35.75,40.49,-36.482,-16.501,-36.258,3.8523,-33,-56.537,-33.815,-9.1106,-19.631
52.809,-45.458,30.78,-9.0014,24.207,-35.75,40.49,-36.482,-16.501,-36.258,3.8523,-33,-56.537,-33.815,-9.1106,-19.631
52.489,-44.649,30.358,-8.1641,23.581,-34.695,39.912,-35.431,-16.553,-36.215,3.9666,-33.001,-56.472,-33.898,-9.0323,-19.71
52.489,-44.649,30.358,-8.1641,23.581,-34.695,39.912,-35.431,-16.553,-36.215,3.9666,-33.001,-56.472,-33.898,-9.0323,-19.71
51.836,-43.014,29.503,-6.4734,22.313,-32.561,38.741,-33.306,-16.659,-36.128,4.1944,-33.001,-56.342,-34.062,-8.8752,-19.87
51.836,-43.014,29.503,-6.4734,22.313,-32.561,38.741,-33.306,-16.659,-36.128,4.1944,-33.001,-56.342,-34.062,-8.8752,-19.87
51.503,-42.187,29.069,-5.6201,21.67,-31.482,38.148,-32.233,-16.713,-36.083,4.3079,-32.999,-56.276,-34.144,-8.7963,-19.95
51.503,-42.187,29.069,-5.6201,21.67,-31.482,38.148,-32.233,-16.713,-36.083,4.3079,-32.999,-56.276,-34.144,-8.7963,-19.95
51.503,-42.187,29.069,-5.6201,21.67,-31.482,38.148,-32.233,-16.713,-36.083,4.3079,-32.999,-56.276,-34.144,-8.7963,-19.95
51.166,-41.354,28.633,-4.7615,21.023,-30.395,37.55,-31.151,-16.767,-36.037,4.4211,-32.997,-56.209,-34.227,-8.7171,-20.03
51.166,-41.354,28.633,-4.7615,21.023,-30.395,37.55,-31.151,-16.767,-36.037,4.4211,-32.997,-56.209,-34.227,-8.7171,-20.03
50.825,-40.515,28.192,-3.8977,20.369,-29.3,36.946,-30.063,-16.822,-35.991,4.534,-32.994,-56.143,-34.309,-8.6378,-20.111
50.825,-40.515,28.192,-3.8977,20.369,-29.3,36.946,-30.063,-16.822,-35.991,4.534,-32.994,-56.143,-34.309,-8.6378,-20.111
50.479,-39.671,27.748,-3.0287,19.711,-28.198,36.338,-28.967,-16.878,-35.943,4.6466,-32.99,-56.075,-34.391,-8.5582,-20.191
50.479,-39.671,27.748,-3.0287,19.711,-28.198,36.338,-28.967,-16.878,-35.943,4.6466,-32.99,-56.075,-34.391,-8.5582,-20.191
50.479,-39.671,27.748,-3.0287,19.711,-28.198,36.338,-28.967,-16.878,-35.943,4.6466,-32.99,-56.075,-34.391,-8.5582,-20.191
50.129,-38.82,27.301,-2.1545,19.047,-27.088,35.725,-27.863,-16.935,-35.895,4.759,-32.985,-56.008,-34.473,-8.4784,-20.272
50.129,-38.82,27.301,-2.1545,19.047,-27.088,35.725,-27.863,-16.935,-35.895,4.759,-32.985,-56.008,-34.473,-8.4784,-20.272
49.775,-37.964,26.849,-1.2753,18.377,-25.97,35.106,-26.752,-16.992,-35.846,4.871,-32.979,-55.939,-34.554,-8.3984,-20.352
49.416,-37.102,26.395,-0.39088,17.703,-24.845,34.483,-25.634,-17.05,-35.795,4.9828,-32.973,-55.871,-34.636,-8.3182,-20.433
49.416,-37.102,26.395,-0.39088,17.703,-24.845,34.483,-25.634,-17.05,-35.795,4.9828,-32.973,-55.871,-34.636,-8.3182,-20.433
49.053,-36.234,25.936,0.49854,17.022,-23.711,33.854,-24.509,-17.109,-35.745,5.0942,-32.966,-55.802,-34.718,-8.2378,-20.514
49.053,-36.234,25.936,0.49854,17.022,-23.711,33.854,-24.509,-17.109,-35.745,5.0942,-32.966,-55.802,-34.718,-8.2378,-20.514
48.686,-35.361,25.474,1.393,16.337,-22.571,33.221,-23.377,-17.168,-35.693,5.2053,-32.958,-55.732,-34.8,-8.1571,-20.595
48.686,-35.361,25.474,1.393,16.337,-22.571,33.221,-23.377,-17.168,-35.693,5.2053,-32.958,-55.732,-34.8,-8.1571,-20.595
48.315,-34.482,25.009,2.2923,15.646,-21.423,32.583,-22.238,-17.228,-35.64,5.3162,-32.949,-55.663,-34.881,-8.0763,-20.677
48.315,-34.482,25.009,2.2923,15.646,-21.423,32.583,-22.238,-17.228,-35.64,5.3162,-32.949,-55.663,-34.881,-8.0763,-20.677
47.94,-33.597,24.54,3.1966,14.951,-20.267,31.94,-21.091,-17.288,-35.587,5.4267,-32.939,-55.592,-34.963,-7.9952,-20.758
47.56,-32.707,24.067,4.1058,14.25,-19.104,31.292,-19.937,-17.349,-35.533,5.5369,-32.928,-55.522,-35.045,-7.9139,-20.84
47.56,-32.707,24.067,4.1058,14.25,-19.104,31.292,-19.937,-17.349,-35.533,5.5369,-32.928,-55.522,-35.045,-7.9139,-20.84
47.56,-32.707,24.067,4.1058,14.25,-19.104,31.292,-19.937,-17.349,-35.533,5.5369,-32.928,-55.522,-35.045,-7.9139,-20.84
47.177,-31.811,23.591,5.0198,13.543,-17.933,30.639,-18.777,-17.411,-35.478,5.6467,-32.917,-55.45,-35.126,-7.8323,-20.921
47.177,-31.811,23.591,5.0198,13.543,-17.933,30.639,-18.777,-17.411,-35.478,5.6467,-32.917,-55.45,-35.126,-7.8323,-20.921
46.789,-30.91,23.112,5.9386,12.832,-16.755,29.982,-17.61,-17.473,-35.422,5.7562,-32.905,-55.379,-35.208,-7.7506,-21.003
46.789,-30.91,23.112,5.9386,12.832,-16.755,29.982,-17.61,-17.473,-35.422,5.7562,-32.905,-55.379,-35.208,-7.7506,-21.003
46.397,-30.003,22.629,6.8621,12.116,-15.57,29.32,-16.435,-17.536,-35.366,5.8654,-32.891,-55.307,-35.289,-7.6686,-21.085
46.397,-30.003,22.629,6.8621,12.116,-15.57,29.32,-16.435,-17.536,-35.366,5.8654,-32.891,-55.307,-35.289,-7.6686,-21.085
46.001,-29.091,22.143,7.7904,11.394,-14.378,28.653,-15.254,-17.6,-35.308,5.9743,-32.878,-55.234,-35.371,-7.5864,-21.167
46.001,-29.091,22.143,7.7904,11.394,-14.378,28.653,-15.254,-17.6,-35.308,5.9743,-32.878,-55.234,-35.371,-7.5864,-21.167
45.6,-28.173,21.654,8.7232,10.667,-13.179,27.981,-14.067,-17.664,-35.25,6.0828,-32.863,-55.161,-35.452,-7.504,-21.25
45.6,-28.173,21.654,8.7232,10.667,-13.179,27.981,-14.067,-17.664,-35.25,6.0828,-32.863,-55.161,-35.452,-7.504,-21.25
45.196,-27.251,21.161,9.6607,9.9359,-11.972,27.305,-12.872,-17.728,-35.191,6.1909,-32.847,-55.088,-35.534,-7.4214,-21.332
45.196,-27.251,21.161,9.6607,9.9359,-11.972,27.305,-12.872,-17.728,-35.191,6.1909,-32.847,-55.088,-35.534,-7.4214,-21.332
44.788,-26.323,20.665,10.603,9.1994,-10.759,26.624,-11.671,-17.794,-35.132,6.2987,-32.831,-55.014,-35.615,-7.3385,-21.415
44.376,-25.39,20.165,11.549,8.458,-9.5384,25.939,-10.463,-17.859,-35.071,6.4061,-32.814,-54.94,-35.696,-7.2555,-21.497
44.376,-25.39,20.165,11.549,8.458,-9.5384,25.939,-10.463,-17.859,-35.071,6.4061,-32.814,-54.94,-35.696,-7.2555,-21.497
44.376,-25.39,20.165,11.549,8.458,-9.5384,25.939,-10.463,-17.859,-35.071,6.4061,-32.814,-54.94,-35.696,-7.2555,-21.497
43.959,-24.451,19.662,12.5,7.7116,-8.311,25.249,-9.2493,-17.926,-35.01,6.5132,-32.796,-54.865,-35.778,-7.1722,-21.58
43.959,-24.451,19.662,12.5,7.7116,-8.311,25.249,-9.2493,-17.926,-35.01,6.5132,-32.796,-54.865,-35.778,-7.1722,-21.58
43.539,-23.508,19.156,13.456,6.9604,-7.0768,24.555,-8.0287,-17.993,-34.948,6.6199,-32.777,-54.79,-35.859,-7.0887,-21.663
43.539,-23.508,19.156,13.456,6.9604,-7.0768,24.555,-8.0287,-17.993,-34.948,6.6199,-32.777,-54.79,-35.859,-7.0887,-21.663
43.115,-22.56,18.647,14.415,6.2044,-5.8358,23.856,-6.8017,-18.06,-34.886,6.7262,-32.758,-54.715,-35.941,-7.005,-21.746
43.115,-22.56,18.647,14.415,6.2044,-5.8358,23.856,-6.8017,-18.06,-34.886,6.7262,-32.758,-54.715,-35.941,-7.005,-21.746
43.115,-22.56,18.647,14.415,6.2044,-5.8358,23.856,-6.8017,-18.06,-34.886,6.7262,-32.758,-54.715,-35.941,-7.005,-21.746
42.687,-21.606,18.135,15.379,5.4436,-4.5881,23.152,-5.5684,-18.128,-34.822,6.8322,-32.737,-54.639,-36.022,-6.921,-21.83
42.687,-21.606,18.135,15.379,5.4436,-4.5881,23.152,-5.5684,-18.128,-34.822,6.8322,-32.737,-54.639,-36.022,-6.921,-21.83
42.687,-21.606,18.135,15.379,5.4436,-4.5881,23.152,-5.5684,-18.128,-34.822,6.8322,-32.737,-54.639,-36.022,-6.921,-21.83
41.818,-19.685,17.1,17.32,3.9079,-2.0728,21.732,-3.0832,-18.266,-34.694,7.043,-32.694,-54.486,-36.184,-6.7525,-21.997
41.818,-19.685,17.1,17.32,3.9079,-2.0728,21.732,-3.0832,-18.266,-34.694,7.043,-32.694,-54.486,-36.184,-6.7525,-21.997
41.379,-18.717,16.578,18.297,3.133,-0.80531,21.016,-1.8313,-18.335,-34.628,7.1478,-32.671,-54.409,-36.266,-6.6679,-22.08
41.379,-18.717,16.578,18.297,3.133,-0.80531,21.016,-1.8313,-18.335,-34.628,7.1478,-32.671,-54.409,-36.266,-6.6679,-22.08
40.935,-17.744,16.053,19.277,2.3536,0.4686,20.295,-0.5734,-18.405,-34.562,7.2522,-32.648,-54.331,-36.347,-6.5831,-22.164
40.487,-16.767,15.525,20.262,1.5695,1.7489,19.57,0.6905,-18.476,-34.495,7.3562,-32.624,-54.253,-36.428,-6.4981,-22.248
40.487,-16.767,15.525,20.262,1.5695,1.7489,19.57,0.6905,-18.476,-34.495,7.3562,-32.624,-54.253,-36.428,-6.4981,-22.248
40.036,-15.785,14.994,21.251,0.78097,3.0355,18.841,1.9603,-18.547,-34.428,7.4598,-32.598,-54.175,-36.51,-6.4129,-22.332
40.036,-15.785,14.994,21.251,0.78097,3.0355,18.841,1.9603,-18.547,-34.428,7.4598,-32.598,-54.175,-36.51,-6.4129,-22.332
39.581,-14.798,14.46,22.244,-0.01206,4.3283,18.108,3.236,-18.619,-34.36,7.563,-32.573,-54.096,-36.591,-6.3274,-22.416
39.581,-14.798,14.46,22.244,-0.01206,4.3283,18.108,3.236,-18.619,-34.36,7.563,-32.573,-54.096,-36.591,-6.3274,-22.416
39.122,-13.807,13.923,23.24,-0.80952,5.6273,17.37,4.5174,-18.691,-34.291,7.6658,-32.546,-54.017,-36.672,-6.2418,-22.5
39.122,-13.807,13.923,23.24,-0.80952,5.6273,17.37,4.5174,-18.691,-34.291,7.6658,-32.546,-54.017,-36.672,-6.2418,-22.5
39.122,-13.807,13.923,23.24,-0.80952,5.6273,17.37,4.5174,-18.691,-34.291,7.6658,-32.546,-54.017,-36.672,-6.2418,-22.5
38.66,-12.811,13.383,24.24,-1.6114,6.9323,16.629,5.8045,-18.763,-34.221,7.7682,-32.519,-53.937,-36.754,-6.1559,-22.585
38.66,-12.811,13.383,24.24,-1.6114,6.9323,16.629,5.8045,-18.763,-34.221,7.7682,-32.519,-53.937,-36.754,-6.1559,-22.585
38.66,-12.811,13.383,24.24,-1.6114,6.9323,16.629,5.8045,-18.763,-34.221,7.7682,-32.519,-53.937,-36.754,-6.1559,-22.585
38.193,-11.811,12.84,25.244,-2.4175,8.2434,15.883,7.0973,-18.836,-34.151,7.8702,-32.49,-53.857,-36.835,-6.0698,-22.669
38.193,-11.811,12.84,25.244,-2.4175,8.2434,15.883,7.0973,-18.836,-34.151,7.8702,-32.49,-53.857,-36.835,-6.0698,-22.669
37.25,-9.7982,11.745,27.263,-4.0427,10.883,14.38,9.6994,-18.983,-34.009,8.0729,-32.432,-53.695,-36.998,-5.897,-22.839
37.25,-9.7982,11.745,27.263,-4.0427,10.883,14.38,9.6994,-18.983,-34.009,8.0729,-32.432,-53.695,-36.998,-5.897,-22.839
37.25,-9.7982,11.745,27.263,-4.0427,10.883,14.38,9.6994,-18.983,-34.009,8.0729,-32.432,-53.695,-36.998,-5.897,-22.839
36.773,-8.7853,11.194,28.278,-4.8616,12.212,13.623,11.009,-19.058,-33.937,8.1736,-32.401,-53.614,-37.079,-5.8102,-22.924
36.773,-8.7853,11.194,28.278,-4.8616,12.212,13.623,11.009,-19.058,-33.937,8.1736,-32.401,-53.614,-37.079,-5.8102,-22.924
36.292,-7.7682,10.639,29.297,-5.6846,13.546,12.862,12.323,-19.132,-33.864,8.2739,-32.37,-53.532,-37.16,-5.7233,-23.009
36.292,-7.7682,10.639,29.297,-5.6846,13.546,12.862,12.323,-19.132,-33.864,8.2739,-32.37,-53.532,-37.16,-5.7233,-23.009
35.808,-6.7471,10.082,30.318,-6.5117,14.886,12.097,13.643,-19.207,-33.791,8.3738,-32.338,-53.449,-37.242,-5.6361,-23.094
35.32,-5.7219,9.5226,31.343,-7.3429,16.232,11.328,14.968,-19.283,-33.717,8.4732,-32.305,-53.367,-37.323,-5.5488,-23.179
35.32,-5.7219,9.5226,31.343,-7.3429,16.232,11.328,14.968,-19.283,-33.717,8.4732,-32.305,-53.367,-37.323,-5.5488,-23.179
34.829,-4.6928,8.9601,32.372,-8.178,17.583,10.556,16.298,-19.359,-33.643,8.5721,-32.271,-53.284,-37.404,-5.4612,-23.264
34.829,-4.6928,8.9601,32.372,-8.178,17.583,10.556,16.298,-19.359,-33.643,8.5721,-32.271,-53.284,-37.404,-5.4612,-23.264
34.829,-4.6928,8.9601,32.372,-8.178,17.583,10.556,16.298,-19.359,-33.643,8.5721,-32.271,-53.284,-37.404,-5.4612,-23.264
34.334,-3.6597,8.395,33.404,-9.0171,18.939,9.7796,17.633,-19.435,-33.567,8.6707,-32.237,-53.2,-37.486,-5.3734,-23.35
34.334,-3.6597,8.395,33.404,-9.0171,18.939,9.7796,17.633,-19.435,-33.567,8.6707,-32.237,-53.2,-37.486,-5.3734,-23.35
34.334,-3.6597,8.395,33.404,-9.0171,18.939,9.7796,17.633,-19.435,-33.567,8.6707,-32.237,-53.2,-37.486,-5.3734,-23.35
33.836,-2.6229,7.8273,34.438,-9.86,20.301,9,18.973,-19.512,-33.492,8.7688,-32.202,-53.116,-37.567,-5.2854,-23.435
33.335,-1.5822,7.257,35.476,-10.707,21.667,8.2167,20.318,-19.589,-33.416,8.8664,-32.166,-53.032,-37.648,-5.1972,-23.521
32.83,-0.53788,6.6842,36.517,-11.557,23.039,7.43,21.667,-19.666,-33.339,8.9636,-32.13,-52.947,-37.73,-5.1088,-23.607
32.83,-0.53788,6.6842,36.517,-11.557,23.039,7.43,21.667,-19.666,-33.339,8.9636,-32.13,-52.947,-37.73,-5.1088,-23.607
32.83,-0.53788,6.6842,36.517,-11.557,23.039,7.43,21.667,-19.666,-33.339,8.9636,-32.13,-52.947,-37.73,-5.1088,-23.607
32.322,0.51009,6.1089,37.561,-12.411,24.416,6.6399,23.021,-19.744,-33.261,9.0603,-32.092,-52.862,-37.811,-5.0202,-23.693
32.322,0.51009,6.1089,37.561,-12.411,24.416,6.6399,23.021,-19.744,-33.261,9.0603,-32.092,-52.862,-37.811,-5.0202,-23.693
32.322,0.51009,6.1089,37.561,-12.411,24.416,6.6399,23.021,-19.744,-33.261,9.0603,-32.092,-52.862,-37.811,-5.0202,-23.693
31.811,1.5616,5.5311,38.608,-13.269,25.798,5.8464,24.38,-19.822,-33.183,9.1565,-32.054,-52.776,-37.893,-4.9314,-23.779
31.297,2.6166,4.9508,39.658,-14.131,27.185,5.0495,25.743,-19.9,-33.105,9.2523,-32.016,-52.69,-37.974,-4.8424,-23.865
31.297,2.6166,4.9508,39.658,-14.131,27.185,5.0495,25.743,-19.9,-33.105,9.2523,-32.016,-52.69,-37.974,-4.8424,-23.865
30.779,3.6751,4.3682,40.711,-14.996,28.576,4.2494,27.111,-19.979,-33.026,9.3477,-31.976,-52.603,-38.056,-4.7532,-23.951
30.779,3.6751,4.3682,40.711,-14.996,28.576,4.2494,27.111,-19.979,-33.026,9.3477,-31.976,-52.603,-38.056,-4.7532,-23.951
30.779,3.6751,4.3682,40.711,-14.996,28.576,4.2494,27.111,-19.979,-33.026,9.3477,-31.976,-52.603,-38.056,-4.7532,-23.951
30.258,4.7369,3.7833,41.766,-15.864,29.972,3.446,28.483,-20.058,-32.946,9.4425,-31.936,-52.516,-38.137,-4.6638,-24.037
30.258,4.7369,3.7833,41.766,-15.864,29.972,3.446,28.483,-20.058,-32.946,9.4425,-31.936,-52.516,-38.137,-4.6638,-24.037
29.207,6.8702,2.6064,43.884,-17.611,32.778,1.8299,31.24,-20.217,-32.786,9.6309,-31.853,-52.341,-38.3,-4.4843,-24.209
29.207,6.8702,2.6064,43.884,-17.611,32.778,1.8299,31.24,-20.217,-32.786,9.6309,-31.853,-52.341,-38.3,-4.4843,-24.209
29.207,6.8702,2.6064,43.884,-17.611,32.778,1.8299,31.24,-20.217,-32.786,9.6309,-31.853,-52.341,-38.3,-4.4843,-24.209
28.677,7.9415,2.0147,44.947,-18.49,34.188,1.0172,32.624,-20.297,-32.705,9.7243,-31.811,-52.253,-38.381,-4.3943,-24.296
28.677,7.9415,2.0147,44.947,-18.49,34.188,1.0172,32.624,-20.297,-32.705,9.7243,-31.811,-52.253,-38.381,-4.3943,-24.296
28.144,9.016,1.4207,46.012,-19.371,35.602,0.20159,34.012,-20.377,-32.623,9.8173,-31.767,-52.164,-38.463,-4.3041,-24.382
27.608,10.093,0.82459,47.079,-20.256,37.019,-0.61699,35.404,-20.457,-32.541,9.9098,-31.724,-52.075,-38.544,-4.2137,-24.468
27.608,10.093,0.82459,47.079,-20.256,37.019,-0.61699,35.404,-20.457,-32.541,9.9098,-31.724,-52.075,-38.544,-4.2137,-24.468
27.069,11.174,0.22637,48.149,-21.144,38.441,-1.4384,36.8,-20.538,-32.458,10.002,-31.679,-51.986,-38.626,-4.1231,-24.555
27.069,11.174,0.22637,48.149,-21.144,38.441,-1.4384,36.8,-20.538,-32.458,10.002,-31.679,-51.986,-38.626,-4.1231,-24.555
27.069,11.174,0.22637,48.149,-21.144,38.441,-1.4384,36.8,-20.538,-32.458,10.002,-31.679,-51.986,-38.626,-4.1231,-24.555
26.527,12.257,-0.3739,49.221,-22.035,39.868,-2.2627,38.2,-20.619,-32.375,10.093,-31.634,-51.896,-38.707,-4.0322,-24.641
26.527,12.257,-0.3739,49.221,-22.035,39.868,-2.2627,38.2,-20.619,-32.375,10.093,-31.634,-51.896,-38.707,-4.0322,-24.641
26.527,12.257,-0.3739,49.221,-22.035,39.868,-2.2627,38.2,-20.619,-32.375,10.093,-31.634,-51.896,-38.707,-4.0322,-24.641
25.982,13.343,-0.97619,50.295,-22.929,41.297,-3.0897,39.603,-20.7,-32.292,10.184,-31.588,-51.806,-38.789,-3.9412,-24.728
25.435,14.431,-1.5805,51.371,-23.826,42.731,-3.9194,41.01,-20.781,-32.208,10.275,-31.541,-51.715,-38.87,-3.85,-24.815
24.885,15.523,-2.1867,52.449,-24.725,44.168,-4.7517,42.419,-20.862,-32.123,10.365,-31.493,-51.624,-38.952,-3.7587,-24.901
24.885,15.523,-2.1867,52.449,-24.725,44.168,-4.7517,42.419,-20.862,-32.123,10.365,-31.493,-51.624,-38.952,-3.7587,-24.901
24.332,16.616,-2.7947,53.529,-25.628,45.609,-5.5865,43.833,-20.944,-32.038,10.454,-31.445,-51.532,-39.033,-3.6671,-24.988
24.332,16.616,-2.7947,53.529,-25.628,45.609,-5.5865,43.833,-20.944,-32.038,10.454,-31.445,-51.532,-39.033,-3.6671,-24.988
24.332,16.616,-2.7947,53.529,-25.628,45.609,-5.5865,43.833,-20.944,-32.038,10.454,-31.445,-51.532,-39.033,-3.6671,-24.988
23.776,17.712,-3.4047,54.611,-26.533,47.054,-6.4239,45.249,-21.026,-31.953,10.543,-31.396,-51.44,-39.115,-3.5753,-25.075
23.776,17.712,-3.4047,54.611,-26.533,47.054,-6.4239,45.249,-21.026,-31.953,10.543,-31.396,-51.44,-39.115,-3.5753,-25.075
23.776,17.712,-3.4047,54.611,-26.533,47.054,-6.4239,45.249,-21.026,-31.953,10.543,-31.396,-51.44,-39.115,-3.5753,-25.075
23.218,18.811,-4.0164,55.694,-27.44,48.501,-7.2636,46.668,-21.108,-31.867,10.632,-31.346,-51.347,-39.196,-3.4834,-25.161
22.657,19.912,-4.6299,56.779,-28.35,49.952,-8.1058,48.091,-21.19,-31.781,10.72,-31.296,-51.254,-39.278,-3.3912,-25.248
22.657,19.912,-4.6299,56.779,-28.35,49.952,-8.1058,48.091,-21.19,-31.781,10.72,-31.296,-51.254,-39.278,-3.3912,-25.248
22.657,19.912,-4.6299,56.779,-28.35,49.952,-8.1058,48.091,-21.19,-31.781,10.72,-31.296,-51.254,-39.278,-3.3912,-25.248
22.094,21.015,-5.245,57.866,-29.263,51.406,-8.9502,49.516,-21.272,-31.694,10.808,-31.245,-51.161,-39.359,-3.2989,-25.335
22.094,21.015,-5.245,57.866,-29.263,51.406,-8.9502,49.516,-21.272,-31.694,10.808,-31.245,-51.161,-39.359,-3.2989,-25.335
21.528,22.12,-5.8618,58.954,-30.178,52.864,-9.7968,50.944,-21.354,-31.607,10.895,-31.193,-51.067,-39.441,-3.2064,-25.422
21.528,22.12,-5.8618,58.954,-30.178,52.864,-9.7968,50.944,-21.354,-31.607,10.895,-31.193,-51.067,-39.441,-3.2064,-25.422
20.959,23.227,-6.4803,60.043,-31.095,54.324,-10.646,52.374,-21.437,-31.52,10.981,-31.141,-50.973,-39.522,-3.1137,-25.508
20.959,23.227,-6.4803,60.043,-31.095,54.324,-10.646,52.374,-21.437,-31.52,10.981,-31.141,-50.973,-39.522,-3.1137,-25.508
20.959,23.227,-6.4803,60.043,-31.095,54.324,-10.646,52.374,-21.437,-31.52,10.981,-31.141,-50.973,-39.522,-3.1137,-25.508
19.816,25.447,-7.7218,62.226,-32.937,57.252,-12.349,55.243,-21.602,-31.344,11.153,-31.034,-50.783,-39.685,-2.9277,-25.682
19.816,25.447,-7.7218,62.226,-32.937,57.252,-12.349,55.243,-21.602,-31.344,11.153,-31.034,-50.783,-39.685,-2.9277,-25.682
19.24,26.559,-8.3447,63.319,-33.861,58.72,-13.204,56.681,-21.685,-31.255,11.237,-30.979,-50.688,-39.766,-2.8345,-25.768
19.24,26.559,-8.3447,63.319,-33.861,58.72,-13.204,56.681,-21.685,-31.255,11.237,-30.979,-50.688,-39.766,-2.8345,-25.768
18.663,27.674,-8.9691,64.413,-34.787,60.191,-14.061,58.121,-21.767,-31.166,11.322,-30.924,-50.592,-39.847,-2.7411,-25.855
18.663,27.674,-8.9691,64.413,-34.787,60.191,-14.061,58.121,-21.767,-31.166,11.322,-30.924,-50.592,-39.847,-2.7411,-25.855
18.083,28.79,-9.5948,65.508,-35.715,61.664,-14.92,59.563,-21.85,-31.076,11.406,-30.868,-50.495,-39.929,-2.6475,-25.942
18.083,28.79,-9.5948,65.508,-35.715,61.664,-14.92,59.563,-21.85,-31.076,11.406,-30.868,-50.495,-39.929,-2.6475,-25.942
17.501,29.907,-10.222,66.604,-36.644,63.139,-15.78,61.007,-21.933,-30.987,11.489,-30.812,-50.398,-40.01,-2.5537,-26.028
17.501,29.907,-10.222,66.604,-36.644,63.139,-15.78,61.007,-21.933,-30.987,11.489,-30.812,-50.398,-40.01,-2.5537,-26.028
16.917,31.026,-10.85,67.701,-37.576,64.616,-16.642,62.453,-22.016,-30.897,11.572,-30.754,-50.301,-40.091,-2.4598,-26.115
16.917,31.026,-10.85,67.701,-37.576,64.616,-16.642,62.453,-22.016,-30.897,11.572,-30.754,-50.301,-40.091,-2.4598,-26.115
16.331,32.147,-11.48,68.798,-38.509,66.095,-17.505,63.9,-22.099,-30.806,11.655,-30.696,-50.203,-40.172,-2.3657,-26.201
15.743,33.268,-12.11,69.897,-39.444,67.577,-18.37,65.349,-22.181,-30.715,11.736,-30.637,-50.105,-40.253,-2.2714,-26.288
15.743,33.268,-12.11,69.897,-39.444,67.577,-18.37,65.349,-22.181,-30.715,11.736,-30.637,-50.105,-40.253,-2.2714,-26.288
15.743,33.268,-12.11,69.897,-39.444,67.577,-18.37,65.349,-22.181,-30.715,11.736,-30.637,-50.105,-40.253,-2.2714,-26.288
15.153,34.391,-12.742,70.995,-40.38,69.06,-19.237,66.8,-22.264,-30.624,11.818,-30.578,-50.006,-40.334,-2.1769,-26.374
15.153,34.391,-12.742,70.995,-40.38,69.06,-19.237,66.8,-22.264,-30.624,11.818,-30.578,-50.006,-40.334,-2.1769,-26.374
15.153,34.391,-12.742,70.995,-40.38,69.06,-19.237,66.8,-22.264,-30.624,11.818,-30.578,-50.006,-40.334,-2.1769,-26.374
14.561,35.515,-13.375,72.094,-41.318,70.544,-20.105,68.252,-22.347,-30.532,11.899,-30.518,-49.907,-40.415,-2.0823,-26.46
13.967,36.64,-14.009,73.194,-42.257,72.03,-20.974,69.706,-22.43,-30.441,11.979,-30.457,-49.808,-40.496,-1.9876,-26.546
13.372,37.765,-14.644,74.293,-43.198,73.518,-21.844,71.16,-22.513,-30.348,12.059,-30.396,-49.708,-40.577,-1.8926,-26.632
13.372,37.765,-14.644,74.293,-43.198,73.518,-21.844,71.16,-22.513,-30.348,12.059,-30.396,-49.708,-40.577,-1.8926,-26.632
12.774,38.892,-15.279,75.393,-44.14,75.006,-22.716,72.616,-22.595,-30.256,12.138,-30.334,-49.607,-40.658,-1.7975,-26.718
12.774,38.892,-15.279,75.393,-44.14,75.006,-22.716,72.616,-22.595,-30.256,12.138,-30.334,-49.607,-40.658,-1.7975,-26.718
12.774,38.892,-15.279,75.393,-44.14,75.006,-22.716,72.616,-22.595,-30.256,12.138,-30.334,-49.607,-40.658,-1.7975,-26.718
12.774,38.892,-15.279,75.393,-44.14,75.006,-22.716,72.616,-22.595,-30.256,12.138,-30.334,-49.607,-40.658,-1.7975,-26.718
12.175,40.019,-15.916,76.493,-45.083,76.496,-23.588,74.073,-22.678,-30.163,12.216,-30.271,-49.507,-40.738,-1.7022,-26.804
12.175,40.019,-15.916,76.493,-45.083,76.496,-23.588,74.073,-22.678,-30.163,12.216,-30.271,-49.507,-40.738,-1.7022,-26.804
11.575,41.147,-16.553,77.593,-46.026,77.987,-24.462,75.53,-22.76,-30.07,12.295,-30.207,-49.405,-40.819,-1.6068,-26.89
10.972,42.276,-17.191,78.693,-46.971,79.479,-25.336,76.988,-22.843,-29.977,12.372,-30.143,-49.304,-40.899,-1.5112,-26.976
10.972,42.276,-17.191,78.693,-46.971,79.479,-25.336,76.988,-22.843,-29.977,12.372,-30.143,-49.304,-40.899,-1.5112,-26.976
10.369,43.405,-17.83,79.792,-47.917,80.971,-26.211,78.447,-22.925,-29.883,12.449,-30.078,-49.201,-40.98,-1.4155,-27.061
10.369,43.405,-17.83,79.792,-47.917,80.971,-26.211,78.447,-22.925,-29.883,12.449,-30.078,-49.201,-40.98,-1.4155,-27.061
9.7633,44.534,-18.469,80.892,-48.864,82.465,-27.087,79.906,-23.007,-29.789,12.526,-30.013,-49.099,-41.06,-1.3196,-27.146
9.7633,44.534,-18.469,80.892,-48.864,82.465,-27.087,79.906,-23.007,-29.789,12.526,-30.013,-49.099,-41.06,-1.3196,-27.146
9.1567,45.663,-19.109,81.99,-49.811,83.958,-27.964,81.365,-23.089,-29.695,12.602,-29.946,-48.995,-41.141,-1.2236,-27.232
9.1567,45.663,-19.109,81.99,-49.811,83.958,-27.964,81.365,-23.089,-29.695,12.602,-29.946,-48.995,-41.141,-1.2236,-27.232
9.1567,45.663,-19.109,81.99,-49.811,83.958,-27.964,81.365,-23.089,-29.695,12.602,-29.946,-48.995,-41.141,-1.2236,-27.232
8.5487,46.793,-19.749,83.089,-50.759,85.452,-28.841,82.824,-23.171,-29.6,12.677,-29.879,-48.892,-41.221,-1.1274,-27.317
8.5487,46.793,-19.749,83.089,-50.759,85.452,-28.841,82.824,-23.171,-29.6,12.677,-29.879,-48.892,-41.221,-1.1274,-27.317
7.9394,47.923,-20.39,84.187,-51.707,86.947,-29.719,84.284,-23.252,-29.505,12.752,-29.812,-48.788,-41.301,-1.0311,-27.402
7.3288,49.053,-21.031,85.284,-52.656,88.441,-30.597,85.743,-23.334,-29.41,12.827,-29.743,-48.683,-41.381,-0.9346,-27.486
7.3288,49.053,-21.031,85.284,-52.656,88.441,-30.597,85.743,-23.334,-29.41,12.827,-29.743,-48.683,-41.381,-0.9346,-27.486
6.7171,50.182,-21.673,86.38,-53.605,89.935,-31.475,87.203,-23.415,-29.315,12.901,-29.674,-48.578,-41.46,-0.83798,-27.571
6.7171,50.182,-21.673,86.38,-53.605,89.935,-31.475,87.203,-23.415,-29.315,12.901,-29.674,-48.578,-41.46,-0.83798,-27.571
6.1043,51.312,-22.315,87.476,-54.555,91.43,-32.354,88.661,-23.496,-29.219,12.974,-29.605,-48.473,-41.54,-0.74122,-27.655
6.1043,51.312,-22.315,87.476,-54.555,91.43,-32.354,88.661,-23.496,-29.219,12.974,-29.605,-48.473,-41.54,-0.74122,-27.655
6.1043,51.312,-22.315,87.476,-54.555,91.43,-32.354,88.661,-23.496,-29.219,12.974,-29.605,-48.473,-41.54,-0.74122,-27.655
5.4903,52.441,-22.957,88.571,-55.504,92.924,-33.232,90.12,-23.577,-29.124,13.047,-29.534,-48.367,-41.62,-0.64432,-27.739
4.8754,53.57,-23.599,89.664,-56.454,94.417,-34.111,91.578,-23.657,-29.028,13.119,-29.463,-48.261,-41.699,-0.54729,-27.823
4.8754,53.57,-23.599,89.664,-56.454,94.417,-34.111,91.578,-23.657,-29.028,13.119,-29.463,-48.261,-41.699,-0.54729,-27.823
4.2595,54.698,-24.241,90.757,-57.404,95.91,-34.99,93.035,-23.738,-28.931,13.191,-29.392,-48.154,-41.778,-0.45012,-27.907
4.2595,54.698,-24.241,90.757,-57.404,95.91,-34.99,93.035,-23.738,-28.931,13.191,-29.392,-48.154,-41.778,-0.45012,-27.907
3.6427,55.825,-24.884,91.848,-58.353,97.402,-35.869,94.491,-23.818,-28.835,13.262,-29.319,-48.046,-41.857,-0.35282,-27.99
3.6427,55.825,-24.884,91.848,-58.353,97.402,-35.869,94.491,-23.818,-28.835,13.262,-29.319,-48.046,-41.857,-0.35282,-27.99
3.0251,56.952,-25.526,92.937,-59.302,98.894,-36.747,95.947,-23.897,-28.738,13.333,-29.246,-47.939,-41.936,-0.25539,-28.074
3.0251,56.952,-25.526,92.937,-59.302,98.894,-36.747,95.947,-23.897,-28.738,13.333,-29.246,-47.939,-41.936,-0.25539,-28.074
2.4067,58.078,-26.168,94.026,-60.251,100.38,-37.626,97.401,-23.977,-28.641,13.403,-29.173,-47.83,-42.015,-0.15783,-28.157
2.4067,58.078,-26.168,94.026,-60.251,100.38,-37.626,97.401,-23.977,-28.641,13.403,-29.173,-47.83,-42.015,-0.15783,-28.157
1.7876,59.204,-26.81,95.113,-61.2,101.87,-38.503,98.854,-24.056,-28.544,13.472,-29.098,-47.721,-42.093,-0.060152,-28.239
1.7876,59.204,-26.81,95.113,-61.2,101.87,-38.503,98.854,-24.056,-28.544,13.472,-29.098,-47.721,-42.093,-0.060152,-28.239
1.1678,60.328,-27.452,96.198,-62.148,103.36,-39.381,100.31,-24.135,-28.447,13.541,-29.023,-47.612,-42.172,0.037654,-28.322
1.1678,60.328,-27.452,96.198,-62.148,103.36,-39.381,100.31,-24.135,-28.447,13.541,-29.023,-47.612,-42.172,0.037654,-28.322
0.54751,61.451,-28.093,97.281,-63.096,104.85,-40.258,101.76,-24.213,-28.349,13.61,-28.947,-47.502,-42.25,0.13558,-28.404
0.54751,61.451,-28.093,97.281,-63.096,104.85,-40.258,101.76,-24.213,-28.349,13.61,-28.947,-47.502,-42.25,0.13558,-28.404
-0.073363,62.573,-28.735,98.363,-64.043,106.33,-41.134,103.2,-24.291,-28.251,13.678,-28.871,-47.392,-42.328,0.23362,-28.486
-0.073363,62.573,-28.735,98.363,-64.043,106.33,-41.134,103.2,-24.291,-28.251,13.678,-28.871,-47.392,-42.328,0.23362,-28.486
-0.6947,63.693,-29.375,99.442,-64.989,107.82,-42.01,104.65,-24.369,-28.153,13.745,-28.794,-47.282,-42.406,0.33178,-28.567
-0.6947,63.693,-29.375,99.442,-64.989,107.82,-42.01,104.65,-24.369,-28.153,13.745,-28.794,-47.282,-42.406,0.33178,-28.567
-1.3164,64.813,-30.016,100.52,-65.934,109.3,-42.884,106.09,-24.446,-28.055,13.812,-28.716,-47.17,-42.483,0.43006,-28.649
-1.3164,64.813,-30.016,100.52,-65.934,109.3,-42.884,106.09,-24.446,-28.055,13.812,-28.716,-47.17,-42.483,0.43006,-28.649
-1.9385,65.93,-30.656,101.6,-66.878,110.78,-43.758,107.54,-24.523,-27.957,13.878,-28.637,-47.059,-42.561,0.52844,-28.73
-2.5609,67.046,-31.295,102.67,-67.821,112.26,-44.631,108.98,-24.599,-27.858,13.944,-28.558,-46.947,-42.638,0.62694,-28.81
-2.5609,67.046,-31.295,102.67,-67.821,112.26,-44.631,108.98,-24.599,-27.858,13.944,-28.558,-46.947,-42.638,0.62694,-28.81
-2.5609,67.046,-31.295,102.67,-67.821,112.26,-44.631,108.98,-24.599,-27.858,13.944,-28.558,-46.947,-42.638,0.62694,-28.81
-3.1834,68.161,-31.933,103.74,-68.763,113.73,-45.503,110.42,-24.675,-27.76,14.009,-28.478,-46.834,-42.715,0.72553,-28.891
-3.1834,68.161,-31.933,103.74,-68.763,113.73,-45.503,110.42,-24.675,-27.76,14.009,-28.478,-46.834,-42.715,0.72553,-28.891
-3.8061,69.273,-32.571,104.81,-69.704,115.2,-46.373,111.85,-24.751,-27.661,14.074,-28.398,-46.721,-42.791,0.82424,-28.97
-4.4289,70.384,-33.208,105.87,-70.643,116.67,-47.242,113.28,-24.826,-27.562,14.138,-28.316,-46.607,-42.868,0.92304,-29.05
-4.4289,70.384,-33.208,105.87,-70.643,116.67,-47.242,113.28,-24.826,-27.562,14.138,-28.316,-46.607,-42.868,0.92304,-29.05
-5.0518,71.493,-33.845,106.94,-71.581,118.14,-48.11,114.71,-24.901,-27.462,14.202,-28.234,-46.493,-42.944,1.0219,-29.129
-5.0518,71.493,-33.845,106.94,-71.581,118.14,-48.11,114.71,-24.901,-27.462,14.202,-28.234,-46.493,-42.944,1.0219,-29.129
-5.0518,71.493,-33.845,106.94,-71.581,118.14,-48.11,114.71,-24.901,-27.462,14.202,-28.234,-46.493,-42.944,1.0219,-29.129
-5.6745,72.599,-34.48,108,-72.517,119.61,-48.977,116.14,-24.975,-27.363,14.265,-28.152,-46.378,-43.02,1.1209,-29.208
-5.6745,72.599,-34.48,108,-72.517,119.61,-48.977,116.14,-24.975,-27.363,14.265,-28.152,-46.378,-43.02,1.1209,-29.208
-6.2972,73.703,-35.114,109.05,-73.451,121.07,-49.842,117.57,-25.049,-27.263,14.328,-28.069,-46.263,-43.095,1.22,-29.287
-6.2972,73.703,-35.114,109.05,-73.451,121.07,-49.842,117.57,-25.049,-27.263,14.328,-28.069,-46.263,-43.095,1.22,-29.287
-6.9197,74.805,-35.747,110.11,-74.384,122.53,-50.705,118.99,-25.122,-27.164,14.39,-27.985,-46.147,-43.171,1.3192,-29.365
-6.9197,74.805,-35.747,110.11,-74.384,122.53,-50.705,118.99,-25.122,-27.164,14.39,-27.985,-46.147,-43.171,1.3192,-29.365
-7.5419,75.905,-36.38,111.16,-75.315,123.98,-51.566,120.4,-25.195,-27.064,14.451,-27.9,-46.031,-43.246,1.4185,-29.442
-7.5419,75.905,-36.38,111.16,-75.315,123.98,-51.566,120.4,-25.195,-27.064,14.451,-27.9,-46.031,-43.246,1.4185,-29.442
-7.5419,75.905,-36.38,111.16,-75.315,123.98,-51.566,120.4,-25.195,-27.064,14.451,-27.9,-46.031,-43.246,1.4185,-29.442
-8.1639,77.002,-37.011,112.21,-76.244,125.43,-52.426,121.82,-25.267,-26.964,14.512,-27.814,-45.915,-43.32,1.5178,-29.519
-8.1639,77.002,-37.011,112.21,-76.244,125.43,-52.426,121.82,-25.267,-26.964,14.512,-27.814,-45.915,-43.32,1.5178,-29.519
-8.1639,77.002,-37.011,112.21,-76.244,125.43,-52.426,121.82,-25.267,-26.964,14.512,-27.814,-45.915,-43.32,1.5178,-29.519
