7685.2,54.233,19.302,0,0.039236,0,7869.9,51,0,0,0,0,0.0092319,0
7685.2,54.233,19.302,0,0.039236,0,7869.9,51,0,0,0,0,0.0092319,0
7685.2,54.233,19.302,0,0.039236,0,7869.9,51,0,0,0,0,0.0092319,0
7685.2,54.233,19.302,0,0.039236,0,7869.9,51,0,0,0,0,0.0092319,0
7685.2,54.233,19.302,0,0.039236,0,7869.9,51,0,0,0,0,0.0092319,0
7685.2,54.233,19.302,0,0.039236,0,7869.9,51,0,0,0,0,0.0092319,0
7687.2,54.233,19.306,0,0.039447,0,7869.9,51,0,0,0,0,0.0093294,0
7687.2,54.233,19.306,0,0.039447,0,7869.9,51,0,0,0,0,0.0093294,0
7687.2,54.233,19.306,0,0.039447,0,7869.9,51,0,0,0,0,0.0093294,0
7687.2,54.233,19.306,0,0.039447,0,7869.9,51,0,0,0,0,0.0093294,0
7687.2,54.233,19.306,0,0.039447,0,7869.9,51,0,0,0,0,0.0093294,0
7687.2,54.233,19.306,0,0.039447,0,7869.9,51,0,0,0,0,0.0093294,0
7687.2,54.233,19.306,0,0.039447,0,7869.9,51,0,0,0,0,0.0093294,0
7687.2,54.233,19.306,0,0.039447,0,7869.9,51,0,0,0,0,0.0093294,0
7687.2,54.233,19.306,0,0.039447,0,7869.9,51,0,0,0,0,0.0093294,0
7687.2,54.233,19.306,0,0.039447,0,7869.9,51,0,0,0,0,0.0093294,0
7687.2,54.233,19.306,0,0.039447,0,7869.9,51,0,0,0,0,0.0093294,0
7687.2,54.233,19.306,0,0.039447,0,7869.9,51,0,0,0,0,0.0093294,0
7687.2,54.233,19.306,0,0.039447,0,7869.9,51,0,0,0,0,0.0093294,0
7687.2,54.233,19.306,0,0.039447,0,7869.9,51,0,0,0,0,0.0093294,0
7688.3,54.233,19.308,0,0.039573,0,7869.9,51,0,0,0,0,0.0093889,0
7688.3,54.233,19.308,0,0.039573,0,7869.9,51,0,0,0,0,0.0093889,0
7689.5,54.233,19.31,0,0.039698,0,7869.9,51,0,0,0,0,0.0094492,0
7689.5,54.233,19.31,0,0.039698,0,7869.9,51,0,0,0,0,0.0094492,0
7691,54.233,19.313,0,0.039863,0,7869.9,51,0,0,0,0,0.0095308,0
7691.8,54.233,19.315,0,0.039945,0,7869.9,51,0,0,0,0,0.0095721,0
7691.8,54.233,19.315,0,0.039945,0,7869.9,51,0,0,0,0,0.0095721,0
7692.2,54.233,19.316,0,0.039986,0,7869.9,51,0,0,0,0,0.0095929,0
7692.2,54.233,19.316,0,0.039986,0,7869.9,51,0,0,0,0,0.0095929,0
7692.6,54.233,19.317,0,0.040026,0,7869.9,51,0,0,0,0,0.0096138,0
7692.6,54.233,19.317,0,0.040026,0,7869.9,51,0,0,0,0,0.0096138,0
7692.6,54.233,19.317,0,0.040026,0,7869.9,51,0,0,0,0,0.0096138,0
7692.6,54.233,19.317,0,0.040026,0,7869.9,51,0,0,0,0,0.0096138,0
7692.6,54.233,19.317,0,0.040026,0,7869.9,51,0,0,0,0,0.0096138,0
7692.6,54.233,19.317,0,0.040026,0,7869.9,51,0,0,0,0,0.0096138,0
7692.6,54.233,19.317,0,0.040026,0,7869.9,51,0,0,0,0,0.0096138,0
7692.6,54.233,19.317,0,0.040026,0,7869.9,51,0,0,0,0,0.0096138,0
7692.6,54.233,19.317,0,0.040026,0,7869.9,51,0,0,0,0,0.0096138,0
7692.6,54.233,19.317,0,0.040026,0,7869.9,51,0,0,0,0,0.0096138,0
7692.6,54.233,19.317,0,0.040026,0,7869.9,51,0,0,0,0,0.0096138,0
7692.6,54.233,19.317,0,0.040026,0,7869.9,51,0,0,0,0,0.0096138,0
7692.6,54.233,19.317,0,0.040026,0,7869.9,51,0,0,0,0,0.0096138,0
7692.6,54.233,19.317,0,0.040026,0,7869.9,51,0,0,0,0,0.0096138,0
7692.6,54.233,19.317,0,0.040026,0,7869.9,51,0,0,0,0,0.0096138,0
7693.4,54.233,19.318,0,0.040107,0,7869.9,51,0,0,0,0,0.0096559,0
7693.4,54.233,19.318,0,0.040107,0,7869.9,51,0,0,0,0,0.0096559,0
7693.7,54.233,19.319,0,0.040147,0,7869.9,51,0,0,0,0,0.0096771,0
7693.7,54.233,19.319,0,0.040147,0,7869.9,51,0,0,0,0,0.0096771,0
7695.3,54.233,19.322,0,0.040306,0,7869.9,51,0,0,0,0,0.0097627,0
7696.4,54.233,19.325,0,0.040425,0,7869.9,51,0,0,0,0,0.0098279,0
7696.8,54.233,19.326,0,0.040464,0,7869.9,51,0,0,0,0,0.0098499,0
7696.8,54.233,19.326,0,0.040464,0,7869.9,51,0,0,0,0,0.0098499,0
7697.2,54.233,19.326,0,0.040503,0,7869.9,51,0,0,0,0,0.0098719,0
7697.2,54.233,19.326,0,0.040503,0,7869.9,51,0,0,0,0,0.0098719,0
7697.2,54.233,19.326,0,0.040503,0,7869.9,51,0,0,0,0,0.0098719,0
7697.2,54.233,19.326,0,0.040503,0,7869.9,51,0,0,0,0,0.0098719,0
7697.2,54.233,19.326,0,0.040503,0,7869.9,51,0,0,0,0,0.0098719,0
7697.2,54.233,19.326,0,0.040503,0,7869.9,51,0,0,0,0,0.0098719,0
7697.2,54.233,19.326,0,0.040503,0,7869.9,51,0,0,0,0,0.0098719,0
7697.2,54.233,19.326,0,0.040503,0,7869.9,51,0,0,0,0,0.0098719,0
7697.2,54.233,19.326,0,0.040503,0,7869.9,51,0,0,0,0,0.0098719,0
7697.2,54.233,19.326,0,0.040503,0,7869.9,51,0,0,0,0,0.0098719,0
7697.2,54.233,19.326,0,0.040503,0,7869.9,51,0,0,0,0,0.0098719,0
7697.2,54.233,19.326,0,0.040503,0,7869.9,51,0,0,0,0,0.0098719,0
7697.2,54.233,19.326,0,0.040503,0,7869.9,51,0,0,0,0,0.0098719,0
7697.2,54.233,19.326,0,0.040503,0,7869.9,51,0,0,0,0,0.0098719,0
7697.2,54.233,19.326,0,0.040503,0,7869.9,51,0,0,0,0,0.0098719,0
7697.2,54.233,19.326,0,0.040503,0,7869.9,51,0,0,0,0,0.0098719,0
7698,54.233,19.328,0,0.04058,0,7869.9,51,0,0,0,0,0.0099163,0
7698,54.233,19.328,0,0.04058,0,7869.9,51,0,0,0,0,0.0099163,0
7698,54.233,19.328,0,0.04058,0,7869.9,51,0,0,0,0,0.0099163,0
7698,54.233,19.328,0,0.04058,0,7869.9,51,0,0,0,0,0.0099163,0
7698.4,54.233,19.329,0,0.040619,0,7869.9,51,0,0,0,0,0.0099386,0
7699.9,54.233,19.332,0,0.040772,0,7869.9,51,0,0,0,0,0.010029,0
7699.9,54.233,19.332,0,0.040772,0,7869.9,51,0,0,0,0,0.010029,0
7701.1,54.233,19.334,0,0.040886,0,7869.9,51,0,0,0,0,0.010098,0
7701.9,54.233,19.336,0,0.040961,0,7869.9,51,0,0,0,0,0.010144,0
7701.9,54.233,19.336,0,0.040961,0,7869.9,51,0,0,0,0,0.010144,0
7701.9,54.233,19.336,0,0.040961,0,7869.9,51,0,0,0,0,0.010144,0
7701.9,54.233,19.336,0,0.040961,0,7869.9,51,0,0,0,0,0.010144,0
7701.9,54.233,19.336,0,0.040961,0,7869.9,51,0,0,0,0,0.010144,0
7701.9,54.233,19.336,0,0.040961,0,7869.9,51,0,0,0,0,0.010144,0
7701.9,54.233,19.336,0,0.040961,0,7869.9,51,0,0,0,0,0.010144,0
7701.9,54.233,19.336,0,0.040961,0,7869.9,51,0,0,0,0,0.010144,0
7702.2,54.233,19.337,0,0.040998,0,7869.9,51,0,0,0,0,0.010168,0
7702.2,54.233,19.337,0,0.040998,0,7869.9,51,0,0,0,0,0.010168,0
7702.2,54.233,19.337,0,0.040998,0,7869.9,51,0,0,0,0,0.010168,0
7702.2,54.233,19.337,0,0.040998,0,7869.9,51,0,0,0,0,0.010168,0
7702.2,54.233,19.337,0,0.040998,0,7869.9,51,0,0,0,0,0.010168,0
7702.2,54.233,19.337,0,0.040998,0,7869.9,51,0,0,0,0,0.010168,0
7702.2,54.233,19.337,0,0.040998,0,7869.9,51,0,0,0,0,0.010168,0
7702.2,54.233,19.337,0,0.040998,0,7869.9,51,0,0,0,0,0.010168,0
7702.2,54.233,19.337,0,0.040998,0,7869.9,51,0,0,0,0,0.010168,0
7702.2,54.233,19.337,0,0.040998,0,7869.9,51,0,0,0,0,0.010168,0
7703,54.233,19.339,0,0.041072,0,7869.9,51,0,0,0,0,0.010215,0
7703,54.233,19.339,0,0.041072,0,7869.9,51,0,0,0,0,0.010215,0
7703,54.233,19.339,0,0.041072,0,7869.9,51,0,0,0,0,0.010215,0
7703,54.233,19.339,0,0.041072,0,7869.9,51,0,0,0,0,0.010215,0
7703,54.233,19.339,0,0.041072,0,7869.9,51,0,0,0,0,0.010215,0
7706.1,54.233,19.345,0,0.041366,0,7869.9,51,0,0,0,0,0.010408,0
7706.1,54.233,19.345,0,0.041366,0,7869.9,51,0,0,0,0,0.010408,0
7706.1,54.233,19.345,0,0.041366,0,7869.9,51,0,0,0,0,0.010408,0
7706.1,54.233,19.345,0,0.041366,0,7869.9,51,0,0,0,0,0.010408,0
7706.1,54.233,19.345,0,0.041366,0,7869.9,51,0,0,0,0,0.010408,0
7706.1,54.233,19.345,0,0.041366,0,7869.9,51,0,0,0,0,0.010408,0
7706.1,54.233,19.345,0,0.041366,0,7869.9,51,0,0,0,0,0.010408,0
7706.1,54.233,19.345,0,0.041366,0,7869.9,51,0,0,0,0,0.010408,0
7706.1,54.233,19.345,0,0.041366,0,7869.9,51,0,0,0,0,0.010408,0
7706.1,54.233,19.345,0,0.041366,0,7869.9,51,0,0,0,0,0.010408,0
7706.1,54.233,19.345,0,0.041366,0,7869.9,51,0,0,0,0,0.010408,0
7706.9,54.233,19.347,0,0.041438,0,7869.9,51,0,0,0,0,0.010457,0
7706.9,54.233,19.347,0,0.041438,0,7869.9,51,0,0,0,0,0.010457,0
7706.9,54.233,19.347,0,0.041438,0,7869.9,51,0,0,0,0,0.010457,0
7706.9,54.233,19.347,0,0.041438,0,7869.9,51,0,0,0,0,0.010457,0
7706.9,54.233,19.347,0,0.041438,0,7869.9,51,0,0,0,0,0.010457,0
7706.9,54.233,19.347,0,0.041438,0,7869.9,51,0,0,0,0,0.010457,0
7706.9,54.233,19.347,0,0.041438,0,7869.9,51,0,0,0,0,0.010457,0
7706.9,54.233,19.347,0,0.041438,0,7869.9,51,0,0,0,0,0.010457,0
7706.9,54.233,19.347,0,0.041438,0,7869.9,51,0,0,0,0,0.010457,0
7706.9,54.233,19.347,0,0.041438,0,7869.9,51,0,0,0,0,0.010457,0
7706.9,54.233,19.347,0,0.041438,0,7869.9,51,0,0,0,0,0.010457,0
7706.9,54.233,19.347,0,0.041438,0,7869.9,51,0,0,0,0,0.010457,0
7709.2,54.233,19.352,0,0.041652,0,7869.9,51,0,0,0,0,0.010608,0
7709.2,54.233,19.352,0,0.041652,0,7869.9,51,0,0,0,0,0.010608,0
7709.6,54.233,19.353,0,0.041687,0,7869.9,51,0,0,0,0,0.010634,0
7709.6,54.233,19.353,0,0.041687,0,7869.9,51,0,0,0,0,0.010634,0
7709.6,54.233,19.353,0,0.041687,0,7869.9,51,0,0,0,0,0.010634,0
7711.5,54.233,19.357,0,0.04186,0,7869.9,51,0,0,0,0,0.010764,0
7711.5,54.233,19.357,0,0.04186,0,7869.9,51,0,0,0,0,0.010764,0
7711.9,54.233,19.358,0,0.041895,0,7869.9,51,0,0,0,0,0.01079,0
7711.9,54.233,19.358,0,0.041895,0,7869.9,51,0,0,0,0,0.01079,0
7711.9,54.233,19.358,0,0.041895,0,7869.9,51,0,0,0,0,0.01079,0
7711.9,54.233,19.358,0,0.041895,0,7869.9,51,0,0,0,0,0.01079,0
7711.9,54.233,19.358,0,0.041895,0,7869.9,51,0,0,0,0,0.01079,0
7711.9,54.233,19.358,0,0.041895,0,7869.9,51,0,0,0,0,0.01079,0
7711.9,54.233,19.358,0,0.041895,0,7869.9,51,0,0,0,0,0.01079,0
7712.3,54.233,19.358,0,0.041929,0,7869.9,51,0,0,0,0,0.010817,0
7712.3,54.233,19.358,0,0.041929,0,7869.9,51,0,0,0,0,0.010817,0
7712.3,54.233,19.358,0,0.041929,0,7869.9,51,0,0,0,0,0.010817,0
7712.3,54.233,19.358,0,0.041929,0,7869.9,51,0,0,0,0,0.010817,0
7712.3,54.233,19.358,0,0.041929,0,7869.9,51,0,0,0,0,0.010817,0
7712.3,54.233,19.358,0,0.041929,0,7869.9,51,0,0,0,0,0.010817,0
7712.3,54.233,19.358,0,0.041929,0,7869.9,51,0,0,0,0,0.010817,0
7712.3,54.233,19.358,0,0.041929,0,7869.9,51,0,0,0,0,0.010817,0
7712.3,54.233,19.358,0,0.041929,0,7869.9,51,0,0,0,0,0.010817,0
7713.1,54.233,19.36,0,0.041998,0,7869.9,51,0,0,0,0,0.01087,0
7714.2,54.233,19.363,0,0.042098,0,7869.9,51,0,0,0,0,0.010951,0
7715.4,54.233,19.365,0,0.042198,0,7869.9,51,0,0,0,0,0.011033,0
7715.4,54.233,19.365,0,0.042198,0,7869.9,51,0,0,0,0,0.011033,0
7715.4,54.233,19.365,0,0.042198,0,7869.9,51,0,0,0,0,0.011033,0
7715.4,54.233,19.365,0,0.042198,0,7869.9,51,0,0,0,0,0.011033,0
7715.4,54.233,19.365,0,0.042198,0,7869.9,51,0,0,0,0,0.011033,0
7715.4,54.233,19.365,0,0.042198,0,7869.9,51,0,0,0,0,0.011033,0
7715.4,54.233,19.365,0,0.042198,0,7869.9,51,0,0,0,0,0.011033,0
7715.4,54.233,19.365,0,0.042198,0,7869.9,51,0,0,0,0,0.011033,0
7715.4,54.233,19.365,0,0.042198,0,7869.9,51,0,0,0,0,0.011033,0
7715.4,54.233,19.365,0,0.042198,0,7869.9,51,0,0,0,0,0.011033,0
7715.4,54.233,19.365,0,0.042198,0,7869.9,51,0,0,0,0,0.011033,0
7716.6,54.233,19.368,0,0.042297,0,7869.9,51,0,0,0,0,0.011117,0
7716.6,54.233,19.368,0,0.042297,0,7869.9,51,0,0,0,0,0.011117,0
7716.6,54.233,19.368,0,0.042297,0,7869.9,51,0,0,0,0,0.011117,0
7716.6,54.233,19.368,0,0.042297,0,7869.9,51,0,0,0,0,0.011117,0
7716.6,54.233,19.368,0,0.042297,0,7869.9,51,0,0,0,0,0.011117,0
7716.6,54.233,19.368,0,0.042297,0,7869.9,51,0,0,0,0,0.011117,0
7716.6,54.233,19.368,0,0.042297,0,7869.9,51,0,0,0,0,0.011117,0
7716.6,54.233,19.368,0,0.042297,0,7869.9,51,0,0,0,0,0.011117,0
7716.6,54.233,19.368,0,0.042297,0,7869.9,51,0,0,0,0,0.011117,0
7716.6,54.233,19.368,0,0.042297,0,7869.9,51,0,0,0,0,0.011117,0
7716.6,54.233,19.368,0,0.042297,0,7869.9,51,0,0,0,0,0.011117,0
7716.6,54.233,19.368,0,0.042297,0,7869.9,51,0,0,0,0,0.011117,0
7716.6,54.233,19.368,0,0.042297,0,7869.9,51,0,0,0,0,0.011117,0
7717.3,54.233,19.369,0,0.042362,0,7869.9,51,0,0,0,0,0.011173,0
7717.3,54.233,19.369,0,0.042362,0,7869.9,51,0,0,0,0,0.011173,0
7720.4,54.233,19.376,0,0.042618,0,7869.9,51,0,0,0,0,0.011405,0
7720.4,54.233,19.376,0,0.042618,0,7869.9,51,0,0,0,0,0.011405,0
7720.8,54.233,19.377,0,0.04265,0,7869.9,51,0,0,0,0,0.011435,0
7721.2,54.233,19.378,0,0.042681,0,7869.9,51,0,0,0,0,0.011464,0
7721.2,54.233,19.378,0,0.042681,0,7869.9,51,0,0,0,0,0.011464,0
7721.2,54.233,19.378,0,0.042681,0,7869.9,51,0,0,0,0,0.011464,0
7721.2,54.233,19.378,0,0.042681,0,7869.9,51,0,0,0,0,0.011464,0
7721.2,54.233,19.378,0,0.042681,0,7869.9,51,0,0,0,0,0.011464,0
7721.2,54.233,19.378,0,0.042681,0,7869.9,51,0,0,0,0,0.011464,0
7721.2,54.233,19.378,0,0.042681,0,7869.9,51,0,0,0,0,0.011464,0
7721.2,54.233,19.378,0,0.042681,0,7869.9,51,0,0,0,0,0.011464,0
7721.2,54.233,19.378,0,0.042681,0,7869.9,51,0,0,0,0,0.011464,0
7721.2,54.233,19.378,0,0.042681,0,7869.9,51,0,0,0,0,0.011464,0
7721.2,54.233,19.378,0,0.042681,0,7869.9,51,0,0,0,0,0.011464,0
7721.2,54.233,19.378,0,0.042681,0,7869.9,51,0,0,0,0,0.011464,0
7721.2,54.233,19.378,0,0.042681,0,7869.9,51,0,0,0,0,0.011464,0
7721.2,54.233,19.378,0,0.042681,0,7869.9,51,0,0,0,0,0.011464,0
7721.2,54.233,19.378,0,0.042681,0,7869.9,51,0,0,0,0,0.011464,0
7721.2,54.233,19.378,0,0.042681,0,7869.9,51,0,0,0,0,0.011464,0
7722,54.233,19.38,0,0.042744,0,7869.9,51,0,0,0,0,0.011525,0
7722,54.233,19.38,0,0.042744,0,7869.9,51,0,0,0,0,0.011525,0
7722.4,54.233,19.38,0,0.042774,0,7869.9,51,0,0,0,0,0.011555,0
7723.9,54.233,19.384,0,0.042897,0,7869.9,51,0,0,0,0,0.011677,0
7723.9,54.233,19.384,0,0.042897,0,7869.9,51,0,0,0,0,0.011677,0
7725.1,54.233,19.387,0,0.042987,0,7869.9,51,0,0,0,0,0.011771,0
7725.5,54.233,19.387,0,0.043017,0,7869.9,51,0,0,0,0,0.011803,0
7725.5,54.233,19.387,0,0.043017,0,7869.9,51,0,0,0,0,0.011803,0
7725.5,54.233,19.387,0,0.043017,0,7869.9,51,0,0,0,0,0.011803,0
7725.5,54.233,19.387,0,0.043017,0,7869.9,51,0,0,0,0,0.011803,0
7725.5,54.233,19.387,0,0.043017,0,7869.9,51,0,0,0,0,0.011803,0
7725.5,54.233,19.387,0,0.043017,0,7869.9,51,0,0,0,0,0.011803,0
7725.5,54.233,19.387,0,0.043017,0,7869.9,51,0,0,0,0,0.011803,0
7725.5,54.233,19.387,0,0.043017,0,7869.9,51,0,0,0,0,0.011803,0
7725.5,54.233,19.387,0,0.043017,0,7869.9,51,0,0,0,0,0.011803,0
7725.5,54.233,19.387,0,0.043017,0,7869.9,51,0,0,0,0,0.011803,0
7725.5,54.233,19.387,0,0.043017,0,7869.9,51,0,0,0,0,0.011803,0
7725.5,54.233,19.387,0,0.043017,0,7869.9,51,0,0,0,0,0.011803,0
7725.5,54.233,19.387,0,0.043017,0,7869.9,51,0,0,0,0,0.011803,0
7725.5,54.233,19.387,0,0.043017,0,7869.9,51,0,0,0,0,0.011803,0
7725.5,54.233,19.387,0,0.043017,0,7869.9,51,0,0,0,0,0.011803,0
7725.5,54.233,19.387,0,0.043017,0,7869.9,51,0,0,0,0,0.011803,0
7726.3,54.233,19.389,0,0.043076,0,7869.9,51,0,0,0,0,0.011866,0
7726.3,54.233,19.389,0,0.043076,0,7869.9,51,0,0,0,0,0.011866,0
7726.3,54.233,19.389,0,0.043076,0,7869.9,51,0,0,0,0,0.011866,0
7726.3,54.233,19.389,0,0.043076,0,7869.9,51,0,0,0,0,0.011866,0
7726.6,54.233,19.39,0,0.043106,0,7869.9,51,0,0,0,0,0.011899,0
7728.2,54.233,19.393,0,0.043222,0,7869.9,51,0,0,0,0,0.012029,0
7729.4,54.233,19.396,0,0.043309,0,7869.9,51,0,0,0,0,0.012128,0
7730.1,54.233,19.398,0,0.043365,0,7869.9,51,0,0,0,0,0.012196,0
7730.1,54.233,19.398,0,0.043365,0,7869.9,51,0,0,0,0,0.012196,0
7730.1,54.233,19.398,0,0.043365,0,7869.9,51,0,0,0,0,0.012196,0
7730.1,54.233,19.398,0,0.043365,0,7869.9,51,0,0,0,0,0.012196,0
7730.1,54.233,19.398,0,0.043365,0,7869.9,51,0,0,0,0,0.012196,0
7730.1,54.233,19.398,0,0.043365,0,7869.9,51,0,0,0,0,0.012196,0
7730.1,54.233,19.398,0,0.043365,0,7869.9,51,0,0,0,0,0.012196,0
7730.1,54.233,19.398,0,0.043365,0,7869.9,51,0,0,0,0,0.012196,0
7730.1,54.233,19.398,0,0.043365,0,7869.9,51,0,0,0,0,0.012196,0
7730.1,54.233,19.398,0,0.043365,0,7869.9,51,0,0,0,0,0.012196,0
7730.1,54.233,19.398,0,0.043365,0,7869.9,51,0,0,0,0,0.012196,0
7730.1,54.233,19.398,0,0.043365,0,7869.9,51,0,0,0,0,0.012196,0
7730.1,54.233,19.398,0,0.043365,0,7869.9,51,0,0,0,0,0.012196,0
7730.1,54.233,19.398,0,0.043365,0,7869.9,51,0,0,0,0,0.012196,0
7730.1,54.233,19.398,0,0.043365,0,7869.9,51,0,0,0,0,0.012196,0
7730.1,54.233,19.398,0,0.043365,0,7869.9,51,0,0,0,0,0.012196,0
7730.1,54.233,19.398,0,0.043365,0,7869.9,51,0,0,0,0,0.012196,0
7730.9,54.233,19.399,0,0.043421,0,7869.9,51,0,0,0,0,0.012264,0
7730.9,54.233,19.399,0,0.043421,0,7869.9,51,0,0,0,0,0.012264,0
7730.9,54.233,19.399,0,0.043421,0,7869.9,51,0,0,0,0,0.012264,0
7730.9,54.233,19.399,0,0.043421,0,7869.9,51,0,0,0,0,0.012264,0
7732.5,54.233,19.403,0,0.043532,0,7869.9,51,0,0,0,0,0.012402,0
7732.5,54.233,19.403,0,0.043532,0,7869.9,51,0,0,0,0,0.012402,0
7732.5,54.233,19.403,0,0.043532,0,7869.9,51,0,0,0,0,0.012402,0
7733.2,54.233,19.405,0,0.043587,0,7869.9,51,0,0,0,0,0.012472,0
7733.2,54.233,19.405,0,0.043587,0,7869.9,51,0,0,0,0,0.012472,0
7733.2,54.233,19.405,0,0.043587,0,7869.9,51,0,0,0,0,0.012472,0
7733.2,54.233,19.405,0,0.043587,0,7869.9,51,0,0,0,0,0.012472,0
7734.8,54.233,19.408,0,0.043695,0,7869.9,51,0,0,0,0,0.012616,0
7734.8,54.233,19.408,0,0.043695,0,7869.9,51,0,0,0,0,0.012616,0
7734.8,54.233,19.408,0,0.043695,0,7869.9,51,0,0,0,0,0.012616,0
7734.8,54.233,19.408,0,0.043695,0,7869.9,51,0,0,0,0,0.012616,0
7734.8,54.233,19.408,0,0.043695,0,7869.9,51,0,0,0,0,0.012616,0
7734.8,54.233,19.408,0,0.043695,0,7869.9,51,0,0,0,0,0.012616,0
7734.8,54.233,19.408,0,0.043695,0,7869.9,51,0,0,0,0,0.012616,0
7734.8,54.233,19.408,0,0.043695,0,7869.9,51,0,0,0,0,0.012616,0
7734.8,54.233,19.408,0,0.043695,0,7869.9,51,0,0,0,0,0.012616,0
7734.8,54.233,19.408,0,0.043695,0,7869.9,51,0,0,0,0,0.012616,0
7734.8,54.233,19.408,0,0.043695,0,7869.9,51,0,0,0,0,0.012616,0
7734.8,54.233,19.408,0,0.043695,0,7869.9,51,0,0,0,0,0.012616,0
7734.8,54.233,19.408,0,0.043695,0,7869.9,51,0,0,0,0,0.012616,0
7736.7,54.233,19.413,0,0.043826,0,7869.9,51,0,0,0,0,0.012799,0
7736.7,54.233,19.413,0,0.043826,0,7869.9,51,0,0,0,0,0.012799,0
7736.7,54.233,19.413,0,0.043826,0,7869.9,51,0,0,0,0,0.012799,0
7736.7,54.233,19.413,0,0.043826,0,7869.9,51,0,0,0,0,0.012799,0
7736.7,54.233,19.413,0,0.043826,0,7869.9,51,0,0,0,0,0.012799,0
7736.7,54.233,19.413,0,0.043826,0,7869.9,51,0,0,0,0,0.012799,0
7736.7,54.233,19.413,0,0.043826,0,7869.9,51,0,0,0,0,0.012799,0
7736.7,54.233,19.413,0,0.043826,0,7869.9,51,0,0,0,0,0.012799,0
7736.7,54.233,19.413,0,0.043826,0,7869.9,51,0,0,0,0,0.012799,0
7736.7,54.233,19.413,0,0.043826,0,7869.9,51,0,0,0,0,0.012799,0
7736.7,54.233,19.413,0,0.043826,0,7869.9,51,0,0,0,0,0.012799,0
7736.7,54.233,19.413,0,0.043826,0,7869.9,51,0,0,0,0,0.012799,0
7736.7,54.233,19.413,0,0.043826,0,7869.9,51,0,0,0,0,0.012799,0
7738.7,54.233,19.417,0,0.043956,0,7869.9,51,0,0,0,0,0.012989,0
7738.7,54.233,19.417,0,0.043956,0,7869.9,51,0,0,0,0,0.012989,0
7738.7,54.233,19.417,0,0.043956,0,7869.9,51,0,0,0,0,0.012989,0
7738.7,54.233,19.417,0,0.043956,0,7869.9,51,0,0,0,0,0.012989,0
7739.8,54.233,19.42,0,0.04403,0,7869.9,51,0,0,0,0,0.013105,0
7739.8,54.233,19.42,0,0.04403,0,7869.9,51,0,0,0,0,0.013105,0
7741,54.233,19.422,0,0.044104,0,7869.9,51,0,0,0,0,0.013223,0
7741,54.233,19.422,0,0.044104,0,7869.9,51,0,0,0,0,0.013223,0
7741,54.233,19.422,0,0.044104,0,7869.9,51,0,0,0,0,0.013223,0
7741,54.233,19.422,0,0.044104,0,7869.9,51,0,0,0,0,0.013223,0
7741,54.233,19.422,0,0.044104,0,7869.9,51,0,0,0,0,0.013223,0
7741,54.233,19.422,0,0.044104,0,7869.9,51,0,0,0,0,0.013223,0
7741.4,54.233,19.423,0,0.044129,0,7869.9,51,0,0,0,0,0.013263,0
7741.4,54.233,19.423,0,0.044129,0,7869.9,51,0,0,0,0,0.013263,0
7742.2,54.233,19.425,0,0.044177,0,7869.9,51,0,0,0,0,0.013344,0
7742.2,54.233,19.425,0,0.044177,0,7869.9,51,0,0,0,0,0.013344,0
7742.2,54.233,19.425,0,0.044177,0,7869.9,51,0,0,0,0,0.013344,0
7742.2,54.233,19.425,0,0.044177,0,7869.9,51,0,0,0,0,0.013344,0
7743.3,54.233,19.428,0,0.04425,0,7869.9,51,0,0,0,0,0.013467,0
7743.3,54.233,19.428,0,0.04425,0,7869.9,51,0,0,0,0,0.013467,0
7743.7,54.233,19.428,0,0.044273,0,7869.9,51,0,0,0,0,0.013508,0
7743.7,54.233,19.428,0,0.044273,0,7869.9,51,0,0,0,0,0.013508,0
7743.7,54.233,19.428,0,0.044273,0,7869.9,51,0,0,0,0,0.013508,0
7744.1,54.233,19.429,0,0.044296,0,7869.9,51,0,0,0,0,0.01355,0
7744.1,54.233,19.429,0,0.044296,0,7869.9,51,0,0,0,0,0.01355,0
7744.1,54.233,19.429,0,0.044296,0,7869.9,51,0,0,0,0,0.01355,0
7744.1,54.233,19.429,0,0.044296,0,7869.9,51,0,0,0,0,0.01355,0
7744.1,54.233,19.429,0,0.044296,0,7869.9,51,0,0,0,0,0.01355,0
7745.7,54.233,19.433,0,0.044389,0,7869.9,51,0.04,0,4,0,0.013747,0
7745.7,54.233,19.433,0,0.044389,0,7869.9,51,0.04,0,4,0,0.013747,0
7745.7,54.233,19.433,0,0.044389,0,7869.9,51,0.04,0,4,0,0.013747,0
7745.7,54.233,19.433,0,0.044389,0,7869.9,51,0.04,0,4,0,0.013747,0
7745.7,54.233,19.433,0,0.044389,0,7869.9,51,0.04,0,4,0,0.013747,0
7745.7,54.233,19.433,0,0.044389,0,7869.9,51,0.04,0,4,0,0.013747,0
7745.7,54.233,19.433,0,0.044389,0,7869.9,51,0.04,0,4,0,0.013747,0
7745.7,54.233,19.433,0,0.044389,0,7869.9,51,0.04,0,4,0,0.013747,0
7745.7,54.233,19.433,0,0.044389,0,7869.9,51,0.2,-6.3226e-05,4,-0.0027068,0.013857,0
7746.4,54.233,19.435,0,0.044436,0,7869.9,51,0.2,-6.3226e-05,4,-0.0027068,0.013944,0
7746.4,54.233,19.435,0,0.044436,0,7869.9,51,0.2,-6.3226e-05,4,-0.0027068,0.013944,0
7746.4,54.233,19.435,0,0.044436,0,7869.9,51,0.2,-6.3226e-05,4,-0.0027068,0.013944,0
7746.4,54.233,19.435,0,0.044436,0,7869.9,51,0.2,-6.3226e-05,4,-0.0027068,0.013944,0
7746.4,54.233,19.435,0,0.044436,0,7869.9,51,0.2,-6.3226e-05,4,-0.0027068,0.013944,0
7746.4,54.233,19.435,0,0.044436,0,7869.9,51,0.2,-6.3226e-05,4,-0.0027068,0.013944,0
7746.4,54.233,19.435,0,0.044436,0,7869.9,51,0.2,-6.3226e-05,4,-0.0027068,0.013944,0
7746.4,54.233,19.435,0,0.044436,0,7869.9,51,0.2,-6.3226e-05,4,-0.0027068,0.013944,0
7746.4,54.233,19.435,0,0.044436,0,7869.9,51,0.2,-6.3226e-05,4,-0.0027068,0.013944,0
7746.8,54.233,19.436,0,0.044458,0,7869.9,51,0.2,-6.3226e-05,4,-0.0027068,0.013988,0
7748,54.233,19.438,0,0.044525,0,7869.9,51,0.44,-0.00078129,4,-0.019386,0.01429,0
7748,54.233,19.438,0,0.044525,0,7870,51,0.67999,-0.003065,3.9998,-0.049455,0.014458,0
7748,54.233,19.438,0,0.044525,0,7870,51,0.67999,-0.003065,3.9998,-0.049455,0.014458,0
7748,54.233,19.438,0,0.044525,0,7870,51,0.67999,-0.003065,3.9998,-0.049455,0.014458,0
7748,54.233,19.438,0,0.044525,0,7870,51,0.67999,-0.003065,3.9998,-0.049455,0.014458,0
7748,54.233,19.438,0,0.044525,0,7870,51,0.67999,-0.003065,3.9998,-0.049455,0.014458,0
7748,54.233,19.438,0,0.044525,0,7870,51,0.91997,-0.0074484,3.9995,-0.087921,0.014627,0
7749.9,54.233,19.443,0,0.044635,0,7870,51,0.91997,-0.0074484,3.9995,-0.087921,0.014864,0
7749.9,54.233,19.443,0,0.044635,0,7870,50.999,1.0799,-0.01177,3.999,-0.11736,0.014978,0
7749.9,54.233,19.443,0,0.044635,0,7870,50.999,1.0799,-0.01177,3.999,-0.11736,0.014978,0
7749.9,54.233,19.443,0,0.044635,0,7870,50.999,1.0799,-0.01177,3.999,-0.11736,0.014978,0
7749.9,54.233,19.443,0,0.044635,0,7870,50.999,1.0799,-0.01177,3.999,-0.11736,0.014978,0
7750.7,54.233,19.444,0,0.044677,0,7870,50.999,1.0799,-0.01177,3.999,-0.11736,0.015075,0
7751.5,54.233,19.446,0,0.04472,0,7870.1,50.999,1.2399,-0.017317,3.9984,-0.1487,0.01529,0
7751.9,54.233,19.447,0,0.04474,0,7870.1,50.999,1.2399,-0.017317,3.9984,-0.1487,0.01534,0
7751.9,54.233,19.447,0,0.04474,0,7870.1,50.999,1.2399,-0.017317,3.9984,-0.1487,0.01534,0
7751.9,54.233,19.447,0,0.04474,0,7870.1,50.999,1.2399,-0.017317,3.9984,-0.1487,0.01534,0
7751.9,54.233,19.447,0,0.04474,0,7870.1,50.999,1.2399,-0.017317,3.9984,-0.1487,0.01534,0
7751.9,54.233,19.447,0,0.04474,0,7870.1,50.999,1.2399,-0.017317,3.9984,-0.1487,0.01534,0
7752.7,54.233,19.449,0,0.044752,0,7870.1,50.999,1.2399,-0.017317,3.9984,-0.1487,0.015442,0
7752.7,54.233,19.449,0,0.044752,0,7870.1,50.999,1.2399,-0.017317,3.9984,-0.1487,0.015442,0
7752.7,54.233,19.449,0,0.044752,0,7870.1,50.999,1.2399,-0.017317,3.9984,-0.1487,0.015442,0
7752.7,54.233,19.449,0,0.044752,0,7870.1,50.999,1.2399,-0.017317,3.9984,-0.1487,0.015442,0
7752.7,54.233,19.449,0,0.044752,0,7870.1,50.999,1.2399,-0.017317,3.9984,-0.1487,0.015442,0
7752.7,54.233,19.449,0,0.044752,0,7870.1,50.999,1.2399,-0.017317,3.9984,-0.1487,0.015442,0
7752.7,54.233,19.449,0,0.044752,0,7870.1,50.999,1.2399,-0.017317,3.9984,-0.1487,0.015442,0
7752.7,54.233,19.449,0,0.044752,0,7870.1,50.999,1.2399,-0.017317,3.9984,-0.1487,0.015442,0
7752.7,54.233,19.449,0,0.044752,0,7870.1,50.999,1.2399,-0.017317,3.9984,-0.1487,0.015442,0
7753.1,54.233,19.45,0,0.044772,0,7870.1,50.999,1.2399,-0.017317,3.9984,-0.1487,0.015493,0
7753.1,54.233,19.45,0,0.044772,0,7870.1,50.999,1.2399,-0.017317,3.9984,-0.1487,0.015493,0
7753.1,54.233,19.45,0,0.044772,0,7870.1,50.999,1.2399,-0.017317,3.9984,-0.1487,0.015493,0
7753.4,54.233,19.451,0,0.044793,0,7870.1,50.999,1.2399,-0.017317,3.9984,-0.1487,0.015545,0
7753.4,54.233,19.451,0,0.044793,0,7870.3,50.994,1.7994,-0.04664,3.9948,-0.25826,0.015957,0
7754.2,54.233,19.452,0,0.044833,0,7870.3,50.994,1.7994,-0.04664,3.9948,-0.25826,0.016063,0
7754.2,54.233,19.452,0,0.044833,0,7870.4,50.991,2.039,-0.06352,3.9928,-0.29751,0.016241,0
7755.8,54.233,19.456,0,0.044913,0,7870.4,50.991,2.039,-0.06352,3.9928,-0.29751,0.016461,0
7755.8,54.233,19.456,0,0.044913,0,7870.5,50.987,2.2785,-0.082384,3.9909,-0.3279,0.016641,0
7756.6,54.233,19.458,0,0.044951,0,7870.5,50.987,2.2785,-0.082384,3.9909,-0.3279,0.016754,0
7756.6,54.233,19.458,0,0.044951,0,7870.5,50.987,2.2785,-0.082384,3.9909,-0.3279,0.016754,0
7756.6,54.233,19.458,0,0.044951,0,7870.5,50.987,2.2785,-0.082384,3.9909,-0.3279,0.016754,0
7756.6,54.233,19.458,0,0.044951,0,7870.5,50.987,2.2785,-0.082384,3.9909,-0.3279,0.016754,0
7756.6,54.233,19.458,0,0.044951,0,7870.5,50.987,2.2785,-0.082384,3.9909,-0.3279,0.016754,0
7756.6,54.233,19.458,0,0.044951,0,7870.5,50.987,2.2785,-0.082384,3.9909,-0.3279,0.016754,0
7756.9,54.233,19.459,0,0.044971,0,7870.5,50.987,2.2785,-0.082384,3.9909,-0.3279,0.016811,0
7756.9,54.233,19.459,0,0.044971,0,7870.5,50.987,2.2785,-0.082384,3.9909,-0.3279,0.016811,0
7756.9,54.233,19.459,0,0.044971,0,7870.5,50.987,2.2785,-0.082384,3.9909,-0.3279,0.016811,0
7756.9,54.233,19.459,0,0.044971,0,7870.5,50.987,2.2785,-0.082384,3.9909,-0.3279,0.016811,0
7756.9,54.233,19.459,0,0.044971,0,7870.5,50.987,2.2785,-0.082384,3.9909,-0.3279,0.016811,0
7756.9,54.233,19.459,0,0.044971,0,7870.5,50.987,2.2785,-0.082384,3.9909,-0.3279,0.016811,0
7756.9,54.233,19.459,0,0.044971,0,7870.7,50.981,2.5179,-0.10262,3.9893,-0.34732,0.016992,0
7756.9,54.233,19.459,0,0.044971,0,7870.7,50.981,2.5179,-0.10262,3.9893,-0.34732,0.016992,0
7756.9,54.233,19.459,0,0.044971,0,7870.7,50.981,2.5179,-0.10262,3.9893,-0.34732,0.016992,0
7756.9,54.233,19.459,0,0.044971,0,7870.7,50.981,2.5179,-0.10262,3.9893,-0.34732,0.016992,0
7756.9,54.233,19.459,0,0.044971,0,7870.7,50.981,2.5179,-0.10262,3.9893,-0.34732,0.016992,0
7756.9,54.233,19.459,0,0.044971,0,7870.7,50.981,2.5179,-0.10262,3.9893,-0.34732,0.016992,0
7757.7,54.233,19.461,0,0.04501,0,7870.7,50.981,2.5179,-0.10262,3.9893,-0.34732,0.017109,0
7757.7,54.233,19.461,0,0.04501,0,7870.8,50.974,2.7572,-0.12351,3.9882,-0.35446,0.017291,0
7758.9,54.233,19.463,0,0.045066,0,7870.8,50.974,2.7572,-0.12351,3.9882,-0.35446,0.017471,0
7758.9,54.233,19.463,0,0.045066,0,7871,50.966,2.9965,-0.14431,3.9879,-0.34887,0.017654,0
7760.8,54.233,19.468,0,0.045157,0,7871.1,50.963,3.0763,-0.15109,3.988,-0.34421,0.018027,0
7760.8,54.233,19.468,0,0.045157,0,7871.3,50.953,3.3156,-0.17062,3.9887,-0.32229,0.018213,0
7760.8,54.233,19.468,0,0.045157,0,7871.3,50.953,3.3156,-0.17062,3.9887,-0.32229,0.018213,0
7760.8,54.233,19.468,0,0.045157,0,7871.3,50.953,3.3156,-0.17062,3.9887,-0.32229,0.018213,0
7760.8,54.233,19.468,0,0.045157,0,7871.3,50.95,3.3954,-0.17677,3.9892,-0.31249,0.018274,0
7760.8,54.233,19.468,0,0.045157,0,7871.3,50.95,3.3954,-0.17677,3.9892,-0.31249,0.018274,0
7760.8,54.233,19.468,0,0.045157,0,7871.3,50.95,3.3954,-0.17677,3.9892,-0.31249,0.018274,0
7760.8,54.233,19.468,0,0.045157,0,7871.3,50.95,3.3954,-0.17677,3.9892,-0.31249,0.018274,0
7760.8,54.233,19.468,0,0.045157,0,7871.3,50.95,3.3954,-0.17677,3.9892,-0.31249,0.018274,0
7760.8,54.233,19.468,0,0.045157,0,7871.3,50.95,3.3954,-0.17677,3.9892,-0.31249,0.018274,0
7760.8,54.233,19.468,0,0.045157,0,7871.3,50.95,3.3954,-0.17677,3.9892,-0.31249,0.018274,0
7760.8,54.233,19.468,0,0.045157,0,7871.3,50.95,3.3954,-0.17677,3.9892,-0.31249,0.018274,0
7760.8,54.233,19.468,0,0.045157,0,7871.3,50.95,3.3954,-0.17677,3.9892,-0.31249,0.018274,0
7762,54.233,19.47,0,0.04521,0,7871.3,50.95,3.3954,-0.17677,3.9892,-0.31249,0.018469,0
7762,54.233,19.47,0,0.04521,0,7871.3,50.95,3.3954,-0.17677,3.9892,-0.31249,0.018469,0
7762,54.233,19.47,0,0.04521,0,7871.3,50.95,3.3954,-0.17677,3.9892,-0.31249,0.018469,0
7762,54.233,19.47,0,0.04521,0,7871.3,50.95,3.3954,-0.17677,3.9892,-0.31249,0.018469,0
7762,54.233,19.47,0,0.04521,0,7871.3,50.95,3.3954,-0.17677,3.9892,-0.31249,0.018469,0
7762.4,54.233,19.471,0,0.045228,0,7871.3,50.95,3.3954,-0.17677,3.9892,-0.31249,0.018535,0
7762.4,54.233,19.471,0,0.045228,0,7871.3,50.95,3.3954,-0.17677,3.9892,-0.31249,0.018535,0
7762.8,54.233,19.472,0,0.045245,0,7871.3,50.95,3.3954,-0.17677,3.9892,-0.31249,0.018602,0
7762.8,54.233,19.472,0,0.045245,0,7871.7,50.931,3.7945,-0.20385,3.9925,-0.24764,0.018914,0
7764.3,54.233,19.476,0,0.045313,0,7871.7,50.931,3.7945,-0.20385,3.9925,-0.24764,0.019188,0
7764.3,54.233,19.476,0,0.045313,0,7871.7,50.931,3.7945,-0.20385,3.9925,-0.24764,0.019188,0
7765.1,54.233,19.478,0,0.045346,0,7871.9,50.918,4.0342,-0.21653,3.9951,-0.19881,0.019518,0
7765.1,54.233,19.478,0,0.045346,0,7872.1,50.909,4.1941,-0.22329,3.997,-0.16354,0.019644,0
7765.1,54.233,19.478,0,0.045346,0,7872.1,50.909,4.1941,-0.22329,3.997,-0.16354,0.019644,0
7765.1,54.233,19.478,0,0.045346,0,7872.2,50.905,4.274,-0.22613,3.9979,-0.14535,0.019707,0
7765.1,54.233,19.478,0,0.045346,0,7872.3,50.9,4.354,-0.2286,3.9989,-0.12691,0.01977,0
7765.1,54.233,19.478,0,0.045346,0,7872.3,50.9,4.354,-0.2286,3.9989,-0.12691,0.01977,0
7765.1,54.233,19.478,0,0.045346,0,7872.3,50.9,4.354,-0.2286,3.9989,-0.12691,0.01977,0
7765.1,54.233,19.478,0,0.045346,0,7872.3,50.9,4.354,-0.2286,3.9989,-0.12691,0.01977,0
7765.1,54.233,19.478,0,0.045346,0,7872.3,50.9,4.354,-0.2286,3.9989,-0.12691,0.01977,0
7765.1,54.233,19.478,0,0.045346,0,7872.3,50.9,4.354,-0.2286,3.9989,-0.12691,0.01977,0
7766.7,54.233,19.481,0,0.045411,0,7872.3,50.9,4.354,-0.2286,3.9989,-0.12691,0.020062,0
7766.7,54.233,19.481,0,0.045411,0,7872.3,50.9,4.354,-0.2286,3.9989,-0.12691,0.020062,0
7767.1,54.233,19.482,0,0.045427,0,7872.3,50.9,4.354,-0.2286,3.9989,-0.12691,0.020136,0
7767.1,54.233,19.482,0,0.045427,0,7872.3,50.9,4.354,-0.2286,3.9989,-0.12691,0.020136,0
7767.1,54.233,19.482,0,0.045427,0,7872.3,50.9,4.354,-0.2286,3.9989,-0.12691,0.020136,0
7767.1,54.233,19.482,0,0.045427,0,7872.3,50.9,4.354,-0.2286,3.9989,-0.12691,0.020136,0
7767.1,54.233,19.482,0,0.045427,0,7872.3,50.9,4.354,-0.2286,3.9989,-0.12691,0.020136,0
7767.1,54.233,19.482,0,0.045427,0,7872.3,50.9,4.354,-0.2286,3.9989,-0.12691,0.020136,0
7767.1,54.233,19.482,0,0.045427,0,7872.3,50.9,4.354,-0.2286,3.9989,-0.12691,0.020136,0
7767.1,54.233,19.482,0,0.045427,0,7872.3,50.9,4.354,-0.2286,3.9989,-0.12691,0.020136,0
7767.1,54.233,19.482,0,0.045427,0,7872.3,50.9,4.354,-0.2286,3.9989,-0.12691,0.020136,0
7767.1,54.233,19.482,0,0.045427,0,7872.3,50.9,4.354,-0.2286,3.9989,-0.12691,0.020136,0
7767.1,54.233,19.482,0,0.045427,0,7872.5,50.887,4.5941,-0.23382,4.0016,-0.070896,0.020327,0
7768.2,54.233,19.485,0,0.045475,0,7872.5,50.887,4.5941,-0.23382,4.0016,-0.070896,0.020554,0
7768.2,54.233,19.485,0,0.045475,0,7872.5,50.887,4.5941,-0.23382,4.0016,-0.070896,0.020554,0
7768.2,54.233,19.485,0,0.045475,0,7872.8,50.872,4.8343,-0.23573,4.0041,-0.015531,0.020746,0
7770.2,54.233,19.49,0,0.04555,0,7872.9,50.868,4.9144,-0.23566,4.0048,0.0024396,0.021204,0
7770.2,54.233,19.49,0,0.04555,0,7872.9,50.868,4.9144,-0.23566,4.0048,0.0024396,0.021204,0
7771,54.233,19.491,0,0.045579,0,7873.3,50.849,5.2349,-0.23197,4.0072,0.070234,0.021625,0
7771,54.233,19.491,0,0.045579,0,7873.5,50.84,5.3952,-0.22824,4.008,0.10095,0.021754,0
7771,54.233,19.491,0,0.045579,0,7873.5,50.84,5.3952,-0.22824,4.008,0.10095,0.021754,0
7771,54.233,19.491,0,0.045579,0,7873.5,50.84,5.3952,-0.22824,4.008,0.10095,0.021754,0
7771,54.233,19.491,0,0.045579,0,7873.5,50.84,5.3952,-0.22824,4.008,0.10095,0.021754,0
7771,54.233,19.491,0,0.045579,0,7873.5,50.84,5.3952,-0.22824,4.008,0.10095,0.021754,0
7771,54.233,19.491,0,0.045579,0,7873.5,50.84,5.3952,-0.22824,4.008,0.10095,0.021754,0
7771,54.233,19.491,0,0.045579,0,7873.5,50.84,5.3952,-0.22824,4.008,0.10095,0.021754,0
7771,54.233,19.491,0,0.045579,0,7873.5,50.84,5.3952,-0.22824,4.008,0.10095,0.021754,0
7771,54.233,19.491,0,0.045579,0,7873.5,50.84,5.3952,-0.22824,4.008,0.10095,0.021754,0
7771.7,54.233,19.493,0,0.045608,0,7873.5,50.84,5.3952,-0.22824,4.008,0.10095,0.02192,0
7771.7,54.233,19.493,0,0.045608,0,7873.5,50.84,5.3952,-0.22824,4.008,0.10095,0.02192,0
7771.7,54.233,19.493,0,0.045608,0,7873.5,50.84,5.3952,-0.22824,4.008,0.10095,0.02192,0
7771.7,54.233,19.493,0,0.045608,0,7873.5,50.84,5.3952,-0.22824,4.008,0.10095,0.02192,0
7771.7,54.233,19.493,0,0.045608,0,7873.5,50.84,5.3952,-0.22824,4.008,0.10095,0.02192,0
7771.7,54.233,19.493,0,0.045608,0,7873.5,50.84,5.3952,-0.22824,4.008,0.10095,0.02192,0
7771.7,54.233,19.493,0,0.045608,0,7873.5,50.84,5.3952,-0.22824,4.008,0.10095,0.02192,0
7771.7,54.233,19.493,0,0.045608,0,7873.5,50.84,5.3952,-0.22824,4.008,0.10095,0.02192,0
7772.1,54.233,19.494,0,0.045622,0,7873.5,50.84,5.3952,-0.22824,4.008,0.10095,0.022004,0
7772.5,54.233,19.495,0,0.045637,0,7873.5,50.84,5.3952,-0.22824,4.008,0.10095,0.022089,0
7773.7,54.233,19.498,0,0.045679,0,7874.1,50.818,5.796,-0.21419,4.009,0.16605,0.022673,0
7775.3,54.233,19.501,0,0.045732,0,7874.3,50.81,5.9564,-0.20698,4.0091,0.18692,0.02316,0
7775.3,54.233,19.501,0,0.045732,0,7874.3,50.81,5.9564,-0.20698,4.0091,0.18692,0.02316,0
7775.3,54.233,19.501,0,0.045732,0,7874.8,50.794,6.2771,-0.19051,4.0087,0.21937,0.023419,0
7775.3,54.233,19.501,0,0.045732,0,7874.8,50.794,6.2771,-0.19051,4.0087,0.21937,0.023419,0
7775.3,54.233,19.501,0,0.045732,0,7874.8,50.794,6.2771,-0.19051,4.0087,0.21937,0.023419,0
7775.3,54.233,19.501,0,0.045732,0,7874.8,50.794,6.2771,-0.19051,4.0087,0.21937,0.023419,0
7775.3,54.233,19.501,0,0.045732,0,7874.8,50.794,6.2771,-0.19051,4.0087,0.21937,0.023419,0
7775.3,54.233,19.501,0,0.045732,0,7874.8,50.794,6.2771,-0.19051,4.0087,0.21937,0.023419,0
7775.3,54.233,19.501,0,0.045732,0,7874.8,50.794,6.2771,-0.19051,4.0087,0.21937,0.023419,0
7775.3,54.233,19.501,0,0.045732,0,7874.8,50.794,6.2771,-0.19051,4.0087,0.21937,0.023419,0
7775.3,54.233,19.501,0,0.045732,0,7874.8,50.794,6.2771,-0.19051,4.0087,0.21937,0.023419,0
7776,54.233,19.503,0,0.04576,0,7874.8,50.794,6.2771,-0.19051,4.0087,0.21937,0.023603,0
7776,54.233,19.503,0,0.04576,0,7874.8,50.794,6.2771,-0.19051,4.0087,0.21937,0.023603,0
7776,54.233,19.503,0,0.04576,0,7874.8,50.794,6.2771,-0.19051,4.0087,0.21937,0.023603,0
7776,54.233,19.503,0,0.04576,0,7874.8,50.794,6.2771,-0.19051,4.0087,0.21937,0.023603,0
7776,54.233,19.503,0,0.04576,0,7874.8,50.794,6.2771,-0.19051,4.0087,0.21937,0.023603,0
7776,54.233,19.503,0,0.04576,0,7874.8,50.794,6.2771,-0.19051,4.0087,0.21937,0.023603,0
7776,54.233,19.503,0,0.04576,0,7874.8,50.794,6.2771,-0.19051,4.0087,0.21937,0.023603,0
7776,54.233,19.503,0,0.04576,0,7874.8,50.794,6.2771,-0.19051,4.0087,0.21937,0.023603,0
7776,54.233,19.503,0,0.04576,0,7874.8,50.794,6.2771,-0.19051,4.0087,0.21937,0.023603,0
7776,54.233,19.503,0,0.04576,0,7875.1,50.786,6.4374,-0.18149,4.0083,0.23099,0.023732,0
7776,54.233,19.503,0,0.04576,0,7875.1,50.786,6.4374,-0.18149,4.0083,0.23099,0.023732,0
7776,54.233,19.503,0,0.04576,0,7875.1,50.786,6.4374,-0.18149,4.0083,0.23099,0.023732,0
7776,54.233,19.503,0,0.04576,0,7875.2,50.783,6.5176,-0.17684,4.0081,0.23568,0.023796,0
7778,54.233,19.508,0,0.045822,0,7875.2,50.783,6.5176,-0.17684,4.0081,0.23568,0.024273,0
7779.2,54.233,19.511,0,0.045858,0,7875.7,50.77,6.8382,-0.1576,4.0069,0.24738,0.024827,0
7779.2,54.233,19.511,0,0.045858,0,7876.3,50.758,7.1587,-0.13797,4.0057,0.24883,0.025082,0
7780.7,54.233,19.514,0,0.045904,0,7876.4,50.755,7.2388,-0.1331,4.0054,0.24778,0.025555,0
7780.7,54.233,19.514,0,0.045904,0,7876.4,50.755,7.2388,-0.1331,4.0054,0.24778,0.025555,0
7780.7,54.233,19.514,0,0.045904,0,7876.4,50.755,7.2388,-0.1331,4.0054,0.24778,0.025555,0
7780.7,54.233,19.514,0,0.045904,0,7876.4,50.755,7.2388,-0.1331,4.0054,0.24778,0.025555,0
7780.7,54.233,19.514,0,0.045904,0,7876.4,50.755,7.2388,-0.1331,4.0054,0.24778,0.025555,0
7780.7,54.233,19.514,0,0.045904,0,7876.4,50.755,7.2388,-0.1331,4.0054,0.24778,0.025555,0
7780.7,54.233,19.514,0,0.045904,0,7876.4,50.755,7.2388,-0.1331,4.0054,0.24778,0.025555,0
7780.7,54.233,19.514,0,0.045904,0,7876.4,50.755,7.2388,-0.1331,4.0054,0.24778,0.025555,0
7780.7,54.233,19.514,0,0.045904,0,7876.4,50.755,7.2388,-0.1331,4.0054,0.24778,0.025555,0
7780.7,54.233,19.514,0,0.045904,0,7876.4,50.755,7.2388,-0.1331,4.0054,0.24778,0.025555,0
7780.7,54.233,19.514,0,0.045904,0,7876.7,50.75,7.399,-0.12344,4.0048,0.24419,0.025682,0
7780.7,54.233,19.514,0,0.045904,0,7876.7,50.75,7.399,-0.12344,4.0048,0.24419,0.025682,0
7780.7,54.233,19.514,0,0.045904,0,7876.7,50.75,7.399,-0.12344,4.0048,0.24419,0.025682,0
7780.7,54.233,19.514,0,0.045904,0,7876.7,50.75,7.399,-0.12344,4.0048,0.24419,0.025682,0
7780.7,54.233,19.514,0,0.045904,0,7876.7,50.75,7.399,-0.12344,4.0048,0.24419,0.025682,0
7780.7,54.233,19.514,0,0.045904,0,7876.7,50.75,7.399,-0.12344,4.0048,0.24419,0.025682,0
7780.7,54.233,19.514,0,0.045904,0,7876.7,50.75,7.399,-0.12344,4.0048,0.24419,0.025682,0
7780.7,54.233,19.514,0,0.045904,0,7876.7,50.75,7.399,-0.12344,4.0048,0.24419,0.025682,0
7780.7,54.233,19.514,0,0.045904,0,7876.7,50.75,7.399,-0.12344,4.0048,0.24419,0.025682,0
7780.7,54.233,19.514,0,0.045904,0,7876.7,50.75,7.399,-0.12344,4.0048,0.24419,0.025682,0
7780.7,54.233,19.514,0,0.045904,0,7876.9,50.748,7.4791,-0.11869,4.0045,0.24171,0.025745,0
7780.7,54.233,19.514,0,0.045904,0,7876.9,50.748,7.4791,-0.11869,4.0045,0.24171,0.025745,0
7783.1,54.233,19.52,0,0.04597,0,7877,50.745,7.5591,-0.11399,4.0042,0.2388,0.02645,0
7783.4,54.233,19.521,0,0.04598,0,7877,50.745,7.5591,-0.11399,4.0042,0.2388,0.02656,0
7785,54.233,19.524,0,0.046021,0,7878.1,50.732,8.1196,-0.083302,4.0024,0.20911,0.02745,0
7785,54.233,19.524,0,0.046021,0,7878.1,50.732,8.1196,-0.083302,4.0024,0.20911,0.02745,0
7785,54.233,19.524,0,0.046021,0,7878.5,50.729,8.2797,-0.075453,4.002,0.19703,0.027573,0
7785,54.233,19.524,0,0.046021,0,7878.5,50.729,8.2797,-0.075453,4.002,0.19703,0.027573,0
7785,54.233,19.524,0,0.046021,0,7878.5,50.729,8.2797,-0.075453,4.002,0.19703,0.027573,0
7785,54.233,19.524,0,0.046021,0,7878.6,50.727,8.3597,-0.07171,4.0018,0.19087,0.027635,0
7785,54.233,19.524,0,0.046021,0,7878.6,50.727,8.3597,-0.07171,4.0018,0.19087,0.027635,0
7785,54.233,19.524,0,0.046021,0,7878.6,50.727,8.3597,-0.07171,4.0018,0.19087,0.027635,0
7785,54.233,19.524,0,0.046021,0,7878.6,50.727,8.3597,-0.07171,4.0018,0.19087,0.027635,0
7785,54.233,19.524,0,0.046021,0,7878.6,50.727,8.3597,-0.07171,4.0018,0.19087,0.027635,0
7785,54.233,19.524,0,0.046021,0,7878.6,50.727,8.3597,-0.07171,4.0018,0.19087,0.027635,0
7785,54.233,19.524,0,0.046021,0,7878.6,50.727,8.3597,-0.07171,4.0018,0.19087,0.027635,0
7785,54.233,19.524,0,0.046021,0,7878.6,50.727,8.3597,-0.07171,4.0018,0.19087,0.027635,0
7786.2,54.233,19.527,0,0.04605,0,7878.6,50.727,8.3597,-0.07171,4.0018,0.19087,0.027984,0
7786.2,54.233,19.527,0,0.04605,0,7878.6,50.727,8.3597,-0.07171,4.0018,0.19087,0.027984,0
7786.2,54.233,19.527,0,0.04605,0,7878.6,50.727,8.3597,-0.07171,4.0018,0.19087,0.027984,0
7786.2,54.233,19.527,0,0.04605,0,7878.6,50.727,8.3597,-0.07171,4.0018,0.19087,0.027984,0
7786.2,54.233,19.527,0,0.04605,0,7878.6,50.727,8.3597,-0.07171,4.0018,0.19087,0.027984,0
7786.2,54.233,19.527,0,0.04605,0,7878.6,50.727,8.3597,-0.07171,4.0018,0.19087,0.027984,0
7786.2,54.233,19.527,0,0.04605,0,7878.6,50.727,8.3597,-0.07171,4.0018,0.19087,0.027984,0
7786.6,54.233,19.528,0,0.046059,0,7878.6,50.727,8.3597,-0.07171,4.0018,0.19087,0.028103,0
7786.6,54.233,19.528,0,0.046059,0,7878.6,50.727,8.3597,-0.07171,4.0018,0.19087,0.028103,0
7786.6,54.233,19.528,0,0.046059,0,7879.1,50.723,8.5998,-0.061215,4.0014,0.17227,0.028286,0
7788.5,54.233,19.533,0,0.046103,0,7879.7,50.72,8.8398,-0.051809,4.001,0.15395,0.029075,0
7789.7,54.233,19.535,0,0.04613,0,7880,50.718,8.9999,-0.046127,4.0008,0.14209,0.029573,0
7789.7,54.233,19.535,0,0.04613,0,7880.6,50.716,9.2399,-0.038451,4.0006,0.12508,0.029749,0
7789.7,54.233,19.535,0,0.04613,0,7880.6,50.716,9.2399,-0.038451,4.0006,0.12508,0.029749,0
7789.7,54.233,19.535,0,0.04613,0,7880.7,50.715,9.3199,-0.036109,4.0005,0.11965,0.029808,0
7789.7,54.233,19.535,0,0.04613,0,7880.7,50.715,9.3199,-0.036109,4.0005,0.11965,0.029808,0
7789.7,54.233,19.535,0,0.04613,0,7880.7,50.715,9.3199,-0.036109,4.0005,0.11965,0.029808,0
7789.7,54.233,19.535,0,0.04613,0,7880.7,50.715,9.3199,-0.036109,4.0005,0.11965,0.029808,0
7789.7,54.233,19.535,0,0.04613,0,7880.7,50.715,9.3199,-0.036109,4.0005,0.11965,0.029808,0
7789.7,54.233,19.535,0,0.04613,0,7880.7,50.715,9.3199,-0.036109,4.0005,0.11965,0.029808,0
7789.7,54.233,19.535,0,0.04613,0,7880.7,50.715,9.3199,-0.036109,4.0005,0.11965,0.029808,0
7789.7,54.233,19.535,0,0.04613,0,7880.7,50.715,9.3199,-0.036109,4.0005,0.11965,0.029808,0
7789.7,54.233,19.535,0,0.04613,0,7880.7,50.715,9.3199,-0.036109,4.0005,0.11965,0.029808,0
7790.9,54.233,19.538,0,0.046153,0,7880.7,50.715,9.3199,-0.036109,4.0005,0.11965,0.030196,0
7790.9,54.233,19.538,0,0.046153,0,7880.7,50.715,9.3199,-0.036109,4.0005,0.11965,0.030196,0
7790.9,54.233,19.538,0,0.046153,0,7880.7,50.715,9.3199,-0.036109,4.0005,0.11965,0.030196,0
7790.9,54.233,19.538,0,0.046153,0,7880.7,50.715,9.3199,-0.036109,4.0005,0.11965,0.030196,0
7790.9,54.233,19.538,0,0.046153,0,7880.7,50.715,9.3199,-0.036109,4.0005,0.11965,0.030196,0
7790.9,54.233,19.538,0,0.046153,0,7880.7,50.715,9.3199,-0.036109,4.0005,0.11965,0.030196,0
7790.9,54.233,19.538,0,0.046153,0,7880.7,50.715,9.3199,-0.036109,4.0005,0.11965,0.030196,0
7790.9,54.233,19.538,0,0.046153,0,7880.7,50.715,9.3199,-0.036109,4.0005,0.11965,0.030196,0
7791.3,54.233,19.539,0,0.04616,0,7880.7,50.715,9.3199,-0.036109,4.0005,0.11965,0.030327,0
7791.3,54.233,19.539,0,0.04616,0,7880.7,50.715,9.3199,-0.036109,4.0005,0.11965,0.030327,0
7791.3,54.233,19.539,0,0.04616,0,7880.7,50.715,9.3199,-0.036109,4.0005,0.11965,0.030327,0
7791.6,54.233,19.54,0,0.046167,0,7880.7,50.715,9.3199,-0.036109,4.0005,0.11965,0.03046,0
7791.6,54.233,19.54,0,0.046167,0,7881.9,50.711,9.8,-0.02415,4.0002,0.089885,0.030804,0
7793.2,54.233,19.544,0,0.046197,0,7881.9,50.711,9.8,-0.02415,4.0002,0.089885,0.031345,0
7793.2,54.233,19.544,0,0.046197,0,7881.9,50.711,9.8,-0.02415,4.0002,0.089885,0.031345,0
7793.2,54.233,19.544,0,0.046197,0,7882.7,50.71,10.12,-0.017966,4.0001,0.072894,0.031568,0
7793.2,54.233,19.544,0,0.046197,0,7882.7,50.71,10.12,-0.017966,4.0001,0.072894,0.031568,0
7795.2,54.233,19.548,0,0.046229,0,7882.9,50.709,10.2,-0.016617,4.0001,0.069007,0.032325,0
7795.2,54.233,19.548,0,0.046229,0,7882.9,50.709,10.2,-0.016617,4.0001,0.069007,0.032325,0
7795.6,54.233,19.549,0,0.046235,0,7882.9,50.709,10.2,-0.016617,4.0001,0.069007,0.03247,0
7795.6,54.233,19.549,0,0.046235,0,7882.9,50.709,10.2,-0.016617,4.0001,0.069007,0.03247,0
7795.6,54.233,19.549,0,0.046235,0,7883.5,50.709,10.44,-0.013001,4.0001,0.058196,0.03263,0
7795.6,54.233,19.549,0,0.046235,0,7883.7,50.708,10.52,-0.01193,4.0001,0.054869,0.032683,0
7795.6,54.233,19.549,0,0.046235,0,7883.7,50.708,10.52,-0.01193,4.0001,0.054869,0.032683,0
7795.6,54.233,19.549,0,0.046235,0,7883.7,50.708,10.52,-0.01193,4.0001,0.054869,0.032683,0
7795.6,54.233,19.549,0,0.046235,0,7883.7,50.708,10.52,-0.01193,4.0001,0.054869,0.032683,0
7795.6,54.233,19.549,0,0.046235,0,7883.7,50.708,10.52,-0.01193,4.0001,0.054869,0.032683,0
7795.6,54.233,19.549,0,0.046235,0,7883.7,50.708,10.52,-0.01193,4.0001,0.054869,0.032683,0
7795.6,54.233,19.549,0,0.046235,0,7883.7,50.708,10.52,-0.01193,4.0001,0.054869,0.032683,0
7796.7,54.233,19.552,0,0.046251,0,7883.7,50.708,10.52,-0.01193,4.0001,0.054869,0.033123,0
7797.1,54.233,19.553,0,0.046257,0,7883.7,50.708,10.52,-0.01193,4.0001,0.054869,0.033272,0
7797.1,54.233,19.553,0,0.046257,0,7883.7,50.708,10.52,-0.01193,4.0001,0.054869,0.033272,0
7797.1,54.233,19.553,0,0.046257,0,7883.7,50.708,10.52,-0.01193,4.0001,0.054869,0.033272,0
7797.1,54.233,19.553,0,0.046257,0,7883.7,50.708,10.52,-0.01193,4.0001,0.054869,0.033272,0
7797.1,54.233,19.553,0,0.046257,0,7883.7,50.708,10.52,-0.01193,4.0001,0.054869,0.033272,0
7797.1,54.233,19.553,0,0.046257,0,7883.7,50.708,10.52,-0.01193,4.0001,0.054869,0.033272,0
7797.1,54.233,19.553,0,0.046257,0,7883.7,50.708,10.52,-0.01193,4.0001,0.054869,0.033272,0
7797.1,54.233,19.553,0,0.046257,0,7883.7,50.708,10.52,-0.01193,4.0001,0.054869,0.033272,0
7797.1,54.233,19.553,0,0.046257,0,7883.7,50.708,10.52,-0.01193,4.0001,0.054869,0.033272,0
7797.1,54.233,19.553,0,0.046257,0,7883.7,50.708,10.52,-0.01193,4.0001,0.054869,0.033272,0
7798.7,54.233,19.557,0,0.046277,0,7884.4,50.708,10.76,-0.0090807,4,0.045687,0.034037,0
7798.7,54.233,19.557,0,0.046277,0,7884.4,50.708,10.76,-0.0090807,4,0.045687,0.034037,0
7798.7,54.233,19.557,0,0.046277,0,7884.4,50.708,10.76,-0.0090807,4,0.045687,0.034037,0
7798.7,54.233,19.557,0,0.046277,0,7884.4,50.708,10.76,-0.0090807,4,0.045687,0.034037,0
7798.7,54.233,19.557,0,0.046277,0,7884.4,50.708,10.76,-0.0090807,4,0.045687,0.034037,0
7798.7,54.233,19.557,0,0.046277,0,7884.4,50.708,10.76,-0.0090807,4,0.045687,0.034037,0
7798.7,54.233,19.557,0,0.046277,0,7884.4,50.708,10.76,-0.0090807,4,0.045687,0.034037,0
7798.7,54.233,19.557,0,0.046277,0,7884.4,50.708,10.76,-0.0090807,4,0.045687,0.034037,0
7798.7,54.233,19.557,0,0.046277,0,7884.4,50.708,10.76,-0.0090807,4,0.045687,0.034037,0
7799.1,54.233,19.558,0,0.046282,0,7884.4,50.708,10.76,-0.0090807,4,0.045687,0.034192,0
7799.1,54.233,19.558,0,0.046282,0,7884.4,50.708,10.76,-0.0090807,4,0.045687,0.034192,0
7800.6,54.233,19.561,0,0.0463,0,7885.9,50.707,11.111,-0.0041587,1.1971e-05,0.029843,0.034807,0
7800.6,54.233,19.561,0,0.0463,0,7885.9,50.707,11.111,-0.0041587,1.1971e-05,0.029843,0.034807,0
7800.6,54.233,19.561,0,0.0463,0,7885.9,50.707,11.111,-0.0041587,1.1971e-05,0.029843,0.034807,0
7801,54.233,19.562,0,0.046303,0,7885.9,50.707,11.111,-0.0041587,1.1971e-05,0.029843,0.034967,0
7802.6,54.233,19.566,0,0.046313,0,7886.8,50.707,11.111,-0.0022418,4.7583e-06,0.021519,0.035247,0
7802.6,54.233,19.566,0,0.046313,0,7886.8,50.707,11.111,-0.0022418,4.7583e-06,0.021519,0.035247,0
7802.6,54.233,19.566,0,0.046313,0,7887.5,50.707,11.111,-0.0011826,1.9967e-06,0.016467,0.034971,0
7802.6,54.233,19.566,0,0.046313,0,7887.5,50.707,11.111,-0.0011826,1.9967e-06,0.016467,0.034971,0
7802.6,54.233,19.566,0,0.046313,0,7887.5,50.707,11.111,-0.0011826,1.9967e-06,0.016467,0.034971,0
7802.6,54.233,19.566,0,0.046313,0,7887.5,50.707,11.111,-0.0011826,1.9967e-06,0.016467,0.034971,0
7802.6,54.233,19.566,0,0.046313,0,7887.5,50.707,11.111,-0.0011826,1.9967e-06,0.016467,0.034971,0
7803.4,54.233,19.568,0,0.046316,0,7887.5,50.707,11.111,-0.0011826,1.9967e-06,0.016467,0.035296,0
7803.8,54.233,19.569,0,0.046318,0,7887.5,50.707,11.111,-0.0011826,1.9967e-06,0.016467,0.03546,0
7803.8,54.233,19.569,0,0.046318,0,7887.5,50.707,11.111,-0.0011826,1.9967e-06,0.016467,0.03546,0
7803.8,54.233,19.569,0,0.046318,0,7887.5,50.707,11.111,-0.0011826,1.9967e-06,0.016467,0.03546,0
7803.8,54.233,19.569,0,0.046318,0,7887.5,50.707,11.111,-0.0011826,1.9967e-06,0.016467,0.03546,0
7803.8,54.233,19.569,0,0.046318,0,7888.1,50.706,11.111,-0.00038586,5.6361e-07,0.012305,0.035181,0
7803.8,54.233,19.569,0,0.046318,0,7888.1,50.706,11.111,-0.00038586,5.6361e-07,0.012305,0.035181,0
7804.9,54.233,19.571,0,0.046322,0,7888.1,50.706,11.111,-0.00038586,5.6361e-07,0.012305,0.035676,0
7804.9,54.233,19.571,0,0.046322,0,7888.8,50.706,11.111,0.00019658,-8.6199e-08,0.0089189,0.035393,0
7804.9,54.233,19.571,0,0.046322,0,7888.8,50.706,11.111,0.00019658,-8.6199e-08,0.0089189,0.035393,0
7804.9,54.233,19.571,0,0.046322,0,7888.8,50.706,11.111,0.00019658,-8.6199e-08,0.0089189,0.035393,0
7805.7,54.233,19.573,0,0.046324,0,7888.8,50.706,11.111,0.00019658,-8.6199e-08,0.0089189,0.035726,0
7805.7,54.233,19.573,0,0.046324,0,7889.2,50.706,11.111,0.00048663,-2.6367e-07,0.0070383,0.035536,0
7805.7,54.233,19.573,0,0.046324,0,7889.2,50.706,11.111,0.00048663,-2.6367e-07,0.0070383,0.035536,0
7805.7,54.233,19.573,0,0.046324,0,7889.5,50.707,11.111,0.00060635,-3.0374e-07,0.0061998,0.035442,0
7805.7,54.233,19.573,0,0.046324,0,7889.5,50.707,11.111,0.00060635,-3.0374e-07,0.0061998,0.035442,0
7805.7,54.233,19.573,0,0.046324,0,7889.5,50.707,11.111,0.00060635,-3.0374e-07,0.0061998,0.035442,0
7805.7,54.233,19.573,0,0.046324,0,7889.7,50.707,11.111,0.00071088,-3.2056e-07,0.0054243,0.035349,0
7807.3,54.233,19.577,0,0.046326,0,7889.7,50.707,11.111,0.00071088,-3.2056e-07,0.0054243,0.036019,0
7807.7,54.233,19.578,0,0.046326,0,7889.7,50.707,11.111,0.00071088,-3.2056e-07,0.0054243,0.03619,0
7807.7,54.233,19.578,0,0.046326,0,7889.7,50.707,11.111,0.00071088,-3.2056e-07,0.0054243,0.03619,0
7807.7,54.233,19.578,0,0.046326,0,7889.7,50.707,11.111,0.00071088,-3.2056e-07,0.0054243,0.03619,0
7807.7,54.233,19.578,0,0.046326,0,7889.7,50.707,11.111,0.00071088,-3.2056e-07,0.0054243,0.03619,0
7807.7,54.233,19.578,0,0.046326,0,7889.7,50.707,11.111,0.00071088,-3.2056e-07,0.0054243,0.03619,0
7807.7,54.233,19.578,0,0.046326,0,7889.7,50.707,11.111,0.00071088,-3.2056e-07,0.0054243,0.03619,0
7807.7,54.233,19.578,0,0.046326,0,7889.7,50.707,11.111,0.00071088,-3.2056e-07,0.0054243,0.03619,0
7807.7,54.233,19.578,0,0.046326,0,7889.7,50.707,11.111,0.00071088,-3.2056e-07,0.0054243,0.03619,0
7808.1,54.233,19.579,0,0.046326,0,7889.7,50.707,11.111,0.00071088,-3.2056e-07,0.0054243,0.036363,0
7808.1,54.233,19.579,0,0.046326,0,7890.6,50.707,11.111,0.00099961,-2.5209e-07,0.0028854,0.035973,0
7808.1,54.233,19.579,0,0.046326,0,7890.6,50.707,11.111,0.00099961,-2.5209e-07,0.0028854,0.035973,0
7808.1,54.233,19.579,0,0.046326,0,7890.8,50.707,11.111,0.0010445,-2.1824e-07,0.0023756,0.035876,0
7808.1,54.233,19.579,0,0.046326,0,7891.2,50.707,11.111,0.0011079,-1.4615e-07,0.0014857,0.035685,0
7810.4,54.233,19.584,0,0.046321,0,7891.2,50.707,11.111,0.0011079,-1.4615e-07,0.0014857,0.03672,0
7810.4,54.233,19.584,0,0.046321,0,7891.2,50.707,11.111,0.0011079,-1.4615e-07,0.0014857,0.03672,0
7810.4,54.233,19.584,0,0.046321,0,7891.2,50.707,11.111,0.0011079,-1.4615e-07,0.0014857,0.03672,0
7810.4,54.233,19.584,0,0.046321,0,7891.2,50.707,11.111,0.0011079,-1.4615e-07,0.0014857,0.03672,0
7810.4,54.233,19.584,0,0.046321,0,7891.2,50.707,11.111,0.0011079,-1.4615e-07,0.0014857,0.03672,0
7810.4,54.233,19.584,0,0.046321,0,7891.2,50.707,11.111,0.0011079,-1.4615e-07,0.0014857,0.03672,0
7810.4,54.233,19.584,0,0.046321,0,7891.2,50.707,11.111,0.0011079,-1.4615e-07,0.0014857,0.03672,0
7810.8,54.233,19.585,0,0.04632,0,7891.2,50.707,11.111,0.0011079,-1.4615e-07,0.0014857,0.036898,0
7810.8,54.233,19.585,0,0.04632,0,7891.2,50.707,11.111,0.0011079,-1.4615e-07,0.0014857,0.036898,0
7811.2,54.233,19.586,0,0.046318,0,7891.2,50.707,11.111,0.0011079,-1.4615e-07,0.0014857,0.037078,0
7811.2,54.233,19.586,0,0.046318,0,7891.2,50.707,11.111,0.0011079,-1.4615e-07,0.0014857,0.037078,0
7811.2,54.233,19.586,0,0.046318,0,7891.2,50.707,11.111,0.0011079,-1.4615e-07,0.0014857,0.037078,0
7811.2,54.233,19.586,0,0.046318,0,7891.2,50.707,11.111,0.0011079,-1.4615e-07,0.0014857,0.037078,0
7811.2,54.233,19.586,0,0.046318,0,7891.2,50.707,11.111,0.0011079,-1.4615e-07,0.0014857,0.037078,0
7811.2,54.233,19.586,0,0.046318,0,7891.2,50.707,11.111,0.0011079,-1.4615e-07,0.0014857,0.037078,0
7811.2,54.233,19.586,0,0.046318,0,7891.2,50.707,11.111,0.0011079,-1.4615e-07,0.0014857,0.037078,0
7812.4,54.233,19.589,0,0.046312,0,7892.3,50.707,11.111,0.0011464,1.0617e-08,-0.00010281,0.037108,0
7812.4,54.233,19.589,0,0.046312,0,7893,50.707,11.111,0.0011119,7.1466e-08,-0.00070963,0.036802,0
7812.4,54.233,19.589,0,0.046312,0,7893,50.707,11.111,0.0011119,7.1466e-08,-0.00070963,0.036802,0
7812.4,54.233,19.589,0,0.046312,0,7893.2,50.707,11.111,0.0010938,8.5916e-08,-0.00086593,0.036701,0
7814.3,54.233,19.593,0,0.019108,0,7893.7,50.707,11.111,0.00105,1.0694e-07,-0.0011197,0.0374,0
7814.7,54.233,19.593,0,0.012897,0,7893.7,50.707,11.111,0.00105,1.0694e-07,-0.0011197,0.037585,0
7814.7,54.233,19.593,0,0.012897,0,7893.7,50.707,11.111,0.00105,1.0694e-07,-0.0011197,0.037585,0
7815.1,54.233,19.593,0,0.0067156,0,7893.7,50.707,11.111,0.00105,1.0694e-07,-0.0011197,0.037772,0
7815.1,54.233,19.593,0,0.0067156,0,7893.7,50.707,11.111,0.00105,1.0694e-07,-0.0011197,0.037772,0
7815.1,54.233,19.593,0,0.0067156,0,7893.7,50.707,11.111,0.00105,1.0694e-07,-0.0011197,0.037772,0
7815.1,54.233,19.593,0,0.0067156,0,7893.7,50.707,11.111,0.00105,1.0694e-07,-0.0011197,0.037772,0
7815.1,54.233,19.593,0,0.0067156,0,7893.7,50.707,11.111,0.00105,1.0694e-07,-0.0011197,0.037772,0
7815.1,54.233,19.593,0,0.0067156,0,7893.7,50.707,11.111,0.00105,1.0694e-07,-0.0011197,0.037772,0
7815.1,54.233,19.593,0,0.0067156,0,7893.7,50.707,11.111,0.00105,1.0694e-07,-0.0011197,0.037772,0
7815.1,54.233,19.593,0,0.0067156,0,7893.7,50.707,11.111,0.00105,1.0694e-07,-0.0011197,0.037772,0
7815.1,54.233,19.593,0,0.0067156,0,7893.7,50.707,11.111,0.00105,1.0694e-07,-0.0011197,0.037772,0
7815.1,54.233,19.593,0,0.0067156,0,7893.7,50.707,11.111,0.00105,1.0694e-07,-0.0011197,0.037772,0
7815.1,54.233,19.593,0,0.0067156,0,7894.6,50.707,11.111,0.00094172,1.2327e-07,-0.0014326,0.03735,0
7815.1,54.233,19.593,0,0.0067156,0,7894.6,50.707,11.111,0.00094172,1.2327e-07,-0.0014326,0.03735,0
7815.1,54.233,19.593,0,0.0067156,0,7894.6,50.707,11.111,0.00094172,1.2327e-07,-0.0014326,0.03735,0
7815.1,54.233,19.593,0,0.0067156,0,7894.6,50.707,11.111,0.00094172,1.2327e-07,-0.0014326,0.03735,0
7815.1,54.233,19.593,0,0.0067156,0,7894.6,50.707,11.111,0.00094172,1.2327e-07,-0.0014326,0.03735,0
7815.1,54.233,19.593,0,0.0067156,0,7894.6,50.707,11.111,0.00094172,1.2327e-07,-0.0014326,0.03735,0
7815.1,54.233,19.593,0,0.0067156,0,7894.6,50.707,11.111,0.00094172,1.2327e-07,-0.0014326,0.03735,0
7815.9,54.233,19.593,0,-0.0055628,0,7894.6,50.707,11.111,0.00094172,1.2327e-07,-0.0014326,0.037721,0
7815.9,54.233,19.593,0,-0.0055628,0,7894.6,50.707,11.111,0.00094172,1.2327e-07,-0.0014326,0.037721,0
7816.7,54.233,19.593,0,-0.017729,0,7894.6,50.707,11.111,0.00094172,1.2327e-07,-0.0014326,0.0381,0
7817.9,54.233,19.591,0,-0.035777,0,7895.5,50.707,11.111,0.0008195,1.1664e-07,-0.001552,0.03824,0
7819,54.233,19.588,0,-0.05359,0,7895.5,50.707,11.111,0.0008195,1.1664e-07,-0.001552,0.038826,0
7819.4,54.233,19.587,0,-0.059477,0,7895.5,50.707,11.111,0.0008195,1.1664e-07,-0.001552,0.039026,0
7819.8,54.233,19.586,0,-0.065339,0,7895.5,50.707,11.111,0.0008195,1.1664e-07,-0.001552,0.039227,0
7819.8,54.233,19.586,0,-0.065339,0,7895.5,50.707,11.111,0.0008195,1.1664e-07,-0.001552,0.039227,0
7819.8,54.233,19.586,0,-0.065339,0,7895.5,50.707,11.111,0.0008195,1.1664e-07,-0.001552,0.039227,0
7819.8,54.233,19.586,0,-0.065339,0,7895.5,50.707,11.111,0.0008195,1.1664e-07,-0.001552,0.039227,0
7819.8,54.233,19.586,0,-0.065339,0,7895.5,50.707,11.111,0.0008195,1.1664e-07,-0.001552,0.039227,0
7819.8,54.233,19.586,0,-0.065339,0,7895.5,50.707,11.111,0.0008195,1.1664e-07,-0.001552,0.039227,0
7819.8,54.233,19.586,0,-0.065339,0,7895.5,50.707,11.111,0.0008195,1.1664e-07,-0.001552,0.039227,0
7819.8,54.233,19.586,0,-0.065339,0,7895.5,50.707,11.111,0.0008195,1.1664e-07,-0.001552,0.039227,0
7819.8,54.233,19.586,0,-0.065339,0,7895.5,50.707,11.111,0.0008195,1.1664e-07,-0.001552,0.039227,0
7819.8,54.233,19.586,0,-0.065339,0,7895.5,50.707,11.111,0.0008195,1.1664e-07,-0.001552,0.039227,0
7819.8,54.233,19.586,0,-0.065339,0,7895.5,50.707,11.111,0.0008195,1.1664e-07,-0.001552,0.039227,0
7819.8,54.233,19.586,0,-0.065339,0,7897.2,50.707,11.111,0.00057673,7.7003e-08,-0.0014472,0.038329,0
7819.8,54.233,19.586,0,-0.065339,0,7897.2,50.707,11.111,0.00057673,7.7003e-08,-0.0014472,0.038329,0
7819.8,54.233,19.586,0,-0.065339,0,7897.2,50.707,11.111,0.00057673,7.7003e-08,-0.0014472,0.038329,0
7819.8,54.233,19.586,0,-0.065339,0,7897.2,50.707,11.111,0.00057673,7.7003e-08,-0.0014472,0.038329,0
7819.8,54.233,19.586,0,-0.065339,0,7897.2,50.707,11.111,0.00057673,7.7003e-08,-0.0014472,0.038329,0
7819.8,54.233,19.586,0,-0.065339,0,7897.2,50.707,11.111,0.00057673,7.7003e-08,-0.0014472,0.038329,0
7819.8,54.233,19.586,0,-0.065339,0,7897.2,50.707,11.111,0.00057673,7.7003e-08,-0.0014472,0.038329,0
7819.8,54.233,19.586,0,-0.065339,0,7897.2,50.707,11.111,0.00057673,7.7003e-08,-0.0014472,0.038329,0
7819.8,54.233,19.586,0,-0.065339,0,7897.2,50.707,11.111,0.00057673,7.7003e-08,-0.0014472,0.038329,0
7820.6,54.233,19.583,0,-0.07699,0,7897.2,50.707,11.111,0.00057673,7.7003e-08,-0.0014472,0.03872,0
7820.6,54.233,19.583,0,-0.07699,0,7897.2,50.707,11.111,0.00057673,7.7003e-08,-0.0014472,0.03872,0
7820.6,54.233,19.583,0,-0.07699,0,7897.2,50.707,11.111,0.00057673,7.7003e-08,-0.0014472,0.03872,0
7820.6,54.233,19.583,0,-0.07699,0,7897.2,50.707,11.111,0.00057673,7.7003e-08,-0.0014472,0.03872,0
7822.6,54.233,19.574,0,-0.1057,0,7898.1,50.707,11.111,0.0004685,5.6596e-08,-0.0013058,0.039266,0
7822.6,54.233,19.574,0,-0.1057,0,7898.1,50.707,11.111,0.0004685,5.6596e-08,-0.0013058,0.039266,0
7822.6,54.233,19.574,0,-0.1057,0,7898.1,50.707,11.111,0.0004685,5.6596e-08,-0.0013058,0.039266,0
7823.7,54.233,19.567,0,-0.12266,0,7898.1,50.707,11.111,0.0004685,5.6596e-08,-0.0013058,0.039884,0
7823.7,54.233,19.567,0,-0.12266,0,7899.5,50.707,11.111,0.00033025,3.2432e-08,-0.0010573,0.039184,0
7824.5,54.233,19.562,0,-0.13385,0,7899.5,50.707,11.111,0.00033025,3.2432e-08,-0.0010573,0.039591,0
7824.5,54.233,19.562,0,-0.13385,0,7899.9,50.707,11.111,0.00029091,2.6327e-08,-0.00097299,0.039359,0
7825.7,54.233,19.553,0,-0.15048,0,7900.1,50.707,11.111,0.00027249,2.3622e-08,-0.00093138,0.03986,0
7825.7,54.233,19.553,0,-0.15048,0,7900.1,50.707,11.111,0.00027249,2.3622e-08,-0.00093138,0.03986,0
7825.7,54.233,19.553,0,-0.15048,0,7900.1,50.707,11.111,0.00027249,2.3622e-08,-0.00093138,0.03986,0
7826.1,54.233,19.55,0,-0.15598,0,7900.1,50.707,11.111,0.00027249,2.3622e-08,-0.00093138,0.04007,0
7826.1,54.233,19.55,0,-0.15598,0,7900.1,50.707,11.111,0.00027249,2.3622e-08,-0.00093138,0.04007,0
7826.1,54.233,19.55,0,-0.15598,0,7900.1,50.707,11.111,0.00027249,2.3622e-08,-0.00093138,0.04007,0
7826.1,54.233,19.55,0,-0.15598,0,7900.1,50.707,11.111,0.00027249,2.3622e-08,-0.00093138,0.04007,0
7826.1,54.233,19.55,0,-0.15598,0,7900.1,50.707,11.111,0.00027249,2.3622e-08,-0.00093138,0.04007,0
7826.1,54.233,19.55,0,-0.15598,0,7900.1,50.707,11.111,0.00027249,2.3622e-08,-0.00093138,0.04007,0
7826.1,54.233,19.55,0,-0.15598,0,7900.1,50.707,11.111,0.00027249,2.3622e-08,-0.00093138,0.04007,0
7826.1,54.233,19.55,0,-0.15598,0,7900.1,50.707,11.111,0.00027249,2.3622e-08,-0.00093138,0.04007,0
7826.5,54.233,19.547,0,-0.16147,0,7900.1,50.707,11.111,0.00027249,2.3622e-08,-0.00093138,0.040282,0
7826.5,54.233,19.547,0,-0.16147,0,7900.1,50.707,11.111,0.00027249,2.3622e-08,-0.00093138,0.040282,0
7826.5,54.233,19.547,0,-0.16147,0,7900.1,50.707,11.111,0.00027249,2.3622e-08,-0.00093138,0.040282,0
7826.5,54.233,19.547,0,-0.16147,0,7900.1,50.707,11.111,0.00027249,2.3622e-08,-0.00093138,0.040282,0
7826.5,54.233,19.547,0,-0.16147,0,7900.1,50.707,11.111,0.00027249,2.3622e-08,-0.00093138,0.040282,0
7826.5,54.233,19.547,0,-0.16147,0,7900.1,50.707,11.111,0.00027249,2.3622e-08,-0.00093138,0.040282,0
7826.5,54.233,19.547,0,-0.16147,0,7900.1,50.707,11.111,0.00027249,2.3622e-08,-0.00093138,0.040282,0
7826.5,54.233,19.547,0,-0.16147,0,7901,50.707,11.111,0.00020686,1.4897e-08,-0.00077138,0.039803,0
7826.5,54.233,19.547,0,-0.16147,0,7901,50.707,11.111,0.00020686,1.4897e-08,-0.00077138,0.039803,0
7828.4,54.233,19.53,0,-0.18857,0,7901.2,50.707,11.111,0.00019238,1.3184e-08,-0.00073346,0.040747,0
7828.8,54.233,19.526,0,-0.19394,0,7901.2,50.707,11.111,0.00019238,1.3184e-08,-0.00073346,0.040966,0
7830,54.233,19.514,0,-0.20991,0,7902.6,50.707,11.111,0.00012018,5.9593e-09,-0.00052776,0.040874,0
7830,54.233,19.514,0,-0.20991,0,7903,50.707,11.111,0.00010117,4.4602e-09,-0.00046816,0.040626,0
7830,54.233,19.514,0,-0.20991,0,7903,50.707,11.111,0.00010117,4.4602e-09,-0.00046816,0.040626,0
7830,54.233,19.514,0,-0.20991,0,7903,50.707,11.111,0.00010117,4.4602e-09,-0.00046816,0.040626,0
7830,54.233,19.514,0,-0.20991,0,7903,50.707,11.111,0.00010117,4.4602e-09,-0.00046816,0.040626,0
7830,54.233,19.514,0,-0.20991,0,7903,50.707,11.111,0.00010117,4.4602e-09,-0.00046816,0.040626,0
7830,54.233,19.514,0,-0.20991,0,7903,50.707,11.111,0.00010117,4.4602e-09,-0.00046816,0.040626,0
7830,54.233,19.514,0,-0.20991,0,7903,50.707,11.111,0.00010117,4.4602e-09,-0.00046816,0.040626,0
7830,54.233,19.514,0,-0.20991,0,7903,50.707,11.111,0.00010117,4.4602e-09,-0.00046816,0.040626,0
7830,54.233,19.514,0,-0.20991,0,7903,50.707,11.111,0.00010117,4.4602e-09,-0.00046816,0.040626,0
7830,54.233,19.514,0,-0.20991,0,7903,50.707,11.111,0.00010117,4.4602e-09,-0.00046816,0.040626,0
7830.8,54.233,19.505,0,-0.22047,0,7903,50.707,11.111,0.00010117,4.4602e-09,-0.00046816,0.041064,0
7830.8,54.233,19.505,0,-0.22047,0,7903,50.707,11.111,0.00010117,4.4602e-09,-0.00046816,0.041064,0
7830.8,54.233,19.505,0,-0.22047,0,7903,50.707,11.111,0.00010117,4.4602e-09,-0.00046816,0.041064,0
7830.8,54.233,19.505,0,-0.22047,0,7903,50.707,11.111,0.00010117,4.4602e-09,-0.00046816,0.041064,0
7830.8,54.233,19.505,0,-0.22047,0,7903,50.707,11.111,0.00010117,4.4602e-09,-0.00046816,0.041064,0
7830.8,54.233,19.505,0,-0.22047,0,7903,50.707,11.111,0.00010117,4.4602e-09,-0.00046816,0.041064,0
7830.8,54.233,19.505,0,-0.22047,0,7903,50.707,11.111,0.00010117,4.4602e-09,-0.00046816,0.041064,0
7830.8,54.233,19.505,0,-0.22047,0,7903,50.707,11.111,0.00010117,4.4602e-09,-0.00046816,0.041064,0
7830.8,54.233,19.505,0,-0.22047,0,7903,50.707,11.111,0.00010117,4.4602e-09,-0.00046816,0.041064,0
7830.8,54.233,19.505,0,-0.22047,0,7903,50.707,11.111,0.00010117,4.4602e-09,-0.00046816,0.041064,0
7830.8,54.233,19.505,0,-0.22047,0,7903.5,50.707,11.111,8.4387e-05,3.2916e-09,-0.00041317,0.040814,0
7830.8,54.233,19.505,0,-0.22047,0,7903.5,50.707,11.111,8.4387e-05,3.2916e-09,-0.00041317,0.040814,0
7830.8,54.233,19.505,0,-0.22047,0,7903.7,50.707,11.111,7.677e-05,2.8115e-09,-0.00038737,0.04069,0
7832.7,54.233,19.482,0,-0.24655,0,7903.7,50.707,11.111,7.677e-05,2.8115e-09,-0.00038737,0.041803,0
7833.9,54.233,19.467,0,-0.26198,0,7904.6,50.707,11.111,5.0961e-05,1.4326e-09,-0.00029526,0.041968,0
7833.9,54.233,19.467,0,-0.26198,0,7905.5,50.707,11.111,3.1596e-05,6.6839e-10,-0.00021976,0.041449,0
7833.9,54.233,19.467,0,-0.26198,0,7905.5,50.707,11.111,3.1596e-05,6.6839e-10,-0.00021976,0.041449,0
7835.1,54.233,19.45,0,-0.27726,0,7905.5,50.707,11.111,3.1596e-05,6.6839e-10,-0.00021976,0.042134,0
7835.1,54.233,19.45,0,-0.27726,0,7905.9,50.707,11.111,2.3939e-05,4.3613e-10,-0.00018771,0.04187,0
7835.1,54.233,19.45,0,-0.27726,0,7905.9,50.707,11.111,2.3939e-05,4.3613e-10,-0.00018771,0.04187,0
7835.1,54.233,19.45,0,-0.27726,0,7905.9,50.707,11.111,2.3939e-05,4.3613e-10,-0.00018771,0.04187,0
7835.1,54.233,19.45,0,-0.27726,0,7905.9,50.707,11.111,2.3939e-05,4.3613e-10,-0.00018771,0.04187,0
7835.1,54.233,19.45,0,-0.27726,0,7905.9,50.707,11.111,2.3939e-05,4.3613e-10,-0.00018771,0.04187,0
7835.1,54.233,19.45,0,-0.27726,0,7905.9,50.707,11.111,2.3939e-05,4.3613e-10,-0.00018771,0.04187,0
7835.1,54.233,19.45,0,-0.27726,0,7905.9,50.707,11.111,2.3939e-05,4.3613e-10,-0.00018771,0.04187,0
7835.1,54.233,19.45,0,-0.27726,0,7905.9,50.707,11.111,2.3939e-05,4.3613e-10,-0.00018771,0.04187,0
7835.1,54.233,19.45,0,-0.27726,0,7905.9,50.707,11.111,2.3939e-05,4.3613e-10,-0.00018771,0.04187,0
7835.8,54.233,19.439,0,-0.28737,0,7905.9,50.707,11.111,2.3939e-05,4.3613e-10,-0.00018771,0.042333,0
7835.8,54.233,19.439,0,-0.28737,0,7905.9,50.707,11.111,2.3939e-05,4.3613e-10,-0.00018771,0.042333,0
7835.8,54.233,19.439,0,-0.28737,0,7905.9,50.707,11.111,2.3939e-05,4.3613e-10,-0.00018771,0.042333,0
7835.8,54.233,19.439,0,-0.28737,0,7905.9,50.707,11.111,2.3939e-05,4.3613e-10,-0.00018771,0.042333,0
7835.8,54.233,19.439,0,-0.28737,0,7905.9,50.707,11.111,2.3939e-05,4.3613e-10,-0.00018771,0.042333,0
7836.2,54.233,19.433,0,-0.29239,0,7905.9,50.707,11.111,2.3939e-05,4.3613e-10,-0.00018771,0.042568,0
7836.2,54.233,19.433,0,-0.29239,0,7905.9,50.707,11.111,2.3939e-05,4.3613e-10,-0.00018771,0.042568,0
7836.6,54.233,19.427,0,-0.2974,0,7905.9,50.707,11.111,2.3939e-05,4.3613e-10,-0.00018771,0.042806,0
7836.6,54.233,19.427,0,-0.2974,0,7905.9,50.707,11.111,2.3939e-05,4.3613e-10,-0.00018771,0.042806,0
7838.2,54.233,19.403,0,-0.31728,0,7907.2,50.707,11.111,7.4111e-06,8.5505e-11,-0.00011144,0.042942,0
7838.2,54.233,19.403,0,-0.31728,0,7907.2,50.707,11.111,7.4111e-06,8.5505e-11,-0.00011144,0.042942,0
7838.2,54.233,19.403,0,-0.31728,0,7907.9,50.707,11.111,2.0349e-06,2.1383e-11,-8.2945e-05,0.042533,0
7838.2,54.233,19.403,0,-0.31728,0,7907.9,50.707,11.111,2.0349e-06,2.1383e-11,-8.2945e-05,0.042533,0
7838.2,54.233,19.403,0,-0.31728,0,7908.1,50.707,11.111,5.8352e-07,8.9404e-12,-7.4675e-05,0.042399,0
7838.2,54.233,19.403,0,-0.31728,0,7908.3,50.707,11.111,-7.1668e-07,-2.8315e-13,-6.6971e-05,0.042265,0
7838.2,54.233,19.403,0,-0.31728,0,7908.3,50.707,11.111,-7.1668e-07,-2.8315e-13,-6.6971e-05,0.042265,0
7838.2,54.233,19.403,0,-0.31728,0,7908.3,50.707,11.111,-7.1668e-07,-2.8315e-13,-6.6971e-05,0.042265,0
7838.2,54.233,19.403,0,-0.31728,0,7908.3,50.707,11.111,-7.1668e-07,-2.8315e-13,-6.6971e-05,0.042265,0
7838.2,54.233,19.403,0,-0.31728,0,7908.6,50.707,11.111,-1.8763e-06,-6.8799e-12,-5.9804e-05,0.042132,0
7838.2,54.233,19.403,0,-0.31728,0,7908.8,50.707,11.111,-2.9053e-06,-1.1355e-11,-5.3147e-05,0.042,0
7838.2,54.233,19.403,0,-0.31728,0,7908.8,50.707,11.111,-2.9053e-06,-1.1355e-11,-5.3147e-05,0.042,0
7838.2,54.233,19.403,0,-0.31728,0,7909,50.707,11.111,-3.8134e-06,-1.4136e-11,-4.6975e-05,0.041869,0
7838.2,54.233,19.403,0,-0.31728,0,7909,50.707,11.111,-3.8134e-06,-1.4136e-11,-4.6975e-05,0.041869,0
7838.2,54.233,19.403,0,-0.31728,0,7909,50.707,11.111,-3.8134e-06,-1.4136e-11,-4.6975e-05,0.041869,0
7841.7,54.233,19.342,0,-0.36105,0,7909.2,50.707,11.111,-4.6095e-06,-1.5585e-11,-4.1261e-05,0.043883,0
7841.7,54.233,19.342,0,-0.36105,0,7909.2,50.707,11.111,-4.6095e-06,-1.5585e-11,-4.1261e-05,0.043883,0
7841.7,54.233,19.342,0,-0.36105,0,7909.2,50.707,11.111,-4.6095e-06,-1.5585e-11,-4.1261e-05,0.043883,0
7841.7,54.233,19.342,0,-0.36105,0,7909.7,50.707,11.111,-5.8995e-06,-1.5647e-11,-3.111e-05,0.043598,0
7841.7,54.233,19.342,0,-0.36105,0,7909.7,50.707,11.111,-5.8995e-06,-1.5647e-11,-3.111e-05,0.043598,0
7841.7,54.233,19.342,0,-0.36105,0,7909.7,50.707,11.111,-5.8995e-06,-1.5647e-11,-3.111e-05,0.043598,0
7842.4,54.233,19.327,0,-0.37061,0,7909.7,50.707,11.111,-5.8995e-06,-1.5647e-11,-3.111e-05,0.044097,0
7842.4,54.233,19.327,0,-0.37061,0,7909.7,50.707,11.111,-5.8995e-06,-1.5647e-11,-3.111e-05,0.044097,0
7842.4,54.233,19.327,0,-0.37061,0,7910.1,50.707,11.111,-6.8382e-06,-1.3395e-11,-2.2506e-05,0.043809,0
7842.4,54.233,19.327,0,-0.37061,0,7910.3,50.707,11.111,-7.1935e-06,-1.181e-11,-1.8729e-05,0.043666,0
7842.4,54.233,19.327,0,-0.37061,0,7910.3,50.707,11.111,-7.1935e-06,-1.181e-11,-1.8729e-05,0.043666,0
7844,54.233,19.297,0,-0.38953,0,7910.6,50.707,11.111,-7.4813e-06,-1.0074e-11,-1.5274e-05,0.044529,0
7844,54.233,19.297,0,-0.38953,0,7910.6,50.707,11.111,-7.4813e-06,-1.0074e-11,-1.5274e-05,0.044529,0
7844,54.233,19.297,0,-0.38953,0,7910.6,50.707,11.111,-7.4813e-06,-1.0074e-11,-1.5274e-05,0.044529,0
7844,54.233,19.297,0,-0.38953,0,7911,50.707,11.111,-7.878e-06,-6.4829e-12,-9.2522e-06,0.044235,0
7844,54.233,19.297,0,-0.38953,0,7911,50.707,11.111,-7.878e-06,-6.4829e-12,-9.2522e-06,0.044235,0
7844,54.233,19.297,0,-0.38953,0,7911,50.707,11.111,-7.878e-06,-6.4829e-12,-9.2522e-06,0.044235,0
7844,54.233,19.297,0,-0.38953,0,7911,50.707,11.111,-7.878e-06,-6.4829e-12,-9.2522e-06,0.044235,0
7844,54.233,19.297,0,-0.38953,0,7911,50.707,11.111,-7.878e-06,-6.4829e-12,-9.2522e-06,0.044235,0
7844,54.233,19.297,0,-0.38953,0,7911,50.707,11.111,-7.878e-06,-6.4829e-12,-9.2522e-06,0.044235,0
7844,54.233,19.297,0,-0.38953,0,7911,50.707,11.111,-7.878e-06,-6.4829e-12,-9.2522e-06,0.044235,0
7844.8,54.233,19.281,0,-0.3989,0,7911,50.707,11.111,-7.878e-06,-6.4829e-12,-9.2522e-06,0.044748,0
7844.8,54.233,19.281,0,-0.3989,0,7911,50.707,11.111,-7.878e-06,-6.4829e-12,-9.2522e-06,0.044748,0
7844.8,54.233,19.281,0,-0.3989,0,7911,50.707,11.111,-7.878e-06,-6.4829e-12,-9.2522e-06,0.044748,0
7844.8,54.233,19.281,0,-0.3989,0,7911,50.707,11.111,-7.878e-06,-6.4829e-12,-9.2522e-06,0.044748,0
7844.8,54.233,19.281,0,-0.3989,0,7911,50.707,11.111,-7.878e-06,-6.4829e-12,-9.2522e-06,0.044748,0
7844.8,54.233,19.281,0,-0.3989,0,7911,50.707,11.111,-7.878e-06,-6.4829e-12,-9.2522e-06,0.044748,0
7844.8,54.233,19.281,0,-0.3989,0,7911,50.707,11.111,-7.878e-06,-6.4829e-12,-9.2522e-06,0.044748,0
7845.5,54.233,19.265,0,-0.4082,0,7911.5,50.707,11.111,-8.0714e-06,-3.1015e-12,-4.2924e-06,0.044969,0
7845.5,54.233,19.265,0,-0.4082,0,7911.5,50.707,11.111,-8.0714e-06,-3.1015e-12,-4.2924e-06,0.044969,0
7846.7,54.233,19.24,0,-0.42204,0,7912.1,50.707,11.111,-8.0615e-06,1.0523e-12,1.4477e-06,0.045303,0
7847.8,54.233,19.214,0,-0.43575,0,7912.6,50.707,11.111,-7.9011e-06,3.0857e-12,4.3158e-06,0.045797,0
7847.8,54.233,19.214,0,-0.43575,0,7912.6,50.707,11.111,-7.9011e-06,3.0857e-12,4.3158e-06,0.045797,0
7847.8,54.233,19.214,0,-0.43575,0,7913.2,50.707,11.111,-7.4952e-06,5.0702e-12,7.4423e-06,0.045332,0
7847.8,54.233,19.214,0,-0.43575,0,7913.5,50.707,11.111,-7.3268e-06,5.4794e-12,8.2173e-06,0.04518,0
7847.8,54.233,19.214,0,-0.43575,0,7913.5,50.707,11.111,-7.3268e-06,5.4794e-12,8.2173e-06,0.04518,0
7847.8,54.233,19.214,0,-0.43575,0,7913.5,50.707,11.111,-7.3268e-06,5.4794e-12,8.2173e-06,0.04518,0
7847.8,54.233,19.214,0,-0.43575,0,7913.5,50.707,11.111,-7.3268e-06,5.4794e-12,8.2173e-06,0.04518,0
7847.8,54.233,19.214,0,-0.43575,0,7913.5,50.707,11.111,-7.3268e-06,5.4794e-12,8.2173e-06,0.04518,0
7847.8,54.233,19.214,0,-0.43575,0,7913.5,50.707,11.111,-7.3268e-06,5.4794e-12,8.2173e-06,0.04518,0
7847.8,54.233,19.214,0,-0.43575,0,7913.5,50.707,11.111,-7.3268e-06,5.4794e-12,8.2173e-06,0.04518,0
7847.8,54.233,19.214,0,-0.43575,0,7913.5,50.707,11.111,-7.3268e-06,5.4794e-12,8.2173e-06,0.04518,0
7847.8,54.233,19.214,0,-0.43575,0,7913.5,50.707,11.111,-7.3268e-06,5.4794e-12,8.2173e-06,0.04518,0
7849,54.233,19.188,0,-0.44931,0,7913.5,50.707,11.111,-7.3268e-06,5.4794e-12,8.2173e-06,0.045983,0
7849,54.233,19.188,0,-0.44931,0,7913.5,50.707,11.111,-7.3268e-06,5.4794e-12,8.2173e-06,0.045983,0
7849,54.233,19.188,0,-0.44931,0,7913.5,50.707,11.111,-7.3268e-06,5.4794e-12,8.2173e-06,0.045983,0
7849,54.233,19.188,0,-0.44931,0,7913.5,50.707,11.111,-7.3268e-06,5.4794e-12,8.2173e-06,0.045983,0
7849,54.233,19.188,0,-0.44931,0,7913.5,50.707,11.111,-7.3268e-06,5.4794e-12,8.2173e-06,0.045983,0
7849,54.233,19.188,0,-0.44931,0,7913.5,50.707,11.111,-7.3268e-06,5.4794e-12,8.2173e-06,0.045983,0
7849,54.233,19.188,0,-0.44931,0,7913.5,50.707,11.111,-7.3268e-06,5.4794e-12,8.2173e-06,0.045983,0
7849,54.233,19.188,0,-0.44931,0,7913.5,50.707,11.111,-7.3268e-06,5.4794e-12,8.2173e-06,0.045983,0
7849.4,54.233,19.179,0,-0.4538,0,7913.5,50.707,11.111,-7.3268e-06,5.4794e-12,8.2173e-06,0.046257,0
7849.4,54.233,19.179,0,-0.4538,0,7913.5,50.707,11.111,-7.3268e-06,5.4794e-12,8.2173e-06,0.046257,0
7849.4,54.233,19.179,0,-0.4538,0,7913.5,50.707,11.111,-7.3268e-06,5.4794e-12,8.2173e-06,0.046257,0
7849.8,54.233,19.169,0,-0.45827,0,7913.5,50.707,11.111,-7.3268e-06,5.4794e-12,8.2173e-06,0.046534,0
7851.3,54.233,19.132,0,-0.47601,0,7914.8,50.707,11.111,-6.1192e-06,6.0206e-12,1.0743e-05,0.046679,0
7852.4,54.233,19.103,0,-0.48914,0,7915.5,50.707,11.111,-5.4606e-06,5.5145e-12,1.0999e-05,0.047033,0
7853.2,54.233,19.083,0,-0.49782,0,7915.9,50.707,11.111,-5.023e-06,5.0421e-12,1.0916e-05,0.047271,0
7853.2,54.233,19.083,0,-0.49782,0,7915.9,50.707,11.111,-5.023e-06,5.0421e-12,1.0916e-05,0.047271,0
7853.2,54.233,19.083,0,-0.49782,0,7915.9,50.707,11.111,-5.023e-06,5.0421e-12,1.0916e-05,0.047271,0
7853.2,54.233,19.083,0,-0.49782,0,7915.9,50.707,11.111,-5.023e-06,5.0421e-12,1.0916e-05,0.047271,0
7853.2,54.233,19.083,0,-0.49782,0,7915.9,50.707,11.111,-5.023e-06,5.0421e-12,1.0916e-05,0.047271,0
7853.2,54.233,19.083,0,-0.49782,0,7915.9,50.707,11.111,-5.023e-06,5.0421e-12,1.0916e-05,0.047271,0
7853.2,54.233,19.083,0,-0.49782,0,7915.9,50.707,11.111,-5.023e-06,5.0421e-12,1.0916e-05,0.047271,0
7853.2,54.233,19.083,0,-0.49782,0,7915.9,50.707,11.111,-5.023e-06,5.0421e-12,1.0916e-05,0.047271,0
7853.2,54.233,19.083,0,-0.49782,0,7916.3,50.707,11.111,-4.5943e-06,4.5179e-12,1.0678e-05,0.04694,0
7853.2,54.233,19.083,0,-0.49782,0,7916.3,50.707,11.111,-4.5943e-06,4.5179e-12,1.0678e-05,0.04694,0
7853.2,54.233,19.083,0,-0.49782,0,7916.3,50.707,11.111,-4.5943e-06,4.5179e-12,1.0678e-05,0.04694,0
7853.2,54.233,19.083,0,-0.49782,0,7916.3,50.707,11.111,-4.5943e-06,4.5179e-12,1.0678e-05,0.04694,0
7853.2,54.233,19.083,0,-0.49782,0,7916.3,50.707,11.111,-4.5943e-06,4.5179e-12,1.0678e-05,0.04694,0
7853.2,54.233,19.083,0,-0.49782,0,7916.3,50.707,11.111,-4.5943e-06,4.5179e-12,1.0678e-05,0.04694,0
7853.2,54.233,19.083,0,-0.49782,0,7916.3,50.707,11.111,-4.5943e-06,4.5179e-12,1.0678e-05,0.04694,0
7853.2,54.233,19.083,0,-0.49782,0,7916.3,50.707,11.111,-4.5943e-06,4.5179e-12,1.0678e-05,0.04694,0
7853.2,54.233,19.083,0,-0.49782,0,7916.3,50.707,11.111,-4.5943e-06,4.5179e-12,1.0678e-05,0.04694,0
7853.2,54.233,19.083,0,-0.49782,0,7916.3,50.707,11.111,-4.5943e-06,4.5179e-12,1.0678e-05,0.04694,0
7854,54.233,19.063,0,-0.50643,0,7916.3,50.707,11.111,-4.5943e-06,4.5179e-12,1.0678e-05,0.047512,0
7854,54.233,19.063,0,-0.50643,0,7916.3,50.707,11.111,-4.5943e-06,4.5179e-12,1.0678e-05,0.047512,0
7854.3,54.233,19.053,0,-0.51071,0,7916.3,50.707,11.111,-4.5943e-06,4.5179e-12,1.0678e-05,0.047802,0
7855.5,54.233,19.021,0,-0.62291,0,7917.2,50.707,11.111,-3.782e-06,3.4479e-12,9.8721e-06,0.047997,0
7857,54.233,18.971,0,-0.63391,0,7917.9,50.707,11.111,-3.2246e-06,2.7106e-12,9.0843e-06,0.048666,0
7857,54.233,18.971,0,-0.63391,0,7917.9,50.707,11.111,-3.2246e-06,2.7106e-12,9.0843e-06,0.048666,0
7857,54.233,18.971,0,-0.63391,0,7918.6,50.707,11.111,-2.7183e-06,2.0711e-12,8.2174e-06,0.048142,0
7857,54.233,18.971,0,-0.63391,0,7918.8,50.707,11.111,-2.5613e-06,1.8822e-12,7.9202e-06,0.04797,0
7857,54.233,18.971,0,-0.63391,0,7918.8,50.707,11.111,-2.5613e-06,1.8822e-12,7.9202e-06,0.04797,0
7857,54.233,18.971,0,-0.63391,0,7918.8,50.707,11.111,-2.5613e-06,1.8822e-12,7.9202e-06,0.04797,0
7857,54.233,18.971,0,-0.63391,0,7918.8,50.707,11.111,-2.5613e-06,1.8822e-12,7.9202e-06,0.04797,0
7857,54.233,18.971,0,-0.63391,0,7918.8,50.707,11.111,-2.5613e-06,1.8822e-12,7.9202e-06,0.04797,0
7857,54.233,18.971,0,-0.63391,0,7918.8,50.707,11.111,-2.5613e-06,1.8822e-12,7.9202e-06,0.04797,0
7857,54.233,18.971,0,-0.63391,0,7918.8,50.707,11.111,-2.5613e-06,1.8822e-12,7.9202e-06,0.04797,0
7857,54.233,18.971,0,-0.63391,0,7918.8,50.707,11.111,-2.5613e-06,1.8822e-12,7.9202e-06,0.04797,0
7857,54.233,18.971,0,-0.63391,0,7918.8,50.707,11.111,-2.5613e-06,1.8822e-12,7.9202e-06,0.04797,0
7858.1,54.233,18.933,0,-0.63894,0,7918.8,50.707,11.111,-2.5613e-06,1.8822e-12,7.9202e-06,0.048864,0
7858.1,54.233,18.933,0,-0.63894,0,7918.8,50.707,11.111,-2.5613e-06,1.8822e-12,7.9202e-06,0.048864,0
7858.1,54.233,18.933,0,-0.63894,0,7918.8,50.707,11.111,-2.5613e-06,1.8822e-12,7.9202e-06,0.048864,0
7858.1,54.233,18.933,0,-0.63894,0,7918.8,50.707,11.111,-2.5613e-06,1.8822e-12,7.9202e-06,0.048864,0
7858.1,54.233,18.933,0,-0.63894,0,7918.8,50.707,11.111,-2.5613e-06,1.8822e-12,7.9202e-06,0.048864,0
7858.1,54.233,18.933,0,-0.63894,0,7918.8,50.707,11.111,-2.5613e-06,1.8822e-12,7.9202e-06,0.048864,0
7858.1,54.233,18.933,0,-0.63894,0,7918.8,50.707,11.111,-2.5613e-06,1.8822e-12,7.9202e-06,0.048864,0
7858.1,54.233,18.933,0,-0.63894,0,7918.8,50.707,11.111,-2.5613e-06,1.8822e-12,7.9202e-06,0.048864,0
7858.5,54.233,18.92,0,-0.64067,0,7918.8,50.707,11.111,-2.5613e-06,1.8822e-12,7.9202e-06,0.049169,0
7858.5,54.233,18.92,0,-0.64067,0,7918.8,50.707,11.111,-2.5613e-06,1.8822e-12,7.9202e-06,0.049169,0
7858.9,54.233,18.907,0,-0.64243,0,7918.8,50.707,11.111,-2.5613e-06,1.8822e-12,7.9202e-06,0.049478,0
7858.9,54.233,18.907,0,-0.64243,0,7920.1,50.707,11.111,-1.7444e-06,9.9974e-13,6.151e-06,0.048406,0
7860.8,54.233,18.842,0,-0.65161,0,7920.3,50.707,11.111,-1.6285e-06,8.9106e-13,5.8683e-06,0.049752,0
7861.9,54.233,18.803,0,-0.65739,0,7921,50.707,11.111,-1.3132e-06,6.2054e-13,5.0558e-06,0.05014,0
7862.3,54.233,18.79,0,-0.65936,0,7921,50.707,11.111,-1.3132e-06,6.2054e-13,5.0558e-06,0.050459,0
7862.3,54.233,18.79,0,-0.65936,0,7921,50.707,11.111,-1.3132e-06,6.2054e-13,5.0558e-06,0.050459,0
7862.3,54.233,18.79,0,-0.65936,0,7921,50.707,11.111,-1.3132e-06,6.2054e-13,5.0558e-06,0.050459,0
7862.3,54.233,18.79,0,-0.65936,0,7921,50.707,11.111,-1.3132e-06,6.2054e-13,5.0558e-06,0.050459,0
7862.3,54.233,18.79,0,-0.65936,0,7921,50.707,11.111,-1.3132e-06,6.2054e-13,5.0558e-06,0.050459,0
7862.3,54.233,18.79,0,-0.65936,0,7921,50.707,11.111,-1.3132e-06,6.2054e-13,5.0558e-06,0.050459,0
7862.3,54.233,18.79,0,-0.65936,0,7921,50.707,11.111,-1.3132e-06,6.2054e-13,5.0558e-06,0.050459,0
7862.3,54.233,18.79,0,-0.65936,0,7921,50.707,11.111,-1.3132e-06,6.2054e-13,5.0558e-06,0.050459,0
7862.3,54.233,18.79,0,-0.65936,0,7921,50.707,11.111,-1.3132e-06,6.2054e-13,5.0558e-06,0.050459,0
7862.3,54.233,18.79,0,-0.65936,0,7921,50.707,11.111,-1.3132e-06,6.2054e-13,5.0558e-06,0.050459,0
7862.3,54.233,18.79,0,-0.65936,0,7921,50.707,11.111,-1.3132e-06,6.2054e-13,5.0558e-06,0.050459,0
7862.3,54.233,18.79,0,-0.65936,0,7921.7,50.707,11.111,0.002422,-1.0627e-05,0.067644,0.049896,0
7862.3,54.233,18.79,0,-0.65936,0,7921.7,50.707,11.111,0.002422,-1.0627e-05,0.067644,0.049896,0
7862.3,54.233,18.79,0,-0.65936,0,7921.7,50.707,11.111,0.002422,-1.0627e-05,0.067644,0.049896,0
7862.3,54.233,18.79,0,-0.65936,0,7921.7,50.707,11.111,0.002422,-1.0627e-05,0.067644,0.049896,0
7862.3,54.233,18.79,0,-0.65936,0,7921.7,50.707,11.111,0.002422,-1.0627e-05,0.067644,0.049896,0
7862.3,54.233,18.79,0,-0.65936,0,7921.7,50.707,11.111,0.002422,-1.0627e-05,0.067644,0.049896,0
7862.3,54.233,18.79,0,-0.65936,0,7921.7,50.707,11.111,0.002422,-1.0627e-05,0.067644,0.049896,0
7862.3,54.233,18.79,0,-0.65936,0,7921.7,50.707,11.111,0.002422,-1.0627e-05,0.067644,0.049896,0
7863,54.233,18.763,0,-0.66337,0,7921.7,50.707,11.111,0.002422,-1.0627e-05,0.067644,0.050531,0
7863,54.233,18.763,0,-0.66337,0,7921.7,50.707,11.111,0.002422,-1.0627e-05,0.067644,0.050531,0
7863,54.233,18.763,0,-0.66337,0,7921.7,50.707,11.111,0.002422,-1.0627e-05,0.067644,0.050531,0
7863,54.233,18.763,0,-0.66337,0,7922.1,50.708,11.111,0.0087338,-0.00010969,0.17435,0.050153,0
7864.9,54.233,18.696,0,-0.67391,0,7922.1,50.708,11.111,0.0087338,-0.00010969,0.17435,0.051786,0
7864.9,54.233,18.696,0,-0.67391,0,7922.1,50.708,11.111,0.0087338,-0.00010969,0.17435,0.051786,0
7864.9,54.233,18.696,0,-0.67391,0,7922.1,50.708,11.111,0.0087338,-0.00010969,0.17435,0.051786,0
7866.4,54.233,18.642,0,-0.68295,0,7923.5,50.712,11.111,0.064994,-0.0035226,0.67161,0.05193,0
7866.4,54.233,18.642,0,-0.68295,0,7924.1,50.717,11.11,0.11861,-0.0094988,0.96898,0.051333,0
7866.4,54.233,18.642,0,-0.68295,0,7924.1,50.717,11.11,0.11861,-0.0094988,0.96898,0.051333,0
7866.4,54.233,18.642,0,-0.68295,0,7924.1,50.717,11.11,0.11861,-0.0094988,0.96898,0.051333,0
7866.4,54.233,18.642,0,-0.68295,0,7924.1,50.717,11.11,0.11861,-0.0094988,0.96898,0.051333,0
7866.4,54.233,18.642,0,-0.68295,0,7924.3,50.72,11.11,0.14051,-0.012502,1.07,0.051137,0
7866.4,54.233,18.642,0,-0.68295,0,7924.6,50.723,11.11,0.16443,-0.016096,1.1709,0.050942,0
7866.4,54.233,18.642,0,-0.68295,0,7924.6,50.723,11.11,0.16443,-0.016096,1.1709,0.050942,0
7867.9,54.233,18.587,0,-0.69256,0,7924.6,50.723,11.11,0.16443,-0.016096,1.1709,0.052273,0
7867.9,54.233,18.587,0,-0.69256,0,7924.6,50.723,11.11,0.16443,-0.016096,1.1709,0.052273,0
7868.3,54.233,18.573,0,-0.69505,0,7924.6,50.723,11.11,0.16443,-0.016096,1.1709,0.052616,0
7868.3,54.233,18.573,0,-0.69505,0,7925.2,50.736,11.108,0.24812,-0.030849,1.468,0.052001,0
7868.3,54.233,18.573,0,-0.69505,0,7925.2,50.736,11.108,0.24812,-0.030849,1.468,0.052001,0
7868.3,54.233,18.573,0,-0.69505,0,7925.2,50.736,11.108,0.24812,-0.030849,1.468,0.052001,0
7868.3,54.233,18.573,0,-0.69505,0,7925.2,50.736,11.108,0.24812,-0.030849,1.468,0.052001,0
7868.3,54.233,18.573,0,-0.69505,0,7925.2,50.736,11.108,0.24812,-0.030849,1.468,0.052001,0
7868.3,54.233,18.573,0,-0.69505,0,7925.2,50.736,11.108,0.24812,-0.030849,1.468,0.052001,0
7868.3,54.233,18.573,0,-0.69505,0,7925.2,50.736,11.108,0.24812,-0.030849,1.468,0.052001,0
7868.3,54.233,18.573,0,-0.69505,0,7925.5,50.741,11.108,0.27987,-0.037197,1.5637,0.051798,0
7868.3,54.233,18.573,0,-0.69505,0,7925.7,50.747,11.107,0.31348,-0.044295,1.657,0.051597,0
7868.3,54.233,18.573,0,-0.69505,0,7925.9,50.754,11.106,0.3489,-0.052155,1.7478,0.051398,0
7868.3,54.233,18.573,0,-0.69505,0,7925.9,50.754,11.106,0.3489,-0.052155,1.7478,0.051398,0
7868.3,54.233,18.573,0,-0.69505,0,7925.9,50.754,11.106,0.3489,-0.052155,1.7478,0.051398,0
7868.3,54.233,18.573,0,-0.69505,0,7925.9,50.754,11.106,0.3489,-0.052155,1.7478,0.051398,0
7868.3,54.233,18.573,0,-0.69505,0,7925.9,50.754,11.106,0.3489,-0.052155,1.7478,0.051398,0
7868.3,54.233,18.573,0,-0.69505,0,7926.6,50.779,11.101,0.46533,-0.080287,2.0016,0.050805,0
7868.3,54.233,18.573,0,-0.69505,0,7926.8,50.789,11.1,0.50732,-0.091139,2.0794,0.050609,0
7868.3,54.233,18.573,0,-0.69505,0,7926.8,50.789,11.1,0.50732,-0.091139,2.0794,0.050609,0
7868.3,54.233,18.573,0,-0.69505,0,7926.8,50.789,11.1,0.50732,-0.091139,2.0794,0.050609,0
7868.3,54.233,18.573,0,-0.69505,0,7926.8,50.789,11.1,0.50732,-0.091139,2.0794,0.050609,0
7868.3,54.233,18.573,0,-0.69505,0,7926.8,50.789,11.1,0.50732,-0.091139,2.0794,0.050609,0
7868.3,54.233,18.573,0,-0.69505,0,7926.8,50.789,11.1,0.50732,-0.091139,2.0794,0.050609,0
7868.3,54.233,18.573,0,-0.69505,0,7926.8,50.789,11.1,0.50732,-0.091139,2.0794,0.050609,0
7868.3,54.233,18.573,0,-0.69505,0,7926.8,50.789,11.1,0.50732,-0.091139,2.0794,0.050609,0
7868.3,54.233,18.573,0,-0.69505,0,7926.8,50.789,11.1,0.50732,-0.091139,2.0794,0.050609,0
7871.6,54.233,18.446,0,-0.71882,0,7926.8,50.789,11.1,0.50732,-0.091139,2.0794,0.053646,0
7871.6,54.233,18.446,0,-0.71882,0,7926.8,50.789,11.1,0.50732,-0.091139,2.0794,0.053646,0
7871.6,54.233,18.446,0,-0.71882,0,7927.5,50.824,11.093,0.64174,-0.12775,2.2901,0.052996,0
7871.6,54.233,18.446,0,-0.71882,0,7927.5,50.824,11.093,0.64174,-0.12775,2.2901,0.052996,0
7871.6,54.233,18.446,0,-0.71882,0,7927.5,50.824,11.093,0.64174,-0.12775,2.2901,0.052996,0
7871.6,54.233,18.446,0,-0.71882,0,7927.5,50.824,11.093,0.64174,-0.12775,2.2901,0.052996,0
7871.6,54.233,18.446,0,-0.71882,0,7927.5,50.824,11.093,0.64174,-0.12775,2.2901,0.052996,0
7871.6,54.233,18.446,0,-0.71882,0,7927.5,50.824,11.093,0.64174,-0.12775,2.2901,0.052996,0
7871.6,54.233,18.446,0,-0.71882,0,7927.5,50.824,11.093,0.64174,-0.12775,2.2901,0.052996,0
7871.6,54.233,18.446,0,-0.71882,0,7927.5,50.824,11.093,0.64174,-0.12775,2.2901,0.052996,0
7871.6,54.233,18.446,0,-0.71882,0,7927.5,50.824,11.093,0.64174,-0.12775,2.2901,0.052996,0
7871.6,54.233,18.446,0,-0.71882,0,7927.5,50.824,11.093,0.64174,-0.12775,2.2901,0.052996,0
7872.7,54.233,18.403,0,-0.72721,0,7927.5,50.824,11.093,0.64174,-0.12775,2.2901,0.054059,0
7874.2,54.233,18.344,0,-0.73867,0,7928.1,50.868,11.083,0.7872,-0.16957,2.4649,0.054839,0
7874.5,54.233,18.329,0,-0.74158,0,7928.1,50.868,11.083,0.7872,-0.16957,2.4649,0.055212,0
7874.5,54.233,18.329,0,-0.74158,0,7928.1,50.868,11.083,0.7872,-0.16957,2.4649,0.055212,0
7874.5,54.233,18.329,0,-0.74158,0,7928.1,50.868,11.083,0.7872,-0.16957,2.4649,0.055212,0
7876.4,54.233,18.254,0,-0.75637,0,7929.2,50.961,11.062,1.0481,-0.24684,2.6739,0.055911,0
7876.4,54.233,18.254,0,-0.75637,0,7929.2,50.961,11.062,1.0481,-0.24684,2.6739,0.055911,0
7876.4,54.233,18.254,0,-0.75637,0,7929.2,50.961,11.062,1.0481,-0.24684,2.6739,0.055911,0
7876.4,54.233,18.254,0,-0.75637,0,7929.2,50.961,11.062,1.0481,-0.24684,2.6739,0.055911,0
7876.4,54.233,18.254,0,-0.75637,0,7929.2,50.961,11.062,1.0481,-0.24684,2.6739,0.055911,0
7876.4,54.233,18.254,0,-0.75637,0,7929.2,50.961,11.062,1.0481,-0.24684,2.6739,0.055911,0
7876.4,54.233,18.254,0,-0.75637,0,7929.2,50.961,11.062,1.0481,-0.24684,2.6739,0.055911,0
7876.4,54.233,18.254,0,-0.75637,0,7929.2,50.961,11.062,1.0481,-0.24684,2.6739,0.055911,0
7876.4,54.233,18.254,0,-0.75637,0,7929.2,50.961,11.062,1.0481,-0.24684,2.6739,0.055911,0
7876.4,54.233,18.254,0,-0.75637,0,7929.2,50.961,11.062,1.0481,-0.24684,2.6739,0.055911,0
7876.4,54.233,18.254,0,-0.75637,0,7930.1,51.054,11.039,1.2677,-0.31092,2.7685,0.054942,0
7876.4,54.233,18.254,0,-0.75637,0,7930.3,51.081,11.032,1.3234,-0.3267,2.7827,0.054703,0
7876.4,54.233,18.254,0,-0.75637,0,7930.3,51.081,11.032,1.3234,-0.3267,2.7827,0.054703,0
7876.4,54.233,18.254,0,-0.75637,0,7930.3,51.081,11.032,1.3234,-0.3267,2.7827,0.054703,0
7876.4,54.233,18.254,0,-0.75637,0,7930.3,51.081,11.032,1.3234,-0.3267,2.7827,0.054703,0
7876.4,54.233,18.254,0,-0.75637,0,7930.3,51.081,11.032,1.3234,-0.3267,2.7827,0.054703,0
7876.4,54.233,18.254,0,-0.75637,0,7930.3,51.081,11.032,1.3234,-0.3267,2.7827,0.054703,0
7877.5,54.233,18.209,0,-0.7654,0,7930.3,51.081,11.032,1.3234,-0.3267,2.7827,0.055829,0
7878.9,54.233,18.147,0,-0.77759,0,7931,51.166,11.011,1.4915,-0.37249,2.8034,0.056622,0
7879.3,54.233,18.131,0,-0.78067,0,7931,51.166,11.011,1.4915,-0.37249,2.8034,0.057017,0
7879.6,54.233,18.116,0,-0.78375,0,7931,51.166,11.011,1.4915,-0.37249,2.8034,0.057418,0
7879.6,54.233,18.116,0,-0.78375,0,7931,51.166,11.011,1.4915,-0.37249,2.8034,0.057418,0
7879.6,54.233,18.116,0,-0.78375,0,7932.3,51.367,10.96,1.8256,-0.45208,2.7569,0.055866,0
7879.6,54.233,18.116,0,-0.78375,0,7932.3,51.367,10.96,1.8256,-0.45208,2.7569,0.055866,0
7879.6,54.233,18.116,0,-0.78375,0,7932.3,51.367,10.96,1.8256,-0.45208,2.7569,0.055866,0
7879.6,54.233,18.116,0,-0.78375,0,7932.3,51.367,10.96,1.8256,-0.45208,2.7569,0.055866,0
7879.6,54.233,18.116,0,-0.78375,0,7932.3,51.367,10.96,1.8256,-0.45208,2.7569,0.055866,0
7879.6,54.233,18.116,0,-0.78375,0,7932.3,51.367,10.96,1.8256,-0.45208,2.7569,0.055866,0
7879.6,54.233,18.116,0,-0.78375,0,7932.3,51.367,10.96,1.8256,-0.45208,2.7569,0.055866,0
7879.6,54.233,18.116,0,-0.78375,0,7932.5,51.404,10.951,1.8803,-0.46324,2.739,0.055613,0
7879.6,54.233,18.116,0,-0.78375,0,7932.5,51.404,10.951,1.8803,-0.46324,2.739,0.055613,0
7879.6,54.233,18.116,0,-0.78375,0,7932.5,51.404,10.951,1.8803,-0.46324,2.739,0.055613,0
7879.6,54.233,18.116,0,-0.78375,0,7932.5,51.404,10.951,1.8803,-0.46324,2.739,0.055613,0
7879.6,54.233,18.116,0,-0.78375,0,7932.5,51.404,10.951,1.8803,-0.46324,2.739,0.055613,0
7879.6,54.233,18.116,0,-0.78375,0,7932.5,51.404,10.951,1.8803,-0.46324,2.739,0.055613,0
7879.6,54.233,18.116,0,-0.78375,0,7932.5,51.404,10.951,1.8803,-0.46324,2.739,0.055613,0
7879.6,54.233,18.116,0,-0.78375,0,7932.5,51.404,10.951,1.8803,-0.46324,2.739,0.055613,0
7879.6,54.233,18.116,0,-0.78375,0,7932.5,51.404,10.951,1.8803,-0.46324,2.739,0.055613,0
7879.6,54.233,18.116,0,-0.78375,0,7932.8,51.442,10.941,1.9346,-0.47369,2.7184,0.055362,0
7879.6,54.233,18.116,0,-0.78375,0,7932.8,51.442,10.941,1.9346,-0.47369,2.7184,0.055362,0
7879.6,54.233,18.116,0,-0.78375,0,7932.8,51.442,10.941,1.9346,-0.47369,2.7184,0.055362,0
7881.5,54.233,18.037,0,-0.79933,0,7932.8,51.442,10.941,1.9346,-0.47369,2.7184,0.057304,0
7881.5,54.233,18.037,0,-0.79933,0,7933.6,51.607,10.902,2.1465,-0.50784,2.6122,0.056252,0
7881.5,54.233,18.037,0,-0.79933,0,7933.6,51.607,10.902,2.1465,-0.50784,2.6122,0.056252,0
7884,54.233,17.923,0,-0.82148,0,7934.1,51.695,10.881,2.2487,-0.51999,2.5462,0.058528,0
7884,54.233,17.923,0,-0.82148,0,7934.1,51.695,10.881,2.2487,-0.51999,2.5462,0.058528,0
7884,54.233,17.923,0,-0.82148,0,7934.7,51.835,10.85,2.3965,-0.53168,2.4329,0.0577,0
7884.7,54.233,17.89,0,-0.82787,0,7934.7,51.835,10.85,2.3965,-0.53168,2.4329,0.058523,0
7884.7,54.233,17.89,0,-0.82787,0,7934.7,51.835,10.85,2.3965,-0.53168,2.4329,0.058523,0
7884.7,54.233,17.89,0,-0.82787,0,7934.7,51.835,10.85,2.3965,-0.53168,2.4329,0.058523,0
7884.7,54.233,17.89,0,-0.82787,0,7934.7,51.835,10.85,2.3965,-0.53168,2.4329,0.058523,0
7885,54.233,17.874,0,-0.83107,0,7934.7,51.835,10.85,2.3965,-0.53168,2.4329,0.058943,0
7885,54.233,17.874,0,-0.83107,0,7934.7,51.835,10.85,2.3965,-0.53168,2.4329,0.058943,0
7885,54.233,17.874,0,-0.83107,0,7934.7,51.835,10.85,2.3965,-0.53168,2.4329,0.058943,0
7885,54.233,17.874,0,-0.83107,0,7934.7,51.835,10.85,2.3965,-0.53168,2.4329,0.058943,0
7885,54.233,17.874,0,-0.83107,0,7934.7,51.835,10.85,2.3965,-0.53168,2.4329,0.058943,0
7885,54.233,17.874,0,-0.83107,0,7934.7,51.835,10.85,2.3965,-0.53168,2.4329,0.058943,0
7885,54.233,17.874,0,-0.83107,0,7934.7,51.835,10.85,2.3965,-0.53168,2.4329,0.058943,0
7885,54.233,17.874,0,-0.83107,0,7935.4,51.984,10.818,2.5368,-0.53535,2.3049,0.058104,0
7885,54.233,17.874,0,-0.83107,0,7935.6,52.035,10.807,2.5818,-0.53477,2.2593,0.057829,0
7885,54.233,17.874,0,-0.83107,0,7935.6,52.035,10.807,2.5818,-0.53477,2.2593,0.057829,0
7885,54.233,17.874,0,-0.83107,0,7936,52.141,10.786,2.6689,-0.53092,2.1642,0.057288,0
7887.5,54.233,17.756,0,-0.85358,0,7936.2,52.195,10.775,2.7109,-0.52766,2.1148,0.059934,0
7887.9,54.233,17.739,0,-0.8568,0,7936.2,52.195,10.775,2.7109,-0.52766,2.1148,0.060373,0
7888.2,54.233,17.721,0,-0.86002,0,7936.2,52.195,10.775,2.7109,-0.52766,2.1148,0.060818,0
7888.2,54.233,17.721,0,-0.86002,0,7936.2,52.195,10.775,2.7109,-0.52766,2.1148,0.060818,0
7888.2,54.233,17.721,0,-0.86002,0,7936.2,52.195,10.775,2.7109,-0.52766,2.1148,0.060818,0
7888.2,54.233,17.721,0,-0.86002,0,7936.2,52.195,10.775,2.7109,-0.52766,2.1148,0.060818,0
7888.2,54.233,17.721,0,-0.86002,0,7936.2,52.195,10.775,2.7109,-0.52766,2.1148,0.060818,0
7888.2,54.233,17.721,0,-0.86002,0,7936.2,52.195,10.775,2.7109,-0.52766,2.1148,0.060818,0
7888.2,54.233,17.721,0,-0.86002,0,7936.2,52.195,10.775,2.7109,-0.52766,2.1148,0.060818,0
7888.2,54.233,17.721,0,-0.86002,0,7936.2,52.195,10.775,2.7109,-0.52766,2.1148,0.060818,0
7888.2,54.233,17.721,0,-0.86002,0,7936.2,52.195,10.775,2.7109,-0.52766,2.1148,0.060818,0
7888.2,54.233,17.721,0,-0.86002,0,7936.2,52.195,10.775,2.7109,-0.52766,2.1148,0.060818,0
7888.2,54.233,17.721,0,-0.86002,0,7936.2,52.195,10.775,2.7109,-0.52766,2.1148,0.060818,0
7888.2,54.233,17.721,0,-0.86002,0,7937.3,52.477,10.724,2.9056,-0.49831,1.8519,0.059358,0
7888.2,54.233,17.721,0,-0.86002,0,7937.3,52.477,10.724,2.9056,-0.49831,1.8519,0.059358,0
7888.2,54.233,17.721,0,-0.86002,0,7937.3,52.477,10.724,2.9056,-0.49831,1.8519,0.059358,0
7888.2,54.233,17.721,0,-0.86002,0,7937.3,52.477,10.724,2.9056,-0.49831,1.8519,0.059358,0
7888.2,54.233,17.721,0,-0.86002,0,7937.3,52.477,10.724,2.9056,-0.49831,1.8519,0.059358,0
7888.2,54.233,17.721,0,-0.86002,0,7937.3,52.477,10.724,2.9056,-0.49831,1.8519,0.059358,0
7888.2,54.233,17.721,0,-0.86002,0,7937.3,52.477,10.724,2.9056,-0.49831,1.8519,0.059358,0
7888.2,54.233,17.721,0,-0.86002,0,7937.3,52.477,10.724,2.9056,-0.49831,1.8519,0.059358,0
7889,54.233,17.687,0,-0.86644,0,7937.3,52.477,10.724,2.9056,-0.49831,1.8519,0.060226,0
7889,54.233,17.687,0,-0.86644,0,7937.3,52.477,10.724,2.9056,-0.49831,1.8519,0.060226,0
7889,54.233,17.687,0,-0.86644,0,7937.3,52.477,10.724,2.9056,-0.49831,1.8519,0.060226,0
7889,54.233,17.687,0,-0.86644,0,7937.7,52.595,10.705,2.9758,-0.4807,1.7403,0.059648,0
7889,54.233,17.687,0,-0.86644,0,7937.7,52.595,10.705,2.9758,-0.4807,1.7403,0.059648,0
7890.7,54.233,17.599,0,-0.88239,0,7937.7,52.595,10.705,2.9758,-0.4807,1.7403,0.061882,0
7891.4,54.233,17.564,0,-0.88868,0,7937.7,52.595,10.705,2.9758,-0.4807,1.7403,0.06282,0
7891.4,54.233,17.564,0,-0.88868,0,7937.7,52.595,10.705,2.9758,-0.4807,1.7403,0.06282,0
7892.5,54.233,17.51,0,-0.89801,0,7939.4,53.092,10.637,3.2096,-0.3799,1.2645,0.061767,0
7892.8,54.233,17.492,0,-0.90108,0,7939.4,53.092,10.637,3.2096,-0.3799,1.2645,0.06223,0
7892.8,54.233,17.492,0,-0.90108,0,7939.4,53.092,10.637,3.2096,-0.3799,1.2645,0.06223,0
7892.8,54.233,17.492,0,-0.90108,0,7940.1,53.287,10.617,3.2771,-0.331,1.0762,0.061337,0
7892.8,54.233,17.492,0,-0.90108,0,7940.1,53.287,10.617,3.2771,-0.331,1.0762,0.061337,0
7892.8,54.233,17.492,0,-0.90108,0,7940.1,53.287,10.617,3.2771,-0.331,1.0762,0.061337,0
7892.8,54.233,17.492,0,-0.90108,0,7940.3,53.353,10.611,3.297,-0.31353,1.0124,0.061046,0
7892.8,54.233,17.492,0,-0.90108,0,7940.3,53.353,10.611,3.297,-0.31353,1.0124,0.061046,0
7892.8,54.233,17.492,0,-0.90108,0,7940.3,53.353,10.611,3.297,-0.31353,1.0124,0.061046,0
7892.8,54.233,17.492,0,-0.90108,0,7940.3,53.353,10.611,3.297,-0.31353,1.0124,0.061046,0
7892.8,54.233,17.492,0,-0.90108,0,7940.3,53.353,10.611,3.297,-0.31353,1.0124,0.061046,0
7892.8,54.233,17.492,0,-0.90108,0,7940.3,53.353,10.611,3.297,-0.31353,1.0124,0.061046,0
7892.8,54.233,17.492,0,-0.90108,0,7940.3,53.353,10.611,3.297,-0.31353,1.0124,0.061046,0
7892.8,54.233,17.492,0,-0.90108,0,7940.3,53.353,10.611,3.297,-0.31353,1.0124,0.061046,0
7893.9,54.233,17.438,0,-0.91598,0,7940.3,53.353,10.611,3.297,-0.31353,1.0124,0.062424,0
7893.9,54.233,17.438,0,-0.91598,0,7940.3,53.353,10.611,3.297,-0.31353,1.0124,0.062424,0
7893.9,54.233,17.438,0,-0.91598,0,7940.3,53.353,10.611,3.297,-0.31353,1.0124,0.062424,0
7893.9,54.233,17.438,0,-0.91598,0,7940.3,53.353,10.611,3.297,-0.31353,1.0124,0.062424,0
7893.9,54.233,17.438,0,-0.91598,0,7940.3,53.353,10.611,3.297,-0.31353,1.0124,0.062424,0
7893.9,54.233,17.438,0,-0.91598,0,7940.3,53.353,10.611,3.297,-0.31353,1.0124,0.062424,0
7893.9,54.233,17.438,0,-0.91598,0,7940.3,53.353,10.611,3.297,-0.31353,1.0124,0.062424,0
7893.9,54.233,17.438,0,-0.91598,0,7940.3,53.353,10.611,3.297,-0.31353,1.0124,0.062424,0
7893.9,54.233,17.438,0,-0.91598,0,7940.3,53.353,10.611,3.297,-0.31353,1.0124,0.062424,0
7894.6,54.233,17.401,0,-0.92906,0,7940.7,53.486,10.599,3.333,-0.27698,0.88341,0.062762,0
7896,54.233,17.326,0,-0.95382,0,7941.3,53.687,10.585,3.3772,-0.21854,0.68653,0.063765,0
7896,54.233,17.326,0,-0.95382,0,7941.3,53.687,10.585,3.3772,-0.21854,0.68653,0.063765,0
7896,54.233,17.326,0,-0.95382,0,7942,53.891,10.575,3.4094,-0.1564,0.48589,0.062857,0
7896,54.233,17.326,0,-0.95382,0,7942.4,54.028,10.57,3.424,-0.1133,0.35018,0.062272,0
7897.3,54.233,17.249,0,-0.97656,0,7942.4,54.028,10.57,3.424,-0.1133,0.35018,0.064183,0
7897.3,54.233,17.249,0,-0.97656,0,7942.4,54.028,10.57,3.424,-0.1133,0.35018,0.064183,0
7897.7,54.233,17.229,0,-0.98192,0,7942.4,54.028,10.57,3.424,-0.1133,0.35018,0.064678,0
7898,54.233,17.209,0,-0.98715,0,7942.4,54.028,10.57,3.424,-0.1133,0.35018,0.06518,0
7898,54.233,17.209,0,-0.98715,0,7942.4,54.028,10.57,3.424,-0.1133,0.35018,0.06518,0
7898,54.233,17.209,0,-0.98715,0,7942.4,54.028,10.57,3.424,-0.1133,0.35018,0.06518,0
7898.4,54.233,17.189,0,-0.99224,0,7942.4,54.028,10.57,3.424,-0.1133,0.35018,0.065689,0
7898.4,54.233,17.189,0,-0.99224,0,7942.4,54.028,10.57,3.424,-0.1133,0.35018,0.065689,0
7898.4,54.233,17.189,0,-0.99224,0,7942.4,54.028,10.57,3.424,-0.1133,0.35018,0.065689,0
7898.4,54.233,17.189,0,-0.99224,0,7943.5,54.371,10.566,3.4367,-0.0015082,0.0046373,0.064137,0
7898.4,54.233,17.189,0,-0.99224,0,7943.5,54.371,10.566,3.4367,-0.0015082,0.0046373,0.064137,0
7898.4,54.233,17.189,0,-0.99224,0,7943.5,54.371,10.566,3.4367,-0.0015082,0.0046373,0.064137,0
7898.4,54.233,17.189,0,-0.99224,0,7943.5,54.371,10.566,3.4367,-0.0015082,0.0046373,0.064137,0
7898.4,54.233,17.189,0,-0.99224,0,7943.5,54.371,10.566,3.4367,-0.0015082,0.0046373,0.064137,0
7898.4,54.233,17.189,0,-0.99224,0,7943.5,54.371,10.566,3.4367,-0.0015082,0.0046373,0.064137,0
7898.4,54.233,17.189,0,-0.99224,0,7943.5,54.371,10.566,3.4367,-0.0015082,0.0046373,0.064137,0
7898.4,54.233,17.189,0,-0.99224,0,7943.5,54.371,10.566,3.4367,-0.0015082,0.0046373,0.064137,0
7899.1,54.233,17.15,0,-1.002,0,7943.5,54.371,10.566,3.4367,-0.0015082,0.0046373,0.065129,0
7899.1,54.233,17.15,0,-1.002,0,7943.5,54.371,10.566,3.4367,-0.0015082,0.0046373,0.065129,0
7899.1,54.233,17.15,0,-1.002,0,7943.9,54.509,10.568,3.4319,0.044149,-0.13589,0.064518,0
7899.7,54.233,17.109,0,-1.0112,0,7943.9,54.509,10.568,3.4319,0.044149,-0.13589,0.06552,0
7899.7,54.233,17.109,0,-1.0112,0,7943.9,54.509,10.568,3.4319,0.044149,-0.13589,0.06552,0
7900.1,54.233,17.089,0,-1.0156,0,7943.9,54.509,10.568,3.4319,0.044149,-0.13589,0.066031,0
7900.1,54.233,17.089,0,-1.0156,0,7944.9,54.85,10.58,3.3953,0.15821,-0.49218,0.064506,0
7900.1,54.233,17.089,0,-1.0156,0,7944.9,54.85,10.58,3.3953,0.15821,-0.49218,0.064506,0
7900.1,54.233,17.089,0,-1.0156,0,7945.2,54.918,10.583,3.3836,0.18071,-0.56419,0.064213,0
7901.8,54.233,16.986,0,-1.0355,0,7945.2,54.918,10.583,3.3836,0.18071,-0.56419,0.066735,0
7901.8,54.233,16.986,0,-1.0355,0,7945.2,54.918,10.583,3.3836,0.18071,-0.56419,0.066735,0
7901.8,54.233,16.986,0,-1.0355,0,7945.2,54.918,10.583,3.3836,0.18071,-0.56419,0.066735,0
7901.8,54.233,16.986,0,-1.0355,0,7945.2,54.918,10.583,3.3836,0.18071,-0.56419,0.066735,0
7901.8,54.233,16.986,0,-1.0355,0,7945.6,55.052,10.592,3.356,0.2251,-0.70881,0.066113,0
7901.8,54.233,16.986,0,-1.0355,0,7945.6,55.052,10.592,3.356,0.2251,-0.70881,0.066113,0
7901.8,54.233,16.986,0,-1.0355,0,7945.6,55.052,10.592,3.356,0.2251,-0.70881,0.066113,0
7902.5,54.233,16.945,0,-1.0424,0,7945.6,55.052,10.592,3.356,0.2251,-0.70881,0.067153,0
7902.8,54.233,16.924,0,-1.0456,0,7945.6,55.052,10.592,3.356,0.2251,-0.70881,0.067685,0
7903.1,54.233,16.903,0,-1.0487,0,7945.6,55.052,10.592,3.356,0.2251,-0.70881,0.068224,0
7903.1,54.233,16.903,0,-1.0487,0,7946.4,55.318,10.615,3.2833,0.31032,-0.99993,0.06695,0
7903.1,54.233,16.903,0,-1.0487,0,7946.4,55.318,10.615,3.2833,0.31032,-0.99993,0.06695,0
7903.8,54.233,16.861,0,-1.0543,0,7946.4,55.318,10.615,3.2833,0.31032,-0.99993,0.06801,0
7903.8,54.233,16.861,0,-1.0543,0,7946.8,55.448,10.629,3.2382,0.3505,-1.146,0.067377,0
7903.8,54.233,16.861,0,-1.0543,0,7946.8,55.448,10.629,3.2382,0.3505,-1.146,0.067377,0
7903.8,54.233,16.861,0,-1.0543,0,7946.8,55.448,10.629,3.2382,0.3505,-1.146,0.067377,0
7903.8,54.233,16.861,0,-1.0543,0,7946.8,55.448,10.629,3.2382,0.3505,-1.146,0.067377,0
7903.8,54.233,16.861,0,-1.0543,0,7946.8,55.448,10.629,3.2382,0.3505,-1.146,0.067377,0
7903.8,54.233,16.861,0,-1.0543,0,7946.8,55.448,10.629,3.2382,0.3505,-1.146,0.067377,0
7903.8,54.233,16.861,0,-1.0543,0,7946.8,55.448,10.629,3.2382,0.3505,-1.146,0.067377,0
7903.8,54.233,16.861,0,-1.0543,0,7946.8,55.448,10.629,3.2382,0.3505,-1.146,0.067377,0
7903.8,54.233,16.861,0,-1.0543,0,7946.8,55.448,10.629,3.2382,0.3505,-1.146,0.067377,0
7904.5,54.233,16.819,0,-1.0593,0,7946.8,55.448,10.629,3.2382,0.3505,-1.146,0.068448,0
7904.8,54.233,16.797,0,-1.0616,0,7946.8,55.448,10.629,3.2382,0.3505,-1.146,0.068995,0
7904.8,54.233,16.797,0,-1.0616,0,7946.8,55.448,10.629,3.2382,0.3505,-1.146,0.068995,0
7904.8,54.233,16.797,0,-1.0616,0,7946.8,55.448,10.629,3.2382,0.3505,-1.146,0.068995,0
7904.8,54.233,16.797,0,-1.0616,0,7946.8,55.448,10.629,3.2382,0.3505,-1.146,0.068995,0
7904.8,54.233,16.797,0,-1.0616,0,7946.8,55.448,10.629,3.2382,0.3505,-1.146,0.068995,0
7904.8,54.233,16.797,0,-1.0616,0,7946.8,55.448,10.629,3.2382,0.3505,-1.146,0.068995,0
7904.8,54.233,16.797,0,-1.0616,0,7946.8,55.448,10.629,3.2382,0.3505,-1.146,0.068995,0
7904.8,54.233,16.797,0,-1.0616,0,7946.8,55.448,10.629,3.2382,0.3505,-1.146,0.068995,0
7905.2,54.233,16.776,0,-1.0637,0,7946.8,55.448,10.629,3.2382,0.3505,-1.146,0.06955,0
7906.5,54.233,16.691,0,-1.0705,0,7948.1,55.826,10.679,3.0678,0.45746,-1.5836,0.069793,0
7906.5,54.233,16.691,0,-1.0705,0,7948.1,55.826,10.679,3.0678,0.45746,-1.5836,0.069793,0
7906.8,54.233,16.669,0,-1.0718,0,7948.1,55.826,10.679,3.0678,0.45746,-1.5836,0.070355,0
7907.8,54.233,16.605,0,-1.0747,0,7948.8,56.006,10.709,2.9631,0.50131,-1.8,0.071052,0
7907.8,54.233,16.605,0,-1.0747,0,7948.8,56.006,10.709,2.9631,0.50131,-1.8,0.071052,0
7907.8,54.233,16.605,0,-1.0747,0,7949.4,56.18,10.741,2.8455,0.53738,-2.0131,0.070046,0
7907.8,54.233,16.605,0,-1.0747,0,7949.4,56.18,10.741,2.8455,0.53738,-2.0131,0.070046,0
7907.8,54.233,16.605,0,-1.0747,0,7949.4,56.18,10.741,2.8455,0.53738,-2.0131,0.070046,0
7907.8,54.233,16.605,0,-1.0747,0,7949.4,56.18,10.741,2.8455,0.53738,-2.0131,0.070046,0
7907.8,54.233,16.605,0,-1.0747,0,7949.4,56.18,10.741,2.8455,0.53738,-2.0131,0.070046,0
7907.8,54.233,16.605,0,-1.0747,0,7949.4,56.18,10.741,2.8455,0.53738,-2.0131,0.070046,0
7907.8,54.233,16.605,0,-1.0747,0,7949.6,56.236,10.752,2.8035,0.54752,-2.0832,0.069719,0
7907.8,54.233,16.605,0,-1.0747,0,7949.6,56.236,10.752,2.8035,0.54752,-2.0832,0.069719,0
7907.8,54.233,16.605,0,-1.0747,0,7949.6,56.236,10.752,2.8035,0.54752,-2.0832,0.069719,0
7907.8,54.233,16.605,0,-1.0747,0,7949.6,56.236,10.752,2.8035,0.54752,-2.0832,0.069719,0
7907.8,54.233,16.605,0,-1.0747,0,7949.6,56.236,10.752,2.8035,0.54752,-2.0832,0.069719,0
7907.8,54.233,16.605,0,-1.0747,0,7949.6,56.236,10.752,2.8035,0.54752,-2.0832,0.069719,0
7907.8,54.233,16.605,0,-1.0747,0,7949.6,56.236,10.752,2.8035,0.54752,-2.0832,0.069719,0
7907.8,54.233,16.605,0,-1.0747,0,7949.6,56.236,10.752,2.8035,0.54752,-2.0832,0.069719,0
7907.8,54.233,16.605,0,-1.0747,0,7949.6,56.236,10.752,2.8035,0.54752,-2.0832,0.069719,0
7907.8,54.233,16.605,0,-1.0747,0,7949.6,56.236,10.752,2.8035,0.54752,-2.0832,0.069719,0
7908.8,54.233,16.54,0,-1.0762,0,7949.6,56.236,10.752,2.8035,0.54752,-2.0832,0.071412,0
7908.8,54.233,16.54,0,-1.0762,0,7949.6,56.236,10.752,2.8035,0.54752,-2.0832,0.071412,0
7909.2,54.233,16.519,0,-1.0764,0,7949.6,56.236,10.752,2.8035,0.54752,-2.0832,0.071993,0
7909.2,54.233,16.519,0,-1.0764,0,7950.5,56.453,10.797,2.6218,0.57781,-2.3572,0.070629,0
7909.2,54.233,16.519,0,-1.0764,0,7950.5,56.453,10.797,2.6218,0.57781,-2.3572,0.070629,0
7911.5,54.233,16.368,0,-1.0732,0,7950.9,56.555,10.821,2.5229,0.58646,-2.4895,0.07403,0
7911.5,54.233,16.368,0,-1.0732,0,7951.8,56.748,10.868,2.3098,0.58997,-2.742,0.072585,0
7911.5,54.233,16.368,0,-1.0732,0,7951.8,56.748,10.868,2.3098,0.58997,-2.742,0.072585,0
7911.5,54.233,16.368,0,-1.0732,0,7952,56.793,10.88,2.2534,0.58792,-2.8023,0.072232,0
7911.5,54.233,16.368,0,-1.0732,0,7952,56.793,10.88,2.2534,0.58792,-2.8023,0.072232,0
7911.5,54.233,16.368,0,-1.0732,0,7952.2,56.837,10.892,2.1959,0.58468,-2.8612,0.071883,0
7911.5,54.233,16.368,0,-1.0732,0,7952.2,56.837,10.892,2.1959,0.58468,-2.8612,0.071883,0
7911.5,54.233,16.368,0,-1.0732,0,7952.2,56.837,10.892,2.1959,0.58468,-2.8612,0.071883,0
7911.5,54.233,16.368,0,-1.0732,0,7952.2,56.837,10.892,2.1959,0.58468,-2.8612,0.071883,0
7911.5,54.233,16.368,0,-1.0732,0,7952.2,56.837,10.892,2.1959,0.58468,-2.8612,0.071883,0
7911.5,54.233,16.368,0,-1.0732,0,7952.2,56.837,10.892,2.1959,0.58468,-2.8612,0.071883,0
7911.5,54.233,16.368,0,-1.0732,0,7952.2,56.837,10.892,2.1959,0.58468,-2.8612,0.071883,0
7911.5,54.233,16.368,0,-1.0732,0,7952.2,56.837,10.892,2.1959,0.58468,-2.8612,0.071883,0
7911.5,54.233,16.368,0,-1.0732,0,7952.2,56.837,10.892,2.1959,0.58468,-2.8612,0.071883,0
7912.8,54.233,16.283,0,-1.0681,0,7952.2,56.837,10.892,2.1959,0.58468,-2.8612,0.074247,0
7912.8,54.233,16.283,0,-1.0681,0,7952.2,56.837,10.892,2.1959,0.58468,-2.8612,0.074247,0
7912.8,54.233,16.283,0,-1.0681,0,7952.2,56.837,10.892,2.1959,0.58468,-2.8612,0.074247,0
7912.8,54.233,16.283,0,-1.0681,0,7952.2,56.837,10.892,2.1959,0.58468,-2.8612,0.074247,0
7912.8,54.233,16.283,0,-1.0681,0,7952.2,56.837,10.892,2.1959,0.58468,-2.8612,0.074247,0
7912.8,54.233,16.283,0,-1.0681,0,7952.2,56.837,10.892,2.1959,0.58468,-2.8612,0.074247,0
7912.8,54.233,16.283,0,-1.0681,0,7952.2,56.837,10.892,2.1959,0.58468,-2.8612,0.074247,0
7912.8,54.233,16.283,0,-1.0681,0,7952.2,56.837,10.892,2.1959,0.58468,-2.8612,0.074247,0
7912.8,54.233,16.283,0,-1.0681,0,7952.7,56.922,10.915,2.0775,0.57465,-2.975,0.07351,0
7913.4,54.233,16.24,0,-1.0648,0,7952.7,56.922,10.915,2.0775,0.57465,-2.975,0.074719,0
7914.7,54.233,16.155,0,-1.0567,0,7953.3,57.04,10.949,1.8918,0.55082,-3.1343,0.076051,0
7915.7,54.233,16.092,0,-1.0495,0,7954,57.147,10.981,1.6981,0.51216,-3.2481,0.076757,0
7915.7,54.233,16.092,0,-1.0495,0,7954.6,57.242,11.009,1.5033,0.45139,-3.2347,0.075553,0
7915.7,54.233,16.092,0,-1.0495,0,7954.6,57.242,11.009,1.5033,0.45139,-3.2347,0.075553,0
7915.7,54.233,16.092,0,-1.0495,0,7954.9,57.271,11.018,1.4393,0.42838,-3.2064,0.075158,0
7915.7,54.233,16.092,0,-1.0495,0,7954.9,57.271,11.018,1.4393,0.42838,-3.2064,0.075158,0
7915.7,54.233,16.092,0,-1.0495,0,7954.9,57.271,11.018,1.4393,0.42838,-3.2064,0.075158,0
7915.7,54.233,16.092,0,-1.0495,0,7954.9,57.271,11.018,1.4393,0.42838,-3.2064,0.075158,0
7915.7,54.233,16.092,0,-1.0495,0,7954.9,57.271,11.018,1.4393,0.42838,-3.2064,0.075158,0
7915.7,54.233,16.092,0,-1.0495,0,7954.9,57.271,11.018,1.4393,0.42838,-3.2064,0.075158,0
7915.7,54.233,16.092,0,-1.0495,0,7954.9,57.271,11.018,1.4393,0.42838,-3.2064,0.075158,0
7915.7,54.233,16.092,0,-1.0495,0,7954.9,57.271,11.018,1.4393,0.42838,-3.2064,0.075158,0
7915.7,54.233,16.092,0,-1.0495,0,7954.9,57.271,11.018,1.4393,0.42838,-3.2064,0.075158,0
7916.6,54.233,16.029,0,-1.0418,0,7954.9,57.271,11.018,1.4393,0.42838,-3.2064,0.077035,0
7916.6,54.233,16.029,0,-1.0418,0,7954.9,57.271,11.018,1.4393,0.42838,-3.2064,0.077035,0
7916.6,54.233,16.029,0,-1.0418,0,7954.9,57.271,11.018,1.4393,0.42838,-3.2064,0.077035,0
7916.6,54.233,16.029,0,-1.0418,0,7954.9,57.271,11.018,1.4393,0.42838,-3.2064,0.077035,0
7916.6,54.233,16.029,0,-1.0418,0,7954.9,57.271,11.018,1.4393,0.42838,-3.2064,0.077035,0
7916.6,54.233,16.029,0,-1.0418,0,7954.9,57.271,11.018,1.4393,0.42838,-3.2064,0.077035,0
7916.6,54.233,16.029,0,-1.0418,0,7954.9,57.271,11.018,1.4393,0.42838,-3.2064,0.077035,0
7916.6,54.233,16.029,0,-1.0418,0,7954.9,57.271,11.018,1.4393,0.42838,-3.2064,0.077035,0
7916.6,54.233,16.029,0,-1.0418,0,7954.9,57.271,11.018,1.4393,0.42838,-3.2064,0.077035,0
7916.6,54.233,16.029,0,-1.0418,0,7955.3,57.326,11.033,1.314,0.38068,-3.1213,0.07621,0
7916.6,54.233,16.029,0,-1.0418,0,7955.3,57.326,11.033,1.314,0.38068,-3.1213,0.07621,0
7917.3,54.233,15.988,0,-1.0364,0,7955.3,57.326,11.033,1.314,0.38068,-3.1213,0.077481,0
7918.2,54.233,15.926,0,-1.0285,0,7956,57.398,11.053,1.1347,0.30952,-2.9382,0.078139,0
7919.8,54.233,15.824,0,-1.0157,0,7956.4,57.441,11.064,1.0223,0.26486,-2.7897,0.080589,0
7919.8,54.233,15.824,0,-1.0157,0,7956.4,57.441,11.064,1.0223,0.26486,-2.7897,0.080589,0
7920.1,54.233,15.803,0,-1.0133,0,7956.4,57.441,11.064,1.0223,0.26486,-2.7897,0.081284,0
7920.1,54.233,15.803,0,-1.0133,0,7956.4,57.441,11.064,1.0223,0.26486,-2.7897,0.081284,0
7920.1,54.233,15.803,0,-1.0133,0,7956.4,57.441,11.064,1.0223,0.26486,-2.7897,0.081284,0
7920.1,54.233,15.803,0,-1.0133,0,7956.4,57.441,11.064,1.0223,0.26486,-2.7897,0.081284,0
7920.1,54.233,15.803,0,-1.0133,0,7956.4,57.441,11.064,1.0223,0.26486,-2.7897,0.081284,0
7920.1,54.233,15.803,0,-1.0133,0,7956.4,57.441,11.064,1.0223,0.26486,-2.7897,0.081284,0
7920.1,54.233,15.803,0,-1.0133,0,7956.4,57.441,11.064,1.0223,0.26486,-2.7897,0.081284,0
7920.1,54.233,15.803,0,-1.0133,0,7956.4,57.441,11.064,1.0223,0.26486,-2.7897,0.081284,0
7920.1,54.233,15.803,0,-1.0133,0,7956.4,57.441,11.064,1.0223,0.26486,-2.7897,0.081284,0
7920.1,54.233,15.803,0,-1.0133,0,7956.4,57.441,11.064,1.0223,0.26486,-2.7897,0.081284,0
7920.1,54.233,15.803,0,-1.0133,0,7957.7,57.543,11.087,0.72515,0.15389,-2.2809,0.078504,0
7920.1,54.233,15.803,0,-1.0133,0,7957.7,57.543,11.087,0.72515,0.15389,-2.2809,0.078504,0
7920.1,54.233,15.803,0,-1.0133,0,7957.7,57.543,11.087,0.72515,0.15389,-2.2809,0.078504,0
7920.1,54.233,15.803,0,-1.0133,0,7957.7,57.543,11.087,0.72515,0.15389,-2.2809,0.078504,0
7920.1,54.233,15.803,0,-1.0133,0,7957.7,57.543,11.087,0.72515,0.15389,-2.2809,0.078504,0
7920.1,54.233,15.803,0,-1.0133,0,7957.7,57.543,11.087,0.72515,0.15389,-2.2809,0.078504,0
7920.1,54.233,15.803,0,-1.0133,0,7957.7,57.543,11.087,0.72515,0.15389,-2.2809,0.078504,0
7920.8,54.233,15.763,0,-1.0086,0,7957.7,57.543,11.087,0.72515,0.15389,-2.2809,0.079829,0
7920.8,54.233,15.763,0,-1.0086,0,7957.7,57.543,11.087,0.72515,0.15389,-2.2809,0.079829,0
7921.1,54.233,15.743,0,-1.0063,0,7957.7,57.543,11.087,0.72515,0.15389,-2.2809,0.080507,0
7922.4,54.233,15.663,0,-0.99788,0,7958.8,57.604,11.099,0.52552,0.09045,-1.8453,0.080853,0
7923.3,54.233,15.603,0,-0.99212,0,7959.3,57.624,11.102,0.45756,0.07173,-1.6787,0.081953,0
7923.3,54.233,15.603,0,-0.99212,0,7960,57.648,11.105,0.36758,0.049608,-1.4421,0.08049,0
7923.3,54.233,15.603,0,-0.99212,0,7960,57.648,11.105,0.36758,0.049608,-1.4421,0.08049,0
7923.3,54.233,15.603,0,-0.99212,0,7960.2,57.655,11.106,0.34061,0.043621,-1.3673,0.080013,0
7923.3,54.233,15.603,0,-0.99212,0,7960.2,57.655,11.106,0.34061,0.043621,-1.3673,0.080013,0
7923.3,54.233,15.603,0,-0.99212,0,7960.2,57.655,11.106,0.34061,0.043621,-1.3673,0.080013,0
7923.3,54.233,15.603,0,-0.99212,0,7960.2,57.655,11.106,0.34061,0.043621,-1.3673,0.080013,0
7923.3,54.233,15.603,0,-0.99212,0,7960.2,57.655,11.106,0.34061,0.043621,-1.3673,0.080013,0
7923.3,54.233,15.603,0,-0.99212,0,7960.2,57.655,11.106,0.34061,0.043621,-1.3673,0.080013,0
7923.3,54.233,15.603,0,-0.99212,0,7960.2,57.655,11.106,0.34061,0.043621,-1.3673,0.080013,0
7923.3,54.233,15.603,0,-0.99212,0,7960.2,57.655,11.106,0.34061,0.043621,-1.3673,0.080013,0
7924.2,54.233,15.574,0,2.1009,0,7960.2,57.655,11.106,0.34061,0.043621,-1.3673,0.082064,0
7924.2,54.233,15.574,0,2.1009,0,7960.2,57.655,11.106,0.34061,0.043621,-1.3673,0.082064,0
7924.2,54.233,15.574,0,2.1009,0,7960.2,57.655,11.106,0.34061,0.043621,-1.3673,0.082064,0
7924.2,54.233,15.574,0,2.1009,0,7960.2,57.655,11.106,0.34061,0.043621,-1.3673,0.082064,0
7924.2,54.233,15.574,0,2.1009,0,7960.2,57.655,11.106,0.34061,0.043621,-1.3673,0.082064,0
7924.2,54.233,15.574,0,2.1009,0,7960.2,57.655,11.106,0.34061,0.043621,-1.3673,0.082064,0
7924.2,54.233,15.574,0,2.1009,0,7960.2,57.655,11.106,0.34061,0.043621,-1.3673,0.082064,0
7924.2,54.233,15.574,0,2.1009,0,7960.2,57.655,11.106,0.34061,0.043621,-1.3673,0.082064,0
7924.2,54.233,15.574,0,2.1009,0,7960.2,57.655,11.106,0.34061,0.043621,-1.3673,0.082064,0
7924.2,54.233,15.574,0,2.1009,0,7960.2,57.655,11.106,0.34061,0.043621,-1.3673,0.082064,0
7924.2,54.233,15.574,0,2.1009,0,7960.6,57.667,11.107,0.29094,0.033428,-1.2246,0.081078,0
7924.2,54.233,15.574,0,2.1009,0,7960.6,57.667,11.107,0.29094,0.033428,-1.2246,0.081078,0
7924.2,54.233,15.574,0,2.1009,0,7960.6,57.667,11.107,0.29094,0.033428,-1.2246,0.081078,0
7924.2,54.233,15.574,0,2.1009,0,7960.6,57.667,11.107,0.29094,0.033428,-1.2246,0.081078,0
7925.8,54.233,15.783,0,2.0577,0,7961.1,57.678,11.108,0.24666,0.025302,-1.0912,0.083624,0
7925.8,54.233,15.783,0,2.0577,0,7961.1,57.678,11.108,0.24666,0.025302,-1.0912,0.083624,0
7927.1,54.233,15.946,0,1.9955,0,7961.7,57.691,11.109,0.18949,0.016249,-0.90902,0.085056,0
7927.1,54.233,15.946,0,1.9955,0,7962.6,57.703,11.11,0.12854,0.0085328,-0.69947,0.082961,0
7927.7,54.233,16.025,0,1.9645,0,7962.6,57.703,11.11,0.12854,0.0085328,-0.69947,0.084457,0
7927.7,54.233,16.025,0,1.9645,0,7963.1,57.707,11.111,0.10378,0.0060163,-0.60845,0.083411,0
7927.7,54.233,16.025,0,1.9645,0,7963.1,57.707,11.111,0.10378,0.0060163,-0.60845,0.083411,0
7927.7,54.233,16.025,0,1.9645,0,7963.3,57.709,11.111,0.092664,0.005011,-0.56623,0.082897,0
7927.7,54.233,16.025,0,1.9645,0,7963.3,57.709,11.111,0.092664,0.005011,-0.56623,0.082897,0
7927.7,54.233,16.025,0,1.9645,0,7963.3,57.709,11.111,0.092664,0.005011,-0.56623,0.082897,0
7927.7,54.233,16.025,0,1.9645,0,7963.3,57.709,11.111,0.092664,0.005011,-0.56623,0.082897,0
7927.7,54.233,16.025,0,1.9645,0,7963.3,57.709,11.111,0.092664,0.005011,-0.56623,0.082897,0
7927.7,54.233,16.025,0,1.9645,0,7963.3,57.709,11.111,0.092664,0.005011,-0.56623,0.082897,0
7927.7,54.233,16.025,0,1.9645,0,7963.3,57.709,11.111,0.092664,0.005011,-0.56623,0.082897,0
7927.7,54.233,16.025,0,1.9645,0,7963.3,57.709,11.111,0.092664,0.005011,-0.56623,0.082897,0
7927.7,54.233,16.025,0,1.9645,0,7963.3,57.709,11.111,0.092664,0.005011,-0.56623,0.082897,0
7928.7,54.233,16.141,0,1.9179,0,7963.3,57.709,11.111,0.092664,0.005011,-0.56623,0.085173,0
7928.7,54.233,16.141,0,1.9179,0,7963.3,57.709,11.111,0.092664,0.005011,-0.56623,0.085173,0
7928.7,54.233,16.141,0,1.9179,0,7963.3,57.709,11.111,0.092664,0.005011,-0.56623,0.085173,0
7928.7,54.233,16.141,0,1.9179,0,7963.3,57.709,11.111,0.092664,0.005011,-0.56623,0.085173,0
7928.7,54.233,16.141,0,1.9179,0,7963.3,57.709,11.111,0.092664,0.005011,-0.56623,0.085173,0
7928.7,54.233,16.141,0,1.9179,0,7963.3,57.709,11.111,0.092664,0.005011,-0.56623,0.085173,0
7928.7,54.233,16.141,0,1.9179,0,7963.3,57.709,11.111,0.092664,0.005011,-0.56623,0.085173,0
7929,54.233,16.179,0,1.9024,0,7963.3,57.709,11.111,0.092664,0.005011,-0.56623,0.085963,0
7929,54.233,16.179,0,1.9024,0,7963.3,57.709,11.111,0.092664,0.005011,-0.56623,0.085963,0
7929,54.233,16.179,0,1.9024,0,7963.3,57.709,11.111,0.092664,0.005011,-0.56623,0.085963,0
7929,54.233,16.179,0,1.9024,0,7964,57.714,11.111,0.063919,0.0027843,-0.45203,0.084348,0
7930.6,54.233,16.366,0,1.8252,0,7964.6,57.717,11.111,0.041232,0.001432,-0.35527,0.086693,0
7930.6,54.233,16.366,0,1.8252,0,7965.1,57.718,11.111,0.02899,0.00086249,-0.2996,0.085591,0
7931.6,54.233,16.474,0,1.7791,0,7965.1,57.718,11.111,0.02899,0.00086249,-0.2996,0.08807,0
7931.6,54.233,16.474,0,1.7791,0,7965.1,57.718,11.111,0.02899,0.00086249,-0.2996,0.08807,0
7932.3,54.233,16.544,0,1.7486,0,7965.7,57.719,11.111,0.014301,0.00034031,-0.22804,0.088053,0
7932.3,54.233,16.544,0,1.7486,0,7965.7,57.719,11.111,0.014301,0.00034031,-0.22804,0.088053,0
7932.3,54.233,16.544,0,1.7486,0,7965.7,57.719,11.111,0.014301,0.00034031,-0.22804,0.088053,0
7932.3,54.233,16.544,0,1.7486,0,7965.7,57.719,11.111,0.014301,0.00034031,-0.22804,0.088053,0
7932.3,54.233,16.544,0,1.7486,0,7965.7,57.719,11.111,0.014301,0.00034031,-0.22804,0.088053,0
7932.3,54.233,16.544,0,1.7486,0,7965.7,57.719,11.111,0.014301,0.00034031,-0.22804,0.088053,0
7932.6,54.233,16.579,0,1.7334,0,7965.7,57.719,11.111,0.014301,0.00034031,-0.22804,0.088919,0
7932.6,54.233,16.579,0,1.7334,0,7965.7,57.719,11.111,0.014301,0.00034031,-0.22804,0.088919,0
7932.6,54.233,16.579,0,1.7334,0,7965.7,57.719,11.111,0.014301,0.00034031,-0.22804,0.088919,0
7932.6,54.233,16.579,0,1.7334,0,7965.7,57.719,11.111,0.014301,0.00034031,-0.22804,0.088919,0
7932.6,54.233,16.579,0,1.7334,0,7965.7,57.719,11.111,0.014301,0.00034031,-0.22804,0.088919,0
7932.6,54.233,16.579,0,1.7334,0,7965.7,57.719,11.111,0.014301,0.00034031,-0.22804,0.088919,0
7932.6,54.233,16.579,0,1.7334,0,7966.4,57.72,11.111,0.0033222,7.6388e-05,-0.16925,0.087194,0
7932.6,54.233,16.579,0,1.7334,0,7966.4,57.72,11.111,0.0033222,7.6388e-05,-0.16925,0.087194,0
7932.6,54.233,16.579,0,1.7334,0,7966.4,57.72,11.111,0.0033222,7.6388e-05,-0.16925,0.087194,0
7932.6,54.233,16.579,0,1.7334,0,7966.4,57.72,11.111,0.0033222,7.6388e-05,-0.16925,0.087194,0
7932.6,54.233,16.579,0,1.7334,0,7966.4,57.72,11.111,0.0033222,7.6388e-05,-0.16925,0.087194,0
7932.6,54.233,16.579,0,1.7334,0,7966.4,57.72,11.111,0.0033222,7.6388e-05,-0.16925,0.087194,0
7933.3,54.233,16.648,0,1.7031,0,7966.4,57.72,11.111,0.0033222,7.6388e-05,-0.16925,0.088913,0
7933.3,54.233,16.648,0,1.7031,0,7967.1,57.72,11.111,-0.0046373,-3.7437e-05,-0.12157,0.087189,0
7934.3,54.233,16.749,0,1.6579,0,7967.1,57.72,11.111,-0.0046373,-3.7437e-05,-0.12157,0.089806,0
7934.3,54.233,16.749,0,1.6579,0,7967.7,57.719,11.111,-0.010172,-7.0107e-05,-0.08342,0.088048,0
7934.3,54.233,16.749,0,1.6579,0,7967.7,57.719,11.111,-0.010172,-7.0107e-05,-0.08342,0.088048,0
7934.3,54.233,16.749,0,1.6579,0,7967.7,57.719,11.111,-0.010172,-7.0107e-05,-0.08342,0.088048,0
7935.9,54.233,16.911,0,1.5835,0,7967.7,57.719,11.111,-0.010172,-7.0107e-05,-0.08342,0.092626,0
7936.3,54.233,16.942,0,1.5688,0,7967.7,57.719,11.111,-0.010172,-7.0107e-05,-0.08342,0.093604,0
7936.3,54.233,16.942,0,1.5688,0,7967.7,57.719,11.111,-0.010172,-7.0107e-05,-0.08342,0.093604,0
7936.3,54.233,16.942,0,1.5688,0,7967.7,57.719,11.111,-0.010172,-7.0107e-05,-0.08342,0.093604,0
7936.3,54.233,16.942,0,1.5688,0,7968.8,57.718,11.111,-0.015347,-5.0087e-05,-0.037162,0.090468,0
7936.3,54.233,16.942,0,1.5688,0,7968.8,57.718,11.111,-0.015347,-5.0087e-05,-0.037162,0.090468,0
7936.3,54.233,16.942,0,1.5688,0,7969.1,57.718,11.111,-0.015913,-4.227e-05,-0.030084,0.089865,0
7936.3,54.233,16.942,0,1.5688,0,7969.1,57.718,11.111,-0.015913,-4.227e-05,-0.030084,0.089865,0
7936.3,54.233,16.942,0,1.5688,0,7969.3,57.717,11.111,-0.016352,-3.4274e-05,-0.02363,0.089271,0
7936.3,54.233,16.942,0,1.5688,0,7969.5,57.717,11.111,-0.016677,-2.6376e-05,-0.017762,0.088684,0
7936.3,54.233,16.942,0,1.5688,0,7969.5,57.717,11.111,-0.016677,-2.6376e-05,-0.017762,0.088684,0
7936.3,54.233,16.942,0,1.5688,0,7969.5,57.717,11.111,-0.016677,-2.6376e-05,-0.017762,0.088684,0
7936.3,54.233,16.942,0,1.5688,0,7969.7,57.717,11.111,-0.016899,-1.8782e-05,-0.012441,0.088105,0
7936.3,54.233,16.942,0,1.5688,0,7969.7,57.717,11.111,-0.016899,-1.8782e-05,-0.012441,0.088105,0
7936.3,54.233,16.942,0,1.5688,0,7970,57.716,11.111,-0.017027,-1.1642e-05,-0.0076311,0.087533,0
7936.3,54.233,16.942,0,1.5688,0,7970,57.716,11.111,-0.017027,-1.1642e-05,-0.0076311,0.087533,0
7936.3,54.233,16.942,0,1.5688,0,7970.2,57.716,11.111,-0.017071,-5.0588e-06,-0.0032991,0.086968,0
7936.3,54.233,16.942,0,1.5688,0,7970.2,57.716,11.111,-0.017071,-5.0588e-06,-0.0032991,0.086968,0
7936.3,54.233,16.942,0,1.5688,0,7970.4,57.716,11.111,-0.017039,9.0196e-07,0.00058797,0.086411,0
7936.3,54.233,16.942,0,1.5688,0,7970.4,57.716,11.111,-0.017039,9.0196e-07,0.00058797,0.086411,0
7936.3,54.233,16.942,0,1.5688,0,7970.6,57.715,11.111,-0.01694,6.2064e-06,0.0040611,0.085861,0
7936.3,54.233,16.942,0,1.5688,0,7970.6,57.715,11.111,-0.01694,6.2064e-06,0.0040611,0.085861,0
7936.3,54.233,16.942,0,1.5688,0,7970.8,57.715,11.111,-0.016781,1.0844e-05,0.0071498,0.085317,0
7936.3,54.233,16.942,0,1.5688,0,7970.8,57.715,11.111,-0.016781,1.0844e-05,0.0071498,0.085317,0
7936.3,54.233,16.942,0,1.5688,0,7970.8,57.715,11.111,-0.016781,1.0844e-05,0.0071498,0.085317,0
7936.3,54.233,16.942,0,1.5688,0,7971.1,57.715,11.111,-0.016569,1.4824e-05,0.0098818,0.084781,0
7936.3,54.233,16.942,0,1.5688,0,7971.3,57.714,11.111,-0.016311,1.8168e-05,0.012284,0.084251,0
7936.3,54.233,16.942,0,1.5688,0,7971.5,57.714,11.111,-0.016013,2.091e-05,0.01438,0.083728,0
7936.3,54.233,16.942,0,1.5688,0,7971.5,57.714,11.111,-0.016013,2.091e-05,0.01438,0.083728,0
7936.3,54.233,16.942,0,1.5688,0,7971.5,57.714,11.111,-0.016013,2.091e-05,0.01438,0.083728,0
7941.4,54.233,17.381,0,1.3552,0,7971.7,57.714,11.111,-0.015679,2.3089e-05,0.016195,0.09709,0
7941.4,54.233,17.381,0,1.3552,0,7971.7,57.714,11.111,-0.015679,2.3089e-05,0.016195,0.09709,0
7941.4,54.233,17.381,0,1.3552,0,7971.7,57.714,11.111,-0.015679,2.3089e-05,0.016195,0.09709,0
7941.4,54.233,17.381,0,1.3552,0,7971.7,57.714,11.111,-0.015679,2.3089e-05,0.016195,0.09709,0
7941.4,54.233,17.381,0,1.3552,0,7971.7,57.714,11.111,-0.015679,2.3089e-05,0.016195,0.09709,0
7941.4,54.233,17.381,0,1.3552,0,7971.7,57.714,11.111,-0.015679,2.3089e-05,0.016195,0.09709,0
7941.4,54.233,17.381,0,1.3552,0,7971.7,57.714,11.111,-0.015679,2.3089e-05,0.016195,0.09709,0
7941.4,54.233,17.381,0,1.3552,0,7971.7,57.714,11.111,-0.015679,2.3089e-05,0.016195,0.09709,0
7941.4,54.233,17.381,0,1.3552,0,7972.2,57.713,11.111,-0.014928,2.5945e-05,0.019068,0.095714,0
7941.4,54.233,17.381,0,1.3552,0,7972.2,57.713,11.111,-0.014928,2.5945e-05,0.019068,0.095714,0
7942.1,54.233,17.434,0,1.3279,0,7972.2,57.713,11.111,-0.014928,2.5945e-05,0.019068,0.097887,0
7942.1,54.233,17.434,0,1.3279,0,7972.2,57.713,11.111,-0.014928,2.5945e-05,0.019068,0.097887,0
7942.1,54.233,17.434,0,1.3279,0,7972.2,57.713,11.111,-0.014928,2.5945e-05,0.019068,0.097887,0
7942.1,54.233,17.434,0,1.3279,0,7972.2,57.713,11.111,-0.014928,2.5945e-05,0.019068,0.097887,0
7943.2,54.233,17.513,0,1.2876,0,7972.6,57.712,11.111,-0.014093,2.7118e-05,0.021065,0.099853,0
7943.2,54.233,17.513,0,1.2876,0,7972.6,57.712,11.111,-0.014093,2.7118e-05,0.021065,0.099853,0
7943.9,54.233,17.564,0,1.2603,0,7973.3,57.712,11.111,-0.012747,2.6542e-05,0.02273,0.09997,0
7944.2,54.233,17.589,0,1.2453,0,7973.3,57.712,11.111,-0.012747,2.6542e-05,0.02273,0.10115,0
7944.2,54.233,17.589,0,1.2453,0,7974,57.711,11.111,-0.011359,2.4159e-05,0.02316,0.098933,0
7944.2,54.233,17.589,0,1.2453,0,7974,57.711,11.111,-0.011359,2.4159e-05,0.02316,0.098933,0
7944.2,54.233,17.589,0,1.2453,0,7974,57.711,11.111,-0.011359,2.4159e-05,0.02316,0.098933,0
7944.2,54.233,17.589,0,1.2453,0,7974,57.711,11.111,-0.011359,2.4159e-05,0.02316,0.098933,0
7944.2,54.233,17.589,0,1.2453,0,7974.2,57.711,11.111,-0.010897,2.3125e-05,0.02309,0.098214,0
7944.2,54.233,17.589,0,1.2453,0,7974.2,57.711,11.111,-0.010897,2.3125e-05,0.02309,0.098214,0
7944.2,54.233,17.589,0,1.2453,0,7974.2,57.711,11.111,-0.010897,2.3125e-05,0.02309,0.098214,0
7945.3,54.233,17.662,0,1.2011,0,7974.2,57.711,11.111,-0.010897,2.3125e-05,0.02309,0.10173,0
7945.3,54.233,17.662,0,1.2011,0,7974.2,57.711,11.111,-0.010897,2.3125e-05,0.02309,0.10173,0
7945.3,54.233,17.662,0,1.2011,0,7974.2,57.711,11.111,-0.010897,2.3125e-05,0.02309,0.10173,0
7945.3,54.233,17.662,0,1.2011,0,7974.2,57.711,11.111,-0.010897,2.3125e-05,0.02309,0.10173,0
7945.3,54.233,17.662,0,1.2011,0,7974.2,57.711,11.111,-0.010897,2.3125e-05,0.02309,0.10173,0
7945.3,54.233,17.662,0,1.2011,0,7974.2,57.711,11.111,-0.010897,2.3125e-05,0.02309,0.10173,0
7945.3,54.233,17.662,0,1.2011,0,7974.2,57.711,11.111,-0.010897,2.3125e-05,0.02309,0.10173,0
7946,54.233,17.71,0,1.1725,0,7974.6,57.71,11.111,-0.0099865,2.086e-05,0.022693,0.10265,0
7946.7,54.233,17.756,0,1.1445,0,7975.1,57.71,11.111,-0.0091016,1.8474e-05,0.02202,0.10358,0
7946.7,54.233,17.756,0,1.1445,0,7975.1,57.71,11.111,-0.0091016,1.8474e-05,0.02202,0.10358,0
7947.1,54.233,17.779,0,1.1307,0,7975.1,57.71,11.111,-0.0091016,1.8474e-05,0.02202,0.10487,0
7947.1,54.233,17.779,0,1.1307,0,7976,57.709,11.031,-0.0073893,-4,0.02264,0.10131,0
