-108.26,62.805,-59.73,35.773,-88.792,52.759,-47.865,-6.5943,-6.2366,26.085,55.422,-17.011,31.721,8.3704,4.6782,-51.948
-108.26,62.805,-59.73,35.773,-88.792,52.759,-47.865,-6.5943,-6.2366,26.085,55.422,-17.011,31.721,8.3704,4.6782,-51.948
-108.26,62.805,-59.73,35.773,-88.792,52.759,-47.865,-6.5943,-6.2366,26.085,55.422,-17.011,31.721,8.3704,4.6782,-51.948
-108.13,62.551,-59.807,35.714,-88.926,52.778,-47.707,-6.726,-5.9921,25.793,55.324,-17.024,31.96,8.1188,4.7615,-51.885
-108.13,62.551,-59.807,35.714,-88.926,52.778,-47.707,-6.726,-5.9921,25.793,55.324,-17.024,31.96,8.1188,4.7615,-51.885
-108.13,62.551,-59.807,35.714,-88.926,52.778,-47.707,-6.726,-5.9921,25.793,55.324,-17.024,31.96,8.1188,4.7615,-51.885
-108.13,62.551,-59.807,35.714,-88.926,52.778,-47.707,-6.726,-5.9921,25.793,55.324,-17.024,31.96,8.1188,4.7615,-51.885
-107.87,62.031,-59.95,35.587,-89.181,52.804,-47.382,-6.9945,-5.5006,25.205,55.13,-17.055,32.438,7.6134,4.9266,-51.765
-107.87,62.031,-59.95,35.587,-89.181,52.804,-47.382,-6.9945,-5.5006,25.205,55.13,-17.055,32.438,7.6134,4.9266,-51.765
-107.87,62.031,-59.95,35.587,-89.181,52.804,-47.382,-6.9945,-5.5006,25.205,55.13,-17.055,32.438,7.6134,4.9266,-51.765
-107.74,61.765,-60.016,35.52,-89.302,52.811,-47.215,-7.1314,-5.2536,24.91,55.035,-17.072,32.677,7.3595,5.0084,-51.707
-107.74,61.765,-60.016,35.52,-89.302,52.811,-47.215,-7.1314,-5.2536,24.91,55.035,-17.072,32.677,7.3595,5.0084,-51.707
-107.59,61.494,-60.079,35.449,-89.418,52.814,-47.046,-7.2699,-5.0058,24.613,54.941,-17.092,32.916,7.1049,5.0895,-51.651
-107.59,61.494,-60.079,35.449,-89.418,52.814,-47.046,-7.2699,-5.0058,24.613,54.941,-17.092,32.916,7.1049,5.0895,-51.651
-107.29,60.942,-60.193,35.299,-89.637,52.809,-46.7,-7.552,-4.5077,24.016,54.755,-17.136,33.393,6.5935,5.2501,-51.544
-107.29,60.942,-60.193,35.299,-89.637,52.809,-46.7,-7.552,-4.5077,24.016,54.755,-17.136,33.393,6.5935,5.2501,-51.544
-107.12,60.659,-60.245,35.22,-89.74,52.8,-46.523,-7.6956,-4.2575,23.716,54.663,-17.16,33.632,6.3367,5.3296,-51.493
-107.12,60.659,-60.245,35.22,-89.74,52.8,-46.523,-7.6956,-4.2575,23.716,54.663,-17.16,33.632,6.3367,5.3296,-51.493
-107.12,60.659,-60.245,35.22,-89.74,52.8,-46.523,-7.6956,-4.2575,23.716,54.663,-17.16,33.632,6.3367,5.3296,-51.493
-106.96,60.373,-60.292,35.139,-89.838,52.788,-46.343,-7.8407,-4.0065,23.415,54.573,-17.186,33.87,6.0793,5.4084,-51.444
-106.96,60.373,-60.292,35.139,-89.838,52.788,-46.343,-7.8407,-4.0065,23.415,54.573,-17.186,33.87,6.0793,5.4084,-51.444
-106.79,60.083,-60.337,35.054,-89.931,52.771,-46.161,-7.9876,-3.7547,23.112,54.483,-17.213,34.109,5.8213,5.4867,-51.396
-106.79,60.083,-60.337,35.054,-89.931,52.771,-46.161,-7.9876,-3.7547,23.112,54.483,-17.213,34.109,5.8213,5.4867,-51.396
-106.61,59.789,-60.377,34.966,-90.02,52.751,-45.976,-8.136,-3.5022,22.809,54.394,-17.242,34.347,5.5627,5.5644,-51.35
-106.61,59.789,-60.377,34.966,-90.02,52.751,-45.976,-8.136,-3.5022,22.809,54.394,-17.242,34.347,5.5627,5.5644,-51.35
-106.42,59.491,-60.414,34.876,-90.105,52.726,-45.788,-8.2861,-3.249,22.504,54.307,-17.273,34.585,5.3035,5.6415,-51.306
-106.42,59.491,-60.414,34.876,-90.105,52.726,-45.788,-8.2861,-3.249,22.504,54.307,-17.273,34.585,5.3035,5.6415,-51.306
-106.24,59.189,-60.448,34.783,-90.185,52.698,-45.598,-8.4378,-2.995,22.199,54.22,-17.305,34.823,5.0437,5.718,-51.263
-106.24,59.189,-60.448,34.783,-90.185,52.698,-45.598,-8.4378,-2.995,22.199,54.22,-17.305,34.823,5.0437,5.718,-51.263
-106.24,59.189,-60.448,34.783,-90.185,52.698,-45.598,-8.4378,-2.995,22.199,54.22,-17.305,34.823,5.0437,5.718,-51.263
-106.04,58.884,-60.477,34.687,-90.261,52.666,-45.406,-8.591,-2.7402,21.892,54.134,-17.339,35.061,4.7834,5.794,-51.222
-106.04,58.884,-60.477,34.687,-90.261,52.666,-45.406,-8.591,-2.7402,21.892,54.134,-17.339,35.061,4.7834,5.794,-51.222
-105.64,58.262,-60.526,34.488,-90.399,52.59,-45.013,-8.9022,-2.2286,21.276,53.965,-17.411,35.536,4.2612,5.944,-51.144
-105.64,58.262,-60.526,34.488,-90.399,52.59,-45.013,-8.9022,-2.2286,21.276,53.965,-17.411,35.536,4.2612,5.944,-51.144
-105.64,58.262,-60.526,34.488,-90.399,52.59,-45.013,-8.9022,-2.2286,21.276,53.965,-17.411,35.536,4.2612,5.944,-51.144
-105.43,57.945,-60.544,34.384,-90.461,52.546,-44.813,-9.0601,-1.9718,20.967,53.883,-17.45,35.773,3.9994,6.0181,-51.108
-105.43,57.945,-60.544,34.384,-90.461,52.546,-44.813,-9.0601,-1.9718,20.967,53.883,-17.45,35.773,3.9994,6.0181,-51.108
-105.21,57.624,-60.559,34.277,-90.519,52.499,-44.61,-9.2195,-1.7142,20.657,53.801,-17.49,36.01,3.7371,6.0916,-51.073
-105.21,57.624,-60.559,34.277,-90.519,52.499,-44.61,-9.2195,-1.7142,20.657,53.801,-17.49,36.01,3.7371,6.0916,-51.073
-104.99,57.3,-60.571,34.168,-90.572,52.447,-44.405,-9.3805,-1.456,20.345,53.72,-17.531,36.247,3.4744,6.1645,-51.039
-104.99,57.3,-60.571,34.168,-90.572,52.447,-44.405,-9.3805,-1.456,20.345,53.72,-17.531,36.247,3.4744,6.1645,-51.039
-104.76,56.973,-60.579,34.056,-90.621,52.392,-44.197,-9.5429,-1.1972,20.033,53.64,-17.574,36.483,3.2113,6.2368,-51.008
-104.76,56.973,-60.579,34.056,-90.621,52.392,-44.197,-9.5429,-1.1972,20.033,53.64,-17.574,36.483,3.2113,6.2368,-51.008
-104.76,56.973,-60.579,34.056,-90.621,52.392,-44.197,-9.5429,-1.1972,20.033,53.64,-17.574,36.483,3.2113,6.2368,-51.008
-104.53,56.642,-60.583,33.941,-90.666,52.333,-43.988,-9.7068,-0.93764,19.72,53.561,-17.619,36.72,2.9478,6.3085,-50.977
-104.53,56.642,-60.583,33.941,-90.666,52.333,-43.988,-9.7068,-0.93764,19.72,53.561,-17.619,36.72,2.9478,6.3085,-50.977
-104.53,56.642,-60.583,33.941,-90.666,52.333,-43.988,-9.7068,-0.93764,19.72,53.561,-17.619,36.72,2.9478,6.3085,-50.977
-104.05,55.969,-60.58,33.704,-90.741,52.204,-43.561,-10.039,-0.41667,19.092,53.406,-17.712,37.191,2.4198,6.45,-50.921
-104.05,55.969,-60.58,33.704,-90.741,52.204,-43.561,-10.039,-0.41667,19.092,53.406,-17.712,37.191,2.4198,6.45,-50.921
-103.8,55.627,-60.573,33.581,-90.772,52.134,-43.344,-10.207,-0.15526,18.776,53.33,-17.761,37.426,2.1553,6.5198,-50.895
-103.8,55.627,-60.573,33.581,-90.772,52.134,-43.344,-10.207,-0.15526,18.776,53.33,-17.761,37.426,2.1553,6.5198,-50.895
-103.55,55.282,-60.562,33.456,-90.799,52.06,-43.125,-10.377,0.10676,18.46,53.254,-17.812,37.661,1.8905,6.5889,-50.871
-103.55,55.282,-60.562,33.456,-90.799,52.06,-43.125,-10.377,0.10676,18.46,53.254,-17.812,37.661,1.8905,6.5889,-50.871
-103.29,54.933,-60.548,33.329,-90.821,51.983,-42.903,-10.548,0.36938,18.143,53.18,-17.864,37.896,1.6254,6.6575,-50.848
-103.03,54.581,-60.53,33.199,-90.839,51.901,-42.679,-10.72,0.63259,17.825,53.107,-17.917,38.13,1.3601,6.7254,-50.826
-103.03,54.581,-60.53,33.199,-90.839,51.901,-42.679,-10.72,0.63259,17.825,53.107,-17.917,38.13,1.3601,6.7254,-50.826
-103.03,54.581,-60.53,33.199,-90.839,51.901,-42.679,-10.72,0.63259,17.825,53.107,-17.917,38.13,1.3601,6.7254,-50.826
-102.76,54.226,-60.508,33.066,-90.853,51.817,-42.453,-10.894,0.89637,17.506,53.035,-17.972,38.364,1.0946,6.7926,-50.806
-102.76,54.226,-60.508,33.066,-90.853,51.817,-42.453,-10.894,0.89637,17.506,53.035,-17.972,38.364,1.0946,6.7926,-50.806
-102.49,53.868,-60.483,32.931,-90.862,51.728,-42.225,-11.069,1.1607,17.187,52.964,-18.028,38.598,0.82883,6.8593,-50.787
-102.49,53.868,-60.483,32.931,-90.862,51.728,-42.225,-11.069,1.1607,17.187,52.964,-18.028,38.598,0.82883,6.8593,-50.787
-102.49,53.868,-60.483,32.931,-90.862,51.728,-42.225,-11.069,1.1607,17.187,52.964,-18.028,38.598,0.82883,6.8593,-50.787
-102.21,53.506,-60.454,32.793,-90.867,51.636,-41.994,-11.246,1.4256,16.867,52.894,-18.086,38.831,0.5629,6.9252,-50.77
-102.21,53.506,-60.454,32.793,-90.867,51.636,-41.994,-11.246,1.4256,16.867,52.894,-18.086,38.831,0.5629,6.9252,-50.77
-102.21,53.506,-60.454,32.793,-90.867,51.636,-41.994,-11.246,1.4256,16.867,52.894,-18.086,38.831,0.5629,6.9252,-50.77
-101.64,52.773,-60.386,32.51,-90.864,51.441,-41.527,-11.603,1.957,16.224,52.756,-18.205,39.296,0.030576,7.0552,-50.74
-101.64,52.773,-60.386,32.51,-90.864,51.441,-41.527,-11.603,1.957,16.224,52.756,-18.205,39.296,0.030576,7.0552,-50.74
-101.34,52.401,-60.346,32.365,-90.855,51.338,-41.29,-11.783,2.2235,15.902,52.689,-18.266,39.527,-0.23577,7.1193,-50.727
-101.34,52.401,-60.346,32.365,-90.855,51.338,-41.29,-11.783,2.2235,15.902,52.689,-18.266,39.527,-0.23577,7.1193,-50.727
-101.34,52.401,-60.346,32.365,-90.855,51.338,-41.29,-11.783,2.2235,15.902,52.689,-18.266,39.527,-0.23577,7.1193,-50.727
-101.05,52.027,-60.303,32.217,-90.843,51.231,-41.051,-11.965,2.4904,15.58,52.623,-18.33,39.759,-0.50221,7.1826,-50.715
-100.74,51.649,-60.256,32.067,-90.826,51.121,-40.81,-12.147,2.7579,15.256,52.558,-18.394,39.99,-0.76872,7.2453,-50.704
-100.43,51.269,-60.205,31.915,-90.805,51.008,-40.567,-12.332,3.0259,14.932,52.493,-18.46,40.22,-1.0353,7.3074,-50.695
-100.43,51.269,-60.205,31.915,-90.805,51.008,-40.567,-12.332,3.0259,14.932,52.493,-18.46,40.22,-1.0353,7.3074,-50.695
-100.43,51.269,-60.205,31.915,-90.805,51.008,-40.567,-12.332,3.0259,14.932,52.493,-18.46,40.22,-1.0353,7.3074,-50.695
-100.12,50.885,-60.151,31.76,-90.78,50.891,-40.322,-12.517,3.2943,14.608,52.43,-18.527,40.45,-1.3019,7.3688,-50.687
-100.12,50.885,-60.151,31.76,-90.78,50.891,-40.322,-12.517,3.2943,14.608,52.43,-18.527,40.45,-1.3019,7.3688,-50.687
-100.12,50.885,-60.151,31.76,-90.78,50.891,-40.322,-12.517,3.2943,14.608,52.43,-18.527,40.45,-1.3019,7.3688,-50.687
-99.48,50.109,-60.032,31.444,-90.716,50.646,-39.825,-12.891,3.8325,13.957,52.306,-18.665,40.908,-1.835,7.4895,-50.675
-99.48,50.109,-60.032,31.444,-90.716,50.646,-39.825,-12.891,3.8325,13.957,52.306,-18.665,40.908,-1.835,7.4895,-50.675
-99.48,50.109,-60.032,31.444,-90.716,50.646,-39.825,-12.891,3.8325,13.957,52.306,-18.665,40.908,-1.835,7.4895,-50.675
-99.152,49.716,-59.967,31.282,-90.678,50.519,-39.574,-13.08,4.1022,13.631,52.246,-18.736,41.136,-2.1015,7.5489,-50.671
-99.152,49.716,-59.967,31.282,-90.678,50.519,-39.574,-13.08,4.1022,13.631,52.246,-18.736,41.136,-2.1015,7.5489,-50.671
-99.152,49.716,-59.967,31.282,-90.678,50.519,-39.574,-13.08,4.1022,13.631,52.246,-18.736,41.136,-2.1015,7.5489,-50.671
-98.82,49.321,-59.899,31.118,-90.636,50.388,-39.321,-13.269,4.3724,13.305,52.186,-18.808,41.364,-2.368,7.6076,-50.668
-98.82,49.321,-59.899,31.118,-90.636,50.388,-39.321,-13.269,4.3724,13.305,52.186,-18.808,41.364,-2.368,7.6076,-50.668
-98.82,49.321,-59.899,31.118,-90.636,50.388,-39.321,-13.269,4.3724,13.305,52.186,-18.808,41.364,-2.368,7.6076,-50.668
-98.141,48.522,-59.751,30.783,-90.539,50.116,-38.809,-13.652,4.9139,12.65,52.07,-18.956,41.818,-2.9007,7.7229,-50.666
-98.141,48.522,-59.751,30.783,-90.539,50.116,-38.809,-13.652,4.9139,12.65,52.07,-18.956,41.818,-2.9007,7.7229,-50.666
-98.141,48.522,-59.751,30.783,-90.539,50.116,-38.809,-13.652,4.9139,12.65,52.07,-18.956,41.818,-2.9007,7.7229,-50.666
-97.795,48.118,-59.672,30.612,-90.484,49.975,-38.55,-13.846,5.1853,12.322,52.014,-19.032,42.043,-3.1668,7.7796,-50.666
-97.795,48.118,-59.672,30.612,-90.484,49.975,-38.55,-13.846,5.1853,12.322,52.014,-19.032,42.043,-3.1668,7.7796,-50.666
-97.444,47.712,-59.589,30.44,-90.425,49.831,-38.29,-14.04,5.457,11.993,51.958,-19.109,42.269,-3.4328,7.8355,-50.668
-97.088,47.303,-59.503,30.264,-90.362,49.683,-38.027,-14.235,5.7291,11.665,51.903,-19.188,42.493,-3.6987,7.8908,-50.671
-96.728,46.891,-59.413,30.087,-90.295,49.533,-37.763,-14.431,6.0015,11.335,51.85,-19.267,42.717,-3.9643,7.9454,-50.675
-96.728,46.891,-59.413,30.087,-90.295,49.533,-37.763,-14.431,6.0015,11.335,51.85,-19.267,42.717,-3.9643,7.9454,-50.675
-96.728,46.891,-59.413,30.087,-90.295,49.533,-37.763,-14.431,6.0015,11.335,51.85,-19.267,42.717,-3.9643,7.9454,-50.675
-96.363,46.477,-59.32,29.907,-90.223,49.378,-37.497,-14.628,6.2743,11.006,51.797,-19.348,42.941,-4.2298,7.9993,-50.68
-96.363,46.477,-59.32,29.907,-90.223,49.378,-37.497,-14.628,6.2743,11.006,51.797,-19.348,42.941,-4.2298,7.9993,-50.68
-95.994,46.06,-59.223,29.726,-90.148,49.221,-37.23,-14.826,6.5474,10.676,51.745,-19.43,43.163,-4.495,8.0525,-50.687
-95.994,46.06,-59.223,29.726,-90.148,49.221,-37.23,-14.826,6.5474,10.676,51.745,-19.43,43.163,-4.495,8.0525,-50.687
-95.994,46.06,-59.223,29.726,-90.148,49.221,-37.23,-14.826,6.5474,10.676,51.745,-19.43,43.163,-4.495,8.0525,-50.687
-95.621,45.641,-59.123,29.542,-90.068,49.061,-36.96,-15.025,6.8207,10.346,51.694,-19.513,43.385,-4.7599,8.105,-50.694
-95.243,45.219,-59.019,29.356,-89.985,48.897,-36.689,-15.225,7.0944,10.015,51.644,-19.597,43.606,-5.0246,8.1568,-50.703
-95.243,45.219,-59.019,29.356,-89.985,48.897,-36.689,-15.225,7.0944,10.015,51.644,-19.597,43.606,-5.0246,8.1568,-50.703
-94.86,44.795,-58.912,29.168,-89.897,48.73,-36.417,-15.426,7.3684,9.6844,51.595,-19.683,43.826,-5.2889,8.2079,-50.712
-94.86,44.795,-58.912,29.168,-89.897,48.73,-36.417,-15.426,7.3684,9.6844,51.595,-19.683,43.826,-5.2889,8.2079,-50.712
-94.474,44.368,-58.802,28.978,-89.806,48.56,-36.143,-15.628,7.6426,9.3533,51.547,-19.769,44.046,-5.553,8.2583,-50.723
-94.474,44.368,-58.802,28.978,-89.806,48.56,-36.143,-15.628,7.6426,9.3533,51.547,-19.769,44.046,-5.553,8.2583,-50.723
-94.083,43.939,-58.688,28.786,-89.71,48.387,-35.867,-15.83,7.9171,9.022,51.5,-19.857,44.265,-5.8167,8.308,-50.734
-94.083,43.939,-58.688,28.786,-89.71,48.387,-35.867,-15.83,7.9171,9.022,51.5,-19.857,44.265,-5.8167,8.308,-50.734
-93.687,43.508,-58.57,28.592,-89.611,48.211,-35.589,-16.034,8.1918,8.6904,51.454,-19.946,44.483,-6.08,8.357,-50.747
-93.288,43.074,-58.45,28.396,-89.507,48.032,-35.311,-16.238,8.4667,8.3586,51.408,-20.036,44.7,-6.343,8.4053,-50.761
-93.288,43.074,-58.45,28.396,-89.507,48.032,-35.311,-16.238,8.4667,8.3586,51.408,-20.036,44.7,-6.343,8.4053,-50.761
-93.288,43.074,-58.45,28.396,-89.507,48.032,-35.311,-16.238,8.4667,8.3586,51.408,-20.036,44.7,-6.343,8.4053,-50.761
-92.884,42.638,-58.325,28.198,-89.4,47.85,-35.03,-16.443,8.7419,8.0266,51.364,-20.126,44.917,-6.6055,8.4528,-50.775
-92.884,42.638,-58.325,28.198,-89.4,47.85,-35.03,-16.443,8.7419,8.0266,51.364,-20.126,44.917,-6.6055,8.4528,-50.775
-92.476,42.2,-58.198,27.998,-89.289,47.664,-34.748,-16.649,9.0172,7.6945,51.32,-20.218,45.132,-6.8677,8.4997,-50.791
-92.476,42.2,-58.198,27.998,-89.289,47.664,-34.748,-16.649,9.0172,7.6945,51.32,-20.218,45.132,-6.8677,8.4997,-50.791
-92.065,41.76,-58.067,27.796,-89.174,47.476,-34.465,-16.855,9.2928,7.3622,51.277,-20.311,45.347,-7.1294,8.5458,-50.807
-92.065,41.76,-58.067,27.796,-89.174,47.476,-34.465,-16.855,9.2928,7.3622,51.277,-20.311,45.347,-7.1294,8.5458,-50.807
-92.065,41.76,-58.067,27.796,-89.174,47.476,-34.465,-16.855,9.2928,7.3622,51.277,-20.311,45.347,-7.1294,8.5458,-50.807
-91.649,41.317,-57.932,27.593,-89.055,47.285,-34.18,-17.062,9.5685,7.0297,51.235,-20.405,45.561,-7.3906,8.5912,-50.825
-91.649,41.317,-57.932,27.593,-89.055,47.285,-34.18,-17.062,9.5685,7.0297,51.235,-20.405,45.561,-7.3906,8.5912,-50.825
-91.229,40.873,-57.795,27.387,-88.932,47.091,-33.894,-17.27,9.8444,6.6971,51.194,-20.5,45.774,-7.6514,8.6359,-50.843
-91.229,40.873,-57.795,27.387,-88.932,47.091,-33.894,-17.27,9.8444,6.6971,51.194,-20.5,45.774,-7.6514,8.6359,-50.843
-91.229,40.873,-57.795,27.387,-88.932,47.091,-33.894,-17.27,9.8444,6.6971,51.194,-20.5,45.774,-7.6514,8.6359,-50.843
-90.377,39.977,-57.51,26.97,-88.675,46.694,-33.318,-17.688,10.397,6.0317,51.115,-20.693,46.197,-8.1713,8.7231,-50.882
-90.377,39.977,-57.51,26.97,-88.675,46.694,-33.318,-17.688,10.397,6.0317,51.115,-20.693,46.197,-8.1713,8.7231,-50.882
-89.945,39.527,-57.362,26.759,-88.54,46.491,-33.028,-17.898,10.673,5.6989,51.077,-20.791,46.408,-8.4305,8.7656,-50.903
-89.945,39.527,-57.362,26.759,-88.54,46.491,-33.028,-17.898,10.673,5.6989,51.077,-20.791,46.408,-8.4305,8.7656,-50.903
-89.945,39.527,-57.362,26.759,-88.54,46.491,-33.028,-17.898,10.673,5.6989,51.077,-20.791,46.408,-8.4305,8.7656,-50.903
-89.509,39.074,-57.211,26.546,-88.402,46.285,-32.737,-18.108,10.949,5.366,51.039,-20.89,46.617,-8.6891,8.8074,-50.925
-89.07,38.62,-57.057,26.332,-88.261,46.077,-32.444,-18.319,11.226,5.0331,51.003,-20.99,46.825,-8.9471,8.8485,-50.947
-88.626,38.164,-56.9,26.115,-88.115,45.866,-32.15,-18.531,11.502,4.7002,50.967,-21.09,47.033,-9.2045,8.8888,-50.971
-88.626,38.164,-56.9,26.115,-88.115,45.866,-32.15,-18.531,11.502,4.7002,50.967,-21.09,47.033,-9.2045,8.8888,-50.971
-88.626,38.164,-56.9,26.115,-88.115,45.866,-32.15,-18.531,11.502,4.7002,50.967,-21.09,47.033,-9.2045,8.8888,-50.971
-88.179,37.706,-56.739,25.897,-87.966,45.652,-31.855,-18.743,11.779,4.3673,50.932,-21.192,47.239,-9.4613,8.9284,-50.995
-88.179,37.706,-56.739,25.897,-87.966,45.652,-31.855,-18.743,11.779,4.3673,50.932,-21.192,47.239,-9.4613,8.9284,-50.995
-87.729,37.246,-56.575,25.677,-87.813,45.435,-31.559,-18.955,12.056,4.0345,50.898,-21.295,47.444,-9.7174,8.9673,-51.02
-87.729,37.246,-56.575,25.677,-87.813,45.435,-31.559,-18.955,12.056,4.0345,50.898,-21.295,47.444,-9.7174,8.9673,-51.02
-87.729,37.246,-56.575,25.677,-87.813,45.435,-31.559,-18.955,12.056,4.0345,50.898,-21.295,47.444,-9.7174,8.9673,-51.02
-87.274,36.784,-56.408,25.456,-87.657,45.216,-31.262,-19.168,12.332,3.7017,50.864,-21.398,47.649,-9.9729,9.0054,-51.045
-86.816,36.321,-56.238,25.233,-87.497,44.994,-30.964,-19.382,12.609,3.369,50.832,-21.502,47.852,-10.228,9.0428,-51.071
-86.355,35.856,-56.065,25.008,-87.334,44.77,-30.664,-19.596,12.886,3.0363,50.8,-21.607,48.054,-10.482,9.0794,-51.099
-86.355,35.856,-56.065,25.008,-87.334,44.77,-30.664,-19.596,12.886,3.0363,50.8,-21.607,48.054,-10.482,9.0794,-51.099
-85.889,35.389,-55.888,24.782,-87.167,44.542,-30.364,-19.81,13.163,2.7038,50.769,-21.713,48.256,-10.735,9.1153,-51.126
-85.889,35.389,-55.888,24.782,-87.167,44.542,-30.364,-19.81,13.163,2.7038,50.769,-21.713,48.256,-10.735,9.1153,-51.126
-85.889,35.389,-55.888,24.782,-87.167,44.542,-30.364,-19.81,13.163,2.7038,50.769,-21.713,48.256,-10.735,9.1153,-51.126
-85.889,35.389,-55.888,24.782,-87.167,44.542,-30.364,-19.81,13.163,2.7038,50.769,-21.713,48.256,-10.735,9.1153,-51.126
-85.421,34.921,-55.709,24.554,-86.996,44.313,-30.062,-20.025,13.44,2.3714,50.739,-21.82,48.456,-10.988,9.1505,-51.155
-85.421,34.921,-55.709,24.554,-86.996,44.313,-30.062,-20.025,13.44,2.3714,50.739,-21.82,48.456,-10.988,9.1505,-51.155
-85.421,34.921,-55.709,24.554,-86.996,44.313,-30.062,-20.025,13.44,2.3714,50.739,-21.82,48.456,-10.988,9.1505,-51.155
-84.473,33.98,-55.34,24.093,-86.644,43.846,-29.457,-20.456,13.993,1.707,50.681,-22.036,48.852,-11.491,9.2186,-51.213
-84.473,33.98,-55.34,24.093,-86.644,43.846,-29.457,-20.456,13.993,1.707,50.681,-22.036,48.852,-11.491,9.2186,-51.213
-84.473,33.98,-55.34,24.093,-86.644,43.846,-29.457,-20.456,13.993,1.707,50.681,-22.036,48.852,-11.491,9.2186,-51.213
-83.994,33.508,-55.152,23.861,-86.463,43.608,-29.152,-20.672,14.27,1.3751,50.653,-22.145,49.049,-11.741,9.2516,-51.244
-83.994,33.508,-55.152,23.861,-86.463,43.608,-29.152,-20.672,14.27,1.3751,50.653,-22.145,49.049,-11.741,9.2516,-51.244
-83.994,33.508,-55.152,23.861,-86.463,43.608,-29.152,-20.672,14.27,1.3751,50.653,-22.145,49.049,-11.741,9.2516,-51.244
-83.027,32.558,-54.765,23.391,-86.091,43.126,-28.541,-21.104,14.823,0.71179,50.6,-22.366,49.439,-12.239,9.3152,-51.306
-83.027,32.558,-54.765,23.391,-86.091,43.126,-28.541,-21.104,14.823,0.71179,50.6,-22.366,49.439,-12.239,9.3152,-51.306
-82.538,32.081,-54.567,23.154,-85.9,42.882,-28.235,-21.321,15.099,0.38051,50.574,-22.478,49.632,-12.487,9.3459,-51.338
-82.538,32.081,-54.567,23.154,-85.9,42.882,-28.235,-21.321,15.099,0.38051,50.574,-22.478,49.632,-12.487,9.3459,-51.338
-82.046,31.603,-54.366,22.916,-85.706,42.635,-27.927,-21.537,15.375,0.049471,50.55,-22.59,49.824,-12.734,9.3758,-51.371
-82.046,31.603,-54.366,22.916,-85.706,42.635,-27.927,-21.537,15.375,0.049471,50.55,-22.59,49.824,-12.734,9.3758,-51.371
-81.551,31.124,-54.162,22.676,-85.508,42.386,-27.619,-21.755,15.651,-0.28129,50.526,-22.703,50.015,-12.98,9.405,-51.404
-81.551,31.124,-54.162,22.676,-85.508,42.386,-27.619,-21.755,15.651,-0.28129,50.526,-22.703,50.015,-12.98,9.405,-51.404
-81.053,30.643,-53.956,22.435,-85.307,42.134,-27.31,-21.972,15.927,-0.61177,50.502,-22.816,50.205,-13.225,9.4335,-51.438
-81.053,30.643,-53.956,22.435,-85.307,42.134,-27.31,-21.972,15.927,-0.61177,50.502,-22.816,50.205,-13.225,9.4335,-51.438
-80.552,30.162,-53.746,22.192,-85.102,41.88,-27,-22.189,16.203,-0.94194,50.48,-22.931,50.393,-13.469,9.4612,-51.472
-80.552,30.162,-53.746,22.192,-85.102,41.88,-27,-22.189,16.203,-0.94194,50.48,-22.931,50.393,-13.469,9.4612,-51.472
-80.552,30.162,-53.746,22.192,-85.102,41.88,-27,-22.189,16.203,-0.94194,50.48,-22.931,50.393,-13.469,9.4612,-51.472
-80.047,29.679,-53.533,21.949,-84.895,41.624,-26.689,-22.407,16.479,-1.2718,50.458,-23.046,50.58,-13.713,9.4881,-51.507
-79.54,29.195,-53.318,21.704,-84.684,41.366,-26.378,-22.624,16.754,-1.6013,50.436,-23.161,50.766,-13.955,9.5143,-51.542
-79.54,29.195,-53.318,21.704,-84.684,41.366,-26.378,-22.624,16.754,-1.6013,50.436,-23.161,50.766,-13.955,9.5143,-51.542
-79.03,28.71,-53.099,21.457,-84.47,41.105,-26.067,-22.842,17.03,-1.9304,50.416,-23.277,50.951,-14.196,9.5398,-51.577
-79.03,28.71,-53.099,21.457,-84.47,41.105,-26.067,-22.842,17.03,-1.9304,50.416,-23.277,50.951,-14.196,9.5398,-51.577
-78.517,28.224,-52.878,21.21,-84.253,40.842,-25.755,-23.06,17.305,-2.2592,50.396,-23.394,51.134,-14.437,9.5644,-51.613
-78.517,28.224,-52.878,21.21,-84.253,40.842,-25.755,-23.06,17.305,-2.2592,50.396,-23.394,51.134,-14.437,9.5644,-51.613
-78.001,27.736,-52.654,20.961,-84.033,40.578,-25.442,-23.278,17.58,-2.5876,50.377,-23.512,51.316,-14.676,9.5884,-51.65
-78.001,27.736,-52.654,20.961,-84.033,40.578,-25.442,-23.278,17.58,-2.5876,50.377,-23.512,51.316,-14.676,9.5884,-51.65
-78.001,27.736,-52.654,20.961,-84.033,40.578,-25.442,-23.278,17.58,-2.5876,50.377,-23.512,51.316,-14.676,9.5884,-51.65
-77.483,27.248,-52.428,20.711,-83.81,40.311,-25.129,-23.495,17.854,-2.9156,50.358,-23.63,51.496,-14.914,9.6115,-51.686
-76.961,26.759,-52.198,20.46,-83.583,40.042,-24.815,-23.713,18.129,-3.2431,50.34,-23.749,51.675,-15.152,9.6339,-51.724
-76.437,26.27,-51.966,20.207,-83.354,39.771,-24.501,-23.931,18.403,-3.5702,50.323,-23.868,51.853,-15.388,9.6556,-51.761
-76.437,26.27,-51.966,20.207,-83.354,39.771,-24.501,-23.931,18.403,-3.5702,50.323,-23.868,51.853,-15.388,9.6556,-51.761
-76.437,26.27,-51.966,20.207,-83.354,39.771,-24.501,-23.931,18.403,-3.5702,50.323,-23.868,51.853,-15.388,9.6556,-51.761
-75.91,25.779,-51.731,19.954,-83.122,39.498,-24.186,-24.149,18.676,-3.8968,50.306,-23.988,52.03,-15.623,9.6765,-51.799
-75.91,25.779,-51.731,19.954,-83.122,39.498,-24.186,-24.149,18.676,-3.8968,50.306,-23.988,52.03,-15.623,9.6765,-51.799
-75.381,25.288,-51.493,19.699,-82.887,39.223,-23.871,-24.366,18.95,-4.2229,50.29,-24.108,52.205,-15.857,9.6966,-51.837
-75.381,25.288,-51.493,19.699,-82.887,39.223,-23.871,-24.366,18.95,-4.2229,50.29,-24.108,52.205,-15.857,9.6966,-51.837
-74.849,24.795,-51.253,19.444,-82.649,38.946,-23.556,-24.584,19.223,-4.5486,50.275,-24.229,52.379,-16.09,9.716,-51.876
-74.849,24.795,-51.253,19.444,-82.649,38.946,-23.556,-24.584,19.223,-4.5486,50.275,-24.229,52.379,-16.09,9.716,-51.876
-74.315,24.302,-51.01,19.187,-82.408,38.667,-23.24,-24.801,19.496,-4.8737,50.26,-24.35,52.551,-16.322,9.7346,-51.914
-74.315,24.302,-51.01,19.187,-82.408,38.667,-23.24,-24.801,19.496,-4.8737,50.26,-24.35,52.551,-16.322,9.7346,-51.914
-73.778,23.809,-50.764,18.929,-82.164,38.386,-22.924,-25.018,19.768,-5.1983,50.246,-24.472,52.722,-16.553,9.7525,-51.953
-73.778,23.809,-50.764,18.929,-82.164,38.386,-22.924,-25.018,19.768,-5.1983,50.246,-24.472,52.722,-16.553,9.7525,-51.953
-73.239,23.315,-50.516,18.67,-81.917,38.104,-22.608,-25.235,20.041,-5.5223,50.232,-24.594,52.891,-16.782,9.7696,-51.993
-73.239,23.315,-50.516,18.67,-81.917,38.104,-22.608,-25.235,20.041,-5.5223,50.232,-24.594,52.891,-16.782,9.7696,-51.993
-72.697,22.82,-50.265,18.411,-81.667,37.819,-22.291,-25.452,20.312,-5.8457,50.219,-24.717,53.059,-17.011,9.786,-52.032
-72.697,22.82,-50.265,18.411,-81.667,37.819,-22.291,-25.452,20.312,-5.8457,50.219,-24.717,53.059,-17.011,9.786,-52.032
-72.697,22.82,-50.265,18.411,-81.667,37.819,-22.291,-25.452,20.312,-5.8457,50.219,-24.717,53.059,-17.011,9.786,-52.032
-72.153,22.324,-50.012,18.15,-81.415,37.533,-21.975,-25.669,20.584,-6.1686,50.207,-24.84,53.225,-17.238,9.8016,-52.072
-71.607,21.829,-49.756,17.888,-81.16,37.245,-21.658,-25.885,20.855,-6.4909,50.195,-24.964,53.39,-17.464,9.8164,-52.112
-71.607,21.829,-49.756,17.888,-81.16,37.245,-21.658,-25.885,20.855,-6.4909,50.195,-24.964,53.39,-17.464,9.8164,-52.112
-71.058,21.332,-49.497,17.626,-80.902,36.955,-21.341,-26.101,21.125,-6.8125,50.183,-25.088,53.554,-17.689,9.8305,-52.152
-71.058,21.332,-49.497,17.626,-80.902,36.955,-21.341,-26.101,21.125,-6.8125,50.183,-25.088,53.554,-17.689,9.8305,-52.152
-70.507,20.835,-49.237,17.362,-80.642,36.664,-21.024,-26.317,21.396,-7.1336,50.172,-25.212,53.716,-17.912,9.8438,-52.192
-70.507,20.835,-49.237,17.362,-80.642,36.664,-21.024,-26.317,21.396,-7.1336,50.172,-25.212,53.716,-17.912,9.8438,-52.192
-69.955,20.338,-48.973,17.098,-80.379,36.371,-20.707,-26.532,21.665,-7.4539,50.162,-25.337,53.876,-18.134,9.8563,-52.233
-69.955,20.338,-48.973,17.098,-80.379,36.371,-20.707,-26.532,21.665,-7.4539,50.162,-25.337,53.876,-18.134,9.8563,-52.233
-69.955,20.338,-48.973,17.098,-80.379,36.371,-20.707,-26.532,21.665,-7.4539,50.162,-25.337,53.876,-18.134,9.8563,-52.233
-69.4,19.84,-48.708,16.833,-80.113,36.076,-20.39,-26.747,21.935,-7.7736,50.152,-25.462,54.035,-18.356,9.8681,-52.273
-69.4,19.84,-48.708,16.833,-80.113,36.076,-20.39,-26.747,21.935,-7.7736,50.152,-25.462,54.035,-18.356,9.8681,-52.273
-68.843,19.343,-48.439,16.567,-79.845,35.78,-20.072,-26.962,22.203,-8.0926,50.143,-25.588,54.193,-18.575,9.8792,-52.314
-68.284,18.844,-48.169,16.3,-79.574,35.482,-19.755,-27.176,22.472,-8.4109,50.134,-25.714,54.348,-18.794,9.8895,-52.355
-68.284,18.844,-48.169,16.3,-79.574,35.482,-19.755,-27.176,22.472,-8.4109,50.134,-25.714,54.348,-18.794,9.8895,-52.355
-67.723,18.346,-47.896,16.033,-79.301,35.183,-19.438,-27.39,22.739,-8.7285,50.126,-25.84,54.502,-19.011,9.899,-52.395
-67.723,18.346,-47.896,16.033,-79.301,35.183,-19.438,-27.39,22.739,-8.7285,50.126,-25.84,54.502,-19.011,9.899,-52.395
-67.16,17.847,-47.621,15.764,-79.026,34.882,-19.121,-27.603,23.007,-9.0454,50.118,-25.967,54.655,-19.227,9.9078,-52.436
-67.16,17.847,-47.621,15.764,-79.026,34.882,-19.121,-27.603,23.007,-9.0454,50.118,-25.967,54.655,-19.227,9.9078,-52.436
-67.16,17.847,-47.621,15.764,-79.026,34.882,-19.121,-27.603,23.007,-9.0454,50.118,-25.967,54.655,-19.227,9.9078,-52.436
-66.595,17.348,-47.343,15.495,-78.747,34.579,-18.804,-27.816,23.274,-9.3615,50.111,-26.094,54.806,-19.442,9.9158,-52.477
-66.029,16.849,-47.064,15.226,-78.467,34.275,-18.487,-28.029,23.54,-9.6768,50.104,-26.221,54.955,-19.655,9.923,-52.518
-65.46,16.35,-46.782,14.955,-78.184,33.97,-18.17,-28.241,23.805,-9.9913,50.097,-26.349,55.103,-19.867,9.9295,-52.559
-65.46,16.35,-46.782,14.955,-78.184,33.97,-18.17,-28.241,23.805,-9.9913,50.097,-26.349,55.103,-19.867,9.9295,-52.559
-64.89,15.851,-46.497,14.684,-77.899,33.664,-17.854,-28.452,24.07,-10.305,50.091,-26.476,55.249,-20.077,9.9353,-52.6
-64.89,15.851,-46.497,14.684,-77.899,33.664,-17.854,-28.452,24.07,-10.305,50.091,-26.476,55.249,-20.077,9.9353,-52.6
-64.89,15.851,-46.497,14.684,-77.899,33.664,-17.854,-28.452,24.07,-10.305,50.091,-26.476,55.249,-20.077,9.9353,-52.6
-64.319,15.351,-46.211,14.413,-77.611,33.356,-17.537,-28.663,24.335,-10.618,50.086,-26.604,55.394,-20.286,9.9403,-52.641
-64.319,15.351,-46.211,14.413,-77.611,33.356,-17.537,-28.663,24.335,-10.618,50.086,-26.604,55.394,-20.286,9.9403,-52.641
-63.745,14.852,-45.922,14.14,-77.321,33.046,-17.221,-28.873,24.599,-10.93,50.08,-26.733,55.536,-20.494,9.9445,-52.682
-63.745,14.852,-45.922,14.14,-77.321,33.046,-17.221,-28.873,24.599,-10.93,50.08,-26.733,55.536,-20.494,9.9445,-52.682
-63.17,14.353,-45.632,13.868,-77.029,32.736,-16.906,-29.083,24.862,-11.241,50.076,-26.861,55.677,-20.7,9.948,-52.723
-63.17,14.353,-45.632,13.868,-77.029,32.736,-16.906,-29.083,24.862,-11.241,50.076,-26.861,55.677,-20.7,9.948,-52.723
-62.594,13.854,-45.339,13.594,-76.735,32.424,-16.59,-29.292,25.125,-11.552,50.071,-26.99,55.817,-20.905,9.9508,-52.764
-62.594,13.854,-45.339,13.594,-76.735,32.424,-16.59,-29.292,25.125,-11.552,50.071,-26.99,55.817,-20.905,9.9508,-52.764
-62.016,13.354,-45.044,13.32,-76.438,32.111,-16.275,-29.501,25.387,-11.861,50.067,-27.119,55.954,-21.109,9.9527,-52.804
-62.016,13.354,-45.044,13.32,-76.438,32.111,-16.275,-29.501,25.387,-11.861,50.067,-27.119,55.954,-21.109,9.9527,-52.804
-62.016,13.354,-45.044,13.32,-76.438,32.111,-16.275,-29.501,25.387,-11.861,50.067,-27.119,55.954,-21.109,9.9527,-52.804
-61.437,12.856,-44.747,13.046,-76.139,31.797,-15.96,-29.708,25.648,-12.17,50.064,-27.248,56.09,-21.311,9.954,-52.845
-61.437,12.856,-44.747,13.046,-76.139,31.797,-15.96,-29.708,25.648,-12.17,50.064,-27.248,56.09,-21.311,9.954,-52.845
-60.856,12.357,-44.448,12.771,-75.839,31.481,-15.646,-29.916,25.909,-12.478,50.06,-27.377,56.225,-21.512,9.9545,-52.885
-60.856,12.357,-44.448,12.771,-75.839,31.481,-15.646,-29.916,25.909,-12.478,50.06,-27.377,56.225,-21.512,9.9545,-52.885
-60.274,11.858,-44.147,12.496,-75.536,31.165,-15.332,-30.122,26.169,-12.784,50.057,-27.506,56.357,-21.711,9.9542,-52.926
-59.691,11.36,-43.844,12.22,-75.231,30.847,-15.018,-30.328,26.428,-13.09,50.055,-27.636,56.488,-21.908,9.9532,-52.966
-59.691,11.36,-43.844,12.22,-75.231,30.847,-15.018,-30.328,26.428,-13.09,50.055,-27.636,56.488,-21.908,9.9532,-52.966
-59.106,10.862,-43.539,11.943,-74.924,30.528,-14.705,-30.532,26.687,-13.395,50.053,-27.765,56.617,-22.105,9.9515,-53.006
-59.106,10.862,-43.539,11.943,-74.924,30.528,-14.705,-30.532,26.687,-13.395,50.053,-27.765,56.617,-22.105,9.9515,-53.006
-58.52,10.364,-43.233,11.667,-74.615,30.209,-14.393,-30.737,26.945,-13.699,50.051,-27.895,56.744,-22.299,9.949,-53.046
-58.52,10.364,-43.233,11.667,-74.615,30.209,-14.393,-30.737,26.945,-13.699,50.051,-27.895,56.744,-22.299,9.949,-53.046
-58.52,10.364,-43.233,11.667,-74.615,30.209,-14.393,-30.737,26.945,-13.699,50.051,-27.895,56.744,-22.299,9.949,-53.046
-57.933,9.8667,-42.924,11.39,-74.305,29.888,-14.081,-30.94,27.202,-14.002,50.049,-28.025,56.87,-22.493,9.9458,-53.086
-57.345,9.3697,-42.614,11.113,-73.992,29.566,-13.77,-31.142,27.458,-14.304,50.048,-28.155,56.993,-22.684,9.9418,-53.125
-57.345,9.3697,-42.614,11.113,-73.992,29.566,-13.77,-31.142,27.458,-14.304,50.048,-28.155,56.993,-22.684,9.9418,-53.125
-56.756,8.8732,-42.301,10.835,-73.677,29.243,-13.459,-31.344,27.714,-14.605,50.047,-28.285,57.115,-22.874,9.9371,-53.164
-56.166,8.3771,-41.987,10.557,-73.361,28.92,-13.149,-31.545,27.968,-14.905,50.046,-28.415,57.235,-23.063,9.9317,-53.203
-56.166,8.3771,-41.987,10.557,-73.361,28.92,-13.149,-31.545,27.968,-14.905,50.046,-28.415,57.235,-23.063,9.9317,-53.203
-56.166,8.3771,-41.987,10.557,-73.361,28.92,-13.149,-31.545,27.968,-14.905,50.046,-28.415,57.235,-23.063,9.9317,-53.203
-55.575,7.8814,-41.671,10.279,-73.043,28.595,-12.839,-31.745,28.222,-15.203,50.046,-28.545,57.353,-23.25,9.9255,-53.242
-55.575,7.8814,-41.671,10.279,-73.043,28.595,-12.839,-31.745,28.222,-15.203,50.046,-28.545,57.353,-23.25,9.9255,-53.242
-55.575,7.8814,-41.671,10.279,-73.043,28.595,-12.839,-31.745,28.222,-15.203,50.046,-28.545,57.353,-23.25,9.9255,-53.242
-54.983,7.3863,-41.354,10,-72.723,28.27,-12.53,-31.944,28.475,-15.501,50.045,-28.675,57.47,-23.436,9.9186,-53.28
-54.39,6.8918,-41.034,9.7214,-72.401,27.944,-12.222,-32.142,28.728,-15.798,50.045,-28.805,57.584,-23.62,9.9109,-53.319
-54.39,6.8918,-41.034,9.7214,-72.401,27.944,-12.222,-32.142,28.728,-15.798,50.045,-28.805,57.584,-23.62,9.9109,-53.319
-53.796,6.3978,-40.713,9.4425,-72.078,27.617,-11.915,-32.339,28.979,-16.093,50.046,-28.935,57.697,-23.802,9.9025,-53.357
-53.796,6.3978,-40.713,9.4425,-72.078,27.617,-11.915,-32.339,28.979,-16.093,50.046,-28.935,57.697,-23.802,9.9025,-53.357
-53.201,5.9045,-40.391,9.1634,-71.753,27.289,-11.608,-32.535,29.23,-16.388,50.046,-29.066,57.808,-23.983,9.8934,-53.394
-53.201,5.9045,-40.391,9.1634,-71.753,27.289,-11.608,-32.535,29.23,-16.388,50.046,-29.066,57.808,-23.983,9.8934,-53.394
-52.606,5.4118,-40.066,8.8841,-71.426,26.961,-11.302,-32.73,29.48,-16.681,50.047,-29.196,57.917,-24.162,9.8836,-53.431
-52.606,5.4118,-40.066,8.8841,-71.426,26.961,-11.302,-32.73,29.48,-16.681,50.047,-29.196,57.917,-24.162,9.8836,-53.431
-52.606,5.4118,-40.066,8.8841,-71.426,26.961,-11.302,-32.73,29.48,-16.681,50.047,-29.196,57.917,-24.162,9.8836,-53.431
-52.01,4.9198,-39.74,8.6047,-71.098,26.632,-10.997,-32.925,29.728,-16.974,50.048,-29.326,58.024,-24.34,9.873,-53.468
-51.414,4.4285,-39.413,8.3251,-70.768,26.302,-10.693,-33.118,29.976,-17.265,50.049,-29.456,58.129,-24.516,9.8617,-53.505
-51.414,4.4285,-39.413,8.3251,-70.768,26.302,-10.693,-33.118,29.976,-17.265,50.049,-29.456,58.129,-24.516,9.8617,-53.505
-50.816,3.9379,-39.084,8.0454,-70.437,25.972,-10.389,-33.31,30.223,-17.555,50.05,-29.586,58.232,-24.69,9.8497,-53.541
-50.816,3.9379,-39.084,8.0454,-70.437,25.972,-10.389,-33.31,30.223,-17.555,50.05,-29.586,58.232,-24.69,9.8497,-53.541
-50.219,3.4482,-38.753,7.7657,-70.104,25.641,-10.087,-33.501,30.47,-17.844,50.052,-29.716,58.333,-24.863,9.837,-53.577
-50.219,3.4482,-38.753,7.7657,-70.104,25.641,-10.087,-33.501,30.47,-17.844,50.052,-29.716,58.333,-24.863,9.837,-53.577
-49.62,2.9592,-38.422,7.4859,-69.77,25.309,-9.7851,-33.691,30.715,-18.131,50.054,-29.845,58.433,-25.034,9.8236,-53.612
-49.62,2.9592,-38.422,7.4859,-69.77,25.309,-9.7851,-33.691,30.715,-18.131,50.054,-29.845,58.433,-25.034,9.8236,-53.612
-49.022,2.4711,-38.088,7.2061,-69.434,24.977,-9.4845,-33.88,30.959,-18.418,50.055,-29.975,58.53,-25.203,9.8094,-53.647
-49.022,2.4711,-38.088,7.2061,-69.434,24.977,-9.4845,-33.88,30.959,-18.418,50.055,-29.975,58.53,-25.203,9.8094,-53.647
-48.422,1.9839,-37.753,6.9263,-69.097,24.644,-9.1848,-34.068,31.202,-18.703,50.057,-30.105,58.626,-25.371,9.7945,-53.682
-48.422,1.9839,-37.753,6.9263,-69.097,24.644,-9.1848,-34.068,31.202,-18.703,50.057,-30.105,58.626,-25.371,9.7945,-53.682
-47.823,1.4976,-37.417,6.6465,-68.759,24.311,-8.8861,-34.254,31.445,-18.987,50.06,-30.234,58.72,-25.537,9.7789,-53.716
-47.823,1.4976,-37.417,6.6465,-68.759,24.311,-8.8861,-34.254,31.445,-18.987,50.06,-30.234,58.72,-25.537,9.7789,-53.716
-47.223,1.0122,-37.08,6.3667,-68.419,23.977,-8.5884,-34.44,31.686,-19.269,50.062,-30.363,58.811,-25.702,9.7626,-53.75
-47.223,1.0122,-37.08,6.3667,-68.419,23.977,-8.5884,-34.44,31.686,-19.269,50.062,-30.363,58.811,-25.702,9.7626,-53.75
-46.623,0.5278,-36.741,6.0869,-68.078,23.643,-8.2918,-34.624,31.926,-19.551,50.064,-30.492,58.901,-25.865,9.7456,-53.783
-46.623,0.5278,-36.741,6.0869,-68.078,23.643,-8.2918,-34.624,31.926,-19.551,50.064,-30.492,58.901,-25.865,9.7456,-53.783
-46.623,0.5278,-36.741,6.0869,-68.078,23.643,-8.2918,-34.624,31.926,-19.551,50.064,-30.492,58.901,-25.865,9.7456,-53.783
-46.023,0.044389,-36.4,5.8073,-67.736,23.309,-7.9962,-34.807,32.165,-19.831,50.067,-30.621,58.989,-26.026,9.7279,-53.815
-45.422,-0.43799,-36.059,5.5277,-67.393,22.974,-7.7017,-34.989,32.404,-20.11,50.069,-30.75,59.075,-26.185,9.7095,-53.848
-44.821,-0.91931,-35.716,5.2483,-67.048,22.639,-7.4083,-35.17,32.641,-20.388,50.072,-30.879,59.159,-26.343,9.6903,-53.879
-44.821,-0.91931,-35.716,5.2483,-67.048,22.639,-7.4083,-35.17,32.641,-20.388,50.072,-30.879,59.159,-26.343,9.6903,-53.879
-44.821,-0.91931,-35.716,5.2483,-67.048,22.639,-7.4083,-35.17,32.641,-20.388,50.072,-30.879,59.159,-26.343,9.6903,-53.879
-44.22,-1.3995,-35.372,4.969,-66.702,22.304,-7.116,-35.349,32.877,-20.664,50.074,-31.007,59.241,-26.499,9.6705,-53.911
-44.22,-1.3995,-35.372,4.969,-66.702,22.304,-7.116,-35.349,32.877,-20.664,50.074,-31.007,59.241,-26.499,9.6705,-53.911
-43.62,-1.8787,-35.027,4.6898,-66.355,21.968,-6.8249,-35.528,33.112,-20.939,50.077,-31.135,59.321,-26.654,9.65,-53.941
-43.62,-1.8787,-35.027,4.6898,-66.355,21.968,-6.8249,-35.528,33.112,-20.939,50.077,-31.135,59.321,-26.654,9.65,-53.941
-43.62,-1.8787,-35.027,4.6898,-66.355,21.968,-6.8249,-35.528,33.112,-20.939,50.077,-31.135,59.321,-26.654,9.65,-53.941
-43.019,-2.3566,-34.681,4.4108,-66.008,21.632,-6.535,-35.704,33.346,-21.213,50.08,-31.263,59.398,-26.806,9.6288,-53.972
-42.418,-2.8334,-34.334,4.1321,-65.659,21.296,-6.2463,-35.88,33.579,-21.486,50.083,-31.391,59.474,-26.957,9.6069,-54.001
-42.418,-2.8334,-34.334,4.1321,-65.659,21.296,-6.2463,-35.88,33.579,-21.486,50.083,-31.391,59.474,-26.957,9.6069,-54.001
-41.817,-3.309,-33.985,3.8535,-65.309,20.959,-5.9588,-36.054,33.81,-21.757,50.086,-31.518,59.548,-27.107,9.5843,-54.03
-41.817,-3.309,-33.985,3.8535,-65.309,20.959,-5.9588,-36.054,33.81,-21.757,50.086,-31.518,59.548,-27.107,9.5843,-54.03
-41.217,-3.7833,-33.636,3.5752,-64.958,20.623,-5.6725,-36.227,34.041,-22.026,50.089,-31.646,59.62,-27.254,9.561,-54.059
-41.217,-3.7833,-33.636,3.5752,-64.958,20.623,-5.6725,-36.227,34.041,-22.026,50.089,-31.646,59.62,-27.254,9.561,-54.059
-40.616,-4.2564,-33.286,3.2972,-64.606,20.286,-5.3875,-36.399,34.27,-22.295,50.092,-31.773,59.69,-27.4,9.5371,-54.087
-40.616,-4.2564,-33.286,3.2972,-64.606,20.286,-5.3875,-36.399,34.27,-22.295,50.092,-31.773,59.69,-27.4,9.5371,-54.087
-40.016,-4.7282,-32.934,3.0194,-64.253,19.949,-5.1038,-36.569,34.499,-22.562,50.095,-31.899,59.758,-27.544,9.5124,-54.114
-40.016,-4.7282,-32.934,3.0194,-64.253,19.949,-5.1038,-36.569,34.499,-22.562,50.095,-31.899,59.758,-27.544,9.5124,-54.114
-39.416,-5.1987,-32.582,2.7419,-63.899,19.612,-4.8215,-36.738,34.726,-22.827,50.098,-32.025,59.824,-27.686,9.4871,-54.14
-39.416,-5.1987,-32.582,2.7419,-63.899,19.612,-4.8215,-36.738,34.726,-22.827,50.098,-32.025,59.824,-27.686,9.4871,-54.14
-39.416,-5.1987,-32.582,2.7419,-63.899,19.612,-4.8215,-36.738,34.726,-22.827,50.098,-32.025,59.824,-27.686,9.4871,-54.14
-38.816,-5.6678,-32.228,2.4648,-63.545,19.275,-4.5404,-36.906,34.952,-23.091,50.1,-32.151,59.887,-27.827,9.4611,-54.167
-38.217,-6.1356,-31.874,2.188,-63.189,18.938,-4.2607,-37.072,35.177,-23.354,50.103,-32.277,59.949,-27.966,9.4345,-54.192
-38.217,-6.1356,-31.874,2.188,-63.189,18.938,-4.2607,-37.072,35.177,-23.354,50.103,-32.277,59.949,-27.966,9.4345,-54.192
-37.618,-6.602,-31.519,1.9116,-62.833,18.601,-3.9824,-37.237,35.4,-23.615,50.106,-32.403,60.009,-28.103,9.4071,-54.217
-37.618,-6.602,-31.519,1.9116,-62.833,18.601,-3.9824,-37.237,35.4,-23.615,50.106,-32.403,60.009,-28.103,9.4071,-54.217
-37.019,-7.0669,-31.163,1.6355,-62.477,18.265,-3.7055,-37.4,35.622,-23.875,50.109,-32.528,60.067,-28.238,9.3791,-54.241
-37.019,-7.0669,-31.163,1.6355,-62.477,18.265,-3.7055,-37.4,35.622,-23.875,50.109,-32.528,60.067,-28.238,9.3791,-54.241
-36.421,-7.5304,-30.806,1.3599,-62.119,17.928,-3.43,-37.562,35.843,-24.134,50.112,-32.652,60.122,-28.372,9.3505,-54.264
-36.421,-7.5304,-30.806,1.3599,-62.119,17.928,-3.43,-37.562,35.843,-24.134,50.112,-32.652,60.122,-28.372,9.3505,-54.264
-35.823,-7.9924,-30.448,1.0846,-61.761,17.591,-3.1559,-37.722,36.063,-24.391,50.114,-32.776,60.176,-28.504,9.3212,-54.287
-35.823,-7.9924,-30.448,1.0846,-61.761,17.591,-3.1559,-37.722,36.063,-24.391,50.114,-32.776,60.176,-28.504,9.3212,-54.287
-35.226,-8.4529,-30.09,0.80985,-61.402,17.254,-2.8833,-37.881,36.282,-24.646,50.117,-32.9,60.227,-28.634,9.2912,-54.309
-35.226,-8.4529,-30.09,0.80985,-61.402,17.254,-2.8833,-37.881,36.282,-24.646,50.117,-32.9,60.227,-28.634,9.2912,-54.309
-34.63,-8.9118,-29.731,0.53552,-61.043,16.918,-2.6121,-38.038,36.499,-24.9,50.119,-33.024,60.277,-28.762,9.2606,-54.33
-34.63,-8.9118,-29.731,0.53552,-61.043,16.918,-2.6121,-38.038,36.499,-24.9,50.119,-33.024,60.277,-28.762,9.2606,-54.33
-34.63,-8.9118,-29.731,0.53552,-61.043,16.918,-2.6121,-38.038,36.499,-24.9,50.119,-33.024,60.277,-28.762,9.2606,-54.33
-34.034,-9.3692,-29.371,0.26166,-60.683,16.581,-2.3425,-38.194,36.715,-25.153,50.122,-33.147,60.324,-28.889,9.2293,-54.351
-33.439,-9.825,-29.011,-0.0117,-60.322,16.245,-2.0743,-38.349,36.93,-25.404,50.124,-33.27,60.369,-29.013,9.1973,-54.371
-33.439,-9.825,-29.011,-0.0117,-60.322,16.245,-2.0743,-38.349,36.93,-25.404,50.124,-33.27,60.369,-29.013,9.1973,-54.371
-32.844,-10.279,-28.65,-0.28455,-59.961,15.909,-1.8077,-38.502,37.144,-25.654,50.126,-33.392,60.413,-29.136,9.1648,-54.39
-32.844,-10.279,-28.65,-0.28455,-59.961,15.909,-1.8077,-38.502,37.144,-25.654,50.126,-33.392,60.413,-29.136,9.1648,-54.39
-32.25,-10.732,-28.288,-0.55686,-59.599,15.573,-1.5426,-38.653,37.356,-25.902,50.128,-33.514,60.454,-29.257,9.1315,-54.409
-32.25,-10.732,-28.288,-0.55686,-59.599,15.573,-1.5426,-38.653,37.356,-25.902,50.128,-33.514,60.454,-29.257,9.1315,-54.409
-31.657,-11.183,-27.926,-0.82862,-59.237,15.238,-1.2791,-38.803,37.566,-26.148,50.13,-33.635,60.493,-29.377,9.0977,-54.427
-31.657,-11.183,-27.926,-0.82862,-59.237,15.238,-1.2791,-38.803,37.566,-26.148,50.13,-33.635,60.493,-29.377,9.0977,-54.427
-31.657,-11.183,-27.926,-0.82862,-59.237,15.238,-1.2791,-38.803,37.566,-26.148,50.13,-33.635,60.493,-29.377,9.0977,-54.427
-31.065,-11.632,-27.563,-1.0998,-58.875,14.903,-1.0172,-38.951,37.776,-26.393,50.132,-33.756,60.53,-29.495,9.0632,-54.444
-30.474,-12.08,-27.2,-1.3704,-58.512,14.568,-0.75689,-39.097,37.984,-26.637,50.134,-33.877,60.565,-29.61,9.0281,-54.46
-29.884,-12.525,-26.836,-1.6404,-58.149,14.233,-0.49819,-39.242,38.191,-26.879,50.135,-33.997,60.598,-29.724,8.9923,-54.475
-29.884,-12.525,-26.836,-1.6404,-58.149,14.233,-0.49819,-39.242,38.191,-26.879,50.135,-33.997,60.598,-29.724,8.9923,-54.475
-29.884,-12.525,-26.836,-1.6404,-58.149,14.233,-0.49819,-39.242,38.191,-26.879,50.135,-33.997,60.598,-29.724,8.9923,-54.475
-29.294,-12.969,-26.472,-1.9098,-57.786,13.899,-0.24112,-39.386,38.396,-27.119,50.136,-34.116,60.628,-29.837,8.9559,-54.49
-29.294,-12.969,-26.472,-1.9098,-57.786,13.899,-0.24112,-39.386,38.396,-27.119,50.136,-34.116,60.628,-29.837,8.9559,-54.49
-29.294,-12.969,-26.472,-1.9098,-57.786,13.899,-0.24112,-39.386,38.396,-27.119,50.136,-34.116,60.628,-29.837,8.9559,-54.49
-28.706,-13.412,-26.107,-2.1785,-57.422,13.565,0.014292,-39.528,38.6,-27.358,50.137,-34.235,60.657,-29.947,8.9189,-54.504
-28.706,-13.412,-26.107,-2.1785,-57.422,13.565,0.014292,-39.528,38.6,-27.358,50.137,-34.235,60.657,-29.947,8.9189,-54.504
-28.119,-13.852,-25.742,-2.4466,-57.058,13.232,0.26804,-39.668,38.803,-27.595,50.138,-34.353,60.684,-30.056,8.8813,-54.517
-27.532,-14.291,-25.377,-2.714,-56.694,12.899,0.52011,-39.806,39.004,-27.831,50.139,-34.471,60.708,-30.163,8.8431,-54.529
-27.532,-14.291,-25.377,-2.714,-56.694,12.899,0.52011,-39.806,39.004,-27.831,50.139,-34.471,60.708,-30.163,8.8431,-54.529
-26.947,-14.728,-25.011,-2.9807,-56.33,12.567,0.77048,-39.943,39.204,-28.065,50.139,-34.589,60.73,-30.268,8.8043,-54.541
-26.947,-14.728,-25.011,-2.9807,-56.33,12.567,0.77048,-39.943,39.204,-28.065,50.139,-34.589,60.73,-30.268,8.8043,-54.541
-26.363,-15.163,-24.645,-3.2467,-55.965,12.235,1.0191,-40.078,39.402,-28.297,50.14,-34.706,60.751,-30.371,8.7648,-54.551
-26.363,-15.163,-24.645,-3.2467,-55.965,12.235,1.0191,-40.078,39.402,-28.297,50.14,-34.706,60.751,-30.371,8.7648,-54.551
-26.363,-15.163,-24.645,-3.2467,-55.965,12.235,1.0191,-40.078,39.402,-28.297,50.14,-34.706,60.751,-30.371,8.7648,-54.551
-25.78,-15.596,-24.279,-3.5119,-55.6,11.904,1.2661,-40.212,39.599,-28.528,50.14,-34.822,60.769,-30.473,8.7248,-54.561
-25.78,-15.596,-24.279,-3.5119,-55.6,11.904,1.2661,-40.212,39.599,-28.528,50.14,-34.822,60.769,-30.473,8.7248,-54.561
-25.198,-16.027,-23.912,-3.7765,-55.236,11.573,1.5113,-40.344,39.794,-28.757,50.14,-34.938,60.785,-30.573,8.6841,-54.57
-24.618,-16.456,-23.545,-4.0402,-54.871,11.242,1.7547,-40.474,39.988,-28.985,50.139,-35.053,60.799,-30.671,8.6429,-54.578
-24.618,-16.456,-23.545,-4.0402,-54.871,11.242,1.7547,-40.474,39.988,-28.985,50.139,-35.053,60.799,-30.671,8.6429,-54.578
-24.039,-16.884,-23.178,-4.3032,-54.506,10.913,1.9964,-40.602,40.181,-29.211,50.138,-35.168,60.811,-30.767,8.601,-54.586
-24.039,-16.884,-23.178,-4.3032,-54.506,10.913,1.9964,-40.602,40.181,-29.211,50.138,-35.168,60.811,-30.767,8.601,-54.586
-23.461,-17.309,-22.811,-4.5654,-54.141,10.584,2.2362,-40.729,40.372,-29.435,50.137,-35.282,60.821,-30.861,8.5586,-54.592
-23.461,-17.309,-22.811,-4.5654,-54.141,10.584,2.2362,-40.729,40.372,-29.435,50.137,-35.282,60.821,-30.861,8.5586,-54.592
-22.885,-17.732,-22.444,-4.8267,-53.776,10.255,2.4743,-40.854,40.562,-29.657,50.136,-35.395,60.829,-30.954,8.5156,-54.598
-22.885,-17.732,-22.444,-4.8267,-53.776,10.255,2.4743,-40.854,40.562,-29.657,50.136,-35.395,60.829,-30.954,8.5156,-54.598
-22.885,-17.732,-22.444,-4.8267,-53.776,10.255,2.4743,-40.854,40.562,-29.657,50.136,-35.395,60.829,-30.954,8.5156,-54.598
-22.31,-18.154,-22.077,-5.0873,-53.411,9.9275,2.7106,-40.978,40.75,-29.878,50.135,-35.508,60.834,-31.045,8.472,-54.602
-21.736,-18.573,-21.709,-5.347,-53.047,9.6004,2.9451,-41.099,40.936,-30.098,50.133,-35.62,60.838,-31.134,8.4278,-54.606
-21.736,-18.573,-21.709,-5.347,-53.047,9.6004,2.9451,-41.099,40.936,-30.098,50.133,-35.62,60.838,-31.134,8.4278,-54.606
-21.164,-18.99,-21.342,-5.6058,-52.682,9.274,3.1777,-41.219,41.121,-30.316,50.131,-35.732,60.839,-31.221,8.383,-54.609
-21.164,-18.99,-21.342,-5.6058,-52.682,9.274,3.1777,-41.219,41.121,-30.316,50.131,-35.732,60.839,-31.221,8.383,-54.609
-20.594,-19.405,-20.974,-5.8638,-52.318,8.9483,3.4085,-41.337,41.305,-30.532,50.128,-35.843,60.839,-31.307,8.3377,-54.611
-20.594,-19.405,-20.974,-5.8638,-52.318,8.9483,3.4085,-41.337,41.305,-30.532,50.128,-35.843,60.839,-31.307,8.3377,-54.611
-20.025,-19.819,-20.607,-6.1209,-51.953,8.6234,3.6374,-41.454,41.486,-30.746,50.125,-35.953,60.836,-31.391,8.2918,-54.612
-20.025,-19.819,-20.607,-6.1209,-51.953,8.6234,3.6374,-41.454,41.486,-30.746,50.125,-35.953,60.836,-31.391,8.2918,-54.612
-20.025,-19.819,-20.607,-6.1209,-51.953,8.6234,3.6374,-41.454,41.486,-30.746,50.125,-35.953,60.836,-31.391,8.2918,-54.612
-19.457,-20.23,-20.24,-6.3771,-51.589,8.2992,3.8645,-41.568,41.667,-30.959,50.122,-36.063,60.831,-31.473,8.2454,-54.613
-18.891,-20.638,-19.872,-6.6323,-51.225,7.9759,4.0896,-41.681,41.846,-31.17,50.119,-36.172,60.824,-31.553,8.1984,-54.612
-18.891,-20.638,-19.872,-6.6323,-51.225,7.9759,4.0896,-41.681,41.846,-31.17,50.119,-36.172,60.824,-31.553,8.1984,-54.612
-18.327,-21.045,-19.505,-6.8867,-50.862,7.6533,4.3129,-41.792,42.023,-31.379,50.115,-36.28,60.815,-31.631,8.1508,-54.61
-18.327,-21.045,-19.505,-6.8867,-50.862,7.6533,4.3129,-41.792,42.023,-31.379,50.115,-36.28,60.815,-31.631,8.1508,-54.61
-17.765,-21.45,-19.138,-7.14,-50.498,7.3316,4.5343,-41.902,42.199,-31.586,50.111,-36.388,60.804,-31.708,8.1027,-54.608
-17.765,-21.45,-19.138,-7.14,-50.498,7.3316,4.5343,-41.902,42.199,-31.586,50.111,-36.388,60.804,-31.708,8.1027,-54.608
-17.765,-21.45,-19.138,-7.14,-50.498,7.3316,4.5343,-41.902,42.199,-31.586,50.111,-36.388,60.804,-31.708,8.1027,-54.608
-17.204,-21.852,-18.771,-7.3924,-50.135,7.0108,4.7538,-42.009,42.373,-31.792,50.106,-36.495,60.791,-31.783,8.054,-54.604
-17.204,-21.852,-18.771,-7.3924,-50.135,7.0108,4.7538,-42.009,42.373,-31.792,50.106,-36.495,60.791,-31.783,8.054,-54.604
-16.645,-22.252,-18.404,-7.6439,-49.773,6.6908,4.9714,-42.115,42.545,-31.996,50.101,-36.601,60.776,-31.856,8.0048,-54.6
-16.645,-22.252,-18.404,-7.6439,-49.773,6.6908,4.9714,-42.115,42.545,-31.996,50.101,-36.601,60.776,-31.856,8.0048,-54.6
-15.533,-23.046,-17.672,-8.1438,-49.049,6.0535,5.4007,-42.321,42.885,-32.4,50.09,-36.812,60.739,-31.997,7.9048,-54.589
-15.533,-23.046,-17.672,-8.1438,-49.049,6.0535,5.4007,-42.321,42.885,-32.4,50.09,-36.812,60.739,-31.997,7.9048,-54.589
-15.533,-23.046,-17.672,-8.1438,-49.049,6.0535,5.4007,-42.321,42.885,-32.4,50.09,-36.812,60.739,-31.997,7.9048,-54.589
-14.979,-23.44,-17.305,-8.3922,-48.687,5.7363,5.6124,-42.421,43.053,-32.599,50.084,-36.916,60.718,-32.065,7.854,-54.581
-14.979,-23.44,-17.305,-8.3922,-48.687,5.7363,5.6124,-42.421,43.053,-32.599,50.084,-36.916,60.718,-32.065,7.854,-54.581
-14.427,-23.831,-16.94,-8.6395,-48.326,5.42,5.8222,-42.52,43.219,-32.796,50.078,-37.019,60.695,-32.131,7.8027,-54.573
-14.427,-23.831,-16.94,-8.6395,-48.326,5.42,5.8222,-42.52,43.219,-32.796,50.078,-37.019,60.695,-32.131,7.8027,-54.573
-13.878,-24.22,-16.574,-8.8859,-47.965,5.1047,6.0301,-42.616,43.383,-32.991,50.071,-37.122,60.669,-32.195,7.7508,-54.564
-13.878,-24.22,-16.574,-8.8859,-47.965,5.1047,6.0301,-42.616,43.383,-32.991,50.071,-37.122,60.669,-32.195,7.7508,-54.564
-13.878,-24.22,-16.574,-8.8859,-47.965,5.1047,6.0301,-42.616,43.383,-32.991,50.071,-37.122,60.669,-32.195,7.7508,-54.564
-13.33,-24.607,-16.209,-9.1311,-47.605,4.7904,6.236,-42.711,43.546,-33.185,50.064,-37.224,60.642,-32.258,7.6985,-54.554
-13.33,-24.607,-16.209,-9.1311,-47.605,4.7904,6.236,-42.711,43.546,-33.185,50.064,-37.224,60.642,-32.258,7.6985,-54.554
-13.33,-24.607,-16.209,-9.1311,-47.605,4.7904,6.236,-42.711,43.546,-33.185,50.064,-37.224,60.642,-32.258,7.6985,-54.554
-12.24,-25.373,-15.48,-9.6184,-46.887,4.1649,6.6418,-42.896,43.866,-33.568,50.048,-37.425,60.58,-32.378,7.5922,-54.531
-12.24,-25.373,-15.48,-9.6184,-46.887,4.1649,6.6418,-42.896,43.866,-33.568,50.048,-37.425,60.58,-32.378,7.5922,-54.531
-12.24,-25.373,-15.48,-9.6184,-46.887,4.1649,6.6418,-42.896,43.866,-33.568,50.048,-37.425,60.58,-32.378,7.5922,-54.531
-11.699,-25.753,-15.117,-9.8604,-46.528,3.8536,6.8417,-42.985,44.024,-33.756,50.039,-37.525,60.547,-32.436,7.5383,-54.518
-11.159,-26.131,-14.753,-10.101,-46.17,3.5435,7.0396,-43.072,44.18,-33.943,50.03,-37.624,60.511,-32.491,7.4839,-54.504
-11.159,-26.131,-14.753,-10.101,-46.17,3.5435,7.0396,-43.072,44.18,-33.943,50.03,-37.624,60.511,-32.491,7.4839,-54.504
-11.159,-26.131,-14.753,-10.101,-46.17,3.5435,7.0396,-43.072,44.18,-33.943,50.03,-37.624,60.511,-32.491,7.4839,-54.504
-10.621,-26.506,-14.39,-10.341,-45.813,3.2345,7.2355,-43.158,44.334,-34.128,50.021,-37.722,60.473,-32.545,7.429,-54.489
-10.086,-26.878,-14.028,-10.58,-45.457,2.9265,7.4295,-43.242,44.487,-34.311,50.011,-37.819,60.433,-32.598,7.3736,-54.473
-9.5526,-27.249,-13.666,-10.817,-45.101,2.6197,7.6214,-43.324,44.638,-34.493,50.001,-37.916,60.392,-32.648,7.3177,-54.457
-9.5526,-27.249,-13.666,-10.817,-45.101,2.6197,7.6214,-43.324,44.638,-34.493,50.001,-37.916,60.392,-32.648,7.3177,-54.457
-9.5526,-27.249,-13.666,-10.817,-45.101,2.6197,7.6214,-43.324,44.638,-34.493,50.001,-37.916,60.392,-32.648,7.3177,-54.457
-9.0215,-27.616,-13.305,-11.053,-44.746,2.314,7.8113,-43.404,44.787,-34.673,49.99,-38.012,60.348,-32.697,7.2613,-54.439
-9.0215,-27.616,-13.305,-11.053,-44.746,2.314,7.8113,-43.404,44.787,-34.673,49.99,-38.012,60.348,-32.697,7.2613,-54.439
-9.0215,-27.616,-13.305,-11.053,-44.746,2.314,7.8113,-43.404,44.787,-34.673,49.99,-38.012,60.348,-32.697,7.2613,-54.439
-8.4926,-27.982,-12.944,-11.289,-44.391,2.0095,7.9991,-43.483,44.935,-34.851,49.978,-38.106,60.302,-32.744,7.2045,-54.42
-8.4926,-27.982,-12.944,-11.289,-44.391,2.0095,7.9991,-43.483,44.935,-34.851,49.978,-38.106,60.302,-32.744,7.2045,-54.42
-7.966,-28.345,-12.584,-11.523,-44.038,1.7062,8.185,-43.559,45.081,-35.027,49.966,-38.201,60.254,-32.79,7.1471,-54.4
-7.966,-28.345,-12.584,-11.523,-44.038,1.7062,8.185,-43.559,45.081,-35.027,49.966,-38.201,60.254,-32.79,7.1471,-54.4
-7.966,-28.345,-12.584,-11.523,-44.038,1.7062,8.185,-43.559,45.081,-35.027,49.966,-38.201,60.254,-32.79,7.1471,-54.4
-6.9196,-29.064,-11.866,-11.987,-43.333,1.1031,8.5506,-43.706,45.367,-35.374,49.941,-38.386,60.153,-32.876,7.0311,-54.358
-6.9196,-29.064,-11.866,-11.987,-43.333,1.1031,8.5506,-43.706,45.367,-35.374,49.941,-38.386,60.153,-32.876,7.0311,-54.358
-6.3998,-29.419,-11.508,-12.217,-42.981,0.80338,8.7303,-43.777,45.508,-35.545,49.928,-38.478,60.099,-32.916,6.9724,-54.335
-6.3998,-29.419,-11.508,-12.217,-42.981,0.80338,8.7303,-43.777,45.508,-35.545,49.928,-38.478,60.099,-32.916,6.9724,-54.335
-5.8825,-29.773,-11.151,-12.446,-42.631,0.50492,8.908,-43.846,45.647,-35.714,49.914,-38.569,60.043,-32.955,6.9132,-54.311
-5.8825,-29.773,-11.151,-12.446,-42.631,0.50492,8.908,-43.846,45.647,-35.714,49.914,-38.569,60.043,-32.955,6.9132,-54.311
-5.3675,-30.123,-10.795,-12.674,-42.281,0.20771,9.0837,-43.914,45.784,-35.882,49.899,-38.659,59.985,-32.992,6.8535,-54.286
-5.3675,-30.123,-10.795,-12.674,-42.281,0.20771,9.0837,-43.914,45.784,-35.882,49.899,-38.659,59.985,-32.992,6.8535,-54.286
-4.8549,-30.472,-10.439,-12.901,-41.932,-0.088229,9.2573,-43.979,45.919,-36.047,49.884,-38.748,59.926,-33.028,6.7934,-54.26
-4.8549,-30.472,-10.439,-12.901,-41.932,-0.088229,9.2573,-43.979,45.919,-36.047,49.884,-38.748,59.926,-33.028,6.7934,-54.26
-4.3448,-30.817,-10.084,-13.126,-41.585,-0.38288,9.4289,-44.043,46.053,-36.211,49.869,-38.836,59.864,-33.062,6.7329,-54.234
-4.3448,-30.817,-10.084,-13.126,-41.585,-0.38288,9.4289,-44.043,46.053,-36.211,49.869,-38.836,59.864,-33.062,6.7329,-54.234
-3.8371,-31.161,-9.7298,-13.35,-41.238,-0.67622,9.5984,-44.104,46.185,-36.373,49.853,-38.923,59.8,-33.094,6.6719,-54.206
-3.3319,-31.501,-9.3766,-13.573,-40.892,-0.96824,9.7659,-44.164,46.315,-36.534,49.836,-39.01,59.735,-33.125,6.6105,-54.177
-3.3319,-31.501,-9.3766,-13.573,-40.892,-0.96824,9.7659,-44.164,46.315,-36.534,49.836,-39.01,59.735,-33.125,6.6105,-54.177
-3.3319,-31.501,-9.3766,-13.573,-40.892,-0.96824,9.7659,-44.164,46.315,-36.534,49.836,-39.01,59.735,-33.125,6.6105,-54.177
-2.8293,-31.84,-9.0242,-13.794,-40.547,-1.2589,9.9313,-44.222,46.443,-36.692,49.819,-39.095,59.667,-33.154,6.5486,-54.147
-2.8293,-31.84,-9.0242,-13.794,-40.547,-1.2589,9.9313,-44.222,46.443,-36.692,49.819,-39.095,59.667,-33.154,6.5486,-54.147
-2.3291,-32.175,-8.6727,-14.014,-40.203,-1.5483,10.095,-44.278,46.569,-36.849,49.801,-39.18,59.598,-33.181,6.4864,-54.117
-2.3291,-32.175,-8.6727,-14.014,-40.203,-1.5483,10.095,-44.278,46.569,-36.849,49.801,-39.18,59.598,-33.181,6.4864,-54.117
-1.8316,-32.508,-8.3221,-14.233,-39.86,-1.8362,10.256,-44.332,46.694,-37.004,49.783,-39.264,59.527,-33.207,6.4237,-54.085
-1.8316,-32.508,-8.3221,-14.233,-39.86,-1.8362,10.256,-44.332,46.694,-37.004,49.783,-39.264,59.527,-33.207,6.4237,-54.085
-1.3366,-32.839,-7.9725,-14.45,-39.518,-2.1228,10.415,-44.385,46.817,-37.157,49.764,-39.347,59.454,-33.231,6.3605,-54.052
-1.3366,-32.839,-7.9725,-14.45,-39.518,-2.1228,10.415,-44.385,46.817,-37.157,49.764,-39.347,59.454,-33.231,6.3605,-54.052
-0.8442,-33.167,-7.6239,-14.667,-39.178,-2.408,10.573,-44.435,46.938,-37.309,49.744,-39.429,59.379,-33.254,6.297,-54.018
-0.8442,-33.167,-7.6239,-14.667,-39.178,-2.408,10.573,-44.435,46.938,-37.309,49.744,-39.429,59.379,-33.254,6.297,-54.018
-0.8442,-33.167,-7.6239,-14.667,-39.178,-2.408,10.573,-44.435,46.938,-37.309,49.744,-39.429,59.379,-33.254,6.297,-54.018
-0.35445,-33.492,-7.2762,-14.881,-38.838,-2.6919,10.728,-44.484,47.057,-37.458,49.724,-39.51,59.302,-33.275,6.233,-53.983
0.13264,-33.815,-6.9296,-15.095,-38.499,-2.9742,10.881,-44.531,47.175,-37.606,49.704,-39.59,59.223,-33.294,6.1687,-53.948
0.13264,-33.815,-6.9296,-15.095,-38.499,-2.9742,10.881,-44.531,47.175,-37.606,49.704,-39.59,59.223,-33.294,6.1687,-53.948
0.61705,-34.135,-6.584,-15.307,-38.162,-3.2552,11.032,-44.576,47.291,-37.752,49.682,-39.67,59.142,-33.312,6.1039,-53.911
0.61705,-34.135,-6.584,-15.307,-38.162,-3.2552,11.032,-44.576,47.291,-37.752,49.682,-39.67,59.142,-33.312,6.1039,-53.911
1.0988,-34.452,-6.2395,-15.518,-37.825,-3.5347,11.181,-44.619,47.405,-37.896,49.66,-39.748,59.059,-33.329,6.0388,-53.873
1.0988,-34.452,-6.2395,-15.518,-37.825,-3.5347,11.181,-44.619,47.405,-37.896,49.66,-39.748,59.059,-33.329,6.0388,-53.873
1.5778,-34.767,-5.896,-15.727,-37.49,-3.8128,11.328,-44.661,47.517,-38.039,49.638,-39.826,58.975,-33.343,5.9732,-53.834
1.5778,-34.767,-5.896,-15.727,-37.49,-3.8128,11.328,-44.661,47.517,-38.039,49.638,-39.826,58.975,-33.343,5.9732,-53.834
1.5778,-34.767,-5.896,-15.727,-37.49,-3.8128,11.328,-44.661,47.517,-38.039,49.638,-39.826,58.975,-33.343,5.9732,-53.834
2.054,-35.08,-5.5537,-15.935,-37.156,-4.0893,11.473,-44.7,47.627,-38.18,49.615,-39.902,58.889,-33.357,5.9073,-53.794
2.5275,-35.39,-5.2125,-16.141,-36.823,-4.3645,11.616,-44.738,47.735,-38.319,49.591,-39.978,58.8,-33.368,5.841,-53.753
2.9982,-35.697,-4.8725,-16.346,-36.492,-4.6381,11.757,-44.774,47.842,-38.456,49.567,-40.053,58.71,-33.378,5.7742,-53.712
2.9982,-35.697,-4.8725,-16.346,-36.492,-4.6381,11.757,-44.774,47.842,-38.456,49.567,-40.053,58.71,-33.378,5.7742,-53.712
2.9982,-35.697,-4.8725,-16.346,-36.492,-4.6381,11.757,-44.774,47.842,-38.456,49.567,-40.053,58.71,-33.378,5.7742,-53.712
3.4661,-36.001,-4.5337,-16.55,-36.161,-4.9102,11.896,-44.808,47.947,-38.591,49.542,-40.127,58.619,-33.387,5.7072,-53.669
3.4661,-36.001,-4.5337,-16.55,-36.161,-4.9102,11.896,-44.808,47.947,-38.591,49.542,-40.127,58.619,-33.387,5.7072,-53.669
3.4661,-36.001,-4.5337,-16.55,-36.161,-4.9102,11.896,-44.808,47.947,-38.591,49.542,-40.127,58.619,-33.387,5.7072,-53.669
3.9311,-36.303,-4.196,-16.752,-35.832,-5.1808,12.032,-44.84,48.05,-38.725,49.516,-40.199,58.525,-33.394,5.6397,-53.625
3.9311,-36.303,-4.196,-16.752,-35.832,-5.1808,12.032,-44.84,48.05,-38.725,49.516,-40.199,58.525,-33.394,5.6397,-53.625
4.3934,-36.602,-3.8596,-16.953,-35.504,-5.4498,12.167,-44.871,48.151,-38.857,49.49,-40.271,58.43,-33.4,5.5719,-53.58
4.3934,-36.602,-3.8596,-16.953,-35.504,-5.4498,12.167,-44.871,48.151,-38.857,49.49,-40.271,58.43,-33.4,5.5719,-53.58
4.8527,-36.899,-3.5244,-17.153,-35.178,-5.7174,12.3,-44.899,48.25,-38.987,49.463,-40.342,58.333,-33.404,5.5037,-53.534
4.8527,-36.899,-3.5244,-17.153,-35.178,-5.7174,12.3,-44.899,48.25,-38.987,49.463,-40.342,58.333,-33.404,5.5037,-53.534
4.8527,-36.899,-3.5244,-17.153,-35.178,-5.7174,12.3,-44.899,48.25,-38.987,49.463,-40.342,58.333,-33.404,5.5037,-53.534
5.7627,-37.484,-2.8579,-17.547,-34.529,-6.2477,12.559,-44.951,48.443,-39.242,49.407,-40.481,58.133,-33.408,5.3663,-53.44
5.7627,-37.484,-2.8579,-17.547,-34.529,-6.2477,12.559,-44.951,48.443,-39.242,49.407,-40.481,58.133,-33.408,5.3663,-53.44
6.2134,-37.772,-2.5266,-17.742,-34.206,-6.5106,12.686,-44.974,48.537,-39.367,49.378,-40.549,58.03,-33.408,5.297,-53.391
6.2134,-37.772,-2.5266,-17.742,-34.206,-6.5106,12.686,-44.974,48.537,-39.367,49.378,-40.549,58.03,-33.408,5.297,-53.391
6.2134,-37.772,-2.5266,-17.742,-34.206,-6.5106,12.686,-44.974,48.537,-39.367,49.378,-40.549,58.03,-33.408,5.297,-53.391
6.6611,-38.058,-2.1966,-17.936,-33.885,-6.7719,12.811,-44.996,48.629,-39.49,49.348,-40.617,57.926,-33.406,5.2275,-53.341
7.1059,-38.341,-1.868,-18.128,-33.565,-7.0315,12.934,-45.016,48.719,-39.612,49.318,-40.683,57.82,-33.403,5.1575,-53.291
7.1059,-38.341,-1.868,-18.128,-33.565,-7.0315,12.934,-45.016,48.719,-39.612,49.318,-40.683,57.82,-33.403,5.1575,-53.291
7.5476,-38.622,-1.5407,-18.319,-33.246,-7.2896,13.054,-45.034,48.807,-39.732,49.287,-40.748,57.713,-33.399,5.0873,-53.239
7.5476,-38.622,-1.5407,-18.319,-33.246,-7.2896,13.054,-45.034,48.807,-39.732,49.287,-40.748,57.713,-33.399,5.0873,-53.239
7.9864,-38.9,-1.2149,-18.508,-32.929,-7.5461,13.173,-45.05,48.894,-39.85,49.255,-40.812,57.603,-33.393,5.0167,-53.186
7.9864,-38.9,-1.2149,-18.508,-32.929,-7.5461,13.173,-45.05,48.894,-39.85,49.255,-40.812,57.603,-33.393,5.0167,-53.186
8.4222,-39.175,-0.89042,-18.695,-32.614,-7.8009,13.29,-45.064,48.978,-39.966,49.223,-40.875,57.492,-33.385,4.9458,-53.132
8.4222,-39.175,-0.89042,-18.695,-32.614,-7.8009,13.29,-45.064,48.978,-39.966,49.223,-40.875,57.492,-33.385,4.9458,-53.132
8.4222,-39.175,-0.89042,-18.695,-32.614,-7.8009,13.29,-45.064,48.978,-39.966,49.223,-40.875,57.492,-33.385,4.9458,-53.132
8.855,-39.448,-0.56741,-18.882,-32.299,-8.0542,13.405,-45.077,49.061,-40.08,49.19,-40.938,57.38,-33.377,4.8745,-53.078
9.2847,-39.717,-0.24585,-19.066,-31.987,-8.3058,13.517,-45.088,49.142,-40.193,49.156,-40.999,57.265,-33.367,4.803,-53.022
9.7114,-39.985,0.07424,-19.249,-31.675,-8.5557,13.628,-45.097,49.221,-40.304,49.122,-41.059,57.149,-33.355,4.7311,-52.966
9.7114,-39.985,0.07424,-19.249,-31.675,-8.5557,13.628,-45.097,49.221,-40.304,49.122,-41.059,57.149,-33.355,4.7311,-52.966
9.7114,-39.985,0.07424,-19.249,-31.675,-8.5557,13.628,-45.097,49.221,-40.304,49.122,-41.059,57.149,-33.355,4.7311,-52.966
10.135,-40.249,0.39284,-19.431,-31.365,-8.804,13.737,-45.105,49.298,-40.414,49.087,-41.119,57.032,-33.342,4.6589,-52.908
10.135,-40.249,0.39284,-19.431,-31.365,-8.804,13.737,-45.105,49.298,-40.414,49.087,-41.119,57.032,-33.342,4.6589,-52.908
10.555,-40.511,0.70992,-19.611,-31.057,-9.0506,13.844,-45.11,49.374,-40.521,49.051,-41.177,56.912,-33.328,4.5864,-52.85
10.555,-40.511,0.70992,-19.611,-31.057,-9.0506,13.844,-45.11,49.374,-40.521,49.051,-41.177,56.912,-33.328,4.5864,-52.85
10.973,-40.77,1.0255,-19.79,-30.75,-9.2956,13.949,-45.114,49.447,-40.627,49.014,-41.234,56.791,-33.313,4.5137,-52.79
10.973,-40.77,1.0255,-19.79,-30.75,-9.2956,13.949,-45.114,49.447,-40.627,49.014,-41.234,56.791,-33.313,4.5137,-52.79
11.387,-41.026,1.3395,-19.967,-30.445,-9.5389,14.052,-45.117,49.519,-40.731,48.977,-41.291,56.669,-33.296,4.4406,-52.73
11.387,-41.026,1.3395,-19.967,-30.445,-9.5389,14.052,-45.117,49.519,-40.731,48.977,-41.291,56.669,-33.296,4.4406,-52.73
11.798,-41.28,1.6519,-20.142,-30.141,-9.7805,14.153,-45.117,49.589,-40.834,48.939,-41.346,56.545,-33.278,4.3672,-52.668
11.798,-41.28,1.6519,-20.142,-30.141,-9.7805,14.153,-45.117,49.589,-40.834,48.939,-41.346,56.545,-33.278,4.3672,-52.668
12.206,-41.531,1.9628,-20.316,-29.839,-10.02,14.252,-45.116,49.657,-40.935,48.9,-41.401,56.419,-33.258,4.2936,-52.606
12.206,-41.531,1.9628,-20.316,-29.839,-10.02,14.252,-45.116,49.657,-40.935,48.9,-41.401,56.419,-33.258,4.2936,-52.606
12.611,-41.779,2.272,-20.489,-29.538,-10.259,14.35,-45.114,49.723,-41.034,48.861,-41.454,56.292,-33.237,4.2196,-52.543
12.611,-41.779,2.272,-20.489,-29.538,-10.259,14.35,-45.114,49.723,-41.034,48.861,-41.454,56.292,-33.237,4.2196,-52.543
12.611,-41.779,2.272,-20.489,-29.538,-10.259,14.35,-45.114,49.723,-41.034,48.861,-41.454,56.292,-33.237,4.2196,-52.543
13.013,-42.025,2.5797,-20.66,-29.239,-10.495,14.445,-45.109,49.787,-41.131,48.821,-41.506,56.163,-33.215,4.1454,-52.479
13.412,-42.268,2.8856,-20.829,-28.941,-10.73,14.539,-45.103,49.85,-41.227,48.78,-41.558,56.033,-33.192,4.0709,-52.414
13.412,-42.268,2.8856,-20.829,-28.941,-10.73,14.539,-45.103,49.85,-41.227,48.78,-41.558,56.033,-33.192,4.0709,-52.414
13.412,-42.268,2.8856,-20.829,-28.941,-10.73,14.539,-45.103,49.85,-41.227,48.78,-41.558,56.033,-33.192,4.0709,-52.414
13.807,-42.508,3.19,-20.997,-28.645,-10.963,14.631,-45.096,49.91,-41.321,48.738,-41.608,55.901,-33.168,3.9962,-52.348
13.807,-42.508,3.19,-20.997,-28.645,-10.963,14.631,-45.096,49.91,-41.321,48.738,-41.608,55.901,-33.168,3.9962,-52.348
13.807,-42.508,3.19,-20.997,-28.645,-10.963,14.631,-45.096,49.91,-41.321,48.738,-41.608,55.901,-33.168,3.9962,-52.348
14.588,-42.98,3.7936,-21.328,-28.058,-11.424,14.808,-45.075,50.026,-41.505,48.653,-41.706,55.632,-33.115,3.8459,-52.213
14.588,-42.98,3.7936,-21.328,-28.058,-11.424,14.808,-45.075,50.026,-41.505,48.653,-41.706,55.632,-33.115,3.8459,-52.213
14.974,-43.213,4.0929,-21.491,-27.767,-11.652,14.894,-45.063,50.081,-41.594,48.609,-41.753,55.496,-33.086,3.7703,-52.144
14.974,-43.213,4.0929,-21.491,-27.767,-11.652,14.894,-45.063,50.081,-41.594,48.609,-41.753,55.496,-33.086,3.7703,-52.144
14.974,-43.213,4.0929,-21.491,-27.767,-11.652,14.894,-45.063,50.081,-41.594,48.609,-41.753,55.496,-33.086,3.7703,-52.144
15.356,-43.442,4.3904,-21.652,-27.477,-11.878,14.979,-45.049,50.135,-41.682,48.564,-41.8,55.358,-33.057,3.6946,-52.074
15.356,-43.442,4.3904,-21.652,-27.477,-11.878,14.979,-45.049,50.135,-41.682,48.564,-41.8,55.358,-33.057,3.6946,-52.074
15.356,-43.442,4.3904,-21.652,-27.477,-11.878,14.979,-45.049,50.135,-41.682,48.564,-41.8,55.358,-33.057,3.6946,-52.074
16.112,-43.893,4.9802,-21.97,-26.903,-12.325,15.142,-45.015,50.236,-41.852,48.473,-41.89,55.078,-32.994,3.5423,-51.932
16.112,-43.893,4.9802,-21.97,-26.903,-12.325,15.142,-45.015,50.236,-41.852,48.473,-41.89,55.078,-32.994,3.5423,-51.932
16.484,-44.114,5.2725,-22.127,-26.618,-12.546,15.221,-44.996,50.284,-41.935,48.426,-41.933,54.936,-32.961,3.4657,-51.86
16.484,-44.114,5.2725,-22.127,-26.618,-12.546,15.221,-44.996,50.284,-41.935,48.426,-41.933,54.936,-32.961,3.4657,-51.86
16.484,-44.114,5.2725,-22.127,-26.618,-12.546,15.221,-44.996,50.284,-41.935,48.426,-41.933,54.936,-32.961,3.4657,-51.86
16.854,-44.333,5.563,-22.282,-26.335,-12.765,15.298,-44.976,50.33,-42.016,48.379,-41.975,54.792,-32.927,3.389,-51.787
17.22,-44.549,5.8516,-22.436,-26.054,-12.983,15.373,-44.954,50.374,-42.095,48.33,-42.017,54.647,-32.892,3.312,-51.713
17.583,-44.763,6.1385,-22.588,-25.775,-13.198,15.446,-44.93,50.417,-42.173,48.281,-42.057,54.501,-32.855,3.2348,-51.638
17.583,-44.763,6.1385,-22.588,-25.775,-13.198,15.446,-44.93,50.417,-42.173,48.281,-42.057,54.501,-32.855,3.2348,-51.638
17.583,-44.763,6.1385,-22.588,-25.775,-13.198,15.446,-44.93,50.417,-42.173,48.281,-42.057,54.501,-32.855,3.2348,-51.638
17.943,-44.973,6.4235,-22.738,-25.497,-13.412,15.518,-44.905,50.458,-42.249,48.231,-42.096,54.353,-32.818,3.1574,-51.562
18.299,-45.181,6.7067,-22.887,-25.221,-13.624,15.588,-44.878,50.496,-42.324,48.181,-42.135,54.204,-32.779,3.0798,-51.485
18.299,-45.181,6.7067,-22.887,-25.221,-13.624,15.588,-44.878,50.496,-42.324,48.181,-42.135,54.204,-32.779,3.0798,-51.485
18.299,-45.181,6.7067,-22.887,-25.221,-13.624,15.588,-44.878,50.496,-42.324,48.181,-42.135,54.204,-32.779,3.0798,-51.485
18.652,-45.387,6.988,-23.034,-24.946,-13.834,15.656,-44.85,50.534,-42.397,48.129,-42.172,54.053,-32.739,3.002,-51.407
18.652,-45.387,6.988,-23.034,-24.946,-13.834,15.656,-44.85,50.534,-42.397,48.129,-42.172,54.053,-32.739,3.002,-51.407
19.002,-45.589,7.2674,-23.18,-24.674,-14.043,15.723,-44.82,50.569,-42.469,48.077,-42.208,53.902,-32.698,2.9239,-51.329
19.348,-45.789,7.545,-23.324,-24.403,-14.25,15.788,-44.789,50.602,-42.539,48.024,-42.244,53.748,-32.656,2.8457,-51.25
19.348,-45.789,7.545,-23.324,-24.403,-14.25,15.788,-44.789,50.602,-42.539,48.024,-42.244,53.748,-32.656,2.8457,-51.25
19.348,-45.789,7.545,-23.324,-24.403,-14.25,15.788,-44.789,50.602,-42.539,48.024,-42.244,53.748,-32.656,2.8457,-51.25
19.691,-45.987,7.8206,-23.467,-24.133,-14.455,15.851,-44.756,50.634,-42.607,47.971,-42.278,53.594,-32.613,2.7673,-51.17
19.691,-45.987,7.8206,-23.467,-24.133,-14.455,15.851,-44.756,50.634,-42.607,47.971,-42.278,53.594,-32.613,2.7673,-51.17
20.031,-46.182,8.0943,-23.607,-23.866,-14.658,15.912,-44.722,50.664,-42.674,47.916,-42.311,53.438,-32.569,2.6886,-51.089
20.031,-46.182,8.0943,-23.607,-23.866,-14.658,15.912,-44.722,50.664,-42.674,47.916,-42.311,53.438,-32.569,2.6886,-51.089
20.367,-46.374,8.3661,-23.747,-23.6,-14.859,15.972,-44.686,50.692,-42.74,47.861,-42.344,53.281,-32.524,2.6098,-51.007
20.367,-46.374,8.3661,-23.747,-23.6,-14.859,15.972,-44.686,50.692,-42.74,47.861,-42.344,53.281,-32.524,2.6098,-51.007
20.701,-46.563,8.6359,-23.884,-23.336,-15.059,16.03,-44.649,50.719,-42.804,47.805,-42.375,53.123,-32.477,2.5308,-50.924
20.701,-46.563,8.6359,-23.884,-23.336,-15.059,16.03,-44.649,50.719,-42.804,47.805,-42.375,53.123,-32.477,2.5308,-50.924
21.03,-46.75,8.9038,-24.02,-23.074,-15.256,16.087,-44.61,50.744,-42.866,47.748,-42.405,52.964,-32.43,2.4516,-50.841
21.03,-46.75,8.9038,-24.02,-23.074,-15.256,16.087,-44.61,50.744,-42.866,47.748,-42.405,52.964,-32.43,2.4516,-50.841
21.03,-46.75,8.9038,-24.02,-23.074,-15.256,16.087,-44.61,50.744,-42.866,47.748,-42.405,52.964,-32.43,2.4516,-50.841
21.03,-46.75,8.9038,-24.02,-23.074,-15.256,16.087,-44.61,50.744,-42.866,47.748,-42.405,52.964,-32.43,2.4516,-50.841
21.68,-47.116,9.4336,-24.287,-22.555,-15.647,16.195,-44.529,50.788,-42.986,47.632,-42.463,52.641,-32.333,2.2927,-50.672
21.68,-47.116,9.4336,-24.287,-22.555,-15.647,16.195,-44.529,50.788,-42.986,47.632,-42.463,52.641,-32.333,2.2927,-50.672
21.68,-47.116,9.4336,-24.287,-22.555,-15.647,16.195,-44.529,50.788,-42.986,47.632,-42.463,52.641,-32.333,2.2927,-50.672
21.999,-47.295,9.6956,-24.418,-22.298,-15.839,16.247,-44.486,50.807,-43.044,47.573,-42.49,52.478,-32.283,2.213,-50.586
22.316,-47.471,9.9555,-24.548,-22.043,-16.029,16.297,-44.442,50.825,-43.101,47.513,-42.516,52.314,-32.231,2.1332,-50.499
22.316,-47.471,9.9555,-24.548,-22.043,-16.029,16.297,-44.442,50.825,-43.101,47.513,-42.516,52.314,-32.231,2.1332,-50.499
22.629,-47.645,10.213,-24.676,-21.79,-16.218,16.345,-44.396,50.841,-43.156,47.453,-42.542,52.149,-32.179,2.0531,-50.412
22.629,-47.645,10.213,-24.676,-21.79,-16.218,16.345,-44.396,50.841,-43.156,47.453,-42.542,52.149,-32.179,2.0531,-50.412
22.938,-47.816,10.469,-24.802,-21.538,-16.405,16.392,-44.349,50.856,-43.209,47.391,-42.566,51.982,-32.126,1.973,-50.324
22.938,-47.816,10.469,-24.802,-21.538,-16.405,16.392,-44.349,50.856,-43.209,47.391,-42.566,51.982,-32.126,1.973,-50.324
23.244,-47.985,10.723,-24.927,-21.289,-16.59,16.438,-44.301,50.868,-43.261,47.329,-42.589,51.814,-32.072,1.8926,-50.235
23.244,-47.985,10.723,-24.927,-21.289,-16.59,16.438,-44.301,50.868,-43.261,47.329,-42.589,51.814,-32.072,1.8926,-50.235
23.547,-48.151,10.975,-25.05,-21.041,-16.773,16.482,-44.251,50.879,-43.312,47.266,-42.612,51.646,-32.018,1.8122,-50.145
23.547,-48.151,10.975,-25.05,-21.041,-16.773,16.482,-44.251,50.879,-43.312,47.266,-42.612,51.646,-32.018,1.8122,-50.145
23.847,-48.315,11.225,-25.172,-20.795,-16.955,16.524,-44.2,50.888,-43.361,47.202,-42.633,51.476,-31.962,1.7316,-50.055
23.847,-48.315,11.225,-25.172,-20.795,-16.955,16.524,-44.2,50.888,-43.361,47.202,-42.633,51.476,-31.962,1.7316,-50.055
24.143,-48.475,11.472,-25.292,-20.551,-17.135,16.565,-44.148,50.896,-43.409,47.138,-42.653,51.305,-31.905,1.6508,-49.963
24.436,-48.634,11.718,-25.41,-20.308,-17.312,16.605,-44.094,50.902,-43.455,47.072,-42.673,51.133,-31.848,1.5699,-49.872
24.436,-48.634,11.718,-25.41,-20.308,-17.312,16.605,-44.094,50.902,-43.455,47.072,-42.673,51.133,-31.848,1.5699,-49.872
24.436,-48.634,11.718,-25.41,-20.308,-17.312,16.605,-44.094,50.902,-43.455,47.072,-42.673,51.133,-31.848,1.5699,-49.872
24.725,-48.789,11.961,-25.526,-20.068,-17.488,16.643,-44.039,50.906,-43.5,47.006,-42.691,50.96,-31.789,1.4889,-49.779
24.725,-48.789,11.961,-25.526,-20.068,-17.488,16.643,-44.039,50.906,-43.5,47.006,-42.691,50.96,-31.789,1.4889,-49.779
24.725,-48.789,11.961,-25.526,-20.068,-17.488,16.643,-44.039,50.906,-43.5,47.006,-42.691,50.96,-31.789,1.4889,-49.779
25.011,-48.943,12.203,-25.642,-19.829,-17.663,16.679,-43.983,50.909,-43.544,46.939,-42.708,50.786,-31.73,1.4078,-49.686
25.294,-49.093,12.442,-25.755,-19.592,-17.835,16.714,-43.926,50.91,-43.586,46.872,-42.725,50.611,-31.67,1.3265,-49.591
25.294,-49.093,12.442,-25.755,-19.592,-17.835,16.714,-43.926,50.91,-43.586,46.872,-42.725,50.611,-31.67,1.3265,-49.591
25.573,-49.241,12.679,-25.867,-19.357,-18.006,16.748,-43.867,50.909,-43.627,46.803,-42.74,50.435,-31.609,1.2451,-49.497
25.573,-49.241,12.679,-25.867,-19.357,-18.006,16.748,-43.867,50.909,-43.627,46.803,-42.74,50.435,-31.609,1.2451,-49.497
25.849,-49.387,12.914,-25.977,-19.124,-18.174,16.78,-43.808,50.907,-43.667,46.734,-42.755,50.258,-31.547,1.1636,-49.401
25.849,-49.387,12.914,-25.977,-19.124,-18.174,16.78,-43.808,50.907,-43.667,46.734,-42.755,50.258,-31.547,1.1636,-49.401
26.121,-49.53,13.147,-26.086,-18.893,-18.341,16.811,-43.746,50.903,-43.705,46.664,-42.768,50.08,-31.485,1.0821,-49.305
26.121,-49.53,13.147,-26.086,-18.893,-18.341,16.811,-43.746,50.903,-43.705,46.664,-42.768,50.08,-31.485,1.0821,-49.305
26.121,-49.53,13.147,-26.086,-18.893,-18.341,16.811,-43.746,50.903,-43.705,46.664,-42.768,50.08,-31.485,1.0821,-49.305
26.39,-49.671,13.378,-26.193,-18.663,-18.507,16.841,-43.684,50.897,-43.742,46.593,-42.781,49.901,-31.422,1.0004,-49.208
26.656,-49.809,13.606,-26.298,-18.436,-18.67,16.869,-43.621,50.89,-43.778,46.522,-42.792,49.721,-31.358,0.91855,-49.111
26.656,-49.809,13.606,-26.298,-18.436,-18.67,16.869,-43.621,50.89,-43.778,46.522,-42.792,49.721,-31.358,0.91855,-49.111
26.919,-49.945,13.833,-26.402,-18.21,-18.831,16.896,-43.556,50.881,-43.812,46.449,-42.803,49.54,-31.293,0.83665,-49.012
26.919,-49.945,13.833,-26.402,-18.21,-18.831,16.896,-43.556,50.881,-43.812,46.449,-42.803,49.54,-31.293,0.83665,-49.012
26.919,-49.945,13.833,-26.402,-18.21,-18.831,16.896,-43.556,50.881,-43.812,46.449,-42.803,49.54,-31.293,0.83665,-49.012
26.919,-49.945,13.833,-26.402,-18.21,-18.831,16.896,-43.556,50.881,-43.812,46.449,-42.803,49.54,-31.293,0.83665,-49.012
27.433,-50.208,14.279,-26.605,-17.764,-19.149,16.946,-43.423,50.859,-43.877,46.302,-42.821,49.176,-31.161,0.67258,-48.814
27.433,-50.208,14.279,-26.605,-17.764,-19.149,16.946,-43.423,50.859,-43.877,46.302,-42.821,49.176,-31.161,0.67258,-48.814
27.686,-50.337,14.499,-26.704,-17.543,-19.305,16.969,-43.355,50.845,-43.907,46.228,-42.829,48.992,-31.094,0.59041,-48.714
27.686,-50.337,14.499,-26.704,-17.543,-19.305,16.969,-43.355,50.845,-43.907,46.228,-42.829,48.992,-31.094,0.59041,-48.714
27.686,-50.337,14.499,-26.704,-17.543,-19.305,16.969,-43.355,50.845,-43.907,46.228,-42.829,48.992,-31.094,0.59041,-48.714
27.935,-50.462,14.716,-26.801,-17.325,-19.46,16.991,-43.286,50.83,-43.936,46.152,-42.835,48.808,-31.027,0.50816,-48.613
27.935,-50.462,14.716,-26.801,-17.325,-19.46,16.991,-43.286,50.83,-43.936,46.152,-42.835,48.808,-31.027,0.50816,-48.613
28.423,-50.707,15.145,-26.992,-16.894,-19.763,17.031,-43.145,50.795,-43.991,45.999,-42.846,48.437,-30.889,0.34344,-48.41
28.423,-50.707,15.145,-26.992,-16.894,-19.763,17.031,-43.145,50.795,-43.991,45.999,-42.846,48.437,-30.889,0.34344,-48.41
28.423,-50.707,15.145,-26.992,-16.894,-19.763,17.031,-43.145,50.795,-43.991,45.999,-42.846,48.437,-30.889,0.34344,-48.41
28.662,-50.825,15.356,-27.084,-16.681,-19.912,17.049,-43.072,50.775,-44.016,45.921,-42.85,48.25,-30.82,0.26097,-48.307
28.662,-50.825,15.356,-27.084,-16.681,-19.912,17.049,-43.072,50.775,-44.016,45.921,-42.85,48.25,-30.82,0.26097,-48.307
28.662,-50.825,15.356,-27.084,-16.681,-19.912,17.049,-43.072,50.775,-44.016,45.921,-42.85,48.25,-30.82,0.26097,-48.307
28.897,-50.941,15.565,-27.175,-16.47,-20.059,17.066,-42.999,50.754,-44.04,45.843,-42.853,48.063,-30.749,0.17844,-48.204
28.897,-50.941,15.565,-27.175,-16.47,-20.059,17.066,-42.999,50.754,-44.04,45.843,-42.853,48.063,-30.749,0.17844,-48.204
29.129,-51.055,15.771,-27.265,-16.261,-20.204,17.082,-42.924,50.731,-44.064,45.763,-42.855,47.874,-30.678,0.09584,-48.1
29.129,-51.055,15.771,-27.265,-16.261,-20.204,17.082,-42.924,50.731,-44.064,45.763,-42.855,47.874,-30.678,0.09584,-48.1
29.129,-51.055,15.771,-27.265,-16.261,-20.204,17.082,-42.924,50.731,-44.064,45.763,-42.855,47.874,-30.678,0.09584,-48.1
29.584,-51.275,16.178,-27.439,-15.848,-20.49,17.11,-42.772,50.682,-44.106,45.603,-42.856,47.496,-30.535,-0.069527,-47.89
29.584,-51.275,16.178,-27.439,-15.848,-20.49,17.11,-42.772,50.682,-44.106,45.603,-42.856,47.496,-30.535,-0.069527,-47.89
29.806,-51.381,16.378,-27.524,-15.645,-20.63,17.123,-42.694,50.654,-44.126,45.521,-42.855,47.305,-30.462,-0.15229,-47.785
29.806,-51.381,16.378,-27.524,-15.645,-20.63,17.123,-42.694,50.654,-44.126,45.521,-42.855,47.305,-30.462,-0.15229,-47.785
30.025,-51.486,16.575,-27.607,-15.443,-20.768,17.134,-42.616,50.626,-44.144,45.439,-42.854,47.114,-30.389,-0.2351,-47.679
30.025,-51.486,16.575,-27.607,-15.443,-20.768,17.134,-42.616,50.626,-44.144,45.439,-42.854,47.114,-30.389,-0.2351,-47.679
30.241,-51.587,16.771,-27.689,-15.244,-20.904,17.144,-42.536,50.596,-44.161,45.356,-42.851,46.922,-30.315,-0.31795,-47.572
30.241,-51.587,16.771,-27.689,-15.244,-20.904,17.144,-42.536,50.596,-44.161,45.356,-42.851,46.922,-30.315,-0.31795,-47.572
30.454,-51.687,16.964,-27.769,-15.046,-21.039,17.153,-42.456,50.564,-44.177,45.272,-42.848,46.729,-30.24,-0.40085,-47.465
30.454,-51.687,16.964,-27.769,-15.046,-21.039,17.153,-42.456,50.564,-44.177,45.272,-42.848,46.729,-30.24,-0.40085,-47.465
30.663,-51.784,17.155,-27.848,-14.85,-21.172,17.161,-42.374,50.531,-44.192,45.187,-42.843,46.536,-30.165,-0.48378,-47.357
30.663,-51.784,17.155,-27.848,-14.85,-21.172,17.161,-42.374,50.531,-44.192,45.187,-42.843,46.536,-30.165,-0.48378,-47.357
30.663,-51.784,17.155,-27.848,-14.85,-21.172,17.161,-42.374,50.531,-44.192,45.187,-42.843,46.536,-30.165,-0.48378,-47.357
30.663,-51.784,17.155,-27.848,-14.85,-21.172,17.161,-42.374,50.531,-44.192,45.187,-42.843,46.536,-30.165,-0.48378,-47.357
31.071,-51.971,17.53,-28,-14.463,-21.432,17.175,-42.209,50.461,-44.219,45.016,-42.832,46.148,-30.013,-0.64975,-47.14
31.071,-51.971,17.53,-28,-14.463,-21.432,17.175,-42.209,50.461,-44.219,45.016,-42.832,46.148,-30.013,-0.64975,-47.14
31.071,-51.971,17.53,-28,-14.463,-21.432,17.175,-42.209,50.461,-44.219,45.016,-42.832,46.148,-30.013,-0.64975,-47.14
31.271,-52.062,17.714,-28.074,-14.272,-21.56,17.18,-42.125,50.424,-44.231,44.929,-42.825,45.953,-29.937,-0.73277,-47.031
31.271,-52.062,17.714,-28.074,-14.272,-21.56,17.18,-42.125,50.424,-44.231,44.929,-42.825,45.953,-29.937,-0.73277,-47.031
31.467,-52.15,17.896,-28.147,-14.084,-21.686,17.184,-42.04,50.385,-44.241,44.842,-42.816,45.757,-29.86,-0.81582,-46.921
31.467,-52.15,17.896,-28.147,-14.084,-21.686,17.184,-42.04,50.385,-44.241,44.842,-42.816,45.757,-29.86,-0.81582,-46.921
31.849,-52.319,18.252,-28.287,-13.712,-21.932,17.189,-41.867,50.304,-44.259,44.665,-42.798,45.364,-29.704,-0.98197,-46.7
31.849,-52.319,18.252,-28.287,-13.712,-21.932,17.189,-41.867,50.304,-44.259,44.665,-42.798,45.364,-29.704,-0.98197,-46.7
31.849,-52.319,18.252,-28.287,-13.712,-21.932,17.189,-41.867,50.304,-44.259,44.665,-42.798,45.364,-29.704,-0.98197,-46.7
32.036,-52.4,18.427,-28.355,-13.529,-22.053,17.191,-41.779,50.261,-44.267,44.575,-42.787,45.167,-29.626,-1.0651,-46.588
32.036,-52.4,18.427,-28.355,-13.529,-22.053,17.191,-41.779,50.261,-44.267,44.575,-42.787,45.167,-29.626,-1.0651,-46.588
32.219,-52.479,18.6,-28.421,-13.347,-22.171,17.191,-41.691,50.217,-44.273,44.484,-42.776,44.969,-29.547,-1.1482,-46.477
32.219,-52.479,18.6,-28.421,-13.347,-22.171,17.191,-41.691,50.217,-44.273,44.484,-42.776,44.969,-29.547,-1.1482,-46.477
32.399,-52.556,18.771,-28.486,-13.168,-22.289,17.191,-41.602,50.172,-44.279,44.393,-42.763,44.771,-29.467,-1.2313,-46.364
32.575,-52.63,18.939,-28.549,-12.99,-22.404,17.189,-41.512,50.126,-44.283,44.301,-42.75,44.572,-29.387,-1.3144,-46.252
32.575,-52.63,18.939,-28.549,-12.99,-22.404,17.189,-41.512,50.126,-44.283,44.301,-42.75,44.572,-29.387,-1.3144,-46.252
32.749,-52.703,19.104,-28.611,-12.815,-22.518,17.187,-41.421,50.078,-44.287,44.209,-42.736,44.373,-29.307,-1.3975,-46.139
32.749,-52.703,19.104,-28.611,-12.815,-22.518,17.187,-41.421,50.078,-44.287,44.209,-42.736,44.373,-29.307,-1.3975,-46.139
32.749,-52.703,19.104,-28.611,-12.815,-22.518,17.187,-41.421,50.078,-44.287,44.209,-42.736,44.373,-29.307,-1.3975,-46.139
32.919,-52.773,19.268,-28.671,-12.641,-22.629,17.184,-41.329,50.029,-44.289,44.115,-42.721,44.173,-29.227,-1.4807,-46.025
32.919,-52.773,19.268,-28.671,-12.641,-22.629,17.184,-41.329,50.029,-44.289,44.115,-42.721,44.173,-29.227,-1.4807,-46.025
32.919,-52.773,19.268,-28.671,-12.641,-22.629,17.184,-41.329,50.029,-44.289,44.115,-42.721,44.173,-29.227,-1.4807,-46.025
33.087,-52.841,19.429,-28.73,-12.469,-22.74,17.181,-41.237,49.978,-44.291,44.021,-42.705,43.973,-29.146,-1.5638,-45.911
33.087,-52.841,19.429,-28.73,-12.469,-22.74,17.181,-41.237,49.978,-44.291,44.021,-42.705,43.973,-29.146,-1.5638,-45.911
33.087,-52.841,19.429,-28.73,-12.469,-22.74,17.181,-41.237,49.978,-44.291,44.021,-42.705,43.973,-29.146,-1.5638,-45.911
33.412,-52.97,19.745,-28.843,-12.13,-22.955,17.171,-41.05,49.874,-44.291,43.831,-42.671,43.572,-28.982,-1.73,-45.682
33.412,-52.97,19.745,-28.843,-12.13,-22.955,17.171,-41.05,49.874,-44.291,43.831,-42.671,43.572,-28.982,-1.73,-45.682
33.569,-53.032,19.899,-28.897,-11.963,-23.06,17.165,-40.956,49.819,-44.29,43.735,-42.653,43.37,-28.9,-1.8131,-45.567
33.569,-53.032,19.899,-28.897,-11.963,-23.06,17.165,-40.956,49.819,-44.29,43.735,-42.653,43.37,-28.9,-1.8131,-45.567
33.569,-53.032,19.899,-28.897,-11.963,-23.06,17.165,-40.956,49.819,-44.29,43.735,-42.653,43.37,-28.9,-1.8131,-45.567
33.724,-53.092,20.051,-28.95,-11.798,-23.163,17.158,-40.861,49.764,-44.288,43.638,-42.634,43.168,-28.818,-1.8962,-45.451
33.875,-53.149,20.201,-29.001,-11.635,-23.265,17.151,-40.765,49.708,-44.285,43.541,-42.614,42.966,-28.735,-1.9792,-45.336
33.875,-53.149,20.201,-29.001,-11.635,-23.265,17.151,-40.765,49.708,-44.285,43.541,-42.614,42.966,-28.735,-1.9792,-45.336
34.024,-53.204,20.349,-29.051,-11.474,-23.365,17.143,-40.668,49.65,-44.281,43.442,-42.593,42.764,-28.652,-2.0622,-45.219
34.024,-53.204,20.349,-29.051,-11.474,-23.365,17.143,-40.668,49.65,-44.281,43.442,-42.593,42.764,-28.652,-2.0622,-45.219
34.024,-53.204,20.349,-29.051,-11.474,-23.365,17.143,-40.668,49.65,-44.281,43.442,-42.593,42.764,-28.652,-2.0622,-45.219
34.169,-53.257,20.494,-29.1,-11.314,-23.463,17.134,-40.571,49.591,-44.277,43.344,-42.571,42.561,-28.569,-2.1452,-45.103
34.169,-53.257,20.494,-29.1,-11.314,-23.463,17.134,-40.571,49.591,-44.277,43.344,-42.571,42.561,-28.569,-2.1452,-45.103
34.169,-53.257,20.494,-29.1,-11.314,-23.463,17.134,-40.571,49.591,-44.277,43.344,-42.571,42.561,-28.569,-2.1452,-45.103
34.451,-53.358,20.778,-29.192,-11.001,-23.655,17.115,-40.375,49.47,-44.265,43.144,-42.526,42.155,-28.401,-2.3112,-44.868
34.451,-53.358,20.778,-29.192,-11.001,-23.655,17.115,-40.375,49.47,-44.265,43.144,-42.526,42.155,-28.401,-2.3112,-44.868
34.451,-53.358,20.778,-29.192,-11.001,-23.655,17.115,-40.375,49.47,-44.265,43.144,-42.526,42.155,-28.401,-2.3112,-44.868
34.587,-53.405,20.916,-29.236,-10.847,-23.748,17.104,-40.276,49.407,-44.257,43.043,-42.502,41.951,-28.317,-2.3941,-44.751
34.587,-53.405,20.916,-29.236,-10.847,-23.748,17.104,-40.276,49.407,-44.257,43.043,-42.502,41.951,-28.317,-2.3941,-44.751
34.72,-53.45,21.052,-29.279,-10.695,-23.84,17.093,-40.177,49.344,-44.249,42.941,-42.477,41.747,-28.232,-2.477,-44.633
34.72,-53.45,21.052,-29.279,-10.695,-23.84,17.093,-40.177,49.344,-44.249,42.941,-42.477,41.747,-28.232,-2.477,-44.633
34.72,-53.45,21.052,-29.279,-10.695,-23.84,17.093,-40.177,49.344,-44.249,42.941,-42.477,41.747,-28.232,-2.477,-44.633
34.977,-53.534,21.317,-29.36,-10.395,-24.018,17.069,-39.976,49.214,-44.231,42.736,-42.425,41.339,-28.063,-2.6426,-44.396
34.977,-53.534,21.317,-29.36,-10.395,-24.018,17.069,-39.976,49.214,-44.231,42.736,-42.425,41.339,-28.063,-2.6426,-44.396
35.101,-53.573,21.447,-29.398,-10.248,-24.105,17.056,-39.875,49.147,-44.221,42.632,-42.398,41.134,-27.978,-2.7254,-44.277
35.101,-53.573,21.447,-29.398,-10.248,-24.105,17.056,-39.875,49.147,-44.221,42.632,-42.398,41.134,-27.978,-2.7254,-44.277
35.222,-53.61,21.574,-29.435,-10.103,-24.19,17.042,-39.773,49.079,-44.209,42.528,-42.37,40.929,-27.892,-2.8081,-44.157
35.222,-53.61,21.574,-29.435,-10.103,-24.19,17.042,-39.773,49.079,-44.209,42.528,-42.37,40.929,-27.892,-2.8081,-44.157
35.34,-53.645,21.698,-29.471,-9.9595,-24.274,17.029,-39.671,49.011,-44.198,42.423,-42.342,40.724,-27.807,-2.8908,-44.038
35.34,-53.645,21.698,-29.471,-9.9595,-24.274,17.029,-39.671,49.011,-44.198,42.423,-42.342,40.724,-27.807,-2.8908,-44.038
35.456,-53.679,21.821,-29.505,-9.8178,-24.355,17.014,-39.568,48.941,-44.185,42.318,-42.312,40.519,-27.721,-2.9734,-43.918
35.568,-53.71,21.941,-29.538,-9.6778,-24.436,16.999,-39.465,48.87,-44.172,42.212,-42.282,40.314,-27.635,-3.0559,-43.798
35.568,-53.71,21.941,-29.538,-9.6778,-24.436,16.999,-39.465,48.87,-44.172,42.212,-42.282,40.314,-27.635,-3.0559,-43.798
35.568,-53.71,21.941,-29.538,-9.6778,-24.436,16.999,-39.465,48.87,-44.172,42.212,-42.282,40.314,-27.635,-3.0559,-43.798
35.677,-53.739,22.059,-29.569,-9.5396,-24.514,16.984,-39.361,48.798,-44.157,42.105,-42.252,40.108,-27.549,-3.1385,-43.678
35.677,-53.739,22.059,-29.569,-9.5396,-24.514,16.984,-39.361,48.798,-44.157,42.105,-42.252,40.108,-27.549,-3.1385,-43.678
35.677,-53.739,22.059,-29.569,-9.5396,-24.514,16.984,-39.361,48.798,-44.157,42.105,-42.252,40.108,-27.549,-3.1385,-43.678
35.784,-53.767,22.175,-29.599,-9.4031,-24.591,16.969,-39.257,48.725,-44.143,41.997,-42.22,39.903,-27.463,-3.2209,-43.557
35.887,-53.793,22.288,-29.628,-9.2683,-24.667,16.953,-39.152,48.652,-44.127,41.889,-42.188,39.697,-27.376,-3.3033,-43.437
35.887,-53.793,22.288,-29.628,-9.2683,-24.667,16.953,-39.152,48.652,-44.127,41.889,-42.188,39.697,-27.376,-3.3033,-43.437
35.988,-53.816,22.399,-29.656,-9.1352,-24.74,16.936,-39.047,48.577,-44.111,41.781,-42.155,39.491,-27.29,-3.3857,-43.316
36.086,-53.838,22.508,-29.681,-9.0039,-24.813,16.919,-38.942,48.501,-44.094,41.672,-42.121,39.285,-27.203,-3.4679,-43.194
36.086,-53.838,22.508,-29.681,-9.0039,-24.813,16.919,-38.942,48.501,-44.094,41.672,-42.121,39.285,-27.203,-3.4679,-43.194
36.086,-53.838,22.508,-29.681,-9.0039,-24.813,16.919,-38.942,48.501,-44.094,41.672,-42.121,39.285,-27.203,-3.4679,-43.194
36.18,-53.858,22.615,-29.706,-8.8743,-24.883,16.902,-38.836,48.424,-44.077,41.562,-42.087,39.079,-27.116,-3.5502,-43.073
36.18,-53.858,22.615,-29.706,-8.8743,-24.883,16.902,-38.836,48.424,-44.077,41.562,-42.087,39.079,-27.116,-3.5502,-43.073
36.18,-53.858,22.615,-29.706,-8.8743,-24.883,16.902,-38.836,48.424,-44.077,41.562,-42.087,39.079,-27.116,-3.5502,-43.073
36.273,-53.877,22.719,-29.729,-8.7463,-24.952,16.885,-38.73,48.347,-44.059,41.451,-42.052,38.873,-27.029,-3.6323,-42.951
36.273,-53.877,22.719,-29.729,-8.7463,-24.952,16.885,-38.73,48.347,-44.059,41.451,-42.052,38.873,-27.029,-3.6323,-42.951
36.273,-53.877,22.719,-29.729,-8.7463,-24.952,16.885,-38.73,48.347,-44.059,41.451,-42.052,38.873,-27.029,-3.6323,-42.951
36.448,-53.908,22.922,-29.772,-8.4956,-25.086,16.849,-38.516,48.189,-44.021,41.229,-41.98,38.461,-26.855,-3.7964,-42.708
36.448,-53.908,22.922,-29.772,-8.4956,-25.086,16.849,-38.516,48.189,-44.021,41.229,-41.98,38.461,-26.855,-3.7964,-42.708
36.532,-53.921,23.019,-29.791,-8.3727,-25.15,16.831,-38.409,48.109,-44.001,41.116,-41.943,38.255,-26.768,-3.8784,-42.585
36.532,-53.921,23.019,-29.791,-8.3727,-25.15,16.831,-38.409,48.109,-44.001,41.116,-41.943,38.255,-26.768,-3.8784,-42.585
36.613,-53.932,23.115,-29.809,-8.2515,-25.213,16.812,-38.301,48.028,-43.981,41.004,-41.905,38.049,-26.681,-3.9602,-42.463
36.613,-53.932,23.115,-29.809,-8.2515,-25.213,16.812,-38.301,48.028,-43.981,41.004,-41.905,38.049,-26.681,-3.9602,-42.463
36.613,-53.932,23.115,-29.809,-8.2515,-25.213,16.812,-38.301,48.028,-43.981,41.004,-41.905,38.049,-26.681,-3.9602,-42.463
36.691,-53.941,23.208,-29.826,-8.132,-25.275,16.793,-38.194,47.946,-43.959,40.89,-41.866,37.843,-26.594,-4.042,-42.341
36.767,-53.949,23.3,-29.842,-8.0141,-25.334,16.774,-38.085,47.864,-43.938,40.776,-41.827,37.637,-26.506,-4.1238,-42.218
36.839,-53.955,23.389,-29.856,-7.8979,-25.393,16.755,-37.977,47.78,-43.916,40.662,-41.788,37.431,-26.419,-4.2054,-42.095
36.839,-53.955,23.389,-29.856,-7.8979,-25.393,16.755,-37.977,47.78,-43.916,40.662,-41.788,37.431,-26.419,-4.2054,-42.095
36.839,-53.955,23.389,-29.856,-7.8979,-25.393,16.755,-37.977,47.78,-43.916,40.662,-41.788,37.431,-26.419,-4.2054,-42.095
36.909,-53.959,23.475,-29.869,-7.7834,-25.449,16.736,-37.868,47.696,-43.893,40.547,-41.747,37.225,-26.332,-4.287,-41.972
36.909,-53.959,23.475,-29.869,-7.7834,-25.449,16.736,-37.868,47.696,-43.893,40.547,-41.747,37.225,-26.332,-4.287,-41.972
36.977,-53.962,23.56,-29.88,-7.6705,-25.505,16.716,-37.759,47.611,-43.87,40.431,-41.706,37.019,-26.244,-4.3685,-41.849
36.977,-53.962,23.56,-29.88,-7.6705,-25.505,16.716,-37.759,47.611,-43.87,40.431,-41.706,37.019,-26.244,-4.3685,-41.849
36.977,-53.962,23.56,-29.88,-7.6705,-25.505,16.716,-37.759,47.611,-43.87,40.431,-41.706,37.019,-26.244,-4.3685,-41.849
37.041,-53.963,23.643,-29.891,-7.5592,-25.558,16.696,-37.65,47.525,-43.846,40.315,-41.665,36.813,-26.157,-4.4499,-41.726
37.041,-53.963,23.643,-29.891,-7.5592,-25.558,16.696,-37.65,47.525,-43.846,40.315,-41.665,36.813,-26.157,-4.4499,-41.726
37.163,-53.959,23.801,-29.908,-7.3415,-25.661,16.657,-37.43,47.351,-43.797,40.081,-41.58,36.402,-25.982,-4.6125,-41.479
37.163,-53.959,23.801,-29.908,-7.3415,-25.661,16.657,-37.43,47.351,-43.797,40.081,-41.58,36.402,-25.982,-4.6125,-41.479
37.163,-53.959,23.801,-29.908,-7.3415,-25.661,16.657,-37.43,47.351,-43.797,40.081,-41.58,36.402,-25.982,-4.6125,-41.479
37.22,-53.955,23.877,-29.914,-7.2351,-25.711,16.637,-37.321,47.263,-43.772,39.964,-41.536,36.196,-25.895,-4.6936,-41.356
37.22,-53.955,23.877,-29.914,-7.2351,-25.711,16.637,-37.321,47.263,-43.772,39.964,-41.536,36.196,-25.895,-4.6936,-41.356
37.274,-53.95,23.951,-29.92,-7.1303,-25.759,16.617,-37.21,47.174,-43.746,39.845,-41.492,35.991,-25.807,-4.7747,-41.232
37.274,-53.95,23.951,-29.92,-7.1303,-25.759,16.617,-37.21,47.174,-43.746,39.845,-41.492,35.991,-25.807,-4.7747,-41.232
37.274,-53.95,23.951,-29.92,-7.1303,-25.759,16.617,-37.21,47.174,-43.746,39.845,-41.492,35.991,-25.807,-4.7747,-41.232
37.326,-53.943,24.023,-29.924,-7.0271,-25.805,16.596,-37.1,47.085,-43.72,39.727,-41.448,35.786,-25.72,-4.8557,-41.109
37.326,-53.943,24.023,-29.924,-7.0271,-25.805,16.596,-37.1,47.085,-43.72,39.727,-41.448,35.786,-25.72,-4.8557,-41.109
37.375,-53.934,24.092,-29.927,-6.9255,-25.85,16.576,-36.99,46.995,-43.694,39.607,-41.403,35.581,-25.633,-4.9366,-40.985
37.375,-53.934,24.092,-29.927,-6.9255,-25.85,16.576,-36.99,46.995,-43.694,39.607,-41.403,35.581,-25.633,-4.9366,-40.985
37.465,-53.911,24.225,-29.929,-6.727,-25.935,16.536,-36.768,46.813,-43.639,39.368,-41.311,35.171,-25.458,-5.0981,-40.737
37.465,-53.911,24.225,-29.929,-6.727,-25.935,16.536,-36.768,46.813,-43.639,39.368,-41.311,35.171,-25.458,-5.0981,-40.737
37.465,-53.911,24.225,-29.929,-6.727,-25.935,16.536,-36.768,46.813,-43.639,39.368,-41.311,35.171,-25.458,-5.0981,-40.737
37.507,-53.898,24.288,-29.929,-6.6301,-25.976,16.516,-36.657,46.721,-43.612,39.247,-41.264,34.967,-25.371,-5.1787,-40.613
37.507,-53.898,24.288,-29.929,-6.6301,-25.976,16.516,-36.657,46.721,-43.612,39.247,-41.264,34.967,-25.371,-5.1787,-40.613
37.546,-53.883,24.349,-29.927,-6.5348,-26.015,16.496,-36.546,46.628,-43.584,39.126,-41.217,34.762,-25.284,-5.2593,-40.49
37.546,-53.883,24.349,-29.927,-6.5348,-26.015,16.496,-36.546,46.628,-43.584,39.126,-41.217,34.762,-25.284,-5.2593,-40.49
37.582,-53.867,24.408,-29.924,-6.441,-26.053,16.475,-36.435,46.535,-43.555,39.004,-41.169,34.558,-25.197,-5.3397,-40.366
37.617,-53.849,24.466,-29.92,-6.3488,-26.089,16.455,-36.324,46.441,-43.526,38.882,-41.12,34.355,-25.111,-5.42,-40.242
37.617,-53.849,24.466,-29.92,-6.3488,-26.089,16.455,-36.324,46.441,-43.526,38.882,-41.12,34.355,-25.111,-5.42,-40.242
37.648,-53.829,24.52,-29.915,-6.2581,-26.124,16.435,-36.213,46.347,-43.497,38.759,-41.071,34.151,-25.024,-5.5003,-40.118
37.648,-53.829,24.52,-29.915,-6.2581,-26.124,16.435,-36.213,46.347,-43.497,38.759,-41.071,34.151,-25.024,-5.5003,-40.118
37.648,-53.829,24.52,-29.915,-6.2581,-26.124,16.435,-36.213,46.347,-43.497,38.759,-41.071,34.151,-25.024,-5.5003,-40.118
37.678,-53.808,24.573,-29.909,-6.1689,-26.158,16.416,-36.101,46.252,-43.467,38.637,-41.022,33.948,-24.937,-5.5805,-39.994
37.678,-53.808,24.573,-29.909,-6.1689,-26.158,16.416,-36.101,46.252,-43.467,38.637,-41.022,33.948,-24.937,-5.5805,-39.994
37.678,-53.808,24.573,-29.909,-6.1689,-26.158,16.416,-36.101,46.252,-43.467,38.637,-41.022,33.948,-24.937,-5.5805,-39.994
37.705,-53.786,24.624,-29.901,-6.0813,-26.19,16.396,-35.99,46.157,-43.437,38.513,-40.972,33.745,-24.851,-5.6605,-39.87
37.705,-53.786,24.624,-29.901,-6.0813,-26.19,16.396,-35.99,46.157,-43.437,38.513,-40.972,33.745,-24.851,-5.6605,-39.87
37.729,-53.762,24.673,-29.893,-5.9951,-26.221,16.376,-35.878,46.061,-43.407,38.389,-40.921,33.542,-24.764,-5.7405,-39.746
37.729,-53.762,24.673,-29.893,-5.9951,-26.221,16.376,-35.878,46.061,-43.407,38.389,-40.921,33.542,-24.764,-5.7405,-39.746
37.729,-53.762,24.673,-29.893,-5.9951,-26.221,16.376,-35.878,46.061,-43.407,38.389,-40.921,33.542,-24.764,-5.7405,-39.746
37.771,-53.711,24.765,-29.872,-5.8273,-26.278,16.337,-35.655,45.868,-43.345,38.14,-40.819,33.137,-24.592,-5.9001,-39.498
37.771,-53.711,24.765,-29.872,-5.8273,-26.278,16.337,-35.655,45.868,-43.345,38.14,-40.819,33.137,-24.592,-5.9001,-39.498
37.789,-53.683,24.808,-29.861,-5.7457,-26.305,16.318,-35.544,45.77,-43.314,38.015,-40.767,32.936,-24.506,-5.9798,-39.374
37.789,-53.683,24.808,-29.861,-5.7457,-26.305,16.318,-35.544,45.77,-43.314,38.015,-40.767,32.936,-24.506,-5.9798,-39.374
37.789,-53.683,24.808,-29.861,-5.7457,-26.305,16.318,-35.544,45.77,-43.314,38.015,-40.767,32.936,-24.506,-5.9798,-39.374
37.804,-53.653,24.848,-29.848,-5.6655,-26.33,16.299,-35.432,45.672,-43.283,37.89,-40.715,32.734,-24.42,-6.0594,-39.25
37.804,-53.653,24.848,-29.848,-5.6655,-26.33,16.299,-35.432,45.672,-43.283,37.89,-40.715,32.734,-24.42,-6.0594,-39.25
37.804,-53.653,24.848,-29.848,-5.6655,-26.33,16.299,-35.432,45.672,-43.283,37.89,-40.715,32.734,-24.42,-6.0594,-39.25
37.828,-53.591,24.924,-29.819,-5.5096,-26.377,16.262,-35.209,45.475,-43.219,37.638,-40.608,32.332,-24.249,-6.2183,-39.003
37.828,-53.591,24.924,-29.819,-5.5096,-26.377,16.262,-35.209,45.475,-43.219,37.638,-40.608,32.332,-24.249,-6.2183,-39.003
37.837,-53.558,24.959,-29.803,-5.4338,-26.398,16.244,-35.098,45.376,-43.187,37.511,-40.555,32.132,-24.164,-6.2975,-38.879
37.837,-53.558,24.959,-29.803,-5.4338,-26.398,16.244,-35.098,45.376,-43.187,37.511,-40.555,32.132,-24.164,-6.2975,-38.879
37.843,-53.523,24.992,-29.786,-5.3594,-26.418,16.226,-34.986,45.277,-43.154,37.384,-40.5,31.931,-24.079,-6.3767,-38.756
37.843,-53.523,24.992,-29.786,-5.3594,-26.418,16.226,-34.986,45.277,-43.154,37.384,-40.5,31.931,-24.079,-6.3767,-38.756
37.848,-53.487,25.023,-29.767,-5.2865,-26.437,16.208,-34.875,45.177,-43.122,37.256,-40.446,31.732,-23.994,-6.4558,-38.632
37.848,-53.487,25.023,-29.767,-5.2865,-26.437,16.208,-34.875,45.177,-43.122,37.256,-40.446,31.732,-23.994,-6.4558,-38.632
37.85,-53.45,25.052,-29.748,-5.215,-26.455,16.191,-34.764,45.076,-43.089,37.129,-40.391,31.532,-23.909,-6.5348,-38.509
37.85,-53.412,25.08,-29.728,-5.145,-26.471,16.173,-34.652,44.976,-43.056,37.001,-40.335,31.333,-23.825,-6.6137,-38.386
37.85,-53.412,25.08,-29.728,-5.145,-26.471,16.173,-34.652,44.976,-43.056,37.001,-40.335,31.333,-23.825,-6.6137,-38.386
37.85,-53.412,25.08,-29.728,-5.145,-26.471,16.173,-34.652,44.976,-43.056,37.001,-40.335,31.333,-23.825,-6.6137,-38.386
37.848,-53.372,25.105,-29.707,-5.0763,-26.486,16.157,-34.541,44.875,-43.022,36.872,-40.28,31.135,-23.741,-6.6925,-38.263
37.848,-53.372,25.105,-29.707,-5.0763,-26.486,16.157,-34.541,44.875,-43.022,36.872,-40.28,31.135,-23.741,-6.6925,-38.263
37.843,-53.331,25.129,-29.685,-5.0091,-26.499,16.14,-34.43,44.773,-42.989,36.743,-40.223,30.937,-23.657,-6.7712,-38.139
37.843,-53.331,25.129,-29.685,-5.0091,-26.499,16.14,-34.43,44.773,-42.989,36.743,-40.223,30.937,-23.657,-6.7712,-38.139
37.843,-53.331,25.129,-29.685,-5.0091,-26.499,16.14,-34.43,44.773,-42.989,36.743,-40.223,30.937,-23.657,-6.7712,-38.139
37.837,-53.289,25.15,-29.662,-4.9432,-26.512,16.124,-34.319,44.672,-42.955,36.614,-40.167,30.739,-23.573,-6.8498,-38.017
37.829,-53.246,25.17,-29.638,-4.8788,-26.523,16.108,-34.209,44.57,-42.921,36.485,-40.11,30.542,-23.489,-6.9283,-37.894
37.818,-53.201,25.188,-29.613,-4.8157,-26.532,16.093,-34.098,44.467,-42.887,36.355,-40.053,30.345,-23.406,-7.0067,-37.771
37.818,-53.201,25.188,-29.613,-4.8157,-26.532,16.093,-34.098,44.467,-42.887,36.355,-40.053,30.345,-23.406,-7.0067,-37.771
37.806,-53.156,25.204,-29.587,-4.754,-26.541,16.078,-33.987,44.365,-42.853,36.225,-39.995,30.149,-23.323,-7.085,-37.648
37.806,-53.156,25.204,-29.587,-4.754,-26.541,16.078,-33.987,44.365,-42.853,36.225,-39.995,30.149,-23.323,-7.085,-37.648
37.806,-53.156,25.204,-29.587,-4.754,-26.541,16.078,-33.987,44.365,-42.853,36.225,-39.995,30.149,-23.323,-7.085,-37.648
37.791,-53.109,25.218,-29.56,-4.6936,-26.548,16.063,-33.877,44.262,-42.819,36.095,-39.937,29.953,-23.24,-7.1632,-37.526
37.791,-53.109,25.218,-29.56,-4.6936,-26.548,16.063,-33.877,44.262,-42.819,36.095,-39.937,29.953,-23.24,-7.1632,-37.526
37.775,-53.061,25.231,-29.532,-4.6346,-26.555,16.049,-33.767,44.159,-42.784,35.964,-39.878,29.758,-23.157,-7.2413,-37.404
37.775,-53.061,25.231,-29.532,-4.6346,-26.555,16.049,-33.767,44.159,-42.784,35.964,-39.878,29.758,-23.157,-7.2413,-37.404
37.757,-53.012,25.241,-29.504,-4.5769,-26.56,16.035,-33.657,44.056,-42.75,35.834,-39.82,29.563,-23.075,-7.3193,-37.282
37.757,-53.012,25.241,-29.504,-4.5769,-26.56,16.035,-33.657,44.056,-42.75,35.834,-39.82,29.563,-23.075,-7.3193,-37.282
37.736,-52.962,25.25,-29.474,-4.5206,-26.563,16.022,-33.547,43.952,-42.715,35.702,-39.761,29.368,-22.992,-7.3972,-37.16
37.714,-52.911,25.258,-29.444,-4.4655,-26.566,16.009,-33.437,43.849,-42.68,35.571,-39.701,29.174,-22.91,-7.475,-37.038
37.714,-52.911,25.258,-29.444,-4.4655,-26.566,16.009,-33.437,43.849,-42.68,35.571,-39.701,29.174,-22.91,-7.475,-37.038
37.714,-52.911,25.258,-29.444,-4.4655,-26.566,16.009,-33.437,43.849,-42.68,35.571,-39.701,29.174,-22.91,-7.475,-37.038
37.69,-52.858,25.263,-29.412,-4.4118,-26.567,15.996,-33.328,43.745,-42.645,35.44,-39.642,28.981,-22.829,-7.5527,-36.916
37.69,-52.858,25.263,-29.412,-4.4118,-26.567,15.996,-33.328,43.745,-42.645,35.44,-39.642,28.981,-22.829,-7.5527,-36.916
37.664,-52.805,25.267,-29.38,-4.3594,-26.567,15.984,-33.219,43.641,-42.61,35.308,-39.582,28.788,-22.747,-7.6304,-36.795
37.664,-52.805,25.267,-29.38,-4.3594,-26.567,15.984,-33.219,43.641,-42.61,35.308,-39.582,28.788,-22.747,-7.6304,-36.795
37.636,-52.751,25.269,-29.347,-4.3083,-26.566,15.973,-33.11,43.537,-42.575,35.176,-39.521,28.596,-22.666,-7.7079,-36.674
37.636,-52.751,25.269,-29.347,-4.3083,-26.566,15.973,-33.11,43.537,-42.575,35.176,-39.521,28.596,-22.666,-7.7079,-36.674
37.607,-52.695,25.269,-29.313,-4.2585,-26.564,15.962,-33.001,43.432,-42.54,35.043,-39.461,28.404,-22.586,-7.7853,-36.553
37.607,-52.695,25.269,-29.313,-4.2585,-26.564,15.962,-33.001,43.432,-42.54,35.043,-39.461,28.404,-22.586,-7.7853,-36.553
37.575,-52.639,25.268,-29.278,-4.21,-26.561,15.951,-32.892,43.328,-42.505,34.911,-39.4,28.213,-22.505,-7.8627,-36.432
37.575,-52.639,25.268,-29.278,-4.21,-26.561,15.951,-32.892,43.328,-42.505,34.911,-39.4,28.213,-22.505,-7.8627,-36.432
37.575,-52.639,25.268,-29.278,-4.21,-26.561,15.951,-32.892,43.328,-42.505,34.911,-39.4,28.213,-22.505,-7.8627,-36.432
37.542,-52.582,25.264,-29.243,-4.1627,-26.556,15.942,-32.784,43.223,-42.47,34.778,-39.339,28.022,-22.425,-7.9399,-36.311
37.542,-52.582,25.264,-29.243,-4.1627,-26.556,15.942,-32.784,43.223,-42.47,34.778,-39.339,28.022,-22.425,-7.9399,-36.311
37.507,-52.523,25.26,-29.206,-4.1167,-26.551,15.932,-32.676,43.119,-42.435,34.645,-39.278,27.832,-22.345,-8.0171,-36.191
37.471,-52.464,25.253,-29.169,-4.072,-26.544,15.923,-32.568,43.014,-42.399,34.512,-39.216,27.642,-22.265,-8.0941,-36.071
37.471,-52.464,25.253,-29.169,-4.072,-26.544,15.923,-32.568,43.014,-42.399,34.512,-39.216,27.642,-22.265,-8.0941,-36.071
37.432,-52.404,25.245,-29.131,-4.0285,-26.536,15.915,-32.461,42.909,-42.364,34.379,-39.154,27.453,-22.186,-8.1711,-35.951
37.392,-52.342,25.236,-29.092,-3.9862,-26.527,15.907,-32.354,42.804,-42.329,34.245,-39.092,27.265,-22.107,-8.248,-35.831
37.392,-52.342,25.236,-29.092,-3.9862,-26.527,15.907,-32.354,42.804,-42.329,34.245,-39.092,27.265,-22.107,-8.248,-35.831
37.392,-52.342,25.236,-29.092,-3.9862,-26.527,15.907,-32.354,42.804,-42.329,34.245,-39.092,27.265,-22.107,-8.248,-35.831
37.35,-52.28,25.225,-29.053,-3.9451,-26.517,15.9,-32.247,42.699,-42.294,34.112,-39.03,27.077,-22.028,-8.3248,-35.712
37.35,-52.28,25.225,-29.053,-3.9451,-26.517,15.9,-32.247,42.699,-42.294,34.112,-39.03,27.077,-22.028,-8.3248,-35.712
37.35,-52.28,25.225,-29.053,-3.9451,-26.517,15.9,-32.247,42.699,-42.294,34.112,-39.03,27.077,-22.028,-8.3248,-35.712
37.307,-52.217,25.212,-29.013,-3.9053,-26.506,15.894,-32.14,42.594,-42.258,33.978,-38.967,26.89,-21.95,-8.4015,-35.592
37.262,-52.153,25.197,-28.972,-3.8667,-26.493,15.888,-32.034,42.489,-42.223,33.844,-38.905,26.703,-21.872,-8.4781,-35.474
37.215,-52.088,25.182,-28.93,-3.8293,-26.48,15.883,-31.928,42.384,-42.188,33.71,-38.842,26.517,-21.794,-8.5547,-35.355
37.215,-52.088,25.182,-28.93,-3.8293,-26.48,15.883,-31.928,42.384,-42.188,33.71,-38.842,26.517,-21.794,-8.5547,-35.355
37.215,-52.088,25.182,-28.93,-3.8293,-26.48,15.883,-31.928,42.384,-42.188,33.71,-38.842,26.517,-21.794,-8.5547,-35.355
37.167,-52.023,25.164,-28.887,-3.793,-26.466,15.878,-31.823,42.279,-42.152,33.576,-38.779,26.331,-21.717,-8.6311,-35.236
37.167,-52.023,25.164,-28.887,-3.793,-26.466,15.878,-31.823,42.279,-42.152,33.576,-38.779,26.331,-21.717,-8.6311,-35.236
37.117,-51.956,25.145,-28.844,-3.758,-26.45,15.874,-31.717,42.174,-42.117,33.441,-38.715,26.147,-21.64,-8.7075,-35.118
37.117,-51.956,25.145,-28.844,-3.758,-26.45,15.874,-31.717,42.174,-42.117,33.441,-38.715,26.147,-21.64,-8.7075,-35.118
37.117,-51.956,25.145,-28.844,-3.758,-26.45,15.874,-31.717,42.174,-42.117,33.441,-38.715,26.147,-21.64,-8.7075,-35.118
37.066,-51.889,25.125,-28.8,-3.7241,-26.434,15.871,-31.612,42.069,-42.082,33.307,-38.652,25.962,-21.563,-8.7838,-35
37.066,-51.889,25.125,-28.8,-3.7241,-26.434,15.871,-31.612,42.069,-42.082,33.307,-38.652,25.962,-21.563,-8.7838,-35
37.013,-51.821,25.103,-28.756,-3.6914,-26.416,15.868,-31.508,41.964,-42.047,33.173,-38.588,25.779,-21.487,-8.86,-34.883
37.013,-51.821,25.103,-28.756,-3.6914,-26.416,15.868,-31.508,41.964,-42.047,33.173,-38.588,25.779,-21.487,-8.86,-34.883
36.903,-51.682,25.055,-28.665,-3.6294,-26.378,15.865,-31.3,41.754,-41.977,32.903,-38.46,25.414,-21.335,-9.0121,-34.648
36.903,-51.682,25.055,-28.665,-3.6294,-26.378,15.865,-31.3,41.754,-41.977,32.903,-38.46,25.414,-21.335,-9.0121,-34.648
36.903,-51.682,25.055,-28.665,-3.6294,-26.378,15.865,-31.3,41.754,-41.977,32.903,-38.46,25.414,-21.335,-9.0121,-34.648
36.846,-51.611,25.028,-28.618,-3.6001,-26.357,15.864,-31.196,41.649,-41.942,32.769,-38.396,25.232,-21.26,-9.0881,-34.532
36.846,-51.611,25.028,-28.618,-3.6001,-26.357,15.864,-31.196,41.649,-41.942,32.769,-38.396,25.232,-21.26,-9.0881,-34.532
36.846,-51.611,25.028,-28.618,-3.6001,-26.357,15.864,-31.196,41.649,-41.942,32.769,-38.396,25.232,-21.26,-9.0881,-34.532
36.788,-51.54,25.001,-28.571,-3.5719,-26.335,15.865,-31.093,41.544,-41.907,32.634,-38.332,25.051,-21.185,-9.164,-34.415
36.728,-51.468,24.972,-28.523,-3.5449,-26.313,15.865,-30.99,41.44,-41.872,32.499,-38.268,24.871,-21.11,-9.2398,-34.299
36.728,-51.468,24.972,-28.523,-3.5449,-26.313,15.865,-30.99,41.44,-41.872,32.499,-38.268,24.871,-21.11,-9.2398,-34.299
36.666,-51.395,24.941,-28.474,-3.519,-26.289,15.867,-30.888,41.335,-41.837,32.364,-38.203,24.691,-21.036,-9.3155,-34.183
36.666,-51.395,24.941,-28.474,-3.519,-26.289,15.867,-30.888,41.335,-41.837,32.364,-38.203,24.691,-21.036,-9.3155,-34.183
36.603,-51.322,24.909,-28.425,-3.4941,-26.264,15.869,-30.786,41.231,-41.803,32.229,-38.139,24.512,-20.962,-9.3912,-34.068
36.603,-51.322,24.909,-28.425,-3.4941,-26.264,15.869,-30.786,41.231,-41.803,32.229,-38.139,24.512,-20.962,-9.3912,-34.068
36.539,-51.247,24.876,-28.376,-3.4704,-26.238,15.872,-30.684,41.126,-41.768,32.094,-38.074,24.334,-20.888,-9.4668,-33.953
36.539,-51.247,24.876,-28.376,-3.4704,-26.238,15.872,-30.684,41.126,-41.768,32.094,-38.074,24.334,-20.888,-9.4668,-33.953
36.474,-51.172,24.842,-28.325,-3.4477,-26.212,15.876,-30.583,41.022,-41.734,31.959,-38.009,24.156,-20.815,-9.5423,-33.838
36.474,-51.172,24.842,-28.325,-3.4477,-26.212,15.876,-30.583,41.022,-41.734,31.959,-38.009,24.156,-20.815,-9.5423,-33.838
36.407,-51.097,24.806,-28.274,-3.4261,-26.184,15.881,-30.483,40.918,-41.699,31.824,-37.944,23.979,-20.742,-9.6177,-33.723
36.339,-51.021,24.769,-28.223,-3.4056,-26.156,15.886,-30.382,40.814,-41.665,31.689,-37.879,23.803,-20.67,-9.6931,-33.609
36.339,-51.021,24.769,-28.223,-3.4056,-26.156,15.886,-30.382,40.814,-41.665,31.689,-37.879,23.803,-20.67,-9.6931,-33.609
36.27,-50.944,24.731,-28.171,-3.3862,-26.126,15.892,-30.283,40.711,-41.631,31.554,-37.814,23.627,-20.598,-9.7684,-33.495
36.27,-50.944,24.731,-28.171,-3.3862,-26.126,15.892,-30.283,40.711,-41.631,31.554,-37.814,23.627,-20.598,-9.7684,-33.495
36.27,-50.944,24.731,-28.171,-3.3862,-26.126,15.892,-30.283,40.711,-41.631,31.554,-37.814,23.627,-20.598,-9.7684,-33.495
36.199,-50.866,24.691,-28.119,-3.3677,-26.096,15.899,-30.183,40.607,-41.597,31.419,-37.749,23.452,-20.526,-9.8436,-33.382
36.199,-50.866,24.691,-28.119,-3.3677,-26.096,15.899,-30.183,40.607,-41.597,31.419,-37.749,23.452,-20.526,-9.8436,-33.382
36.128,-50.788,24.65,-28.066,-3.3504,-26.064,15.906,-30.084,40.504,-41.563,31.285,-37.684,23.278,-20.454,-9.9188,-33.269
36.128,-50.788,24.65,-28.066,-3.3504,-26.064,15.906,-30.084,40.504,-41.563,31.285,-37.684,23.278,-20.454,-9.9188,-33.269
36.055,-50.709,24.608,-28.012,-3.334,-26.032,15.915,-29.986,40.401,-41.53,31.15,-37.619,23.105,-20.383,-9.9939,-33.156
36.055,-50.709,24.608,-28.012,-3.334,-26.032,15.915,-29.986,40.401,-41.53,31.15,-37.619,23.105,-20.383,-9.9939,-33.156
35.981,-50.63,24.565,-27.958,-3.3187,-25.999,15.924,-29.888,40.298,-41.496,31.015,-37.554,22.932,-20.313,-10.069,-33.044
35.981,-50.63,24.565,-27.958,-3.3187,-25.999,15.924,-29.888,40.298,-41.496,31.015,-37.554,22.932,-20.313,-10.069,-33.044
35.906,-50.55,24.52,-27.903,-3.3043,-25.965,15.934,-29.79,40.195,-41.463,30.88,-37.488,22.76,-20.243,-10.144,-32.932
35.906,-50.55,24.52,-27.903,-3.3043,-25.965,15.934,-29.79,40.195,-41.463,30.88,-37.488,22.76,-20.243,-10.144,-32.932
35.829,-50.469,24.475,-27.848,-3.291,-25.93,15.945,-29.693,40.093,-41.43,30.745,-37.423,22.589,-20.173,-10.219,-32.82
35.829,-50.469,24.475,-27.848,-3.291,-25.93,15.945,-29.693,40.093,-41.43,30.745,-37.423,22.589,-20.173,-10.219,-32.82
35.829,-50.469,24.475,-27.848,-3.291,-25.93,15.945,-29.693,40.093,-41.43,30.745,-37.423,22.589,-20.173,-10.219,-32.82
35.752,-50.388,24.428,-27.793,-3.2787,-25.894,15.957,-29.596,39.991,-41.397,30.611,-37.358,22.418,-20.103,-10.294,-32.709
35.673,-50.307,24.38,-27.737,-3.2674,-25.857,15.969,-29.5,39.889,-41.364,30.476,-37.292,22.248,-20.034,-10.368,-32.598
35.594,-50.225,24.331,-27.68,-3.257,-25.819,15.983,-29.405,39.787,-41.331,30.342,-37.227,22.079,-19.965,-10.443,-32.487
35.594,-50.225,24.331,-27.68,-3.257,-25.819,15.983,-29.405,39.787,-41.331,30.342,-37.227,22.079,-19.965,-10.443,-32.487
35.594,-50.225,24.331,-27.68,-3.257,-25.819,15.983,-29.405,39.787,-41.331,30.342,-37.227,22.079,-19.965,-10.443,-32.487
35.513,-50.142,24.281,-27.624,-3.2476,-25.781,15.997,-29.309,39.686,-41.298,30.208,-37.162,21.911,-19.897,-10.518,-32.377
35.513,-50.142,24.281,-27.624,-3.2476,-25.781,15.997,-29.309,39.686,-41.298,30.208,-37.162,21.911,-19.897,-10.518,-32.377
35.432,-50.059,24.229,-27.566,-3.2391,-25.742,16.012,-29.215,39.585,-41.266,30.074,-37.096,21.743,-19.829,-10.592,-32.267
35.432,-50.059,24.229,-27.566,-3.2391,-25.742,16.012,-29.215,39.585,-41.266,30.074,-37.096,21.743,-19.829,-10.592,-32.267
35.432,-50.059,24.229,-27.566,-3.2391,-25.742,16.012,-29.215,39.585,-41.266,30.074,-37.096,21.743,-19.829,-10.592,-32.267
35.349,-49.975,24.177,-27.509,-3.2316,-25.701,16.028,-29.121,39.484,-41.234,29.939,-37.031,21.576,-19.761,-10.667,-32.158
35.349,-49.975,24.177,-27.509,-3.2316,-25.701,16.028,-29.121,39.484,-41.234,29.939,-37.031,21.576,-19.761,-10.667,-32.158
35.349,-49.975,24.177,-27.509,-3.2316,-25.701,16.028,-29.121,39.484,-41.234,29.939,-37.031,21.576,-19.761,-10.667,-32.158
35.181,-49.806,24.07,-27.392,-3.2195,-25.619,16.063,-28.934,39.284,-41.17,29.672,-36.9,21.245,-19.627,-10.816,-31.94
35.096,-49.721,24.014,-27.333,-3.2148,-25.576,16.081,-28.841,39.184,-41.138,29.538,-36.835,21.08,-19.561,-10.89,-31.832
35.096,-49.721,24.014,-27.333,-3.2148,-25.576,16.081,-28.841,39.184,-41.138,29.538,-36.835,21.08,-19.561,-10.89,-31.832
35.096,-49.721,24.014,-27.333,-3.2148,-25.576,16.081,-28.841,39.184,-41.138,29.538,-36.835,21.08,-19.561,-10.89,-31.832
35.01,-49.636,23.958,-27.274,-3.211,-25.532,16.1,-28.749,39.085,-41.107,29.405,-36.77,20.916,-19.495,-10.965,-31.724
35.01,-49.636,23.958,-27.274,-3.211,-25.532,16.1,-28.749,39.085,-41.107,29.405,-36.77,20.916,-19.495,-10.965,-31.724
34.923,-49.55,23.901,-27.214,-3.2081,-25.488,16.121,-28.658,38.985,-41.076,29.271,-36.705,20.753,-19.429,-11.039,-31.617
34.923,-49.55,23.901,-27.214,-3.2081,-25.488,16.121,-28.658,38.985,-41.076,29.271,-36.705,20.753,-19.429,-11.039,-31.617
34.834,-49.464,23.842,-27.154,-3.2061,-25.443,16.142,-28.566,38.887,-41.045,29.138,-36.64,20.59,-19.364,-11.113,-31.51
34.746,-49.377,23.783,-27.094,-3.205,-25.397,16.164,-28.476,38.788,-41.014,29.005,-36.575,20.429,-19.299,-11.188,-31.403
34.746,-49.377,23.783,-27.094,-3.205,-25.397,16.164,-28.476,38.788,-41.014,29.005,-36.575,20.429,-19.299,-11.188,-31.403
34.746,-49.377,23.783,-27.094,-3.205,-25.397,16.164,-28.476,38.788,-41.014,29.005,-36.575,20.429,-19.299,-11.188,-31.403
34.656,-49.29,23.723,-27.033,-3.2048,-25.35,16.187,-28.386,38.69,-40.983,28.873,-36.51,20.268,-19.234,-11.262,-31.297
34.656,-49.29,23.723,-27.033,-3.2048,-25.35,16.187,-28.386,38.69,-40.983,28.873,-36.51,20.268,-19.234,-11.262,-31.297
34.565,-49.202,23.662,-26.972,-3.2054,-25.303,16.211,-28.297,38.593,-40.953,28.74,-36.445,20.108,-19.17,-11.336,-31.191
34.565,-49.202,23.662,-26.972,-3.2054,-25.303,16.211,-28.297,38.593,-40.953,28.74,-36.445,20.108,-19.17,-11.336,-31.191
34.565,-49.202,23.662,-26.972,-3.2054,-25.303,16.211,-28.297,38.593,-40.953,28.74,-36.445,20.108,-19.17,-11.336,-31.191
34.474,-49.115,23.6,-26.911,-3.207,-25.255,16.236,-28.208,38.496,-40.922,28.608,-36.38,19.948,-19.106,-11.41,-31.086
34.474,-49.115,23.6,-26.911,-3.207,-25.255,16.236,-28.208,38.496,-40.922,28.608,-36.38,19.948,-19.106,-11.41,-31.086
34.474,-49.115,23.6,-26.911,-3.207,-25.255,16.236,-28.208,38.496,-40.922,28.608,-36.38,19.948,-19.106,-11.41,-31.086
34.289,-48.938,23.474,-26.788,-3.2125,-25.156,16.288,-28.032,38.302,-40.863,28.344,-36.251,19.632,-18.98,-11.558,-30.876
34.289,-48.938,23.474,-26.788,-3.2125,-25.156,16.288,-28.032,38.302,-40.863,28.344,-36.251,19.632,-18.98,-11.558,-30.876
34.196,-48.849,23.41,-26.726,-3.2166,-25.106,16.316,-27.944,38.206,-40.833,28.212,-36.186,19.475,-18.917,-11.632,-30.772
34.196,-48.849,23.41,-26.726,-3.2166,-25.106,16.316,-27.944,38.206,-40.833,28.212,-36.186,19.475,-18.917,-11.632,-30.772
34.102,-48.76,23.345,-26.663,-3.2215,-25.055,16.344,-27.858,38.111,-40.804,28.081,-36.122,19.318,-18.855,-11.706,-30.669
34.102,-48.76,23.345,-26.663,-3.2215,-25.055,16.344,-27.858,38.111,-40.804,28.081,-36.122,19.318,-18.855,-11.706,-30.669
34.007,-48.67,23.279,-26.601,-3.2272,-25.003,16.374,-27.772,38.016,-40.775,27.95,-36.057,19.163,-18.793,-11.78,-30.566
34.007,-48.67,23.279,-26.601,-3.2272,-25.003,16.374,-27.772,38.016,-40.775,27.95,-36.057,19.163,-18.793,-11.78,-30.566
33.912,-48.581,23.212,-26.538,-3.2337,-24.95,16.404,-27.686,37.921,-40.746,27.819,-35.993,19.008,-18.731,-11.854,-30.463
33.912,-48.581,23.212,-26.538,-3.2337,-24.95,16.404,-27.686,37.921,-40.746,27.819,-35.993,19.008,-18.731,-11.854,-30.463
33.815,-48.491,23.145,-26.475,-3.241,-24.897,16.435,-27.601,37.827,-40.717,27.688,-35.929,18.854,-18.67,-11.928,-30.361
33.815,-48.491,23.145,-26.475,-3.241,-24.897,16.435,-27.601,37.827,-40.717,27.688,-35.929,18.854,-18.67,-11.928,-30.361
33.719,-48.4,23.077,-26.411,-3.2491,-24.843,16.467,-27.517,37.733,-40.689,27.558,-35.865,18.701,-18.609,-12.001,-30.259
33.719,-48.4,23.077,-26.411,-3.2491,-24.843,16.467,-27.517,37.733,-40.689,27.558,-35.865,18.701,-18.609,-12.001,-30.259
33.622,-48.31,23.008,-26.348,-3.258,-24.788,16.5,-27.433,37.639,-40.661,27.428,-35.801,18.548,-18.549,-12.075,-30.157
33.622,-48.31,23.008,-26.348,-3.258,-24.788,16.5,-27.433,37.639,-40.661,27.428,-35.801,18.548,-18.549,-12.075,-30.157
33.622,-48.31,23.008,-26.348,-3.258,-24.788,16.5,-27.433,37.639,-40.661,27.428,-35.801,18.548,-18.549,-12.075,-30.157
33.524,-48.219,22.939,-26.284,-3.2676,-24.733,16.534,-27.35,37.546,-40.633,27.299,-35.738,18.396,-18.489,-12.149,-30.056
33.425,-48.128,22.868,-26.22,-3.2781,-24.677,16.569,-27.267,37.454,-40.605,27.169,-35.674,18.245,-18.429,-12.223,-29.956
33.425,-48.128,22.868,-26.22,-3.2781,-24.677,16.569,-27.267,37.454,-40.605,27.169,-35.674,18.245,-18.429,-12.223,-29.956
33.326,-48.036,22.798,-26.156,-3.2892,-24.62,16.605,-27.185,37.362,-40.578,27.04,-35.611,18.095,-18.37,-12.296,-29.856
33.326,-48.036,22.798,-26.156,-3.2892,-24.62,16.605,-27.185,37.362,-40.578,27.04,-35.611,18.095,-18.37,-12.296,-29.856
33.326,-48.036,22.798,-26.156,-3.2892,-24.62,16.605,-27.185,37.362,-40.578,27.04,-35.611,18.095,-18.37,-12.296,-29.856
33.227,-47.945,22.726,-26.092,-3.3012,-24.563,16.642,-27.104,37.271,-40.551,26.912,-35.548,17.946,-18.311,-12.37,-29.756
33.227,-47.945,22.726,-26.092,-3.3012,-24.563,16.642,-27.104,37.271,-40.551,26.912,-35.548,17.946,-18.311,-12.37,-29.756
33.127,-47.853,22.654,-26.028,-3.3139,-24.505,16.68,-27.023,37.18,-40.524,26.783,-35.484,17.797,-18.252,-12.444,-29.657
33.127,-47.853,22.654,-26.028,-3.3139,-24.505,16.68,-27.023,37.18,-40.524,26.783,-35.484,17.797,-18.252,-12.444,-29.657
33.027,-47.761,22.582,-25.963,-3.3273,-24.446,16.719,-26.942,37.089,-40.497,26.655,-35.422,17.649,-18.194,-12.517,-29.558
32.926,-47.669,22.509,-25.899,-3.3414,-24.387,16.759,-26.863,36.999,-40.471,26.528,-35.359,17.502,-18.136,-12.591,-29.46
32.926,-47.669,22.509,-25.899,-3.3414,-24.387,16.759,-26.863,36.999,-40.471,26.528,-35.359,17.502,-18.136,-12.591,-29.46
32.926,-47.669,22.509,-25.899,-3.3414,-24.387,16.759,-26.863,36.999,-40.471,26.528,-35.359,17.502,-18.136,-12.591,-29.46
32.824,-47.577,22.435,-25.834,-3.3563,-24.327,16.799,-26.784,36.91,-40.445,26.401,-35.296,17.356,-18.079,-12.664,-29.362
32.824,-47.577,22.435,-25.834,-3.3563,-24.327,16.799,-26.784,36.91,-40.445,26.401,-35.296,17.356,-18.079,-12.664,-29.362
32.824,-47.577,22.435,-25.834,-3.3563,-24.327,16.799,-26.784,36.91,-40.445,26.401,-35.296,17.356,-18.079,-12.664,-29.362
32.621,-47.392,22.286,-25.704,-3.3881,-24.205,16.883,-26.627,36.733,-40.393,26.147,-35.172,17.065,-17.965,-12.811,-29.167
32.621,-47.392,22.286,-25.704,-3.3881,-24.205,16.883,-26.627,36.733,-40.393,26.147,-35.172,17.065,-17.965,-12.811,-29.167
32.621,-47.392,22.286,-25.704,-3.3881,-24.205,16.883,-26.627,36.733,-40.393,26.147,-35.172,17.065,-17.965,-12.811,-29.167
32.518,-47.299,22.211,-25.639,-3.4051,-24.144,16.927,-26.55,36.645,-40.368,26.021,-35.11,16.921,-17.909,-12.885,-29.071
32.416,-47.206,22.135,-25.574,-3.4227,-24.081,16.971,-26.473,36.557,-40.342,25.895,-35.048,16.778,-17.852,-12.958,-28.975
32.313,-47.113,22.059,-25.509,-3.4411,-24.019,17.017,-26.397,36.471,-40.317,25.77,-34.986,16.635,-17.797,-13.031,-28.879
32.313,-47.113,22.059,-25.509,-3.4411,-24.019,17.017,-26.397,36.471,-40.317,25.77,-34.986,16.635,-17.797,-13.031,-28.879
32.209,-47.02,21.982,-25.444,-3.46,-23.955,17.063,-26.322,36.384,-40.293,25.645,-34.925,16.494,-17.741,-13.105,-28.784
32.209,-47.02,21.982,-25.444,-3.46,-23.955,17.063,-26.322,36.384,-40.293,25.645,-34.925,16.494,-17.741,-13.105,-28.784
32.209,-47.02,21.982,-25.444,-3.46,-23.955,17.063,-26.322,36.384,-40.293,25.645,-34.925,16.494,-17.741,-13.105,-28.784
32.105,-46.927,21.905,-25.378,-3.4797,-23.891,17.111,-26.247,36.299,-40.268,25.521,-34.863,16.353,-17.686,-13.178,-28.689
32.105,-46.927,21.905,-25.378,-3.4797,-23.891,17.111,-26.247,36.299,-40.268,25.521,-34.863,16.353,-17.686,-13.178,-28.689
32.105,-46.927,21.905,-25.378,-3.4797,-23.891,17.111,-26.247,36.299,-40.268,25.521,-34.863,16.353,-17.686,-13.178,-28.689
32.001,-46.834,21.828,-25.313,-3.5,-23.826,17.159,-26.173,36.214,-40.244,25.397,-34.802,16.212,-17.632,-13.251,-28.595
31.897,-46.74,21.75,-25.248,-3.5209,-23.761,17.208,-26.099,36.129,-40.22,25.273,-34.742,16.073,-17.577,-13.325,-28.501
31.897,-46.74,21.75,-25.248,-3.5209,-23.761,17.208,-26.099,36.129,-40.22,25.273,-34.742,16.073,-17.577,-13.325,-28.501
31.793,-46.647,21.672,-25.182,-3.5425,-23.696,17.258,-26.026,36.045,-40.196,25.15,-34.681,15.934,-17.523,-13.398,-28.408
31.793,-46.647,21.672,-25.182,-3.5425,-23.696,17.258,-26.026,36.045,-40.196,25.15,-34.681,15.934,-17.523,-13.398,-28.408
31.688,-46.553,21.594,-25.117,-3.5647,-23.629,17.309,-25.954,35.962,-40.173,25.027,-34.621,15.796,-17.47,-13.471,-28.315
31.688,-46.553,21.594,-25.117,-3.5647,-23.629,17.309,-25.954,35.962,-40.173,25.027,-34.621,15.796,-17.47,-13.471,-28.315
31.583,-46.46,21.515,-25.052,-3.5876,-23.563,17.361,-25.882,35.879,-40.15,24.905,-34.56,15.659,-17.416,-13.544,-28.223
31.583,-46.46,21.515,-25.052,-3.5876,-23.563,17.361,-25.882,35.879,-40.15,24.905,-34.56,15.659,-17.416,-13.544,-28.223
31.478,-46.366,21.436,-24.986,-3.611,-23.495,17.414,-25.811,35.796,-40.127,24.783,-34.5,15.523,-17.363,-13.618,-28.131
31.478,-46.366,21.436,-24.986,-3.611,-23.495,17.414,-25.811,35.796,-40.127,24.783,-34.5,15.523,-17.363,-13.618,-28.131
31.478,-46.366,21.436,-24.986,-3.611,-23.495,17.414,-25.811,35.796,-40.127,24.783,-34.5,15.523,-17.363,-13.618,-28.131
31.373,-46.272,21.357,-24.921,-3.635,-23.428,17.468,-25.74,35.715,-40.104,24.662,-34.441,15.387,-17.311,-13.691,-28.039
31.268,-46.179,21.277,-24.855,-3.6597,-23.359,17.523,-25.671,35.634,-40.081,24.541,-34.381,15.252,-17.258,-13.764,-27.948
31.268,-46.179,21.277,-24.855,-3.6597,-23.359,17.523,-25.671,35.634,-40.081,24.541,-34.381,15.252,-17.258,-13.764,-27.948
31.162,-46.085,21.197,-24.79,-3.6849,-23.29,17.579,-25.601,35.553,-40.059,24.421,-34.322,15.118,-17.206,-13.837,-27.858
31.162,-46.085,21.197,-24.79,-3.6849,-23.29,17.579,-25.601,35.553,-40.059,24.421,-34.322,15.118,-17.206,-13.837,-27.858
31.162,-46.085,21.197,-24.79,-3.6849,-23.29,17.579,-25.601,35.553,-40.059,24.421,-34.322,15.118,-17.206,-13.837,-27.858
31.162,-46.085,21.197,-24.79,-3.6849,-23.29,17.579,-25.601,35.553,-40.059,24.421,-34.322,15.118,-17.206,-13.837,-27.858
30.951,-45.897,21.037,-24.66,-3.7371,-23.151,17.693,-25.465,35.394,-40.015,24.182,-34.204,14.852,-17.103,-13.983,-27.678
30.951,-45.897,21.037,-24.66,-3.7371,-23.151,17.693,-25.465,35.394,-40.015,24.182,-34.204,14.852,-17.103,-13.983,-27.678
30.951,-45.897,21.037,-24.66,-3.7371,-23.151,17.693,-25.465,35.394,-40.015,24.182,-34.204,14.852,-17.103,-13.983,-27.678
30.845,-45.804,20.956,-24.595,-3.764,-23.081,17.752,-25.397,35.315,-39.994,24.063,-34.145,14.72,-17.052,-14.056,-27.589
30.845,-45.804,20.956,-24.595,-3.764,-23.081,17.752,-25.397,35.315,-39.994,24.063,-34.145,14.72,-17.052,-14.056,-27.589
30.74,-45.71,20.876,-24.53,-3.7915,-23.01,17.812,-25.33,35.237,-39.973,23.945,-34.087,14.589,-17.002,-14.129,-27.5
30.74,-45.71,20.876,-24.53,-3.7915,-23.01,17.812,-25.33,35.237,-39.973,23.945,-34.087,14.589,-17.002,-14.129,-27.5
30.74,-45.71,20.876,-24.53,-3.7915,-23.01,17.812,-25.33,35.237,-39.973,23.945,-34.087,14.589,-17.002,-14.129,-27.5
30.528,-45.522,20.714,-24.4,-3.8481,-22.867,17.934,-25.199,35.082,-39.931,23.71,-33.971,14.328,-16.901,-14.275,-27.323
30.528,-45.522,20.714,-24.4,-3.8481,-22.867,17.934,-25.199,35.082,-39.931,23.71,-33.971,14.328,-16.901,-14.275,-27.323
30.422,-45.429,20.633,-24.335,-3.8772,-22.795,17.996,-25.134,35.006,-39.91,23.593,-33.914,14.199,-16.851,-14.348,-27.236
30.422,-45.429,20.633,-24.335,-3.8772,-22.795,17.996,-25.134,35.006,-39.91,23.593,-33.914,14.199,-16.851,-14.348,-27.236
30.422,-45.429,20.633,-24.335,-3.8772,-22.795,17.996,-25.134,35.006,-39.91,23.593,-33.914,14.199,-16.851,-14.348,-27.236
30.317,-45.335,20.552,-24.27,-3.9068,-22.723,18.059,-25.069,34.93,-39.889,23.477,-33.856,14.071,-16.802,-14.421,-27.149
30.211,-45.241,20.47,-24.206,-3.9369,-22.65,18.123,-25.006,34.855,-39.869,23.361,-33.799,13.944,-16.752,-14.493,-27.062
30.105,-45.148,20.389,-24.141,-3.9676,-22.577,18.188,-24.943,34.781,-39.849,23.246,-33.742,13.817,-16.703,-14.566,-26.976
30.105,-45.148,20.389,-24.141,-3.9676,-22.577,18.188,-24.943,34.781,-39.849,23.246,-33.742,13.817,-16.703,-14.566,-26.976
30.105,-45.148,20.389,-24.141,-3.9676,-22.577,18.188,-24.943,34.781,-39.849,23.246,-33.742,13.817,-16.703,-14.566,-26.976
30,-45.054,20.308,-24.077,-3.9987,-22.503,18.254,-24.88,34.707,-39.829,23.132,-33.686,13.691,-16.655,-14.639,-26.89
30,-45.054,20.308,-24.077,-3.9987,-22.503,18.254,-24.88,34.707,-39.829,23.132,-33.686,13.691,-16.655,-14.639,-26.89
30,-45.054,20.308,-24.077,-3.9987,-22.503,18.254,-24.88,34.707,-39.829,23.132,-33.686,13.691,-16.655,-14.639,-26.89
29.894,-44.961,20.226,-24.013,-4.0304,-22.428,18.321,-24.818,34.634,-39.81,23.018,-33.629,13.566,-16.606,-14.712,-26.805
29.894,-44.961,20.226,-24.013,-4.0304,-22.428,18.321,-24.818,34.634,-39.81,23.018,-33.629,13.566,-16.606,-14.712,-26.805
29.789,-44.867,20.145,-23.949,-4.0625,-22.354,18.389,-24.757,34.561,-39.791,22.905,-33.573,13.441,-16.558,-14.785,-26.72
29.789,-44.867,20.145,-23.949,-4.0625,-22.354,18.389,-24.757,34.561,-39.791,22.905,-33.573,13.441,-16.558,-14.785,-26.72
29.789,-44.867,20.145,-23.949,-4.0625,-22.354,18.389,-24.757,34.561,-39.791,22.905,-33.573,13.441,-16.558,-14.785,-26.72
