26.33,-79.054,14.695,29.476,-1.4957,-147.28,-13.525,-36.78,79.572,99.923,115.45,33.435,142.11,1.3463,43.206,20.221
26.33,-79.054,14.695,29.476,-1.4957,-147.28,-13.525,-36.78,79.572,99.923,115.45,33.435,142.11,1.3463,43.206,20.221
26.33,-79.054,14.695,29.476,-1.4957,-147.28,-13.525,-36.78,79.572,99.923,115.45,33.435,142.11,1.3463,43.206,20.221
26.912,-80.155,14.868,29.273,-1.0294,-148.19,-13.663,-36.955,79.688,99.881,116.37,32.67,142.45,1.6642,43.404,19.873
26.912,-80.155,14.868,29.273,-1.0294,-148.19,-13.663,-36.955,79.688,99.881,116.37,32.67,142.45,1.6642,43.404,19.873
27.202,-80.707,14.956,29.169,-0.79514,-148.64,-13.73,-37.041,79.744,99.858,116.83,32.286,142.62,1.8278,43.505,19.699
27.202,-80.707,14.956,29.169,-0.79514,-148.64,-13.73,-37.041,79.744,99.858,116.83,32.286,142.62,1.8278,43.505,19.699
27.491,-81.258,15.044,29.063,-0.56007,-149.09,-13.796,-37.128,79.798,99.834,117.29,31.901,142.78,1.9944,43.607,19.527
27.491,-81.258,15.044,29.063,-0.56007,-149.09,-13.796,-37.128,79.798,99.834,117.29,31.901,142.78,1.9944,43.607,19.527
27.78,-81.81,15.133,28.955,-0.32424,-149.54,-13.861,-37.213,79.851,99.809,117.74,31.515,142.95,2.164,43.71,19.355
27.78,-81.81,15.133,28.955,-0.32424,-149.54,-13.861,-37.213,79.851,99.809,117.74,31.515,142.95,2.164,43.71,19.355
28.068,-82.362,15.223,28.844,-0.087645,-149.98,-13.925,-37.298,79.902,99.783,118.2,31.129,143.11,2.3368,43.815,19.184
28.068,-82.362,15.223,28.844,-0.087645,-149.98,-13.925,-37.298,79.902,99.783,118.2,31.129,143.11,2.3368,43.815,19.184
28.356,-82.914,15.313,28.732,0.1497,-150.43,-13.988,-37.383,79.952,99.755,118.65,30.741,143.27,2.5126,43.921,19.014
28.643,-83.466,15.404,28.618,0.38778,-150.87,-14.05,-37.467,80,99.727,119.11,30.353,143.43,2.6915,44.028,18.845
28.643,-83.466,15.404,28.618,0.38778,-150.87,-14.05,-37.467,80,99.727,119.11,30.353,143.43,2.6915,44.028,18.845
28.93,-84.019,15.496,28.502,0.6266,-151.31,-14.111,-37.551,80.047,99.698,119.56,29.965,143.59,2.8736,44.136,18.677
28.93,-84.019,15.496,28.502,0.6266,-151.31,-14.111,-37.551,80.047,99.698,119.56,29.965,143.59,2.8736,44.136,18.677
28.93,-84.019,15.496,28.502,0.6266,-151.31,-14.111,-37.551,80.047,99.698,119.56,29.965,143.59,2.8736,44.136,18.677
29.216,-84.572,15.588,28.384,0.86615,-151.76,-14.171,-37.634,80.092,99.667,120.01,29.576,143.74,3.0587,44.246,18.509
29.216,-84.572,15.588,28.384,0.86615,-151.76,-14.171,-37.634,80.092,99.667,120.01,29.576,143.74,3.0587,44.246,18.509
29.216,-84.572,15.588,28.384,0.86615,-151.76,-14.171,-37.634,80.092,99.667,120.01,29.576,143.74,3.0587,44.246,18.509
29.501,-85.125,15.681,28.263,1.1064,-152.19,-14.23,-37.717,80.136,99.636,120.46,29.186,143.89,3.247,44.357,18.343
29.501,-85.125,15.681,28.263,1.1064,-152.19,-14.23,-37.717,80.136,99.636,120.46,29.186,143.89,3.247,44.357,18.343
29.501,-85.125,15.681,28.263,1.1064,-152.19,-14.23,-37.717,80.136,99.636,120.46,29.186,143.89,3.247,44.357,18.343
30.07,-86.231,15.868,28.017,1.5891,-153.07,-14.345,-37.881,80.218,99.571,121.35,28.404,144.19,3.633,44.582,18.012
30.07,-86.231,15.868,28.017,1.5891,-153.07,-14.345,-37.881,80.218,99.571,121.35,28.404,144.19,3.633,44.582,18.012
30.353,-86.785,15.963,27.891,1.8314,-153.5,-14.401,-37.962,80.257,99.537,121.79,28.012,144.34,3.8307,44.697,17.849
30.353,-86.785,15.963,27.891,1.8314,-153.5,-14.401,-37.962,80.257,99.537,121.79,28.012,144.34,3.8307,44.697,17.849
30.353,-86.785,15.963,27.891,1.8314,-153.5,-14.401,-37.962,80.257,99.537,121.79,28.012,144.34,3.8307,44.697,17.849
30.636,-87.338,16.059,27.763,2.0745,-153.93,-14.455,-38.043,80.295,99.502,122.24,27.62,144.49,4.0316,44.813,17.686
30.636,-87.338,16.059,27.763,2.0745,-153.93,-14.455,-38.043,80.295,99.502,122.24,27.62,144.49,4.0316,44.813,17.686
30.918,-87.892,16.155,27.633,2.3182,-154.36,-14.509,-38.123,80.331,99.466,122.68,27.228,144.63,4.2357,44.93,17.524
31.2,-88.446,16.252,27.501,2.5626,-154.79,-14.562,-38.203,80.365,99.429,123.12,26.835,144.77,4.443,45.048,17.363
31.2,-88.446,16.252,27.501,2.5626,-154.79,-14.562,-38.203,80.365,99.429,123.12,26.835,144.77,4.443,45.048,17.363
31.481,-89,16.349,27.367,2.8077,-155.22,-14.613,-38.283,80.398,99.391,123.56,26.441,144.91,4.6534,45.168,17.204
31.481,-89,16.349,27.367,2.8077,-155.22,-14.613,-38.283,80.398,99.391,123.56,26.441,144.91,4.6534,45.168,17.204
31.761,-89.554,16.447,27.231,3.0534,-155.64,-14.663,-38.362,80.429,99.353,124,26.047,145.05,4.867,45.289,17.045
31.761,-89.554,16.447,27.231,3.0534,-155.64,-14.663,-38.362,80.429,99.353,124,26.047,145.05,4.867,45.289,17.045
31.761,-89.554,16.447,27.231,3.0534,-155.64,-14.663,-38.362,80.429,99.353,124,26.047,145.05,4.867,45.289,17.045
32.041,-90.108,16.546,27.093,3.2997,-156.07,-14.713,-38.441,80.458,99.314,124.43,25.653,145.18,5.0838,45.411,16.888
32.32,-90.662,16.646,26.953,3.5467,-156.49,-14.761,-38.519,80.486,99.274,124.87,25.259,145.31,5.3039,45.535,16.731
32.32,-90.662,16.646,26.953,3.5467,-156.49,-14.761,-38.519,80.486,99.274,124.87,25.259,145.31,5.3039,45.535,16.731
32.32,-90.662,16.646,26.953,3.5467,-156.49,-14.761,-38.519,80.486,99.274,124.87,25.259,145.31,5.3039,45.535,16.731
32.599,-91.216,16.746,26.811,3.7943,-156.91,-14.808,-38.596,80.513,99.233,125.3,24.864,145.44,5.5271,45.66,16.576
32.599,-91.216,16.746,26.811,3.7943,-156.91,-14.808,-38.596,80.513,99.233,125.3,24.864,145.44,5.5271,45.66,16.576
32.599,-91.216,16.746,26.811,3.7943,-156.91,-14.808,-38.596,80.513,99.233,125.3,24.864,145.44,5.5271,45.66,16.576
33.154,-92.324,16.949,26.521,4.2914,-157.75,-14.899,-38.751,80.561,99.149,126.16,24.074,145.7,5.9832,45.913,16.269
33.154,-92.324,16.949,26.521,4.2914,-157.75,-14.899,-38.751,80.561,99.149,126.16,24.074,145.7,5.9832,45.913,16.269
33.43,-92.878,17.051,26.373,4.5409,-158.16,-14.942,-38.827,80.582,99.105,126.59,23.678,145.82,6.2161,46.042,16.117
33.43,-92.878,17.051,26.373,4.5409,-158.16,-14.942,-38.827,80.582,99.105,126.59,23.678,145.82,6.2161,46.042,16.117
33.43,-92.878,17.051,26.373,4.5409,-158.16,-14.942,-38.827,80.582,99.105,126.59,23.678,145.82,6.2161,46.042,16.117
33.706,-93.432,17.154,26.223,4.791,-158.58,-14.985,-38.903,80.602,99.061,127.01,23.282,145.95,6.4522,46.172,15.967
33.706,-93.432,17.154,26.223,4.791,-158.58,-14.985,-38.903,80.602,99.061,127.01,23.282,145.95,6.4522,46.172,15.967
33.981,-93.986,17.258,26.072,5.0416,-158.99,-15.026,-38.978,80.62,99.017,127.44,22.887,146.07,6.6915,46.303,15.817
33.981,-93.986,17.258,26.072,5.0416,-158.99,-15.026,-38.978,80.62,99.017,127.44,22.887,146.07,6.6915,46.303,15.817
34.53,-95.094,17.467,25.762,5.5446,-159.81,-15.106,-39.128,80.652,98.926,128.28,22.095,146.3,7.1799,46.569,15.522
34.53,-95.094,17.467,25.762,5.5446,-159.81,-15.106,-39.128,80.652,98.926,128.28,22.095,146.3,7.1799,46.569,15.522
34.53,-95.094,17.467,25.762,5.5446,-159.81,-15.106,-39.128,80.652,98.926,128.28,22.095,146.3,7.1799,46.569,15.522
34.803,-95.648,17.573,25.605,5.797,-160.21,-15.144,-39.203,80.666,98.879,128.7,21.699,146.41,7.4289,46.704,15.377
34.803,-95.648,17.573,25.605,5.797,-160.21,-15.144,-39.203,80.666,98.879,128.7,21.699,146.41,7.4289,46.704,15.377
34.803,-95.648,17.573,25.605,5.797,-160.21,-15.144,-39.203,80.666,98.879,128.7,21.699,146.41,7.4289,46.704,15.377
35.075,-96.202,17.68,25.445,6.0499,-160.62,-15.18,-39.276,80.678,98.832,129.12,21.303,146.52,7.6812,46.841,15.232
35.347,-96.756,17.787,25.284,6.3034,-161.02,-15.216,-39.35,80.688,98.784,129.54,20.906,146.63,7.9367,46.978,15.089
35.347,-96.756,17.787,25.284,6.3034,-161.02,-15.216,-39.35,80.688,98.784,129.54,20.906,146.63,7.9367,46.978,15.089
35.618,-97.309,17.895,25.12,6.5574,-161.43,-15.25,-39.423,80.696,98.735,129.95,20.51,146.74,8.1954,47.117,14.948
35.618,-97.309,17.895,25.12,6.5574,-161.43,-15.25,-39.423,80.696,98.735,129.95,20.51,146.74,8.1954,47.117,14.948
35.889,-97.863,18.003,24.955,6.8119,-161.83,-15.284,-39.496,80.703,98.686,130.37,20.114,146.85,8.4574,47.258,14.807
35.889,-97.863,18.003,24.955,6.8119,-161.83,-15.284,-39.496,80.703,98.686,130.37,20.114,146.85,8.4574,47.258,14.807
36.159,-98.416,18.113,24.788,7.067,-162.23,-15.316,-39.568,80.709,98.636,130.78,19.718,146.95,8.7226,47.399,14.668
36.159,-98.416,18.113,24.788,7.067,-162.23,-15.316,-39.568,80.709,98.636,130.78,19.718,146.95,8.7226,47.399,14.668
36.159,-98.416,18.113,24.788,7.067,-162.23,-15.316,-39.568,80.709,98.636,130.78,19.718,146.95,8.7226,47.399,14.668
36.428,-98.969,18.223,24.618,7.3226,-162.62,-15.346,-39.64,80.712,98.586,131.19,19.323,147.05,8.9911,47.542,14.531
36.696,-99.522,18.334,24.447,7.5787,-163.02,-15.376,-39.712,80.714,98.535,131.59,18.927,147.15,9.2628,47.686,14.394
36.696,-99.522,18.334,24.447,7.5787,-163.02,-15.376,-39.712,80.714,98.535,131.59,18.927,147.15,9.2628,47.686,14.394
36.964,-100.07,18.445,24.274,7.8353,-163.41,-15.404,-39.783,80.715,98.483,132,18.531,147.25,9.5377,47.832,14.259
36.964,-100.07,18.445,24.274,7.8353,-163.41,-15.404,-39.783,80.715,98.483,132,18.531,147.25,9.5377,47.832,14.259
37.231,-100.63,18.558,24.099,8.0923,-163.8,-15.432,-39.854,80.713,98.431,132.4,18.136,147.34,9.8159,47.978,14.126
37.231,-100.63,18.558,24.099,8.0923,-163.8,-15.432,-39.854,80.713,98.431,132.4,18.136,147.34,9.8159,47.978,14.126
37.498,-101.18,18.671,23.922,8.3499,-164.19,-15.458,-39.924,80.711,98.379,132.81,17.741,147.43,10.097,48.126,13.994
37.498,-101.18,18.671,23.922,8.3499,-164.19,-15.458,-39.924,80.711,98.379,132.81,17.741,147.43,10.097,48.126,13.994
37.498,-101.18,18.671,23.922,8.3499,-164.19,-15.458,-39.924,80.711,98.379,132.81,17.741,147.43,10.097,48.126,13.994
37.764,-101.73,18.785,23.743,8.608,-164.58,-15.482,-39.994,80.706,98.326,133.21,17.346,147.52,10.382,48.275,13.863
38.029,-102.28,18.899,23.562,8.8665,-164.97,-15.506,-40.064,80.7,98.272,133.61,16.952,147.61,10.67,48.426,13.734
38.029,-102.28,18.899,23.562,8.8665,-164.97,-15.506,-40.064,80.7,98.272,133.61,16.952,147.61,10.67,48.426,13.734
38.293,-102.84,19.014,23.38,9.1254,-165.36,-15.528,-40.133,80.692,98.218,134,16.557,147.7,10.961,48.578,13.606
38.293,-102.84,19.014,23.38,9.1254,-165.36,-15.528,-40.133,80.692,98.218,134,16.557,147.7,10.961,48.578,13.606
38.557,-103.39,19.13,23.195,9.3849,-165.74,-15.549,-40.202,80.682,98.163,134.4,16.163,147.78,11.255,48.731,13.48
38.557,-103.39,19.13,23.195,9.3849,-165.74,-15.549,-40.202,80.682,98.163,134.4,16.163,147.78,11.255,48.731,13.48
38.82,-103.94,19.247,23.009,9.6447,-166.12,-15.569,-40.271,80.671,98.108,134.79,15.77,147.86,11.553,48.885,13.356
38.82,-103.94,19.247,23.009,9.6447,-166.12,-15.569,-40.271,80.671,98.108,134.79,15.77,147.86,11.553,48.885,13.356
38.82,-103.94,19.247,23.009,9.6447,-166.12,-15.569,-40.271,80.671,98.108,134.79,15.77,147.86,11.553,48.885,13.356
38.82,-103.94,19.247,23.009,9.6447,-166.12,-15.569,-40.271,80.671,98.108,134.79,15.77,147.86,11.553,48.885,13.356
39.345,-105.04,19.483,22.63,10.166,-166.88,-15.604,-40.407,80.644,97.997,135.57,14.984,148.01,12.157,49.198,13.111
39.345,-105.04,19.483,22.63,10.166,-166.88,-15.604,-40.407,80.644,97.997,135.57,14.984,148.01,12.157,49.198,13.111
39.606,-105.59,19.602,22.438,10.427,-167.26,-15.62,-40.475,80.628,97.941,135.96,14.591,148.09,12.465,49.356,12.991
39.606,-105.59,19.602,22.438,10.427,-167.26,-15.62,-40.475,80.628,97.941,135.96,14.591,148.09,12.465,49.356,12.991
39.867,-106.14,19.721,22.244,10.688,-167.63,-15.635,-40.542,80.61,97.884,136.34,14.2,148.16,12.775,49.515,12.872
39.867,-106.14,19.721,22.244,10.688,-167.63,-15.635,-40.542,80.61,97.884,136.34,14.2,148.16,12.775,49.515,12.872
40.126,-106.69,19.842,22.048,10.95,-168.01,-15.648,-40.609,80.59,97.827,136.72,13.808,148.23,13.089,49.676,12.755
40.126,-106.69,19.842,22.048,10.95,-168.01,-15.648,-40.609,80.59,97.827,136.72,13.808,148.23,13.089,49.676,12.755
40.126,-106.69,19.842,22.048,10.95,-168.01,-15.648,-40.609,80.59,97.827,136.72,13.808,148.23,13.089,49.676,12.755
40.386,-107.24,19.963,21.85,11.213,-168.38,-15.66,-40.676,80.569,97.769,137.1,13.417,148.3,13.405,49.838,12.64
40.644,-107.79,20.085,21.65,11.476,-168.75,-15.671,-40.742,80.546,97.711,137.48,13.027,148.36,13.725,50.001,12.526
40.644,-107.79,20.085,21.65,11.476,-168.75,-15.671,-40.742,80.546,97.711,137.48,13.027,148.36,13.725,50.001,12.526
40.644,-107.79,20.085,21.65,11.476,-168.75,-15.671,-40.742,80.546,97.711,137.48,13.027,148.36,13.725,50.001,12.526
40.902,-108.33,20.208,21.449,11.739,-169.12,-15.68,-40.808,80.522,97.653,137.86,12.637,148.43,14.048,50.165,12.414
40.902,-108.33,20.208,21.449,11.739,-169.12,-15.68,-40.808,80.522,97.653,137.86,12.637,148.43,14.048,50.165,12.414
40.902,-108.33,20.208,21.449,11.739,-169.12,-15.68,-40.808,80.522,97.653,137.86,12.637,148.43,14.048,50.165,12.414
41.416,-109.43,20.456,21.04,12.266,-169.85,-15.695,-40.939,80.468,97.535,138.61,11.859,148.55,14.704,50.498,12.194
41.416,-109.43,20.456,21.04,12.266,-169.85,-15.695,-40.939,80.468,97.535,138.61,11.859,148.55,14.704,50.498,12.194
41.416,-109.43,20.456,21.04,12.266,-169.85,-15.695,-40.939,80.468,97.535,138.61,11.859,148.55,14.704,50.498,12.194
41.672,-109.98,20.581,20.833,12.53,-170.21,-15.701,-41.004,80.438,97.476,138.98,11.471,148.6,15.037,50.666,12.086
41.927,-110.52,20.706,20.624,12.795,-170.58,-15.705,-41.069,80.407,97.416,139.35,11.084,148.66,15.373,50.836,11.981
42.182,-111.07,20.833,20.413,13.06,-170.94,-15.707,-41.134,80.374,97.356,139.71,10.697,148.71,15.711,51.006,11.877
42.182,-111.07,20.833,20.413,13.06,-170.94,-15.707,-41.134,80.374,97.356,139.71,10.697,148.71,15.711,51.006,11.877
42.182,-111.07,20.833,20.413,13.06,-170.94,-15.707,-41.134,80.374,97.356,139.71,10.697,148.71,15.711,51.006,11.877
42.436,-111.62,20.96,20.201,13.325,-171.3,-15.709,-41.198,80.34,97.296,140.08,10.311,148.76,16.053,51.178,11.774
42.436,-111.62,20.96,20.201,13.325,-171.3,-15.709,-41.198,80.34,97.296,140.08,10.311,148.76,16.053,51.178,11.774
42.689,-112.16,21.088,19.986,13.59,-171.65,-15.709,-41.262,80.303,97.236,140.44,9.9263,148.8,16.399,51.351,11.674
42.689,-112.16,21.088,19.986,13.59,-171.65,-15.709,-41.262,80.303,97.236,140.44,9.9263,148.8,16.399,51.351,11.674
42.942,-112.71,21.217,19.77,13.856,-172.01,-15.708,-41.326,80.266,97.175,140.8,9.5419,148.85,16.747,51.526,11.575
42.942,-112.71,21.217,19.77,13.856,-172.01,-15.708,-41.326,80.266,97.175,140.8,9.5419,148.85,16.747,51.526,11.575
43.194,-113.25,21.347,19.552,14.122,-172.36,-15.705,-41.389,80.226,97.114,141.16,9.1583,148.89,17.098,51.701,11.477
43.194,-113.25,21.347,19.552,14.122,-172.36,-15.705,-41.389,80.226,97.114,141.16,9.1583,148.89,17.098,51.701,11.477
43.446,-113.79,21.477,19.332,14.389,-172.71,-15.701,-41.453,80.185,97.052,141.51,8.7755,148.93,17.453,51.878,11.382
43.446,-113.79,21.477,19.332,14.389,-172.71,-15.701,-41.453,80.185,97.052,141.51,8.7755,148.93,17.453,51.878,11.382
43.697,-114.34,21.608,19.11,14.656,-173.06,-15.696,-41.516,80.142,96.991,141.87,8.3935,148.97,17.81,52.056,11.288
43.697,-114.34,21.608,19.11,14.656,-173.06,-15.696,-41.516,80.142,96.991,141.87,8.3935,148.97,17.81,52.056,11.288
43.947,-114.88,21.74,18.887,14.922,-173.41,-15.689,-41.578,80.098,96.929,142.22,8.0124,149,18.171,52.235,11.196
43.947,-114.88,21.74,18.887,14.922,-173.41,-15.689,-41.578,80.098,96.929,142.22,8.0124,149,18.171,52.235,11.196
43.947,-114.88,21.74,18.887,14.922,-173.41,-15.689,-41.578,80.098,96.929,142.22,8.0124,149,18.171,52.235,11.196
44.197,-115.42,21.873,18.662,15.19,-173.76,-15.681,-41.641,80.052,96.867,142.57,7.6322,149.03,18.535,52.416,11.105
44.446,-115.96,22.006,18.435,15.457,-174.1,-15.671,-41.703,80.004,96.804,142.91,7.2529,149.07,18.901,52.597,11.016
44.446,-115.96,22.006,18.435,15.457,-174.1,-15.671,-41.703,80.004,96.804,142.91,7.2529,149.07,18.901,52.597,11.016
44.695,-116.5,22.14,18.206,15.725,-174.45,-15.66,-41.765,79.954,96.742,143.26,6.8745,149.09,19.271,52.78,10.93
44.695,-116.5,22.14,18.206,15.725,-174.45,-15.66,-41.765,79.954,96.742,143.26,6.8745,149.09,19.271,52.78,10.93
44.942,-117.04,22.275,17.975,15.993,-174.79,-15.648,-41.827,79.903,96.679,143.6,6.4971,149.12,19.644,52.964,10.844
44.942,-117.04,22.275,17.975,15.993,-174.79,-15.648,-41.827,79.903,96.679,143.6,6.4971,149.12,19.644,52.964,10.844
45.19,-117.58,22.411,17.743,16.261,-175.13,-15.634,-41.888,79.851,96.616,143.94,6.1206,149.14,20.02,53.149,10.761
45.19,-117.58,22.411,17.743,16.261,-175.13,-15.634,-41.888,79.851,96.616,143.94,6.1206,149.14,20.02,53.149,10.761
45.19,-117.58,22.411,17.743,16.261,-175.13,-15.634,-41.888,79.851,96.616,143.94,6.1206,149.14,20.02,53.149,10.761
45.437,-118.12,22.547,17.509,16.53,-175.47,-15.619,-41.95,79.796,96.553,144.28,5.7452,149.16,20.398,53.335,10.679
45.683,-118.66,22.685,17.273,16.798,-175.8,-15.603,-42.011,79.74,96.49,144.61,5.3707,149.18,20.78,53.523,10.6
45.683,-118.66,22.685,17.273,16.798,-175.8,-15.603,-42.011,79.74,96.49,144.61,5.3707,149.18,20.78,53.523,10.6
45.928,-119.19,22.823,17.035,17.067,-176.14,-15.585,-42.072,79.682,96.426,144.94,4.9973,149.2,21.165,53.711,10.522
45.928,-119.19,22.823,17.035,17.067,-176.14,-15.585,-42.072,79.682,96.426,144.94,4.9973,149.2,21.165,53.711,10.522
46.173,-119.73,22.962,16.796,17.336,-176.47,-15.565,-42.132,79.623,96.362,145.27,4.625,149.21,21.553,53.901,10.446
46.173,-119.73,22.962,16.796,17.336,-176.47,-15.565,-42.132,79.623,96.362,145.27,4.625,149.21,21.553,53.901,10.446
46.418,-120.27,23.101,16.555,17.606,-176.8,-15.545,-42.193,79.562,96.299,145.6,4.2538,149.22,21.943,54.092,10.371
46.418,-120.27,23.101,16.555,17.606,-176.8,-15.545,-42.193,79.562,96.299,145.6,4.2538,149.22,21.943,54.092,10.371
46.418,-120.27,23.101,16.555,17.606,-176.8,-15.545,-42.193,79.562,96.299,145.6,4.2538,149.22,21.943,54.092,10.371
46.661,-120.8,23.242,16.312,17.875,-177.13,-15.522,-42.253,79.499,96.235,145.93,3.8837,149.23,22.337,54.284,10.299
46.905,-121.34,23.383,16.068,18.145,-177.46,-15.499,-42.313,79.435,96.171,146.25,3.5147,149.24,22.733,54.477,10.228
47.147,-121.87,23.525,15.822,18.414,-177.79,-15.474,-42.373,79.369,96.106,146.57,3.1468,149.25,23.133,54.671,10.159
47.147,-121.87,23.525,15.822,18.414,-177.79,-15.474,-42.373,79.369,96.106,146.57,3.1468,149.25,23.133,54.671,10.159
47.147,-121.87,23.525,15.822,18.414,-177.79,-15.474,-42.373,79.369,96.106,146.57,3.1468,149.25,23.133,54.671,10.159
47.39,-122.4,23.667,15.574,18.684,-178.11,-15.447,-42.433,79.302,96.042,146.89,2.7802,149.25,23.535,54.867,10.092
47.39,-122.4,23.667,15.574,18.684,-178.11,-15.447,-42.433,79.302,96.042,146.89,2.7802,149.25,23.535,54.867,10.092
47.39,-122.4,23.667,15.574,18.684,-178.11,-15.447,-42.433,79.302,96.042,146.89,2.7802,149.25,23.535,54.867,10.092
47.631,-122.93,23.811,15.325,18.954,-178.43,-15.419,-42.492,79.233,95.978,147.21,2.4147,149.25,23.94,55.063,10.027
47.631,-122.93,23.811,15.325,18.954,-178.43,-15.419,-42.492,79.233,95.978,147.21,2.4147,149.25,23.94,55.063,10.027
47.872,-123.46,23.955,15.074,19.224,-178.75,-15.39,-42.552,79.162,95.913,147.52,2.0505,149.24,24.348,55.261,9.9638
48.113,-123.99,24.1,14.821,19.495,-179.07,-15.359,-42.611,79.089,95.848,147.83,1.6875,149.24,24.759,55.459,9.9024
48.113,-123.99,24.1,14.821,19.495,-179.07,-15.359,-42.611,79.089,95.848,147.83,1.6875,149.24,24.759,55.459,9.9024
48.353,-124.52,24.246,14.567,19.765,-179.39,-15.326,-42.67,79.015,95.784,148.14,1.3258,149.23,25.173,55.659,9.8429
48.353,-124.52,24.246,14.567,19.765,-179.39,-15.326,-42.67,79.015,95.784,148.14,1.3258,149.23,25.173,55.659,9.8429
48.353,-124.52,24.246,14.567,19.765,-179.39,-15.326,-42.67,79.015,95.784,148.14,1.3258,149.23,25.173,55.659,9.8429
48.592,-125.05,24.392,14.31,20.036,-179.71,-15.292,-42.729,78.94,95.719,148.45,0.96538,149.22,25.589,55.86,9.7853
48.592,-125.05,24.392,14.31,20.036,-179.71,-15.292,-42.729,78.94,95.719,148.45,0.96538,149.22,25.589,55.86,9.7853
48.831,-125.58,24.54,14.053,20.306,-180.02,-15.257,-42.787,78.863,95.654,148.75,0.60625,149.21,26.009,56.062,9.7295
48.831,-125.58,24.54,14.053,20.306,-180.02,-15.257,-42.787,78.863,95.654,148.75,0.60625,149.21,26.009,56.062,9.7295
49.07,-126.1,24.688,13.794,20.577,-180.33,-15.22,-42.846,78.784,95.589,149.05,0.24846,149.2,26.431,56.265,9.6757
49.308,-126.63,24.837,13.533,20.847,-180.64,-15.182,-42.904,78.703,95.524,149.35,-0.10798,149.18,26.855,56.469,9.6238
49.308,-126.63,24.837,13.533,20.847,-180.64,-15.182,-42.904,78.703,95.524,149.35,-0.10798,149.18,26.855,56.469,9.6238
49.545,-127.15,24.986,13.27,21.118,-180.95,-15.142,-42.962,78.621,95.459,149.65,-0.46306,149.16,27.283,56.674,9.5737
49.545,-127.15,24.986,13.27,21.118,-180.95,-15.142,-42.962,78.621,95.459,149.65,-0.46306,149.16,27.283,56.674,9.5737
49.782,-127.68,25.137,13.006,21.389,-181.26,-15.101,-43.02,78.537,95.394,149.94,-0.81673,149.14,27.713,56.88,9.5256
49.782,-127.68,25.137,13.006,21.389,-181.26,-15.101,-43.02,78.537,95.394,149.94,-0.81673,149.14,27.713,56.88,9.5256
49.782,-127.68,25.137,13.006,21.389,-181.26,-15.101,-43.02,78.537,95.394,149.94,-0.81673,149.14,27.713,56.88,9.5256
50.018,-128.2,25.288,12.741,21.66,-181.56,-15.058,-43.078,78.452,95.329,150.24,-1.169,149.11,28.146,57.087,9.4794
50.018,-128.2,25.288,12.741,21.66,-181.56,-15.058,-43.078,78.452,95.329,150.24,-1.169,149.11,28.146,57.087,9.4794
50.254,-128.72,25.44,12.473,21.931,-181.87,-15.014,-43.136,78.365,95.263,150.52,-1.5198,149.09,28.582,57.295,9.4352
50.49,-129.24,25.592,12.205,22.202,-182.17,-14.969,-43.194,78.277,95.198,150.81,-1.8692,149.06,29.02,57.504,9.3928
50.49,-129.24,25.592,12.205,22.202,-182.17,-14.969,-43.194,78.277,95.198,150.81,-1.8692,149.06,29.02,57.504,9.3928
50.725,-129.76,25.746,11.934,22.473,-182.47,-14.921,-43.251,78.187,95.133,151.09,-2.2171,149.03,29.461,57.714,9.3524
50.725,-129.76,25.746,11.934,22.473,-182.47,-14.921,-43.251,78.187,95.133,151.09,-2.2171,149.03,29.461,57.714,9.3524
50.959,-130.28,25.9,11.663,22.743,-182.77,-14.873,-43.308,78.095,95.068,151.38,-2.5635,148.99,29.904,57.925,9.314
50.959,-130.28,25.9,11.663,22.743,-182.77,-14.873,-43.308,78.095,95.068,151.38,-2.5635,148.99,29.904,57.925,9.314
51.193,-130.8,26.055,11.389,23.014,-183.06,-14.823,-43.366,78.002,95.002,151.65,-2.9084,148.96,30.351,58.137,9.2775
51.193,-130.8,26.055,11.389,23.014,-183.06,-14.823,-43.366,78.002,95.002,151.65,-2.9084,148.96,30.351,58.137,9.2775
51.427,-131.31,26.21,11.114,23.285,-183.36,-14.771,-43.423,77.907,94.937,151.93,-3.2518,148.92,30.799,58.35,9.2429
51.427,-131.31,26.21,11.114,23.285,-183.36,-14.771,-43.423,77.907,94.937,151.93,-3.2518,148.92,30.799,58.35,9.2429
51.66,-131.83,26.367,10.838,23.556,-183.65,-14.718,-43.48,77.811,94.872,152.2,-3.5936,148.88,31.251,58.564,9.2103
51.66,-131.83,26.367,10.838,23.556,-183.65,-14.718,-43.48,77.811,94.872,152.2,-3.5936,148.88,31.251,58.564,9.2103
51.893,-132.34,26.524,10.56,23.827,-183.94,-14.663,-43.537,77.713,94.806,152.47,-3.9338,148.84,31.704,58.778,9.1797
51.893,-132.34,26.524,10.56,23.827,-183.94,-14.663,-43.537,77.713,94.806,152.47,-3.9338,148.84,31.704,58.778,9.1797
52.125,-132.85,26.682,10.281,24.097,-184.23,-14.607,-43.593,77.614,94.741,152.74,-4.2725,148.79,32.161,58.994,9.151
52.125,-132.85,26.682,10.281,24.097,-184.23,-14.607,-43.593,77.614,94.741,152.74,-4.2725,148.79,32.161,58.994,9.151
52.356,-133.37,26.84,10,24.368,-184.52,-14.549,-43.65,77.513,94.676,153.01,-4.6095,148.74,32.619,59.211,9.1242
52.356,-133.37,26.84,10,24.368,-184.52,-14.549,-43.65,77.513,94.676,153.01,-4.6095,148.74,32.619,59.211,9.1242
52.588,-133.88,27,9.7182,24.639,-184.8,-14.49,-43.706,77.41,94.611,153.27,-4.9449,148.69,33.081,59.428,9.0995
52.819,-134.38,27.16,9.4347,24.909,-185.08,-14.429,-43.763,77.306,94.545,153.53,-5.2786,148.64,33.544,59.647,9.0767
52.819,-134.38,27.16,9.4347,24.909,-185.08,-14.429,-43.763,77.306,94.545,153.53,-5.2786,148.64,33.544,59.647,9.0767
53.049,-134.89,27.321,9.1497,25.179,-185.36,-14.367,-43.819,77.2,94.48,153.79,-5.6107,148.58,34.011,59.866,9.0559
53.049,-134.89,27.321,9.1497,25.179,-185.36,-14.367,-43.819,77.2,94.48,153.79,-5.6107,148.58,34.011,59.866,9.0559
53.049,-134.89,27.321,9.1497,25.179,-185.36,-14.367,-43.819,77.2,94.48,153.79,-5.6107,148.58,34.011,59.866,9.0559
53.279,-135.4,27.482,8.8633,25.45,-185.64,-14.303,-43.875,77.093,94.415,154.04,-5.9411,148.53,34.479,60.086,9.0371
53.279,-135.4,27.482,8.8633,25.45,-185.64,-14.303,-43.875,77.093,94.415,154.04,-5.9411,148.53,34.479,60.086,9.0371
53.279,-135.4,27.482,8.8633,25.45,-185.64,-14.303,-43.875,77.093,94.415,154.04,-5.9411,148.53,34.479,60.086,9.0371
53.509,-135.9,27.645,8.5755,25.72,-185.92,-14.238,-43.931,76.985,94.35,154.29,-6.2698,148.47,34.95,60.307,9.0202
53.509,-135.9,27.645,8.5755,25.72,-185.92,-14.238,-43.931,76.985,94.35,154.29,-6.2698,148.47,34.95,60.307,9.0202
53.738,-136.41,27.808,8.2864,25.99,-186.2,-14.171,-43.987,76.874,94.285,154.54,-6.5967,148.4,35.423,60.529,9.0053
53.966,-136.91,27.971,7.9959,26.259,-186.47,-14.103,-44.043,76.763,94.22,154.79,-6.9219,148.34,35.899,60.752,8.9925
53.966,-136.91,27.971,7.9959,26.259,-186.47,-14.103,-44.043,76.763,94.22,154.79,-6.9219,148.34,35.899,60.752,8.9925
54.195,-137.41,28.136,7.7041,26.529,-186.74,-14.033,-44.099,76.649,94.155,155.03,-7.2454,148.27,36.377,60.975,8.9816
54.195,-137.41,28.136,7.7041,26.529,-186.74,-14.033,-44.099,76.649,94.155,155.03,-7.2454,148.27,36.377,60.975,8.9816
54.423,-137.91,28.301,7.4109,26.799,-187.01,-13.962,-44.155,76.535,94.09,155.28,-7.567,148.2,36.857,61.2,8.9727
54.423,-137.91,28.301,7.4109,26.799,-187.01,-13.962,-44.155,76.535,94.09,155.28,-7.567,148.2,36.857,61.2,8.9727
54.65,-138.41,28.467,7.1164,27.068,-187.28,-13.889,-44.21,76.418,94.025,155.51,-7.8869,148.13,37.34,61.425,8.9658
54.65,-138.41,28.467,7.1164,27.068,-187.28,-13.889,-44.21,76.418,94.025,155.51,-7.8869,148.13,37.34,61.425,8.9658
54.877,-138.91,28.634,6.8206,27.337,-187.55,-13.815,-44.266,76.301,93.96,155.75,-8.2049,148.06,37.824,61.65,8.9608
54.877,-138.91,28.634,6.8206,27.337,-187.55,-13.815,-44.266,76.301,93.96,155.75,-8.2049,148.06,37.824,61.65,8.9608
55.104,-139.4,28.801,6.5236,27.606,-187.81,-13.739,-44.321,76.181,93.896,155.98,-8.5211,147.98,38.311,61.877,8.9579
55.104,-139.4,28.801,6.5236,27.606,-187.81,-13.739,-44.321,76.181,93.896,155.98,-8.5211,147.98,38.311,61.877,8.9579
55.33,-139.9,28.969,6.2252,27.874,-188.07,-13.662,-44.376,76.061,93.831,156.21,-8.8355,147.9,38.8,62.104,8.957
55.33,-139.9,28.969,6.2252,27.874,-188.07,-13.662,-44.376,76.061,93.831,156.21,-8.8355,147.9,38.8,62.104,8.957
55.556,-140.39,29.138,5.9256,28.143,-188.34,-13.583,-44.432,75.938,93.766,156.44,-9.1479,147.82,39.291,62.332,8.9581
55.556,-140.39,29.138,5.9256,28.143,-188.34,-13.583,-44.432,75.938,93.766,156.44,-9.1479,147.82,39.291,62.332,8.9581
55.782,-140.88,29.307,5.6248,28.411,-188.59,-13.503,-44.487,75.815,93.702,156.66,-9.4585,147.74,39.785,62.561,8.9612
55.782,-140.88,29.307,5.6248,28.411,-188.59,-13.503,-44.487,75.815,93.702,156.66,-9.4585,147.74,39.785,62.561,8.9612
56.007,-141.37,29.477,5.3228,28.679,-188.85,-13.421,-44.542,75.69,93.638,156.88,-9.7672,147.65,40.28,62.791,8.9662
56.007,-141.37,29.477,5.3228,28.679,-188.85,-13.421,-44.542,75.69,93.638,156.88,-9.7672,147.65,40.28,62.791,8.9662
56.232,-141.86,29.648,5.0195,28.946,-189.1,-13.337,-44.597,75.563,93.573,157.1,-10.074,147.56,40.778,63.021,8.9733
56.232,-141.86,29.648,5.0195,28.946,-189.1,-13.337,-44.597,75.563,93.573,157.1,-10.074,147.56,40.778,63.021,8.9733
56.456,-142.34,29.819,4.7151,29.214,-189.36,-13.252,-44.651,75.435,93.509,157.32,-10.379,147.47,41.277,63.252,8.9824
56.456,-142.34,29.819,4.7151,29.214,-189.36,-13.252,-44.651,75.435,93.509,157.32,-10.379,147.47,41.277,63.252,8.9824
56.681,-142.83,29.992,4.4095,29.481,-189.61,-13.166,-44.706,75.306,93.445,157.53,-10.682,147.38,41.779,63.483,8.9935
56.681,-142.83,29.992,4.4095,29.481,-189.61,-13.166,-44.706,75.306,93.445,157.53,-10.682,147.38,41.779,63.483,8.9935
56.681,-142.83,29.992,4.4095,29.481,-189.61,-13.166,-44.706,75.306,93.445,157.53,-10.682,147.38,41.779,63.483,8.9935
56.904,-143.31,30.164,4.1027,29.747,-189.86,-13.078,-44.761,75.175,93.381,157.74,-10.982,147.28,42.283,63.715,9.0066
57.128,-143.79,30.338,3.7948,30.014,-190.1,-12.989,-44.816,75.042,93.317,157.95,-11.281,147.18,42.788,63.948,9.0217
57.128,-143.79,30.338,3.7948,30.014,-190.1,-12.989,-44.816,75.042,93.317,157.95,-11.281,147.18,42.788,63.948,9.0217
57.128,-143.79,30.338,3.7948,30.014,-190.1,-12.989,-44.816,75.042,93.317,157.95,-11.281,147.18,42.788,63.948,9.0217
57.351,-144.27,30.512,3.4858,30.28,-190.35,-12.898,-44.87,74.908,93.253,158.15,-11.578,147.08,43.296,64.181,9.0388
57.351,-144.27,30.512,3.4858,30.28,-190.35,-12.898,-44.87,74.908,93.253,158.15,-11.578,147.08,43.296,64.181,9.0388
57.573,-144.75,30.687,3.1757,30.545,-190.59,-12.805,-44.924,74.773,93.19,158.36,-11.873,146.98,43.805,64.415,9.0579
57.573,-144.75,30.687,3.1757,30.545,-190.59,-12.805,-44.924,74.773,93.19,158.36,-11.873,146.98,43.805,64.415,9.0579
57.796,-145.23,30.862,2.8644,30.811,-190.83,-12.711,-44.979,74.636,93.126,158.55,-12.166,146.88,44.317,64.65,9.079
57.796,-145.23,30.862,2.8644,30.811,-190.83,-12.711,-44.979,74.636,93.126,158.55,-12.166,146.88,44.317,64.65,9.079
57.796,-145.23,30.862,2.8644,30.811,-190.83,-12.711,-44.979,74.636,93.126,158.55,-12.166,146.88,44.317,64.65,9.079
58.239,-146.18,31.215,2.2388,31.34,-191.3,-12.519,-45.087,74.359,92.999,158.94,-12.745,146.66,45.345,65.12,9.1272
58.239,-146.18,31.215,2.2388,31.34,-191.3,-12.519,-45.087,74.359,92.999,158.94,-12.745,146.66,45.345,65.12,9.1272
58.461,-146.65,31.392,1.9244,31.604,-191.54,-12.421,-45.141,74.218,92.936,159.13,-13.032,146.55,45.862,65.357,9.1543
58.461,-146.65,31.392,1.9244,31.604,-191.54,-12.421,-45.141,74.218,92.936,159.13,-13.032,146.55,45.862,65.357,9.1543
58.682,-147.12,31.57,1.6091,31.868,-191.77,-12.321,-45.195,74.076,92.873,159.32,-13.316,146.43,46.38,65.593,9.1835
58.682,-147.12,31.57,1.6091,31.868,-191.77,-12.321,-45.195,74.076,92.873,159.32,-13.316,146.43,46.38,65.593,9.1835
58.902,-147.58,31.749,1.2927,32.131,-192,-12.22,-45.249,73.932,92.81,159.5,-13.599,146.31,46.901,65.83,9.2146
58.902,-147.58,31.749,1.2927,32.131,-192,-12.22,-45.249,73.932,92.81,159.5,-13.599,146.31,46.901,65.83,9.2146
59.123,-148.05,31.928,0.97533,32.394,-192.23,-12.117,-45.303,73.787,92.747,159.68,-13.879,146.2,47.423,66.068,9.2477
59.123,-148.05,31.928,0.97533,32.394,-192.23,-12.117,-45.303,73.787,92.747,159.68,-13.879,146.2,47.423,66.068,9.2477
59.123,-148.05,31.928,0.97533,32.394,-192.23,-12.117,-45.303,73.787,92.747,159.68,-13.879,146.2,47.423,66.068,9.2477
59.343,-148.51,32.107,0.65701,32.656,-192.45,-12.013,-45.357,73.641,92.684,159.86,-14.157,146.07,47.947,66.306,9.2828
59.562,-148.98,32.288,0.33776,32.918,-192.68,-11.907,-45.41,73.493,92.622,160.04,-14.433,145.95,48.472,66.545,9.3199
59.562,-148.98,32.288,0.33776,32.918,-192.68,-11.907,-45.41,73.493,92.622,160.04,-14.433,145.95,48.472,66.545,9.3199
59.782,-149.44,32.469,0.017588,33.179,-192.9,-11.8,-45.464,73.344,92.559,160.21,-14.706,145.82,48.999,66.783,9.359
60.001,-149.9,32.65,-0.30348,33.44,-193.12,-11.691,-45.517,73.193,92.497,160.38,-14.978,145.7,49.528,67.023,9.4001
60.001,-149.9,32.65,-0.30348,33.44,-193.12,-11.691,-45.517,73.193,92.497,160.38,-14.978,145.7,49.528,67.023,9.4001
60.001,-149.9,32.65,-0.30348,33.44,-193.12,-11.691,-45.517,73.193,92.497,160.38,-14.978,145.7,49.528,67.023,9.4001
60.219,-150.35,32.832,-0.62544,33.7,-193.33,-11.581,-45.571,73.041,92.435,160.54,-15.247,145.57,50.058,67.263,9.4432
60.219,-150.35,32.832,-0.62544,33.7,-193.33,-11.581,-45.571,73.041,92.435,160.54,-15.247,145.57,50.058,67.263,9.4432
60.438,-150.81,33.015,-0.94825,33.959,-193.55,-11.469,-45.624,72.888,92.373,160.71,-15.514,145.43,50.59,67.503,9.4882
60.438,-150.81,33.015,-0.94825,33.959,-193.55,-11.469,-45.624,72.888,92.373,160.71,-15.514,145.43,50.59,67.503,9.4882
60.656,-151.26,33.198,-1.2719,34.219,-193.76,-11.356,-45.677,72.733,92.311,160.87,-15.779,145.3,51.123,67.743,9.5353
60.656,-151.26,33.198,-1.2719,34.219,-193.76,-11.356,-45.677,72.733,92.311,160.87,-15.779,145.3,51.123,67.743,9.5353
60.873,-151.71,33.382,-1.5964,34.477,-193.97,-11.242,-45.73,72.577,92.249,161.02,-16.042,145.16,51.657,67.984,9.5843
60.873,-151.71,33.382,-1.5964,34.477,-193.97,-11.242,-45.73,72.577,92.249,161.02,-16.042,145.16,51.657,67.984,9.5843
61.091,-152.16,33.566,-1.9216,34.735,-194.18,-11.126,-45.783,72.42,92.188,161.18,-16.302,145.02,52.194,68.225,9.6353
61.091,-152.16,33.566,-1.9216,34.735,-194.18,-11.126,-45.783,72.42,92.188,161.18,-16.302,145.02,52.194,68.225,9.6353
61.308,-152.6,33.751,-2.2477,34.992,-194.38,-11.009,-45.836,72.262,92.126,161.33,-16.56,144.88,52.731,68.466,9.6883
61.308,-152.6,33.751,-2.2477,34.992,-194.38,-11.009,-45.836,72.262,92.126,161.33,-16.56,144.88,52.731,68.466,9.6883
61.524,-153.05,33.937,-2.5745,35.249,-194.59,-10.89,-45.888,72.102,92.065,161.48,-16.815,144.73,53.27,68.708,9.7432
61.524,-153.05,33.937,-2.5745,35.249,-194.59,-10.89,-45.888,72.102,92.065,161.48,-16.815,144.73,53.27,68.708,9.7432
61.741,-153.49,34.123,-2.902,35.505,-194.79,-10.77,-45.941,71.941,92.004,161.62,-17.069,144.59,53.81,68.95,9.8002
61.957,-153.93,34.309,-3.2303,35.76,-194.99,-10.648,-45.993,71.778,91.943,161.76,-17.32,144.44,54.352,69.192,9.859
61.957,-153.93,34.309,-3.2303,35.76,-194.99,-10.648,-45.993,71.778,91.943,161.76,-17.32,144.44,54.352,69.192,9.859
61.957,-153.93,34.309,-3.2303,35.76,-194.99,-10.648,-45.993,71.778,91.943,161.76,-17.32,144.44,54.352,69.192,9.859
62.173,-154.37,34.496,-3.5593,36.015,-195.18,-10.526,-46.046,71.615,91.882,161.9,-17.568,144.29,54.895,69.434,9.9199
62.173,-154.37,34.496,-3.5593,36.015,-195.18,-10.526,-46.046,71.615,91.882,161.9,-17.568,144.29,54.895,69.434,9.9199
62.388,-154.8,34.683,-3.8889,36.269,-195.38,-10.401,-46.098,71.45,91.821,162.04,-17.815,144.13,55.439,69.677,9.9827
62.388,-154.8,34.683,-3.8889,36.269,-195.38,-10.401,-46.098,71.45,91.821,162.04,-17.815,144.13,55.439,69.677,9.9827
62.388,-154.8,34.683,-3.8889,36.269,-195.38,-10.401,-46.098,71.45,91.821,162.04,-17.815,144.13,55.439,69.677,9.9827
62.603,-155.24,34.871,-4.2191,36.523,-195.57,-10.276,-46.15,71.283,91.761,162.17,-18.059,143.98,55.984,69.919,10.047
62.603,-155.24,34.871,-4.2191,36.523,-195.57,-10.276,-46.15,71.283,91.761,162.17,-18.059,143.98,55.984,69.919,10.047
62.818,-155.67,35.06,-4.5501,36.775,-195.76,-10.149,-46.202,71.116,91.701,162.3,-18.3,143.82,56.53,70.162,10.114
63.032,-156.1,35.248,-4.8816,37.027,-195.95,-10.02,-46.254,70.947,91.64,162.42,-18.539,143.66,57.078,70.405,10.183
63.032,-156.1,35.248,-4.8816,37.027,-195.95,-10.02,-46.254,70.947,91.64,162.42,-18.539,143.66,57.078,70.405,10.183
63.246,-156.52,35.438,-5.2136,37.278,-196.13,-9.8903,-46.306,70.777,91.58,162.55,-18.776,143.5,57.627,70.648,10.253
63.246,-156.52,35.438,-5.2136,37.278,-196.13,-9.8903,-46.306,70.777,91.58,162.55,-18.776,143.5,57.627,70.648,10.253
63.46,-156.95,35.628,-5.5463,37.528,-196.31,-9.7592,-46.357,70.606,91.521,162.67,-19.01,143.33,58.176,70.892,10.326
63.46,-156.95,35.628,-5.5463,37.528,-196.31,-9.7592,-46.357,70.606,91.521,162.67,-19.01,143.33,58.176,70.892,10.326
63.674,-157.37,35.818,-5.8795,37.778,-196.49,-9.6267,-46.408,70.433,91.461,162.78,-19.242,143.17,58.727,71.135,10.4
63.674,-157.37,35.818,-5.8795,37.778,-196.49,-9.6267,-46.408,70.433,91.461,162.78,-19.242,143.17,58.727,71.135,10.4
63.674,-157.37,35.818,-5.8795,37.778,-196.49,-9.6267,-46.408,70.433,91.461,162.78,-19.242,143.17,58.727,71.135,10.4
63.887,-157.79,36.008,-6.2132,38.027,-196.67,-9.4929,-46.46,70.259,91.401,162.9,-19.471,143,59.279,71.378,10.477
64.1,-158.21,36.199,-6.5474,38.274,-196.84,-9.3578,-46.511,70.084,91.342,163.01,-19.698,142.83,59.832,71.621,10.555
64.1,-158.21,36.199,-6.5474,38.274,-196.84,-9.3578,-46.511,70.084,91.342,163.01,-19.698,142.83,59.832,71.621,10.555
64.312,-158.62,36.391,-6.882,38.521,-197.02,-9.2214,-46.562,69.908,91.283,163.11,-19.923,142.65,60.385,71.865,10.635
64.312,-158.62,36.391,-6.882,38.521,-197.02,-9.2214,-46.562,69.908,91.283,163.11,-19.923,142.65,60.385,71.865,10.635
64.524,-159.03,36.583,-7.2171,38.768,-197.18,-9.0836,-46.612,69.73,91.224,163.22,-20.144,142.48,60.94,72.108,10.717
64.524,-159.03,36.583,-7.2171,38.768,-197.18,-9.0836,-46.612,69.73,91.224,163.22,-20.144,142.48,60.94,72.108,10.717
64.524,-159.03,36.583,-7.2171,38.768,-197.18,-9.0836,-46.612,69.73,91.224,163.22,-20.144,142.48,60.94,72.108,10.717
64.736,-159.44,36.775,-7.5527,39.013,-197.35,-8.9446,-46.663,69.552,91.165,163.32,-20.364,142.3,61.496,72.351,10.801
64.947,-159.85,36.968,-7.8886,39.257,-197.52,-8.8042,-46.713,69.372,91.106,163.42,-20.581,142.12,62.052,72.594,10.887
64.947,-159.85,36.968,-7.8886,39.257,-197.52,-8.8042,-46.713,69.372,91.106,163.42,-20.581,142.12,62.052,72.594,10.887
64.947,-159.85,36.968,-7.8886,39.257,-197.52,-8.8042,-46.713,69.372,91.106,163.42,-20.581,142.12,62.052,72.594,10.887
65.159,-160.26,37.161,-8.2249,39.501,-197.68,-8.6626,-46.764,69.191,91.047,163.51,-20.795,141.94,62.609,72.837,10.975
65.159,-160.26,37.161,-8.2249,39.501,-197.68,-8.6626,-46.764,69.191,91.047,163.51,-20.795,141.94,62.609,72.837,10.975
65.159,-160.26,37.161,-8.2249,39.501,-197.68,-8.6626,-46.764,69.191,91.047,163.51,-20.795,141.94,62.609,72.837,10.975
65.58,-161.06,37.548,-8.8985,39.985,-197.99,-8.3757,-46.864,68.825,90.931,163.69,-21.216,141.57,63.726,73.323,11.156
65.58,-161.06,37.548,-8.8985,39.985,-197.99,-8.3757,-46.864,68.825,90.931,163.69,-21.216,141.57,63.726,73.323,11.156
65.58,-161.06,37.548,-8.8985,39.985,-197.99,-8.3757,-46.864,68.825,90.931,163.69,-21.216,141.57,63.726,73.323,11.156
65.79,-161.45,37.742,-9.2358,40.225,-198.15,-8.2303,-46.913,68.64,90.873,163.78,-21.423,141.38,64.285,73.566,11.25
65.999,-161.85,37.936,-9.5733,40.465,-198.3,-8.0837,-46.963,68.455,90.815,163.86,-21.627,141.19,64.845,73.809,11.345
65.999,-161.85,37.936,-9.5733,40.465,-198.3,-8.0837,-46.963,68.455,90.815,163.86,-21.627,141.19,64.845,73.809,11.345
65.999,-161.85,37.936,-9.5733,40.465,-198.3,-8.0837,-46.963,68.455,90.815,163.86,-21.627,141.19,64.845,73.809,11.345
66.209,-162.24,38.131,-9.9111,40.704,-198.45,-7.9359,-47.012,68.268,90.757,163.94,-21.828,141,65.405,74.051,11.442
66.209,-162.24,38.131,-9.9111,40.704,-198.45,-7.9359,-47.012,68.268,90.757,163.94,-21.828,141,65.405,74.051,11.442
66.209,-162.24,38.131,-9.9111,40.704,-198.45,-7.9359,-47.012,68.268,90.757,163.94,-21.828,141,65.405,74.051,11.442
66.209,-162.24,38.131,-9.9111,40.704,-198.45,-7.9359,-47.012,68.268,90.757,163.94,-21.828,141,65.405,74.051,11.442
66.626,-163.02,38.521,-10.587,41.178,-198.74,-7.6366,-47.11,67.89,90.642,164.08,-22.223,140.6,66.528,74.535,11.642
66.626,-163.02,38.521,-10.587,41.178,-198.74,-7.6366,-47.11,67.89,90.642,164.08,-22.223,140.6,66.528,74.535,11.642
66.834,-163.4,38.717,-10.926,41.413,-198.88,-7.4852,-47.158,67.7,90.585,164.15,-22.417,140.4,67.09,74.777,11.745
67.042,-163.78,38.912,-11.264,41.647,-199.02,-7.3326,-47.207,67.508,90.528,164.22,-22.608,140.2,67.653,75.018,11.849
67.042,-163.78,38.912,-11.264,41.647,-199.02,-7.3326,-47.207,67.508,90.528,164.22,-22.608,140.2,67.653,75.018,11.849
67.249,-164.16,39.108,-11.603,41.881,-199.15,-7.1789,-47.255,67.316,90.471,164.28,-22.796,140,68.216,75.259,11.956
67.249,-164.16,39.108,-11.603,41.881,-199.15,-7.1789,-47.255,67.316,90.471,164.28,-22.796,140,68.216,75.259,11.956
67.456,-164.54,39.305,-11.942,42.113,-199.29,-7.024,-47.302,67.122,90.414,164.34,-22.982,139.79,68.78,75.499,12.064
67.456,-164.54,39.305,-11.942,42.113,-199.29,-7.024,-47.302,67.122,90.414,164.34,-22.982,139.79,68.78,75.499,12.064
67.663,-164.91,39.501,-12.281,42.344,-199.42,-6.868,-47.35,66.927,90.358,164.39,-23.165,139.59,69.344,75.74,12.174
67.663,-164.91,39.501,-12.281,42.344,-199.42,-6.868,-47.35,66.927,90.358,164.39,-23.165,139.59,69.344,75.74,12.174
67.869,-165.28,39.698,-12.619,42.574,-199.54,-6.7109,-47.397,66.731,90.301,164.44,-23.345,139.38,69.908,75.98,12.285
67.869,-165.28,39.698,-12.619,42.574,-199.54,-6.7109,-47.397,66.731,90.301,164.44,-23.345,139.38,69.908,75.98,12.285
67.869,-165.28,39.698,-12.619,42.574,-199.54,-6.7109,-47.397,66.731,90.301,164.44,-23.345,139.38,69.908,75.98,12.285
68.075,-165.64,39.895,-12.958,42.802,-199.67,-6.5526,-47.444,66.534,90.245,164.49,-23.523,139.17,70.472,76.219,12.399
68.075,-165.64,39.895,-12.958,42.802,-199.67,-6.5526,-47.444,66.534,90.245,164.49,-23.523,139.17,70.472,76.219,12.399
68.28,-166.01,40.092,-13.297,43.03,-199.79,-6.3933,-47.491,66.336,90.189,164.54,-23.698,138.95,71.037,76.458,12.514
68.28,-166.01,40.092,-13.297,43.03,-199.79,-6.3933,-47.491,66.336,90.189,164.54,-23.698,138.95,71.037,76.458,12.514
68.485,-166.37,40.289,-13.636,43.256,-199.91,-6.2329,-47.538,66.136,90.133,164.58,-23.87,138.74,71.602,76.697,12.631
68.485,-166.37,40.289,-13.636,43.256,-199.91,-6.2329,-47.538,66.136,90.133,164.58,-23.87,138.74,71.602,76.697,12.631
68.485,-166.37,40.289,-13.636,43.256,-199.91,-6.2329,-47.538,66.136,90.133,164.58,-23.87,138.74,71.602,76.697,12.631
68.893,-167.08,40.684,-14.314,43.704,-200.13,-5.9088,-47.63,65.734,90.022,164.65,-24.207,138.3,72.732,77.172,12.871
68.893,-167.08,40.684,-14.314,43.704,-200.13,-5.9088,-47.63,65.734,90.022,164.65,-24.207,138.3,72.732,77.172,12.871
68.893,-167.08,40.684,-14.314,43.704,-200.13,-5.9088,-47.63,65.734,90.022,164.65,-24.207,138.3,72.732,77.172,12.871
69.097,-167.44,40.882,-14.652,43.927,-200.24,-5.7453,-47.675,65.532,89.966,164.69,-24.371,138.08,73.297,77.409,12.993
69.3,-167.78,41.08,-14.991,44.148,-200.35,-5.5807,-47.721,65.328,89.911,164.71,-24.532,137.85,73.863,77.646,13.117
69.3,-167.78,41.08,-14.991,44.148,-200.35,-5.5807,-47.721,65.328,89.911,164.71,-24.532,137.85,73.863,77.646,13.117
69.502,-168.13,41.278,-15.329,44.368,-200.45,-5.4151,-47.765,65.124,89.856,164.74,-24.69,137.63,74.428,77.882,13.243
69.502,-168.13,41.278,-15.329,44.368,-200.45,-5.4151,-47.765,65.124,89.856,164.74,-24.69,137.63,74.428,77.882,13.243
69.704,-168.47,41.476,-15.667,44.586,-200.55,-5.2485,-47.81,64.918,89.801,164.76,-24.846,137.4,74.994,78.117,13.37
69.704,-168.47,41.476,-15.667,44.586,-200.55,-5.2485,-47.81,64.918,89.801,164.76,-24.846,137.4,74.994,78.117,13.37
69.906,-168.81,41.674,-16.005,44.803,-200.65,-5.0809,-47.854,64.711,89.746,164.78,-24.999,137.17,75.559,78.352,13.499
69.906,-168.81,41.674,-16.005,44.803,-200.65,-5.0809,-47.854,64.711,89.746,164.78,-24.999,137.17,75.559,78.352,13.499
70.107,-169.15,41.872,-16.342,45.019,-200.75,-4.9124,-47.898,64.503,89.691,164.8,-25.149,136.94,76.124,78.586,13.63
70.308,-169.48,42.07,-16.68,45.233,-200.84,-4.743,-47.942,64.295,89.637,164.81,-25.297,136.7,76.689,78.819,13.762
70.308,-169.48,42.07,-16.68,45.233,-200.84,-4.743,-47.942,64.295,89.637,164.81,-25.297,136.7,76.689,78.819,13.762
70.308,-169.48,42.07,-16.68,45.233,-200.84,-4.743,-47.942,64.295,89.637,164.81,-25.297,136.7,76.689,78.819,13.762
70.308,-169.48,42.07,-16.68,45.233,-200.84,-4.743,-47.942,64.295,89.637,164.81,-25.297,136.7,76.689,78.819,13.762
70.508,-169.81,42.268,-17.017,45.446,-200.92,-4.5726,-47.985,64.085,89.583,164.82,-25.441,136.47,77.254,79.052,13.897
70.508,-169.81,42.268,-17.017,45.446,-200.92,-4.5726,-47.985,64.085,89.583,164.82,-25.441,136.47,77.254,79.052,13.897
70.508,-169.81,42.268,-17.017,45.446,-200.92,-4.5726,-47.985,64.085,89.583,164.82,-25.441,136.47,77.254,79.052,13.897
70.906,-170.46,42.664,-17.69,45.867,-201.09,-4.2291,-48.07,63.662,89.474,164.82,-25.722,135.99,78.383,79.515,14.17
70.906,-170.46,42.664,-17.69,45.867,-201.09,-4.2291,-48.07,63.662,89.474,164.82,-25.722,135.99,78.383,79.515,14.17
71.105,-170.78,42.863,-18.026,46.075,-201.17,-4.056,-48.112,63.449,89.42,164.82,-25.858,135.75,78.947,79.745,14.309
71.105,-170.78,42.863,-18.026,46.075,-201.17,-4.056,-48.112,63.449,89.42,164.82,-25.858,135.75,78.947,79.745,14.309
71.302,-171.1,43.061,-18.361,46.282,-201.25,-3.8821,-48.153,63.235,89.367,164.81,-25.991,135.5,79.511,79.974,14.449
71.302,-171.1,43.061,-18.361,46.282,-201.25,-3.8821,-48.153,63.235,89.367,164.81,-25.991,135.5,79.511,79.974,14.449
71.5,-171.42,43.259,-18.696,46.488,-201.32,-3.7073,-48.195,63.021,89.313,164.81,-26.122,135.26,80.074,80.203,14.592
71.696,-171.73,43.457,-19.031,46.691,-201.39,-3.5318,-48.235,62.805,89.259,164.79,-26.249,135.01,80.637,80.431,14.736
71.696,-171.73,43.457,-19.031,46.691,-201.39,-3.5318,-48.235,62.805,89.259,164.79,-26.249,135.01,80.637,80.431,14.736
71.696,-171.73,43.457,-19.031,46.691,-201.39,-3.5318,-48.235,62.805,89.259,164.79,-26.249,135.01,80.637,80.431,14.736
71.893,-172.03,43.655,-19.365,46.894,-201.45,-3.3554,-48.276,62.588,89.206,164.78,-26.374,134.76,81.2,80.657,14.881
71.893,-172.03,43.655,-19.365,46.894,-201.45,-3.3554,-48.276,62.588,89.206,164.78,-26.374,134.76,81.2,80.657,14.881
71.893,-172.03,43.655,-19.365,46.894,-201.45,-3.3554,-48.276,62.588,89.206,164.78,-26.374,134.76,81.2,80.657,14.881
72.088,-172.34,43.853,-19.698,47.094,-201.52,-3.1782,-48.315,62.37,89.153,164.76,-26.496,134.51,81.762,80.883,15.028
72.283,-172.64,44.05,-20.031,47.293,-201.58,-3.0002,-48.355,62.151,89.1,164.74,-26.615,134.26,82.324,81.108,15.177
72.283,-172.64,44.05,-20.031,47.293,-201.58,-3.0002,-48.355,62.151,89.1,164.74,-26.615,134.26,82.324,81.108,15.177
72.477,-172.93,44.248,-20.364,47.49,-201.63,-2.8215,-48.394,61.931,89.047,164.71,-26.731,134,82.884,81.332,15.327
72.477,-172.93,44.248,-20.364,47.49,-201.63,-2.8215,-48.394,61.931,89.047,164.71,-26.731,134,82.884,81.332,15.327
72.671,-173.23,44.445,-20.696,47.686,-201.68,-2.6421,-48.432,61.711,88.994,164.68,-26.844,133.75,83.445,81.555,15.479
72.671,-173.23,44.445,-20.696,47.686,-201.68,-2.6421,-48.432,61.711,88.994,164.68,-26.844,133.75,83.445,81.555,15.479
72.864,-173.52,44.643,-21.027,47.88,-201.73,-2.462,-48.47,61.489,88.941,164.65,-26.955,133.49,84.004,81.777,15.632
72.864,-173.52,44.643,-21.027,47.88,-201.73,-2.462,-48.47,61.489,88.941,164.65,-26.955,133.49,84.004,81.777,15.632
72.864,-173.52,44.643,-21.027,47.88,-201.73,-2.462,-48.47,61.489,88.941,164.65,-26.955,133.49,84.004,81.777,15.632
73.056,-173.8,44.84,-21.357,48.072,-201.78,-2.2811,-48.507,61.267,88.889,164.61,-27.062,133.23,84.563,81.998,15.786
73.248,-174.09,45.036,-21.687,48.263,-201.82,-2.0996,-48.544,61.043,88.836,164.57,-27.167,132.97,85.122,82.218,15.943
73.248,-174.09,45.036,-21.687,48.263,-201.82,-2.0996,-48.544,61.043,88.836,164.57,-27.167,132.97,85.122,82.218,15.943
73.439,-174.37,45.233,-22.016,48.451,-201.86,-1.9175,-48.581,60.818,88.784,164.53,-27.268,132.7,85.679,82.437,16.1
73.439,-174.37,45.233,-22.016,48.451,-201.86,-1.9175,-48.581,60.818,88.784,164.53,-27.268,132.7,85.679,82.437,16.1
73.629,-174.64,45.43,-22.344,48.638,-201.9,-1.7347,-48.616,60.593,88.732,164.48,-27.367,132.44,86.236,82.654,16.259
73.629,-174.64,45.43,-22.344,48.638,-201.9,-1.7347,-48.616,60.593,88.732,164.48,-27.367,132.44,86.236,82.654,16.259
73.818,-174.91,45.626,-22.672,48.824,-201.93,-1.5513,-48.652,60.367,88.68,164.43,-27.463,132.17,86.791,82.871,16.42
73.818,-174.91,45.626,-22.672,48.824,-201.93,-1.5513,-48.652,60.367,88.68,164.43,-27.463,132.17,86.791,82.871,16.42
73.818,-174.91,45.626,-22.672,48.824,-201.93,-1.5513,-48.652,60.367,88.68,164.43,-27.463,132.17,86.791,82.871,16.42
74.007,-175.18,45.822,-22.998,49.007,-201.96,-1.3673,-48.686,60.14,88.628,164.37,-27.556,131.9,87.346,83.086,16.582
74.195,-175.44,46.017,-23.324,49.188,-201.98,-1.1827,-48.72,59.911,88.576,164.32,-27.646,131.63,87.9,83.3,16.745
74.195,-175.44,46.017,-23.324,49.188,-201.98,-1.1827,-48.72,59.911,88.576,164.32,-27.646,131.63,87.9,83.3,16.745
74.195,-175.44,46.017,-23.324,49.188,-201.98,-1.1827,-48.72,59.911,88.576,164.32,-27.646,131.63,87.9,83.3,16.745
74.382,-175.71,46.212,-23.649,49.368,-202,-0.99756,-48.754,59.682,88.524,164.26,-27.733,131.36,88.453,83.513,16.91
74.382,-175.71,46.212,-23.649,49.368,-202,-0.99756,-48.754,59.682,88.524,164.26,-27.733,131.36,88.453,83.513,16.91
74.382,-175.71,46.212,-23.649,49.368,-202,-0.99756,-48.754,59.682,88.524,164.26,-27.733,131.36,88.453,83.513,16.91
74.755,-176.22,46.602,-24.296,49.721,-202.04,-0.62572,-48.819,59.222,88.421,164.12,-27.898,130.8,89.556,83.935,17.244
74.755,-176.22,46.602,-24.296,49.721,-202.04,-0.62572,-48.819,59.222,88.421,164.12,-27.898,130.8,89.556,83.935,17.244
74.939,-176.47,46.796,-24.618,49.895,-202.05,-0.43906,-48.851,58.99,88.37,164.05,-27.976,130.53,90.106,84.144,17.413
74.939,-176.47,46.796,-24.618,49.895,-202.05,-0.43906,-48.851,58.99,88.37,164.05,-27.976,130.53,90.106,84.144,17.413
74.939,-176.47,46.796,-24.618,49.895,-202.05,-0.43906,-48.851,58.99,88.37,164.05,-27.976,130.53,90.106,84.144,17.413
75.123,-176.71,46.99,-24.939,50.067,-202.05,-0.25193,-48.882,58.757,88.319,163.97,-28.051,130.25,90.654,84.351,17.583
75.123,-176.71,46.99,-24.939,50.067,-202.05,-0.25193,-48.882,58.757,88.319,163.97,-28.051,130.25,90.654,84.351,17.583
75.123,-176.71,46.99,-24.939,50.067,-202.05,-0.25193,-48.882,58.757,88.319,163.97,-28.051,130.25,90.654,84.351,17.583
75.489,-177.19,47.377,-25.578,50.405,-202.06,0.12366,-48.942,58.289,88.216,163.81,-28.192,129.68,91.748,84.762,17.928
75.489,-177.19,47.377,-25.578,50.405,-202.06,0.12366,-48.942,58.289,88.216,163.81,-28.192,129.68,91.748,84.762,17.928
75.67,-177.42,47.569,-25.896,50.571,-202.05,0.31207,-48.971,58.054,88.165,163.73,-28.259,129.4,92.293,84.966,18.102
75.67,-177.42,47.569,-25.896,50.571,-202.05,0.31207,-48.971,58.054,88.165,163.73,-28.259,129.4,92.293,84.966,18.102
75.67,-177.42,47.569,-25.896,50.571,-202.05,0.31207,-48.971,58.054,88.165,163.73,-28.259,129.4,92.293,84.966,18.102
75.851,-177.65,47.761,-26.212,50.735,-202.04,0.50086,-49,57.818,88.115,163.64,-28.322,129.11,92.836,85.167,18.277
76.031,-177.88,47.953,-26.528,50.897,-202.03,0.69001,-49.027,57.581,88.064,163.54,-28.382,128.82,93.379,85.368,18.454
76.209,-178.1,48.144,-26.842,51.056,-202.02,0.87949,-49.054,57.343,88.013,163.45,-28.44,128.53,93.919,85.567,18.632
76.209,-178.1,48.144,-26.842,51.056,-202.02,0.87949,-49.054,57.343,88.013,163.45,-28.44,128.53,93.919,85.567,18.632
76.209,-178.1,48.144,-26.842,51.056,-202.02,0.87949,-49.054,57.343,88.013,163.45,-28.44,128.53,93.919,85.567,18.632
76.387,-178.32,48.335,-27.156,51.214,-202,1.0693,-49.081,57.105,87.962,163.35,-28.494,128.24,94.459,85.764,18.811
76.387,-178.32,48.335,-27.156,51.214,-202,1.0693,-49.081,57.105,87.962,163.35,-28.494,128.24,94.459,85.764,18.811
76.387,-178.32,48.335,-27.156,51.214,-202,1.0693,-49.081,57.105,87.962,163.35,-28.494,128.24,94.459,85.764,18.811
76.564,-178.53,48.525,-27.468,51.369,-201.97,1.2594,-49.106,56.865,87.912,163.24,-28.545,127.95,94.997,85.96,18.992
76.564,-178.53,48.525,-27.468,51.369,-201.97,1.2594,-49.106,56.865,87.912,163.24,-28.545,127.95,94.997,85.96,18.992
76.74,-178.74,48.714,-27.778,51.522,-201.95,1.4497,-49.131,56.625,87.861,163.13,-28.594,127.65,95.533,86.154,19.173
76.74,-178.74,48.714,-27.778,51.522,-201.95,1.4497,-49.131,56.625,87.861,163.13,-28.594,127.65,95.533,86.154,19.173
77.088,-179.15,49.091,-28.396,51.822,-201.88,1.8312,-49.178,56.142,87.76,162.91,-28.681,127.06,96.601,86.538,19.54
77.088,-179.15,49.091,-28.396,51.822,-201.88,1.8312,-49.178,56.142,87.76,162.91,-28.681,127.06,96.601,86.538,19.54
77.261,-179.35,49.279,-28.703,51.969,-201.84,2.0222,-49.201,55.899,87.71,162.79,-28.721,126.76,97.133,86.727,19.725
77.261,-179.35,49.279,-28.703,51.969,-201.84,2.0222,-49.201,55.899,87.71,162.79,-28.721,126.76,97.133,86.727,19.725
77.261,-179.35,49.279,-28.703,51.969,-201.84,2.0222,-49.201,55.899,87.71,162.79,-28.721,126.76,97.133,86.727,19.725
77.261,-179.35,49.279,-28.703,51.969,-201.84,2.0222,-49.201,55.899,87.71,162.79,-28.721,126.76,97.133,86.727,19.725
77.433,-179.54,49.466,-29.008,52.113,-201.8,2.2134,-49.222,55.655,87.66,162.67,-28.757,126.46,97.663,86.915,19.912
77.433,-179.54,49.466,-29.008,52.113,-201.8,2.2134,-49.222,55.655,87.66,162.67,-28.757,126.46,97.663,86.915,19.912
77.433,-179.54,49.466,-29.008,52.113,-201.8,2.2134,-49.222,55.655,87.66,162.67,-28.757,126.46,97.663,86.915,19.912
77.773,-179.92,49.838,-29.614,52.395,-201.7,2.5962,-49.263,55.166,87.56,162.41,-28.821,125.85,98.717,87.285,20.288
77.773,-179.92,49.838,-29.614,52.395,-201.7,2.5962,-49.263,55.166,87.56,162.41,-28.821,125.85,98.717,87.285,20.288
77.942,-180.1,50.023,-29.915,52.533,-201.65,2.7878,-49.283,54.919,87.509,162.28,-28.848,125.54,99.242,87.467,20.477
77.942,-180.1,50.023,-29.915,52.533,-201.65,2.7878,-49.283,54.919,87.509,162.28,-28.848,125.54,99.242,87.467,20.477
78.109,-180.27,50.208,-30.215,52.668,-201.59,2.9795,-49.301,54.673,87.459,162.14,-28.873,125.24,99.765,87.647,20.668
78.109,-180.27,50.208,-30.215,52.668,-201.59,2.9795,-49.301,54.673,87.459,162.14,-28.873,125.24,99.765,87.647,20.668
78.276,-180.45,50.391,-30.513,52.801,-201.53,3.1712,-49.318,54.425,87.409,162,-28.894,124.93,100.29,87.826,20.859
78.276,-180.45,50.391,-30.513,52.801,-201.53,3.1712,-49.318,54.425,87.409,162,-28.894,124.93,100.29,87.826,20.859
78.441,-180.61,50.574,-30.809,52.931,-201.46,3.3629,-49.335,54.177,87.359,161.86,-28.912,124.62,100.8,88.003,21.052
78.441,-180.61,50.574,-30.809,52.931,-201.46,3.3629,-49.335,54.177,87.359,161.86,-28.912,124.62,100.8,88.003,21.052
78.605,-180.78,50.756,-31.104,53.059,-201.39,3.5547,-49.351,53.927,87.31,161.71,-28.928,124.31,101.32,88.178,21.246
78.605,-180.78,50.756,-31.104,53.059,-201.39,3.5547,-49.351,53.927,87.31,161.71,-28.928,124.31,101.32,88.178,21.246
78.767,-180.94,50.937,-31.397,53.184,-201.31,3.7464,-49.365,53.678,87.26,161.56,-28.94,123.99,101.84,88.351,21.44
78.767,-180.94,50.937,-31.397,53.184,-201.31,3.7464,-49.365,53.678,87.26,161.56,-28.94,123.99,101.84,88.351,21.44
78.929,-181.09,51.118,-31.689,53.307,-201.23,3.9381,-49.379,53.427,87.21,161.4,-28.95,123.68,102.35,88.522,21.636
78.929,-181.09,51.118,-31.689,53.307,-201.23,3.9381,-49.379,53.427,87.21,161.4,-28.95,123.68,102.35,88.522,21.636
79.089,-181.24,51.297,-31.978,53.428,-201.15,4.1297,-49.392,53.175,87.16,161.24,-28.956,123.36,102.86,88.691,21.833
79.089,-181.24,51.297,-31.978,53.428,-201.15,4.1297,-49.392,53.175,87.16,161.24,-28.956,123.36,102.86,88.691,21.833
79.089,-181.24,51.297,-31.978,53.428,-201.15,4.1297,-49.392,53.175,87.16,161.24,-28.956,123.36,102.86,88.691,21.833
79.248,-181.39,51.476,-32.267,53.546,-201.06,4.3212,-49.404,52.923,87.11,161.08,-28.959,123.04,103.37,88.859,22.03
79.248,-181.39,51.476,-32.267,53.546,-201.06,4.3212,-49.404,52.923,87.11,161.08,-28.959,123.04,103.37,88.859,22.03
79.562,-181.67,51.83,-32.838,53.775,-200.87,4.7039,-49.425,52.416,87.01,160.74,-28.957,122.4,104.38,89.187,22.428
79.562,-181.67,51.83,-32.838,53.775,-200.87,4.7039,-49.425,52.416,87.01,160.74,-28.957,122.4,104.38,89.187,22.428
79.562,-181.67,51.83,-32.838,53.775,-200.87,4.7039,-49.425,52.416,87.01,160.74,-28.957,122.4,104.38,89.187,22.428
79.717,-181.8,52.006,-33.12,53.885,-200.77,4.895,-49.434,52.162,86.961,160.57,-28.951,122.08,104.88,89.348,22.628
79.717,-181.8,52.006,-33.12,53.885,-200.77,4.895,-49.434,52.162,86.961,160.57,-28.951,122.08,104.88,89.348,22.628
79.871,-181.93,52.181,-33.401,53.993,-200.67,5.0858,-49.442,51.906,86.911,160.39,-28.943,121.76,105.38,89.507,22.829
79.871,-181.93,52.181,-33.401,53.993,-200.67,5.0858,-49.442,51.906,86.911,160.39,-28.943,121.76,105.38,89.507,22.829
79.871,-181.93,52.181,-33.401,53.993,-200.67,5.0858,-49.442,51.906,86.911,160.39,-28.943,121.76,105.38,89.507,22.829
80.023,-182.05,52.355,-33.681,54.098,-200.56,5.2765,-49.449,51.65,86.861,160.21,-28.931,121.43,105.88,89.664,23.031
80.174,-182.17,52.528,-33.958,54.201,-200.45,5.4669,-49.455,51.394,86.811,160.02,-28.916,121.11,106.37,89.819,23.233
80.174,-182.17,52.528,-33.958,54.201,-200.45,5.4669,-49.455,51.394,86.811,160.02,-28.916,121.11,106.37,89.819,23.233
80.324,-182.28,52.7,-34.233,54.301,-200.33,5.6571,-49.459,51.136,86.761,159.84,-28.899,120.78,106.86,89.971,23.437
80.324,-182.28,52.7,-34.233,54.301,-200.33,5.6571,-49.459,51.136,86.761,159.84,-28.899,120.78,106.86,89.971,23.437
80.324,-182.28,52.7,-34.233,54.301,-200.33,5.6571,-49.459,51.136,86.761,159.84,-28.899,120.78,106.86,89.971,23.437
80.324,-182.28,52.7,-34.233,54.301,-200.33,5.6571,-49.459,51.136,86.761,159.84,-28.899,120.78,106.86,89.971,23.437
80.618,-182.5,53.041,-34.778,54.493,-200.08,6.0365,-49.466,50.619,86.661,159.45,-28.854,120.12,107.84,90.27,23.846
80.618,-182.5,53.041,-34.778,54.493,-200.08,6.0365,-49.466,50.619,86.661,159.45,-28.854,120.12,107.84,90.27,23.846
80.618,-182.5,53.041,-34.778,54.493,-200.08,6.0365,-49.466,50.619,86.661,159.45,-28.854,120.12,107.84,90.27,23.846
80.764,-182.6,53.209,-35.047,54.585,-199.95,6.2256,-49.467,50.359,86.612,159.25,-28.828,119.79,108.33,90.416,24.052
80.907,-182.7,53.377,-35.315,54.674,-199.81,6.4144,-49.468,50.099,86.562,159.04,-28.798,119.46,108.81,90.559,24.258
80.907,-182.7,53.377,-35.315,54.674,-199.81,6.4144,-49.468,50.099,86.562,159.04,-28.798,119.46,108.81,90.559,24.258
81.049,-182.79,53.544,-35.58,54.76,-199.67,6.6028,-49.467,49.838,86.512,158.84,-28.765,119.12,109.29,90.701,24.465
81.049,-182.79,53.544,-35.58,54.76,-199.67,6.6028,-49.467,49.838,86.512,158.84,-28.765,119.12,109.29,90.701,24.465
81.19,-182.87,53.709,-35.844,54.844,-199.53,6.7908,-49.465,49.576,86.462,158.63,-28.73,118.79,109.77,90.84,24.673
81.19,-182.87,53.709,-35.844,54.844,-199.53,6.7908,-49.465,49.576,86.462,158.63,-28.73,118.79,109.77,90.84,24.673
81.19,-182.87,53.709,-35.844,54.844,-199.53,6.7908,-49.465,49.576,86.462,158.63,-28.73,118.79,109.77,90.84,24.673
81.19,-182.87,53.709,-35.844,54.844,-199.53,6.7908,-49.465,49.576,86.462,158.63,-28.73,118.79,109.77,90.84,24.673
81.467,-183.03,54.036,-36.364,55.002,-199.22,7.1653,-49.458,49.051,86.361,158.19,-28.65,118.11,110.71,91.111,25.09
81.467,-183.03,54.036,-36.364,55.002,-199.22,7.1653,-49.458,49.051,86.361,158.19,-28.65,118.11,110.71,91.111,25.09
81.467,-183.03,54.036,-36.364,55.002,-199.22,7.1653,-49.458,49.051,86.361,158.19,-28.65,118.11,110.71,91.111,25.09
81.602,-183.1,54.198,-36.621,55.078,-199.06,7.3518,-49.453,48.787,86.311,157.97,-28.605,117.77,111.18,91.243,25.3
81.602,-183.1,54.198,-36.621,55.078,-199.06,7.3518,-49.453,48.787,86.311,157.97,-28.605,117.77,111.18,91.243,25.3
81.602,-183.1,54.198,-36.621,55.078,-199.06,7.3518,-49.453,48.787,86.311,157.97,-28.605,117.77,111.18,91.243,25.3
81.869,-183.23,54.517,-37.128,55.219,-198.73,7.7232,-49.438,48.257,86.21,157.51,-28.507,117.09,112.11,91.5,25.721
81.869,-183.23,54.517,-37.128,55.219,-198.73,7.7232,-49.438,48.257,86.21,157.51,-28.507,117.09,112.11,91.5,25.721
82,-183.29,54.675,-37.378,55.286,-198.56,7.908,-49.429,47.991,86.16,157.28,-28.454,116.75,112.57,91.625,25.932
82,-183.29,54.675,-37.378,55.286,-198.56,7.908,-49.429,47.991,86.16,157.28,-28.454,116.75,112.57,91.625,25.932
82,-183.29,54.675,-37.378,55.286,-198.56,7.908,-49.429,47.991,86.16,157.28,-28.454,116.75,112.57,91.625,25.932
82.129,-183.35,54.832,-37.626,55.349,-198.38,8.0922,-49.419,47.724,86.109,157.04,-28.397,116.4,113.03,91.747,26.144
82.257,-183.39,54.987,-37.871,55.41,-198.2,8.2758,-49.407,47.457,86.059,156.8,-28.338,116.06,113.48,91.867,26.356
82.257,-183.39,54.987,-37.871,55.41,-198.2,8.2758,-49.407,47.457,86.059,156.8,-28.338,116.06,113.48,91.867,26.356
82.383,-183.44,55.141,-38.115,55.467,-198.02,8.4587,-49.395,47.189,86.008,156.56,-28.276,115.71,113.93,91.984,26.569
82.383,-183.44,55.141,-38.115,55.467,-198.02,8.4587,-49.395,47.189,86.008,156.56,-28.276,115.71,113.93,91.984,26.569
82.507,-183.48,55.294,-38.356,55.522,-197.83,8.6409,-49.381,46.921,85.957,156.31,-28.211,115.36,114.38,92.099,26.782
82.507,-183.48,55.294,-38.356,55.522,-197.83,8.6409,-49.381,46.921,85.957,156.31,-28.211,115.36,114.38,92.099,26.782
82.629,-183.51,55.445,-38.594,55.574,-197.63,8.8223,-49.365,46.651,85.906,156.06,-28.143,115.01,114.82,92.211,26.995
82.629,-183.51,55.445,-38.594,55.574,-197.63,8.8223,-49.365,46.651,85.906,156.06,-28.143,115.01,114.82,92.211,26.995
82.629,-183.51,55.445,-38.594,55.574,-197.63,8.8223,-49.365,46.651,85.906,156.06,-28.143,115.01,114.82,92.211,26.995
82.749,-183.54,55.594,-38.83,55.622,-197.43,9.0031,-49.348,46.381,85.855,155.8,-28.072,114.66,115.26,92.32,27.21
82.749,-183.54,55.594,-38.83,55.622,-197.43,9.0031,-49.348,46.381,85.855,155.8,-28.072,114.66,115.26,92.32,27.21
82.984,-183.58,55.889,-39.295,55.71,-197.01,9.3621,-49.311,45.839,85.753,155.28,-27.921,113.96,116.14,92.532,27.639
82.984,-183.58,55.889,-39.295,55.71,-197.01,9.3621,-49.311,45.839,85.753,155.28,-27.921,113.96,116.14,92.532,27.639
82.984,-183.58,55.889,-39.295,55.71,-197.01,9.3621,-49.311,45.839,85.753,155.28,-27.921,113.96,116.14,92.532,27.639
83.099,-183.59,56.035,-39.524,55.75,-196.8,9.5404,-49.29,45.568,85.701,155.01,-27.841,113.61,116.57,92.633,27.854
83.099,-183.59,56.035,-39.524,55.75,-196.8,9.5404,-49.29,45.568,85.701,155.01,-27.841,113.61,116.57,92.633,27.854
83.099,-183.59,56.035,-39.524,55.75,-196.8,9.5404,-49.29,45.568,85.701,155.01,-27.841,113.61,116.57,92.633,27.854
83.212,-183.6,56.179,-39.751,55.786,-196.58,9.7179,-49.268,45.295,85.65,154.74,-27.758,113.25,117,92.732,28.069
83.212,-183.6,56.179,-39.751,55.786,-196.58,9.7179,-49.268,45.295,85.65,154.74,-27.758,113.25,117,92.732,28.069
83.323,-183.61,56.321,-39.974,55.819,-196.35,9.8944,-49.244,45.022,85.598,154.46,-27.673,112.9,117.42,92.828,28.285
83.432,-183.6,56.461,-40.196,55.849,-196.13,10.07,-49.219,44.748,85.546,154.18,-27.584,112.54,117.85,92.922,28.501
83.432,-183.6,56.461,-40.196,55.849,-196.13,10.07,-49.219,44.748,85.546,154.18,-27.584,112.54,117.85,92.922,28.501
83.539,-183.6,56.601,-40.414,55.876,-195.89,10.245,-49.193,44.474,85.494,153.9,-27.493,112.18,118.26,93.013,28.717
83.539,-183.6,56.601,-40.414,55.876,-195.89,10.245,-49.193,44.474,85.494,153.9,-27.493,112.18,118.26,93.013,28.717
83.644,-183.59,56.738,-40.63,55.9,-195.65,10.418,-49.165,44.198,85.442,153.61,-27.399,111.83,118.68,93.101,28.934
83.644,-183.59,56.738,-40.63,55.9,-195.65,10.418,-49.165,44.198,85.442,153.61,-27.399,111.83,118.68,93.101,28.934
83.747,-183.57,56.874,-40.844,55.92,-195.41,10.591,-49.135,43.923,85.39,153.32,-27.302,111.47,119.09,93.186,29.15
83.747,-183.57,56.874,-40.844,55.92,-195.41,10.591,-49.135,43.923,85.39,153.32,-27.302,111.47,119.09,93.186,29.15
83.847,-183.55,57.008,-41.054,55.938,-195.16,10.763,-49.104,43.646,85.337,153.03,-27.202,111.11,119.5,93.269,29.367
83.847,-183.55,57.008,-41.054,55.938,-195.16,10.763,-49.104,43.646,85.337,153.03,-27.202,111.11,119.5,93.269,29.367
83.946,-183.52,57.141,-41.262,55.952,-194.9,10.934,-49.072,43.369,85.284,152.73,-27.099,110.74,119.9,93.348,29.584
83.946,-183.52,57.141,-41.262,55.952,-194.9,10.934,-49.072,43.369,85.284,152.73,-27.099,110.74,119.9,93.348,29.584
84.043,-183.49,57.271,-41.468,55.963,-194.65,11.103,-49.038,43.092,85.232,152.43,-26.994,110.38,120.3,93.425,29.801
84.043,-183.49,57.271,-41.468,55.963,-194.65,11.103,-49.038,43.092,85.232,152.43,-26.994,110.38,120.3,93.425,29.801
84.137,-183.45,57.401,-41.67,55.97,-194.38,11.272,-49.003,42.814,85.178,152.12,-26.885,110.02,120.7,93.499,30.018
84.137,-183.45,57.401,-41.67,55.97,-194.38,11.272,-49.003,42.814,85.178,152.12,-26.885,110.02,120.7,93.499,30.018
84.23,-183.41,57.528,-41.87,55.974,-194.11,11.439,-48.966,42.535,85.125,151.82,-26.774,109.65,121.09,93.57,30.236
84.23,-183.41,57.528,-41.87,55.974,-194.11,11.439,-48.966,42.535,85.125,151.82,-26.774,109.65,121.09,93.57,30.236
84.23,-183.41,57.528,-41.87,55.974,-194.11,11.439,-48.966,42.535,85.125,151.82,-26.774,109.65,121.09,93.57,30.236
84.32,-183.36,57.654,-42.067,55.975,-193.84,11.605,-48.927,42.255,85.072,151.5,-26.66,109.29,121.48,93.639,30.453
84.408,-183.31,57.777,-42.261,55.973,-193.56,11.77,-48.887,41.975,85.018,151.19,-26.543,108.92,121.87,93.704,30.671
84.408,-183.31,57.777,-42.261,55.973,-193.56,11.77,-48.887,41.975,85.018,151.19,-26.543,108.92,121.87,93.704,30.671
84.494,-183.25,57.899,-42.453,55.968,-193.27,11.934,-48.846,41.695,84.964,150.87,-26.424,108.55,122.25,93.766,30.888
84.494,-183.25,57.899,-42.453,55.968,-193.27,11.934,-48.846,41.695,84.964,150.87,-26.424,108.55,122.25,93.766,30.888
84.578,-183.19,58.02,-42.642,55.959,-192.99,12.097,-48.802,41.414,84.909,150.54,-26.302,108.19,122.63,93.826,31.105
84.578,-183.19,58.02,-42.642,55.959,-192.99,12.097,-48.802,41.414,84.909,150.54,-26.302,108.19,122.63,93.826,31.105
84.659,-183.12,58.138,-42.827,55.946,-192.69,12.258,-48.758,41.132,84.855,150.21,-26.176,107.82,123,93.882,31.323
84.659,-183.12,58.138,-42.827,55.946,-192.69,12.258,-48.758,41.132,84.855,150.21,-26.176,107.82,123,93.882,31.323
84.659,-183.12,58.138,-42.827,55.946,-192.69,12.258,-48.758,41.132,84.855,150.21,-26.176,107.82,123,93.882,31.323
84.738,-183.04,58.254,-43.01,55.931,-192.39,12.418,-48.711,40.849,84.8,149.88,-26.049,107.45,123.37,93.936,31.54
84.815,-182.97,58.369,-43.19,55.912,-192.09,12.577,-48.663,40.566,84.745,149.55,-25.918,107.08,123.74,93.986,31.757
84.815,-182.97,58.369,-43.19,55.912,-192.09,12.577,-48.663,40.566,84.745,149.55,-25.918,107.08,123.74,93.986,31.757
84.889,-182.88,58.482,-43.367,55.889,-191.78,12.734,-48.613,40.283,84.69,149.21,-25.785,106.71,124.1,94.034,31.975
84.889,-182.88,58.482,-43.367,55.889,-191.78,12.734,-48.613,40.283,84.69,149.21,-25.785,106.71,124.1,94.034,31.975
84.889,-182.88,58.482,-43.367,55.889,-191.78,12.734,-48.613,40.283,84.69,149.21,-25.785,106.71,124.1,94.034,31.975
84.961,-182.79,58.592,-43.541,55.863,-191.46,12.89,-48.562,39.999,84.634,148.86,-25.649,106.33,124.46,94.078,32.192
84.961,-182.79,58.592,-43.541,55.863,-191.46,12.89,-48.562,39.999,84.634,148.86,-25.649,106.33,124.46,94.078,32.192
84.961,-182.79,58.592,-43.541,55.863,-191.46,12.89,-48.562,39.999,84.634,148.86,-25.649,106.33,124.46,94.078,32.192
85.098,-182.6,58.808,-43.881,55.801,-190.82,13.198,-48.454,39.429,84.522,148.17,-25.368,105.59,125.16,94.158,32.625
85.098,-182.6,58.808,-43.881,55.801,-190.82,13.198,-48.454,39.429,84.522,148.17,-25.368,105.59,125.16,94.158,32.625
85.163,-182.49,58.913,-44.046,55.765,-190.49,13.349,-48.397,39.143,84.466,147.81,-25.224,105.21,125.51,94.193,32.842
85.163,-182.49,58.913,-44.046,55.765,-190.49,13.349,-48.397,39.143,84.466,147.81,-25.224,105.21,125.51,94.193,32.842
85.225,-182.38,59.016,-44.208,55.725,-190.15,13.499,-48.339,38.856,84.409,147.45,-25.077,104.83,125.85,94.225,33.058
85.225,-182.38,59.016,-44.208,55.725,-190.15,13.499,-48.339,38.856,84.409,147.45,-25.077,104.83,125.85,94.225,33.058
85.285,-182.27,59.116,-44.367,55.682,-189.81,13.648,-48.279,38.57,84.352,147.09,-24.928,104.46,126.19,94.254,33.274
85.285,-182.27,59.116,-44.367,55.682,-189.81,13.648,-48.279,38.57,84.352,147.09,-24.928,104.46,126.19,94.254,33.274
85.343,-182.14,59.215,-44.523,55.635,-189.47,13.795,-48.217,38.282,84.294,146.72,-24.776,104.08,126.52,94.28,33.49
85.343,-182.14,59.215,-44.523,55.635,-189.47,13.795,-48.217,38.282,84.294,146.72,-24.776,104.08,126.52,94.28,33.49
85.398,-182.02,59.312,-44.676,55.585,-189.11,13.941,-48.154,37.994,84.237,146.35,-24.621,103.7,126.85,94.303,33.706
85.398,-182.02,59.312,-44.676,55.585,-189.11,13.941,-48.154,37.994,84.237,146.35,-24.621,103.7,126.85,94.303,33.706
85.45,-181.88,59.406,-44.825,55.531,-188.76,14.085,-48.089,37.705,84.178,145.98,-24.464,103.32,127.18,94.322,33.921
85.45,-181.88,59.406,-44.825,55.531,-188.76,14.085,-48.089,37.705,84.178,145.98,-24.464,103.32,127.18,94.322,33.921
85.5,-181.75,59.498,-44.972,55.474,-188.4,14.227,-48.022,37.416,84.12,145.6,-24.304,102.94,127.5,94.339,34.136
85.5,-181.75,59.498,-44.972,55.474,-188.4,14.227,-48.022,37.416,84.12,145.6,-24.304,102.94,127.5,94.339,34.136
85.547,-181.6,59.589,-45.116,55.413,-188.03,14.368,-47.953,37.126,84.061,145.22,-24.141,102.56,127.81,94.352,34.35
85.547,-181.6,59.589,-45.116,55.413,-188.03,14.368,-47.953,37.126,84.061,145.22,-24.141,102.56,127.81,94.352,34.35
85.591,-181.46,59.677,-45.256,55.349,-187.66,14.507,-47.882,36.836,84.002,144.84,-23.976,102.18,128.12,94.362,34.564
85.591,-181.46,59.677,-45.256,55.349,-187.66,14.507,-47.882,36.836,84.002,144.84,-23.976,102.18,128.12,94.362,34.564
85.591,-181.46,59.677,-45.256,55.349,-187.66,14.507,-47.882,36.836,84.002,144.84,-23.976,102.18,128.12,94.362,34.564
85.633,-181.3,59.763,-45.393,55.281,-187.28,14.645,-47.809,36.545,83.942,144.45,-23.808,101.8,128.43,94.369,34.778
85.633,-181.3,59.763,-45.393,55.281,-187.28,14.645,-47.809,36.545,83.942,144.45,-23.808,101.8,128.43,94.369,34.778
85.633,-181.3,59.763,-45.393,55.281,-187.28,14.645,-47.809,36.545,83.942,144.45,-23.808,101.8,128.43,94.369,34.778
85.709,-180.98,59.928,-45.658,55.134,-186.51,14.914,-47.659,35.962,83.822,143.66,-23.465,101.04,129.03,94.373,35.204
85.709,-180.98,59.928,-45.658,55.134,-186.51,14.914,-47.659,35.962,83.822,143.66,-23.465,101.04,129.03,94.373,35.204
85.709,-180.98,59.928,-45.658,55.134,-186.51,14.914,-47.659,35.962,83.822,143.66,-23.465,101.04,129.03,94.373,35.204
85.743,-180.81,60.007,-45.785,55.056,-186.11,15.047,-47.581,35.67,83.761,143.26,-23.29,100.65,129.33,94.37,35.416
85.743,-180.81,60.007,-45.785,55.056,-186.11,15.047,-47.581,35.67,83.761,143.26,-23.29,100.65,129.33,94.37,35.416
85.743,-180.81,60.007,-45.785,55.056,-186.11,15.047,-47.581,35.67,83.761,143.26,-23.29,100.65,129.33,94.37,35.416
85.803,-180.45,60.158,-46.03,54.887,-185.31,15.306,-47.419,35.083,83.638,142.45,-22.932,99.885,129.9,94.354,35.84
85.803,-180.45,60.158,-46.03,54.887,-185.31,15.306,-47.419,35.083,83.638,142.45,-22.932,99.885,129.9,94.354,35.84
85.828,-180.27,60.231,-46.148,54.798,-184.9,15.433,-47.335,34.789,83.576,142.04,-22.749,99.5,130.18,94.342,36.05
85.828,-180.27,60.231,-46.148,54.798,-184.9,15.433,-47.335,34.789,83.576,142.04,-22.749,99.5,130.18,94.342,36.05
85.851,-180.08,60.301,-46.263,54.704,-184.49,15.558,-47.249,34.495,83.513,141.63,-22.563,99.114,130.45,94.326,36.26
85.851,-180.08,60.301,-46.263,54.704,-184.49,15.558,-47.249,34.495,83.513,141.63,-22.563,99.114,130.45,94.326,36.26
85.871,-179.88,60.368,-46.374,54.608,-184.07,15.681,-47.162,34.2,83.45,141.21,-22.376,98.727,130.72,94.306,36.47
85.888,-179.68,60.434,-46.481,54.507,-183.64,15.802,-47.072,33.905,83.387,140.79,-22.186,98.34,130.99,94.284,36.679
85.888,-179.68,60.434,-46.481,54.507,-183.64,15.802,-47.072,33.905,83.387,140.79,-22.186,98.34,130.99,94.284,36.679
85.888,-179.68,60.434,-46.481,54.507,-183.64,15.802,-47.072,33.905,83.387,140.79,-22.186,98.34,130.99,94.284,36.679
85.903,-179.47,60.496,-46.586,54.403,-183.21,15.921,-46.981,33.609,83.323,140.36,-21.993,97.952,131.25,94.258,36.887
85.903,-179.47,60.496,-46.586,54.403,-183.21,15.921,-46.981,33.609,83.323,140.36,-21.993,97.952,131.25,94.258,36.887
85.903,-179.47,60.496,-46.586,54.403,-183.21,15.921,-46.981,33.609,83.323,140.36,-21.993,97.952,131.25,94.258,36.887
85.914,-179.25,60.557,-46.687,54.295,-182.77,16.038,-46.887,33.312,83.258,139.93,-21.798,97.564,131.51,94.228,37.095
85.914,-179.25,60.557,-46.687,54.295,-182.77,16.038,-46.887,33.312,83.258,139.93,-21.798,97.564,131.51,94.228,37.095
85.914,-179.25,60.557,-46.687,54.295,-182.77,16.038,-46.887,33.312,83.258,139.93,-21.798,97.564,131.51,94.228,37.095
85.914,-179.25,60.557,-46.687,54.295,-182.77,16.038,-46.887,33.312,83.258,139.93,-21.798,97.564,131.51,94.228,37.095
85.929,-178.81,60.671,-46.879,54.068,-181.89,16.267,-46.694,32.718,83.128,139.06,-21.401,96.786,132.01,94.16,37.508
85.929,-178.81,60.671,-46.879,54.068,-181.89,16.267,-46.694,32.718,83.128,139.06,-21.401,96.786,132.01,94.16,37.508
85.929,-178.81,60.671,-46.879,54.068,-181.89,16.267,-46.694,32.718,83.128,139.06,-21.401,96.786,132.01,94.16,37.508
85.931,-178.35,60.775,-47.057,53.827,-180.98,16.487,-46.493,32.122,82.995,138.18,-20.995,96.006,132.49,94.078,37.918
85.931,-178.35,60.775,-47.057,53.827,-180.98,16.487,-46.493,32.122,82.995,138.18,-20.995,96.006,132.49,94.078,37.918
85.928,-178.1,60.823,-47.142,53.7,-180.51,16.594,-46.39,31.823,82.928,137.73,-20.788,95.616,132.72,94.032,38.122
85.922,-177.86,60.868,-47.222,53.57,-180.04,16.699,-46.284,31.523,82.861,137.28,-20.579,95.225,132.94,93.982,38.325
85.922,-177.86,60.868,-47.222,53.57,-180.04,16.699,-46.284,31.523,82.861,137.28,-20.579,95.225,132.94,93.982,38.325
85.922,-177.86,60.868,-47.222,53.57,-180.04,16.699,-46.284,31.523,82.861,137.28,-20.579,95.225,132.94,93.982,38.325
85.913,-177.61,60.912,-47.299,53.436,-179.57,16.802,-46.176,31.224,82.792,136.83,-20.368,94.833,133.17,93.93,38.527
85.913,-177.61,60.912,-47.299,53.436,-179.57,16.802,-46.176,31.224,82.792,136.83,-20.368,94.833,133.17,93.93,38.527
85.9,-177.35,60.952,-47.373,53.299,-179.09,16.903,-46.067,30.923,82.724,136.37,-20.154,94.441,133.38,93.873,38.729
85.9,-177.35,60.952,-47.373,53.299,-179.09,16.903,-46.067,30.923,82.724,136.37,-20.154,94.441,133.38,93.873,38.729
85.885,-177.09,60.99,-47.443,53.158,-178.61,17.002,-45.955,30.623,82.654,135.91,-19.939,94.048,133.6,93.814,38.929
85.885,-177.09,60.99,-47.443,53.158,-178.61,17.002,-45.955,30.623,82.654,135.91,-19.939,94.048,133.6,93.814,38.929
85.885,-177.09,60.99,-47.443,53.158,-178.61,17.002,-45.955,30.623,82.654,135.91,-19.939,94.048,133.6,93.814,38.929
85.867,-176.82,61.026,-47.51,53.013,-178.12,17.098,-45.841,30.321,82.584,135.44,-19.721,93.655,133.8,93.751,39.129
85.846,-176.54,61.059,-47.573,52.864,-177.62,17.192,-45.725,30.02,82.514,134.97,-19.5,93.262,134.01,93.684,39.327
85.821,-176.26,61.089,-47.633,52.711,-177.12,17.284,-45.607,29.718,82.443,134.5,-19.278,92.868,134.2,93.614,39.525
85.821,-176.26,61.089,-47.633,52.711,-177.12,17.284,-45.607,29.718,82.443,134.5,-19.278,92.868,134.2,93.614,39.525
85.821,-176.26,61.089,-47.633,52.711,-177.12,17.284,-45.607,29.718,82.443,134.5,-19.278,92.868,134.2,93.614,39.525
85.793,-175.98,61.117,-47.69,52.555,-176.61,17.374,-45.487,29.415,82.371,134.02,-19.054,92.474,134.39,93.541,39.722
85.793,-175.98,61.117,-47.69,52.555,-176.61,17.374,-45.487,29.415,82.371,134.02,-19.054,92.474,134.39,93.541,39.722
85.763,-175.69,61.142,-47.742,52.395,-176.1,17.462,-45.365,29.112,82.299,133.54,-18.827,92.08,134.58,93.465,39.917
85.763,-175.69,61.142,-47.742,52.395,-176.1,17.462,-45.365,29.112,82.299,133.54,-18.827,92.08,134.58,93.465,39.917
85.763,-175.69,61.142,-47.742,52.395,-176.1,17.462,-45.365,29.112,82.299,133.54,-18.827,92.08,134.58,93.465,39.917
85.729,-175.39,61.164,-47.791,52.231,-175.58,17.547,-45.241,28.809,82.226,133.06,-18.598,91.685,134.76,93.384,40.112
85.729,-175.39,61.164,-47.791,52.231,-175.58,17.547,-45.241,28.809,82.226,133.06,-18.598,91.685,134.76,93.384,40.112
85.729,-175.39,61.164,-47.791,52.231,-175.58,17.547,-45.241,28.809,82.226,133.06,-18.598,91.685,134.76,93.384,40.112
85.651,-174.79,61.201,-47.879,51.893,-174.53,17.71,-44.986,28.201,82.078,132.08,-18.134,90.894,135.11,93.214,40.498
85.651,-174.79,61.201,-47.879,51.893,-174.53,17.71,-44.986,28.201,82.078,132.08,-18.134,90.894,135.11,93.214,40.498
85.651,-174.79,61.201,-47.879,51.893,-174.53,17.71,-44.986,28.201,82.078,132.08,-18.134,90.894,135.11,93.214,40.498
85.608,-174.47,61.215,-47.918,51.718,-174,17.788,-44.855,27.896,82.003,131.59,-17.899,90.498,135.28,93.123,40.689
85.608,-174.47,61.215,-47.918,51.718,-174,17.788,-44.855,27.896,82.003,131.59,-17.899,90.498,135.28,93.123,40.689
85.561,-174.16,61.226,-47.953,51.539,-173.46,17.864,-44.722,27.591,81.927,131.09,-17.662,90.102,135.44,93.03,40.879
85.561,-174.16,61.226,-47.953,51.539,-173.46,17.864,-44.722,27.591,81.927,131.09,-17.662,90.102,135.44,93.03,40.879
85.511,-173.83,61.235,-47.984,51.356,-172.92,17.938,-44.587,27.286,81.851,130.59,-17.423,89.706,135.59,92.932,41.068
85.511,-173.83,61.235,-47.984,51.356,-172.92,17.938,-44.587,27.286,81.851,130.59,-17.423,89.706,135.59,92.932,41.068
85.458,-173.5,61.241,-48.012,51.17,-172.37,18.009,-44.45,26.98,81.774,130.08,-17.182,89.309,135.74,92.831,41.256
85.458,-173.5,61.241,-48.012,51.17,-172.37,18.009,-44.45,26.98,81.774,130.08,-17.182,89.309,135.74,92.831,41.256
85.458,-173.5,61.241,-48.012,51.17,-172.37,18.009,-44.45,26.98,81.774,130.08,-17.182,89.309,135.74,92.831,41.256
85.341,-172.83,61.245,-48.057,50.786,-171.25,18.143,-44.169,26.367,81.617,129.06,-16.694,88.515,136.03,92.62,41.628
85.341,-172.83,61.245,-48.057,50.786,-171.25,18.143,-44.169,26.367,81.617,129.06,-16.694,88.515,136.03,92.62,41.628
85.278,-172.49,61.243,-48.074,50.589,-170.69,18.207,-44.025,26.06,81.538,128.55,-16.447,88.117,136.16,92.509,41.813
85.278,-172.49,61.243,-48.074,50.589,-170.69,18.207,-44.025,26.06,81.538,128.55,-16.447,88.117,136.16,92.509,41.813
85.278,-172.49,61.243,-48.074,50.589,-170.69,18.207,-44.025,26.06,81.538,128.55,-16.447,88.117,136.16,92.509,41.813
85.212,-172.13,61.238,-48.087,50.388,-170.11,18.268,-43.879,25.753,81.458,128.03,-16.198,87.72,136.29,92.394,41.996
85.212,-172.13,61.238,-48.087,50.388,-170.11,18.268,-43.879,25.753,81.458,128.03,-16.198,87.72,136.29,92.394,41.996
85.212,-172.13,61.238,-48.087,50.388,-170.11,18.268,-43.879,25.753,81.458,128.03,-16.198,87.72,136.29,92.394,41.996
85.069,-171.42,61.219,-48.103,49.974,-168.96,18.383,-43.581,25.137,81.296,126.98,-15.694,86.923,136.53,92.155,42.358
85.069,-171.42,61.219,-48.103,49.974,-168.96,18.383,-43.581,25.137,81.296,126.98,-15.694,86.923,136.53,92.155,42.358
84.992,-171.05,61.206,-48.106,49.761,-168.37,18.437,-43.428,24.828,81.213,126.45,-15.44,86.525,136.64,92.03,42.537
84.992,-171.05,61.206,-48.106,49.761,-168.37,18.437,-43.428,24.828,81.213,126.45,-15.44,86.525,136.64,92.03,42.537
84.913,-170.68,61.189,-48.105,49.545,-167.78,18.488,-43.274,24.519,81.13,125.92,-15.183,86.126,136.75,91.901,42.714
84.913,-170.68,61.189,-48.105,49.545,-167.78,18.488,-43.274,24.519,81.13,125.92,-15.183,86.126,136.75,91.901,42.714
84.913,-170.68,61.189,-48.105,49.545,-167.78,18.488,-43.274,24.519,81.13,125.92,-15.183,86.126,136.75,91.901,42.714
84.829,-170.3,61.17,-48.1,49.325,-167.18,18.536,-43.117,24.21,81.046,125.39,-14.925,85.727,136.85,91.77,42.89
84.829,-170.3,61.17,-48.1,49.325,-167.18,18.536,-43.117,24.21,81.046,125.39,-14.925,85.727,136.85,91.77,42.89
84.829,-170.3,61.17,-48.1,49.325,-167.18,18.536,-43.117,24.21,81.046,125.39,-14.925,85.727,136.85,91.77,42.89
84.652,-169.53,61.123,-48.08,48.873,-165.96,18.626,-42.796,23.591,80.876,124.31,-14.403,84.929,137.04,91.496,43.239
84.559,-169.14,61.095,-48.064,48.642,-165.35,18.666,-42.633,23.281,80.79,123.76,-14.14,84.53,137.13,91.354,43.41
84.559,-169.14,61.095,-48.064,48.642,-165.35,18.666,-42.633,23.281,80.79,123.76,-14.14,84.53,137.13,91.354,43.41
84.559,-169.14,61.095,-48.064,48.642,-165.35,18.666,-42.633,23.281,80.79,123.76,-14.14,84.53,137.13,91.354,43.41
84.462,-168.74,61.064,-48.045,48.407,-164.73,18.704,-42.467,22.97,80.703,123.21,-13.874,84.13,137.2,91.208,43.581
84.462,-168.74,61.064,-48.045,48.407,-164.73,18.704,-42.467,22.97,80.703,123.21,-13.874,84.13,137.2,91.208,43.581
84.362,-168.33,61.03,-48.022,48.168,-164.11,18.74,-42.299,22.659,80.614,122.66,-13.607,83.731,137.28,91.059,43.75
84.362,-168.33,61.03,-48.022,48.168,-164.11,18.74,-42.299,22.659,80.614,122.66,-13.607,83.731,137.28,91.059,43.75
84.258,-167.92,60.993,-47.996,47.926,-163.48,18.772,-42.128,22.348,80.526,122.1,-13.339,83.331,137.35,90.907,43.917
84.258,-167.92,60.993,-47.996,47.926,-163.48,18.772,-42.128,22.348,80.526,122.1,-13.339,83.331,137.35,90.907,43.917
84.15,-167.51,60.954,-47.965,47.68,-162.84,18.802,-41.956,22.037,80.436,121.54,-13.068,82.931,137.41,90.751,44.083
84.15,-167.51,60.954,-47.965,47.68,-162.84,18.802,-41.956,22.037,80.436,121.54,-13.068,82.931,137.41,90.751,44.083
84.039,-167.08,60.911,-47.932,47.43,-162.2,18.83,-41.781,21.725,80.345,120.98,-12.796,82.531,137.47,90.592,44.247
84.039,-167.08,60.911,-47.932,47.43,-162.2,18.83,-41.781,21.725,80.345,120.98,-12.796,82.531,137.47,90.592,44.247
83.925,-166.66,60.865,-47.894,47.176,-161.56,18.854,-41.604,21.413,80.253,120.42,-12.523,82.131,137.52,90.429,44.41
83.925,-166.66,60.865,-47.894,47.176,-161.56,18.854,-41.604,21.413,80.253,120.42,-12.523,82.131,137.52,90.429,44.41
83.925,-166.66,60.865,-47.894,47.176,-161.56,18.854,-41.604,21.413,80.253,120.42,-12.523,82.131,137.52,90.429,44.41
83.807,-166.23,60.817,-47.853,46.919,-160.9,18.876,-41.424,21.1,80.161,119.85,-12.248,81.731,137.57,90.263,44.571
83.686,-165.79,60.765,-47.808,46.658,-160.25,18.896,-41.243,20.788,80.068,119.28,-11.971,81.33,137.61,90.094,44.73
83.686,-165.79,60.765,-47.808,46.658,-160.25,18.896,-41.243,20.788,80.068,119.28,-11.971,81.33,137.61,90.094,44.73
83.561,-165.35,60.711,-47.76,46.393,-159.59,18.912,-41.059,20.475,79.973,118.7,-11.692,80.93,137.64,89.921,44.888
83.561,-165.35,60.711,-47.76,46.393,-159.59,18.912,-41.059,20.475,79.973,118.7,-11.692,80.93,137.64,89.921,44.888
83.432,-164.9,60.653,-47.707,46.125,-158.92,18.926,-40.873,20.161,79.878,118.12,-11.413,80.53,137.67,89.745,45.044
83.432,-164.9,60.653,-47.707,46.125,-158.92,18.926,-40.873,20.161,79.878,118.12,-11.413,80.53,137.67,89.745,45.044
83.3,-164.45,60.592,-47.652,45.853,-158.25,18.937,-40.684,19.848,79.782,117.54,-11.131,80.129,137.69,89.566,45.198
83.3,-164.45,60.592,-47.652,45.853,-158.25,18.937,-40.684,19.848,79.782,117.54,-11.131,80.129,137.69,89.566,45.198
83.165,-163.99,60.529,-47.592,45.577,-157.57,18.945,-40.493,19.534,79.685,116.96,-10.849,79.729,137.71,89.383,45.351
83.165,-163.99,60.529,-47.592,45.577,-157.57,18.945,-40.493,19.534,79.685,116.96,-10.849,79.729,137.71,89.383,45.351
83.026,-163.53,60.462,-47.529,45.298,-156.89,18.95,-40.301,19.22,79.586,116.37,-10.564,79.328,137.73,89.196,45.502
83.026,-163.53,60.462,-47.529,45.298,-156.89,18.95,-40.301,19.22,79.586,116.37,-10.564,79.328,137.73,89.196,45.502
82.883,-163.06,60.393,-47.462,45.015,-156.2,18.953,-40.105,18.906,79.487,115.78,-10.279,78.927,137.73,89.007,45.651
82.883,-163.06,60.393,-47.462,45.015,-156.2,18.953,-40.105,18.906,79.487,115.78,-10.279,78.927,137.73,89.007,45.651
82.737,-162.58,60.32,-47.392,44.728,-155.51,18.952,-39.908,18.592,79.387,115.18,-9.9915,78.527,137.73,88.814,45.798
82.587,-162.11,60.244,-47.318,44.438,-154.81,18.949,-39.708,18.277,79.286,114.59,-9.703,78.126,137.73,88.618,45.944
82.587,-162.11,60.244,-47.318,44.438,-154.81,18.949,-39.708,18.277,79.286,114.59,-9.703,78.126,137.73,88.618,45.944
82.587,-162.11,60.244,-47.318,44.438,-154.81,18.949,-39.708,18.277,79.286,114.59,-9.703,78.126,137.73,88.618,45.944
82.434,-161.62,60.166,-47.24,44.144,-154.11,18.943,-39.506,17.962,79.184,113.99,-9.4131,77.726,137.72,88.418,46.087
82.434,-161.62,60.166,-47.24,44.144,-154.11,18.943,-39.506,17.962,79.184,113.99,-9.4131,77.726,137.72,88.418,46.087
82.276,-161.13,60.084,-47.159,43.847,-153.4,18.934,-39.302,17.647,79.081,113.38,-9.1219,77.325,137.7,88.215,46.229
82.116,-160.64,59.999,-47.074,43.546,-152.69,18.923,-39.095,17.332,78.977,112.78,-8.8294,76.924,137.68,88.009,46.369
82.116,-160.64,59.999,-47.074,43.546,-152.69,18.923,-39.095,17.332,78.977,112.78,-8.8294,76.924,137.68,88.009,46.369
82.116,-160.64,59.999,-47.074,43.546,-152.69,18.923,-39.095,17.332,78.977,112.78,-8.8294,76.924,137.68,88.009,46.369
81.952,-160.14,59.911,-46.985,43.241,-151.97,18.908,-38.887,17.016,78.871,112.17,-8.5357,76.524,137.65,87.799,46.507
81.952,-160.14,59.911,-46.985,43.241,-151.97,18.908,-38.887,17.016,78.871,112.17,-8.5357,76.524,137.65,87.799,46.507
81.784,-159.63,59.82,-46.893,42.933,-151.25,18.891,-38.676,16.701,78.765,111.56,-8.2406,76.123,137.62,87.586,46.643
81.784,-159.63,59.82,-46.893,42.933,-151.25,18.891,-38.676,16.701,78.765,111.56,-8.2406,76.123,137.62,87.586,46.643
81.612,-159.12,59.726,-46.797,42.621,-150.52,18.87,-38.462,16.385,78.658,110.94,-7.9443,75.723,137.58,87.37,46.777
81.612,-159.12,59.726,-46.797,42.621,-150.52,18.87,-38.462,16.385,78.658,110.94,-7.9443,75.723,137.58,87.37,46.777
81.437,-158.61,59.629,-46.698,42.306,-149.79,18.847,-38.247,16.069,78.549,110.32,-7.6468,75.322,137.54,87.151,46.91
81.437,-158.61,59.629,-46.698,42.306,-149.79,18.847,-38.247,16.069,78.549,110.32,-7.6468,75.322,137.54,87.151,46.91
81.258,-158.09,59.528,-46.595,41.987,-149.05,18.821,-38.029,15.753,78.44,109.7,-7.3481,74.922,137.49,86.928,47.04
81.258,-158.09,59.528,-46.595,41.987,-149.05,18.821,-38.029,15.753,78.44,109.7,-7.3481,74.922,137.49,86.928,47.04
81.076,-157.56,59.425,-46.488,41.665,-148.31,18.792,-37.809,15.436,78.329,109.08,-7.0482,74.522,137.43,86.702,47.168
81.076,-157.56,59.425,-46.488,41.665,-148.31,18.792,-37.809,15.436,78.329,109.08,-7.0482,74.522,137.43,86.702,47.168
80.89,-157.03,59.319,-46.378,41.339,-147.56,18.76,-37.587,15.12,78.218,108.45,-6.7472,74.121,137.37,86.473,47.294
80.89,-157.03,59.319,-46.378,41.339,-147.56,18.76,-37.587,15.12,78.218,108.45,-6.7472,74.121,137.37,86.473,47.294
80.89,-157.03,59.319,-46.378,41.339,-147.56,18.76,-37.587,15.12,78.218,108.45,-6.7472,74.121,137.37,86.473,47.294
80.7,-156.5,59.209,-46.264,41.01,-146.81,18.725,-37.363,14.803,78.105,107.82,-6.4451,73.721,137.3,86.241,47.418
80.507,-155.96,59.096,-46.147,40.677,-146.05,18.687,-37.136,14.487,77.991,107.19,-6.1419,73.321,137.23,86.006,47.541
80.507,-155.96,59.096,-46.147,40.677,-146.05,18.687,-37.136,14.487,77.991,107.19,-6.1419,73.321,137.23,86.006,47.541
80.31,-155.41,58.981,-46.026,40.341,-145.29,18.647,-36.907,14.17,77.876,106.56,-5.8376,72.921,137.15,85.767,47.661
80.31,-155.41,58.981,-46.026,40.341,-145.29,18.647,-36.907,14.17,77.876,106.56,-5.8376,72.921,137.15,85.767,47.661
80.109,-154.86,58.862,-45.901,40.002,-144.52,18.603,-36.676,13.853,77.76,105.92,-5.5322,72.521,137.06,85.525,47.778
80.109,-154.86,58.862,-45.901,40.002,-144.52,18.603,-36.676,13.853,77.76,105.92,-5.5322,72.521,137.06,85.525,47.778
79.905,-154.3,58.74,-45.773,39.659,-143.75,18.556,-36.442,13.536,77.642,105.28,-5.2259,72.121,136.97,85.28,47.894
79.905,-154.3,58.74,-45.773,39.659,-143.75,18.556,-36.442,13.536,77.642,105.28,-5.2259,72.121,136.97,85.28,47.894
79.905,-154.3,58.74,-45.773,39.659,-143.75,18.556,-36.442,13.536,77.642,105.28,-5.2259,72.121,136.97,85.28,47.894
79.697,-153.74,58.615,-45.642,39.312,-142.97,18.507,-36.207,13.219,77.524,104.64,-4.9185,71.722,136.87,85.032,48.008
79.485,-153.18,58.487,-45.506,38.962,-142.19,18.454,-35.969,12.902,77.404,103.99,-4.6102,71.322,136.77,84.781,48.119
79.485,-153.18,58.487,-45.506,38.962,-142.19,18.454,-35.969,12.902,77.404,103.99,-4.6102,71.322,136.77,84.781,48.119
79.27,-152.61,58.356,-45.368,38.609,-141.41,18.399,-35.729,12.584,77.283,103.34,-4.3009,70.923,136.66,84.526,48.229
79.27,-152.61,58.356,-45.368,38.609,-141.41,18.399,-35.729,12.584,77.283,103.34,-4.3009,70.923,136.66,84.526,48.229
79.051,-152.03,58.222,-45.225,38.253,-140.62,18.34,-35.487,12.267,77.161,102.69,-3.9907,70.523,136.55,84.269,48.336
79.051,-152.03,58.222,-45.225,38.253,-140.62,18.34,-35.487,12.267,77.161,102.69,-3.9907,70.523,136.55,84.269,48.336
78.829,-151.45,58.084,-45.08,37.893,-139.82,18.279,-35.243,11.95,77.038,102.04,-3.6796,70.124,136.43,84.008,48.441
78.829,-151.45,58.084,-45.08,37.893,-139.82,18.279,-35.243,11.95,77.038,102.04,-3.6796,70.124,136.43,84.008,48.441
78.602,-150.87,57.944,-44.93,37.53,-139.02,18.215,-34.996,11.632,76.914,101.38,-3.3676,69.725,136.31,83.744,48.544
78.602,-150.87,57.944,-44.93,37.53,-139.02,18.215,-34.996,11.632,76.914,101.38,-3.3676,69.725,136.31,83.744,48.544
78.373,-150.28,57.8,-44.778,37.163,-138.22,18.147,-34.747,11.315,76.788,100.72,-3.0548,69.326,136.17,83.478,48.644
78.139,-149.68,57.654,-44.621,36.794,-137.41,18.077,-34.497,10.997,76.661,100.06,-2.7411,68.927,136.04,83.208,48.742
78.139,-149.68,57.654,-44.621,36.794,-137.41,18.077,-34.497,10.997,76.661,100.06,-2.7411,68.927,136.04,83.208,48.742
77.902,-149.08,57.504,-44.462,36.421,-136.6,18.004,-34.244,10.68,76.533,99.395,-2.4266,68.529,135.9,82.935,48.838
77.902,-149.08,57.504,-44.462,36.421,-136.6,18.004,-34.244,10.68,76.533,99.395,-2.4266,68.529,135.9,82.935,48.838
77.902,-149.08,57.504,-44.462,36.421,-136.6,18.004,-34.244,10.68,76.533,99.395,-2.4266,68.529,135.9,82.935,48.838
77.661,-148.48,57.351,-44.299,36.044,-135.78,17.928,-33.988,10.363,76.404,98.728,-2.1114,68.13,135.75,82.66,48.932
77.661,-148.48,57.351,-44.299,36.044,-135.78,17.928,-33.988,10.363,76.404,98.728,-2.1114,68.13,135.75,82.66,48.932
77.661,-148.48,57.351,-44.299,36.044,-135.78,17.928,-33.988,10.363,76.404,98.728,-2.1114,68.13,135.75,82.66,48.932
77.417,-147.87,57.195,-44.132,35.665,-134.96,17.848,-33.731,10.045,76.274,98.059,-1.7954,67.732,135.59,82.381,49.023
77.169,-147.26,57.036,-43.962,35.282,-134.13,17.766,-33.472,9.7276,76.142,97.387,-1.4787,67.334,135.43,82.099,49.112
77.169,-147.26,57.036,-43.962,35.282,-134.13,17.766,-33.472,9.7276,76.142,97.387,-1.4787,67.334,135.43,82.099,49.112
76.917,-146.64,56.874,-43.789,34.897,-133.3,17.681,-33.21,9.4102,76.009,96.713,-1.1613,66.936,135.27,81.815,49.199
76.917,-146.64,56.874,-43.789,34.897,-133.3,17.681,-33.21,9.4102,76.009,96.713,-1.1613,66.936,135.27,81.815,49.199
76.662,-146.02,56.709,-43.612,34.508,-132.46,17.593,-32.946,9.0928,75.875,96.036,-0.84316,66.538,135.1,81.527,49.283
76.662,-146.02,56.709,-43.612,34.508,-132.46,17.593,-32.946,9.0928,75.875,96.036,-0.84316,66.538,135.1,81.527,49.283
76.403,-145.39,56.541,-43.431,34.115,-131.62,17.502,-32.681,8.7755,75.739,95.358,-0.52441,66.14,134.92,81.237,49.365
76.403,-145.39,56.541,-43.431,34.115,-131.62,17.502,-32.681,8.7755,75.739,95.358,-0.52441,66.14,134.92,81.237,49.365
76.403,-145.39,56.541,-43.431,34.115,-131.62,17.502,-32.681,8.7755,75.739,95.358,-0.52441,66.14,134.92,81.237,49.365
76.14,-144.76,56.369,-43.248,33.72,-130.78,17.408,-32.413,8.4582,75.602,94.676,-0.20502,65.743,134.74,80.944,49.444
75.874,-144.12,56.195,-43.061,33.322,-129.93,17.311,-32.143,8.141,75.464,93.993,0.11496,65.346,134.55,80.647,49.521
75.874,-144.12,56.195,-43.061,33.322,-129.93,17.311,-32.143,8.141,75.464,93.993,0.11496,65.346,134.55,80.647,49.521
75.604,-143.48,56.018,-42.871,32.921,-129.08,17.211,-31.871,7.8239,75.325,93.307,0.43553,64.948,134.36,80.348,49.596
75.604,-143.48,56.018,-42.871,32.921,-129.08,17.211,-31.871,7.8239,75.325,93.307,0.43553,64.948,134.36,80.348,49.596
75.33,-142.83,55.837,-42.677,32.516,-128.22,17.108,-31.597,7.5069,75.184,92.619,0.75666,64.552,134.16,80.047,49.668
75.33,-142.83,55.837,-42.677,32.516,-128.22,17.108,-31.597,7.5069,75.184,92.619,0.75666,64.552,134.16,80.047,49.668
75.053,-142.18,55.654,-42.48,32.109,-127.36,17.002,-31.321,7.19,75.042,91.928,1.0783,64.155,133.95,79.742,49.738
75.053,-142.18,55.654,-42.48,32.109,-127.36,17.002,-31.321,7.19,75.042,91.928,1.0783,64.155,133.95,79.742,49.738
74.773,-141.53,55.467,-42.28,31.698,-126.5,16.893,-31.043,6.8732,74.899,91.236,1.4005,63.758,133.74,79.435,49.805
74.773,-141.53,55.467,-42.28,31.698,-126.5,16.893,-31.043,6.8732,74.899,91.236,1.4005,63.758,133.74,79.435,49.805
74.489,-140.87,55.278,-42.076,31.285,-125.63,16.782,-30.762,6.5565,74.754,90.541,1.7231,63.362,133.52,79.125,49.87
74.489,-140.87,55.278,-42.076,31.285,-125.63,16.782,-30.762,6.5565,74.754,90.541,1.7231,63.362,133.52,79.125,49.87
74.201,-140.2,55.085,-41.869,30.869,-124.76,16.667,-30.48,6.24,74.608,89.844,2.0462,62.966,133.3,78.812,49.932
74.201,-140.2,55.085,-41.869,30.869,-124.76,16.667,-30.48,6.24,74.608,89.844,2.0462,62.966,133.3,78.812,49.932
73.909,-139.54,54.889,-41.659,30.45,-123.88,16.549,-30.196,5.9236,74.461,89.145,2.3698,62.57,133.08,78.496,49.992
73.909,-139.54,54.889,-41.659,30.45,-123.88,16.549,-30.196,5.9236,74.461,89.145,2.3698,62.57,133.08,78.496,49.992
73.614,-138.86,54.691,-41.446,30.027,-123,16.429,-29.91,5.6074,74.313,88.444,2.6937,62.174,132.84,78.178,50.049
73.614,-138.86,54.691,-41.446,30.027,-123,16.429,-29.91,5.6074,74.313,88.444,2.6937,62.174,132.84,78.178,50.049
73.316,-138.19,54.489,-41.229,29.602,-122.11,16.305,-29.622,5.2913,74.163,87.741,3.0181,61.779,132.6,77.857,50.104
73.316,-138.19,54.489,-41.229,29.602,-122.11,16.305,-29.622,5.2913,74.163,87.741,3.0181,61.779,132.6,77.857,50.104
73.014,-137.5,54.285,-41.01,29.175,-121.22,16.179,-29.332,4.9754,74.011,87.035,3.3428,61.384,132.36,77.533,50.156
72.708,-136.82,54.077,-40.787,28.744,-120.33,16.05,-29.04,4.6598,73.859,86.328,3.6678,60.989,132.11,77.207,50.206
72.708,-136.82,54.077,-40.787,28.744,-120.33,16.05,-29.04,4.6598,73.859,86.328,3.6678,60.989,132.11,77.207,50.206
72.399,-136.13,53.867,-40.561,28.31,-119.44,15.918,-28.746,4.3443,73.705,85.619,3.9932,60.594,131.85,76.878,50.253
72.399,-136.13,53.867,-40.561,28.31,-119.44,15.918,-28.746,4.3443,73.705,85.619,3.9932,60.594,131.85,76.878,50.253
72.399,-136.13,53.867,-40.561,28.31,-119.44,15.918,-28.746,4.3443,73.705,85.619,3.9932,60.594,131.85,76.878,50.253
72.087,-135.44,53.653,-40.332,27.874,-118.54,15.783,-28.45,4.029,73.549,84.907,4.3188,60.199,131.59,76.547,50.297
72.087,-135.44,53.653,-40.332,27.874,-118.54,15.783,-28.45,4.029,73.549,84.907,4.3188,60.199,131.59,76.547,50.297
72.087,-135.44,53.653,-40.332,27.874,-118.54,15.783,-28.45,4.029,73.549,84.907,4.3188,60.199,131.59,76.547,50.297
71.771,-134.74,53.437,-40.099,27.435,-117.63,15.645,-28.153,3.714,73.393,84.194,4.6447,59.805,131.33,76.213,50.339
71.451,-134.03,53.218,-39.864,26.994,-116.72,15.504,-27.853,3.3992,73.235,83.479,4.9709,59.411,131.06,75.877,50.378
71.451,-134.03,53.218,-39.864,26.994,-116.72,15.504,-27.853,3.3992,73.235,83.479,4.9709,59.411,131.06,75.877,50.378
71.128,-133.33,52.995,-39.625,26.549,-115.81,15.36,-27.552,3.0847,73.075,82.762,5.2973,59.017,130.78,75.538,50.414
71.128,-133.33,52.995,-39.625,26.549,-115.81,15.36,-27.552,3.0847,73.075,82.762,5.2973,59.017,130.78,75.538,50.414
70.801,-132.62,52.77,-39.384,26.102,-114.9,15.214,-27.248,2.7705,72.914,82.044,5.6238,58.623,130.5,75.196,50.448
70.801,-132.62,52.77,-39.384,26.102,-114.9,15.214,-27.248,2.7705,72.914,82.044,5.6238,58.623,130.5,75.196,50.448
70.471,-131.9,52.542,-39.139,25.653,-113.98,15.064,-26.943,2.4565,72.752,81.323,5.9506,58.229,130.21,74.852,50.48
70.471,-131.9,52.542,-39.139,25.653,-113.98,15.064,-26.943,2.4565,72.752,81.323,5.9506,58.229,130.21,74.852,50.48
70.471,-131.9,52.542,-39.139,25.653,-113.98,15.064,-26.943,2.4565,72.752,81.323,5.9506,58.229,130.21,74.852,50.48
70.471,-131.9,52.542,-39.139,25.653,-113.98,15.064,-26.943,2.4565,72.752,81.323,5.9506,58.229,130.21,74.852,50.48
70.138,-131.18,52.311,-38.892,25.201,-113.06,14.912,-26.636,2.1428,72.589,80.601,6.2775,57.836,129.91,74.506,50.508
70.138,-131.18,52.311,-38.892,25.201,-113.06,14.912,-26.636,2.1428,72.589,80.601,6.2775,57.836,129.91,74.506,50.508
69.46,-129.73,51.841,-38.387,24.289,-111.21,14.599,-26.017,1.5163,72.257,79.151,6.9316,57.05,129.31,73.806,50.557
69.46,-129.73,51.841,-38.387,24.289,-111.21,14.599,-26.017,1.5163,72.257,79.151,6.9316,57.05,129.31,73.806,50.557
69.117,-129,51.602,-38.131,23.829,-110.28,14.438,-25.705,1.2036,72.089,78.423,7.2588,56.657,129,73.453,50.578
69.117,-129,51.602,-38.131,23.829,-110.28,14.438,-25.705,1.2036,72.089,78.423,7.2588,56.657,129,73.453,50.578
68.77,-128.27,51.359,-37.871,23.367,-109.34,14.275,-25.391,0.89114,71.92,77.694,7.5861,56.265,128.69,73.097,50.596
68.77,-128.27,51.359,-37.871,23.367,-109.34,14.275,-25.391,0.89114,71.92,77.694,7.5861,56.265,128.69,73.097,50.596
68.77,-128.27,51.359,-37.871,23.367,-109.34,14.275,-25.391,0.89114,71.92,77.694,7.5861,56.265,128.69,73.097,50.596
68.419,-127.53,51.114,-37.609,22.902,-108.4,14.109,-25.075,0.57908,71.75,76.964,7.9134,55.873,128.37,72.739,50.611
68.419,-127.53,51.114,-37.609,22.902,-108.4,14.109,-25.075,0.57908,71.75,76.964,7.9134,55.873,128.37,72.739,50.611
67.708,-126.04,50.616,-37.075,21.965,-106.52,13.768,-24.438,-0.043939,71.404,75.498,8.568,55.089,127.71,72.017,50.633
67.708,-126.04,50.616,-37.075,21.965,-106.52,13.768,-24.438,-0.043939,71.404,75.498,8.568,55.089,127.71,72.017,50.633
67.347,-125.29,50.362,-36.804,21.493,-105.57,13.593,-24.118,-0.35487,71.23,74.762,8.8952,54.697,127.37,71.652,50.64
67.347,-125.29,50.362,-36.804,21.493,-105.57,13.593,-24.118,-0.35487,71.23,74.762,8.8952,54.697,127.37,71.652,50.64
67.347,-125.29,50.362,-36.804,21.493,-105.57,13.593,-24.118,-0.35487,71.23,74.762,8.8952,54.697,127.37,71.652,50.64
66.983,-124.54,50.106,-36.53,21.019,-104.62,13.416,-23.795,-0.6654,71.053,74.025,9.2224,54.306,127.03,71.285,50.644
66.983,-124.54,50.106,-36.53,21.019,-104.62,13.416,-23.795,-0.6654,71.053,74.025,9.2224,54.306,127.03,71.285,50.644
66.616,-123.78,49.847,-36.254,20.543,-103.66,13.236,-23.471,-0.97551,70.876,73.287,9.5495,53.915,126.69,70.916,50.645
66.616,-123.78,49.847,-36.254,20.543,-103.66,13.236,-23.471,-0.97551,70.876,73.287,9.5495,53.915,126.69,70.916,50.645
66.246,-123.02,49.585,-35.974,20.064,-102.71,13.054,-23.146,-1.2852,70.697,72.548,9.8765,53.524,126.34,70.545,50.644
66.246,-123.02,49.585,-35.974,20.064,-102.71,13.054,-23.146,-1.2852,70.697,72.548,9.8765,53.524,126.34,70.545,50.644
65.872,-122.25,49.321,-35.692,19.583,-101.75,12.869,-22.818,-1.5944,70.516,71.806,10.203,53.133,125.98,70.172,50.64
65.872,-122.25,49.321,-35.692,19.583,-101.75,12.869,-22.818,-1.5944,70.516,71.806,10.203,53.133,125.98,70.172,50.64
65.495,-121.49,49.054,-35.407,19.1,-100.79,12.681,-22.49,-1.9032,70.334,71.064,10.53,52.742,125.62,69.796,50.633
65.495,-121.49,49.054,-35.407,19.1,-100.79,12.681,-22.49,-1.9032,70.334,71.064,10.53,52.742,125.62,69.796,50.633
65.495,-121.49,49.054,-35.407,19.1,-100.79,12.681,-22.49,-1.9032,70.334,71.064,10.53,52.742,125.62,69.796,50.633
65.115,-120.71,48.784,-35.12,18.615,-99.82,12.49,-22.159,-2.2116,70.151,70.32,10.857,52.352,125.25,69.419,50.623
65.115,-120.71,48.784,-35.12,18.615,-99.82,12.49,-22.159,-2.2116,70.151,70.32,10.857,52.352,125.25,69.419,50.623
64.731,-119.94,48.512,-34.829,18.128,-98.852,12.297,-21.827,-2.5194,69.967,69.575,11.183,51.962,124.88,69.039,50.611
64.731,-119.94,48.512,-34.829,18.128,-98.852,12.297,-21.827,-2.5194,69.967,69.575,11.183,51.962,124.88,69.039,50.611
64.345,-119.16,48.237,-34.536,17.638,-97.882,12.101,-21.494,-2.8268,69.78,68.829,11.509,51.572,124.5,68.658,50.596
64.345,-119.16,48.237,-34.536,17.638,-97.882,12.101,-21.494,-2.8268,69.78,68.829,11.509,51.572,124.5,68.658,50.596
64.345,-119.16,48.237,-34.536,17.638,-97.882,12.101,-21.494,-2.8268,69.78,68.829,11.509,51.572,124.5,68.658,50.596
63.562,-117.59,47.679,-33.943,16.653,-95.933,11.702,-20.823,-3.44,69.404,67.333,12.161,50.792,123.74,67.889,50.557
63.562,-117.59,47.679,-33.943,16.653,-95.933,11.702,-20.823,-3.44,69.404,67.333,12.161,50.792,123.74,67.889,50.557
63.166,-116.8,47.397,-33.642,16.158,-94.954,11.499,-20.485,-3.7458,69.214,66.583,12.486,50.403,123.34,67.502,50.533
63.166,-116.8,47.397,-33.642,16.158,-94.954,11.499,-20.485,-3.7458,69.214,66.583,12.486,50.403,123.34,67.502,50.533
62.766,-116.01,47.112,-33.339,15.661,-93.974,11.293,-20.146,-4.051,69.022,65.832,12.811,50.014,122.95,67.113,50.507
62.766,-116.01,47.112,-33.339,15.661,-93.974,11.293,-20.146,-4.051,69.022,65.832,12.811,50.014,122.95,67.113,50.507
62.364,-115.21,46.824,-33.033,15.161,-92.99,11.084,-19.806,-4.3558,68.829,65.08,13.136,49.625,122.55,66.722,50.477
62.364,-115.21,46.824,-33.033,15.161,-92.99,11.084,-19.806,-4.3558,68.829,65.08,13.136,49.625,122.55,66.722,50.477
61.959,-114.41,46.534,-32.725,14.66,-92.005,10.873,-19.464,-4.6599,68.634,64.327,13.461,49.236,122.14,66.33,50.445
61.959,-114.41,46.534,-32.725,14.66,-92.005,10.873,-19.464,-4.6599,68.634,64.327,13.461,49.236,122.14,66.33,50.445
61.55,-113.61,46.241,-32.414,14.157,-91.017,10.66,-19.12,-4.9634,68.438,63.573,13.785,48.847,121.73,65.935,50.41
61.55,-113.61,46.241,-32.414,14.157,-91.017,10.66,-19.12,-4.9634,68.438,63.573,13.785,48.847,121.73,65.935,50.41
61.139,-112.8,45.946,-32.101,13.653,-90.027,10.444,-18.776,-5.2664,68.241,62.818,14.108,48.459,121.31,65.539,50.372
61.139,-112.8,45.946,-32.101,13.653,-90.027,10.444,-18.776,-5.2664,68.241,62.818,14.108,48.459,121.31,65.539,50.372
60.724,-112,45.648,-31.785,13.146,-89.034,10.225,-18.43,-5.5688,68.042,62.062,14.432,48.07,120.89,65.141,50.332
60.724,-112,45.648,-31.785,13.146,-89.034,10.225,-18.43,-5.5688,68.042,62.062,14.432,48.07,120.89,65.141,50.332
60.307,-111.18,45.348,-31.467,12.638,-88.04,10.005,-18.083,-5.8705,67.842,61.305,14.754,47.682,120.47,64.742,50.288
60.307,-111.18,45.348,-31.467,12.638,-88.04,10.005,-18.083,-5.8705,67.842,61.305,14.754,47.682,120.47,64.742,50.288
59.886,-110.37,45.046,-31.147,12.128,-87.043,9.7816,-17.735,-6.1716,67.64,60.547,15.077,47.294,120.04,64.34,50.242
59.886,-110.37,45.046,-31.147,12.128,-87.043,9.7816,-17.735,-6.1716,67.64,60.547,15.077,47.294,120.04,64.34,50.242
59.886,-110.37,45.046,-31.147,12.128,-87.043,9.7816,-17.735,-6.1716,67.64,60.547,15.077,47.294,120.04,64.34,50.242
59.463,-109.55,44.741,-30.824,11.616,-86.044,9.5561,-17.385,-6.472,67.437,59.788,15.399,46.906,119.6,63.938,50.193
59.036,-108.73,44.434,-30.499,11.103,-85.044,9.3283,-17.034,-6.7718,67.233,59.029,15.72,46.518,119.17,63.533,50.141
59.036,-108.73,44.434,-30.499,11.103,-85.044,9.3283,-17.034,-6.7718,67.233,59.029,15.72,46.518,119.17,63.533,50.141
59.036,-108.73,44.434,-30.499,11.103,-85.044,9.3283,-17.034,-6.7718,67.233,59.029,15.72,46.518,119.17,63.533,50.141
58.607,-107.91,44.124,-30.172,10.589,-84.041,9.0982,-16.682,-7.0709,67.027,58.269,16.041,46.131,118.72,63.127,50.086
58.175,-107.08,43.813,-29.843,10.072,-83.037,8.8658,-16.329,-7.3693,66.82,57.508,16.361,45.743,118.27,62.72,50.028
58.175,-107.08,43.813,-29.843,10.072,-83.037,8.8658,-16.329,-7.3693,66.82,57.508,16.361,45.743,118.27,62.72,50.028
58.175,-107.08,43.813,-29.843,10.072,-83.037,8.8658,-16.329,-7.3693,66.82,57.508,16.361,45.743,118.27,62.72,50.028
57.74,-106.25,43.499,-29.511,9.5547,-82.031,8.6311,-15.975,-7.6671,66.611,56.746,16.681,45.356,117.82,62.311,49.968
57.74,-106.25,43.499,-29.511,9.5547,-82.031,8.6311,-15.975,-7.6671,66.611,56.746,16.681,45.356,117.82,62.311,49.968
57.74,-106.25,43.499,-29.511,9.5547,-82.031,8.6311,-15.975,-7.6671,66.611,56.746,16.681,45.356,117.82,62.311,49.968
56.862,-104.58,42.864,-28.842,8.515,-80.013,8.1551,-15.264,-8.2603,66.19,55.221,17.319,44.582,116.9,61.488,49.838
56.862,-104.58,42.864,-28.842,8.515,-80.013,8.1551,-15.264,-8.2603,66.19,55.221,17.319,44.582,116.9,61.488,49.838
56.418,-103.74,42.543,-28.504,7.9931,-79.002,7.9138,-14.906,-8.5559,65.977,54.457,17.637,44.195,116.44,61.075,49.769
56.418,-103.74,42.543,-28.504,7.9931,-79.002,7.9138,-14.906,-8.5559,65.977,54.457,17.637,44.195,116.44,61.075,49.769
56.418,-103.74,42.543,-28.504,7.9931,-79.002,7.9138,-14.906,-8.5559,65.977,54.457,17.637,44.195,116.44,61.075,49.769
55.972,-102.9,42.22,-28.163,7.4698,-77.989,7.6704,-14.548,-8.8507,65.763,53.693,17.955,43.808,115.97,60.66,49.697
55.972,-102.9,42.22,-28.163,7.4698,-77.989,7.6704,-14.548,-8.8507,65.763,53.693,17.955,43.808,115.97,60.66,49.697
55.972,-102.9,42.22,-28.163,7.4698,-77.989,7.6704,-14.548,-8.8507,65.763,53.693,17.955,43.808,115.97,60.66,49.697
55.072,-101.21,41.568,-27.477,6.4195,-75.959,7.1771,-13.828,-9.4379,65.331,52.164,18.588,43.035,115.02,59.827,49.544
55.072,-101.21,41.568,-27.477,6.4195,-75.959,7.1771,-13.828,-9.4379,65.331,52.164,18.588,43.035,115.02,59.827,49.544
54.618,-100.36,41.239,-27.131,5.8925,-74.942,6.9273,-13.467,-9.7304,65.112,51.398,18.903,42.648,114.53,59.409,49.464
54.618,-100.36,41.239,-27.131,5.8925,-74.942,6.9273,-13.467,-9.7304,65.112,51.398,18.903,42.648,114.53,59.409,49.464
54.618,-100.36,41.239,-27.131,5.8925,-74.942,6.9273,-13.467,-9.7304,65.112,51.398,18.903,42.648,114.53,59.409,49.464
54.161,-99.514,40.908,-26.783,5.3644,-73.924,6.6755,-13.105,-10.022,64.893,50.632,19.218,42.262,114.05,58.989,49.381
54.161,-99.514,40.908,-26.783,5.3644,-73.924,6.6755,-13.105,-10.022,64.893,50.632,19.218,42.262,114.05,58.989,49.381
53.701,-98.66,40.575,-26.433,4.8351,-72.904,6.4216,-12.742,-10.313,64.672,49.866,19.532,41.875,113.56,58.568,49.294
53.701,-98.66,40.575,-26.433,4.8351,-72.904,6.4216,-12.742,-10.313,64.672,49.866,19.532,41.875,113.56,58.568,49.294
53.701,-98.66,40.575,-26.433,4.8351,-72.904,6.4216,-12.742,-10.313,64.672,49.866,19.532,41.875,113.56,58.568,49.294
52.775,-96.945,39.903,-25.727,3.7733,-70.862,5.9079,-12.013,-10.892,64.226,48.332,20.158,41.103,112.56,57.722,49.113
52.775,-96.945,39.903,-25.727,3.7733,-70.862,5.9079,-12.013,-10.892,64.226,48.332,20.158,41.103,112.56,57.722,49.113
52.307,-96.084,39.563,-25.371,3.241,-69.839,5.6481,-11.648,-11.18,64.001,47.565,20.47,40.716,112.06,57.298,49.019
52.307,-96.084,39.563,-25.371,3.241,-69.839,5.6481,-11.648,-11.18,64.001,47.565,20.47,40.716,112.06,57.298,49.019
52.307,-96.084,39.563,-25.371,3.241,-69.839,5.6481,-11.648,-11.18,64.001,47.565,20.47,40.716,112.06,57.298,49.019
51.838,-95.221,39.222,-25.014,2.7076,-68.815,5.3865,-11.281,-11.468,63.775,46.797,20.781,40.33,111.55,56.872,48.921
51.838,-95.221,39.222,-25.014,2.7076,-68.815,5.3865,-11.281,-11.468,63.775,46.797,20.781,40.33,111.55,56.872,48.921
51.366,-94.356,38.879,-24.655,2.1734,-67.79,5.1229,-10.915,-11.754,63.547,46.03,21.091,39.944,111.04,56.446,48.821
51.366,-94.356,38.879,-24.655,2.1734,-67.79,5.1229,-10.915,-11.754,63.547,46.03,21.091,39.944,111.04,56.446,48.821
50.891,-93.488,38.535,-24.294,1.6383,-66.764,4.8575,-10.547,-12.04,63.318,45.262,21.4,39.558,110.52,56.018,48.717
50.891,-93.488,38.535,-24.294,1.6383,-66.764,4.8575,-10.547,-12.04,63.318,45.262,21.4,39.558,110.52,56.018,48.717
50.414,-92.618,38.188,-23.931,1.1023,-65.737,4.5902,-10.179,-12.325,63.088,44.494,21.709,39.172,110.01,55.59,48.611
50.414,-92.618,38.188,-23.931,1.1023,-65.737,4.5902,-10.179,-12.325,63.088,44.494,21.709,39.172,110.01,55.59,48.611
50.414,-92.618,38.188,-23.931,1.1023,-65.737,4.5902,-10.179,-12.325,63.088,44.494,21.709,39.172,110.01,55.59,48.611
49.453,-90.873,37.49,-23.201,0.028115,-63.682,4.0504,-9.44,-12.891,62.624,42.958,22.323,38.4,108.96,54.73,48.391
49.453,-90.873,37.49,-23.201,0.028115,-63.682,4.0504,-9.44,-12.891,62.624,42.958,22.323,38.4,108.96,54.73,48.391
48.969,-89.997,37.138,-22.833,-0.51005,-62.653,3.7779,-9.0698,-13.173,62.39,42.19,22.629,38.014,108.43,54.299,48.276
48.969,-89.997,37.138,-22.833,-0.51005,-62.653,3.7779,-9.0698,-13.173,62.39,42.19,22.629,38.014,108.43,54.299,48.276
48.482,-89.119,36.784,-22.464,-1.0489,-61.624,3.5037,-8.6991,-13.454,62.155,41.422,22.934,37.628,107.89,53.867,48.159
48.482,-89.119,36.784,-22.464,-1.0489,-61.624,3.5037,-8.6991,-13.454,62.155,41.422,22.934,37.628,107.89,53.867,48.159
47.994,-88.239,36.429,-22.093,-1.5883,-60.594,3.2278,-8.3278,-13.734,61.918,40.654,23.238,37.242,107.36,53.434,48.039
47.994,-88.239,36.429,-22.093,-1.5883,-60.594,3.2278,-8.3278,-13.734,61.918,40.654,23.238,37.242,107.36,53.434,48.039
47.503,-87.357,36.072,-21.721,-2.1283,-59.564,2.9503,-7.9561,-14.013,61.681,39.886,23.541,36.857,106.81,53,47.916
47.503,-87.357,36.072,-21.721,-2.1283,-59.564,2.9503,-7.9561,-14.013,61.681,39.886,23.541,36.857,106.81,53,47.916
47.01,-86.473,35.714,-21.348,-2.6688,-58.534,2.6712,-7.5838,-14.291,61.441,39.118,23.843,36.471,106.27,52.566,47.79
47.01,-86.473,35.714,-21.348,-2.6688,-58.534,2.6712,-7.5838,-14.291,61.441,39.118,23.843,36.471,106.27,52.566,47.79
47.01,-86.473,35.714,-21.348,-2.6688,-58.534,2.6712,-7.5838,-14.291,61.441,39.118,23.843,36.471,106.27,52.566,47.79
46.514,-85.588,35.354,-20.973,-3.2097,-57.503,2.3905,-7.2112,-14.568,61.201,38.35,24.144,36.085,105.72,52.131,47.662
46.017,-84.7,34.992,-20.596,-3.7511,-56.472,2.1083,-6.8381,-14.844,60.96,37.583,24.445,35.699,105.17,51.695,47.53
46.017,-84.7,34.992,-20.596,-3.7511,-56.472,2.1083,-6.8381,-14.844,60.96,37.583,24.445,35.699,105.17,51.695,47.53
45.517,-83.811,34.629,-20.218,-4.2929,-55.441,1.8246,-6.4647,-15.119,60.717,36.816,24.744,35.313,104.62,51.259,47.396
45.517,-83.811,34.629,-20.218,-4.2929,-55.441,1.8246,-6.4647,-15.119,60.717,36.816,24.744,35.313,104.62,51.259,47.396
45.016,-82.921,34.264,-19.839,-4.8351,-54.41,1.5394,-6.091,-15.393,60.473,36.049,25.042,34.927,104.06,50.822,47.26
45.016,-82.921,34.264,-19.839,-4.8351,-54.41,1.5394,-6.091,-15.393,60.473,36.049,25.042,34.927,104.06,50.822,47.26
44.512,-82.029,33.898,-19.459,-5.3775,-53.378,1.2527,-5.7169,-15.665,60.228,35.282,25.339,34.54,103.5,50.385,47.12
44.512,-82.029,33.898,-19.459,-5.3775,-53.378,1.2527,-5.7169,-15.665,60.228,35.282,25.339,34.54,103.5,50.385,47.12
44.006,-81.135,33.531,-19.077,-5.9202,-52.347,0.96473,-5.3425,-15.937,59.982,34.516,25.635,34.154,102.93,49.947,46.978
44.006,-81.135,33.531,-19.077,-5.9202,-52.347,0.96473,-5.3425,-15.937,59.982,34.516,25.635,34.154,102.93,49.947,46.978
43.499,-80.24,33.162,-18.694,-6.463,-51.316,0.67535,-4.9679,-16.208,59.734,33.75,25.929,33.768,102.36,49.508,46.833
43.499,-80.24,33.162,-18.694,-6.463,-51.316,0.67535,-4.9679,-16.208,59.734,33.75,25.929,33.768,102.36,49.508,46.833
42.989,-79.343,32.792,-18.31,-7.0061,-50.285,0.38464,-4.5931,-16.477,59.486,32.984,26.223,33.382,101.79,49.069,46.685
42.989,-79.343,32.792,-18.31,-7.0061,-50.285,0.38464,-4.5931,-16.477,59.486,32.984,26.223,33.382,101.79,49.069,46.685
42.989,-79.343,32.792,-18.31,-7.0061,-50.285,0.38464,-4.5931,-16.477,59.486,32.984,26.223,33.382,101.79,49.069,46.685
42.478,-78.445,32.421,-17.925,-7.5492,-49.254,0.092632,-4.2181,-16.746,59.236,32.219,26.516,32.995,101.22,48.63,46.534
41.964,-77.545,32.048,-17.538,-8.0924,-48.224,-0.20063,-3.843,-17.013,58.985,31.455,26.807,32.609,100.64,48.19,46.381
41.964,-77.545,32.048,-17.538,-8.0924,-48.224,-0.20063,-3.843,-17.013,58.985,31.455,26.807,32.609,100.64,48.19,46.381
41.964,-77.545,32.048,-17.538,-8.0924,-48.224,-0.20063,-3.843,-17.013,58.985,31.455,26.807,32.609,100.64,48.19,46.381
41.449,-76.644,31.674,-17.151,-8.6356,-47.194,-0.49512,-3.4677,-17.279,58.733,30.691,27.098,32.222,100.06,47.75,46.225
41.449,-76.644,31.674,-17.151,-8.6356,-47.194,-0.49512,-3.4677,-17.279,58.733,30.691,27.098,32.222,100.06,47.75,46.225
41.449,-76.644,31.674,-17.151,-8.6356,-47.194,-0.49512,-3.4677,-17.279,58.733,30.691,27.098,32.222,100.06,47.75,46.225
40.413,-74.839,30.923,-16.373,-9.722,-45.135,-1.0876,-2.7169,-17.808,58.225,29.165,27.675,31.449,98.893,46.868,45.905
40.413,-74.839,30.923,-16.373,-9.722,-45.135,-1.0876,-2.7169,-17.808,58.225,29.165,27.675,31.449,98.893,46.868,45.905
40.413,-74.839,30.923,-16.373,-9.722,-45.135,-1.0876,-2.7169,-17.808,58.225,29.165,27.675,31.449,98.893,46.868,45.905
40.413,-74.839,30.923,-16.373,-9.722,-45.135,-1.0876,-2.7169,-17.808,58.225,29.165,27.675,31.449,98.893,46.868,45.905
39.37,-73.029,30.167,-15.591,-10.808,-43.079,-1.6846,-1.966,-18.332,57.714,27.641,28.247,30.675,97.712,45.986,45.574
39.37,-73.029,30.167,-15.591,-10.808,-43.079,-1.6846,-1.966,-18.332,57.714,27.641,28.247,30.675,97.712,45.986,45.574
39.37,-73.029,30.167,-15.591,-10.808,-43.079,-1.6846,-1.966,-18.332,57.714,27.641,28.247,30.675,97.712,45.986,45.574
38.846,-72.122,29.787,-15.199,-11.35,-42.051,-1.9846,-1.5906,-18.593,57.456,26.881,28.532,30.288,97.118,45.545,45.405
38.846,-72.122,29.787,-15.199,-11.35,-42.051,-1.9846,-1.5906,-18.593,57.456,26.881,28.532,30.288,97.118,45.545,45.405
38.321,-71.214,29.406,-14.805,-11.893,-41.025,-2.2857,-1.2153,-18.852,57.198,26.121,28.815,29.901,96.52,45.103,45.233
38.321,-71.214,29.406,-14.805,-11.893,-41.025,-2.2857,-1.2153,-18.852,57.198,26.121,28.815,29.901,96.52,45.103,45.233
38.321,-71.214,29.406,-14.805,-11.893,-41.025,-2.2857,-1.2153,-18.852,57.198,26.121,28.815,29.901,96.52,45.103,45.233
37.265,-69.396,28.642,-14.017,-12.977,-38.975,-2.8907,-0.46502,-19.366,56.677,24.603,29.378,29.126,95.318,44.22,44.881
37.265,-69.396,28.642,-14.017,-12.977,-38.975,-2.8907,-0.46502,-19.366,56.677,24.603,29.378,29.126,95.318,44.22,44.881
37.265,-69.396,28.642,-14.017,-12.977,-38.975,-2.8907,-0.46502,-19.366,56.677,24.603,29.378,29.126,95.318,44.22,44.881
36.734,-68.485,28.259,-13.621,-13.518,-37.951,-3.1945,-0.090111,-19.622,56.416,23.846,29.657,28.738,94.713,43.778,44.701
36.734,-68.485,28.259,-13.621,-13.518,-37.951,-3.1945,-0.090111,-19.622,56.416,23.846,29.657,28.738,94.713,43.778,44.701
36.203,-67.574,27.875,-13.225,-14.059,-36.928,-3.4992,0.2846,-19.876,56.153,23.089,29.935,28.35,94.105,43.336,44.519
35.669,-66.662,27.489,-12.828,-14.599,-35.907,-3.8047,0.65907,-20.129,55.889,22.333,30.212,27.962,93.495,42.895,44.334
35.669,-66.662,27.489,-12.828,-14.599,-35.907,-3.8047,0.65907,-20.129,55.889,22.333,30.212,27.962,93.495,42.895,44.334
35.135,-65.749,27.104,-12.43,-15.139,-34.886,-4.111,1.0333,-20.38,55.624,21.579,30.487,27.574,92.883,42.453,44.146
35.135,-65.749,27.104,-12.43,-15.139,-34.886,-4.111,1.0333,-20.38,55.624,21.579,30.487,27.574,92.883,42.453,44.146
34.599,-64.836,26.717,-12.032,-15.678,-33.867,-4.418,1.4072,-20.63,55.359,20.825,30.762,27.186,92.268,42.011,43.956
34.599,-64.836,26.717,-12.032,-15.678,-33.867,-4.418,1.4072,-20.63,55.359,20.825,30.762,27.186,92.268,42.011,43.956
34.061,-63.922,26.329,-11.633,-16.217,-32.849,-4.7257,1.7807,-20.879,55.092,20.073,31.034,26.797,91.651,41.57,43.763
34.061,-63.922,26.329,-11.633,-16.217,-32.849,-4.7257,1.7807,-20.879,55.092,20.073,31.034,26.797,91.651,41.57,43.763
34.061,-63.922,26.329,-11.633,-16.217,-32.849,-4.7257,1.7807,-20.879,55.092,20.073,31.034,26.797,91.651,41.57,43.763
33.523,-63.007,25.941,-11.233,-16.755,-31.833,-5.0341,2.154,-21.127,54.825,19.321,31.306,26.408,91.032,41.128,43.568
32.983,-62.092,25.552,-10.833,-17.292,-30.818,-5.3431,2.5268,-21.373,54.556,18.571,31.576,26.019,90.41,40.687,43.37
32.983,-62.092,25.552,-10.833,-17.292,-30.818,-5.3431,2.5268,-21.373,54.556,18.571,31.576,26.019,90.41,40.687,43.37
32.441,-61.176,25.163,-10.433,-17.828,-29.805,-5.6527,2.8991,-21.618,54.287,17.821,31.845,25.63,89.786,40.246,43.169
32.441,-61.176,25.163,-10.433,-17.828,-29.805,-5.6527,2.8991,-21.618,54.287,17.821,31.845,25.63,89.786,40.246,43.169
31.899,-60.26,24.773,-10.032,-18.364,-28.793,-5.9628,3.271,-21.862,54.017,17.073,32.112,25.241,89.16,39.806,42.966
31.899,-60.26,24.773,-10.032,-18.364,-28.793,-5.9628,3.271,-21.862,54.017,17.073,32.112,25.241,89.16,39.806,42.966
31.899,-60.26,24.773,-10.032,-18.364,-28.793,-5.9628,3.271,-21.862,54.017,17.073,32.112,25.241,89.16,39.806,42.966
31.355,-59.344,24.382,-9.6307,-18.899,-27.782,-6.2734,3.6424,-22.104,53.745,16.327,32.378,24.851,88.533,39.365,42.761
31.355,-59.344,24.382,-9.6307,-18.899,-27.782,-6.2734,3.6424,-22.104,53.745,16.327,32.378,24.851,88.533,39.365,42.761
30.811,-58.427,23.991,-9.2291,-19.432,-26.774,-6.5845,4.0133,-22.345,53.473,15.581,32.642,24.461,87.903,38.925,42.553
30.265,-57.51,23.6,-8.8271,-19.965,-25.767,-6.896,4.3836,-22.585,53.2,14.837,32.905,24.071,87.271,38.486,42.342
29.718,-56.592,23.208,-8.4249,-20.497,-24.762,-7.2078,4.7533,-22.823,52.927,14.094,33.167,23.681,86.637,38.047,42.129
29.718,-56.592,23.208,-8.4249,-20.497,-24.762,-7.2078,4.7533,-22.823,52.927,14.094,33.167,23.681,86.637,38.047,42.129
29.718,-56.592,23.208,-8.4249,-20.497,-24.762,-7.2078,4.7533,-22.823,52.927,14.094,33.167,23.681,86.637,38.047,42.129
29.17,-55.675,22.816,-8.0224,-21.028,-23.759,-7.5201,5.1224,-23.059,52.652,13.352,33.427,23.29,86.001,37.608,41.914
29.17,-55.675,22.816,-8.0224,-21.028,-23.759,-7.5201,5.1224,-23.059,52.652,13.352,33.427,23.29,86.001,37.608,41.914
29.17,-55.675,22.816,-8.0224,-21.028,-23.759,-7.5201,5.1224,-23.059,52.652,13.352,33.427,23.29,86.001,37.608,41.914
28.621,-54.757,22.423,-7.6197,-21.557,-22.758,-7.8326,5.4908,-23.295,52.377,12.612,33.685,22.899,85.364,37.17,41.696
28.621,-54.757,22.423,-7.6197,-21.557,-22.758,-7.8326,5.4908,-23.295,52.377,12.612,33.685,22.899,85.364,37.17,41.696
28.621,-54.757,22.423,-7.6197,-21.557,-22.758,-7.8326,5.4908,-23.295,52.377,12.612,33.685,22.899,85.364,37.17,41.696
28.621,-54.757,22.423,-7.6197,-21.557,-22.758,-7.8326,5.4908,-23.295,52.377,12.612,33.685,22.899,85.364,37.17,41.696
27.521,-52.922,21.637,-6.8137,-22.613,-20.762,-8.4583,6.2254,-23.761,51.824,11.136,34.198,22.117,84.084,36.295,41.253
27.521,-52.922,21.637,-6.8137,-22.613,-20.762,-8.4583,6.2254,-23.761,51.824,11.136,34.198,22.117,84.084,36.295,41.253
27.521,-52.922,21.637,-6.8137,-22.613,-20.762,-8.4583,6.2254,-23.761,51.824,11.136,34.198,22.117,84.084,36.295,41.253
26.417,-51.087,20.849,-6.0073,-23.663,-18.775,-9.0848,6.957,-24.221,51.267,9.6666,34.704,21.333,82.797,35.422,40.8
26.417,-51.087,20.849,-6.0073,-23.663,-18.775,-9.0848,6.957,-24.221,51.267,9.6666,34.704,21.333,82.797,35.422,40.8
25.864,-50.17,20.456,-5.604,-24.187,-17.785,-9.3982,7.3216,-24.449,50.988,8.9341,34.955,20.941,82.151,34.987,40.571
25.864,-50.17,20.456,-5.604,-24.187,-17.785,-9.3982,7.3216,-24.449,50.988,8.9341,34.955,20.941,82.151,34.987,40.571
25.864,-50.17,20.456,-5.604,-24.187,-17.785,-9.3982,7.3216,-24.449,50.988,8.9341,34.955,20.941,82.151,34.987,40.571
25.31,-49.252,20.062,-5.2007,-24.708,-16.797,-9.7116,7.6853,-24.676,50.708,8.2032,35.205,20.549,81.504,34.552,40.338
24.756,-48.336,19.668,-4.7974,-25.229,-15.812,-10.025,8.0481,-24.901,50.427,7.474,35.452,20.156,80.855,34.118,40.104
24.756,-48.336,19.668,-4.7974,-25.229,-15.812,-10.025,8.0481,-24.901,50.427,7.474,35.452,20.156,80.855,34.118,40.104
24.201,-47.419,19.273,-4.3942,-25.748,-14.829,-10.338,8.41,-25.125,50.146,6.7464,35.699,19.763,80.205,33.685,39.867
23.645,-46.503,18.879,-3.9911,-26.265,-13.849,-10.652,8.7709,-25.347,49.864,6.0206,35.943,19.37,79.554,33.252,39.628
23.645,-46.503,18.879,-3.9911,-26.265,-13.849,-10.652,8.7709,-25.347,49.864,6.0206,35.943,19.37,79.554,33.252,39.628
23.645,-46.503,18.879,-3.9911,-26.265,-13.849,-10.652,8.7709,-25.347,49.864,6.0206,35.943,19.37,79.554,33.252,39.628
23.089,-45.587,18.485,-3.5882,-26.781,-12.872,-10.965,9.1308,-25.567,49.581,5.2966,36.186,18.976,78.901,32.821,39.386
23.089,-45.587,18.485,-3.5882,-26.781,-12.872,-10.965,9.1308,-25.567,49.581,5.2966,36.186,18.976,78.901,32.821,39.386
23.089,-45.587,18.485,-3.5882,-26.781,-12.872,-10.965,9.1308,-25.567,49.581,5.2966,36.186,18.976,78.901,32.821,39.386
22.532,-44.671,18.091,-3.1854,-27.295,-11.897,-11.278,9.4896,-25.786,49.298,4.5743,36.428,18.582,78.247,32.39,39.142
21.974,-43.756,17.697,-2.7829,-27.807,-10.925,-11.591,9.8474,-26.003,49.014,3.8539,36.668,18.188,77.592,31.96,38.896
21.417,-42.842,17.304,-2.3805,-28.318,-9.9558,-11.904,10.204,-26.219,48.729,3.1354,36.906,17.794,76.936,31.531,38.647
21.417,-42.842,17.304,-2.3805,-28.318,-9.9558,-11.904,10.204,-26.219,48.729,3.1354,36.906,17.794,76.936,31.531,38.647
21.417,-42.842,17.304,-2.3805,-28.318,-9.9558,-11.904,10.204,-26.219,48.729,3.1354,36.906,17.794,76.936,31.531,38.647
20.858,-41.928,16.91,-1.9785,-28.827,-8.9896,-12.216,10.56,-26.433,48.444,2.4188,37.142,17.399,76.279,31.103,38.397
20.858,-41.928,16.91,-1.9785,-28.827,-8.9896,-12.216,10.56,-26.433,48.444,2.4188,37.142,17.399,76.279,31.103,38.397
20.3,-41.015,16.517,-1.5768,-29.334,-8.0263,-12.528,10.914,-26.646,48.158,1.7041,37.377,17.004,75.62,30.676,38.144
20.3,-41.015,16.517,-1.5768,-29.334,-8.0263,-12.528,10.914,-26.646,48.158,1.7041,37.377,17.004,75.62,30.676,38.144
20.3,-41.015,16.517,-1.5768,-29.334,-8.0263,-12.528,10.914,-26.646,48.158,1.7041,37.377,17.004,75.62,30.676,38.144
19.741,-40.102,16.124,-1.1754,-29.839,-7.066,-12.84,11.267,-26.857,47.872,0.9914,37.61,16.608,74.961,30.25,37.889
19.182,-39.19,15.731,-0.77443,-30.342,-6.1089,-13.151,11.619,-27.066,47.585,0.28071,37.842,16.212,74.301,29.826,37.631
19.182,-39.19,15.731,-0.77443,-30.342,-6.1089,-13.151,11.619,-27.066,47.585,0.28071,37.842,16.212,74.301,29.826,37.631
19.182,-39.19,15.731,-0.77443,-30.342,-6.1089,-13.151,11.619,-27.066,47.585,0.28071,37.842,16.212,74.301,29.826,37.631
18.622,-38.279,15.339,-0.37388,-30.844,-5.1549,-13.462,11.97,-27.274,47.297,-0.42794,38.071,15.816,73.639,29.402,37.372
18.622,-38.279,15.339,-0.37388,-30.844,-5.1549,-13.462,11.97,-27.274,47.297,-0.42794,38.071,15.816,73.639,29.402,37.372
18.622,-38.279,15.339,-0.37388,-30.844,-5.1549,-13.462,11.97,-27.274,47.297,-0.42794,38.071,15.816,73.639,29.402,37.372
17.503,-36.46,14.555,0.42582,-31.84,-3.2567,-14.082,12.667,-27.685,46.721,-1.839,38.526,15.023,72.314,28.558,36.846
17.503,-36.46,14.555,0.42582,-31.84,-3.2567,-14.082,12.667,-27.685,46.721,-1.839,38.526,15.023,72.314,28.558,36.846
16.943,-35.552,14.164,0.8249,-32.335,-2.3126,-14.391,13.014,-27.888,46.431,-2.5413,38.75,14.626,71.651,28.137,36.58
16.943,-35.552,14.164,0.8249,-32.335,-2.3126,-14.391,13.014,-27.888,46.431,-2.5413,38.75,14.626,71.651,28.137,36.58
16.943,-35.552,14.164,0.8249,-32.335,-2.3126,-14.391,13.014,-27.888,46.431,-2.5413,38.75,14.626,71.651,28.137,36.58
16.383,-34.644,13.773,1.2234,-32.828,-1.372,-14.7,13.36,-28.089,46.142,-3.2414,38.973,14.229,70.987,27.718,36.311
16.383,-34.644,13.773,1.2234,-32.828,-1.372,-14.7,13.36,-28.089,46.142,-3.2414,38.973,14.229,70.987,27.718,36.311
16.383,-34.644,13.773,1.2234,-32.828,-1.372,-14.7,13.36,-28.089,46.142,-3.2414,38.973,14.229,70.987,27.718,36.311
15.262,-32.833,12.994,2.0186,-33.807,0.49883,-15.315,14.046,-28.487,45.561,-4.635,39.413,13.433,69.656,26.884,35.768
15.262,-32.833,12.994,2.0186,-33.807,0.49883,-15.315,14.046,-28.487,45.561,-4.635,39.413,13.433,69.656,26.884,35.768
14.702,-31.929,12.605,2.4152,-34.293,1.4288,-15.622,14.387,-28.683,45.27,-5.3284,39.631,13.034,68.99,26.469,35.494
14.702,-31.929,12.605,2.4152,-34.293,1.4288,-15.622,14.387,-28.683,45.27,-5.3284,39.631,13.034,68.99,26.469,35.494
14.702,-31.929,12.605,2.4152,-34.293,1.4288,-15.622,14.387,-28.683,45.27,-5.3284,39.631,13.034,68.99,26.469,35.494
14.142,-31.026,12.216,2.8111,-34.776,2.3552,-15.927,14.726,-28.877,44.979,-6.0194,39.846,12.636,68.324,26.055,35.217
