1471.9,54.424,20.101,-2.149e-07,-0.014444,1.5442e-10,1660.2,50.799,0,0,0,0,0.009056,0
1471.9,54.424,20.101,-2.149e-07,-0.014444,1.5442e-10,1660.2,50.799,0,0,0,0,0.009056,0
1471.9,54.424,20.101,-2.149e-07,-0.014444,1.5442e-10,1660.2,50.799,0,0,0,0,0.009056,0
1471.9,54.424,20.101,-2.149e-07,-0.014444,1.5442e-10,1660.2,50.799,0,0,0,0,0.009056,0
1471.9,54.424,20.101,-2.149e-07,-0.014444,1.5442e-10,1660.2,50.799,0,0,0,0,0.009056,0
1471.9,54.424,20.101,-2.149e-07,-0.014444,1.5442e-10,1660.2,50.799,0,0,0,0,0.009056,0
1471.9,54.424,20.101,-2.149e-07,-0.014444,1.5442e-10,1660.2,50.799,0,0,0,0,0.009056,0
1471.9,54.424,20.101,-2.149e-07,-0.014444,1.5442e-10,1660.2,50.799,0,0,0,0,0.009056,0
1471.9,54.424,20.101,-2.149e-07,-0.014444,1.5442e-10,1660.2,50.799,0,0,0,0,0.009056,0
1471.9,54.424,20.101,-2.149e-07,-0.014444,1.5442e-10,1660.2,50.799,0,0,0,0,0.009056,0
1471.9,54.424,20.101,-2.149e-07,-0.014444,1.5442e-10,1660.2,50.799,0,0,0,0,0.009056,0
1471.9,54.424,20.101,-2.149e-07,-0.014444,1.5442e-10,1660.2,50.799,0,0,0,0,0.009056,0
1473.9,54.424,20.099,-2.1488e-07,-0.014843,1.5867e-10,1660.2,50.799,0,0,0,0,0.0091538,0
1474.3,54.424,20.099,-2.1488e-07,-0.014924,1.5954e-10,1660.2,50.799,0,0,0,0,0.0091735,0
1474.3,54.424,20.099,-2.1488e-07,-0.014924,1.5954e-10,1660.2,50.799,0,0,0,0,0.0091735,0
1477.1,54.424,20.097,-2.1485e-07,-0.01548,1.6549e-10,1660.2,50.799,0,0,0,0,0.0093145,0
1477.1,54.424,20.097,-2.1485e-07,-0.01548,1.6549e-10,1660.2,50.799,0,0,0,0,0.0093145,0
1477.6,54.424,20.097,-2.1485e-07,-0.01556,1.6634e-10,1660.2,50.799,0,0,0,0,0.009335,0
1477.6,54.424,20.097,-2.1485e-07,-0.01556,1.6634e-10,1660.2,50.799,0,0,0,0,0.009335,0
1477.6,54.424,20.097,-2.1485e-07,-0.01556,1.6634e-10,1660.2,50.799,0,0,0,0,0.009335,0
1477.6,54.424,20.097,-2.1485e-07,-0.01556,1.6634e-10,1660.2,50.799,0,0,0,0,0.009335,0
1477.6,54.424,20.097,-2.1485e-07,-0.01556,1.6634e-10,1660.2,50.799,0,0,0,0,0.009335,0
1477.6,54.424,20.097,-2.1485e-07,-0.01556,1.6634e-10,1660.2,50.799,0,0,0,0,0.009335,0
1477.6,54.424,20.097,-2.1485e-07,-0.01556,1.6634e-10,1660.2,50.799,0,0,0,0,0.009335,0
1477.6,54.424,20.097,-2.1485e-07,-0.01556,1.6634e-10,1660.2,50.799,0,0,0,0,0.009335,0
1477.6,54.424,20.097,-2.1485e-07,-0.01556,1.6634e-10,1660.2,50.799,0,0,0,0,0.009335,0
1477.6,54.424,20.097,-2.1485e-07,-0.01556,1.6634e-10,1660.2,50.799,0,0,0,0,0.009335,0
1477.6,54.424,20.097,-2.1485e-07,-0.01556,1.6634e-10,1660.2,50.799,0,0,0,0,0.009335,0
1477.6,54.424,20.097,-2.1485e-07,-0.01556,1.6634e-10,1660.2,50.799,0,0,0,0,0.009335,0
1477.6,54.424,20.097,-2.1485e-07,-0.01556,1.6634e-10,1660.2,50.799,0,0,0,0,0.009335,0
1477.6,54.424,20.097,-2.1485e-07,-0.01556,1.6634e-10,1660.2,50.799,0,0,0,0,0.009335,0
1477.6,54.424,20.097,-2.1485e-07,-0.01556,1.6634e-10,1660.2,50.799,0,0,0,0,0.009335,0
1477.6,54.424,20.097,-2.1485e-07,-0.01556,1.6634e-10,1660.2,50.799,0,0,0,0,0.009335,0
1477.6,54.424,20.097,-2.1485e-07,-0.01556,1.6634e-10,1660.2,50.799,0,0,0,0,0.009335,0
1477.6,54.424,20.097,-2.1485e-07,-0.01556,1.6634e-10,1660.2,50.799,0,0,0,0,0.009335,0
1477.6,54.424,20.097,-2.1485e-07,-0.01556,1.6634e-10,1660.2,50.799,0,0,0,0,0.009335,0
1478.4,54.424,20.096,-2.1484e-07,-0.015717,1.6804e-10,1660.2,50.799,0,0,0,0,0.0093763,0
1478.4,54.424,20.096,-2.1484e-07,-0.015717,1.6804e-10,1660.2,50.799,0,0,0,0,0.0093763,0
1478.4,54.424,20.096,-2.1484e-07,-0.015717,1.6804e-10,1660.2,50.799,0,0,0,0,0.0093763,0
1478.8,54.424,20.096,-2.1484e-07,-0.015794,1.6884e-10,1660.2,50.799,0,0,0,0,0.0093971,0
1480.4,54.424,20.094,-2.1483e-07,-0.01611,1.7218e-10,1660.2,50.799,0,0,0,0,0.009481,0
1482,54.424,20.093,-2.1481e-07,-0.016422,1.7551e-10,1660.2,50.799,0,0,0,0,0.0095665,0
1482.8,54.424,20.092,-2.1481e-07,-0.016577,1.7718e-10,1660.2,50.799,0,0,0,0,0.0096099,0
1482.8,54.424,20.092,-2.1481e-07,-0.016577,1.7718e-10,1660.2,50.799,0,0,0,0,0.0096099,0
1482.8,54.424,20.092,-2.1481e-07,-0.016577,1.7718e-10,1660.2,50.799,0,0,0,0,0.0096099,0
1482.8,54.424,20.092,-2.1481e-07,-0.016577,1.7718e-10,1660.2,50.799,0,0,0,0,0.0096099,0
1482.8,54.424,20.092,-2.1481e-07,-0.016577,1.7718e-10,1660.2,50.799,0,0,0,0,0.0096099,0
1482.8,54.424,20.092,-2.1481e-07,-0.016577,1.7718e-10,1660.2,50.799,0,0,0,0,0.0096099,0
1482.8,54.424,20.092,-2.1481e-07,-0.016577,1.7718e-10,1660.2,50.799,0,0,0,0,0.0096099,0
1482.8,54.424,20.092,-2.1481e-07,-0.016577,1.7718e-10,1660.2,50.799,0,0,0,0,0.0096099,0
1483.2,54.424,20.092,-2.148e-07,-0.016654,1.7798e-10,1660.2,50.799,0,0,0,0,0.0096317,0
1483.2,54.424,20.092,-2.148e-07,-0.016654,1.7798e-10,1660.2,50.799,0,0,0,0,0.0096317,0
1483.2,54.424,20.092,-2.148e-07,-0.016654,1.7798e-10,1660.2,50.799,0,0,0,0,0.0096317,0
1483.2,54.424,20.092,-2.148e-07,-0.016654,1.7798e-10,1660.2,50.799,0,0,0,0,0.0096317,0
1483.2,54.424,20.092,-2.148e-07,-0.016654,1.7798e-10,1660.2,50.799,0,0,0,0,0.0096317,0
1483.2,54.424,20.092,-2.148e-07,-0.016654,1.7798e-10,1660.2,50.799,0,0,0,0,0.0096317,0
1483.2,54.424,20.092,-2.148e-07,-0.016654,1.7798e-10,1660.2,50.799,0,0,0,0,0.0096317,0
1483.2,54.424,20.092,-2.148e-07,-0.016654,1.7798e-10,1660.2,50.799,0,0,0,0,0.0096317,0
1483.2,54.424,20.092,-2.148e-07,-0.016654,1.7798e-10,1660.2,50.799,0,0,0,0,0.0096317,0
1483.2,54.424,20.092,-2.148e-07,-0.016654,1.7798e-10,1660.2,50.799,0,0,0,0,0.0096317,0
1483.2,54.424,20.092,-2.148e-07,-0.016654,1.7798e-10,1660.2,50.799,0,0,0,0,0.0096317,0
1483.2,54.424,20.092,-2.148e-07,-0.016654,1.7798e-10,1660.2,50.799,0,0,0,0,0.0096317,0
1483.2,54.424,20.092,-2.148e-07,-0.016654,1.7798e-10,1660.2,50.799,0,0,0,0,0.0096317,0
1483.2,54.424,20.092,-2.148e-07,-0.016654,1.7798e-10,1660.2,50.799,0,0,0,0,0.0096317,0
1483.2,54.424,20.092,-2.148e-07,-0.016654,1.7798e-10,1660.2,50.799,0,0,0,0,0.0096317,0
1483.2,54.424,20.092,-2.148e-07,-0.016654,1.7798e-10,1660.2,50.799,0,0,0,0,0.0096317,0
1483.2,54.424,20.092,-2.148e-07,-0.016654,1.7798e-10,1660.2,50.799,0,0,0,0,0.0096317,0
1484.8,54.424,20.091,-2.1479e-07,-0.016967,1.8131e-10,1660.2,50.799,0,0,0,0,0.0097199,0
1486.4,54.424,20.089,-2.1477e-07,-0.017275,1.8464e-10,1660.2,50.799,0,0,0,0,0.0098098,0
1486.4,54.424,20.089,-2.1477e-07,-0.017275,1.8464e-10,1660.2,50.799,0,0,0,0,0.0098098,0
1488,54.424,20.088,-2.1476e-07,-0.017583,1.8792e-10,1660.2,50.799,0,0,0,0,0.0099013,0
1488,54.424,20.088,-2.1476e-07,-0.017583,1.8792e-10,1660.2,50.799,0,0,0,0,0.0099013,0
1488,54.424,20.088,-2.1476e-07,-0.017583,1.8792e-10,1660.2,50.799,0,0,0,0,0.0099013,0
1488,54.424,20.088,-2.1476e-07,-0.017583,1.8792e-10,1660.2,50.799,0,0,0,0,0.0099013,0
1488,54.424,20.088,-2.1476e-07,-0.017583,1.8792e-10,1660.2,50.799,0,0,0,0,0.0099013,0
1488,54.424,20.088,-2.1476e-07,-0.017583,1.8792e-10,1660.2,50.799,0,0,0,0,0.0099013,0
1488,54.424,20.088,-2.1476e-07,-0.017583,1.8792e-10,1660.2,50.799,0,0,0,0,0.0099013,0
1488,54.424,20.088,-2.1476e-07,-0.017583,1.8792e-10,1660.2,50.799,0,0,0,0,0.0099013,0
1488,54.424,20.088,-2.1476e-07,-0.017583,1.8792e-10,1660.2,50.799,0,0,0,0,0.0099013,0
1488,54.424,20.088,-2.1476e-07,-0.017583,1.8792e-10,1660.2,50.799,0,0,0,0,0.0099013,0
1488.8,54.424,20.087,-2.1475e-07,-0.017737,1.8956e-10,1660.2,50.799,0,0,0,0,0.0099477,0
1488.8,54.424,20.087,-2.1475e-07,-0.017737,1.8956e-10,1660.2,50.799,0,0,0,0,0.0099477,0
1488.8,54.424,20.087,-2.1475e-07,-0.017737,1.8956e-10,1660.2,50.799,0,0,0,0,0.0099477,0
1488.8,54.424,20.087,-2.1475e-07,-0.017737,1.8956e-10,1660.2,50.799,0,0,0,0,0.0099477,0
1488.8,54.424,20.087,-2.1475e-07,-0.017737,1.8956e-10,1660.2,50.799,0,0,0,0,0.0099477,0
1488.8,54.424,20.087,-2.1475e-07,-0.017737,1.8956e-10,1660.2,50.799,0,0,0,0,0.0099477,0
1488.8,54.424,20.087,-2.1475e-07,-0.017737,1.8956e-10,1660.2,50.799,0,0,0,0,0.0099477,0
1488.8,54.424,20.087,-2.1475e-07,-0.017737,1.8956e-10,1660.2,50.799,0,0,0,0,0.0099477,0
1488.8,54.424,20.087,-2.1475e-07,-0.017737,1.8956e-10,1660.2,50.799,0,0,0,0,0.0099477,0
1488.8,54.424,20.087,-2.1475e-07,-0.017737,1.8956e-10,1660.2,50.799,0,0,0,0,0.0099477,0
1488.8,54.424,20.087,-2.1475e-07,-0.017737,1.8956e-10,1660.2,50.799,0,0,0,0,0.0099477,0
1488.8,54.424,20.087,-2.1475e-07,-0.017737,1.8956e-10,1660.2,50.799,0,0,0,0,0.0099477,0
1488.8,54.424,20.087,-2.1475e-07,-0.017737,1.8956e-10,1660.2,50.799,0,0,0,0,0.0099477,0
1488.8,54.424,20.087,-2.1475e-07,-0.017737,1.8956e-10,1660.2,50.799,0,0,0,0,0.0099477,0
1488.8,54.424,20.087,-2.1475e-07,-0.017737,1.8956e-10,1660.2,50.799,0,0,0,0,0.0099477,0
1488.8,54.424,20.087,-2.1475e-07,-0.017737,1.8956e-10,1660.2,50.799,0,0,0,0,0.0099477,0
1489.6,54.424,20.087,-2.1474e-07,-0.017889,1.912e-10,1660.2,50.799,0,0,0,0,0.0099946,0
1491.2,54.424,20.085,-2.1473e-07,-0.018196,1.945e-10,1660.2,50.799,0,0,0,0,0.01009,0
1492.8,54.424,20.084,-2.1471e-07,-0.018502,1.9782e-10,1660.2,50.799,0,0,0,0,0.010186,0
1492.8,54.424,20.084,-2.1471e-07,-0.018502,1.9782e-10,1660.2,50.799,0,0,0,0,0.010186,0
1494,54.424,20.083,-2.147e-07,-0.018729,2.0022e-10,1660.2,50.799,0,0,0,0,0.01026,0
1494,54.424,20.083,-2.147e-07,-0.018729,2.0022e-10,1660.2,50.799,0,0,0,0,0.01026,0
1494,54.424,20.083,-2.147e-07,-0.018729,2.0022e-10,1660.2,50.799,0,0,0,0,0.01026,0
1494,54.424,20.083,-2.147e-07,-0.018729,2.0022e-10,1660.2,50.799,0,0,0,0,0.01026,0
1494,54.424,20.083,-2.147e-07,-0.018729,2.0022e-10,1660.2,50.799,0,0,0,0,0.01026,0
1494,54.424,20.083,-2.147e-07,-0.018729,2.0022e-10,1660.2,50.799,0,0,0,0,0.01026,0
1494,54.424,20.083,-2.147e-07,-0.018729,2.0022e-10,1660.2,50.799,0,0,0,0,0.01026,0
1494,54.424,20.083,-2.147e-07,-0.018729,2.0022e-10,1660.2,50.799,0,0,0,0,0.01026,0
1494,54.424,20.083,-2.147e-07,-0.018729,2.0022e-10,1660.2,50.799,0,0,0,0,0.01026,0
1494,54.424,20.083,-2.147e-07,-0.018729,2.0022e-10,1660.2,50.799,0,0,0,0,0.01026,0
1494.8,54.424,20.082,-2.1469e-07,-0.018881,2.0191e-10,1660.2,50.799,0,0,0,0,0.01031,0
1494.8,54.424,20.082,-2.1469e-07,-0.018881,2.0191e-10,1660.2,50.799,0,0,0,0,0.01031,0
1494.8,54.424,20.082,-2.1469e-07,-0.018881,2.0191e-10,1660.2,50.799,0,0,0,0,0.01031,0
1494.8,54.424,20.082,-2.1469e-07,-0.018881,2.0191e-10,1660.2,50.799,0,0,0,0,0.01031,0
1494.8,54.424,20.082,-2.1469e-07,-0.018881,2.0191e-10,1660.2,50.799,0,0,0,0,0.01031,0
1494.8,54.424,20.082,-2.1469e-07,-0.018881,2.0191e-10,1660.2,50.799,0,0,0,0,0.01031,0
1494.8,54.424,20.082,-2.1469e-07,-0.018881,2.0191e-10,1660.2,50.799,0,0,0,0,0.01031,0
1494.8,54.424,20.082,-2.1469e-07,-0.018881,2.0191e-10,1660.2,50.799,0,0,0,0,0.01031,0
1494.8,54.424,20.082,-2.1469e-07,-0.018881,2.0191e-10,1660.2,50.799,0,0,0,0,0.01031,0
1494.8,54.424,20.082,-2.1469e-07,-0.018881,2.0191e-10,1660.2,50.799,0,0,0,0,0.01031,0
1494.8,54.424,20.082,-2.1469e-07,-0.018881,2.0191e-10,1660.2,50.799,0,0,0,0,0.01031,0
1494.8,54.424,20.082,-2.1469e-07,-0.018881,2.0191e-10,1660.2,50.799,0,0,0,0,0.01031,0
1494.8,54.424,20.082,-2.1469e-07,-0.018881,2.0191e-10,1660.2,50.799,0,0,0,0,0.01031,0
1494.8,54.424,20.082,-2.1469e-07,-0.018881,2.0191e-10,1660.2,50.799,0,0,0,0,0.01031,0
1494.8,54.424,20.082,-2.1469e-07,-0.018881,2.0191e-10,1660.2,50.799,0,0,0,0,0.01031,0
1494.8,54.424,20.082,-2.1469e-07,-0.018881,2.0191e-10,1660.2,50.799,0,0,0,0,0.01031,0
1494.8,54.424,20.082,-2.1469e-07,-0.018881,2.0191e-10,1660.2,50.799,0,0,0,0,0.01031,0
1496,54.424,20.081,-2.1468e-07,-0.019108,2.0427e-10,1660.2,50.799,0,0,0,0,0.010386,0
1497.2,54.424,20.08,-2.1467e-07,-0.019334,2.0671e-10,1660.2,50.799,0,0,0,0,0.010462,0
1498.8,54.424,20.078,-2.1465e-07,-0.019634,2.0992e-10,1660.2,50.799,0,0,0,0,0.010567,0
1500.4,54.424,20.076,-2.1463e-07,-0.019936,2.1315e-10,1660.2,50.799,0,0,0,0,0.010673,0
1500.4,54.424,20.076,-2.1463e-07,-0.019936,2.1315e-10,1660.2,50.799,0,0,0,0,0.010673,0
1500.4,54.424,20.076,-2.1463e-07,-0.019936,2.1315e-10,1660.2,50.799,0,0,0,0,0.010673,0
1500.4,54.424,20.076,-2.1463e-07,-0.019936,2.1315e-10,1660.2,50.799,0,0,0,0,0.010673,0
1500.4,54.424,20.076,-2.1463e-07,-0.019936,2.1315e-10,1660.2,50.799,0,0,0,0,0.010673,0
1500.4,54.424,20.076,-2.1463e-07,-0.019936,2.1315e-10,1660.2,50.799,0,0,0,0,0.010673,0
1500.4,54.424,20.076,-2.1463e-07,-0.019936,2.1315e-10,1660.2,50.799,0,0,0,0,0.010673,0
1500.4,54.424,20.076,-2.1463e-07,-0.019936,2.1315e-10,1660.2,50.799,0,0,0,0,0.010673,0
1500.9,54.424,20.076,-2.1463e-07,-0.02001,2.1395e-10,1660.2,50.799,0,0,0,0,0.0107,0
1500.9,54.424,20.076,-2.1463e-07,-0.02001,2.1395e-10,1660.2,50.799,0,0,0,0,0.0107,0
1500.9,54.424,20.076,-2.1463e-07,-0.02001,2.1395e-10,1660.2,50.799,0,0,0,0,0.0107,0
1500.9,54.424,20.076,-2.1463e-07,-0.02001,2.1395e-10,1660.2,50.799,0,0,0,0,0.0107,0
1500.9,54.424,20.076,-2.1463e-07,-0.02001,2.1395e-10,1660.2,50.799,0,0,0,0,0.0107,0
1500.9,54.424,20.076,-2.1463e-07,-0.02001,2.1395e-10,1660.2,50.799,0,0,0,0,0.0107,0
1500.9,54.424,20.076,-2.1463e-07,-0.02001,2.1395e-10,1660.2,50.799,0,0,0,0,0.0107,0
1500.9,54.424,20.076,-2.1463e-07,-0.02001,2.1395e-10,1660.2,50.799,0,0,0,0,0.0107,0
1500.9,54.424,20.076,-2.1463e-07,-0.02001,2.1395e-10,1660.2,50.799,0,0,0,0,0.0107,0
1500.9,54.424,20.076,-2.1463e-07,-0.02001,2.1395e-10,1660.2,50.799,0,0,0,0,0.0107,0
1500.9,54.424,20.076,-2.1463e-07,-0.02001,2.1395e-10,1660.2,50.799,0,0,0,0,0.0107,0
1500.9,54.424,20.076,-2.1463e-07,-0.02001,2.1395e-10,1660.2,50.799,0,0,0,0,0.0107,0
1500.9,54.424,20.076,-2.1463e-07,-0.02001,2.1395e-10,1660.2,50.799,0,0,0,0,0.0107,0
1500.9,54.424,20.076,-2.1463e-07,-0.02001,2.1395e-10,1660.2,50.799,0,0,0,0,0.0107,0
1500.9,54.424,20.076,-2.1463e-07,-0.02001,2.1395e-10,1660.2,50.799,0,0,0,0,0.0107,0
1500.9,54.424,20.076,-2.1463e-07,-0.02001,2.1395e-10,1660.2,50.799,0,0,0,0,0.0107,0
1500.9,54.424,20.076,-2.1463e-07,-0.02001,2.1395e-10,1660.2,50.799,0,0,0,0,0.0107,0
1500.9,54.424,20.076,-2.1463e-07,-0.02001,2.1395e-10,1660.2,50.799,0,0,0,0,0.0107,0
1500.9,54.424,20.076,-2.1463e-07,-0.02001,2.1395e-10,1660.2,50.799,0,0,0,0,0.0107,0
1503.7,54.424,20.073,-2.146e-07,-0.020531,2.1958e-10,1660.2,50.799,0,0,0,0,0.010892,0
1503.7,54.424,20.073,-2.146e-07,-0.020531,2.1958e-10,1660.2,50.799,0,0,0,0,0.010892,0
1504.9,54.424,20.072,-2.1459e-07,-0.020753,2.2196e-10,1660.2,50.799,0,0,0,0,0.010976,0
1504.9,54.424,20.072,-2.1459e-07,-0.020753,2.2196e-10,1660.2,50.799,0,0,0,0,0.010976,0
1504.9,54.424,20.072,-2.1459e-07,-0.020753,2.2196e-10,1660.2,50.799,0,0,0,0,0.010976,0
1504.9,54.424,20.072,-2.1459e-07,-0.020753,2.2196e-10,1660.2,50.799,0,0,0,0,0.010976,0
1504.9,54.424,20.072,-2.1459e-07,-0.020753,2.2196e-10,1660.2,50.799,0,0,0,0,0.010976,0
1504.9,54.424,20.072,-2.1459e-07,-0.020753,2.2196e-10,1660.2,50.799,0,0,0,0,0.010976,0
1504.9,54.424,20.072,-2.1459e-07,-0.020753,2.2196e-10,1660.2,50.799,0,0,0,0,0.010976,0
1504.9,54.424,20.072,-2.1459e-07,-0.020753,2.2196e-10,1660.2,50.799,0,0,0,0,0.010976,0
1506.9,54.424,20.07,-2.1456e-07,-0.021122,2.2579e-10,1660.2,50.799,0,0,0,0,0.01112,0
1506.9,54.424,20.07,-2.1456e-07,-0.021122,2.2579e-10,1660.2,50.799,0,0,0,0,0.01112,0
1506.9,54.424,20.07,-2.1456e-07,-0.021122,2.2579e-10,1660.2,50.799,0,0,0,0,0.01112,0
1506.9,54.424,20.07,-2.1456e-07,-0.021122,2.2579e-10,1660.2,50.799,0,0,0,0,0.01112,0
1506.9,54.424,20.07,-2.1456e-07,-0.021122,2.2579e-10,1660.2,50.799,0,0,0,0,0.01112,0
1506.9,54.424,20.07,-2.1456e-07,-0.021122,2.2579e-10,1660.2,50.799,0,0,0,0,0.01112,0
1506.9,54.424,20.07,-2.1456e-07,-0.021122,2.2579e-10,1660.2,50.799,0,0,0,0,0.01112,0
1506.9,54.424,20.07,-2.1456e-07,-0.021122,2.2579e-10,1660.2,50.799,0,0,0,0,0.01112,0
1506.9,54.424,20.07,-2.1456e-07,-0.021122,2.2579e-10,1660.2,50.799,0,0,0,0,0.01112,0
1506.9,54.424,20.07,-2.1456e-07,-0.021122,2.2579e-10,1660.2,50.799,0,0,0,0,0.01112,0
1507.3,54.424,20.069,-2.1456e-07,-0.021197,2.266e-10,1660.2,50.799,0,0,0,0,0.011149,0
1507.3,54.424,20.069,-2.1456e-07,-0.021197,2.266e-10,1660.2,50.799,0,0,0,0,0.011149,0
1507.3,54.424,20.069,-2.1456e-07,-0.021197,2.266e-10,1660.2,50.799,0,0,0,0,0.011149,0
1507.3,54.424,20.069,-2.1456e-07,-0.021197,2.266e-10,1660.2,50.799,0,0,0,0,0.011149,0
1507.3,54.424,20.069,-2.1456e-07,-0.021197,2.266e-10,1660.2,50.799,0,0,0,0,0.011149,0
1507.3,54.424,20.069,-2.1456e-07,-0.021197,2.266e-10,1660.2,50.799,0,0,0,0,0.011149,0
1507.3,54.424,20.069,-2.1456e-07,-0.021197,2.266e-10,1660.2,50.799,0,0,0,0,0.011149,0
1507.3,54.424,20.069,-2.1456e-07,-0.021197,2.266e-10,1660.2,50.799,0,0,0,0,0.011149,0
1508.5,54.424,20.068,-2.1455e-07,-0.021416,2.2893e-10,1660.2,50.799,0,0,0,0,0.011237,0
1510.5,54.424,20.066,-2.1452e-07,-0.021782,2.329e-10,1660.2,50.799,0,0,0,0,0.011388,0
1510.5,54.424,20.066,-2.1452e-07,-0.021782,2.329e-10,1660.2,50.799,0,0,0,0,0.011388,0
1510.9,54.424,20.066,-2.1452e-07,-0.021856,2.3369e-10,1660.2,50.799,0,0,0,0,0.011419,0
1510.9,54.424,20.066,-2.1452e-07,-0.021856,2.3369e-10,1660.2,50.799,0,0,0,0,0.011419,0
1510.9,54.424,20.066,-2.1452e-07,-0.021856,2.3369e-10,1660.2,50.799,0,0,0,0,0.011419,0
1510.9,54.424,20.066,-2.1452e-07,-0.021856,2.3369e-10,1660.2,50.799,0,0,0,0,0.011419,0
1510.9,54.424,20.066,-2.1452e-07,-0.021856,2.3369e-10,1660.2,50.799,0,0,0,0,0.011419,0
1510.9,54.424,20.066,-2.1452e-07,-0.021856,2.3369e-10,1660.2,50.799,0,0,0,0,0.011419,0
1510.9,54.424,20.066,-2.1452e-07,-0.021856,2.3369e-10,1660.2,50.799,0,0,0,0,0.011419,0
1510.9,54.424,20.066,-2.1452e-07,-0.021856,2.3369e-10,1660.2,50.799,0,0,0,0,0.011419,0
1510.9,54.424,20.066,-2.1452e-07,-0.021856,2.3369e-10,1660.2,50.799,0,0,0,0,0.011419,0
1510.9,54.424,20.066,-2.1452e-07,-0.021856,2.3369e-10,1660.2,50.799,0,0,0,0,0.011419,0
1512.5,54.424,20.064,-2.145e-07,-0.022146,2.368e-10,1660.2,50.799,0,0,0,0,0.011543,0
1512.5,54.424,20.064,-2.145e-07,-0.022146,2.368e-10,1660.2,50.799,0,0,0,0,0.011543,0
1512.5,54.424,20.064,-2.145e-07,-0.022146,2.368e-10,1660.2,50.799,0,0,0,0,0.011543,0
1512.5,54.424,20.064,-2.145e-07,-0.022146,2.368e-10,1660.2,50.799,0,0,0,0,0.011543,0
1512.5,54.424,20.064,-2.145e-07,-0.022146,2.368e-10,1660.2,50.799,0,0,0,0,0.011543,0
1512.5,54.424,20.064,-2.145e-07,-0.022146,2.368e-10,1660.2,50.799,0,0,0,0,0.011543,0
1512.5,54.424,20.064,-2.145e-07,-0.022146,2.368e-10,1660.2,50.799,0,0,0,0,0.011543,0
1512.5,54.424,20.064,-2.145e-07,-0.022146,2.368e-10,1660.2,50.799,0,0,0,0,0.011543,0
1512.5,54.424,20.064,-2.145e-07,-0.022146,2.368e-10,1660.2,50.799,0,0,0,0,0.011543,0
1512.5,54.424,20.064,-2.145e-07,-0.022146,2.368e-10,1660.2,50.799,0,0,0,0,0.011543,0
1512.9,54.424,20.063,-2.1449e-07,-0.022219,2.3756e-10,1660.2,50.799,0,0,0,0,0.011574,0
1512.9,54.424,20.063,-2.1449e-07,-0.022219,2.3756e-10,1660.2,50.799,0,0,0,0,0.011574,0
1512.9,54.424,20.063,-2.1449e-07,-0.022219,2.3756e-10,1660.2,50.799,0,0,0,0,0.011574,0
1512.9,54.424,20.063,-2.1449e-07,-0.022219,2.3756e-10,1660.2,50.799,0,0,0,0,0.011574,0
1512.9,54.424,20.063,-2.1449e-07,-0.022219,2.3756e-10,1660.2,50.799,0,0,0,0,0.011574,0
1512.9,54.424,20.063,-2.1449e-07,-0.022219,2.3756e-10,1660.2,50.799,0,0,0,0,0.011574,0
1512.9,54.424,20.063,-2.1449e-07,-0.022219,2.3756e-10,1660.2,50.799,0,0,0,0,0.011574,0
1513.7,54.424,20.062,-2.1448e-07,-0.022363,2.3905e-10,1660.2,50.799,0,0,0,0,0.011637,0
1514.9,54.424,20.061,-2.1447e-07,-0.022581,2.4142e-10,1660.2,50.799,0,0,0,0,0.011734,0
1516.5,54.424,20.059,-2.1445e-07,-0.02287,2.4443e-10,1660.2,50.799,0,0,0,0,0.011865,0
1518.1,54.424,20.057,-2.1443e-07,-0.023158,2.4758e-10,1660.2,50.799,0,0,0,0,0.011999,0
1518.1,54.424,20.057,-2.1443e-07,-0.023158,2.4758e-10,1660.2,50.799,0,0,0,0,0.011999,0
1518.1,54.424,20.057,-2.1443e-07,-0.023158,2.4758e-10,1660.2,50.799,0,0,0,0,0.011999,0
1518.1,54.424,20.057,-2.1443e-07,-0.023158,2.4758e-10,1660.2,50.799,0,0,0,0,0.011999,0
1518.1,54.424,20.057,-2.1443e-07,-0.023158,2.4758e-10,1660.2,50.799,0,0,0,0,0.011999,0
1518.1,54.424,20.057,-2.1443e-07,-0.023158,2.4758e-10,1660.2,50.799,0,0,0,0,0.011999,0
1518.1,54.424,20.057,-2.1443e-07,-0.023158,2.4758e-10,1660.2,50.799,0,0,0,0,0.011999,0
1518.1,54.424,20.057,-2.1443e-07,-0.023158,2.4758e-10,1660.2,50.799,0,0,0,0,0.011999,0
1518.1,54.424,20.057,-2.1443e-07,-0.023158,2.4758e-10,1660.2,50.799,0,0,0,0,0.011999,0
1518.5,54.424,20.057,-2.1443e-07,-0.023229,2.4833e-10,1660.2,50.799,0,0,0,0,0.012033,0
1518.5,54.424,20.057,-2.1443e-07,-0.023229,2.4833e-10,1660.2,50.799,0,0,0,0,0.012033,0
1518.5,54.424,20.057,-2.1443e-07,-0.023229,2.4833e-10,1660.2,50.799,0,0,0,0,0.012033,0
1518.5,54.424,20.057,-2.1443e-07,-0.023229,2.4833e-10,1660.2,50.799,0,0,0,0,0.012033,0
1518.5,54.424,20.057,-2.1443e-07,-0.023229,2.4833e-10,1660.2,50.799,0,0,0,0,0.012033,0
1518.5,54.424,20.057,-2.1443e-07,-0.023229,2.4833e-10,1660.2,50.799,0,0,0,0,0.012033,0
1518.5,54.424,20.057,-2.1443e-07,-0.023229,2.4833e-10,1660.2,50.799,0,0,0,0,0.012033,0
1518.5,54.424,20.057,-2.1443e-07,-0.023229,2.4833e-10,1660.2,50.799,0,0,0,0,0.012033,0
1518.5,54.424,20.057,-2.1443e-07,-0.023229,2.4833e-10,1660.2,50.799,0,0,0,0,0.012033,0
1518.5,54.424,20.057,-2.1443e-07,-0.023229,2.4833e-10,1660.2,50.799,0,0,0,0,0.012033,0
1518.5,54.424,20.057,-2.1443e-07,-0.023229,2.4833e-10,1660.2,50.799,0,0,0,0,0.012033,0
1518.5,54.424,20.057,-2.1443e-07,-0.023229,2.4833e-10,1660.2,50.799,0,0,0,0,0.012033,0
1518.5,54.424,20.057,-2.1443e-07,-0.023229,2.4833e-10,1660.2,50.799,0,0,0,0,0.012033,0
1518.5,54.424,20.057,-2.1443e-07,-0.023229,2.4833e-10,1660.2,50.799,0,0,0,0,0.012033,0
1518.5,54.424,20.057,-2.1443e-07,-0.023229,2.4833e-10,1660.2,50.799,0,0,0,0,0.012033,0
1518.5,54.424,20.057,-2.1443e-07,-0.023229,2.4833e-10,1660.2,50.799,0,0,0,0,0.012033,0
1520.5,54.424,20.055,-2.144e-07,-0.023589,2.5221e-10,1660.2,50.799,0,0,0,0,0.012205,0
1520.5,54.424,20.055,-2.144e-07,-0.023589,2.5221e-10,1660.2,50.799,0,0,0,0,0.012205,0
1521.3,54.424,20.054,-2.1439e-07,-0.023731,2.5375e-10,1660.2,50.799,0,0,0,0,0.012276,0
1521.3,54.424,20.054,-2.1439e-07,-0.023731,2.5375e-10,1660.2,50.799,0,0,0,0,0.012276,0
1523.7,54.424,20.051,-2.1436e-07,-0.024158,2.5828e-10,1660.2,50.799,0,0,0,0,0.012492,0
1523.7,54.424,20.051,-2.1436e-07,-0.024158,2.5828e-10,1660.2,50.799,0,0,0,0,0.012492,0
1523.7,54.424,20.051,-2.1436e-07,-0.024158,2.5828e-10,1660.2,50.799,0,0,0,0,0.012492,0
1523.7,54.424,20.051,-2.1436e-07,-0.024158,2.5828e-10,1660.2,50.799,0,0,0,0,0.012492,0
1524.1,54.424,20.05,-2.1436e-07,-0.024229,2.5903e-10,1660.2,50.799,0,0,0,0,0.012529,0
1524.1,54.424,20.05,-2.1436e-07,-0.024229,2.5903e-10,1660.2,50.799,0,0,0,0,0.012529,0
1524.1,54.424,20.05,-2.1436e-07,-0.024229,2.5903e-10,1660.2,50.799,0,0,0,0,0.012529,0
1524.1,54.424,20.05,-2.1436e-07,-0.024229,2.5903e-10,1660.2,50.799,0,0,0,0,0.012529,0
1524.1,54.424,20.05,-2.1436e-07,-0.024229,2.5903e-10,1660.2,50.799,0,0,0,0,0.012529,0
1524.1,54.424,20.05,-2.1436e-07,-0.024229,2.5903e-10,1660.2,50.799,0,0,0,0,0.012529,0
1524.1,54.424,20.05,-2.1436e-07,-0.024229,2.5903e-10,1660.2,50.799,0,0,0,0,0.012529,0
1524.1,54.424,20.05,-2.1436e-07,-0.024229,2.5903e-10,1660.2,50.799,0,0,0,0,0.012529,0
1524.1,54.424,20.05,-2.1436e-07,-0.024229,2.5903e-10,1660.2,50.799,0,0,0,0,0.012529,0
1524.1,54.424,20.05,-2.1436e-07,-0.024229,2.5903e-10,1660.2,50.799,0,0,0,0,0.012529,0
1524.1,54.424,20.05,-2.1436e-07,-0.024229,2.5903e-10,1660.2,50.799,0,0,0,0,0.012529,0
1524.1,54.424,20.05,-2.1436e-07,-0.024229,2.5903e-10,1660.2,50.799,0,0,0,0,0.012529,0
1524.1,54.424,20.05,-2.1436e-07,-0.024229,2.5903e-10,1660.2,50.799,0,0,0,0,0.012529,0
1524.1,54.424,20.05,-2.1436e-07,-0.024229,2.5903e-10,1660.2,50.799,0,0,0,0,0.012529,0
1524.1,54.424,20.05,-2.1436e-07,-0.024229,2.5903e-10,1660.2,50.799,0,0,0,0,0.012529,0
1524.1,54.424,20.05,-2.1436e-07,-0.024229,2.5903e-10,1660.2,50.799,0,0,0,0,0.012529,0
1524.1,54.424,20.05,-2.1436e-07,-0.024229,2.5903e-10,1660.2,50.799,0,0,0,0,0.012529,0
1524.1,54.424,20.05,-2.1436e-07,-0.024229,2.5903e-10,1660.2,50.799,0,0,0,0,0.012529,0
1524.1,54.424,20.05,-2.1436e-07,-0.024229,2.5903e-10,1660.2,50.799,0,0,0,0,0.012529,0
1526.9,54.424,20.047,-2.1432e-07,-0.024721,2.643e-10,1660.2,50.799,0,0,0,0,0.012793,0
1527.3,54.424,20.046,-2.1431e-07,-0.024791,2.6502e-10,1660.2,50.799,0,0,0,0,0.012831,0
1528.9,54.424,20.044,-2.1429e-07,-0.02507,2.6797e-10,1660.2,50.799,0,0,0,0,0.012988,0
1528.9,54.424,20.044,-2.1429e-07,-0.02507,2.6797e-10,1660.2,50.799,0,0,0,0,0.012988,0
1528.9,54.424,20.044,-2.1429e-07,-0.02507,2.6797e-10,1660.2,50.799,0,0,0,0,0.012988,0
1528.9,54.424,20.044,-2.1429e-07,-0.02507,2.6797e-10,1660.2,50.799,0,0,0,0,0.012988,0
1528.9,54.424,20.044,-2.1429e-07,-0.02507,2.6797e-10,1660.2,50.799,0,0,0,0,0.012988,0
1528.9,54.424,20.044,-2.1429e-07,-0.02507,2.6797e-10,1660.2,50.799,0,0,0,0,0.012988,0
1528.9,54.424,20.044,-2.1429e-07,-0.02507,2.6797e-10,1660.2,50.799,0,0,0,0,0.012988,0
1528.9,54.424,20.044,-2.1429e-07,-0.02507,2.6797e-10,1660.2,50.799,0,0,0,0,0.012988,0
1528.9,54.424,20.044,-2.1429e-07,-0.02507,2.6797e-10,1660.2,50.799,0,0,0,0,0.012988,0
1528.9,54.424,20.044,-2.1429e-07,-0.02507,2.6797e-10,1660.2,50.799,0,0,0,0,0.012988,0
1528.9,54.424,20.044,-2.1429e-07,-0.02507,2.6797e-10,1660.2,50.799,0,0,0,0,0.012988,0
1528.9,54.424,20.044,-2.1429e-07,-0.02507,2.6797e-10,1660.2,50.799,0,0,0,0,0.012988,0
1528.9,54.424,20.044,-2.1429e-07,-0.02507,2.6797e-10,1660.2,50.799,0,0,0,0,0.012988,0
1528.9,54.424,20.044,-2.1429e-07,-0.02507,2.6797e-10,1660.2,50.799,0,0,0,0,0.012988,0
1528.9,54.424,20.044,-2.1429e-07,-0.02507,2.6797e-10,1660.2,50.799,0,0,0,0,0.012988,0
1528.9,54.424,20.044,-2.1429e-07,-0.02507,2.6797e-10,1660.2,50.799,0,0,0,0,0.012988,0
1528.9,54.424,20.044,-2.1429e-07,-0.02507,2.6797e-10,1660.2,50.799,0,0,0,0,0.012988,0
1528.9,54.424,20.044,-2.1429e-07,-0.02507,2.6797e-10,1660.2,50.799,0,0,0,0,0.012988,0
1528.9,54.424,20.044,-2.1429e-07,-0.02507,2.6797e-10,1660.2,50.799,0,0,0,0,0.012988,0
1528.9,54.424,20.044,-2.1429e-07,-0.02507,2.6797e-10,1660.2,50.799,0,0,0,0,0.012988,0
1529.7,54.424,20.043,-2.1428e-07,-0.025207,2.6942e-10,1660.2,50.799,0,0,0,0,0.013068,0
1529.7,54.424,20.043,-2.1428e-07,-0.025207,2.6942e-10,1660.2,50.799,0,0,0,0,0.013068,0
1529.7,54.424,20.043,-2.1428e-07,-0.025207,2.6942e-10,1660.2,50.799,0,0,0,0,0.013068,0
1529.7,54.424,20.043,-2.1428e-07,-0.025207,2.6942e-10,1660.2,50.799,0,0,0,0,0.013068,0
1529.7,54.424,20.043,-2.1428e-07,-0.025207,2.6942e-10,1660.2,50.799,0,0,0,0,0.013068,0
1529.7,54.424,20.043,-2.1428e-07,-0.025207,2.6942e-10,1660.2,50.799,0,0,0,0,0.013068,0
1530.5,54.424,20.042,-2.1427e-07,-0.025346,2.7095e-10,1660.2,50.799,0,0,0,0,0.013149,0
1530.5,54.424,20.042,-2.1427e-07,-0.025346,2.7095e-10,1660.2,50.799,0,0,0,0,0.013149,0
1532.1,54.424,20.04,-2.1425e-07,-0.025624,2.739e-10,1660.2,50.799,0,0,0,0,0.013313,0
1532.1,54.424,20.04,-2.1425e-07,-0.025624,2.739e-10,1660.2,50.799,0,0,0,0,0.013313,0
1532.1,54.424,20.04,-2.1425e-07,-0.025624,2.739e-10,1660.2,50.799,0,0,0,0,0.013313,0
1534.5,54.424,20.037,-2.1422e-07,-0.026037,2.7837e-10,1660.2,50.799,0,0,0,0,0.013568,0
1534.5,54.424,20.037,-2.1422e-07,-0.026037,2.7837e-10,1660.2,50.799,0,0,0,0,0.013568,0
1534.5,54.424,20.037,-2.1422e-07,-0.026037,2.7837e-10,1660.2,50.799,0,0,0,0,0.013568,0
1534.5,54.424,20.037,-2.1422e-07,-0.026037,2.7837e-10,1660.2,50.799,0,0,0,0,0.013568,0
1534.5,54.424,20.037,-2.1422e-07,-0.026037,2.7837e-10,1660.2,50.799,0,0,0,0,0.013568,0
1534.5,54.424,20.037,-2.1422e-07,-0.026037,2.7837e-10,1660.2,50.799,0,0,0,0,0.013568,0
1534.5,54.424,20.037,-2.1422e-07,-0.026037,2.7837e-10,1660.2,50.799,0,0,0,0,0.013568,0
1534.5,54.424,20.037,-2.1422e-07,-0.026037,2.7837e-10,1660.2,50.799,0,0,0,0,0.013568,0
1534.5,54.424,20.037,-2.1422e-07,-0.026037,2.7837e-10,1660.2,50.799,0,0,0,0,0.013568,0
1534.5,54.424,20.037,-2.1422e-07,-0.026037,2.7837e-10,1660.2,50.799,0,0,0,0,0.013568,0
1534.5,54.424,20.037,-2.1422e-07,-0.026037,2.7837e-10,1660.2,50.799,0,0,0,0,0.013568,0
1534.5,54.424,20.037,-2.1422e-07,-0.026037,2.7837e-10,1660.2,50.799,0,0,0,0,0.013568,0
1534.5,54.424,20.037,-2.1422e-07,-0.026037,2.7837e-10,1660.2,50.799,0,0,0,0,0.013568,0
1534.5,54.424,20.037,-2.1422e-07,-0.026037,2.7837e-10,1660.2,50.799,0,0,0,0,0.013568,0
1534.5,54.424,20.037,-2.1422e-07,-0.026037,2.7837e-10,1660.2,50.799,0,0,0,0,0.013568,0
1534.5,54.424,20.037,-2.1422e-07,-0.026037,2.7837e-10,1660.2,50.799,0,0,0,0,0.013568,0
1534.5,54.424,20.037,-2.1422e-07,-0.026037,2.7837e-10,1660.2,50.799,0,0,0,0,0.013568,0
1534.5,54.424,20.037,-2.1422e-07,-0.026037,2.7837e-10,1660.2,50.799,0,0,0,0,0.013568,0
1534.5,54.424,20.037,-2.1422e-07,-0.026037,2.7837e-10,1660.2,50.799,0,0,0,0,0.013568,0
1536.2,54.424,20.035,-2.1419e-07,-0.026311,2.8128e-10,1660.2,50.799,0,0,0,0,0.013743,0
1537.4,54.424,20.034,-2.1418e-07,-0.026514,2.8348e-10,1660.2,50.799,0.2,-3.2337e-05,4,-0.0014173,0.014016,0
1537.4,54.424,20.034,-2.1418e-07,-0.026514,2.8348e-10,1660.2,50.799,0.36,-0.00017501,4,-0.0046869,0.014128,0
1537.4,54.424,20.034,-2.1418e-07,-0.026514,2.8348e-10,1660.2,50.799,0.36,-0.00017501,4,-0.0046869,0.014128,0
1539.4,54.424,20.031,-2.1415e-07,-0.026853,2.8716e-10,1660.2,50.799,0.44,-0.00030933,4,-0.0069669,0.014418,0
1539.4,54.424,20.031,-2.1415e-07,-0.026853,2.8716e-10,1660.2,50.799,0.76,-0.0014496,4,-0.019899,0.014645,0
1539.4,54.424,20.031,-2.1415e-07,-0.026853,2.8716e-10,1660.2,50.799,0.76,-0.0014496,4,-0.019899,0.014645,0
1539.4,54.424,20.031,-2.1415e-07,-0.026853,2.8716e-10,1660.2,50.799,0.76,-0.0014496,4,-0.019899,0.014645,0
1539.4,54.424,20.031,-2.1415e-07,-0.026853,2.8716e-10,1660.2,50.799,0.76,-0.0014496,4,-0.019899,0.014645,0
1539.4,54.424,20.031,-2.1415e-07,-0.026853,2.8716e-10,1660.2,50.799,0.76,-0.0014496,4,-0.019899,0.014645,0
1539.4,54.424,20.031,-2.1415e-07,-0.026853,2.8716e-10,1660.2,50.799,0.76,-0.0014496,4,-0.019899,0.014645,0
1539.4,54.424,20.031,-2.1415e-07,-0.026853,2.8716e-10,1660.2,50.799,0.76,-0.0014496,4,-0.019899,0.014645,0
1539.4,54.424,20.031,-2.1415e-07,-0.026853,2.8716e-10,1660.2,50.799,0.76,-0.0014496,4,-0.019899,0.014645,0
1539.4,54.424,20.031,-2.1415e-07,-0.026853,2.8716e-10,1660.2,50.799,0.76,-0.0014496,4,-0.019899,0.014645,0
1540.2,54.424,20.03,-2.1414e-07,-0.026988,2.8858e-10,1660.2,50.799,0.76,-0.0014496,4,-0.019899,0.014742,0
1540.2,54.424,20.03,-2.1414e-07,-0.026988,2.8858e-10,1660.2,50.799,0.76,-0.0014496,4,-0.019899,0.014742,0
1540.2,54.424,20.03,-2.1414e-07,-0.026988,2.8858e-10,1660.2,50.799,0.76,-0.0014496,4,-0.019899,0.014742,0
1540.2,54.424,20.03,-2.1414e-07,-0.026988,2.8858e-10,1660.2,50.799,0.76,-0.0014496,4,-0.019899,0.014742,0
1540.2,54.424,20.03,-2.1414e-07,-0.026988,2.8858e-10,1660.2,50.799,0.76,-0.0014496,4,-0.019899,0.014742,0
1540.2,54.424,20.03,-2.1414e-07,-0.026988,2.8858e-10,1660.2,50.799,0.76,-0.0014496,4,-0.019899,0.014742,0
1540.2,54.424,20.03,-2.1414e-07,-0.026988,2.8858e-10,1660.2,50.799,0.76,-0.0014496,4,-0.019899,0.014742,0
1540.2,54.424,20.03,-2.1414e-07,-0.026988,2.8858e-10,1660.2,50.799,0.76,-0.0014496,4,-0.019899,0.014742,0
1540.2,54.424,20.03,-2.1414e-07,-0.026988,2.8858e-10,1660.2,50.799,0.76,-0.0014496,4,-0.019899,0.014742,0
1540.2,54.424,20.03,-2.1414e-07,-0.026988,2.8858e-10,1660.2,50.799,0.76,-0.0014496,4,-0.019899,0.014742,0
1540.2,54.424,20.03,-2.1414e-07,-0.026988,2.8858e-10,1660.3,50.799,0.92,-0.0024745,3.9999,-0.028258,0.014857,0
1540.2,54.424,20.03,-2.1414e-07,-0.026988,2.8858e-10,1660.3,50.799,0.92,-0.0024745,3.9999,-0.028258,0.014857,0
1540.2,54.424,20.03,-2.1414e-07,-0.026988,2.8858e-10,1660.3,50.799,0.92,-0.0024745,3.9999,-0.028258,0.014857,0
1540.2,54.424,20.03,-2.1414e-07,-0.026988,2.8858e-10,1660.3,50.799,0.92,-0.0024745,3.9999,-0.028258,0.014857,0
1540.2,54.424,20.03,-2.1414e-07,-0.026988,2.8858e-10,1660.3,50.799,0.92,-0.0024745,3.9999,-0.028258,0.014857,0
1540.2,54.424,20.03,-2.1414e-07,-0.026988,2.8858e-10,1660.3,50.799,0.92,-0.0024745,3.9999,-0.028258,0.014857,0
1541,54.424,20.029,-2.1412e-07,-0.027121,2.9e-10,1660.3,50.799,0.92,-0.0024745,3.9999,-0.028258,0.014956,0
1541,54.424,20.029,-2.1412e-07,-0.027121,2.9e-10,1660.4,50.799,1.24,-0.0056258,3.9998,-0.047352,0.015186,0
1542.6,54.424,20.027,-2.141e-07,-0.027391,2.9285e-10,1660.4,50.799,1.24,-0.0056258,3.9998,-0.047352,0.015393,0
1544.2,54.424,20.02,-2.1404e-07,-0.15887,1.6985e-09,1660.5,50.798,1.56,-0.010356,3.9997,-0.067455,0.015841,0
1545.4,54.424,20.011,-2.1394e-07,-0.1531,1.6368e-09,1660.5,50.798,1.7199,-0.013304,3.9995,-0.077054,0.016126,0
1545.4,54.424,20.011,-2.1394e-07,-0.1531,1.6368e-09,1660.6,50.797,1.9599,-0.018389,3.9993,-0.090006,0.016304,0
1545.4,54.424,20.011,-2.1394e-07,-0.1531,1.6368e-09,1660.6,50.797,1.9599,-0.018389,3.9993,-0.090006,0.016304,0
1545.4,54.424,20.011,-2.1394e-07,-0.1531,1.6368e-09,1660.7,50.796,2.0399,-0.020241,3.9993,-0.093797,0.016364,0
1545.4,54.424,20.011,-2.1394e-07,-0.1531,1.6368e-09,1660.7,50.796,2.0399,-0.020241,3.9993,-0.093797,0.016364,0
1545.4,54.424,20.011,-2.1394e-07,-0.1531,1.6368e-09,1660.7,50.796,2.0399,-0.020241,3.9993,-0.093797,0.016364,0
1545.4,54.424,20.011,-2.1394e-07,-0.1531,1.6368e-09,1660.7,50.796,2.0399,-0.020241,3.9993,-0.093797,0.016364,0
1545.4,54.424,20.011,-2.1394e-07,-0.1531,1.6368e-09,1660.7,50.796,2.0399,-0.020241,3.9993,-0.093797,0.016364,0
1545.4,54.424,20.011,-2.1394e-07,-0.1531,1.6368e-09,1660.7,50.796,2.0399,-0.020241,3.9993,-0.093797,0.016364,0
1545.4,54.424,20.011,-2.1394e-07,-0.1531,1.6368e-09,1660.7,50.796,2.0399,-0.020241,3.9993,-0.093797,0.016364,0
1545.4,54.424,20.011,-2.1394e-07,-0.1531,1.6368e-09,1660.7,50.796,2.0399,-0.020241,3.9993,-0.093797,0.016364,0
1545.4,54.424,20.011,-2.1394e-07,-0.1531,1.6368e-09,1660.7,50.796,2.0399,-0.020241,3.9993,-0.093797,0.016364,0
1546.6,54.424,20.002,-2.1384e-07,-0.14508,1.5511e-09,1660.7,50.796,2.0399,-0.020241,3.9993,-0.093797,0.016536,0
1546.6,54.424,20.002,-2.1384e-07,-0.14508,1.5511e-09,1660.7,50.796,2.0399,-0.020241,3.9993,-0.093797,0.016536,0
1546.6,54.424,20.002,-2.1384e-07,-0.14508,1.5511e-09,1660.7,50.796,2.0399,-0.020241,3.9993,-0.093797,0.016536,0
1546.6,54.424,20.002,-2.1384e-07,-0.14508,1.5511e-09,1660.7,50.796,2.0399,-0.020241,3.9993,-0.093797,0.016536,0
1546.6,54.424,20.002,-2.1384e-07,-0.14508,1.5511e-09,1660.7,50.796,2.0399,-0.020241,3.9993,-0.093797,0.016536,0
1546.6,54.424,20.002,-2.1384e-07,-0.14508,1.5511e-09,1660.7,50.796,2.0399,-0.020241,3.9993,-0.093797,0.016536,0
1546.6,54.424,20.002,-2.1384e-07,-0.14508,1.5511e-09,1660.7,50.796,2.0399,-0.020241,3.9993,-0.093797,0.016536,0
1546.6,54.424,20.002,-2.1384e-07,-0.14508,1.5511e-09,1660.7,50.796,2.0399,-0.020241,3.9993,-0.093797,0.016536,0
1546.6,54.424,20.002,-2.1384e-07,-0.14508,1.5511e-09,1660.7,50.796,2.0399,-0.020241,3.9993,-0.093797,0.016536,0
1546.6,54.424,20.002,-2.1384e-07,-0.14508,1.5511e-09,1660.7,50.796,2.0399,-0.020241,3.9993,-0.093797,0.016536,0
1546.6,54.424,20.002,-2.1384e-07,-0.14508,1.5511e-09,1660.7,50.796,2.0399,-0.020241,3.9993,-0.093797,0.016536,0
1546.6,54.424,20.002,-2.1384e-07,-0.14508,1.5511e-09,1660.8,50.795,2.1999,-0.024143,3.9992,-0.10041,0.016656,0
1546.6,54.424,20.002,-2.1384e-07,-0.14508,1.5511e-09,1660.8,50.795,2.1999,-0.024143,3.9992,-0.10041,0.016656,0
1546.6,54.424,20.002,-2.1384e-07,-0.14508,1.5511e-09,1660.8,50.795,2.1999,-0.024143,3.9992,-0.10041,0.016656,0
1546.6,54.424,20.002,-2.1384e-07,-0.14508,1.5511e-09,1660.8,50.795,2.1999,-0.024143,3.9992,-0.10041,0.016656,0
1546.6,54.424,20.002,-2.1384e-07,-0.14508,1.5511e-09,1660.8,50.795,2.1999,-0.024143,3.9992,-0.10041,0.016656,0
1547.4,54.424,19.996,-2.1378e-07,-0.14002,1.4969e-09,1660.8,50.795,2.1999,-0.024143,3.9992,-0.10041,0.016774,0
1549,54.424,19.985,-2.1366e-07,-0.13685,1.4631e-09,1661,50.793,2.5198,-0.032539,3.9989,-0.1091,0.017259,0
1551,54.424,19.972,-2.1352e-07,-0.13331,1.4253e-09,1661.2,50.79,2.8397,-0.041282,3.9988,-0.11096,0.01782,0
1551.8,54.424,19.967,-2.1346e-07,-0.13168,1.4077e-09,1661.2,50.79,2.8397,-0.041282,3.9988,-0.11096,0.01795,0
1551.8,54.424,19.967,-2.1346e-07,-0.13168,1.4077e-09,1661.2,50.79,2.8397,-0.041282,3.9988,-0.11096,0.01795,0
1552.2,54.424,19.964,-2.1343e-07,-0.13081,1.3985e-09,1661.2,50.79,2.8397,-0.041282,3.9988,-0.11096,0.018016,0
1552.2,54.424,19.964,-2.1343e-07,-0.13081,1.3985e-09,1661.2,50.79,2.8397,-0.041282,3.9988,-0.11096,0.018016,0
1552.2,54.424,19.964,-2.1343e-07,-0.13081,1.3985e-09,1661.2,50.79,2.8397,-0.041282,3.9988,-0.11096,0.018016,0
1552.2,54.424,19.964,-2.1343e-07,-0.13081,1.3985e-09,1661.2,50.79,2.8397,-0.041282,3.9988,-0.11096,0.018016,0
1552.2,54.424,19.964,-2.1343e-07,-0.13081,1.3985e-09,1661.2,50.79,2.8397,-0.041282,3.9988,-0.11096,0.018016,0
1552.2,54.424,19.964,-2.1343e-07,-0.13081,1.3985e-09,1661.2,50.79,2.8397,-0.041282,3.9988,-0.11096,0.018016,0
1552.2,54.424,19.964,-2.1343e-07,-0.13081,1.3985e-09,1661.2,50.79,2.8397,-0.041282,3.9988,-0.11096,0.018016,0
1552.2,54.424,19.964,-2.1343e-07,-0.13081,1.3985e-09,1661.2,50.79,2.8397,-0.041282,3.9988,-0.11096,0.018016,0
1552.2,54.424,19.964,-2.1343e-07,-0.13081,1.3985e-09,1661.2,50.79,2.8397,-0.041282,3.9988,-0.11096,0.018016,0
1552.2,54.424,19.964,-2.1343e-07,-0.13081,1.3985e-09,1661.5,50.784,3.3196,-0.053834,3.9989,-0.10066,0.018391,0
1552.2,54.424,19.964,-2.1343e-07,-0.13081,1.3985e-09,1661.5,50.784,3.3196,-0.053834,3.9989,-0.10066,0.018391,0
1552.2,54.424,19.964,-2.1343e-07,-0.13081,1.3985e-09,1661.5,50.784,3.3196,-0.053834,3.9989,-0.10066,0.018391,0
1552.2,54.424,19.964,-2.1343e-07,-0.13081,1.3985e-09,1661.5,50.784,3.3196,-0.053834,3.9989,-0.10066,0.018391,0
1552.2,54.424,19.964,-2.1343e-07,-0.13081,1.3985e-09,1661.5,50.784,3.3196,-0.053834,3.9989,-0.10066,0.018391,0
1552.2,54.424,19.964,-2.1343e-07,-0.13081,1.3985e-09,1661.5,50.784,3.3196,-0.053834,3.9989,-0.10066,0.018391,0
1552.2,54.424,19.964,-2.1343e-07,-0.13081,1.3985e-09,1661.5,50.784,3.3196,-0.053834,3.9989,-0.10066,0.018391,0
1552.2,54.424,19.964,-2.1343e-07,-0.13081,1.3985e-09,1661.5,50.784,3.3196,-0.053834,3.9989,-0.10066,0.018391,0
1552.2,54.424,19.964,-2.1343e-07,-0.13081,1.3985e-09,1661.5,50.784,3.3196,-0.053834,3.9989,-0.10066,0.018391,0
1553,54.424,19.959,-2.1338e-07,-0.129,1.3791e-09,1661.5,50.784,3.3196,-0.053834,3.9989,-0.10066,0.018526,0
1553,54.424,19.959,-2.1338e-07,-0.129,1.3791e-09,1661.5,50.784,3.3196,-0.053834,3.9989,-0.10066,0.018526,0
1553,54.424,19.959,-2.1338e-07,-0.129,1.3791e-09,1661.5,50.784,3.3196,-0.053834,3.9989,-0.10066,0.018526,0
1553,54.424,19.959,-2.1338e-07,-0.129,1.3791e-09,1661.5,50.784,3.3196,-0.053834,3.9989,-0.10066,0.018526,0
1553,54.424,19.959,-2.1338e-07,-0.129,1.3791e-09,1661.5,50.784,3.3196,-0.053834,3.9989,-0.10066,0.018526,0
1553,54.424,19.959,-2.1338e-07,-0.129,1.3791e-09,1661.5,50.784,3.3196,-0.053834,3.9989,-0.10066,0.018526,0
1553,54.424,19.959,-2.1338e-07,-0.129,1.3791e-09,1661.5,50.784,3.3196,-0.053834,3.9989,-0.10066,0.018526,0
1553.8,54.424,19.954,-2.1332e-07,-0.12706,1.3584e-09,1661.5,50.784,3.3196,-0.053834,3.9989,-0.10066,0.018663,0
1553.8,54.424,19.954,-2.1332e-07,-0.12706,1.3584e-09,1661.9,50.779,3.7195,-0.062677,3.9992,-0.081666,0.018977,0
1556.5,54.424,19.936,-2.1314e-07,-0.11933,1.2757e-09,1662,50.777,3.7995,-0.064188,3.9993,-0.076974,0.019544,0
1556.5,54.424,19.936,-2.1314e-07,-0.11933,1.2757e-09,1662,50.777,3.7995,-0.064188,3.9993,-0.076974,0.019544,0
1557.3,54.424,19.932,-2.1309e-07,-0.11686,1.2492e-09,1662,50.777,3.7995,-0.064188,3.9993,-0.076974,0.019693,0
1557.3,54.424,19.932,-2.1309e-07,-0.11686,1.2492e-09,1662,50.777,3.7995,-0.064188,3.9993,-0.076974,0.019693,0
1558.1,54.424,19.927,-2.1304e-07,-0.11426,1.2215e-09,1662.5,50.768,4.3594,-0.071841,3.9999,-0.038955,0.020295,0
1558.1,54.424,19.927,-2.1304e-07,-0.11426,1.2215e-09,1662.5,50.768,4.3594,-0.071841,3.9999,-0.038955,0.020295,0
1558.1,54.424,19.927,-2.1304e-07,-0.11426,1.2215e-09,1662.5,50.768,4.3594,-0.071841,3.9999,-0.038955,0.020295,0
1558.1,54.424,19.927,-2.1304e-07,-0.11426,1.2215e-09,1662.5,50.768,4.3594,-0.071841,3.9999,-0.038955,0.020295,0
1558.1,54.424,19.927,-2.1304e-07,-0.11426,1.2215e-09,1662.5,50.768,4.3594,-0.071841,3.9999,-0.038955,0.020295,0
1558.1,54.424,19.927,-2.1304e-07,-0.11426,1.2215e-09,1662.5,50.768,4.3594,-0.071841,3.9999,-0.038955,0.020295,0
1558.1,54.424,19.927,-2.1304e-07,-0.11426,1.2215e-09,1662.5,50.768,4.3594,-0.071841,3.9999,-0.038955,0.020295,0
1558.1,54.424,19.927,-2.1304e-07,-0.11426,1.2215e-09,1662.5,50.768,4.3594,-0.071841,3.9999,-0.038955,0.020295,0
1558.1,54.424,19.927,-2.1304e-07,-0.11426,1.2215e-09,1662.5,50.768,4.3594,-0.071841,3.9999,-0.038955,0.020295,0
1558.1,54.424,19.927,-2.1304e-07,-0.11426,1.2215e-09,1662.5,50.768,4.3594,-0.071841,3.9999,-0.038955,0.020295,0
1558.1,54.424,19.927,-2.1304e-07,-0.11426,1.2215e-09,1662.7,50.765,4.5194,-0.073014,4.0001,-0.027247,0.020423,0
1558.1,54.424,19.927,-2.1304e-07,-0.11426,1.2215e-09,1662.7,50.765,4.5194,-0.073014,4.0001,-0.027247,0.020423,0
1558.1,54.424,19.927,-2.1304e-07,-0.11426,1.2215e-09,1662.7,50.765,4.5194,-0.073014,4.0001,-0.027247,0.020423,0
1558.9,54.424,19.922,-2.1299e-07,-0.11156,1.1926e-09,1662.7,50.765,4.5194,-0.073014,4.0001,-0.027247,0.02058,0
1558.9,54.424,19.922,-2.1299e-07,-0.11156,1.1926e-09,1662.7,50.765,4.5194,-0.073014,4.0001,-0.027247,0.02058,0
1558.9,54.424,19.922,-2.1299e-07,-0.11156,1.1926e-09,1662.7,50.765,4.5194,-0.073014,4.0001,-0.027247,0.02058,0
1558.9,54.424,19.922,-2.1299e-07,-0.11156,1.1926e-09,1662.7,50.765,4.5194,-0.073014,4.0001,-0.027247,0.02058,0
1558.9,54.424,19.922,-2.1299e-07,-0.11156,1.1926e-09,1662.7,50.765,4.5194,-0.073014,4.0001,-0.027247,0.02058,0
1558.9,54.424,19.922,-2.1299e-07,-0.11156,1.1926e-09,1662.7,50.765,4.5194,-0.073014,4.0001,-0.027247,0.02058,0
1559.3,54.424,19.92,-2.1296e-07,-0.11016,1.1776e-09,1662.7,50.765,4.5194,-0.073014,4.0001,-0.027247,0.020659,0
1560.9,54.424,19.912,-2.1287e-07,-0.1043,1.115e-09,1663.2,50.758,4.9194,-0.07394,4.0005,0.0015669,0.021307,0
1560.9,54.424,19.912,-2.1287e-07,-0.1043,1.115e-09,1663.4,50.755,5.0795,-0.073538,4.0006,0.012445,0.021436,0
1561.7,54.424,19.908,-2.1283e-07,-0.1012,1.0819e-09,1663.4,50.755,5.0795,-0.073538,4.0006,0.012445,0.021604,0
1562.9,54.424,19.902,-2.1277e-07,-0.096349,1.03e-09,1663.7,50.75,5.3195,-0.072173,4.0008,0.02761,0.022056,0
1562.9,54.424,19.902,-2.1277e-07,-0.096349,1.03e-09,1663.7,50.75,5.3195,-0.072173,4.0008,0.02761,0.022056,0
1562.9,54.424,19.902,-2.1277e-07,-0.096349,1.03e-09,1663.7,50.75,5.3195,-0.072173,4.0008,0.02761,0.022056,0
1562.9,54.424,19.902,-2.1277e-07,-0.096349,1.03e-09,1663.7,50.75,5.3195,-0.072173,4.0008,0.02761,0.022056,0
1562.9,54.424,19.902,-2.1277e-07,-0.096349,1.03e-09,1663.7,50.75,5.3195,-0.072173,4.0008,0.02761,0.022056,0
1562.9,54.424,19.902,-2.1277e-07,-0.096349,1.03e-09,1663.7,50.75,5.3195,-0.072173,4.0008,0.02761,0.022056,0
1562.9,54.424,19.902,-2.1277e-07,-0.096349,1.03e-09,1663.7,50.75,5.3195,-0.072173,4.0008,0.02761,0.022056,0
1562.9,54.424,19.902,-2.1277e-07,-0.096349,1.03e-09,1663.7,50.75,5.3195,-0.072173,4.0008,0.02761,0.022056,0
1562.9,54.424,19.902,-2.1277e-07,-0.096349,1.03e-09,1663.9,50.747,5.4795,-0.070796,4.0008,0.036786,0.022185,0
1562.9,54.424,19.902,-2.1277e-07,-0.096349,1.03e-09,1663.9,50.747,5.4795,-0.070796,4.0008,0.036786,0.022185,0
1562.9,54.424,19.902,-2.1277e-07,-0.096349,1.03e-09,1663.9,50.747,5.4795,-0.070796,4.0008,0.036786,0.022185,0
1562.9,54.424,19.902,-2.1277e-07,-0.096349,1.03e-09,1663.9,50.747,5.4795,-0.070796,4.0008,0.036786,0.022185,0
1562.9,54.424,19.902,-2.1277e-07,-0.096349,1.03e-09,1663.9,50.747,5.4795,-0.070796,4.0008,0.036786,0.022185,0
1562.9,54.424,19.902,-2.1277e-07,-0.096349,1.03e-09,1663.9,50.747,5.4795,-0.070796,4.0008,0.036786,0.022185,0
1563.7,54.424,19.898,-2.1272e-07,-0.092985,9.9409e-10,1663.9,50.747,5.4795,-0.070796,4.0008,0.036786,0.022361,0
1563.7,54.424,19.898,-2.1272e-07,-0.092985,9.9409e-10,1663.9,50.747,5.4795,-0.070796,4.0008,0.036786,0.022361,0
1563.7,54.424,19.898,-2.1272e-07,-0.092985,9.9409e-10,1663.9,50.747,5.4795,-0.070796,4.0008,0.036786,0.022361,0
1563.7,54.424,19.898,-2.1272e-07,-0.092985,9.9409e-10,1663.9,50.747,5.4795,-0.070796,4.0008,0.036786,0.022361,0
1563.7,54.424,19.898,-2.1272e-07,-0.092985,9.9409e-10,1663.9,50.747,5.4795,-0.070796,4.0008,0.036786,0.022361,0
1563.7,54.424,19.898,-2.1272e-07,-0.092985,9.9409e-10,1663.9,50.747,5.4795,-0.070796,4.0008,0.036786,0.022361,0
1563.7,54.424,19.898,-2.1272e-07,-0.092985,9.9409e-10,1663.9,50.747,5.4795,-0.070796,4.0008,0.036786,0.022361,0
1563.7,54.424,19.898,-2.1272e-07,-0.092985,9.9409e-10,1663.9,50.747,5.4795,-0.070796,4.0008,0.036786,0.022361,0
1565.3,54.424,19.891,-2.1265e-07,-0.085948,9.1894e-10,1664.1,50.745,5.6396,-0.069083,4.0009,0.045114,0.022852,0
1565.7,54.424,19.889,-2.1263e-07,-0.084127,8.9945e-10,1664.1,50.745,5.6396,-0.069083,4.0009,0.045114,0.022944,0
1565.7,54.424,19.889,-2.1263e-07,-0.084127,8.9945e-10,1664.8,50.737,6.1197,-0.062295,4.0009,0.064499,0.023334,0
1568.1,54.424,19.88,-2.1253e-07,-0.072691,7.7714e-10,1665.1,50.734,6.2797,-0.059609,4.0009,0.069028,0.024039,0
1568.1,54.424,19.88,-2.1253e-07,-0.072691,7.7714e-10,1665.1,50.734,6.2797,-0.059609,4.0009,0.069028,0.024039,0
1568.1,54.424,19.88,-2.1253e-07,-0.072691,7.7714e-10,1665.1,50.734,6.2797,-0.059609,4.0009,0.069028,0.024039,0
1568.1,54.424,19.88,-2.1253e-07,-0.072691,7.7714e-10,1665.1,50.734,6.2797,-0.059609,4.0009,0.069028,0.024039,0
1568.1,54.424,19.88,-2.1253e-07,-0.072691,7.7714e-10,1665.1,50.734,6.2797,-0.059609,4.0009,0.069028,0.024039,0
1568.1,54.424,19.88,-2.1253e-07,-0.072691,7.7714e-10,1665.1,50.734,6.2797,-0.059609,4.0009,0.069028,0.024039,0
1568.1,54.424,19.88,-2.1253e-07,-0.072691,7.7714e-10,1665.1,50.734,6.2797,-0.059609,4.0009,0.069028,0.024039,0
1568.1,54.424,19.88,-2.1253e-07,-0.072691,7.7714e-10,1665.1,50.734,6.2797,-0.059609,4.0009,0.069028,0.024039,0
1568.1,54.424,19.88,-2.1253e-07,-0.072691,7.7714e-10,1665.1,50.734,6.2797,-0.059609,4.0009,0.069028,0.024039,0
1568.1,54.424,19.88,-2.1253e-07,-0.072691,7.7714e-10,1665.1,50.734,6.2797,-0.059609,4.0009,0.069028,0.024039,0
1568.1,54.424,19.88,-2.1253e-07,-0.072691,7.7714e-10,1665.5,50.731,6.5198,-0.055312,4.0008,0.074042,0.024234,0
1568.1,54.424,19.88,-2.1253e-07,-0.072691,7.7714e-10,1665.5,50.731,6.5198,-0.055312,4.0008,0.074042,0.024234,0
1568.1,54.424,19.88,-2.1253e-07,-0.072691,7.7714e-10,1665.5,50.731,6.5198,-0.055312,4.0008,0.074042,0.024234,0
1568.1,54.424,19.88,-2.1253e-07,-0.072691,7.7714e-10,1665.5,50.731,6.5198,-0.055312,4.0008,0.074042,0.024234,0
1568.1,54.424,19.88,-2.1253e-07,-0.072691,7.7714e-10,1665.5,50.731,6.5198,-0.055312,4.0008,0.074042,0.024234,0
1568.1,54.424,19.88,-2.1253e-07,-0.072691,7.7714e-10,1665.5,50.731,6.5198,-0.055312,4.0008,0.074042,0.024234,0
1568.1,54.424,19.88,-2.1253e-07,-0.072691,7.7714e-10,1665.5,50.731,6.5198,-0.055312,4.0008,0.074042,0.024234,0
1568.1,54.424,19.88,-2.1253e-07,-0.072691,7.7714e-10,1665.5,50.731,6.5198,-0.055312,4.0008,0.074042,0.024234,0
1568.1,54.424,19.88,-2.1253e-07,-0.072691,7.7714e-10,1665.5,50.731,6.5198,-0.055312,4.0008,0.074042,0.024234,0
1568.1,54.424,19.88,-2.1253e-07,-0.072691,7.7714e-10,1665.5,50.731,6.5198,-0.055312,4.0008,0.074042,0.024234,0
1568.9,54.424,19.877,-2.125e-07,-0.068691,7.3433e-10,1665.5,50.731,6.5198,-0.055312,4.0008,0.074042,0.024433,0
1568.9,54.424,19.877,-2.125e-07,-0.068691,7.3433e-10,1665.5,50.731,6.5198,-0.055312,4.0008,0.074042,0.024433,0
1568.9,54.424,19.877,-2.125e-07,-0.068691,7.3433e-10,1665.5,50.731,6.5198,-0.055312,4.0008,0.074042,0.024433,0
1568.9,54.424,19.877,-2.125e-07,-0.068691,7.3433e-10,1665.5,50.731,6.5198,-0.055312,4.0008,0.074042,0.024433,0
1568.9,54.424,19.877,-2.125e-07,-0.068691,7.3433e-10,1665.5,50.731,6.5198,-0.055312,4.0008,0.074042,0.024433,0
1568.9,54.424,19.877,-2.125e-07,-0.068691,7.3433e-10,1665.5,50.731,6.5198,-0.055312,4.0008,0.074042,0.024433,0
1569.7,54.424,19.874,-2.1247e-07,-0.064602,6.9062e-10,1665.5,50.731,6.5198,-0.055312,4.0008,0.074042,0.024635,0
1569.7,54.424,19.874,-2.1247e-07,-0.064602,6.9062e-10,1666.1,50.726,6.9198,-0.047738,4.0006,0.077966,0.024958,0
1569.7,54.424,19.874,-2.1247e-07,-0.064602,6.9062e-10,1666.1,50.726,6.9198,-0.047738,4.0006,0.077966,0.024958,0
1572.5,54.424,19.866,-2.1239e-07,-0.049622,5.3055e-10,1666.6,50.723,7.1599,-0.043123,4.0006,0.07796,0.025891,0
1573.7,54.424,19.863,-2.1236e-07,-0.042904,4.5869e-10,1667,50.721,7.3999,-0.038572,4.0005,0.076456,0.026415,0
1573.7,54.424,19.863,-2.1236e-07,-0.042904,4.5869e-10,1667.5,50.719,7.6399,-0.034164,4.0004,0.073698,0.026605,0
1573.7,54.424,19.863,-2.1236e-07,-0.042904,4.5869e-10,1667.5,50.719,7.6399,-0.034164,4.0004,0.073698,0.026605,0
1573.7,54.424,19.863,-2.1236e-07,-0.042904,4.5869e-10,1667.6,50.718,7.7199,-0.032737,4.0004,0.072544,0.026668,0
1573.7,54.424,19.863,-2.1236e-07,-0.042904,4.5869e-10,1667.6,50.718,7.7199,-0.032737,4.0004,0.072544,0.026668,0
1573.7,54.424,19.863,-2.1236e-07,-0.042904,4.5869e-10,1667.6,50.718,7.7199,-0.032737,4.0004,0.072544,0.026668,0
1573.7,54.424,19.863,-2.1236e-07,-0.042904,4.5869e-10,1667.6,50.718,7.7199,-0.032737,4.0004,0.072544,0.026668,0
1573.7,54.424,19.863,-2.1236e-07,-0.042904,4.5869e-10,1667.6,50.718,7.7199,-0.032737,4.0004,0.072544,0.026668,0
1573.7,54.424,19.863,-2.1236e-07,-0.042904,4.5869e-10,1667.6,50.718,7.7199,-0.032737,4.0004,0.072544,0.026668,0
1573.7,54.424,19.863,-2.1236e-07,-0.042904,4.5869e-10,1667.6,50.718,7.7199,-0.032737,4.0004,0.072544,0.026668,0
1573.7,54.424,19.863,-2.1236e-07,-0.042904,4.5869e-10,1667.6,50.718,7.7199,-0.032737,4.0004,0.072544,0.026668,0
1573.7,54.424,19.863,-2.1236e-07,-0.042904,4.5869e-10,1667.6,50.718,7.7199,-0.032737,4.0004,0.072544,0.026668,0
1574.8,54.424,19.861,-2.1233e-07,-0.036022,3.8514e-10,1667.6,50.718,7.7199,-0.032737,4.0004,0.072544,0.02701,0
1574.8,54.424,19.861,-2.1233e-07,-0.036022,3.8514e-10,1667.6,50.718,7.7199,-0.032737,4.0004,0.072544,0.02701,0
1574.8,54.424,19.861,-2.1233e-07,-0.036022,3.8514e-10,1667.6,50.718,7.7199,-0.032737,4.0004,0.072544,0.02701,0
1574.8,54.424,19.861,-2.1233e-07,-0.036022,3.8514e-10,1667.6,50.718,7.7199,-0.032737,4.0004,0.072544,0.02701,0
1574.8,54.424,19.861,-2.1233e-07,-0.036022,3.8514e-10,1667.6,50.718,7.7199,-0.032737,4.0004,0.072544,0.02701,0
1574.8,54.424,19.861,-2.1233e-07,-0.036022,3.8514e-10,1667.6,50.718,7.7199,-0.032737,4.0004,0.072544,0.02701,0
1574.8,54.424,19.861,-2.1233e-07,-0.036022,3.8514e-10,1667.6,50.718,7.7199,-0.032737,4.0004,0.072544,0.02701,0
1574.8,54.424,19.861,-2.1233e-07,-0.036022,3.8514e-10,1667.6,50.718,7.7199,-0.032737,4.0004,0.072544,0.02701,0
1574.8,54.424,19.861,-2.1233e-07,-0.036022,3.8514e-10,1667.6,50.718,7.7199,-0.032737,4.0004,0.072544,0.02701,0
1574.8,54.424,19.861,-2.1233e-07,-0.036022,3.8514e-10,1667.6,50.718,7.7199,-0.032737,4.0004,0.072544,0.02701,0
1574.8,54.424,19.861,-2.1233e-07,-0.036022,3.8514e-10,1667.9,50.717,7.8799,-0.029961,4.0003,0.069935,0.027135,0
1574.8,54.424,19.861,-2.1233e-07,-0.036022,3.8514e-10,1667.9,50.717,7.8799,-0.029961,4.0003,0.069935,0.027135,0
1574.8,54.424,19.861,-2.1233e-07,-0.036022,3.8514e-10,1667.9,50.717,7.8799,-0.029961,4.0003,0.069935,0.027135,0
1574.8,54.424,19.861,-2.1233e-07,-0.036022,3.8514e-10,1667.9,50.717,7.8799,-0.029961,4.0003,0.069935,0.027135,0
1574.8,54.424,19.861,-2.1233e-07,-0.036022,3.8514e-10,1667.9,50.717,7.8799,-0.029961,4.0003,0.069935,0.027135,0
1574.8,54.424,19.861,-2.1233e-07,-0.036022,3.8514e-10,1667.9,50.717,7.8799,-0.029961,4.0003,0.069935,0.027135,0
1575.6,54.424,19.86,-2.1232e-07,-0.031346,3.3512e-10,1667.9,50.717,7.8799,-0.029961,4.0003,0.069935,0.027368,0
1577.2,54.424,19.857,-2.1229e-07,-0.0218,2.3304e-10,1668.6,50.715,8.2,-0.024769,4.0002,0.063501,0.028097,0
1578.8,54.424,19.856,-2.1228e-07,-0.012018,1.2844e-10,1669.2,50.713,8.52,-0.020167,4.0001,0.05577,0.028839,0
1578.8,54.424,19.856,-2.1228e-07,-0.012018,1.2844e-10,1669.2,50.713,8.52,-0.020167,4.0001,0.05577,0.028839,0
1580,54.424,19.856,-2.1227e-07,-0.0045398,4.8502e-11,1669.6,50.712,8.68,-0.018095,4.0001,0.0519,0.029345,0
1580,54.424,19.856,-2.1227e-07,-0.0045398,4.8502e-11,1670.1,50.711,8.92,-0.015268,4.0001,0.046224,0.029525,0
1580,54.424,19.856,-2.1227e-07,-0.0045398,4.8502e-11,1670.1,50.711,8.92,-0.015268,4.0001,0.046224,0.029525,0
1580,54.424,19.856,-2.1227e-07,-0.0045398,4.8502e-11,1670.1,50.711,8.92,-0.015268,4.0001,0.046224,0.029525,0
1580,54.424,19.856,-2.1227e-07,-0.0045398,4.8502e-11,1670.1,50.711,8.92,-0.015268,4.0001,0.046224,0.029525,0
1580,54.424,19.856,-2.1227e-07,-0.0045398,4.8502e-11,1670.1,50.711,8.92,-0.015268,4.0001,0.046224,0.029525,0
1580,54.424,19.856,-2.1227e-07,-0.0045398,4.8502e-11,1670.1,50.711,8.92,-0.015268,4.0001,0.046224,0.029525,0
1580,54.424,19.856,-2.1227e-07,-0.0045398,4.8502e-11,1670.1,50.711,8.92,-0.015268,4.0001,0.046224,0.029525,0
1580,54.424,19.856,-2.1227e-07,-0.0045398,4.8502e-11,1670.1,50.711,8.92,-0.015268,4.0001,0.046224,0.029525,0
1580,54.424,19.856,-2.1227e-07,-0.0045398,4.8502e-11,1670.1,50.711,8.92,-0.015268,4.0001,0.046224,0.029525,0
1580.8,54.424,19.856,-2.1227e-07,0.00050543,-5.4092e-12,1670.1,50.711,8.92,-0.015268,4.0001,0.046224,0.029787,0
1580.8,54.424,19.856,-2.1227e-07,0.00050543,-5.4092e-12,1670.1,50.711,8.92,-0.015268,4.0001,0.046224,0.029787,0
1580.8,54.424,19.856,-2.1227e-07,0.00050543,-5.4092e-12,1670.1,50.711,8.92,-0.015268,4.0001,0.046224,0.029787,0
1580.8,54.424,19.856,-2.1227e-07,0.00050543,-5.4092e-12,1670.1,50.711,8.92,-0.015268,4.0001,0.046224,0.029787,0
1580.8,54.424,19.856,-2.1227e-07,0.00050543,-5.4092e-12,1670.1,50.711,8.92,-0.015268,4.0001,0.046224,0.029787,0
1580.8,54.424,19.856,-2.1227e-07,0.00050543,-5.4092e-12,1670.1,50.711,8.92,-0.015268,4.0001,0.046224,0.029787,0
1580.8,54.424,19.856,-2.1227e-07,0.00050543,-5.4092e-12,1670.1,50.711,8.92,-0.015268,4.0001,0.046224,0.029787,0
1580.8,54.424,19.856,-2.1227e-07,0.00050543,-5.4092e-12,1670.1,50.711,8.92,-0.015268,4.0001,0.046224,0.029787,0
1580.8,54.424,19.856,-2.1227e-07,0.00050543,-5.4092e-12,1670.1,50.711,8.92,-0.015268,4.0001,0.046224,0.029787,0
1580.8,54.424,19.856,-2.1227e-07,0.00050543,-5.4092e-12,1670.1,50.711,8.92,-0.015268,4.0001,0.046224,0.029787,0
1580.8,54.424,19.856,-2.1227e-07,0.00050543,-5.4092e-12,1670.5,50.71,9.08,-0.013565,4.0001,0.042576,0.029906,0
1580.8,54.424,19.856,-2.1227e-07,0.00050543,-5.4092e-12,1670.5,50.71,9.08,-0.013565,4.0001,0.042576,0.029906,0
1580.8,54.424,19.856,-2.1227e-07,0.00050543,-5.4092e-12,1670.5,50.71,9.08,-0.013565,4.0001,0.042576,0.029906,0
1580.8,54.424,19.856,-2.1227e-07,0.00050543,-5.4092e-12,1670.5,50.71,9.08,-0.013565,4.0001,0.042576,0.029906,0
1580.8,54.424,19.856,-2.1227e-07,0.00050543,-5.4092e-12,1670.5,50.71,9.08,-0.013565,4.0001,0.042576,0.029906,0
1580.8,54.424,19.856,-2.1227e-07,0.00050543,-5.4092e-12,1670.5,50.71,9.08,-0.013565,4.0001,0.042576,0.029906,0
1581.6,54.424,19.856,-2.1227e-07,0.0055927,-5.9778e-11,1670.5,50.71,9.08,-0.013565,4.0001,0.042576,0.030173,0
1583.2,54.424,19.857,-2.1228e-07,0.015882,-1.6978e-10,1671.2,50.709,9.4,-0.010571,4,0.035708,0.030954,0
1584.8,54.424,19.858,-2.123e-07,0.026296,-2.8113e-10,1672,50.709,9.72,-0.0080843,4,0.029504,0.031749,0
1586,54.424,19.86,-2.1232e-07,0.034166,-3.6528e-10,1672.4,50.708,9.88,-0.007014,4,0.026668,0.032299,0
1586,54.424,19.86,-2.1232e-07,0.034166,-3.6528e-10,1672.4,50.708,9.88,-0.007014,4,0.026668,0.032299,0
1586,54.424,19.86,-2.1232e-07,0.034166,-3.6528e-10,1673,50.708,10.12,-0.0056049,4,0.022755,0.032464,0
1586,54.424,19.86,-2.1232e-07,0.034166,-3.6528e-10,1673,50.708,10.12,-0.0056049,4,0.022755,0.032464,0
1586,54.424,19.86,-2.1232e-07,0.034166,-3.6528e-10,1673,50.708,10.12,-0.0056049,4,0.022755,0.032464,0
1586,54.424,19.86,-2.1232e-07,0.034166,-3.6528e-10,1673,50.708,10.12,-0.0056049,4,0.022755,0.032464,0
1586,54.424,19.86,-2.1232e-07,0.034166,-3.6528e-10,1673,50.708,10.12,-0.0056049,4,0.022755,0.032464,0
1586,54.424,19.86,-2.1232e-07,0.034166,-3.6528e-10,1673,50.708,10.12,-0.0056049,4,0.022755,0.032464,0
1586,54.424,19.86,-2.1232e-07,0.034166,-3.6528e-10,1673,50.708,10.12,-0.0056049,4,0.022755,0.032464,0
1586,54.424,19.86,-2.1232e-07,0.034166,-3.6528e-10,1673,50.708,10.12,-0.0056049,4,0.022755,0.032464,0
1586.8,54.424,19.861,-2.1234e-07,0.039433,-4.2159e-10,1673,50.708,10.12,-0.0056049,4,0.022755,0.032762,0
1586.8,54.424,19.861,-2.1234e-07,0.039433,-4.2159e-10,1673,50.708,10.12,-0.0056049,4,0.022755,0.032762,0
1586.8,54.424,19.861,-2.1234e-07,0.039433,-4.2159e-10,1673,50.708,10.12,-0.0056049,4,0.022755,0.032762,0
1586.8,54.424,19.861,-2.1234e-07,0.039433,-4.2159e-10,1673,50.708,10.12,-0.0056049,4,0.022755,0.032762,0
1586.8,54.424,19.861,-2.1234e-07,0.039433,-4.2159e-10,1673,50.708,10.12,-0.0056049,4,0.022755,0.032762,0
1586.8,54.424,19.861,-2.1234e-07,0.039433,-4.2159e-10,1673,50.708,10.12,-0.0056049,4,0.022755,0.032762,0
1586.8,54.424,19.861,-2.1234e-07,0.039433,-4.2159e-10,1673,50.708,10.12,-0.0056049,4,0.022755,0.032762,0
1586.8,54.424,19.861,-2.1234e-07,0.039433,-4.2159e-10,1673,50.708,10.12,-0.0056049,4,0.022755,0.032762,0
1586.8,54.424,19.861,-2.1234e-07,0.039433,-4.2159e-10,1673,50.708,10.12,-0.0056049,4,0.022755,0.032762,0
1586.8,54.424,19.861,-2.1234e-07,0.039433,-4.2159e-10,1673,50.708,10.12,-0.0056049,4,0.022755,0.032762,0
1586.8,54.424,19.861,-2.1234e-07,0.039433,-4.2159e-10,1673.4,50.708,10.28,-0.004786,4,0.020372,0.03287,0
1586.8,54.424,19.861,-2.1234e-07,0.039433,-4.2159e-10,1673.4,50.708,10.28,-0.004786,4,0.020372,0.03287,0
1586.8,54.424,19.861,-2.1234e-07,0.039433,-4.2159e-10,1673.4,50.708,10.28,-0.004786,4,0.020372,0.03287,0
1586.8,54.424,19.861,-2.1234e-07,0.039433,-4.2159e-10,1673.4,50.708,10.28,-0.004786,4,0.020372,0.03287,0
1586.8,54.424,19.861,-2.1234e-07,0.039433,-4.2159e-10,1673.4,50.708,10.28,-0.004786,4,0.020372,0.03287,0
1586.8,54.424,19.861,-2.1234e-07,0.039433,-4.2159e-10,1673.4,50.708,10.28,-0.004786,4,0.020372,0.03287,0
1586.8,54.424,19.861,-2.1234e-07,0.039433,-4.2159e-10,1673.4,50.708,10.28,-0.004786,4,0.020372,0.03287,0
1588.7,54.424,19.866,-2.1238e-07,0.041017,-4.3852e-10,1673.6,50.708,10.36,-0.0044101,4,0.019246,0.033692,0
1589.1,54.424,19.867,-2.1239e-07,0.040065,-4.2831e-10,1673.6,50.708,10.36,-0.0044101,4,0.019246,0.03385,0
1590.7,54.424,19.87,-2.1242e-07,0.036364,-3.8878e-10,1673.6,50.708,10.36,-0.0044101,4,0.019246,0.034498,0
1591.1,54.424,19.87,-2.1243e-07,0.035464,-3.7916e-10,1673.6,50.708,10.36,-0.0044101,4,0.019246,0.034664,0
1591.1,54.424,19.87,-2.1243e-07,0.035464,-3.7916e-10,1675.9,50.707,11.111,-0.0014783,1.4293e-06,0.010058,0.034984,0
1591.1,54.424,19.87,-2.1243e-07,0.035464,-3.7916e-10,1675.9,50.707,11.111,-0.0014783,1.4293e-06,0.010058,0.034984,0
1591.1,54.424,19.87,-2.1243e-07,0.035464,-3.7916e-10,1676.2,50.707,11.111,-0.0012959,1.164e-06,0.0093107,0.034893,0
1591.1,54.424,19.87,-2.1243e-07,0.035464,-3.7916e-10,1676.2,50.707,11.111,-0.0012959,1.164e-06,0.0093107,0.034893,0
1591.1,54.424,19.87,-2.1243e-07,0.035464,-3.7916e-10,1676.2,50.707,11.111,-0.0012959,1.164e-06,0.0093107,0.034893,0
1591.1,54.424,19.87,-2.1243e-07,0.035464,-3.7916e-10,1676.2,50.707,11.111,-0.0012959,1.164e-06,0.0093107,0.034893,0
1591.1,54.424,19.87,-2.1243e-07,0.035464,-3.7916e-10,1676.2,50.707,11.111,-0.0012959,1.164e-06,0.0093107,0.034893,0
1591.1,54.424,19.87,-2.1243e-07,0.035464,-3.7916e-10,1676.2,50.707,11.111,-0.0012959,1.164e-06,0.0093107,0.034893,0
1591.1,54.424,19.87,-2.1243e-07,0.035464,-3.7916e-10,1676.2,50.707,11.111,-0.0012959,1.164e-06,0.0093107,0.034893,0
1592.7,54.424,19.873,-2.1246e-07,0.031963,-3.4172e-10,1676.2,50.707,11.111,-0.0012959,1.164e-06,0.0093107,0.035556,0
1592.7,54.424,19.873,-2.1246e-07,0.031963,-3.4172e-10,1676.2,50.707,11.111,-0.0012959,1.164e-06,0.0093107,0.035556,0
1592.7,54.424,19.873,-2.1246e-07,0.031963,-3.4172e-10,1676.2,50.707,11.111,-0.0012959,1.164e-06,0.0093107,0.035556,0
1592.7,54.424,19.873,-2.1246e-07,0.031963,-3.4172e-10,1676.2,50.707,11.111,-0.0012959,1.164e-06,0.0093107,0.035556,0
1592.7,54.424,19.873,-2.1246e-07,0.031963,-3.4172e-10,1676.2,50.707,11.111,-0.0012959,1.164e-06,0.0093107,0.035556,0
1592.7,54.424,19.873,-2.1246e-07,0.031963,-3.4172e-10,1676.2,50.707,11.111,-0.0012959,1.164e-06,0.0093107,0.035556,0
1592.7,54.424,19.873,-2.1246e-07,0.031963,-3.4172e-10,1676.2,50.707,11.111,-0.0012959,1.164e-06,0.0093107,0.035556,0
1592.7,54.424,19.873,-2.1246e-07,0.031963,-3.4172e-10,1676.2,50.707,11.111,-0.0012959,1.164e-06,0.0093107,0.035556,0
1592.7,54.424,19.873,-2.1246e-07,0.031963,-3.4172e-10,1676.2,50.707,11.111,-0.0012959,1.164e-06,0.0093107,0.035556,0
1592.7,54.424,19.873,-2.1246e-07,0.031963,-3.4172e-10,1676.2,50.707,11.111,-0.0012959,1.164e-06,0.0093107,0.035556,0
1592.7,54.424,19.873,-2.1246e-07,0.031963,-3.4172e-10,1676.6,50.707,11.111,-0.00097209,7.51e-07,0.0079361,0.035368,0
1592.7,54.424,19.873,-2.1246e-07,0.031963,-3.4172e-10,1676.6,50.707,11.111,-0.00097209,7.51e-07,0.0079361,0.035368,0
1592.7,54.424,19.873,-2.1246e-07,0.031963,-3.4172e-10,1676.6,50.707,11.111,-0.00097209,7.51e-07,0.0079361,0.035368,0
1592.7,54.424,19.873,-2.1246e-07,0.031963,-3.4172e-10,1676.6,50.707,11.111,-0.00097209,7.51e-07,0.0079361,0.035368,0
1593.5,54.424,19.874,-2.1247e-07,0.030269,-3.236e-10,1676.6,50.707,11.111,-0.00097209,7.51e-07,0.0079361,0.035706,0
1593.5,54.424,19.874,-2.1247e-07,0.030269,-3.236e-10,1677.5,50.707,11.111,-0.00046778,2.6549e-07,0.0056288,0.035329,0
1595.9,54.424,19.877,-2.125e-07,0.0085151,-9.1014e-11,1677.7,50.707,11.111,-0.00036756,1.9364e-07,0.005136,0.03626,0
1595.9,54.424,19.877,-2.125e-07,0.0085151,-9.1014e-11,1678.6,50.707,11.111,-5.1833e-05,2.6913e-08,0.0034598,0.035871,0
1595.9,54.424,19.877,-2.125e-07,0.0085151,-9.1014e-11,1678.6,50.707,11.111,-5.1833e-05,2.6913e-08,0.0034598,0.035871,0
1597.5,54.424,19.877,-2.125e-07,-0.018915,2.0224e-10,1678.6,50.707,11.111,-5.1833e-05,2.6913e-08,0.0034598,0.036572,0
1597.5,54.424,19.877,-2.125e-07,-0.018915,2.0224e-10,1678.6,50.707,11.111,-5.1833e-05,2.6913e-08,0.0034598,0.036572,0
1597.5,54.424,19.877,-2.125e-07,-0.018915,2.0224e-10,1678.6,50.707,11.111,-5.1833e-05,2.6913e-08,0.0034598,0.036572,0
1597.5,54.424,19.877,-2.125e-07,-0.018915,2.0224e-10,1678.6,50.707,11.111,-5.1833e-05,2.6913e-08,0.0034598,0.036572,0
1597.5,54.424,19.877,-2.125e-07,-0.018915,2.0224e-10,1678.6,50.707,11.111,-5.1833e-05,2.6913e-08,0.0034598,0.036572,0
1597.5,54.424,19.877,-2.125e-07,-0.018915,2.0224e-10,1678.6,50.707,11.111,-5.1833e-05,2.6913e-08,0.0034598,0.036572,0
1597.5,54.424,19.877,-2.125e-07,-0.018915,2.0224e-10,1678.6,50.707,11.111,-5.1833e-05,2.6913e-08,0.0034598,0.036572,0
1597.5,54.424,19.877,-2.125e-07,-0.018915,2.0224e-10,1678.6,50.707,11.111,-5.1833e-05,2.6913e-08,0.0034598,0.036572,0
1597.5,54.424,19.877,-2.125e-07,-0.018915,2.0224e-10,1679.3,50.707,11.111,0.00011045,-1.9097e-08,0.0024762,0.036275,0
1597.5,54.424,19.877,-2.125e-07,-0.018915,2.0224e-10,1679.3,50.707,11.111,0.00011045,-1.9097e-08,0.0024762,0.036275,0
1597.5,54.424,19.877,-2.125e-07,-0.018915,2.0224e-10,1679.3,50.707,11.111,0.00011045,-1.9097e-08,0.0024762,0.036275,0
1597.5,54.424,19.877,-2.125e-07,-0.018915,2.0224e-10,1679.3,50.707,11.111,0.00011045,-1.9097e-08,0.0024762,0.036275,0
1597.5,54.424,19.877,-2.125e-07,-0.018915,2.0224e-10,1679.3,50.707,11.111,0.00011045,-1.9097e-08,0.0024762,0.036275,0
1597.5,54.424,19.877,-2.125e-07,-0.018915,2.0224e-10,1679.3,50.707,11.111,0.00011045,-1.9097e-08,0.0024762,0.036275,0
1597.5,54.424,19.877,-2.125e-07,-0.018915,2.0224e-10,1679.3,50.707,11.111,0.00011045,-1.9097e-08,0.0024762,0.036275,0
1597.5,54.424,19.877,-2.125e-07,-0.018915,2.0224e-10,1679.3,50.707,11.111,0.00011045,-1.9097e-08,0.0024762,0.036275,0
1598.3,54.424,19.876,-2.1249e-07,-0.032385,3.4624e-10,1679.3,50.707,11.111,0.00011045,-1.9097e-08,0.0024762,0.03663,0
1598.3,54.424,19.876,-2.1249e-07,-0.032385,3.4624e-10,1679.3,50.707,11.111,0.00011045,-1.9097e-08,0.0024762,0.03663,0
1598.7,54.424,19.875,-2.1248e-07,-0.03906,4.1759e-10,1679.3,50.707,11.111,0.00011045,-1.9097e-08,0.0024762,0.03681,0
1599.9,54.424,19.872,-2.1245e-07,-0.058848,6.2909e-10,1680.2,50.707,11.111,0.00025097,-3.1196e-08,0.0014669,0.036949,0
1599.9,54.424,19.872,-2.1245e-07,-0.058848,6.2909e-10,1680.6,50.707,11.111,0.00029561,-2.7483e-08,0.0010719,0.036746,0
1601.5,54.424,19.866,-2.1239e-07,-0.084691,9.054e-10,1680.6,50.707,11.111,0.00029561,-2.7483e-08,0.0010719,0.037481,0
1601.5,54.424,19.866,-2.1239e-07,-0.084691,9.054e-10,1681.5,50.707,11.111,0.00034635,-1.4199e-08,0.00046165,0.037067,0
1601.5,54.424,19.866,-2.1239e-07,-0.084691,9.054e-10,1681.7,50.707,11.111,0.00035257,-1.0729e-08,0.00034142,0.036964,0
1601.5,54.424,19.866,-2.1239e-07,-0.084691,9.054e-10,1681.7,50.707,11.111,0.00035257,-1.0729e-08,0.00034142,0.036964,0
1601.5,54.424,19.866,-2.1239e-07,-0.084691,9.054e-10,1681.7,50.707,11.111,0.00035257,-1.0729e-08,0.00034142,0.036964,0
1601.5,54.424,19.866,-2.1239e-07,-0.084691,9.054e-10,1681.7,50.707,11.111,0.00035257,-1.0729e-08,0.00034142,0.036964,0
1601.5,54.424,19.866,-2.1239e-07,-0.084691,9.054e-10,1681.7,50.707,11.111,0.00035257,-1.0729e-08,0.00034142,0.036964,0
1601.5,54.424,19.866,-2.1239e-07,-0.084691,9.054e-10,1681.7,50.707,11.111,0.00035257,-1.0729e-08,0.00034142,0.036964,0
1601.5,54.424,19.866,-2.1239e-07,-0.084691,9.054e-10,1681.7,50.707,11.111,0.00035257,-1.0729e-08,0.00034142,0.036964,0
1601.5,54.424,19.866,-2.1239e-07,-0.084691,9.054e-10,1681.7,50.707,11.111,0.00035257,-1.0729e-08,0.00034142,0.036964,0
1601.5,54.424,19.866,-2.1239e-07,-0.084691,9.054e-10,1681.7,50.707,11.111,0.00035257,-1.0729e-08,0.00034142,0.036964,0
1602.7,54.424,19.861,-2.1233e-07,-0.10368,1.1084e-09,1681.7,50.707,11.111,0.00035257,-1.0729e-08,0.00034142,0.03752,0
1602.7,54.424,19.861,-2.1233e-07,-0.10368,1.1084e-09,1681.7,50.707,11.111,0.00035257,-1.0729e-08,0.00034142,0.03752,0
1602.7,54.424,19.861,-2.1233e-07,-0.10368,1.1084e-09,1681.7,50.707,11.111,0.00035257,-1.0729e-08,0.00034142,0.03752,0
1602.7,54.424,19.861,-2.1233e-07,-0.10368,1.1084e-09,1681.7,50.707,11.111,0.00035257,-1.0729e-08,0.00034142,0.03752,0
1602.7,54.424,19.861,-2.1233e-07,-0.10368,1.1084e-09,1681.7,50.707,11.111,0.00035257,-1.0729e-08,0.00034142,0.03752,0
1602.7,54.424,19.861,-2.1233e-07,-0.10368,1.1084e-09,1681.7,50.707,11.111,0.00035257,-1.0729e-08,0.00034142,0.03752,0
1602.7,54.424,19.861,-2.1233e-07,-0.10368,1.1084e-09,1681.7,50.707,11.111,0.00035257,-1.0729e-08,0.00034142,0.03752,0
1602.7,54.424,19.861,-2.1233e-07,-0.10368,1.1084e-09,1681.7,50.707,11.111,0.00035257,-1.0729e-08,0.00034142,0.03752,0
1602.7,54.424,19.861,-2.1233e-07,-0.10368,1.1084e-09,1681.7,50.707,11.111,0.00035257,-1.0729e-08,0.00034142,0.03752,0
1602.7,54.424,19.861,-2.1233e-07,-0.10368,1.1084e-09,1681.7,50.707,11.111,0.00035257,-1.0729e-08,0.00034142,0.03752,0
1602.7,54.424,19.861,-2.1233e-07,-0.10368,1.1084e-09,1682.2,50.707,11.111,0.00035884,-4.3161e-09,0.00013415,0.037311,0
1602.7,54.424,19.861,-2.1233e-07,-0.10368,1.1084e-09,1682.2,50.707,11.111,0.00035884,-4.3161e-09,0.00013415,0.037311,0
1602.7,54.424,19.861,-2.1233e-07,-0.10368,1.1084e-09,1682.2,50.707,11.111,0.00035884,-4.3161e-09,0.00013415,0.037311,0
1602.7,54.424,19.861,-2.1233e-07,-0.10368,1.1084e-09,1682.2,50.707,11.111,0.00035884,-4.3161e-09,0.00013415,0.037311,0
1602.7,54.424,19.861,-2.1233e-07,-0.10368,1.1084e-09,1682.2,50.707,11.111,0.00035884,-4.3161e-09,0.00013415,0.037311,0
1602.7,54.424,19.861,-2.1233e-07,-0.10368,1.1084e-09,1682.2,50.707,11.111,0.00035884,-4.3161e-09,0.00013415,0.037311,0
1603.5,54.424,19.856,-2.1228e-07,-0.11616,1.2418e-09,1682.2,50.707,11.111,0.00035884,-4.3161e-09,0.00013415,0.037686,0
1605,54.424,19.846,-2.1217e-07,-0.14069,1.504e-09,1683.1,50.707,11.111,0.00035209,5.3272e-09,-0.00016732,0.038022,0
1606.6,54.424,19.834,-2.1204e-07,-0.16466,1.7603e-09,1683.9,50.707,11.111,0.00032796,1.0459e-08,-0.00035059,0.038364,0
1607.8,54.424,19.823,-2.1193e-07,-0.18229,1.9488e-09,1684.4,50.707,11.111,0.00031186,1.161e-08,-0.00040829,0.038736,0
1607.8,54.424,19.823,-2.1193e-07,-0.18229,1.9488e-09,1685.1,50.707,11.111,0.00028477,1.2035e-08,-0.00046207,0.038403,0
1607.8,54.424,19.823,-2.1193e-07,-0.18229,1.9488e-09,1685.1,50.707,11.111,0.00028477,1.2035e-08,-0.00046207,0.038403,0
1607.8,54.424,19.823,-2.1193e-07,-0.18229,1.9488e-09,1685.1,50.707,11.111,0.00028477,1.2035e-08,-0.00046207,0.038403,0
1607.8,54.424,19.823,-2.1193e-07,-0.18229,1.9488e-09,1685.1,50.707,11.111,0.00028477,1.2035e-08,-0.00046207,0.038403,0
1607.8,54.424,19.823,-2.1193e-07,-0.18229,1.9488e-09,1685.1,50.707,11.111,0.00028477,1.2035e-08,-0.00046207,0.038403,0
1607.8,54.424,19.823,-2.1193e-07,-0.18229,1.9488e-09,1685.1,50.707,11.111,0.00028477,1.2035e-08,-0.00046207,0.038403,0
1607.8,54.424,19.823,-2.1193e-07,-0.18229,1.9488e-09,1685.1,50.707,11.111,0.00028477,1.2035e-08,-0.00046207,0.038403,0
1607.8,54.424,19.823,-2.1193e-07,-0.18229,1.9488e-09,1685.1,50.707,11.111,0.00028477,1.2035e-08,-0.00046207,0.038403,0
1607.8,54.424,19.823,-2.1193e-07,-0.18229,1.9488e-09,1685.1,50.707,11.111,0.00028477,1.2035e-08,-0.00046207,0.038403,0
1608.6,54.424,19.816,-2.1185e-07,-0.19388,2.0727e-09,1685.1,50.707,11.111,0.00028477,1.2035e-08,-0.00046207,0.0388,0
1608.6,54.424,19.816,-2.1185e-07,-0.19388,2.0727e-09,1685.1,50.707,11.111,0.00028477,1.2035e-08,-0.00046207,0.0388,0
1608.6,54.424,19.816,-2.1185e-07,-0.19388,2.0727e-09,1685.1,50.707,11.111,0.00028477,1.2035e-08,-0.00046207,0.0388,0
1608.6,54.424,19.816,-2.1185e-07,-0.19388,2.0727e-09,1685.1,50.707,11.111,0.00028477,1.2035e-08,-0.00046207,0.0388,0
1608.6,54.424,19.816,-2.1185e-07,-0.19388,2.0727e-09,1685.1,50.707,11.111,0.00028477,1.2035e-08,-0.00046207,0.0388,0
1608.6,54.424,19.816,-2.1185e-07,-0.19388,2.0727e-09,1685.1,50.707,11.111,0.00028477,1.2035e-08,-0.00046207,0.0388,0
1608.6,54.424,19.816,-2.1185e-07,-0.19388,2.0727e-09,1685.1,50.707,11.111,0.00028477,1.2035e-08,-0.00046207,0.0388,0
1608.6,54.424,19.816,-2.1185e-07,-0.19388,2.0727e-09,1685.1,50.707,11.111,0.00028477,1.2035e-08,-0.00046207,0.0388,0
1608.6,54.424,19.816,-2.1185e-07,-0.19388,2.0727e-09,1685.1,50.707,11.111,0.00028477,1.2035e-08,-0.00046207,0.0388,0
1608.6,54.424,19.816,-2.1185e-07,-0.19388,2.0727e-09,1685.1,50.707,11.111,0.00028477,1.2035e-08,-0.00046207,0.0388,0
1608.6,54.424,19.816,-2.1185e-07,-0.19388,2.0727e-09,1685.5,50.707,11.111,0.00026561,1.1689e-08,-0.00048029,0.038577,0
1608.6,54.424,19.816,-2.1185e-07,-0.19388,2.0727e-09,1685.5,50.707,11.111,0.00026561,1.1689e-08,-0.00048029,0.038577,0
1609.4,54.424,19.808,-2.1176e-07,-0.20535,2.1953e-09,1685.5,50.707,11.111,0.00026561,1.1689e-08,-0.00048029,0.038977,0
1609.4,54.424,19.808,-2.1176e-07,-0.20535,2.1953e-09,1685.5,50.707,11.111,0.00026561,1.1689e-08,-0.00048029,0.038977,0
1609.4,54.424,19.808,-2.1176e-07,-0.20535,2.1953e-09,1686.4,50.707,11.111,0.00022668,1.0112e-08,-0.00048527,0.038529,0
1612.2,54.424,19.776,-2.1143e-07,-0.24449,2.6138e-09,1686.6,50.707,11.111,0.00021706,9.614e-09,-0.00048144,0.039843,0
1613,54.424,19.766,-2.1132e-07,-0.25541,2.7305e-09,1687.5,50.707,11.111,0.00018004,7.5085e-09,-0.00045204,0.039791,0
1613.4,54.424,19.761,-2.1126e-07,-0.26082,2.7884e-09,1687.5,50.707,11.111,0.00018004,7.5085e-09,-0.00045204,0.040002,0
1613.4,54.424,19.761,-2.1126e-07,-0.26082,2.7884e-09,1687.5,50.707,11.111,0.00018004,7.5085e-09,-0.00045204,0.040002,0
1613.4,54.424,19.761,-2.1126e-07,-0.26082,2.7884e-09,1687.5,50.707,11.111,0.00018004,7.5085e-09,-0.00045204,0.040002,0
1613.4,54.424,19.761,-2.1126e-07,-0.26082,2.7884e-09,1687.5,50.707,11.111,0.00018004,7.5085e-09,-0.00045204,0.040002,0
1613.4,54.424,19.761,-2.1126e-07,-0.26082,2.7884e-09,1687.5,50.707,11.111,0.00018004,7.5085e-09,-0.00045204,0.040002,0
1613.4,54.424,19.761,-2.1126e-07,-0.26082,2.7884e-09,1687.5,50.707,11.111,0.00018004,7.5085e-09,-0.00045204,0.040002,0
1613.4,54.424,19.761,-2.1126e-07,-0.26082,2.7884e-09,1687.5,50.707,11.111,0.00018004,7.5085e-09,-0.00045204,0.040002,0
1613.4,54.424,19.761,-2.1126e-07,-0.26082,2.7884e-09,1687.5,50.707,11.111,0.00018004,7.5085e-09,-0.00045204,0.040002,0
1613.4,54.424,19.761,-2.1126e-07,-0.26082,2.7884e-09,1687.5,50.707,11.111,0.00018004,7.5085e-09,-0.00045204,0.040002,0
1613.4,54.424,19.761,-2.1126e-07,-0.26082,2.7884e-09,1687.5,50.707,11.111,0.00018004,7.5085e-09,-0.00045204,0.040002,0
1613.4,54.424,19.761,-2.1126e-07,-0.26082,2.7884e-09,1688.2,50.707,11.111,0.00015434,5.9894e-09,-0.00041978,0.039647,0
1613.4,54.424,19.761,-2.1126e-07,-0.26082,2.7884e-09,1688.2,50.707,11.111,0.00015434,5.9894e-09,-0.00041978,0.039647,0
1613.4,54.424,19.761,-2.1126e-07,-0.26082,2.7884e-09,1688.2,50.707,11.111,0.00015434,5.9894e-09,-0.00041978,0.039647,0
1613.4,54.424,19.761,-2.1126e-07,-0.26082,2.7884e-09,1688.2,50.707,11.111,0.00015434,5.9894e-09,-0.00041978,0.039647,0
1613.4,54.424,19.761,-2.1126e-07,-0.26082,2.7884e-09,1688.2,50.707,11.111,0.00015434,5.9894e-09,-0.00041978,0.039647,0
1613.4,54.424,19.761,-2.1126e-07,-0.26082,2.7884e-09,1688.2,50.707,11.111,0.00015434,5.9894e-09,-0.00041978,0.039647,0
1613.4,54.424,19.761,-2.1126e-07,-0.26082,2.7884e-09,1688.2,50.707,11.111,0.00015434,5.9894e-09,-0.00041978,0.039647,0
1613.4,54.424,19.761,-2.1126e-07,-0.26082,2.7884e-09,1688.2,50.707,11.111,0.00015434,5.9894e-09,-0.00041978,0.039647,0
1613.4,54.424,19.761,-2.1126e-07,-0.26082,2.7884e-09,1688.2,50.707,11.111,0.00015434,5.9894e-09,-0.00041978,0.039647,0
1614.2,54.424,19.75,-2.1115e-07,-0.27156,2.9032e-09,1688.2,50.707,11.111,0.00015434,5.9894e-09,-0.00041978,0.040068,0
1614.2,54.424,19.75,-2.1115e-07,-0.27156,2.9032e-09,1688.2,50.707,11.111,0.00015434,5.9894e-09,-0.00041978,0.040068,0
1614.2,54.424,19.75,-2.1115e-07,-0.27156,2.9032e-09,1688.2,50.707,11.111,0.00015434,5.9894e-09,-0.00041978,0.040068,0
1614.2,54.424,19.75,-2.1115e-07,-0.27156,2.9032e-09,1688.2,50.707,11.111,0.00015434,5.9894e-09,-0.00041978,0.040068,0
1614.2,54.424,19.75,-2.1115e-07,-0.27156,2.9032e-09,1688.2,50.707,11.111,0.00015434,5.9894e-09,-0.00041978,0.040068,0
1614.2,54.424,19.75,-2.1115e-07,-0.27156,2.9032e-09,1688.2,50.707,11.111,0.00015434,5.9894e-09,-0.00041978,0.040068,0
1614.2,54.424,19.75,-2.1115e-07,-0.27156,2.9032e-09,1688.2,50.707,11.111,0.00015434,5.9894e-09,-0.00041978,0.040068,0
1614.9,54.424,19.739,-2.1103e-07,-0.28219,3.0168e-09,1688.2,50.707,11.111,0.00015434,5.9894e-09,-0.00041978,0.040499,0
1614.9,54.424,19.739,-2.1103e-07,-0.28219,3.0168e-09,1689.3,50.707,11.111,0.00011641,3.8502e-09,-0.00035659,0.039896,0
1617.7,54.424,19.697,-2.1058e-07,-0.31852,3.4052e-09,1689.5,50.707,11.111,0.0001096,3.4932e-09,-0.00034337,0.0413,0
1618.1,54.424,19.691,-2.1051e-07,-0.3236,3.4596e-09,1689.5,50.707,11.111,0.0001096,3.4932e-09,-0.00034337,0.041527,0
1619.3,54.424,19.671,-2.103e-07,-0.33869,3.6209e-09,1691.1,50.707,11.111,6.9302e-05,1.6351e-09,-0.00025293,0.041311,0
1619.3,54.424,19.671,-2.103e-07,-0.33869,3.6209e-09,1691.1,50.707,11.111,6.9302e-05,1.6351e-09,-0.00025293,0.041311,0
1619.3,54.424,19.671,-2.103e-07,-0.33869,3.6209e-09,1691.1,50.707,11.111,6.9302e-05,1.6351e-09,-0.00025293,0.041311,0
1619.3,54.424,19.671,-2.103e-07,-0.33869,3.6209e-09,1691.1,50.707,11.111,6.9302e-05,1.6351e-09,-0.00025293,0.041311,0
1619.3,54.424,19.671,-2.103e-07,-0.33869,3.6209e-09,1691.1,50.707,11.111,6.9302e-05,1.6351e-09,-0.00025293,0.041311,0
1619.3,54.424,19.671,-2.103e-07,-0.33869,3.6209e-09,1691.1,50.707,11.111,6.9302e-05,1.6351e-09,-0.00025293,0.041311,0
1619.3,54.424,19.671,-2.103e-07,-0.33869,3.6209e-09,1691.1,50.707,11.111,6.9302e-05,1.6351e-09,-0.00025293,0.041311,0
1619.3,54.424,19.671,-2.103e-07,-0.33869,3.6209e-09,1691.1,50.707,11.111,6.9302e-05,1.6351e-09,-0.00025293,0.041311,0
1619.3,54.424,19.671,-2.103e-07,-0.33869,3.6209e-09,1691.1,50.707,11.111,6.9302e-05,1.6351e-09,-0.00025293,0.041311,0
1619.3,54.424,19.671,-2.103e-07,-0.33869,3.6209e-09,1691.1,50.707,11.111,6.9302e-05,1.6351e-09,-0.00025293,0.041311,0
1619.3,54.424,19.671,-2.103e-07,-0.33869,3.6209e-09,1691.5,50.707,11.111,6.0027e-05,1.2841e-09,-0.00022896,0.041058,0
1619.3,54.424,19.671,-2.103e-07,-0.33869,3.6209e-09,1691.5,50.707,11.111,6.0027e-05,1.2841e-09,-0.00022896,0.041058,0
1619.3,54.424,19.671,-2.103e-07,-0.33869,3.6209e-09,1691.5,50.707,11.111,6.0027e-05,1.2841e-09,-0.00022896,0.041058,0
1619.3,54.424,19.671,-2.103e-07,-0.33869,3.6209e-09,1691.5,50.707,11.111,6.0027e-05,1.2841e-09,-0.00022896,0.041058,0
1619.3,54.424,19.671,-2.103e-07,-0.33869,3.6209e-09,1691.5,50.707,11.111,6.0027e-05,1.2841e-09,-0.00022896,0.041058,0
1619.3,54.424,19.671,-2.103e-07,-0.33869,3.6209e-09,1691.5,50.707,11.111,6.0027e-05,1.2841e-09,-0.00022896,0.041058,0
1619.3,54.424,19.671,-2.103e-07,-0.33869,3.6209e-09,1691.5,50.707,11.111,6.0027e-05,1.2841e-09,-0.00022896,0.041058,0
1619.3,54.424,19.671,-2.103e-07,-0.33869,3.6209e-09,1691.5,50.707,11.111,6.0027e-05,1.2841e-09,-0.00022896,0.041058,0
1619.3,54.424,19.671,-2.103e-07,-0.33869,3.6209e-09,1691.5,50.707,11.111,6.0027e-05,1.2841e-09,-0.00022896,0.041058,0
1620.1,54.424,19.657,-2.1015e-07,-0.34862,3.7271e-09,1691.5,50.707,11.111,6.0027e-05,1.2841e-09,-0.00022896,0.041508,0
1620.1,54.424,19.657,-2.1015e-07,-0.34862,3.7271e-09,1691.5,50.707,11.111,6.0027e-05,1.2841e-09,-0.00022896,0.041508,0
1620.1,54.424,19.657,-2.1015e-07,-0.34862,3.7271e-09,1691.5,50.707,11.111,6.0027e-05,1.2841e-09,-0.00022896,0.041508,0
1620.1,54.424,19.657,-2.1015e-07,-0.34862,3.7271e-09,1691.5,50.707,11.111,6.0027e-05,1.2841e-09,-0.00022896,0.041508,0
1620.1,54.424,19.657,-2.1015e-07,-0.34862,3.7271e-09,1691.5,50.707,11.111,6.0027e-05,1.2841e-09,-0.00022896,0.041508,0
1620.1,54.424,19.657,-2.1015e-07,-0.34862,3.7271e-09,1691.5,50.707,11.111,6.0027e-05,1.2841e-09,-0.00022896,0.041508,0
1620.1,54.424,19.657,-2.1015e-07,-0.34862,3.7271e-09,1691.5,50.707,11.111,6.0027e-05,1.2841e-09,-0.00022896,0.041508,0
1620.8,54.424,19.643,-2.1e-07,-0.35845,3.8321e-09,1691.5,50.707,11.111,6.0027e-05,1.2841e-09,-0.00022896,0.041968,0
1620.8,54.424,19.643,-2.1e-07,-0.35845,3.8321e-09,1692.6,50.707,11.111,4.0736e-05,6.6742e-10,-0.00017456,0.041321,0
1623.6,54.424,19.591,-2.0944e-07,-0.39208,4.1917e-09,1692.8,50.707,11.111,3.7491e-05,5.8022e-10,-0.00016472,0.042821,0
1624,54.424,19.583,-2.0936e-07,-0.39679,4.2421e-09,1692.8,50.707,11.111,3.7491e-05,5.8022e-10,-0.00016472,0.043064,0
1624,54.424,19.583,-2.0936e-07,-0.39679,4.2421e-09,1694.4,50.707,11.111,1.9638e-05,1.9713e-10,-0.00010583,0.042116,0
1625.2,54.424,19.558,-2.091e-07,-0.41078,4.3916e-09,1694.4,50.707,11.111,1.9638e-05,1.9713e-10,-0.00010583,0.042827,0
1625.2,54.424,19.558,-2.091e-07,-0.41078,4.3916e-09,1694.4,50.707,11.111,1.9638e-05,1.9713e-10,-0.00010583,0.042827,0
1625.2,54.424,19.558,-2.091e-07,-0.41078,4.3916e-09,1694.4,50.707,11.111,1.9638e-05,1.9713e-10,-0.00010583,0.042827,0
1625.2,54.424,19.558,-2.091e-07,-0.41078,4.3916e-09,1694.4,50.707,11.111,1.9638e-05,1.9713e-10,-0.00010583,0.042827,0
1625.2,54.424,19.558,-2.091e-07,-0.41078,4.3916e-09,1694.4,50.707,11.111,1.9638e-05,1.9713e-10,-0.00010583,0.042827,0
1625.2,54.424,19.558,-2.091e-07,-0.41078,4.3916e-09,1694.4,50.707,11.111,1.9638e-05,1.9713e-10,-0.00010583,0.042827,0
1625.2,54.424,19.558,-2.091e-07,-0.41078,4.3916e-09,1694.4,50.707,11.111,1.9638e-05,1.9713e-10,-0.00010583,0.042827,0
1625.2,54.424,19.558,-2.091e-07,-0.41078,4.3916e-09,1694.4,50.707,11.111,1.9638e-05,1.9713e-10,-0.00010583,0.042827,0
1625.2,54.424,19.558,-2.091e-07,-0.41078,4.3916e-09,1694.4,50.707,11.111,1.9638e-05,1.9713e-10,-0.00010583,0.042827,0
1625.2,54.424,19.558,-2.091e-07,-0.41078,4.3916e-09,1694.8,50.707,11.111,1.5889e-05,1.3938e-10,-9.213e-05,0.042555,0
1625.2,54.424,19.558,-2.091e-07,-0.41078,4.3916e-09,1694.8,50.707,11.111,1.5889e-05,1.3938e-10,-9.213e-05,0.042555,0
1625.2,54.424,19.558,-2.091e-07,-0.41078,4.3916e-09,1694.8,50.707,11.111,1.5889e-05,1.3938e-10,-9.213e-05,0.042555,0
1625.2,54.424,19.558,-2.091e-07,-0.41078,4.3916e-09,1694.8,50.707,11.111,1.5889e-05,1.3938e-10,-9.213e-05,0.042555,0
1625.2,54.424,19.558,-2.091e-07,-0.41078,4.3916e-09,1694.8,50.707,11.111,1.5889e-05,1.3938e-10,-9.213e-05,0.042555,0
1625.2,54.424,19.558,-2.091e-07,-0.41078,4.3916e-09,1694.8,50.707,11.111,1.5889e-05,1.3938e-10,-9.213e-05,0.042555,0
1625.2,54.424,19.558,-2.091e-07,-0.41078,4.3916e-09,1694.8,50.707,11.111,1.5889e-05,1.3938e-10,-9.213e-05,0.042555,0
1625.2,54.424,19.558,-2.091e-07,-0.41078,4.3916e-09,1694.8,50.707,11.111,1.5889e-05,1.3938e-10,-9.213e-05,0.042555,0
1625.2,54.424,19.558,-2.091e-07,-0.41078,4.3916e-09,1694.8,50.707,11.111,1.5889e-05,1.3938e-10,-9.213e-05,0.042555,0
1625.9,54.424,19.542,-2.0892e-07,-0.41999,4.49e-09,1694.8,50.707,11.111,1.5889e-05,1.3938e-10,-9.213e-05,0.043036,0
1625.9,54.424,19.542,-2.0892e-07,-0.41999,4.49e-09,1694.8,50.707,11.111,1.5889e-05,1.3938e-10,-9.213e-05,0.043036,0
1625.9,54.424,19.542,-2.0892e-07,-0.41999,4.49e-09,1694.8,50.707,11.111,1.5889e-05,1.3938e-10,-9.213e-05,0.043036,0
1625.9,54.424,19.542,-2.0892e-07,-0.41999,4.49e-09,1694.8,50.707,11.111,1.5889e-05,1.3938e-10,-9.213e-05,0.043036,0
1625.9,54.424,19.542,-2.0892e-07,-0.41999,4.49e-09,1694.8,50.707,11.111,1.5889e-05,1.3938e-10,-9.213e-05,0.043036,0
1625.9,54.424,19.542,-2.0892e-07,-0.41999,4.49e-09,1694.8,50.707,11.111,1.5889e-05,1.3938e-10,-9.213e-05,0.043036,0
1625.9,54.424,19.542,-2.0892e-07,-0.41999,4.49e-09,1694.8,50.707,11.111,1.5889e-05,1.3938e-10,-9.213e-05,0.043036,0
1626.7,54.424,19.525,-2.0874e-07,-0.4291,4.5875e-09,1694.8,50.707,11.111,1.5889e-05,1.3938e-10,-9.213e-05,0.043528,0
1626.7,54.424,19.525,-2.0874e-07,-0.4291,4.5875e-09,1694.8,50.707,11.111,1.5889e-05,1.3938e-10,-9.213e-05,0.043528,0
1628.3,54.424,19.49,-2.0836e-07,-0.44707,4.7795e-09,1695.9,50.707,11.111,8.6044e-06,5.2734e-11,-6.3422e-05,0.043816,0
1628.3,54.424,19.49,-2.0836e-07,-0.44707,4.7795e-09,1695.9,50.707,11.111,8.6044e-06,5.2734e-11,-6.3422e-05,0.043816,0
1628.3,54.424,19.49,-2.0836e-07,-0.44707,4.7795e-09,1697.1,50.707,11.111,3.7249e-06,1.5558e-11,-4.1734e-05,0.043111,0
1630.6,54.424,19.435,-2.0777e-07,-0.47335,5.0606e-09,1697.3,50.707,11.111,2.9805e-06,1.1538e-11,-3.8133e-05,0.044471,0
1630.6,54.424,19.435,-2.0777e-07,-0.47335,5.0606e-09,1697.9,50.707,11.111,1.1293e-06,3.6475e-12,-2.863e-05,0.044033,0
1630.6,54.424,19.435,-2.0777e-07,-0.47335,5.0606e-09,1697.9,50.707,11.111,1.1293e-06,3.6475e-12,-2.863e-05,0.044033,0
1630.6,54.424,19.435,-2.0777e-07,-0.47335,5.0606e-09,1697.9,50.707,11.111,1.1293e-06,3.6475e-12,-2.863e-05,0.044033,0
1630.6,54.424,19.435,-2.0777e-07,-0.47335,5.0606e-09,1698.2,50.707,11.111,6.2603e-07,2.0593e-12,-2.5864e-05,0.043889,0
1630.6,54.424,19.435,-2.0777e-07,-0.47335,5.0606e-09,1698.2,50.707,11.111,6.2603e-07,2.0593e-12,-2.5864e-05,0.043889,0
1630.6,54.424,19.435,-2.0777e-07,-0.47335,5.0606e-09,1698.4,50.707,11.111,1.7349e-07,8.5147e-13,-2.3284e-05,0.043745,0
1630.6,54.424,19.435,-2.0777e-07,-0.47335,5.0606e-09,1698.4,50.707,11.111,1.7349e-07,8.5147e-13,-2.3284e-05,0.043745,0
1630.6,54.424,19.435,-2.0777e-07,-0.47335,5.0606e-09,1698.4,50.707,11.111,1.7349e-07,8.5147e-13,-2.3284e-05,0.043745,0
1630.6,54.424,19.435,-2.0777e-07,-0.47335,5.0606e-09,1698.4,50.707,11.111,1.7349e-07,8.5147e-13,-2.3284e-05,0.043745,0
1630.6,54.424,19.435,-2.0777e-07,-0.47335,5.0606e-09,1698.4,50.707,11.111,1.7349e-07,8.5147e-13,-2.3284e-05,0.043745,0
1630.6,54.424,19.435,-2.0777e-07,-0.47335,5.0606e-09,1698.4,50.707,11.111,1.7349e-07,8.5147e-13,-2.3284e-05,0.043745,0
1630.6,54.424,19.435,-2.0777e-07,-0.47335,5.0606e-09,1698.4,50.707,11.111,1.7349e-07,8.5147e-13,-2.3284e-05,0.043745,0
1630.6,54.424,19.435,-2.0777e-07,-0.47335,5.0606e-09,1698.4,50.707,11.111,1.7349e-07,8.5147e-13,-2.3284e-05,0.043745,0
1630.6,54.424,19.435,-2.0777e-07,-0.47335,5.0606e-09,1698.4,50.707,11.111,1.7349e-07,8.5147e-13,-2.3284e-05,0.043745,0
1632.2,54.424,19.396,-2.0736e-07,-0.49045,5.2433e-09,1698.4,50.707,11.111,1.7349e-07,8.5147e-13,-2.3284e-05,0.044767,0
1632.6,54.424,19.386,-2.0725e-07,-0.49468,5.2885e-09,1698.4,50.707,11.111,1.7349e-07,8.5147e-13,-2.3284e-05,0.045029,0
1632.6,54.424,19.386,-2.0725e-07,-0.49468,5.2885e-09,1698.4,50.707,11.111,1.7349e-07,8.5147e-13,-2.3284e-05,0.045029,0
1632.6,54.424,19.386,-2.0725e-07,-0.49468,5.2885e-09,1698.4,50.707,11.111,1.7349e-07,8.5147e-13,-2.3284e-05,0.045029,0
1633,54.424,19.376,-2.0715e-07,-0.49888,5.3334e-09,1698.4,50.707,11.111,1.7349e-07,8.5147e-13,-2.3284e-05,0.045294,0
1633.3,54.424,19.366,-2.0704e-07,-0.50306,5.3781e-09,1698.4,50.707,11.111,1.7349e-07,8.5147e-13,-2.3284e-05,0.045563,0
1634.9,54.424,19.325,-2.066e-07,-0.51957,5.5547e-09,1699.9,50.707,11.111,-1.8471e-06,-1.5266e-12,-9.6916e-06,0.045557,0
1634.9,54.424,19.325,-2.066e-07,-0.51957,5.5547e-09,1699.9,50.707,11.111,-1.8471e-06,-1.5266e-12,-9.6916e-06,0.045557,0
1635.3,54.424,19.315,-2.0649e-07,-0.52365,5.5983e-09,1699.9,50.707,11.111,-1.8471e-06,-1.5266e-12,-9.6916e-06,0.045828,0
1635.3,54.424,19.315,-2.0649e-07,-0.52365,5.5983e-09,1699.9,50.707,11.111,-1.8471e-06,-1.5266e-12,-9.6916e-06,0.045828,0
1635.7,54.424,19.304,-2.0638e-07,-0.52771,5.6416e-09,1699.9,50.707,11.111,-1.8471e-06,-1.5266e-12,-9.6916e-06,0.046102,0
1635.7,54.424,19.304,-2.0638e-07,-0.52771,5.6416e-09,1699.9,50.707,11.111,-1.8471e-06,-1.5266e-12,-9.6916e-06,0.046102,0
1635.7,54.424,19.304,-2.0638e-07,-0.52771,5.6416e-09,1699.9,50.707,11.111,-1.8471e-06,-1.5266e-12,-9.6916e-06,0.046102,0
1635.7,54.424,19.304,-2.0638e-07,-0.52771,5.6416e-09,1699.9,50.707,11.111,-1.8471e-06,-1.5266e-12,-9.6916e-06,0.046102,0
1635.7,54.424,19.304,-2.0638e-07,-0.52771,5.6416e-09,1699.9,50.707,11.111,-1.8471e-06,-1.5266e-12,-9.6916e-06,0.046102,0
1635.7,54.424,19.304,-2.0638e-07,-0.52771,5.6416e-09,1699.9,50.707,11.111,-1.8471e-06,-1.5266e-12,-9.6916e-06,0.046102,0
1635.7,54.424,19.304,-2.0638e-07,-0.52771,5.6416e-09,1699.9,50.707,11.111,-1.8471e-06,-1.5266e-12,-9.6916e-06,0.046102,0
1635.7,54.424,19.304,-2.0638e-07,-0.52771,5.6416e-09,1699.9,50.707,11.111,-1.8471e-06,-1.5266e-12,-9.6916e-06,0.046102,0
1635.7,54.424,19.304,-2.0638e-07,-0.52771,5.6416e-09,1699.9,50.707,11.111,-1.8471e-06,-1.5266e-12,-9.6916e-06,0.046102,0
1635.7,54.424,19.304,-2.0638e-07,-0.52771,5.6416e-09,1700.8,50.707,11.111,-2.3395e-06,-9.8018e-13,-4.7517e-06,0.045476,0
1635.7,54.424,19.304,-2.0638e-07,-0.52771,5.6416e-09,1700.8,50.707,11.111,-2.3395e-06,-9.8018e-13,-4.7517e-06,0.045476,0
1635.7,54.424,19.304,-2.0638e-07,-0.52771,5.6416e-09,1700.8,50.707,11.111,-2.3395e-06,-9.8018e-13,-4.7517e-06,0.045476,0
1635.7,54.424,19.304,-2.0638e-07,-0.52771,5.6416e-09,1700.8,50.707,11.111,-2.3395e-06,-9.8018e-13,-4.7517e-06,0.045476,0
1635.7,54.424,19.304,-2.0638e-07,-0.52771,5.6416e-09,1700.8,50.707,11.111,-2.3395e-06,-9.8018e-13,-4.7517e-06,0.045476,0
1635.7,54.424,19.304,-2.0638e-07,-0.52771,5.6416e-09,1700.8,50.707,11.111,-2.3395e-06,-9.8018e-13,-4.7517e-06,0.045476,0
1635.7,54.424,19.304,-2.0638e-07,-0.52771,5.6416e-09,1700.8,50.707,11.111,-2.3395e-06,-9.8018e-13,-4.7517e-06,0.045476,0
1636.4,54.424,19.283,-2.0615e-07,-0.53576,5.7277e-09,1700.8,50.707,11.111,-2.3395e-06,-9.8018e-13,-4.7517e-06,0.046018,0
1636.4,54.424,19.283,-2.0615e-07,-0.53576,5.7277e-09,1700.8,50.707,11.111,-2.3395e-06,-9.8018e-13,-4.7517e-06,0.046018,0
1636.8,54.424,19.272,-2.0604e-07,-0.53976,5.7705e-09,1700.8,50.707,11.111,-2.3395e-06,-9.8018e-13,-4.7517e-06,0.046294,0
1638.4,54.424,19.229,-2.0557e-07,-0.55555,5.9393e-09,1701.7,50.707,11.111,-2.5226e-06,-2.9967e-13,-1.3269e-06,0.046767,0
1638.4,54.424,19.229,-2.0557e-07,-0.55555,5.9393e-09,1701.7,50.707,11.111,-2.5226e-06,-2.9967e-13,-1.3269e-06,0.046767,0
1639.5,54.424,19.195,-2.0521e-07,-0.56719,6.0637e-09,1702.4,50.707,11.111,-2.5188e-06,1.051e-13,4.6279e-07,0.047127,0
1639.5,54.424,19.195,-2.0521e-07,-0.56719,6.0637e-09,1703.1,50.707,11.111,-2.4319e-06,3.806e-13,1.7267e-06,0.046635,0
1639.5,54.424,19.195,-2.0521e-07,-0.56719,6.0637e-09,1703.3,50.707,11.111,-2.3892e-06,4.4464e-13,2.0502e-06,0.046473,0
1639.5,54.424,19.195,-2.0521e-07,-0.56719,6.0637e-09,1703.3,50.707,11.111,-2.3892e-06,4.4464e-13,2.0502e-06,0.046473,0
1639.5,54.424,19.195,-2.0521e-07,-0.56719,6.0637e-09,1703.3,50.707,11.111,-2.3892e-06,4.4464e-13,2.0502e-06,0.046473,0
1639.5,54.424,19.195,-2.0521e-07,-0.56719,6.0637e-09,1703.3,50.707,11.111,-2.3892e-06,4.4464e-13,2.0502e-06,0.046473,0
1639.5,54.424,19.195,-2.0521e-07,-0.56719,6.0637e-09,1703.3,50.707,11.111,-2.3892e-06,4.4464e-13,2.0502e-06,0.046473,0
1639.5,54.424,19.195,-2.0521e-07,-0.56719,6.0637e-09,1703.3,50.707,11.111,-2.3892e-06,4.4464e-13,2.0502e-06,0.046473,0
1640.7,54.424,19.16,-2.0484e-07,-0.57865,6.1862e-09,1703.3,50.707,11.111,-2.3892e-06,4.4464e-13,2.0502e-06,0.047323,0
1640.7,54.424,19.16,-2.0484e-07,-0.57865,6.1862e-09,1703.3,50.707,11.111,-2.3892e-06,4.4464e-13,2.0502e-06,0.047323,0
1640.7,54.424,19.16,-2.0484e-07,-0.57865,6.1862e-09,1703.3,50.707,11.111,-2.3892e-06,4.4464e-13,2.0502e-06,0.047323,0
1640.7,54.424,19.16,-2.0484e-07,-0.57865,6.1862e-09,1703.3,50.707,11.111,-2.3892e-06,4.4464e-13,2.0502e-06,0.047323,0
1640.7,54.424,19.16,-2.0484e-07,-0.57865,6.1862e-09,1703.3,50.707,11.111,-2.3892e-06,4.4464e-13,2.0502e-06,0.047323,0
1640.7,54.424,19.16,-2.0484e-07,-0.57865,6.1862e-09,1703.3,50.707,11.111,-2.3892e-06,4.4464e-13,2.0502e-06,0.047323,0
1640.7,54.424,19.16,-2.0484e-07,-0.57865,6.1862e-09,1703.3,50.707,11.111,-2.3892e-06,4.4464e-13,2.0502e-06,0.047323,0
1640.7,54.424,19.16,-2.0484e-07,-0.57865,6.1862e-09,1703.3,50.707,11.111,-2.3892e-06,4.4464e-13,2.0502e-06,0.047323,0
1640.7,54.424,19.16,-2.0484e-07,-0.57865,6.1862e-09,1703.3,50.707,11.111,-2.3892e-06,4.4464e-13,2.0502e-06,0.047323,0
1640.7,54.424,19.16,-2.0484e-07,-0.57865,6.1862e-09,1703.3,50.707,11.111,-2.3892e-06,4.4464e-13,2.0502e-06,0.047323,0
1640.7,54.424,19.16,-2.0484e-07,-0.57865,6.1862e-09,1703.7,50.707,11.111,-2.2884e-06,5.3577e-13,2.5724e-06,0.046991,0
1640.7,54.424,19.16,-2.0484e-07,-0.57865,6.1862e-09,1703.7,50.707,11.111,-2.2884e-06,5.3577e-13,2.5724e-06,0.046991,0
1640.7,54.424,19.16,-2.0484e-07,-0.57865,6.1862e-09,1703.7,50.707,11.111,-2.2884e-06,5.3577e-13,2.5724e-06,0.046991,0
1640.7,54.424,19.16,-2.0484e-07,-0.57865,6.1862e-09,1703.7,50.707,11.111,-2.2884e-06,5.3577e-13,2.5724e-06,0.046991,0
1640.7,54.424,19.16,-2.0484e-07,-0.57865,6.1862e-09,1703.7,50.707,11.111,-2.2884e-06,5.3577e-13,2.5724e-06,0.046991,0
1640.7,54.424,19.16,-2.0484e-07,-0.57865,6.1862e-09,1703.7,50.707,11.111,-2.2884e-06,5.3577e-13,2.5724e-06,0.046991,0
1640.7,54.424,19.16,-2.0484e-07,-0.57865,6.1862e-09,1703.7,50.707,11.111,-2.2884e-06,5.3577e-13,2.5724e-06,0.046991,0
1640.7,54.424,19.16,-2.0484e-07,-0.57865,6.1862e-09,1703.7,50.707,11.111,-2.2884e-06,5.3577e-13,2.5724e-06,0.046991,0
1640.7,54.424,19.16,-2.0484e-07,-0.57865,6.1862e-09,1703.9,50.707,11.111,-2.2318e-06,5.6486e-13,2.7776e-06,0.046827,0
1642.2,54.424,19.114,-2.0434e-07,-0.59366,6.3467e-09,1703.9,50.707,11.111,-2.2318e-06,5.6486e-13,2.7776e-06,0.047981,0
1644.1,54.424,19.053,-2.037e-07,-0.612,6.5428e-09,1704.6,50.707,11.111,-2.0446e-06,5.9896e-13,3.2047e-06,0.04896,0
1644.5,54.424,19.041,-2.0356e-07,-0.61561,6.5814e-09,1704.6,50.707,11.111,-2.0446e-06,5.9896e-13,3.2047e-06,0.049268,0
1644.5,54.424,19.041,-2.0356e-07,-0.61561,6.5814e-09,1706.4,50.707,11.111,-1.5008e-06,4.6662e-13,3.3785e-06,0.047862,0
1644.5,54.424,19.041,-2.0356e-07,-0.61561,6.5814e-09,1706.4,50.707,11.111,-1.5008e-06,4.6662e-13,3.3785e-06,0.047862,0
1644.5,54.424,19.041,-2.0356e-07,-0.61561,6.5814e-09,1706.4,50.707,11.111,-1.5008e-06,4.6662e-13,3.3785e-06,0.047862,0
1644.5,54.424,19.041,-2.0356e-07,-0.61561,6.5814e-09,1706.4,50.707,11.111,-1.5008e-06,4.6662e-13,3.3785e-06,0.047862,0
1644.5,54.424,19.041,-2.0356e-07,-0.61561,6.5814e-09,1706.4,50.707,11.111,-1.5008e-06,4.6662e-13,3.3785e-06,0.047862,0
1644.5,54.424,19.041,-2.0356e-07,-0.61561,6.5814e-09,1706.4,50.707,11.111,-1.5008e-06,4.6662e-13,3.3785e-06,0.047862,0
1646,54.424,18.985,-2.0296e-07,-0.75584,8.0806e-09,1706.4,50.707,11.111,-1.5008e-06,4.6662e-13,3.3785e-06,0.04906,0
1646,54.424,18.985,-2.0296e-07,-0.75584,8.0806e-09,1706.4,50.707,11.111,-1.5008e-06,4.6662e-13,3.3785e-06,0.04906,0
1646,54.424,18.985,-2.0296e-07,-0.75584,8.0806e-09,1706.4,50.707,11.111,-1.5008e-06,4.6662e-13,3.3785e-06,0.04906,0
1646,54.424,18.985,-2.0296e-07,-0.75584,8.0806e-09,1706.4,50.707,11.111,-1.5008e-06,4.6662e-13,3.3785e-06,0.04906,0
1646,54.424,18.985,-2.0296e-07,-0.75584,8.0806e-09,1706.4,50.707,11.111,-1.5008e-06,4.6662e-13,3.3785e-06,0.04906,0
1646,54.424,18.985,-2.0296e-07,-0.75584,8.0806e-09,1706.4,50.707,11.111,-1.5008e-06,4.6662e-13,3.3785e-06,0.04906,0
1646,54.424,18.985,-2.0296e-07,-0.75584,8.0806e-09,1706.4,50.707,11.111,-1.5008e-06,4.6662e-13,3.3785e-06,0.04906,0
1646,54.424,18.985,-2.0296e-07,-0.75584,8.0806e-09,1706.4,50.707,11.111,-1.5008e-06,4.6662e-13,3.3785e-06,0.04906,0
1646,54.424,18.985,-2.0296e-07,-0.75584,8.0806e-09,1706.4,50.707,11.111,-1.5008e-06,4.6662e-13,3.3785e-06,0.04906,0
1646,54.424,18.985,-2.0296e-07,-0.75584,8.0806e-09,1706.4,50.707,11.111,-1.5008e-06,4.6662e-13,3.3785e-06,0.04906,0
1646.4,54.424,18.97,-2.028e-07,-0.75481,8.0696e-09,1706.4,50.707,11.111,-1.5008e-06,4.6662e-13,3.3785e-06,0.049369,0
1646.4,54.424,18.97,-2.028e-07,-0.75481,8.0696e-09,1706.4,50.707,11.111,-1.5008e-06,4.6662e-13,3.3785e-06,0.049369,0
1646.4,54.424,18.97,-2.028e-07,-0.75481,8.0696e-09,1706.4,50.707,11.111,-1.5008e-06,4.6662e-13,3.3785e-06,0.049369,0
1646.4,54.424,18.97,-2.028e-07,-0.75481,8.0696e-09,1706.4,50.707,11.111,-1.5008e-06,4.6662e-13,3.3785e-06,0.049369,0
1646.4,54.424,18.97,-2.028e-07,-0.75481,8.0696e-09,1706.4,50.707,11.111,-1.5008e-06,4.6662e-13,3.3785e-06,0.049369,0
1646.4,54.424,18.97,-2.028e-07,-0.75481,8.0696e-09,1706.4,50.707,11.111,-1.5008e-06,4.6662e-13,3.3785e-06,0.049369,0
1646.4,54.424,18.97,-2.028e-07,-0.75481,8.0696e-09,1706.4,50.707,11.111,-1.5008e-06,4.6662e-13,3.3785e-06,0.049369,0
1646.4,54.424,18.97,-2.028e-07,-0.75481,8.0696e-09,1706.4,50.707,11.111,-1.5008e-06,4.6662e-13,3.3785e-06,0.049369,0
1647.5,54.424,18.924,-2.0232e-07,-0.75192,8.0387e-09,1707.1,50.707,11.111,-1.3047e-06,3.8788e-13,3.2237e-06,0.049756,0
1649.4,54.424,18.849,-2.0152e-07,-0.74877,8.005e-09,1707.7,50.707,11.111,-1.1209e-06,3.1128e-13,3.0052e-06,0.050792,0
1649.8,54.424,18.835,-2.0136e-07,-0.74838,8.0009e-09,1707.7,50.707,11.111,-1.1209e-06,3.1128e-13,3.0052e-06,0.05112,0
1649.8,54.424,18.835,-2.0136e-07,-0.74838,8.0009e-09,1707.7,50.707,11.111,-1.1209e-06,3.1128e-13,3.0052e-06,0.05112,0
1649.8,54.424,18.835,-2.0136e-07,-0.74838,8.0009e-09,1709.5,50.708,11.111,0.013896,-0.00024976,0.24177,0.049608,0
1649.8,54.424,18.835,-2.0136e-07,-0.74838,8.0009e-09,1709.5,50.708,11.111,0.013896,-0.00024976,0.24177,0.049608,0
1649.8,54.424,18.835,-2.0136e-07,-0.74838,8.0009e-09,1709.5,50.708,11.111,0.013896,-0.00024976,0.24177,0.049608,0
1649.8,54.424,18.835,-2.0136e-07,-0.74838,8.0009e-09,1709.5,50.708,11.111,0.013896,-0.00024976,0.24177,0.049608,0
1649.8,54.424,18.835,-2.0136e-07,-0.74838,8.0009e-09,1709.5,50.708,11.111,0.013896,-0.00024976,0.24177,0.049608,0
1649.8,54.424,18.835,-2.0136e-07,-0.74838,8.0009e-09,1709.5,50.708,11.111,0.013896,-0.00024976,0.24177,0.049608,0
1649.8,54.424,18.835,-2.0136e-07,-0.74838,8.0009e-09,1709.5,50.708,11.111,0.013896,-0.00024976,0.24177,0.049608,0
1649.8,54.424,18.835,-2.0136e-07,-0.74838,8.0009e-09,1709.5,50.708,11.111,0.013896,-0.00024976,0.24177,0.049608,0
1649.8,54.424,18.835,-2.0136e-07,-0.74838,8.0009e-09,1709.5,50.708,11.111,0.013896,-0.00024976,0.24177,0.049608,0
1651.3,54.424,18.775,-2.0072e-07,-0.74765,7.9931e-09,1709.5,50.708,11.111,0.013896,-0.00024976,0.24177,0.050882,0
1651.3,54.424,18.775,-2.0072e-07,-0.74765,7.9931e-09,1709.5,50.708,11.111,0.013896,-0.00024976,0.24177,0.050882,0
1651.3,54.424,18.775,-2.0072e-07,-0.74765,7.9931e-09,1709.5,50.708,11.111,0.013896,-0.00024976,0.24177,0.050882,0
1651.3,54.424,18.775,-2.0072e-07,-0.74765,7.9931e-09,1709.5,50.708,11.111,0.013896,-0.00024976,0.24177,0.050882,0
1651.3,54.424,18.775,-2.0072e-07,-0.74765,7.9931e-09,1709.5,50.708,11.111,0.013896,-0.00024976,0.24177,0.050882,0
1651.3,54.424,18.775,-2.0072e-07,-0.74765,7.9931e-09,1709.5,50.708,11.111,0.013896,-0.00024976,0.24177,0.050882,0
1651.3,54.424,18.775,-2.0072e-07,-0.74765,7.9931e-09,1709.5,50.708,11.111,0.013896,-0.00024976,0.24177,0.050882,0
1651.3,54.424,18.775,-2.0072e-07,-0.74765,7.9931e-09,1709.5,50.708,11.111,0.013896,-0.00024976,0.24177,0.050882,0
1651.3,54.424,18.775,-2.0072e-07,-0.74765,7.9931e-09,1709.5,50.708,11.111,0.013896,-0.00024976,0.24177,0.050882,0
1651.3,54.424,18.775,-2.0072e-07,-0.74765,7.9931e-09,1709.5,50.708,11.111,0.013896,-0.00024976,0.24177,0.050882,0
1651.3,54.424,18.775,-2.0072e-07,-0.74765,7.9931e-09,1709.9,50.709,11.111,0.028968,-0.00089584,0.39841,0.050499,0
1651.3,54.424,18.775,-2.0072e-07,-0.74765,7.9931e-09,1709.9,50.709,11.111,0.028968,-0.00089584,0.39841,0.050499,0
1651.3,54.424,18.775,-2.0072e-07,-0.74765,7.9931e-09,1709.9,50.709,11.111,0.028968,-0.00089584,0.39841,0.050499,0
1651.3,54.424,18.775,-2.0072e-07,-0.74765,7.9931e-09,1709.9,50.709,11.111,0.028968,-0.00089584,0.39841,0.050499,0
1651.3,54.424,18.775,-2.0072e-07,-0.74765,7.9931e-09,1709.9,50.709,11.111,0.028968,-0.00089584,0.39841,0.050499,0
1651.3,54.424,18.775,-2.0072e-07,-0.74765,7.9931e-09,1709.9,50.709,11.111,0.028968,-0.00089584,0.39841,0.050499,0
1652,54.424,18.745,-2.004e-07,-0.7478,7.9946e-09,1709.9,50.709,11.111,0.028968,-0.00089584,0.39841,0.051149,0
1653.5,54.424,18.685,-1.9976e-07,-0.74909,8.0084e-09,1710.8,50.713,11.111,0.08086,-0.0050649,0.7691,0.051688,0
1653.5,54.424,18.685,-1.9976e-07,-0.74909,8.0084e-09,1710.8,50.713,11.111,0.08086,-0.0050649,0.7691,0.051688,0
1655,54.424,18.625,-1.9912e-07,-0.75168,8.0361e-09,1711.7,50.723,11.11,0.16443,-0.016096,1.1709,0.052233,0
1655,54.424,18.625,-1.9912e-07,-0.75168,8.0361e-09,1712.2,50.731,11.109,0.21827,-0.025234,1.3704,0.051828,0
1656.1,54.424,18.58,-1.9863e-07,-0.75443,8.0655e-09,1712.2,50.731,11.109,0.21827,-0.025234,1.3704,0.052854,0
1656.1,54.424,18.58,-1.9863e-07,-0.75443,8.0655e-09,1712.2,50.731,11.109,0.21827,-0.025234,1.3704,0.052854,0
1656.1,54.424,18.58,-1.9863e-07,-0.75443,8.0655e-09,1712.8,50.747,11.107,0.31348,-0.044295,1.657,0.052232,0
1656.1,54.424,18.58,-1.9863e-07,-0.75443,8.0655e-09,1713.1,50.754,11.106,0.3489,-0.052155,1.7478,0.052027,0
1656.1,54.424,18.58,-1.9863e-07,-0.75443,8.0655e-09,1713.1,50.754,11.106,0.3489,-0.052155,1.7478,0.052027,0
1656.1,54.424,18.58,-1.9863e-07,-0.75443,8.0655e-09,1713.1,50.754,11.106,0.3489,-0.052155,1.7478,0.052027,0
1656.1,54.424,18.58,-1.9863e-07,-0.75443,8.0655e-09,1713.1,50.754,11.106,0.3489,-0.052155,1.7478,0.052027,0
1656.1,54.424,18.58,-1.9863e-07,-0.75443,8.0655e-09,1713.1,50.754,11.106,0.3489,-0.052155,1.7478,0.052027,0
1656.1,54.424,18.58,-1.9863e-07,-0.75443,8.0655e-09,1713.1,50.754,11.106,0.3489,-0.052155,1.7478,0.052027,0
1656.1,54.424,18.58,-1.9863e-07,-0.75443,8.0655e-09,1713.1,50.754,11.106,0.3489,-0.052155,1.7478,0.052027,0
1656.1,54.424,18.58,-1.9863e-07,-0.75443,8.0655e-09,1713.1,50.754,11.106,0.3489,-0.052155,1.7478,0.052027,0
1656.1,54.424,18.58,-1.9863e-07,-0.75443,8.0655e-09,1713.1,50.754,11.106,0.3489,-0.052155,1.7478,0.052027,0
1657.3,54.424,18.534,-1.9815e-07,-0.7578,8.1015e-09,1713.1,50.754,11.106,0.3489,-0.052155,1.7478,0.053059,0
1657.3,54.424,18.534,-1.9815e-07,-0.7578,8.1015e-09,1713.1,50.754,11.106,0.3489,-0.052155,1.7478,0.053059,0
1657.6,54.424,18.519,-1.9799e-07,-0.75905,8.1149e-09,1713.1,50.754,11.106,0.3489,-0.052155,1.7478,0.053411,0
1657.6,54.424,18.519,-1.9799e-07,-0.75905,8.1149e-09,1713.1,50.754,11.106,0.3489,-0.052155,1.7478,0.053411,0
1657.6,54.424,18.519,-1.9799e-07,-0.75905,8.1149e-09,1713.1,50.754,11.106,0.3489,-0.052155,1.7478,0.053411,0
1657.6,54.424,18.519,-1.9799e-07,-0.75905,8.1149e-09,1713.1,50.754,11.106,0.3489,-0.052155,1.7478,0.053411,0
1657.6,54.424,18.519,-1.9799e-07,-0.75905,8.1149e-09,1713.1,50.754,11.106,0.3489,-0.052155,1.7478,0.053411,0
1657.6,54.424,18.519,-1.9799e-07,-0.75905,8.1149e-09,1713.1,50.754,11.106,0.3489,-0.052155,1.7478,0.053411,0
1657.6,54.424,18.519,-1.9799e-07,-0.75905,8.1149e-09,1713.1,50.754,11.106,0.3489,-0.052155,1.7478,0.053411,0
1657.6,54.424,18.519,-1.9799e-07,-0.75905,8.1149e-09,1713.1,50.754,11.106,0.3489,-0.052155,1.7478,0.053411,0
1657.6,54.424,18.519,-1.9799e-07,-0.75905,8.1149e-09,1713.1,50.754,11.106,0.3489,-0.052155,1.7478,0.053411,0
1657.6,54.424,18.519,-1.9799e-07,-0.75905,8.1149e-09,1713.1,50.754,11.106,0.3489,-0.052155,1.7478,0.053411,0
1657.6,54.424,18.519,-1.9799e-07,-0.75905,8.1149e-09,1713.7,50.779,11.101,0.46533,-0.080287,2.0016,0.052772,0
1659.1,54.424,18.458,-1.9733e-07,-0.76468,8.1751e-09,1713.7,50.779,11.101,0.46533,-0.080287,2.0016,0.054191,0
1659.8,54.424,18.428,-1.9701e-07,-0.76784,8.2089e-09,1714.6,50.824,11.093,0.64174,-0.12775,2.2901,0.054025,0
1660.2,54.424,18.412,-1.9684e-07,-0.7695,8.2265e-09,1714.6,50.824,11.093,0.64174,-0.12775,2.2901,0.054388,0
1660.2,54.424,18.412,-1.9684e-07,-0.7695,8.2265e-09,1715.9,50.92,11.071,0.94149,-0.21517,2.6026,0.053051,0
1660.2,54.424,18.412,-1.9684e-07,-0.7695,8.2265e-09,1715.9,50.92,11.071,0.94149,-0.21517,2.6026,0.053051,0
1660.2,54.424,18.412,-1.9684e-07,-0.7695,8.2265e-09,1715.9,50.92,11.071,0.94149,-0.21517,2.6026,0.053051,0
1660.2,54.424,18.412,-1.9684e-07,-0.7695,8.2265e-09,1715.9,50.92,11.071,0.94149,-0.21517,2.6026,0.053051,0
1660.2,54.424,18.412,-1.9684e-07,-0.7695,8.2265e-09,1715.9,50.92,11.071,0.94149,-0.21517,2.6026,0.053051,0
1660.2,54.424,18.412,-1.9684e-07,-0.7695,8.2265e-09,1715.9,50.92,11.071,0.94149,-0.21517,2.6026,0.053051,0
1662,54.424,18.335,-1.9601e-07,-0.77848,8.3226e-09,1715.9,50.92,11.071,0.94149,-0.21517,2.6026,0.054848,0
1662,54.424,18.335,-1.9601e-07,-0.77848,8.3226e-09,1715.9,50.92,11.071,0.94149,-0.21517,2.6026,0.054848,0
1662,54.424,18.335,-1.9601e-07,-0.77848,8.3226e-09,1715.9,50.92,11.071,0.94149,-0.21517,2.6026,0.054848,0
1662,54.424,18.335,-1.9601e-07,-0.77848,8.3226e-09,1715.9,50.92,11.071,0.94149,-0.21517,2.6026,0.054848,0
1662,54.424,18.335,-1.9601e-07,-0.77848,8.3226e-09,1715.9,50.92,11.071,0.94149,-0.21517,2.6026,0.054848,0
1662,54.424,18.335,-1.9601e-07,-0.77848,8.3226e-09,1715.9,50.92,11.071,0.94149,-0.21517,2.6026,0.054848,0
1662,54.424,18.335,-1.9601e-07,-0.77848,8.3226e-09,1715.9,50.92,11.071,0.94149,-0.21517,2.6026,0.054848,0
1662,54.424,18.335,-1.9601e-07,-0.77848,8.3226e-09,1715.9,50.92,11.071,0.94149,-0.21517,2.6026,0.054848,0
1662,54.424,18.335,-1.9601e-07,-0.77848,8.3226e-09,1715.9,50.92,11.071,0.94149,-0.21517,2.6026,0.054848,0
1662,54.424,18.335,-1.9601e-07,-0.77848,8.3226e-09,1715.9,50.92,11.071,0.94149,-0.21517,2.6026,0.054848,0
1662,54.424,18.335,-1.9601e-07,-0.77848,8.3226e-09,1716.4,50.961,11.062,1.0481,-0.24684,2.6739,0.054382,0
1662,54.424,18.335,-1.9601e-07,-0.77848,8.3226e-09,1716.4,50.961,11.062,1.0481,-0.24684,2.6739,0.054382,0
1662,54.424,18.335,-1.9601e-07,-0.77848,8.3226e-09,1716.4,50.961,11.062,1.0481,-0.24684,2.6739,0.054382,0
1662,54.424,18.335,-1.9601e-07,-0.77848,8.3226e-09,1716.4,50.961,11.062,1.0481,-0.24684,2.6739,0.054382,0
1662,54.424,18.335,-1.9601e-07,-0.77848,8.3226e-09,1716.4,50.961,11.062,1.0481,-0.24684,2.6739,0.054382,0
1662,54.424,18.335,-1.9601e-07,-0.77848,8.3226e-09,1716.4,50.961,11.062,1.0481,-0.24684,2.6739,0.054382,0
1662,54.424,18.335,-1.9601e-07,-0.77848,8.3226e-09,1716.4,50.961,11.062,1.0481,-0.24684,2.6739,0.054382,0
1662,54.424,18.335,-1.9601e-07,-0.77848,8.3226e-09,1716.4,50.961,11.062,1.0481,-0.24684,2.6739,0.054382,0
1663.5,54.424,18.272,-1.9535e-07,-0.78645,8.4078e-09,1716.6,50.982,11.056,1.1024,-0.26287,2.7034,0.055635,0
1665,54.424,18.209,-1.9467e-07,-0.79502,8.4994e-09,1717.3,51.054,11.039,1.2677,-0.31092,2.7685,0.056434,0
1665,54.424,18.209,-1.9467e-07,-0.79502,8.4994e-09,1717.3,51.054,11.039,1.2677,-0.31092,2.7685,0.056434,0
1666.4,54.424,18.145,-1.9399e-07,-0.80412,8.5968e-09,1718.2,51.166,11.011,1.4915,-0.37249,2.8034,0.056987,0
1666.4,54.424,18.145,-1.9399e-07,-0.80412,8.5968e-09,1719,51.295,10.978,1.7151,-0.42779,2.7845,0.055962,0
1666.4,54.424,18.145,-1.9399e-07,-0.80412,8.5968e-09,1719,51.295,10.978,1.7151,-0.42779,2.7845,0.055962,0
1666.4,54.424,18.145,-1.9399e-07,-0.80412,8.5968e-09,1719,51.295,10.978,1.7151,-0.42779,2.7845,0.055962,0
1666.4,54.424,18.145,-1.9399e-07,-0.80412,8.5968e-09,1719,51.295,10.978,1.7151,-0.42779,2.7845,0.055962,0
1666.4,54.424,18.145,-1.9399e-07,-0.80412,8.5968e-09,1719,51.295,10.978,1.7151,-0.42779,2.7845,0.055962,0
1666.4,54.424,18.145,-1.9399e-07,-0.80412,8.5968e-09,1719,51.295,10.978,1.7151,-0.42779,2.7845,0.055962,0
1666.4,54.424,18.145,-1.9399e-07,-0.80412,8.5968e-09,1719,51.295,10.978,1.7151,-0.42779,2.7845,0.055962,0
1666.4,54.424,18.145,-1.9399e-07,-0.80412,8.5968e-09,1719,51.295,10.978,1.7151,-0.42779,2.7845,0.055962,0
1666.4,54.424,18.145,-1.9399e-07,-0.80412,8.5968e-09,1719,51.295,10.978,1.7151,-0.42779,2.7845,0.055962,0
1667.2,54.424,18.113,-1.9364e-07,-0.80887,8.6475e-09,1719,51.295,10.978,1.7151,-0.42779,2.7845,0.05674,0
1667.2,54.424,18.113,-1.9364e-07,-0.80887,8.6475e-09,1719,51.295,10.978,1.7151,-0.42779,2.7845,0.05674,0
1667.2,54.424,18.113,-1.9364e-07,-0.80887,8.6475e-09,1719,51.295,10.978,1.7151,-0.42779,2.7845,0.05674,0
1667.2,54.424,18.113,-1.9364e-07,-0.80887,8.6475e-09,1719,51.295,10.978,1.7151,-0.42779,2.7845,0.05674,0
1667.2,54.424,18.113,-1.9364e-07,-0.80887,8.6475e-09,1719,51.295,10.978,1.7151,-0.42779,2.7845,0.05674,0
1667.2,54.424,18.113,-1.9364e-07,-0.80887,8.6475e-09,1719,51.295,10.978,1.7151,-0.42779,2.7845,0.05674,0
1667.2,54.424,18.113,-1.9364e-07,-0.80887,8.6475e-09,1719,51.295,10.978,1.7151,-0.42779,2.7845,0.05674,0
1667.2,54.424,18.113,-1.9364e-07,-0.80887,8.6475e-09,1719,51.295,10.978,1.7151,-0.42779,2.7845,0.05674,0
1667.2,54.424,18.113,-1.9364e-07,-0.80887,8.6475e-09,1719,51.295,10.978,1.7151,-0.42779,2.7845,0.05674,0
1667.2,54.424,18.113,-1.9364e-07,-0.80887,8.6475e-09,1719,51.295,10.978,1.7151,-0.42779,2.7845,0.05674,0
1667.2,54.424,18.113,-1.9364e-07,-0.80887,8.6475e-09,1719.5,51.367,10.96,1.8256,-0.45208,2.7569,0.056224,0
1667.2,54.424,18.113,-1.9364e-07,-0.80887,8.6475e-09,1719.5,51.367,10.96,1.8256,-0.45208,2.7569,0.056224,0
1667.2,54.424,18.113,-1.9364e-07,-0.80887,8.6475e-09,1719.5,51.367,10.96,1.8256,-0.45208,2.7569,0.056224,0
1667.2,54.424,18.113,-1.9364e-07,-0.80887,8.6475e-09,1719.5,51.367,10.96,1.8256,-0.45208,2.7569,0.056224,0
1667.2,54.424,18.113,-1.9364e-07,-0.80887,8.6475e-09,1719.5,51.367,10.96,1.8256,-0.45208,2.7569,0.056224,0
1667.2,54.424,18.113,-1.9364e-07,-0.80887,8.6475e-09,1719.5,51.367,10.96,1.8256,-0.45208,2.7569,0.056224,0
1667.9,54.424,18.08,-1.9329e-07,-0.81372,8.6994e-09,1719.5,51.367,10.96,1.8256,-0.45208,2.7569,0.057008,0
1669.3,54.424,18.015,-1.9259e-07,-0.82376,8.8067e-09,1720.3,51.522,10.922,2.0417,-0.49235,2.6699,0.057546,0
1669.3,54.424,18.015,-1.9259e-07,-0.82376,8.8067e-09,1720.3,51.522,10.922,2.0417,-0.49235,2.6699,0.057546,0
1670.8,54.424,17.948,-1.9188e-07,-0.8342,8.9184e-09,1721.2,51.695,10.881,2.2487,-0.51999,2.5462,0.058088,0
1671.8,54.424,17.898,-1.9135e-07,-0.84227,9.0046e-09,1721.7,51.788,10.86,2.348,-0.52867,2.4724,0.058779,0
1671.8,54.424,17.898,-1.9135e-07,-0.84227,9.0046e-09,1722.3,51.934,10.828,2.4909,-0.53503,2.3491,0.057945,0
1671.8,54.424,17.898,-1.9135e-07,-0.84227,9.0046e-09,1722.3,51.934,10.828,2.4909,-0.53503,2.3491,0.057945,0
1671.8,54.424,17.898,-1.9135e-07,-0.84227,9.0046e-09,1722.5,51.984,10.818,2.5368,-0.53535,2.3049,0.057672,0
1671.8,54.424,17.898,-1.9135e-07,-0.84227,9.0046e-09,1722.5,51.984,10.818,2.5368,-0.53535,2.3049,0.057672,0
1671.8,54.424,17.898,-1.9135e-07,-0.84227,9.0046e-09,1722.5,51.984,10.818,2.5368,-0.53535,2.3049,0.057672,0
1671.8,54.424,17.898,-1.9135e-07,-0.84227,9.0046e-09,1722.5,51.984,10.818,2.5368,-0.53535,2.3049,0.057672,0
1671.8,54.424,17.898,-1.9135e-07,-0.84227,9.0046e-09,1722.5,51.984,10.818,2.5368,-0.53535,2.3049,0.057672,0
1671.8,54.424,17.898,-1.9135e-07,-0.84227,9.0046e-09,1722.5,51.984,10.818,2.5368,-0.53535,2.3049,0.057672,0
1671.8,54.424,17.898,-1.9135e-07,-0.84227,9.0046e-09,1722.5,51.984,10.818,2.5368,-0.53535,2.3049,0.057672,0
1671.8,54.424,17.898,-1.9135e-07,-0.84227,9.0046e-09,1722.5,51.984,10.818,2.5368,-0.53535,2.3049,0.057672,0
1671.8,54.424,17.898,-1.9135e-07,-0.84227,9.0046e-09,1722.5,51.984,10.818,2.5368,-0.53535,2.3049,0.057672,0
1672.9,54.424,17.847,-1.908e-07,-0.8505,9.0926e-09,1722.5,51.984,10.818,2.5368,-0.53535,2.3049,0.058914,0
1672.9,54.424,17.847,-1.908e-07,-0.8505,9.0926e-09,1722.5,51.984,10.818,2.5368,-0.53535,2.3049,0.058914,0
1672.9,54.424,17.847,-1.908e-07,-0.8505,9.0926e-09,1722.5,51.984,10.818,2.5368,-0.53535,2.3049,0.058914,0
1672.9,54.424,17.847,-1.908e-07,-0.8505,9.0926e-09,1722.5,51.984,10.818,2.5368,-0.53535,2.3049,0.058914,0
1672.9,54.424,17.847,-1.908e-07,-0.8505,9.0926e-09,1722.5,51.984,10.818,2.5368,-0.53535,2.3049,0.058914,0
1672.9,54.424,17.847,-1.908e-07,-0.8505,9.0926e-09,1722.5,51.984,10.818,2.5368,-0.53535,2.3049,0.058914,0
1672.9,54.424,17.847,-1.908e-07,-0.8505,9.0926e-09,1722.5,51.984,10.818,2.5368,-0.53535,2.3049,0.058914,0
1672.9,54.424,17.847,-1.908e-07,-0.8505,9.0926e-09,1722.5,51.984,10.818,2.5368,-0.53535,2.3049,0.058914,0
1672.9,54.424,17.847,-1.908e-07,-0.8505,9.0926e-09,1722.5,51.984,10.818,2.5368,-0.53535,2.3049,0.058914,0
1672.9,54.424,17.847,-1.908e-07,-0.8505,9.0926e-09,1722.5,51.984,10.818,2.5368,-0.53535,2.3049,0.058914,0
1672.9,54.424,17.847,-1.908e-07,-0.8505,9.0926e-09,1723,52.088,10.796,2.6258,-0.53329,2.2124,0.058354,0
1672.9,54.424,17.847,-1.908e-07,-0.8505,9.0926e-09,1723,52.088,10.796,2.6258,-0.53329,2.2124,0.058354,0
1672.9,54.424,17.847,-1.908e-07,-0.8505,9.0926e-09,1723,52.088,10.796,2.6258,-0.53329,2.2124,0.058354,0
1672.9,54.424,17.847,-1.908e-07,-0.8505,9.0926e-09,1723,52.088,10.796,2.6258,-0.53329,2.2124,0.058354,0
1672.9,54.424,17.847,-1.908e-07,-0.8505,9.0926e-09,1723,52.088,10.796,2.6258,-0.53329,2.2124,0.058354,0
1672.9,54.424,17.847,-1.908e-07,-0.8505,9.0926e-09,1723,52.088,10.796,2.6258,-0.53329,2.2124,0.058354,0
1673.6,54.424,17.813,-1.9044e-07,-0.85607,9.1521e-09,1723,52.088,10.796,2.6258,-0.53329,2.2124,0.059195,0
1675,54.424,17.744,-1.897e-07,-0.86738,9.273e-09,1723.8,52.305,10.755,2.792,-0.5185,2.0127,0.059767,0
1676.5,54.424,17.674,-1.8896e-07,-0.87884,9.3956e-09,1724.7,52.536,10.715,2.9413,-0.48991,1.7965,0.060355,0
1677.5,54.424,17.621,-1.8839e-07,-0.88748,9.4879e-09,1725.1,52.655,10.696,3.0092,-0.4707,1.6832,0.061104,0
1677.5,54.424,17.621,-1.8839e-07,-0.88748,9.4879e-09,1725.7,52.839,10.669,3.1023,-0.43608,1.5077,0.060226,0
1677.5,54.424,17.621,-1.8839e-07,-0.88748,9.4879e-09,1725.7,52.839,10.669,3.1023,-0.43608,1.5077,0.060226,0
1677.5,54.424,17.621,-1.8839e-07,-0.88748,9.4879e-09,1725.7,52.839,10.669,3.1023,-0.43608,1.5077,0.060226,0
1677.5,54.424,17.621,-1.8839e-07,-0.88748,9.4879e-09,1725.7,52.839,10.669,3.1023,-0.43608,1.5077,0.060226,0
1677.5,54.424,17.621,-1.8839e-07,-0.88748,9.4879e-09,1725.7,52.839,10.669,3.1023,-0.43608,1.5077,0.060226,0
1677.5,54.424,17.621,-1.8839e-07,-0.88748,9.4879e-09,1725.7,52.839,10.669,3.1023,-0.43608,1.5077,0.060226,0
1677.5,54.424,17.621,-1.8839e-07,-0.88748,9.4879e-09,1725.7,52.839,10.669,3.1023,-0.43608,1.5077,0.060226,0
1677.5,54.424,17.621,-1.8839e-07,-0.88748,9.4879e-09,1725.7,52.839,10.669,3.1023,-0.43608,1.5077,0.060226,0
1677.5,54.424,17.621,-1.8839e-07,-0.88748,9.4879e-09,1725.7,52.839,10.669,3.1023,-0.43608,1.5077,0.060226,0
1677.5,54.424,17.621,-1.8839e-07,-0.88748,9.4879e-09,1725.7,52.839,10.669,3.1023,-0.43608,1.5077,0.060226,0
1678.2,54.424,17.586,-1.8801e-07,-0.89323,9.5494e-09,1725.7,52.839,10.669,3.1023,-0.43608,1.5077,0.061117,0
1678.2,54.424,17.586,-1.8801e-07,-0.89323,9.5494e-09,1725.7,52.839,10.669,3.1023,-0.43608,1.5077,0.061117,0
1678.2,54.424,17.586,-1.8801e-07,-0.89323,9.5494e-09,1725.7,52.839,10.669,3.1023,-0.43608,1.5077,0.061117,0
1678.2,54.424,17.586,-1.8801e-07,-0.89323,9.5494e-09,1725.7,52.839,10.669,3.1023,-0.43608,1.5077,0.061117,0
1678.2,54.424,17.586,-1.8801e-07,-0.89323,9.5494e-09,1725.7,52.839,10.669,3.1023,-0.43608,1.5077,0.061117,0
1678.2,54.424,17.586,-1.8801e-07,-0.89323,9.5494e-09,1725.7,52.839,10.669,3.1023,-0.43608,1.5077,0.061117,0
1678.2,54.424,17.586,-1.8801e-07,-0.89323,9.5494e-09,1725.7,52.839,10.669,3.1023,-0.43608,1.5077,0.061117,0
1678.2,54.424,17.586,-1.8801e-07,-0.89323,9.5494e-09,1725.7,52.839,10.669,3.1023,-0.43608,1.5077,0.061117,0
1678.2,54.424,17.586,-1.8801e-07,-0.89323,9.5494e-09,1725.7,52.839,10.669,3.1023,-0.43608,1.5077,0.061117,0
1678.2,54.424,17.586,-1.8801e-07,-0.89323,9.5494e-09,1726.2,52.964,10.653,3.1584,-0.40936,1.3873,0.060532,0
1678.2,54.424,17.586,-1.8801e-07,-0.89323,9.5494e-09,1726.2,52.964,10.653,3.1584,-0.40936,1.3873,0.060532,0
1678.2,54.424,17.586,-1.8801e-07,-0.89323,9.5494e-09,1726.2,52.964,10.653,3.1584,-0.40936,1.3873,0.060532,0
1678.2,54.424,17.586,-1.8801e-07,-0.89323,9.5494e-09,1726.2,52.964,10.653,3.1584,-0.40936,1.3873,0.060532,0
1678.2,54.424,17.586,-1.8801e-07,-0.89323,9.5494e-09,1726.2,52.964,10.653,3.1584,-0.40936,1.3873,0.060532,0
1678.2,54.424,17.586,-1.8801e-07,-0.89323,9.5494e-09,1726.2,52.964,10.653,3.1584,-0.40936,1.3873,0.060532,0
1678.2,54.424,17.586,-1.8801e-07,-0.89323,9.5494e-09,1726.2,52.964,10.653,3.1584,-0.40936,1.3873,0.060532,0
1680,54.424,17.496,-1.8705e-07,-0.90748,9.7018e-09,1726.4,53.028,10.645,3.1847,-0.39496,1.3262,0.062519,0
1681,54.424,17.441,-1.8646e-07,-0.92105,9.8468e-09,1727.2,53.287,10.617,3.2771,-0.331,1.0762,0.062713,0
1682.1,54.424,17.385,-1.8586e-07,-0.94001,1.0049e-08,1728.1,53.553,10.594,3.349,-0.25796,0.81822,0.062922,0
1682.1,54.424,17.385,-1.8586e-07,-0.94001,1.0049e-08,1728.7,53.755,10.582,3.3892,-0.1982,0.62005,0.062033,0
1682.1,54.424,17.385,-1.8586e-07,-0.94001,1.0049e-08,1728.7,53.755,10.582,3.3892,-0.1982,0.62005,0.062033,0
1682.1,54.424,17.385,-1.8586e-07,-0.94001,1.0049e-08,1728.7,53.755,10.582,3.3892,-0.1982,0.62005,0.062033,0
1682.1,54.424,17.385,-1.8586e-07,-0.94001,1.0049e-08,1728.7,53.755,10.582,3.3892,-0.1982,0.62005,0.062033,0
1682.1,54.424,17.385,-1.8586e-07,-0.94001,1.0049e-08,1728.9,53.823,10.578,3.4,-0.17748,0.55317,0.061744,0
1682.1,54.424,17.385,-1.8586e-07,-0.94001,1.0049e-08,1728.9,53.823,10.578,3.4,-0.17748,0.55317,0.061744,0
1682.1,54.424,17.385,-1.8586e-07,-0.94001,1.0049e-08,1728.9,53.823,10.578,3.4,-0.17748,0.55317,0.061744,0
1682.1,54.424,17.385,-1.8586e-07,-0.94001,1.0049e-08,1728.9,53.823,10.578,3.4,-0.17748,0.55317,0.061744,0
1682.1,54.424,17.385,-1.8586e-07,-0.94001,1.0049e-08,1728.9,53.823,10.578,3.4,-0.17748,0.55317,0.061744,0
1682.1,54.424,17.385,-1.8586e-07,-0.94001,1.0049e-08,1728.9,53.823,10.578,3.4,-0.17748,0.55317,0.061744,0
1682.1,54.424,17.385,-1.8586e-07,-0.94001,1.0049e-08,1728.9,53.823,10.578,3.4,-0.17748,0.55317,0.061744,0
1682.1,54.424,17.385,-1.8586e-07,-0.94001,1.0049e-08,1728.9,53.823,10.578,3.4,-0.17748,0.55317,0.061744,0
1682.1,54.424,17.385,-1.8586e-07,-0.94001,1.0049e-08,1728.9,53.823,10.578,3.4,-0.17748,0.55317,0.061744,0
1683.5,54.424,17.309,-1.8505e-07,-0.9637,1.0303e-08,1728.9,53.823,10.578,3.4,-0.17748,0.55317,0.063628,0
1683.5,54.424,17.309,-1.8505e-07,-0.9637,1.0303e-08,1728.9,53.823,10.578,3.4,-0.17748,0.55317,0.063628,0
1683.5,54.424,17.309,-1.8505e-07,-0.9637,1.0303e-08,1728.9,53.823,10.578,3.4,-0.17748,0.55317,0.063628,0
1683.5,54.424,17.309,-1.8505e-07,-0.9637,1.0303e-08,1728.9,53.823,10.578,3.4,-0.17748,0.55317,0.063628,0
1683.5,54.424,17.309,-1.8505e-07,-0.9637,1.0303e-08,1728.9,53.823,10.578,3.4,-0.17748,0.55317,0.063628,0
1683.5,54.424,17.309,-1.8505e-07,-0.9637,1.0303e-08,1728.9,53.823,10.578,3.4,-0.17748,0.55317,0.063628,0
1683.5,54.424,17.309,-1.8505e-07,-0.9637,1.0303e-08,1728.9,53.823,10.578,3.4,-0.17748,0.55317,0.063628,0
1683.5,54.424,17.309,-1.8505e-07,-0.9637,1.0303e-08,1728.9,53.823,10.578,3.4,-0.17748,0.55317,0.063628,0
1684.1,54.424,17.27,-1.8463e-07,-0.97481,1.0422e-08,1729.3,53.959,10.573,3.4174,-0.135,0.41822,0.063992,0
1684.1,54.424,17.27,-1.8463e-07,-0.97481,1.0422e-08,1729.3,53.959,10.573,3.4174,-0.135,0.41822,0.063992,0
1685.5,54.424,17.191,-1.8379e-07,-0.9955,1.0643e-08,1729.8,54.096,10.569,3.4293,-0.091346,0.28177,0.065364,0
1685.5,54.424,17.191,-1.8379e-07,-0.9955,1.0643e-08,1729.8,54.096,10.569,3.4293,-0.091346,0.28177,0.065364,0
1686.9,54.424,17.111,-1.8293e-07,-1.0141,1.0841e-08,1730.6,54.371,10.566,3.4367,-0.0015082,0.0046373,0.066146,0
1686.9,54.424,17.111,-1.8293e-07,-1.0141,1.0841e-08,1730.6,54.371,10.566,3.4367,-0.0015082,0.0046373,0.066146,0
1686.9,54.424,17.111,-1.8293e-07,-1.0141,1.0841e-08,1730.6,54.371,10.566,3.4367,-0.0015082,0.0046373,0.066146,0
1686.9,54.424,17.111,-1.8293e-07,-1.0141,1.0841e-08,1730.6,54.371,10.566,3.4367,-0.0015082,0.0046373,0.066146,0
1686.9,54.424,17.111,-1.8293e-07,-1.0141,1.0841e-08,1730.6,54.371,10.566,3.4367,-0.0015082,0.0046373,0.066146,0
1686.9,54.424,17.111,-1.8293e-07,-1.0141,1.0841e-08,1730.6,54.371,10.566,3.4367,-0.0015082,0.0046373,0.066146,0
1686.9,54.424,17.111,-1.8293e-07,-1.0141,1.0841e-08,1730.6,54.371,10.566,3.4367,-0.0015082,0.0046373,0.066146,0
1686.9,54.424,17.111,-1.8293e-07,-1.0141,1.0841e-08,1730.6,54.371,10.566,3.4367,-0.0015082,0.0046373,0.066146,0
1686.9,54.424,17.111,-1.8293e-07,-1.0141,1.0841e-08,1731.5,54.646,10.571,3.4216,0.089931,-0.2776,0.064906,0
1686.9,54.424,17.111,-1.8293e-07,-1.0141,1.0841e-08,1731.5,54.646,10.571,3.4216,0.089931,-0.2776,0.064906,0
1686.9,54.424,17.111,-1.8293e-07,-1.0141,1.0841e-08,1731.5,54.646,10.571,3.4216,0.089931,-0.2776,0.064906,0
1686.9,54.424,17.111,-1.8293e-07,-1.0141,1.0841e-08,1731.5,54.646,10.571,3.4216,0.089931,-0.2776,0.064906,0
1686.9,54.424,17.111,-1.8293e-07,-1.0141,1.0841e-08,1731.5,54.646,10.571,3.4216,0.089931,-0.2776,0.064906,0
1686.9,54.424,17.111,-1.8293e-07,-1.0141,1.0841e-08,1731.5,54.646,10.571,3.4216,0.089931,-0.2776,0.064906,0
1686.9,54.424,17.111,-1.8293e-07,-1.0141,1.0841e-08,1731.7,54.714,10.574,3.4142,0.11278,-0.34887,0.064606,0
1686.9,54.424,17.111,-1.8293e-07,-1.0141,1.0841e-08,1731.7,54.714,10.574,3.4142,0.11278,-0.34887,0.064606,0
1686.9,54.424,17.111,-1.8293e-07,-1.0141,1.0841e-08,1731.7,54.714,10.574,3.4142,0.11278,-0.34887,0.064606,0
1686.9,54.424,17.111,-1.8293e-07,-1.0141,1.0841e-08,1731.7,54.714,10.574,3.4142,0.11278,-0.34887,0.064606,0
1686.9,54.424,17.111,-1.8293e-07,-1.0141,1.0841e-08,1731.7,54.714,10.574,3.4142,0.11278,-0.34887,0.064606,0
1686.9,54.424,17.111,-1.8293e-07,-1.0141,1.0841e-08,1731.7,54.714,10.574,3.4142,0.11278,-0.34887,0.064606,0
1686.9,54.424,17.111,-1.8293e-07,-1.0141,1.0841e-08,1731.7,54.714,10.574,3.4142,0.11278,-0.34887,0.064606,0
1688.9,54.424,16.988,-1.8162e-07,-1.0378,1.1095e-08,1731.9,54.782,10.576,3.4055,0.13555,-0.42041,0.067374,0
1688.9,54.424,16.988,-1.8162e-07,-1.0378,1.1095e-08,1731.9,54.782,10.576,3.4055,0.13555,-0.42041,0.067374,0
1689.3,54.424,16.967,-1.8139e-07,-1.0412,1.1131e-08,1731.9,54.782,10.576,3.4055,0.13555,-0.42041,0.067911,0
1689.3,54.424,16.967,-1.8139e-07,-1.0412,1.1131e-08,1731.9,54.782,10.576,3.4055,0.13555,-0.42041,0.067911,0
1690.3,54.424,16.904,-1.8072e-07,-1.0506,1.1232e-08,1733.2,55.186,10.603,3.3226,0.26841,-0.85412,0.067584,0
1690.3,54.424,16.904,-1.8072e-07,-1.0506,1.1232e-08,1733.2,55.186,10.603,3.3226,0.26841,-0.85412,0.067584,0
1690.3,54.424,16.904,-1.8072e-07,-1.0506,1.1232e-08,1734,55.448,10.629,3.2382,0.3505,-1.146,0.066345,0
1690.3,54.424,16.904,-1.8072e-07,-1.0506,1.1232e-08,1734,55.448,10.629,3.2382,0.3505,-1.146,0.066345,0
1690.3,54.424,16.904,-1.8072e-07,-1.0506,1.1232e-08,1734,55.448,10.629,3.2382,0.3505,-1.146,0.066345,0
1690.3,54.424,16.904,-1.8072e-07,-1.0506,1.1232e-08,1734,55.448,10.629,3.2382,0.3505,-1.146,0.066345,0
1690.3,54.424,16.904,-1.8072e-07,-1.0506,1.1232e-08,1734,55.448,10.629,3.2382,0.3505,-1.146,0.066345,0
1691.6,54.424,16.82,-1.7982e-07,-1.061,1.1343e-08,1734,55.448,10.629,3.2382,0.3505,-1.146,0.068457,0
1692,54.424,16.799,-1.7959e-07,-1.0632,1.1367e-08,1734,55.448,10.629,3.2382,0.3505,-1.146,0.069004,0
1692,54.424,16.799,-1.7959e-07,-1.0632,1.1367e-08,1734,55.448,10.629,3.2382,0.3505,-1.146,0.069004,0
1692,54.424,16.799,-1.7959e-07,-1.0632,1.1367e-08,1734,55.448,10.629,3.2382,0.3505,-1.146,0.069004,0
1692,54.424,16.799,-1.7959e-07,-1.0632,1.1367e-08,1734,55.448,10.629,3.2382,0.3505,-1.146,0.069004,0
1692,54.424,16.799,-1.7959e-07,-1.0632,1.1367e-08,1734,55.448,10.629,3.2382,0.3505,-1.146,0.069004,0
1692,54.424,16.799,-1.7959e-07,-1.0632,1.1367e-08,1734,55.448,10.629,3.2382,0.3505,-1.146,0.069004,0
1692,54.424,16.799,-1.7959e-07,-1.0632,1.1367e-08,1734,55.448,10.629,3.2382,0.3505,-1.146,0.069004,0
1692,54.424,16.799,-1.7959e-07,-1.0632,1.1367e-08,1734,55.448,10.629,3.2382,0.3505,-1.146,0.069004,0
1692.3,54.424,16.777,-1.7936e-07,-1.0653,1.1389e-08,1734,55.448,10.629,3.2382,0.3505,-1.146,0.069559,0
1693,54.424,16.735,-1.7891e-07,-1.0689,1.1427e-08,1734,55.448,10.629,3.2382,0.3505,-1.146,0.070695,0
1693.3,54.424,16.713,-1.7868e-07,-1.0705,1.1444e-08,1734,55.448,10.629,3.2382,0.3505,-1.146,0.071275,0
1693.3,54.424,16.713,-1.7868e-07,-1.0705,1.1444e-08,1734,55.448,10.629,3.2382,0.3505,-1.146,0.071275,0
1693.7,54.424,16.692,-1.7845e-07,-1.0719,1.1459e-08,1734,55.448,10.629,3.2382,0.3505,-1.146,0.071865,0
1693.7,54.424,16.692,-1.7845e-07,-1.0719,1.1459e-08,1736.1,56.065,10.719,2.9253,0.51425,-1.8714,0.068518,0
1693.7,54.424,16.692,-1.7845e-07,-1.0719,1.1459e-08,1736.1,56.065,10.719,2.9253,0.51425,-1.8714,0.068518,0
1693.7,54.424,16.692,-1.7845e-07,-1.0719,1.1459e-08,1736.1,56.065,10.719,2.9253,0.51425,-1.8714,0.068518,0
1693.7,54.424,16.692,-1.7845e-07,-1.0719,1.1459e-08,1736.1,56.065,10.719,2.9253,0.51425,-1.8714,0.068518,0
1693.7,54.424,16.692,-1.7845e-07,-1.0719,1.1459e-08,1736.1,56.065,10.719,2.9253,0.51425,-1.8714,0.068518,0
1693.7,54.424,16.692,-1.7845e-07,-1.0719,1.1459e-08,1736.1,56.065,10.719,2.9253,0.51425,-1.8714,0.068518,0
