12176,54.3,19.996,0,0.078946,0,12395,50.923,0,0,0,0,0.0077814,0
12176,54.3,19.996,0,0.078946,0,12395,50.923,0,0,0,0,0.0077814,0
12176,54.3,19.996,0,0.078946,0,12395,50.923,0,0,0,0,0.0077814,0
12176,54.3,19.996,0,0.078946,0,12395,50.923,0,0,0,0,0.0077814,0
12176,54.3,19.996,0,0.078946,0,12395,50.923,0,0,0,0,0.0077814,0
12176,54.3,19.996,0,0.078946,0,12395,50.923,0,0,0,0,0.0077814,0
12176,54.3,19.996,0,0.078946,0,12395,50.923,0,0,0,0,0.0077814,0
12176,54.3,19.996,0,0.078946,0,12395,50.923,0,0,0,0,0.0077814,0
12176,54.3,19.996,0,0.078946,0,12395,50.923,0,0,0,0,0.0077814,0
12176,54.3,19.996,0,0.078946,0,12395,50.923,0,0,0,0,0.0077814,0
12176,54.3,19.996,0,0.078946,0,12395,50.923,0,0,0,0,0.0077814,0
12176,54.3,19.996,0,0.078946,0,12395,50.923,0,0,0,0,0.0077814,0
12177,54.3,19.999,0,0.077153,0,12395,50.923,0,0,0,0,0.0078099,0
12177,54.3,19.999,0,0.077153,0,12395,50.923,0,0,0,0,0.0078099,0
12179,54.3,20.005,0,0.073685,0,12395,50.923,0,0,0,0,0.0078676,0
12179,54.3,20.005,0,0.073685,0,12395,50.923,0,0,0,0,0.0078676,0
12179,54.3,20.005,0,0.073685,0,12395,50.923,0,0,0,0,0.0078676,0
12179,54.3,20.005,0,0.073685,0,12395,50.923,0,0,0,0,0.0078676,0
12179,54.3,20.005,0,0.073685,0,12395,50.923,0,0,0,0,0.0078676,0
12179,54.3,20.005,0,0.073685,0,12395,50.923,0,0,0,0,0.0078676,0
12179,54.3,20.005,0,0.073685,0,12395,50.923,0,0,0,0,0.0078676,0
12179,54.3,20.005,0,0.073685,0,12395,50.923,0,0,0,0,0.0078676,0
12182,54.3,20.015,0,0.06797,0,12395,50.923,0,0,0,0,0.0079706,0
12182,54.3,20.015,0,0.06797,0,12395,50.923,0,0,0,0,0.0079706,0
12182,54.3,20.015,0,0.06797,0,12395,50.923,0,0,0,0,0.0079706,0
12182,54.3,20.017,0,0.067189,0,12395,50.923,0,0,0,0,0.0079855,0
12182,54.3,20.017,0,0.067189,0,12395,50.923,0,0,0,0,0.0079855,0
12182,54.3,20.017,0,0.067189,0,12395,50.923,0,0,0,0,0.0079855,0
12183,54.3,20.02,0,0.064894,0,12395,50.923,0,0,0,0,0.0080307,0
12183,54.3,20.02,0,0.064894,0,12395,50.923,0,0,0,0,0.0080307,0
12183,54.3,20.02,0,0.064894,0,12395,50.923,0,0,0,0,0.0080307,0
12183,54.3,20.02,0,0.064894,0,12395,50.923,0,0,0,0,0.0080307,0
12183,54.3,20.02,0,0.064894,0,12395,50.923,0,0,0,0,0.0080307,0
12183,54.3,20.02,0,0.064894,0,12395,50.923,0,0,0,0,0.0080307,0
12183,54.3,20.02,0,0.064894,0,12395,50.923,0,0,0,0,0.0080307,0
12183,54.3,20.02,0,0.064894,0,12395,50.923,0,0,0,0,0.0080307,0
12184,54.3,20.023,0,0.063406,0,12395,50.923,0,0,0,0,0.0080611,0
12184,54.3,20.023,0,0.063406,0,12395,50.923,0,0,0,0,0.0080611,0
12184,54.3,20.023,0,0.063406,0,12395,50.923,0,0,0,0,0.0080611,0
12184,54.3,20.023,0,0.063406,0,12395,50.923,0,0,0,0,0.0080611,0
12184,54.3,20.023,0,0.063406,0,12395,50.923,0,0,0,0,0.0080611,0
12184,54.3,20.023,0,0.063406,0,12395,50.923,0,0,0,0,0.0080611,0
12184,54.3,20.023,0,0.063406,0,12395,50.923,0,0,0,0,0.0080611,0
12184,54.3,20.023,0,0.063406,0,12395,50.923,0,0,0,0,0.0080611,0
12185,54.3,20.026,0,0.061948,0,12395,50.923,0,0,0,0,0.0080917,0
12185,54.3,20.026,0,0.061948,0,12395,50.923,0,0,0,0,0.0080917,0
12185,54.3,20.026,0,0.061948,0,12395,50.923,0,0,0,0,0.0080917,0
12185,54.3,20.026,0,0.061948,0,12395,50.923,0,0,0,0,0.0080917,0
12185,54.3,20.026,0,0.061948,0,12395,50.923,0,0,0,0,0.0080917,0
12185,54.3,20.026,0,0.061948,0,12395,50.923,0,0,0,0,0.0080917,0
12185,54.3,20.026,0,0.061948,0,12395,50.923,0,0,0,0,0.0080917,0
12186,54.3,20.03,0,0.059127,0,12395,50.923,0,0,0,0,0.0081537,0
12186,54.3,20.03,0,0.059127,0,12395,50.923,0,0,0,0,0.0081537,0
12186,54.3,20.03,0,0.059127,0,12395,50.923,0,0,0,0,0.0081537,0
12187,54.3,20.032,0,0.05844,0,12395,50.923,0,0,0,0,0.0081694,0
12187,54.3,20.032,0,0.05844,0,12395,50.923,0,0,0,0,0.0081694,0
12187,54.3,20.032,0,0.05844,0,12395,50.923,0,0,0,0,0.0081694,0
12188,54.3,20.035,0,0.056424,0,12395,50.923,0,0,0,0,0.0082167,0
12188,54.3,20.035,0,0.056424,0,12395,50.923,0,0,0,0,0.0082167,0
12188,54.3,20.035,0,0.056424,0,12395,50.923,0,0,0,0,0.0082167,0
12188,54.3,20.035,0,0.056424,0,12395,50.923,0,0,0,0,0.0082167,0
12190,54.3,20.041,0,0.053202,0,12395,50.923,0,0,0,0,0.0082968,0
12190,54.3,20.041,0,0.053202,0,12395,50.923,0,0,0,0,0.0082968,0
12190,54.3,20.041,0,0.053202,0,12395,50.923,0,0,0,0,0.0082968,0
12190,54.3,20.041,0,0.053202,0,12395,50.923,0,0,0,0,0.0082968,0
12190,54.3,20.041,0,0.053202,0,12395,50.923,0,0,0,0,0.0082968,0
12190,54.3,20.041,0,0.053202,0,12395,50.923,0,0,0,0,0.0082968,0
12190,54.3,20.041,0,0.053202,0,12395,50.923,0,0,0,0,0.0082968,0
12190,54.3,20.041,0,0.053202,0,12395,50.923,0,0,0,0,0.0082968,0
12190,54.3,20.041,0,0.053202,0,12395,50.923,0,0,0,0,0.0082968,0
12190,54.3,20.041,0,0.053202,0,12395,50.923,0,0,0,0,0.0082968,0
12190,54.3,20.041,0,0.053202,0,12395,50.923,0,0,0,0,0.0082968,0
12190,54.3,20.041,0,0.053202,0,12395,50.923,0,0,0,0,0.0082968,0
12190,54.3,20.041,0,0.053202,0,12395,50.923,0,0,0,0,0.0082968,0
12190,54.3,20.041,0,0.053202,0,12395,50.923,0,0,0,0,0.0082968,0
12190,54.3,20.041,0,0.053202,0,12395,50.923,0,0,0,0,0.0082968,0
12190,54.3,20.041,0,0.053202,0,12395,50.923,0,0,0,0,0.0082968,0
12190,54.3,20.041,0,0.053202,0,12395,50.923,0,0,0,0,0.0082968,0
12192,54.3,20.047,0,0.049553,0,12395,50.923,0,0,0,0,0.0083951,0
12192,54.3,20.047,0,0.049553,0,12395,50.923,0,0,0,0,0.0083951,0
12192,54.3,20.047,0,0.049553,0,12395,50.923,0,0,0,0,0.0083951,0
12192,54.3,20.047,0,0.049553,0,12395,50.923,0,0,0,0,0.0083951,0
12192,54.3,20.047,0,0.049553,0,12395,50.923,0,0,0,0,0.0083951,0
12194,54.3,20.051,0,0.046683,0,12395,50.923,0,0,0,0,0.0084787,0
12194,54.3,20.051,0,0.046683,0,12395,50.923,0,0,0,0,0.0084787,0
12194,54.3,20.051,0,0.046683,0,12395,50.923,0,0,0,0,0.0084787,0
12194,54.3,20.051,0,0.046683,0,12395,50.923,0,0,0,0,0.0084787,0
12194,54.3,20.051,0,0.046683,0,12395,50.923,0,0,0,0,0.0084787,0
12194,54.3,20.051,0,0.046683,0,12395,50.923,0,0,0,0,0.0084787,0
12194,54.3,20.051,0,0.046683,0,12395,50.923,0,0,0,0,0.0084787,0
12194,54.3,20.051,0,0.046683,0,12395,50.923,0,0,0,0,0.0084787,0
12194,54.3,20.051,0,0.046683,0,12395,50.923,0,0,0,0,0.0084787,0
12194,54.3,20.051,0,0.046683,0,12395,50.923,0,0,0,0,0.0084787,0
12194,54.3,20.051,0,0.046683,0,12395,50.923,0,0,0,0,0.0084787,0
12196,54.3,20.056,0,0.043958,0,12395,50.923,0,0,0,0,0.0085641,0
12197,54.3,20.057,0,0.04343,0,12395,50.923,0,0,0,0,0.0085814,0
12197,54.3,20.057,0,0.04343,0,12395,50.923,0,0,0,0,0.0085814,0
12197,54.3,20.058,0,0.042906,0,12395,50.923,0,0,0,0,0.0085988,0
12197,54.3,20.058,0,0.042906,0,12395,50.923,0,0,0,0,0.0085988,0
12197,54.3,20.058,0,0.042906,0,12395,50.923,0,0,0,0,0.0085988,0
12197,54.3,20.058,0,0.042906,0,12395,50.923,0,0,0,0,0.0085988,0
12197,54.3,20.058,0,0.042906,0,12395,50.923,0,0,0,0,0.0085988,0
12197,54.3,20.058,0,0.042906,0,12395,50.923,0,0,0,0,0.0085988,0
12197,54.3,20.058,0,0.042906,0,12395,50.923,0,0,0,0,0.0085988,0
12197,54.3,20.058,0,0.042906,0,12395,50.923,0,0,0,0,0.0085988,0
12197,54.3,20.058,0,0.042906,0,12395,50.923,0,0,0,0,0.0085988,0
12197,54.3,20.058,0,0.042906,0,12395,50.923,0,0,0,0,0.0085988,0
12198,54.3,20.06,0,0.041369,0,12395,50.923,0,0,0,0,0.0086513,0
12198,54.3,20.06,0,0.041369,0,12395,50.923,0,0,0,0,0.0086513,0
12198,54.3,20.06,0,0.041369,0,12395,50.923,0,0,0,0,0.0086513,0
12198,54.3,20.06,0,0.041369,0,12395,50.923,0,0,0,0,0.0086513,0
12198,54.3,20.06,0,0.041369,0,12395,50.923,0,0,0,0,0.0086513,0
12198,54.3,20.06,0,0.041369,0,12395,50.923,0,0,0,0,0.0086513,0
12198,54.3,20.06,0,0.041369,0,12395,50.923,0,0,0,0,0.0086513,0
12198,54.3,20.06,0,0.041369,0,12395,50.923,0,0,0,0,0.0086513,0
12198,54.3,20.06,0,0.041369,0,12395,50.923,0,0,0,0,0.0086513,0
12198,54.3,20.06,0,0.041369,0,12395,50.923,0,0,0,0,0.0086513,0
12198,54.3,20.06,0,0.041369,0,12395,50.923,0,0,0,0,0.0086513,0
12200,54.3,20.064,0,0.039391,0,12395,50.923,0,0,0,0,0.0087223,0
12200,54.3,20.064,0,0.038908,0,12395,50.923,0,0,0,0,0.0087402,0
12200,54.3,20.064,0,0.038908,0,12395,50.923,0,0,0,0,0.0087402,0
12200,54.3,20.064,0,0.038908,0,12395,50.923,0,0,0,0,0.0087402,0
12201,54.3,20.065,0,0.03843,0,12395,50.923,0,0,0,0,0.0087583,0
12201,54.3,20.065,0,0.03843,0,12395,50.923,0,0,0,0,0.0087583,0
12201,54.3,20.065,0,0.03843,0,12395,50.923,0,0,0,0,0.0087583,0
12201,54.3,20.065,0,0.03843,0,12395,50.923,0,0,0,0,0.0087583,0
12201,54.3,20.065,0,0.03843,0,12395,50.923,0,0,0,0,0.0087583,0
12201,54.3,20.065,0,0.03843,0,12395,50.923,0,0,0,0,0.0087583,0
12201,54.3,20.065,0,0.03843,0,12395,50.923,0,0,0,0,0.0087583,0
12201,54.3,20.065,0,0.03843,0,12395,50.923,0,0,0,0,0.0087583,0
12201,54.3,20.065,0,0.03843,0,12395,50.923,0,0,0,0,0.0087583,0
12201,54.3,20.065,0,0.03843,0,12395,50.923,0,0,0,0,0.0087583,0
12201,54.3,20.065,0,0.03843,0,12395,50.923,0,0,0,0,0.0087583,0
12203,54.3,20.07,0,0.035664,0,12395,50.923,0,0,0,0,0.0088679,0
12204,54.3,20.07,0,0.035219,0,12395,50.923,0,0,0,0,0.0088865,0
12204,54.3,20.07,0,0.035219,0,12395,50.923,0,0,0,0,0.0088865,0
12204,54.3,20.07,0,0.035219,0,12395,50.923,0,0,0,0,0.0088865,0
12204,54.3,20.072,0,0.034341,0,12395,50.923,0,0,0,0,0.0089238,0
12205,54.3,20.072,0,0.033909,0,12395,50.923,0,0,0,0,0.0089426,0
12205,54.3,20.072,0,0.033909,0,12395,50.923,0,0,0,0,0.0089426,0
12205,54.3,20.072,0,0.033909,0,12395,50.923,0,0,0,0,0.0089426,0
12205,54.3,20.072,0,0.033909,0,12395,50.923,0,0,0,0,0.0089426,0
12205,54.3,20.072,0,0.033909,0,12395,50.923,0,0,0,0,0.0089426,0
12205,54.3,20.072,0,0.033909,0,12395,50.923,0,0,0,0,0.0089426,0
12205,54.3,20.072,0,0.033909,0,12395,50.923,0,0,0,0,0.0089426,0
12205,54.3,20.072,0,0.033909,0,12395,50.923,0,0,0,0,0.0089426,0
12206,54.3,20.075,0,0.032223,0,12395,50.923,0,0,0,0,0.0090186,0
12206,54.3,20.075,0,0.032223,0,12395,50.923,0,0,0,0,0.0090186,0
12206,54.3,20.075,0,0.032223,0,12395,50.923,0,0,0,0,0.0090186,0
12206,54.3,20.075,0,0.032223,0,12395,50.923,0,0,0,0,0.0090186,0
12206,54.3,20.075,0,0.032223,0,12395,50.923,0,0,0,0,0.0090186,0
12206,54.3,20.075,0,0.032223,0,12395,50.923,0,0,0,0,0.0090186,0
12207,54.3,20.076,0,0.031812,0,12395,50.923,0,0,0,0,0.0090378,0
12207,54.3,20.076,0,0.031812,0,12395,50.923,0,0,0,0,0.0090378,0
12207,54.3,20.076,0,0.031812,0,12395,50.923,0,0,0,0,0.0090378,0
12207,54.3,20.076,0,0.031812,0,12395,50.923,0,0,0,0,0.0090378,0
12208,54.3,20.077,0,0.030601,0,12395,50.923,0,0,0,0,0.0090958,0
12208,54.3,20.077,0,0.030601,0,12395,50.923,0,0,0,0,0.0090958,0
12208,54.3,20.078,0,0.030206,0,12395,50.923,0,0,0,0,0.0091153,0
12208,54.3,20.078,0,0.030206,0,12395,50.923,0,0,0,0,0.0091153,0
12210,54.3,20.08,0,0.02904,0,12395,50.923,0,0,0,0,0.0091744,0
12210,54.3,20.08,0,0.02904,0,12395,50.923,0,0,0,0,0.0091744,0
12210,54.3,20.08,0,0.02904,0,12395,50.923,0,0,0,0,0.0091744,0
12210,54.3,20.08,0,0.02904,0,12395,50.923,0,0,0,0,0.0091744,0
12210,54.3,20.08,0,0.02904,0,12395,50.923,0,0,0,0,0.0091744,0
12210,54.3,20.08,0,0.02904,0,12395,50.923,0,0,0,0,0.0091744,0
12210,54.3,20.08,0,0.02904,0,12395,50.923,0,0,0,0,0.0091744,0
12210,54.3,20.08,0,0.02904,0,12395,50.923,0,0,0,0,0.0091744,0
12211,54.3,20.082,0,0.027535,0,12395,50.923,0,0,0,0,0.0092544,0
12211,54.3,20.082,0,0.027535,0,12395,50.923,0,0,0,0,0.0092544,0
12211,54.3,20.082,0,0.027535,0,12395,50.923,0,0,0,0,0.0092544,0
12211,54.3,20.082,0,0.027535,0,12395,50.923,0,0,0,0,0.0092544,0
12212,54.3,20.083,0,0.027168,0,12395,50.923,0,0,0,0,0.0092746,0
12212,54.3,20.083,0,0.027168,0,12395,50.923,0,0,0,0,0.0092746,0
12212,54.3,20.083,0,0.027168,0,12395,50.923,0,0,0,0,0.0092746,0
12212,54.3,20.084,0,0.026444,0,12395,50.923,0,0,0,0,0.0093153,0
12212,54.3,20.084,0,0.026444,0,12395,50.923,0,0,0,0,0.0093153,0
12212,54.3,20.084,0,0.026444,0,12395,50.923,0,0,0,0,0.0093153,0
12212,54.3,20.084,0,0.026444,0,12395,50.923,0,0,0,0,0.0093153,0
12212,54.3,20.084,0,0.026444,0,12395,50.923,0,0,0,0,0.0093153,0
12212,54.3,20.084,0,0.026444,0,12395,50.923,0,0,0,0,0.0093153,0
12213,54.3,20.084,0,0.026088,0,12395,50.923,0,0,0,0,0.0093358,0
12214,54.3,20.085,0,0.025385,0,12395,50.923,0,0,0,0,0.0093771,0
12214,54.3,20.085,0,0.025385,0,12395,50.923,0,0,0,0,0.0093771,0
12214,54.3,20.085,0,0.025385,0,12395,50.923,0,0,0,0,0.0093771,0
12214,54.3,20.085,0,0.025385,0,12395,50.923,0,0,0,0,0.0093771,0
12214,54.3,20.086,0,0.024695,0,12395,50.923,0,0,0,0,0.0094187,0
12214,54.3,20.086,0,0.024695,0,12395,50.923,0,0,0,0,0.0094187,0
12214,54.3,20.086,0,0.024695,0,12395,50.923,0,0,0,0,0.0094187,0
12214,54.3,20.086,0,0.024695,0,12395,50.923,0,0,0,0,0.0094187,0
12214,54.3,20.086,0,0.024695,0,12395,50.923,0,0,0,0,0.0094187,0
12214,54.3,20.086,0,0.024695,0,12395,50.923,0,0,0,0,0.0094187,0
12214,54.3,20.086,0,0.024695,0,12395,50.923,0,0,0,0,0.0094187,0
12214,54.3,20.086,0,0.024695,0,12395,50.923,0,0,0,0,0.0094187,0
12216,54.3,20.088,0,0.023352,0,12395,50.923,0,0,0,0,0.009503,0
12216,54.3,20.088,0,0.023352,0,12395,50.923,0,0,0,0,0.009503,0
12216,54.3,20.088,0,0.023352,0,12395,50.923,0,0,0,0,0.009503,0
12216,54.3,20.088,0,0.023352,0,12395,50.923,0,0,0,0,0.009503,0
12216,54.3,20.088,0,0.023352,0,12395,50.923,0,0,0,0,0.009503,0
12216,54.3,20.088,0,0.023352,0,12395,50.923,0,0,0,0,0.009503,0
12216,54.3,20.088,0,0.023352,0,12395,50.923,0,0,0,0,0.009503,0
12216,54.3,20.088,0,0.023352,0,12395,50.923,0,0,0,0,0.009503,0
12216,54.3,20.088,0,0.023352,0,12395,50.923,0,0,0,0,0.009503,0
12216,54.3,20.088,0,0.023352,0,12395,50.923,0,0,0,0,0.009503,0
12216,54.3,20.088,0,0.023352,0,12395,50.923,0,0,0,0,0.009503,0
12216,54.3,20.088,0,0.023352,0,12395,50.923,0,0,0,0,0.009503,0
12216,54.3,20.088,0,0.023352,0,12395,50.923,0,0,0,0,0.009503,0
12216,54.3,20.088,0,0.023352,0,12395,50.923,0,0,0,0,0.009503,0
12216,54.3,20.088,0,0.023352,0,12395,50.923,0,0,0,0,0.009503,0
12216,54.3,20.088,0,0.023352,0,12395,50.923,0,0,0,0,0.009503,0
12216,54.3,20.088,0,0.023352,0,12395,50.923,0,0,0,0,0.009503,0
12216,54.3,20.088,0,0.023352,0,12395,50.923,0,0,0,0,0.009503,0
12219,54.3,20.091,0,0.021115,0,12395,50.923,0,0,0,0,0.0096543,0
12219,54.3,20.091,0,0.021115,0,12395,50.923,0,0,0,0,0.0096543,0
12220,54.3,20.093,0,0.0202,0,12395,50.923,0,0,0,0,0.0097207,0
12220,54.3,20.093,0,0.0202,0,12395,50.923,0,0,0,0,0.0097207,0
12220,54.3,20.093,0,0.019899,0,12395,50.923,0,0,0,0,0.009743,0
12220,54.3,20.093,0,0.019899,0,12395,50.923,0,0,0,0,0.009743,0
12220,54.3,20.093,0,0.019899,0,12395,50.923,0,0,0,0,0.009743,0
12220,54.3,20.093,0,0.019899,0,12395,50.923,0,0,0,0,0.009743,0
12220,54.3,20.093,0,0.019899,0,12395,50.923,0,0,0,0,0.009743,0
12220,54.3,20.093,0,0.019899,0,12395,50.923,0,0,0,0,0.009743,0
12220,54.3,20.093,0,0.019899,0,12395,50.923,0,0,0,0,0.009743,0
12220,54.3,20.093,0,0.019899,0,12395,50.923,0,0,0,0,0.009743,0
12220,54.3,20.093,0,0.019899,0,12395,50.923,0,0,0,0,0.009743,0
12220,54.3,20.093,0,0.019899,0,12395,50.923,0,0,0,0,0.009743,0
12220,54.3,20.093,0,0.019899,0,12395,50.923,0,0,0,0,0.009743,0
12220,54.3,20.093,0,0.019899,0,12395,50.923,0,0,0,0,0.009743,0
12220,54.3,20.093,0,0.019899,0,12395,50.923,0,0,0,0,0.009743,0
12220,54.3,20.093,0,0.019899,0,12395,50.923,0,0,0,0,0.009743,0
12220,54.3,20.093,0,0.019899,0,12395,50.923,0,0,0,0,0.009743,0
12224,54.3,20.096,0,0.017592,0,12395,50.923,0,0,0,0,0.0099253,0
12224,54.3,20.096,0,0.017592,0,12395,50.923,0,0,0,0,0.0099253,0
12224,54.3,20.096,0,0.017315,0,12395,50.923,0,0,0,0,0.0099486,0
12224,54.3,20.096,0,0.017315,0,12395,50.923,0,0,0,0,0.0099486,0
12224,54.3,20.096,0,0.017315,0,12395,50.923,0,0,0,0,0.0099486,0
12225,54.3,20.097,0,0.016497,0,12395,50.923,0,0,0,0,0.010019,0
12225,54.3,20.097,0,0.016497,0,12395,50.923,0,0,0,0,0.010019,0
12226,54.3,20.098,0,0.01623,0,12395,50.923,0,0,0,0,0.010043,0
12226,54.3,20.098,0,0.01623,0,12395,50.923,0,0,0,0,0.010043,0
12226,54.3,20.098,0,0.015964,0,12395,50.923,0,0,0,0,0.010067,0
12226,54.3,20.098,0,0.015964,0,12395,50.923,0,0,0,0,0.010067,0
12226,54.3,20.098,0,0.015964,0,12395,50.923,0,0,0,0,0.010067,0
12226,54.3,20.098,0,0.015964,0,12395,50.923,0,0,0,0,0.010067,0
12226,54.3,20.098,0,0.015964,0,12395,50.923,0,0,0,0,0.010067,0
12226,54.3,20.098,0,0.015964,0,12395,50.923,0,0,0,0,0.010067,0
12226,54.3,20.098,0,0.015964,0,12395,50.923,0,0,0,0,0.010067,0
12226,54.3,20.098,0,0.015964,0,12395,50.923,0,0,0,0,0.010067,0
12226,54.3,20.098,0,0.015964,0,12395,50.923,0,0,0,0,0.010067,0
12226,54.3,20.098,0,0.015964,0,12395,50.923,0,0,0,0,0.010067,0
12226,54.3,20.098,0,0.015964,0,12395,50.923,0,0,0,0,0.010067,0
12226,54.3,20.098,0,0.015964,0,12395,50.923,0,0,0,0,0.010067,0
12226,54.3,20.098,0,0.015964,0,12395,50.923,0,0,0,0,0.010067,0
12226,54.3,20.098,0,0.015964,0,12395,50.923,0,0,0,0,0.010067,0
12226,54.3,20.098,0,0.015964,0,12395,50.923,0,0,0,0,0.010067,0
12226,54.3,20.098,0,0.015964,0,12395,50.923,0,0,0,0,0.010067,0
12226,54.3,20.098,0,0.015964,0,12395,50.923,0,0,0,0,0.010067,0
12226,54.3,20.098,0,0.015964,0,12395,50.923,0,0,0,0,0.010067,0
12226,54.3,20.098,0,0.015964,0,12395,50.923,0,0,0,0,0.010067,0
12226,54.3,20.098,0,0.015964,0,12395,50.923,0,0,0,0,0.010067,0
12226,54.3,20.098,0,0.015964,0,12395,50.923,0,0,0,0,0.010067,0
12229,54.3,20.1,0,0.014164,0,12395,50.923,0,0,0,0,0.010237,0
12229,54.3,20.1,0,0.014164,0,12395,50.923,0,0,0,0,0.010237,0
12229,54.3,20.1,0,0.013916,0,12395,50.923,0,0,0,0,0.010261,0
12229,54.3,20.1,0,0.013916,0,12395,50.923,0,0,0,0,0.010261,0
12229,54.3,20.1,0,0.013916,0,12395,50.923,0,0,0,0,0.010261,0
12229,54.3,20.1,0,0.013916,0,12395,50.923,0,0,0,0,0.010261,0
12231,54.3,20.101,0,0.01294,0,12395,50.923,0,0,0,0,0.010362,0
12231,54.3,20.101,0,0.01294,0,12395,50.923,0,0,0,0,0.010362,0
12231,54.3,20.101,0,0.01294,0,12395,50.923,0,0,0,0,0.010362,0
12231,54.3,20.101,0,0.01294,0,12395,50.923,0,0,0,0,0.010362,0
12231,54.3,20.101,0,0.01294,0,12395,50.923,0,0,0,0,0.010362,0
12231,54.3,20.101,0,0.01294,0,12395,50.923,0,0,0,0,0.010362,0
12231,54.3,20.101,0,0.01294,0,12395,50.923,0,0,0,0,0.010362,0
12231,54.3,20.101,0,0.01294,0,12395,50.923,0,0,0,0,0.010362,0
12231,54.3,20.101,0,0.01294,0,12395,50.923,0,0,0,0,0.010362,0
12231,54.3,20.101,0,0.01294,0,12395,50.923,0,0,0,0,0.010362,0
12231,54.3,20.101,0,0.01294,0,12395,50.923,0,0,0,0,0.010362,0
12231,54.3,20.101,0,0.01294,0,12395,50.923,0,0,0,0,0.010362,0
12231,54.3,20.101,0,0.01294,0,12395,50.923,0,0,0,0,0.010362,0
12231,54.3,20.101,0,0.01294,0,12395,50.923,0,0,0,0,0.010362,0
12231,54.3,20.101,0,0.01294,0,12395,50.923,0,0,0,0,0.010362,0
12231,54.3,20.101,0,0.01294,0,12395,50.923,0,0,0,0,0.010362,0
12231,54.3,20.101,0,0.01294,0,12395,50.923,0,0,0,0,0.010362,0
12231,54.3,20.101,0,0.01294,0,12395,50.923,0,0,0,0,0.010362,0
12231,54.3,20.101,0,0.01294,0,12395,50.923,0,0,0,0,0.010362,0
12235,54.3,20.104,0,0.010636,0,12395,50.923,0,0,0,0,0.010621,0
12235,54.3,20.104,0,0.010636,0,12395,50.923,0,0,0,0,0.010621,0
12235,54.3,20.104,0,0.010636,0,12395,50.923,0,0,0,0,0.010621,0
12235,54.3,20.104,0,0.010636,0,12395,50.923,0,0,0,0,0.010621,0
12235,54.3,20.104,0,0.010636,0,12395,50.923,0,0,0,0,0.010621,0
12235,54.3,20.104,0,0.010636,0,12395,50.923,0,0,0,0,0.010621,0
12235,54.3,20.104,0,0.010636,0,12395,50.923,0,0,0,0,0.010621,0
12235,54.3,20.104,0,0.010636,0,12395,50.923,0,0,0,0,0.010621,0
12235,54.3,20.104,0,0.010636,0,12395,50.923,0,0,0,0,0.010621,0
12235,54.3,20.104,0,0.010636,0,12395,50.923,0,0,0,0,0.010621,0
12235,54.3,20.104,0,0.010636,0,12395,50.923,0,0,0,0,0.010621,0
12235,54.3,20.104,0,0.010636,0,12395,50.923,0,0,0,0,0.010621,0
12235,54.3,20.104,0,0.010636,0,12395,50.923,0,0,0,0,0.010621,0
12235,54.3,20.104,0,0.010636,0,12395,50.923,0,0,0,0,0.010621,0
12237,54.3,20.105,0,0.0093356,0,12395,50.923,0,0,0,0,0.010783,0
12237,54.3,20.105,0,0.0093356,0,12395,50.923,0,0,0,0,0.010783,0
12237,54.3,20.105,0,0.0093356,0,12395,50.923,0,0,0,0,0.010783,0
12237,54.3,20.105,0,0.0093356,0,12395,50.923,0,0,0,0,0.010783,0
12238,54.3,20.105,0,0.0089155,0,12395,50.923,0,0,0,0,0.010838,0
12238,54.3,20.105,0,0.0089155,0,12395,50.923,0,0,0,0,0.010838,0
12238,54.3,20.105,0,0.0089155,0,12395,50.923,0,0,0,0,0.010838,0
12238,54.3,20.105,0,0.0089155,0,12395,50.923,0,0,0,0,0.010838,0
12238,54.3,20.105,0,0.0089155,0,12395,50.923,0,0,0,0,0.010838,0
12238,54.3,20.105,0,0.0089155,0,12395,50.923,0,0,0,0,0.010838,0
12238,54.3,20.105,0,0.0089155,0,12395,50.923,0,0,0,0,0.010838,0
12238,54.3,20.105,0,0.0089155,0,12395,50.923,0,0,0,0,0.010838,0
12240,54.3,20.106,0,0.008093,0,12395,50.923,0,0,0,0,0.01095,0
12241,54.3,20.106,0,0.0076908,0,12395,50.923,0,0,0,0,0.011007,0
12241,54.3,20.106,0,0.0076908,0,12395,50.923,0,0,0,0,0.011007,0
12241,54.3,20.106,0,0.0076908,0,12395,50.923,0,0,0,0,0.011007,0
12241,54.3,20.106,0,0.0076908,0,12395,50.923,0,0,0,0,0.011007,0
12241,54.3,20.106,0,0.0076908,0,12395,50.923,0,0,0,0,0.011007,0
12241,54.3,20.106,0,0.0076908,0,12395,50.923,0,0,0,0,0.011007,0
12242,54.3,20.107,0,0.0070971,0,12395,50.923,0,0,0,0,0.011093,0
12242,54.3,20.107,0,0.0070971,0,12395,50.923,0,0,0,0,0.011093,0
12242,54.3,20.107,0,0.0070971,0,12395,50.923,0,0,0,0,0.011093,0
12242,54.3,20.107,0,0.0070971,0,12395,50.923,0,0,0,0,0.011093,0
12242,54.3,20.107,0,0.0070971,0,12395,50.923,0,0,0,0,0.011093,0
12242,54.3,20.107,0,0.0070971,0,12395,50.923,0,0,0,0,0.011093,0
12242,54.3,20.107,0,0.0070971,0,12395,50.923,0,0,0,0,0.011093,0
12242,54.3,20.107,0,0.0070971,0,12395,50.923,0,0,0,0,0.011093,0
12242,54.3,20.107,0,0.0070971,0,12395,50.923,0,0,0,0,0.011093,0
12242,54.3,20.107,0,0.0070971,0,12395,50.923,0,0,0,0,0.011093,0
12242,54.3,20.107,0,0.0070971,0,12395,50.923,0,0,0,0,0.011093,0
12242,54.3,20.107,0,0.0070971,0,12395,50.923,0,0,0,0,0.011093,0
12242,54.3,20.107,0,0.0070971,0,12395,50.923,0,0,0,0,0.011093,0
12242,54.3,20.107,0,0.0070971,0,12395,50.923,0,0,0,0,0.011093,0
12242,54.3,20.107,0,0.0070971,0,12395,50.923,0,0,0,0,0.011093,0
12242,54.3,20.107,0,0.0070971,0,12395,50.923,0,0,0,0,0.011093,0
12243,54.3,20.107,0,0.006709,0,12395,50.923,0,0,0,0,0.011152,0
12243,54.3,20.107,0,0.006709,0,12395,50.923,0,0,0,0,0.011152,0
12243,54.3,20.107,0,0.006709,0,12395,50.923,0,0,0,0,0.011152,0
12243,54.3,20.107,0,0.006709,0,12395,50.923,0,0,0,0,0.011152,0
12243,54.3,20.107,0,0.006709,0,12395,50.923,0,0,0,0,0.011152,0
12243,54.3,20.107,0,0.006709,0,12395,50.923,0,0,0,0,0.011152,0
12243,54.3,20.107,0,0.006709,0,12395,50.923,0,0,0,0,0.011152,0
12243,54.3,20.107,0,0.006709,0,12395,50.923,0,0,0,0,0.011152,0
12246,54.3,20.108,0,0.0050311,0,12395,50.923,0,0,0,0,0.011422,0
12246,54.3,20.108,0,0.0050311,0,12395,50.923,0,0,0,0,0.011422,0
12246,54.3,20.108,0,0.0050311,0,12395,50.923,0,0,0,0,0.011422,0
12246,54.3,20.108,0,0.0050311,0,12395,50.923,0,0,0,0,0.011422,0
12246,54.3,20.108,0,0.0050311,0,12395,50.923,0,0,0,0,0.011422,0
12246,54.3,20.108,0,0.0050311,0,12395,50.923,0,0,0,0,0.011422,0
12246,54.3,20.108,0,0.0050311,0,12395,50.923,0,0,0,0,0.011422,0
12246,54.3,20.108,0,0.0050311,0,12395,50.923,0,0,0,0,0.011422,0
12246,54.3,20.108,0,0.0050311,0,12395,50.923,0,0,0,0,0.011422,0
12248,54.3,20.108,0,0.0043152,0,12395,50.923,0,0,0,0,0.011546,0
12248,54.3,20.108,0,0.0043152,0,12395,50.923,0,0,0,0,0.011546,0
12248,54.3,20.108,0,0.0043152,0,12395,50.923,0,0,0,0,0.011546,0
12248,54.3,20.108,0,0.0043152,0,12395,50.923,0,0,0,0,0.011546,0
12248,54.3,20.108,0,0.0043152,0,12395,50.923,0,0,0,0,0.011546,0
12248,54.3,20.108,0,0.0043152,0,12395,50.923,0,0,0,0,0.011546,0
12248,54.3,20.108,0,0.0043152,0,12395,50.923,0,0,0,0,0.011546,0
12248,54.3,20.108,0,0.0043152,0,12395,50.923,0,0,0,0,0.011546,0
12248,54.3,20.108,0,0.0043152,0,12395,50.923,0,0,0,0,0.011546,0
12248,54.3,20.108,0,0.0043152,0,12395,50.923,0,0,0,0,0.011546,0
12248,54.3,20.108,0,0.0043152,0,12395,50.923,0,0,0,0,0.011546,0
12249,54.3,20.109,0,0.0037921,0,12395,50.923,0,0,0,0,0.011642,0
12249,54.3,20.109,0,0.0037921,0,12395,50.923,0,0,0,0,0.011642,0
12249,54.3,20.109,0,0.0037921,0,12395,50.923,0,0,0,0,0.011642,0
12249,54.3,20.109,0,0.0037921,0,12395,50.923,0,0,0,0,0.011642,0
12249,54.3,20.109,0,0.0037921,0,12395,50.923,0,0,0,0,0.011642,0
12250,54.3,20.109,0,0.0034487,0,12395,50.923,0,0,0,0,0.011706,0
12250,54.3,20.109,0,0.0034487,0,12395,50.923,0,0,0,0,0.011706,0
12250,54.3,20.109,0,0.0034487,0,12395,50.923,0,0,0,0,0.011706,0
12252,54.3,20.109,0,0.0026093,0,12395,50.923,0,0,0,0,0.01187,0
12252,54.3,20.109,0,0.0026093,0,12395,50.923,0,0,0,0,0.01187,0
12252,54.3,20.109,0,0.0026093,0,12395,50.923,0,0,0,0,0.01187,0
12252,54.3,20.109,0,0.0026093,0,12395,50.923,0,0,0,0,0.01187,0
12252,54.3,20.109,0,0.0026093,0,12395,50.923,0,0,0,0,0.01187,0
12252,54.3,20.109,0,0.0026093,0,12395,50.923,0,0,0,0,0.01187,0
12252,54.3,20.109,0,0.0026093,0,12395,50.923,0,0,0,0,0.01187,0
12253,54.3,20.109,0,0.0022808,0,12395,50.923,0,0,0,0,0.011936,0
12253,54.3,20.109,0,0.0022808,0,12395,50.923,0,0,0,0,0.011936,0
12253,54.3,20.109,0,0.0022808,0,12395,50.923,0,0,0,0,0.011936,0
12253,54.3,20.109,0,0.0022808,0,12395,50.923,0,0,0,0,0.011936,0
12253,54.3,20.109,0,0.0022808,0,12395,50.923,0,0,0,0,0.011936,0
12253,54.3,20.109,0,0.0022808,0,12395,50.923,0,0,0,0,0.011936,0
12254,54.3,20.109,0,0.0016363,0,12395,50.923,0,0,0,0,0.012072,0
12254,54.3,20.109,0,0.0016363,0,12395,50.923,0,0,0,0,0.012072,0
12254,54.3,20.109,0,0.0016363,0,12395,50.923,0,0,0,0,0.012072,0
12254,54.3,20.109,0,0.0016363,0,12395,50.923,0,0,0,0,0.012072,0
12254,54.3,20.109,0,0.0016363,0,12395,50.923,0,0,0,0,0.012072,0
12255,54.3,20.11,0,0.0011625,0,12395,50.923,0,0,0,0,0.012176,0
12255,54.3,20.11,0,0.0011625,0,12395,50.923,0,0,0,0,0.012176,0
12255,54.3,20.11,0,0.0011625,0,12395,50.923,0,0,0,0,0.012176,0
12255,54.3,20.11,0,0.0011625,0,12395,50.923,0,0,0,0,0.012176,0
12255,54.3,20.11,0,0.0011625,0,12395,50.923,0,0,0,0,0.012176,0
12255,54.3,20.11,0,0.0011625,0,12395,50.923,0,0,0,0,0.012176,0
12255,54.3,20.11,0,0.0011625,0,12395,50.923,0,0,0,0,0.012176,0
12257,54.3,20.11,0,0.00054349,0,12395,50.923,0,0,0,0,0.012318,0
12257,54.3,20.11,0,0.00054349,0,12395,50.923,0,0,0,0,0.012318,0
12257,54.3,20.11,0,0.00054349,0,12395,50.923,0,0,0,0,0.012318,0
12257,54.3,20.11,0,0.00054349,0,12395,50.923,0,0,0,0,0.012318,0
12257,54.3,20.11,0,0.00054349,0,12395,50.923,0,0,0,0,0.012318,0
12257,54.3,20.11,0,0.00054349,0,12395,50.923,0,0,0,0,0.012318,0
12257,54.3,20.11,0,0.00054349,0,12395,50.923,0,0,0,0,0.012318,0
12257,54.3,20.11,0,0.00054349,0,12395,50.923,0,0,0,0,0.012318,0
12257,54.3,20.11,0,0.00054349,0,12395,50.923,0,0,0,0,0.012318,0
12257,54.3,20.11,0,0.00054349,0,12395,50.923,0,0,0,0,0.012318,0
12257,54.3,20.11,0,0.00054349,0,12395,50.923,0,0,0,0,0.012318,0
12259,54.3,20.11,0,-0.0001454,0,12395,50.923,0,0,0,0,0.012463,0
12259,54.3,20.11,0,-0.0001454,0,12395,50.923,0,0,0,0,0.012463,0
12259,54.3,20.11,0,-0.00049962,0,12395,50.923,0,0,0,0,0.012499,0
12259,54.3,20.11,0,-0.00049962,0,12395,50.923,0,0,0,0,0.012499,0
12259,54.3,20.11,0,-0.00049962,0,12395,50.923,0,0,0,0,0.012499,0
12260,54.3,20.11,0,-0.0011959,0,12395,50.923,0,0,0,0,0.012574,0
12261,54.3,20.109,0,-0.0018606,0,12395,50.923,0,0,0,0,0.012649,0
12261,54.3,20.109,0,-0.0018606,0,12395,50.923,0,0,0,0,0.012649,0
12261,54.3,20.109,0,-0.0021827,0,12395,50.923,0,0,0,0,0.012686,0
12261,54.3,20.109,0,-0.0024964,0,12395,50.923,0,0,0,0,0.012724,0
12261,54.3,20.109,0,-0.0024964,0,12395,50.923,0,0,0,0,0.012724,0
12261,54.3,20.109,0,-0.0024964,0,12395,50.923,0,0,0,0,0.012724,0
12261,54.3,20.109,0,-0.0024964,0,12395,50.923,0,0,0,0,0.012724,0
12261,54.3,20.109,0,-0.0024964,0,12395,50.923,0,0,0,0,0.012724,0
12261,54.3,20.109,0,-0.0024964,0,12395,50.923,0,0,0,0,0.012724,0
12261,54.3,20.109,0,-0.0024964,0,12395,50.923,0,0,0,0,0.012724,0
12261,54.3,20.109,0,-0.0024964,0,12395,50.923,0,0,0,0,0.012724,0
12261,54.3,20.109,0,-0.0024964,0,12395,50.923,0,0,0,0,0.012724,0
12261,54.3,20.109,0,-0.0024964,0,12395,50.923,0,0,0,0,0.012724,0
12261,54.3,20.109,0,-0.0024964,0,12395,50.923,0,0,0,0,0.012724,0
12261,54.3,20.109,0,-0.0024964,0,12395,50.923,0,0,0,0,0.012724,0
12261,54.3,20.109,0,-0.0024964,0,12395,50.923,0,0,0,0,0.012724,0
12261,54.3,20.109,0,-0.0024964,0,12395,50.923,0,0,0,0,0.012724,0
12261,54.3,20.109,0,-0.0024964,0,12395,50.923,0,0,0,0,0.012724,0
12263,54.3,20.109,0,-0.003684,0,12395,50.923,0,0,0,0,0.012879,0
12263,54.3,20.109,0,-0.003684,0,12395,50.923,0,0,0,0,0.012879,0
12263,54.3,20.109,0,-0.003684,0,12395,50.923,0,0,0,0,0.012879,0
12264,54.3,20.109,0,-0.0042413,0,12395,50.923,0,0,0,0,0.012958,0
12264,54.3,20.109,0,-0.0042413,0,12395,50.923,0,0,0,0,0.012958,0
12265,54.3,20.109,0,-0.0052854,0,12395,50.923,0,0,0,0,0.013118,0
12265,54.3,20.109,0,-0.0052854,0,12395,50.923,0,0,0,0,0.013118,0
12265,54.3,20.109,0,-0.0052854,0,12395,50.923,0,0,0,0,0.013118,0
12265,54.3,20.109,0,-0.0052854,0,12395,50.923,0,0,0,0,0.013118,0
12265,54.3,20.109,0,-0.0052854,0,12395,50.923,0,0,0,0,0.013118,0
12265,54.3,20.109,0,-0.0052854,0,12395,50.923,0,0,0,0,0.013118,0
12265,54.3,20.109,0,-0.0052854,0,12395,50.923,0,0,0,0,0.013118,0
12265,54.3,20.109,0,-0.0052854,0,12395,50.923,0,0,0,0,0.013118,0
12265,54.3,20.109,0,-0.0052854,0,12395,50.923,0,0,0,0,0.013118,0
12265,54.3,20.109,0,-0.0052854,0,12395,50.923,0,0,0,0,0.013118,0
12265,54.3,20.109,0,-0.0052854,0,12395,50.923,0,0,0,0,0.013118,0
12265,54.3,20.109,0,-0.0052854,0,12395,50.923,0,0,0,0,0.013118,0
12265,54.3,20.109,0,-0.0052854,0,12395,50.923,0,0,0,0,0.013118,0
12265,54.3,20.109,0,-0.0052854,0,12395,50.923,0,0,0,0,0.013118,0
12266,54.3,20.108,0,-0.0057776,0,12395,50.923,0,0,0,0,0.0132,0
12266,54.3,20.108,0,-0.0057776,0,12395,50.923,0,0,0,0,0.0132,0
12266,54.3,20.108,0,-0.0057776,0,12395,50.923,0,0,0,0,0.0132,0
12266,54.3,20.108,0,-0.0057776,0,12395,50.923,0,0,0,0,0.0132,0
12266,54.3,20.108,0,-0.0057776,0,12395,50.923,0,0,0,0,0.0132,0
12266,54.3,20.108,0,-0.0057776,0,12395,50.923,0,0,0,0,0.0132,0
12267,54.3,20.108,0,-0.0060148,0,12395,50.923,0,0,0,0,0.013241,0
12267,54.3,20.108,0,-0.0060148,0,12395,50.923,0,0,0,0,0.013241,0
12267,54.3,20.108,0,-0.0060148,0,12395,50.923,0,0,0,0,0.013241,0
12267,54.3,20.108,0,-0.0060148,0,12395,50.923,0,0,0,0,0.013241,0
12267,54.3,20.108,0,-0.0060148,0,12395,50.923,0,0,0,0,0.013241,0
12267,54.3,20.108,0,-0.0060148,0,12395,50.923,0,0,0,0,0.013241,0
12267,54.3,20.108,0,-0.0060148,0,12395,50.923,0,0,0,0,0.013241,0
12267,54.3,20.108,0,-0.0060148,0,12395,50.923,0,0,0,0,0.013241,0
12270,54.3,20.107,0,-0.0079615,0,12395,50.923,0,0,0,0,0.013624,0
12270,54.3,20.107,0,-0.0079615,0,12395,50.923,0,0,0,0,0.013624,0
12270,54.3,20.107,0,-0.0079615,0,12395,50.923,0,0,0,0,0.013624,0
12270,54.3,20.107,0,-0.0079615,0,12395,50.923,0,0,0,0,0.013624,0
12270,54.3,20.107,0,-0.0079615,0,12395,50.923,0,0,0,0,0.013624,0
12270,54.3,20.107,0,-0.0079615,0,12395,50.923,0,0,0,0,0.013624,0
12270,54.3,20.107,0,-0.0079615,0,12395,50.923,0,0,0,0,0.013624,0
12270,54.3,20.107,0,-0.0079615,0,12395,50.923,0,0,0,0,0.013624,0
12270,54.3,20.107,0,-0.0079615,0,12395,50.923,0,0,0,0,0.013624,0
12270,54.3,20.107,0,-0.0079615,0,12395,50.923,0,0,0,0,0.013624,0
12270,54.3,20.107,0,-0.0079615,0,12395,50.923,0,0,0,0,0.013624,0
12270,54.3,20.107,0,-0.0079615,0,12395,50.923,0,0,0,0,0.013624,0
12270,54.3,20.107,0,-0.0079615,0,12395,50.923,0,0,0,0,0.013624,0
12270,54.3,20.107,0,-0.0079615,0,12395,50.923,0,0,0,0,0.013624,0
12270,54.3,20.107,0,-0.0079615,0,12395,50.923,0,0,0,0,0.013624,0
12270,54.3,20.107,0,-0.0079615,0,12395,50.923,0,0,0,0,0.013624,0
12270,54.3,20.107,0,-0.0079615,0,12395,50.923,0,0,0,0,0.013624,0
12274,54.3,20.105,0,-0.0097811,0,12395,50.923,0,0,0,0,0.014076,0
12274,54.3,20.105,0,-0.0097811,0,12395,50.923,0,0,0,0,0.014076,0
12275,54.3,20.105,0,-0.0099466,0,12395,50.923,0,0,0,0,0.014123,0
12275,54.3,20.105,0,-0.010109,0,12395,50.923,0,0,0,0,0.01417,0
12275,54.3,20.105,0,-0.010109,0,12395,50.923,0,0,0,0,0.01417,0
12275,54.3,20.105,0,-0.010109,0,12395,50.923,0,0,0,0,0.01417,0
12275,54.3,20.105,0,-0.010109,0,12395,50.923,0,0,0,0,0.01417,0
12275,54.3,20.105,0,-0.010109,0,12395,50.923,0,0,0,0,0.01417,0
12276,54.3,20.105,0,-0.010271,0,12395,50.923,0,0,0,0,0.014217,0
12276,54.3,20.105,0,-0.010271,0,12395,50.923,0,0,0,0,0.014217,0
12276,54.3,20.105,0,-0.010271,0,12395,50.923,0,0,0,0,0.014217,0
12276,54.3,20.104,0,-0.010429,0,12395,50.923,0,0,0,0,0.014265,0
12276,54.3,20.104,0,-0.010429,0,12395,50.923,0,0,0,0,0.014265,0
12276,54.3,20.104,0,-0.010429,0,12395,50.923,0,0,0,0,0.014265,0
12276,54.3,20.104,0,-0.010429,0,12395,50.923,0,0,0,0,0.014265,0
12276,54.3,20.104,0,-0.010429,0,12395,50.923,0,0,0,0,0.014265,0
12276,54.3,20.104,0,-0.010429,0,12395,50.923,0,0,0,0,0.014265,0
12276,54.3,20.104,0,-0.010429,0,12395,50.923,0,0,0,0,0.014265,0
12276,54.3,20.104,0,-0.010429,0,12395,50.923,0,0,0,0,0.014265,0
12276,54.3,20.104,0,-0.010429,0,12395,50.923,0,0,0,0,0.014265,0
12276,54.3,20.104,0,-0.010429,0,12395,50.923,0,0,0,0,0.014265,0
12277,54.3,20.104,0,-0.010889,0,12395,50.923,0,0,0,0,0.014411,0
12277,54.3,20.104,0,-0.010889,0,12395,50.923,0,0,0,0,0.014411,0
12278,54.3,20.104,0,-0.011037,0,12395,50.923,0,0,0,0,0.01446,0
12278,54.3,20.104,0,-0.011037,0,12395,50.923,0,0,0,0,0.01446,0
12278,54.3,20.103,0,-0.011185,0,12395,50.923,0,0,0,0,0.014509,0
12278,54.3,20.103,0,-0.011185,0,12395,50.923,0,0,0,0,0.014509,0
12278,54.3,20.103,0,-0.011185,0,12395,50.923,0,0,0,0,0.014509,0
12278,54.3,20.103,0,-0.011185,0,12395,50.923,0,0,0,0,0.014509,0
12278,54.3,20.103,0,-0.011185,0,12395,50.923,0,0,0,0,0.014509,0
12278,54.3,20.103,0,-0.011185,0,12395,50.923,0,0,0,0,0.014509,0
12278,54.3,20.103,0,-0.011185,0,12395,50.923,0,0,0,0,0.014509,0
12278,54.3,20.103,0,-0.011185,0,12395,50.923,0,0,0,0,0.014509,0
12278,54.3,20.103,0,-0.011185,0,12395,50.923,0,0,0,0,0.014509,0
12278,54.3,20.103,0,-0.011185,0,12395,50.923,0,0,0,0,0.014509,0
12278,54.3,20.103,0,-0.011185,0,12395,50.923,0,0,0,0,0.014509,0
12278,54.3,20.103,0,-0.011185,0,12395,50.923,0,0,0,0,0.014509,0
12278,54.3,20.103,0,-0.011185,0,12395,50.923,0,0,0,0,0.014509,0
12278,54.3,20.103,0,-0.011185,0,12395,50.923,0,0,0,0,0.014509,0
12282,54.3,20.101,0,-0.01255,0,12395,50.923,0,0,0,0,0.015023,0
12282,54.3,20.101,0,-0.01255,0,12395,50.923,0,0,0,0,0.015023,0
12282,54.3,20.101,0,-0.01255,0,12395,50.923,0,0,0,0,0.015023,0
12282,54.3,20.101,0,-0.01255,0,12395,50.923,0,0,0,0,0.015023,0
12282,54.3,20.101,0,-0.01255,0,12395,50.923,0,0,0,0,0.015023,0
12282,54.3,20.101,0,-0.01255,0,12395,50.923,0,0,0,0,0.015023,0
12282,54.3,20.101,0,-0.01255,0,12395,50.923,0,0,0,0,0.015023,0
12282,54.3,20.101,0,-0.01255,0,12395,50.923,0,0,0,0,0.015023,0
12282,54.3,20.101,0,-0.01255,0,12395,50.923,0,0,0,0,0.015023,0
12282,54.3,20.101,0,-0.01255,0,12395,50.923,0,0,0,0,0.015023,0
12282,54.3,20.101,0,-0.01255,0,12395,50.923,0,0,0,0,0.015023,0
12282,54.3,20.101,0,-0.01255,0,12395,50.923,0,0,0,0,0.015023,0
12284,54.3,20.1,0,-0.01317,0,12395,50.923,0,0,0,0,0.015294,0
12284,54.3,20.1,0,-0.01317,0,12395,50.923,0,0,0,0,0.015294,0
12284,54.3,20.099,0,-0.013291,0,12395,50.923,0,0,0,0,0.015349,0
12284,54.3,20.099,0,-0.013291,0,12395,50.923,0,0,0,0,0.015349,0
12284,54.3,20.099,0,-0.013291,0,12395,50.923,0,0,0,0,0.015349,0
12284,54.3,20.099,0,-0.013291,0,12395,50.923,0,0,0,0,0.015349,0
12285,54.3,20.099,0,-0.013528,0,12395,50.923,0,0,0,0,0.015461,0
12285,54.3,20.099,0,-0.013528,0,12395,50.923,0,0,0,0,0.015461,0
12286,54.3,20.099,0,-0.013645,0,12395,50.923,0,0,0,0,0.015517,0
12286,54.3,20.099,0,-0.013645,0,12395,50.923,0,0,0,0,0.015517,0
12286,54.3,20.099,0,-0.013645,0,12395,50.923,0,0,0,0,0.015517,0
12286,54.3,20.099,0,-0.013645,0,12395,50.923,0,0,0,0,0.015517,0
12286,54.3,20.098,0,-0.013876,0,12395,50.923,0,0,0,0,0.015632,0
12286,54.3,20.098,0,-0.013876,0,12395,50.923,0,0,0,0,0.015632,0
12287,54.3,20.098,0,-0.0141,0,12395,50.923,0,0,0,0,0.015748,0
12288,54.3,20.097,0,-0.014211,0,12395,50.923,0,0,0,0,0.015806,0
12288,54.3,20.097,0,-0.014322,0,12395,50.923,0,0,0,0,0.015865,0
12288,54.3,20.097,0,-0.014432,0,12395,50.923,0,0,0,0,0.015925,0
12288,54.3,20.097,0,-0.014432,0,12395,50.923,0,0,0,0,0.015925,0
12288,54.3,20.097,0,-0.014432,0,12395,50.923,0,0,0,0,0.015925,0
12288,54.3,20.097,0,-0.014432,0,12395,50.923,0,0,0,0,0.015925,0
12289,54.3,20.096,0,-0.014539,0,12395,50.923,0,0,0,0,0.015985,0
12289,54.3,20.096,0,-0.014539,0,12395,50.923,0,0,0,0,0.015985,0
12289,54.3,20.096,0,-0.014539,0,12395,50.923,0,0,0,0,0.015985,0
12289,54.3,20.096,0,-0.014539,0,12395,50.923,0,0,0,0,0.015985,0
12289,54.3,20.096,0,-0.014539,0,12395,50.923,0,0,0,0,0.015985,0
12289,54.3,20.096,0,-0.014539,0,12395,50.923,0,0,0,0,0.015985,0
12289,54.3,20.096,0,-0.014539,0,12395,50.923,0,0,0,0,0.015985,0
12289,54.3,20.096,0,-0.014539,0,12395,50.923,0,0,0,0,0.015985,0
12289,54.3,20.096,0,-0.014539,0,12395,50.923,0,0,0,0,0.015985,0
12289,54.3,20.096,0,-0.014539,0,12395,50.923,0,0,0,0,0.015985,0
12289,54.3,20.096,0,-0.014539,0,12395,50.923,0,0,0,0,0.015985,0
12289,54.3,20.096,0,-0.014539,0,12395,50.923,0,0,0,0,0.015985,0
12289,54.3,20.096,0,-0.014539,0,12395,50.923,0,0,0,0,0.015985,0
12289,54.3,20.096,0,-0.014539,0,12395,50.923,0,0,0,0,0.015985,0
12289,54.3,20.096,0,-0.014539,0,12395,50.923,0,0,0,0,0.015985,0
12290,54.3,20.095,0,-0.014856,0,12395,50.923,0,0,0,0,0.016168,0
12290,54.3,20.095,0,-0.014856,0,12395,50.923,0,0,0,0,0.016168,0
12290,54.3,20.095,0,-0.014856,0,12395,50.923,0,0,0,0,0.016168,0
12290,54.3,20.095,0,-0.014856,0,12395,50.923,0,0,0,0,0.016168,0
12291,54.3,20.095,0,-0.015168,0,12395,50.923,0,0,0,0,0.016354,0
12291,54.3,20.095,0,-0.015168,0,12395,50.923,0,0,0,0,0.016354,0
12291,54.3,20.095,0,-0.015168,0,12395,50.923,0,0,0,0,0.016354,0
12291,54.3,20.095,0,-0.015168,0,12395,50.923,0,0,0,0,0.016354,0
12291,54.3,20.095,0,-0.015168,0,12395,50.923,0,0,0,0,0.016354,0
12293,54.3,20.093,0,-0.015568,0,12395,50.923,0,0,0,0,0.01661,0
12293,54.3,20.093,0,-0.015568,0,12395,50.923,0,0,0,0,0.01661,0
12293,54.3,20.093,0,-0.015568,0,12395,50.923,0,0,0,0,0.01661,0
12294,54.3,20.093,0,-0.015764,0,12395,50.923,0,0,0,0,0.016741,0
12294,54.3,20.093,0,-0.015764,0,12395,50.923,0,0,0,0,0.016741,0
12294,54.3,20.093,0,-0.015764,0,12395,50.923,0,0,0,0,0.016741,0
12294,54.3,20.093,0,-0.015764,0,12395,50.923,0,0,0,0,0.016741,0
12295,54.3,20.092,0,-0.016052,0,12395,50.923,0,0,0,0,0.016942,0
12295,54.3,20.092,0,-0.016052,0,12395,50.923,0,0,0,0,0.016942,0
12295,54.3,20.092,0,-0.016052,0,12395,50.923,0,0,0,0,0.016942,0
12295,54.3,20.092,0,-0.016052,0,12395,50.923,0,0,0,0,0.016942,0
12295,54.3,20.092,0,-0.016052,0,12395,50.923,0,0,0,0,0.016942,0
12295,54.3,20.092,0,-0.016052,0,12395,50.923,0,0,0,0,0.016942,0
12295,54.3,20.092,0,-0.016052,0,12395,50.923,0,0,0,0,0.016942,0
12295,54.3,20.092,0,-0.016052,0,12395,50.923,0,0,0,0,0.016942,0
12296,54.3,20.091,0,-0.016242,0,12395,50.923,0,0,0,0,0.017078,0
12296,54.3,20.091,0,-0.016242,0,12395,50.923,0,0,0,0,0.017078,0
12296,54.3,20.091,0,-0.016336,0,12395,50.923,0,0,0,0,0.017147,0
12296,54.3,20.091,0,-0.016336,0,12395,50.923,0,0,0,0,0.017147,0
12297,54.3,20.09,0,-0.016523,0,12395,50.923,0,0,0,0,0.017287,0
12297,54.3,20.09,0,-0.016523,0,12395,50.923,0,0,0,0,0.017287,0
12297,54.3,20.09,0,-0.016523,0,12395,50.923,0,0,0,0,0.017287,0
12297,54.3,20.09,0,-0.016523,0,12395,50.923,0,0,0,0,0.017287,0
12298,54.3,20.089,0,-0.016707,0,12395,50.923,0,0,0,0,0.017429,0
12298,54.3,20.089,0,-0.016707,0,12395,50.923,0,0,0,0,0.017429,0
12298,54.3,20.089,0,-0.016707,0,12395,50.923,0,0,0,0,0.017429,0
12298,54.3,20.089,0,-0.016707,0,12395,50.923,0,0,0,0,0.017429,0
12298,54.3,20.089,0,-0.016707,0,12395,50.923,0,0,0,0,0.017429,0
12298,54.3,20.089,0,-0.016707,0,12395,50.923,0,0,0,0,0.017429,0
12298,54.3,20.089,0,-0.016707,0,12395,50.923,0,0,0,0,0.017429,0
12299,54.3,20.088,0,-0.016978,0,12395,50.923,0,0,0,0,0.017646,0
12300,54.3,20.088,0,-0.017156,0,12395,50.923,0,0,0,0,0.017794,0
12300,54.3,20.088,0,-0.017156,0,12395,50.923,0,0,0,0,0.017794,0
12300,54.3,20.087,0,-0.017247,0,12395,50.923,0,0,0,0,0.017869,0
12300,54.3,20.087,0,-0.017337,0,12395,50.923,0,0,0,0,0.017944,0
12300,54.3,20.087,0,-0.017337,0,12395,50.923,0,0,0,0,0.017944,0
12300,54.3,20.087,0,-0.017337,0,12395,50.923,0,0,0,0,0.017944,0
12300,54.3,20.087,0,-0.017337,0,12395,50.923,0,0,0,0,0.017944,0
12300,54.3,20.087,0,-0.017337,0,12395,50.923,0,0,0,0,0.017944,0
12300,54.3,20.087,0,-0.017337,0,12395,50.923,0,0,0,0,0.017944,0
12300,54.3,20.087,0,-0.017337,0,12395,50.923,0,0,0,0,0.017944,0
12300,54.3,20.087,0,-0.017337,0,12395,50.923,0,0,0,0,0.017944,0
12300,54.3,20.087,0,-0.017337,0,12395,50.923,0,0,0,0,0.017944,0
12300,54.3,20.087,0,-0.017337,0,12395,50.923,0,0,0,0,0.017944,0
12300,54.3,20.087,0,-0.017337,0,12395,50.923,0,0,0,0,0.017944,0
12300,54.3,20.087,0,-0.017337,0,12395,50.923,0,0,0,0,0.017944,0
12300,54.3,20.087,0,-0.017337,0,12395,50.923,0,0,0,0,0.017944,0
12300,54.3,20.087,0,-0.017337,0,12395,50.923,0,0,0,0,0.017944,0
12300,54.3,20.087,0,-0.017337,0,12395,50.923,0,0,0,0,0.017944,0
12300,54.3,20.087,0,-0.017337,0,12395,50.923,0,0,0,0,0.017944,0
12300,54.3,20.087,0,-0.017337,0,12395,50.923,0,0,0,0,0.017944,0
12300,54.3,20.087,0,-0.017337,0,12395,50.923,0,0,0,0,0.017944,0
12300,54.3,20.087,0,-0.017337,0,12395,50.923,0,0,0,0,0.017944,0
12302,54.3,20.086,0,-0.017693,0,12395,50.923,0,0,0,0,0.018253,0
12303,54.3,20.085,0,-0.017953,0,12395,50.923,0,0,0,0,0.018491,0
12303,54.3,20.085,0,-0.017953,0,12395,50.923,0,0,0,0,0.018491,0
12303,54.3,20.085,0,-0.017953,0,12395,50.923,0,0,0,0,0.018491,0
12303,54.3,20.085,0,-0.017953,0,12395,50.923,0,0,0,0,0.018491,0
12305,54.3,20.083,0,-0.018377,0,12395,50.923,0,0,0,0,0.018903,0
12305,54.3,20.083,0,-0.018377,0,12395,50.923,0,0,0,0,0.018903,0
12305,54.3,20.083,0,-0.018377,0,12395,50.923,0,0,0,0,0.018903,0
12305,54.3,20.083,0,-0.018377,0,12395,50.923,0,0,0,0,0.018903,0
12305,54.3,20.083,0,-0.018377,0,12395,50.923,0,0,0,0,0.018903,0
12305,54.3,20.083,0,-0.018377,0,12395,50.923,0,0,0,0,0.018903,0
12305,54.3,20.083,0,-0.018377,0,12395,50.923,0,0,0,0,0.018903,0
12305,54.3,20.083,0,-0.018377,0,12395,50.923,0,0,0,0,0.018903,0
12305,54.3,20.083,0,-0.018377,0,12395,50.923,0,0,0,0,0.018903,0
12305,54.3,20.083,0,-0.018377,0,12395,50.923,0,0,0,0,0.018903,0
12306,54.3,20.082,0,-0.018546,0,12395,50.923,0,0,0,0,0.019072,0
12306,54.3,20.082,0,-0.018546,0,12395,50.923,0,0,0,0,0.019072,0
12306,54.3,20.082,0,-0.018546,0,12395,50.923,0,0,0,0,0.019072,0
12306,54.3,20.082,0,-0.018546,0,12395,50.923,0,0,0,0,0.019072,0
12306,54.3,20.082,0,-0.018546,0,12395,50.923,0,0,0,0,0.019072,0
12306,54.3,20.082,0,-0.018546,0,12395,50.923,0,0,0,0,0.019072,0
12306,54.3,20.082,0,-0.018546,0,12395,50.923,0,0,0,0,0.019072,0
12306,54.3,20.082,0,-0.018546,0,12395,50.923,0,0,0,0,0.019072,0
12306,54.3,20.082,0,-0.018546,0,12395,50.923,0,0,0,0,0.019072,0
12306,54.3,20.082,0,-0.018546,0,12395,50.923,0,0,0,0,0.019072,0
12306,54.3,20.082,0,-0.018546,0,12395,50.923,0,0,0,0,0.019072,0
12307,54.3,20.081,0,-0.018713,0,12395,50.923,0,0,0,0,0.019245,0
12307,54.3,20.081,0,-0.018713,0,12395,50.923,0,0,0,0,0.019245,0
12308,54.3,20.08,0,-0.01904,0,12395,50.923,0,0,0,0,0.0196,0
12308,54.3,20.08,0,-0.01904,0,12395,50.923,0,0,0,0,0.0196,0
12308,54.3,20.08,0,-0.01904,0,12395,50.923,0,0,0,0,0.0196,0
12310,54.3,20.078,0,-0.019448,0,12395,50.923,0,0,0,0,0.020063,0
12310,54.3,20.078,0,-0.019448,0,12395,50.923,0,0,0,0,0.020063,0
12310,54.3,20.078,0,-0.019448,0,12395,50.923,0,0,0,0,0.020063,0
12311,54.3,20.077,0,-0.019607,0,12395,50.923,0,0,0,0,0.020254,0
12311,54.3,20.077,0,-0.019607,0,12395,50.923,0,0,0,0,0.020254,0
12311,54.3,20.077,0,-0.019607,0,12395,50.923,0,0,0,0,0.020254,0
12311,54.3,20.077,0,-0.019607,0,12395,50.923,0,0,0,0,0.020254,0
12311,54.3,20.077,0,-0.019607,0,12395,50.923,0,0,0,0,0.020254,0
12311,54.3,20.077,0,-0.019607,0,12395,50.923,0,0,0,0,0.020254,0
12311,54.3,20.077,0,-0.019607,0,12395,50.923,0,0,0,0,0.020254,0
12312,54.3,20.077,0,-0.019688,0,12395,50.923,0,0,0,0,0.020351,0
12312,54.3,20.077,0,-0.019688,0,12395,50.923,0,0,0,0,0.020351,0
12312,54.3,20.077,0,-0.019688,0,12395,50.923,0,0,0,0,0.020351,0
12312,54.3,20.077,0,-0.019688,0,12395,50.923,0,0,0,0,0.020351,0
12312,54.3,20.077,0,-0.019688,0,12395,50.923,0,0,0,0,0.020351,0
12312,54.3,20.077,0,-0.019688,0,12395,50.923,0,0,0,0,0.020351,0
12312,54.3,20.077,0,-0.019688,0,12395,50.923,0,0,0,0,0.020351,0
12312,54.3,20.077,0,-0.019688,0,12395,50.923,0,0,0,0,0.020351,0
12312,54.3,20.077,0,-0.019688,0,12395,50.923,0,0,0,0,0.020351,0
12312,54.3,20.077,0,-0.019688,0,12395,50.923,0,0,0,0,0.020351,0
12312,54.3,20.077,0,-0.019688,0,12395,50.923,0,0,0,0,0.020351,0
12312,54.3,20.077,0,-0.019688,0,12395,50.923,0,0,0,0,0.020351,0
12312,54.3,20.076,0,-0.019848,0,12395,50.923,0,0,0,0,0.020548,0
12312,54.3,20.076,0,-0.019848,0,12395,50.923,0,0,0,0,0.020548,0
12312,54.3,20.076,0,-0.019848,0,12395,50.923,0,0,0,0,0.020548,0
12312,54.3,20.076,0,-0.019848,0,12395,50.923,0,0,0,0,0.020548,0
12312,54.3,20.076,0,-0.019848,0,12395,50.923,0,0,0,0,0.020548,0
12316,54.3,20.073,0,-0.020476,0,12395,50.923,0,0,0,0,0.021375,0
12316,54.3,20.073,0,-0.020476,0,12395,50.923,0,0,0,0,0.021375,0
12316,54.3,20.072,0,-0.020555,0,12395,50.923,0,0,0,0,0.021483,0
12316,54.3,20.072,0,-0.020555,0,12395,50.923,0,0,0,0,0.021483,0
12316,54.3,20.072,0,-0.020555,0,12395,50.923,0,0,0,0,0.021483,0
12316,54.3,20.072,0,-0.020555,0,12395,50.923,0,0,0,0,0.021483,0
12316,54.3,20.072,0,-0.020555,0,12395,50.923,0,0,0,0,0.021483,0
12316,54.3,20.072,0,-0.020555,0,12395,50.923,0,0,0,0,0.021483,0
12316,54.3,20.072,0,-0.020555,0,12395,50.923,0,0,0,0,0.021483,0
12316,54.3,20.072,0,-0.020555,0,12395,50.923,0,0,0,0,0.021483,0
12316,54.3,20.072,0,-0.020555,0,12395,50.923,0,0,0,0,0.021483,0
12316,54.3,20.072,0,-0.020555,0,12395,50.923,0,0,0,0,0.021483,0
12316,54.3,20.072,0,-0.020555,0,12395,50.923,0,0,0,0,0.021483,0
12316,54.3,20.072,0,-0.020555,0,12395,50.923,0,0,0,0,0.021483,0
12316,54.3,20.072,0,-0.020555,0,12395,50.923,0,0,0,0,0.021483,0
12316,54.3,20.072,0,-0.020555,0,12395,50.923,0,0,0,0,0.021483,0
12316,54.3,20.072,0,-0.020555,0,12395,50.923,0,0,0,0,0.021483,0
12319,54.3,20.069,0,-0.021096,0,12395,50.923,0,0,0,0,0.02227,0
12319,54.3,20.069,0,-0.021096,0,12395,50.923,0,0,0,0,0.02227,0
12319,54.3,20.069,0,-0.021096,0,12395,50.923,0,0,0,0,0.02227,0
12319,54.3,20.069,0,-0.021096,0,12395,50.923,0,0,0,0,0.02227,0
12319,54.3,20.069,0,-0.021096,0,12395,50.923,0,0,0,0,0.02227,0
12319,54.3,20.069,0,-0.021096,0,12395,50.923,0,0,0,0,0.02227,0
12319,54.3,20.069,0,-0.021096,0,12395,50.923,0,0,0,0,0.02227,0
12319,54.3,20.069,0,-0.021096,0,12395,50.923,0,0,0,0,0.02227,0
12319,54.3,20.069,0,-0.021096,0,12395,50.923,0,0,0,0,0.02227,0
12319,54.3,20.069,0,-0.021096,0,12395,50.923,0,0,0,0,0.02227,0
12319,54.3,20.069,0,-0.021096,0,12395,50.923,0,0,0,0,0.02227,0
12319,54.3,20.069,0,-0.021096,0,12395,50.923,0,0,0,0,0.02227,0
12319,54.3,20.069,0,-0.021096,0,12395,50.923,0,0,0,0,0.02227,0
12319,54.3,20.069,0,-0.021096,0,12395,50.923,0,0,0,0,0.02227,0
12319,54.3,20.069,0,-0.021096,0,12395,50.923,0,0,0,0,0.02227,0
12319,54.3,20.069,0,-0.021096,0,12395,50.923,0,0,0,0,0.02227,0
12319,54.3,20.069,0,-0.021096,0,12395,50.923,0,0,0,0,0.02227,0
12319,54.3,20.069,0,-0.021096,0,12395,50.923,0,0,0,0,0.02227,0
12323,54.3,20.066,0,-0.02178,0,12395,50.923,0,0,0,0,0.023372,0
12323,54.3,20.065,0,-0.02193,0,12395,50.923,0,0,0,0,0.023632,0
12323,54.3,20.065,0,-0.02193,0,12395,50.923,0,0,0,0,0.023632,0
12323,54.3,20.065,0,-0.02193,0,12395,50.923,0,0,0,0,0.023632,0
12323,54.3,20.065,0,-0.02193,0,12395,50.923,0,0,0,0,0.023632,0
12323,54.3,20.065,0,-0.02193,0,12395,50.923,0,0,0,0,0.023632,0
12323,54.3,20.065,0,-0.02193,0,12395,50.923,0,0,0,0,0.023632,0
12323,54.3,20.065,0,-0.02193,0,12395,50.923,0,0,0,0,0.023632,0
12323,54.3,20.065,0,-0.02193,0,12395,50.923,0,0,0,0,0.023632,0
12323,54.3,20.065,0,-0.02193,0,12395,50.923,0,0,0,0,0.023632,0
12323,54.3,20.065,0,-0.02193,0,12395,50.923,0,0,0,0,0.023632,0
12323,54.3,20.065,0,-0.02193,0,12395,50.923,0,0,0,0,0.023632,0
12323,54.3,20.065,0,-0.02193,0,12395,50.923,0,0,0,0,0.023632,0
12325,54.3,20.063,0,-0.022154,0,12395,50.923,0,0,0,0,0.024032,0
12325,54.3,20.063,0,-0.022154,0,12395,50.923,0,0,0,0,0.024032,0
12325,54.3,20.063,0,-0.022154,0,12395,50.923,0,0,0,0,0.024032,0
12325,54.3,20.063,0,-0.022154,0,12395,50.923,0,0,0,0,0.024032,0
12325,54.3,20.063,0,-0.022154,0,12395,50.923,0,0,0,0,0.024032,0
12325,54.3,20.063,0,-0.022154,0,12395,50.923,0,0,0,0,0.024032,0
12325,54.3,20.063,0,-0.022154,0,12395,50.923,0,0,0,0,0.024032,0
12325,54.3,20.063,0,-0.022154,0,12395,50.923,0,0,0,0,0.024032,0
12325,54.3,20.063,0,-0.022154,0,12395,50.923,0,0,0,0,0.024032,0
12325,54.3,20.063,0,-0.022154,0,12395,50.923,0,0,0,0,0.024032,0
12325,54.3,20.063,0,-0.022154,0,12395,50.923,0,0,0,0,0.024032,0
12325,54.3,20.063,0,-0.022154,0,12395,50.923,0,0,0,0,0.024032,0
12325,54.3,20.063,0,-0.022154,0,12395,50.923,0,0,0,0,0.024032,0
12325,54.3,20.063,0,-0.022154,0,12395,50.923,0,0,0,0,0.024032,0
12325,54.3,20.062,0,-0.022303,0,12395,50.923,0,0,0,0,0.024307,0
12325,54.3,20.062,0,-0.022303,0,12395,50.923,0,0,0,0,0.024307,0
12328,54.3,20.06,0,-0.022747,0,12395,50.923,0,0,0,0,0.02517,0
12328,54.3,20.06,0,-0.022747,0,12395,50.923,0,0,0,0,0.02517,0
12328,54.3,20.06,0,-0.022747,0,12395,50.923,0,0,0,0,0.02517,0
12329,54.3,20.058,0,-0.022968,0,12395,50.923,0,0,0,0,0.025624,0
12329,54.3,20.058,0,-0.022968,0,12395,50.923,0,0,0,0,0.025624,0
12329,54.3,20.058,0,-0.022968,0,12395,50.923,0,0,0,0,0.025624,0
12329,54.3,20.058,0,-0.022968,0,12395,50.923,0,0,0,0,0.025624,0
12329,54.3,20.058,0,-0.022968,0,12395,50.923,0,0,0,0,0.025624,0
12329,54.3,20.058,0,-0.022968,0,12395,50.923,0,0,0,0,0.025624,0
12329,54.3,20.058,0,-0.022968,0,12395,50.923,0,0,0,0,0.025624,0
12329,54.3,20.058,0,-0.022968,0,12395,50.923,0,0,0,0,0.025624,0
12329,54.3,20.058,0,-0.022968,0,12395,50.923,0,0,0,0,0.025624,0
12329,54.3,20.058,0,-0.022968,0,12395,50.923,0,0,0,0,0.025624,0
12329,54.3,20.058,0,-0.022968,0,12395,50.923,0,0,0,0,0.025624,0
12329,54.3,20.058,0,-0.022968,0,12395,50.923,0,0,0,0,0.025624,0
12330,54.3,20.057,0,-0.023188,0,12395,50.923,0,0,0,0,0.026096,0
12330,54.3,20.057,0,-0.023188,0,12395,50.923,0,0,0,0,0.026096,0
12331,54.3,20.056,0,-0.023261,0,12395,50.923,0,0,0,0,0.026257,0
12331,54.3,20.056,0,-0.023261,0,12395,50.923,0,0,0,0,0.026257,0
12331,54.3,20.056,0,-0.023261,0,12395,50.923,0,0,0,0,0.026257,0
12331,54.3,20.056,0,-0.023261,0,12395,50.923,0,0,0,0,0.026257,0
12331,54.3,20.056,0,-0.023261,0,12395,50.923,0,0,0,0,0.026257,0
12333,54.3,20.054,0,-0.023693,0,12395,50.923,0,0,0,0,0.027266,0
12333,54.3,20.053,0,-0.023766,0,12395,50.923,0,0,0,0,0.027442,0
12333,54.3,20.053,0,-0.023766,0,12395,50.923,0,0,0,0,0.027442,0
12333,54.3,20.053,0,-0.023766,0,12395,50.923,0,0,0,0,0.027442,0
12333,54.3,20.053,0,-0.023766,0,12395,50.923,0,0,0,0,0.027442,0
12333,54.3,20.053,0,-0.023766,0,12395,50.923,0,0,0,0,0.027442,0
12333,54.3,20.053,0,-0.023766,0,12395,50.923,0,0,0,0,0.027442,0
12333,54.3,20.053,0,-0.023766,0,12395,50.923,0,0,0,0,0.027442,0
12333,54.3,20.053,0,-0.023766,0,12395,50.923,0,0,0,0,0.027442,0
12333,54.3,20.053,0,-0.023766,0,12395,50.923,0,0,0,0,0.027442,0
12333,54.3,20.053,0,-0.023766,0,12395,50.923,0,0,0,0,0.027442,0
12333,54.3,20.053,0,-0.023766,0,12395,50.923,0,0,0,0,0.027442,0
12333,54.3,20.053,0,-0.023766,0,12395,50.923,0,0,0,0,0.027442,0
12333,54.3,20.053,0,-0.023766,0,12395,50.923,0,0,0,0,0.027442,0
12333,54.3,20.053,0,-0.023766,0,12395,50.923,0,0,0,0,0.027442,0
12333,54.3,20.053,0,-0.023766,0,12395,50.923,0,0,0,0,0.027442,0
12333,54.3,20.053,0,-0.023766,0,12395,50.923,0,0,0,0,0.027442,0
12333,54.3,20.053,0,-0.023766,0,12395,50.923,0.04,0,4,0,0.027496,0
12336,54.3,20.05,0,-0.024266,0,12395,50.923,0.04,0,4,0,0.028795,0
12336,54.3,20.05,0,-0.024266,0,12395,50.923,0.04,0,4,0,0.028795,0
12336,54.3,20.05,0,-0.024266,0,12395,50.923,0.2,-5.1752e-05,4,-0.0022357,0.029024,0
12337,54.3,20.049,0,-0.02441,0,12395,50.923,0.2,-5.1752e-05,4,-0.0022357,0.029421,0
12337,54.3,20.049,0,-0.02441,0,12395,50.923,0.2,-5.1752e-05,4,-0.0022357,0.029421,0
12338,54.3,20.048,0,-0.024551,0,12395,50.923,0.36,-0.00034574,4,-0.010064,0.030062,0
12338,54.3,20.048,0,-0.024551,0,12395,50.923,0.36,-0.00034574,4,-0.010064,0.030062,0
12338,54.3,20.048,0,-0.024551,0,12395,50.923,0.36,-0.00034574,4,-0.010064,0.030062,0
12338,54.3,20.048,0,-0.024551,0,12395,50.923,0.36,-0.00034574,4,-0.010064,0.030062,0
12338,54.3,20.048,0,-0.024551,0,12395,50.923,0.36,-0.00034574,4,-0.010064,0.030062,0
12338,54.3,20.047,0,-0.024623,0,12395,50.923,0.36,-0.00034574,4,-0.010064,0.030272,0
12338,54.3,20.047,0,-0.024623,0,12395,50.923,0.6,-0.001637,3.9999,-0.029036,0.030622,0
12338,54.3,20.047,0,-0.024623,0,12395,50.923,0.6,-0.001637,3.9999,-0.029036,0.030622,0
12338,54.3,20.047,0,-0.024623,0,12395,50.923,0.68,-0.0023604,3.9999,-0.037041,0.030737,0
12338,54.3,20.047,0,-0.024623,0,12395,50.923,0.68,-0.0023604,3.9999,-0.037041,0.030737,0
12338,54.3,20.047,0,-0.024623,0,12395,50.923,0.68,-0.0023604,3.9999,-0.037041,0.030737,0
12338,54.3,20.047,0,-0.024623,0,12395,50.923,0.68,-0.0023604,3.9999,-0.037041,0.030737,0
12338,54.3,20.047,0,-0.024623,0,12395,50.923,0.68,-0.0023604,3.9999,-0.037041,0.030737,0
12338,54.3,20.047,0,-0.024623,0,12395,50.923,0.68,-0.0023604,3.9999,-0.037041,0.030737,0
12339,54.3,20.046,0,-0.024833,0,12395,50.923,0.68,-0.0023604,3.9999,-0.037041,0.031394,0
12340,54.3,20.045,0,-0.024975,0,12395,50.922,0.83999,-0.0043416,3.9998,-0.055279,0.032085,0
12340,54.3,20.045,0,-0.024975,0,12395,50.922,0.83999,-0.0043416,3.9998,-0.055279,0.032085,0
12341,54.3,20.044,0,-0.025045,0,12395,50.922,0.83999,-0.0043416,3.9998,-0.055279,0.032319,0
12341,54.3,20.044,0,-0.025114,0,12395,50.922,0.83999,-0.0043416,3.9998,-0.055279,0.032556,0
12341,54.3,20.044,0,-0.025114,0,12395,50.922,0.83999,-0.0043416,3.9998,-0.055279,0.032556,0
12341,54.3,20.044,0,-0.025114,0,12396,50.922,1.2399,-0.012939,3.9991,-0.11006,0.033149,0
12341,54.3,20.044,0,-0.025114,0,12396,50.922,1.2399,-0.012939,3.9991,-0.11006,0.033149,0
12341,54.3,20.044,0,-0.025114,0,12396,50.922,1.2399,-0.012939,3.9991,-0.11006,0.033149,0
12341,54.3,20.044,0,-0.025114,0,12396,50.922,1.2399,-0.012939,3.9991,-0.11006,0.033149,0
12341,54.3,20.044,0,-0.025114,0,12396,50.922,1.2399,-0.012939,3.9991,-0.11006,0.033149,0
12341,54.3,20.044,0,-0.025114,0,12396,50.922,1.2399,-0.012939,3.9991,-0.11006,0.033149,0
12341,54.3,20.044,0,-0.025114,0,12396,50.921,1.3199,-0.015341,3.9989,-0.12185,0.033266,0
12341,54.3,20.044,0,-0.025114,0,12396,50.921,1.3199,-0.015341,3.9989,-0.12185,0.033266,0
12341,54.3,20.044,0,-0.025114,0,12396,50.921,1.3999,-0.017979,3.9987,-0.13371,0.033382,0
12341,54.3,20.044,0,-0.025114,0,12396,50.921,1.3999,-0.017979,3.9987,-0.13371,0.033382,0
12341,54.3,20.044,0,-0.025114,0,12396,50.921,1.3999,-0.017979,3.9987,-0.13371,0.033382,0
12341,54.3,20.044,0,-0.025114,0,12396,50.92,1.4799,-0.02085,3.9984,-0.14552,0.033498,0
12341,54.3,20.044,0,-0.025114,0,12396,50.92,1.4799,-0.02085,3.9984,-0.14552,0.033498,0
12344,54.3,20.04,0,-0.025675,0,12396,50.92,1.6398,-0.02728,3.9978,-0.16863,0.035817,0
12344,54.3,20.04,0,-0.025675,0,12396,50.918,1.7997,-0.034587,3.9972,-0.19042,0.036056,0
12344,54.3,20.04,0,-0.025675,0,12396,50.918,1.7997,-0.034587,3.9972,-0.19042,0.036056,0
12344,54.3,20.04,0,-0.025675,0,12396,50.918,1.7997,-0.034587,3.9972,-0.19042,0.036056,0
12345,54.3,20.039,0,-0.025813,0,12396,50.918,1.7997,-0.034587,3.9972,-0.19042,0.036622,0
12345,54.3,20.038,0,-0.025882,0,12396,50.918,1.7997,-0.034587,3.9972,-0.19042,0.036912,0
12345,54.3,20.038,0,-0.025882,0,12396,50.918,1.7997,-0.034587,3.9972,-0.19042,0.036912,0
12345,54.3,20.038,0,-0.025882,0,12396,50.918,1.7997,-0.034587,3.9972,-0.19042,0.036912,0
12345,54.3,20.038,0,-0.025882,0,12396,50.918,1.7997,-0.034587,3.9972,-0.19042,0.036912,0
12346,54.3,20.038,0,-0.025952,0,12396,50.918,1.7997,-0.034587,3.9972,-0.19042,0.037206,0
12346,54.3,20.037,0,-0.026021,0,12396,50.918,1.7997,-0.034587,3.9972,-0.19042,0.037505,0
12346,54.3,20.037,0,-0.026021,0,12396,50.918,1.7997,-0.034587,3.9972,-0.19042,0.037505,0
12346,54.3,20.037,0,-0.026021,0,12396,50.918,1.7997,-0.034587,3.9972,-0.19042,0.037505,0
12347,54.3,20.037,0,-0.026089,0,12396,50.918,1.7997,-0.034587,3.9972,-0.19042,0.037809,0
12347,54.3,20.037,0,-0.026089,0,12396,50.918,1.7997,-0.034587,3.9972,-0.19042,0.037809,0
12347,54.3,20.036,0,-0.026159,0,12396,50.918,1.7997,-0.034587,3.9972,-0.19042,0.038117,0
12347,54.3,20.036,0,-0.026159,0,12396,50.918,1.7997,-0.034587,3.9972,-0.19042,0.038117,0
12347,54.3,20.036,0,-0.026159,0,12396,50.911,2.3591,-0.065783,3.9947,-0.24693,0.038964,0
12347,54.3,20.036,0,-0.026159,0,12396,50.911,2.3591,-0.065783,3.9947,-0.24693,0.038964,0
12347,54.3,20.036,0,-0.026159,0,12396,50.911,2.3591,-0.065783,3.9947,-0.24693,0.038964,0
12347,54.3,20.036,0,-0.026159,0,12396,50.911,2.3591,-0.065783,3.9947,-0.24693,0.038964,0
12347,54.3,20.036,0,-0.026159,0,12396,50.911,2.3591,-0.065783,3.9947,-0.24693,0.038964,0
12347,54.3,20.036,0,-0.026159,0,12396,50.911,2.3591,-0.065783,3.9947,-0.24693,0.038964,0
12348,54.3,20.035,0,-0.026297,0,12396,50.911,2.3591,-0.065783,3.9947,-0.24693,0.039607,0
12349,54.3,20.034,0,-0.026434,0,12396,50.908,2.5189,-0.075787,3.9942,-0.25535,0.040511,0
12349,54.3,20.034,0,-0.026434,0,12396,50.908,2.5189,-0.075787,3.9942,-0.25535,0.040511,0
12349,54.3,20.034,0,-0.026434,0,12396,50.908,2.5189,-0.075787,3.9942,-0.25535,0.040511,0
12349,54.3,20.034,0,-0.026503,0,12396,50.908,2.5189,-0.075787,3.9942,-0.25535,0.040853,0
12349,54.3,20.033,0,-0.026571,0,12396,50.908,2.5189,-0.075787,3.9942,-0.25535,0.041201,0
12349,54.3,20.033,0,-0.026571,0,12396,50.908,2.5189,-0.075787,3.9942,-0.25535,0.041201,0
12349,54.3,20.033,0,-0.026571,0,12396,50.899,2.9182,-0.10136,3.9935,-0.25854,0.041788,0
12349,54.3,20.033,0,-0.026571,0,12396,50.899,2.9182,-0.10136,3.9935,-0.25854,0.041788,0
12349,54.3,20.033,0,-0.026571,0,12396,50.899,2.9182,-0.10136,3.9935,-0.25854,0.041788,0
12349,54.3,20.033,0,-0.026571,0,12396,50.899,2.9182,-0.10136,3.9935,-0.25854,0.041788,0
12349,54.3,20.033,0,-0.026571,0,12396,50.899,2.9182,-0.10136,3.9935,-0.25854,0.041788,0
12349,54.3,20.033,0,-0.026571,0,12396,50.899,2.9182,-0.10136,3.9935,-0.25854,0.041788,0
12349,54.3,20.033,0,-0.026571,0,12397,50.897,2.9981,-0.10641,3.9935,-0.25606,0.041902,0
12351,54.3,20.031,0,-0.026842,0,12397,50.897,2.9981,-0.10641,3.9935,-0.25606,0.043368,0
12351,54.3,20.031,0,-0.026842,0,12397,50.897,2.9981,-0.10641,3.9935,-0.25606,0.043368,0
12351,54.3,20.031,0,-0.026842,0,12397,50.897,2.9981,-0.10641,3.9935,-0.25606,0.043368,0
12351,54.3,20.031,0,-0.026842,0,12397,50.897,2.9981,-0.10641,3.9935,-0.25606,0.043368,0
12351,54.3,20.031,0,-0.026842,0,12397,50.897,2.9981,-0.10641,3.9935,-0.25606,0.043368,0
12351,54.3,20.031,0,-0.026842,0,12397,50.897,2.9981,-0.10641,3.9935,-0.25606,0.043368,0
12351,54.3,20.031,0,-0.026842,0,12397,50.893,3.1579,-0.11627,3.9936,-0.24809,0.043597,0
12351,54.3,20.031,0,-0.026842,0,12397,50.893,3.1579,-0.11627,3.9936,-0.24809,0.043597,0
12351,54.3,20.031,0,-0.026842,0,12397,50.893,3.1579,-0.11627,3.9936,-0.24809,0.043597,0
12351,54.3,20.031,0,-0.026842,0,12397,50.893,3.1579,-0.11627,3.9936,-0.24809,0.043597,0
12351,54.3,20.031,0,-0.026842,0,12397,50.893,3.1579,-0.11627,3.9936,-0.24809,0.043597,0
12351,54.3,20.031,0,-0.026842,0,12397,50.885,3.3975,-0.13021,3.9942,-0.22901,0.043932,0
12351,54.3,20.031,0,-0.026842,0,12397,50.885,3.3975,-0.13021,3.9942,-0.22901,0.043932,0
12351,54.3,20.031,0,-0.026842,0,12397,50.883,3.4774,-0.13456,3.9945,-0.22091,0.044042,0
12351,54.3,20.031,0,-0.026842,0,12397,50.883,3.4774,-0.13456,3.9945,-0.22091,0.044042,0
12351,54.3,20.031,0,-0.026842,0,12397,50.874,3.7171,-0.14648,3.9955,-0.19206,0.044364,0
12351,54.3,20.031,0,-0.026842,0,12397,50.871,3.797,-0.15004,3.996,-0.18111,0.044468,0
12355,54.3,20.025,0,-0.027516,0,12397,50.871,3.797,-0.15004,3.996,-0.18111,0.048658,0
12355,54.3,20.025,0,-0.027516,0,12397,50.871,3.797,-0.15004,3.996,-0.18111,0.048658,0
12355,54.3,20.025,0,-0.027516,0,12397,50.865,3.9569,-0.15646,3.9969,-0.15759,0.048868,0
12355,54.3,20.025,0,-0.027516,0,12397,50.865,3.9569,-0.15646,3.9969,-0.15759,0.048868,0
12355,54.3,20.025,0,-0.027516,0,12397,50.862,4.0369,-0.15931,3.9974,-0.14514,0.048971,0
12355,54.3,20.025,0,-0.027516,0,12398,50.859,4.1168,-0.1619,3.9979,-0.13231,0.049073,0
12355,54.3,20.025,0,-0.027516,0,12398,50.859,4.1168,-0.1619,3.9979,-0.13231,0.049073,0
12355,54.3,20.025,0,-0.027516,0,12398,50.859,4.1168,-0.1619,3.9979,-0.13231,0.049073,0
12355,54.3,20.025,0,-0.027516,0,12398,50.859,4.1168,-0.1619,3.9979,-0.13231,0.049073,0
12355,54.3,20.025,0,-0.027516,0,12398,50.859,4.1168,-0.1619,3.9979,-0.13231,0.049073,0
12355,54.3,20.025,0,-0.027516,0,12398,50.859,4.1168,-0.1619,3.9979,-0.13231,0.049073,0
12355,54.3,20.025,0,-0.027516,0,12398,50.856,4.1968,-0.16423,3.9984,-0.11918,0.049173,0
12355,54.3,20.025,0,-0.027516,0,12398,50.856,4.1968,-0.16423,3.9984,-0.11918,0.049173,0
12355,54.3,20.025,0,-0.027516,0,12398,50.852,4.2768,-0.16629,3.9989,-0.1058,0.049272,0
12355,54.3,20.025,0,-0.027516,0,12398,50.849,4.3568,-0.16809,3.9994,-0.09224,0.049369,0
12355,54.3,20.025,0,-0.027516,0,12398,50.849,4.3568,-0.16809,3.9994,-0.09224,0.049369,0
12359,54.3,20.02,0,-0.028118,0,12398,50.846,4.4368,-0.16962,3.9999,-0.07856,0.053966,0
12359,54.3,20.02,0,-0.028183,0,12398,50.846,4.4368,-0.16962,3.9999,-0.07856,0.054517,0
12359,54.3,20.02,0,-0.028183,0,12398,50.846,4.4368,-0.16962,3.9999,-0.07856,0.054517,0
12359,54.3,20.02,0,-0.028183,0,12398,50.846,4.4368,-0.16962,3.9999,-0.07856,0.054517,0
12359,54.3,20.02,0,-0.028183,0,12398,50.846,4.4368,-0.16962,3.9999,-0.07856,0.054517,0
12359,54.3,20.02,0,-0.028183,0,12398,50.846,4.4368,-0.16962,3.9999,-0.07856,0.054517,0
12359,54.3,20.02,0,-0.028183,0,12398,50.846,4.4368,-0.16962,3.9999,-0.07856,0.054517,0
12359,54.3,20.02,0,-0.028183,0,12398,50.846,4.4368,-0.16962,3.9999,-0.07856,0.054517,0
12359,54.3,20.02,0,-0.028183,0,12398,50.846,4.4368,-0.16962,3.9999,-0.07856,0.054517,0
12359,54.3,20.02,0,-0.028183,0,12398,50.846,4.4368,-0.16962,3.9999,-0.07856,0.054517,0
12359,54.3,20.02,0,-0.028183,0,12398,50.846,4.4368,-0.16962,3.9999,-0.07856,0.054517,0
12359,54.3,20.02,0,-0.028183,0,12398,50.846,4.4368,-0.16962,3.9999,-0.07856,0.054517,0
12359,54.3,20.02,0,-0.028183,0,12398,50.832,4.7569,-0.17303,4.0018,-0.023849,0.054876,0
12359,54.3,20.02,0,-0.028183,0,12398,50.832,4.7569,-0.17303,4.0018,-0.023849,0.054876,0
12359,54.3,20.02,0,-0.028183,0,12398,50.832,4.7569,-0.17303,4.0018,-0.023849,0.054876,0
12359,54.3,20.02,0,-0.028183,0,12398,50.832,4.7569,-0.17303,4.0018,-0.023849,0.054876,0
12359,54.3,20.02,0,-0.028183,0,12398,50.832,4.7569,-0.17303,4.0018,-0.023849,0.054876,0
12359,54.3,20.02,0,-0.028183,0,12398,50.832,4.7569,-0.17303,4.0018,-0.023849,0.054876,0
12359,54.3,20.02,0,-0.028183,0,12398,50.832,4.7569,-0.17303,4.0018,-0.023849,0.054876,0
12359,54.3,20.02,0,-0.028183,0,12398,50.828,4.8369,-0.17312,4.0024,-0.0061597,0.054962,0
12359,54.3,20.02,0,-0.028183,0,12398,50.828,4.8369,-0.17312,4.0024,-0.0061597,0.054962,0
12359,54.3,20.02,0,-0.028183,0,12398,50.825,4.917,-0.17265,4.0032,0.019976,0.055046,0
12362,54.3,20.016,0,-0.028643,0,12398,50.825,4.917,-0.17265,4.0032,0.019976,0.059214,0
12362,54.3,20.016,0,-0.028643,0,12398,50.825,4.917,-0.17265,4.0032,0.019976,0.059214,0
12362,54.3,20.015,0,-0.02871,0,12398,50.825,4.917,-0.17265,4.0032,0.019976,0.059861,0
12362,54.3,20.015,0,-0.02871,0,12399,50.8,5.5585,-0.12956,4.0138,0.51768,0.060416,0
12362,54.3,20.015,0,-0.02871,0,12399,50.8,5.5585,-0.12956,4.0138,0.51768,0.060416,0
12362,54.3,20.015,0,-0.02871,0,12399,50.798,5.6388,-0.11705,4.0144,0.61178,0.060477,0
12362,54.3,20.015,0,-0.02871,0,12399,50.798,5.6388,-0.11705,4.0144,0.61178,0.060477,0
12362,54.3,20.015,0,-0.02871,0,12399,50.798,5.6388,-0.11705,4.0144,0.61178,0.060477,0
12362,54.3,20.015,0,-0.02871,0,12399,50.798,5.6388,-0.11705,4.0144,0.61178,0.060477,0
12362,54.3,20.015,0,-0.02871,0,12399,50.798,5.6388,-0.11705,4.0144,0.61178,0.060477,0
12362,54.3,20.015,0,-0.02871,0,12399,50.796,5.7191,-0.10254,4.0145,0.71159,0.060536,0
12362,54.3,20.015,0,-0.02871,0,12399,50.796,5.7191,-0.10254,4.0145,0.71159,0.060536,0
12362,54.3,20.015,0,-0.02871,0,12399,50.796,5.7191,-0.10254,4.0145,0.71159,0.060536,0
12362,54.3,20.015,0,-0.02871,0,12399,50.796,5.7191,-0.10254,4.0145,0.71159,0.060536,0
12362,54.3,20.015,0,-0.02871,0,12400,50.794,5.7994,-0.085928,4.0139,0.81661,0.060593,0
12362,54.3,20.015,0,-0.02871,0,12400,50.794,5.7994,-0.085928,4.0139,0.81661,0.060593,0
12362,54.3,20.015,0,-0.02871,0,12400,50.792,5.8796,-0.06712,4.0125,0.92629,0.060648,0
12362,54.3,20.015,0,-0.02871,0,12400,50.792,5.8796,-0.06712,4.0125,0.92629,0.060648,0
12362,54.3,20.015,0,-0.02871,0,12400,50.792,5.8796,-0.06712,4.0125,0.92629,0.060648,0
12362,54.3,20.015,0,-0.02871,0,12400,50.791,6.04,-0.022615,4.0067,1.1574,0.060752,0
12366,54.3,20.01,0,-0.029361,0,12400,50.791,6.04,-0.022615,4.0067,1.1574,0.067863,0
12366,54.3,20.01,0,-0.029361,0,12400,50.791,6.1999,0.031465,3.996,1.4001,0.067919,0
12366,54.3,20.01,0,-0.029361,0,12400,50.791,6.1999,0.031465,3.996,1.4001,0.067919,0
12367,54.3,20.008,0,-0.029488,0,12400,50.791,6.1999,0.031465,3.996,1.4001,0.069533,0
12367,54.3,20.008,0,-0.029488,0,12400,50.791,6.1999,0.031465,3.996,1.4001,0.069533,0
12367,54.3,20.008,0,-0.029488,0,12400,50.791,6.1999,0.031465,3.996,1.4001,0.069533,0
12367,54.3,20.008,0,-0.029553,0,12400,50.791,6.1999,0.031465,3.996,1.4001,0.070369,0
12367,54.3,20.008,0,-0.029553,0,12400,50.791,6.1999,0.031465,3.996,1.4001,0.070369,0
12367,54.3,20.008,0,-0.029553,0,12401,50.796,6.4387,0.13114,3.9692,1.7754,0.070409,0
12369,54.3,20.006,0,-0.029744,0,12401,50.8,6.5178,0.16935,3.957,1.9011,0.07301,0
12369,54.3,20.006,0,-0.029744,0,12401,50.8,6.5178,0.16935,3.957,1.9011,0.07301,0
12369,54.3,20.005,0,-0.029808,0,12401,50.8,6.5178,0.16935,3.957,1.9011,0.073917,0
12369,54.3,20.005,0,-0.02987,0,12401,50.8,6.5178,0.16935,3.957,1.9011,0.074846,0
12369,54.3,20.005,0,-0.02987,0,12401,50.8,6.5178,0.16935,3.957,1.9011,0.074846,0
12370,54.3,20.004,0,-0.029934,0,12401,50.8,6.5178,0.16935,3.957,1.9011,0.075799,0
12370,54.3,20.004,0,-0.029934,0,12401,50.8,6.5178,0.16935,3.957,1.9011,0.075799,0
12370,54.3,20.004,0,-0.029934,0,12401,50.8,6.5178,0.16935,3.957,1.9011,0.075799,0
12370,54.3,20.004,0,-0.029934,0,12401,50.8,6.5178,0.16935,3.957,1.9011,0.075799,0
12370,54.3,20.004,0,-0.029934,0,12401,50.8,6.5178,0.16935,3.957,1.9011,0.075799,0
12370,54.3,20.004,0,-0.029934,0,12401,50.8,6.5178,0.16935,3.957,1.9011,0.075799,0
12370,54.3,20.004,0,-0.029998,0,12401,50.8,6.5178,0.16935,3.957,1.9011,0.076777,0
12370,54.3,20.004,0,-0.029998,0,12401,50.8,6.5178,0.16935,3.957,1.9011,0.076777,0
12370,54.3,20.004,0,-0.029998,0,12401,50.8,6.5178,0.16935,3.957,1.9011,0.076777,0
12370,54.3,20.004,0,-0.029998,0,12401,50.8,6.5178,0.16935,3.957,1.9011,0.076777,0
12370,54.3,20.004,0,-0.029998,0,12401,50.8,6.5178,0.16935,3.957,1.9011,0.076777,0
12370,54.3,20.004,0,-0.029998,0,12401,50.8,6.5178,0.16935,3.957,1.9011,0.076777,0
12370,54.3,20.004,0,-0.029998,0,12401,50.8,6.5178,0.16935,3.957,1.9011,0.076777,0
12370,54.3,20.004,0,-0.029998,0,12401,50.8,6.5178,0.16935,3.957,1.9011,0.076777,0
12370,54.3,20.004,0,-0.029998,0,12402,50.837,6.9856,0.44933,3.8478,2.6211,0.076596,0
12370,54.3,20.004,0,-0.029998,0,12402,50.837,6.9856,0.44933,3.8478,2.6211,0.076596,0
12370,54.3,20.004,0,-0.029998,0,12402,50.837,6.9856,0.44933,3.8478,2.6211,0.076596,0
12372,54.3,20.001,0,-0.030249,0,12402,50.847,7.0621,0.50395,3.8239,2.7307,0.080586,0
12372,54.3,20.001,0,-0.030249,0,12402,50.847,7.0621,0.50395,3.8239,2.7307,0.080586,0
12372,54.3,20.001,0,-0.030249,0,12402,50.883,7.2884,0.67991,3.7443,3.0333,0.080373,0
12373,54.3,19.999,0,-0.0305,0,12402,50.883,7.2884,0.67991,3.7443,3.0333,0.084774,0
12373,54.3,19.999,0,-0.0305,0,12402,50.883,7.2884,0.67991,3.7443,3.0333,0.084774,0
12373,54.3,19.999,0,-0.0305,0,12402,50.883,7.2884,0.67991,3.7443,3.0333,0.084774,0
12373,54.3,19.999,0,-0.0305,0,12403,50.949,7.5821,0.93903,3.625,3.3646,0.084334,0
12374,54.3,19.998,0,-0.030627,0,12403,50.949,7.5821,0.93903,3.625,3.3646,0.08666,0
12374,54.3,19.998,0,-0.030627,0,12403,50.949,7.5821,0.93903,3.625,3.3646,0.08666,0
12375,54.3,19.997,0,-0.03069,0,12403,50.949,7.5821,0.93903,3.625,3.3646,0.08787,0
12375,54.3,19.997,0,-0.03069,0,12403,50.949,7.5821,0.93903,3.625,3.3646,0.08787,0
12375,54.3,19.996,0,-0.030752,0,12403,50.949,7.5821,0.93903,3.625,3.3646,0.089115,0
12375,54.3,19.996,0,-0.030752,0,12403,50.949,7.5821,0.93903,3.625,3.3646,0.089115,0
12375,54.3,19.996,0,-0.030752,0,12403,51.036,7.8661,1.2196,3.501,3.6025,0.088489,0
12375,54.3,19.996,0,-0.030752,0,12403,51.036,7.8661,1.2196,3.501,3.6025,0.088489,0
12375,54.3,19.996,0,-0.030752,0,12403,51.036,7.8661,1.2196,3.501,3.6025,0.088489,0
12375,54.3,19.996,0,-0.030752,0,12403,51.036,7.8661,1.2196,3.501,3.6025,0.088489,0
12375,54.3,19.996,0,-0.030752,0,12403,51.036,7.8661,1.2196,3.501,3.6025,0.088489,0
12375,54.3,19.996,0,-0.030752,0,12403,51.062,7.9355,1.2921,3.4706,3.6469,0.088323,0
12375,54.3,19.996,0,-0.030752,0,12403,51.062,7.9355,1.2921,3.4706,3.6469,0.088323,0
12375,54.3,19.996,0,-0.030752,0,12404,51.089,8.0045,1.3652,3.4435,3.6698,0.088154,0
12375,54.3,19.996,0,-0.030752,0,12404,51.117,8.0735,1.4351,3.4414,3.5543,0.087984,0
12375,54.3,19.996,0,-0.030752,0,12404,51.117,8.0735,1.4351,3.4414,3.5543,0.087984,0
12375,54.3,19.996,0,-0.030752,0,12404,51.117,8.0735,1.4351,3.4414,3.5543,0.087984,0
12375,54.3,19.996,0,-0.030752,0,12404,51.117,8.0735,1.4351,3.4414,3.5543,0.087984,0
12378,54.3,19.992,0,-0.03119,0,12404,51.177,8.2115,1.5691,3.44,3.3543,0.096798,0
12378,54.3,19.992,0,-0.03119,0,12404,51.177,8.2115,1.5691,3.44,3.3543,0.096798,0
12378,54.3,19.992,0,-0.03119,0,12404,51.243,8.3494,1.6965,3.4414,3.1869,0.096313,0
12378,54.3,19.992,0,-0.03119,0,12404,51.243,8.3494,1.6965,3.4414,3.1869,0.096313,0
12378,54.3,19.992,0,-0.03119,0,12404,51.243,8.3494,1.6965,3.4414,3.1869,0.096313,0
12378,54.3,19.992,0,-0.03119,0,12404,51.243,8.3494,1.6965,3.4414,3.1869,0.096313,0
12378,54.3,19.992,0,-0.03119,0,12404,51.243,8.3494,1.6965,3.4414,3.1869,0.096313,0
12378,54.3,19.992,0,-0.03119,0,12404,51.243,8.3494,1.6965,3.4414,3.1869,0.096313,0
12378,54.3,19.992,0,-0.03119,0,12404,51.243,8.3494,1.6965,3.4414,3.1869,0.096313,0
12379,54.3,19.991,0,-0.031312,0,12404,51.243,8.3494,1.6965,3.4414,3.1869,0.099238,0
12379,54.3,19.991,0,-0.031312,0,12405,51.314,8.4875,1.818,3.4448,3.0435,0.098703,0
12379,54.3,19.991,0,-0.031312,0,12405,51.314,8.4875,1.818,3.4448,3.0435,0.098703,0
12379,54.3,19.991,0,-0.031312,0,12405,51.314,8.4875,1.818,3.4448,3.0435,0.098703,0
12379,54.3,19.991,0,-0.031312,0,12405,51.314,8.4875,1.818,3.4448,3.0435,0.098703,0
12379,54.3,19.991,0,-0.031312,0,12405,51.351,8.5566,1.8769,3.4472,2.9788,0.098435,0
12379,54.3,19.991,0,-0.031312,0,12405,51.351,8.5566,1.8769,3.4472,2.9788,0.098435,0
12379,54.3,19.991,0,-0.031312,0,12405,51.351,8.5566,1.8769,3.4472,2.9788,0.098435,0
12380,54.3,19.989,0,-0.031497,0,12405,51.351,8.5566,1.8769,3.4472,2.9788,0.10304,0
12380,54.3,19.989,0,-0.031497,0,12405,51.351,8.5566,1.8769,3.4472,2.9788,0.10304,0
12380,54.3,19.989,0,-0.031497,0,12406,51.511,8.8336,2.1011,3.461,2.752,0.10181,0
12380,54.3,19.989,0,-0.031497,0,12406,51.511,8.8336,2.1011,3.461,2.752,0.10181,0
12381,54.3,19.986,0,-0.031741,0,12406,51.511,8.8336,2.1011,3.461,2.752,0.10841,0
12381,54.3,19.986,0,-0.031741,0,12406,51.511,8.8336,2.1011,3.461,2.752,0.10841,0
12383,54.3,19.984,0,-0.031922,0,12406,51.598,8.9726,2.207,3.4704,2.6515,0.11308,0
12383,54.3,19.984,0,-0.031982,0,12406,51.598,8.9726,2.207,3.4704,2.6515,0.11501,0
12383,54.3,19.984,0,-0.031982,0,12406,51.598,8.9726,2.207,3.4704,2.6515,0.11501,0
12383,54.3,19.983,0,-0.032043,0,12406,51.598,8.9726,2.207,3.4704,2.6515,0.11701,0
12383,54.3,19.983,0,-0.032043,0,12406,51.598,8.9726,2.207,3.4704,2.6515,0.11701,0
12384,54.3,19.982,0,-0.032104,0,12406,51.598,8.9726,2.207,3.4704,2.6515,0.11907,0
12384,54.3,19.982,0,-0.032104,0,12406,51.598,8.9726,2.207,3.4704,2.6515,0.11907,0
12384,54.3,19.982,0,-0.032104,0,12406,51.598,8.9726,2.207,3.4704,2.6515,0.11907,0
12384,54.3,19.982,0,-0.032104,0,12406,51.598,8.9726,2.207,3.4704,2.6515,0.11907,0
12384,54.3,19.982,0,-0.032104,0,12406,51.598,8.9726,2.207,3.4704,2.6515,0.11907,0
12384,54.3,19.982,0,-0.032104,0,12406,51.598,8.9726,2.207,3.4704,2.6515,0.11907,0
12384,54.3,19.982,0,-0.032104,0,12406,51.598,8.9726,2.207,3.4704,2.6515,0.11907,0
12384,54.3,19.982,0,-0.032104,0,12406,51.598,8.9726,2.207,3.4704,2.6515,0.11907,0
12384,54.3,19.982,0,-0.032104,0,12406,51.598,8.9726,2.207,3.4704,2.6515,0.11907,0
12384,54.3,19.982,0,-0.032104,0,12406,51.598,8.9726,2.207,3.4704,2.6515,0.11907,0
12384,54.3,19.982,0,-0.032104,0,12407,51.881,9.3923,2.5025,3.5097,2.3716,0.11616,0
12384,54.3,19.982,0,-0.032104,0,12407,51.881,9.3923,2.5025,3.5097,2.3716,0.11616,0
12384,54.3,19.982,0,-0.032104,0,12407,51.881,9.3923,2.5025,3.5097,2.3716,0.11616,0
12384,54.3,19.982,0,-0.032104,0,12407,51.881,9.3923,2.5025,3.5097,2.3716,0.11616,0
12384,54.3,19.982,0,-0.032104,0,12407,51.881,9.3923,2.5025,3.5097,2.3716,0.11616,0
12384,54.3,19.982,0,-0.032104,0,12407,51.881,9.3923,2.5025,3.5097,2.3716,0.11616,0
12384,54.3,19.982,0,-0.032104,0,12407,51.932,9.4628,2.5486,3.518,2.326,0.11569,0
12384,54.3,19.982,0,-0.032104,0,12407,51.932,9.4628,2.5486,3.518,2.326,0.11569,0
12385,54.3,19.682,0,-10,0,12407,51.932,9.4628,2.5486,3.518,2.326,0.12179,0
12387,54.3,18.882,0,-10,0,12408,52.089,9.6753,2.6814,3.5458,2.1881,0.12872,0
12388,54.3,18.282,0,-10,0,12408,52.254,9.8897,2.8059,3.5782,2.0466,0.13351,0
12388,54.3,18.282,0,-10,0,12409,52.426,10.106,2.9217,3.6153,1.8996,0.13137,0
12388,54.3,17.882,0,-10,0,12409,52.426,10.106,2.9217,3.6153,1.8996,0.13592,0
12388,54.3,17.882,0,-10,0,12409,52.426,10.106,2.9217,3.6153,1.8996,0.13592,0
12388,54.3,17.882,0,-10,0,12409,52.426,10.106,2.9217,3.6153,1.8996,0.13592,0
12388,54.3,17.882,0,-10,0,12409,52.426,10.106,2.9217,3.6153,1.8996,0.13592,0
12388,54.3,17.882,0,-10,0,12409,52.426,10.106,2.9217,3.6153,1.8996,0.13592,0
12388,54.3,17.882,0,-10,0,12409,52.426,10.106,2.9217,3.6153,1.8996,0.13592,0
12388,54.3,17.882,0,-10,0,12409,52.426,10.106,2.9217,3.6153,1.8996,0.13592,0
12388,54.3,17.882,0,-10,0,12409,52.426,10.106,2.9217,3.6153,1.8996,0.13592,0
12388,54.3,17.882,0,-10,0,12409,52.426,10.106,2.9217,3.6153,1.8996,0.13592,0
12389,54.3,17.682,0,-10,0,12409,52.426,10.106,2.9217,3.6153,1.8996,0.13827,0
12389,54.3,17.682,0,-10,0,12409,52.426,10.106,2.9217,3.6153,1.8996,0.13827,0
12389,54.3,17.682,0,-10,0,12409,52.426,10.106,2.9217,3.6153,1.8996,0.13827,0
12389,54.3,17.682,0,-10,0,12409,52.426,10.106,2.9217,3.6153,1.8996,0.13827,0
12389,54.3,17.682,0,-10,0,12409,52.426,10.106,2.9217,3.6153,1.8996,0.13827,0
12389,54.3,17.682,0,-10,0,12409,52.426,10.106,2.9217,3.6153,1.8996,0.13827,0
12389,54.3,17.682,0,-10,0,12409,52.426,10.106,2.9217,3.6153,1.8996,0.13827,0
12389,54.3,17.682,0,-10,0,12409,52.426,10.106,2.9217,3.6153,1.8996,0.13827,0
12389,54.3,17.682,0,-10,0,12409,52.426,10.106,2.9217,3.6153,1.8996,0.13827,0
12389,54.3,17.682,0,-10,0,12409,52.426,10.106,2.9217,3.6153,1.8996,0.13827,0
12389,54.3,17.682,0,-10,0,12409,52.426,10.106,2.9217,3.6153,1.8996,0.13827,0
12389,54.3,17.682,0,-10,0,12410,52.605,10.325,3.0285,3.6568,1.746,0.13588,0
12389,54.3,17.682,0,-10,0,12410,52.605,10.325,3.0285,3.6568,1.746,0.13588,0
12389,54.3,17.682,0,-10,0,12410,52.605,10.325,3.0285,3.6568,1.746,0.13588,0
12389,54.3,17.682,0,-10,0,12410,52.605,10.325,3.0285,3.6568,1.746,0.13588,0
12389,54.3,17.682,0,-10,0,12410,52.605,10.325,3.0285,3.6568,1.746,0.13588,0
12390,54.3,17.082,0,-10,0,12410,52.605,10.325,3.0285,3.6568,1.746,0.14294,0
12390,54.3,17.082,0,-10,0,12410,52.853,10.621,3.1561,3.7185,1.5295,0.13945,0
12390,54.3,17.082,0,-10,0,12410,52.853,10.621,3.1561,3.7185,1.5295,0.13945,0
12392,54.3,15.682,0,-10,0,12411,53.044,10.644,3.1884,-0.12858,0.42989,0.15179,0
12393,54.3,15.282,0,-10,0,12411,53.044,10.644,3.1884,-0.12858,0.42989,0.15685,0
12393,54.3,15.282,0,-10,0,12411,53.044,10.644,3.1884,-0.12858,0.42989,0.15685,0
12393,54.3,15.282,0,-10,0,12412,53.365,10.629,3.2387,-0.15853,0.52118,0.14845,0
12393,54.3,14.882,0,-10,0,12412,53.365,10.629,3.2387,-0.15853,0.52118,0.15317,0
12393,54.3,14.882,0,-10,0,12412,53.365,10.629,3.2387,-0.15853,0.52118,0.15317,0
12393,54.3,14.882,0,-10,0,12412,53.365,10.629,3.2387,-0.15853,0.52118,0.15317,0
12393,54.3,14.882,0,-10,0,12412,53.365,10.629,3.2387,-0.15853,0.52118,0.15317,0
12393,54.3,14.882,0,-10,0,12412,53.365,10.629,3.2387,-0.15853,0.52118,0.15317,0
12393,54.3,14.882,0,-10,0,12412,53.365,10.629,3.2387,-0.15853,0.52118,0.15317,0
12393,54.3,14.882,0,-10,0,12412,53.365,10.629,3.2387,-0.15853,0.52118,0.15317,0
12393,54.3,14.882,0,-10,0,12413,53.495,10.622,3.2594,-0.15776,0.51503,0.14983,0
12393,54.3,14.882,0,-10,0,12413,53.495,10.622,3.2594,-0.15776,0.51503,0.14983,0
12393,54.3,14.882,0,-10,0,12413,53.561,10.619,3.2694,-0.15496,0.50419,0.14822,0
12393,54.3,14.882,0,-10,0,12413,53.561,10.619,3.2694,-0.15496,0.50419,0.14822,0
12393,54.3,14.882,0,-10,0,12413,53.561,10.619,3.2694,-0.15496,0.50419,0.14822,0
12393,54.3,14.882,0,-10,0,12413,53.561,10.619,3.2694,-0.15496,0.50419,0.14822,0
12393,54.3,14.882,0,-10,0,12413,53.561,10.619,3.2694,-0.15496,0.50419,0.14822,0
12393,54.3,14.882,0,-10,0,12413,53.561,10.619,3.2694,-0.15496,0.50419,0.14822,0
12393,54.3,14.882,0,-10,0,12413,53.561,10.619,3.2694,-0.15496,0.50419,0.14822,0
12394,54.3,14.282,0,-10,0,12413,53.561,10.619,3.2694,-0.15496,0.50419,0.15515,0
12394,54.3,14.282,0,-10,0,12413,53.561,10.619,3.2694,-0.15496,0.50419,0.15515,0
12394,54.3,14.282,0,-10,0,12414,53.824,10.608,3.3053,-0.12941,0.41591,0.14843,0
12394,54.3,14.282,0,-10,0,12414,53.824,10.608,3.3053,-0.12941,0.41591,0.14843,0
12394,54.3,14.282,0,-10,0,12414,53.89,10.606,3.3128,-0.11978,0.38396,0.14683,0
12394,54.3,14.282,0,-10,0,12414,53.89,10.606,3.3128,-0.11978,0.38396,0.14683,0
12394,54.3,14.282,0,-10,0,12414,53.89,10.606,3.3128,-0.11978,0.38396,0.14683,0
12394,54.3,14.282,0,-10,0,12414,53.89,10.606,3.3128,-0.11978,0.38396,0.14683,0
12394,54.3,14.282,0,-10,0,12414,54.023,10.602,3.3256,-0.097113,0.3099,0.14374,0
12396,54.3,12.954,0,-8.3546,0,12414,54.023,10.602,3.3256,-0.097113,0.3099,0.15873,0
12396,54.3,12.954,0,-8.3546,0,12415,54.156,10.599,3.3351,-0.070342,0.22371,0.15512,0
12397,54.3,12.483,0,-7.3914,0,12415,54.223,10.598,3.3384,-0.055584,0.17656,0.15983,0
12397,54.3,12.483,0,-7.3914,0,12415,54.356,10.597,3.3419,-0.023652,0.075015,0.15617,0
12397,54.3,12.198,0,-6.8297,0,12415,54.356,10.597,3.3419,-0.023652,0.075015,0.16044,0
12397,54.3,12.198,0,-6.8297,0,12415,54.356,10.597,3.3419,-0.023652,0.075015,0.16044,0
12397,54.3,12.198,0,-6.8297,0,12415,54.356,10.597,3.3419,-0.023652,0.075015,0.16044,0
12397,54.3,12.198,0,-6.8297,0,12415,54.356,10.597,3.3419,-0.023652,0.075015,0.16044,0
12397,54.3,12.198,0,-6.8297,0,12415,54.356,10.597,3.3419,-0.023652,0.075015,0.16044,0
12397,54.3,12.198,0,-6.8297,0,12415,54.356,10.597,3.3419,-0.023652,0.075015,0.16044,0
12397,54.3,12.198,0,-6.8297,0,12415,54.356,10.597,3.3419,-0.023652,0.075015,0.16044,0
12397,54.3,12.198,0,-6.8297,0,12416,54.49,10.597,3.3411,0.011069,-0.035104,0.15675,0
12397,54.3,12.198,0,-6.8297,0,12416,54.49,10.597,3.3411,0.011069,-0.035104,0.15675,0
12397,54.3,12.198,0,-6.8297,0,12416,54.49,10.597,3.3411,0.011069,-0.035104,0.15675,0
12397,54.3,12.198,0,-6.8297,0,12416,54.49,10.597,3.3411,0.011069,-0.035104,0.15675,0
12397,54.3,12.198,0,-6.8297,0,12416,54.49,10.597,3.3411,0.011069,-0.035104,0.15675,0
12397,54.3,12.198,0,-6.8297,0,12416,54.49,10.597,3.3411,0.011069,-0.035104,0.15675,0
12397,54.3,12.198,0,-6.8297,0,12416,54.49,10.597,3.3411,0.011069,-0.035104,0.15675,0
12397,54.3,12.198,0,-6.8297,0,12416,54.49,10.597,3.3411,0.011069,-0.035104,0.15675,0
12397,54.3,12.198,0,-6.8297,0,12416,54.49,10.597,3.3411,0.011069,-0.035104,0.15675,0
12398,54.3,11.936,0,-6.3221,0,12416,54.49,10.597,3.3411,0.011069,-0.035104,0.16096,0
12398,54.3,11.936,0,-6.3221,0,12416,54.49,10.597,3.3411,0.011069,-0.035104,0.16096,0
12398,54.3,11.936,0,-6.3221,0,12416,54.49,10.597,3.3411,0.011069,-0.035104,0.16096,0
12398,54.3,11.936,0,-6.3221,0,12416,54.49,10.597,3.3411,0.011069,-0.035104,0.16096,0
12398,54.3,11.936,0,-6.3221,0,12416,54.49,10.597,3.3411,0.011069,-0.035104,0.16096,0
12398,54.3,11.936,0,-6.3221,0,12416,54.49,10.597,3.3411,0.011069,-0.035104,0.16096,0
12398,54.3,11.812,0,-6.0863,0,12416,54.49,10.597,3.3411,0.011069,-0.035104,0.16311,0
12398,54.3,11.812,0,-6.0863,0,12417,54.757,10.602,3.3251,0.086824,-0.27658,0.15565,0
12398,54.3,11.812,0,-6.0863,0,12417,54.757,10.602,3.3251,0.086824,-0.27658,0.15565,0
12399,54.3,11.359,0,-5.2457,0,12417,54.757,10.602,3.3251,0.086824,-0.27658,0.1638,0
12400,54.3,11.061,0,-4.7063,0,12417,54.757,10.602,3.3251,0.086824,-0.27658,0.17027,0
12400,54.3,11.061,0,-4.7063,0,12417,54.757,10.602,3.3251,0.086824,-0.27658,0.17027,0
12400,54.3,11.061,0,-4.7063,0,12418,55.217,10.626,3.2469,0.22916,-0.74808,0.15657,0
12400,54.3,10.793,0,-4.2305,0,12418,55.217,10.626,3.2469,0.22916,-0.74808,0.1623,0
12400,54.3,10.793,0,-4.2305,0,12418,55.217,10.626,3.2469,0.22916,-0.74808,0.1623,0
12400,54.3,10.793,0,-4.2305,0,12418,55.217,10.626,3.2469,0.22916,-0.74808,0.1623,0
12400,54.3,10.793,0,-4.2305,0,12418,55.217,10.626,3.2469,0.22916,-0.74808,0.1623,0
12400,54.3,10.793,0,-4.2305,0,12418,55.217,10.626,3.2469,0.22916,-0.74808,0.1623,0
12400,54.3,10.793,0,-4.2305,0,12418,55.217,10.626,3.2469,0.22916,-0.74808,0.1623,0
12401,54.3,10.71,0,-4.0843,0,12418,55.217,10.626,3.2469,0.22916,-0.74808,0.16428,0
12401,54.3,10.71,0,-4.0843,0,12419,55.41,10.643,3.1924,0.28969,-0.96258,0.15855,0
12401,54.3,10.71,0,-4.0843,0,12419,55.41,10.643,3.1924,0.28969,-0.96258,0.15855,0
12401,54.3,10.71,0,-4.0843,0,12419,55.41,10.643,3.1924,0.28969,-0.96258,0.15855,0
12401,54.3,10.71,0,-4.0843,0,12419,55.474,10.649,3.1714,0.30937,-1.0351,0.15673,0
12401,54.3,10.71,0,-4.0843,0,12419,55.474,10.649,3.1714,0.30937,-1.0351,0.15673,0
12401,54.3,10.71,0,-4.0843,0,12419,55.537,10.656,3.1488,0.32871,-1.1081,0.15495,0
12402,54.3,10.356,0,-2.8074,0,12419,55.537,10.656,3.1488,0.32871,-1.1081,0.16413,0
12402,54.3,10.356,0,-2.8074,0,12420,55.723,10.678,3.0725,0.38412,-1.3287,0.15842,0
12402,54.3,10.356,0,-2.8074,0,12420,55.723,10.678,3.0725,0.38412,-1.3287,0.15842,0
12402,54.3,10.356,0,-2.8074,0,12420,55.784,10.686,3.044,0.40154,-1.4026,0.1566,0
12402,54.3,10.356,0,-2.8074,0,12420,55.784,10.686,3.044,0.40154,-1.4026,0.1566,0
12402,54.3,10.356,0,-2.8074,0,12420,55.784,10.686,3.044,0.40154,-1.4026,0.1566,0
12402,54.3,10.213,0,-1.9945,0,12420,55.784,10.686,3.044,0.40154,-1.4026,0.16196,0
12402,54.3,10.213,0,-1.9945,0,12420,55.784,10.686,3.044,0.40154,-1.4026,0.16196,0
12402,54.3,10.213,0,-1.9945,0,12420,55.904,10.703,2.9828,0.4345,-1.5505,0.15821,0
12402,54.3,10.213,0,-1.9945,0,12420,55.904,10.703,2.9828,0.4345,-1.5505,0.15821,0
12402,54.3,10.213,0,-1.9945,0,12420,55.904,10.703,2.9828,0.4345,-1.5505,0.15821,0
12402,54.3,10.213,0,-1.9945,0,12420,55.904,10.703,2.9828,0.4345,-1.5505,0.15821,0
12402,54.3,10.213,0,-1.9945,0,12420,55.904,10.703,2.9828,0.4345,-1.5505,0.15821,0
12402,54.3,10.213,0,-1.9945,0,12421,55.964,10.712,2.9499,0.44994,-1.6243,0.1564,0
12403,54.3,10.131,0,3.2776,0,12421,56.022,10.722,2.9156,0.46462,-1.698,0.16155,0
12403,54.3,10.131,0,3.2776,0,12421,56.022,10.722,2.9156,0.46462,-1.698,0.16155,0
12403,54.3,10.196,0,3.2807,0,12421,56.022,10.722,2.9156,0.46462,-1.698,0.16338,0
12404,54.3,10.328,0,3.272,0,12421,56.022,10.722,2.9156,0.46462,-1.698,0.1672,0
12404,54.3,10.328,0,3.272,0,12421,56.022,10.722,2.9156,0.46462,-1.698,0.1672,0
12404,54.3,10.393,0,3.265,0,12421,56.022,10.722,2.9156,0.46462,-1.698,0.16919,0
12404,54.3,10.393,0,3.265,0,12421,56.022,10.722,2.9156,0.46462,-1.698,0.16919,0
12404,54.3,10.393,0,3.265,0,12421,56.022,10.722,2.9156,0.46462,-1.698,0.16919,0
12404,54.3,10.393,0,3.265,0,12421,56.022,10.722,2.9156,0.46462,-1.698,0.16919,0
12404,54.3,10.393,0,3.265,0,12421,56.022,10.722,2.9156,0.46462,-1.698,0.16919,0
12404,54.3,10.393,0,3.265,0,12421,56.022,10.722,2.9156,0.46462,-1.698,0.16919,0
12404,54.3,10.393,0,3.265,0,12421,56.022,10.722,2.9156,0.46462,-1.698,0.16919,0
12404,54.3,10.393,0,3.265,0,12421,56.022,10.722,2.9156,0.46462,-1.698,0.16919,0
12404,54.3,10.458,0,3.2579,0,12421,56.022,10.722,2.9156,0.46462,-1.698,0.17125,0
12404,54.3,10.458,0,3.2579,0,12421,56.022,10.722,2.9156,0.46462,-1.698,0.17125,0
12404,54.3,10.458,0,3.2579,0,12421,56.022,10.722,2.9156,0.46462,-1.698,0.17125,0
12404,54.3,10.458,0,3.2579,0,12421,56.022,10.722,2.9156,0.46462,-1.698,0.17125,0
12404,54.3,10.458,0,3.2579,0,12421,56.022,10.722,2.9156,0.46462,-1.698,0.17125,0
12404,54.3,10.458,0,3.2579,0,12421,56.022,10.722,2.9156,0.46462,-1.698,0.17125,0
12404,54.3,10.458,0,3.2579,0,12421,56.022,10.722,2.9156,0.46462,-1.698,0.17125,0
12404,54.3,10.458,0,3.2579,0,12421,56.022,10.722,2.9156,0.46462,-1.698,0.17125,0
12404,54.3,10.458,0,3.2579,0,12421,56.022,10.722,2.9156,0.46462,-1.698,0.17125,0
12404,54.3,10.458,0,3.2579,0,12422,56.41,10.794,2.6347,0.54259,-2.2034,0.15746,0
12405,54.3,10.718,0,3.2283,0,12423,56.462,10.805,2.5889,0.54973,-2.2733,0.16294,0
12405,54.3,10.846,0,3.2129,0,12423,56.612,10.839,2.4433,0.56449,-2.4778,0.16102,0
12405,54.3,10.846,0,3.2129,0,12424,56.842,10.896,2.1746,0.56573,-2.7973,0.15213,0
12405,54.3,10.846,0,3.2129,0,12424,56.842,10.896,2.1746,0.56573,-2.7973,0.15213,0
12405,54.3,10.846,0,3.2129,0,12424,56.842,10.896,2.1746,0.56573,-2.7973,0.15213,0
12405,54.3,10.846,0,3.2129,0,12424,56.842,10.896,2.1746,0.56573,-2.7973,0.15213,0
12405,54.3,10.846,0,3.2129,0,12424,56.842,10.896,2.1746,0.56573,-2.7973,0.15213,0
12405,54.3,10.846,0,3.2129,0,12424,56.842,10.896,2.1746,0.56573,-2.7973,0.15213,0
12405,54.3,10.846,0,3.2129,0,12424,56.842,10.896,2.1746,0.56573,-2.7973,0.15213,0
12405,54.3,10.846,0,3.2129,0,12424,56.842,10.896,2.1746,0.56573,-2.7973,0.15213,0
12405,54.3,10.846,0,3.2129,0,12424,56.842,10.896,2.1746,0.56573,-2.7973,0.15213,0
12406,54.3,11.166,0,3.172,0,12424,56.842,10.896,2.1746,0.56573,-2.7973,0.16118,0
12406,54.3,11.166,0,3.172,0,12424,56.842,10.896,2.1746,0.56573,-2.7973,0.16118,0
12406,54.3,11.166,0,3.172,0,12424,56.842,10.896,2.1746,0.56573,-2.7973,0.16118,0
12406,54.3,11.166,0,3.172,0,12424,56.842,10.896,2.1746,0.56573,-2.7973,0.16118,0
12406,54.3,11.166,0,3.172,0,12424,56.842,10.896,2.1746,0.56573,-2.7973,0.16118,0
12406,54.3,11.166,0,3.172,0,12424,56.842,10.896,2.1746,0.56573,-2.7973,0.16118,0
12406,54.3,11.166,0,3.172,0,12424,56.842,10.896,2.1746,0.56573,-2.7973,0.16118,0
12406,54.3,11.166,0,3.172,0,12424,56.842,10.896,2.1746,0.56573,-2.7973,0.16118,0
12406,54.3,11.166,0,3.172,0,12424,56.842,10.896,2.1746,0.56573,-2.7973,0.16118,0
12406,54.3,11.166,0,3.172,0,12424,56.842,10.896,2.1746,0.56573,-2.7973,0.16118,0
12406,54.3,11.166,0,3.172,0,12424,56.842,10.896,2.1746,0.56573,-2.7973,0.16118,0
12406,54.3,11.166,0,3.172,0,12425,56.926,10.919,2.0586,0.55781,-2.9159,0.15749,0
12406,54.3,11.166,0,3.172,0,12425,56.926,10.919,2.0586,0.55781,-2.9159,0.15749,0
12406,54.3,11.166,0,3.172,0,12425,56.926,10.919,2.0586,0.55781,-2.9159,0.15749,0
12406,54.3,11.166,0,3.172,0,12425,56.926,10.919,2.0586,0.55781,-2.9159,0.15749,0
12406,54.3,11.166,0,3.172,0,12425,56.926,10.919,2.0586,0.55781,-2.9159,0.15749,0
12407,54.3,11.355,0,3.1461,0,12425,56.926,10.919,2.0586,0.55781,-2.9159,0.1633,0
12407,54.3,11.355,0,3.1461,0,12425,56.926,10.919,2.0586,0.55781,-2.9159,0.1633,0
12408,54.3,11.605,0,3.1098,0,12426,57.08,10.962,1.8132,0.52763,-3.1343,0.1637,0
12409,54.3,11.791,0,3.0813,0,12427,57.214,11.002,1.5567,0.46385,-3.2105,0.16217,0
12409,54.3,11.791,0,3.0813,0,12427,57.273,11.019,1.4296,0.42042,-3.1689,0.15842,0
12409,54.3,11.975,0,3.0518,0,12427,57.273,11.019,1.4296,0.42042,-3.1689,0.16458,0
12409,54.3,11.975,0,3.0518,0,12428,57.352,11.041,1.2452,0.3507,-3.0347,0.15885,0
12409,54.3,11.975,0,3.0518,0,12428,57.352,11.041,1.2452,0.3507,-3.0347,0.15885,0
12409,54.3,11.975,0,3.0518,0,12428,57.352,11.041,1.2452,0.3507,-3.0347,0.15885,0
12409,54.3,11.975,0,3.0518,0,12428,57.352,11.041,1.2452,0.3507,-3.0347,0.15885,0
12409,54.3,11.975,0,3.0518,0,12428,57.352,11.041,1.2452,0.3507,-3.0347,0.15885,0
12409,54.3,11.975,0,3.0518,0,12428,57.352,11.041,1.2452,0.3507,-3.0347,0.15885,0
12409,54.3,11.975,0,3.0518,0,12428,57.352,11.041,1.2452,0.3507,-3.0347,0.15885,0
12409,54.3,11.975,0,3.0518,0,12428,57.352,11.041,1.2452,0.3507,-3.0347,0.15885,0
12409,54.3,11.975,0,3.0518,0,12428,57.352,11.041,1.2452,0.3507,-3.0347,0.15885,0
12410,54.3,12.097,0,3.0315,0,12428,57.352,11.041,1.2452,0.3507,-3.0347,0.16297,0
12410,54.3,12.097,0,3.0315,0,12428,57.352,11.041,1.2452,0.3507,-3.0347,0.16297,0
12410,54.3,12.097,0,3.0315,0,12428,57.352,11.041,1.2452,0.3507,-3.0347,0.16297,0
12410,54.3,12.097,0,3.0315,0,12428,57.352,11.041,1.2452,0.3507,-3.0347,0.16297,0
12410,54.3,12.097,0,3.0315,0,12428,57.352,11.041,1.2452,0.3507,-3.0347,0.16297,0
12410,54.3,12.097,0,3.0315,0,12428,57.352,11.041,1.2452,0.3507,-3.0347,0.16297,0
12410,54.3,12.097,0,3.0315,0,12428,57.352,11.041,1.2452,0.3507,-3.0347,0.16297,0
12410,54.3,12.097,0,3.0315,0,12428,57.352,11.041,1.2452,0.3507,-3.0347,0.16297,0
12410,54.3,12.097,0,3.0315,0,12428,57.352,11.041,1.2452,0.3507,-3.0347,0.16297,0
12410,54.3,12.097,0,3.0315,0,12428,57.352,11.041,1.2452,0.3507,-3.0347,0.16297,0
12410,54.3,12.097,0,3.0315,0,12428,57.352,11.041,1.2452,0.3507,-3.0347,0.16297,0
12410,54.3,12.097,0,3.0315,0,12428,57.399,11.054,1.1281,0.30469,-2.9096,0.15918,0
12410,54.3,12.097,0,3.0315,0,12428,57.421,11.059,1.0717,0.28248,-2.839,0.15735,0
12410,54.3,12.097,0,3.0315,0,12428,57.421,11.059,1.0717,0.28248,-2.839,0.15735,0
12411,54.3,12.397,0,2.9786,0,12428,57.421,11.059,1.0717,0.28248,-2.839,0.16802,0
12412,54.3,12.634,0,2.9342,0,12429,57.497,11.078,0.86177,0.20193,-2.5215,0.16904,0
12412,54.3,12.634,0,2.9342,0,12429,57.497,11.078,0.86177,0.20193,-2.5215,0.16904,0
12412,54.3,12.634,0,2.9342,0,12430,57.57,11.093,0.63761,0.12407,-2.0897,0.15918,0
12412,54.3,12.634,0,2.9342,0,12430,57.57,11.093,0.63761,0.12407,-2.0897,0.15918,0
12412,54.3,12.634,0,2.9342,0,12430,57.57,11.093,0.63761,0.12407,-2.0897,0.15918,0
12412,54.3,12.634,0,2.9342,0,12430,57.57,11.093,0.63761,0.12407,-2.0897,0.15918,0
12412,54.3,12.634,0,2.9342,0,12430,57.57,11.093,0.63761,0.12407,-2.0897,0.15918,0
12413,54.3,12.809,0,2.8997,0,12430,57.57,11.093,0.63761,0.12407,-2.0897,0.16579,0
12413,54.3,12.867,0,2.888,0,12430,57.57,11.093,0.63761,0.12407,-2.0897,0.16814,0
12413,54.3,12.867,0,2.888,0,12430,57.57,11.093,0.63761,0.12407,-2.0897,0.16814,0
12413,54.3,12.867,0,2.888,0,12430,57.57,11.093,0.63761,0.12407,-2.0897,0.16814,0
12413,54.3,12.867,0,2.888,0,12430,57.57,11.093,0.63761,0.12407,-2.0897,0.16814,0
12413,54.3,12.867,0,2.888,0,12430,57.57,11.093,0.63761,0.12407,-2.0897,0.16814,0
12413,54.3,12.867,0,2.888,0,12430,57.57,11.093,0.63761,0.12407,-2.0897,0.16814,0
12413,54.3,12.867,0,2.888,0,12431,57.604,11.099,0.52381,0.089557,-1.8333,0.16215,0
12414,54.3,13.039,0,2.8522,0,12431,57.614,11.1,0.48923,0.079896,-1.7501,0.16706,0
12414,54.3,13.153,0,2.8277,0,12432,57.632,11.103,0.42491,0.063063,-1.5884,0.16776,0
12414,54.3,13.153,0,2.8277,0,12432,57.632,11.103,0.42491,0.063063,-1.5884,0.16776,0
12414,54.3,13.153,0,2.8277,0,12432,57.655,11.106,0.33997,0.0433,-1.36,0.16181,0
12414,54.3,13.153,0,2.8277,0,12432,57.655,11.106,0.33997,0.0433,-1.36,0.16181,0
12414,54.3,13.153,0,2.8277,0,12432,57.655,11.106,0.33997,0.0433,-1.36,0.16181,0
12414,54.3,13.153,0,2.8277,0,12432,57.655,11.106,0.33997,0.0433,-1.36,0.16181,0
12414,54.3,13.153,0,2.8277,0,12432,57.655,11.106,0.33997,0.0433,-1.36,0.16181,0
12414,54.3,13.153,0,2.8277,0,12432,57.655,11.106,0.33997,0.0433,-1.36,0.16181,0
12414,54.3,13.153,0,2.8277,0,12432,57.655,11.106,0.33997,0.0433,-1.36,0.16181,0
12414,54.3,13.153,0,2.8277,0,12432,57.655,11.106,0.33997,0.0433,-1.36,0.16181,0
12415,54.3,13.321,0,2.7903,0,12432,57.655,11.106,0.33997,0.0433,-1.36,0.16891,0
12415,54.3,13.321,0,2.7903,0,12432,57.655,11.106,0.33997,0.0433,-1.36,0.16891,0
12415,54.3,13.321,0,2.7903,0,12432,57.655,11.106,0.33997,0.0433,-1.36,0.16891,0
12415,54.3,13.321,0,2.7903,0,12432,57.655,11.106,0.33997,0.0433,-1.36,0.16891,0
12415,54.3,13.321,0,2.7903,0,12432,57.655,11.106,0.33997,0.0433,-1.36,0.16891,0
12415,54.3,13.321,0,2.7903,0,12432,57.655,11.106,0.33997,0.0433,-1.36,0.16891,0
12415,54.3,13.321,0,2.7903,0,12432,57.655,11.106,0.33997,0.0433,-1.36,0.16891,0
12415,54.3,13.321,0,2.7903,0,12432,57.655,11.106,0.33997,0.0433,-1.36,0.16891,0
12415,54.3,13.321,0,2.7903,0,12432,57.655,11.106,0.33997,0.0433,-1.36,0.16891,0
12415,54.3,13.321,0,2.7903,0,12432,57.655,11.106,0.33997,0.0433,-1.36,0.16891,0
12415,54.3,13.321,0,2.7903,0,12433,57.667,11.107,0.29055,0.033212,-1.2185,0.16484,0
12415,54.3,13.321,0,2.7903,0,12433,57.667,11.107,0.29055,0.033212,-1.2185,0.16484,0
12415,54.3,13.321,0,2.7903,0,12433,57.667,11.107,0.29055,0.033212,-1.2185,0.16484,0
12415,54.3,13.321,0,2.7903,0,12433,57.667,11.107,0.29055,0.033212,-1.2185,0.16484,0
12415,54.3,13.321,0,2.7903,0,12433,57.667,11.107,0.29055,0.033212,-1.2185,0.16484,0
12416,54.3,13.432,0,2.7649,0,12433,57.667,11.107,0.29055,0.033212,-1.2185,0.16973,0
12416,54.3,13.432,0,2.7649,0,12433,57.667,11.107,0.29055,0.033212,-1.2185,0.16973,0
12416,54.3,13.432,0,2.7649,0,12434,57.686,11.109,0.20736,0.018815,-0.96326,0.16172,0
12416,54.3,13.432,0,2.7649,0,12434,57.694,11.11,0.17283,0.013871,-0.84984,0.15799,0
12418,54.3,13.866,0,2.6592,0,12434,57.694,11.11,0.17283,0.013871,-0.84984,0.17805,0
12419,54.3,13.972,0,2.6318,0,12434,57.694,11.11,0.17283,0.013871,-0.84984,0.18398,0
12419,54.3,14.025,0,2.618,0,12434,57.694,11.11,0.17283,0.013871,-0.84984,0.1871,0
12419,54.3,14.077,0,2.6042,0,12434,57.694,11.11,0.17283,0.013871,-0.84984,0.19034,0
12419,54.3,14.077,0,2.6042,0,12434,57.694,11.11,0.17283,0.013871,-0.84984,0.19034,0
12419,54.3,14.077,0,2.6042,0,12434,57.694,11.11,0.17283,0.013871,-0.84984,0.19034,0
12419,54.3,14.129,0,2.5902,0,12434,57.694,11.11,0.17283,0.013871,-0.84984,0.1937,0
12419,54.3,14.129,0,2.5902,0,12434,57.694,11.11,0.17283,0.013871,-0.84984,0.1937,0
12419,54.3,14.129,0,2.5902,0,12434,57.694,11.11,0.17283,0.013871,-0.84984,0.1937,0
12419,54.3,14.129,0,2.5902,0,12434,57.694,11.11,0.17283,0.013871,-0.84984,0.1937,0
12419,54.3,14.129,0,2.5902,0,12434,57.694,11.11,0.17283,0.013871,-0.84984,0.1937,0
12419,54.3,14.129,0,2.5902,0,12434,57.694,11.11,0.17283,0.013871,-0.84984,0.1937,0
12419,54.3,14.129,0,2.5902,0,12434,57.694,11.11,0.17283,0.013871,-0.84984,0.1937,0
12419,54.3,14.129,0,2.5902,0,12434,57.694,11.11,0.17283,0.013871,-0.84984,0.1937,0
12419,54.3,14.129,0,2.5902,0,12434,57.694,11.11,0.17283,0.013871,-0.84984,0.1937,0
12419,54.3,14.129,0,2.5902,0,12434,57.694,11.11,0.17283,0.013871,-0.84984,0.1937,0
12419,54.3,14.129,0,2.5902,0,12436,57.714,11.111,0.06434,0.0027961,-0.45121,0.17201,0
12419,54.3,14.129,0,2.5902,0,12436,57.714,11.111,0.06434,0.0027961,-0.45121,0.17201,0
12419,54.3,14.129,0,2.5902,0,12436,57.714,11.111,0.06434,0.0027961,-0.45121,0.17201,0
12419,54.3,14.129,0,2.5902,0,12436,57.714,11.111,0.06434,0.0027961,-0.45121,0.17201,0
12419,54.3,14.129,0,2.5902,0,12436,57.714,11.111,0.06434,0.0027961,-0.45121,0.17201,0
12419,54.3,14.129,0,2.5902,0,12436,57.714,11.111,0.06434,0.0027961,-0.45121,0.17201,0
12419,54.3,14.129,0,2.5902,0,12436,57.714,11.111,0.06434,0.0027961,-0.45121,0.17201,0
12419,54.3,14.129,0,2.5902,0,12436,57.715,11.111,0.056167,0.0022661,-0.41728,0.16989,0
12419,54.3,14.129,0,2.5902,0,12436,57.715,11.111,0.056167,0.0022661,-0.41728,0.16989,0
12420,54.3,14.283,0,2.5479,0,12436,57.715,11.111,0.056167,0.0022661,-0.41728,0.1783,0
12420,54.3,14.283,0,2.5479,0,12436,57.715,11.111,0.056167,0.0022661,-0.41728,0.1783,0
12421,54.3,14.484,0,2.4904,0,12437,57.718,11.111,0.029444,0.0008744,-0.2995,0.18104,0
12421,54.3,14.484,0,2.4904,0,12438,57.719,11.111,0.019198,0.00048927,-0.25049,0.17642,0
12423,54.3,14.681,0,2.4319,0,12438,57.719,11.111,0.019198,0.00048927,-0.25049,0.18904,0
12423,54.3,14.681,0,2.4319,0,12438,57.719,11.111,0.019198,0.00048927,-0.25049,0.18904,0
12423,54.3,14.681,0,2.4319,0,12439,57.72,11.111,0.003748,8.3117e-05,-0.16963,0.17927,0
12423,54.3,14.681,0,2.4319,0,12439,57.72,11.111,0.00078188,3.1707e-05,-0.15263,0.17698,0
12423,54.3,14.681,0,2.4319,0,12439,57.72,11.111,0.00078188,3.1707e-05,-0.15263,0.17698,0
12423,54.3,14.681,0,2.4319,0,12439,57.72,11.111,0.00078188,3.1707e-05,-0.15263,0.17698,0
12423,54.3,14.681,0,2.4319,0,12439,57.72,11.111,0.00078188,3.1707e-05,-0.15263,0.17698,0
12423,54.3,14.681,0,2.4319,0,12439,57.72,11.111,0.00078188,3.1707e-05,-0.15263,0.17698,0
12423,54.3,14.681,0,2.4319,0,12439,57.72,11.111,0.00078188,3.1707e-05,-0.15263,0.17698,0
12423,54.3,14.681,0,2.4319,0,12439,57.72,11.111,0.00078188,3.1707e-05,-0.15263,0.17698,0
12423,54.3,14.681,0,2.4319,0,12439,57.72,11.111,0.00078188,3.1707e-05,-0.15263,0.17698,0
12423,54.3,14.826,0,2.3874,0,12439,57.72,11.111,0.00078188,3.1707e-05,-0.15263,0.18646,0
12424,54.3,14.874,0,2.3724,0,12439,57.72,11.111,0.00078188,3.1707e-05,-0.15263,0.18987,0
12424,54.3,14.874,0,2.3724,0,12439,57.72,11.111,0.00078188,3.1707e-05,-0.15263,0.18987,0
12424,54.3,14.874,0,2.3724,0,12439,57.72,11.111,0.00078188,3.1707e-05,-0.15263,0.18987,0
12424,54.3,14.874,0,2.3724,0,12439,57.72,11.111,0.00078188,3.1707e-05,-0.15263,0.18987,0
12424,54.3,14.874,0,2.3724,0,12439,57.72,11.111,0.00078188,3.1707e-05,-0.15263,0.18987,0
12424,54.3,14.874,0,2.3724,0,12439,57.72,11.111,0.00078188,3.1707e-05,-0.15263,0.18987,0
12424,54.3,14.874,0,2.3724,0,12439,57.72,11.111,0.00078188,3.1707e-05,-0.15263,0.18987,0
12424,54.3,14.874,0,2.3724,0,12439,57.72,11.111,0.00078188,3.1707e-05,-0.15263,0.18987,0
12424,54.3,14.874,0,2.3724,0,12439,57.72,11.111,0.00078188,3.1707e-05,-0.15263,0.18987,0
12424,54.3,14.921,0,2.3575,0,12439,57.72,11.111,0.00078188,3.1707e-05,-0.15263,0.1934,0
12424,54.3,14.921,0,2.3575,0,12439,57.72,11.111,0.00078188,3.1707e-05,-0.15263,0.1934,0
12425,54.3,15.107,0,2.297,0,12440,57.719,11.111,-0.011216,-6.9037e-05,-0.07316,0.19182,0
12425,54.3,15.107,0,2.297,0,12440,57.719,11.111,-0.011216,-6.9037e-05,-0.07316,0.19182,0
12425,54.3,15.107,0,2.297,0,12440,57.719,11.111,-0.011216,-6.9037e-05,-0.07316,0.19182,0
12425,54.3,15.107,0,2.297,0,12440,57.719,11.111,-0.011216,-6.9037e-05,-0.07316,0.19182,0
12426,54.3,15.153,0,2.2818,0,12440,57.719,11.111,-0.011216,-6.9037e-05,-0.07316,0.19548,0
12426,54.3,15.288,0,2.236,0,12441,57.718,11.111,-0.015044,-4.9866e-05,-0.037777,0.19579,0
12426,54.3,15.288,0,2.236,0,12441,57.717,11.111,-0.016074,-3.4538e-05,-0.02424,0.19044,0
12427,54.3,15.421,0,2.1898,0,12442,57.717,11.111,-0.016411,-2.6821e-05,-0.018365,0.19899,0
12427,54.3,15.421,0,2.1898,0,12442,57.717,11.111,-0.016411,-2.6821e-05,-0.018365,0.19899,0
12427,54.3,15.421,0,2.1898,0,12442,57.716,11.111,-0.016784,-1.2351e-05,-0.0082166,0.19348,0
12427,54.3,15.421,0,2.1898,0,12442,57.716,11.111,-0.016784,-1.2351e-05,-0.0082166,0.19348,0
12427,54.3,15.421,0,2.1898,0,12442,57.716,11.111,-0.016784,-1.2351e-05,-0.0082166,0.19348,0
12427,54.3,15.421,0,2.1898,0,12442,57.716,11.111,-0.016784,-1.2351e-05,-0.0082166,0.19348,0
12427,54.3,15.421,0,2.1898,0,12442,57.716,11.111,-0.016784,-1.2351e-05,-0.0082166,0.19348,0
12427,54.3,15.421,0,2.1898,0,12442,57.716,11.111,-0.016784,-1.2351e-05,-0.0082166,0.19348,0
12427,54.3,15.421,0,2.1898,0,12442,57.716,11.111,-0.016784,-1.2351e-05,-0.0082166,0.19348,0
12427,54.3,15.421,0,2.1898,0,12442,57.716,11.111,-0.016784,-1.2351e-05,-0.0082166,0.19348,0
12428,54.3,15.508,0,2.159,0,12442,57.716,11.111,-0.016784,-1.2351e-05,-0.0082166,0.20124,0
12428,54.3,15.508,0,2.159,0,12442,57.716,11.111,-0.016784,-1.2351e-05,-0.0082166,0.20124,0
12428,54.3,15.508,0,2.159,0,12442,57.716,11.111,-0.016784,-1.2351e-05,-0.0082166,0.20124,0
12428,54.3,15.508,0,2.159,0,12442,57.716,11.111,-0.016784,-1.2351e-05,-0.0082166,0.20124,0
12428,54.3,15.508,0,2.159,0,12442,57.716,11.111,-0.016784,-1.2351e-05,-0.0082166,0.20124,0
12428,54.3,15.508,0,2.159,0,12442,57.716,11.111,-0.016784,-1.2351e-05,-0.0082166,0.20124,0
12428,54.3,15.508,0,2.159,0,12442,57.716,11.111,-0.016784,-1.2351e-05,-0.0082166,0.20124,0
12428,54.3,15.508,0,2.159,0,12442,57.716,11.111,-0.016784,-1.2351e-05,-0.0082166,0.20124,0
12428,54.3,15.508,0,2.159,0,12442,57.716,11.111,-0.016784,-1.2351e-05,-0.0082166,0.20124,0
12428,54.3,15.508,0,2.159,0,12442,57.716,11.111,-0.016784,-1.2351e-05,-0.0082166,0.20124,0
12428,54.3,15.551,0,2.1435,0,12442,57.716,11.111,-0.016784,-1.2351e-05,-0.0082166,0.20537,0
12428,54.3,15.551,0,2.1435,0,12442,57.716,11.111,-0.016784,-1.2351e-05,-0.0082166,0.20537,0
12428,54.3,15.551,0,2.1435,0,12442,57.716,11.111,-0.016784,-1.2351e-05,-0.0082166,0.20537,0
12428,54.3,15.551,0,2.1435,0,12442,57.716,11.111,-0.016784,-1.2351e-05,-0.0082166,0.20537,0
12428,54.3,15.551,0,2.1435,0,12442,57.716,11.111,-0.016784,-1.2351e-05,-0.0082166,0.20537,0
12429,54.3,15.594,0,2.128,0,12442,57.716,11.111,-0.016784,-1.2351e-05,-0.0082166,0.20967,0
12429,54.3,15.594,0,2.128,0,12443,57.714,11.111,-0.016133,1.7228e-05,0.011779,0.19237,0
12431,54.3,15.924,0,2.0038,0,12444,57.714,11.111,-0.015844,1.9983e-05,0.013892,0.22418,0
12431,54.3,15.924,0,2.0038,0,12444,57.714,11.111,-0.015844,1.9983e-05,0.013892,0.22418,0
12431,54.3,15.924,0,2.0038,0,12444,57.714,11.111,-0.015844,1.9983e-05,0.013892,0.22418,0
12431,54.3,15.924,0,2.0038,0,12444,57.714,11.111,-0.015844,1.9983e-05,0.013892,0.22418,0
12432,54.3,16.043,0,1.9571,0,12445,57.712,11.111,-0.013536,2.6473e-05,0.021392,0.21835,0
12432,54.3,16.043,0,1.9571,0,12445,57.712,11.111,-0.013536,2.6473e-05,0.021392,0.21835,0
12432,54.3,16.043,0,1.9571,0,12445,57.712,11.111,-0.013536,2.6473e-05,0.021392,0.21835,0
12432,54.3,16.043,0,1.9571,0,12445,57.712,11.111,-0.013536,2.6473e-05,0.021392,0.21835,0
12432,54.3,16.043,0,1.9571,0,12445,57.712,11.111,-0.013536,2.6473e-05,0.021392,0.21835,0
12432,54.3,16.043,0,1.9571,0,12445,57.712,11.111,-0.013536,2.6473e-05,0.021392,0.21835,0
12432,54.3,16.043,0,1.9571,0,12445,57.712,11.111,-0.013536,2.6473e-05,0.021392,0.21835,0
12432,54.3,16.043,0,1.9571,0,12445,57.712,11.111,-0.013536,2.6473e-05,0.021392,0.21835,0
12432,54.3,16.043,0,1.9571,0,12445,57.712,11.111,-0.013536,2.6473e-05,0.021392,0.21835,0
12432,54.3,16.043,0,1.9571,0,12445,57.712,11.111,-0.013536,2.6473e-05,0.021392,0.21835,0
12432,54.3,16.043,0,1.9571,0,12445,57.712,11.111,-0.012644,2.5912e-05,0.022374,0.21179,0
12432,54.3,16.043,0,1.9571,0,12445,57.712,11.111,-0.012644,2.5912e-05,0.022374,0.21179,0
12432,54.3,16.043,0,1.9571,0,12446,57.711,11.111,-0.01219,2.5313e-05,0.022652,0.20865,0
12432,54.3,16.043,0,1.9571,0,12446,57.711,11.111,-0.01219,2.5313e-05,0.022652,0.20865,0
12432,54.3,16.043,0,1.9571,0,12446,57.711,11.111,-0.01219,2.5313e-05,0.022652,0.20865,0
12432,54.3,16.043,0,1.9571,0,12446,57.711,11.111,-0.01219,2.5313e-05,0.022652,0.20865,0
12432,54.3,16.043,0,1.9571,0,12446,57.711,11.111,-0.01219,2.5313e-05,0.022652,0.20865,0
12432,54.3,16.043,0,1.9571,0,12446,57.711,11.111,-0.01219,2.5313e-05,0.022652,0.20865,0
12434,54.3,16.235,0,1.8796,0,12446,57.711,11.111,-0.011733,2.4551e-05,0.022807,0.22994,0
12434,54.3,16.235,0,1.8796,0,12447,57.71,11.111,-0.0099195,2.0476e-05,0.022428,0.2159,0
12435,54.3,16.346,0,1.8333,0,12447,57.71,11.111,-0.0099195,2.0476e-05,0.022428,0.23144,0
12435,54.3,16.383,0,1.8179,0,12447,57.71,11.111,-0.0099195,2.0476e-05,0.022428,0.23712,0
12435,54.3,16.383,0,1.8179,0,12448,57.71,11.111,-0.0082024,1.584e-05,0.020924,0.22227,0
12435,54.3,16.383,0,1.8179,0,12448,57.71,11.111,-0.0082024,1.584e-05,0.020924,0.22227,0
12435,54.3,16.383,0,1.8179,0,12448,57.71,11.111,-0.0082024,1.584e-05,0.020924,0.22227,0
12435,54.3,16.383,0,1.8179,0,12448,57.709,11.111,-0.0077961,1.4712e-05,0.020433,0.21883,0
12435,54.3,16.383,0,1.8179,0,12448,57.709,11.111,-0.0077961,1.4712e-05,0.020433,0.21883,0
12435,54.3,16.383,0,1.8179,0,12448,57.709,11.111,-0.0077961,1.4712e-05,0.020433,0.21883,0
12435,54.3,16.383,0,1.8179,0,12448,57.709,11.111,-0.0077961,1.4712e-05,0.020433,0.21883,0
12435,54.3,16.383,0,1.8179,0,12448,57.709,11.111,-0.0077961,1.4712e-05,0.020433,0.21883,0
12435,54.3,16.383,0,1.8179,0,12448,57.709,11.111,-0.0077961,1.4712e-05,0.020433,0.21883,0
12435,54.3,16.383,0,1.8179,0,12448,57.709,11.031,-0.0073486,-4,0.022437,0.21466,0
12435,54.3,16.383,0,1.8179,0,12448,57.709,11.031,-0.0073486,-4,0.022437,0.21466,0
12435,54.3,16.383,0,1.8179,0,12448,57.709,11.031,-0.0073486,-4,0.022437,0.21466,0
12435,54.3,16.383,0,1.8179,0,12448,57.709,11.031,-0.0073486,-4,0.022437,0.21466,0
12435,54.3,16.383,0,1.8179,0,12448,57.709,11.031,-0.0073486,-4,0.022437,0.21466,0
12435,54.3,16.383,0,1.8179,0,12448,57.709,11.031,-0.0073486,-4,0.022437,0.21466,0
12435,54.3,16.383,0,1.8179,0,12448,57.709,11.031,-0.0073486,-4,0.022437,0.21466,0
12435,54.3,16.383,0,1.8179,0,12448,57.709,11.031,-0.0073486,-4,0.022437,0.21466,0
12435,54.3,16.383,0,1.8179,0,12448,57.709,11.031,-0.0073486,-4,0.022437,0.21466,0
12435,54.3,16.383,0,1.8179,0,12448,57.709,11.031,-0.0073486,-4,0.022437,0.21466,0
12437,54.3,16.561,0,1.7414,0,12448,57.709,11.031,-0.0073486,-4,0.022437,0.2419,0
12437,54.3,16.561,0,1.7414,0,12448,57.709,11.031,-0.0073486,-4,0.022437,0.2419,0
12437,54.3,16.63,0,1.7111,0,12449,57.709,10.871,-0.0065082,-4,0.020649,0.24427,0
12437,54.3,16.63,0,1.7111,0,12449,57.709,10.871,-0.0065082,-4,0.020649,0.24427,0
12438,54.3,16.731,0,1.6658,0,12449,57.709,10.631,-0.0053799,-4,0.018034,0.24833,0
12438,54.3,16.731,0,1.6658,0,12449,57.709,10.631,-0.0053799,-4,0.018034,0.24833,0
12438,54.3,16.731,0,1.6658,0,12450,57.708,10.231,-0.0038316,-4,0.014008,0.22483,0
12438,54.3,16.731,0,1.6658,0,12450,57.708,10.151,-0.0035681,-4,0.013266,0.22062,0
12438,54.3,16.731,0,1.6658,0,12450,57.708,10.151,-0.0035681,-4,0.013266,0.22062,0
12438,54.3,16.731,0,1.6658,0,12450,57.708,10.151,-0.0035681,-4,0.013266,0.22062,0
12440,54.3,16.926,0,1.5766,0,12450,57.708,10.151,-0.0035681,-4,0.013266,0.25855,0
12440,54.3,16.926,0,1.5766,0,12450,57.708,10.151,-0.0035681,-4,0.013266,0.25855,0
12440,54.3,16.926,0,1.5766,0,12450,57.708,10.151,-0.0035681,-4,0.013266,0.25855,0
12440,54.3,16.926,0,1.5766,0,12450,57.708,10.151,-0.0035681,-4,0.013266,0.25855,0
12440,54.3,16.926,0,1.5766,0,12450,57.708,10.151,-0.0035681,-4,0.013266,0.25855,0
12440,54.3,16.926,0,1.5766,0,12450,57.708,10.151,-0.0035681,-4,0.013266,0.25855,0
12440,54.3,16.926,0,1.5766,0,12450,57.708,10.151,-0.0035681,-4,0.013266,0.25855,0
12440,54.3,16.926,0,1.5766,0,12451,57.708,9.9911,-0.0030836,-4,0.011855,0.24817,0
12440,54.3,16.926,0,1.5766,0,12451,57.708,9.9911,-0.0030836,-4,0.011855,0.24817,0
12440,54.3,16.926,0,1.5766,0,12451,57.708,9.9911,-0.0030836,-4,0.011855,0.24817,0
12440,54.3,16.926,0,1.5766,0,12451,57.708,9.9911,-0.0030836,-4,0.011855,0.24817,0
12440,54.3,16.926,0,1.5766,0,12451,57.708,9.9911,-0.0030836,-4,0.011855,0.24817,0
12440,54.3,16.926,0,1.5766,0,12451,57.708,9.9911,-0.0030836,-4,0.011855,0.24817,0
12440,54.3,16.926,0,1.5766,0,12451,57.708,9.9911,-0.0030836,-4,0.011855,0.24817,0
12441,54.3,16.988,0,1.5472,0,12451,57.708,9.9911,-0.0030836,-4,0.011855,0.26267,0
12441,54.3,16.988,0,1.5472,0,12451,57.708,9.9911,-0.0030836,-4,0.011855,0.26267,0
12441,54.3,16.988,0,1.5472,0,12451,57.708,9.8311,-0.0026525,-4,0.010542,0.25209,0
12441,54.3,16.988,0,1.5472,0,12452,57.708,9.5911,-0.0020971,-4,0.0087591,0.23763,0
12441,54.3,16.988,0,1.5472,0,12452,57.708,9.5911,-0.0020971,-4,0.0087591,0.23763,0
12441,54.3,16.988,0,1.5472,0,12452,57.708,9.5911,-0.0020971,-4,0.0087591,0.23763,0
12441,54.3,16.988,0,1.5472,0,12452,57.708,9.5911,-0.0020971,-4,0.0087591,0.23763,0
12441,54.3,16.988,0,1.5472,0,12452,57.708,9.4311,-0.0017819,-4,0.0076945,0.22881,0
12444,54.3,17.227,0,1.4322,0,12452,57.708,9.4311,-0.0017819,-4,0.0076945,0.28965,0
12444,54.3,17.227,0,1.4322,0,12453,57.708,9.1911,-0.0013818,-4,0.0062772,0.27196,0
12444,54.3,17.227,0,1.4322,0,12453,57.708,9.1911,-0.0013818,-4,0.0062772,0.27196,0
12444,54.3,17.227,0,1.4322,0,12453,57.708,9.1911,-0.0013818,-4,0.0062772,0.27196,0
12444,54.3,17.227,0,1.4322,0,12453,57.708,9.1911,-0.0013818,-4,0.0062772,0.27196,0
12444,54.3,17.227,0,1.4322,0,12453,57.708,9.1911,-0.0013818,-4,0.0062772,0.27196,0
12444,54.3,17.227,0,1.4322,0,12453,57.708,9.1911,-0.0013818,-4,0.0062772,0.27196,0
12444,54.3,17.227,0,1.4322,0,12453,57.708,9.1911,-0.0013818,-4,0.0062772,0.27196,0
12444,54.3,17.227,0,1.4322,0,12453,57.708,9.1111,-0.001266,-4,0.0058507,0.26649,0
12445,54.3,17.311,0,1.3902,0,12453,57.708,9.1111,-0.001266,-4,0.0058507,0.29355,0
12445,54.3,17.311,0,1.3902,0,12453,57.708,8.9511,-0.0010581,-4,0.0050634,0.28149,0
12445,54.3,17.311,0,1.3902,0,12453,57.708,8.9511,-0.0010581,-4,0.0050634,0.28149,0
12445,54.3,17.311,0,1.3902,0,12453,57.708,8.9511,-0.0010581,-4,0.0050634,0.28149,0
12445,54.3,17.366,0,1.3625,0,12453,57.708,8.9511,-0.0010581,-4,0.0050634,0.30103,0
12446,54.3,17.447,0,1.3216,0,12454,57.707,8.7111,-0.00079919,-4,0.0040369,0.31362,0
12446,54.3,17.447,0,1.3216,0,12454,57.707,8.7111,-0.00079919,-4,0.0040369,0.31362,0
12446,54.3,17.447,0,1.3216,0,12454,57.707,8.7111,-0.00079919,-4,0.0040369,0.31362,0
12446,54.3,17.447,0,1.3216,0,12454,57.707,8.5511,-0.00065734,-4,0.0034474,0.30061,0
12446,54.3,17.447,0,1.3216,0,12454,57.707,8.4711,-0.00059457,-4,0.0031791,0.29445,0
12446,54.3,17.447,0,1.3216,0,12454,57.707,8.4711,-0.00059457,-4,0.0031791,0.29445,0
12446,54.3,17.447,0,1.3216,0,12454,57.707,8.4711,-0.00059457,-4,0.0031791,0.29445,0
12446,54.3,17.447,0,1.3216,0,12454,57.707,8.4711,-0.00059457,-4,0.0031791,0.29445,0
12446,54.3,17.447,0,1.3216,0,12454,57.707,8.4711,-0.00059457,-4,0.0031791,0.29445,0
12446,54.3,17.447,0,1.3216,0,12454,57.707,8.3911,-0.00053679,-4,0.0029273,0.28852,0
12446,54.3,17.447,0,1.3216,0,12454,57.707,8.3911,-0.00053679,-4,0.0029273,0.28852,0
12448,54.3,17.55,0,1.268,0,12454,57.707,8.3911,-0.00053679,-4,0.0029273,0.33334,0
12448,54.3,17.55,0,1.268,0,12454,57.707,8.3911,-0.00053679,-4,0.0029273,0.33334,0
12448,54.3,17.576,0,1.2532,0,12454,57.707,8.3911,-0.00053679,-4,0.0029273,0.34633,0
12448,54.3,17.576,0,1.2532,0,12454,57.707,8.3911,-0.00053679,-4,0.0029273,0.34633,0
12448,54.3,17.576,0,1.2532,0,12454,57.707,8.3911,-0.00053679,-4,0.0029273,0.34633,0
12449,54.3,17.625,0,1.2235,0,12454,57.707,8.3911,-0.00053679,-4,0.0029273,0.37465,0
12449,54.3,17.625,0,1.2235,0,12454,57.707,8.3911,-0.00053679,-4,0.0029273,0.37465,0
12449,54.3,17.625,0,1.2235,0,12454,57.707,8.3911,-0.00053679,-4,0.0029273,0.37465,0
12449,54.3,17.625,0,1.2235,0,12454,57.707,8.3911,-0.00053679,-4,0.0029273,0.37465,0
12449,54.3,17.649,0,1.2088,0,12454,57.707,8.3911,-0.00053679,-4,0.0029273,0.39,0
12449,54.3,17.649,0,1.2088,0,12455,57.707,7.9111,-0.00027905,-4,0.0016966,0.34208,0
12449,54.3,17.649,0,1.2088,0,12455,57.707,7.9111,-0.00027905,-4,0.0016966,0.34208,0
12449,54.3,17.649,0,1.2088,0,12456,57.707,7.8311,-0.00024904,-4,0.0015288,0.33499,0
12450,54.3,17.721,0,1.1658,0,12456,57.707,7.8311,-0.00024904,-4,0.0015288,0.37772,0
12451,54.3,17.767,0,1.138,0,12456,57.707,7.6711,-0.00019771,-4,0.0012388,0.39304,0
12451,54.3,17.767,0,1.138,0,12456,57.707,7.6711,-0.00019771,-4,0.0012388,0.39304,0
12451,54.3,17.767,0,1.138,0,12456,57.707,7.6711,-0.00019771,-4,0.0012388,0.39304,0
12451,54.3,17.767,0,1.138,0,12456,57.707,7.6711,-0.00019771,-4,0.0012388,0.39304,0
12451,54.3,17.767,0,1.138,0,12456,57.707,7.6711,-0.00019771,-4,0.0012388,0.39304,0
12451,54.3,17.767,0,1.138,0,12456,57.707,7.6711,-0.00019771,-4,0.0012388,0.39304,0
12451,54.3,17.767,0,1.138,0,12456,57.707,7.6711,-0.00019771,-4,0.0012388,0.39304,0
12451,54.3,17.767,0,1.138,0,12456,57.707,7.5111,-0.00015621,-4,0.0010011,0.37687,0
12451,54.3,17.767,0,1.138,0,12456,57.707,7.5111,-0.00015621,-4,0.0010011,0.37687,0
12451,54.3,17.767,0,1.138,0,12456,57.707,7.4311,-0.00013857,-4,0.00089905,0.36913,0
12451,54.3,17.767,0,1.138,0,12456,57.707,7.4311,-0.00013857,-4,0.00089905,0.36913,0
12451,54.3,17.767,0,1.138,0,12456,57.707,7.4311,-0.00013857,-4,0.00089905,0.36913,0
12451,54.3,17.767,0,1.138,0,12456,57.707,7.4311,-0.00013857,-4,0.00089905,0.36913,0
12451,54.3,17.767,0,1.138,0,12456,57.707,7.4311,-0.00013857,-4,0.00089905,0.36913,0
12451,54.3,17.767,0,1.138,0,12456,57.707,7.4311,-0.00013857,-4,0.00089905,0.36913,0
12451,54.3,17.767,0,1.138,0,12456,57.707,7.4311,-0.00013857,-4,0.00089905,0.36913,0
12451,54.3,17.767,0,1.138,0,12456,57.707,7.4311,-0.00013857,-4,0.00089905,0.36913,0
12452,54.3,17.834,0,1.0974,0,12456,57.707,7.4311,-0.00013857,-4,0.00089905,0.41828,0
12453,54.3,17.898,0,1.0581,0,12457,57.707,7.2711,-0.00010855,-4,0.00072361,0.45434,0
12453,54.3,17.898,0,1.0581,0,12457,57.707,7.2711,-0.00010855,-4,0.00072361,0.45434,0
12453,54.3,17.898,0,1.0581,0,12457,57.707,7.0311,-7.4245e-05,-4,0.00051971,0.42899,0
12453,54.3,17.898,0,1.0581,0,12457,57.707,7.0311,-7.4245e-05,-4,0.00051971,0.42899,0
12455,54.3,18.001,0,0.99567,0,12457,57.707,6.8711,-5.6992e-05,-4,0.00041522,0.49927,0
12455,54.3,18.001,0,0.99567,0,12457,57.707,6.8711,-5.6992e-05,-4,0.00041522,0.49927,0
12455,54.3,18.001,0,0.99567,0,12457,57.707,6.8711,-5.6992e-05,-4,0.00041522,0.49927,0
12455,54.3,18.001,0,0.99567,0,12457,57.707,6.8711,-5.6992e-05,-4,0.00041522,0.49927,0
12455,54.3,18.001,0,0.99567,0,12457,57.707,6.8711,-5.6992e-05,-4,0.00041522,0.49927,0
12455,54.3,18.001,0,0.99567,0,12457,57.707,6.8711,-5.6992e-05,-4,0.00041522,0.49927,0
12455,54.3,18.001,0,0.99567,0,12457,57.707,6.8711,-5.6992e-05,-4,0.00041522,0.49927,0
12455,54.3,18.001,0,0.99567,0,12457,57.707,6.8711,-5.6992e-05,-4,0.00041522,0.49927,0
12455,54.3,18.001,0,0.99567,0,12458,57.707,6.6311,-3.7468e-05,-4,0.00029465,0.47772,0
12455,54.3,18.001,0,0.99567,0,12458,57.707,6.6311,-3.7468e-05,-4,0.00029465,0.47772,0
12455,54.3,18.001,0,0.99567,0,12458,57.707,6.5511,-3.2327e-05,-4,0.00026232,0.4702,0
12455,54.3,18.001,0,0.99567,0,12458,57.707,6.5511,-3.2327e-05,-4,0.00026232,0.4702,0
12455,54.3,18.001,0,0.99567,0,12458,57.707,6.5511,-3.2327e-05,-4,0.00026232,0.4702,0
12455,54.3,18.001,0,0.99567,0,12458,57.707,6.5511,-3.2327e-05,-4,0.00026232,0.4702,0
12455,54.3,18.001,0,0.99567,0,12458,57.707,6.5511,-3.2327e-05,-4,0.00026232,0.4702,0
12455,54.3,18.001,0,0.99567,0,12458,57.707,6.5511,-3.2327e-05,-4,0.00026232,0.4702,0
12456,54.3,18.06,0,0.95989,0,12458,57.707,6.5511,-3.2327e-05,-4,0.00026232,0.51448,0
12457,54.3,18.116,0,0.92533,0,12458,57.707,6.3111,-2.0093e-05,-4,0.00018391,0.52451,0
12458,54.3,18.135,0,0.91407,0,12458,57.707,6.3111,-2.0093e-05,-4,0.00018391,0.52332,0
12458,54.3,18.135,0,0.91407,0,12459,57.707,6.0711,-1.1581e-05,-4,0.00012747,0.52246,0
12459,54.3,18.189,0,0.88108,0,12459,57.707,6.0711,-1.1581e-05,-4,0.00012747,0.50293,0
12459,54.3,18.189,0,0.88108,0,12459,57.707,5.8311,-5.7395e-06,-4,8.7052e-05,0.51456,0
12459,54.3,18.189,0,0.88108,0,12459,57.707,5.8311,-5.7395e-06,-4,8.7052e-05,0.51456,0
12459,54.3,18.189,0,0.88108,0,12459,57.707,5.8311,-5.7395e-06,-4,8.7052e-05,0.51456,0
12459,54.3,18.189,0,0.88108,0,12459,57.707,5.8311,-5.7395e-06,-4,8.7052e-05,0.51456,0
12459,54.3,18.189,0,0.88108,0,12459,57.707,5.8311,-5.7395e-06,-4,8.7052e-05,0.51456,0
12459,54.3,18.189,0,0.88108,0,12459,57.707,5.8311,-5.7395e-06,-4,8.7052e-05,0.51456,0
12459,54.3,18.189,0,0.88108,0,12459,57.707,5.8311,-5.7395e-06,-4,8.7052e-05,0.51456,0
12459,54.3,18.189,0,0.88108,0,12459,57.707,5.8311,-5.7395e-06,-4,8.7052e-05,0.51456,0
12459,54.3,18.189,0,0.88108,0,12459,57.707,5.8311,-5.7395e-06,-4,8.7052e-05,0.51456,0
12459,54.3,18.189,0,0.88108,0,12459,57.707,5.8311,-5.7395e-06,-4,8.7052e-05,0.51456,0
12459,54.3,18.223,0,0.85972,0,12459,57.707,5.8311,-5.7395e-06,-4,8.7052e-05,0.51175,0
12459,54.3,18.223,0,0.85972,0,12459,57.707,5.8311,-5.7395e-06,-4,8.7052e-05,0.51175,0
12459,54.3,18.223,0,0.85972,0,12459,57.707,5.8311,-5.7395e-06,-4,8.7052e-05,0.51175,0
12459,54.3,18.223,0,0.85972,0,12459,57.707,5.8311,-5.7395e-06,-4,8.7052e-05,0.51175,0
12459,54.3,18.223,0,0.85972,0,12459,57.707,5.8311,-5.7395e-06,-4,8.7052e-05,0.51175,0
12459,54.3,18.223,0,0.85972,0,12459,57.707,5.8311,-5.7395e-06,-4,8.7052e-05,0.51175,0
12459,54.3,18.223,0,0.85972,0,12459,57.707,5.8311,-5.7395e-06,-4,8.7052e-05,0.51175,0
12459,54.3,18.223,0,0.85972,0,12459,57.707,5.8311,-5.7395e-06,-4,8.7052e-05,0.51175,0
12459,54.3,18.223,0,0.85972,0,12459,57.707,5.8311,-5.7395e-06,-4,8.7052e-05,0.51175,0
12459,54.3,18.223,0,0.85972,0,12459,57.707,5.8311,-5.7395e-06,-4,8.7052e-05,0.51175,0
12459,54.3,18.223,0,0.85972,0,12459,57.707,5.6711,-2.9412e-06,-4,6.6798e-05,0.5037,0
12459,54.3,18.223,0,0.85972,0,12459,57.707,5.5911,-1.8027e-06,-4,5.8284e-05,0.50161,0
12459,54.3,18.223,0,0.85972,0,12459,57.707,5.5911,-1.8027e-06,-4,5.8284e-05,0.50161,0
12462,54.3,18.323,0,0.79856,0,12459,57.707,5.5911,-1.8027e-06,-4,5.8284e-05,0.49075,0
12462,54.3,18.323,0,0.79856,0,12459,57.707,5.5911,-1.8027e-06,-4,5.8284e-05,0.49075,0
12462,54.3,18.354,0,0.77911,0,12459,57.707,5.5911,-1.8027e-06,-4,5.8284e-05,0.45693,0
12462,54.3,18.354,0,0.77911,0,12459,57.707,5.5911,-1.8027e-06,-4,5.8284e-05,0.45693,0
12462,54.3,18.354,0,0.77911,0,12460,57.707,4.8711,3.3973e-06,-4,1.3756e-05,0.48996,0
12462,54.3,18.354,0,0.77911,0,12460,57.707,4.8711,3.3973e-06,-4,1.3756e-05,0.48996,0
12462,54.3,18.354,0,0.77911,0,12460,57.707,4.8711,3.3973e-06,-4,1.3756e-05,0.48996,0
12462,54.3,18.354,0,0.77911,0,12460,57.707,4.8711,3.3973e-06,-4,1.3756e-05,0.48996,0
12462,54.3,18.354,0,0.77911,0,12460,57.707,4.8711,3.3973e-06,-4,1.3756e-05,0.48996,0
12462,54.3,18.354,0,0.77911,0,12460,57.707,4.8711,3.3973e-06,-4,1.3756e-05,0.48996,0
12462,54.3,18.354,0,0.77911,0,12460,57.707,4.8711,3.3973e-06,-4,1.3756e-05,0.48996,0
12462,54.3,18.354,0,0.77911,0,12460,57.707,4.7911,3.6128e-06,-4,1.1192e-05,0.4927,0
12462,54.3,18.354,0,0.77911,0,12460,57.707,4.7911,3.6128e-06,-4,1.1192e-05,0.4927,0
12462,54.3,18.354,0,0.77911,0,12461,57.707,4.7111,3.784e-06,-4,8.9346e-06,0.49523,0
12462,54.3,18.354,0,0.77911,0,12461,57.707,4.7111,3.784e-06,-4,8.9346e-06,0.49523,0
12462,54.3,18.354,0,0.77911,0,12461,57.707,4.6311,3.9165e-06,-4,6.9495e-06,0.49754,0
12462,54.3,18.354,0,0.77911,0,12461,57.707,4.3911,4.1257e-06,-4,2.3505e-06,0.50315,0
12466,54.3,18.501,0,0.68846,0,12461,57.707,4.3911,4.1257e-06,-4,2.3505e-06,0.33428,0
12466,54.3,18.501,0,0.68846,0,12461,57.707,4.3911,4.1257e-06,-4,2.3505e-06,0.33428,0
12466,54.3,18.501,0,0.68846,0,12461,57.707,4.2311,4.1455e-06,-4,1.8213e-07,0.33933,0
12467,54.3,18.528,0,0.67159,0,12461,57.707,4.2311,4.1455e-06,-4,1.8213e-07,0.30962,0
12467,54.3,18.528,0,0.67159,0,12461,57.707,4.2311,4.1455e-06,-4,1.8213e-07,0.30962,0
12467,54.3,18.528,0,0.67159,0,12461,57.707,4.2311,4.1455e-06,-4,1.8213e-07,0.30962,0
12467,54.3,18.528,0,0.67159,0,12461,57.707,4.2311,4.1455e-06,-4,1.8213e-07,0.30962,0
12467,54.3,18.528,0,0.67159,0,12461,57.707,4.2311,4.1455e-06,-4,1.8213e-07,0.30962,0
12467,54.3,18.528,0,0.67159,0,12461,57.707,4.2311,4.1455e-06,-4,1.8213e-07,0.30962,0
12467,54.3,18.528,0,0.67159,0,12461,57.707,4.2311,4.1455e-06,-4,1.8213e-07,0.30962,0
12467,54.3,18.542,0,0.6633,0,12461,57.707,4.2311,4.1455e-06,-4,1.8213e-07,0.29617,0
12467,54.3,18.542,0,0.6633,0,12461,57.707,4.2311,4.1455e-06,-4,1.8213e-07,0.29617,0
12467,54.3,18.555,0,0.65512,0,12461,57.707,4.2311,4.1455e-06,-4,1.8213e-07,0.28361,0
12467,54.3,18.555,0,0.65512,0,12461,57.707,4.2311,4.1455e-06,-4,1.8213e-07,0.28361,0
12467,54.3,18.555,0,0.65512,0,12461,57.707,4.2311,4.1455e-06,-4,1.8213e-07,0.28361,0
12467,54.3,18.555,0,0.65512,0,12461,57.707,4.2311,4.1455e-06,-4,1.8213e-07,0.28361,0
12467,54.3,18.555,0,0.65512,0,12461,57.707,4.2311,4.1455e-06,-4,1.8213e-07,0.28361,0
12467,54.3,18.555,0,0.65512,0,12461,57.707,4.2311,4.1455e-06,-4,1.8213e-07,0.28361,0
12467,54.3,18.555,0,0.65512,0,12461,57.707,4.2311,4.1455e-06,-4,1.8213e-07,0.28361,0
12467,54.3,18.555,0,0.65512,0,12461,57.707,4.2311,4.1455e-06,-4,1.8213e-07,0.28361,0
12468,54.3,18.568,0,0.64702,0,12461,57.707,4.2311,4.1455e-06,-4,1.8213e-07,0.27188,0
12468,54.3,18.568,0,0.64702,0,12462,57.707,3.6711,3.7833e-06,-4,-3.8318e-06,0.28264,0
12468,54.3,18.568,0,0.64702,0,12462,57.707,3.6711,3.7833e-06,-4,-3.8318e-06,0.28264,0
12468,54.3,18.568,0,0.64702,0,12462,57.707,3.6711,3.7833e-06,-4,-3.8318e-06,0.28264,0
12468,54.3,18.568,0,0.64702,0,12462,57.707,3.5911,3.6998e-06,-4,-4.1043e-06,0.28408,0
12468,54.3,18.568,0,0.64702,0,12462,57.707,3.5911,3.6998e-06,-4,-4.1043e-06,0.28408,0
12468,54.3,18.568,0,0.64702,0,12462,57.707,3.5911,3.6998e-06,-4,-4.1043e-06,0.28408,0
12468,54.3,18.568,0,0.64702,0,12462,57.707,3.5911,3.6998e-06,-4,-4.1043e-06,0.28408,0
12468,54.3,18.568,0,0.64702,0,12462,57.707,3.5911,3.6998e-06,-4,-4.1043e-06,0.28408,0
12468,54.3,18.568,0,0.64702,0,12462,57.707,3.5111,3.6121e-06,-4,-4.3266e-06,0.28549,0
12468,54.3,18.568,0,0.64702,0,12462,57.707,3.2711,3.3311e-06,-4,-4.7509e-06,0.28953,0
12468,54.3,18.568,0,0.64702,0,12462,57.707,3.2711,3.3311e-06,-4,-4.7509e-06,0.28953,0
12468,54.3,18.568,0,0.64702,0,12462,57.707,3.2711,3.3311e-06,-4,-4.7509e-06,0.28953,0
12468,54.3,18.568,0,0.64702,0,12462,57.707,3.2711,3.3311e-06,-4,-4.7509e-06,0.28953,0
12468,54.3,18.568,0,0.64702,0,12462,57.707,3.2711,3.3311e-06,-4,-4.7509e-06,0.28953,0
12468,54.3,18.568,0,0.64702,0,12462,57.707,3.2711,3.3311e-06,-4,-4.7509e-06,0.28953,0
12468,54.3,18.568,0,0.64702,0,12462,57.707,3.2711,3.3311e-06,-4,-4.7509e-06,0.28953,0
12468,54.3,18.568,0,0.64702,0,12462,57.707,3.1911,3.2337e-06,-4,-4.828e-06,0.29081,0
12472,54.3,18.689,0,0.57123,0,12462,57.707,3.1911,3.2337e-06,-4,-4.828e-06,0.19583,0
12472,54.3,18.689,0,0.57123,0,12462,57.707,3.1911,3.2337e-06,-4,-4.828e-06,0.19583,0
12472,54.3,18.689,0,0.57123,0,12462,57.707,2.9511,2.9376e-06,-4,-4.9208e-06,0.19694,0
