6.4587,0.5197,4.1632,2.9931,0.1652,0.0668,-0.4172,-0.4205,-1.0973,0.5853,-1.4038,0.1266,-1.9358,-0.7045,-1.4208,-0.4515
6.5353,0.5233,4.2065,3.0027,0.2163,0.1023,-0.3533,-0.4129,-1.0238,0.6068,-1.3011,0.1477,-1.8428,-0.6704,-1.3586,-0.4404
6.6385,0.5175,4.2585,3.0121,0.2711,0.1328,-0.2879,-0.401,-0.9527,0.6326,-1.2056,0.1804,-1.7379,-0.6524,-1.2962,-0.4293
6.6385,0.5175,4.2585,3.0121,0.2711,0.1328,-0.2879,-0.401,-0.9527,0.6326,-1.2056,0.1804,-1.7379,-0.6524,-1.2962,-0.4293
6.6385,0.5175,4.2585,3.0121,0.2711,0.1328,-0.2879,-0.401,-0.9527,0.6326,-1.2056,0.1804,-1.7379,-0.6524,-1.2962,-0.4293
6.7018,0.5221,4.294,3.0274,0.3198,0.1426,-0.2343,-0.3896,-0.8837,0.6562,-1.1192,0.2166,-1.6579,-0.6315,-1.2346,-0.4218
6.753,0.5349,4.3382,3.0425,0.3687,0.1523,-0.164,-0.3839,-0.8099,0.691,-1.0223,0.2495,-1.5875,-0.6132,-1.1744,-0.4116
6.753,0.5349,4.3382,3.0425,0.3687,0.1523,-0.164,-0.3839,-0.8099,0.691,-1.0223,0.2495,-1.5875,-0.6132,-1.1744,-0.4116
6.7795,0.5643,4.385,3.0539,0.4121,0.1602,-0.0935,-0.3783,-0.7407,0.7214,-0.9046,0.2754,-1.4952,-0.6086,-1.1123,-0.4041
6.8025,0.5989,4.4239,3.071,0.4706,0.1667,-0.0302,-0.3677,-0.6655,0.7499,-0.7829,0.2914,-1.4023,-0.6042,-1.0574,-0.3959
6.8025,0.5989,4.4239,3.071,0.4706,0.1667,-0.0302,-0.3677,-0.6655,0.7499,-0.7829,0.2914,-1.4023,-0.6042,-1.0574,-0.3959
6.8025,0.5989,4.4239,3.071,0.4706,0.1667,-0.0302,-0.3677,-0.6655,0.7499,-0.7829,0.2914,-1.4023,-0.6042,-1.0574,-0.3959
6.822,0.6193,4.4625,3.0827,0.5214,0.1643,0.0155,-0.3556,-0.593,0.7829,-0.6475,0.3058,-1.3089,-0.5998,-1.0071,-0.3861
6.822,0.6193,4.4625,3.0827,0.5214,0.1643,0.0155,-0.3556,-0.593,0.7829,-0.6475,0.3058,-1.3089,-0.5998,-1.0071,-0.3861
6.838,0.6253,4.5037,3.0906,0.5538,0.1684,0.0503,-0.3395,-0.5255,0.8179,-0.5082,0.3162,-1.2298,-0.609,-0.9673,-0.3764
6.8416,0.6201,4.5559,3.0891,0.576,0.1567,0.0584,-0.321,-0.4572,0.8463,-0.3647,0.3224,-1.2034,-0.6121,-0.9427,-0.3653
6.8416,0.6201,4.5559,3.0891,0.576,0.1567,0.0584,-0.321,-0.4572,0.8463,-0.3647,0.3224,-1.2034,-0.6121,-0.9427,-0.3653
6.8416,0.6201,4.5559,3.0891,0.576,0.1567,0.0584,-0.321,-0.4572,0.8463,-0.3647,0.3224,-1.2034,-0.6121,-0.9427,-0.3653
6.8381,0.6058,4.6021,3.0841,0.5645,0.1529,0.0509,-0.3041,-0.3967,0.8745,-0.2272,0.3219,-1.2574,-0.5868,-0.928,-0.3605
6.8381,0.6058,4.6021,3.0841,0.5645,0.1529,0.0509,-0.3041,-0.3967,0.8745,-0.2272,0.3219,-1.2574,-0.5868,-0.928,-0.3605
6.831,0.5966,4.631,3.0795,0.5551,0.1562,0.0576,-0.3017,-0.3273,0.8963,-0.1095,0.3287,-1.3067,-0.5506,-0.9181,-0.3541
6.831,0.5966,4.631,3.0795,0.5551,0.1562,0.0576,-0.3017,-0.3273,0.8963,-0.1095,0.3287,-1.3067,-0.5506,-0.9181,-0.3541
6.831,0.5966,4.631,3.0795,0.5551,0.1562,0.0576,-0.3017,-0.3273,0.8963,-0.1095,0.3287,-1.3067,-0.5506,-0.9181,-0.3541
6.8346,0.5915,4.6345,3.0868,0.5573,0.1633,0.0622,-0.2962,-0.2549,0.9206,0.0042,0.3309,-1.3779,-0.5003,-0.9158,-0.3469
6.8346,0.5915,4.6345,3.0868,0.5573,0.1633,0.0622,-0.2962,-0.2549,0.9206,0.0042,0.3309,-1.3779,-0.5003,-0.9158,-0.3469
6.8346,0.5915,4.6345,3.0868,0.5573,0.1633,0.0622,-0.2962,-0.2549,0.9206,0.0042,0.3309,-1.3779,-0.5003,-0.9158,-0.3469
6.8346,0.5915,4.6345,3.0868,0.5573,0.1633,0.0622,-0.2962,-0.2549,0.9206,0.0042,0.3309,-1.3779,-0.5003,-0.9158,-0.3469
6.8595,0.5748,4.626,3.1237,0.579,0.1829,0.088,-0.291,-0.1105,0.9532,0.2074,0.3444,-1.4054,-0.4781,-0.8857,-0.3437
6.8595,0.5748,4.626,3.1237,0.579,0.1829,0.088,-0.291,-0.1105,0.9532,0.2074,0.3444,-1.4054,-0.4781,-0.8857,-0.3437
6.8595,0.5748,4.626,3.1237,0.579,0.1829,0.088,-0.291,-0.1105,0.9532,0.2074,0.3444,-1.4054,-0.4781,-0.8857,-0.3437
6.8578,0.5677,4.6327,3.1327,0.6092,0.18,0.126,-0.2973,-0.0146,1.0204,0.4006,0.3467,-1.3689,-0.4784,-0.8392,-0.3481
6.8578,0.5677,4.6327,3.1327,0.6092,0.18,0.126,-0.2973,-0.0146,1.0204,0.4006,0.3467,-1.3689,-0.4784,-0.8392,-0.3481
6.8578,0.5677,4.6327,3.1327,0.6092,0.18,0.126,-0.2973,-0.0146,1.0204,0.4006,0.3467,-1.3689,-0.4784,-0.8392,-0.3481
6.8382,0.5668,4.6322,3.1272,0.628,0.1734,0.1372,-0.3012,0.0192,1.0593,0.4863,0.3411,-1.3208,-0.4954,-0.8267,-0.3506
6.8293,0.57,4.6436,3.1232,0.6525,0.1686,0.1439,-0.2989,0.0415,1.1025,0.5613,0.3454,-1.2783,-0.5041,-0.8189,-0.3513
6.8203,0.5731,4.6497,3.1267,0.6771,0.1638,0.1473,-0.2977,0.0644,1.1389,0.6369,0.3435,-1.2622,-0.5098,-0.8255,-0.347
6.8203,0.5731,4.6497,3.1267,0.6771,0.1638,0.1473,-0.2977,0.0644,1.1389,0.6369,0.3435,-1.2622,-0.5098,-0.8255,-0.347
6.8203,0.5731,4.6497,3.1267,0.6771,0.1638,0.1473,-0.2977,0.0644,1.1389,0.6369,0.3435,-1.2622,-0.5098,-0.8255,-0.347
6.815,0.5711,4.6585,3.1265,0.7125,0.1435,0.1384,-0.2969,0.0909,1.1638,0.7157,0.3373,-1.2667,-0.5208,-0.8465,-0.3376
6.815,0.5711,4.6585,3.1265,0.7125,0.1435,0.1384,-0.2969,0.0909,1.1638,0.7157,0.3373,-1.2667,-0.5208,-0.8465,-0.3376
6.815,0.5711,4.6585,3.1265,0.7125,0.1435,0.1384,-0.2969,0.0909,1.1638,0.7157,0.3373,-1.2667,-0.5208,-0.8465,-0.3376
6.815,0.5711,4.6766,3.1314,0.729,0.1298,0.1182,-0.2922,0.1301,1.1706,0.8059,0.3272,-1.3195,-0.5147,-0.8753,-0.3274
6.815,0.5711,4.6925,3.1457,0.7138,0.1313,0.1071,-0.2882,0.1816,1.1662,0.9077,0.313,-1.3766,-0.5196,-0.9076,-0.312
6.815,0.5711,4.6925,3.1457,0.7138,0.1313,0.1071,-0.2882,0.1816,1.1662,0.9077,0.313,-1.3766,-0.5196,-0.9076,-0.312
6.8293,0.57,4.7287,3.1557,0.6892,0.1361,0.0904,-0.2823,0.2332,1.1617,1.024,0.2968,-1.4494,-0.5189,-0.9392,-0.3028
6.8293,0.57,4.7287,3.1557,0.6892,0.1361,0.0904,-0.2823,0.2332,1.1617,1.024,0.2968,-1.4494,-0.5189,-0.9392,-0.3028
6.8595,0.5748,4.7718,3.1748,0.6633,0.1531,0.0782,-0.2709,0.2877,1.1597,1.1466,0.2785,-1.5118,-0.5157,-0.9642,-0.298
6.8792,0.5757,4.8113,3.1866,0.6244,0.1785,0.0693,-0.2701,0.3393,1.1623,1.2674,0.2577,-1.5594,-0.4988,-0.9806,-0.3002
6.8792,0.5757,4.8113,3.1866,0.6244,0.1785,0.0693,-0.2701,0.3393,1.1623,1.2674,0.2577,-1.5594,-0.4988,-0.9806,-0.3002
6.8792,0.5757,4.8113,3.1866,0.6244,0.1785,0.0693,-0.2701,0.3393,1.1623,1.2674,0.2577,-1.5594,-0.4988,-0.9806,-0.3002
6.8988,0.5765,4.8421,3.1987,0.5819,0.2091,0.057,-0.2705,0.39,1.179,1.369,0.2469,-1.5708,-0.4823,-0.9847,-0.3047
6.8988,0.5765,4.8421,3.1987,0.5819,0.2091,0.057,-0.2705,0.39,1.179,1.369,0.2469,-1.5708,-0.4823,-0.9847,-0.3047
6.94,0.5659,4.8578,3.2075,0.5431,0.2346,0.0447,-0.271,0.4469,1.1936,1.4512,0.2461,-1.5766,-0.474,-0.9905,-0.3066
6.94,0.5659,4.8578,3.2075,0.5431,0.2346,0.0447,-0.271,0.4469,1.1936,1.4512,0.2461,-1.5766,-0.474,-0.9905,-0.3066
6.9938,0.5469,4.8641,3.211,0.5151,0.2445,0.0324,-0.2714,0.4981,1.2104,1.5052,0.2554,-1.5823,-0.4657,-0.9946,-0.3112
7.0189,0.5302,4.8551,3.2113,0.4979,0.2388,0.019,-0.2761,0.538,1.2242,1.5337,0.2642,-1.5924,-0.4684,-1.0063,-0.315
7.0189,0.5302,4.8551,3.2113,0.4979,0.2388,0.019,-0.2761,0.538,1.2242,1.5337,0.2642,-1.5924,-0.4684,-1.0063,-0.315
7.0189,0.5302,4.8551,3.2113,0.4979,0.2388,0.019,-0.2761,0.538,1.2242,1.5337,0.2642,-1.5924,-0.4684,-1.0063,-0.315
7.0063,0.5191,4.8248,3.2048,0.4692,0.2294,0.0022,-0.2821,0.5638,1.2326,1.5335,0.2833,-1.6025,-0.4711,-1.0161,-0.3214
7.0063,0.5191,4.8248,3.2048,0.4692,0.2294,0.0022,-0.2821,0.5638,1.2326,1.5335,0.2833,-1.6025,-0.4711,-1.0161,-0.3214
6.9632,0.5227,4.7972,3.1945,0.4592,0.2135,-0.0035,-0.292,0.5753,1.2356,1.5162,0.2957,-1.6126,-0.4738,-1.0289,-0.3288
6.9632,0.5227,4.7972,3.1945,0.4592,0.2135,-0.0035,-0.292,0.5753,1.2356,1.5162,0.2957,-1.6126,-0.4738,-1.0289,-0.3288
6.9632,0.5227,4.7972,3.1945,0.4592,0.2135,-0.0035,-0.292,0.5753,1.2356,1.5162,0.2957,-1.6126,-0.4738,-1.0289,-0.3288
6.922,0.5333,4.7754,3.1821,0.4628,0.2083,0.0064,-0.3002,0.5951,1.2461,1.5104,0.3041,-1.5924,-0.4684,-1.0289,-0.3288
6.922,0.5333,4.7754,3.1821,0.4628,0.2083,0.0064,-0.3002,0.5951,1.2461,1.5104,0.3041,-1.5924,-0.4684,-1.0289,-0.3288
6.8988,0.596,4.7828,3.1652,0.5921,0.2251,0.088,-0.291,0.6724,1.2786,1.5676,0.3029,-1.3907,-0.4644,-0.9803,-0.3162
6.8988,0.596,4.7828,3.1652,0.5921,0.2251,0.088,-0.291,0.6724,1.2786,1.5676,0.3029,-1.3907,-0.4644,-0.9803,-0.3162
6.9221,0.6112,4.8031,3.1609,0.6782,0.2339,0.1388,-0.2732,0.7334,1.2959,1.625,0.308,-1.2278,-0.4715,-0.9363,-0.3019
6.9221,0.6112,4.8031,3.1609,0.6782,0.2339,0.1388,-0.2732,0.7334,1.2959,1.625,0.308,-1.2278,-0.4715,-0.9363,-0.3019
6.9221,0.6112,4.8031,3.1609,0.6782,0.2339,0.1388,-0.2732,0.7334,1.2959,1.625,0.308,-1.2278,-0.4715,-0.9363,-0.3019
6.9507,0.6089,4.8319,3.1507,0.7473,0.237,0.1729,-0.2494,0.7889,1.3082,1.6914,0.3068,-1.133,-0.467,-0.8932,-0.2911
6.9507,0.6089,4.8319,3.1507,0.7473,0.237,0.1729,-0.2494,0.7889,1.3082,1.6914,0.3068,-1.133,-0.467,-0.8932,-0.2911
6.9741,0.6046,4.8664,3.1385,0.7919,0.2449,0.216,-0.2382,0.8504,1.3256,1.7667,0.3057,-1.0983,-0.4285,-0.8404,-0.2838
6.9741,0.6046,4.8664,3.1385,0.7919,0.2449,0.216,-0.2382,0.8504,1.3256,1.7667,0.3057,-1.0983,-0.4285,-0.8404,-0.2838
7.0209,0.5959,4.9042,3.128,0.8461,0.2494,0.2661,-0.2246,0.922,1.3288,1.822,0.3085,-1.0857,-0.3755,-0.7941,-0.2721
7.066,0.5995,4.9289,3.1365,0.8933,0.2644,0.322,-0.2131,0.9849,1.3315,1.8599,0.3175,-1.0555,-0.3477,-0.7469,-0.2666
7.066,0.5995,4.9289,3.1365,0.8933,0.2644,0.322,-0.2131,0.9849,1.3315,1.8599,0.3175,-1.0555,-0.3477,-0.7469,-0.2666
7.066,0.5995,4.9289,3.1365,0.8933,0.2644,0.322,-0.2131,0.9849,1.3315,1.8599,0.3175,-1.0555,-0.3477,-0.7469,-0.2666
7.1222,0.6071,4.952,3.1599,0.9443,0.2741,0.3781,-0.2015,1.0358,1.3386,1.8891,0.3328,-1.0403,-0.3338,-0.6965,-0.2603
7.1222,0.6071,4.952,3.1599,0.9443,0.2741,0.3781,-0.2015,1.0358,1.3386,1.8891,0.3328,-1.0403,-0.3338,-0.6965,-0.2603
7.1623,0.6284,4.9778,3.1795,0.9835,0.2801,0.4411,-0.1995,1.065,1.357,1.9155,0.346,-1.0357,-0.3225,-0.6404,-0.2619
7.1623,0.6284,4.9778,3.1795,0.9835,0.2801,0.4411,-0.1995,1.065,1.357,1.9155,0.346,-1.0357,-0.3225,-0.6404,-0.2619
7.2116,0.6465,5.0174,3.1857,1.0482,0.2812,0.5022,-0.1944,1.0876,1.385,1.9448,0.3549,-0.9923,-0.3315,-0.5908,-0.2592
7.2116,0.6465,5.0174,3.1857,1.0482,0.2812,0.5022,-0.1944,1.0876,1.385,1.9448,0.3549,-0.9923,-0.3315,-0.5908,-0.2592
7.2684,0.6541,5.0572,3.1918,1.1204,0.2716,0.5451,-0.1877,1.1049,1.4005,1.9595,0.3658,-0.9805,-0.3485,-0.5697,-0.2526
7.296,0.6642,5.1023,3.1903,1.1591,0.2579,0.5753,-0.1813,1.126,1.4039,1.9919,0.3641,-1.0109,-0.3763,-0.5741,-0.2409
7.296,0.6642,5.1023,3.1903,1.1591,0.2579,0.5753,-0.1813,1.126,1.4039,1.9919,0.3641,-1.0109,-0.3763,-0.5741,-0.2409
7.296,0.6642,5.1023,3.1903,1.1591,0.2579,0.5753,-0.1813,1.126,1.4039,1.9919,0.3641,-1.0109,-0.3763,-0.5741,-0.2409
7.3071,0.6683,5.1295,3.1894,1.1531,0.2561,0.5801,-0.1757,1.1505,1.4024,2.057,0.354,-1.0576,-0.3982,-0.5925,-0.2303
7.3071,0.6683,5.1295,3.1894,1.1531,0.2561,0.5801,-0.1757,1.1505,1.4024,2.057,0.354,-1.0576,-0.3982,-0.5925,-0.2303
7.3071,0.6683,5.1295,3.1894,1.1531,0.2561,0.5801,-0.1757,1.1505,1.4024,2.057,0.354,-1.0576,-0.3982,-0.5925,-0.2303
7.3126,0.6703,5.1594,3.1846,1.124,0.2663,0.5848,-0.17,1.175,1.401,2.1253,0.3395,-1.11,-0.4116,-0.6157,-0.2181
7.3126,0.6703,5.1594,3.1846,1.124,0.2663,0.5848,-0.17,1.175,1.401,2.1253,0.3395,-1.11,-0.4116,-0.6157,-0.2181
7.3181,0.6723,5.1866,3.1837,1.101,0.2784,0.5861,-0.1656,1.2053,1.4048,2.1998,0.3294,-1.1413,-0.4196,-0.6255,-0.2146
7.3421,0.6678,5.2027,3.1925,1.0767,0.303,0.5909,-0.16,1.2507,1.4141,2.2627,0.3363,-1.1367,-0.4085,-0.6243,-0.211
7.3844,0.6568,5.2221,3.2031,1.0753,0.3155,0.5992,-0.1531,1.2959,1.4308,2.3079,0.3561,-1.089,-0.4062,-0.6085,-0.2125
7.3844,0.6568,5.2221,3.2031,1.0753,0.3155,0.5992,-0.1531,1.2959,1.4308,2.3079,0.3561,-1.089,-0.4062,-0.6085,-0.2125
7.4213,0.6438,5.2291,3.2122,1.0753,0.3155,0.6062,-0.1507,1.3383,1.445,2.3352,0.3823,-1.0798,-0.3839,-0.6044,-0.2079
7.4213,0.6438,5.2291,3.2122,1.0753,0.3155,0.6062,-0.1507,1.3383,1.445,2.3352,0.3823,-1.0798,-0.3839,-0.6044,-0.2079
7.4213,0.6438,5.2291,3.2122,1.0753,0.3155,0.6062,-0.1507,1.3383,1.445,2.3352,0.3823,-1.0798,-0.3839,-0.6044,-0.2079
7.4398,0.6373,5.2323,3.214,1.0753,0.3155,0.6327,-0.1577,1.3749,1.4539,2.3504,0.4064,-1.0529,-0.387,-0.5946,-0.2113
7.4398,0.6373,5.2323,3.214,1.0753,0.3155,0.6327,-0.1577,1.3749,1.4539,2.3504,0.4064,-1.0529,-0.387,-0.5946,-0.2113
7.4398,0.6373,5.2323,3.214,1.0753,0.3155,0.6327,-0.1577,1.3749,1.4539,2.3504,0.4064,-1.0529,-0.387,-0.5946,-0.2113
7.4269,0.6458,5.22,3.2126,1.0827,0.3049,0.6581,-0.169,1.4024,1.4625,2.3716,0.4152,-1.0483,-0.3759,-0.586,-0.2184
7.4269,0.6458,5.22,3.2126,1.0827,0.3049,0.6581,-0.169,1.4024,1.4625,2.3716,0.4152,-1.0483,-0.3759,-0.586,-0.2184
7.3384,0.6731,5.1878,3.1949,1.0757,0.2834,0.628,-0.1633,1.4328,1.4737,2.408,0.4089,-0.9815,-0.4187,-0.6034,-0.2305
7.3384,0.6731,5.1878,3.1949,1.0757,0.2834,0.628,-0.1633,1.4328,1.4737,2.408,0.4089,-0.9815,-0.4187,-0.6034,-0.2305
7.3384,0.6731,5.1878,3.1949,1.0757,0.2834,0.628,-0.1633,1.4328,1.4737,2.408,0.4089,-0.9815,-0.4187,-0.6034,-0.2305
7.2832,0.6727,5.1834,3.1819,1.0362,0.2774,0.5921,-0.1555,1.4417,1.4816,2.4383,0.3982,-0.992,-0.4213,-0.6222,-0.23
7.2832,0.6727,5.1834,3.1819,1.0362,0.2774,0.5921,-0.1555,1.4417,1.4816,2.4383,0.3982,-0.992,-0.4213,-0.6222,-0.23
7.2465,0.6659,5.185,3.1669,0.9895,0.282,0.5574,-0.1555,1.454,1.4846,2.4747,0.3854,-1.0471,-0.3955,-0.6391,-0.2321
7.2465,0.6659,5.185,3.1669,0.9895,0.282,0.5574,-0.1555,1.454,1.4846,2.4747,0.3854,-1.0471,-0.3955,-0.6391,-0.2321
7.2263,0.6651,5.1855,3.1725,0.9717,0.2763,0.5319,-0.1562,1.4917,1.4786,2.5143,0.3747,-1.0974,-0.3585,-0.6578,-0.2315
7.2263,0.6651,5.1855,3.1725,0.9717,0.2763,0.5319,-0.1562,1.4917,1.4786,2.5143,0.3747,-1.0974,-0.3585,-0.6578,-0.2315
7.2427,0.6513,5.1936,3.1928,0.9443,0.2741,0.5144,-0.1622,1.5266,1.47,2.5448,0.3705,-1.1569,-0.3439,-0.6728,-0.2364
7.2427,0.6513,5.1936,3.1928,0.9443,0.2741,0.5144,-0.1622,1.5266,1.47,2.5448,0.3705,-1.1569,-0.3439,-0.6728,-0.2364
7.2793,0.6384,5.2055,3.2206,0.9192,0.279,0.5062,-0.1691,1.5325,1.4752,2.5784,0.3684,-1.1777,-0.3493,-0.68,-0.2419
7.2793,0.6384,5.2055,3.2206,0.9192,0.279,0.5062,-0.1691,1.5325,1.4752,2.5784,0.3684,-1.1777,-0.3493,-0.68,-0.2419
7.294,0.6372,5.2082,3.2487,0.911,0.27,0.4866,-0.1719,1.516,1.4921,2.6029,0.3598,-1.2252,-0.3517,-0.6882,-0.2511
7.294,0.6372,5.2082,3.2487,0.911,0.27,0.4866,-0.1719,1.516,1.4921,2.6029,0.3598,-1.2252,-0.3517,-0.6882,-0.2511
7.3087,0.636,5.2158,3.2636,0.9088,0.2629,0.4577,-0.1739,1.4838,1.5108,2.609,0.3576,-1.2667,-0.3626,-0.708,-0.2542
7.3087,0.636,5.2158,3.2636,0.9088,0.2629,0.4577,-0.1739,1.4838,1.5108,2.609,0.3576,-1.2667,-0.3626,-0.708,-0.2542
7.3087,0.636,5.2077,3.2752,0.9042,0.2486,0.429,-0.1758,1.4465,1.5093,2.618,0.3446,-1.3022,-0.3818,-0.752,-0.2487
7.3087,0.636,5.2077,3.2752,0.9042,0.2486,0.429,-0.1758,1.4465,1.5093,2.618,0.3446,-1.3022,-0.3818,-0.752,-0.2487
7.2977,0.6319,5.1986,3.2755,0.8747,0.2393,0.3877,-0.1782,1.4101,1.4928,2.63,0.3207,-1.3684,-0.4092,-0.7999,-0.2479
7.2977,0.6319,5.1986,3.2755,0.8747,0.2393,0.3877,-0.1782,1.4101,1.4928,2.63,0.3207,-1.3684,-0.4092,-0.7999,-0.2479
7.2811,0.6259,5.1948,3.268,0.8285,0.2438,0.3487,-0.1839,1.383,1.4767,2.6328,0.3033,-1.4197,-0.4227,-0.8429,-0.2488
7.2811,0.6259,5.1948,3.268,0.8285,0.2438,0.3487,-0.1839,1.383,1.4767,2.6328,0.3033,-1.4197,-0.4227,-0.8429,-0.2488
7.2901,0.603,5.1761,3.263,0.7635,0.2549,0.3064,-0.1907,1.3619,1.4659,2.6114,0.3076,-1.4459,-0.4197,-0.878,-0.2504
7.2918,0.5905,5.1664,3.2577,0.7176,0.2593,0.2858,-0.1979,1.3409,1.455,2.5718,0.3249,-1.4619,-0.414,-0.9024,-0.2519
7.2918,0.5905,5.1664,3.2577,0.7176,0.2593,0.2858,-0.1979,1.3409,1.455,2.5718,0.3249,-1.4619,-0.414,-0.9024,-0.2519
7.2918,0.5905,5.1664,3.2577,0.7176,0.2593,0.2858,-0.1979,1.3409,1.455,2.5718,0.3249,-1.4619,-0.414,-0.9024,-0.2519
7.2937,0.5978,5.1638,3.2615,0.7212,0.2541,0.2903,-0.2043,1.3224,1.4543,2.5444,0.3378,-1.4313,-0.4059,-0.8987,-0.2572
7.2937,0.5978,5.1638,3.2615,0.7212,0.2541,0.2903,-0.2043,1.3224,1.4543,2.5444,0.3378,-1.4313,-0.4059,-0.8987,-0.2572
7.2883,0.6154,5.167,3.2633,0.7481,0.2564,0.3119,-0.2047,1.3039,1.4535,2.517,0.3442,-1.3376,-0.4011,-0.8784,-0.2603
7.3123,0.6307,5.1884,3.2645,0.8022,0.2609,0.3372,-0.1919,1.2922,1.4431,2.4896,0.3441,-1.1784,-0.4192,-0.8444,-0.2623
7.3123,0.6307,5.1884,3.2645,0.8022,0.2609,0.3372,-0.1919,1.2922,1.4431,2.4896,0.3441,-1.1784,-0.4192,-0.8444,-0.2623
7.3418,0.6282,5.2088,3.2544,0.8425,0.2546,0.3591,-0.1802,1.2562,1.4267,2.4197,0.346,-1.0715,-0.4315,-0.8133,-0.2653
7.3418,0.6282,5.2088,3.2544,0.8425,0.2546,0.3591,-0.1802,1.2562,1.4267,2.4197,0.346,-1.0715,-0.4315,-0.8133,-0.2653
7.3418,0.6282,5.2088,3.2544,0.8425,0.2546,0.3591,-0.1802,1.2562,1.4267,2.4197,0.346,-1.0715,-0.4315,-0.8133,-0.2653
7.3362,0.6262,5.2157,3.2315,0.8688,0.2374,0.3684,-0.169,1.1812,1.3988,2.2898,0.343,-1.0493,-0.4458,-0.797,-0.273
7.3362,0.6262,5.2157,3.2315,0.8688,0.2374,0.3684,-0.169,1.1812,1.3988,2.2898,0.343,-1.0493,-0.4458,-0.797,-0.273
7.3418,0.6282,5.2162,3.2052,0.8878,0.2307,0.3901,-0.1694,1.098,1.3633,2.1075,0.3523,-1.0773,-0.4231,-0.7856,-0.2791
7.3418,0.6282,5.2162,3.2052,0.8878,0.2307,0.3901,-0.1694,1.098,1.3633,2.1075,0.3523,-1.0773,-0.4231,-0.7856,-0.2791
7.3509,0.625,5.2075,3.1792,0.9033,0.2292,0.4198,-0.175,1.0067,1.3203,1.8919,0.3672,-1.1054,-0.4005,-0.78,-0.2871
7.3509,0.625,5.2075,3.1792,0.9033,0.2292,0.4198,-0.175,1.0067,1.3203,1.8919,0.3672,-1.1054,-0.4005,-0.78,-0.2871
7.3768,0.6278,5.2005,3.1701,0.9306,0.2314,0.4508,-0.1763,0.9282,1.2732,1.6617,0.3875,-1.1321,-0.3974,-0.7775,-0.296
7.3768,0.6278,5.2005,3.1701,0.9306,0.2314,0.4508,-0.1763,0.9282,1.2732,1.6617,0.3875,-1.1321,-0.3974,-0.7775,-0.296
7.3824,0.6298,5.1797,3.1746,0.9615,0.2284,0.4863,-0.1839,0.8592,1.2267,1.4547,0.4032,-1.153,-0.4027,-0.7749,-0.3049
7.3824,0.6298,5.1797,3.1746,0.9615,0.2284,0.4863,-0.1839,0.8592,1.2267,1.4547,0.4032,-1.153,-0.4027,-0.7749,-0.3049
7.3824,0.6298,5.1797,3.1746,0.9615,0.2284,0.4863,-0.1839,0.8592,1.2267,1.4547,0.4032,-1.153,-0.4027,-0.7749,-0.3049
7.3971,0.6285,5.162,3.1808,0.9926,0.2253,0.5266,-0.186,0.7688,1.1988,1.29,0.4041,-1.168,-0.4165,-0.7628,-0.3172
7.3971,0.6285,5.162,3.1808,0.9926,0.2253,0.5266,-0.186,0.7688,1.1988,1.29,0.4041,-1.168,-0.4165,-0.7628,-0.3172
7.3952,0.6212,5.1445,3.187,1.0045,0.229,0.5578,-0.1873,0.705,1.1792,1.1522,0.4053,-1.1726,-0.4276,-0.7332,-0.3337
7.3749,0.6205,5.1348,3.1817,1.0141,0.2257,0.5855,-0.1898,0.6462,1.179,1.0714,0.3992,-1.1551,-0.4529,-0.7113,-0.3494
7.3749,0.6205,5.1348,3.1817,1.0141,0.2257,0.5855,-0.1898,0.6462,1.179,1.0714,0.3992,-1.1551,-0.4529,-0.7113,-0.3494
7.3435,0.6157,5.1247,3.1709,1.0213,0.2152,0.597,-0.1939,0.5959,1.1863,1.0216,0.3916,-1.1538,-0.4723,-0.7136,-0.3566
7.3435,0.6157,5.1247,3.1709,1.0213,0.2152,0.597,-0.1939,0.5959,1.1863,1.0216,0.3916,-1.1538,-0.4723,-0.7136,-0.3566
7.3048,0.6018,5.0996,3.1624,1.0167,0.201,0.59,-0.1962,0.5665,1.1897,1.0053,0.3785,-1.1735,-0.497,-0.7341,-0.3534
7.3048,0.6018,5.0996,3.1624,1.0167,0.201,0.59,-0.1962,0.5665,1.1897,1.0053,0.3785,-1.1735,-0.497,-0.7341,-0.3534
7.2534,0.5962,5.0831,3.148,0.9929,0.1936,0.5693,-0.1914,0.5522,1.1843,1.017,0.3556,-1.2311,-0.5019,-0.7737,-0.3433
7.2534,0.5962,5.0831,3.148,0.9929,0.1936,0.5693,-0.1914,0.5522,1.1843,1.017,0.3556,-1.2311,-0.5019,-0.7737,-0.3433
7.2314,0.5882,5.0762,3.139,0.9642,0.2037,0.5658,-0.1926,0.5495,1.1818,1.0451,0.3394,-1.3002,-0.4901,-0.7989,-0.3385
7.2314,0.5882,5.0762,3.139,0.9642,0.2037,0.5658,-0.1926,0.5495,1.1818,1.0451,0.3394,-1.3002,-0.4901,-0.7989,-0.3385
7.224,0.579,5.0725,3.1317,0.9319,0.2191,0.5543,-0.1885,0.5725,1.1876,1.0954,0.3278,-1.3381,-0.4704,-0.8133,-0.3334
7.224,0.579,5.0725,3.1317,0.9319,0.2191,0.5543,-0.1885,0.5725,1.1876,1.0954,0.3278,-1.3381,-0.4704,-0.8133,-0.3334
7.224,0.579,5.0725,3.1317,0.9319,0.2191,0.5543,-0.1885,0.5725,1.1876,1.0954,0.3278,-1.3381,-0.4704,-0.8133,-0.3334
7.2895,0.5441,5.0836,3.122,0.8842,0.2359,0.5463,-0.1833,0.6717,1.1945,1.1899,0.351,-1.3542,-0.4647,-0.8114,-0.336
7.2895,0.5441,5.0836,3.122,0.8842,0.2359,0.5463,-0.1833,0.6717,1.1945,1.1899,0.351,-1.3542,-0.4647,-0.8114,-0.336
7.2895,0.5441,5.0836,3.122,0.8842,0.2359,0.5463,-0.1833,0.6717,1.1945,1.1899,0.351,-1.3542,-0.4647,-0.8114,-0.336
7.2931,0.5389,5.0746,3.1223,0.8665,0.2303,0.5521,-0.1853,0.7241,1.204,1.24,0.3712,-1.3599,-0.4564,-0.7989,-0.3385
7.2931,0.5389,5.0746,3.1223,0.8665,0.2303,0.5521,-0.1853,0.7241,1.204,1.24,0.3712,-1.3599,-0.4564,-0.7989,-0.3385
7.273,0.5382,5.056,3.1174,0.8525,0.2195,0.56,-0.1905,0.774,1.211,1.2875,0.3892,-1.376,-0.4507,-0.7922,-0.3428
7.273,0.5382,5.056,3.1174,0.8525,0.2195,0.56,-0.1905,0.774,1.211,1.2875,0.3892,-1.376,-0.4507,-0.7922,-0.3428
7.2256,0.5471,5.0406,3.1142,0.829,0.2121,0.576,-0.201,0.8175,1.2273,1.3524,0.3948,-1.3818,-0.4423,-0.7874,-0.3445
7.2256,0.5471,5.0406,3.1142,0.829,0.2121,0.576,-0.201,0.8175,1.2273,1.3524,0.3948,-1.3818,-0.4423,-0.7874,-0.3445
7.1692,0.5591,5.0248,3.1055,0.8032,0.1976,0.5827,-0.2107,0.8523,1.2433,1.4178,0.3939,-1.3978,-0.4367,-0.7982,-0.3447
7.1203,0.5803,5.0094,3.1023,0.7798,0.1901,0.5801,-0.2195,0.89,1.2618,1.4921,0.3868,-1.3818,-0.4423,-0.8107,-0.3422
7.1203,0.5803,5.0094,3.1023,0.7798,0.1901,0.5801,-0.2195,0.89,1.2618,1.4921,0.3868,-1.3818,-0.4423,-0.8107,-0.3422
7.1203,0.5803,5.0094,3.1023,0.7798,0.1901,0.5801,-0.2195,0.89,1.2618,1.4921,0.3868,-1.3818,-0.4423,-0.8107,-0.3422
7.0715,0.6015,4.9794,3.1014,0.7623,0.1846,0.5524,-0.217,0.9127,1.2822,1.5582,0.373,-1.3599,-0.4564,-0.8406,-0.3357
7.0715,0.6015,4.9794,3.1014,0.7623,0.1846,0.5524,-0.217,0.9127,1.2822,1.5582,0.373,-1.3599,-0.4564,-0.8406,-0.3357
7.0137,0.6062,4.9362,3.0881,0.7367,0.1701,0.5007,-0.2109,0.9392,1.2906,1.6044,0.3567,-1.3323,-0.4787,-0.8705,-0.3291
7.0137,0.6062,4.9362,3.0881,0.7367,0.1701,0.5007,-0.2109,0.9392,1.2906,1.6044,0.3567,-1.3323,-0.4787,-0.8705,-0.3291
6.9507,0.5894,4.8953,3.0655,0.7031,0.1468,0.4342,-0.2019,0.9506,1.3008,1.6449,0.3359,-1.3413,-0.5007,-0.911,-0.3228
6.8792,0.5562,4.8592,3.03,0.6414,0.1335,0.3611,-0.1955,0.9592,1.3085,1.6855,0.3152,-1.3881,-0.503,-0.9477,-0.3218
6.8792,0.5562,4.8592,3.03,0.6414,0.1335,0.3611,-0.1955,0.9592,1.3085,1.6855,0.3152,-1.3881,-0.503,-0.9477,-0.3218
6.8792,0.5562,4.8592,3.03,0.6414,0.1335,0.3611,-0.1955,0.9592,1.3085,1.6855,0.3152,-1.3881,-0.503,-0.9477,-0.3218
6.8275,0.5241,4.8294,2.9981,0.601,0.1206,0.3074,-0.1983,0.9768,1.3166,1.7262,0.2945,-1.468,-0.4748,-0.9777,-0.3251
6.8275,0.5241,4.8294,2.9981,0.601,0.1206,0.3074,-0.1983,0.9768,1.3166,1.7262,0.2945,-1.468,-0.4748,-0.9777,-0.3251
6.792,0.498,4.7888,2.9758,0.5628,0.1147,0.2653,-0.2051,1.0222,1.3112,1.7611,0.2758,-1.5794,-0.4354,-1.0136,-0.3303
6.792,0.498,4.7888,2.9758,0.5628,0.1147,0.2653,-0.2051,1.0222,1.3112,1.7611,0.2758,-1.5794,-0.4354,-1.0136,-0.3303
6.7531,0.4771,4.7375,2.963,0.5212,0.1139,0.2266,-0.2107,1.0646,1.3106,1.7844,0.2676,-1.6572,-0.4268,-1.0446,-0.3372
6.7531,0.4771,4.7375,2.963,0.5212,0.1139,0.2266,-0.2107,1.0646,1.3106,1.7844,0.2676,-1.6572,-0.4268,-1.0446,-0.3372
6.6949,0.4746,4.6756,2.9596,0.4797,0.1131,0.196,-0.2215,1.0938,1.3289,1.8222,0.2638,-1.7088,-0.421,-1.0574,-0.3446
6.6949,0.4746,4.6756,2.9596,0.4797,0.1131,0.196,-0.2215,1.0938,1.3289,1.8222,0.2638,-1.7088,-0.421,-1.0574,-0.3446
6.6387,0.4791,4.6304,2.9448,0.4604,0.1006,0.1743,-0.2331,1.1223,1.3619,1.8689,0.26,-1.7646,-0.4263,-1.0683,-0.3546
6.6387,0.4791,4.6304,2.9448,0.4604,0.1006,0.1743,-0.2331,1.1223,1.3619,1.8689,0.26,-1.7646,-0.4263,-1.0683,-0.3546
6.5879,0.4855,4.6027,2.9295,0.4468,0.09,0.1505,-0.2415,1.1472,1.4072,1.9362,0.2522,-1.7945,-0.4345,-1.0875,-0.3576
6.5879,0.4855,4.6027,2.9295,0.4468,0.09,0.1505,-0.2415,1.1472,1.4072,1.9362,0.2522,-1.7945,-0.4345,-1.0875,-0.3576
6.5547,0.4858,4.5925,2.9136,0.4588,0.0627,0.1212,-0.2478,1.1824,1.431,2.0185,0.2423,-1.7973,-0.4646,-1.1246,-0.3505
6.5547,0.4858,4.5925,2.9136,0.4588,0.0627,0.1212,-0.2478,1.1824,1.431,2.0185,0.2423,-1.7973,-0.4646,-1.1246,-0.3505
6.5111,0.482,4.5935,2.8937,0.4395,0.0503,0.0897,-0.2511,1.2249,1.4377,2.0982,0.2237,-1.8313,-0.4837,-1.1662,-0.3417
6.5111,0.482,4.5935,2.8937,0.4395,0.0503,0.0897,-0.2511,1.2249,1.4377,2.0982,0.2237,-1.8313,-0.4837,-1.1662,-0.3417
6.4729,0.4803,4.595,2.8793,0.4118,0.0601,0.074,-0.2527,1.283,1.4427,2.1961,0.2051,-1.8355,-0.4946,-1.1868,-0.3325
6.4729,0.4803,4.595,2.8793,0.4118,0.0601,0.074,-0.2527,1.283,1.4427,2.1961,0.2051,-1.8355,-0.4946,-1.1868,-0.3325
6.4816,0.4772,4.6027,2.8683,0.4056,0.0892,0.0842,-0.2491,1.3619,1.4659,2.2946,0.1992,-1.7759,-0.4784,-1.1713,-0.3241
6.4816,0.4772,4.6027,2.8683,0.4056,0.0892,0.0842,-0.2491,1.3619,1.4659,2.2946,0.1992,-1.7759,-0.4784,-1.1713,-0.3241
6.4816,0.4772,4.6027,2.8683,0.4056,0.0892,0.0842,-0.2491,1.3619,1.4659,2.2946,0.1992,-1.7759,-0.4784,-1.1713,-0.3241
6.5321,0.4708,4.6144,2.8697,0.4462,0.1211,0.1326,-0.2399,1.4633,1.485,2.379,0.2144,-1.6658,-0.4487,-1.129,-0.3133
6.5321,0.4708,4.6144,2.8697,0.4462,0.1211,0.1326,-0.2399,1.4633,1.485,2.379,0.2144,-1.6658,-0.4487,-1.129,-0.3133
6.5321,0.4708,4.6144,2.8697,0.4462,0.1211,0.1326,-0.2399,1.4633,1.485,2.379,0.2144,-1.6658,-0.4487,-1.129,-0.3133
6.553,0.4787,4.5898,2.8257,0.5593,0.1199,0.2487,-0.2426,1.6032,1.5055,2.4007,0.2617,-1.4677,-0.4057,-1.0253,-0.3083
6.553,0.4787,4.5898,2.8257,0.5593,0.1199,0.2487,-0.2426,1.6032,1.5055,2.4007,0.2617,-1.4677,-0.4057,-1.0253,-0.3083
6.553,0.4787,4.5898,2.8257,0.5593,0.1199,0.2487,-0.2426,1.6032,1.5055,2.4007,0.2617,-1.4677,-0.4057,-1.0253,-0.3083
6.4972,0.4831,4.5082,2.761,0.6001,0.1015,0.2803,-0.2513,1.5629,1.4939,2.2415,0.2888,-1.3773,-0.4313,-1.0044,-0.3176
6.4972,0.4831,4.5082,2.761,0.6001,0.1015,0.2803,-0.2513,1.5629,1.4939,2.2415,0.2888,-1.3773,-0.4313,-1.0044,-0.3176
6.2102,0.4365,4.1784,2.5074,0.5421,0.0332,0.2063,-0.2731,1.285,1.4056,1.6365,0.3103,-1.3913,-0.5332,-1.0311,-0.3617
6.2102,0.4365,4.1784,2.5074,0.5421,0.0332,0.2063,-0.2731,1.285,1.4056,1.6365,0.3103,-1.3913,-0.5332,-1.0311,-0.3617
6.2102,0.4365,4.1784,2.5074,0.5421,0.0332,0.2063,-0.2731,1.285,1.4056,1.6365,0.3103,-1.3913,-0.5332,-1.0311,-0.3617
5.9742,0.3885,3.9475,2.3154,0.4668,-0.0092,0.1316,-0.2993,1.0749,1.3427,1.2213,0.3242,-1.499,-0.5514,-1.0636,-0.3819
5.9742,0.3885,3.9475,2.3154,0.4668,-0.0092,0.1316,-0.2993,1.0749,1.3427,1.2213,0.3242,-1.499,-0.5514,-1.0636,-0.3819
5.9742,0.3885,3.9475,2.3154,0.4668,-0.0092,0.1316,-0.2993,1.0749,1.3427,1.2213,0.3242,-1.499,-0.5514,-1.0636,-0.3819
5.6965,0.3162,3.6471,2.0704,0.3885,-0.0463,0.0559,-0.3414,0.8478,1.2697,0.7648,0.3324,-1.6172,-0.5531,-1.0988,-0.403
5.6965,0.3162,3.6471,2.0704,0.3885,-0.0463,0.0559,-0.3414,0.8478,1.2697,0.7648,0.3324,-1.6172,-0.5531,-1.0988,-0.403
5.6965,0.3162,3.6471,2.0704,0.3885,-0.0463,0.0559,-0.3414,0.8478,1.2697,0.7648,0.3324,-1.6172,-0.5531,-1.0988,-0.403
5.1625,0.1745,3.0226,1.5965,0.2422,-0.1233,-0.1023,-0.4432,0.4127,1.0949,-0.1846,0.3401,-1.8086,-0.5844,-1.1593,-0.4386
5.1625,0.1745,3.0226,1.5965,0.2422,-0.1233,-0.1023,-0.4432,0.4127,1.0949,-0.1846,0.3401,-1.8086,-0.5844,-1.1593,-0.4386
4.9056,0.1053,2.7253,1.3931,0.1652,-0.1599,-0.1756,-0.4919,0.186,1.014,-0.6341,0.3309,-1.8976,-0.6082,-1.1828,-0.4557
4.9056,0.1053,2.7253,1.3931,0.1652,-0.1599,-0.1756,-0.4919,0.186,1.014,-0.6341,0.3309,-1.8976,-0.6082,-1.1828,-0.4557
4.6684,0.0485,2.4934,1.2174,0.0908,-0.1897,-0.2648,-0.5345,-0.0658,0.9508,-1.078,0.319,-1.9707,-0.6374,-1.1986,-0.4735
4.6684,0.0485,2.4934,1.2174,0.0908,-0.1897,-0.2648,-0.5345,-0.0658,0.9508,-1.078,0.319,-1.9707,-0.6374,-1.1986,-0.4735
4.6684,0.0485,2.4934,1.2174,0.0908,-0.1897,-0.2648,-0.5345,-0.0658,0.9508,-1.078,0.319,-1.9707,-0.6374,-1.1986,-0.4735
4.4906,0.0036,2.3192,1.0938,0.0423,-0.2172,-0.3499,-0.5644,-0.2678,0.9085,-1.4074,0.301,-2.0378,-0.6746,-1.2285,-0.4864
4.3517,-0.0198,2.202,1.0126,0.0195,-0.2425,-0.4257,-0.5835,-0.4156,0.8712,-1.6484,0.2848,-2.0656,-0.7011,-1.2672,-0.4864
4.263,-0.04,2.1333,0.9727,0.0042,-0.2593,-0.4881,-0.598,-0.5189,0.8385,-1.7877,0.2565,-2.1087,-0.7221,-1.3169,-0.4805
4.263,-0.04,2.1333,0.9727,0.0042,-0.2593,-0.4881,-0.598,-0.5189,0.8385,-1.7877,0.2565,-2.1087,-0.7221,-1.3169,-0.4805
4.263,-0.04,2.1333,0.9727,0.0042,-0.2593,-0.4881,-0.598,-0.5189,0.8385,-1.7877,0.2565,-2.1087,-0.7221,-1.3169,-0.4805
4.263,-0.04,2.1333,0.9727,0.0042,-0.2593,-0.4881,-0.598,-0.5189,0.8385,-1.7877,0.2565,-2.1087,-0.7221,-1.3169,-0.4805
4.2161,-0.0542,2.1181,0.9648,-0.0157,-0.2596,-0.5395,-0.6049,-0.5683,0.8134,-1.8244,0.2266,-2.1474,-0.7325,-1.3571,-0.4779
4.2161,-0.0542,2.1181,0.9648,-0.0157,-0.2596,-0.5395,-0.6049,-0.5683,0.8134,-1.8244,0.2266,-2.1474,-0.7325,-1.3571,-0.4779
4.2161,-0.0542,2.1181,0.9648,-0.0157,-0.2596,-0.5395,-0.6049,-0.5683,0.8134,-1.8244,0.2266,-2.1474,-0.7325,-1.3571,-0.4779
4.2417,-0.0667,2.1893,1.0259,-0.0682,-0.2226,-0.6056,-0.6134,-0.4948,0.8038,-1.6795,0.2097,-2.1682,-0.7192,-1.4058,-0.4782
4.2417,-0.0667,2.1893,1.0259,-0.0682,-0.2226,-0.6056,-0.6134,-0.4948,0.8038,-1.6795,0.2097,-2.1682,-0.7192,-1.4058,-0.4782
4.3013,-0.0707,2.2482,1.0809,-0.0961,-0.2016,-0.6258,-0.6131,-0.4173,0.8191,-1.5383,0.2258,-2.1544,-0.706,-1.4189,-0.4793
4.3013,-0.0707,2.2482,1.0809,-0.0961,-0.2016,-0.6258,-0.6131,-0.4173,0.8191,-1.5383,0.2258,-2.1544,-0.706,-1.4189,-0.4793
4.3416,-0.0712,2.3006,1.1408,-0.1139,-0.1953,-0.6406,-0.6147,-0.3326,0.8551,-1.3541,0.256,-2.1558,-0.6874,-1.4274,-0.4822
4.3681,-0.06,2.3388,1.2017,-0.1248,-0.1989,-0.6386,-0.6177,-0.2617,0.8997,-1.184,0.2832,-2.1613,-0.6794,-1.4341,-0.4875
4.3681,-0.06,2.3388,1.2017,-0.1248,-0.1989,-0.6386,-0.6177,-0.2617,0.8997,-1.184,0.2832,-2.1613,-0.6794,-1.4341,-0.4875
4.3681,-0.06,2.3388,1.2017,-0.1248,-0.1989,-0.6386,-0.6177,-0.2617,0.8997,-1.184,0.2832,-2.1613,-0.6794,-1.4341,-0.4875
4.3656,-0.0316,2.3683,1.2503,-0.1391,-0.1975,-0.6397,-0.6218,-0.1934,0.949,-1.0038,0.2987,-2.1517,-0.6767,-1.4398,-0.4894
4.3656,-0.0316,2.3683,1.2503,-0.1391,-0.1975,-0.6397,-0.6218,-0.1934,0.949,-1.0038,0.2987,-2.1517,-0.6767,-1.4398,-0.4894
4.3498,-0.0088,2.3747,1.2867,-0.1609,-0.2046,-0.6513,-0.6222,-0.1181,0.9827,-0.8329,0.3032,-2.1059,-0.6929,-1.4465,-0.4948
4.3498,-0.0088,2.3747,1.2867,-0.1609,-0.2046,-0.6513,-0.6222,-0.1181,0.9827,-0.8329,0.3032,-2.1059,-0.6929,-1.4465,-0.4948
4.3346,-0.0035,2.3652,1.3106,-0.1759,-0.2215,-0.6799,-0.6212,-0.0533,1.0138,-0.6773,0.3045,-2.0545,-0.7171,-1.4642,-0.4943
4.3346,-0.0035,2.3652,1.3106,-0.1759,-0.2215,-0.6799,-0.6212,-0.0533,1.0138,-0.6773,0.3045,-2.0545,-0.7171,-1.4642,-0.4943
4.2975,-0.0076,2.344,1.3158,-0.2092,-0.2502,-0.7305,-0.6169,0.0034,1.0445,-0.5323,0.3009,-2.0434,-0.7331,-1.4819,-0.4939
4.2579,-0.0245,2.3214,1.3078,-0.2599,-0.2727,-0.782,-0.6168,0.0582,1.066,-0.3936,0.2967,-2.0893,-0.7169,-1.5023,-0.4944
4.2579,-0.0245,2.3214,1.3078,-0.2599,-0.2727,-0.782,-0.6168,0.0582,1.066,-0.3936,0.2967,-2.0893,-0.7169,-1.5023,-0.4944
4.2579,-0.0245,2.3214,1.3078,-0.2599,-0.2727,-0.782,-0.6168,0.0582,1.066,-0.3936,0.2967,-2.0893,-0.7169,-1.5023,-0.4944
4.2285,-0.0312,2.306,1.2996,-0.3064,-0.2819,-0.825,-0.6174,0.1132,1.0874,-0.261,0.2858,-2.1654,-0.69,-1.5301,-0.4942
4.2285,-0.0312,2.306,1.2996,-0.3064,-0.2819,-0.825,-0.6174,0.1132,1.0874,-0.261,0.2858,-2.1654,-0.69,-1.5301,-0.4942
4.2285,-0.0312,2.306,1.2996,-0.3064,-0.2819,-0.825,-0.6174,0.1132,1.0874,-0.261,0.2858,-2.1654,-0.69,-1.5301,-0.4942
4.2229,-0.0395,2.289,1.2988,-0.3541,-0.2796,-0.8574,-0.6217,0.1881,1.1123,-0.1255,0.289,-2.2484,-0.6365,-1.5505,-0.4947
4.2304,-0.0422,2.2637,1.31,-0.3788,-0.2818,-0.8836,-0.6238,0.2612,1.1277,-0.0148,0.2952,-2.3146,-0.607,-1.5755,-0.4936
4.2304,-0.0422,2.2637,1.31,-0.3788,-0.2818,-0.8836,-0.6238,0.2612,1.1277,-0.0148,0.2952,-2.3146,-0.607,-1.5755,-0.4936
4.2423,-0.043,2.2393,1.33,-0.4069,-0.2792,-0.9044,-0.6277,0.3293,1.1381,0.0839,0.2967,-2.368,-0.6124,-1.5895,-0.4983
4.2423,-0.043,2.2393,1.33,-0.4069,-0.2792,-0.9044,-0.6277,0.3293,1.1381,0.0839,0.2967,-2.368,-0.6124,-1.5895,-0.4983
4.2423,-0.043,2.2115,1.3398,-0.4316,-0.2814,-0.9284,-0.6327,0.371,1.1614,0.1806,0.2959,-2.3965,-0.6204,-1.5943,-0.5062
4.2423,-0.043,2.2115,1.3398,-0.4316,-0.2814,-0.9284,-0.6327,0.371,1.1614,0.1806,0.2959,-2.3965,-0.6204,-1.5943,-0.5062
4.2423,-0.043,2.2115,1.3398,-0.4316,-0.2814,-0.9284,-0.6327,0.371,1.1614,0.1806,0.2959,-2.3965,-0.6204,-1.5943,-0.5062
4.2336,-0.0467,2.1849,1.3378,-0.4616,-0.2854,-0.9534,-0.6418,0.3923,1.1886,0.2597,0.2924,-2.4045,-0.6417,-1.6065,-0.5134
4.2098,-0.0452,2.1554,1.33,-0.4502,-0.3112,-0.9886,-0.6473,0.4027,1.2057,0.3153,0.288,-2.422,-0.6656,-1.6296,-0.5149
4.2098,-0.0452,2.1554,1.33,-0.4502,-0.3112,-0.9886,-0.6473,0.4027,1.2057,0.3153,0.288,-2.422,-0.6656,-1.6296,-0.5149
4.1923,-0.0527,2.1322,1.3132,-0.4349,-0.3239,-1.0093,-0.6512,0.4196,1.2137,0.3606,0.2811,-2.4409,-0.6709,-1.6614,-0.5036
4.1923,-0.0527,2.1322,1.3132,-0.4349,-0.3239,-1.0093,-0.6512,0.4196,1.2137,0.3606,0.2811,-2.4409,-0.6709,-1.6614,-0.5036
4.1773,-0.0474,2.1212,1.299,-0.4049,-0.3199,-1.0052,-0.6459,0.4396,1.2171,0.4144,0.2621,-2.4559,-0.6656,-1.6758,-0.4928
4.1773,-0.0474,2.1212,1.299,-0.4049,-0.3199,-1.0052,-0.6459,0.4396,1.2171,0.4144,0.2621,-2.4559,-0.6656,-1.6758,-0.4928
4.1773,-0.0474,2.1212,1.299,-0.4049,-0.3199,-1.0052,-0.6459,0.4396,1.2171,0.4144,0.2621,-2.4559,-0.6656,-1.6758,-0.4928
4.1948,-0.0398,2.1346,1.2897,-0.3581,-0.2928,-0.9689,-0.6363,0.4858,1.2217,0.4922,0.2499,-2.4045,-0.6417,-1.6599,-0.4811
4.1948,-0.0398,2.1346,1.2897,-0.3581,-0.2928,-0.9689,-0.6363,0.4858,1.2217,0.4922,0.2499,-2.4045,-0.6417,-1.6599,-0.4811
4.1948,-0.0398,2.1346,1.2897,-0.3581,-0.2928,-0.9689,-0.6363,0.4858,1.2217,0.4922,0.2499,-2.4045,-0.6417,-1.6599,-0.4811
4.3108,-0.0432,2.1918,1.2877,-0.272,-0.217,-0.8637,-0.6128,0.6159,1.2423,0.626,0.264,-2.217,-0.5991,-1.5616,-0.4638
4.3108,-0.0432,2.1918,1.2877,-0.272,-0.217,-0.8637,-0.6128,0.6159,1.2423,0.626,0.264,-2.217,-0.5991,-1.5616,-0.4638
4.3706,-0.0472,2.2352,1.2905,-0.2321,-0.1979,-0.7966,-0.6071,0.6858,1.2527,0.693,0.2804,-2.1396,-0.5777,-1.5021,-0.4596
4.3706,-0.0472,2.2352,1.2905,-0.2321,-0.1979,-0.7966,-0.6071,0.6858,1.2527,0.693,0.2804,-2.1396,-0.5777,-1.5021,-0.4596
4.3706,-0.0472,2.2352,1.2905,-0.2321,-0.1979,-0.7966,-0.6071,0.6858,1.2527,0.693,0.2804,-2.1396,-0.5777,-1.5021,-0.4596
4.4213,-0.0375,2.2895,1.3031,-0.203,-0.1824,-0.7199,-0.6093,0.744,1.2674,0.7494,0.3006,-2.0659,-0.5671,-1.4499,-0.4548
4.4213,-0.0375,2.2895,1.3031,-0.203,-0.1824,-0.7199,-0.6093,0.744,1.2674,0.7494,0.3006,-2.0659,-0.5671,-1.4499,-0.4548
4.4397,-0.0061,2.3398,1.3219,-0.169,-0.1833,-0.6606,-0.6031,0.7996,1.2796,0.8091,0.3105,-1.9904,-0.5754,-1.4123,-0.4487
4.4397,-0.0061,2.3398,1.3219,-0.169,-0.1833,-0.6606,-0.6031,0.7996,1.2796,0.8091,0.3105,-1.9904,-0.5754,-1.4123,-0.4487
4.4397,-0.0061,2.3398,1.3219,-0.169,-0.1833,-0.6606,-0.6031,0.7996,1.2796,0.8091,0.3105,-1.9904,-0.5754,-1.4123,-0.4487
4.4913,0.0276,2.444,1.3653,-0.135,-0.1842,-0.6094,-0.5734,0.8903,1.3079,0.9267,0.3218,-1.8694,-0.5813,-1.3658,-0.4301
4.4913,0.0276,2.444,1.3653,-0.135,-0.1842,-0.6094,-0.5734,0.8903,1.3079,0.9267,0.3218,-1.8694,-0.5813,-1.3658,-0.4301
4.5155,0.026,2.5022,1.3839,-0.1371,-0.1909,-0.6071,-0.5537,0.9196,1.3189,0.9819,0.321,-1.8595,-0.5787,-1.3441,-0.4261
4.5155,0.026,2.5022,1.3839,-0.1371,-0.1909,-0.6071,-0.5537,0.9196,1.3189,0.9819,0.321,-1.8595,-0.5787,-1.3441,-0.4261
4.5443,0.0262,2.5602,1.3981,-0.1391,-0.1975,-0.607,-0.5423,0.9437,1.3175,1.0235,0.3157,-1.8962,-0.5596,-1.3366,-0.4268
4.5776,0.0283,2.6089,1.4157,-0.1303,-0.2007,-0.6027,-0.537,0.9739,1.314,1.0542,0.308,-1.9231,-0.5378,-1.3337,-0.4258
4.5776,0.0283,2.6089,1.4157,-0.1303,-0.2007,-0.6027,-0.537,0.9739,1.314,1.0542,0.308,-1.9231,-0.5378,-1.3337,-0.4258
4.6065,0.0286,2.6297,1.4478,-0.1337,-0.1958,-0.6027,-0.537,0.9927,1.3002,1.0599,0.2997,-1.9737,-0.5322,-1.3441,-0.4261
4.6065,0.0286,2.6297,1.4478,-0.1337,-0.1958,-0.6027,-0.537,0.9927,1.3002,1.0599,0.2997,-1.9737,-0.5322,-1.3441,-0.4261
4.6065,0.0286,2.6297,1.4478,-0.1337,-0.1958,-0.6027,-0.537,0.9927,1.3002,1.0599,0.2997,-1.9737,-0.5322,-1.3441,-0.4261
4.6078,0.0351,2.6283,1.481,-0.1425,-0.1926,-0.6059,-0.5381,0.9989,1.298,1.0627,0.3019,-1.999,-0.5294,-1.3423,-0.4287
4.6078,0.0351,2.6283,1.481,-0.1425,-0.1926,-0.6059,-0.5381,0.9989,1.298,1.0627,0.3019,-1.999,-0.5294,-1.3423,-0.4287
4.6014,0.0443,2.6281,1.5021,-0.1337,-0.1958,-0.6038,-0.5411,0.9829,1.3144,1.0655,0.2977,-2.034,-0.5293,-1.3387,-0.4338
4.6014,0.0443,2.6281,1.5021,-0.1337,-0.1958,-0.6038,-0.5411,0.9829,1.3144,1.0655,0.2977,-2.034,-0.5293,-1.3387,-0.4338
4.6027,0.0508,2.6348,1.5184,-0.0961,-0.2016,-0.5932,-0.5449,0.9636,1.3355,1.0711,0.2958,-2.0592,-0.5266,-1.3416,-0.4348
4.604,0.0573,2.6458,1.5286,-0.0497,-0.2106,-0.5868,-0.5426,0.9509,1.3471,1.0879,0.2898,-2.0423,-0.551,-1.3555,-0.4298
4.604,0.0573,2.6458,1.5286,-0.0497,-0.2106,-0.5868,-0.5426,0.9509,1.3471,1.0879,0.2898,-2.0423,-0.551,-1.3555,-0.4298
4.604,0.0573,2.6458,1.5286,-0.0497,-0.2106,-0.5868,-0.5426,0.9509,1.3471,1.0879,0.2898,-2.0423,-0.551,-1.3555,-0.4298
4.6072,0.0527,2.6659,1.5309,-0.0196,-0.225,-0.5942,-0.5377,0.9419,1.3467,1.1076,0.2797,-2.0449,-0.5806,-1.3815,-0.4226
4.6072,0.0527,2.6659,1.5309,-0.0196,-0.225,-0.5942,-0.5377,0.9419,1.3467,1.1076,0.2797,-2.0449,-0.5806,-1.3815,-0.4226
4.6027,0.0508,2.6738,1.5352,-0.0251,-0.2267,-0.5974,-0.5388,0.9428,1.3321,1.1471,0.2533,-2.0881,-0.602,-1.4114,-0.4198
4.6027,0.0508,2.6738,1.5352,-0.0251,-0.2267,-0.5974,-0.5388,0.9428,1.3321,1.1471,0.2533,-2.0881,-0.602,-1.4114,-0.4198
4.5937,0.047,2.6838,1.5363,-0.064,-0.2093,-0.6112,-0.5362,0.9461,1.3274,1.1864,0.2394,-2.1228,-0.6019,-1.4338,-0.4178
4.5937,0.047,2.6838,1.5363,-0.064,-0.2093,-0.6112,-0.5362,0.9461,1.3274,1.1864,0.2394,-2.1228,-0.6019,-1.4338,-0.4178
4.6001,0.0378,2.6891,1.5391,-0.1098,-0.182,-0.6208,-0.5397,0.9555,1.3205,1.2315,0.2235,-2.1631,-0.5938,-1.4497,-0.4199
4.6033,0.0332,2.6879,1.5513,-0.1554,-0.1547,-0.6325,-0.5401,0.9706,1.3187,1.2595,0.2198,-2.1687,-0.5857,-1.4656,-0.4221
4.6033,0.0332,2.6879,1.5513,-0.1554,-0.1547,-0.6325,-0.5401,0.9706,1.3187,1.2595,0.2198,-2.1687,-0.5857,-1.4656,-0.4221
4.6033,0.0332,2.6879,1.5513,-0.1554,-0.1547,-0.6325,-0.5401,0.9706,1.3187,1.2595,0.2198,-2.1687,-0.5857,-1.4656,-0.4221
4.6219,0.0231,2.6963,1.5601,-0.1997,-0.1391,-0.6526,-0.5399,0.9858,1.3169,1.2678,0.2325,-2.1799,-0.5696,-1.4723,-0.4275
4.6219,0.0231,2.6963,1.5601,-0.1997,-0.1391,-0.6526,-0.5399,0.9858,1.3169,1.2678,0.2325,-2.1799,-0.5696,-1.4723,-0.4275
4.6405,0.0131,2.7004,1.5752,-0.2194,-0.1396,-0.6622,-0.5433,1.0071,1.313,1.2618,0.2534,-2.1952,-0.5642,-1.491,-0.4306
4.636,0.0112,2.7013,1.5843,-0.2376,-0.1516,-0.6697,-0.5498,1.019,1.3159,1.253,0.2784,-2.2104,-0.5588,-1.5023,-0.4344
4.636,0.0112,2.7013,1.5843,-0.2376,-0.1516,-0.6697,-0.5498,1.019,1.3159,1.253,0.2784,-2.2104,-0.5588,-1.5023,-0.4344
4.636,0.0112,2.7013,1.5843,-0.2376,-0.1516,-0.6697,-0.5498,1.019,1.3159,1.253,0.2784,-2.2104,-0.5588,-1.5023,-0.4344
4.6206,0.0166,2.7044,1.5903,-0.2383,-0.1699,-0.6592,-0.5649,1.0276,1.3236,1.2442,0.2972,-2.2201,-0.5615,-1.5118,-0.4407
4.6206,0.0166,2.7044,1.5903,-0.2383,-0.1699,-0.6592,-0.5649,1.0276,1.3236,1.2442,0.2972,-2.2201,-0.5615,-1.5118,-0.4407
4.5866,0.0321,2.7027,1.598,-0.2477,-0.185,-0.6699,-0.5725,1.0243,1.3284,1.2471,0.2931,-2.1784,-0.5884,-1.5259,-0.4454
4.5469,0.0392,2.7006,1.6011,-0.268,-0.2037,-0.7037,-0.5697,1.0181,1.3305,1.2473,0.2804,-2.1463,-0.618,-1.5501,-0.4504
4.5469,0.0392,2.7006,1.6011,-0.268,-0.2037,-0.7037,-0.5697,1.0181,1.3305,1.2473,0.2804,-2.1463,-0.618,-1.5501,-0.4504
4.5469,0.0392,2.7006,1.6011,-0.268,-0.2037,-0.7037,-0.5697,1.0181,1.3305,1.2473,0.2804,-2.1463,-0.618,-1.5501,-0.4504
4.5047,0.0333,2.6953,1.5982,-0.3111,-0.2179,-0.7595,-0.5636,0.9907,1.3367,1.2504,0.2637,-2.1449,-0.6367,-1.5835,-0.4522
4.5047,0.0333,2.6953,1.5982,-0.3111,-0.2179,-0.7595,-0.5636,0.9907,1.3367,1.2504,0.2637,-2.1449,-0.6367,-1.5835,-0.4522
4.5047,0.0333,2.6953,1.5982,-0.3111,-0.2179,-0.7595,-0.5636,0.9907,1.3367,1.2504,0.2637,-2.1449,-0.6367,-1.5835,-0.4522
4.4613,0.0208,2.697,1.5906,-0.3769,-0.2276,-0.8184,-0.5587,0.9726,1.3359,1.2535,0.2469,-2.1795,-0.6366,-1.614,-0.453
4.4391,0.0114,2.7018,1.5889,-0.4177,-0.2352,-0.8644,-0.5605,0.9547,1.3351,1.2537,0.2344,-2.2611,-0.6017,-1.6426,-0.4564
4.4391,0.0114,2.7018,1.5889,-0.4177,-0.2352,-0.8644,-0.5605,0.9547,1.3351,1.2537,0.2344,-2.2611,-0.6017,-1.6426,-0.4564
4.4257,0.0057,2.7044,1.5903,-0.4598,-0.2313,-0.9021,-0.5631,0.9489,1.33,1.2539,0.2218,-2.3385,-0.5562,-1.6713,-0.4598
4.4257,0.0057,2.7044,1.5903,-0.4598,-0.2313,-0.9021,-0.5631,0.9489,1.33,1.2539,0.2218,-2.3385,-0.5562,-1.6713,-0.4598
4.4276,-0.0053,2.6979,1.5997,-0.4758,-0.2366,-0.9229,-0.567,0.9678,1.3162,1.2456,0.2154,-2.395,-0.524,-1.6953,-0.4648
4.4276,-0.0053,2.6979,1.5997,-0.4758,-0.2366,-0.9229,-0.567,0.9678,1.3162,1.2456,0.2154,-2.395,-0.524,-1.6953,-0.4648
4.4276,-0.0053,2.6979,1.5997,-0.4758,-0.2366,-0.9229,-0.567,0.9678,1.3162,1.2456,0.2154,-2.395,-0.524,-1.6953,-0.4648
4.4429,-0.0107,2.6849,1.6185,-0.4565,-0.2361,-0.9188,-0.573,0.9833,1.3071,1.2485,0.2113,-2.4157,-0.5106,-1.7036,-0.4676
4.4429,-0.0107,2.6849,1.6185,-0.4565,-0.2361,-0.9188,-0.573,0.9833,1.3071,1.2485,0.2113,-2.4157,-0.5106,-1.7036,-0.4676
4.4429,-0.0107,2.6849,1.6185,-0.4565,-0.2361,-0.9188,-0.573,0.9833,1.3071,1.2485,0.2113,-2.4157,-0.5106,-1.7036,-0.4676
4.4728,-0.004,2.6916,1.635,-0.4138,-0.222,-0.8948,-0.5679,1.0067,1.3203,1.2708,0.2158,-2.3377,-0.5077,-1.667,-0.4709
4.4728,-0.004,2.6916,1.635,-0.4138,-0.222,-0.8948,-0.5679,1.0067,1.3203,1.2708,0.2158,-2.3377,-0.5077,-1.667,-0.4709
4.5776,0.0283,2.7444,1.6638,-0.2376,-0.1997,-0.7868,-0.5471,1.0728,1.3794,1.355,0.2361,-2.1013,-0.4994,-1.5494,-0.4565
4.5776,0.0283,2.7444,1.6638,-0.2376,-0.1997,-0.7868,-0.5471,1.0728,1.3794,1.355,0.2361,-2.1013,-0.4994,-1.5494,-0.4565
4.5776,0.0283,2.7444,1.6638,-0.2376,-0.1997,-0.7868,-0.5471,1.0728,1.3794,1.355,0.2361,-2.1013,-0.4994,-1.5494,-0.4565
4.5776,0.0283,2.7444,1.6638,-0.2376,-0.1997,-0.7868,-0.5471,1.0728,1.3794,1.355,0.2361,-2.1013,-0.4994,-1.5494,-0.4565
4.6969,0.0664,2.8437,1.7004,-0.0358,-0.1821,-0.6482,-0.5117,1.1746,1.4084,1.4882,0.2488,-1.8907,-0.4998,-1.4551,-0.4122
4.6969,0.0664,2.8437,1.7004,-0.0358,-0.1821,-0.6482,-0.5117,1.1746,1.4084,1.4882,0.2488,-1.8907,-0.4998,-1.4551,-0.4122
4.6969,0.0664,2.8437,1.7004,-0.0358,-0.1821,-0.6482,-0.5117,1.1746,1.4084,1.4882,0.2488,-1.8907,-0.4998,-1.4551,-0.4122
4.7579,0.08,2.9087,1.7181,0.0103,-0.1612,-0.5874,-0.5011,1.2203,1.4103,1.5739,0.2437,-1.8398,-0.5055,-1.4218,-0.3947
4.7579,0.08,2.9087,1.7181,0.0103,-0.1612,-0.5874,-0.5011,1.2203,1.4103,1.5739,0.2437,-1.8398,-0.5055,-1.4218,-0.3947
4.7579,0.08,2.9087,1.7181,0.0103,-0.1612,-0.5874,-0.5011,1.2203,1.4103,1.5739,0.2437,-1.8398,-0.5055,-1.4218,-0.3947
4.8877,0.0798,3.0159,1.7453,0.0628,-0.12,-0.49,-0.485,1.3433,1.4105,1.7265,0.2499,-1.7345,-0.4868,-1.3378,-0.3794
4.8877,0.0798,3.0159,1.7453,0.0628,-0.12,-0.49,-0.485,1.3433,1.4105,1.7265,0.2499,-1.7345,-0.4868,-1.3378,-0.3794
4.9532,0.0708,3.0496,1.7503,0.0726,-0.1047,-0.4555,-0.4764,1.3773,1.4094,1.738,0.2649,-1.6945,-0.4761,-1.3132,-0.3744
4.9532,0.0708,3.0496,1.7503,0.0726,-0.1047,-0.4555,-0.4764,1.3773,1.4094,1.738,0.2649,-1.6945,-0.4761,-1.3132,-0.3744
4.9532,0.0708,3.0496,1.7503,0.0726,-0.1047,-0.4555,-0.4764,1.3773,1.4094,1.738,0.2649,-1.6945,-0.4761,-1.3132,-0.3744
4.9972,0.0587,3.06,1.7514,0.0871,-0.1061,-0.4253,-0.4732,1.3743,1.4068,1.6886,0.2919,-1.6902,-0.4651,-1.2917,-0.38
4.9972,0.0587,3.06,1.7514,0.0871,-0.1061,-0.4253,-0.4732,1.3743,1.4068,1.6886,0.2919,-1.6902,-0.4651,-1.2917,-0.38
4.9958,0.0522,3.0459,1.7395,0.085,-0.1129,-0.4059,-0.4778,1.3315,1.4001,1.5848,0.3095,-1.7002,-0.4678,-1.2863,-0.3878
4.9583,0.0549,3.0173,1.711,0.0663,-0.125,-0.3963,-0.4858,1.2557,1.3797,1.4218,0.3195,-1.7402,-0.4786,-1.2952,-0.4003
4.8882,0.062,2.9726,1.674,0.0365,-0.1406,-0.4008,-0.5026,1.1472,1.3531,1.2214,0.3179,-1.7844,-0.5003,-1.3155,-0.4166
4.8882,0.062,2.9726,1.674,0.0365,-0.1406,-0.4008,-0.5026,1.1472,1.3531,1.2214,0.3179,-1.7844,-0.5003,-1.3155,-0.4166
4.8882,0.062,2.9726,1.674,0.0365,-0.1406,-0.4008,-0.5026,1.1472,1.3531,1.2214,0.3179,-1.7844,-0.5003,-1.3155,-0.4166
4.8027,0.0746,2.92,1.6328,0.0158,-0.1594,-0.4215,-0.5138,1.028,1.3163,0.9959,0.313,-1.8071,-0.5356,-1.3462,-0.4331
4.8027,0.0746,2.92,1.6328,0.0158,-0.1594,-0.4215,-0.5138,1.028,1.3163,0.9959,0.313,-1.8071,-0.5356,-1.3462,-0.4331
4.7209,0.0825,2.8622,1.589,0.0061,-0.1746,-0.4442,-0.5219,0.8948,1.2814,0.7737,0.3075,-1.7787,-0.5764,-1.3757,-0.4461
4.7209,0.0825,2.8622,1.589,0.0061,-0.1746,-0.4442,-0.5219,0.8948,1.2814,0.7737,0.3075,-1.7787,-0.5764,-1.3757,-0.4461
4.7209,0.0825,2.8622,1.589,0.0061,-0.1746,-0.4442,-0.5219,0.8948,1.2814,0.7737,0.3075,-1.7787,-0.5764,-1.3757,-0.4461
4.6369,0.0772,2.8148,1.5466,-0.0036,-0.1898,-0.4775,-0.5262,0.7965,1.2312,0.5469,0.295,-1.7292,-0.6309,-1.4052,-0.459
4.5706,0.0552,2.7761,1.5131,-0.0044,-0.2081,-0.5171,-0.5214,0.7065,1.2032,0.3709,0.2897,-1.691,-0.6689,-1.4335,-0.4684
4.5706,0.0552,2.7761,1.5131,-0.0044,-0.2081,-0.5171,-0.5214,0.7065,1.2032,0.3709,0.2897,-1.691,-0.6689,-1.4335,-0.4684
4.52,0.0278,2.7561,1.4897,-0.023,-0.2201,-0.5545,-0.5196,0.6402,1.1811,0.2495,0.2838,-1.6898,-0.6878,-1.4579,-0.4733
4.52,0.0278,2.7561,1.4897,-0.023,-0.2201,-0.5545,-0.5196,0.6402,1.1811,0.2495,0.2838,-1.6898,-0.6878,-1.4579,-0.4733
4.4772,-0.0021,2.7567,1.473,-0.0436,-0.2387,-0.594,-0.5149,0.594,1.1695,0.1842,0.2734,-1.7509,-0.6845,-1.484,-0.4757
4.4772,-0.0021,2.7567,1.473,-0.0436,-0.2387,-0.594,-0.5149,0.594,1.1695,0.1842,0.2734,-1.7509,-0.6845,-1.484,-0.4757
4.4772,-0.0021,2.7567,1.473,-0.0436,-0.2387,-0.594,-0.5149,0.594,1.1695,0.1842,0.2734,-1.7509,-0.6845,-1.484,-0.4757
4.4492,-0.0198,2.7807,1.4645,-0.0778,-0.2377,-0.6195,-0.5127,0.5829,1.1595,0.1556,0.2683,-1.8187,-0.6545,-1.5027,-0.4788
4.4492,-0.0198,2.7807,1.4645,-0.0778,-0.2377,-0.6195,-0.5127,0.5829,1.1595,0.1556,0.2683,-1.8187,-0.6545,-1.5027,-0.4788
4.4561,-0.0464,2.8019,1.497,-0.1099,-0.23,-0.6419,-0.5208,0.6335,1.1451,0.1842,0.2734,-1.9539,-0.5944,-1.5408,-0.4789
4.4561,-0.0464,2.8019,1.497,-0.1099,-0.23,-0.6419,-0.5208,0.6335,1.1451,0.1842,0.2734,-1.9539,-0.5944,-1.5408,-0.4789
4.4561,-0.0464,2.8019,1.497,-0.1099,-0.23,-0.6419,-0.5208,0.6335,1.1451,0.1842,0.2734,-1.9539,-0.5944,-1.5408,-0.4789
4.4682,-0.0472,2.7984,1.5335,-0.1221,-0.222,-0.6462,-0.5262,0.6746,1.1445,0.234,0.2771,-2.0002,-0.5781,-1.551,-0.4791
4.4682,-0.0472,2.7984,1.5335,-0.1221,-0.222,-0.6462,-0.5262,0.6746,1.1445,0.234,0.2771,-2.0002,-0.5781,-1.551,-0.4791
4.4758,-0.0499,2.7943,1.5656,-0.1398,-0.2158,-0.6557,-0.5296,0.703,1.1624,0.3104,0.2775,-2.0254,-0.5753,-1.5474,-0.4842
4.4758,-0.0499,2.7943,1.5656,-0.1398,-0.2158,-0.6557,-0.5296,0.703,1.1624,0.3104,0.2775,-2.0254,-0.5753,-1.5474,-0.4842
4.4771,-0.0435,2.7946,1.5915,-0.1541,-0.2144,-0.66,-0.535,0.7278,1.1922,0.3978,0.2802,-2.0254,-0.5753,-1.5393,-0.491
4.4771,-0.0435,2.7946,1.5915,-0.1541,-0.2144,-0.66,-0.535,0.7278,1.1922,0.3978,0.2802,-2.0254,-0.5753,-1.5393,-0.491
4.4784,-0.037,2.7965,1.6098,-0.1419,-0.2224,-0.6643,-0.5403,0.7494,1.2267,0.4965,0.279,-2.01,-0.5807,-1.5421,-0.4919
4.4784,-0.037,2.7965,1.6098,-0.1419,-0.2224,-0.6643,-0.5403,0.7494,1.2267,0.4965,0.279,-2.01,-0.5807,-1.5421,-0.4919
4.4676,-0.0298,2.8001,1.6204,-0.1174,-0.2385,-0.6823,-0.5431,0.7626,1.2538,0.588,0.2713,-2.0086,-0.5996,-1.5569,-0.4905
4.4556,-0.029,2.7984,1.6281,-0.1182,-0.2566,-0.7088,-0.5451,0.7682,1.2589,0.6666,0.2589,-2.0574,-0.6129,-1.5945,-0.4811
4.4556,-0.029,2.7984,1.6281,-0.1182,-0.2566,-0.7088,-0.5451,0.7682,1.2589,0.6666,0.2589,-2.0574,-0.6129,-1.5945,-0.4811
4.4556,-0.029,2.7984,1.6281,-0.1182,-0.2566,-0.7088,-0.5451,0.7682,1.2589,0.6666,0.2589,-2.0574,-0.6129,-1.5945,-0.4811
4.439,-0.03,2.8038,1.631,-0.1366,-0.2685,-0.7457,-0.5435,0.7779,1.2448,0.7268,0.2376,-2.1408,-0.626,-1.6404,-0.4745
4.439,-0.03,2.8038,1.631,-0.1366,-0.2685,-0.7457,-0.5435,0.7779,1.2448,0.7268,0.2376,-2.1408,-0.626,-1.6404,-0.4745
4.439,-0.03,2.8038,1.631,-0.1366,-0.2685,-0.7457,-0.5435,0.7779,1.2448,0.7268,0.2376,-2.1408,-0.626,-1.6404,-0.4745
4.427,-0.0292,2.8091,1.6339,-0.1916,-0.2564,-0.7773,-0.5437,0.7606,1.2369,0.7817,0.2182,-2.2348,-0.6232,-1.6826,-0.4731
4.427,-0.0292,2.8091,1.6339,-0.1916,-0.2564,-0.7773,-0.5437,0.7606,1.2369,0.7817,0.2182,-2.2348,-0.6232,-1.6826,-0.4731
4.427,-0.0292,2.8166,1.6336,-0.2477,-0.2329,-0.8088,-0.5439,0.7522,1.2293,0.8146,0.2066,-2.2995,-0.6124,-1.7157,-0.4748
4.427,-0.0292,2.8166,1.6336,-0.2477,-0.2329,-0.8088,-0.5439,0.7522,1.2293,0.8146,0.2066,-2.2995,-0.6124,-1.7157,-0.4748
4.4301,-0.0338,2.8166,1.6336,-0.3037,-0.2095,-0.8382,-0.5471,0.7466,1.2242,0.8255,0.2089,-2.3338,-0.6124,-1.7432,-0.4748
4.4485,-0.0437,2.8118,1.6353,-0.3212,-0.2033,-0.8424,-0.5524,0.7619,1.2153,0.8252,0.2213,-2.3242,-0.6097,-1.7424,-0.4808
4.4485,-0.0437,2.8118,1.6353,-0.3212,-0.2033,-0.8424,-0.5524,0.7619,1.2153,0.8252,0.2213,-2.3242,-0.6097,-1.7424,-0.4808
4.4574,-0.04,2.8096,1.6385,-0.3031,-0.1913,-0.8121,-0.5564,0.7913,1.219,0.8329,0.2402,-2.2515,-0.5991,-1.7149,-0.4809
4.4574,-0.04,2.8096,1.6385,-0.3031,-0.1913,-0.8121,-0.5564,0.7913,1.219,0.8329,0.2402,-2.2515,-0.5991,-1.7149,-0.4809
4.4778,-0.0196,2.8149,1.6413,-0.2369,-0.1815,-0.7563,-0.5511,0.8377,1.2378,0.8625,0.2576,-2.0937,-0.594,-1.6652,-0.4735
4.4778,-0.0196,2.8149,1.6413,-0.2369,-0.1815,-0.7563,-0.5511,0.8377,1.2378,0.8625,0.2576,-2.0937,-0.594,-1.6652,-0.4735
4.4778,-0.0196,2.8149,1.6413,-0.2369,-0.1815,-0.7563,-0.5511,0.8377,1.2378,0.8625,0.2576,-2.0937,-0.594,-1.6652,-0.4735
4.5027,0.0027,2.8229,1.6457,-0.1452,-0.1695,-0.6791,-0.5419,0.905,1.2601,0.9087,0.2753,-1.9047,-0.5812,-1.5975,-0.4569
4.5327,0.0095,2.8401,1.6419,-0.0639,-0.1611,-0.6248,-0.5108,0.976,1.2776,0.9634,0.2871,-1.7332,-0.574,-1.5156,-0.4452
4.5583,0.0143,2.872,1.6331,0.0103,-0.1612,-0.5713,-0.4838,1.0382,1.2948,1.0184,0.2988,-1.6015,-0.5587,-1.4379,-0.4319
4.5583,0.0143,2.872,1.6331,0.0103,-0.1612,-0.5713,-0.4838,1.0382,1.2948,1.0184,0.2988,-1.6015,-0.5587,-1.4379,-0.4319
4.5583,0.0143,2.872,1.6331,0.0103,-0.1612,-0.5713,-0.4838,1.0382,1.2948,1.0184,0.2988,-1.6015,-0.5587,-1.4379,-0.4319
4.5917,0.0164,2.9141,1.6253,0.0758,-0.1583,-0.5145,-0.4671,1.1016,1.2975,1.0683,0.2999,-1.5364,-0.5319,-1.3712,-0.4223
4.5917,0.0164,2.9141,1.6253,0.0758,-0.1583,-0.5145,-0.4671,1.1016,1.2975,1.0683,0.2999,-1.5364,-0.5319,-1.3712,-0.4223
4.6373,0.0177,2.9449,1.6288,0.1438,-0.1486,-0.4499,-0.4553,1.1743,1.3004,1.1294,0.3033,-1.5043,-0.4745,-1.3088,-0.4112
4.6373,0.0177,2.9449,1.6288,0.1438,-0.1486,-0.4499,-0.4553,1.1743,1.3004,1.1294,0.3033,-1.5043,-0.4745,-1.3088,-0.4112
4.6373,0.0177,2.9449,1.6288,0.1438,-0.1486,-0.4499,-0.4553,1.1743,1.3004,1.1294,0.3033,-1.5043,-0.4745,-1.3088,-0.4112
4.6921,0.0227,2.9762,1.6368,0.203,-0.1358,-0.3829,-0.4465,1.2507,1.2986,1.1824,0.3065,-1.4707,-0.4361,-1.2518,-0.402
4.7271,0.0313,2.9956,1.6515,0.2535,-0.1198,-0.3167,-0.4421,1.3087,1.3032,1.2328,0.3075,-1.4619,-0.414,-1.191,-0.3979
4.7271,0.0313,2.9956,1.6515,0.2535,-0.1198,-0.3167,-0.4421,1.3087,1.3032,1.2328,0.3075,-1.4619,-0.414,-1.191,-0.3979
4.7622,0.0399,3.0123,1.6647,0.3075,-0.1087,-0.2578,-0.4326,1.357,1.3223,1.2804,0.319,-1.4108,-0.4005,-1.1224,-0.3947
4.7622,0.0399,3.0123,1.6647,0.3075,-0.1087,-0.2578,-0.4326,1.357,1.3223,1.2804,0.319,-1.4108,-0.4005,-1.1224,-0.3947
4.7928,0.0466,3.0308,1.6702,0.3505,-0.1012,-0.1976,-0.4306,1.377,1.355,1.3255,0.322,-1.3903,-0.3951,-1.0669,-0.3926
4.7928,0.0466,3.0308,1.6702,0.3505,-0.1012,-0.1976,-0.4306,1.377,1.355,1.3255,0.322,-1.3903,-0.3951,-1.0669,-0.3926
4.811,0.0541,3.0465,1.6742,0.4063,-0.102,-0.1548,-0.427,1.3881,1.3801,1.3593,0.329,-1.3581,-0.4065,-1.0359,-0.3858
4.811,0.0541,3.0465,1.6742,0.4063,-0.102,-0.1548,-0.427,1.3881,1.3801,1.3593,0.329,-1.3581,-0.4065,-1.0359,-0.3858
4.811,0.0541,3.0465,1.6742,0.4063,-0.102,-0.1548,-0.427,1.3881,1.3801,1.3593,0.329,-1.3581,-0.4065,-1.0359,-0.3858
4.8266,0.0486,3.0591,1.6722,0.443,-0.115,-0.1294,-0.4219,1.4003,1.383,1.3877,0.3253,-1.3407,-0.4316,-1.0315,-0.3715
4.8266,0.0486,3.0591,1.6722,0.443,-0.115,-0.1294,-0.4219,1.4003,1.383,1.3877,0.3253,-1.3407,-0.4316,-1.0315,-0.3715
4.8266,0.0486,3.0591,1.6722,0.443,-0.115,-0.1294,-0.4219,1.4003,1.383,1.3877,0.3253,-1.3407,-0.4316,-1.0315,-0.3715
4.8129,0.043,3.0729,1.6577,0.4407,-0.1217,-0.1216,-0.4153,1.4044,1.3634,1.4477,0.3009,-1.3952,-0.4754,-1.0614,-0.3491
4.8129,0.043,3.0729,1.6577,0.4407,-0.1217,-0.1216,-0.4153,1.4044,1.3634,1.4477,0.3009,-1.3952,-0.4754,-1.0614,-0.3491
4.8129,0.043,3.0729,1.6577,0.4407,-0.1217,-0.1216,-0.4153,1.4044,1.3634,1.4477,0.3009,-1.3952,-0.4754,-1.0614,-0.3491
4.8116,0.0364,3.0674,1.6549,0.412,-0.1002,-0.1183,-0.4142,1.4233,1.3568,1.4705,0.2992,-1.3952,-0.4754,-1.065,-0.3438
4.8116,0.0364,3.0674,1.6549,0.412,-0.1002,-0.1183,-0.4142,1.4233,1.3568,1.4705,0.2992,-1.3952,-0.4754,-1.065,-0.3438
4.8258,0.0244,3.062,1.652,0.3993,-0.092,-0.1171,-0.4099,1.4515,1.3504,1.4846,0.31,-1.3907,-0.4644,-1.0592,-0.3419
4.8258,0.0244,3.062,1.652,0.3993,-0.092,-0.1171,-0.4099,1.4515,1.3504,1.4846,0.31,-1.3907,-0.4644,-1.0592,-0.3419
4.84,0.0124,3.0566,1.6491,0.3959,-0.0869,-0.105,-0.4095,1.4731,1.3537,1.49,0.3335,-1.3863,-0.4534,-1.0515,-0.3427
4.8354,0.0105,3.0516,1.6508,0.381,-0.0855,-0.0852,-0.4141,1.4977,1.3595,1.5069,0.3529,-1.3555,-0.4453,-1.0362,-0.3441
4.8134,0.0253,3.0566,1.6491,0.3845,-0.0905,-0.0611,-0.425,1.516,1.3676,1.5325,0.3597,-1.3291,-0.4483,-1.0191,-0.3482
4.8134,0.0253,3.0566,1.6491,0.3845,-0.0905,-0.0611,-0.425,1.516,1.3676,1.5325,0.3597,-1.3291,-0.4483,-1.0191,-0.3482
4.8134,0.0253,3.0566,1.6491,0.3845,-0.0905,-0.0611,-0.425,1.516,1.3676,1.5325,0.3597,-1.3291,-0.4483,-1.0191,-0.3482
4.7928,0.0466,3.0571,1.6537,0.388,-0.0955,-0.0578,-0.4238,1.5343,1.3757,1.5641,0.3581,-1.2866,-0.457,-1.0096,-0.3515
4.7928,0.0466,3.0571,1.6537,0.388,-0.0955,-0.0578,-0.4238,1.5343,1.3757,1.5641,0.3581,-1.2866,-0.457,-1.0096,-0.3515
4.774,0.0567,3.0598,1.6552,0.3767,-0.0991,-0.0709,-0.4168,1.5467,1.3787,1.5872,0.35,-1.2266,-0.4909,-1.0173,-0.3508
4.774,0.0567,3.0598,1.6552,0.3767,-0.0991,-0.0709,-0.4168,1.5467,1.3787,1.5872,0.35,-1.2266,-0.4909,-1.0173,-0.3508
4.7357,0.0527,3.0544,1.6523,0.3462,-0.1148,-0.1105,-0.4076,1.5497,1.3813,1.6104,0.3354,-1.2092,-0.5159,-1.0326,-0.3494
4.7357,0.0527,3.0544,1.6523,0.3462,-0.1148,-0.1105,-0.4076,1.5497,1.3813,1.6104,0.3354,-1.2092,-0.5159,-1.0326,-0.3494
4.7039,0.0395,3.056,1.6445,0.2885,-0.1208,-0.1566,-0.4006,1.556,1.379,1.6277,0.3293,-1.2357,-0.5129,-1.0515,-0.3427
4.7039,0.0395,3.056,1.6445,0.2885,-0.1208,-0.1566,-0.4006,1.556,1.379,1.6277,0.3293,-1.2357,-0.5129,-1.0515,-0.3427
4.6799,0.0235,3.0632,1.6396,0.2478,-0.1215,-0.1971,-0.3957,1.5527,1.3838,1.6479,0.3253,-1.2956,-0.4791,-1.0639,-0.3403
4.6799,0.0235,3.0632,1.6396,0.2478,-0.1215,-0.1971,-0.3957,1.5527,1.3838,1.6479,0.3253,-1.2956,-0.4791,-1.0639,-0.3403
4.6727,0.0087,3.0752,1.6329,0.2129,-0.1205,-0.2278,-0.3989,1.5624,1.3768,1.6595,0.3212,-1.3773,-0.4313,-1.0774,-0.3415
4.6727,0.0087,3.0752,1.6329,0.2129,-0.1205,-0.2278,-0.3989,1.5624,1.3768,1.6595,0.3212,-1.3773,-0.4313,-1.0774,-0.3415
4.6804,0.0059,3.0784,1.639,0.1927,-0.1209,-0.2443,-0.4047,1.5785,1.3674,1.6711,0.3171,-1.4531,-0.3919,-1.0937,-0.3436
4.6804,0.0059,3.0784,1.639,0.1927,-0.1209,-0.2443,-0.4047,1.5785,1.3674,1.6711,0.3171,-1.4531,-0.3919,-1.0937,-0.3436
4.6836,0.0013,3.0718,1.6485,0.1725,-0.1212,-0.2608,-0.4106,1.5979,1.3533,1.674,0.3129,-1.5214,-0.3804,-1.113,-0.3467
4.6836,0.0013,3.0718,1.6485,0.1725,-0.1212,-0.2608,-0.4106,1.5979,1.3533,1.674,0.3129,-1.5214,-0.3804,-1.113,-0.3467
4.6945,-0.006,3.0488,1.6711,0.1467,-0.1234,-0.2751,-0.4195,1.5982,1.3459,1.6769,0.3087,-1.562,-0.3913,-1.1209,-0.3557
4.69,-0.0079,3.0328,1.6887,0.121,-0.1256,-0.2893,-0.4285,1.5855,1.3504,1.6827,0.3067,-1.5924,-0.3994,-1.1242,-0.3664
4.69,-0.0079,3.0328,1.6887,0.121,-0.1256,-0.2893,-0.4285,1.5855,1.3504,1.6827,0.3067,-1.5924,-0.3994,-1.1242,-0.3664
4.69,-0.0079,3.0328,1.6887,0.121,-0.1256,-0.2893,-0.4285,1.5855,1.3504,1.6827,0.3067,-1.5924,-0.3994,-1.1242,-0.3664
4.6746,-0.0024,3.0163,1.7017,0.0988,-0.1327,-0.3123,-0.4367,1.547,1.3713,1.6857,0.3025,-1.6212,-0.4269,-1.1332,-0.379
4.6746,-0.0024,3.0163,1.7017,0.0988,-0.1327,-0.3123,-0.4367,1.547,1.3713,1.6857,0.3025,-1.6212,-0.4269,-1.1332,-0.379
4.6591,0.003,3.007,1.7098,0.0766,-0.1398,-0.346,-0.441,1.5116,1.3947,1.6886,0.2982,-1.6615,-0.4378,-1.1535,-0.3856
4.6591,0.003,3.007,1.7098,0.0766,-0.1398,-0.346,-0.441,1.5116,1.3947,1.6886,0.2982,-1.6615,-0.4378,-1.1535,-0.3856
4.6482,0.0103,3.0048,1.713,0.0779,-0.1515,-0.3839,-0.4392,1.4825,1.416,1.6886,0.2982,-1.66,-0.457,-1.1838,-0.3828
4.6482,0.0103,3.0048,1.713,0.0779,-0.1515,-0.3839,-0.4392,1.4825,1.416,1.6886,0.2982,-1.66,-0.457,-1.1838,-0.3828
4.6495,0.0168,3.0075,1.7145,0.1104,-0.1593,-0.4033,-0.4347,1.4661,1.4327,1.6972,0.2984,-1.6284,-0.4682,-1.2073,-0.3745
4.6495,0.0168,3.0075,1.7145,0.1104,-0.1593,-0.4033,-0.4347,1.4661,1.4327,1.6972,0.2984,-1.6284,-0.4682,-1.2073,-0.3745
4.6708,0.0198,3.0151,1.7142,0.1798,-0.1613,-0.3849,-0.4319,1.4847,1.4334,1.7146,0.2986,-1.5665,-0.4713,-1.2189,-0.3527
4.6708,0.0198,3.0151,1.7142,0.1798,-0.1613,-0.3849,-0.4319,1.4847,1.4334,1.7146,0.2986,-1.5665,-0.4713,-1.2189,-0.3527
4.6935,0.0292,3.0353,1.7119,0.263,-0.1532,-0.3436,-0.4209,1.5352,1.4229,1.761,0.2949,-1.4738,-0.4665,-1.1991,-0.3301
4.6935,0.0292,3.0353,1.7119,0.263,-0.1532,-0.3436,-0.4209,1.5352,1.4229,1.761,0.2949,-1.4738,-0.4665,-1.1991,-0.3301
4.7407,0.0369,3.0659,1.7107,0.3453,-0.1334,-0.2749,-0.4079,1.5918,1.4176,1.8279,0.2872,-1.3863,-0.4534,-1.1536,-0.3086
4.7407,0.0369,3.0659,1.7107,0.3453,-0.1334,-0.2749,-0.4079,1.5918,1.4176,1.8279,0.2872,-1.3863,-0.4534,-1.1536,-0.3086
4.7914,0.0401,3.0965,1.7096,0.4189,-0.1102,-0.1917,-0.3976,1.655,1.4099,1.9039,0.2795,-1.3085,-0.443,-1.092,-0.2946
4.7914,0.0401,3.0965,1.7096,0.4189,-0.1102,-0.1917,-0.3976,1.655,1.4099,1.9039,0.2795,-1.3085,-0.443,-1.092,-0.2946
4.7914,0.0401,3.0965,1.7096,0.4189,-0.1102,-0.1917,-0.3976,1.655,1.4099,1.9039,0.2795,-1.3085,-0.443,-1.092,-0.2946
4.8312,0.0505,3.1398,1.7063,0.4654,-0.0773,-0.1134,-0.3854,1.7336,1.4152,2.0009,0.2741,-1.2096,-0.4273,-1.014,-0.2884
4.8312,0.0505,3.1398,1.7063,0.4654,-0.0773,-0.1134,-0.3854,1.7336,1.4152,2.0009,0.2741,-1.2096,-0.4273,-1.014,-0.2884
4.8822,0.0536,3.1838,1.7077,0.5248,-0.0526,-0.0314,-0.372,1.8035,1.4126,2.0747,0.2769,-1.1426,-0.4001,-0.9355,-0.2822
4.8822,0.0536,3.1838,1.7077,0.5248,-0.0526,-0.0314,-0.372,1.8035,1.4126,2.0747,0.2769,-1.1426,-0.4001,-0.9355,-0.2822
4.8822,0.0536,3.1838,1.7077,0.5248,-0.0526,-0.0314,-0.372,1.8035,1.4126,2.0747,0.2769,-1.1426,-0.4001,-0.9355,-0.2822
5.0176,0.0551,3.2676,1.7168,0.6014,0.0085,0.106,-0.3473,1.9399,1.4347,2.1908,0.3035,-0.9746,-0.357,-0.7959,-0.2694
5.0176,0.0551,3.2676,1.7168,0.6014,0.0085,0.106,-0.3473,1.9399,1.4347,2.1908,0.3035,-0.9746,-0.357,-0.7959,-0.2694
5.0176,0.0551,3.2676,1.7168,0.6014,0.0085,0.106,-0.3473,1.9399,1.4347,2.1908,0.3035,-0.9746,-0.357,-0.7959,-0.2694
5.0977,0.0515,3.3052,1.7278,0.6569,0.0196,0.1702,-0.3367,1.9971,1.4516,2.2208,0.3382,-0.8957,-0.3269,-0.729,-0.2609
5.1449,0.0526,3.3302,1.7409,0.6952,0.0254,0.2424,-0.3313,2.048,1.4709,2.2389,0.3772,-0.8318,-0.3107,-0.6755,-0.2536
5.1651,0.0667,3.3574,1.7508,0.7314,0.0242,0.3103,-0.3314,2.0796,1.4896,2.263,0.4013,-0.7949,-0.2912,-0.6231,-0.2499
5.1651,0.0667,3.3574,1.7508,0.7314,0.0242,0.3103,-0.3314,2.0796,1.4896,2.263,0.4013,-0.7949,-0.2912,-0.6231,-0.2499
5.1726,0.0818,3.3741,1.7596,0.7502,0.0176,0.3569,-0.3311,2.0984,1.5054,2.278,0.4123,-0.7735,-0.2858,-0.5892,-0.2457
5.1726,0.0818,3.3741,1.7596,0.7502,0.0176,0.3569,-0.3311,2.0984,1.5054,2.278,0.4123,-0.7735,-0.2858,-0.5892,-0.2457
5.1726,0.0818,3.3741,1.7596,0.7502,0.0176,0.3569,-0.3311,2.0984,1.5054,2.278,0.4123,-0.7735,-0.2858,-0.5892,-0.2457
5.1563,0.1053,3.3875,1.7621,0.7537,0.0125,0.382,-0.3304,2.1176,1.5136,2.2991,0.4147,-0.7185,-0.2922,-0.5613,-0.2434
5.1563,0.1053,3.3875,1.7621,0.7537,0.0125,0.382,-0.3304,2.1176,1.5136,2.2991,0.4147,-0.7185,-0.2922,-0.5613,-0.2434
5.1563,0.1053,3.3875,1.7621,0.7537,0.0125,0.382,-0.3304,2.1176,1.5136,2.2991,0.4147,-0.7185,-0.2922,-0.5613,-0.2434
5.1465,0.1195,3.3936,1.7698,0.7631,0.0091,0.3845,-0.3217,2.1305,1.5166,2.3202,0.4105,-0.6346,-0.3219,-0.5523,-0.2405
5.1338,0.1204,3.4014,1.7694,0.7702,-0.0011,0.3666,-0.3082,2.1274,1.5139,2.3322,0.3997,-0.589,-0.351,-0.5523,-0.2405
5.1338,0.1204,3.4014,1.7694,0.7702,-0.0011,0.3666,-0.3082,2.1274,1.5139,2.3322,0.3997,-0.589,-0.351,-0.5523,-0.2405
5.1338,0.1204,3.4014,1.7694,0.7702,-0.0011,0.3666,-0.3082,2.1274,1.5139,2.3322,0.3997,-0.589,-0.351,-0.5523,-0.2405
5.1104,0.1109,3.4059,1.763,0.7504,-0.0134,0.3384,-0.2982,2.134,1.5116,2.3594,0.3868,-0.5939,-0.3623,-0.5511,-0.2368
5.1104,0.1109,3.4059,1.763,0.7504,-0.0134,0.3384,-0.2982,2.134,1.5116,2.3594,0.3868,-0.5939,-0.3623,-0.5511,-0.2368
5.1104,0.1109,3.4059,1.763,0.7504,-0.0134,0.3384,-0.2982,2.134,1.5116,2.3594,0.3868,-0.5939,-0.3623,-0.5511,-0.2368
5.0842,0.0882,3.4452,1.7393,0.7155,-0.0242,0.2933,-0.2823,2.1409,1.5017,2.3805,0.3696,-0.6839,-0.324,-0.5627,-0.2307
5.0842,0.0882,3.4452,1.7393,0.7155,-0.0242,0.2933,-0.2823,2.1409,1.5017,2.3805,0.3696,-0.6839,-0.324,-0.5627,-0.2307
5.0842,0.0882,3.4452,1.7393,0.7155,-0.0242,0.2933,-0.2823,2.1409,1.5017,2.3805,0.3696,-0.6839,-0.324,-0.5627,-0.2307
5.0954,0.0807,3.4558,1.7405,0.7155,-0.0242,0.2877,-0.2803,2.1572,1.4996,2.3835,0.3718,-0.7413,-0.2777,-0.5646,-0.228
5.0954,0.0807,3.4558,1.7405,0.7155,-0.0242,0.2877,-0.2803,2.1572,1.4996,2.3835,0.3718,-0.7413,-0.2777,-0.5646,-0.228
5.108,0.0798,3.4625,1.7528,0.7178,-0.0173,0.2877,-0.2803,2.1868,1.4929,2.3896,0.3762,-0.7867,-0.2486,-0.5714,-0.2236
5.108,0.0798,3.4625,1.7528,0.7178,-0.0173,0.2877,-0.2803,2.1868,1.4929,2.3896,0.3762,-0.7867,-0.2486,-0.5714,-0.2236
5.108,0.0798,3.4625,1.7528,0.7178,-0.0173,0.2877,-0.2803,2.1868,1.4929,2.3896,0.3762,-0.7867,-0.2486,-0.5714,-0.2236
5.1459,0.077,3.4568,1.794,0.7013,-0.0038,0.2943,-0.2898,2.1966,1.4932,2.3987,0.3762,-0.8462,-0.2536,-0.5639,-0.2343
5.1459,0.077,3.4568,1.794,0.7013,-0.0038,0.2943,-0.2898,2.1966,1.4932,2.3987,0.3762,-0.8462,-0.2536,-0.5639,-0.2343
5.1585,0.0761,3.4579,1.8034,0.7049,-0.0089,0.2896,-0.2954,2.1765,1.5079,2.3926,0.3784,-0.839,-0.2822,-0.5662,-0.2416
5.1585,0.0761,3.4579,1.8034,0.7049,-0.0089,0.2896,-0.2954,2.1765,1.5079,2.3926,0.3784,-0.839,-0.2822,-0.5662,-0.2416
5.1506,0.0789,3.4506,1.8085,0.7062,-0.0209,0.2781,-0.3033,2.1538,1.5046,2.3835,0.3718,-0.8863,-0.3043,-0.5948,-0.2376
5.1506,0.0789,3.4506,1.8085,0.7062,-0.0209,0.2781,-0.3033,2.1538,1.5046,2.3835,0.3718,-0.8863,-0.3043,-0.5948,-0.2376
5.1426,0.0817,3.4433,1.8135,0.6887,-0.0263,0.2532,-0.304,2.1182,1.4984,2.3804,0.3566,-0.95,-0.3206,-0.6342,-0.2338
5.1426,0.0817,3.4433,1.8135,0.6887,-0.0263,0.2532,-0.304,2.1182,1.4984,2.3804,0.3566,-0.95,-0.3206,-0.6342,-0.2338
5.1347,0.0845,3.4433,1.8135,0.6572,-0.0113,0.2283,-0.3048,2.0893,1.4899,2.3954,0.335,-1.0193,-0.3283,-0.6717,-0.2327
5.1347,0.0845,3.4433,1.8135,0.6572,-0.0113,0.2283,-0.3048,2.0893,1.4899,2.3954,0.335,-1.0193,-0.3283,-0.6717,-0.2327
5.1347,0.0845,3.4433,1.8135,0.6572,-0.0113,0.2283,-0.3048,2.0893,1.4899,2.3954,0.335,-1.0193,-0.3283,-0.6717,-0.2327
5.1347,0.0845,3.4433,1.8135,0.6572,-0.0113,0.2283,-0.3048,2.0893,1.4899,2.3954,0.335,-1.0193,-0.3283,-0.6717,-0.2327
5.151,0.061,3.4321,1.8076,0.562,0.0147,0.1595,-0.3091,2.0674,1.4715,2.3983,0.3242,-1.0883,-0.3361,-0.7281,-0.241
5.151,0.061,3.4321,1.8076,0.562,0.0147,0.1595,-0.3091,2.0674,1.4715,2.3983,0.3242,-1.0883,-0.3361,-0.7281,-0.241
5.151,0.061,3.4321,1.8076,0.562,0.0147,0.1595,-0.3091,2.0674,1.4715,2.3983,0.3242,-1.0883,-0.3361,-0.7281,-0.241
5.1575,0.0516,3.4293,1.8062,0.5262,0.0158,0.1336,-0.3142,2.0579,1.4636,2.3712,0.337,-1.136,-0.3385,-0.752,-0.2487
5.1369,0.0554,3.4164,1.8083,0.4826,0.0082,0.1176,-0.3276,2.0486,1.4558,2.341,0.3477,-1.1673,-0.3466,-0.7855,-0.253
5.1369,0.0554,3.4164,1.8083,0.4826,0.0082,0.1176,-0.3276,2.0486,1.4558,2.341,0.3477,-1.1673,-0.3466,-0.7855,-0.253
5.1019,0.0713,3.4063,1.8118,0.4449,0.0024,0.0884,-0.3339,2.0323,1.4578,2.3199,0.3519,-1.1497,-0.372,-0.8159,-0.2563
5.1019,0.0713,3.4063,1.8118,0.4449,0.0024,0.0884,-0.3339,2.0323,1.4578,2.3199,0.3519,-1.1497,-0.372,-0.8159,-0.2563
5.0609,0.0787,3.3884,1.8157,0.412,-0.0204,0.0482,-0.3363,2.013,1.4572,2.2929,0.3517,-1.1426,-0.4001,-0.8511,-0.258
5.0609,0.0787,3.3884,1.8157,0.412,-0.0204,0.0482,-0.3363,2.013,1.4572,2.2929,0.3517,-1.1426,-0.4001,-0.8511,-0.258
5.0172,0.0729,3.3795,1.8066,0.3645,-0.0417,-0.0119,-0.334,1.9809,1.4536,2.2658,0.345,-1.1517,-0.4223,-0.892,-0.2615
5.0172,0.0729,3.3795,1.8066,0.3645,-0.0417,-0.0119,-0.334,1.9809,1.4536,2.2658,0.345,-1.1517,-0.4223,-0.892,-0.2615
4.9847,0.0596,3.3784,1.7972,0.3284,-0.0593,-0.0663,-0.3337,1.9585,1.4504,2.2567,0.332,-1.1888,-0.4219,-0.9204,-0.2675
4.9847,0.0596,3.3784,1.7972,0.3284,-0.0593,-0.0663,-0.3337,1.9585,1.4504,2.2567,0.332,-1.1888,-0.4219,-0.9204,-0.2675
4.9847,0.0596,3.3784,1.7972,0.3284,-0.0593,-0.0663,-0.3337,1.9585,1.4504,2.2567,0.332,-1.1888,-0.4219,-0.9204,-0.2675
4.9708,0.054,3.3824,1.786,0.3192,-0.0561,-0.0851,-0.3365,1.9585,1.4504,2.2597,0.3212,-1.2122,-0.3882,-0.9311,-0.2678
4.9708,0.054,3.3824,1.786,0.3192,-0.0561,-0.0851,-0.3365,1.9585,1.4504,2.2597,0.3212,-1.2122,-0.3882,-0.9311,-0.2678
5.0395,0.058,3.3941,1.7965,0.4475,-0.0215,-0.004,-0.3274,2.0776,1.4567,2.3198,0.3259,-1.1027,-0.2795,-0.8444,-0.2623
5.0395,0.058,3.3941,1.7965,0.4475,-0.0215,-0.004,-0.3274,2.0776,1.4567,2.3198,0.3259,-1.1027,-0.2795,-0.8444,-0.2623
5.0395,0.058,3.3941,1.7965,0.4475,-0.0215,-0.004,-0.3274,2.0776,1.4567,2.3198,0.3259,-1.1027,-0.2795,-0.8444,-0.2623
5.094,0.0741,3.4096,1.818,0.5403,-0.0045,0.0719,-0.3162,2.1423,1.4637,2.3621,0.337,-1.0351,-0.2518,-0.7699,-0.2545
5.094,0.0741,3.4096,1.818,0.5403,-0.0045,0.0719,-0.3162,2.1423,1.4637,2.3621,0.337,-1.0351,-0.2518,-0.7699,-0.2545
5.1455,0.0949,3.4426,1.831,0.6267,0.0226,0.1607,-0.3048,2.1966,1.4932,2.4106,0.3524,-0.9399,-0.227,-0.6841,-0.2465
5.1455,0.0949,3.4426,1.831,0.6267,0.0226,0.1607,-0.3048,2.1966,1.4932,2.4106,0.3524,-0.9399,-0.227,-0.6841,-0.2465
5.2084,0.1083,3.4808,1.8421,0.7395,0.0329,0.25,-0.2934,2.2381,1.5199,2.4563,0.3657,-0.8368,-0.2309,-0.6038,-0.2405
5.2084,0.1083,3.4808,1.8421,0.7395,0.0329,0.25,-0.2934,2.2381,1.5199,2.4563,0.3657,-0.8368,-0.2309,-0.6038,-0.2405
5.259,0.1226,3.5292,1.8497,0.8698,0.0296,0.3421,-0.2852,2.2801,1.5391,2.5051,0.3746,-0.7437,-0.2376,-0.5495,-0.2232
5.259,0.1226,3.5292,1.8497,0.8698,0.0296,0.3421,-0.2852,2.2801,1.5391,2.5051,0.3746,-0.7437,-0.2376,-0.5495,-0.2232
5.3082,0.1302,3.5773,1.8525,0.9702,0.029,0.4042,-0.2638,2.3164,1.5376,2.5418,0.3748,-0.6766,-0.2614,-0.512,-0.208
5.3082,0.1302,3.5773,1.8525,0.9702,0.029,0.4042,-0.2638,2.3164,1.5376,2.5418,0.3748,-0.6766,-0.2614,-0.512,-0.208
5.3082,0.1302,3.5773,1.8525,0.9702,0.029,0.4042,-0.2638,2.3164,1.5376,2.5418,0.3748,-0.6766,-0.2614,-0.512,-0.208
5.3657,0.135,3.6414,1.8546,1.0451,0.0455,0.5147,-0.2498,2.3564,1.5234,2.6183,0.3642,-0.625,-0.2992,-0.4647,-0.1798
5.3657,0.135,3.6414,1.8546,1.0451,0.0455,0.5147,-0.2498,2.3564,1.5234,2.6183,0.3642,-0.625,-0.2992,-0.4647,-0.1798
5.3657,0.135,3.6414,1.8546,1.0451,0.0455,0.5147,-0.2498,2.3564,1.5234,2.6183,0.3642,-0.625,-0.2992,-0.4647,-0.1798
5.3833,0.136,3.6625,1.8522,1.0331,0.0732,0.5506,-0.2455,2.373,1.5213,2.6582,0.3599,-0.6201,-0.2879,-0.4354,-0.1738
5.3833,0.136,3.6625,1.8522,1.0331,0.0732,0.5506,-0.2455,2.373,1.5213,2.6582,0.3599,-0.6201,-0.2879,-0.4354,-0.1738
5.4123,0.1293,3.6733,1.8533,1.0115,0.1044,0.5773,-0.2404,2.3928,1.5219,2.6737,0.3643,-0.6153,-0.2765,-0.4103,-0.1725
5.4399,0.116,3.679,1.8562,0.9888,0.1163,0.5913,-0.2356,2.4028,1.5222,2.6677,0.3796,-0.6104,-0.2651,-0.3961,-0.1713
5.4399,0.116,3.679,1.8562,0.9888,0.1163,0.5913,-0.2356,2.4028,1.5222,2.6677,0.3796,-0.6104,-0.2651,-0.3961,-0.1713
5.4399,0.116,3.679,1.8562,0.9888,0.1163,0.5913,-0.2356,2.4028,1.5222,2.6677,0.3796,-0.6104,-0.2651,-0.3961,-0.1713
5.4642,0.1074,3.679,1.8562,0.9733,0.1178,0.5961,-0.23,2.4095,1.5198,2.6495,0.3993,-0.6164,-0.2565,-0.3912,-0.1731
5.4642,0.1074,3.679,1.8562,0.9733,0.1178,0.5961,-0.23,2.4095,1.5198,2.6495,0.3993,-0.6164,-0.2565,-0.3912,-0.1731
5.4513,0.1084,3.6785,1.8515,0.9555,0.1124,0.6213,-0.2414,2.4062,1.5172,2.6311,0.4123,-0.6164,-0.2565,-0.3844,-0.1775
5.4513,0.1084,3.6785,1.8515,0.9555,0.1124,0.6213,-0.2414,2.4062,1.5172,2.6311,0.4123,-0.6164,-0.2565,-0.3844,-0.1775
5.4513,0.1084,3.6785,1.8515,0.9555,0.1124,0.6213,-0.2414,2.4062,1.5172,2.6311,0.4123,-0.6164,-0.2565,-0.3844,-0.1775
5.4318,0.1189,3.6728,1.8485,0.9604,0.095,0.6407,-0.2507,2.4062,1.5172,2.6158,0.421,-0.6224,-0.2478,-0.3726,-0.1838
5.4318,0.1189,3.6728,1.8485,0.9604,0.095,0.6407,-0.2507,2.4062,1.5172,2.6158,0.421,-0.6224,-0.2478,-0.3726,-0.1838
5.4318,0.1189,3.6728,1.8485,0.9604,0.095,0.6407,-0.2507,2.4062,1.5172,2.6158,0.421,-0.6224,-0.2478,-0.3726,-0.1838
5.3701,0.155,3.6642,1.8441,0.9688,0.0724,0.635,-0.2486,2.3963,1.5169,2.5943,0.4188,-0.5489,-0.2803,-0.3688,-0.1892
5.3701,0.155,3.6642,1.8441,0.9688,0.0724,0.635,-0.2486,2.3963,1.5169,2.5943,0.4188,-0.5489,-0.2803,-0.3688,-0.1892
5.3444,0.1569,3.6614,1.8426,0.9547,0.0618,0.604,-0.2353,2.3864,1.5166,2.5912,0.41,-0.5139,-0.3123,-0.3799,-0.1894
5.3444,0.1569,3.6614,1.8426,0.9547,0.0618,0.604,-0.2353,2.3864,1.5166,2.5912,0.41,-0.5139,-0.3123,-0.3799,-0.1894
5.3239,0.1426,3.6608,1.8379,0.9097,0.0543,0.5604,-0.2223,2.3666,1.5161,2.588,0.4012,-0.5466,-0.3203,-0.3891,-0.1922
5.3239,0.1426,3.6608,1.8379,0.9097,0.0543,0.5604,-0.2223,2.3666,1.5161,2.588,0.4012,-0.5466,-0.3203,-0.3891,-0.1922
5.3239,0.1426,3.6608,1.8379,0.9097,0.0543,0.5604,-0.2223,2.3666,1.5161,2.588,0.4012,-0.5466,-0.3203,-0.3891,-0.1922
5.3001,0.1331,3.6784,1.8292,0.8731,0.0556,0.5327,-0.2198,2.3634,1.5134,2.591,0.3968,-0.6033,-0.2938,-0.402,-0.1897
5.3001,0.1331,3.6784,1.8292,0.8731,0.0556,0.5327,-0.2198,2.3634,1.5134,2.591,0.3968,-0.6033,-0.2938,-0.402,-0.1897
5.3001,0.1331,3.6784,1.8292,0.8731,0.0556,0.5327,-0.2198,2.3634,1.5134,2.591,0.3968,-0.6033,-0.2938,-0.402,-0.1897
5.3133,0.1141,3.6807,1.8482,0.8177,0.0635,0.4991,-0.2273,2.4137,1.4919,2.6033,0.3925,-0.7102,-0.2495,-0.4272,-0.1911
5.3133,0.1141,3.6807,1.8482,0.8177,0.0635,0.4991,-0.2273,2.4137,1.4919,2.6033,0.3925,-0.7102,-0.2495,-0.4272,-0.1911
5.3199,0.1046,3.6745,1.8628,0.7908,0.0613,0.4874,-0.2353,2.4174,1.4792,2.6032,0.386,-0.7592,-0.2518,-0.4394,-0.1949
5.3199,0.1046,3.6745,1.8628,0.7908,0.0613,0.4874,-0.2353,2.4174,1.4792,2.6032,0.386,-0.7592,-0.2518,-0.4394,-0.1949
5.3199,0.1046,3.6745,1.8628,0.7908,0.0613,0.4874,-0.2353,2.4174,1.4792,2.6032,0.386,-0.7592,-0.2518,-0.4394,-0.1949
5.3184,0.098,3.6602,1.8778,0.7638,0.0592,0.4779,-0.2464,2.4008,1.4813,2.5971,0.3881,-0.8081,-0.254,-0.4399,-0.2049
5.3184,0.098,3.6602,1.8778,0.7638,0.0592,0.4779,-0.2464,2.4008,1.4813,2.5971,0.3881,-0.8081,-0.254,-0.4399,-0.2049
5.2961,0.0951,3.6368,1.8836,0.7512,0.0366,0.417,-0.2515,2.314,1.512,2.5633,0.3836,-0.9042,-0.2786,-0.4862,-0.213
5.2961,0.0951,3.6368,1.8836,0.7512,0.0366,0.417,-0.2515,2.314,1.512,2.5633,0.3836,-0.9042,-0.2786,-0.4862,-0.213
5.2754,0.0989,3.626,1.8824,0.7372,0.026,0.385,-0.2546,2.278,1.5058,2.5448,0.377,-0.9678,-0.295,-0.529,-0.2101
5.2754,0.0989,3.626,1.8824,0.7372,0.026,0.385,-0.2546,2.278,1.5058,2.5448,0.377,-0.9678,-0.295,-0.529,-0.2101
5.2754,0.0989,3.626,1.8824,0.7372,0.026,0.385,-0.2546,2.278,1.5058,2.5448,0.377,-0.9678,-0.295,-0.529,-0.2101
5.2532,0.0961,3.6198,1.8747,0.7082,0.017,0.3404,-0.2581,2.2358,1.4944,2.5416,0.3552,-1.0357,-0.3225,-0.5825,-0.2075
5.2532,0.0961,3.6198,1.8747,0.7082,0.017,0.3404,-0.2581,2.2358,1.4944,2.5416,0.3552,-1.0357,-0.3225,-0.5825,-0.2075
5.231,0.0932,3.6136,1.867,0.6534,0.0247,0.296,-0.2617,2.2069,1.4783,2.5474,0.3335,-1.0987,-0.3388,-0.6352,-0.2112
5.231,0.0932,3.6136,1.867,0.6534,0.0247,0.296,-0.2617,2.2069,1.4783,2.5474,0.3335,-1.0987,-0.3388,-0.6352,-0.2112
5.231,0.0932,3.6136,1.867,0.6534,0.0247,0.296,-0.2617,2.2069,1.4783,2.5474,0.3335,-1.0987,-0.3388,-0.6352,-0.2112
5.2201,0.0828,3.6102,1.8607,0.5895,0.0358,0.2471,-0.2708,2.1911,1.4652,2.5503,0.3161,-1.151,-0.3524,-0.678,-0.2184
5.2346,0.0705,3.6051,1.8625,0.528,0.0536,0.2085,-0.2763,2.185,1.4524,2.5349,0.3118,-1.1986,-0.3547,-0.7195,-0.2219
5.2346,0.0705,3.6051,1.8625,0.528,0.0536,0.2085,-0.2763,2.185,1.4524,2.5349,0.3118,-1.1986,-0.3547,-0.7195,-0.2219
5.2364,0.0592,3.592,1.8647,0.4773,0.0561,0.1689,-0.2862,2.1721,1.4495,2.5137,0.3225,-1.209,-0.3575,-0.7482,-0.2279
5.2364,0.0592,3.592,1.8647,0.4773,0.0561,0.1689,-0.2862,2.1721,1.4495,2.5137,0.3225,-1.209,-0.3575,-0.7482,-0.2279
5.2223,0.0536,3.5761,1.8653,0.4373,0.0434,0.1439,-0.2989,2.1491,1.4538,2.4713,0.344,-1.2518,-0.3487,-0.7769,-0.2339
5.2223,0.0536,3.5761,1.8653,0.4373,0.0434,0.1439,-0.2989,2.1491,1.4538,2.4713,0.344,-1.2518,-0.3487,-0.7769,-0.2339
5.1998,0.0686,3.5608,1.8707,0.4202,0.0379,0.1403,-0.3119,2.1259,1.4658,2.441,0.3547,-1.2518,-0.3487,-0.7995,-0.238
5.1998,0.0686,3.5608,1.8707,0.4202,0.0379,0.1403,-0.3119,2.1259,1.4658,2.441,0.3547,-1.2518,-0.3487,-0.7995,-0.238
5.1998,0.0686,3.5608,1.8707,0.4202,0.0379,0.1403,-0.3119,2.1259,1.4658,2.441,0.3547,-1.2518,-0.3487,-0.7995,-0.238
5.1802,0.0969,3.5478,1.8728,0.4444,0.0332,0.1515,-0.3158,2.1317,1.4862,2.4411,0.3613,-1.1895,-0.3324,-0.781,-0.2385
5.1827,0.1281,3.5483,1.8776,0.4993,0.0445,0.1954,-0.3123,2.1572,1.4996,2.4654,0.3657,-1.0627,-0.3194,-0.7415,-0.2323
5.1827,0.1281,3.5483,1.8776,0.4993,0.0445,0.1954,-0.3123,2.1572,1.4996,2.4654,0.3657,-1.0627,-0.3194,-0.7415,-0.2323
5.201,0.1538,3.5619,1.8803,0.5881,0.0478,0.251,-0.3009,2.1957,1.5161,2.502,0.3724,-0.891,-0.3156,-0.6802,-0.2256
5.201,0.1538,3.5619,1.8803,0.5881,0.0478,0.251,-0.3009,2.1957,1.5161,2.502,0.3724,-0.891,-0.3156,-0.6802,-0.2256
5.2294,0.1653,3.5863,1.8841,0.6739,0.0561,0.3114,-0.2839,2.248,1.5202,2.5418,0.3813,-0.7162,-0.332,-0.6146,-0.2144
5.2294,0.1653,3.5863,1.8841,0.6739,0.0561,0.3114,-0.2839,2.248,1.5202,2.5418,0.3813,-0.7162,-0.332,-0.6146,-0.2144
5.2294,0.1653,3.5863,1.8841,0.6739,0.0561,0.3114,-0.2839,2.248,1.5202,2.5418,0.3813,-0.7162,-0.332,-0.6146,-0.2144
5.2629,0.1606,3.6226,1.8762,0.7405,0.052,0.3586,-0.2598,2.2905,1.524,2.6,0.3772,-0.6178,-0.3278,-0.5565,-0.2024
5.2822,0.1502,3.6619,1.8698,0.7732,0.0559,0.3921,-0.2403,2.3265,1.5302,2.6492,0.3796,-0.5973,-0.3025,-0.4993,-0.1941
5.2822,0.1502,3.6619,1.8698,0.7732,0.0559,0.3921,-0.2403,2.3265,1.5302,2.6492,0.3796,-0.5973,-0.3025,-0.4993,-0.1941
5.3239,0.1426,3.707,1.8663,0.8177,0.0635,0.4416,-0.2312,2.3728,1.529,2.6894,0.3819,-0.6164,-0.2565,-0.4511,-0.1887
5.3704,0.1369,3.7379,1.8778,0.8588,0.0762,0.4855,-0.2201,2.4328,1.5154,2.7112,0.3973,-0.6188,-0.2162,-0.4095,-0.1789
5.3704,0.1369,3.7379,1.8778,0.8588,0.0762,0.4855,-0.2201,2.4328,1.5154,2.7112,0.3973,-0.6188,-0.2162,-0.4095,-0.1789
5.3704,0.1369,3.7379,1.8778,0.8588,0.0762,0.4855,-0.2201,2.4328,1.5154,2.7112,0.3973,-0.6188,-0.2162,-0.4095,-0.1789
5.409,0.1341,3.7511,1.8981,0.8847,0.0905,0.5305,-0.2166,2.4796,1.5064,2.73,0.4105,-0.6309,-0.1988,-0.3641,-0.1745
5.409,0.1341,3.7511,1.8981,0.8847,0.0905,0.5305,-0.2166,2.4796,1.5064,2.73,0.4105,-0.6309,-0.1988,-0.3641,-0.1745
5.4396,0.1341,3.7666,1.9151,0.9105,0.1048,0.5814,-0.2151,2.4961,1.512,2.7517,0.4127,-0.6369,-0.1901,-0.3147,-0.1755
5.4396,0.1341,3.7666,1.9151,0.9105,0.1048,0.5814,-0.2151,2.4961,1.512,2.7517,0.4127,-0.6369,-0.1901,-0.3147,-0.1755
5.4396,0.1341,3.7666,1.9151,0.9105,0.1048,0.5814,-0.2151,2.4961,1.512,2.7517,0.4127,-0.6369,-0.1901,-0.3147,-0.1755
5.4558,0.1284,3.7838,1.924,0.9165,0.1066,0.6392,-0.2234,2.4886,1.5374,2.7797,0.4128,-0.614,-0.2048,-0.2464,-0.1873
5.4558,0.1284,3.7838,1.924,0.9165,0.1066,0.6392,-0.2234,2.4886,1.5374,2.7797,0.4128,-0.614,-0.2048,-0.2464,-0.1873
5.4558,0.1284,3.7838,1.924,0.9165,0.1066,0.6392,-0.2234,2.4886,1.5374,2.7797,0.4128,-0.614,-0.2048,-0.2464,-0.1873
5.4558,0.1284,3.7838,1.924,0.9165,0.1066,0.6392,-0.2234,2.4886,1.5374,2.7797,0.4128,-0.614,-0.2048,-0.2464,-0.1873
5.4477,0.1312,3.789,1.9222,0.9259,0.1032,0.6427,-0.2222,2.4679,1.5599,2.7766,0.4172,-0.5681,-0.2342,-0.2433,-0.1863
5.4477,0.1312,3.789,1.9222,0.9259,0.1032,0.6427,-0.2222,2.4679,1.5599,2.7766,0.4172,-0.5681,-0.2342,-0.2433,-0.1863
5.4477,0.1312,3.789,1.9222,0.9259,0.1032,0.6427,-0.2222,2.4679,1.5599,2.7766,0.4172,-0.5681,-0.2342,-0.2433,-0.1863
5.4219,0.1331,3.7775,1.9162,0.9593,0.0758,0.6334,-0.2213,2.4243,1.5715,2.7795,0.3996,-0.6056,-0.2537,-0.29,-0.1678
5.4219,0.1331,3.7775,1.9162,0.9593,0.0758,0.6334,-0.2213,2.4243,1.5715,2.7795,0.3996,-0.6056,-0.2537,-0.29,-0.1678
5.4042,0.1322,3.7769,1.9114,0.9534,0.074,0.6219,-0.2173,2.4117,1.5532,2.7916,0.3821,-0.6718,-0.25,-0.3279,-0.1565
5.4042,0.1322,3.7769,1.9114,0.9534,0.074,0.6219,-0.2173,2.4117,1.5532,2.7916,0.3821,-0.6718,-0.25,-0.3279,-0.1565
5.3961,0.135,3.7821,1.9096,0.9272,0.091,0.6162,-0.2152,2.4087,1.5428,2.8101,0.3689,-0.7222,-0.2322,-0.3477,-0.1494
5.3961,0.135,3.7821,1.9096,0.9272,0.091,0.6162,-0.2152,2.4087,1.5428,2.8101,0.3689,-0.7222,-0.2322,-0.3477,-0.1494
5.4237,0.1217,3.7878,1.9126,0.8916,0.1115,0.6069,-0.2144,2.4189,1.5354,2.8226,0.3711,-0.739,-0.2263,-0.3508,-0.1504
5.4237,0.1217,3.7878,1.9126,0.8916,0.1115,0.6069,-0.2144,2.4189,1.5354,2.8226,0.3711,-0.739,-0.2263,-0.3508,-0.1504
5.4561,0.1103,3.7965,1.917,0.8726,0.1182,0.6012,-0.2124,2.4291,1.528,2.8166,0.3865,-0.7557,-0.2203,-0.3539,-0.1514
5.4561,0.1103,3.7965,1.917,0.8726,0.1182,0.6012,-0.2124,2.4291,1.528,2.8166,0.3865,-0.7557,-0.2203,-0.3539,-0.1514
5.4609,0.1122,3.8028,1.9248,0.8419,0.1212,0.6092,-0.2176,2.4393,1.5206,2.8137,0.3975,-0.7832,-0.2172,-0.3482,-0.1595
5.4609,0.1122,3.8028,1.9248,0.8419,0.1212,0.6092,-0.2176,2.4393,1.5206,2.8137,0.3975,-0.7832,-0.2172,-0.3482,-0.1595
5.4609,0.1122,3.8028,1.9248,0.8419,0.1212,0.6092,-0.2176,2.4393,1.5206,2.8137,0.3975,-0.7832,-0.2172,-0.3482,-0.1595
5.451,0.1265,3.8091,1.9326,0.8207,0.1209,0.6194,-0.2261,2.4361,1.518,2.8076,0.4063,-0.8047,-0.2227,-0.3525,-0.1642
5.4215,0.1512,3.8074,1.9408,0.8031,0.1154,0.6146,-0.2317,2.4361,1.518,2.8014,0.4084,-0.8034,-0.2427,-0.3636,-0.1644
5.4215,0.1512,3.8074,1.9408,0.8031,0.1154,0.6146,-0.2317,2.4361,1.518,2.8014,0.4084,-0.8034,-0.2427,-0.3636,-0.1644
5.402,0.1617,3.7999,1.9459,0.7797,0.108,0.5903,-0.228,2.4226,1.5227,2.7982,0.4062,-0.7747,-0.2659,-0.3846,-0.1611
5.402,0.1617,3.7999,1.9459,0.7797,0.108,0.5903,-0.228,2.4226,1.5227,2.7982,0.4062,-0.7747,-0.2659,-0.3846,-0.1611
5.402,0.1617,3.7999,1.9459,0.7797,0.108,0.5903,-0.228,2.4226,1.5227,2.7982,0.4062,-0.7747,-0.2659,-0.3846,-0.1611
5.402,0.1617,3.7999,1.9459,0.7797,0.108,0.5903,-0.228,2.4226,1.5227,2.7982,0.4062,-0.7747,-0.2659,-0.3846,-0.1611
5.3477,0.1522,3.812,1.9341,0.7262,0.0725,0.4959,-0.2165,2.3896,1.5193,2.7979,0.3865,-0.8223,-0.2881,-0.4429,-0.163
5.3477,0.1522,3.812,1.9341,0.7262,0.0725,0.4959,-0.2165,2.3896,1.5193,2.7979,0.3865,-0.8223,-0.2881,-0.4429,-0.163
5.3477,0.1522,3.812,1.9341,0.7262,0.0725,0.4959,-0.2165,2.3896,1.5193,2.7979,0.3865,-0.8223,-0.2881,-0.4429,-0.163
5.3367,0.1417,3.8137,1.926,0.6842,0.0718,0.4545,-0.2188,2.38,1.5113,2.7976,0.3667,-0.9161,-0.2614,-0.4772,-0.1673
5.3385,0.1303,3.8109,1.9245,0.6668,0.0664,0.4223,-0.2219,2.3869,1.5013,2.7882,0.3602,-0.9929,-0.2408,-0.5064,-0.1733
5.3385,0.1303,3.8109,1.9245,0.6668,0.0664,0.4223,-0.2219,2.3869,1.5013,2.7882,0.3602,-0.9929,-0.2408,-0.5064,-0.1733
5.3404,0.1189,3.7855,1.9385,0.6308,0.0675,0.3833,-0.2275,2.3874,1.486,2.7818,0.3492,-1.074,-0.2316,-0.5435,-0.1785
5.3404,0.1189,3.7855,1.9385,0.6308,0.0675,0.3833,-0.2275,2.3874,1.486,2.7818,0.3492,-1.074,-0.2316,-0.5435,-0.1785
5.3195,0.1226,3.7608,1.9572,0.6077,0.0602,0.35,-0.235,2.3812,1.4731,2.7632,0.3492,-1.1324,-0.2368,-0.5707,-0.1872
5.3195,0.1226,3.7608,1.9572,0.6077,0.0602,0.35,-0.235,2.3812,1.4731,2.7632,0.3492,-1.1324,-0.2368,-0.5707,-0.1872
5.2939,0.1245,3.7355,1.9712,0.5603,0.0576,0.319,-0.2458,2.3545,1.4826,2.7569,0.3448,-1.1742,-0.2479,-0.5851,-0.1984
5.2939,0.1245,3.7355,1.9712,0.5603,0.0576,0.319,-0.2458,2.3545,1.4826,2.7569,0.3448,-1.1742,-0.2479,-0.5851,-0.1984
5.2618,0.1359,3.7228,1.9782,0.543,0.0522,0.2881,-0.2565,2.3009,1.5091,2.7445,0.3426,-1.2263,-0.2617,-0.6093,-0.2061
5.2444,0.1349,3.7073,1.9837,0.5536,0.0369,0.2585,-0.2628,2.2578,1.5205,2.7289,0.3383,-1.256,-0.2897,-0.6491,-0.2123
5.2444,0.1349,3.7073,1.9837,0.5536,0.0369,0.2585,-0.2628,2.2578,1.5205,2.7289,0.3383,-1.256,-0.2897,-0.6491,-0.2123
5.2444,0.1349,3.7073,1.9837,0.5536,0.0369,0.2585,-0.2628,2.2578,1.5205,2.7289,0.3383,-1.256,-0.2897,-0.6491,-0.2123
5.2269,0.1339,3.7039,1.9773,0.5527,0.018,0.22,-0.2684,2.2153,1.5167,2.7071,0.3295,-1.3018,-0.3119,-0.6974,-0.2115
5.2269,0.1339,3.7039,1.9773,0.5527,0.018,0.22,-0.2684,2.2153,1.5167,2.7071,0.3295,-1.3018,-0.3119,-0.6974,-0.2115
5.2269,0.1339,3.7039,1.9773,0.5527,0.018,0.22,-0.2684,2.2153,1.5167,2.7071,0.3295,-1.3018,-0.3119,-0.6974,-0.2115
5.2269,0.1339,3.7039,1.9773,0.5527,0.018,0.22,-0.2684,2.2153,1.5167,2.7071,0.3295,-1.3018,-0.3119,-0.6974,-0.2115
5.1968,0.1338,3.7045,1.9595,0.5457,0.0281,0.1973,-0.2724,2.1736,1.4976,2.725,0.2904,-1.3255,-0.3482,-0.7493,-0.2053
5.1968,0.1338,3.7045,1.9595,0.5457,0.0281,0.1973,-0.2724,2.1736,1.4976,2.725,0.2904,-1.3255,-0.3482,-0.7493,-0.2053
5.1968,0.1338,3.7045,1.9595,0.5457,0.0281,0.1973,-0.2724,2.1736,1.4976,2.725,0.2904,-1.3255,-0.3482,-0.7493,-0.2053
5.2269,0.1339,3.7149,1.9559,0.574,0.0682,0.2314,-0.2604,2.1963,1.5009,2.7651,0.286,-1.2473,-0.3375,-0.7224,-0.1966
5.2826,0.1321,3.7234,1.9604,0.6139,0.1122,0.2872,-0.2489,2.2552,1.5026,2.8026,0.2991,-1.1596,-0.3045,-0.661,-0.1899
5.2826,0.1321,3.7234,1.9604,0.6139,0.1122,0.2872,-0.2489,2.2552,1.5026,2.8026,0.2991,-1.1596,-0.3045,-0.661,-0.1899
5.3466,0.1274,3.7429,1.9661,0.674,0.1376,0.35,-0.235,2.314,1.512,2.8342,0.3274,-1.0443,-0.2744,-0.5952,-0.1786
5.3466,0.1274,3.7429,1.9661,0.674,0.1376,0.35,-0.235,2.314,1.512,2.8342,0.3274,-1.0443,-0.2744,-0.5952,-0.1786
5.3994,0.1303,3.7653,1.9732,0.7263,0.1542,0.4324,-0.2304,2.373,1.5213,2.866,0.3558,-0.9598,-0.2525,-0.5272,-0.17
5.3994,0.1303,3.7653,1.9732,0.7263,0.1542,0.4324,-0.2304,2.373,1.5213,2.866,0.3558,-0.9598,-0.2525,-0.5272,-0.17
5.441,0.1408,3.7935,1.9834,0.7956,0.1571,0.5302,-0.2286,2.4256,1.5331,2.8977,0.3843,-0.8748,-0.2305,-0.4509,-0.1622
5.441,0.1408,3.7935,1.9834,0.7956,0.1571,0.5302,-0.2286,2.4256,1.5331,2.8977,0.3843,-0.8748,-0.2305,-0.4509,-0.1622
5.441,0.1408,3.7935,1.9834,0.7956,0.1571,0.5302,-0.2286,2.4256,1.5331,2.8977,0.3843,-0.8748,-0.2305,-0.4509,-0.1622
5.4584,0.1598,3.8189,1.9921,0.8628,0.153,0.6066,-0.2264,2.4719,1.5395,2.9294,0.3997,-0.782,-0.2372,-0.3865,-0.1584
5.4677,0.1818,3.8466,1.9974,0.9303,0.1487,0.6661,-0.2183,2.5014,1.5557,2.9672,0.4063,-0.6718,-0.25,-0.3298,-0.1537
5.4677,0.1818,3.8466,1.9974,0.9303,0.1487,0.6661,-0.2183,2.5014,1.5557,2.9672,0.4063,-0.6718,-0.25,-0.3298,-0.1537
5.4788,0.1924,3.8744,2.0028,0.9671,0.1475,0.7049,-0.2052,2.5246,1.5589,2.9893,0.4085,-0.5827,-0.2684,-0.2921,-0.1485
5.4788,0.1924,3.8744,2.0028,0.9671,0.1475,0.7049,-0.2052,2.5246,1.5589,2.9893,0.4085,-0.5827,-0.2684,-0.2921,-0.1485
5.4788,0.1924,3.8993,2.0066,0.9862,0.1408,0.7185,-0.1806,2.5379,1.5618,3.0177,0.4085,-0.521,-0.2836,-0.2643,-0.1398
5.4788,0.1924,3.8993,2.0066,0.9862,0.1408,0.7185,-0.1806,2.5379,1.5618,3.0177,0.4085,-0.521,-0.2836,-0.2643,-0.1398
5.4644,0.1866,3.926,2.0022,0.9671,0.1475,0.7188,-0.1685,2.5512,1.5648,3.0492,0.4041,-0.55,-0.2603,-0.2377,-0.1348
5.4644,0.1866,3.926,2.0022,0.9671,0.1475,0.7188,-0.1685,2.5512,1.5648,3.0492,0.4041,-0.55,-0.2603,-0.2377,-0.1348
5.4644,0.1866,3.926,2.0022,0.9671,0.1475,0.7188,-0.1685,2.5512,1.5648,3.0492,0.4041,-0.55,-0.2603,-0.2377,-0.1348
5.471,0.1771,3.9505,2.0012,0.9481,0.1542,0.7236,-0.1628,2.5713,1.5653,3.0714,0.4062,-0.5802,-0.2168,-0.2172,-0.1317
5.471,0.1771,3.9505,2.0012,0.9481,0.1542,0.7236,-0.1628,2.5713,1.5653,3.0714,0.4062,-0.5802,-0.2168,-0.2172,-0.1317
5.4858,0.1646,3.961,2.0203,0.9326,0.1558,0.7365,-0.1625,2.6256,1.5461,3.1027,0.3885,-0.701,-0.1345,-0.2128,-0.127
5.4858,0.1646,3.961,2.0203,0.9326,0.1558,0.7365,-0.1625,2.6256,1.5461,3.1027,0.3885,-0.701,-0.1345,-0.2128,-0.127
5.4858,0.1646,3.961,2.0203,0.9326,0.1558,0.7365,-0.1625,2.6256,1.5461,3.1027,0.3885,-0.701,-0.1345,-0.2128,-0.127
5.5021,0.1589,3.9545,2.0353,0.929,0.161,0.7458,-0.1633,2.6495,1.5339,3.1153,0.3841,-0.7286,-0.1314,-0.2116,-0.1233
5.5021,0.1589,3.9545,2.0353,0.929,0.161,0.7458,-0.1633,2.6495,1.5339,3.1153,0.3841,-0.7286,-0.1314,-0.2116,-0.1233
5.5021,0.1589,3.9545,2.0353,0.929,0.161,0.7458,-0.1633,2.6495,1.5339,3.1153,0.3841,-0.7286,-0.1314,-0.2116,-0.1233
5.5102,0.156,3.94,2.0506,0.9254,0.1662,0.7552,-0.1642,2.6598,1.5264,3.1216,0.3818,-0.7441,-0.1457,-0.2016,-0.1269
5.5102,0.156,3.94,2.0506,0.9254,0.1662,0.7552,-0.1642,2.6598,1.5264,3.1216,0.3818,-0.7441,-0.1457,-0.2016,-0.1269
5.5102,0.156,3.9178,2.0712,0.91,0.1677,0.7575,-0.1674,2.6186,1.5562,3.1342,0.3774,-0.7415,-0.186,-0.1666,-0.1392
5.5102,0.156,3.9178,2.0712,0.91,0.1677,0.7575,-0.1674,2.6186,1.5562,3.1342,0.3774,-0.7415,-0.186,-0.1666,-0.1392
5.5102,0.156,3.9178,2.0712,0.91,0.1677,0.7575,-0.1674,2.6186,1.5562,3.1342,0.3774,-0.7415,-0.186,-0.1666,-0.1392
5.5069,0.1608,3.9236,2.0742,0.9326,0.1558,0.7516,-0.1654,2.5806,1.5888,3.1311,0.3818,-0.7463,-0.1975,-0.1666,-0.1392
5.5069,0.1608,3.9236,2.0742,0.9326,0.1558,0.7516,-0.1654,2.5806,1.5888,3.1311,0.3818,-0.7463,-0.1975,-0.1666,-0.1392
5.5069,0.1608,3.9236,2.0742,0.9326,0.1558,0.7516,-0.1654,2.5806,1.5888,3.1311,0.3818,-0.7463,-0.1975,-0.1666,-0.1392
5.5002,0.1703,3.9241,2.0791,0.9553,0.1438,0.732,-0.156,2.5502,1.5957,3.1279,0.3796,-0.7725,-0.2144,-0.1916,-0.1304
5.4954,0.1684,3.9271,2.0806,0.9625,0.1334,0.7075,-0.1522,2.5337,1.59,3.1246,0.3774,-0.7987,-0.2313,-0.2254,-0.1143
5.4954,0.1684,3.9271,2.0806,0.9625,0.1334,0.7075,-0.1522,2.5337,1.59,3.1246,0.3774,-0.7987,-0.2313,-0.2254,-0.1143
5.4825,0.1694,3.9294,2.0773,0.9483,0.1227,0.6841,-0.1562,2.5074,1.5764,3.14,0.3553,-0.8462,-0.2536,-0.2716,-0.1021
5.4825,0.1694,3.9294,2.0773,0.9483,0.1227,0.6841,-0.1562,2.5074,1.5764,3.14,0.3553,-0.8462,-0.2536,-0.2716,-0.1021
5.481,0.1627,3.9399,2.0736,0.9175,0.1258,0.6664,-0.1622,2.5014,1.5557,3.1555,0.3398,-0.8995,-0.2673,-0.302,-0.1017
5.481,0.1627,3.9399,2.0736,0.9175,0.1258,0.6664,-0.1622,2.5014,1.5557,3.1555,0.3398,-0.8995,-0.2673,-0.302,-0.1017
5.4876,0.1531,3.9422,2.0702,0.8736,0.1374,0.6453,-0.1694,2.4949,1.5504,3.1648,0.3332,-0.9207,-0.2727,-0.3255,-0.1058
5.4876,0.1531,3.9422,2.0702,0.8736,0.1374,0.6453,-0.1694,2.4949,1.5504,3.1648,0.3332,-0.9207,-0.2727,-0.3255,-0.1058
5.5186,0.135,3.9422,2.0702,0.8275,0.1419,0.6264,-0.1798,2.4919,1.54,3.1524,0.3443,-0.9313,-0.2755,-0.3421,-0.1144
5.5186,0.135,3.9422,2.0702,0.8275,0.1419,0.6264,-0.1798,2.4919,1.54,3.1524,0.3443,-0.9313,-0.2755,-0.3421,-0.1144
5.5171,0.1283,3.9317,2.0739,0.7816,0.1464,0.6018,-0.1882,2.4784,1.5448,3.1275,0.3664,-0.9585,-0.2724,-0.3586,-0.123
5.5171,0.1283,3.9317,2.0739,0.7816,0.1464,0.6018,-0.1882,2.4784,1.5448,3.1275,0.3664,-0.9585,-0.2724,-0.3586,-0.123
5.5171,0.1283,3.9317,2.0739,0.7816,0.1464,0.6018,-0.1882,2.4784,1.5448,3.1275,0.3664,-0.9585,-0.2724,-0.3586,-0.123
5.496,0.1321,3.9212,2.0776,0.7335,0.1439,0.583,-0.1986,2.455,1.5493,3.1024,0.3753,-0.9962,-0.272,-0.3763,-0.1352
5.4651,0.1503,3.9107,2.0813,0.682,0.1464,0.5642,-0.209,2.4246,1.5638,3.0866,0.3775,-0.9902,-0.2806,-0.3928,-0.1438
5.4651,0.1503,3.9107,2.0813,0.682,0.1464,0.5642,-0.209,2.4246,1.5638,3.0866,0.3775,-0.9902,-0.2806,-0.3928,-0.1438
5.4227,0.1761,3.9003,2.085,0.6495,0.1424,0.534,-0.2154,2.4047,1.5632,3.0769,0.3709,-0.9889,-0.3004,-0.4204,-0.1525
5.4227,0.1761,3.9003,2.085,0.6495,0.1424,0.534,-0.2154,2.4047,1.5632,3.0769,0.3709,-0.9889,-0.3004,-0.4204,-0.1525
5.3903,0.1875,3.884,2.0857,0.6241,0.128,0.4867,-0.2157,2.3915,1.5603,3.0736,0.3621,-0.9276,-0.335,-0.4497,-0.1585
5.3903,0.1875,3.884,2.0857,0.6241,0.128,0.4867,-0.2157,2.3915,1.5603,3.0736,0.3621,-0.9276,-0.335,-0.4497,-0.1585
5.3903,0.1875,3.884,2.0857,0.6241,0.128,0.4867,-0.2157,2.3915,1.5603,3.0736,0.3621,-0.9276,-0.335,-0.4497,-0.1585
5.3535,0.1789,3.8701,2.0829,0.5837,0.1151,0.4327,-0.2184,2.3685,1.557,3.0669,0.3511,-0.9204,-0.3633,-0.4839,-0.1628
5.3535,0.1789,3.8701,2.0829,0.5837,0.1151,0.4327,-0.2184,2.3685,1.557,3.0669,0.3511,-0.9204,-0.3633,-0.4839,-0.1628
5.3027,0.1645,3.8684,2.0683,0.5297,0.0916,0.3606,-0.2195,2.349,1.5488,3.0699,0.3401,-0.9687,-0.3655,-0.5279,-0.1636
5.2647,0.1492,3.8754,2.0582,0.4931,0.0737,0.2979,-0.2214,2.3262,1.5379,3.0568,0.3248,-1.0719,-0.3419,-0.5699,-0.1672
5.2647,0.1492,3.8754,2.0582,0.4931,0.0737,0.2979,-0.2214,2.3262,1.5379,3.0568,0.3248,-1.0719,-0.3419,-0.5699,-0.1672
5.2411,0.1396,3.8824,2.0481,0.4667,0.0714,0.2592,-0.227,2.3166,1.5299,3.0565,0.3117,-1.1491,-0.3018,-0.5929,-0.1713
5.2411,0.1396,3.8824,2.0481,0.4667,0.0714,0.2592,-0.227,2.3166,1.5299,3.0565,0.3117,-1.1491,-0.3018,-0.5929,-0.1713
5.2571,0.134,3.8748,2.0533,0.486,0.0839,0.2592,-0.227,2.3332,1.5279,3.0627,0.3095,-1.1905,-0.2421,-0.5948,-0.1686
5.2571,0.134,3.8748,2.0533,0.486,0.0839,0.2592,-0.227,2.3332,1.5279,3.0627,0.3095,-1.1905,-0.2421,-0.5948,-0.1686
5.2571,0.134,3.8748,2.0533,0.486,0.0839,0.2592,-0.227,2.3332,1.5279,3.0627,0.3095,-1.1905,-0.2421,-0.5948,-0.1686
5.3001,0.1331,3.8736,2.0664,0.5491,0.1041,0.3013,-0.2203,2.3862,1.5243,3.0883,0.3203,-1.1457,-0.1997,-0.5578,-0.1633
5.3001,0.1331,3.8736,2.0664,0.5491,0.1041,0.3013,-0.2203,2.3862,1.5243,3.0883,0.3203,-1.1457,-0.1997,-0.5578,-0.1633
5.3001,0.1331,3.8736,2.0664,0.5491,0.1041,0.3013,-0.2203,2.3862,1.5243,3.0883,0.3203,-1.1457,-0.1997,-0.5578,-0.1633
5.4201,0.1446,3.8763,2.1139,0.7241,0.1472,0.4503,-0.2004,2.4916,1.5477,3.1684,0.3486,-0.9274,-0.1728,-0.3902,-0.1529
5.4201,0.1446,3.8763,2.1139,0.7241,0.1472,0.4503,-0.2004,2.4916,1.5477,3.1684,0.3486,-0.9274,-0.1728,-0.3902,-0.1529
5.4828,0.1512,3.8872,2.1381,0.7942,0.1693,0.5311,-0.1925,2.5246,1.5589,3.2068,0.355,-0.8454,-0.1821,-0.2995,-0.1542
5.4828,0.1512,3.8872,2.1381,0.7942,0.1693,0.5311,-0.1925,2.5246,1.5589,3.2068,0.355,-0.8454,-0.1821,-0.2995,-0.1542
5.5328,0.1588,3.9104,2.1504,0.866,0.1793,0.6123,-0.1846,2.554,1.5829,3.2519,0.3659,-0.7415,-0.186,-0.2151,-0.151
5.5328,0.1588,3.9104,2.1504,0.866,0.1793,0.6123,-0.1846,2.554,1.5829,3.2519,0.3659,-0.7415,-0.186,-0.2151,-0.151
5.5748,0.1693,3.9384,2.1559,0.9323,0.1874,0.6905,-0.1781,2.5733,1.6067,3.2969,0.3701,-0.6417,-0.2016,-0.1465,-0.1463
5.5748,0.1693,3.9384,2.1559,0.9323,0.1874,0.6905,-0.1781,2.5733,1.6067,3.2969,0.3701,-0.6417,-0.2016,-0.1465,-0.1463
5.5748,0.1693,3.9384,2.1559,0.9323,0.1874,0.6905,-0.1781,2.5733,1.6067,3.2969,0.3701,-0.6417,-0.2016,-0.1465,-0.1463
5.6006,0.1856,3.9741,2.1561,1.0216,0.1834,0.7526,-0.1731,2.5962,1.6254,3.3357,0.3765,-0.5584,-0.2113,-0.1028,-0.1328
5.6234,0.1884,3.9987,2.1552,1.1031,0.1704,0.8011,-0.1607,2.6161,1.6338,3.3713,0.3808,-0.4916,-0.2151,-0.0709,-0.1129
5.6234,0.1884,3.9987,2.1552,1.1031,0.1704,0.8011,-0.1607,2.6161,1.6338,3.3713,0.3808,-0.4916,-0.2151,-0.0709,-0.1129
5.62,0.1933,4.0222,2.1443,1.1573,0.1552,0.8319,-0.1544,2.6363,1.6343,3.4004,0.3806,-0.4867,-0.2036,-0.0522,-0.0904
5.62,0.1933,4.0222,2.1443,1.1573,0.1552,0.8319,-0.1544,2.6363,1.6343,3.4004,0.3806,-0.4867,-0.2036,-0.0522,-0.0904
5.62,0.1933,4.0381,2.1387,1.2056,0.1382,0.8511,-0.1439,2.6533,1.6322,3.4326,0.3759,-0.4867,-0.2036,-0.0398,-0.0698
5.62,0.1933,4.0381,2.1387,1.2056,0.1382,0.8511,-0.1439,2.6533,1.6322,3.4326,0.3759,-0.4867,-0.2036,-0.0398,-0.0698
5.6282,0.1904,4.0539,2.1331,1.2382,0.1227,0.8689,-0.1379,2.6636,1.6247,3.4487,0.3736,-0.4977,-0.2064,-0.0349,-0.0548
5.6282,0.1904,4.0539,2.1331,1.2382,0.1227,0.8689,-0.1379,2.6636,1.6247,3.4487,0.3736,-0.4977,-0.2064,-0.0349,-0.0548
5.6234,0.1884,4.0592,2.1312,1.2358,0.1156,0.868,-0.1302,2.6641,1.6091,3.439,0.3737,-0.5475,-0.2086,-0.0375,-0.0455
5.6234,0.1884,4.0592,2.1312,1.2358,0.1156,0.868,-0.1302,2.6641,1.6091,3.439,0.3737,-0.5475,-0.2086,-0.0375,-0.0455
5.6137,0.1846,4.0563,2.1297,1.2141,0.1154,0.868,-0.1302,2.6545,1.5933,3.4355,0.3648,-0.5971,-0.2108,-0.0546,-0.0374
5.6088,0.1827,4.0616,2.1278,1.1851,0.1257,0.8657,-0.1269,2.6418,1.5672,3.4317,0.3493,-0.6742,-0.2098,-0.0691,-0.0385
5.6088,0.1827,4.0616,2.1278,1.1851,0.1257,0.8657,-0.1269,2.6418,1.5672,3.4317,0.3493,-0.6742,-0.2098,-0.0691,-0.0385
5.6088,0.1827,4.0616,2.1278,1.1851,0.1257,0.8657,-0.1269,2.6418,1.5672,3.4317,0.3493,-0.6742,-0.2098,-0.0691,-0.0385
5.6055,0.1875,4.0645,2.1293,1.1417,0.1568,0.8729,-0.1245,2.6253,1.5538,3.4407,0.3293,-0.7234,-0.2121,-0.0797,-0.0452
5.6055,0.1875,4.0645,2.1293,1.1417,0.1568,0.8729,-0.1245,2.6253,1.5538,3.4407,0.3293,-0.7234,-0.2121,-0.0797,-0.0452
5.6055,0.1875,4.0698,2.1274,1.0753,0.2,0.8706,-0.1212,2.6221,1.5512,3.463,0.3181,-0.7523,-0.1888,-0.0721,-0.0563
5.6055,0.1875,4.0698,2.1274,1.0753,0.2,0.8706,-0.1212,2.6221,1.5512,3.463,0.3181,-0.7523,-0.1888,-0.0721,-0.0563
5.6055,0.1875,4.0698,2.1274,1.0753,0.2,0.8706,-0.1212,2.6221,1.5512,3.463,0.3181,-0.7523,-0.1888,-0.0721,-0.0563
5.6185,0.1865,4.0757,2.1305,1.0343,0.2383,0.8706,-0.1212,2.6186,1.5562,3.4728,0.318,-0.7415,-0.186,-0.0613,-0.0664
5.6301,0.1788,4.0834,2.1252,0.9849,0.2677,0.8635,-0.1236,2.6251,1.5616,3.4858,0.3201,-0.7139,-0.1892,-0.0492,-0.0727
5.6301,0.1788,4.0834,2.1252,0.9849,0.2677,0.8635,-0.1236,2.6251,1.5616,3.4858,0.3201,-0.7139,-0.1892,-0.0492,-0.0727
5.6465,0.173,4.084,2.1302,0.9548,0.2903,0.8563,-0.1261,2.6385,1.5645,3.483,0.3312,-0.6971,-0.1952,-0.0422,-0.0773
5.6465,0.173,4.084,2.1302,0.9548,0.2903,0.8563,-0.1261,2.6385,1.5645,3.483,0.3312,-0.6971,-0.1952,-0.0422,-0.0773
5.6696,0.1576,4.084,2.1302,0.926,0.3004,0.8397,-0.1276,2.6418,1.5672,3.4768,0.3401,-0.6911,-0.2039,-0.0485,-0.0792
5.6696,0.1576,4.084,2.1302,0.926,0.3004,0.8397,-0.1276,2.6418,1.5672,3.4768,0.3401,-0.6911,-0.2039,-0.0485,-0.0792
5.7024,0.146,4.0851,2.14,0.9083,0.2948,0.8254,-0.1324,2.6554,1.5624,3.4642,0.3513,-0.6851,-0.2125,-0.0529,-0.0839
5.7024,0.146,4.0851,2.14,0.9083,0.2948,0.8254,-0.1324,2.6554,1.5624,3.4642,0.3513,-0.6851,-0.2125,-0.0529,-0.0839
5.7024,0.146,4.0851,2.14,0.9083,0.2948,0.8254,-0.1324,2.6554,1.5624,3.4642,0.3513,-0.6851,-0.2125,-0.0529,-0.0839
5.7173,0.1335,4.078,2.1503,0.9015,0.2734,0.817,-0.1393,2.6521,1.5597,3.4452,0.3648,-0.7067,-0.218,-0.0674,-0.0851
5.7173,0.1335,4.078,2.1503,0.9015,0.2734,0.817,-0.1393,2.6521,1.5597,3.4452,0.3648,-0.7067,-0.218,-0.0674,-0.0851
5.7173,0.1335,4.078,2.1503,0.9015,0.2734,0.817,-0.1393,2.6521,1.5597,3.4452,0.3648,-0.7067,-0.218,-0.0674,-0.0851
5.6829,0.1384,4.0609,2.1692,0.8856,0.2236,0.7943,-0.151,2.6289,1.5488,3.4101,0.3805,-0.8047,-0.2227,-0.0968,-0.0975
5.6829,0.1384,4.0609,2.1692,0.8856,0.2236,0.7943,-0.151,2.6289,1.5488,3.4101,0.3805,-0.8047,-0.2227,-0.0968,-0.0975
5.6385,0.1577,4.0503,2.173,0.8729,0.2005,0.7868,-0.1655,2.6052,1.5533,3.3971,0.3784,-0.8475,-0.2336,-0.1237,-0.1026
5.6385,0.1577,4.0503,2.173,0.8729,0.2005,0.7868,-0.1655,2.6052,1.5533,3.3971,0.3784,-0.8475,-0.2336,-0.1237,-0.1026
5.5991,0.1789,4.0397,2.1767,0.8493,0.1931,0.7713,-0.1748,2.5884,1.5555,3.403,0.3628,-0.8355,-0.2509,-0.1544,-0.1021
5.5991,0.1789,4.0397,2.1767,0.8493,0.1931,0.7713,-0.1748,2.5884,1.5555,3.403,0.3628,-0.8355,-0.2509,-0.1544,-0.1021
5.5615,0.1885,4.0261,2.1789,0.833,0.1753,0.7304,-0.1726,2.558,1.5624,3.3993,0.3473,-0.8283,-0.2795,-0.1882,-0.1026
5.5615,0.1885,4.0261,2.1789,0.833,0.1753,0.7304,-0.1726,2.558,1.5624,3.3993,0.3473,-0.8283,-0.2795,-0.1882,-0.1026
5.534,0.1837,4.0232,2.1774,0.8073,0.1608,0.6699,-0.161,2.5379,1.5618,3.4019,0.3296,-0.8377,-0.3021,-0.223,-0.1069
5.5051,0.1723,4.0274,2.1656,0.7605,0.1461,0.6049,-0.1552,2.5114,1.556,3.3982,0.3142,-0.8969,-0.3071,-0.264,-0.1131
5.5051,0.1723,4.0274,2.1656,0.7605,0.1461,0.6049,-0.1552,2.5114,1.556,3.3982,0.3142,-0.8969,-0.3071,-0.264,-0.1131
5.5051,0.1723,4.0274,2.1656,0.7605,0.1461,0.6049,-0.1552,2.5114,1.556,3.3982,0.3142,-0.8969,-0.3071,-0.264,-0.1131
5.4632,0.1617,4.0315,2.1538,0.6986,0.1328,0.5354,-0.155,2.4779,1.5602,3.4041,0.2987,-0.9453,-0.3093,-0.2968,-0.1201
5.4632,0.1617,4.0315,2.1538,0.6986,0.1328,0.5354,-0.155,2.4779,1.5602,3.4041,0.2987,-0.9453,-0.3093,-0.2968,-0.1201
5.4473,0.1493,4.0445,2.1467,0.6602,0.1269,0.4868,-0.1598,2.4614,1.5546,3.41,0.2833,-1.0219,-0.2888,-0.3345,-0.1253
5.4473,0.1493,4.0445,2.1467,0.6602,0.1269,0.4868,-0.1598,2.4614,1.5546,3.41,0.2833,-1.0219,-0.2888,-0.3345,-0.1253
5.4473,0.1493,4.0445,2.1467,0.6602,0.1269,0.4868,-0.1598,2.4614,1.5546,3.41,0.2833,-1.0219,-0.2888,-0.3345,-0.1253
5.4525,0.1331,4.0416,2.1451,0.6219,0.121,0.4463,-0.1698,2.4517,1.5466,3.4095,0.2701,-1.0982,-0.2683,-0.377,-0.1288
5.4525,0.1331,4.0416,2.1451,0.6219,0.121,0.4463,-0.1698,2.4517,1.5466,3.4095,0.2701,-1.0982,-0.2683,-0.377,-0.1288
5.4477,0.1312,4.0091,2.1746,0.5765,0.1254,0.3897,-0.1935,2.4794,1.5141,3.3897,0.2571,-1.2381,-0.2446,-0.4469,-0.1411
5.4477,0.1312,4.0091,2.1746,0.5765,0.1254,0.3897,-0.1935,2.4794,1.5141,3.3897,0.2571,-1.2381,-0.2446,-0.4469,-0.1411
5.4477,0.1312,4.0091,2.1746,0.5765,0.1254,0.3897,-0.1935,2.4794,1.5141,3.3897,0.2571,-1.2381,-0.2446,-0.4469,-0.1411
5.4396,0.1341,3.9814,2.1973,0.573,0.1305,0.3724,-0.1995,2.4863,1.504,3.3737,0.2594,-1.2588,-0.2501,-0.4603,-0.1487
5.4396,0.1341,3.9814,2.1973,0.573,0.1305,0.3724,-0.1995,2.4863,1.504,3.3737,0.2594,-1.2588,-0.2501,-0.4603,-0.1487
5.4396,0.1341,3.9814,2.1973,0.573,0.1305,0.3724,-0.1995,2.4863,1.504,3.3737,0.2594,-1.2588,-0.2501,-0.4603,-0.1487
5.4425,0.1474,3.9585,2.2131,0.5947,0.1501,0.3907,-0.2011,2.4826,1.5167,3.3709,0.2704,-1.2381,-0.2446,-0.4425,-0.1529
5.4425,0.1474,3.9585,2.2131,0.5947,0.1501,0.3907,-0.2011,2.4826,1.5167,3.3709,0.2704,-1.2381,-0.2446,-0.4425,-0.1529
5.4714,0.1589,3.9566,2.2215,0.6619,0.1653,0.432,-0.1987,2.4881,1.5528,3.3904,0.2768,-1.1369,-0.2481,-0.3952,-0.1512
5.5051,0.1723,3.973,2.2209,0.7636,0.1723,0.493,-0.1936,2.4966,1.5993,3.4232,0.292,-1.0035,-0.2435,-0.3343,-0.1419
5.5051,0.1723,3.973,2.2209,0.7636,0.1723,0.493,-0.1936,2.4966,1.5993,3.4232,0.292,-1.0035,-0.2435,-0.3343,-0.1419
5.5552,0.1799,4.0035,2.223,0.885,0.1726,0.5683,-0.1837,2.5259,1.6234,3.4656,0.3004,-0.8628,-0.2477,-0.2769,-0.1271
5.6006,0.1856,4.0424,2.2248,0.9859,0.1724,0.6405,-0.1751,2.5522,1.6371,3.5048,0.3067,-0.7365,-0.2663,-0.2261,-0.1079
5.6006,0.1856,4.0424,2.2248,0.9859,0.1724,0.6405,-0.1751,2.5522,1.6371,3.5048,0.3067,-0.7365,-0.2663,-0.2261,-0.1079
5.6006,0.1856,4.0424,2.2248,0.9859,0.1724,0.6405,-0.1751,2.5522,1.6371,3.5048,0.3067,-0.7365,-0.2663,-0.2261,-0.1079
5.6364,0.1875,4.0866,2.2247,1.0623,0.1769,0.7072,-0.1644,2.5824,1.638,3.5536,0.3063,-0.6598,-0.2673,-0.1752,-0.0885
5.6364,0.1875,4.0866,2.2247,1.0623,0.1769,0.7072,-0.1644,2.5824,1.638,3.5536,0.3063,-0.6598,-0.2673,-0.1752,-0.0885
5.6724,0.1893,4.1233,2.23,1.1115,0.1794,0.7613,-0.1541,2.6131,1.6233,3.599,0.297,-0.6093,-0.2852,-0.1397,-0.0741
5.6724,0.1893,4.1233,2.23,1.1115,0.1794,0.7613,-0.1541,2.6131,1.6233,3.599,0.297,-0.6093,-0.2852,-0.1397,-0.0741
5.687,0.1951,4.1594,2.2302,1.1222,0.1954,0.8027,-0.1441,2.6338,1.6083,3.6509,0.2854,-0.6093,-0.2852,-0.1104,-0.0615
5.687,0.1951,4.1594,2.2302,1.1222,0.1954,0.8027,-0.1441,2.6338,1.6083,3.6509,0.2854,-0.6093,-0.2852,-0.1104,-0.0615
5.71,0.1979,4.1879,2.2357,1.1196,0.2201,0.8501,-0.1362,2.6575,1.6038,3.7224,0.2668,-0.6213,-0.2678,-0.067,-0.0581
5.71,0.1979,4.1879,2.2357,1.1196,0.2201,0.8501,-0.1362,2.6575,1.6038,3.7224,0.2668,-0.6213,-0.2678,-0.067,-0.0581
5.7412,0.1978,4.2034,2.2485,1.1193,0.252,0.8859,-0.1242,2.6879,1.6046,3.7718,0.2662,-0.5838,-0.2483,-0.0153,-0.0555
5.7412,0.1978,4.2034,2.2485,1.1193,0.252,0.8859,-0.1242,2.6879,1.6046,3.7718,0.2662,-0.5838,-0.2483,-0.0153,-0.0555
5.7412,0.1978,4.2034,2.2485,1.1193,0.252,0.8859,-0.1242,2.6879,1.6046,3.7718,0.2662,-0.5838,-0.2483,-0.0153,-0.0555
5.7758,0.1929,4.2206,2.2528,1.1034,0.2856,0.9146,-0.1145,2.7183,1.6053,3.805,0.268,-0.5971,-0.2108,0.022,-0.054
5.7758,0.1929,4.2206,2.2528,1.1034,0.2856,0.9146,-0.1145,2.7183,1.6053,3.805,0.268,-0.5971,-0.2108,0.022,-0.054
5.8071,0.1928,4.2301,2.2625,1.102,0.298,0.9362,-0.1073,2.742,1.6085,3.8121,0.279,-0.5874,-0.1878,0.0531,-0.0545
5.8071,0.1928,4.2301,2.2625,1.102,0.298,0.9362,-0.1073,2.742,1.6085,3.8121,0.279,-0.5874,-0.1878,0.0531,-0.0545
5.8353,0.1791,4.2205,2.2763,1.0864,0.2996,0.9457,-0.1082,2.759,1.6064,3.8031,0.2991,-0.5826,-0.1764,0.0696,-0.0561
5.8553,0.1684,4.2109,2.2902,1.0877,0.2871,0.9529,-0.1057,2.776,1.6042,3.7844,0.326,-0.5656,-0.1824,0.0779,-0.057
5.8503,0.1665,4.2056,2.2921,1.0831,0.2728,0.967,-0.1132,2.7829,1.6018,3.7657,0.3529,-0.5765,-0.1851,0.0779,-0.057
5.8503,0.1665,4.2056,2.2921,1.0831,0.2728,0.967,-0.1132,2.7829,1.6018,3.7657,0.3529,-0.5765,-0.1851,0.0779,-0.057
5.8503,0.1665,4.2056,2.2921,1.0831,0.2728,0.967,-0.1132,2.7829,1.6018,3.7657,0.3529,-0.5765,-0.1851,0.0779,-0.057
5.8288,0.1705,4.2109,2.2902,1.0747,0.2638,0.9869,-0.1227,2.7864,1.5967,3.7499,0.3687,-0.5814,-0.1966,0.0849,-0.0615
5.8288,0.1705,4.2109,2.2902,1.0747,0.2638,0.9869,-0.1227,2.7864,1.5967,3.7499,0.3687,-0.5814,-0.1966,0.0849,-0.0615
5.804,0.1793,4.2163,2.2883,1.0821,0.2533,1.0032,-0.1334,2.7864,1.5967,3.7499,0.3687,-0.5923,-0.1993,0.09,-0.0633
5.804,0.1793,4.2163,2.2883,1.0821,0.2533,1.0032,-0.1334,2.7864,1.5967,3.7499,0.3687,-0.5923,-0.1993,0.09,-0.0633
5.804,0.1793,4.2163,2.2883,1.0821,0.2533,1.0032,-0.1334,2.7864,1.5967,3.7499,0.3687,-0.5923,-0.1993,0.09,-0.0633
5.7492,0.2132,4.23,2.286,1.087,0.2356,0.9983,-0.1391,2.7827,1.6096,3.7884,0.3415,-0.5014,-0.238,0.0869,-0.0643
5.7492,0.2132,4.23,2.286,1.087,0.2356,0.9983,-0.1391,2.7827,1.6096,3.7884,0.3415,-0.5014,-0.238,0.0869,-0.0643
5.7293,0.2239,4.236,2.2892,1.0847,0.2285,0.977,-0.1341,2.7791,1.6147,3.8077,0.3279,-0.4273,-0.2708,0.0805,-0.0663
5.7293,0.2239,4.236,2.2892,1.0847,0.2285,0.977,-0.1341,2.7791,1.6147,3.8077,0.3279,-0.4273,-0.2708,0.0805,-0.0663
5.7293,0.2239,4.236,2.2892,1.0847,0.2285,0.977,-0.1341,2.7791,1.6147,3.8077,0.3279,-0.4273,-0.2708,0.0805,-0.0663
5.7161,0.2249,4.239,2.2907,1.0668,0.2229,0.9417,-0.1216,2.7689,1.6144,3.8137,0.3123,-0.3691,-0.3176,0.0647,-0.0711
5.7161,0.2249,4.239,2.2907,1.0668,0.2229,0.9417,-0.1216,2.7689,1.6144,3.8137,0.3123,-0.3691,-0.3176,0.0647,-0.0711
5.7048,0.2143,4.2312,2.2961,1.0273,0.217,0.9052,-0.1137,2.7656,1.6117,3.8295,0.2965,-0.3279,-0.3584,0.0437,-0.0742
5.7048,0.2143,4.2312,2.2961,1.0273,0.217,0.9052,-0.1137,2.7656,1.6117,3.8295,0.2965,-0.3279,-0.3584,0.0437,-0.0742
5.7017,0.2008,4.2258,2.298,0.9843,0.2164,0.8651,-0.1069,2.7625,1.6013,3.8354,0.2809,-0.355,-0.375,0.0209,-0.0745
5.6888,0.1835,4.2228,2.2964,0.9392,0.2086,0.818,-0.1027,2.7524,1.601,3.8416,0.2719,-0.4051,-0.3769,-0.0069,-0.073
5.6888,0.1835,4.2228,2.2964,0.9392,0.2086,0.818,-0.1027,2.7524,1.601,3.8416,0.2719,-0.4051,-0.3769,-0.0069,-0.073
5.6629,0.1672,4.2247,2.2879,0.8883,0.199,0.772,-0.1062,2.7455,1.6034,3.8612,0.265,-0.479,-0.3443,-0.0246,-0.0752
5.6629,0.1672,4.2247,2.2879,0.8883,0.199,0.772,-0.1062,2.7455,1.6034,3.8612,0.265,-0.479,-0.3443,-0.0246,-0.0752
5.6516,0.1567,4.2271,2.2845,0.8552,0.1949,0.7436,-0.1158,2.7455,1.6034,3.8743,0.2604,-0.6213,-0.2678,-0.0454,-0.0782
5.6516,0.1567,4.2271,2.2845,0.8552,0.1949,0.7436,-0.1158,2.7455,1.6034,3.8743,0.2604,-0.6213,-0.2678,-0.0454,-0.0782
5.6516,0.1567,4.2271,2.2845,0.8552,0.1949,0.7436,-0.1158,2.7455,1.6034,3.8743,0.2604,-0.6213,-0.2678,-0.0454,-0.0782
5.6516,0.1567,4.2271,2.2845,0.8552,0.1949,0.7436,-0.1158,2.7455,1.6034,3.8743,0.2604,-0.6213,-0.2678,-0.0454,-0.0782
5.6418,0.1529,4.2163,2.2883,0.8376,0.1894,0.7188,-0.1243,2.7559,1.5959,3.887,0.2491,-0.7402,-0.2062,-0.0743,-0.0805
5.6418,0.1529,4.2163,2.2883,0.8376,0.1894,0.7188,-0.1243,2.7559,1.5959,3.887,0.2491,-0.7402,-0.2062,-0.0743,-0.0805
5.6452,0.1481,4.2061,2.2971,0.8186,0.1961,0.7056,-0.1368,2.7833,1.5862,3.887,0.2491,-0.83,-0.1679,-0.0931,-0.0864
5.6436,0.1414,4.1852,2.3097,0.8068,0.1924,0.6866,-0.1473,2.7937,1.5787,3.8933,0.2402,-0.8848,-0.1616,-0.117,-0.0904
5.6436,0.1414,4.1852,2.3097,0.8068,0.1924,0.6866,-0.1473,2.7937,1.5787,3.8933,0.2402,-0.8848,-0.1616,-0.117,-0.0904
5.6421,0.1347,4.1624,2.3309,0.7857,0.192,0.6677,-0.1578,2.7939,1.5709,3.8898,0.238,-0.9168,-0.17,-0.1388,-0.0972
5.6421,0.1347,4.1624,2.3309,0.7857,0.192,0.6677,-0.1578,2.7939,1.5709,3.8898,0.238,-0.9168,-0.17,-0.1388,-0.0972
5.6357,0.1261,4.1337,2.3489,0.7528,0.1879,0.6453,-0.1694,2.7736,1.5704,3.8895,0.2314,-0.9473,-0.1984,-0.1607,-0.1041
5.6357,0.1261,4.1337,2.3489,0.7528,0.1879,0.6453,-0.1694,2.7736,1.5704,3.8895,0.2314,-0.9473,-0.1984,-0.1607,-0.1041
5.626,0.1223,4.1182,2.3596,0.7259,0.1857,0.6229,-0.181,2.7461,1.5801,3.886,0.2292,-0.9731,-0.2153,-0.1724,-0.1144
5.626,0.1223,4.1182,2.3596,0.7259,0.1857,0.6229,-0.181,2.7461,1.5801,3.886,0.2292,-0.9731,-0.2153,-0.1724,-0.1144
5.6129,0.1233,4.1021,2.3653,0.7084,0.1801,0.5868,-0.1854,2.7084,1.5973,3.8857,0.2226,-0.9929,-0.2408,-0.1854,-0.1285
5.6129,0.1233,4.1021,2.3653,0.7084,0.1801,0.5868,-0.1854,2.7084,1.5973,3.8857,0.2226,-0.9929,-0.2408,-0.1854,-0.1285
5.5884,0.132,4.1015,2.3602,0.6815,0.1778,0.5451,-0.1877,2.6604,1.622,3.8819,0.2138,-1.0351,-0.2518,-0.2134,-0.1372
5.5884,0.132,4.1015,2.3602,0.6815,0.1778,0.5451,-0.1877,2.6604,1.622,3.8819,0.2138,-1.0351,-0.2518,-0.2134,-0.1372
5.5672,0.1358,4.0927,2.3555,0.6807,0.1586,0.5057,-0.1932,2.626,1.6418,3.8847,0.2027,-1.0608,-0.2686,-0.2531,-0.1396
5.5461,0.1397,4.0839,2.3508,0.6798,0.1394,0.4619,-0.1923,2.5955,1.6488,3.8778,0.1984,-1.0923,-0.2768,-0.2997,-0.1376
5.5461,0.1397,4.0839,2.3508,0.6798,0.1394,0.4619,-0.1923,2.5955,1.6488,3.8778,0.1984,-1.0923,-0.2768,-0.2997,-0.1376
5.5461,0.1397,4.0839,2.3508,0.6798,0.1394,0.4619,-0.1923,2.5955,1.6488,3.8778,0.1984,-1.0923,-0.2768,-0.2997,-0.1376
5.5283,0.1388,4.0697,2.3479,0.666,0.1288,0.4206,-0.1947,2.5723,1.6377,3.8706,0.1875,-1.1178,-0.2935,-0.3617,-0.124
5.5283,0.1388,4.0697,2.3479,0.666,0.1288,0.4206,-0.1947,2.5723,1.6377,3.8706,0.1875,-1.1178,-0.2935,-0.3617,-0.124
5.509,0.1312,4.0603,2.3382,0.6464,0.1162,0.3815,-0.2003,2.5495,1.6189,3.8726,0.1633,-1.1805,-0.31,-0.4178,-0.1185
5.509,0.1312,4.0603,2.3382,0.6464,0.1162,0.3815,-0.2003,2.5495,1.6189,3.8726,0.1633,-1.1805,-0.31,-0.4178,-0.1185
5.5042,0.1293,4.0515,2.3334,0.6357,0.1317,0.3712,-0.2039,2.5502,1.5957,3.8815,0.1434,-1.1954,-0.3239,-0.4517,-0.1127
5.5042,0.1293,4.0515,2.3334,0.6357,0.1317,0.3712,-0.2039,2.5502,1.5957,3.8815,0.1434,-1.1954,-0.3239,-0.4517,-0.1127
5.5204,0.1235,4.0587,2.3231,0.6445,0.1597,0.385,-0.1991,2.5738,1.5912,3.9241,0.1318,-1.1537,-0.313,-0.4376,-0.1115
5.5204,0.1235,4.0587,2.3231,0.6445,0.1597,0.385,-0.1991,2.5738,1.5912,3.9241,0.1318,-1.1537,-0.313,-0.4376,-0.1115
5.5642,0.1225,4.0747,2.3174,0.6766,0.1953,0.4275,-0.1923,2.6343,1.5928,3.9744,0.1374,-1.0489,-0.2857,-0.3891,-0.106
5.5642,0.1225,4.0747,2.3174,0.6766,0.1953,0.4275,-0.1923,2.6343,1.5928,3.9744,0.1374,-1.0489,-0.2857,-0.3891,-0.106
5.5642,0.1225,4.0747,2.3174,0.6766,0.1953,0.4275,-0.1923,2.6343,1.5928,3.9744,0.1374,-1.0489,-0.2857,-0.3891,-0.106
5.626,0.1223,4.1049,2.3146,0.7298,0.2314,0.4955,-0.1848,2.7051,1.5946,4.0349,0.1429,-0.9386,-0.247,-0.3162,-0.1029
5.626,0.1223,4.1049,2.3146,0.7298,0.2314,0.4955,-0.1848,2.7051,1.5946,4.0349,0.1429,-0.9386,-0.247,-0.3162,-0.1029
5.6962,0.1192,4.1298,2.3136,0.7657,0.262,0.5546,-0.1764,2.776,1.6042,4.0798,0.1641,-0.8381,-0.2108,-0.2418,-0.0961
5.6962,0.1192,4.1298,2.3136,0.7657,0.262,0.5546,-0.1764,2.776,1.6042,4.0798,0.1641,-0.8381,-0.2108,-0.2418,-0.0961
5.6962,0.1192,4.1298,2.3136,0.7657,0.262,0.5546,-0.1764,2.776,1.6042,4.0798,0.1641,-0.8381,-0.2108,-0.2418,-0.0961
5.8608,0.0973,4.1791,2.3302,0.8538,0.2902,0.6699,-0.161,2.8779,1.6223,4.1466,0.2116,-0.6828,-0.1607,-0.1133,-0.0792
5.8608,0.0973,4.1791,2.3302,0.8538,0.2902,0.6699,-0.161,2.8779,1.6223,4.1466,0.2116,-0.6828,-0.1607,-0.1133,-0.0792
5.8608,0.0973,4.1791,2.3302,0.8538,0.2902,0.6699,-0.161,2.8779,1.6223,4.1466,0.2116,-0.6828,-0.1607,-0.1133,-0.0792
5.9221,0.0902,4.2053,2.3393,0.8964,0.291,0.7226,-0.1551,2.9119,1.6335,4.1751,0.2355,-0.6395,-0.1497,-0.0606,-0.0729
5.9221,0.0902,4.2053,2.3393,0.8964,0.291,0.7226,-0.1551,2.9119,1.6335,4.1751,0.2355,-0.6395,-0.1497,-0.0606,-0.0729
5.9537,0.0899,4.2261,2.3504,0.9333,0.2899,0.772,-0.1505,2.9495,1.6397,4.197,0.2618,-0.596,-0.1386,-0.0139,-0.0685
5.9537,0.0899,4.2261,2.3504,0.9333,0.2899,0.772,-0.1505,2.9495,1.6397,4.197,0.2618,-0.596,-0.1386,-0.0139,-0.0685
5.9537,0.0899,4.2261,2.3504,0.9333,0.2899,0.772,-0.1505,2.9495,1.6397,4.197,0.2618,-0.596,-0.1386,-0.0139,-0.0685
5.9586,0.1101,4.2535,2.3696,1.0124,0.2699,0.8735,-0.1445,2.9799,1.6639,4.25,0.2944,-0.5415,-0.1247,0.0633,-0.0581
5.9586,0.1101,4.2535,2.3696,1.0124,0.2699,0.8735,-0.1445,2.9799,1.6639,4.25,0.2944,-0.5415,-0.1247,0.0633,-0.0581
5.9319,0.1304,4.2649,2.3709,1.016,0.2647,0.9113,-0.1479,2.9864,1.6772,4.2771,0.2917,-0.5415,-0.1247,0.0893,-0.0568
5.9319,0.1304,4.2649,2.3709,1.016,0.2647,0.9113,-0.1479,2.9864,1.6772,4.2771,0.2917,-0.5415,-0.1247,0.0893,-0.0568
5.8951,0.1653,4.2709,2.3741,1.0197,0.2594,0.9396,-0.1506,2.9932,1.6826,4.3035,0.2755,-0.5183,-0.1395,0.1008,-0.0567
5.8951,0.1653,4.2709,2.3741,1.0197,0.2594,0.9396,-0.1506,2.9932,1.6826,4.3035,0.2755,-0.5183,-0.1395,0.1008,-0.0567
5.8601,0.1887,4.2739,2.3756,1.027,0.2489,0.9374,-0.1473,3.0002,1.6802,4.3232,0.2617,-0.444,-0.1724,0.1072,-0.0547
5.8601,0.1887,4.2739,2.3756,1.027,0.2489,0.9374,-0.1473,3.0002,1.6802,4.3232,0.2617,-0.444,-0.1724,0.1072,-0.0547
5.8385,0.1926,4.266,2.3811,1.0246,0.2417,0.9234,-0.1399,3.0004,1.6723,4.3358,0.2436,-0.3976,-0.2021,0.1059,-0.0585
5.8385,0.1926,4.266,2.3811,1.0246,0.2417,0.9234,-0.1399,3.0004,1.6723,4.3358,0.2436,-0.3976,-0.2021,0.1059,-0.0585
5.812,0.1947,4.2654,2.376,1.026,0.2294,0.9035,-0.1304,3.0074,1.6698,4.3555,0.2298,-0.3341,-0.2378,0.1091,-0.0575
5.812,0.1947,4.2654,2.376,1.026,0.2294,0.9035,-0.1304,3.0074,1.6698,4.3555,0.2298,-0.3341,-0.2378,0.1091,-0.0575
5.8006,0.1841,4.2625,2.3744,1.0237,0.2223,0.8755,-0.1155,3.0213,1.6649,4.3752,0.216,-0.2704,-0.2735,0.1091,-0.0575
5.8006,0.1841,4.2625,2.3744,1.0237,0.2223,0.8755,-0.1155,3.0213,1.6649,4.3752,0.216,-0.2704,-0.2735,0.1091,-0.0575
5.7843,0.1716,4.2595,2.3728,1.025,0.2099,0.8544,-0.1106,3.0353,1.66,4.3984,0.2043,-0.2471,-0.2883,0.1021,-0.0529
5.7843,0.1716,4.2595,2.3728,1.025,0.2099,0.8544,-0.1106,3.0353,1.66,4.3984,0.2043,-0.2471,-0.2883,0.1021,-0.0529
5.7843,0.1716,4.2595,2.3728,1.025,0.2099,0.8544,-0.1106,3.0353,1.66,4.3984,0.2043,-0.2471,-0.2883,0.1021,-0.0529
5.7762,0.1563,4.2589,2.3677,1.0071,0.2044,0.8333,-0.1056,3.0353,1.66,4.415,0.195,-0.2694,-0.2936,0.0938,-0.0521
5.7762,0.1563,4.2589,2.3677,1.0071,0.2044,0.8333,-0.1056,3.0353,1.66,4.415,0.195,-0.2694,-0.2936,0.0938,-0.0521
5.7599,0.1439,4.2638,2.3608,0.9738,0.2003,0.8109,-0.1051,3.0388,1.6548,4.4316,0.1858,-0.3491,-0.2721,0.0804,-0.0495
5.7436,0.1314,4.2794,2.35,0.9441,0.1911,0.7872,-0.1091,3.0319,1.6573,4.4379,0.1767,-0.4405,-0.2332,0.0709,-0.0524
5.742,0.1248,4.2956,2.3442,0.906,0.2046,0.7811,-0.1192,3.0424,1.6496,4.441,0.1722,-0.5377,-0.1856,0.0531,-0.0545
5.742,0.1248,4.2956,2.3442,0.906,0.2046,0.7811,-0.1192,3.0424,1.6496,4.441,0.1722,-0.5377,-0.1856,0.0531,-0.0545
5.7371,0.1229,4.2992,2.3509,0.8833,0.2165,0.7762,-0.1249,3.0562,1.6526,4.4513,0.172,-0.619,-0.1238,0.0385,-0.0556
5.7371,0.1229,4.2992,2.3509,0.8833,0.2165,0.7762,-0.1249,3.0562,1.6526,4.4513,0.172,-0.619,-0.1238,0.0385,-0.0556
5.7371,0.1229,4.2992,2.3509,0.8833,0.2165,0.7762,-0.1249,3.0562,1.6526,4.4513,0.172,-0.619,-0.1238,0.0385,-0.0556
5.7552,0.1237,4.295,2.3629,0.8738,0.2199,0.7643,-0.133,3.0877,1.6375,4.4513,0.172,-0.6868,-0.0999,0.0157,-0.0559
5.7552,0.1237,4.295,2.3629,0.8738,0.2199,0.7643,-0.133,3.0877,1.6375,4.4513,0.172,-0.6868,-0.0999,0.0157,-0.0559
5.7552,0.1237,4.295,2.3629,0.8738,0.2199,0.7643,-0.133,3.0877,1.6375,4.4513,0.172,-0.6868,-0.0999,0.0157,-0.0559
5.7552,0.1237,4.275,2.3858,0.8548,0.2266,0.7501,-0.1378,3.1053,1.6274,4.4513,0.172,-0.7253,-0.0995,-0.0032,-0.0618
5.7552,0.1237,4.275,2.3858,0.8548,0.2266,0.7501,-0.1378,3.1053,1.6274,4.4513,0.172,-0.7253,-0.0995,-0.0032,-0.0618
5.7552,0.1237,4.275,2.3858,0.8548,0.2266,0.7501,-0.1378,3.1053,1.6274,4.4513,0.172,-0.7253,-0.0995,-0.0032,-0.0618
5.7569,0.1122,4.2177,2.4272,0.8159,0.2206,0.7156,-0.1575,3.0949,1.6272,4.4576,0.1629,-0.7778,-0.1338,-0.0176,-0.0797
5.7569,0.1122,4.2177,2.4272,0.8159,0.2206,0.7156,-0.1575,3.0949,1.6272,4.4576,0.1629,-0.7778,-0.1338,-0.0176,-0.0797
5.7389,0.1114,4.196,2.4348,0.7888,0.2184,0.7001,-0.1668,3.0705,1.6319,4.4473,0.1632,-0.8039,-0.1508,-0.0213,-0.0909
5.7389,0.1114,4.196,2.4348,0.7888,0.2184,0.7001,-0.1668,3.0705,1.6319,4.4473,0.1632,-0.8039,-0.1508,-0.0213,-0.0909
5.7275,0.1009,4.1739,2.4374,0.769,0.2057,0.6754,-0.1752,3.039,1.6469,4.4504,0.1587,-0.8193,-0.1651,-0.018,-0.1067
5.7275,0.1009,4.1739,2.4374,0.769,0.2057,0.6754,-0.1752,3.039,1.6469,4.4504,0.1587,-0.8193,-0.1651,-0.018,-0.1067
5.7275,0.1009,4.1739,2.4374,0.769,0.2057,0.6754,-0.1752,3.039,1.6469,4.4504,0.1587,-0.8193,-0.1651,-0.018,-0.1067
5.6702,0.1031,4.1497,2.4195,0.7317,0.1875,0.6203,-0.1899,2.997,1.6696,4.4464,0.1499,-0.8287,-0.188,-0.0381,-0.1162
5.6702,0.1031,4.1497,2.4195,0.7317,0.1875,0.6203,-0.1899,2.997,1.6696,4.4464,0.1499,-0.8287,-0.188,-0.0381,-0.1162
5.6556,0.0974,4.1378,2.4132,0.7367,0.1701,0.5865,-0.1974,2.9582,1.7028,4.4459,0.1432,-0.8167,-0.2053,-0.0734,-0.1204
5.6344,0.1013,4.1373,2.4081,0.7416,0.1527,0.554,-0.2006,2.9265,1.7257,4.4351,0.1368,-0.8154,-0.2254,-0.1186,-0.121
5.6344,0.1013,4.1373,2.4081,0.7416,0.1527,0.554,-0.2006,2.9265,1.7257,4.4351,0.1368,-0.8154,-0.2254,-0.1186,-0.121
5.6116,0.0985,4.123,2.4052,0.7313,0.1369,0.5168,-0.2093,2.9018,1.7462,4.4315,0.1347,-0.8034,-0.2427,-0.1586,-0.1234
5.6116,0.0985,4.123,2.4052,0.7313,0.1369,0.5168,-0.2093,2.9018,1.7462,4.4315,0.1347,-0.8034,-0.2427,-0.1586,-0.1234
5.5938,0.0976,4.1147,2.4055,0.7268,0.1228,0.4775,-0.2148,2.8774,1.7587,4.4275,0.1259,-0.8188,-0.2568,-0.2054,-0.1214
5.5938,0.0976,4.1147,2.4055,0.7268,0.1228,0.4775,-0.2148,2.8774,1.7587,4.4275,0.1259,-0.8188,-0.2568,-0.2054,-0.1214
5.5938,0.0976,4.1147,2.4055,0.7268,0.1228,0.4775,-0.2148,2.8774,1.7587,4.4275,0.1259,-0.8188,-0.2568,-0.2054,-0.1214
5.5711,0.0948,4.1034,2.4042,0.72,0.1019,0.4292,-0.2196,2.8638,1.7557,4.4203,0.1217,-0.8509,-0.265,-0.254,-0.1166
5.5517,0.0873,4.0868,2.4049,0.6852,0.0909,0.3867,-0.2263,2.8609,1.7372,4.4096,0.1153,-0.8935,-0.2759,-0.3006,-0.1146
5.5517,0.0873,4.0868,2.4049,0.6852,0.0909,0.3867,-0.2263,2.8609,1.7372,4.4096,0.1153,-0.8935,-0.2759,-0.3006,-0.1146
5.5276,0.0778,4.0726,2.402,0.6633,0.0715,0.3387,-0.231,2.8478,1.7184,4.3984,0.1023,-0.9631,-0.2837,-0.3539,-0.1082
5.5276,0.0778,4.0726,2.402,0.6633,0.0715,0.3387,-0.231,2.8478,1.7184,4.3984,0.1023,-0.9631,-0.2837,-0.3539,-0.1082
5.5002,0.0732,4.0584,2.3991,0.6286,0.0605,0.2943,-0.2346,2.8382,1.6945,4.4005,0.0846,-1.0548,-0.2771,-0.407,-0.1018
5.5002,0.0732,4.0584,2.3991,0.6286,0.0605,0.2943,-0.2346,2.8382,1.6945,4.4005,0.0846,-1.0548,-0.2771,-0.407,-0.1018
5.5002,0.0732,4.0584,2.3991,0.6286,0.0605,0.2943,-0.2346,2.8382,1.6945,4.4005,0.0846,-1.0548,-0.2771,-0.407,-0.1018
5.468,0.0666,4.0413,2.3946,0.5904,0.0547,0.2556,-0.2402,2.8287,1.6707,4.396,0.0693,-1.1296,-0.2765,-0.4532,-0.0999
5.4455,0.0638,4.0247,2.3952,0.5532,0.0679,0.2341,-0.2398,2.8191,1.6469,4.391,0.0474,-1.2144,-0.2787,-0.5041,-0.0963
5.4455,0.0638,4.0247,2.3952,0.5532,0.0679,0.2341,-0.2398,2.8191,1.6469,4.391,0.0474,-1.2144,-0.2787,-0.5041,-0.0963
5.4422,0.0685,4.0165,2.3955,0.5483,0.085,0.2375,-0.2386,2.8129,1.6259,4.3896,0.0277,-1.256,-0.2897,-0.5371,-0.0969
5.4422,0.0685,4.0165,2.3955,0.5483,0.085,0.2375,-0.2386,2.8129,1.6259,4.3896,0.0277,-1.256,-0.2897,-0.5371,-0.0969
5.4662,0.078,4.0247,2.3952,0.5593,0.1199,0.2761,-0.233,2.8302,1.6159,4.4127,0.0162,-1.2411,-0.2757,-0.539,-0.0942
5.4662,0.078,4.0247,2.3952,0.5593,0.1199,0.2761,-0.233,2.8302,1.6159,4.4127,0.0162,-1.2411,-0.2757,-0.539,-0.0942
5.4662,0.078,4.0247,2.3952,0.5593,0.1199,0.2761,-0.233,2.8302,1.6159,4.4127,0.0162,-1.2411,-0.2757,-0.539,-0.0942
5.4662,0.078,4.0247,2.3952,0.5593,0.1199,0.2761,-0.233,2.8302,1.6159,4.4127,0.0162,-1.2411,-0.2757,-0.539,-0.0942
5.5581,0.0958,4.0809,2.4017,0.644,0.1911,0.4018,-0.2171,2.9053,1.6203,4.5414,-0.0091,-1.1114,-0.2313,-0.4588,-0.0917
5.5581,0.0958,4.0809,2.4017,0.644,0.1911,0.4018,-0.2171,2.9053,1.6203,4.5414,-0.0091,-1.1114,-0.2313,-0.4588,-0.0917
5.6165,0.1004,4.1147,2.4055,0.676,0.2268,0.4661,-0.2108,2.9533,1.6267,4.6102,-0.0132,-1.0498,-0.1947,-0.3936,-0.0941
5.6165,0.1004,4.1147,2.4055,0.676,0.2268,0.4661,-0.2108,2.9533,1.6267,4.6102,-0.0132,-1.0498,-0.1947,-0.3936,-0.0941
5.662,0.106,4.1462,2.4128,0.7153,0.2522,0.5238,-0.2069,3.0115,1.6411,4.6836,-0.0087,-0.9606,-0.161,-0.3219,-0.0947
5.662,0.106,4.1462,2.4128,0.7153,0.2522,0.5238,-0.2069,3.0115,1.6411,4.6836,-0.0087,-0.9606,-0.161,-0.3219,-0.0947
5.7077,0.1115,4.1777,2.4202,0.749,0.2758,0.5702,-0.199,3.0666,1.6528,4.7469,-0.0039,-0.8816,-0.13,-0.263,-0.0927
5.7077,0.1115,4.1777,2.4202,0.749,0.2758,0.5702,-0.199,3.0666,1.6528,4.7469,-0.0039,-0.8816,-0.13,-0.263,-0.0927
5.7471,0.1085,4.2033,2.4243,0.7651,0.2938,0.6063,-0.1947,3.1217,1.6724,4.8147,0.0095,-0.7852,-0.1048,-0.2027,-0.0871
5.7471,0.1085,4.2033,2.4243,0.7651,0.2938,0.6063,-0.1947,3.1217,1.6724,4.8147,0.0095,-0.7852,-0.1048,-0.2027,-0.0871
5.7734,0.1064,4.2201,2.4237,0.779,0.3047,0.6411,-0.1948,3.1666,1.6918,4.8716,0.0167,-0.7266,-0.0792,-0.1433,-0.0853
5.7734,0.1064,4.2201,2.4237,0.779,0.3047,0.6411,-0.1948,3.1666,1.6918,4.8716,0.0167,-0.7266,-0.0792,-0.1433,-0.0853
5.8178,0.1052,4.2374,2.4282,0.7989,0.3175,0.6658,-0.1864,3.2084,1.7006,4.9114,0.0265,-0.6725,-0.0651,-0.102,-0.0791
5.8178,0.1052,4.2374,2.4282,0.7989,0.3175,0.6658,-0.1864,3.2084,1.7006,4.9114,0.0265,-0.6725,-0.0651,-0.102,-0.0791
5.8641,0.0925,4.2488,2.4294,0.8179,0.3108,0.6879,-0.1869,3.2538,1.7122,4.9338,0.0391,-0.623,-0.0627,-0.0688,-0.0721
5.8641,0.0925,4.2488,2.4294,0.8179,0.3108,0.6879,-0.1869,3.2538,1.7122,4.9338,0.0391,-0.623,-0.0627,-0.0688,-0.0721
5.8641,0.0925,4.2488,2.4294,0.8179,0.3108,0.6879,-0.1869,3.2538,1.7122,4.9338,0.0391,-0.623,-0.0627,-0.0688,-0.0721
5.8973,0.0808,4.2602,2.4307,0.8383,0.2917,0.6985,-0.1833,3.2924,1.7183,4.9424,0.0566,-0.5842,-0.0631,-0.0436,-0.0643
5.8973,0.0808,4.2602,2.4307,0.8383,0.2917,0.6985,-0.1833,3.2924,1.7183,4.9424,0.0566,-0.5842,-0.0631,-0.0436,-0.0643
5.8973,0.0808,4.2602,2.4307,0.8383,0.2917,0.6985,-0.1833,3.2924,1.7183,4.9424,0.0566,-0.5842,-0.0631,-0.0436,-0.0643
5.8941,0.0674,4.2494,2.4345,0.852,0.2512,0.7136,-0.1862,3.3454,1.7114,4.9172,0.093,-0.572,-0.0807,-0.0228,-0.0612
5.8941,0.0674,4.2494,2.4345,0.852,0.2512,0.7136,-0.1862,3.3454,1.7114,4.9172,0.093,-0.572,-0.0807,-0.0228,-0.0612
5.8941,0.0674,4.2494,2.4345,0.852,0.2512,0.7136,-0.1862,3.3454,1.7114,4.9172,0.093,-0.572,-0.0807,-0.0228,-0.0612
5.8544,0.0706,4.2326,2.4352,0.8416,0.2352,0.7239,-0.1948,3.3633,1.7011,4.9008,0.1091,-0.5707,-0.1011,-0.0127,-0.0647
5.8146,0.0918,4.2296,2.4336,0.8394,0.2281,0.7471,-0.2029,3.3704,1.6986,4.8945,0.1182,-0.5986,-0.0979,-0.0076,-0.0665
5.8146,0.0918,4.2296,2.4336,0.8394,0.2281,0.7471,-0.2029,3.3704,1.6986,4.8945,0.1182,-0.5986,-0.0979,-0.0076,-0.0665
5.775,0.1131,4.2236,2.4304,0.8276,0.2244,0.7609,-0.2103,3.3704,1.6986,4.8977,0.1137,-0.6203,-0.1035,-0.0088,-0.0703
5.7402,0.1363,4.2231,2.4253,0.8217,0.2225,0.7712,-0.2188,3.381,1.6988,4.9077,0.1067,-0.6034,-0.1095,-0.0139,-0.0685
5.7402,0.1363,4.2231,2.4253,0.8217,0.2225,0.7712,-0.2188,3.381,1.6988,4.9077,0.1067,-0.6034,-0.1095,-0.0139,-0.0685
5.7402,0.1363,4.2231,2.4253,0.8217,0.2225,0.7712,-0.2188,3.381,1.6988,4.9077,0.1067,-0.6034,-0.1095,-0.0139,-0.0685
5.7138,0.1565,4.2206,2.4288,0.8195,0.2154,0.7699,-0.2232,3.3809,1.7067,4.9209,0.0951,-0.6034,-0.1095,-0.0171,-0.0695
5.7138,0.1565,4.2206,2.4288,0.8195,0.2154,0.7699,-0.2232,3.3809,1.7067,4.9209,0.0951,-0.6034,-0.1095,-0.0171,-0.0695
5.7138,0.1565,4.2206,2.4288,0.8195,0.2154,0.7699,-0.2232,3.3809,1.7067,4.9209,0.0951,-0.6034,-0.1095,-0.0171,-0.0695
5.6989,0.169,4.2236,2.4304,0.8041,0.2169,0.7512,-0.2215,3.3843,1.7174,4.9479,0.0787,-0.5864,-0.1155,-0.0272,-0.0659
5.6873,0.1768,4.2266,2.432,0.7924,0.2132,0.7267,-0.2177,3.3876,1.7281,4.9648,0.0693,-0.5524,-0.1275,-0.0354,-0.0651
5.6873,0.1768,4.2247,2.4406,0.7902,0.2061,0.6943,-0.2087,3.3946,1.7336,4.9887,0.0574,-0.5122,-0.1483,-0.0506,-0.0597
5.6873,0.1768,4.2247,2.4406,0.7902,0.2061,0.6943,-0.2087,3.3946,1.7336,4.9887,0.0574,-0.5122,-0.1483,-0.0506,-0.0597
5.6873,0.1768,4.2247,2.4406,0.7902,0.2061,0.6943,-0.2087,3.3946,1.7336,4.9887,0.0574,-0.5122,-0.1483,-0.0506,-0.0597
5.6775,0.1729,4.2193,2.4425,0.769,0.2057,0.6629,-0.2074,3.398,1.7443,5.0132,0.0522,-0.4781,-0.1604,-0.0607,-0.0561
5.6775,0.1729,4.2193,2.4425,0.769,0.2057,0.6629,-0.2074,3.398,1.7443,5.0132,0.0522,-0.4781,-0.1604,-0.0607,-0.0561
5.6775,0.1729,4.2193,2.4425,0.769,0.2057,0.6629,-0.2074,3.398,1.7443,5.0132,0.0522,-0.4781,-0.1604,-0.0607,-0.0561
5.6711,0.1643,4.2115,2.4479,0.7551,0.1949,0.6315,-0.206,3.3978,1.7523,5.0339,0.0449,-0.455,-0.1752,-0.079,-0.0517
5.6711,0.1643,4.2115,2.4479,0.7551,0.1949,0.6315,-0.206,3.3978,1.7523,5.0339,0.0449,-0.455,-0.1752,-0.079,-0.0517
5.6711,0.1643,4.2115,2.4479,0.7551,0.1949,0.6315,-0.206,3.3978,1.7523,5.0339,0.0449,-0.455,-0.1752,-0.079,-0.0517
5.6598,0.1538,4.2031,2.4482,0.7281,0.1927,0.5945,-0.2027,3.4048,1.7578,5.0515,0.0421,-0.4318,-0.19,-0.0954,-0.0501
5.6598,0.1538,4.2031,2.4482,0.7281,0.1927,0.5945,-0.2027,3.4048,1.7578,5.0515,0.0421,-0.4318,-0.19,-0.0954,-0.0501
5.6357,0.1261,4.1755,2.4527,0.6909,0.1745,0.5251,-0.2025,3.4012,1.7631,5.0786,0.0257,-0.4246,-0.219,-0.1476,-0.0463
