2.187,-0.334,-0.0299,-0.2917,2.314,0.0032,4.8941,0.6994,2.4193,0.912,1.0351,-0.1973,2.1401,-0.3681,1.651,0.0721
2.187,-0.334,-0.0299,-0.2917,2.314,0.0032,4.8941,0.6994,2.4193,0.912,1.0351,-0.1973,2.1401,-0.3681,1.651,0.0721
1.9152,-0.2937,-0.0221,-0.3583,2.2008,-0.0109,4.7328,0.7564,2.4589,0.9296,1.0365,-0.1709,2.4165,-0.4142,1.7306,0.0799
1.9152,-0.2937,-0.0221,-0.3583,2.2008,-0.0109,4.7328,0.7564,2.4589,0.9296,1.0365,-0.1709,2.4165,-0.4142,1.7306,0.0799
1.8382,-0.3219,0.1187,-0.4505,2.1468,0.0082,4.6077,0.8494,2.648,0.9582,1.1076,-0.1602,2.5625,-0.3274,1.8307,0.0896
1.8382,-0.3219,0.1187,-0.4505,2.1468,0.0082,4.6077,0.8494,2.648,0.9582,1.1076,-0.1602,2.5625,-0.3274,1.8307,0.0896
1.8635,-0.3585,0.1309,-0.4124,2.0764,0.0511,4.5276,0.8777,3.081,0.8693,1.2136,-0.1708,2.5602,-0.2042,1.9314,0.0992
1.8635,-0.3585,0.1309,-0.4124,2.0764,0.0511,4.5276,0.8777,3.081,0.8693,1.2136,-0.1708,2.5602,-0.2042,1.9314,0.0992
1.8635,-0.3585,0.1309,-0.4124,2.0764,0.0511,4.5276,0.8777,3.081,0.8693,1.2136,-0.1708,2.5602,-0.2042,1.9314,0.0992
1.9915,-0.4037,0.1355,-0.3074,2.1678,0.0368,4.643,0.8859,3.2778,0.8964,1.2758,-0.1747,2.5116,-0.1342,2.1357,0.0542
1.9915,-0.4037,0.1355,-0.3074,2.1678,0.0368,4.643,0.8859,3.2778,0.8964,1.2758,-0.1747,2.5116,-0.1342,2.1357,0.0542
1.9915,-0.4037,0.1355,-0.3074,2.1678,0.0368,4.643,0.8859,3.2778,0.8964,1.2758,-0.1747,2.5116,-0.1342,2.1357,0.0542
2.0439,-0.3391,0.108,-0.2118,2.6096,-0.0651,4.7365,0.9267,3.2657,1.2283,1.3398,-0.1523,2.5735,-0.1031,2.3585,0.0484
2.0439,-0.3391,0.108,-0.2118,2.6096,-0.0651,4.7365,0.9267,3.2657,1.2283,1.3398,-0.1523,2.5735,-0.1031,2.3585,0.0484
2.1221,-0.3111,0.1199,-0.1728,2.8703,-0.1391,4.7493,0.9964,3.0376,1.2426,1.3382,-0.1788,2.4339,-0.142,2.246,0.1155
2.1221,-0.3111,0.1199,-0.1728,2.8703,-0.1391,4.7493,0.9964,3.0376,1.2426,1.3382,-0.1788,2.4339,-0.142,2.246,0.1155
2.1221,-0.3111,0.1199,-0.1728,2.8703,-0.1391,4.7493,0.9964,3.0376,1.2426,1.3382,-0.1788,2.4339,-0.142,2.246,0.1155
2.1732,-0.3848,0.108,-0.2118,2.7979,-0.0954,4.6103,1.0208,2.8728,1.1695,1.3894,-0.2239,2.3342,-0.1769,2.1386,0.1443
2.4594,-0.5137,0.1673,-0.2972,2.6922,-0.0035,4.633,0.988,3.0038,1.058,1.4159,-0.2332,2.3502,-0.2001,2.0724,0.1769
2.4594,-0.5137,0.1673,-0.2972,2.6922,-0.0035,4.633,0.988,3.0038,1.058,1.4159,-0.2332,2.3502,-0.2001,2.0724,0.1769
2.84,-0.7035,0.187,-0.3256,2.5646,0.0598,4.6557,0.9552,3.0633,0.9722,1.3993,-0.2094,2.3118,-0.204,2.052,0.1749
2.84,-0.7035,0.187,-0.3256,2.5646,0.0598,4.6557,0.9552,3.0633,0.9722,1.3993,-0.2094,2.3118,-0.204,2.052,0.1749
2.84,-0.7035,0.187,-0.3256,2.5646,0.0598,4.6557,0.9552,3.0633,0.9722,1.3993,-0.2094,2.3118,-0.204,2.052,0.1749
2.9637,-0.6641,0.1673,-0.2972,2.4543,0.0988,5.0032,0.8078,3.0038,1.058,1.3926,-0.1709,2.3342,-0.1769,2.1013,0.1667
2.9637,-0.6641,0.1673,-0.2972,2.4543,0.0988,5.0032,0.8078,3.0038,1.058,1.3926,-0.1709,2.3342,-0.1769,2.1013,0.1667
2.7686,-0.4555,0.1673,-0.2972,2.3612,0.1134,5.1898,0.7173,2.9851,1.1625,1.376,-0.147,2.4662,-0.1885,2.1507,0.1584
2.7686,-0.4555,0.1673,-0.2972,2.3612,0.1134,5.1898,0.7173,2.9851,1.1625,1.376,-0.147,2.4662,-0.1885,2.1507,0.1584
2.5578,-0.2965,0.1673,-0.2972,2.378,0.0893,5.1672,0.7499,3.0265,1.1807,1.3942,-0.1444,2.7818,-0.2825,2.2292,0.1398
2.2402,-0.2688,0.2139,-0.4205,2.2596,0.0224,4.8402,0.8654,2.8837,1.2312,1.4108,-0.1683,2.8375,-0.3022,2.2208,0.1519
2.2402,-0.2688,0.2139,-0.4205,2.2596,0.0224,4.8402,0.8654,2.8837,1.2312,1.4108,-0.1683,2.8375,-0.3022,2.2208,0.1519
2.2402,-0.2688,0.2139,-0.4205,2.2596,0.0224,4.8402,0.8654,2.8837,1.2312,1.4108,-0.1683,2.8375,-0.3022,2.2208,0.1519
2.1221,-0.3111,0.3754,-0.5412,2.1843,0.013,4.5401,0.9468,2.9138,1.1877,1.4274,-0.1922,2.789,-0.2322,2.2002,0.15
2.1221,-0.3111,0.3754,-0.5412,2.1843,0.013,4.5401,0.9468,2.9138,1.1877,1.4274,-0.1922,2.789,-0.2322,2.2002,0.15
2.1221,-0.3111,0.3754,-0.5412,2.1843,0.013,4.5401,0.9468,2.9138,1.1877,1.4274,-0.1922,2.789,-0.2322,2.2002,0.15
2.1594,-0.4354,0.3098,-0.3904,2.1843,0.013,4.1876,1.0223,3.6096,0.8115,1.3745,-0.1736,2.5735,-0.1031,2.1796,0.1481
2.1594,-0.4354,0.3098,-0.3904,2.1843,0.013,4.1876,1.0223,3.6096,0.8115,1.3745,-0.1736,2.5735,-0.1031,2.1796,0.1481
2.1848,-0.472,0.1397,-0.2014,2.1138,0.0559,4.2101,0.9899,3.7854,0.717,1.3662,-0.1616,2.5182,-0.0835,2.2751,0.1053
2.1848,-0.472,0.1397,-0.2014,2.1138,0.0559,4.2101,0.9899,3.7854,0.717,1.3662,-0.1616,2.5182,-0.0835,2.2751,0.1053
2.2891,-0.4812,0.1118,-0.1049,2.1512,0.0607,4.4479,0.9059,3.5928,0.9151,1.3481,-0.1642,2.5344,-0.107,2.4293,0.0416
2.2891,-0.4812,0.1118,-0.1049,2.1512,0.0607,4.4479,0.9059,3.5928,0.9151,1.3481,-0.1642,2.5344,-0.107,2.4293,0.0416
2.2636,-0.4445,-0.0229,-0.079,2.3471,-0.0446,4.5725,0.8131,3.3992,1.1149,1.3217,-0.1549,2.606,-0.1499,2.4669,0.0192
2.1594,-0.4354,-0.046,-0.1574,2.5604,-0.1738,4.4578,0.805,2.9962,1.2243,1.284,-0.1867,2.4662,-0.1885,2.3294,0.0587
2.1594,-0.4354,-0.046,-0.1574,2.5604,-0.1738,4.4578,0.805,2.9962,1.2243,1.284,-0.1867,2.4662,-0.1885,2.3294,0.0587
2.1594,-0.4354,-0.046,-0.1574,2.5604,-0.1738,4.4578,0.805,2.9962,1.2243,1.284,-0.1867,2.4662,-0.1885,2.3294,0.0587
2.134,-0.3987,-0.0262,-0.1859,2.5823,-0.1456,4.515,0.809,2.6102,1.1646,1.2974,-0.2631,2.2734,-0.2078,2.16,0.082
2.134,-0.3987,-0.0262,-0.1859,2.5823,-0.1456,4.515,0.809,2.6102,1.1646,1.2974,-0.2631,2.2734,-0.2078,2.16,0.082
2.1987,-0.4216,0.0842,-0.2893,2.5327,-0.0741,4.4355,0.8371,2.4902,1.1101,1.3221,-0.2987,2.181,-0.1926,2.0699,0.0866
2.1987,-0.4216,0.0842,-0.2893,2.5327,-0.0741,4.4355,0.8371,2.4902,1.1101,1.3221,-0.2987,2.181,-0.1926,2.0699,0.0866
2.3542,-0.5042,0.1039,-0.3176,2.4065,-0.0115,4.4578,0.805,2.5092,1.0073,1.2794,-0.2657,2.0891,-0.1775,2.0578,0.0727
2.3542,-0.5042,0.1039,-0.3176,2.4065,-0.0115,4.4578,0.805,2.5092,1.0073,1.2794,-0.2657,2.0891,-0.1775,2.0578,0.0727
2.4594,-0.5137,0.1552,-0.3358,2.3353,0.0318,4.7774,0.6921,2.5278,0.9053,1.2188,-0.2354,2.0135,-0.1855,2.0255,0.0569
2.3571,-0.3662,0.1355,-0.3074,2.3353,0.0318,5.0198,0.6064,2.5677,0.9229,1.1584,-0.2051,2.105,-0.2005,2.0338,0.0449
2.3571,-0.3662,0.1355,-0.3074,2.3353,0.0318,5.0198,0.6064,2.5677,0.9229,1.1584,-0.2051,2.105,-0.2005,2.0338,0.0449
2.3571,-0.3662,0.1355,-0.3074,2.3353,0.0318,5.0198,0.6064,2.5677,0.9229,1.1584,-0.2051,2.105,-0.2005,2.0338,0.0449
2.3571,-0.3662,0.1355,-0.3074,2.3353,0.0318,5.0198,0.6064,2.5677,0.9229,1.1584,-0.2051,2.105,-0.2005,2.0338,0.0449
2.2264,-0.32,0.1039,-0.3176,2.314,0.0032,4.9752,0.6708,2.5385,0.965,1.1145,-0.1985,2.283,-0.2807,1.9766,0.0651
2.2264,-0.32,0.1039,-0.3176,2.314,0.0032,4.9752,0.6708,2.5385,0.965,1.1145,-0.1985,2.283,-0.2807,1.9766,0.0651
2.2264,-0.32,0.1039,-0.3176,2.314,0.0032,4.9752,0.6708,2.5385,0.965,1.1145,-0.1985,2.283,-0.2807,1.9766,0.0651
2.0811,-0.4629,0.1893,-0.4966,2.105,-0.0487,4.3786,0.833,2.6773,0.916,1.0953,-0.2274,2.2894,-0.2309,1.8792,0.0815
2.1455,-0.4857,0.1698,-0.4686,2.1423,-0.044,4.2996,0.8609,3.0983,0.7673,1.1294,-0.2484,2.2414,-0.1616,1.8709,0.0934
2.1455,-0.4857,0.1698,-0.4686,2.1423,-0.044,4.2996,0.8609,3.0983,0.7673,1.1294,-0.2484,2.2414,-0.1616,1.8709,0.0934
2.2495,-0.4948,0.1235,-0.3459,2.2008,-0.0109,4.3339,0.8973,3.3243,0.7513,1.183,-0.2406,2.2314,-0.088,1.9802,0.091
2.2495,-0.4948,0.1235,-0.3459,2.2008,-0.0109,4.3339,0.8973,3.3243,0.7513,1.183,-0.2406,2.2314,-0.088,1.9802,0.091
2.2495,-0.4948,0.1235,-0.3459,2.2008,-0.0109,4.3339,0.8973,3.3243,0.7513,1.183,-0.2406,2.2314,-0.088,1.9802,0.091
2.3174,-0.3801,0.1793,-0.2585,2.2974,0.0271,4.5276,0.8777,3.392,0.8884,1.2204,-0.2091,2.3082,-0.08,2.1889,0.0718
2.3174,-0.3801,0.1793,-0.2585,2.2974,0.0271,4.5276,0.8777,3.392,0.8884,1.2204,-0.2091,2.3082,-0.08,2.1889,0.0718
2.3174,-0.3801,0.1793,-0.2585,2.2974,0.0271,4.5276,0.8777,3.392,0.8884,1.2204,-0.2091,2.3082,-0.08,2.1889,0.0718
2.3174,-0.3801,0.1793,-0.2585,2.2974,0.0271,4.5276,0.8777,3.392,0.8884,1.2204,-0.2091,2.3082,-0.08,2.1889,0.0718
2.4915,-0.273,0.3394,-0.207,3.0672,-0.1178,4.9351,0.906,3.132,1.342,1.2855,-0.1602,2.5507,-0.1304,2.3996,0.1163
2.4915,-0.273,0.3394,-0.207,3.0672,-0.1178,4.9351,0.906,3.132,1.342,1.2855,-0.1602,2.5507,-0.1304,2.3996,0.1163
2.4915,-0.273,0.3394,-0.207,3.0672,-0.1178,4.9351,0.906,3.132,1.342,1.2855,-0.1602,2.5507,-0.1304,2.3996,0.1163
2.5174,-0.3105,0.4439,-0.2439,3.2371,-0.1778,4.9942,0.9099,2.8945,1.2932,1.3104,-0.196,2.4501,-0.1653,2.3073,0.1857
2.5174,-0.3105,0.4963,-0.2624,3.1467,-0.1093,4.9713,0.9428,2.802,1.1945,1.4406,-0.2689,2.4049,-0.2194,2.2198,0.2166
2.5174,-0.3105,0.4963,-0.2624,3.1467,-0.1093,4.9713,0.9428,2.802,1.1945,1.4406,-0.2689,2.4049,-0.2194,2.2198,0.2166
2.5174,-0.3105,0.4963,-0.2624,3.1467,-0.1093,4.9713,0.9428,2.802,1.1945,1.4406,-0.2689,2.4049,-0.2194,2.2198,0.2166
2.6354,-0.4085,0.4963,-0.2624,2.9831,0.0035,4.8666,1.0047,2.7912,1.1332,1.4853,-0.2757,2.3118,-0.204,2.1617,0.2372
2.6354,-0.4085,0.4963,-0.2624,2.9831,0.0035,4.8666,1.0047,2.7912,1.1332,1.4853,-0.2757,2.3118,-0.204,2.1617,0.2372
2.6354,-0.4085,0.4963,-0.2624,2.9831,0.0035,4.8666,1.0047,2.7912,1.1332,1.4853,-0.2757,2.3118,-0.204,2.1617,0.2372
2.6354,-0.4085,0.4963,-0.2624,2.9831,0.0035,4.8666,1.0047,2.7912,1.1332,1.4853,-0.2757,2.3118,-0.204,2.1617,0.2372
2.7837,-0.4045,0.4439,-0.2439,2.7975,0.0875,5.3848,0.7967,2.9214,1.0223,1.4274,-0.1922,2.3118,-0.204,2.1749,0.1865
2.7837,-0.4045,0.4439,-0.2439,2.7975,0.0875,5.3848,0.7967,2.9214,1.0223,1.4274,-0.1922,2.3118,-0.204,2.1749,0.1865
2.7837,-0.4045,0.4439,-0.2439,2.7975,0.0875,5.3848,0.7967,2.9214,1.0223,1.4274,-0.1922,2.3118,-0.204,2.1749,0.1865
2.6009,-0.1409,0.424,-0.2152,3,-0.0208,5.6978,0.7111,2.9214,1.0223,1.3828,-0.1855,2.7671,-0.3823,2.2628,0.0913
2.6009,-0.1409,0.424,-0.2152,3,-0.0208,5.6978,0.7111,2.9214,1.0223,1.3828,-0.1855,2.7671,-0.3823,2.2628,0.0913
2.3073,-0.1513,0.3668,-0.3032,2.8426,-0.0384,5.2787,0.8591,2.7803,1.0722,1.3201,-0.1814,2.8545,-0.448,2.2216,0.0876
2.3073,-0.1513,0.3668,-0.3032,2.8426,-0.0384,5.2787,0.8591,2.7803,1.0722,1.3201,-0.1814,2.8545,-0.448,2.2216,0.0876
2.0707,-0.237,0.4654,-0.4454,2.6148,-0.0126,4.8535,0.9348,2.821,1.0902,1.3465,-0.1907,2.8461,-0.3753,2.2048,0.1118
2.0707,-0.237,0.4654,-0.4454,2.6148,-0.0126,4.8535,0.9348,2.821,1.0902,1.3465,-0.1907,2.8461,-0.3753,2.2048,0.1118
2.0829,-0.3251,0.5371,-0.4921,2.5045,0.0264,4.633,0.988,3.1763,0.9646,1.4076,-0.2213,2.6939,-0.2163,2.1675,0.1341
2.0829,-0.3251,0.5371,-0.4921,2.5045,0.0264,4.633,0.988,3.1763,0.9646,1.4076,-0.2213,2.6939,-0.2163,2.1675,0.1341
2.1732,-0.3848,0.5106,-0.3971,2.5429,0.031,4.7138,0.9594,3.4643,0.8629,1.4258,-0.2187,2.5898,-0.1265,2.2254,0.1137
2.1732,-0.3848,0.5106,-0.3971,2.5429,0.031,4.7138,0.9594,3.4643,0.8629,1.4258,-0.2187,2.5898,-0.1265,2.2254,0.1137
2.3287,-0.4675,0.4711,-0.3401,2.5429,0.031,4.7949,0.9308,3.4171,1.0099,1.4175,-0.2068,2.5182,-0.0835,2.3625,0.0744
2.3287,-0.4675,0.4711,-0.3401,2.5429,0.031,4.7949,0.9308,3.4171,1.0099,1.4175,-0.2068,2.5182,-0.0835,2.3625,0.0744
2.343,-0.417,0.3792,-0.2644,2.731,0.001,4.9123,0.9388,3.3688,1.1587,1.391,-0.1975,2.5182,-0.0835,2.4417,0.0555
2.343,-0.417,0.3792,-0.2644,2.731,0.001,4.9123,0.9388,3.3688,1.1587,1.391,-0.1975,2.5182,-0.0835,2.4417,0.0555
2.3571,-0.3662,0.3593,-0.2357,2.9547,-0.078,5.0306,0.9468,3.1095,1.2172,1.3631,-0.2146,2.4339,-0.142,2.3664,0.1005
2.3571,-0.3662,0.3593,-0.2357,2.9547,-0.078,5.0306,0.9468,3.1095,1.2172,1.3631,-0.2146,2.4339,-0.142,2.3664,0.1005
2.3174,-0.3801,0.3271,-0.246,2.9547,-0.078,4.9485,0.9758,2.8728,1.1695,1.4043,-0.274,2.3663,-0.2232,2.2414,0.1538
2.3174,-0.3801,0.3271,-0.246,2.9547,-0.078,4.9485,0.9758,2.8728,1.1695,1.4043,-0.274,2.3663,-0.2232,2.2414,0.1538
2.343,-0.417,0.3866,-0.3317,2.8258,-0.0142,4.8307,0.9677,2.8507,1.0473,1.4372,-0.3215,2.197,-0.2156,2.1712,0.1603
2.343,-0.417,0.3866,-0.3317,2.8258,-0.0142,4.8307,0.9677,2.8507,1.0473,1.4372,-0.3215,2.197,-0.2156,2.1712,0.1603
2.6313,-0.5467,0.3938,-0.3987,2.6638,0.098,4.7721,0.9636,2.9511,0.9795,1.4372,-0.3215,2.2129,-0.2386,2.1049,0.1929
2.6313,-0.5467,0.3938,-0.3987,2.6638,0.098,4.7721,0.9636,2.9511,0.9795,1.4372,-0.3215,2.2129,-0.2386,2.1049,0.1929
2.8969,-0.6405,0.4261,-0.3887,2.5913,0.1419,4.8307,0.9677,2.9806,0.9369,1.3779,-0.2647,2.1589,-0.2195,2.076,0.2031
2.8969,-0.6405,0.4261,-0.3887,2.5913,0.1419,4.8307,0.9677,2.9806,0.9369,1.3779,-0.2647,2.1589,-0.2195,2.076,0.2031
3.0724,-0.6747,0.3741,-0.3703,2.4974,0.1568,5.0991,0.848,2.9806,0.9369,1.3088,-0.2224,2.105,-0.2005,2.1338,0.1826
3.0724,-0.6747,0.3741,-0.3703,2.4974,0.1568,5.0991,0.848,2.9806,0.9369,1.3088,-0.2224,2.105,-0.2005,2.1338,0.1826
3.0724,-0.6747,0.3741,-0.3703,2.4974,0.1568,5.0991,0.848,2.9806,0.9369,1.3088,-0.2224,2.105,-0.2005,2.1338,0.1826
2.9025,-0.5028,0.3346,-0.3134,2.4758,0.1277,5.3016,0.8262,2.9923,0.9973,1.2743,-0.2012,2.2671,-0.2577,2.233,0.166
2.9025,-0.5028,0.3346,-0.3134,2.4758,0.1277,5.3016,0.8262,2.9923,0.9973,1.2743,-0.2012,2.2671,-0.2577,2.233,0.166
2.9025,-0.5028,0.3346,-0.3134,2.4758,0.1277,5.3016,0.8262,2.9923,0.9973,1.2743,-0.2012,2.2671,-0.2577,2.233,0.166
2.3712,-0.3151,0.2974,-0.4287,2.385,-0.04,5.0306,0.9468,2.8618,1.1082,1.2286,-0.2209,2.7363,-0.4582,2.2574,0.1941
2.3712,-0.3151,0.2974,-0.4287,2.385,-0.04,5.0306,0.9468,2.8618,1.1082,1.2286,-0.2209,2.7363,-0.4582,2.2574,0.1941
2.3712,-0.3151,0.2974,-0.4287,2.385,-0.04,5.0306,0.9468,2.8618,1.1082,1.2286,-0.2209,2.7363,-0.4582,2.2574,0.1941
2.0439,-0.3391,0.3433,-0.551,2.1962,-0.063,4.6683,1.0251,2.821,1.0902,1.2091,-0.2498,2.6494,-0.3928,2.2283,0.2044
2.0439,-0.3391,0.3433,-0.551,2.1962,-0.063,4.6683,1.0251,2.821,1.0902,1.2091,-0.2498,2.6494,-0.3928,2.2283,0.2044
2.0439,-0.3391,0.3433,-0.551,2.1962,-0.063,4.6683,1.0251,2.821,1.0902,1.2091,-0.2498,2.6494,-0.3928,2.2283,0.2044
1.9141,-0.4314,0.2974,-0.4287,2.1587,-0.0677,4.4148,1.0403,3.2061,0.9217,1.1897,-0.2786,2.3983,-0.2694,2.3326,0.1491
1.9141,-0.4314,0.2974,-0.4287,2.1587,-0.0677,4.4148,1.0403,3.2061,0.9217,1.1897,-0.2786,2.3983,-0.2694,2.3326,0.1491
1.9141,-0.4314,0.2974,-0.4287,2.1587,-0.0677,4.4148,1.0403,3.2061,0.9217,1.1897,-0.2786,2.3983,-0.2694,2.3326,0.1491
1.9141,-0.4314,0.2974,-0.4287,2.1587,-0.0677,4.4148,1.0403,3.2061,0.9217,1.1897,-0.2786,2.3983,-0.2694,2.3326,0.1491
2.0169,-0.4402,0.2385,-0.3438,2.5823,-0.1456,4.4827,0.9426,3.0566,1.1373,1.1897,-0.2786,2.3597,-0.2731,2.4159,0.1566
2.1202,-0.4491,0.2188,-0.3154,2.7756,-0.1238,4.5401,0.9468,2.821,1.0902,1.2061,-0.3022,2.2288,-0.2616,2.3403,0.2018
2.1202,-0.4491,0.2188,-0.3154,2.7756,-0.1238,4.5401,0.9468,2.821,1.0902,1.2061,-0.3022,2.2288,-0.2616,2.3403,0.2018
2.394,-0.4906,0.3025,-0.3235,2.865,-0.0098,4.6783,0.9226,2.7397,1.0542,1.3024,-0.3274,2.2129,-0.2386,2.3233,0.2262
2.394,-0.4906,0.3025,-0.3235,2.865,-0.0098,4.6783,0.9226,2.7397,1.0542,1.3024,-0.3274,2.2129,-0.2386,2.3233,0.2262
2.7382,-0.5566,0.3346,-0.3134,2.876,0.0966,4.8176,0.8981,2.8395,0.9867,1.3582,-0.2936,2.2894,-0.2309,2.3943,0.2197
2.7382,-0.5566,0.3346,-0.3134,2.876,0.0966,4.8176,0.8981,2.8395,0.9867,1.3582,-0.2936,2.2894,-0.2309,2.3943,0.2197
2.7382,-0.5566,0.3346,-0.3134,2.876,0.0966,4.8176,0.8981,2.8395,0.9867,1.3582,-0.2936,2.2894,-0.2309,2.3943,0.2197
2.7382,-0.5566,0.3346,-0.3134,2.876,0.0966,4.8176,0.8981,2.8395,0.9867,1.3582,-0.2936,2.2894,-0.2309,2.3943,0.2197
2.9025,-0.5028,0.3668,-0.3032,2.9378,0.1303,5.1815,0.8189,2.869,0.9442,1.3961,-0.2622,2.3118,-0.204,2.4531,0.1989
2.9025,-0.5028,0.3668,-0.3032,2.9378,0.1303,5.1815,0.8189,2.869,0.9442,1.3961,-0.2622,2.3118,-0.204,2.4531,0.1989
2.9025,-0.5028,0.3668,-0.3032,2.9378,0.1303,5.1815,0.8189,2.869,0.9442,1.3961,-0.2622,2.3118,-0.204,2.4531,0.1989
2.855,-0.2879,0.4189,-0.3216,2.8813,0.1503,5.4226,0.8333,3.0038,1.058,1.4175,-0.2068,2.9256,-0.3684,2.5582,0.2082
2.855,-0.2879,0.4189,-0.3216,2.8813,0.1503,5.4226,0.8333,3.0038,1.058,1.4175,-0.2068,2.9256,-0.3684,2.5582,0.2082
2.855,-0.2879,0.4189,-0.3216,2.8813,0.1503,5.4226,0.8333,3.0038,1.058,1.4175,-0.2068,2.9256,-0.3684,2.5582,0.2082
2.5722,-0.2449,0.5827,-0.444,2.7246,0.1317,5.0671,0.9838,3.075,1.0329,1.4357,-0.2042,3.0616,-0.3814,2.5496,0.2205
2.5722,-0.2449,0.5827,-0.444,2.7246,0.1317,5.0671,0.9838,3.075,1.0329,1.4357,-0.2042,3.0616,-0.3814,2.5496,0.2205
2.5722,-0.2449,0.5827,-0.444,2.7246,0.1317,5.0671,0.9838,3.075,1.0329,1.4357,-0.2042,3.0616,-0.3814,2.5496,0.2205
2.5691,-0.385,0.7733,-0.4899,2.6419,0.0691,4.6807,1.0954,3.5928,0.9151,1.497,-0.2349,2.9644,-0.2412,2.5878,0.1977
2.5691,-0.385,0.7733,-0.4899,2.6419,0.0691,4.6807,1.0954,3.5928,0.9151,1.497,-0.2349,2.9644,-0.2412,2.5878,0.1977
2.6761,-0.3947,0.7071,-0.3369,2.6806,0.0737,4.7391,1.0997,3.7528,0.9241,1.5236,-0.2443,2.7798,-0.1583,2.6855,0.1539
2.6761,-0.3947,0.7071,-0.3369,2.6806,0.0737,4.7391,1.0997,3.7528,0.9241,1.5236,-0.2443,2.7798,-0.1583,2.6855,0.1539
2.6909,-0.3435,0.7001,-0.2692,2.8874,0.019,4.8207,1.0709,3.7053,1.0729,1.5236,-0.2443,2.6846,-0.1423,2.7622,0.1083
2.6909,-0.3435,0.7001,-0.2692,2.8874,0.019,4.8207,1.0709,3.7053,1.0729,1.5236,-0.2443,2.6846,-0.1423,2.7622,0.1083
2.7318,-0.3296,0.7131,-0.23,3.2098,-0.0766,4.9847,1.013,3.4845,1.1509,1.5218,-0.2707,2.5831,-0.1771,2.7196,0.1048
2.7318,-0.3296,0.8196,-0.2677,3.3304,-0.0639,5.0077,0.9798,3.17,1.13,1.5466,-0.3064,2.4209,-0.2425,2.5501,0.1554
2.7318,-0.3296,0.8196,-0.2677,3.3304,-0.0639,5.0077,0.9798,3.17,1.13,1.5466,-0.3064,2.4209,-0.2425,2.5501,0.1554
2.7318,-0.3296,0.8196,-0.2677,3.3304,-0.0639,5.0077,0.9798,3.17,1.13,1.5466,-0.3064,2.4209,-0.2425,2.5501,0.1554
2.866,-0.3771,0.8196,-0.2677,3.3198,0.0139,5.0901,0.9507,3.0566,1.1373,1.5731,-0.3158,2.3823,-0.2463,2.4701,0.1744
2.866,-0.3771,0.8196,-0.2677,3.3198,0.0139,5.0901,0.9507,3.0566,1.1373,1.5731,-0.3158,2.3823,-0.2463,2.4701,0.1744
2.866,-0.3771,0.8196,-0.2677,3.3198,0.0139,5.0901,0.9507,3.0566,1.1373,1.5731,-0.3158,2.3823,-0.2463,2.4701,0.1744
3.2048,-0.4968,0.7995,-0.2386,3.2685,0.0879,5.2328,0.9253,3.0451,1.076,1.5667,-0.2775,2.3278,-0.227,2.3904,0.1933
3.2048,-0.4968,0.7995,-0.2386,3.2685,0.0879,5.2328,0.9253,3.0451,1.076,1.5667,-0.2775,2.3278,-0.227,2.3904,0.1933
3.1685,-0.3701,0.7461,-0.2198,3.2685,0.0879,5.9068,0.6872,3.1049,0.9899,1.4904,-0.1964,2.4916,-0.2849,2.4244,0.1444
3.1685,-0.3701,0.7461,-0.2198,3.2685,0.0879,5.9068,0.6872,3.1049,0.9899,1.4904,-0.1964,2.4916,-0.2849,2.4244,0.1444
3.1685,-0.3701,0.7461,-0.2198,3.2685,0.0879,5.9068,0.6872,3.1049,0.9899,1.4904,-0.1964,2.4916,-0.2849,2.4244,0.1444
3.1685,-0.3701,0.7461,-0.2198,3.2685,0.0879,5.9068,0.6872,3.1049,0.9899,1.4904,-0.1964,2.4916,-0.2849,2.4244,0.1444
2.9378,-0.2599,0.6801,-0.2402,3.188,0.079,5.8838,0.7204,3.0633,0.9722,1.4456,-0.1896,2.7831,-0.4053,2.4204,0.1181
2.9378,-0.2599,0.6801,-0.2402,3.188,0.079,5.8838,0.7204,3.0633,0.9722,1.4456,-0.1896,2.7831,-0.4053,2.4204,0.1181
2.3594,-0.2264,0.7535,-0.4614,2.8536,0.0677,5.2328,0.9253,3.0633,0.9722,1.4258,-0.2187,2.8301,-0.3521,2.3787,0.1145
2.3594,-0.2264,0.7535,-0.4614,2.8536,0.0677,5.2328,0.9253,3.0633,0.9722,1.4258,-0.2187,2.8301,-0.3521,2.3787,0.1145
2.2798,-0.2547,0.8064,-0.4801,2.8144,0.0631,5.0901,0.9507,3.4514,0.8027,1.4241,-0.2451,2.6707,-0.2433,2.3288,0.123
2.2798,-0.2547,0.8064,-0.4801,2.8144,0.0631,5.0901,0.9507,3.4514,0.8027,1.4241,-0.2451,2.6707,-0.2433,2.3288,0.123
2.2798,-0.2547,0.8064,-0.4801,2.8144,0.0631,5.0901,0.9507,3.4514,0.8027,1.4241,-0.2451,2.6707,-0.2433,2.3288,0.123
2.2798,-0.2547,0.8064,-0.4801,2.8144,0.0631,5.0901,0.9507,3.4514,0.8027,1.4241,-0.2451,2.6707,-0.2433,2.3288,0.123
2.4227,-0.3894,0.7337,-0.4329,2.7753,0.0586,5.0306,0.9468,3.8885,0.6483,1.4324,-0.257,2.5992,-0.2004,2.3372,0.1108
2.4227,-0.3894,0.7337,-0.4329,2.7753,0.0586,5.0306,0.9468,3.8885,0.6483,1.4324,-0.257,2.5992,-0.2004,2.3372,0.1108
2.4227,-0.3894,0.7337,-0.4329,2.7753,0.0586,5.0306,0.9468,3.8885,0.6483,1.4324,-0.257,2.5992,-0.2004,2.3372,0.1108
2.5398,-0.4865,0.5815,-0.2708,2.7195,0.0783,5.1359,0.8847,4.0062,0.639,1.4324,-0.257,2.4889,-0.1614,2.4333,0.0677
2.5398,-0.4865,0.5815,-0.2708,2.7195,0.0783,5.1359,0.8847,4.0062,0.639,1.4324,-0.257,2.4889,-0.1614,2.4333,0.0677
2.5949,-0.4222,0.4163,-0.147,3,-0.0208,5.2558,0.8922,3.601,1.143,1.3796,-0.2384,2.5212,-0.208,2.5129,0.0487
2.5949,-0.4222,0.4163,-0.147,3,-0.0208,5.2558,0.8922,3.601,1.143,1.3796,-0.2384,2.5212,-0.208,2.5129,0.0487
2.5949,-0.4222,0.4163,-0.147,3,-0.0208,5.2558,0.8922,3.601,1.143,1.3796,-0.2384,2.5212,-0.208,2.5129,0.0487
2.6096,-0.3712,0.3639,-0.1285,3.2837,-0.1211,5.27,0.9623,3.2961,1.1844,1.3516,-0.2554,2.4209,-0.2425,2.4164,0.092
2.6096,-0.3712,0.3639,-0.1285,3.2837,-0.1211,5.27,0.9623,3.2961,1.1844,1.3516,-0.2554,2.4209,-0.2425,2.4164,0.092
2.437,-0.3384,0.4115,-0.2542,3.2604,-0.1495,5.0671,0.9838,2.6589,1.0184,1.45,-0.3973,2.0865,-0.3491,2.0316,0.173
2.437,-0.3384,0.4115,-0.2542,3.2604,-0.1495,5.0671,0.9838,2.6589,1.0184,1.45,-0.3973,2.0865,-0.3491,2.0316,0.173
2.437,-0.3384,0.4115,-0.2542,3.2604,-0.1495,5.0671,0.9838,2.6589,1.0184,1.45,-0.3973,2.0865,-0.3491,2.0316,0.173
2.5288,-0.3988,0.5036,-0.33,3.0962,-0.0364,5.0306,0.9468,2.6883,0.976,1.5454,-0.4488,2.0488,-0.3529,1.9826,0.1812
2.5288,-0.3988,0.5036,-0.33,3.0962,-0.0364,5.0306,0.9468,2.6883,0.976,1.5454,-0.4488,2.0488,-0.3529,1.9826,0.1812
2.5288,-0.3988,0.5036,-0.33,3.0962,-0.0364,5.0306,0.9468,2.6883,0.976,1.5454,-0.4488,2.0488,-0.3529,1.9826,0.1812
2.9796,-0.614,0.5758,-0.3771,2.8028,0.141,4.9942,0.9099,3.1226,0.8867,1.553,-0.3445,2.2765,-0.3303,2.1013,0.1667
2.9796,-0.614,0.5758,-0.3771,2.8028,0.141,4.9942,0.9099,3.1226,0.8867,1.553,-0.3445,2.2765,-0.3303,2.1013,0.1667
3.0788,-0.537,0.6413,-0.357,2.842,0.1456,5.3848,0.7967,3.2602,1,1.585,-0.275,2.4142,-0.2924,2.2498,0.1417
3.0788,-0.537,0.6413,-0.357,2.842,0.1456,5.3848,0.7967,3.2602,1,1.585,-0.275,2.4142,-0.2924,2.2498,0.1417
3.0166,-0.3735,0.6015,-0.2996,2.8984,0.1257,5.6134,0.7409,3.3992,1.1149,1.6254,-0.217,2.814,-0.329,2.4328,0.1322
3.0166,-0.3735,0.6015,-0.2996,2.8984,0.1257,5.6134,0.7409,3.3992,1.1149,1.6254,-0.217,2.814,-0.329,2.4328,0.1322
2.8437,-0.198,0.6343,-0.2895,3.0114,0.0858,5.6289,0.8104,3.4661,1.2574,1.7095,-0.1922,3.3124,-0.4348,2.6178,0.1222
2.8437,-0.198,0.6343,-0.2895,3.0114,0.0858,5.6289,0.8104,3.4661,1.2574,1.7095,-0.1922,3.3124,-0.4348,2.6178,0.1222
2.8437,-0.198,0.6343,-0.2895,3.0114,0.0858,5.6289,0.8104,3.4661,1.2574,1.7095,-0.1922,3.3124,-0.4348,2.6178,0.1222
2.6534,-0.2166,0.6413,-0.357,3.0227,0.0079,5.27,0.9623,3.4661,1.2574,1.8192,-0.2036,3.6402,-0.533,2.6813,0.1275
2.6534,-0.2166,0.6413,-0.357,3.0227,0.0079,5.27,0.9623,3.4661,1.2574,1.8192,-0.2036,3.6402,-0.533,2.6813,0.1275
2.6534,-0.2166,0.6413,-0.357,3.0227,0.0079,5.27,0.9623,3.4661,1.2574,1.8192,-0.2036,3.6402,-0.533,2.6813,0.1275
2.437,-0.3384,0.6876,-0.4811,2.8986,-0.0582,4.7391,1.0997,3.4234,1.2391,1.8733,-0.2228,3.624,-0.5096,2.694,0.1416
2.437,-0.3384,0.6876,-0.4811,2.8986,-0.0582,4.7391,1.0997,3.4234,1.2391,1.8733,-0.2228,3.624,-0.5096,2.694,0.1416
2.3828,-0.4032,0.8323,-0.575,2.7867,-0.0187,4.5997,1.124,3.454,1.195,1.9004,-0.2324,3.37,-0.3312,2.694,0.1416
2.3828,-0.4032,0.8323,-0.575,2.7867,-0.0187,4.5997,1.124,3.454,1.195,1.9004,-0.2324,3.37,-0.3312,2.694,0.1416
2.3828,-0.4032,0.8323,-0.575,2.7867,-0.0187,4.5997,1.124,3.454,1.195,1.9004,-0.2324,3.37,-0.3312,2.694,0.1416
2.5398,-0.4865,0.7469,-0.3943,2.7753,0.0586,4.5647,1.0865,4.0333,0.9239,1.8856,-0.1814,3.0836,-0.1049,2.7366,0.1452
2.7534,-0.5062,0.66,-0.2113,2.8367,0.0921,4.785,1.0336,4.0636,0.8801,1.8585,-0.1719,2.9299,-0.0686,2.8647,0.0906
2.7534,-0.5062,0.66,-0.2113,2.8367,0.0921,4.785,1.0336,4.0636,0.8801,1.8585,-0.1719,2.9299,-0.0686,2.8647,0.0906
2.7534,-0.5062,0.66,-0.2113,2.8367,0.0921,4.785,1.0336,4.0636,0.8801,1.8585,-0.1719,2.9299,-0.0686,2.8647,0.0906
2.8354,-0.4791,0.6728,-0.1719,2.9154,0.1012,5.113,0.9177,3.9723,1.0118,1.8501,-0.1597,2.9464,-0.0923,3.0755,0.0161
2.892,-0.4146,0.7058,-0.1616,3.0682,0.0657,5.362,0.8297,3.6693,1.2864,1.8043,-0.1527,3.0926,-0.1797,3.1749,-0.0283
2.892,-0.4146,0.7058,-0.1616,3.0682,0.0657,5.362,0.8297,3.6693,1.2864,1.8043,-0.1527,3.0926,-0.1797,3.1749,-0.0283
2.892,-0.4146,0.7058,-0.1616,3.0682,0.0657,5.362,0.8297,3.6693,1.2864,1.8043,-0.1527,3.0926,-0.1797,3.1749,-0.0283
2.9334,-0.4009,0.726,-0.1907,3.4114,-0.0555,5.4684,0.7672,3.4588,1.4284,1.7856,-0.1553,3.1822,-0.2471,3.1361,-0.0053
2.9334,-0.4009,0.726,-0.1907,3.4114,-0.0555,5.4684,0.7672,3.4588,1.4284,1.7856,-0.1553,3.1822,-0.2471,3.1361,-0.0053
2.9334,-0.4009,0.726,-0.1907,3.4114,-0.0555,5.4684,0.7672,3.4588,1.4284,1.7856,-0.1553,3.1822,-0.2471,3.1361,-0.0053
2.892,-0.4146,0.7532,-0.2879,3.452,-0.0514,5.362,0.8297,3.1208,1.2794,1.8256,-0.2423,2.9245,-0.2448,2.8477,0.1152
2.892,-0.4146,0.7532,-0.2879,3.452,-0.0514,5.362,0.8297,3.1208,1.2794,1.8256,-0.2423,2.9245,-0.2448,2.8477,0.1152
2.892,-0.4146,0.7532,-0.2879,3.452,-0.0514,5.362,0.8297,3.1208,1.2794,1.8256,-0.2423,2.9245,-0.2448,2.8477,0.1152
3.1627,-0.5102,0.7732,-0.3168,3.3602,0.0182,5.4455,0.8002,3.1816,1.1917,1.8443,-0.2398,2.8684,-0.225,2.8177,0.1258
3.1627,-0.5102,0.7732,-0.3168,3.3602,0.0182,5.4455,0.8002,3.1816,1.1917,1.8443,-0.2398,2.8684,-0.225,2.8177,0.1258
3.2731,-0.5209,0.8064,-0.3067,3.2856,0.0632,5.7595,0.7142,3.2421,1.1045,1.8089,-0.2182,2.8124,-0.2052,2.8049,0.1118
3.2731,-0.5209,0.8064,-0.3067,3.2856,0.0632,5.7595,0.7142,3.2421,1.1045,1.8089,-0.2182,2.8124,-0.2052,2.8049,0.1118
3.2731,-0.5209,0.8064,-0.3067,3.2856,0.0632,5.7595,0.7142,3.2421,1.1045,1.8089,-0.2182,2.8124,-0.2052,2.8049,0.1118
3.2794,-0.3806,0.873,-0.2865,3.2513,0.1126,6.0552,0.6598,3.3144,1.079,1.7735,-0.1966,2.8684,-0.225,2.8049,0.1118
3.2794,-0.3806,0.873,-0.2865,3.2513,0.1126,6.0552,0.6598,3.3144,1.079,1.7735,-0.1966,2.8684,-0.225,2.8049,0.1118
3.2794,-0.3806,0.873,-0.2865,3.2513,0.1126,6.0552,0.6598,3.3144,1.079,1.7735,-0.1966,2.8684,-0.225,2.8049,0.1118
2.8964,-0.2739,0.8798,-0.3544,3.1251,0.0456,5.6211,0.9139,3.4295,1.0712,1.7633,-0.2112,3.1422,-0.3746,2.7238,0.1311
2.8964,-0.2739,0.8798,-0.3544,3.1251,0.0456,5.6211,0.9139,3.4295,1.0712,1.7633,-0.2112,3.1422,-0.3746,2.7238,0.1311
2.9073,-0.3633,1.0267,-0.4498,3.0624,0.0123,5.3679,1.0033,3.4722,1.0891,1.7986,-0.2328,3.1098,-0.3279,2.6728,0.1398
2.9334,-0.4009,1.1003,-0.4975,3.0227,0.0079,5.2238,1.029,3.7226,0.9676,1.7967,-0.2594,2.9481,-0.2177,2.6305,0.1363
2.9334,-0.4009,1.1003,-0.4975,3.0227,0.0079,5.2238,1.029,3.7226,0.9676,1.7967,-0.2594,2.9481,-0.2177,2.6305,0.1363
2.9334,-0.4009,1.1003,-0.4975,3.0227,0.0079,5.2238,1.029,3.7226,0.9676,1.7967,-0.2594,2.9481,-0.2177,2.6305,0.1363
3.027,-0.4623,1.0541,-0.3724,3.0058,0.0323,5.1637,1.025,4.0051,0.8022,1.7698,-0.2499,2.7798,-0.1583,2.6178,0.1222
3.027,-0.4623,1.0541,-0.3724,3.0058,0.0323,5.1637,1.025,4.0051,0.8022,1.7698,-0.2499,2.7798,-0.1583,2.6178,0.1222
2.9749,-0.3872,0.9735,-0.2562,2.9493,0.0523,5.1868,0.9917,4.0192,0.8628,1.7614,-0.2378,2.724,-0.1385,2.7238,0.0663
2.8964,-0.2739,0.9127,-0.1685,3.0284,0.0612,5.3535,0.9328,3.7182,1.1349,1.716,-0.2309,2.606,-0.1499,2.8003,0.0208
2.8964,-0.2739,0.9127,-0.1685,3.0284,0.0612,5.3535,0.9328,3.7182,1.1349,1.716,-0.2309,2.606,-0.1499,2.8003,0.0208
2.8964,-0.2739,0.9127,-0.1685,3.0284,0.0612,5.3535,0.9328,3.7182,1.1349,1.716,-0.2309,2.606,-0.1499,2.8003,0.0208
2.9378,-0.2599,0.9463,-0.1582,3.2392,0.0053,5.5214,0.8735,3.4899,1.3835,1.6891,-0.2214,2.6384,-0.1967,2.8685,-0.0125
2.9378,-0.2599,0.9463,-0.1582,3.2392,0.0053,5.5214,0.8735,3.4899,1.3835,1.6891,-0.2214,2.6384,-0.1967,2.8685,-0.0125
2.8851,-0.1838,0.9463,-0.1582,3.6258,-0.1128,5.7755,0.7837,3.3226,1.5445,1.6706,-0.2239,2.71,-0.2396,2.86,-0.0003
2.8851,-0.1838,0.9463,-0.1582,3.6258,-0.1128,5.7755,0.7837,3.3226,1.5445,1.6706,-0.2239,2.71,-0.2396,2.86,-0.0003
2.8025,-0.2121,1.0409,-0.2359,3.8179,-0.1992,5.6905,0.8137,3.0397,1.4751,1.6485,-0.2794,2.6174,-0.3468,2.6984,0.0383
2.8025,-0.2121,1.0409,-0.2359,3.8179,-0.1992,5.6905,0.8137,3.0397,1.4751,1.6485,-0.2794,2.6174,-0.3468,2.6984,0.0383
2.7204,-0.2403,1.1016,-0.3234,3.7181,-0.1824,5.6289,0.8104,2.7824,1.2998,1.6797,-0.3534,2.4551,-0.4106,2.4666,0.0834
2.6243,-0.32,1.0204,-0.3823,3.4691,-0.0759,5.5064,0.8036,2.5997,1.1037,1.7372,-0.4364,2.3172,-0.4477,2.3042,0.095
2.6243,-0.32,1.0204,-0.3823,3.4691,-0.0759,5.5064,0.8036,2.5997,1.1037,1.7372,-0.4364,2.3172,-0.4477,2.3042,0.095
2.6096,-0.3712,0.9532,-0.4021,3.2282,0.0835,5.4455,0.8002,2.5785,0.9828,1.7536,-0.4601,2.2095,-0.4097,2.2132,0.0997
2.6096,-0.3712,0.9532,-0.4021,3.2282,0.0835,5.4455,0.8002,2.5785,0.9828,1.7536,-0.4601,2.2095,-0.4097,2.2132,0.0997
2.6096,-0.3712,0.9532,-0.4021,3.2282,0.0835,5.4455,0.8002,2.5785,0.9828,1.7536,-0.4601,2.2095,-0.4097,2.2132,0.0997
2.8354,-0.4791,0.8798,-0.3544,3.0279,0.2477,5.339,0.8628,2.7177,0.9336,1.7743,-0.4316,2.2383,-0.334,2.2048,0.1118
2.8354,-0.4791,0.8798,-0.3544,3.0279,0.2477,5.339,0.8628,2.7177,0.9336,1.7743,-0.4316,2.2383,-0.334,2.2048,0.1118
2.8354,-0.4791,0.8798,-0.3544,3.0279,0.2477,5.339,0.8628,2.7177,0.9336,1.7743,-0.4316,2.2383,-0.334,2.2048,0.1118
3.0788,-0.537,0.8196,-0.2677,2.9761,0.3225,5.5675,0.807,2.9689,0.8768,1.7351,-0.346,2.283,-0.2807,2.2667,0.1174
3.0788,-0.537,0.8196,-0.2677,2.9761,0.3225,5.5675,0.807,2.9689,0.8768,1.7351,-0.346,2.283,-0.2807,2.2667,0.1174
3.2308,-0.5343,0.8125,-0.1993,3.0905,0.282,6.0321,0.693,3.2234,0.819,1.7141,-0.2574,2.4209,-0.2425,2.408,0.1041
3.237,-0.3943,0.8256,-0.1598,3.3036,0.2256,6.5304,0.5421,3.4218,0.8455,1.7364,-0.2017,2.6315,-0.2469,2.58,0.0802
3.237,-0.3943,0.8256,-0.1598,3.3036,0.2256,6.5304,0.5421,3.4218,0.8455,1.7364,-0.2017,2.6315,-0.2469,2.58,0.0802
3.1315,-0.2421,0.8256,-0.1598,3.5534,0.1185,6.6836,0.5132,3.507,0.8802,1.7466,-0.1871,2.9893,-0.3382,2.7111,0.0523
3.1315,-0.2421,0.8256,-0.1598,3.5534,0.1185,6.6836,0.5132,3.507,0.8802,1.7466,-0.1871,2.9893,-0.3382,2.7111,0.0523
2.8851,-0.1838,0.8327,-0.2284,3.506,0.0601,6.2626,0.7379,3.4046,0.949,1.7466,-0.1871,3.1988,-0.3946,2.7238,0.0663
2.8851,-0.1838,0.8327,-0.2284,3.506,0.0601,6.2626,0.7379,3.4046,0.949,1.7466,-0.1871,3.1988,-0.3946,2.7238,0.0663
2.6796,-0.2544,0.9332,-0.3733,3.3837,0.0472,5.8536,0.857,3.4171,1.0099,1.7735,-0.1966,3.2312,-0.3177,2.7579,0.082
2.6796,-0.2544,0.9332,-0.3733,3.3837,0.0472,5.8536,0.857,3.4171,1.0099,1.7735,-0.1966,3.2312,-0.3177,2.7579,0.082
2.6389,-0.2684,1.0068,-0.4211,3.2685,0.0879,5.5978,0.9474,3.7226,0.9676,1.8462,-0.2132,3.133,-0.1762,2.8005,0.0854
2.6389,-0.2684,1.0068,-0.4211,3.2685,0.0879,5.5978,0.9474,3.7226,0.9676,1.8462,-0.2132,3.133,-0.1762,2.8005,0.0854
2.6389,-0.2684,1.0068,-0.4211,3.2685,0.0879,5.5978,0.9474,3.7226,0.9676,1.8462,-0.2132,3.133,-0.1762,2.8005,0.0854
2.7318,-0.3296,1.0541,-0.3724,3.2685,0.0879,5.6595,0.9509,4.0636,0.8801,1.9192,-0.2299,3.1001,-0.1287,2.9033,0.0677
2.7318,-0.3296,1.0541,-0.3724,3.2685,0.0879,5.6595,0.9509,4.0636,0.8801,1.9192,-0.2299,3.1001,-0.1287,2.9033,0.0677
2.7318,-0.3296,1.0541,-0.3724,3.2685,0.0879,5.6595,0.9509,4.0636,0.8801,1.9192,-0.2299,3.1001,-0.1287,2.9033,0.0677
2.9594,-0.4384,0.9666,-0.1875,3.3494,0.0967,6.0023,0.8298,4.0749,1.1094,2.0029,-0.232,3.003,-0.1123,3.2491,-0.0359
2.9594,-0.4384,0.9666,-0.1875,3.3494,0.0967,6.0023,0.8298,4.0749,1.1094,2.0029,-0.232,3.003,-0.1123,3.2491,-0.0359
3.001,-0.4248,0.8924,-0.1392,3.5642,0.0395,6.0186,0.9004,3.844,1.3603,1.9756,-0.2224,2.9227,-0.1197,3.2625,-0.022
3.001,-0.4248,0.8924,-0.1392,3.5642,0.0395,6.0186,0.9004,3.844,1.3603,1.9756,-0.2224,2.9227,-0.1197,3.2625,-0.022
3.001,-0.4248,0.8924,-0.1392,3.5642,0.0395,6.0186,0.9004,3.844,1.3603,1.9756,-0.2224,2.9227,-0.1197,3.2625,-0.022
3.0845,-0.3975,0.8924,-0.1392,3.7568,-0.0473,5.9087,0.9648,3.5759,1.4209,2.0197,-0.2562,2.8919,-0.1979,3.1151,0.058
3.0845,-0.3975,0.8924,-0.1392,3.7568,-0.0473,5.9087,0.9648,3.5759,1.4209,2.0197,-0.2562,2.8919,-0.1979,3.1151,0.058
3.0845,-0.3975,0.8924,-0.1392,3.7568,-0.0473,5.9087,0.9648,3.5759,1.4209,2.0197,-0.2562,2.8919,-0.1979,3.1151,0.058
3.4532,-0.5562,0.9197,-0.2372,3.6053,0.0437,5.7214,0.9545,3.6135,1.2053,2.1016,-0.2852,2.9008,-0.2717,2.9121,0.1204
3.4532,-0.5562,0.9197,-0.2372,3.6053,0.0437,5.7214,0.9545,3.6135,1.2053,2.1016,-0.2852,2.9008,-0.2717,2.9121,0.1204
3.5654,-0.5674,0.9399,-0.2663,3.4715,0.1098,5.8536,0.857,3.6875,1.1792,2.0786,-0.2221,2.8846,-0.2484,2.8906,0.1187
3.5654,-0.5674,0.9399,-0.2663,3.4715,0.1098,5.8536,0.857,3.6875,1.1792,2.0786,-0.2221,2.8846,-0.2484,2.8906,0.1187
3.5298,-0.4404,0.9937,-0.2853,3.4134,0.1303,6.2858,0.7043,3.6568,1.2235,2.0533,-0.1856,2.9082,-0.2213,2.8992,0.1063
3.5298,-0.4404,0.9937,-0.2853,3.4134,0.1303,6.2858,0.7043,3.6568,1.2235,2.0533,-0.1856,2.9082,-0.2213,2.8992,0.1063
3.3276,-0.2245,0.9937,-0.2853,3.3149,0.1463,6.4841,0.6089,3.6693,1.2864,2.0448,-0.1735,3.1013,-0.2541,2.9378,0.0834
3.1626,-0.1371,1.0139,-0.3144,3.3089,0.0923,6.3964,0.6399,3.7437,1.2601,2.0722,-0.1832,3.4849,-0.3718,2.9679,0.0728
3.1626,-0.1371,1.0139,-0.3144,3.3089,0.0923,6.3964,0.6399,3.7437,1.2601,2.0722,-0.1832,3.4849,-0.3718,2.9679,0.0728
3.1626,-0.1371,1.0139,-0.3144,3.3089,0.0923,6.3964,0.6399,3.7437,1.2601,2.0722,-0.1832,3.4849,-0.3718,2.9679,0.0728
3.1626,-0.1371,1.0139,-0.3144,3.3089,0.0923,6.3964,0.6399,3.7437,1.2601,2.0722,-0.1832,3.4849,-0.3718,2.9679,0.0728
2.9,-0.1314,1.0942,-0.4302,3.1821,0.0255,5.9232,0.7567,3.7437,1.2601,2.1081,-0.205,3.6419,-0.4095,2.9764,0.0604
2.9,-0.1314,1.0942,-0.4302,3.1821,0.0255,5.9232,0.7567,3.7437,1.2601,2.1081,-0.205,3.6419,-0.4095,2.9764,0.0604
2.9,-0.1314,1.0942,-0.4302,3.1821,0.0255,5.9232,0.7567,3.7437,1.2601,2.1081,-0.205,3.6419,-0.4095,2.9764,0.0604
2.7466,-0.2781,1.3305,-0.5354,3.0058,0.0323,5.3766,0.8996,4.1814,1.0382,2.0701,-0.21,3.4276,-0.2265,2.9248,0.0694
2.7466,-0.2781,1.3305,-0.5354,3.0058,0.0323,5.3766,0.8996,4.1814,1.0382,2.0701,-0.21,3.4276,-0.2265,2.9248,0.0694
2.7466,-0.2781,1.3305,-0.5354,3.0058,0.0323,5.3766,0.8996,4.1814,1.0382,2.0701,-0.21,3.4276,-0.2265,2.9248,0.0694
2.8507,-0.4282,1.1558,-0.3426,2.9493,0.0523,5.0671,0.9838,4.3641,0.9401,2.007,-0.1785,3.3124,-0.1858,2.9333,0.0571
2.8766,-0.4656,1.034,-0.167,2.9662,0.0279,5.0671,0.9838,4.4254,0.8517,1.942,-0.1739,3.19,-0.1963,3.0191,-0.0011
2.8766,-0.4656,0.9595,-0.1185,3.136,-0.0321,5.1957,0.8885,4.2428,0.9496,1.9044,-0.1789,3.1658,-0.2235,3.0964,-0.0469
2.8766,-0.4656,0.9595,-0.1185,3.136,-0.0321,5.1957,0.8885,4.2428,0.9496,1.9044,-0.1789,3.1658,-0.2235,3.0964,-0.0469
2.8766,-0.4656,0.9595,-0.1185,3.136,-0.0321,5.1957,0.8885,4.2428,0.9496,1.9044,-0.1789,3.1658,-0.2235,3.0964,-0.0469
2.9025,-0.5028,0.8386,-0.1202,3.3643,-0.1128,5.1359,0.8847,3.8536,1.0205,1.8379,-0.2011,3.0208,-0.2611,2.9929,-0.0288
2.9025,-0.5028,0.8386,-0.1202,3.3643,-0.1128,5.1359,0.8847,3.8536,1.0205,1.8379,-0.2011,3.0208,-0.2611,2.9929,-0.0288
2.9025,-0.5028,0.8386,-0.1202,3.3643,-0.1128,5.1359,0.8847,3.8536,1.0205,1.8379,-0.2011,3.0208,-0.2611,2.9929,-0.0288
2.8354,-0.4791,0.8256,-0.1598,3.4048,-0.1086,5.1587,0.8518,3.4171,1.0099,1.8423,-0.2664,2.8052,-0.2556,2.8471,-0.0142
2.8354,-0.4791,0.8256,-0.1598,3.4048,-0.1086,5.1587,0.8518,3.4171,1.0099,1.8423,-0.2664,2.8052,-0.2556,2.8471,-0.0142
3.2403,-0.6222,0.8931,-0.3155,3.2342,0.1374,5.1815,0.8189,3.1465,1.0076,1.8652,-0.3289,2.6707,-0.2433,2.6433,0.021
3.2403,-0.6222,0.8931,-0.3155,3.2342,0.1374,5.1815,0.8189,3.1465,1.0076,1.8652,-0.3289,2.6707,-0.2433,2.6433,0.021
3.2403,-0.6222,0.8931,-0.3155,3.2342,0.1374,5.1815,0.8189,3.1465,1.0076,1.8652,-0.3289,2.6707,-0.2433,2.6433,0.021
3.5571,-0.706,0.9132,-0.3444,3.1596,0.1825,5.3244,0.7932,3.2061,0.9217,1.7947,-0.2859,2.6315,-0.2469,2.6307,0.0071
3.5571,-0.706,0.9132,-0.3444,3.1596,0.1825,5.3244,0.7932,3.2061,0.9217,1.7947,-0.2859,2.6315,-0.2469,2.6307,0.0071
3.5571,-0.706,0.9132,-0.3444,3.1596,0.1825,5.3244,0.7932,3.2061,0.9217,1.7947,-0.2859,2.6315,-0.2469,2.6307,0.0071
3.5483,-0.6181,0.9132,-0.3444,3.1195,0.1779,5.8282,0.6153,3.3074,0.8536,1.7595,-0.2644,2.6315,-0.2469,2.6475,-0.0172
3.5483,-0.6181,0.9132,-0.3444,3.1195,0.1779,5.8282,0.6153,3.3074,0.8536,1.7595,-0.2644,2.6315,-0.2469,2.6475,-0.0172
3.5483,-0.6181,0.9132,-0.3444,3.1195,0.1779,5.8282,0.6153,3.3074,0.8536,1.7595,-0.2644,2.6315,-0.2469,2.6475,-0.0172
3.0321,-0.3219,0.8464,-0.3644,3.0114,0.0858,5.9298,0.6541,3.2182,0.9823,1.6337,-0.229,2.9815,-0.3882,2.5969,-0.0085
3.0321,-0.3219,0.8464,-0.3644,3.0114,0.0858,5.9298,0.6541,3.2182,0.9823,1.6337,-0.229,2.9815,-0.3882,2.5969,-0.0085
2.8138,-0.3018,0.9931,-0.4596,2.9831,0.0035,5.6289,0.8104,3.2182,0.9823,1.642,-0.241,2.9654,-0.3649,2.5675,0.0019
2.8138,-0.3018,0.9931,-0.4596,2.9831,0.0035,5.6289,0.8104,3.2182,0.9823,1.642,-0.241,2.9654,-0.3649,2.5675,0.0019
2.7988,-0.3533,1.1938,-0.5738,2.9436,-0.0009,5.4604,0.8699,3.507,0.8802,1.6956,-0.2599,2.9969,-0.2881,2.6391,-0.005
2.7988,-0.3533,1.1938,-0.5738,2.9436,-0.0009,5.4604,0.8699,3.507,0.8802,1.6956,-0.2599,2.9969,-0.2881,2.6391,-0.005
2.892,-0.4146,1.262,-0.5547,2.9831,0.0035,5.3766,0.8996,3.8729,0.751,1.7493,-0.2789,2.8919,-0.1979,2.6518,0.0088
2.892,-0.4146,1.262,-0.5547,2.9831,0.0035,5.3766,0.8996,3.8729,0.751,1.7493,-0.2789,2.8919,-0.1979,2.6518,0.0088
2.892,-0.4146,1.262,-0.5547,2.9831,0.0035,5.3766,0.8996,3.8729,0.751,1.7493,-0.2789,2.8919,-0.1979,2.6518,0.0088
3.001,-0.4248,1.2302,-0.3908,3.0624,0.0123,5.3304,0.9661,4.2442,0.6198,1.832,-0.2809,2.8992,-0.1471,2.7662,0.0052
3.001,-0.4248,1.2302,-0.3908,3.0624,0.0123,5.3304,0.9661,4.2442,0.6198,1.832,-0.2809,2.8992,-0.1471,2.7662,0.0052
3.001,-0.4248,1.2302,-0.3908,3.0624,0.0123,5.3304,0.9661,4.2442,0.6198,1.832,-0.2809,2.8992,-0.1471,2.7662,0.0052
3.001,-0.4248,1.2302,-0.3908,3.0624,0.0123,5.3304,0.9661,4.2442,0.6198,1.832,-0.2809,2.8992,-0.1471,2.7662,0.0052
3.1844,-0.3184,1.1699,-0.1259,3.3837,0.0472,5.6828,0.9174,4.2121,0.9938,1.9108,-0.2178,2.9628,-0.116,3.0492,-0.0117
3.1844,-0.3184,1.1699,-0.1259,3.3837,0.0472,5.6828,0.9174,4.2121,0.9938,1.9108,-0.2178,2.9628,-0.116,3.0492,-0.0117
3.1844,-0.3184,1.1699,-0.1259,3.3837,0.0472,5.6828,0.9174,4.2121,0.9938,1.9108,-0.2178,2.9628,-0.116,3.0492,-0.0117
3.1737,-0.2281,1.2246,-0.1452,3.8745,-0.0889,5.8928,0.8939,3.6442,1.1611,1.9819,-0.2612,2.8846,-0.2484,2.9203,0.0431
3.1737,-0.2281,1.2246,-0.1452,3.8745,-0.0889,5.8928,0.8939,3.6442,1.1611,1.9819,-0.2612,2.8846,-0.2484,2.9203,0.0431
3.3116,-0.2768,1.2795,-0.1646,3.9064,-0.0062,5.8928,0.8939,3.4845,1.1509,2.0805,-0.3142,2.8052,-0.2556,2.839,0.0626
3.3116,-0.2768,1.2795,-0.1646,3.9064,-0.0062,5.8928,0.8939,3.4845,1.1509,2.0805,-0.3142,2.8052,-0.2556,2.839,0.0626
3.4769,-0.3641,1.2795,-0.1646,3.8126,0.0647,5.8928,0.8939,3.4418,1.1329,2.0659,-0.2634,2.7495,-0.2359,2.7877,0.0714
3.4769,-0.3641,1.2795,-0.1646,3.8126,0.0647,5.8928,0.8939,3.4418,1.1329,2.0659,-0.2634,2.7495,-0.2359,2.7877,0.0714
3.4769,-0.3641,1.3,-0.1942,3.7535,0.0855,6.2626,0.7379,3.5453,1.0632,2.0323,-0.2149,2.8052,-0.2556,2.7962,0.0592
3.4769,-0.3641,1.3,-0.1942,3.7535,0.0855,6.2626,0.7379,3.5453,1.0632,2.0323,-0.2149,2.8052,-0.2556,2.7962,0.0592
3.4769,-0.3641,1.3,-0.1942,3.7535,0.0855,6.2626,0.7379,3.5453,1.0632,2.0323,-0.2149,2.8052,-0.2556,2.7962,0.0592
3.4238,-0.2875,1.2656,-0.2044,3.7535,0.0855,6.5489,0.6114,3.649,0.9936,2.0154,-0.1906,2.9569,-0.2916,2.8431,0.0241
3.4238,-0.2875,1.2656,-0.2044,3.7535,0.0855,6.5489,0.6114,3.649,0.9936,2.0154,-0.1906,2.9569,-0.2916,2.8431,0.0241
3.2316,-0.1615,1.2314,-0.2145,3.8299,0.0397,6.6604,0.5467,3.6187,1.0373,2.0154,-0.1906,3.28,-0.3881,2.86,-0.0003
3.2316,-0.1615,1.2314,-0.2145,3.8299,0.0397,6.6604,0.5467,3.6187,1.0373,2.0154,-0.1906,3.28,-0.3881,2.86,-0.0003
3.1204,-0.1513,1.163,-0.2348,3.7639,0.0065,6.4376,0.676,3.649,0.9936,1.9777,-0.1956,3.6402,-0.533,2.8685,-0.0125
2.7614,-0.2262,1.0678,-0.3334,3.5165,-0.0184,5.9627,0.7932,3.5327,1.0019,1.94,-0.2007,3.7142,-0.5767,2.8088,0.0085
2.7614,-0.2262,1.0678,-0.3334,3.5165,-0.0184,5.9627,0.7932,3.5327,1.0019,1.94,-0.2007,3.7142,-0.5767,2.8088,0.0085
2.6243,-0.32,1.0942,-0.4302,3.3368,-0.0107,5.6674,0.847,3.6792,0.9501,1.9756,-0.2224,3.633,-0.4597,2.8003,0.0208
2.6761,-0.3947,1.0942,-0.4302,3.2794,0.0096,5.5827,0.877,3.9308,0.8284,1.9568,-0.2249,3.3946,-0.3043,2.8302,0.0102
2.6761,-0.3947,1.0942,-0.4302,3.2794,0.0096,5.5827,0.877,3.9308,0.8284,1.9568,-0.2249,3.3946,-0.3043,2.8302,0.0102
2.6761,-0.3947,1.0942,-0.4302,3.2794,0.0096,5.5827,0.877,3.9308,0.8284,1.9568,-0.2249,3.3946,-0.3043,2.8302,0.0102
2.7686,-0.4555,1.0879,-0.3625,3.2222,0.0298,5.7524,0.817,4.0939,0.8365,1.984,-0.2345,3.2636,-0.2402,2.9798,-0.0427
2.7686,-0.4555,1.0879,-0.3625,3.2222,0.0298,5.7524,0.817,4.0939,0.8365,1.984,-0.2345,3.2636,-0.2402,2.9798,-0.0427
2.7686,-0.4555,1.0879,-0.3625,3.2222,0.0298,5.7524,0.817,4.0939,0.8365,1.984,-0.2345,3.2636,-0.2402,2.9798,-0.0427
2.8354,-0.4791,1.0678,-0.3334,3.3368,-0.0107,5.7524,0.817,4.0166,1.0295,1.9756,-0.2224,3.0761,-0.1561,3.0615,-0.0623
2.8354,-0.4791,1.0678,-0.3334,3.3368,-0.0107,5.7524,0.817,4.0166,1.0295,1.9756,-0.2224,3.0761,-0.1561,3.0615,-0.0623
2.8354,-0.4791,1.0678,-0.3334,3.3368,-0.0107,5.7524,0.817,4.0166,1.0295,1.9756,-0.2224,3.0761,-0.1561,3.0615,-0.0623
2.892,-0.4146,0.9735,-0.2562,3.5507,-0.0677,5.8376,0.7869,3.6442,1.1611,1.9987,-0.2853,2.8684,-0.225,2.9159,0.0169
2.892,-0.4146,0.9735,-0.2562,3.5507,-0.0677,5.8376,0.7869,3.6442,1.1611,1.9987,-0.2853,2.8684,-0.225,2.9159,0.0169
3.0947,-0.4862,1.1016,-0.3234,3.4586,0.0021,5.8376,0.7869,3.6315,1.099,2.051,-0.3311,2.8052,-0.2556,2.8346,0.0364
3.0947,-0.4862,1.1016,-0.3234,3.4586,0.0021,5.8376,0.7869,3.6315,1.099,2.051,-0.3311,2.8052,-0.2556,2.8346,0.0364
3.4623,-0.6443,1.0879,-0.3625,3.326,0.0676,5.6674,0.847,3.7053,1.0729,2.0782,-0.3407,2.8052,-0.2556,2.7834,0.0452
3.4623,-0.6443,1.0879,-0.3625,3.326,0.0676,5.6674,0.847,3.7053,1.0729,2.0782,-0.3407,2.8052,-0.2556,2.7834,0.0452
3.7649,-0.7794,1.0879,-0.3625,3.2282,0.0835,5.6058,0.8437,3.7794,1.0468,2.0364,-0.2804,2.8448,-0.252,2.7536,0.0557
3.7649,-0.7794,1.0879,-0.3625,3.2282,0.0835,5.6058,0.8437,3.7794,1.0468,2.0364,-0.2804,2.8448,-0.252,2.7536,0.0557
3.8526,-0.754,1.0879,-0.3625,3.188,0.079,5.8607,0.7536,3.8231,1.0645,1.9756,-0.2224,2.8286,-0.2286,2.7705,0.0313
3.8526,-0.754,1.0879,-0.3625,3.188,0.079,5.8607,0.7536,3.8231,1.0645,1.9756,-0.2224,2.8286,-0.2286,2.7705,0.0313
3.8526,-0.754,1.0879,-0.3625,3.188,0.079,5.8607,0.7536,3.8231,1.0645,1.9756,-0.2224,2.8286,-0.2286,2.7705,0.0313
3.6521,-0.5409,1.0139,-0.3144,3.2051,0.0544,5.9232,0.7567,3.7925,1.1087,1.9672,-0.2103,3.1098,-0.3279,2.8088,0.0085
3.6521,-0.5409,1.0139,-0.3144,3.2051,0.0544,5.9232,0.7567,3.7925,1.1087,1.9672,-0.2103,3.1098,-0.3279,2.8088,0.0085
3.6521,-0.5409,1.0139,-0.3144,3.2051,0.0544,5.9232,0.7567,3.7925,1.1087,1.9672,-0.2103,3.1098,-0.3279,2.8088,0.0085
2.9594,-0.4384,1.0665,-0.5072,2.9941,-0.0737,5.339,0.8628,3.5579,1.125,1.9004,-0.2324,3.3532,-0.4316,2.7406,-0.0225
2.9594,-0.4384,1.0665,-0.5072,2.9941,-0.0737,5.339,0.8628,3.5579,1.125,1.9004,-0.2324,3.3532,-0.4316,2.7406,-0.0225
2.7428,-0.4183,1.1599,-0.5834,2.9153,-0.0824,5.1359,0.8847,3.6187,1.0373,1.8713,-0.2494,3.1906,-0.3211,2.6559,-0.0293
2.7428,-0.4183,1.1599,-0.5834,2.9153,-0.0824,5.1359,0.8847,3.6187,1.0373,1.8713,-0.2494,3.1906,-0.3211,2.6559,-0.0293
2.6612,-0.4456,1.14,-0.5548,2.8426,-0.0384,4.9351,0.906,3.8266,0.898,1.834,-0.2544,3.0447,-0.2341,2.5549,-0.0119
2.6869,-0.4827,1.0204,-0.3823,2.8426,-0.0384,4.8989,0.8693,4.0494,0.8193,1.78,-0.2353,2.9718,-0.1906,2.5927,-0.0344
2.6869,-0.4827,1.0204,-0.3823,2.8426,-0.0384,4.8989,0.8693,4.0494,0.8193,1.78,-0.2353,2.9718,-0.1906,2.5927,-0.0344
2.6869,-0.4827,1.0204,-0.3823,2.8426,-0.0384,4.8989,0.8693,4.0494,0.8193,1.78,-0.2353,2.9718,-0.1906,2.5927,-0.0344
2.7534,-0.5062,0.8863,-0.2474,2.8426,-0.0384,5.085,0.7789,3.9447,0.8892,1.7512,-0.2524,2.9318,-0.1942,2.7358,-0.1123
2.7534,-0.5062,0.8863,-0.2474,2.8426,-0.0384,5.085,0.7789,3.9447,0.8892,1.7512,-0.2524,2.9318,-0.1942,2.7358,-0.1123
2.7277,-0.4691,0.8125,-0.1993,3.0505,-0.0936,5.2123,0.6848,3.8231,1.0645,1.7512,-0.2524,3.0045,-0.2376,2.8246,-0.1437
2.7277,-0.4691,0.8125,-0.1993,3.0505,-0.0936,5.2123,0.6848,3.8231,1.0645,1.7512,-0.2524,3.0045,-0.2376,2.8246,-0.1437
2.7686,-0.4555,0.7591,-0.1804,3.4891,-0.2303,5.3549,0.6589,3.601,1.143,1.7243,-0.2429,3.037,-0.2845,2.8291,-0.1179
2.7686,-0.4555,0.7591,-0.1804,3.4891,-0.2303,5.3549,0.6589,3.601,1.143,1.7243,-0.2429,3.037,-0.2845,2.8291,-0.1179
2.7019,-0.4319,0.7461,-0.2198,3.7782,-0.3324,5.2722,0.6882,3.2842,1.1225,1.7493,-0.2789,2.8933,-0.3219,2.6854,-0.0397
2.7019,-0.4319,0.7663,-0.2488,3.8273,-0.2763,5.3096,0.7242,2.9625,1.0402,1.7824,-0.3267,2.7745,-0.3325,2.5717,0.028
2.7019,-0.4319,0.7663,-0.2488,3.8273,-0.2763,5.3096,0.7242,2.9625,1.0402,1.7824,-0.3267,2.7745,-0.3325,2.5717,0.028
2.7019,-0.4319,0.7663,-0.2488,3.8273,-0.2763,5.3096,0.7242,2.9625,1.0402,1.7824,-0.3267,2.7745,-0.3325,2.5717,0.028
2.918,-0.452,0.873,-0.2865,3.7838,-0.15,5.4077,0.7638,3.0219,0.9545,1.8652,-0.3289,2.7584,-0.3093,2.5758,0.054
3.3251,-0.5958,0.9601,-0.2954,3.6397,-0.0059,5.5293,0.7706,3.1226,0.8867,1.9047,-0.2975,2.7979,-0.3057,2.656,0.0349
3.3251,-0.5958,0.9601,-0.2954,3.6397,-0.0059,5.5293,0.7706,3.1226,0.8867,1.9047,-0.2975,2.7979,-0.3057,2.656,0.0349
3.3251,-0.5958,0.9601,-0.2954,3.6397,-0.0059,5.5293,0.7706,3.1226,0.8867,1.9047,-0.2975,2.7979,-0.3057,2.656,0.0349
3.4364,-0.6069,0.9601,-0.2954,3.506,0.0601,5.9527,0.621,3.4089,0.7856,1.9276,-0.2419,2.8213,-0.2789,2.7577,0.0174
3.4364,-0.6069,0.9601,-0.2954,3.506,0.0601,5.9527,0.621,3.4089,0.7856,1.9276,-0.2419,2.8213,-0.2789,2.7577,0.0174
3.4364,-0.6069,0.9601,-0.2954,3.506,0.0601,5.9527,0.621,3.4089,0.7856,1.9276,-0.2419,2.8213,-0.2789,2.7577,0.0174
3.4364,-0.6069,0.9601,-0.2954,3.506,0.0601,5.9527,0.621,3.4089,0.7856,1.9276,-0.2419,2.8213,-0.2789,2.7577,0.0174
3.2794,-0.3806,1.0139,-0.3144,3.326,0.0676,6.2915,0.6014,3.666,0.8892,1.9672,-0.2103,3.2637,-0.3646,2.856,0.0381
3.2794,-0.3806,1.0139,-0.3144,3.326,0.0676,6.2915,0.6014,3.666,0.8892,1.9672,-0.2103,3.2637,-0.3646,2.856,0.0381
3.2794,-0.3806,1.0139,-0.3144,3.326,0.0676,6.2915,0.6014,3.666,0.8892,1.9672,-0.2103,3.2637,-0.3646,2.856,0.0381
3.2794,-0.3806,1.0139,-0.3144,3.326,0.0676,6.2915,0.6014,3.666,0.8892,1.9672,-0.2103,3.2637,-0.3646,2.856,0.0381
3.0427,-0.4111,1.1481,-0.4492,3.1421,0.0211,5.6905,0.8137,4.0494,0.8193,2.0197,-0.2562,3.2064,-0.22,2.8645,0.0258
3.0427,-0.4111,1.1481,-0.4492,3.1421,0.0211,5.6905,0.8137,4.0494,0.8193,2.0197,-0.2562,3.2064,-0.22,2.8645,0.0258
3.1106,-0.4351,1.1759,-0.3716,3.1421,0.0211,5.6058,0.8437,4.395,0.7301,2.047,-0.2659,3.1166,-0.1524,2.9029,0.003
3.1106,-0.4351,1.1759,-0.3716,3.1421,0.0211,5.6058,0.8437,4.395,0.7301,2.047,-0.2659,3.1166,-0.1524,2.9029,0.003
3.0845,-0.3975,1.1153,-0.2843,3.1991,0.001,5.5445,0.8402,4.3798,0.8346,2.0281,-0.2683,2.9628,-0.116,3.0098,-0.0533
3.0845,-0.3975,1.1153,-0.2843,3.1991,0.001,5.5445,0.8402,4.3798,0.8346,2.0281,-0.2683,2.9628,-0.116,3.0098,-0.0533
3.1264,-0.3838,1.129,-0.2449,3.4114,-0.0555,5.6058,0.8437,4.1505,1.0827,2.0008,-0.2587,2.9555,-0.167,3.0183,-0.0655
3.1264,-0.3838,1.129,-0.2449,3.4114,-0.0555,5.6058,0.8437,4.1505,1.0827,2.0008,-0.2587,2.9555,-0.167,3.0183,-0.0655
3.1685,-0.3701,1.1972,-0.2247,3.6258,-0.1128,5.7755,0.7837,3.911,1.1002,1.9987,-0.2853,2.8846,-0.2484,2.9368,-0.0459
3.1685,-0.3701,1.1972,-0.2247,3.6258,-0.1128,5.7755,0.7837,3.911,1.1002,1.9987,-0.2853,2.8846,-0.2484,2.9368,-0.0459
3.1948,-0.4079,1.163,-0.2348,3.6499,-0.0841,5.7136,0.7805,3.6315,1.099,2.0782,-0.3407,2.7423,-0.2861,2.8044,-0.0175
3.1948,-0.4079,1.163,-0.2348,3.6499,-0.0841,5.7136,0.7805,3.6315,1.099,2.0782,-0.3407,2.7423,-0.2861,2.8044,-0.0175
3.1948,-0.4079,1.163,-0.2348,3.6499,-0.0841,5.7136,0.7805,3.6315,1.099,2.0782,-0.3407,2.7423,-0.2861,2.8044,-0.0175
3.3843,-0.5318,1.129,-0.2449,3.5985,-0.0101,5.6519,0.7772,3.4722,1.0891,2.0782,-0.3407,2.7029,-0.2897,2.7025,0.0001
3.3843,-0.5318,1.129,-0.2449,3.5985,-0.0101,5.6519,0.7772,3.4722,1.0891,2.0782,-0.3407,2.7029,-0.2897,2.7025,0.0001
3.3843,-0.5318,1.129,-0.2449,3.5985,-0.0101,5.6519,0.7772,3.4722,1.0891,2.0782,-0.3407,2.7029,-0.2897,2.7025,0.0001
3.47,-0.5051,1.0951,-0.255,3.506,0.0601,6.2737,0.5325,3.4898,0.9842,2.0029,-0.232,2.7584,-0.3093,2.6686,-0.0155
3.47,-0.5051,1.0951,-0.255,3.506,0.0601,6.2737,0.5325,3.4898,0.9842,2.0029,-0.232,2.7584,-0.3093,2.6686,-0.0155
3.322,-0.367,1.0612,-0.2651,3.5232,0.0353,6.4475,0.4711,3.4898,0.9842,1.94,-0.2007,3.0376,-0.408,2.6938,-0.0518
3.0321,-0.3219,1.034,-0.3434,3.3773,-0.0064,6.1011,0.5935,3.4471,0.9666,1.9024,-0.2057,3.2067,-0.4677,2.6811,-0.0656
3.0321,-0.3219,1.034,-0.3434,3.3773,-0.0064,6.1011,0.5935,3.4471,0.9666,1.9024,-0.2057,3.2067,-0.4677,2.6811,-0.0656
3.0321,-0.3219,1.034,-0.3434,3.3773,-0.0064,6.1011,0.5935,3.4471,0.9666,1.9024,-0.2057,3.2067,-0.4677,2.6811,-0.0656
2.6502,-0.3574,1.013,-0.4883,3.0962,-0.0364,5.6363,0.7079,3.4471,0.9666,1.8649,-0.2107,3.2311,-0.4412,2.6516,-0.0552
2.6502,-0.3574,1.013,-0.4883,3.0962,-0.0364,5.6363,0.7079,3.4471,0.9666,1.8649,-0.2107,3.2311,-0.4412,2.6516,-0.0552
2.4885,-0.4126,1.0328,-0.5169,2.9773,-0.0495,5.4912,0.7343,3.666,0.8892,1.8546,-0.2253,3.1501,-0.3245,2.6221,-0.0448
2.525,-0.5369,0.9197,-0.412,2.8986,-0.0582,5.4304,0.731,3.9609,0.7851,1.8443,-0.2398,3.0773,-0.2811,2.66,-0.0673
2.525,-0.5369,0.9197,-0.412,2.8986,-0.0582,5.4304,0.731,3.9609,0.7851,1.8443,-0.2398,3.0773,-0.2811,2.66,-0.0673
2.525,-0.5369,0.9197,-0.412,2.8986,-0.0582,5.4304,0.731,3.9609,0.7851,1.8443,-0.2398,3.0773,-0.2811,2.66,-0.0673
2.5505,-0.5735,0.8064,-0.3067,2.8593,-0.0626,5.4304,0.731,4.0795,0.7758,1.834,-0.2544,3.0208,-0.2611,2.8162,-0.1316
2.6822,-0.6201,0.7663,-0.2488,2.9714,-0.1022,5.4304,0.731,3.9281,0.9942,1.8153,-0.2569,2.9245,-0.2448,2.9519,-0.1978
2.6822,-0.6201,0.7663,-0.2488,2.9714,-0.1022,5.4304,0.731,3.9281,0.9942,1.8153,-0.2569,2.9245,-0.2448,2.9519,-0.1978
2.7637,-0.5935,0.7131,-0.23,3.1803,-0.1578,5.4077,0.7638,3.7618,1.1529,1.7698,-0.2499,2.8448,-0.252,2.9137,-0.1752
2.7637,-0.5935,0.7131,-0.23,3.1803,-0.1578,5.4077,0.7638,3.7618,1.1529,1.7698,-0.2499,2.8448,-0.252,2.9137,-0.1752
2.7637,-0.5935,0.7131,-0.23,3.1803,-0.1578,5.4077,0.7638,3.7618,1.1529,1.7698,-0.2499,2.8448,-0.252,2.9137,-0.1752
2.7791,-0.5432,0.66,-0.2113,3.3342,-0.1938,5.3848,0.7967,3.4418,1.1329,1.7307,-0.2813,2.6245,-0.297,2.7441,-0.1244
2.8201,-0.5297,0.7532,-0.2879,3.3577,-0.1655,5.3848,0.7967,3.2421,1.1045,1.7804,-0.353,2.4848,-0.3347,2.5548,-0.0757
2.8201,-0.5297,0.7532,-0.2879,3.3577,-0.1655,5.3848,0.7967,3.2421,1.1045,1.7804,-0.353,2.4848,-0.3347,2.5548,-0.0757
2.8201,-0.5297,0.7532,-0.2879,3.3577,-0.1655,5.3848,0.7967,3.2421,1.1045,1.7804,-0.353,2.4848,-0.3347,2.5548,-0.0757
3.0886,-0.6246,0.7732,-0.3168,3.233,-0.0479,5.3244,0.7932,3.2302,1.0432,1.7804,-0.353,2.4461,-0.3383,2.4254,-0.0481
3.0886,-0.6246,0.7732,-0.3168,3.233,-0.0479,5.3244,0.7932,3.2302,1.0432,1.7804,-0.353,2.4461,-0.3383,2.4254,-0.0481
3.2918,-0.6964,0.7932,-0.3456,3.136,-0.0321,5.4532,0.6982,3.1883,1.0254,1.7556,-0.3172,2.462,-0.3613,2.3465,-0.0293
3.2918,-0.6964,0.7932,-0.3456,3.136,-0.0321,5.4532,0.6982,3.1883,1.0254,1.7556,-0.3172,2.462,-0.3613,2.3465,-0.0293
3.2918,-0.6964,0.7932,-0.3456,3.136,-0.0321,5.4532,0.6982,3.1883,1.0254,1.7556,-0.3172,2.462,-0.3613,2.3465,-0.0293
3.2403,-0.6222,0.7402,-0.3269,2.9831,0.0035,5.6659,0.5737,3.2002,1.0865,1.739,-0.2933,2.5395,-0.354,2.3839,-0.0516
3.2403,-0.6222,0.7402,-0.3269,2.9831,0.0035,5.6659,0.5737,3.2002,1.0865,1.739,-0.2933,2.5395,-0.354,2.3839,-0.0516
3.2403,-0.6222,0.7402,-0.3269,2.9831,0.0035,5.6659,0.5737,3.2002,1.0865,1.739,-0.2933,2.5395,-0.354,2.3839,-0.0516
3.2403,-0.6222,0.7402,-0.3269,2.9831,0.0035,5.6659,0.5737,3.2002,1.0865,1.739,-0.2933,2.5395,-0.354,2.3839,-0.0516
2.8096,-0.4419,0.7866,-0.4515,2.8761,-0.0867,5.3926,0.6949,3.2723,1.0611,1.7326,-0.2549,2.9897,-0.4609,2.4213,-0.0739
2.8096,-0.4419,0.7866,-0.4515,2.8761,-0.0867,5.3926,0.6949,3.2723,1.0611,1.7326,-0.2549,2.9897,-0.4609,2.4213,-0.0739
2.5398,-0.4865,0.9657,-0.5363,2.7423,-0.0758,4.8402,0.8654,3.813,0.8373,1.7614,-0.2378,3.0695,-0.3313,2.5255,-0.0653
2.5398,-0.4865,0.9657,-0.5363,2.7423,-0.0758,4.8402,0.8654,3.813,0.8373,1.7614,-0.2378,3.0695,-0.3313,2.5255,-0.0653
2.5653,-0.5234,0.9197,-0.412,2.7645,-0.0473,4.8402,0.8654,4.1543,0.7495,1.8089,-0.2182,3.1743,-0.2976,2.66,-0.0673
2.5653,-0.5234,0.9197,-0.412,2.7645,-0.0473,4.8402,0.8654,4.1543,0.7495,1.8089,-0.2182,3.1743,-0.2976,2.66,-0.0673
2.5653,-0.5234,0.9197,-0.412,2.7645,-0.0473,4.8402,0.8654,4.1543,0.7495,1.8089,-0.2182,3.1743,-0.2976,2.66,-0.0673
2.6719,-0.5332,0.8529,-0.2575,2.8426,-0.0384,4.9805,0.8405,4.2137,0.8271,1.8379,-0.2011,3.1417,-0.2506,2.8718,-0.1147
2.6719,-0.5332,0.8529,-0.2575,2.8426,-0.0384,4.9805,0.8405,4.2137,0.8271,1.8379,-0.2011,3.1417,-0.2506,2.8718,-0.1147
2.8457,-0.5667,0.8661,-0.2182,3.1069,-0.1136,5.1445,0.7825,4.0303,1.0915,1.8837,-0.2082,3.1822,-0.2471,2.9959,-0.1311
2.8457,-0.5667,0.8661,-0.2182,3.1069,-0.1136,5.1445,0.7825,4.0303,1.0915,1.8837,-0.2082,3.1822,-0.2471,2.9959,-0.1311
2.8869,-0.5534,0.7793,-0.2096,3.506,-0.2545,5.2722,0.6882,3.8184,1.2337,1.8753,-0.1961,3.1986,-0.2707,3.0005,-0.1052
2.8869,-0.5534,0.7793,-0.2096,3.506,-0.2545,5.2722,0.6882,3.8184,1.2337,1.8753,-0.1961,3.1986,-0.2707,3.0005,-0.1052
2.8869,-0.5534,0.7461,-0.2198,3.795,-0.3566,5.2496,0.7208,3.5089,1.2758,1.8733,-0.2228,3.0935,-0.3045,2.8939,-0.0491
2.8869,-0.5534,0.7461,-0.2198,3.795,-0.3566,5.2496,0.7208,3.5089,1.2758,1.8733,-0.2228,3.0935,-0.3045,2.8939,-0.0491
2.8612,-0.5163,0.7864,-0.2778,3.9115,-0.3978,5.3096,0.7242,3.2236,1.21,1.9068,-0.271,2.917,-0.2951,2.7662,0.0052
2.8612,-0.5163,0.7864,-0.2778,3.9115,-0.3978,5.3096,0.7242,3.2236,1.21,1.9068,-0.271,2.917,-0.2951,2.7662,0.0052
2.8612,-0.5163,0.7864,-0.2778,3.9115,-0.3978,5.3096,0.7242,3.2236,1.21,1.9068,-0.271,2.917,-0.2951,2.7662,0.0052
2.9282,-0.54,0.8264,-0.3356,3.7276,-0.2595,5.2042,0.7861,3.0866,1.0939,1.9673,-0.3287,2.7423,-0.2861,2.6645,0.0227
2.9282,-0.54,0.8264,-0.3356,3.7276,-0.2595,5.2042,0.7861,3.0866,1.0939,1.9673,-0.3287,2.7423,-0.2861,2.6645,0.0227
3.1724,-0.5982,0.8798,-0.3544,3.5608,-0.1453,5.2869,0.7569,3.1883,1.0254,1.9882,-0.2998,2.7423,-0.2861,2.656,0.0349
3.1724,-0.5982,0.8798,-0.3544,3.5608,-0.1453,5.2869,0.7569,3.1883,1.0254,1.9882,-0.2998,2.7423,-0.2861,2.656,0.0349
3.2827,-0.609,0.8798,-0.3544,3.4114,-0.0555,5.6205,0.6391,3.4345,0.9059,1.9736,-0.2491,2.71,-0.2396,2.7153,0.014
3.2827,-0.609,0.8798,-0.3544,3.4114,-0.0555,5.6205,0.6391,3.4345,0.9059,1.9736,-0.2491,2.71,-0.2396,2.7153,0.014
3.2107,-0.3564,0.9802,-0.3244,3.2965,-0.0149,6.3651,0.4007,3.5928,0.9151,1.9128,-0.191,3.0533,-0.308,2.8257,-0.0159
3.2107,-0.3564,0.9802,-0.3244,3.2965,-0.0149,6.3651,0.4007,3.5928,0.9151,1.9128,-0.191,3.0533,-0.308,2.8257,-0.0159
3.0321,-0.3219,0.9667,-0.3634,3.1929,-0.0522,6.0611,0.5578,3.6058,0.976,1.9044,-0.1789,3.2962,-0.4114,2.8173,-0.0037
3.0321,-0.3219,0.9667,-0.3634,3.1929,-0.0522,6.0611,0.5578,3.6058,0.976,1.9044,-0.1789,3.2962,-0.4114,2.8173,-0.0037
2.866,-0.3771,1.1003,-0.4975,3.0337,-0.0694,5.6591,0.675,3.636,0.9326,1.9024,-0.2057,3.337,-0.4082,2.7747,-0.007
2.866,-0.3771,1.1003,-0.4975,3.0337,-0.0694,5.6591,0.675,3.636,0.9326,1.9024,-0.2057,3.337,-0.4082,2.7747,-0.007
2.892,-0.4146,1.188,-0.5068,3.0505,-0.0936,5.4912,0.7343,3.9308,0.8284,1.9192,-0.2299,3.2312,-0.3177,2.7237,0.0018
2.892,-0.4146,1.188,-0.5068,3.0505,-0.0936,5.4912,0.7343,3.9308,0.8284,1.9192,-0.2299,3.2312,-0.3177,2.7237,0.0018
2.892,-0.4146,1.188,-0.5068,3.0505,-0.0936,5.4912,0.7343,3.9308,0.8284,1.9192,-0.2299,3.2312,-0.3177,2.7237,0.0018
2.918,-0.452,1.0541,-0.3724,3.0505,-0.0936,5.2414,0.8226,4.2892,0.6364,1.9004,-0.2324,3.1176,-0.2776,2.7109,-0.0121
2.918,-0.452,1.0541,-0.3724,3.0505,-0.0936,5.2414,0.8226,4.2892,0.6364,1.9004,-0.2324,3.1176,-0.2776,2.7109,-0.0121
2.892,-0.4146,0.9937,-0.2853,2.9941,-0.0737,5.2642,0.7897,4.3044,0.6964,1.8817,-0.2349,2.9644,-0.2412,2.8168,-0.0678
2.892,-0.4146,0.9937,-0.2853,2.9941,-0.0737,5.2642,0.7897,4.3044,0.6964,1.8817,-0.2349,2.9644,-0.2412,2.8168,-0.0678
2.892,-0.4146,0.9937,-0.2853,2.9941,-0.0737,5.2642,0.7897,4.3044,0.6964,1.8817,-0.2349,2.9644,-0.2412,2.8168,-0.0678
2.9073,-0.3633,0.9533,-0.227,3.1299,-0.0851,5.3472,0.7604,4.2283,0.8881,1.8546,-0.2253,2.9082,-0.2213,2.855,-0.0905
2.9073,-0.3633,0.9533,-0.227,3.1299,-0.0851,5.3472,0.7604,4.2283,0.8881,1.8546,-0.2253,2.9082,-0.2213,2.855,-0.0905
2.9073,-0.3633,0.9533,-0.227,3.1299,-0.0851,5.3472,0.7604,4.2283,0.8881,1.8546,-0.2253,2.9082,-0.2213,2.855,-0.0905
2.9073,-0.3633,1.0274,-0.2752,3.4723,-0.2061,5.4304,0.731,3.649,0.9936,1.8486,-0.3049,2.7671,-0.3823,2.6137,-0.0327
2.9073,-0.3633,1.0274,-0.2752,3.4723,-0.2061,5.4304,0.731,3.649,0.9936,1.8486,-0.3049,2.7671,-0.3823,2.6137,-0.0327
2.892,-0.4146,0.9802,-0.3244,3.3408,-0.1412,5.3699,0.7276,3.3323,0.9745,1.8818,-0.3528,2.6494,-0.3928,2.4921,-0.0171
2.892,-0.4146,0.9802,-0.3244,3.3408,-0.1412,5.3699,0.7276,3.3323,0.9745,1.8818,-0.3528,2.6494,-0.3928,2.4921,-0.0171
3.1046,-0.5742,0.9266,-0.3055,3.2668,-0.0967,5.3926,0.6949,3.3199,0.9139,1.8466,-0.3313,2.5555,-0.377,2.4003,-0.012
3.1046,-0.5742,0.9266,-0.3055,3.2668,-0.0967,5.3926,0.6949,3.3199,0.9139,1.8466,-0.3313,2.5555,-0.377,2.4003,-0.012
3.1046,-0.5742,0.9266,-0.3055,3.2668,-0.0967,5.3926,0.6949,3.3199,0.9139,1.8466,-0.3313,2.5555,-0.377,2.4003,-0.012
3.1046,-0.5742,0.873,-0.2865,3.1529,-0.0565,5.6432,0.6063,3.2778,0.8964,1.8383,-0.3194,2.5555,-0.377,2.4254,-0.0481
3.0947,-0.4862,0.8196,-0.2677,3.2098,-0.0766,5.6432,0.6063,3.2778,0.8964,1.7844,-0.3003,2.7915,-0.4777,2.4213,-0.0739
3.0947,-0.4862,0.8196,-0.2677,3.2098,-0.0766,5.6432,0.6063,3.2778,0.8964,1.7844,-0.3003,2.7915,-0.4777,2.4213,-0.0739
3.0947,-0.4862,0.8196,-0.2677,3.2098,-0.0766,5.6432,0.6063,3.2778,0.8964,1.7844,-0.3003,2.7915,-0.4777,2.4213,-0.0739
2.8507,-0.4282,0.7402,-0.3269,3.1636,-0.1336,5.4153,0.6622,3.2357,0.879,1.6669,-0.2769,2.9341,-0.5626,2.3674,-0.091
2.8507,-0.4282,0.7402,-0.3269,3.1636,-0.1336,5.4153,0.6622,3.2357,0.879,1.6669,-0.2769,2.9341,-0.5626,2.3674,-0.091
2.8507,-0.4282,0.7402,-0.3269,3.1636,-0.1336,5.4153,0.6622,3.2357,0.879,1.6669,-0.2769,2.9341,-0.5626,2.3674,-0.091
2.394,-0.4906,0.6876,-0.4811,2.759,-0.0998,4.8493,0.764,3.3793,0.8282,1.6384,-0.2938,2.8545,-0.448,2.326,-0.0945
2.394,-0.4906,0.6876,-0.4811,2.759,-0.0998,4.8493,0.764,3.3793,0.8282,1.6384,-0.2938,2.8545,-0.448,2.326,-0.0945
2.394,-0.4906,0.6876,-0.4811,2.759,-0.0998,4.8493,0.764,3.3793,0.8282,1.6384,-0.2938,2.8545,-0.448,2.326,-0.0945
2.4194,-0.5272,0.6284,-0.3956,2.7035,-0.0802,5.0117,0.7067,3.669,0.7259,1.62,-0.2963,2.7671,-0.3823,2.3426,-0.1183
2.4194,-0.5272,0.6284,-0.3956,2.7035,-0.0802,5.0117,0.7067,3.669,0.7259,1.62,-0.2963,2.7671,-0.3823,2.3426,-0.1183
2.4194,-0.5272,0.6284,-0.3956,2.7035,-0.0802,5.0117,0.7067,3.669,0.7259,1.62,-0.2963,2.7671,-0.3823,2.3426,-0.1183
2.4594,-0.5137,0.5163,-0.2912,2.8869,-0.1631,5.1976,0.6166,3.6058,0.976,1.6016,-0.2989,2.6958,-0.3396,2.4959,-0.1815
2.4594,-0.5137,0.5163,-0.2912,2.8869,-0.1631,5.1976,0.6166,3.6058,0.976,1.6016,-0.2989,2.6958,-0.3396,2.4959,-0.1815
2.394,-0.4906,0.5163,-0.2912,3.111,-0.2423,5.1527,0.6813,3.4171,1.0099,1.5915,-0.3133,2.6334,-0.3698,2.4005,-0.1388
2.394,-0.4906,0.5163,-0.2912,3.111,-0.2423,5.1527,0.6813,3.4171,1.0099,1.5915,-0.3133,2.6334,-0.3698,2.4005,-0.1388
2.394,-0.4906,0.5163,-0.2912,3.111,-0.2423,5.1527,0.6813,3.4171,1.0099,1.5915,-0.3133,2.6334,-0.3698,2.4005,-0.1388
2.394,-0.4906,0.5036,-0.33,3.0548,-0.2224,5.0708,0.7102,3.3199,0.9139,1.6061,-0.3632,2.4938,-0.407,2.3013,-0.1218
2.394,-0.4906,0.5036,-0.33,3.0548,-0.2224,5.0708,0.7102,3.3199,0.9139,1.6061,-0.3632,2.4938,-0.407,2.3013,-0.1218
2.394,-0.4906,0.5036,-0.33,3.0548,-0.2224,5.0708,0.7102,3.3199,0.9139,1.6061,-0.3632,2.4938,-0.407,2.3013,-0.1218
2.9065,-0.727,0.6154,-0.4341,2.8761,-0.0867,5.0117,0.7067,3.3497,0.871,1.6365,-0.3202,2.4938,-0.407,2.2765,-0.086
2.9065,-0.727,0.6154,-0.4341,2.8761,-0.0867,5.0117,0.7067,3.3497,0.871,1.6365,-0.3202,2.4938,-0.407,2.2765,-0.086
2.9892,-0.7009,0.5956,-0.4056,2.7867,-0.0187,5.2798,0.5875,3.3622,0.9314,1.6586,-0.2649,2.5555,-0.377,2.3674,-0.091
2.9697,-0.5265,0.556,-0.3485,2.8258,-0.0142,5.6497,0.5057,3.4597,1.0276,1.716,-0.2309,2.8226,-0.4019,2.5004,-0.0928
2.9697,-0.5265,0.556,-0.3485,2.8258,-0.0142,5.6497,0.5057,3.4597,1.0276,1.716,-0.2309,2.8226,-0.4019,2.5004,-0.0928
2.8248,-0.3908,0.556,-0.3485,2.8986,-0.0582,5.6046,0.5707,3.515,1.107,1.8089,-0.2182,3.1663,-0.4709,2.5968,-0.0723
2.8248,-0.3908,0.556,-0.3485,2.8986,-0.0582,5.6046,0.5707,3.515,1.107,1.8089,-0.2182,3.1663,-0.4709,2.5968,-0.0723
2.6761,-0.3947,0.7205,-0.4712,2.8146,-0.1194,5.2722,0.6882,3.515,1.107,1.9088,-0.2444,3.32,-0.5078,2.66,-0.0673
2.6761,-0.3947,0.7205,-0.4712,2.8146,-0.1194,5.2722,0.6882,3.515,1.107,1.9088,-0.2444,3.32,-0.5078,2.66,-0.0673
2.5801,-0.4729,0.9048,-0.622,2.7533,-0.1521,5.0258,0.7752,3.4722,1.0891,1.9172,-0.2565,3.2555,-0.4147,2.6727,-0.0535
2.5801,-0.4729,0.9048,-0.622,2.7533,-0.1521,5.0258,0.7752,3.4722,1.0891,1.9172,-0.2565,3.2555,-0.4147,2.6727,-0.0535
2.5801,-0.4729,0.9048,-0.622,2.7533,-0.1521,5.0258,0.7752,3.4722,1.0891,1.9172,-0.2565,3.2555,-0.4147,2.6727,-0.0535
2.4484,-0.4264,1.0641,-0.6783,2.7922,-0.1477,4.8628,0.8328,3.6187,1.0373,1.9359,-0.254,3.1743,-0.2976,2.6854,-0.0397
2.4484,-0.4264,1.0641,-0.6783,2.7922,-0.1477,4.8628,0.8328,3.6187,1.0373,1.9359,-0.254,3.1743,-0.2976,2.6854,-0.0397
2.5398,-0.4865,1.0585,-0.6121,2.7423,-0.0758,4.7818,0.8614,3.9749,0.8456,1.9464,-0.2395,3.0849,-0.2305,2.677,-0.0276
2.5398,-0.4865,1.0585,-0.6121,2.7423,-0.0758,4.7818,0.8614,3.9749,0.8456,1.9464,-0.2395,3.0849,-0.2305,2.677,-0.0276
2.6974,-0.57,0.9396,-0.4408,2.7812,-0.0714,4.7818,0.8614,4.2742,0.7399,1.9296,-0.2153,3.0686,-0.2069,2.7574,-0.0468
2.6974,-0.57,0.9396,-0.4408,2.7812,-0.0714,4.7818,0.8614,4.2742,0.7399,1.9296,-0.2153,3.0686,-0.2069,2.7574,-0.0468
2.6974,-0.57,0.9396,-0.4408,2.7812,-0.0714,4.7818,0.8614,4.2742,0.7399,1.9296,-0.2153,3.0686,-0.2069,2.7574,-0.0468
2.8457,-0.5667,0.7332,-0.259,3.1405,-0.1619,5.1302,0.7138,4.0918,1.0029,1.9024,-0.2057,3.1743,-0.2976,2.8893,-0.0751
2.8457,-0.5667,0.7332,-0.259,3.1405,-0.1619,5.1302,0.7138,4.0918,1.0029,1.9024,-0.2057,3.1743,-0.2976,2.8893,-0.0751
2.8457,-0.5667,0.7332,-0.259,3.1405,-0.1619,5.1302,0.7138,4.0918,1.0029,1.9024,-0.2057,3.1743,-0.2976,2.8893,-0.0751
2.7791,-0.5432,0.6471,-0.2504,3.2706,-0.2261,5.0708,0.7102,3.7358,1.029,1.8901,-0.2469,2.9731,-0.3149,2.7787,-0.0452
2.7791,-0.5432,0.6471,-0.2504,3.2706,-0.2261,5.0708,0.7102,3.7358,1.029,1.8901,-0.2469,2.9731,-0.3149,2.7787,-0.0452
2.7791,-0.5432,0.6343,-0.2895,3.2939,-0.1979,5.0708,0.7102,3.4171,1.0099,1.9047,-0.2975,2.814,-0.329,2.6559,-0.0293
2.7791,-0.5432,0.6343,-0.2895,3.2939,-0.1979,5.0708,0.7102,3.4171,1.0099,1.9047,-0.2975,2.814,-0.329,2.6559,-0.0293
2.9796,-0.614,0.6742,-0.347,3.1867,-0.1051,4.9892,0.7391,3.3622,0.9314,1.9214,-0.3216,2.7905,-0.3557,2.5843,-0.0223
2.9796,-0.614,0.6742,-0.347,3.1867,-0.1051,4.9892,0.7391,3.3622,0.9314,1.9214,-0.3216,2.7905,-0.3557,2.5843,-0.0223
2.9796,-0.614,0.6742,-0.347,3.1867,-0.1051,4.9892,0.7391,3.3622,0.9314,1.9214,-0.3216,2.7905,-0.3557,2.5843,-0.0223
3.4112,-0.7944,0.6742,-0.347,3.1529,-0.0565,5.0708,0.7102,3.392,0.8884,1.8964,-0.2855,2.7905,-0.3557,2.5927,-0.0344
3.5225,-0.8058,0.727,-0.3657,3.0962,-0.0364,5.4,0.5939,3.5237,0.7772,1.8443,-0.2398,2.7905,-0.3557,2.6011,-0.0465
3.5225,-0.8058,0.727,-0.3657,3.0962,-0.0364,5.4,0.5939,3.5237,0.7772,1.8443,-0.2398,2.7905,-0.3557,2.6011,-0.0465
3.3936,-0.62,0.727,-0.3657,3.0396,-0.0164,5.8176,0.4464,3.4941,0.82,1.8089,-0.2182,2.8461,-0.3753,2.6011,-0.0465
3.3936,-0.62,0.727,-0.3657,3.0396,-0.0164,5.8176,0.4464,3.4941,0.82,1.8089,-0.2182,2.8461,-0.3753,2.6011,-0.0465
3.2048,-0.4968,0.6742,-0.347,3,-0.0208,5.7726,0.5114,3.5499,0.8976,1.7652,-0.1846,3.1502,-0.4477,2.6432,-0.0431
3.2048,-0.4968,0.6742,-0.347,3,-0.0208,5.7726,0.5114,3.5499,0.8976,1.7652,-0.1846,3.1502,-0.4477,2.6432,-0.0431
2.9594,-0.4384,0.6941,-0.3757,2.9941,-0.0737,5.5978,0.6719,3.5928,0.9151,1.7196,-0.1776,3.3361,-0.5309,2.6348,-0.031
2.9594,-0.4384,0.6941,-0.3757,2.9941,-0.0737,5.5978,0.6719,3.5928,0.9151,1.7196,-0.1776,3.3361,-0.5309,2.6348,-0.031
2.9594,-0.4384,0.6941,-0.3757,2.9941,-0.0737,5.5978,0.6719,3.5928,0.9151,1.7196,-0.1776,3.3361,-0.5309,2.6348,-0.031
2.9594,-0.4384,0.6941,-0.3757,2.9941,-0.0737,5.5978,0.6719,3.5928,0.9151,1.7196,-0.1776,3.3361,-0.5309,2.6348,-0.031
2.525,-0.5369,0.9774,-0.669,2.6924,-0.1845,4.8176,0.8981,3.4345,0.9059,1.7058,-0.2454,3.1984,-0.5172,2.5674,-0.0619
2.525,-0.5369,0.9774,-0.669,2.6924,-0.1845,4.8176,0.8981,3.4345,0.9059,1.7058,-0.2454,3.1984,-0.5172,2.5674,-0.0619
2.5102,-0.587,0.9969,-0.6971,2.6538,-0.1888,4.7365,0.9267,3.6825,0.7858,1.7122,-0.2838,2.9976,-0.4113,2.5255,-0.0653
2.5102,-0.587,0.9969,-0.6971,2.6538,-0.1888,4.7365,0.9267,3.6825,0.7858,1.7122,-0.2838,2.9976,-0.4113,2.5255,-0.0653
2.4701,-0.6003,0.8852,-0.5937,2.6538,-0.1888,4.6783,0.9226,4.0062,0.639,1.7205,-0.2958,2.8301,-0.3521,2.5506,-0.1014
2.4701,-0.6003,0.8852,-0.5937,2.6538,-0.1888,4.6783,0.9226,4.0062,0.639,1.7205,-0.2958,2.8301,-0.3521,2.5506,-0.1014
2.4701,-0.6003,0.8852,-0.5937,2.6538,-0.1888,4.6783,0.9226,4.0062,0.639,1.7205,-0.2958,2.8301,-0.3521,2.5506,-0.1014
2.5102,-0.587,0.7337,-0.4329,2.6208,-0.1412,4.7592,0.894,4.1546,0.5866,1.6752,-0.2888,2.6245,-0.297,2.5672,-0.1254
2.5102,-0.587,0.7337,-0.4329,2.6208,-0.1412,4.7592,0.894,4.1546,0.5866,1.6752,-0.2888,2.6245,-0.297,2.5672,-0.1254
2.5102,-0.587,0.7337,-0.4329,2.6208,-0.1412,4.7592,0.894,4.1546,0.5866,1.6752,-0.2888,2.6245,-0.297,2.5672,-0.1254
2.5102,-0.587,0.7337,-0.4329,2.6208,-0.1412,4.7592,0.894,4.1546,0.5866,1.6752,-0.2888,2.6245,-0.297,2.5672,-0.1254
2.5142,-0.4496,0.5815,-0.2708,2.9987,-0.2026,5.1445,0.7825,3.6792,0.9501,1.5933,-0.2869,2.4779,-0.3842,2.5795,-0.175
2.5142,-0.4496,0.5815,-0.2708,2.9987,-0.2026,5.1445,0.7825,3.6792,0.9501,1.5933,-0.2869,2.4779,-0.3842,2.5795,-0.175
2.5142,-0.4496,0.5815,-0.2708,2.9987,-0.2026,5.1445,0.7825,3.6792,0.9501,1.5933,-0.2869,2.4779,-0.3842,2.5795,-0.175
2.3287,-0.4675,0.5432,-0.3871,3.0382,-0.1985,5.0483,0.7427,2.869,0.9442,1.6389,-0.4106,2.1895,-0.5557,2.2026,-0.1049
2.3287,-0.4675,0.5432,-0.3871,3.0382,-0.1985,5.0483,0.7427,2.869,0.9442,1.6389,-0.4106,2.1895,-0.5557,2.2026,-0.1049
2.3287,-0.4675,0.5432,-0.3871,3.0382,-0.1985,5.0483,0.7427,2.869,0.9442,1.6389,-0.4106,2.1895,-0.5557,2.2026,-0.1049
2.3795,-0.5408,0.4584,-0.3786,2.8593,-0.0626,4.9667,0.7715,2.7875,0.9089,1.6471,-0.4224,2.0984,-0.5404,2.0759,-0.078
2.3795,-0.5408,0.4584,-0.3786,2.8593,-0.0626,4.9667,0.7715,2.7875,0.9089,1.6471,-0.4224,2.0984,-0.5404,2.0759,-0.078
2.586,-0.6963,0.3741,-0.3703,2.6922,-0.0035,4.9892,0.7391,2.747,0.8914,1.6143,-0.3751,2.0984,-0.5404,2.015,-0.0834
2.586,-0.6963,0.3741,-0.3703,2.6922,-0.0035,4.9892,0.7391,2.747,0.8914,1.6143,-0.3751,2.0984,-0.5404,2.015,-0.0834
2.6516,-0.7194,0.3419,-0.3804,2.6367,0.0161,5.4,0.5939,2.8869,0.842,1.5548,-0.3183,2.1361,-0.5369,2.003,-0.0971
2.6516,-0.7194,0.3419,-0.3804,2.6367,0.0161,5.4,0.5939,2.8869,0.842,1.5548,-0.3183,2.1361,-0.5369,2.003,-0.0971
2.6516,-0.7194,0.3419,-0.3804,2.6367,0.0161,5.4,0.5939,2.8869,0.842,1.5548,-0.3183,2.1361,-0.5369,2.003,-0.0971
2.2101,-0.5085,0.2335,-0.4486,2.5877,-0.0935,5.4224,0.5615,2.9983,0.8345,1.4571,-0.2927,2.5118,-0.6696,2.0685,-0.1915
2.2101,-0.5085,0.2335,-0.4486,2.5877,-0.0935,5.4224,0.5615,2.9983,0.8345,1.4571,-0.2927,2.5118,-0.6696,2.0685,-0.1915
2.2101,-0.5085,0.2335,-0.4486,2.5877,-0.0935,5.4224,0.5615,2.9983,0.8345,1.4571,-0.2927,2.5118,-0.6696,2.0685,-0.1915
1.8873,-0.5314,0.228,-0.5524,2.413,-0.1396,5.0341,0.6743,3.0276,0.7922,1.4208,-0.2978,2.5735,-0.6406,2.0645,-0.2168
1.8873,-0.5314,0.228,-0.5524,2.413,-0.1396,5.0341,0.6743,3.0276,0.7922,1.4208,-0.2978,2.5735,-0.6406,2.0645,-0.2168
1.8873,-0.5314,0.228,-0.5524,2.413,-0.1396,5.0341,0.6743,3.0276,0.7922,1.4208,-0.2978,2.5735,-0.6406,2.0645,-0.2168
1.7322,-0.7194,0.1136,-0.554,2.0958,-0.1521,4.7194,0.6883,3.5986,0.5905,1.3647,-0.3316,2.3642,-0.5156,2.0971,-0.2637
1.7322,-0.7194,0.1136,-0.554,2.0958,-0.1521,4.7194,0.6883,3.5986,0.5905,1.3647,-0.3316,2.3642,-0.5156,2.0971,-0.2637
1.7322,-0.7194,0.1136,-0.554,2.0958,-0.1521,4.7194,0.6883,3.5986,0.5905,1.3647,-0.3316,2.3642,-0.5156,2.0971,-0.2637
1.7812,-0.79,0.0242,-0.4804,2.0586,-0.1567,4.7997,0.66,3.5533,0.7345,1.3384,-0.3223,2.2566,-0.4776,2.211,-0.3039
1.7812,-0.79,0.0242,-0.4804,2.0586,-0.1567,4.7997,0.66,3.5533,0.7345,1.3384,-0.3223,2.2566,-0.4776,2.211,-0.3039
1.7812,-0.79,0.0242,-0.4804,2.0586,-0.1567,4.7997,0.66,3.5533,0.7345,1.3384,-0.3223,2.2566,-0.4776,2.211,-0.3039
1.7948,-0.7415,-0.1159,-0.3888,2.4568,-0.262,4.8133,0.728,3.2182,0.9823,1.4173,-0.3501,2.1584,-0.5108,2.2397,-0.252
1.7948,-0.7415,-0.1159,-0.3888,2.4568,-0.262,4.8133,0.728,3.2182,0.9823,1.4173,-0.3501,2.1584,-0.5108,2.2397,-0.252
1.7948,-0.7415,-0.1159,-0.3888,2.4568,-0.262,4.8133,0.728,3.2182,0.9823,1.4173,-0.3501,2.1584,-0.5108,2.2397,-0.252
1.9837,-0.8082,-0.0072,-0.4904,2.5167,-0.2298,4.7104,0.7887,3.1346,0.947,1.5064,-0.3638,2.1206,-0.5144,2.207,-0.2048
2.277,-0.8851,0.0435,-0.5083,2.451,-0.1351,4.7685,0.7926,3.248,0.9393,1.5731,-0.3158,2.2498,-0.5262,2.2233,-0.166
2.4451,-0.9177,-0.0072,-0.4904,2.3257,-0.0729,5.0341,0.6743,3.248,0.9393,1.5602,-0.2392,2.2342,-0.5037,2.2069,-0.1423
2.4451,-0.9177,-0.0072,-0.4904,2.3257,-0.0729,5.0341,0.6743,3.248,0.9393,1.5602,-0.2392,2.2342,-0.5037,2.2069,-0.1423
2.4451,-0.9177,-0.0072,-0.4904,2.3257,-0.0729,5.0341,0.6743,3.248,0.9393,1.5602,-0.2392,2.2342,-0.5037,2.2069,-0.1423
2.3858,-0.7619,0.0435,-0.5083,2.2879,-0.0775,5.3846,0.5261,3.2602,1,1.5987,-0.2076,2.4567,-0.5312,2.2766,-0.149
2.3858,-0.7619,0.0435,-0.5083,2.2879,-0.0775,5.3846,0.5261,3.2602,1,1.5987,-0.2076,2.4567,-0.5312,2.2766,-0.149
2.2069,-0.6443,0.0121,-0.5182,2.1915,-0.1149,5.3846,0.5261,3.3446,1.0355,1.6623,-0.2119,2.8076,-0.621,2.355,-0.1677
2.2069,-0.6443,0.0121,-0.5182,2.1915,-0.1149,5.3846,0.5261,3.3446,1.0355,1.6623,-0.2119,2.8076,-0.621,2.355,-0.1677
1.9621,-0.6393,0.0575,-0.6387,2.0377,-0.1846,4.9975,0.6386,3.3023,1.0177,1.6706,-0.2239,2.9418,-0.6342,2.3343,-0.1694
1.9621,-0.6393,0.0575,-0.6387,2.0377,-0.1846,4.9975,0.6386,3.3023,1.0177,1.6706,-0.2239,2.9418,-0.6342,2.3343,-0.1694
1.9621,-0.6393,0.0575,-0.6387,2.0377,-0.1846,4.9975,0.6386,3.3023,1.0177,1.6706,-0.2239,2.9418,-0.6342,2.3343,-0.1694
1.9621,-0.6393,0.0575,-0.6387,2.0377,-0.1846,4.9975,0.6386,3.3023,1.0177,1.6706,-0.2239,2.9418,-0.6342,2.3343,-0.1694
1.8084,-0.6927,0.0575,-0.6387,1.9063,-0.2261,4.423,0.7688,3.7557,0.7599,1.6873,-0.2479,2.815,-0.4513,2.3055,-0.1592
1.8084,-0.6927,0.0575,-0.6387,1.9063,-0.2261,4.423,0.7688,3.7557,0.7599,1.6873,-0.2479,2.815,-0.4513,2.3055,-0.1592
1.7948,-0.7415,-0.0697,-0.5102,1.8331,-0.2352,4.3096,0.7607,3.9765,0.6819,1.6688,-0.2504,2.7991,-0.4284,2.4293,-0.2119
1.7948,-0.7415,-0.0697,-0.5102,1.8331,-0.2352,4.3096,0.7607,3.9765,0.6819,1.6688,-0.2504,2.7991,-0.4284,2.4293,-0.2119
1.8821,-0.799,-0.1587,-0.4368,1.8857,-0.2538,4.3537,0.6971,3.8868,0.8112,1.6236,-0.2435,2.7437,-0.4088,2.5537,-0.2648
1.9451,-0.8213,-0.2283,-0.3912,2.1134,-0.3517,4.4764,0.6058,3.5756,1.0196,1.5501,-0.2537,2.7522,-0.4811,2.5619,-0.2767
1.9451,-0.8213,-0.2283,-0.3912,2.1134,-0.3517,4.4764,0.6058,3.5756,1.0196,1.5501,-0.2537,2.7522,-0.4811,2.5619,-0.2767
1.9451,-0.8213,-0.2283,-0.3912,2.1134,-0.3517,4.4764,0.6058,3.5756,1.0196,1.5501,-0.2537,2.7522,-0.4811,2.5619,-0.2767
1.8682,-0.8473,-0.3015,-0.4493,2.1986,-0.4167,4.363,0.5982,3.3023,1.0177,1.5118,-0.2851,2.5412,-0.4754,2.4458,-0.2356
1.8682,-0.8473,-0.3015,-0.4493,2.1986,-0.4167,4.363,0.5982,3.3023,1.0177,1.5118,-0.2851,2.5412,-0.4754,2.4458,-0.2356
1.9066,-0.8343,-0.313,-0.487,2.2039,-0.3662,4.3411,0.6298,2.9625,1.0402,1.5347,-0.347,2.3712,-0.4668,2.326,-0.2201
2.1593,-0.9236,-0.2747,-0.5421,2.1185,-0.3011,4.3192,0.6614,2.8395,0.9867,1.5164,-0.3495,2.2947,-0.474,2.2685,-0.1998
2.1593,-0.9236,-0.2747,-0.5421,2.1185,-0.3011,4.3192,0.6614,2.8395,0.9867,1.5164,-0.3495,2.2947,-0.474,2.2685,-0.1998
2.3506,-0.9912,-0.2557,-0.5696,2.0653,-0.2823,4.5554,0.5779,2.9689,0.8768,1.4736,-0.3164,2.2947,-0.474,2.3054,-0.2218
2.3506,-0.9912,-0.2557,-0.5696,2.0653,-0.2823,4.5554,0.5779,2.9689,0.8768,1.4736,-0.3164,2.2947,-0.474,2.3054,-0.2218
2.3506,-0.9912,-0.2557,-0.5696,2.0653,-0.2823,4.5554,0.5779,2.9689,0.8768,1.4736,-0.3164,2.2947,-0.474,2.3054,-0.2218
2.2918,-0.8367,-0.2557,-0.5696,1.9753,-0.268,4.874,0.4654,2.9689,0.8768,1.4208,-0.2978,2.3642,-0.5156,2.2849,-0.2234
2.2918,-0.8367,-0.2557,-0.5696,1.9753,-0.268,4.874,0.4654,2.9689,0.8768,1.4208,-0.2978,2.3642,-0.5156,2.2849,-0.2234
2.1143,-0.7201,-0.3361,-0.5619,1.9017,-0.2769,4.852,0.4971,3.0396,0.8519,1.35,-0.2817,2.5423,-0.5955,2.2643,-0.2251
1.8467,-0.6794,-0.3098,-0.6538,1.7195,-0.2995,4.5554,0.5779,3.0396,0.8519,1.3401,-0.2961,2.6123,-0.6373,2.2234,-0.2284
1.8467,-0.6794,-0.3098,-0.6538,1.7195,-0.2995,4.5554,0.5779,3.0396,0.8519,1.3401,-0.2961,2.6123,-0.6373,2.2234,-0.2284
1.8467,-0.6794,-0.3098,-0.6538,1.7195,-0.2995,4.5554,0.5779,3.0396,0.8519,1.3401,-0.2961,2.6123,-0.6373,2.2234,-0.2284
1.8331,-0.7282,-0.154,-0.7704,1.6112,-0.3131,4.3411,0.6298,3.2109,0.7594,1.3384,-0.3223,2.5423,-0.5955,2.1621,-0.2335
1.8331,-0.7282,-0.154,-0.7704,1.6112,-0.3131,4.3411,0.6298,3.2109,0.7594,1.3384,-0.3223,2.5423,-0.5955,2.1621,-0.2335
1.8331,-0.7282,-0.154,-0.7704,1.6112,-0.3131,4.3411,0.6298,3.2109,0.7594,1.3384,-0.3223,2.5423,-0.5955,2.1621,-0.2335
1.7948,-0.7415,-0.1917,-0.7161,1.5395,-0.3222,4.2286,0.622,3.4972,0.6582,1.3548,-0.3459,2.4724,-0.5538,2.1499,-0.2469
1.7948,-0.7415,-0.1917,-0.7161,1.5395,-0.3222,4.2286,0.622,3.4972,0.6582,1.3548,-0.3459,2.4724,-0.5538,2.1499,-0.2469
1.7456,-0.6706,-0.3742,-0.507,1.4879,-0.304,4.2504,0.5905,3.481,0.7601,1.2746,-0.3442,2.2274,-0.5522,2.2557,-0.3374
1.7456,-0.6706,-0.3742,-0.507,1.4879,-0.304,4.2504,0.5905,3.481,0.7601,1.2746,-0.3442,2.2274,-0.5522,2.2557,-0.3374
1.6962,-0.5993,-0.3742,-0.507,1.6789,-0.3542,4.3501,0.5316,3.2602,1,1.2566,-0.3467,2.205,-0.5781,2.272,-0.3608
1.6962,-0.5993,-0.3742,-0.507,1.6789,-0.3542,4.3501,0.5316,3.2602,1,1.2566,-0.3467,2.205,-0.5781,2.272,-0.3608
1.6962,-0.5993,-0.3742,-0.507,1.6789,-0.3542,4.3501,0.5316,3.2602,1,1.2566,-0.3467,2.205,-0.5781,2.272,-0.3608
1.6962,-0.5993,-0.3742,-0.507,1.9924,-0.465,4.4284,0.504,3.0566,1.1373,1.2208,-0.3518,2.236,-0.6227,2.1945,-0.3422
1.6962,-0.5993,-0.3742,-0.507,1.9924,-0.465,4.4284,0.504,3.0566,1.1373,1.2208,-0.3518,2.236,-0.6227,2.1945,-0.3422
1.5583,-0.6044,-0.3361,-0.5619,2.1294,-0.5478,4.3718,0.5003,2.7397,1.0542,1.1737,-0.3971,2.0783,-0.6843,2.0284,-0.3187
1.5583,-0.6044,-0.3361,-0.5619,2.1294,-0.5478,4.3718,0.5003,2.7397,1.0542,1.1737,-0.3971,2.0783,-0.6843,2.0284,-0.3187
1.5453,-0.6533,-0.3782,-0.609,1.9924,-0.465,4.2594,0.4929,2.4987,0.9473,1.2043,-0.4695,1.9443,-0.7201,1.8357,-0.2858
1.5453,-0.6533,-0.3782,-0.609,1.9924,-0.465,4.2594,0.4929,2.4987,0.9473,1.2043,-0.4695,1.9443,-0.7201,1.8357,-0.2858
1.6187,-0.7592,-0.458,-0.6014,1.8399,-0.3593,4.1262,0.5164,2.4483,0.8702,1.1428,-0.4653,1.8181,-0.7087,1.7005,-0.273
1.6187,-0.7592,-0.458,-0.6014,1.8399,-0.3593,4.1262,0.5164,2.4483,0.8702,1.1428,-0.4653,1.8181,-0.7087,1.7005,-0.273
1.7295,-0.8513,-0.4883,-0.6113,1.6833,-0.304,4.1262,0.5164,2.4663,0.7696,1.0671,-0.4122,1.7661,-0.6903,1.6691,-0.2881
1.7295,-0.8513,-0.4883,-0.6113,1.6833,-0.304,4.1262,0.5164,2.4663,0.7696,1.0671,-0.4122,1.7661,-0.6903,1.6691,-0.2881
1.7295,-0.8513,-0.5675,-0.6038,1.5436,-0.2719,4.4583,0.3756,2.4554,0.711,0.9899,-0.3849,1.7143,-0.672,1.6653,-0.3129
1.7295,-0.8513,-0.5675,-0.6038,1.5436,-0.2719,4.4583,0.3756,2.4554,0.711,0.9899,-0.3849,1.7143,-0.672,1.6653,-0.3129
1.632,-0.7106,-0.6164,-0.5865,1.6112,-0.3131,4.6151,0.3202,2.495,0.7282,0.9385,-0.3668,1.8702,-0.7271,1.6616,-0.3377
1.632,-0.7106,-0.6164,-0.5865,1.6112,-0.3131,4.6151,0.3202,2.495,0.7282,0.9385,-0.3668,1.8702,-0.7271,1.6616,-0.3377
1.632,-0.7106,-0.6164,-0.5865,1.6112,-0.3131,4.6151,0.3202,2.495,0.7282,0.9385,-0.3668,1.8702,-0.7271,1.6616,-0.3377
1.632,-0.7106,-0.6164,-0.5865,1.6112,-0.3131,4.6151,0.3202,2.495,0.7282,0.9385,-0.3668,1.8702,-0.7271,1.6616,-0.3377
1.151,-0.7522,-0.7024,-0.7797,1.291,-0.3542,3.9939,0.5397,2.4443,0.6528,0.8415,-0.3938,1.9899,-0.7859,1.591,-0.3561
1.151,-0.7522,-0.7024,-0.7797,1.291,-0.3542,3.9939,0.5397,2.4443,0.6528,0.8415,-0.3938,1.9899,-0.7859,1.591,-0.3561
1.151,-0.7522,-0.7024,-0.7797,1.291,-0.3542,3.9939,0.5397,2.4443,0.6528,0.8415,-0.3938,1.9899,-0.7859,1.591,-0.3561
1.0059,-0.8054,-0.6769,-0.8691,1.1858,-0.3681,3.7321,0.5854,2.6493,0.5804,0.8227,-0.4221,1.8768,-0.6797,1.5519,-0.3596
1.0059,-0.8054,-0.6769,-0.8691,1.1858,-0.3681,3.7321,0.5854,2.6493,0.5804,0.8227,-0.4221,1.8768,-0.6797,1.5519,-0.3596
1.0059,-0.8054,-0.6769,-0.8691,1.1858,-0.3681,3.7321,0.5854,2.6493,0.5804,0.8227,-0.4221,1.8768,-0.6797,1.5519,-0.3596
1.0059,-0.8054,-0.6769,-0.8691,1.1858,-0.3681,3.7321,0.5854,2.6493,0.5804,0.8227,-0.4221,1.8768,-0.6797,1.5519,-0.3596
1.1374,-0.9296,-0.7877,-0.7092,1.0849,-0.3325,3.884,0.5317,3.2043,0.3843,0.8133,-0.4362,1.7572,-0.6209,1.6228,-0.4019
1.1374,-0.9296,-0.7877,-0.7092,1.0849,-0.3325,3.884,0.5317,3.2043,0.3843,0.8133,-0.4362,1.7572,-0.6209,1.6228,-0.4019
1.1374,-0.9296,-0.9211,-0.6216,1.1353,-0.3503,3.9603,0.5048,3.1025,0.6075,0.8227,-0.4221,1.7572,-0.6209,1.745,-0.4278
1.1374,-0.9296,-0.9211,-0.6216,1.1353,-0.3503,3.9603,0.5048,3.1025,0.6075,0.8227,-0.4221,1.7572,-0.6209,1.745,-0.4278
1.2708,-0.925,-0.9397,-0.5947,1.3732,-0.4173,4.0492,0.5437,3.0155,0.733,0.8656,-0.4285,1.8246,-0.6613,1.7885,-0.3999
1.2708,-0.925,-0.9397,-0.5947,1.3732,-0.4173,4.0492,0.5437,3.0155,0.733,0.8656,-0.4285,1.8246,-0.6613,1.7885,-0.3999
1.247,-0.8906,-0.9211,-0.6216,1.5109,-0.449,4.0276,0.5748,2.7647,0.7899,0.9421,-0.4556,1.7661,-0.6903,1.7566,-0.3539
1.247,-0.8906,-0.9211,-0.6216,1.5109,-0.449,4.0276,0.5748,2.7647,0.7899,0.9421,-0.4556,1.7661,-0.6903,1.7566,-0.3539
1.8503,-1.0255,-0.7767,-0.6726,1.4721,-0.2811,3.9843,0.6372,2.846,0.8246,1.1106,-0.4188,1.9509,-0.6727,1.768,-0.2794
1.8503,-1.0255,-0.7767,-0.6726,1.4721,-0.2811,3.9843,0.6372,2.846,0.8246,1.1106,-0.4188,1.9509,-0.6727,1.768,-0.2794
1.9412,-0.9525,-0.6986,-0.6799,1.4404,-0.2355,4.2161,0.5553,2.9279,0.8594,1.1397,-0.3762,1.9948,-0.6214,1.8277,-0.2742
1.9412,-0.9525,-0.6986,-0.6799,1.4404,-0.2355,4.2161,0.5553,2.9279,0.8594,1.1397,-0.3762,1.9948,-0.6214,1.8277,-0.2742
1.9412,-0.9525,-0.6986,-0.6799,1.4404,-0.2355,4.2161,0.5553,2.9279,0.8594,1.1397,-0.3762,1.9948,-0.6214,1.8277,-0.2742
1.9412,-0.9525,-0.6986,-0.6799,1.4404,-0.2355,4.2161,0.5553,2.9279,0.8594,1.1397,-0.3762,1.9948,-0.6214,1.8277,-0.2742
1.9591,-0.7728,-0.7062,-0.6162,1.5277,-0.249,4.5069,0.4762,2.9806,0.9369,1.1509,-0.336,2.3203,-0.6862,1.8676,-0.2707
1.9591,-0.7728,-0.7062,-0.6162,1.5277,-0.249,4.5069,0.4762,2.9806,0.9369,1.1509,-0.336,2.3203,-0.6862,1.8676,-0.2707
1.9591,-0.7728,-0.7062,-0.6162,1.5277,-0.249,4.5069,0.4762,2.9806,0.9369,1.1509,-0.336,2.3203,-0.6862,1.8676,-0.2707
1.4949,-0.7154,-0.6541,-0.7968,1.3419,-0.3722,3.9291,0.6331,2.869,0.9442,1.159,-0.3477,2.6822,-0.7972,1.9157,-0.2789
1.4949,-0.7154,-0.6541,-0.7968,1.3419,-0.3722,3.9291,0.6331,2.869,0.9442,1.159,-0.3477,2.6822,-0.7972,1.9157,-0.2789
1.4949,-0.7154,-0.6541,-0.7968,1.3419,-0.3722,3.9291,0.6331,2.869,0.9442,1.159,-0.3477,2.6822,-0.7972,1.9157,-0.2789
1.322,-0.7337,-0.5503,-0.8938,1.2871,-0.4039,3.7434,0.6517,2.8576,0.8842,1.1234,-0.3528,2.5273,-0.692,1.8956,-0.2806
1.322,-0.7337,-0.5503,-0.8938,1.2871,-0.4039,3.7434,0.6517,2.8576,0.8842,1.1234,-0.3528,2.5273,-0.692,1.8956,-0.2806
1.322,-0.7337,-0.5503,-0.8938,1.2871,-0.4039,3.7434,0.6517,2.8576,0.8842,1.1234,-0.3528,2.5273,-0.692,1.8956,-0.2806
1.3945,-0.8382,-0.6912,-0.7433,1.1858,-0.3681,3.635,0.6431,3.1691,0.7422,1.0621,-0.3488,2.2809,-0.5711,2.0485,-0.3171
1.3945,-0.8382,-0.6912,-0.7433,1.1858,-0.3681,3.635,0.6431,3.1691,0.7422,1.0621,-0.3488,2.2809,-0.5711,2.0485,-0.3171
1.4185,-0.8729,-0.8063,-0.6824,1.3026,-0.4264,3.7535,0.5545,3.0396,0.8519,1.0347,-0.3656,2.2205,-0.6004,2.1538,-0.3455
1.4185,-0.8729,-0.8063,-0.6824,1.3026,-0.4264,3.7535,0.5545,3.0396,0.8519,1.0347,-0.3656,2.2205,-0.6004,2.1538,-0.3455
1.4185,-0.8729,-0.9025,-0.6485,1.5065,-0.4984,3.8507,0.4969,2.8168,0.8667,0.9723,-0.3875,2.1381,-0.6553,2.0809,-0.3021
1.4185,-0.8729,-0.9025,-0.6485,1.5065,-0.4984,3.8507,0.4969,2.8168,0.8667,0.9723,-0.3875,2.1381,-0.6553,2.0809,-0.3021
1.3815,-0.886,-0.9612,-0.6681,1.609,-0.5346,3.7749,0.5237,2.5459,0.8042,0.9517,-0.4415,1.9291,-0.6982,1.9597,-0.2505
1.3815,-0.886,-0.9612,-0.6681,1.609,-0.5346,3.7749,0.5237,2.5459,0.8042,0.9517,-0.4415,1.9291,-0.6982,1.9597,-0.2505
1.4185,-0.8729,-0.9242,-0.7215,1.5309,-0.422,3.7749,0.5237,2.3479,0.7179,0.9231,-0.4837,1.6777,-0.6756,1.8833,-0.2323
1.4185,-0.8729,-0.9242,-0.7215,1.5309,-0.422,3.7749,0.5237,2.3479,0.7179,0.9231,-0.4837,1.6777,-0.6756,1.8833,-0.2323
1.4185,-0.8729,-0.9242,-0.7215,1.5309,-0.422,3.7749,0.5237,2.3479,0.7179,0.9231,-0.4837,1.6777,-0.6756,1.8833,-0.2323
1.7882,-1.0035,-0.8394,-0.7916,1.4009,-0.2904,3.6779,0.5812,2.4048,0.6358,0.939,-0.5067,1.6048,-0.6828,1.8552,-0.2224
1.7882,-1.0035,-0.8394,-0.7916,1.4009,-0.2904,3.6779,0.5812,2.4048,0.6358,0.939,-0.5067,1.6048,-0.6828,1.8552,-0.2224
1.7882,-1.0035,-0.8394,-0.7916,1.4009,-0.2904,3.6779,0.5812,2.4048,0.6358,0.939,-0.5067,1.6048,-0.6828,1.8552,-0.2224
2.3138,-1.2154,-0.8689,-0.8012,1.2634,-0.259,3.8721,0.4661,2.7464,0.5151,0.8736,-0.4401,1.6048,-0.6828,1.9678,-0.2621
2.3138,-1.2154,-0.8689,-0.8012,1.2634,-0.259,3.8721,0.4661,2.7464,0.5151,0.8736,-0.4401,1.6048,-0.6828,1.9678,-0.2621
2.2175,-1.0765,-0.8394,-0.7916,1.1774,-0.2458,4.1779,0.358,2.7869,0.5317,0.8227,-0.4221,1.6563,-0.701,1.996,-0.2721
2.2175,-1.0765,-0.8394,-0.7916,1.1774,-0.2458,4.1779,0.358,2.7869,0.5317,0.8227,-0.4221,1.6563,-0.701,1.996,-0.2721
2.2175,-1.0765,-0.8394,-0.7916,1.1774,-0.2458,4.1779,0.358,2.7869,0.5317,0.8227,-0.4221,1.6563,-0.701,1.996,-0.2721
2.0183,-0.9269,-0.8873,-0.7747,1.1738,-0.2958,4.2549,0.3308,2.6895,0.5972,0.7879,-0.4272,1.8787,-0.796,1.9396,-0.2522
2.0183,-0.9269,-0.8873,-0.7747,1.1738,-0.2958,4.2549,0.3308,2.6895,0.5972,0.7879,-0.4272,1.8787,-0.796,1.9396,-0.2522
2.0183,-0.9269,-0.8873,-0.7747,1.1738,-0.2958,4.2549,0.3308,2.6895,0.5972,0.7879,-0.4272,1.8787,-0.796,1.9396,-0.2522
2.0183,-0.9269,-0.8873,-0.7747,1.1738,-0.2958,4.2549,0.3308,2.6895,0.5972,0.7879,-0.4272,1.8787,-0.796,1.9396,-0.2522
1.5545,-0.8685,-0.7294,-0.9502,1.0621,-0.409,3.6878,0.4848,2.6208,0.6215,0.7677,-0.4809,1.9224,-0.7455,1.8633,-0.234
1.5545,-0.8685,-0.7294,-0.9502,1.0621,-0.409,3.6878,0.4848,2.6208,0.6215,0.7677,-0.4809,1.9224,-0.7455,1.8633,-0.234
1.5545,-0.8685,-0.7294,-0.9502,1.0621,-0.409,3.6878,0.4848,2.6208,0.6215,0.7677,-0.4809,1.9224,-0.7455,1.8633,-0.234
1.5545,-0.8685,-0.7294,-0.9502,1.0621,-0.409,3.6878,0.4848,2.6208,0.6215,0.7677,-0.4809,1.9224,-0.7455,1.8633,-0.234
1.5171,-0.8816,-0.67,-0.9314,1.1471,-0.4221,3.4842,0.5336,3.1627,0.368,0.7129,-0.5392,1.6321,-0.6098,1.7079,-0.2231
1.5171,-0.8816,-0.67,-0.9314,1.1471,-0.4221,3.4842,0.5336,3.1627,0.368,0.7129,-0.5392,1.6321,-0.6098,1.7079,-0.2231
1.5171,-0.8816,-0.67,-0.9314,1.1471,-0.4221,3.4842,0.5336,3.1627,0.368,0.7129,-0.5392,1.6321,-0.6098,1.7079,-0.2231
1.4203,-0.7421,-0.8839,-0.6752,1.3026,-0.4264,3.6551,0.4502,3.0611,0.5907,0.6533,-0.5354,1.4356,-0.6065,1.8319,-0.3107
1.3717,-0.6719,-0.9505,-0.6315,1.5779,-0.4896,3.7303,0.4236,2.8344,0.7653,0.619,-0.5404,1.46,-0.6973,1.812,-0.3124
1.3717,-0.6719,-0.9505,-0.6315,1.5779,-0.4896,3.7303,0.4236,2.8344,0.7653,0.619,-0.5404,1.46,-0.6973,1.812,-0.3124
1.3717,-0.6719,-0.9505,-0.6315,1.5779,-0.4896,3.7303,0.4236,2.8344,0.7653,0.619,-0.5404,1.46,-0.6973,1.812,-0.3124
1.3103,-0.6502,-0.9025,-0.6485,1.7325,-0.5443,3.8057,0.397,2.4554,0.711,0.5912,-0.582,1.2901,-0.7838,1.6573,-0.3014
1.3103,-0.6502,-0.9025,-0.6485,1.7325,-0.5443,3.8057,0.397,2.4554,0.711,0.5912,-0.582,1.2901,-0.7838,1.6573,-0.3014
1.3103,-0.6502,-0.9025,-0.6485,1.7325,-0.5443,3.8057,0.397,2.4554,0.711,0.5912,-0.582,1.2901,-0.7838,1.6573,-0.3014
1.2366,-0.6772,-0.9133,-0.6851,1.6496,-0.4809,3.7303,0.4236,2.0858,0.6561,0.6054,-0.6297,1.1428,-0.8446,1.5121,-0.3022
1.2366,-0.6772,-0.9133,-0.6851,1.6496,-0.4809,3.7303,0.4236,2.0858,0.6561,0.6054,-0.6297,1.1428,-0.8446,1.5121,-0.3022
1.3462,-0.7686,-0.9242,-0.7215,1.4995,-0.3767,3.7514,0.3931,1.9426,0.6455,0.6211,-0.6523,1.0229,-0.8343,1.4068,-0.2997
1.5171,-0.8816,-1.0487,-0.6976,1.2791,-0.2817,3.5477,0.4421,1.9426,0.6455,0.5727,-0.6096,1.0431,-0.8094,1.3409,-0.2937
1.5171,-0.8816,-1.0487,-0.6976,1.2791,-0.2817,3.5477,0.4421,1.9426,0.6455,0.5727,-0.6096,1.0431,-0.8094,1.3409,-0.2937
1.6643,-0.9598,-1.0487,-0.6976,1.1931,-0.2684,3.6974,0.3892,2.0649,0.5413,0.4837,-0.5355,1.0431,-0.8094,1.2751,-0.2877
1.6643,-0.9598,-1.0487,-0.6976,1.1931,-0.2684,3.6974,0.3892,2.0649,0.5413,0.4837,-0.5355,1.0431,-0.8094,1.2751,-0.2877
1.6643,-0.9598,-1.0487,-0.6976,1.1931,-0.2684,3.6974,0.3892,2.0649,0.5413,0.4837,-0.5355,1.0431,-0.8094,1.2751,-0.2877
1.6643,-0.9598,-1.0962,-0.6808,1.1232,-0.2779,4.0755,0.2556,2.198,0.4943,0.4443,-0.4787,1.0929,-0.827,1.3102,-0.3087
1.6643,-0.9598,-1.0962,-0.6808,1.1232,-0.2779,4.0755,0.2556,2.198,0.4943,0.4443,-0.4787,1.0929,-0.827,1.3102,-0.3087
1.5678,-0.8206,-1.1147,-0.6542,1.2245,-0.3137,4.3822,0.1473,2.276,0.5277,0.4127,-0.4332,1.3286,-0.8942,1.4113,-0.3358
1.3589,-0.7204,-1.1725,-0.6739,1.2208,-0.3635,4.2841,0.2049,2.3151,0.5444,0.4048,-0.4218,1.603,-0.959,1.4501,-0.3323
1.3589,-0.7204,-1.1725,-0.6739,1.2208,-0.3635,4.2841,0.2049,2.3151,0.5444,0.4048,-0.4218,1.603,-0.959,1.4501,-0.3323
0.8982,-0.7152,-1.1204,-0.8517,1.0466,-0.3866,3.6224,0.4157,2.2869,0.585,0.4467,-0.4279,1.7632,-0.9672,1.5005,-0.3155
0.9581,-0.7364,-1.0443,-0.8588,1.0813,-0.382,3.5477,0.4421,2.5011,0.5709,0.5557,-0.4492,1.7984,-0.8496,1.5708,-0.2969
0.9581,-0.7364,-1.0443,-0.8588,1.0813,-0.382,3.5477,0.4421,2.5011,0.5709,0.5557,-0.4492,1.7984,-0.8496,1.5708,-0.2969
1.1626,-0.8347,-1.0701,-0.7701,1.116,-0.3774,3.6013,0.4462,2.8559,0.5073,0.623,-0.4643,1.7597,-0.7375,1.6297,-0.2916
1.1626,-0.8347,-1.0701,-0.7701,1.116,-0.3774,3.6013,0.4462,2.8559,0.5073,0.623,-0.4643,1.7597,-0.7375,1.6297,-0.2916
1.1626,-0.8347,-1.0701,-0.7701,1.116,-0.3774,3.6013,0.4462,2.8559,0.5073,0.623,-0.4643,1.7597,-0.7375,1.6297,-0.2916
1.2837,-0.8775,-1.1436,-0.6641,1.1509,-0.3727,3.6763,0.4197,3.2461,0.4005,0.7078,-0.477,1.7509,-0.6684,1.7166,-0.2962
1.2837,-0.8775,-1.1436,-0.6641,1.1509,-0.3727,3.6763,0.4197,3.2461,0.4005,0.7078,-0.477,1.7509,-0.6684,1.7166,-0.2962
1.2837,-0.8775,-1.1436,-0.6641,1.1509,-0.3727,3.6763,0.4197,3.2461,0.4005,0.7078,-0.477,1.7509,-0.6684,1.7166,-0.2962
1.3574,-0.8514,-1.1806,-0.6108,1.2715,-0.3814,3.8601,0.4008,3.2879,0.4168,0.7172,-0.463,1.6991,-0.6501,1.8839,-0.3553
1.4316,-0.8251,-1.1991,-0.5841,1.5265,-0.4715,3.8176,0.4621,3.115,0.6662,0.7345,-0.4605,1.6473,-0.6318,1.9801,-0.3718
1.4316,-0.8251,-1.1991,-0.5841,1.5265,-0.4715,3.8176,0.4621,3.115,0.6662,0.7345,-0.4605,1.6473,-0.6318,1.9801,-0.3718
1.4446,-0.777,-1.1806,-0.6108,1.5622,-0.4671,3.7206,0.5196,2.8053,0.8072,0.7172,-0.463,1.6563,-0.701,1.9279,-0.3271
1.4446,-0.777,-1.1806,-0.6108,1.5622,-0.4671,3.7206,0.5196,2.8053,0.8072,0.7172,-0.463,1.6563,-0.701,1.9279,-0.3271
1.4074,-0.7903,-1.1252,-0.6907,1.4953,-0.4264,3.6665,0.5155,2.5748,0.7626,0.7489,-0.5088,1.5262,-0.7371,1.8158,-0.2875
1.4074,-0.7903,-1.1252,-0.6907,1.4953,-0.4264,3.6665,0.5155,2.5748,0.7626,0.7489,-0.5088,1.5262,-0.7371,1.8158,-0.2875
1.4074,-0.7903,-1.1252,-0.6907,1.4953,-0.4264,3.6665,0.5155,2.5748,0.7626,0.7489,-0.5088,1.5262,-0.7371,1.8158,-0.2875
1.592,-0.8555,-1.0518,-0.7965,1.397,-0.3405,3.5377,0.5379,2.4554,0.711,0.8233,-0.561,1.4331,-0.7694,1.6925,-0.2614
1.592,-0.8555,-1.0518,-0.7965,1.397,-0.3405,3.5377,0.5379,2.4554,0.711,0.8233,-0.561,1.4331,-0.7694,1.6925,-0.2614
1.592,-0.8555,-1.0518,-0.7965,1.397,-0.3405,3.5377,0.5379,2.4554,0.711,0.8233,-0.561,1.4331,-0.7694,1.6925,-0.2614
2.0764,-1.0792,-1.0443,-0.8588,1.1581,-0.2732,3.5477,0.4421,2.6092,0.5636,0.8312,-0.5724,1.3972,-0.773,1.5664,-0.2605
2.0764,-1.0792,-1.0443,-0.8588,1.1581,-0.2732,3.5477,0.4421,2.6092,0.5636,0.8312,-0.5724,1.3972,-0.773,1.5664,-0.2605
2.0426,-0.9619,-1.0625,-0.8325,1.057,-0.2375,3.7725,0.3627,2.6895,0.5972,0.801,-0.5013,1.4181,-0.7479,1.594,-0.2703
2.0426,-0.9619,-1.0625,-0.8325,1.057,-0.2375,3.7725,0.3627,2.6895,0.5972,0.801,-0.5013,1.4181,-0.7479,1.594,-0.2703
1.8714,-0.715,-1.0991,-0.7798,1.0884,-0.2827,3.9024,0.3398,2.7415,0.6723,0.7691,-0.4553,1.5051,-0.7623,1.6217,-0.2801
1.8714,-0.715,-1.0991,-0.7798,1.0884,-0.2827,3.9024,0.3398,2.7415,0.6723,0.7691,-0.4553,1.5051,-0.7623,1.6217,-0.2801
1.6206,-0.6264,-1.1751,-0.7729,1.1353,-0.3503,3.8057,0.397,2.7242,0.7727,0.7452,-0.4208,1.7833,-0.8279,1.7048,-0.3095
1.6206,-0.6264,-1.1751,-0.7729,1.1353,-0.3503,3.8057,0.397,2.7242,0.7727,0.7452,-0.4208,1.7833,-0.8279,1.7048,-0.3095
1.6206,-0.6264,-1.1751,-0.7729,1.1353,-0.3503,3.8057,0.397,2.7242,0.7727,0.7452,-0.4208,1.7833,-0.8279,1.7048,-0.3095
1.3843,-0.6231,-1.1204,-0.8517,1.0621,-0.409,3.431,0.5294,2.7356,0.8319,0.7705,-0.4298,2.0955,-0.9382,1.7524,-0.3176
1.3843,-0.6231,-1.1204,-0.8517,1.0621,-0.409,3.431,0.5294,2.7356,0.8319,0.7705,-0.4298,2.0955,-0.9382,1.7524,-0.3176
1.3843,-0.6231,-1.1204,-0.8517,1.0621,-0.409,3.431,0.5294,2.7356,0.8319,0.7705,-0.4298,2.0955,-0.9382,1.7524,-0.3176
0.9341,-0.7018,-0.8342,-1.1103,0.9017,-0.5031,2.8759,0.6107,2.5859,0.8215,0.7851,-0.4783,2.0955,-0.9382,1.7128,-0.321
0.9341,-0.7018,-0.8342,-1.1103,0.9017,-0.5031,2.8759,0.6107,2.5859,0.8215,0.7851,-0.4783,2.0955,-0.9382,1.7128,-0.321
0.9581,-0.7364,-0.8342,-1.1103,0.871,-0.4589,2.8245,0.6061,2.5748,0.7626,0.7583,-0.4949,1.8787,-0.796,1.7011,-0.3342
0.9581,-0.7364,-0.8342,-1.1103,0.871,-0.4589,2.8245,0.6061,2.5748,0.7626,0.7583,-0.4949,1.8787,-0.796,1.7011,-0.3342
1.0181,-0.7576,-0.9244,-0.9803,0.8745,-0.41,2.8664,0.5457,2.6724,0.6967,0.7158,-0.4885,1.6991,-0.6501,1.6536,-0.3262
1.0181,-0.7576,-0.9244,-0.9803,0.8745,-0.41,2.8664,0.5457,2.6724,0.6967,0.7158,-0.4885,1.6991,-0.6501,1.6536,-0.3262
1.0181,-0.7576,-0.9244,-0.9803,0.8745,-0.41,2.8664,0.5457,2.6724,0.6967,0.7158,-0.4885,1.6991,-0.6501,1.6536,-0.3262
1.0783,-0.7789,-1.128,-0.7895,0.8591,-0.3877,2.8872,0.5157,2.8682,0.5652,0.6654,-0.4707,1.6321,-0.6098,1.6063,-0.3182
1.0783,-0.7789,-1.128,-0.7895,0.8591,-0.3877,2.8872,0.5157,2.8682,0.5652,0.6654,-0.4707,1.6321,-0.6098,1.6063,-0.3182
1.0783,-0.7789,-1.128,-0.7895,0.8591,-0.3877,2.8872,0.5157,2.8682,0.5652,0.6654,-0.4707,1.6321,-0.6098,1.6063,-0.3182
1.2597,-0.843,-1.2955,-0.6505,1.093,-0.4536,3.1671,0.3489,2.7415,0.6723,0.5887,-0.4695,1.5896,-0.661,1.7766,-0.413
1.2597,-0.843,-1.2955,-0.6505,1.093,-0.4536,3.1671,0.3489,2.7415,0.6723,0.5887,-0.4695,1.5896,-0.661,1.7766,-0.413
1.1991,-0.8216,-1.4177,-0.6273,1.2593,-0.5292,3.1358,0.315,2.5459,0.8042,0.5294,-0.4658,1.635,-0.7263,1.7926,-0.436
1.1991,-0.8216,-1.4177,-0.6273,1.2593,-0.5292,3.1358,0.315,2.5459,0.8042,0.5294,-0.4658,1.635,-0.7263,1.7926,-0.436
1.1262,-0.8479,-1.4378,-0.6999,1.2439,-0.5069,3.1045,0.2811,2.2906,0.8004,0.4771,-0.4989,1.5711,-0.8019,1.6345,-0.3888
1.2837,-0.8775,-1.4196,-0.7262,1.182,-0.4176,3.1045,0.2811,1.9627,0.7611,0.4327,-0.5431,1.3703,-0.8445,1.4739,-0.3665
1.2837,-0.8775,-1.4196,-0.7262,1.182,-0.4176,3.1045,0.2811,1.9627,0.7611,0.4327,-0.5431,1.3703,-0.8445,1.4739,-0.3665
1.2837,-0.8775,-1.4196,-0.7262,1.182,-0.4176,3.1045,0.2811,1.9627,0.7611,0.4327,-0.5431,1.3703,-0.8445,1.4739,-0.3665
1.4293,-0.955,-1.4479,-0.736,1.1316,-0.3998,3.3227,0.204,1.8765,0.6688,0.3989,-0.5482,1.3286,-0.8942,1.3998,-0.349
1.4293,-0.955,-1.4479,-0.736,1.1316,-0.3998,3.3227,0.204,1.8765,0.6688,0.3989,-0.5482,1.3286,-0.8942,1.3998,-0.349
1.4185,-0.8729,-1.4297,-0.7622,1.0311,-0.3643,3.5961,0.1299,1.8944,0.5712,0.3248,-0.522,1.2075,-0.8835,1.3726,-0.3394
1.4185,-0.8729,-1.4297,-0.7622,1.0311,-0.3643,3.5961,0.1299,1.8944,0.5712,0.3248,-0.522,1.2075,-0.8835,1.3726,-0.3394
1.4185,-0.8729,-1.4297,-0.7622,1.0311,-0.3643,3.5961,0.1299,1.8944,0.5712,0.3248,-0.522,1.2075,-0.8835,1.3726,-0.3394
1.3832,-0.7554,-1.4761,-0.7458,1.0311,-0.3643,3.7031,0.137,1.8286,0.5945,0.3001,-0.5133,1.2075,-0.8835,1.3726,-0.3394
1.3832,-0.7554,-1.4761,-0.7458,1.0311,-0.3643,3.7031,0.137,1.8286,0.5945,0.3001,-0.5133,1.2075,-0.8835,1.3726,-0.3394
1.3832,-0.7554,-1.4761,-0.7458,1.0311,-0.3643,3.7031,0.137,1.8286,0.5945,0.3001,-0.5133,1.2075,-0.8835,1.3726,-0.3394
1.3832,-0.7554,-1.4761,-0.7458,1.0311,-0.3643,3.7031,0.137,1.8286,0.5945,0.3001,-0.5133,1.2075,-0.8835,1.3726,-0.3394
1.0906,-0.7309,-1.3213,-0.9186,0.9242,-0.4275,3.2825,0.4214,1.8385,0.6517,0.2174,-0.5011,1.3875,-0.9791,1.3681,-0.3033
1.0906,-0.7309,-1.3213,-0.9186,0.9242,-0.4275,3.2825,0.4214,1.8385,0.6517,0.2174,-0.5011,1.3875,-0.9791,1.3681,-0.3033
1.2357,-0.8084,-1.1312,-0.8875,1.0275,-0.4136,3.1463,0.5381,2.1421,0.575,0.3079,-0.5246,1.3138,-0.8729,1.3989,-0.2882
1.2357,-0.8084,-1.1312,-0.8875,1.0275,-0.4136,3.1463,0.5381,2.1421,0.575,0.3079,-0.5246,1.3138,-0.8729,1.3989,-0.2882
1.2357,-0.8084,-1.1312,-0.8875,1.0275,-0.4136,3.1463,0.5381,2.1421,0.575,0.3079,-0.5246,1.3138,-0.8729,1.3989,-0.2882
1.3462,-0.7686,-1.1174,-0.7534,1.0155,-0.3419,3.3038,0.5513,2.6257,0.4653,0.3844,-0.5004,1.2901,-0.7838,1.4687,-0.2695
1.3462,-0.7686,-1.1174,-0.7534,1.0155,-0.3419,3.3038,0.5513,2.6257,0.4653,0.3844,-0.5004,1.2901,-0.7838,1.4687,-0.2695
1.396,-0.707,-1.1252,-0.6907,1.1197,-0.3278,3.4521,0.4989,2.8559,0.5073,0.4613,-0.4761,1.3465,-0.7551,1.6297,-0.2916
1.396,-0.707,-1.1252,-0.6907,1.1197,-0.3278,3.4521,0.4989,2.8559,0.5073,0.4613,-0.4761,1.3465,-0.7551,1.6297,-0.2916
1.396,-0.707,-1.1252,-0.6907,1.1197,-0.3278,3.4521,0.4989,2.8559,0.5073,0.4613,-0.4761,1.3465,-0.7551,1.6297,-0.2916
1.4587,-0.596,-1.0381,-0.6611,1.6182,-0.4357,3.7091,0.4542,2.7177,0.9336,0.5728,-0.4466,1.4031,-0.7263,1.8598,-0.3206
1.4587,-0.596,-1.0381,-0.6611,1.6182,-0.4357,3.7091,0.4542,2.7177,0.9336,0.5728,-0.4466,1.4031,-0.7263,1.8598,-0.3206
1.4587,-0.596,-1.0381,-0.6611,1.6182,-0.4357,3.7091,0.4542,2.7177,0.9336,0.5728,-0.4466,1.4031,-0.7263,1.8598,-0.3206
1.5207,-0.6179,-1.0672,-0.671,1.6227,-0.3859,3.6339,0.4808,2.4589,0.9296,0.6217,-0.4898,1.3763,-0.7981,1.7283,-0.2829
1.5207,-0.6179,-1.0672,-0.671,1.6227,-0.3859,3.6339,0.4808,2.4589,0.9296,0.6217,-0.4898,1.3763,-0.7981,1.7283,-0.2829
1.6698,-0.6973,-1.0962,-0.6808,1.5236,-0.2994,3.5802,0.4767,2.2332,0.8833,0.6705,-0.5328,1.2694,-0.8089,1.6217,-0.2801
1.9066,-0.8343,-1.1436,-0.6641,1.4563,-0.2583,3.5054,0.5031,2.1553,0.8482,0.6878,-0.5303,1.2191,-0.7911,1.5272,-0.2641
1.9066,-0.8343,-1.1436,-0.6641,1.4563,-0.2583,3.5054,0.5031,2.1553,0.8482,0.6878,-0.5303,1.2191,-0.7911,1.5272,-0.2641
1.9066,-0.8343,-1.1436,-0.6641,1.4563,-0.2583,3.5054,0.5031,2.1553,0.8482,0.6878,-0.5303,1.2191,-0.7911,1.5272,-0.2641
1.8821,-0.799,-1.1909,-0.6474,1.4207,-0.263,3.8268,0.3665,2.2125,0.7657,0.6733,-0.4821,1.2191,-0.7911,1.5157,-0.2774
1.8821,-0.799,-1.1909,-0.6474,1.4207,-0.263,3.8268,0.3665,2.2125,0.7657,0.6733,-0.4821,1.2191,-0.7911,1.5157,-0.2774
1.8084,-0.6927,-1.1909,-0.6474,1.4365,-0.2858,4.0544,0.2861,2.241,0.7246,0.6084,-0.4159,1.2694,-0.8089,1.5236,-0.2889
1.8084,-0.6927,-1.1909,-0.6474,1.4365,-0.2858,4.0544,0.2861,2.241,0.7246,0.6084,-0.4159,1.2694,-0.8089,1.5236,-0.2889
1.5698,-0.6887,-1.2405,-0.7299,1.3616,-0.345,3.9236,0.3093,2.3086,0.7007,0.5753,-0.3956,1.4716,-0.8803,1.5316,-0.3004
1.5698,-0.6887,-1.2405,-0.7299,1.3616,-0.345,3.9236,0.3093,2.3086,0.7007,0.5753,-0.3956,1.4716,-0.8803,1.5316,-0.3004
1.2366,-0.6772,-1.2718,-0.8378,1.1858,-0.3681,3.6435,0.3853,2.202,0.7074,0.5411,-0.4008,1.6392,-0.9556,1.5396,-0.3119
1.2366,-0.6772,-1.2718,-0.8378,1.1858,-0.3681,3.6435,0.3853,2.202,0.7074,0.5411,-0.4008,1.6392,-0.9556,1.5396,-0.3119
1.1876,-0.7389,-1.3003,-0.8474,1.116,-0.3774,3.4943,0.438,2.337,0.6597,0.5319,-0.4149,1.6523,-0.8631,1.5316,-0.3004
1.1876,-0.7389,-1.3003,-0.8474,1.116,-0.3774,3.4943,0.438,2.337,0.6597,0.5319,-0.4149,1.6523,-0.8631,1.5316,-0.3004
1.2357,-0.8084,-1.3548,-0.7689,1.0311,-0.3643,3.4943,0.438,2.7061,0.4985,0.5557,-0.4492,1.5924,-0.7768,1.5236,-0.2889
1.3205,-0.8644,-1.456,-0.6736,1.0657,-0.3596,3.5688,0.4117,3.0515,0.3764,0.5557,-0.4492,1.5262,-0.7371,1.626,-0.3164
1.3205,-0.8644,-1.456,-0.6736,1.0657,-0.3596,3.5688,0.4117,3.0515,0.3764,0.5557,-0.4492,1.5262,-0.7371,1.626,-0.3164
1.2965,-0.8298,-1.456,-0.6736,1.1664,-0.3952,3.5688,0.4117,3.0772,0.4913,0.5557,-0.4492,1.475,-0.719,1.7924,-0.3752
1.2965,-0.8298,-1.456,-0.6736,1.1664,-0.3952,3.5688,0.4117,3.0772,0.4913,0.5557,-0.4492,1.475,-0.719,1.7924,-0.3752
1.2965,-0.8298,-1.456,-0.6736,1.1664,-0.3952,3.5688,0.4117,3.0772,0.4913,0.5557,-0.4492,1.475,-0.719,1.7924,-0.3752
1.3093,-0.7819,-1.5026,-0.6572,1.369,-0.4667,3.5477,0.4421,2.8634,0.7235,0.5136,-0.4429,1.3881,-0.7046,1.884,-0.4163
1.3093,-0.7819,-1.5026,-0.6572,1.369,-0.4667,3.5477,0.4421,2.8634,0.7235,0.5136,-0.4429,1.3881,-0.7046,1.884,-0.4163
1.3093,-0.7819,-1.5026,-0.6572,1.369,-0.4667,3.5477,0.4421,2.8634,0.7235,0.5136,-0.4429,1.3881,-0.7046,1.884,-0.4163
1.2851,-0.7471,-1.4843,-0.6835,1.4554,-0.4803,3.4521,0.4989,2.637,0.8984,0.4795,-0.4481,1.4181,-0.7479,1.86,-0.3817
1.2851,-0.7471,-1.4843,-0.6835,1.4554,-0.4803,3.4521,0.4989,2.637,0.8984,0.4795,-0.4481,1.4181,-0.7479,1.86,-0.3817
1.2851,-0.7471,-1.4479,-0.736,1.3732,-0.4173,3.399,0.4947,2.3404,0.8768,0.4692,-0.4875,1.2546,-0.7875,1.6931,-0.3227
1.493,-0.8468,-1.365,-0.8048,1.2402,-0.3363,3.2932,0.4861,2.1553,0.8482,0.5505,-0.5505,1.1485,-0.7984,1.5708,-0.2969
1.493,-0.8468,-1.365,-0.8048,1.2402,-0.3363,3.2932,0.4861,2.1553,0.8482,0.5505,-0.5505,1.1485,-0.7984,1.5708,-0.2969
1.678,-0.9122,-1.3469,-0.831,1.104,-0.3052,3.3881,0.4298,2.2125,0.7657,0.5676,-0.548,1.1281,-0.8233,1.4687,-0.2695
1.7295,-0.8513,-1.3184,-0.8213,1.0034,-0.2697,3.5783,0.317,2.2515,0.783,0.5282,-0.4912,1.1633,-0.8197,1.4492,-0.2713
1.7295,-0.8513,-1.3184,-0.8213,1.0034,-0.2697,3.5783,0.317,2.2515,0.783,0.5282,-0.4912,1.1633,-0.8197,1.4492,-0.2713
1.7295,-0.8513,-1.3184,-0.8213,1.0034,-0.2697,3.5783,0.317,2.2515,0.783,0.5282,-0.4912,1.1633,-0.8197,1.4492,-0.2713
1.5207,-0.6179,-1.3832,-0.7787,0.9844,-0.297,3.6528,0.2906,2.2229,0.8243,0.5045,-0.457,1.2488,-0.8338,1.4651,-0.2943
1.5207,-0.6179,-1.3832,-0.7787,0.9844,-0.297,3.6528,0.2906,2.2229,0.8243,0.5045,-0.457,1.2488,-0.8338,1.4651,-0.2943
1.2983,-0.566,-1.4681,-0.8078,0.962,-0.3736,3.377,0.3653,2.3011,0.8593,0.4886,-0.4341,1.5224,-0.8983,1.4926,-0.304
1.2983,-0.566,-1.4681,-0.8078,0.962,-0.3736,3.377,0.3653,2.3011,0.8593,0.4886,-0.4341,1.5224,-0.8983,1.4926,-0.304
1.03,-0.5777,-1.4243,-0.9213,0.8369,-0.4636,3.0011,0.4301,2.3011,0.8593,0.4886,-0.4341,1.8294,-1.0067,1.481,-0.3172
1.03,-0.5777,-1.4243,-0.9213,0.8369,-0.4636,3.0011,0.4301,2.3011,0.8593,0.4886,-0.4341,1.8294,-1.0067,1.481,-0.3172
0.8501,-0.6459,-1.3528,-1.0244,0.7163,-0.5041,2.7244,0.4378,2.2229,0.8243,0.4874,-0.4595,1.9475,-1.0646,1.4421,-0.3208
0.8501,-0.6459,-1.3528,-1.0244,0.7163,-0.5041,2.7244,0.4378,2.2229,0.8243,0.4874,-0.4595,1.9475,-1.0646,1.4421,-0.3208
0.8501,-0.6459,-1.3528,-1.0244,0.7163,-0.5041,2.7244,0.4378,2.2229,0.8243,0.4874,-0.4595,1.9475,-1.0646,1.4421,-0.3208
0.7672,-0.7211,-1.335,-1.0501,0.6336,-0.4915,2.4817,0.4788,2.2515,0.783,0.4613,-0.4761,1.8513,-0.9821,1.4113,-0.3358
0.7672,-0.7211,-1.335,-1.0501,0.6336,-0.4915,2.4817,0.4788,2.2515,0.783,0.4613,-0.4761,1.8513,-0.9821,1.4113,-0.3358
0.8505,-0.7765,-1.5425,-0.8012,0.6031,-0.4476,2.3324,0.4646,2.6658,0.4819,0.3023,-0.4628,1.4121,-0.7945,1.2412,-0.3274
0.8505,-0.7765,-1.5425,-0.8012,0.6031,-0.4476,2.3324,0.4646,2.6658,0.4819,0.3023,-0.4628,1.4121,-0.7945,1.2412,-0.3274
0.8505,-0.7765,-1.5425,-0.8012,0.6031,-0.4476,2.3324,0.4646,2.6658,0.4819,0.3023,-0.4628,1.4121,-0.7945,1.2412,-0.3274
0.9699,-0.8187,-1.6695,-0.6181,0.6215,-0.4208,2.4727,0.4151,2.7626,0.417,0.2855,-0.4655,1.2752,-0.7624,1.2491,-0.3387
0.9699,-0.8187,-1.6695,-0.6181,0.6215,-0.4208,2.4727,0.4151,2.7626,0.417,0.2855,-0.4655,1.2752,-0.7624,1.2491,-0.3387
0.9699,-0.8187,-1.6695,-0.6181,0.6215,-0.4208,2.4727,0.4151,2.7626,0.417,0.2855,-0.4655,1.2752,-0.7624,1.2491,-0.3387
0.9699,-0.8187,-1.6695,-0.6181,0.6215,-0.4208,2.4727,0.4151,2.7626,0.417,0.2855,-0.4655,1.2752,-0.7624,1.2491,-0.3387
1.1023,-0.8134,-1.7888,-0.4962,1.0047,-0.4895,2.9188,0.3916,2.6092,0.5636,0.336,-0.4576,1.2694,-0.8089,1.5682,-0.4429
1.1023,-0.8134,-1.7888,-0.4962,1.0047,-0.4895,2.9188,0.3916,2.6092,0.5636,0.336,-0.4576,1.2694,-0.8089,1.5682,-0.4429
1.1146,-0.7656,-1.7798,-0.5592,1.2398,-0.5558,3.1256,0.4088,2.3764,0.6768,0.354,-0.4296,1.3198,-0.8267,1.619,-0.4264
1.1146,-0.7656,-1.7798,-0.5592,1.2398,-0.5558,3.1256,0.4088,2.3764,0.6768,0.354,-0.4296,1.3198,-0.8267,1.619,-0.4264
1.1146,-0.7656,-1.7798,-0.5592,1.2398,-0.5558,3.1256,0.4088,2.3764,0.6768,0.354,-0.4296,1.3198,-0.8267,1.619,-0.4264
1.0906,-0.7309,-1.7433,-0.6118,1.345,-0.5426,3.2932,0.4861,2.0576,0.6968,0.4048,-0.4218,1.2635,-0.8551,1.5677,-0.3824
1.3832,-0.7554,-1.5869,-0.6869,1.2871,-0.4039,3.431,0.5294,1.6975,0.6408,0.4886,-0.4341,1.1575,-0.8658,1.4695,-0.3305
1.3832,-0.7554,-1.5869,-0.6869,1.2871,-0.4039,3.431,0.5294,1.6975,0.6408,0.4886,-0.4341,1.1575,-0.8658,1.4695,-0.3305
1.6674,-0.8293,-1.5687,-0.7131,1.2558,-0.3589,3.5914,0.5421,1.6131,0.5499,0.5661,-0.4096,1.0523,-0.8766,1.4342,-0.3094
1.8543,-0.8954,-1.5506,-0.7393,1.1197,-0.3278,3.8388,0.4315,1.7331,0.4476,0.6201,-0.3505,0.9623,-0.9086,1.4457,-0.2961
1.8543,-0.8954,-1.5506,-0.7393,1.1197,-0.3278,3.8388,0.4315,1.7331,0.4476,0.6201,-0.3505,0.9623,-0.9086,1.4457,-0.2961
1.8543,-0.8954,-1.5506,-0.7393,1.1197,-0.3278,3.8388,0.4315,1.7331,0.4476,0.6201,-0.3505,0.9623,-0.9086,1.4457,-0.2961
1.7948,-0.7415,-1.5043,-0.7556,1.0346,-0.3147,4.0884,0.3202,1.8256,0.3851,0.6316,-0.2847,0.8185,-0.9685,1.4926,-0.304
1.7948,-0.7415,-1.5043,-0.7556,1.0346,-0.3147,4.0884,0.3202,1.8256,0.3851,0.6316,-0.2847,0.8185,-0.9685,1.4926,-0.304
1.7948,-0.7415,-1.5043,-0.7556,1.0346,-0.3147,4.0884,0.3202,1.8256,0.3851,0.6316,-0.2847,0.8185,-0.9685,1.4926,-0.304
1.6962,-0.5993,-1.4862,-0.7818,0.9655,-0.3242,3.9571,0.3435,1.9014,0.4181,0.6166,-0.2355,0.696,-1.0036,1.5512,-0.2987
1.4587,-0.596,-1.5525,-0.8369,0.9087,-0.4053,3.4201,0.4643,2.0159,0.4678,0.6258,-0.2211,0.7962,-1.1481,1.5904,-0.2951
1.4587,-0.596,-1.5525,-0.8369,0.9087,-0.4053,3.4201,0.4643,2.0159,0.4678,0.6258,-0.2211,0.7962,-1.1481,1.5904,-0.2951
1.4587,-0.596,-1.5525,-0.8369,0.9087,-0.4053,3.4201,0.4643,2.0159,0.4678,0.6258,-0.2211,0.7962,-1.1481,1.5904,-0.2951
1.3228,-0.6014,-1.4347,-0.9566,0.8403,-0.4146,3.0839,0.4689,2.0265,0.5246,0.642,-0.2444,0.7364,-1.2197,1.5548,-0.2739
1.3228,-0.6014,-1.4347,-0.9566,0.8403,-0.4146,3.0839,0.4689,2.0265,0.5246,0.642,-0.2444,0.7364,-1.2197,1.5548,-0.2739
1.3228,-0.6014,-1.4347,-0.9566,0.8403,-0.4146,3.0839,0.4689,2.0265,0.5246,0.642,-0.2444,0.7364,-1.2197,1.5548,-0.2739
1.4088,-0.6584,-1.3602,-0.9635,0.9087,-0.4053,2.5729,0.4242,2.4665,0.3994,0.7144,-0.3489,0.4014,-1.1013,1.4687,-0.2695
1.4088,-0.6584,-1.3602,-0.9635,0.9087,-0.4053,2.5729,0.4242,2.4665,0.3994,0.7144,-0.3489,0.4014,-1.1013,1.4687,-0.2695
1.4088,-0.6584,-1.3602,-0.9635,0.9087,-0.4053,2.5729,0.4242,2.4665,0.3994,0.7144,-0.3489,0.4014,-1.1013,1.4687,-0.2695
1.4088,-0.6584,-1.4037,-0.8502,0.8778,-0.3607,2.3935,0.3765,2.8063,0.2794,0.7052,-0.3631,0.2592,-1.0511,1.4183,-0.2864
1.4088,-0.6584,-1.4037,-0.8502,0.8778,-0.3607,2.3935,0.3765,2.8063,0.2794,0.7052,-0.3631,0.2592,-1.0511,1.4183,-0.2864
1.4088,-0.6584,-1.4037,-0.8502,0.8778,-0.3607,2.3935,0.3765,2.8063,0.2794,0.7052,-0.3631,0.2592,-1.0511,1.4183,-0.2864
1.4094,-0.5249,-1.4843,-0.6835,1.0311,-0.3643,2.555,0.1437,2.8437,0.4499,0.6293,-0.3363,-0.0315,-1.0404,1.564,-0.407
1.4094,-0.5249,-1.4843,-0.6835,1.0311,-0.3643,2.555,0.1437,2.8437,0.4499,0.6293,-0.3363,-0.0315,-1.0404,1.564,-0.407
1.4467,-0.5112,-1.4743,-0.6472,1.2675,-0.4309,2.6149,0.0572,2.6148,0.7798,0.6213,-0.3248,-0.0824,-1.0682,1.6073,-0.4395
1.4467,-0.5112,-1.4743,-0.6472,1.2675,-0.4309,2.6149,0.0572,2.6148,0.7798,0.6213,-0.3248,-0.0824,-1.0682,1.6073,-0.4395
1.4467,-0.5112,-1.4743,-0.6472,1.2675,-0.4309,2.6149,0.0572,2.6148,0.7798,0.6213,-0.3248,-0.0824,-1.0682,1.6073,-0.4395
1.3847,-0.4893,-1.381,-0.6802,1.4355,-0.5071,2.4953,0.0778,2.3713,1.056,0.5708,-0.3069,-0.0729,-1.1324,1.5877,-0.4412
1.3847,-0.4893,-1.381,-0.6802,1.4355,-0.5071,2.4953,0.0778,2.3713,1.056,0.5708,-0.3069,-0.0729,-1.1324,1.5877,-0.4412
1.3847,-0.4893,-1.381,-0.6802,1.4355,-0.5071,2.4953,0.0778,2.3713,1.056,0.5708,-0.3069,-0.0729,-1.1324,1.5877,-0.4412
1.3598,-0.5878,-1.3832,-0.7787,1.2169,-0.413,2.2687,0.0285,1.7537,0.9901,0.6243,-0.4389,-0.2016,-1.2974,1.2378,-0.3519
1.3598,-0.5878,-1.3832,-0.7787,1.2169,-0.413,2.2687,0.0285,1.7537,0.9901,0.6243,-0.4389,-0.2016,-1.2974,1.2378,-0.3519
1.5698,-0.6887,-1.4297,-0.7622,1.0849,-0.3325,2.1031,0.0442,1.6694,0.8956,0.6813,-0.4935,-0.2973,-1.3082,1.0997,-0.3288
1.5698,-0.6887,-1.4297,-0.7622,1.0849,-0.3325,2.1031,0.0442,1.6694,0.8956,0.6813,-0.4935,-0.2973,-1.3082,1.0997,-0.3288
1.5698,-0.6887,-1.4297,-0.7622,1.0849,-0.3325,2.1031,0.0442,1.6694,0.8956,0.6813,-0.4935,-0.2973,-1.3082,1.0997,-0.3288
1.8438,-0.8121,-1.5406,-0.7033,0.8999,-0.2841,2.0066,0.0356,1.7543,0.7732,0.664,-0.4961,-0.3427,-1.2922,1.0161,-0.3249
1.8438,-0.8121,-1.5406,-0.7033,0.8999,-0.2841,2.0066,0.0356,1.7543,0.7732,0.664,-0.4961,-0.3427,-1.2922,1.0161,-0.3249
1.8438,-0.8121,-1.5406,-0.7033,0.8999,-0.2841,2.0066,0.0356,1.7543,0.7732,0.664,-0.4961,-0.3427,-1.2922,1.0161,-0.3249
1.8331,-0.7282,-1.6149,-0.6968,0.8095,-0.3702,2.5434,-0.2178,2.114,0.6155,0.5343,-0.3637,-0.3383,-1.2491,1.0128,-0.3494
1.8331,-0.7282,-1.6149,-0.6968,0.8095,-0.3702,2.5434,-0.2178,2.114,0.6155,0.5343,-0.3637,-0.3383,-1.2491,1.0128,-0.3494
1.8331,-0.7282,-1.6149,-0.6968,0.8095,-0.3702,2.5434,-0.2178,2.114,0.6155,0.5343,-0.3637,-0.3383,-1.2491,1.0128,-0.3494
1.6715,-0.5636,-1.6428,-0.7067,0.8557,-0.4368,2.632,-0.2703,2.1808,0.5919,0.4181,-0.3053,-0.37,-1.2528,1.0552,-0.3814
1.6715,-0.5636,-1.6428,-0.7067,0.8557,-0.4368,2.632,-0.2703,2.1808,0.5919,0.4181,-0.3053,-0.37,-1.2528,1.0552,-0.3814
1.3847,-0.4893,-1.7082,-0.7623,0.7163,-0.5041,2.4253,-0.1973,2.2197,0.6088,0.3592,-0.3018,-0.2062,-1.3404,1.0786,-0.4151
1.0174,-0.4935,-1.7197,-0.8948,0.4331,-0.5195,1.9406,-0.0893,2.1915,0.6495,0.2668,-0.3039,-0.0281,-1.4478,1.0675,-0.4282
1.0174,-0.4935,-1.7197,-0.8948,0.4331,-0.5195,1.9406,-0.0893,2.1915,0.6495,0.2668,-0.3039,-0.0281,-1.4478,1.0675,-0.4282
0.8375,-0.5626,-1.7219,-0.9907,0.2203,-0.5262,1.6651,-0.055,2.0576,0.6968,0.2323,-0.3349,-0.0468,-1.4707,1.0408,-0.4187
0.8375,-0.5626,-1.7219,-0.9907,0.2203,-0.5262,1.6651,-0.055,2.0576,0.6968,0.2323,-0.3349,-0.0468,-1.4707,1.0408,-0.4187
0.8617,-0.5975,-1.6942,-0.9812,0.1876,-0.5309,1.533,-0.0084,2.2304,0.6665,0.2392,-0.3719,-0.1926,-1.36,0.9953,-0.4111
0.8617,-0.5975,-1.6942,-0.9812,0.1876,-0.5309,1.533,-0.0084,2.2304,0.6665,0.2392,-0.3719,-0.1926,-1.36,0.9953,-0.4111
0.8617,-0.5975,-1.6942,-0.9812,0.1876,-0.5309,1.533,-0.0084,2.2304,0.6665,0.2392,-0.3719,-0.1926,-1.36,0.9953,-0.4111
1.0302,-0.7096,-1.8642,-0.7854,0.075,-0.5237,1.6182,-0.0594,2.7343,0.4577,0.254,-0.4201,-0.4647,-1.2639,0.9764,-0.4129
1.0302,-0.7096,-1.8642,-0.7854,0.075,-0.5237,1.6182,-0.0594,2.7343,0.4577,0.254,-0.4201,-0.4647,-1.2639,0.9764,-0.4129
1.1028,-0.6826,-1.8727,-0.7238,0.2502,-0.5693,1.6929,-0.0229,2.6208,0.6215,0.2877,-0.4148,-0.4962,-1.2676,1.1288,-0.4583
1.1028,-0.6826,-1.8727,-0.7238,0.2502,-0.5693,1.6929,-0.0229,2.6208,0.6215,0.2877,-0.4148,-0.4962,-1.2676,1.1288,-0.4583
1.1028,-0.6826,-1.8727,-0.7238,0.2502,-0.5693,1.6929,-0.0229,2.6208,0.6215,0.2877,-0.4148,-0.4962,-1.2676,1.1288,-0.4583
1.2123,-0.6421,-1.9087,-0.6718,0.5566,-0.645,1.8154,0.0182,2.517,0.8459,0.3303,-0.3954,-0.4647,-1.2639,1.2396,-0.472
1.2123,-0.6421,-1.9087,-0.6718,0.5566,-0.645,1.8154,0.0182,2.517,0.8459,0.3303,-0.3954,-0.4647,-1.2639,1.2396,-0.472
1.2123,-0.6421,-1.9087,-0.6718,0.5566,-0.645,1.8154,0.0182,2.517,0.8459,0.3303,-0.3954,-0.4647,-1.2639,1.2396,-0.472
1.2858,-0.615,-1.8813,-0.6619,0.7508,-0.7136,1.8912,0.0551,2.488,0.8877,0.3483,-0.3673,-0.4059,-1.2995,1.2545,-0.4347
1.2858,-0.615,-1.8452,-0.7139,0.7508,-0.7136,1.9107,0.0269,2.3404,0.8768,0.3821,-0.3619,-0.3788,-1.3387,1.2074,-0.3669
1.2858,-0.615,-1.8452,-0.7139,0.7508,-0.7136,1.9107,0.0269,2.3404,0.8768,0.3821,-0.3619,-0.3788,-1.3387,1.2074,-0.3669
1.3228,-0.6014,-1.7816,-0.756,0.7021,-0.6964,1.863,0.0226,2.1736,0.7484,0.5148,-0.4175,-0.4148,-1.385,1.103,-0.3043
1.3228,-0.6014,-1.7816,-0.756,0.7021,-0.6964,1.863,0.0226,2.1736,0.7484,0.5148,-0.4175,-0.4148,-1.385,1.103,-0.3043
1.3843,-0.6231,-1.6722,-0.8142,0.5449,-0.5754,1.8824,-0.0055,2.1245,0.6732,0.6402,-0.4618,-0.4148,-1.385,1.0604,-0.2721
1.6943,-0.7327,-1.5626,-0.8724,0.418,-0.4978,1.8348,-0.0098,2.2197,0.6088,0.741,-0.4974,-0.3968,-1.3619,1.0951,-0.2929
1.6943,-0.7327,-1.5626,-0.8724,0.418,-0.4978,1.8348,-0.0098,2.2197,0.6088,0.741,-0.4974,-0.3968,-1.3619,1.0951,-0.2929
1.6943,-0.7327,-1.5626,-0.8724,0.418,-0.4978,1.8348,-0.0098,2.2197,0.6088,0.741,-0.4974,-0.3968,-1.3619,1.0951,-0.2929
2.0715,-0.8659,-1.5166,-0.8887,0.3698,-0.4807,1.7874,-0.0141,2.4331,0.5949,0.7424,-0.4719,-0.3154,-1.3315,1.1141,-0.2911
2.0715,-0.8659,-1.5166,-0.8887,0.3698,-0.4807,1.7874,-0.0141,2.4331,0.5949,0.7424,-0.4719,-0.3154,-1.3315,1.1141,-0.2911
2.1985,-0.9108,-1.5805,-0.8466,0.2887,-0.4685,1.9406,-0.0893,2.5808,0.6046,0.7199,-0.4119,-0.2335,-1.301,1.1602,-0.2987
2.1985,-0.9108,-1.5805,-0.8466,0.2887,-0.4685,1.9406,-0.0893,2.5808,0.6046,0.7199,-0.4119,-0.2335,-1.301,1.1602,-0.2987
2.0753,-0.7333,-1.5985,-0.8206,0.2709,-0.495,2.2105,-0.1847,2.5922,0.6627,0.6465,-0.3337,-0.2152,-1.2776,1.1871,-0.3083
1.9123,-0.5674,-1.6444,-0.8044,0.3338,-0.5336,2.3273,-0.2049,2.5748,0.7626,0.6052,-0.3016,-0.1511,-1.2704,1.2491,-0.3387
1.9123,-0.5674,-1.6444,-0.8044,0.3338,-0.5336,2.3273,-0.2049,2.5748,0.7626,0.6052,-0.3016,-0.1511,-1.2704,1.2491,-0.3387
1.9123,-0.5674,-1.6444,-0.8044,0.3338,-0.5336,2.3273,-0.2049,2.5748,0.7626,0.6052,-0.3016,-0.1511,-1.2704,1.2491,-0.3387
1.7225,-0.5004,-1.6543,-0.84,0.4087,-0.6416,2.104,-0.1049,2.626,0.839,0.6052,-0.3016,0.0655,-1.332,1.3226,-0.3561
1.7225,-0.5004,-1.6543,-0.84,0.4087,-0.6416,2.104,-0.1049,2.626,0.839,0.6052,-0.3016,0.0655,-1.332,1.3226,-0.3561
1.7225,-0.5004,-1.6543,-0.84,0.4087,-0.6416,2.104,-0.1049,2.626,0.839,0.6052,-0.3016,0.0655,-1.332,1.3226,-0.3561
1.3723,-0.5386,-1.7119,-0.9556,0.2739,-0.7072,1.74,-0.0185,2.5278,0.9053,0.596,-0.3158,0.2788,-1.4373,1.3497,-0.3657
1.3723,-0.5386,-1.7119,-0.9556,0.2739,-0.7072,1.74,-0.0185,2.5278,0.9053,0.596,-0.3158,0.2788,-1.4373,1.3497,-0.3657
1.3723,-0.5386,-1.7119,-0.9556,0.2739,-0.7072,1.74,-0.0185,2.5278,0.9053,0.596,-0.3158,0.2788,-1.4373,1.3497,-0.3657
1.3723,-0.5386,-1.7119,-0.9556,0.2739,-0.7072,1.74,-0.0185,2.5278,0.9053,0.596,-0.3158,0.2788,-1.4373,1.3497,-0.3657
1.127,-0.5855,-1.5501,-1.0898,0.1938,-0.695,1.3362,0.0612,2.4772,0.8285,0.5925,-0.3929,0.0604,-1.375,1.2762,-0.3483
1.127,-0.5855,-1.5501,-1.0898,0.1938,-0.695,1.3362,0.0612,2.4772,0.8285,0.5925,-0.3929,0.0604,-1.375,1.2762,-0.3483
1.127,-0.5855,-1.5501,-1.0898,0.1938,-0.695,1.3362,0.0612,2.4772,0.8285,0.5925,-0.3929,0.0604,-1.375,1.2762,-0.3483
1.3103,-0.6502,-1.7278,-0.8336,0.1494,-0.631,1.4401,-0.0173,2.9499,0.5987,0.5582,-0.3982,-0.1237,-1.31,1.3226,-0.3561
1.3103,-0.6502,-1.7278,-0.8336,0.1494,-0.631,1.4401,-0.0173,2.9499,0.5987,0.5582,-0.3982,-0.1237,-1.31,1.3226,-0.3561
1.3472,-0.6367,-1.8092,-0.7658,0.2919,-0.6813,1.544,-0.0957,2.9332,0.6988,0.508,-0.3805,-0.1558,-1.3135,1.4314,-0.3946
1.3472,-0.6367,-1.8092,-0.7658,0.2919,-0.6813,1.544,-0.0957,2.9332,0.6988,0.508,-0.3805,-0.1558,-1.3135,1.4314,-0.3946
1.2614,-0.5797,-1.8642,-0.7854,0.5275,-0.8129,1.4975,-0.1001,2.8168,0.8667,0.4739,-0.3857,-0.0504,-1.3657,1.5134,-0.4235
1.2614,-0.5797,-1.8642,-0.7854,0.5275,-0.8129,1.4975,-0.1001,2.8168,0.8667,0.4739,-0.3857,-0.0504,-1.3657,1.5134,-0.4235
1.2002,-0.5581,-1.8738,-0.8209,0.5128,-0.7916,1.432,-0.077,2.5278,0.9053,0.4138,-0.4077,-0.1653,-1.3993,1.4042,-0.3849
1.2002,-0.5581,-1.8738,-0.8209,0.5128,-0.7916,1.432,-0.077,2.5278,0.9053,0.4138,-0.4077,-0.1653,-1.3993,1.4042,-0.3849
1.4088,-0.6584,-1.8381,-0.8723,0.3873,-0.715,1.3858,-0.0814,2.1553,0.8482,0.3777,-0.4638,-0.4013,-1.4044,1.2187,-0.3537
1.4088,-0.6584,-1.8381,-0.8723,0.3873,-0.715,1.3858,-0.0814,2.1553,0.8482,0.3777,-0.4638,-0.4013,-1.4044,1.2187,-0.3537
1.6564,-0.7459,-1.8381,-0.8723,0.277,-0.6599,1.4701,-0.1319,2.0109,0.8369,0.3765,-0.489,-0.4956,-1.4151,1.1456,-0.3365
1.6564,-0.7459,-1.8381,-0.8723,0.277,-0.6599,1.4701,-0.1319,2.0109,0.8369,0.3765,-0.489,-0.4956,-1.4151,1.1456,-0.3365
1.6564,-0.7459,-1.8381,-0.8723,0.277,-0.6599,1.4701,-0.1319,2.0109,0.8369,0.3765,-0.489,-0.4956,-1.4151,1.1456,-0.3365
1.7703,-0.7061,-1.7652,-0.8787,0.1345,-0.6096,1.8463,-0.2441,2.0962,0.714,0.3518,-0.4803,-0.5715,-1.4029,1.1423,-0.361
1.7703,-0.7061,-1.7652,-0.8787,0.1345,-0.6096,1.8463,-0.2441,2.0962,0.714,0.3518,-0.4803,-0.5715,-1.4029,1.1423,-0.361
1.6466,-0.5278,-1.7652,-0.8787,0.0845,-0.6403,2.1806,-0.3622,2.1632,0.6903,0.3192,-0.4602,-0.5715,-1.4029,1.1423,-0.361
1.6466,-0.5278,-1.7652,-0.8787,0.0845,-0.6403,2.1806,-0.3622,2.1632,0.6903,0.3192,-0.4602,-0.5715,-1.4029,1.1423,-0.361
1.2603,-0.3098,-1.856,-0.8466,0.0171,-0.6968,2.0177,-0.2005,2.1451,0.7895,0.2362,-0.448,-0.2254,-1.5106,1.1726,-0.346
1.2603,-0.3098,-1.856,-0.8466,0.0171,-0.6968,2.0177,-0.2005,2.1451,0.7895,0.2362,-0.448,-0.2254,-1.5106,1.1726,-0.346
1.016,-0.359,-1.7849,-0.9491,-0.0032,-0.7694,1.7314,-0.0785,2.1165,0.8307,0.186,-0.4559,0.0343,-1.5877,1.149,-0.3119
1.016,-0.359,-1.7849,-0.9491,-0.0032,-0.7694,1.7314,-0.0785,2.1165,0.8307,0.186,-0.4559,0.0343,-1.5877,1.149,-0.3119
0.9567,-0.4721,-1.6865,-1.0416,-0.0353,-0.7739,1.4673,0.0149,2.001,0.7785,0.135,-0.4891,0.1126,-1.6007,1.0951,-0.2929
0.9567,-0.4721,-1.6865,-1.0416,-0.0353,-0.7739,1.4673,0.0149,2.001,0.7785,0.135,-0.4891,0.1126,-1.6007,1.0951,-0.2929
1.03,-0.5777,-1.7042,-1.0161,-0.0325,-0.7272,1.2709,0.0842,2.0858,0.6561,0.1252,-0.528,0.0449,-1.5032,1.0571,-0.2967
1.03,-0.5777,-1.7042,-1.0161,-0.0325,-0.7272,1.2709,0.0842,2.0858,0.6561,0.1252,-0.528,0.0449,-1.5032,1.0571,-0.2967
1.1149,-0.6342,-1.7928,-0.8883,0.0171,-0.6968,1.2709,0.0842,2.3319,0.447,0.1153,-0.5668,-0.0553,-1.4085,1.0193,-0.3004
1.1149,-0.6342,-1.7928,-0.8883,0.0171,-0.6968,1.2709,0.0842,2.3319,0.447,0.1153,-0.5668,-0.0553,-1.4085,1.0193,-0.3004
1.1149,-0.6342,-1.8642,-0.7854,0.0993,-0.6616,1.3362,0.0612,2.4548,0.3429,0.0501,-0.5522,-0.1285,-1.353,1.0696,-0.3438
1.1149,-0.6342,-1.8642,-0.7854,0.0993,-0.6616,1.3362,0.0612,2.4548,0.3429,0.0501,-0.5522,-0.1285,-1.353,1.0696,-0.3438
1.1149,-0.6342,-1.8642,-0.7854,0.0993,-0.6616,1.3362,0.0612,2.4548,0.3429,0.0501,-0.5522,-0.1285,-1.353,1.0696,-0.3438
1.1635,-0.5718,-1.8092,-0.7658,0.3427,-0.6508,1.599,-0.0317,2.427,0.383,0.0258,-0.5437,-0.2016,-1.2974,1.1927,-0.4044
1.1635,-0.5718,-1.8092,-0.7658,0.3427,-0.6508,1.599,-0.0317,2.427,0.383,0.0258,-0.5437,-0.2016,-1.2974,1.1927,-0.4044
1.1635,-0.5718,-1.8092,-0.7658,0.3427,-0.6508,1.599,-0.0317,2.427,0.383,0.0258,-0.5437,-0.2016,-1.2974,1.1927,-0.4044
1.2491,-0.4951,-1.6985,-0.7264,0.7696,-0.6876,1.826,-0.0699,2.2479,0.5682,0.0346,-0.5299,-0.1374,-1.2902,1.2658,-0.4217
1.3106,-0.5168,-1.5885,-0.7849,1.0537,-0.7224,1.8736,-0.0657,2.0576,0.6968,0.092,-0.5332,-0.073,-1.283,1.2693,-0.3973
1.3106,-0.5168,-1.5885,-0.7849,1.0537,-0.7224,1.8736,-0.0657,2.0576,0.6968,0.092,-0.5332,-0.073,-1.283,1.2693,-0.3973
1.3476,-0.5031,-1.5425,-0.8012,1.0965,-0.6219,1.9212,-0.0614,1.8484,0.7093,0.1329,-0.5392,-0.0132,-1.3191,1.1838,-0.3328
1.3476,-0.5031,-1.5425,-0.8012,1.0965,-0.6219,1.9212,-0.0614,1.8484,0.7093,0.1329,-0.5392,-0.0132,-1.3191,1.1838,-0.3328
1.5959,-0.5908,-1.5144,-0.7915,1.1547,-0.5424,1.9018,-0.0335,1.7727,0.675,0.3134,-0.586,0.0055,-1.2958,1.1523,-0.2873
1.5959,-0.5908,-1.5144,-0.7915,1.1547,-0.5424,1.9018,-0.0335,1.7727,0.675,0.3134,-0.586,0.0055,-1.2958,1.1523,-0.2873
1.5959,-0.5908,-1.5144,-0.7915,1.1547,-0.5424,1.9018,-0.0335,1.7727,0.675,0.3134,-0.586,0.0055,-1.2958,1.1523,-0.2873
1.8714,-0.715,-1.4862,-0.7818,1.1587,-0.4936,1.9496,-0.0292,1.8007,0.6347,0.3976,-0.5733,0.0893,-1.2652,1.1285,-0.2532
1.8714,-0.715,-1.4862,-0.7818,1.1587,-0.4936,1.9496,-0.0292,1.8007,0.6347,0.3976,-0.5733,0.0893,-1.2652,1.1285,-0.2532
1.8714,-0.715,-1.4862,-0.7818,1.1587,-0.4936,1.9496,-0.0292,1.8007,0.6347,0.3976,-0.5733,0.0893,-1.2652,1.1285,-0.2532
2.0365,-0.7465,-1.4862,-0.7818,1.093,-0.4536,2.269,-0.1209,1.9222,0.5311,0.417,-0.5205,0.1408,-1.2381,1.1285,-0.2532
2.0365,-0.7465,-1.4862,-0.7818,1.093,-0.4536,2.269,-0.1209,1.9222,0.5311,0.417,-0.5205,0.1408,-1.2381,1.1285,-0.2532
2.0365,-0.7465,-1.4862,-0.7818,1.093,-0.4536,2.269,-0.1209,1.9222,0.5311,0.417,-0.5205,0.1408,-1.2381,1.1285,-0.2532
1.6975,-0.4643,-1.5144,-0.7915,1.1935,-0.4891,2.632,-0.2703,2.082,0.4445,0.3958,-0.4358,0.2914,-1.2003,1.2175,-0.2932
1.6975,-0.4643,-1.5144,-0.7915,1.1935,-0.4891,2.632,-0.2703,2.082,0.4445,0.3958,-0.4358,0.2914,-1.2003,1.2175,-0.2932
1.6975,-0.4643,-1.5144,-0.7915,1.1935,-0.4891,2.632,-0.2703,2.082,0.4445,0.3958,-0.4358,0.2914,-1.2003,1.2175,-0.2932
1.4467,-0.3757,-1.5525,-0.8369,1.0892,-0.5026,2.3863,-0.1411,2.1483,0.421,0.3958,-0.4358,0.528,-1.2839,1.2604,-0.3256
1.4467,-0.3757,-1.5525,-0.8369,1.0892,-0.5026,2.3863,-0.1411,2.1483,0.421,0.3958,-0.4358,0.528,-1.2839,1.2604,-0.3256
0.8604,-0.4647,-1.4836,-1.0363,0.6858,-0.4601,1.6736,0.005,2.0052,0.4114,0.3192,-0.4602,0.7468,-1.3916,1.195,-0.3196
0.8604,-0.4647,-1.4836,-1.0363,0.6858,-0.4601,1.6736,0.005,2.0052,0.4114,0.3192,-0.4602,0.7468,-1.3916,1.195,-0.3196
0.7889,-0.4925,-1.42,-1.078,0.6705,-0.4381,1.5604,0.0239,2.0159,0.4678,0.3271,-0.4716,0.6149,-1.2535,1.1871,-0.3083
0.7889,-0.4925,-1.42,-1.078,0.6705,-0.4381,1.5604,0.0239,2.0159,0.4678,0.3271,-0.4716,0.6149,-1.2535,1.1871,-0.3083
0.9335,-0.5701,-1.4273,-1.0175,0.7043,-0.4334,1.5797,-0.0039,2.2537,0.414,0.3675,-0.503,0.4966,-1.135,1.1792,-0.2969
0.9335,-0.5701,-1.4273,-1.0175,0.7043,-0.4334,1.5797,-0.0039,2.2537,0.414,0.3675,-0.503,0.4966,-1.135,1.1792,-0.2969
1.1028,-0.6826,-1.4987,-0.9145,0.7382,-0.4287,1.6651,-0.055,2.6175,0.2552,0.3754,-0.5143,0.3731,-1.0605,1.1713,-0.2855
1.1028,-0.6826,-1.4987,-0.9145,0.7382,-0.4287,1.6651,-0.055,2.6175,0.2552,0.3754,-0.5143,0.3731,-1.0605,1.1713,-0.2855
1.2242,-0.7255,-1.5705,-0.8109,0.8062,-0.4193,1.7979,-0.1019,2.7532,0.2073,0.3754,-0.5143,0.3256,-1.0437,1.2875,-0.3351
1.2242,-0.7255,-1.5705,-0.8109,0.8062,-0.4193,1.7979,-0.1019,2.7532,0.2073,0.3754,-0.5143,0.3256,-1.0437,1.2875,-0.3351
1.2242,-0.7255,-1.5705,-0.8109,0.8062,-0.4193,1.7979,-0.1019,2.7532,0.2073,0.3754,-0.5143,0.3256,-1.0437,1.2875,-0.3351
1.322,-0.7337,-1.6526,-0.7427,0.9087,-0.4053,1.8646,-0.1255,2.6297,0.3114,0.3832,-0.5256,0.2923,-1.0474,1.4508,-0.3928
1.322,-0.7337,-1.6526,-0.7427,0.9087,-0.4053,1.8646,-0.1255,2.6297,0.3114,0.3832,-0.5256,0.2923,-1.0474,1.4508,-0.3928
1.3228,-0.6014,-1.7901,-0.6941,1.3802,-0.5382,1.8542,-0.0378,2.1451,0.7895,0.3585,-0.5169,0.3347,-1.1085,1.5366,-0.3973
1.3228,-0.6014,-1.7901,-0.6941,1.3802,-0.5382,1.8542,-0.0378,2.1451,0.7895,0.3585,-0.5169,0.3347,-1.1085,1.5366,-0.3973
1.3228,-0.6014,-1.7901,-0.6941,1.3802,-0.5382,1.8542,-0.0378,2.1451,0.7895,0.3585,-0.5169,0.3347,-1.1085,1.5366,-0.3973
1.3228,-0.6014,-1.7901,-0.6941,1.3802,-0.5382,1.8542,-0.0378,2.1451,0.7895,0.3585,-0.5169,0.3347,-1.1085,1.5366,-0.3973
1.2858,-0.615,-1.7996,-0.73,1.431,-0.5562,1.7874,-0.0141,1.9343,0.802,0.3573,-0.542,0.3106,-1.1766,1.4033,-0.3244
1.2858,-0.615,-1.7996,-0.73,1.431,-0.5562,1.7874,-0.0141,1.9343,0.802,0.3573,-0.542,0.3106,-1.1766,1.4033,-0.3244
1.2858,-0.615,-1.7996,-0.73,1.431,-0.5562,1.7874,-0.0141,1.9343,0.802,0.3573,-0.542,0.3106,-1.1766,1.4033,-0.3244
1.2858,-0.615,-1.7996,-0.73,1.431,-0.5562,1.7874,-0.0141,1.9343,0.802,0.3573,-0.542,0.3106,-1.1766,1.4033,-0.3244
1.3717,-0.6719,-1.6464,-0.9013,1.182,-0.4176,1.6459,-0.0273,1.6131,0.5499,0.46,-0.6633,0.1081,-1.2417,1.1127,-0.2303
1.3717,-0.6719,-1.6464,-0.9013,1.182,-0.4176,1.6459,-0.0273,1.6131,0.5499,0.46,-0.6633,0.1081,-1.2417,1.1127,-0.2303
1.83,-0.8603,-1.6742,-0.9109,0.8656,-0.2889,1.6843,-0.0828,1.8802,0.3063,0.4015,-0.6595,0.0151,-1.2089,0.972,-0.2323
1.83,-0.8603,-1.6742,-0.9109,0.8656,-0.2889,1.6843,-0.0828,1.8802,0.3063,0.4015,-0.6595,0.0151,-1.2089,0.972,-0.2323
1.7812,-0.79,-1.6642,-0.8755,0.7321,-0.2586,2.0177,-0.2005,1.9182,0.3226,0.3056,-0.5748,0.0477,-1.2052,0.9799,-0.2436
1.7812,-0.79,-1.6642,-0.8755,0.7321,-0.2586,2.0177,-0.2005,1.9182,0.3226,0.3056,-0.5748,0.0477,-1.2052,0.9799,-0.2436
1.7812,-0.79,-1.6642,-0.8755,0.7321,-0.2586,2.0177,-0.2005,1.9182,0.3226,0.3056,-0.5748,0.0477,-1.2052,0.9799,-0.2436
1.5959,-0.5908,-1.692,-0.8851,0.6797,-0.2907,2.2391,-0.2996,1.967,0.3949,0.2252,-0.5124,0.113,-1.198,1.0414,-0.2739
1.5959,-0.5908,-1.692,-0.8851,0.6797,-0.2907,2.2391,-0.2996,1.967,0.3949,0.2252,-0.5124,0.113,-1.198,1.0414,-0.2739
1.3971,-0.4396,-1.7099,-0.8594,0.6767,-0.3401,2.3068,-0.3236,1.9881,0.5078,0.1928,-0.4925,0.2254,-1.2074,1.0951,-0.2929
1.3971,-0.4396,-1.7099,-0.8594,0.6767,-0.3401,2.3068,-0.3236,1.9881,0.5078,0.1928,-0.4925,0.2254,-1.2074,1.0951,-0.2929
1.3971,-0.4396,-1.7099,-0.8594,0.6767,-0.3401,2.3068,-0.3236,1.9881,0.5078,0.1928,-0.4925,0.2254,-1.2074,1.0951,-0.2929
