-2.0791,-1.0085,-0.486,-0.505,-3.1326,-0.1061,0.5506,1.5036,3.9857,1.4907,0.0861,-0.4487,-4.2601,2.0777,1.1134,1.3332
-2.0791,-1.0085,-0.486,-0.505,-3.1326,-0.1061,0.5506,1.5036,3.9857,1.4907,0.0861,-0.4487,-4.2601,2.0777,1.1134,1.3332
-2.0438,-0.9992,-0.5283,-0.444,-3.0611,-0.1001,0.5506,1.5036,3.8219,1.727,0.077,-0.4571,-4.3717,2.1171,1.1959,1.2931
-2.0438,-0.9992,-0.5283,-0.444,-3.0611,-0.1001,0.5506,1.5036,3.8219,1.727,0.077,-0.4571,-4.3717,2.1171,1.1959,1.2931
-2.0085,-0.99,-0.5425,-0.4236,-2.8231,-0.1685,0.6476,1.4467,3.6221,2.015,0.0625,-0.4578,-4.4115,2.114,1.1959,1.2931
-2.0085,-0.99,-0.5425,-0.4236,-2.8231,-0.1685,0.6476,1.4467,3.6221,2.015,0.0625,-0.4578,-4.4115,2.114,1.1959,1.2931
-1.9576,-0.9424,-0.496,-0.4092,-2.457,-0.2507,0.7796,1.4227,3.4424,2.1886,0.0481,-0.4585,-4.3243,2.0488,1.1597,1.3059
-1.9576,-0.9424,-0.496,-0.4092,-2.457,-0.2507,0.7796,1.4227,3.4424,2.1886,0.0481,-0.4585,-4.3243,2.0488,1.1597,1.3059
-1.9019,-0.9621,-0.4585,-0.4225,-2.2266,-0.3006,0.9126,1.3985,3.2321,2.1528,0.0732,-0.4731,-4.317,1.9778,1.0672,1.3606
-1.9019,-0.9621,-0.4585,-0.4225,-2.2266,-0.3006,0.9126,1.3985,3.2321,2.1528,0.0732,-0.4731,-4.317,1.9778,1.0672,1.3606
-1.9019,-0.9621,-0.4443,-0.4429,-2.1511,-0.2957,0.8916,1.4287,2.9717,2.0273,0.1812,-0.4997,-4.3809,1.9492,0.9235,1.4114
-1.9019,-0.9621,-0.4443,-0.4429,-2.1511,-0.2957,0.8916,1.4287,2.9717,2.0273,0.1812,-0.4997,-4.3809,1.9492,0.9235,1.4114
-1.846,-0.9818,-0.4067,-0.4562,-2.291,-0.1509,0.9689,1.4014,2.9515,1.8916,0.3231,-0.5092,-4.3412,1.9522,0.9032,1.4406
-1.846,-0.9818,-0.4067,-0.4562,-2.291,-0.1509,0.9689,1.4014,2.9515,1.8916,0.3231,-0.5092,-4.3412,1.9522,0.9032,1.4406
-1.846,-0.9818,-0.4067,-0.4562,-2.291,-0.1509,0.9689,1.4014,2.9515,1.8916,0.3231,-0.5092,-4.3412,1.9522,0.9032,1.4406
-1.5649,-1.0812,-0.3833,-0.449,-2.394,-0.0024,0.9479,1.4316,2.9841,1.8446,0.4299,-0.4888,-4.3086,2.0261,0.9086,1.4719
-1.5649,-1.0812,-0.3833,-0.449,-2.394,-0.0024,0.9479,1.4316,2.9841,1.8446,0.4299,-0.4888,-4.3086,2.0261,0.9086,1.4719
-1.5649,-1.0812,-0.3833,-0.449,-2.394,-0.0024,0.9479,1.4316,2.9841,1.8446,0.4299,-0.4888,-4.3086,2.0261,0.9086,1.4719
-1.2264,-1.1349,-0.327,-0.407,-2.4681,0.1044,1.4537,1.2987,3.3646,1.7101,0.5119,-0.3652,-4.099,2.0899,1.0377,1.4817
-1.2264,-1.1349,-0.327,-0.407,-2.4681,0.1044,1.4537,1.2987,3.3646,1.7101,0.5119,-0.3652,-4.099,2.0899,1.0377,1.4817
-1.2669,-1.0765,-0.327,-0.407,-2.5054,0.1014,1.6922,1.2144,3.4858,1.7028,0.5144,-0.3247,-3.9451,2.0528,1.1828,1.4305
-1.2669,-1.0765,-0.327,-0.407,-2.5054,0.1014,1.6922,1.2144,3.4858,1.7028,0.5144,-0.3247,-3.9451,2.0528,1.1828,1.4305
-1.4426,-0.948,-0.2892,-0.4204,-2.4532,0.083,1.7891,1.2492,3.4204,1.7972,0.5184,-0.3083,-3.5602,1.9342,1.3185,1.3937
-1.4426,-0.948,-0.2892,-0.4204,-2.4532,0.083,1.7891,1.2492,3.4204,1.7972,0.5184,-0.3083,-3.5602,1.9342,1.3185,1.3937
-1.6862,-0.9062,-0.3221,-0.4552,-2.5502,0.0528,1.5066,1.3952,3.4648,1.8172,0.5333,-0.3076,-3.3018,1.8777,1.3713,1.3973
-1.6862,-0.9062,-0.3221,-0.4552,-2.5502,0.0528,1.5066,1.3952,3.4648,1.8172,0.5333,-0.3076,-3.3018,1.8777,1.3713,1.3973
-1.6862,-0.9062,-0.3221,-0.4552,-2.5502,0.0528,1.5066,1.3952,3.4648,1.8172,0.5333,-0.3076,-3.3018,1.8777,1.3713,1.3973
-1.6862,-0.9062,-0.3221,-0.4552,-2.5502,0.0528,1.5066,1.3952,3.4648,1.8172,0.5333,-0.3076,-3.3018,1.8777,1.3713,1.3973
-2.1741,-0.9314,-0.2328,-0.6251,-2.8081,0.0318,0.8425,1.5836,3.5423,1.7899,0.5551,-0.339,-3.4727,2.0606,1.3772,1.4287
-2.1741,-0.9314,-0.2328,-0.6251,-2.8081,0.0318,0.8425,1.5836,3.5423,1.7899,0.5551,-0.339,-3.4727,2.0606,1.3772,1.4287
-2.1342,-0.989,-0.2468,-0.6049,-2.7934,0.0106,0.8075,1.55,3.9796,1.6712,0.5809,-0.3541,-3.5957,2.1746,1.3934,1.4453
-2.1342,-0.989,-0.2468,-0.6049,-2.7934,0.0106,0.8075,1.55,3.9796,1.6712,0.5809,-0.3541,-3.5957,2.1746,1.3934,1.4453
-1.9131,-1.0672,-0.2796,-0.5165,-2.7568,0.0137,0.9412,1.5257,4.3311,1.5112,0.5714,-0.3626,-3.7857,2.2595,1.4037,1.4305
-1.9131,-1.0672,-0.2796,-0.5165,-2.7568,0.0137,0.9412,1.5257,4.3311,1.5112,0.5714,-0.3626,-3.7857,2.2595,1.4037,1.4305
-1.7459,-1.1262,-0.3648,-0.3937,-2.6834,0.0196,1.154,1.4736,4.5248,1.4069,0.5714,-0.3626,-3.8271,2.2564,1.5144,1.3914
-1.7459,-1.1262,-0.3648,-0.3937,-2.6834,0.0196,1.154,1.4736,4.5248,1.4069,0.5714,-0.3626,-3.8271,2.2564,1.5144,1.3914
-1.7459,-1.1262,-0.3648,-0.3937,-2.6834,0.0196,1.154,1.4736,4.5248,1.4069,0.5714,-0.3626,-3.8271,2.2564,1.5144,1.3914
-1.6139,-1.1945,-0.4453,-0.3186,-2.6981,0.0408,1.3113,1.418,4.3454,1.578,0.5864,-0.3619,-3.8684,2.2533,1.7269,1.3275
-1.5612,-1.148,-0.474,-0.2773,-2.6243,0.0468,1.3691,1.4206,4.1319,1.7984,0.5864,-0.3619,-3.8934,2.2269,1.962,1.2333
-1.5612,-1.148,-0.474,-0.2773,-2.6243,0.0468,1.3691,1.4206,4.1319,1.7984,0.5864,-0.3619,-3.8934,2.2269,1.962,1.2333
-1.4882,-1.1301,-0.474,-0.2773,-2.4983,0.0344,1.4271,1.4233,3.8493,2.1188,0.6067,-0.3691,-3.8773,2.2035,2.0752,1.1933
-1.4882,-1.1301,-0.474,-0.2773,-2.4983,0.0344,1.4271,1.4233,3.8493,2.1188,0.6067,-0.3691,-3.8773,2.2035,2.0752,1.1933
-1.5486,-1.0431,-0.4453,-0.3186,-2.2892,-0.0394,1.4058,1.4539,3.7122,2.3165,0.5809,-0.3541,-3.8199,2.1833,2.0546,1.223
-1.5486,-1.0431,-0.4453,-0.3186,-2.2892,-0.0394,1.4058,1.4539,3.7122,2.3165,0.5809,-0.3541,-3.8199,2.1833,2.0546,1.223
-1.5526,-0.9756,-0.4025,-0.3804,-2.0403,-0.1113,1.3632,1.5155,3.5529,2.3728,0.5307,-0.3482,-3.7876,2.1367,1.8832,1.3059
-1.5526,-0.9756,-0.4025,-0.3804,-2.0403,-0.1113,1.3632,1.5155,3.5529,2.3728,0.5307,-0.3482,-3.7876,2.1367,1.8832,1.3059
-1.6093,-0.9555,-0.4117,-0.4081,-1.9724,-0.1514,1.2839,1.5435,3.4085,2.2375,0.5173,-0.373,-3.8791,2.0817,1.6484,1.4001
-1.6093,-0.9555,-0.4117,-0.4081,-1.9724,-0.1514,1.2839,1.5435,3.4085,2.2375,0.5173,-0.373,-3.8791,2.0817,1.6484,1.4001
-1.6659,-0.9355,-0.3315,-0.4828,-2.0403,-0.1113,1.2263,1.5406,3.2218,2.0835,0.5552,-0.4276,-4.0266,2.047,1.4097,1.462
-1.6659,-0.9355,-0.3315,-0.4828,-2.0403,-0.1113,1.2263,1.5406,3.2218,2.0835,0.5552,-0.4276,-4.0266,2.047,1.4097,1.462
-1.7382,-0.9541,-0.2655,-0.5369,-2.2137,-0.0339,1.1116,1.5347,3.2775,1.9193,0.6174,-0.4731,-4.0513,2.0212,1.2833,1.4843
-1.7382,-0.9541,-0.2655,-0.5369,-2.2137,-0.0339,1.1116,1.5347,3.2775,1.9193,0.6174,-0.4731,-4.0513,2.0212,1.2833,1.4843
-1.585,-1.0521,-0.2232,-0.5979,-2.4532,0.083,0.9978,1.5288,3.3875,1.8445,0.6335,-0.4964,-4.0107,2.0241,1.2204,1.4953
-1.585,-1.0521,-0.2232,-0.5979,-2.4532,0.083,0.9978,1.5288,3.3875,1.8445,0.6335,-0.4964,-4.0107,2.0241,1.2204,1.4953
-1.585,-1.0521,-0.2232,-0.5979,-2.4532,0.083,0.9978,1.5288,3.3875,1.8445,0.6335,-0.4964,-4.0107,2.0241,1.2204,1.4953
-1.2806,-1.1816,-0.2468,-0.6049,-2.6243,0.1596,0.92,1.5562,3.4976,1.7699,0.6132,-0.4892,-4.0266,2.047,1.1782,1.4766
-1.2806,-1.1816,-0.2468,-0.6049,-2.6243,0.1596,0.92,1.5562,3.4976,1.7699,0.6132,-0.4892,-4.0266,2.047,1.1782,1.4766
-1.0883,-1.2714,-0.2985,-0.5713,-2.6983,0.1534,0.9412,1.5257,3.6529,1.715,0.5511,-0.4438,-3.9859,2.0499,1.1782,1.4766
-1.0883,-1.2714,-0.2985,-0.5713,-2.6983,0.1534,0.9412,1.5257,3.6529,1.715,0.5511,-0.4438,-3.9859,2.0499,1.1782,1.4766
-1.0682,-1.3004,-0.3502,-0.5377,-2.7203,0.1289,1.1963,1.4126,3.6651,1.7823,0.4742,-0.399,-3.961,2.0758,1.2614,1.4361
-1.0682,-1.3004,-0.3502,-0.5377,-2.7203,0.1289,1.1963,1.4126,3.6651,1.7823,0.4742,-0.399,-3.961,2.0758,1.2614,1.4361
-1.0682,-1.3004,-0.3502,-0.5377,-2.7203,0.1289,1.1963,1.4126,3.6651,1.7823,0.4742,-0.399,-3.961,2.0758,1.2614,1.4361
-1.516,-0.9664,-0.4019,-0.5041,-2.7128,0.062,1.5329,1.2707,3.6556,1.9666,0.3988,-0.3783,-3.6913,1.9979,1.4285,1.3548
-1.516,-0.9664,-0.4019,-0.5041,-2.7128,0.062,1.5329,1.2707,3.6556,1.9666,0.3988,-0.3783,-3.6913,1.9979,1.4285,1.3548
-1.7427,-0.8863,-0.4627,-0.4979,-2.7055,-0.0045,1.3536,1.357,3.6891,1.9184,0.36,-0.3881,-3.5442,1.9112,1.4122,1.3383
-1.9777,-0.9134,-0.4672,-0.5728,-2.7716,-0.0764,0.9269,1.4619,3.4877,1.9533,0.3267,-0.4056,-3.5283,1.8882,1.3959,1.3219
-1.9777,-0.9134,-0.4672,-0.5728,-2.7716,-0.0764,0.9269,1.4619,3.4877,1.9533,0.3267,-0.4056,-3.5283,1.8882,1.3959,1.3219
-1.9777,-0.9134,-0.4672,-0.5728,-2.7716,-0.0764,0.9269,1.4619,3.4877,1.9533,0.3267,-0.4056,-3.5283,1.8882,1.3959,1.3219
-2.2091,-0.9408,-0.36,-0.6867,-2.8664,-0.1061,0.5849,1.5371,3.3988,1.9124,0.2935,-0.4231,-3.6594,1.9519,1.3066,1.3312
-2.2091,-0.9408,-0.36,-0.6867,-2.8664,-0.1061,0.5849,1.5371,3.3988,1.9124,0.2935,-0.4231,-3.6594,1.9519,1.3066,1.3312
-2.2091,-0.9408,-0.36,-0.6867,-2.8664,-0.1061,0.5849,1.5371,3.3988,1.9124,0.2935,-0.4231,-3.6594,1.9519,1.3066,1.3312
-2.2589,-0.9883,-0.3834,-0.6936,-2.9171,-0.0882,0.3446,1.5537,3.5752,1.7425,0.2604,-0.4406,-3.8471,2.0356,1.2177,1.3405
-2.2589,-0.9883,-0.3834,-0.6936,-2.9171,-0.0882,0.3446,1.5537,3.5752,1.7425,0.2604,-0.4406,-3.8471,2.0356,1.2177,1.3405
-2.2589,-0.9883,-0.3834,-0.6936,-2.9171,-0.0882,0.3446,1.5537,3.5752,1.7425,0.2604,-0.4406,-3.8471,2.0356,1.2177,1.3405
-2.0547,-1.1036,-0.5234,-0.4918,-2.9605,-0.0255,0.3654,1.5237,3.8746,1.5654,0.1875,-0.4439,-3.977,2.0988,1.2642,1.313
-2.0547,-1.1036,-0.5234,-0.4918,-2.9605,-0.0255,0.3654,1.5237,3.8746,1.5654,0.1875,-0.4439,-3.977,2.0988,1.2642,1.313
-2.0547,-1.1036,-0.5234,-0.4918,-2.9605,-0.0255,0.3654,1.5237,3.8746,1.5654,0.1875,-0.4439,-3.977,2.0988,1.2642,1.313
-1.9996,-1.1231,-0.6029,-0.4177,-2.9751,-0.0045,0.6131,1.4136,3.7637,1.6402,0.1638,-0.453,-4.0178,2.0959,1.3938,1.2452
-1.9996,-1.1231,-0.6029,-0.4177,-2.9751,-0.0045,0.6131,1.4136,3.7637,1.6402,0.1638,-0.453,-4.0178,2.0959,1.3938,1.2452
-1.9996,-1.1231,-0.6029,-0.4177,-2.9751,-0.0045,0.6131,1.4136,3.7637,1.6402,0.1638,-0.453,-4.0178,2.0959,1.3938,1.2452
-1.9996,-1.1231,-0.6029,-0.4177,-2.9751,-0.0045,0.6131,1.4136,3.7637,1.6402,0.1638,-0.453,-4.0178,2.0959,1.3938,1.2452
-1.8733,-1.1246,-0.6632,-0.4118,-2.4779,-0.1644,0.7655,1.3597,3.3215,1.9397,0.1059,-0.4557,-3.9132,2.0069,1.3837,1.2598
-1.8733,-1.1246,-0.6632,-0.4118,-2.4779,-0.1644,0.7655,1.3597,3.3215,1.9397,0.1059,-0.4557,-3.9132,2.0069,1.3837,1.2598
-1.9841,-1.0854,-0.6209,-0.4727,-2.3742,-0.201,0.7239,1.4197,3.0272,1.8648,0.131,-0.4704,-4.0197,1.9755,1.2279,1.3259
-1.9841,-1.0854,-0.6209,-0.4727,-2.3742,-0.201,0.7239,1.4197,3.0272,1.8648,0.131,-0.4704,-4.0197,1.9755,1.2279,1.3259
-1.933,-1.0384,-0.5234,-0.4918,-2.3203,-0.1087,0.8146,1.4559,2.9308,1.7576,0.2433,-0.4811,-4.1077,2.0411,1.1611,1.3826
-1.933,-1.0384,-0.5234,-0.4918,-2.3203,-0.1087,0.8146,1.4559,2.9308,1.7576,0.2433,-0.4811,-4.1077,2.0411,1.1611,1.3826
-1.6738,-1.1082,-0.4486,-0.5182,-2.3712,0.0217,0.8497,1.4892,3.1136,1.6579,0.3697,-0.4675,-4.0584,2.0929,1.2032,1.401
-1.6738,-1.1082,-0.4486,-0.5182,-2.3712,0.0217,0.8497,1.4892,3.1136,1.6579,0.3697,-0.4675,-4.0584,2.0929,1.2032,1.401
-1.6738,-1.1082,-0.4486,-0.5182,-2.3712,0.0217,0.8497,1.4892,3.1136,1.6579,0.3697,-0.4675,-4.0584,2.0929,1.2032,1.401
-1.2233,-1.2019,-0.2796,-0.5165,-2.3705,0.1349,1.2537,1.4153,3.5833,1.5622,0.5024,-0.3736,-4.0003,2.1944,1.4713,1.3731
-1.2233,-1.2019,-0.2796,-0.5165,-2.3705,0.1349,1.2537,1.4153,3.5833,1.5622,0.5024,-0.3736,-4.0003,2.1944,1.4713,1.3731
-1.2233,-1.2019,-0.2796,-0.5165,-2.3705,0.1349,1.2537,1.4153,3.5833,1.5622,0.5024,-0.3736,-4.0003,2.1944,1.4713,1.3731
-1.172,-1.0879,-0.2086,-0.4953,-2.3478,0.1594,1.8697,1.2207,3.751,1.5736,0.5253,-0.3404,-3.8611,2.1803,1.5514,1.3783
-1.172,-1.0879,-0.2086,-0.4953,-2.3478,0.1594,1.8697,1.2207,3.751,1.5736,0.5253,-0.3404,-3.8611,2.1803,1.5514,1.3783
-1.2163,-0.9612,-0.2133,-0.4472,-2.31,0.1624,2.0705,1.196,3.8877,1.632,0.5442,-0.3233,-3.5309,2.0812,1.6421,1.3687
-1.2163,-0.9612,-0.2133,-0.4472,-2.31,0.1624,2.0705,1.196,3.8877,1.632,0.5442,-0.3233,-3.5309,2.0812,1.6421,1.3687
-1.2163,-0.9612,-0.2133,-0.4472,-2.31,0.1624,2.0705,1.196,3.8877,1.632,0.5442,-0.3233,-3.5309,2.0812,1.6421,1.3687
-1.6093,-0.9555,-0.1757,-0.584,-2.4757,0.0587,1.3266,1.482,3.7557,1.8224,0.6108,-0.3528,-3.1957,1.9803,1.6587,1.3853
-1.6093,-0.9555,-0.1757,-0.584,-2.4757,0.0587,1.3266,1.482,3.7557,1.8224,0.6108,-0.3528,-3.1957,1.9803,1.6587,1.3853
-1.718,-0.9832,-0.1713,-0.6315,-2.5726,0.0285,1.0758,1.5012,3.8344,1.7946,0.6271,-0.3763,-3.3033,2.0713,1.6215,1.3984
-1.718,-0.9832,-0.1713,-0.6315,-2.5726,0.0285,1.0758,1.5012,3.8344,1.7946,0.6271,-0.3763,-3.3033,2.0713,1.6215,1.3984
-1.6777,-1.0413,-0.1194,-0.6652,-2.5578,0.0073,0.92,1.5562,4.2181,1.5869,0.6284,-0.4005,-3.528,2.2039,1.5308,1.408
-1.6777,-1.0413,-0.1194,-0.6652,-2.5578,0.0073,0.92,1.5562,4.2181,1.5869,0.6284,-0.4005,-3.528,2.2039,1.5308,1.408
-1.6214,-1.0612,-0.1757,-0.584,-2.5873,0.0498,0.92,1.5562,4.6538,1.3971,0.6393,-0.4161,-3.7189,2.2891,1.5041,1.4062
-1.6214,-1.0612,-0.1757,-0.584,-2.5873,0.0498,0.92,1.5562,4.6538,1.3971,0.6393,-0.4161,-3.7189,2.2891,1.5041,1.4062
-1.5284,-1.0721,-0.2228,-0.4748,-2.4983,0.0344,0.8988,1.5868,4.8168,1.3396,0.6135,-0.4011,-3.802,2.2829,1.5884,1.3652
-1.5284,-1.0721,-0.2228,-0.4748,-2.4983,0.0344,0.8988,1.5868,4.8168,1.3396,0.6135,-0.4011,-3.802,2.2829,1.5884,1.3652
-1.5284,-1.0721,-0.2228,-0.4748,-2.4983,0.0344,0.8988,1.5868,4.8168,1.3396,0.6135,-0.4011,-3.802,2.2829,1.5884,1.3652
-1.4957,-0.9957,-0.2418,-0.4061,-2.4532,0.083,1.0903,1.5654,4.6691,1.4636,0.5877,-0.3861,-3.8847,2.2767,1.7745,1.2995
-1.4997,-0.9278,-0.2181,-0.3989,-2.2731,0.0517,1.3053,1.5127,4.3538,1.8298,0.5823,-0.3782,-3.9258,2.2736,1.962,1.2333
-1.4997,-0.9278,-0.2181,-0.3989,-2.2731,0.0517,1.3053,1.5127,4.3538,1.8298,0.5823,-0.3782,-3.9258,2.2736,1.962,1.2333
-1.4835,-0.8891,-0.1562,-0.4052,-2.0231,-0.0204,1.4213,1.5182,3.9633,2.0415,0.5728,-0.3867,-3.8611,2.1803,1.9141,1.2614
-1.4835,-0.8891,-0.1562,-0.4052,-2.0231,-0.0204,1.4213,1.5182,3.9633,2.0415,0.5728,-0.3867,-3.8611,2.1803,1.9141,1.2614
-1.4835,-0.8891,-0.118,-0.4187,-1.9312,-0.0366,1.5225,1.4592,3.5436,2.0427,0.5741,-0.4108,-3.9361,2.1018,1.6999,1.3259
-1.4835,-0.8891,-0.118,-0.4187,-1.9312,-0.0366,1.5225,1.4592,3.5436,2.0427,0.5741,-0.4108,-3.9361,2.1018,1.6999,1.3259
-1.4426,-0.948,-0.1133,-0.467,-1.9996,0.0038,1.464,1.4566,3.3324,2.0082,0.6161,-0.4491,-3.9451,2.0528,1.5144,1.3914
-1.4426,-0.948,-0.1133,-0.467,-1.9996,0.0038,1.464,1.4566,3.3324,2.0082,0.6161,-0.4491,-3.9451,2.0528,1.5144,1.3914
-1.3649,-0.9976,-0.1372,-0.4741,-2.0746,0.112,1.4058,1.4539,3.2445,1.9669,0.6323,-0.4725,-4.0178,2.0959,1.4037,1.4305
-1.3649,-0.9976,-0.1372,-0.4741,-2.0746,0.112,1.4058,1.4539,3.2445,1.9669,0.6323,-0.4725,-4.0178,2.0959,1.4037,1.4305
-1.1517,-1.1172,-0.1991,-0.4678,-2.2113,0.193,1.2689,1.4792,3.3545,1.8921,0.6174,-0.4731,-3.977,2.0988,1.3508,1.4269
-1.1517,-1.1172,-0.1991,-0.4678,-2.2113,0.193,1.2689,1.4792,3.3545,1.8921,0.6174,-0.4731,-3.977,2.0988,1.3508,1.4269
-0.9576,-1.2078,-0.2749,-0.441,-2.3173,0.2305,1.1901,1.507,3.3875,1.8445,0.5606,-0.4354,-3.993,2.1219,1.298,1.4232
-0.9576,-1.2078,-0.2749,-0.441,-2.3173,0.2305,1.1901,1.507,3.3875,1.8445,0.5606,-0.4354,-3.993,2.1219,1.298,1.4232
-0.8994,-1.2284,-0.2985,-0.4481,-2.3401,0.2057,1.4484,1.3926,3.4976,1.7699,0.4944,-0.4061,-4.009,2.145,1.2454,1.4195
-0.8994,-1.2284,-0.2985,-0.4481,-2.3401,0.2057,1.4484,1.3926,3.4976,1.7699,0.4944,-0.4061,-4.009,2.145,1.2454,1.4195
-1.0563,-1.1288,-0.3221,-0.4552,-2.3478,0.1594,1.7089,1.2775,3.5752,1.7425,0.454,-0.3919,-3.8951,2.1048,1.3125,1.3624
-1.3076,-1.0179,-0.3691,-0.4695,-2.3406,0.0918,1.65,1.2753,3.5752,1.7425,0.3895,-0.3867,-3.6338,1.9776,1.3066,1.3312
-1.3076,-1.0179,-0.3691,-0.4695,-2.3406,0.0918,1.65,1.2753,3.5752,1.7425,0.3895,-0.3867,-3.6338,1.9776,1.3066,1.3312
-1.3076,-1.0179,-0.3691,-0.4695,-2.3406,0.0918,1.65,1.2753,3.5752,1.7425,0.3895,-0.3867,-3.6338,1.9776,1.3066,1.3312
-1.6254,-0.9939,-0.3878,-0.5244,-2.4906,0.08,1.3536,1.357,3.5304,1.7226,0.3507,-0.3965,-3.5761,1.9572,1.3269,1.3019
-1.6254,-0.9939,-0.3878,-0.5244,-2.4906,0.08,1.3536,1.357,3.5304,1.7226,0.3507,-0.3965,-3.5761,1.9572,1.3269,1.3019
-1.6254,-0.9939,-0.3878,-0.5244,-2.4906,0.08,1.3536,1.357,3.5304,1.7226,0.3507,-0.3965,-3.5761,1.9572,1.3269,1.3019
-1.8102,-0.9726,-0.3221,-0.5783,-2.5502,0.0528,1.1181,1.4402,3.7309,1.6874,0.3522,-0.4204,-3.6402,2.0496,1.3269,1.3019
-1.8102,-0.9726,-0.3221,-0.5783,-2.5502,0.0528,1.1181,1.4402,3.7309,1.6874,0.3522,-0.4204,-3.6402,2.0496,1.3269,1.3019
-1.8617,-1.02,-0.3643,-0.5173,-2.6243,0.0468,1.1392,1.4098,3.9992,1.557,0.3536,-0.4443,-3.7554,2.0903,1.3371,1.2873
-1.8617,-1.02,-0.3643,-0.5173,-2.6243,0.0468,1.1392,1.4098,3.9992,1.557,0.3536,-0.4443,-3.7554,2.0903,1.3371,1.2873
-1.8417,-1.0489,-0.4067,-0.4562,-2.6243,0.0468,1.2174,1.3822,3.9664,1.6042,0.3443,-0.4527,-3.7968,2.0875,1.5201,1.2226
-1.8417,-1.0489,-0.496,-0.4092,-2.5726,0.0285,1.1392,1.4098,3.8012,1.8425,0.3149,-0.454,-3.854,2.1077,1.6306,1.1836
-1.8417,-1.0489,-0.496,-0.4092,-2.5726,0.0285,1.1392,1.4098,3.8012,1.8425,0.3149,-0.454,-3.854,2.1077,1.6306,1.1836
-1.8417,-1.0489,-0.5566,-0.4032,-2.3121,-0.0635,1.0401,1.4678,3.6556,1.9666,0.2711,-0.456,-3.9361,2.1018,1.6103,1.2129
-1.8417,-1.0489,-0.5566,-0.4032,-2.3121,-0.0635,1.0401,1.4678,3.6556,1.9666,0.2711,-0.456,-3.9361,2.1018,1.6103,1.2129
-1.8417,-1.0489,-0.5566,-0.4032,-2.3121,-0.0635,1.0401,1.4678,3.6556,1.9666,0.2711,-0.456,-3.9361,2.1018,1.6103,1.2129
-1.8617,-1.02,-0.5657,-0.4308,-2.1546,-0.1192,1.0401,1.4678,3.3656,1.9602,0.2433,-0.4811,-4.099,2.0899,1.4264,1.2778
-1.8617,-1.02,-0.5657,-0.4308,-2.1546,-0.1192,1.0401,1.4678,3.3656,1.9602,0.2433,-0.4811,-4.099,2.0899,1.4264,1.2778
-1.8617,-1.02,-0.5888,-0.438,-2.1841,-0.0766,1.0401,1.4678,3.2665,1.8515,0.2753,-0.5271,-4.1481,2.0381,1.2905,1.3148
-1.8617,-1.02,-0.5888,-0.438,-2.1841,-0.0766,1.0401,1.4678,3.2665,1.8515,0.2753,-0.5271,-4.1481,2.0381,1.2905,1.3148
-1.8617,-1.02,-0.5888,-0.438,-2.1841,-0.0766,1.0401,1.4678,3.2665,1.8515,0.2753,-0.5271,-4.1481,2.0381,1.2905,1.3148
-1.5213,-1.2056,-0.5648,-0.5536,-2.4087,0.0189,1.0255,1.4042,3.288,1.7372,0.2209,-0.5137,-4.2285,2.0321,1.1293,1.3497
-1.5213,-1.2056,-0.5648,-0.5536,-2.4087,0.0189,1.0255,1.4042,3.288,1.7372,0.2209,-0.5137,-4.2285,2.0321,1.1293,1.3497
-1.5047,-1.1679,-0.6019,-0.5405,-2.565,0.0741,1.2804,1.2913,3.2665,1.8515,0.1996,-0.483,-4.1481,2.0381,1.1554,1.3515
-1.5047,-1.1679,-0.6019,-0.5405,-2.565,0.0741,1.2804,1.2913,3.2665,1.8515,0.1996,-0.483,-4.1481,2.0381,1.1554,1.3515
-1.5688,-1.0139,-0.5417,-0.5465,-2.6169,0.0924,1.554,1.2404,3.3545,1.8921,0.2525,-0.4727,-3.9132,2.0069,1.2803,1.3295
-1.5688,-1.0139,-0.5417,-0.5465,-2.6169,0.0924,1.554,1.2404,3.3545,1.8921,0.2525,-0.4727,-3.9132,2.0069,1.2803,1.3295
-1.6093,-0.9555,-0.5417,-0.5465,-2.5502,0.0528,1.5913,1.273,3.5657,1.9257,0.3643,-0.4598,-3.4183,1.9189,1.4489,1.3253
-1.6093,-0.9555,-0.5417,-0.5465,-2.5502,0.0528,1.5913,1.273,3.5657,1.9257,0.3643,-0.4598,-3.4183,1.9189,1.4489,1.3253
-1.6093,-0.9555,-0.5417,-0.5465,-2.5502,0.0528,1.5913,1.273,3.5657,1.9257,0.3643,-0.4598,-3.4183,1.9189,1.4489,1.3253
-1.7585,-0.9249,-0.4532,-0.593,-2.5578,0.0073,1.3113,1.418,3.5657,1.9257,0.4675,-0.4553,-3.2328,1.9057,1.5185,1.3453
-1.8662,-0.9528,-0.3505,-0.6597,-2.6318,0.0014,0.9978,1.5288,3.7224,1.8704,0.5714,-0.451,-3.2281,2.0271,1.5514,1.3783
-1.8662,-0.9528,-0.3505,-0.6597,-2.6318,0.0014,0.9978,1.5288,3.7224,1.8704,0.5714,-0.451,-3.2281,2.0271,1.5514,1.3783
-1.9019,-0.9621,-0.3035,-0.6459,-2.6465,0.0226,0.8425,1.5836,4.0389,1.7585,0.6202,-0.4329,-3.2669,2.1472,1.6049,1.3818
-1.9019,-0.9621,-0.3035,-0.6459,-2.6465,0.0226,0.8425,1.5836,4.0389,1.7585,0.6202,-0.4329,-3.2669,2.1472,1.6049,1.3818
-1.846,-0.9818,-0.275,-0.5643,-2.5726,0.0285,0.7652,1.6109,4.1654,1.7501,0.6339,-0.4083,-3.3587,2.2153,1.7333,1.3589
-1.846,-0.9818,-0.275,-0.5643,-2.5726,0.0285,0.7652,1.6109,4.1654,1.7501,0.6339,-0.4083,-3.3587,2.2153,1.7333,1.3589
-1.734,-1.0214,-0.3315,-0.4828,-2.4983,0.0344,0.8637,1.5531,4.2592,1.7899,0.6584,-0.3992,-3.434,2.2598,1.9481,1.2942
-1.734,-1.0214,-0.3315,-0.4828,-2.4983,0.0344,0.8637,1.5531,4.2592,1.7899,0.6584,-0.3992,-3.434,2.2598,1.9481,1.2942
-1.6415,-1.0322,-0.3363,-0.4347,-2.304,-0.0181,1.0758,1.5012,4.1241,1.9847,0.653,-0.3914,-3.3423,2.1917,2.1097,1.2259
-1.6415,-1.0322,-0.3363,-0.4347,-2.304,-0.0181,1.0758,1.5012,4.1241,1.9847,0.653,-0.3914,-3.3423,2.1917,2.1097,1.2259
-1.5486,-1.0431,-0.3883,-0.4009,-2.0551,-0.09,1.1752,1.443,3.8151,2.168,0.623,-0.3926,-3.3521,2.1417,2.0718,1.2393
-1.5486,-1.0431,-0.3883,-0.4009,-2.0551,-0.09,1.1752,1.443,3.8151,2.168,0.623,-0.3926,-3.3521,2.1417,2.0718,1.2393
-1.6415,-1.0322,-0.4727,-0.402,-1.9724,-0.1514,1.1392,1.4098,3.51,2.0912,0.5999,-0.4258,-3.547,2.1045,1.8456,1.3192
-1.6415,-1.0322,-0.4727,-0.402,-1.9724,-0.1514,1.1392,1.4098,3.51,2.0912,0.5999,-0.4258,-3.547,2.1045,1.8456,1.3192
-1.6254,-0.9939,-0.4443,-0.4429,-1.9933,-0.0633,1.1181,1.4402,3.1781,2.0627,0.6066,-0.4575,-3.7301,2.1164,1.6421,1.3687
-1.6254,-0.9939,-0.4443,-0.4429,-1.9933,-0.0633,1.1181,1.4402,3.1781,2.0627,0.6066,-0.4575,-3.7301,2.1164,1.6421,1.3687
-1.435,-1.0832,-0.416,-0.4837,-2.1061,0.0415,1.0401,1.4678,3.1677,1.9941,0.6323,-0.4725,-3.7715,2.1135,1.5411,1.3932
-1.435,-1.0832,-0.416,-0.4837,-2.1061,0.0415,1.0401,1.4678,3.1677,1.9941,0.6323,-0.4725,-3.7715,2.1135,1.5411,1.3932
-1.2434,-1.1728,-0.4394,-0.4908,-2.2272,0.1005,1.1392,1.4098,3.2665,1.8515,0.5863,-0.4504,-3.8701,2.1308,1.5246,1.3766
-1.1689,-1.1552,-0.4019,-0.5041,-2.295,0.1408,1.5329,1.2707,3.2993,1.8043,0.5498,-0.4198,-3.8128,2.1106,1.609,1.3356
-1.1689,-1.1552,-0.4019,-0.5041,-2.295,0.1408,1.5329,1.2707,3.2993,1.8043,0.5498,-0.4198,-3.8128,2.1106,1.609,1.3356
-1.1689,-1.1552,-0.4019,-0.5041,-2.295,0.1408,1.5329,1.2707,3.2993,1.8043,0.5498,-0.4198,-3.8128,2.1106,1.609,1.3356
-1.1689,-1.1552,-0.4019,-0.5041,-2.295,0.1408,1.5329,1.2707,3.2993,1.8043,0.5498,-0.4198,-3.8128,2.1106,1.609,1.3356
-1.2127,-1.0292,-0.3785,-0.497,-2.3478,0.1594,1.8314,1.1882,3.3761,1.7771,0.5444,-0.412,-3.7554,2.0903,1.609,1.3356
-1.2127,-1.0292,-0.3785,-0.497,-2.3478,0.1594,1.8314,1.1882,3.3761,1.7771,0.5444,-0.412,-3.7554,2.0903,1.609,1.3356
-1.2127,-1.0292,-0.3785,-0.497,-2.3478,0.1594,1.8314,1.1882,3.3761,1.7771,0.5444,-0.412,-3.7554,2.0903,1.609,1.3356
-1.5406,-0.8689,-0.3737,-0.5447,-2.3782,0.0889,1.5864,1.367,3.4318,1.8648,0.5038,-0.3977,-3.2488,1.9289,1.6627,1.339
-1.5406,-0.8689,-0.3737,-0.5447,-2.3782,0.0889,1.5864,1.367,3.4318,1.8648,0.5038,-0.3977,-3.2488,1.9289,1.6627,1.339
-1.5406,-0.8689,-0.3737,-0.5447,-2.3782,0.0889,1.5864,1.367,3.4318,1.8648,0.5038,-0.3977,-3.2488,1.9289,1.6627,1.339
-1.5932,-0.917,-0.2564,-0.6321,-2.4236,0.0402,1.3479,1.4513,3.5423,1.7899,0.5052,-0.4217,-3.3397,1.996,1.5987,1.3504
-1.5932,-0.917,-0.2564,-0.6321,-2.4236,0.0402,1.3479,1.4513,3.5423,1.7899,0.5052,-0.4217,-3.3397,1.996,1.5987,1.3504
-1.5932,-0.917,-0.2564,-0.6321,-2.4236,0.0402,1.3479,1.4513,3.5423,1.7899,0.5052,-0.4217,-3.3397,1.996,1.5987,1.3504
-1.5121,-1.034,-0.2609,-0.5846,-2.4609,0.0373,1.0758,1.5012,4.2042,1.5202,0.5025,-0.4618,-3.5957,2.1746,1.5082,1.3601
-1.5121,-1.034,-0.2609,-0.5846,-2.4609,0.0373,1.0758,1.5012,4.2042,1.5202,0.5025,-0.4618,-3.5957,2.1746,1.5082,1.3601
-1.5121,-1.034,-0.3691,-0.4695,-2.4609,0.0373,0.9978,1.5288,4.3968,1.4165,0.4729,-0.4631,-3.6954,2.1922,1.5656,1.3175
-1.5121,-1.034,-0.3691,-0.4695,-2.4609,0.0373,0.9978,1.5288,4.3968,1.4165,0.4729,-0.4631,-3.6954,2.1922,1.5656,1.3175
-1.5121,-1.034,-0.3691,-0.4695,-2.4609,0.0373,0.9978,1.5288,4.3968,1.4165,0.4729,-0.4631,-3.6954,2.1922,1.5656,1.3175
-1.4957,-0.9957,-0.4635,-0.3743,-2.3712,0.0217,1.0758,1.5012,4.2181,1.5869,0.4286,-0.465,-3.836,2.2066,1.6704,1.2471
-1.4957,-0.9957,-0.4635,-0.3743,-2.3712,0.0217,1.0758,1.5012,4.2181,1.5869,0.4286,-0.465,-3.836,2.2066,1.6704,1.2471
-1.516,-0.9664,-0.4635,-0.3743,-1.9103,-0.125,1.2326,1.4458,3.7344,1.9388,0.3256,-0.4694,-3.9521,2.1249,1.6001,1.2275
-1.516,-0.9664,-0.4635,-0.3743,-1.9103,-0.125,1.2326,1.4458,3.7344,1.9388,0.3256,-0.4694,-3.9521,2.1249,1.6001,1.2275
-1.516,-0.9664,-0.4635,-0.3743,-1.9103,-0.125,1.2326,1.4458,3.7344,1.9388,0.3256,-0.4694,-3.9521,2.1249,1.6001,1.2275
-1.6093,-0.9555,-0.4209,-0.4358,-1.9103,-0.125,1.1752,1.443,3.4318,1.8648,0.2978,-0.4945,-4.0266,2.047,1.4366,1.2632
-1.6093,-0.9555,-0.4209,-0.4358,-1.9103,-0.125,1.1752,1.443,3.4318,1.8648,0.2978,-0.4945,-4.0266,2.047,1.4366,1.2632
-1.5688,-1.0139,-0.4301,-0.4633,-2.0082,-0.0419,1.1963,1.4126,3.2227,1.8313,0.3045,-0.5259,-4.0918,2.0182,1.2744,1.2984
-1.5688,-1.0139,-0.4301,-0.4633,-2.0082,-0.0419,1.1963,1.4126,3.2227,1.8313,0.3045,-0.5259,-4.0918,2.0182,1.2744,1.2984
-1.4717,-1.0922,-0.4768,-0.4776,-2.1675,0.0144,1.1392,1.4098,3.1356,1.791,0.2845,-0.5188,-4.1481,2.0381,1.1496,1.3205
-1.4717,-1.0922,-0.4768,-0.4776,-2.1675,0.0144,1.1392,1.4098,3.1356,1.791,0.2845,-0.5188,-4.1481,2.0381,1.1496,1.3205
-1.4717,-1.0922,-0.4768,-0.4776,-2.1675,0.0144,1.1392,1.4098,3.1356,1.791,0.2845,-0.5188,-4.1481,2.0381,1.1496,1.3205
-1.4717,-1.0922,-0.5001,-0.4847,-2.2731,0.0517,1.4747,1.2684,3.1246,1.7243,0.2447,-0.5048,-4.1884,2.0351,1.1437,1.2895
-1.5323,-1.0048,-0.5374,-0.4715,-2.2203,0.0331,1.7132,1.1841,3.2005,1.6975,0.2301,-0.5054,-4.076,1.9954,1.1639,1.2604
-1.5323,-1.0048,-0.5374,-0.4715,-2.2203,0.0331,1.7132,1.1841,3.2005,1.6975,0.2301,-0.5054,-4.076,1.9954,1.1639,1.2604
-1.7224,-0.9156,-0.5697,-0.5061,-2.2811,0.006,1.5329,1.2707,3.1136,1.6579,0.172,-0.508,-3.9159,1.8873,1.122,1.2424
-1.7224,-0.9156,-0.5697,-0.5061,-2.2811,0.006,1.5329,1.2707,3.1136,1.6579,0.172,-0.508,-3.9159,1.8873,1.122,1.2424
-1.922,-0.9331,-0.574,-0.5808,-2.4835,0.0131,1.2385,1.3518,3.0382,1.6846,0.1431,-0.5094,-3.8341,1.8928,1.122,1.2424
-1.922,-0.9331,-0.574,-0.5808,-2.4835,0.0131,1.2385,1.3518,3.0382,1.6846,0.1431,-0.5094,-3.8341,1.8928,1.122,1.2424
-1.922,-0.9331,-0.574,-0.5808,-2.4835,0.0131,1.2385,1.3518,3.0382,1.6846,0.1431,-0.5094,-3.8341,1.8928,1.122,1.2424
-2.0486,-0.9322,-0.5461,-0.621,-2.6096,0.0256,1.0255,1.4042,3.1457,1.6116,0.105,-0.519,-3.9382,1.9812,1.0702,1.2388
-2.0438,-0.9992,-0.5461,-0.621,-2.6981,0.0408,0.8707,1.4589,3.6029,1.45,0.0814,-0.528,-3.9859,2.0499,1.0443,1.2371
-2.0438,-0.9992,-0.5461,-0.621,-2.6981,0.0408,0.8707,1.4589,3.6029,1.45,0.0814,-0.528,-3.9859,2.0499,1.0443,1.2371
-1.9486,-1.0763,-0.574,-0.5808,-2.6834,0.0196,0.8916,1.4287,4.1152,1.304,0.0958,-0.5273,-3.9451,2.0528,1.0961,1.2406
-1.9486,-1.0763,-0.574,-0.5808,-2.6834,0.0196,0.8916,1.4287,4.1152,1.304,0.0958,-0.5273,-3.9451,2.0528,1.0961,1.2406
-1.8177,-1.1442,-0.644,-0.4798,-2.6613,0.0438,1.0255,1.4042,4.1617,1.3227,0.1392,-0.5253,-3.961,2.0758,1.2664,1.1914
-1.8177,-1.1442,-0.644,-0.4798,-2.6613,0.0438,1.0255,1.4042,4.1617,1.3227,0.1392,-0.5253,-3.961,2.0758,1.2664,1.1914
-1.7659,-1.0974,-0.7003,-0.3986,-2.5354,0.0315,1.1392,1.4098,4.0454,1.5763,0.1904,-0.4914,-3.8791,2.0817,1.4444,1.1723
-1.7659,-1.0974,-0.7003,-0.3986,-2.5354,0.0315,1.1392,1.4098,4.0454,1.5763,0.1904,-0.4914,-3.8791,2.0817,1.4444,1.1723
-1.7659,-1.0974,-0.7003,-0.3986,-2.5354,0.0315,1.1392,1.4098,4.0454,1.5763,0.1904,-0.4914,-3.8791,2.0817,1.4444,1.1723
-1.7139,-1.0504,-0.6543,-0.3841,-2.2811,0.006,1.2114,1.4764,3.8676,1.7468,0.2817,-0.4714,-3.7968,2.0875,1.5201,1.2226
-1.7139,-1.0504,-0.6543,-0.3841,-2.2811,0.006,1.2114,1.4764,3.8676,1.7468,0.2817,-0.4714,-3.7968,2.0875,1.5201,1.2226
-1.7139,-1.0504,-0.6543,-0.3841,-2.2811,0.006,1.2114,1.4764,3.8676,1.7468,0.2817,-0.4714,-3.7968,2.0875,1.5201,1.2226
-1.5688,-1.0139,-0.491,-0.4572,-2.0446,0.0686,1.2263,1.5406,3.5752,1.7425,0.5603,-0.5232,-3.8951,2.1048,1.4693,1.2959
-1.5688,-1.0139,-0.491,-0.4572,-2.0446,0.0686,1.2263,1.5406,3.5752,1.7425,0.5603,-0.5232,-3.8951,2.1048,1.4693,1.2959
-1.5688,-1.0139,-0.491,-0.4572,-2.0446,0.0686,1.2263,1.5406,3.5752,1.7425,0.5603,-0.5232,-3.8951,2.1048,1.4693,1.2959
-1.3613,-1.0652,-0.4394,-0.4908,-2.1198,0.1772,1.2049,1.5714,3.7763,1.7072,0.67,-0.5269,-3.8289,2.1338,1.4755,1.3271
-1.3613,-1.0652,-0.4394,-0.4908,-2.1198,0.1772,1.2049,1.5714,3.7763,1.7072,0.67,-0.5269,-3.8289,2.1338,1.4755,1.3271
-1.3613,-1.0652,-0.4394,-0.4908,-2.1198,0.1772,1.2049,1.5714,3.7763,1.7072,0.67,-0.5269,-3.8289,2.1338,1.4755,1.3271
-1.1174,-1.0407,-0.3785,-0.497,-2.1883,0.2178,1.6025,1.4309,3.9134,1.7667,0.6759,-0.4467,-3.7047,2.1426,1.5554,1.3322
-1.1174,-1.0407,-0.3785,-0.497,-2.1883,0.2178,1.6025,1.4309,3.9134,1.7667,0.6759,-0.4467,-3.7047,2.1426,1.5554,1.3322
-1.1174,-1.0407,-0.3785,-0.497,-2.1883,0.2178,1.6025,1.4309,3.9134,1.7667,0.6759,-0.4467,-3.7047,2.1426,1.5554,1.3322
-1.1414,-0.9429,-0.355,-0.4899,-2.1198,0.1772,1.7419,1.405,3.9594,1.7866,0.6801,-0.4305,-3.372,2.0426,1.6192,1.3208
-1.1414,-0.9429,-0.355,-0.4899,-2.1198,0.1772,1.7419,1.405,3.9594,1.7866,0.6801,-0.4305,-3.372,2.0426,1.6192,1.3208
-1.1414,-0.9429,-0.355,-0.4899,-2.1198,0.1772,1.7419,1.405,3.9594,1.7866,0.6801,-0.4305,-3.372,2.0426,1.6192,1.3208
-1.5771,-0.8782,-0.4205,-0.5588,-2.1973,0.0574,1.2625,1.5743,3.7344,1.9388,0.6855,-0.4383,-2.7472,1.7867,1.6563,1.3077
-1.5771,-0.8782,-0.4205,-0.5588,-2.1973,0.0574,1.2625,1.5743,3.7344,1.9388,0.6855,-0.4383,-2.7472,1.7867,1.6563,1.3077
-1.7787,-0.8957,-0.3785,-0.6194,-2.2811,0.006,0.9128,1.6514,3.7224,1.8704,0.6406,-0.4401,-2.9153,1.8989,1.5924,1.3192
-1.7787,-0.8957,-0.3785,-0.6194,-2.2811,0.006,0.9128,1.6514,3.7224,1.8704,0.6406,-0.4401,-2.9153,1.8989,1.5924,1.3192
-1.7787,-0.8957,-0.3785,-0.6194,-2.2811,0.006,0.9128,1.6514,3.7224,1.8704,0.6406,-0.4401,-2.9153,1.8989,1.5924,1.3192
-1.7787,-0.8957,-0.3785,-0.6194,-2.2811,0.006,0.9128,1.6514,3.7224,1.8704,0.6406,-0.4401,-2.9153,1.8989,1.5924,1.3192
-1.7743,-0.9633,-0.3785,-0.6194,-2.3861,0.0431,0.7228,1.6721,3.8676,1.7468,0.6107,-0.4414,-3.1261,2.0087,1.5021,1.3288
-1.7901,-1.0016,-0.472,-0.5253,-2.4384,0.0616,0.6882,1.6381,4.0918,1.5957,0.585,-0.4264,-3.3358,2.1182,1.5492,1.301
-1.7139,-1.0504,-0.5283,-0.444,-2.5054,0.1014,0.8425,1.5836,4.0589,1.6432,0.5498,-0.4198,-3.4954,2.1569,1.7446,1.2209
-1.7139,-1.0504,-0.5283,-0.444,-2.5054,0.1014,0.8425,1.5836,4.0589,1.6432,0.5498,-0.4198,-3.4954,2.1569,1.7446,1.2209
-1.6214,-1.0612,-0.5192,-0.4164,-2.3782,0.0889,1.019,1.4982,3.8344,1.7946,0.52,-0.4211,-3.5794,2.1512,1.8768,1.1519
-1.6214,-1.0612,-0.5192,-0.4164,-2.3782,0.0889,1.019,1.4982,3.8344,1.7946,0.52,-0.4211,-3.5794,2.1512,1.8768,1.1519
-1.6214,-1.0612,-0.5192,-0.4164,-2.3782,0.0889,1.019,1.4982,3.8344,1.7946,0.52,-0.4211,-3.5794,2.1512,1.8768,1.1519
-1.6214,-1.0612,-0.5192,-0.4164,-2.3782,0.0889,1.019,1.4982,3.8344,1.7946,0.52,-0.4211,-3.5794,2.1512,1.8768,1.1519
-1.6415,-1.0322,-0.5657,-0.4308,-2.0082,-0.0419,1.1181,1.4402,3.3433,1.8244,0.4877,-0.4625,-3.7554,2.0903,1.6231,1.2749
-1.6415,-1.0322,-0.5657,-0.4308,-2.0082,-0.0419,1.1181,1.4402,3.3433,1.8244,0.4877,-0.4625,-3.7554,2.0903,1.6231,1.2749
-1.6617,-1.0031,-0.5142,-0.4644,-2.0146,0.0254,1.097,1.4707,3.0597,1.8178,0.5199,-0.5089,-3.9112,2.1279,1.4857,1.3124
-1.6617,-1.0031,-0.5142,-0.4644,-2.0146,0.0254,1.097,1.4707,3.0597,1.8178,0.5199,-0.5089,-3.9112,2.1279,1.4857,1.3124
-1.5486,-1.0431,-0.472,-0.5253,-2.1279,0.1308,1.1181,1.4402,3.049,1.751,0.536,-0.5321,-3.9682,2.148,1.4224,1.3236
-1.5486,-1.0431,-0.472,-0.5253,-2.1279,0.1308,1.1181,1.4402,3.049,1.751,0.536,-0.5321,-3.9682,2.148,1.4224,1.3236
-1.2434,-1.1728,-0.4812,-0.5526,-2.2643,0.2118,1.0612,1.4374,3.2005,1.6975,0.501,-0.5256,-3.9682,2.148,1.3593,1.3348
-0.9551,-1.2747,-0.4952,-0.5324,-2.2493,0.1901,1.1392,1.4098,3.3852,1.597,0.4554,-0.5036,-4.009,2.145,1.3797,1.3054
-0.9551,-1.2747,-0.4952,-0.5324,-2.2493,0.1901,1.1392,1.4098,3.3852,1.597,0.4554,-0.5036,-4.009,2.145,1.3797,1.3054
-0.9551,-1.2747,-0.4952,-0.5324,-2.2493,0.1901,1.1392,1.4098,3.3852,1.597,0.4554,-0.5036,-4.009,2.145,1.3797,1.3054
-0.9551,-1.2747,-0.5325,-0.5192,-2.31,0.1624,1.3747,1.3266,3.494,1.5235,0.3697,-0.4675,-4.0497,2.1419,1.4733,1.2502
-0.9551,-1.2747,-0.5325,-0.5192,-2.31,0.1624,1.3747,1.3266,3.494,1.5235,0.3697,-0.4675,-4.0497,2.1419,1.4733,1.2502
-1.036,-1.1581,-0.5466,-0.499,-2.3478,0.1594,1.6922,1.2144,3.494,1.5235,0.2949,-0.4469,-4.0903,2.1389,1.4935,1.221
-1.036,-1.1581,-0.5466,-0.499,-2.3478,0.1594,1.6922,1.2144,3.494,1.5235,0.2949,-0.4469,-4.0903,2.1389,1.4935,1.221
-1.2536,-0.9703,-0.6209,-0.4727,-2.4081,0.1319,1.6922,1.2144,3.3529,1.6436,0.2511,-0.4489,-3.8882,2.0327,1.4569,1.2339
-1.2536,-0.9703,-0.6209,-0.4727,-2.4081,0.1319,1.6922,1.2144,3.3529,1.6436,0.2511,-0.4489,-3.8882,2.0327,1.4569,1.2339
-1.2536,-0.9703,-0.6209,-0.4727,-2.4081,0.1319,1.6922,1.2144,3.3529,1.6436,0.2511,-0.4489,-3.8882,2.0327,1.4569,1.2339
-1.4098,-0.8704,-0.644,-0.4798,-2.3782,0.0889,1.5702,1.3035,3.3971,1.6633,0.2326,-0.4657,-3.7009,1.9492,1.4101,1.2615
-1.4098,-0.8704,-0.644,-0.4798,-2.3782,0.0889,1.5702,1.3035,3.3971,1.6633,0.2326,-0.4657,-3.7009,1.9492,1.4101,1.2615
-1.634,-0.8581,-0.5648,-0.5536,-2.4609,0.0373,1.2326,1.4458,3.3646,1.7101,0.2088,-0.4747,-3.6276,1.906,1.3736,1.2744
-1.8147,-0.905,-0.4346,-0.6604,-2.5949,0.0044,0.9834,1.4649,3.288,1.7372,0.2156,-0.5061,-3.7009,1.9492,1.3108,1.2856
-1.8147,-0.905,-0.4346,-0.6604,-2.5949,0.0044,0.9834,1.4649,3.288,1.7372,0.2156,-0.5061,-3.7009,1.9492,1.3108,1.2856
-1.8102,-0.9726,-0.2713,-0.7332,-2.6172,-0.0197,0.8286,1.5196,3.4088,1.73,0.2514,-0.5361,-3.822,2.0615,1.2744,1.2984
-1.8102,-0.9726,-0.2713,-0.7332,-2.6172,-0.0197,0.8286,1.5196,3.4088,1.73,0.2514,-0.5361,-3.822,2.0615,1.2744,1.2984
-1.77,-1.0306,-0.3087,-0.72,-2.6541,-0.0227,0.7936,1.4861,3.6732,1.6011,0.2329,-0.5527,-4.025,2.1681,1.2119,1.3095
-1.77,-1.0306,-0.3087,-0.72,-2.6541,-0.0227,0.7936,1.4861,3.6732,1.6011,0.2329,-0.5527,-4.025,2.1681,1.2119,1.3095
-1.8059,-1.0397,-0.4159,-0.6062,-2.6172,-0.0197,0.7378,1.483,3.9721,1.4248,0.1946,-0.5622,-4.1628,2.1819,1.1698,1.2913
-1.8059,-1.0397,-0.4159,-0.6062,-2.6172,-0.0197,0.7378,1.483,3.9721,1.4248,0.1946,-0.5622,-4.1628,2.1819,1.1698,1.2913
-1.8059,-1.0397,-0.5747,-0.4584,-2.5655,-0.038,0.7378,1.483,4.0506,1.3971,0.1459,-0.5565,-4.2434,2.1756,1.2624,1.2366
-1.8059,-1.0397,-0.5747,-0.4584,-2.5655,-0.038,0.7378,1.483,4.0506,1.3971,0.1459,-0.5565,-4.2434,2.1756,1.2624,1.2366
-1.8102,-0.9726,-0.6914,-0.371,-2.4913,-0.0323,0.7378,1.483,3.9072,1.5184,0.0973,-0.5508,-4.3077,2.1463,1.3552,1.1819
-1.8102,-0.9726,-0.6914,-0.371,-2.4913,-0.0323,0.7378,1.483,3.9072,1.5184,0.0973,-0.5508,-4.3077,2.1463,1.3552,1.1819
-1.8102,-0.9726,-0.6914,-0.371,-2.4913,-0.0323,0.7378,1.483,3.9072,1.5184,0.0973,-0.5508,-4.3077,2.1463,1.3552,1.1819
-1.7945,-0.9342,-0.7427,-0.3375,-2.245,-0.1032,0.7936,1.4861,3.5752,1.7425,0.0488,-0.5452,-4.316,2.0974,1.3451,1.1964
-1.7945,-0.9342,-0.7427,-0.3375,-2.245,-0.1032,0.7936,1.4861,3.5752,1.7425,0.0488,-0.5452,-4.316,2.0974,1.3451,1.1964
-1.7945,-0.9342,-0.6914,-0.371,-1.996,-0.1752,0.9479,1.4316,3.288,1.7372,0.0359,-0.5693,-4.4279,2.0169,1.174,1.2459
-1.7945,-0.9342,-0.6914,-0.371,-1.996,-0.1752,0.9479,1.4316,3.288,1.7372,0.0359,-0.5693,-4.4279,2.0169,1.174,1.2459
-1.7945,-0.9342,-0.6914,-0.371,-1.996,-0.1752,0.9479,1.4316,3.288,1.7372,0.0359,-0.5693,-4.4279,2.0169,1.174,1.2459
-1.6617,-1.0031,-0.626,-0.4249,-2.0082,-0.0419,0.9834,1.4649,2.835,1.6517,0.1367,-0.5648,-4.4361,1.9688,1.0558,1.2986
-1.6617,-1.0031,-0.626,-0.4249,-2.0082,-0.0419,0.9834,1.4649,2.835,1.6517,0.1367,-0.5648,-4.4361,1.9688,1.0558,1.2986
-1.6617,-1.0031,-0.626,-0.4249,-2.0082,-0.0419,0.9834,1.4649,2.835,1.6517,0.1367,-0.5648,-4.4361,1.9688,1.0558,1.2986
-1.4552,-1.0541,-0.6029,-0.4177,-2.0679,0.0442,1.097,1.4707,2.9842,1.599,0.2355,-0.5131,-4.2928,2.0034,1.1235,1.3187
-1.304,-1.0854,-0.5798,-0.4105,-2.0596,0.0903,1.5279,1.3646,3.0703,1.6382,0.3349,-0.4611,-4.1481,2.0381,1.2541,1.3277
-1.304,-1.0854,-0.5798,-0.4105,-2.0596,0.0903,1.5279,1.3646,3.0703,1.6382,0.3349,-0.4611,-4.1481,2.0381,1.2541,1.3277
-1.3113,-0.9499,-0.496,-0.4092,-1.8903,0.0796,1.9678,1.2554,3.1892,1.6312,0.4071,-0.434,-3.9132,2.0069,1.3797,1.3054
-1.3113,-0.9499,-0.496,-0.4092,-1.8903,0.0796,1.9678,1.2554,3.1892,1.6312,0.4071,-0.434,-3.9132,2.0069,1.3797,1.3054
-1.3358,-0.8518,-0.4351,-0.4153,-1.7585,0.0659,2.1486,1.2613,3.2328,1.6509,0.4406,-0.4165,-3.6019,1.9316,1.4529,1.2795
-1.451,-0.8111,-0.4443,-0.4429,-1.7673,0.0198,1.9207,1.4119,3.265,1.6044,0.4406,-0.4165,-3.3545,1.8268,1.4428,1.2942
-1.451,-0.8111,-0.4443,-0.4429,-1.7673,0.0198,1.9207,1.4119,3.265,1.6044,0.4406,-0.4165,-3.3545,1.8268,1.4428,1.2942
-1.6907,-0.8381,-0.4346,-0.5385,-2.0296,0.047,1.5167,1.5547,3.2213,1.5849,0.446,-0.4243,-3.3545,1.8268,1.4326,1.3089
-1.6907,-0.8381,-0.4346,-0.5385,-2.0296,0.047,1.5167,1.5547,3.2213,1.5849,0.446,-0.4243,-3.3545,1.8268,1.4326,1.3089
-1.6907,-0.8381,-0.4346,-0.5385,-2.0296,0.047,1.5167,1.5547,3.2213,1.5849,0.446,-0.4243,-3.3545,1.8268,1.4326,1.3089
-1.835,-0.8758,-0.3691,-0.5922,-2.1892,0.1034,1.2774,1.6392,3.4175,1.5505,0.4661,-0.4314,-3.4924,1.9625,1.4489,1.3253
-1.835,-0.8758,-0.3691,-0.5922,-2.1892,0.1034,1.2774,1.6392,3.4175,1.5505,0.4661,-0.4314,-3.4924,1.9625,1.4489,1.3253
-1.8506,-0.9144,-0.341,-0.6326,-2.295,0.1408,1.0833,1.661,3.6929,1.4883,0.5173,-0.4612,-3.6307,2.0989,1.4285,1.3548
-1.8506,-0.9144,-0.341,-0.6326,-2.295,0.1408,1.0833,1.661,3.6929,1.4883,0.5173,-0.4612,-3.6307,2.0989,1.4285,1.3548
-1.7743,-0.9633,-0.3316,-0.6055,-2.295,0.1408,1.0833,1.661,4.2552,1.3601,0.5578,-0.4755,-3.7695,2.236,1.4816,1.3583
-1.7743,-0.9633,-0.3316,-0.6055,-2.295,0.1408,1.0833,1.661,4.2552,1.3601,0.5578,-0.4755,-3.7695,2.236,1.4816,1.3583
-1.585,-1.0521,-0.3643,-0.5173,-2.2571,0.1437,1.3203,1.5772,4.6711,1.284,0.5727,-0.4749,-3.8434,2.2798,1.5822,1.3339
-1.585,-1.0521,-0.3643,-0.5173,-2.2571,0.1437,1.3203,1.5772,4.6711,1.284,0.5727,-0.4749,-3.8434,2.2798,1.5822,1.3339
-1.4148,-1.1123,-0.4443,-0.4429,-2.2571,0.1437,1.5811,1.4618,4.6867,1.3497,0.5929,-0.4821,-3.9421,2.297,1.8053,1.2551
-1.4148,-1.1123,-0.4443,-0.4429,-2.2571,0.1437,1.5811,1.4618,4.6867,1.3497,0.5929,-0.4821,-3.9421,2.297,1.8053,1.2551
-1.3411,-1.0944,-0.4727,-0.402,-2.1129,0.1091,1.7419,1.405,4.4546,1.6843,0.5971,-0.4659,-3.9258,2.2736,1.9825,1.2037
-1.3411,-1.0944,-0.4727,-0.402,-2.1129,0.1091,1.7419,1.405,4.4546,1.6843,0.5971,-0.4659,-3.9258,2.2736,1.9825,1.2037
-1.4019,-1.0067,-0.5476,-0.3756,-1.8839,0.0119,1.8013,1.4073,4.0775,1.9642,0.5768,-0.4588,-3.8773,2.2035,1.9825,1.2037
-1.4019,-1.0067,-0.5476,-0.3756,-1.8839,0.0119,1.8013,1.4073,4.0775,1.9642,0.5768,-0.4588,-3.8773,2.2035,1.9825,1.2037
-1.3853,-0.9682,-0.585,-0.3623,-1.5745,-0.0811,1.7367,1.5004,3.7354,2.1962,0.547,-0.46,-3.8128,2.1106,1.8971,1.245
-1.3853,-0.9682,-0.585,-0.3623,-1.5745,-0.0811,1.7367,1.5004,3.7354,2.1962,0.547,-0.46,-3.8128,2.1106,1.8971,1.245
-1.4262,-0.9093,-0.5708,-0.3828,-1.3558,-0.1584,1.6127,1.5913,3.4762,2.1398,0.5173,-0.4612,-3.822,2.0615,1.7539,1.3292
-1.4262,-0.9093,-0.5708,-0.3828,-1.3558,-0.1584,1.6127,1.5913,3.4762,2.1398,0.5173,-0.4612,-3.822,2.0615,1.7539,1.3292
-1.4262,-0.9093,-0.5425,-0.4236,-1.3708,-0.1367,1.5322,1.6197,3.2551,2.0355,0.5496,-0.5077,-3.8974,1.984,1.5041,1.4062
-1.4262,-0.9093,-0.5425,-0.4236,-1.3708,-0.1367,1.5322,1.6197,3.2551,2.0355,0.5496,-0.5077,-3.8974,1.984,1.5041,1.4062
-1.4426,-0.948,-0.5001,-0.4847,-1.4954,-0.0763,1.3353,1.6422,3.19,1.8786,0.6371,-0.5678,-3.9066,1.9356,1.3772,1.4287
-1.4426,-0.948,-0.5001,-0.4847,-1.4954,-0.0763,1.3353,1.6422,3.19,1.8786,0.6371,-0.5678,-3.9066,1.9356,1.3772,1.4287
-1.4426,-0.948,-0.5001,-0.4847,-1.4954,-0.0763,1.3353,1.6422,3.19,1.8786,0.6371,-0.5678,-3.9066,1.9356,1.3772,1.4287
-1.3446,-1.0269,-0.4579,-0.5456,-1.7433,0.0441,1.1406,1.6641,3.3646,1.7101,0.6383,-0.5915,-3.9632,1.9556,1.2717,1.4213
-1.3446,-1.0269,-0.4579,-0.5456,-1.7433,0.0441,1.1406,1.6641,3.3646,1.7101,0.6383,-0.5915,-3.9632,1.9556,1.2717,1.4213
-1.3446,-1.0269,-0.4579,-0.5456,-1.7433,0.0441,1.1406,1.6641,3.3646,1.7101,0.6383,-0.5915,-3.9632,1.9556,1.2717,1.4213
-1.0157,-1.1873,-0.5045,-0.5597,-2.1198,0.1772,1.0903,1.5654,3.7057,1.5542,0.5306,-0.5244,-3.9541,2.0041,1.2862,1.3606
-1.0157,-1.1873,-0.5045,-0.5597,-2.1198,0.1772,1.0903,1.5654,3.7057,1.5542,0.5306,-0.5244,-3.9541,2.0041,1.2862,1.3606
-1.0766,-1.0995,-0.5417,-0.5465,-2.3023,0.2088,1.2901,1.4486,3.7184,1.6206,0.4594,-0.4876,-3.9291,2.0299,1.3431,1.3183
-1.0766,-1.0995,-0.5417,-0.5465,-2.3023,0.2088,1.2901,1.4486,3.7184,1.6206,0.4594,-0.4876,-3.9291,2.0299,1.3431,1.3183
-1.2574,-0.9019,-0.5325,-0.5192,-2.2342,0.1683,1.5279,1.3646,3.7763,1.7072,0.4339,-0.4727,-3.6338,1.9776,1.4264,1.2778
-1.2574,-0.9019,-0.5325,-0.5192,-2.2342,0.1683,1.5279,1.3646,3.7763,1.7072,0.4339,-0.4727,-3.6338,1.9776,1.4264,1.2778
-1.3934,-0.8314,-0.6069,-0.4929,-2.1892,0.1034,1.5066,1.3952,3.7888,1.7746,0.4192,-0.4733,-3.1847,1.8363,1.4998,1.2519
-1.3934,-0.8314,-0.6069,-0.4929,-2.1892,0.1034,1.5066,1.3952,3.7888,1.7746,0.4192,-0.4733,-3.1847,1.8363,1.4998,1.2519
-1.3934,-0.8314,-0.6069,-0.4929,-2.1892,0.1034,1.5066,1.3952,3.7888,1.7746,0.4192,-0.4733,-3.1847,1.8363,1.4998,1.2519
-1.634,-0.8581,-0.648,-0.5546,-2.296,0.0274,1.0546,1.5318,3.554,1.8576,0.4205,-0.4971,-3.0939,1.7695,1.4733,1.2502
-1.634,-0.8581,-0.648,-0.5546,-2.296,0.0274,1.0546,1.5318,3.554,1.8576,0.4205,-0.4971,-3.0939,1.7695,1.4733,1.2502
-1.8662,-0.9528,-0.6015,-0.6619,-2.4913,-0.0323,0.6537,1.6043,3.3875,1.8445,0.4071,-0.5215,-3.2379,1.7856,1.4203,1.2469
-2.0991,-0.9797,-0.5093,-0.7547,-2.5733,-0.0831,0.3364,1.6477,3.332,1.7571,0.3644,-0.547,-3.5024,1.9138,1.3411,1.2418
-2.0991,-0.9797,-0.5093,-0.7547,-2.5733,-0.0831,0.3364,1.6477,3.332,1.7571,0.3644,-0.547,-3.5024,1.9138,1.3411,1.2418
-2.0944,-1.0464,-0.4723,-0.7677,-2.6909,-0.0256,0.3029,1.6139,3.3971,1.6633,0.3058,-0.5495,-3.7647,2.0412,1.2785,1.2529
-2.0944,-1.0464,-0.4723,-0.7677,-2.6909,-0.0256,0.3029,1.6139,3.3971,1.6633,0.3058,-0.5495,-3.7647,2.0412,1.2785,1.2529
-2.0944,-1.0464,-0.4723,-0.7677,-2.6909,-0.0256,0.3029,1.6139,3.3971,1.6633,0.3058,-0.5495,-3.7647,2.0412,1.2785,1.2529
-2.0592,-1.0372,-0.5415,-0.668,-2.6172,-0.0197,0.3029,1.6139,3.5509,1.6089,0.2713,-0.5431,-3.838,2.0846,1.3512,1.2272
-2.0592,-1.0372,-0.5415,-0.668,-2.6172,-0.0197,0.3029,1.6139,3.5509,1.6089,0.2713,-0.5431,-3.838,2.0846,1.3512,1.2272
-2.0592,-1.0372,-0.5415,-0.668,-2.6172,-0.0197,0.3029,1.6139,3.5509,1.6089,0.2713,-0.5431,-3.838,2.0846,1.3512,1.2272
-1.8774,-1.058,-0.7218,-0.5285,-2.2974,-0.0847,0.6476,1.4467,3.3433,1.8244,0.1392,-0.5253,-3.9041,2.0557,1.4544,1.1578
-1.8774,-1.058,-0.7218,-0.5285,-2.2974,-0.0847,0.6476,1.4467,3.3433,1.8244,0.1392,-0.5253,-3.9041,2.0557,1.4544,1.1578
-1.8931,-1.0959,-0.827,-0.5369,-2.1104,-0.1828,0.6338,1.3837,3.1464,1.8583,0.0814,-0.528,-3.8974,1.984,1.3815,1.1836
-1.8931,-1.0959,-0.827,-0.5369,-2.1104,-0.1828,0.6338,1.3837,3.1464,1.8583,0.0814,-0.528,-3.8974,1.984,1.3815,1.1836
-1.9486,-1.0763,-0.8863,-0.531,-2.1104,-0.1828,0.5787,1.3806,2.8133,1.764,0.011,-0.5548,-4.2128,2.0094,1.148,1.2442
-1.9486,-1.0763,-0.8863,-0.531,-2.1104,-0.1828,0.5787,1.3806,2.8133,1.764,0.011,-0.5548,-4.2128,2.0094,1.148,1.2442
-1.9685,-1.0476,-0.9367,-0.4981,-2.1925,-0.1218,0.5372,1.4404,2.4467,1.6506,-0.0395,-0.5885,-4.5618,2.0302,0.8758,1.2857
-1.9685,-1.0476,-0.9367,-0.4981,-2.1925,-0.1218,0.5372,1.4404,2.4467,1.6506,-0.0395,-0.5885,-4.5618,2.0302,0.8758,1.2857
-2.0239,-1.028,-0.9002,-0.511,-2.3712,0.0217,0.5372,1.4404,2.3958,1.566,-0.0147,-0.6029,-4.7027,2.114,0.7793,1.3089
-2.0239,-1.028,-0.9002,-0.511,-2.3712,0.0217,0.5372,1.4404,2.3958,1.566,-0.0147,-0.6029,-4.7027,2.114,0.7793,1.3089
-1.7659,-1.0974,-0.8776,-0.5039,-2.423,0.1534,0.5923,1.4435,2.4783,1.6052,0.066,-0.5914,-4.6011,2.1466,0.8658,1.3002
-1.7659,-1.0974,-0.8776,-0.5039,-2.423,0.1534,0.5923,1.4435,2.4783,1.6052,0.066,-0.5914,-4.6011,2.1466,0.8658,1.3002
-1.3746,-1.1703,-0.7726,-0.4954,-2.3551,0.2275,0.7378,1.483,2.782,1.5666,0.1551,-0.5482,-4.3477,2.1431,1.0401,1.2823
-1.3746,-1.1703,-0.7726,-0.4954,-2.3551,0.2275,0.7378,1.483,2.782,1.5666,0.1551,-0.5482,-4.3477,2.1431,1.0401,1.2823
-1.3746,-1.1703,-0.7726,-0.4954,-2.3551,0.2275,0.7378,1.483,2.782,1.5666,0.1551,-0.5482,-4.3477,2.1431,1.0401,1.2823
-1.1084,-1.2425,-0.7269,-0.4811,-2.2264,0.2148,1.0044,1.4345,3.1228,1.4807,0.2088,-0.4747,-4.1468,2.1588,1.2785,1.2529
-1.1084,-1.2425,-0.7269,-0.4811,-2.2264,0.2148,1.0044,1.4345,3.1228,1.4807,0.2088,-0.4747,-4.1468,2.1588,1.2785,1.2529
-0.9955,-1.2165,-0.6209,-0.4727,-2.0815,0.1801,1.5913,1.273,3.3612,1.4658,0.2896,-0.4392,-4.009,2.145,1.4304,1.2323
-0.9955,-1.2165,-0.6209,-0.4727,-2.0815,0.1801,1.5913,1.273,3.3612,1.4658,0.2896,-0.4392,-4.009,2.145,1.4304,1.2323
-1.0798,-1.0317,-0.5747,-0.4584,-2.0046,0.1859,2.1129,1.1348,3.4618,1.57,0.3669,-0.4198,-3.8862,2.154,1.5569,1.2096
-1.2447,-0.7939,-0.5657,-0.4308,-1.9425,0.2136,2.4599,1.0815,3.5184,1.6558,0.3963,-0.4185,-3.6307,2.0989,1.6103,1.2129
-1.2447,-0.7939,-0.5657,-0.4308,-1.9425,0.2136,2.4599,1.0815,3.5184,1.6558,0.3963,-0.4185,-3.6307,2.0989,1.6103,1.2129
-1.2698,-0.6943,-0.5798,-0.4105,-1.8106,0.2001,2.3959,1.1739,3.4976,1.7699,0.3963,-0.4185,-3.3397,1.996,1.5798,1.2569
-1.2698,-0.6943,-0.5798,-0.4105,-1.8106,0.2001,2.3959,1.1739,3.4976,1.7699,0.3963,-0.4185,-3.3397,1.996,1.5798,1.2569
-1.4601,-0.6725,-0.6119,-0.4452,-1.7953,0.1781,2.0194,1.4476,3.4204,1.7972,0.3977,-0.4424,-3.1901,1.9081,1.5594,1.2863
-1.4601,-0.6725,-0.6119,-0.4452,-1.7953,0.1781,2.0194,1.4476,3.4204,1.7972,0.3977,-0.4424,-3.1901,1.9081,1.5594,1.2863
-1.4601,-0.6725,-0.6119,-0.4452,-1.7953,0.1781,2.0194,1.4476,3.4204,1.7972,0.3977,-0.4424,-3.1901,1.9081,1.5594,1.2863
-1.5862,-0.7408,-0.5788,-0.5334,-1.8581,0.1506,1.5476,1.6852,3.4204,1.7972,0.3991,-0.4662,-3.2328,1.9057,1.5327,1.2846
-1.5862,-0.7408,-0.5788,-0.5334,-1.8581,0.1506,1.5476,1.6852,3.4204,1.7972,0.3991,-0.4662,-3.2328,1.9057,1.5327,1.2846
-1.6545,-0.8286,-0.5322,-0.641,-1.9356,0.145,1.2052,1.8299,3.4088,1.73,0.3964,-0.5061,-3.4082,1.9677,1.4896,1.2666
-1.65,-0.8969,-0.5507,-0.6949,-1.9508,0.1669,1.1256,1.858,3.751,1.5736,0.3884,-0.5381,-3.5824,2.0292,1.4366,1.2632
-1.65,-0.8969,-0.5507,-0.6949,-1.9508,0.1669,1.1256,1.858,3.751,1.5736,0.3884,-0.5381,-3.5824,2.0292,1.4366,1.2632
-1.6093,-0.9555,-0.6752,-0.6358,-1.966,0.1888,1.1474,1.8266,4.1294,1.3693,0.355,-0.5553,-3.8128,2.1106,1.4203,1.2469
-1.6093,-0.9555,-0.6752,-0.6358,-1.966,0.1888,1.1474,1.8266,4.1294,1.3693,0.355,-0.5553,-3.8128,2.1106,1.4203,1.2469
-1.6093,-0.9555,-0.6752,-0.6358,-1.966,0.1888,1.1474,1.8266,4.1294,1.3693,0.355,-0.5553,-3.8128,2.1106,1.4203,1.2469
-1.6296,-0.9262,-0.8131,-0.5569,-1.9812,0.2107,1.2269,1.7985,4.176,1.3881,0.3111,-0.5572,-3.9361,2.1018,1.4872,1.1902
-1.65,-0.8969,-0.9228,-0.5182,-1.9037,0.2164,1.467,1.7136,3.9796,1.6712,0.2422,-0.5444,-4.0018,2.0729,1.5808,1.1351
-1.65,-0.8969,-0.9228,-0.5182,-1.9037,0.2164,1.467,1.7136,3.9796,1.6712,0.2422,-0.5444,-4.0018,2.0729,1.5808,1.1351
-1.6545,-0.8286,-0.9454,-0.5253,-1.6776,0.1864,1.6284,1.6566,3.7799,1.9592,0.2131,-0.5457,-4.0107,2.0241,1.6277,1.1076
-1.6545,-0.8286,-0.9454,-0.5253,-1.6776,0.1864,1.6284,1.6566,3.7799,1.9592,0.2131,-0.5457,-4.0107,2.0241,1.6277,1.1076
-1.6545,-0.8286,-0.9904,-0.5396,-1.3627,0.0919,1.7094,1.628,3.5548,2.1121,0.1749,-0.5552,-3.9881,1.93,1.5441,1.1481
-1.6545,-0.8286,-0.9904,-0.5396,-1.3627,0.0919,1.7094,1.628,3.5548,2.1121,0.1749,-0.5552,-3.9881,1.93,1.5441,1.1481
-1.6545,-0.8286,-0.9904,-0.5396,-1.3627,0.0919,1.7094,1.628,3.5548,2.1121,0.1749,-0.5552,-3.9881,1.93,1.5441,1.1481
-1.6545,-0.8286,-0.9904,-0.5396,-1.3627,0.0919,1.7094,1.628,3.5548,2.1121,0.1749,-0.5552,-3.9881,1.93,1.5441,1.1481
-1.8708,-0.8852,-1.0698,-0.6613,-1.3569,0.0233,1.4735,1.6169,2.9515,1.8916,0.1618,-0.6653,-4.3362,1.7646,1.0961,1.2406
-1.8708,-0.8852,-1.0698,-0.6613,-1.3569,0.0233,1.4735,1.6169,2.9515,1.8916,0.1618,-0.6653,-4.3362,1.7646,1.0961,1.2406
-1.8708,-0.8852,-1.0698,-0.6613,-1.3569,0.0233,1.4735,1.6169,2.9515,1.8916,0.1618,-0.6653,-4.3362,1.7646,1.0961,1.2406
-1.846,-0.9818,-1.1809,-0.6963,-1.5681,0.1477,1.3353,1.6422,2.8661,1.8509,0.1788,-0.7112,-4.5484,1.7727,1.0085,1.2497
-1.846,-0.9818,-1.1809,-0.6963,-1.5681,0.1477,1.3353,1.6422,2.8661,1.8509,0.1788,-0.7112,-4.5484,1.7727,1.0085,1.2497
-1.846,-0.9818,-1.1809,-0.6963,-1.5681,0.1477,1.3353,1.6422,2.8661,1.8509,0.1788,-0.7112,-4.5484,1.7727,1.0085,1.2497
-1.846,-0.9818,-1.1809,-0.6963,-1.5681,0.1477,1.3353,1.6422,2.8661,1.8509,0.1788,-0.7112,-4.5484,1.7727,1.0085,1.2497
-1.6538,-1.137,-1.4057,-0.72,-1.9179,0.3549,1.1191,1.6951,3.157,1.6777,0.0194,-0.6947,-4.8733,1.7712,0.8802,1.2406
-1.6538,-1.137,-1.4057,-0.72,-1.9179,0.3549,1.1191,1.6951,3.157,1.6777,0.0194,-0.6947,-4.8733,1.7712,0.8802,1.2406
-1.7061,-1.1836,-1.5627,-0.7232,-2.0727,0.3427,1.2196,1.6362,3.3852,1.597,-0.1311,-0.6472,-5.0185,1.691,0.9101,1.1975
-1.7061,-1.1836,-1.5627,-0.7232,-2.0727,0.3427,1.2196,1.6362,3.3852,1.597,-0.1311,-0.6472,-5.0185,1.691,0.9101,1.1975
-1.8177,-1.1442,-1.7181,-0.7266,-2.1574,0.2895,1.5811,1.4618,3.4739,1.6361,-0.2545,-0.6375,-5.2072,1.5629,1.0052,1.0991
-1.8177,-1.1442,-1.7181,-0.7266,-2.1574,0.2895,1.5811,1.4618,3.4739,1.6361,-0.2545,-0.6375,-5.2072,1.5629,1.0052,1.0991
-2.0393,-1.0659,-1.8798,-0.7564,-2.2493,0.1901,1.6451,1.3694,3.4739,1.6361,-0.4086,-0.6451,-5.1806,1.2984,0.9777,1.0229
-2.3432,-1.0447,-2.0474,-0.8122,-2.5427,0.0984,1.3113,1.418,3.3971,1.6633,-0.5647,-0.6685,-5.245,1.0556,0.905,0.9738
-2.3432,-1.0447,-2.0474,-0.8122,-2.5427,0.0984,1.3113,1.418,3.3971,1.6633,-0.5647,-0.6685,-5.245,1.0556,0.905,0.9738
-2.7042,-1.1091,-2.2411,-0.9003,-2.9389,-0.0015,0.7168,1.5133,3.2442,1.7173,-0.7004,-0.6986,-5.3749,0.8566,0.753,0.9638
-2.7042,-1.1091,-2.2411,-0.9003,-2.9389,-0.0015,0.7168,1.5133,3.2442,1.7173,-0.7004,-0.6986,-5.3749,0.8566,0.753,0.9638
-3.0043,-1.1921,-2.3989,-0.9991,-3.3595,-0.1039,-0.0081,1.6557,3.049,1.751,-0.8721,-0.7156,-5.68,0.754,0.5679,0.9659
-3.0043,-1.1921,-2.3989,-0.9991,-3.3595,-0.1039,-0.0081,1.6557,3.049,1.751,-0.8721,-0.7156,-5.68,0.754,0.5679,0.9659
-3.0043,-1.1921,-2.3989,-0.9991,-3.3595,-0.1039,-0.0081,1.6557,3.049,1.751,-0.8721,-0.7156,-5.68,0.754,0.5679,0.9659
-3.2658,-1.2654,-2.4894,-1.1199,-3.7415,-0.1386,-0.522,1.6797,2.9308,1.7576,-0.9277,-0.7565,-5.9411,0.7571,0.4933,0.9606
-3.2658,-1.2654,-2.4894,-1.1199,-3.7415,-0.1386,-0.522,1.6797,2.9308,1.7576,-0.9277,-0.7565,-5.9411,0.7571,0.4933,0.9606
-3.2658,-1.2654,-2.4894,-1.1199,-3.7415,-0.1386,-0.522,1.6797,2.9308,1.7576,-0.9277,-0.7565,-5.9411,0.7571,0.4933,0.9606
-3.4268,-1.3109,-2.5719,-1.2143,-3.9658,-0.1814,-0.7986,1.5339,3.3205,1.6903,-0.9915,-0.8053,-6.4638,0.9863,0.4288,0.9415
-3.4268,-1.3109,-2.5719,-1.2143,-3.9658,-0.1814,-0.7986,1.5339,3.3205,1.6903,-0.9915,-0.8053,-6.4638,0.9863,0.4288,0.9415
-3.3116,-1.3108,-2.6421,-1.1484,-3.8901,-0.2384,-0.6474,1.393,3.7835,1.5268,-0.9898,-0.8277,-6.5115,1.0031,0.4823,0.9016
-3.3116,-1.3108,-2.6421,-1.1484,-3.8901,-0.2384,-0.6474,1.393,3.7835,1.5268,-0.9898,-0.8277,-6.5115,1.0031,0.4823,0.9016
-3.1956,-1.3107,-2.7575,-1.0527,-3.8562,-0.2352,-0.3737,1.2311,3.9397,1.4716,-1.0249,-0.8371,-6.5929,1.017,0.6144,0.8236
-3.1956,-1.3107,-2.7575,-1.0527,-3.8562,-0.2352,-0.3737,1.2311,3.9397,1.4716,-1.0249,-0.8371,-6.5929,1.017,0.6144,0.8236
-3.1115,-1.3199,-2.8476,-0.9933,-3.8222,-0.2321,-0.1706,1.0945,3.9072,1.5184,-1.0466,-0.8458,-6.6267,1.0141,0.8318,0.7364
-3.1115,-1.3199,-2.8476,-0.9933,-3.8222,-0.2321,-0.1706,1.0945,3.9072,1.5184,-1.0466,-0.8458,-6.6267,1.0141,0.8318,0.7364
-3.1115,-1.3199,-2.8476,-0.9933,-3.8222,-0.2321,-0.1706,1.0945,3.9072,1.5184,-1.0466,-0.8458,-6.6267,1.0141,0.8318,0.7364
-3.0459,-1.3018,-2.8995,-0.9887,-3.7399,-0.246,-0.2029,1.0629,3.6201,1.7624,-1.0866,-0.848,-6.6805,0.9888,0.9746,0.6443
-3.0459,-1.3018,-2.8995,-0.9887,-3.7399,-0.246,-0.2029,1.0629,3.6201,1.7624,-1.0866,-0.848,-6.6805,0.9888,0.9746,0.6443
-3.0459,-1.3018,-2.8995,-0.9887,-3.7399,-0.246,-0.2029,1.0629,3.6201,1.7624,-1.0866,-0.848,-6.6805,0.9888,0.9746,0.6443
-3.0373,-1.2013,-2.9902,-0.998,-3.3934,-0.3227,-0.2425,1.1199,3.0778,2.2073,-1.1943,-0.8316,-6.727,0.9022,0.9144,0.6552
-3.0373,-1.2013,-2.9902,-0.998,-3.3934,-0.3227,-0.2425,1.1199,3.0778,2.2073,-1.1943,-0.8316,-6.727,0.9022,0.9144,0.6552
-3.0373,-1.2013,-2.9902,-0.998,-3.3934,-0.3227,-0.2425,1.1199,3.0778,2.2073,-1.1943,-0.8316,-6.727,0.9022,0.9144,0.6552
-3.0043,-1.1921,-2.9971,-1.023,-3.2742,-0.3343,-0.2102,1.1517,2.7964,2.1975,-1.2372,-0.849,-6.8666,0.8495,0.6277,0.7669
-3.0043,-1.1921,-2.9971,-1.023,-3.2742,-0.3343,-0.2102,1.1517,2.7964,2.1975,-1.2372,-0.849,-6.8666,0.8495,0.6277,0.7669
-3.0043,-1.1921,-2.9971,-1.023,-3.2742,-0.3343,-0.2102,1.1517,2.7964,2.1975,-1.2372,-0.849,-6.8666,0.8495,0.6277,0.7669
-2.8666,-1.2199,-2.9594,-1.0774,-3.3661,-0.148,-0.27,1.2379,2.7683,1.9919,-1.1115,-0.8717,-6.9258,0.7835,0.3537,0.8637
-2.8666,-1.2199,-2.9594,-1.0774,-3.3661,-0.148,-0.27,1.2379,2.7683,1.9919,-1.1115,-0.8717,-6.9258,0.7835,0.3537,0.8637
-2.5689,-1.3042,-2.9273,-1.0887,-3.4518,-0.0246,-0.258,1.2991,2.9188,1.9387,-1.0082,-0.8212,-6.8267,0.7918,0.3346,0.8912
-2.5689,-1.3042,-2.9273,-1.0887,-3.4518,-0.0246,-0.258,1.2991,2.9188,1.9387,-1.0082,-0.8212,-6.8267,0.7918,0.3346,0.8912
-2.3251,-1.3064,-2.849,-1.0616,-3.4247,0.044,0.0453,1.2576,3.19,1.8786,-0.8822,-0.7616,-6.7202,0.8414,0.4178,0.8826
-2.3251,-1.3064,-2.849,-1.0616,-3.4247,0.044,0.0453,1.2576,3.19,1.8786,-0.8822,-0.7616,-6.7202,0.8414,0.4178,0.8826
-2.3251,-1.3064,-2.849,-1.0616,-3.4247,0.044,0.0453,1.2576,3.19,1.8786,-0.8822,-0.7616,-6.7202,0.8414,0.4178,0.8826
-2.3188,-1.139,-2.8096,-1.048,-3.4184,0.089,0.3537,1.2148,3.3545,1.8921,-0.7448,-0.7163,-6.4709,0.8411,0.5359,0.8618
-2.3975,-1.0256,-2.7575,-1.0527,-3.3334,0.0747,0.3672,1.2765,3.4099,1.9808,-0.6422,-0.6803,-6.156,0.8035,0.6297,0.8391
-2.3975,-1.0256,-2.7575,-1.0527,-3.3334,0.0747,0.3672,1.2765,3.4099,1.9808,-0.6422,-0.6803,-6.156,0.8035,0.6297,0.8391
-2.3975,-1.0256,-2.7575,-1.0527,-3.3334,0.0747,0.3672,1.2765,3.4099,1.9808,-0.6422,-0.6803,-6.156,0.8035,0.6297,0.8391
-2.5936,-0.9778,-2.6998,-1.1006,-3.3607,0.0058,0.0502,1.4107,3.3324,2.0082,-0.5699,-0.6611,-5.9547,0.7767,0.6643,0.8269
-2.5936,-0.9778,-2.6998,-1.1006,-3.3607,0.0058,0.0502,1.4107,3.3324,2.0082,-0.5699,-0.6611,-5.9547,0.7767,0.6643,0.8269
-2.5936,-0.9778,-2.6998,-1.1006,-3.3607,0.0058,0.0502,1.4107,3.3324,2.0082,-0.5699,-0.6611,-5.9547,0.7767,0.6643,0.8269
-2.8883,-0.9591,-2.577,-1.1714,-3.3816,-0.0182,-0.3474,1.5067,3.5423,1.7899,-0.5336,-0.6515,-5.9376,0.9648,0.6086,0.7944
-2.8883,-0.9591,-2.577,-1.1714,-3.3816,-0.0182,-0.3474,1.5067,3.5423,1.7899,-0.5336,-0.6515,-5.9376,0.9648,0.6086,0.7944
-2.8883,-0.9591,-2.577,-1.1714,-3.3816,-0.0182,-0.3474,1.5067,3.5423,1.7899,-0.5336,-0.6515,-5.9376,0.9648,0.6086,0.7944
-2.8883,-0.9591,-2.577,-1.1714,-3.3816,-0.0182,-0.3474,1.5067,3.5423,1.7899,-0.5336,-0.6515,-5.9376,0.9648,0.6086,0.7944
-2.8492,-1.0155,-2.7362,-0.9773,-3.3254,0.009,-0.3588,1.4445,3.6079,1.6952,-0.5284,-0.659,-5.8227,1.1214,0.8352,0.6935
-2.8492,-1.0155,-2.7362,-0.9773,-3.3254,0.009,-0.3588,1.4445,3.6079,1.6952,-0.5284,-0.659,-5.8227,1.1214,0.8352,0.6935
-2.8492,-1.0155,-2.7362,-0.9773,-3.3254,0.009,-0.3588,1.4445,3.6079,1.6952,-0.5284,-0.659,-5.8227,1.1214,0.8352,0.6935
-2.8492,-1.0155,-2.8267,-0.9176,-3.1188,-0.0169,-0.214,1.3933,3.4088,1.73,-0.5509,-0.6678,-5.6938,1.1525,0.8796,0.6675
-2.8492,-1.0155,-2.8267,-0.9176,-3.1188,-0.0169,-0.214,1.3933,3.4088,1.73,-0.5509,-0.6678,-5.6938,1.1525,0.8796,0.6675
-2.8687,-0.9873,-2.8788,-0.9131,-2.7276,-0.0285,-0.1292,1.4297,2.6029,1.6644,-0.5891,-0.7157,-5.7288,1.2575,0.5722,0.7346
-2.8687,-0.9873,-2.8788,-0.9131,-2.7276,-0.0285,-0.1292,1.4297,2.6029,1.6644,-0.5891,-0.7157,-5.7288,1.2575,0.5722,0.7346
-2.8687,-0.9873,-2.8788,-0.9131,-2.7276,-0.0285,-0.1292,1.4297,2.6029,1.6644,-0.5891,-0.7157,-5.7288,1.2575,0.5722,0.7346
-2.8687,-0.9873,-2.8788,-0.9131,-2.757,0.1258,-0.1173,1.4921,2.2826,1.5719,-0.5687,-0.7452,-5.7357,1.3221,0.4297,0.754
-2.8687,-0.9873,-2.8788,-0.9131,-2.757,0.1258,-0.1173,1.4921,2.2826,1.5719,-0.5687,-0.7452,-5.7357,1.3221,0.4297,0.754
-2.8687,-0.9873,-2.8788,-0.9131,-2.757,0.1258,-0.1173,1.4921,2.2826,1.5719,-0.5687,-0.7452,-5.7357,1.3221,0.4297,0.754
-2.7095,-1.0436,-2.8209,-0.9612,-2.8094,0.2574,-0.0849,1.5253,2.273,1.5075,-0.5411,-0.7438,-5.5838,1.3779,0.3617,0.778
-2.7095,-1.0436,-2.8209,-0.9612,-2.8094,0.2574,-0.0849,1.5253,2.273,1.5075,-0.5411,-0.7438,-5.5838,1.3779,0.3617,0.778
-2.4613,-1.11,-2.8209,-0.9612,-2.8992,0.3869,-0.0525,1.5586,2.4069,1.3928,-0.5564,-0.7217,-5.4378,1.3892,0.3277,0.79
-2.1906,-1.2056,-2.7885,-0.9727,-2.8776,0.4121,0.0007,1.5623,2.6966,1.2904,-0.5683,-0.6841,-5.2679,1.4243,0.3767,0.7934
-2.1906,-1.2056,-2.7885,-0.9727,-2.8776,0.4121,0.0007,1.5623,2.6966,1.2904,-0.5683,-0.6841,-5.2679,1.4243,0.3767,0.7934
-2.1361,-1.2249,-2.7885,-0.9727,-2.9142,0.4086,0.2982,1.4572,2.8427,1.2388,-0.6077,-0.6477,-5.1562,1.4326,0.46,0.7846
-2.2146,-1.1116,-2.7687,-0.9658,-2.9357,0.3835,0.8276,1.2702,2.9587,1.2315,-0.6369,-0.6262,-5.096,1.4594,0.4942,0.7726
-2.2146,-1.1116,-2.7687,-0.9658,-2.9357,0.3835,0.8276,1.2702,2.9587,1.2315,-0.6369,-0.6262,-5.096,1.4594,0.4942,0.7726
-2.3681,-0.9497,-2.7815,-0.9475,-2.9207,0.3619,1.0939,1.2211,2.9704,1.295,-0.6695,-0.6203,-4.9535,1.425,0.4942,0.7726
-2.3681,-0.9497,-2.7815,-0.9475,-2.9207,0.3619,1.0939,1.2211,2.9704,1.295,-0.6695,-0.6203,-4.9535,1.425,0.4942,0.7726
-2.3681,-0.9497,-2.7815,-0.9475,-2.9207,0.3619,1.0939,1.2211,2.9704,1.295,-0.6695,-0.6203,-4.9535,1.425,0.4942,0.7726
-2.3681,-0.9497,-2.7815,-0.9475,-2.9207,0.3619,1.0939,1.2211,2.9704,1.295,-0.6695,-0.6203,-4.9535,1.425,0.4942,0.7726
-2.6247,-0.8157,-2.814,-0.936,-2.9124,0.2938,0.9751,1.3083,2.9392,1.3399,-0.7106,-0.6226,-4.7952,1.3691,0.46,0.7846
-2.6247,-0.8157,-2.814,-0.936,-2.9124,0.2938,0.9751,1.3083,2.9392,1.3399,-0.7106,-0.6226,-4.7952,1.3691,0.46,0.7846
-2.6247,-0.8157,-2.814,-0.936,-2.9124,0.2938,0.9751,1.3083,2.9392,1.3399,-0.7106,-0.6226,-4.7952,1.3691,0.46,0.7846
-2.9533,-0.8077,-2.6854,-1.0506,-3.0854,0.2097,0.3238,1.5838,2.7184,1.4179,-0.7482,-0.6706,-4.8629,1.4091,0.4052,0.7523
-2.9533,-0.8077,-2.6854,-1.0506,-3.0854,0.2097,0.3238,1.5838,2.7184,1.4179,-0.7482,-0.6706,-4.8629,1.4091,0.4052,0.7523
-2.9668,-0.8459,-2.6655,-1.0438,-3.1213,0.2064,0.1528,1.6669,2.9704,1.295,-0.755,-0.7016,-5.0355,1.4862,0.3656,0.7354
-2.9668,-0.8459,-2.6655,-1.0438,-3.1213,0.2064,0.1528,1.6669,2.9704,1.295,-0.755,-0.7016,-5.0355,1.4862,0.3656,0.7354
-2.9668,-0.8459,-2.6655,-1.0438,-3.1213,0.2064,0.1528,1.6669,2.9704,1.295,-0.755,-0.7016,-5.0355,1.4862,0.3656,0.7354
-2.8805,-0.8549,-2.7093,-0.9452,-3.0854,0.2097,0.1109,1.7274,3.1498,1.1977,-0.7908,-0.7111,-5.215,1.5174,0.36,0.7066
-2.8805,-0.8549,-2.7093,-0.9452,-3.0854,0.2097,0.1109,1.7274,3.1498,1.1977,-0.7908,-0.7111,-5.215,1.5174,0.36,0.7066
-2.8805,-0.8549,-2.7093,-0.9452,-3.0854,0.2097,0.1109,1.7274,3.1498,1.1977,-0.7908,-0.7111,-5.215,1.5174,0.36,0.7066
-2.9002,-0.8264,-2.8514,-0.8113,-3.1001,0.231,0.2068,1.6707,2.962,1.4686,-0.8958,-0.7017,-5.4372,1.5,0.5924,0.5937
-2.9002,-0.8264,-2.8514,-0.8113,-3.1001,0.231,0.2068,1.6707,2.962,1.4686,-0.8958,-0.7017,-5.4372,1.5,0.5924,0.5937
-2.92,-0.7979,-2.8839,-0.7998,-2.911,0.1802,0.2819,1.6441,2.6447,1.6842,-0.9446,-0.712,-5.4156,1.413,0.5583,0.6058
-2.92,-0.7979,-2.8839,-0.7998,-2.911,0.1802,0.2819,1.6441,2.6447,1.6842,-0.9446,-0.712,-5.4156,1.413,0.5583,0.6058
-2.9002,-0.8264,-2.9035,-0.8069,-2.7423,0.1045,0.3573,1.6175,2.3424,1.7219,-0.9882,-0.7296,-5.4821,1.3419,0.4222,0.6539
-2.9002,-0.8264,-2.9035,-0.8069,-2.7423,0.1045,0.3573,1.6175,2.3424,1.7219,-0.9882,-0.7296,-5.4821,1.3419,0.4222,0.6539
-3,-0.8556,-2.9494,-0.8464,-2.7937,0.1227,0.3029,1.6139,1.9963,1.6731,-0.9982,-0.7755,-5.6493,1.3071,0.214,0.6967
-3,-0.8556,-2.9494,-0.8464,-2.7937,0.1227,0.3029,1.6139,1.9963,1.6731,-0.9982,-0.7755,-5.6493,1.3071,0.214,0.6967
-3,-0.8556,-2.9494,-0.8464,-2.7937,0.1227,0.3029,1.6139,1.9963,1.6731,-0.9982,-0.7755,-5.6493,1.3071,0.214,0.6967
-2.9607,-0.9122,-3.0274,-0.8744,-2.9258,0.2016,0.1198,1.6332,1.877,1.6136,-0.9915,-0.8053,-5.6711,1.2837,0.0987,0.7171
-2.9607,-0.9122,-3.0274,-0.8744,-2.9258,0.2016,0.1198,1.6332,1.877,1.6136,-0.9915,-0.8053,-5.6711,1.2837,0.0987,0.7171
-2.9607,-0.9122,-3.0274,-0.8744,-2.9258,0.2016,0.1198,1.6332,1.877,1.6136,-0.9915,-0.8053,-5.6711,1.2837,0.0987,0.7171
-2.9607,-0.9122,-3.0274,-0.8744,-2.9258,0.2016,0.1198,1.6332,1.877,1.6136,-0.9915,-0.8053,-5.6711,1.2837,0.0987,0.7171
-2.7573,-1.0903,-3.1176,-0.8841,-3.1656,0.2702,0.0869,1.5995,1.9909,1.3727,-1.1068,-0.7591,-5.7214,1.3015,-0.0968,0.7454
-2.7573,-1.0903,-3.1176,-0.8841,-3.1656,0.2702,0.0869,1.5995,1.9909,1.3727,-1.1068,-0.7591,-5.7214,1.3015,-0.0968,0.7454
-2.7573,-1.0903,-3.1176,-0.8841,-3.1656,0.2702,0.0869,1.5995,1.9909,1.3727,-1.1068,-0.7591,-5.7214,1.3015,-0.0968,0.7454
-3.0135,-0.8936,-3.1176,-0.8841,-3.1001,0.231,0.558,1.4105,2.1321,1.3228,-1.1287,-0.7075,-5.5262,1.2948,0.06,0.7002
-3.0135,-0.8936,-3.1176,-0.8841,-3.1001,0.231,0.558,1.4105,2.1321,1.3228,-1.1287,-0.7075,-5.5262,1.2948,0.06,0.7002
-3.0857,-0.8467,-3.1176,-0.8841,-3.1001,0.231,0.5165,1.4703,2.1321,1.3228,-1.0905,-0.6825,-5.263,1.2488,0.108,0.7036
-3.2038,-0.8477,-3.1049,-0.9024,-3.1719,0.2243,0.3029,1.6139,2.2435,1.3167,-0.9986,-0.6543,-5.0105,1.2225,0.1858,0.7374
-3.2038,-0.8477,-3.1049,-0.9024,-3.1719,0.2243,0.3029,1.6139,2.2435,1.3167,-0.9986,-0.6543,-5.0105,1.2225,0.1858,0.7374
-3.2038,-0.8477,-3.1049,-0.9024,-3.1719,0.2243,0.3029,1.6139,2.2435,1.3167,-0.9986,-0.6543,-5.0105,1.2225,0.1858,0.7374
-3.3534,-0.8586,-3.0155,-0.9615,-3.2141,0.1752,-0.0174,1.7498,2.2534,1.3799,-0.8553,-0.6384,-4.8596,1.2324,0.2546,0.7849
-3.3534,-0.8586,-3.0155,-0.9615,-3.2141,0.1752,-0.0174,1.7498,2.2534,1.3799,-0.8553,-0.6384,-4.8596,1.2324,0.2546,0.7849
-3.4307,-0.9157,-2.926,-1.0207,-3.3646,0.2284,-0.2395,1.8283,2.2942,1.399,-0.7328,-0.6315,-4.8567,1.3428,0.3088,0.8174
-3.4307,-0.9157,-2.926,-1.0207,-3.3646,0.2284,-0.2395,1.8283,2.2942,1.399,-0.7328,-0.6315,-4.8567,1.3428,0.3088,0.8174
-3.4307,-0.9157,-2.926,-1.0207,-3.3646,0.2284,-0.2395,1.8283,2.2942,1.399,-0.7328,-0.6315,-4.8567,1.3428,0.3088,0.8174
-3.4435,-0.9532,-2.8167,-1.073,-3.4293,0.2672,-0.3131,1.8543,2.4481,1.4119,-0.6369,-0.6262,-4.922,1.4944,0.3823,0.8225
-3.4435,-0.9532,-2.8167,-1.073,-3.4293,0.2672,-0.3131,1.8543,2.4481,1.4119,-0.6369,-0.6262,-4.922,1.4944,0.3823,0.8225
-3.4435,-0.9532,-2.8167,-1.073,-3.4293,0.2672,-0.3131,1.8543,2.4481,1.4119,-0.6369,-0.6262,-4.922,1.4944,0.3823,0.8225
-3.0735,-0.9786,-2.7306,-1.0208,-3.1867,0.2455,-0.0804,1.8407,3.3117,1.2083,-0.5162,-0.6352,-4.9805,1.6939,0.4561,0.8275
-3.0735,-0.9786,-2.7306,-1.0208,-3.1867,0.2455,-0.0804,1.8407,3.3117,1.2083,-0.5162,-0.6352,-4.9805,1.6939,0.4561,0.8275
-3.0735,-0.9786,-2.7306,-1.0208,-3.1867,0.2455,-0.0804,1.8407,3.3117,1.2083,-0.5162,-0.6352,-4.9805,1.6939,0.4561,0.8275
-2.9548,-0.9782,-2.8395,-0.8992,-3.1361,0.2276,0.0688,1.788,3.6449,1.0567,-0.5111,-0.6427,-5.0713,1.7097,0.4656,0.8138
-2.9548,-0.9782,-2.8395,-0.8992,-3.1361,0.2276,0.0688,1.788,3.6449,1.0567,-0.5111,-0.6427,-5.0713,1.7097,0.4656,0.8138
-2.9548,-0.9782,-2.8395,-0.8992,-3.1361,0.2276,0.0688,1.788,3.6449,1.0567,-0.5111,-0.6427,-5.0713,1.7097,0.4656,0.8138
-2.7627,-1.0248,-3.0069,-0.7283,-3.2372,0.2633,0.3699,1.6816,3.4622,1.1551,-0.5577,-0.6374,-5.1394,1.636,0.8101,0.692
-2.7627,-1.0248,-3.0069,-0.7283,-3.2372,0.2633,0.3699,1.6816,3.4622,1.1551,-0.5577,-0.6374,-5.1394,1.636,0.8101,0.692
-2.7822,-0.9966,-3.0716,-0.7054,-3.2728,0.2599,0.5219,1.6279,3.1545,1.435,-0.5853,-0.6389,-5.1472,1.5901,1.0446,0.6196
-2.7822,-0.9966,-3.0716,-0.7054,-3.2728,0.2599,0.5219,1.6279,3.1545,1.435,-0.5853,-0.6389,-5.1472,1.5901,1.0446,0.6196
-2.8353,-0.9779,-3.1169,-0.7455,-3.2287,0.1963,0.6537,1.6043,2.8881,1.7376,-0.6266,-0.6411,-5.2072,1.5629,1.2078,0.614
-2.8353,-0.9779,-3.1169,-0.7455,-3.2287,0.1963,0.6537,1.6043,2.8881,1.7376,-0.6266,-0.6411,-5.2072,1.5629,1.2078,0.614
-2.9548,-0.9782,-3.1815,-0.8615,-3.1265,0.049,0.744,1.6415,2.6839,1.9506,-0.6901,-0.6522,-5.1995,1.6086,1.1149,0.7095
-2.9548,-0.9782,-3.1815,-0.8615,-3.1265,0.049,0.744,1.6415,2.6839,1.9506,-0.6901,-0.6522,-5.1995,1.6086,1.1149,0.7095
-3.0676,-1.044,-3.3033,-0.9968,-3.0897,-0.1681,0.7788,1.6755,2.4198,2.0086,-0.7942,-0.6655,-5.1618,1.8402,0.7453,0.8611
-3.0676,-1.044,-3.3033,-0.9968,-3.0897,-0.1681,0.7788,1.6755,2.4198,2.0086,-0.7942,-0.6655,-5.1618,1.8402,0.7453,0.8611
-3.0676,-1.044,-3.3033,-0.9968,-3.0897,-0.1681,0.7788,1.6755,2.4198,2.0086,-0.7942,-0.6655,-5.1618,1.8402,0.7453,0.8611
-3.2579,-1.1649,-3.4184,-1.1722,-3.3093,-0.3372,0.6537,1.6043,2.2151,1.9055,-0.8823,-0.7009,-5.143,2.2185,0.0107,1.0265
-3.2579,-1.1649,-3.4184,-1.1722,-3.3093,-0.3372,0.6537,1.6043,2.2151,1.9055,-0.8823,-0.7009,-5.143,2.2185,0.0107,1.0265
-3.2579,-1.1649,-3.4184,-1.1722,-3.3093,-0.3372,0.6537,1.6043,2.2151,1.9055,-0.8823,-0.7009,-5.143,2.2185,0.0107,1.0265
-3.5435,-1.4722,-3.6163,-1.5235,-4.2486,-0.4405,-0.0764,1.4332,2.0363,1.693,-0.9999,-0.8132,-5.056,2.9226,-1.765,1.0038
-3.5435,-1.4722,-3.6163,-1.5235,-4.2486,-0.4405,-0.0764,1.4332,2.0363,1.693,-0.9999,-0.8132,-5.056,2.9226,-1.765,1.0038
-3.4151,-1.6573,-3.6732,-1.6066,-4.5777,-0.3684,-0.3905,1.4116,2.2107,1.5973,-1.0833,-0.8328,-4.8945,3.1756,-2.4457,0.8449
-3.4151,-1.6573,-3.6732,-1.6066,-4.5777,-0.3684,-0.3905,1.4116,2.2107,1.5973,-1.0833,-0.8328,-4.8945,3.1756,-2.4457,0.8449
-3.1307,-1.7379,-3.6178,-1.5876,-4.6726,-0.2316,-0.4309,1.4699,2.3138,1.5269,-1.1861,-0.8237,-4.8616,3.3126,-2.8721,0.6736
-3.1307,-1.7379,-3.6178,-1.5876,-4.6726,-0.2316,-0.4309,1.4699,2.3138,1.5269,-1.1861,-0.8237,-4.8616,3.3126,-2.8721,0.6736
-3.1307,-1.7379,-3.6178,-1.5876,-4.6726,-0.2316,-0.4309,1.4699,2.3138,1.5269,-1.1861,-0.8237,-4.8616,3.3126,-2.8721,0.6736
-2.9489,-1.7223,-3.5473,-1.457,-4.653,-0.0594,-0.2953,1.5105,2.3041,1.4628,-1.2557,-0.7828,-4.9055,3.0692,-3.0128,0.5377
-2.9489,-1.7223,-3.5473,-1.457,-4.653,-0.0594,-0.2953,1.5105,2.3041,1.4628,-1.2557,-0.7828,-4.9055,3.0692,-3.0128,0.5377
-2.9489,-1.7223,-3.5473,-1.457,-4.653,-0.0594,-0.2953,1.5105,2.3041,1.4628,-1.2557,-0.7828,-4.9055,3.0692,-3.0128,0.5377
-2.8765,-1.5461,-3.4569,-1.2519,-4.6484,0.1359,0.0748,1.5362,2.1609,1.5134,-1.2988,-0.7403,-5.0467,2.6696,-2.8974,0.4326
-2.8765,-1.5461,-3.4569,-1.2519,-4.6484,0.1359,0.0748,1.5362,2.1609,1.5134,-1.2988,-0.7403,-5.0467,2.6696,-2.8974,0.4326
-2.8765,-1.5461,-3.4569,-1.2519,-4.6484,0.1359,0.0748,1.5362,2.1609,1.5134,-1.2988,-0.7403,-5.0467,2.6696,-2.8974,0.4326
-3.0465,-0.9032,-3.1623,-0.8545,-4.3575,0.2799,0.6245,1.73,1.728,1.599,-1.258,-0.7002,-5.1542,1.7717,-2.3323,0.2697
-3.0465,-0.9032,-3.1623,-0.8545,-4.3575,0.2799,0.6245,1.73,1.728,1.599,-1.258,-0.7002,-5.1542,1.7717,-2.3323,0.2697
-3.0465,-0.9032,-3.1623,-0.8545,-4.3575,0.2799,0.6245,1.73,1.728,1.599,-1.258,-0.7002,-5.1542,1.7717,-2.3323,0.2697
-3.2369,-0.686,-2.8636,-0.7227,-4.2862,0.177,0.1582,2.1524,1.3121,1.4477,-1.2184,-0.6978,-5.6275,1.3306,-1.8919,0.2063
-3.2369,-0.686,-2.8636,-0.7227,-4.2862,0.177,0.1582,2.1524,1.3121,1.4477,-1.2184,-0.6978,-5.6275,1.3306,-1.8919,0.2063
-3.2369,-0.686,-2.8636,-0.7227,-4.2862,0.177,0.1582,2.1524,1.3121,1.4477,-1.2184,-0.6978,-5.6275,1.3306,-1.8919,0.2063
-3.2766,-0.6288,-2.745,-0.6798,-4.3195,0.1733,-0.0373,2.2689,1.4319,1.275,-1.2467,-0.6768,-5.8645,1.29,-1.7484,0.1927
-3.2766,-0.6288,-2.745,-0.6798,-4.3195,0.1733,-0.0373,2.2689,1.4319,1.275,-1.2467,-0.6768,-5.8645,1.29,-1.7484,0.1927
-3.2766,-0.6288,-2.745,-0.6798,-4.3195,0.1733,-0.0373,2.2689,1.4319,1.275,-1.2467,-0.6768,-5.8645,1.29,-1.7484,0.1927
-3.2766,-0.6288,-2.745,-0.6798,-4.3195,0.1733,-0.0373,2.2689,1.4319,1.275,-1.2467,-0.6768,-5.8645,1.29,-1.7484,0.1927
-3.224,-0.6473,-2.8431,-0.5024,-4.3907,0.1214,-0.2083,2.1876,1.5413,1.0433,-1.3358,-0.6672,-6.1958,1.2838,-1.4968,0.1224
-3.224,-0.6473,-2.8431,-0.5024,-4.3907,0.1214,-0.2083,2.1876,1.5413,1.0433,-1.3358,-0.6672,-6.1958,1.2838,-1.4968,0.1224
-3.224,-0.6473,-2.8431,-0.5024,-4.3907,0.1214,-0.2083,2.1876,1.5413,1.0433,-1.3358,-0.6672,-6.1958,1.2838,-1.4968,0.1224
-3.2369,-0.686,-2.9677,-0.5014,-4.3535,0.0165,-0.1649,1.9626,1.0043,1.5237,-1.3833,-0.6778,-6.1677,1.2433,-1.3462,0.0692
-3.2369,-0.686,-2.9677,-0.5014,-4.3535,0.0165,-0.1649,1.9626,1.0043,1.5237,-1.3833,-0.6778,-6.1677,1.2433,-1.3462,0.0692
-3.2369,-0.686,-2.9677,-0.5014,-4.3535,0.0165,-0.1649,1.9626,1.0043,1.5237,-1.3833,-0.6778,-6.1677,1.2433,-1.3462,0.0692
-3.2369,-0.686,-3.0069,-0.5161,-4.1364,-0.0907,-0.1546,1.867,0.78,1.7013,-1.3833,-0.6778,-6.1187,1.226,-1.385,0.0922
-3.2369,-0.686,-3.0069,-0.5161,-4.1364,-0.0907,-0.1546,1.867,0.78,1.7013,-1.3833,-0.6778,-6.1187,1.226,-1.385,0.0922
-3.2498,-0.7245,-3.0653,-0.5382,-4.0274,-0.1444,-0.2605,1.8586,0.6048,1.6649,-1.3439,-0.6753,-6.1677,1.2433,-1.4795,0.1629
-3.2498,-0.7245,-3.0653,-0.5382,-4.0274,-0.1444,-0.2605,1.8586,0.6048,1.6649,-1.3439,-0.6753,-6.1677,1.2433,-1.4795,0.1629
-3.2498,-0.7245,-3.0653,-0.5382,-4.0274,-0.1444,-0.2605,1.8586,0.6048,1.6649,-1.3439,-0.6753,-6.1677,1.2433,-1.4795,0.1629
-3.079,-0.7418,-2.9284,-0.5581,-4.0245,0.0074,-0.1015,1.8711,0.6813,1.4112,-1.007,-0.6624,-6.2458,1.4092,-1.488,0.2408
-3.079,-0.7418,-2.9284,-0.5581,-4.0245,0.0074,-0.1015,1.8711,0.6813,1.4112,-1.007,-0.6624,-6.2458,1.4092,-1.488,0.2408
-3.079,-0.7418,-2.9284,-0.5581,-4.0245,0.0074,-0.1015,1.8711,0.6813,1.4112,-1.007,-0.6624,-6.2458,1.4092,-1.488,0.2408
-2.8866,-0.7881,-2.8432,-0.574,-4.0954,0.1096,-0.0157,1.9099,0.9086,1.2988,-0.8351,-0.6065,-6.1344,1.4629,-1.3886,0.2621
-2.8866,-0.7881,-2.8432,-0.574,-4.0954,0.1096,-0.0157,1.9099,0.9086,1.2988,-0.8351,-0.6065,-6.1344,1.4629,-1.3886,0.2621
-2.8866,-0.7881,-2.8432,-0.574,-4.0954,0.1096,-0.0157,1.9099,0.9086,1.2988,-0.8351,-0.6065,-6.1344,1.4629,-1.3886,0.2621
-2.6569,-0.6515,-2.6711,-0.5345,-4.133,0.2161,0.6933,1.7988,1.288,1.2612,-0.656,-0.4957,-5.75,1.4523,-1.1922,0.2779
-2.6569,-0.6515,-2.6711,-0.5345,-4.133,0.2161,0.6933,1.7988,1.288,1.2612,-0.656,-0.4957,-5.75,1.4523,-1.1922,0.2779
-2.6837,-0.5538,-2.611,-0.5125,-4.133,0.2161,0.8405,1.8405,1.3937,1.2561,-0.6164,-0.47,-5.5399,1.4253,-1.1261,0.2831
-2.7718,-0.5448,-2.5442,-0.5361,-4.2671,0.2013,0.5421,2.0167,1.4616,1.2321,-0.5888,-0.4684,-5.3865,1.3711,-1.1569,0.294
-2.7718,-0.5448,-2.5442,-0.5361,-4.2671,0.2013,0.5421,2.0167,1.4616,1.2321,-0.5888,-0.4684,-5.3865,1.3711,-1.1569,0.294
-2.7718,-0.5448,-2.5442,-0.5361,-4.2671,0.2013,0.5421,2.0167,1.4616,1.2321,-0.5888,-0.4684,-5.3865,1.3711,-1.1569,0.294
-2.7651,-0.6133,-2.464,-0.5789,-4.3053,0.1529,0.311,2.0984,1.6368,1.2026,-0.5697,-0.4752,-5.4156,1.413,-1.1394,0.2688
-2.7651,-0.6133,-2.4367,-0.5452,-4.3386,0.1492,0.2345,2.1254,1.8435,1.1296,-0.5732,-0.491,-5.5544,1.4463,-1.1747,0.2528
-2.7651,-0.6133,-2.4367,-0.5452,-4.3386,0.1492,0.2345,2.1254,1.8435,1.1296,-0.5732,-0.491,-5.5544,1.4463,-1.1747,0.2528
-2.7651,-0.6133,-2.4367,-0.5452,-4.3386,0.1492,0.2345,2.1254,1.8435,1.1296,-0.5732,-0.491,-5.5544,1.4463,-1.1747,0.2528
-2.819,-0.5942,-2.5102,-0.4758,-4.3717,0.1455,0.1582,2.1524,1.7744,1.154,-0.6284,-0.4941,-5.7645,1.4731,-1.1092,0.1918
-2.819,-0.5942,-2.5102,-0.4758,-4.3717,0.1455,0.1582,2.1524,1.7744,1.154,-0.6284,-0.4941,-5.7645,1.4731,-1.1092,0.1918
-2.8594,-0.5359,-2.5301,-0.4106,-4.3576,0.1251,0.1582,2.1524,1.6547,1.3266,-0.6508,-0.5032,-5.9365,1.5025,-0.9909,0.1216
-2.8594,-0.5359,-2.5301,-0.4106,-4.3576,0.1251,0.1582,2.1524,1.6547,1.3266,-0.6508,-0.5032,-5.9365,1.5025,-0.9909,0.1216
-2.8124,-0.4862,-2.4896,-0.3957,-4.1484,0.082,0.4649,2.044,1.4648,1.5254,-0.7058,-0.5063,-5.9788,1.4548,-0.9822,0.1091
-2.8124,-0.4862,-2.4896,-0.3957,-4.1484,0.082,0.4649,2.044,1.4648,1.5254,-0.7058,-0.5063,-5.9788,1.4548,-0.9822,0.1091
-2.7991,-0.4465,-2.503,-0.3763,-3.9087,-0.0027,0.5421,2.0167,1.2971,1.6178,-0.728,-0.5154,-5.9713,1.3898,-1.0217,0.1325
-2.7991,-0.4465,-2.503,-0.3763,-3.9087,-0.0027,0.5421,2.0167,1.2971,1.6178,-0.728,-0.5154,-5.9713,1.3898,-1.0217,0.1325
-2.7991,-0.4465,-2.503,-0.3763,-3.9087,-0.0027,0.5421,2.0167,1.2971,1.6178,-0.728,-0.5154,-5.9713,1.3898,-1.0217,0.1325
-2.8328,-0.4568,-2.4693,-0.3882,-3.8804,-0.0435,0.4866,2.0127,1.0787,1.5629,-0.7347,-0.5468,-6.0416,1.2754,-1.2191,0.1834
-2.8328,-0.4568,-2.4693,-0.3882,-3.8804,-0.0435,0.4866,2.0127,1.0787,1.5629,-0.7347,-0.5468,-6.0416,1.2754,-1.2191,0.1834
-2.8328,-0.4568,-2.4693,-0.3882,-3.8804,-0.0435,0.4866,2.0127,1.0787,1.5629,-0.7347,-0.5468,-6.0416,1.2754,-1.2191,0.1834
-2.7379,-0.5347,-2.4628,-0.4343,-4.1432,0.1265,0.3761,2.0046,0.7835,1.4072,-0.6987,-0.5988,-6.2374,1.2374,-1.4665,0.2426
-2.7379,-0.5347,-2.4628,-0.4343,-4.1432,0.1265,0.3761,2.0046,0.7835,1.4072,-0.6987,-0.5988,-6.2374,1.2374,-1.4665,0.2426
-2.5202,-0.6116,-2.4762,-0.415,-4.2529,0.1807,0.1687,2.0544,0.8425,1.3222,-0.7038,-0.5914,-6.2861,1.2546,-1.5397,0.2497
-2.5202,-0.6116,-2.4762,-0.415,-4.2529,0.1807,0.1687,2.0544,0.8425,1.3222,-0.7038,-0.5914,-6.2861,1.2546,-1.5397,0.2497
-2.5202,-0.6116,-2.4762,-0.415,-4.2529,0.1807,0.1687,2.0544,0.8425,1.3222,-0.7038,-0.5914,-6.2861,1.2546,-1.5397,0.2497
-2.5202,-0.6116,-2.4762,-0.415,-4.2529,0.1807,0.1687,2.0544,0.8425,1.3222,-0.7038,-0.5914,-6.2861,1.2546,-1.5397,0.2497
-2.2657,-0.6794,-2.5501,-0.345,-4.4284,0.2273,0.4622,1.8804,1.1,1.1673,-0.81,-0.5202,-6.2514,1.2576,-1.5138,0.2124
-2.2657,-0.6794,-2.5501,-0.345,-4.4284,0.2273,0.4622,1.8804,1.1,1.1673,-0.81,-0.5202,-6.2514,1.2576,-1.5138,0.2124
-2.2657,-0.6794,-2.5501,-0.345,-4.4284,0.2273,0.4622,1.8804,1.1,1.1673,-0.81,-0.5202,-6.2514,1.2576,-1.5138,0.2124
-2.2657,-0.6794,-2.5501,-0.345,-4.4284,0.2273,0.4622,1.8804,1.1,1.1673,-0.81,-0.5202,-6.2514,1.2576,-1.5138,0.2124
-2.5332,-0.4735,-2.6039,-0.3407,-4.3907,0.1214,0.5604,1.8224,1.1667,1.1438,-0.9425,-0.5127,-5.9012,1.0729,-1.4538,0.1258
-2.5332,-0.4735,-2.6039,-0.3407,-4.3907,0.1214,0.5604,1.8224,1.1667,1.1438,-0.9425,-0.5127,-5.9012,1.0729,-1.4538,0.1258
-2.5332,-0.4735,-2.6039,-0.3407,-4.3907,0.1214,0.5604,1.8224,1.1667,1.1438,-0.9425,-0.5127,-5.9012,1.0729,-1.4538,0.1258
-2.8124,-0.4862,-2.6708,-0.39,-4.5271,0.0626,0.1246,1.9531,0.9595,1.1534,-1.0317,-0.5259,-5.8316,0.9726,-1.5183,0.1207
-2.8124,-0.4862,-2.6708,-0.39,-4.5271,0.0626,0.1246,1.9531,0.9595,1.1534,-1.0317,-0.5259,-5.8316,0.9726,-1.5183,0.1207
-2.8124,-0.4862,-2.6708,-0.39,-4.5271,0.0626,0.1246,1.9531,0.9595,1.1534,-1.0317,-0.5259,-5.8316,0.9726,-1.5183,0.1207
-3.3563,-0.5137,-2.6247,-0.5653,-4.9106,0.0617,-0.6802,2.1447,0.7548,1.1625,-1.1216,-0.5776,-6.0493,1.0194,-1.6507,0.1489
-3.3563,-0.5137,-2.6247,-0.5653,-4.9106,0.0617,-0.6802,2.1447,0.7548,1.1625,-1.1216,-0.5776,-6.0493,1.0194,-1.6507,0.1489
-3.4534,-0.5446,-2.572,-0.6412,-4.9882,0.0741,-0.8853,2.1251,0.8568,1.1581,-1.133,-0.6013,-6.2163,1.1539,-1.6804,0.1594
-3.4534,-0.5446,-2.572,-0.6412,-4.9882,0.0741,-0.8853,2.1251,0.8568,1.1581,-1.133,-0.6013,-6.2163,1.1539,-1.6804,0.1594
-3.3813,-0.5918,-2.5851,-0.6222,-4.9882,0.0741,-0.8942,2.0596,1.1875,1.0412,-1.1494,-0.6176,-6.3897,1.2455,-1.7102,0.1699
-3.3813,-0.5918,-2.5851,-0.6222,-4.9882,0.0741,-0.8942,2.0596,1.1875,1.0412,-1.1494,-0.6176,-6.3897,1.2455,-1.7102,0.1699
-3.3091,-0.6389,-2.691,-0.5418,-4.9882,0.0741,-0.7083,1.9484,1.388,0.9704,-1.1843,-0.6274,-6.4862,1.2796,-1.5995,0.1401
-3.3091,-0.6389,-2.691,-0.5418,-4.9882,0.0741,-0.7083,1.9484,1.388,0.9704,-1.1843,-0.6274,-6.4862,1.2796,-1.5995,0.1401
-3.1515,-0.6945,-2.83,-0.4496,-5.002,0.094,-0.3655,1.8501,1.4262,0.9886,-1.219,-0.6371,-6.5685,1.2935,-1.4021,0.1169
-3.1515,-0.6945,-2.83,-0.4496,-5.002,0.094,-0.3655,1.8501,1.4262,0.9886,-1.219,-0.6371,-6.5685,1.2935,-1.4021,0.1169
-3.1515,-0.6945,-2.83,-0.4496,-5.002,0.094,-0.3655,1.8501,1.4262,0.9886,-1.219,-0.6371,-6.5685,1.2935,-1.4021,0.1169
-3.1317,-0.7231,-2.9681,-0.4296,-4.9882,0.0741,-0.0593,1.8104,1.3091,1.1573,-1.2932,-0.6494,-6.6504,1.3073,-1.1759,0.1211
-3.1317,-0.7231,-2.9681,-0.4296,-4.9882,0.0741,-0.0593,1.8104,1.3091,1.1573,-1.2932,-0.6494,-6.6504,1.3073,-1.1759,0.1211
-3.1317,-0.7231,-3.137,-0.4701,-4.7774,-0.0304,0.2098,1.8303,1.0642,1.4374,-1.349,-0.668,-6.6842,1.3041,-1.0651,0.1951
-3.1646,-0.7331,-3.2267,-0.5521,-4.5002,-0.1284,0.4407,1.9114,0.9508,1.674,-1.3883,-0.6705,-6.6443,1.3507,-1.0904,0.366
-3.1646,-0.7331,-3.2267,-0.5521,-4.5002,-0.1284,0.4407,1.9114,0.9508,1.674,-1.3883,-0.6705,-6.6443,1.3507,-1.0904,0.366
-3.1973,-0.743,-3.3095,-0.6074,-4.1533,-0.2209,0.5761,2.0521,0.9574,1.7378,-1.4014,-0.6714,-6.6863,1.4113,-1.2322,0.5705
-3.1973,-0.743,-3.3095,-0.6074,-4.1533,-0.2209,0.5761,2.0521,0.9574,1.7378,-1.4014,-0.6714,-6.6863,1.4113,-1.2322,0.5705
-3.23,-0.7529,-3.3219,-0.659,-3.8562,-0.2352,0.6223,2.1551,0.9811,1.6303,-1.3208,-0.6889,-6.6946,1.4754,-1.4234,0.7453
-3.1776,-0.7714,-3.2068,-0.6857,-3.6869,-0.1118,0.6564,2.1911,1.0343,1.4805,-1.1553,-0.7091,-6.5868,1.5297,-1.5861,0.8126
-3.1776,-0.7714,-3.2068,-0.6857,-3.6869,-0.1118,0.6564,2.1911,1.0343,1.4805,-1.1553,-0.7091,-6.5868,1.5297,-1.5861,0.8126
-3.0394,-0.7988,-3.0393,-0.7169,-3.6137,0.0482,0.6002,2.1869,1.1612,1.3706,-1.0219,-0.7013,-6.4435,1.5877,-1.6635,0.7911
-3.0394,-0.7988,-3.0393,-0.7169,-3.6137,0.0482,0.6002,2.1869,1.1612,1.3706,-1.0219,-0.7013,-6.4435,1.5877,-1.6635,0.7911
-3.0394,-0.7988,-3.0393,-0.7169,-3.6137,0.0482,0.6002,2.1869,1.1612,1.3706,-1.0219,-0.7013,-6.4435,1.5877,-1.6635,0.7911
-2.7601,-0.8544,-2.9025,-0.6666,-3.6249,0.225,0.5443,2.1827,1.3639,1.299,-0.9314,-0.6504,-6.3192,1.622,-1.7012,0.7459
-2.7601,-0.8544,-2.9025,-0.6666,-3.6249,0.225,0.5443,2.1827,1.3639,1.299,-0.9314,-0.6504,-6.3192,1.622,-1.7012,0.7459
-2.6925,-0.8351,-2.7972,-0.6045,-3.6978,0.3302,0.6882,2.0601,1.3721,1.3611,-0.8725,-0.5933,-6.2493,1.6287,-1.6389,0.6561
-2.6925,-0.8351,-2.7972,-0.6045,-3.6978,0.3302,0.6882,2.0601,1.3721,1.3611,-0.8725,-0.5933,-6.2493,1.6287,-1.6389,0.6561
-2.6909,-0.6614,-2.7175,-0.5037,-3.7564,0.4148,0.9674,1.9139,1.4486,1.3994,-0.8115,-0.559,-6.1503,1.5937,-1.5337,0.5707
-2.6909,-0.6614,-2.7175,-0.5037,-3.7564,0.4148,0.9674,1.9139,1.4486,1.3994,-0.8115,-0.559,-6.1503,1.5937,-1.5337,0.5707
-2.7379,-0.5347,-2.6508,-0.4551,-3.7712,0.436,0.9892,1.8825,1.5255,1.438,-0.7536,-0.5401,-5.9009,1.5056,-1.3851,0.4893
-2.7379,-0.5347,-2.6508,-0.4551,-3.7712,0.436,0.9892,1.8825,1.5255,1.438,-0.7536,-0.5401,-5.9009,1.5056,-1.3851,0.4893
-2.7991,-0.4465,-2.624,-0.421,-3.791,0.411,0.9104,1.9103,1.5944,1.4136,-0.7262,-0.5386,-5.6562,1.3721,-1.3061,0.4422
-2.7991,-0.4465,-2.624,-0.421,-3.791,0.411,0.9104,1.9103,1.5944,1.4136,-0.7262,-0.5386,-5.6562,1.3721,-1.3061,0.4422
-2.9335,-0.4877,-2.6375,-0.4742,-3.9191,0.329,0.4096,2.0399,1.5944,1.4136,-0.6833,-0.5594,-5.5119,1.2742,-1.2227,0.4224
-2.9335,-0.4877,-2.6375,-0.4742,-3.9191,0.329,0.4096,2.0399,1.5944,1.4136,-0.6833,-0.5594,-5.5119,1.2742,-1.2227,0.4224
-2.9335,-0.4877,-2.6375,-0.4742,-3.9191,0.329,0.4096,2.0399,1.5944,1.4136,-0.6833,-0.5594,-5.5119,1.2742,-1.2227,0.4224
-3.1656,-0.5593,-2.6447,-0.5725,-4.1136,0.2405,-0.0366,2.1035,1.5171,1.3752,-0.6952,-0.5832,-5.5922,1.2247,-1.1433,0.4424
-3.1656,-0.5593,-2.6447,-0.5725,-4.1136,0.2405,-0.0366,2.1035,1.5171,1.3752,-0.6952,-0.5832,-5.5922,1.2247,-1.1433,0.4424
-3.1656,-0.5593,-2.6447,-0.5725,-4.1136,0.2405,-0.0366,2.1035,1.5171,1.3752,-0.6952,-0.5832,-5.5922,1.2247,-1.1433,0.4424
-3.3993,-0.7359,-2.7138,-0.8319,-4.3484,0.0605,-0.3771,2.1071,1.5086,1.3129,-0.8282,-0.6368,-6.2473,1.5184,-1.1532,0.6597
-3.3993,-0.7359,-2.7138,-0.8319,-4.3484,0.0605,-0.3771,2.1071,1.5086,1.3129,-0.8282,-0.6368,-6.2473,1.5184,-1.1532,0.6597
-3.3993,-0.7359,-2.7138,-0.8319,-4.3484,0.0605,-0.3771,2.1071,1.5086,1.3129,-0.8282,-0.6368,-6.2473,1.5184,-1.1532,0.6597
-3.3993,-0.7359,-2.7138,-0.8319,-4.3484,0.0605,-0.3771,2.1071,1.5086,1.3129,-0.8282,-0.6368,-6.2473,1.5184,-1.1532,0.6597
-3.3985,-0.906,-3.0595,-0.8631,-4.3675,0.0367,-0.1968,1.9278,1.9524,1.1235,-0.9834,-0.6762,-6.6273,1.7465,-1.2631,0.8861
-3.3985,-0.906,-3.0595,-0.8631,-4.3675,0.0367,-0.1968,1.9278,1.9524,1.1235,-0.9834,-0.6762,-6.6273,1.7465,-1.2631,0.8861
-3.3792,-0.9339,-3.1557,-0.8291,-4.268,0.0474,-0.0804,1.8407,1.9622,1.1852,-1.0454,-0.6874,-6.5242,1.7573,-1.16,0.8397
-3.3792,-0.9339,-3.1557,-0.8291,-4.268,0.0474,-0.0804,1.8407,1.9622,1.1852,-1.0454,-0.6874,-6.5242,1.7573,-1.16,0.8397
-3.3792,-0.9339,-3.1557,-0.8291,-4.268,0.0474,-0.0804,1.8407,1.9622,1.1852,-1.0454,-0.6874,-6.5242,1.7573,-1.16,0.8397
-3.2951,-0.9426,-3.162,-0.7853,-4.0528,0.0482,0.1648,1.7312,1.8811,1.3784,-1.0855,-0.6898,-6.3218,1.7332,-1.1144,0.774
-3.282,-0.9049,-3.1169,-0.7455,-3.7719,0.0108,0.24,1.7046,1.6111,1.5401,-1.1388,-0.693,-6.1585,1.6597,-1.1359,0.7026
-3.282,-0.9049,-3.1169,-0.7455,-3.7719,0.0108,0.24,1.7046,1.6111,1.5401,-1.1388,-0.693,-6.1585,1.6597,-1.1359,0.7026
-3.3015,-0.8769,-3.1232,-0.7012,-3.5769,-0.0581,0.1858,1.7009,1.3657,1.5936,-1.1653,-0.6945,-6.1151,1.597,-1.2687,0.6907
-3.3015,-0.8769,-3.1232,-0.7012,-3.5769,-0.0581,0.1858,1.7009,1.3657,1.5936,-1.1653,-0.6945,-6.1151,1.597,-1.2687,0.6907
-3.3924,-0.8023,-3.078,-0.661,-3.5564,-0.0343,0.0688,1.788,1.1015,1.4567,-1.2001,-0.7042,-6.2473,1.5184,-1.4747,0.6854
-3.3924,-0.8023,-3.078,-0.661,-3.5564,-0.0343,0.0688,1.788,1.1015,1.4567,-1.2001,-0.7042,-6.2473,1.5184,-1.4747,0.6854
-3.3473,-0.7543,-3.0002,-0.6321,-3.6626,0.0655,-0.0693,1.9058,0.8864,1.4031,-1.1717,-0.7252,-6.3721,1.4848,-1.5653,0.6494
-3.3473,-0.7543,-3.0002,-0.6321,-3.6626,0.0655,-0.0693,1.9058,0.8864,1.4031,-1.1717,-0.7252,-6.3721,1.4848,-1.5653,0.6494
-3.0394,-0.7988,-2.9022,-0.5958,-3.7835,0.1865,-0.037,1.9406,0.8059,1.3031,-1.1768,-0.7179,-6.4473,1.4341,-1.6034,0.605
-2.8135,-0.8355,-2.8563,-0.5551,-3.9243,0.2835,0.1672,1.8916,0.9595,1.1534,-1.1786,-0.6953,-6.5019,1.4073,-1.5289,0.5305
-2.8135,-0.8355,-2.8563,-0.5551,-3.9243,0.2835,0.1672,1.8916,0.9595,1.1534,-1.1786,-0.6953,-6.5019,1.4073,-1.5289,0.5305
-2.8135,-0.8355,-2.8563,-0.5551,-3.9243,0.2835,0.1672,1.8916,0.9595,1.1534,-1.1786,-0.6953,-6.5019,1.4073,-1.5289,0.5305
-2.8059,-0.73,-2.797,-0.5331,-4.0215,0.3178,0.4498,1.8149,1.0628,1.1487,-1.212,-0.6671,-6.508,1.3635,-1.472,0.4817
-2.8059,-0.73,-2.797,-0.5331,-4.0215,0.3178,0.4498,1.8149,1.0628,1.1487,-1.212,-0.6671,-6.508,1.3635,-1.472,0.4817
-2.8797,-0.5067,-2.8167,-0.4686,-4.0215,0.3178,0.6802,1.7335,1.0336,1.1908,-1.2536,-0.6469,-6.3832,1.2889,-1.4151,0.4329
-2.9482,-0.3493,-2.83,-0.4496,-4.007,0.2969,0.6589,1.7643,1.0119,1.2943,-1.2983,-0.6421,-6.1606,1.1798,-1.4151,0.4329
-2.9482,-0.3493,-2.83,-0.4496,-4.007,0.2969,0.6589,1.7643,1.0119,1.2943,-1.2983,-0.6421,-6.1606,1.1798,-1.4151,0.4329
-2.9482,-0.3493,-2.83,-0.4496,-4.007,0.2969,0.6589,1.7643,1.0119,1.2943,-1.2983,-0.6421,-6.1606,1.1798,-1.4151,0.4329
-2.9482,-0.3493,-2.83,-0.4496,-4.007,0.2969,0.6589,1.7643,1.0119,1.2943,-1.2983,-0.6421,-6.1606,1.1798,-1.4151,0.4329
-3.1095,-0.2923,-2.8695,-0.4644,-4.0604,0.2686,0.505,1.8187,0.9159,1.3604,-1.364,-0.6463,-6.0069,1.0648,-1.4761,0.4544
-3.1095,-0.2923,-2.8695,-0.4644,-4.0604,0.2686,0.505,1.8187,0.9159,1.3604,-1.364,-0.6463,-6.0069,1.0648,-1.4761,0.4544
-3.1095,-0.2923,-2.8695,-0.4644,-4.0604,0.2686,0.505,1.8187,0.9159,1.3604,-1.364,-0.6463,-6.0069,1.0648,-1.4761,0.4544
-3.1095,-0.2923,-2.8695,-0.4644,-4.0604,0.2686,0.505,1.8187,0.9159,1.3604,-1.364,-0.6463,-6.0069,1.0648,-1.4761,0.4544
-3.2989,-0.4247,-2.7182,-0.6466,-4.2145,0.2293,-0.2392,1.9889,0.938,1.2565,-1.3863,-0.6931,-6.2232,1.1109,-1.5712,0.4594
-3.2989,-0.4247,-2.7182,-0.6466,-4.2145,0.2293,-0.2392,1.9889,0.938,1.2565,-1.3863,-0.6931,-6.2232,1.1109,-1.5712,0.4594
-3.2989,-0.4247,-2.7182,-0.6466,-4.2145,0.2293,-0.2392,1.9889,0.938,1.2565,-1.3863,-0.6931,-6.2232,1.1109,-1.5712,0.4594
-3.0795,-0.5679,-2.6447,-0.5725,-4.1424,0.2819,-0.4395,2.0366,1.6092,1.0193,-1.2467,-0.6768,-6.3972,1.3091,-1.4936,0.4798
-3.0795,-0.5679,-2.6447,-0.5725,-4.1424,0.2819,-0.4395,2.0366,1.6092,1.0193,-1.2467,-0.6768,-6.3972,1.3091,-1.4936,0.4798
-2.9598,-0.5664,-2.6774,-0.4167,-4.0554,0.314,-0.3132,2.015,1.8241,1.0074,-1.1209,-0.6387,-6.3563,1.3559,-1.3149,0.455
-2.9598,-0.5664,-2.6774,-0.4167,-4.0554,0.314,-0.3132,2.015,1.8241,1.0074,-1.1209,-0.6387,-6.3563,1.3559,-1.3149,0.455
-2.8594,-0.5359,-2.6775,-0.3439,-4.0359,0.3387,-0.2392,1.9889,1.7744,1.154,-1.0259,-0.5947,-6.3987,1.417,-1.0947,0.406
-2.8594,-0.5359,-2.6775,-0.3439,-4.0359,0.3387,-0.2392,1.9889,1.7744,1.154,-1.0259,-0.5947,-6.3987,1.417,-1.0947,0.406
-2.8328,-0.4568,-2.6039,-0.3407,-3.8558,0.2908,-0.037,1.9406,1.6721,1.4522,-0.8827,-0.5785,-6.26,1.4297,-0.9033,0.3672
-2.8328,-0.4568,-2.6039,-0.3407,-3.8558,0.2908,-0.037,1.9406,1.6721,1.4522,-0.8827,-0.5785,-6.26,1.4297,-0.9033,0.3672
-2.7653,-0.4362,-2.5501,-0.345,-3.5814,0.1623,0.1344,1.8569,1.5805,1.5843,-0.8012,-0.5738,-6.1475,1.3745,-0.8673,0.3835
-2.7653,-0.4362,-2.5501,-0.345,-3.5814,0.1623,0.1344,1.8569,1.5805,1.5843,-0.8012,-0.5738,-6.1475,1.3745,-0.8673,0.3835
-2.7314,-0.4259,-2.4693,-0.3882,-3.404,0.0681,0.1556,1.8263,1.4265,1.5059,-0.7721,-0.5952,-6.175,1.3072,-1.0458,0.4369
-2.7314,-0.4259,-2.4693,-0.3882,-3.404,0.0681,0.1556,1.8263,1.4265,1.5059,-0.7721,-0.5952,-6.175,1.3072,-1.0458,0.4369
-2.7314,-0.4259,-2.4693,-0.3882,-3.404,0.0681,0.1556,1.8263,1.4265,1.5059,-0.7721,-0.5952,-6.175,1.3072,-1.0458,0.4369
-2.7653,-0.4362,-2.4424,-0.4269,-3.4742,0.0615,0.1227,1.7919,1.1314,1.4136,-0.7465,-0.6322,-6.3207,1.2516,-1.2184,0.4497
-2.7653,-0.4362,-2.4424,-0.4269,-3.4742,0.0615,0.1227,1.7919,1.1314,1.4136,-0.7465,-0.6322,-6.3207,1.2516,-1.2184,0.4497
-2.636,-0.5041,-2.4157,-0.4656,-3.7145,0.1936,0.0151,1.7841,0.9528,1.3796,-0.7311,-0.6544,-6.3757,1.2254,-1.3674,0.4639
-2.4513,-0.5916,-2.429,-0.4463,-3.8467,0.2245,-0.0916,1.7761,1.0119,1.2943,-0.7499,-0.6478,-6.4101,1.2224,-1.4544,0.4563
-2.4513,-0.5916,-2.429,-0.4463,-3.8467,0.2245,-0.0916,1.7761,1.0119,1.2943,-0.7499,-0.6478,-6.4101,1.2224,-1.4544,0.4563
-2.2453,-0.7087,-2.4762,-0.415,-4.0121,0.2516,-0.0707,1.7459,1.0414,1.2519,-0.7976,-0.6197,-6.4101,1.2224,-1.5193,0.4506
-2.2453,-0.7087,-2.4762,-0.415,-4.0121,0.2516,-0.0707,1.7459,1.0414,1.2519,-0.7976,-0.6197,-6.4101,1.2224,-1.5193,0.4506
-2.2453,-0.7087,-2.4762,-0.415,-4.0121,0.2516,-0.0707,1.7459,1.0414,1.2519,-0.7976,-0.6197,-6.4101,1.2224,-1.5193,0.4506
-2.2453,-0.7087,-2.5435,-0.3912,-4.0655,0.2235,0.1737,1.6368,1.1667,1.1438,-0.8351,-0.6065,-6.4101,1.2224,-1.4714,0.4146
-2.2453,-0.7087,-2.5435,-0.3912,-4.0655,0.2235,0.1737,1.6368,1.1667,1.1438,-0.8351,-0.6065,-6.4101,1.2224,-1.4714,0.4146
-2.2453,-0.7087,-2.5435,-0.3912,-4.0655,0.2235,0.1737,1.6368,1.1667,1.1438,-0.8351,-0.6065,-6.4101,1.2224,-1.4714,0.4146
-2.5332,-0.4735,-2.5838,-0.4061,-3.926,0.1274,0.6476,1.4467,1.2043,1.1624,-0.8893,-0.6097,-6.1048,1.0994,-1.3015,0.3356
-2.5332,-0.4735,-2.5838,-0.4061,-3.926,0.1274,0.6476,1.4467,1.2043,1.1624,-0.8893,-0.6097,-6.1048,1.0994,-1.3015,0.3356
-2.7653,-0.4362,-2.5974,-0.4595,-3.9797,0.0997,0.3783,1.5873,1.2336,1.1201,-0.9299,-0.612,-5.9087,1.0301,-1.2797,0.3374
-2.7653,-0.4362,-2.5974,-0.4595,-3.9797,0.0997,0.3783,1.5873,1.2336,1.1201,-0.9299,-0.612,-5.9087,1.0301,-1.2797,0.3374
-2.9871,-0.4687,-2.5845,-0.5507,-4.1626,0.1024,0.0571,1.7235,1.1667,1.1438,-0.9517,-0.621,-5.9226,1.0501,-1.2665,0.3518
-3.1527,-0.5202,-2.5519,-0.634,-4.3386,0.1492,-0.2186,1.7981,1.0708,1.2095,-0.9685,-0.6372,-5.9505,1.0903,-1.2753,0.3644
-3.1527,-0.5202,-2.5519,-0.634,-4.3386,0.1492,-0.2186,1.7981,1.0708,1.2095,-0.9685,-0.6372,-5.9505,1.0903,-1.2753,0.3644
-3.2511,-0.5509,-2.4792,-0.7026,-4.4331,0.1826,-0.3446,1.8199,1.2419,1.181,-0.9718,-0.6527,-6.0837,1.2289,-1.2534,0.3662
-3.2511,-0.5509,-2.4792,-0.7026,-4.4331,0.1826,-0.3446,1.8199,1.2419,1.181,-0.9718,-0.6527,-6.0837,1.2289,-1.2534,0.3662
-3.2511,-0.5509,-2.4792,-0.7026,-4.4331,0.1826,-0.3446,1.8199,1.2419,1.181,-0.9718,-0.6527,-6.0837,1.2289,-1.2534,0.3662
-3.1455,-0.5882,-2.4255,-0.7072,-4.3669,0.1901,-0.3655,1.8501,1.5209,1.1467,-0.9936,-0.6616,-6.1401,1.3102,-1.2622,0.3789
-3.1455,-0.5882,-2.4255,-0.7072,-4.3669,0.1901,-0.3655,1.8501,1.5209,1.1467,-0.9936,-0.6616,-6.1401,1.3102,-1.2622,0.3789
-3.0195,-0.6545,-2.4518,-0.6694,-4.3195,0.1733,-0.2713,1.794,1.8634,1.0256,-0.9968,-0.677,-6.2033,1.3479,-1.2227,0.3554
-3.0195,-0.6545,-2.4518,-0.6694,-4.3195,0.1733,-0.2713,1.794,1.8634,1.0256,-0.9968,-0.677,-6.2033,1.3479,-1.2227,0.3554
-2.8795,-0.6822,-2.5045,-0.5933,-4.272,0.1566,-0.0498,1.7158,1.9029,1.0439,-1.0135,-0.6932,-6.2729,1.3418,-1.1128,0.2975
-2.8795,-0.6822,-2.5045,-0.5933,-4.272,0.1566,-0.0498,1.7158,1.9029,1.0439,-1.0135,-0.6932,-6.2729,1.3418,-1.1128,0.2975
-2.8259,-0.7011,-2.5845,-0.5507,-4.2245,0.1398,-0.0498,1.7158,1.6847,1.2833,-1.0353,-0.702,-6.3423,1.3356,-1.0732,0.2739
-2.8259,-0.7011,-2.5845,-0.5507,-4.2245,0.1398,-0.0498,1.7158,1.6847,1.2833,-1.0353,-0.702,-6.3423,1.3356,-1.0732,0.2739
-2.8124,-0.6623,-2.6511,-0.5272,-4.019,0.0517,-0.0916,1.7761,1.4952,1.4816,-1.057,-0.7109,-6.3282,1.3153,-1.0732,0.2739
-2.7449,-0.6423,-2.7175,-0.5037,-3.7779,-0.0335,-0.0593,1.8104,1.2896,1.5543,-1.1287,-0.7075,-6.3692,1.2687,-1.1964,0.3175
-2.7449,-0.6423,-2.7175,-0.5037,-3.7779,-0.0335,-0.0593,1.8104,1.2896,1.5543,-1.1287,-0.7075,-6.3692,1.2687,-1.1964,0.3175
-2.7449,-0.6423,-2.7175,-0.5037,-3.7779,-0.0335,-0.0593,1.8104,1.2896,1.5543,-1.1287,-0.7075,-6.3692,1.2687,-1.1964,0.3175
-2.7988,-0.6233,-2.7903,-0.5067,-3.7495,-0.0743,-0.2076,1.8628,1.1015,1.4567,-1.1667,-0.7324,-6.5128,1.2133,-1.3931,0.3679
-2.7988,-0.6233,-2.7903,-0.5067,-3.7495,-0.0743,-0.2076,1.8628,1.1015,1.4567,-1.1667,-0.7324,-6.5128,1.2133,-1.3931,0.3679
-2.8325,-0.6333,-2.764,-0.5447,-3.798,-0.0572,-0.2395,1.8283,0.8792,1.3413,-1.1499,-0.7766,-6.6212,1.1612,-1.51,0.3713
-2.8124,-0.6623,-2.7245,-0.6016,-3.9907,0.0109,-0.303,1.7599,0.938,1.2565,-1.1299,-0.8055,-6.6412,1.1384,-1.5659,0.3531
-2.8124,-0.6623,-2.7245,-0.6016,-3.9907,0.0109,-0.303,1.7599,0.938,1.2565,-1.1299,-0.8055,-6.6412,1.1384,-1.5659,0.3531
-2.8124,-0.6623,-2.7245,-0.6016,-3.9907,0.0109,-0.303,1.7599,0.938,1.2565,-1.1299,-0.8055,-6.6412,1.1384,-1.5659,0.3531
-2.5765,-0.7675,-2.7114,-0.6205,-4.1819,0.0785,-0.3346,1.7258,1.0628,1.1487,-1.1481,-0.799,-6.655,1.1582,-1.6216,0.335
-2.5765,-0.7675,-2.7114,-0.6205,-4.1819,0.0785,-0.3346,1.7258,1.0628,1.1487,-1.1481,-0.799,-6.655,1.1582,-1.6216,0.335
-2.3387,-0.8733,-2.6915,-0.6133,-4.3244,0.1288,-0.2932,1.6662,1.1584,1.0832,-1.1782,-0.7557,-6.5735,1.1444,-1.6043,0.3101
-2.3387,-0.8733,-2.6915,-0.6133,-4.3244,0.1288,-0.2932,1.6662,1.1584,1.0832,-1.1782,-0.7557,-6.5735,1.1444,-1.6043,0.3101
-2.2692,-0.8542,-2.6447,-0.5725,-4.3717,0.1455,-0.0938,1.6182,1.2713,1.1387,-1.1704,-0.6873,-6.4371,1.1563,-1.5226,0.2906
-2.2692,-0.8542,-2.6447,-0.5725,-4.3717,0.1455,-0.0938,1.6182,1.2713,1.1387,-1.1704,-0.6873,-6.4371,1.1563,-1.5226,0.2906
-2.3498,-0.738,-2.6178,-0.5389,-4.3859,0.1659,0.1077,1.5696,1.288,1.2612,-1.0892,-0.6444,-6.2302,1.174,-1.3669,0.2639
-2.3498,-0.738,-2.6178,-0.5389,-4.3859,0.1659,0.1077,1.5696,1.288,1.2612,-1.0892,-0.6444,-6.2302,1.174,-1.3669,0.2639
-2.4372,-0.5521,-2.5373,-0.5097,-4.272,0.1566,0.3654,1.5237,1.4103,1.3803,-0.9434,-0.6128,-5.8368,1.1417,-1.1967,0.2511
-2.4372,-0.5521,-2.5373,-0.5097,-4.272,0.1566,0.3654,1.5237,1.4103,1.3803,-0.9434,-0.6128,-5.8368,1.1417,-1.1967,0.2511
-2.5675,-0.4837,-2.5038,-0.5215,-4.1626,0.1024,0.2695,1.5803,1.4185,1.4429,-0.8079,-0.605,-5.4929,1.0815,-1.0778,0.247
-2.5675,-0.4837,-2.5038,-0.5215,-4.1626,0.1024,0.2695,1.5803,1.4185,1.4429,-0.8079,-0.605,-5.4929,1.0815,-1.0778,0.247
-2.5675,-0.4837,-2.5038,-0.5215,-4.1626,0.1024,0.2695,1.5803,1.4185,1.4429,-0.8079,-0.605,-5.4929,1.0815,-1.0778,0.247
-2.7448,-0.4657,-2.4102,-0.5835,-4.1678,0.0581,-0.0822,1.6819,1.3882,1.4864,-0.6747,-0.6129,-5.3977,1.1096,-1.0113,0.2521
-2.7448,-0.4657,-2.4102,-0.5835,-4.1678,0.0581,-0.0822,1.6819,1.3882,1.4864,-0.6747,-0.6129,-5.3977,1.1096,-1.0113,0.2521
-2.7448,-0.4657,-2.4102,-0.5835,-4.1678,0.0581,-0.0822,1.6819,1.3882,1.4864,-0.6747,-0.6129,-5.3977,1.1096,-1.0113,0.2521
-2.7176,-0.5639,-2.2754,-0.6311,-4.1484,0.082,-0.4491,1.8115,1.8231,1.2344,-0.6111,-0.6017,-5.5913,1.3335,-1.0598,0.2883
-2.7176,-0.5639,-2.2754,-0.6311,-4.1484,0.082,-0.4491,1.8115,1.8231,1.2344,-0.6111,-0.6017,-5.5913,1.3335,-1.0598,0.2883
-2.7176,-0.5639,-2.2754,-0.6311,-4.1484,0.082,-0.4491,1.8115,1.8231,1.2344,-0.6111,-0.6017,-5.5913,1.3335,-1.0598,0.2883
-2.6431,-0.6123,-2.3285,-0.5545,-4.1148,0.0856,-0.4803,1.7773,2.1022,1.1358,-0.5973,-0.601,-5.6562,1.3721,-1.0154,0.2917
-2.6431,-0.6123,-2.3285,-0.5545,-4.1148,0.0856,-0.4803,1.7773,2.1022,1.1358,-0.5973,-0.601,-5.6562,1.3721,-1.0154,0.2917
-2.6431,-0.6123,-2.3285,-0.5545,-4.1148,0.0856,-0.4803,1.7773,2.1022,1.1358,-0.5973,-0.601,-5.6562,1.3721,-1.0154,0.2917
-2.4999,-0.6409,-2.4221,-0.4195,-3.9654,0.0792,-0.1674,1.6442,1.8719,1.3156,-0.6523,-0.604,-5.7284,1.3663,-0.7086,0.1546
-2.4999,-0.6409,-2.4221,-0.4195,-3.9654,0.0792,-0.1674,1.6442,1.8719,1.3156,-0.6523,-0.604,-5.7284,1.3663,-0.7086,0.1546
-2.4858,-0.6016,-2.4896,-0.3957,-3.6746,-0.0236,0.0007,1.5623,1.5723,1.5206,-0.7124,-0.5996,-5.6854,1.3043,-0.6911,0.1294
-2.4858,-0.6016,-2.4896,-0.3957,-3.6746,-0.0236,0.0007,1.5623,1.5723,1.5206,-0.7124,-0.5996,-5.6854,1.3043,-0.6911,0.1294
-2.5202,-0.6116,-2.5503,-0.418,-3.4995,-0.1164,-0.0113,1.4993,1.4038,1.6133,-0.7482,-0.6093,-5.5922,1.2247,-0.7399,0.1657
-2.5202,-0.6116,-2.5503,-0.418,-3.4995,-0.1164,-0.0113,1.4993,1.4038,1.6133,-0.7482,-0.6093,-5.5922,1.2247,-0.7399,0.1657
-2.5748,-0.5923,-2.5639,-0.4713,-3.3236,-0.2094,-0.0644,1.4957,1.0858,1.6263,-0.8164,-0.6131,-5.672,1.1756,-0.8736,0.2225
-2.5748,-0.5923,-2.5639,-0.4713,-3.3236,-0.2094,-0.0644,1.4957,1.0858,1.6263,-0.8164,-0.6131,-5.672,1.1756,-0.8736,0.2225
-2.6771,-0.6223,-2.5776,-0.5243,-3.4079,-0.195,-0.1905,1.518,0.8934,1.4652,-0.8367,-0.645,-5.8864,1.1592,-1.0819,0.2865
-2.6771,-0.6223,-2.5776,-0.5243,-3.4079,-0.195,-0.1905,1.518,0.8934,1.4652,-0.8367,-0.645,-5.8864,1.1592,-1.0819,0.2865
-2.6771,-0.6223,-2.5776,-0.5243,-3.4079,-0.195,-0.1905,1.518,0.8934,1.4652,-0.8367,-0.645,-5.8864,1.1592,-1.0819,0.2865
-2.6771,-0.6223,-2.531,-0.5552,-3.5279,-0.0754,-0.2315,1.5771,0.8425,1.3222,-0.8111,-0.6817,-6.0837,1.2289,-1.1964,0.3175
-2.6771,-0.6223,-2.531,-0.5552,-3.5279,-0.0754,-0.2315,1.5771,0.8425,1.3222,-0.8111,-0.6817,-6.0837,1.2289,-1.1964,0.3175
-2.1697,-0.7575,-2.3633,-0.6145,-3.8091,0.1172,-0.0319,1.529,1.1,1.1673,-0.7976,-0.681,-6.2099,1.3041,-1.1656,0.3066
-2.1697,-0.7575,-2.3633,-0.6145,-3.8091,0.1172,-0.0319,1.529,1.1,1.1673,-0.7976,-0.681,-6.2099,1.3041,-1.1656,0.3066
-2.0993,-0.7382,-2.3429,-0.6072,-3.8919,0.1309,0.2647,1.4242,1.2713,1.1387,-0.8213,-0.667,-6.175,1.3072,-1.0732,0.2739
-2.0993,-0.7382,-2.3429,-0.6072,-3.8919,0.1309,0.2647,1.4242,1.2713,1.1387,-0.8213,-0.667,-6.175,1.3072,-1.0732,0.2739
-2.0993,-0.7382,-2.3429,-0.6072,-3.8919,0.1309,0.2647,1.4242,1.2713,1.1387,-0.8213,-0.667,-6.175,1.3072,-1.0732,0.2739
-2.181,-0.6203,-2.3561,-0.5881,-4.0225,0.1615,0.6406,1.2914,1.3471,1.1759,-0.84,-0.6604,-6.1401,1.3102,-0.9804,0.2411
-2.181,-0.6203,-2.3561,-0.5881,-4.0225,0.1615,0.6406,1.2914,1.3471,1.1759,-0.84,-0.6604,-6.1401,1.3102,-0.9804,0.2411
-2.395,-0.4326,-2.3694,-0.569,-3.9939,0.1203,0.6958,1.2943,1.3259,1.2801,-0.8671,-0.662,-5.9569,1.2609,-0.9669,0.2554
-2.395,-0.4326,-2.3694,-0.569,-3.9939,0.1203,0.6958,1.2943,1.3259,1.2801,-0.8671,-0.662,-5.9569,1.2609,-0.9669,0.2554
-2.395,-0.4326,-2.3694,-0.569,-3.9939,0.1203,0.6958,1.2943,1.3259,1.2801,-0.8671,-0.662,-5.9569,1.2609,-0.9669,0.2554
-2.5056,-0.3935,-2.4031,-0.5571,-3.9654,0.0792,0.5031,1.4073,1.3639,1.299,-0.9077,-0.6643,-5.8078,1.2082,-0.9533,0.2697
-2.6769,-0.4451,-2.3837,-0.6217,-4.0386,0.0278,0.1284,1.5397,1.3259,1.2801,-0.9431,-0.6739,-5.8078,1.2082,-0.9756,0.2681
-2.704,-0.5245,-2.3104,-0.6906,-4.0441,-0.0163,-0.1994,1.6106,1.4233,1.2133,-0.9631,-0.7055,-5.9073,1.2433,-1.051,0.2756
-2.704,-0.5245,-2.3104,-0.6906,-4.0441,-0.0163,-0.1994,1.6106,1.4233,1.2133,-0.9631,-0.7055,-5.9073,1.2433,-1.051,0.2756
-2.704,-0.5245,-2.3104,-0.6906,-4.0441,-0.0163,-0.1994,1.6106,1.4233,1.2133,-0.9631,-0.7055,-5.9073,1.2433,-1.051,0.2756
-2.609,-0.6023,-2.3032,-0.6645,-4.0104,-0.0129,-0.3662,1.692,1.6573,1.0985,-0.9984,-0.7151,-6.0063,1.2783,-1.0732,0.2739
-2.609,-0.6023,-2.3032,-0.6645,-4.0104,-0.0129,-0.3662,1.692,1.6573,1.0985,-0.9984,-0.7151,-6.0063,1.2783,-1.0732,0.2739
-2.609,-0.6023,-2.3032,-0.6645,-4.0104,-0.0129,-0.3662,1.692,1.6573,1.0985,-0.9984,-0.7151,-6.0063,1.2783,-1.0732,0.2739
-2.609,-0.6023,-2.3561,-0.5881,-4.0386,0.0278,-0.4183,1.6879,1.7848,0.9892,-1.0335,-0.7247,-6.126,1.2898,-1.0778,0.247
-2.609,-0.6023,-2.3561,-0.5881,-4.0386,0.0278,-0.4183,1.6879,1.7848,0.9892,-1.0335,-0.7247,-6.126,1.2898,-1.0778,0.247
-2.609,-0.6023,-2.3561,-0.5881,-4.0386,0.0278,-0.4183,1.6879,1.7848,0.9892,-1.0335,-0.7247,-6.126,1.2898,-1.0778,0.247
-2.6155,-0.5336,-2.4766,-0.4876,-3.937,0.0382,-0.252,1.6067,1.3803,1.4236,-1.1002,-0.7285,-6.2936,1.3184,-0.9367,0.1782
-2.6155,-0.5336,-2.4766,-0.4876,-3.937,0.0382,-0.252,1.6067,1.3803,1.4236,-1.1002,-0.7285,-6.2936,1.3184,-0.9367,0.1782
-2.5471,-0.5133,-2.443,-0.4995,-3.7091,-0.0269,-0.1055,1.555,1.0927,1.69,-1.1319,-0.7228,-6.3282,1.3153,-0.9677,0.1891
-2.5471,-0.5133,-2.443,-0.4995,-3.7091,-0.0269,-0.1055,1.555,1.0927,1.69,-1.1319,-0.7228,-6.3282,1.3153,-0.9677,0.1891
-2.5471,-0.5133,-2.443,-0.4995,-3.7091,-0.0269,-0.1055,1.555,1.0927,1.69,-1.1319,-0.7228,-6.3282,1.3153,-0.9677,0.1891
-2.5471,-0.5133,-2.443,-0.4995,-3.7091,-0.0269,-0.1055,1.555,1.0927,1.69,-1.1319,-0.7228,-6.3282,1.3153,-0.9677,0.1891
-2.5471,-0.5133,-2.443,-0.4995,-3.7091,-0.0269,-0.1055,1.555,1.0927,1.69,-1.1319,-0.7228,-6.3282,1.3153,-0.9677,0.1891
-2.5471,-0.5133,-2.3214,-0.528,-3.31,-0.1214,0.0748,1.5362,0.9072,1.5907,-1.0234,-0.7392,-6.2234,1.2172,-1.1349,0.2957
-2.5471,-0.5133,-2.3214,-0.528,-3.31,-0.1214,0.0748,1.5362,0.9072,1.5907,-1.0234,-0.7392,-6.2234,1.2172,-1.1349,0.2957
-2.4922,-0.5327,-2.1383,-0.6072,-3.3751,0.0265,0.1284,1.5397,0.8792,1.3413,-0.6819,-0.7662,-6.1677,1.2433,-1.1743,0.3861
-2.4922,-0.5327,-2.1383,-0.6072,-3.3751,0.0265,0.1284,1.5397,0.8792,1.3413,-0.6819,-0.7662,-6.1677,1.2433,-1.1743,0.3861
-2.4922,-0.5327,-2.1383,-0.6072,-3.3751,0.0265,0.1284,1.5397,0.8792,1.3413,-0.6819,-0.7662,-6.1677,1.2433,-1.1743,0.3861
-2.3269,-0.5911,-2.0909,-0.6384,-3.5115,0.1692,0.1284,1.5397,1.0119,1.2943,-0.5635,-0.7526,-6.0557,1.2958,-1.0637,0.395
-2.3269,-0.5911,-2.0909,-0.6384,-3.5115,0.1692,0.1284,1.5397,1.0119,1.2943,-0.5635,-0.7526,-6.0557,1.2958,-1.0637,0.395
-2.3269,-0.5911,-2.0909,-0.6384,-3.5115,0.1692,0.1284,1.5397,1.0119,1.2943,-0.5635,-0.7526,-6.0557,1.2958,-1.0637,0.395
-2.3269,-0.5911,-2.0909,-0.6384,-3.5115,0.1692,0.1284,1.5397,1.0119,1.2943,-0.5635,-0.7526,-6.0557,1.2958,-1.0637,0.395
-1.8243,-0.7686,-2.1101,-0.5735,-3.5843,0.2742,0.2569,1.5169,1.3937,1.2561,-0.5387,-0.6441,-5.8859,1.3752,-0.9075,0.4073
-1.8243,-0.7686,-2.1101,-0.5735,-3.5843,0.2742,0.2569,1.5169,1.3937,1.2561,-0.5387,-0.6441,-5.8859,1.3752,-0.9075,0.4073
-1.7728,-0.7198,-2.1369,-0.5349,-3.4704,0.218,0.6131,1.4136,1.6368,1.2026,-0.5645,-0.6069,-5.8646,1.3988,-0.8222,0.3869
-1.7728,-0.7198,-2.1369,-0.5349,-3.4704,0.218,0.6131,1.4136,1.6368,1.2026,-0.5645,-0.6069,-5.8646,1.3988,-0.8222,0.3869
-1.8554,-0.6007,-2.1503,-0.5155,-3.2916,0.1231,0.8421,1.3327,1.7446,1.197,-0.5749,-0.592,-5.6275,1.3306,-0.7278,0.3535
-1.8554,-0.6007,-2.1503,-0.5155,-3.2916,0.1231,0.8421,1.3327,1.7446,1.197,-0.5749,-0.592,-5.6275,1.3306,-0.7278,0.3535
-2.0455,-0.5109,-2.171,-0.5228,-3.2336,0.0394,0.7655,1.3597,1.8137,1.1726,-0.6214,-0.5868,-5.3224,1.2228,-0.6962,0.3424
-2.0455,-0.5109,-2.171,-0.5228,-3.2336,0.0394,0.7655,1.3597,1.8137,1.1726,-0.6214,-0.5868,-5.3224,1.2228,-0.6962,0.3424
-2.3331,-0.5218,-2.2269,-0.5903,-3.4103,0.0233,0.3525,1.4605,1.7055,1.1783,-0.6575,-0.5965,-5.2568,1.184,-0.7189,0.3407
-2.3331,-0.5218,-2.2269,-0.5903,-3.4103,0.0233,0.3525,1.4605,1.7055,1.1783,-0.6575,-0.5965,-5.2568,1.184,-0.7189,0.3407
-2.3331,-0.5218,-2.2269,-0.5903,-3.4103,0.0233,0.3525,1.4605,1.7055,1.1783,-0.6575,-0.5965,-5.2568,1.184,-0.7189,0.3407
-2.6155,-0.5336,-2.1812,-0.6932,-3.5502,0.0102,0.0214,1.5326,1.7446,1.197,-0.642,-0.6188,-5.3143,1.2669,-0.7367,0.3664
-2.6155,-0.5336,-2.1812,-0.6932,-3.5502,0.0102,0.0214,1.5326,1.7446,1.197,-0.642,-0.6188,-5.3143,1.2669,-0.7367,0.3664
-2.5887,-0.6315,-2.1266,-0.6981,-3.6626,0.0655,-0.0849,1.5253,2.2621,0.9817,-0.6215,-0.6485,-5.5689,1.4672,-0.714,0.368
-2.5887,-0.6315,-2.1266,-0.6981,-3.6626,0.0655,-0.0849,1.5253,2.2621,0.9817,-0.6215,-0.6485,-5.5689,1.4672,-0.714,0.368
-2.3845,-0.7477,-2.1797,-0.6215,-3.6626,0.0655,0.1571,1.4175,2.3734,0.9748,-0.6026,-0.6552,-5.6344,1.5062,-0.5415,0.3265
-2.3845,-0.7477,-2.1797,-0.6215,-3.6626,0.0655,0.1571,1.4175,2.3734,0.9748,-0.6026,-0.6552,-5.6344,1.5062,-0.5415,0.3265
-2.3845,-0.7477,-2.1797,-0.6215,-3.6626,0.0655,0.1571,1.4175,2.3734,0.9748,-0.6026,-0.6552,-5.6344,1.5062,-0.5415,0.3265
-2.2746,-0.7865,-2.1857,-0.5759,-3.5646,0.0309,0.3058,1.3649,2.294,1.1664,-0.5888,-0.6544,-5.6707,1.5031,-0.3677,0.2845
-2.2746,-0.7865,-2.1857,-0.5759,-3.5646,0.0309,0.3058,1.3649,2.294,1.1664,-0.5888,-0.6544,-5.6707,1.5031,-0.3677,0.2845
-2.2047,-0.7672,-2.2464,-0.5254,-3.431,-0.0007,0.435,1.3416,2.1015,1.3668,-0.6266,-0.6411,-5.7068,1.5001,-0.2891,0.2762
-2.2047,-0.7672,-2.2464,-0.5254,-3.431,-0.0007,0.435,1.3416,2.1015,1.3668,-0.6266,-0.6411,-5.7068,1.5001,-0.2891,0.2762
-2.2047,-0.7672,-2.2464,-0.5254,-3.431,-0.0007,0.435,1.3416,2.1015,1.3668,-0.6266,-0.6411,-5.7068,1.5001,-0.2891,0.2762
-2.2453,-0.7087,-2.2875,-0.5399,-3.268,-0.0739,0.3189,1.4275,1.8902,1.4415,-0.6301,-0.6566,-5.6995,1.4345,-0.3661,0.3522
-2.19,-0.7283,-2.2403,-0.5711,-3.1683,-0.1091,0.2441,1.4538,1.6332,1.4329,-0.6045,-0.6936,-5.7787,1.3841,-0.4944,0.3975
-2.0789,-0.7675,-2.1664,-0.6407,-3.1826,-0.0885,0.1903,1.4505,1.6246,1.3701,-0.56,-0.7371,-5.8503,1.3781,-0.5902,0.4314
-2.0789,-0.7675,-2.1664,-0.6407,-3.1826,-0.0885,0.1903,1.4505,1.6246,1.3701,-0.56,-0.7371,-5.8503,1.3781,-0.5902,0.4314
-2.0789,-0.7675,-2.1664,-0.6407,-3.1826,-0.0885,0.1903,1.4505,1.6246,1.3701,-0.56,-0.7371,-5.8503,1.3781,-0.5902,0.4314
-1.7991,-0.8664,-2.1266,-0.6981,-3.311,-0.0118,0.083,1.4436,1.7538,1.2589,-0.5687,-0.7452,-5.9003,1.3958,-0.6677,0.4392
-1.7991,-0.8664,-2.1266,-0.6981,-3.311,-0.0118,0.083,1.4436,1.7538,1.2589,-0.5687,-0.7452,-5.9003,1.3958,-0.6677,0.4392
-1.7991,-0.8664,-2.1266,-0.6981,-3.311,-0.0118,0.083,1.4436,1.7538,1.2589,-0.5687,-0.7452,-5.9003,1.3958,-0.6677,0.4392
-1.5729,-0.9463,-2.1606,-0.6861,-3.4247,0.044,0.0297,1.4402,1.7446,1.197,-0.6217,-0.7098,-5.9146,1.4165,-0.7222,0.4487
-1.5729,-0.9463,-2.1606,-0.6861,-3.4247,0.044,0.0297,1.4402,1.7446,1.197,-0.6217,-0.7098,-5.9146,1.4165,-0.7222,0.4487
-1.5729,-0.9463,-2.1606,-0.6861,-3.4247,0.044,0.0297,1.4402,1.7446,1.197,-0.6217,-0.7098,-5.9146,1.4165,-0.7222,0.4487
-1.5771,-0.8782,-2.221,-0.6359,-3.5441,0.0549,0.3131,1.2734,1.7238,1.3022,-0.7192,-0.6307,-5.8933,1.4402,-0.727,0.4212
-1.5771,-0.8782,-2.221,-0.6359,-3.5441,0.0549,0.3131,1.2734,1.7238,1.3022,-0.7192,-0.6307,-5.8933,1.4402,-0.727,0.4212
-1.814,-0.6604,-2.2269,-0.5903,-3.5789,0.0515,0.5168,1.2236,1.5944,1.4136,-0.7704,-0.6182,-5.793,1.4048,-0.6775,0.3843
-1.814,-0.6604,-2.2269,-0.5903,-3.5789,0.0515,0.5168,1.2236,1.5944,1.4136,-0.7704,-0.6182,-5.793,1.4048,-0.6775,0.3843
-1.9892,-0.5309,-2.2269,-0.5903,-3.5646,0.0309,0.592,1.197,1.5641,1.4573,-0.7653,-0.6256,-5.4898,1.2976,-0.6369,0.3602
-1.9892,-0.5309,-2.2269,-0.5903,-3.5646,0.0309,0.592,1.197,1.5641,1.4573,-0.7653,-0.6256,-5.4898,1.2976,-0.6369,0.3602
-2.2427,-0.5314,-2.2077,-0.655,-3.6116,-0.0613,0.1851,1.2965,1.5641,1.4573,-0.755,-0.6404,-5.3878,1.2616,-0.6369,0.3602
-2.2427,-0.5314,-2.2077,-0.655,-3.6116,-0.0613,0.1851,1.2965,1.5641,1.4573,-0.755,-0.6404,-5.3878,1.2616,-0.6369,0.3602
-2.2427,-0.5314,-2.2077,-0.655,-3.6116,-0.0613,0.1851,1.2965,1.5641,1.4573,-0.755,-0.6404,-5.3878,1.2616,-0.6369,0.3602
-2.4577,-0.5225,-2.0529,-0.7673,-3.701,-0.0915,-0.1412,1.3676,1.5255,1.438,-0.7311,-0.6544,-5.3944,1.3267,-0.6458,0.3731
-2.4577,-0.5225,-2.0529,-0.7673,-3.701,-0.0915,-0.1412,1.3676,1.5255,1.438,-0.7311,-0.6544,-5.3944,1.3267,-0.6458,0.3731
-2.4577,-0.5225,-2.0529,-0.7673,-3.701,-0.0915,-0.1412,1.3676,1.5255,1.438,-0.7311,-0.6544,-5.3944,1.3267,-0.6458,0.3731
-2.4168,-0.5816,-1.8798,-0.7564,-3.6116,-0.0613,-0.2546,1.4518,1.9815,1.3098,-0.5818,-0.6233,-5.3781,1.527,-0.5813,0.4184
-2.4168,-0.5816,-1.8798,-0.7564,-3.6116,-0.0613,-0.2546,1.4518,1.9815,1.3098,-0.5818,-0.6233,-5.3781,1.527,-0.5813,0.4184
-2.2715,-0.6106,-1.8966,-0.6198,-3.5216,-0.0311,-0.2022,1.4554,2.1525,1.2164,-0.4727,-0.5943,-5.3706,1.5724,-0.4252,0.4024
-2.2715,-0.6106,-1.8966,-0.6198,-3.5216,-0.0311,-0.2022,1.4554,2.1525,1.2164,-0.4727,-0.5943,-5.3706,1.5724,-0.4252,0.4024
-2.0694,-0.6597,-1.9007,-0.501,-3.431,-0.0007,-0.0968,1.4626,2.1625,1.2789,-0.3575,-0.5728,-5.2965,1.5784,-0.1705,0.3517
-2.0694,-0.6597,-1.9007,-0.501,-3.431,-0.0007,-0.0968,1.4626,2.1625,1.2789,-0.3575,-0.5728,-5.2965,1.5784,-0.1705,0.3517
-1.9065,-0.6502,-1.8856,-0.4473,-3.1758,-0.0439,0.1571,1.4175,2.1111,1.4302,-0.2555,-0.5521,-5.1699,1.5658,0.0638,0.2985
-1.9065,-0.6502,-1.8856,-0.4473,-3.1758,-0.0439,0.1571,1.4175,2.1111,1.4302,-0.2555,-0.5521,-5.1699,1.5658,0.0638,0.2985
-1.7986,-0.6208,-1.822,-0.4253,-2.9388,-0.112,0.2313,1.3912,1.9963,1.6731,-0.1811,-0.5327,-4.9748,1.513,0.2014,0.2794
-1.7986,-0.6208,-1.822,-0.4253,-2.9388,-0.112,0.2313,1.3912,1.9963,1.6731,-0.1811,-0.5327,-4.9748,1.513,0.2014,0.2794
-1.69,-0.5913,-1.7658,-0.4303,-2.5968,-0.2171,0.36,1.3681,1.9023,1.8087,-0.1438,-0.523,-4.8543,1.4543,0.2313,0.3084
-1.69,-0.5913,-1.7658,-0.4303,-2.5968,-0.2171,0.36,1.3681,1.9023,1.8087,-0.1438,-0.523,-4.8543,1.4543,0.2313,0.3084
-1.69,-0.5913,-1.7658,-0.4303,-2.5968,-0.2171,0.36,1.3681,1.9023,1.8087,-0.1438,-0.523,-4.8543,1.4543,0.2313,0.3084
-1.69,-0.5913,-1.7734,-0.4573,-2.2872,-0.3264,0.3805,1.3385,1.8231,1.7683,-0.1438,-0.523,-4.9304,1.449,0.1047,0.3829
-1.69,-0.5913,-1.7811,-0.4842,-2.1021,-0.4232,0.3058,1.3649,1.7672,1.6188,-0.1722,-0.5244,-5.0519,1.3958,-0.0873,0.4806
-1.69,-0.5913,-1.7811,-0.4842,-2.1021,-0.4232,0.3058,1.3649,1.7672,1.6188,-0.1722,-0.5244,-5.0519,1.3958,-0.0873,0.4806
-1.69,-0.5913,-1.7811,-0.4842,-2.1021,-0.4232,0.3058,1.3649,1.7672,1.6188,-0.1722,-0.5244,-5.0519,1.3958,-0.0873,0.4806
-1.7263,-0.6011,-1.754,-0.5234,-2.2064,-0.3864,0.2108,1.4208,1.5255,1.438,-0.2518,-0.5363,-5.3643,1.3949,-0.3159,0.5613
-1.7263,-0.6011,-1.754,-0.5234,-2.2064,-0.3864,0.2108,1.4208,1.5255,1.438,-0.2518,-0.5363,-5.3643,1.3949,-0.3159,0.5613
-1.7833,-0.581,-1.7191,-0.5357,-2.3391,-0.3081,0.1697,1.4802,1.288,1.2612,-0.2732,-0.5686,-5.5982,1.3987,-0.4827,0.5905
-1.7833,-0.581,-1.7191,-0.5357,-2.3391,-0.3081,0.1697,1.4802,1.288,1.2612,-0.2732,-0.5686,-5.5982,1.3987,-0.4827,0.5905
-1.3444,-0.7134,-1.6276,-0.5532,-2.7934,0.0106,0.2982,1.4572,1.3765,1.1335,-0.2487,-0.5829,-5.6995,1.4345,-0.4736,0.5773
-1.3444,-0.7134,-1.6276,-0.5532,-2.7934,0.0106,0.2982,1.4572,1.3765,1.1335,-0.2487,-0.5829,-5.6995,1.4345,-0.4736,0.5773
-1.3444,-0.7134,-1.6276,-0.5532,-2.7934,0.0106,0.2982,1.4572,1.3765,1.1335,-0.2487,-0.5829,-5.6995,1.4345,-0.4736,0.5773
-1.3444,-0.7134,-1.6276,-0.5532,-2.7934,0.0106,0.2982,1.4572,1.3765,1.1335,-0.2487,-0.5829,-5.6995,1.4345,-0.4736,0.5773
-1.1697,-0.7751,-1.6412,-0.5336,-2.9611,0.0858,0.4277,1.434,1.6573,1.0985,-0.2361,-0.5589,-5.6416,1.4613,-0.3209,0.5333
-1.1697,-0.7751,-1.6412,-0.5336,-2.9611,0.0858,0.4277,1.434,1.6573,1.0985,-0.2361,-0.5589,-5.6416,1.4613,-0.3209,0.5333
-1.1697,-0.7751,-1.6412,-0.5336,-2.9611,0.0858,0.4277,1.434,1.6573,1.0985,-0.2361,-0.5589,-5.6416,1.4613,-0.3209,0.5333
-1.1994,-0.6048,-1.555,-0.5047,-3.0119,0.1038,1.2285,1.1962,1.9622,1.1852,-0.2058,-0.5183,-5.2825,1.4454,-0.0399,0.4838
-1.1994,-0.6048,-1.555,-0.5047,-3.0119,0.1038,1.2285,1.1962,1.9622,1.1852,-0.2058,-0.5183,-5.2825,1.4454,-0.0399,0.4838
-1.3003,-0.5231,-1.5687,-0.485,-2.9826,0.0616,1.244,1.2587,2.0118,1.2661,-0.2305,-0.5039,-5.0519,1.3958,0.0315,0.4885
-1.4754,-0.4613,-1.4843,-0.5297,-2.9751,-0.0045,1.0044,1.4345,1.9909,1.3727,-0.211,-0.5107,-4.9241,1.3826,0.07,0.5049
-1.4754,-0.4613,-1.4843,-0.5297,-2.9751,-0.0045,1.0044,1.4345,1.9909,1.3727,-0.211,-0.5107,-4.9241,1.3826,0.07,0.5049
-1.4754,-0.4613,-1.4843,-0.5297,-2.9751,-0.0045,1.0044,1.4345,1.9909,1.3727,-0.211,-0.5107,-4.9241,1.3826,0.07,0.5049
-1.659,-0.5112,-1.4298,-0.6083,-3.0899,-0.0585,0.6403,1.5403,1.9511,1.3536,-0.2147,-0.5266,-5.0143,1.3985,0.0553,0.4901
-1.659,-0.5112,-1.4298,-0.6083,-3.0899,-0.0585,0.6403,1.5403,1.9511,1.3536,-0.2147,-0.5266,-5.0143,1.3985,0.0553,0.4901
-1.7526,-0.5009,-1.2963,-0.6851,-3.147,-0.0854,0.4878,1.5942,2.1222,1.2601,-0.1937,-0.5568,-5.1107,1.4806,0.0223,0.5017
-1.7526,-0.5009,-1.2963,-0.6851,-3.147,-0.0854,0.4878,1.5942,2.1222,1.2601,-0.1937,-0.5568,-5.1107,1.4806,0.0223,0.5017
-1.7526,-0.5009,-1.2963,-0.6851,-3.147,-0.0854,0.4878,1.5942,2.1222,1.2601,-0.1937,-0.5568,-5.1107,1.4806,0.0223,0.5017
-1.638,-0.5414,-1.2387,-0.6906,-3.1113,-0.0824,0.4878,1.5942,2.3651,1.1413,-0.2063,-0.5808,-5.2965,1.5784,-0.0345,0.5118
-1.638,-0.5414,-1.2387,-0.6906,-3.1113,-0.0824,0.4878,1.5942,2.3651,1.1413,-0.2063,-0.5808,-5.2965,1.5784,-0.0345,0.5118
-1.5228,-0.5821,-1.3616,-0.5135,-3.1044,-0.0377,0.5088,1.5639,2.7958,0.9891,-0.2487,-0.5829,-5.5619,1.6239,-0.0253,0.4986
-1.5228,-0.5821,-1.3616,-0.5135,-3.1044,-0.0377,0.5088,1.5639,2.7958,0.9891,-0.2487,-0.5829,-5.5619,1.6239,-0.0253,0.4986
-1.5228,-0.5821,-1.3616,-0.5135,-3.1044,-0.0377,0.5088,1.5639,2.7958,0.9891,-0.2487,-0.5829,-5.5619,1.6239,-0.0253,0.4986
-1.4701,-0.5321,-1.3947,-0.4268,-3.0326,-0.0316,0.7168,1.5133,2.6742,1.1645,-0.2732,-0.5686,-5.6348,1.6177,0.1159,0.4387
-1.4701,-0.5321,-1.3947,-0.4268,-3.0326,-0.0316,0.7168,1.5133,2.6742,1.1645,-0.2732,-0.5686,-5.6348,1.6177,0.1159,0.4387
-1.4701,-0.5321,-1.3947,-0.4268,-3.0326,-0.0316,0.7168,1.5133,2.6742,1.1645,-0.2732,-0.5686,-5.6348,1.6177,0.1159,0.4387
-1.4542,-0.4918,-1.4362,-0.367,-2.8953,-0.0643,0.8707,1.4589,2.4271,1.5209,-0.317,-0.5474,-5.569,1.5785,0.2396,0.405
-1.4754,-0.4613,-1.4719,-0.3544,-2.6258,-0.1753,0.9479,1.4316,2.0852,1.7784,-0.3643,-0.5421,-5.5105,1.4941,0.1971,0.43
-1.4754,-0.4613,-1.4719,-0.3544,-2.6258,-0.1753,0.9479,1.4316,2.0852,1.7784,-0.3643,-0.5421,-5.5105,1.4941,0.1971,0.43
-1.4754,-0.4613,-1.4362,-0.367,-2.368,-0.2664,1.0044,1.4345,1.8231,1.7683,-0.3959,-0.5593,-5.5763,1.4224,0.0645,0.4768
-1.4754,-0.4613,-1.4362,-0.367,-2.368,-0.2664,1.0044,1.4345,1.8231,1.7683,-0.3959,-0.5593,-5.5763,1.4224,0.0645,0.4768
-1.5702,-0.4508,-1.3729,-0.4195,-2.3825,-0.2455,1.0044,1.4345,1.5885,1.6483,-0.3611,-0.5886,-5.5913,1.3335,-0.1094,0.5483
-1.5702,-0.4508,-1.3729,-0.4195,-2.3825,-0.2455,1.0044,1.4345,1.5885,1.6483,-0.3611,-0.5886,-5.5913,1.3335,-0.1094,0.5483
-1.4911,-0.5017,-1.359,-0.4394,-2.4779,-0.1644,0.9479,1.4316,1.5033,1.545,-0.2419,-0.6137,-5.5406,1.3156,-0.217,0.5963
-1.4911,-0.5017,-1.359,-0.4394,-2.4779,-0.1644,0.9479,1.4316,1.5033,1.545,-0.2419,-0.6137,-5.5406,1.3156,-0.217,0.5963
-1.4911,-0.5017,-1.359,-0.4394,-2.4779,-0.1644,0.9479,1.4316,1.5033,1.545,-0.2419,-0.6137,-5.5406,1.3156,-0.217,0.5963
-1.3538,-0.5732,-1.3729,-0.4195,-2.5655,-0.038,0.9059,1.4923,1.5944,1.4136,-0.1444,-0.5856,-5.5109,1.3836,-0.2119,0.6245
-1.3538,-0.5732,-1.3729,-0.4195,-2.5655,-0.038,0.9059,1.4923,1.5944,1.4136,-0.1444,-0.5856,-5.5109,1.3836,-0.2119,0.6245
-0.8871,-0.6692,-1.2407,-0.3756,-2.5502,0.0528,1.3479,1.4513,2.0118,1.2661,0.0534,-0.4661,-5.2747,1.4905,0.044,0.6147
-0.8871,-0.6692,-1.2407,-0.3756,-2.5502,0.0528,1.3479,1.4513,2.0118,1.2661,0.0534,-0.4661,-5.2747,1.4905,0.044,0.6147
-0.8871,-0.6692,-1.2407,-0.3756,-2.5502,0.0528,1.3479,1.4513,2.0118,1.2661,0.0534,-0.4661,-5.2747,1.4905,0.044,0.6147
-0.9125,-0.5676,-1.1964,-0.3609,-2.5278,0.0771,1.6828,1.4026,2.2029,1.2978,0.1478,-0.4299,-4.983,1.4676,0.2403,0.5857
-0.9125,-0.5676,-1.1964,-0.3609,-2.5278,0.0771,1.6828,1.4026,2.2029,1.2978,0.1478,-0.4299,-4.983,1.4676,0.2403,0.5857
-0.9125,-0.5676,-1.1964,-0.3609,-2.5278,0.0771,1.6828,1.4026,2.2029,1.2978,0.1478,-0.4299,-4.983,1.4676,0.2403,0.5857
-0.9125,-0.5676,-1.1964,-0.3609,-2.5278,0.0771,1.6828,1.4026,2.2029,1.2978,0.1478,-0.4299,-4.983,1.4676,0.2403,0.5857
-1.3215,-0.4926,-1.0683,-0.4668,-2.6981,0.0408,1.2989,1.6082,2.3147,1.2915,0.219,-0.4026,-4.4959,1.3438,0.42,0.5832
-1.3215,-0.4926,-1.0683,-0.4668,-2.6981,0.0408,1.2989,1.6082,2.3147,1.2915,0.219,-0.4026,-4.4959,1.3438,0.42,0.5832
-1.3215,-0.4926,-1.0683,-0.4668,-2.6981,0.0408,1.2989,1.6082,2.3147,1.2915,0.219,-0.4026,-4.4959,1.3438,0.42,0.5832
-1.5123,-0.4713,-0.9315,-0.5453,-2.7715,0.0348,1.1191,1.6951,2.3966,1.3293,0.2735,-0.416,-4.5315,1.4537,0.4843,0.6012
-1.4331,-0.5223,-0.9228,-0.5182,-2.7715,0.0348,1.1191,1.6951,2.7274,1.2459,0.3081,-0.4224,-4.6602,1.5808,0.5583,0.6058
-1.4331,-0.5223,-0.9228,-0.5182,-2.7715,0.0348,1.1191,1.6951,2.7274,1.2459,0.3081,-0.4224,-4.6602,1.5808,0.5583,0.6058
-1.3165,-0.5634,-0.942,-0.4507,-2.7348,0.0378,1.2774,1.6392,2.9161,1.2129,0.3282,-0.4295,-4.6753,1.6025,0.7106,0.5725
-1.3165,-0.5634,-0.942,-0.4507,-2.7348,0.0378,1.2774,1.6392,2.9161,1.2129,0.3282,-0.4295,-4.6753,1.6025,0.7106,0.5725
-1.2417,-0.5438,-0.9614,-0.383,-2.5949,0.0044,1.3935,1.6451,2.9392,1.3399,0.3335,-0.4372,-4.729,1.6215,0.8735,0.5251
-1.2417,-0.5438,-0.9614,-0.383,-2.5949,0.0044,1.3935,1.6451,2.9392,1.3399,0.3335,-0.4372,-4.729,1.6215,0.8735,0.5251
-1.1287,-0.5144,-0.9529,-0.3554,-2.3497,-0.0662,1.5322,1.6197,2.7714,1.5016,0.3189,-0.4379,-4.8209,1.6376,0.9334,0.5143
-1.1287,-0.5144,-0.9529,-0.3554,-2.3497,-0.0662,1.5322,1.6197,2.7714,1.5016,0.3189,-0.4379,-4.8209,1.6376,0.9334,0.5143
-1.1287,-0.5144,-0.9529,-0.3554,-2.3497,-0.0662,1.5322,1.6197,2.7714,1.5016,0.3189,-0.4379,-4.8209,1.6376,0.9334,0.5143
-1.0529,-0.4948,-0.967,-0.3351,-2.0637,-0.1352,1.6284,1.6566,2.6662,1.5731,0.3096,-0.4463,-4.8824,1.6102,0.905,0.5551
-1.0957,-0.433,-0.9303,-0.3481,-1.9724,-0.1514,1.6658,1.6909,2.4582,1.4759,0.311,-0.4701,-4.9896,1.5344,0.7133,0.6435
-1.0957,-0.433,-0.9303,-0.3481,-1.9724,-0.1514,1.6658,1.6909,2.4582,1.4759,0.311,-0.4701,-4.9896,1.5344,0.7133,0.6435
-1.0363,-0.454,-0.8795,-0.3813,-2.0551,-0.09,1.6658,1.6909,2.3759,1.4374,0.3617,-0.4996,-5.0503,1.5075,0.6445,0.6678
-1.0363,-0.454,-0.8795,-0.3813,-2.0551,-0.09,1.6658,1.6909,2.3759,1.4374,0.3617,-0.4996,-5.0503,1.5075,0.6445,0.6678
-0.857,-0.5173,-0.8287,-0.4146,-2.2054,0.0116,1.6658,1.6909,2.417,1.4566,0.3911,-0.4984,-5.0274,1.5316,0.6599,0.683
-0.5945,-0.6334,-0.8059,-0.4073,-2.3108,0.0489,1.6658,1.6909,2.5619,1.4054,0.4044,-0.474,-4.9369,1.5158,0.6848,0.6845
-0.5945,-0.6334,-0.8059,-0.4073,-2.3108,0.0489,1.6658,1.6909,2.5619,1.4054,0.4044,-0.474,-4.9369,1.5158,0.6848,0.6845
-0.5945,-0.6334,-0.8059,-0.4073,-2.3108,0.0489,1.6658,1.6909,2.5619,1.4054,0.4044,-0.474,-4.9369,1.5158,0.6848,0.6845
-0.4945,-0.6454,-0.7831,-0.4001,-2.4009,0.0645,2.0146,1.5439,2.614,1.4889,0.4124,-0.4417,-4.8757,1.5428,0.7599,0.689
-0.4945,-0.6454,-0.7831,-0.4001,-2.4009,0.0645,2.0146,1.5439,2.614,1.4889,0.4124,-0.4417,-4.8757,1.5428,0.7599,0.689
-0.6415,-0.4997,-0.7831,-0.4001,-2.5427,0.0984,2.3677,1.3954,2.6244,1.5536,0.387,-0.4269,-4.8375,1.5455,0.8638,0.6523
-0.8107,-0.3217,-0.7602,-0.3928,-2.5278,0.0771,2.5351,1.3363,2.6662,1.5731,0.3816,-0.4191,-4.4925,1.4562,0.9239,0.6415
-0.8107,-0.3217,-0.7602,-0.3928,-2.5278,0.0771,2.5351,1.3363,2.6662,1.5731,0.3816,-0.4191,-4.4925,1.4562,0.9239,0.6415
-0.8107,-0.3217,-0.7602,-0.3928,-2.5278,0.0771,2.5351,1.3363,2.6662,1.5731,0.3816,-0.4191,-4.4925,1.4562,0.9239,0.6415
-0.9917,-0.2578,-0.8059,-0.4073,-2.4835,0.0131,2.3459,1.4268,2.7503,1.6123,0.387,-0.4269,-4.1816,1.3626,0.9936,0.6168
-0.9917,-0.2578,-0.8059,-0.4073,-2.4835,0.0131,2.3459,1.4268,2.7503,1.6123,0.387,-0.4269,-4.1816,1.3626,0.9936,0.6168
-0.9917,-0.2578,-0.8059,-0.4073,-2.4835,0.0131,2.3459,1.4268,2.7503,1.6123,0.387,-0.4269,-4.1816,1.3626,0.9936,0.6168
-1.2412,-0.2878,-0.8234,-0.4622,-2.5509,-0.0591,1.8724,1.5704,2.6662,1.5731,0.3683,-0.4437,-4.082,1.2786,0.9778,0.6017
-1.4281,-0.3389,-0.7676,-0.5427,-2.6325,-0.1097,1.4085,1.7106,2.6558,1.5082,0.3349,-0.4611,-4.2063,1.3388,0.9176,0.6126
-1.4281,-0.3389,-0.7676,-0.5427,-2.6325,-0.1097,1.4085,1.7106,2.6558,1.5082,0.3349,-0.4611,-4.2063,1.3388,0.9176,0.6126
-1.4596,-0.4207,-0.7676,-0.5427,-2.7351,-0.0735,1.1909,1.7639,2.7918,1.392,0.2817,-0.4714,-4.3994,1.4396,0.8576,0.6235
-1.4596,-0.4207,-0.7676,-0.5427,-2.7351,-0.0735,1.1909,1.7639,2.7918,1.392,0.2817,-0.4714,-4.3994,1.4396,0.8576,0.6235
-1.4596,-0.4207,-0.7676,-0.5427,-2.7351,-0.0735,1.1909,1.7639,2.7918,1.392,0.2817,-0.4714,-4.3994,1.4396,0.8576,0.6235
-1.4383,-0.4513,-0.8094,-0.4824,-2.6984,-0.0706,1.1333,1.7606,3.1187,1.2426,0.2326,-0.4657,-4.5225,1.4994,0.7979,0.6342
-1.4383,-0.4513,-0.8094,-0.4824,-2.6984,-0.0706,1.1333,1.7606,3.1187,1.2426,0.2326,-0.4657,-4.5225,1.4994,0.7979,0.6342
-1.4383,-0.4513,-0.8094,-0.4824,-2.6984,-0.0706,1.1333,1.7606,3.1187,1.2426,0.2326,-0.4657,-4.5225,1.4994,0.7979,0.6342
-1.4383,-0.4513,-0.8094,-0.4824,-2.6984,-0.0706,1.1333,1.7606,3.1187,1.2426,0.2326,-0.4657,-4.5225,1.4994,0.7979,0.6342
-1.258,-0.5841,-0.95,-0.2796,-2.6616,-0.0677,1.2342,1.7014,3.2679,1.1898,0.1546,-0.4613,-4.7374,1.5753,1.0412,0.5483
-1.258,-0.5841,-0.95,-0.2796,-2.6616,-0.0677,1.2342,1.7014,3.2679,1.1898,0.1546,-0.4613,-4.7374,1.5753,1.0412,0.5483
-1.1618,-0.5951,-0.9416,-0.2518,-2.5362,-0.0802,1.4735,1.6169,3.068,1.3968,0.1348,-0.4543,-4.6839,1.5564,1.1813,0.4988
-1.183,-0.5646,-0.9274,-0.2722,-2.291,-0.1509,1.6127,1.5913,2.8137,1.521,0.1783,-0.4523,-4.6302,1.5375,1.2137,0.5287
-1.183,-0.5646,-0.9274,-0.2722,-2.291,-0.1509,1.6127,1.5913,2.8137,1.521,0.1783,-0.4523,-4.6302,1.5375,1.2137,0.5287
-1.183,-0.5646,-0.9274,-0.2722,-2.291,-0.1509,1.6127,1.5913,2.8137,1.521,0.1783,-0.4523,-4.6302,1.5375,1.2137,0.5287
-1.1287,-0.5144,-0.8309,-0.2909,-2.0724,-0.1803,1.7908,1.5993,2.5411,1.5146,0.2618,-0.4643,-4.7074,1.5321,1.1403,0.5961
-1.1287,-0.5144,-0.8309,-0.2909,-2.0724,-0.1803,1.7908,1.5993,2.5411,1.5146,0.2618,-0.4643,-4.7074,1.5321,1.1403,0.5961
-1.1287,-0.5144,-0.8309,-0.2909,-2.0724,-0.1803,1.7908,1.5993,2.5411,1.5146,0.2618,-0.4643,-4.7074,1.5321,1.1403,0.5961
-0.9384,-0.4652,-0.5992,-0.3419,-1.9847,-0.0177,2.0481,1.6754,2.1918,1.4687,0.5834,-0.4904,-4.7825,1.6404,1.054,0.7206
-0.9384,-0.4652,-0.5992,-0.3419,-1.9847,-0.0177,2.0481,1.6754,2.1918,1.4687,0.5834,-0.4904,-4.7825,1.6404,1.054,0.7206
-0.9384,-0.4652,-0.5992,-0.3419,-1.9847,-0.0177,2.0481,1.6754,2.1918,1.4687,0.5834,-0.4904,-4.7825,1.6404,1.054,0.7206
-0.6199,-0.5309,-0.4778,-0.3538,-1.9827,0.0959,2.2092,1.7149,2.3759,1.4374,0.6922,-0.4701,-4.6819,1.6706,1.147,0.7402
-0.6199,-0.5309,-0.4778,-0.3538,-1.9827,0.0959,2.2092,1.7149,2.3759,1.4374,0.6922,-0.4701,-4.6819,1.6706,1.147,0.7402
-0.6199,-0.5309,-0.4778,-0.3538,-1.9827,0.0959,2.2092,1.7149,2.3759,1.4374,0.6922,-0.4701,-4.6819,1.6706,1.147,0.7402
-0.1107,-0.6637,-0.3463,-0.338,-1.9592,0.1204,2.7985,1.6039,2.8966,1.321,0.746,-0.3471,-4.4327,1.6653,1.452,0.7275
-0.1107,-0.6637,-0.3463,-0.338,-1.9592,0.1204,2.7985,1.6039,2.8966,1.321,0.746,-0.3471,-4.4327,1.6653,1.452,0.7275
-0.1107,-0.6637,-0.3463,-0.338,-1.9592,0.1204,2.7985,1.6039,2.8966,1.321,0.746,-0.3471,-4.4327,1.6653,1.452,0.7275
-0.1354,-0.5603,-0.2611,-0.3369,-1.9592,0.1204,3.3855,1.4209,3.0445,1.2688,0.7186,-0.3076,-4.3934,1.668,1.5405,0.7174
-0.1354,-0.5603,-0.2611,-0.3369,-1.9592,0.1204,3.3855,1.4209,3.0445,1.2688,0.7186,-0.3076,-4.3934,1.668,1.5405,0.7174
-0.1827,-0.4243,-0.2518,-0.3089,-1.9054,0.1014,3.7852,1.3287,3.0994,1.3515,0.7488,-0.3064,-4.1491,1.6149,1.5933,0.72
-0.1827,-0.4243,-0.2518,-0.3089,-1.9054,0.1014,3.7852,1.3287,3.0994,1.3515,0.7488,-0.3064,-4.1491,1.6149,1.5933,0.72
-0.1827,-0.4243,-0.2518,-0.3089,-1.9054,0.1014,3.7852,1.3287,3.0994,1.3515,0.7488,-0.3064,-4.1491,1.6149,1.5933,0.72
-0.5497,-0.3663,-0.2181,-0.3989,-1.9847,-0.0177,3.1197,1.613,3.198,1.4541,0.7392,-0.3149,-3.7897,1.5213,1.6267,0.7508
-0.5497,-0.3663,-0.2181,-0.3989,-1.9847,-0.0177,3.1197,1.613,3.198,1.4541,0.7392,-0.3149,-3.7897,1.5213,1.6267,0.7508
-0.5497,-0.3663,-0.2181,-0.3989,-1.9847,-0.0177,3.1197,1.613,3.198,1.4541,0.7392,-0.3149,-3.7897,1.5213,1.6267,0.7508
-0.6065,-0.4176,-0.1657,-0.433,-2.0465,-0.0445,2.7947,1.7032,3.4565,1.3283,0.7611,-0.3465,-3.9073,1.6299,1.5904,0.7636
-0.6065,-0.4176,-0.1657,-0.433,-2.0465,-0.0445,2.7947,1.7032,3.4565,1.3283,0.7611,-0.3465,-3.9073,1.6299,1.5904,0.7636
-0.5848,-0.449,-0.1562,-0.4052,-2.0465,-0.0445,2.6227,1.764,3.7623,1.2202,0.7569,-0.3629,-3.9787,1.6719,1.6267,0.7508
-0.6457,-0.4274,-0.1754,-0.3359,-2.0082,-0.0419,2.5371,1.7942,3.7759,1.2846,0.7569,-0.3629,-4.1459,1.731,1.7724,0.6993
-0.6457,-0.4274,-0.1754,-0.3359,-2.0082,-0.0419,2.5371,1.7942,3.7759,1.2846,0.7569,-0.3629,-4.1459,1.731,1.7724,0.6993
-0.6457,-0.4274,-0.1754,-0.3359,-2.0082,-0.0419,2.5371,1.7942,3.7759,1.2846,0.7569,-0.3629,-4.1459,1.731,1.7724,0.6993
-0.6283,-0.3862,-0.1804,-0.287,-1.824,-0.0745,2.6859,1.7662,3.68,1.4228,0.7569,-0.3629,-4.1859,1.7283,1.8358,0.6876
-0.6283,-0.3862,-0.1804,-0.287,-1.824,-0.0745,2.6859,1.7662,3.68,1.4228,0.7569,-0.3629,-4.1859,1.7283,1.8358,0.6876
-0.6283,-0.3862,-0.1804,-0.287,-1.824,-0.0745,2.6859,1.7662,3.68,1.4228,0.7569,-0.3629,-4.1859,1.7283,1.8358,0.6876
-0.6065,-0.4176,-0.1421,-0.3006,-1.6381,-0.1076,2.7721,1.7358,3.198,1.4541,0.7746,-0.4107,-4.2991,1.6513,1.6434,0.7662
-0.3396,-0.5356,-0.1182,-0.2933,-1.6831,-0.0427,2.7494,1.7685,3.0048,1.4879,0.7746,-0.4107,-4.3934,1.668,1.5444,0.7906
-0.3396,-0.5356,-0.1182,-0.2933,-1.6831,-0.0427,2.7494,1.7685,3.0048,1.4879,0.7746,-0.4107,-4.3934,1.668,1.5444,0.7906
-0.3396,-0.5356,-0.1182,-0.2933,-1.6831,-0.0427,2.7494,1.7685,3.0048,1.4879,0.7746,-0.4107,-4.3934,1.668,1.5444,0.7906
