-5.3838,15.056,1.1003,-8.528,29.827,-3.9541,-20.391,20.696,13.544,6.0739,11.058,-9.5266,-4.5432,2.141,5.6968,4.3763
-5.2572,15.106,1.0992,-8.4765,29.735,-3.9898,-20.352,20.813,13.433,6.1363,10.986,-9.5022,-4.5144,2.1408,5.7043,4.501
-5.2572,15.106,1.0992,-8.4765,29.735,-3.9898,-20.352,20.813,13.433,6.1363,10.986,-9.5022,-4.5144,2.1408,5.7043,4.501
-5.1308,15.156,1.0988,-8.4251,29.642,-4.0247,-20.313,20.93,13.319,6.1981,10.913,-9.4779,-4.4847,2.141,5.7117,4.6253
-5.0047,15.206,1.099,-8.3736,29.549,-4.0588,-20.273,21.046,13.203,6.2591,10.84,-9.4538,-4.4542,2.1415,5.7191,4.7491
-5.0047,15.206,1.099,-8.3736,29.549,-4.0588,-20.273,21.046,13.203,6.2591,10.84,-9.4538,-4.4542,2.1415,5.7191,4.7491
-5.0047,15.206,1.099,-8.3736,29.549,-4.0588,-20.273,21.046,13.203,6.2591,10.84,-9.4538,-4.4542,2.1415,5.7191,4.7491
-4.8788,15.256,1.0998,-8.3221,29.456,-4.0921,-20.233,21.162,13.084,6.3194,10.766,-9.4298,-4.4228,2.1424,5.7263,4.8726
-4.8788,15.256,1.0998,-8.3221,29.456,-4.0921,-20.233,21.162,13.084,6.3194,10.766,-9.4298,-4.4228,2.1424,5.7263,4.8726
-4.8788,15.256,1.0998,-8.3221,29.456,-4.0921,-20.233,21.162,13.084,6.3194,10.766,-9.4298,-4.4228,2.1424,5.7263,4.8726
-4.6277,15.354,1.1034,-8.2191,29.269,-4.1566,-20.152,21.392,12.84,6.4378,10.616,-9.3823,-4.3576,2.1453,5.7406,5.1182
-4.6277,15.354,1.1034,-8.2191,29.269,-4.1566,-20.152,21.392,12.84,6.4378,10.616,-9.3823,-4.3576,2.1453,5.7406,5.1182
-4.6277,15.354,1.1034,-8.2191,29.269,-4.1566,-20.152,21.392,12.84,6.4378,10.616,-9.3823,-4.3576,2.1453,5.7406,5.1182
-4.5026,15.403,1.1062,-8.1676,29.175,-4.1877,-20.111,21.506,12.714,6.4959,10.54,-9.3588,-4.3237,2.1473,5.7475,5.2404
-4.5026,15.403,1.1062,-8.1676,29.175,-4.1877,-20.111,21.506,12.714,6.4959,10.54,-9.3588,-4.3237,2.1473,5.7475,5.2404
-4.3778,15.451,1.1096,-8.1161,29.081,-4.2181,-20.07,21.62,12.586,6.5533,10.463,-9.3354,-4.289,2.1496,5.7544,5.3622
-4.2532,15.499,1.1136,-8.0645,28.987,-4.2477,-20.028,21.733,12.455,6.61,10.385,-9.3121,-4.2535,2.1523,5.7612,5.4836
-4.2532,15.499,1.1136,-8.0645,28.987,-4.2477,-20.028,21.733,12.455,6.61,10.385,-9.3121,-4.2535,2.1523,5.7612,5.4836
-4.2532,15.499,1.1136,-8.0645,28.987,-4.2477,-20.028,21.733,12.455,6.61,10.385,-9.3121,-4.2535,2.1523,5.7612,5.4836
-4.1289,15.547,1.1183,-8.013,28.893,-4.2766,-19.986,21.845,12.322,6.666,10.307,-9.289,-4.2172,2.1553,5.7678,5.6045
-4.1289,15.547,1.1183,-8.013,28.893,-4.2766,-19.986,21.845,12.322,6.666,10.307,-9.289,-4.2172,2.1553,5.7678,5.6045
-4.0049,15.595,1.1236,-7.9615,28.799,-4.3047,-19.944,21.957,12.187,6.7212,10.228,-9.266,-4.18,2.1587,5.7744,5.7251
-4.0049,15.595,1.1236,-7.9615,28.799,-4.3047,-19.944,21.957,12.187,6.7212,10.228,-9.266,-4.18,2.1587,5.7744,5.7251
-3.8812,15.642,1.1295,-7.91,28.704,-4.3322,-19.901,22.068,12.049,6.7758,10.149,-9.2431,-4.1421,2.1624,5.7808,5.8452
-3.8812,15.642,1.1295,-7.91,28.704,-4.3322,-19.901,22.068,12.049,6.7758,10.149,-9.2431,-4.1421,2.1624,5.7808,5.8452
-3.7578,15.689,1.1361,-7.8585,28.61,-4.359,-19.858,22.179,11.909,6.8296,10.069,-9.2204,-4.1034,2.1665,5.7872,5.9649
-3.7578,15.689,1.1361,-7.8585,28.61,-4.359,-19.858,22.179,11.909,6.8296,10.069,-9.2204,-4.1034,2.1665,5.7872,5.9649
-3.6347,15.736,1.1432,-7.807,28.515,-4.385,-19.815,22.289,11.766,6.8828,9.9884,-9.1978,-4.0638,2.1709,5.7934,6.0843
-3.6347,15.736,1.1432,-7.807,28.515,-4.385,-19.815,22.289,11.766,6.8828,9.9884,-9.1978,-4.0638,2.1709,5.7934,6.0843
-3.5118,15.782,1.151,-7.7554,28.421,-4.4104,-19.772,22.399,11.622,6.9352,9.9071,-9.1753,-4.0235,2.1757,5.7996,6.2031
-3.5118,15.782,1.151,-7.7554,28.421,-4.4104,-19.772,22.399,11.622,6.9352,9.9071,-9.1753,-4.0235,2.1757,5.7996,6.2031
-3.3893,15.828,1.1594,-7.7039,28.326,-4.4351,-19.728,22.508,11.475,6.987,9.8252,-9.153,-3.9824,2.1808,5.8056,6.3216
-3.3893,15.828,1.1594,-7.7039,28.326,-4.4351,-19.728,22.508,11.475,6.987,9.8252,-9.153,-3.9824,2.1808,5.8056,6.3216
-3.2671,15.874,1.1683,-7.6524,28.231,-4.4591,-19.684,22.617,11.325,7.0381,9.7427,-9.1308,-3.9406,2.1863,5.8115,6.4397
-3.2671,15.874,1.1683,-7.6524,28.231,-4.4591,-19.684,22.617,11.325,7.0381,9.7427,-9.1308,-3.9406,2.1863,5.8115,6.4397
-3.1453,15.919,1.1779,-7.6009,28.136,-4.4824,-19.64,22.724,11.174,7.0885,9.6596,-9.1086,-3.8979,2.1921,5.8173,6.5573
-3.1453,15.919,1.1779,-7.6009,28.136,-4.4824,-19.64,22.724,11.174,7.0885,9.6596,-9.1086,-3.8979,2.1921,5.8173,6.5573
-3.0237,15.964,1.1881,-7.5494,28.041,-4.505,-19.595,22.832,11.02,7.1382,9.5759,-9.0866,-3.8545,2.1982,5.823,6.6746
-3.0237,15.964,1.1881,-7.5494,28.041,-4.505,-19.595,22.832,11.02,7.1382,9.5759,-9.0866,-3.8545,2.1982,5.823,6.6746
-2.9025,16.009,1.1988,-7.498,27.946,-4.527,-19.55,22.939,10.864,7.1872,9.4916,-9.0648,-3.8104,2.2047,5.8286,6.7914
-2.7816,16.053,1.2102,-7.4465,27.851,-4.5484,-19.505,23.045,10.705,7.2355,9.4067,-9.043,-3.7655,2.2115,5.8341,6.9078
-2.7816,16.053,1.2102,-7.4465,27.851,-4.5484,-19.505,23.045,10.705,7.2355,9.4067,-9.043,-3.7655,2.2115,5.8341,6.9078
-2.7816,16.053,1.2102,-7.4465,27.851,-4.5484,-19.505,23.045,10.705,7.2355,9.4067,-9.043,-3.7655,2.2115,5.8341,6.9078
-2.6611,16.097,1.2221,-7.395,27.756,-4.5691,-19.46,23.15,10.545,7.2832,9.3212,-9.0213,-3.7198,2.2187,5.8395,7.0237
-2.6611,16.097,1.2221,-7.395,27.756,-4.5691,-19.46,23.15,10.545,7.2832,9.3212,-9.0213,-3.7198,2.2187,5.8395,7.0237
-2.5408,16.141,1.2346,-7.3436,27.661,-4.5892,-19.414,23.255,10.382,7.3302,9.2351,-8.9998,-3.6735,2.2262,5.8447,7.1393
-2.5408,16.141,1.2346,-7.3436,27.661,-4.5892,-19.414,23.255,10.382,7.3302,9.2351,-8.9998,-3.6735,2.2262,5.8447,7.1393
-2.421,16.184,1.2477,-7.2921,27.566,-4.6086,-19.368,23.36,10.217,7.3765,9.1485,-8.9783,-3.6263,2.234,5.8499,7.2545
-2.421,16.184,1.2477,-7.2921,27.566,-4.6086,-19.368,23.36,10.217,7.3765,9.1485,-8.9783,-3.6263,2.234,5.8499,7.2545
-2.421,16.184,1.2477,-7.2921,27.566,-4.6086,-19.368,23.36,10.217,7.3765,9.1485,-8.9783,-3.6263,2.234,5.8499,7.2545
-2.3015,16.227,1.2614,-7.2407,27.471,-4.6274,-19.322,23.464,10.05,7.4222,9.0613,-8.957,-3.5785,2.2422,5.8549,7.3692
-2.3015,16.227,1.2614,-7.2407,27.471,-4.6274,-19.322,23.464,10.05,7.4222,9.0613,-8.957,-3.5785,2.2422,5.8549,7.3692
-2.3015,16.227,1.2614,-7.2407,27.471,-4.6274,-19.322,23.464,10.05,7.4222,9.0613,-8.957,-3.5785,2.2422,5.8549,7.3692
-2.0635,16.312,1.2905,-7.1378,27.281,-4.6632,-19.228,23.669,9.7089,7.5116,8.8852,-8.9146,-3.4807,2.2595,5.8646,7.5974
-2.0635,16.312,1.2905,-7.1378,27.281,-4.6632,-19.228,23.669,9.7089,7.5116,8.8852,-8.9146,-3.4807,2.2595,5.8646,7.5974
-1.9451,16.354,1.3058,-7.0865,27.186,-4.6802,-19.181,23.771,9.5352,7.5553,8.7963,-8.8935,-3.4307,2.2687,5.8692,7.7109
-1.9451,16.354,1.3058,-7.0865,27.186,-4.6802,-19.181,23.771,9.5352,7.5553,8.7963,-8.8935,-3.4307,2.2687,5.8692,7.7109
-1.8271,16.396,1.3217,-7.0351,27.092,-4.6965,-19.134,23.873,9.3594,7.5984,8.7068,-8.8726,-3.3801,2.2782,5.8738,7.824
-1.8271,16.396,1.3217,-7.0351,27.092,-4.6965,-19.134,23.873,9.3594,7.5984,8.7068,-8.8726,-3.3801,2.2782,5.8738,7.824
-1.7094,16.437,1.3382,-6.9837,26.997,-4.7123,-19.086,23.973,9.1814,7.6408,8.6169,-8.8517,-3.3288,2.288,5.8782,7.9366
-1.7094,16.437,1.3382,-6.9837,26.997,-4.7123,-19.086,23.973,9.1814,7.6408,8.6169,-8.8517,-3.3288,2.288,5.8782,7.9366
-1.5921,16.478,1.3552,-6.9324,26.902,-4.7275,-19.038,24.074,9.0014,7.6827,8.5263,-8.8309,-3.2767,2.2981,5.8825,8.0489
-1.5921,16.478,1.3552,-6.9324,26.902,-4.7275,-19.038,24.074,9.0014,7.6827,8.5263,-8.8309,-3.2767,2.2981,5.8825,8.0489
-1.4752,16.518,1.3728,-6.881,26.807,-4.7422,-18.99,24.173,8.8193,7.7238,8.4353,-8.8102,-3.224,2.3086,5.8866,8.1607
-1.3586,16.558,1.3909,-6.8297,26.713,-4.7563,-18.942,24.272,8.6351,7.7644,8.3438,-8.7895,-3.1707,2.3194,5.8907,8.2721
-1.3586,16.558,1.3909,-6.8297,26.713,-4.7563,-18.942,24.272,8.6351,7.7644,8.3438,-8.7895,-3.1707,2.3194,5.8907,8.2721
-1.2425,16.598,1.4096,-6.7785,26.618,-4.7698,-18.893,24.37,8.4489,7.8043,8.2517,-8.769,-3.1167,2.3305,5.8946,8.3831
-1.2425,16.598,1.4096,-6.7785,26.618,-4.7698,-18.893,24.37,8.4489,7.8043,8.2517,-8.769,-3.1167,2.3305,5.8946,8.3831
-1.1268,16.637,1.4288,-6.7272,26.524,-4.7827,-18.844,24.468,8.2607,7.8436,8.1591,-8.7485,-3.062,2.3419,5.8984,8.4937
-1.1268,16.637,1.4288,-6.7272,26.524,-4.7827,-18.844,24.468,8.2607,7.8436,8.1591,-8.7485,-3.062,2.3419,5.8984,8.4937
-1.1268,16.637,1.4288,-6.7272,26.524,-4.7827,-18.844,24.468,8.2607,7.8436,8.1591,-8.7485,-3.062,2.3419,5.8984,8.4937
-1.0114,16.676,1.4485,-6.676,26.429,-4.7951,-18.795,24.565,8.0704,7.8823,8.066,-8.7281,-3.0067,2.3536,5.9021,8.6038
-1.0114,16.676,1.4485,-6.676,26.429,-4.7951,-18.795,24.565,8.0704,7.8823,8.066,-8.7281,-3.0067,2.3536,5.9021,8.6038
-0.89652,16.715,1.4687,-6.6247,26.335,-4.807,-18.746,24.662,7.8782,7.9204,7.9725,-8.7077,-2.9507,2.3656,5.9056,8.7136
-0.89652,16.715,1.4687,-6.6247,26.335,-4.807,-18.746,24.662,7.8782,7.9204,7.9725,-8.7077,-2.9507,2.3656,5.9056,8.7136
-0.78201,16.753,1.4895,-6.5736,26.241,-4.8183,-18.696,24.758,7.6839,7.9579,7.8784,-8.6875,-2.8942,2.378,5.909,8.8229
-0.78201,16.753,1.4895,-6.5736,26.241,-4.8183,-18.696,24.758,7.6839,7.9579,7.8784,-8.6875,-2.8942,2.378,5.909,8.8229
-0.66791,16.791,1.5108,-6.5224,26.147,-4.8291,-18.646,24.853,7.4877,7.9948,7.7839,-8.6673,-2.837,2.3907,5.9123,8.9319
-0.66791,16.791,1.5108,-6.5224,26.147,-4.8291,-18.646,24.853,7.4877,7.9948,7.7839,-8.6673,-2.837,2.3907,5.9123,8.9319
-0.66791,16.791,1.5108,-6.5224,26.147,-4.8291,-18.646,24.853,7.4877,7.9948,7.7839,-8.6673,-2.837,2.3907,5.9123,8.9319
-0.55423,16.828,1.5326,-6.4713,26.053,-4.8394,-18.596,24.947,7.2896,8.0311,7.6889,-8.6471,-2.7792,2.4036,5.9155,9.0404
-0.55423,16.828,1.5326,-6.4713,26.053,-4.8394,-18.596,24.947,7.2896,8.0311,7.6889,-8.6471,-2.7792,2.4036,5.9155,9.0404
-0.32816,16.902,1.5777,-6.3691,25.866,-4.8585,-18.496,25.134,6.8875,8.1019,7.4974,-8.607,-2.6618,2.4305,5.9214,9.2562
-0.32816,16.902,1.5777,-6.3691,25.866,-4.8585,-18.496,25.134,6.8875,8.1019,7.4974,-8.607,-2.6618,2.4305,5.9214,9.2562
-0.32816,16.902,1.5777,-6.3691,25.866,-4.8585,-18.496,25.134,6.8875,8.1019,7.4974,-8.607,-2.6618,2.4305,5.9214,9.2562
-0.21576,16.939,1.601,-6.318,25.773,-4.8672,-18.445,25.227,6.6837,8.1364,7.401,-8.587,-2.6022,2.4444,5.9241,9.3634
-0.21576,16.939,1.601,-6.318,25.773,-4.8672,-18.445,25.227,6.6837,8.1364,7.401,-8.587,-2.6022,2.4444,5.9241,9.3634
-0.10381,16.975,1.6248,-6.267,25.679,-4.8755,-18.394,25.319,6.478,8.1704,7.3042,-8.5671,-2.542,2.4585,5.9267,9.4703
-0.10381,16.975,1.6248,-6.267,25.679,-4.8755,-18.394,25.319,6.478,8.1704,7.3042,-8.5671,-2.542,2.4585,5.9267,9.4703
0.0076992,17.01,1.6491,-6.216,25.586,-4.8833,-18.343,25.411,6.2704,8.2038,7.2069,-8.5472,-2.4813,2.473,5.9292,9.5768
0.0076992,17.01,1.6491,-6.216,25.586,-4.8833,-18.343,25.411,6.2704,8.2038,7.2069,-8.5472,-2.4813,2.473,5.9292,9.5768
0.11876,17.045,1.6738,-6.165,25.493,-4.8906,-18.291,25.501,6.061,8.2366,7.1092,-8.5273,-2.42,2.4878,5.9316,9.6828
0.11876,17.045,1.6738,-6.165,25.493,-4.8906,-18.291,25.501,6.061,8.2366,7.1092,-8.5273,-2.42,2.4878,5.9316,9.6828
0.11876,17.045,1.6738,-6.165,25.493,-4.8906,-18.291,25.501,6.061,8.2366,7.1092,-8.5273,-2.42,2.4878,5.9316,9.6828
0.22938,17.08,1.6991,-6.1141,25.401,-4.8975,-18.24,25.591,5.8498,8.2689,7.0111,-8.5075,-2.3582,2.5028,5.9338,9.7884
0.22938,17.08,1.6991,-6.1141,25.401,-4.8975,-18.24,25.591,5.8498,8.2689,7.0111,-8.5075,-2.3582,2.5028,5.9338,9.7884
0.22938,17.08,1.6991,-6.1141,25.401,-4.8975,-18.24,25.591,5.8498,8.2689,7.0111,-8.5075,-2.3582,2.5028,5.9338,9.7884
0.44924,17.148,1.7511,-6.0124,25.216,-4.9098,-18.136,25.769,5.422,8.3318,6.8136,-8.468,-2.2329,2.5338,5.9378,9.9985
0.44924,17.148,1.7511,-6.0124,25.216,-4.9098,-18.136,25.769,5.422,8.3318,6.8136,-8.468,-2.2329,2.5338,5.9378,9.9985
0.55848,17.182,1.7778,-5.9615,25.124,-4.9153,-18.083,25.858,5.2054,8.3624,6.7142,-8.4483,-2.1694,2.5498,5.9396,10.103
0.55848,17.182,1.7778,-5.9615,25.124,-4.9153,-18.083,25.858,5.2054,8.3624,6.7142,-8.4483,-2.1694,2.5498,5.9396,10.103
0.55848,17.182,1.7778,-5.9615,25.124,-4.9153,-18.083,25.858,5.2054,8.3624,6.7142,-8.4483,-2.1694,2.5498,5.9396,10.103
0.55848,17.182,1.7778,-5.9615,25.124,-4.9153,-18.083,25.858,5.2054,8.3624,6.7142,-8.4483,-2.1694,2.5498,5.9396,10.103
0.77555,17.248,1.8325,-5.86,24.94,-4.925,-17.978,26.032,4.7672,8.422,6.5143,-8.409,-2.041,2.5825,5.9428,10.31
0.77555,17.248,1.8325,-5.86,24.94,-4.925,-17.978,26.032,4.7672,8.422,6.5143,-8.409,-2.041,2.5825,5.9428,10.31
0.88337,17.28,1.8606,-5.8093,24.849,-4.9291,-17.925,26.118,4.5456,8.451,6.4137,-8.3893,-1.976,2.5993,5.9442,10.414
0.88337,17.28,1.8606,-5.8093,24.849,-4.9291,-17.925,26.118,4.5456,8.451,6.4137,-8.3893,-1.976,2.5993,5.9442,10.414
0.99072,17.312,1.8891,-5.7586,24.758,-4.9329,-17.872,26.203,4.3222,8.4795,6.3128,-8.3697,-1.9105,2.6163,5.9454,10.516
0.99072,17.312,1.8891,-5.7586,24.758,-4.9329,-17.872,26.203,4.3222,8.4795,6.3128,-8.3697,-1.9105,2.6163,5.9454,10.516
1.0976,17.343,1.9181,-5.708,24.667,-4.9362,-17.819,26.288,4.0973,8.5075,6.2116,-8.3501,-1.8446,2.6337,5.9465,10.619
1.0976,17.343,1.9181,-5.708,24.667,-4.9362,-17.819,26.288,4.0973,8.5075,6.2116,-8.3501,-1.8446,2.6337,5.9465,10.619
1.204,17.374,1.9475,-5.6574,24.576,-4.9392,-17.765,26.372,3.8707,8.535,6.1099,-8.3305,-1.7782,2.6513,5.9475,10.721
1.204,17.374,1.9475,-5.6574,24.576,-4.9392,-17.765,26.372,3.8707,8.535,6.1099,-8.3305,-1.7782,2.6513,5.9475,10.721
1.3098,17.405,1.9774,-5.6069,24.486,-4.9417,-17.712,26.456,3.6425,8.5619,6.0079,-8.311,-1.7113,2.6691,5.9483,10.822
1.4152,17.435,2.0076,-5.5564,24.395,-4.9438,-17.658,26.539,3.4127,8.5884,5.9056,-8.2914,-1.6439,2.6873,5.9489,10.924
1.4152,17.435,2.0076,-5.5564,24.395,-4.9438,-17.658,26.539,3.4127,8.5884,5.9056,-8.2914,-1.6439,2.6873,5.9489,10.924
1.4152,17.435,2.0076,-5.5564,24.395,-4.9438,-17.658,26.539,3.4127,8.5884,5.9056,-8.2914,-1.6439,2.6873,5.9489,10.924
1.5201,17.465,2.0384,-5.5059,24.306,-4.9456,-17.604,26.621,3.1813,8.6143,5.8029,-8.2718,-1.5761,2.7057,5.9495,11.024
1.5201,17.465,2.0384,-5.5059,24.306,-4.9456,-17.604,26.621,3.1813,8.6143,5.8029,-8.2718,-1.5761,2.7057,5.9495,11.024
1.6245,17.494,2.0695,-5.4555,24.216,-4.947,-17.55,26.702,2.9485,8.6398,5.7,-8.2523,-1.5079,2.7244,5.9498,11.125
1.6245,17.494,2.0695,-5.4555,24.216,-4.947,-17.55,26.702,2.9485,8.6398,5.7,-8.2523,-1.5079,2.7244,5.9498,11.125
1.6245,17.494,2.0695,-5.4555,24.216,-4.947,-17.55,26.702,2.9485,8.6398,5.7,-8.2523,-1.5079,2.7244,5.9498,11.125
1.7284,17.523,2.1011,-5.4052,24.127,-4.948,-17.495,26.783,2.7141,8.6647,5.5966,-8.2327,-1.4393,2.7433,5.9501,11.225
1.8318,17.552,2.1331,-5.3549,24.037,-4.9486,-17.441,26.863,2.4782,8.6892,5.493,-8.2131,-1.3702,2.7625,5.9502,11.324
1.8318,17.552,2.1331,-5.3549,24.037,-4.9486,-17.441,26.863,2.4782,8.6892,5.493,-8.2131,-1.3702,2.7625,5.9502,11.324
1.9346,17.58,2.1655,-5.3046,23.949,-4.9489,-17.386,26.943,2.2408,8.7132,5.3891,-8.1935,-1.3007,2.7819,5.9501,11.423
1.9346,17.58,2.1655,-5.3046,23.949,-4.9489,-17.386,26.943,2.2408,8.7132,5.3891,-8.1935,-1.3007,2.7819,5.9501,11.423
2.0369,17.608,2.1983,-5.2544,23.86,-4.9488,-17.331,27.021,2.002,8.7368,5.2849,-8.1739,-1.2308,2.8016,5.9499,11.522
2.1388,17.635,2.2315,-5.2042,23.772,-4.9484,-17.276,27.1,1.7618,8.7599,5.1803,-8.1543,-1.1605,2.8216,5.9495,11.62
2.1388,17.635,2.2315,-5.2042,23.772,-4.9484,-17.276,27.1,1.7618,8.7599,5.1803,-8.1543,-1.1605,2.8216,5.9495,11.62
2.1388,17.635,2.2315,-5.2042,23.772,-4.9484,-17.276,27.1,1.7618,8.7599,5.1803,-8.1543,-1.1605,2.8216,5.9495,11.62
2.24,17.662,2.2651,-5.1541,23.684,-4.9476,-17.221,27.177,1.5201,8.7825,5.0755,-8.1347,-1.0899,2.8418,5.949,11.718
2.24,17.662,2.2651,-5.1541,23.684,-4.9476,-17.221,27.177,1.5201,8.7825,5.0755,-8.1347,-1.0899,2.8418,5.949,11.718
2.3408,17.688,2.2991,-5.1041,23.597,-4.9465,-17.166,27.254,1.2771,8.8046,4.9705,-8.115,-1.0189,2.8622,5.9484,11.816
2.3408,17.688,2.2991,-5.1041,23.597,-4.9465,-17.166,27.254,1.2771,8.8046,4.9705,-8.115,-1.0189,2.8622,5.9484,11.816
2.441,17.714,2.3335,-5.0541,23.509,-4.945,-17.11,27.33,1.0328,8.8264,4.8651,-8.0953,-0.94746,2.8829,5.9476,11.913
2.5407,17.74,2.3683,-5.0041,23.422,-4.9433,-17.054,27.405,0.78707,8.8476,4.7595,-8.0756,-0.87572,2.9038,5.9466,12.01
2.5407,17.74,2.3683,-5.0041,23.422,-4.9433,-17.054,27.405,0.78707,8.8476,4.7595,-8.0756,-0.87572,2.9038,5.9466,12.01
2.5407,17.74,2.3683,-5.0041,23.422,-4.9433,-17.054,27.405,0.78707,8.8476,4.7595,-8.0756,-0.87572,2.9038,5.9466,12.01
2.6399,17.765,2.4034,-4.9542,23.336,-4.9412,-16.999,27.48,0.54006,8.8684,4.6537,-8.0559,-0.80363,2.925,5.9455,12.106
2.6399,17.765,2.4034,-4.9542,23.336,-4.9412,-16.999,27.48,0.54006,8.8684,4.6537,-8.0559,-0.80363,2.925,5.9455,12.106
2.7385,17.79,2.439,-4.9044,23.25,-4.9388,-16.943,27.554,0.29177,8.8888,4.5476,-8.0361,-0.73121,2.9464,5.9442,12.202
2.7385,17.79,2.439,-4.9044,23.25,-4.9388,-16.943,27.554,0.29177,8.8888,4.5476,-8.0361,-0.73121,2.9464,5.9442,12.202
2.7385,17.79,2.439,-4.9044,23.25,-4.9388,-16.943,27.554,0.29177,8.8888,4.5476,-8.0361,-0.73121,2.9464,5.9442,12.202
2.8365,17.814,2.4749,-4.8546,23.164,-4.9362,-16.886,27.627,0.042216,8.9088,4.4413,-8.0163,-0.65846,2.968,5.9428,12.298
2.8365,17.814,2.4749,-4.8546,23.164,-4.9362,-16.886,27.627,0.042216,8.9088,4.4413,-8.0163,-0.65846,2.968,5.9428,12.298
3.031,17.861,2.5478,-4.7553,22.993,-4.9299,-16.774,27.771,-0.46057,8.9475,4.228,-7.9765,-0.51203,3.012,5.9395,12.488
3.031,17.861,2.5478,-4.7553,22.993,-4.9299,-16.774,27.771,-0.46057,8.9475,4.228,-7.9765,-0.51203,3.012,5.9395,12.488
3.1274,17.884,2.5848,-4.7057,22.908,-4.9264,-16.717,27.842,-0.71376,8.9662,4.121,-7.9566,-0.43837,3.0343,5.9377,12.582
3.1274,17.884,2.5848,-4.7057,22.908,-4.9264,-16.717,27.842,-0.71376,8.9662,4.121,-7.9566,-0.43837,3.0343,5.9377,12.582
3.1274,17.884,2.5848,-4.7057,22.908,-4.9264,-16.717,27.842,-0.71376,8.9662,4.121,-7.9566,-0.43837,3.0343,5.9377,12.582
3.2232,17.906,2.6222,-4.6562,22.823,-4.9225,-16.661,27.913,-0.96811,8.9845,4.0138,-7.9366,-0.36441,3.0569,5.9357,12.676
3.2232,17.906,2.6222,-4.6562,22.823,-4.9225,-16.661,27.913,-0.96811,8.9845,4.0138,-7.9366,-0.36441,3.0569,5.9357,12.676
3.3185,17.928,2.6599,-4.6067,22.739,-4.9184,-16.604,27.983,-1.2236,9.0024,3.9065,-7.9165,-0.29019,3.0796,5.9335,12.77
3.4132,17.95,2.698,-4.5573,22.656,-4.9141,-16.547,28.052,-1.4802,9.0199,3.7989,-7.8964,-0.21569,3.1026,5.9312,12.863
3.4132,17.95,2.698,-4.5573,22.656,-4.9141,-16.547,28.052,-1.4802,9.0199,3.7989,-7.8964,-0.21569,3.1026,5.9312,12.863
3.5073,17.971,2.7364,-4.5079,22.572,-4.9095,-16.49,28.12,-1.7379,9.037,3.6912,-7.8763,-0.14094,3.1258,5.9287,12.956
3.5073,17.971,2.7364,-4.5079,22.572,-4.9095,-16.49,28.12,-1.7379,9.037,3.6912,-7.8763,-0.14094,3.1258,5.9287,12.956
3.6009,17.992,2.7751,-4.4587,22.489,-4.9046,-16.433,28.188,-1.9967,9.0537,3.5833,-7.856,-0.065933,3.1492,5.926,13.049
3.6009,17.992,2.7751,-4.4587,22.489,-4.9046,-16.433,28.188,-1.9967,9.0537,3.5833,-7.856,-0.065933,3.1492,5.926,13.049
3.6938,18.012,2.8142,-4.4095,22.406,-4.8995,-16.375,28.255,-2.2565,9.0701,3.4752,-7.8357,0.0093086,3.1728,5.9232,13.141
3.6938,18.012,2.8142,-4.4095,22.406,-4.8995,-16.375,28.255,-2.2565,9.0701,3.4752,-7.8357,0.0093086,3.1728,5.9232,13.141
3.6938,18.012,2.8142,-4.4095,22.406,-4.8995,-16.375,28.255,-2.2565,9.0701,3.4752,-7.8357,0.0093086,3.1728,5.9232,13.141
3.7862,18.032,2.8536,-4.3603,22.324,-4.8941,-16.318,28.321,-2.5173,9.086,3.367,-7.8154,0.084779,3.1967,5.9203,13.233
3.7862,18.032,2.8536,-4.3603,22.324,-4.8941,-16.318,28.321,-2.5173,9.086,3.367,-7.8154,0.084779,3.1967,5.9203,13.233
3.7862,18.032,2.8536,-4.3603,22.324,-4.8941,-16.318,28.321,-2.5173,9.086,3.367,-7.8154,0.084779,3.1967,5.9203,13.233
3.878,18.051,2.8933,-4.3113,22.242,-4.8885,-16.261,28.386,-2.7791,9.1016,3.2587,-7.7949,0.16047,3.2207,5.9172,13.324
3.878,18.051,2.8933,-4.3113,22.242,-4.8885,-16.261,28.386,-2.7791,9.1016,3.2587,-7.7949,0.16047,3.2207,5.9172,13.324
3.9693,18.07,2.9333,-4.2623,22.161,-4.8827,-16.203,28.451,-3.0418,9.1168,3.1502,-7.7744,0.23637,3.2449,5.9139,13.415
4.0599,18.089,2.9737,-4.2133,22.08,-4.8766,-16.145,28.515,-3.3055,9.1317,3.0416,-7.7538,0.31247,3.2693,5.9105,13.505
4.0599,18.089,2.9737,-4.2133,22.08,-4.8766,-16.145,28.515,-3.3055,9.1317,3.0416,-7.7538,0.31247,3.2693,5.9105,13.505
4.1499,18.107,3.0144,-4.1645,21.999,-4.8704,-16.087,28.579,-3.5702,9.1462,2.9328,-7.7331,0.38876,3.294,5.9069,13.596
4.1499,18.107,3.0144,-4.1645,21.999,-4.8704,-16.087,28.579,-3.5702,9.1462,2.9328,-7.7331,0.38876,3.294,5.9069,13.596
4.2394,18.124,3.0553,-4.1157,21.919,-4.8639,-16.03,28.642,-3.8357,9.1604,2.824,-7.7124,0.46523,3.3188,5.9032,13.686
4.3282,18.142,3.0966,-4.067,21.839,-4.8572,-15.972,28.704,-4.102,9.1742,2.715,-7.6915,0.54188,3.3438,5.8993,13.775
4.3282,18.142,3.0966,-4.067,21.839,-4.8572,-15.972,28.704,-4.102,9.1742,2.715,-7.6915,0.54188,3.3438,5.8993,13.775
4.4165,18.158,3.1382,-4.0184,21.76,-4.8503,-15.913,28.765,-4.3692,9.1876,2.606,-7.6706,0.61869,3.369,5.8953,13.864
4.4165,18.158,3.1382,-4.0184,21.76,-4.8503,-15.913,28.765,-4.3692,9.1876,2.606,-7.6706,0.61869,3.369,5.8953,13.864
4.5041,18.174,3.18,-3.9698,21.681,-4.8433,-15.855,28.825,-4.6372,9.2008,2.4968,-7.6496,0.69565,3.3944,5.8911,13.953
4.5041,18.174,3.18,-3.9698,21.681,-4.8433,-15.855,28.825,-4.6372,9.2008,2.4968,-7.6496,0.69565,3.3944,5.8911,13.953
4.5911,18.19,3.2222,-3.9214,21.602,-4.836,-15.797,28.885,-4.906,9.2136,2.3876,-7.6284,0.77275,3.4199,5.8867,14.041
4.6775,18.205,3.2646,-3.873,21.524,-4.8286,-15.739,28.944,-5.1756,9.226,2.2783,-7.6072,0.84998,3.4457,5.8822,14.129
4.6775,18.205,3.2646,-3.873,21.524,-4.8286,-15.739,28.944,-5.1756,9.226,2.2783,-7.6072,0.84998,3.4457,5.8822,14.129
4.6775,18.205,3.2646,-3.873,21.524,-4.8286,-15.739,28.944,-5.1756,9.226,2.2783,-7.6072,0.84998,3.4457,5.8822,14.129
4.7633,18.22,3.3073,-3.8247,21.446,-4.8209,-15.68,29.003,-5.4459,9.2382,2.169,-7.5858,0.92734,3.4716,5.8775,14.217
4.7633,18.22,3.3073,-3.8247,21.446,-4.8209,-15.68,29.003,-5.4459,9.2382,2.169,-7.5858,0.92734,3.4716,5.8775,14.217
4.8485,18.235,3.3503,-3.7764,21.369,-4.8131,-15.622,29.06,-5.7169,9.25,2.0596,-7.5644,1.0048,3.4977,5.8727,14.304
4.8485,18.235,3.3503,-3.7764,21.369,-4.8131,-15.622,29.06,-5.7169,9.25,2.0596,-7.5644,1.0048,3.4977,5.8727,14.304
4.8485,18.235,3.3503,-3.7764,21.369,-4.8131,-15.622,29.06,-5.7169,9.25,2.0596,-7.5644,1.0048,3.4977,5.8727,14.304
4.9331,18.249,3.3936,-3.7283,21.292,-4.8052,-15.563,29.117,-5.9885,9.2615,1.9501,-7.5428,1.0824,3.5239,5.8677,14.391
4.9331,18.249,3.3936,-3.7283,21.292,-4.8052,-15.563,29.117,-5.9885,9.2615,1.9501,-7.5428,1.0824,3.5239,5.8677,14.391
5.017,18.262,3.4371,-3.6802,21.216,-4.7971,-15.505,29.174,-6.2609,9.2727,1.8406,-7.5212,1.1601,3.5504,5.8626,14.477
5.017,18.262,3.4371,-3.6802,21.216,-4.7971,-15.505,29.174,-6.2609,9.2727,1.8406,-7.5212,1.1601,3.5504,5.8626,14.477
5.1003,18.275,3.4809,-3.6322,21.14,-4.7888,-15.446,29.229,-6.5338,9.2836,1.7311,-7.4994,1.2378,3.577,5.8572,14.563
5.183,18.288,3.525,-3.5843,21.064,-4.7803,-15.387,29.284,-6.8074,9.2942,1.6215,-7.4775,1.3157,3.6037,5.8518,14.649
5.183,18.288,3.525,-3.5843,21.064,-4.7803,-15.387,29.284,-6.8074,9.2942,1.6215,-7.4775,1.3157,3.6037,5.8518,14.649
5.2651,18.3,3.5693,-3.5365,20.989,-4.7718,-15.328,29.338,-7.0815,9.3045,1.512,-7.4555,1.3936,3.6306,5.8462,14.734
5.2651,18.3,3.5693,-3.5365,20.989,-4.7718,-15.328,29.338,-7.0815,9.3045,1.512,-7.4555,1.3936,3.6306,5.8462,14.734
5.3465,18.312,3.6138,-3.4888,20.914,-4.7631,-15.27,29.391,-7.3562,9.3145,1.4024,-7.4333,1.4715,3.6577,5.8404,14.819
5.3465,18.312,3.6138,-3.4888,20.914,-4.7631,-15.27,29.391,-7.3562,9.3145,1.4024,-7.4333,1.4715,3.6577,5.8404,14.819
5.3465,18.312,3.6138,-3.4888,20.914,-4.7631,-15.27,29.391,-7.3562,9.3145,1.4024,-7.4333,1.4715,3.6577,5.8404,14.819
5.4273,18.323,3.6586,-3.4411,20.84,-4.7542,-15.211,29.444,-7.6314,9.3242,1.2929,-7.411,1.5496,3.685,5.8344,14.904
5.5074,18.333,3.7036,-3.3936,20.767,-4.7452,-15.152,29.496,-7.9071,9.3337,1.1833,-7.3886,1.6276,3.7123,5.8283,14.988
5.5869,18.344,3.7489,-3.3461,20.693,-4.7361,-15.093,29.547,-8.1833,9.3428,1.0738,-7.3661,1.7057,3.7399,5.8221,15.072
5.5869,18.344,3.7489,-3.3461,20.693,-4.7361,-15.093,29.547,-8.1833,9.3428,1.0738,-7.3661,1.7057,3.7399,5.8221,15.072
5.5869,18.344,3.7489,-3.3461,20.693,-4.7361,-15.093,29.547,-8.1833,9.3428,1.0738,-7.3661,1.7057,3.7399,5.8221,15.072
5.6658,18.354,3.7944,-3.2988,20.62,-4.7269,-15.034,29.597,-8.4599,9.3517,0.96427,-7.3434,1.7838,3.7676,5.8156,15.156
5.6658,18.354,3.7944,-3.2988,20.62,-4.7269,-15.034,29.597,-8.4599,9.3517,0.96427,-7.3434,1.7838,3.7676,5.8156,15.156
5.6658,18.354,3.7944,-3.2988,20.62,-4.7269,-15.034,29.597,-8.4599,9.3517,0.96427,-7.3434,1.7838,3.7676,5.8156,15.156
5.744,18.363,3.8401,-3.2515,20.548,-4.7176,-14.975,29.647,-8.7369,9.3603,0.8548,-7.3206,1.8619,3.7954,5.8091,15.239
5.744,18.363,3.8401,-3.2515,20.548,-4.7176,-14.975,29.647,-8.7369,9.3603,0.8548,-7.3206,1.8619,3.7954,5.8091,15.239
5.744,18.363,3.8401,-3.2515,20.548,-4.7176,-14.975,29.647,-8.7369,9.3603,0.8548,-7.3206,1.8619,3.7954,5.8091,15.239
5.8985,18.38,3.9322,-3.1572,20.405,-4.6986,-14.857,29.744,-9.2921,9.3768,0.63598,-7.2745,2.0181,3.8515,5.7954,15.404
5.8985,18.38,3.9322,-3.1572,20.405,-4.6986,-14.857,29.744,-9.2921,9.3768,0.63598,-7.2745,2.0181,3.8515,5.7954,15.404
5.8985,18.38,3.9322,-3.1572,20.405,-4.6986,-14.857,29.744,-9.2921,9.3768,0.63598,-7.2745,2.0181,3.8515,5.7954,15.404
5.9748,18.388,3.9786,-3.1102,20.334,-4.689,-14.797,29.792,-9.5702,9.3846,0.52666,-7.2513,2.0962,3.8797,5.7884,15.486
6.0504,18.396,4.0252,-3.0633,20.264,-4.6792,-14.738,29.839,-9.8486,9.3922,0.4174,-7.2279,2.1743,3.9081,5.7811,15.568
6.0504,18.396,4.0252,-3.0633,20.264,-4.6792,-14.738,29.839,-9.8486,9.3922,0.4174,-7.2279,2.1743,3.9081,5.7811,15.568
6.0504,18.396,4.0252,-3.0633,20.264,-4.6792,-14.738,29.839,-9.8486,9.3922,0.4174,-7.2279,2.1743,3.9081,5.7811,15.568
6.1253,18.403,4.072,-3.0165,20.194,-4.6694,-14.679,29.885,-10.127,9.3995,0.30821,-7.2043,2.2523,3.9366,5.7738,15.649
6.1253,18.403,4.072,-3.0165,20.194,-4.6694,-14.679,29.885,-10.127,9.3995,0.30821,-7.2043,2.2523,3.9366,5.7738,15.649
6.1996,18.409,4.119,-2.9698,20.124,-4.6595,-14.62,29.93,-10.406,9.4066,0.19911,-7.1806,2.3303,3.9652,5.7662,15.73
6.1996,18.409,4.119,-2.9698,20.124,-4.6595,-14.62,29.93,-10.406,9.4066,0.19911,-7.1806,2.3303,3.9652,5.7662,15.73
6.1996,18.409,4.119,-2.9698,20.124,-4.6595,-14.62,29.93,-10.406,9.4066,0.19911,-7.1806,2.3303,3.9652,5.7662,15.73
6.3462,18.421,4.2136,-2.8767,19.987,-4.6394,-14.501,30.018,-10.965,9.42,-0.018822,-7.1327,2.4861,4.0229,5.7507,15.891
6.3462,18.421,4.2136,-2.8767,19.987,-4.6394,-14.501,30.018,-10.965,9.42,-0.018822,-7.1327,2.4861,4.0229,5.7507,15.891
6.4185,18.426,4.2612,-2.8303,19.919,-4.6293,-14.442,30.062,-11.244,9.4263,-0.12764,-7.1085,2.5639,4.0519,5.7427,15.971
6.4185,18.426,4.2612,-2.8303,19.919,-4.6293,-14.442,30.062,-11.244,9.4263,-0.12764,-7.1085,2.5639,4.0519,5.7427,15.971
6.4901,18.431,4.3089,-2.7841,19.851,-4.6191,-14.383,30.104,-11.524,9.4324,-0.23634,-7.0842,2.6416,4.081,5.7345,16.051
6.4901,18.431,4.3089,-2.7841,19.851,-4.6191,-14.383,30.104,-11.524,9.4324,-0.23634,-7.0842,2.6416,4.081,5.7345,16.051
6.4901,18.431,4.3089,-2.7841,19.851,-4.6191,-14.383,30.104,-11.524,9.4324,-0.23634,-7.0842,2.6416,4.081,5.7345,16.051
6.5611,18.436,4.3569,-2.7379,19.784,-4.6089,-14.324,30.146,-11.804,9.4383,-0.34492,-7.0597,2.7193,4.1102,5.7262,16.13
6.5611,18.436,4.3569,-2.7379,19.784,-4.6089,-14.324,30.146,-11.804,9.4383,-0.34492,-7.0597,2.7193,4.1102,5.7262,16.13
6.7699,18.446,4.5017,-2.5999,19.586,-4.5778,-14.146,30.266,-12.644,9.4546,-0.66986,-6.985,2.9516,4.1986,5.7002,16.366
6.7699,18.446,4.5017,-2.5999,19.586,-4.5778,-14.146,30.266,-12.644,9.4546,-0.66986,-6.985,2.9516,4.1986,5.7002,16.366
6.7699,18.446,4.5017,-2.5999,19.586,-4.5778,-14.146,30.266,-12.644,9.4546,-0.66986,-6.985,2.9516,4.1986,5.7002,16.366
6.7699,18.446,4.5017,-2.5999,19.586,-4.5778,-14.146,30.266,-12.644,9.4546,-0.66986,-6.985,2.9516,4.1986,5.7002,16.366
6.8382,18.448,4.5504,-2.5542,19.521,-4.5673,-14.087,30.305,-12.924,9.4596,-0.77789,-6.9598,3.0288,4.2282,5.6913,16.444
6.8382,18.448,4.5504,-2.5542,19.521,-4.5673,-14.087,30.305,-12.924,9.4596,-0.77789,-6.9598,3.0288,4.2282,5.6913,16.444
6.9058,18.45,4.5991,-2.5085,19.456,-4.5568,-14.028,30.343,-13.204,9.4644,-0.88575,-6.9344,3.1059,4.258,5.6822,16.521
6.9058,18.45,4.5991,-2.5085,19.456,-4.5568,-14.028,30.343,-13.204,9.4644,-0.88575,-6.9344,3.1059,4.258,5.6822,16.521
6.9726,18.452,4.6481,-2.463,19.392,-4.5463,-13.969,30.38,-13.484,9.469,-0.99346,-6.9088,3.1828,4.2878,5.6729,16.598
6.9726,18.452,4.6481,-2.463,19.392,-4.5463,-13.969,30.38,-13.484,9.469,-0.99346,-6.9088,3.1828,4.2878,5.6729,16.598
6.9726,18.452,4.6481,-2.463,19.392,-4.5463,-13.969,30.38,-13.484,9.469,-0.99346,-6.9088,3.1828,4.2878,5.6729,16.598
7.0389,18.453,4.6972,-2.4176,19.329,-4.5358,-13.91,30.417,-13.764,9.4734,-1.101,-6.883,3.2596,4.3178,5.6635,16.675
7.0389,18.453,4.6972,-2.4176,19.329,-4.5358,-13.91,30.417,-13.764,9.4734,-1.101,-6.883,3.2596,4.3178,5.6635,16.675
7.1044,18.453,4.7464,-2.3722,19.266,-4.5252,-13.851,30.453,-14.044,9.4775,-1.2083,-6.857,3.3362,4.3479,5.6539,16.752
7.1044,18.453,4.7464,-2.3722,19.266,-4.5252,-13.851,30.453,-14.044,9.4775,-1.2083,-6.857,3.3362,4.3479,5.6539,16.752
7.1044,18.453,4.7464,-2.3722,19.266,-4.5252,-13.851,30.453,-14.044,9.4775,-1.2083,-6.857,3.3362,4.3479,5.6539,16.752
7.1692,18.453,4.7958,-2.327,19.203,-4.5146,-13.792,30.488,-14.324,9.4815,-1.3155,-6.8309,3.4126,4.378,5.6441,16.828
7.1692,18.453,4.7958,-2.327,19.203,-4.5146,-13.792,30.488,-14.324,9.4815,-1.3155,-6.8309,3.4126,4.378,5.6441,16.828
7.2334,18.453,4.8453,-2.282,19.141,-4.504,-13.733,30.522,-14.604,9.4853,-1.4225,-6.8045,3.4889,4.4082,5.6342,16.904
7.2334,18.453,4.8453,-2.282,19.141,-4.504,-13.733,30.522,-14.604,9.4853,-1.4225,-6.8045,3.4889,4.4082,5.6342,16.904
7.2968,18.452,4.8949,-2.237,19.08,-4.4934,-13.674,30.555,-14.883,9.4888,-1.5292,-6.778,3.565,4.4385,5.6242,16.979
7.2968,18.452,4.8949,-2.237,19.08,-4.4934,-13.674,30.555,-14.883,9.4888,-1.5292,-6.778,3.565,4.4385,5.6242,16.979
7.3596,18.451,4.9447,-2.1921,19.019,-4.4828,-13.615,30.588,-15.162,9.4922,-1.6358,-6.7512,3.641,4.4689,5.6139,17.054
7.3596,18.451,4.9447,-2.1921,19.019,-4.4828,-13.615,30.588,-15.162,9.4922,-1.6358,-6.7512,3.641,4.4689,5.6139,17.054
7.3596,18.451,4.9447,-2.1921,19.019,-4.4828,-13.615,30.588,-15.162,9.4922,-1.6358,-6.7512,3.641,4.4689,5.6139,17.054
7.4217,18.449,4.9946,-2.1474,18.958,-4.4721,-13.556,30.62,-15.442,9.4954,-1.7421,-6.7243,3.7167,4.4994,5.6036,17.129
7.4831,18.447,5.0446,-2.1028,18.898,-4.4615,-13.497,30.652,-15.72,9.4984,-1.8482,-6.6971,3.7922,4.53,5.5931,17.203
7.4831,18.447,5.0446,-2.1028,18.898,-4.4615,-13.497,30.652,-15.72,9.4984,-1.8482,-6.6971,3.7922,4.53,5.5931,17.203
7.4831,18.447,5.0446,-2.1028,18.898,-4.4615,-13.497,30.652,-15.72,9.4984,-1.8482,-6.6971,3.7922,4.53,5.5931,17.203
7.6038,18.441,5.145,-2.0139,18.78,-4.4403,-13.38,30.712,-16.277,9.5038,-2.0598,-6.6422,3.9426,4.5913,5.5715,17.351
7.6038,18.441,5.145,-2.0139,18.78,-4.4403,-13.38,30.712,-16.277,9.5038,-2.0598,-6.6422,3.9426,4.5913,5.5715,17.351
7.6631,18.438,5.1954,-1.9697,18.721,-4.4297,-13.321,30.741,-16.555,9.5062,-2.1652,-6.6144,4.0174,4.622,5.5606,17.425
7.6631,18.438,5.1954,-1.9697,18.721,-4.4297,-13.321,30.741,-16.555,9.5062,-2.1652,-6.6144,4.0174,4.622,5.5606,17.425
7.7216,18.434,5.2459,-1.9256,18.663,-4.4192,-13.262,30.77,-16.833,9.5085,-2.2703,-6.5864,4.092,4.6529,5.5494,17.498
7.7216,18.434,5.2459,-1.9256,18.663,-4.4192,-13.262,30.77,-16.833,9.5085,-2.2703,-6.5864,4.092,4.6529,5.5494,17.498
7.7216,18.434,5.2459,-1.9256,18.663,-4.4192,-13.262,30.77,-16.833,9.5085,-2.2703,-6.5864,4.092,4.6529,5.5494,17.498
7.7216,18.434,5.2459,-1.9256,18.663,-4.4192,-13.262,30.77,-16.833,9.5085,-2.2703,-6.5864,4.092,4.6529,5.5494,17.498
7.8367,18.424,5.3471,-1.8377,18.549,-4.3981,-13.146,30.825,-17.387,9.5125,-2.4798,-6.5298,4.2405,4.7147,5.5267,17.643
7.8367,18.424,5.3471,-1.8377,18.549,-4.3981,-13.146,30.825,-17.387,9.5125,-2.4798,-6.5298,4.2405,4.7147,5.5267,17.643
7.8932,18.419,5.3979,-1.7939,18.493,-4.3876,-13.087,30.851,-17.663,9.5142,-2.5842,-6.5012,4.3144,4.7457,5.5151,17.715
7.8932,18.419,5.3979,-1.7939,18.493,-4.3876,-13.087,30.851,-17.663,9.5142,-2.5842,-6.5012,4.3144,4.7457,5.5151,17.715
7.949,18.413,5.4487,-1.7503,18.437,-4.3772,-13.029,30.876,-17.939,9.5158,-2.6883,-6.4724,4.3879,4.7768,5.5033,17.787
7.949,18.413,5.4487,-1.7503,18.437,-4.3772,-13.029,30.876,-17.939,9.5158,-2.6883,-6.4724,4.3879,4.7768,5.5033,17.787
8.0041,18.406,5.4997,-1.7068,18.381,-4.3668,-12.971,30.901,-18.215,9.5172,-2.7921,-6.4433,4.4613,4.8079,5.4914,17.858
8.0041,18.406,5.4997,-1.7068,18.381,-4.3668,-12.971,30.901,-18.215,9.5172,-2.7921,-6.4433,4.4613,4.8079,5.4914,17.858
8.0041,18.406,5.4997,-1.7068,18.381,-4.3668,-12.971,30.901,-18.215,9.5172,-2.7921,-6.4433,4.4613,4.8079,5.4914,17.858
8.0585,18.4,5.5507,-1.6635,18.327,-4.3565,-12.913,30.925,-18.49,9.5184,-2.8956,-6.414,4.5343,4.8391,5.4794,17.929
8.0585,18.4,5.5507,-1.6635,18.327,-4.3565,-12.913,30.925,-18.49,9.5184,-2.8956,-6.414,4.5343,4.8391,5.4794,17.929
8.0585,18.4,5.5507,-1.6635,18.327,-4.3565,-12.913,30.925,-18.49,9.5184,-2.8956,-6.414,4.5343,4.8391,5.4794,17.929
8.1651,18.385,5.653,-1.5772,18.219,-4.3359,-12.797,30.971,-19.038,9.5203,-3.1016,-6.3547,4.6795,4.9016,5.4548,18.07
8.1651,18.385,5.653,-1.5772,18.219,-4.3359,-12.797,30.971,-19.038,9.5203,-3.1016,-6.3547,4.6795,4.9016,5.4548,18.07
8.2173,18.376,5.7043,-1.5342,18.165,-4.3257,-12.739,30.993,-19.312,9.5211,-3.2042,-6.3248,4.7516,4.9329,5.4423,18.14
8.2173,18.376,5.7043,-1.5342,18.165,-4.3257,-12.739,30.993,-19.312,9.5211,-3.2042,-6.3248,4.7516,4.9329,5.4423,18.14
8.2173,18.376,5.7043,-1.5342,18.165,-4.3257,-12.739,30.993,-19.312,9.5211,-3.2042,-6.3248,4.7516,4.9329,5.4423,18.14
8.2689,18.368,5.7556,-1.4914,18.113,-4.3156,-12.681,31.014,-19.584,9.5217,-3.3065,-6.2945,4.8234,4.9643,5.4296,18.21
8.2689,18.368,5.7556,-1.4914,18.113,-4.3156,-12.681,31.014,-19.584,9.5217,-3.3065,-6.2945,4.8234,4.9643,5.4296,18.21
8.3197,18.359,5.807,-1.4487,18.06,-4.3055,-12.624,31.034,-19.856,9.5221,-3.4084,-6.2641,4.8949,4.9956,5.4168,18.279
8.3197,18.359,5.807,-1.4487,18.06,-4.3055,-12.624,31.034,-19.856,9.5221,-3.4084,-6.2641,4.8949,4.9956,5.4168,18.279
8.3698,18.349,5.8584,-1.4061,18.009,-4.2956,-12.566,31.054,-20.128,9.5223,-3.51,-6.2334,4.9661,5.0271,5.4039,18.348
8.3698,18.349,5.8584,-1.4061,18.009,-4.2956,-12.566,31.054,-20.128,9.5223,-3.51,-6.2334,4.9661,5.0271,5.4039,18.348
8.3698,18.349,5.8584,-1.4061,18.009,-4.2956,-12.566,31.054,-20.128,9.5223,-3.51,-6.2334,4.9661,5.0271,5.4039,18.348
8.468,18.329,5.9615,-1.3214,17.907,-4.2758,-12.452,31.091,-20.669,9.5224,-3.7122,-6.1714,5.1075,5.09,5.3775,18.486
8.468,18.329,5.9615,-1.3214,17.907,-4.2758,-12.452,31.091,-20.669,9.5224,-3.7122,-6.1714,5.1075,5.09,5.3775,18.486
8.516,18.318,6.0131,-1.2793,17.857,-4.2661,-12.395,31.108,-20.938,9.5222,-3.8128,-6.14,5.1776,5.1215,5.3641,18.554
8.516,18.318,6.0131,-1.2793,17.857,-4.2661,-12.395,31.108,-20.938,9.5222,-3.8128,-6.14,5.1776,5.1215,5.3641,18.554
8.5632,18.306,6.0647,-1.2373,17.807,-4.2564,-12.338,31.125,-21.207,9.5218,-3.913,-6.1084,5.2474,5.153,5.3506,18.621
8.5632,18.306,6.0647,-1.2373,17.807,-4.2564,-12.338,31.125,-21.207,9.5218,-3.913,-6.1084,5.2474,5.153,5.3506,18.621
8.6098,18.294,6.1164,-1.1955,17.758,-4.2468,-12.281,31.141,-21.475,9.5213,-4.0129,-6.0765,5.3169,5.1846,5.3369,18.689
8.6556,18.282,6.1681,-1.1538,17.71,-4.2373,-12.224,31.156,-21.742,9.5206,-4.1124,-6.0444,5.386,5.2162,5.323,18.756
8.6556,18.282,6.1681,-1.1538,17.71,-4.2373,-12.224,31.156,-21.742,9.5206,-4.1124,-6.0444,5.386,5.2162,5.323,18.756
8.6556,18.282,6.1681,-1.1538,17.71,-4.2373,-12.224,31.156,-21.742,9.5206,-4.1124,-6.0444,5.386,5.2162,5.323,18.756
8.7008,18.269,6.2199,-1.1122,17.662,-4.228,-12.168,31.17,-22.008,9.5198,-4.2115,-6.0121,5.4547,5.2478,5.3091,18.823
8.7008,18.269,6.2199,-1.1122,17.662,-4.228,-12.168,31.17,-22.008,9.5198,-4.2115,-6.0121,5.4547,5.2478,5.3091,18.823
8.7008,18.269,6.2199,-1.1122,17.662,-4.228,-12.168,31.17,-22.008,9.5198,-4.2115,-6.0121,5.4547,5.2478,5.3091,18.823
8.7452,18.256,6.2717,-1.0708,17.614,-4.2187,-12.111,31.184,-22.274,9.5188,-4.3103,-5.9795,5.523,5.2794,5.2949,18.889
8.7452,18.256,6.2717,-1.0708,17.614,-4.2187,-12.111,31.184,-22.274,9.5188,-4.3103,-5.9795,5.523,5.2794,5.2949,18.889
8.7889,18.242,6.3235,-1.0295,17.567,-4.2095,-12.055,31.197,-22.538,9.5177,-4.4086,-5.9466,5.5909,5.311,5.2807,18.955
8.7889,18.242,6.3235,-1.0295,17.567,-4.2095,-12.055,31.197,-22.538,9.5177,-4.4086,-5.9466,5.5909,5.311,5.2807,18.955
8.8319,18.228,6.3753,-0.98843,17.521,-4.2004,-11.999,31.21,-22.802,9.5165,-4.5066,-5.9135,5.6585,5.3426,5.2662,19.021
8.8319,18.228,6.3753,-0.98843,17.521,-4.2004,-11.999,31.21,-22.802,9.5165,-4.5066,-5.9135,5.6585,5.3426,5.2662,19.021
8.8742,18.213,6.4272,-0.94746,17.475,-4.1915,-11.943,31.221,-23.065,9.5151,-4.6041,-5.8802,5.7257,5.3743,5.2517,19.086
8.8742,18.213,6.4272,-0.94746,17.475,-4.1915,-11.943,31.221,-23.065,9.5151,-4.6041,-5.8802,5.7257,5.3743,5.2517,19.086
8.9158,18.198,6.479,-0.90665,17.43,-4.1827,-11.887,31.232,-23.327,9.5135,-4.7013,-5.8466,5.7924,5.4059,5.237,19.151
8.9158,18.198,6.479,-0.90665,17.43,-4.1827,-11.887,31.232,-23.327,9.5135,-4.7013,-5.8466,5.7924,5.4059,5.237,19.151
8.9566,18.183,6.5309,-0.86598,17.385,-4.1739,-11.831,31.242,-23.588,9.5118,-4.7981,-5.8127,5.8588,5.4375,5.2222,19.216
8.9566,18.183,6.5309,-0.86598,17.385,-4.1739,-11.831,31.242,-23.588,9.5118,-4.7981,-5.8127,5.8588,5.4375,5.2222,19.216
8.9566,18.183,6.5309,-0.86598,17.385,-4.1739,-11.831,31.242,-23.588,9.5118,-4.7981,-5.8127,5.8588,5.4375,5.2222,19.216
9.0362,18.15,6.6347,-0.78512,17.297,-4.1569,-11.72,31.26,-24.107,9.508,-4.9903,-5.7443,5.9902,5.5008,5.1921,19.345
9.0362,18.15,6.6347,-0.78512,17.297,-4.1569,-11.72,31.26,-24.107,9.508,-4.9903,-5.7443,5.9902,5.5008,5.1921,19.345
9.0362,18.15,6.6347,-0.78512,17.297,-4.1569,-11.72,31.26,-24.107,9.508,-4.9903,-5.7443,5.9902,5.5008,5.1921,19.345
9.0362,18.15,6.6347,-0.78512,17.297,-4.1569,-11.72,31.26,-24.107,9.508,-4.9903,-5.7443,5.9902,5.5008,5.1921,19.345
9.113,18.116,6.7385,-0.70487,17.211,-4.1404,-11.61,31.275,-24.622,9.5036,-5.1809,-5.6748,6.1199,5.5641,5.1614,19.472
9.113,18.116,6.7385,-0.70487,17.211,-4.1404,-11.61,31.275,-24.622,9.5036,-5.1809,-5.6748,6.1199,5.5641,5.1614,19.472
9.1503,18.098,6.7904,-0.66498,17.169,-4.1324,-11.555,31.282,-24.878,9.5012,-5.2756,-5.6397,6.1842,5.5957,5.1459,19.535
9.1503,18.098,6.7904,-0.66498,17.169,-4.1324,-11.555,31.282,-24.878,9.5012,-5.2756,-5.6397,6.1842,5.5957,5.1459,19.535
9.1503,18.098,6.7904,-0.66498,17.169,-4.1324,-11.555,31.282,-24.878,9.5012,-5.2756,-5.6397,6.1842,5.5957,5.1459,19.535
9.1868,18.08,6.8423,-0.62526,17.127,-4.1245,-11.501,31.288,-25.132,9.4987,-5.3698,-5.6043,6.2479,5.6273,5.1302,19.598
9.1868,18.08,6.8423,-0.62526,17.127,-4.1245,-11.501,31.288,-25.132,9.4987,-5.3698,-5.6043,6.2479,5.6273,5.1302,19.598
9.2227,18.062,6.8942,-0.58569,17.086,-4.1167,-11.446,31.293,-25.386,9.496,-5.4635,-5.5686,6.3112,5.6588,5.1144,19.661
9.2227,18.062,6.8942,-0.58569,17.086,-4.1167,-11.446,31.293,-25.386,9.496,-5.4635,-5.5686,6.3112,5.6588,5.1144,19.661
9.2227,18.062,6.8942,-0.58569,17.086,-4.1167,-11.446,31.293,-25.386,9.496,-5.4635,-5.5686,6.3112,5.6588,5.1144,19.661
9.2923,18.023,6.9979,-0.50703,17.005,-4.1017,-11.338,31.301,-25.89,9.4902,-5.6497,-5.4966,6.4365,5.722,5.0824,19.785
9.2923,18.023,6.9979,-0.50703,17.005,-4.1017,-11.338,31.301,-25.89,9.4902,-5.6497,-5.4966,6.4365,5.722,5.0824,19.785
9.3261,18.003,7.0497,-0.46795,16.966,-4.0944,-11.284,31.304,-26.14,9.4871,-5.7421,-5.4601,6.4985,5.7535,5.0662,19.846
9.3261,18.003,7.0497,-0.46795,16.966,-4.0944,-11.284,31.304,-26.14,9.4871,-5.7421,-5.4601,6.4985,5.7535,5.0662,19.846
9.3591,17.982,7.1015,-0.42903,16.927,-4.0873,-11.23,31.306,-26.389,9.4838,-5.834,-5.4234,6.56,5.785,5.0498,19.907
9.3591,17.982,7.1015,-0.42903,16.927,-4.0873,-11.23,31.306,-26.389,9.4838,-5.834,-5.4234,6.56,5.785,5.0498,19.907
9.3591,17.982,7.1015,-0.42903,16.927,-4.0873,-11.23,31.306,-26.389,9.4838,-5.834,-5.4234,6.56,5.785,5.0498,19.907
9.3591,17.982,7.1015,-0.42903,16.927,-4.0873,-11.23,31.306,-26.389,9.4838,-5.834,-5.4234,6.56,5.785,5.0498,19.907
9.4231,17.94,7.205,-0.35168,16.85,-4.0735,-11.124,31.308,-26.884,9.4769,-6.0165,-5.3493,6.6815,5.8479,5.0167,20.029
9.4231,17.94,7.205,-0.35168,16.85,-4.0735,-11.124,31.308,-26.884,9.4769,-6.0165,-5.3493,6.6815,5.8479,5.0167,20.029
9.4231,17.94,7.205,-0.35168,16.85,-4.0735,-11.124,31.308,-26.884,9.4769,-6.0165,-5.3493,6.6815,5.8479,5.0167,20.029
9.4231,17.94,7.205,-0.35168,16.85,-4.0735,-11.124,31.308,-26.884,9.4769,-6.0165,-5.3493,6.6815,5.8479,5.0167,20.029
9.4231,17.94,7.205,-0.35168,16.85,-4.0735,-11.124,31.308,-26.884,9.4769,-6.0165,-5.3493,6.6815,5.8479,5.0167,20.029
9.4842,17.896,7.3084,-0.275,16.776,-4.0605,-11.018,31.308,-27.373,9.4694,-6.197,-5.274,6.8011,5.9106,4.9831,20.149
9.4842,17.896,7.3084,-0.275,16.776,-4.0605,-11.018,31.308,-27.373,9.4694,-6.197,-5.274,6.8011,5.9106,4.9831,20.149
9.4842,17.896,7.3084,-0.275,16.776,-4.0605,-11.018,31.308,-27.373,9.4694,-6.197,-5.274,6.8011,5.9106,4.9831,20.149
9.5137,17.873,7.36,-0.23692,16.74,-4.0542,-10.965,31.306,-27.616,9.4654,-6.2865,-5.236,6.8602,5.942,4.9661,20.208
9.5426,17.85,7.4116,-0.199,16.704,-4.0481,-10.913,31.304,-27.857,9.4613,-6.3756,-5.1977,6.9187,5.9733,4.949,20.268
9.5707,17.826,7.4631,-0.16126,16.669,-4.0422,-10.86,31.302,-28.098,9.4571,-6.4641,-5.1591,6.9768,6.0045,4.9317,20.327
9.5981,17.802,7.5146,-0.12369,16.634,-4.0366,-10.808,31.298,-28.336,9.4527,-6.5522,-5.1203,7.0344,6.0357,4.9143,20.385
9.5981,17.802,7.5146,-0.12369,16.634,-4.0366,-10.808,31.298,-28.336,9.4527,-6.5522,-5.1203,7.0344,6.0357,4.9143,20.385
9.5981,17.802,7.5146,-0.12369,16.634,-4.0366,-10.808,31.298,-28.336,9.4527,-6.5522,-5.1203,7.0344,6.0357,4.9143,20.385
9.6248,17.778,7.566,-0.08629,16.6,-4.031,-10.757,31.294,-28.574,9.4481,-6.6397,-5.0812,7.0914,6.0669,4.8968,20.443
9.6248,17.778,7.566,-0.08629,16.6,-4.031,-10.757,31.294,-28.574,9.4481,-6.6397,-5.0812,7.0914,6.0669,4.8968,20.443
9.6508,17.753,7.6174,-0.049067,16.566,-4.0257,-10.705,31.289,-28.81,9.4434,-6.7268,-5.0418,7.148,6.098,4.8792,20.501
9.6508,17.753,7.6174,-0.049067,16.566,-4.0257,-10.705,31.289,-28.81,9.4434,-6.7268,-5.0418,7.148,6.098,4.8792,20.501
9.6508,17.753,7.6174,-0.049067,16.566,-4.0257,-10.705,31.289,-28.81,9.4434,-6.7268,-5.0418,7.148,6.098,4.8792,20.501
9.6761,17.727,7.6688,-0.012018,16.533,-4.0206,-10.654,31.284,-29.045,9.4386,-6.8133,-5.0022,7.204,6.129,4.8614,20.559
9.6761,17.727,7.6688,-0.012018,16.533,-4.0206,-10.654,31.284,-29.045,9.4386,-6.8133,-5.0022,7.204,6.129,4.8614,20.559
9.6761,17.727,7.6688,-0.012018,16.533,-4.0206,-10.654,31.284,-29.045,9.4386,-6.8133,-5.0022,7.204,6.129,4.8614,20.559
9.6761,17.727,7.6688,-0.012018,16.533,-4.0206,-10.654,31.284,-29.045,9.4386,-6.8133,-5.0022,7.204,6.129,4.8614,20.559
9.7247,17.675,7.7712,0.061548,16.468,-4.011,-10.552,31.27,-29.51,9.4285,-6.9848,-4.9221,7.3145,6.191,4.8255,20.673
9.7247,17.675,7.7712,0.061548,16.468,-4.011,-10.552,31.27,-29.51,9.4285,-6.9848,-4.9221,7.3145,6.191,4.8255,20.673
9.7247,17.675,7.7712,0.061548,16.468,-4.011,-10.552,31.27,-29.51,9.4285,-6.9848,-4.9221,7.3145,6.191,4.8255,20.673
9.7247,17.675,7.7712,0.061548,16.468,-4.011,-10.552,31.27,-29.51,9.4285,-6.9848,-4.9221,7.3145,6.191,4.8255,20.673
9.7705,17.621,7.8734,0.1344,16.405,-4.0023,-10.451,31.254,-29.969,9.4178,-7.1542,-4.841,7.4228,6.2527,4.7892,20.786
9.7705,17.621,7.8734,0.1344,16.405,-4.0023,-10.451,31.254,-29.969,9.4178,-7.1542,-4.841,7.4228,6.2527,4.7892,20.786
9.7705,17.621,7.8734,0.1344,16.405,-4.0023,-10.451,31.254,-29.969,9.4178,-7.1542,-4.841,7.4228,6.2527,4.7892,20.786
9.8135,17.565,7.9753,0.20653,16.344,-3.9944,-10.351,31.235,-30.422,9.4065,-7.3215,-4.7587,7.5291,6.3142,4.7523,20.898
9.8135,17.565,7.9753,0.20653,16.344,-3.9944,-10.351,31.235,-30.422,9.4065,-7.3215,-4.7587,7.5291,6.3142,4.7523,20.898
9.834,17.537,8.0261,0.24233,16.315,-3.9908,-10.301,31.225,-30.646,9.4006,-7.4044,-4.7172,7.5814,6.3448,4.7337,20.953
9.834,17.537,8.0261,0.24233,16.315,-3.9908,-10.301,31.225,-30.646,9.4006,-7.4044,-4.7172,7.5814,6.3448,4.7337,20.953
9.8538,17.508,8.0769,0.27794,16.286,-3.9874,-10.252,31.214,-30.869,9.3946,-7.4867,-4.6754,7.6331,6.3754,4.715,21.008
9.8538,17.508,8.0769,0.27794,16.286,-3.9874,-10.252,31.214,-30.869,9.3946,-7.4867,-4.6754,7.6331,6.3754,4.715,21.008
9.8538,17.508,8.0769,0.27794,16.286,-3.9874,-10.252,31.214,-30.869,9.3946,-7.4867,-4.6754,7.6331,6.3754,4.715,21.008
9.8729,17.479,8.1275,0.31336,16.257,-3.9842,-10.203,31.202,-31.09,9.3884,-7.5684,-4.6333,7.6843,6.4059,4.6961,21.063
9.8729,17.479,8.1275,0.31336,16.257,-3.9842,-10.203,31.202,-31.09,9.3884,-7.5684,-4.6333,7.6843,6.4059,4.6961,21.063
9.8729,17.479,8.1275,0.31336,16.257,-3.9842,-10.203,31.202,-31.09,9.3884,-7.5684,-4.6333,7.6843,6.4059,4.6961,21.063
9.9091,17.418,8.2286,0.38366,16.202,-3.9786,-10.106,31.176,-31.528,9.3755,-7.7303,-4.5483,7.7851,6.4667,4.6581,21.171
9.9091,17.418,8.2286,0.38366,16.202,-3.9786,-10.106,31.176,-31.528,9.3755,-7.7303,-4.5483,7.7851,6.4667,4.6581,21.171
9.9262,17.388,8.279,0.41852,16.175,-3.9761,-10.057,31.163,-31.744,9.3689,-7.8104,-4.5055,7.8347,6.497,4.6389,21.225
9.9262,17.388,8.279,0.41852,16.175,-3.9761,-10.057,31.163,-31.744,9.3689,-7.8104,-4.5055,7.8347,6.497,4.6389,21.225
9.9426,17.357,8.3293,0.4532,16.148,-3.9739,-10.009,31.148,-31.959,9.3621,-7.8899,-4.4623,7.8837,6.5272,4.6196,21.278
9.9426,17.357,8.3293,0.4532,16.148,-3.9739,-10.009,31.148,-31.959,9.3621,-7.8899,-4.4623,7.8837,6.5272,4.6196,21.278
9.9583,17.325,8.3795,0.48769,16.123,-3.972,-9.9617,31.133,-32.172,9.3551,-7.9689,-4.4189,7.9321,6.5573,4.6002,21.331
9.9583,17.325,8.3795,0.48769,16.123,-3.972,-9.9617,31.133,-32.172,9.3551,-7.9689,-4.4189,7.9321,6.5573,4.6002,21.331
9.9734,17.293,8.4297,0.52199,16.097,-3.9702,-9.9143,31.117,-32.384,9.3479,-8.0473,-4.3752,7.98,6.5873,4.5807,21.384
9.9878,17.261,8.4797,0.55611,16.072,-3.9687,-9.8672,31.1,-32.594,9.3406,-8.1252,-4.3312,8.0273,6.6173,4.5611,21.436
9.9878,17.261,8.4797,0.55611,16.072,-3.9687,-9.8672,31.1,-32.594,9.3406,-8.1252,-4.3312,8.0273,6.6173,4.5611,21.436
9.9878,17.261,8.4797,0.55611,16.072,-3.9687,-9.8672,31.1,-32.594,9.3406,-8.1252,-4.3312,8.0273,6.6173,4.5611,21.436
10.002,17.228,8.5296,0.59002,16.048,-3.9675,-9.8203,31.083,-32.802,9.3332,-8.2025,-4.2869,8.074,6.6471,4.5414,21.488
10.002,17.228,8.5296,0.59002,16.048,-3.9675,-9.8203,31.083,-32.802,9.3332,-8.2025,-4.2869,8.074,6.6471,4.5414,21.488
10.015,17.195,8.5794,0.62375,16.024,-3.9665,-9.7738,31.065,-33.008,9.3255,-8.2792,-4.2424,8.1202,6.6769,4.5215,21.54
10.015,17.195,8.5794,0.62375,16.024,-3.9665,-9.7738,31.065,-33.008,9.3255,-8.2792,-4.2424,8.1202,6.6769,4.5215,21.54
10.027,17.161,8.6291,0.65729,16.001,-3.9658,-9.7275,31.046,-33.213,9.3177,-8.3553,-4.1976,8.1658,6.7066,4.5016,21.591
10.027,17.161,8.6291,0.65729,16.001,-3.9658,-9.7275,31.046,-33.213,9.3177,-8.3553,-4.1976,8.1658,6.7066,4.5016,21.591
10.027,17.161,8.6291,0.65729,16.001,-3.9658,-9.7275,31.046,-33.213,9.3177,-8.3553,-4.1976,8.1658,6.7066,4.5016,21.591
10.039,17.127,8.6787,0.69063,15.978,-3.9654,-9.6815,31.027,-33.416,9.3097,-8.4309,-4.1526,8.2108,6.7362,4.4815,21.642
10.039,17.127,8.6787,0.69063,15.978,-3.9654,-9.6815,31.027,-33.416,9.3097,-8.4309,-4.1526,8.2108,6.7362,4.4815,21.642
10.05,17.092,8.7281,0.72377,15.956,-3.9652,-9.6358,31.007,-33.617,9.3016,-8.5059,-4.1073,8.2553,6.7657,4.4614,21.693
10.06,17.057,8.7775,0.75672,15.934,-3.9652,-9.5905,30.987,-33.816,9.2933,-8.5803,-4.0617,8.2991,6.7951,4.4411,21.743
10.06,17.057,8.7775,0.75672,15.934,-3.9652,-9.5905,30.987,-33.816,9.2933,-8.5803,-4.0617,8.2991,6.7951,4.4411,21.743
10.07,17.022,8.8267,0.78948,15.913,-3.9656,-9.5454,30.965,-34.014,9.2848,-8.6541,-4.0158,8.3424,6.8244,4.4207,21.793
10.07,17.022,8.8267,0.78948,15.913,-3.9656,-9.5454,30.965,-34.014,9.2848,-8.6541,-4.0158,8.3424,6.8244,4.4207,21.793
10.07,17.022,8.8267,0.78948,15.913,-3.9656,-9.5454,30.965,-34.014,9.2848,-8.6541,-4.0158,8.3424,6.8244,4.4207,21.793
10.079,16.986,8.8758,0.82203,15.892,-3.9662,-9.5006,30.944,-34.21,9.2761,-8.7273,-3.9697,8.3852,6.8536,4.4003,21.843
10.079,16.986,8.8758,0.82203,15.892,-3.9662,-9.5006,30.944,-34.21,9.2761,-8.7273,-3.9697,8.3852,6.8536,4.4003,21.843
10.088,16.949,8.9248,0.85439,15.872,-3.967,-9.4562,30.921,-34.404,9.2672,-8.8,-3.9233,8.4273,6.8827,4.3797,21.892
10.096,16.913,8.9737,0.88655,15.852,-3.9682,-9.412,30.898,-34.597,9.2582,-8.8721,-3.8766,8.4689,6.9117,4.359,21.941
10.096,16.913,8.9737,0.88655,15.852,-3.9682,-9.412,30.898,-34.597,9.2582,-8.8721,-3.8766,8.4689,6.9117,4.359,21.941
10.103,16.876,9.0225,0.91851,15.833,-3.9696,-9.3682,30.874,-34.787,9.249,-8.9435,-3.8297,8.5098,6.9406,4.3383,21.99
10.109,16.838,9.0711,0.95027,15.814,-3.9713,-9.3247,30.849,-34.976,9.2396,-9.0144,-3.7825,8.5502,6.9694,4.3174,22.038
10.109,16.838,9.0711,0.95027,15.814,-3.9713,-9.3247,30.849,-34.976,9.2396,-9.0144,-3.7825,8.5502,6.9694,4.3174,22.038
10.109,16.838,9.0711,0.95027,15.814,-3.9713,-9.3247,30.849,-34.976,9.2396,-9.0144,-3.7825,8.5502,6.9694,4.3174,22.038
10.115,16.8,9.1196,0.98183,15.796,-3.9733,-9.2815,30.824,-35.163,9.23,-9.0847,-3.7351,8.59,6.998,4.2965,22.086
10.115,16.8,9.1196,0.98183,15.796,-3.9733,-9.2815,30.824,-35.163,9.23,-9.0847,-3.7351,8.59,6.998,4.2965,22.086
10.115,16.8,9.1196,0.98183,15.796,-3.9733,-9.2815,30.824,-35.163,9.23,-9.0847,-3.7351,8.59,6.998,4.2965,22.086
10.115,16.8,9.1196,0.98183,15.796,-3.9733,-9.2815,30.824,-35.163,9.23,-9.0847,-3.7351,8.59,6.998,4.2965,22.086
10.121,16.762,9.1679,1.0132,15.778,-3.9756,-9.2386,30.798,-35.348,9.2202,-9.1544,-3.6873,8.6292,7.0266,4.2754,22.134
10.129,16.683,9.2642,1.0753,15.744,-3.9809,-9.1538,30.745,-35.712,9.2,-9.2919,-3.5911,8.7059,7.0834,4.2331,22.228
10.129,16.683,9.2642,1.0753,15.744,-3.9809,-9.1538,30.745,-35.712,9.2,-9.2919,-3.5911,8.7059,7.0834,4.2331,22.228
10.133,16.644,9.3122,1.1061,15.728,-3.9841,-9.1119,30.717,-35.891,9.1897,-9.3598,-3.5426,8.7433,7.1116,4.2118,22.275
10.133,16.644,9.3122,1.1061,15.728,-3.9841,-9.1119,30.717,-35.891,9.1897,-9.3598,-3.5426,8.7433,7.1116,4.2118,22.275
10.133,16.644,9.3122,1.1061,15.728,-3.9841,-9.1119,30.717,-35.891,9.1897,-9.3598,-3.5426,8.7433,7.1116,4.2118,22.275
10.135,16.604,9.36,1.1366,15.712,-3.9875,-9.0703,30.689,-36.069,9.1791,-9.4271,-3.4938,8.7802,7.1397,4.1904,22.321
10.135,16.604,9.36,1.1366,15.712,-3.9875,-9.0703,30.689,-36.069,9.1791,-9.4271,-3.4938,8.7802,7.1397,4.1904,22.321
10.135,16.604,9.36,1.1366,15.712,-3.9875,-9.0703,30.689,-36.069,9.1791,-9.4271,-3.4938,8.7802,7.1397,4.1904,22.321
10.138,16.563,9.4077,1.1669,15.697,-3.9912,-9.0291,30.66,-36.244,9.1683,-9.4938,-3.4448,8.8165,7.1677,4.1689,22.367
10.138,16.563,9.4077,1.1669,15.697,-3.9912,-9.0291,30.66,-36.244,9.1683,-9.4938,-3.4448,8.8165,7.1677,4.1689,22.367
10.139,16.522,9.4552,1.1971,15.682,-3.9952,-8.9882,30.63,-36.418,9.1574,-9.5598,-3.3955,8.8522,7.1956,4.1473,22.412
10.139,16.522,9.4552,1.1971,15.682,-3.9952,-8.9882,30.63,-36.418,9.1574,-9.5598,-3.3955,8.8522,7.1956,4.1473,22.412
10.139,16.522,9.4552,1.1971,15.682,-3.9952,-8.9882,30.63,-36.418,9.1574,-9.5598,-3.3955,8.8522,7.1956,4.1473,22.412
10.14,16.439,9.5498,1.2567,15.654,-4.004,-8.9074,30.569,-36.759,9.1348,-9.6901,-3.2962,8.9218,7.251,4.1038,22.503
10.14,16.439,9.5498,1.2567,15.654,-4.004,-8.9074,30.569,-36.759,9.1348,-9.6901,-3.2962,8.9218,7.251,4.1038,22.503
10.14,16.397,9.5969,1.2863,15.641,-4.0089,-8.8675,30.537,-36.927,9.1232,-9.7544,-3.2461,8.9557,7.2785,4.082,22.547
10.14,16.397,9.5969,1.2863,15.641,-4.0089,-8.8675,30.537,-36.927,9.1232,-9.7544,-3.2461,8.9557,7.2785,4.082,22.547
10.14,16.397,9.5969,1.2863,15.641,-4.0089,-8.8675,30.537,-36.927,9.1232,-9.7544,-3.2461,8.9557,7.2785,4.082,22.547
10.139,16.354,9.6438,1.3156,15.629,-4.0141,-8.828,30.505,-37.093,9.1114,-9.818,-3.1958,8.9891,7.3059,4.0601,22.591
10.139,16.354,9.6438,1.3156,15.629,-4.0141,-8.828,30.505,-37.093,9.1114,-9.818,-3.1958,8.9891,7.3059,4.0601,22.591
10.138,16.311,9.6906,1.3447,15.616,-4.0196,-8.7888,30.472,-37.257,9.0994,-9.8811,-3.1453,9.0218,7.3331,4.0381,22.635
10.138,16.311,9.6906,1.3447,15.616,-4.0196,-8.7888,30.472,-37.257,9.0994,-9.8811,-3.1453,9.0218,7.3331,4.0381,22.635
10.138,16.311,9.6906,1.3447,15.616,-4.0196,-8.7888,30.472,-37.257,9.0994,-9.8811,-3.1453,9.0218,7.3331,4.0381,22.635
10.133,16.224,9.7837,1.4023,15.594,-4.0315,-8.7114,30.405,-37.578,9.0747,-10.005,-3.0434,9.0855,7.3872,3.9938,22.722
10.133,16.224,9.7837,1.4023,15.594,-4.0315,-8.7114,30.405,-37.578,9.0747,-10.005,-3.0434,9.0855,7.3872,3.9938,22.722
10.133,16.224,9.7837,1.4023,15.594,-4.0315,-8.7114,30.405,-37.578,9.0747,-10.005,-3.0434,9.0855,7.3872,3.9938,22.722
10.13,16.18,9.83,1.4307,15.583,-4.0379,-8.6733,30.37,-37.736,9.0621,-10.066,-2.992,9.1165,7.4141,3.9716,22.765
10.13,16.18,9.83,1.4307,15.583,-4.0379,-8.6733,30.37,-37.736,9.0621,-10.066,-2.992,9.1165,7.4141,3.9716,22.765
10.13,16.18,9.83,1.4307,15.583,-4.0379,-8.6733,30.37,-37.736,9.0621,-10.066,-2.992,9.1165,7.4141,3.9716,22.765
10.13,16.18,9.83,1.4307,15.583,-4.0379,-8.6733,30.37,-37.736,9.0621,-10.066,-2.992,9.1165,7.4141,3.9716,22.765
10.122,16.09,9.9222,1.4871,15.563,-4.0516,-8.5981,30.299,-38.046,9.0361,-10.187,-2.8887,9.1768,7.4674,3.9269,22.85
10.122,16.09,9.9222,1.4871,15.563,-4.0516,-8.5981,30.299,-38.046,9.0361,-10.187,-2.8887,9.1768,7.4674,3.9269,22.85
10.117,16.045,9.9681,1.5149,15.554,-4.0589,-8.561,30.263,-38.198,9.0227,-10.246,-2.8366,9.206,7.4939,3.9044,22.891
10.117,16.045,9.9681,1.5149,15.554,-4.0589,-8.561,30.263,-38.198,9.0227,-10.246,-2.8366,9.206,7.4939,3.9044,22.891
10.111,15.999,10.014,1.5425,15.545,-4.0665,-8.5243,30.226,-38.348,9.0091,-10.305,-2.7843,9.2347,7.5202,3.8819,22.933
10.111,15.999,10.014,1.5425,15.545,-4.0665,-8.5243,30.226,-38.348,9.0091,-10.305,-2.7843,9.2347,7.5202,3.8819,22.933
10.105,15.953,10.059,1.57,15.537,-4.0744,-8.488,30.188,-38.496,8.9953,-10.363,-2.7317,9.2627,7.5464,3.8593,22.974
10.105,15.953,10.059,1.57,15.537,-4.0744,-8.488,30.188,-38.496,8.9953,-10.363,-2.7317,9.2627,7.5464,3.8593,22.974
10.105,15.953,10.059,1.57,15.537,-4.0744,-8.488,30.188,-38.496,8.9953,-10.363,-2.7317,9.2627,7.5464,3.8593,22.974
10.091,15.859,10.15,1.6242,15.522,-4.0912,-8.4164,30.111,-38.785,8.967,-10.478,-2.6259,9.3172,7.5983,3.8138,23.055
10.091,15.859,10.15,1.6242,15.522,-4.0912,-8.4164,30.111,-38.785,8.967,-10.478,-2.6259,9.3172,7.5983,3.8138,23.055
10.083,15.812,10.195,1.651,15.515,-4.1001,-8.3811,30.072,-38.927,8.9525,-10.534,-2.5726,9.3435,7.6241,3.791,23.095
10.083,15.812,10.195,1.651,15.515,-4.1001,-8.3811,30.072,-38.927,8.9525,-10.534,-2.5726,9.3435,7.6241,3.791,23.095
10.074,15.764,10.24,1.6775,15.509,-4.1093,-8.3463,30.032,-39.067,8.9377,-10.59,-2.5191,9.3693,7.6497,3.7681,23.135
10.074,15.764,10.24,1.6775,15.509,-4.1093,-8.3463,30.032,-39.067,8.9377,-10.59,-2.5191,9.3693,7.6497,3.7681,23.135
10.065,15.716,10.284,1.7039,15.503,-4.1188,-8.3118,29.991,-39.204,8.9227,-10.645,-2.4654,9.3945,7.6752,3.7452,23.174
10.065,15.716,10.284,1.7039,15.503,-4.1188,-8.3118,29.991,-39.204,8.9227,-10.645,-2.4654,9.3945,7.6752,3.7452,23.174
10.065,15.716,10.284,1.7039,15.503,-4.1188,-8.3118,29.991,-39.204,8.9227,-10.645,-2.4654,9.3945,7.6752,3.7452,23.174
10.056,15.667,10.329,1.73,15.497,-4.1286,-8.2776,29.95,-39.34,8.9074,-10.699,-2.4114,9.4191,7.7005,3.7221,23.213
10.056,15.667,10.329,1.73,15.497,-4.1286,-8.2776,29.95,-39.34,8.9074,-10.699,-2.4114,9.4191,7.7005,3.7221,23.213
10.056,15.667,10.329,1.73,15.497,-4.1286,-8.2776,29.95,-39.34,8.9074,-10.699,-2.4114,9.4191,7.7005,3.7221,23.213
10.035,15.568,10.417,1.7817,15.488,-4.1491,-8.2105,29.866,-39.605,8.8761,-10.806,-2.3028,9.4667,7.7508,3.6759,23.29
10.035,15.568,10.417,1.7817,15.488,-4.1491,-8.2105,29.866,-39.605,8.8761,-10.806,-2.3028,9.4667,7.7508,3.6759,23.29
10.035,15.568,10.417,1.7817,15.488,-4.1491,-8.2105,29.866,-39.605,8.8761,-10.806,-2.3028,9.4667,7.7508,3.6759,23.29
10.024,15.519,10.461,1.8072,15.484,-4.1599,-8.1775,29.823,-39.734,8.8601,-10.859,-2.2481,9.4896,7.7757,3.6527,23.328
10.024,15.519,10.461,1.8072,15.484,-4.1599,-8.1775,29.823,-39.734,8.8601,-10.859,-2.2481,9.4896,7.7757,3.6527,23.328
10.024,15.519,10.461,1.8072,15.484,-4.1599,-8.1775,29.823,-39.734,8.8601,-10.859,-2.2481,9.4896,7.7757,3.6527,23.328
10.012,15.468,10.505,1.8325,15.481,-4.1709,-8.1449,29.78,-39.862,8.8438,-10.911,-2.1932,9.512,7.8004,3.6295,23.366
10,15.418,10.549,1.8576,15.478,-4.1823,-8.1127,29.736,-39.987,8.8273,-10.962,-2.138,9.5338,7.825,3.6061,23.403
9.9872,15.367,10.592,1.8824,15.476,-4.194,-8.0808,29.691,-40.11,8.8105,-11.013,-2.0827,9.555,7.8495,3.5828,23.44
9.9872,15.367,10.592,1.8824,15.476,-4.194,-8.0808,29.691,-40.11,8.8105,-11.013,-2.0827,9.555,7.8495,3.5828,23.44
9.9739,15.315,10.636,1.9071,15.474,-4.206,-8.0494,29.646,-40.231,8.7934,-11.063,-2.0271,9.5757,7.8738,3.5593,23.476
9.96,15.264,10.679,1.9315,15.472,-4.2183,-8.0183,29.6,-40.35,8.776,-11.112,-1.9713,9.5958,7.8979,3.5358,23.513
9.96,15.264,10.679,1.9315,15.472,-4.2183,-8.0183,29.6,-40.35,8.776,-11.112,-1.9713,9.5958,7.8979,3.5358,23.513
9.96,15.264,10.679,1.9315,15.472,-4.2183,-8.0183,29.6,-40.35,8.776,-11.112,-1.9713,9.5958,7.8979,3.5358,23.513
9.9456,15.212,10.722,1.9558,15.471,-4.2309,-7.9876,29.554,-40.467,8.7584,-11.161,-1.9153,9.6154,7.9219,3.5123,23.548
9.9456,15.212,10.722,1.9558,15.471,-4.2309,-7.9876,29.554,-40.467,8.7584,-11.161,-1.9153,9.6154,7.9219,3.5123,23.548
9.9456,15.212,10.722,1.9558,15.471,-4.2309,-7.9876,29.554,-40.467,8.7584,-11.161,-1.9153,9.6154,7.9219,3.5123,23.548
9.9308,15.159,10.765,1.9798,15.47,-4.2439,-7.9573,29.507,-40.582,8.7405,-11.21,-1.859,9.6345,7.9458,3.4887,23.584
9.9308,15.159,10.765,1.9798,15.47,-4.2439,-7.9573,29.507,-40.582,8.7405,-11.21,-1.859,9.6345,7.9458,3.4887,23.584
9.9154,15.106,10.807,2.0036,15.47,-4.2571,-7.9274,29.46,-40.695,8.7224,-11.257,-1.8026,9.653,7.9694,3.465,23.619
9.9154,15.106,10.807,2.0036,15.47,-4.2571,-7.9274,29.46,-40.695,8.7224,-11.257,-1.8026,9.653,7.9694,3.465,23.619
9.9154,15.106,10.807,2.0036,15.47,-4.2571,-7.9274,29.46,-40.695,8.7224,-11.257,-1.8026,9.653,7.9694,3.465,23.619
9.9154,15.106,10.807,2.0036,15.47,-4.2571,-7.9274,29.46,-40.695,8.7224,-11.257,-1.8026,9.653,7.9694,3.465,23.619
9.8831,14.999,10.892,2.0505,15.472,-4.2845,-7.8687,29.364,-40.914,8.6852,-11.351,-1.689,9.6883,8.0163,3.4176,23.688
9.8831,14.999,10.892,2.0505,15.472,-4.2845,-7.8687,29.364,-40.914,8.6852,-11.351,-1.689,9.6883,8.0163,3.4176,23.688
9.8662,14.945,10.934,2.0736,15.473,-4.2987,-7.84,29.315,-41.02,8.6662,-11.397,-1.6319,9.7052,8.0396,3.3938,23.722
9.8662,14.945,10.934,2.0736,15.473,-4.2987,-7.84,29.315,-41.02,8.6662,-11.397,-1.6319,9.7052,8.0396,3.3938,23.722
9.8488,14.891,10.976,2.0966,15.475,-4.3132,-7.8117,29.265,-41.125,8.6469,-11.442,-1.5747,9.7216,8.0626,3.3699,23.755
9.8488,14.891,10.976,2.0966,15.475,-4.3132,-7.8117,29.265,-41.125,8.6469,-11.442,-1.5747,9.7216,8.0626,3.3699,23.755
9.8488,14.891,10.976,2.0966,15.475,-4.3132,-7.8117,29.265,-41.125,8.6469,-11.442,-1.5747,9.7216,8.0626,3.3699,23.755
9.8125,14.781,11.059,2.1418,15.479,-4.3431,-7.7562,29.165,-41.327,8.6074,-11.531,-1.4594,9.7527,8.1083,3.3221,23.822
9.8125,14.781,11.059,2.1418,15.479,-4.3431,-7.7562,29.165,-41.327,8.6074,-11.531,-1.4594,9.7527,8.1083,3.3221,23.822
9.7936,14.725,11.1,2.1641,15.483,-4.3585,-7.7291,29.114,-41.426,8.5872,-11.575,-1.4015,9.7675,8.1309,3.2981,23.854
9.7936,14.725,11.1,2.1641,15.483,-4.3585,-7.7291,29.114,-41.426,8.5872,-11.575,-1.4015,9.7675,8.1309,3.2981,23.854
9.7936,14.725,11.1,2.1641,15.483,-4.3585,-7.7291,29.114,-41.426,8.5872,-11.575,-1.4015,9.7675,8.1309,3.2981,23.854
9.7743,14.669,11.141,2.1862,15.486,-4.3742,-7.7023,29.062,-41.522,8.5667,-11.618,-1.3434,9.7817,8.1533,3.2741,23.886
9.7743,14.669,11.141,2.1862,15.486,-4.3742,-7.7023,29.062,-41.522,8.5667,-11.618,-1.3434,9.7817,8.1533,3.2741,23.886
9.7545,14.613,11.182,2.208,15.49,-4.3903,-7.676,29.01,-41.616,8.5459,-11.66,-1.2851,9.7955,8.1756,3.2501,23.918
9.7545,14.613,11.182,2.208,15.49,-4.3903,-7.676,29.01,-41.616,8.5459,-11.66,-1.2851,9.7955,8.1756,3.2501,23.918
9.7342,14.556,11.223,2.2297,15.495,-4.4066,-7.6501,28.957,-41.707,8.5249,-11.702,-1.2266,9.8087,8.1977,3.226,23.949
9.7342,14.556,11.223,2.2297,15.495,-4.4066,-7.6501,28.957,-41.707,8.5249,-11.702,-1.2266,9.8087,8.1977,3.226,23.949
9.7342,14.556,11.223,2.2297,15.495,-4.4066,-7.6501,28.957,-41.707,8.5249,-11.702,-1.2266,9.8087,8.1977,3.226,23.949
9.6922,14.442,11.304,2.2724,15.505,-4.4402,-7.5994,28.851,-41.885,8.4818,-11.783,-1.109,9.8337,8.2414,3.1776,24.011
9.6922,14.442,11.304,2.2724,15.505,-4.4402,-7.5994,28.851,-41.885,8.4818,-11.783,-1.109,9.8337,8.2414,3.1776,24.011
9.6922,14.442,11.304,2.2724,15.505,-4.4402,-7.5994,28.851,-41.885,8.4818,-11.783,-1.109,9.8337,8.2414,3.1776,24.011
9.6705,14.384,11.344,2.2934,15.511,-4.4574,-7.5747,28.797,-41.971,8.4598,-11.823,-1.0499,9.8454,8.263,3.1534,24.041
9.6705,14.384,11.344,2.2934,15.511,-4.4574,-7.5747,28.797,-41.971,8.4598,-11.823,-1.0499,9.8454,8.263,3.1534,24.041
9.6484,14.326,11.385,2.3142,15.517,-4.4749,-7.5504,28.742,-42.054,8.4375,-11.863,-0.99067,9.8567,8.2845,3.1292,24.071
9.6258,14.268,11.424,2.3348,15.524,-4.4927,-7.5265,28.687,-42.136,8.4148,-11.901,-0.93121,9.8674,8.3058,3.1049,24.101
9.6258,14.268,11.424,2.3348,15.524,-4.4927,-7.5265,28.687,-42.136,8.4148,-11.901,-0.93121,9.8674,8.3058,3.1049,24.101
9.6028,14.209,11.464,2.3551,15.531,-4.5108,-7.503,28.631,-42.215,8.3919,-11.94,-0.87158,9.8777,8.3269,3.0806,24.13
9.6028,14.209,11.464,2.3551,15.531,-4.5108,-7.503,28.631,-42.215,8.3919,-11.94,-0.87158,9.8777,8.3269,3.0806,24.13
9.5793,14.15,11.504,2.3753,15.539,-4.5292,-7.4799,28.575,-42.292,8.3686,-11.977,-0.81177,9.8875,8.3479,3.0562,24.159
9.5793,14.15,11.504,2.3753,15.539,-4.5292,-7.4799,28.575,-42.292,8.3686,-11.977,-0.81177,9.8875,8.3479,3.0562,24.159
9.5554,14.09,11.543,2.3952,15.547,-4.5479,-7.4572,28.519,-42.368,8.345,-12.014,-0.75177,9.8968,8.3687,3.0319,24.187
9.5554,14.09,11.543,2.3952,15.547,-4.5479,-7.4572,28.519,-42.368,8.345,-12.014,-0.75177,9.8968,8.3687,3.0319,24.187
9.5554,14.09,11.543,2.3952,15.547,-4.5479,-7.4572,28.519,-42.368,8.345,-12.014,-0.75177,9.8968,8.3687,3.0319,24.187
9.5554,14.09,11.543,2.3952,15.547,-4.5479,-7.4572,28.519,-42.368,8.345,-12.014,-0.75177,9.8968,8.3687,3.0319,24.187
9.5311,14.031,11.582,2.415,15.555,-4.5669,-7.435,28.462,-42.441,8.3211,-12.051,-0.69161,9.9056,8.3893,3.0075,24.215
9.5311,14.031,11.582,2.415,15.555,-4.5669,-7.435,28.462,-42.441,8.3211,-12.051,-0.69161,9.9056,8.3893,3.0075,24.215
9.4811,13.91,11.66,2.4538,15.573,-4.6058,-7.3917,28.346,-42.581,8.2723,-12.122,-0.57075,9.9219,8.4301,2.9586,24.27
9.4811,13.91,11.66,2.4538,15.573,-4.6058,-7.3917,28.346,-42.581,8.2723,-12.122,-0.57075,9.9219,8.4301,2.9586,24.27
9.4811,13.91,11.66,2.4538,15.573,-4.6058,-7.3917,28.346,-42.581,8.2723,-12.122,-0.57075,9.9219,8.4301,2.9586,24.27
9.4555,13.849,11.698,2.4729,15.583,-4.6256,-7.3707,28.288,-42.648,8.2473,-12.157,-0.51007,9.9293,8.4502,2.9341,24.297
9.4294,13.788,11.737,2.4918,15.593,-4.6457,-7.3501,28.229,-42.713,8.2221,-12.191,-0.44923,9.9363,8.4702,2.9095,24.324
9.4294,13.788,11.737,2.4918,15.593,-4.6457,-7.3501,28.229,-42.713,8.2221,-12.191,-0.44923,9.9363,8.4702,2.9095,24.324
9.4294,13.788,11.737,2.4918,15.593,-4.6457,-7.3501,28.229,-42.713,8.2221,-12.191,-0.44923,9.9363,8.4702,2.9095,24.324
9.403,13.726,11.775,2.5105,15.604,-4.6661,-7.3299,28.17,-42.776,8.1965,-12.225,-0.38822,9.9429,8.49,2.885,24.35
9.403,13.726,11.775,2.5105,15.604,-4.6661,-7.3299,28.17,-42.776,8.1965,-12.225,-0.38822,9.9429,8.49,2.885,24.35
9.3761,13.664,11.813,2.529,15.615,-4.6868,-7.3101,28.11,-42.837,8.1706,-12.258,-0.32705,9.949,8.5096,2.8604,24.376
9.3489,13.602,11.851,2.5473,15.627,-4.7077,-7.2907,28.05,-42.896,8.1443,-12.291,-0.26572,9.9547,8.5291,2.8358,24.401
9.3212,13.539,11.888,2.5653,15.639,-4.729,-7.2718,27.989,-42.953,8.1177,-12.323,-0.20423,9.9599,8.5484,2.8112,24.426
9.3212,13.539,11.888,2.5653,15.639,-4.729,-7.2718,27.989,-42.953,8.1177,-12.323,-0.20423,9.9599,8.5484,2.8112,24.426
9.2932,13.477,11.926,2.5832,15.651,-4.7504,-7.2533,27.928,-43.008,8.0907,-12.354,-0.1426,9.9647,8.5676,2.7866,24.451
9.2932,13.477,11.926,2.5832,15.651,-4.7504,-7.2533,27.928,-43.008,8.0907,-12.354,-0.1426,9.9647,8.5676,2.7866,24.451
9.2932,13.477,11.926,2.5832,15.651,-4.7504,-7.2533,27.928,-43.008,8.0907,-12.354,-0.1426,9.9647,8.5676,2.7866,24.451
9.2648,13.413,11.963,2.6008,15.664,-4.7722,-7.2352,27.866,-43.061,8.0634,-12.385,-0.080806,9.9691,8.5866,2.762,24.475
9.2648,13.413,11.963,2.6008,15.664,-4.7722,-7.2352,27.866,-43.061,8.0634,-12.385,-0.080806,9.9691,8.5866,2.762,24.475
9.2648,13.413,11.963,2.6008,15.664,-4.7722,-7.2352,27.866,-43.061,8.0634,-12.385,-0.080806,9.9691,8.5866,2.762,24.475
9.2067,13.286,12.037,2.6355,15.69,-4.8165,-7.2002,27.742,-43.16,8.0078,-12.445,0.043215,9.9767,8.624,2.7126,24.522
9.2067,13.286,12.037,2.6355,15.69,-4.8165,-7.2002,27.742,-43.16,8.0078,-12.445,0.043215,9.9767,8.624,2.7126,24.522
9.2067,13.286,12.037,2.6355,15.69,-4.8165,-7.2002,27.742,-43.16,8.0078,-12.445,0.043215,9.9767,8.624,2.7126,24.522
9.1772,13.222,12.074,2.6525,15.704,-4.839,-7.1833,27.679,-43.207,7.9794,-12.475,0.10544,9.9798,8.6425,2.6879,24.545
9.1772,13.222,12.074,2.6525,15.704,-4.839,-7.1833,27.679,-43.207,7.9794,-12.475,0.10544,9.9798,8.6425,2.6879,24.545
9.1472,13.157,12.11,2.6694,15.719,-4.8618,-7.1669,27.616,-43.252,7.9507,-12.503,0.16781,9.9826,8.6608,2.6632,24.568
9.1472,13.157,12.11,2.6694,15.719,-4.8618,-7.1669,27.616,-43.252,7.9507,-12.503,0.16781,9.9826,8.6608,2.6632,24.568
9.1472,13.157,12.11,2.6694,15.719,-4.8618,-7.1669,27.616,-43.252,7.9507,-12.503,0.16781,9.9826,8.6608,2.6632,24.568
9.1169,13.092,12.147,2.686,15.733,-4.8849,-7.1509,27.552,-43.295,7.9216,-12.532,0.23031,9.985,8.6789,2.6384,24.59
9.1169,13.092,12.147,2.686,15.733,-4.8849,-7.1509,27.552,-43.295,7.9216,-12.532,0.23031,9.985,8.6789,2.6384,24.59
9.0863,13.027,12.183,2.7024,15.749,-4.9082,-7.1353,27.488,-43.336,7.8921,-12.559,0.29295,9.987,8.6969,2.6137,24.612
9.0863,13.027,12.183,2.7024,15.749,-4.9082,-7.1353,27.488,-43.336,7.8921,-12.559,0.29295,9.987,8.6969,2.6137,24.612
9.0552,12.962,12.219,2.7186,15.764,-4.9317,-7.1201,27.423,-43.375,7.8623,-12.587,0.35573,9.9886,8.7147,2.5889,24.634
9.0552,12.962,12.219,2.7186,15.764,-4.9317,-7.1201,27.423,-43.375,7.8623,-12.587,0.35573,9.9886,8.7147,2.5889,24.634
9.0239,12.896,12.255,2.7347,15.78,-4.9555,-7.1054,27.358,-43.412,7.8321,-12.613,0.41863,9.9898,8.7324,2.5642,24.655
9.0239,12.896,12.255,2.7347,15.78,-4.9555,-7.1054,27.358,-43.412,7.8321,-12.613,0.41863,9.9898,8.7324,2.5642,24.655
8.9922,12.83,12.291,2.7505,15.797,-4.9795,-7.0911,27.293,-43.448,7.8016,-12.64,0.48166,9.9907,8.7499,2.5394,24.676
8.9922,12.83,12.291,2.7505,15.797,-4.9795,-7.0911,27.293,-43.448,7.8016,-12.64,0.48166,9.9907,8.7499,2.5394,24.676
8.9601,12.763,12.326,2.7661,15.814,-5.0038,-7.0772,27.227,-43.481,7.7707,-12.665,0.54481,9.9912,8.7672,2.5146,24.696
8.9601,12.763,12.326,2.7661,15.814,-5.0038,-7.0772,27.227,-43.481,7.7707,-12.665,0.54481,9.9912,8.7672,2.5146,24.696
8.9277,12.697,12.361,2.7815,15.831,-5.0283,-7.0637,27.161,-43.512,7.7394,-12.69,0.60809,9.9913,8.7843,2.4898,24.716
8.9277,12.697,12.361,2.7815,15.831,-5.0283,-7.0637,27.161,-43.512,7.7394,-12.69,0.60809,9.9913,8.7843,2.4898,24.716
8.8619,12.562,12.431,2.8118,15.866,-5.078,-7.038,27.027,-43.569,7.6757,-12.739,0.73499,9.9905,8.8181,2.4401,24.755
8.8619,12.562,12.431,2.8118,15.866,-5.078,-7.038,27.027,-43.569,7.6757,-12.739,0.73499,9.9905,8.8181,2.4401,24.755
8.8619,12.562,12.431,2.8118,15.866,-5.078,-7.038,27.027,-43.569,7.6757,-12.739,0.73499,9.9905,8.8181,2.4401,24.755
8.8286,12.495,12.466,2.8266,15.885,-5.1032,-7.0258,26.96,-43.595,7.6432,-12.763,0.79861,9.9896,8.8347,2.4153,24.774
8.8286,12.495,12.466,2.8266,15.885,-5.1032,-7.0258,26.96,-43.595,7.6432,-12.763,0.79861,9.9896,8.8347,2.4153,24.774
8.7949,12.427,12.501,2.8412,15.903,-5.1286,-7.014,26.892,-43.619,7.6104,-12.786,0.86235,9.9884,8.8512,2.3904,24.792
8.7949,12.427,12.501,2.8412,15.903,-5.1286,-7.014,26.892,-43.619,7.6104,-12.786,0.86235,9.9884,8.8512,2.3904,24.792
8.7949,12.427,12.501,2.8412,15.903,-5.1286,-7.014,26.892,-43.619,7.6104,-12.786,0.86235,9.9884,8.8512,2.3904,24.792
8.7609,12.358,12.535,2.8557,15.922,-5.1542,-7.0027,26.824,-43.641,7.5772,-12.809,0.92619,9.9869,8.8675,2.3656,24.81
8.7609,12.358,12.535,2.8557,15.922,-5.1542,-7.0027,26.824,-43.641,7.5772,-12.809,0.92619,9.9869,8.8675,2.3656,24.81
8.7265,12.29,12.569,2.8699,15.942,-5.1801,-6.9917,26.756,-43.661,7.5437,-12.831,0.99013,9.985,8.8837,2.3408,24.828
8.6919,12.221,12.604,2.8839,15.962,-5.2062,-6.9812,26.687,-43.679,7.5097,-12.853,1.0542,9.9828,8.8996,2.3159,24.845
8.6919,12.221,12.604,2.8839,15.962,-5.2062,-6.9812,26.687,-43.679,7.5097,-12.853,1.0542,9.9828,8.8996,2.3159,24.845
8.657,12.152,12.637,2.8978,15.982,-5.2324,-6.9711,26.618,-43.696,7.4754,-12.874,1.1183,9.9803,8.9155,2.291,24.862
8.657,12.152,12.637,2.8978,15.982,-5.2324,-6.9711,26.618,-43.696,7.4754,-12.874,1.1183,9.9803,8.9155,2.291,24.862
8.657,12.152,12.637,2.8978,15.982,-5.2324,-6.9711,26.618,-43.696,7.4754,-12.874,1.1183,9.9803,8.9155,2.291,24.862
8.6218,12.083,12.671,2.9115,16.003,-5.2589,-6.9615,26.548,-43.71,7.4406,-12.895,1.1826,9.9775,8.9311,2.2662,24.878
8.6218,12.083,12.671,2.9115,16.003,-5.2589,-6.9615,26.548,-43.71,7.4406,-12.895,1.1826,9.9775,8.9311,2.2662,24.878
8.5863,12.013,12.705,2.9249,16.024,-5.2856,-6.9522,26.478,-43.723,7.4055,-12.915,1.2469,9.9744,8.9466,2.2413,24.894
8.5863,12.013,12.705,2.9249,16.024,-5.2856,-6.9522,26.478,-43.723,7.4055,-12.915,1.2469,9.9744,8.9466,2.2413,24.894
8.5863,12.013,12.705,2.9249,16.024,-5.2856,-6.9522,26.478,-43.723,7.4055,-12.915,1.2469,9.9744,8.9466,2.2413,24.894
8.5145,11.873,12.771,2.9513,16.067,-5.3396,-6.935,26.337,-43.743,7.334,-12.955,1.3758,9.9674,8.9771,2.1916,24.925
8.5145,11.873,12.771,2.9513,16.067,-5.3396,-6.935,26.337,-43.743,7.334,-12.955,1.3758,9.9674,8.9771,2.1916,24.925
8.4782,11.802,12.805,2.9642,16.089,-5.3669,-6.927,26.266,-43.751,7.2977,-12.974,1.4404,9.9635,8.992,2.1667,24.94
8.4782,11.802,12.805,2.9642,16.089,-5.3669,-6.927,26.266,-43.751,7.2977,-12.974,1.4404,9.9635,8.992,2.1667,24.94
8.4782,11.802,12.805,2.9642,16.089,-5.3669,-6.927,26.266,-43.751,7.2977,-12.974,1.4404,9.9635,8.992,2.1667,24.94
8.4782,11.802,12.805,2.9642,16.089,-5.3669,-6.927,26.266,-43.751,7.2977,-12.974,1.4404,9.9635,8.992,2.1667,24.94
8.4047,11.66,12.87,2.9894,16.134,-5.422,-6.9124,26.123,-43.76,7.2239,-13.01,1.5699,9.9548,9.0215,2.117,24.968
8.3676,11.589,12.903,3.0018,16.157,-5.4499,-6.9057,26.051,-43.763,7.1863,-13.028,1.6347,9.9501,9.036,2.0921,24.982
8.3676,11.589,12.903,3.0018,16.157,-5.4499,-6.9057,26.051,-43.763,7.1863,-13.028,1.6347,9.9501,9.036,2.0921,24.982
8.3676,11.589,12.903,3.0018,16.157,-5.4499,-6.9057,26.051,-43.763,7.1863,-13.028,1.6347,9.9501,9.036,2.0921,24.982
8.3676,11.589,12.903,3.0018,16.157,-5.4499,-6.9057,26.051,-43.763,7.1863,-13.028,1.6347,9.9501,9.036,2.0921,24.982
8.3303,11.517,12.935,3.0139,16.181,-5.4779,-6.8994,25.979,-43.763,7.1484,-13.045,1.6996,9.9451,9.0503,2.0672,24.995
8.3303,11.517,12.935,3.0139,16.181,-5.4779,-6.8994,25.979,-43.763,7.1484,-13.045,1.6996,9.9451,9.0503,2.0672,24.995
8.3303,11.517,12.935,3.0139,16.181,-5.4779,-6.8994,25.979,-43.763,7.1484,-13.045,1.6996,9.9451,9.0503,2.0672,24.995
8.2927,11.446,12.967,3.0259,16.205,-5.5061,-6.8936,25.907,-43.762,7.1101,-13.062,1.7646,9.94,9.0645,2.0424,25.008
8.2927,11.446,12.967,3.0259,16.205,-5.5061,-6.8936,25.907,-43.762,7.1101,-13.062,1.7646,9.94,9.0645,2.0424,25.008
8.2168,11.301,13.031,3.0493,16.254,-5.5631,-6.8831,25.76,-43.755,7.0322,-13.094,1.8947,9.9289,9.0923,1.9927,25.032
8.2168,11.301,13.031,3.0493,16.254,-5.5631,-6.8831,25.76,-43.755,7.0322,-13.094,1.8947,9.9289,9.0923,1.9927,25.032
8.1784,11.228,13.063,3.0607,16.279,-5.5918,-6.8786,25.687,-43.748,6.9926,-13.11,1.9599,9.923,9.106,1.9678,25.043
8.1784,11.228,13.063,3.0607,16.279,-5.5918,-6.8786,25.687,-43.748,6.9926,-13.11,1.9599,9.923,9.106,1.9678,25.043
8.1399,11.155,13.095,3.072,16.304,-5.6207,-6.8744,25.613,-43.74,6.9527,-13.125,2.0251,9.9169,9.1195,1.943,25.055
8.1399,11.155,13.095,3.072,16.304,-5.6207,-6.8744,25.613,-43.74,6.9527,-13.125,2.0251,9.9169,9.1195,1.943,25.055
8.1012,11.082,13.126,3.0831,16.329,-5.6497,-6.8707,25.539,-43.731,6.9123,-13.14,2.0904,9.9106,9.1329,1.9181,25.065
8.1012,11.082,13.126,3.0831,16.329,-5.6497,-6.8707,25.539,-43.731,6.9123,-13.14,2.0904,9.9106,9.1329,1.9181,25.065
8.0622,11.009,13.157,3.094,16.355,-5.6789,-6.8674,25.464,-43.72,6.8715,-13.154,2.1557,9.9041,9.1461,1.8933,25.076
8.0622,11.009,13.157,3.094,16.355,-5.6789,-6.8674,25.464,-43.72,6.8715,-13.154,2.1557,9.9041,9.1461,1.8933,25.076
8.023,10.935,13.189,3.1047,16.382,-5.7083,-6.8645,25.389,-43.707,6.8303,-13.168,2.221,9.8975,9.1591,1.8685,25.086
8.023,10.935,13.189,3.1047,16.382,-5.7083,-6.8645,25.389,-43.707,6.8303,-13.168,2.221,9.8975,9.1591,1.8685,25.086
7.9836,10.861,13.22,3.1152,16.408,-5.7378,-6.862,25.314,-43.693,6.7886,-13.182,2.2865,9.8906,9.172,1.8436,25.095
7.9836,10.861,13.22,3.1152,16.408,-5.7378,-6.862,25.314,-43.693,6.7886,-13.182,2.2865,9.8906,9.172,1.8436,25.095
7.944,10.787,13.25,3.1256,16.435,-5.7675,-6.86,25.239,-43.677,6.7466,-13.195,2.3519,9.8836,9.1847,1.8188,25.104
7.944,10.787,13.25,3.1256,16.435,-5.7675,-6.86,25.239,-43.677,6.7466,-13.195,2.3519,9.8836,9.1847,1.8188,25.104
7.9042,10.713,13.281,3.1358,16.462,-5.7973,-6.8584,25.163,-43.66,6.7041,-13.207,2.4174,9.8764,9.1972,1.794,25.113
7.9042,10.713,13.281,3.1358,16.462,-5.7973,-6.8584,25.163,-43.66,6.7041,-13.207,2.4174,9.8764,9.1972,1.794,25.113
7.9042,10.713,13.281,3.1358,16.462,-5.7973,-6.8584,25.163,-43.66,6.7041,-13.207,2.4174,9.8764,9.1972,1.794,25.113
7.8643,10.638,13.312,3.1458,16.49,-5.8272,-6.8572,25.087,-43.641,6.6612,-13.22,2.4829,9.869,9.2096,1.7692,25.121
7.8643,10.638,13.312,3.1458,16.49,-5.8272,-6.8572,25.087,-43.641,6.6612,-13.22,2.4829,9.869,9.2096,1.7692,25.121
7.8643,10.638,13.312,3.1458,16.49,-5.8272,-6.8572,25.087,-43.641,6.6612,-13.22,2.4829,9.869,9.2096,1.7692,25.121
7.7838,10.488,13.372,3.1653,16.546,-5.8875,-6.8561,24.935,-43.598,6.5742,-13.244,2.6141,9.8538,9.2339,1.7196,25.136
7.7838,10.488,13.372,3.1653,16.546,-5.8875,-6.8561,24.935,-43.598,6.5742,-13.244,2.6141,9.8538,9.2339,1.7196,25.136
7.7433,10.413,13.402,3.1749,16.574,-5.9179,-6.8561,24.858,-43.575,6.53,-13.255,2.6797,9.846,9.2458,1.6949,25.143
7.7433,10.413,13.402,3.1749,16.574,-5.9179,-6.8561,24.858,-43.575,6.53,-13.255,2.6797,9.846,9.2458,1.6949,25.143
7.7026,10.338,13.432,3.1842,16.603,-5.9484,-6.8566,24.781,-43.55,6.4854,-13.266,2.7453,9.838,9.2575,1.6701,25.15
7.7026,10.338,13.432,3.1842,16.603,-5.9484,-6.8566,24.781,-43.55,6.4854,-13.266,2.7453,9.838,9.2575,1.6701,25.15
7.7026,10.338,13.432,3.1842,16.603,-5.9484,-6.8566,24.781,-43.55,6.4854,-13.266,2.7453,9.838,9.2575,1.6701,25.15
7.6618,10.262,13.462,3.1934,16.632,-5.979,-6.8575,24.703,-43.524,6.4404,-13.277,2.811,9.83,9.2691,1.6453,25.156
7.6618,10.262,13.462,3.1934,16.632,-5.979,-6.8575,24.703,-43.524,6.4404,-13.277,2.811,9.83,9.2691,1.6453,25.156
7.5797,10.11,13.521,3.2112,16.692,-6.0406,-6.8606,24.548,-43.466,6.3491,-13.297,2.9423,9.8135,9.2918,1.5958,25.167
7.5797,10.11,13.521,3.2112,16.692,-6.0406,-6.8606,24.548,-43.466,6.3491,-13.297,2.9423,9.8135,9.2918,1.5958,25.167
7.5797,10.11,13.521,3.2112,16.692,-6.0406,-6.8606,24.548,-43.466,6.3491,-13.297,2.9423,9.8135,9.2918,1.5958,25.167
7.5384,10.033,13.551,3.2199,16.722,-6.0715,-6.8628,24.47,-43.436,6.3028,-13.307,3.008,9.8051,9.3029,1.5711,25.172
7.5384,10.033,13.551,3.2199,16.722,-6.0715,-6.8628,24.47,-43.436,6.3028,-13.307,3.008,9.8051,9.3029,1.5711,25.172
7.497,9.9566,13.58,3.2284,16.752,-6.1026,-6.8654,24.392,-43.404,6.2561,-13.316,3.0737,9.7966,9.3138,1.5464,25.176
7.497,9.9566,13.58,3.2284,16.752,-6.1026,-6.8654,24.392,-43.404,6.2561,-13.316,3.0737,9.7966,9.3138,1.5464,25.176
7.4554,9.8797,13.609,3.2368,16.783,-6.1338,-6.8684,24.313,-43.37,6.2089,-13.325,3.1394,9.788,9.3246,1.5217,25.18
7.4554,9.8797,13.609,3.2368,16.783,-6.1338,-6.8684,24.313,-43.37,6.2089,-13.325,3.1394,9.788,9.3246,1.5217,25.18
7.4138,9.8027,13.638,3.245,16.813,-6.1651,-6.8718,24.234,-43.336,6.1613,-13.333,3.2051,9.7793,9.3352,1.497,25.184
7.4138,9.8027,13.638,3.245,16.813,-6.1651,-6.8718,24.234,-43.336,6.1613,-13.333,3.2051,9.7793,9.3352,1.497,25.184
7.3719,9.7255,13.667,3.253,16.845,-6.1965,-6.8756,24.155,-43.299,6.1133,-13.342,3.2708,9.7706,9.3457,1.4723,25.187
7.3719,9.7255,13.667,3.253,16.845,-6.1965,-6.8756,24.155,-43.299,6.1133,-13.342,3.2708,9.7706,9.3457,1.4723,25.187
7.33,9.648,13.695,3.2609,16.876,-6.228,-6.8799,24.076,-43.262,6.0648,-13.35,3.3365,9.7618,9.356,1.4476,25.19
7.33,9.648,13.695,3.2609,16.876,-6.228,-6.8799,24.076,-43.262,6.0648,-13.35,3.3365,9.7618,9.356,1.4476,25.19
7.288,9.5703,13.724,3.2687,16.908,-6.2597,-6.8845,23.997,-43.223,6.0159,-13.358,3.4022,9.7529,9.3662,1.4229,25.192
7.288,9.5703,13.724,3.2687,16.908,-6.2597,-6.8845,23.997,-43.223,6.0159,-13.358,3.4022,9.7529,9.3662,1.4229,25.192
7.288,9.5703,13.724,3.2687,16.908,-6.2597,-6.8845,23.997,-43.223,6.0159,-13.358,3.4022,9.7529,9.3662,1.4229,25.192
7.2458,9.4925,13.752,3.2762,16.94,-6.2914,-6.8896,23.917,-43.183,5.9666,-13.365,3.4678,9.744,9.3762,1.3983,25.194
7.2458,9.4925,13.752,3.2762,16.94,-6.2914,-6.8896,23.917,-43.183,5.9666,-13.365,3.4678,9.744,9.3762,1.3983,25.194
7.2036,9.4144,13.781,3.2836,16.972,-6.3232,-6.8951,23.837,-43.142,5.9168,-13.372,3.5335,9.735,9.386,1.3736,25.196
7.1612,9.3362,13.809,3.2909,17.005,-6.3551,-6.901,23.757,-43.099,5.8666,-13.379,3.5991,9.726,9.3957,1.349,25.197
7.1612,9.3362,13.809,3.2909,17.005,-6.3551,-6.901,23.757,-43.099,5.8666,-13.379,3.5991,9.726,9.3957,1.349,25.197
7.1188,9.2578,13.837,3.298,17.038,-6.387,-6.9073,23.677,-43.056,5.816,-13.386,3.6647,9.717,9.4052,1.3244,25.198
7.1188,9.2578,13.837,3.298,17.038,-6.387,-6.9073,23.677,-43.056,5.816,-13.386,3.6647,9.717,9.4052,1.3244,25.198
7.0763,9.1792,13.865,3.305,17.071,-6.4191,-6.9141,23.596,-43.011,5.7649,-13.392,3.7303,9.7079,9.4145,1.2998,25.198
7.0763,9.1792,13.865,3.305,17.071,-6.4191,-6.9141,23.596,-43.011,5.7649,-13.392,3.7303,9.7079,9.4145,1.2998,25.198
7.0763,9.1792,13.865,3.305,17.071,-6.4191,-6.9141,23.596,-43.011,5.7649,-13.392,3.7303,9.7079,9.4145,1.2998,25.198
7.0337,9.1004,13.892,3.3118,17.104,-6.4513,-6.9212,23.515,-42.964,5.7134,-13.398,3.7958,9.6988,9.4237,1.2752,25.198
7.0337,9.1004,13.892,3.3118,17.104,-6.4513,-6.9212,23.515,-42.964,5.7134,-13.398,3.7958,9.6988,9.4237,1.2752,25.198
6.991,9.0214,13.92,3.3185,17.138,-6.4835,-6.9288,23.434,-42.917,5.6614,-13.404,3.8614,9.6897,9.4328,1.2506,25.197
6.991,9.0214,13.92,3.3185,17.138,-6.4835,-6.9288,23.434,-42.917,5.6614,-13.404,3.8614,9.6897,9.4328,1.2506,25.197
6.991,9.0214,13.92,3.3185,17.138,-6.4835,-6.9288,23.434,-42.917,5.6614,-13.404,3.8614,9.6897,9.4328,1.2506,25.197
6.9055,8.8629,13.975,3.3313,17.206,-6.5482,-6.9451,23.272,-42.819,5.5562,-13.415,3.9923,9.6715,9.4504,1.2014,25.194
6.9055,8.8629,13.975,3.3313,17.206,-6.5482,-6.9451,23.272,-42.819,5.5562,-13.415,3.9923,9.6715,9.4504,1.2014,25.194
6.8626,8.7833,14.002,3.3376,17.241,-6.5806,-6.9539,23.19,-42.768,5.5029,-13.42,4.0577,9.6625,9.459,1.1769,25.192
6.8626,8.7833,14.002,3.3376,17.241,-6.5806,-6.9539,23.19,-42.768,5.5029,-13.42,4.0577,9.6625,9.459,1.1769,25.192
6.8626,8.7833,14.002,3.3376,17.241,-6.5806,-6.9539,23.19,-42.768,5.5029,-13.42,4.0577,9.6625,9.459,1.1769,25.192
6.8197,8.7036,14.029,3.3437,17.275,-6.6132,-6.9631,23.109,-42.716,5.4492,-13.425,4.123,9.6534,9.4674,1.1523,25.19
6.7767,8.6238,14.057,3.3496,17.31,-6.6458,-6.9727,23.027,-42.663,5.395,-13.43,4.1883,9.6444,9.4757,1.1278,25.187
6.7767,8.6238,14.057,3.3496,17.31,-6.6458,-6.9727,23.027,-42.663,5.395,-13.43,4.1883,9.6444,9.4757,1.1278,25.187
6.7337,8.5438,14.084,3.3554,17.345,-6.6784,-6.9827,22.945,-42.609,5.3404,-13.434,4.2536,9.6354,9.4838,1.1033,25.184
6.7337,8.5438,14.084,3.3554,17.345,-6.6784,-6.9827,22.945,-42.609,5.3404,-13.434,4.2536,9.6354,9.4838,1.1033,25.184
6.6907,8.4636,14.11,3.361,17.381,-6.7112,-6.9931,22.862,-42.554,5.2853,-13.439,4.3188,9.6264,9.4917,1.0788,25.18
6.6476,8.3832,14.137,3.3666,17.417,-6.7439,-7.0039,22.78,-42.498,5.2298,-13.443,4.3839,9.6175,9.4995,1.0543,25.176
6.6476,8.3832,14.137,3.3666,17.417,-6.7439,-7.0039,22.78,-42.498,5.2298,-13.443,4.3839,9.6175,9.4995,1.0543,25.176
6.6476,8.3832,14.137,3.3666,17.417,-6.7439,-7.0039,22.78,-42.498,5.2298,-13.443,4.3839,9.6175,9.4995,1.0543,25.176
6.6045,8.3027,14.164,3.3719,17.452,-6.7768,-7.0151,22.697,-42.441,5.1739,-13.447,4.449,9.6086,9.5071,1.0298,25.172
6.6045,8.3027,14.164,3.3719,17.452,-6.7768,-7.0151,22.697,-42.441,5.1739,-13.447,4.449,9.6086,9.5071,1.0298,25.172
6.5614,8.222,14.19,3.3772,17.489,-6.8097,-7.0268,22.614,-42.383,5.1175,-13.45,4.514,9.5998,9.5146,1.0053,25.167
6.5183,8.1412,14.217,3.3823,17.525,-6.8427,-7.0388,22.531,-42.324,5.0607,-13.454,4.5789,9.5911,9.5219,0.98085,25.161
6.5183,8.1412,14.217,3.3823,17.525,-6.8427,-7.0388,22.531,-42.324,5.0607,-13.454,4.5789,9.5911,9.5219,0.98085,25.161
6.5183,8.1412,14.217,3.3823,17.525,-6.8427,-7.0388,22.531,-42.324,5.0607,-13.454,4.5789,9.5911,9.5219,0.98085,25.161
6.4752,8.0603,14.243,3.3873,17.561,-6.8757,-7.0512,22.448,-42.264,5.0035,-13.457,4.6438,9.5825,9.529,0.9564,25.155
6.4752,8.0603,14.243,3.3873,17.561,-6.8757,-7.0512,22.448,-42.264,5.0035,-13.457,4.6438,9.5825,9.529,0.9564,25.155
6.4752,8.0603,14.243,3.3873,17.561,-6.8757,-7.0512,22.448,-42.264,5.0035,-13.457,4.6438,9.5825,9.529,0.9564,25.155
6.432,7.9791,14.269,3.3921,17.598,-6.9088,-7.064,22.365,-42.204,4.9457,-13.46,4.7085,9.5739,9.536,0.93196,25.149
6.432,7.9791,14.269,3.3921,17.598,-6.9088,-7.064,22.365,-42.204,4.9457,-13.46,4.7085,9.5739,9.536,0.93196,25.149
6.432,7.9791,14.269,3.3921,17.598,-6.9088,-7.064,22.365,-42.204,4.9457,-13.46,4.7085,9.5739,9.536,0.93196,25.149
6.3458,7.8165,14.321,3.4014,17.672,-6.9751,-7.0909,22.198,-42.079,4.829,-13.466,4.8379,9.557,9.5495,0.88311,25.135
6.3458,7.8165,14.321,3.4014,17.672,-6.9751,-7.0909,22.198,-42.079,4.829,-13.466,4.8379,9.557,9.5495,0.88311,25.135
6.3458,7.8165,14.321,3.4014,17.672,-6.9751,-7.0909,22.198,-42.079,4.829,-13.466,4.8379,9.557,9.5495,0.88311,25.135
6.3026,7.7349,14.347,3.4058,17.71,-7.0083,-7.1049,22.114,-42.016,4.77,-13.468,4.9024,9.5487,9.556,0.8587,25.127
6.3026,7.7349,14.347,3.4058,17.71,-7.0083,-7.1049,22.114,-42.016,4.77,-13.468,4.9024,9.5487,9.556,0.8587,25.127
6.2165,7.5714,14.399,3.4143,17.785,-7.0748,-7.1341,21.947,-41.886,4.6506,-13.473,5.0312,9.5325,9.5686,0.80992,25.111
6.2165,7.5714,14.399,3.4143,17.785,-7.0748,-7.1341,21.947,-41.886,4.6506,-13.473,5.0312,9.5325,9.5686,0.80992,25.111
6.2165,7.5714,14.399,3.4143,17.785,-7.0748,-7.1341,21.947,-41.886,4.6506,-13.473,5.0312,9.5325,9.5686,0.80992,25.111
6.1734,7.4894,14.424,3.4184,17.823,-7.1082,-7.1493,21.863,-41.82,4.5902,-13.475,5.0955,9.5246,9.5746,0.78554,25.102
6.1734,7.4894,14.424,3.4184,17.823,-7.1082,-7.1493,21.863,-41.82,4.5902,-13.475,5.0955,9.5246,9.5746,0.78554,25.102
6.1734,7.4894,14.424,3.4184,17.823,-7.1082,-7.1493,21.863,-41.82,4.5902,-13.475,5.0955,9.5246,9.5746,0.78554,25.102
6.1304,7.4073,14.45,3.4223,17.862,-7.1416,-7.1649,21.778,-41.753,4.5294,-13.477,5.1597,9.5168,9.5805,0.76117,25.092
6.1304,7.4073,14.45,3.4223,17.862,-7.1416,-7.1649,21.778,-41.753,4.5294,-13.477,5.1597,9.5168,9.5805,0.76117,25.092
6.0445,7.2428,14.5,3.4298,17.939,-7.2085,-7.1973,21.609,-41.617,4.4064,-13.481,5.2877,9.5016,9.5918,0.71247,25.072
6.0445,7.2428,14.5,3.4298,17.939,-7.2085,-7.1973,21.609,-41.617,4.4064,-13.481,5.2877,9.5016,9.5918,0.71247,25.072
6.0445,7.2428,14.5,3.4298,17.939,-7.2085,-7.1973,21.609,-41.617,4.4064,-13.481,5.2877,9.5016,9.5918,0.71247,25.072
6.0017,7.1603,14.526,3.4334,17.978,-7.242,-7.214,21.525,-41.548,4.3443,-13.482,5.3515,9.4942,9.5972,0.68813,25.061
6.0017,7.1603,14.526,3.4334,17.978,-7.242,-7.214,21.525,-41.548,4.3443,-13.482,5.3515,9.4942,9.5972,0.68813,25.061
6.0017,7.1603,14.526,3.4334,17.978,-7.242,-7.214,21.525,-41.548,4.3443,-13.482,5.3515,9.4942,9.5972,0.68813,25.061
5.9588,7.0777,14.551,3.4368,18.017,-7.2755,-7.2312,21.44,-41.479,4.2817,-13.484,5.4153,9.487,9.6024,0.6638,25.05
5.9588,7.0777,14.551,3.4368,18.017,-7.2755,-7.2312,21.44,-41.479,4.2817,-13.484,5.4153,9.487,9.6024,0.6638,25.05
5.9588,7.0777,14.551,3.4368,18.017,-7.2755,-7.2312,21.44,-41.479,4.2817,-13.484,5.4153,9.487,9.6024,0.6638,25.05
5.8734,6.9122,14.601,3.4433,18.095,-7.3427,-7.2666,21.27,-41.337,4.1552,-13.487,5.5424,9.473,9.6123,0.61517,25.026
5.8734,6.9122,14.601,3.4433,18.095,-7.3427,-7.2666,21.27,-41.337,4.1552,-13.487,5.5424,9.473,9.6123,0.61517,25.026
5.8308,6.8292,14.626,3.4464,18.135,-7.3764,-7.285,21.185,-41.265,4.0913,-13.488,5.6058,9.4663,9.6171,0.59086,25.014
5.8308,6.8292,14.626,3.4464,18.135,-7.3764,-7.285,21.185,-41.265,4.0913,-13.488,5.6058,9.4663,9.6171,0.59086,25.014
5.7883,6.7462,14.651,3.4493,18.174,-7.41,-7.3036,21.1,-41.193,4.0269,-13.489,5.6691,9.4598,9.6217,0.56657,25.001
5.7883,6.7462,14.651,3.4493,18.174,-7.41,-7.3036,21.1,-41.193,4.0269,-13.489,5.6691,9.4598,9.6217,0.56657,25.001
5.7883,6.7462,14.651,3.4493,18.174,-7.41,-7.3036,21.1,-41.193,4.0269,-13.489,5.6691,9.4598,9.6217,0.56657,25.001
5.7883,6.7462,14.651,3.4493,18.174,-7.41,-7.3036,21.1,-41.193,4.0269,-13.489,5.6691,9.4598,9.6217,0.56657,25.001
5.7458,6.663,14.675,3.4522,18.214,-7.4437,-7.3227,21.015,-41.12,3.9621,-13.49,5.7322,9.4534,9.6261,0.54228,24.987
5.7034,6.5797,14.7,3.4549,18.254,-7.4775,-7.3422,20.929,-41.047,3.8969,-13.491,5.7952,9.4472,9.6303,0.518,24.974
5.6612,6.4964,14.725,3.4575,18.295,-7.5112,-7.362,20.844,-40.972,3.8312,-13.492,5.8581,9.4413,9.6344,0.49373,24.959
5.619,6.4129,14.749,3.46,18.335,-7.545,-7.3822,20.758,-40.898,3.7651,-13.493,5.9208,9.4355,9.6383,0.46946,24.944
5.619,6.4129,14.749,3.46,18.335,-7.545,-7.3822,20.758,-40.898,3.7651,-13.493,5.9208,9.4355,9.6383,0.46946,24.944
5.619,6.4129,14.749,3.46,18.335,-7.545,-7.3822,20.758,-40.898,3.7651,-13.493,5.9208,9.4355,9.6383,0.46946,24.944
5.5769,6.3293,14.774,3.4624,18.375,-7.5789,-7.4028,20.673,-40.823,3.6985,-13.493,5.9834,9.43,9.642,0.44521,24.929
5.5769,6.3293,14.774,3.4624,18.375,-7.5789,-7.4028,20.673,-40.823,3.6985,-13.493,5.9834,9.43,9.642,0.44521,24.929
5.535,6.2457,14.798,3.4647,18.416,-7.6127,-7.4237,20.587,-40.747,3.6315,-13.494,6.0459,9.4247,9.6456,0.42096,24.913
5.535,6.2457,14.798,3.4647,18.416,-7.6127,-7.4237,20.587,-40.747,3.6315,-13.494,6.0459,9.4247,9.6456,0.42096,24.913
5.535,6.2457,14.798,3.4647,18.416,-7.6127,-7.4237,20.587,-40.747,3.6315,-13.494,6.0459,9.4247,9.6456,0.42096,24.913
5.4931,6.1619,14.822,3.4669,18.457,-7.6466,-7.4451,20.501,-40.671,3.5641,-13.495,6.1082,9.4196,9.649,0.39671,24.897
5.4514,6.078,14.846,3.4689,18.498,-7.6805,-7.4668,20.415,-40.594,3.4962,-13.496,6.1703,9.4147,9.6522,0.37247,24.881
5.4098,5.9941,14.871,3.4709,18.539,-7.7144,-7.4889,20.329,-40.517,3.4279,-13.496,6.2323,9.4101,9.6553,0.34824,24.864
5.4098,5.9941,14.871,3.4709,18.539,-7.7144,-7.4889,20.329,-40.517,3.4279,-13.496,6.2323,9.4101,9.6553,0.34824,24.864
5.3684,5.91,14.895,3.4727,18.58,-7.7484,-7.5113,20.243,-40.439,3.3591,-13.497,6.2942,9.4057,9.6582,0.32401,24.846
5.3684,5.91,14.895,3.4727,18.58,-7.7484,-7.5113,20.243,-40.439,3.3591,-13.497,6.2942,9.4057,9.6582,0.32401,24.846
5.3684,5.91,14.895,3.4727,18.58,-7.7484,-7.5113,20.243,-40.439,3.3591,-13.497,6.2942,9.4057,9.6582,0.32401,24.846
5.327,5.8259,14.919,3.4744,18.621,-7.7824,-7.5341,20.157,-40.361,3.2899,-13.497,6.3559,9.4015,9.6609,0.29979,24.828
5.327,5.8259,14.919,3.4744,18.621,-7.7824,-7.5341,20.157,-40.361,3.2899,-13.497,6.3559,9.4015,9.6609,0.29979,24.828
5.327,5.8259,14.919,3.4744,18.621,-7.7824,-7.5341,20.157,-40.361,3.2899,-13.497,6.3559,9.4015,9.6609,0.29979,24.828
5.2858,5.7417,14.943,3.4761,18.663,-7.8164,-7.5573,20.07,-40.283,3.2203,-13.498,6.4174,9.3976,9.6634,0.27557,24.81
5.2448,5.6574,14.966,3.4776,18.704,-7.8504,-7.5808,19.984,-40.204,3.1502,-13.498,6.4788,9.394,9.6658,0.25136,24.791
5.2448,5.6574,14.966,3.4776,18.704,-7.8504,-7.5808,19.984,-40.204,3.1502,-13.498,6.4788,9.394,9.6658,0.25136,24.791
5.2039,5.573,14.99,3.479,18.746,-7.8844,-7.6047,19.898,-40.125,3.0797,-13.499,6.54,9.3906,9.668,0.22715,24.771
5.2039,5.573,14.99,3.479,18.746,-7.8844,-7.6047,19.898,-40.125,3.0797,-13.499,6.54,9.3906,9.668,0.22715,24.771
5.1632,5.4886,15.014,3.4803,18.788,-7.9185,-7.629,19.811,-40.046,3.0088,-13.499,6.601,9.3875,9.67,0.20295,24.751
5.1632,5.4886,15.014,3.4803,18.788,-7.9185,-7.629,19.811,-40.046,3.0088,-13.499,6.601,9.3875,9.67,0.20295,24.751
5.1226,5.404,15.038,3.4815,18.83,-7.9526,-7.6536,19.725,-39.966,2.9374,-13.5,6.6619,9.3846,9.6718,0.17875,24.731
5.1226,5.404,15.038,3.4815,18.83,-7.9526,-7.6536,19.725,-39.966,2.9374,-13.5,6.6619,9.3846,9.6718,0.17875,24.731
5.0822,5.3194,15.061,3.4826,18.872,-7.9868,-7.6786,19.638,-39.886,2.8656,-13.5,6.7226,9.3821,9.6735,0.15455,24.71
5.0822,5.3194,15.061,3.4826,18.872,-7.9868,-7.6786,19.638,-39.886,2.8656,-13.5,6.7226,9.3821,9.6735,0.15455,24.71
5.042,5.2348,15.085,3.4836,18.914,-8.0209,-7.7039,19.552,-39.806,2.7934,-13.501,6.7831,9.3798,9.675,0.13036,24.689
5.002,5.15,15.109,3.4845,18.956,-8.0551,-7.7296,19.465,-39.725,2.7208,-13.501,6.8434,9.3778,9.6762,0.10617,24.668
5.002,5.15,15.109,3.4845,18.956,-8.0551,-7.7296,19.465,-39.725,2.7208,-13.501,6.8434,9.3778,9.6762,0.10617,24.668
5.002,5.15,15.109,3.4845,18.956,-8.0551,-7.7296,19.465,-39.725,2.7208,-13.501,6.8434,9.3778,9.6762,0.10617,24.668
4.9621,5.0652,15.132,3.4853,18.999,-8.0893,-7.7556,19.378,-39.644,2.6477,-13.502,6.9036,9.3761,9.6774,0.08198,24.646
4.9621,5.0652,15.132,3.4853,18.999,-8.0893,-7.7556,19.378,-39.644,2.6477,-13.502,6.9036,9.3761,9.6774,0.08198,24.646
4.9621,5.0652,15.132,3.4853,18.999,-8.0893,-7.7556,19.378,-39.644,2.6477,-13.502,6.9036,9.3761,9.6774,0.08198,24.646
4.9224,4.9803,15.155,3.486,19.041,-8.1236,-7.782,19.291,-39.563,2.5741,-13.503,6.9635,9.3747,9.6783,0.057794,24.623
4.9224,4.9803,15.155,3.486,19.041,-8.1236,-7.782,19.291,-39.563,2.5741,-13.503,6.9635,9.3747,9.6783,0.057794,24.623
4.9224,4.9803,15.155,3.486,19.041,-8.1236,-7.782,19.291,-39.563,2.5741,-13.503,6.9635,9.3747,9.6783,0.057794,24.623
4.8829,4.8954,15.179,3.4867,19.084,-8.1579,-7.8088,19.205,-39.482,2.5002,-13.503,7.0233,9.3736,9.679,0.03361,24.6
4.8829,4.8954,15.179,3.4867,19.084,-8.1579,-7.8088,19.205,-39.482,2.5002,-13.503,7.0233,9.3736,9.679,0.03361,24.6
4.8829,4.8954,15.179,3.4867,19.084,-8.1579,-7.8088,19.205,-39.482,2.5002,-13.503,7.0233,9.3736,9.679,0.03361,24.6
4.8046,4.7253,15.225,3.4876,19.169,-8.2265,-7.8633,19.031,-39.319,2.351,-13.505,7.1422,9.3724,9.68,-0.014753,24.553
4.8046,4.7253,15.225,3.4876,19.169,-8.2265,-7.8633,19.031,-39.319,2.351,-13.505,7.1422,9.3724,9.68,-0.014753,24.553
4.8046,4.7253,15.225,3.4876,19.169,-8.2265,-7.8633,19.031,-39.319,2.351,-13.505,7.1422,9.3724,9.68,-0.014753,24.553
4.727,4.555,15.272,3.4881,19.254,-8.2952,-7.9192,18.857,-39.156,2.2001,-13.506,7.2604,9.3724,9.6801,-0.063112,24.503
4.727,4.555,15.272,3.4881,19.254,-8.2952,-7.9192,18.857,-39.156,2.2001,-13.506,7.2604,9.3724,9.6801,-0.063112,24.503
4.6886,4.4698,15.295,3.4883,19.297,-8.3297,-7.9476,18.77,-39.074,2.124,-13.507,7.3192,9.3729,9.6799,-0.08729,24.478
4.6886,4.4698,15.295,3.4883,19.297,-8.3297,-7.9476,18.77,-39.074,2.124,-13.507,7.3192,9.3729,9.6799,-0.08729,24.478
4.6886,4.4698,15.295,3.4883,19.297,-8.3297,-7.9476,18.77,-39.074,2.124,-13.507,7.3192,9.3729,9.6799,-0.08729,24.478
4.6886,4.4698,15.295,3.4883,19.297,-8.3297,-7.9476,18.77,-39.074,2.124,-13.507,7.3192,9.3729,9.6799,-0.08729,24.478
4.6124,4.2991,15.341,3.4883,19.383,-8.3986,-8.0056,18.596,-38.909,1.9706,-13.509,7.4361,9.3749,9.679,-0.13565,24.426
4.5746,4.2137,15.364,3.4881,19.426,-8.4331,-8.035,18.509,-38.827,1.8933,-13.51,7.4943,9.3763,9.6782,-0.15983,24.399
4.5746,4.2137,15.364,3.4881,19.426,-8.4331,-8.035,18.509,-38.827,1.8933,-13.51,7.4943,9.3763,9.6782,-0.15983,24.399
4.5746,4.2137,15.364,3.4881,19.426,-8.4331,-8.035,18.509,-38.827,1.8933,-13.51,7.4943,9.3763,9.6782,-0.15983,24.399
4.5371,4.1283,15.387,3.4879,19.469,-8.4677,-8.0648,18.421,-38.745,1.8155,-13.512,7.5522,9.3782,9.6772,-0.18401,24.372
4.5371,4.1283,15.387,3.4879,19.469,-8.4677,-8.0648,18.421,-38.745,1.8155,-13.512,7.5522,9.3782,9.6772,-0.18401,24.372
4.4998,4.0428,15.41,3.4875,19.512,-8.5023,-8.0949,18.334,-38.663,1.7373,-13.513,7.6099,9.3804,9.676,-0.20819,24.344
4.4628,3.9573,15.433,3.4871,19.556,-8.5369,-8.1254,18.247,-38.58,1.6587,-13.514,7.6674,9.3829,9.6746,-0.23237,24.316
4.4628,3.9573,15.433,3.4871,19.556,-8.5369,-8.1254,18.247,-38.58,1.6587,-13.514,7.6674,9.3829,9.6746,-0.23237,24.316
4.4628,3.9573,15.433,3.4871,19.556,-8.5369,-8.1254,18.247,-38.58,1.6587,-13.514,7.6674,9.3829,9.6746,-0.23237,24.316
4.426,3.8717,15.456,3.4866,19.599,-8.5716,-8.1561,18.16,-38.498,1.5797,-13.516,7.7247,9.3858,9.6731,-0.25655,24.288
4.426,3.8717,15.456,3.4866,19.599,-8.5716,-8.1561,18.16,-38.498,1.5797,-13.516,7.7247,9.3858,9.6731,-0.25655,24.288
4.426,3.8717,15.456,3.4866,19.599,-8.5716,-8.1561,18.16,-38.498,1.5797,-13.516,7.7247,9.3858,9.6731,-0.25655,24.288
4.3895,3.7861,15.478,3.486,19.642,-8.6063,-8.1872,18.073,-38.416,1.5003,-13.517,7.7818,9.3891,9.6713,-0.28074,24.259
