-46.106,5.0237,-26.275,27.5,-18.122,-17.354,-30.126,13.992,-38.075,39.063,-30.866,19.052,-2.4503,3.2252,-17.418,-9.4147
-46.106,5.0237,-26.275,27.5,-18.122,-17.354,-30.126,13.992,-38.075,39.063,-30.866,19.052,-2.4503,3.2252,-17.418,-9.4147
-46.106,5.0237,-26.275,27.5,-18.122,-17.354,-30.126,13.992,-38.075,39.063,-30.866,19.052,-2.4503,3.2252,-17.418,-9.4147
-45.92,4.8175,-26.25,27.434,-18.031,-17.551,-30.04,13.796,-38.068,39.075,-30.912,19.122,-2.2656,3.0488,-17.373,-9.4993
-45.733,4.6111,-26.223,27.367,-17.939,-17.746,-29.952,13.6,-38.06,39.087,-30.958,19.191,-2.0807,2.8719,-17.327,-9.5843
-45.733,4.6111,-26.223,27.367,-17.939,-17.746,-29.952,13.6,-38.06,39.087,-30.958,19.191,-2.0807,2.8719,-17.327,-9.5843
-45.544,4.4044,-26.196,27.298,-17.847,-17.941,-29.863,13.403,-38.05,39.096,-31.004,19.258,-1.8956,2.6946,-17.281,-9.6698
-45.544,4.4044,-26.196,27.298,-17.847,-17.941,-29.863,13.403,-38.05,39.096,-31.004,19.258,-1.8956,2.6946,-17.281,-9.6698
-45.544,4.4044,-26.196,27.298,-17.847,-17.941,-29.863,13.403,-38.05,39.096,-31.004,19.258,-1.8956,2.6946,-17.281,-9.6698
-45.353,4.1975,-26.166,27.228,-17.754,-18.136,-29.771,13.205,-38.04,39.104,-31.049,19.325,-1.7104,2.5169,-17.235,-9.7557
-45.161,3.9903,-26.136,27.156,-17.66,-18.329,-29.677,13.006,-38.028,39.11,-31.094,19.39,-1.525,2.3389,-17.189,-9.842
-45.161,3.9903,-26.136,27.156,-17.66,-18.329,-29.677,13.006,-38.028,39.11,-31.094,19.39,-1.525,2.3389,-17.189,-9.842
-44.967,3.783,-26.104,27.083,-17.566,-18.522,-29.582,12.806,-38.014,39.115,-31.138,19.455,-1.3394,2.1605,-17.142,-9.9287
-44.967,3.783,-26.104,27.083,-17.566,-18.522,-29.582,12.806,-38.014,39.115,-31.138,19.455,-1.3394,2.1605,-17.142,-9.9287
-44.771,3.5755,-26.071,27.008,-17.471,-18.714,-29.484,12.605,-38,39.118,-31.182,19.518,-1.1538,1.9817,-17.095,-10.016
-44.771,3.5755,-26.071,27.008,-17.471,-18.714,-29.484,12.605,-38,39.118,-31.182,19.518,-1.1538,1.9817,-17.095,-10.016
-44.771,3.5755,-26.071,27.008,-17.471,-18.714,-29.484,12.605,-38,39.118,-31.182,19.518,-1.1538,1.9817,-17.095,-10.016
-44.573,3.3678,-26.036,26.932,-17.375,-18.905,-29.385,12.403,-37.984,39.119,-31.225,19.581,-0.96803,1.8026,-17.047,-10.103
-44.374,3.1599,-26,26.854,-17.279,-19.096,-29.283,12.2,-37.966,39.118,-31.268,19.642,-0.78217,1.6232,-16.999,-10.191
-44.174,2.9519,-25.962,26.775,-17.181,-19.285,-29.179,11.996,-37.948,39.116,-31.31,19.703,-0.59623,1.4435,-16.951,-10.28
-44.174,2.9519,-25.962,26.775,-17.181,-19.285,-29.179,11.996,-37.948,39.116,-31.31,19.703,-0.59623,1.4435,-16.951,-10.28
-43.972,2.7438,-25.923,26.695,-17.083,-19.474,-29.074,11.792,-37.928,39.111,-31.352,19.762,-0.41021,1.2634,-16.903,-10.368
-43.972,2.7438,-25.923,26.695,-17.083,-19.474,-29.074,11.792,-37.928,39.111,-31.352,19.762,-0.41021,1.2634,-16.903,-10.368
-43.972,2.7438,-25.923,26.695,-17.083,-19.474,-29.074,11.792,-37.928,39.111,-31.352,19.762,-0.41021,1.2634,-16.903,-10.368
-43.768,2.5356,-25.883,26.613,-16.985,-19.662,-28.967,11.586,-37.906,39.106,-31.394,19.82,-0.22414,1.0831,-16.854,-10.457
-43.768,2.5356,-25.883,26.613,-16.985,-19.662,-28.967,11.586,-37.906,39.106,-31.394,19.82,-0.22414,1.0831,-16.854,-10.457
-43.768,2.5356,-25.883,26.613,-16.985,-19.662,-28.967,11.586,-37.906,39.106,-31.394,19.82,-0.22414,1.0831,-16.854,-10.457
-43.562,2.3272,-25.841,26.529,-16.886,-19.849,-28.857,11.38,-37.884,39.098,-31.435,19.877,-0.038013,0.90244,-16.805,-10.547
-43.356,2.1188,-25.797,26.445,-16.786,-20.035,-28.746,11.173,-37.86,39.089,-31.475,19.934,0.14814,0.72154,-16.756,-10.636
-43.356,2.1188,-25.797,26.445,-16.786,-20.035,-28.746,11.173,-37.86,39.089,-31.475,19.934,0.14814,0.72154,-16.756,-10.636
-43.147,1.9103,-25.753,26.358,-16.685,-20.22,-28.633,10.965,-37.834,39.078,-31.515,19.989,0.33432,0.54039,-16.706,-10.726
-43.147,1.9103,-25.753,26.358,-16.685,-20.22,-28.633,10.965,-37.834,39.078,-31.515,19.989,0.33432,0.54039,-16.706,-10.726
-42.937,1.7018,-25.706,26.271,-16.584,-20.405,-28.518,10.757,-37.807,39.065,-31.555,20.043,0.52051,0.35899,-16.656,-10.817
-42.937,1.7018,-25.706,26.271,-16.584,-20.405,-28.518,10.757,-37.807,39.065,-31.555,20.043,0.52051,0.35899,-16.656,-10.817
-42.725,1.4932,-25.659,26.182,-16.482,-20.588,-28.401,10.548,-37.779,39.051,-31.594,20.096,0.70669,0.17735,-16.606,-10.907
-42.725,1.4932,-25.659,26.182,-16.482,-20.588,-28.401,10.548,-37.779,39.051,-31.594,20.096,0.70669,0.17735,-16.606,-10.907
-42.512,1.2846,-25.61,26.091,-16.38,-20.771,-28.282,10.337,-37.749,39.035,-31.633,20.148,0.89286,-0.0045089,-16.555,-10.998
-42.512,1.2846,-25.61,26.091,-16.38,-20.771,-28.282,10.337,-37.749,39.035,-31.633,20.148,0.89286,-0.0045089,-16.555,-10.998
-42.512,1.2846,-25.61,26.091,-16.38,-20.771,-28.282,10.337,-37.749,39.035,-31.633,20.148,0.89286,-0.0045089,-16.555,-10.998
-42.298,1.076,-25.559,26,-16.277,-20.952,-28.161,10.127,-37.718,39.017,-31.671,20.199,1.079,-0.18658,-16.504,-11.089
-42.298,1.076,-25.559,26,-16.277,-20.952,-28.161,10.127,-37.718,39.017,-31.671,20.199,1.079,-0.18658,-16.504,-11.089
-42.082,0.86742,-25.507,25.906,-16.173,-21.133,-28.038,9.915,-37.686,38.997,-31.708,20.249,1.2651,-0.36885,-16.452,-11.181
-41.864,0.65883,-25.454,25.812,-16.069,-21.312,-27.913,9.7027,-37.652,38.976,-31.746,20.298,1.4511,-0.55131,-16.401,-11.273
-41.864,0.65883,-25.454,25.812,-16.069,-21.312,-27.913,9.7027,-37.652,38.976,-31.746,20.298,1.4511,-0.55131,-16.401,-11.273
-41.645,0.45028,-25.399,25.716,-15.964,-21.491,-27.787,9.4897,-37.617,38.953,-31.782,20.345,1.6371,-0.73395,-16.349,-11.365
-41.645,0.45028,-25.399,25.716,-15.964,-21.491,-27.787,9.4897,-37.617,38.953,-31.782,20.345,1.6371,-0.73395,-16.349,-11.365
-41.425,0.24177,-25.343,25.619,-15.858,-21.668,-27.659,9.276,-37.581,38.928,-31.818,20.392,1.823,-0.91675,-16.297,-11.457
-41.425,0.24177,-25.343,25.619,-15.858,-21.668,-27.659,9.276,-37.581,38.928,-31.818,20.392,1.823,-0.91675,-16.297,-11.457
-41.425,0.24177,-25.343,25.619,-15.858,-21.668,-27.659,9.276,-37.581,38.928,-31.818,20.392,1.823,-0.91675,-16.297,-11.457
-41.203,0.033329,-25.285,25.52,-15.752,-21.845,-27.528,9.0616,-37.542,38.902,-31.854,20.438,2.0088,-1.0997,-16.244,-11.55
-40.98,-0.17504,-25.226,25.42,-15.645,-22.02,-27.396,8.8466,-37.503,38.874,-31.889,20.482,2.1945,-1.2828,-16.191,-11.643
-40.98,-0.17504,-25.226,25.42,-15.645,-22.02,-27.396,8.8466,-37.503,38.874,-31.889,20.482,2.1945,-1.2828,-16.191,-11.643
-40.755,-0.38331,-25.166,25.318,-15.538,-22.195,-27.262,8.631,-37.462,38.844,-31.923,20.526,2.3801,-1.466,-16.138,-11.736
-40.755,-0.38331,-25.166,25.318,-15.538,-22.195,-27.262,8.631,-37.462,38.844,-31.923,20.526,2.3801,-1.466,-16.138,-11.736
-40.529,-0.59148,-25.104,25.216,-15.43,-22.368,-27.126,8.4147,-37.42,38.812,-31.957,20.568,2.5656,-1.6494,-16.084,-11.829
-40.529,-0.59148,-25.104,25.216,-15.43,-22.368,-27.126,8.4147,-37.42,38.812,-31.957,20.568,2.5656,-1.6494,-16.084,-11.829
-40.302,-0.79953,-25.04,25.111,-15.321,-22.541,-26.989,8.1977,-37.376,38.779,-31.991,20.61,2.7509,-1.8329,-16.03,-11.923
-40.302,-0.79953,-25.04,25.111,-15.321,-22.541,-26.989,8.1977,-37.376,38.779,-31.991,20.61,2.7509,-1.8329,-16.03,-11.923
-40.073,-1.0074,-24.975,25.006,-15.212,-22.712,-26.849,7.9802,-37.331,38.744,-32.023,20.65,2.9361,-2.0164,-15.976,-12.017
-39.843,-1.2152,-24.909,24.899,-15.102,-22.882,-26.708,7.7621,-37.284,38.707,-32.056,20.69,3.1212,-2.2001,-15.921,-12.11
-39.843,-1.2152,-24.909,24.899,-15.102,-22.882,-26.708,7.7621,-37.284,38.707,-32.056,20.69,3.1212,-2.2001,-15.921,-12.11
-39.612,-1.4228,-24.841,24.791,-14.992,-23.051,-26.565,7.5434,-37.236,38.668,-32.088,20.728,3.306,-2.3838,-15.866,-12.205
-39.612,-1.4228,-24.841,24.791,-14.992,-23.051,-26.565,7.5434,-37.236,38.668,-32.088,20.728,3.306,-2.3838,-15.866,-12.205
-39.612,-1.4228,-24.841,24.791,-14.992,-23.051,-26.565,7.5434,-37.236,38.668,-32.088,20.728,3.306,-2.3838,-15.866,-12.205
-39.379,-1.6302,-24.772,24.682,-14.881,-23.219,-26.42,7.3241,-37.186,38.628,-32.119,20.765,3.4907,-2.5676,-15.811,-12.299
-39.379,-1.6302,-24.772,24.682,-14.881,-23.219,-26.42,7.3241,-37.186,38.628,-32.119,20.765,3.4907,-2.5676,-15.811,-12.299
-39.379,-1.6302,-24.772,24.682,-14.881,-23.219,-26.42,7.3241,-37.186,38.628,-32.119,20.765,3.4907,-2.5676,-15.811,-12.299
-39.145,-1.8375,-24.701,24.571,-14.77,-23.386,-26.273,7.1043,-37.135,38.586,-32.15,20.801,3.6751,-2.7514,-15.755,-12.393
-38.91,-2.0445,-24.629,24.459,-14.658,-23.552,-26.125,6.884,-37.083,38.542,-32.18,20.837,3.8594,-2.9353,-15.699,-12.488
-38.91,-2.0445,-24.629,24.459,-14.658,-23.552,-26.125,6.884,-37.083,38.542,-32.18,20.837,3.8594,-2.9353,-15.699,-12.488
-38.673,-2.2513,-24.555,24.345,-14.546,-23.716,-25.974,6.6631,-37.029,38.497,-32.209,20.871,4.0434,-3.1192,-15.643,-12.583
-38.435,-2.4579,-24.48,24.231,-14.433,-23.88,-25.822,6.4417,-36.973,38.45,-32.238,20.904,4.2272,-3.3031,-15.586,-12.678
-38.435,-2.4579,-24.48,24.231,-14.433,-23.88,-25.822,6.4417,-36.973,38.45,-32.238,20.904,4.2272,-3.3031,-15.586,-12.678
-38.435,-2.4579,-24.48,24.231,-14.433,-23.88,-25.822,6.4417,-36.973,38.45,-32.238,20.904,4.2272,-3.3031,-15.586,-12.678
-38.196,-2.6643,-24.404,24.115,-14.319,-24.042,-25.668,6.2199,-36.916,38.401,-32.267,20.936,4.4108,-3.487,-15.529,-12.773
-38.196,-2.6643,-24.404,24.115,-14.319,-24.042,-25.668,6.2199,-36.916,38.401,-32.267,20.936,4.4108,-3.487,-15.529,-12.773
-37.956,-2.8703,-24.326,23.998,-14.205,-24.203,-25.513,5.9975,-36.857,38.35,-32.294,20.967,4.5941,-3.671,-15.471,-12.868
-37.956,-2.8703,-24.326,23.998,-14.205,-24.203,-25.513,5.9975,-36.857,38.35,-32.294,20.967,4.5941,-3.671,-15.471,-12.868
-37.715,-3.0761,-24.246,23.879,-14.09,-24.363,-25.356,5.7747,-36.797,38.298,-32.322,20.996,4.7772,-3.8549,-15.414,-12.964
-37.715,-3.0761,-24.246,23.879,-14.09,-24.363,-25.356,5.7747,-36.797,38.298,-32.322,20.996,4.7772,-3.8549,-15.414,-12.964
-37.472,-3.2817,-24.165,23.759,-13.975,-24.522,-25.197,5.5514,-36.736,38.244,-32.348,21.025,4.96,-4.0388,-15.356,-13.059
-37.472,-3.2817,-24.165,23.759,-13.975,-24.522,-25.197,5.5514,-36.736,38.244,-32.348,21.025,4.96,-4.0388,-15.356,-13.059
-37.229,-3.4869,-24.083,23.638,-13.86,-24.679,-25.036,5.3277,-36.673,38.188,-32.374,21.053,5.1424,-4.2226,-15.297,-13.155
-37.229,-3.4869,-24.083,23.638,-13.86,-24.679,-25.036,5.3277,-36.673,38.188,-32.374,21.053,5.1424,-4.2226,-15.297,-13.155
-36.984,-3.6918,-23.999,23.516,-13.744,-24.835,-24.873,5.1035,-36.608,38.13,-32.4,21.08,5.3246,-4.4064,-15.239,-13.251
-36.984,-3.6918,-23.999,23.516,-13.744,-24.835,-24.873,5.1035,-36.608,38.13,-32.4,21.08,5.3246,-4.4064,-15.239,-13.251
-36.984,-3.6918,-23.999,23.516,-13.744,-24.835,-24.873,5.1035,-36.608,38.13,-32.4,21.08,5.3246,-4.4064,-15.239,-13.251
-36.738,-3.8963,-23.914,23.392,-13.627,-24.991,-24.709,4.879,-36.542,38.071,-32.425,21.105,5.5065,-4.5902,-15.179,-13.346
-36.738,-3.8963,-23.914,23.392,-13.627,-24.991,-24.709,4.879,-36.542,38.071,-32.425,21.105,5.5065,-4.5902,-15.179,-13.346
-36.49,-4.1006,-23.827,23.268,-13.51,-25.145,-24.543,4.654,-36.474,38.01,-32.449,21.13,5.6881,-4.7739,-15.12,-13.442
-36.242,-4.3044,-23.739,23.142,-13.392,-25.297,-24.376,4.4286,-36.405,37.947,-32.473,21.153,5.8693,-4.9575,-15.06,-13.538
-36.242,-4.3044,-23.739,23.142,-13.392,-25.297,-24.376,4.4286,-36.405,37.947,-32.473,21.153,5.8693,-4.9575,-15.06,-13.538
-35.993,-4.508,-23.649,23.015,-13.274,-25.449,-24.207,4.2029,-36.334,37.883,-32.496,21.176,6.0502,-5.141,-15,-13.634
-35.993,-4.508,-23.649,23.015,-13.274,-25.449,-24.207,4.2029,-36.334,37.883,-32.496,21.176,6.0502,-5.141,-15,-13.634
-35.743,-4.7111,-23.558,22.886,-13.156,-25.599,-24.036,3.9768,-36.262,37.817,-32.518,21.197,6.2308,-5.3244,-14.94,-13.73
-35.743,-4.7111,-23.558,22.886,-13.156,-25.599,-24.036,3.9768,-36.262,37.817,-32.518,21.197,6.2308,-5.3244,-14.94,-13.73
-35.491,-4.9138,-23.466,22.757,-13.037,-25.748,-23.863,3.7503,-36.188,37.749,-32.54,21.218,6.4109,-5.5077,-14.879,-13.826
-35.491,-4.9138,-23.466,22.757,-13.037,-25.748,-23.863,3.7503,-36.188,37.749,-32.54,21.218,6.4109,-5.5077,-14.879,-13.826
-35.239,-5.1161,-23.372,22.626,-12.917,-25.896,-23.689,3.5235,-36.113,37.68,-32.561,21.237,6.5908,-5.6909,-14.818,-13.922
-35.239,-5.1161,-23.372,22.626,-12.917,-25.896,-23.689,3.5235,-36.113,37.68,-32.561,21.237,6.5908,-5.6909,-14.818,-13.922
-34.985,-5.318,-23.277,22.494,-12.797,-26.042,-23.513,3.2964,-36.036,37.608,-32.581,21.255,6.7702,-5.874,-14.756,-14.019
-34.985,-5.318,-23.277,22.494,-12.797,-26.042,-23.513,3.2964,-36.036,37.608,-32.581,21.255,6.7702,-5.874,-14.756,-14.019
-34.731,-5.5195,-23.18,22.361,-12.677,-26.187,-23.336,3.069,-35.957,37.535,-32.601,21.273,6.9492,-6.0569,-14.694,-14.115
-34.731,-5.5195,-23.18,22.361,-12.677,-26.187,-23.336,3.069,-35.957,37.535,-32.601,21.273,6.9492,-6.0569,-14.694,-14.115
-34.475,-5.7205,-23.082,22.226,-12.556,-26.331,-23.157,2.8412,-35.877,37.461,-32.62,21.289,7.1279,-6.2397,-14.632,-14.211
-34.475,-5.7205,-23.082,22.226,-12.556,-26.331,-23.157,2.8412,-35.877,37.461,-32.62,21.289,7.1279,-6.2397,-14.632,-14.211
-34.475,-5.7205,-23.082,22.226,-12.556,-26.331,-23.157,2.8412,-35.877,37.461,-32.62,21.289,7.1279,-6.2397,-14.632,-14.211
-34.219,-5.9211,-22.982,22.091,-12.434,-26.474,-22.976,2.6132,-35.795,37.384,-32.639,21.304,7.3061,-6.4223,-14.569,-14.307
-33.961,-6.1212,-22.881,21.954,-12.312,-26.615,-22.794,2.3849,-35.712,37.306,-32.657,21.318,7.4839,-6.6047,-14.506,-14.404
-33.703,-6.3208,-22.778,21.816,-12.19,-26.755,-22.61,2.1564,-35.627,37.227,-32.674,21.331,7.6612,-6.7869,-14.443,-14.5
-33.703,-6.3208,-22.778,21.816,-12.19,-26.755,-22.61,2.1564,-35.627,37.227,-32.674,21.331,7.6612,-6.7869,-14.443,-14.5
-33.703,-6.3208,-22.778,21.816,-12.19,-26.755,-22.61,2.1564,-35.627,37.227,-32.674,21.331,7.6612,-6.7869,-14.443,-14.5
-33.444,-6.5199,-22.674,21.677,-12.067,-26.894,-22.425,1.9276,-35.541,37.145,-32.691,21.343,7.8382,-6.969,-14.38,-14.596
-33.444,-6.5199,-22.674,21.677,-12.067,-26.894,-22.425,1.9276,-35.541,37.145,-32.691,21.343,7.8382,-6.969,-14.38,-14.596
-33.184,-6.7185,-22.569,21.537,-11.944,-27.032,-22.238,1.6986,-35.453,37.062,-32.707,21.354,8.0146,-7.1508,-14.316,-14.692
-33.184,-6.7185,-22.569,21.537,-11.944,-27.032,-22.238,1.6986,-35.453,37.062,-32.707,21.354,8.0146,-7.1508,-14.316,-14.692
-32.923,-6.9165,-22.462,21.396,-11.821,-27.168,-22.049,1.4693,-35.363,36.977,-32.722,21.364,8.1906,-7.3324,-14.251,-14.788
-32.923,-6.9165,-22.462,21.396,-11.821,-27.168,-22.049,1.4693,-35.363,36.977,-32.722,21.364,8.1906,-7.3324,-14.251,-14.788
-32.661,-7.1141,-22.354,21.254,-11.696,-27.303,-21.859,1.2398,-35.272,36.891,-32.736,21.373,8.3662,-7.5138,-14.187,-14.884
-32.661,-7.1141,-22.354,21.254,-11.696,-27.303,-21.859,1.2398,-35.272,36.891,-32.736,21.373,8.3662,-7.5138,-14.187,-14.884
-32.398,-7.3111,-22.245,21.111,-11.572,-27.437,-21.668,1.0102,-35.179,36.802,-32.75,21.381,8.5412,-7.695,-14.122,-14.98
-32.398,-7.3111,-22.245,21.111,-11.572,-27.437,-21.668,1.0102,-35.179,36.802,-32.75,21.381,8.5412,-7.695,-14.122,-14.98
-32.135,-7.5075,-22.134,20.966,-11.447,-27.569,-21.475,0.78032,-35.085,36.713,-32.764,21.388,8.7158,-7.8759,-14.056,-15.076
-32.135,-7.5075,-22.134,20.966,-11.447,-27.569,-21.475,0.78032,-35.085,36.713,-32.764,21.388,8.7158,-7.8759,-14.056,-15.076
-31.87,-7.7033,-22.021,20.821,-11.322,-27.7,-21.28,0.55029,-34.989,36.621,-32.776,21.394,8.8899,-8.0566,-13.99,-15.172
-31.87,-7.7033,-22.021,20.821,-11.322,-27.7,-21.28,0.55029,-34.989,36.621,-32.776,21.394,8.8899,-8.0566,-13.99,-15.172
-31.87,-7.7033,-22.021,20.821,-11.322,-27.7,-21.28,0.55029,-34.989,36.621,-32.776,21.394,8.8899,-8.0566,-13.99,-15.172
-31.605,-7.8986,-21.907,20.674,-11.196,-27.83,-21.084,0.32011,-34.891,36.528,-32.788,21.399,9.0634,-8.237,-13.924,-15.268
-31.339,-8.0932,-21.792,20.526,-11.07,-27.958,-20.887,0.08977,-34.792,36.433,-32.799,21.403,9.2364,-8.4171,-13.858,-15.364
-31.339,-8.0932,-21.792,20.526,-11.07,-27.958,-20.887,0.08977,-34.792,36.433,-32.799,21.403,9.2364,-8.4171,-13.858,-15.364
-31.073,-8.2873,-21.675,20.378,-10.943,-28.085,-20.688,-0.1407,-34.691,36.337,-32.809,21.406,9.409,-8.597,-13.791,-15.459
-31.073,-8.2873,-21.675,20.378,-10.943,-28.085,-20.688,-0.1407,-34.691,36.337,-32.809,21.406,9.409,-8.597,-13.791,-15.459
-30.805,-8.4807,-21.557,20.228,-10.816,-28.211,-20.487,-0.3713,-34.589,36.238,-32.819,21.408,9.5809,-8.7765,-13.724,-15.555
-30.805,-8.4807,-21.557,20.228,-10.816,-28.211,-20.487,-0.3713,-34.589,36.238,-32.819,21.408,9.5809,-8.7765,-13.724,-15.555
-30.537,-8.6735,-21.438,20.077,-10.689,-28.336,-20.286,-0.60201,-34.485,36.139,-32.828,21.408,9.7524,-8.9558,-13.656,-15.65
-30.537,-8.6735,-21.438,20.077,-10.689,-28.336,-20.286,-0.60201,-34.485,36.139,-32.828,21.408,9.7524,-8.9558,-13.656,-15.65
-30.268,-8.8657,-21.317,19.925,-10.561,-28.459,-20.082,-0.83282,-34.379,36.037,-32.836,21.408,9.9232,-9.1347,-13.589,-15.745
-30.268,-8.8657,-21.317,19.925,-10.561,-28.459,-20.082,-0.83282,-34.379,36.037,-32.836,21.408,9.9232,-9.1347,-13.589,-15.745
-29.999,-9.0572,-21.195,19.772,-10.433,-28.581,-19.878,-1.0637,-34.271,35.934,-32.844,21.407,10.094,-9.3133,-13.52,-15.841
-29.999,-9.0572,-21.195,19.772,-10.433,-28.581,-19.878,-1.0637,-34.271,35.934,-32.844,21.407,10.094,-9.3133,-13.52,-15.841
-29.729,-9.248,-21.071,19.619,-10.305,-28.701,-19.672,-1.2947,-34.162,35.829,-32.851,21.405,10.263,-9.4916,-13.452,-15.936
-29.729,-9.248,-21.071,19.619,-10.305,-28.701,-19.672,-1.2947,-34.162,35.829,-32.851,21.405,10.263,-9.4916,-13.452,-15.936
-29.458,-9.4381,-20.947,19.464,-10.176,-28.82,-19.464,-1.5257,-34.052,35.723,-32.857,21.401,10.432,-9.6695,-13.383,-16.03
-29.458,-9.4381,-20.947,19.464,-10.176,-28.82,-19.464,-1.5257,-34.052,35.723,-32.857,21.401,10.432,-9.6695,-13.383,-16.03
-29.186,-9.6276,-20.82,19.308,-10.046,-28.938,-19.255,-1.7568,-33.94,35.615,-32.862,21.397,10.601,-9.8471,-13.314,-16.125
-29.186,-9.6276,-20.82,19.308,-10.046,-28.938,-19.255,-1.7568,-33.94,35.615,-32.862,21.397,10.601,-9.8471,-13.314,-16.125
-28.914,-9.8163,-20.693,19.151,-9.9167,-29.055,-19.045,-1.988,-33.826,35.505,-32.867,21.392,10.769,-10.024,-13.244,-16.22
-28.914,-9.8163,-20.693,19.151,-9.9167,-29.055,-19.045,-1.988,-33.826,35.505,-32.867,21.392,10.769,-10.024,-13.244,-16.22
-28.642,-10.004,-20.564,18.994,-9.7866,-29.17,-18.834,-2.2191,-33.71,35.394,-32.87,21.386,10.936,-10.201,-13.174,-16.314
-28.369,-10.192,-20.433,18.835,-9.6562,-29.284,-18.621,-2.4503,-33.593,35.281,-32.874,21.378,11.103,-10.378,-13.104,-16.408
-28.369,-10.192,-20.433,18.835,-9.6562,-29.284,-18.621,-2.4503,-33.593,35.281,-32.874,21.378,11.103,-10.378,-13.104,-16.408
-28.369,-10.192,-20.433,18.835,-9.6562,-29.284,-18.621,-2.4503,-33.593,35.281,-32.874,21.378,11.103,-10.378,-13.104,-16.408
-28.095,-10.378,-20.301,18.675,-9.5254,-29.396,-18.406,-2.6815,-33.474,35.167,-32.876,21.37,11.269,-10.554,-13.033,-16.502
-28.095,-10.378,-20.301,18.675,-9.5254,-29.396,-18.406,-2.6815,-33.474,35.167,-32.876,21.37,11.269,-10.554,-13.033,-16.502
-28.095,-10.378,-20.301,18.675,-9.5254,-29.396,-18.406,-2.6815,-33.474,35.167,-32.876,21.37,11.269,-10.554,-13.033,-16.502
-27.821,-10.564,-20.168,18.515,-9.3942,-29.508,-18.191,-2.9127,-33.354,35.051,-32.877,21.361,11.435,-10.729,-12.962,-16.596
-27.546,-10.749,-20.034,18.353,-9.2626,-29.617,-17.974,-3.1439,-33.232,34.933,-32.878,21.351,11.6,-10.904,-12.891,-16.69
-27.546,-10.749,-20.034,18.353,-9.2626,-29.617,-17.974,-3.1439,-33.232,34.933,-32.878,21.351,11.6,-10.904,-12.891,-16.69
-27.27,-10.933,-19.898,18.191,-9.1307,-29.726,-17.756,-3.375,-33.108,34.814,-32.878,21.34,11.764,-11.079,-12.819,-16.783
-26.995,-11.117,-19.761,18.028,-8.9984,-29.833,-17.537,-3.6061,-32.982,34.693,-32.878,21.327,11.928,-11.254,-12.747,-16.876
-26.995,-11.117,-19.761,18.028,-8.9984,-29.833,-17.537,-3.6061,-32.982,34.693,-32.878,21.327,11.928,-11.254,-12.747,-16.876
-26.995,-11.117,-19.761,18.028,-8.9984,-29.833,-17.537,-3.6061,-32.982,34.693,-32.878,21.327,11.928,-11.254,-12.747,-16.876
-26.718,-11.3,-19.623,17.864,-8.8658,-29.939,-17.316,-3.8372,-32.855,34.57,-32.876,21.314,12.091,-11.428,-12.674,-16.969
-26.718,-11.3,-19.623,17.864,-8.8658,-29.939,-17.316,-3.8372,-32.855,34.57,-32.876,21.314,12.091,-11.428,-12.674,-16.969
-26.442,-11.481,-19.483,17.699,-8.7328,-30.044,-17.094,-4.0681,-32.727,34.447,-32.874,21.3,12.253,-11.601,-12.602,-17.062
-26.442,-11.481,-19.483,17.699,-8.7328,-30.044,-17.094,-4.0681,-32.727,34.447,-32.874,21.3,12.253,-11.601,-12.602,-17.062
-26.442,-11.481,-19.483,17.699,-8.7328,-30.044,-17.094,-4.0681,-32.727,34.447,-32.874,21.3,12.253,-11.601,-12.602,-17.062
-26.165,-11.663,-19.342,17.533,-8.5995,-30.147,-16.871,-4.299,-32.596,34.321,-32.871,21.285,12.415,-11.774,-12.528,-17.155
-26.165,-11.663,-19.342,17.533,-8.5995,-30.147,-16.871,-4.299,-32.596,34.321,-32.871,21.285,12.415,-11.774,-12.528,-17.155
-25.887,-11.843,-19.2,17.366,-8.4658,-30.249,-16.646,-4.5299,-32.464,34.194,-32.867,21.269,12.575,-11.947,-12.455,-17.247
-25.609,-12.022,-19.056,17.199,-8.3317,-30.35,-16.421,-4.7606,-32.33,34.065,-32.862,21.252,12.736,-12.119,-12.381,-17.339
-25.331,-12.201,-18.911,17.03,-8.1973,-30.449,-16.194,-4.9912,-32.195,33.935,-32.857,21.234,12.895,-12.29,-12.307,-17.431
-25.331,-12.201,-18.911,17.03,-8.1973,-30.449,-16.194,-4.9912,-32.195,33.935,-32.857,21.234,12.895,-12.29,-12.307,-17.431
-25.331,-12.201,-18.911,17.03,-8.1973,-30.449,-16.194,-4.9912,-32.195,33.935,-32.857,21.234,12.895,-12.29,-12.307,-17.431
-25.052,-12.378,-18.765,16.861,-8.0626,-30.548,-15.966,-5.2217,-32.058,33.803,-32.85,21.215,13.054,-12.462,-12.232,-17.522
-25.052,-12.378,-18.765,16.861,-8.0626,-30.548,-15.966,-5.2217,-32.058,33.803,-32.85,21.215,13.054,-12.462,-12.232,-17.522
-25.052,-12.378,-18.765,16.861,-8.0626,-30.548,-15.966,-5.2217,-32.058,33.803,-32.85,21.215,13.054,-12.462,-12.232,-17.522
-24.773,-12.555,-18.617,16.691,-7.9276,-30.644,-15.737,-5.4521,-31.919,33.67,-32.843,21.195,13.212,-12.632,-12.157,-17.613
-24.494,-12.731,-18.469,16.52,-7.7921,-30.74,-15.507,-5.6823,-31.779,33.535,-32.835,21.175,13.37,-12.802,-12.082,-17.704
-24.494,-12.731,-18.469,16.52,-7.7921,-30.74,-15.507,-5.6823,-31.779,33.535,-32.835,21.175,13.37,-12.802,-12.082,-17.704
-24.215,-12.906,-18.319,16.349,-7.6564,-30.834,-15.275,-5.9124,-31.637,33.399,-32.826,21.153,13.527,-12.972,-12.007,-17.795
-24.215,-12.906,-18.319,16.349,-7.6564,-30.834,-15.275,-5.9124,-31.637,33.399,-32.826,21.153,13.527,-12.972,-12.007,-17.795
-23.935,-13.08,-18.167,16.177,-7.5203,-30.927,-15.043,-6.1423,-31.493,33.261,-32.817,21.13,13.683,-13.141,-11.931,-17.885
-23.935,-13.08,-18.167,16.177,-7.5203,-30.927,-15.043,-6.1423,-31.493,33.261,-32.817,21.13,13.683,-13.141,-11.931,-17.885
-23.655,-13.254,-18.015,16.004,-7.3839,-31.019,-14.809,-6.3721,-31.348,33.122,-32.806,21.107,13.838,-13.309,-11.854,-17.975
-23.655,-13.254,-18.015,16.004,-7.3839,-31.019,-14.809,-6.3721,-31.348,33.122,-32.806,21.107,13.838,-13.309,-11.854,-17.975
-23.655,-13.254,-18.015,16.004,-7.3839,-31.019,-14.809,-6.3721,-31.348,33.122,-32.806,21.107,13.838,-13.309,-11.854,-17.975
-23.374,-13.426,-17.861,15.83,-7.2472,-31.109,-14.574,-6.6017,-31.201,32.981,-32.795,21.082,13.992,-13.477,-11.778,-18.065
-23.094,-13.597,-17.706,15.655,-7.1101,-31.198,-14.339,-6.831,-31.052,32.839,-32.783,21.057,14.146,-13.645,-11.701,-18.154
-23.094,-13.597,-17.706,15.655,-7.1101,-31.198,-14.339,-6.831,-31.052,32.839,-32.783,21.057,14.146,-13.645,-11.701,-18.154
-22.813,-13.768,-17.55,15.48,-6.9727,-31.286,-14.102,-7.0602,-30.902,32.695,-32.77,21.03,14.299,-13.812,-11.623,-18.243
-22.813,-13.768,-17.55,15.48,-6.9727,-31.286,-14.102,-7.0602,-30.902,32.695,-32.77,21.03,14.299,-13.812,-11.623,-18.243
-22.532,-13.937,-17.392,15.304,-6.835,-31.372,-13.864,-7.2891,-30.75,32.55,-32.756,21.003,14.452,-13.978,-11.546,-18.332
-22.532,-13.937,-17.392,15.304,-6.835,-31.372,-13.864,-7.2891,-30.75,32.55,-32.756,21.003,14.452,-13.978,-11.546,-18.332
-22.251,-14.106,-17.233,15.127,-6.697,-31.458,-13.625,-7.5178,-30.597,32.403,-32.742,20.975,14.603,-14.144,-11.468,-18.42
-22.251,-14.106,-17.233,15.127,-6.697,-31.458,-13.625,-7.5178,-30.597,32.403,-32.742,20.975,14.603,-14.144,-11.468,-18.42
-21.97,-14.274,-17.073,14.95,-6.5587,-31.542,-13.385,-7.7463,-30.441,32.255,-32.726,20.946,14.754,-14.309,-11.389,-18.508
-21.97,-14.274,-17.073,14.95,-6.5587,-31.542,-13.385,-7.7463,-30.441,32.255,-32.726,20.946,14.754,-14.309,-11.389,-18.508
-21.689,-14.44,-16.912,14.772,-6.42,-31.624,-13.144,-7.9746,-30.285,32.106,-32.71,20.916,14.904,-14.473,-11.311,-18.596
-21.689,-14.44,-16.912,14.772,-6.42,-31.624,-13.144,-7.9746,-30.285,32.106,-32.71,20.916,14.904,-14.473,-11.311,-18.596
-21.407,-14.606,-16.75,14.593,-6.281,-31.706,-12.901,-8.2025,-30.126,31.955,-32.692,20.885,15.053,-14.637,-11.232,-18.683
-21.407,-14.606,-16.75,14.593,-6.281,-31.706,-12.901,-8.2025,-30.126,31.955,-32.692,20.885,15.053,-14.637,-11.232,-18.683
-21.126,-14.77,-16.586,14.414,-6.1417,-31.786,-12.658,-8.4303,-29.966,31.803,-32.674,20.853,15.202,-14.8,-11.152,-18.77
-21.126,-14.77,-16.586,14.414,-6.1417,-31.786,-12.658,-8.4303,-29.966,31.803,-32.674,20.853,15.202,-14.8,-11.152,-18.77
-20.844,-14.934,-16.422,14.234,-6.0021,-31.865,-12.414,-8.6577,-29.804,31.649,-32.655,20.82,15.35,-14.963,-11.072,-18.857
-20.844,-14.934,-16.422,14.234,-6.0021,-31.865,-12.414,-8.6577,-29.804,31.649,-32.655,20.82,15.35,-14.963,-11.072,-18.857
-20.562,-15.097,-16.256,14.053,-5.8622,-31.943,-12.169,-8.8848,-29.64,31.494,-32.635,20.787,15.497,-15.125,-10.992,-18.943
-20.562,-15.097,-16.256,14.053,-5.8622,-31.943,-12.169,-8.8848,-29.64,31.494,-32.635,20.787,15.497,-15.125,-10.992,-18.943
-20.281,-15.258,-16.089,13.872,-5.722,-32.02,-11.924,-9.1117,-29.475,31.337,-32.615,20.752,15.643,-15.286,-10.912,-19.028
-20.281,-15.258,-16.089,13.872,-5.722,-32.02,-11.924,-9.1117,-29.475,31.337,-32.615,20.752,15.643,-15.286,-10.912,-19.028
-19.999,-15.419,-15.92,13.691,-5.5814,-32.095,-11.677,-9.3382,-29.308,31.179,-32.593,20.717,15.788,-15.447,-10.831,-19.114
-19.999,-15.419,-15.92,13.691,-5.5814,-32.095,-11.677,-9.3382,-29.308,31.179,-32.593,20.717,15.788,-15.447,-10.831,-19.114
-19.999,-15.419,-15.92,13.691,-5.5814,-32.095,-11.677,-9.3382,-29.308,31.179,-32.593,20.717,15.788,-15.447,-10.831,-19.114
-19.436,-15.737,-15.581,13.325,-5.2995,-32.242,-11.18,-9.7903,-28.97,30.859,-32.547,20.644,16.076,-15.767,-10.669,-19.283
-19.436,-15.737,-15.581,13.325,-5.2995,-32.242,-11.18,-9.7903,-28.97,30.859,-32.547,20.644,16.076,-15.767,-10.669,-19.283
-19.436,-15.737,-15.581,13.325,-5.2995,-32.242,-11.18,-9.7903,-28.97,30.859,-32.547,20.644,16.076,-15.767,-10.669,-19.283
-19.154,-15.894,-15.409,13.142,-5.1581,-32.314,-10.931,-10.016,-28.798,30.697,-32.523,20.606,16.219,-15.925,-10.587,-19.367
-19.154,-15.894,-15.409,13.142,-5.1581,-32.314,-10.931,-10.016,-28.798,30.697,-32.523,20.606,16.219,-15.925,-10.587,-19.367
-19.154,-15.894,-15.409,13.142,-5.1581,-32.314,-10.931,-10.016,-28.798,30.697,-32.523,20.606,16.219,-15.925,-10.587,-19.367
-18.873,-16.05,-15.236,12.958,-5.0163,-32.384,-10.68,-10.241,-28.625,30.534,-32.497,20.567,16.362,-16.083,-10.505,-19.451
-18.591,-16.206,-15.062,12.773,-4.8743,-32.454,-10.429,-10.466,-28.45,30.369,-32.471,20.528,16.503,-16.241,-10.422,-19.534
-18.31,-16.36,-14.887,12.588,-4.732,-32.522,-10.177,-10.69,-28.273,30.203,-32.444,20.487,16.643,-16.397,-10.34,-19.616
-18.31,-16.36,-14.887,12.588,-4.732,-32.522,-10.177,-10.69,-28.273,30.203,-32.444,20.487,16.643,-16.397,-10.34,-19.616
-18.31,-16.36,-14.887,12.588,-4.732,-32.522,-10.177,-10.69,-28.273,30.203,-32.444,20.487,16.643,-16.397,-10.34,-19.616
-18.029,-16.513,-14.711,12.403,-4.5893,-32.589,-9.9241,-10.914,-28.095,30.036,-32.416,20.446,16.783,-16.553,-10.257,-19.699
-18.029,-16.513,-14.711,12.403,-4.5893,-32.589,-9.9241,-10.914,-28.095,30.036,-32.416,20.446,16.783,-16.553,-10.257,-19.699
-17.748,-16.665,-14.534,12.217,-4.4464,-32.655,-9.6704,-11.138,-27.915,29.867,-32.387,20.404,16.922,-16.709,-10.173,-19.78
-17.748,-16.665,-14.534,12.217,-4.4464,-32.655,-9.6704,-11.138,-27.915,29.867,-32.387,20.404,16.922,-16.709,-10.173,-19.78
-17.467,-16.816,-14.356,12.03,-4.3032,-32.72,-9.4158,-11.361,-27.734,29.697,-32.357,20.361,17.06,-16.863,-10.09,-19.862
-17.467,-16.816,-14.356,12.03,-4.3032,-32.72,-9.4158,-11.361,-27.734,29.697,-32.357,20.361,17.06,-16.863,-10.09,-19.862
-17.186,-16.966,-14.177,11.843,-4.1597,-32.783,-9.1605,-11.584,-27.551,29.526,-32.326,20.317,17.197,-17.017,-10.006,-19.943
-17.186,-16.966,-14.177,11.843,-4.1597,-32.783,-9.1605,-11.584,-27.551,29.526,-32.326,20.317,17.197,-17.017,-10.006,-19.943
-16.906,-17.114,-13.996,11.656,-4.016,-32.846,-8.9045,-11.807,-27.366,29.354,-32.295,20.273,17.334,-17.17,-9.9211,-20.023
-16.906,-17.114,-13.996,11.656,-4.016,-32.846,-8.9045,-11.807,-27.366,29.354,-32.295,20.273,17.334,-17.17,-9.9211,-20.023
-16.625,-17.262,-13.815,11.468,-3.8719,-32.907,-8.6476,-12.029,-27.18,29.18,-32.262,20.228,17.469,-17.322,-9.8365,-20.103
-16.625,-17.262,-13.815,11.468,-3.8719,-32.907,-8.6476,-12.029,-27.18,29.18,-32.262,20.228,17.469,-17.322,-9.8365,-20.103
-16.625,-17.262,-13.815,11.468,-3.8719,-32.907,-8.6476,-12.029,-27.18,29.18,-32.262,20.228,17.469,-17.322,-9.8365,-20.103
-16.345,-17.408,-13.633,11.28,-3.7275,-32.967,-8.3901,-12.25,-26.992,29.005,-32.228,20.181,17.604,-17.474,-9.7514,-20.182
-16.345,-17.408,-13.633,11.28,-3.7275,-32.967,-8.3901,-12.25,-26.992,29.005,-32.228,20.181,17.604,-17.474,-9.7514,-20.182
-16.345,-17.408,-13.633,11.28,-3.7275,-32.967,-8.3901,-12.25,-26.992,29.005,-32.228,20.181,17.604,-17.474,-9.7514,-20.182
-15.786,-17.697,-13.265,10.902,-3.438,-33.084,-7.8728,-12.692,-26.611,28.652,-32.158,20.087,17.871,-17.774,-9.5805,-20.339
-15.786,-17.697,-13.265,10.902,-3.438,-33.084,-7.8728,-12.692,-26.611,28.652,-32.158,20.087,17.871,-17.774,-9.5805,-20.339
-15.507,-17.84,-13.079,10.712,-3.2928,-33.141,-7.6132,-12.912,-26.418,28.473,-32.122,20.038,18.003,-17.924,-9.4945,-20.417
-15.507,-17.84,-13.079,10.712,-3.2928,-33.141,-7.6132,-12.912,-26.418,28.473,-32.122,20.038,18.003,-17.924,-9.4945,-20.417
-15.507,-17.84,-13.079,10.712,-3.2928,-33.141,-7.6132,-12.912,-26.418,28.473,-32.122,20.038,18.003,-17.924,-9.4945,-20.417
-15.228,-17.982,-12.893,10.522,-3.1473,-33.197,-7.3528,-13.132,-26.224,28.293,-32.084,19.989,18.134,-18.072,-9.4082,-20.494
-14.949,-18.122,-12.705,10.332,-3.0016,-33.251,-7.0918,-13.351,-26.028,28.112,-32.046,19.939,18.264,-18.22,-9.3217,-20.571
-14.949,-18.122,-12.705,10.332,-3.0016,-33.251,-7.0918,-13.351,-26.028,28.112,-32.046,19.939,18.264,-18.22,-9.3217,-20.571
-14.671,-18.262,-12.517,10.142,-2.8556,-33.305,-6.8302,-13.57,-25.831,27.93,-32.007,19.888,18.394,-18.367,-9.2348,-20.647
-14.671,-18.262,-12.517,10.142,-2.8556,-33.305,-6.8302,-13.57,-25.831,27.93,-32.007,19.888,18.394,-18.367,-9.2348,-20.647
-14.393,-18.4,-12.327,9.9509,-2.7093,-33.358,-6.5679,-13.789,-25.632,27.747,-31.966,19.837,18.523,-18.513,-9.1476,-20.723
-14.393,-18.4,-12.327,9.9509,-2.7093,-33.358,-6.5679,-13.789,-25.632,27.747,-31.966,19.837,18.523,-18.513,-9.1476,-20.723
-14.116,-18.537,-12.137,9.7597,-2.5627,-33.409,-6.3051,-14.006,-25.431,27.563,-31.925,19.785,18.651,-18.658,-9.0601,-20.798
-13.839,-18.673,-11.946,9.5683,-2.4158,-33.46,-6.0416,-14.223,-25.229,27.377,-31.883,19.732,18.778,-18.802,-8.9722,-20.873
-13.839,-18.673,-11.946,9.5683,-2.4158,-33.46,-6.0416,-14.223,-25.229,27.377,-31.883,19.732,18.778,-18.802,-8.9722,-20.873
-13.839,-18.673,-11.946,9.5683,-2.4158,-33.46,-6.0416,-14.223,-25.229,27.377,-31.883,19.732,18.778,-18.802,-8.9722,-20.873
-13.562,-18.807,-11.753,9.3765,-2.2687,-33.509,-5.7775,-14.44,-25.025,27.191,-31.839,19.678,18.904,-18.946,-8.8841,-20.947
-13.562,-18.807,-11.753,9.3765,-2.2687,-33.509,-5.7775,-14.44,-25.025,27.191,-31.839,19.678,18.904,-18.946,-8.8841,-20.947
-13.562,-18.807,-11.753,9.3765,-2.2687,-33.509,-5.7775,-14.44,-25.025,27.191,-31.839,19.678,18.904,-18.946,-8.8841,-20.947
-13.286,-18.94,-11.56,9.1845,-2.1213,-33.558,-5.5129,-14.656,-24.82,27.003,-31.795,19.623,19.029,-19.089,-8.7957,-21.02
-13.286,-18.94,-11.56,9.1845,-2.1213,-33.558,-5.5129,-14.656,-24.82,27.003,-31.795,19.623,19.029,-19.089,-8.7957,-21.02
-13.286,-18.94,-11.56,9.1845,-2.1213,-33.558,-5.5129,-14.656,-24.82,27.003,-31.795,19.623,19.029,-19.089,-8.7957,-21.02
-12.735,-19.203,-11.171,8.7998,-1.8258,-33.651,-4.9821,-15.087,-24.405,26.624,-31.704,19.512,19.277,-19.372,-8.618,-21.165
-12.735,-19.203,-11.171,8.7998,-1.8258,-33.651,-4.9821,-15.087,-24.405,26.624,-31.704,19.512,19.277,-19.372,-8.618,-21.165
-12.46,-19.333,-10.975,8.6071,-1.6776,-33.697,-4.7158,-15.302,-24.195,26.433,-31.657,19.456,19.4,-19.512,-8.5287,-21.237
-12.46,-19.333,-10.975,8.6071,-1.6776,-33.697,-4.7158,-15.302,-24.195,26.433,-31.657,19.456,19.4,-19.512,-8.5287,-21.237
-12.186,-19.462,-10.779,8.4141,-1.5292,-33.741,-4.4491,-15.515,-23.983,26.241,-31.608,19.398,19.521,-19.651,-8.4391,-21.308
-12.186,-19.462,-10.779,8.4141,-1.5292,-33.741,-4.4491,-15.515,-23.983,26.241,-31.608,19.398,19.521,-19.651,-8.4391,-21.308
-12.186,-19.462,-10.779,8.4141,-1.5292,-33.741,-4.4491,-15.515,-23.983,26.241,-31.608,19.398,19.521,-19.651,-8.4391,-21.308
-11.912,-19.589,-10.581,8.221,-1.3805,-33.785,-4.1819,-15.729,-23.77,26.048,-31.559,19.34,19.642,-19.79,-8.3492,-21.378
-11.639,-19.715,-10.383,8.0277,-1.2315,-33.827,-3.9142,-15.942,-23.556,25.854,-31.509,19.282,19.762,-19.927,-8.259,-21.448
-11.639,-19.715,-10.383,8.0277,-1.2315,-33.827,-3.9142,-15.942,-23.556,25.854,-31.509,19.282,19.762,-19.927,-8.259,-21.448
-11.367,-19.839,-10.183,7.8342,-1.0823,-33.869,-3.6461,-16.154,-23.34,25.659,-31.458,19.222,19.881,-20.064,-8.1686,-21.517
-11.367,-19.839,-10.183,7.8342,-1.0823,-33.869,-3.6461,-16.154,-23.34,25.659,-31.458,19.222,19.881,-20.064,-8.1686,-21.517
-11.367,-19.839,-10.183,7.8342,-1.0823,-33.869,-3.6461,-16.154,-23.34,25.659,-31.458,19.222,19.881,-20.064,-8.1686,-21.517
-11.095,-19.963,-9.9831,7.6406,-0.9328,-33.91,-3.3775,-16.365,-23.123,25.463,-31.406,19.162,20,-20.2,-8.0778,-21.586
-11.095,-19.963,-9.9831,7.6406,-0.9328,-33.91,-3.3775,-16.365,-23.123,25.463,-31.406,19.162,20,-20.2,-8.0778,-21.586
-11.095,-19.963,-9.9831,7.6406,-0.9328,-33.91,-3.3775,-16.365,-23.123,25.463,-31.406,19.162,20,-20.2,-8.0778,-21.586
-10.823,-20.085,-9.7822,7.4468,-0.78307,-33.949,-3.1086,-16.576,-22.904,25.266,-31.352,19.102,20.117,-20.335,-7.9868,-21.653
-10.823,-20.085,-9.7822,7.4468,-0.78307,-33.949,-3.1086,-16.576,-22.904,25.266,-31.352,19.102,20.117,-20.335,-7.9868,-21.653
-10.282,-20.325,-9.3778,7.0589,-0.48285,-34.026,-2.5694,-16.996,-22.461,24.869,-31.243,18.978,20.349,-20.602,-7.8039,-21.787
-10.282,-20.325,-9.3778,7.0589,-0.48285,-34.026,-2.5694,-16.996,-22.461,24.869,-31.243,18.978,20.349,-20.602,-7.8039,-21.787
-10.013,-20.443,-9.1745,6.8647,-0.33236,-34.063,-2.2992,-17.205,-22.238,24.669,-31.187,18.916,20.464,-20.734,-7.7121,-21.853
-9.7443,-20.56,-8.9704,6.6705,-0.18162,-34.099,-2.0287,-17.413,-22.013,24.468,-31.129,18.852,20.578,-20.865,-7.62,-21.919
-9.7443,-20.56,-8.9704,6.6705,-0.18162,-34.099,-2.0287,-17.413,-22.013,24.468,-31.129,18.852,20.578,-20.865,-7.62,-21.919
-9.7443,-20.56,-8.9704,6.6705,-0.18162,-34.099,-2.0287,-17.413,-22.013,24.468,-31.129,18.852,20.578,-20.865,-7.62,-21.919
-9.4762,-20.676,-8.7655,6.4763,-0.030639,-34.135,-1.7578,-17.621,-21.787,24.266,-31.071,18.788,20.691,-20.995,-7.5276,-21.983
-9.4762,-20.676,-8.7655,6.4763,-0.030639,-34.135,-1.7578,-17.621,-21.787,24.266,-31.071,18.788,20.691,-20.995,-7.5276,-21.983
-9.2089,-20.79,-8.5599,6.2819,0.12059,-34.169,-1.4866,-17.828,-21.559,24.064,-31.012,18.724,20.803,-21.125,-7.4349,-22.047
-9.2089,-20.79,-8.5599,6.2819,0.12059,-34.169,-1.4866,-17.828,-21.559,24.064,-31.012,18.724,20.803,-21.125,-7.4349,-22.047
-8.9423,-20.903,-8.3535,6.0876,0.27206,-34.202,-1.2151,-18.034,-21.33,23.86,-30.952,18.659,20.914,-21.253,-7.342,-22.111
-8.9423,-20.903,-8.3535,6.0876,0.27206,-34.202,-1.2151,-18.034,-21.33,23.86,-30.952,18.659,20.914,-21.253,-7.342,-22.111
-8.9423,-20.903,-8.3535,6.0876,0.27206,-34.202,-1.2151,-18.034,-21.33,23.86,-30.952,18.659,20.914,-21.253,-7.342,-22.111
-8.6764,-21.015,-8.1464,5.8932,0.42378,-34.235,-0.94327,-18.24,-21.099,23.656,-30.89,18.593,21.024,-21.381,-7.2488,-22.173
-8.6764,-21.015,-8.1464,5.8932,0.42378,-34.235,-0.94327,-18.24,-21.099,23.656,-30.89,18.593,21.024,-21.381,-7.2488,-22.173
-8.6764,-21.015,-8.1464,5.8932,0.42378,-34.235,-0.94327,-18.24,-21.099,23.656,-30.89,18.593,21.024,-21.381,-7.2488,-22.173
-8.147,-21.235,-7.7302,5.5044,0.72793,-34.298,-0.39882,-18.649,-20.633,23.244,-30.764,18.46,21.242,-21.633,-7.0617,-22.296
-8.147,-21.235,-7.7302,5.5044,0.72793,-34.298,-0.39882,-18.649,-20.633,23.244,-30.764,18.46,21.242,-21.633,-7.0617,-22.296
-8.147,-21.235,-7.7302,5.5044,0.72793,-34.298,-0.39882,-18.649,-20.633,23.244,-30.764,18.46,21.242,-21.633,-7.0617,-22.296
-7.8835,-21.342,-7.521,5.31,0.88036,-34.328,-0.12622,-18.853,-20.398,23.037,-30.7,18.392,21.35,-21.758,-6.9677,-22.357
-7.6208,-21.449,-7.3111,5.1157,1.033,-34.358,0.14661,-19.055,-20.162,22.83,-30.634,18.324,21.457,-21.881,-6.8735,-22.417
-7.6208,-21.449,-7.3111,5.1157,1.033,-34.358,0.14661,-19.055,-20.162,22.83,-30.634,18.324,21.457,-21.881,-6.8735,-22.417
-7.6208,-21.449,-7.3111,5.1157,1.033,-34.358,0.14661,-19.055,-20.162,22.83,-30.634,18.324,21.457,-21.881,-6.8735,-22.417
-7.359,-21.554,-7.1006,4.9214,1.1859,-34.387,0.41966,-19.258,-19.924,22.621,-30.568,18.256,21.563,-22.004,-6.7791,-22.476
-7.359,-21.554,-7.1006,4.9214,1.1859,-34.387,0.41966,-19.258,-19.924,22.621,-30.568,18.256,21.563,-22.004,-6.7791,-22.476
-7.359,-21.554,-7.1006,4.9214,1.1859,-34.387,0.41966,-19.258,-19.924,22.621,-30.568,18.256,21.563,-22.004,-6.7791,-22.476
-6.8379,-21.76,-6.6777,4.533,1.4924,-34.442,0.96635,-19.66,-19.445,22.202,-30.432,18.117,21.772,-22.246,-6.5895,-22.592
-6.8379,-21.76,-6.6777,4.533,1.4924,-34.442,0.96635,-19.66,-19.445,22.202,-30.432,18.117,21.772,-22.246,-6.5895,-22.592
-6.8379,-21.76,-6.6777,4.533,1.4924,-34.442,0.96635,-19.66,-19.445,22.202,-30.432,18.117,21.772,-22.246,-6.5895,-22.592
-6.5787,-21.861,-6.4653,4.339,1.646,-34.468,1.24,-19.859,-19.203,21.991,-30.362,18.046,21.875,-22.366,-6.4943,-22.649
-6.3203,-21.961,-6.2522,4.145,1.7998,-34.494,1.5137,-20.058,-18.96,21.78,-30.291,17.976,21.977,-22.485,-6.3989,-22.705
-6.3203,-21.961,-6.2522,4.145,1.7998,-34.494,1.5137,-20.058,-18.96,21.78,-30.291,17.976,21.977,-22.485,-6.3989,-22.705
-6.0629,-22.059,-6.0386,3.9512,1.9538,-34.519,1.7876,-20.257,-18.715,21.567,-30.22,17.904,22.079,-22.602,-6.3033,-22.76
-6.0629,-22.059,-6.0386,3.9512,1.9538,-34.519,1.7876,-20.257,-18.715,21.567,-30.22,17.904,22.079,-22.602,-6.3033,-22.76
-6.0629,-22.059,-6.0386,3.9512,1.9538,-34.519,1.7876,-20.257,-18.715,21.567,-30.22,17.904,22.079,-22.602,-6.3033,-22.76
-5.8065,-22.156,-5.8244,3.7575,2.1081,-34.543,2.0616,-20.454,-18.469,21.354,-30.147,17.832,22.179,-22.719,-6.2074,-22.815
-5.8065,-22.156,-5.8244,3.7575,2.1081,-34.543,2.0616,-20.454,-18.469,21.354,-30.147,17.832,22.179,-22.719,-6.2074,-22.815
-5.8065,-22.156,-5.8244,3.7575,2.1081,-34.543,2.0616,-20.454,-18.469,21.354,-30.147,17.832,22.179,-22.719,-6.2074,-22.815
-5.5509,-22.252,-5.6097,3.5639,2.2626,-34.566,2.3357,-20.651,-18.222,21.141,-30.073,17.76,22.279,-22.834,-6.1113,-22.869
-5.5509,-22.252,-5.6097,3.5639,2.2626,-34.566,2.3357,-20.651,-18.222,21.141,-30.073,17.76,22.279,-22.834,-6.1113,-22.869
-5.0429,-22.439,-5.1785,3.1773,2.5722,-34.612,2.8842,-21.042,-17.724,20.712,-29.922,17.614,22.476,-23.063,-5.9185,-22.975
-4.7903,-22.531,-4.9621,2.9843,2.7273,-34.633,3.1586,-21.236,-17.473,20.496,-29.845,17.54,22.573,-23.175,-5.8218,-23.026
-4.7903,-22.531,-4.9621,2.9843,2.7273,-34.633,3.1586,-21.236,-17.473,20.496,-29.845,17.54,22.573,-23.175,-5.8218,-23.026
-4.7903,-22.531,-4.9621,2.9843,2.7273,-34.633,3.1586,-21.236,-17.473,20.496,-29.845,17.54,22.573,-23.175,-5.8218,-23.026
-4.5388,-22.621,-4.7452,2.7915,2.8826,-34.654,3.4329,-21.43,-17.22,20.28,-29.767,17.466,22.669,-23.287,-5.7248,-23.077
-4.5388,-22.621,-4.7452,2.7915,2.8826,-34.654,3.4329,-21.43,-17.22,20.28,-29.767,17.466,22.669,-23.287,-5.7248,-23.077
-4.2883,-22.71,-4.5278,2.5989,3.0381,-34.674,3.7073,-21.623,-16.967,20.063,-29.688,17.391,22.764,-23.397,-5.6276,-23.127
-4.2883,-22.71,-4.5278,2.5989,3.0381,-34.674,3.7073,-21.623,-16.967,20.063,-29.688,17.391,22.764,-23.397,-5.6276,-23.127
-4.0389,-22.797,-4.3099,2.4065,3.1939,-34.694,3.9817,-21.815,-16.712,19.846,-29.608,17.316,22.859,-23.506,-5.5303,-23.177
-4.0389,-22.797,-4.3099,2.4065,3.1939,-34.694,3.9817,-21.815,-16.712,19.846,-29.608,17.316,22.859,-23.506,-5.5303,-23.177
-4.0389,-22.797,-4.3099,2.4065,3.1939,-34.694,3.9817,-21.815,-16.712,19.846,-29.608,17.316,22.859,-23.506,-5.5303,-23.177
-3.7905,-22.884,-4.0915,2.2144,3.3498,-34.713,4.2561,-22.006,-16.456,19.628,-29.527,17.24,22.952,-23.615,-5.4327,-23.225
-3.7905,-22.884,-4.0915,2.2144,3.3498,-34.713,4.2561,-22.006,-16.456,19.628,-29.527,17.24,22.952,-23.615,-5.4327,-23.225
-3.297,-23.052,-3.6534,1.831,3.6623,-34.749,4.8048,-22.385,-15.94,19.19,-29.361,17.087,23.137,-23.828,-5.2369,-23.32
-3.297,-23.052,-3.6534,1.831,3.6623,-34.749,4.8048,-22.385,-15.94,19.19,-29.361,17.087,23.137,-23.828,-5.2369,-23.32
-3.297,-23.052,-3.6534,1.831,3.6623,-34.749,4.8048,-22.385,-15.94,19.19,-29.361,17.087,23.137,-23.828,-5.2369,-23.32
-3.052,-23.133,-3.4337,1.6397,3.8188,-34.766,5.0791,-22.574,-15.68,18.971,-29.277,17.01,23.227,-23.933,-5.1388,-23.366
-3.052,-23.133,-3.4337,1.6397,3.8188,-34.766,5.0791,-22.574,-15.68,18.971,-29.277,17.01,23.227,-23.933,-5.1388,-23.366
-3.052,-23.133,-3.4337,1.6397,3.8188,-34.766,5.0791,-22.574,-15.68,18.971,-29.277,17.01,23.227,-23.933,-5.1388,-23.366
-2.808,-23.214,-3.2136,1.4488,3.9755,-34.782,5.3533,-22.761,-15.419,18.751,-29.191,16.933,23.317,-24.037,-5.0404,-23.411
-2.5653,-23.293,-2.9931,1.2581,4.1324,-34.798,5.6274,-22.948,-15.156,18.53,-29.105,16.855,23.407,-24.14,-4.9419,-23.456
-2.5653,-23.293,-2.9931,1.2581,4.1324,-34.798,5.6274,-22.948,-15.156,18.53,-29.105,16.855,23.407,-24.14,-4.9419,-23.456
-2.3236,-23.371,-2.7721,1.0678,4.2895,-34.814,5.9014,-23.134,-14.893,18.309,-29.017,16.777,23.495,-24.242,-4.8432,-23.499
-2.3236,-23.371,-2.7721,1.0678,4.2895,-34.814,5.9014,-23.134,-14.893,18.309,-29.017,16.777,23.495,-24.242,-4.8432,-23.499
-2.0832,-23.447,-2.5508,0.87786,4.4467,-34.829,6.1753,-23.319,-14.628,18.088,-28.929,16.698,23.582,-24.343,-4.7443,-23.542
-2.0832,-23.447,-2.5508,0.87786,4.4467,-34.829,6.1753,-23.319,-14.628,18.088,-28.929,16.698,23.582,-24.343,-4.7443,-23.542
-1.8439,-23.522,-2.3291,0.68827,4.6042,-34.843,6.4491,-23.503,-14.363,17.866,-28.839,16.619,23.669,-24.442,-4.6452,-23.584
-1.8439,-23.522,-2.3291,0.68827,4.6042,-34.843,6.4491,-23.503,-14.363,17.866,-28.839,16.619,23.669,-24.442,-4.6452,-23.584
-1.8439,-23.522,-2.3291,0.68827,4.6042,-34.843,6.4491,-23.503,-14.363,17.866,-28.839,16.619,23.669,-24.442,-4.6452,-23.584
-1.6059,-23.596,-2.1071,0.49906,4.7618,-34.857,6.7227,-23.686,-14.096,17.644,-28.748,16.54,23.754,-24.541,-4.546,-23.625
-1.3691,-23.668,-1.8848,0.31023,4.9196,-34.87,6.9961,-23.868,-13.828,17.421,-28.656,16.46,23.839,-24.638,-4.4466,-23.665
-1.3691,-23.668,-1.8848,0.31023,4.9196,-34.87,6.9961,-23.868,-13.828,17.421,-28.656,16.46,23.839,-24.638,-4.4466,-23.665
-1.1335,-23.739,-1.6621,0.12182,5.0775,-34.883,7.2693,-24.049,-13.558,17.198,-28.564,16.38,23.923,-24.735,-4.347,-23.705
-0.89919,-23.808,-1.4391,-0.066177,5.2356,-34.896,7.5424,-24.23,-13.288,16.974,-28.47,16.3,24.006,-24.83,-4.2472,-23.743
-0.89919,-23.808,-1.4391,-0.066177,5.2356,-34.896,7.5424,-24.23,-13.288,16.974,-28.47,16.3,24.006,-24.83,-4.2472,-23.743
-0.89919,-23.808,-1.4391,-0.066177,5.2356,-34.896,7.5424,-24.23,-13.288,16.974,-28.47,16.3,24.006,-24.83,-4.2472,-23.743
-0.66614,-23.876,-1.2158,-0.25374,5.3939,-34.908,7.8152,-24.409,-13.017,16.75,-28.375,16.219,24.088,-24.924,-4.1474,-23.781
-0.66614,-23.876,-1.2158,-0.25374,5.3939,-34.908,7.8152,-24.409,-13.017,16.75,-28.375,16.219,24.088,-24.924,-4.1474,-23.781
-0.43436,-23.942,-0.99225,-0.44085,5.5523,-34.919,8.0878,-24.587,-12.744,16.526,-28.279,16.138,24.17,-25.017,-4.0473,-23.818
-0.43436,-23.942,-0.99225,-0.44085,5.5523,-34.919,8.0878,-24.587,-12.744,16.526,-28.279,16.138,24.17,-25.017,-4.0473,-23.818
-0.20389,-24.007,-0.76842,-0.6275,5.7109,-34.93,8.3601,-24.765,-12.471,16.302,-28.182,16.056,24.25,-25.109,-3.9471,-23.854
0.02528,-24.071,-0.54434,-0.81367,5.8696,-34.941,8.6322,-24.941,-12.196,16.077,-28.084,15.975,24.33,-25.199,-3.8468,-23.889
0.02528,-24.071,-0.54434,-0.81367,5.8696,-34.941,8.6322,-24.941,-12.196,16.077,-28.084,15.975,24.33,-25.199,-3.8468,-23.889
0.02528,-24.071,-0.54434,-0.81367,5.8696,-34.941,8.6322,-24.941,-12.196,16.077,-28.084,15.975,24.33,-25.199,-3.8468,-23.889
0.25312,-24.133,-0.32002,-0.99936,6.0285,-34.951,8.904,-25.117,-11.92,15.852,-27.985,15.893,24.408,-25.289,-3.7463,-23.923
0.25312,-24.133,-0.32002,-0.99936,6.0285,-34.951,8.904,-25.117,-11.92,15.852,-27.985,15.893,24.408,-25.289,-3.7463,-23.923
0.47962,-24.194,-0.09548,-1.1845,6.1875,-34.96,9.1755,-25.292,-11.644,15.627,-27.885,15.81,24.486,-25.377,-3.6457,-23.957
0.47962,-24.194,-0.09548,-1.1845,6.1875,-34.96,9.1755,-25.292,-11.644,15.627,-27.885,15.81,24.486,-25.377,-3.6457,-23.957
0.70477,-24.254,0.12927,-1.3692,6.3466,-34.97,9.4467,-25.465,-11.366,15.401,-27.783,15.728,24.563,-25.464,-3.545,-23.989
0.70477,-24.254,0.12927,-1.3692,6.3466,-34.97,9.4467,-25.465,-11.366,15.401,-27.783,15.728,24.563,-25.464,-3.545,-23.989
0.70477,-24.254,0.12927,-1.3692,6.3466,-34.97,9.4467,-25.465,-11.366,15.401,-27.783,15.728,24.563,-25.464,-3.545,-23.989
0.92855,-24.312,0.35422,-1.5533,6.5059,-34.979,9.7176,-25.638,-11.087,15.175,-27.681,15.645,24.639,-25.55,-3.4441,-24.021
0.92855,-24.312,0.35422,-1.5533,6.5059,-34.979,9.7176,-25.638,-11.087,15.175,-27.681,15.645,24.639,-25.55,-3.4441,-24.021
0.92855,-24.312,0.35422,-1.5533,6.5059,-34.979,9.7176,-25.638,-11.087,15.175,-27.681,15.645,24.639,-25.55,-3.4441,-24.021
1.372,-24.424,0.80464,-1.9199,6.8249,-34.995,10.258,-25.98,-10.527,14.723,-27.473,15.478,24.789,-25.719,-3.242,-24.081
1.372,-24.424,0.80464,-1.9199,6.8249,-34.995,10.258,-25.98,-10.527,14.723,-27.473,15.478,24.789,-25.719,-3.242,-24.081
1.5916,-24.478,1.0301,-2.1024,6.9845,-35.003,10.528,-26.15,-10.245,14.496,-27.368,15.394,24.863,-25.802,-3.1408,-24.11
1.5916,-24.478,1.0301,-2.1024,6.9845,-35.003,10.528,-26.15,-10.245,14.496,-27.368,15.394,24.863,-25.802,-3.1408,-24.11
1.8097,-24.53,1.2557,-2.2843,7.1443,-35.01,10.797,-26.318,-9.9622,14.27,-27.262,15.311,24.936,-25.883,-3.0395,-24.138
1.8097,-24.53,1.2557,-2.2843,7.1443,-35.01,10.797,-26.318,-9.9622,14.27,-27.262,15.311,24.936,-25.883,-3.0395,-24.138
2.0265,-24.581,1.4814,-2.4655,7.3041,-35.017,11.066,-26.486,-9.6786,14.043,-27.154,15.226,25.007,-25.963,-2.938,-24.165
2.0265,-24.581,1.4814,-2.4655,7.3041,-35.017,11.066,-26.486,-9.6786,14.043,-27.154,15.226,25.007,-25.963,-2.938,-24.165
2.2418,-24.631,1.7072,-2.6462,7.4641,-35.024,11.335,-26.652,-9.3941,13.816,-27.046,15.142,25.079,-26.042,-2.8365,-24.191
2.2418,-24.631,1.7072,-2.6462,7.4641,-35.024,11.335,-26.652,-9.3941,13.816,-27.046,15.142,25.079,-26.042,-2.8365,-24.191
2.4556,-24.679,1.9331,-2.8262,7.6242,-35.03,11.603,-26.818,-9.1086,13.589,-26.936,15.057,25.149,-26.12,-2.7348,-24.216
2.4556,-24.679,1.9331,-2.8262,7.6242,-35.03,11.603,-26.818,-9.1086,13.589,-26.936,15.057,25.149,-26.12,-2.7348,-24.216
2.668,-24.726,2.1591,-3.0056,7.7844,-35.036,11.871,-26.982,-8.8223,13.362,-26.825,14.973,25.218,-26.197,-2.6331,-24.241
2.668,-24.726,2.1591,-3.0056,7.7844,-35.036,11.871,-26.982,-8.8223,13.362,-26.825,14.973,25.218,-26.197,-2.6331,-24.241
2.668,-24.726,2.1591,-3.0056,7.7844,-35.036,11.871,-26.982,-8.8223,13.362,-26.825,14.973,25.218,-26.197,-2.6331,-24.241
2.8789,-24.771,2.3851,-3.1844,7.9446,-35.042,12.138,-27.146,-8.535,13.135,-26.714,14.888,25.287,-26.272,-2.5312,-24.264
3.0882,-24.815,2.6112,-3.3625,8.105,-35.048,12.405,-27.308,-8.2469,12.908,-26.601,14.803,25.354,-26.346,-2.4293,-24.286
3.2961,-24.858,2.8374,-3.5399,8.2654,-35.053,12.671,-27.469,-7.958,12.68,-26.488,14.717,25.421,-26.419,-2.3273,-24.308
3.2961,-24.858,2.8374,-3.5399,8.2654,-35.053,12.671,-27.469,-7.958,12.68,-26.488,14.717,25.421,-26.419,-2.3273,-24.308
3.2961,-24.858,2.8374,-3.5399,8.2654,-35.053,12.671,-27.469,-7.958,12.68,-26.488,14.717,25.421,-26.419,-2.3273,-24.308
3.5025,-24.899,3.0635,-3.7166,8.426,-35.058,12.937,-27.629,-7.6681,12.453,-26.373,14.632,25.487,-26.491,-2.2252,-24.329
3.5025,-24.899,3.0635,-3.7166,8.426,-35.058,12.937,-27.629,-7.6681,12.453,-26.373,14.632,25.487,-26.491,-2.2252,-24.329
3.7073,-24.938,3.2897,-3.8926,8.5865,-35.062,13.202,-27.788,-7.3775,12.226,-26.257,14.546,25.552,-26.562,-2.1231,-24.348
3.7073,-24.938,3.2897,-3.8926,8.5865,-35.062,13.202,-27.788,-7.3775,12.226,-26.257,14.546,25.552,-26.562,-2.1231,-24.348
3.9105,-24.977,3.5159,-4.0679,8.7472,-35.066,13.466,-27.946,-7.0861,11.999,-26.14,14.46,25.617,-26.631,-2.0208,-24.367
4.1122,-25.014,3.742,-4.2424,8.9079,-35.07,13.73,-28.103,-6.7938,11.771,-26.023,14.374,25.68,-26.699,-1.9186,-24.385
4.1122,-25.014,3.742,-4.2424,8.9079,-35.07,13.73,-28.103,-6.7938,11.771,-26.023,14.374,25.68,-26.699,-1.9186,-24.385
4.1122,-25.014,3.742,-4.2424,8.9079,-35.07,13.73,-28.103,-6.7938,11.771,-26.023,14.374,25.68,-26.699,-1.9186,-24.385
4.1122,-25.014,3.742,-4.2424,8.9079,-35.07,13.73,-28.103,-6.7938,11.771,-26.023,14.374,25.68,-26.699,-1.9186,-24.385
4.3124,-25.049,3.9681,-4.4162,9.0687,-35.074,13.994,-28.259,-6.5008,11.544,-25.904,14.288,25.743,-26.766,-1.8162,-24.401
4.3124,-25.049,3.9681,-4.4162,9.0687,-35.074,13.994,-28.259,-6.5008,11.544,-25.904,14.288,25.743,-26.766,-1.8162,-24.401
4.7079,-25.116,4.4202,-4.7616,9.3904,-35.081,14.519,-28.567,-5.9124,11.09,-25.663,14.115,25.866,-26.896,-1.6113,-24.432
4.7079,-25.116,4.4202,-4.7616,9.3904,-35.081,14.519,-28.567,-5.9124,11.09,-25.663,14.115,25.866,-26.896,-1.6113,-24.432
4.7079,-25.116,4.4202,-4.7616,9.3904,-35.081,14.519,-28.567,-5.9124,11.09,-25.663,14.115,25.866,-26.896,-1.6113,-24.432
4.9033,-25.147,4.6461,-4.9331,9.5513,-35.084,14.781,-28.72,-5.6171,10.863,-25.542,14.029,25.926,-26.96,-1.5088,-24.446
4.9033,-25.147,4.6461,-4.9331,9.5513,-35.084,14.781,-28.72,-5.6171,10.863,-25.542,14.029,25.926,-26.96,-1.5088,-24.446
5.097,-25.177,4.8719,-5.1038,9.7122,-35.087,15.042,-28.871,-5.3211,10.636,-25.419,13.942,25.985,-27.022,-1.4063,-24.459
5.097,-25.177,4.8719,-5.1038,9.7122,-35.087,15.042,-28.871,-5.3211,10.636,-25.419,13.942,25.985,-27.022,-1.4063,-24.459
5.2891,-25.206,5.0976,-5.2737,9.8732,-35.09,15.302,-29.021,-5.0244,10.409,-25.295,13.856,26.044,-27.083,-1.3037,-24.471
5.2891,-25.206,5.0976,-5.2737,9.8732,-35.09,15.302,-29.021,-5.0244,10.409,-25.295,13.856,26.044,-27.083,-1.3037,-24.471
5.4796,-25.233,5.3232,-5.4428,10.034,-35.093,15.562,-29.17,-4.7269,10.182,-25.17,13.769,26.102,-27.142,-1.2011,-24.482
5.4796,-25.233,5.3232,-5.4428,10.034,-35.093,15.562,-29.17,-4.7269,10.182,-25.17,13.769,26.102,-27.142,-1.2011,-24.482
5.6685,-25.258,5.5487,-5.6111,10.195,-35.095,15.821,-29.318,-4.4288,9.9558,-25.045,13.682,26.158,-27.201,-1.0984,-24.492
5.6685,-25.258,5.5487,-5.6111,10.195,-35.095,15.821,-29.318,-4.4288,9.9558,-25.045,13.682,26.158,-27.201,-1.0984,-24.492
5.6685,-25.258,5.5487,-5.6111,10.195,-35.095,15.821,-29.318,-4.4288,9.9558,-25.045,13.682,26.158,-27.201,-1.0984,-24.492
5.8556,-25.283,5.774,-5.7785,10.356,-35.097,16.079,-29.464,-4.1301,9.7295,-24.918,13.595,26.214,-27.258,-0.99575,-24.501
6.0412,-25.306,5.9991,-5.9451,10.517,-35.099,16.337,-29.61,-3.8307,9.5034,-24.79,13.508,26.27,-27.313,-0.89306,-24.509
6.225,-25.327,6.224,-6.1108,10.678,-35.101,16.593,-29.754,-3.5306,9.2775,-24.662,13.422,26.324,-27.368,-0.79034,-24.516
6.225,-25.327,6.224,-6.1108,10.678,-35.101,16.593,-29.754,-3.5306,9.2775,-24.662,13.422,26.324,-27.368,-0.79034,-24.516
6.225,-25.327,6.224,-6.1108,10.678,-35.101,16.593,-29.754,-3.5306,9.2775,-24.662,13.422,26.324,-27.368,-0.79034,-24.516
6.4071,-25.347,6.4488,-6.2756,10.839,-35.102,16.85,-29.897,-3.2299,9.0518,-24.532,13.335,26.378,-27.421,-0.68761,-24.522
6.4071,-25.347,6.4488,-6.2756,10.839,-35.102,16.85,-29.897,-3.2299,9.0518,-24.532,13.335,26.378,-27.421,-0.68761,-24.522
6.5876,-25.366,6.6733,-6.4396,11,-35.104,17.105,-30.039,-2.9287,8.8264,-24.401,13.247,26.431,-27.473,-0.58488,-24.527
6.5876,-25.366,6.6733,-6.4396,11,-35.104,17.105,-30.039,-2.9287,8.8264,-24.401,13.247,26.431,-27.473,-0.58488,-24.527
6.7663,-25.383,6.8977,-6.6026,11.161,-35.105,17.359,-30.18,-2.6268,8.6012,-24.27,13.16,26.483,-27.524,-0.48214,-24.531
6.7663,-25.383,6.8977,-6.6026,11.161,-35.105,17.359,-30.18,-2.6268,8.6012,-24.27,13.16,26.483,-27.524,-0.48214,-24.531
6.9434,-25.399,7.1218,-6.7647,11.322,-35.107,17.613,-30.319,-2.3244,8.3763,-24.137,13.073,26.534,-27.574,-0.3794,-24.534
6.9434,-25.399,7.1218,-6.7647,11.322,-35.107,17.613,-30.319,-2.3244,8.3763,-24.137,13.073,26.534,-27.574,-0.3794,-24.534
7.1187,-25.414,7.3456,-6.9259,11.483,-35.108,17.866,-30.458,-2.0214,8.1517,-24.004,12.986,26.584,-27.622,-0.27667,-24.536
7.1187,-25.414,7.3456,-6.9259,11.483,-35.108,17.866,-30.458,-2.0214,8.1517,-24.004,12.986,26.584,-27.622,-0.27667,-24.536
7.2923,-25.427,7.5692,-7.0862,11.644,-35.109,18.118,-30.595,-1.7179,7.9274,-23.869,12.899,26.634,-27.669,-0.17395,-24.537
7.2923,-25.427,7.5692,-7.0862,11.644,-35.109,18.118,-30.595,-1.7179,7.9274,-23.869,12.899,26.634,-27.669,-0.17395,-24.537
7.4641,-25.439,7.7924,-7.2455,11.805,-35.11,18.37,-30.731,-1.4139,7.7034,-23.734,12.812,26.682,-27.715,-0.071244,-24.537
7.4641,-25.439,7.7924,-7.2455,11.805,-35.11,18.37,-30.731,-1.4139,7.7034,-23.734,12.812,26.682,-27.715,-0.071244,-24.537
7.4641,-25.439,7.7924,-7.2455,11.805,-35.11,18.37,-30.731,-1.4139,7.7034,-23.734,12.812,26.682,-27.715,-0.071244,-24.537
7.6342,-25.45,8.0154,-7.4038,11.966,-35.11,18.62,-30.865,-1.1094,7.4798,-23.598,12.725,26.73,-27.759,0.031444,-24.536
7.8025,-25.459,8.2381,-7.5612,12.127,-35.111,18.87,-30.999,-0.80435,7.2566,-23.46,12.638,26.778,-27.803,0.13411,-24.534
7.8025,-25.459,8.2381,-7.5612,12.127,-35.111,18.87,-30.999,-0.80435,7.2566,-23.46,12.638,26.778,-27.803,0.13411,-24.534
7.969,-25.467,8.4605,-7.7176,12.287,-35.112,19.119,-31.131,-0.49886,7.0337,-23.322,12.551,26.824,-27.844,0.23675,-24.532
7.969,-25.467,8.4605,-7.7176,12.287,-35.112,19.119,-31.131,-0.49886,7.0337,-23.322,12.551,26.824,-27.844,0.23675,-24.532
8.1338,-25.473,8.6825,-7.873,12.448,-35.112,19.366,-31.262,-0.1929,6.8112,-23.183,12.464,26.869,-27.885,0.33935,-24.528
8.1338,-25.473,8.6825,-7.873,12.448,-35.112,19.366,-31.262,-0.1929,6.8112,-23.183,12.464,26.869,-27.885,0.33935,-24.528
8.2968,-25.478,8.9041,-8.0275,12.608,-35.112,19.613,-31.391,0.11349,6.5891,-23.043,12.378,26.914,-27.924,0.44192,-24.523
8.2968,-25.478,8.9041,-8.0275,12.608,-35.112,19.613,-31.391,0.11349,6.5891,-23.043,12.378,26.914,-27.924,0.44192,-24.523
8.2968,-25.478,8.9041,-8.0275,12.608,-35.112,19.613,-31.391,0.11349,6.5891,-23.043,12.378,26.914,-27.924,0.44192,-24.523
8.458,-25.482,9.1254,-8.1808,12.769,-35.113,19.859,-31.52,0.4203,6.3675,-22.902,12.291,26.958,-27.963,0.54444,-24.517
8.458,-25.482,9.1254,-8.1808,12.769,-35.113,19.859,-31.52,0.4203,6.3675,-22.902,12.291,26.958,-27.963,0.54444,-24.517
8.6173,-25.484,9.3463,-8.3332,12.929,-35.113,20.104,-31.647,0.72753,6.1463,-22.76,12.204,27.001,-27.999,0.64693,-24.51
8.7749,-25.485,9.5669,-8.4845,13.09,-35.113,20.349,-31.773,1.0351,5.9255,-22.618,12.118,27.044,-28.035,0.74936,-24.502
8.9307,-25.485,9.787,-8.6348,13.25,-35.113,20.592,-31.897,1.3431,5.7053,-22.474,12.031,27.085,-28.069,0.85174,-24.493
8.9307,-25.485,9.787,-8.6348,13.25,-35.113,20.592,-31.897,1.3431,5.7053,-22.474,12.031,27.085,-28.069,0.85174,-24.493
8.9307,-25.485,9.787,-8.6348,13.25,-35.113,20.592,-31.897,1.3431,5.7053,-22.474,12.031,27.085,-28.069,0.85174,-24.493
9.0846,-25.483,10.007,-8.7841,13.41,-35.113,20.834,-32.021,1.6515,5.4855,-22.329,11.945,27.126,-28.102,0.95405,-24.483
9.0846,-25.483,10.007,-8.7841,13.41,-35.113,20.834,-32.021,1.6515,5.4855,-22.329,11.945,27.126,-28.102,0.95405,-24.483
9.0846,-25.483,10.007,-8.7841,13.41,-35.113,20.834,-32.021,1.6515,5.4855,-22.329,11.945,27.126,-28.102,0.95405,-24.483
9.2367,-25.48,10.226,-8.9322,13.57,-35.114,21.075,-32.142,1.9602,5.2662,-22.184,11.858,27.166,-28.134,1.0563,-24.472
9.387,-25.476,10.445,-9.0793,13.729,-35.114,21.315,-32.263,2.2692,5.0475,-22.038,11.772,27.205,-28.164,1.1585,-24.46
9.387,-25.476,10.445,-9.0793,13.729,-35.114,21.315,-32.263,2.2692,5.0475,-22.038,11.772,27.205,-28.164,1.1585,-24.46
9.5354,-25.47,10.663,-9.2253,13.889,-35.113,21.555,-32.382,2.5785,4.8293,-21.89,11.686,27.243,-28.193,1.2606,-24.447
9.5354,-25.47,10.663,-9.2253,13.889,-35.113,21.555,-32.382,2.5785,4.8293,-21.89,11.686,27.243,-28.193,1.2606,-24.447
9.682,-25.463,10.881,-9.3702,14.049,-35.113,21.793,-32.5,2.8881,4.6117,-21.742,11.6,27.281,-28.221,1.3627,-24.433
9.682,-25.463,10.881,-9.3702,14.049,-35.113,21.793,-32.5,2.8881,4.6117,-21.742,11.6,27.281,-28.221,1.3627,-24.433
9.8267,-25.454,11.098,-9.514,14.208,-35.113,22.03,-32.617,3.198,4.3946,-21.593,11.515,27.318,-28.247,1.4646,-24.417
9.8267,-25.454,11.098,-9.514,14.208,-35.113,22.03,-32.617,3.198,4.3946,-21.593,11.515,27.318,-28.247,1.4646,-24.417
9.8267,-25.454,11.098,-9.514,14.208,-35.113,22.03,-32.617,3.198,4.3946,-21.593,11.515,27.318,-28.247,1.4646,-24.417
9.9696,-25.445,11.315,-9.6567,14.367,-35.113,22.266,-32.732,3.5081,4.1781,-21.444,11.429,27.354,-28.272,1.5665,-24.401
10.111,-25.434,11.531,-9.7982,14.526,-35.113,22.501,-32.846,3.8185,3.9623,-21.293,11.344,27.389,-28.296,1.6683,-24.384
10.111,-25.434,11.531,-9.7982,14.526,-35.113,22.501,-32.846,3.8185,3.9623,-21.293,11.344,27.389,-28.296,1.6683,-24.384
10.25,-25.422,11.747,-9.9386,14.685,-35.113,22.735,-32.959,4.1291,3.747,-21.142,11.258,27.423,-28.319,1.77,-24.366
10.25,-25.422,11.747,-9.9386,14.685,-35.113,22.735,-32.959,4.1291,3.747,-21.142,11.258,27.423,-28.319,1.77,-24.366
10.387,-25.408,11.962,-10.078,14.844,-35.113,22.968,-33.07,4.4399,3.5324,-20.989,11.173,27.457,-28.34,1.8716,-24.347
10.387,-25.408,11.962,-10.078,14.844,-35.113,22.968,-33.07,4.4399,3.5324,-20.989,11.173,27.457,-28.34,1.8716,-24.347
10.522,-25.393,12.177,-10.216,15.002,-35.112,23.199,-33.18,4.7509,3.3185,-20.836,11.088,27.49,-28.36,1.9731,-24.326
10.522,-25.393,12.177,-10.216,15.002,-35.112,23.199,-33.18,4.7509,3.3185,-20.836,11.088,27.49,-28.36,1.9731,-24.326
10.522,-25.393,12.177,-10.216,15.002,-35.112,23.199,-33.18,4.7509,3.3185,-20.836,11.088,27.49,-28.36,1.9731,-24.326
10.656,-25.377,12.391,-10.353,15.161,-35.112,23.43,-33.289,5.0621,3.1052,-20.682,11.004,27.522,-28.378,2.0745,-24.305
10.787,-25.359,12.605,-10.489,15.319,-35.112,23.659,-33.396,5.3735,2.8926,-20.528,10.919,27.553,-28.396,2.1757,-24.283
10.787,-25.359,12.605,-10.489,15.319,-35.112,23.659,-33.396,5.3735,2.8926,-20.528,10.919,27.553,-28.396,2.1757,-24.283
10.917,-25.341,12.818,-10.623,15.477,-35.112,23.888,-33.502,5.6849,2.6807,-20.372,10.835,27.583,-28.412,2.2769,-24.259
11.045,-25.321,13.03,-10.757,15.634,-35.112,24.115,-33.606,5.9965,2.4695,-20.216,10.751,27.613,-28.426,2.3779,-24.235
11.045,-25.321,13.03,-10.757,15.634,-35.112,24.115,-33.606,5.9965,2.4695,-20.216,10.751,27.613,-28.426,2.3779,-24.235
11.045,-25.321,13.03,-10.757,15.634,-35.112,24.115,-33.606,5.9965,2.4695,-20.216,10.751,27.613,-28.426,2.3779,-24.235
11.17,-25.299,13.242,-10.889,15.792,-35.111,24.341,-33.709,6.3082,2.259,-20.059,10.667,27.642,-28.44,2.4789,-24.21
11.17,-25.299,13.242,-10.889,15.792,-35.111,24.341,-33.709,6.3082,2.259,-20.059,10.667,27.642,-28.44,2.4789,-24.21
11.17,-25.299,13.242,-10.889,15.792,-35.111,24.341,-33.709,6.3082,2.259,-20.059,10.667,27.642,-28.44,2.4789,-24.21
11.294,-25.277,13.453,-11.02,15.949,-35.111,24.566,-33.811,6.62,2.0493,-19.901,10.584,27.67,-28.452,2.5797,-24.183
11.416,-25.253,13.663,-11.15,16.106,-35.111,24.789,-33.911,6.9319,1.8403,-19.742,10.5,27.697,-28.463,2.6803,-24.156
11.416,-25.253,13.663,-11.15,16.106,-35.111,24.789,-33.911,6.9319,1.8403,-19.742,10.5,27.697,-28.463,2.6803,-24.156
11.536,-25.228,13.873,-11.278,16.263,-35.111,25.012,-34.01,7.2438,1.6321,-19.582,10.417,27.724,-28.472,2.7809,-24.127
11.536,-25.228,13.873,-11.278,16.263,-35.111,25.012,-34.01,7.2438,1.6321,-19.582,10.417,27.724,-28.472,2.7809,-24.127
11.655,-25.201,14.082,-11.405,16.419,-35.111,25.233,-34.108,7.5557,1.4247,-19.422,10.334,27.75,-28.48,2.8812,-24.098
11.655,-25.201,14.082,-11.405,16.419,-35.111,25.233,-34.108,7.5557,1.4247,-19.422,10.334,27.75,-28.48,2.8812,-24.098
11.771,-25.174,14.29,-11.531,16.575,-35.111,25.453,-34.204,7.8677,1.2181,-19.261,10.252,27.775,-28.487,2.9815,-24.067
11.771,-25.174,14.29,-11.531,16.575,-35.111,25.453,-34.204,7.8677,1.2181,-19.261,10.252,27.775,-28.487,2.9815,-24.067
11.771,-25.174,14.29,-11.531,16.575,-35.111,25.453,-34.204,7.8677,1.2181,-19.261,10.252,27.775,-28.487,2.9815,-24.067
11.885,-25.145,14.498,-11.656,16.731,-35.111,25.672,-34.298,8.1796,1.0124,-19.099,10.169,27.799,-28.492,3.0816,-24.036
11.885,-25.145,14.498,-11.656,16.731,-35.111,25.672,-34.298,8.1796,1.0124,-19.099,10.169,27.799,-28.492,3.0816,-24.036
11.997,-25.114,14.704,-11.78,16.887,-35.11,25.889,-34.391,8.4916,0.80742,-18.937,10.087,27.822,-28.497,3.1815,-24.003
12.108,-25.083,14.911,-11.902,17.042,-35.11,26.105,-34.483,8.8035,0.60332,-18.774,10.006,27.845,-28.499,3.2813,-23.97
12.216,-25.051,15.116,-12.023,17.197,-35.11,26.32,-34.573,9.1154,0.4001,-18.61,9.9244,27.867,-28.501,3.381,-23.935
12.216,-25.051,15.116,-12.023,17.197,-35.11,26.32,-34.573,9.1154,0.4001,-18.61,9.9244,27.867,-28.501,3.381,-23.935
12.216,-25.051,15.116,-12.023,17.197,-35.11,26.32,-34.573,9.1154,0.4001,-18.61,9.9244,27.867,-28.501,3.381,-23.935
12.323,-25.017,15.321,-12.143,17.352,-35.11,26.534,-34.662,9.4272,0.19774,-18.445,9.8433,27.888,-28.501,3.4805,-23.899
12.323,-25.017,15.321,-12.143,17.352,-35.11,26.534,-34.662,9.4272,0.19774,-18.445,9.8433,27.888,-28.501,3.4805,-23.899
12.427,-24.982,15.524,-12.261,17.506,-35.11,26.746,-34.75,9.7389,-0.003716,-18.28,9.7625,27.908,-28.5,3.5798,-23.863
12.427,-24.982,15.524,-12.261,17.506,-35.11,26.746,-34.75,9.7389,-0.003716,-18.28,9.7625,27.908,-28.5,3.5798,-23.863
12.53,-24.945,15.728,-12.378,17.66,-35.11,26.957,-34.836,10.051,-0.20427,-18.114,9.6821,27.928,-28.498,3.6789,-23.825
12.63,-24.908,15.93,-12.494,17.814,-35.11,27.167,-34.92,10.362,-0.4039,-17.947,9.6019,27.946,-28.494,3.7779,-23.786
12.63,-24.908,15.93,-12.494,17.814,-35.11,27.167,-34.92,10.362,-0.4039,-17.947,9.6019,27.946,-28.494,3.7779,-23.786
12.63,-24.908,15.93,-12.494,17.814,-35.11,27.167,-34.92,10.362,-0.4039,-17.947,9.6019,27.946,-28.494,3.7779,-23.786
12.729,-24.869,16.131,-12.608,17.967,-35.111,27.375,-35.003,10.673,-0.6026,-17.78,9.5222,27.964,-28.489,3.8766,-23.747
12.729,-24.869,16.131,-12.608,17.967,-35.111,27.375,-35.003,10.673,-0.6026,-17.78,9.5222,27.964,-28.489,3.8766,-23.747
12.826,-24.829,16.332,-12.721,18.12,-35.111,27.582,-35.085,10.985,-0.80036,-17.612,9.4427,27.981,-28.482,3.9752,-23.706
12.826,-24.829,16.332,-12.721,18.12,-35.111,27.582,-35.085,10.985,-0.80036,-17.612,9.4427,27.981,-28.482,3.9752,-23.706
12.921,-24.788,16.532,-12.833,18.273,-35.111,27.788,-35.165,11.296,-0.99715,-17.443,9.3637,27.998,-28.475,4.0737,-23.664
12.921,-24.788,16.532,-12.833,18.273,-35.111,27.788,-35.165,11.296,-0.99715,-17.443,9.3637,27.998,-28.475,4.0737,-23.664
13.013,-24.746,16.731,-12.944,18.425,-35.111,27.992,-35.243,11.606,-1.193,-17.274,9.2849,28.013,-28.466,4.1719,-23.621
13.013,-24.746,16.731,-12.944,18.425,-35.111,27.992,-35.243,11.606,-1.193,-17.274,9.2849,28.013,-28.466,4.1719,-23.621
13.104,-24.702,16.929,-13.053,18.577,-35.111,28.195,-35.32,11.917,-1.3878,-17.104,9.2066,28.028,-28.455,4.2699,-23.577
13.104,-24.702,16.929,-13.053,18.577,-35.111,28.195,-35.32,11.917,-1.3878,-17.104,9.2066,28.028,-28.455,4.2699,-23.577
13.104,-24.702,16.929,-13.053,18.577,-35.111,28.195,-35.32,11.917,-1.3878,-17.104,9.2066,28.028,-28.455,4.2699,-23.577
13.193,-24.658,17.126,-13.161,18.728,-35.111,28.396,-35.396,12.228,-1.5816,-16.933,9.1286,28.042,-28.444,4.3678,-23.533
13.193,-24.658,17.126,-13.161,18.728,-35.111,28.396,-35.396,12.228,-1.5816,-16.933,9.1286,28.042,-28.444,4.3678,-23.533
13.193,-24.658,17.126,-13.161,18.728,-35.111,28.396,-35.396,12.228,-1.5816,-16.933,9.1286,28.042,-28.444,4.3678,-23.533
13.365,-24.565,17.517,-13.372,19.03,-35.112,28.795,-35.543,12.848,-1.9662,-16.59,8.9739,28.068,-28.416,4.5628,-23.44
13.365,-24.565,17.517,-13.372,19.03,-35.112,28.795,-35.543,12.848,-1.9662,-16.59,8.9739,28.068,-28.416,4.5628,-23.44
13.448,-24.517,17.712,-13.476,19.18,-35.112,28.993,-35.614,13.157,-2.1569,-16.417,8.8971,28.08,-28.401,4.6601,-23.392
13.448,-24.517,17.712,-13.476,19.18,-35.112,28.993,-35.614,13.157,-2.1569,-16.417,8.8971,28.08,-28.401,4.6601,-23.392
13.448,-24.517,17.712,-13.476,19.18,-35.112,28.993,-35.614,13.157,-2.1569,-16.417,8.8971,28.08,-28.401,4.6601,-23.392
13.529,-24.468,17.905,-13.578,19.33,-35.112,29.188,-35.684,13.467,-2.3466,-16.244,8.8207,28.091,-28.384,4.7571,-23.343
13.529,-24.468,17.905,-13.578,19.33,-35.112,29.188,-35.684,13.467,-2.3466,-16.244,8.8207,28.091,-28.384,4.7571,-23.343
13.529,-24.468,17.905,-13.578,19.33,-35.112,29.188,-35.684,13.467,-2.3466,-16.244,8.8207,28.091,-28.384,4.7571,-23.343
13.685,-24.366,18.29,-13.779,19.628,-35.113,29.576,-35.818,14.084,-2.7227,-15.896,8.6691,28.11,-28.346,4.9504,-23.243
13.685,-24.366,18.29,-13.779,19.628,-35.113,29.576,-35.818,14.084,-2.7227,-15.896,8.6691,28.11,-28.346,4.9504,-23.243
13.76,-24.313,18.48,-13.877,19.776,-35.114,29.767,-35.883,14.393,-2.9092,-15.721,8.594,28.119,-28.325,5.0468,-23.191
13.76,-24.313,18.48,-13.877,19.776,-35.114,29.767,-35.883,14.393,-2.9092,-15.721,8.594,28.119,-28.325,5.0468,-23.191
13.833,-24.259,18.67,-13.974,19.924,-35.114,29.958,-35.947,14.701,-3.0945,-15.546,8.5193,28.126,-28.303,5.1429,-23.138
13.833,-24.259,18.67,-13.974,19.924,-35.114,29.958,-35.947,14.701,-3.0945,-15.546,8.5193,28.126,-28.303,5.1429,-23.138
13.904,-24.204,18.859,-14.069,20.072,-35.114,30.146,-36.009,15.009,-3.2787,-15.37,8.4451,28.133,-28.28,5.2388,-23.084
13.904,-24.204,18.859,-14.069,20.072,-35.114,30.146,-36.009,15.009,-3.2787,-15.37,8.4451,28.133,-28.28,5.2388,-23.084
13.973,-24.148,19.047,-14.163,20.218,-35.115,30.333,-36.069,15.316,-3.4618,-15.194,8.3713,28.14,-28.255,5.3345,-23.029
13.973,-24.148,19.047,-14.163,20.218,-35.115,30.333,-36.069,15.316,-3.4618,-15.194,8.3713,28.14,-28.255,5.3345,-23.029
13.973,-24.148,19.047,-14.163,20.218,-35.115,30.333,-36.069,15.316,-3.4618,-15.194,8.3713,28.14,-28.255,5.3345,-23.029
14.04,-24.091,19.233,-14.255,20.365,-35.115,30.519,-36.128,15.623,-3.6437,-15.017,8.2979,28.145,-28.229,5.4299,-22.974
14.04,-24.091,19.233,-14.255,20.365,-35.115,30.519,-36.128,15.623,-3.6437,-15.017,8.2979,28.145,-28.229,5.4299,-22.974
14.105,-24.033,19.419,-14.347,20.511,-35.116,30.703,-36.186,15.929,-3.8245,-14.839,8.225,28.15,-28.201,5.5251,-22.917
14.168,-23.973,19.604,-14.436,20.656,-35.116,30.886,-36.241,16.235,-4.0041,-14.661,8.1526,28.154,-28.173,5.6201,-22.859
14.168,-23.973,19.604,-14.436,20.656,-35.116,30.886,-36.241,16.235,-4.0041,-14.661,8.1526,28.154,-28.173,5.6201,-22.859
14.229,-23.913,19.787,-14.524,20.801,-35.117,31.067,-36.296,16.541,-4.1825,-14.483,8.0806,28.157,-28.143,5.7148,-22.8
14.229,-23.913,19.787,-14.524,20.801,-35.117,31.067,-36.296,16.541,-4.1825,-14.483,8.0806,28.157,-28.143,5.7148,-22.8
14.289,-23.851,19.97,-14.611,20.945,-35.117,31.247,-36.348,16.846,-4.3597,-14.304,8.0092,28.159,-28.112,5.8093,-22.741
14.289,-23.851,19.97,-14.611,20.945,-35.117,31.247,-36.348,16.846,-4.3597,-14.304,8.0092,28.159,-28.112,5.8093,-22.741
14.346,-23.789,20.152,-14.697,21.089,-35.117,31.425,-36.4,17.15,-4.5357,-14.124,7.9382,28.161,-28.079,5.9035,-22.68
14.346,-23.789,20.152,-14.697,21.089,-35.117,31.425,-36.4,17.15,-4.5357,-14.124,7.9382,28.161,-28.079,5.9035,-22.68
14.346,-23.789,20.152,-14.697,21.089,-35.117,31.425,-36.4,17.15,-4.5357,-14.124,7.9382,28.161,-28.079,5.9035,-22.68
14.401,-23.725,20.332,-14.78,21.232,-35.118,31.601,-36.449,17.454,-4.7105,-13.944,7.8677,28.161,-28.045,5.9974,-22.618
14.401,-23.725,20.332,-14.78,21.232,-35.118,31.601,-36.449,17.454,-4.7105,-13.944,7.8677,28.161,-28.045,5.9974,-22.618
14.454,-23.661,20.511,-14.863,21.374,-35.118,31.776,-36.497,17.758,-4.8841,-13.764,7.7977,28.161,-28.01,6.0911,-22.556
14.454,-23.661,20.511,-14.863,21.374,-35.118,31.776,-36.497,17.758,-4.8841,-13.764,7.7977,28.161,-28.01,6.0911,-22.556
14.506,-23.595,20.69,-14.944,21.516,-35.119,31.95,-36.544,18.061,-5.0565,-13.583,7.7282,28.161,-27.973,6.1845,-22.492
14.555,-23.528,20.867,-15.024,21.657,-35.119,32.122,-36.589,18.363,-5.2275,-13.402,7.6593,28.159,-27.936,6.2777,-22.428
14.603,-23.46,21.043,-15.102,21.798,-35.119,32.292,-36.632,18.665,-5.3974,-13.22,7.5908,28.157,-27.897,6.3706,-22.362
14.603,-23.46,21.043,-15.102,21.798,-35.119,32.292,-36.632,18.665,-5.3974,-13.22,7.5908,28.157,-27.897,6.3706,-22.362
14.603,-23.46,21.043,-15.102,21.798,-35.119,32.292,-36.632,18.665,-5.3974,-13.22,7.5908,28.157,-27.897,6.3706,-22.362
14.648,-23.391,21.218,-15.178,21.938,-35.12,32.461,-36.674,18.966,-5.5659,-13.038,7.5229,28.153,-27.856,6.4632,-22.296
14.648,-23.391,21.218,-15.178,21.938,-35.12,32.461,-36.674,18.966,-5.5659,-13.038,7.5229,28.153,-27.856,6.4632,-22.296
14.648,-23.391,21.218,-15.178,21.938,-35.12,32.461,-36.674,18.966,-5.5659,-13.038,7.5229,28.153,-27.856,6.4632,-22.296
14.691,-23.321,21.391,-15.253,22.077,-35.12,32.628,-36.714,19.267,-5.7332,-12.855,7.4555,28.149,-27.815,6.5556,-22.228
14.733,-23.25,21.564,-15.327,22.216,-35.12,32.793,-36.753,19.567,-5.8992,-12.673,7.3887,28.145,-27.772,6.6477,-22.16
14.733,-23.25,21.564,-15.327,22.216,-35.12,32.793,-36.753,19.567,-5.8992,-12.673,7.3887,28.145,-27.772,6.6477,-22.16
14.773,-23.179,21.736,-15.399,22.354,-35.121,32.957,-36.79,19.866,-6.0638,-12.489,7.3224,28.139,-27.728,6.7395,-22.091
14.773,-23.179,21.736,-15.399,22.354,-35.121,32.957,-36.79,19.866,-6.0638,-12.489,7.3224,28.139,-27.728,6.7395,-22.091
14.81,-23.106,21.906,-15.47,22.492,-35.121,33.12,-36.825,20.164,-6.2272,-12.306,7.2566,28.133,-27.682,6.831,-22.021
14.81,-23.106,21.906,-15.47,22.492,-35.121,33.12,-36.825,20.164,-6.2272,-12.306,7.2566,28.133,-27.682,6.831,-22.021
14.846,-23.032,22.075,-15.539,22.628,-35.121,33.28,-36.859,20.462,-6.3892,-12.122,7.1914,28.126,-27.636,6.9222,-21.949
14.846,-23.032,22.075,-15.539,22.628,-35.121,33.28,-36.859,20.462,-6.3892,-12.122,7.1914,28.126,-27.636,6.9222,-21.949
14.846,-23.032,22.075,-15.539,22.628,-35.121,33.28,-36.859,20.462,-6.3892,-12.122,7.1914,28.126,-27.636,6.9222,-21.949
14.88,-22.957,22.243,-15.607,22.764,-35.121,33.44,-36.891,20.76,-6.5499,-11.938,7.1267,28.118,-27.588,7.0131,-21.877
14.911,-22.881,22.41,-15.673,22.9,-35.121,33.597,-36.922,21.056,-6.7092,-11.753,7.0627,28.109,-27.538,7.1038,-21.804
14.911,-22.881,22.41,-15.673,22.9,-35.121,33.597,-36.922,21.056,-6.7092,-11.753,7.0627,28.109,-27.538,7.1038,-21.804
14.941,-22.804,22.575,-15.738,23.034,-35.121,33.753,-36.951,21.352,-6.8672,-11.568,6.9992,28.1,-27.488,7.1941,-21.73
14.941,-22.804,22.575,-15.738,23.034,-35.121,33.753,-36.951,21.352,-6.8672,-11.568,6.9992,28.1,-27.488,7.1941,-21.73
14.969,-22.726,22.739,-15.801,23.168,-35.121,33.907,-36.978,21.647,-7.0238,-11.383,6.9362,28.089,-27.436,7.2841,-21.656
14.969,-22.726,22.739,-15.801,23.168,-35.121,33.907,-36.978,21.647,-7.0238,-11.383,6.9362,28.089,-27.436,7.2841,-21.656
14.969,-22.726,22.739,-15.801,23.168,-35.121,33.907,-36.978,21.647,-7.0238,-11.383,6.9362,28.089,-27.436,7.2841,-21.656
14.995,-22.647,22.902,-15.863,23.301,-35.121,34.06,-37.004,21.942,-7.1791,-11.197,6.8739,28.078,-27.383,7.3739,-21.58
15.019,-22.568,23.064,-15.923,23.434,-35.12,34.211,-37.028,22.235,-7.3329,-11.011,6.8121,28.066,-27.329,7.4633,-21.503
15.019,-22.568,23.064,-15.923,23.434,-35.12,34.211,-37.028,22.235,-7.3329,-11.011,6.8121,28.066,-27.329,7.4633,-21.503
15.019,-22.568,23.064,-15.923,23.434,-35.12,34.211,-37.028,22.235,-7.3329,-11.011,6.8121,28.066,-27.329,7.4633,-21.503
15.041,-22.487,23.225,-15.982,23.565,-35.12,34.36,-37.051,22.528,-7.4854,-10.825,6.751,28.054,-27.273,7.5525,-21.426
15.041,-22.487,23.225,-15.982,23.565,-35.12,34.36,-37.051,22.528,-7.4854,-10.825,6.751,28.054,-27.273,7.5525,-21.426
15.041,-22.487,23.225,-15.982,23.565,-35.12,34.36,-37.051,22.528,-7.4854,-10.825,6.751,28.054,-27.273,7.5525,-21.426
15.08,-22.323,23.542,-16.095,23.826,-35.119,34.654,-37.092,23.111,-7.7861,-10.452,6.6305,28.026,-27.159,7.7298,-21.268
15.08,-22.323,23.542,-16.095,23.826,-35.119,34.654,-37.092,23.111,-7.7861,-10.452,6.6305,28.026,-27.159,7.7298,-21.268
15.08,-22.323,23.542,-16.095,23.826,-35.119,34.654,-37.092,23.111,-7.7861,-10.452,6.6305,28.026,-27.159,7.7298,-21.268
15.096,-22.24,23.699,-16.149,23.955,-35.118,34.798,-37.11,23.401,-7.9343,-10.265,6.5711,28.011,-27.1,7.818,-21.188
15.11,-22.155,23.854,-16.202,24.084,-35.117,34.941,-37.126,23.691,-8.0811,-10.078,6.5124,27.995,-27.039,7.9059,-21.107
15.11,-22.155,23.854,-16.202,24.084,-35.117,34.941,-37.126,23.691,-8.0811,-10.078,6.5124,27.995,-27.039,7.9059,-21.107
15.123,-22.07,24.008,-16.253,24.211,-35.117,35.082,-37.14,23.979,-8.2265,-9.891,6.4543,27.979,-26.978,7.9934,-21.025
15.123,-22.07,24.008,-16.253,24.211,-35.117,35.082,-37.14,23.979,-8.2265,-9.891,6.4543,27.979,-26.978,7.9934,-21.025
15.133,-21.984,24.161,-16.302,24.338,-35.116,35.221,-37.153,24.267,-8.3704,-9.7036,6.3968,27.961,-26.915,8.0806,-20.942
15.133,-21.984,24.161,-16.302,24.338,-35.116,35.221,-37.153,24.267,-8.3704,-9.7036,6.3968,27.961,-26.915,8.0806,-20.942
15.142,-21.897,24.313,-16.351,24.464,-35.114,35.359,-37.165,24.554,-8.5128,-9.5159,6.34,27.943,-26.851,8.1675,-20.858
15.142,-21.897,24.313,-16.351,24.464,-35.114,35.359,-37.165,24.554,-8.5128,-9.5159,6.34,27.943,-26.851,8.1675,-20.858
15.149,-21.809,24.463,-16.397,24.589,-35.113,35.495,-37.175,24.839,-8.6538,-9.3281,6.2838,27.924,-26.785,8.2541,-20.774
15.149,-21.809,24.463,-16.397,24.589,-35.113,35.495,-37.175,24.839,-8.6538,-9.3281,6.2838,27.924,-26.785,8.2541,-20.774
15.149,-21.809,24.463,-16.397,24.589,-35.113,35.495,-37.175,24.839,-8.6538,-9.3281,6.2838,27.924,-26.785,8.2541,-20.774
15.154,-21.72,24.612,-16.442,24.713,-35.112,35.629,-37.183,25.124,-8.7933,-9.1401,6.2282,27.904,-26.719,8.3403,-20.688
15.157,-21.63,24.759,-16.486,24.836,-35.11,35.761,-37.189,25.408,-8.9313,-8.9519,6.1733,27.884,-26.651,8.4262,-20.602
15.157,-21.63,24.759,-16.486,24.836,-35.11,35.761,-37.189,25.408,-8.9313,-8.9519,6.1733,27.884,-26.651,8.4262,-20.602
15.158,-21.54,24.906,-16.528,24.959,-35.108,35.892,-37.194,25.691,-9.0678,-8.7637,6.119,27.862,-26.582,8.5118,-20.515
15.157,-21.448,25.05,-16.568,25.08,-35.106,36.021,-37.198,25.973,-9.2028,-8.5753,6.0654,27.84,-26.512,8.597,-20.427
15.157,-21.448,25.05,-16.568,25.08,-35.106,36.021,-37.198,25.973,-9.2028,-8.5753,6.0654,27.84,-26.512,8.597,-20.427
15.157,-21.448,25.05,-16.568,25.08,-35.106,36.021,-37.198,25.973,-9.2028,-8.5753,6.0654,27.84,-26.512,8.597,-20.427
15.155,-21.356,25.194,-16.607,25.201,-35.104,36.148,-37.199,26.254,-9.3363,-8.3868,6.0124,27.817,-26.441,8.6819,-20.338
15.155,-21.356,25.194,-16.607,25.201,-35.104,36.148,-37.199,26.254,-9.3363,-8.3868,6.0124,27.817,-26.441,8.6819,-20.338
15.15,-21.263,25.336,-16.645,25.32,-35.102,36.274,-37.199,26.534,-9.4684,-8.1982,5.9602,27.793,-26.368,8.7664,-20.249
15.15,-21.263,25.336,-16.645,25.32,-35.102,36.274,-37.199,26.534,-9.4684,-8.1982,5.9602,27.793,-26.368,8.7664,-20.249
15.144,-21.169,25.477,-16.681,25.439,-35.1,36.398,-37.198,26.813,-9.5988,-8.0095,5.9085,27.769,-26.295,8.8506,-20.158
15.136,-21.075,25.616,-16.715,25.557,-35.097,36.52,-37.195,27.091,-9.7278,-7.8207,5.8576,27.744,-26.22,8.9345,-20.067
15.136,-21.075,25.616,-16.715,25.557,-35.097,36.52,-37.195,27.091,-9.7278,-7.8207,5.8576,27.744,-26.22,8.9345,-20.067
15.136,-21.075,25.616,-16.715,25.557,-35.097,36.52,-37.195,27.091,-9.7278,-7.8207,5.8576,27.744,-26.22,8.9345,-20.067
15.126,-20.979,25.754,-16.748,25.674,-35.094,36.641,-37.19,27.368,-9.8552,-7.6319,5.8073,27.717,-26.144,9.0179,-19.975
15.126,-20.979,25.754,-16.748,25.674,-35.094,36.641,-37.19,27.368,-9.8552,-7.6319,5.8073,27.717,-26.144,9.0179,-19.975
15.126,-20.979,25.754,-16.748,25.674,-35.094,36.641,-37.19,27.368,-9.8552,-7.6319,5.8073,27.717,-26.144,9.0179,-19.975
15.114,-20.883,25.891,-16.779,25.789,-35.091,36.759,-37.184,27.643,-9.9811,-7.4431,5.7577,27.691,-26.067,9.1011,-19.882
15.114,-20.883,25.891,-16.779,25.789,-35.091,36.759,-37.184,27.643,-9.9811,-7.4431,5.7577,27.691,-26.067,9.1011,-19.882
15.1,-20.786,26.026,-16.809,25.904,-35.088,36.876,-37.176,27.918,-10.105,-7.2542,5.7088,27.663,-25.989,9.1838,-19.788
15.1,-20.786,26.026,-16.809,25.904,-35.088,36.876,-37.176,27.918,-10.105,-7.2542,5.7088,27.663,-25.989,9.1838,-19.788
15.1,-20.786,26.026,-16.809,25.904,-35.088,36.876,-37.176,27.918,-10.105,-7.2542,5.7088,27.663,-25.989,9.1838,-19.788
15.085,-20.688,26.159,-16.838,26.018,-35.084,36.992,-37.166,28.192,-10.228,-7.0653,5.6606,27.634,-25.909,9.2662,-19.694
15.067,-20.589,26.292,-16.864,26.131,-35.081,37.105,-37.155,28.464,-10.349,-6.8764,5.6131,27.605,-25.829,9.3483,-19.599
15.048,-20.49,26.423,-16.89,26.243,-35.077,37.217,-37.142,28.735,-10.469,-6.6875,5.5663,27.575,-25.747,9.4299,-19.503
15.048,-20.49,26.423,-16.89,26.243,-35.077,37.217,-37.142,28.735,-10.469,-6.6875,5.5663,27.575,-25.747,9.4299,-19.503
15.027,-20.39,26.552,-16.913,26.353,-35.073,37.327,-37.128,29.005,-10.587,-6.4986,5.5202,27.544,-25.664,9.5112,-19.406
15.027,-20.39,26.552,-16.913,26.353,-35.073,37.327,-37.128,29.005,-10.587,-6.4986,5.5202,27.544,-25.664,9.5112,-19.406
15.005,-20.289,26.68,-16.935,26.463,-35.068,37.435,-37.112,29.274,-10.704,-6.3097,5.4748,27.512,-25.58,9.5922,-19.309
15.005,-20.289,26.68,-16.935,26.463,-35.068,37.435,-37.112,29.274,-10.704,-6.3097,5.4748,27.512,-25.58,9.5922,-19.309
15.005,-20.289,26.68,-16.935,26.463,-35.068,37.435,-37.112,29.274,-10.704,-6.3097,5.4748,27.512,-25.58,9.5922,-19.309
14.98,-20.187,26.806,-16.956,26.572,-35.063,37.542,-37.094,29.542,-10.818,-6.1209,5.4301,27.48,-25.495,9.6727,-19.21
14.98,-20.187,26.806,-16.956,26.572,-35.063,37.542,-37.094,29.542,-10.818,-6.1209,5.4301,27.48,-25.495,9.6727,-19.21
14.98,-20.187,26.806,-16.956,26.572,-35.063,37.542,-37.094,29.542,-10.818,-6.1209,5.4301,27.48,-25.495,9.6727,-19.21
14.925,-19.981,27.055,-16.993,26.786,-35.053,37.749,-37.054,30.074,-11.043,-5.7435,5.3428,27.413,-25.322,9.8327,-19.012
14.925,-19.981,27.055,-16.993,26.786,-35.053,37.749,-37.054,30.074,-11.043,-5.7435,5.3428,27.413,-25.322,9.8327,-19.012
14.895,-19.878,27.177,-17.009,26.891,-35.047,37.85,-37.031,30.338,-11.154,-5.5549,5.3003,27.378,-25.234,9.9121,-18.911
14.895,-19.878,27.177,-17.009,26.891,-35.047,37.85,-37.031,30.338,-11.154,-5.5549,5.3003,27.378,-25.234,9.9121,-18.911
14.895,-19.878,27.177,-17.009,26.891,-35.047,37.85,-37.031,30.338,-11.154,-5.5549,5.3003,27.378,-25.234,9.9121,-18.911
14.864,-19.773,27.298,-17.024,26.996,-35.042,37.95,-37.007,30.601,-11.262,-5.3665,5.2585,27.342,-25.144,9.9912,-18.81
14.83,-19.668,27.417,-17.037,27.099,-35.035,38.048,-36.982,30.863,-11.369,-5.1781,5.2174,27.306,-25.054,10.07,-18.708
14.795,-19.562,27.535,-17.048,27.201,-35.029,38.144,-36.954,31.123,-11.474,-4.9899,5.177,27.268,-24.963,10.148,-18.605
14.795,-19.562,27.535,-17.048,27.201,-35.029,38.144,-36.954,31.123,-11.474,-4.9899,5.177,27.268,-24.963,10.148,-18.605
14.795,-19.562,27.535,-17.048,27.201,-35.029,38.144,-36.954,31.123,-11.474,-4.9899,5.177,27.268,-24.963,10.148,-18.605
14.758,-19.455,27.651,-17.058,27.302,-35.022,38.238,-36.926,31.383,-11.578,-4.8018,5.1374,27.23,-24.87,10.226,-18.502
14.758,-19.455,27.651,-17.058,27.302,-35.022,38.238,-36.926,31.383,-11.578,-4.8018,5.1374,27.23,-24.87,10.226,-18.502
14.719,-19.348,27.766,-17.067,27.402,-35.015,38.33,-36.895,31.64,-11.68,-4.6139,5.0985,27.192,-24.776,10.303,-18.398
14.719,-19.348,27.766,-17.067,27.402,-35.015,38.33,-36.895,31.64,-11.68,-4.6139,5.0985,27.192,-24.776,10.303,-18.398
14.719,-19.348,27.766,-17.067,27.402,-35.015,38.33,-36.895,31.64,-11.68,-4.6139,5.0985,27.192,-24.776,10.303,-18.398
14.679,-19.24,27.879,-17.074,27.501,-35.008,38.421,-36.863,31.897,-11.78,-4.4261,5.0604,27.152,-24.682,10.38,-18.293
14.679,-19.24,27.879,-17.074,27.501,-35.008,38.421,-36.863,31.897,-11.78,-4.4261,5.0604,27.152,-24.682,10.38,-18.293
14.636,-19.131,27.99,-17.079,27.598,-35,38.51,-36.83,32.152,-11.879,-4.2385,5.023,27.112,-24.586,10.457,-18.188
14.593,-19.022,28.1,-17.083,27.695,-34.992,38.597,-36.794,32.406,-11.976,-4.0511,4.9864,27.07,-24.489,10.533,-18.081
14.593,-19.022,28.1,-17.083,27.695,-34.992,38.597,-36.794,32.406,-11.976,-4.0511,4.9864,27.07,-24.489,10.533,-18.081
14.547,-18.912,28.209,-17.086,27.79,-34.983,38.682,-36.758,32.659,-12.071,-3.864,4.9505,27.029,-24.392,10.609,-17.975
14.547,-18.912,28.209,-17.086,27.79,-34.983,38.682,-36.758,32.659,-12.071,-3.864,4.9505,27.029,-24.392,10.609,-17.975
14.5,-18.801,28.316,-17.087,27.884,-34.974,38.765,-36.719,32.91,-12.165,-3.677,4.9154,26.986,-24.293,10.685,-17.867
14.5,-18.801,28.316,-17.087,27.884,-34.974,38.765,-36.719,32.91,-12.165,-3.677,4.9154,26.986,-24.293,10.685,-17.867
14.5,-18.801,28.316,-17.087,27.884,-34.974,38.765,-36.719,32.91,-12.165,-3.677,4.9154,26.986,-24.293,10.685,-17.867
14.45,-18.69,28.422,-17.086,27.977,-34.965,38.847,-36.679,33.16,-12.257,-3.4903,4.881,26.942,-24.193,10.76,-17.759
14.4,-18.578,28.526,-17.084,28.068,-34.955,38.927,-36.638,33.408,-12.348,-3.3039,4.8474,26.898,-24.092,10.834,-17.65
14.347,-18.465,28.628,-17.08,28.159,-34.945,39.005,-36.595,33.655,-12.436,-3.1177,4.8145,26.853,-23.991,10.909,-17.541
14.347,-18.465,28.628,-17.08,28.159,-34.945,39.005,-36.595,33.655,-12.436,-3.1177,4.8145,26.853,-23.991,10.909,-17.541
14.293,-18.352,28.729,-17.075,28.248,-34.935,39.082,-36.55,33.901,-12.523,-2.9318,4.7825,26.807,-23.888,10.982,-17.431
14.293,-18.352,28.729,-17.075,28.248,-34.935,39.082,-36.55,33.901,-12.523,-2.9318,4.7825,26.807,-23.888,10.982,-17.431
14.293,-18.352,28.729,-17.075,28.248,-34.935,39.082,-36.55,33.901,-12.523,-2.9318,4.7825,26.807,-23.888,10.982,-17.431
14.237,-18.238,28.828,-17.069,28.336,-34.924,39.156,-36.504,34.145,-12.609,-2.7462,4.7512,26.761,-23.784,11.056,-17.32
14.237,-18.238,28.828,-17.069,28.336,-34.924,39.156,-36.504,34.145,-12.609,-2.7462,4.7512,26.761,-23.784,11.056,-17.32
14.18,-18.124,28.926,-17.061,28.422,-34.912,39.229,-36.456,34.388,-12.693,-2.561,4.7206,26.713,-23.68,11.129,-17.209
14.18,-18.124,28.926,-17.061,28.422,-34.912,39.229,-36.456,34.388,-12.693,-2.561,4.7206,26.713,-23.68,11.129,-17.209
14.121,-18.009,29.023,-17.051,28.508,-34.901,39.3,-36.407,34.629,-12.775,-2.376,4.6909,26.665,-23.574,11.201,-17.097
14.121,-18.009,29.023,-17.051,28.508,-34.901,39.3,-36.407,34.629,-12.775,-2.376,4.6909,26.665,-23.574,11.201,-17.097
14.06,-17.894,29.117,-17.04,28.592,-34.889,39.37,-36.356,34.869,-12.855,-2.1914,4.6619,26.616,-23.468,11.273,-16.984
14.06,-17.894,29.117,-17.04,28.592,-34.889,39.37,-36.356,34.869,-12.855,-2.1914,4.6619,26.616,-23.468,11.273,-16.984
13.997,-17.777,29.21,-17.028,28.675,-34.876,39.437,-36.304,35.107,-12.934,-2.0071,4.6337,26.566,-23.36,11.345,-16.871
13.997,-17.777,29.21,-17.028,28.675,-34.876,39.437,-36.304,35.107,-12.934,-2.0071,4.6337,26.566,-23.36,11.345,-16.871
13.997,-17.777,29.21,-17.028,28.675,-34.876,39.437,-36.304,35.107,-12.934,-2.0071,4.6337,26.566,-23.36,11.345,-16.871
13.933,-17.661,29.302,-17.014,28.756,-34.863,39.503,-36.25,35.344,-13.011,-1.8232,4.6063,26.516,-23.252,11.416,-16.758
13.868,-17.544,29.392,-16.999,28.836,-34.849,39.567,-36.194,35.579,-13.086,-1.6397,4.5797,26.465,-23.143,11.487,-16.643
13.868,-17.544,29.392,-16.999,28.836,-34.849,39.567,-36.194,35.579,-13.086,-1.6397,4.5797,26.465,-23.143,11.487,-16.643
13.868,-17.544,29.392,-16.999,28.836,-34.849,39.567,-36.194,35.579,-13.086,-1.6397,4.5797,26.465,-23.143,11.487,-16.643
13.8,-17.426,29.48,-16.982,28.915,-34.835,39.629,-36.137,35.813,-13.16,-1.4566,4.5538,26.413,-23.033,11.558,-16.528
13.8,-17.426,29.48,-16.982,28.915,-34.835,39.629,-36.137,35.813,-13.16,-1.4566,4.5538,26.413,-23.033,11.558,-16.528
13.8,-17.426,29.48,-16.982,28.915,-34.835,39.629,-36.137,35.813,-13.16,-1.4566,4.5538,26.413,-23.033,11.558,-16.528
13.661,-17.189,29.652,-16.944,29.069,-34.806,39.748,-36.019,36.276,-13.302,-1.0916,4.5045,26.306,-22.81,11.697,-16.297
13.661,-17.189,29.652,-16.944,29.069,-34.806,39.748,-36.019,36.276,-13.302,-1.0916,4.5045,26.306,-22.81,11.697,-16.297
13.661,-17.189,29.652,-16.944,29.069,-34.806,39.748,-36.019,36.276,-13.302,-1.0916,4.5045,26.306,-22.81,11.697,-16.297
13.589,-17.07,29.736,-16.922,29.144,-34.79,39.805,-35.957,36.505,-13.37,-0.90974,4.4811,26.252,-22.697,11.766,-16.181
13.589,-17.07,29.736,-16.922,29.144,-34.79,39.805,-35.957,36.505,-13.37,-0.90974,4.4811,26.252,-22.697,11.766,-16.181
13.515,-16.95,29.818,-16.9,29.218,-34.774,39.86,-35.894,36.733,-13.437,-0.72835,4.4584,26.197,-22.584,11.835,-16.064
13.515,-16.95,29.818,-16.9,29.218,-34.774,39.86,-35.894,36.733,-13.437,-0.72835,4.4584,26.197,-22.584,11.835,-16.064
13.44,-16.83,29.898,-16.876,29.29,-34.758,39.914,-35.83,36.959,-13.502,-0.54742,4.4366,26.141,-22.469,11.903,-15.946
13.363,-16.709,29.977,-16.85,29.361,-34.741,39.965,-35.764,37.184,-13.566,-0.36698,4.4155,26.085,-22.354,11.971,-15.828
13.285,-16.587,30.054,-16.823,29.431,-34.723,40.015,-35.696,37.407,-13.628,-0.18704,4.3952,26.027,-22.238,12.038,-15.709
13.285,-16.587,30.054,-16.823,29.431,-34.723,40.015,-35.696,37.407,-13.628,-0.18704,4.3952,26.027,-22.238,12.038,-15.709
13.285,-16.587,30.054,-16.823,29.431,-34.723,40.015,-35.696,37.407,-13.628,-0.18704,4.3952,26.027,-22.238,12.038,-15.709
13.205,-16.466,30.13,-16.795,29.499,-34.705,40.063,-35.627,37.628,-13.688,-0.0076081,4.3758,25.969,-22.121,12.105,-15.59
13.205,-16.466,30.13,-16.795,29.499,-34.705,40.063,-35.627,37.628,-13.688,-0.0076081,4.3758,25.969,-22.121,12.105,-15.59
13.205,-16.466,30.13,-16.795,29.499,-34.705,40.063,-35.627,37.628,-13.688,-0.0076081,4.3758,25.969,-22.121,12.105,-15.59
13.124,-16.344,30.204,-16.765,29.565,-34.686,40.109,-35.557,37.848,-13.746,0.1713,4.3571,25.91,-22.004,12.171,-15.471
13.041,-16.221,30.276,-16.733,29.631,-34.667,40.154,-35.485,38.066,-13.802,0.34966,4.3393,25.851,-21.885,12.237,-15.351
12.956,-16.098,30.347,-16.701,29.695,-34.647,40.197,-35.411,38.282,-13.857,0.52747,4.3223,25.79,-21.766,12.303,-15.23
12.956,-16.098,30.347,-16.701,29.695,-34.647,40.197,-35.411,38.282,-13.857,0.52747,4.3223,25.79,-21.766,12.303,-15.23
12.871,-15.974,30.416,-16.666,29.757,-34.627,40.238,-35.336,38.497,-13.91,0.70472,4.3061,25.729,-21.646,12.368,-15.109
12.871,-15.974,30.416,-16.666,29.757,-34.627,40.238,-35.336,38.497,-13.91,0.70472,4.3061,25.729,-21.646,12.368,-15.109
12.871,-15.974,30.416,-16.666,29.757,-34.627,40.238,-35.336,38.497,-13.91,0.70472,4.3061,25.729,-21.646,12.368,-15.109
12.783,-15.85,30.484,-16.631,29.819,-34.606,40.277,-35.26,38.71,-13.962,0.88137,4.2907,25.668,-21.525,12.432,-14.987
12.783,-15.85,30.484,-16.631,29.819,-34.606,40.277,-35.26,38.71,-13.962,0.88137,4.2907,25.668,-21.525,12.432,-14.987
12.694,-15.726,30.55,-16.594,29.878,-34.584,40.314,-35.182,38.921,-14.012,1.0574,4.2761,25.605,-21.404,12.497,-14.866
12.604,-15.601,30.614,-16.556,29.937,-34.562,40.35,-35.103,39.131,-14.06,1.2329,4.2623,25.542,-21.282,12.56,-14.743
12.604,-15.601,30.614,-16.556,29.937,-34.562,40.35,-35.103,39.131,-14.06,1.2329,4.2623,25.542,-21.282,12.56,-14.743
12.604,-15.601,30.614,-16.556,29.937,-34.562,40.35,-35.103,39.131,-14.06,1.2329,4.2623,25.542,-21.282,12.56,-14.743
12.512,-15.476,30.677,-16.516,29.994,-34.539,40.384,-35.022,39.339,-14.106,1.4077,4.2494,25.478,-21.159,12.623,-14.62
12.512,-15.476,30.677,-16.516,29.994,-34.539,40.384,-35.022,39.339,-14.106,1.4077,4.2494,25.478,-21.159,12.623,-14.62
12.419,-15.35,30.738,-16.475,30.049,-34.516,40.416,-34.94,39.545,-14.15,1.5819,4.2373,25.413,-21.035,12.686,-14.497
12.419,-15.35,30.738,-16.475,30.049,-34.516,40.416,-34.94,39.545,-14.15,1.5819,4.2373,25.413,-21.035,12.686,-14.497
12.324,-15.224,30.798,-16.432,30.103,-34.492,40.447,-34.857,39.75,-14.193,1.7554,4.226,25.348,-20.911,12.748,-14.373
12.324,-15.224,30.798,-16.432,30.103,-34.492,40.447,-34.857,39.75,-14.193,1.7554,4.226,25.348,-20.911,12.748,-14.373
12.324,-15.224,30.798,-16.432,30.103,-34.492,40.447,-34.857,39.75,-14.193,1.7554,4.226,25.348,-20.911,12.748,-14.373
12.228,-15.097,30.855,-16.388,30.155,-34.467,40.476,-34.772,39.953,-14.234,1.9282,4.2155,25.282,-20.786,12.81,-14.249
12.13,-14.971,30.912,-16.343,30.206,-34.442,40.503,-34.686,40.154,-14.274,2.1004,4.2058,25.215,-20.66,12.871,-14.125
12.13,-14.971,30.912,-16.343,30.206,-34.442,40.503,-34.686,40.154,-14.274,2.1004,4.2058,25.215,-20.66,12.871,-14.125
12.031,-14.843,30.966,-16.296,30.256,-34.416,40.528,-34.598,40.353,-14.312,2.2719,4.197,25.148,-20.534,12.932,-14
12.031,-14.843,30.966,-16.296,30.256,-34.416,40.528,-34.598,40.353,-14.312,2.2719,4.197,25.148,-20.534,12.932,-14
11.93,-14.716,31.019,-16.248,30.304,-34.389,40.552,-34.509,40.551,-14.348,2.4426,4.189,25.079,-20.407,12.992,-13.875
11.93,-14.716,31.019,-16.248,30.304,-34.389,40.552,-34.509,40.551,-14.348,2.4426,4.189,25.079,-20.407,12.992,-13.875
11.829,-14.588,31.071,-16.199,30.351,-34.362,40.574,-34.418,40.747,-14.382,2.6127,4.1818,25.011,-20.28,13.052,-13.749
11.829,-14.588,31.071,-16.199,30.351,-34.362,40.574,-34.418,40.747,-14.382,2.6127,4.1818,25.011,-20.28,13.052,-13.749
11.829,-14.588,31.071,-16.199,30.351,-34.362,40.574,-34.418,40.747,-14.382,2.6127,4.1818,25.011,-20.28,13.052,-13.749
11.725,-14.46,31.12,-16.148,30.396,-34.334,40.594,-34.326,40.941,-14.414,2.7819,4.1755,24.941,-20.152,13.111,-13.623
11.725,-14.46,31.12,-16.148,30.396,-34.334,40.594,-34.326,40.941,-14.414,2.7819,4.1755,24.941,-20.152,13.111,-13.623
11.621,-14.331,31.168,-16.096,30.439,-34.305,40.612,-34.233,41.133,-14.445,2.9505,4.17,24.871,-20.023,13.17,-13.497
11.621,-14.331,31.168,-16.096,30.439,-34.305,40.612,-34.233,41.133,-14.445,2.9505,4.17,24.871,-20.023,13.17,-13.497
11.621,-14.331,31.168,-16.096,30.439,-34.305,40.612,-34.233,41.133,-14.445,2.9505,4.17,24.871,-20.023,13.17,-13.497
11.408,-14.073,31.26,-15.988,30.522,-34.245,40.644,-34.043,41.513,-14.502,3.2852,4.1614,24.728,-19.764,13.287,-13.244
11.408,-14.073,31.26,-15.988,30.522,-34.245,40.644,-34.043,41.513,-14.502,3.2852,4.1614,24.728,-19.764,13.287,-13.244
11.299,-13.944,31.303,-15.932,30.561,-34.215,40.657,-33.945,41.7,-14.527,3.4513,4.1584,24.656,-19.633,13.344,-13.116
11.299,-13.944,31.303,-15.932,30.561,-34.215,40.657,-33.945,41.7,-14.527,3.4513,4.1584,24.656,-19.633,13.344,-13.116
11.189,-13.814,31.344,-15.875,30.598,-34.183,40.669,-33.847,41.885,-14.551,3.6167,4.1562,24.583,-19.502,13.401,-12.989
11.078,-13.684,31.384,-15.816,30.634,-34.151,40.679,-33.747,42.068,-14.574,3.7812,4.1549,24.509,-19.371,13.457,-12.861
11.078,-13.684,31.384,-15.816,30.634,-34.151,40.679,-33.747,42.068,-14.574,3.7812,4.1549,24.509,-19.371,13.457,-12.861
10.965,-13.554,31.423,-15.756,30.669,-34.118,40.687,-33.646,42.249,-14.594,3.9449,4.1543,24.435,-19.239,13.513,-12.733
10.965,-13.554,31.423,-15.756,30.669,-34.118,40.687,-33.646,42.249,-14.594,3.9449,4.1543,24.435,-19.239,13.513,-12.733
10.851,-13.423,31.459,-15.695,30.702,-34.084,40.693,-33.543,42.429,-14.613,4.1077,4.1547,24.36,-19.106,13.569,-12.604
10.851,-13.423,31.459,-15.695,30.702,-34.084,40.693,-33.543,42.429,-14.613,4.1077,4.1547,24.36,-19.106,13.569,-12.604
10.851,-13.423,31.459,-15.695,30.702,-34.084,40.693,-33.543,42.429,-14.613,4.1077,4.1547,24.36,-19.106,13.569,-12.604
10.736,-13.292,31.494,-15.632,30.733,-34.05,40.698,-33.439,42.607,-14.63,4.2697,4.1558,24.284,-18.973,13.624,-12.475
10.736,-13.292,31.494,-15.632,30.733,-34.05,40.698,-33.439,42.607,-14.63,4.2697,4.1558,24.284,-18.973,13.624,-12.475
10.736,-13.292,31.494,-15.632,30.733,-34.05,40.698,-33.439,42.607,-14.63,4.2697,4.1558,24.284,-18.973,13.624,-12.475
10.619,-13.161,31.528,-15.569,30.763,-34.014,40.701,-33.334,42.783,-14.646,4.4307,4.1578,24.207,-18.84,13.678,-12.346
10.502,-13.03,31.56,-15.503,30.791,-33.978,40.703,-33.228,42.957,-14.659,4.5909,4.1606,24.131,-18.706,13.732,-12.217
10.502,-13.03,31.56,-15.503,30.791,-33.978,40.703,-33.228,42.957,-14.659,4.5909,4.1606,24.131,-18.706,13.732,-12.217
10.383,-12.898,31.59,-15.437,30.817,-33.942,40.703,-33.12,43.129,-14.672,4.7501,4.1643,24.053,-18.571,13.785,-12.087
10.263,-12.767,31.618,-15.369,30.842,-33.904,40.701,-33.011,43.299,-14.682,4.9084,4.1688,23.975,-18.436,13.838,-11.958
10.263,-12.767,31.618,-15.369,30.842,-33.904,40.701,-33.011,43.299,-14.682,4.9084,4.1688,23.975,-18.436,13.838,-11.958
10.263,-12.767,31.618,-15.369,30.842,-33.904,40.701,-33.011,43.299,-14.682,4.9084,4.1688,23.975,-18.436,13.838,-11.958
10.141,-12.635,31.645,-15.3,30.866,-33.866,40.697,-32.901,43.467,-14.691,5.0658,4.1741,23.896,-18.301,13.891,-11.828
10.141,-12.635,31.645,-15.3,30.866,-33.866,40.697,-32.901,43.467,-14.691,5.0658,4.1741,23.896,-18.301,13.891,-11.828
10.141,-12.635,31.645,-15.3,30.866,-33.866,40.697,-32.901,43.467,-14.691,5.0658,4.1741,23.896,-18.301,13.891,-11.828
10.019,-12.502,31.671,-15.23,30.888,-33.827,40.692,-32.79,43.634,-14.698,5.2222,4.1803,23.816,-18.165,13.942,-11.698
9.8947,-12.37,31.694,-15.159,30.908,-33.787,40.685,-32.677,43.798,-14.703,5.3777,4.1873,23.736,-18.029,13.994,-11.567
9.8947,-12.37,31.694,-15.159,30.908,-33.787,40.685,-32.677,43.798,-14.703,5.3777,4.1873,23.736,-18.029,13.994,-11.567
9.7696,-12.237,31.716,-15.086,30.927,-33.746,40.677,-32.563,43.961,-14.706,5.5322,4.1951,23.655,-17.893,14.045,-11.437
9.7696,-12.237,31.716,-15.086,30.927,-33.746,40.677,-32.563,43.961,-14.706,5.5322,4.1951,23.655,-17.893,14.045,-11.437
9.7696,-12.237,31.716,-15.086,30.927,-33.746,40.677,-32.563,43.961,-14.706,5.5322,4.1951,23.655,-17.893,14.045,-11.437
9.7696,-12.237,31.716,-15.086,30.927,-33.746,40.677,-32.563,43.961,-14.706,5.5322,4.1951,23.655,-17.893,14.045,-11.437
9.516,-11.972,31.756,-14.937,30.959,-33.662,40.655,-32.332,44.28,-14.709,5.8381,4.2133,23.492,-17.619,14.145,-11.175
9.516,-11.972,31.756,-14.937,30.959,-33.662,40.655,-32.332,44.28,-14.709,5.8381,4.2133,23.492,-17.619,14.145,-11.175
9.3875,-11.839,31.773,-14.861,30.973,-33.619,40.641,-32.215,44.437,-14.707,5.9895,4.2237,23.409,-17.481,14.194,-11.044
9.3875,-11.839,31.773,-14.861,30.973,-33.619,40.641,-32.215,44.437,-14.707,5.9895,4.2237,23.409,-17.481,14.194,-11.044
9.2578,-11.706,31.789,-14.784,30.985,-33.575,40.626,-32.096,44.592,-14.704,6.1399,4.2349,23.326,-17.343,14.243,-10.912
9.2578,-11.706,31.789,-14.784,30.985,-33.575,40.626,-32.096,44.592,-14.704,6.1399,4.2349,23.326,-17.343,14.243,-10.912
9.127,-11.572,31.803,-14.705,30.996,-33.53,40.61,-31.976,44.745,-14.699,6.2893,4.2469,23.243,-17.205,14.291,-10.781
9.127,-11.572,31.803,-14.705,30.996,-33.53,40.61,-31.976,44.745,-14.699,6.2893,4.2469,23.243,-17.205,14.291,-10.781
8.9951,-11.439,31.815,-14.625,31.005,-33.484,40.592,-31.856,44.896,-14.693,6.4375,4.2598,23.158,-17.067,14.339,-10.649
8.9951,-11.439,31.815,-14.625,31.005,-33.484,40.592,-31.856,44.896,-14.693,6.4375,4.2598,23.158,-17.067,14.339,-10.649
8.862,-11.306,31.826,-14.544,31.012,-33.437,40.572,-31.734,45.045,-14.685,6.5847,4.2735,23.073,-16.928,14.386,-10.517
8.862,-11.306,31.826,-14.544,31.012,-33.437,40.572,-31.734,45.045,-14.685,6.5847,4.2735,23.073,-16.928,14.386,-10.517
8.7279,-11.172,31.835,-14.462,31.018,-33.39,40.55,-31.61,45.192,-14.675,6.7308,4.288,22.988,-16.789,14.433,-10.386
8.7279,-11.172,31.835,-14.462,31.018,-33.39,40.55,-31.61,45.192,-14.675,6.7308,4.288,22.988,-16.789,14.433,-10.386
8.5927,-11.038,31.843,-14.378,31.022,-33.342,40.527,-31.486,45.337,-14.663,6.8758,4.3034,22.902,-16.65,14.479,-10.254
8.5927,-11.038,31.843,-14.378,31.022,-33.342,40.527,-31.486,45.337,-14.663,6.8758,4.3034,22.902,-16.65,14.479,-10.254
8.4565,-10.904,31.849,-14.294,31.024,-33.292,40.503,-31.361,45.48,-14.65,7.0197,4.3196,22.815,-16.511,14.525,-10.122
8.4565,-10.904,31.849,-14.294,31.024,-33.292,40.503,-31.361,45.48,-14.65,7.0197,4.3196,22.815,-16.511,14.525,-10.122
8.3192,-10.771,31.853,-14.208,31.025,-33.242,40.476,-31.234,45.621,-14.636,7.1624,4.3367,22.728,-16.371,14.57,-9.9894
8.3192,-10.771,31.853,-14.208,31.025,-33.242,40.476,-31.234,45.621,-14.636,7.1624,4.3367,22.728,-16.371,14.57,-9.9894
8.1808,-10.637,31.856,-14.121,31.024,-33.191,40.449,-31.107,45.76,-14.619,7.304,4.3545,22.64,-16.231,14.614,-9.8572
8.1808,-10.637,31.856,-14.121,31.024,-33.191,40.449,-31.107,45.76,-14.619,7.304,4.3545,22.64,-16.231,14.614,-9.8572
8.1808,-10.637,31.856,-14.121,31.024,-33.191,40.449,-31.107,45.76,-14.619,7.304,4.3545,22.64,-16.231,14.614,-9.8572
8.0414,-10.503,31.857,-14.033,31.021,-33.139,40.419,-30.978,45.897,-14.601,7.4444,4.3733,22.552,-16.091,14.658,-9.7249
7.9011,-10.369,31.857,-13.944,31.017,-33.087,40.388,-30.848,46.033,-14.581,7.5837,4.3928,22.463,-15.951,14.702,-9.5925
7.7597,-10.235,31.855,-13.854,31.011,-33.033,40.356,-30.717,46.166,-14.56,7.7218,4.4132,22.374,-15.811,14.745,-9.46
7.7597,-10.235,31.855,-13.854,31.011,-33.033,40.356,-30.717,46.166,-14.56,7.7218,4.4132,22.374,-15.811,14.745,-9.46
7.7597,-10.235,31.855,-13.854,31.011,-33.033,40.356,-30.717,46.166,-14.56,7.7218,4.4132,22.374,-15.811,14.745,-9.46
7.6173,-10.101,31.852,-13.763,31.004,-32.978,40.322,-30.586,46.297,-14.537,7.8587,4.4344,22.284,-15.67,14.787,-9.3276
7.6173,-10.101,31.852,-13.763,31.004,-32.978,40.322,-30.586,46.297,-14.537,7.8587,4.4344,22.284,-15.67,14.787,-9.3276
7.6173,-10.101,31.852,-13.763,31.004,-32.978,40.322,-30.586,46.297,-14.537,7.8587,4.4344,22.284,-15.67,14.787,-9.3276
7.474,-9.9666,31.847,-13.67,30.994,-32.923,40.286,-30.453,46.426,-14.513,7.9943,4.4564,22.194,-15.529,14.829,-9.195
7.474,-9.9666,31.847,-13.67,30.994,-32.923,40.286,-30.453,46.426,-14.513,7.9943,4.4564,22.194,-15.529,14.829,-9.195
7.3297,-9.8326,31.84,-13.577,30.983,-32.866,40.249,-30.319,46.553,-14.486,8.1288,4.4793,22.103,-15.389,14.871,-9.0625
7.3297,-9.8326,31.84,-13.577,30.983,-32.866,40.249,-30.319,46.553,-14.486,8.1288,4.4793,22.103,-15.389,14.871,-9.0625
7.1844,-9.6986,31.832,-13.482,30.971,-32.809,40.21,-30.184,46.678,-14.459,8.262,4.503,22.012,-15.248,14.912,-8.9299
7.1844,-9.6986,31.832,-13.482,30.971,-32.809,40.21,-30.184,46.678,-14.459,8.262,4.503,22.012,-15.248,14.912,-8.9299
7.1844,-9.6986,31.832,-13.482,30.971,-32.809,40.21,-30.184,46.678,-14.459,8.262,4.503,22.012,-15.248,14.912,-8.9299
6.8912,-9.4306,31.811,-13.29,30.941,-32.691,40.129,-29.911,46.922,-14.398,8.5246,4.5529,21.828,-14.966,14.992,-8.6648
6.8912,-9.4306,31.811,-13.29,30.941,-32.691,40.129,-29.911,46.922,-14.398,8.5246,4.5529,21.828,-14.966,14.992,-8.6648
6.7432,-9.2967,31.798,-13.192,30.923,-32.631,40.085,-29.774,47.041,-14.366,8.6541,4.5791,21.735,-14.825,15.031,-8.5323
6.7432,-9.2967,31.798,-13.192,30.923,-32.631,40.085,-29.774,47.041,-14.366,8.6541,4.5791,21.735,-14.825,15.031,-8.5323
6.7432,-9.2967,31.798,-13.192,30.923,-32.631,40.085,-29.774,47.041,-14.366,8.6541,4.5791,21.735,-14.825,15.031,-8.5323
6.5943,-9.1629,31.783,-13.093,30.904,-32.57,40.041,-29.635,47.157,-14.331,8.7822,4.6061,21.642,-14.684,15.069,-8.3997
6.5943,-9.1629,31.783,-13.093,30.904,-32.57,40.041,-29.635,47.157,-14.331,8.7822,4.6061,21.642,-14.684,15.069,-8.3997
6.4446,-9.0291,31.768,-12.993,30.883,-32.508,39.995,-29.495,47.272,-14.295,8.9091,4.6339,21.548,-14.543,15.108,-8.2672
6.294,-8.8954,31.75,-12.892,30.86,-32.445,39.947,-29.355,47.385,-14.258,9.0346,4.6625,21.454,-14.402,15.145,-8.1348
6.294,-8.8954,31.75,-12.892,30.86,-32.445,39.947,-29.355,47.385,-14.258,9.0346,4.6625,21.454,-14.402,15.145,-8.1348
6.1425,-8.7618,31.731,-12.791,30.835,-32.381,39.898,-29.213,47.496,-14.219,9.1588,4.692,21.36,-14.261,15.182,-8.0024
6.1425,-8.7618,31.731,-12.791,30.835,-32.381,39.898,-29.213,47.496,-14.219,9.1588,4.692,21.36,-14.261,15.182,-8.0024
5.9902,-8.6283,31.71,-12.688,30.809,-32.316,39.847,-29.071,47.604,-14.179,9.2817,4.7223,21.265,-14.12,15.219,-7.87
5.9902,-8.6283,31.71,-12.688,30.809,-32.316,39.847,-29.071,47.604,-14.179,9.2817,4.7223,21.265,-14.12,15.219,-7.87
5.8371,-8.4949,31.688,-12.584,30.782,-32.25,39.795,-28.927,47.711,-14.136,9.4032,4.7534,21.169,-13.979,15.255,-7.7378
5.8371,-8.4949,31.688,-12.584,30.782,-32.25,39.795,-28.927,47.711,-14.136,9.4032,4.7534,21.169,-13.979,15.255,-7.7378
5.8371,-8.4949,31.688,-12.584,30.782,-32.25,39.795,-28.927,47.711,-14.136,9.4032,4.7534,21.169,-13.979,15.255,-7.7378
5.6832,-8.3616,31.665,-12.479,30.752,-32.183,39.742,-28.783,47.815,-14.093,9.5234,4.7853,21.073,-13.838,15.29,-7.6056
5.6832,-8.3616,31.665,-12.479,30.752,-32.183,39.742,-28.783,47.815,-14.093,9.5234,4.7853,21.073,-13.838,15.29,-7.6056
5.6832,-8.3616,31.665,-12.479,30.752,-32.183,39.742,-28.783,47.815,-14.093,9.5234,4.7853,21.073,-13.838,15.29,-7.6056
5.3731,-8.0955,31.613,-12.266,30.688,-32.046,39.63,-28.492,48.018,-14.001,9.7596,4.8516,20.881,-13.556,15.359,-7.3414
5.3731,-8.0955,31.613,-12.266,30.688,-32.046,39.63,-28.492,48.018,-14.001,9.7596,4.8516,20.881,-13.556,15.359,-7.3414
5.3731,-8.0955,31.613,-12.266,30.688,-32.046,39.63,-28.492,48.018,-14.001,9.7596,4.8516,20.881,-13.556,15.359,-7.3414
5.2169,-7.9627,31.585,-12.158,30.653,-31.976,39.572,-28.345,48.116,-13.952,9.8757,4.8859,20.784,-13.416,15.393,-7.2095
5.2169,-7.9627,31.585,-12.158,30.653,-31.976,39.572,-28.345,48.116,-13.952,9.8757,4.8859,20.784,-13.416,15.393,-7.2095
5.2169,-7.9627,31.585,-12.158,30.653,-31.976,39.572,-28.345,48.116,-13.952,9.8757,4.8859,20.784,-13.416,15.393,-7.2095
4.9022,-7.6976,31.524,-11.939,30.579,-31.833,39.452,-28.049,48.307,-13.851,10.104,4.9571,20.588,-13.135,15.459,-6.946
4.9022,-7.6976,31.524,-11.939,30.579,-31.833,39.452,-28.049,48.307,-13.851,10.104,4.9571,20.588,-13.135,15.459,-6.946
4.7438,-7.5653,31.492,-11.829,30.539,-31.76,39.39,-27.9,48.399,-13.798,10.215,4.9938,20.49,-12.994,15.491,-6.8145
4.7438,-7.5653,31.492,-11.829,30.539,-31.76,39.39,-27.9,48.399,-13.798,10.215,4.9938,20.49,-12.994,15.491,-6.8145
4.5847,-7.4332,31.458,-11.717,30.498,-31.686,39.327,-27.75,48.489,-13.743,10.326,5.0314,20.392,-12.854,15.522,-6.6831
4.5847,-7.4332,31.458,-11.717,30.498,-31.686,39.327,-27.75,48.489,-13.743,10.326,5.0314,20.392,-12.854,15.522,-6.6831
4.425,-7.3013,31.422,-11.604,30.454,-31.611,39.262,-27.599,48.577,-13.687,10.435,5.0698,20.293,-12.715,15.553,-6.5518
4.425,-7.3013,31.422,-11.604,30.454,-31.611,39.262,-27.599,48.577,-13.687,10.435,5.0698,20.293,-12.715,15.553,-6.5518
4.2645,-7.1697,31.385,-11.491,30.41,-31.535,39.196,-27.447,48.663,-13.63,10.542,5.109,20.193,-12.575,15.584,-6.4207
4.2645,-7.1697,31.385,-11.491,30.41,-31.535,39.196,-27.447,48.663,-13.63,10.542,5.109,20.193,-12.575,15.584,-6.4207
4.2645,-7.1697,31.385,-11.491,30.41,-31.535,39.196,-27.447,48.663,-13.63,10.542,5.109,20.193,-12.575,15.584,-6.4207
4.1034,-7.0383,31.346,-11.376,30.363,-31.458,39.128,-27.295,48.746,-13.57,10.648,5.1489,20.094,-12.435,15.613,-6.2898
4.1034,-7.0383,31.346,-11.376,30.363,-31.458,39.128,-27.295,48.746,-13.57,10.648,5.1489,20.094,-12.435,15.613,-6.2898
3.9417,-6.9072,31.306,-11.261,30.315,-31.38,39.059,-27.142,48.828,-13.51,10.753,5.1897,19.994,-12.296,15.643,-6.159
3.9417,-6.9072,31.306,-11.261,30.315,-31.38,39.059,-27.142,48.828,-13.51,10.753,5.1897,19.994,-12.296,15.643,-6.159
3.9417,-6.9072,31.306,-11.261,30.315,-31.38,39.059,-27.142,48.828,-13.51,10.753,5.1897,19.994,-12.296,15.643,-6.159
3.6164,-6.6456,31.222,-11.028,30.213,-31.221,38.917,-26.833,48.985,-13.384,10.957,5.2736,19.793,-12.018,15.7,-5.8981
3.6164,-6.6456,31.222,-11.028,30.213,-31.221,38.917,-26.833,48.985,-13.384,10.957,5.2736,19.793,-12.018,15.7,-5.8981
3.6164,-6.6456,31.222,-11.028,30.213,-31.221,38.917,-26.833,48.985,-13.384,10.957,5.2736,19.793,-12.018,15.7,-5.8981
3.4529,-6.5153,31.178,-10.91,30.159,-31.14,38.844,-26.678,49.06,-13.319,11.057,5.3167,19.692,-11.88,15.727,-5.7679
3.4529,-6.5153,31.178,-10.91,30.159,-31.14,38.844,-26.678,49.06,-13.319,11.057,5.3167,19.692,-11.88,15.727,-5.7679
3.2887,-6.3853,31.132,-10.791,30.104,-31.058,38.769,-26.522,49.133,-13.253,11.156,5.3607,19.591,-11.742,15.754,-5.638
3.1241,-6.2555,31.085,-10.671,30.047,-30.975,38.694,-26.366,49.205,-13.185,11.253,5.4054,19.49,-11.604,15.781,-5.5082
3.1241,-6.2555,31.085,-10.671,30.047,-30.975,38.694,-26.366,49.205,-13.185,11.253,5.4054,19.49,-11.604,15.781,-5.5082
2.9589,-6.1261,31.036,-10.551,29.989,-30.891,38.616,-26.209,49.274,-13.115,11.348,5.4509,19.388,-11.466,15.806,-5.3787
2.9589,-6.1261,31.036,-10.551,29.989,-30.891,38.616,-26.209,49.274,-13.115,11.348,5.4509,19.388,-11.466,15.806,-5.3787
2.7931,-5.997,30.986,-10.43,29.929,-30.806,38.538,-26.051,49.341,-13.044,11.442,5.4971,19.286,-11.329,15.832,-5.2494
2.7931,-5.997,30.986,-10.43,29.929,-30.806,38.538,-26.051,49.341,-13.044,11.442,5.4971,19.286,-11.329,15.832,-5.2494
2.6269,-5.8682,30.935,-10.308,29.867,-30.719,38.458,-25.892,49.405,-12.972,11.535,5.5442,19.184,-11.192,15.856,-5.1204
2.6269,-5.8682,30.935,-10.308,29.867,-30.719,38.458,-25.892,49.405,-12.972,11.535,5.5442,19.184,-11.192,15.856,-5.1204
2.6269,-5.8682,30.935,-10.308,29.867,-30.719,38.458,-25.892,49.405,-12.972,11.535,5.5442,19.184,-11.192,15.856,-5.1204
2.4602,-5.7398,30.882,-10.185,29.803,-30.632,38.377,-25.733,49.468,-12.898,11.626,5.592,19.082,-11.055,15.881,-4.9916
2.4602,-5.7398,30.882,-10.185,29.803,-30.632,38.377,-25.733,49.468,-12.898,11.626,5.592,19.082,-11.055,15.881,-4.9916
2.293,-5.6118,30.828,-10.061,29.738,-30.544,38.295,-25.573,49.529,-12.822,11.715,5.6406,18.979,-10.919,15.904,-4.8631
2.293,-5.6118,30.828,-10.061,29.738,-30.544,38.295,-25.573,49.529,-12.822,11.715,5.6406,18.979,-10.919,15.904,-4.8631
2.293,-5.6118,30.828,-10.061,29.738,-30.544,38.295,-25.573,49.529,-12.822,11.715,5.6406,18.979,-10.919,15.904,-4.8631
1.9572,-5.3569,30.715,-9.811,29.602,-30.364,38.127,-25.252,49.644,-12.668,11.889,5.74,18.773,-10.648,15.95,-4.6068
1.9572,-5.3569,30.715,-9.811,29.602,-30.364,38.127,-25.252,49.644,-12.668,11.889,5.74,18.773,-10.648,15.95,-4.6068
1.7887,-5.23,30.657,-9.6849,29.531,-30.273,38.041,-25.091,49.698,-12.588,11.973,5.7909,18.67,-10.513,15.972,-4.4792
1.7887,-5.23,30.657,-9.6849,29.531,-30.273,38.041,-25.091,49.698,-12.588,11.973,5.7909,18.67,-10.513,15.972,-4.4792
1.7887,-5.23,30.657,-9.6849,29.531,-30.273,38.041,-25.091,49.698,-12.588,11.973,5.7909,18.67,-10.513,15.972,-4.4792
1.6197,-5.1035,30.597,-9.558,29.459,-30.181,37.954,-24.928,49.751,-12.507,12.056,5.8426,18.566,-10.378,15.993,-4.3518
1.4504,-4.9775,30.536,-9.4304,29.385,-30.087,37.865,-24.766,49.801,-12.425,12.137,5.895,18.462,-10.244,16.014,-4.2247
1.4504,-4.9775,30.536,-9.4304,29.385,-30.087,37.865,-24.766,49.801,-12.425,12.137,5.895,18.462,-10.244,16.014,-4.2247
1.2807,-4.8519,30.474,-9.302,29.31,-29.993,37.775,-24.603,49.849,-12.341,12.217,5.9481,18.359,-10.111,16.034,-4.0979
1.2807,-4.8519,30.474,-9.302,29.31,-29.993,37.775,-24.603,49.849,-12.341,12.217,5.9481,18.359,-10.111,16.034,-4.0979
1.1106,-4.7267,30.41,-9.1729,29.233,-29.897,37.684,-24.439,49.895,-12.255,12.295,6.002,18.255,-9.9775,16.053,-3.9714
1.1106,-4.7267,30.41,-9.1729,29.233,-29.897,37.684,-24.439,49.895,-12.255,12.295,6.002,18.255,-9.9775,16.053,-3.9714
0.94017,-4.602,30.345,-9.0431,29.154,-29.801,37.592,-24.275,49.939,-12.169,12.372,6.0567,18.15,-9.8449,16.072,-3.8452
0.94017,-4.602,30.345,-9.0431,29.154,-29.801,37.592,-24.275,49.939,-12.169,12.372,6.0567,18.15,-9.8449,16.072,-3.8452
0.94017,-4.602,30.345,-9.0431,29.154,-29.801,37.592,-24.275,49.939,-12.169,12.372,6.0567,18.15,-9.8449,16.072,-3.8452
0.76943,-4.4778,30.278,-8.9125,29.073,-29.703,37.499,-24.111,49.981,-12.081,12.446,6.112,18.046,-9.7127,16.091,-3.7194
0.59837,-4.354,30.21,-8.7813,28.991,-29.604,37.404,-23.945,50.02,-11.992,12.52,6.1682,17.942,-9.581,16.109,-3.594
0.59837,-4.354,30.21,-8.7813,28.991,-29.604,37.404,-23.945,50.02,-11.992,12.52,6.1682,17.942,-9.581,16.109,-3.594
0.42703,-4.2308,30.141,-8.6493,28.907,-29.505,37.308,-23.78,50.058,-11.901,12.591,6.2251,17.837,-9.4499,16.126,-3.4688
0.42703,-4.2308,30.141,-8.6493,28.907,-29.505,37.308,-23.78,50.058,-11.901,12.591,6.2251,17.837,-9.4499,16.126,-3.4688
0.25541,-4.108,30.071,-8.5167,28.821,-29.404,37.212,-23.614,50.094,-11.809,12.661,6.2827,17.732,-9.3194,16.143,-3.344
0.25541,-4.108,30.071,-8.5167,28.821,-29.404,37.212,-23.614,50.094,-11.809,12.661,6.2827,17.732,-9.3194,16.143,-3.344
0.083527,-3.9858,29.999,-8.3834,28.734,-29.302,37.113,-23.448,50.127,-11.715,12.729,6.341,17.628,-9.1894,16.159,-3.2196
0.083527,-3.9858,29.999,-8.3834,28.734,-29.302,37.113,-23.448,50.127,-11.715,12.729,6.341,17.628,-9.1894,16.159,-3.2196
0.083527,-3.9858,29.999,-8.3834,28.734,-29.302,37.113,-23.448,50.127,-11.715,12.729,6.341,17.628,-9.1894,16.159,-3.2196
-0.088595,-3.8641,29.926,-8.2494,28.645,-29.2,37.014,-23.281,50.159,-11.62,12.795,6.4001,17.523,-9.0599,16.174,-3.0956
-0.088595,-3.8641,29.926,-8.2494,28.645,-29.2,37.014,-23.281,50.159,-11.62,12.795,6.4001,17.523,-9.0599,16.174,-3.0956
-0.26094,-3.7429,29.852,-8.1147,28.555,-29.096,36.914,-23.114,50.188,-11.524,12.86,6.4598,17.418,-8.9311,16.189,-2.9719
-0.26094,-3.7429,29.852,-8.1147,28.555,-29.096,36.914,-23.114,50.188,-11.524,12.86,6.4598,17.418,-8.9311,16.189,-2.9719
-0.60624,-3.5022,29.699,-7.8435,28.369,-28.885,36.71,-22.778,50.24,-11.328,12.985,6.5816,17.208,-8.6752,16.217,-2.7257
-0.60624,-3.5022,29.699,-7.8435,28.369,-28.885,36.71,-22.778,50.24,-11.328,12.985,6.5816,17.208,-8.6752,16.217,-2.7257
-0.60624,-3.5022,29.699,-7.8435,28.369,-28.885,36.71,-22.778,50.24,-11.328,12.985,6.5816,17.208,-8.6752,16.217,-2.7257
-0.77915,-3.3827,29.621,-7.7069,28.273,-28.778,36.606,-22.61,50.263,-11.228,13.045,6.6435,17.102,-8.5482,16.231,-2.6032
-0.77915,-3.3827,29.621,-7.7069,28.273,-28.778,36.606,-22.61,50.263,-11.228,13.045,6.6435,17.102,-8.5482,16.231,-2.6032
-0.77915,-3.3827,29.621,-7.7069,28.273,-28.778,36.606,-22.61,50.263,-11.228,13.045,6.6435,17.102,-8.5482,16.231,-2.6032
-0.95223,-3.2638,29.542,-7.5697,28.176,-28.671,36.501,-22.441,50.284,-11.127,13.103,6.7062,16.997,-8.4218,16.243,-2.4812
-0.95223,-3.2638,29.542,-7.5697,28.176,-28.671,36.501,-22.441,50.284,-11.127,13.103,6.7062,16.997,-8.4218,16.243,-2.4812
-1.1254,-3.1455,29.461,-7.4319,28.077,-28.562,36.395,-22.272,50.303,-11.024,13.159,6.7695,16.892,-8.2961,16.255,-2.3595
-1.1254,-3.1455,29.461,-7.4319,28.077,-28.562,36.395,-22.272,50.303,-11.024,13.159,6.7695,16.892,-8.2961,16.255,-2.3595
-1.1254,-3.1455,29.461,-7.4319,28.077,-28.562,36.395,-22.272,50.303,-11.024,13.159,6.7695,16.892,-8.2961,16.255,-2.3595
-1.4722,-2.9107,29.297,-7.1545,27.875,-28.341,36.18,-21.933,50.335,-10.815,13.266,6.8983,16.681,-8.0467,16.278,-2.1174
-1.4722,-2.9107,29.297,-7.1545,27.875,-28.341,36.18,-21.933,50.335,-10.815,13.266,6.8983,16.681,-8.0467,16.278,-2.1174
-1.6457,-2.7943,29.212,-7.015,27.771,-28.229,36.07,-21.763,50.348,-10.708,13.318,6.9638,16.576,-7.9231,16.288,-1.997
-1.6457,-2.7943,29.212,-7.015,27.771,-28.229,36.07,-21.763,50.348,-10.708,13.318,6.9638,16.576,-7.9231,16.288,-1.997
-1.6457,-2.7943,29.212,-7.015,27.771,-28.229,36.07,-21.763,50.348,-10.708,13.318,6.9638,16.576,-7.9231,16.288,-1.997
-1.8193,-2.6785,29.127,-6.8748,27.666,-28.116,35.96,-21.593,50.359,-10.6,13.367,7.0299,16.471,-7.8001,16.298,-1.877
-1.9929,-2.5633,29.04,-6.7341,27.559,-28.002,35.849,-21.422,50.367,-10.491,13.415,7.0968,16.366,-7.6779,16.307,-1.7575
-1.9929,-2.5633,29.04,-6.7341,27.559,-28.002,35.849,-21.422,50.367,-10.491,13.415,7.0968,16.366,-7.6779,16.307,-1.7575
-1.9929,-2.5633,29.04,-6.7341,27.559,-28.002,35.849,-21.422,50.367,-10.491,13.415,7.0968,16.366,-7.6779,16.307,-1.7575
-2.1666,-2.4488,28.952,-6.5928,27.451,-27.887,35.736,-21.251,50.374,-10.381,13.461,7.1643,16.26,-7.5564,16.315,-1.6384
-2.1666,-2.4488,28.952,-6.5928,27.451,-27.887,35.736,-21.251,50.374,-10.381,13.461,7.1643,16.26,-7.5564,16.315,-1.6384
-2.1666,-2.4488,28.952,-6.5928,27.451,-27.887,35.736,-21.251,50.374,-10.381,13.461,7.1643,16.26,-7.5564,16.315,-1.6384
-2.514,-2.2219,28.773,-6.3087,27.229,-27.655,35.508,-20.909,50.381,-10.156,13.547,7.3014,16.05,-7.3156,16.331,-1.4017
-2.514,-2.2219,28.773,-6.3087,27.229,-27.655,35.508,-20.909,50.381,-10.156,13.547,7.3014,16.05,-7.3156,16.331,-1.4017
-2.514,-2.2219,28.773,-6.3087,27.229,-27.655,35.508,-20.909,50.381,-10.156,13.547,7.3014,16.05,-7.3156,16.331,-1.4017
-2.6876,-2.1095,28.682,-6.1658,27.116,-27.537,35.393,-20.738,50.381,-10.042,13.588,7.3709,15.945,-7.1964,16.338,-1.284
-2.6876,-2.1095,28.682,-6.1658,27.116,-27.537,35.393,-20.738,50.381,-10.042,13.588,7.3709,15.945,-7.1964,16.338,-1.284
-2.8613,-1.9978,28.589,-6.0224,27.001,-27.418,35.276,-20.566,50.38,-9.9267,13.627,7.4411,15.84,-7.0779,16.344,-1.1668
-2.8613,-1.9978,28.589,-6.0224,27.001,-27.418,35.276,-20.566,50.38,-9.9267,13.627,7.4411,15.84,-7.0779,16.344,-1.1668
-2.8613,-1.9978,28.589,-6.0224,27.001,-27.418,35.276,-20.566,50.38,-9.9267,13.627,7.4411,15.84,-7.0779,16.344,-1.1668
-3.2083,-1.7765,28.401,-5.7342,26.767,-27.178,35.04,-20.222,50.371,-9.6924,13.7,7.5835,15.631,-6.8434,16.354,-0.93384
-3.2083,-1.7765,28.401,-5.7342,26.767,-27.178,35.04,-20.222,50.371,-9.6924,13.7,7.5835,15.631,-6.8434,16.354,-0.93384
-3.3817,-1.667,28.305,-5.5893,26.647,-27.056,34.921,-20.05,50.363,-9.5734,13.733,7.6557,15.526,-6.7273,16.359,-0.81811
-3.3817,-1.667,28.305,-5.5893,26.647,-27.056,34.921,-20.05,50.363,-9.5734,13.733,7.6557,15.526,-6.7273,16.359,-0.81811
-3.555,-1.5583,28.208,-5.4439,26.526,-26.933,34.801,-19.878,50.354,-9.4532,13.765,7.7285,15.422,-6.6121,16.363,-0.70288
-3.555,-1.5583,28.208,-5.4439,26.526,-26.933,34.801,-19.878,50.354,-9.4532,13.765,7.7285,15.422,-6.6121,16.363,-0.70288
-3.555,-1.5583,28.208,-5.4439,26.526,-26.933,34.801,-19.878,50.354,-9.4532,13.765,7.7285,15.422,-6.6121,16.363,-0.70288
-3.7282,-1.4503,28.11,-5.2981,26.404,-26.81,34.679,-19.705,50.342,-9.3319,13.795,7.802,15.317,-6.4978,16.366,-0.58815
-3.7282,-1.4503,28.11,-5.2981,26.404,-26.81,34.679,-19.705,50.342,-9.3319,13.795,7.802,15.317,-6.4978,16.366,-0.58815
-3.7282,-1.4503,28.11,-5.2981,26.404,-26.81,34.679,-19.705,50.342,-9.3319,13.795,7.802,15.317,-6.4978,16.366,-0.58815
-4.074,-1.2366,27.91,-5.0052,26.154,-26.559,34.434,-19.36,50.313,-9.0857,13.85,7.9508,15.109,-6.2716,16.371,-0.36023
-4.074,-1.2366,27.91,-5.0052,26.154,-26.559,34.434,-19.36,50.313,-9.0857,13.85,7.9508,15.109,-6.2716,16.371,-0.36023
-4.2467,-1.131,27.809,-4.858,26.027,-26.433,34.309,-19.187,50.295,-8.9608,13.875,8.0262,15.005,-6.1598,16.372,-0.24706
-4.2467,-1.131,27.809,-4.858,26.027,-26.433,34.309,-19.187,50.295,-8.9608,13.875,8.0262,15.005,-6.1598,16.372,-0.24706
-4.2467,-1.131,27.809,-4.858,26.027,-26.433,34.309,-19.187,50.295,-8.9608,13.875,8.0262,15.005,-6.1598,16.372,-0.24706
-4.4192,-1.0262,27.706,-4.7104,25.899,-26.306,34.184,-19.014,50.276,-8.8348,13.898,8.1022,14.901,-6.0489,16.373,-0.13441
-4.4192,-1.0262,27.706,-4.7104,25.899,-26.306,34.184,-19.014,50.276,-8.8348,13.898,8.1022,14.901,-6.0489,16.373,-0.13441
-4.5914,-0.92218,27.603,-4.5624,25.768,-26.177,34.058,-18.841,50.254,-8.7076,13.92,8.1789,14.798,-5.939,16.374,-0.022293
-4.7634,-0.81901,27.498,-4.414,25.637,-26.048,33.931,-18.668,50.23,-8.5793,13.939,8.2561,14.694,-5.8299,16.373,0.089283
-4.7634,-0.81901,27.498,-4.414,25.637,-26.048,33.931,-18.668,50.23,-8.5793,13.939,8.2561,14.694,-5.8299,16.373,0.089283
-4.9352,-0.71668,27.393,-4.2652,25.504,-25.918,33.804,-18.495,50.205,-8.4499,13.957,8.334,14.591,-5.7217,16.372,0.20032
-4.9352,-0.71668,27.393,-4.2652,25.504,-25.918,33.804,-18.495,50.205,-8.4499,13.957,8.334,14.591,-5.7217,16.372,0.20032
-4.9352,-0.71668,27.393,-4.2652,25.504,-25.918,33.804,-18.495,50.205,-8.4499,13.957,8.334,14.591,-5.7217,16.372,0.20032
-5.1067,-0.61521,27.286,-4.116,25.369,-25.787,33.675,-18.321,50.177,-8.3193,13.973,8.4124,14.488,-5.6145,16.371,0.3108
-5.1067,-0.61521,27.286,-4.116,25.369,-25.787,33.675,-18.321,50.177,-8.3193,13.973,8.4124,14.488,-5.6145,16.371,0.3108
-5.2779,-0.51459,27.178,-3.9664,25.234,-25.655,33.545,-18.148,50.148,-8.1877,13.987,8.4915,14.385,-5.5082,16.369,0.42073
-5.2779,-0.51459,27.178,-3.9664,25.234,-25.655,33.545,-18.148,50.148,-8.1877,13.987,8.4915,14.385,-5.5082,16.369,0.42073
-5.4488,-0.41485,27.069,-3.8165,25.096,-25.522,33.415,-17.975,50.116,-8.0549,13.999,8.5712,14.283,-5.4029,16.366,0.5301
-5.4488,-0.41485,27.069,-3.8165,25.096,-25.522,33.415,-17.975,50.116,-8.0549,13.999,8.5712,14.283,-5.4029,16.366,0.5301
-5.4488,-0.41485,27.069,-3.8165,25.096,-25.522,33.415,-17.975,50.116,-8.0549,13.999,8.5712,14.283,-5.4029,16.366,0.5301
-5.7896,-0.21802,26.849,-3.5155,24.817,-25.254,33.151,-17.628,50.048,-7.786,14.019,8.7323,14.079,-5.1951,16.36,0.74715
-5.7896,-0.21802,26.849,-3.5155,24.817,-25.254,33.151,-17.628,50.048,-7.786,14.019,8.7323,14.079,-5.1951,16.36,0.74715
-5.7896,-0.21802,26.849,-3.5155,24.817,-25.254,33.151,-17.628,50.048,-7.786,14.019,8.7323,14.079,-5.1951,16.36,0.74715
-5.9594,-0.12095,26.737,-3.3645,24.675,-25.119,33.018,-17.455,50.011,-7.65,14.026,8.8137,13.977,-5.0927,16.355,0.85482
-5.9594,-0.12095,26.737,-3.3645,24.675,-25.119,33.018,-17.455,50.011,-7.65,14.026,8.8137,13.977,-5.0927,16.355,0.85482
-6.1289,-0.024795,26.625,-3.2132,24.532,-24.982,32.884,-17.282,49.971,-7.5128,14.031,8.8957,13.876,-4.9913,16.35,0.96191
-6.298,0.070437,26.511,-3.0616,24.388,-24.845,32.75,-17.109,49.93,-7.3746,14.034,8.9783,13.775,-4.8909,16.345,1.0684
-6.298,0.070437,26.511,-3.0616,24.388,-24.845,32.75,-17.109,49.93,-7.3746,14.034,8.9783,13.775,-4.8909,16.345,1.0684
-6.4666,0.16474,26.397,-2.9096,24.242,-24.707,32.614,-16.936,49.887,-7.2354,14.036,9.0614,13.674,-4.7915,16.339,1.1743
-6.4666,0.16474,26.397,-2.9096,24.242,-24.707,32.614,-16.936,49.887,-7.2354,14.036,9.0614,13.674,-4.7915,16.339,1.1743
-6.6348,0.2581,26.281,-2.7573,24.095,-24.568,32.478,-16.763,49.842,-7.0951,14.036,9.1451,13.574,-4.6931,16.332,1.2797
-6.6348,0.2581,26.281,-2.7573,24.095,-24.568,32.478,-16.763,49.842,-7.0951,14.036,9.1451,13.574,-4.6931,16.332,1.2797
-6.8026,0.3505,26.165,-2.6048,23.946,-24.429,32.341,-16.59,49.796,-6.9537,14.034,9.2294,13.474,-4.5957,16.325,1.3844
-6.8026,0.3505,26.165,-2.6048,23.946,-24.429,32.341,-16.59,49.796,-6.9537,14.034,9.2294,13.474,-4.5957,16.325,1.3844
-6.9699,0.44195,26.047,-2.4519,23.796,-24.288,32.203,-16.417,49.747,-6.8113,14.03,9.3142,13.374,-4.4994,16.317,1.4886
-6.9699,0.44195,26.047,-2.4519,23.796,-24.288,32.203,-16.417,49.747,-6.8113,14.03,9.3142,13.374,-4.4994,16.317,1.4886
-7.1367,0.53242,25.929,-2.2988,23.645,-24.147,32.065,-16.244,49.696,-6.6679,14.025,9.3996,13.274,-4.4042,16.309,1.5921
-7.303,0.62192,25.81,-2.1454,23.492,-24.005,31.925,-16.071,49.644,-6.5235,14.017,9.4855,13.175,-4.31,16.3,1.695
-7.303,0.62192,25.81,-2.1454,23.492,-24.005,31.925,-16.071,49.644,-6.5235,14.017,9.4855,13.175,-4.31,16.3,1.695
-7.4687,0.71042,25.69,-1.9918,23.338,-23.862,31.785,-15.898,49.59,-6.3781,14.008,9.5719,13.077,-4.2169,16.29,1.7974
-7.4687,0.71042,25.69,-1.9918,23.338,-23.862,31.785,-15.898,49.59,-6.3781,14.008,9.5719,13.077,-4.2169,16.29,1.7974
-7.4687,0.71042,25.69,-1.9918,23.338,-23.862,31.785,-15.898,49.59,-6.3781,14.008,9.5719,13.077,-4.2169,16.29,1.7974
-7.6339,0.79793,25.569,-1.8379,23.183,-23.718,31.644,-15.726,49.533,-6.2316,13.998,9.6589,12.979,-4.1248,16.28,1.8991
-7.6339,0.79793,25.569,-1.8379,23.183,-23.718,31.644,-15.726,49.533,-6.2316,13.998,9.6589,12.979,-4.1248,16.28,1.8991
-7.6339,0.79793,25.569,-1.8379,23.183,-23.718,31.644,-15.726,49.533,-6.2316,13.998,9.6589,12.979,-4.1248,16.28,1.8991
-7.7986,0.88443,25.447,-1.6838,23.027,-23.574,31.503,-15.553,49.475,-6.0842,13.985,9.7464,12.881,-4.0339,16.269,2.0002
-7.9626,0.96992,25.325,-1.5294,22.869,-23.428,31.36,-15.381,49.416,-5.9358,13.971,9.8344,12.783,-3.944,16.258,2.1006
-7.9626,0.96992,25.325,-1.5294,22.869,-23.428,31.36,-15.381,49.416,-5.9358,13.971,9.8344,12.783,-3.944,16.258,2.1006
-8.1261,1.0544,25.201,-1.3748,22.71,-23.282,31.217,-15.209,49.354,-5.7864,13.954,9.9229,12.686,-3.8553,16.246,2.2005
-8.1261,1.0544,25.201,-1.3748,22.71,-23.282,31.217,-15.209,49.354,-5.7864,13.954,9.9229,12.686,-3.8553,16.246,2.2005
-8.2889,1.1378,25.077,-1.2201,22.549,-23.135,31.073,-15.037,49.29,-5.6361,13.937,10.012,12.59,-3.7676,16.234,2.2997
-8.2889,1.1378,25.077,-1.2201,22.549,-23.135,31.073,-15.037,49.29,-5.6361,13.937,10.012,12.59,-3.7676,16.234,2.2997
-8.4511,1.2202,24.952,-1.0651,22.388,-22.988,30.929,-14.865,49.225,-5.4847,13.917,10.101,12.494,-3.6811,16.22,2.3983
-8.4511,1.2202,24.952,-1.0651,22.388,-22.988,30.929,-14.865,49.225,-5.4847,13.917,10.101,12.494,-3.6811,16.22,2.3983
-8.4511,1.2202,24.952,-1.0651,22.388,-22.988,30.929,-14.865,49.225,-5.4847,13.917,10.101,12.494,-3.6811,16.22,2.3983
-8.6127,1.3015,24.826,-0.90992,22.225,-22.84,30.784,-14.694,49.158,-5.3325,13.895,10.191,12.398,-3.5957,16.207,2.4962
