2.123,-0.5751,1.1874,-1.4382,1.5195,-0.708,1.3267,-0.6551,1.1533,-0.3134,1.3485,-1.1092,0.5003,-0.5374,2.2159,-0.245
2.123,-0.5751,1.165,-1.4057,1.5108,-0.6955,1.3267,-0.6551,1.0741,-0.3419,1.3013,-1.1219,0.4067,-0.5252,2.1833,-0.2335
2.123,-0.5751,1.165,-1.4057,1.5108,-0.6955,1.3267,-0.6551,1.0741,-0.3419,1.3013,-1.1219,0.4067,-0.5252,2.1833,-0.2335
2.174,-0.5931,1.1874,-1.4382,1.4823,-0.6854,1.3085,-0.6602,1.0043,-0.3361,1.3282,-1.1607,0.3697,-0.533,2.1289,-0.2258
2.174,-0.5931,1.1874,-1.4382,1.4823,-0.6854,1.3085,-0.6602,1.0043,-0.3361,1.3282,-1.1607,0.3697,-0.533,2.1289,-0.2258
2.243,-0.637,1.1369,-1.4203,1.4339,-0.6778,1.3009,-0.6806,1.0215,-0.3609,1.2778,-1.1283,0.3328,-0.5408,2.107,-0.2295
2.243,-0.637,1.1369,-1.4203,1.4339,-0.6778,1.3009,-0.6806,1.0215,-0.3609,1.2778,-1.1283,0.3328,-0.5408,2.107,-0.2295
2.2762,-0.6292,1.1369,-1.4203,1.3659,-0.6726,1.3403,-0.7061,1.0387,-0.3857,1.2274,-1.0958,0.2959,-0.5486,2.0851,-0.2332
2.2762,-0.6292,1.1369,-1.4203,1.3659,-0.6726,1.3403,-0.7061,1.0387,-0.3857,1.2274,-1.0958,0.2959,-0.5486,2.0851,-0.2332
2.2582,-0.6033,1.1593,-1.4527,1.3069,-0.68,1.3327,-0.7264,1.0387,-0.3857,1.2274,-1.0958,0.4079,-0.5881,2.0851,-0.2332
2.2582,-0.6033,1.1593,-1.4527,1.3069,-0.68,1.3327,-0.7264,1.0387,-0.3857,1.2274,-1.0958,0.4079,-0.5881,2.0851,-0.2332
2.2582,-0.6033,1.1089,-1.4348,1.248,-0.6874,1.3039,-0.7162,1.0387,-0.3857,1.1672,-1.0892,0.427,-0.6156,2.0415,-0.2406
2.2582,-0.6033,1.1089,-1.4348,1.248,-0.6874,1.3039,-0.7162,1.0387,-0.3857,1.1672,-1.0892,0.427,-0.6156,2.0415,-0.2406
2.207,-0.5852,1.1817,-1.485,1.198,-0.7072,1.257,-0.7112,0.9692,-0.3799,1.1207,-1.102,0.353,-0.6309,1.9658,-0.2366
2.207,-0.5852,1.1817,-1.485,1.198,-0.7072,1.257,-0.7112,0.9692,-0.3799,1.1207,-1.102,0.353,-0.6309,1.9658,-0.2366
2.123,-0.5751,1.1537,-1.4994,1.1008,-0.7196,1.1351,-0.6911,1.0297,-0.4199,1.0974,-1.1084,0.2972,-0.6112,1.9546,-0.2554
2.123,-0.5751,1.1537,-1.4994,1.1008,-0.7196,1.1351,-0.6911,1.0297,-0.4199,1.0974,-1.1084,0.2972,-0.6112,1.9546,-0.2554
2.123,-0.5751,1.1537,-1.4994,1.1008,-0.7196,1.1351,-0.6911,1.0297,-0.4199,1.0974,-1.1084,0.2972,-0.6112,1.9546,-0.2554
2.0901,-0.583,1.1313,-1.4671,1.0514,-0.7393,1.0707,-0.6912,1.0994,-0.4259,1.0974,-1.1084,0.2415,-0.5915,1.933,-0.2591
2.0901,-0.583,1.1313,-1.4671,1.0514,-0.7393,1.0707,-0.6912,1.0994,-0.4259,1.0974,-1.1084,0.2415,-0.5915,1.933,-0.2591
2.0901,-0.583,1.1313,-1.4671,1.0514,-0.7393,1.0707,-0.6912,1.0994,-0.4259,1.0974,-1.1084,0.2415,-0.5915,1.933,-0.2591
2.0393,-0.5651,1.0864,-1.4025,0.9637,-0.764,1.0098,-0.7268,1.0387,-0.3857,1.0876,-1.1341,0.0942,-0.5601,1.9002,-0.2815
2.0393,-0.5651,1.0864,-1.4025,0.9637,-0.764,1.0098,-0.7268,1.0387,-0.3857,1.0876,-1.1341,0.0942,-0.5601,1.9002,-0.2815
2.0393,-0.5651,1.0864,-1.4025,0.9637,-0.764,1.0098,-0.7268,1.0387,-0.3857,1.0876,-1.1341,0.0942,-0.5601,1.9002,-0.2815
2.0393,-0.5651,1.0864,-1.4025,0.9637,-0.764,1.0098,-0.7268,1.0387,-0.3857,1.0876,-1.1341,0.0942,-0.5601,1.9002,-0.2815
2.0246,-0.5989,1.0586,-1.4171,0.868,-0.7764,0.8928,-0.7423,0.9259,-0.3646,1.1276,-1.1918,-0.0143,-0.5836,1.8038,-0.2813
2.0424,-0.6247,1.081,-1.4494,0.7751,-0.762,0.8399,-0.7576,0.8999,-0.3741,1.1143,-1.1726,-0.0502,-0.5914,1.761,-0.2888
2.0424,-0.6247,1.081,-1.4494,0.7751,-0.762,0.8399,-0.7576,0.8999,-0.3741,1.1143,-1.1726,-0.0502,-0.5914,1.761,-0.2888
2.0424,-0.6247,1.0531,-1.4638,0.7183,-0.7695,0.8047,-0.7678,0.8739,-0.3836,1.0644,-1.1404,-0.0314,-0.6185,1.7184,-0.2962
2.0424,-0.6247,1.0531,-1.4638,0.7183,-0.7695,0.8047,-0.7678,0.8739,-0.3836,1.0644,-1.1404,-0.0314,-0.6185,1.7184,-0.2962
2.0424,-0.6247,1.0531,-1.4638,0.7183,-0.7695,0.8047,-0.7678,0.8739,-0.3836,1.0644,-1.1404,-0.0314,-0.6185,1.7184,-0.2962
2.0246,-0.5989,1.0307,-1.4316,0.689,-0.7867,0.8255,-0.7977,0.848,-0.393,1.028,-1.1275,-0.0486,-0.6533,1.6861,-0.3185
2.0246,-0.5989,1.0307,-1.4316,0.689,-0.7867,0.8255,-0.7977,0.848,-0.393,1.028,-1.1275,-0.0486,-0.6533,1.6861,-0.3185
2.0246,-0.5989,1.0307,-1.4316,0.689,-0.7867,0.8255,-0.7977,0.848,-0.393,1.028,-1.1275,-0.0486,-0.6533,1.6861,-0.3185
1.9561,-0.5552,1.0531,-1.4638,0.6055,-0.7846,0.8079,-0.8028,0.7792,-0.3873,1.0049,-1.1339,0.0249,-0.6996,1.6437,-0.3259
1.9561,-0.5552,1.0531,-1.4638,0.6055,-0.7846,0.8079,-0.8028,0.7792,-0.3873,1.0049,-1.1339,0.0249,-0.6996,1.6437,-0.3259
1.8264,-0.5872,0.9698,-1.5072,0.473,-0.829,0.672,-0.7885,0.7534,-0.3968,0.9226,-1.1338,-0.0298,-0.6803,1.5489,-0.3259
1.8264,-0.5872,0.9698,-1.5072,0.473,-0.829,0.672,-0.7885,0.7534,-0.3968,0.9226,-1.1338,-0.0298,-0.6803,1.5489,-0.3259
1.8264,-0.5872,0.9698,-1.5072,0.473,-0.829,0.672,-0.7885,0.7534,-0.3968,0.9226,-1.1338,-0.0298,-0.6803,1.5489,-0.3259
1.762,-0.6032,0.992,-1.5392,0.399,-0.8391,0.6096,-0.7889,0.7705,-0.4214,0.8997,-1.1402,-0.1032,-0.634,1.5279,-0.3297
1.762,-0.6032,0.992,-1.5392,0.399,-0.8391,0.6096,-0.7889,0.7705,-0.4214,0.8997,-1.1402,-0.1032,-0.634,1.5279,-0.3297
1.762,-0.6032,0.992,-1.5392,0.399,-0.8391,0.6096,-0.7889,0.7705,-0.4214,0.8997,-1.1402,-0.1032,-0.634,1.5279,-0.3297
1.762,-0.6032,0.9422,-1.5216,0.3437,-0.8467,0.5647,-0.7843,0.8391,-0.4271,0.8997,-1.1402,-0.1407,-0.5799,1.5069,-0.3334
1.762,-0.6032,0.9422,-1.5216,0.3437,-0.8467,0.5647,-0.7843,0.8391,-0.4271,0.8997,-1.1402,-0.1407,-0.5799,1.5069,-0.3334
1.8119,-0.6208,0.9698,-1.5072,0.3069,-0.8517,0.52,-0.7796,0.8133,-0.4365,0.8768,-1.1466,-0.1764,-0.5877,1.5484,-0.3592
1.8119,-0.6208,0.9698,-1.5072,0.3069,-0.8517,0.52,-0.7796,0.8133,-0.4365,0.8768,-1.1466,-0.1764,-0.5877,1.5484,-0.3592
1.8119,-0.6208,0.9698,-1.5072,0.3069,-0.8517,0.52,-0.7796,0.8133,-0.4365,0.8768,-1.1466,-0.1764,-0.5877,1.5484,-0.3592
1.8119,-0.6208,0.92,-1.4896,0.2602,-0.8713,0.4958,-0.8046,0.7962,-0.4119,0.854,-1.153,-0.2662,-0.5764,1.5273,-0.3629
1.8119,-0.6208,0.92,-1.4896,0.2602,-0.8713,0.4958,-0.8046,0.7962,-0.4119,0.854,-1.153,-0.2662,-0.5764,1.5273,-0.3629
1.8297,-0.6464,0.8702,-1.472,0.1872,-0.8814,0.3999,-0.8153,0.6595,-0.4007,0.7989,-1.1912,-0.3885,-0.6348,1.4125,-0.3667
1.8297,-0.6464,0.8702,-1.472,0.1872,-0.8814,0.3999,-0.8153,0.6595,-0.4007,0.7989,-1.1912,-0.3885,-0.6348,1.4125,-0.3667
1.8474,-0.672,0.8428,-1.4864,0.1245,-0.8772,0.3658,-0.8255,0.617,-0.3857,0.7857,-1.1721,-0.405,-0.6694,1.3607,-0.3595
1.8474,-0.672,0.8428,-1.4864,0.1245,-0.8772,0.3658,-0.8255,0.617,-0.3857,0.7857,-1.1721,-0.405,-0.6694,1.3607,-0.3595
1.8797,-0.6641,0.8702,-1.472,0.1426,-0.8746,0.3931,-0.8351,0.5999,-0.3611,0.8444,-1.1785,-0.3514,-0.6883,1.3713,-0.3411
1.8797,-0.6641,0.8702,-1.472,0.1426,-0.8746,0.3931,-0.8351,0.5999,-0.3611,0.8444,-1.1785,-0.3514,-0.6883,1.3713,-0.3411
1.862,-0.6385,0.8702,-1.472,0.2072,-0.8525,0.4375,-0.8397,0.6254,-0.3516,0.8312,-1.1594,-0.2623,-0.6996,1.3921,-0.3373
1.862,-0.6385,0.8702,-1.472,0.2072,-0.8525,0.4375,-0.8397,0.6254,-0.3516,0.8312,-1.1594,-0.2623,-0.6996,1.3921,-0.3373
1.8119,-0.6208,0.8924,-1.504,0.3906,-0.8271,0.4958,-0.8046,0.6254,-0.3516,0.8768,-1.1466,-0.1372,-0.7033,1.4445,-0.3114
1.8119,-0.6208,0.8924,-1.504,0.3906,-0.8271,0.4958,-0.8046,0.6254,-0.3516,0.8768,-1.1466,-0.1372,-0.7033,1.4445,-0.3114
1.8119,-0.6208,0.9422,-1.5216,0.5867,-0.7872,0.5717,-0.7643,0.6936,-0.3571,0.9455,-1.1274,0.0061,-0.6726,1.5808,-0.3037
1.8119,-0.6208,0.9422,-1.5216,0.5867,-0.7872,0.5717,-0.7643,0.6936,-0.3571,0.9455,-1.1274,0.0061,-0.6726,1.5808,-0.3037
1.862,-0.6385,0.9422,-1.5216,0.8046,-0.7447,0.6932,-0.7284,0.805,-0.3779,1.0146,-1.1083,0.0957,-0.6224,1.708,-0.2813
1.862,-0.6385,0.9422,-1.5216,0.8046,-0.7447,0.6932,-0.7284,0.805,-0.3779,1.0146,-1.1083,0.0957,-0.6224,1.708,-0.2813
1.862,-0.6385,0.9422,-1.5216,0.8046,-0.7447,0.6932,-0.7284,0.805,-0.3779,1.0146,-1.1083,0.0957,-0.6224,1.708,-0.2813
1.9446,-0.6483,0.9253,-1.443,1.0343,-0.7147,0.872,-0.7123,0.943,-0.3893,1.0706,-1.0697,0.2415,-0.5915,1.8683,-0.2702
1.9446,-0.6483,0.9253,-1.443,1.0343,-0.7147,0.872,-0.7123,0.943,-0.3893,1.0706,-1.0697,0.2415,-0.5915,1.8683,-0.2702
1.9446,-0.6483,0.9253,-1.443,1.0343,-0.7147,0.872,-0.7123,0.943,-0.3893,1.0706,-1.0697,0.2415,-0.5915,1.8683,-0.2702
2.0603,-0.6504,0.9806,-1.4139,1.2285,-0.6899,1.0423,-0.6812,0.9953,-0.3704,1.117,-1.0568,0.315,-0.5761,2.0084,-0.263
2.0603,-0.6504,0.9806,-1.4139,1.2285,-0.6899,1.0423,-0.6812,0.9953,-0.3704,1.117,-1.0568,0.315,-0.5761,2.0084,-0.263
2.0752,-0.6168,1.0083,-1.3993,1.5308,-0.6931,1.2434,-0.6603,0.987,-0.3112,1.2005,-1.0569,0.445,-0.5805,2.1289,-0.2258
2.141,-0.601,1.0586,-1.4171,1.5907,-0.6859,1.3161,-0.6398,0.9348,-0.3303,1.2274,-1.0958,0.2959,-0.5486,2.0965,-0.2143
2.141,-0.601,1.0586,-1.4171,1.5907,-0.6859,1.3161,-0.6398,0.9348,-0.3303,1.2274,-1.0958,0.2959,-0.5486,2.0965,-0.2143
2.141,-0.601,1.0586,-1.4171,1.5907,-0.6859,1.3161,-0.6398,0.9348,-0.3303,1.2274,-1.0958,0.2959,-0.5486,2.0965,-0.2143
2.123,-0.5751,1.0586,-1.4171,1.582,-0.6733,1.3237,-0.6193,0.8567,-0.3588,1.2175,-1.1216,0.2035,-0.5367,2.0101,-0.1952
2.123,-0.5751,1.0586,-1.4171,1.582,-0.6733,1.3237,-0.6193,0.8567,-0.3588,1.2175,-1.1216,0.2035,-0.5367,2.0101,-0.1952
2.174,-0.5931,1.1089,-1.4348,1.5246,-0.653,1.3237,-0.6193,0.8739,-0.3836,1.2309,-1.1409,0.167,-0.5445,2.0101,-0.1952
2.174,-0.5931,1.1089,-1.4348,1.5246,-0.653,1.3237,-0.6193,0.8739,-0.3836,1.2309,-1.1409,0.167,-0.5445,2.0101,-0.1952
2.174,-0.5931,1.1089,-1.4348,1.5246,-0.653,1.3237,-0.6193,0.8739,-0.3836,1.2309,-1.1409,0.167,-0.5445,2.0101,-0.1952
2.2582,-0.6033,1.1369,-1.4203,1.4761,-0.6454,1.313,-0.6039,0.917,-0.3988,1.2175,-1.1216,0.2225,-0.5641,2.0205,-0.2103
2.2582,-0.6033,1.1369,-1.4203,1.4761,-0.6454,1.313,-0.6039,0.917,-0.3988,1.2175,-1.1216,0.2225,-0.5641,2.0205,-0.2103
2.2582,-0.6033,1.1369,-1.4203,1.4761,-0.6454,1.313,-0.6039,0.917,-0.3988,1.2175,-1.1216,0.2225,-0.5641,2.0205,-0.2103
2.2582,-0.6033,1.1089,-1.4348,1.3573,-0.6601,1.3556,-0.6653,0.917,-0.3988,1.1672,-1.0892,0.2415,-0.5915,2.0093,-0.2292
2.2582,-0.6033,1.1089,-1.4348,1.3573,-0.6601,1.3556,-0.6653,0.917,-0.3988,1.1672,-1.0892,0.2415,-0.5915,2.0093,-0.2292
2.2582,-0.6033,1.1089,-1.4348,1.3573,-0.6601,1.3556,-0.6653,0.917,-0.3988,1.1672,-1.0892,0.2415,-0.5915,2.0093,-0.2292
2.2402,-0.5773,1.1089,-1.4348,1.3265,-0.6776,1.3556,-0.6653,0.9259,-0.3646,1.1538,-1.0698,0.334,-0.6035,1.9988,-0.2141
2.2402,-0.5773,1.1089,-1.4348,1.3265,-0.6776,1.3556,-0.6653,0.9259,-0.3646,1.1538,-1.0698,0.334,-0.6035,1.9988,-0.2141
2.2402,-0.5773,1.1089,-1.4348,1.3265,-0.6776,1.3556,-0.6653,0.9259,-0.3646,1.1538,-1.0698,0.334,-0.6035,1.9988,-0.2141
2.0901,-0.583,1.1033,-1.4816,1.248,-0.6874,1.2509,-0.6399,0.9087,-0.3398,1.117,-1.0568,0.4832,-0.6355,2.0528,-0.2217
2.0901,-0.583,1.1033,-1.4816,1.248,-0.6874,1.2509,-0.6399,0.9087,-0.3398,1.117,-1.0568,0.4832,-0.6355,2.0528,-0.2217
2.0066,-0.5731,1.1256,-1.5138,1.2566,-0.6998,1.2222,-0.6297,0.9781,-0.3456,1.1538,-1.0698,0.4641,-0.608,2.0528,-0.2217
2.0246,-0.5989,1.1033,-1.4816,1.2566,-0.6998,1.2041,-0.6349,1.0387,-0.3857,1.1538,-1.0698,0.445,-0.5805,2.0205,-0.2103
2.0246,-0.5989,1.1033,-1.4816,1.2566,-0.6998,1.2041,-0.6349,1.0387,-0.3857,1.1538,-1.0698,0.445,-0.5805,2.0205,-0.2103
2.0573,-0.591,1.1089,-1.4348,1.248,-0.6874,1.2222,-0.6297,1.065,-0.3763,1.1538,-1.0698,0.3328,-0.5408,2.0633,-0.2369
2.0573,-0.591,1.1089,-1.4348,1.248,-0.6874,1.2222,-0.6297,1.065,-0.3763,1.1538,-1.0698,0.3328,-0.5408,2.0633,-0.2369
2.0573,-0.591,1.1089,-1.4348,1.248,-0.6874,1.2222,-0.6297,1.065,-0.3763,1.1538,-1.0698,0.3328,-0.5408,2.0633,-0.2369
2.0573,-0.591,1.0361,-1.3847,1.248,-0.6874,1.2041,-0.6349,1.0043,-0.3361,1.1906,-1.0828,0.2959,-0.5486,2.0738,-0.252
2.0573,-0.591,1.0361,-1.3847,1.248,-0.6874,1.2041,-0.6349,1.0043,-0.3361,1.1906,-1.0828,0.2959,-0.5486,2.0738,-0.252
2.0573,-0.591,1.0361,-1.3847,1.248,-0.6874,1.2041,-0.6349,1.0043,-0.3361,1.1906,-1.0828,0.2959,-0.5486,2.0738,-0.252
2.0901,-0.583,1.0864,-1.4025,1.2762,-0.6974,1.2147,-0.6502,0.987,-0.3112,1.1906,-1.0828,0.2401,-0.5288,2.0738,-0.252
2.0901,-0.583,1.0864,-1.4025,1.2762,-0.6974,1.2147,-0.6502,0.987,-0.3112,1.1906,-1.0828,0.2401,-0.5288,2.0738,-0.252
2.0901,-0.583,1.0864,-1.4025,1.2762,-0.6974,1.2147,-0.6502,0.987,-0.3112,1.1906,-1.0828,0.2401,-0.5288,2.0738,-0.252
2.0901,-0.583,1.064,-1.37,1.2457,-0.7147,1.1786,-0.6605,0.8915,-0.315,1.2443,-1.1603,0.1495,-0.5797,1.9337,-0.2253
2.0901,-0.583,1.064,-1.37,1.2457,-0.7147,1.1786,-0.6605,0.8915,-0.315,1.2443,-1.1603,0.1495,-0.5797,1.9337,-0.2253
2.0901,-0.583,1.064,-1.37,1.2457,-0.7147,1.1786,-0.6605,0.8915,-0.315,1.2443,-1.1603,0.1495,-0.5797,1.9337,-0.2253
2.141,-0.601,1.0864,-1.4025,1.1785,-0.7097,1.114,-0.6606,0.9087,-0.3398,1.2075,-1.1473,0.1131,-0.5874,1.8905,-0.2327
2.1768,-0.6527,1.0083,-1.3993,1.0923,-0.7072,1.0602,-0.6761,0.8827,-0.3493,1.2075,-1.1473,0.058,-0.5679,1.837,-0.2252
2.1768,-0.6527,1.0083,-1.3993,1.0923,-0.7072,1.0602,-0.6761,0.8827,-0.3493,1.2075,-1.1473,0.058,-0.5679,1.837,-0.2252
2.1768,-0.6527,1.0083,-1.3993,1.0923,-0.7072,1.0602,-0.6761,0.8827,-0.3493,1.2075,-1.1473,0.058,-0.5679,1.837,-0.2252
2.2099,-0.6449,1.0361,-1.3847,1.0343,-0.7147,1.0992,-0.7013,0.8999,-0.3741,1.1573,-1.1149,0.0218,-0.5757,1.7941,-0.2327
2.2099,-0.6449,1.0361,-1.3847,1.0343,-0.7147,1.0992,-0.7013,0.8999,-0.3741,1.1573,-1.1149,0.0218,-0.5757,1.7941,-0.2327
2.141,-0.601,1.0361,-1.3847,0.9765,-0.7222,1.0917,-0.7215,0.8999,-0.3741,1.084,-1.089,-0.0143,-0.5836,1.7831,-0.2514
2.0901,-0.583,1.0083,-1.3993,0.9552,-0.7517,1.0276,-0.7217,0.8739,-0.3836,1.0608,-1.0954,0.0595,-0.6301,1.7507,-0.2738
2.0901,-0.583,1.0083,-1.3993,0.9552,-0.7517,1.0276,-0.7217,0.8739,-0.3836,1.0608,-1.0954,0.0595,-0.6301,1.7507,-0.2738
2.0066,-0.5731,0.9806,-1.4139,0.8511,-0.752,0.9355,-0.712,0.8221,-0.4025,1.0146,-1.1083,0.0422,-0.665,1.7184,-0.2962
2.0066,-0.5731,0.9806,-1.4139,0.8511,-0.752,0.9355,-0.712,0.8221,-0.4025,1.0146,-1.1083,0.0422,-0.665,1.7184,-0.2962
2.0066,-0.5731,0.9806,-1.4139,0.8511,-0.752,0.9355,-0.712,0.8221,-0.4025,1.0146,-1.1083,0.0422,-0.665,1.7184,-0.2962
1.8086,-0.5615,0.9975,-1.4927,0.6994,-0.772,0.7807,-0.7027,0.8391,-0.4271,0.9322,-1.1082,-0.0502,-0.5914,1.6128,-0.2813
1.8086,-0.5615,0.9975,-1.4927,0.6994,-0.772,0.7807,-0.7027,0.8391,-0.4271,0.9322,-1.1082,-0.0502,-0.5914,1.6128,-0.2813
1.8086,-0.5615,0.9975,-1.4927,0.6994,-0.772,0.7807,-0.7027,0.8391,-0.4271,0.9322,-1.1082,-0.0502,-0.5914,1.6128,-0.2813
1.8086,-0.5615,0.9975,-1.4927,0.6994,-0.772,0.7807,-0.7027,0.8391,-0.4271,0.9322,-1.1082,-0.0502,-0.5914,1.6128,-0.2813
1.8264,-0.5872,0.9476,-1.4751,0.6514,-0.7917,0.7282,-0.7182,0.865,-0.4177,0.9322,-1.1082,-0.0691,-0.5642,1.5917,-0.2851
1.8264,-0.5872,0.9476,-1.4751,0.6514,-0.7917,0.7282,-0.7182,0.865,-0.4177,0.9322,-1.1082,-0.0691,-0.5642,1.5917,-0.2851
1.8119,-0.6208,0.8257,-1.4078,0.5205,-0.8094,0.6688,-0.7536,0.848,-0.393,0.8959,-1.0954,-0.1595,-0.5528,1.654,-0.3407
1.8119,-0.6208,0.8257,-1.4078,0.5205,-0.8094,0.6688,-0.7536,0.848,-0.393,0.8959,-1.0954,-0.1595,-0.5528,1.654,-0.3407
1.8119,-0.6208,0.8257,-1.4078,0.5205,-0.8094,0.6688,-0.7536,0.848,-0.393,0.8959,-1.0954,-0.1595,-0.5528,1.654,-0.3407
1.8119,-0.6208,0.8034,-1.3756,0.5102,-0.8239,0.6514,-0.7587,0.7879,-0.3532,0.8597,-1.0826,-0.1764,-0.5877,1.6328,-0.3444
1.8119,-0.6208,0.8034,-1.3756,0.5102,-0.8239,0.6514,-0.7587,0.7879,-0.3532,0.8597,-1.0826,-0.1764,-0.5877,1.6328,-0.3444
1.8119,-0.6208,0.8034,-1.3756,0.5102,-0.8239,0.6514,-0.7587,0.7879,-0.3532,0.8597,-1.0826,-0.1764,-0.5877,1.6328,-0.3444
1.7798,-0.6288,0.7761,-1.3903,0.4628,-0.8435,0.6166,-0.7689,0.7193,-0.3476,0.8502,-1.1083,-0.2474,-0.6034,1.5803,-0.337
1.7798,-0.6288,0.7761,-1.3903,0.4628,-0.8435,0.6166,-0.7689,0.7193,-0.3476,0.8502,-1.1083,-0.2474,-0.6034,1.5803,-0.337
1.8975,-0.6896,0.7984,-1.4224,0.3805,-0.8416,0.5372,-0.7745,0.668,-0.3666,0.8997,-1.1402,-0.2642,-0.6382,1.4757,-0.3224
1.8975,-0.6896,0.7984,-1.4224,0.3805,-0.8416,0.5372,-0.7745,0.668,-0.3666,0.8997,-1.1402,-0.2642,-0.6382,1.4757,-0.3224
1.8975,-0.6896,0.7984,-1.4224,0.3805,-0.8416,0.5372,-0.7745,0.668,-0.3666,0.8997,-1.1402,-0.2642,-0.6382,1.4757,-0.3224
1.8975,-0.6896,0.8206,-1.4545,0.3253,-0.8492,0.5027,-0.7847,0.6254,-0.3516,0.8635,-1.1274,-0.2995,-0.646,1.4236,-0.3151
1.8975,-0.6896,0.8206,-1.4545,0.3253,-0.8492,0.5027,-0.7847,0.6254,-0.3516,0.8635,-1.1274,-0.2995,-0.646,1.4236,-0.3151
1.8797,-0.6641,0.7933,-1.4689,0.252,-0.8593,0.4958,-0.8046,0.6425,-0.3761,0.8407,-1.1339,-0.2809,-0.6728,1.3819,-0.3226
1.8797,-0.6641,0.7933,-1.4689,0.252,-0.8593,0.4958,-0.8046,0.6425,-0.3761,0.8407,-1.1339,-0.2809,-0.6728,1.3819,-0.3226
1.8797,-0.6641,0.7933,-1.4689,0.252,-0.8593,0.4958,-0.8046,0.6425,-0.3761,0.8407,-1.1339,-0.2809,-0.6728,1.3819,-0.3226
1.8297,-0.6464,0.7933,-1.4689,0.1972,-0.867,0.4341,-0.8052,0.6254,-0.3516,0.8274,-1.1147,-0.2269,-0.6919,1.3611,-0.3264
1.8297,-0.6464,0.7933,-1.4689,0.1972,-0.867,0.4341,-0.8052,0.6254,-0.3516,0.8274,-1.1147,-0.2269,-0.6919,1.3611,-0.3264
1.6165,-0.6096,0.8101,-1.5471,0.0604,-0.8992,0.3216,-0.821,0.6595,-0.4007,0.7819,-1.1275,-0.3534,-0.627,1.268,-0.3267
1.6165,-0.6096,0.8101,-1.5471,0.0604,-0.8992,0.3216,-0.821,0.6595,-0.4007,0.7819,-1.1275,-0.3534,-0.627,1.268,-0.3267
1.6165,-0.6096,0.8101,-1.5471,0.0604,-0.8992,0.3216,-0.821,0.6595,-0.4007,0.7819,-1.1275,-0.3534,-0.627,1.268,-0.3267
1.6483,-0.6016,0.766,-1.4834,0.0784,-0.8966,0.2945,-0.8114,0.7021,-0.4157,0.8046,-1.1211,-0.372,-0.6001,1.3195,-0.3339
1.6483,-0.6016,0.766,-1.4834,0.0784,-0.8966,0.2945,-0.8114,0.7021,-0.4157,0.8046,-1.1211,-0.372,-0.6001,1.3195,-0.3339
1.666,-0.6271,0.7438,-1.4515,0.1426,-0.8746,0.3115,-0.8063,0.7021,-0.4157,0.7914,-1.102,-0.3181,-0.6191,1.3921,-0.3373
1.7156,-0.6447,0.7216,-1.4195,0.352,-0.8586,0.4068,-0.7955,0.7107,-0.3817,0.8502,-1.1083,-0.3015,-0.5843,1.4757,-0.3224
1.7156,-0.6447,0.7216,-1.4195,0.352,-0.8586,0.4068,-0.7955,0.7107,-0.3817,0.8502,-1.1083,-0.3015,-0.5843,1.4757,-0.3224
1.7477,-0.6367,0.7488,-1.4049,0.6016,-0.838,0.5372,-0.7745,0.7107,-0.3817,0.8502,-1.1083,-0.2662,-0.5764,1.5597,-0.3074
1.7477,-0.6367,0.7488,-1.4049,0.6016,-0.838,0.5372,-0.7745,0.7107,-0.3817,0.8502,-1.1083,-0.2662,-0.5764,1.5597,-0.3074
1.7477,-0.6367,0.7488,-1.4049,0.6016,-0.838,0.5372,-0.7745,0.7107,-0.3817,0.8502,-1.1083,-0.2662,-0.5764,1.5597,-0.3074
1.7798,-0.6288,0.7488,-1.4049,0.83,-0.7814,0.6758,-0.7335,0.7107,-0.3817,0.9685,-1.121,-0.1951,-0.5607,1.634,-0.2776
1.7798,-0.6288,0.7488,-1.4049,0.83,-0.7814,0.6758,-0.7335,0.7107,-0.3817,0.9685,-1.121,-0.1951,-0.5607,1.634,-0.2776
1.7798,-0.6288,0.7488,-1.4049,0.83,-0.7814,0.6758,-0.7335,0.7107,-0.3817,0.9685,-1.121,-0.1951,-0.5607,1.634,-0.2776
1.8943,-0.6306,0.7984,-1.4224,1.0514,-0.7393,0.8263,-0.7075,0.7621,-0.3627,1.0742,-1.1148,-0.0331,-0.5563,1.73,-0.2439
1.8943,-0.6306,0.7984,-1.4224,1.0514,-0.7393,0.8263,-0.7075,0.7621,-0.3627,1.0742,-1.1148,-0.0331,-0.5563,1.73,-0.2439
2.0097,-0.6326,0.8755,-1.4254,1.2003,-0.6799,0.9961,-0.6763,0.7879,-0.3532,1.1072,-1.0826,0.039,-0.5406,1.8475,-0.2402
2.0097,-0.6326,0.8755,-1.4254,1.2003,-0.6799,0.9961,-0.6763,0.7879,-0.3532,1.1072,-1.0826,0.039,-0.5406,1.8475,-0.2402
2.0931,-0.6426,0.903,-1.4108,1.3179,-0.6651,1.1711,-0.6808,0.8739,-0.3836,1.117,-1.0568,0.1305,-0.5523,1.9442,-0.2403
2.141,-0.601,0.9582,-1.3816,1.4166,-0.6528,1.2903,-0.6654,0.943,-0.3893,1.1636,-1.0439,0.2035,-0.5367,2.0093,-0.2292
2.141,-0.601,0.9582,-1.3816,1.4166,-0.6528,1.2903,-0.6654,0.943,-0.3893,1.1636,-1.0439,0.2035,-0.5367,2.0093,-0.2292
2.0901,-0.583,0.9806,-1.4139,1.4364,-0.6503,1.3556,-0.6653,0.9692,-0.3799,1.1501,-1.0244,0.3328,-0.5408,2.0746,-0.218
2.0901,-0.583,0.9806,-1.4139,1.4364,-0.6503,1.3556,-0.6653,0.9692,-0.3799,1.1501,-1.0244,0.3328,-0.5408,2.0746,-0.218
2.0573,-0.591,1.0029,-1.4461,1.4252,-0.6653,1.3343,-0.6347,0.9259,-0.3646,1.1501,-1.0244,0.3888,-0.5606,2.0851,-0.2332
2.0573,-0.591,1.0029,-1.4461,1.4252,-0.6653,1.3343,-0.6347,0.9259,-0.3646,1.1501,-1.0244,0.3888,-0.5606,2.0851,-0.2332
2.0573,-0.591,1.1033,-1.4816,1.4141,-0.6802,1.2948,-0.6091,0.9692,-0.3799,1.1636,-1.0439,0.3328,-0.5408,2.0528,-0.2217
2.0573,-0.591,1.1033,-1.4816,1.4141,-0.6802,1.2948,-0.6091,0.9692,-0.3799,1.1636,-1.0439,0.3328,-0.5408,2.0528,-0.2217
2.0573,-0.591,1.1033,-1.4816,1.4141,-0.6802,1.2948,-0.6091,0.9692,-0.3799,1.1636,-1.0439,0.3328,-0.5408,2.0528,-0.2217
2.0246,-0.5989,1.0754,-1.496,1.3549,-0.6876,1.2585,-0.6194,0.9692,-0.3799,1.1403,-1.0504,0.3136,-0.5132,2.031,-0.2255
2.0246,-0.5989,1.0754,-1.496,1.3549,-0.6876,1.2585,-0.6194,0.9692,-0.3799,1.1403,-1.0504,0.3136,-0.5132,2.031,-0.2255
2.0901,-0.583,1.0586,-1.4171,1.3045,-0.7074,1.2116,-0.6144,0.952,-0.3551,1.0803,-1.0438,0.2035,-0.5367,2.0197,-0.2442
2.0901,-0.583,1.0586,-1.4171,1.3045,-0.7074,1.2116,-0.6144,0.952,-0.3551,1.0803,-1.0438,0.2035,-0.5367,2.0197,-0.2442
2.0901,-0.583,1.0586,-1.4171,1.3045,-0.7074,1.2116,-0.6144,0.952,-0.3551,1.0803,-1.0438,0.2035,-0.5367,2.0197,-0.2442
2.0901,-0.583,1.0586,-1.4171,1.3045,-0.7074,1.2116,-0.6144,0.952,-0.3551,1.0803,-1.0438,0.2035,-0.5367,2.0197,-0.2442
2.0393,-0.5651,1.0586,-1.4171,1.2935,-0.7222,1.2041,-0.6349,0.8655,-0.3245,1.0706,-1.0697,0.1305,-0.5523,1.9658,-0.2366
2.0393,-0.5651,1.0586,-1.4171,1.2935,-0.7222,1.2041,-0.6349,0.8655,-0.3245,1.0706,-1.0697,0.1305,-0.5523,1.9658,-0.2366
2.0066,-0.5731,1.081,-1.4494,1.2371,-0.7023,1.168,-0.6452,0.7879,-0.3532,1.1841,-1.1536,0.0407,-0.603,1.8586,-0.2214
2.0066,-0.5731,1.081,-1.4494,1.2371,-0.7023,1.168,-0.6452,0.7879,-0.3532,1.1841,-1.1536,0.0407,-0.603,1.8586,-0.2214
2.0066,-0.5731,1.081,-1.4494,1.2371,-0.7023,1.168,-0.6452,0.7879,-0.3532,1.1841,-1.1536,0.0407,-0.603,1.8586,-0.2214
2.0246,-0.5989,1.081,-1.4494,1.2198,-0.6775,1.1786,-0.6605,0.7879,-0.3532,1.2209,-1.1666,0.0218,-0.5757,1.869,-0.2364
2.0246,-0.5989,1.081,-1.4494,1.2198,-0.6775,1.1786,-0.6605,0.7879,-0.3532,1.2209,-1.1666,0.0218,-0.5757,1.869,-0.2364
2.0246,-0.5989,1.081,-1.4494,1.2198,-0.6775,1.1786,-0.6605,0.7879,-0.3532,1.2209,-1.1666,0.0218,-0.5757,1.869,-0.2364
2.126,-0.6347,1.0083,-1.3993,1.1917,-0.6675,1.1786,-0.6605,0.8137,-0.3436,1.1941,-1.1279,0.0029,-0.5485,1.8586,-0.2214
2.126,-0.6347,1.0083,-1.3993,1.1917,-0.6675,1.1786,-0.6605,0.8137,-0.3436,1.1941,-1.1279,0.0029,-0.5485,1.8586,-0.2214
2.126,-0.6347,1.0083,-1.3993,1.1917,-0.6675,1.2072,-0.6706,0.8567,-0.3588,1.1906,-1.0828,0.039,-0.5406,1.8801,-0.2177
2.126,-0.6347,1.0083,-1.3993,1.1917,-0.6675,1.2072,-0.6706,0.8567,-0.3588,1.1906,-1.0828,0.039,-0.5406,1.8801,-0.2177
2.126,-0.6347,1.0083,-1.3993,1.1917,-0.6675,1.2072,-0.6706,0.8567,-0.3588,1.1906,-1.0828,0.039,-0.5406,1.8801,-0.2177
2.126,-0.6347,1.0083,-1.3993,1.1917,-0.6675,1.2072,-0.6706,0.8567,-0.3588,1.1906,-1.0828,0.039,-0.5406,1.8801,-0.2177
2.0541,-0.5312,0.9859,-1.3669,1.2175,-0.7048,1.2465,-0.696,0.8567,-0.3588,1.117,-1.0568,0.1684,-0.607,1.8794,-0.2515
2.0541,-0.5312,0.9859,-1.3669,1.2175,-0.7048,1.2465,-0.696,0.8567,-0.3588,1.117,-1.0568,0.1684,-0.607,1.8794,-0.2515
1.8877,-0.5115,1.0029,-1.4461,1.0815,-0.7221,1.0961,-0.6658,0.8308,-0.3683,1.0938,-1.0632,0.1874,-0.6342,1.8364,-0.2589
1.8877,-0.5115,1.0029,-1.4461,1.0815,-0.7221,1.0961,-0.6658,0.8308,-0.3683,1.0938,-1.0632,0.1874,-0.6342,1.8364,-0.2589
1.8877,-0.5115,1.0029,-1.4461,1.0815,-0.7221,1.0961,-0.6658,0.8308,-0.3683,1.0938,-1.0632,0.1874,-0.6342,1.8364,-0.2589
1.8553,-0.5196,1.0754,-1.496,1.0235,-0.7295,1.0602,-0.6761,0.891,-0.4082,1.0706,-1.0697,0.1131,-0.5874,1.7831,-0.2514
1.8553,-0.5196,1.0754,-1.496,1.0235,-0.7295,1.0602,-0.6761,0.891,-0.4082,1.0706,-1.0697,0.1131,-0.5874,1.7831,-0.2514
1.8553,-0.5196,1.0754,-1.496,1.0235,-0.7295,1.0602,-0.6761,0.891,-0.4082,1.0706,-1.0697,0.1131,-0.5874,1.7831,-0.2514
1.8732,-0.5454,1.0029,-1.4461,0.9658,-0.737,0.9961,-0.6763,0.9341,-0.4235,1.0608,-1.0954,0.058,-0.5679,1.772,-0.2701
1.8587,-0.5792,1.0029,-1.4461,0.9083,-0.7444,0.9605,-0.6866,0.8739,-0.3836,1.0012,-1.089,0.0029,-0.5485,1.7928,-0.3
1.8587,-0.5792,1.0029,-1.4461,0.9083,-0.7444,0.9605,-0.6866,0.8739,-0.3836,1.0012,-1.089,0.0029,-0.5485,1.7928,-0.3
1.8765,-0.6049,0.903,-1.4108,0.8511,-0.752,0.9533,-0.7068,0.8827,-0.3493,1.0012,-1.089,-0.0521,-0.5291,1.7928,-0.3
1.8765,-0.6049,0.903,-1.4108,0.8511,-0.752,0.9533,-0.7068,0.8827,-0.3493,1.0012,-1.089,-0.0521,-0.5291,1.7928,-0.3
1.8765,-0.6049,0.903,-1.4108,0.8511,-0.752,0.9533,-0.7068,0.8827,-0.3493,1.0012,-1.089,-0.0521,-0.5291,1.7928,-0.3
1.8765,-0.6049,0.903,-1.4108,0.8511,-0.752,0.9533,-0.7068,0.8827,-0.3493,1.0012,-1.089,-0.0521,-0.5291,1.7928,-0.3
1.8765,-0.6049,0.8755,-1.4254,0.8004,-0.7985,0.872,-0.7123,0.7707,-0.3285,0.9915,-1.1147,-0.0861,-0.5992,1.6867,-0.285
1.8765,-0.6049,0.8755,-1.4254,0.8004,-0.7985,0.872,-0.7123,0.7707,-0.3285,0.9915,-1.1147,-0.0861,-0.5992,1.6867,-0.285
1.862,-0.6385,0.8206,-1.4545,0.689,-0.7867,0.8015,-0.7328,0.7193,-0.3476,0.9818,-1.1403,-0.1576,-0.6148,1.6025,-0.2665
1.862,-0.6385,0.8206,-1.4545,0.689,-0.7867,0.8015,-0.7328,0.7193,-0.3476,0.9818,-1.1403,-0.1576,-0.6148,1.6025,-0.2665
1.8797,-0.6641,0.8428,-1.4864,0.6055,-0.7846,0.7768,-0.758,0.6936,-0.3571,0.9685,-1.121,-0.2119,-0.5956,1.5602,-0.274
1.8797,-0.6641,0.8428,-1.4864,0.6055,-0.7846,0.7768,-0.758,0.6936,-0.3571,0.9685,-1.121,-0.2119,-0.5956,1.5602,-0.274
1.9121,-0.6562,0.8206,-1.4545,0.541,-0.7801,0.7314,-0.7532,0.6936,-0.3571,0.9552,-1.1018,-0.2119,-0.5956,1.5392,-0.2778
1.9121,-0.6562,0.8206,-1.4545,0.541,-0.7801,0.7314,-0.7532,0.6936,-0.3571,0.9552,-1.1018,-0.2119,-0.5956,1.5392,-0.2778
1.9121,-0.6562,0.8206,-1.4545,0.541,-0.7801,0.7314,-0.7532,0.6936,-0.3571,0.9552,-1.1018,-0.2119,-0.5956,1.5392,-0.2778
1.8943,-0.6306,0.7984,-1.4224,0.4665,-0.7903,0.7347,-0.7882,0.7193,-0.3476,0.9418,-1.0825,-0.2119,-0.5956,1.5495,-0.2926
1.8943,-0.6306,0.7984,-1.4224,0.4665,-0.7903,0.7347,-0.7882,0.7193,-0.3476,0.9418,-1.0825,-0.2119,-0.5956,1.5495,-0.2926
1.8943,-0.6306,0.7984,-1.4224,0.4665,-0.7903,0.7347,-0.7882,0.7193,-0.3476,0.9418,-1.0825,-0.2119,-0.5956,1.5495,-0.2926
1.7442,-0.5776,0.7438,-1.4515,0.3538,-0.8321,0.6096,-0.7889,0.6765,-0.3325,0.9188,-1.089,-0.1389,-0.6418,1.4966,-0.3186
1.7442,-0.5776,0.7438,-1.4515,0.3538,-0.8321,0.6096,-0.7889,0.6765,-0.3325,0.9188,-1.089,-0.1389,-0.6418,1.4966,-0.3186
1.6625,-0.568,0.7438,-1.4515,0.3069,-0.8517,0.5475,-0.7894,0.6936,-0.3571,0.9093,-1.1146,-0.1389,-0.6418,1.4859,-0.3371
1.6625,-0.568,0.7438,-1.4515,0.3069,-0.8517,0.5475,-0.7894,0.6936,-0.3571,0.9093,-1.1146,-0.1389,-0.6418,1.4859,-0.3371
1.6483,-0.6016,0.7933,-1.4689,0.252,-0.8593,0.4856,-0.7898,0.668,-0.3666,0.8502,-1.1083,-0.2474,-0.6034,1.4338,-0.3298
1.666,-0.6271,0.7216,-1.4195,0.2054,-0.8789,0.4239,-0.7904,0.7107,-0.3817,0.8502,-1.1083,-0.2828,-0.6113,1.4542,-0.3593
1.666,-0.6271,0.7216,-1.4195,0.2054,-0.8789,0.4239,-0.7904,0.7107,-0.3817,0.8502,-1.1083,-0.2828,-0.6113,1.4542,-0.3593
1.6341,-0.6351,0.7216,-1.4195,0.1773,-0.8958,0.3897,-0.8006,0.668,-0.3666,0.8141,-1.0955,-0.3181,-0.6191,1.4333,-0.363
1.6341,-0.6351,0.7216,-1.4195,0.1773,-0.8958,0.3897,-0.8006,0.668,-0.3666,0.8141,-1.0955,-0.3181,-0.6191,1.4333,-0.363
1.6341,-0.6351,0.7216,-1.4195,0.1773,-0.8958,0.3897,-0.8006,0.668,-0.3666,0.8141,-1.0955,-0.3181,-0.6191,1.4333,-0.363
1.6837,-0.6526,0.7216,-1.4195,0.1673,-0.9102,0.3829,-0.8204,0.5999,-0.3611,0.7687,-1.1084,-0.3348,-0.6538,1.3916,-0.3704
1.6837,-0.6526,0.7216,-1.4195,0.1673,-0.9102,0.3829,-0.8204,0.5999,-0.3611,0.7687,-1.1084,-0.3348,-0.6538,1.3916,-0.3704
1.6518,-0.6605,0.6723,-1.4021,0.1047,-0.9059,0.3488,-0.8306,0.5491,-0.3802,0.7233,-1.1213,-0.4236,-0.6426,1.309,-0.3523
1.6518,-0.6605,0.6453,-1.4167,0.0162,-0.8925,0.2877,-0.8312,0.4815,-0.3748,0.714,-1.1468,-0.5119,-0.6316,1.2061,-0.3381
1.6518,-0.6605,0.6453,-1.4167,0.0162,-0.8925,0.2877,-0.8312,0.4815,-0.3748,0.714,-1.1468,-0.5119,-0.6316,1.2061,-0.3381
1.6518,-0.6605,0.6453,-1.4167,0.0162,-0.8925,0.2877,-0.8312,0.4815,-0.3748,0.714,-1.1468,-0.5119,-0.6316,1.2061,-0.3381
1.7013,-0.678,0.6183,-1.4312,-0.0377,-0.9002,0.2269,-0.8318,0.4563,-0.3843,0.714,-1.1468,-0.5467,-0.6395,1.165,-0.3456
1.7013,-0.678,0.6183,-1.4312,-0.0377,-0.9002,0.2269,-0.8318,0.4563,-0.3843,0.714,-1.1468,-0.5467,-0.6395,1.165,-0.3456
1.7509,-0.6956,0.6404,-1.4631,-0.0996,-0.8961,0.1932,-0.842,0.4563,-0.3843,0.6782,-1.1341,-0.5467,-0.6395,1.1344,-0.3348
1.7509,-0.6956,0.6404,-1.4631,-0.0996,-0.8961,0.1932,-0.842,0.4563,-0.3843,0.6782,-1.1341,-0.5467,-0.6395,1.1344,-0.3348
1.7509,-0.6956,0.5913,-1.4458,-0.1093,-0.9105,0.2135,-0.8712,0.4563,-0.3843,0.6292,-1.1024,-0.5814,-0.6474,1.1546,-0.364
1.7509,-0.6956,0.5913,-1.4458,-0.1093,-0.9105,0.2135,-0.8712,0.4563,-0.3843,0.6292,-1.1024,-0.5814,-0.6474,1.1546,-0.364
1.7156,-0.6447,0.6183,-1.4312,-0.0296,-0.912,0.237,-0.8465,0.4563,-0.3843,0.6292,-1.1024,-0.5282,-0.6661,1.1751,-0.3602
1.7156,-0.6447,0.6674,-1.4486,0.1146,-0.8916,0.3047,-0.8261,0.4646,-0.3503,0.6742,-1.0895,-0.3514,-0.6883,1.2575,-0.3452
1.7156,-0.6447,0.6674,-1.4486,0.1146,-0.8916,0.3047,-0.8261,0.4646,-0.3503,0.6742,-1.0895,-0.3514,-0.6883,1.2575,-0.3452
1.666,-0.6271,0.6895,-1.4805,0.3069,-0.8517,0.3692,-0.7711,0.5321,-0.3557,0.7194,-1.0765,-0.2455,-0.6651,1.3611,-0.3264
1.666,-0.6271,0.6895,-1.4805,0.3069,-0.8517,0.3692,-0.7711,0.5321,-0.3557,0.7194,-1.0765,-0.2455,-0.6651,1.3611,-0.3264
1.666,-0.6271,0.6895,-1.4805,0.3069,-0.8517,0.3692,-0.7711,0.5321,-0.3557,0.7194,-1.0765,-0.2455,-0.6651,1.3611,-0.3264
1.6979,-0.6191,0.8375,-1.5327,0.5391,-0.8068,0.5063,-0.73,0.5829,-0.3366,0.8236,-1.0698,-0.1032,-0.634,1.5074,-0.3001
1.6979,-0.6191,0.8375,-1.5327,0.5391,-0.8068,0.5063,-0.73,0.5829,-0.3366,0.8236,-1.0698,-0.1032,-0.634,1.5074,-0.3001
1.6979,-0.6191,0.8375,-1.5327,0.5391,-0.8068,0.5063,-0.73,0.5829,-0.3366,0.8236,-1.0698,-0.1032,-0.634,1.5074,-0.3001
1.6979,-0.6191,0.8375,-1.5327,0.5391,-0.8068,0.5063,-0.73,0.5829,-0.3366,0.8236,-1.0698,-0.1032,-0.634,1.5074,-0.3001
1.862,-0.6385,0.92,-1.4896,1.0043,-0.732,0.8406,-0.667,0.7879,-0.3532,0.9878,-1.0697,0.001,-0.4859,1.73,-0.2439
1.862,-0.6385,0.92,-1.4896,1.0043,-0.732,0.8406,-0.667,0.7879,-0.3532,0.9878,-1.0697,0.001,-0.4859,1.73,-0.2439
1.862,-0.6385,0.92,-1.4896,1.0043,-0.732,0.8406,-0.667,0.7879,-0.3532,0.9878,-1.0697,0.001,-0.4859,1.73,-0.2439
1.9268,-0.6227,0.9476,-1.4751,1.198,-0.7072,1.0034,-0.656,0.8567,-0.3588,1.034,-1.0567,0.0734,-0.47,1.8475,-0.2402
1.9268,-0.6227,0.9476,-1.4751,1.198,-0.7072,1.0034,-0.656,0.8567,-0.3588,1.034,-1.0567,0.0734,-0.47,1.8475,-0.2402
1.9414,-0.589,0.9752,-1.4606,1.3722,-0.7125,1.15,-0.6504,0.8396,-0.3341,1.0706,-1.0697,0.0734,-0.47,1.9226,-0.244
1.974,-0.581,0.9806,-1.4139,1.4711,-0.7004,1.2509,-0.6399,0.8396,-0.3341,1.1072,-1.0826,0.1115,-0.5249,1.9337,-0.2253
1.974,-0.581,0.9806,-1.4139,1.4711,-0.7004,1.2509,-0.6399,0.8396,-0.3341,1.1072,-1.0826,0.1115,-0.5249,1.9337,-0.2253
1.9561,-0.5552,1.0307,-1.4316,1.5022,-0.683,1.2766,-0.6143,0.8396,-0.3341,1.1672,-1.0892,0.1115,-0.5249,1.9449,-0.2064
1.9561,-0.5552,1.0307,-1.4316,1.5022,-0.683,1.2766,-0.6143,0.8396,-0.3341,1.1672,-1.0892,0.1115,-0.5249,1.9449,-0.2064
2.0246,-0.5989,0.9582,-1.3816,1.4935,-0.6705,1.2948,-0.6091,0.8567,-0.3588,1.1538,-1.0698,0.1115,-0.5249,1.9128,-0.1951
2.0066,-0.5731,0.9859,-1.3669,1.4562,-0.6478,1.3419,-0.6141,0.8567,-0.3588,1.1268,-1.0309,0.0752,-0.5328,1.9128,-0.1951
2.0066,-0.5731,0.9859,-1.3669,1.4562,-0.6478,1.3419,-0.6141,0.8567,-0.3588,1.1268,-1.0309,0.0752,-0.5328,1.9128,-0.1951
2.0393,-0.5651,0.9859,-1.3669,1.4166,-0.6528,1.3815,-0.6397,0.8567,-0.3588,1.1501,-1.0244,0.1115,-0.5249,1.9128,-0.1951
2.0393,-0.5651,0.9859,-1.3669,1.4166,-0.6528,1.3815,-0.6397,0.8567,-0.3588,1.1501,-1.0244,0.1115,-0.5249,1.9128,-0.1951
2.0393,-0.5651,0.9859,-1.3669,1.4166,-0.6528,1.3815,-0.6397,0.8567,-0.3588,1.1501,-1.0244,0.1115,-0.5249,1.9128,-0.1951
1.9887,-0.5472,0.9806,-1.4139,1.3573,-0.6601,1.3845,-0.6755,0.8567,-0.3588,1.1501,-1.0244,0.186,-0.5719,1.9233,-0.2102
1.9887,-0.5472,0.9806,-1.4139,1.3573,-0.6601,1.3845,-0.6755,0.8567,-0.3588,1.1501,-1.0244,0.186,-0.5719,1.9233,-0.2102
1.9887,-0.5472,0.9806,-1.4139,1.3573,-0.6601,1.3845,-0.6755,0.8567,-0.3588,1.1501,-1.0244,0.186,-0.5719,1.9233,-0.2102
2.0066,-0.5731,0.9306,-1.3962,1.3265,-0.6776,1.3267,-0.6551,0.8308,-0.3683,1.0901,-1.0179,0.2415,-0.5915,1.9017,-0.2139
2.0066,-0.5731,0.9306,-1.3962,1.3265,-0.6776,1.3267,-0.6551,0.8308,-0.3683,1.0901,-1.0179,0.2415,-0.5915,1.9017,-0.2139
2.0066,-0.5731,0.9306,-1.3962,1.3265,-0.6776,1.3267,-0.6551,0.8308,-0.3683,1.0901,-1.0179,0.2415,-0.5915,1.9017,-0.2139
1.8911,-0.5712,0.9752,-1.4606,1.2394,-0.675,1.2509,-0.6399,0.8999,-0.3741,1.117,-1.0568,0.167,-0.5445,1.8801,-0.2177
1.8911,-0.5712,0.9752,-1.4606,1.2394,-0.675,1.2509,-0.6399,0.8999,-0.3741,1.117,-1.0568,0.167,-0.5445,1.8801,-0.2177
1.9593,-0.6147,0.9529,-1.4285,1.2198,-0.6775,1.2328,-0.645,0.9259,-0.3646,1.117,-1.0568,0.1479,-0.517,1.8801,-0.2177
1.9593,-0.6147,0.9529,-1.4285,1.2198,-0.6775,1.2328,-0.645,0.9259,-0.3646,1.117,-1.0568,0.1479,-0.517,1.8801,-0.2177
1.9593,-0.6147,0.9529,-1.4285,1.2198,-0.6775,1.2328,-0.645,0.9259,-0.3646,1.117,-1.0568,0.1479,-0.517,1.8801,-0.2177
1.9268,-0.6227,0.9529,-1.4285,1.2198,-0.6775,1.2434,-0.6603,0.9348,-0.3303,1.1403,-1.0504,0.1479,-0.517,1.9763,-0.2517
1.9268,-0.6227,0.9529,-1.4285,1.2198,-0.6775,1.2434,-0.6603,0.9348,-0.3303,1.1403,-1.0504,0.1479,-0.517,1.9763,-0.2517
1.9593,-0.6147,0.9306,-1.3962,1.2676,-0.6849,1.2616,-0.6552,0.8742,-0.2901,1.1403,-1.0504,0.1479,-0.517,1.998,-0.248
1.9593,-0.6147,0.9306,-1.3962,1.2676,-0.6849,1.2616,-0.6552,0.8742,-0.2901,1.1403,-1.0504,0.1479,-0.517,1.998,-0.248
1.9593,-0.6147,0.8806,-1.3786,1.3045,-0.7074,1.2328,-0.645,0.831,-0.2748,1.1305,-1.0762,0.1115,-0.5249,1.9658,-0.2366
1.9593,-0.6147,0.8806,-1.3786,1.3045,-0.7074,1.2328,-0.645,0.831,-0.2748,1.1305,-1.0762,0.1115,-0.5249,1.9658,-0.2366
1.9593,-0.6147,0.8532,-1.3932,1.2935,-0.7222,1.2147,-0.6502,0.7621,-0.2693,1.1573,-1.1149,0.039,-0.5406,1.9337,-0.2253
1.9593,-0.6147,0.8532,-1.3932,1.2935,-0.7222,1.2147,-0.6502,0.7621,-0.2693,1.1573,-1.1149,0.039,-0.5406,1.9337,-0.2253
1.9593,-0.6147,0.8532,-1.3932,1.2935,-0.7222,1.2147,-0.6502,0.7621,-0.2693,1.1573,-1.1149,0.039,-0.5406,1.9337,-0.2253
2.0603,-0.6504,0.9529,-1.4285,1.2089,-0.6924,1.1605,-0.6656,0.8396,-0.3341,1.1708,-1.1343,0.0029,-0.5485,1.8586,-0.2214
2.0603,-0.6504,0.9529,-1.4285,1.2089,-0.6924,1.1605,-0.6656,0.8396,-0.3341,1.1708,-1.1343,0.0029,-0.5485,1.8586,-0.2214
2.1617,-0.6863,1.0029,-1.4461,1.1139,-0.6775,1.1246,-0.6759,0.8396,-0.3341,1.1573,-1.1149,-0.0161,-0.5212,1.837,-0.2252
2.1109,-0.6683,0.9253,-1.443,1.0364,-0.6875,1.1097,-0.7164,0.8137,-0.3436,1.0938,-1.0632,-0.071,-0.5018,1.826,-0.2439
2.1109,-0.6683,0.9253,-1.443,1.0364,-0.6875,1.1097,-0.7164,0.8137,-0.3436,1.0938,-1.0632,-0.071,-0.5018,1.826,-0.2439
2.1109,-0.6683,0.9253,-1.443,1.0364,-0.6875,1.1097,-0.7164,0.8137,-0.3436,1.0938,-1.0632,-0.071,-0.5018,1.826,-0.2439
2.0424,-0.6247,0.903,-1.4108,0.9786,-0.695,1.1022,-0.7367,0.8396,-0.3341,1.0803,-1.0438,-0.071,-0.5018,1.8149,-0.2626
2.0424,-0.6247,0.903,-1.4108,0.9786,-0.695,1.1022,-0.7367,0.8396,-0.3341,1.0803,-1.0438,-0.071,-0.5018,1.8149,-0.2626
2.0424,-0.6247,0.903,-1.4108,0.9786,-0.695,1.1022,-0.7367,0.8396,-0.3341,1.0803,-1.0438,-0.071,-0.5018,1.8149,-0.2626
1.974,-0.581,0.8532,-1.3932,0.9296,-0.7149,1.0664,-0.7468,0.8224,-0.3093,1.0669,-1.0244,0.039,-0.5406,1.7935,-0.2664
1.974,-0.581,0.8532,-1.3932,0.9296,-0.7149,1.0664,-0.7468,0.8224,-0.3093,1.0669,-1.0244,0.039,-0.5406,1.7935,-0.2664
1.8732,-0.5454,0.8977,-1.4575,0.8426,-0.7397,1.0129,-0.762,0.8224,-0.3093,1.0803,-1.0438,0.0942,-0.5601,1.7935,-0.2664
1.8732,-0.5454,0.8977,-1.4575,0.8426,-0.7397,1.0129,-0.762,0.8224,-0.3093,1.0803,-1.0438,0.0942,-0.5601,1.7935,-0.2664
1.8086,-0.5615,0.8702,-1.472,0.7751,-0.762,0.9209,-0.7523,0.7965,-0.3189,1.0938,-1.0632,0.0942,-0.5601,1.7507,-0.2738
1.8086,-0.5615,0.8702,-1.472,0.7751,-0.762,0.9209,-0.7523,0.7965,-0.3189,1.0938,-1.0632,0.0942,-0.5601,1.7507,-0.2738
1.6944,-0.56,0.8428,-1.4864,0.7079,-0.7842,0.8399,-0.7576,0.7965,-0.3189,1.0706,-1.0697,0.039,-0.5406,1.6977,-0.2664
1.6625,-0.568,0.8206,-1.4545,0.6242,-0.7821,0.7768,-0.758,0.8567,-0.3588,0.9975,-1.0438,-0.0161,-0.5212,1.6867,-0.285
1.6625,-0.568,0.7984,-1.4224,0.5951,-0.7993,0.7314,-0.7532,0.7879,-0.3532,0.9514,-1.0568,-0.088,-0.537,1.6758,-0.3036
1.6625,-0.568,0.7984,-1.4224,0.5951,-0.7993,0.7314,-0.7532,0.7879,-0.3532,0.9514,-1.0568,-0.088,-0.537,1.6758,-0.3036
1.6625,-0.568,0.7984,-1.4224,0.5951,-0.7993,0.7314,-0.7532,0.7879,-0.3532,0.9514,-1.0568,-0.088,-0.537,1.6758,-0.3036
1.6802,-0.5936,0.7761,-1.3903,0.5848,-0.8139,0.714,-0.7583,0.7707,-0.3285,0.9055,-1.0697,-0.1238,-0.5449,1.6964,-0.3333
1.6802,-0.5936,0.7761,-1.3903,0.5848,-0.8139,0.714,-0.7583,0.7707,-0.3285,0.9055,-1.0697,-0.1238,-0.5449,1.6964,-0.3333
1.7299,-0.6112,0.7488,-1.4049,0.5642,-0.843,0.6894,-0.7834,0.7107,-0.2886,0.8826,-1.0762,-0.1049,-0.572,1.6752,-0.337
1.7299,-0.6112,0.7488,-1.4049,0.5642,-0.843,0.6894,-0.7834,0.7107,-0.2886,0.8826,-1.0762,-0.1049,-0.572,1.6752,-0.337
1.7299,-0.6112,0.7488,-1.4049,0.5642,-0.843,0.6894,-0.7834,0.7107,-0.2886,0.8826,-1.0762,-0.1049,-0.572,1.6752,-0.337
1.7299,-0.6112,0.6994,-1.3874,0.5352,-0.86,0.6546,-0.7936,0.6423,-0.2831,0.8369,-1.0891,-0.1576,-0.6148,1.5808,-0.3037
1.7299,-0.6112,0.6994,-1.3874,0.5352,-0.86,0.6546,-0.7936,0.6423,-0.2831,0.8369,-1.0891,-0.1576,-0.6148,1.5808,-0.3037
1.7477,-0.6367,0.6945,-1.4341,0.4073,-0.851,0.5578,-0.8042,0.5405,-0.3216,0.8046,-1.1211,-0.372,-0.6001,1.424,-0.2818
1.7477,-0.6367,0.6945,-1.4341,0.4073,-0.851,0.5578,-0.8042,0.5405,-0.3216,0.8046,-1.1211,-0.372,-0.6001,1.424,-0.2818
1.7477,-0.6367,0.6945,-1.4341,0.4073,-0.851,0.5578,-0.8042,0.5405,-0.3216,0.8046,-1.1211,-0.372,-0.6001,1.424,-0.2818
1.8152,-0.6798,0.7166,-1.466,0.317,-0.8372,0.5508,-0.8241,0.5321,-0.3557,0.8046,-1.1211,-0.4071,-0.608,1.372,-0.2746
1.8152,-0.6798,0.7166,-1.466,0.317,-0.8372,0.5508,-0.8241,0.5321,-0.3557,0.8046,-1.1211,-0.4071,-0.608,1.372,-0.2746
1.8152,-0.6798,0.7166,-1.466,0.317,-0.8372,0.5508,-0.8241,0.5321,-0.3557,0.8046,-1.1211,-0.4071,-0.608,1.372,-0.2746
1.8474,-0.672,0.6945,-1.4341,0.2803,-0.8423,0.561,-0.8388,0.5068,-0.3652,0.7819,-1.1275,-0.4607,-0.589,1.3717,-0.3079
1.8474,-0.672,0.6945,-1.4341,0.2803,-0.8423,0.561,-0.8388,0.5068,-0.3652,0.7819,-1.1275,-0.4607,-0.589,1.3717,-0.3079
1.8474,-0.672,0.6945,-1.4341,0.2803,-0.8423,0.561,-0.8388,0.5068,-0.3652,0.7819,-1.1275,-0.4607,-0.589,1.3717,-0.3079
1.7299,-0.6112,0.6945,-1.4341,0.1526,-0.8602,0.4717,-0.8296,0.5238,-0.3897,0.746,-1.1148,-0.4421,-0.6159,1.3403,-0.3301
1.7299,-0.6112,0.6945,-1.4341,0.1526,-0.8602,0.4717,-0.8296,0.5238,-0.3897,0.746,-1.1148,-0.4421,-0.6159,1.3403,-0.3301
1.7299,-0.6112,0.6945,-1.4341,0.1526,-0.8602,0.4717,-0.8296,0.5238,-0.3897,0.746,-1.1148,-0.4421,-0.6159,1.3403,-0.3301
1.6802,-0.5936,0.766,-1.4834,0.0719,-0.8586,0.4272,-0.825,0.5238,-0.3897,0.746,-1.1148,-0.4421,-0.6159,1.2785,-0.3083
1.6802,-0.5936,0.766,-1.4834,0.0719,-0.8586,0.4272,-0.825,0.5238,-0.3897,0.746,-1.1148,-0.4421,-0.6159,1.2785,-0.3083
1.6802,-0.5936,0.766,-1.4834,0.0719,-0.8586,0.4272,-0.825,0.5238,-0.3897,0.746,-1.1148,-0.4421,-0.6159,1.2785,-0.3083
1.666,-0.6271,0.6723,-1.4021,-0.0198,-0.8976,0.3047,-0.8261,0.5915,-0.3952,0.714,-1.1468,-0.5837,-0.586,1.2061,-0.3381
1.666,-0.6271,0.6723,-1.4021,-0.0198,-0.8976,0.3047,-0.8261,0.5915,-0.3952,0.714,-1.1468,-0.5837,-0.586,1.2061,-0.3381
1.666,-0.6271,0.6723,-1.4021,-0.0198,-0.8976,0.3047,-0.8261,0.5915,-0.3952,0.714,-1.1468,-0.5837,-0.586,1.2061,-0.3381
1.6165,-0.6096,0.6231,-1.3847,-0.0735,-0.9053,0.2539,-0.8414,0.5745,-0.3707,0.7007,-1.1277,-0.6023,-0.5593,1.247,-0.3635
1.6165,-0.6096,0.6231,-1.3847,-0.0735,-0.9053,0.2539,-0.8414,0.5745,-0.3707,0.7007,-1.1277,-0.6023,-0.5593,1.247,-0.3635
1.6165,-0.6096,0.6231,-1.3847,-0.0735,-0.9053,0.2539,-0.8414,0.5745,-0.3707,0.7007,-1.1277,-0.6023,-0.5593,1.247,-0.3635
1.567,-0.5922,0.6231,-1.3847,-0.1108,-0.9365,0.1865,-0.8617,0.4898,-0.3407,0.6688,-1.1596,-0.6873,-0.6099,1.1546,-0.364
1.567,-0.5922,0.6231,-1.3847,-0.1108,-0.9365,0.1865,-0.8617,0.4898,-0.3407,0.6688,-1.1596,-0.6873,-0.6099,1.1546,-0.364
1.5177,-0.5747,0.5961,-1.3993,-0.0848,-0.9457,0.1697,-0.8668,0.3973,-0.345,0.6463,-1.166,-0.7376,-0.6523,1.0527,-0.35
1.5177,-0.5747,0.5961,-1.3993,-0.0848,-0.9457,0.1697,-0.8668,0.3973,-0.345,0.6463,-1.166,-0.7376,-0.6523,1.0527,-0.35
1.553,-0.6256,0.5913,-1.4458,-0.0654,-0.9171,0.1596,-0.8522,0.3472,-0.3642,0.682,-1.1786,-0.7376,-0.6523,1.0426,-0.3354
1.553,-0.6256,0.5913,-1.4458,-0.0654,-0.9171,0.1596,-0.8522,0.3472,-0.3642,0.682,-1.1786,-0.7376,-0.6523,1.0426,-0.3354
1.6199,-0.6685,0.6134,-1.4776,0.0883,-0.8823,0.21,-0.8369,0.3891,-0.379,0.714,-1.1468,-0.6159,-0.6552,1.1038,-0.324
1.6199,-0.6685,0.6134,-1.4776,0.0883,-0.8823,0.21,-0.8369,0.3891,-0.379,0.714,-1.1468,-0.6159,-0.6552,1.1038,-0.324
1.7333,-0.6701,0.6895,-1.4805,0.3538,-0.8321,0.3999,-0.8153,0.4815,-0.3748,0.8046,-1.1211,-0.4771,-0.6237,1.2578,-0.3121
1.7333,-0.6701,0.6895,-1.4805,0.3538,-0.8321,0.3999,-0.8153,0.4815,-0.3748,0.8046,-1.1211,-0.4771,-0.6237,1.2578,-0.3121
1.7477,-0.6367,0.6895,-1.4805,0.6055,-0.7846,0.582,-0.7792,0.5491,-0.3802,0.8236,-1.0698,-0.2642,-0.6382,1.3823,-0.2894
1.7477,-0.6367,0.6895,-1.4805,0.6055,-0.7846,0.582,-0.7792,0.5491,-0.3802,0.8236,-1.0698,-0.2642,-0.6382,1.3823,-0.2894
1.7477,-0.6367,0.6895,-1.4805,0.6055,-0.7846,0.582,-0.7792,0.5491,-0.3802,0.8236,-1.0698,-0.2642,-0.6382,1.3823,-0.2894
1.7299,-0.6112,0.6895,-1.4805,0.8236,-0.7422,0.7489,-0.7481,0.5999,-0.3611,0.9055,-1.0697,-0.0673,-0.6263,1.5392,-0.2778
1.7299,-0.6112,0.6895,-1.4805,0.8236,-0.7422,0.7489,-0.7481,0.5999,-0.3611,0.9055,-1.0697,-0.0673,-0.6263,1.5392,-0.2778
1.7299,-0.6112,0.6895,-1.4805,0.8236,-0.7422,0.7489,-0.7481,0.5999,-0.3611,0.9055,-1.0697,-0.0673,-0.6263,1.5392,-0.2778
1.7122,-0.5856,0.7881,-1.5153,1.1419,-0.6874,1.014,-0.6712,0.745,-0.338,1.0571,-1.0503,0.0925,-0.4975,1.7941,-0.2327
1.7122,-0.5856,0.7881,-1.5153,1.1419,-0.6874,1.014,-0.6712,0.745,-0.338,1.0571,-1.0503,0.0925,-0.4975,1.7941,-0.2327
1.7122,-0.5856,0.7881,-1.5153,1.1419,-0.6874,1.014,-0.6712,0.745,-0.338,1.0571,-1.0503,0.0925,-0.4975,1.7941,-0.2327
1.7442,-0.5776,0.8154,-1.5009,1.2308,-0.6625,1.1034,-0.6454,0.8567,-0.3588,1.0803,-1.0438,0.1098,-0.462,1.869,-0.2364
1.7442,-0.5776,0.8154,-1.5009,1.2308,-0.6625,1.1034,-0.6454,0.8567,-0.3588,1.0803,-1.0438,0.1098,-0.462,1.869,-0.2364
1.7442,-0.5776,0.8154,-1.5009,1.2308,-0.6625,1.1034,-0.6454,0.8567,-0.3588,1.0803,-1.0438,0.1098,-0.462,1.869,-0.2364
1.8765,-0.6049,0.7984,-1.4224,1.3486,-0.6476,1.2691,-0.6348,0.8915,-0.315,1.1636,-1.0439,0.1462,-0.454,2.052,-0.2556
1.8765,-0.6049,0.7984,-1.4224,1.3486,-0.6476,1.2691,-0.6348,0.8915,-0.315,1.1636,-1.0439,0.1462,-0.454,2.052,-0.2556
1.9414,-0.589,0.8257,-1.4078,1.3968,-0.6552,1.3055,-0.6245,0.857,-0.2652,1.1501,-1.0244,0.1462,-0.454,2.0738,-0.252
1.9414,-0.589,0.8257,-1.4078,1.3968,-0.6552,1.3055,-0.6245,0.857,-0.2652,1.1501,-1.0244,0.1462,-0.454,2.0738,-0.252
1.8911,-0.5712,0.7761,-1.3903,1.4054,-0.6677,1.3055,-0.6245,0.8397,-0.2403,1.1636,-1.0439,0.1653,-0.4816,2.0633,-0.2369
1.8911,-0.5712,0.7761,-1.3903,1.4054,-0.6677,1.3055,-0.6245,0.8397,-0.2403,1.1636,-1.0439,0.1653,-0.4816,2.0633,-0.2369
1.9236,-0.5632,0.8532,-1.3932,1.4054,-0.6677,1.3237,-0.6193,0.7707,-0.2347,1.1771,-1.0634,0.1479,-0.517,1.9988,-0.2141
1.9236,-0.5632,0.8532,-1.3932,1.4054,-0.6677,1.3237,-0.6193,0.7707,-0.2347,1.1771,-1.0634,0.1479,-0.517,1.9988,-0.2141
1.9236,-0.5632,0.8532,-1.3932,1.4054,-0.6677,1.3237,-0.6193,0.7707,-0.2347,1.1771,-1.0634,0.1479,-0.517,1.9988,-0.2141
1.974,-0.581,0.8755,-1.4254,1.3659,-0.6726,1.2873,-0.6296,0.831,-0.2748,1.2274,-1.0958,0.1479,-0.517,1.9666,-0.2027
1.974,-0.581,0.8755,-1.4254,1.3659,-0.6726,1.2873,-0.6296,0.831,-0.2748,1.2274,-1.0958,0.1479,-0.517,1.9666,-0.2027
1.974,-0.581,0.8755,-1.4254,1.3659,-0.6726,1.2873,-0.6296,0.831,-0.2748,1.2274,-1.0958,0.1479,-0.517,1.9666,-0.2027
2.0573,-0.591,0.903,-1.4108,1.2982,-0.6676,1.3085,-0.6602,0.8052,-0.2845,1.1771,-1.0634,0.0562,-0.5054,1.9128,-0.1951
2.0573,-0.591,0.903,-1.4108,1.2982,-0.6676,1.3085,-0.6602,0.8052,-0.2845,1.1771,-1.0634,0.0562,-0.5054,1.9128,-0.1951
1.9561,-0.5552,0.848,-1.4399,1.2676,-0.6849,1.2722,-0.6705,0.831,-0.2748,1.2005,-1.0569,0.1479,-0.517,1.9128,-0.1951
1.9561,-0.5552,0.848,-1.4399,1.2676,-0.6849,1.2722,-0.6705,0.831,-0.2748,1.2005,-1.0569,0.1479,-0.517,1.9128,-0.1951
1.9056,-0.5374,0.92,-1.4896,1.2285,-0.6899,1.2253,-0.6654,0.857,-0.2652,1.187,-1.0375,0.2401,-0.5288,1.9449,-0.2064
1.8409,-0.5535,0.9422,-1.5216,1.2089,-0.6924,1.1892,-0.6757,0.857,-0.2652,1.187,-1.0375,0.221,-0.5013,1.9449,-0.2064
1.8409,-0.5535,0.9422,-1.5216,1.2089,-0.6924,1.1892,-0.6757,0.857,-0.2652,1.187,-1.0375,0.221,-0.5013,1.9449,-0.2064
1.8086,-0.5615,0.9422,-1.5216,1.1894,-0.6948,1.1711,-0.6808,0.9436,-0.2958,1.2104,-1.031,0.2385,-0.4658,1.9666,-0.2027
1.8086,-0.5615,0.9422,-1.5216,1.1894,-0.6948,1.1711,-0.6808,0.9436,-0.2958,1.2104,-1.031,0.2385,-0.4658,1.9666,-0.2027
1.8086,-0.5615,0.9422,-1.5216,1.1894,-0.6948,1.1711,-0.6808,0.9436,-0.2958,1.2104,-1.031,0.2385,-0.4658,1.9666,-0.2027
1.8086,-0.5615,0.8702,-1.472,1.1699,-0.6973,1.1531,-0.6859,0.9436,-0.2958,1.1735,-1.018,0.2385,-0.4658,1.9666,-0.2027
1.8086,-0.5615,0.8702,-1.472,1.1699,-0.6973,1.1531,-0.6859,0.9436,-0.2958,1.1735,-1.018,0.2385,-0.4658,1.9666,-0.2027
1.8587,-0.5792,0.8755,-1.4254,1.198,-0.7072,1.1922,-0.7112,0.9263,-0.2709,1.1366,-1.0049,0.2385,-0.4658,1.9771,-0.2178
1.8587,-0.5792,0.848,-1.4399,1.2152,-0.732,1.1847,-0.7315,0.857,-0.2652,1.1268,-1.0309,0.221,-0.5013,1.9554,-0.2215
1.8587,-0.5792,0.848,-1.4399,1.2152,-0.732,1.1847,-0.7315,0.857,-0.2652,1.1268,-1.0309,0.221,-0.5013,1.9554,-0.2215
1.8264,-0.5872,0.7711,-1.4369,1.1762,-0.7369,1.1202,-0.7316,0.8052,-0.2845,1.117,-1.0568,0.1479,-0.517,1.8801,-0.2177
1.8264,-0.5872,0.7711,-1.4369,1.1762,-0.7369,1.1202,-0.7316,0.8052,-0.2845,1.117,-1.0568,0.1479,-0.517,1.8801,-0.2177
1.8264,-0.5872,0.7711,-1.4369,1.1762,-0.7369,1.1202,-0.7316,0.8052,-0.2845,1.117,-1.0568,0.1479,-0.517,1.8801,-0.2177
1.909,-0.597,0.7984,-1.4224,1.1202,-0.7171,1.1022,-0.7367,0.7364,-0.2789,1.0938,-1.0632,0.0752,-0.5328,1.8162,-0.1951
1.909,-0.597,0.7984,-1.4224,1.1202,-0.7171,1.1022,-0.7367,0.7364,-0.2789,1.0938,-1.0632,0.0752,-0.5328,1.8162,-0.1951
1.9771,-0.6405,0.7984,-1.4224,1.0536,-0.7122,1.0948,-0.7568,0.7536,-0.3037,1.0938,-1.0632,0.02,-0.5133,1.8051,-0.2139
1.9593,-0.6147,0.8206,-1.4545,0.968,-0.7099,1.0873,-0.777,0.7278,-0.3133,1.0571,-1.0503,-0.0161,-0.5212,1.826,-0.2439
1.9593,-0.6147,0.8206,-1.4545,0.968,-0.7099,1.0873,-0.777,0.7278,-0.3133,1.0571,-1.0503,-0.0161,-0.5212,1.826,-0.2439
1.9593,-0.6147,0.8206,-1.4545,0.968,-0.7099,1.0873,-0.777,0.7278,-0.3133,1.0571,-1.0503,-0.0161,-0.5212,1.826,-0.2439
1.9919,-0.6068,0.8206,-1.4545,0.9105,-0.7174,1.0978,-0.792,0.7536,-0.3037,1.0571,-1.0503,-0.071,-0.5018,1.7941,-0.2327
1.9919,-0.6068,0.8206,-1.4545,0.9105,-0.7174,1.0978,-0.792,0.7536,-0.3037,1.0571,-1.0503,-0.071,-0.5018,1.7941,-0.2327
1.9236,-0.5632,0.8206,-1.4545,0.8256,-0.7152,1.0516,-0.7871,0.7278,-0.3133,0.9975,-1.0438,-0.0521,-0.5291,1.7513,-0.2402
1.8732,-0.5454,0.8206,-1.4545,0.7771,-0.735,0.9773,-0.7722,0.685,-0.2982,0.9744,-1.0503,-0.0331,-0.5563,1.73,-0.2439
1.8732,-0.5454,0.8206,-1.4545,0.7771,-0.735,0.9773,-0.7722,0.685,-0.2982,0.9744,-1.0503,-0.0331,-0.5563,1.73,-0.2439
1.8732,-0.5454,0.8206,-1.4545,0.7771,-0.735,0.9773,-0.7722,0.685,-0.2982,0.9744,-1.0503,-0.0331,-0.5563,1.73,-0.2439
1.8086,-0.5615,0.7933,-1.4689,0.7099,-0.7573,0.9137,-0.7724,0.7107,-0.2886,0.9744,-1.0503,-0.0521,-0.5291,1.719,-0.2626
1.8086,-0.5615,0.7933,-1.4689,0.7099,-0.7573,0.9137,-0.7724,0.7107,-0.2886,0.9744,-1.0503,-0.0521,-0.5291,1.719,-0.2626
1.7764,-0.5695,0.7933,-1.4689,0.643,-0.7796,0.8503,-0.7726,0.745,-0.338,0.9418,-1.0825,-0.0691,-0.5642,1.6345,-0.244
1.7764,-0.5695,0.7933,-1.4689,0.643,-0.7796,0.8503,-0.7726,0.745,-0.338,0.9418,-1.0825,-0.0691,-0.5642,1.6345,-0.244
1.7264,-0.5519,0.7711,-1.4369,0.5867,-0.7872,0.7872,-0.7729,0.745,-0.338,0.9188,-1.089,-0.1238,-0.5449,1.6236,-0.2627
1.7264,-0.5519,0.7711,-1.4369,0.5867,-0.7872,0.7872,-0.7729,0.745,-0.338,0.9188,-1.089,-0.1238,-0.5449,1.6236,-0.2627
1.6944,-0.56,0.7488,-1.4049,0.5307,-0.7947,0.7347,-0.7882,0.7536,-0.3037,0.9188,-1.089,-0.1238,-0.5449,1.6025,-0.2665
1.6944,-0.56,0.7488,-1.4049,0.5307,-0.7947,0.7347,-0.7882,0.7536,-0.3037,0.9188,-1.089,-0.1238,-0.5449,1.6025,-0.2665
1.7264,-0.5519,0.7761,-1.3903,0.5288,-0.8214,0.6998,-0.7983,0.685,-0.2982,0.9093,-1.1146,-0.1951,-0.5607,1.5602,-0.274
1.7264,-0.5519,0.7761,-1.3903,0.5288,-0.8214,0.6998,-0.7983,0.685,-0.2982,0.9093,-1.1146,-0.1951,-0.5607,1.5602,-0.274
1.6944,-0.56,0.7488,-1.4049,0.4916,-0.8264,0.6476,-0.8135,0.6168,-0.2927,0.8997,-1.1402,-0.3015,-0.5843,1.4971,-0.2853
1.6944,-0.56,0.7488,-1.4049,0.4916,-0.8264,0.6476,-0.8135,0.6168,-0.2927,0.8997,-1.1402,-0.3015,-0.5843,1.4971,-0.2853
1.6625,-0.568,0.7711,-1.4369,0.4276,-0.822,0.6129,-0.8237,0.5234,-0.297,0.8768,-1.1466,-0.372,-0.6001,1.3929,-0.2708
1.6625,-0.568,0.7711,-1.4369,0.4276,-0.822,0.6129,-0.8237,0.5234,-0.297,0.8768,-1.1466,-0.372,-0.6001,1.3929,-0.2708
1.7122,-0.5856,0.7488,-1.4049,0.3906,-0.8271,0.5956,-0.8287,0.5658,-0.312,0.8731,-1.1018,-0.372,-0.6001,1.3618,-0.2598
1.7122,-0.5856,0.7488,-1.4049,0.3906,-0.8271,0.5956,-0.8287,0.5658,-0.312,0.8731,-1.1018,-0.372,-0.6001,1.3618,-0.2598
1.7122,-0.5856,0.7216,-1.4195,0.3354,-0.8347,0.5885,-0.8486,0.5405,-0.3216,0.8369,-1.0891,-0.4071,-0.608,1.3202,-0.2674
1.7122,-0.5856,0.7216,-1.4195,0.3354,-0.8347,0.5885,-0.8486,0.5405,-0.3216,0.8369,-1.0891,-0.4071,-0.608,1.3202,-0.2674
1.6944,-0.56,0.6723,-1.4021,0.2803,-0.8423,0.5438,-0.8439,0.5151,-0.3311,0.8008,-1.0763,-0.3534,-0.627,1.3199,-0.3007
1.6944,-0.56,0.6723,-1.4021,0.2803,-0.8423,0.5438,-0.8439,0.5151,-0.3311,0.8008,-1.0763,-0.3534,-0.627,1.3199,-0.3007
1.5988,-0.5841,0.6404,-1.4631,0.1972,-0.867,0.4546,-0.8346,0.4898,-0.3407,0.7781,-1.0828,-0.3348,-0.6538,1.2785,-0.3083
1.5988,-0.5841,0.6404,-1.4631,0.1972,-0.867,0.4546,-0.8346,0.4898,-0.3407,0.7781,-1.0828,-0.3348,-0.6538,1.2785,-0.3083
1.5177,-0.5747,0.6354,-1.5093,0.1245,-0.8772,0.4033,-0.8498,0.4476,-0.3258,0.7554,-1.0892,-0.4258,-0.5811,1.2578,-0.3121
1.5177,-0.5747,0.6354,-1.5093,0.1245,-0.8772,0.4033,-0.8498,0.4476,-0.3258,0.7554,-1.0892,-0.4258,-0.5811,1.2578,-0.3121
1.5038,-0.6082,0.6354,-1.5093,0.0702,-0.8848,0.3318,-0.8357,0.5068,-0.3652,0.7327,-1.0957,-0.498,-0.5352,1.2165,-0.3196
1.5214,-0.6336,0.5645,-1.4603,-0.01,-0.8832,0.2979,-0.8459,0.5491,-0.3802,0.7101,-1.1021,-0.5863,-0.5244,1.2061,-0.3381
1.5214,-0.6336,0.5645,-1.4603,-0.01,-0.8832,0.2979,-0.8459,0.5491,-0.3802,0.7101,-1.1021,-0.5863,-0.5244,1.2061,-0.3381
1.4898,-0.6416,0.5156,-1.443,-0.0638,-0.891,0.2742,-0.8706,0.5915,-0.3952,0.7007,-1.1277,-0.6209,-0.5324,1.2162,-0.3527
1.4898,-0.6416,0.5156,-1.443,-0.0638,-0.891,0.2742,-0.8706,0.5915,-0.3952,0.7007,-1.1277,-0.6209,-0.5324,1.2162,-0.3527
1.4898,-0.6416,0.5156,-1.443,-0.0638,-0.891,0.2742,-0.8706,0.5915,-0.3952,0.7007,-1.1277,-0.6209,-0.5324,1.2162,-0.3527
1.539,-0.659,0.4936,-1.4112,-0.0996,-0.8961,0.2573,-0.8757,0.5575,-0.3461,0.6649,-1.115,-0.6741,-0.5137,1.247,-0.3635
1.539,-0.659,0.4936,-1.4112,-0.0996,-0.8961,0.2573,-0.8757,0.5575,-0.3461,0.6649,-1.115,-0.6741,-0.5137,1.247,-0.3635
1.539,-0.659,0.4936,-1.4112,-0.0996,-0.8961,0.2573,-0.8757,0.5575,-0.3461,0.6649,-1.115,-0.6741,-0.5137,1.247,-0.3635
1.5074,-0.6669,0.4448,-1.394,-0.119,-0.9248,0.1966,-0.8763,0.5151,-0.3311,0.6424,-1.1215,-0.7085,-0.5217,1.2264,-0.3673
1.4898,-0.6416,0.4448,-1.394,-0.1546,-0.9299,0.163,-0.8864,0.4728,-0.3162,0.6556,-1.1405,-0.7429,-0.5298,1.165,-0.3456
1.4408,-0.6243,0.4448,-1.394,-0.2078,-0.9376,0.1027,-0.8871,0.4054,-0.3109,0.682,-1.1786,-0.8114,-0.546,1.0935,-0.3424
1.4408,-0.6243,0.4448,-1.394,-0.2078,-0.9376,0.1027,-0.8871,0.4054,-0.3109,0.682,-1.1786,-0.8114,-0.546,1.0935,-0.3424
1.4408,-0.6243,0.4448,-1.394,-0.2078,-0.9376,0.1027,-0.8871,0.4054,-0.3109,0.682,-1.1786,-0.8114,-0.546,1.0935,-0.3424
1.4408,-0.6243,0.4448,-1.394,-0.2078,-0.9376,0.1027,-0.8871,0.4054,-0.3109,0.682,-1.1786,-0.8114,-0.546,1.0935,-0.3424
1.5074,-0.6669,0.4669,-1.4258,-0.2771,-0.9219,0.086,-0.8921,0.4224,-0.3354,0.682,-1.1786,-0.8455,-0.554,1.0121,-0.3246
1.5074,-0.6669,0.4669,-1.4258,-0.2771,-0.9219,0.086,-0.8921,0.4224,-0.3354,0.682,-1.1786,-0.8455,-0.554,1.0121,-0.3246
1.5074,-0.6669,0.4669,-1.4258,-0.2771,-0.9219,0.086,-0.8921,0.4224,-0.3354,0.682,-1.1786,-0.8455,-0.554,1.0121,-0.3246
1.553,-0.6256,0.4669,-1.4258,-0.2049,-0.8855,0.1027,-0.8871,0.3803,-0.3206,0.6875,-1.1086,-0.7058,-0.5833,1.0528,-0.317
1.553,-0.6256,0.4669,-1.4258,-0.2049,-0.8855,0.1027,-0.8871,0.3803,-0.3206,0.6875,-1.1086,-0.7058,-0.5833,1.0528,-0.317
1.553,-0.6256,0.4669,-1.4258,-0.2049,-0.8855,0.1027,-0.8871,0.3803,-0.3206,0.6875,-1.1086,-0.7058,-0.5833,1.0528,-0.317
1.5493,-0.5666,0.5424,-1.4285,-0.0085,-0.857,0.2404,-0.8808,0.4054,-0.3109,0.6835,-1.0639,-0.5305,-0.6049,1.1346,-0.3017
1.5493,-0.5666,0.5424,-1.4285,-0.0085,-0.857,0.2404,-0.8808,0.4054,-0.3109,0.6835,-1.0639,-0.5305,-0.6049,1.1346,-0.3017
1.5493,-0.5666,0.5424,-1.4285,-0.0085,-0.857,0.2404,-0.8808,0.4054,-0.3109,0.6835,-1.0639,-0.5305,-0.6049,1.1346,-0.3017
1.6128,-0.5505,0.6134,-1.4776,0.5121,-0.7973,0.4856,-0.7898,0.5063,-0.2723,0.8558,-1.0376,-0.0673,-0.6263,1.4137,-0.267
1.6128,-0.5505,0.6134,-1.4776,0.5121,-0.7973,0.4856,-0.7898,0.5063,-0.2723,0.8558,-1.0376,-0.0673,-0.6263,1.4137,-0.267
1.5951,-0.5248,0.7336,-1.544,0.7288,-0.7548,0.6514,-0.7587,0.5742,-0.2777,0.938,-1.0374,0.0769,-0.5952,1.5293,-0.2294
1.5951,-0.5248,0.7336,-1.544,0.7288,-0.7548,0.6514,-0.7587,0.5742,-0.2777,0.938,-1.0374,0.0769,-0.5952,1.5293,-0.2294
1.5951,-0.5248,0.7336,-1.544,0.7288,-0.7548,0.6514,-0.7587,0.5742,-0.2777,0.938,-1.0374,0.0769,-0.5952,1.5293,-0.2294
1.6625,-0.568,0.7828,-1.5614,0.9105,-0.7174,0.7736,-0.7229,0.7107,-0.2886,1.0071,-1.018,0.167,-0.5445,1.6246,-0.1954
1.6625,-0.568,0.7828,-1.5614,0.9105,-0.7174,0.7736,-0.7229,0.7107,-0.2886,1.0071,-1.018,0.167,-0.5445,1.6246,-0.1954
1.7264,-0.5519,0.7711,-1.4369,1.1808,-0.6824,1.0066,-0.6915,0.831,-0.2748,1.0998,-0.9919,0.2193,-0.4381,1.8912,-0.1988
1.7264,-0.5519,0.7711,-1.4369,1.1808,-0.6824,1.0066,-0.6915,0.831,-0.2748,1.0998,-0.9919,0.2193,-0.4381,1.8912,-0.1988
1.7264,-0.5519,0.7711,-1.4369,1.1808,-0.6824,1.0066,-0.6915,0.831,-0.2748,1.0998,-0.9919,0.2193,-0.4381,1.8912,-0.1988
1.7585,-0.5438,0.7984,-1.4224,1.259,-0.6725,1.0992,-0.7013,0.7965,-0.225,1.1231,-0.9854,0.2001,-0.4104,1.9666,-0.2027
1.7585,-0.5438,0.7984,-1.4224,1.259,-0.6725,1.0992,-0.7013,0.7965,-0.225,1.1231,-0.9854,0.2001,-0.4104,1.9666,-0.2027
1.7585,-0.5438,0.7984,-1.4224,1.259,-0.6725,1.0992,-0.7013,0.7965,-0.225,1.1231,-0.9854,0.2001,-0.4104,1.9666,-0.2027
1.7585,-0.5438,0.7761,-1.3903,1.3069,-0.68,1.1636,-0.7011,0.7449,-0.2444,1.1133,-1.0114,0.0715,-0.4068,1.9666,-0.2027
1.7585,-0.5438,0.7761,-1.3903,1.3069,-0.68,1.1636,-0.7011,0.7449,-0.2444,1.1133,-1.0114,0.0715,-0.4068,1.9666,-0.2027
1.8409,-0.5535,0.7538,-1.3581,1.3092,-0.6526,1.2103,-0.7061,0.6935,-0.2638,1.1035,-1.0374,0.0181,-0.4504,1.9128,-0.1951
1.8409,-0.5535,0.7538,-1.3581,1.3092,-0.6526,1.2103,-0.7061,0.6935,-0.2638,1.1035,-1.0374,0.0181,-0.4504,1.9128,-0.1951
1.9236,-0.5632,0.8034,-1.3756,1.3006,-0.6401,1.2389,-0.7163,0.6679,-0.2734,1.117,-1.0568,-0.018,-0.4584,1.8912,-0.1988
1.9236,-0.5632,0.8034,-1.3756,1.3006,-0.6401,1.2389,-0.7163,0.6679,-0.2734,1.117,-1.0568,-0.018,-0.4584,1.8912,-0.1988
1.9236,-0.5632,0.8034,-1.3756,1.2613,-0.6451,1.2781,-0.7416,0.685,-0.2982,1.0803,-1.0438,-0.018,-0.4584,1.8912,-0.1988
1.9236,-0.5632,0.8034,-1.3756,1.2613,-0.6451,1.2781,-0.7416,0.685,-0.2982,1.0803,-1.0438,-0.018,-0.4584,1.8912,-0.1988
1.8877,-0.5115,0.7761,-1.3903,1.1831,-0.6551,1.2208,-0.7213,0.7107,-0.2886,1.0901,-1.0179,0.1479,-0.517,1.8912,-0.1988
1.8877,-0.5115,0.7761,-1.3903,1.1831,-0.6551,1.2208,-0.7213,0.7107,-0.2886,1.0901,-1.0179,0.1479,-0.517,1.8912,-0.1988
1.8877,-0.5115,0.7761,-1.3903,1.1831,-0.6551,1.2208,-0.7213,0.7107,-0.2886,1.0901,-1.0179,0.1479,-0.517,1.8912,-0.1988
1.8553,-0.5196,0.7984,-1.4224,1.1333,-0.675,1.1742,-0.7163,0.7107,-0.2886,1.0669,-1.0244,0.1479,-0.517,1.8697,-0.2026
1.8553,-0.5196,0.7984,-1.4224,1.1333,-0.675,1.1742,-0.7163,0.7107,-0.2886,1.0669,-1.0244,0.1479,-0.517,1.8697,-0.2026
1.8553,-0.5196,0.848,-1.4399,1.1139,-0.6775,1.1276,-0.7113,0.7793,-0.2941,1.0669,-1.0244,0.1098,-0.462,1.9017,-0.2139
1.8553,-0.5196,0.848,-1.4399,1.1139,-0.6775,1.1276,-0.7113,0.7793,-0.2941,1.0669,-1.0244,0.1098,-0.462,1.9017,-0.2139
1.7871,-0.476,0.8257,-1.4078,1.1225,-0.6899,1.0992,-0.7013,0.8224,-0.3093,1.1035,-1.0374,0.0906,-0.4344,1.9233,-0.2102
1.8374,-0.4937,0.8532,-1.3932,1.1419,-0.6874,1.1276,-0.7113,0.8138,-0.25,1.1035,-1.0374,0.0543,-0.4424,1.9658,-0.2366
1.8374,-0.4937,0.8532,-1.3932,1.1419,-0.6874,1.1276,-0.7113,0.8138,-0.25,1.1035,-1.0374,0.0543,-0.4424,1.9658,-0.2366
1.8374,-0.4937,0.8532,-1.3932,1.1419,-0.6874,1.1276,-0.7113,0.8138,-0.25,1.1035,-1.0374,0.0543,-0.4424,1.9658,-0.2366
1.8374,-0.4937,0.8532,-1.3932,1.1419,-0.6874,1.1276,-0.7113,0.8138,-0.25,1.1035,-1.0374,0.0543,-0.4424,1.9658,-0.2366
1.8374,-0.4937,0.8532,-1.3932,1.198,-0.7072,1.1382,-0.7265,0.7965,-0.225,1.1403,-1.0504,0.1098,-0.462,1.9337,-0.2253
1.8374,-0.4937,0.8532,-1.3932,1.198,-0.7072,1.1382,-0.7265,0.7965,-0.225,1.1403,-1.0504,0.1098,-0.462,1.9337,-0.2253
1.8877,-0.5115,0.8806,-1.3786,1.198,-0.7072,1.1202,-0.7316,0.6763,-0.2389,1.1573,-1.1149,-0.0161,-0.5212,1.8266,-0.2101
1.8877,-0.5115,0.8806,-1.3786,1.198,-0.7072,1.1202,-0.7316,0.6763,-0.2389,1.1573,-1.1149,-0.0161,-0.5212,1.8266,-0.2101
1.8877,-0.5115,0.8806,-1.3786,1.198,-0.7072,1.1202,-0.7316,0.6763,-0.2389,1.1573,-1.1149,-0.0161,-0.5212,1.8266,-0.2101
1.9561,-0.5552,0.8308,-1.361,1.1699,-0.6973,1.1022,-0.7367,0.6679,-0.2734,1.1207,-1.102,-0.0521,-0.5291,1.7519,-0.2064
1.9561,-0.5552,0.8308,-1.361,1.1699,-0.6973,1.1022,-0.7367,0.6679,-0.2734,1.1207,-1.102,-0.0521,-0.5291,1.7519,-0.2064
1.974,-0.581,0.8084,-1.3287,1.1311,-0.7023,1.0948,-0.7568,0.6423,-0.2831,1.0938,-1.0632,-0.088,-0.537,1.7305,-0.2102
1.9561,-0.5552,0.8084,-1.3287,1.0364,-0.6875,1.0978,-0.792,0.685,-0.2982,1.0803,-1.0438,-0.088,-0.537,1.7092,-0.214
1.9561,-0.5552,0.8084,-1.3287,1.0364,-0.6875,1.0978,-0.792,0.685,-0.2982,1.0803,-1.0438,-0.088,-0.537,1.7092,-0.214
1.9561,-0.5552,0.8084,-1.3287,1.0364,-0.6875,1.0978,-0.792,0.685,-0.2982,1.0803,-1.0438,-0.088,-0.537,1.7092,-0.214
1.9561,-0.5552,0.7811,-1.3434,1.0064,-0.7049,1.0903,-0.8121,0.685,-0.2982,1.0437,-1.0309,-0.088,-0.537,1.6983,-0.2327
1.9561,-0.5552,0.7811,-1.3434,1.0064,-0.7049,1.0903,-0.8121,0.685,-0.2982,1.0437,-1.0309,-0.088,-0.537,1.6983,-0.2327
1.9381,-0.5293,0.7811,-1.3434,0.9211,-0.7026,1.0441,-0.8071,0.6679,-0.2734,0.9936,-0.9985,-0.0331,-0.5563,1.7086,-0.2477
1.9381,-0.5293,0.7811,-1.3434,0.9211,-0.7026,1.0441,-0.8071,0.6679,-0.2734,0.9936,-0.9985,-0.0331,-0.5563,1.7086,-0.2477
1.8409,-0.5535,0.7984,-1.4224,0.8341,-0.7275,0.9344,-0.8023,0.6251,-0.2583,0.9341,-0.9922,-0.0521,-0.5291,1.6557,-0.2403
1.8409,-0.5535,0.7984,-1.4224,0.8341,-0.7275,0.9344,-0.8023,0.6251,-0.2583,0.9341,-0.9922,-0.0521,-0.5291,1.6557,-0.2403
1.8086,-0.5615,0.7933,-1.4689,0.7581,-0.7376,0.8534,-0.8076,0.6679,-0.2734,0.9246,-1.0181,-0.071,-0.5018,1.6345,-0.244
1.8086,-0.5615,0.7933,-1.4689,0.7581,-0.7376,0.8534,-0.8076,0.6679,-0.2734,0.9246,-1.0181,-0.071,-0.5018,1.6345,-0.244
1.7942,-0.5952,0.7216,-1.4195,0.6826,-0.7477,0.8007,-0.8227,0.7536,-0.3037,0.9246,-1.0181,-0.1448,-0.455,1.6448,-0.259
1.7942,-0.5952,0.7216,-1.4195,0.6826,-0.7477,0.8007,-0.8227,0.7536,-0.3037,0.9246,-1.0181,-0.1448,-0.455,1.6448,-0.259
1.8119,-0.6208,0.6771,-1.3553,0.6534,-0.7649,0.7831,-0.8278,0.7107,-0.2886,0.9514,-1.0568,-0.1805,-0.4631,1.6552,-0.2739
1.7122,-0.5856,0.6771,-1.3553,0.5971,-0.7725,0.7307,-0.8429,0.7192,-0.2541,0.9514,-1.0568,-0.2351,-0.4438,1.6655,-0.2887
1.7122,-0.5856,0.6771,-1.3553,0.5971,-0.7725,0.7307,-0.8429,0.7192,-0.2541,0.9514,-1.0568,-0.2351,-0.4438,1.6655,-0.2887
1.6625,-0.568,0.6501,-1.37,0.5494,-0.7922,0.6958,-0.8529,0.659,-0.2141,0.9284,-1.0632,-0.2162,-0.4711,1.6443,-0.2925
1.6625,-0.568,0.6501,-1.37,0.5494,-0.7922,0.6958,-0.8529,0.659,-0.2141,0.9284,-1.0632,-0.2162,-0.4711,1.6443,-0.2925
1.6625,-0.568,0.6501,-1.37,0.5494,-0.7922,0.6958,-0.8529,0.659,-0.2141,0.9284,-1.0632,-0.2162,-0.4711,1.6443,-0.2925
1.6625,-0.568,0.6501,-1.37,0.5205,-0.8094,0.6508,-0.8482,0.6507,-0.2486,0.9322,-1.1082,-0.2683,-0.5143,1.5602,-0.274
1.6625,-0.568,0.6501,-1.37,0.5205,-0.8094,0.6508,-0.8482,0.6507,-0.2486,0.9322,-1.1082,-0.2683,-0.5143,1.5602,-0.274
1.6625,-0.568,0.6501,-1.37,0.5205,-0.8094,0.6508,-0.8482,0.6507,-0.2486,0.9322,-1.1082,-0.2683,-0.5143,1.5602,-0.274
1.6625,-0.568,0.6723,-1.4021,0.4563,-0.8049,0.5885,-0.8486,0.5825,-0.2432,0.9588,-1.1466,-0.3578,-0.5032,1.5078,-0.2667
1.6625,-0.568,0.6723,-1.4021,0.4563,-0.8049,0.5885,-0.8486,0.5825,-0.2432,0.9588,-1.1466,-0.3578,-0.5032,1.5078,-0.2667
1.7442,-0.5776,0.6723,-1.4021,0.3841,-0.7885,0.5713,-0.8536,0.5996,-0.268,0.9455,-1.1274,-0.393,-0.5112,1.4346,-0.2632
1.7442,-0.5776,0.6723,-1.4021,0.3841,-0.7885,0.5713,-0.8536,0.5996,-0.268,0.9455,-1.1274,-0.393,-0.5112,1.4346,-0.2632
1.7299,-0.6112,0.6674,-1.4486,0.3104,-0.7987,0.547,-0.8784,0.5742,-0.2777,0.8959,-1.0954,-0.4818,-0.5002,1.4137,-0.267
1.7122,-0.5856,0.6453,-1.4167,0.2637,-0.8184,0.5501,-0.9128,0.5063,-0.2723,0.8236,-1.0698,-0.4631,-0.5272,1.372,-0.2746
1.6269,-0.5167,0.5961,-1.3993,0.2089,-0.8261,0.5157,-0.9228,0.5063,-0.2723,0.8102,-1.0506,-0.4094,-0.5462,1.3614,-0.2931
1.6269,-0.5167,0.5961,-1.3993,0.2089,-0.8261,0.5157,-0.9228,0.5063,-0.2723,0.8102,-1.0506,-0.4094,-0.5462,1.3614,-0.2931
1.6269,-0.5167,0.5961,-1.3993,0.2089,-0.8261,0.5157,-0.9228,0.5063,-0.2723,0.8102,-1.0506,-0.4094,-0.5462,1.3614,-0.2931
1.5773,-0.4992,0.6183,-1.4312,0.1625,-0.8457,0.444,-0.9085,0.4639,-0.2573,0.7875,-1.0571,-0.3368,-0.5922,1.3199,-0.3007
1.5773,-0.4992,0.6183,-1.4312,0.1625,-0.8457,0.444,-0.9085,0.4639,-0.2573,0.7875,-1.0571,-0.3368,-0.5922,1.3199,-0.3007
1.5139,-0.5155,0.6404,-1.4631,0.0899,-0.856,0.3555,-0.8993,0.4387,-0.267,0.8008,-1.0763,-0.3907,-0.5732,1.3094,-0.3192
1.5139,-0.5155,0.6404,-1.4631,0.0899,-0.856,0.3555,-0.8993,0.4387,-0.267,0.8008,-1.0763,-0.3907,-0.5732,1.3094,-0.3192
1.5139,-0.5155,0.6404,-1.4631,0.0899,-0.856,0.3555,-0.8993,0.4387,-0.267,0.8008,-1.0763,-0.3907,-0.5732,1.3094,-0.3192
1.5316,-0.5411,0.6895,-1.4805,0.044,-0.8755,0.2945,-0.8998,0.481,-0.282,0.7647,-1.0636,-0.3555,-0.5653,1.2785,-0.3083
1.5316,-0.5411,0.6895,-1.4805,0.044,-0.8755,0.2945,-0.8998,0.481,-0.282,0.7647,-1.0636,-0.3555,-0.5653,1.2785,-0.3083
1.5493,-0.5666,0.6231,-1.3847,-0.0541,-0.8766,0.2168,-0.9054,0.4981,-0.3066,0.7194,-1.0765,-0.498,-0.5352,1.2473,-0.3305
1.5493,-0.5666,0.6231,-1.3847,-0.0541,-0.8766,0.2168,-0.9054,0.4981,-0.3066,0.7194,-1.0765,-0.498,-0.5352,1.2473,-0.3305
1.5493,-0.5666,0.6231,-1.3847,-0.0541,-0.8766,0.2168,-0.9054,0.4981,-0.3066,0.7194,-1.0765,-0.498,-0.5352,1.2473,-0.3305
1.5177,-0.5747,0.574,-1.3673,-0.0817,-0.8935,0.1832,-0.9155,0.4558,-0.2916,0.6968,-1.083,-0.5863,-0.5244,1.2061,-0.3381
1.5177,-0.5747,0.574,-1.3673,-0.0817,-0.8935,0.1832,-0.9155,0.4558,-0.2916,0.6968,-1.083,-0.5863,-0.5244,1.2061,-0.3381
1.4546,-0.5909,0.5203,-1.3966,-0.1449,-0.9156,0.1061,-0.9211,0.3884,-0.2864,0.6384,-1.0768,-0.6555,-0.5405,1.1549,-0.331
1.4546,-0.5909,0.5203,-1.3966,-0.1449,-0.9156,0.1061,-0.9211,0.3884,-0.2864,0.6384,-1.0768,-0.6555,-0.5405,1.1549,-0.331
1.4546,-0.5909,0.4936,-1.4112,-0.1982,-0.9233,0.0828,-0.9456,0.3213,-0.2812,0.6292,-1.1024,-0.7429,-0.5298,1.0935,-0.3424
1.4546,-0.5909,0.4936,-1.4112,-0.1982,-0.9233,0.0828,-0.9456,0.3213,-0.2812,0.6292,-1.1024,-0.7429,-0.5298,1.0935,-0.3424
1.5038,-0.6082,0.5203,-1.3966,-0.2336,-0.9285,0.0661,-0.9507,0.2964,-0.2909,0.5935,-1.0898,-0.7772,-0.5379,1.0527,-0.35
1.5038,-0.6082,0.5203,-1.3966,-0.2336,-0.9285,0.0661,-0.9507,0.2964,-0.2909,0.5935,-1.0898,-0.7772,-0.5379,1.0527,-0.35
1.4861,-0.5828,0.4936,-1.4112,-0.3123,-0.9271,0.0328,-0.9607,0.2715,-0.3005,0.5711,-1.0963,-0.8114,-0.546,0.9816,-0.3468
1.4861,-0.5828,0.4936,-1.4112,-0.3123,-0.9271,0.0328,-0.9607,0.2715,-0.3005,0.5711,-1.0963,-0.8114,-0.546,0.9816,-0.3468
1.437,-0.5655,0.4448,-1.394,-0.3906,-0.9259,-0.0003,-0.9707,0.2545,-0.2761,0.5711,-1.0963,-0.7929,-0.5726,0.9614,-0.3506
1.437,-0.5655,0.4448,-1.394,-0.3906,-0.9259,-0.0003,-0.9707,0.2545,-0.2761,0.5711,-1.0963,-0.7929,-0.5726,0.9614,-0.3506
1.4056,-0.5736,0.4182,-1.4086,-0.4605,-0.9363,-0.05,-0.9857,0.2297,-0.2858,0.5487,-1.1028,-0.7744,-0.5992,0.9209,-0.3582
1.4056,-0.5736,0.4182,-1.4086,-0.4605,-0.9363,-0.05,-0.9857,0.2297,-0.2858,0.5487,-1.1028,-0.7744,-0.5992,0.9209,-0.3582
1.4232,-0.5989,0.4402,-1.4404,-0.4953,-0.9415,-0.1028,-0.967,0.2218,-0.3199,0.5041,-1.1157,-0.8086,-0.6072,0.8806,-0.3658
1.4232,-0.5989,0.4402,-1.4404,-0.4953,-0.9415,-0.1028,-0.967,0.2218,-0.3199,0.5041,-1.1157,-0.8086,-0.6072,0.8806,-0.3658
1.4408,-0.6243,0.5109,-1.4892,-0.4525,-0.9479,-0.1028,-0.967,0.2635,-0.3346,0.5396,-1.1282,-0.827,-0.5807,0.8706,-0.3514
1.4408,-0.6243,0.4669,-1.4258,-0.2866,-0.9362,-0.0799,-0.9426,0.3472,-0.3642,0.5619,-1.1218,-0.7586,-0.5646,0.9311,-0.3399
1.4408,-0.6243,0.4669,-1.4258,-0.2866,-0.9362,-0.0799,-0.9426,0.3472,-0.3642,0.5619,-1.1218,-0.7586,-0.5646,0.9311,-0.3399
1.4408,-0.6243,0.4669,-1.4258,-0.2866,-0.9362,-0.0799,-0.9426,0.3472,-0.3642,0.5619,-1.1218,-0.7586,-0.5646,0.9311,-0.3399
1.4898,-0.6416,0.4448,-1.394,-0.0817,-0.8935,0.0294,-0.9268,0.3634,-0.2961,0.6292,-1.1024,-0.6555,-0.5405,1.0935,-0.3424
1.4898,-0.6416,0.4448,-1.394,-0.0817,-0.8935,0.0294,-0.9268,0.3634,-0.2961,0.6292,-1.1024,-0.6555,-0.5405,1.0935,-0.3424
1.553,-0.6256,0.4982,-1.3647,0.1989,-0.8406,0.2067,-0.8909,0.3884,-0.2864,0.6384,-1.0768,-0.5329,-0.5433,1.2165,-0.3196
1.553,-0.6256,0.4982,-1.3647,0.1989,-0.8406,0.2067,-0.8909,0.3884,-0.2864,0.6384,-1.0768,-0.5329,-0.5433,1.2165,-0.3196
1.6165,-0.6096,0.5471,-1.382,0.4665,-0.7903,0.376,-0.8402,0.4216,-0.2424,0.7781,-1.0828,-0.3555,-0.5653,1.3512,-0.2784
1.6165,-0.6096,0.5471,-1.382,0.4665,-0.7903,0.376,-0.8402,0.4216,-0.2424,0.7781,-1.0828,-0.3555,-0.5653,1.3512,-0.2784
1.7122,-0.5856,0.6231,-1.3847,0.7203,-0.7426,0.568,-0.819,0.4639,-0.2573,0.8597,-1.0826,-0.2849,-0.5494,1.4453,-0.2446
1.7122,-0.5856,0.6231,-1.3847,0.7203,-0.7426,0.568,-0.819,0.4639,-0.2573,0.8597,-1.0826,-0.2849,-0.5494,1.4453,-0.2446
1.7942,-0.5952,0.6501,-1.37,0.8743,-0.6954,0.7069,-0.7783,0.557,-0.2529,0.938,-1.0374,-0.1427,-0.5176,1.5611,-0.2068
1.7942,-0.5952,0.6501,-1.37,0.8743,-0.6954,0.7069,-0.7783,0.557,-0.2529,0.938,-1.0374,-0.1427,-0.5176,1.5611,-0.2068
1.8086,-0.5615,0.6994,-1.3874,1,-0.6653,0.8679,-0.7675,0.6251,-0.2583,0.9706,-1.0051,-0.1258,-0.4824,1.6562,-0.2066
1.8086,-0.5615,0.6994,-1.3874,1,-0.6653,0.8679,-0.7675,0.6251,-0.2583,0.9706,-1.0051,-0.1258,-0.4824,1.6562,-0.2066
1.8086,-0.5615,0.6994,-1.3874,1,-0.6653,0.8679,-0.7675,0.6251,-0.2583,0.9706,-1.0051,-0.1258,-0.4824,1.6562,-0.2066
1.823,-0.5277,0.6771,-1.3553,1.0967,-0.6527,0.9564,-0.7421,0.6679,-0.2734,0.9436,-0.9662,-0.035,-0.4938,1.6988,-0.199
1.823,-0.5277,0.6771,-1.3553,1.0967,-0.6527,0.9564,-0.7421,0.6679,-0.2734,0.9436,-0.9662,-0.035,-0.4938,1.6988,-0.199
1.7728,-0.51,0.7266,-1.3728,1.1161,-0.6502,1.0098,-0.7268,0.6335,-0.2238,1.0032,-0.9725,0.0925,-0.4975,1.731,-0.1764
1.7407,-0.5181,0.7488,-1.4049,1.0967,-0.6527,1.0098,-0.7268,0.6335,-0.2238,0.9801,-0.9791,0.0181,-0.4504,1.7415,-0.1914
1.7407,-0.5181,0.7266,-1.3728,1.0773,-0.6552,1.0098,-0.7268,0.7192,-0.2541,1.0032,-0.9725,0.0543,-0.4424,1.7733,-0.2026
1.7407,-0.5181,0.7266,-1.3728,1.0773,-0.6552,1.0098,-0.7268,0.7192,-0.2541,1.0032,-0.9725,0.0543,-0.4424,1.7733,-0.2026
1.7407,-0.5181,0.7266,-1.3728,1.0773,-0.6552,1.0098,-0.7268,0.7192,-0.2541,1.0032,-0.9725,0.0543,-0.4424,1.7733,-0.2026
1.7728,-0.51,0.7043,-1.3406,1.0386,-0.6603,1.0202,-0.7419,0.7449,-0.2444,1.0032,-0.9725,-0.001,-0.4229,1.8156,-0.2289
1.7728,-0.51,0.7043,-1.3406,1.0386,-0.6603,1.0202,-0.7419,0.7449,-0.2444,1.0032,-0.9725,-0.001,-0.4229,1.8156,-0.2289
1.7407,-0.5181,0.7043,-1.3406,1.0279,-0.6752,1.0024,-0.747,0.7103,-0.1946,1.0032,-0.9725,-0.001,-0.4229,1.837,-0.2252
1.7407,-0.5181,0.7043,-1.3406,1.0279,-0.6752,1.0024,-0.747,0.7103,-0.1946,1.0032,-0.9725,-0.001,-0.4229,1.837,-0.2252
1.7407,-0.5181,0.7043,-1.3406,1.0279,-0.6752,1.0024,-0.747,0.7103,-0.1946,1.0032,-0.9725,-0.001,-0.4229,1.837,-0.2252
1.7407,-0.5181,0.6548,-1.3231,1.0257,-0.7024,0.9668,-0.7571,0.6847,-0.2043,0.9936,-0.9985,-0.0731,-0.439,1.7837,-0.2177
1.7407,-0.5181,0.6548,-1.3231,1.0257,-0.7024,0.9668,-0.7571,0.6847,-0.2043,0.9936,-0.9985,-0.0731,-0.439,1.7837,-0.2177
1.7407,-0.5181,0.6548,-1.3231,1.0257,-0.7024,0.9668,-0.7571,0.6847,-0.2043,0.9936,-0.9985,-0.0731,-0.439,1.7837,-0.2177
1.7407,-0.5181,0.7761,-1.3903,0.9979,-0.6925,0.9209,-0.7523,0.6251,-0.2583,1.0474,-1.0761,-0.2351,-0.4438,1.6567,-0.1728
1.7407,-0.5181,0.7761,-1.3903,0.9979,-0.6925,0.9209,-0.7523,0.6251,-0.2583,1.0474,-1.0761,-0.2351,-0.4438,1.6567,-0.1728
1.7407,-0.5181,0.7761,-1.3903,0.9979,-0.6925,0.9209,-0.7523,0.6251,-0.2583,1.0474,-1.0761,-0.2351,-0.4438,1.6567,-0.1728
1.8409,-0.5535,0.7266,-1.3728,0.9701,-0.6827,0.9033,-0.7574,0.6423,-0.2831,1.034,-1.0567,-0.1805,-0.4631,1.6567,-0.1728
1.8409,-0.5535,0.7266,-1.3728,0.9701,-0.6827,0.9033,-0.7574,0.6423,-0.2831,1.034,-1.0567,-0.1805,-0.4631,1.6567,-0.1728
1.8409,-0.5535,0.7266,-1.3728,0.9701,-0.6827,0.9033,-0.7574,0.6423,-0.2831,1.034,-1.0567,-0.1805,-0.4631,1.6567,-0.1728
1.8732,-0.5454,0.7266,-1.3728,0.9701,-0.6827,0.9418,-0.7823,0.6763,-0.2389,1.0302,-1.0115,-0.054,-0.4664,1.6884,-0.184
1.8732,-0.5454,0.7266,-1.3728,0.9701,-0.6827,0.9418,-0.7823,0.6763,-0.2389,1.0302,-1.0115,-0.054,-0.4664,1.6884,-0.184
1.8409,-0.5535,0.7711,-1.4369,0.9594,-0.6976,0.9344,-0.8023,0.7019,-0.2292,1.0669,-1.0244,-0.018,-0.4584,1.7097,-0.1802
1.8409,-0.5535,0.7711,-1.4369,0.9594,-0.6976,0.9344,-0.8023,0.7019,-0.2292,1.0669,-1.0244,-0.018,-0.4584,1.7097,-0.1802
1.8409,-0.5535,0.7984,-1.4224,0.9594,-0.6976,0.9064,-0.7924,0.7019,-0.2292,1.0669,-1.0244,-0.0371,-0.4309,1.7201,-0.1952
1.8409,-0.5535,0.7984,-1.4224,0.9594,-0.6976,0.9064,-0.7924,0.7019,-0.2292,1.0669,-1.0244,-0.0371,-0.4309,1.7201,-0.1952
1.7907,-0.5358,0.7761,-1.3903,0.9211,-0.7026,0.8887,-0.7975,0.7707,-0.2347,1.0534,-1.005,-0.001,-0.4229,1.7415,-0.1914
1.7907,-0.5358,0.7761,-1.3903,0.9211,-0.7026,0.8887,-0.7975,0.7707,-0.2347,1.0534,-1.005,-0.001,-0.4229,1.7415,-0.1914
1.7907,-0.5358,0.7538,-1.3581,0.9105,-0.7174,0.8918,-0.8324,0.7103,-0.1946,1.0302,-1.0115,0.0181,-0.4504,1.7623,-0.2214
1.7907,-0.5358,0.7538,-1.3581,0.9105,-0.7174,0.8918,-0.8324,0.7103,-0.1946,1.0302,-1.0115,0.0181,-0.4504,1.7623,-0.2214
1.7407,-0.5181,0.7538,-1.3581,0.8998,-0.7322,0.8565,-0.8424,0.7103,-0.1946,1.0071,-1.018,0.0372,-0.4779,1.7623,-0.2214
1.7407,-0.5181,0.7538,-1.3581,0.8998,-0.7322,0.8565,-0.8424,0.7103,-0.1946,1.0071,-1.018,0.0372,-0.4779,1.7623,-0.2214
1.7407,-0.5181,0.7043,-1.3406,0.8977,-0.7592,0.8213,-0.8525,0.6335,-0.2238,0.9975,-1.0438,-0.09,-0.4744,1.6983,-0.2327
1.7585,-0.5438,0.7266,-1.3728,0.8236,-0.7422,0.7584,-0.8527,0.5653,-0.2185,0.9878,-1.0697,-0.1616,-0.4904,1.6242,-0.2291
1.7585,-0.5438,0.7266,-1.3728,0.8236,-0.7422,0.7584,-0.8527,0.5653,-0.2185,0.9878,-1.0697,-0.1616,-0.4904,1.6242,-0.2291
1.7585,-0.5438,0.7266,-1.3728,0.8236,-0.7422,0.7584,-0.8527,0.5653,-0.2185,0.9878,-1.0697,-0.1616,-0.4904,1.6242,-0.2291
1.7907,-0.5358,0.7043,-1.3406,0.7497,-0.7254,0.7512,-0.8725,0.5399,-0.2282,1.0012,-1.089,-0.2517,-0.4791,1.5818,-0.2367
1.7907,-0.5358,0.7043,-1.3406,0.7497,-0.7254,0.7512,-0.8725,0.5399,-0.2282,1.0012,-1.089,-0.2517,-0.4791,1.5818,-0.2367
1.7228,-0.4923,0.7266,-1.3728,0.6657,-0.7233,0.7163,-0.8825,0.5825,-0.2432,0.9878,-1.0697,-0.2517,-0.4791,1.5818,-0.2367
1.7228,-0.4923,0.7266,-1.3728,0.6657,-0.7233,0.7163,-0.8825,0.5825,-0.2432,0.9878,-1.0697,-0.2517,-0.4791,1.5818,-0.2367
1.7049,-0.4665,0.7266,-1.3728,0.5821,-0.7214,0.7091,-0.9023,0.557,-0.2529,0.9514,-1.0568,-0.2328,-0.5063,1.5396,-0.2443
1.7049,-0.4665,0.7266,-1.3728,0.5821,-0.7214,0.7091,-0.9023,0.557,-0.2529,0.9514,-1.0568,-0.2328,-0.5063,1.5396,-0.2443
1.7049,-0.4665,0.7266,-1.3728,0.5821,-0.7214,0.7091,-0.9023,0.557,-0.2529,0.9514,-1.0568,-0.2328,-0.5063,1.5396,-0.2443
1.7228,-0.4923,0.7266,-1.3728,0.5344,-0.7412,0.6365,-0.8878,0.5825,-0.2432,0.915,-1.0439,-0.1784,-0.5256,1.5083,-0.2332
1.7228,-0.4923,0.7266,-1.3728,0.5344,-0.7412,0.6365,-0.8878,0.5825,-0.2432,0.915,-1.0439,-0.1784,-0.5256,1.5083,-0.2332
1.6908,-0.5004,0.7488,-1.4049,0.4684,-0.7636,0.5846,-0.9028,0.557,-0.2529,0.8787,-1.0311,-0.2328,-0.5063,1.4872,-0.237
1.6908,-0.5004,0.7488,-1.4049,0.4684,-0.7636,0.5846,-0.9028,0.557,-0.2529,0.8787,-1.0311,-0.2328,-0.5063,1.4872,-0.237
1.6588,-0.5086,0.7488,-1.4049,0.4127,-0.7713,0.54,-0.8981,0.5996,-0.268,0.8558,-1.0376,-0.306,-0.4599,1.4453,-0.2446
1.6588,-0.5086,0.7488,-1.4049,0.4127,-0.7713,0.54,-0.8981,0.5996,-0.268,0.8558,-1.0376,-0.306,-0.4599,1.4453,-0.2446
1.6588,-0.5086,0.7488,-1.4049,0.4127,-0.7713,0.54,-0.8981,0.5996,-0.268,0.8558,-1.0376,-0.306,-0.4599,1.4453,-0.2446
1.7086,-0.5262,0.6548,-1.3231,0.3288,-0.7962,0.4611,-0.9035,0.5996,-0.268,0.8102,-1.0506,-0.4306,-0.457,1.4449,-0.278
1.7086,-0.5262,0.6548,-1.3231,0.3288,-0.7962,0.4611,-0.9035,0.5996,-0.268,0.8102,-1.0506,-0.4306,-0.457,1.4449,-0.278
1.7086,-0.5262,0.6548,-1.3231,0.3288,-0.7962,0.4611,-0.9035,0.5996,-0.268,0.8102,-1.0506,-0.4306,-0.457,1.4449,-0.278
1.6908,-0.5004,0.6325,-1.2909,0.3187,-0.8107,0.444,-0.9085,0.557,-0.2529,0.7514,-1.0443,-0.5006,-0.4732,1.4031,-0.2856
1.6908,-0.5004,0.6325,-1.2909,0.3187,-0.8107,0.444,-0.9085,0.557,-0.2529,0.7514,-1.0443,-0.5006,-0.4732,1.4031,-0.2856
1.6908,-0.5004,0.6325,-1.2909,0.3187,-0.8107,0.444,-0.9085,0.557,-0.2529,0.7514,-1.0443,-0.5006,-0.4732,1.4031,-0.2856
1.6908,-0.5004,0.6325,-1.2909,0.3187,-0.8107,0.444,-0.9085,0.557,-0.2529,0.7514,-1.0443,-0.5006,-0.4732,1.4031,-0.2856
1.6269,-0.5167,0.6055,-1.3057,0.2354,-0.8355,0.3757,-0.9286,0.4216,-0.2424,0.7914,-1.102,-0.6049,-0.4975,1.2995,-0.2712
1.6269,-0.5167,0.6055,-1.3057,0.2354,-0.8355,0.3757,-0.9286,0.4216,-0.2424,0.7914,-1.102,-0.6049,-0.4975,1.2995,-0.2712
1.6447,-0.5424,0.5786,-1.3205,0.1179,-0.839,0.2977,-0.934,0.3714,-0.2618,0.7421,-1.0701,-0.6741,-0.5137,1.186,-0.2756
1.6447,-0.5424,0.5786,-1.3205,0.1179,-0.839,0.2977,-0.934,0.3714,-0.2618,0.7421,-1.0701,-0.6741,-0.5137,1.186,-0.2756
1.6447,-0.5424,0.5786,-1.3205,0.1179,-0.839,0.2977,-0.934,0.3714,-0.2618,0.7421,-1.0701,-0.6741,-0.5137,1.186,-0.2756
1.5773,-0.4992,0.6009,-1.3526,0.0636,-0.8467,0.2909,-0.9536,0.3714,-0.2618,0.6702,-1.0447,-0.6555,-0.5405,1.1551,-0.2979
1.5773,-0.4992,0.6009,-1.3526,0.0636,-0.8467,0.2909,-0.9536,0.3714,-0.2618,0.6702,-1.0447,-0.6555,-0.5405,1.1551,-0.2979
1.5773,-0.4992,0.574,-1.3673,0.0276,-0.8519,0.2471,-0.949,0.3293,-0.247,0.6477,-1.0512,-0.5837,-0.586,1.1447,-0.3164
1.5773,-0.4992,0.574,-1.3673,0.0276,-0.8519,0.2471,-0.949,0.3293,-0.247,0.6477,-1.0512,-0.5837,-0.586,1.1447,-0.3164
1.5773,-0.4992,0.574,-1.3673,0.0276,-0.8519,0.2471,-0.949,0.3293,-0.247,0.6477,-1.0512,-0.5837,-0.586,1.1447,-0.3164
1.4331,-0.5063,0.5692,-1.4139,-0.0623,-0.8648,0.1429,-0.9451,0.3714,-0.2618,0.6477,-1.0512,-0.6023,-0.5593,1.1141,-0.3056
1.4331,-0.5063,0.5692,-1.4139,-0.0623,-0.8648,0.1429,-0.9451,0.3714,-0.2618,0.6477,-1.0512,-0.6023,-0.5593,1.1141,-0.3056
1.3214,-0.5054,0.5645,-1.4603,-0.1337,-0.8752,0.0928,-0.9601,0.3714,-0.2618,0.5894,-1.0451,-0.6209,-0.5324,1.0936,-0.3094
1.3214,-0.5054,0.5645,-1.4603,-0.1337,-0.8752,0.0928,-0.9601,0.3714,-0.2618,0.5894,-1.0451,-0.6209,-0.5324,1.0936,-0.3094
1.339,-0.5308,0.5692,-1.4139,-0.2403,-0.8907,0.0262,-0.9801,0.4306,-0.3013,0.5446,-1.0581,-0.7271,-0.4949,1.0325,-0.3208
1.339,-0.5308,0.5692,-1.4139,-0.2403,-0.8907,0.0262,-0.9801,0.4306,-0.3013,0.5446,-1.0581,-0.7271,-0.4949,1.0325,-0.3208
1.339,-0.5308,0.5692,-1.4139,-0.2403,-0.8907,0.0262,-0.9801,0.4306,-0.3013,0.5446,-1.0581,-0.7271,-0.4949,1.0325,-0.3208
1.339,-0.5308,0.5203,-1.3966,-0.2933,-0.8986,-0.0069,-0.9901,0.4558,-0.2916,0.5446,-1.0581,-0.7801,-0.4762,1.0426,-0.3354
1.339,-0.5308,0.5203,-1.3966,-0.2933,-0.8986,-0.0069,-0.9901,0.4558,-0.2916,0.5446,-1.0581,-0.7801,-0.4762,1.0426,-0.3354
1.339,-0.5308,0.5203,-1.3966,-0.2933,-0.8986,-0.0069,-0.9901,0.4558,-0.2916,0.5446,-1.0581,-0.7801,-0.4762,1.0426,-0.3354
1.388,-0.5481,0.4982,-1.3647,-0.2852,-0.9103,-0.0335,-0.9807,0.3965,-0.2521,0.5091,-1.0456,-0.8329,-0.4575,1.0121,-0.3246
1.388,-0.5481,0.4982,-1.3647,-0.2852,-0.9103,-0.0335,-0.9807,0.3965,-0.2521,0.5091,-1.0456,-0.8329,-0.4575,1.0121,-0.3246
1.388,-0.5481,0.4715,-1.3793,-0.2241,-0.9142,-0.0434,-0.9664,0.3293,-0.247,0.5091,-1.0456,-0.8484,-0.4925,1.002,-0.3101
1.4193,-0.54,0.4982,-1.3647,-0.0899,-0.8818,0.0328,-0.9607,0.3543,-0.2372,0.6027,-1.0642,-0.7615,-0.503,1.0326,-0.2878
1.4193,-0.54,0.4982,-1.3647,-0.0899,-0.8818,0.0328,-0.9607,0.3543,-0.2372,0.6027,-1.0642,-0.7615,-0.503,1.0326,-0.2878
1.567,-0.5922,0.5203,-1.3966,0.0735,-0.8322,0.0894,-0.9261,0.3794,-0.2275,0.6702,-1.0447,-0.6396,-0.5056,1.1347,-0.2686
1.6306,-0.5761,0.5471,-1.382,0.3288,-0.7962,0.2606,-0.9099,0.4297,-0.2079,0.7247,-1.0058,-0.4818,-0.5002,1.2685,-0.2603
1.6306,-0.5761,0.5471,-1.382,0.3288,-0.7962,0.2606,-0.9099,0.4297,-0.2079,0.7247,-1.0058,-0.4818,-0.5002,1.2685,-0.2603
1.6306,-0.5761,0.5471,-1.382,0.3288,-0.7962,0.2606,-0.9099,0.4297,-0.2079,0.7247,-1.0058,-0.4818,-0.5002,1.2685,-0.2603
1.6944,-0.56,0.574,-1.3673,0.526,-0.7291,0.4509,-0.8889,0.4801,-0.1884,0.7567,-0.9734,-0.3225,-0.4952,1.3932,-0.2374
1.6944,-0.56,0.574,-1.3673,0.526,-0.7291,0.4509,-0.8889,0.4801,-0.1884,0.7567,-0.9734,-0.3225,-0.4952,1.3932,-0.2374
1.6944,-0.56,0.574,-1.3673,0.526,-0.7291,0.4509,-0.8889,0.4801,-0.1884,0.7567,-0.9734,-0.3225,-0.4952,1.3932,-0.2374
1.6944,-0.56,0.574,-1.3673,0.526,-0.7291,0.4509,-0.8889,0.4801,-0.1884,0.7567,-0.9734,-0.3225,-0.4952,1.3932,-0.2374
1.6729,-0.4746,0.6501,-1.37,0.8572,-0.6707,0.7481,-0.8378,0.5816,-0.1491,0.9071,-0.9533,0.02,-0.5133,1.635,-0.2104
1.6729,-0.4746,0.6501,-1.37,0.8572,-0.6707,0.7481,-0.8378,0.5816,-0.1491,0.9071,-0.9533,0.02,-0.5133,1.635,-0.2104
1.6729,-0.4746,0.6501,-1.37,0.8572,-0.6707,0.7481,-0.8378,0.5816,-0.1491,0.9071,-0.9533,0.02,-0.5133,1.635,-0.2104
1.6729,-0.4746,0.7216,-1.4195,0.953,-0.658,0.8079,-0.8028,0.5816,-0.1491,0.9666,-0.9596,0.0925,-0.4975,1.7201,-0.1952
1.6729,-0.4746,0.7216,-1.4195,0.953,-0.658,0.8079,-0.8028,0.5816,-0.1491,0.9666,-0.9596,0.0925,-0.4975,1.7201,-0.1952
1.6729,-0.4746,0.7711,-1.4369,1.0193,-0.6628,0.871,-0.8025,0.6674,-0.1794,0.9897,-0.953,0.0906,-0.4344,1.7629,-0.1876
1.6729,-0.4746,0.7711,-1.4369,1.0193,-0.6628,0.871,-0.8025,0.6674,-0.1794,0.9897,-0.953,0.0906,-0.4344,1.7629,-0.1876
1.7549,-0.4841,0.8034,-1.3756,1.0773,-0.6552,0.896,-0.7774,0.693,-0.1696,1.0495,-0.9594,0.0523,-0.3791,1.8272,-0.1762
1.7549,-0.4841,0.8034,-1.3756,1.0773,-0.6552,0.896,-0.7774,0.693,-0.1696,1.0495,-0.9594,0.0523,-0.3791,1.8272,-0.1762
1.7549,-0.4841,0.8034,-1.3756,1.0773,-0.6552,0.896,-0.7774,0.693,-0.1696,1.0495,-0.9594,0.0523,-0.3791,1.8272,-0.1762
1.7549,-0.4841,0.7811,-1.3434,1.1139,-0.6775,0.9626,-0.8123,0.7013,-0.1347,1.0263,-0.966,0.0352,-0.4148,1.8377,-0.1913
1.7549,-0.4841,0.7811,-1.3434,1.1139,-0.6775,0.9626,-0.8123,0.7013,-0.1347,1.0263,-0.966,0.0352,-0.4148,1.8377,-0.1913
1.7049,-0.4665,0.7811,-1.3434,1.1031,-0.6924,0.9167,-0.8074,0.6245,-0.1642,1.0534,-1.005,-0.001,-0.4229,1.8057,-0.18
1.8051,-0.5019,0.8084,-1.3287,1.0472,-0.6726,0.8991,-0.8124,0.5562,-0.1589,1.0302,-1.0115,-0.0731,-0.439,1.731,-0.1764
1.8051,-0.5019,0.8084,-1.3287,1.0472,-0.6726,0.8991,-0.8124,0.5562,-0.1589,1.0302,-1.0115,-0.0731,-0.439,1.731,-0.1764
1.8553,-0.5196,0.8308,-1.361,0.9722,-0.6555,0.8918,-0.8324,0.6418,-0.1892,1.0167,-0.992,-0.0921,-0.4115,1.7206,-0.1613
1.8553,-0.5196,0.8308,-1.361,0.9722,-0.6555,0.8918,-0.8324,0.6418,-0.1892,1.0167,-0.992,-0.0921,-0.4115,1.7206,-0.1613
1.8732,-0.5454,0.7538,-1.3581,0.9146,-0.6631,0.8565,-0.8424,0.659,-0.2141,1.0167,-0.992,-0.0731,-0.439,1.731,-0.1764
1.8732,-0.5454,0.7538,-1.3581,0.9146,-0.6631,0.8565,-0.8424,0.659,-0.2141,1.0167,-0.992,-0.0731,-0.439,1.731,-0.1764
1.8732,-0.5454,0.7538,-1.3581,0.9146,-0.6631,0.8565,-0.8424,0.659,-0.2141,1.0167,-0.992,-0.0731,-0.439,1.731,-0.1764
1.8732,-0.5454,0.7538,-1.3581,0.9146,-0.6631,0.8565,-0.8424,0.659,-0.2141,1.0167,-0.992,-0.0731,-0.439,1.731,-0.1764
1.8374,-0.4937,0.7811,-1.3434,0.9232,-0.6754,0.8844,-0.8523,0.6162,-0.1989,0.9666,-0.9596,-0.0731,-0.439,1.7097,-0.1802
1.8374,-0.4937,0.7811,-1.3434,0.9232,-0.6754,0.8844,-0.8523,0.6162,-0.1989,0.9666,-0.9596,-0.0731,-0.439,1.7097,-0.1802
1.8374,-0.4937,0.7811,-1.3434,0.9232,-0.6754,0.8844,-0.8523,0.6162,-0.1989,0.9666,-0.9596,-0.0731,-0.439,1.7097,-0.1802
1.7871,-0.476,0.7811,-1.3434,0.9125,-0.6903,0.8389,-0.8475,0.6847,-0.2043,1.0032,-0.9725,-0.0371,-0.4309,1.6993,-0.1651
1.7871,-0.476,0.7811,-1.3434,0.9125,-0.6903,0.8389,-0.8475,0.6847,-0.2043,1.0032,-0.9725,-0.0371,-0.4309,1.6993,-0.1651
1.7871,-0.476,0.7811,-1.3434,0.9125,-0.6903,0.8389,-0.8475,0.6847,-0.2043,1.0032,-0.9725,-0.0371,-0.4309,1.6993,-0.1651
1.7871,-0.476,0.8308,-1.361,0.9211,-0.7026,0.8213,-0.8525,0.7276,-0.2195,1.0167,-0.992,-0.0753,-0.3758,1.6993,-0.1651
1.7871,-0.476,0.8308,-1.361,0.9211,-0.7026,0.8213,-0.8525,0.7276,-0.2195,1.0167,-0.992,-0.0753,-0.3758,1.6993,-0.1651
1.7871,-0.476,0.8308,-1.361,0.9211,-0.7026,0.8213,-0.8525,0.7276,-0.2195,1.0167,-0.992,-0.0753,-0.3758,1.6993,-0.1651
1.8194,-0.4678,0.7859,-1.2963,0.9402,-0.7001,0.8389,-0.8475,0.7707,-0.2347,1.0167,-0.992,-0.0562,-0.4034,1.6993,-0.1651
1.8194,-0.4678,0.7859,-1.2963,0.9402,-0.7001,0.8389,-0.8475,0.7707,-0.2347,1.0167,-0.992,-0.0562,-0.4034,1.6993,-0.1651
1.8194,-0.4678,0.7859,-1.2963,0.9402,-0.7001,0.8389,-0.8475,0.7707,-0.2347,1.0167,-0.992,-0.0562,-0.4034,1.6993,-0.1651
1.8517,-0.4597,0.8133,-1.2815,0.9488,-0.7124,0.8141,-0.8723,0.6757,-0.1446,0.9936,-0.9985,-0.1471,-0.392,1.6993,-0.1651
1.8517,-0.4597,0.8133,-1.2815,0.9488,-0.7124,0.8141,-0.8723,0.6757,-0.1446,0.9936,-0.9985,-0.1471,-0.392,1.6993,-0.1651
1.8194,-0.4678,0.8358,-1.3139,0.9381,-0.7272,0.7687,-0.8675,0.6245,-0.1642,1.0205,-1.0374,-0.1638,-0.4276,1.6884,-0.184
1.8374,-0.4937,0.8358,-1.3139,0.8913,-0.7199,0.744,-0.8923,0.5816,-0.1491,1.0205,-1.0374,-0.1995,-0.4357,1.6354,-0.1766
1.8374,-0.4937,0.8358,-1.3139,0.8913,-0.7199,0.744,-0.8923,0.5816,-0.1491,1.0205,-1.0374,-0.1995,-0.4357,1.6354,-0.1766
1.8374,-0.4937,0.8358,-1.3139,0.8913,-0.7199,0.744,-0.8923,0.5816,-0.1491,1.0205,-1.0374,-0.1995,-0.4357,1.6354,-0.1766
1.8374,-0.4937,0.7859,-1.2963,0.8341,-0.7275,0.7091,-0.9023,0.5989,-0.174,0.9706,-1.0051,-0.2351,-0.4438,1.6246,-0.1954
1.8374,-0.4937,0.7859,-1.2963,0.8341,-0.7275,0.7091,-0.9023,0.5989,-0.174,0.9706,-1.0051,-0.2351,-0.4438,1.6246,-0.1954
1.8374,-0.4937,0.7362,-1.2787,0.7771,-0.735,0.702,-0.922,0.6162,-0.1989,0.9341,-0.9922,-0.2162,-0.4711,1.5823,-0.203
1.7728,-0.51,0.709,-1.2936,0.7014,-0.7452,0.6396,-0.9223,0.5653,-0.2185,0.8747,-0.9859,-0.2328,-0.5063,1.5504,-0.2256
1.7728,-0.51,0.709,-1.2936,0.7014,-0.7452,0.6396,-0.9223,0.5653,-0.2185,0.8747,-0.9859,-0.2328,-0.5063,1.5504,-0.2256
1.6908,-0.5004,0.6325,-1.2909,0.6074,-0.7578,0.5776,-0.9225,0.5227,-0.2034,0.8156,-0.9796,-0.2683,-0.5143,1.5083,-0.2332
1.6908,-0.5004,0.6325,-1.2909,0.6074,-0.7578,0.5776,-0.9225,0.5227,-0.2034,0.8156,-0.9796,-0.2683,-0.5143,1.5083,-0.2332
1.6588,-0.5086,0.6548,-1.3231,0.5056,-0.7585,0.4884,-0.9132,0.5054,-0.1786,0.8156,-0.9796,-0.2871,-0.4871,1.4769,-0.2221
1.6588,-0.5086,0.6548,-1.3231,0.5056,-0.7585,0.4884,-0.9132,0.5054,-0.1786,0.8156,-0.9796,-0.2871,-0.4871,1.4769,-0.2221
1.6269,-0.5167,0.6771,-1.3553,0.4312,-0.7687,0.4269,-0.9135,0.5653,-0.2185,0.8062,-1.0055,-0.3602,-0.4408,1.435,-0.2297
1.6269,-0.5167,0.6771,-1.3553,0.4312,-0.7687,0.4269,-0.9135,0.5653,-0.2185,0.8062,-1.0055,-0.3602,-0.4408,1.435,-0.2297
1.6269,-0.5167,0.6771,-1.3553,0.4312,-0.7687,0.4269,-0.9135,0.5653,-0.2185,0.8062,-1.0055,-0.3602,-0.4408,1.435,-0.2297
1.5773,-0.4992,0.6771,-1.3553,0.3758,-0.7764,0.4029,-0.9382,0.6335,-0.2238,0.8425,-1.0183,-0.3792,-0.4135,1.435,-0.2297
1.5773,-0.4992,0.6771,-1.3553,0.3758,-0.7764,0.4029,-0.9382,0.6335,-0.2238,0.8425,-1.0183,-0.3792,-0.4135,1.435,-0.2297
1.5773,-0.4992,0.6771,-1.3553,0.3758,-0.7764,0.4029,-0.9382,0.6335,-0.2238,0.8425,-1.0183,-0.3792,-0.4135,1.435,-0.2297
1.6447,-0.5424,0.6548,-1.3231,0.2654,-0.7919,0.3449,-0.9726,0.5907,-0.2087,0.7969,-1.0313,-0.5033,-0.4108,1.4761,-0.289
1.6447,-0.5424,0.6548,-1.3231,0.2654,-0.7919,0.3449,-0.9726,0.5907,-0.2087,0.7969,-1.0313,-0.5033,-0.4108,1.4761,-0.289
1.6269,-0.5167,0.6325,-1.2909,0.2288,-0.797,0.328,-0.9776,0.5135,-0.1439,0.7608,-1.0186,-0.5382,-0.419,1.4552,-0.2928
1.6269,-0.5167,0.6325,-1.2909,0.2288,-0.797,0.328,-0.9776,0.5135,-0.1439,0.7608,-1.0186,-0.5382,-0.419,1.4552,-0.2928
1.6269,-0.5167,0.6325,-1.2909,0.2288,-0.797,0.328,-0.9776,0.5135,-0.1439,0.7608,-1.0186,-0.5382,-0.419,1.4552,-0.2928
1.6269,-0.5167,0.5339,-1.2561,0.2354,-0.8355,0.2672,-0.978,0.4709,-0.1288,0.7247,-1.0058,-0.5194,-0.4461,1.3826,-0.256
1.6269,-0.5167,0.5339,-1.2561,0.2354,-0.8355,0.2672,-0.978,0.4709,-0.1288,0.7247,-1.0058,-0.5194,-0.4461,1.3826,-0.256
1.6091,-0.491,0.5831,-1.2735,0.1989,-0.8406,0.2503,-0.983,0.4032,-0.1237,0.7514,-1.0443,-0.5702,-0.4894,1.2997,-0.2379
1.6091,-0.491,0.5831,-1.2735,0.1989,-0.8406,0.2503,-0.983,0.4032,-0.1237,0.7514,-1.0443,-0.5702,-0.4894,1.2997,-0.2379
1.6269,-0.5167,0.6055,-1.3057,0.1625,-0.8457,0.1898,-0.9835,0.353,-0.1435,0.7781,-1.0828,-0.5863,-0.5244,1.2274,-0.2346
1.6269,-0.5167,0.6055,-1.3057,0.1625,-0.8457,0.1898,-0.9835,0.353,-0.1435,0.7781,-1.0828,-0.5863,-0.5244,1.2274,-0.2346
1.6128,-0.5505,0.5517,-1.3352,0.0013,-0.8426,0.1228,-1.0034,0.3702,-0.1683,0.7381,-1.0251,-0.5676,-0.5513,1.1554,-0.2315
1.6128,-0.5505,0.5517,-1.3352,0.0013,-0.8426,0.1228,-1.0034,0.3702,-0.1683,0.7381,-1.0251,-0.5676,-0.5513,1.1554,-0.2315
1.5951,-0.5248,0.5517,-1.3352,-0.0787,-0.8411,0.126,-1.0371,0.3702,-0.1683,0.7247,-1.0058,-0.5863,-0.5244,1.1451,-0.25
1.5951,-0.5248,0.5517,-1.3352,-0.0787,-0.8411,0.126,-1.0371,0.3702,-0.1683,0.7247,-1.0058,-0.5863,-0.5244,1.1451,-0.25
1.5951,-0.5248,0.5517,-1.3352,-0.0787,-0.8411,0.126,-1.0371,0.3702,-0.1683,0.7247,-1.0058,-0.5863,-0.5244,1.1451,-0.25
1.5277,-0.4817,0.574,-1.3673,-0.1241,-0.8608,0.0827,-1.0326,0.3702,-0.1683,0.7247,-1.0058,-0.4794,-0.5622,1.1245,-0.2539
1.5277,-0.4817,0.574,-1.3673,-0.1241,-0.8608,0.0827,-1.0326,0.3702,-0.1683,0.7247,-1.0058,-0.4794,-0.5622,1.1245,-0.2539
1.5277,-0.4817,0.574,-1.3673,-0.1241,-0.8608,0.0827,-1.0326,0.3702,-0.1683,0.7247,-1.0058,-0.4794,-0.5622,1.1245,-0.2539
1.4153,-0.4807,0.5692,-1.4139,-0.2049,-0.8855,-0.0036,-1.0238,0.3451,-0.1781,0.7021,-1.0124,-0.4794,-0.5622,1.0836,-0.2616
1.4153,-0.4807,0.5692,-1.4139,-0.2049,-0.8855,-0.0036,-1.0238,0.3451,-0.1781,0.7021,-1.0124,-0.4794,-0.5622,1.0836,-0.2616
1.4153,-0.4807,0.5692,-1.4139,-0.2049,-0.8855,-0.0036,-1.0238,0.3451,-0.1781,0.7021,-1.0124,-0.4794,-0.5622,1.0836,-0.2616
1.3037,-0.4798,0.5692,-1.4139,-0.3028,-0.9129,-0.1224,-1.025,0.3794,-0.2275,0.6077,-0.9936,-0.6236,-0.4705,1.0326,-0.2878
1.3037,-0.4798,0.5692,-1.4139,-0.3028,-0.9129,-0.1224,-1.025,0.3794,-0.2275,0.6077,-0.9936,-0.6236,-0.4705,1.0326,-0.2878
1.3037,-0.4798,0.574,-1.3673,-0.338,-0.9181,-0.1913,-1.0114,0.3965,-0.2521,0.5853,-1.0002,-0.6582,-0.4786,1.0122,-0.2916
1.3037,-0.4798,0.574,-1.3673,-0.338,-0.9181,-0.1913,-1.0114,0.3965,-0.2521,0.5853,-1.0002,-0.6582,-0.4786,1.0122,-0.2916
1.3526,-0.4971,0.5517,-1.3352,-0.338,-0.9181,-0.1815,-1.0257,0.3794,-0.2275,0.5629,-1.0067,-0.6927,-0.4868,1.0528,-0.317
1.3526,-0.4971,0.5517,-1.3352,-0.338,-0.9181,-0.1815,-1.0257,0.3794,-0.2275,0.5629,-1.0067,-0.6927,-0.4868,1.0528,-0.317
1.4193,-0.54,0.5249,-1.35,-0.2417,-0.9168,-0.1815,-1.0257,0.3543,-0.2372,0.5629,-1.0067,-0.6741,-0.5137,1.0732,-0.3132
1.4193,-0.54,0.5249,-1.35,-0.2417,-0.9168,-0.1815,-1.0257,0.3543,-0.2372,0.5629,-1.0067,-0.6741,-0.5137,1.0732,-0.3132
1.388,-0.5481,0.4982,-1.3647,-0.0996,-0.8961,-0.1487,-1.0157,0.2873,-0.2321,0.5762,-1.0259,-0.7271,-0.4949,1.0835,-0.2947
1.388,-0.5481,0.4982,-1.3647,-0.0996,-0.8961,-0.1487,-1.0157,0.2873,-0.2321,0.5762,-1.0259,-0.7271,-0.4949,1.0835,-0.2947
1.4685,-0.5573,0.5471,-1.382,0.0998,-0.8415,-0.05,-0.9857,0.3122,-0.2224,0.6928,-1.0381,-0.6049,-0.4975,1.1451,-0.25
1.4685,-0.5573,0.5471,-1.382,0.0998,-0.8415,-0.05,-0.9857,0.3122,-0.2224,0.6928,-1.0381,-0.6049,-0.4975,1.1451,-0.25
1.4685,-0.5573,0.5471,-1.382,0.0998,-0.8415,-0.05,-0.9857,0.3122,-0.2224,0.6928,-1.0381,-0.6049,-0.4975,1.1451,-0.25
1.6306,-0.5761,0.5517,-1.3352,0.3389,-0.7816,0.1262,-0.9501,0.3623,-0.2028,0.7608,-1.0186,-0.5006,-0.4732,1.2687,-0.2269
1.6306,-0.5761,0.5517,-1.3352,0.3389,-0.7816,0.1262,-0.9501,0.3623,-0.2028,0.7608,-1.0186,-0.5006,-0.4732,1.2687,-0.2269
1.6306,-0.5761,0.5517,-1.3352,0.3389,-0.7816,0.1262,-0.9501,0.3623,-0.2028,0.7608,-1.0186,-0.5006,-0.4732,1.2687,-0.2269
1.7728,-0.51,0.6278,-1.3379,0.7621,-0.6835,0.5227,-0.9031,0.4882,-0.1537,0.9071,-0.9533,-0.1448,-0.455,1.5511,-0.1581
1.7728,-0.51,0.6278,-1.3379,0.7621,-0.6835,0.5227,-0.9031,0.4882,-0.1537,0.9071,-0.9533,-0.1448,-0.455,1.5511,-0.1581
1.8194,-0.4678,0.7043,-1.3406,0.9338,-0.6606,0.6989,-0.8875,0.5389,-0.134,0.9531,-0.9401,-0.018,-0.4584,1.6254,-0.1277
1.8194,-0.4678,0.7043,-1.3406,0.9338,-0.6606,0.6989,-0.8875,0.5389,-0.134,0.9531,-0.9401,-0.018,-0.4584,1.6254,-0.1277
1.8194,-0.4678,0.7538,-1.3581,1.0579,-0.6577,0.8038,-0.8575,0.6327,-0.1294,1.0495,-0.9594,0.0906,-0.4344,1.7211,-0.1273
1.8194,-0.4678,0.7538,-1.3581,1.0579,-0.6577,0.8038,-0.8575,0.6327,-0.1294,1.0495,-0.9594,0.0906,-0.4344,1.7211,-0.1273
1.8517,-0.4597,0.8308,-1.361,1.1355,-0.6477,0.8741,-0.8374,0.7187,-0.1598,1.0727,-0.9529,0.1078,-0.3987,1.7958,-0.1309
1.8517,-0.4597,0.8308,-1.361,1.1355,-0.6477,0.8741,-0.8374,0.7187,-0.1598,1.0727,-0.9529,0.1078,-0.3987,1.7958,-0.1309
1.8337,-0.4337,0.8582,-1.3463,1.1744,-0.6426,0.8991,-0.8124,0.7702,-0.1402,1.0959,-0.9463,0.0693,-0.3432,1.8709,-0.1346
1.8337,-0.4337,0.8582,-1.3463,1.1744,-0.6426,0.8991,-0.8124,0.7702,-0.1402,1.0959,-0.9463,0.0693,-0.3432,1.8709,-0.1346
1.8661,-0.4255,0.8632,-1.2991,1.2417,-0.6476,0.9448,-0.8173,0.7786,-0.1052,1.1192,-0.9398,0.0693,-0.3432,1.9246,-0.1421
1.8661,-0.4255,0.8632,-1.2991,1.2417,-0.6476,0.9448,-0.8173,0.7786,-0.1052,1.1192,-0.9398,0.0693,-0.3432,1.9246,-0.1421
1.8661,-0.4255,0.8632,-1.2991,1.2417,-0.6476,0.9448,-0.8173,0.7786,-0.1052,1.1192,-0.9398,0.0693,-0.3432,1.9246,-0.1421
1.9167,-0.4433,0.9183,-1.2695,1.2982,-0.6676,0.9626,-0.8123,0.7096,-0.0998,1.0727,-0.9529,0.016,-0.3872,1.8814,-0.1497
1.9167,-0.4433,0.9183,-1.2695,1.2982,-0.6676,0.9626,-0.8123,0.7096,-0.0998,1.0727,-0.9529,0.016,-0.3872,1.8814,-0.1497
1.8661,-0.4255,0.9183,-1.2695,1.2786,-0.67,0.9552,-0.8323,0.7013,-0.1347,1.1231,-0.9854,-0.0201,-0.3953,1.8173,-0.1271
1.8661,-0.4255,0.9183,-1.2695,1.2786,-0.67,0.9552,-0.8323,0.7013,-0.1347,1.1231,-0.9854,-0.0201,-0.3953,1.8173,-0.1271
1.8661,-0.4255,0.9183,-1.2695,1.2308,-0.6625,0.9478,-0.8522,0.6757,-0.1446,1.0998,-0.9919,-0.0921,-0.4115,1.8063,-0.146
1.8661,-0.4255,0.9183,-1.2695,1.2308,-0.6625,0.9478,-0.8522,0.6757,-0.1446,1.0998,-0.9919,-0.0921,-0.4115,1.8063,-0.146
1.9347,-0.4694,0.8681,-1.2517,1.1831,-0.6551,0.9301,-0.8572,0.6071,-0.1393,1.063,-0.979,-0.128,-0.4195,1.7529,-0.1386
1.9347,-0.4694,0.8681,-1.2517,1.1831,-0.6551,0.9301,-0.8572,0.6071,-0.1393,1.063,-0.979,-0.128,-0.4195,1.7529,-0.1386
1.9167,-0.4433,0.8681,-1.2517,1.1355,-0.6477,0.9788,-0.8969,0.65,-0.1544,1.0862,-0.9724,-0.0921,-0.4115,1.7211,-0.1273
1.9167,-0.4433,0.8681,-1.2517,1.1355,-0.6477,0.9788,-0.8969,0.65,-0.1544,1.0862,-0.9724,-0.0921,-0.4115,1.7211,-0.1273
1.9167,-0.4433,0.8681,-1.2517,1.1355,-0.6477,0.9788,-0.8969,0.65,-0.1544,1.0862,-0.9724,-0.0921,-0.4115,1.7211,-0.1273
1.9167,-0.4433,0.8681,-1.2517,1.1355,-0.6477,0.9788,-0.8969,0.65,-0.1544,1.0862,-0.9724,-0.0921,-0.4115,1.7211,-0.1273
1.8337,-0.4337,0.8632,-1.2991,1.1247,-0.6626,0.9228,-0.8771,0.6674,-0.1794,1.0263,-0.966,0.0372,-0.4779,1.6997,-0.1312
1.8337,-0.4337,0.8632,-1.2991,1.1247,-0.6626,0.9228,-0.8771,0.6674,-0.1794,1.0263,-0.966,0.0372,-0.4779,1.6997,-0.1312
1.8337,-0.4337,0.8632,-1.2991,1.1247,-0.6626,0.9228,-0.8771,0.6674,-0.1794,1.0263,-0.966,0.0372,-0.4779,1.6997,-0.1312
1.687,-0.4406,0.8308,-1.361,1.0386,-0.6603,0.8316,-0.8673,0.736,-0.1848,1.0128,-0.9465,0.0352,-0.4148,1.7211,-0.1273
1.687,-0.4406,0.8308,-1.361,1.0386,-0.6603,0.8316,-0.8673,0.736,-0.1848,1.0128,-0.9465,0.0352,-0.4148,1.7211,-0.1273
1.7692,-0.4501,0.8582,-1.3463,1.0665,-0.6701,0.8595,-0.8772,0.8483,-0.2056,1.0495,-0.9594,0.0523,-0.3791,1.7424,-0.1235
1.7692,-0.4501,0.8582,-1.3463,1.0665,-0.6701,0.8595,-0.8772,0.8483,-0.2056,1.0495,-0.9594,0.0523,-0.3791,1.7424,-0.1235
1.7871,-0.476,0.8358,-1.3139,1.0472,-0.6726,0.8522,-0.897,0.8309,-0.1805,1.0495,-0.9594,-0.0585,-0.34,1.7743,-0.1348
1.7871,-0.476,0.8358,-1.3139,1.0472,-0.6726,0.8522,-0.897,0.8309,-0.1805,1.0495,-0.9594,-0.0585,-0.34,1.7743,-0.1348
1.8194,-0.4678,0.8133,-1.2815,1.0558,-0.685,0.8522,-0.897,0.8394,-0.1456,1.0862,-0.9724,-0.0777,-0.3123,1.8278,-0.1422
1.8194,-0.4678,0.8133,-1.2815,1.0558,-0.685,0.8522,-0.897,0.8394,-0.1456,1.0862,-0.9724,-0.0777,-0.3123,1.8278,-0.1422
1.8194,-0.4678,0.8133,-1.2815,1.0558,-0.685,0.8522,-0.897,0.8394,-0.1456,1.0862,-0.9724,-0.0777,-0.3123,1.8278,-0.1422
1.8337,-0.4337,0.7907,-1.249,1.0558,-0.685,0.8243,-0.8872,0.8135,-0.1554,1.063,-0.979,-0.0945,-0.3482,1.7743,-0.1348
1.8337,-0.4337,0.7907,-1.249,1.0558,-0.685,0.8243,-0.8872,0.8135,-0.1554,1.063,-0.979,-0.0945,-0.3482,1.7743,-0.1348
1.8337,-0.4337,0.7907,-1.249,1.0558,-0.685,0.8243,-0.8872,0.8135,-0.1554,1.063,-0.979,-0.0945,-0.3482,1.7743,-0.1348
1.8842,-0.4515,0.8632,-1.2991,0.9979,-0.6925,0.7995,-0.9119,0.7013,-0.1347,1.1636,-1.0439,-0.2019,-0.3727,1.6575,-0.1049
1.8842,-0.4515,0.8632,-1.2991,0.9979,-0.6925,0.7995,-0.9119,0.7013,-0.1347,1.1636,-1.0439,-0.2019,-0.3727,1.6575,-0.1049
1.8842,-0.4515,0.8632,-1.2991,0.9979,-0.6925,0.7995,-0.9119,0.7013,-0.1347,1.1636,-1.0439,-0.2019,-0.3727,1.6575,-0.1049
1.8842,-0.4515,0.8358,-1.3139,0.9232,-0.6754,0.7543,-0.9071,0.6757,-0.1446,1.1636,-1.0439,-0.2375,-0.3809,1.6467,-0.1238
1.8842,-0.4515,0.8358,-1.3139,0.9232,-0.6754,0.7543,-0.9071,0.6757,-0.1446,1.1636,-1.0439,-0.2375,-0.3809,1.6467,-0.1238
1.8842,-0.4515,0.8358,-1.3139,0.9232,-0.6754,0.7543,-0.9071,0.6757,-0.1446,1.1636,-1.0439,-0.2375,-0.3809,1.6467,-0.1238
2.0034,-0.5132,0.8582,-1.3463,0.7811,-0.681,0.7224,-0.9515,0.6153,-0.1044,1.063,-0.979,-0.1638,-0.4276,1.6042,-0.1316
2.0034,-0.5132,0.8582,-1.3463,0.7811,-0.681,0.7224,-0.9515,0.6153,-0.1044,1.063,-0.979,-0.1638,-0.4276,1.6042,-0.1316
1.9347,-0.4694,0.8582,-1.3463,0.7327,-0.7009,0.6876,-0.9614,0.6839,-0.1097,1.0727,-0.9529,-0.0731,-0.439,1.6463,-0.1578
1.9347,-0.4694,0.8582,-1.3463,0.7327,-0.7009,0.6876,-0.9614,0.6839,-0.1097,1.0727,-0.9529,-0.0731,-0.439,1.6463,-0.1578
1.9347,-0.4694,0.8582,-1.3463,0.7327,-0.7009,0.6876,-0.9614,0.6839,-0.1097,1.0727,-0.9529,-0.0731,-0.439,1.6463,-0.1578
1.8697,-0.4856,0.8308,-1.361,0.6741,-0.7355,0.6254,-0.9616,0.6409,-0.0945,1.0495,-0.9594,0.001,-0.4859,1.6354,-0.1766
1.8697,-0.4856,0.8308,-1.361,0.6741,-0.7355,0.6254,-0.9616,0.6409,-0.0945,1.0495,-0.9594,0.001,-0.4859,1.6354,-0.1766
1.8697,-0.4856,0.8308,-1.361,0.6741,-0.7355,0.6254,-0.9616,0.6409,-0.0945,1.0495,-0.9594,0.001,-0.4859,1.6354,-0.1766
1.7871,-0.476,0.8532,-1.3932,0.5718,-0.7361,0.5634,-0.9618,0.5979,-0.0793,0.9897,-0.953,-0.0731,-0.439,1.6246,-0.1954
1.7871,-0.476,0.8532,-1.3932,0.5718,-0.7361,0.5634,-0.9618,0.5979,-0.0793,0.9897,-0.953,-0.0731,-0.439,1.6246,-0.1954
1.655,-0.4488,0.8308,-1.361,0.4869,-0.761,0.4674,-0.972,0.6757,-0.1446,0.9301,-0.9467,-0.2019,-0.3727,1.5193,-0.1808
1.655,-0.4488,0.8308,-1.361,0.4869,-0.761,0.4674,-0.972,0.6757,-0.1446,0.9301,-0.9467,-0.2019,-0.3727,1.5193,-0.1808
1.6231,-0.457,0.7587,-1.3111,0.4312,-0.7687,0.4162,-0.9868,0.6327,-0.1294,0.9071,-0.9533,-0.2375,-0.3809,1.54,-0.2107
