1.5667,0.3164,1.1096,0.9132,-0.5543,-0.085,-0.3079,-0.3218,1.0945,-0.7224,1.2422,0.0067,-1.0736,-0.2225,-0.6894,-0.0788
1.5736,0.3329,1.1096,0.9132,-0.5601,-0.0894,-0.2852,-0.3319,1.1562,-0.7546,1.2281,0.0222,-1.0684,-0.2192,-0.6841,-0.0807
1.5736,0.3329,1.1096,0.9132,-0.5601,-0.0894,-0.2852,-0.3319,1.1562,-0.7546,1.2281,0.0222,-1.0684,-0.2192,-0.6841,-0.0807
1.5265,0.3876,1.1028,0.918,-0.56,-0.1024,-0.2727,-0.3363,1.191,-0.7669,1.2179,0.0321,-1.0585,-0.2227,-0.6766,-0.0857
1.5265,0.3876,1.1028,0.918,-0.56,-0.1024,-0.2727,-0.3363,1.191,-0.7669,1.2179,0.0321,-1.0585,-0.2227,-0.6766,-0.0857
1.4662,0.4216,1.105,0.9148,-0.5714,-0.1241,-0.2952,-0.3221,1.1895,-0.7457,1.209,0.0353,-1.0234,-0.23,-0.6766,-0.0857
1.4662,0.4216,1.105,0.9148,-0.5714,-0.1241,-0.2952,-0.3221,1.1895,-0.7457,1.209,0.0353,-1.0234,-0.23,-0.6766,-0.0857
1.4662,0.4216,1.105,0.9148,-0.5714,-0.1241,-0.2952,-0.3221,1.1895,-0.7457,1.209,0.0353,-1.0234,-0.23,-0.6766,-0.0857
1.4173,0.4262,1.1206,0.8973,-0.5887,-0.1501,-0.3264,-0.3132,1.1784,-0.7107,1.2041,0.0328,-0.9935,-0.2405,-0.6924,-0.0802
1.4173,0.4262,1.1206,0.8973,-0.5887,-0.1501,-0.3264,-0.3132,1.1784,-0.7107,1.2041,0.0328,-0.9935,-0.2405,-0.6924,-0.0802
1.4173,0.4262,1.1206,0.8973,-0.5887,-0.1501,-0.3264,-0.3132,1.1784,-0.7107,1.2041,0.0328,-0.9935,-0.2405,-0.6924,-0.0802
1.411,0.4221,1.112,0.9148,-0.5886,-0.1629,-0.3639,-0.3041,1.2724,-0.7127,1.2019,0.0168,-1.0271,-0.2029,-0.7121,-0.0804
1.411,0.4221,1.112,0.9148,-0.5886,-0.1629,-0.3639,-0.3041,1.2724,-0.7127,1.2019,0.0168,-1.0271,-0.2029,-0.7121,-0.0804
1.411,0.4221,1.112,0.9148,-0.5886,-0.1629,-0.3639,-0.3041,1.2724,-0.7127,1.2019,0.0168,-1.0271,-0.2029,-0.7121,-0.0804
1.3993,0.4389,1.1007,0.926,-0.5887,-0.1501,-0.3702,-0.304,1.3237,-0.71,1.1969,0.0143,-1.0617,-0.1855,-0.7099,-0.0836
1.3935,0.4473,1.0963,0.9323,-0.5478,-0.1581,-0.3766,-0.3039,1.2757,-0.6408,1.1919,0.0119,-1.102,-0.1816,-0.7033,-0.0932
1.3935,0.4473,1.0963,0.9323,-0.5478,-0.1581,-0.3766,-0.3039,1.2757,-0.6408,1.1919,0.0119,-1.102,-0.1816,-0.7033,-0.0932
1.3998,0.4514,1.0963,0.9323,-0.4834,-0.1744,-0.3848,-0.301,1.2081,-0.5433,1.185,0.0122,-1.1124,-0.1882,-0.7033,-0.0932
1.3998,0.4514,1.0963,0.9323,-0.4834,-0.1744,-0.3848,-0.301,1.2081,-0.5433,1.185,0.0122,-1.1124,-0.1882,-0.7033,-0.0932
1.3877,0.4557,1.0939,0.9308,-0.4717,-0.1657,-0.3912,-0.3008,1.1202,-0.5123,1.1814,0.003,-1.119,-0.2219,-0.7304,-0.0884
1.3877,0.4557,1.0939,0.9308,-0.4717,-0.1657,-0.3912,-0.3008,1.1202,-0.5123,1.1814,0.003,-1.119,-0.2219,-0.7304,-0.0884
1.3993,0.4389,1.0822,0.9277,-0.5129,-0.1319,-0.3997,-0.302,1.0399,-0.5679,1.1831,-0.0186,-1.1411,-0.2653,-0.7658,-0.0831
1.3993,0.4389,1.0822,0.9277,-0.5129,-0.1319,-0.3997,-0.302,1.0399,-0.5679,1.1831,-0.0186,-1.1411,-0.2653,-0.7658,-0.0831
1.4294,0.4219,1.0682,0.9278,-0.554,-0.1109,-0.404,-0.3047,0.9834,-0.6002,1.1888,-0.0269,-1.1619,-0.2784,-0.7906,-0.0815
1.4114,0.4346,1.0611,0.9231,-0.5775,-0.1026,-0.396,-0.3118,0.9774,-0.6293,1.1742,-0.0155,-1.1769,-0.2782,-0.8072,-0.0805
1.4114,0.4346,1.0611,0.9231,-0.5775,-0.1026,-0.396,-0.3118,0.9774,-0.6293,1.1742,-0.0155,-1.1769,-0.2782,-0.8072,-0.0805
1.4114,0.4346,1.0611,0.9231,-0.5775,-0.1026,-0.396,-0.3118,0.9774,-0.6293,1.1742,-0.0155,-1.1769,-0.2782,-0.8072,-0.0805
1.363,0.4517,1.0424,0.9201,-0.5948,-0.1158,-0.4065,-0.3102,0.9965,-0.6568,1.1553,-0.0025,-1.1623,-0.2885,-0.811,-0.0863
1.363,0.4517,1.0424,0.9201,-0.5948,-0.1158,-0.4065,-0.3102,0.9965,-0.6568,1.1553,-0.0025,-1.1623,-0.2885,-0.811,-0.0863
1.2953,0.4313,1.0347,0.9012,-0.6469,-0.1423,-0.4339,-0.311,1.0233,-0.6766,1.1333,0.0053,-1.1229,-0.3024,-0.8088,-0.0895
1.2953,0.4313,1.0347,0.9012,-0.6469,-0.1423,-0.4339,-0.311,1.0233,-0.6766,1.1333,0.0053,-1.1229,-0.3024,-0.8088,-0.0895
1.2523,0.4149,1.0296,0.8886,-0.6932,-0.1516,-0.4569,-0.3092,1.0407,-0.6827,1.1201,0.01,-1.1219,-0.2824,-0.8058,-0.0882
1.2577,0.394,1.0137,0.8966,-0.7047,-0.1603,-0.4714,-0.3062,1.1007,-0.6936,1.1195,0.006,-1.1548,-0.2349,-0.805,-0.0836
1.2577,0.394,1.0137,0.8966,-0.7047,-0.1603,-0.4714,-0.3062,1.1007,-0.6936,1.1195,0.006,-1.1548,-0.2349,-0.805,-0.0836
1.2635,0.3857,0.9978,0.9047,-0.6988,-0.1687,-0.4736,-0.3075,1.1784,-0.7107,1.1151,0.0075,-1.1835,-0.2042,-0.7937,-0.0828
1.2635,0.3857,0.9978,0.9047,-0.6988,-0.1687,-0.4736,-0.3075,1.1784,-0.7107,1.1151,0.0075,-1.1835,-0.2042,-0.7937,-0.0828
1.2635,0.3857,0.9978,0.9047,-0.6988,-0.1687,-0.4736,-0.3075,1.1784,-0.7107,1.1151,0.0075,-1.1835,-0.2042,-0.7937,-0.0828
1.2817,0.3856,0.991,0.9095,-0.6466,-0.1808,-0.4813,-0.2964,1.1927,-0.6741,1.1151,0.0075,-1.2178,-0.187,-0.7614,-0.0894
1.2817,0.3856,0.991,0.9095,-0.6466,-0.1808,-0.4813,-0.2964,1.1927,-0.6741,1.1151,0.0075,-1.2178,-0.187,-0.7614,-0.0894
1.3123,0.3937,0.9888,0.9126,-0.5827,-0.1842,-0.4707,-0.2938,1.1447,-0.605,1.1132,0.0103,-1.223,-0.1903,-0.7409,-0.0847
1.331,0.406,1.0047,0.9046,-0.5829,-0.1457,-0.4559,-0.2927,1.0844,-0.5941,1.1333,0.0053,-1.2191,-0.2173,-0.7398,-0.0634
1.331,0.406,1.0047,0.9046,-0.5829,-0.1457,-0.4559,-0.2927,1.0844,-0.5941,1.1333,0.0053,-1.2191,-0.2173,-0.7398,-0.0634
1.3975,0.3888,1.0161,0.8982,-0.5831,-0.1199,-0.439,-0.2903,1.0608,-0.6171,1.1621,-0.0028,-1.2102,-0.2409,-0.732,-0.0517
1.3975,0.3888,1.0161,0.8982,-0.5831,-0.1199,-0.439,-0.2903,1.0608,-0.6171,1.1621,-0.0028,-1.2102,-0.2409,-0.732,-0.0517
1.3975,0.3888,1.0161,0.8982,-0.5831,-0.1199,-0.439,-0.2903,1.0608,-0.6171,1.1621,-0.0028,-1.2102,-0.2409,-0.732,-0.0517
1.4585,0.3799,1.023,0.8981,-0.6009,-0.0944,-0.4137,-0.2907,1.0861,-0.6156,1.1889,0.0066,-1.1853,-0.2446,-0.7151,-0.036
1.4585,0.3799,1.023,0.8981,-0.6009,-0.0944,-0.4137,-0.2907,1.0861,-0.6156,1.1889,0.0066,-1.1853,-0.2446,-0.7151,-0.036
1.4585,0.3799,1.023,0.8981,-0.6009,-0.0944,-0.4137,-0.2907,1.0861,-0.6156,1.1889,0.0066,-1.1853,-0.2446,-0.7151,-0.036
1.4653,0.3965,1.0278,0.9013,-0.6126,-0.0902,-0.3722,-0.3012,1.1018,-0.6003,1.2016,0.0316,-1.1501,-0.2417,-0.6907,-0.0252
1.4653,0.3965,1.0278,0.9013,-0.6126,-0.0902,-0.3722,-0.3012,1.1018,-0.6003,1.2016,0.0316,-1.1501,-0.2417,-0.6907,-0.0252
1.4653,0.3965,1.0278,0.9013,-0.6126,-0.0902,-0.3722,-0.3012,1.1018,-0.6003,1.2016,0.0316,-1.1501,-0.2417,-0.6907,-0.0252
1.401,0.4892,1.0417,0.9011,-0.5948,-0.1158,-0.3195,-0.305,1.122,-0.534,1.2337,0.0624,-1.0987,-0.2188,-0.6107,-0.0196
1.401,0.4892,1.0417,0.9011,-0.5948,-0.1158,-0.3195,-0.305,1.122,-0.534,1.2337,0.0624,-1.0987,-0.2188,-0.6107,-0.0196
1.3522,0.4937,1.0551,0.8868,-0.5887,-0.1501,-0.3336,-0.2937,1.1377,-0.5185,1.2486,0.0698,-1.0333,-0.2264,-0.574,-0.0204
1.3522,0.4937,1.0551,0.8868,-0.5887,-0.1501,-0.3336,-0.2937,1.1377,-0.5185,1.2486,0.0698,-1.0333,-0.2264,-0.574,-0.0204
1.321,0.4729,1.0731,0.8709,-0.6002,-0.1716,-0.3522,-0.285,1.1202,-0.5123,1.2714,0.066,-0.9782,-0.2407,-0.5479,-0.0175
1.321,0.4729,1.0731,0.8709,-0.6002,-0.1716,-0.3522,-0.285,1.1202,-0.5123,1.2714,0.066,-0.9782,-0.2407,-0.5479,-0.0175
1.3206,0.4603,1.0868,0.866,-0.6002,-0.1716,-0.3582,-0.2807,1.1571,-0.5464,1.2847,0.0613,-0.9819,-0.2137,-0.5302,-0.014
1.3206,0.4603,1.0868,0.866,-0.6002,-0.1716,-0.3582,-0.2807,1.1571,-0.5464,1.2847,0.0613,-0.9819,-0.2137,-0.5302,-0.014
1.3206,0.4603,1.0868,0.866,-0.6002,-0.1716,-0.3582,-0.2807,1.1571,-0.5464,1.2847,0.0613,-0.9819,-0.2137,-0.5302,-0.014
1.3501,0.4309,1.0826,0.8771,-0.5944,-0.1673,-0.3602,-0.2779,1.2468,-0.5991,1.2942,0.0622,-0.9957,-0.183,-0.5209,-0.01
1.3743,0.4224,1.074,0.8945,-0.577,-0.1542,-0.3497,-0.2795,1.3254,-0.6164,1.3017,0.0659,-1,-0.1659,-0.4893,-0.009
1.3864,0.4181,1.0648,0.8978,-0.5068,-0.179,-0.3456,-0.281,1.3415,-0.601,1.3017,0.0659,-0.9952,-0.1728,-0.4608,-0.0093
1.3864,0.4181,1.0648,0.8978,-0.5068,-0.179,-0.3456,-0.281,1.3415,-0.601,1.3017,0.0659,-0.9952,-0.1728,-0.4608,-0.0093
1.3864,0.4181,1.0648,0.8978,-0.5068,-0.179,-0.3456,-0.281,1.3415,-0.601,1.3017,0.0659,-0.9952,-0.1728,-0.4608,-0.0093
1.3984,0.4138,1.0576,0.8931,-0.4951,-0.1703,-0.3456,-0.281,1.261,-0.562,1.3012,0.0618,-1.0014,-0.1964,-0.4537,-0.002
1.3984,0.4138,1.0576,0.8931,-0.4951,-0.1703,-0.3456,-0.281,1.261,-0.562,1.3012,0.0618,-1.0014,-0.1964,-0.4537,-0.002
1.4348,0.401,1.0575,0.8884,-0.5129,-0.1319,-0.3453,-0.2768,1.1781,-0.5958,1.3084,0.0466,-1.0281,-0.2231,-0.4752,0.0056
1.4348,0.401,1.0575,0.8884,-0.5129,-0.1319,-0.3453,-0.2768,1.1781,-0.5958,1.3084,0.0466,-1.0281,-0.2231,-0.4752,0.0056
1.4348,0.401,1.0575,0.8884,-0.5129,-0.1319,-0.3453,-0.2768,1.1781,-0.5958,1.3084,0.0466,-1.0281,-0.2231,-0.4752,0.0056
1.4653,0.3965,1.0575,0.8884,-0.5248,-0.1148,-0.3265,-0.2813,1.1464,-0.6265,1.3097,0.0398,-1.049,-0.2363,-0.4859,0.0093
1.4653,0.3965,1.0575,0.8884,-0.5248,-0.1148,-0.3265,-0.2813,1.1464,-0.6265,1.3097,0.0398,-1.049,-0.2363,-0.4859,0.0093
1.4653,0.3965,1.0575,0.8884,-0.5248,-0.1148,-0.3265,-0.2813,1.1464,-0.6265,1.3097,0.0398,-1.049,-0.2363,-0.4859,0.0093
1.4182,0.4513,1.0549,0.8821,-0.5539,-0.1238,-0.326,-0.2731,1.1735,-0.6465,1.2931,0.0541,-1.0396,-0.2499,-0.4872,0.0172
1.4182,0.4513,1.0549,0.8821,-0.5539,-0.1238,-0.326,-0.2731,1.1735,-0.6465,1.2931,0.0541,-1.0396,-0.2499,-0.4872,0.0172
1.3998,0.4514,1.0707,0.8693,-0.5596,-0.1411,-0.3424,-0.263,1.1718,-0.625,1.2867,0.0585,-0.9998,-0.264,-0.4895,0.0204
1.3998,0.4514,1.0707,0.8693,-0.5596,-0.1411,-0.3424,-0.263,1.1718,-0.625,1.2867,0.0585,-0.9998,-0.264,-0.4895,0.0204
1.3935,0.4473,1.0663,0.8757,-0.5654,-0.1455,-0.3529,-0.2614,1.1973,-0.6236,1.2861,0.0545,-1.0092,-0.2504,-0.4971,0.0255
1.3935,0.4473,1.0663,0.8757,-0.5654,-0.1455,-0.3529,-0.2614,1.1973,-0.6236,1.2861,0.0545,-1.0092,-0.2504,-0.4971,0.0255
1.3756,0.46,1.0573,0.8836,-0.5654,-0.1455,-0.3551,-0.2628,1.2933,-0.647,1.2881,0.0517,-1.0386,-0.2297,-0.4948,0.0223
1.3756,0.46,1.0573,0.8836,-0.5654,-0.1455,-0.3551,-0.2628,1.2933,-0.647,1.2881,0.0517,-1.0386,-0.2297,-0.4948,0.0223
1.376,0.4726,1.0598,0.8899,-0.5187,-0.1491,-0.3551,-0.2628,1.3174,-0.624,1.2836,0.0532,-1.0585,-0.2227,-0.4819,0.0153
1.376,0.4726,1.0598,0.8899,-0.5187,-0.1491,-0.3551,-0.2628,1.3174,-0.624,1.2836,0.0532,-1.0585,-0.2227,-0.4819,0.0153
1.3756,0.46,1.0529,0.89,-0.5011,-0.1489,-0.3636,-0.264,1.2531,-0.5698,1.2742,0.0523,-1.0694,-0.2394,-0.485,0.0139
1.4056,0.443,1.0461,0.8948,-0.5248,-0.1148,-0.3699,-0.2639,1.1922,-0.5588,1.2819,0.0412,-1.0803,-0.2561,-0.5042,0.0183
1.4056,0.443,1.0461,0.8948,-0.5248,-0.1148,-0.3699,-0.2639,1.1922,-0.5588,1.2819,0.0412,-1.0803,-0.2561,-0.5042,0.0183
1.4056,0.443,1.0461,0.8948,-0.5248,-0.1148,-0.3699,-0.2639,1.1922,-0.5588,1.2819,0.0412,-1.0803,-0.2561,-0.5042,0.0183
1.4298,0.4345,1.0369,0.898,-0.5366,-0.0977,-0.3638,-0.2682,1.1413,-0.5618,1.275,0.0415,-1.1058,-0.2625,-0.5242,0.018
1.4298,0.4345,1.0369,0.898,-0.5366,-0.0977,-0.3638,-0.2682,1.1413,-0.5618,1.275,0.0415,-1.1058,-0.2625,-0.5242,0.018
1.4298,0.4345,1.0369,0.898,-0.5366,-0.0977,-0.3638,-0.2682,1.1413,-0.5618,1.275,0.0415,-1.1058,-0.2625,-0.5242,0.018
1.4182,0.4513,1.0298,0.8934,-0.5424,-0.1021,-0.3539,-0.2781,1.143,-0.5834,1.2628,0.0542,-1.1162,-0.269,-0.5357,0.0172
1.4182,0.4513,1.0298,0.8934,-0.5424,-0.1021,-0.3539,-0.2781,1.143,-0.5834,1.2628,0.0542,-1.1162,-0.269,-0.5357,0.0172
1.4182,0.4513,1.0298,0.8934,-0.5424,-0.1021,-0.3539,-0.2781,1.143,-0.5834,1.2628,0.0542,-1.1162,-0.269,-0.5357,0.0172
1.321,0.4729,1.0085,0.8793,-0.5713,-0.137,-0.3894,-0.2718,1.1368,-0.6126,1.2337,0.0624,-1.0922,-0.2928,-0.5489,0.0072
1.321,0.4729,1.0085,0.8793,-0.5713,-0.137,-0.3894,-0.2718,1.1368,-0.6126,1.2337,0.0624,-1.0922,-0.2928,-0.5489,0.0072
1.321,0.4729,1.0085,0.8793,-0.5713,-0.137,-0.3894,-0.2718,1.1368,-0.6126,1.2337,0.0624,-1.0922,-0.2928,-0.5489,0.0072
1.2659,0.4607,1.0147,0.8604,-0.6237,-0.1377,-0.4188,-0.2699,1.1114,-0.6141,1.2218,0.0603,-1.0823,-0.2963,-0.5574,0.0078
1.2659,0.4607,1.0147,0.8604,-0.6237,-0.1377,-0.4188,-0.2699,1.1114,-0.6141,1.2218,0.0603,-1.0823,-0.2963,-0.5574,0.0078
1.2659,0.4607,1.0147,0.8604,-0.6237,-0.1377,-0.4188,-0.2699,1.1114,-0.6141,1.2218,0.0603,-1.0823,-0.2963,-0.5574,0.0078
1.2705,0.4147,0.9941,0.8653,-0.6701,-0.1469,-0.4504,-0.2693,1.1973,-0.6236,1.2201,0.0482,-1.1397,-0.2351,-0.5818,0.014
1.2705,0.4147,0.9941,0.8653,-0.6701,-0.1469,-0.4504,-0.2693,1.1973,-0.6236,1.2201,0.0482,-1.1397,-0.2351,-0.5818,0.014
1.2705,0.4147,0.9736,0.8749,-0.6817,-0.1428,-0.4589,-0.2706,1.2677,-0.6484,1.2151,0.0458,-1.1642,-0.2213,-0.5742,0.0088
1.2705,0.4147,0.9736,0.8749,-0.6817,-0.1428,-0.4589,-0.2706,1.2677,-0.6484,1.2151,0.0458,-1.1642,-0.2213,-0.5742,0.0088
1.2767,0.4189,0.9554,0.8814,-0.6293,-0.1677,-0.4693,-0.269,1.2468,-0.5991,1.2082,0.0461,-1.1792,-0.2211,-0.5613,0.0019
1.2767,0.4189,0.9554,0.8814,-0.6293,-0.1677,-0.4693,-0.269,1.2468,-0.5991,1.2082,0.0461,-1.1792,-0.2211,-0.5613,0.0019
1.2771,0.4314,0.9485,0.8814,-0.6178,-0.159,-0.4797,-0.2674,1.1984,-0.5294,1.1969,0.048,-1.1844,-0.2244,-0.5613,0.0019
1.2771,0.4314,0.9485,0.8814,-0.6178,-0.159,-0.4797,-0.2674,1.1984,-0.5294,1.1969,0.048,-1.1844,-0.2244,-0.5613,0.0019
1.3132,0.4186,0.946,0.8751,-0.6295,-0.1421,-0.4862,-0.2715,1.1474,-0.5324,1.1908,0.0375,-1.2055,-0.2477,-0.5888,0.0067
1.3132,0.4186,0.946,0.8751,-0.6295,-0.1421,-0.4862,-0.2715,1.1474,-0.5324,1.1908,0.0375,-1.2055,-0.2477,-0.5888,0.0067
1.3493,0.4059,0.9413,0.872,-0.6587,-0.1253,-0.4906,-0.2742,1.1492,-0.5541,1.1795,0.0394,-1.2209,-0.2576,-0.6162,0.0115
1.3493,0.4059,0.9413,0.872,-0.6587,-0.1253,-0.4906,-0.2742,1.1492,-0.5541,1.1795,0.0394,-1.2209,-0.2576,-0.6162,0.0115
1.3381,0.4351,0.9344,0.8721,-0.682,-0.1171,-0.4867,-0.2797,1.1237,-0.5556,1.1624,0.0496,-1.241,-0.2607,-0.636,0.0112
1.3381,0.4351,0.9344,0.8721,-0.682,-0.1171,-0.4867,-0.2797,1.1237,-0.5556,1.1624,0.0496,-1.241,-0.2607,-0.636,0.0112
1.3019,0.4479,0.9295,0.8643,-0.6933,-0.1387,-0.5033,-0.2781,1.0965,-0.5355,1.1497,0.0583,-1.2359,-0.2574,-0.6497,0.0136
1.3019,0.4479,0.9295,0.8643,-0.6933,-0.1387,-0.5033,-0.2781,1.0965,-0.5355,1.1497,0.0583,-1.2359,-0.2574,-0.6497,0.0136
1.2531,0.4398,0.9381,0.8469,-0.7161,-0.169,-0.5263,-0.2763,1.0615,-0.5231,1.1472,0.0571,-1.2017,-0.2746,-0.6559,0.0109
1.2531,0.4398,0.9381,0.8469,-0.7161,-0.169,-0.5263,-0.2763,1.0615,-0.5231,1.1472,0.0571,-1.2017,-0.2746,-0.6559,0.0109
1.2531,0.4398,0.9381,0.8469,-0.7161,-0.169,-0.5263,-0.2763,1.0615,-0.5231,1.1472,0.0571,-1.2017,-0.2746,-0.6559,0.0109
1.2287,0.4358,0.947,0.839,-0.745,-0.1652,-0.5366,-0.2747,1.0459,-0.5386,1.1511,0.0515,-1.2059,-0.2578,-0.6642,0.0115
1.2287,0.4358,0.947,0.839,-0.745,-0.1652,-0.5366,-0.2747,1.0459,-0.5386,1.1511,0.0515,-1.2059,-0.2578,-0.6642,0.0115
1.2287,0.4358,0.947,0.839,-0.745,-0.1652,-0.5366,-0.2747,1.0459,-0.5386,1.1511,0.0515,-1.2059,-0.2578,-0.6642,0.0115
1.2585,0.419,0.9389,0.8705,-0.7161,-0.169,-0.5137,-0.2765,1.2053,-0.6159,1.1684,0.0602,-1.2131,-0.1938,-0.633,0.0126
1.2585,0.419,0.9389,0.8705,-0.7161,-0.169,-0.5137,-0.2765,1.2053,-0.6159,1.1684,0.0602,-1.2131,-0.1938,-0.633,0.0126
1.2585,0.419,0.9389,0.8705,-0.7161,-0.169,-0.5137,-0.2765,1.2053,-0.6159,1.1684,0.0602,-1.2131,-0.1938,-0.633,0.0126
1.2887,0.4146,0.9392,0.8799,-0.6407,-0.1892,-0.4927,-0.2755,1.2195,-0.5789,1.1853,0.0648,-1.1779,-0.1908,-0.5804,0.0062
1.2887,0.4146,0.9392,0.8799,-0.6407,-0.1892,-0.4927,-0.2755,1.2195,-0.5789,1.1853,0.0648,-1.1779,-0.1908,-0.5804,0.0062
1.3613,0.4016,0.9576,0.8782,-0.6062,-0.1503,-0.461,-0.2719,1.1001,-0.5787,1.2137,0.0526,-1.1595,-0.2281,-0.5427,0.0099
1.3613,0.4016,0.9576,0.8782,-0.6062,-0.1503,-0.461,-0.2719,1.1001,-0.5787,1.2137,0.0526,-1.1595,-0.2281,-0.5427,0.0099
1.3613,0.4016,0.9576,0.8782,-0.6062,-0.1503,-0.461,-0.2719,1.1001,-0.5787,1.2137,0.0526,-1.1595,-0.2281,-0.5427,0.0099
1.4164,0.4012,0.9692,0.8812,-0.6006,-0.1202,-0.4254,-0.2739,1.094,-0.6079,1.2257,0.0547,-1.1548,-0.2349,-0.5228,0.0102
1.4164,0.4012,0.9692,0.8812,-0.6006,-0.1202,-0.4254,-0.2739,1.094,-0.6079,1.2257,0.0547,-1.1548,-0.2349,-0.5228,0.0102
1.4177,0.4387,0.9831,0.8811,-0.5774,-0.1155,-0.3916,-0.2732,1.1289,-0.6203,1.2387,0.0649,-1.1397,-0.2351,-0.4912,0.0112
1.3814,0.4516,0.9899,0.8764,-0.5772,-0.1284,-0.3889,-0.2635,1.1193,-0.6064,1.2467,0.0726,-1.0803,-0.2561,-0.4748,0.0226
1.3814,0.4516,0.9899,0.8764,-0.5772,-0.1284,-0.3889,-0.2635,1.1193,-0.6064,1.2467,0.0726,-1.0803,-0.2561,-0.4748,0.0226
1.3814,0.4516,0.9899,0.8764,-0.5772,-0.1284,-0.3889,-0.2635,1.1193,-0.6064,1.2467,0.0726,-1.0803,-0.2561,-0.4748,0.0226
1.3506,0.4434,1.0099,0.8573,-0.5828,-0.1585,-0.4008,-0.2509,1.108,-0.571,1.2586,0.0748,-1.0202,-0.2671,-0.4637,0.0358
1.3506,0.4434,1.0099,0.8573,-0.5828,-0.1585,-0.4008,-0.2509,1.108,-0.571,1.2586,0.0748,-1.0202,-0.2671,-0.4637,0.0358
1.3506,0.4434,1.0099,0.8573,-0.5828,-0.1585,-0.4008,-0.2509,1.108,-0.571,1.2586,0.0748,-1.0202,-0.2671,-0.4637,0.0358
1.3685,0.4307,1.0236,0.8525,-0.5828,-0.1585,-0.4026,-0.2439,1.1351,-0.5911,1.2745,0.0713,-0.9998,-0.264,-0.4544,0.0398
1.3685,0.4307,1.0236,0.8525,-0.5828,-0.1585,-0.4026,-0.2439,1.1351,-0.5911,1.2745,0.0713,-0.9998,-0.264,-0.4544,0.0398
1.3685,0.4307,1.0236,0.8525,-0.5828,-0.1585,-0.4026,-0.2439,1.1351,-0.5911,1.2745,0.0713,-0.9998,-0.264,-0.4544,0.0398
1.3693,0.4558,1.0267,0.8729,-0.542,-0.1537,-0.3794,-0.2457,1.2933,-0.647,1.3017,0.0659,-1.0281,-0.2231,-0.4119,0.0371
1.376,0.4726,1.0271,0.8823,-0.4835,-0.1616,-0.3689,-0.2473,1.2707,-0.576,1.3017,0.0659,-1.048,-0.2161,-0.385,0.0276
1.376,0.4726,1.0271,0.8823,-0.4835,-0.1616,-0.3689,-0.2473,1.2707,-0.576,1.3017,0.0659,-1.048,-0.2161,-0.385,0.0276
1.376,0.4726,1.0271,0.8823,-0.4835,-0.1616,-0.3689,-0.2473,1.2707,-0.576,1.3017,0.0659,-1.048,-0.2161,-0.385,0.0276
1.3639,0.4768,1.0317,0.8807,-0.46,-0.157,-0.3648,-0.2487,1.2143,-0.5139,1.3012,0.0618,-1.0537,-0.2295,-0.3872,0.0308
1.3639,0.4768,1.0317,0.8807,-0.46,-0.157,-0.3648,-0.2487,1.2143,-0.5139,1.3012,0.0618,-1.0537,-0.2295,-0.3872,0.0308
1.406,0.4556,1.034,0.8823,-0.4777,-0.1314,-0.3648,-0.2487,1.1632,-0.5169,1.3064,0.0494,-1.0751,-0.2528,-0.4119,0.0371
1.406,0.4556,1.034,0.8823,-0.4777,-0.1314,-0.3648,-0.2487,1.1632,-0.5169,1.3064,0.0494,-1.0751,-0.2528,-0.4119,0.0371
1.4487,0.4469,1.0296,0.8886,-0.4955,-0.1058,-0.3543,-0.2503,1.1395,-0.5402,1.3109,0.0478,-1.0954,-0.2559,-0.4311,0.0414
1.4487,0.4469,1.0296,0.8886,-0.4955,-0.1058,-0.3543,-0.2503,1.1395,-0.5402,1.3109,0.0478,-1.0954,-0.2559,-0.4311,0.0414
1.437,0.4637,1.0273,0.8871,-0.5073,-0.1016,-0.3377,-0.2562,1.1588,-0.568,1.2992,0.0646,-1.1053,-0.2524,-0.4419,0.0452
1.437,0.4637,1.0273,0.8871,-0.5073,-0.1016,-0.3377,-0.2562,1.1588,-0.568,1.2992,0.0646,-1.1053,-0.2524,-0.4419,0.0452
1.419,0.4765,1.0179,0.8856,-0.513,-0.119,-0.3502,-0.2518,1.186,-0.5881,1.2934,0.0731,-1.0808,-0.2662,-0.4351,0.0355
1.3514,0.4685,1.0083,0.8746,-0.5479,-0.1452,-0.3772,-0.2443,1.1781,-0.5958,1.282,0.075,-1.0217,-0.2973,-0.4391,0.0295
1.3514,0.4685,1.0083,0.8746,-0.5479,-0.1452,-0.3772,-0.2443,1.1781,-0.5958,1.282,0.075,-1.0217,-0.2973,-0.4391,0.0295
1.3514,0.4685,1.0083,0.8746,-0.5479,-0.1452,-0.3772,-0.2443,1.1781,-0.5958,1.282,0.075,-1.0217,-0.2973,-0.4391,0.0295
1.2903,0.4647,1.0169,0.8572,-0.6004,-0.1459,-0.4004,-0.2425,1.1798,-0.6174,1.27,0.0728,-0.9972,-0.3111,-0.4508,0.0287
1.2903,0.4647,1.0169,0.8572,-0.6004,-0.1459,-0.4004,-0.2425,1.1798,-0.6174,1.27,0.0728,-0.9972,-0.3111,-0.4508,0.0287
1.2775,0.4439,1.0099,0.8573,-0.6294,-0.1549,-0.4152,-0.2437,1.1894,-0.6312,1.267,0.0676,-1.0259,-0.2804,-0.4592,0.0293
1.2775,0.4439,1.0099,0.8573,-0.6294,-0.1549,-0.4152,-0.2437,1.1894,-0.6312,1.267,0.0676,-1.0259,-0.2804,-0.4592,0.0293
1.2891,0.4271,0.9988,0.8684,-0.6353,-0.1464,-0.4174,-0.245,1.2677,-0.6484,1.2728,0.0592,-1.0495,-0.2464,-0.457,0.026
1.2953,0.4313,0.9877,0.8795,-0.5886,-0.1629,-0.4196,-0.2464,1.2901,-0.6039,1.2747,0.0564,-1.0736,-0.2225,-0.4355,0.0185
1.2953,0.4313,0.9877,0.8795,-0.5886,-0.1629,-0.4196,-0.2464,1.2901,-0.6039,1.2747,0.0564,-1.0736,-0.2225,-0.4355,0.0185
1.2953,0.4313,0.9877,0.8795,-0.5886,-0.1629,-0.4196,-0.2464,1.2901,-0.6039,1.2747,0.0564,-1.0736,-0.2225,-0.4355,0.0185
1.3015,0.4354,0.9831,0.8811,-0.5361,-0.1751,-0.4237,-0.2449,1.2576,-0.5186,1.2703,0.0579,-1.0883,-0.2122,-0.4194,0.0128
1.3015,0.4354,0.9831,0.8811,-0.5361,-0.1751,-0.4237,-0.2449,1.2576,-0.5186,1.2703,0.0579,-1.0883,-0.2122,-0.4194,0.0128
1.3198,0.4353,0.9785,0.8827,-0.5127,-0.1705,-0.4259,-0.2462,1.1869,-0.4936,1.2692,0.0499,-1.1143,-0.2287,-0.4378,0.0217
1.3198,0.4353,0.9785,0.8827,-0.5127,-0.1705,-0.4259,-0.2462,1.1869,-0.4936,1.2692,0.0499,-1.1143,-0.2287,-0.4378,0.0217
1.3622,0.4266,0.9784,0.878,-0.548,-0.1323,-0.4344,-0.2475,1.1729,-0.5309,1.2744,0.0375,-1.1256,-0.2555,-0.47,0.0331
1.3622,0.4266,0.9784,0.878,-0.548,-0.1323,-0.4344,-0.2475,1.1729,-0.5309,1.2744,0.0375,-1.1256,-0.2555,-0.47,0.0331
1.3926,0.4222,0.9736,0.8749,-0.5889,-0.1243,-0.4327,-0.2544,1.1843,-0.5665,1.27,0.039,-1.1411,-0.2653,-0.4954,0.0347
1.3926,0.4222,0.9736,0.8749,-0.5889,-0.1243,-0.4327,-0.2544,1.1843,-0.5665,1.27,0.039,-1.1411,-0.2653,-0.4954,0.0347
1.3926,0.4222,0.9736,0.8749,-0.5889,-0.1243,-0.4327,-0.2544,1.1843,-0.5665,1.27,0.039,-1.1411,-0.2653,-0.4954,0.0347
1.3756,0.46,0.9713,0.8734,-0.6064,-0.1246,-0.4329,-0.2586,1.1843,-0.5665,1.2572,0.0478,-1.151,-0.2618,-0.5038,0.0353
1.3756,0.46,0.9713,0.8734,-0.6064,-0.1246,-0.4329,-0.2586,1.1843,-0.5665,1.2572,0.0478,-1.151,-0.2618,-0.5038,0.0353
1.3756,0.46,0.9713,0.8734,-0.6064,-0.1246,-0.4329,-0.2586,1.1843,-0.5665,1.2572,0.0478,-1.151,-0.2618,-0.5038,0.0353
1.2782,0.469,0.9704,0.8498,-0.6757,-0.1641,-0.479,-0.255,1.2081,-0.5433,1.247,0.0577,-1.0709,-0.2697,-0.5109,0.028
1.2782,0.469,0.9704,0.8498,-0.6757,-0.1641,-0.479,-0.255,1.2081,-0.5433,1.247,0.0577,-1.0709,-0.2697,-0.5109,0.028
1.2782,0.469,0.9704,0.8498,-0.6757,-0.1641,-0.479,-0.255,1.2081,-0.5433,1.247,0.0577,-1.0709,-0.2697,-0.5109,0.028
1.2596,0.4565,0.9591,0.8562,-0.6872,-0.1728,-0.502,-0.2532,1.1826,-0.5448,1.2395,0.054,-1.085,-0.2493,-0.5211,0.0193
1.2655,0.4481,0.948,0.8673,-0.6813,-0.1813,-0.5145,-0.253,1.2531,-0.5698,1.2306,0.0572,-1.1039,-0.2221,-0.5273,0.0166
1.2651,0.4356,0.9344,0.8721,-0.6407,-0.202,-0.5273,-0.257,1.2257,-0.5496,1.2187,0.055,-1.1091,-0.2254,-0.5236,0.0056
1.2651,0.4356,0.9344,0.8721,-0.6407,-0.202,-0.5273,-0.257,1.2257,-0.5496,1.2187,0.055,-1.1091,-0.2254,-0.5236,0.0056
1.2407,0.4316,0.9206,0.8722,-0.6289,-0.2189,-0.5401,-0.2609,1.1632,-0.5169,1.2019,0.0505,-1.1194,-0.232,-0.5383,0.0035
1.2407,0.4316,0.9206,0.8722,-0.6289,-0.2189,-0.5401,-0.2609,1.1632,-0.5169,1.2019,0.0505,-1.1194,-0.232,-0.5383,0.0035
1.2407,0.4316,0.9206,0.8722,-0.6289,-0.2189,-0.5401,-0.2609,1.1632,-0.5169,1.2019,0.0505,-1.1194,-0.232,-0.5383,0.0035
1.2527,0.4273,0.9137,0.8722,-0.6524,-0.1851,-0.5526,-0.2607,1.0808,-0.551,1.1883,0.0363,-1.1703,-0.2448,-0.5848,0.0126
1.2527,0.4273,0.9137,0.8722,-0.6524,-0.1851,-0.5526,-0.2607,1.0808,-0.551,1.1883,0.0363,-1.1703,-0.2448,-0.5848,0.0126
1.2945,0.4063,0.9113,0.8707,-0.6816,-0.1557,-0.5528,-0.2648,0.9972,-0.5633,1.1842,0.023,-1.2008,-0.2545,-0.6184,0.0147
1.2895,0.4396,0.9113,0.8707,-0.6991,-0.1431,-0.5386,-0.2719,1.0008,-0.6063,1.1685,0.0265,-1.2261,-0.2609,-0.6232,0.0043
1.2895,0.4396,0.9113,0.8707,-0.6991,-0.1431,-0.5386,-0.2719,1.0008,-0.6063,1.1685,0.0265,-1.2261,-0.2609,-0.6232,0.0043
1.2662,0.4732,0.909,0.8691,-0.7165,-0.1305,-0.5446,-0.2677,1.0104,-0.6201,1.1533,0.0339,-1.2406,-0.2506,-0.6271,-0.0016
1.2662,0.4732,0.909,0.8691,-0.7165,-0.1305,-0.5446,-0.2677,1.0104,-0.6201,1.1533,0.0339,-1.2406,-0.2506,-0.6271,-0.0016
1.2662,0.4732,0.909,0.8691,-0.7165,-0.1305,-0.5446,-0.2677,1.0104,-0.6201,1.1533,0.0339,-1.2406,-0.2506,-0.6271,-0.0016
1.236,0.4776,0.911,0.8613,-0.7394,-0.148,-0.5651,-0.2605,1.0277,-0.6262,1.1351,0.0361,-1.2064,-0.2678,-0.6461,0.0026
1.236,0.4776,0.911,0.8613,-0.7394,-0.148,-0.5651,-0.2605,1.0277,-0.6262,1.1351,0.0361,-1.2064,-0.2678,-0.6461,0.0026
1.2356,0.465,0.9177,0.8565,-0.7509,-0.1567,-0.5755,-0.2589,1.0277,-0.6262,1.1214,0.0368,-1.2013,-0.2645,-0.6606,0.0005
1.2356,0.465,0.9177,0.8565,-0.7509,-0.1567,-0.5755,-0.2589,1.0277,-0.6262,1.1214,0.0368,-1.2013,-0.2645,-0.6606,0.0005
1.2298,0.4734,0.9137,0.8722,-0.7336,-0.1564,-0.5774,-0.2561,1.1148,-0.657,1.1253,0.0312,-1.2102,-0.2409,-0.6667,-0.0022
1.2298,0.4734,0.9137,0.8722,-0.7336,-0.1564,-0.5774,-0.2561,1.1148,-0.657,1.1253,0.0312,-1.2102,-0.2409,-0.6667,-0.0022
1.224,0.4818,0.9096,0.888,-0.7163,-0.1562,-0.563,-0.2591,1.1927,-0.6741,1.1258,0.0352,-1.2243,-0.2206,-0.6539,-0.0092
1.224,0.4818,0.9096,0.888,-0.7163,-0.1562,-0.563,-0.2591,1.1927,-0.6741,1.1258,0.0352,-1.2243,-0.2206,-0.6539,-0.0092
1.2363,0.4901,0.9168,0.8974,-0.6351,-0.1721,-0.5442,-0.2594,1.1798,-0.6174,1.1313,0.0417,-1.229,-0.2138,-0.6168,-0.0223
1.2487,0.4984,0.9352,0.8957,-0.5711,-0.1755,-0.5251,-0.2556,1.1316,-0.5479,1.1475,0.0423,-1.2191,-0.2173,-0.5863,-0.0258
1.2487,0.4984,0.9352,0.8957,-0.5711,-0.1755,-0.5251,-0.2556,1.1316,-0.5479,1.1475,0.0423,-1.2191,-0.2173,-0.5863,-0.0258
1.2487,0.4984,0.9352,0.8957,-0.5711,-0.1755,-0.5251,-0.2556,1.1316,-0.5479,1.1475,0.0423,-1.2191,-0.2173,-0.5863,-0.0258
1.2666,0.4858,0.9488,0.8908,-0.5654,-0.1455,-0.5104,-0.2545,1.0555,-0.5525,1.1671,0.0333,-1.2106,-0.251,-0.5832,-0.0244
1.2666,0.4858,0.9488,0.8908,-0.5654,-0.1455,-0.5104,-0.2545,1.0555,-0.5525,1.1671,0.0333,-1.2106,-0.251,-0.5832,-0.0244
1.3268,0.4645,0.9605,0.8939,-0.5539,-0.1238,-0.4872,-0.2521,1.0146,-0.5695,1.201,0.0276,-1.1961,-0.2612,-0.5815,-0.0153
1.3268,0.4645,0.9605,0.8939,-0.5539,-0.1238,-0.4872,-0.2521,1.0146,-0.5695,1.201,0.0276,-1.1961,-0.2612,-0.5815,-0.0153
1.3451,0.4644,0.9674,0.8939,-0.554,-0.1109,-0.4477,-0.2597,1.0338,-0.5971,1.2101,0.0433,-1.1811,-0.2614,-0.5745,-0.0081
1.3451,0.4644,0.9674,0.8939,-0.554,-0.1109,-0.4477,-0.2597,1.0338,-0.5971,1.2101,0.0433,-1.1811,-0.2614,-0.5745,-0.0081
1.3451,0.4644,0.9674,0.8939,-0.554,-0.1109,-0.4477,-0.2597,1.0338,-0.5971,1.2101,0.0433,-1.1811,-0.2614,-0.5745,-0.0081
1.3451,0.4644,0.9674,0.8939,-0.554,-0.1109,-0.4477,-0.2597,1.0338,-0.5971,1.2101,0.0433,-1.1811,-0.2614,-0.5745,-0.0081
1.2907,0.4773,0.9853,0.878,-0.5597,-0.1282,-0.4342,-0.2433,1.0861,-0.6156,1.2406,0.0621,-1.0662,-0.2765,-0.5169,-0.0041
1.2907,0.4773,0.9853,0.878,-0.5597,-0.1282,-0.4342,-0.2433,1.0861,-0.6156,1.2406,0.0621,-1.0662,-0.2765,-0.5169,-0.0041
1.2659,0.4607,1.0056,0.8636,-0.5772,-0.1284,-0.4381,-0.2377,1.1114,-0.6141,1.2595,0.0639,-1.0353,-0.2668,-0.4929,0.0021
1.2659,0.4607,1.0056,0.8636,-0.5772,-0.1284,-0.4381,-0.2377,1.1114,-0.6141,1.2595,0.0639,-1.0353,-0.2668,-0.4929,0.0021
1.2775,0.4439,1.0147,0.8604,-0.5889,-0.1243,-0.4296,-0.2365,1.1718,-0.625,1.2758,0.0644,-1.0286,-0.2333,-0.4689,0.0082
1.2895,0.4396,1.0059,0.8731,-0.5891,-0.1114,-0.4125,-0.234,1.3125,-0.6747,1.2923,0.065,-1.0271,-0.2029,-0.4404,0.0079
1.2895,0.4396,1.0059,0.8731,-0.5891,-0.1114,-0.4125,-0.234,1.3125,-0.6747,1.2923,0.065,-1.0271,-0.2029,-0.4404,0.0079
1.2895,0.4396,1.0059,0.8731,-0.5891,-0.1114,-0.4125,-0.234,1.3125,-0.6747,1.2923,0.065,-1.0271,-0.2029,-0.4404,0.0079
1.2961,0.4563,1.0063,0.8825,-0.5364,-0.1236,-0.4018,-0.2314,1.3528,-0.6365,1.3042,0.0671,-1.0366,-0.1892,-0.3903,0
1.2961,0.4563,1.0063,0.8825,-0.5364,-0.1236,-0.4018,-0.2314,1.3528,-0.6365,1.3042,0.0671,-1.0366,-0.1892,-0.3903,0
1.3144,0.4562,0.9995,0.8873,-0.5012,-0.136,-0.3994,-0.2259,1.3399,-0.5794,1.3092,0.0696,-1.0266,-0.1927,-0.3661,0.0062
1.3144,0.4562,0.9995,0.8873,-0.5012,-0.136,-0.3994,-0.2259,1.3399,-0.5794,1.3092,0.0696,-1.0266,-0.1927,-0.3661,0.0062
1.3264,0.4519,1.0017,0.8841,-0.5071,-0.1275,-0.4014,-0.2231,1.2964,-0.5745,1.322,0.0608,-1.0328,-0.2163,-0.3805,0.0211
1.3264,0.4519,1.0017,0.8841,-0.5071,-0.1275,-0.4014,-0.2231,1.2964,-0.5745,1.322,0.0608,-1.0328,-0.2163,-0.3805,0.0211
1.3747,0.4349,1.0085,0.8793,-0.5308,-0.0933,-0.4033,-0.2203,1.2547,-0.5914,1.3451,0.0421,-1.0542,-0.2396,-0.3998,0.0254
1.3747,0.4349,1.0085,0.8793,-0.5308,-0.0933,-0.4033,-0.2203,1.2547,-0.5914,1.3451,0.0421,-1.0542,-0.2396,-0.3998,0.0254
1.4473,0.4092,1.0107,0.8762,-0.5661,-0.0679,-0.4055,-0.2216,1.2564,-0.613,1.358,0.0333,-1.0547,-0.2497,-0.4105,0.0292
1.4473,0.4092,1.0107,0.8762,-0.5661,-0.0679,-0.4055,-0.2216,1.2564,-0.613,1.358,0.0333,-1.0547,-0.2497,-0.4105,0.0292
1.4473,0.4092,1.0107,0.8762,-0.5661,-0.0679,-0.4055,-0.2216,1.2564,-0.613,1.358,0.0333,-1.0547,-0.2497,-0.4105,0.0292
1.4429,0.4553,1.0063,0.8825,-0.5777,-0.0768,-0.3787,-0.2332,1.2707,-0.576,1.3371,0.0682,-1.0542,-0.2396,-0.402,0.0287
1.4429,0.4553,1.0063,0.8825,-0.5777,-0.0768,-0.3787,-0.2332,1.2707,-0.576,1.3371,0.0682,-1.0542,-0.2396,-0.402,0.0287
1.3939,0.4599,1.0059,0.8731,-0.5831,-0.1199,-0.3975,-0.2287,1.277,-0.5466,1.3293,0.0795,-0.9893,-0.2574,-0.3881,0.0262
1.3939,0.4599,1.0059,0.8731,-0.5831,-0.1199,-0.3975,-0.2287,1.277,-0.5466,1.3293,0.0795,-0.9893,-0.2574,-0.3881,0.0262
1.3323,0.4435,1.0169,0.8572,-0.6062,-0.1503,-0.4145,-0.2312,1.2576,-0.5186,1.3318,0.0807,-0.9488,-0.2614,-0.3796,0.0256
1.3323,0.4435,1.0169,0.8572,-0.6062,-0.1503,-0.4145,-0.2312,1.2576,-0.5186,1.3318,0.0807,-0.9488,-0.2614,-0.3796,0.0256
1.2957,0.4438,1.0169,0.8572,-0.6178,-0.159,-0.4313,-0.2295,1.2576,-0.5186,1.3293,0.0795,-0.9625,-0.2309,-0.3818,0.0289
1.2957,0.4438,1.0169,0.8572,-0.6178,-0.159,-0.4313,-0.2295,1.2576,-0.5186,1.3293,0.0795,-0.9625,-0.2309,-0.3818,0.0289
1.2957,0.4438,1.0169,0.8572,-0.6178,-0.159,-0.4313,-0.2295,1.2576,-0.5186,1.3293,0.0795,-0.9625,-0.2309,-0.3818,0.0289
1.2957,0.4438,1.0169,0.8572,-0.6178,-0.159,-0.4313,-0.2295,1.2576,-0.5186,1.3293,0.0795,-0.9625,-0.2309,-0.3818,0.0289
1.3015,0.4354,1.0013,0.8747,-0.6178,-0.159,-0.4376,-0.2294,1.3124,-0.5591,1.3204,0.0826,-0.9967,-0.2033,-0.3796,0.0256
1.3015,0.4354,1.0013,0.8747,-0.6178,-0.159,-0.4376,-0.2294,1.3124,-0.5591,1.3204,0.0826,-0.9967,-0.2033,-0.3796,0.0256
1.3015,0.4354,1.0013,0.8747,-0.6178,-0.159,-0.4376,-0.2294,1.3124,-0.5591,1.3204,0.0826,-0.9967,-0.2033,-0.3796,0.0256
1.2833,0.4355,0.9763,0.8859,-0.5126,-0.209,-0.4402,-0.2391,1.301,-0.5234,1.3084,0.0805,-1.0067,-0.1998,-0.3342,0.0072
1.2833,0.4355,0.9763,0.8859,-0.5126,-0.209,-0.4402,-0.2391,1.301,-0.5234,1.3084,0.0805,-1.0067,-0.1998,-0.3342,0.0072
1.2771,0.4314,0.967,0.8844,-0.5008,-0.2131,-0.4466,-0.2389,1.2302,-0.4983,1.2939,0.0771,-1.0176,-0.2165,-0.3526,0.0161
1.2771,0.4314,0.967,0.8844,-0.5008,-0.2131,-0.4466,-0.2389,1.2302,-0.4983,1.2939,0.0771,-1.0176,-0.2165,-0.3526,0.0161
1.3132,0.4186,0.96,0.8797,-0.5126,-0.1962,-0.4589,-0.2346,1.1553,-0.5247,1.2809,0.0669,-1.0542,-0.2396,-0.3904,0.0295
1.3618,0.4141,0.96,0.8797,-0.5361,-0.1622,-0.4507,-0.2375,1.1237,-0.5556,1.2734,0.0632,-1.0798,-0.246,-0.4204,0.0376
1.3618,0.4141,0.96,0.8797,-0.5361,-0.1622,-0.4507,-0.2375,1.1237,-0.5556,1.2734,0.0632,-1.0798,-0.246,-0.4204,0.0376
1.3626,0.4392,0.9576,0.8782,-0.5654,-0.1455,-0.4446,-0.2418,1.143,-0.5834,1.2625,0.0691,-1.0996,-0.239,-0.4266,0.0349
1.3626,0.4392,0.9576,0.8782,-0.5654,-0.1455,-0.4446,-0.2418,1.143,-0.5834,1.2625,0.0691,-1.0996,-0.239,-0.4266,0.0349
1.3268,0.4645,0.9574,0.8735,-0.5829,-0.1457,-0.4589,-0.2346,1.1526,-0.5973,1.2511,0.071,-1.0949,-0.2458,-0.4383,0.0341
1.3268,0.4645,0.9574,0.8735,-0.5829,-0.1457,-0.4589,-0.2346,1.1526,-0.5973,1.2511,0.071,-1.0949,-0.2458,-0.4383,0.0341
1.3023,0.4605,0.9662,0.8608,-0.6061,-0.1631,-0.4817,-0.2286,1.1605,-0.5896,1.2417,0.0701,-1.0505,-0.2666,-0.4468,0.0347
1.3023,0.4605,0.9662,0.8608,-0.6061,-0.1631,-0.4817,-0.2286,1.1605,-0.5896,1.2417,0.0701,-1.0505,-0.2666,-0.4468,0.0347
1.2961,0.4563,0.973,0.8561,-0.6235,-0.1634,-0.4963,-0.2256,1.1781,-0.5958,1.2362,0.0637,-1.0505,-0.2666,-0.4592,0.0293
1.2961,0.4563,0.973,0.8561,-0.6235,-0.1634,-0.4963,-0.2256,1.1781,-0.5958,1.2362,0.0637,-1.0505,-0.2666,-0.4592,0.0293
1.2961,0.4563,0.973,0.8561,-0.6235,-0.1634,-0.4963,-0.2256,1.1781,-0.5958,1.2362,0.0637,-1.0505,-0.2666,-0.4592,0.0293
1.2961,0.4563,0.973,0.8561,-0.6235,-0.1634,-0.4963,-0.2256,1.1781,-0.5958,1.2362,0.0637,-1.0505,-0.2666,-0.4592,0.0293
1.2903,0.4647,0.9709,0.8639,-0.6411,-0.1508,-0.5088,-0.2254,1.266,-0.6269,1.2331,0.0584,-1.0793,-0.2359,-0.4762,0.0304
1.2903,0.4647,0.9709,0.8639,-0.6411,-0.1508,-0.5088,-0.2254,1.266,-0.6269,1.2331,0.0584,-1.0793,-0.2359,-0.4762,0.0304
1.2903,0.4647,0.9709,0.8639,-0.6411,-0.1508,-0.5088,-0.2254,1.266,-0.6269,1.2331,0.0584,-1.0793,-0.2359,-0.4762,0.0304
1.2669,0.4984,0.96,0.8797,-0.5712,-0.1627,-0.5175,-0.2308,1.2884,-0.5822,1.2099,0.0582,-1.1289,-0.2184,-0.4774,0.0088
1.2669,0.4984,0.96,0.8797,-0.5712,-0.1627,-0.5175,-0.2308,1.2884,-0.5822,1.2099,0.0582,-1.1289,-0.2184,-0.4774,0.0088
1.2669,0.4984,0.96,0.8797,-0.5712,-0.1627,-0.5175,-0.2308,1.2884,-0.5822,1.2099,0.0582,-1.1289,-0.2184,-0.4774,0.0088
1.2425,0.4943,0.9576,0.8782,-0.5595,-0.1668,-0.5262,-0.2362,1.2275,-0.5712,1.1994,0.0492,-1.1402,-0.2452,-0.5036,0.0059
1.2425,0.4943,0.9576,0.8782,-0.5595,-0.1668,-0.5262,-0.2362,1.2275,-0.5712,1.1994,0.0492,-1.1402,-0.2452,-0.5036,0.0059
1.2542,0.4775,0.9463,0.8846,-0.5947,-0.1287,-0.5368,-0.2388,1.1193,-0.6064,1.1991,0.0304,-1.1769,-0.2782,-0.552,0.0059
1.2841,0.4606,0.9326,0.8894,-0.6182,-0.1075,-0.531,-0.2472,1.0608,-0.6171,1.1961,0.0251,-1.2022,-0.2846,-0.5888,0.0067
1.2841,0.4606,0.9234,0.8879,-0.6416,-0.0993,-0.521,-0.2571,1.0451,-0.6324,1.1809,0.0326,-1.2172,-0.2844,-0.6042,-0
1.2841,0.4606,0.9234,0.8879,-0.6416,-0.0993,-0.521,-0.2571,1.0451,-0.6324,1.1809,0.0326,-1.2172,-0.2844,-0.6042,-0
1.248,0.4733,0.9073,0.8864,-0.6472,-0.1166,-0.5273,-0.257,1.0625,-0.6385,1.1638,0.0428,-1.2172,-0.2844,-0.6059,-0.0091
1.248,0.4733,0.9073,0.8864,-0.6472,-0.1166,-0.5273,-0.257,1.0625,-0.6385,1.1638,0.0428,-1.2172,-0.2844,-0.6059,-0.0091
1.248,0.4733,0.9073,0.8864,-0.6472,-0.1166,-0.5273,-0.257,1.0625,-0.6385,1.1638,0.0428,-1.2172,-0.2844,-0.6059,-0.0091
1.1873,0.4694,0.8953,0.874,-0.6818,-0.13,-0.5603,-0.2495,1.0277,-0.6262,1.1412,0.0466,-1.183,-0.3016,-0.616,-0.0177
1.1873,0.4694,0.8953,0.874,-0.6818,-0.13,-0.5603,-0.2495,1.0277,-0.6262,1.1412,0.0466,-1.183,-0.3016,-0.616,-0.0177
1.1866,0.4444,0.8861,0.8724,-0.7165,-0.1305,-0.577,-0.2478,1.0451,-0.6324,1.1338,0.0429,-1.1872,-0.2848,-0.6327,-0.0167
1.1863,0.4319,0.8749,0.8788,-0.728,-0.1393,-0.5892,-0.2435,1.1497,-0.6694,1.1244,0.042,-1.2158,-0.2543,-0.6389,-0.0193
1.1863,0.4319,0.8749,0.8788,-0.728,-0.1393,-0.5892,-0.2435,1.1497,-0.6694,1.1244,0.042,-1.2158,-0.2543,-0.6389,-0.0193
1.1863,0.4319,0.8749,0.8788,-0.728,-0.1393,-0.5892,-0.2435,1.1497,-0.6694,1.1244,0.042,-1.2158,-0.2543,-0.6389,-0.0193
1.1863,0.4319,0.8681,0.8836,-0.6989,-0.1559,-0.589,-0.2394,1.191,-0.6527,1.1244,0.042,-1.2299,-0.234,-0.6093,-0.0274
1.1863,0.4319,0.8681,0.8836,-0.6989,-0.1559,-0.589,-0.2394,1.191,-0.6527,1.1244,0.042,-1.2299,-0.234,-0.6093,-0.0274
1.1863,0.4319,0.8681,0.8836,-0.6989,-0.1559,-0.589,-0.2394,1.191,-0.6527,1.1244,0.042,-1.2299,-0.234,-0.6093,-0.0274
1.1928,0.4485,0.875,0.8835,-0.6292,-0.1806,-0.5845,-0.2325,1.1588,-0.568,1.1255,0.0501,-1.2196,-0.2274,-0.5841,-0.029
1.1928,0.4485,0.875,0.8835,-0.6292,-0.1806,-0.5845,-0.2325,1.1588,-0.568,1.1255,0.0501,-1.2196,-0.2274,-0.5841,-0.029
1.2651,0.4356,0.9068,0.8723,-0.6296,-0.1292,-0.5631,-0.2232,1.0983,-0.5571,1.1784,0.0314,-1.1914,-0.268,-0.5798,-0.0062
1.2651,0.4356,0.9068,0.8723,-0.6296,-0.1292,-0.5631,-0.2232,1.0983,-0.5571,1.1784,0.0314,-1.1914,-0.268,-0.5798,-0.0062
1.3073,0.427,0.9182,0.8706,-0.6473,-0.1037,-0.5383,-0.2277,1.1158,-0.5633,1.2046,0.0368,-1.1811,-0.2614,-0.5644,0.0005
1.3073,0.427,0.9182,0.8706,-0.6473,-0.1037,-0.5383,-0.2277,1.1158,-0.5633,1.2046,0.0368,-1.1811,-0.2614,-0.5644,0.0005
1.3206,0.4603,0.9298,0.8737,-0.6357,-0.1078,-0.503,-0.2338,1.1237,-0.5556,1.2187,0.055,-1.1557,-0.2551,-0.5383,0.0035
1.3206,0.4603,0.9298,0.8737,-0.6357,-0.1078,-0.503,-0.2338,1.1237,-0.5556,1.2187,0.055,-1.1557,-0.2551,-0.5383,0.0035
1.291,0.4899,0.9504,0.8688,-0.6122,-0.1289,-0.4861,-0.2313,1.1377,-0.5185,1.2348,0.0705,-1.0954,-0.2559,-0.5036,0.0059
1.291,0.4899,0.9504,0.8688,-0.6122,-0.1289,-0.4861,-0.2313,1.1377,-0.5185,1.2348,0.0705,-1.0954,-0.2559,-0.5036,0.0059
1.291,0.4899,0.9504,0.8688,-0.6122,-0.1289,-0.4861,-0.2313,1.1377,-0.5185,1.2348,0.0705,-1.0954,-0.2559,-0.5036,0.0059
1.2604,0.4816,0.9684,0.8577,-0.612,-0.1547,-0.4839,-0.23,1.1456,-0.5107,1.2522,0.0791,-1.0249,-0.2603,-0.4644,0.0018
1.2604,0.4816,0.9684,0.8577,-0.612,-0.1547,-0.4839,-0.23,1.1456,-0.5107,1.2522,0.0791,-1.0249,-0.2603,-0.4644,0.0018
1.2542,0.4775,0.98,0.8607,-0.612,-0.1547,-0.4796,-0.2273,1.1553,-0.5247,1.2642,0.0813,-0.9987,-0.2438,-0.4444,0.002
1.2779,0.4564,0.9738,0.8796,-0.5945,-0.1544,-0.4711,-0.226,1.2275,-0.5712,1.2742,0.0862,-1.0019,-0.2066,-0.4243,0.0023
1.2779,0.4564,0.9738,0.8796,-0.5945,-0.1544,-0.4711,-0.226,1.2275,-0.5712,1.2742,0.0862,-1.0019,-0.2066,-0.4243,0.0023
1.3078,0.4395,0.9721,0.897,-0.5595,-0.1668,-0.4543,-0.2277,1.3158,-0.6024,1.2842,0.0911,-0.9962,-0.1931,-0.3903,0
1.3078,0.4395,0.9721,0.897,-0.5595,-0.1668,-0.4543,-0.2277,1.3158,-0.6024,1.2842,0.0911,-0.9962,-0.1931,-0.3903,0
1.3078,0.4395,0.9721,0.897,-0.5595,-0.1668,-0.4543,-0.2277,1.3158,-0.6024,1.2842,0.0911,-0.9962,-0.1931,-0.3903,0
1.3078,0.4395,0.9677,0.9033,-0.5068,-0.179,-0.4356,-0.2322,1.3415,-0.601,1.2892,0.0936,-0.9809,-0.1933,-0.3409,-0.0125
1.3078,0.4395,0.9677,0.9033,-0.5068,-0.179,-0.4356,-0.2322,1.3415,-0.601,1.2892,0.0936,-0.9809,-0.1933,-0.3409,-0.0125
1.3015,0.4354,0.9699,0.9001,-0.4775,-0.1958,-0.4232,-0.2366,1.3124,-0.5591,1.2981,0.0905,-0.9562,-0.2073,-0.3099,-0.0161
1.3015,0.4354,0.9699,0.9001,-0.4775,-0.1958,-0.4232,-0.2366,1.3124,-0.5591,1.2981,0.0905,-0.9562,-0.2073,-0.3099,-0.0161
1.3073,0.427,0.9767,0.8954,-0.4776,-0.1701,-0.4147,-0.2353,1.2178,-0.5573,1.3079,0.0764,-0.9772,-0.2205,-0.322,-0.0045
1.3073,0.427,0.9767,0.8954,-0.4776,-0.1701,-0.4147,-0.2353,1.2178,-0.5573,1.3079,0.0764,-0.9772,-0.2205,-0.322,-0.0045
1.356,0.4225,0.9926,0.8874,-0.5131,-0.106,-0.4082,-0.2313,1.1334,-0.5695,1.3259,0.0552,-1.0176,-0.2165,-0.3391,-0.0034
1.4105,0.4095,0.9993,0.8826,-0.5367,-0.0848,-0.3936,-0.2343,1.1272,-0.5988,1.3318,0.0468,-1.0428,-0.2128,-0.3575,0.0056
1.4105,0.4095,0.9993,0.8826,-0.5367,-0.0848,-0.3936,-0.2343,1.1272,-0.5988,1.3318,0.0468,-1.0428,-0.2128,-0.3575,0.0056
1.4105,0.4095,0.9993,0.8826,-0.5367,-0.0848,-0.3936,-0.2343,1.1272,-0.5988,1.3318,0.0468,-1.0428,-0.2128,-0.3575,0.0056
1.4357,0.426,1.0017,0.8841,-0.5367,-0.0848,-0.3704,-0.2361,1.1639,-0.6327,1.3279,0.0524,-1.0381,-0.2196,-0.3575,0.0056
1.4357,0.426,1.0017,0.8841,-0.5367,-0.0848,-0.3704,-0.2361,1.1639,-0.6327,1.3279,0.0524,-1.0381,-0.2196,-0.3575,0.0056
1.4186,0.4639,0.9995,0.8873,-0.5425,-0.0892,-0.368,-0.2306,1.1735,-0.6465,1.3126,0.0599,-1.0333,-0.2264,-0.3553,0.0024
1.4186,0.4639,0.9995,0.8873,-0.5425,-0.0892,-0.368,-0.2306,1.1735,-0.6465,1.3126,0.0599,-1.0333,-0.2264,-0.3553,0.0024
1.3881,0.4683,1.0107,0.8762,-0.5658,-0.1068,-0.3863,-0.2178,1.1894,-0.6312,1.2948,0.0662,-0.9935,-0.2405,-0.3598,0.0088
1.3881,0.4683,1.0107,0.8762,-0.5658,-0.1068,-0.3863,-0.2178,1.1894,-0.6312,1.2948,0.0662,-0.9935,-0.2405,-0.3598,0.0088
1.3881,0.4683,1.0107,0.8762,-0.5658,-0.1068,-0.3863,-0.2178,1.1894,-0.6312,1.2948,0.0662,-0.9935,-0.2405,-0.3598,0.0088
1.3693,0.4558,1.0218,0.8651,-0.5771,-0.1413,-0.405,-0.2133,1.2053,-0.6159,1.2878,0.0666,-0.9683,-0.2443,-0.362,0.0121
1.3693,0.4558,1.0218,0.8651,-0.5771,-0.1413,-0.405,-0.2133,1.2053,-0.6159,1.2878,0.0666,-0.9683,-0.2443,-0.362,0.0121
1.3693,0.4558,1.0218,0.8651,-0.5771,-0.1413,-0.405,-0.2133,1.2053,-0.6159,1.2878,0.0666,-0.9683,-0.2443,-0.362,0.0121
1.3451,0.4644,1.0112,0.8904,-0.542,-0.1666,-0.4218,-0.2116,1.3463,-0.6657,1.2817,0.056,-0.9924,-0.2203,-0.3746,0.0067
1.3451,0.4644,1.0112,0.8904,-0.542,-0.1666,-0.4218,-0.2116,1.3463,-0.6657,1.2817,0.056,-0.9924,-0.2203,-0.3746,0.0067
1.3335,0.4812,1.0091,0.8983,-0.4951,-0.1703,-0.4221,-0.2158,1.3608,-0.6289,1.2836,0.0532,-1.0024,-0.2167,-0.3625,-0.0049
1.3335,0.4812,1.0091,0.8983,-0.4951,-0.1703,-0.4221,-0.2158,1.3608,-0.6289,1.2836,0.0532,-1.0024,-0.2167,-0.3625,-0.0049
1.3335,0.4812,1.0115,0.8998,-0.454,-0.1784,-0.4262,-0.2143,1.2964,-0.5745,1.2742,0.0523,-1.0181,-0.2267,-0.3719,-0.0089
1.3335,0.4812,1.0115,0.8998,-0.454,-0.1784,-0.4262,-0.2143,1.2964,-0.5745,1.2742,0.0523,-1.0181,-0.2267,-0.3719,-0.0089
1.3335,0.4812,1.0115,0.8998,-0.4541,-0.1526,-0.4264,-0.2185,1.2019,-0.5727,1.2769,0.0387,-1.05,-0.2565,-0.4037,-0.0099
1.3335,0.4812,1.0115,0.8998,-0.4541,-0.1526,-0.4264,-0.2185,1.2019,-0.5727,1.2769,0.0387,-1.05,-0.2565,-0.4037,-0.0099
1.3635,0.4643,1.0047,0.9046,-0.4778,-0.1185,-0.4328,-0.2184,1.1272,-0.5988,1.2822,0.0263,-1.0667,-0.2865,-0.4354,-0.0109
1.3635,0.4643,1.0047,0.9046,-0.4778,-0.1185,-0.4328,-0.2184,1.1272,-0.5988,1.2822,0.0263,-1.0667,-0.2865,-0.4354,-0.0109
1.3635,0.4643,1.0047,0.9046,-0.4778,-0.1185,-0.4328,-0.2184,1.1272,-0.5988,1.2822,0.0263,-1.0667,-0.2865,-0.4354,-0.0109
1.3814,0.4516,0.9978,0.9047,-0.5073,-0.1016,-0.4247,-0.2254,1.1035,-0.6218,1.2694,0.035,-1.087,-0.2896,-0.4617,-0.0138
1.3814,0.4516,0.9978,0.9047,-0.5073,-0.1016,-0.4247,-0.2254,1.1035,-0.6218,1.2694,0.035,-1.087,-0.2896,-0.4617,-0.0138
1.3635,0.4643,0.9931,0.9015,-0.5131,-0.106,-0.4125,-0.234,1.1227,-0.6494,1.2528,0.0493,-1.0969,-0.2861,-0.4688,-0.0211
1.3635,0.4643,0.9931,0.9015,-0.5131,-0.106,-0.4125,-0.234,1.1227,-0.6494,1.2528,0.0493,-1.0969,-0.2861,-0.4688,-0.0211
1.3218,0.4981,0.9838,0.9,-0.5189,-0.1104,-0.4086,-0.2396,1.1306,-0.6418,1.2401,0.0581,-1.0818,-0.2863,-0.459,-0.0294
1.2794,0.5067,0.9697,0.8954,-0.5305,-0.1321,-0.4335,-0.2308,1.1306,-0.6418,1.2243,0.0615,-1.0223,-0.3073,-0.4554,-0.0404
1.2794,0.5067,0.9697,0.8954,-0.5305,-0.1321,-0.4335,-0.2308,1.1306,-0.6418,1.2243,0.0615,-1.0223,-0.3073,-0.4554,-0.0404
1.212,0.486,0.9623,0.8813,-0.5887,-0.1501,-0.473,-0.2232,1.1227,-0.6494,1.203,0.0585,-0.9831,-0.3314,-0.4701,-0.0425
1.1812,0.4653,0.9664,0.8655,-0.6236,-0.1505,-0.5002,-0.22,1.1131,-0.6356,1.1999,0.0532,-0.9872,-0.3146,-0.4808,-0.0388
1.1812,0.4653,0.9664,0.8655,-0.6236,-0.1505,-0.5002,-0.22,1.1131,-0.6356,1.1999,0.0532,-0.9872,-0.3146,-0.4808,-0.0388
1.1812,0.4653,0.9664,0.8655,-0.6236,-0.1505,-0.5002,-0.22,1.1131,-0.6356,1.1999,0.0532,-0.9872,-0.3146,-0.4808,-0.0388
1.187,0.4569,0.9596,0.8703,-0.6353,-0.1464,-0.5127,-0.2198,1.1385,-0.6341,1.1969,0.048,-1.0353,-0.2668,-0.4937,-0.0318
1.2106,0.4359,0.9485,0.8814,-0.6469,-0.1423,-0.5192,-0.2239,1.2517,-0.6637,1.1983,0.0412,-1.0987,-0.2188,-0.4999,-0.0344
1.2106,0.4359,0.9485,0.8814,-0.6469,-0.1423,-0.5192,-0.2239,1.2517,-0.6637,1.1983,0.0412,-1.0987,-0.2188,-0.4999,-0.0344
1.2287,0.4358,0.9372,0.8878,-0.6353,-0.1464,-0.5194,-0.228,1.2627,-0.5837,1.185,0.0459,-1.1534,-0.2046,-0.4603,-0.0509
1.2287,0.4358,0.9372,0.8878,-0.6353,-0.1464,-0.5194,-0.228,1.2627,-0.5837,1.185,0.0459,-1.1534,-0.2046,-0.4603,-0.0509
1.2287,0.4358,0.9372,0.8878,-0.6353,-0.1464,-0.5194,-0.228,1.2627,-0.5837,1.185,0.0459,-1.1534,-0.2046,-0.4603,-0.0509
1.2233,0.4567,0.9237,0.8973,-0.5945,-0.1544,-0.5255,-0.2238,1.1984,-0.5294,1.1801,0.0434,-1.1642,-0.2213,-0.4839,-0.0401
1.2233,0.4567,0.9237,0.8973,-0.5945,-0.1544,-0.5255,-0.2238,1.1984,-0.5294,1.1801,0.0434,-1.1642,-0.2213,-0.4839,-0.0401
1.2175,0.4651,0.9212,0.8911,-0.5828,-0.1585,-0.54,-0.2208,1.1298,-0.5262,1.1809,0.0326,-1.1755,-0.2481,-0.5137,-0.032
1.2175,0.4651,0.9212,0.8911,-0.5828,-0.1585,-0.54,-0.2208,1.1298,-0.5262,1.1809,0.0326,-1.1755,-0.2481,-0.5137,-0.032
1.2175,0.4651,0.9212,0.8911,-0.5828,-0.1585,-0.54,-0.2208,1.1298,-0.5262,1.1809,0.0326,-1.1755,-0.2481,-0.5137,-0.032
1.2593,0.444,0.9187,0.8848,-0.6004,-0.1459,-0.5506,-0.2234,1.1141,-0.5417,1.1848,0.027,-1.1909,-0.2579,-0.5465,-0.0253
1.2593,0.444,0.9187,0.8848,-0.6004,-0.1459,-0.5506,-0.2234,1.1141,-0.5417,1.1848,0.027,-1.1909,-0.2579,-0.5465,-0.0253
1.3015,0.4354,0.9118,0.8848,-0.6296,-0.1292,-0.553,-0.2289,1.1062,-0.5494,1.177,0.0382,-1.1961,-0.2612,-0.5687,-0.0223
1.2782,0.469,0.9049,0.8849,-0.6587,-0.1253,-0.5493,-0.2386,1.0965,-0.5355,1.1643,0.0469,-1.1811,-0.2614,-0.5779,-0.0263
1.2782,0.469,0.9049,0.8849,-0.6587,-0.1253,-0.5493,-0.2386,1.0965,-0.5355,1.1643,0.0469,-1.1811,-0.2614,-0.5779,-0.0263
1.2782,0.469,0.9049,0.8849,-0.6587,-0.1253,-0.5493,-0.2386,1.0965,-0.5355,1.1643,0.0469,-1.1811,-0.2614,-0.5779,-0.0263
1.2247,0.5069,0.8979,0.8802,-0.6701,-0.1469,-0.5599,-0.2412,1.0851,-0.4999,1.1605,0.0524,-1.1317,-0.2789,-0.5788,-0.0309
1.2247,0.5069,0.8979,0.8802,-0.6701,-0.1469,-0.5599,-0.2412,1.0851,-0.4999,1.1605,0.0524,-1.1317,-0.2789,-0.5788,-0.0309
1.2247,0.5069,0.8979,0.8802,-0.6701,-0.1469,-0.5599,-0.2412,1.0851,-0.4999,1.1605,0.0524,-1.1317,-0.2789,-0.5788,-0.0309
1.1453,0.4779,0.9061,0.8535,-0.7216,-0.1989,-0.614,-0.239,1.1044,-0.5278,1.153,0.0487,-1.1552,-0.245,-0.6101,-0.0319
1.1453,0.4779,0.9061,0.8535,-0.7216,-0.1989,-0.614,-0.239,1.1044,-0.5278,1.153,0.0487,-1.1552,-0.245,-0.6101,-0.0319
1.1453,0.4779,0.9061,0.8535,-0.7216,-0.1989,-0.614,-0.239,1.1044,-0.5278,1.153,0.0487,-1.1552,-0.245,-0.6101,-0.0319
1.145,0.4654,0.8952,0.8692,-0.7447,-0.1907,-0.6284,-0.236,1.1843,-0.5665,1.1492,0.0543,-1.1741,-0.2178,-0.6048,-0.0338
1.145,0.4654,0.8952,0.8692,-0.7447,-0.1907,-0.6284,-0.236,1.1843,-0.5665,1.1492,0.0543,-1.1741,-0.2178,-0.6048,-0.0338
1.145,0.4654,0.8952,0.8692,-0.7447,-0.1907,-0.6284,-0.236,1.1843,-0.5665,1.1492,0.0543,-1.1741,-0.2178,-0.6048,-0.0338
1.187,0.4569,0.8845,0.8945,-0.6755,-0.1897,-0.5955,-0.2434,1.1808,-0.5232,1.1571,0.062,-1.1242,-0.2252,-0.534,-0.0491
1.187,0.4569,0.8845,0.8945,-0.6755,-0.1897,-0.5955,-0.2434,1.1808,-0.5232,1.1571,0.062,-1.1242,-0.2252,-0.534,-0.0491
1.199,0.4527,0.8869,0.896,-0.5941,-0.2185,-0.5789,-0.2451,1.0947,-0.5138,1.166,0.0589,-1.1053,-0.2524,-0.5238,-0.0406
1.199,0.4527,0.8869,0.896,-0.5941,-0.2185,-0.5789,-0.2451,1.0947,-0.5138,1.166,0.0589,-1.1053,-0.2524,-0.5238,-0.0406
1.199,0.4527,0.8869,0.896,-0.5941,-0.2185,-0.5789,-0.2451,1.0947,-0.5138,1.166,0.0589,-1.1053,-0.2524,-0.5238,-0.0406
1.199,0.4527,0.8936,0.8912,-0.5534,-0.2265,-0.564,-0.2398,0.9972,-0.5633,1.1781,0.0462,-1.1411,-0.2653,-0.5381,-0.0258
1.199,0.4527,0.8936,0.8912,-0.5534,-0.2265,-0.564,-0.2398,0.9972,-0.5633,1.1781,0.0462,-1.1411,-0.2653,-0.5381,-0.0258
1.199,0.4527,0.8936,0.8912,-0.5534,-0.2265,-0.564,-0.2398,0.9972,-0.5633,1.1781,0.0462,-1.1411,-0.2653,-0.5381,-0.0258
1.2236,0.4692,0.9278,0.8816,-0.5889,-0.1243,-0.5218,-0.2335,0.9195,-0.6399,1.2312,0.0274,-1.1755,-0.2481,-0.5217,-0.0145
1.2236,0.4692,0.9278,0.8816,-0.5889,-0.1243,-0.5218,-0.2335,0.9195,-0.6399,1.2312,0.0274,-1.1755,-0.2481,-0.5217,-0.0145
1.314,0.4437,0.9461,0.8799,-0.601,-0.0814,-0.5028,-0.2297,0.9792,-0.6506,1.2467,0.0388,-1.1599,-0.2382,-0.4795,-0.0173
1.314,0.4437,0.9461,0.8799,-0.601,-0.0814,-0.5028,-0.2297,0.9792,-0.6506,1.2467,0.0388,-1.1599,-0.2382,-0.4795,-0.0173
1.3805,0.4265,0.9623,0.8813,-0.5952,-0.077,-0.4611,-0.2359,1.0564,-0.6676,1.2475,0.0618,-1.1345,-0.2318,-0.4264,-0.0239
1.3805,0.4265,0.9623,0.8813,-0.5952,-0.077,-0.4611,-0.2359,1.0564,-0.6676,1.2475,0.0618,-1.1345,-0.2318,-0.4264,-0.0239
1.3805,0.4265,0.9623,0.8813,-0.5952,-0.077,-0.4611,-0.2359,1.0564,-0.6676,1.2475,0.0618,-1.1345,-0.2318,-0.4264,-0.0239
1.3935,0.4473,0.974,0.8844,-0.5893,-0.0856,-0.4172,-0.2408,1.1323,-0.6632,1.2611,0.076,-1.0892,-0.2324,-0.3831,-0.0221
1.3935,0.4473,0.974,0.8844,-0.5893,-0.0856,-0.4172,-0.2408,1.1323,-0.6632,1.2611,0.076,-1.0892,-0.2324,-0.3831,-0.0221
1.3463,0.5022,0.9856,0.8874,-0.5597,-0.1282,-0.395,-0.2232,1.2036,-0.5943,1.2767,0.0874,-0.9488,-0.2614,-0.3337,-0.0053
1.3463,0.5022,0.9856,0.8874,-0.5597,-0.1282,-0.395,-0.2232,1.2036,-0.5943,1.2767,0.0874,-0.9488,-0.2614,-0.3337,-0.0053
1.3338,0.4938,1.0061,0.8778,-0.5537,-0.1496,-0.3987,-0.2134,1.2371,-0.5852,1.2881,0.0855,-0.943,-0.248,-0.3243,-0.0013
1.3338,0.4938,1.0061,0.8778,-0.5537,-0.1496,-0.3987,-0.2134,1.2371,-0.5852,1.2881,0.0855,-0.943,-0.248,-0.3243,-0.0013
1.3639,0.4768,1.0244,0.8713,-0.542,-0.1537,-0.3985,-0.2092,1.3077,-0.6101,1.3028,0.074,-0.962,-0.2207,-0.3211,0.0001
1.3639,0.4768,1.0244,0.8713,-0.542,-0.1537,-0.3985,-0.2092,1.3077,-0.6101,1.3028,0.074,-0.962,-0.2207,-0.3211,0.0001
1.3639,0.4768,1.0244,0.8713,-0.542,-0.1537,-0.3985,-0.2092,1.3077,-0.6101,1.3028,0.074,-0.962,-0.2207,-0.3211,0.0001
1.3697,0.4684,1.0223,0.8792,-0.5245,-0.1535,-0.3985,-0.2092,1.3963,-0.6414,1.3067,0.0683,-0.9872,-0.217,-0.3166,-0.0064
1.3697,0.4684,1.0223,0.8792,-0.5245,-0.1535,-0.3985,-0.2092,1.3963,-0.6414,1.3067,0.0683,-0.9872,-0.217,-0.3166,-0.0064
1.3639,0.4768,1.0159,0.8935,-0.5245,-0.1535,-0.3985,-0.2092,1.3851,-0.6059,1.3067,0.0683,-1.0124,-0.2132,-0.2982,-0.0154
1.3639,0.4768,1.0159,0.8935,-0.5245,-0.1535,-0.3985,-0.2092,1.3851,-0.6059,1.3067,0.0683,-1.0124,-0.2132,-0.2982,-0.0154
1.3584,0.4979,1.0139,0.9014,-0.4894,-0.1531,-0.3963,-0.2078,1.3348,-0.5141,1.3067,0.0683,-1.0229,-0.2198,-0.2873,-0.0192
1.3584,0.4979,1.0139,0.9014,-0.4894,-0.1531,-0.3963,-0.2078,1.3348,-0.5141,1.3067,0.0683,-1.0229,-0.2198,-0.2873,-0.0192
1.3647,0.5021,1.0141,0.9061,-0.4306,-0.161,-0.3921,-0.2093,1.2523,-0.4531,1.3062,0.0643,-1.0186,-0.2368,-0.2959,-0.0186
1.3647,0.5021,1.0141,0.9061,-0.4306,-0.161,-0.3921,-0.2093,1.2523,-0.4531,1.3062,0.0643,-1.0186,-0.2368,-0.2959,-0.0186
1.3647,0.5021,1.0141,0.9061,-0.4306,-0.161,-0.3921,-0.2093,1.2523,-0.4531,1.3062,0.0643,-1.0186,-0.2368,-0.2959,-0.0186
1.3588,0.5105,1.0232,0.9029,-0.3834,-0.1776,-0.3902,-0.2121,1.1772,-0.4796,1.3134,0.0491,-1.0259,-0.2804,-0.3346,-0.0099
1.3588,0.5105,1.0232,0.9029,-0.3834,-0.1776,-0.3902,-0.2121,1.1772,-0.4796,1.3134,0.0491,-1.0259,-0.2804,-0.3346,-0.0099
1.3588,0.5105,1.0232,0.9029,-0.3834,-0.1776,-0.3902,-0.2121,1.1772,-0.4796,1.3134,0.0491,-1.0259,-0.2804,-0.3346,-0.0099
1.3588,0.5105,1.0232,0.9029,-0.3834,-0.1776,-0.3902,-0.2121,1.1772,-0.4796,1.3134,0.0491,-1.0259,-0.2804,-0.3346,-0.0099
1.3522,0.4937,1.0252,0.895,-0.4366,-0.1266,-0.4009,-0.2147,1.0887,-0.5432,1.3359,0.0263,-1.0526,-0.3068,-0.3835,-0.0097
1.3522,0.4937,1.0252,0.895,-0.4366,-0.1266,-0.4009,-0.2147,1.0887,-0.5432,1.3359,0.0263,-1.0526,-0.3068,-0.3835,-0.0097
1.3522,0.4937,1.0252,0.895,-0.4366,-0.1266,-0.4009,-0.2147,1.0887,-0.5432,1.3359,0.0263,-1.0526,-0.3068,-0.3835,-0.0097
1.3826,0.4893,1.0139,0.9014,-0.4898,-0.0885,-0.3926,-0.2177,1.1255,-0.5772,1.3012,0.0618,-1.062,-0.2933,-0.3862,-0.0234
1.3588,0.5105,1.0047,0.9046,-0.4956,-0.0929,-0.3824,-0.2234,1.1605,-0.5896,1.2884,0.0706,-1.0118,-0.3008,-0.3817,-0.0299
1.3588,0.5105,1.0047,0.9046,-0.4956,-0.0929,-0.3824,-0.2234,1.1605,-0.5896,1.2884,0.0706,-1.0118,-0.3008,-0.3817,-0.0299
1.3588,0.5105,1.0047,0.9046,-0.4956,-0.0929,-0.3824,-0.2234,1.1605,-0.5896,1.2884,0.0706,-1.0118,-0.3008,-0.3817,-0.0299
1.3588,0.5105,1.0047,0.9046,-0.4956,-0.0929,-0.3824,-0.2234,1.1605,-0.5896,1.2884,0.0706,-1.0118,-0.3008,-0.3817,-0.0299
1.3283,0.5149,0.9907,0.9,-0.5072,-0.1146,-0.3989,-0.2176,1.143,-0.5834,1.27,0.0728,-0.9574,-0.3251,-0.3835,-0.039
1.3283,0.5149,0.9907,0.9,-0.5072,-0.1146,-0.3989,-0.2176,1.143,-0.5834,1.27,0.0728,-0.9574,-0.3251,-0.3835,-0.039
1.3283,0.5149,0.9907,0.9,-0.5072,-0.1146,-0.3989,-0.2176,1.143,-0.5834,1.27,0.0728,-0.9574,-0.3251,-0.3835,-0.039
1.2236,0.4692,0.9941,0.8653,-0.6004,-0.1459,-0.4532,-0.2069,1.1001,-0.5787,1.2506,0.067,-0.9809,-0.2912,-0.4112,-0.0341
1.2236,0.4692,0.9941,0.8653,-0.6004,-0.1459,-0.4532,-0.2069,1.1001,-0.5787,1.2506,0.067,-0.9809,-0.2912,-0.4112,-0.0341
1.2236,0.4692,0.9941,0.8653,-0.6004,-0.1459,-0.4532,-0.2069,1.1001,-0.5787,1.2506,0.067,-0.9809,-0.2912,-0.4112,-0.0341
1.2051,0.4568,0.9961,0.8574,-0.612,-0.1547,-0.468,-0.208,1.1781,-0.5958,1.25,0.063,-1.0338,-0.2366,-0.4197,-0.0335
1.2051,0.4568,0.9961,0.8574,-0.612,-0.1547,-0.468,-0.208,1.1781,-0.5958,1.25,0.063,-1.0338,-0.2366,-0.4197,-0.0335
1.2051,0.4568,0.9961,0.8574,-0.612,-0.1547,-0.468,-0.208,1.1781,-0.5958,1.25,0.063,-1.0338,-0.2366,-0.4197,-0.0335
1.2647,0.4231,0.9694,0.886,-0.6179,-0.1462,-0.4621,-0.2165,1.3093,-0.6317,1.2401,0.0581,-1.0977,-0.1985,-0.3884,-0.0495
1.2647,0.4231,0.9694,0.886,-0.6179,-0.1462,-0.4621,-0.2165,1.3093,-0.6317,1.2401,0.0581,-1.0977,-0.1985,-0.3884,-0.0495
1.2647,0.4231,0.9694,0.886,-0.6179,-0.1462,-0.4621,-0.2165,1.3093,-0.6317,1.2401,0.0581,-1.0977,-0.1985,-0.3884,-0.0495
1.2651,0.4356,0.9559,0.8955,-0.5828,-0.1585,-0.4582,-0.2221,1.277,-0.5466,1.2356,0.0596,-1.0982,-0.2087,-0.3678,-0.0616
1.2837,0.448,0.9492,0.9003,-0.542,-0.1666,-0.4582,-0.2221,1.2046,-0.4999,1.2301,0.0531,-1.1091,-0.2254,-0.3862,-0.0527
1.2837,0.448,0.9492,0.9003,-0.542,-0.1666,-0.4582,-0.2221,1.2046,-0.4999,1.2301,0.0531,-1.1091,-0.2254,-0.3862,-0.0527
1.2837,0.448,0.9444,0.8972,-0.542,-0.1537,-0.4708,-0.2219,1.1535,-0.5029,1.2398,0.0392,-1.1204,-0.2522,-0.4237,-0.0394
1.2837,0.448,0.9444,0.8972,-0.542,-0.1537,-0.4708,-0.2219,1.1535,-0.5029,1.2398,0.0392,-1.1204,-0.2522,-0.4237,-0.0394
1.314,0.4437,0.9487,0.8861,-0.5655,-0.1326,-0.4856,-0.223,1.1456,-0.5107,1.2456,0.0308,-1.136,-0.262,-0.4492,-0.0378
1.314,0.4437,0.9487,0.8861,-0.5655,-0.1326,-0.4856,-0.223,1.1456,-0.5107,1.2456,0.0308,-1.136,-0.262,-0.4492,-0.0378
1.314,0.4437,0.9487,0.8861,-0.5655,-0.1326,-0.4856,-0.223,1.1456,-0.5107,1.2456,0.0308,-1.136,-0.262,-0.4492,-0.0378
1.3685,0.4307,0.9485,0.8814,-0.6124,-0.1032,-0.4919,-0.2229,1.1456,-0.5107,1.2334,0.0435,-1.151,-0.2618,-0.4714,-0.0348
1.3685,0.4307,0.9485,0.8814,-0.6124,-0.1032,-0.4919,-0.2229,1.1456,-0.5107,1.2334,0.0435,-1.151,-0.2618,-0.4714,-0.0348
1.3221,0.5107,0.9326,0.8894,-0.6473,-0.1037,-0.4882,-0.2327,1.1322,-0.4531,1.2085,0.065,-1.1011,-0.2692,-0.4808,-0.0388
1.3221,0.5107,0.9326,0.8894,-0.6473,-0.1037,-0.4882,-0.2327,1.1322,-0.4531,1.2085,0.065,-1.1011,-0.2692,-0.4808,-0.0388
1.2618,0.532,0.9301,0.8831,-0.6528,-0.1338,-0.5091,-0.2296,1.1225,-0.4391,1.2041,0.0666,-1.0468,-0.2935,-0.4892,-0.0382
1.2618,0.532,0.9301,0.8831,-0.6528,-0.1338,-0.5091,-0.2296,1.1225,-0.4391,1.2041,0.0666,-1.0468,-0.2935,-0.4892,-0.0382
1.2618,0.532,0.9301,0.8831,-0.6528,-0.1338,-0.5091,-0.2296,1.1225,-0.4391,1.2041,0.0666,-1.0468,-0.2935,-0.4892,-0.0382
1.2127,0.5112,0.9342,0.8674,-0.6756,-0.1769,-0.5404,-0.2291,1.0989,-0.4625,1.1941,0.0616,-1.0468,-0.2935,-0.5123,-0.0398
1.2127,0.5112,0.9342,0.8674,-0.6756,-0.1769,-0.5404,-0.2291,1.0989,-0.4625,1.1941,0.0616,-1.0468,-0.2935,-0.5123,-0.0398
1.2127,0.5112,0.9342,0.8674,-0.6756,-0.1769,-0.5404,-0.2291,1.0989,-0.4625,1.1941,0.0616,-1.0468,-0.2935,-0.5123,-0.0398
1.1699,0.4946,0.9451,0.8516,-0.6986,-0.1943,-0.5677,-0.23,1.1183,-0.4905,1.1866,0.0579,-1.0855,-0.2594,-0.5323,-0.04
1.1699,0.4946,0.9451,0.8516,-0.6986,-0.1943,-0.5677,-0.23,1.1183,-0.4905,1.1866,0.0579,-1.0855,-0.2594,-0.5323,-0.04
1.1699,0.4946,0.9451,0.8516,-0.6986,-0.1943,-0.5677,-0.23,1.1183,-0.4905,1.1866,0.0579,-1.0855,-0.2594,-0.5323,-0.04
1.1631,0.4653,0.9185,0.8801,-0.7159,-0.1946,-0.597,-0.2323,1.1905,-0.5371,1.1635,0.0577,-1.1637,-0.2112,-0.5189,-0.0593
1.1631,0.4653,0.9185,0.8801,-0.7159,-0.1946,-0.597,-0.2323,1.1905,-0.5371,1.1635,0.0577,-1.1637,-0.2112,-0.5189,-0.0593
1.1812,0.4653,0.9098,0.8927,-0.6755,-0.1897,-0.5828,-0.2395,1.1535,-0.5029,1.161,0.0565,-1.1491,-0.2215,-0.4931,-0.0733
1.1932,0.461,0.903,0.8975,-0.5825,-0.2226,-0.5705,-0.2438,1.1105,-0.4983,1.1585,0.0552,-1.1449,-0.2384,-0.4945,-0.0655
1.1932,0.461,0.903,0.8975,-0.5825,-0.2226,-0.5705,-0.2438,1.1105,-0.4983,1.1585,0.0552,-1.1449,-0.2384,-0.4945,-0.0655
1.1932,0.461,0.9076,0.8959,-0.53,-0.2348,-0.5539,-0.2455,1.0284,-0.5324,1.1643,0.0469,-1.1708,-0.2549,-0.5149,-0.0534
1.1932,0.461,0.9076,0.8959,-0.53,-0.2348,-0.5539,-0.2455,1.0284,-0.5324,1.1643,0.0469,-1.1708,-0.2549,-0.5149,-0.0534
1.1932,0.461,0.9076,0.8959,-0.53,-0.2348,-0.5539,-0.2455,1.0284,-0.5324,1.1643,0.0469,-1.1708,-0.2549,-0.5149,-0.0534
1.1932,0.461,0.9076,0.8959,-0.53,-0.2348,-0.5539,-0.2455,1.0284,-0.5324,1.1643,0.0469,-1.1708,-0.2549,-0.5149,-0.0534
1.1993,0.4652,0.9188,0.8895,-0.5418,-0.1922,-0.5389,-0.2402,0.9547,-0.5587,1.1903,0.0335,-1.1764,-0.2682,-0.5194,-0.047
1.1993,0.4652,0.9188,0.8895,-0.5418,-0.1922,-0.5389,-0.2402,0.9547,-0.5587,1.1903,0.0335,-1.1764,-0.2682,-0.5194,-0.047
1.1993,0.4652,0.9188,0.8895,-0.5418,-0.1922,-0.5389,-0.2402,0.9547,-0.5587,1.1903,0.0335,-1.1764,-0.2682,-0.5194,-0.047
1.3501,0.4309,0.9441,0.8877,-0.6012,-0.0685,-0.5008,-0.2325,1.0008,-0.6063,1.224,0.0426,-1.1266,-0.2756,-0.4794,-0.0465
1.3501,0.4309,0.9441,0.8877,-0.6012,-0.0685,-0.5008,-0.2325,1.0008,-0.6063,1.224,0.0426,-1.1266,-0.2756,-0.4794,-0.0465
1.4226,0.4053,0.9557,0.8908,-0.6013,-0.0555,-0.4715,-0.2344,1.0878,-0.6371,1.2312,0.0612,-1.0912,-0.2727,-0.4424,-0.0474
1.4226,0.4053,0.9557,0.8908,-0.6013,-0.0555,-0.4715,-0.2344,1.0878,-0.6371,1.2312,0.0612,-1.0912,-0.2727,-0.4424,-0.0474
1.4226,0.4053,0.9557,0.8908,-0.6013,-0.0555,-0.4715,-0.2344,1.0878,-0.6371,1.2312,0.0612,-1.0912,-0.2727,-0.4424,-0.0474
1.4231,0.4178,0.9672,0.8891,-0.6071,-0.0599,-0.4298,-0.2406,1.1402,-0.6556,1.2353,0.0745,-1.0704,-0.2596,-0.4139,-0.0478
1.4231,0.4178,0.9672,0.8891,-0.6071,-0.0599,-0.4298,-0.2406,1.1402,-0.6556,1.2353,0.0745,-1.0704,-0.2596,-0.4139,-0.0478
1.4231,0.4178,0.9672,0.8891,-0.6071,-0.0599,-0.4298,-0.2406,1.1402,-0.6556,1.2353,0.0745,-1.0704,-0.2596,-0.4139,-0.0478
1.3529,0.519,0.9812,0.8937,-0.5893,-0.0856,-0.3811,-0.2387,1.1702,-0.6035,1.2522,0.0791,-0.9593,-0.268,-0.3781,-0.0409
1.3529,0.519,0.9812,0.8937,-0.5893,-0.0856,-0.3811,-0.2387,1.1702,-0.6035,1.2522,0.0791,-0.9593,-0.268,-0.3781,-0.0409
1.3042,0.5234,0.9904,0.8905,-0.5772,-0.1284,-0.3928,-0.2218,1.186,-0.5881,1.2636,0.0772,-0.9135,-0.2688,-0.3633,-0.0388
1.3042,0.5234,0.9904,0.8905,-0.5772,-0.1284,-0.3928,-0.2218,1.186,-0.5881,1.2636,0.0772,-0.9135,-0.2688,-0.3633,-0.0388
1.3042,0.5234,0.9904,0.8905,-0.5772,-0.1284,-0.3928,-0.2218,1.186,-0.5881,1.2636,0.0772,-0.9135,-0.2688,-0.3633,-0.0388
1.3042,0.5234,0.9904,0.8905,-0.5772,-0.1284,-0.3928,-0.2218,1.186,-0.5881,1.2636,0.0772,-0.9135,-0.2688,-0.3633,-0.0388
1.2976,0.5066,1.0361,0.8744,-0.5537,-0.1625,-0.4131,-0.2062,1.2644,-0.6053,1.2861,0.0545,-0.9567,-0.2174,-0.3588,-0.0453
1.2976,0.5066,1.0361,0.8744,-0.5537,-0.1625,-0.4131,-0.2062,1.2644,-0.6053,1.2861,0.0545,-0.9567,-0.2174,-0.3588,-0.0453
1.3035,0.4982,1.0388,0.8854,-0.5361,-0.1622,-0.4192,-0.2019,1.3979,-0.663,1.2875,0.0476,-1.0014,-0.1964,-0.3575,-0.0531
1.3035,0.4982,1.0388,0.8854,-0.5361,-0.1622,-0.4192,-0.2019,1.3979,-0.663,1.2875,0.0476,-1.0014,-0.1964,-0.3575,-0.0531
1.3097,0.5024,1.0303,0.9076,-0.5245,-0.1535,-0.4192,-0.2019,1.4237,-0.6616,1.2831,0.0492,-1.0219,-0.1995,-0.3391,-0.062
1.3283,0.5149,1.0217,0.925,-0.5012,-0.136,-0.4109,-0.2048,1.356,-0.5639,1.2831,0.0492,-1.0323,-0.2062,-0.3283,-0.0658
1.3283,0.5149,1.0217,0.925,-0.5012,-0.136,-0.4109,-0.2048,1.356,-0.5639,1.2831,0.0492,-1.0323,-0.2062,-0.3283,-0.0658
1.3283,0.5149,1.0217,0.925,-0.5012,-0.136,-0.4109,-0.2048,1.356,-0.5639,1.2831,0.0492,-1.0323,-0.2062,-0.3283,-0.0658
1.3283,0.5149,1.0217,0.925,-0.5012,-0.136,-0.4109,-0.2048,1.356,-0.5639,1.2831,0.0492,-1.0323,-0.2062,-0.3283,-0.0658
1.3287,0.5275,1.0218,0.9298,-0.4365,-0.1524,-0.4068,-0.2063,1.2559,-0.4968,1.2806,0.048,-1.0234,-0.23,-0.3445,-0.0601
1.3287,0.5275,1.0218,0.9298,-0.4365,-0.1524,-0.4068,-0.2063,1.2559,-0.4968,1.2806,0.048,-1.0234,-0.23,-0.3445,-0.0601
1.3287,0.5275,1.0218,0.9298,-0.4365,-0.1524,-0.4068,-0.2063,1.2559,-0.4968,1.2806,0.048,-1.0234,-0.23,-0.3445,-0.0601
1.3225,0.5233,1.024,0.9266,-0.407,-0.1564,-0.4089,-0.2076,1.128,-0.5045,1.2853,0.0315,-1.0505,-0.2666,-0.3808,-0.0546
1.3225,0.5233,1.024,0.9266,-0.407,-0.1564,-0.4089,-0.2076,1.128,-0.5045,1.2853,0.0315,-1.0505,-0.2666,-0.3808,-0.0546
1.3826,0.4893,1.0147,0.9251,-0.4662,-0.0968,-0.405,-0.2133,1.0381,-0.5463,1.2794,0.0399,-1.0667,-0.2865,-0.4233,-0.0518
1.3826,0.4893,1.0147,0.9251,-0.4662,-0.0968,-0.405,-0.2133,1.0381,-0.5463,1.2794,0.0399,-1.0667,-0.2865,-0.4233,-0.0518
1.3709,0.5062,1.0146,0.9203,-0.478,-0.0926,-0.3907,-0.2205,1.0399,-0.5679,1.2628,0.0542,-1.0521,-0.2968,-0.4273,-0.0577
1.3709,0.5062,1.0146,0.9203,-0.478,-0.0926,-0.3907,-0.2205,1.0399,-0.5679,1.2628,0.0542,-1.0521,-0.2968,-0.4273,-0.0577
1.335,0.5317,1.0052,0.9188,-0.472,-0.1141,-0.3887,-0.2233,1.0477,-0.5602,1.2545,0.0614,-0.9872,-0.3146,-0.4152,-0.0692
1.335,0.5317,1.0052,0.9188,-0.472,-0.1141,-0.3887,-0.2233,1.0477,-0.5602,1.2545,0.0614,-0.9872,-0.3146,-0.4152,-0.0692
1.335,0.5317,1.0052,0.9188,-0.472,-0.1141,-0.3887,-0.2233,1.0477,-0.5602,1.2545,0.0614,-0.9872,-0.3146,-0.4152,-0.0692
1.2738,0.5278,1.0047,0.9046,-0.5012,-0.136,-0.4096,-0.2201,1.0651,-0.5664,1.2431,0.0633,-0.9668,-0.3116,-0.4206,-0.0673
1.2738,0.5278,1.0047,0.9046,-0.5012,-0.136,-0.4096,-0.2201,1.0651,-0.5664,1.2431,0.0633,-0.9668,-0.3116,-0.4206,-0.0673
1.2429,0.5069,1.009,0.8935,-0.5538,-0.1367,-0.4286,-0.2198,1.1351,-0.5911,1.242,0.0553,-0.995,-0.2708,-0.429,-0.0668
1.2546,0.49,0.9932,0.9063,-0.5713,-0.137,-0.4349,-0.2197,1.2212,-0.6005,1.2439,0.0525,-1.0092,-0.2504,-0.413,-0.0724
1.2604,0.4816,0.9843,0.9142,-0.5654,-0.1455,-0.4413,-0.2196,1.2178,-0.5573,1.2389,0.05,-1.0438,-0.233,-0.4,-0.0794
1.2604,0.4816,0.9843,0.9142,-0.5654,-0.1455,-0.4413,-0.2196,1.2178,-0.5573,1.2389,0.05,-1.0438,-0.233,-0.4,-0.0794
1.2607,0.4942,0.9775,0.919,-0.5186,-0.162,-0.4495,-0.2167,1.1711,-0.5092,1.2295,0.0491,-1.0594,-0.2429,-0.4076,-0.0743
1.2607,0.4942,0.9775,0.919,-0.5186,-0.162,-0.4495,-0.2167,1.1711,-0.5092,1.2295,0.0491,-1.0594,-0.2429,-0.4076,-0.0743
1.2607,0.4942,0.9775,0.919,-0.5186,-0.162,-0.4495,-0.2167,1.1711,-0.5092,1.2295,0.0491,-1.0594,-0.2429,-0.4076,-0.0743
1.2549,0.5026,0.9773,0.9143,-0.5069,-0.1661,-0.4539,-0.2194,1.1123,-0.52,1.2342,0.0327,-1.0907,-0.2627,-0.4429,-0.0643
1.2549,0.5026,0.9773,0.9143,-0.5069,-0.1661,-0.4539,-0.2194,1.1123,-0.52,1.2342,0.0327,-1.0907,-0.2627,-0.4429,-0.0643
1.2969,0.4814,0.9794,0.9064,-0.5422,-0.128,-0.4665,-0.2192,1.1237,-0.5556,1.2381,0.0271,-1.1016,-0.2793,-0.4727,-0.0562
1.2969,0.4814,0.9794,0.9064,-0.5422,-0.128,-0.4665,-0.2192,1.1237,-0.5556,1.2381,0.0271,-1.1016,-0.2793,-0.4727,-0.0562
1.351,0.456,0.9792,0.9017,-0.5716,-0.1112,-0.473,-0.2232,1.1237,-0.5556,1.2279,0.037,-1.1115,-0.2758,-0.4949,-0.0532
1.351,0.456,0.9792,0.9017,-0.5716,-0.1112,-0.473,-0.2232,1.1237,-0.5556,1.2279,0.037,-1.1115,-0.2758,-0.4949,-0.0532
1.351,0.456,0.9792,0.9017,-0.5716,-0.1112,-0.473,-0.2232,1.1237,-0.5556,1.2279,0.037,-1.1115,-0.2758,-0.4949,-0.0532
1.3877,0.4557,0.9746,0.9033,-0.6067,-0.0988,-0.4609,-0.2318,1.1123,-0.52,1.2176,0.047,-1.1115,-0.2758,-0.5011,-0.0559
1.3877,0.4557,0.9746,0.9033,-0.6067,-0.0988,-0.4609,-0.2318,1.1123,-0.52,1.2176,0.047,-1.1115,-0.2758,-0.5011,-0.0559
1.3877,0.4557,0.9746,0.9033,-0.6067,-0.0988,-0.4609,-0.2318,1.1123,-0.52,1.2176,0.047,-1.1115,-0.2758,-0.5011,-0.0559
1.2918,0.5151,0.9674,0.8939,-0.6236,-0.1505,-0.4861,-0.2313,1.0832,-0.4781,1.2068,0.0529,-1.0317,-0.2938,-0.5029,-0.0649
1.2918,0.5151,0.9674,0.8939,-0.6236,-0.1505,-0.4861,-0.2313,1.0832,-0.4781,1.2068,0.0529,-1.0317,-0.2938,-0.5029,-0.0649
1.2918,0.5151,0.9674,0.8939,-0.6236,-0.1505,-0.4861,-0.2313,1.0832,-0.4781,1.2068,0.0529,-1.0317,-0.2938,-0.5029,-0.0649
1.2918,0.5151,0.9674,0.8939,-0.6236,-0.1505,-0.4861,-0.2313,1.0832,-0.4781,1.2068,0.0529,-1.0317,-0.2938,-0.5029,-0.0649
1.2918,0.5151,0.9674,0.8939,-0.6236,-0.1505,-0.4861,-0.2313,1.0832,-0.4781,1.2068,0.0529,-1.0317,-0.2938,-0.5029,-0.0649
1.2123,0.4986,0.9895,0.8669,-0.6581,-0.1895,-0.5383,-0.2277,1.1298,-0.5262,1.19,0.0483,-1.0845,-0.2392,-0.5193,-0.0761
1.2123,0.4986,0.9895,0.8669,-0.6581,-0.1895,-0.5383,-0.2277,1.1298,-0.5262,1.19,0.0483,-1.0845,-0.2392,-0.5193,-0.0761
1.2123,0.4986,0.9895,0.8669,-0.6581,-0.1895,-0.5383,-0.2277,1.1298,-0.5262,1.19,0.0483,-1.0845,-0.2392,-0.5193,-0.0761
1.236,0.4776,0.9559,0.8955,-0.6815,-0.1685,-0.5534,-0.2372,1.1553,-0.5247,1.1624,0.0496,-1.1341,-0.2217,-0.5082,-0.0922
1.236,0.4776,0.9559,0.8955,-0.6815,-0.1685,-0.5534,-0.2372,1.1553,-0.5247,1.1624,0.0496,-1.1341,-0.2217,-0.5082,-0.0922
1.2298,0.4734,0.9377,0.902,-0.6582,-0.1767,-0.5601,-0.2454,1.1008,-0.4843,1.1505,0.0475,-1.1345,-0.2318,-0.5166,-0.0916
1.2298,0.4734,0.9377,0.902,-0.6582,-0.1767,-0.5601,-0.2454,1.1008,-0.4843,1.1505,0.0475,-1.1345,-0.2318,-0.5166,-0.0916
1.2178,0.4776,0.9193,0.9037,-0.6175,-0.1975,-0.5685,-0.2466,0.9917,-0.4985,1.1415,0.0318,-1.1806,-0.2514,-0.5525,-0.0862
1.2178,0.4776,0.9193,0.9037,-0.6175,-0.1975,-0.5685,-0.2466,0.9917,-0.4985,1.1415,0.0318,-1.1806,-0.2514,-0.5525,-0.0862
1.2298,0.4734,0.9146,0.9005,-0.6293,-0.1677,-0.5808,-0.2423,0.9085,-0.511,1.1398,0.0198,-1.2162,-0.2643,-0.586,-0.084
1.2298,0.4734,0.9146,0.9005,-0.6293,-0.1677,-0.5808,-0.2423,0.9085,-0.511,1.1398,0.0198,-1.2162,-0.2643,-0.586,-0.084
1.2659,0.4607,0.9123,0.899,-0.6528,-0.1338,-0.583,-0.2436,0.92,-0.5465,1.1335,0.0241,-1.2265,-0.2709,-0.5953,-0.088
1.2903,0.4647,0.9124,0.9037,-0.6646,-0.1168,-0.5664,-0.2453,0.9834,-0.6002,1.1195,0.0396,-1.2364,-0.2674,-0.593,-0.0912
1.2903,0.4647,0.9124,0.9037,-0.6646,-0.1168,-0.5664,-0.2453,0.9834,-0.6002,1.1195,0.0396,-1.2364,-0.2674,-0.593,-0.0912
1.2903,0.4647,0.9124,0.9037,-0.6646,-0.1168,-0.5664,-0.2453,0.9834,-0.6002,1.1195,0.0396,-1.2364,-0.2674,-0.593,-0.0912
1.2611,0.5068,0.9126,0.9084,-0.6472,-0.1166,-0.5353,-0.2499,1.0086,-0.5987,1.123,0.0488,-1.1966,-0.2713,-0.5816,-0.0904
1.2611,0.5068,0.9126,0.9084,-0.6472,-0.1166,-0.5353,-0.2499,1.0086,-0.5987,1.123,0.0488,-1.1966,-0.2713,-0.5816,-0.0904
1.2501,0.5489,0.9218,0.91,-0.6414,-0.1122,-0.5184,-0.2474,1.0146,-0.5695,1.131,0.0565,-1.1219,-0.2824,-0.5662,-0.0838
1.2501,0.5489,0.9218,0.91,-0.6414,-0.1122,-0.5184,-0.2474,1.0146,-0.5695,1.131,0.0565,-1.1219,-0.2824,-0.5662,-0.0838
1.238,0.5532,0.9355,0.9051,-0.6239,-0.1248,-0.5136,-0.2364,1.0381,-0.5463,1.1458,0.0639,-1.0369,-0.297,-0.5445,-0.0745
1.238,0.5532,0.9355,0.9051,-0.6239,-0.1248,-0.5136,-0.2364,1.0381,-0.5463,1.1458,0.0639,-1.0369,-0.297,-0.5445,-0.0745
1.2133,0.5364,0.9605,0.8939,-0.6178,-0.159,-0.5173,-0.2267,1.0381,-0.5463,1.1729,0.0586,-1.0113,-0.2907,-0.5215,-0.0729
1.2133,0.5364,0.9605,0.8939,-0.6178,-0.159,-0.5173,-0.2267,1.0381,-0.5463,1.1729,0.0586,-1.0113,-0.2907,-0.5215,-0.0729
1.2309,0.5111,0.9855,0.8827,-0.6119,-0.1675,-0.5045,-0.2227,1.0983,-0.5571,1.1999,0.0532,-1.0197,-0.257,-0.5007,-0.0682
1.2309,0.5111,0.9855,0.8827,-0.6119,-0.1675,-0.5045,-0.2227,1.0983,-0.5571,1.1999,0.0532,-1.0197,-0.257,-0.5007,-0.0682
1.2549,0.5026,0.9995,0.8873,-0.6003,-0.1588,-0.4856,-0.223,1.2212,-0.6005,1.227,0.0479,-1.0286,-0.2333,-0.4754,-0.0698
1.2549,0.5026,0.9995,0.8873,-0.6003,-0.1588,-0.4856,-0.223,1.2212,-0.6005,1.227,0.0479,-1.0286,-0.2333,-0.4754,-0.0698
1.2549,0.5026,0.9995,0.8873,-0.6003,-0.1588,-0.4856,-0.223,1.2212,-0.6005,1.227,0.0479,-1.0286,-0.2333,-0.4754,-0.0698
1.2855,0.5109,1.0047,0.9046,-0.5829,-0.1457,-0.4624,-0.2206,1.2724,-0.5976,1.2459,0.0497,-1.0381,-0.2196,-0.4362,-0.074
1.2855,0.5109,1.0047,0.9046,-0.5829,-0.1457,-0.4624,-0.2206,1.2724,-0.5976,1.2459,0.0497,-1.0381,-0.2196,-0.4362,-0.074
1.3287,0.5275,1.0239,0.9218,-0.4424,-0.1568,-0.4077,-0.223,1.1949,-0.4858,1.2792,0.0548,-1.0139,-0.2436,-0.3803,-0.0669
1.3287,0.5275,1.0239,0.9218,-0.4424,-0.1568,-0.4077,-0.223,1.1949,-0.4858,1.2792,0.0548,-1.0139,-0.2436,-0.3803,-0.0669
1.3287,0.5275,1.0239,0.9218,-0.4424,-0.1568,-0.4077,-0.223,1.1949,-0.4858,1.2792,0.0548,-1.0139,-0.2436,-0.3803,-0.0669
1.335,0.5317,1.0378,0.9217,-0.413,-0.1479,-0.3885,-0.2191,1.1123,-0.52,1.3072,0.0385,-1.016,-0.2839,-0.3879,-0.0618
1.335,0.5317,1.0378,0.9217,-0.413,-0.1479,-0.3885,-0.2191,1.1123,-0.52,1.3072,0.0385,-1.016,-0.2839,-0.3879,-0.0618
1.335,0.5317,1.0378,0.9217,-0.413,-0.1479,-0.3885,-0.2191,1.1123,-0.52,1.3072,0.0385,-1.016,-0.2839,-0.3879,-0.0618
1.3529,0.519,1.0424,0.9201,-0.4367,-0.1137,-0.3799,-0.2179,1.079,-0.5293,1.3365,0.0303,-1.0066,-0.2975,-0.3817,-0.0592
1.4257,0.4933,1.0471,0.9232,-0.4664,-0.0708,-0.369,-0.2111,1.0887,-0.5432,1.3382,0.0424,-1.0013,-0.2942,-0.3732,-0.0597
1.45,0.4847,1.0495,0.9248,-0.4724,-0.0622,-0.3418,-0.2186,1.1334,-0.5695,1.3315,0.0617,-0.9961,-0.291,-0.3593,-0.0622
1.45,0.4847,1.0495,0.9248,-0.4724,-0.0622,-0.3418,-0.2186,1.1334,-0.5695,1.3315,0.0617,-0.9961,-0.291,-0.3593,-0.0622
1.4202,0.5144,1.0495,0.9248,-0.4724,-0.0622,-0.3189,-0.2246,1.1588,-0.568,1.3262,0.0742,-0.9657,-0.2915,-0.3378,-0.0698
1.4202,0.5144,1.0495,0.9248,-0.4724,-0.0622,-0.3189,-0.2246,1.1588,-0.568,1.3262,0.0742,-0.9657,-0.2915,-0.3378,-0.0698
1.4202,0.5144,1.0495,0.9248,-0.4724,-0.0622,-0.3189,-0.2246,1.1588,-0.568,1.3262,0.0742,-0.9657,-0.2915,-0.3378,-0.0698
1.3842,0.5399,1.0517,0.9216,-0.4545,-0.088,-0.3144,-0.2219,1.1685,-0.5819,1.3148,0.0761,-0.9158,-0.3091,-0.3333,-0.0763
1.3842,0.5399,1.0517,0.9216,-0.4545,-0.088,-0.3144,-0.2219,1.1685,-0.5819,1.3148,0.0761,-0.9158,-0.3091,-0.3333,-0.0763
1.3842,0.5399,1.0517,0.9216,-0.4545,-0.088,-0.3144,-0.2219,1.1685,-0.5819,1.3148,0.0761,-0.9158,-0.3091,-0.3333,-0.0763
1.3166,0.5318,1.0534,0.9042,-0.4955,-0.1058,-0.3352,-0.2145,1.1509,-0.5757,1.3098,0.0736,-0.8858,-0.3197,-0.3342,-0.0808
1.3166,0.5318,1.0534,0.9042,-0.4955,-0.1058,-0.3352,-0.2145,1.1509,-0.5757,1.3098,0.0736,-0.8858,-0.3197,-0.3342,-0.0808
1.2735,0.5151,1.0644,0.8883,-0.513,-0.119,-0.3563,-0.2113,1.1764,-0.5742,1.3182,0.0664,-0.9088,-0.2756,-0.3396,-0.0789
1.2735,0.5151,1.0644,0.8883,-0.513,-0.119,-0.3563,-0.2113,1.1764,-0.5742,1.3182,0.0664,-0.9088,-0.2756,-0.3396,-0.0789
1.2732,0.5025,1.0622,0.8915,-0.5188,-0.1233,-0.3646,-0.2084,1.2644,-0.6053,1.3201,0.0636,-0.9425,-0.2379,-0.3374,-0.0821
1.2848,0.4857,1.0534,0.9042,-0.5129,-0.1319,-0.3607,-0.2141,1.3238,-0.5947,1.3226,0.0649,-0.962,-0.2207,-0.3158,-0.0897
1.2848,0.4857,1.0534,0.9042,-0.5129,-0.1319,-0.3607,-0.2141,1.3238,-0.5947,1.3226,0.0649,-0.962,-0.2207,-0.3158,-0.0897
1.291,0.4899,1.0444,0.9122,-0.4836,-0.1358,-0.3607,-0.2141,1.2816,-0.4953,1.3207,0.0677,-0.9767,-0.2103,-0.2974,-0.0987
1.291,0.4899,1.0444,0.9122,-0.4836,-0.1358,-0.3607,-0.2141,1.2816,-0.4953,1.3207,0.0677,-0.9767,-0.2103,-0.2974,-0.0987
1.2914,0.5024,1.0398,0.9138,-0.4129,-0.1608,-0.3646,-0.2084,1.1973,-0.4123,1.3137,0.068,-0.9725,-0.2273,-0.3073,-0.0903
1.2914,0.5024,1.0398,0.9138,-0.4129,-0.1608,-0.3646,-0.2084,1.1973,-0.4123,1.3137,0.068,-0.9725,-0.2273,-0.3073,-0.0903
1.2914,0.5024,1.0398,0.9138,-0.4129,-0.1608,-0.3646,-0.2084,1.1973,-0.4123,1.3137,0.068,-0.9725,-0.2273,-0.3073,-0.0903
1.2855,0.5109,1.0352,0.9154,-0.3893,-0.1691,-0.3685,-0.2028,1.148,-0.4375,1.3229,0.0499,-0.9893,-0.2574,-0.3396,-0.0789
1.2855,0.5109,1.0352,0.9154,-0.3893,-0.1691,-0.3685,-0.2028,1.148,-0.4375,1.3229,0.0499,-0.9893,-0.2574,-0.3396,-0.0789
1.2855,0.5109,1.0352,0.9154,-0.3893,-0.1691,-0.3685,-0.2028,1.148,-0.4375,1.3229,0.0499,-0.9893,-0.2574,-0.3396,-0.0789
1.3939,0.4599,1.0464,0.9043,-0.4603,-0.1053,-0.3814,-0.2067,1.179,-0.5014,1.3229,0.0499,-1.0055,-0.2774,-0.3888,-0.0664
1.4123,0.4597,1.0373,0.9075,-0.5014,-0.0972,-0.3755,-0.2152,1.1887,-0.5154,1.3126,0.0599,-1.0055,-0.2774,-0.3951,-0.069
1.4123,0.4597,1.0373,0.9075,-0.5014,-0.0972,-0.3755,-0.2152,1.1887,-0.5154,1.3126,0.0599,-1.0055,-0.2774,-0.3951,-0.069
1.4123,0.4597,1.0373,0.9075,-0.5014,-0.0972,-0.3755,-0.2152,1.1887,-0.5154,1.3126,0.0599,-1.0055,-0.2774,-0.3951,-0.069
1.3834,0.5146,1.0259,0.9139,-0.5367,-0.0848,-0.3675,-0.2223,1.1967,-0.5076,1.3067,0.0683,-0.9651,-0.2814,-0.3875,-0.0741
1.3834,0.5146,1.0259,0.9139,-0.5367,-0.0848,-0.3675,-0.2223,1.1967,-0.5076,1.3067,0.0683,-0.9651,-0.2814,-0.3875,-0.0741
1.3287,0.5275,1.0186,0.9045,-0.5481,-0.1194,-0.3824,-0.2234,1.1869,-0.4936,1.3023,0.0699,-0.9099,-0.2957,-0.3884,-0.0787
1.3287,0.5275,1.0186,0.9045,-0.5481,-0.1194,-0.3824,-0.2234,1.1869,-0.4936,1.3023,0.0699,-0.9099,-0.2957,-0.3884,-0.0787
1.2615,0.5194,1.0225,0.884,-0.5653,-0.1712,-0.4138,-0.2187,1.1711,-0.5092,1.3037,0.0631,-0.9046,-0.2925,-0.3978,-0.0827
1.2615,0.5194,1.0225,0.884,-0.5653,-0.1712,-0.4138,-0.2187,1.1711,-0.5092,1.3037,0.0631,-0.9046,-0.2925,-0.3978,-0.0827
1.2615,0.5194,1.0225,0.884,-0.5653,-0.1712,-0.4138,-0.2187,1.1711,-0.5092,1.3037,0.0631,-0.9046,-0.2925,-0.3978,-0.0827
1.2127,0.5112,1.0359,0.8697,-0.6001,-0.1844,-0.4371,-0.2211,1.1632,-0.5169,1.2936,0.0581,-0.9436,-0.2582,-0.4125,-0.0847
1.2003,0.5028,1.0313,0.8713,-0.6234,-0.1762,-0.4602,-0.2193,1.261,-0.562,1.2778,0.0616,-0.9825,-0.2238,-0.4241,-0.0855
1.2003,0.5028,1.0313,0.8713,-0.6234,-0.1762,-0.4602,-0.2193,1.261,-0.562,1.2778,0.0616,-0.9825,-0.2238,-0.4241,-0.0855
1.2302,0.486,1.0183,0.895,-0.6352,-0.1593,-0.4706,-0.2177,1.3318,-0.5871,1.262,0.0651,-1.0072,-0.2099,-0.4197,-0.0919
1.2302,0.486,1.0183,0.895,-0.6352,-0.1593,-0.4706,-0.2177,1.3318,-0.5871,1.262,0.0651,-1.0072,-0.2099,-0.4197,-0.0919
1.2302,0.486,1.0183,0.895,-0.6352,-0.1593,-0.4706,-0.2177,1.3318,-0.5871,1.262,0.0651,-1.0072,-0.2099,-0.4197,-0.0919
1.2422,0.4817,1.0029,0.9173,-0.6178,-0.159,-0.4689,-0.2247,1.3124,-0.5591,1.2481,0.0658,-1.0371,-0.1993,-0.3992,-0.104
1.2604,0.4816,0.9917,0.9284,-0.5653,-0.1712,-0.4691,-0.2289,1.2381,-0.4905,1.2362,0.0637,-1.0428,-0.2128,-0.3978,-0.1118
1.2604,0.4816,0.9917,0.9284,-0.5653,-0.1712,-0.4691,-0.2289,1.2381,-0.4905,1.2362,0.0637,-1.0428,-0.2128,-0.3978,-0.1118
1.2604,0.4816,0.9917,0.9284,-0.5653,-0.1712,-0.4691,-0.2289,1.2381,-0.4905,1.2362,0.0637,-1.0428,-0.2128,-0.3978,-0.1118
1.2542,0.4775,0.9778,0.9285,-0.5243,-0.192,-0.4798,-0.2314,1.1438,-0.489,1.2187,0.055,-1.0741,-0.2326,-0.4362,-0.1031
1.2542,0.4775,0.9778,0.9285,-0.5243,-0.192,-0.4798,-0.2314,1.1438,-0.489,1.2187,0.055,-1.0741,-0.2326,-0.4362,-0.1031
1.2542,0.4775,0.9778,0.9285,-0.5243,-0.192,-0.4798,-0.2314,1.1438,-0.489,1.2187,0.055,-1.0741,-0.2326,-0.4362,-0.1031
1.2604,0.4816,0.9776,0.9238,-0.5244,-0.1664,-0.4882,-0.2327,1.0169,-0.4969,1.214,0.0377,-1.1053,-0.2524,-0.4784,-0.1002
1.2604,0.4816,0.9776,0.9238,-0.5244,-0.1664,-0.4882,-0.2327,1.0169,-0.4969,1.214,0.0377,-1.1053,-0.2524,-0.4784,-0.1002
1.3272,0.4771,0.9773,0.9143,-0.5774,-0.1155,-0.4824,-0.2411,0.9798,-0.5572,1.1831,0.0487,-1.1463,-0.2686,-0.5139,-0.107
1.3272,0.4771,0.9773,0.9143,-0.5774,-0.1155,-0.4824,-0.2411,0.9798,-0.5572,1.1831,0.0487,-1.1463,-0.2686,-0.5139,-0.107
1.3042,0.5234,0.9773,0.9143,-0.5833,-0.107,-0.4742,-0.244,0.9702,-0.5433,1.1679,0.0561,-1.112,-0.2858,-0.5276,-0.1046
1.268,0.5362,0.9748,0.908,-0.6123,-0.1161,-0.4904,-0.234,0.9858,-0.5279,1.161,0.0565,-1.0526,-0.3068,-0.5352,-0.0995
1.268,0.5362,0.9748,0.908,-0.6123,-0.1161,-0.4904,-0.234,0.9858,-0.5279,1.161,0.0565,-1.0526,-0.3068,-0.5352,-0.0995
1.268,0.5362,0.9748,0.908,-0.6123,-0.1161,-0.4904,-0.234,0.9858,-0.5279,1.161,0.0565,-1.0526,-0.3068,-0.5352,-0.0995
1.268,0.5362,0.9748,0.908,-0.6123,-0.1161,-0.4904,-0.234,0.9858,-0.5279,1.161,0.0565,-1.0526,-0.3068,-0.5352,-0.0995
1.2253,0.5322,0.9858,0.8921,-0.6528,-0.1338,-0.5173,-0.2267,0.9935,-0.5201,1.1605,0.0524,-1.0521,-0.2968,-0.5489,-0.0971
1.2253,0.5322,0.9858,0.8921,-0.6528,-0.1338,-0.5173,-0.2267,0.9935,-0.5201,1.1605,0.0524,-1.0521,-0.2968,-0.5489,-0.0971
1.2253,0.5322,0.9858,0.8921,-0.6528,-0.1338,-0.5173,-0.2267,0.9935,-0.5201,1.1605,0.0524,-1.0521,-0.2968,-0.5489,-0.0971
1.2185,0.5028,0.9948,0.8842,-0.67,-0.1598,-0.5549,-0.2261,1.143,-0.5834,1.1583,0.0364,-1.1392,-0.225,-0.5749,-0.1
1.2185,0.5028,0.9948,0.8842,-0.67,-0.1598,-0.5549,-0.2261,1.143,-0.5834,1.1583,0.0364,-1.1392,-0.225,-0.5749,-0.1
1.2305,0.4985,0.977,0.9048,-0.6583,-0.1639,-0.5571,-0.2274,1.2404,-0.6283,1.1539,0.0379,-1.1736,-0.2077,-0.5652,-0.1082
1.2305,0.4985,0.977,0.9048,-0.6583,-0.1639,-0.5571,-0.2274,1.2404,-0.6283,1.1539,0.0379,-1.1736,-0.2077,-0.5652,-0.1082
1.225,0.5195,0.9706,0.9191,-0.6527,-0.1467,-0.5465,-0.2248,1.2115,-0.5866,1.1588,0.0404,-1.1887,-0.2075,-0.5334,-0.1195
1.225,0.5195,0.9706,0.9191,-0.6527,-0.1467,-0.5465,-0.2248,1.2115,-0.5866,1.1588,0.0404,-1.1887,-0.2075,-0.5334,-0.1195
1.2377,0.5405,0.9709,0.9286,-0.6063,-0.1374,-0.5277,-0.2251,1.1535,-0.5029,1.1687,0.0453,-1.1839,-0.2143,-0.4922,-0.1268
1.2563,0.5531,0.9847,0.9285,-0.5304,-0.145,-0.5025,-0.2255,1.0657,-0.4719,1.1869,0.0431,-1.1505,-0.2518,-0.4851,-0.1196
1.2563,0.5531,0.9847,0.9285,-0.5304,-0.145,-0.5025,-0.2255,1.0657,-0.4719,1.1869,0.0431,-1.1505,-0.2518,-0.4851,-0.1196
1.2742,0.5404,1.0007,0.9204,-0.5012,-0.136,-0.4815,-0.2245,1.0072,-0.4829,1.2204,0.0334,-1.1317,-0.2789,-0.4886,-0.1087
1.2742,0.5404,1.0007,0.9204,-0.5012,-0.136,-0.4815,-0.2245,1.0072,-0.4829,1.2204,0.0334,-1.1317,-0.2789,-0.4886,-0.1087
1.2742,0.5404,1.0007,0.9204,-0.5012,-0.136,-0.4815,-0.2245,1.0072,-0.4829,1.2204,0.0334,-1.1317,-0.2789,-0.4886,-0.1087
1.3408,0.5233,1.0146,0.9203,-0.5074,-0.0887,-0.4541,-0.2235,0.9917,-0.4985,1.2506,0.0332,-1.1021,-0.2893,-0.4815,-0.1016
1.3408,0.5233,1.0146,0.9203,-0.5074,-0.0887,-0.4541,-0.2235,0.9917,-0.4985,1.2506,0.0332,-1.1021,-0.2893,-0.4815,-0.1016
1.4014,0.5018,1.0169,0.9219,-0.5075,-0.0757,-0.4267,-0.2226,1.011,-0.5263,1.2622,0.0502,-1.0818,-0.2863,-0.4744,-0.0944
1.4014,0.5018,1.0169,0.9219,-0.5075,-0.0757,-0.4267,-0.2226,1.011,-0.5263,1.2622,0.0502,-1.0818,-0.2863,-0.4744,-0.0944
1.4198,0.5017,1.0239,0.9218,-0.4899,-0.0755,-0.3889,-0.2275,1.0459,-0.5386,1.2758,0.0644,-1.051,-0.2767,-0.4437,-0.098
1.4198,0.5017,1.0239,0.9218,-0.4899,-0.0755,-0.3889,-0.2275,1.0459,-0.5386,1.2758,0.0644,-1.051,-0.2767,-0.4437,-0.098
1.4081,0.5187,1.0307,0.917,-0.4721,-0.0882,-0.3716,-0.2208,1.0808,-0.551,1.2909,0.0718,-0.9809,-0.2912,-0.4108,-0.1048
1.4081,0.5187,1.0307,0.917,-0.4721,-0.0882,-0.3716,-0.2208,1.0808,-0.551,1.2909,0.0718,-0.9809,-0.2912,-0.4108,-0.1048
1.3592,0.5232,1.0419,0.9059,-0.4837,-0.11,-0.3712,-0.2125,1.1158,-0.5633,1.2984,0.0755,-0.9252,-0.2955,-0.3907,-0.1046
1.3592,0.5232,1.0419,0.9059,-0.4837,-0.11,-0.3712,-0.2125,1.1158,-0.5633,1.2984,0.0755,-0.9252,-0.2955,-0.3907,-0.1046
1.3283,0.5149,1.0578,0.8978,-0.5013,-0.1102,-0.3646,-0.2084,1.1939,-0.5804,1.3168,0.0733,-0.9135,-0.2688,-0.3674,-0.1031
1.3283,0.5149,1.0578,0.8978,-0.5013,-0.1102,-0.3646,-0.2084,1.1939,-0.5804,1.3168,0.0733,-0.9135,-0.2688,-0.3674,-0.1031
1.3159,0.5065,1.065,0.9025,-0.5072,-0.1146,-0.3458,-0.2129,1.2627,-0.5837,1.3332,0.0738,-0.9125,-0.2485,-0.3334,-0.1054
1.3159,0.5065,1.065,0.9025,-0.5072,-0.1146,-0.3458,-0.2129,1.2627,-0.5837,1.3332,0.0738,-0.9125,-0.2485,-0.3334,-0.1054
1.3459,0.4896,1.0653,0.912,-0.4896,-0.1143,-0.3308,-0.2118,1.2576,-0.5186,1.3472,0.0731,-0.9066,-0.2351,-0.2885,-0.1116
1.3459,0.4896,1.0653,0.912,-0.4896,-0.1143,-0.3308,-0.2118,1.2576,-0.5186,1.3472,0.0731,-0.9066,-0.2351,-0.2885,-0.1116
1.3459,0.4896,1.0653,0.912,-0.4896,-0.1143,-0.3308,-0.2118,1.2576,-0.5186,1.3472,0.0731,-0.9066,-0.2351,-0.2885,-0.1116
1.3401,0.498,1.0655,0.9168,-0.4307,-0.1352,-0.322,-0.2064,1.2284,-0.4765,1.3561,0.07,-0.9119,-0.2384,-0.2835,-0.1012
1.3401,0.498,1.0655,0.9168,-0.4307,-0.1352,-0.322,-0.2064,1.2284,-0.4765,1.3561,0.07,-0.9119,-0.2384,-0.2835,-0.1012
1.4006,0.4766,1.0837,0.9055,-0.4427,-0.0921,-0.3174,-0.1995,1.1869,-0.4936,1.3793,0.0512,-0.9288,-0.2685,-0.3172,-0.082
1.4006,0.4766,1.0837,0.9055,-0.4427,-0.0921,-0.3174,-0.1995,1.1869,-0.4936,1.3793,0.0512,-0.9288,-0.2685,-0.3172,-0.082
1.4006,0.4766,1.0837,0.9055,-0.4427,-0.0921,-0.3174,-0.1995,1.1869,-0.4936,1.3793,0.0512,-0.9288,-0.2685,-0.3172,-0.082
1.4311,0.4722,1.0813,0.904,-0.4663,-0.0838,-0.3071,-0.2053,1.1772,-0.4796,1.3715,0.0624,-0.9388,-0.265,-0.3149,-0.0852
1.4311,0.4722,1.0813,0.904,-0.4663,-0.0838,-0.3071,-0.2053,1.1772,-0.4796,1.3715,0.0624,-0.9388,-0.265,-0.3149,-0.0852
1.4311,0.4722,1.0813,0.904,-0.4663,-0.0838,-0.3071,-0.2053,1.1772,-0.4796,1.3715,0.0624,-0.9388,-0.265,-0.3149,-0.0852
1.4081,0.5187,1.0907,0.9055,-0.484,-0.0711,-0.2882,-0.2098,1.1931,-0.464,1.3656,0.0709,-0.9335,-0.2617,-0.3127,-0.0884
1.4081,0.5187,1.0907,0.9055,-0.484,-0.0711,-0.2882,-0.2098,1.1931,-0.464,1.3656,0.0709,-0.9335,-0.2617,-0.3127,-0.0884
1.4081,0.5187,1.0907,0.9055,-0.484,-0.0711,-0.2882,-0.2098,1.1931,-0.464,1.3656,0.0709,-0.9335,-0.2617,-0.3127,-0.0884
1.3305,0.591,1.0929,0.9023,-0.4779,-0.1056,-0.2904,-0.2112,1.1973,-0.4123,1.3687,0.0762,-0.7919,-0.2911,-0.2934,-0.0928
1.3305,0.591,1.0929,0.9023,-0.4779,-0.1056,-0.2904,-0.2112,1.1973,-0.4123,1.3687,0.0762,-0.7919,-0.2911,-0.2934,-0.0928
1.281,0.5699,1.0969,0.8864,-0.4894,-0.1531,-0.3198,-0.205,1.1717,-0.4139,1.3726,0.0705,-0.7718,-0.2982,-0.3051,-0.0935
1.281,0.5699,1.0969,0.8864,-0.4894,-0.1531,-0.3198,-0.205,1.1717,-0.4139,1.3726,0.0705,-0.7718,-0.2982,-0.3051,-0.0935
1.268,0.5362,1.1081,0.8753,-0.501,-0.1747,-0.3431,-0.2032,1.1657,-0.4437,1.3695,0.0652,-0.821,-0.2602,-0.3221,-0.0924
1.2615,0.5194,1.1037,0.8816,-0.5244,-0.1664,-0.358,-0.2043,1.2559,-0.4968,1.3606,0.0684,-0.8601,-0.2257,-0.3284,-0.095
1.2615,0.5194,1.1037,0.8816,-0.5244,-0.1664,-0.358,-0.2043,1.2559,-0.4968,1.3606,0.0684,-0.8601,-0.2257,-0.3284,-0.095
1.2615,0.5194,1.1037,0.8816,-0.5244,-0.1664,-0.358,-0.2043,1.2559,-0.4968,1.3606,0.0684,-0.8601,-0.2257,-0.3284,-0.095
1.2615,0.5194,1.1037,0.8816,-0.5244,-0.1664,-0.358,-0.2043,1.2559,-0.4968,1.3606,0.0684,-0.8601,-0.2257,-0.3284,-0.095
1.2852,0.4983,1.0883,0.9039,-0.5186,-0.162,-0.3602,-0.2057,1.2736,-0.5031,1.3491,0.0703,-0.8902,-0.215,-0.3132,-0.1053
1.2852,0.4983,1.0883,0.9039,-0.5186,-0.162,-0.3602,-0.2057,1.2736,-0.5031,1.3491,0.0703,-0.8902,-0.215,-0.3132,-0.1053
1.2976,0.5066,1.0816,0.9135,-0.4893,-0.1659,-0.3585,-0.2127,1.2266,-0.4546,1.3352,0.071,-0.9008,-0.2217,-0.3056,-0.1104
1.3035,0.4982,1.0748,0.9183,-0.4364,-0.1911,-0.3651,-0.2168,1.1577,-0.4515,1.3137,0.068,-0.9272,-0.2382,-0.3293,-0.0996
1.3035,0.4982,1.0748,0.9183,-0.4364,-0.1911,-0.3651,-0.2168,1.1577,-0.4515,1.3137,0.068,-0.9272,-0.2382,-0.3293,-0.0996
1.2914,0.5024,1.0725,0.9167,-0.4482,-0.174,-0.3695,-0.2195,1.0851,-0.4999,1.3134,0.0491,-0.9835,-0.244,-0.3602,-0.0959
1.3518,0.4811,1.0748,0.9183,-0.4777,-0.1314,-0.3738,-0.2222,1.079,-0.5293,1.3097,0.0398,-1.004,-0.2471,-0.3826,-0.0929
1.3518,0.4811,1.0748,0.9183,-0.4777,-0.1314,-0.3738,-0.2222,1.079,-0.5293,1.3097,0.0398,-1.004,-0.2471,-0.3826,-0.0929
1.3518,0.4811,1.0748,0.9183,-0.4777,-0.1314,-0.3738,-0.2222,1.079,-0.5293,1.3097,0.0398,-1.004,-0.2471,-0.3826,-0.0929
1.4123,0.4597,1.0726,0.9214,-0.5013,-0.1102,-0.3719,-0.225,1.0983,-0.5571,1.2964,0.0445,-1.0144,-0.2537,-0.3835,-0.0974
1.4123,0.4597,1.0726,0.9214,-0.5013,-0.1102,-0.3719,-0.225,1.0983,-0.5571,1.2964,0.0445,-1.0144,-0.2537,-0.3835,-0.0974
1.4253,0.4806,1.0726,0.9214,-0.5249,-0.1019,-0.3638,-0.2321,1.1237,-0.5556,1.2792,0.0548,-1.0144,-0.2537,-0.3866,-0.0987
1.4253,0.4806,1.0726,0.9214,-0.5249,-0.1019,-0.3638,-0.2321,1.1237,-0.5556,1.2792,0.0548,-1.0144,-0.2537,-0.3866,-0.0987
1.3959,0.523,1.0658,0.9263,-0.5189,-0.1104,-0.3658,-0.2293,1.122,-0.534,1.2634,0.0583,-0.9798,-0.2711,-0.3898,-0.1001
1.3959,0.523,1.0658,0.9263,-0.5189,-0.1104,-0.3658,-0.2293,1.122,-0.534,1.2634,0.0583,-0.9798,-0.2711,-0.3898,-0.1001
1.3412,0.5359,1.0679,0.9183,-0.5363,-0.1365,-0.3926,-0.2177,1.1298,-0.5262,1.2584,0.0558,-0.9699,-0.2746,-0.3951,-0.0982
1.3412,0.5359,1.0679,0.9183,-0.5363,-0.1365,-0.3926,-0.2177,1.1298,-0.5262,1.2584,0.0558,-0.9699,-0.2746,-0.3951,-0.0982
1.3229,0.536,1.0837,0.9055,-0.5479,-0.1452,-0.4094,-0.216,1.1571,-0.5464,1.2592,0.045,-0.9798,-0.2711,-0.4099,-0.1002
1.3229,0.536,1.0837,0.9055,-0.5479,-0.1452,-0.4094,-0.216,1.1571,-0.5464,1.2592,0.045,-0.9798,-0.2711,-0.4099,-0.1002
1.3225,0.5233,1.0815,0.9087,-0.5654,-0.1455,-0.4262,-0.2143,1.2531,-0.5698,1.2542,0.0425,-1.0092,-0.2504,-0.4237,-0.0978
1.3225,0.5233,1.0815,0.9087,-0.5654,-0.1455,-0.4262,-0.2143,1.2531,-0.5698,1.2542,0.0425,-1.0092,-0.2504,-0.4237,-0.0978
1.3225,0.5233,1.0815,0.9087,-0.5654,-0.1455,-0.4262,-0.2143,1.2531,-0.5698,1.2542,0.0425,-1.0092,-0.2504,-0.4237,-0.0978
1.3104,0.5276,1.068,0.9231,-0.5771,-0.1413,-0.4369,-0.2169,1.3044,-0.5668,1.2492,0.0401,-1.0391,-0.2398,-0.4268,-0.0991
1.3104,0.5276,1.068,0.9231,-0.5771,-0.1413,-0.4369,-0.2169,1.3044,-0.5668,1.2492,0.0401,-1.0391,-0.2398,-0.4268,-0.0991
1.3104,0.5276,1.068,0.9231,-0.5771,-0.1413,-0.4369,-0.2169,1.3044,-0.5668,1.2492,0.0401,-1.0391,-0.2398,-0.4268,-0.0991
1.3108,0.5403,1.057,0.939,-0.4776,-0.1572,-0.4434,-0.221,1.2028,-0.4781,1.2298,0.0343,-1.0704,-0.2596,-0.4477,-0.1038
1.3108,0.5403,1.057,0.939,-0.4776,-0.1572,-0.4434,-0.221,1.2028,-0.4781,1.2298,0.0343,-1.0704,-0.2596,-0.4477,-0.1038
1.2863,0.5361,1.0568,0.9342,-0.4659,-0.1614,-0.4541,-0.2235,1.0869,-0.5216,1.2289,0.0114,-1.113,-0.3059,-0.4984,-0.1004
1.2863,0.5361,1.0568,0.9342,-0.4659,-0.1614,-0.4541,-0.2235,1.0869,-0.5216,1.2289,0.0114,-1.113,-0.3059,-0.4984,-0.1004
1.2618,0.532,1.0473,0.928,-0.5012,-0.136,-0.465,-0.2303,1.0128,-0.5479,1.2361,-0.0037,-1.1441,-0.3255,-0.5352,-0.0995
1.2618,0.532,1.0473,0.928,-0.5012,-0.136,-0.465,-0.2303,1.0128,-0.5479,1.2361,-0.0037,-1.1441,-0.3255,-0.5352,-0.0995
1.2797,0.5193,1.038,0.9265,-0.5543,-0.085,-0.4757,-0.2329,0.9624,-0.551,1.2311,-0.0062,-1.1788,-0.3183,-0.5582,-0.1011
1.2797,0.5193,1.038,0.9265,-0.5543,-0.085,-0.4757,-0.2329,0.9624,-0.551,1.2311,-0.0062,-1.1788,-0.3183,-0.5582,-0.1011
1.3097,0.5024,1.024,0.9266,-0.6013,-0.0555,-0.4882,-0.2327,0.9798,-0.5572,1.2107,0.0136,-1.198,-0.3014,-0.5696,-0.1018
1.328,0.5023,1.0103,0.9314,-0.6188,-0.0558,-0.4761,-0.2412,1.005,-0.5556,1.1883,0.0363,-1.1928,-0.2981,-0.5683,-0.1096
1.328,0.5023,1.0103,0.9314,-0.6188,-0.0558,-0.4761,-0.2412,1.005,-0.5556,1.1883,0.0363,-1.1928,-0.2981,-0.5683,-0.1096
1.3042,0.5234,0.9986,0.9284,-0.6127,-0.0773,-0.4742,-0.244,1.0381,-0.5463,1.1712,0.0465,-1.1483,-0.3087,-0.5586,-0.1178
1.3042,0.5234,0.9986,0.9284,-0.6127,-0.0773,-0.4742,-0.244,1.0381,-0.5463,1.1712,0.0465,-1.1483,-0.3087,-0.5586,-0.1178
1.2439,0.5447,0.9846,0.9237,-0.6182,-0.1075,-0.4967,-0.2339,1.0302,-0.554,1.1505,0.0475,-1.1093,-0.3327,-0.57,-0.1186
1.2439,0.5447,0.9846,0.9237,-0.6182,-0.1075,-0.4967,-0.2339,1.0302,-0.554,1.1505,0.0475,-1.1093,-0.3327,-0.57,-0.1186
1.2439,0.5447,0.9846,0.9237,-0.6182,-0.1075,-0.4967,-0.2339,1.0302,-0.554,1.1505,0.0475,-1.1093,-0.3327,-0.57,-0.1186
1.1828,0.5281,0.9794,0.9064,-0.6761,-0.1256,-0.532,-0.2278,1.0302,-0.554,1.1382,0.0414,-1.1239,-0.3224,-0.5868,-0.1175
1.1828,0.5281,0.9794,0.9064,-0.6761,-0.1256,-0.532,-0.2278,1.0302,-0.554,1.1382,0.0414,-1.1239,-0.3224,-0.5868,-0.1175
1.1828,0.5281,0.9794,0.9064,-0.6761,-0.1256,-0.532,-0.2278,1.0302,-0.554,1.1382,0.0414,-1.1239,-0.3224,-0.5868,-0.1175
1.1582,0.5114,0.9745,0.8985,-0.6991,-0.1431,-0.5549,-0.2261,1.108,-0.571,1.1307,0.0377,-1.1572,-0.2852,-0.5982,-0.1182
1.1699,0.4946,0.9677,0.9033,-0.7107,-0.139,-0.5551,-0.2302,1.186,-0.5881,1.1283,0.0365,-1.1764,-0.2682,-0.5877,-0.122
1.1938,0.4861,0.9589,0.916,-0.7049,-0.1346,-0.5469,-0.2331,1.2081,-0.5433,1.1332,0.0389,-1.1858,-0.2547,-0.5444,-0.1325
1.1938,0.4861,0.9589,0.916,-0.7049,-0.1346,-0.5469,-0.2331,1.2081,-0.5433,1.1332,0.0389,-1.1858,-0.2547,-0.5444,-0.1325
1.1938,0.4861,0.9589,0.916,-0.7049,-0.1346,-0.5469,-0.2331,1.2081,-0.5433,1.1332,0.0389,-1.1858,-0.2547,-0.5444,-0.1325
1.1938,0.4861,0.9589,0.916,-0.7049,-0.1346,-0.5469,-0.2331,1.2081,-0.5433,1.1332,0.0389,-1.1858,-0.2547,-0.5444,-0.1325
1.2003,0.5028,0.9523,0.9255,-0.6411,-0.1508,-0.5363,-0.2305,1.148,-0.4375,1.1475,0.0423,-1.1609,-0.2583,-0.5099,-0.1302
1.2003,0.5028,0.9523,0.9255,-0.6411,-0.1508,-0.5363,-0.2305,1.148,-0.4375,1.1475,0.0423,-1.1609,-0.2583,-0.5099,-0.1302
1.2003,0.5028,0.9523,0.9255,-0.6411,-0.1508,-0.5363,-0.2305,1.148,-0.4375,1.1475,0.0423,-1.1609,-0.2583,-0.5099,-0.1302
1.2192,0.528,0.9661,0.9254,-0.5244,-0.1664,-0.5062,-0.2157,1.0697,-0.4204,1.1977,0.0372,-1.1322,-0.2889,-0.4966,-0.0914
1.2192,0.528,0.9661,0.9254,-0.5244,-0.1664,-0.5062,-0.2157,1.0697,-0.4204,1.1977,0.0372,-1.1322,-0.2889,-0.4966,-0.0914
1.2556,0.5278,0.9868,0.9205,-0.5188,-0.1363,-0.4871,-0.2119,1.0989,-0.4625,1.2406,0.0283,-1.1177,-0.2992,-0.4855,-0.0783
1.2556,0.5278,0.9868,0.9205,-0.5188,-0.1363,-0.4871,-0.2119,1.0989,-0.4625,1.2406,0.0283,-1.1177,-0.2992,-0.4855,-0.0783
1.3401,0.498,1.0051,0.9141,-0.5365,-0.1107,-0.4682,-0.2122,1.1438,-0.489,1.2656,0.0406,-1.0828,-0.3064,-0.4638,-0.0691
1.3401,0.498,1.0051,0.9141,-0.5365,-0.1107,-0.4682,-0.2122,1.1438,-0.489,1.2656,0.0406,-1.0828,-0.3064,-0.4638,-0.0691
1.3947,0.4851,1.019,0.914,-0.5601,-0.0894,-0.441,-0.2154,1.1517,-0.4812,1.2734,0.0632,-1.0672,-0.2966,-0.4375,-0.0662
1.3947,0.4851,1.019,0.914,-0.5601,-0.0894,-0.441,-0.2154,1.1517,-0.4812,1.2734,0.0632,-1.0672,-0.2966,-0.4375,-0.0662
1.4077,0.506,1.0283,0.9155,-0.5718,-0.0853,-0.3994,-0.2259,1.1559,-0.4296,1.2895,0.0787,-1.0165,-0.294,-0.3951,-0.069
1.4077,0.506,1.0283,0.9155,-0.5718,-0.0853,-0.3994,-0.2259,1.1559,-0.4296,1.2895,0.0787,-1.0165,-0.294,-0.3951,-0.069
1.4077,0.506,1.0283,0.9155,-0.5718,-0.0853,-0.3994,-0.2259,1.1559,-0.4296,1.2895,0.0787,-1.0165,-0.294,-0.3951,-0.069
1.3717,0.5315,1.0466,0.909,-0.5658,-0.1068,-0.3846,-0.2248,1.1638,-0.4218,1.309,0.0845,-0.9457,-0.2985,-0.3548,-0.0687
1.3412,0.5359,1.0694,0.8962,-0.5714,-0.1241,-0.3821,-0.2192,1.1815,-0.428,1.3235,0.0879,-0.9194,-0.2821,-0.3346,-0.0685
1.3412,0.5359,1.0694,0.8962,-0.5714,-0.1241,-0.3821,-0.2192,1.1815,-0.428,1.3235,0.0879,-0.9194,-0.2821,-0.3346,-0.0685
1.3346,0.5191,1.0765,0.9008,-0.5771,-0.1413,-0.3799,-0.2179,1.2443,-0.4609,1.3266,0.0932,-0.9183,-0.2619,-0.3036,-0.0721
1.3467,0.5148,1.0747,0.9135,-0.5362,-0.1494,-0.3631,-0.2196,1.2505,-0.4311,1.336,0.0941,-0.9072,-0.2452,-0.2586,-0.0783
1.3467,0.5148,1.0747,0.9135,-0.5362,-0.1494,-0.3631,-0.2196,1.2505,-0.4311,1.336,0.0941,-0.9072,-0.2452,-0.2586,-0.0783
1.3467,0.5148,1.0747,0.9135,-0.5362,-0.1494,-0.3631,-0.2196,1.2505,-0.4311,1.336,0.0941,-0.9072,-0.2452,-0.2586,-0.0783
1.3346,0.5191,1.0725,0.9167,-0.4717,-0.1657,-0.3526,-0.2212,1.1912,-0.4421,1.3349,0.086,-0.923,-0.2551,-0.2545,-0.0724
1.3346,0.5191,1.0725,0.9167,-0.4717,-0.1657,-0.3526,-0.2212,1.1912,-0.4421,1.3349,0.086,-0.923,-0.2551,-0.2545,-0.0724
1.3404,0.5106,1.077,0.9151,-0.4482,-0.1612,-0.344,-0.2199,1.1341,-0.475,1.3466,0.0691,-0.9635,-0.2511,-0.2676,-0.0653
1.3404,0.5106,1.077,0.9151,-0.4482,-0.1612,-0.344,-0.2199,1.1341,-0.475,1.3466,0.0691,-0.9635,-0.2511,-0.2676,-0.0653
1.3768,0.4978,1.077,0.9151,-0.466,-0.1227,-0.3355,-0.2187,1.128,-0.5045,1.3505,0.0635,-0.9887,-0.2473,-0.2752,-0.0602
1.3768,0.4978,1.077,0.9151,-0.466,-0.1227,-0.3355,-0.2187,1.128,-0.5045,1.3505,0.0635,-0.9887,-0.2473,-0.2752,-0.0602
1.4077,0.506,1.0862,0.9118,-0.478,-0.0926,-0.3103,-0.2233,1.1298,-0.5262,1.3421,0.0707,-0.9893,-0.2574,-0.273,-0.0634
1.4077,0.506,1.0862,0.9118,-0.478,-0.0926,-0.3103,-0.2233,1.1298,-0.5262,1.3421,0.0707,-0.9893,-0.2574,-0.273,-0.0634
1.3967,0.5483,1.084,0.915,-0.4839,-0.084,-0.2973,-0.2194,1.1438,-0.489,1.3383,0.0763,-0.9441,-0.2683,-0.2667,-0.0608
1.3967,0.5483,1.084,0.915,-0.4839,-0.084,-0.2973,-0.2194,1.1438,-0.489,1.3383,0.0763,-0.9441,-0.2683,-0.2667,-0.0608
1.3724,0.5569,1.0907,0.9055,-0.5014,-0.0972,-0.3095,-0.2108,1.1693,-0.4874,1.3338,0.0779,-0.9041,-0.2824,-0.2766,-0.0524
1.3724,0.5569,1.0907,0.9055,-0.5014,-0.0972,-0.3095,-0.2108,1.1693,-0.4874,1.3338,0.0779,-0.9041,-0.2824,-0.2766,-0.0524
1.3724,0.5569,1.0907,0.9055,-0.5014,-0.0972,-0.3095,-0.2108,1.1693,-0.4874,1.3338,0.0779,-0.9041,-0.2824,-0.2766,-0.0524
1.3662,0.5527,1.1043,0.8958,-0.4895,-0.1273,-0.324,-0.2036,1.2479,-0.5046,1.3352,0.071,-0.9135,-0.2688,-0.2797,-0.0537
1.3662,0.5527,1.1043,0.8958,-0.4895,-0.1273,-0.324,-0.2036,1.2479,-0.5046,1.3352,0.071,-0.9135,-0.2688,-0.2797,-0.0537
1.3599,0.5485,1.1045,0.9006,-0.5013,-0.1231,-0.3281,-0.2021,1.3171,-0.5078,1.3346,0.067,-0.9383,-0.2549,-0.2752,-0.0602
1.3662,0.5527,1.1024,0.9085,-0.466,-0.1356,-0.3323,-0.2006,1.3038,-0.45,1.3366,0.0642,-0.9583,-0.2478,-0.273,-0.0634
1.3599,0.5485,1.1026,0.9133,-0.4365,-0.1395,-0.3326,-0.2048,1.2523,-0.4531,1.3399,0.0545,-0.9845,-0.2643,-0.2942,-0.0681
1.3599,0.5485,1.1026,0.9133,-0.4365,-0.1395,-0.3326,-0.2048,1.2523,-0.4531,1.3399,0.0545,-0.9845,-0.2643,-0.2942,-0.0681
1.3599,0.5485,1.1026,0.9133,-0.4365,-0.1395,-0.3326,-0.2048,1.2523,-0.4531,1.3399,0.0545,-0.9845,-0.2643,-0.2942,-0.0681
1.372,0.5442,1.1004,0.9164,-0.4426,-0.1051,-0.337,-0.2075,1.1931,-0.464,1.3387,0.0465,-1.0008,-0.2842,-0.3198,-0.0664
1.372,0.5442,1.1004,0.9164,-0.4426,-0.1051,-0.337,-0.2075,1.1931,-0.464,1.3387,0.0465,-1.0008,-0.2842,-0.3198,-0.0664
1.4022,0.5271,1.0936,0.9213,-0.4664,-0.0708,-0.335,-0.2103,1.1675,-0.4656,1.3329,0.0549,-1.006,-0.2874,-0.3378,-0.0698
1.4022,0.5271,1.0936,0.9213,-0.4664,-0.0708,-0.335,-0.2103,1.1675,-0.4656,1.3329,0.0549,-1.006,-0.2874,-0.3378,-0.0698
1.3901,0.5314,1.082,0.9229,-0.4782,-0.0667,-0.325,-0.2203,1.1596,-0.4734,1.3137,0.068,-1.0013,-0.2942,-0.3503,-0.0751
1.3478,0.5528,1.0748,0.9183,-0.4781,-0.0796,-0.3272,-0.2216,1.1438,-0.489,1.2978,0.0715,-0.9668,-0.3116,-0.3607,-0.0836
1.3478,0.5528,1.0748,0.9183,-0.4781,-0.0796,-0.3272,-0.2216,1.1438,-0.489,1.2978,0.0715,-0.9668,-0.3116,-0.3607,-0.0836
1.2804,0.5446,1.0697,0.9056,-0.5132,-0.0931,-0.3524,-0.217,1.1614,-0.4952,1.2864,0.0734,-0.9756,-0.2879,-0.3701,-0.0876
1.2804,0.5446,1.0697,0.9056,-0.5132,-0.0931,-0.3524,-0.217,1.1614,-0.4952,1.2864,0.0734,-0.9756,-0.2879,-0.3701,-0.0876
1.2804,0.5446,1.0697,0.9056,-0.5132,-0.0931,-0.3524,-0.217,1.1614,-0.4952,1.2864,0.0734,-0.9756,-0.2879,-0.3701,-0.0876
1.2676,0.5236,1.0673,0.9041,-0.5307,-0.1063,-0.3651,-0.2168,1.2593,-0.5403,1.2814,0.0709,-0.9845,-0.2643,-0.3763,-0.0902
1.2676,0.5236,1.0673,0.9041,-0.5307,-0.1063,-0.3651,-0.2168,1.2593,-0.5403,1.2814,0.0709,-0.9845,-0.2643,-0.3763,-0.0902
1.2676,0.5236,1.0673,0.9041,-0.5307,-0.1063,-0.3651,-0.2168,1.2593,-0.5403,1.2814,0.0709,-0.9845,-0.2643,-0.3763,-0.0902
1.2553,0.5152,1.0538,0.9137,-0.5423,-0.1151,-0.3758,-0.2193,1.293,-0.5311,1.27,0.0728,-1.0139,-0.2436,-0.3611,-0.1005
1.2553,0.5152,1.0538,0.9137,-0.5423,-0.1151,-0.3758,-0.2193,1.293,-0.5311,1.27,0.0728,-1.0139,-0.2436,-0.3611,-0.1005
1.2556,0.5278,1.0378,0.9217,-0.5247,-0.1277,-0.3968,-0.2162,1.2266,-0.4546,1.2703,0.0579,-1.0448,-0.2532,-0.3848,-0.0897
1.2556,0.5278,1.0378,0.9217,-0.5247,-0.1277,-0.3968,-0.2162,1.2266,-0.4546,1.2703,0.0579,-1.0448,-0.2532,-0.3848,-0.0897
1.2556,0.5278,1.0378,0.9217,-0.5247,-0.1277,-0.3968,-0.2162,1.2266,-0.4546,1.2703,0.0579,-1.0448,-0.2532,-0.3848,-0.0897
1.2918,0.5151,1.0354,0.9202,-0.5424,-0.1021,-0.4136,-0.2145,1.1931,-0.464,1.2819,0.0412,-1.0756,-0.2629,-0.4125,-0.0847
1.2918,0.5151,1.0354,0.9202,-0.5424,-0.1021,-0.4136,-0.2145,1.1931,-0.464,1.2819,0.0412,-1.0756,-0.2629,-0.4125,-0.0847
1.3401,0.498,1.0376,0.917,-0.5777,-0.0768,-0.4179,-0.2172,1.1851,-0.4718,1.2692,0.0499,-1.0813,-0.2762,-0.4326,-0.0849
1.3401,0.498,1.0376,0.917,-0.5777,-0.0768,-0.4179,-0.2172,1.1851,-0.4718,1.2692,0.0499,-1.0813,-0.2762,-0.4326,-0.0849
1.3401,0.498,1.0376,0.917,-0.5777,-0.0768,-0.4179,-0.2172,1.1851,-0.4718,1.2692,0.0499,-1.0813,-0.2762,-0.4326,-0.0849
1.3346,0.5191,1.0285,0.9202,-0.6186,-0.0687,-0.4203,-0.2227,1.1559,-0.4296,1.2589,0.0599,-1.0714,-0.2797,-0.4411,-0.0844
1.299,0.5572,1.0261,0.9187,-0.6126,-0.0902,-0.4289,-0.224,1.1363,-0.4015,1.2461,0.0686,-1.0312,-0.2837,-0.4464,-0.0825
1.2504,0.5616,1.0258,0.9092,-0.6239,-0.1248,-0.4519,-0.2222,1.1266,-0.3874,1.2481,0.0658,-0.9914,-0.2978,-0.4549,-0.0819
1.2504,0.5616,1.0258,0.9092,-0.6239,-0.1248,-0.4519,-0.2222,1.1266,-0.3874,1.2481,0.0658,-0.9914,-0.2978,-0.4549,-0.0819
1.2504,0.5616,1.0258,0.9092,-0.6239,-0.1248,-0.4519,-0.2222,1.1266,-0.3874,1.2481,0.0658,-0.9914,-0.2978,-0.4549,-0.0819
1.2013,0.5407,1.0344,0.8917,-0.6467,-0.168,-0.4876,-0.2202,1.103,-0.4109,1.2337,0.0624,-1.0108,-0.2807,-0.4695,-0.084
1.2013,0.5407,1.0344,0.8917,-0.6467,-0.168,-0.4876,-0.2202,1.103,-0.4109,1.2337,0.0624,-1.0108,-0.2807,-0.4695,-0.084
1.2013,0.5407,1.0344,0.8917,-0.6467,-0.168,-0.4876,-0.2202,1.103,-0.4109,1.2337,0.0624,-1.0108,-0.2807,-0.4695,-0.084
1.1708,0.5323,1.0274,0.8918,-0.6756,-0.1769,-0.5067,-0.2241,1.1577,-0.4515,1.2154,0.0647,-1.0594,-0.2429,-0.4864,-0.0829
1.1708,0.5323,1.0274,0.8918,-0.6756,-0.1769,-0.5067,-0.2241,1.1577,-0.4515,1.2154,0.0647,-1.0594,-0.2429,-0.4864,-0.0829
1.1708,0.5323,1.0274,0.8918,-0.6756,-0.1769,-0.5067,-0.2241,1.1577,-0.4515,1.2154,0.0647,-1.0594,-0.2429,-0.4864,-0.0829
1.1825,0.5155,1.0027,0.9125,-0.6466,-0.1808,-0.5177,-0.235,1.1206,-0.4172,1.1828,0.0635,-1.1043,-0.2322,-0.47,-0.1008
1.1702,0.5071,0.9821,0.9174,-0.5942,-0.2057,-0.5264,-0.2404,1.0541,-0.4361,1.1698,0.0533,-1.1454,-0.2485,-0.4953,-0.0991
1.1702,0.5071,0.9821,0.9174,-0.5942,-0.2057,-0.5264,-0.2404,1.0541,-0.4361,1.1698,0.0533,-1.1454,-0.2485,-0.4953,-0.0991
1.1702,0.5071,0.9821,0.9174,-0.5942,-0.2057,-0.5264,-0.2404,1.0541,-0.4361,1.1698,0.0533,-1.1454,-0.2485,-0.4953,-0.0991
1.1822,0.5029,0.9728,0.9159,-0.6119,-0.1675,-0.5348,-0.2416,0.9879,-0.455,1.1613,0.0416,-1.1858,-0.2547,-0.5259,-0.0956
1.1822,0.5029,0.9728,0.9159,-0.6119,-0.1675,-0.5348,-0.2416,0.9879,-0.455,1.1613,0.0416,-1.1858,-0.2547,-0.5259,-0.0956
1.2363,0.4901,0.9704,0.9143,-0.6296,-0.1292,-0.537,-0.243,0.9917,-0.4985,1.1456,0.0451,-1.2209,-0.2576,-0.5458,-0.0958
1.2363,0.4901,0.9704,0.9143,-0.6296,-0.1292,-0.537,-0.243,0.9917,-0.4985,1.1456,0.0451,-1.2209,-0.2576,-0.5458,-0.0958
1.2363,0.4901,0.9704,0.9143,-0.6296,-0.1292,-0.537,-0.243,0.9917,-0.4985,1.1456,0.0451,-1.2209,-0.2576,-0.5458,-0.0958
1.2669,0.4984,0.9658,0.916,-0.6531,-0.1081,-0.5269,-0.2487,1.0284,-0.5324,1.1324,0.0497,-1.2312,-0.2641,-0.5498,-0.1016
1.2669,0.4984,0.9658,0.916,-0.6531,-0.1081,-0.5269,-0.2487,1.0284,-0.5324,1.1324,0.0497,-1.2312,-0.2641,-0.5498,-0.1016
1.2669,0.4984,0.9658,0.916,-0.6531,-0.1081,-0.5269,-0.2487,1.0284,-0.5324,1.1324,0.0497,-1.2312,-0.2641,-0.5498,-0.1016
1.2081,0.5702,0.9542,0.9129,-0.6936,-0.113,-0.5471,-0.2373,1.0072,-0.4829,1.1054,0.055,-1.1774,-0.2883,-0.5794,-0.0936
1.2081,0.5702,0.9542,0.9129,-0.6936,-0.113,-0.5471,-0.2373,1.0072,-0.4829,1.1054,0.055,-1.1774,-0.2883,-0.5794,-0.0936
1.1717,0.5702,0.9676,0.8986,-0.7165,-0.1305,-0.5718,-0.2286,0.9898,-0.4767,1.0975,0.0473,-1.197,-0.2813,-0.6045,-0.0919
1.1717,0.5702,0.9676,0.8986,-0.7165,-0.1305,-0.5718,-0.2286,0.9898,-0.4767,1.0975,0.0473,-1.197,-0.2813,-0.6045,-0.0919
1.1714,0.5576,0.9697,0.8954,-0.7396,-0.1352,-0.5925,-0.2255,1.0965,-0.5355,1.0964,0.0393,-1.2359,-0.2574,-0.6168,-0.0972
1.1714,0.5576,0.9697,0.8954,-0.7396,-0.1352,-0.5925,-0.2255,1.0965,-0.5355,1.0964,0.0393,-1.2359,-0.2574,-0.6168,-0.0972
1.1954,0.5491,0.9657,0.9112,-0.7339,-0.1308,-0.5966,-0.224,1.1395,-0.5402,1.0989,0.0405,-1.2603,-0.2437,-0.6093,-0.1023
1.1954,0.5491,0.9657,0.9112,-0.7339,-0.1308,-0.5966,-0.224,1.1395,-0.5402,1.0989,0.0405,-1.2603,-0.2437,-0.6093,-0.1023
1.1954,0.5491,0.9657,0.9112,-0.7339,-0.1308,-0.5966,-0.224,1.1395,-0.5402,1.0989,0.0405,-1.2603,-0.2437,-0.6093,-0.1023
1.1899,0.5702,0.9592,0.9255,-0.7167,-0.1177,-0.5882,-0.2228,1.0989,-0.4625,1.0994,0.0446,-1.2701,-0.2402,-0.5851,-0.1084
1.1899,0.5702,0.9592,0.9255,-0.7167,-0.1177,-0.5882,-0.2228,1.0989,-0.4625,1.0994,0.0446,-1.2701,-0.2402,-0.5851,-0.1084
1.2022,0.5786,0.971,0.9333,-0.5595,-0.154,-0.5443,-0.2235,0.9568,-0.3911,1.1302,0.0337,-1.2275,-0.2909,-0.5785,-0.089
1.2022,0.5786,0.971,0.9333,-0.5595,-0.154,-0.5443,-0.2235,0.9568,-0.3911,1.1302,0.0337,-1.2275,-0.2909,-0.5785,-0.089
1.2022,0.5786,0.971,0.9333,-0.5595,-0.154,-0.5443,-0.2235,0.9568,-0.3911,1.1302,0.0337,-1.2275,-0.2909,-0.5785,-0.089
1.2142,0.5744,0.9847,0.9285,-0.5421,-0.1409,-0.5212,-0.2211,0.9027,-0.446,1.163,0.02,-1.2191,-0.3244,-0.5852,-0.0795
1.2142,0.5744,0.9847,0.9285,-0.5421,-0.1409,-0.5212,-0.2211,0.9027,-0.446,1.163,0.02,-1.2191,-0.3244,-0.5852,-0.0795
1.2142,0.5744,0.9847,0.9285,-0.5421,-0.1409,-0.5212,-0.2211,0.9027,-0.446,1.163,0.02,-1.2191,-0.3244,-0.5852,-0.0795
1.2501,0.5489,0.9917,0.9284,-0.5658,-0.1068,-0.5084,-0.2171,0.9066,-0.4894,1.193,0.0199,-1.2139,-0.3211,-0.5812,-0.0736
1.2983,0.5319,0.9966,0.9363,-0.566,-0.0809,-0.4811,-0.2162,0.951,-0.5156,1.1963,0.044,-1.1985,-0.3114,-0.556,-0.0752
1.2983,0.5319,0.9966,0.9363,-0.566,-0.0809,-0.4811,-0.2162,0.951,-0.5156,1.1963,0.044,-1.1985,-0.3114,-0.556,-0.0752
1.2928,0.553,0.9989,0.9379,-0.5719,-0.0723,-0.4415,-0.2238,1.011,-0.5263,1.206,0.0638,-1.153,-0.302,-0.5117,-0.0812
1.2928,0.553,0.9989,0.9379,-0.5719,-0.0723,-0.4415,-0.2238,1.011,-0.5263,1.206,0.0638,-1.153,-0.302,-0.5117,-0.0812
1.2693,0.5869,1.0059,0.9378,-0.5485,-0.0806,-0.4143,-0.227,1.0344,-0.503,1.2121,0.0743,-1.0682,-0.3166,-0.4789,-0.088
1.2693,0.5869,1.0059,0.9378,-0.5485,-0.0806,-0.4143,-0.227,1.0344,-0.503,1.2121,0.0743,-1.0682,-0.3166,-0.4789,-0.088
1.2386,0.5785,1.0101,0.9267,-0.5659,-0.0938,-0.416,-0.22,1.0519,-0.5092,1.2107,0.0811,-1.0082,-0.3276,-0.462,-0.0891
1.2386,0.5785,1.0101,0.9267,-0.5659,-0.0938,-0.416,-0.22,1.0519,-0.5092,1.2107,0.0811,-1.0082,-0.3276,-0.462,-0.0891
1.2386,0.5785,1.0101,0.9267,-0.5659,-0.0938,-0.416,-0.22,1.0519,-0.5092,1.2107,0.0811,-1.0082,-0.3276,-0.462,-0.0891
1.2139,0.5617,1.0237,0.9171,-0.5951,-0.09,-0.424,-0.2129,1.0851,-0.4999,1.222,0.0792,-0.9966,-0.301,-0.442,-0.0889
1.2139,0.5617,1.0237,0.9171,-0.5951,-0.09,-0.424,-0.2129,1.0851,-0.4999,1.222,0.0792,-0.9966,-0.301,-0.442,-0.0889
1.2257,0.5448,1.0239,0.9218,-0.6009,-0.0944,-0.4177,-0.2131,1.1711,-0.5092,1.2384,0.0798,-1.0003,-0.2741,-0.4058,-0.0944
1.2257,0.5448,1.0239,0.9218,-0.6009,-0.0944,-0.4177,-0.2131,1.1711,-0.5092,1.2384,0.0798,-1.0003,-0.2741,-0.4058,-0.0944
1.2377,0.5405,1.0288,0.9297,-0.5364,-0.1236,-0.4109,-0.2048,1.1559,-0.4296,1.2636,0.0772,-1.0149,-0.2638,-0.3692,-0.0831
1.2377,0.5405,1.0288,0.9297,-0.5364,-0.1236,-0.4109,-0.2048,1.1559,-0.4296,1.2636,0.0772,-1.0149,-0.2638,-0.3692,-0.0831
1.2738,0.5278,1.0334,0.9281,-0.5424,-0.1021,-0.4109,-0.2048,1.148,-0.4375,1.2789,0.0697,-1.0301,-0.2635,-0.3844,-0.0728
1.2738,0.5278,1.0334,0.9281,-0.5424,-0.1021,-0.4109,-0.2048,1.148,-0.4375,1.2789,0.0697,-1.0301,-0.2635,-0.3844,-0.0728
1.3342,0.5064,1.038,0.9265,-0.566,-0.0809,-0.4046,-0.2049,1.1559,-0.4296,1.2781,0.0806,-1.0448,-0.2532,-0.3942,-0.0645
1.3342,0.5064,1.038,0.9265,-0.566,-0.0809,-0.4046,-0.2049,1.1559,-0.4296,1.2781,0.0806,-1.0448,-0.2532,-0.3942,-0.0645
1.3229,0.536,1.0312,0.9313,-0.5835,-0.0812,-0.3924,-0.2135,1.1363,-0.4015,1.2767,0.0874,-1.0495,-0.2464,-0.3973,-0.0658
1.3229,0.536,1.0312,0.9313,-0.5835,-0.0812,-0.3924,-0.2135,1.1363,-0.4015,1.2767,0.0874,-1.0495,-0.2464,-0.3973,-0.0658
1.2938,0.5911,1.0312,0.9313,-0.5893,-0.0856,-0.3841,-0.2164,1.1246,-0.3653,1.2797,0.0927,-1.0092,-0.2504,-0.3888,-0.0664
1.2938,0.5911,1.0312,0.9313,-0.5893,-0.0856,-0.3841,-0.2164,1.1246,-0.3653,1.2797,0.0927,-1.0092,-0.2504,-0.3888,-0.0664
1.2938,0.5911,1.0312,0.9313,-0.5893,-0.0856,-0.3841,-0.2164,1.1246,-0.3653,1.2797,0.0927,-1.0092,-0.2504,-0.3888,-0.0664
1.2575,0.6039,1.0356,0.9249,-0.6008,-0.1073,-0.4007,-0.2106,1.107,-0.3591,1.2842,0.0911,-0.9693,-0.2645,-0.3888,-0.0664
1.2575,0.6039,1.0356,0.9249,-0.6008,-0.1073,-0.4007,-0.2106,1.107,-0.3591,1.2842,0.0911,-0.9693,-0.2645,-0.3888,-0.0664
1.2148,0.5997,1.0514,0.9121,-0.6121,-0.1418,-0.4238,-0.2088,1.1168,-0.3732,1.2817,0.0899,-0.9735,-0.2476,-0.392,-0.0677
1.2148,0.5997,1.0514,0.9121,-0.6121,-0.1418,-0.4238,-0.2088,1.1168,-0.3732,1.2817,0.0899,-0.9735,-0.2476,-0.392,-0.0677
1.2142,0.5744,1.0536,0.9089,-0.6236,-0.1505,-0.4425,-0.2043,1.1796,-0.4061,1.2753,0.0943,-0.9924,-0.2203,-0.3942,-0.0645
1.2142,0.5744,1.0536,0.9089,-0.6236,-0.1505,-0.4425,-0.2043,1.1796,-0.4061,1.2753,0.0943,-0.9924,-0.2203,-0.3942,-0.0645
1.226,0.5574,1.0449,0.9264,-0.6179,-0.1462,-0.4488,-0.2042,1.2248,-0.4327,1.2683,0.0946,-1.0024,-0.2167,-0.3812,-0.0715
1.226,0.5574,1.0449,0.9264,-0.6179,-0.1462,-0.4488,-0.2042,1.2248,-0.4327,1.2683,0.0946,-1.0024,-0.2167,-0.3812,-0.0715
1.2257,0.5448,1.0313,0.936,-0.577,-0.167,-0.4512,-0.2097,1.1973,-0.4123,1.2614,0.095,-1.0077,-0.22,-0.3759,-0.0734
1.2257,0.5448,1.0313,0.936,-0.577,-0.167,-0.4512,-0.2097,1.1973,-0.4123,1.2614,0.095,-1.0077,-0.22,-0.3759,-0.0734
1.2315,0.5364,1.0222,0.9393,-0.5537,-0.1625,-0.4534,-0.2111,1.1206,-0.4172,1.2572,0.0816,-1.0386,-0.2297,-0.3982,-0.0704
1.2315,0.5364,1.0222,0.9393,-0.5537,-0.1625,-0.4534,-0.2111,1.1206,-0.4172,1.2572,0.0816,-1.0386,-0.2297,-0.3982,-0.0704
1.2315,0.5364,1.0222,0.9393,-0.5537,-0.1625,-0.4534,-0.2111,1.1206,-0.4172,1.2572,0.0816,-1.0386,-0.2297,-0.3982,-0.0704
1.2556,0.5278,1.0198,0.9377,-0.5833,-0.107,-0.4556,-0.2124,1.0795,-0.4345,1.2581,0.0707,-1.0741,-0.2326,-0.413,-0.0724
1.2556,0.5278,1.0198,0.9377,-0.5833,-0.107,-0.4556,-0.2124,1.0795,-0.4345,1.2581,0.0707,-1.0741,-0.2326,-0.413,-0.0724
1.2556,0.5278,1.0198,0.9377,-0.5833,-0.107,-0.4556,-0.2124,1.0795,-0.4345,1.2581,0.0707,-1.0741,-0.2326,-0.413,-0.0724
1.3104,0.5276,1.0174,0.9361,-0.6071,-0.0599,-0.4413,-0.2196,1.0657,-0.4719,1.2276,0.0857,-1.0996,-0.239,-0.4331,-0.0726
1.3104,0.5276,1.0174,0.9361,-0.6071,-0.0599,-0.4413,-0.2196,1.0657,-0.4719,1.2276,0.0857,-1.0996,-0.239,-0.4331,-0.0726
1.2931,0.5657,1.0083,0.9394,-0.6129,-0.0643,-0.4391,-0.2182,1.056,-0.4579,1.2118,0.0892,-1.0604,-0.2631,-0.446,-0.0656
1.2931,0.5657,1.0083,0.9394,-0.6129,-0.0643,-0.4391,-0.2182,1.056,-0.4579,1.2118,0.0892,-1.0604,-0.2631,-0.446,-0.0656
1.251,0.587,1.0103,0.9314,-0.6185,-0.0817,-0.4595,-0.2068,1.0638,-0.4501,1.1979,0.0899,-1.0505,-0.2666,-0.462,-0.06
1.251,0.587,1.0103,0.9314,-0.6185,-0.0817,-0.4595,-0.2068,1.0638,-0.4501,1.1979,0.0899,-1.0505,-0.2666,-0.462,-0.06
1.2445,0.5701,1.0169,0.9219,-0.6416,-0.0993,-0.4782,-0.2023,1.1165,-0.4687,1.1968,0.0818,-1.0599,-0.253,-0.4812,-0.0556
1.2445,0.5701,1.0169,0.9219,-0.6416,-0.0993,-0.4782,-0.2023,1.1165,-0.4687,1.1968,0.0818,-1.0599,-0.253,-0.4812,-0.0556
1.2445,0.5701,1.0169,0.9219,-0.6416,-0.0993,-0.4782,-0.2023,1.1165,-0.4687,1.1968,0.0818,-1.0599,-0.253,-0.4812,-0.0556
1.2383,0.5658,1.0125,0.9283,-0.6414,-0.1122,-0.4969,-0.1978,1.1949,-0.4858,1.1919,0.0793,-1.0944,-0.2357,-0.4874,-0.0583
1.2383,0.5658,1.0125,0.9283,-0.6414,-0.1122,-0.4969,-0.1978,1.1949,-0.4858,1.1919,0.0793,-1.0944,-0.2357,-0.4874,-0.0583
1.2204,0.5786,1.0059,0.9378,-0.6239,-0.1248,-0.5053,-0.1991,1.1735,-0.4359,1.1844,0.0756,-1.1345,-0.2318,-0.4838,-0.0693
1.2266,0.5828,1.0015,0.9442,-0.5654,-0.1455,-0.5116,-0.199,1.1382,-0.4234,1.1808,0.0663,-1.1458,-0.2585,-0.506,-0.0663
1.2266,0.5828,1.0015,0.9442,-0.5654,-0.1455,-0.5116,-0.199,1.1382,-0.4234,1.1808,0.0663,-1.1458,-0.2585,-0.506,-0.0663
1.2204,0.5786,1.0015,0.9442,-0.5655,-0.1326,-0.5201,-0.2002,1.0638,-0.4501,1.1875,0.0471,-1.1825,-0.2915,-0.5534,-0.0616
1.2204,0.5786,1.0015,0.9442,-0.5655,-0.1326,-0.5201,-0.2002,1.0638,-0.4501,1.1875,0.0471,-1.1825,-0.2915,-0.5534,-0.0616
1.2445,0.5701,0.9923,0.9474,-0.5951,-0.09,-0.5285,-0.2015,0.9957,-0.4472,1.1845,0.0418,-1.2176,-0.2944,-0.5848,-0.0627
1.2445,0.5701,0.9923,0.9474,-0.5951,-0.09,-0.5285,-0.2015,0.9957,-0.4472,1.1845,0.0418,-1.2176,-0.2944,-0.5848,-0.0627
1.2445,0.5701,0.9923,0.9474,-0.5951,-0.09,-0.5285,-0.2015,0.9957,-0.4472,1.1845,0.0418,-1.2176,-0.2944,-0.5848,-0.0627
1.2686,0.5615,0.9832,0.9506,-0.6069,-0.0729,-0.5348,-0.2014,0.9976,-0.469,1.1615,0.0605,-1.2326,-0.2942,-0.613,-0.0624
1.2686,0.5615,0.9832,0.9506,-0.6069,-0.0729,-0.5348,-0.2014,0.9976,-0.469,1.1615,0.0605,-1.2326,-0.2942,-0.613,-0.0624
1.2451,0.5954,0.9601,0.954,-0.6361,-0.069,-0.5168,-0.2184,0.9723,-0.4706,1.1166,0.0869,-1.2181,-0.3044,-0.6151,-0.0882
1.2451,0.5954,0.9601,0.954,-0.6361,-0.069,-0.5168,-0.2184,0.9723,-0.4706,1.1166,0.0869,-1.2181,-0.3044,-0.6151,-0.0882
1.1907,0.6083,0.9461,0.9493,-0.6475,-0.0908,-0.5333,-0.2125,0.9375,-0.4583,1.1003,0.0863,-1.1741,-0.325,-0.6274,-0.0935
1.1907,0.6083,0.9461,0.9493,-0.6475,-0.0908,-0.5333,-0.2125,0.9375,-0.4583,1.1003,0.0863,-1.1741,-0.325,-0.6274,-0.0935
1.1907,0.6083,0.9461,0.9493,-0.6475,-0.0908,-0.5333,-0.2125,0.9375,-0.4583,1.1003,0.0863,-1.1741,-0.325,-0.6274,-0.0935
1.1907,0.6083,0.9461,0.9493,-0.6475,-0.0908,-0.5333,-0.2125,0.9375,-0.4583,1.1003,0.0863,-1.1741,-0.325,-0.6274,-0.0935
1.112,0.6041,0.9455,0.9303,-0.6995,-0.1045,-0.5625,-0.2107,0.9124,-0.4599,1.0905,0.0814,-1.1835,-0.3116,-0.6366,-0.0975
1.112,0.6041,0.9455,0.9303,-0.6995,-0.1045,-0.5625,-0.2107,0.9124,-0.4599,1.0905,0.0814,-1.1835,-0.3116,-0.6366,-0.0975
1.0751,0.5661,0.9248,0.9305,-0.7513,-0.1182,-0.602,-0.2073,1.0597,-0.5014,1.0796,0.0684,-1.2547,-0.2303,-0.6511,-0.0996
1.0751,0.5661,0.9248,0.9305,-0.7513,-0.1182,-0.602,-0.2073,1.0597,-0.5014,1.0796,0.0684,-1.2547,-0.2303,-0.6511,-0.0996
1.0751,0.5661,0.9248,0.9305,-0.7513,-0.1182,-0.602,-0.2073,1.0597,-0.5014,1.0796,0.0684,-1.2547,-0.2303,-0.6511,-0.0996
1.0868,0.5493,0.9135,0.9368,-0.757,-0.1226,-0.6104,-0.2086,1.0657,-0.4719,1.0722,0.0647,-1.2841,-0.2199,-0.6286,-0.1147
1.0868,0.5493,0.9135,0.9368,-0.757,-0.1226,-0.6104,-0.2086,1.0657,-0.4719,1.0722,0.0647,-1.2841,-0.2199,-0.6286,-0.1147
1.0987,0.5451,0.9044,0.9401,-0.7282,-0.1264,-0.6145,-0.2071,1.0112,-0.4315,1.0623,0.0598,-1.2995,-0.2298,-0.6392,-0.111
1.0987,0.5451,0.9044,0.9401,-0.7282,-0.1264,-0.6145,-0.2071,1.0112,-0.4315,1.0623,0.0598,-1.2995,-0.2298,-0.6392,-0.111
1.0987,0.5451,0.8953,0.9433,-0.7108,-0.1261,-0.6166,-0.2085,0.951,-0.4209,1.0764,0.0443,-1.3152,-0.2497,-0.6625,-0.1004
1.0987,0.5451,0.8953,0.9433,-0.7108,-0.1261,-0.6166,-0.2085,0.951,-0.4209,1.0764,0.0443,-1.3152,-0.2497,-0.6625,-0.1004
1.1407,0.5366,0.8998,0.9417,-0.7228,-0.0963,-0.6123,-0.2058,0.9278,-0.4443,1.0983,0.0365,-1.3106,-0.2565,-0.67,-0.0953
1.1407,0.5366,0.8998,0.9417,-0.7228,-0.0963,-0.6123,-0.2058,0.9278,-0.4443,1.0983,0.0365,-1.3106,-0.2565,-0.67,-0.0953
1.2309,0.5111,0.9135,0.9368,-0.7347,-0.0664,-0.5977,-0.2046,0.9452,-0.4505,1.1112,0.0467,-1.2906,-0.2534,-0.6661,-0.0895
1.2615,0.5194,0.9227,0.9384,-0.7349,-0.0534,-0.5666,-0.2093,0.951,-0.4209,1.1232,0.0677,-1.2457,-0.2539,-0.6402,-0.0866
1.2615,0.5194,0.9227,0.9384,-0.7349,-0.0534,-0.5666,-0.2093,0.951,-0.4209,1.1232,0.0677,-1.2457,-0.2539,-0.6402,-0.0866
1.2615,0.5194,0.9227,0.9384,-0.7349,-0.0534,-0.5666,-0.2093,0.951,-0.4209,1.1232,0.0677,-1.2457,-0.2539,-0.6402,-0.0866
1.2501,0.5489,0.9319,0.9352,-0.729,-0.062,-0.5456,-0.2082,0.984,-0.4113,1.1436,0.0816,-1.1562,-0.2651,-0.6089,-0.0855
1.2501,0.5489,0.9319,0.9352,-0.729,-0.062,-0.5456,-0.2082,0.984,-0.4113,1.1436,0.0816,-1.1562,-0.2651,-0.6089,-0.0855
1.1958,0.5617,0.9545,0.9224,-0.7344,-0.0922,-0.5435,-0.2068,1.0093,-0.4097,1.1628,0.0875,-1.1105,-0.2557,-0.5807,-0.0859
1.1958,0.5617,0.9545,0.9224,-0.7344,-0.0922,-0.5435,-0.2068,1.0093,-0.4097,1.1628,0.0875,-1.1105,-0.2557,-0.5807,-0.0859
1.1656,0.566,0.9775,0.919,-0.7342,-0.1051,-0.535,-0.2056,1.0522,-0.4142,1.1777,0.0949,-1.0892,-0.2324,-0.56,-0.0811
1.1656,0.566,0.9775,0.919,-0.7342,-0.1051,-0.535,-0.2056,1.0522,-0.4142,1.1777,0.0949,-1.0892,-0.2324,-0.56,-0.0811
1.1594,0.5618,0.9849,0.9332,-0.7051,-0.1218,-0.5244,-0.203,1.1128,-0.425,1.1965,0.0967,-1.0831,-0.2089,-0.5157,-0.0871
1.1594,0.5618,0.9849,0.9332,-0.7051,-0.1218,-0.5244,-0.203,1.1128,-0.425,1.1965,0.0967,-1.0831,-0.2089,-0.5157,-0.0871
1.1536,0.5703,0.9945,0.9442,-0.6528,-0.1338,-0.5097,-0.2018,1.1011,-0.389,1.2065,0.1016,-1.0527,-0.2093,-0.4789,-0.088
1.1536,0.5703,0.9945,0.9442,-0.6528,-0.1338,-0.5097,-0.2018,1.1011,-0.389,1.2065,0.1016,-1.0527,-0.2093,-0.4789,-0.088
1.1656,0.566,0.9994,0.9521,-0.577,-0.1542,-0.4949,-0.2006,1.0424,-0.4002,1.2123,0.0932,-1.0684,-0.2192,-0.4802,-0.0802
1.1837,0.566,1.0042,0.9553,-0.5656,-0.1197,-0.4843,-0.198,1.0034,-0.4394,1.2251,0.0845,-1.084,-0.2291,-0.4847,-0.0738
1.1837,0.566,1.0042,0.9553,-0.5656,-0.1197,-0.4843,-0.198,1.0034,-0.4394,1.2251,0.0845,-1.084,-0.2291,-0.4847,-0.0738
1.1837,0.566,1.0042,0.9553,-0.5656,-0.1197,-0.4843,-0.198,1.0034,-0.4394,1.2251,0.0845,-1.084,-0.2291,-0.4847,-0.0738
1.1837,0.566,1.0042,0.9553,-0.5656,-0.1197,-0.4843,-0.198,1.0034,-0.4394,1.2251,0.0845,-1.084,-0.2291,-0.4847,-0.0738
1.2501,0.5489,1.0111,0.9552,-0.5777,-0.0768,-0.4695,-0.1969,1.0054,-0.4612,1.2301,0.087,-1.0892,-0.2324,-0.4807,-0.0679
1.2501,0.5489,1.0111,0.9552,-0.5777,-0.0768,-0.4695,-0.1969,1.0054,-0.4612,1.2301,0.087,-1.0892,-0.2324,-0.4807,-0.0679
1.2997,0.5826,1.0206,0.9615,-0.5897,-0.0467,-0.415,-0.2034,1.0578,-0.4797,1.2322,0.1031,-1.0443,-0.2431,-0.4589,-0.0586
1.2997,0.5826,1.0206,0.9615,-0.5897,-0.0467,-0.415,-0.2034,1.0578,-0.4797,1.2322,0.1031,-1.0443,-0.2431,-0.4589,-0.0586
1.2575,0.6039,1.0204,0.9567,-0.6012,-0.0685,-0.4207,-0.1907,1.0638,-0.4501,1.2328,0.1072,-0.9893,-0.2574,-0.4594,-0.0463
1.2575,0.6039,1.0204,0.9567,-0.6012,-0.0685,-0.4207,-0.1907,1.0638,-0.4501,1.2328,0.1072,-0.9893,-0.2574,-0.4594,-0.0463
1.2575,0.6039,1.0204,0.9567,-0.6012,-0.0685,-0.4207,-0.1907,1.0638,-0.4501,1.2328,0.1072,-0.9893,-0.2574,-0.4594,-0.0463
1.2331,0.5997,1.0408,0.9423,-0.6126,-0.0902,-0.4368,-0.1765,1.0814,-0.4563,1.2328,0.1072,-0.9887,-0.2473,-0.4563,-0.045
1.2331,0.5997,1.0408,0.9423,-0.6126,-0.0902,-0.4368,-0.1765,1.0814,-0.4563,1.2328,0.1072,-0.9887,-0.2473,-0.4563,-0.045
1.2331,0.5997,1.0408,0.9423,-0.6126,-0.0902,-0.4368,-0.1765,1.0814,-0.4563,1.2328,0.1072,-0.9887,-0.2473,-0.4563,-0.045
1.2269,0.5955,1.0476,0.9375,-0.6124,-0.1032,-0.447,-0.1708,1.1869,-0.4936,1.2411,0.1,-1.0129,-0.2233,-0.4616,-0.0431
1.2269,0.5955,1.0476,0.9375,-0.6124,-0.1032,-0.447,-0.1708,1.1869,-0.4936,1.2411,0.1,-1.0129,-0.2233,-0.4616,-0.0431
1.2269,0.5955,1.0476,0.9375,-0.6124,-0.1032,-0.447,-0.1708,1.1869,-0.4936,1.2411,0.1,-1.0129,-0.2233,-0.4616,-0.0431
1.2148,0.5997,1.0345,0.9614,-0.5833,-0.107,-0.4492,-0.1721,1.2248,-0.4327,1.2317,0.0991,-1.0679,-0.2091,-0.4344,-0.0649
1.2092,0.621,1.0348,0.9709,-0.513,-0.119,-0.4429,-0.1722,1.1423,-0.3716,1.2306,0.091,-1.084,-0.2291,-0.4482,-0.0624
1.2092,0.621,1.0348,0.9709,-0.513,-0.119,-0.4429,-0.1722,1.1423,-0.3716,1.2306,0.091,-1.084,-0.2291,-0.4482,-0.0624
1.2272,0.6082,1.0348,0.9709,-0.4955,-0.1058,-0.4451,-0.1736,1.0482,-0.3703,1.2403,0.077,-1.1053,-0.2524,-0.4736,-0.0607
1.2272,0.6082,1.0348,0.9709,-0.4955,-0.1058,-0.4451,-0.1736,1.0482,-0.3703,1.2403,0.077,-1.1053,-0.2524,-0.4736,-0.0607
1.2272,0.6082,1.0348,0.9709,-0.4955,-0.1058,-0.4451,-0.1736,1.0482,-0.3703,1.2403,0.077,-1.1053,-0.2524,-0.4736,-0.0607
1.2634,0.5954,1.028,0.9758,-0.5134,-0.0672,-0.4473,-0.1749,1.0073,-0.3878,1.2423,0.0742,-1.1308,-0.2587,-0.4989,-0.0591
1.2634,0.5954,1.028,0.9758,-0.5134,-0.0672,-0.4473,-0.1749,1.0073,-0.3878,1.2423,0.0742,-1.1308,-0.2587,-0.4989,-0.0591
1.2814,0.5826,1.0257,0.9742,-0.5489,-0.0417,-0.4392,-0.182,1.0093,-0.4097,1.2325,0.0882,-1.1308,-0.2587,-0.5051,-0.0617
1.2814,0.5826,1.0257,0.9742,-0.5489,-0.0417,-0.4392,-0.182,1.0093,-0.4097,1.2325,0.0882,-1.1308,-0.2587,-0.5051,-0.0617
1.2814,0.5826,1.0257,0.9742,-0.5489,-0.0417,-0.4392,-0.182,1.0093,-0.4097,1.2325,0.0882,-1.1308,-0.2587,-0.5051,-0.0617
1.2516,0.6124,1.0187,0.9742,-0.5429,-0.0503,-0.4351,-0.1835,1.0365,-0.4299,1.2178,0.0998,-1.0912,-0.2727,-0.5091,-0.0676
1.2516,0.6124,1.0187,0.9742,-0.5429,-0.0503,-0.4351,-0.1835,1.0365,-0.4299,1.2178,0.0998,-1.0912,-0.2727,-0.5091,-0.0676
1.1482,0.6041,1.0179,0.9504,-0.6127,-0.0773,-0.4788,-0.1744,1.0482,-0.4657,1.1965,0.0967,-1.0557,-0.2699,-0.5352,-0.0705
1.1482,0.6041,1.0179,0.9504,-0.6127,-0.0773,-0.4788,-0.1744,1.0482,-0.4657,1.1965,0.0967,-1.0557,-0.2699,-0.5352,-0.0705
1.1482,0.6041,1.0179,0.9504,-0.6127,-0.0773,-0.4788,-0.1744,1.0482,-0.4657,1.1965,0.0967,-1.0557,-0.2699,-0.5352,-0.0705
1.1237,0.5872,1.0132,0.9473,-0.6593,-0.0737,-0.4936,-0.1756,1.1359,-0.4967,1.1935,0.0914,-1.0939,-0.2256,-0.549,-0.068
1.1237,0.5872,1.0132,0.9473,-0.6593,-0.0737,-0.4936,-0.1756,1.1359,-0.4967,1.1935,0.0914,-1.0939,-0.2256,-0.549,-0.068
1.1474,0.5661,1.0019,0.9585,-0.6651,-0.0781,-0.4999,-0.1755,1.2417,-0.5341,1.1891,0.093,-1.118,-0.2017,-0.5361,-0.075
1.1474,0.5661,1.0019,0.9585,-0.6651,-0.0781,-0.4999,-0.1755,1.2417,-0.5341,1.1891,0.093,-1.118,-0.2017,-0.5361,-0.075
1.1653,0.5534,0.9884,0.9681,-0.6825,-0.0784,-0.5001,-0.1797,1.2461,-0.4828,1.1866,0.0917,-1.1426,-0.1878,-0.5073,-0.0876
1.1653,0.5534,0.9884,0.9681,-0.6825,-0.0784,-0.5001,-0.1797,1.2461,-0.4828,1.1866,0.0917,-1.1426,-0.1878,-0.5073,-0.0876
1.1653,0.5534,0.9884,0.9681,-0.6825,-0.0784,-0.5001,-0.1797,1.2461,-0.4828,1.1866,0.0917,-1.1426,-0.1878,-0.5073,-0.0876
1.1776,0.5618,0.9748,0.9777,-0.6358,-0.0949,-0.5042,-0.1782,1.1815,-0.428,1.1747,0.0896,-1.168,-0.1943,-0.5126,-0.0857
1.1776,0.5618,0.9748,0.9777,-0.6358,-0.0949,-0.5042,-0.1782,1.1815,-0.428,1.1747,0.0896,-1.168,-0.1943,-0.5126,-0.0857
1.1776,0.5618,0.9748,0.9777,-0.6358,-0.0949,-0.5042,-0.1782,1.1815,-0.428,1.1747,0.0896,-1.168,-0.1943,-0.5126,-0.0857
1.1899,0.5702,0.9699,0.9698,-0.6302,-0.0776,-0.527,-0.1723,1.0716,-0.4423,1.1778,0.0611,-1.2102,-0.2409,-0.591,-0.0653
1.1899,0.5702,0.9699,0.9698,-0.6302,-0.0776,-0.527,-0.1723,1.0716,-0.4423,1.1778,0.0611,-1.2102,-0.2409,-0.591,-0.0653
1.1899,0.5702,0.9699,0.9698,-0.6302,-0.0776,-0.527,-0.1723,1.0716,-0.4423,1.1778,0.0611,-1.2102,-0.2409,-0.591,-0.0653
1.2501,0.5489,0.9674,0.9634,-0.6654,-0.0522,-0.5417,-0.1735,1.0716,-0.4423,1.1695,0.0682,-1.22,-0.2374,-0.6161,-0.0637
1.2501,0.5489,0.9674,0.9634,-0.6654,-0.0522,-0.5417,-0.1735,1.0716,-0.4423,1.1695,0.0682,-1.22,-0.2374,-0.6161,-0.0637
1.2863,0.5361,0.965,0.9619,-0.6945,-0.0484,-0.54,-0.1805,1.0716,-0.4423,1.1466,0.0869,-1.22,-0.2374,-0.6306,-0.0658
1.269,0.5742,0.9582,0.9667,-0.7059,-0.0572,-0.53,-0.1904,1.0424,-0.4002,1.1339,0.0956,-1.1802,-0.2413,-0.6368,-0.0685
1.269,0.5742,0.9582,0.9667,-0.7059,-0.0572,-0.53,-0.1904,1.0424,-0.4002,1.1339,0.0956,-1.1802,-0.2413,-0.6368,-0.0685
1.2269,0.5955,0.9581,0.9619,-0.7172,-0.079,-0.5467,-0.1887,1.0151,-0.3799,1.127,0.0959,-1.1355,-0.252,-0.649,-0.0738
1.2269,0.5955,0.9581,0.9619,-0.7172,-0.079,-0.5467,-0.1887,1.0151,-0.3799,1.127,0.0959,-1.1355,-0.252,-0.649,-0.0738
1.16,0.5871,0.96,0.9492,-0.7223,-0.1349,-0.5841,-0.184,0.982,-0.3895,1.1196,0.0922,-1.1402,-0.2452,-0.6613,-0.0791
1.1176,0.583,0.9712,0.9381,-0.7394,-0.148,-0.6173,-0.1807,0.9918,-0.4035,1.1097,0.0872,-1.1788,-0.211,-0.6841,-0.0807
1.1176,0.583,0.9712,0.9381,-0.7394,-0.148,-0.6173,-0.1807,0.9918,-0.4035,1.1097,0.0872,-1.1788,-0.211,-0.6841,-0.0807
1.1176,0.583,0.9712,0.9381,-0.7394,-0.148,-0.6173,-0.1807,0.9918,-0.4035,1.1097,0.0872,-1.1788,-0.211,-0.6841,-0.0807
1.1054,0.5745,0.9646,0.9476,-0.7567,-0.1483,-0.6362,-0.1846,1.056,-0.4579,1.0935,0.0866,-1.208,-0.1904,-0.6911,-0.0879
1.1054,0.5745,0.9646,0.9476,-0.7567,-0.1483,-0.6362,-0.1846,1.056,-0.4579,1.0935,0.0866,-1.208,-0.1904,-0.6911,-0.0879
1.0993,0.5703,0.9512,0.962,-0.7626,-0.1398,-0.6489,-0.1886,1.0287,-0.4377,1.0797,0.0873,-1.223,-0.1903,-0.6822,-0.1006
1.0993,0.5703,0.9512,0.962,-0.7626,-0.1398,-0.6489,-0.1886,1.0287,-0.4377,1.0797,0.0873,-1.223,-0.1903,-0.6822,-0.1006
1.0993,0.5703,0.9512,0.962,-0.7626,-0.1398,-0.6489,-0.1886,1.0287,-0.4377,1.0797,0.0873,-1.223,-0.1903,-0.6822,-0.1006
1.0812,0.5703,0.9307,0.9716,-0.7394,-0.148,-0.6556,-0.1969,0.949,-0.399,1.0674,0.0811,-1.2435,-0.2035,-0.7019,-0.1009
1.0812,0.5703,0.9307,0.9716,-0.7394,-0.148,-0.6556,-0.1969,0.949,-0.399,1.0674,0.0811,-1.2435,-0.2035,-0.7019,-0.1009
1.0812,0.5703,0.9307,0.9716,-0.7394,-0.148,-0.6556,-0.1969,0.949,-0.399,1.0674,0.0811,-1.2435,-0.2035,-0.7019,-0.1009
1.1171,0.5577,0.9101,0.9765,-0.7574,-0.0969,-0.6766,-0.2021,0.8353,-0.4432,1.0516,0.0656,-1.3187,-0.2128,-0.76,-0.0971
1.1171,0.5577,0.9101,0.9765,-0.7574,-0.0969,-0.6766,-0.2021,0.8353,-0.4432,1.0516,0.0656,-1.3187,-0.2128,-0.76,-0.0971
1.1171,0.5577,0.9101,0.9765,-0.7574,-0.0969,-0.6766,-0.2021,0.8353,-0.4432,1.0516,0.0656,-1.3187,-0.2128,-0.76,-0.0971
1.1171,0.5577,0.9101,0.9765,-0.7574,-0.0969,-0.6766,-0.2021,0.8353,-0.4432,1.0516,0.0656,-1.3187,-0.2128,-0.76,-0.0971
1.1357,0.5829,0.8988,0.9829,-0.7867,-0.0673,-0.6645,-0.2106,0.8488,-0.5004,1.0146,0.0808,-1.3442,-0.2293,-0.7835,-0.1032
1.1357,0.5829,0.8988,0.9829,-0.7867,-0.0673,-0.6645,-0.2106,0.8488,-0.5004,1.0146,0.0808,-1.3442,-0.2293,-0.7835,-0.1032
1.1123,0.6168,0.8919,0.9829,-0.7808,-0.0758,-0.6624,-0.2092,0.8373,-0.4649,1.0039,0.0867,-1.2854,-0.2501,-0.7909,-0.0982
1.1123,0.6168,0.8919,0.9829,-0.7808,-0.0758,-0.6624,-0.2092,0.8373,-0.4649,1.0039,0.0867,-1.2854,-0.2501,-0.7909,-0.0982
1.0822,0.621,0.9008,0.9749,-0.7863,-0.0931,-0.6723,-0.1994,0.8449,-0.4571,1.0064,0.0879,-1.2556,-0.2504,-0.7901,-0.0937
1.0822,0.621,0.9008,0.9749,-0.7863,-0.0931,-0.6723,-0.1994,0.8449,-0.4571,1.0064,0.0879,-1.2556,-0.2504,-0.7901,-0.0937
1.0881,0.6126,0.9213,0.9653,-0.7804,-0.1016,-0.6699,-0.1939,0.897,-0.4755,1.0283,0.0802,-1.2594,-0.2235,-0.781,-0.0897
1.0881,0.6126,0.9213,0.9653,-0.7804,-0.1016,-0.6699,-0.1939,0.897,-0.4755,1.0283,0.0802,-1.2594,-0.2235,-0.781,-0.0897
1.1,0.6083,0.9285,0.9748,-0.7747,-0.0972,-0.6573,-0.1899,1.0091,-0.5046,1.0557,0.0789,-1.2585,-0.2034,-0.7553,-0.0868
1.1123,0.6168,0.9358,0.989,-0.746,-0.0881,-0.6362,-0.1846,1.0403,-0.4735,1.0773,0.086,-1.253,-0.19,-0.7085,-0.0913
1.1123,0.6168,0.9358,0.989,-0.746,-0.0881,-0.6362,-0.1846,1.0403,-0.4735,1.0773,0.086,-1.253,-0.19,-0.7085,-0.0913
