2955.7,54.233,19.81,0,-0.037137,0,3140,50.759,0,0,0,0,0.0092465,0
2956.1,54.233,19.81,0,-0.03734,0,3140,50.759,0,0,0,0,0.0092664,0
2956.5,54.233,19.809,0,-0.037538,0,3140,50.759,0,0,0,0,0.0092864,0
2956.5,54.233,19.809,0,-0.037538,0,3140,50.759,0,0,0,0,0.0092864,0
2956.5,54.233,19.809,0,-0.037538,0,3140,50.759,0,0,0,0,0.0092864,0
2956.5,54.233,19.809,0,-0.037538,0,3140,50.759,0,0,0,0,0.0092864,0
2956.5,54.233,19.809,0,-0.037538,0,3140,50.759,0,0,0,0,0.0092864,0
2956.5,54.233,19.809,0,-0.037538,0,3140,50.759,0,0,0,0,0.0092864,0
2956.5,54.233,19.809,0,-0.037538,0,3140,50.759,0,0,0,0,0.0092864,0
2956.5,54.233,19.809,0,-0.037538,0,3140,50.759,0,0,0,0,0.0092864,0
2956.5,54.233,19.809,0,-0.037538,0,3140,50.759,0,0,0,0,0.0092864,0
2956.5,54.233,19.809,0,-0.037538,0,3140,50.759,0,0,0,0,0.0092864,0
2956.5,54.233,19.809,0,-0.037538,0,3140,50.759,0,0,0,0,0.0092864,0
2956.5,54.233,19.809,0,-0.037538,0,3140,50.759,0,0,0,0,0.0092864,0
2957.2,54.233,19.807,0,-0.037919,0,3140,50.759,0,0,0,0,0.0093266,0
2957.2,54.233,19.807,0,-0.037919,0,3140,50.759,0,0,0,0,0.0093266,0
2957.2,54.233,19.807,0,-0.037919,0,3140,50.759,0,0,0,0,0.0093266,0
2957.2,54.233,19.807,0,-0.037919,0,3140,50.759,0,0,0,0,0.0093266,0
2957.2,54.233,19.807,0,-0.037919,0,3140,50.759,0,0,0,0,0.0093266,0
2957.2,54.233,19.807,0,-0.037919,0,3140,50.759,0,0,0,0,0.0093266,0
2957.2,54.233,19.807,0,-0.037919,0,3140,50.759,0,0,0,0,0.0093266,0
2957.6,54.233,19.807,0,-0.038101,0,3140,50.759,0,0,0,0,0.0093469,0
2957.6,54.233,19.807,0,-0.038101,0,3140,50.759,0,0,0,0,0.0093469,0
2957.6,54.233,19.807,0,-0.038101,0,3140,50.759,0,0,0,0,0.0093469,0
2957.6,54.233,19.807,0,-0.038101,0,3140,50.759,0,0,0,0,0.0093469,0
2959.6,54.233,19.803,0,-0.038951,0,3140,50.759,0,0,0,0,0.0094495,0
2959.6,54.233,19.803,0,-0.038951,0,3140,50.759,0,0,0,0,0.0094495,0
2960,54.233,19.802,0,-0.039108,0,3140,50.759,0,0,0,0,0.0094702,0
2961.2,54.233,19.8,0,-0.039558,0,3140,50.759,0,0,0,0,0.0095331,0
2961.2,54.233,19.8,0,-0.039558,0,3140,50.759,0,0,0,0,0.0095331,0
2961.2,54.233,19.8,0,-0.039558,0,3140,50.759,0,0,0,0,0.0095331,0
2961.2,54.233,19.8,0,-0.039558,0,3140,50.759,0,0,0,0,0.0095331,0
2961.2,54.233,19.8,0,-0.039558,0,3140,50.759,0,0,0,0,0.0095331,0
2961.2,54.233,19.8,0,-0.039558,0,3140,50.759,0,0,0,0,0.0095331,0
2961.2,54.233,19.8,0,-0.039558,0,3140,50.759,0,0,0,0,0.0095331,0
2961.2,54.233,19.8,0,-0.039558,0,3140,50.759,0,0,0,0,0.0095331,0
2961.2,54.233,19.8,0,-0.039558,0,3140,50.759,0,0,0,0,0.0095331,0
2961.2,54.233,19.8,0,-0.039558,0,3140,50.759,0,0,0,0,0.0095331,0
2961.2,54.233,19.8,0,-0.039558,0,3140,50.759,0,0,0,0,0.0095331,0
2961.2,54.233,19.8,0,-0.039558,0,3140,50.759,0,0,0,0,0.0095331,0
2961.2,54.233,19.8,0,-0.039558,0,3140,50.759,0,0,0,0,0.0095331,0
2961.2,54.233,19.8,0,-0.039558,0,3140,50.759,0,0,0,0,0.0095331,0
2961.2,54.233,19.8,0,-0.039558,0,3140,50.759,0,0,0,0,0.0095331,0
2961.2,54.233,19.8,0,-0.039558,0,3140,50.759,0,0,0,0,0.0095331,0
2962.8,54.233,19.797,0,-0.040109,0,3140,50.759,0,0,0,0,0.0096183,0
2962.8,54.233,19.797,0,-0.040109,0,3140,50.759,0,0,0,0,0.0096183,0
2963.2,54.233,19.796,0,-0.04024,0,3140,50.759,0,0,0,0,0.0096398,0
2963.2,54.233,19.796,0,-0.04024,0,3140,50.759,0,0,0,0,0.0096398,0
2965.2,54.233,19.792,0,-0.040844,0,3140,50.759,0,0,0,0,0.0097489,0
2966,54.233,19.79,0,-0.041067,0,3140,50.759,0,0,0,0,0.0097932,0
2966,54.233,19.79,0,-0.041067,0,3140,50.759,0,0,0,0,0.0097932,0
2966,54.233,19.79,0,-0.041067,0,3140,50.759,0,0,0,0,0.0097932,0
2966,54.233,19.79,0,-0.041067,0,3140,50.759,0,0,0,0,0.0097932,0
2966,54.233,19.79,0,-0.041067,0,3140,50.759,0,0,0,0,0.0097932,0
2966,54.233,19.79,0,-0.041067,0,3140,50.759,0,0,0,0,0.0097932,0
2966,54.233,19.79,0,-0.041067,0,3140,50.759,0,0,0,0,0.0097932,0
2966,54.233,19.79,0,-0.041067,0,3140,50.759,0,0,0,0,0.0097932,0
2966,54.233,19.79,0,-0.041067,0,3140,50.759,0,0,0,0,0.0097932,0
2966,54.233,19.79,0,-0.041067,0,3140,50.759,0,0,0,0,0.0097932,0
2966,54.233,19.79,0,-0.041067,0,3140,50.759,0,0,0,0,0.0097932,0
2966,54.233,19.79,0,-0.041067,0,3140,50.759,0,0,0,0,0.0097932,0
2966,54.233,19.79,0,-0.041067,0,3140,50.759,0,0,0,0,0.0097932,0
2966,54.233,19.79,0,-0.041067,0,3140,50.759,0,0,0,0,0.0097932,0
2966,54.233,19.79,0,-0.041067,0,3140,50.759,0,0,0,0,0.0097932,0
2966,54.233,19.79,0,-0.041067,0,3140,50.759,0,0,0,0,0.0097932,0
2966,54.233,19.79,0,-0.041067,0,3140,50.759,0,0,0,0,0.0097932,0
2966.7,54.233,19.788,0,-0.04128,0,3140,50.759,0,0,0,0,0.0098379,0
2966.7,54.233,19.788,0,-0.04128,0,3140,50.759,0,0,0,0,0.0098379,0
2966.7,54.233,19.788,0,-0.04128,0,3140,50.759,0,0,0,0,0.0098379,0
2967.1,54.233,19.788,0,-0.041383,0,3140,50.759,0,0,0,0,0.0098605,0
2967.1,54.233,19.788,0,-0.041383,0,3140,50.759,0,0,0,0,0.0098605,0
2969.9,54.233,19.782,0,-0.04204,0,3140,50.759,0,0,0,0,0.010021,0
2970.3,54.233,19.781,0,-0.042128,0,3140,50.759,0,0,0,0,0.010044,0
2970.7,54.233,19.78,0,-0.042213,0,3140,50.759,0,0,0,0,0.010068,0
2970.7,54.233,19.78,0,-0.042213,0,3140,50.759,0,0,0,0,0.010068,0
2970.7,54.233,19.78,0,-0.042213,0,3140,50.759,0,0,0,0,0.010068,0
2970.7,54.233,19.78,0,-0.042213,0,3140,50.759,0,0,0,0,0.010068,0
2970.7,54.233,19.78,0,-0.042213,0,3140,50.759,0,0,0,0,0.010068,0
2970.7,54.233,19.78,0,-0.042213,0,3140,50.759,0,0,0,0,0.010068,0
2970.7,54.233,19.78,0,-0.042213,0,3140,50.759,0,0,0,0,0.010068,0
2970.7,54.233,19.78,0,-0.042213,0,3140,50.759,0,0,0,0,0.010068,0
2970.7,54.233,19.78,0,-0.042213,0,3140,50.759,0,0,0,0,0.010068,0
2970.7,54.233,19.78,0,-0.042213,0,3140,50.759,0,0,0,0,0.010068,0
2970.7,54.233,19.78,0,-0.042213,0,3140,50.759,0,0,0,0,0.010068,0
2970.7,54.233,19.78,0,-0.042213,0,3140,50.759,0,0,0,0,0.010068,0
2970.7,54.233,19.78,0,-0.042213,0,3140,50.759,0,0,0,0,0.010068,0
2970.7,54.233,19.78,0,-0.042213,0,3140,50.759,0,0,0,0,0.010068,0
2970.7,54.233,19.78,0,-0.042213,0,3140,50.759,0,0,0,0,0.010068,0
2970.7,54.233,19.78,0,-0.042213,0,3140,50.759,0,0,0,0,0.010068,0
2970.7,54.233,19.78,0,-0.042213,0,3140,50.759,0,0,0,0,0.010068,0
2970.7,54.233,19.78,0,-0.042213,0,3140,50.759,0,0,0,0,0.010068,0
2970.7,54.233,19.78,0,-0.042213,0,3140,50.759,0,0,0,0,0.010068,0
2971.5,54.233,19.778,0,-0.042378,0,3140,50.759,0,0,0,0,0.010115,0
2971.5,54.233,19.778,0,-0.042378,0,3140,50.759,0,0,0,0,0.010115,0
2971.5,54.233,19.778,0,-0.042378,0,3140,50.759,0,0,0,0,0.010115,0
2973.1,54.233,19.775,0,-0.042684,0,3140,50.759,0,0,0,0,0.010211,0
2973.1,54.233,19.775,0,-0.042684,0,3140,50.759,0,0,0,0,0.010211,0
2973.1,54.233,19.775,0,-0.042684,0,3140,50.759,0,0,0,0,0.010211,0
2975.1,54.233,19.771,0,-0.043036,0,3140,50.759,0,0,0,0,0.010333,0
2975.5,54.233,19.77,0,-0.043103,0,3140,50.759,0,0,0,0,0.010358,0
2975.5,54.233,19.77,0,-0.043103,0,3140,50.759,0,0,0,0,0.010358,0
2975.5,54.233,19.77,0,-0.043103,0,3140,50.759,0,0,0,0,0.010358,0
2975.5,54.233,19.77,0,-0.043103,0,3140,50.759,0,0,0,0,0.010358,0
2975.8,54.233,19.769,0,-0.043167,0,3140,50.759,0,0,0,0,0.010383,0
2975.8,54.233,19.769,0,-0.043167,0,3140,50.759,0,0,0,0,0.010383,0
2975.8,54.233,19.769,0,-0.043167,0,3140,50.759,0,0,0,0,0.010383,0
2975.8,54.233,19.769,0,-0.043167,0,3140,50.759,0,0,0,0,0.010383,0
2975.8,54.233,19.769,0,-0.043167,0,3140,50.759,0,0,0,0,0.010383,0
2975.8,54.233,19.769,0,-0.043167,0,3140,50.759,0,0,0,0,0.010383,0
2975.8,54.233,19.769,0,-0.043167,0,3140,50.759,0,0,0,0,0.010383,0
2975.8,54.233,19.769,0,-0.043167,0,3140,50.759,0,0,0,0,0.010383,0
2975.8,54.233,19.769,0,-0.043167,0,3140,50.759,0,0,0,0,0.010383,0
2975.8,54.233,19.769,0,-0.043167,0,3140,50.759,0,0,0,0,0.010383,0
2976.6,54.233,19.767,0,-0.043293,0,3140,50.759,0,0,0,0,0.010433,0
2977,54.233,19.766,0,-0.043354,0,3140,50.759,0,0,0,0,0.010458,0
2977.4,54.233,19.765,0,-0.043413,0,3140,50.759,0,0,0,0,0.010484,0
2977.4,54.233,19.765,0,-0.043413,0,3140,50.759,0,0,0,0,0.010484,0
2978.6,54.233,19.763,0,-0.043585,0,3140,50.759,0,0,0,0,0.010561,0
2979.4,54.233,19.761,0,-0.043696,0,3140,50.759,0,0,0,0,0.010613,0
2979.4,54.233,19.761,0,-0.043696,0,3140,50.759,0,0,0,0,0.010613,0
2979.4,54.233,19.761,0,-0.043696,0,3140,50.759,0,0,0,0,0.010613,0
2979.4,54.233,19.761,0,-0.043696,0,3140,50.759,0,0,0,0,0.010613,0
2979.4,54.233,19.761,0,-0.043696,0,3140,50.759,0,0,0,0,0.010613,0
2979.4,54.233,19.761,0,-0.043696,0,3140,50.759,0,0,0,0,0.010613,0
2979.4,54.233,19.761,0,-0.043696,0,3140,50.759,0,0,0,0,0.010613,0
2979.4,54.233,19.761,0,-0.043696,0,3140,50.759,0,0,0,0,0.010613,0
2979.8,54.233,19.76,0,-0.04375,0,3140,50.759,0,0,0,0,0.010639,0
2979.8,54.233,19.76,0,-0.04375,0,3140,50.759,0,0,0,0,0.010639,0
2979.8,54.233,19.76,0,-0.04375,0,3140,50.759,0,0,0,0,0.010639,0
2979.8,54.233,19.76,0,-0.04375,0,3140,50.759,0,0,0,0,0.010639,0
2980.2,54.233,19.759,0,-0.043803,0,3140,50.759,0,0,0,0,0.010665,0
2980.2,54.233,19.759,0,-0.043803,0,3140,50.759,0,0,0,0,0.010665,0
2980.2,54.233,19.759,0,-0.043803,0,3140,50.759,0,0,0,0,0.010665,0
2980.2,54.233,19.759,0,-0.043803,0,3140,50.759,0,0,0,0,0.010665,0
2980.2,54.233,19.759,0,-0.043803,0,3140,50.759,0,0,0,0,0.010665,0
2980.2,54.233,19.759,0,-0.043803,0,3140,50.759,0,0,0,0,0.010665,0
2980.2,54.233,19.759,0,-0.043803,0,3140,50.759,0,0,0,0,0.010665,0
2980.6,54.233,19.758,0,-0.043856,0,3140,50.759,0,0,0,0,0.010692,0
2980.6,54.233,19.758,0,-0.043856,0,3140,50.759,0,0,0,0,0.010692,0
2982.2,54.233,19.755,0,-0.044053,0,3140,50.759,0,0,0,0,0.010799,0
2982.2,54.233,19.755,0,-0.044053,0,3140,50.759,0,0,0,0,0.010799,0
2982.2,54.233,19.755,0,-0.044053,0,3140,50.759,0,0,0,0,0.010799,0
2982.2,54.233,19.755,0,-0.044053,0,3140,50.759,0,0,0,0,0.010799,0
2983.8,54.233,19.751,0,-0.044238,0,3140,50.759,0,0,0,0,0.010908,0
2983.8,54.233,19.751,0,-0.044238,0,3140,50.759,0,0,0,0,0.010908,0
2983.8,54.233,19.751,0,-0.044238,0,3140,50.759,0,0,0,0,0.010908,0
2983.8,54.233,19.751,0,-0.044238,0,3140,50.759,0,0,0,0,0.010908,0
2983.8,54.233,19.751,0,-0.044238,0,3140,50.759,0,0,0,0,0.010908,0
2983.8,54.233,19.751,0,-0.044238,0,3140,50.759,0,0,0,0,0.010908,0
2983.8,54.233,19.751,0,-0.044238,0,3140,50.759,0,0,0,0,0.010908,0
2983.8,54.233,19.751,0,-0.044238,0,3140,50.759,0,0,0,0,0.010908,0
2983.8,54.233,19.751,0,-0.044238,0,3140,50.759,0,0,0,0,0.010908,0
2983.8,54.233,19.751,0,-0.044238,0,3140,50.759,0,0,0,0,0.010908,0
2985.3,54.233,19.748,0,-0.044411,0,3140,50.759,0,0,0,0,0.011019,0
2985.3,54.233,19.748,0,-0.044411,0,3140,50.759,0,0,0,0,0.011019,0
2985.3,54.233,19.748,0,-0.044411,0,3140,50.759,0,0,0,0,0.011019,0
2985.7,54.233,19.747,0,-0.044452,0,3140,50.759,0,0,0,0,0.011047,0
2985.7,54.233,19.747,0,-0.044452,0,3140,50.759,0,0,0,0,0.011047,0
2985.7,54.233,19.747,0,-0.044452,0,3140,50.759,0,0,0,0,0.011047,0
2985.7,54.233,19.747,0,-0.044452,0,3140,50.759,0,0,0,0,0.011047,0
2985.7,54.233,19.747,0,-0.044452,0,3140,50.759,0,0,0,0,0.011047,0
2985.7,54.233,19.747,0,-0.044452,0,3140,50.759,0,0,0,0,0.011047,0
2985.7,54.233,19.747,0,-0.044452,0,3140,50.759,0,0,0,0,0.011047,0
2985.7,54.233,19.747,0,-0.044452,0,3140,50.759,0,0,0,0,0.011047,0
2985.7,54.233,19.747,0,-0.044452,0,3140,50.759,0,0,0,0,0.011047,0
2986.9,54.233,19.744,0,-0.044576,0,3140,50.759,0,0,0,0,0.011133,0
2987.7,54.233,19.743,0,-0.044654,0,3140,50.759,0,0,0,0,0.01119,0
2987.7,54.233,19.743,0,-0.044654,0,3140,50.759,0,0,0,0,0.01119,0
2987.7,54.233,19.743,0,-0.044654,0,3140,50.759,0,0,0,0,0.01119,0
2987.7,54.233,19.743,0,-0.044654,0,3140,50.759,0,0,0,0,0.01119,0
2988.9,54.233,19.74,0,-0.044766,0,3140,50.759,0,0,0,0,0.011278,0
2988.9,54.233,19.74,0,-0.044766,0,3140,50.759,0,0,0,0,0.011278,0
2988.9,54.233,19.74,0,-0.044766,0,3140,50.759,0,0,0,0,0.011278,0
2988.9,54.233,19.74,0,-0.044766,0,3140,50.759,0,0,0,0,0.011278,0
2988.9,54.233,19.74,0,-0.044766,0,3140,50.759,0,0,0,0,0.011278,0
2990.1,54.233,19.737,0,-0.044873,0,3140,50.759,0,0,0,0,0.011367,0
2990.1,54.233,19.737,0,-0.044873,0,3140,50.759,0,0,0,0,0.011367,0
2990.1,54.233,19.737,0,-0.044873,0,3140,50.759,0,0,0,0,0.011367,0
2990.9,54.233,19.735,0,-0.044943,0,3140,50.759,0,0,0,0,0.011427,0
2990.9,54.233,19.735,0,-0.044943,0,3140,50.759,0,0,0,0,0.011427,0
2990.9,54.233,19.735,0,-0.044943,0,3140,50.759,0,0,0,0,0.011427,0
2990.9,54.233,19.735,0,-0.044943,0,3140,50.759,0,0,0,0,0.011427,0
2990.9,54.233,19.735,0,-0.044943,0,3140,50.759,0,0,0,0,0.011427,0
2990.9,54.233,19.735,0,-0.044943,0,3140,50.759,0,0,0,0,0.011427,0
2990.9,54.233,19.735,0,-0.044943,0,3140,50.759,0,0,0,0,0.011427,0
2990.9,54.233,19.735,0,-0.044943,0,3140,50.759,0,0,0,0,0.011427,0
2990.9,54.233,19.735,0,-0.044943,0,3140,50.759,0,0,0,0,0.011427,0
2990.9,54.233,19.735,0,-0.044943,0,3140,50.759,0,0,0,0,0.011427,0
2990.9,54.233,19.735,0,-0.044943,0,3140,50.759,0,0,0,0,0.011427,0
2990.9,54.233,19.735,0,-0.044943,0,3140,50.759,0,0,0,0,0.011427,0
2993.2,54.233,19.73,0,-0.045141,0,3140,50.759,0,0,0,0,0.011612,0
2993.2,54.233,19.73,0,-0.045141,0,3140,50.759,0,0,0,0,0.011612,0
2993.2,54.233,19.73,0,-0.045141,0,3140,50.759,0,0,0,0,0.011612,0
2993.2,54.233,19.73,0,-0.045141,0,3140,50.759,0,0,0,0,0.011612,0
2993.2,54.233,19.73,0,-0.045141,0,3140,50.759,0,0,0,0,0.011612,0
2993.2,54.233,19.73,0,-0.045141,0,3140,50.759,0,0,0,0,0.011612,0
2993.2,54.233,19.73,0,-0.045141,0,3140,50.759,0,0,0,0,0.011612,0
2993.2,54.233,19.73,0,-0.045141,0,3140,50.759,0,0,0,0,0.011612,0
2993.2,54.233,19.73,0,-0.045141,0,3140,50.759,0,0,0,0,0.011612,0
2993.2,54.233,19.73,0,-0.045141,0,3140,50.759,0,0,0,0,0.011612,0
2994,54.233,19.728,0,-0.045202,0,3140,50.759,0,0,0,0,0.011674,0
2994,54.233,19.728,0,-0.045202,0,3140,50.759,0,0,0,0,0.011674,0
2994,54.233,19.728,0,-0.045202,0,3140,50.759,0,0,0,0,0.011674,0
2994,54.233,19.728,0,-0.045202,0,3140,50.759,0,0,0,0,0.011674,0
2994,54.233,19.728,0,-0.045202,0,3140,50.759,0,0,0,0,0.011674,0
2994,54.233,19.728,0,-0.045202,0,3140,50.759,0,0,0,0,0.011674,0
2994,54.233,19.728,0,-0.045202,0,3140,50.759,0,0,0,0,0.011674,0
2994,54.233,19.728,0,-0.045202,0,3140,50.759,0,0,0,0,0.011674,0
2994,54.233,19.728,0,-0.045202,0,3140,50.759,0,0,0,0,0.011674,0
2994,54.233,19.728,0,-0.045202,0,3140,50.759,0,0,0,0,0.011674,0
2994,54.233,19.728,0,-0.045202,0,3140,50.759,0,0,0,0,0.011674,0
2994.8,54.233,19.726,0,-0.045263,0,3140,50.759,0,0,0,0,0.011738,0
2994.8,54.233,19.726,0,-0.045263,0,3140,50.759,0,0,0,0,0.011738,0
2996.4,54.233,19.723,0,-0.04538,0,3140,50.759,0,0,0,0,0.011867,0
2996.4,54.233,19.723,0,-0.04538,0,3140,50.759,0,0,0,0,0.011867,0
2996.4,54.233,19.723,0,-0.04538,0,3140,50.759,0,0,0,0,0.011867,0
2996.4,54.233,19.723,0,-0.04538,0,3140,50.759,0,0,0,0,0.011867,0
2996.8,54.233,19.722,0,-0.045409,0,3140,50.759,0,0,0,0,0.011899,0
2998.4,54.233,19.718,0,-0.045515,0,3140,50.759,0,0,0,0,0.012032,0
2998.4,54.233,19.718,0,-0.045515,0,3140,50.759,0,0,0,0,0.012032,0
2998.4,54.233,19.718,0,-0.045515,0,3140,50.759,0,0,0,0,0.012032,0
2999.5,54.233,19.715,0,-0.045594,0,3140,50.759,0,0,0,0,0.012133,0
2999.5,54.233,19.715,0,-0.045594,0,3140,50.759,0,0,0,0,0.012133,0
2999.5,54.233,19.715,0,-0.045594,0,3140,50.759,0,0,0,0,0.012133,0
2999.5,54.233,19.715,0,-0.045594,0,3140,50.759,0,0,0,0,0.012133,0
2999.5,54.233,19.715,0,-0.045594,0,3140,50.759,0,0,0,0,0.012133,0
2999.5,54.233,19.715,0,-0.045594,0,3140,50.759,0,0,0,0,0.012133,0
2999.5,54.233,19.715,0,-0.045594,0,3140,50.759,0,0,0,0,0.012133,0
2999.5,54.233,19.715,0,-0.045594,0,3140,50.759,0,0,0,0,0.012133,0
2999.5,54.233,19.715,0,-0.045594,0,3140,50.759,0,0,0,0,0.012133,0
2999.5,54.233,19.715,0,-0.045594,0,3140,50.759,0,0,0,0,0.012133,0
2999.5,54.233,19.715,0,-0.045594,0,3140,50.759,0,0,0,0,0.012133,0
2999.5,54.233,19.715,0,-0.045594,0,3140,50.759,0,0,0,0,0.012133,0
2999.5,54.233,19.715,0,-0.045594,0,3140,50.759,0,0,0,0,0.012133,0
3000.7,54.233,19.713,0,-0.045668,0,3140,50.759,0,0,0,0,0.012236,0
3000.7,54.233,19.713,0,-0.045668,0,3140,50.759,0,0,0,0,0.012236,0
3000.7,54.233,19.713,0,-0.045668,0,3140,50.759,0,0,0,0,0.012236,0
3000.7,54.233,19.713,0,-0.045668,0,3140,50.759,0,0,0,0,0.012236,0
3000.7,54.233,19.713,0,-0.045668,0,3140,50.759,0,0,0,0,0.012236,0
3000.7,54.233,19.713,0,-0.045668,0,3140,50.759,0,0,0,0,0.012236,0
3000.7,54.233,19.713,0,-0.045668,0,3140,50.759,0,0,0,0,0.012236,0
3001.1,54.233,19.712,0,-0.045694,0,3140,50.759,0,0,0,0,0.012271,0
3001.1,54.233,19.712,0,-0.045694,0,3140,50.759,0,0,0,0,0.012271,0
3001.1,54.233,19.712,0,-0.045694,0,3140,50.759,0,0,0,0,0.012271,0
3002.7,54.233,19.708,0,-0.045789,0,3140,50.759,0,0,0,0,0.012411,0
3002.7,54.233,19.708,0,-0.045789,0,3140,50.759,0,0,0,0,0.012411,0
3004.3,54.233,19.704,0,-0.04588,0,3140,50.759,0,0,0,0,0.012555,0
3004.3,54.233,19.704,0,-0.04588,0,3140,50.759,0,0,0,0,0.012555,0
3004.3,54.233,19.704,0,-0.04588,0,3140,50.759,0,0,0,0,0.012555,0
3005.1,54.233,19.703,0,-0.045922,0,3140,50.759,0,0,0,0,0.012629,0
3005.1,54.233,19.703,0,-0.045922,0,3140,50.759,0,0,0,0,0.012629,0
3005.1,54.233,19.703,0,-0.045922,0,3140,50.759,0,0,0,0,0.012629,0
3005.1,54.233,19.703,0,-0.045922,0,3140,50.759,0,0,0,0,0.012629,0
3005.1,54.233,19.703,0,-0.045922,0,3140,50.759,0,0,0,0,0.012629,0
3005.1,54.233,19.703,0,-0.045922,0,3140,50.759,0,0,0,0,0.012629,0
3005.1,54.233,19.703,0,-0.045922,0,3140,50.759,0,0,0,0,0.012629,0
3005.1,54.233,19.703,0,-0.045922,0,3140,50.759,0,0,0,0,0.012629,0
3005.1,54.233,19.703,0,-0.045922,0,3140,50.759,0,0,0,0,0.012629,0
3005.1,54.233,19.703,0,-0.045922,0,3140,50.759,0,0,0,0,0.012629,0
3005.1,54.233,19.703,0,-0.045922,0,3140,50.759,0,0,0,0,0.012629,0
3005.8,54.233,19.701,0,-0.045966,0,3140,50.759,0,0,0,0,0.012703,0
3005.8,54.233,19.701,0,-0.045966,0,3140,50.759,0,0,0,0,0.012703,0
3005.8,54.233,19.701,0,-0.045966,0,3140,50.759,0,0,0,0,0.012703,0
3005.8,54.233,19.701,0,-0.045966,0,3140,50.759,0,0,0,0,0.012703,0
3005.8,54.233,19.701,0,-0.045966,0,3140,50.759,0,0,0,0,0.012703,0
3005.8,54.233,19.701,0,-0.045966,0,3140,50.759,0,0,0,0,0.012703,0
3005.8,54.233,19.701,0,-0.045966,0,3140,50.759,0,0,0,0,0.012703,0
3007,54.233,19.698,0,-0.046026,0,3140,50.759,0,0,0,0,0.012816,0
3007,54.233,19.698,0,-0.046026,0,3140,50.759,0,0,0,0,0.012816,0
3007,54.233,19.698,0,-0.046026,0,3140,50.759,0,0,0,0,0.012816,0
3007.4,54.233,19.697,0,-0.046046,0,3140,50.759,0,0,0,0,0.012854,0
3008.2,54.233,19.695,0,-0.046083,0,3140,50.759,0,0,0,0,0.01293,0
3009.4,54.233,19.692,0,-0.046141,0,3140,50.759,0,0,0,0,0.013047,0
3009.8,54.233,19.692,0,-0.046158,0,3140,50.759,0,0,0,0,0.013087,0
3009.8,54.233,19.692,0,-0.046158,0,3140,50.759,0,0,0,0,0.013087,0
3009.8,54.233,19.692,0,-0.046158,0,3140,50.759,0,0,0,0,0.013087,0
3009.8,54.233,19.692,0,-0.046158,0,3140,50.759,0,0,0,0,0.013087,0
3009.8,54.233,19.692,0,-0.046158,0,3140,50.759,0,0,0,0,0.013087,0
3009.8,54.233,19.692,0,-0.046158,0,3140,50.759,0,0,0,0,0.013087,0
3009.8,54.233,19.692,0,-0.046158,0,3140,50.759,0,0,0,0,0.013087,0
3009.8,54.233,19.692,0,-0.046158,0,3140,50.759,0,0,0,0,0.013087,0
3009.8,54.233,19.692,0,-0.046158,0,3140,50.759,0,0,0,0,0.013087,0
3009.8,54.233,19.692,0,-0.046158,0,3140,50.759,0,0,0,0,0.013087,0
3009.8,54.233,19.692,0,-0.046158,0,3140,50.759,0,0,0,0,0.013087,0
3009.8,54.233,19.692,0,-0.046158,0,3140,50.759,0,0,0,0,0.013087,0
3009.8,54.233,19.692,0,-0.046158,0,3140,50.759,0,0,0,0,0.013087,0
3011,54.233,19.689,0,-0.046212,0,3140,50.759,0,0,0,0,0.013206,0
3011,54.233,19.689,0,-0.046212,0,3140,50.759,0,0,0,0,0.013206,0
3011,54.233,19.689,0,-0.046212,0,3140,50.759,0,0,0,0,0.013206,0
3011,54.233,19.689,0,-0.046212,0,3140,50.759,0,0,0,0,0.013206,0
3011,54.233,19.689,0,-0.046212,0,3140,50.759,0,0,0,0,0.013206,0
3011,54.233,19.689,0,-0.046212,0,3140,50.759,0,0,0,0,0.013206,0
3011,54.233,19.689,0,-0.046212,0,3140,50.759,0,0,0,0,0.013206,0
3011.4,54.233,19.688,0,-0.046231,0,3140,50.759,0,0,0,0,0.013247,0
3011.4,54.233,19.688,0,-0.046231,0,3140,50.759,0,0,0,0,0.013247,0
3011.4,54.233,19.688,0,-0.046231,0,3140,50.759,0,0,0,0,0.013247,0
3012.9,54.233,19.684,0,-0.0463,0,3140,50.759,0,0,0,0,0.013411,0
3013.7,54.233,19.682,0,-0.046334,0,3140,50.759,0,0,0,0,0.013494,0
3014.9,54.233,19.68,0,-0.04638,0,3140,50.759,0,0,0,0,0.013622,0
3014.9,54.233,19.68,0,-0.04638,0,3140,50.759,0,0,0,0,0.013622,0
3014.9,54.233,19.68,0,-0.04638,0,3140,50.759,0,0,0,0,0.013622,0
3014.9,54.233,19.68,0,-0.04638,0,3140,50.759,0,0,0,0,0.013622,0
3014.9,54.233,19.68,0,-0.04638,0,3140,50.759,0,0,0,0,0.013622,0
3014.9,54.233,19.68,0,-0.04638,0,3140,50.759,0,0,0,0,0.013622,0
3014.9,54.233,19.68,0,-0.04638,0,3140,50.759,0,0,0,0,0.013622,0
3014.9,54.233,19.68,0,-0.04638,0,3140,50.759,0,0,0,0,0.013622,0
3014.9,54.233,19.68,0,-0.04638,0,3140,50.759,0,0,0,0,0.013622,0
3014.9,54.233,19.68,0,-0.04638,0,3140,50.759,0,0,0,0,0.013622,0
3015.7,54.233,19.678,0,-0.046413,0,3140,50.759,0,0,0,0,0.013708,0
3015.7,54.233,19.678,0,-0.046413,0,3140,50.759,0,0,0,0,0.013708,0
3015.7,54.233,19.678,0,-0.046413,0,3140,50.759,0,0,0,0,0.013708,0
3015.7,54.233,19.678,0,-0.046413,0,3140,50.759,0,0,0,0,0.013708,0
3015.7,54.233,19.678,0,-0.046413,0,3140,50.759,0,0,0,0,0.013708,0
3015.7,54.233,19.678,0,-0.046413,0,3140,50.759,0,0,0,0,0.013708,0
3015.7,54.233,19.678,0,-0.046413,0,3140,50.759,0,0,0,0,0.013708,0
3015.7,54.233,19.678,0,-0.046413,0,3140,50.759,0,0,0,0,0.013708,0
3015.7,54.233,19.678,0,-0.046413,0,3140,50.759,0,0,0,0,0.013708,0
3015.7,54.233,19.678,0,-0.046413,0,3140,50.759,0,0,0,0,0.013708,0
3015.7,54.233,19.678,0,-0.046413,0,3140,50.759,0,0,0,0,0.013708,0
3015.7,54.233,19.678,0,-0.046413,0,3140,50.759,0,0,0,0,0.013708,0
3015.7,54.233,19.678,0,-0.046413,0,3140,50.759,0,0,0,0,0.013708,0
3017.7,54.233,19.673,0,-0.046486,0,3140,50.759,0.04,0,4,0,0.013956,0
3018.1,54.233,19.672,0,-0.046501,0,3140,50.759,0.04,0,4,0,0.014001,0
3018.1,54.233,19.672,0,-0.046501,0,3140.1,50.759,0.68,-0.00059716,4,-0.0090444,0.014449,0
3018.1,54.233,19.672,0,-0.046501,0,3140.1,50.759,0.68,-0.00059716,4,-0.0090444,0.014449,0
3018.1,54.233,19.672,0,-0.046501,0,3140.1,50.759,0.76,-0.00081532,4,-0.011139,0.014505,0
3018.1,54.233,19.672,0,-0.046501,0,3140.1,50.759,0.76,-0.00081532,4,-0.011139,0.014505,0
3018.1,54.233,19.672,0,-0.046501,0,3140.1,50.759,0.76,-0.00081532,4,-0.011139,0.014505,0
3018.1,54.233,19.672,0,-0.046501,0,3140.1,50.759,0.76,-0.00081532,4,-0.011139,0.014505,0
3018.1,54.233,19.672,0,-0.046501,0,3140.1,50.759,0.76,-0.00081532,4,-0.011139,0.014505,0
3018.1,54.233,19.672,0,-0.046501,0,3140.1,50.759,0.76,-0.00081532,4,-0.011139,0.014505,0
3020.4,54.233,19.667,0,-0.046582,0,3140.1,50.759,0.76,-0.00081532,4,-0.011139,0.014791,0
3020.4,54.233,19.667,0,-0.046582,0,3140.1,50.759,0.76,-0.00081532,4,-0.011139,0.014791,0
3020.4,54.233,19.667,0,-0.046582,0,3140.1,50.759,0.76,-0.00081532,4,-0.011139,0.014791,0
3020.4,54.233,19.667,0,-0.046582,0,3140.1,50.759,0.76,-0.00081532,4,-0.011139,0.014791,0
3020.4,54.233,19.667,0,-0.046582,0,3140.1,50.759,0.76,-0.00081532,4,-0.011139,0.014791,0
3020.4,54.233,19.667,0,-0.046582,0,3140.1,50.759,0.76,-0.00081532,4,-0.011139,0.014791,0
3020.4,54.233,19.667,0,-0.046582,0,3140.1,50.759,0.76,-0.00081532,4,-0.011139,0.014791,0
3020.4,54.233,19.667,0,-0.046582,0,3140.1,50.759,0.76,-0.00081532,4,-0.011139,0.014791,0
3020.4,54.233,19.667,0,-0.046582,0,3140.1,50.759,0.76,-0.00081532,4,-0.011139,0.014791,0
3020.4,54.233,19.667,0,-0.046582,0,3140.1,50.759,0.76,-0.00081532,4,-0.011139,0.014791,0
3020.4,54.233,19.667,0,-0.046582,0,3140.1,50.759,0.92,-0.0013886,4,-0.015803,0.014906,0
3022,54.233,19.663,0,-0.046633,0,3140.1,50.759,1,-0.0017492,4,-0.018333,0.015162,0
3022.4,54.233,19.662,0,-0.046645,0,3140.1,50.759,1,-0.0017492,4,-0.018333,0.015213,0
3023.9,54.233,19.658,0,-0.074768,0,3140.3,50.758,1.48,-0.0050481,3.9999,-0.034894,0.015773,0
3023.9,54.233,19.658,0,-0.074768,0,3140.4,50.758,1.64,-0.0065886,3.9999,-0.040384,0.015891,0
3023.9,54.233,19.658,0,-0.074768,0,3140.4,50.758,1.64,-0.0065886,3.9999,-0.040384,0.015891,0
3023.9,54.233,19.658,0,-0.074768,0,3140.4,50.758,1.64,-0.0065886,3.9999,-0.040384,0.015891,0
3023.9,54.233,19.658,0,-0.074768,0,3140.4,50.758,1.64,-0.0065886,3.9999,-0.040384,0.015891,0
3023.9,54.233,19.658,0,-0.074768,0,3140.4,50.758,1.64,-0.0065886,3.9999,-0.040384,0.015891,0
3023.9,54.233,19.658,0,-0.074768,0,3140.4,50.758,1.64,-0.0065886,3.9999,-0.040384,0.015891,0
3023.9,54.233,19.658,0,-0.074768,0,3140.4,50.758,1.64,-0.0065886,3.9999,-0.040384,0.015891,0
3023.9,54.233,19.658,0,-0.074768,0,3140.4,50.758,1.64,-0.0065886,3.9999,-0.040384,0.015891,0
3023.9,54.233,19.658,0,-0.074768,0,3140.4,50.758,1.64,-0.0065886,3.9999,-0.040384,0.015891,0
3024.7,54.233,19.655,0,-0.076798,0,3140.4,50.758,1.64,-0.0065886,3.9999,-0.040384,0.015999,0
3024.7,54.233,19.655,0,-0.076798,0,3140.4,50.758,1.64,-0.0065886,3.9999,-0.040384,0.015999,0
3024.7,54.233,19.655,0,-0.076798,0,3140.4,50.758,1.64,-0.0065886,3.9999,-0.040384,0.015999,0
3024.7,54.233,19.655,0,-0.076798,0,3140.4,50.758,1.64,-0.0065886,3.9999,-0.040384,0.015999,0
3024.7,54.233,19.655,0,-0.076798,0,3140.4,50.758,1.64,-0.0065886,3.9999,-0.040384,0.015999,0
3024.7,54.233,19.655,0,-0.076798,0,3140.4,50.758,1.64,-0.0065886,3.9999,-0.040384,0.015999,0
3024.7,54.233,19.655,0,-0.076798,0,3140.4,50.758,1.64,-0.0065886,3.9999,-0.040384,0.015999,0
3024.7,54.233,19.655,0,-0.076798,0,3140.4,50.758,1.64,-0.0065886,3.9999,-0.040384,0.015999,0
3024.7,54.233,19.655,0,-0.076798,0,3140.4,50.758,1.64,-0.0065886,3.9999,-0.040384,0.015999,0
3024.7,54.233,19.655,0,-0.076798,0,3140.4,50.758,1.64,-0.0065886,3.9999,-0.040384,0.015999,0
3024.7,54.233,19.655,0,-0.076798,0,3140.4,50.758,1.8,-0.0083372,3.9998,-0.045555,0.016117,0
3024.7,54.233,19.655,0,-0.076798,0,3140.4,50.758,1.8,-0.0083372,3.9998,-0.045555,0.016117,0
3024.7,54.233,19.655,0,-0.076798,0,3140.4,50.758,1.8,-0.0083372,3.9998,-0.045555,0.016117,0
3026.7,54.233,19.647,0,-0.077399,0,3140.5,50.757,1.88,-0.0092842,3.9998,-0.047969,0.016456,0
3027.1,54.233,19.646,0,-0.077397,0,3140.5,50.757,1.88,-0.0092842,3.9998,-0.047969,0.016513,0
3027.1,54.233,19.646,0,-0.077397,0,3140.8,50.755,2.5199,-0.018173,3.9997,-0.060875,0.016997,0
3027.1,54.233,19.646,0,-0.077397,0,3140.8,50.755,2.5199,-0.018173,3.9997,-0.060875,0.016997,0
3027.1,54.233,19.646,0,-0.077397,0,3140.9,50.755,2.5999,-0.019386,3.9997,-0.061501,0.017057,0
3027.1,54.233,19.646,0,-0.077397,0,3140.9,50.755,2.5999,-0.019386,3.9997,-0.061501,0.017057,0
3027.1,54.233,19.646,0,-0.077397,0,3140.9,50.755,2.5999,-0.019386,3.9997,-0.061501,0.017057,0
3027.1,54.233,19.646,0,-0.077397,0,3140.9,50.755,2.5999,-0.019386,3.9997,-0.061501,0.017057,0
3027.1,54.233,19.646,0,-0.077397,0,3140.9,50.755,2.5999,-0.019386,3.9997,-0.061501,0.017057,0
3027.1,54.233,19.646,0,-0.077397,0,3140.9,50.755,2.5999,-0.019386,3.9997,-0.061501,0.017057,0
3029.5,54.233,19.636,0,-0.076668,0,3140.9,50.755,2.5999,-0.019386,3.9997,-0.061501,0.017418,0
3029.5,54.233,19.636,0,-0.076668,0,3140.9,50.755,2.5999,-0.019386,3.9997,-0.061501,0.017418,0
3029.5,54.233,19.636,0,-0.076668,0,3140.9,50.755,2.5999,-0.019386,3.9997,-0.061501,0.017418,0
3029.5,54.233,19.636,0,-0.076668,0,3140.9,50.755,2.5999,-0.019386,3.9997,-0.061501,0.017418,0
3029.5,54.233,19.636,0,-0.076668,0,3140.9,50.755,2.5999,-0.019386,3.9997,-0.061501,0.017418,0
3029.5,54.233,19.636,0,-0.076668,0,3140.9,50.755,2.5999,-0.019386,3.9997,-0.061501,0.017418,0
3029.5,54.233,19.636,0,-0.076668,0,3140.9,50.755,2.5999,-0.019386,3.9997,-0.061501,0.017418,0
3029.5,54.233,19.636,0,-0.076668,0,3140.9,50.755,2.5999,-0.019386,3.9997,-0.061501,0.017418,0
3029.8,54.233,19.635,0,-0.076433,0,3140.9,50.755,2.5999,-0.019386,3.9997,-0.061501,0.017479,0
3029.8,54.233,19.635,0,-0.076433,0,3140.9,50.755,2.5999,-0.019386,3.9997,-0.061501,0.017479,0
3029.8,54.233,19.635,0,-0.076433,0,3140.9,50.755,2.5999,-0.019386,3.9997,-0.061501,0.017479,0
3029.8,54.233,19.635,0,-0.076433,0,3140.9,50.755,2.5999,-0.019386,3.9997,-0.061501,0.017479,0
3029.8,54.233,19.635,0,-0.076433,0,3140.9,50.755,2.5999,-0.019386,3.9997,-0.061501,0.017479,0
3029.8,54.233,19.635,0,-0.076433,0,3140.9,50.755,2.5999,-0.019386,3.9997,-0.061501,0.017479,0
3030.2,54.233,19.633,0,-0.076168,0,3140.9,50.755,2.5999,-0.019386,3.9997,-0.061501,0.017541,0
3031.4,54.233,19.629,0,-0.075194,0,3141.1,50.753,2.9999,-0.025465,3.9996,-0.060926,0.018042,0
3031.4,54.233,19.629,0,-0.075194,0,3141.4,50.75,3.3199,-0.030052,3.9997,-0.056138,0.01829,0
3031.4,54.233,19.629,0,-0.075194,0,3141.4,50.75,3.3199,-0.030052,3.9997,-0.056138,0.01829,0
3033.8,54.233,19.62,0,-0.072501,0,3141.5,50.75,3.3999,-0.031123,3.9997,-0.054392,0.018753,0
3033.8,54.233,19.62,0,-0.072501,0,3141.5,50.75,3.3999,-0.031123,3.9997,-0.054392,0.018753,0
3033.8,54.233,19.62,0,-0.072501,0,3141.7,50.748,3.6398,-0.034088,3.9997,-0.048002,0.018942,0
3033.8,54.233,19.62,0,-0.072501,0,3141.7,50.748,3.6398,-0.034088,3.9997,-0.048002,0.018942,0
3033.8,54.233,19.62,0,-0.072501,0,3141.7,50.748,3.6398,-0.034088,3.9997,-0.048002,0.018942,0
3033.8,54.233,19.62,0,-0.072501,0,3141.7,50.748,3.6398,-0.034088,3.9997,-0.048002,0.018942,0
3033.8,54.233,19.62,0,-0.072501,0,3141.7,50.748,3.6398,-0.034088,3.9997,-0.048002,0.018942,0
3033.8,54.233,19.62,0,-0.072501,0,3141.7,50.748,3.6398,-0.034088,3.9997,-0.048002,0.018942,0
3033.8,54.233,19.62,0,-0.072501,0,3141.7,50.748,3.6398,-0.034088,3.9997,-0.048002,0.018942,0
3033.8,54.233,19.62,0,-0.072501,0,3141.8,50.747,3.7198,-0.034983,3.9997,-0.045531,0.019005,0
3033.8,54.233,19.62,0,-0.072501,0,3141.8,50.747,3.7198,-0.034983,3.9997,-0.045531,0.019005,0
3033.8,54.233,19.62,0,-0.072501,0,3141.8,50.747,3.7198,-0.034983,3.9997,-0.045531,0.019005,0
3033.8,54.233,19.62,0,-0.072501,0,3141.8,50.747,3.7198,-0.034983,3.9997,-0.045531,0.019005,0
3033.8,54.233,19.62,0,-0.072501,0,3141.8,50.747,3.7198,-0.034983,3.9997,-0.045531,0.019005,0
3033.8,54.233,19.62,0,-0.072501,0,3141.8,50.747,3.7198,-0.034983,3.9997,-0.045531,0.019005,0
3033.8,54.233,19.62,0,-0.072501,0,3141.8,50.747,3.7198,-0.034983,3.9997,-0.045531,0.019005,0
3033.8,54.233,19.62,0,-0.072501,0,3141.8,50.747,3.7198,-0.034983,3.9997,-0.045531,0.019005,0
3033.8,54.233,19.62,0,-0.072501,0,3141.8,50.747,3.7198,-0.034983,3.9997,-0.045531,0.019005,0
3033.8,54.233,19.62,0,-0.072501,0,3141.8,50.746,3.7998,-0.035825,3.9998,-0.042912,0.019068,0
3033.8,54.233,19.62,0,-0.072501,0,3141.8,50.746,3.7998,-0.035825,3.9998,-0.042912,0.019068,0
3036.5,54.233,19.61,0,-0.068213,0,3141.9,50.746,3.8798,-0.036614,3.9998,-0.040159,0.019629,0
3036.5,54.233,19.61,0,-0.068213,0,3141.9,50.746,3.8798,-0.036614,3.9998,-0.040159,0.019629,0
3036.9,54.233,19.609,0,-0.067509,0,3141.9,50.746,3.8798,-0.036614,3.9998,-0.040159,0.019702,0
3036.9,54.233,19.609,0,-0.067509,0,3141.9,50.746,3.8798,-0.036614,3.9998,-0.040159,0.019702,0
3036.9,54.233,19.609,0,-0.067509,0,3142.5,50.74,4.4398,-0.040448,4,-0.018434,0.02015,0
3036.9,54.233,19.609,0,-0.067509,0,3142.6,50.739,4.5198,-0.040743,4,-0.015161,0.020213,0
3036.9,54.233,19.609,0,-0.067509,0,3142.6,50.739,4.5198,-0.040743,4,-0.015161,0.020213,0
3036.9,54.233,19.609,0,-0.067509,0,3142.6,50.739,4.5198,-0.040743,4,-0.015161,0.020213,0
3036.9,54.233,19.609,0,-0.067509,0,3142.7,50.739,4.5998,-0.040972,4.0001,-0.011891,0.020277,0
3036.9,54.233,19.609,0,-0.067509,0,3142.7,50.739,4.5998,-0.040972,4.0001,-0.011891,0.020277,0
3036.9,54.233,19.609,0,-0.067509,0,3142.8,50.738,4.6798,-0.041138,4.0001,-0.0086354,0.02034,0
3036.9,54.233,19.609,0,-0.067509,0,3142.8,50.738,4.6798,-0.041138,4.0001,-0.0086354,0.02034,0
3036.9,54.233,19.609,0,-0.067509,0,3142.8,50.738,4.6798,-0.041138,4.0001,-0.0086354,0.02034,0
3036.9,54.233,19.609,0,-0.067509,0,3142.9,50.737,4.7598,-0.041239,4.0001,-0.0054083,0.020403,0
3036.9,54.233,19.609,0,-0.067509,0,3143,50.736,4.8398,-0.041278,4.0001,-0.0022219,0.020467,0
3036.9,54.233,19.609,0,-0.067509,0,3143,50.736,4.8398,-0.041278,4.0001,-0.0022219,0.020467,0
3036.9,54.233,19.609,0,-0.067509,0,3143,50.735,4.9198,-0.041255,4.0002,0.00091196,0.02053,0
3036.9,54.233,19.609,0,-0.067509,0,3143,50.735,4.9198,-0.041255,4.0002,0.00091196,0.02053,0
3041.2,54.233,19.595,0,-0.058434,0,3143.1,50.734,4.9998,-0.041172,4.0002,0.0039824,0.021463,0
3041.2,54.233,19.595,0,-0.058434,0,3143.1,50.734,4.9998,-0.041172,4.0002,0.0039824,0.021463,0
3041.2,54.233,19.595,0,-0.058434,0,3143.1,50.734,4.9998,-0.041172,4.0002,0.0039824,0.021463,0
3041.2,54.233,19.595,0,-0.058434,0,3143.1,50.734,4.9998,-0.041172,4.0002,0.0039824,0.021463,0
3041.2,54.233,19.595,0,-0.058434,0,3143.1,50.734,4.9998,-0.041172,4.0002,0.0039824,0.021463,0
3041.2,54.233,19.595,0,-0.058434,0,3143.1,50.734,4.9998,-0.041172,4.0002,0.0039824,0.021463,0
3041.2,54.233,19.595,0,-0.058434,0,3143.1,50.734,4.9998,-0.041172,4.0002,0.0039824,0.021463,0
3041.2,54.233,19.595,0,-0.058434,0,3143.1,50.734,4.9998,-0.041172,4.0002,0.0039824,0.021463,0
3041.2,54.233,19.595,0,-0.058434,0,3143.4,50.733,5.1598,-0.04083,4.0002,0.0098925,0.021592,0
3041.2,54.233,19.595,0,-0.058434,0,3143.4,50.733,5.1598,-0.04083,4.0002,0.0098925,0.021592,0
3041.2,54.233,19.595,0,-0.058434,0,3143.5,50.732,5.2398,-0.040575,4.0002,0.012714,0.021656,0
3041.2,54.233,19.595,0,-0.058434,0,3143.5,50.732,5.2398,-0.040575,4.0002,0.012714,0.021656,0
3041.2,54.233,19.595,0,-0.058434,0,3143.5,50.732,5.2398,-0.040575,4.0002,0.012714,0.021656,0
3041.2,54.233,19.595,0,-0.058434,0,3143.5,50.732,5.2398,-0.040575,4.0002,0.012714,0.021656,0
3042.4,54.233,19.591,0,-0.055573,0,3143.5,50.732,5.2398,-0.040575,4.0002,0.012714,0.021908,0
3043.6,54.233,19.588,0,-0.052564,0,3143.7,50.73,5.3999,-0.039906,4.0002,0.018051,0.022296,0
3044,54.233,19.587,0,-0.051532,0,3143.7,50.73,5.3999,-0.039906,4.0002,0.018051,0.022383,0
3044.4,54.233,19.586,0,-0.050483,0,3143.7,50.73,5.3999,-0.039906,4.0002,0.018051,0.022471,0
3044.4,54.233,19.586,0,-0.050483,0,3143.7,50.73,5.3999,-0.039906,4.0002,0.018051,0.022471,0
3045.1,54.233,19.584,0,-0.048343,0,3144.2,50.727,5.7999,-0.037417,4.0003,0.02933,0.022977,0
3045.1,54.233,19.584,0,-0.048343,0,3144.2,50.727,5.7999,-0.037417,4.0003,0.02933,0.022977,0
3045.1,54.233,19.584,0,-0.048343,0,3144.2,50.727,5.7999,-0.037417,4.0003,0.02933,0.022977,0
3045.1,54.233,19.584,0,-0.048343,0,3144.2,50.727,5.7999,-0.037417,4.0003,0.02933,0.022977,0
3045.1,54.233,19.584,0,-0.048343,0,3144.2,50.727,5.7999,-0.037417,4.0003,0.02933,0.022977,0
3045.1,54.233,19.584,0,-0.048343,0,3144.2,50.727,5.7999,-0.037417,4.0003,0.02933,0.022977,0
3045.1,54.233,19.584,0,-0.048343,0,3144.2,50.727,5.7999,-0.037417,4.0003,0.02933,0.022977,0
3045.1,54.233,19.584,0,-0.048343,0,3144.2,50.727,5.7999,-0.037417,4.0003,0.02933,0.022977,0
3045.5,54.233,19.583,0,-0.047252,0,3144.2,50.727,5.7999,-0.037417,4.0003,0.02933,0.023068,0
3045.5,54.233,19.583,0,-0.047252,0,3144.2,50.727,5.7999,-0.037417,4.0003,0.02933,0.023068,0
3045.9,54.233,19.582,0,-0.046147,0,3144.2,50.727,5.7999,-0.037417,4.0003,0.02933,0.023159,0
3045.9,54.233,19.582,0,-0.046147,0,3144.2,50.727,5.7999,-0.037417,4.0003,0.02933,0.023159,0
3045.9,54.233,19.582,0,-0.046147,0,3144.2,50.727,5.7999,-0.037417,4.0003,0.02933,0.023159,0
3045.9,54.233,19.582,0,-0.046147,0,3144.2,50.727,5.7999,-0.037417,4.0003,0.02933,0.023159,0
3045.9,54.233,19.582,0,-0.046147,0,3144.2,50.727,5.7999,-0.037417,4.0003,0.02933,0.023159,0
3045.9,54.233,19.582,0,-0.046147,0,3144.2,50.727,5.7999,-0.037417,4.0003,0.02933,0.023159,0
3045.9,54.233,19.582,0,-0.046147,0,3144.2,50.727,5.7999,-0.037417,4.0003,0.02933,0.023159,0
3047.1,54.233,19.579,0,-0.042757,0,3144.7,50.724,6.1199,-0.034751,4.0003,0.036,0.023701,0
3047.1,54.233,19.579,0,-0.042757,0,3145.1,50.722,6.3599,-0.03247,4.0003,0.039585,0.023895,0
3048.3,54.233,19.577,0,-0.039261,0,3145.2,50.721,6.4399,-0.03167,4.0003,0.040515,0.02425,0
3048.3,54.233,19.577,0,-0.039261,0,3145.6,50.719,6.6799,-0.029186,4.0002,0.042544,0.024443,0
3048.3,54.233,19.577,0,-0.039261,0,3145.6,50.719,6.6799,-0.029186,4.0002,0.042544,0.024443,0
3048.3,54.233,19.577,0,-0.039261,0,3145.6,50.719,6.6799,-0.029186,4.0002,0.042544,0.024443,0
3048.3,54.233,19.577,0,-0.039261,0,3145.7,50.719,6.7599,-0.028339,4.0002,0.042976,0.024507,0
3048.3,54.233,19.577,0,-0.039261,0,3145.7,50.719,6.7599,-0.028339,4.0002,0.042976,0.024507,0
3048.3,54.233,19.577,0,-0.039261,0,3145.7,50.719,6.7599,-0.028339,4.0002,0.042976,0.024507,0
3048.3,54.233,19.577,0,-0.039261,0,3145.7,50.719,6.7599,-0.028339,4.0002,0.042976,0.024507,0
3048.3,54.233,19.577,0,-0.039261,0,3145.7,50.719,6.7599,-0.028339,4.0002,0.042976,0.024507,0
3048.3,54.233,19.577,0,-0.039261,0,3145.7,50.719,6.7599,-0.028339,4.0002,0.042976,0.024507,0
3048.3,54.233,19.577,0,-0.039261,0,3145.7,50.719,6.7599,-0.028339,4.0002,0.042976,0.024507,0
3048.3,54.233,19.577,0,-0.039261,0,3145.7,50.719,6.7599,-0.028339,4.0002,0.042976,0.024507,0
3048.3,54.233,19.577,0,-0.039261,0,3145.7,50.719,6.7599,-0.028339,4.0002,0.042976,0.024507,0
3049.8,54.233,19.574,0,-0.03444,0,3145.7,50.719,6.7599,-0.028339,4.0002,0.042976,0.024907,0
3049.8,54.233,19.574,0,-0.03444,0,3145.7,50.719,6.7599,-0.028339,4.0002,0.042976,0.024907,0
3049.8,54.233,19.574,0,-0.03444,0,3145.7,50.719,6.7599,-0.028339,4.0002,0.042976,0.024907,0
3049.8,54.233,19.574,0,-0.03444,0,3145.7,50.719,6.7599,-0.028339,4.0002,0.042976,0.024907,0
3049.8,54.233,19.574,0,-0.03444,0,3145.7,50.719,6.7599,-0.028339,4.0002,0.042976,0.024907,0
3049.8,54.233,19.574,0,-0.03444,0,3145.7,50.719,6.7599,-0.028339,4.0002,0.042976,0.024907,0
3049.8,54.233,19.574,0,-0.03444,0,3145.7,50.719,6.7599,-0.028339,4.0002,0.042976,0.024907,0
3050.2,54.233,19.573,0,-0.03321,0,3145.7,50.719,6.7599,-0.028339,4.0002,0.042976,0.025009,0
3050.2,54.233,19.573,0,-0.03321,0,3145.7,50.719,6.7599,-0.028339,4.0002,0.042976,0.025009,0
3050.2,54.233,19.573,0,-0.03321,0,3145.7,50.719,6.7599,-0.028339,4.0002,0.042976,0.025009,0
3050.2,54.233,19.573,0,-0.03321,0,3145.7,50.719,6.7599,-0.028339,4.0002,0.042976,0.025009,0
3052.2,54.233,19.57,0,-0.026912,0,3146.1,50.717,7,-0.025769,4.0002,0.043598,0.025725,0
3052.6,54.233,19.57,0,-0.025629,0,3146.1,50.717,7,-0.025769,4.0002,0.043598,0.025833,0
3053.8,54.233,19.568,0,-0.021733,0,3147.2,50.714,7.56,-0.019864,4.0001,0.041694,0.02661,0
3053.8,54.233,19.568,0,-0.021733,0,3147.5,50.713,7.72,-0.018259,4.0001,0.040467,0.026736,0
3053.8,54.233,19.568,0,-0.021733,0,3147.5,50.713,7.72,-0.018259,4.0001,0.040467,0.026736,0
3053.8,54.233,19.568,0,-0.021733,0,3147.5,50.713,7.72,-0.018259,4.0001,0.040467,0.026736,0
3053.8,54.233,19.568,0,-0.021733,0,3147.6,50.713,7.8,-0.017478,4.0001,0.039765,0.026799,0
3053.8,54.233,19.568,0,-0.021733,0,3147.6,50.713,7.8,-0.017478,4.0001,0.039765,0.026799,0
3053.8,54.233,19.568,0,-0.021733,0,3147.6,50.713,7.8,-0.017478,4.0001,0.039765,0.026799,0
3053.8,54.233,19.568,0,-0.021733,0,3147.6,50.713,7.8,-0.017478,4.0001,0.039765,0.026799,0
3053.8,54.233,19.568,0,-0.021733,0,3147.6,50.713,7.8,-0.017478,4.0001,0.039765,0.026799,0
3053.8,54.233,19.568,0,-0.021733,0,3147.6,50.713,7.8,-0.017478,4.0001,0.039765,0.026799,0
3053.8,54.233,19.568,0,-0.021733,0,3147.6,50.713,7.8,-0.017478,4.0001,0.039765,0.026799,0
3053.8,54.233,19.568,0,-0.021733,0,3147.6,50.713,7.8,-0.017478,4.0001,0.039765,0.026799,0
3053.8,54.233,19.568,0,-0.021733,0,3147.6,50.713,7.8,-0.017478,4.0001,0.039765,0.026799,0
3054.9,54.233,19.567,0,-0.021402,0,3147.6,50.713,7.8,-0.017478,4.0001,0.039765,0.027138,0
3054.9,54.233,19.567,0,-0.021402,0,3147.6,50.713,7.8,-0.017478,4.0001,0.039765,0.027138,0
3054.9,54.233,19.567,0,-0.021402,0,3147.6,50.713,7.8,-0.017478,4.0001,0.039765,0.027138,0
3054.9,54.233,19.567,0,-0.021402,0,3147.6,50.713,7.8,-0.017478,4.0001,0.039765,0.027138,0
3054.9,54.233,19.567,0,-0.021402,0,3147.6,50.713,7.8,-0.017478,4.0001,0.039765,0.027138,0
3054.9,54.233,19.567,0,-0.021402,0,3147.6,50.713,7.8,-0.017478,4.0001,0.039765,0.027138,0
3054.9,54.233,19.567,0,-0.021402,0,3147.6,50.713,7.8,-0.017478,4.0001,0.039765,0.027138,0
3055.3,54.233,19.567,0,-0.022172,0,3147.6,50.713,7.8,-0.017478,4.0001,0.039765,0.027252,0
3055.3,54.233,19.567,0,-0.022172,0,3147.6,50.713,7.8,-0.017478,4.0001,0.039765,0.027252,0
3055.3,54.233,19.567,0,-0.022172,0,3147.6,50.713,7.8,-0.017478,4.0001,0.039765,0.027252,0
3056.9,54.233,19.565,0,-0.025061,0,3148.1,50.712,8.04,-0.015226,4.0001,0.037366,0.02791,0
3056.9,54.233,19.565,0,-0.025061,0,3148.1,50.712,8.04,-0.015226,4.0001,0.037366,0.02791,0
3056.9,54.233,19.565,0,-0.025061,0,3148.8,50.711,8.36,-0.012489,4.0001,0.033276,0.028158,0
3058.4,54.233,19.563,0,-0.02761,0,3148.8,50.711,8.36,-0.012489,4.0001,0.033276,0.028645,0
3058.8,54.233,19.562,0,-0.028198,0,3148.8,50.711,8.36,-0.012489,4.0001,0.033276,0.028769,0
3058.8,54.233,19.562,0,-0.028198,0,3149.6,50.71,8.76,-0.0095457,4,0.02788,0.029074,0
3058.8,54.233,19.562,0,-0.028198,0,3149.6,50.71,8.76,-0.0095457,4,0.02788,0.029074,0
3058.8,54.233,19.562,0,-0.028198,0,3149.8,50.71,8.84,-0.0090202,4,0.026824,0.029134,0
3058.8,54.233,19.562,0,-0.028198,0,3149.8,50.71,8.84,-0.0090202,4,0.026824,0.029134,0
3058.8,54.233,19.562,0,-0.028198,0,3149.8,50.71,8.84,-0.0090202,4,0.026824,0.029134,0
3058.8,54.233,19.562,0,-0.028198,0,3149.8,50.71,8.84,-0.0090202,4,0.026824,0.029134,0
3058.8,54.233,19.562,0,-0.028198,0,3149.8,50.71,8.84,-0.0090202,4,0.026824,0.029134,0
3058.8,54.233,19.562,0,-0.028198,0,3149.8,50.71,8.84,-0.0090202,4,0.026824,0.029134,0
3060,54.233,19.56,0,-0.029857,0,3149.8,50.71,8.84,-0.0090202,4,0.026824,0.029514,0
3060,54.233,19.56,0,-0.029857,0,3149.8,50.71,8.84,-0.0090202,4,0.026824,0.029514,0
3060,54.233,19.56,0,-0.029857,0,3149.8,50.71,8.84,-0.0090202,4,0.026824,0.029514,0
3060,54.233,19.56,0,-0.029857,0,3149.8,50.71,8.84,-0.0090202,4,0.026824,0.029514,0
3060,54.233,19.56,0,-0.029857,0,3149.8,50.71,8.84,-0.0090202,4,0.026824,0.029514,0
3060,54.233,19.56,0,-0.029857,0,3149.8,50.71,8.84,-0.0090202,4,0.026824,0.029514,0
3060,54.233,19.56,0,-0.029857,0,3149.8,50.71,8.84,-0.0090202,4,0.026824,0.029514,0
3060,54.233,19.56,0,-0.029857,0,3149.8,50.71,8.84,-0.0090202,4,0.026824,0.029514,0
3060,54.233,19.56,0,-0.029857,0,3149.8,50.71,8.84,-0.0090202,4,0.026824,0.029514,0
3060,54.233,19.56,0,-0.029857,0,3149.8,50.71,8.84,-0.0090202,4,0.026824,0.029514,0
3060,54.233,19.56,0,-0.029857,0,3150.1,50.709,9,-0.0080304,4,0.024755,0.029633,0
3060,54.233,19.56,0,-0.029857,0,3150.1,50.709,9,-0.0080304,4,0.024755,0.029633,0
3060,54.233,19.56,0,-0.029857,0,3150.1,50.709,9,-0.0080304,4,0.024755,0.029633,0
3060,54.233,19.56,0,-0.029857,0,3150.1,50.709,9,-0.0080304,4,0.024755,0.029633,0
3061.6,54.233,19.558,0,-0.031841,0,3150.3,50.709,9.08,-0.0075654,4,0.023747,0.030215,0
3063.1,54.233,19.555,0,-0.033594,0,3150.9,50.709,9.32,-0.0062853,4,0.020841,0.030931,0
3063.1,54.233,19.555,0,-0.033594,0,3151.6,50.708,9.64,-0.0048305,4,0.017283,0.031161,0
3063.1,54.233,19.555,0,-0.033594,0,3152,50.708,9.8,-0.0042026,4,0.015652,0.031274,0
3063.1,54.233,19.555,0,-0.033594,0,3152,50.708,9.8,-0.0042026,4,0.015652,0.031274,0
3063.1,54.233,19.555,0,-0.033594,0,3152,50.708,9.8,-0.0042026,4,0.015652,0.031274,0
3063.1,54.233,19.555,0,-0.033594,0,3152.2,50.708,9.88,-0.0039117,4,0.014874,0.03133,0
3063.1,54.233,19.555,0,-0.033594,0,3152.2,50.708,9.88,-0.0039117,4,0.014874,0.03133,0
3063.1,54.233,19.555,0,-0.033594,0,3152.2,50.708,9.88,-0.0039117,4,0.014874,0.03133,0
3063.1,54.233,19.555,0,-0.033594,0,3152.2,50.708,9.88,-0.0039117,4,0.014874,0.03133,0
3063.1,54.233,19.555,0,-0.033594,0,3152.2,50.708,9.88,-0.0039117,4,0.014874,0.03133,0
3063.1,54.233,19.555,0,-0.033594,0,3152.2,50.708,9.88,-0.0039117,4,0.014874,0.03133,0
3063.1,54.233,19.555,0,-0.033594,0,3152.2,50.708,9.88,-0.0039117,4,0.014874,0.03133,0
3063.1,54.233,19.555,0,-0.033594,0,3152.2,50.708,9.88,-0.0039117,4,0.014874,0.03133,0
3063.1,54.233,19.555,0,-0.033594,0,3152.2,50.708,9.88,-0.0039117,4,0.014874,0.03133,0
3065.1,54.233,19.552,0,-0.035492,0,3152.2,50.708,9.88,-0.0039117,4,0.014874,0.032031,0
3065.1,54.233,19.552,0,-0.035492,0,3152.2,50.708,9.88,-0.0039117,4,0.014874,0.032031,0
3065.1,54.233,19.552,0,-0.035492,0,3152.2,50.708,9.88,-0.0039117,4,0.014874,0.032031,0
3065.1,54.233,19.552,0,-0.035492,0,3152.2,50.708,9.88,-0.0039117,4,0.014874,0.032031,0
3065.1,54.233,19.552,0,-0.035492,0,3152.2,50.708,9.88,-0.0039117,4,0.014874,0.032031,0
3065.1,54.233,19.552,0,-0.035492,0,3152.2,50.708,9.88,-0.0039117,4,0.014874,0.032031,0
3065.1,54.233,19.552,0,-0.035492,0,3152.2,50.708,9.88,-0.0039117,4,0.014874,0.032031,0
3065.5,54.233,19.551,0,-0.035836,0,3152.2,50.708,9.88,-0.0039117,4,0.014874,0.032176,0
3065.5,54.233,19.551,0,-0.035836,0,3152.2,50.708,9.88,-0.0039117,4,0.014874,0.032176,0
3065.5,54.233,19.551,0,-0.035836,0,3152.2,50.708,9.88,-0.0039117,4,0.014874,0.032176,0
3065.5,54.233,19.551,0,-0.035836,0,3152.2,50.708,9.88,-0.0039117,4,0.014874,0.032176,0
3065.5,54.233,19.551,0,-0.035836,0,3152.8,50.708,10.12,-0.0031258,4,0.012691,0.03234,0
3065.5,54.233,19.551,0,-0.035836,0,3153.6,50.708,10.44,-0.0022616,4,0.010131,0.032556,0
3065.5,54.233,19.551,0,-0.035836,0,3153.6,50.708,10.44,-0.0022616,4,0.010131,0.032556,0
3068.6,54.233,19.545,0,-0.038236,0,3153.9,50.708,10.52,-0.0020751,4,0.0095511,0.033802,0
3069.4,54.233,19.544,0,-0.038745,0,3154.5,50.707,10.76,-0.0015792,4,0.007952,0.034268,0
3069.4,54.233,19.544,0,-0.038745,0,3154.5,50.707,10.76,-0.0015792,4,0.007952,0.034268,0
3069.8,54.233,19.543,0,-0.038989,0,3154.5,50.707,10.76,-0.0015792,4,0.007952,0.034425,0
3069.8,54.233,19.543,0,-0.038989,0,3155.1,50.707,11,-0.0011694,4,0.006552,0.034575,0
3069.8,54.233,19.543,0,-0.038989,0,3155.1,50.707,11,-0.0011694,4,0.006552,0.034575,0
3069.8,54.233,19.543,0,-0.038989,0,3155.1,50.707,11,-0.0011694,4,0.006552,0.034575,0
3069.8,54.233,19.543,0,-0.038989,0,3155.1,50.707,11,-0.0011694,4,0.006552,0.034575,0
3069.8,54.233,19.543,0,-0.038989,0,3155.1,50.707,11,-0.0011694,4,0.006552,0.034575,0
3069.8,54.233,19.543,0,-0.038989,0,3155.1,50.707,11,-0.0011694,4,0.006552,0.034575,0
3069.8,54.233,19.543,0,-0.038989,0,3155.1,50.707,11,-0.0011694,4,0.006552,0.034575,0
3069.8,54.233,19.543,0,-0.038989,0,3155.1,50.707,11,-0.0011694,4,0.006552,0.034575,0
3069.8,54.233,19.543,0,-0.038989,0,3155.1,50.707,11,-0.0011694,4,0.006552,0.034575,0
3070.6,54.233,19.541,0,-0.039452,0,3155.1,50.707,11,-0.0011694,4,0.006552,0.034893,0
3070.6,54.233,19.541,0,-0.039452,0,3155.1,50.707,11,-0.0011694,4,0.006552,0.034893,0
3070.6,54.233,19.541,0,-0.039452,0,3155.1,50.707,11,-0.0011694,4,0.006552,0.034893,0
3070.6,54.233,19.541,0,-0.039452,0,3155.1,50.707,11,-0.0011694,4,0.006552,0.034893,0
3070.6,54.233,19.541,0,-0.039452,0,3155.1,50.707,11,-0.0011694,4,0.006552,0.034893,0
3070.6,54.233,19.541,0,-0.039452,0,3155.1,50.707,11,-0.0011694,4,0.006552,0.034893,0
3070.6,54.233,19.541,0,-0.039452,0,3155.1,50.707,11,-0.0011694,4,0.006552,0.034893,0
3070.6,54.233,19.541,0,-0.039452,0,3155.1,50.707,11,-0.0011694,4,0.006552,0.034893,0
3071,54.233,19.541,0,-0.039674,0,3155.1,50.707,11,-0.0011694,4,0.006552,0.035055,0
3071,54.233,19.541,0,-0.039674,0,3155.1,50.707,11,-0.0011694,4,0.006552,0.035055,0
3071.4,54.233,19.54,0,-0.03989,0,3155.1,50.707,11,-0.0011694,4,0.006552,0.035218,0
3072.9,54.233,19.537,0,-0.040684,0,3156.5,50.707,11.111,-0.00054206,2.3355e-07,0.0044259,0.035512,0
3072.9,54.233,19.537,0,-0.040684,0,3156.9,50.707,11.111,-0.00038916,1.4373e-07,0.0037435,0.035324,0
3074.1,54.233,19.534,0,-0.041213,0,3156.9,50.707,11.111,-0.00038916,1.4373e-07,0.0037435,0.035823,0
3074.1,54.233,19.534,0,-0.041213,0,3156.9,50.707,11.111,-0.00038916,1.4373e-07,0.0037435,0.035823,0
3074.1,54.233,19.534,0,-0.041213,0,3157.6,50.707,11.111,-0.00020492,6.0209e-08,0.0028642,0.035538,0
3074.1,54.233,19.534,0,-0.041213,0,3157.8,50.707,11.111,-0.0001541,4.2266e-08,0.0026066,0.035443,0
3074.1,54.233,19.534,0,-0.041213,0,3157.8,50.707,11.111,-0.0001541,4.2266e-08,0.0026066,0.035443,0
3074.1,54.233,19.534,0,-0.041213,0,3157.8,50.707,11.111,-0.0001541,4.2266e-08,0.0026066,0.035443,0
3074.1,54.233,19.534,0,-0.041213,0,3157.8,50.707,11.111,-0.0001541,4.2266e-08,0.0026066,0.035443,0
3074.1,54.233,19.534,0,-0.041213,0,3157.8,50.707,11.111,-0.0001541,4.2266e-08,0.0026066,0.035443,0
3074.1,54.233,19.534,0,-0.041213,0,3157.8,50.707,11.111,-0.0001541,4.2266e-08,0.0026066,0.035443,0
3074.1,54.233,19.534,0,-0.041213,0,3157.8,50.707,11.111,-0.0001541,4.2266e-08,0.0026066,0.035443,0
3075.3,54.233,19.532,0,-0.041697,0,3157.8,50.707,11.111,-0.0001541,4.2266e-08,0.0026066,0.035945,0
3075.6,54.233,19.531,0,-0.041847,0,3157.8,50.707,11.111,-0.0001541,4.2266e-08,0.0026066,0.036116,0
3075.6,54.233,19.531,0,-0.041847,0,3157.8,50.707,11.111,-0.0001541,4.2266e-08,0.0026066,0.036116,0
3075.6,54.233,19.531,0,-0.041847,0,3157.8,50.707,11.111,-0.0001541,4.2266e-08,0.0026066,0.036116,0
3075.6,54.233,19.531,0,-0.041847,0,3157.8,50.707,11.111,-0.0001541,4.2266e-08,0.0026066,0.036116,0
3075.6,54.233,19.531,0,-0.041847,0,3157.8,50.707,11.111,-0.0001541,4.2266e-08,0.0026066,0.036116,0
3075.6,54.233,19.531,0,-0.041847,0,3157.8,50.707,11.111,-0.0001541,4.2266e-08,0.0026066,0.036116,0
3075.6,54.233,19.531,0,-0.041847,0,3157.8,50.707,11.111,-0.0001541,4.2266e-08,0.0026066,0.036116,0
3075.6,54.233,19.531,0,-0.041847,0,3157.8,50.707,11.111,-0.0001541,4.2266e-08,0.0026066,0.036116,0
3075.6,54.233,19.531,0,-0.041847,0,3157.8,50.707,11.111,-0.0001541,4.2266e-08,0.0026066,0.036116,0
3075.6,54.233,19.531,0,-0.041847,0,3157.8,50.707,11.111,-0.0001541,4.2266e-08,0.0026066,0.036116,0
3077.2,54.233,19.527,0,-0.042401,0,3158.5,50.707,11.111,-2.885e-05,8.3602e-09,0.0019294,0.036513,0
3077.2,54.233,19.527,0,-0.042401,0,3158.5,50.707,11.111,-2.885e-05,8.3602e-09,0.0019294,0.036513,0
3077.2,54.233,19.527,0,-0.042401,0,3158.5,50.707,11.111,-2.885e-05,8.3602e-09,0.0019294,0.036513,0
3077.2,54.233,19.527,0,-0.042401,0,3158.5,50.707,11.111,-2.885e-05,8.3602e-09,0.0019294,0.036513,0
3077.2,54.233,19.527,0,-0.042401,0,3158.5,50.707,11.111,-2.885e-05,8.3602e-09,0.0019294,0.036513,0
3077.2,54.233,19.527,0,-0.042401,0,3158.5,50.707,11.111,-2.885e-05,8.3602e-09,0.0019294,0.036513,0
3077.2,54.233,19.527,0,-0.042401,0,3158.5,50.707,11.111,-2.885e-05,8.3602e-09,0.0019294,0.036513,0
3077.2,54.233,19.527,0,-0.042401,0,3158.5,50.707,11.111,-2.885e-05,8.3602e-09,0.0019294,0.036513,0
3077.6,54.233,19.527,0,-0.042527,0,3158.5,50.707,11.111,-2.885e-05,8.3602e-09,0.0019294,0.036688,0
3079.2,54.233,19.523,0,-0.042994,0,3159.6,50.707,11.111,0.00010612,-9.246e-09,0.0010775,0.036893,0
3079.2,54.233,19.523,0,-0.042994,0,3159.6,50.707,11.111,0.00010612,-9.246e-09,0.0010775,0.036893,0
3079.2,54.233,19.523,0,-0.042994,0,3159.6,50.707,11.111,0.00010612,-9.246e-09,0.0010775,0.036893,0
3079.6,54.233,19.522,0,-0.043102,0,3159.6,50.707,11.111,0.00010612,-9.246e-09,0.0010775,0.037073,0
3080.7,54.233,19.52,0,-0.043403,0,3160.9,50.707,11.111,0.00018221,-6.6063e-09,0.00041216,0.036998,0
3080.7,54.233,19.52,0,-0.043403,0,3160.9,50.707,11.111,0.00018221,-6.6063e-09,0.00041216,0.036998,0
3080.7,54.233,19.52,0,-0.043403,0,3161.4,50.707,11.111,0.00019319,-4.4155e-09,0.00025738,0.036795,0
3080.7,54.233,19.52,0,-0.043403,0,3161.4,50.707,11.111,0.00019319,-4.4155e-09,0.00025738,0.036795,0
3080.7,54.233,19.52,0,-0.043403,0,3161.4,50.707,11.111,0.00019319,-4.4155e-09,0.00025738,0.036795,0
3080.7,54.233,19.52,0,-0.043403,0,3161.4,50.707,11.111,0.00019319,-4.4155e-09,0.00025738,0.036795,0
3080.7,54.233,19.52,0,-0.043403,0,3161.6,50.707,11.111,0.00019666,-3.336e-09,0.00019033,0.036694,0
3080.7,54.233,19.52,0,-0.043403,0,3161.8,50.707,11.111,0.00019894,-2.305e-09,0.00012958,0.036594,0
3080.7,54.233,19.52,0,-0.043403,0,3161.8,50.707,11.111,0.00019894,-2.305e-09,0.00012958,0.036594,0
3080.7,54.233,19.52,0,-0.043403,0,3161.8,50.707,11.111,0.00019894,-2.305e-09,0.00012958,0.036594,0
3080.7,54.233,19.52,0,-0.043403,0,3161.8,50.707,11.111,0.00019894,-2.305e-09,0.00012958,0.036594,0
3080.7,54.233,19.52,0,-0.043403,0,3161.8,50.707,11.111,0.00019894,-2.305e-09,0.00012958,0.036594,0
3080.7,54.233,19.52,0,-0.043403,0,3161.8,50.707,11.111,0.00019894,-2.305e-09,0.00012958,0.036594,0
3082.3,54.233,19.516,0,-0.043754,0,3161.8,50.707,11.111,0.00019894,-2.305e-09,0.00012958,0.03731,0
3082.3,54.233,19.516,0,-0.043754,0,3161.8,50.707,11.111,0.00019894,-2.305e-09,0.00012958,0.03731,0
3082.3,54.233,19.516,0,-0.043754,0,3162.5,50.707,11.111,0.0001998,3.3939e-10,-1.8856e-05,0.037001,0
3082.3,54.233,19.516,0,-0.043754,0,3162.5,50.707,11.111,0.0001998,3.3939e-10,-1.8856e-05,0.037001,0
3082.3,54.233,19.516,0,-0.043754,0,3162.5,50.707,11.111,0.0001998,3.3939e-10,-1.8856e-05,0.037001,0
3082.3,54.233,19.516,0,-0.043754,0,3162.5,50.707,11.111,0.0001998,3.3939e-10,-1.8856e-05,0.037001,0
3082.3,54.233,19.516,0,-0.043754,0,3162.5,50.707,11.111,0.0001998,3.3939e-10,-1.8856e-05,0.037001,0
3082.3,54.233,19.516,0,-0.043754,0,3162.5,50.707,11.111,0.0001998,3.3939e-10,-1.8856e-05,0.037001,0
3082.3,54.233,19.516,0,-0.043754,0,3162.5,50.707,11.111,0.0001998,3.3939e-10,-1.8856e-05,0.037001,0
3082.3,54.233,19.516,0,-0.043754,0,3162.5,50.707,11.111,0.0001998,3.3939e-10,-1.8856e-05,0.037001,0
3082.3,54.233,19.516,0,-0.043754,0,3162.5,50.707,11.111,0.0001998,3.3939e-10,-1.8856e-05,0.037001,0
3083.5,54.233,19.513,0,-0.059558,0,3162.5,50.707,11.111,0.0001998,3.3939e-10,-1.8856e-05,0.037547,0
3083.5,54.233,19.513,0,-0.059558,0,3163.1,50.707,11.111,0.00019374,2.1819e-09,-0.00012434,0.037234,0
3083.5,54.233,19.513,0,-0.059558,0,3163.4,50.707,11.111,0.00019057,2.619e-09,-0.0001515,0.037131,0
3083.5,54.233,19.513,0,-0.059558,0,3163.4,50.707,11.111,0.00019057,2.619e-09,-0.0001515,0.037131,0
3083.5,54.233,19.513,0,-0.059558,0,3163.4,50.707,11.111,0.00019057,2.619e-09,-0.0001515,0.037131,0
3086.6,54.233,19.5,0,-0.10131,0,3163.6,50.707,11.111,0.00018694,2.9745e-09,-0.00017516,0.038524,0
3086.6,54.233,19.5,0,-0.10131,0,3163.6,50.707,11.111,0.00018694,2.9745e-09,-0.00017516,0.038524,0
3086.6,54.233,19.5,0,-0.10131,0,3163.6,50.707,11.111,0.00018694,2.9745e-09,-0.00017516,0.038524,0
3086.6,54.233,19.5,0,-0.10131,0,3163.6,50.707,11.111,0.00018694,2.9745e-09,-0.00017516,0.038524,0
3086.6,54.233,19.5,0,-0.10131,0,3163.6,50.707,11.111,0.00018694,2.9745e-09,-0.00017516,0.038524,0
3086.6,54.233,19.5,0,-0.10131,0,3163.6,50.707,11.111,0.00018694,2.9745e-09,-0.00017516,0.038524,0
3086.6,54.233,19.5,0,-0.10131,0,3163.6,50.707,11.111,0.00018694,2.9745e-09,-0.00017516,0.038524,0
3086.6,54.233,19.5,0,-0.10131,0,3163.6,50.707,11.111,0.00018694,2.9745e-09,-0.00017516,0.038524,0
3086.6,54.233,19.5,0,-0.10131,0,3164.7,50.707,11.111,0.00016402,3.7453e-09,-0.0002499,0.037978,0
3086.6,54.233,19.5,0,-0.10131,0,3164.7,50.707,11.111,0.00016402,3.7453e-09,-0.0002499,0.037978,0
3086.6,54.233,19.5,0,-0.10131,0,3164.7,50.707,11.111,0.00016402,3.7453e-09,-0.0002499,0.037978,0
3086.6,54.233,19.5,0,-0.10131,0,3164.9,50.707,11.111,0.00015883,3.7441e-09,-0.00025774,0.037871,0
3086.6,54.233,19.5,0,-0.10131,0,3164.9,50.707,11.111,0.00015883,3.7441e-09,-0.00025774,0.037871,0
3086.6,54.233,19.5,0,-0.10131,0,3164.9,50.707,11.111,0.00015883,3.7441e-09,-0.00025774,0.037871,0
3087.7,54.233,19.494,0,-0.11515,0,3164.9,50.707,11.111,0.00015883,3.7441e-09,-0.00025774,0.038443,0
3088.9,54.233,19.486,0,-0.12816,0,3165.4,50.707,11.111,0.00014814,3.6364e-09,-0.0002679,0.038806,0
3088.9,54.233,19.486,0,-0.12816,0,3165.4,50.707,11.111,0.00014814,3.6364e-09,-0.0002679,0.038806,0
3089.7,54.233,19.481,0,-0.13641,0,3165.4,50.707,11.111,0.00014814,3.6364e-09,-0.0002679,0.039205,0
3090.1,54.233,19.478,0,-0.14041,0,3165.4,50.707,11.111,0.00014814,3.6364e-09,-0.0002679,0.039407,0
3090.5,54.233,19.475,0,-0.14435,0,3165.4,50.707,11.111,0.00014814,3.6364e-09,-0.0002679,0.039611,0
3090.5,54.233,19.475,0,-0.14435,0,3165.4,50.707,11.111,0.00014814,3.6364e-09,-0.0002679,0.039611,0
3090.5,54.233,19.475,0,-0.14435,0,3165.4,50.707,11.111,0.00014814,3.6364e-09,-0.0002679,0.039611,0
3090.5,54.233,19.475,0,-0.14435,0,3165.4,50.707,11.111,0.00014814,3.6364e-09,-0.0002679,0.039611,0
3090.5,54.233,19.475,0,-0.14435,0,3165.4,50.707,11.111,0.00014814,3.6364e-09,-0.0002679,0.039611,0
3090.5,54.233,19.475,0,-0.14435,0,3165.4,50.707,11.111,0.00014814,3.6364e-09,-0.0002679,0.039611,0
3090.5,54.233,19.475,0,-0.14435,0,3165.4,50.707,11.111,0.00014814,3.6364e-09,-0.0002679,0.039611,0
3090.5,54.233,19.475,0,-0.14435,0,3165.4,50.707,11.111,0.00014814,3.6364e-09,-0.0002679,0.039611,0
3090.5,54.233,19.475,0,-0.14435,0,3166.9,50.707,11.111,0.00011055,2.6654e-09,-0.0002617,0.038808,0
3090.5,54.233,19.475,0,-0.14435,0,3166.9,50.707,11.111,0.00011055,2.6654e-09,-0.0002617,0.038808,0
3090.5,54.233,19.475,0,-0.14435,0,3166.9,50.707,11.111,0.00011055,2.6654e-09,-0.0002617,0.038808,0
3090.5,54.233,19.475,0,-0.14435,0,3166.9,50.707,11.111,0.00011055,2.6654e-09,-0.0002617,0.038808,0
3090.5,54.233,19.475,0,-0.14435,0,3166.9,50.707,11.111,0.00011055,2.6654e-09,-0.0002617,0.038808,0
3090.5,54.233,19.475,0,-0.14435,0,3166.9,50.707,11.111,0.00011055,2.6654e-09,-0.0002617,0.038808,0
3090.5,54.233,19.475,0,-0.14435,0,3166.9,50.707,11.111,0.00011055,2.6654e-09,-0.0002617,0.038808,0
3090.5,54.233,19.475,0,-0.14435,0,3167.1,50.707,11.111,0.00010543,2.5001e-09,-0.00025721,0.038696,0
3090.5,54.233,19.475,0,-0.14435,0,3167.1,50.707,11.111,0.00010543,2.5001e-09,-0.00025721,0.038696,0
3092.4,54.233,19.46,0,-0.163,0,3167.4,50.707,11.111,0.00010041,2.3357e-09,-0.00025213,0.039583,0
3093.2,54.233,19.453,0,-0.17171,0,3168,50.707,11.111,8.6076e-05,1.8631e-09,-0.00023413,0.039642,0
3093.2,54.233,19.453,0,-0.17171,0,3168.7,50.707,11.111,7.295e-05,1.4423e-09,-0.00021344,0.039293,0
3093.2,54.233,19.453,0,-0.17171,0,3168.9,50.707,11.111,6.8862e-05,1.3162e-09,-0.0002062,0.039178,0
3093.2,54.233,19.453,0,-0.17171,0,3168.9,50.707,11.111,6.8862e-05,1.3162e-09,-0.0002062,0.039178,0
3093.2,54.233,19.453,0,-0.17171,0,3168.9,50.707,11.111,6.8862e-05,1.3162e-09,-0.0002062,0.039178,0
3093.2,54.233,19.453,0,-0.17171,0,3168.9,50.707,11.111,6.8862e-05,1.3162e-09,-0.0002062,0.039178,0
3093.2,54.233,19.453,0,-0.17171,0,3169.1,50.707,11.111,6.4921e-05,1.1976e-09,-0.00019888,0.039064,0
3093.2,54.233,19.453,0,-0.17171,0,3169.1,50.707,11.111,6.4921e-05,1.1976e-09,-0.00019888,0.039064,0
3093.2,54.233,19.453,0,-0.17171,0,3169.1,50.707,11.111,6.4921e-05,1.1976e-09,-0.00019888,0.039064,0
3093.2,54.233,19.453,0,-0.17171,0,3169.1,50.707,11.111,6.4921e-05,1.1976e-09,-0.00019888,0.039064,0
3093.2,54.233,19.453,0,-0.17171,0,3169.1,50.707,11.111,6.4921e-05,1.1976e-09,-0.00019888,0.039064,0
3093.2,54.233,19.453,0,-0.17171,0,3169.1,50.707,11.111,6.4921e-05,1.1976e-09,-0.00019888,0.039064,0
3093.2,54.233,19.453,0,-0.17171,0,3169.1,50.707,11.111,6.4921e-05,1.1976e-09,-0.00019888,0.039064,0
3093.2,54.233,19.453,0,-0.17171,0,3169.1,50.707,11.111,6.4921e-05,1.1976e-09,-0.00019888,0.039064,0
3095.1,54.233,19.435,0,-0.19846,0,3169.1,50.707,11.111,6.4921e-05,1.1976e-09,-0.00019888,0.040087,0
3095.1,54.233,19.435,0,-0.19846,0,3169.1,50.707,11.111,6.4921e-05,1.1976e-09,-0.00019888,0.040087,0
3095.1,54.233,19.435,0,-0.19846,0,3169.1,50.707,11.111,6.4921e-05,1.1976e-09,-0.00019888,0.040087,0
3095.1,54.233,19.435,0,-0.19846,0,3169.1,50.707,11.111,6.4921e-05,1.1976e-09,-0.00019888,0.040087,0
3095.1,54.233,19.435,0,-0.19846,0,3169.1,50.707,11.111,6.4921e-05,1.1976e-09,-0.00019888,0.040087,0
3095.1,54.233,19.435,0,-0.19846,0,3169.1,50.707,11.111,6.4921e-05,1.1976e-09,-0.00019888,0.040087,0
3095.1,54.233,19.435,0,-0.19846,0,3169.1,50.707,11.111,6.4921e-05,1.1976e-09,-0.00019888,0.040087,0
3095.5,54.233,19.431,0,-0.20372,0,3169.1,50.707,11.111,6.4921e-05,1.1976e-09,-0.00019888,0.040298,0
3095.5,54.233,19.431,0,-0.20372,0,3169.1,50.707,11.111,6.4921e-05,1.1976e-09,-0.00019888,0.040298,0
3095.5,54.233,19.431,0,-0.20372,0,3169.8,50.707,11.111,5.3984e-05,8.8687e-10,-0.00017675,0.039937,0
3097.5,54.233,19.409,0,-0.22956,0,3170.5,50.707,11.111,4.4361e-05,6.4053e-10,-0.00015502,0.040632,0
3098.6,54.233,19.395,0,-0.24472,0,3170.9,50.707,11.111,3.865e-05,5.086e-10,-0.00014107,0.041035,0
3098.6,54.233,19.395,0,-0.24472,0,3171.6,50.707,11.111,3.1084e-05,3.5246e-10,-0.00012126,0.040662,0
3098.6,54.233,19.395,0,-0.24472,0,3171.8,50.707,11.111,2.8816e-05,3.1015e-10,-0.000115,0.040539,0
3098.6,54.233,19.395,0,-0.24472,0,3171.8,50.707,11.111,2.8816e-05,3.1015e-10,-0.000115,0.040539,0
3098.6,54.233,19.395,0,-0.24472,0,3171.8,50.707,11.111,2.8816e-05,3.1015e-10,-0.000115,0.040539,0
3098.6,54.233,19.395,0,-0.24472,0,3171.8,50.707,11.111,2.8816e-05,3.1015e-10,-0.000115,0.040539,0
3098.6,54.233,19.395,0,-0.24472,0,3171.8,50.707,11.111,2.8816e-05,3.1015e-10,-0.000115,0.040539,0
3098.6,54.233,19.395,0,-0.24472,0,3171.8,50.707,11.111,2.8816e-05,3.1015e-10,-0.000115,0.040539,0
3098.6,54.233,19.395,0,-0.24472,0,3171.8,50.707,11.111,2.8816e-05,3.1015e-10,-0.000115,0.040539,0
3098.6,54.233,19.395,0,-0.24472,0,3171.8,50.707,11.111,2.8816e-05,3.1015e-10,-0.000115,0.040539,0
3098.6,54.233,19.395,0,-0.24472,0,3171.8,50.707,11.111,2.8816e-05,3.1015e-10,-0.000115,0.040539,0
3099.8,54.233,19.38,0,-0.25963,0,3171.8,50.707,11.111,2.8816e-05,3.1015e-10,-0.000115,0.041191,0
3099.8,54.233,19.38,0,-0.25963,0,3171.8,50.707,11.111,2.8816e-05,3.1015e-10,-0.000115,0.041191,0
3099.8,54.233,19.38,0,-0.25963,0,3171.8,50.707,11.111,2.8816e-05,3.1015e-10,-0.000115,0.041191,0
3099.8,54.233,19.38,0,-0.25963,0,3171.8,50.707,11.111,2.8816e-05,3.1015e-10,-0.000115,0.041191,0
3099.8,54.233,19.38,0,-0.25963,0,3171.8,50.707,11.111,2.8816e-05,3.1015e-10,-0.000115,0.041191,0
3099.8,54.233,19.38,0,-0.25963,0,3171.8,50.707,11.111,2.8816e-05,3.1015e-10,-0.000115,0.041191,0
3099.8,54.233,19.38,0,-0.25963,0,3171.8,50.707,11.111,2.8816e-05,3.1015e-10,-0.000115,0.041191,0
3099.8,54.233,19.38,0,-0.25963,0,3171.8,50.707,11.111,2.8816e-05,3.1015e-10,-0.000115,0.041191,0
3099.8,54.233,19.38,0,-0.25963,0,3171.8,50.707,11.111,2.8816e-05,3.1015e-10,-0.000115,0.041191,0
3099.8,54.233,19.38,0,-0.25963,0,3171.8,50.707,11.111,2.8816e-05,3.1015e-10,-0.000115,0.041191,0
3099.8,54.233,19.38,0,-0.25963,0,3171.8,50.707,11.111,2.8816e-05,3.1015e-10,-0.000115,0.041191,0
3099.8,54.233,19.38,0,-0.25963,0,3172.3,50.707,11.111,2.4637e-05,2.3804e-10,-0.00010304,0.040939,0
3099.8,54.233,19.38,0,-0.25963,0,3172.3,50.707,11.111,2.4637e-05,2.3804e-10,-0.00010304,0.040939,0
3101.7,54.233,19.353,0,-0.28393,0,3172.5,50.707,11.111,2.2718e-05,2.0759e-10,-9.7356e-05,0.041928,0
3101.7,54.233,19.353,0,-0.28393,0,3172.5,50.707,11.111,2.2718e-05,2.0759e-10,-9.7356e-05,0.041928,0
3102.1,54.233,19.347,0,-0.28871,0,3172.5,50.707,11.111,2.2718e-05,2.0759e-10,-9.7356e-05,0.042158,0
3103.7,54.233,19.323,0,-0.30759,0,3173.8,50.707,11.111,1.3352e-05,8.511e-11,-6.742e-05,0.042285,0
3103.7,54.233,19.323,0,-0.30759,0,3174.5,50.707,11.111,9.8693e-06,5.1683e-11,-5.5109e-05,0.041889,0
3103.7,54.233,19.323,0,-0.30759,0,3174.5,50.707,11.111,9.8693e-06,5.1683e-11,-5.5109e-05,0.041889,0
3103.7,54.233,19.323,0,-0.30759,0,3174.5,50.707,11.111,9.8693e-06,5.1683e-11,-5.5109e-05,0.041889,0
3103.7,54.233,19.323,0,-0.30759,0,3174.5,50.707,11.111,9.8693e-06,5.1683e-11,-5.5109e-05,0.041889,0
3103.7,54.233,19.323,0,-0.30759,0,3174.5,50.707,11.111,9.8693e-06,5.1683e-11,-5.5109e-05,0.041889,0
3103.7,54.233,19.323,0,-0.30759,0,3174.5,50.707,11.111,9.8693e-06,5.1683e-11,-5.5109e-05,0.041889,0
3104.4,54.233,19.311,0,-0.31688,0,3174.5,50.707,11.111,9.8693e-06,5.1683e-11,-5.5109e-05,0.042349,0
3104.4,54.233,19.311,0,-0.31688,0,3174.5,50.707,11.111,9.8693e-06,5.1683e-11,-5.5109e-05,0.042349,0
3104.8,54.233,19.304,0,-0.32148,0,3174.5,50.707,11.111,9.8693e-06,5.1683e-11,-5.5109e-05,0.042583,0
3104.8,54.233,19.304,0,-0.32148,0,3174.5,50.707,11.111,9.8693e-06,5.1683e-11,-5.5109e-05,0.042583,0
3104.8,54.233,19.304,0,-0.32148,0,3174.5,50.707,11.111,9.8693e-06,5.1683e-11,-5.5109e-05,0.042583,0
3104.8,54.233,19.304,0,-0.32148,0,3174.5,50.707,11.111,9.8693e-06,5.1683e-11,-5.5109e-05,0.042583,0
3104.8,54.233,19.304,0,-0.32148,0,3174.5,50.707,11.111,9.8693e-06,5.1683e-11,-5.5109e-05,0.042583,0
3104.8,54.233,19.304,0,-0.32148,0,3174.5,50.707,11.111,9.8693e-06,5.1683e-11,-5.5109e-05,0.042583,0
3104.8,54.233,19.304,0,-0.32148,0,3174.5,50.707,11.111,9.8693e-06,5.1683e-11,-5.5109e-05,0.042583,0
3104.8,54.233,19.304,0,-0.32148,0,3174.5,50.707,11.111,9.8693e-06,5.1683e-11,-5.5109e-05,0.042583,0
3104.8,54.233,19.304,0,-0.32148,0,3174.5,50.707,11.111,9.8693e-06,5.1683e-11,-5.5109e-05,0.042583,0
3104.8,54.233,19.304,0,-0.32148,0,3174.5,50.707,11.111,9.8693e-06,5.1683e-11,-5.5109e-05,0.042583,0
3104.8,54.233,19.304,0,-0.32148,0,3175.1,50.707,11.111,7.0496e-06,2.9991e-11,-4.4466e-05,0.042181,0
3104.8,54.233,19.304,0,-0.32148,0,3175.1,50.707,11.111,7.0496e-06,2.9991e-11,-4.4466e-05,0.042181,0
3106.4,54.233,19.278,0,-0.33969,0,3175.6,50.707,11.111,5.491e-06,2.0213e-11,-3.8238e-05,0.042848,0
3107.1,54.233,19.264,0,-0.34865,0,3176,50.707,11.111,4.1587e-06,1.3184e-11,-3.2659e-05,0.04305,0
3107.1,54.233,19.264,0,-0.34865,0,3176.9,50.707,11.111,2.0769e-06,4.838e-12,-2.3275e-05,0.042504,0
3107.1,54.233,19.264,0,-0.34865,0,3177.1,50.707,11.111,1.6617e-06,3.5876e-12,-2.1266e-05,0.042369,0
3107.1,54.233,19.264,0,-0.34865,0,3177.1,50.707,11.111,1.6617e-06,3.5876e-12,-2.1266e-05,0.042369,0
3107.1,54.233,19.264,0,-0.34865,0,3177.1,50.707,11.111,1.6617e-06,3.5876e-12,-2.1266e-05,0.042369,0
3107.1,54.233,19.264,0,-0.34865,0,3177.4,50.707,11.111,1.2837e-06,2.5774e-12,-1.9383e-05,0.042236,0
3107.1,54.233,19.264,0,-0.34865,0,3177.4,50.707,11.111,1.2837e-06,2.5774e-12,-1.9383e-05,0.042236,0
3107.1,54.233,19.264,0,-0.34865,0,3177.4,50.707,11.111,1.2837e-06,2.5774e-12,-1.9383e-05,0.042236,0
3107.1,54.233,19.264,0,-0.34865,0,3177.4,50.707,11.111,1.2837e-06,2.5774e-12,-1.9383e-05,0.042236,0
3107.1,54.233,19.264,0,-0.34865,0,3177.4,50.707,11.111,1.2837e-06,2.5774e-12,-1.9383e-05,0.042236,0
3107.1,54.233,19.264,0,-0.34865,0,3177.4,50.707,11.111,1.2837e-06,2.5774e-12,-1.9383e-05,0.042236,0
3107.1,54.233,19.264,0,-0.34865,0,3177.4,50.707,11.111,1.2837e-06,2.5774e-12,-1.9383e-05,0.042236,0
3107.1,54.233,19.264,0,-0.34865,0,3177.4,50.707,11.111,1.2837e-06,2.5774e-12,-1.9383e-05,0.042236,0
3107.1,54.233,19.264,0,-0.34865,0,3177.4,50.707,11.111,1.2837e-06,2.5774e-12,-1.9383e-05,0.042236,0
3109.5,54.233,19.22,0,-0.37502,0,3177.4,50.707,11.111,1.2837e-06,2.5774e-12,-1.9383e-05,0.043666,0
3109.5,54.233,19.22,0,-0.37502,0,3177.4,50.707,11.111,1.2837e-06,2.5774e-12,-1.9383e-05,0.043666,0
3109.5,54.233,19.22,0,-0.37502,0,3177.4,50.707,11.111,1.2837e-06,2.5774e-12,-1.9383e-05,0.043666,0
3109.5,54.233,19.22,0,-0.37502,0,3177.4,50.707,11.111,1.2837e-06,2.5774e-12,-1.9383e-05,0.043666,0
3109.5,54.233,19.22,0,-0.37502,0,3177.4,50.707,11.111,1.2837e-06,2.5774e-12,-1.9383e-05,0.043666,0
3109.5,54.233,19.22,0,-0.37502,0,3177.4,50.707,11.111,1.2837e-06,2.5774e-12,-1.9383e-05,0.043666,0
3109.5,54.233,19.22,0,-0.37502,0,3177.4,50.707,11.111,1.2837e-06,2.5774e-12,-1.9383e-05,0.043666,0
3109.8,54.233,19.213,0,-0.37933,0,3177.4,50.707,11.111,1.2837e-06,2.5774e-12,-1.9383e-05,0.043914,0
3109.8,54.233,19.213,0,-0.37933,0,3177.4,50.707,11.111,1.2837e-06,2.5774e-12,-1.9383e-05,0.043914,0
3109.8,54.233,19.213,0,-0.37933,0,3177.4,50.707,11.111,1.2837e-06,2.5774e-12,-1.9383e-05,0.043914,0
3109.8,54.233,19.213,0,-0.37933,0,3177.4,50.707,11.111,1.2837e-06,2.5774e-12,-1.9383e-05,0.043914,0
3111.8,54.233,19.174,0,-0.40062,0,3178,50.707,11.111,3.4872e-07,6.3993e-13,-1.4424e-05,0.04474,0
3112.1,54.233,19.166,0,-0.40482,0,3178,50.707,11.111,3.4872e-07,6.3993e-13,-1.4424e-05,0.044999,0
3113.3,54.233,19.141,0,-0.41729,0,3179.6,50.707,11.111,-9.2666e-07,-4.8621e-13,-6.2517e-06,0.044725,0
3113.3,54.233,19.141,0,-0.41729,0,3180,50.707,11.111,-1.1189e-06,-4.4642e-13,-4.6242e-06,0.044428,0
3113.3,54.233,19.141,0,-0.41729,0,3180,50.707,11.111,-1.1189e-06,-4.4642e-13,-4.6242e-06,0.044428,0
3113.3,54.233,19.141,0,-0.41729,0,3180,50.707,11.111,-1.1189e-06,-4.4642e-13,-4.6242e-06,0.044428,0
3113.3,54.233,19.141,0,-0.41729,0,3180.3,50.707,11.111,-1.1934e-06,-4.0595e-13,-3.9075e-06,0.044281,0
3113.3,54.233,19.141,0,-0.41729,0,3180.3,50.707,11.111,-1.1934e-06,-4.0595e-13,-3.9075e-06,0.044281,0
3113.3,54.233,19.141,0,-0.41729,0,3180.3,50.707,11.111,-1.1934e-06,-4.0595e-13,-3.9075e-06,0.044281,0
3113.3,54.233,19.141,0,-0.41729,0,3180.3,50.707,11.111,-1.1934e-06,-4.0595e-13,-3.9075e-06,0.044281,0
3113.3,54.233,19.141,0,-0.41729,0,3180.3,50.707,11.111,-1.1934e-06,-4.0595e-13,-3.9075e-06,0.044281,0
3113.3,54.233,19.141,0,-0.41729,0,3180.3,50.707,11.111,-1.1934e-06,-4.0595e-13,-3.9075e-06,0.044281,0
3113.3,54.233,19.141,0,-0.41729,0,3180.3,50.707,11.111,-1.1934e-06,-4.0595e-13,-3.9075e-06,0.044281,0
3113.3,54.233,19.141,0,-0.41729,0,3180.3,50.707,11.111,-1.1934e-06,-4.0595e-13,-3.9075e-06,0.044281,0
3113.3,54.233,19.141,0,-0.41729,0,3180.3,50.707,11.111,-1.1934e-06,-4.0595e-13,-3.9075e-06,0.044281,0
3114.4,54.233,19.116,0,-0.42958,0,3180.3,50.707,11.111,-1.1934e-06,-4.0595e-13,-3.9075e-06,0.04505,0
3114.4,54.233,19.116,0,-0.42958,0,3180.3,50.707,11.111,-1.1934e-06,-4.0595e-13,-3.9075e-06,0.04505,0
3114.4,54.233,19.116,0,-0.42958,0,3180.3,50.707,11.111,-1.1934e-06,-4.0595e-13,-3.9075e-06,0.04505,0
3114.4,54.233,19.116,0,-0.42958,0,3180.3,50.707,11.111,-1.1934e-06,-4.0595e-13,-3.9075e-06,0.04505,0
3114.4,54.233,19.116,0,-0.42958,0,3180.3,50.707,11.111,-1.1934e-06,-4.0595e-13,-3.9075e-06,0.04505,0
3114.4,54.233,19.116,0,-0.42958,0,3180.3,50.707,11.111,-1.1934e-06,-4.0595e-13,-3.9075e-06,0.04505,0
3114.4,54.233,19.116,0,-0.42958,0,3180.3,50.707,11.111,-1.1934e-06,-4.0595e-13,-3.9075e-06,0.04505,0
3114.4,54.233,19.116,0,-0.42958,0,3180.3,50.707,11.111,-1.1934e-06,-4.0595e-13,-3.9075e-06,0.04505,0
3114.8,54.233,19.107,0,-0.43365,0,3180.3,50.707,11.111,-1.1934e-06,-4.0595e-13,-3.9075e-06,0.045312,0
3114.8,54.233,19.107,0,-0.43365,0,3180.3,50.707,11.111,-1.1934e-06,-4.0595e-13,-3.9075e-06,0.045312,0
3116.3,54.233,19.072,0,-0.4497,0,3180.9,50.707,11.111,-1.3442e-06,-2.502e-13,-2.101e-06,0.045913,0
3117.1,54.233,19.054,0,-0.45762,0,3181.8,50.707,11.111,-1.4125e-06,-4.6921e-14,-3.7006e-07,0.045824,0
3117.1,54.233,19.054,0,-0.45762,0,3182.7,50.707,11.111,-1.3767e-06,9.4333e-14,7.5717e-07,0.045206,0
3117.1,54.233,19.054,0,-0.45762,0,3182.9,50.707,11.111,-1.3564e-06,1.1845e-13,9.6343e-07,0.045054,0
3117.1,54.233,19.054,0,-0.45762,0,3182.9,50.707,11.111,-1.3564e-06,1.1845e-13,9.6343e-07,0.045054,0
3117.1,54.233,19.054,0,-0.45762,0,3182.9,50.707,11.111,-1.3564e-06,1.1845e-13,9.6343e-07,0.045054,0
3117.1,54.233,19.054,0,-0.45762,0,3182.9,50.707,11.111,-1.3564e-06,1.1845e-13,9.6343e-07,0.045054,0
3117.1,54.233,19.054,0,-0.45762,0,3182.9,50.707,11.111,-1.3564e-06,1.1845e-13,9.6343e-07,0.045054,0
3117.1,54.233,19.054,0,-0.45762,0,3182.9,50.707,11.111,-1.3564e-06,1.1845e-13,9.6343e-07,0.045054,0
3117.1,54.233,19.054,0,-0.45762,0,3182.9,50.707,11.111,-1.3564e-06,1.1845e-13,9.6343e-07,0.045054,0
3117.1,54.233,19.054,0,-0.45762,0,3182.9,50.707,11.111,-1.3564e-06,1.1845e-13,9.6343e-07,0.045054,0
3117.1,54.233,19.054,0,-0.45762,0,3182.9,50.707,11.111,-1.3564e-06,1.1845e-13,9.6343e-07,0.045054,0
3119,54.233,19.012,0,-0.36779,0,3182.9,50.707,11.111,-1.3564e-06,1.1845e-13,9.6343e-07,0.046389,0
3119,54.233,19.012,0,-0.36779,0,3182.9,50.707,11.111,-1.3564e-06,1.1845e-13,9.6343e-07,0.046389,0
3119,54.233,19.012,0,-0.36779,0,3182.9,50.707,11.111,-1.3564e-06,1.1845e-13,9.6343e-07,0.046389,0
3119,54.233,19.012,0,-0.36779,0,3182.9,50.707,11.111,-1.3564e-06,1.1845e-13,9.6343e-07,0.046389,0
3119,54.233,19.012,0,-0.36779,0,3182.9,50.707,11.111,-1.3564e-06,1.1845e-13,9.6343e-07,0.046389,0
3119,54.233,19.012,0,-0.36779,0,3182.9,50.707,11.111,-1.3564e-06,1.1845e-13,9.6343e-07,0.046389,0
3119,54.233,19.012,0,-0.36779,0,3182.9,50.707,11.111,-1.3564e-06,1.1845e-13,9.6343e-07,0.046389,0
3119,54.233,19.012,0,-0.36779,0,3182.9,50.707,11.111,-1.3564e-06,1.1845e-13,9.6343e-07,0.046389,0
3119,54.233,19.012,0,-0.36779,0,3182.9,50.707,11.111,-1.3564e-06,1.1845e-13,9.6343e-07,0.046389,0
3119,54.233,19.012,0,-0.36779,0,3182.9,50.707,11.111,-1.3564e-06,1.1845e-13,9.6343e-07,0.046389,0
3119,54.233,19.012,0,-0.36779,0,3183.4,50.707,11.111,-1.3058e-06,1.5435e-13,1.3004e-06,0.04607,0
3119,54.233,19.012,0,-0.36779,0,3183.4,50.707,11.111,-1.3058e-06,1.5435e-13,1.3004e-06,0.04607,0
3119,54.233,19.012,0,-0.36779,0,3183.4,50.707,11.111,-1.3058e-06,1.5435e-13,1.3004e-06,0.04607,0
3120.9,54.233,18.974,0,-0.39914,0,3183.6,50.707,11.111,-1.2764e-06,1.667e-13,1.435e-06,0.047297,0
3120.9,54.233,18.974,0,-0.39914,0,3183.6,50.707,11.111,-1.2764e-06,1.667e-13,1.435e-06,0.047297,0
3121.3,54.233,18.966,0,-0.40527,0,3183.6,50.707,11.111,-1.2764e-06,1.667e-13,1.435e-06,0.047584,0
3122.8,54.233,18.933,0,-0.42926,0,3184.9,50.707,11.111,-1.0657e-06,1.8283e-13,1.8732e-06,0.047723,0
3122.8,54.233,18.933,0,-0.42926,0,3185.6,50.707,11.111,-9.5092e-07,1.6738e-13,1.9171e-06,0.047218,0
3122.8,54.233,18.933,0,-0.42926,0,3185.6,50.707,11.111,-9.5092e-07,1.6738e-13,1.9171e-06,0.047218,0
3122.8,54.233,18.933,0,-0.42926,0,3185.6,50.707,11.111,-9.5092e-07,1.6738e-13,1.9171e-06,0.047218,0
3122.8,54.233,18.933,0,-0.42926,0,3185.6,50.707,11.111,-9.5092e-07,1.6738e-13,1.9171e-06,0.047218,0
3122.8,54.233,18.933,0,-0.42926,0,3185.6,50.707,11.111,-9.5092e-07,1.6738e-13,1.9171e-06,0.047218,0
3122.8,54.233,18.933,0,-0.42926,0,3185.6,50.707,11.111,-9.5092e-07,1.6738e-13,1.9171e-06,0.047218,0
3123.6,54.233,18.915,0,-0.44095,0,3185.6,50.707,11.111,-9.5092e-07,1.6738e-13,1.9171e-06,0.047792,0
3123.6,54.233,18.915,0,-0.44095,0,3185.6,50.707,11.111,-9.5092e-07,1.6738e-13,1.9171e-06,0.047792,0
3123.9,54.233,18.906,0,-0.44671,0,3185.6,50.707,11.111,-9.5092e-07,1.6738e-13,1.9171e-06,0.048084,0
3123.9,54.233,18.906,0,-0.44671,0,3185.6,50.707,11.111,-9.5092e-07,1.6738e-13,1.9171e-06,0.048084,0
3123.9,54.233,18.906,0,-0.44671,0,3185.6,50.707,11.111,-9.5092e-07,1.6738e-13,1.9171e-06,0.048084,0
3123.9,54.233,18.906,0,-0.44671,0,3185.6,50.707,11.111,-9.5092e-07,1.6738e-13,1.9171e-06,0.048084,0
3123.9,54.233,18.906,0,-0.44671,0,3185.6,50.707,11.111,-9.5092e-07,1.6738e-13,1.9171e-06,0.048084,0
3123.9,54.233,18.906,0,-0.44671,0,3185.6,50.707,11.111,-9.5092e-07,1.6738e-13,1.9171e-06,0.048084,0
3123.9,54.233,18.906,0,-0.44671,0,3185.6,50.707,11.111,-9.5092e-07,1.6738e-13,1.9171e-06,0.048084,0
3123.9,54.233,18.906,0,-0.44671,0,3185.6,50.707,11.111,-9.5092e-07,1.6738e-13,1.9171e-06,0.048084,0
3123.9,54.233,18.906,0,-0.44671,0,3185.6,50.707,11.111,-9.5092e-07,1.6738e-13,1.9171e-06,0.048084,0
3123.9,54.233,18.906,0,-0.44671,0,3185.6,50.707,11.111,-9.5092e-07,1.6738e-13,1.9171e-06,0.048084,0
3123.9,54.233,18.906,0,-0.44671,0,3186.3,50.707,11.111,-8.3705e-07,1.4516e-13,1.8844e-06,0.047572,0
3125.1,54.233,18.879,0,-0.46371,0,3186.3,50.707,11.111,-8.3705e-07,1.4516e-13,1.8844e-06,0.048449,0
3125.1,54.233,18.879,0,-0.46371,0,3186.9,50.707,11.111,-7.2766e-07,1.2066e-13,1.798e-06,0.047929,0
3126.2,54.233,18.851,0,-0.48027,0,3187.1,50.707,11.111,-6.9263e-07,1.1254e-13,1.7605e-06,0.048641,0
3127.7,54.233,18.811,0,-0.50169,0,3188,50.707,11.111,-5.6134e-07,8.2192e-14,1.5823e-06,0.049136,0
3127.7,54.233,18.811,0,-0.50169,0,3188,50.707,11.111,-5.6134e-07,8.2192e-14,1.5823e-06,0.049136,0
3127.7,54.233,18.811,0,-0.50169,0,3188,50.707,11.111,-5.6134e-07,8.2192e-14,1.5823e-06,0.049136,0
3127.7,54.233,18.811,0,-0.50169,0,3188,50.707,11.111,-5.6134e-07,8.2192e-14,1.5823e-06,0.049136,0
3127.7,54.233,18.811,0,-0.50169,0,3188,50.707,11.111,-5.6134e-07,8.2192e-14,1.5823e-06,0.049136,0
3127.7,54.233,18.811,0,-0.50169,0,3188,50.707,11.111,-5.6134e-07,8.2192e-14,1.5823e-06,0.049136,0
3127.7,54.233,18.811,0,-0.50169,0,3188,50.707,11.111,-5.6134e-07,8.2192e-14,1.5823e-06,0.049136,0
3127.7,54.233,18.811,0,-0.50169,0,3188,50.707,11.111,-5.6134e-07,8.2192e-14,1.5823e-06,0.049136,0
3127.7,54.233,18.811,0,-0.50169,0,3188.5,50.707,11.111,-5.0153e-07,6.8892e-14,1.4824e-06,0.048779,0
3127.7,54.233,18.811,0,-0.50169,0,3188.5,50.707,11.111,-5.0153e-07,6.8892e-14,1.4824e-06,0.048779,0
3127.7,54.233,18.811,0,-0.50169,0,3188.5,50.707,11.111,-5.0153e-07,6.8892e-14,1.4824e-06,0.048779,0
3127.7,54.233,18.811,0,-0.50169,0,3188.5,50.707,11.111,-5.0153e-07,6.8892e-14,1.4824e-06,0.048779,0
3127.7,54.233,18.811,0,-0.50169,0,3188.5,50.707,11.111,-5.0153e-07,6.8892e-14,1.4824e-06,0.048779,0
3127.7,54.233,18.811,0,-0.50169,0,3188.5,50.707,11.111,-5.0153e-07,6.8892e-14,1.4824e-06,0.048779,0
3127.7,54.233,18.811,0,-0.50169,0,3188.5,50.707,11.111,-5.0153e-07,6.8892e-14,1.4824e-06,0.048779,0
3127.7,54.233,18.811,0,-0.50169,0,3188.5,50.707,11.111,-5.0153e-07,6.8892e-14,1.4824e-06,0.048779,0
3127.7,54.233,18.811,0,-0.50169,0,3188.5,50.707,11.111,-5.0153e-07,6.8892e-14,1.4824e-06,0.048779,0
3128.5,54.233,18.791,0,-0.51212,0,3188.5,50.707,11.111,-5.0153e-07,6.8892e-14,1.4824e-06,0.049387,0
3128.5,54.233,18.791,0,-0.51212,0,3188.5,50.707,11.111,-5.0153e-07,6.8892e-14,1.4824e-06,0.049387,0
3128.5,54.233,18.791,0,-0.51212,0,3188.5,50.707,11.111,-5.0153e-07,6.8892e-14,1.4824e-06,0.049387,0
3128.5,54.233,18.791,0,-0.51212,0,3188.5,50.707,11.111,-5.0153e-07,6.8892e-14,1.4824e-06,0.049387,0
3128.8,54.233,18.781,0,-0.51726,0,3188.5,50.707,11.111,-5.0153e-07,6.8892e-14,1.4824e-06,0.049696,0
3128.8,54.233,18.781,0,-0.51726,0,3189.4,50.707,11.111,-3.9431e-07,4.6718e-14,1.2752e-06,0.04897,0
3131.5,54.233,18.706,0,-0.55206,0,3189.6,50.707,11.111,-3.701e-07,4.2097e-14,1.2234e-06,0.050983,0
3131.5,54.233,18.706,0,-0.55206,0,3189.6,50.707,11.111,-3.701e-07,4.2097e-14,1.2234e-06,0.050983,0
3132.2,54.233,18.684,0,-0.56166,0,3190.7,50.708,11.111,0.0087344,-0.0001097,0.17435,0.050668,0
3132.2,54.233,18.684,0,-0.56166,0,3190.7,50.708,11.111,0.0087344,-0.0001097,0.17435,0.050668,0
3132.2,54.233,18.684,0,-0.56166,0,3190.7,50.708,11.111,0.0087344,-0.0001097,0.17435,0.050668,0
3132.2,54.233,18.684,0,-0.56166,0,3190.7,50.708,11.111,0.0087344,-0.0001097,0.17435,0.050668,0
3132.2,54.233,18.684,0,-0.56166,0,3190.7,50.708,11.111,0.0087344,-0.0001097,0.17435,0.050668,0
3132.2,54.233,18.684,0,-0.56166,0,3190.7,50.708,11.111,0.0087344,-0.0001097,0.17435,0.050668,0
3132.2,54.233,18.684,0,-0.56166,0,3190.7,50.708,11.111,0.0087344,-0.0001097,0.17435,0.050668,0
3132.6,54.233,18.672,0,-0.56641,0,3190.7,50.708,11.111,0.0087344,-0.0001097,0.17435,0.050992,0
3132.6,54.233,18.672,0,-0.56641,0,3190.7,50.708,11.111,0.0087344,-0.0001097,0.17435,0.050992,0
3132.6,54.233,18.672,0,-0.56641,0,3190.7,50.708,11.111,0.0087344,-0.0001097,0.17435,0.050992,0
3132.6,54.233,18.672,0,-0.56641,0,3190.7,50.708,11.111,0.0087344,-0.0001097,0.17435,0.050992,0
3132.6,54.233,18.672,0,-0.56641,0,3191.4,50.709,11.111,0.028968,-0.00089585,0.3984,0.050417,0
3132.6,54.233,18.672,0,-0.56641,0,3191.4,50.709,11.111,0.028968,-0.00089585,0.3984,0.050417,0
3132.6,54.233,18.672,0,-0.56641,0,3191.4,50.709,11.111,0.028968,-0.00089585,0.3984,0.050417,0
3132.6,54.233,18.672,0,-0.56641,0,3191.4,50.709,11.111,0.028968,-0.00089585,0.3984,0.050417,0
3132.6,54.233,18.672,0,-0.56641,0,3191.4,50.709,11.111,0.028968,-0.00089585,0.3984,0.050417,0
3132.6,54.233,18.672,0,-0.56641,0,3191.4,50.709,11.111,0.028968,-0.00089585,0.3984,0.050417,0
3132.6,54.233,18.672,0,-0.56641,0,3191.4,50.709,11.111,0.028968,-0.00089585,0.3984,0.050417,0
3133.3,54.233,18.65,0,-0.57585,0,3191.4,50.709,11.111,0.028968,-0.00089585,0.3984,0.051061,0
3134.5,54.233,18.615,0,-0.58985,0,3192,50.712,11.111,0.064994,-0.0035226,0.67161,0.051459,0
3134.5,54.233,18.615,0,-0.58985,0,3192.5,50.715,11.111,0.098725,-0.007038,0.86846,0.051067,0
3136.3,54.233,18.555,0,-0.61284,0,3192.7,50.717,11.11,0.11861,-0.0094988,0.96898,0.05254,0
3136.3,54.233,18.555,0,-0.61284,0,3192.7,50.717,11.11,0.11861,-0.0094988,0.96898,0.05254,0
3136.3,54.233,18.555,0,-0.61284,0,3192.7,50.717,11.11,0.11861,-0.0094988,0.96898,0.05254,0
3136.3,54.233,18.555,0,-0.61284,0,3192.7,50.717,11.11,0.11861,-0.0094988,0.96898,0.05254,0
3136.3,54.233,18.555,0,-0.61284,0,3192.7,50.717,11.11,0.11861,-0.0094988,0.96898,0.05254,0
3136.3,54.233,18.555,0,-0.61284,0,3192.7,50.717,11.11,0.11861,-0.0094988,0.96898,0.05254,0
3136.3,54.233,18.555,0,-0.61284,0,3192.7,50.717,11.11,0.11861,-0.0094988,0.96898,0.05254,0
3136.3,54.233,18.555,0,-0.61284,0,3192.7,50.717,11.11,0.11861,-0.0094988,0.96898,0.05254,0
3136.3,54.233,18.555,0,-0.61284,0,3192.7,50.717,11.11,0.11861,-0.0094988,0.96898,0.05254,0
3136.3,54.233,18.555,0,-0.61284,0,3192.7,50.717,11.11,0.11861,-0.0094988,0.96898,0.05254,0
3136.3,54.233,18.555,0,-0.61284,0,3193.6,50.731,11.109,0.21827,-0.025234,1.3704,0.051727,0
3136.3,54.233,18.555,0,-0.61284,0,3193.6,50.731,11.109,0.21827,-0.025234,1.3704,0.051727,0
3136.3,54.233,18.555,0,-0.61284,0,3193.6,50.731,11.109,0.21827,-0.025234,1.3704,0.051727,0
3136.3,54.233,18.555,0,-0.61284,0,3193.6,50.731,11.109,0.21827,-0.025234,1.3704,0.051727,0
3136.3,54.233,18.555,0,-0.61284,0,3193.6,50.731,11.109,0.21827,-0.025234,1.3704,0.051727,0
3136.3,54.233,18.555,0,-0.61284,0,3193.6,50.731,11.109,0.21827,-0.025234,1.3704,0.051727,0
3136.3,54.233,18.555,0,-0.61284,0,3193.6,50.731,11.109,0.21827,-0.025234,1.3704,0.051727,0
3136.3,54.233,18.555,0,-0.61284,0,3193.6,50.731,11.109,0.21827,-0.025234,1.3704,0.051727,0
3136.3,54.233,18.555,0,-0.61284,0,3193.6,50.731,11.109,0.21827,-0.025234,1.3704,0.051727,0
3137.1,54.233,18.53,0,-0.62193,0,3193.6,50.731,11.109,0.21827,-0.025234,1.3704,0.052401,0
3137.1,54.233,18.53,0,-0.62193,0,3193.6,50.731,11.109,0.21827,-0.025234,1.3704,0.052401,0
3137.1,54.233,18.53,0,-0.62193,0,3193.6,50.731,11.109,0.21827,-0.025234,1.3704,0.052401,0
3138.5,54.233,18.479,0,-0.63994,0,3194,50.741,11.108,0.27987,-0.037197,1.5637,0.053371,0
3138.9,54.233,18.467,0,-0.6444,0,3194,50.741,11.108,0.27987,-0.037197,1.5637,0.053726,0
3140.4,54.233,18.414,0,-0.6621,0,3195.6,50.8,11.097,0.55076,-0.10269,2.1535,0.053628,0
3140.4,54.233,18.414,0,-0.6621,0,3196,50.824,11.093,0.64174,-0.12775,2.2901,0.053192,0
3140.4,54.233,18.414,0,-0.6621,0,3196,50.824,11.093,0.64174,-0.12775,2.2901,0.053192,0
3140.4,54.233,18.414,0,-0.6621,0,3196,50.824,11.093,0.64174,-0.12775,2.2901,0.053192,0
3140.4,54.233,18.414,0,-0.6621,0,3196.3,50.838,11.09,0.68911,-0.14117,2.3525,0.052976,0
3140.4,54.233,18.414,0,-0.6621,0,3196.3,50.838,11.09,0.68911,-0.14117,2.3525,0.052976,0
3140.4,54.233,18.414,0,-0.6621,0,3196.3,50.838,11.09,0.68911,-0.14117,2.3525,0.052976,0
3140.4,54.233,18.414,0,-0.6621,0,3196.3,50.838,11.09,0.68911,-0.14117,2.3525,0.052976,0
3140.4,54.233,18.414,0,-0.6621,0,3196.3,50.838,11.09,0.68911,-0.14117,2.3525,0.052976,0
3140.4,54.233,18.414,0,-0.6621,0,3196.3,50.838,11.09,0.68911,-0.14117,2.3525,0.052976,0
3140.4,54.233,18.414,0,-0.6621,0,3196.3,50.838,11.09,0.68911,-0.14117,2.3525,0.052976,0
3140.4,54.233,18.414,0,-0.6621,0,3196.3,50.838,11.09,0.68911,-0.14117,2.3525,0.052976,0
3140.4,54.233,18.414,0,-0.6621,0,3196.3,50.838,11.09,0.68911,-0.14117,2.3525,0.052976,0
3141.5,54.233,18.374,0,-0.6752,0,3196.3,50.838,11.09,0.68911,-0.14117,2.3525,0.054037,0
3141.5,54.233,18.374,0,-0.6752,0,3196.3,50.838,11.09,0.68911,-0.14117,2.3525,0.054037,0
3141.5,54.233,18.374,0,-0.6752,0,3196.3,50.838,11.09,0.68911,-0.14117,2.3525,0.054037,0
3141.5,54.233,18.374,0,-0.6752,0,3196.3,50.838,11.09,0.68911,-0.14117,2.3525,0.054037,0
3141.5,54.233,18.374,0,-0.6752,0,3196.3,50.838,11.09,0.68911,-0.14117,2.3525,0.054037,0
3141.5,54.233,18.374,0,-0.6752,0,3196.3,50.838,11.09,0.68911,-0.14117,2.3525,0.054037,0
3141.5,54.233,18.374,0,-0.6752,0,3196.3,50.838,11.09,0.68911,-0.14117,2.3525,0.054037,0
3141.9,54.233,18.361,0,-0.67953,0,3196.3,50.838,11.09,0.68911,-0.14117,2.3525,0.0544,0
3142.2,54.233,18.347,0,-0.68385,0,3196.3,50.838,11.09,0.68911,-0.14117,2.3525,0.054767,0
3143.7,54.233,18.292,0,-0.70094,0,3197.4,50.92,11.071,0.94149,-0.21517,2.6026,0.055087,0
3144.8,54.233,18.249,0,-0.71357,0,3198,50.982,11.056,1.1024,-0.26287,2.7034,0.055496,0
3144.8,54.233,18.249,0,-0.71357,0,3198.7,51.054,11.039,1.2677,-0.31092,2.7685,0.054776,0
3144.8,54.233,18.249,0,-0.71357,0,3198.7,51.054,11.039,1.2677,-0.31092,2.7685,0.054776,0
3144.8,54.233,18.249,0,-0.71357,0,3198.7,51.054,11.039,1.2677,-0.31092,2.7685,0.054776,0
3144.8,54.233,18.249,0,-0.71357,0,3198.7,51.054,11.039,1.2677,-0.31092,2.7685,0.054776,0
3144.8,54.233,18.249,0,-0.71357,0,3198.7,51.054,11.039,1.2677,-0.31092,2.7685,0.054776,0
3144.8,54.233,18.249,0,-0.71357,0,3198.7,51.054,11.039,1.2677,-0.31092,2.7685,0.054776,0
3144.8,54.233,18.249,0,-0.71357,0,3198.7,51.054,11.039,1.2677,-0.31092,2.7685,0.054776,0
3144.8,54.233,18.249,0,-0.71357,0,3198.7,51.054,11.039,1.2677,-0.31092,2.7685,0.054776,0
3144.8,54.233,18.249,0,-0.71357,0,3198.7,51.054,11.039,1.2677,-0.31092,2.7685,0.054776,0
3145.5,54.233,18.22,0,-0.7219,0,3198.7,51.054,11.039,1.2677,-0.31092,2.7685,0.055523,0
3145.5,54.233,18.22,0,-0.7219,0,3198.7,51.054,11.039,1.2677,-0.31092,2.7685,0.055523,0
3145.5,54.233,18.22,0,-0.7219,0,3198.7,51.054,11.039,1.2677,-0.31092,2.7685,0.055523,0
3145.5,54.233,18.22,0,-0.7219,0,3198.7,51.054,11.039,1.2677,-0.31092,2.7685,0.055523,0
3145.5,54.233,18.22,0,-0.7219,0,3198.7,51.054,11.039,1.2677,-0.31092,2.7685,0.055523,0
3145.5,54.233,18.22,0,-0.7219,0,3198.7,51.054,11.039,1.2677,-0.31092,2.7685,0.055523,0
3145.5,54.233,18.22,0,-0.7219,0,3198.7,51.054,11.039,1.2677,-0.31092,2.7685,0.055523,0
3145.5,54.233,18.22,0,-0.7219,0,3198.7,51.054,11.039,1.2677,-0.31092,2.7685,0.055523,0
3145.5,54.233,18.22,0,-0.7219,0,3198.7,51.054,11.039,1.2677,-0.31092,2.7685,0.055523,0
3145.5,54.233,18.22,0,-0.7219,0,3198.7,51.054,11.039,1.2677,-0.31092,2.7685,0.055523,0
3145.5,54.233,18.22,0,-0.7219,0,3198.7,51.054,11.039,1.2677,-0.31092,2.7685,0.055523,0
3145.5,54.233,18.22,0,-0.7219,0,3199.1,51.108,11.025,1.3794,-0.34226,2.7931,0.055037,0
3145.5,54.233,18.22,0,-0.7219,0,3199.1,51.108,11.025,1.3794,-0.34226,2.7931,0.055037,0
3147.3,54.233,18.147,0,-0.74245,0,3199.4,51.136,11.018,1.4354,-0.35755,2.8,0.056701,0
3148.4,54.233,18.102,0,-0.75458,0,3200.2,51.261,10.987,1.6595,-0.41474,2.7939,0.05685,0
3148.4,54.233,18.102,0,-0.75458,0,3201.1,51.404,10.951,1.8803,-0.46324,2.739,0.055821,0
3148.4,54.233,18.102,0,-0.75458,0,3201.3,51.442,10.941,1.9346,-0.47369,2.7184,0.055569,0
3148.4,54.233,18.102,0,-0.75458,0,3201.3,51.442,10.941,1.9346,-0.47369,2.7184,0.055569,0
3148.4,54.233,18.102,0,-0.75458,0,3201.3,51.442,10.941,1.9346,-0.47369,2.7184,0.055569,0
3148.4,54.233,18.102,0,-0.75458,0,3201.5,51.482,10.932,1.9884,-0.4834,2.6954,0.055317,0
3148.4,54.233,18.102,0,-0.75458,0,3201.5,51.482,10.932,1.9884,-0.4834,2.6954,0.055317,0
3148.4,54.233,18.102,0,-0.75458,0,3201.5,51.482,10.932,1.9884,-0.4834,2.6954,0.055317,0
3148.4,54.233,18.102,0,-0.75458,0,3201.5,51.482,10.932,1.9884,-0.4834,2.6954,0.055317,0
3148.4,54.233,18.102,0,-0.75458,0,3201.5,51.482,10.932,1.9884,-0.4834,2.6954,0.055317,0
3148.4,54.233,18.102,0,-0.75458,0,3201.5,51.482,10.932,1.9884,-0.4834,2.6954,0.055317,0
3148.4,54.233,18.102,0,-0.75458,0,3201.5,51.482,10.932,1.9884,-0.4834,2.6954,0.055317,0
3148.4,54.233,18.102,0,-0.75458,0,3201.5,51.482,10.932,1.9884,-0.4834,2.6954,0.055317,0
3148.4,54.233,18.102,0,-0.75458,0,3201.5,51.482,10.932,1.9884,-0.4834,2.6954,0.055317,0
3150.2,54.233,18.026,0,-0.77451,0,3201.5,51.482,10.932,1.9884,-0.4834,2.6954,0.057256,0
3150.2,54.233,18.026,0,-0.77451,0,3201.5,51.482,10.932,1.9884,-0.4834,2.6954,0.057256,0
3150.2,54.233,18.026,0,-0.77451,0,3201.5,51.482,10.932,1.9884,-0.4834,2.6954,0.057256,0
3150.2,54.233,18.026,0,-0.77451,0,3201.5,51.482,10.932,1.9884,-0.4834,2.6954,0.057256,0
3150.2,54.233,18.026,0,-0.77451,0,3201.5,51.482,10.932,1.9884,-0.4834,2.6954,0.057256,0
3150.2,54.233,18.026,0,-0.77451,0,3201.5,51.482,10.932,1.9884,-0.4834,2.6954,0.057256,0
3150.2,54.233,18.026,0,-0.77451,0,3201.5,51.482,10.932,1.9884,-0.4834,2.6954,0.057256,0
3150.6,54.233,18.01,0,-0.77845,0,3201.5,51.482,10.932,1.9884,-0.4834,2.6954,0.057659,0
3150.6,54.233,18.01,0,-0.77845,0,3201.5,51.482,10.932,1.9884,-0.4834,2.6954,0.057659,0
3150.6,54.233,18.01,0,-0.77845,0,3201.5,51.482,10.932,1.9884,-0.4834,2.6954,0.057659,0
3152,54.233,17.947,0,-0.79409,0,3202.2,51.607,10.902,2.1465,-0.50784,2.6122,0.05848,0
3152.7,54.233,17.915,0,-0.80184,0,3203.1,51.788,10.86,2.348,-0.52867,2.4724,0.058198,0
3153.8,54.233,17.867,0,-0.81336,0,3203.7,51.934,10.828,2.4909,-0.53503,2.3491,0.058608,0
3153.8,54.233,17.867,0,-0.81336,0,3204.2,52.035,10.807,2.5818,-0.53477,2.2593,0.058053,0
3153.8,54.233,17.867,0,-0.81336,0,3204.2,52.035,10.807,2.5818,-0.53477,2.2593,0.058053,0
3153.8,54.233,17.867,0,-0.81336,0,3204.2,52.035,10.807,2.5818,-0.53477,2.2593,0.058053,0
3153.8,54.233,17.867,0,-0.81336,0,3204.2,52.035,10.807,2.5818,-0.53477,2.2593,0.058053,0
3153.8,54.233,17.867,0,-0.81336,0,3204.2,52.035,10.807,2.5818,-0.53477,2.2593,0.058053,0
3153.8,54.233,17.867,0,-0.81336,0,3204.2,52.035,10.807,2.5818,-0.53477,2.2593,0.058053,0
3153.8,54.233,17.867,0,-0.81336,0,3204.2,52.035,10.807,2.5818,-0.53477,2.2593,0.058053,0
3153.8,54.233,17.867,0,-0.81336,0,3204.2,52.035,10.807,2.5818,-0.53477,2.2593,0.058053,0
3153.8,54.233,17.867,0,-0.81336,0,3204.2,52.035,10.807,2.5818,-0.53477,2.2593,0.058053,0
3154.5,54.233,17.834,0,-0.82097,0,3204.2,52.035,10.807,2.5818,-0.53477,2.2593,0.058885,0
3154.5,54.233,17.834,0,-0.82097,0,3204.2,52.035,10.807,2.5818,-0.53477,2.2593,0.058885,0
3154.5,54.233,17.834,0,-0.82097,0,3204.2,52.035,10.807,2.5818,-0.53477,2.2593,0.058885,0
3154.5,54.233,17.834,0,-0.82097,0,3204.2,52.035,10.807,2.5818,-0.53477,2.2593,0.058885,0
3154.5,54.233,17.834,0,-0.82097,0,3204.2,52.035,10.807,2.5818,-0.53477,2.2593,0.058885,0
3154.5,54.233,17.834,0,-0.82097,0,3204.2,52.035,10.807,2.5818,-0.53477,2.2593,0.058885,0
3154.5,54.233,17.834,0,-0.82097,0,3204.2,52.035,10.807,2.5818,-0.53477,2.2593,0.058885,0
3154.5,54.233,17.834,0,-0.82097,0,3204.2,52.035,10.807,2.5818,-0.53477,2.2593,0.058885,0
3154.5,54.233,17.834,0,-0.82097,0,3204.2,52.035,10.807,2.5818,-0.53477,2.2593,0.058885,0
3154.5,54.233,17.834,0,-0.82097,0,3204.2,52.035,10.807,2.5818,-0.53477,2.2593,0.058885,0
3154.5,54.233,17.834,0,-0.82097,0,3204.6,52.141,10.786,2.6689,-0.53092,2.1642,0.058325,0
3154.5,54.233,17.834,0,-0.82097,0,3204.6,52.141,10.786,2.6689,-0.53092,2.1642,0.058325,0
3154.5,54.233,17.834,0,-0.82097,0,3204.6,52.141,10.786,2.6689,-0.53092,2.1642,0.058325,0
3154.5,54.233,17.834,0,-0.82097,0,3204.6,52.141,10.786,2.6689,-0.53092,2.1642,0.058325,0
3156.3,54.233,17.751,0,-0.83976,0,3205,52.25,10.765,2.752,-0.52352,2.0643,0.059881,0
3157,54.233,17.718,0,-0.84716,0,3205,52.25,10.765,2.752,-0.52352,2.0643,0.060764,0
3157,54.233,17.718,0,-0.84716,0,3206.5,52.655,10.696,3.0092,-0.4707,1.6832,0.058749,0
3158.8,54.233,17.632,0,-0.86535,0,3206.7,52.716,10.687,3.0414,-0.45991,1.6254,0.060625,0
3158.8,54.233,17.632,0,-0.86535,0,3206.7,52.716,10.687,3.0414,-0.45991,1.6254,0.060625,0
3158.8,54.233,17.632,0,-0.86535,0,3206.7,52.716,10.687,3.0414,-0.45991,1.6254,0.060625,0
3158.8,54.233,17.632,0,-0.86535,0,3206.7,52.716,10.687,3.0414,-0.45991,1.6254,0.060625,0
3158.8,54.233,17.632,0,-0.86535,0,3206.7,52.716,10.687,3.0414,-0.45991,1.6254,0.060625,0
3158.8,54.233,17.632,0,-0.86535,0,3206.7,52.716,10.687,3.0414,-0.45991,1.6254,0.060625,0
3158.8,54.233,17.632,0,-0.86535,0,3206.7,52.716,10.687,3.0414,-0.45991,1.6254,0.060625,0
3158.8,54.233,17.632,0,-0.86535,0,3206.7,52.716,10.687,3.0414,-0.45991,1.6254,0.060625,0
3158.8,54.233,17.632,0,-0.86535,0,3206.7,52.716,10.687,3.0414,-0.45991,1.6254,0.060625,0
3158.8,54.233,17.632,0,-0.86535,0,3206.7,52.716,10.687,3.0414,-0.45991,1.6254,0.060625,0
3158.8,54.233,17.632,0,-0.86535,0,3207.2,52.839,10.669,3.1023,-0.43608,1.5077,0.060045,0
3158.8,54.233,17.632,0,-0.86535,0,3207.2,52.839,10.669,3.1023,-0.43608,1.5077,0.060045,0
3158.8,54.233,17.632,0,-0.86535,0,3207.2,52.839,10.669,3.1023,-0.43608,1.5077,0.060045,0
3158.8,54.233,17.632,0,-0.86535,0,3207.2,52.839,10.669,3.1023,-0.43608,1.5077,0.060045,0
3158.8,54.233,17.632,0,-0.86535,0,3207.2,52.839,10.669,3.1023,-0.43608,1.5077,0.060045,0
3158.8,54.233,17.632,0,-0.86535,0,3207.2,52.839,10.669,3.1023,-0.43608,1.5077,0.060045,0
3158.8,54.233,17.632,0,-0.86535,0,3207.2,52.839,10.669,3.1023,-0.43608,1.5077,0.060045,0
3158.8,54.233,17.632,0,-0.86535,0,3207.2,52.839,10.669,3.1023,-0.43608,1.5077,0.060045,0
3158.8,54.233,17.632,0,-0.86535,0,3207.2,52.839,10.669,3.1023,-0.43608,1.5077,0.060045,0
3159.5,54.233,17.597,0,-0.87247,0,3207.2,52.839,10.669,3.1023,-0.43608,1.5077,0.060932,0
3159.5,54.233,17.597,0,-0.87247,0,3207.2,52.839,10.669,3.1023,-0.43608,1.5077,0.060932,0
3159.5,54.233,17.597,0,-0.87247,0,3207.2,52.839,10.669,3.1023,-0.43608,1.5077,0.060932,0
3160.9,54.233,17.527,0,-0.88639,0,3207.6,52.964,10.653,3.1584,-0.40936,1.3873,0.062163,0
3161.9,54.233,17.473,0,-0.89652,0,3208.4,53.222,10.623,3.2559,-0.3479,1.1395,0.06235,0
3161.9,54.233,17.473,0,-0.89652,0,3209.3,53.486,10.599,3.333,-0.27698,0.88341,0.06117,0
3161.9,54.233,17.473,0,-0.89652,0,3209.5,53.553,10.594,3.349,-0.25796,0.81822,0.060884,0
3161.9,54.233,17.473,0,-0.89652,0,3209.5,53.553,10.594,3.349,-0.25796,0.81822,0.060884,0
3161.9,54.233,17.473,0,-0.89652,0,3209.5,53.553,10.594,3.349,-0.25796,0.81822,0.060884,0
3161.9,54.233,17.473,0,-0.89652,0,3209.5,53.553,10.594,3.349,-0.25796,0.81822,0.060884,0
3161.9,54.233,17.473,0,-0.89652,0,3209.7,53.62,10.59,3.3638,-0.23847,0.75259,0.060602,0
3161.9,54.233,17.473,0,-0.89652,0,3209.7,53.62,10.59,3.3638,-0.23847,0.75259,0.060602,0
3161.9,54.233,17.473,0,-0.89652,0,3209.7,53.62,10.59,3.3638,-0.23847,0.75259,0.060602,0
3161.9,54.233,17.473,0,-0.89652,0,3209.7,53.62,10.59,3.3638,-0.23847,0.75259,0.060602,0
3161.9,54.233,17.473,0,-0.89652,0,3209.7,53.62,10.59,3.3638,-0.23847,0.75259,0.060602,0
3161.9,54.233,17.473,0,-0.89652,0,3209.7,53.62,10.59,3.3638,-0.23847,0.75259,0.060602,0
3161.9,54.233,17.473,0,-0.89652,0,3209.7,53.62,10.59,3.3638,-0.23847,0.75259,0.060602,0
3161.9,54.233,17.473,0,-0.89652,0,3209.7,53.62,10.59,3.3638,-0.23847,0.75259,0.060602,0
3161.9,54.233,17.473,0,-0.89652,0,3209.7,53.62,10.59,3.3638,-0.23847,0.75259,0.060602,0
3163.7,54.233,17.382,0,-0.92921,0,3209.7,53.62,10.59,3.3638,-0.23847,0.75259,0.062896,0
3163.7,54.233,17.382,0,-0.92921,0,3209.7,53.62,10.59,3.3638,-0.23847,0.75259,0.062896,0
3163.7,54.233,17.382,0,-0.92921,0,3209.7,53.62,10.59,3.3638,-0.23847,0.75259,0.062896,0
3163.7,54.233,17.382,0,-0.92921,0,3209.7,53.62,10.59,3.3638,-0.23847,0.75259,0.062896,0
3163.7,54.233,17.382,0,-0.92921,0,3209.7,53.62,10.59,3.3638,-0.23847,0.75259,0.062896,0
3164.4,54.233,17.345,0,-0.94198,0,3210.1,53.755,10.582,3.3892,-0.1982,0.62005,0.063246,0
3164.7,54.233,17.326,0,-0.94816,0,3210.1,53.755,10.582,3.3892,-0.1982,0.62005,0.063729,0
3166.1,54.233,17.249,0,-0.97155,0,3211.2,54.096,10.569,3.4293,-0.091346,0.28177,0.064153,0
3166.1,54.233,17.249,0,-0.97155,0,3211.8,54.302,10.566,3.4369,-0.024203,0.074425,0.063256,0
3166.1,54.233,17.249,0,-0.97155,0,3211.8,54.302,10.566,3.4369,-0.024203,0.074425,0.063256,0
3166.1,54.233,17.249,0,-0.97155,0,3211.8,54.302,10.566,3.4369,-0.024203,0.074425,0.063256,0
3166.1,54.233,17.249,0,-0.97155,0,3211.8,54.302,10.566,3.4369,-0.024203,0.074425,0.063256,0
3166.1,54.233,17.249,0,-0.97155,0,3211.8,54.302,10.566,3.4369,-0.024203,0.074425,0.063256,0
3166.1,54.233,17.249,0,-0.97155,0,3211.8,54.302,10.566,3.4369,-0.024203,0.074425,0.063256,0
3166.1,54.233,17.249,0,-0.97155,0,3211.8,54.302,10.566,3.4369,-0.024203,0.074425,0.063256,0
3166.1,54.233,17.249,0,-0.97155,0,3211.8,54.302,10.566,3.4369,-0.024203,0.074425,0.063256,0
3166.1,54.233,17.249,0,-0.97155,0,3211.8,54.302,10.566,3.4369,-0.024203,0.074425,0.063256,0
3167.1,54.233,17.19,0,-0.98764,0,3211.8,54.302,10.566,3.4369,-0.024203,0.074425,0.064718,0
3167.1,54.233,17.19,0,-0.98764,0,3211.8,54.302,10.566,3.4369,-0.024203,0.074425,0.064718,0
3167.1,54.233,17.19,0,-0.98764,0,3211.8,54.302,10.566,3.4369,-0.024203,0.074425,0.064718,0
3167.1,54.233,17.19,0,-0.98764,0,3211.8,54.302,10.566,3.4369,-0.024203,0.074425,0.064718,0
3167.1,54.233,17.19,0,-0.98764,0,3211.8,54.302,10.566,3.4369,-0.024203,0.074425,0.064718,0
3167.1,54.233,17.19,0,-0.98764,0,3211.8,54.302,10.566,3.4369,-0.024203,0.074425,0.064718,0
3167.1,54.233,17.19,0,-0.98764,0,3211.8,54.302,10.566,3.4369,-0.024203,0.074425,0.064718,0
3167.1,54.233,17.19,0,-0.98764,0,3211.8,54.302,10.566,3.4369,-0.024203,0.074425,0.064718,0
3167.1,54.233,17.19,0,-0.98764,0,3211.8,54.302,10.566,3.4369,-0.024203,0.074425,0.064718,0
3167.1,54.233,17.19,0,-0.98764,0,3211.8,54.302,10.566,3.4369,-0.024203,0.074425,0.064718,0
3167.1,54.233,17.19,0,-0.98764,0,3212.2,54.44,10.567,3.435,0.021287,-0.06547,0.064113,0
3167.1,54.233,17.19,0,-0.98764,0,3212.2,54.44,10.567,3.435,0.021287,-0.06547,0.064113,0
3167.1,54.233,17.19,0,-0.98764,0,3212.2,54.44,10.567,3.435,0.021287,-0.06547,0.064113,0
3167.1,54.233,17.19,0,-0.98764,0,3212.2,54.44,10.567,3.435,0.021287,-0.06547,0.064113,0
3168.9,54.233,17.09,0,-1.0116,0,3212.7,54.577,10.569,3.4275,0.067042,-0.2066,0.066008,0
3169.2,54.233,17.07,0,-1.0159,0,3212.7,54.577,10.569,3.4275,0.067042,-0.2066,0.066527,0
3169.2,54.233,17.07,0,-1.0159,0,3214.2,55.052,10.592,3.356,0.2251,-0.70881,0.064396,0
3171.2,54.233,16.947,0,-1.0388,0,3214.4,55.119,10.597,3.34,0.24691,-0.78139,0.067139,0
3171.2,54.233,16.947,0,-1.0388,0,3214.4,55.119,10.597,3.34,0.24691,-0.78139,0.067139,0
3171.2,54.233,16.947,0,-1.0388,0,3214.4,55.119,10.597,3.34,0.24691,-0.78139,0.067139,0
3171.2,54.233,16.947,0,-1.0388,0,3214.4,55.119,10.597,3.34,0.24691,-0.78139,0.067139,0
3171.2,54.233,16.947,0,-1.0388,0,3214.4,55.119,10.597,3.34,0.24691,-0.78139,0.067139,0
3171.2,54.233,16.947,0,-1.0388,0,3214.4,55.119,10.597,3.34,0.24691,-0.78139,0.067139,0
3171.2,54.233,16.947,0,-1.0388,0,3214.4,55.119,10.597,3.34,0.24691,-0.78139,0.067139,0
3171.2,54.233,16.947,0,-1.0388,0,3214.4,55.119,10.597,3.34,0.24691,-0.78139,0.067139,0
3171.2,54.233,16.947,0,-1.0388,0,3214.4,55.119,10.597,3.34,0.24691,-0.78139,0.067139,0
3171.2,54.233,16.947,0,-1.0388,0,3214.4,55.119,10.597,3.34,0.24691,-0.78139,0.067139,0
3171.2,54.233,16.947,0,-1.0388,0,3214.8,55.252,10.609,3.3037,0.28956,-0.92697,0.066517,0
3171.2,54.233,16.947,0,-1.0388,0,3214.8,55.252,10.609,3.3037,0.28956,-0.92697,0.066517,0
3171.2,54.233,16.947,0,-1.0388,0,3214.8,55.252,10.609,3.3037,0.28956,-0.92697,0.066517,0
3171.2,54.233,16.947,0,-1.0388,0,3214.8,55.252,10.609,3.3037,0.28956,-0.92697,0.066517,0
3171.2,54.233,16.947,0,-1.0388,0,3214.8,55.252,10.609,3.3037,0.28956,-0.92697,0.066517,0
3171.2,54.233,16.947,0,-1.0388,0,3214.8,55.252,10.609,3.3037,0.28956,-0.92697,0.066517,0
3171.2,54.233,16.947,0,-1.0388,0,3214.8,55.252,10.609,3.3037,0.28956,-0.92697,0.066517,0
3171.2,54.233,16.947,0,-1.0388,0,3214.8,55.252,10.609,3.3037,0.28956,-0.92697,0.066517,0
3171.2,54.233,16.947,0,-1.0388,0,3214.8,55.252,10.609,3.3037,0.28956,-0.92697,0.066517,0
3171.9,54.233,16.905,0,-1.0452,0,3214.8,55.252,10.609,3.3037,0.28956,-0.92697,0.067566,0
3171.9,54.233,16.905,0,-1.0452,0,3214.8,55.252,10.609,3.3037,0.28956,-0.92697,0.067566,0
3171.9,54.233,16.905,0,-1.0452,0,3214.8,55.252,10.609,3.3037,0.28956,-0.92697,0.067566,0
3173.3,54.233,16.821,0,-1.056,0,3215.2,55.383,10.622,3.2615,0.33065,-1.073,0.06909,0
3173.6,54.233,16.8,0,-1.0583,0,3215.2,55.383,10.622,3.2615,0.33065,-1.073,0.069648,0
3174.9,54.233,16.715,0,-1.0658,0,3216.7,55.826,10.679,3.0678,0.45746,-1.5836,0.06956,0
3174.9,54.233,16.715,0,-1.0658,0,3217.1,55.947,10.699,2.9995,0.48751,-1.7281,0.068911,0
3174.9,54.233,16.715,0,-1.0658,0,3217.1,55.947,10.699,2.9995,0.48751,-1.7281,0.068911,0
3174.9,54.233,16.715,0,-1.0658,0,3217.1,55.947,10.699,2.9995,0.48751,-1.7281,0.068911,0
3174.9,54.233,16.715,0,-1.0658,0,3217.3,56.006,10.709,2.9631,0.50131,-1.8,0.068593,0
3174.9,54.233,16.715,0,-1.0658,0,3217.3,56.006,10.709,2.9631,0.50131,-1.8,0.068593,0
3174.9,54.233,16.715,0,-1.0658,0,3217.3,56.006,10.709,2.9631,0.50131,-1.8,0.068593,0
3174.9,54.233,16.715,0,-1.0658,0,3217.3,56.006,10.709,2.9631,0.50131,-1.8,0.068593,0
3174.9,54.233,16.715,0,-1.0658,0,3217.3,56.006,10.709,2.9631,0.50131,-1.8,0.068593,0
3174.9,54.233,16.715,0,-1.0658,0,3217.3,56.006,10.709,2.9631,0.50131,-1.8,0.068593,0
3174.9,54.233,16.715,0,-1.0658,0,3217.3,56.006,10.709,2.9631,0.50131,-1.8,0.068593,0
3174.9,54.233,16.715,0,-1.0658,0,3217.3,56.006,10.709,2.9631,0.50131,-1.8,0.068593,0
3174.9,54.233,16.715,0,-1.0658,0,3217.3,56.006,10.709,2.9631,0.50131,-1.8,0.068593,0
3175.9,54.233,16.651,0,-1.0697,0,3217.3,56.006,10.709,2.9631,0.50131,-1.8,0.070247,0
3175.9,54.233,16.651,0,-1.0697,0,3217.3,56.006,10.709,2.9631,0.50131,-1.8,0.070247,0
3175.9,54.233,16.651,0,-1.0697,0,3217.3,56.006,10.709,2.9631,0.50131,-1.8,0.070247,0
3175.9,54.233,16.651,0,-1.0697,0,3217.3,56.006,10.709,2.9631,0.50131,-1.8,0.070247,0
3175.9,54.233,16.651,0,-1.0697,0,3217.3,56.006,10.709,2.9631,0.50131,-1.8,0.070247,0
3175.9,54.233,16.651,0,-1.0697,0,3217.3,56.006,10.709,2.9631,0.50131,-1.8,0.070247,0
3175.9,54.233,16.651,0,-1.0697,0,3217.3,56.006,10.709,2.9631,0.50131,-1.8,0.070247,0
3176.3,54.233,16.629,0,-1.0707,0,3217.3,56.006,10.709,2.9631,0.50131,-1.8,0.070814,0
3176.3,54.233,16.629,0,-1.0707,0,3217.3,56.006,10.709,2.9631,0.50131,-1.8,0.070814,0
3176.3,54.233,16.629,0,-1.0707,0,3217.3,56.006,10.709,2.9631,0.50131,-1.8,0.070814,0
3177.6,54.233,16.543,0,-1.073,0,3218,56.18,10.741,2.8455,0.53738,-2.0131,0.072101,0
3177.6,54.233,16.543,0,-1.073,0,3218,56.18,10.741,2.8455,0.53738,-2.0131,0.072101,0
3178.9,54.233,16.458,0,-1.0726,0,3218.8,56.4,10.786,2.6692,0.57183,-2.2898,0.07306,0
3178.9,54.233,16.458,0,-1.0726,0,3218.8,56.4,10.786,2.6692,0.57183,-2.2898,0.07306,0
3178.9,54.233,16.458,0,-1.0726,0,3218.8,56.4,10.786,2.6692,0.57183,-2.2898,0.07306,0
3178.9,54.233,16.458,0,-1.0726,0,3219.7,56.605,10.833,2.4715,0.58908,-2.5542,0.071655,0
3178.9,54.233,16.458,0,-1.0726,0,3219.9,56.653,10.845,2.4188,0.59055,-2.6179,0.071313,0
3178.9,54.233,16.458,0,-1.0726,0,3219.9,56.653,10.845,2.4188,0.59055,-2.6179,0.071313,0
3178.9,54.233,16.458,0,-1.0726,0,3219.9,56.653,10.845,2.4188,0.59055,-2.6179,0.071313,0
3179.9,54.233,16.393,0,-1.0707,0,3219.9,56.653,10.845,2.4188,0.59055,-2.6179,0.073059,0
3179.9,54.233,16.393,0,-1.0707,0,3219.9,56.653,10.845,2.4188,0.59055,-2.6179,0.073059,0
3180.2,54.233,16.372,0,-1.0698,0,3219.9,56.653,10.845,2.4188,0.59055,-2.6179,0.073658,0
3180.2,54.233,16.372,0,-1.0698,0,3219.9,56.653,10.845,2.4188,0.59055,-2.6179,0.073658,0
3180.2,54.233,16.372,0,-1.0698,0,3219.9,56.653,10.845,2.4188,0.59055,-2.6179,0.073658,0
3180.2,54.233,16.372,0,-1.0698,0,3220.6,56.793,10.88,2.2534,0.58792,-2.8023,0.07258,0
3180.2,54.233,16.372,0,-1.0698,0,3220.6,56.793,10.88,2.2534,0.58792,-2.8023,0.07258,0
3180.2,54.233,16.372,0,-1.0698,0,3220.8,56.837,10.892,2.1959,0.58468,-2.8612,0.072227,0
3180.2,54.233,16.372,0,-1.0698,0,3221,56.88,10.904,2.1373,0.58025,-2.9188,0.071878,0
3180.2,54.233,16.372,0,-1.0698,0,3221,56.88,10.904,2.1373,0.58025,-2.9188,0.071878,0
3181.9,54.233,16.265,0,-1.0631,0,3221.2,56.922,10.915,2.0775,0.57465,-2.975,0.074476,0
3182.2,54.233,16.244,0,-1.0614,0,3221.2,56.922,10.915,2.0775,0.57465,-2.975,0.075091,0
3182.2,54.233,16.244,0,-1.0614,0,3221.2,56.922,10.915,2.0775,0.57465,-2.975,0.075091,0
3182.2,54.233,16.244,0,-1.0614,0,3221.2,56.922,10.915,2.0775,0.57465,-2.975,0.075091,0
3182.2,54.233,16.244,0,-1.0614,0,3221.2,56.922,10.915,2.0775,0.57465,-2.975,0.075091,0
3182.2,54.233,16.244,0,-1.0614,0,3221.2,56.922,10.915,2.0775,0.57465,-2.975,0.075091,0
3182.2,54.233,16.244,0,-1.0614,0,3221.2,56.922,10.915,2.0775,0.57465,-2.975,0.075091,0
3182.2,54.233,16.244,0,-1.0614,0,3221.2,56.922,10.915,2.0775,0.57465,-2.975,0.075091,0
3182.2,54.233,16.244,0,-1.0614,0,3221.2,56.922,10.915,2.0775,0.57465,-2.975,0.075091,0
3182.5,54.233,16.223,0,-1.0595,0,3221.2,56.922,10.915,2.0775,0.57465,-2.975,0.075716,0
3182.5,54.233,16.223,0,-1.0595,0,3221.2,56.922,10.915,2.0775,0.57465,-2.975,0.075716,0
3182.5,54.233,16.223,0,-1.0595,0,3221.2,56.922,10.915,2.0775,0.57465,-2.975,0.075716,0
3182.5,54.233,16.223,0,-1.0595,0,3221.2,56.922,10.915,2.0775,0.57465,-2.975,0.075716,0
3182.5,54.233,16.223,0,-1.0595,0,3221.2,56.922,10.915,2.0775,0.57465,-2.975,0.075716,0
3182.5,54.233,16.223,0,-1.0595,0,3221.2,56.922,10.915,2.0775,0.57465,-2.975,0.075716,0
3182.5,54.233,16.223,0,-1.0595,0,3221.2,56.922,10.915,2.0775,0.57465,-2.975,0.075716,0
3182.5,54.233,16.223,0,-1.0595,0,3222.1,57.077,10.96,1.8279,0.54058,-3.1842,0.074188,0
3182.5,54.233,16.223,0,-1.0595,0,3222.1,57.077,10.96,1.8279,0.54058,-3.1842,0.074188,0
3182.5,54.233,16.223,0,-1.0595,0,3222.1,57.077,10.96,1.8279,0.54058,-3.1842,0.074188,0
3182.5,54.233,16.223,0,-1.0595,0,3222.1,57.077,10.96,1.8279,0.54058,-3.1842,0.074188,0
3182.5,54.233,16.223,0,-1.0595,0,3222.1,57.077,10.96,1.8279,0.54058,-3.1842,0.074188,0
3183.8,54.233,16.138,0,-1.051,0,3222.3,57.113,10.97,1.7632,0.52797,-3.2244,0.076274,0
3184.5,54.233,16.096,0,-1.0462,0,3223,57.212,11,1.5679,0.47334,-3.2519,0.076335,0
3185.4,54.233,16.034,0,-1.0386,0,3223.7,57.299,11.026,1.3761,0.40469,-3.1682,0.077011,0
3185.4,54.233,16.034,0,-1.0386,0,3224.3,57.375,11.047,1.1931,0.33286,-3.0053,0.075775,0
3185.4,54.233,16.034,0,-1.0386,0,3224.3,57.375,11.047,1.1931,0.33286,-3.0053,0.075775,0
3185.4,54.233,16.034,0,-1.0386,0,3224.3,57.375,11.047,1.1931,0.33286,-3.0053,0.075775,0
3185.4,54.233,16.034,0,-1.0386,0,3224.3,57.375,11.047,1.1931,0.33286,-3.0053,0.075775,0
3185.4,54.233,16.034,0,-1.0386,0,3224.3,57.375,11.047,1.1931,0.33286,-3.0053,0.075775,0
3185.4,54.233,16.034,0,-1.0386,0,3224.3,57.375,11.047,1.1931,0.33286,-3.0053,0.075775,0
3185.4,54.233,16.034,0,-1.0386,0,3224.3,57.375,11.047,1.1931,0.33286,-3.0053,0.075775,0
3185.4,54.233,16.034,0,-1.0386,0,3224.3,57.375,11.047,1.1931,0.33286,-3.0053,0.075775,0
3185.4,54.233,16.034,0,-1.0386,0,3224.3,57.375,11.047,1.1931,0.33286,-3.0053,0.075775,0
3186.4,54.233,15.972,0,-1.0309,0,3224.3,57.375,11.047,1.1931,0.33286,-3.0053,0.077673,0
3186.4,54.233,15.972,0,-1.0309,0,3224.3,57.375,11.047,1.1931,0.33286,-3.0053,0.077673,0
3186.4,54.233,15.972,0,-1.0309,0,3224.3,57.375,11.047,1.1931,0.33286,-3.0053,0.077673,0
3186.4,54.233,15.972,0,-1.0309,0,3224.3,57.375,11.047,1.1931,0.33286,-3.0053,0.077673,0
3186.4,54.233,15.972,0,-1.0309,0,3224.3,57.375,11.047,1.1931,0.33286,-3.0053,0.077673,0
3186.4,54.233,15.972,0,-1.0309,0,3224.3,57.375,11.047,1.1931,0.33286,-3.0053,0.077673,0
3186.4,54.233,15.972,0,-1.0309,0,3224.3,57.375,11.047,1.1931,0.33286,-3.0053,0.077673,0
3186.4,54.233,15.972,0,-1.0309,0,3224.3,57.375,11.047,1.1931,0.33286,-3.0053,0.077673,0
3186.4,54.233,15.972,0,-1.0309,0,3224.3,57.375,11.047,1.1931,0.33286,-3.0053,0.077673,0
3186.4,54.233,15.972,0,-1.0309,0,3224.3,57.375,11.047,1.1931,0.33286,-3.0053,0.077673,0
3186.4,54.233,15.972,0,-1.0309,0,3224.8,57.42,11.059,1.0777,0.28681,-2.866,0.076821,0
3186.4,54.233,15.972,0,-1.0309,0,3224.8,57.42,11.059,1.0777,0.28681,-2.866,0.076821,0
3186.4,54.233,15.972,0,-1.0309,0,3224.8,57.42,11.059,1.0777,0.28681,-2.866,0.076821,0
3188,54.233,15.869,0,-1.0184,0,3225,57.441,11.064,1.0223,0.26486,-2.7897,0.07965,0
3188.9,54.233,15.808,0,-1.0114,0,3225.9,57.513,11.081,0.81726,0.18664,-2.4563,0.079833,0
3188.9,54.233,15.808,0,-1.0114,0,3225.9,57.513,11.081,0.81726,0.18664,-2.4563,0.079833,0
3188.9,54.233,15.808,0,-1.0114,0,3226.7,57.57,11.093,0.64008,0.12546,-2.1048,0.078013,0
3188.9,54.233,15.808,0,-1.0114,0,3227,57.582,11.095,0.60018,0.11281,-2.0173,0.077568,0
3188.9,54.233,15.808,0,-1.0114,0,3227,57.582,11.095,0.60018,0.11281,-2.0173,0.077568,0
3188.9,54.233,15.808,0,-1.0114,0,3227.2,57.594,11.097,0.562,0.10115,-1.9308,0.077128,0
3188.9,54.233,15.808,0,-1.0114,0,3227.2,57.594,11.097,0.562,0.10115,-1.9308,0.077128,0
3188.9,54.233,15.808,0,-1.0114,0,3227.2,57.594,11.097,0.562,0.10115,-1.9308,0.077128,0
3188.9,54.233,15.808,0,-1.0114,0,3227.2,57.594,11.097,0.562,0.10115,-1.9308,0.077128,0
3188.9,54.233,15.808,0,-1.0114,0,3227.2,57.594,11.097,0.562,0.10115,-1.9308,0.077128,0
3188.9,54.233,15.808,0,-1.0114,0,3227.2,57.594,11.097,0.562,0.10115,-1.9308,0.077128,0
3190.5,54.233,15.708,0,-1.0007,0,3227.2,57.594,11.097,0.562,0.10115,-1.9308,0.080399,0
3190.5,54.233,15.708,0,-1.0007,0,3227.2,57.594,11.097,0.562,0.10115,-1.9308,0.080399,0
3190.5,54.233,15.708,0,-1.0007,0,3227.2,57.594,11.097,0.562,0.10115,-1.9308,0.080399,0
3190.5,54.233,15.708,0,-1.0007,0,3227.2,57.594,11.097,0.562,0.10115,-1.9308,0.080399,0
3190.5,54.233,15.708,0,-1.0007,0,3227.2,57.594,11.097,0.562,0.10115,-1.9308,0.080399,0
3190.5,54.233,15.708,0,-1.0007,0,3227.2,57.594,11.097,0.562,0.10115,-1.9308,0.080399,0
3190.5,54.233,15.708,0,-1.0007,0,3227.2,57.594,11.097,0.562,0.10115,-1.9308,0.080399,0
3190.5,54.233,15.708,0,-1.0007,0,3227.2,57.594,11.097,0.562,0.10115,-1.9308,0.080399,0
3190.5,54.233,15.708,0,-1.0007,0,3227.2,57.594,11.097,0.562,0.10115,-1.9308,0.080399,0
3190.5,54.233,15.708,0,-1.0007,0,3227.2,57.594,11.097,0.562,0.10115,-1.9308,0.080399,0
3190.5,54.233,15.708,0,-1.0007,0,3227.6,57.614,11.1,0.49072,0.080659,-1.7612,0.079457,0
3190.5,54.233,15.708,0,-1.0007,0,3227.6,57.614,11.1,0.49072,0.080659,-1.7612,0.079457,0
3190.5,54.233,15.708,0,-1.0007,0,3227.6,57.614,11.1,0.49072,0.080659,-1.7612,0.079457,0
3190.5,54.233,15.708,0,-1.0007,0,3227.6,57.614,11.1,0.49072,0.080659,-1.7612,0.079457,0
3191.8,54.233,15.841,0,2.0357,0,3227.9,57.624,11.102,0.45756,0.07173,-1.6787,0.081716,0
3191.8,54.233,15.841,0,2.0357,0,3227.9,57.624,11.102,0.45756,0.07173,-1.6787,0.081716,0
3193,54.233,16.002,0,1.9736,0,3228.5,57.648,11.105,0.36758,0.049608,-1.4421,0.0831,0
3193.7,54.233,16.08,0,1.9425,0,3229.4,57.673,11.108,0.26815,0.029128,-1.1567,0.082538,0
3193.7,54.233,16.08,0,1.9425,0,3229.9,57.682,11.109,0.22642,0.021905,-1.028,0.081539,0
3193.7,54.233,16.08,0,1.9425,0,3229.9,57.682,11.109,0.22642,0.021905,-1.028,0.081539,0
3193.7,54.233,16.08,0,1.9425,0,3230.1,57.687,11.109,0.20738,0.0189,-0.96733,0.081048,0
3193.7,54.233,16.08,0,1.9425,0,3230.1,57.687,11.109,0.20738,0.0189,-0.96733,0.081048,0
3193.7,54.233,16.08,0,1.9425,0,3230.1,57.687,11.109,0.20738,0.0189,-0.96733,0.081048,0
3193.7,54.233,16.08,0,1.9425,0,3230.1,57.687,11.109,0.20738,0.0189,-0.96733,0.081048,0
3193.7,54.233,16.08,0,1.9425,0,3230.1,57.687,11.109,0.20738,0.0189,-0.96733,0.081048,0
3193.7,54.233,16.08,0,1.9425,0,3230.1,57.687,11.109,0.20738,0.0189,-0.96733,0.081048,0
3194.6,54.233,16.195,0,1.896,0,3230.1,57.687,11.109,0.20738,0.0189,-0.96733,0.083231,0
3194.6,54.233,16.195,0,1.896,0,3230.1,57.687,11.109,0.20738,0.0189,-0.96733,0.083231,0
3194.6,54.233,16.195,0,1.896,0,3230.1,57.687,11.109,0.20738,0.0189,-0.96733,0.083231,0
3194.6,54.233,16.195,0,1.896,0,3230.1,57.687,11.109,0.20738,0.0189,-0.96733,0.083231,0
3194.6,54.233,16.195,0,1.896,0,3230.1,57.687,11.109,0.20738,0.0189,-0.96733,0.083231,0
3194.6,54.233,16.195,0,1.896,0,3230.1,57.687,11.109,0.20738,0.0189,-0.96733,0.083231,0
3194.6,54.233,16.195,0,1.896,0,3230.1,57.687,11.109,0.20738,0.0189,-0.96733,0.083231,0
3194.6,54.233,16.195,0,1.896,0,3230.1,57.687,11.109,0.20738,0.0189,-0.96733,0.083231,0
3194.6,54.233,16.195,0,1.896,0,3230.1,57.687,11.109,0.20738,0.0189,-0.96733,0.083231,0
3194.6,54.233,16.195,0,1.896,0,3230.1,57.687,11.109,0.20738,0.0189,-0.96733,0.083231,0
3194.6,54.233,16.195,0,1.896,0,3230.5,57.694,11.11,0.17271,0.013917,-0.8531,0.082215,0
3194.6,54.233,16.195,0,1.896,0,3230.5,57.694,11.11,0.17271,0.013917,-0.8531,0.082215,0
3195.9,54.233,16.344,0,1.8342,0,3230.7,57.697,11.11,0.15699,0.011874,-0.79956,0.084726,0
3196.6,54.233,16.417,0,1.8035,0,3231.4,57.705,11.111,0.11572,0.0071833,-0.65285,0.084698,0
3197.9,54.233,16.559,0,1.7423,0,3232.3,57.713,11.111,0.072777,0.0034113,-0.48807,0.08574,0
3197.9,54.233,16.559,0,1.7423,0,3232.3,57.713,11.111,0.072777,0.0034113,-0.48807,0.08574,0
3197.9,54.233,16.559,0,1.7423,0,3232.3,57.713,11.111,0.072777,0.0034113,-0.48807,0.08574,0
3197.9,54.233,16.559,0,1.7423,0,3232.3,57.713,11.111,0.072777,0.0034113,-0.48807,0.08574,0
3197.9,54.233,16.559,0,1.7423,0,3232.3,57.713,11.111,0.072777,0.0034113,-0.48807,0.08574,0
3197.9,54.233,16.559,0,1.7423,0,3232.3,57.713,11.111,0.072777,0.0034113,-0.48807,0.08574,0
3197.9,54.233,16.559,0,1.7423,0,3232.3,57.713,11.111,0.072777,0.0034113,-0.48807,0.08574,0
3197.9,54.233,16.559,0,1.7423,0,3232.3,57.713,11.111,0.072777,0.0034113,-0.48807,0.08574,0
3197.9,54.233,16.559,0,1.7423,0,3232.7,57.715,11.111,0.055733,0.0022535,-0.41792,0.084662,0
3197.9,54.233,16.559,0,1.7423,0,3232.7,57.715,11.111,0.055733,0.0022535,-0.41792,0.084662,0
3197.9,54.233,16.559,0,1.7423,0,3232.7,57.715,11.111,0.055733,0.0022535,-0.41792,0.084662,0
3197.9,54.233,16.559,0,1.7423,0,3232.7,57.715,11.111,0.055733,0.0022535,-0.41792,0.084662,0
3197.9,54.233,16.559,0,1.7423,0,3232.7,57.715,11.111,0.055733,0.0022535,-0.41792,0.084662,0
3197.9,54.233,16.559,0,1.7423,0,3232.7,57.715,11.111,0.055733,0.0022535,-0.41792,0.084662,0
3197.9,54.233,16.559,0,1.7423,0,3232.7,57.715,11.111,0.055733,0.0022535,-0.41792,0.084662,0
3197.9,54.233,16.559,0,1.7423,0,3232.7,57.715,11.111,0.055733,0.0022535,-0.41792,0.084662,0
3197.9,54.233,16.559,0,1.7423,0,3232.7,57.715,11.111,0.055733,0.0022535,-0.41792,0.084662,0
3198.6,54.233,16.628,0,1.712,0,3232.7,57.715,11.111,0.055733,0.0022535,-0.41792,0.086281,0
3198.6,54.233,16.628,0,1.712,0,3232.7,57.715,11.111,0.055733,0.0022535,-0.41792,0.086281,0
3198.6,54.233,16.628,0,1.712,0,3232.7,57.715,11.111,0.055733,0.0022535,-0.41792,0.086281,0
3198.9,54.233,16.662,0,1.6968,0,3232.7,57.715,11.111,0.055733,0.0022535,-0.41792,0.087116,0
3198.9,54.233,16.662,0,1.6968,0,3233.6,57.718,11.111,0.02899,0.00086249,-0.2996,0.08492,0
3198.9,54.233,16.662,0,1.6968,0,3233.6,57.718,11.111,0.02899,0.00086249,-0.2996,0.08492,0
3201.3,54.233,16.892,0,1.5922,0,3234.1,57.719,11.111,0.018748,0.00047891,-0.25039,0.089765,0
3201.6,54.233,16.924,0,1.5774,0,3234.1,57.719,11.111,0.018748,0.00047891,-0.25039,0.090683,0
3201.6,54.233,16.924,0,1.5774,0,3234.1,57.719,11.111,0.018748,0.00047891,-0.25039,0.090683,0
3201.9,54.233,16.955,0,1.5627,0,3234.1,57.719,11.111,0.018748,0.00047891,-0.25039,0.091622,0
3202.3,54.233,16.986,0,1.5481,0,3234.1,57.719,11.111,0.018748,0.00047891,-0.25039,0.092582,0
3202.3,54.233,16.986,0,1.5481,0,3234.1,57.719,11.111,0.018748,0.00047891,-0.25039,0.092582,0
3202.3,54.233,16.986,0,1.5481,0,3234.1,57.719,11.111,0.018748,0.00047891,-0.25039,0.092582,0
3202.3,54.233,16.986,0,1.5481,0,3234.1,57.719,11.111,0.018748,0.00047891,-0.25039,0.092582,0
3202.3,54.233,16.986,0,1.5481,0,3234.1,57.719,11.111,0.018748,0.00047891,-0.25039,0.092582,0
3202.3,54.233,16.986,0,1.5481,0,3234.1,57.719,11.111,0.018748,0.00047891,-0.25039,0.092582,0
3202.3,54.233,16.986,0,1.5481,0,3234.1,57.719,11.111,0.018748,0.00047891,-0.25039,0.092582,0
3202.3,54.233,16.986,0,1.5481,0,3234.1,57.719,11.111,0.018748,0.00047891,-0.25039,0.092582,0
3202.3,54.233,16.986,0,1.5481,0,3234.1,57.719,11.111,0.018748,0.00047891,-0.25039,0.092582,0
3202.3,54.233,16.986,0,1.5481,0,3234.1,57.719,11.111,0.018748,0.00047891,-0.25039,0.092582,0
3202.3,54.233,16.986,0,1.5481,0,3235.6,57.72,11.111,-0.0046373,-3.7437e-05,-0.12157,0.088338,0
3202.3,54.233,16.986,0,1.5481,0,3235.6,57.72,11.111,-0.0046373,-3.7437e-05,-0.12157,0.088338,0
3202.3,54.233,16.986,0,1.5481,0,3235.6,57.72,11.111,-0.0046373,-3.7437e-05,-0.12157,0.088338,0
3202.3,54.233,16.986,0,1.5481,0,3235.6,57.72,11.111,-0.0046373,-3.7437e-05,-0.12157,0.088338,0
3202.3,54.233,16.986,0,1.5481,0,3235.6,57.72,11.111,-0.0046373,-3.7437e-05,-0.12157,0.088338,0
3202.3,54.233,16.986,0,1.5481,0,3235.6,57.72,11.111,-0.0046373,-3.7437e-05,-0.12157,0.088338,0
3202.3,54.233,16.986,0,1.5481,0,3235.6,57.72,11.111,-0.0046373,-3.7437e-05,-0.12157,0.088338,0
3203,54.233,17.048,0,1.519,0,3235.6,57.72,11.111,-0.0046373,-3.7437e-05,-0.12157,0.090147,0
3203,54.233,17.048,0,1.519,0,3235.6,57.72,11.111,-0.0046373,-3.7437e-05,-0.12157,0.090147,0
3203,54.233,17.048,0,1.519,0,3235.6,57.72,11.111,-0.0046373,-3.7437e-05,-0.12157,0.090147,0
3203.3,54.233,17.078,0,1.5045,0,3235.6,57.72,11.111,-0.0046373,-3.7437e-05,-0.12157,0.091081,0
3204.7,54.233,17.196,0,1.4472,0,3236.5,57.719,11.111,-0.011568,-7.0813e-05,-0.072568,0.092435,0
3205.7,54.233,17.282,0,1.405,0,3237.2,57.718,11.111,-0.014643,-5.7367e-05,-0.044906,0.093495,0
3206.4,54.233,17.337,0,1.3771,0,3237.9,57.717,11.111,-0.016352,-3.4274e-05,-0.02363,0.09357,0
3206.4,54.233,17.337,0,1.3771,0,3237.9,57.717,11.111,-0.016352,-3.4274e-05,-0.02363,0.09357,0
3206.4,54.233,17.337,0,1.3771,0,3237.9,57.717,11.111,-0.016352,-3.4274e-05,-0.02363,0.09357,0
3206.4,54.233,17.337,0,1.3771,0,3237.9,57.717,11.111,-0.016352,-3.4274e-05,-0.02363,0.09357,0
3206.4,54.233,17.337,0,1.3771,0,3237.9,57.717,11.111,-0.016352,-3.4274e-05,-0.02363,0.09357,0
3206.4,54.233,17.337,0,1.3771,0,3237.9,57.717,11.111,-0.016352,-3.4274e-05,-0.02363,0.09357,0
3206.4,54.233,17.337,0,1.3771,0,3237.9,57.717,11.111,-0.016352,-3.4274e-05,-0.02363,0.09357,0
3206.4,54.233,17.337,0,1.3771,0,3237.9,57.717,11.111,-0.016352,-3.4274e-05,-0.02363,0.09357,0
3206.4,54.233,17.337,0,1.3771,0,3238.3,57.717,11.111,-0.016899,-1.8782e-05,-0.012441,0.092291,0
3206.4,54.233,17.337,0,1.3771,0,3238.3,57.717,11.111,-0.016899,-1.8782e-05,-0.012441,0.092291,0
3206.4,54.233,17.337,0,1.3771,0,3238.3,57.717,11.111,-0.016899,-1.8782e-05,-0.012441,0.092291,0
3206.4,54.233,17.337,0,1.3771,0,3238.3,57.717,11.111,-0.016899,-1.8782e-05,-0.012441,0.092291,0
3206.4,54.233,17.337,0,1.3771,0,3238.3,57.717,11.111,-0.016899,-1.8782e-05,-0.012441,0.092291,0
3206.4,54.233,17.337,0,1.3771,0,3238.3,57.717,11.111,-0.016899,-1.8782e-05,-0.012441,0.092291,0
3206.4,54.233,17.337,0,1.3771,0,3238.3,57.717,11.111,-0.016899,-1.8782e-05,-0.012441,0.092291,0
3206.4,54.233,17.337,0,1.3771,0,3238.3,57.717,11.111,-0.016899,-1.8782e-05,-0.012441,0.092291,0
3206.4,54.233,17.337,0,1.3771,0,3238.3,57.717,11.111,-0.016899,-1.8782e-05,-0.012441,0.092291,0
3207.1,54.233,17.392,0,1.3496,0,3238.3,57.717,11.111,-0.016899,-1.8782e-05,-0.012441,0.094306,0
3207.1,54.233,17.392,0,1.3496,0,3238.3,57.717,11.111,-0.016899,-1.8782e-05,-0.012441,0.094306,0
3207.1,54.233,17.392,0,1.3496,0,3238.3,57.717,11.111,-0.016899,-1.8782e-05,-0.012441,0.094306,0
3207.4,54.233,17.419,0,1.3359,0,3238.3,57.717,11.111,-0.016899,-1.8782e-05,-0.012441,0.095349,0
3207.4,54.233,17.419,0,1.3359,0,3239.2,57.715,11.111,-0.01694,6.2064e-06,0.0040611,0.09273,0
3207.4,54.233,17.419,0,1.3359,0,3239.2,57.715,11.111,-0.01694,6.2064e-06,0.0040611,0.09273,0
3209.9,54.233,17.599,0,1.2391,0,3239.6,57.715,11.111,-0.016569,1.4824e-05,0.0098818,0.098861,0
3210.2,54.233,17.624,0,1.2243,0,3239.6,57.715,11.111,-0.016569,1.4824e-05,0.0098818,0.10002,0
3210.6,54.233,17.648,0,1.2097,0,3239.6,57.715,11.111,-0.016569,1.4824e-05,0.0098818,0.10121,0
3210.6,54.233,17.648,0,1.2097,0,3239.6,57.715,11.111,-0.016569,1.4824e-05,0.0098818,0.10121,0
3210.6,54.233,17.648,0,1.2097,0,3239.6,57.715,11.111,-0.016569,1.4824e-05,0.0098818,0.10121,0
3210.6,54.233,17.648,0,1.2097,0,3241,57.713,11.111,-0.014519,2.6718e-05,0.020167,0.096858,0
3210.6,54.233,17.648,0,1.2097,0,3241,57.713,11.111,-0.014519,2.6718e-05,0.020167,0.096858,0
3210.6,54.233,17.648,0,1.2097,0,3241,57.713,11.111,-0.014519,2.6718e-05,0.020167,0.096858,0
3210.6,54.233,17.648,0,1.2097,0,3241,57.713,11.111,-0.014519,2.6718e-05,0.020167,0.096858,0
3210.6,54.233,17.648,0,1.2097,0,3241,57.713,11.111,-0.014519,2.6718e-05,0.020167,0.096858,0
3210.6,54.233,17.648,0,1.2097,0,3241,57.713,11.111,-0.014519,2.6718e-05,0.020167,0.096858,0
3210.6,54.233,17.648,0,1.2097,0,3241,57.713,11.111,-0.014519,2.6718e-05,0.020167,0.096858,0
3210.6,54.233,17.648,0,1.2097,0,3241,57.713,11.111,-0.014519,2.6718e-05,0.020167,0.096858,0
3210.6,54.233,17.648,0,1.2097,0,3241,57.713,11.111,-0.014519,2.6718e-05,0.020167,0.096858,0
3211.3,54.233,17.696,0,1.1808,0,3241,57.713,11.111,-0.014519,2.6718e-05,0.020167,0.099118,0
3211.3,54.233,17.696,0,1.1808,0,3241,57.713,11.111,-0.014519,2.6718e-05,0.020167,0.099118,0
3211.3,54.233,17.696,0,1.1808,0,3241,57.713,11.111,-0.014519,2.6718e-05,0.020167,0.099118,0
3211.3,54.233,17.696,0,1.1808,0,3241,57.713,11.111,-0.014519,2.6718e-05,0.020167,0.099118,0
3211.7,54.233,17.719,0,1.1666,0,3241,57.713,11.111,-0.014519,2.6718e-05,0.020167,0.10029,0
3211.7,54.233,17.719,0,1.1666,0,3241,57.713,11.111,-0.014519,2.6718e-05,0.020167,0.10029,0
3211.7,54.233,17.719,0,1.1666,0,3241,57.713,11.111,-0.014519,2.6718e-05,0.020167,0.10029,0
3211.7,54.233,17.719,0,1.1666,0,3241,57.713,11.111,-0.014519,2.6718e-05,0.020167,0.10029,0
3211.7,54.233,17.719,0,1.1666,0,3241,57.713,11.111,-0.014519,2.6718e-05,0.020167,0.10029,0
3211.7,54.233,17.719,0,1.1666,0,3241,57.713,11.111,-0.014519,2.6718e-05,0.020167,0.10029,0
3211.7,54.233,17.719,0,1.1666,0,3241,57.713,11.111,-0.014519,2.6718e-05,0.020167,0.10029,0
3213.1,54.233,17.81,0,1.1115,0,3241.6,57.712,11.111,-0.013204,2.6986e-05,0.022331,0.10288,0
3213.8,54.233,17.854,0,1.0849,0,3242.5,57.711,11.111,-0.011359,2.4159e-05,0.02316,0.10227,0
3213.8,54.233,17.854,0,1.0849,0,3242.5,57.711,11.111,-0.011359,2.4159e-05,0.02316,0.10227,0
3214.5,54.233,17.897,0,1.0589,0,3243,57.711,11.111,-0.010439,2.2017e-05,0.022931,0.10322,0
3214.5,54.233,17.897,0,1.0589,0,3243.6,57.71,11.111,-0.0091016,1.8474e-05,0.02202,0.10091,0
3214.5,54.233,17.897,0,1.0589,0,3243.9,57.71,11.111,-0.0086716,1.7278e-05,0.021601,0.10016,0
3214.5,54.233,17.897,0,1.0589,0,3243.9,57.71,11.111,-0.0086716,1.7278e-05,0.021601,0.10016,0
3214.5,54.233,17.897,0,1.0589,0,3243.9,57.71,11.111,-0.0086716,1.7278e-05,0.021601,0.10016,0
3214.5,54.233,17.897,0,1.0589,0,3244.1,57.71,11.111,-0.0082511,1.6098e-05,0.021136,0.099424,0
3214.5,54.233,17.897,0,1.0589,0,3244.1,57.71,11.111,-0.0082511,1.6098e-05,0.021136,0.099424,0
3214.5,54.233,17.897,0,1.0589,0,3244.1,57.71,11.111,-0.0082511,1.6098e-05,0.021136,0.099424,0
