-1.2798,-3.5183,-9.8482,-14.682,-4.2426,-6.6035,-8.7604,-10.651,2.7133,-2.1696,-4.5465,-6.4128,-6.2893,-5.6547,-13.399,-9.9965
-1.2974,-3.522,-9.8482,-14.682,-4.2217,-6.6139,-8.7693,-10.652,2.4667,-1.6635,-4.5412,-6.4204,-6.3155,-5.6546,-13.405,-10.002
-1.2974,-3.522,-9.8482,-14.682,-4.2217,-6.6139,-8.7693,-10.652,2.4667,-1.6635,-4.5412,-6.4204,-6.3155,-5.6546,-13.405,-10.002
-1.2793,-3.5481,-9.8599,-14.665,-4.2308,-6.6107,-8.7804,-10.654,1.9385,-1.6462,-4.5463,-6.4474,-6.3584,-5.6808,-13.428,-10.004
-1.2793,-3.5481,-9.8599,-14.665,-4.2308,-6.6107,-8.7804,-10.654,1.9385,-1.6462,-4.5463,-6.4474,-6.3584,-5.6808,-13.428,-10.004
-1.2345,-3.5836,-9.8868,-14.655,-4.2435,-6.6121,-8.7863,-10.659,1.6344,-1.7884,-4.541,-6.4723,-6.4137,-5.6888,-13.457,-10.006
-1.2345,-3.5836,-9.8868,-14.655,-4.2435,-6.6121,-8.7863,-10.659,1.6344,-1.7884,-4.541,-6.4723,-6.4137,-5.6888,-13.457,-10.006
-1.2345,-3.5836,-9.8868,-14.655,-4.2435,-6.6121,-8.7863,-10.659,1.6344,-1.7884,-4.541,-6.4723,-6.4137,-5.6888,-13.457,-10.006
-1.2789,-3.5778,-9.9286,-14.653,-4.2688,-6.6151,-8.7923,-10.668,1.3922,-1.8666,-4.5674,-6.4515,-6.4501,-5.6988,-13.488,-10.007
-1.2789,-3.5778,-9.9286,-14.653,-4.2688,-6.6151,-8.7923,-10.668,1.3922,-1.8666,-4.5674,-6.4515,-6.4501,-5.6988,-13.488,-10.007
-1.2789,-3.5778,-9.9286,-14.653,-4.2688,-6.6151,-8.7923,-10.668,1.3922,-1.8666,-4.5674,-6.4515,-6.4501,-5.6988,-13.488,-10.007
-1.5591,-3.5766,-9.9865,-14.773,-4.3546,-6.6292,-8.8498,-10.673,1.2084,-1.8827,-4.6199,-6.4272,-6.3978,-5.7493,-13.535,-10.018
-1.5591,-3.5766,-9.9865,-14.773,-4.3546,-6.6292,-8.8498,-10.673,1.2084,-1.8827,-4.6199,-6.4272,-6.3978,-5.7493,-13.535,-10.018
-1.6714,-3.5856,-9.9782,-14.814,-4.3888,-6.629,-8.8863,-10.677,1.2824,-1.9894,-4.6513,-6.4334,-6.4093,-5.7452,-13.571,-10.028
-1.6714,-3.5856,-9.9782,-14.814,-4.3888,-6.629,-8.8863,-10.677,1.2824,-1.9894,-4.6513,-6.4334,-6.4093,-5.7452,-13.571,-10.028
-1.705,-3.6222,-9.9898,-14.797,-4.4256,-6.6249,-8.9173,-10.685,1.6707,-2.1266,-4.6773,-6.4471,-6.4333,-5.723,-13.611,-10.037
-1.705,-3.6222,-9.9898,-14.797,-4.4256,-6.6249,-8.9173,-10.685,1.6707,-2.1266,-4.6773,-6.4471,-6.4333,-5.723,-13.611,-10.037
-1.7303,-3.6422,-10.051,-14.738,-4.4471,-6.6232,-8.9441,-10.695,2.5401,-2.5137,-4.6929,-6.4588,-6.4604,-5.7089,-13.647,-10.052
-1.7303,-3.6422,-10.051,-14.738,-4.4471,-6.6232,-8.9441,-10.695,2.5401,-2.5137,-4.6929,-6.4588,-6.4604,-5.7089,-13.647,-10.052
-1.7644,-3.6494,-10.089,-14.711,-4.439,-6.6349,-8.9709,-10.706,2.8636,-2.3865,-4.7137,-6.4629,-6.4947,-5.6967,-13.667,-10.073
-1.7644,-3.6494,-10.089,-14.711,-4.439,-6.6349,-8.9709,-10.706,2.8636,-2.3865,-4.7137,-6.4629,-6.4947,-5.6967,-13.667,-10.073
-1.7644,-3.6494,-10.089,-14.711,-4.439,-6.6349,-8.9709,-10.706,2.8636,-2.3865,-4.7137,-6.4629,-6.4947,-5.6967,-13.667,-10.073
-1.8242,-3.6475,-10.169,-14.684,-4.4308,-6.6466,-9.0062,-10.714,2.6992,-1.9988,-4.7448,-6.4691,-6.5123,-5.7088,-13.703,-10.087
-1.8242,-3.6475,-10.169,-14.684,-4.4308,-6.6466,-9.0062,-10.714,2.6992,-1.9988,-4.7448,-6.4691,-6.5123,-5.7088,-13.703,-10.087
-1.8242,-3.6475,-10.169,-14.684,-4.4308,-6.6466,-9.0062,-10.714,2.6992,-1.9988,-4.7448,-6.4691,-6.5123,-5.7088,-13.703,-10.087
-1.7713,-3.7238,-10.201,-14.723,-4.4792,-6.6354,-9.0745,-10.734,2.0334,-1.9294,-4.7652,-6.5246,-6.5677,-5.7529,-13.793,-10.106
-1.7713,-3.7238,-10.201,-14.723,-4.4792,-6.6354,-9.0745,-10.734,2.0334,-1.9294,-4.7652,-6.5246,-6.5677,-5.7529,-13.793,-10.106
-1.7971,-3.7147,-10.23,-14.738,-4.5007,-6.6338,-9.1021,-10.746,1.7666,-1.8352,-4.786,-6.5115,-6.5965,-5.7608,-13.833,-10.117
-1.7971,-3.7147,-10.23,-14.738,-4.5007,-6.6338,-9.1021,-10.746,1.7666,-1.8352,-4.786,-6.5115,-6.5965,-5.7608,-13.833,-10.117
-1.7971,-3.7147,-10.23,-14.738,-4.5007,-6.6338,-9.1021,-10.746,1.7666,-1.8352,-4.786,-6.5115,-6.5965,-5.7608,-13.833,-10.117
-1.8404,-3.6802,-10.245,-14.745,-4.5096,-6.6306,-9.1262,-10.752,1.6907,-1.7257,-4.8379,-6.4875,-6.6109,-5.7648,-13.868,-10.13
-1.8404,-3.6802,-10.245,-14.745,-4.5096,-6.6306,-9.1262,-10.752,1.6907,-1.7257,-4.8379,-6.4875,-6.6109,-5.7648,-13.868,-10.13
-1.9848,-3.6675,-10.24,-14.81,-4.5408,-6.6343,-9.1631,-10.758,1.6142,-1.6154,-4.8534,-6.482,-6.5685,-5.7888,-13.9,-10.142
-2.0604,-3.6694,-10.179,-14.869,-4.5532,-6.6358,-9.1967,-10.764,1.482,-1.5687,-4.8687,-6.4937,-6.5644,-5.7948,-13.937,-10.155
-2.1183,-3.6966,-10.254,-14.817,-4.5675,-6.6249,-9.2271,-10.772,1.6907,-1.7257,-4.9046,-6.5094,-6.5912,-5.7808,-13.979,-10.171
-2.1183,-3.6966,-10.254,-14.817,-4.5675,-6.6249,-9.2271,-10.772,1.6907,-1.7257,-4.9046,-6.5094,-6.5912,-5.7808,-13.979,-10.171
-2.1183,-3.6966,-10.254,-14.817,-4.5675,-6.6249,-9.2271,-10.772,1.6907,-1.7257,-4.9046,-6.5094,-6.5912,-5.7808,-13.979,-10.171
-2.1183,-3.6966,-10.254,-14.817,-4.5675,-6.6249,-9.2271,-10.772,1.6907,-1.7257,-4.9046,-6.5094,-6.5912,-5.7808,-13.979,-10.171
-2.1932,-3.6986,-10.28,-14.808,-4.5462,-6.6265,-9.2565,-10.781,1.8237,-1.7727,-4.9455,-6.5176,-6.6282,-5.7768,-14.011,-10.19
-2.1932,-3.6986,-10.28,-14.808,-4.5462,-6.6265,-9.2565,-10.781,1.8237,-1.7727,-4.9455,-6.5176,-6.6282,-5.7768,-14.011,-10.19
-2.2756,-3.7167,-10.347,-14.797,-4.5186,-6.6274,-9.2932,-10.79,1.6703,-1.5514,-4.9863,-6.5258,-6.6313,-5.7847,-14.039,-10.212
-2.2756,-3.7167,-10.347,-14.797,-4.5186,-6.6274,-9.2932,-10.79,1.6703,-1.5514,-4.9863,-6.5258,-6.6313,-5.7847,-14.039,-10.212
-2.3162,-3.7401,-10.388,-14.795,-4.5107,-6.6096,-9.3247,-10.803,1.3504,-1.5222,-5.0269,-6.5509,-6.6671,-5.7946,-14.089,-10.226
-2.2989,-3.7651,-10.376,-14.812,-4.511,-6.5799,-9.3581,-10.812,1.2084,-1.8827,-5.0671,-6.5929,-6.7211,-5.8025,-14.144,-10.242
-2.1978,-3.8289,-10.365,-14.828,-4.5094,-6.5627,-9.3892,-10.822,0.8476,-1.9157,-5.0972,-6.6158,-6.7608,-5.8065,-14.191,-10.259
-2.1978,-3.8289,-10.365,-14.828,-4.5094,-6.5627,-9.3892,-10.822,0.8476,-1.9157,-5.0972,-6.6158,-6.7608,-5.8065,-14.191,-10.259
-2.1978,-3.8289,-10.365,-14.828,-4.5094,-6.5627,-9.3892,-10.822,0.8476,-1.9157,-5.0972,-6.6158,-6.7608,-5.8065,-14.191,-10.259
-2.1978,-3.8289,-10.365,-14.828,-4.5094,-6.5627,-9.3892,-10.822,0.8476,-1.9157,-5.0972,-6.6158,-6.7608,-5.8065,-14.191,-10.259
-2.1806,-3.8537,-10.391,-14.819,-4.5148,-6.5549,-9.4131,-10.835,1.0467,-2.0655,-5.1275,-6.6219,-6.775,-5.8105,-14.226,-10.277
-2.1806,-3.8537,-10.391,-14.819,-4.5148,-6.5549,-9.4131,-10.835,1.0467,-2.0655,-5.1275,-6.6219,-6.775,-5.8105,-14.226,-10.277
-2.1806,-3.8537,-10.391,-14.819,-4.5148,-6.5549,-9.4131,-10.835,1.0467,-2.0655,-5.1275,-6.6219,-6.775,-5.8105,-14.226,-10.277
-2.1806,-3.8537,-10.391,-14.819,-4.5148,-6.5549,-9.4131,-10.835,1.0467,-2.0655,-5.1275,-6.6219,-6.775,-5.8105,-14.226,-10.277
-2.323,-3.7847,-10.431,-14.817,-4.539,-6.5493,-9.4604,-10.851,1.3008,-2.1553,-5.2438,-6.5864,-6.8134,-5.8283,-14.297,-10.304
-2.323,-3.7847,-10.431,-14.817,-4.539,-6.5493,-9.4604,-10.851,1.3008,-2.1553,-5.2438,-6.5864,-6.8134,-5.8283,-14.297,-10.304
-2.323,-3.7847,-10.431,-14.817,-4.539,-6.5493,-9.4604,-10.851,1.3008,-2.1553,-5.2438,-6.5864,-6.8134,-5.8283,-14.297,-10.304
-2.5446,-3.7625,-10.325,-14.941,-4.5763,-6.5539,-9.5075,-10.848,1.2084,-1.8827,-5.3088,-6.5913,-6.7929,-5.8579,-14.359,-10.316
-2.5446,-3.7625,-10.325,-14.941,-4.5763,-6.5539,-9.5075,-10.848,1.2084,-1.8827,-5.3088,-6.5913,-6.7929,-5.8579,-14.359,-10.316
-2.4466,-3.7691,-10.259,-14.952,-4.5444,-6.5414,-9.4798,-10.84,1.2084,-1.8827,-5.2934,-6.6134,-6.794,-5.8441,-14.365,-10.313
-2.4466,-3.7691,-10.259,-14.952,-4.5444,-6.5414,-9.4798,-10.84,1.2084,-1.8827,-5.2934,-6.6134,-6.794,-5.8441,-14.365,-10.313
-2.2911,-3.749,-10.238,-14.898,-4.4686,-6.5237,-9.4191,-10.826,1.7276,-2.0661,-5.2582,-6.6314,-6.7791,-5.8045,-14.33,-10.297
-2.2911,-3.749,-10.238,-14.898,-4.4686,-6.5237,-9.4191,-10.826,1.7276,-2.0661,-5.2582,-6.6314,-6.7791,-5.8045,-14.33,-10.297
-2.2911,-3.749,-10.238,-14.898,-4.4686,-6.5237,-9.4191,-10.826,1.7276,-2.0661,-5.2582,-6.6314,-6.7791,-5.8045,-14.33,-10.297
-2.0429,-3.6947,-10.225,-14.802,-4.37,-6.4989,-9.3304,-10.812,2.5144,-2.1815,-5.1678,-6.63,-6.7246,-5.7608,-14.238,-10.271
-2.0429,-3.6947,-10.225,-14.802,-4.37,-6.4989,-9.3304,-10.812,2.5144,-2.1815,-5.1678,-6.63,-6.7246,-5.7608,-14.238,-10.271
-2.0429,-3.6947,-10.225,-14.802,-4.37,-6.4989,-9.3304,-10.812,2.5144,-2.1815,-5.1678,-6.63,-6.7246,-5.7608,-14.238,-10.271
-1.5329,-3.5859,-10.051,-14.738,-4.0822,-6.4863,-9.1506,-10.786,2.5272,-1.5994,-4.9603,-6.5801,-6.5393,-5.6947,-13.944,-10.205
-1.5329,-3.5859,-10.051,-14.738,-4.0822,-6.4863,-9.1506,-10.786,2.5272,-1.5994,-4.9603,-6.5801,-6.5393,-5.6947,-13.944,-10.205
-1.3145,-3.5553,-9.9683,-14.742,-3.991,-6.4672,-9.0866,-10.778,2.1123,-1.4528,-4.8423,-6.5823,-6.4543,-5.6928,-13.823,-10.174
-1.3145,-3.5553,-9.9683,-14.742,-3.991,-6.4672,-9.0866,-10.778,2.1123,-1.4528,-4.8423,-6.5823,-6.4543,-5.6928,-13.823,-10.174
-1.3145,-3.5553,-9.9683,-14.742,-3.991,-6.4672,-9.0866,-10.778,2.1123,-1.4528,-4.8423,-6.5823,-6.4543,-5.6928,-13.823,-10.174
-1.1281,-3.562,-9.9234,-14.719,-3.9429,-6.4356,-9.0377,-10.773,1.7472,-1.6624,-4.7287,-6.5942,-6.4022,-5.6929,-13.733,-10.156
-1.1281,-3.562,-9.9234,-14.719,-3.9429,-6.4356,-9.0377,-10.773,1.7472,-1.6624,-4.7287,-6.5942,-6.4022,-5.6929,-13.733,-10.156
-1.1281,-3.562,-9.9234,-14.719,-3.9429,-6.4356,-9.0377,-10.773,1.7472,-1.6624,-4.7287,-6.5942,-6.4022,-5.6929,-13.733,-10.156
-1.1281,-3.562,-9.9234,-14.719,-3.9429,-6.4356,-9.0377,-10.773,1.7472,-1.6624,-4.7287,-6.5942,-6.4022,-5.6929,-13.733,-10.156
-0.9941,-3.5202,-9.9201,-14.695,-3.8871,-6.4248,-8.9683,-10.775,1.8996,-1.8822,-4.6038,-6.536,-6.3322,-5.6809,-13.62,-10.141
-0.9941,-3.5202,-9.9201,-14.695,-3.8871,-6.4248,-8.9683,-10.775,1.8996,-1.8822,-4.6038,-6.536,-6.3322,-5.6809,-13.62,-10.141
-0.9941,-3.5202,-9.9201,-14.695,-3.8871,-6.4248,-8.9683,-10.775,1.8996,-1.8822,-4.6038,-6.536,-6.3322,-5.6809,-13.62,-10.141
-1.1285,-3.5322,-9.93,-14.768,-3.9262,-6.4293,-8.9723,-10.77,1.7098,-1.8972,-4.6196,-6.4962,-6.2554,-5.7034,-13.581,-10.14
-1.1285,-3.5322,-9.93,-14.768,-3.9262,-6.4293,-8.9723,-10.77,1.7098,-1.8972,-4.6196,-6.4962,-6.2554,-5.7034,-13.581,-10.14
-1.1285,-3.5322,-9.93,-14.768,-3.9262,-6.4293,-8.9723,-10.77,1.7098,-1.8972,-4.6196,-6.4962,-6.2554,-5.7034,-13.581,-10.14
-1.155,-3.5526,-9.9416,-14.751,-3.9587,-6.4331,-8.9767,-10.77,2.0334,-1.9294,-4.6091,-6.4941,-6.2565,-5.6893,-13.583,-10.14
-1.155,-3.5526,-9.9416,-14.751,-3.9587,-6.4331,-8.9767,-10.77,2.0334,-1.9294,-4.6091,-6.4941,-6.2565,-5.6893,-13.583,-10.14
-1.1992,-3.5764,-10.01,-14.74,-3.9855,-6.4448,-8.9799,-10.769,2.7887,-2.2784,-4.6144,-6.4866,-6.2839,-5.675,-13.585,-10.141
-1.2436,-3.5706,-10.051,-14.738,-4.0076,-6.4734,-8.9786,-10.764,2.8237,-1.8746,-4.6197,-6.479,-6.2955,-5.6709,-13.574,-10.14
-1.2436,-3.5706,-10.051,-14.738,-4.0076,-6.4734,-8.9786,-10.764,2.8237,-1.8746,-4.6197,-6.479,-6.2955,-5.6709,-13.574,-10.14
-1.3055,-3.5683,-10.096,-14.76,-4.0325,-6.4979,-8.974,-10.76,2.5272,-1.5994,-4.6458,-6.4755,-6.3175,-5.6769,-13.569,-10.125
-1.3055,-3.5683,-10.096,-14.76,-4.0325,-6.4979,-8.974,-10.76,2.5272,-1.5994,-4.6458,-6.4755,-6.3175,-5.6769,-13.569,-10.125
-1.2965,-3.5814,-10.031,-14.795,-4.0555,-6.5048,-8.966,-10.754,2.1321,-1.6303,-4.6301,-6.4982,-6.3542,-5.6869,-13.578,-10.105
-1.2965,-3.5814,-10.031,-14.795,-4.0555,-6.5048,-8.966,-10.754,2.1321,-1.6303,-4.6301,-6.4982,-6.3542,-5.6869,-13.578,-10.105
-1.1808,-3.6321,-10.008,-14.829,-4.0932,-6.5006,-8.9581,-10.748,2.0154,-1.7572,-4.5776,-6.5396,-6.3834,-5.6949,-13.587,-10.089
-1.1808,-3.6321,-10.008,-14.829,-4.0932,-6.5006,-8.9581,-10.748,2.0154,-1.7572,-4.5776,-6.5396,-6.3834,-5.6949,-13.587,-10.089
-1.0736,-3.6699,-9.9782,-14.814,-4.1152,-6.4988,-8.9427,-10.746,2.0154,-1.7572,-4.5357,-6.5487,-6.3876,-5.6889,-13.58,-10.078
-1.0736,-3.6699,-9.9782,-14.814,-4.1152,-6.4988,-8.9427,-10.746,2.0154,-1.7572,-4.5357,-6.5487,-6.3876,-5.6889,-13.58,-10.078
-1.02,-3.6594,-10.016,-14.788,-4.1345,-6.5011,-8.9297,-10.748,2.0154,-1.7572,-4.5515,-6.5088,-6.3918,-5.6828,-13.566,-10.07
-1.02,-3.6594,-10.016,-14.788,-4.1345,-6.5011,-8.9297,-10.748,2.0154,-1.7572,-4.5515,-6.5088,-6.3918,-5.6828,-13.566,-10.07
-1.0564,-3.5775,-9.9865,-14.773,-4.1345,-6.5011,-8.919,-10.752,1.9181,-1.4697,-4.562,-6.4764,-6.3772,-5.6788,-13.547,-10.065
-1.0564,-3.5775,-9.9865,-14.773,-4.1345,-6.5011,-8.919,-10.752,1.9181,-1.4697,-4.562,-6.4764,-6.3772,-5.6788,-13.547,-10.065
-1.1463,-3.5359,-9.9782,-14.814,-4.139,-6.5145,-8.9334,-10.756,1.7605,-1.2423,-4.5779,-6.4536,-6.3164,-5.6911,-13.529,-10.063
-1.1463,-3.5359,-9.9782,-14.814,-4.139,-6.5145,-8.9334,-10.756,1.7605,-1.2423,-4.5779,-6.4536,-6.3164,-5.6911,-13.529,-10.063
-1.1463,-3.5359,-9.9782,-14.814,-4.139,-6.5145,-8.9334,-10.756,1.7605,-1.2423,-4.5779,-6.4536,-6.3164,-5.6911,-13.529,-10.063
-1.2531,-3.5278,-9.9169,-14.873,-4.1527,-6.5247,-8.9566,-10.761,1.8168,-1.1755,-4.5568,-6.4495,-6.2554,-5.7034,-13.515,-10.062
-1.2531,-3.5278,-9.9169,-14.873,-4.1527,-6.5247,-8.9566,-10.761,1.8168,-1.1755,-4.5568,-6.4495,-6.2554,-5.7034,-13.515,-10.062
-1.3236,-3.5423,-9.9169,-14.873,-4.1655,-6.5262,-8.9839,-10.763,1.8964,-1.2904,-4.5463,-6.4647,-6.2523,-5.6953,-13.515,-10.062
-1.3762,-3.5532,-9.9632,-14.807,-4.1746,-6.5229,-8.9973,-10.768,2.2498,-1.5014,-4.5621,-6.4591,-6.265,-5.6771,-13.518,-10.064
-1.3762,-3.5532,-9.9632,-14.807,-4.1746,-6.5229,-8.9973,-10.768,2.2498,-1.5014,-4.5621,-6.4591,-6.265,-5.6771,-13.518,-10.064
-1.3762,-3.5532,-9.9632,-14.807,-4.1746,-6.5229,-8.9973,-10.768,2.2498,-1.5014,-4.5621,-6.4591,-6.265,-5.6771,-13.518,-10.064
-1.4022,-3.5734,-9.9865,-14.773,-4.1563,-6.5294,-9.0084,-10.773,2.4667,-1.6635,-4.5831,-6.4632,-6.2997,-5.6648,-13.518,-10.071
-1.4022,-3.5734,-9.9865,-14.773,-4.1563,-6.5294,-9.0084,-10.773,2.4667,-1.6635,-4.5831,-6.4632,-6.2997,-5.6648,-13.518,-10.071
-1.4281,-3.5936,-10.013,-14.764,-4.1408,-6.5319,-9.0215,-10.775,2.1909,-1.5661,-4.6302,-6.4638,-6.3218,-5.6708,-13.532,-10.08
-1.4276,-3.6231,-10.043,-14.778,-4.1371,-6.5272,-9.0357,-10.776,1.6703,-1.5514,-4.6667,-6.4795,-6.3584,-5.6808,-13.561,-10.084
-1.4276,-3.6231,-10.043,-14.778,-4.1371,-6.5272,-9.0357,-10.776,1.6703,-1.5514,-4.6667,-6.4795,-6.3584,-5.6808,-13.561,-10.084
-1.3922,-3.6453,-10.043,-14.778,-4.1518,-6.516,-9.0402,-10.78,1.3173,-1.7585,-4.6718,-6.5063,-6.4064,-5.6868,-13.603,-10.087
-1.3922,-3.6453,-10.043,-14.778,-4.1518,-6.516,-9.0402,-10.78,1.3173,-1.7585,-4.6718,-6.5063,-6.4064,-5.6868,-13.603,-10.087
-1.3922,-3.6453,-10.043,-14.778,-4.1518,-6.516,-9.0402,-10.78,1.3173,-1.7585,-4.6718,-6.5063,-6.4064,-5.6868,-13.603,-10.087
-1.3837,-3.6288,-10.028,-14.771,-4.1637,-6.5088,-9.0362,-10.785,1.4112,-2.0349,-4.724,-6.4822,-6.447,-5.6908,-13.64,-10.094
-1.3837,-3.6288,-10.028,-14.771,-4.1637,-6.5088,-9.0362,-10.785,1.4112,-2.0349,-4.724,-6.4822,-6.447,-5.6908,-13.64,-10.094
-1.3837,-3.6288,-10.028,-14.771,-4.1637,-6.5088,-9.0362,-10.785,1.4112,-2.0349,-4.724,-6.4822,-6.447,-5.6908,-13.64,-10.094
-1.5239,-3.5988,-9.9632,-14.807,-4.2139,-6.506,-9.0763,-10.786,1.5223,-1.9126,-4.7864,-6.4601,-6.4229,-5.713,-13.713,-10.113
-1.5239,-3.5988,-9.9632,-14.807,-4.2139,-6.506,-9.0763,-10.786,1.5223,-1.9126,-4.7864,-6.4601,-6.4229,-5.713,-13.713,-10.113
-1.593,-3.6132,-9.9169,-14.873,-4.2458,-6.5098,-9.1056,-10.789,1.5782,-1.8507,-4.8018,-6.4718,-6.4302,-5.715,-13.75,-10.126
-1.593,-3.6132,-9.9169,-14.873,-4.2458,-6.5098,-9.1056,-10.789,1.5782,-1.8507,-4.8018,-6.4718,-6.4302,-5.715,-13.75,-10.126
-1.6447,-3.6241,-9.9135,-14.85,-4.2593,-6.52,-9.1328,-10.795,2.0334,-1.9294,-4.8172,-6.4834,-6.4543,-5.6928,-13.788,-10.137
-1.6447,-3.6241,-9.9135,-14.85,-4.2593,-6.52,-9.1328,-10.795,2.0334,-1.9294,-4.8172,-6.4834,-6.4543,-5.6928,-13.788,-10.137
-1.7221,-3.6258,-9.9749,-14.79,-4.2729,-6.5302,-9.1653,-10.8,2.7133,-2.1696,-4.8429,-6.4971,-6.4959,-5.6826,-13.825,-10.146
-1.7221,-3.6258,-9.9749,-14.79,-4.2729,-6.5302,-9.1653,-10.8,2.7133,-2.1696,-4.8429,-6.4971,-6.4959,-5.6826,-13.825,-10.146
-1.7821,-3.6239,-10.04,-14.754,-4.2746,-6.5475,-9.1948,-10.809,3.1953,-2.2573,-4.8893,-6.4978,-6.5404,-5.6806,-13.849,-10.157
-1.7821,-3.6239,-10.04,-14.754,-4.2746,-6.5475,-9.1948,-10.809,3.1953,-2.2573,-4.8893,-6.4978,-6.5404,-5.6806,-13.849,-10.157
-1.7821,-3.6239,-10.04,-14.754,-4.2746,-6.5475,-9.1948,-10.809,3.1953,-2.2573,-4.8893,-6.4978,-6.5404,-5.6806,-13.849,-10.157
-1.833,-3.6348,-10.04,-14.754,-4.27,-6.564,-9.223,-10.816,2.8864,-1.8118,-4.9046,-6.5094,-6.5807,-5.6846,-13.871,-10.167
-1.8323,-3.6639,-10.081,-14.752,-4.3008,-6.5591,-9.2449,-10.825,2.1909,-1.5661,-4.9197,-6.538,-6.6155,-5.7087,-13.907,-10.17
-1.8323,-3.6639,-10.081,-14.752,-4.3008,-6.5591,-9.2449,-10.825,2.1909,-1.5661,-4.9197,-6.538,-6.6155,-5.7087,-13.907,-10.17
-1.8147,-3.6893,-10.122,-14.751,-4.3261,-6.5621,-9.2677,-10.834,1.6142,-1.6154,-4.9144,-6.5625,-6.6502,-5.7328,-13.944,-10.173
-1.8147,-3.6893,-10.122,-14.751,-4.3261,-6.5621,-9.2677,-10.834,1.6142,-1.6154,-4.9144,-6.5625,-6.6502,-5.7328,-13.944,-10.173
-1.8147,-3.6893,-10.122,-14.751,-4.3261,-6.5621,-9.2677,-10.834,1.6142,-1.6154,-4.9144,-6.5625,-6.6502,-5.7328,-13.944,-10.173
-1.8147,-3.6893,-10.122,-14.751,-4.3261,-6.5621,-9.2677,-10.834,1.6142,-1.6154,-4.9144,-6.5625,-6.6502,-5.7328,-13.944,-10.173
-1.9512,-3.6602,-10.225,-14.802,-4.3845,-6.5861,-9.3103,-10.854,1.2418,-1.6498,-4.9915,-6.5183,-6.6776,-5.7548,-14.004,-10.176
-1.9512,-3.6602,-10.225,-14.802,-4.3845,-6.5861,-9.3103,-10.854,1.2418,-1.6498,-4.9915,-6.5183,-6.6776,-5.7548,-14.004,-10.176
-2.0858,-3.6604,-10.261,-14.865,-4.4473,-6.5935,-9.3477,-10.858,1.1878,-1.7128,-5.0324,-6.5095,-6.6426,-5.7807,-14.027,-10.181
-2.0858,-3.6604,-10.261,-14.865,-4.4473,-6.5935,-9.3477,-10.858,1.1878,-1.7128,-5.0324,-6.5095,-6.6426,-5.7807,-14.027,-10.181
-2.2107,-3.6734,-10.296,-14.927,-4.5044,-6.6088,-9.3882,-10.864,1.2627,-1.8209,-5.0681,-6.5082,-6.6271,-5.7907,-14.049,-10.184
-2.2107,-3.6734,-10.296,-14.927,-4.5044,-6.6088,-9.3882,-10.864,1.2627,-1.8209,-5.0681,-6.5082,-6.6271,-5.7907,-14.049,-10.184
-2.2107,-3.6734,-10.296,-14.927,-4.5044,-6.6088,-9.3882,-10.864,1.2627,-1.8209,-5.0681,-6.5082,-6.6271,-5.7907,-14.049,-10.184
-2.2592,-3.7131,-10.374,-14.899,-4.5578,-6.6195,-9.4182,-10.872,1.8996,-1.8822,-5.0883,-6.5123,-6.6396,-5.7728,-14.065,-10.185
-2.2592,-3.7131,-10.374,-14.899,-4.5578,-6.6195,-9.4182,-10.872,1.8996,-1.8822,-5.0883,-6.5123,-6.6396,-5.7728,-14.065,-10.185
-2.2834,-3.7329,-10.411,-14.874,-4.5807,-6.6349,-9.4449,-10.88,2.4839,-1.8389,-5.0933,-6.5218,-6.6592,-5.7568,-14.073,-10.191
-2.2747,-3.7454,-10.463,-14.856,-4.5735,-6.6551,-9.4726,-10.888,2.588,-1.5347,-5.0982,-6.5314,-6.6931,-5.7448,-14.076,-10.2
-2.2911,-3.749,-10.503,-14.854,-4.5654,-6.6668,-9.5024,-10.895,2.3246,-1.0018,-5.1285,-6.5375,-6.7186,-5.7448,-14.093,-10.204
-2.2911,-3.749,-10.503,-14.854,-4.5654,-6.6668,-9.5024,-10.895,2.3246,-1.0018,-5.1285,-6.5375,-6.7186,-5.7448,-14.093,-10.204
-2.2738,-3.7739,-10.52,-14.885,-4.5805,-6.6644,-9.5396,-10.906,1.9869,-0.9717,-5.1433,-6.566,-6.7572,-5.7628,-14.137,-10.204
-2.2738,-3.7739,-10.52,-14.885,-4.5805,-6.6644,-9.5396,-10.906,1.9869,-0.9717,-5.1433,-6.566,-6.7572,-5.7628,-14.137,-10.204
-2.2738,-3.7739,-10.52,-14.885,-4.5805,-6.6644,-9.5396,-10.906,1.9869,-0.9717,-5.1433,-6.566,-6.7572,-5.7628,-14.137,-10.204
-2.2064,-3.8165,-10.541,-14.939,-4.6133,-6.6557,-9.5758,-10.921,1.8733,-1.1081,-5.1429,-6.5997,-6.7856,-5.7708,-14.181,-10.21
-2.2064,-3.8165,-10.541,-14.939,-4.6133,-6.6557,-9.5758,-10.921,1.8733,-1.1081,-5.1429,-6.5997,-6.7856,-5.7708,-14.181,-10.21
-2.2151,-3.8041,-10.595,-14.945,-4.655,-6.6439,-9.6018,-10.94,1.93,-1.0402,-5.1682,-6.5964,-6.8039,-5.7688,-14.225,-10.217
-2.2661,-3.7578,-10.612,-14.975,-4.6728,-6.6376,-9.619,-10.952,1.8486,-0.9228,-5.2188,-6.5729,-6.808,-5.7628,-14.257,-10.229
-2.2661,-3.7578,-10.612,-14.975,-4.6728,-6.6376,-9.619,-10.952,1.8486,-0.9228,-5.2188,-6.5729,-6.808,-5.7628,-14.257,-10.229
-2.2661,-3.7578,-10.612,-14.975,-4.6728,-6.6376,-9.619,-10.952,1.8486,-0.9228,-5.2188,-6.5729,-6.808,-5.7628,-14.257,-10.229
-2.3084,-3.724,-10.592,-15.031,-4.6639,-6.6407,-9.6221,-10.951,1.8783,-0.6637,-5.2139,-6.5634,-6.7418,-5.7727,-14.277,-10.235
-2.3084,-3.724,-10.592,-15.031,-4.6639,-6.6407,-9.6221,-10.951,1.8783,-0.6637,-5.2139,-6.5634,-6.7418,-5.7727,-14.277,-10.235
-2.3084,-3.724,-10.592,-15.031,-4.6639,-6.6407,-9.6221,-10.951,1.8783,-0.6637,-5.2139,-6.5634,-6.7418,-5.7727,-14.277,-10.235
-2.2843,-3.7042,-10.522,-15.105,-4.633,-6.637,-9.5968,-10.944,1.7945,-0.5428,-5.1988,-6.5688,-6.6682,-5.7807,-14.261,-10.23
-2.1357,-3.6714,-10.454,-15.092,-4.5675,-6.6249,-9.5429,-10.931,2.0182,-0.7131,-5.1635,-6.5701,-6.5905,-5.7448,-14.2,-10.214
-2.1357,-3.6714,-10.454,-15.092,-4.5675,-6.6249,-9.5429,-10.931,2.0182,-0.7131,-5.1635,-6.5701,-6.5905,-5.7448,-14.2,-10.214
-1.9095,-3.6366,-10.444,-15.022,-4.4865,-6.6152,-9.471,-10.917,2.5022,-0.7929,-5.098,-6.5483,-6.5248,-5.6907,-14.083,-10.184
-1.9095,-3.6366,-10.444,-15.022,-4.4865,-6.6152,-9.471,-10.917,2.5022,-0.7929,-5.098,-6.5483,-6.5248,-5.6907,-14.083,-10.184
-1.9095,-3.6366,-10.444,-15.022,-4.4865,-6.6152,-9.471,-10.917,2.5022,-0.7929,-5.098,-6.5483,-6.5248,-5.6907,-14.083,-10.184
-1.6536,-3.6113,-10.409,-14.961,-4.3906,-6.6165,-9.3883,-10.908,2.9141,-0.7539,-5.0273,-6.517,-6.4462,-5.6544,-13.929,-10.157
-1.6536,-3.6113,-10.409,-14.961,-4.3906,-6.6165,-9.3883,-10.908,2.9141,-0.7539,-5.0273,-6.517,-6.4462,-5.6544,-13.929,-10.157
-1.4808,-3.575,-10.42,-14.945,-4.2869,-6.6384,-9.3179,-10.898,2.8959,-0.0793,-4.9305,-6.4889,-6.3471,-5.6342,-13.773,-10.127
-1.4808,-3.575,-10.42,-14.945,-4.2869,-6.6384,-9.3179,-10.898,2.8959,-0.0793,-4.9305,-6.4889,-6.3471,-5.6342,-13.773,-10.127
-1.3496,-3.5626,-10.417,-14.921,-4.2198,-6.6561,-9.2643,-10.89,2.5874,0.5302,-4.8535,-6.4649,-6.2873,-5.6323,-13.645,-10.097
-1.3496,-3.5626,-10.417,-14.921,-4.2198,-6.6561,-9.2643,-10.89,2.5874,0.5302,-4.8535,-6.4649,-6.2873,-5.6323,-13.645,-10.097
-1.2793,-3.5481,-10.377,-14.923,-4.2135,-6.6554,-9.2266,-10.883,2.3793,0.502,-4.7915,-6.4697,-6.2904,-5.6404,-13.557,-10.068
-1.2793,-3.5481,-10.377,-14.923,-4.2135,-6.6554,-9.2266,-10.883,2.3793,0.502,-4.7915,-6.4697,-6.2904,-5.6404,-13.557,-10.068
-1.1191,-3.5751,-10.296,-14.927,-4.2307,-6.6404,-9.1986,-10.879,2.0078,0.2345,-4.7291,-6.4918,-6.3429,-5.6403,-13.501,-10.05
-1.1191,-3.5751,-10.296,-14.927,-4.2307,-6.6404,-9.1986,-10.879,2.0078,0.2345,-4.7291,-6.4918,-6.3429,-5.6403,-13.501,-10.05
-1.0385,-3.5739,-10.241,-14.921,-4.2461,-6.6379,-9.1742,-10.883,1.986,-0.0486,-4.6823,-6.4912,-6.3722,-5.6484,-13.467,-10.041
-1.0385,-3.5739,-10.241,-14.921,-4.2461,-6.6379,-9.1742,-10.883,1.986,-0.0486,-4.6823,-6.4912,-6.3722,-5.6484,-13.467,-10.041
-1.0385,-3.5739,-10.241,-14.921,-4.2461,-6.6379,-9.1742,-10.883,1.986,-0.0486,-4.6823,-6.4912,-6.3722,-5.6484,-13.467,-10.041
-1.1554,-3.5227,-10.204,-14.947,-4.2959,-6.6352,-9.1876,-10.891,2.275,-0.1507,-4.7295,-6.4402,-6.3291,-5.6728,-13.496,-10.053
-1.1554,-3.5227,-10.204,-14.947,-4.2959,-6.6352,-9.1876,-10.891,2.275,-0.1507,-4.7295,-6.4402,-6.3291,-5.6728,-13.496,-10.053
-1.1554,-3.5227,-10.204,-14.947,-4.2959,-6.6352,-9.1876,-10.891,2.275,-0.1507,-4.7295,-6.4402,-6.3291,-5.6728,-13.496,-10.053
-1.2173,-3.5503,-10.155,-14.989,-4.3185,-6.642,-9.2176,-10.892,2.5954,-0.4541,-4.7553,-6.4539,-6.3375,-5.6606,-13.533,-10.06
-1.2173,-3.5503,-10.155,-14.989,-4.3185,-6.642,-9.2176,-10.892,2.5954,-0.4541,-4.7553,-6.4539,-6.3375,-5.6606,-13.533,-10.06
-1.2173,-3.5503,-10.155,-14.989,-4.3185,-6.642,-9.2176,-10.892,2.5954,-0.4541,-4.7553,-6.4539,-6.3375,-5.6606,-13.533,-10.06
-1.3406,-3.5756,-10.185,-14.916,-4.3716,-6.6439,-9.2573,-10.896,3.8131,-1.0716,-4.8018,-6.4718,-6.3879,-5.6382,-13.584,-10.076
-1.3406,-3.5756,-10.185,-14.916,-4.3716,-6.6439,-9.2573,-10.896,3.8131,-1.0716,-4.8018,-6.4718,-6.3879,-5.6382,-13.584,-10.076
-1.3582,-3.5792,-10.168,-14.885,-4.3572,-6.6549,-9.2584,-10.898,3.4664,-0.5717,-4.8225,-6.4759,-6.391,-5.6463,-13.596,-10.08
-1.3582,-3.5792,-10.168,-14.885,-4.3572,-6.6549,-9.2584,-10.898,3.4664,-0.5717,-4.8225,-6.4759,-6.391,-5.6463,-13.596,-10.08
-1.3582,-3.5792,-10.168,-14.885,-4.3572,-6.6549,-9.2584,-10.898,3.4664,-0.5717,-4.8225,-6.4759,-6.391,-5.6463,-13.596,-10.08
-1.3492,-3.5922,-10.127,-14.887,-4.331,-6.673,-9.2573,-10.896,2.9511,-0.485,-4.8171,-6.5006,-6.416,-5.6605,-13.611,-10.076
-1.3492,-3.5922,-10.127,-14.887,-4.331,-6.673,-9.2573,-10.896,2.9511,-0.485,-4.8171,-6.5006,-6.416,-5.6605,-13.611,-10.076
-1.3492,-3.5922,-10.127,-14.887,-4.331,-6.673,-9.2573,-10.896,2.9511,-0.485,-4.8171,-6.5006,-6.416,-5.6605,-13.611,-10.076
-1.296,-3.6109,-10.15,-14.854,-4.3526,-6.6713,-9.2442,-10.891,2.3327,-0.5485,-4.8068,-6.4985,-6.4263,-5.6706,-13.612,-10.06
-1.296,-3.6109,-10.15,-14.854,-4.3526,-6.6713,-9.2442,-10.891,2.3327,-0.5485,-4.8068,-6.4985,-6.4263,-5.6706,-13.612,-10.06
-1.296,-3.6109,-10.15,-14.854,-4.3526,-6.6713,-9.2442,-10.891,2.3327,-0.5485,-4.8068,-6.4985,-6.4263,-5.6706,-13.612,-10.06
-1.305,-3.5979,-10.15,-14.854,-4.3571,-6.6845,-9.225,-10.892,2.0751,-0.642,-4.8225,-6.4759,-6.4106,-5.6807,-13.595,-10.053
-1.305,-3.5979,-10.15,-14.854,-4.3571,-6.6845,-9.225,-10.892,2.0751,-0.642,-4.8225,-6.4759,-6.4106,-5.6807,-13.595,-10.053
-1.4808,-3.575,-10.182,-14.893,-4.4466,-6.7116,-9.2155,-10.875,1.5743,-0.8259,-4.8279,-6.4512,-6.3488,-5.7071,-13.559,-10.027
-1.4808,-3.575,-10.182,-14.893,-4.4466,-6.7116,-9.2155,-10.875,1.5743,-0.8259,-4.8279,-6.4512,-6.3488,-5.7071,-13.559,-10.027
-1.4808,-3.575,-10.182,-14.893,-4.4466,-6.7116,-9.2155,-10.875,1.5743,-0.8259,-4.8279,-6.4512,-6.3488,-5.7071,-13.559,-10.027
-1.5764,-3.5802,-10.159,-14.925,-4.5001,-6.722,-9.2065,-10.867,1.7925,-0.9916,-4.8125,-6.4395,-6.3657,-5.6828,-13.544,-10.013
-1.5764,-3.5802,-10.159,-14.925,-4.5001,-6.722,-9.2065,-10.867,1.7925,-0.9916,-4.8125,-6.4395,-6.3657,-5.6828,-13.544,-10.013
-1.6192,-3.604,-10.194,-14.876,-4.5437,-6.7271,-9.1922,-10.86,2.0683,-1.089,-4.7815,-6.4333,-6.3929,-5.6686,-13.524,-10.009
-1.6192,-3.604,-10.194,-14.876,-4.5437,-6.7271,-9.1922,-10.86,2.0683,-1.089,-4.7815,-6.4333,-6.3929,-5.6686,-13.524,-10.009
-1.6192,-3.604,-10.194,-14.876,-4.5437,-6.7271,-9.1922,-10.86,2.0683,-1.089,-4.7815,-6.4333,-6.3929,-5.6686,-13.524,-10.009
-1.6707,-3.6149,-10.217,-14.843,-4.5631,-6.7378,-9.1832,-10.853,1.9614,-0.7836,-4.7607,-6.4291,-6.4075,-5.6726,-13.509,-10.01
-1.6707,-3.6149,-10.217,-14.843,-4.5631,-6.7378,-9.1832,-10.853,1.9614,-0.7836,-4.7607,-6.4291,-6.4075,-5.6726,-13.509,-10.01
-1.6707,-3.6149,-10.217,-14.843,-4.5631,-6.7378,-9.1832,-10.853,1.9614,-0.7836,-4.7607,-6.4291,-6.4075,-5.6726,-13.509,-10.01
-1.8323,-3.6639,-10.228,-14.826,-4.5984,-6.7544,-9.1721,-10.845,1.8486,-0.9228,-4.6722,-6.4375,-6.4802,-5.6927,-13.517,-9.9984
-1.8323,-3.6639,-10.228,-14.826,-4.5984,-6.7544,-9.1721,-10.845,1.8486,-0.9228,-4.6722,-6.4375,-6.4802,-5.6927,-13.517,-9.9984
-1.8655,-3.7001,-10.228,-14.826,-4.617,-6.7566,-9.1676,-10.841,1.7111,-0.8743,-4.6514,-6.4161,-6.502,-5.6987,-13.531,-9.9958
-1.9592,-3.6765,-10.254,-14.817,-4.6258,-6.7535,-9.1609,-10.837,1.5465,-0.637,-4.6464,-6.3891,-6.4749,-5.7129,-13.547,-10.001
-1.9592,-3.6765,-10.254,-14.817,-4.6258,-6.7535,-9.1609,-10.837,1.5465,-0.637,-4.6464,-6.3891,-6.4749,-5.7129,-13.547,-10.001
-1.9592,-3.6765,-10.254,-14.817,-4.6258,-6.7535,-9.1609,-10.837,1.5465,-0.637,-4.6464,-6.3891,-6.4749,-5.7129,-13.547,-10.001
-1.9592,-3.6765,-10.254,-14.817,-4.6258,-6.7535,-9.1609,-10.837,1.5465,-0.637,-4.6464,-6.3891,-6.4749,-5.7129,-13.547,-10.001
-2.0683,-3.6857,-10.284,-14.832,-4.6285,-6.7496,-9.1669,-10.828,1.5465,-0.637,-4.6411,-6.3967,-6.4593,-5.723,-13.589,-10.015
-2.0683,-3.6857,-10.284,-14.832,-4.6285,-6.7496,-9.1669,-10.828,1.5465,-0.637,-4.6411,-6.3967,-6.4593,-5.723,-13.589,-10.015
-2.1932,-3.6986,-10.264,-14.889,-4.618,-6.7359,-9.1719,-10.821,1.6291,-0.756,-4.6777,-6.3953,-6.4593,-5.723,-13.643,-10.037
-2.1932,-3.6986,-10.264,-14.889,-4.618,-6.7359,-9.1719,-10.821,1.6291,-0.756,-4.6777,-6.3953,-6.4593,-5.723,-13.643,-10.037
-2.2756,-3.7167,-10.287,-14.856,-4.5908,-6.7076,-9.1702,-10.81,2.044,-0.9026,-4.7194,-6.4036,-6.478,-5.7209,-13.698,-10.066
-2.3489,-3.7474,-10.37,-14.764,-4.5751,-6.6721,-9.149,-10.796,2.1013,-0.833,-4.7556,-6.4195,-6.4883,-5.7309,-13.743,-10.097
-2.3489,-3.7474,-10.37,-14.764,-4.5751,-6.6721,-9.149,-10.796,2.1013,-0.833,-4.7556,-6.4195,-6.4883,-5.7309,-13.743,-10.097
-2.4551,-3.7567,-10.434,-14.729,-4.5299,-6.6499,-9.1082,-10.778,1.6554,-0.4937,-4.8177,-6.4319,-6.5089,-5.751,-13.789,-10.125
-2.4551,-3.7567,-10.434,-14.729,-4.5299,-6.6499,-9.1082,-10.778,1.6554,-0.4937,-4.8177,-6.4319,-6.5089,-5.751,-13.789,-10.125
-2.5446,-3.7625,-10.46,-14.719,-4.4855,-6.6362,-9.0737,-10.759,1.1906,-0.4207,-4.8638,-6.467,-6.5594,-5.7649,-13.85,-10.143
-2.5446,-3.7625,-10.46,-14.719,-4.4855,-6.6362,-9.0737,-10.759,1.1906,-0.4207,-4.8638,-6.467,-6.5594,-5.7649,-13.85,-10.143
-2.5446,-3.7625,-10.46,-14.719,-4.4855,-6.6362,-9.0737,-10.759,1.1906,-0.4207,-4.8638,-6.467,-6.5594,-5.7649,-13.85,-10.143
-2.6078,-3.8054,-10.451,-14.76,-4.4794,-6.6058,-9.0167,-10.727,1.0121,-0.8912,-4.9919,-6.4842,-6.6497,-5.7827,-13.953,-10.164
-2.6078,-3.8054,-10.451,-14.76,-4.4794,-6.6058,-9.0167,-10.727,1.0121,-0.8912,-4.9919,-6.4842,-6.6497,-5.7827,-13.953,-10.164
-2.6078,-3.8054,-10.451,-14.76,-4.4794,-6.6058,-9.0167,-10.727,1.0121,-0.8912,-4.9919,-6.4842,-6.6497,-5.7827,-13.953,-10.164
-2.7059,-3.7707,-10.451,-14.76,-4.5134,-6.6057,-8.9863,-10.708,0.8294,-0.9134,-5.0279,-6.4658,-6.6301,-5.7987,-13.972,-10.153
-2.7059,-3.7707,-10.451,-14.76,-4.5134,-6.6057,-8.9863,-10.708,0.8294,-0.9134,-5.0279,-6.4658,-6.6301,-5.7987,-13.972,-10.153
-2.8097,-3.7804,-10.431,-14.817,-4.5881,-6.6147,-8.9643,-10.684,0.7275,-1.049,-5.0381,-6.4679,-6.6301,-5.7987,-13.983,-10.138
-2.8097,-3.7804,-10.431,-14.817,-4.5881,-6.6147,-8.9643,-10.684,0.7275,-1.049,-5.0381,-6.4679,-6.6301,-5.7987,-13.983,-10.138
-2.9213,-3.7779,-10.423,-14.857,-4.6473,-6.6261,-8.9358,-10.662,1.0894,-1.43,-5.0431,-6.4775,-6.6712,-5.7887,-13.993,-10.129
-2.9213,-3.7779,-10.423,-14.857,-4.6473,-6.6261,-8.9358,-10.662,1.0894,-1.43,-5.0431,-6.4775,-6.6712,-5.7887,-13.993,-10.129
-2.9213,-3.7779,-10.423,-14.857,-4.6473,-6.6261,-8.9358,-10.662,1.0894,-1.43,-5.0431,-6.4775,-6.6712,-5.7887,-13.993,-10.129
-2.9526,-3.7853,-10.423,-14.857,-4.687,-6.6267,-8.9081,-10.635,1.2734,-1.4112,-5.0431,-6.4775,-6.7122,-5.7787,-14.004,-10.124
-2.9526,-3.7853,-10.423,-14.857,-4.687,-6.6267,-8.9081,-10.635,1.2734,-1.4112,-5.0431,-6.4775,-6.7122,-5.7787,-14.004,-10.124
-2.9995,-3.7963,-10.423,-14.857,-4.6939,-6.636,-8.8694,-10.61,1.2495,-1.2335,-5.0584,-6.472,-6.7478,-5.7886,-14.021,-10.117
-2.9995,-3.7963,-10.423,-14.857,-4.6939,-6.636,-8.8694,-10.61,1.2495,-1.2335,-5.0584,-6.472,-6.7478,-5.7886,-14.021,-10.117
-3.0547,-3.7952,-10.423,-14.857,-4.7151,-6.6344,-8.827,-10.579,0.9871,-1.1407,-5.0532,-6.4795,-6.8016,-5.7966,-14.049,-10.105
-3.0619,-3.811,-10.434,-14.841,-4.7389,-6.6289,-8.7859,-10.554,0.9871,-1.1407,-5.0532,-6.4795,-6.8552,-5.8046,-14.084,-10.102
-3.0929,-3.8183,-10.448,-14.848,-4.7355,-6.6242,-8.7586,-10.54,0.9085,-1.0275,-5.0888,-6.4783,-6.8892,-5.8283,-14.136,-10.113
-3.0929,-3.8183,-10.448,-14.848,-4.7355,-6.6242,-8.7586,-10.54,0.9085,-1.0275,-5.0888,-6.4783,-6.8892,-5.8283,-14.136,-10.113
-3.0929,-3.8183,-10.448,-14.848,-4.7355,-6.6242,-8.7586,-10.54,0.9085,-1.0275,-5.0888,-6.4783,-6.8892,-5.8283,-14.136,-10.113
-3.1716,-3.8088,-10.517,-14.861,-4.7251,-6.6103,-8.7845,-10.549,0.9871,-1.1407,-5.1846,-6.5065,-6.9331,-5.8618,-14.229,-10.147
-3.1716,-3.8088,-10.517,-14.861,-4.7251,-6.6103,-8.7845,-10.549,0.9871,-1.1407,-5.1846,-6.5065,-6.9331,-5.8618,-14.229,-10.147
-3.1716,-3.8088,-10.517,-14.861,-4.7251,-6.6103,-8.7845,-10.549,0.9871,-1.1407,-5.1846,-6.5065,-6.9331,-5.8618,-14.229,-10.147
-3.2875,-3.8225,-10.617,-14.912,-4.7086,-6.5956,-8.8893,-10.592,0.8569,-1.0948,-5.2942,-6.563,-6.9728,-5.9011,-14.348,-10.203
-3.2875,-3.8225,-10.617,-14.912,-4.7086,-6.5956,-8.8893,-10.592,0.8569,-1.0948,-5.2942,-6.563,-6.9728,-5.9011,-14.348,-10.203
-3.2875,-3.8225,-10.617,-14.912,-4.7086,-6.5956,-8.8893,-10.592,0.8569,-1.0948,-5.2942,-6.563,-6.9728,-5.9011,-14.348,-10.203
-3.379,-3.8446,-10.68,-14.988,-4.7009,-6.5777,-9.0258,-10.654,1.1179,-1.187,-5.4078,-6.6285,-7.0245,-5.9226,-14.473,-10.265
-3.379,-3.8446,-10.68,-14.988,-4.7009,-6.5777,-9.0258,-10.654,1.1179,-1.187,-5.4078,-6.6285,-7.0245,-5.9226,-14.473,-10.265
-3.4602,-3.9062,-10.932,-15.008,-4.6859,-6.5801,-9.3354,-10.784,0.9833,-0.7057,-5.6177,-6.7302,-7.087,-5.9402,-14.688,-10.368
-3.4602,-3.9062,-10.932,-15.008,-4.6859,-6.5801,-9.3354,-10.784,0.9833,-0.7057,-5.6177,-6.7302,-7.087,-5.9402,-14.688,-10.368
-3.4602,-3.9062,-10.932,-15.008,-4.6859,-6.5801,-9.3354,-10.784,0.9833,-0.7057,-5.6177,-6.7302,-7.087,-5.9402,-14.688,-10.368
-3.4822,-3.9254,-11.012,-15.028,-4.6839,-6.5926,-9.4735,-10.839,0.8806,-0.8447,-5.6997,-6.7719,-7.1078,-5.9461,-14.769,-10.393
-3.4822,-3.9254,-11.012,-15.028,-4.6839,-6.5926,-9.4735,-10.839,0.8806,-0.8447,-5.6997,-6.7719,-7.1078,-5.9461,-14.769,-10.393
-3.4822,-3.9254,-11.012,-15.028,-4.6839,-6.5926,-9.4735,-10.839,0.8806,-0.8447,-5.6997,-6.7719,-7.1078,-5.9461,-14.769,-10.393
-3.3279,-3.9439,-11.084,-15.087,-4.6654,-6.5903,-9.6404,-10.921,1.0121,-0.8912,-5.757,-6.8166,-7.0327,-5.9109,-14.775,-10.384
-3.3279,-3.9439,-11.084,-15.087,-4.6654,-6.5903,-9.6404,-10.921,1.0121,-0.8912,-5.757,-6.8166,-7.0327,-5.9109,-14.775,-10.384
-3.1201,-3.9089,-11.073,-15.103,-4.6337,-6.5779,-9.6414,-10.943,0.9833,-0.7057,-5.7234,-6.8015,-6.9343,-5.8481,-14.666,-10.347
-3.1201,-3.9089,-11.073,-15.103,-4.6337,-6.5779,-9.6414,-10.943,0.9833,-0.7057,-5.7234,-6.8015,-6.9343,-5.8481,-14.666,-10.347
-2.8306,-3.856,-11.023,-15.12,-4.5868,-6.5679,-9.6008,-10.941,1.2212,-0.6119,-5.6463,-6.7691,-6.7844,-5.7847,-14.509,-10.29
-2.8306,-3.856,-11.023,-15.12,-4.5868,-6.5679,-9.6008,-10.941,1.2212,-0.6119,-5.6463,-6.7691,-6.7844,-5.7847,-14.509,-10.29
-2.5521,-3.7785,-10.924,-15.155,-4.5433,-6.5626,-9.5376,-10.929,1.4634,-0.5171,-5.5195,-6.743,-6.6173,-5.7308,-14.326,-10.232
-2.5521,-3.7785,-10.924,-15.155,-4.5433,-6.5626,-9.5376,-10.929,1.4634,-0.5171,-5.5195,-6.743,-6.6173,-5.7308,-14.326,-10.232
-2.5521,-3.7785,-10.924,-15.155,-4.5433,-6.5626,-9.5376,-10.929,1.4634,-0.5171,-5.5195,-6.743,-6.6173,-5.7308,-14.326,-10.232
-2.3084,-3.724,-10.838,-15.198,-4.5058,-6.558,-9.4747,-10.908,1.7945,-0.5428,-5.4116,-6.7044,-6.5055,-5.6564,-14.146,-10.174
-2.3084,-3.724,-10.838,-15.198,-4.5058,-6.558,-9.4747,-10.908,1.7945,-0.5428,-5.4116,-6.7044,-6.5055,-5.6564,-14.146,-10.174
-2.0517,-3.6821,-10.785,-15.192,-4.4683,-6.5535,-9.4214,-10.894,2.3327,-0.5485,-5.3275,-6.679,-6.4225,-5.626,-14.024,-10.141
-1.9007,-3.6493,-10.768,-15.162,-4.4307,-6.549,-9.3992,-10.892,2.7421,-0.5059,-5.2726,-6.6762,-6.4006,-5.6199,-13.946,-10.139
-1.9007,-3.6493,-10.768,-15.162,-4.4307,-6.549,-9.3992,-10.892,2.7421,-0.5059,-5.2726,-6.6762,-6.4006,-5.6199,-13.946,-10.139
-1.7902,-3.6403,-10.768,-15.162,-4.402,-6.5412,-9.4062,-10.906,2.775,-0.2312,-5.2875,-6.6876,-6.4129,-5.6524,-13.922,-10.163
-1.7902,-3.6403,-10.768,-15.162,-4.402,-6.5412,-9.4062,-10.906,2.775,-0.2312,-5.2875,-6.6876,-6.4129,-5.6524,-13.922,-10.163
-1.7732,-3.6367,-10.818,-15.145,-4.365,-6.5454,-9.4413,-10.933,2.5058,0.157,-5.3121,-6.7175,-6.4428,-5.6968,-13.944,-10.19
-1.7732,-3.6367,-10.807,-15.161,-4.3343,-6.5503,-9.4793,-10.956,2.0976,0.1051,-5.3615,-6.7441,-6.4913,-5.739,-13.984,-10.213
-1.7732,-3.6367,-10.807,-15.161,-4.3343,-6.5503,-9.4793,-10.956,2.0976,0.1051,-5.3615,-6.7441,-6.4913,-5.739,-13.984,-10.213
-1.7984,-3.6567,-10.846,-15.159,-4.3434,-6.5471,-9.5181,-10.977,1.8428,0.002,-5.3859,-6.7738,-6.5522,-5.7629,-14.033,-10.232
-1.7984,-3.6567,-10.846,-15.159,-4.3434,-6.5471,-9.5181,-10.977,1.8428,0.002,-5.3859,-6.7738,-6.5522,-5.7629,-14.033,-10.232
-1.7719,-3.6948,-10.835,-15.175,-4.3678,-6.5414,-9.5502,-10.991,2.0175,-0.2499,-5.4254,-6.7817,-6.584,-5.7788,-14.085,-10.246
-1.7719,-3.6948,-10.835,-15.175,-4.3678,-6.5414,-9.5502,-10.991,2.0175,-0.2499,-5.4254,-6.7817,-6.584,-5.7788,-14.085,-10.246
-1.7719,-3.6948,-10.835,-15.175,-4.3678,-6.5414,-9.5502,-10.991,2.0175,-0.2499,-5.4254,-6.7817,-6.584,-5.7788,-14.085,-10.246
-1.8228,-3.7056,-10.849,-15.182,-4.3894,-6.5397,-9.5715,-11,1.9615,-0.3241,-5.4796,-6.7844,-6.6086,-5.7927,-14.128,-10.266
-1.8228,-3.7056,-10.849,-15.182,-4.3894,-6.5397,-9.5715,-11,1.9615,-0.3241,-5.4796,-6.7844,-6.6086,-5.7927,-14.128,-10.266
-1.8911,-3.691,-10.849,-15.182,-4.4102,-6.5294,-9.5862,-11.003,2.1038,-0.3744,-5.5581,-6.7839,-6.6003,-5.8047,-14.172,-10.28
-1.8911,-3.691,-10.849,-15.182,-4.4102,-6.5294,-9.5862,-11.003,2.1038,-0.3744,-5.5581,-6.7839,-6.6003,-5.8047,-14.172,-10.28
-1.8911,-3.691,-10.849,-15.182,-4.4102,-6.5294,-9.5862,-11.003,2.1038,-0.3744,-5.5581,-6.7839,-6.6003,-5.8047,-14.172,-10.28
-1.9927,-3.6838,-10.852,-15.205,-4.4255,-6.527,-9.6017,-11,2.1038,-0.3744,-5.6263,-6.7979,-6.5735,-5.8187,-14.213,-10.29
-1.9927,-3.6838,-10.852,-15.205,-4.4255,-6.527,-9.6017,-11,2.1038,-0.3744,-5.6263,-6.7979,-6.5735,-5.8187,-14.213,-10.29
-2.0683,-3.6857,-10.819,-15.252,-4.4345,-6.5238,-9.617,-10.995,2.247,-0.425,-5.6748,-6.8078,-6.5705,-5.8107,-14.244,-10.295
-2.0683,-3.6857,-10.819,-15.252,-4.4345,-6.5238,-9.617,-10.995,2.247,-0.425,-5.6748,-6.8078,-6.5705,-5.8107,-14.244,-10.295
-2.0929,-3.7055,-10.798,-15.283,-4.4435,-6.5206,-9.6294,-10.994,2.4767,-0.5994,-5.7182,-6.8249,-6.5912,-5.7808,-14.269,-10.297
-2.0929,-3.7055,-10.798,-15.283,-4.4435,-6.5206,-9.6294,-10.994,2.4767,-0.5994,-5.7182,-6.8249,-6.5912,-5.7808,-14.269,-10.297
-2.0929,-3.7055,-10.844,-15.243,-4.4463,-6.5167,-9.6398,-10.995,3.0616,-0.8061,-5.7422,-6.8381,-6.5852,-5.7648,-14.279,-10.299
-2.0929,-3.7055,-10.844,-15.243,-4.4463,-6.5167,-9.6398,-10.995,3.0616,-0.8061,-5.7422,-6.8381,-6.5852,-5.7648,-14.279,-10.299
-2.0683,-3.6857,-10.888,-15.18,-4.4157,-6.5215,-9.6623,-11.009,2.8959,-0.0793,-5.7661,-6.8511,-6.603,-5.7268,-14.273,-10.312
-2.0683,-3.6857,-10.888,-15.18,-4.4157,-6.5215,-9.6623,-11.009,2.8959,-0.0793,-5.7661,-6.8511,-6.603,-5.7268,-14.273,-10.312
-2.0683,-3.6857,-10.888,-15.18,-4.4157,-6.5215,-9.6623,-11.009,2.8959,-0.0793,-5.7661,-6.8511,-6.603,-5.7268,-14.273,-10.312
-2.0604,-3.6694,-10.888,-15.18,-4.3732,-6.5335,-9.6753,-11.021,2.39,0.0018,-5.7947,-6.8733,-6.6203,-5.7388,-14.29,-10.317
-2.0604,-3.6694,-10.888,-15.18,-4.3732,-6.5335,-9.6753,-11.021,2.39,0.0018,-5.7947,-6.8733,-6.6203,-5.7388,-14.29,-10.317
-2.0683,-3.6857,-10.916,-15.194,-4.3732,-6.5335,-9.6985,-11.03,1.986,-0.0486,-5.7797,-6.9108,-6.6294,-5.7628,-14.314,-10.324
-2.0683,-3.6857,-10.916,-15.194,-4.3732,-6.5335,-9.6985,-11.03,1.986,-0.0486,-5.7797,-6.9108,-6.6294,-5.7628,-14.314,-10.324
-2.0509,-3.7109,-10.933,-15.224,-4.3913,-6.5271,-9.7226,-11.038,1.6792,-0.2244,-5.7745,-6.934,-6.661,-5.7787,-14.343,-10.328
-2.0509,-3.7109,-10.933,-15.224,-4.3913,-6.5271,-9.7226,-11.038,1.6792,-0.2244,-5.7745,-6.934,-6.661,-5.7787,-14.343,-10.328
-2.0509,-3.7109,-10.933,-15.224,-4.3913,-6.5271,-9.7226,-11.038,1.6792,-0.2244,-5.7745,-6.934,-6.661,-5.7787,-14.343,-10.328
-2.0334,-3.7361,-10.947,-15.231,-4.4192,-6.5262,-9.7437,-11.048,1.7392,-0.6145,-5.7841,-6.9359,-6.6855,-5.7926,-14.371,-10.336
-2.0334,-3.7361,-10.947,-15.231,-4.4192,-6.5262,-9.7437,-11.048,1.7392,-0.6145,-5.7841,-6.9359,-6.6855,-5.7926,-14.371,-10.336
-2.016,-3.7612,-10.972,-15.222,-4.4569,-6.5308,-9.7607,-11.059,1.684,-0.6856,-5.818,-6.9186,-6.7057,-5.8125,-14.395,-10.344
-2.016,-3.7612,-10.972,-15.222,-4.4569,-6.5308,-9.7607,-11.059,1.684,-0.6856,-5.818,-6.9186,-6.7057,-5.8125,-14.395,-10.344
-2.1253,-3.7415,-11.024,-15.227,-4.4988,-6.5487,-9.7922,-11.073,1.7111,-0.8743,-5.8756,-6.9143,-6.7106,-5.8422,-14.421,-10.357
-2.1253,-3.7415,-11.024,-15.227,-4.4988,-6.5487,-9.7922,-11.073,1.7111,-0.8743,-5.8756,-6.9143,-6.7106,-5.8422,-14.421,-10.357
-2.1253,-3.7415,-11.024,-15.227,-4.4988,-6.5487,-9.7922,-11.073,1.7111,-0.8743,-5.8756,-6.9143,-6.7106,-5.8422,-14.421,-10.357
-2.4389,-3.7531,-11.06,-15.309,-4.6132,-6.5881,-9.8928,-11.102,1.6557,-0.9433,-5.9563,-6.939,-6.7683,-5.8934,-14.492,-10.382
-2.4389,-3.7531,-11.06,-15.309,-4.6132,-6.5881,-9.8928,-11.102,1.6557,-0.9433,-5.9563,-6.939,-6.7683,-5.8934,-14.492,-10.382
-2.5682,-3.7822,-11.101,-15.329,-4.6731,-6.6081,-9.9526,-11.12,2.0108,-1.1567,-6.0082,-6.9578,-6.8319,-5.9109,-14.533,-10.399
-2.5682,-3.7822,-11.101,-15.329,-4.6731,-6.6081,-9.9526,-11.12,2.0108,-1.1567,-6.0082,-6.9578,-6.8319,-5.9109,-14.533,-10.399
-2.6718,-3.8198,-11.15,-15.312,-4.7205,-6.6266,-10.009,-11.14,2.4281,-1.3041,-6.0647,-6.9696,-6.8801,-5.9383,-14.567,-10.42
-2.6718,-3.8198,-11.15,-15.312,-4.7205,-6.6266,-10.009,-11.14,2.4281,-1.3041,-6.0647,-6.9696,-6.8801,-5.9383,-14.567,-10.42
-2.7916,-3.8329,-11.226,-15.309,-4.7616,-6.6443,-10.058,-11.164,2.3246,-1.0018,-6.1162,-6.9883,-6.9421,-5.9694,-14.605,-10.442
-2.7916,-3.8329,-11.226,-15.309,-4.7616,-6.6443,-10.058,-11.164,2.3246,-1.0018,-6.1162,-6.9883,-6.9421,-5.9694,-14.605,-10.442
-2.7916,-3.8329,-11.226,-15.309,-4.7616,-6.6443,-10.058,-11.164,2.3246,-1.0018,-6.1162,-6.9883,-6.9421,-5.9694,-14.605,-10.442
-2.8705,-3.8511,-11.312,-15.29,-4.7841,-6.6597,-10.107,-11.18,1.9907,-0.5203,-6.1862,-7.0109,-7.0137,-6.01,-14.653,-10.464
-2.8705,-3.8511,-11.312,-15.29,-4.7841,-6.6597,-10.107,-11.18,1.9907,-0.5203,-6.1862,-7.0109,-7.0137,-6.01,-14.653,-10.464
-2.8705,-3.8511,-11.312,-15.29,-4.7841,-6.6597,-10.107,-11.18,1.9907,-0.5203,-6.1862,-7.0109,-7.0137,-6.01,-14.653,-10.464
-2.9574,-3.857,-11.377,-15.302,-4.8006,-6.6743,-10.155,-11.194,1.4859,-0.2493,-6.2599,-7.0581,-7.1184,-6.0735,-14.721,-10.489
-3.0594,-3.8667,-11.42,-15.345,-4.8258,-6.6857,-10.204,-11.207,1.3796,-0.3962,-6.3281,-7.1276,-7.2554,-6.1593,-14.804,-10.522
-3.0594,-3.8667,-11.42,-15.345,-4.8258,-6.6857,-10.204,-11.207,1.3796,-0.3962,-6.3281,-7.1276,-7.2554,-6.1593,-14.804,-10.522
-3.0594,-3.8667,-11.42,-15.345,-4.8258,-6.6857,-10.204,-11.207,1.3796,-0.3962,-6.3281,-7.1276,-7.2554,-6.1593,-14.804,-10.522
-3.1901,-3.9114,-11.518,-15.437,-4.8981,-6.6863,-10.319,-11.246,1.6009,-0.5656,-6.5276,-7.2625,-7.5356,-6.3242,-14.976,-10.601
-3.1901,-3.9114,-11.518,-15.437,-4.8981,-6.6863,-10.319,-11.246,1.6009,-0.5656,-6.5276,-7.2625,-7.5356,-6.3242,-14.976,-10.601
-3.235,-3.9498,-11.621,-15.47,-4.9465,-6.6924,-10.387,-11.274,1.7945,-0.5428,-6.6943,-7.305,-7.6891,-6.3999,-15.065,-10.643
-3.235,-3.9498,-11.621,-15.47,-4.9465,-6.6924,-10.387,-11.274,1.7945,-0.5428,-6.6943,-7.305,-7.6891,-6.3999,-15.065,-10.643
-3.235,-3.9498,-11.621,-15.47,-4.9465,-6.6924,-10.387,-11.274,1.7945,-0.5428,-6.6943,-7.305,-7.6891,-6.3999,-15.065,-10.643
-3.3197,-3.9558,-11.713,-15.517,-5.013,-6.7007,-10.463,-11.313,1.8199,-0.2741,-6.8764,-7.3663,-7.8136,-6.4803,-15.161,-10.687
-3.3197,-3.9558,-11.713,-15.517,-5.013,-6.7007,-10.463,-11.313,1.8199,-0.2741,-6.8764,-7.3663,-7.8136,-6.4803,-15.161,-10.687
-3.397,-3.9465,-11.781,-15.572,-5.0471,-6.7175,-10.541,-11.347,1.9305,-0.1244,-7.0818,-7.4478,-7.9073,-6.5582,-15.259,-10.735
-3.397,-3.9465,-11.781,-15.572,-5.0471,-6.7175,-10.541,-11.347,1.9305,-0.1244,-7.0818,-7.4478,-7.9073,-6.5582,-15.259,-10.735
-3.5259,-3.9636,-11.887,-15.647,-5.1025,-6.7411,-10.64,-11.383,2.0175,-0.2499,-7.3009,-7.5469,-7.9938,-6.6335,-15.369,-10.784
-3.6537,-3.9808,-11.95,-15.758,-5.161,-6.7691,-10.753,-11.427,1.9056,-0.3976,-7.6212,-7.6747,-8.1191,-6.7062,-15.498,-10.842
-3.7805,-3.9981,-12.024,-15.875,-5.2245,-6.7896,-10.883,-11.478,2.2166,-0.692,-7.9786,-7.8176,-8.2569,-6.7695,-15.67,-10.916
-3.7805,-3.9981,-12.024,-15.875,-5.2245,-6.7896,-10.883,-11.478,2.2166,-0.692,-7.9786,-7.8176,-8.2569,-6.7695,-15.67,-10.916
-3.7805,-3.9981,-12.024,-15.875,-5.2245,-6.7896,-10.883,-11.478,2.2166,-0.692,-7.9786,-7.8176,-8.2569,-6.7695,-15.67,-10.916
-3.7805,-3.9981,-12.024,-15.875,-5.2245,-6.7896,-10.883,-11.478,2.2166,-0.692,-7.9786,-7.8176,-8.2569,-6.7695,-15.67,-10.916
-3.8606,-4.0315,-12.166,-15.966,-5.2765,-6.8167,-11.029,-11.544,2.2074,-1.1382,-8.4131,-7.9913,-8.4136,-6.8566,-15.854,-11.004
-3.8606,-4.0315,-12.166,-15.966,-5.2765,-6.8167,-11.029,-11.544,2.2074,-1.1382,-8.4131,-7.9913,-8.4136,-6.8566,-15.854,-11.004
-3.9257,-4.0611,-12.31,-16.076,-5.3251,-6.8392,-11.185,-11.62,1.7605,-1.2423,-8.8863,-8.2005,-8.5834,-6.953,-16.049,-11.104
-4.0275,-4.0863,-12.501,-16.21,-5.3657,-6.8729,-11.354,-11.699,1.405,-1.4577,-9.4348,-8.4189,-8.7718,-7.0601,-16.257,-11.201
-4.0275,-4.0863,-12.501,-16.21,-5.3657,-6.8729,-11.354,-11.699,1.405,-1.4577,-9.4348,-8.4189,-8.7718,-7.0601,-16.257,-11.201
-4.1142,-4.1079,-12.665,-16.329,-5.3996,-6.8975,-11.489,-11.761,0.7221,-1.8714,-10.02,-8.6771,-9.0018,-7.184,-16.467,-11.292
-4.1142,-4.1079,-12.665,-16.329,-5.3996,-6.8975,-11.489,-11.761,0.7221,-1.8714,-10.02,-8.6771,-9.0018,-7.184,-16.467,-11.292
-4.186,-4.1259,-12.827,-16.446,-5.4554,-6.9087,-11.602,-11.813,0.212,-2.4639,-10.616,-8.9421,-9.2478,-7.3174,-16.665,-11.371
-4.186,-4.1259,-12.827,-16.446,-5.4554,-6.9087,-11.602,-11.813,0.212,-2.4639,-10.616,-8.9421,-9.2478,-7.3174,-16.665,-11.371
-4.1987,-4.1559,-12.93,-16.552,-5.491,-6.9213,-11.679,-11.85,-0.3783,-3.123,-11.295,-9.2249,-9.5633,-7.4406,-16.848,-11.442
-4.1987,-4.1559,-12.93,-16.552,-5.491,-6.9213,-11.679,-11.85,-0.3783,-3.123,-11.295,-9.2249,-9.5633,-7.4406,-16.848,-11.442
-4.1987,-4.1559,-12.93,-16.552,-5.491,-6.9213,-11.679,-11.85,-0.3783,-3.123,-11.295,-9.2249,-9.5633,-7.4406,-16.848,-11.442
-4.2495,-4.1552,-13.039,-16.624,-5.5182,-6.9369,-11.718,-11.871,-0.9136,-3.5468,-11.93,-9.473,-9.8075,-7.606,-17.048,-11.508
-4.2495,-4.1552,-13.039,-16.624,-5.5182,-6.9369,-11.718,-11.871,-0.9136,-3.5468,-11.93,-9.473,-9.8075,-7.606,-17.048,-11.508
-4.3442,-4.1389,-13.15,-16.714,-5.5594,-6.9503,-11.74,-11.877,-1.7347,-3.8408,-12.541,-9.7262,-10.06,-7.7495,-17.23,-11.566
-4.3442,-4.1389,-13.15,-16.714,-5.5594,-6.9503,-11.74,-11.877,-1.7347,-3.8408,-12.541,-9.7262,-10.06,-7.7495,-17.23,-11.566
-4.3442,-4.1389,-13.15,-16.714,-5.5594,-6.9503,-11.74,-11.877,-1.7347,-3.8408,-12.541,-9.7262,-10.06,-7.7495,-17.23,-11.566
-4.5288,-4.1594,-13.295,-16.975,-5.6267,-6.971,-11.761,-11.873,-4.2674,-4.9324,-13.767,-10.243,-10.579,-8.0154,-17.625,-11.685
-4.5288,-4.1594,-13.295,-16.975,-5.6267,-6.971,-11.761,-11.873,-4.2674,-4.9324,-13.767,-10.243,-10.579,-8.0154,-17.625,-11.685
-4.5908,-4.1887,-13.343,-17.082,-5.6433,-6.9651,-11.737,-11.858,-5.9597,-5.951,-14.47,-10.538,-10.837,-8.1311,-17.856,-11.755
-4.5969,-4.2035,-13.363,-17.142,-5.6049,-6.9481,-11.658,-11.826,-8.0965,-7.402,-15.23,-10.854,-11.072,-8.2452,-18.094,-11.83
-4.5969,-4.2035,-13.363,-17.142,-5.6049,-6.9481,-11.658,-11.826,-8.0965,-7.402,-15.23,-10.854,-11.072,-8.2452,-18.094,-11.83
-4.5969,-4.2035,-13.363,-17.142,-5.6049,-6.9481,-11.658,-11.826,-8.0965,-7.402,-15.23,-10.854,-11.072,-8.2452,-18.094,-11.83
-4.5969,-4.2035,-13.363,-17.142,-5.6049,-6.9481,-11.658,-11.826,-8.0965,-7.402,-15.23,-10.854,-11.072,-8.2452,-18.094,-11.83
-4.5908,-4.1887,-13.357,-17.173,-5.5419,-6.9117,-11.517,-11.775,-10.624,-9.1715,-16.03,-11.185,-11.287,-8.3377,-18.294,-11.894
-4.5908,-4.1887,-13.357,-17.173,-5.5419,-6.9117,-11.517,-11.775,-10.624,-9.1715,-16.03,-11.185,-11.287,-8.3377,-18.294,-11.894
-4.5288,-4.1594,-13.316,-17.187,-5.4216,-6.8841,-11.341,-11.716,-13.5,-11.197,-16.757,-11.5,-11.412,-8.4597,-18.469,-11.955
-4.4526,-4.1264,-13.215,-17.223,-5.2911,-6.8512,-11.174,-11.675,-16.26,-13.74,-17.496,-11.834,-11.566,-8.5689,-18.622,-12.014
-4.4526,-4.1264,-13.215,-17.223,-5.2911,-6.8512,-11.174,-11.675,-16.26,-13.74,-17.496,-11.834,-11.566,-8.5689,-18.622,-12.014
-4.3238,-4.1203,-13.157,-17.262,-5.1798,-6.8167,-11.053,-11.657,-18.392,-16.005,-18.174,-12.14,-11.72,-8.667,-18.774,-12.081
-4.3238,-4.1203,-13.157,-17.262,-5.1798,-6.8167,-11.053,-11.657,-18.392,-16.005,-18.174,-12.14,-11.72,-8.667,-18.774,-12.081
-4.1939,-4.1144,-13.12,-17.294,-5.0855,-6.7844,-10.958,-11.656,-19.905,-17.712,-18.734,-12.391,-11.866,-8.7476,-18.928,-12.145
-4.0709,-4.0971,-13.102,-17.319,-5.0222,-6.7724,-10.879,-11.661,-20.852,-18.867,-19.2,-12.591,-12.005,-8.8114,-19.077,-12.195
-4.0709,-4.0971,-13.102,-17.319,-5.0222,-6.7724,-10.879,-11.661,-20.852,-18.867,-19.2,-12.591,-12.005,-8.8114,-19.077,-12.195
-4.0709,-4.0971,-13.102,-17.319,-5.0222,-6.7724,-10.879,-11.661,-20.852,-18.867,-19.2,-12.591,-12.005,-8.8114,-19.077,-12.195
-4.029,-4.0596,-13.085,-17.344,-4.9928,-6.777,-10.818,-11.66,-21.626,-19.726,-19.616,-12.776,-12.142,-8.8746,-19.213,-12.23
-4.029,-4.0596,-13.085,-17.344,-4.9928,-6.777,-10.818,-11.66,-21.626,-19.726,-19.616,-12.776,-12.142,-8.8746,-19.213,-12.23
-4.0451,-4.0365,-13.082,-17.392,-5.0176,-6.7883,-10.777,-11.655,-22.488,-20.302,-20.028,-12.963,-12.286,-8.9255,-19.334,-12.25
-4.0451,-4.0365,-13.082,-17.392,-5.0176,-6.7883,-10.777,-11.655,-22.488,-20.302,-20.028,-12.963,-12.286,-8.9255,-19.334,-12.25
-4.082,-4.0322,-13.068,-17.435,-5.0765,-6.8162,-10.739,-11.647,-23.27,-20.551,-20.385,-13.115,-12.445,-8.967,-19.457,-12.255
-4.082,-4.0322,-13.068,-17.435,-5.0765,-6.8162,-10.739,-11.647,-23.27,-20.551,-20.385,-13.115,-12.445,-8.967,-19.457,-12.255
-4.074,-4.0437,-13.048,-17.442,-5.1675,-6.8439,-10.676,-11.623,-24,-20.547,-20.752,-13.264,-12.584,-8.9888,-19.56,-12.237
-4.074,-4.0437,-13.048,-17.442,-5.1675,-6.8439,-10.676,-11.623,-24,-20.547,-20.752,-13.264,-12.584,-8.9888,-19.56,-12.237
-4.074,-4.0437,-13.048,-17.442,-5.1675,-6.8439,-10.676,-11.623,-24,-20.547,-20.752,-13.264,-12.584,-8.9888,-19.56,-12.237
-4.0885,-4.0473,-13.045,-17.424,-5.2703,-6.8812,-10.553,-11.566,-24.793,-20.379,-21.146,-13.415,-12.711,-9.0027,-19.621,-12.175
-4.0885,-4.0473,-13.045,-17.424,-5.2703,-6.8812,-10.553,-11.566,-24.793,-20.379,-21.146,-13.415,-12.711,-9.0027,-19.621,-12.175
-4.0965,-4.0358,-13.018,-17.396,-5.3815,-6.9236,-10.332,-11.448,-25.603,-20.136,-21.53,-13.558,-12.833,-8.9973,-19.603,-12.046
-4.1189,-4.0278,-12.968,-17.357,-5.486,-6.965,-10.065,-11.298,-26.217,-19.971,-21.857,-13.683,-12.937,-8.9958,-19.49,-11.869
-4.1189,-4.0278,-12.968,-17.357,-5.486,-6.965,-10.065,-11.298,-26.217,-19.971,-21.857,-13.683,-12.937,-8.9958,-19.49,-11.869
-4.1189,-4.0278,-12.968,-17.357,-5.486,-6.965,-10.065,-11.298,-26.217,-19.971,-21.857,-13.683,-12.937,-8.9958,-19.49,-11.869
-4.1414,-4.0199,-12.885,-17.32,-5.614,-6.9893,-9.7669,-11.12,-26.688,-20.007,-22.096,-13.786,-13.043,-9.0047,-19.283,-11.672
-4.1414,-4.0199,-12.885,-17.32,-5.614,-6.9893,-9.7669,-11.12,-26.688,-20.007,-22.096,-13.786,-13.043,-9.0047,-19.283,-11.672
-4.1414,-4.0199,-12.885,-17.32,-5.614,-6.9893,-9.7669,-11.12,-26.688,-20.007,-22.096,-13.786,-13.043,-9.0047,-19.283,-11.672
-4.0885,-4.0473,-12.742,-17.257,-5.8721,-7.0388,-9.074,-10.745,-27.903,-20.815,-22.328,-13.909,-13.288,-9.0708,-18.492,-11.226
-4.0885,-4.0473,-12.742,-17.257,-5.8721,-7.0388,-9.074,-10.745,-27.903,-20.815,-22.328,-13.909,-13.288,-9.0708,-18.492,-11.226
-4.0885,-4.0473,-12.742,-17.257,-5.8721,-7.0388,-9.074,-10.745,-27.903,-20.815,-22.328,-13.909,-13.288,-9.0708,-18.492,-11.226
-4.1189,-4.0278,-12.682,-17.23,-5.9922,-7.0784,-8.7328,-10.534,-28.488,-21.317,-22.326,-13.936,-13.386,-9.1243,-17.974,-10.98
-4.1189,-4.0278,-12.682,-17.23,-5.9922,-7.0784,-8.7328,-10.534,-28.488,-21.317,-22.326,-13.936,-13.386,-9.1243,-17.974,-10.98
-4.1189,-4.0278,-12.682,-17.23,-5.9922,-7.0784,-8.7328,-10.534,-28.488,-21.317,-22.326,-13.936,-13.386,-9.1243,-17.974,-10.98
-4.2434,-4.0188,-12.583,-17.236,-6.2204,-7.187,-8.24,-10.07,-29.32,-22.219,-22.259,-13.994,-13.555,-9.2398,-16.875,-10.416
-4.2434,-4.0188,-12.583,-17.236,-6.2204,-7.187,-8.24,-10.07,-29.32,-22.219,-22.259,-13.994,-13.555,-9.2398,-16.875,-10.416
-4.2942,-4.0182,-12.52,-17.258,-6.3082,-7.2335,-7.995,-9.8245,-29.735,-22.57,-22.232,-14.037,-13.653,-9.2971,-16.31,-10.097
-4.2942,-4.0182,-12.52,-17.258,-6.3082,-7.2335,-7.995,-9.8245,-29.735,-22.57,-22.232,-14.037,-13.653,-9.2971,-16.31,-10.097
-4.3084,-4.0219,-12.516,-17.24,-6.3815,-7.2741,-7.7375,-9.6108,-30.001,-22.736,-22.179,-14.075,-13.755,-9.3553,-15.711,-9.7433
-4.3084,-4.0219,-12.516,-17.24,-6.3815,-7.2741,-7.7375,-9.6108,-30.001,-22.736,-22.179,-14.075,-13.755,-9.3553,-15.711,-9.7433
-4.3226,-4.0256,-12.509,-17.204,-6.4297,-7.3073,-7.4281,-9.395,-30.13,-22.654,-22.075,-14.081,-13.849,-9.4154,-15.035,-9.3406
-4.3226,-4.0256,-12.509,-17.204,-6.4297,-7.3073,-7.4281,-9.395,-30.13,-22.654,-22.075,-14.081,-13.849,-9.4154,-15.035,-9.3406
-4.3226,-4.0256,-12.509,-17.204,-6.4297,-7.3073,-7.4281,-9.395,-30.13,-22.654,-22.075,-14.081,-13.849,-9.4154,-15.035,-9.3406
-4.3289,-4.0407,-12.482,-17.175,-6.4777,-7.3404,-7.0507,-9.1576,-30.455,-22.471,-21.924,-14.034,-13.974,-9.4803,-14.161,-8.8368
-4.3289,-4.0407,-12.482,-17.175,-6.4777,-7.3404,-7.0507,-9.1576,-30.455,-22.471,-21.924,-14.034,-13.974,-9.4803,-14.161,-8.8368
-4.3431,-4.0444,-12.42,-17.148,-6.5237,-7.3845,-6.6172,-8.9137,-30.977,-22.293,-21.748,-13.967,-14.137,-9.5525,-13.323,-8.3421
-4.3431,-4.0444,-12.42,-17.148,-6.5237,-7.3845,-6.6172,-8.9137,-30.977,-22.293,-21.748,-13.967,-14.137,-9.5525,-13.323,-8.3421
-4.3714,-4.0517,-12.368,-17.108,-6.5987,-7.4285,-6.2128,-8.7079,-31.595,-22.118,-21.586,-13.905,-14.34,-9.6542,-12.557,-7.8941
-4.3714,-4.0517,-12.368,-17.108,-6.5987,-7.4285,-6.2128,-8.7079,-31.595,-22.118,-21.586,-13.905,-14.34,-9.6542,-12.557,-7.8941
-4.3635,-4.0631,-12.297,-17.094,-6.7206,-7.471,-5.9032,-8.5702,-32.246,-22.022,-21.505,-13.868,-14.581,-9.7843,-11.922,-7.5415
-4.3635,-4.0631,-12.297,-17.094,-6.7206,-7.471,-5.9032,-8.5702,-32.246,-22.022,-21.505,-13.868,-14.581,-9.7843,-11.922,-7.5415
-4.3635,-4.0631,-12.297,-17.094,-6.7206,-7.471,-5.9032,-8.5702,-32.246,-22.022,-21.505,-13.868,-14.581,-9.7843,-11.922,-7.5415
-4.3317,-4.1089,-12.319,-17.154,-6.9613,-7.5961,-5.6242,-8.485,-33.582,-22.476,-21.57,-13.882,-15.146,-10.117,-11.05,-7.1242
-4.3317,-4.1089,-12.319,-17.154,-6.9613,-7.5961,-5.6242,-8.485,-33.582,-22.476,-21.57,-13.882,-15.146,-10.117,-11.05,-7.1242
-4.3317,-4.1089,-12.319,-17.154,-6.9613,-7.5961,-5.6242,-8.485,-33.582,-22.476,-21.57,-13.882,-15.146,-10.117,-11.05,-7.1242
-4.39,-4.0969,-12.397,-17.205,-7.0603,-7.6498,-5.6212,-8.512,-35.048,-23.269,-21.634,-13.898,-15.505,-10.344,-10.799,-7.0368
-4.39,-4.0969,-12.397,-17.205,-7.0603,-7.6498,-5.6212,-8.512,-35.048,-23.269,-21.634,-13.898,-15.505,-10.344,-10.799,-7.0368
-4.4622,-4.0886,-12.456,-17.281,-7.1528,-7.695,-5.6636,-8.5417,-36.555,-24.949,-21.602,-13.882,-16.033,-10.665,-10.626,-7.0061
-4.4622,-4.0886,-12.456,-17.281,-7.1528,-7.695,-5.6636,-8.5417,-36.555,-24.949,-21.602,-13.882,-16.033,-10.665,-10.626,-7.0061
-4.6039,-4.0987,-12.505,-17.417,-7.2887,-7.7568,-5.5732,-8.5174,-40.419,-28.462,-21.273,-13.74,-17.449,-11.441,-10.393,-6.9373
-4.6039,-4.0987,-12.505,-17.417,-7.2887,-7.7568,-5.5732,-8.5174,-40.419,-28.462,-21.273,-13.74,-17.449,-11.441,-10.393,-6.9373
-4.6039,-4.0987,-12.505,-17.417,-7.2887,-7.7568,-5.5732,-8.5174,-40.419,-28.462,-21.273,-13.74,-17.449,-11.441,-10.393,-6.9373
-4.6733,-4.1169,-12.538,-17.415,-7.3062,-7.7556,-5.4495,-8.4712,-41.75,-29.961,-21.037,-13.632,-18.278,-11.849,-10.287,-6.9033
-4.6733,-4.1169,-12.538,-17.415,-7.3062,-7.7556,-5.4495,-8.4712,-41.75,-29.961,-21.037,-13.632,-18.278,-11.849,-10.287,-6.9033
-4.7364,-4.1202,-12.569,-17.346,-7.3098,-7.7345,-5.3094,-8.4095,-42.703,-31.053,-20.807,-13.517,-19.081,-12.227,-10.176,-6.8625
-4.7364,-4.1202,-12.569,-17.346,-7.3098,-7.7345,-5.3094,-8.4095,-42.703,-31.053,-20.807,-13.517,-19.081,-12.227,-10.176,-6.8625
-4.7364,-4.1202,-12.569,-17.346,-7.3098,-7.7345,-5.3094,-8.4095,-42.703,-31.053,-20.807,-13.517,-19.081,-12.227,-10.176,-6.8625
-4.8071,-4.1122,-12.568,-17.28,-7.3161,-7.7173,-5.1784,-8.3555,-43.262,-31.757,-20.592,-13.412,-19.864,-12.573,-10.041,-6.8053
-4.8071,-4.1122,-12.568,-17.28,-7.3161,-7.7173,-5.1784,-8.3555,-43.262,-31.757,-20.592,-13.412,-19.864,-12.573,-10.041,-6.8053
-4.856,-4.112,-12.504,-17.235,-7.3253,-7.7041,-5.0713,-8.3026,-43.443,-32.137,-20.413,-13.321,-20.556,-12.867,-9.9047,-6.7424
-4.9106,-4.1266,-12.476,-17.206,-7.3391,-7.6843,-4.9956,-8.2696,-43.3,-32.3,-20.253,-13.249,-21.143,-13.113,-9.7976,-6.6945
-4.9378,-4.1339,-12.427,-17.185,-7.3473,-7.6564,-4.9589,-8.251,-43.014,-32.373,-20.124,-13.179,-21.612,-13.301,-9.7219,-6.6597
-4.9378,-4.1339,-12.427,-17.185,-7.3473,-7.6564,-4.9589,-8.251,-43.014,-32.373,-20.124,-13.179,-21.612,-13.301,-9.7219,-6.6597
-4.9378,-4.1339,-12.427,-17.185,-7.3473,-7.6564,-4.9589,-8.251,-43.014,-32.373,-20.124,-13.179,-21.612,-13.301,-9.7219,-6.6597
-4.9359,-4.16,-12.408,-17.143,-7.3426,-7.6229,-4.9432,-8.2355,-42.696,-32.496,-19.946,-13.081,-22.196,-13.534,-9.6956,-6.6478
-4.9359,-4.16,-12.408,-17.143,-7.3426,-7.6229,-4.9432,-8.2355,-42.696,-32.496,-19.946,-13.081,-22.196,-13.534,-9.6956,-6.6478
-4.9495,-4.1636,-12.331,-17.092,-7.3375,-7.582,-4.8846,-8.2004,-42.383,-32.736,-19.704,-12.952,-23.221,-14.087,-9.7001,-6.6462
-4.9495,-4.1636,-12.331,-17.092,-7.3375,-7.582,-4.8846,-8.2004,-42.383,-32.736,-19.704,-12.952,-23.221,-14.087,-9.7001,-6.6462
-4.9495,-4.1636,-12.331,-17.092,-7.3375,-7.582,-4.8846,-8.2004,-42.383,-32.736,-19.704,-12.952,-23.221,-14.087,-9.7001,-6.6462
-4.9805,-4.1188,-12.212,-17.005,-7.3274,-7.5402,-4.7575,-8.1282,-42.139,-33.115,-19.412,-12.808,-24.803,-15.009,-9.7176,-6.656
-4.9805,-4.1188,-12.212,-17.005,-7.3274,-7.5402,-4.7575,-8.1282,-42.139,-33.115,-19.412,-12.808,-24.803,-15.009,-9.7176,-6.656
-5.0657,-4.0888,-12.111,-16.961,-7.3511,-7.5142,-4.6425,-8.0507,-41.987,-33.595,-19.119,-12.666,-26.382,-15.982,-9.7642,-6.6782
-5.1562,-4.0737,-12.061,-16.939,-7.3978,-7.4951,-4.5554,-7.9949,-41.966,-34.15,-18.87,-12.559,-27.497,-16.868,-9.8437,-6.722
-5.1562,-4.0737,-12.061,-16.939,-7.3978,-7.4951,-4.5554,-7.9949,-41.966,-34.15,-18.87,-12.559,-27.497,-16.868,-9.8437,-6.722
-5.1562,-4.0737,-12.061,-16.939,-7.3978,-7.4951,-4.5554,-7.9949,-41.966,-34.15,-18.87,-12.559,-27.497,-16.868,-9.8437,-6.722
-5.2329,-4.055,-12.027,-16.941,-7.4297,-7.4813,-4.4953,-7.9632,-42.267,-34.922,-18.692,-12.485,-28.215,-17.634,-9.957,-6.7847
-5.2329,-4.055,-12.027,-16.941,-7.4297,-7.4813,-4.4953,-7.9632,-42.267,-34.922,-18.692,-12.485,-28.215,-17.634,-9.957,-6.7847
-5.2329,-4.055,-12.027,-16.941,-7.4297,-7.4813,-4.4953,-7.9632,-42.267,-34.922,-18.692,-12.485,-28.215,-17.634,-9.957,-6.7847
-5.2939,-4.0588,-12.17,-16.901,-7.4716,-7.4691,-4.4709,-7.9687,-43.872,-36.756,-18.53,-12.437,-29.59,-18.821,-10.261,-6.9756
-5.2939,-4.0588,-12.17,-16.901,-7.4716,-7.4691,-4.4709,-7.9687,-43.872,-36.756,-18.53,-12.437,-29.59,-18.821,-10.261,-6.9756
-5.2939,-4.0588,-12.17,-16.901,-7.4716,-7.4691,-4.4709,-7.9687,-43.872,-36.756,-18.53,-12.437,-29.59,-18.821,-10.261,-6.9756
-5.3127,-4.0774,-12.251,-16.902,-7.484,-7.4672,-4.5035,-8.0008,-44.975,-37.704,-18.481,-12.431,-30.324,-19.197,-10.422,-7.08
-5.3127,-4.0774,-12.251,-16.902,-7.484,-7.4672,-4.5035,-8.0008,-44.975,-37.704,-18.481,-12.431,-30.324,-19.197,-10.422,-7.08
-5.3601,-4.0774,-12.365,-16.901,-7.479,-7.4665,-4.5667,-8.0327,-46.159,-38.624,-18.462,-12.44,-30.988,-19.449,-10.598,-7.182
-5.4074,-4.0775,-12.436,-16.916,-7.4766,-7.4698,-4.6376,-8.0725,-47.432,-39.564,-18.481,-12.476,-31.501,-19.588,-10.775,-7.2834
-5.4337,-4.085,-12.51,-16.95,-7.479,-7.4665,-4.7112,-8.1125,-49.108,-40.763,-18.553,-12.538,-31.834,-19.637,-10.95,-7.3863
-5.4337,-4.085,-12.51,-16.95,-7.479,-7.4665,-4.7112,-8.1125,-49.108,-40.763,-18.553,-12.538,-31.834,-19.637,-10.95,-7.3863
-5.4337,-4.085,-12.51,-16.95,-7.479,-7.4665,-4.7112,-8.1125,-49.108,-40.763,-18.553,-12.538,-31.834,-19.637,-10.95,-7.3863
-5.4337,-4.085,-12.55,-16.985,-7.4479,-7.447,-4.7758,-8.1599,-52.093,-42.506,-18.651,-12.626,-31.99,-19.615,-11.113,-7.4976
-5.4337,-4.085,-12.55,-16.985,-7.4479,-7.447,-4.7758,-8.1599,-52.093,-42.506,-18.651,-12.626,-31.99,-19.615,-11.113,-7.4976
-5.4337,-4.085,-12.55,-16.985,-7.4479,-7.447,-4.7758,-8.1599,-52.093,-42.506,-18.651,-12.626,-31.99,-19.615,-11.113,-7.4976
-5.337,-4.1108,-12.58,-17.033,-7.378,-7.4107,-4.8158,-8.2035,-55.695,-45.036,-18.757,-12.711,-32.045,-19.559,-11.279,-7.623
-5.337,-4.1108,-12.58,-17.033,-7.378,-7.4107,-4.8158,-8.2035,-55.695,-45.036,-18.757,-12.711,-32.045,-19.559,-11.279,-7.623
-5.1463,-4.1109,-12.653,-17.066,-7.1309,-7.3105,-4.7773,-8.2398,-64.281,-48.498,-44.188,-3.905,-32.561,-19.722,-11.506,-7.8281
-5.1463,-4.1109,-12.653,-17.066,-7.1309,-7.3105,-4.7773,-8.2398,-64.281,-48.498,-44.188,-3.905,-32.561,-19.722,-11.506,-7.8281
-5.1463,-4.1109,-12.653,-17.066,-7.1309,-7.3105,-4.7773,-8.2398,-64.281,-48.498,-44.188,-3.905,-32.561,-19.722,-11.506,-7.8281
-5.1463,-4.1109,-12.653,-17.066,-7.1309,-7.3105,-4.7773,-8.2398,-64.281,-48.498,-44.188,-3.905,-32.561,-19.722,-11.506,-7.8281
-5.1025,-4.0588,-12.632,-17.073,-7.0096,-7.2625,-4.6887,-8.2226,-66.838,-49.19,-60.678,1.4391,-33.16,-19.998,-11.57,-7.895
-5.1025,-4.0588,-12.632,-17.073,-7.0096,-7.2625,-4.6887,-8.2226,-66.838,-49.19,-60.678,1.4391,-33.16,-19.998,-11.57,-7.895
-5.1025,-4.0588,-12.632,-17.073,-7.0096,-7.2625,-4.6887,-8.2226,-66.838,-49.19,-60.678,1.4391,-33.16,-19.998,-11.57,-7.895
-5.1025,-4.0588,-12.632,-17.073,-7.0096,-7.2625,-4.6887,-8.2226,-66.838,-49.19,-60.678,1.4391,-33.16,-19.998,-11.57,-7.895
-5.1124,-4.0214,-12.6,-17.143,-6.831,-7.1946,-4.5357,-8.1607,-69.402,-49.974,-73.228,3.9825,-33.919,-20.386,-11.686,-7.9924
-5.1124,-4.0214,-12.6,-17.143,-6.831,-7.1946,-4.5357,-8.1607,-69.402,-49.974,-73.228,3.9825,-33.919,-20.386,-11.686,-7.9924
-5.1258,-4.0251,-12.621,-17.203,-6.7693,-7.1741,-4.5789,-8.1914,-70.121,-50.21,-75.364,3.5824,-33.627,-20.233,-11.805,-8.0621
-5.1258,-4.0251,-12.621,-17.203,-6.7693,-7.1741,-4.5789,-8.1914,-70.121,-50.21,-75.364,3.5824,-33.627,-20.233,-11.805,-8.0621
-5.1393,-4.0289,-12.766,-17.267,-6.7209,-7.1595,-4.7627,-8.2992,-70.56,-50.357,-76.147,2.7077,-32.882,-19.851,-11.984,-8.1568
-5.1583,-4.0476,-13.003,-17.373,-6.6597,-7.1546,-5.0372,-8.4556,-70.863,-50.46,-77.064,2.6981,-32.071,-19.455,-12.153,-8.2467
-5.1583,-4.0476,-13.003,-17.373,-6.6597,-7.1546,-5.0372,-8.4556,-70.863,-50.46,-77.064,2.6981,-32.071,-19.455,-12.153,-8.2467
-5.1583,-4.0476,-13.003,-17.373,-6.6597,-7.1546,-5.0372,-8.4556,-70.863,-50.46,-77.064,2.6981,-32.071,-19.455,-12.153,-8.2467
-5.1773,-4.0662,-13.257,-17.535,-6.5923,-7.1411,-5.3168,-8.621,-71.073,-50.532,-78.225,3.4686,-31.167,-19.008,-12.309,-8.3284
-5.1773,-4.0662,-13.257,-17.535,-6.5923,-7.1411,-5.3168,-8.621,-71.073,-50.532,-78.225,3.4686,-31.167,-19.008,-12.309,-8.3284
-5.2441,-4.0848,-13.524,-17.733,-6.5222,-7.1312,-5.5854,-8.7678,-71.22,-50.583,-79.243,4.5902,-30.145,-18.479,-12.447,-8.3922
-5.2441,-4.0848,-13.524,-17.733,-6.5222,-7.1312,-5.5854,-8.7678,-71.22,-50.583,-79.243,4.5902,-30.145,-18.479,-12.447,-8.3922
-5.3182,-4.0922,-13.777,-17.937,-6.4482,-7.1092,-5.8506,-8.8777,-71.365,-50.559,-79.215,5.4711,-29.048,-17.892,-12.564,-8.44
-5.3182,-4.0922,-13.777,-17.937,-6.4482,-7.1092,-5.8506,-8.8777,-71.365,-50.559,-79.215,5.4711,-29.048,-17.892,-12.564,-8.44
-5.3766,-4.1219,-13.992,-18.122,-6.3922,-7.0779,-6.0353,-9.0032,-71.342,-50.567,-77.604,5.7178,-27.943,-17.281,-12.654,-8.4812
-5.3766,-4.1219,-13.992,-18.122,-6.3922,-7.0779,-6.0353,-9.0032,-71.342,-50.567,-77.604,5.7178,-27.943,-17.281,-12.654,-8.4812
-5.3766,-4.1219,-13.992,-18.122,-6.3922,-7.0779,-6.0353,-9.0032,-71.342,-50.567,-77.604,5.7178,-27.943,-17.281,-12.654,-8.4812
-5.3766,-4.1219,-13.992,-18.122,-6.3922,-7.0779,-6.0353,-9.0032,-71.342,-50.567,-77.604,5.7178,-27.943,-17.281,-12.654,-8.4812
-5.4249,-4.1881,-14.336,-18.432,-6.2819,-7.0114,-6.3137,-9.1466,-71.342,-50.567,-67.467,3.2017,-26.009,-16.161,-12.778,-8.5458
-5.4249,-4.1881,-14.336,-18.432,-6.2819,-7.0114,-6.3137,-9.1466,-71.342,-50.567,-67.467,3.2017,-26.009,-16.161,-12.778,-8.5458
-5.4795,-4.1772,-14.461,-18.528,-6.2362,-6.9812,-6.3594,-9.1748,-71.342,-50.567,-59.554,0.6075,-25.418,-15.805,-12.803,-8.5647
-5.5209,-4.1625,-14.572,-18.604,-6.1798,-6.9575,-6.3496,-9.1675,-71.342,-50.567,-50.474,-2.5138,-25.031,-15.563,-12.816,-8.5699
-5.5209,-4.1625,-14.572,-18.604,-6.1798,-6.9575,-6.3496,-9.1675,-71.342,-50.567,-50.474,-2.5138,-25.031,-15.563,-12.816,-8.5699
-5.5936,-4.17,-14.653,-18.681,-6.151,-6.9375,-6.304,-9.1393,-71.342,-50.567,-40.976,-5.8162,-24.741,-15.38,-12.822,-8.5734
-5.6454,-4.1848,-14.678,-18.76,-6.1444,-6.9206,-6.2535,-9.1005,-71.342,-50.567,-31.091,-9.2659,-24.491,-15.222,-12.838,-8.5816
-5.6454,-4.1848,-14.678,-18.76,-6.1444,-6.9206,-6.2535,-9.1005,-71.342,-50.567,-31.091,-9.2659,-24.491,-15.222,-12.838,-8.5816
-5.6454,-4.1848,-14.678,-18.76,-6.1444,-6.9206,-6.2535,-9.1005,-71.342,-50.567,-31.091,-9.2659,-24.491,-15.222,-12.838,-8.5816
-5.6561,-4.214,-14.722,-18.793,-6.1438,-6.9126,-6.2045,-9.0676,-71.342,-50.567,-21.816,-12.498,-24.246,-15.07,-12.87,-8.5936
-5.6561,-4.214,-14.722,-18.793,-6.1438,-6.9126,-6.2045,-9.0676,-71.342,-50.567,-21.816,-12.498,-24.246,-15.07,-12.87,-8.5936
-5.6561,-4.214,-14.722,-18.793,-6.1438,-6.9126,-6.2045,-9.0676,-71.342,-50.567,-21.816,-12.498,-24.246,-15.07,-12.87,-8.5936
-5.6948,-4.225,-14.775,-18.774,-6.1706,-6.9004,-6.1789,-9.044,-71.178,-50.625,-14.719,-14.908,-24.014,-14.919,-12.911,-8.6121
-5.6948,-4.225,-14.775,-18.774,-6.1706,-6.9004,-6.1789,-9.044,-71.178,-50.625,-14.719,-14.908,-24.014,-14.919,-12.911,-8.6121
-5.6948,-4.225,-14.775,-18.774,-6.1706,-6.9004,-6.1789,-9.044,-71.178,-50.625,-14.719,-14.908,-24.014,-14.919,-12.911,-8.6121
-5.7689,-4.207,-14.789,-18.753,-6.2261,-6.9082,-6.2291,-9.0494,-68.834,-51.453,-10.539,-16.104,-23.694,-14.745,-12.981,-8.6438
-5.7689,-4.207,-14.789,-18.753,-6.2261,-6.9082,-6.2291,-9.0494,-68.834,-51.453,-10.539,-16.104,-23.694,-14.745,-12.981,-8.6438
-5.7689,-4.207,-14.789,-18.753,-6.2261,-6.9082,-6.2291,-9.0494,-68.834,-51.453,-10.539,-16.104,-23.694,-14.745,-12.981,-8.6438
-5.7817,-4.2107,-14.807,-18.747,-6.2608,-6.9371,-6.339,-9.0972,-67.587,-51.909,-11.986,-15.474,-23.598,-14.72,-13.02,-8.6598
-5.7817,-4.2107,-14.807,-18.747,-6.2608,-6.9371,-6.339,-9.0972,-67.587,-51.909,-11.986,-15.474,-23.598,-14.72,-13.02,-8.6598
-5.7945,-4.2144,-14.82,-18.766,-6.3119,-6.9681,-6.5182,-9.1708,-67.602,-51.894,-16.403,-13.828,-23.479,-14.689,-13.075,-8.6773
-5.7945,-4.2144,-14.82,-18.766,-6.3119,-6.9681,-6.5182,-9.1708,-67.602,-51.894,-16.403,-13.828,-23.479,-14.689,-13.075,-8.6773
-5.8583,-4.2328,-14.935,-18.829,-6.4858,-7.0206,-7.0311,-9.3539,-69.324,-51.28,-56.03,0.252,-23.155,-14.575,-13.214,-8.7365
-5.8583,-4.2328,-14.935,-18.829,-6.4858,-7.0206,-7.0311,-9.3539,-69.324,-51.28,-56.03,0.252,-23.155,-14.575,-13.214,-8.7365
-5.8583,-4.2328,-14.935,-18.829,-6.4858,-7.0206,-7.0311,-9.3539,-69.324,-51.28,-56.03,0.252,-23.155,-14.575,-13.214,-8.7365
-5.8583,-4.2328,-14.935,-18.829,-6.4858,-7.0206,-7.0311,-9.3539,-69.324,-51.28,-56.03,0.252,-23.155,-14.575,-13.214,-8.7365
-5.856,-4.2581,-15.005,-18.859,-6.5675,-7.0402,-7.3072,-9.5014,-70.064,-51.019,-67.722,4.3784,-22.982,-14.522,-13.309,-8.7743
-5.856,-4.2581,-15.005,-18.859,-6.5675,-7.0402,-7.3072,-9.5014,-70.064,-51.019,-67.722,4.3784,-22.982,-14.522,-13.309,-8.7743
-5.8208,-4.2868,-15.068,-18.9,-6.6487,-7.0598,-7.626,-9.639,-70.576,-50.838,-73.871,6.5668,-22.927,-14.547,-13.395,-8.8162
-5.8208,-4.2868,-15.068,-18.9,-6.6487,-7.0598,-7.626,-9.639,-70.576,-50.838,-73.871,6.5668,-22.927,-14.547,-13.395,-8.8162
-5.8208,-4.2868,-15.068,-18.9,-6.6487,-7.0598,-7.626,-9.639,-70.576,-50.838,-73.871,6.5668,-22.927,-14.547,-13.395,-8.8162
-5.9069,-4.2727,-15.237,-18.973,-6.8124,-7.1457,-8.2057,-9.8948,-71.2,-50.617,-80.038,8.9612,-23.286,-14.88,-13.484,-8.8444
-5.9069,-4.2727,-15.237,-18.973,-6.8124,-7.1457,-8.2057,-9.8948,-71.2,-50.617,-80.038,8.9612,-23.286,-14.88,-13.484,-8.8444
-5.9069,-4.2727,-15.237,-18.973,-6.8124,-7.1457,-8.2057,-9.8948,-71.2,-50.617,-80.038,8.9612,-23.286,-14.88,-13.484,-8.8444
-5.9471,-4.2585,-15.299,-19.013,-6.9202,-7.1999,-8.4021,-9.9768,-71.369,-50.557,-81.649,9.738,-23.527,-15.037,-13.484,-8.8259
-5.9471,-4.2585,-15.299,-19.013,-6.9202,-7.1999,-8.4021,-9.9768,-71.369,-50.557,-81.649,9.738,-23.527,-15.037,-13.484,-8.8259
-6.0252,-4.2553,-15.364,-19.067,-7.0352,-7.2586,-8.5261,-10.019,-71.342,-50.567,-82.805,10.363,-23.87,-15.237,-13.45,-8.7862
-6.0252,-4.2553,-15.364,-19.067,-7.0352,-7.2586,-8.5261,-10.019,-71.342,-50.567,-82.805,10.363,-23.87,-15.237,-13.45,-8.7862
-6.0252,-4.2553,-15.364,-19.067,-7.0352,-7.2586,-8.5261,-10.019,-71.342,-50.567,-82.805,10.363,-23.87,-15.237,-13.45,-8.7862
-6.1079,-4.2666,-15.428,-19.121,-7.1694,-7.3124,-8.581,-10.028,-71.342,-50.567,-83.654,10.873,-24.369,-15.521,-13.393,-8.7285
-6.1727,-4.2599,-15.426,-19.16,-7.3204,-7.3723,-8.5399,-9.9919,-71.342,-50.567,-84.186,11.299,-24.911,-15.824,-13.319,-8.6576
-6.1901,-4.278,-15.416,-19.155,-7.4747,-7.4325,-8.3998,-9.9135,-71.342,-50.567,-83.884,11.454,-25.297,-16.026,-13.249,-8.5872
-6.1901,-4.278,-15.416,-19.155,-7.4747,-7.4325,-8.3998,-9.9135,-71.342,-50.567,-83.884,11.454,-25.297,-16.026,-13.249,-8.5872
-6.2274,-4.289,-15.444,-19.115,-7.6195,-7.4874,-8.1943,-9.8098,-71.342,-50.567,-82.267,11.12,-25.367,-16.034,-13.201,-8.5346
-6.2274,-4.289,-15.444,-19.115,-7.6195,-7.4874,-8.1943,-9.8098,-71.342,-50.567,-82.267,11.12,-25.367,-16.034,-13.201,-8.5346
-6.2522,-4.2963,-15.446,-19.076,-7.7472,-7.525,-7.9698,-9.7004,-71.342,-50.567,-78.589,10.021,-25.105,-15.841,-13.187,-8.5011
-6.2522,-4.2963,-15.446,-19.076,-7.7472,-7.525,-7.9698,-9.7004,-71.342,-50.567,-78.589,10.021,-25.105,-15.841,-13.187,-8.5011
-6.2769,-4.3036,-15.434,-19.058,-7.8371,-7.5606,-7.7721,-9.5998,-71.342,-50.567,-73.596,8.3815,-24.658,-15.541,-13.21,-8.4833
-6.2769,-4.3036,-15.434,-19.058,-7.8371,-7.5606,-7.7721,-9.5998,-71.342,-50.567,-73.596,8.3815,-24.658,-15.541,-13.21,-8.4833
-6.2769,-4.3036,-15.434,-19.058,-7.8371,-7.5606,-7.7721,-9.5998,-71.342,-50.567,-73.596,8.3815,-24.658,-15.541,-13.21,-8.4833
-6.3287,-4.2934,-15.428,-19.029,-7.9091,-7.5897,-7.6223,-9.5227,-71.342,-50.567,-67.331,6.2452,-24.163,-15.22,-13.255,-8.4798
-6.3287,-4.2934,-15.428,-19.029,-7.9091,-7.5897,-7.6223,-9.5227,-71.342,-50.567,-67.331,6.2452,-24.163,-15.22,-13.255,-8.4798
-6.3287,-4.2934,-15.428,-19.029,-7.9091,-7.5897,-7.6223,-9.5227,-71.342,-50.567,-67.331,6.2452,-24.163,-15.22,-13.255,-8.4798
-6.3459,-4.3113,-15.323,-18.997,-8.0896,-7.6319,-7.4732,-9.4415,-71.342,-50.567,-54.246,1.7376,-23.381,-14.718,-13.338,-8.4819
-6.3459,-4.3113,-15.323,-18.997,-8.0896,-7.6319,-7.4732,-9.4415,-71.342,-50.567,-54.246,1.7376,-23.381,-14.718,-13.338,-8.4819
-6.3459,-4.3113,-15.323,-18.997,-8.0896,-7.6319,-7.4732,-9.4415,-71.342,-50.567,-54.246,1.7376,-23.381,-14.718,-13.338,-8.4819
-6.3189,-4.3289,-15.291,-18.97,-8.1983,-7.6595,-7.4825,-9.428,-71.342,-50.567,-49.185,0.0062,-22.964,-14.446,-13.364,-8.4823
-6.3189,-4.3289,-15.291,-18.97,-8.1983,-7.6595,-7.4825,-9.428,-71.342,-50.567,-49.185,0.0062,-22.964,-14.446,-13.364,-8.4823
-6.3189,-4.3289,-15.291,-18.97,-8.1983,-7.6595,-7.4825,-9.428,-71.342,-50.567,-49.185,0.0062,-22.964,-14.446,-13.364,-8.4823
-6.3312,-4.3325,-15.266,-18.932,-8.3134,-7.6919,-7.5223,-9.4381,-71.342,-50.567,-44.9,-1.4536,-22.491,-14.13,-13.377,-8.4834
-6.3729,-4.2938,-15.234,-18.904,-8.4093,-7.7354,-7.5956,-9.4628,-71.342,-50.567,-42.088,-2.3952,-21.863,-13.813,-13.389,-8.4844
-6.3729,-4.2938,-15.234,-18.904,-8.4093,-7.7354,-7.5956,-9.4628,-71.342,-50.567,-42.088,-2.3952,-21.863,-13.813,-13.389,-8.4844
-6.3729,-4.2938,-15.234,-18.904,-8.4093,-7.7354,-7.5956,-9.4628,-71.342,-50.567,-42.088,-2.3952,-21.863,-13.813,-13.389,-8.4844
-6.4953,-4.2666,-15.174,-18.878,-8.6342,-7.8377,-7.8431,-9.5324,-71.342,-50.567,-36.697,-4.2095,-20.77,-13.022,-13.416,-8.4956
-6.4953,-4.2666,-15.174,-18.878,-8.6342,-7.8377,-7.8431,-9.5324,-71.342,-50.567,-36.697,-4.2095,-20.77,-13.022,-13.416,-8.4956
-6.5633,-4.2745,-15.14,-18.89,-8.7465,-7.8904,-7.9773,-9.5745,-71.342,-50.567,-32.617,-5.629,-20.229,-12.683,-13.424,-8.5021
-6.5633,-4.2745,-15.14,-18.89,-8.7465,-7.8904,-7.9773,-9.5745,-71.342,-50.567,-32.617,-5.629,-20.229,-12.683,-13.424,-8.5021
-6.5633,-4.2745,-15.117,-18.867,-8.8209,-7.9299,-8.0795,-9.6149,-71.342,-50.567,-28.118,-7.1993,-19.766,-12.408,-13.418,-8.507
-6.5633,-4.2745,-15.117,-18.867,-8.8209,-7.9299,-8.0795,-9.6149,-71.342,-50.567,-28.118,-7.1993,-19.766,-12.408,-13.418,-8.507
-6.5633,-4.2745,-15.117,-18.867,-8.8209,-7.9299,-8.0795,-9.6149,-71.342,-50.567,-28.118,-7.1993,-19.766,-12.408,-13.418,-8.507
-6.5317,-4.2777,-15.112,-18.838,-8.8492,-7.9551,-8.1442,-9.6474,-71.342,-50.567,-23.671,-8.7455,-19.438,-12.241,-13.376,-8.5068
-6.5317,-4.2777,-15.112,-18.838,-8.8492,-7.9551,-8.1442,-9.6474,-71.342,-50.567,-23.671,-8.7455,-19.438,-12.241,-13.376,-8.5068
-6.4318,-4.273,-15.123,-18.802,-8.8156,-7.9669,-8.1471,-9.6659,-71.342,-50.567,-19.802,-10.073,-19.229,-12.181,-13.294,-8.5028
-6.4318,-4.273,-15.123,-18.802,-8.8156,-7.9669,-8.1471,-9.6659,-71.342,-50.567,-19.802,-10.073,-19.229,-12.181,-13.294,-8.5028
-6.3311,-4.2684,-15.15,-18.8,-8.7501,-7.9807,-8.142,-9.6885,-71.019,-50.681,-16.876,-11.049,-19.062,-12.157,-13.186,-8.4902
-6.3311,-4.2684,-15.15,-18.8,-8.7501,-7.9807,-8.142,-9.6885,-71.019,-50.681,-16.876,-11.049,-19.062,-12.157,-13.186,-8.4902
-6.2174,-4.2602,-15.18,-18.813,-8.6869,-7.9984,-8.1417,-9.7155,-69.742,-50.783,-14.854,-11.663,-18.909,-12.141,-13.061,-8.4694
-6.2174,-4.2602,-15.18,-18.813,-8.6869,-7.9984,-8.1417,-9.7155,-69.742,-50.783,-14.854,-11.663,-18.909,-12.141,-13.061,-8.4694
-6.0978,-4.2378,-15.176,-18.838,-8.6694,-8.0163,-8.1151,-9.7273,-67.686,-50.221,-13.888,-11.863,-18.849,-12.168,-12.943,-8.4461
-6.0978,-4.2378,-15.176,-18.838,-8.6694,-8.0163,-8.1151,-9.7273,-67.686,-50.221,-13.888,-11.863,-18.849,-12.168,-12.943,-8.4461
-5.8635,-4.2473,-15.242,-18.948,-8.6639,-8.0462,-7.9482,-9.6933,-61.805,-47.823,-13.534,-11.674,-19.155,-12.408,-12.72,-8.4128
-5.8635,-4.2473,-15.242,-18.948,-8.6639,-8.0462,-7.9482,-9.6933,-61.805,-47.823,-13.534,-11.674,-19.155,-12.408,-12.72,-8.4128
-5.8403,-4.2146,-15.322,-19.036,-8.6571,-8.0486,-7.813,-9.661,-58.304,-46.409,-13.7,-11.477,-19.496,-12.614,-12.638,-8.3969
-5.8403,-4.2146,-15.322,-19.036,-8.6571,-8.0486,-7.813,-9.661,-58.304,-46.409,-13.7,-11.477,-19.496,-12.614,-12.638,-8.3969
-5.8426,-4.1892,-15.408,-19.113,-8.639,-8.0527,-7.6684,-9.6091,-54.898,-45.013,-13.894,-11.266,-20.129,-12.98,-12.544,-8.3652
-5.8426,-4.1892,-15.408,-19.113,-8.639,-8.0527,-7.6684,-9.6091,-54.898,-45.013,-13.894,-11.266,-20.129,-12.98,-12.544,-8.3652
-5.8426,-4.1892,-15.408,-19.113,-8.639,-8.0527,-7.6684,-9.6091,-54.898,-45.013,-13.894,-11.266,-20.129,-12.98,-12.544,-8.3652
-5.9086,-4.1823,-15.509,-19.221,-8.6273,-8.0475,-7.4653,-9.5202,-52.154,-43.821,-14.033,-11.091,-21.287,-13.615,-12.417,-8.3146
-5.9086,-4.1823,-15.509,-19.221,-8.6273,-8.0475,-7.4653,-9.5202,-52.154,-43.821,-14.033,-11.091,-21.287,-13.615,-12.417,-8.3146
-5.9086,-4.1823,-15.509,-19.221,-8.6273,-8.0475,-7.4653,-9.5202,-52.154,-43.821,-14.033,-11.091,-21.287,-13.615,-12.417,-8.3146
-5.9921,-4.1937,-15.638,-19.34,-8.5871,-8.0243,-7.1745,-9.391,-50.652,-42.982,-14.166,-10.959,-23.114,-14.613,-12.251,-8.2367
-5.9921,-4.1937,-15.638,-19.34,-8.5871,-8.0243,-7.1745,-9.391,-50.652,-42.982,-14.166,-10.959,-23.114,-14.613,-12.251,-8.2367
-6.0401,-4.2338,-15.832,-19.486,-8.5085,-7.9745,-6.8215,-9.232,-50.836,-42.745,-14.285,-10.908,-24.908,-15.638,-12.034,-8.1303
-6.1228,-4.2451,-16.115,-19.618,-8.3581,-7.8996,-6.4065,-9.0342,-52.619,-43.271,-14.487,-10.931,-27.114,-16.933,-11.779,-8.0075
-6.1228,-4.2451,-16.115,-19.618,-8.3581,-7.8996,-6.4065,-9.0342,-52.619,-43.271,-14.487,-10.931,-27.114,-16.933,-11.779,-8.0075
-6.21,-4.2709,-16.488,-19.777,-8.15,-7.798,-5.8995,-8.785,-56.104,-44.934,-14.809,-11.026,-30.254,-18.752,-11.441,-7.8313
-6.21,-4.2709,-16.488,-19.777,-8.15,-7.798,-5.8995,-8.785,-56.104,-44.934,-14.809,-11.026,-30.254,-18.752,-11.441,-7.8313
-6.304,-4.286,-16.936,-20.006,-7.8649,-7.6769,-5.2854,-8.5786,-59.948,-47.076,-15.197,-11.167,-33.451,-20.84,-11.034,-7.6078
-6.304,-4.286,-16.936,-20.006,-7.8649,-7.6769,-5.2854,-8.5786,-59.948,-47.076,-15.197,-11.167,-33.451,-20.84,-11.034,-7.6078
-6.304,-4.286,-16.936,-20.006,-7.8649,-7.6769,-5.2854,-8.5786,-59.948,-47.076,-15.197,-11.167,-33.451,-20.84,-11.034,-7.6078
-6.3729,-4.2938,-17.306,-20.223,-7.6073,-7.5845,-4.8857,-8.3757,-63.804,-48.479,-15.556,-11.31,-36.56,-22.233,-10.607,-7.3588
-6.4415,-4.3016,-17.634,-20.421,-7.4161,-7.5089,-4.6185,-8.2898,-66.556,-49.172,-15.826,-11.425,-38.485,-23.412,-10.196,-7.1163
-6.4415,-4.3016,-17.634,-20.421,-7.4161,-7.5089,-4.6185,-8.2898,-66.556,-49.172,-15.826,-11.425,-38.485,-23.412,-10.196,-7.1163
-6.5024,-4.32,-17.916,-20.608,-7.292,-7.4538,-4.5126,-8.2772,-68.336,-49.677,-15.994,-11.505,-39.497,-24.203,-9.8347,-6.9023
-6.5024,-4.32,-17.916,-20.608,-7.292,-7.4538,-4.5126,-8.2772,-68.336,-49.677,-15.994,-11.505,-39.497,-24.203,-9.8347,-6.9023
-6.5024,-4.32,-17.916,-20.608,-7.292,-7.4538,-4.5126,-8.2772,-68.336,-49.677,-15.994,-11.505,-39.497,-24.203,-9.8347,-6.9023
-6.5048,-4.3589,-18.154,-20.785,-7.219,-7.4209,-4.5581,-8.3187,-69.362,-49.988,-16.05,-11.537,-39.893,-24.153,-9.5513,-6.7359
-6.5048,-4.3589,-18.154,-20.785,-7.219,-7.4209,-4.5581,-8.3187,-69.362,-49.988,-16.05,-11.537,-39.893,-24.153,-9.5513,-6.7359
-6.4951,-4.394,-18.372,-20.952,-7.169,-7.395,-4.7018,-8.4063,-70.044,-50.203,-16.048,-11.541,-39.251,-23.752,-9.415,-6.6655
-6.4951,-4.394,-18.372,-20.952,-7.169,-7.395,-4.7018,-8.4063,-70.044,-50.203,-16.048,-11.541,-39.251,-23.752,-9.415,-6.6655
-6.5243,-4.4154,-18.587,-21.146,-7.1037,-7.3744,-4.9294,-8.5261,-70.508,-50.353,-16.044,-11.561,-37.76,-22.883,-9.3878,-6.6591
-6.5243,-4.4154,-18.587,-21.146,-7.1037,-7.3744,-4.9294,-8.5261,-70.508,-50.353,-16.044,-11.561,-37.76,-22.883,-9.3878,-6.6591
-6.693,-4.4659,-18.991,-21.552,-6.9918,-7.313,-5.5936,-8.8101,-71.04,-50.532,-16.154,-11.599,-33.113,-20.272,-9.5949,-6.8029
-6.693,-4.4659,-18.991,-21.552,-6.9918,-7.313,-5.5936,-8.8101,-71.04,-50.532,-16.154,-11.599,-33.113,-20.272,-9.5949,-6.8029
-6.693,-4.4659,-18.991,-21.552,-6.9918,-7.313,-5.5936,-8.8101,-71.04,-50.532,-16.154,-11.599,-33.113,-20.272,-9.5949,-6.8029
-6.7813,-4.505,-19.034,-21.694,-7.0383,-7.3122,-6.045,-8.9586,-70.777,-50.378,-16.025,-11.582,-30.282,-18.657,-9.8845,-6.9723
-6.7813,-4.505,-19.034,-21.694,-7.0383,-7.3122,-6.045,-8.9586,-70.777,-50.378,-16.025,-11.582,-30.282,-18.657,-9.8845,-6.9723
-6.8335,-4.5332,-18.968,-21.762,-7.1739,-7.347,-6.6539,-9.1522,-69.405,-49.758,-15.762,-11.518,-27.398,-16.954,-10.283,-7.1857
-6.8335,-4.5332,-18.968,-21.762,-7.1739,-7.347,-6.6539,-9.1522,-69.405,-49.758,-15.762,-11.518,-27.398,-16.954,-10.283,-7.1857
-6.8383,-4.547,-18.841,-21.768,-7.3475,-7.4062,-7.3356,-9.3803,-67.638,-48.327,-15.412,-11.423,-24.586,-15.208,-10.718,-7.42
-6.8383,-4.547,-18.841,-21.768,-7.3475,-7.4062,-7.3356,-9.3803,-67.638,-48.327,-15.412,-11.423,-24.586,-15.208,-10.718,-7.42
-6.8383,-4.547,-18.841,-21.768,-7.3475,-7.4062,-7.3356,-9.3803,-67.638,-48.327,-15.412,-11.423,-24.586,-15.208,-10.718,-7.42
-6.8311,-4.5573,-18.709,-21.753,-7.5367,-7.4713,-8.0036,-9.6134,-65.314,-46.778,-15.088,-11.333,-22.631,-13.891,-11.07,-7.6091
-6.8311,-4.5573,-18.709,-21.753,-7.5367,-7.4713,-8.0036,-9.6134,-65.314,-46.778,-15.088,-11.333,-22.631,-13.891,-11.07,-7.6091
-6.8311,-4.5573,-18.709,-21.753,-7.5367,-7.4713,-8.0036,-9.6134,-65.314,-46.778,-15.088,-11.333,-22.631,-13.891,-11.07,-7.6091
-6.8311,-4.5573,-18.493,-21.717,-7.8841,-7.6257,-9.2415,-10.063,-59.461,-42.901,-14.53,-11.145,-20.658,-12.445,-11.716,-7.9206
-6.8311,-4.5573,-18.493,-21.717,-7.8841,-7.6257,-9.2415,-10.063,-59.461,-42.901,-14.53,-11.145,-20.658,-12.445,-11.716,-7.9206
-6.8311,-4.5573,-18.493,-21.717,-7.8841,-7.6257,-9.2415,-10.063,-59.461,-42.901,-14.53,-11.145,-20.658,-12.445,-11.716,-7.9206
-6.8311,-4.5573,-18.427,-21.701,-8.062,-7.7101,-9.8309,-10.29,-56.477,-40.967,-14.32,-11.071,-20.505,-12.281,-12.025,-8.06
-6.8311,-4.5573,-18.427,-21.701,-8.062,-7.7101,-9.8309,-10.29,-56.477,-40.967,-14.32,-11.071,-20.505,-12.281,-12.025,-8.06
-6.8359,-4.5711,-18.365,-21.705,-8.2318,-7.7715,-10.296,-10.475,-54.077,-39.47,-14.179,-11.018,-20.7,-12.358,-12.314,-8.1827
-6.8169,-4.5778,-18.326,-21.719,-8.3871,-7.8201,-10.699,-10.634,-52.53,-38.574,-14.118,-10.995,-21.035,-12.536,-12.556,-8.2799
-6.8169,-4.5778,-18.326,-21.719,-8.3871,-7.8201,-10.699,-10.634,-52.53,-38.574,-14.118,-10.995,-21.035,-12.536,-12.556,-8.2799
-6.7719,-4.6014,-18.313,-21.724,-8.522,-7.8655,-11.025,-10.765,-51.947,-38.31,-14.134,-10.98,-21.419,-12.715,-12.726,-8.3419
-6.7719,-4.6014,-18.313,-21.724,-8.522,-7.8655,-11.025,-10.765,-51.947,-38.31,-14.134,-10.98,-21.419,-12.715,-12.726,-8.3419
-6.7719,-4.6014,-18.313,-21.724,-8.522,-7.8655,-11.025,-10.765,-51.947,-38.31,-14.134,-10.98,-21.419,-12.715,-12.726,-8.3419
-6.7529,-4.6082,-18.3,-21.728,-8.6512,-7.9169,-11.266,-10.866,-52.318,-38.544,-14.163,-10.973,-21.64,-12.911,-12.834,-8.3712
-6.7529,-4.6082,-18.3,-21.728,-8.6512,-7.9169,-11.266,-10.866,-52.318,-38.544,-14.163,-10.973,-21.64,-12.911,-12.834,-8.3712
-6.7529,-4.6082,-18.3,-21.728,-8.6512,-7.9169,-11.266,-10.866,-52.318,-38.544,-14.163,-10.973,-21.64,-12.911,-12.834,-8.3712
-6.8383,-4.547,-18.28,-21.73,-8.9846,-8.0722,-11.653,-11.023,-53.086,-38.86,-14.155,-10.942,-21.634,-12.977,-12.93,-8.3779
-6.8383,-4.547,-18.28,-21.73,-8.9846,-8.0722,-11.653,-11.023,-53.086,-38.86,-14.155,-10.942,-21.634,-12.977,-12.93,-8.3779
-6.8383,-4.547,-18.28,-21.73,-8.9846,-8.0722,-11.653,-11.023,-53.086,-38.86,-14.155,-10.942,-21.634,-12.977,-12.93,-8.3779
-6.8808,-4.5475,-18.285,-21.751,-9.187,-8.1816,-11.855,-11.107,-52.821,-38.658,-14.134,-10.928,-21.4,-12.881,-12.974,-8.378
-6.8808,-4.5475,-18.285,-21.751,-9.187,-8.1816,-11.855,-11.107,-52.821,-38.658,-14.134,-10.928,-21.4,-12.881,-12.974,-8.378
-6.9209,-4.572,-18.3,-21.785,-9.3814,-8.2756,-12.077,-11.201,-52.145,-38.264,-14.117,-10.91,-21.012,-12.699,-13.041,-8.393
-6.9491,-4.5928,-18.344,-21.792,-9.5356,-8.3462,-12.267,-11.285,-50.916,-37.56,-14.111,-10.884,-20.446,-12.419,-13.169,-8.4384
-6.9491,-4.5928,-18.344,-21.792,-9.5356,-8.3462,-12.267,-11.285,-50.916,-37.56,-14.111,-10.884,-20.446,-12.419,-13.169,-8.4384
-6.9491,-4.5928,-18.344,-21.792,-9.5356,-8.3462,-12.267,-11.285,-50.916,-37.56,-14.111,-10.884,-20.446,-12.419,-13.169,-8.4384
-6.9702,-4.6238,-18.421,-21.793,-9.6423,-8.3926,-12.458,-11.375,-48.796,-36.264,-14.084,-10.854,-19.726,-12.059,-13.337,-8.518
-6.9702,-4.6238,-18.421,-21.793,-9.6423,-8.3926,-12.458,-11.375,-48.796,-36.264,-14.084,-10.854,-19.726,-12.059,-13.337,-8.518
-6.9702,-4.6238,-18.421,-21.793,-9.6423,-8.3926,-12.458,-11.375,-48.796,-36.264,-14.084,-10.854,-19.726,-12.059,-13.337,-8.518
-7.0613,-4.6757,-18.604,-21.835,-9.7915,-8.465,-12.828,-11.55,-42.466,-32.066,-13.793,-10.706,-17.941,-11.175,-13.699,-8.6873
-7.0613,-4.6757,-18.604,-21.835,-9.7915,-8.465,-12.828,-11.55,-42.466,-32.066,-13.793,-10.706,-17.941,-11.175,-13.699,-8.6873
-7.0613,-4.6757,-18.604,-21.835,-9.7915,-8.465,-12.828,-11.55,-42.466,-32.066,-13.793,-10.706,-17.941,-11.175,-13.699,-8.6873
-7.0938,-4.7098,-18.665,-21.858,-9.852,-8.5068,-13.005,-11.63,-37.851,-28.886,-13.489,-10.554,-17.058,-10.713,-13.865,-8.7511
-7.0938,-4.7098,-18.665,-21.858,-9.852,-8.5068,-13.005,-11.63,-37.851,-28.886,-13.489,-10.554,-17.058,-10.713,-13.865,-8.7511
-7.1564,-4.7408,-18.715,-21.869,-9.9246,-8.544,-13.208,-11.726,-31.861,-24.736,-13.048,-10.327,-16.109,-10.21,-14.022,-8.7983
-7.1564,-4.7408,-18.715,-21.869,-9.9246,-8.544,-13.208,-11.726,-31.861,-24.736,-13.048,-10.327,-16.109,-10.21,-14.022,-8.7983
-7.2255,-4.7616,-18.704,-21.883,-10.017,-8.5717,-13.484,-11.832,-24.098,-19.176,-12.486,-10.03,-15.144,-9.676,-14.164,-8.8316
-7.3103,-4.7993,-18.677,-21.882,-10.111,-8.5901,-13.713,-11.99,-13.573,-10.557,-11.823,-9.6992,-14.221,-9.1602,-14.268,-8.8549
-7.3354,-4.8427,-18.599,-21.87,-10.208,-8.6029,-13.944,-12.115,-9.568,34.461,-11.169,-9.3525,-13.412,-8.7022,-14.335,-8.8608
-7.3354,-4.8427,-18.599,-21.87,-10.208,-8.6029,-13.944,-12.115,-9.568,34.461,-11.169,-9.3525,-13.412,-8.7022,-14.335,-8.8608
-7.3354,-4.8427,-18.599,-21.87,-10.208,-8.6029,-13.944,-12.115,-9.568,34.461,-11.169,-9.3525,-13.412,-8.7022,-14.335,-8.8608
-7.3536,-4.8958,-18.5,-21.861,-10.28,-8.6179,-14.155,-12.238,71.322,35.518,-10.546,-8.9986,-12.757,-8.3348,-14.378,-8.8702
-7.3536,-4.8958,-18.5,-21.861,-10.28,-8.6179,-14.155,-12.238,71.322,35.518,-10.546,-8.9986,-12.757,-8.3348,-14.378,-8.8702
-7.3536,-4.8958,-18.5,-21.861,-10.28,-8.6179,-14.155,-12.238,71.322,35.518,-10.546,-8.9986,-12.757,-8.3348,-14.378,-8.8702
-7.4217,-4.9162,-18.405,-21.844,-10.327,-8.6226,-14.354,-12.358,71.322,35.518,-10.102,-8.7217,-12.242,-8.0484,-14.416,-8.8865
-7.4217,-4.9162,-18.405,-21.844,-10.327,-8.6226,-14.354,-12.358,71.322,35.518,-10.102,-8.7217,-12.242,-8.0484,-14.416,-8.8865
-7.4985,-4.9039,-18.305,-21.834,-10.333,-8.6205,-14.512,-12.46,71.322,35.518,-9.7666,-8.5091,-11.903,-7.8798,-14.429,-8.896
-7.4985,-4.9039,-18.305,-21.834,-10.333,-8.6205,-14.512,-12.46,71.322,35.518,-9.7666,-8.5091,-11.903,-7.8798,-14.429,-8.896
-7.5614,-4.9111,-18.204,-21.825,-10.313,-8.6171,-14.617,-12.532,71.322,35.518,-9.4708,-8.3549,-11.634,-7.7766,-14.4,-8.8962
-7.5231,-4.9468,-18.048,-21.823,-10.27,-8.6131,-14.659,-12.578,71.322,35.518,-9.2036,-8.2462,-11.433,-7.69,-14.323,-8.8756
-7.5231,-4.9468,-18.048,-21.823,-10.27,-8.6131,-14.659,-12.578,71.322,35.518,-9.2036,-8.2462,-11.433,-7.69,-14.323,-8.8756
-7.4352,-4.9557,-17.908,-21.81,-10.233,-8.6069,-14.634,-12.598,14.404,6.0999,-8.9339,-8.1572,-11.26,-7.6017,-14.194,-8.8291
-7.4352,-4.9557,-17.908,-21.81,-10.233,-8.6069,-14.634,-12.598,14.404,6.0999,-8.9339,-8.1572,-11.26,-7.6017,-14.194,-8.8291
-7.3127,-4.9547,-17.775,-21.771,-10.19,-8.6093,-14.555,-12.581,8.5906,-0.5247,-8.6665,-8.069,-11.099,-7.511,-14.024,-8.766
-7.3127,-4.9547,-17.775,-21.771,-10.19,-8.6093,-14.555,-12.581,8.5906,-0.5247,-8.6665,-8.069,-11.099,-7.511,-14.024,-8.766
-7.3127,-4.9547,-17.775,-21.771,-10.19,-8.6093,-14.555,-12.581,8.5906,-0.5247,-8.6665,-8.069,-11.099,-7.511,-14.024,-8.766
-7.1616,-4.9339,-17.68,-21.689,-10.159,-8.6138,-14.441,-12.545,5.7249,-2.984,-8.4257,-7.9733,-10.95,-7.4352,-13.839,-8.6966
-7.1616,-4.9339,-17.68,-21.689,-10.159,-8.6138,-14.441,-12.545,5.7249,-2.984,-8.4257,-7.9733,-10.95,-7.4352,-13.839,-8.6966
-7.0342,-4.8968,-17.599,-21.63,-10.149,-8.6216,-14.318,-12.501,3.793,-4.0252,-8.2129,-7.8695,-10.811,-7.3683,-13.645,-8.6314
-7.0342,-4.8968,-17.599,-21.63,-10.149,-8.6216,-14.318,-12.501,3.793,-4.0252,-8.2129,-7.8695,-10.811,-7.3683,-13.645,-8.6314
-7.0342,-4.8968,-17.599,-21.63,-10.149,-8.6216,-14.318,-12.501,3.793,-4.0252,-8.2129,-7.8695,-10.811,-7.3683,-13.645,-8.6314
-6.7758,-4.8222,-17.407,-21.551,-10.146,-8.6588,-14.099,-12.418,1.3043,-3.6475,-7.8922,-7.6836,-10.63,-7.2762,-13.353,-8.5328
-6.7758,-4.8222,-17.407,-21.551,-10.146,-8.6588,-14.099,-12.418,1.3043,-3.6475,-7.8922,-7.6836,-10.63,-7.2762,-13.353,-8.5328
-6.6666,-4.8151,-17.335,-21.534,-10.137,-8.6792,-14.035,-12.393,0.5489,-3.5894,-7.7694,-7.6271,-10.579,-7.2657,-13.307,-8.5147
-6.6666,-4.8151,-17.335,-21.534,-10.137,-8.6792,-14.035,-12.393,0.5489,-3.5894,-7.7694,-7.6271,-10.579,-7.2657,-13.307,-8.5147
-6.6666,-4.8151,-17.335,-21.534,-10.137,-8.6792,-14.035,-12.393,0.5489,-3.5894,-7.7694,-7.6271,-10.579,-7.2657,-13.307,-8.5147
-6.6188,-4.8015,-17.291,-21.538,-10.145,-8.6868,-14.019,-12.392,0.0002,-3.6687,-7.6145,-7.6149,-10.57,-7.2688,-13.316,-8.5212
-6.6188,-4.8015,-17.291,-21.538,-10.145,-8.6868,-14.019,-12.392,0.0002,-3.6687,-7.6145,-7.6149,-10.57,-7.2688,-13.316,-8.5212
-6.6188,-4.8015,-17.291,-21.538,-10.145,-8.6868,-14.019,-12.392,0.0002,-3.6687,-7.6145,-7.6149,-10.57,-7.2688,-13.316,-8.5212
-6.6188,-4.8015,-17.291,-21.538,-10.145,-8.6868,-14.019,-12.392,0.0002,-3.6687,-7.6145,-7.6149,-10.57,-7.2688,-13.316,-8.5212
-6.4643,-4.879,-17.319,-21.528,-10.157,-8.6636,-14.134,-12.458,-0.2881,-4.0957,-7.4552,-7.5506,-10.608,-7.2981,-13.431,-8.6058
-6.4643,-4.879,-17.319,-21.528,-10.157,-8.6636,-14.134,-12.458,-0.2881,-4.0957,-7.4552,-7.5506,-10.608,-7.2981,-13.431,-8.6058
-6.4885,-4.8857,-17.344,-21.537,-10.154,-8.6538,-14.221,-12.514,-0.4263,-4.3663,-7.418,-7.5055,-10.639,-7.3194,-13.495,-8.6601
-6.5647,-4.8588,-17.36,-21.543,-10.144,-8.649,-14.3,-12.571,-0.4667,-4.5397,-7.3844,-7.4833,-10.635,-7.3526,-13.55,-8.7095
-6.5647,-4.8588,-17.36,-21.543,-10.144,-8.649,-14.3,-12.571,-0.4667,-4.5397,-7.3844,-7.4833,-10.635,-7.3526,-13.55,-8.7095
-6.5647,-4.8588,-17.36,-21.543,-10.144,-8.649,-14.3,-12.571,-0.4667,-4.5397,-7.3844,-7.4833,-10.635,-7.3526,-13.55,-8.7095
-6.6596,-4.8252,-17.377,-21.549,-10.14,-8.6483,-14.366,-12.61,-0.5725,-4.5024,-7.3763,-7.4666,-10.612,-7.3855,-13.581,-8.7383
-6.6596,-4.8252,-17.377,-21.549,-10.14,-8.6483,-14.366,-12.61,-0.5725,-4.5024,-7.3763,-7.4666,-10.612,-7.3855,-13.581,-8.7383
-6.6596,-4.8252,-17.377,-21.549,-10.14,-8.6483,-14.366,-12.61,-0.5725,-4.5024,-7.3763,-7.4666,-10.612,-7.3855,-13.581,-8.7383
-6.7689,-4.8322,-17.391,-21.574,-10.146,-8.6462,-14.41,-12.636,-0.4752,-4.4119,-7.3758,-7.4814,-10.633,-7.4205,-13.614,-8.7694
-6.7689,-4.8322,-17.391,-21.574,-10.146,-8.6462,-14.41,-12.636,-0.4752,-4.4119,-7.3758,-7.4814,-10.633,-7.4205,-13.614,-8.7694
-6.8987,-4.8695,-17.389,-21.622,-10.114,-8.6063,-14.45,-12.657,0.3062,-4.11,-7.4078,-7.5625,-10.852,-7.5114,-13.721,-8.8705
-6.8987,-4.8695,-17.389,-21.622,-10.114,-8.6063,-14.45,-12.657,0.3062,-4.11,-7.4078,-7.5625,-10.852,-7.5114,-13.721,-8.8705
-6.8918,-4.8795,-17.416,-21.612,-10.074,-8.584,-14.454,-12.664,1.2126,-4.1644,-7.4281,-7.6037,-10.986,-7.5646,-13.776,-8.9232
-6.8918,-4.8795,-17.416,-21.612,-10.074,-8.584,-14.454,-12.664,1.2126,-4.1644,-7.4281,-7.6037,-10.986,-7.5646,-13.776,-8.9232
-6.8918,-4.8795,-17.416,-21.612,-10.074,-8.584,-14.454,-12.664,1.2126,-4.1644,-7.4281,-7.6037,-10.986,-7.5646,-13.776,-8.9232
-6.8357,-4.8993,-17.46,-21.579,-10.031,-8.5645,-14.458,-12.67,1.7434,-4.1488,-7.4443,-7.6366,-11.08,-7.6275,-13.816,-8.9717
-6.8357,-4.8993,-17.46,-21.579,-10.031,-8.5645,-14.458,-12.67,1.7434,-4.1488,-7.4443,-7.6366,-11.08,-7.6275,-13.816,-8.9717
-6.8052,-4.9026,-17.479,-21.567,-10.002,-8.547,-14.468,-12.682,1.9157,-3.8635,-7.4396,-7.6575,-11.157,-7.6791,-13.838,-9.0134
-6.8052,-4.9026,-17.479,-21.567,-10.002,-8.547,-14.468,-12.682,1.9157,-3.8635,-7.4396,-7.6575,-11.157,-7.6791,-13.838,-9.0134
-6.7746,-4.9059,-17.506,-21.557,-9.9661,-8.538,-14.492,-12.696,1.5219,-3.2957,-7.4565,-7.6611,-11.21,-7.7178,-13.858,-9.0487
-6.7746,-4.9059,-17.506,-21.557,-9.9661,-8.538,-14.492,-12.696,1.5219,-3.2957,-7.4565,-7.6611,-11.21,-7.7178,-13.858,-9.0487
-6.7439,-4.9092,-17.522,-21.563,-9.8909,-8.5386,-14.558,-12.727,0.8972,-2.9287,-7.4436,-7.6657,-11.255,-7.7698,-13.914,-9.0704
-6.7439,-4.9092,-17.522,-21.563,-9.8909,-8.5386,-14.558,-12.727,0.8972,-2.9287,-7.4436,-7.6657,-11.255,-7.7698,-13.914,-9.0704
-6.737,-4.9191,-17.517,-21.571,-9.8822,-8.5309,-14.599,-12.739,0.7495,-3.239,-7.3961,-7.692,-11.282,-7.7838,-13.947,-9.0767
-6.737,-4.9191,-17.517,-21.571,-9.8822,-8.5309,-14.599,-12.739,0.7495,-3.239,-7.3961,-7.692,-11.282,-7.7838,-13.947,-9.0767
-6.737,-4.9191,-17.517,-21.571,-9.8822,-8.5309,-14.599,-12.739,0.7495,-3.239,-7.3961,-7.692,-11.282,-7.7838,-13.947,-9.0767
-6.737,-4.9191,-17.517,-21.571,-9.8822,-8.5309,-14.599,-12.739,0.7495,-3.239,-7.3961,-7.692,-11.282,-7.7838,-13.947,-9.0767
-6.6925,-4.9424,-17.498,-21.584,-9.8964,-8.5172,-14.631,-12.757,0.826,-3.4785,-7.3533,-7.6976,-11.284,-7.7898,-13.967,-9.0837
-6.6925,-4.9424,-17.498,-21.584,-9.8964,-8.5172,-14.631,-12.757,0.826,-3.4785,-7.3533,-7.6976,-11.284,-7.7898,-13.967,-9.0837
-6.6925,-4.9424,-17.498,-21.584,-9.8964,-8.5172,-14.631,-12.757,0.826,-3.4785,-7.3533,-7.6976,-11.284,-7.7898,-13.967,-9.0837
-6.6478,-4.9657,-17.495,-21.573,-9.9438,-8.4961,-14.691,-12.784,0.9543,-3.6635,-7.3549,-7.6248,-11.277,-7.7822,-13.999,-9.0956
-6.6478,-4.9657,-17.495,-21.573,-9.9438,-8.4961,-14.691,-12.784,0.9543,-3.6635,-7.3549,-7.6248,-11.277,-7.7822,-13.999,-9.0956
-6.6994,-4.9324,-17.492,-21.562,-9.9688,-8.4938,-14.714,-12.798,1.064,-3.5626,-7.3471,-7.5937,-11.254,-7.7803,-14.009,-9.1021
-6.6994,-4.9324,-17.492,-21.562,-9.9688,-8.4938,-14.714,-12.798,1.064,-3.5626,-7.3471,-7.5937,-11.254,-7.7803,-14.009,-9.1021
-6.7815,-4.8959,-17.484,-21.559,-9.9835,-8.4994,-14.746,-12.808,1.1746,-3.4604,-7.3348,-7.5689,-11.201,-7.7855,-14.019,-9.1065
-6.7815,-4.8959,-17.484,-21.559,-9.9835,-8.4994,-14.746,-12.808,1.1746,-3.4604,-7.3348,-7.5689,-11.201,-7.7855,-14.019,-9.1065
-6.7815,-4.8959,-17.484,-21.559,-9.9835,-8.4994,-14.746,-12.808,1.1746,-3.4604,-7.3348,-7.5689,-11.201,-7.7855,-14.019,-9.1065
-6.878,-4.8995,-17.482,-21.578,-10.013,-8.5106,-14.789,-12.815,1.1746,-3.4604,-7.3177,-7.5653,-11.179,-7.7898,-14.037,-9.109
-6.878,-4.8995,-17.482,-21.578,-10.013,-8.5106,-14.789,-12.815,1.1746,-3.4604,-7.3177,-7.5653,-11.179,-7.7898,-14.037,-9.109
-6.9855,-4.9065,-17.443,-21.603,-10.038,-8.5211,-14.837,-12.818,1.1192,-3.5116,-7.3177,-7.5653,-11.185,-7.7808,-14.057,-9.1121
-7.0622,-4.9168,-17.43,-21.608,-10.072,-8.5266,-14.885,-12.827,1.3043,-3.6475,-7.3221,-7.5588,-11.222,-7.7543,-14.079,-9.1157
-7.0622,-4.9168,-17.43,-21.608,-10.072,-8.5266,-14.885,-12.827,1.3043,-3.6475,-7.3221,-7.5588,-11.222,-7.7543,-14.079,-9.1157
-7.0622,-4.9168,-17.43,-21.608,-10.072,-8.5266,-14.885,-12.827,1.3043,-3.6475,-7.3221,-7.5588,-11.222,-7.7543,-14.079,-9.1157
-7.1085,-4.9303,-17.454,-21.587,-10.091,-8.5329,-14.931,-12.834,1.98,-3.9562,-7.3352,-7.5542,-11.242,-7.744,-14.103,-9.1215
-7.1085,-4.9303,-17.454,-21.587,-10.091,-8.5329,-14.931,-12.834,1.98,-3.9562,-7.3352,-7.5542,-11.242,-7.744,-14.103,-9.1215
-7.1085,-4.9303,-17.454,-21.587,-10.091,-8.5329,-14.931,-12.834,1.98,-3.9562,-7.3352,-7.5542,-11.242,-7.744,-14.103,-9.1215
-7.1085,-4.9303,-17.454,-21.587,-10.091,-8.5329,-14.931,-12.834,1.98,-3.9562,-7.3352,-7.5542,-11.242,-7.744,-14.103,-9.1215
-7.1364,-4.9503,-17.519,-21.493,-10.124,-8.5384,-15.012,-12.854,2.6056,-4.0368,-7.3656,-7.5386,-11.28,-7.7341,-14.125,-9.1351
-7.1364,-4.9503,-17.519,-21.493,-10.124,-8.5384,-15.012,-12.854,2.6056,-4.0368,-7.3656,-7.5386,-11.28,-7.7341,-14.125,-9.1351
-7.1364,-4.9503,-17.519,-21.493,-10.124,-8.5384,-15.012,-12.854,2.6056,-4.0368,-7.3656,-7.5386,-11.28,-7.7341,-14.125,-9.1351
-7.1594,-4.957,-17.544,-21.473,-10.132,-8.5461,-15.048,-12.867,2.0949,-3.7143,-7.3957,-7.5377,-11.28,-7.7507,-14.14,-9.1427
-7.1594,-4.957,-17.544,-21.473,-10.132,-8.5461,-15.048,-12.867,2.0949,-3.7143,-7.3957,-7.5377,-11.28,-7.7507,-14.14,-9.1427
-7.2466,-4.9707,-17.587,-21.469,-10.129,-8.5709,-15.123,-12.889,0.9447,-3.5204,-7.4293,-7.5598,-11.326,-7.7649,-14.195,-9.1348
-7.2466,-4.9707,-17.587,-21.469,-10.129,-8.5709,-15.123,-12.889,0.9447,-3.5204,-7.4293,-7.5598,-11.326,-7.7649,-14.195,-9.1348
-7.2513,-4.9838,-17.582,-21.477,-10.153,-8.5623,-15.162,-12.895,0.381,-3.599,-7.3986,-7.59,-11.362,-7.7655,-14.226,-9.1288
-7.2513,-4.9838,-17.582,-21.477,-10.153,-8.5623,-15.162,-12.895,0.381,-3.599,-7.3986,-7.59,-11.362,-7.7655,-14.226,-9.1288
-7.208,-5.0065,-17.577,-21.485,-10.172,-8.5558,-15.192,-12.907,0.3397,-3.7887,-7.3812,-7.601,-11.38,-7.7658,-14.246,-9.128
-7.208,-5.0065,-17.577,-21.485,-10.172,-8.5558,-15.192,-12.907,0.3397,-3.7887,-7.3812,-7.601,-11.38,-7.7658,-14.246,-9.128
-7.1511,-5.0487,-17.571,-21.493,-10.198,-8.5507,-15.224,-12.917,0.5773,-4.007,-7.3989,-7.5753,-11.385,-7.7674,-14.26,-9.1295
-7.1511,-5.0487,-17.571,-21.493,-10.198,-8.5507,-15.224,-12.917,0.5773,-4.007,-7.3989,-7.5753,-11.385,-7.7674,-14.26,-9.1295
-7.1443,-5.0585,-17.582,-21.477,-10.219,-8.5478,-15.25,-12.927,0.7532,-4.1358,-7.4257,-7.5368,-11.39,-7.769,-14.27,-9.1322
-7.1443,-5.0585,-17.582,-21.477,-10.219,-8.5478,-15.25,-12.927,0.7532,-4.1358,-7.4257,-7.5368,-11.39,-7.769,-14.27,-9.1322
-7.208,-5.0065,-17.574,-21.474,-10.231,-8.5498,-15.274,-12.94,0.9844,-4.2174,-7.4565,-7.5065,-11.39,-7.769,-14.285,-9.1359
-7.208,-5.0065,-17.574,-21.474,-10.231,-8.5498,-15.274,-12.94,0.9844,-4.2174,-7.4565,-7.5065,-11.39,-7.769,-14.285,-9.1359
-7.208,-5.0065,-17.574,-21.474,-10.231,-8.5498,-15.274,-12.94,0.9844,-4.2174,-7.4565,-7.5065,-11.39,-7.769,-14.285,-9.1359
-7.2717,-4.9544,-17.585,-21.458,-10.249,-8.5498,-15.305,-12.95,0.8617,-4.0405,-7.4913,-7.4845,-11.374,-7.7747,-14.3,-9.1357
-7.2717,-4.9544,-17.585,-21.458,-10.249,-8.5498,-15.305,-12.95,0.8617,-4.0405,-7.4913,-7.4845,-11.374,-7.7747,-14.3,-9.1357
-7.2717,-4.9544,-17.585,-21.458,-10.249,-8.5498,-15.305,-12.95,0.8617,-4.0405,-7.4913,-7.4845,-11.374,-7.7747,-14.3,-9.1357
-7.2717,-4.9544,-17.585,-21.458,-10.249,-8.5498,-15.305,-12.95,0.8617,-4.0405,-7.4913,-7.4845,-11.374,-7.7747,-14.3,-9.1357
-7.3877,-4.906,-17.615,-21.43,-10.264,-8.5617,-15.338,-12.959,0.9447,-3.5204,-7.4663,-7.4641,-11.258,-7.7924,-14.281,-9.1132
-7.3877,-4.906,-17.615,-21.43,-10.264,-8.5617,-15.338,-12.959,0.9447,-3.5204,-7.4663,-7.4641,-11.258,-7.7924,-14.281,-9.1132
-7.4103,-4.9128,-17.587,-21.439,-10.252,-8.566,-15.311,-12.954,0.9993,-3.4693,-7.4068,-7.4509,-11.187,-7.7869,-14.222,-9.0882
-7.4103,-4.9128,-17.587,-21.439,-10.252,-8.566,-15.311,-12.954,0.9993,-3.4693,-7.4068,-7.4509,-11.187,-7.7869,-14.222,-9.0882
-7.374,-4.9257,-17.503,-21.457,-10.219,-8.5669,-15.26,-12.94,1.0541,-3.4178,-7.2911,-7.433,-11.119,-7.7603,-14.123,-9.0569
-7.374,-4.9257,-17.503,-21.457,-10.219,-8.5669,-15.26,-12.94,1.0541,-3.4178,-7.2911,-7.433,-11.119,-7.7603,-14.123,-9.0569
-7.2327,-4.9311,-17.398,-21.459,-10.161,-8.5573,-15.183,-12.927,1.5395,-3.5893,-7.1265,-7.4122,-11.058,-7.714,-13.99,-9.0215
-7.2327,-4.9311,-17.398,-21.459,-10.161,-8.5573,-15.183,-12.927,1.5395,-3.5893,-7.1265,-7.4122,-11.058,-7.714,-13.99,-9.0215
-7.0437,-4.9234,-17.313,-21.417,-10.091,-8.5457,-15.101,-12.913,2.4093,-3.7537,-6.9114,-7.3889,-10.975,-7.6718,-13.839,-8.9856
-6.8544,-4.8927,-17.226,-21.375,-10.02,-8.5341,-15.02,-12.902,2.6586,-3.551,-6.7612,-7.3268,-10.901,-7.6325,-13.669,-8.9556
-6.8544,-4.8927,-17.226,-21.375,-10.02,-8.5341,-15.02,-12.902,2.6586,-3.551,-6.7612,-7.3268,-10.901,-7.6325,-13.669,-8.9556
-6.7004,-4.8488,-17.142,-21.345,-9.9449,-8.5282,-14.955,-12.895,2.5701,-2.9937,-6.5997,-7.2929,-10.831,-7.6054,-13.54,-8.9318
-6.7004,-4.8488,-17.142,-21.345,-9.9449,-8.5282,-14.955,-12.895,2.5701,-2.9937,-6.5997,-7.2929,-10.831,-7.6054,-13.54,-8.9318
-6.7004,-4.8488,-17.142,-21.345,-9.9449,-8.5282,-14.955,-12.895,2.5701,-2.9937,-6.5997,-7.2929,-10.831,-7.6054,-13.54,-8.9318
-6.5426,-4.8284,-17.063,-21.336,-9.8676,-8.5317,-14.907,-12.892,2.4056,-2.4662,-6.4913,-7.255,-10.769,-7.5861,-13.445,-8.9087
-6.4439,-4.8251,-17.004,-21.345,-9.8196,-8.54,-14.883,-12.892,2.1245,-2.2064,-6.4139,-7.2312,-10.72,-7.5824,-13.392,-8.8876
-6.4439,-4.8251,-17.004,-21.345,-9.8196,-8.54,-14.883,-12.892,2.1245,-2.2064,-6.4139,-7.2312,-10.72,-7.5824,-13.392,-8.8876
-6.4439,-4.8251,-17.004,-21.345,-9.8196,-8.54,-14.883,-12.892,2.1245,-2.2064,-6.4139,-7.2312,-10.72,-7.5824,-13.392,-8.8876
-6.4004,-4.8251,-16.97,-21.363,-9.8031,-8.5501,-14.877,-12.894,1.9619,-2.5463,-6.3678,-7.2372,-10.7,-7.593,-13.376,-8.8694
-6.4004,-4.8251,-16.97,-21.363,-9.8031,-8.5501,-14.877,-12.894,1.9619,-2.5463,-6.3678,-7.2372,-10.7,-7.593,-13.376,-8.8694
-6.4004,-4.8251,-16.97,-21.363,-9.8031,-8.5501,-14.877,-12.894,1.9619,-2.5463,-6.3678,-7.2372,-10.7,-7.593,-13.376,-8.8694
-6.3985,-4.8488,-16.948,-21.395,-9.8494,-8.5511,-14.906,-12.906,1.8202,-3.181,-6.2659,-7.263,-10.695,-7.5913,-13.383,-8.8524
-6.3985,-4.8488,-16.948,-21.395,-9.8494,-8.5511,-14.906,-12.906,1.8202,-3.181,-6.2659,-7.263,-10.695,-7.5913,-13.383,-8.8524
-6.3985,-4.8488,-16.948,-21.395,-9.8494,-8.5511,-14.906,-12.906,1.8202,-3.181,-6.2659,-7.263,-10.695,-7.5913,-13.383,-8.8524
-6.3774,-4.8792,-16.984,-21.388,-9.8976,-8.5493,-14.937,-12.914,2.1422,-3.3685,-6.2616,-7.2388,-10.693,-7.5851,-13.398,-8.8499
-6.3774,-4.8792,-16.984,-21.388,-9.8976,-8.5493,-14.937,-12.914,2.1422,-3.3685,-6.2616,-7.2388,-10.693,-7.5851,-13.398,-8.8499
-6.3774,-4.8792,-16.984,-21.388,-9.8976,-8.5493,-14.937,-12.914,2.1422,-3.3685,-6.2616,-7.2388,-10.693,-7.5851,-13.398,-8.8499
-6.3686,-4.9128,-17.007,-21.386,-9.9334,-8.5582,-14.97,-12.926,2.3376,-3.5109,-6.2944,-7.2066,-10.702,-7.5713,-13.413,-8.8496
-6.3686,-4.9128,-17.007,-21.386,-9.9334,-8.5582,-14.97,-12.926,2.3376,-3.5109,-6.2944,-7.2066,-10.702,-7.5713,-13.413,-8.8496
-6.5146,-4.8689,-17.044,-21.41,-9.9864,-8.5826,-15.038,-12.963,2.5226,-3.3549,-6.3505,-7.1714,-10.664,-7.5708,-13.411,-8.8491
-6.5146,-4.8689,-17.044,-21.41,-9.9864,-8.5826,-15.038,-12.963,2.5226,-3.3549,-6.3505,-7.1714,-10.664,-7.5708,-13.411,-8.8491
-6.5957,-4.8554,-17.078,-21.422,-10.014,-8.5965,-15.086,-12.98,2.3925,-3.309,-6.3919,-7.1722,-10.637,-7.5736,-13.401,-8.8446
-6.5957,-4.8554,-17.078,-21.422,-10.014,-8.5965,-15.086,-12.98,2.3925,-3.309,-6.3919,-7.1722,-10.637,-7.5736,-13.401,-8.8446
-6.5957,-4.8554,-17.078,-21.422,-10.014,-8.5965,-15.086,-12.98,2.3925,-3.309,-6.3919,-7.1722,-10.637,-7.5736,-13.401,-8.8446
-6.6745,-4.8656,-17.087,-21.455,-10.045,-8.6047,-15.138,-12.997,2.3312,-3.3615,-6.4102,-7.176,-10.609,-7.5764,-13.391,-8.8337
-6.6745,-4.8656,-17.087,-21.455,-10.045,-8.6047,-15.138,-12.997,2.3312,-3.3615,-6.4102,-7.176,-10.609,-7.5764,-13.391,-8.8337
-6.6745,-4.8656,-17.087,-21.455,-10.045,-8.6047,-15.138,-12.997,2.3312,-3.3615,-6.4102,-7.176,-10.609,-7.5764,-13.391,-8.8337
-6.6745,-4.8656,-17.087,-21.455,-10.045,-8.6047,-15.138,-12.997,2.3312,-3.3615,-6.4102,-7.176,-10.609,-7.5764,-13.391,-8.8337
