22.972,-242.57,44.905,-187.77,-49.141,-136.67,-15.073,-207.57,72.37,32.049,9.3949,-192.49,62.747,74.685,-7.7051,-95.199
22.977,-242.56,45.052,-187.84,-49.03,-136.52,-14.865,-207.65,71.817,32.629,9.6392,-192.53,62.349,75.022,-7.6076,-95.171
22.977,-242.56,45.052,-187.84,-49.03,-136.52,-14.865,-207.65,71.817,32.629,9.6392,-192.53,62.349,75.022,-7.6076,-95.171
22.979,-242.55,45.198,-187.92,-48.918,-136.36,-14.658,-207.73,71.262,33.21,9.8841,-192.57,61.951,75.358,-7.5089,-95.139
22.979,-242.55,45.198,-187.92,-48.918,-136.36,-14.658,-207.73,71.262,33.21,9.8841,-192.57,61.951,75.358,-7.5089,-95.139
22.98,-242.53,45.341,-187.98,-48.803,-136.2,-14.453,-207.8,70.707,33.79,10.13,-192.6,61.553,75.694,-7.409,-95.103
22.98,-242.53,45.341,-187.98,-48.803,-136.2,-14.453,-207.8,70.707,33.79,10.13,-192.6,61.553,75.694,-7.409,-95.103
22.98,-242.53,45.341,-187.98,-48.803,-136.2,-14.453,-207.8,70.707,33.79,10.13,-192.6,61.553,75.694,-7.409,-95.103
22.98,-242.5,45.482,-188.04,-48.687,-136.03,-14.249,-207.86,70.15,34.371,10.376,-192.62,61.154,76.029,-7.3079,-95.063
22.98,-242.5,45.482,-188.04,-48.687,-136.03,-14.249,-207.86,70.15,34.371,10.376,-192.62,61.154,76.029,-7.3079,-95.063
22.972,-242.41,45.757,-188.15,-48.45,-135.67,-13.845,-207.96,69.034,35.533,10.87,-192.65,60.354,76.7,-7.1022,-94.97
22.972,-242.41,45.757,-188.15,-48.45,-135.67,-13.845,-207.96,69.034,35.533,10.87,-192.65,60.354,76.7,-7.1022,-94.97
22.972,-242.41,45.757,-188.15,-48.45,-135.67,-13.845,-207.96,69.034,35.533,10.87,-192.65,60.354,76.7,-7.1022,-94.97
22.966,-242.36,45.891,-188.19,-48.329,-135.49,-13.645,-208,68.475,36.114,11.117,-192.65,59.954,77.034,-6.9976,-94.918
22.966,-242.36,45.891,-188.19,-48.329,-135.49,-13.645,-208,68.475,36.114,11.117,-192.65,59.954,77.034,-6.9976,-94.918
22.966,-242.36,45.891,-188.19,-48.329,-135.49,-13.645,-208,68.475,36.114,11.117,-192.65,59.954,77.034,-6.9976,-94.918
22.958,-242.3,46.024,-188.22,-48.206,-135.3,-13.447,-208.03,67.914,36.695,11.366,-192.64,59.554,77.369,-6.8918,-94.861
22.958,-242.3,46.024,-188.22,-48.206,-135.3,-13.447,-208.03,67.914,36.695,11.366,-192.64,59.554,77.369,-6.8918,-94.861
22.948,-242.23,46.154,-188.25,-48.082,-135.1,-13.25,-208.06,67.353,37.276,11.615,-192.63,59.153,77.703,-6.7848,-94.8
22.936,-242.15,46.282,-188.28,-47.955,-134.9,-13.054,-208.07,66.791,37.857,11.864,-192.6,58.751,78.037,-6.6766,-94.735
22.936,-242.15,46.282,-188.28,-47.955,-134.9,-13.054,-208.07,66.791,37.857,11.864,-192.6,58.751,78.037,-6.6766,-94.735
22.923,-242.06,46.407,-188.29,-47.827,-134.7,-12.86,-208.08,66.228,38.438,12.114,-192.58,58.349,78.37,-6.5672,-94.666
22.923,-242.06,46.407,-188.29,-47.827,-134.7,-12.86,-208.08,66.228,38.438,12.114,-192.58,58.349,78.37,-6.5672,-94.666
22.908,-241.97,46.531,-188.3,-47.698,-134.49,-12.667,-208.08,65.664,39.02,12.365,-192.54,57.947,78.704,-6.4567,-94.592
22.908,-241.97,46.531,-188.3,-47.698,-134.49,-12.667,-208.08,65.664,39.02,12.365,-192.54,57.947,78.704,-6.4567,-94.592
22.908,-241.97,46.531,-188.3,-47.698,-134.49,-12.667,-208.08,65.664,39.02,12.365,-192.54,57.947,78.704,-6.4567,-94.592
22.891,-241.87,46.652,-188.31,-47.566,-134.27,-12.476,-208.08,65.099,39.601,12.616,-192.5,57.545,79.037,-6.3449,-94.515
22.891,-241.87,46.652,-188.31,-47.566,-134.27,-12.476,-208.08,65.099,39.601,12.616,-192.5,57.545,79.037,-6.3449,-94.515
22.872,-241.76,46.772,-188.31,-47.433,-134.05,-12.287,-208.06,64.533,40.182,12.867,-192.45,57.142,79.37,-6.232,-94.433
22.872,-241.76,46.772,-188.31,-47.433,-134.05,-12.287,-208.06,64.533,40.182,12.867,-192.45,57.142,79.37,-6.232,-94.433
22.872,-241.76,46.772,-188.31,-47.433,-134.05,-12.287,-208.06,64.533,40.182,12.867,-192.45,57.142,79.37,-6.232,-94.433
22.851,-241.64,46.889,-188.3,-47.298,-133.82,-12.098,-208.04,63.967,40.763,13.12,-192.39,56.739,79.704,-6.1179,-94.348
22.851,-241.64,46.889,-188.3,-47.298,-133.82,-12.098,-208.04,63.967,40.763,13.12,-192.39,56.739,79.704,-6.1179,-94.348
22.805,-241.38,47.117,-188.26,-47.024,-133.36,-11.727,-207.98,62.832,41.925,13.625,-192.25,55.933,80.369,-5.8861,-94.164
22.805,-241.38,47.117,-188.26,-47.024,-133.36,-11.727,-207.98,62.832,41.925,13.625,-192.25,55.933,80.369,-5.8861,-94.164
22.779,-241.24,47.228,-188.24,-46.884,-133.12,-11.543,-207.93,62.263,42.506,13.879,-192.18,55.529,80.702,-5.7685,-94.066
22.779,-241.24,47.228,-188.24,-46.884,-133.12,-11.543,-207.93,62.263,42.506,13.879,-192.18,55.529,80.702,-5.7685,-94.066
22.779,-241.24,47.228,-188.24,-46.884,-133.12,-11.543,-207.93,62.263,42.506,13.879,-192.18,55.529,80.702,-5.7685,-94.066
22.751,-241.09,47.337,-188.2,-46.742,-132.87,-11.361,-207.88,61.693,43.087,14.133,-192.09,55.125,81.035,-5.6497,-93.963
22.751,-241.09,47.337,-188.2,-46.742,-132.87,-11.361,-207.88,61.693,43.087,14.133,-192.09,55.125,81.035,-5.6497,-93.963
22.751,-241.09,47.337,-188.2,-46.742,-132.87,-11.361,-207.88,61.693,43.087,14.133,-192.09,55.125,81.035,-5.6497,-93.963
22.722,-240.93,47.443,-188.16,-46.599,-132.62,-11.18,-207.82,61.123,43.668,14.388,-192,54.721,81.367,-5.5297,-93.857
22.722,-240.93,47.443,-188.16,-46.599,-132.62,-11.18,-207.82,61.123,43.668,14.388,-192,54.721,81.367,-5.5297,-93.857
22.658,-240.59,47.65,-188.06,-46.308,-132.1,-10.824,-207.67,59.981,44.829,14.899,-191.79,53.912,82.033,-5.2862,-93.631
22.658,-240.59,47.65,-188.06,-46.308,-132.1,-10.824,-207.67,59.981,44.829,14.899,-191.79,53.912,82.033,-5.2862,-93.631
22.658,-240.59,47.65,-188.06,-46.308,-132.1,-10.824,-207.67,59.981,44.829,14.899,-191.79,53.912,82.033,-5.2862,-93.631
22.623,-240.41,47.75,-188.01,-46.159,-131.83,-10.648,-207.59,59.409,45.409,15.155,-191.67,53.507,82.365,-5.1627,-93.513
22.623,-240.41,47.75,-188.01,-46.159,-131.83,-10.648,-207.59,59.409,45.409,15.155,-191.67,53.507,82.365,-5.1627,-93.513
22.587,-240.22,47.848,-187.94,-46.01,-131.56,-10.474,-207.5,58.836,45.989,15.412,-191.55,53.102,82.698,-5.038,-93.39
22.587,-240.22,47.848,-187.94,-46.01,-131.56,-10.474,-207.5,58.836,45.989,15.412,-191.55,53.102,82.698,-5.038,-93.39
22.587,-240.22,47.848,-187.94,-46.01,-131.56,-10.474,-207.5,58.836,45.989,15.412,-191.55,53.102,82.698,-5.038,-93.39
22.509,-239.82,48.039,-187.79,-45.705,-131,-10.131,-207.29,57.688,47.148,15.926,-191.28,52.292,83.363,-4.7852,-93.131
22.509,-239.82,48.039,-187.79,-45.705,-131,-10.131,-207.29,57.688,47.148,15.926,-191.28,52.292,83.363,-4.7852,-93.131
22.467,-239.61,48.13,-187.71,-45.55,-130.71,-9.9617,-207.18,57.114,47.727,16.184,-191.14,51.887,83.696,-4.6571,-92.996
22.467,-239.61,48.13,-187.71,-45.55,-130.71,-9.9617,-207.18,57.114,47.727,16.184,-191.14,51.887,83.696,-4.6571,-92.996
22.467,-239.61,48.13,-187.71,-45.55,-130.71,-9.9617,-207.18,57.114,47.727,16.184,-191.14,51.887,83.696,-4.6571,-92.996
22.424,-239.38,48.22,-187.61,-45.394,-130.41,-9.7941,-207.06,56.539,48.307,16.443,-190.99,51.482,84.029,-4.5278,-92.856
22.379,-239.15,48.308,-187.52,-45.235,-130.12,-9.6281,-206.92,55.963,48.885,16.702,-190.83,51.076,84.362,-4.3974,-92.713
22.379,-239.15,48.308,-187.52,-45.235,-130.12,-9.6281,-206.92,55.963,48.885,16.702,-190.83,51.076,84.362,-4.3974,-92.713
22.332,-238.92,48.394,-187.41,-45.076,-129.81,-9.4638,-206.79,55.387,49.464,16.961,-190.67,50.671,84.695,-4.2658,-92.565
22.332,-238.92,48.394,-187.41,-45.076,-129.81,-9.4638,-206.79,55.387,49.464,16.961,-190.67,50.671,84.695,-4.2658,-92.565
22.284,-238.67,48.477,-187.3,-44.914,-129.51,-9.3012,-206.64,54.81,50.042,17.221,-190.49,50.266,85.028,-4.1331,-92.413
22.284,-238.67,48.477,-187.3,-44.914,-129.51,-9.3012,-206.64,54.81,50.042,17.221,-190.49,50.266,85.028,-4.1331,-92.413
22.234,-238.42,48.559,-187.19,-44.751,-129.19,-9.1403,-206.48,54.233,50.62,17.481,-190.31,49.86,85.361,-3.9993,-92.257
22.234,-238.42,48.559,-187.19,-44.751,-129.19,-9.1403,-206.48,54.233,50.62,17.481,-190.31,49.86,85.361,-3.9993,-92.257
22.234,-238.42,48.559,-187.19,-44.751,-129.19,-9.1403,-206.48,54.233,50.62,17.481,-190.31,49.86,85.361,-3.9993,-92.257
22.183,-238.16,48.638,-187.06,-44.587,-128.87,-8.9811,-206.32,53.655,51.198,17.741,-190.13,49.455,85.694,-3.8643,-92.097
22.129,-237.89,48.716,-186.93,-44.42,-128.55,-8.8235,-206.15,53.077,51.775,18.002,-189.93,49.049,86.028,-3.7282,-91.933
22.129,-237.89,48.716,-186.93,-44.42,-128.55,-8.8235,-206.15,53.077,51.775,18.002,-189.93,49.049,86.028,-3.7282,-91.933
22.129,-237.89,48.716,-186.93,-44.42,-128.55,-8.8235,-206.15,53.077,51.775,18.002,-189.93,49.049,86.028,-3.7282,-91.933
22.074,-237.61,48.791,-186.79,-44.252,-128.22,-8.6677,-205.97,52.499,52.352,18.264,-189.73,48.644,86.362,-3.5909,-91.765
22.074,-237.61,48.791,-186.79,-44.252,-128.22,-8.6677,-205.97,52.499,52.352,18.264,-189.73,48.644,86.362,-3.5909,-91.765
21.96,-237.03,48.936,-186.5,-43.912,-127.55,-8.3613,-205.59,51.341,53.505,18.788,-189.31,47.833,87.03,-3.3131,-91.416
21.96,-237.03,48.936,-186.5,-43.912,-127.55,-8.3613,-205.59,51.341,53.505,18.788,-189.31,47.833,87.03,-3.3131,-91.416
21.96,-237.03,48.936,-186.5,-43.912,-127.55,-8.3613,-205.59,51.341,53.505,18.788,-189.31,47.833,87.03,-3.3131,-91.416
21.9,-236.73,49.005,-186.35,-43.739,-127.21,-8.2107,-205.38,50.761,54.08,19.05,-189.09,47.428,87.364,-3.1725,-91.236
21.9,-236.73,49.005,-186.35,-43.739,-127.21,-8.2107,-205.38,50.761,54.08,19.05,-189.09,47.428,87.364,-3.1725,-91.236
21.9,-236.73,49.005,-186.35,-43.739,-127.21,-8.2107,-205.38,50.761,54.08,19.05,-189.09,47.428,87.364,-3.1725,-91.236
21.838,-236.42,49.072,-186.18,-43.565,-126.86,-8.0618,-205.17,50.181,54.656,19.313,-188.86,47.023,87.699,-3.0308,-91.051
21.838,-236.42,49.072,-186.18,-43.565,-126.86,-8.0618,-205.17,50.181,54.656,19.313,-188.86,47.023,87.699,-3.0308,-91.051
21.838,-236.42,49.072,-186.18,-43.565,-126.86,-8.0618,-205.17,50.181,54.656,19.313,-188.86,47.023,87.699,-3.0308,-91.051
21.711,-235.78,49.201,-185.84,-43.212,-126.14,-7.7694,-204.73,49.02,55.805,19.84,-188.38,46.213,88.369,-2.7442,-90.67
21.711,-235.78,49.201,-185.84,-43.212,-126.14,-7.7694,-204.73,49.02,55.805,19.84,-188.38,46.213,88.369,-2.7442,-90.67
21.645,-235.45,49.262,-185.65,-43.033,-125.78,-7.6258,-204.49,48.44,56.379,20.104,-188.13,45.809,88.705,-2.5992,-90.474
21.645,-235.45,49.262,-185.65,-43.033,-125.78,-7.6258,-204.49,48.44,56.379,20.104,-188.13,45.809,88.705,-2.5992,-90.474
21.577,-235.11,49.322,-185.46,-42.852,-125.41,-7.484,-204.25,47.858,56.953,20.368,-187.87,45.404,89.041,-2.4532,-90.273
21.577,-235.11,49.322,-185.46,-42.852,-125.41,-7.484,-204.25,47.858,56.953,20.368,-187.87,45.404,89.041,-2.4532,-90.273
21.507,-234.76,49.379,-185.27,-42.67,-125.04,-7.344,-203.99,47.277,57.526,20.633,-187.6,45,89.377,-2.306,-90.069
21.507,-234.76,49.379,-185.27,-42.67,-125.04,-7.344,-203.99,47.277,57.526,20.633,-187.6,45,89.377,-2.306,-90.069
21.507,-234.76,49.379,-185.27,-42.67,-125.04,-7.344,-203.99,47.277,57.526,20.633,-187.6,45,89.377,-2.306,-90.069
21.436,-234.41,49.434,-185.07,-42.486,-124.66,-7.2058,-203.73,46.696,58.098,20.898,-187.33,44.596,89.714,-2.1579,-89.86
21.436,-234.41,49.434,-185.07,-42.486,-124.66,-7.2058,-203.73,46.696,58.098,20.898,-187.33,44.596,89.714,-2.1579,-89.86
21.364,-234.05,49.488,-184.86,-42.301,-124.28,-7.0694,-203.47,46.114,58.671,21.163,-187.05,44.192,90.051,-2.0086,-89.647
21.364,-234.05,49.488,-184.86,-42.301,-124.28,-7.0694,-203.47,46.114,58.671,21.163,-187.05,44.192,90.051,-2.0086,-89.647
21.29,-233.67,49.539,-184.64,-42.114,-123.89,-6.9348,-203.19,45.532,59.242,21.429,-186.77,43.788,90.388,-1.8583,-89.431
21.29,-233.67,49.539,-184.64,-42.114,-123.89,-6.9348,-203.19,45.532,59.242,21.429,-186.77,43.788,90.388,-1.8583,-89.431
21.214,-233.3,49.589,-184.42,-41.926,-123.5,-6.802,-202.91,44.95,59.813,21.695,-186.48,43.384,90.725,-1.7069,-89.21
21.214,-233.3,49.589,-184.42,-41.926,-123.5,-6.802,-202.91,44.95,59.813,21.695,-186.48,43.384,90.725,-1.7069,-89.21
21.137,-232.91,49.636,-184.19,-41.736,-123.1,-6.671,-202.61,44.368,60.384,21.961,-186.18,42.981,91.063,-1.5545,-88.986
21.059,-232.51,49.682,-183.96,-41.545,-122.7,-6.5419,-202.31,43.786,60.954,22.228,-185.87,42.578,91.402,-1.401,-88.757
21.059,-232.51,49.682,-183.96,-41.545,-122.7,-6.5419,-202.31,43.786,60.954,22.228,-185.87,42.578,91.402,-1.401,-88.757
20.979,-232.11,49.726,-183.71,-41.352,-122.29,-6.4146,-202,43.203,61.523,22.495,-185.56,42.176,91.741,-1.2465,-88.525
20.979,-232.11,49.726,-183.71,-41.352,-122.29,-6.4146,-202,43.203,61.523,22.495,-185.56,42.176,91.741,-1.2465,-88.525
20.897,-231.7,49.767,-183.46,-41.158,-121.88,-6.2891,-201.69,42.621,62.092,22.762,-185.24,41.773,92.08,-1.091,-88.288
20.897,-231.7,49.767,-183.46,-41.158,-121.88,-6.2891,-201.69,42.621,62.092,22.762,-185.24,41.773,92.08,-1.091,-88.288
20.897,-231.7,49.767,-183.46,-41.158,-121.88,-6.2891,-201.69,42.621,62.092,22.762,-185.24,41.773,92.08,-1.091,-88.288
20.814,-231.29,49.807,-183.21,-40.962,-121.46,-6.1655,-201.36,42.038,62.66,23.029,-184.91,41.371,92.42,-0.93444,-88.048
20.814,-231.29,49.807,-183.21,-40.962,-121.46,-6.1655,-201.36,42.038,62.66,23.029,-184.91,41.371,92.42,-0.93444,-88.048
20.73,-230.86,49.845,-182.95,-40.764,-121.04,-6.0437,-201.03,41.456,63.228,23.297,-184.58,40.97,92.76,-0.77689,-87.804
20.73,-230.86,49.845,-182.95,-40.764,-121.04,-6.0437,-201.03,41.456,63.228,23.297,-184.58,40.97,92.76,-0.77689,-87.804
20.556,-229.99,49.915,-182.4,-40.365,-120.18,-5.8057,-200.34,40.291,64.362,23.833,-183.89,40.168,93.442,-0.45877,-87.304
20.556,-229.99,49.915,-182.4,-40.365,-120.18,-5.8057,-200.34,40.291,64.362,23.833,-183.89,40.168,93.442,-0.45877,-87.304
20.556,-229.99,49.915,-182.4,-40.365,-120.18,-5.8057,-200.34,40.291,64.362,23.833,-183.89,40.168,93.442,-0.45877,-87.304
20.468,-229.54,49.948,-182.12,-40.164,-119.74,-5.6895,-199.98,39.708,64.927,24.101,-183.53,39.767,93.784,-0.29823,-87.048
20.468,-229.54,49.948,-182.12,-40.164,-119.74,-5.6895,-199.98,39.708,64.927,24.101,-183.53,39.767,93.784,-0.29823,-87.048
20.468,-229.54,49.948,-182.12,-40.164,-119.74,-5.6895,-199.98,39.708,64.927,24.101,-183.53,39.767,93.784,-0.29823,-87.048
20.377,-229.09,49.978,-181.83,-39.96,-119.3,-5.5752,-199.61,39.126,65.492,24.37,-183.17,39.367,94.126,-0.1367,-86.788
20.377,-229.09,49.978,-181.83,-39.96,-119.3,-5.5752,-199.61,39.126,65.492,24.37,-183.17,39.367,94.126,-0.1367,-86.788
20.377,-229.09,49.978,-181.83,-39.96,-119.3,-5.5752,-199.61,39.126,65.492,24.37,-183.17,39.367,94.126,-0.1367,-86.788
20.377,-229.09,49.978,-181.83,-39.96,-119.3,-5.5752,-199.61,39.126,65.492,24.37,-183.17,39.367,94.126,-0.1367,-86.788
20.193,-228.15,50.033,-181.24,-39.55,-118.4,-5.3522,-198.85,37.961,66.621,24.907,-182.43,38.568,94.812,0.18927,-86.257
20.193,-228.15,50.033,-181.24,-39.55,-118.4,-5.3522,-198.85,37.961,66.621,24.907,-182.43,38.568,94.812,0.18927,-86.257
20.098,-227.67,50.058,-180.93,-39.342,-117.95,-5.2435,-198.46,37.379,67.184,25.177,-182.05,38.169,95.156,0.3537,-85.985
20.003,-227.19,50.081,-180.61,-39.133,-117.49,-5.1367,-198.06,36.797,67.746,25.446,-181.66,37.771,95.5,0.51908,-85.71
20.003,-227.19,50.081,-180.61,-39.133,-117.49,-5.1367,-198.06,36.797,67.746,25.446,-181.66,37.771,95.5,0.51908,-85.71
20.003,-227.19,50.081,-180.61,-39.133,-117.49,-5.1367,-198.06,36.797,67.746,25.446,-181.66,37.771,95.5,0.51908,-85.71
19.905,-226.7,50.103,-180.29,-38.923,-117.02,-5.0318,-197.66,36.215,68.308,25.716,-181.27,37.373,95.845,0.6854,-85.431
19.905,-226.7,50.103,-180.29,-38.923,-117.02,-5.0318,-197.66,36.215,68.308,25.716,-181.27,37.373,95.845,0.6854,-85.431
19.807,-226.2,50.122,-179.96,-38.711,-116.56,-4.9287,-197.24,35.633,68.869,25.985,-180.87,36.976,96.191,0.85265,-85.149
19.807,-226.2,50.122,-179.96,-38.711,-116.56,-4.9287,-197.24,35.633,68.869,25.985,-180.87,36.976,96.191,0.85265,-85.149
19.807,-226.2,50.122,-179.96,-38.711,-116.56,-4.9287,-197.24,35.633,68.869,25.985,-180.87,36.976,96.191,0.85265,-85.149
19.707,-225.69,50.139,-179.63,-38.498,-116.08,-4.8276,-196.82,35.052,69.429,26.255,-180.46,36.579,96.537,1.0208,-84.862
19.707,-225.69,50.139,-179.63,-38.498,-116.08,-4.8276,-196.82,35.052,69.429,26.255,-180.46,36.579,96.537,1.0208,-84.862
19.504,-224.65,50.169,-178.94,-38.068,-115.12,-4.6311,-195.95,33.889,70.548,26.795,-179.63,35.787,97.231,1.3599,-84.278
19.504,-224.65,50.169,-178.94,-38.068,-115.12,-4.6311,-195.95,33.889,70.548,26.795,-179.63,35.787,97.231,1.3599,-84.278
19.4,-224.12,50.181,-178.58,-37.85,-114.63,-4.5357,-195.5,33.308,71.106,27.066,-179.2,35.392,97.579,1.5308,-83.981
19.4,-224.12,50.181,-178.58,-37.85,-114.63,-4.5357,-195.5,33.308,71.106,27.066,-179.2,35.392,97.579,1.5308,-83.981
19.295,-223.59,50.192,-178.22,-37.632,-114.14,-4.4422,-195.04,32.727,71.663,27.336,-178.76,34.997,97.928,1.7026,-83.679
19.295,-223.59,50.192,-178.22,-37.632,-114.14,-4.4422,-195.04,32.727,71.663,27.336,-178.76,34.997,97.928,1.7026,-83.679
19.189,-223.04,50.2,-177.85,-37.412,-113.65,-4.3506,-194.58,32.147,72.219,27.607,-178.32,34.603,98.277,1.8752,-83.374
19.189,-223.04,50.2,-177.85,-37.412,-113.65,-4.3506,-194.58,32.147,72.219,27.607,-178.32,34.603,98.277,1.8752,-83.374
19.081,-222.49,50.207,-177.48,-37.19,-113.15,-4.2609,-194.11,31.567,72.775,27.878,-177.88,34.209,98.627,2.0488,-83.065
19.081,-222.49,50.207,-177.48,-37.19,-113.15,-4.2609,-194.11,31.567,72.775,27.878,-177.88,34.209,98.627,2.0488,-83.065
18.972,-221.93,50.212,-177.1,-36.968,-112.64,-4.1731,-193.63,30.987,73.33,28.149,-177.42,33.817,98.978,2.2232,-82.753
18.972,-221.93,50.212,-177.1,-36.968,-112.64,-4.1731,-193.63,30.987,73.33,28.149,-177.42,33.817,98.978,2.2232,-82.753
18.972,-221.93,50.212,-177.1,-36.968,-112.64,-4.1731,-193.63,30.987,73.33,28.149,-177.42,33.817,98.978,2.2232,-82.753
18.862,-221.37,50.216,-176.71,-36.744,-112.13,-4.0872,-193.14,30.408,73.884,28.42,-176.96,33.424,99.329,2.3984,-82.437
18.862,-221.37,50.216,-176.71,-36.744,-112.13,-4.0872,-193.14,30.408,73.884,28.42,-176.96,33.424,99.329,2.3984,-82.437
18.751,-220.79,50.218,-176.32,-36.519,-111.62,-4.0033,-192.64,29.829,74.437,28.691,-176.5,33.033,99.681,2.5745,-82.117
18.751,-220.79,50.218,-176.32,-36.519,-111.62,-4.0033,-192.64,29.829,74.437,28.691,-176.5,33.033,99.681,2.5745,-82.117
18.525,-219.63,50.216,-175.51,-36.064,-110.58,-3.8411,-191.62,28.672,75.541,29.233,-175.55,32.252,100.39,2.9291,-81.467
18.525,-219.63,50.216,-175.51,-36.064,-110.58,-3.8411,-191.62,28.672,75.541,29.233,-175.55,32.252,100.39,2.9291,-81.467
18.525,-219.63,50.216,-175.51,-36.064,-110.58,-3.8411,-191.62,28.672,75.541,29.233,-175.55,32.252,100.39,2.9291,-81.467
18.41,-219.03,50.212,-175.1,-35.835,-110.05,-3.7629,-191.1,28.094,76.092,29.504,-175.06,31.862,100.74,3.1077,-81.137
18.41,-219.03,50.212,-175.1,-35.835,-110.05,-3.7629,-191.1,28.094,76.092,29.504,-175.06,31.862,100.74,3.1077,-81.137
18.41,-219.03,50.212,-175.1,-35.835,-110.05,-3.7629,-191.1,28.094,76.092,29.504,-175.06,31.862,100.74,3.1077,-81.137
18.177,-217.82,50.2,-174.25,-35.373,-108.98,-3.6123,-190.04,26.939,77.19,30.047,-174.07,31.086,101.45,3.4672,-80.465
18.177,-217.82,50.2,-174.25,-35.373,-108.98,-3.6123,-190.04,26.939,77.19,30.047,-174.07,31.086,101.45,3.4672,-80.465
18.177,-217.82,50.2,-174.25,-35.373,-108.98,-3.6123,-190.04,26.939,77.19,30.047,-174.07,31.086,101.45,3.4672,-80.465
18.059,-217.21,50.192,-173.82,-35.14,-108.44,-3.5399,-189.49,26.363,77.738,30.318,-173.57,30.698,101.81,3.6481,-80.124
17.94,-216.58,50.182,-173.38,-34.906,-107.9,-3.4693,-188.94,25.787,78.285,30.589,-173.06,30.312,102.16,3.8298,-79.78
17.94,-216.58,50.182,-173.38,-34.906,-107.9,-3.4693,-188.94,25.787,78.285,30.589,-173.06,30.312,102.16,3.8298,-79.78
17.94,-216.58,50.182,-173.38,-34.906,-107.9,-3.4693,-188.94,25.787,78.285,30.589,-173.06,30.312,102.16,3.8298,-79.78
17.819,-215.96,50.17,-172.93,-34.671,-107.35,-3.4007,-188.38,25.211,78.831,30.861,-172.54,29.926,102.52,4.0122,-79.432
17.819,-215.96,50.17,-172.93,-34.671,-107.35,-3.4007,-188.38,25.211,78.831,30.861,-172.54,29.926,102.52,4.0122,-79.432
17.698,-215.32,50.156,-172.48,-34.434,-106.8,-3.334,-187.81,24.636,79.377,31.132,-172.02,29.541,102.88,4.1954,-79.08
17.698,-215.32,50.156,-172.48,-34.434,-106.8,-3.334,-187.81,24.636,79.377,31.132,-172.02,29.541,102.88,4.1954,-79.08
17.698,-215.32,50.156,-172.48,-34.434,-106.8,-3.334,-187.81,24.636,79.377,31.132,-172.02,29.541,102.88,4.1954,-79.08
17.575,-214.68,50.141,-172.02,-34.197,-106.24,-3.2693,-187.23,24.062,79.921,31.404,-171.49,29.157,103.24,4.3793,-78.726
17.575,-214.68,50.141,-172.02,-34.197,-106.24,-3.2693,-187.23,24.062,79.921,31.404,-171.49,29.157,103.24,4.3793,-78.726
17.575,-214.68,50.141,-172.02,-34.197,-106.24,-3.2693,-187.23,24.062,79.921,31.404,-171.49,29.157,103.24,4.3793,-78.726
17.452,-214.03,50.124,-171.55,-33.958,-105.68,-3.2064,-186.65,23.488,80.464,31.675,-170.96,28.773,103.6,4.5639,-78.367
17.452,-214.03,50.124,-171.55,-33.958,-105.68,-3.2064,-186.65,23.488,80.464,31.675,-170.96,28.773,103.6,4.5639,-78.367
17.201,-212.71,50.086,-170.6,-33.476,-104.55,-3.0864,-185.45,22.342,81.548,32.218,-169.87,28.009,104.32,4.9354,-77.64
17.201,-212.71,50.086,-170.6,-33.476,-104.55,-3.0864,-185.45,22.342,81.548,32.218,-169.87,28.009,104.32,4.9354,-77.64
17.201,-212.71,50.086,-170.6,-33.476,-104.55,-3.0864,-185.45,22.342,81.548,32.218,-169.87,28.009,104.32,4.9354,-77.64
17.201,-212.71,50.086,-170.6,-33.476,-104.55,-3.0864,-185.45,22.342,81.548,32.218,-169.87,28.009,104.32,4.9354,-77.64
16.947,-211.36,50.041,-169.63,-32.99,-103.39,-2.9741,-184.23,21.198,82.628,32.76,-168.76,27.248,105.05,5.3096,-76.9
16.947,-211.36,50.041,-169.63,-32.99,-103.39,-2.9741,-184.23,21.198,82.628,32.76,-168.76,27.248,105.05,5.3096,-76.9
16.818,-210.68,50.017,-169.13,-32.746,-102.81,-2.9207,-183.6,20.627,83.166,33.031,-168.19,26.869,105.41,5.4977,-76.525
16.818,-210.68,50.017,-169.13,-32.746,-102.81,-2.9207,-183.6,20.627,83.166,33.031,-168.19,26.869,105.41,5.4977,-76.525
16.688,-209.99,49.99,-168.63,-32.5,-102.23,-2.8693,-182.97,20.057,83.704,33.302,-167.62,26.49,105.78,5.6864,-76.147
16.688,-209.99,49.99,-168.63,-32.5,-102.23,-2.8693,-182.97,20.057,83.704,33.302,-167.62,26.49,105.78,5.6864,-76.147
16.688,-209.99,49.99,-168.63,-32.5,-102.23,-2.8693,-182.97,20.057,83.704,33.302,-167.62,26.49,105.78,5.6864,-76.147
16.558,-209.29,49.963,-168.12,-32.253,-101.64,-2.8198,-182.33,19.488,84.24,33.573,-167.05,26.113,106.14,5.8758,-75.765
16.558,-209.29,49.963,-168.12,-32.253,-101.64,-2.8198,-182.33,19.488,84.24,33.573,-167.05,26.113,106.14,5.8758,-75.765
16.558,-209.29,49.963,-168.12,-32.253,-101.64,-2.8198,-182.33,19.488,84.24,33.573,-167.05,26.113,106.14,5.8758,-75.765
16.558,-209.29,49.963,-168.12,-32.253,-101.64,-2.8198,-182.33,19.488,84.24,33.573,-167.05,26.113,106.14,5.8758,-75.765
16.294,-207.88,49.902,-167.08,-31.756,-100.45,-2.7265,-181.03,18.351,85.31,34.115,-165.88,25.361,106.88,6.2565,-74.992
16.294,-207.88,49.902,-167.08,-31.756,-100.45,-2.7265,-181.03,18.351,85.31,34.115,-165.88,25.361,106.88,6.2565,-74.992
16.294,-207.88,49.902,-167.08,-31.756,-100.45,-2.7265,-181.03,18.351,85.31,34.115,-165.88,25.361,106.88,6.2565,-74.992
16.16,-207.16,49.87,-166.55,-31.506,-99.849,-2.6826,-180.37,17.783,85.843,34.385,-165.28,24.986,107.24,6.4478,-74.601
16.16,-207.16,49.87,-166.55,-31.506,-99.849,-2.6826,-180.37,17.783,85.843,34.385,-165.28,24.986,107.24,6.4478,-74.601
15.891,-205.71,49.8,-165.47,-31.003,-98.636,-2.6006,-179.02,16.651,86.906,34.926,-164.08,24.24,107.98,6.8321,-73.808
15.891,-205.71,49.8,-165.47,-31.003,-98.636,-2.6006,-179.02,16.651,86.906,34.926,-164.08,24.24,107.98,6.8321,-73.808
15.891,-205.71,49.8,-165.47,-31.003,-98.636,-2.6006,-179.02,16.651,86.906,34.926,-164.08,24.24,107.98,6.8321,-73.808
15.755,-204.98,49.763,-164.92,-30.749,-98.023,-2.5624,-178.33,16.086,87.436,35.197,-163.47,23.868,108.35,7.0251,-73.407
15.618,-204.24,49.725,-164.37,-30.495,-97.407,-2.5261,-177.64,15.521,87.965,35.467,-162.85,23.497,108.72,7.2187,-73.003
15.481,-203.49,49.685,-163.81,-30.24,-96.788,-2.4916,-176.94,14.958,88.493,35.736,-162.23,23.128,109.1,7.4128,-72.596
15.481,-203.49,49.685,-163.81,-30.24,-96.788,-2.4916,-176.94,14.958,88.493,35.736,-162.23,23.128,109.1,7.4128,-72.596
15.481,-203.49,49.685,-163.81,-30.24,-96.788,-2.4916,-176.94,14.958,88.493,35.736,-162.23,23.128,109.1,7.4128,-72.596
15.342,-202.74,49.643,-163.24,-29.984,-96.164,-2.459,-176.23,14.395,89.02,36.006,-161.6,22.759,109.47,7.6074,-72.186
15.342,-202.74,49.643,-163.24,-29.984,-96.164,-2.459,-176.23,14.395,89.02,36.006,-161.6,22.759,109.47,7.6074,-72.186
15.342,-202.74,49.643,-163.24,-29.984,-96.164,-2.459,-176.23,14.395,89.02,36.006,-161.6,22.759,109.47,7.6074,-72.186
15.203,-201.98,49.6,-162.67,-29.726,-95.537,-2.4283,-175.51,13.833,89.545,36.276,-160.97,22.391,109.84,7.8026,-71.773
15.063,-201.21,49.556,-162.09,-29.468,-94.906,-2.3994,-174.79,13.272,90.07,36.545,-160.33,22.024,110.22,7.9983,-71.357
15.063,-201.21,49.556,-162.09,-29.468,-94.906,-2.3994,-174.79,13.272,90.07,36.545,-160.33,22.024,110.22,7.9983,-71.357
15.063,-201.21,49.556,-162.09,-29.468,-94.906,-2.3994,-174.79,13.272,90.07,36.545,-160.33,22.024,110.22,7.9983,-71.357
14.922,-200.44,49.51,-161.51,-29.209,-94.272,-2.3724,-174.06,12.712,90.593,36.814,-159.69,21.658,110.59,8.1945,-70.938
14.922,-200.44,49.51,-161.51,-29.209,-94.272,-2.3724,-174.06,12.712,90.593,36.814,-159.69,21.658,110.59,8.1945,-70.938
14.639,-198.88,49.414,-160.32,-28.688,-92.993,-2.3239,-172.57,11.595,91.636,37.351,-158.38,20.93,111.35,8.5883,-70.09
14.639,-198.88,49.414,-160.32,-28.688,-92.993,-2.3239,-172.57,11.595,91.636,37.351,-158.38,20.93,111.35,8.5883,-70.09
14.639,-198.88,49.414,-160.32,-28.688,-92.993,-2.3239,-172.57,11.595,91.636,37.351,-158.38,20.93,111.35,8.5883,-70.09
14.639,-198.88,49.414,-160.32,-28.688,-92.993,-2.3239,-172.57,11.595,91.636,37.351,-158.38,20.93,111.35,8.5883,-70.09
14.496,-198.09,49.364,-159.72,-28.426,-92.348,-2.3024,-171.82,11.037,92.156,37.62,-157.72,20.568,111.73,8.7859,-69.662
14.496,-198.09,49.364,-159.72,-28.426,-92.348,-2.3024,-171.82,11.037,92.156,37.62,-157.72,20.568,111.73,8.7859,-69.662
14.352,-197.29,49.313,-159.11,-28.163,-91.699,-2.2827,-171.06,10.481,92.675,37.888,-157.06,20.206,112.1,8.9839,-69.231
14.208,-196.49,49.26,-158.5,-27.9,-91.047,-2.2648,-170.29,9.9253,93.192,38.156,-156.39,19.846,112.48,9.1823,-68.797
14.208,-196.49,49.26,-158.5,-27.9,-91.047,-2.2648,-170.29,9.9253,93.192,38.156,-156.39,19.846,112.48,9.1823,-68.797
14.208,-196.49,49.26,-158.5,-27.9,-91.047,-2.2648,-170.29,9.9253,93.192,38.156,-156.39,19.846,112.48,9.1823,-68.797
14.063,-195.68,49.205,-157.88,-27.635,-90.392,-2.2487,-169.52,9.3708,93.708,38.423,-155.71,19.487,112.86,9.3812,-68.361
14.063,-195.68,49.205,-157.88,-27.635,-90.392,-2.2487,-169.52,9.3708,93.708,38.423,-155.71,19.487,112.86,9.3812,-68.361
14.063,-195.68,49.205,-157.88,-27.635,-90.392,-2.2487,-169.52,9.3708,93.708,38.423,-155.71,19.487,112.86,9.3812,-68.361
13.771,-194.05,49.093,-156.62,-27.104,-89.071,-2.222,-167.94,8.2646,94.737,38.958,-154.35,18.771,113.63,9.7802,-67.479
13.771,-194.05,49.093,-156.62,-27.104,-89.071,-2.222,-167.94,8.2646,94.737,38.958,-154.35,18.771,113.63,9.7802,-67.479
13.624,-193.23,49.034,-155.98,-26.837,-88.406,-2.2113,-167.15,7.713,95.249,39.224,-153.65,18.415,114.01,9.9802,-67.034
13.624,-193.23,49.034,-155.98,-26.837,-88.406,-2.2113,-167.15,7.713,95.249,39.224,-153.65,18.415,114.01,9.9802,-67.034
13.624,-193.23,49.034,-155.98,-26.837,-88.406,-2.2113,-167.15,7.713,95.249,39.224,-153.65,18.415,114.01,9.9802,-67.034
13.477,-192.4,48.974,-155.34,-26.569,-87.737,-2.2024,-166.34,7.1624,95.761,39.491,-152.96,18.061,114.39,10.181,-66.586
13.477,-192.4,48.974,-155.34,-26.569,-87.737,-2.2024,-166.34,7.1624,95.761,39.491,-152.96,18.061,114.39,10.181,-66.586
13.477,-192.4,48.974,-155.34,-26.569,-87.737,-2.2024,-166.34,7.1624,95.761,39.491,-152.96,18.061,114.39,10.181,-66.586
13.18,-190.72,48.851,-154.03,-26.031,-86.39,-2.1899,-164.71,6.0643,96.779,40.022,-151.55,17.354,115.16,10.582,-65.682
13.18,-190.72,48.851,-154.03,-26.031,-86.39,-2.1899,-164.71,6.0643,96.779,40.022,-151.55,17.354,115.16,10.582,-65.682
13.031,-189.87,48.787,-153.37,-25.761,-85.711,-2.1863,-163.89,5.5169,97.287,40.287,-150.84,17.003,115.55,10.784,-65.226
13.031,-189.87,48.787,-153.37,-25.761,-85.711,-2.1863,-163.89,5.5169,97.287,40.287,-150.84,17.003,115.55,10.784,-65.226
12.881,-189.02,48.722,-152.7,-25.49,-85.03,-2.1845,-163.06,4.9705,97.793,40.552,-150.12,16.653,115.94,10.986,-64.768
12.881,-189.02,48.722,-152.7,-25.49,-85.03,-2.1845,-163.06,4.9705,97.793,40.552,-150.12,16.653,115.94,10.986,-64.768
12.731,-188.16,48.656,-152.03,-25.218,-84.345,-2.1844,-162.22,4.4252,98.297,40.817,-149.4,16.304,116.33,11.187,-64.307
12.58,-187.3,48.588,-151.35,-24.946,-83.658,-2.186,-161.37,3.8809,98.801,41.081,-148.68,15.956,116.71,11.39,-63.843
12.58,-187.3,48.588,-151.35,-24.946,-83.658,-2.186,-161.37,3.8809,98.801,41.081,-148.68,15.956,116.71,11.39,-63.843
12.58,-187.3,48.588,-151.35,-24.946,-83.658,-2.186,-161.37,3.8809,98.801,41.081,-148.68,15.956,116.71,11.39,-63.843
12.429,-186.43,48.519,-150.67,-24.673,-82.967,-2.1893,-160.52,3.3378,99.303,41.344,-147.95,15.609,117.1,11.592,-63.377
12.429,-186.43,48.519,-150.67,-24.673,-82.967,-2.1893,-160.52,3.3378,99.303,41.344,-147.95,15.609,117.1,11.592,-63.377
12.278,-185.56,48.449,-149.98,-24.399,-82.273,-2.1944,-159.66,2.7958,99.804,41.608,-147.21,15.264,117.49,11.795,-62.908
12.278,-185.56,48.449,-149.98,-24.399,-82.273,-2.1944,-159.66,2.7958,99.804,41.608,-147.21,15.264,117.49,11.795,-62.908
12.126,-184.68,48.377,-149.28,-24.125,-81.576,-2.2011,-158.79,2.2549,100.3,41.87,-146.47,14.92,117.88,11.998,-62.436
12.126,-184.68,48.377,-149.28,-24.125,-81.576,-2.2011,-158.79,2.2549,100.3,41.87,-146.47,14.92,117.88,11.998,-62.436
12.126,-184.68,48.377,-149.28,-24.125,-81.576,-2.2011,-158.79,2.2549,100.3,41.87,-146.47,14.92,117.88,11.998,-62.436
11.973,-183.8,48.305,-148.58,-23.85,-80.876,-2.2096,-157.92,1.7151,100.8,42.133,-145.73,14.577,118.28,12.201,-61.963
11.973,-183.8,48.305,-148.58,-23.85,-80.876,-2.2096,-157.92,1.7151,100.8,42.133,-145.73,14.577,118.28,12.201,-61.963
11.973,-183.8,48.305,-148.58,-23.85,-80.876,-2.2096,-157.92,1.7151,100.8,42.133,-145.73,14.577,118.28,12.201,-61.963
11.667,-182.02,48.155,-147.17,-23.298,-79.468,-2.2315,-156.15,0.6391,101.79,42.656,-144.22,13.894,119.06,12.608,-61.008
11.667,-182.02,48.155,-147.17,-23.298,-79.468,-2.2315,-156.15,0.6391,101.79,42.656,-144.22,13.894,119.06,12.608,-61.008
11.667,-182.02,48.155,-147.17,-23.298,-79.468,-2.2315,-156.15,0.6391,101.79,42.656,-144.22,13.894,119.06,12.608,-61.008
11.513,-181.12,48.079,-146.45,-23.021,-78.76,-2.2449,-155.26,0.10283,102.29,42.917,-143.47,13.555,119.46,12.812,-60.527
11.513,-181.12,48.079,-146.45,-23.021,-78.76,-2.2449,-155.26,0.10283,102.29,42.917,-143.47,13.555,119.46,12.812,-60.527
11.513,-181.12,48.079,-146.45,-23.021,-78.76,-2.2449,-155.26,0.10283,102.29,42.917,-143.47,13.555,119.46,12.812,-60.527
11.205,-179.31,47.922,-145,-22.465,-77.334,-2.2768,-153.46,-0.96616,103.27,43.437,-141.94,12.88,120.25,13.22,-59.558
11.205,-179.31,47.922,-145,-22.465,-77.334,-2.2768,-153.46,-0.96616,103.27,43.437,-141.94,12.88,120.25,13.22,-59.558
11.205,-179.31,47.922,-145,-22.465,-77.334,-2.2768,-153.46,-0.96616,103.27,43.437,-141.94,12.88,120.25,13.22,-59.558
10.895,-177.48,47.761,-143.53,-21.907,-75.898,-2.3152,-151.63,-2.0303,104.25,43.956,-140.39,12.21,121.04,13.629,-58.579
10.895,-177.48,47.761,-143.53,-21.907,-75.898,-2.3152,-151.63,-2.0303,104.25,43.956,-140.39,12.21,121.04,13.629,-58.579
10.895,-177.48,47.761,-143.53,-21.907,-75.898,-2.3152,-151.63,-2.0303,104.25,43.956,-140.39,12.21,121.04,13.629,-58.579
10.74,-176.55,47.678,-142.79,-21.627,-75.176,-2.3368,-150.7,-2.5606,104.74,44.214,-139.61,11.876,121.44,13.833,-58.087
10.74,-176.55,47.678,-142.79,-21.627,-75.176,-2.3368,-150.7,-2.5606,104.74,44.214,-139.61,11.876,121.44,13.833,-58.087
10.585,-175.63,47.595,-142.04,-21.347,-74.451,-2.3599,-149.77,-3.0896,105.22,44.472,-138.82,11.545,121.84,14.038,-57.592
10.585,-175.63,47.595,-142.04,-21.347,-74.451,-2.3599,-149.77,-3.0896,105.22,44.472,-138.82,11.545,121.84,14.038,-57.592
10.429,-174.69,47.51,-141.28,-21.067,-73.724,-2.3847,-148.83,-3.6174,105.7,44.729,-138.04,11.214,122.24,14.242,-57.095
10.429,-174.69,47.51,-141.28,-21.067,-73.724,-2.3847,-148.83,-3.6174,105.7,44.729,-138.04,11.214,122.24,14.242,-57.095
10.273,-173.76,47.424,-140.52,-20.785,-72.994,-2.4111,-147.89,-4.1439,106.19,44.986,-137.24,10.885,122.64,14.447,-56.596
10.273,-173.76,47.424,-140.52,-20.785,-72.994,-2.4111,-147.89,-4.1439,106.19,44.986,-137.24,10.885,122.64,14.447,-56.596
10.117,-172.82,47.337,-139.76,-20.504,-72.262,-2.439,-146.94,-4.6692,106.67,45.242,-136.45,10.556,123.04,14.652,-56.095
10.117,-172.82,47.337,-139.76,-20.504,-72.262,-2.439,-146.94,-4.6692,106.67,45.242,-136.45,10.556,123.04,14.652,-56.095
9.96,-171.87,47.249,-138.99,-20.221,-71.527,-2.4684,-145.98,-5.1932,107.15,45.497,-135.64,10.23,123.44,14.856,-55.592
9.96,-171.87,47.249,-138.99,-20.221,-71.527,-2.4684,-145.98,-5.1932,107.15,45.497,-135.64,10.23,123.44,14.856,-55.592
9.8033,-170.92,47.159,-138.22,-19.939,-70.79,-2.4994,-145.02,-5.716,107.62,45.752,-134.84,9.904,123.84,15.061,-55.086
9.8033,-170.92,47.159,-138.22,-19.939,-70.79,-2.4994,-145.02,-5.716,107.62,45.752,-134.84,9.904,123.84,15.061,-55.086
9.8033,-170.92,47.159,-138.22,-19.939,-70.79,-2.4994,-145.02,-5.716,107.62,45.752,-134.84,9.904,123.84,15.061,-55.086
9.6465,-169.97,47.069,-137.44,-19.656,-70.05,-2.5319,-144.05,-6.2374,108.1,46.006,-134.03,9.5798,124.24,15.266,-54.579
9.4894,-169.01,46.977,-136.65,-19.373,-69.308,-2.5659,-143.08,-6.7576,108.57,46.259,-133.22,9.2568,124.65,15.471,-54.07
9.4894,-169.01,46.977,-136.65,-19.373,-69.308,-2.5659,-143.08,-6.7576,108.57,46.259,-133.22,9.2568,124.65,15.471,-54.07
9.3322,-168.05,46.884,-135.86,-19.089,-68.563,-2.6013,-142.1,-7.2764,109.05,46.512,-132.4,8.9351,125.05,15.675,-53.559
9.3322,-168.05,46.884,-135.86,-19.089,-68.563,-2.6013,-142.1,-7.2764,109.05,46.512,-132.4,8.9351,125.05,15.675,-53.559
9.3322,-168.05,46.884,-135.86,-19.089,-68.563,-2.6013,-142.1,-7.2764,109.05,46.512,-132.4,8.9351,125.05,15.675,-53.559
9.1749,-167.08,46.791,-135.07,-18.805,-67.817,-2.6383,-141.11,-7.7939,109.52,46.764,-131.58,8.6147,125.46,15.88,-53.045
9.0175,-166.11,46.696,-134.27,-18.52,-67.068,-2.6767,-140.12,-8.3102,109.99,47.016,-130.76,8.2956,125.86,16.084,-52.53
9.0175,-166.11,46.696,-134.27,-18.52,-67.068,-2.6767,-140.12,-8.3102,109.99,47.016,-130.76,8.2956,125.86,16.084,-52.53
9.0175,-166.11,46.696,-134.27,-18.52,-67.068,-2.6767,-140.12,-8.3102,109.99,47.016,-130.76,8.2956,125.86,16.084,-52.53
8.86,-165.14,46.6,-133.47,-18.235,-66.316,-2.7166,-139.12,-8.8251,110.46,47.267,-129.93,7.9777,126.27,16.289,-52.013
8.86,-165.14,46.6,-133.47,-18.235,-66.316,-2.7166,-139.12,-8.8251,110.46,47.267,-129.93,7.9777,126.27,16.289,-52.013
8.86,-165.14,46.6,-133.47,-18.235,-66.316,-2.7166,-139.12,-8.8251,110.46,47.267,-129.93,7.9777,126.27,16.289,-52.013
8.7024,-164.16,46.503,-132.66,-17.95,-65.563,-2.7579,-138.12,-9.3386,110.92,47.517,-129.1,7.6612,126.67,16.493,-51.494
8.7024,-164.16,46.503,-132.66,-17.95,-65.563,-2.7579,-138.12,-9.3386,110.92,47.517,-129.1,7.6612,126.67,16.493,-51.494
8.7024,-164.16,46.503,-132.66,-17.95,-65.563,-2.7579,-138.12,-9.3386,110.92,47.517,-129.1,7.6612,126.67,16.493,-51.494
8.387,-162.19,46.305,-131.03,-17.379,-64.05,-2.8448,-136.1,-10.362,111.85,48.014,-127.42,7.032,127.49,16.902,-50.451
8.387,-162.19,46.305,-131.03,-17.379,-64.05,-2.8448,-136.1,-10.362,111.85,48.014,-127.42,7.032,127.49,16.902,-50.451
8.2293,-161.2,46.205,-130.21,-17.093,-63.29,-2.8903,-135.08,-10.871,112.31,48.262,-126.58,6.7194,127.9,17.106,-49.927
8.2293,-161.2,46.205,-130.21,-17.093,-63.29,-2.8903,-135.08,-10.871,112.31,48.262,-126.58,6.7194,127.9,17.106,-49.927
8.0715,-160.2,46.104,-129.38,-16.807,-62.529,-2.9373,-134.05,-11.379,112.77,48.509,-125.73,6.408,128.3,17.309,-49.401
7.9137,-159.21,46.002,-128.55,-16.521,-61.765,-2.9855,-133.02,-11.886,113.23,48.755,-124.88,6.098,128.71,17.513,-48.874
7.9137,-159.21,46.002,-128.55,-16.521,-61.765,-2.9855,-133.02,-11.886,113.23,48.755,-124.88,6.098,128.71,17.513,-48.874
7.756,-158.21,45.899,-127.71,-16.234,-60.999,-3.0352,-131.99,-12.392,113.69,49.001,-124.03,5.7893,129.12,17.717,-48.345
7.756,-158.21,45.899,-127.71,-16.234,-60.999,-3.0352,-131.99,-12.392,113.69,49.001,-124.03,5.7893,129.12,17.717,-48.345
7.5982,-157.2,45.794,-126.87,-15.947,-60.232,-3.0861,-130.95,-12.896,114.15,49.245,-123.17,5.4818,129.53,17.92,-47.814
7.5982,-157.2,45.794,-126.87,-15.947,-60.232,-3.0861,-130.95,-12.896,114.15,49.245,-123.17,5.4818,129.53,17.92,-47.814
7.5982,-157.2,45.794,-126.87,-15.947,-60.232,-3.0861,-130.95,-12.896,114.15,49.245,-123.17,5.4818,129.53,17.92,-47.814
7.4406,-156.19,45.689,-126.03,-15.66,-59.462,-3.1384,-129.9,-13.398,114.6,49.489,-122.32,5.1757,129.94,18.123,-47.281
7.4406,-156.19,45.689,-126.03,-15.66,-59.462,-3.1384,-129.9,-13.398,114.6,49.489,-122.32,5.1757,129.94,18.123,-47.281
7.2829,-155.18,45.583,-125.18,-15.373,-58.691,-3.192,-128.85,-13.9,115.05,49.732,-121.45,4.8708,130.36,18.326,-46.747
7.1254,-154.17,45.476,-124.32,-15.086,-57.918,-3.2468,-127.79,-14.4,115.5,49.974,-120.59,4.5673,130.77,18.528,-46.212
6.9679,-153.15,45.368,-123.47,-14.798,-57.144,-3.303,-126.73,-14.898,115.95,50.216,-119.72,4.265,131.18,18.73,-45.675
6.9679,-153.15,45.368,-123.47,-14.798,-57.144,-3.303,-126.73,-14.898,115.95,50.216,-119.72,4.265,131.18,18.73,-45.675
6.9679,-153.15,45.368,-123.47,-14.798,-57.144,-3.303,-126.73,-14.898,115.95,50.216,-119.72,4.265,131.18,18.73,-45.675
6.9679,-153.15,45.368,-123.47,-14.798,-57.144,-3.303,-126.73,-14.898,115.95,50.216,-119.72,4.265,131.18,18.73,-45.675
6.8106,-152.13,45.258,-122.6,-14.511,-56.367,-3.3603,-125.67,-15.395,116.4,50.456,-118.84,3.964,131.59,18.932,-45.137
6.8106,-152.13,45.258,-122.6,-14.511,-56.367,-3.3603,-125.67,-15.395,116.4,50.456,-118.84,3.964,131.59,18.932,-45.137
6.6533,-151.1,45.148,-121.74,-14.223,-55.589,-3.4189,-124.6,-15.891,116.84,50.696,-117.97,3.6644,132,19.134,-44.597
6.6533,-151.1,45.148,-121.74,-14.223,-55.589,-3.4189,-124.6,-15.891,116.84,50.696,-117.97,3.6644,132,19.134,-44.597
6.4962,-150.07,45.037,-120.87,-13.935,-54.809,-3.4788,-123.52,-16.385,117.28,50.934,-117.09,3.366,132.42,19.335,-44.056
6.4962,-150.07,45.037,-120.87,-13.935,-54.809,-3.4788,-123.52,-16.385,117.28,50.934,-117.09,3.366,132.42,19.335,-44.056
6.3393,-149.04,44.925,-119.99,-13.647,-54.028,-3.5398,-122.44,-16.878,117.72,51.172,-116.21,3.0689,132.83,19.536,-43.513
6.3393,-149.04,44.925,-119.99,-13.647,-54.028,-3.5398,-122.44,-16.878,117.72,51.172,-116.21,3.0689,132.83,19.536,-43.513
6.1825,-148.01,44.813,-119.12,-13.36,-53.245,-3.602,-121.35,-17.369,118.16,51.408,-115.33,2.7731,133.25,19.737,-42.969
6.1825,-148.01,44.813,-119.12,-13.36,-53.245,-3.602,-121.35,-17.369,118.16,51.408,-115.33,2.7731,133.25,19.737,-42.969
6.1825,-148.01,44.813,-119.12,-13.36,-53.245,-3.602,-121.35,-17.369,118.16,51.408,-115.33,2.7731,133.25,19.737,-42.969
5.8694,-145.93,44.584,-117.35,-12.784,-51.675,-3.73,-119.17,-18.348,119.04,51.879,-113.55,2.1853,134.07,20.137,-41.878
5.8694,-145.93,44.584,-117.35,-12.784,-51.675,-3.73,-119.17,-18.348,119.04,51.879,-113.55,2.1853,134.07,20.137,-41.878
5.8694,-145.93,44.584,-117.35,-12.784,-51.675,-3.73,-119.17,-18.348,119.04,51.879,-113.55,2.1853,134.07,20.137,-41.878
5.7132,-144.89,44.469,-116.46,-12.496,-50.888,-3.7956,-118.07,-18.835,119.47,52.113,-112.66,1.8933,134.49,20.337,-41.33
5.5572,-143.84,44.352,-115.56,-12.208,-50.1,-3.8624,-116.97,-19.321,119.9,52.346,-111.76,1.6027,134.9,20.536,-40.781
5.5572,-143.84,44.352,-115.56,-12.208,-50.1,-3.8624,-116.97,-19.321,119.9,52.346,-111.76,1.6027,134.9,20.536,-40.781
5.4015,-142.79,44.235,-114.67,-11.921,-49.31,-3.9303,-115.86,-19.805,120.33,52.578,-110.86,1.3132,135.32,20.735,-40.232
5.4015,-142.79,44.235,-114.67,-11.921,-49.31,-3.9303,-115.86,-19.805,120.33,52.578,-110.86,1.3132,135.32,20.735,-40.232
5.4015,-142.79,44.235,-114.67,-11.921,-49.31,-3.9303,-115.86,-19.805,120.33,52.578,-110.86,1.3132,135.32,20.735,-40.232
5.246,-141.74,44.117,-113.77,-11.633,-48.519,-3.9993,-114.75,-20.288,120.76,52.808,-109.96,1.0251,135.74,20.933,-39.681
5.246,-141.74,44.117,-113.77,-11.633,-48.519,-3.9993,-114.75,-20.288,120.76,52.808,-109.96,1.0251,135.74,20.933,-39.681
5.0907,-140.69,43.997,-112.86,-11.345,-47.726,-4.0693,-113.63,-20.769,121.19,53.038,-109.06,0.73819,136.15,21.131,-39.128
5.0907,-140.69,43.997,-112.86,-11.345,-47.726,-4.0693,-113.63,-20.769,121.19,53.038,-109.06,0.73819,136.15,21.131,-39.128
4.9358,-139.63,43.878,-111.95,-11.058,-46.933,-4.1404,-112.51,-21.249,121.61,53.267,-108.15,0.45255,136.57,21.328,-38.575
4.9358,-139.63,43.878,-111.95,-11.058,-46.933,-4.1404,-112.51,-21.249,121.61,53.267,-108.15,0.45255,136.57,21.328,-38.575
4.7811,-138.58,43.757,-111.04,-10.771,-46.138,-4.2125,-111.39,-21.728,122.03,53.495,-107.25,0.16817,136.98,21.525,-38.021
4.7811,-138.58,43.757,-111.04,-10.771,-46.138,-4.2125,-111.39,-21.728,122.03,53.495,-107.25,0.16817,136.98,21.525,-38.021
4.6267,-137.51,43.635,-110.13,-10.484,-45.342,-4.2856,-110.26,-22.205,122.45,53.721,-106.34,-0.11496,137.4,21.721,-37.466
4.4727,-136.45,43.513,-109.21,-10.197,-44.545,-4.3597,-109.13,-22.68,122.87,53.947,-105.42,-0.39685,137.82,21.917,-36.91
4.4727,-136.45,43.513,-109.21,-10.197,-44.545,-4.3597,-109.13,-22.68,122.87,53.947,-105.42,-0.39685,137.82,21.917,-36.91
4.4727,-136.45,43.513,-109.21,-10.197,-44.545,-4.3597,-109.13,-22.68,122.87,53.947,-105.42,-0.39685,137.82,21.917,-36.91
4.319,-135.39,43.39,-108.28,-9.9097,-43.747,-4.4348,-107.99,-23.154,123.29,54.171,-104.51,-0.6775,138.23,22.112,-36.353
4.319,-135.39,43.39,-108.28,-9.9097,-43.747,-4.4348,-107.99,-23.154,123.29,54.171,-104.51,-0.6775,138.23,22.112,-36.353
4.1656,-134.32,43.265,-107.36,-9.623,-42.948,-4.5108,-106.85,-23.627,123.7,54.395,-103.59,-0.95693,138.65,22.307,-35.795
4.0126,-133.25,43.141,-106.43,-9.3366,-42.148,-4.5877,-105.71,-24.098,124.12,54.617,-102.67,-1.2351,139.07,22.501,-35.237
4.0126,-133.25,43.141,-106.43,-9.3366,-42.148,-4.5877,-105.71,-24.098,124.12,54.617,-102.67,-1.2351,139.07,22.501,-35.237
3.86,-132.18,43.015,-105.5,-9.0505,-41.347,-4.6656,-104.56,-24.568,124.53,54.838,-101.75,-1.5121,139.49,22.694,-34.677
3.86,-132.18,43.015,-105.5,-9.0505,-41.347,-4.6656,-104.56,-24.568,124.53,54.838,-101.75,-1.5121,139.49,22.694,-34.677
3.86,-132.18,43.015,-105.5,-9.0505,-41.347,-4.6656,-104.56,-24.568,124.53,54.838,-101.75,-1.5121,139.49,22.694,-34.677
3.86,-132.18,43.015,-105.5,-9.0505,-41.347,-4.6656,-104.56,-24.568,124.53,54.838,-101.75,-1.5121,139.49,22.694,-34.677
3.5559,-130.03,42.761,-103.62,-8.4789,-39.743,-4.824,-102.26,-25.503,125.34,55.277,-99.903,-2.0624,140.32,23.079,-33.556
3.5559,-130.03,42.761,-103.62,-8.4789,-39.743,-4.824,-102.26,-25.503,125.34,55.277,-99.903,-2.0624,140.32,23.079,-33.556
3.4044,-128.95,42.633,-102.68,-8.1935,-38.94,-4.9045,-101.1,-25.968,125.75,55.494,-98.976,-2.3358,140.74,23.271,-32.994
3.4044,-128.95,42.633,-102.68,-8.1935,-38.94,-4.9045,-101.1,-25.968,125.75,55.494,-98.976,-2.3358,140.74,23.271,-32.994
3.4044,-128.95,42.633,-102.68,-8.1935,-38.94,-4.9045,-101.1,-25.968,125.75,55.494,-98.976,-2.3358,140.74,23.271,-32.994
3.2534,-127.87,42.505,-101.74,-7.9084,-38.135,-4.9858,-99.937,-26.432,126.15,55.711,-98.047,-2.6079,141.15,23.462,-32.432
3.2534,-127.87,42.505,-101.74,-7.9084,-38.135,-4.9858,-99.937,-26.432,126.15,55.711,-98.047,-2.6079,141.15,23.462,-32.432
3.2534,-127.87,42.505,-101.74,-7.9084,-38.135,-4.9858,-99.937,-26.432,126.15,55.711,-98.047,-2.6079,141.15,23.462,-32.432
2.9527,-125.71,42.245,-99.842,-7.3393,-36.525,-5.1509,-97.605,-27.355,126.95,56.14,-96.183,-3.1487,141.99,23.842,-31.306
2.9527,-125.71,42.245,-99.842,-7.3393,-36.525,-5.1509,-97.605,-27.355,126.95,56.14,-96.183,-3.1487,141.99,23.842,-31.306
2.9527,-125.71,42.245,-99.842,-7.3393,-36.525,-5.1509,-97.605,-27.355,126.95,56.14,-96.183,-3.1487,141.99,23.842,-31.306
2.8031,-124.62,42.114,-98.889,-7.0553,-35.719,-5.2346,-96.434,-27.815,127.34,56.352,-95.248,-3.4173,142.4,24.031,-30.741
2.6539,-123.54,41.982,-97.933,-6.7717,-34.913,-5.3191,-95.261,-28.273,127.74,56.564,-94.312,-3.6848,142.82,24.219,-30.177
2.6539,-123.54,41.982,-97.933,-6.7717,-34.913,-5.3191,-95.261,-28.273,127.74,56.564,-94.312,-3.6848,142.82,24.219,-30.177
2.6539,-123.54,41.982,-97.933,-6.7717,-34.913,-5.3191,-95.261,-28.273,127.74,56.564,-94.312,-3.6848,142.82,24.219,-30.177
2.5051,-122.45,41.85,-96.975,-6.4884,-34.106,-5.4043,-94.084,-28.729,128.13,56.774,-93.374,-3.9511,143.24,24.407,-29.612
2.5051,-122.45,41.85,-96.975,-6.4884,-34.106,-5.4043,-94.084,-28.729,128.13,56.774,-93.374,-3.9511,143.24,24.407,-29.612
2.3569,-121.36,41.717,-96.014,-6.2056,-33.298,-5.4902,-92.904,-29.184,128.52,56.983,-92.435,-4.2163,143.65,24.594,-29.046
2.2092,-120.27,41.583,-95.05,-5.9232,-32.49,-5.5768,-91.722,-29.638,128.91,57.19,-91.494,-4.4803,144.07,24.78,-28.48
2.2092,-120.27,41.583,-95.05,-5.9232,-32.49,-5.5768,-91.722,-29.638,128.91,57.19,-91.494,-4.4803,144.07,24.78,-28.48
2.2092,-120.27,41.583,-95.05,-5.9232,-32.49,-5.5768,-91.722,-29.638,128.91,57.19,-91.494,-4.4803,144.07,24.78,-28.48
2.062,-119.18,41.448,-94.084,-5.6413,-31.681,-5.6641,-90.537,-30.09,129.29,57.397,-90.552,-4.7432,144.49,24.965,-27.914
2.062,-119.18,41.448,-94.084,-5.6413,-31.681,-5.6641,-90.537,-30.09,129.29,57.397,-90.552,-4.7432,144.49,24.965,-27.914
1.9154,-118.09,41.313,-93.116,-5.3599,-30.873,-5.7521,-89.349,-30.541,129.68,57.601,-89.608,-5.005,144.9,25.149,-27.347
1.9154,-118.09,41.313,-93.116,-5.3599,-30.873,-5.7521,-89.349,-30.541,129.68,57.601,-89.608,-5.005,144.9,25.149,-27.347
1.7693,-116.99,41.177,-92.145,-5.0789,-30.064,-5.8407,-88.159,-30.99,130.06,57.805,-88.663,-5.2657,145.32,25.333,-26.78
1.7693,-116.99,41.177,-92.145,-5.0789,-30.064,-5.8407,-88.159,-30.99,130.06,57.805,-88.663,-5.2657,145.32,25.333,-26.78
1.6237,-115.9,41.041,-91.171,-4.7984,-29.254,-5.9299,-86.966,-31.437,130.43,58.007,-87.717,-5.5252,145.73,25.516,-26.213
1.6237,-115.9,41.041,-91.171,-4.7984,-29.254,-5.9299,-86.966,-31.437,130.43,58.007,-87.717,-5.5252,145.73,25.516,-26.213
1.6237,-115.9,41.041,-91.171,-4.7984,-29.254,-5.9299,-86.966,-31.437,130.43,58.007,-87.717,-5.5252,145.73,25.516,-26.213
1.3343,-113.7,40.766,-89.218,-4.2391,-27.635,-6.11,-84.573,-32.328,131.19,58.408,-85.82,-6.0411,146.56,25.879,-25.078
1.3343,-113.7,40.766,-89.218,-4.2391,-27.635,-6.11,-84.573,-32.328,131.19,58.408,-85.82,-6.0411,146.56,25.879,-25.078
1.1905,-112.61,40.627,-88.238,-3.9603,-26.825,-6.2009,-83.373,-32.772,131.56,58.606,-84.87,-6.2975,146.98,26.059,-24.51
1.1905,-112.61,40.627,-88.238,-3.9603,-26.825,-6.2009,-83.373,-32.772,131.56,58.606,-84.87,-6.2975,146.98,26.059,-24.51
1.1905,-112.61,40.627,-88.238,-3.9603,-26.825,-6.2009,-83.373,-32.772,131.56,58.606,-84.87,-6.2975,146.98,26.059,-24.51
1.0473,-111.51,40.488,-87.255,-3.6821,-26.015,-6.2924,-82.171,-33.214,131.93,58.802,-83.919,-6.5527,147.39,26.239,-23.942
1.0473,-111.51,40.488,-87.255,-3.6821,-26.015,-6.2924,-82.171,-33.214,131.93,58.802,-83.919,-6.5527,147.39,26.239,-23.942
1.0473,-111.51,40.488,-87.255,-3.6821,-26.015,-6.2924,-82.171,-33.214,131.93,58.802,-83.919,-6.5527,147.39,26.239,-23.942
0.76269,-109.31,40.208,-85.285,-3.1275,-24.395,-6.4767,-79.76,-34.093,132.66,59.192,-82.014,-7.0601,148.22,26.595,-22.806
0.76269,-109.31,40.208,-85.285,-3.1275,-24.395,-6.4767,-79.76,-34.093,132.66,59.192,-82.014,-7.0601,148.22,26.595,-22.806
0.62132,-108.21,40.067,-84.297,-2.8511,-23.585,-6.5696,-78.552,-34.53,133.02,59.384,-81.06,-7.3123,148.63,26.772,-22.238
0.62132,-108.21,40.067,-84.297,-2.8511,-23.585,-6.5696,-78.552,-34.53,133.02,59.384,-81.06,-7.3123,148.63,26.772,-22.238
0.62132,-108.21,40.067,-84.297,-2.8511,-23.585,-6.5696,-78.552,-34.53,133.02,59.384,-81.06,-7.3123,148.63,26.772,-22.238
0.4806,-107.11,39.925,-83.307,-2.5754,-22.775,-6.663,-77.342,-34.966,133.38,59.575,-80.106,-7.5634,149.04,26.947,-21.67
0.34053,-106,39.783,-82.315,-2.3003,-21.965,-6.7567,-76.13,-35.401,133.74,59.764,-79.15,-7.8136,149.45,27.122,-21.102
0.34053,-106,39.783,-82.315,-2.3003,-21.965,-6.7567,-76.13,-35.401,133.74,59.764,-79.15,-7.8136,149.45,27.122,-21.102
0.20112,-104.9,39.64,-81.321,-2.026,-21.155,-6.8509,-74.916,-35.834,134.1,59.952,-78.194,-8.0627,149.86,27.296,-20.534
0.20112,-104.9,39.64,-81.321,-2.026,-21.155,-6.8509,-74.916,-35.834,134.1,59.952,-78.194,-8.0627,149.86,27.296,-20.534
0.20112,-104.9,39.64,-81.321,-2.026,-21.155,-6.8509,-74.916,-35.834,134.1,59.952,-78.194,-8.0627,149.86,27.296,-20.534
0.062381,-103.8,39.496,-80.326,-1.7524,-20.346,-6.9455,-73.701,-36.265,134.45,60.139,-77.237,-8.3108,150.27,27.469,-19.966
-0.075678,-102.7,39.352,-79.329,-1.4795,-19.537,-7.0404,-72.484,-36.696,134.8,60.324,-76.279,-8.558,150.68,27.641,-19.399
-0.075678,-102.7,39.352,-79.329,-1.4795,-19.537,-7.0404,-72.484,-36.696,134.8,60.324,-76.279,-8.558,150.68,27.641,-19.399
-0.21305,-101.59,39.208,-78.331,-1.2073,-18.728,-7.1356,-71.266,-37.124,135.15,60.507,-75.321,-8.8043,151.09,27.811,-18.831
-0.21305,-101.59,39.208,-78.331,-1.2073,-18.728,-7.1356,-71.266,-37.124,135.15,60.507,-75.321,-8.8043,151.09,27.811,-18.831
-0.21305,-101.59,39.208,-78.331,-1.2073,-18.728,-7.1356,-71.266,-37.124,135.15,60.507,-75.321,-8.8043,151.09,27.811,-18.831
-0.34972,-100.49,39.063,-77.331,-0.9359,-17.919,-7.2311,-70.046,-37.552,135.5,60.689,-74.363,-9.0495,151.5,27.981,-18.264
-0.48568,-99.388,38.917,-76.33,-0.66528,-17.111,-7.327,-68.825,-37.978,135.84,60.869,-73.404,-9.2939,151.9,28.15,-17.697
-0.48568,-99.388,38.917,-76.33,-0.66528,-17.111,-7.327,-68.825,-37.978,135.84,60.869,-73.404,-9.2939,151.9,28.15,-17.697
-0.62092,-98.284,38.771,-75.327,-0.39547,-16.303,-7.4231,-67.603,-38.402,136.18,61.048,-72.444,-9.5373,152.31,28.318,-17.13
-0.62092,-98.284,38.771,-75.327,-0.39547,-16.303,-7.4231,-67.603,-38.402,136.18,61.048,-72.444,-9.5373,152.31,28.318,-17.13
-0.62092,-98.284,38.771,-75.327,-0.39547,-16.303,-7.4231,-67.603,-38.402,136.18,61.048,-72.444,-9.5373,152.31,28.318,-17.13
-0.62092,-98.284,38.771,-75.327,-0.39547,-16.303,-7.4231,-67.603,-38.402,136.18,61.048,-72.444,-9.5373,152.31,28.318,-17.13
-0.88922,-96.078,38.477,-73.318,0.14169,-14.689,-7.616,-65.155,-39.247,136.85,61.401,-70.524,-10.021,153.12,28.65,-15.998
-0.88922,-96.078,38.477,-73.318,0.14169,-14.689,-7.616,-65.155,-39.247,136.85,61.401,-70.524,-10.021,153.12,28.65,-15.998
-0.88922,-96.078,38.477,-73.318,0.14169,-14.689,-7.616,-65.155,-39.247,136.85,61.401,-70.524,-10.021,153.12,28.65,-15.998
-1.0223,-94.975,38.329,-72.312,0.409,-13.883,-7.7128,-63.93,-39.667,137.19,61.575,-69.564,-10.262,153.53,28.814,-15.432
-1.0223,-94.975,38.329,-72.312,0.409,-13.883,-7.7128,-63.93,-39.667,137.19,61.575,-69.564,-10.262,153.53,28.814,-15.432
-1.0223,-94.975,38.329,-72.312,0.409,-13.883,-7.7128,-63.93,-39.667,137.19,61.575,-69.564,-10.262,153.53,28.814,-15.432
-1.2861,-92.769,38.031,-70.296,0.94099,-12.273,-7.9069,-61.476,-40.503,137.85,61.918,-67.642,-10.741,154.33,29.14,-14.302
-1.2861,-92.769,38.031,-70.296,0.94099,-12.273,-7.9069,-61.476,-40.503,137.85,61.918,-67.642,-10.741,154.33,29.14,-14.302
-1.4168,-91.667,37.882,-69.287,1.2056,-11.468,-8.0042,-60.248,-40.919,138.17,62.087,-66.681,-10.979,154.73,29.301,-13.738
-1.4168,-91.667,37.882,-69.287,1.2056,-11.468,-8.0042,-60.248,-40.919,138.17,62.087,-66.681,-10.979,154.73,29.301,-13.738
-1.4168,-91.667,37.882,-69.287,1.2056,-11.468,-8.0042,-60.248,-40.919,138.17,62.087,-66.681,-10.979,154.73,29.301,-13.738
-1.5468,-90.565,37.732,-68.276,1.4693,-10.665,-8.1016,-59.02,-41.333,138.5,62.254,-65.721,-11.217,155.13,29.461,-13.175
-1.5468,-90.565,37.732,-68.276,1.4693,-10.665,-8.1016,-59.02,-41.333,138.5,62.254,-65.721,-11.217,155.13,29.461,-13.175
-1.5468,-90.565,37.732,-68.276,1.4693,-10.665,-8.1016,-59.02,-41.333,138.5,62.254,-65.721,-11.217,155.13,29.461,-13.175
-1.8044,-88.363,37.431,-66.253,1.9939,-9.06,-8.2966,-56.561,-42.158,139.14,62.584,-63.799,-11.689,155.93,29.777,-12.049
-1.9319,-87.263,37.279,-65.24,2.2548,-8.2589,-8.3942,-55.331,-42.569,139.45,62.747,-62.839,-11.924,156.33,29.933,-11.488
-1.9319,-87.263,37.279,-65.24,2.2548,-8.2589,-8.3942,-55.331,-42.569,139.45,62.747,-62.839,-11.924,156.33,29.933,-11.488
-1.9319,-87.263,37.279,-65.24,2.2548,-8.2589,-8.3942,-55.331,-42.569,139.45,62.747,-62.839,-11.924,156.33,29.933,-11.488
-2.0587,-86.163,37.127,-64.227,2.5146,-7.4587,-8.4918,-54.101,-42.978,139.76,62.907,-61.878,-12.158,156.72,30.089,-10.927
-2.0587,-86.163,37.127,-64.227,2.5146,-7.4587,-8.4918,-54.101,-42.978,139.76,62.907,-61.878,-12.158,156.72,30.089,-10.927
-2.0587,-86.163,37.127,-64.227,2.5146,-7.4587,-8.4918,-54.101,-42.978,139.76,62.907,-61.878,-12.158,156.72,30.089,-10.927
-2.1847,-85.064,36.975,-63.213,2.7735,-6.6594,-8.5894,-52.871,-43.385,140.07,63.066,-60.918,-12.391,157.12,30.243,-10.366
-2.1847,-85.064,36.975,-63.213,2.7735,-6.6594,-8.5894,-52.871,-43.385,140.07,63.066,-60.918,-12.391,157.12,30.243,-10.366
-2.3098,-83.967,36.822,-62.199,3.0313,-5.8611,-8.6871,-51.64,-43.791,140.38,63.223,-59.958,-12.624,157.51,30.395,-9.8067
-2.4341,-82.869,36.669,-61.184,3.288,-5.0638,-8.7846,-50.409,-44.196,140.69,63.379,-58.999,-12.856,157.91,30.547,-9.248
-2.4341,-82.869,36.669,-61.184,3.288,-5.0638,-8.7846,-50.409,-44.196,140.69,63.379,-58.999,-12.856,157.91,30.547,-9.248
-2.4341,-82.869,36.669,-61.184,3.288,-5.0638,-8.7846,-50.409,-44.196,140.69,63.379,-58.999,-12.856,157.91,30.547,-9.248
-2.5576,-81.773,36.515,-60.168,3.5437,-4.2675,-8.8821,-49.179,-44.6,140.99,63.532,-58.04,-13.087,158.3,30.697,-8.6901
-2.5576,-81.773,36.515,-60.168,3.5437,-4.2675,-8.8821,-49.179,-44.6,140.99,63.532,-58.04,-13.087,158.3,30.697,-8.6901
-2.6802,-80.678,36.361,-59.153,3.7984,-3.4724,-8.9795,-47.948,-45.002,141.29,63.684,-57.082,-13.318,158.69,30.846,-8.133
-2.802,-79.584,36.207,-58.137,4.0519,-2.6785,-9.0768,-46.718,-45.403,141.59,63.834,-56.124,-13.548,159.08,30.994,-7.5769
-2.802,-79.584,36.207,-58.137,4.0519,-2.6785,-9.0768,-46.718,-45.403,141.59,63.834,-56.124,-13.548,159.08,30.994,-7.5769
-2.9229,-78.491,36.052,-57.121,4.3043,-1.8857,-9.174,-45.488,-45.802,141.88,63.983,-55.166,-13.777,159.47,31.14,-7.0216
-2.9229,-78.491,36.052,-57.121,4.3043,-1.8857,-9.174,-45.488,-45.802,141.88,63.983,-55.166,-13.777,159.47,31.14,-7.0216
-3.0429,-77.399,35.897,-56.104,4.5556,-1.0941,-9.271,-44.258,-46.2,142.17,64.129,-54.21,-14.005,159.85,31.285,-6.4674
-3.0429,-77.399,35.897,-56.104,4.5556,-1.0941,-9.271,-44.258,-46.2,142.17,64.129,-54.21,-14.005,159.85,31.285,-6.4674
-3.1621,-76.309,35.741,-55.088,4.8057,-0.30385,-9.3679,-43.029,-46.597,142.46,64.274,-53.254,-14.233,160.24,31.429,-5.9141
-3.1621,-76.309,35.741,-55.088,4.8057,-0.30385,-9.3679,-43.029,-46.597,142.46,64.274,-53.254,-14.233,160.24,31.429,-5.9141
-3.2804,-75.22,35.585,-54.072,5.0547,0.48511,-9.4645,-41.8,-46.992,142.75,64.417,-52.298,-14.46,160.62,31.571,-5.3619
-3.2804,-75.22,35.585,-54.072,5.0547,0.48511,-9.4645,-41.8,-46.992,142.75,64.417,-52.298,-14.46,160.62,31.571,-5.3619
-3.3978,-74.132,35.428,-53.055,5.3025,1.2727,-9.5609,-40.572,-47.387,143.03,64.558,-51.344,-14.687,161,31.712,-4.8108
-3.3978,-74.132,35.428,-53.055,5.3025,1.2727,-9.5609,-40.572,-47.387,143.03,64.558,-51.344,-14.687,161,31.712,-4.8108
-3.3978,-74.132,35.428,-53.055,5.3025,1.2727,-9.5609,-40.572,-47.387,143.03,64.558,-51.344,-14.687,161,31.712,-4.8108
-3.5143,-73.046,35.271,-52.039,5.5491,2.0589,-9.6571,-39.344,-47.779,143.31,64.697,-50.39,-14.913,161.38,31.852,-4.2608
-3.5143,-73.046,35.271,-52.039,5.5491,2.0589,-9.6571,-39.344,-47.779,143.31,64.697,-50.39,-14.913,161.38,31.852,-4.2608
-3.5143,-73.046,35.271,-52.039,5.5491,2.0589,-9.6571,-39.344,-47.779,143.31,64.697,-50.39,-14.913,161.38,31.852,-4.2608
-3.5143,-73.046,35.271,-52.039,5.5491,2.0589,-9.6571,-39.344,-47.779,143.31,64.697,-50.39,-14.913,161.38,31.852,-4.2608
-3.7446,-70.878,34.956,-50.008,6.0386,3.6269,-9.8487,-36.892,-48.561,143.86,64.969,-48.486,-15.364,162.14,32.127,-3.1641
-3.7446,-70.878,34.956,-50.008,6.0386,3.6269,-9.8487,-36.892,-48.561,143.86,64.969,-48.486,-15.364,162.14,32.127,-3.1641
-3.8584,-69.796,34.798,-48.992,6.2816,4.4087,-9.944,-35.667,-48.95,144.13,65.103,-47.535,-15.588,162.52,32.263,-2.6176
-3.8584,-69.796,34.798,-48.992,6.2816,4.4087,-9.944,-35.667,-48.95,144.13,65.103,-47.535,-15.588,162.52,32.263,-2.6176
-3.9713,-68.716,34.64,-47.977,6.5232,5.1889,-10.039,-34.443,-49.338,144.4,65.234,-46.586,-15.812,162.89,32.397,-2.0724
-4.0833,-67.638,34.481,-46.963,6.7636,5.9675,-10.134,-33.221,-49.724,144.67,65.364,-45.637,-16.035,163.27,32.53,-1.5284
-4.0833,-67.638,34.481,-46.963,6.7636,5.9675,-10.134,-33.221,-49.724,144.67,65.364,-45.637,-16.035,163.27,32.53,-1.5284
-4.1943,-66.562,34.322,-45.949,7.0027,6.7444,-10.228,-31.999,-50.109,144.93,65.492,-44.69,-16.258,163.64,32.661,-0.98571
-4.1943,-66.562,34.322,-45.949,7.0027,6.7444,-10.228,-31.999,-50.109,144.93,65.492,-44.69,-16.258,163.64,32.661,-0.98571
-4.3044,-65.487,34.162,-44.935,7.2404,7.5197,-10.322,-30.779,-50.493,145.19,65.618,-43.744,-16.48,164.01,32.791,-0.44437
-4.3044,-65.487,34.162,-44.935,7.2404,7.5197,-10.322,-30.779,-50.493,145.19,65.618,-43.744,-16.48,164.01,32.791,-0.44437
-4.4136,-64.415,34.002,-43.923,7.4769,8.2932,-10.415,-29.56,-50.876,145.45,65.741,-42.799,-16.702,164.37,32.919,0.095584
-4.4136,-64.415,34.002,-43.923,7.4769,8.2932,-10.415,-29.56,-50.876,145.45,65.741,-42.799,-16.702,164.37,32.919,0.095584
-4.4136,-64.415,34.002,-43.923,7.4769,8.2932,-10.415,-29.56,-50.876,145.45,65.741,-42.799,-16.702,164.37,32.919,0.095584
-4.5218,-63.344,33.842,-42.911,7.712,9.065,-10.508,-28.343,-51.257,145.7,65.863,-41.856,-16.924,164.74,33.046,0.63413
-4.6291,-62.276,33.682,-41.899,7.9458,9.835,-10.601,-27.127,-51.637,145.95,65.983,-40.914,-17.145,165.1,33.172,1.1712
-4.6291,-62.276,33.682,-41.899,7.9458,9.835,-10.601,-27.127,-51.637,145.95,65.983,-40.914,-17.145,165.1,33.172,1.1712
-4.7355,-61.209,33.521,-40.889,8.1781,10.603,-10.693,-25.912,-52.016,146.2,66.101,-39.973,-17.366,165.47,33.296,1.7069
-4.7355,-61.209,33.521,-40.889,8.1781,10.603,-10.693,-25.912,-52.016,146.2,66.101,-39.973,-17.366,165.47,33.296,1.7069
-4.8409,-60.145,33.36,-39.88,8.4091,11.369,-10.784,-24.7,-52.393,146.44,66.217,-39.034,-17.586,165.83,33.418,2.241
-4.8409,-60.145,33.36,-39.88,8.4091,11.369,-10.784,-24.7,-52.393,146.44,66.217,-39.034,-17.586,165.83,33.418,2.241
-4.9453,-59.083,33.198,-38.871,8.6387,12.134,-10.875,-23.489,-52.77,146.69,66.331,-38.097,-17.806,166.19,33.539,2.7736
-4.9453,-59.083,33.198,-38.871,8.6387,12.134,-10.875,-23.489,-52.77,146.69,66.331,-38.097,-17.806,166.19,33.539,2.7736
-4.9453,-59.083,33.198,-38.871,8.6387,12.134,-10.875,-23.489,-52.77,146.69,66.331,-38.097,-17.806,166.19,33.539,2.7736
-5.0488,-58.024,33.037,-37.864,8.8669,12.896,-10.965,-22.28,-53.145,146.93,66.443,-37.161,-18.025,166.54,33.659,3.3046
-5.0488,-58.024,33.037,-37.864,8.8669,12.896,-10.965,-22.28,-53.145,146.93,66.443,-37.161,-18.025,166.54,33.659,3.3046
-5.1513,-56.967,32.875,-36.857,9.0937,13.656,-11.055,-21.073,-53.519,147.16,66.553,-36.227,-18.244,166.9,33.777,3.834
-5.1513,-56.967,32.875,-36.857,9.0937,13.656,-11.055,-21.073,-53.519,147.16,66.553,-36.227,-18.244,166.9,33.777,3.834
-5.1513,-56.967,32.875,-36.857,9.0937,13.656,-11.055,-21.073,-53.519,147.16,66.553,-36.227,-18.244,166.9,33.777,3.834
-5.3534,-54.859,32.55,-34.848,9.5428,15.171,-11.233,-18.666,-54.263,147.62,66.767,-34.364,-18.682,167.6,34.008,4.8878
-5.3534,-54.859,32.55,-34.848,9.5428,15.171,-11.233,-18.666,-54.263,147.62,66.767,-34.364,-18.682,167.6,34.008,4.8878
-5.3534,-54.859,32.55,-34.848,9.5428,15.171,-11.233,-18.666,-54.263,147.62,66.767,-34.364,-18.682,167.6,34.008,4.8878
-5.453,-53.81,32.387,-33.845,9.7652,15.925,-11.321,-17.465,-54.634,147.85,66.871,-33.435,-18.9,167.95,34.121,5.4122
-5.453,-53.81,32.387,-33.845,9.7652,15.925,-11.321,-17.465,-54.634,147.85,66.871,-33.435,-18.9,167.95,34.121,5.4122
-5.5516,-52.763,32.224,-32.844,9.9861,16.677,-11.408,-16.267,-55.003,148.07,66.973,-32.508,-19.118,168.3,34.233,5.9348
-5.6492,-51.718,32.061,-31.844,10.205,17.427,-11.495,-15.071,-55.371,148.3,67.073,-31.583,-19.335,168.64,34.343,6.4557
-5.6492,-51.718,32.061,-31.844,10.205,17.427,-11.495,-15.071,-55.371,148.3,67.073,-31.583,-19.335,168.64,34.343,6.4557
-5.7458,-50.676,31.897,-30.846,10.423,18.174,-11.581,-13.877,-55.738,148.51,67.17,-30.66,-19.553,168.98,34.452,6.9748
-5.7458,-50.676,31.897,-30.846,10.423,18.174,-11.581,-13.877,-55.738,148.51,67.17,-30.66,-19.553,168.98,34.452,6.9748
-5.7458,-50.676,31.897,-30.846,10.423,18.174,-11.581,-13.877,-55.738,148.51,67.17,-30.66,-19.553,168.98,34.452,6.9748
-5.7458,-50.676,31.897,-30.846,10.423,18.174,-11.581,-13.877,-55.738,148.51,67.17,-30.66,-19.553,168.98,34.452,6.9748
-5.9361,-48.601,31.57,-28.854,10.854,19.662,-11.751,-11.498,-56.468,148.94,67.359,-28.82,-19.987,169.66,34.664,8.0075
-5.9361,-48.601,31.57,-28.854,10.854,19.662,-11.751,-11.498,-56.468,148.94,67.359,-28.82,-19.987,169.66,34.664,8.0075
-6.0298,-47.568,31.405,-27.86,11.068,20.403,-11.834,-10.312,-56.832,149.15,67.451,-27.903,-20.204,170,34.768,8.521
-6.0298,-47.568,31.405,-27.86,11.068,20.403,-11.834,-10.312,-56.832,149.15,67.451,-27.903,-20.204,170,34.768,8.521
-6.0298,-47.568,31.405,-27.86,11.068,20.403,-11.834,-10.312,-56.832,149.15,67.451,-27.903,-20.204,170,34.768,8.521
-6.1224,-46.538,31.241,-26.869,11.279,21.141,-11.917,-9.1292,-57.194,149.35,67.54,-26.988,-20.42,170.33,34.871,9.0325
-6.2141,-45.51,31.076,-25.879,11.489,21.877,-11.999,-7.9492,-57.555,149.55,67.627,-26.076,-20.637,170.66,34.971,9.5422
-6.2141,-45.51,31.076,-25.879,11.489,21.877,-11.999,-7.9492,-57.555,149.55,67.627,-26.076,-20.637,170.66,34.971,9.5422
-6.3047,-44.486,30.911,-24.89,11.698,22.61,-12.08,-6.772,-57.916,149.75,67.712,-25.166,-20.853,170.99,35.07,10.05
-6.3047,-44.486,30.911,-24.89,11.698,22.61,-12.08,-6.772,-57.916,149.75,67.712,-25.166,-20.853,170.99,35.07,10.05
-6.3047,-44.486,30.911,-24.89,11.698,22.61,-12.08,-6.772,-57.916,149.75,67.712,-25.166,-20.853,170.99,35.07,10.05
-6.3944,-43.465,30.746,-23.904,11.905,23.341,-12.161,-5.5979,-58.275,149.95,67.795,-24.258,-21.069,171.32,35.167,10.555
-6.483,-42.447,30.581,-22.92,12.11,24.069,-12.24,-4.4269,-58.633,150.14,67.876,-23.353,-21.285,171.64,35.263,11.059
-6.483,-42.447,30.581,-22.92,12.11,24.069,-12.24,-4.4269,-58.633,150.14,67.876,-23.353,-21.285,171.64,35.263,11.059
-6.483,-42.447,30.581,-22.92,12.11,24.069,-12.24,-4.4269,-58.633,150.14,67.876,-23.353,-21.285,171.64,35.263,11.059
-6.5706,-41.432,30.415,-21.938,12.313,24.795,-12.319,-3.259,-58.989,150.33,67.955,-22.45,-21.501,171.96,35.357,11.56
-6.5706,-41.432,30.415,-21.938,12.313,24.795,-12.319,-3.259,-58.989,150.33,67.955,-22.45,-21.501,171.96,35.357,11.56
-6.6572,-40.421,30.25,-20.958,12.515,25.518,-12.396,-2.0944,-59.345,150.51,68.031,-21.549,-21.717,172.28,35.45,12.06
-6.7428,-39.413,30.084,-19.98,12.715,26.238,-12.473,-0.93311,-59.7,150.69,68.105,-20.651,-21.933,172.6,35.54,12.557
-6.7428,-39.413,30.084,-19.98,12.715,26.238,-12.473,-0.93311,-59.7,150.69,68.105,-20.651,-21.933,172.6,35.54,12.557
-6.7428,-39.413,30.084,-19.98,12.715,26.238,-12.473,-0.93311,-59.7,150.69,68.105,-20.651,-21.933,172.6,35.54,12.557
-6.8274,-38.408,29.918,-19.005,12.914,26.956,-12.549,0.22476,-60.054,150.87,68.177,-19.756,-22.149,172.91,35.629,13.052
-6.8274,-38.408,29.918,-19.005,12.914,26.956,-12.549,0.22476,-60.054,150.87,68.177,-19.756,-22.149,172.91,35.629,13.052
-6.8274,-38.408,29.918,-19.005,12.914,26.956,-12.549,0.22476,-60.054,150.87,68.177,-19.756,-22.149,172.91,35.629,13.052
-6.9935,-36.409,29.585,-17.061,13.306,28.383,-12.697,2.53,-60.758,151.22,68.315,-17.973,-22.58,173.53,35.802,14.036
-6.9935,-36.409,29.585,-17.061,13.306,28.383,-12.697,2.53,-60.758,151.22,68.315,-17.973,-22.58,173.53,35.802,14.036
-7.075,-35.415,29.419,-16.092,13.499,29.093,-12.77,3.6772,-61.108,151.39,68.381,-17.086,-22.796,173.84,35.886,14.524
-7.075,-35.415,29.419,-16.092,13.499,29.093,-12.77,3.6772,-61.108,151.39,68.381,-17.086,-22.796,173.84,35.886,14.524
-7.1555,-34.424,29.252,-15.126,13.691,29.799,-12.842,4.8206,-61.458,151.56,68.444,-16.201,-23.012,174.14,35.968,15.01
-7.1555,-34.424,29.252,-15.126,13.691,29.799,-12.842,4.8206,-61.458,151.56,68.444,-16.201,-23.012,174.14,35.968,15.01
-7.235,-33.437,29.085,-14.163,13.881,30.503,-12.912,5.9603,-61.806,151.72,68.505,-15.319,-23.228,174.44,36.049,15.494
-7.235,-33.437,29.085,-14.163,13.881,30.503,-12.912,5.9603,-61.806,151.72,68.505,-15.319,-23.228,174.44,36.049,15.494
-7.3134,-32.454,28.918,-13.202,14.069,31.204,-12.982,7.0961,-62.154,151.88,68.564,-14.441,-23.444,174.74,36.128,15.976
-7.3134,-32.454,28.918,-13.202,14.069,31.204,-12.982,7.0961,-62.154,151.88,68.564,-14.441,-23.444,174.74,36.128,15.976
-7.3134,-32.454,28.918,-13.202,14.069,31.204,-12.982,7.0961,-62.154,151.88,68.564,-14.441,-23.444,174.74,36.128,15.976
-7.3909,-31.475,28.751,-12.244,14.256,31.902,-13.05,8.2279,-62.501,152.03,68.621,-13.565,-23.66,175.04,36.205,16.455
-7.3909,-31.475,28.751,-12.244,14.256,31.902,-13.05,8.2279,-62.501,152.03,68.621,-13.565,-23.66,175.04,36.205,16.455
-7.3909,-31.475,28.751,-12.244,14.256,31.902,-13.05,8.2279,-62.501,152.03,68.621,-13.565,-23.66,175.04,36.205,16.455
-7.5426,-29.527,28.417,-10.336,14.623,33.289,-13.184,10.479,-63.191,152.33,68.728,-11.822,-24.092,175.62,36.353,17.406
-7.5426,-29.527,28.417,-10.336,14.623,33.289,-13.184,10.479,-63.191,152.33,68.728,-11.822,-24.092,175.62,36.353,17.406
-7.5426,-29.527,28.417,-10.336,14.623,33.289,-13.184,10.479,-63.191,152.33,68.728,-11.822,-24.092,175.62,36.353,17.406
-7.6169,-28.559,28.249,-9.3864,14.804,33.978,-13.249,11.599,-63.534,152.48,68.778,-10.955,-24.308,175.9,36.425,17.878
-7.6169,-28.559,28.249,-9.3864,14.804,33.978,-13.249,11.599,-63.534,152.48,68.778,-10.955,-24.308,175.9,36.425,17.878
-7.6902,-27.596,28.082,-8.4396,14.983,34.664,-13.313,12.714,-63.877,152.62,68.826,-10.091,-24.525,176.19,36.495,18.347
-7.7625,-26.636,27.914,-7.4958,15.161,35.347,-13.375,13.825,-64.219,152.76,68.871,-9.2306,-24.742,176.47,36.564,18.814
-7.7625,-26.636,27.914,-7.4958,15.161,35.347,-13.375,13.825,-64.219,152.76,68.871,-9.2306,-24.742,176.47,36.564,18.814
-7.8338,-25.68,27.746,-6.555,15.336,36.027,-13.437,14.932,-64.56,152.9,68.915,-8.3732,-24.958,176.75,36.63,19.278
-7.8338,-25.68,27.746,-6.555,15.336,36.027,-13.437,14.932,-64.56,152.9,68.915,-8.3732,-24.958,176.75,36.63,19.278
-7.8338,-25.68,27.746,-6.555,15.336,36.027,-13.437,14.932,-64.56,152.9,68.915,-8.3732,-24.958,176.75,36.63,19.278
-7.8338,-25.68,27.746,-6.555,15.336,36.027,-13.437,14.932,-64.56,152.9,68.915,-8.3732,-24.958,176.75,36.63,19.278
-7.9732,-23.781,27.411,-4.6826,15.682,37.376,-13.556,17.132,-65.238,153.16,68.995,-6.6681,-25.393,177.29,36.758,20.199
-7.9732,-23.781,27.411,-4.6826,15.682,37.376,-13.556,17.132,-65.238,153.16,68.995,-6.6681,-25.393,177.29,36.758,20.199
-7.9732,-23.781,27.411,-4.6826,15.682,37.376,-13.556,17.132,-65.238,153.16,68.995,-6.6681,-25.393,177.29,36.758,20.199
-8.0413,-22.838,27.243,-3.7512,15.852,38.047,-13.614,18.225,-65.576,153.28,69.031,-5.8206,-25.61,177.56,36.819,20.656
-8.0413,-22.838,27.243,-3.7512,15.852,38.047,-13.614,18.225,-65.576,153.28,69.031,-5.8206,-25.61,177.56,36.819,20.656
-8.0413,-22.838,27.243,-3.7512,15.852,38.047,-13.614,18.225,-65.576,153.28,69.031,-5.8206,-25.61,177.56,36.819,20.656
-8.1084,-21.898,27.075,-2.8231,16.02,38.713,-13.67,19.313,-65.914,153.4,69.065,-4.9765,-25.828,177.83,36.879,21.11
-8.1084,-21.898,27.075,-2.8231,16.02,38.713,-13.67,19.313,-65.914,153.4,69.065,-4.9765,-25.828,177.83,36.879,21.11
-8.2396,-20.033,26.739,-0.97684,16.35,40.037,-13.779,21.475,-66.585,153.63,69.127,-3.2985,-26.264,178.35,36.992,22.01
-8.2396,-20.033,26.739,-0.97684,16.35,40.037,-13.779,21.475,-66.585,153.63,69.127,-3.2985,-26.264,178.35,36.992,22.01
-8.2396,-20.033,26.739,-0.97684,16.35,40.037,-13.779,21.475,-66.585,153.63,69.127,-3.2985,-26.264,178.35,36.992,22.01
-8.2396,-20.033,26.739,-0.97684,16.35,40.037,-13.779,21.475,-66.585,153.63,69.127,-3.2985,-26.264,178.35,36.992,22.01
-8.3666,-18.186,26.402,0.85573,16.673,41.348,-13.882,23.618,-67.253,153.85,69.18,-1.6346,-26.701,178.86,37.098,22.899
-8.3666,-18.186,26.402,0.85573,16.673,41.348,-13.882,23.618,-67.253,153.85,69.18,-1.6346,-26.701,178.86,37.098,22.899
-8.4285,-17.269,26.234,1.7667,16.832,41.998,-13.932,24.681,-67.586,153.96,69.203,-0.80805,-26.92,179.11,37.149,23.339
-8.4285,-17.269,26.234,1.7667,16.832,41.998,-13.932,24.681,-67.586,153.96,69.203,-0.80805,-26.92,179.11,37.149,23.339
-8.4895,-16.357,26.066,2.6741,16.988,42.644,-13.98,25.74,-67.918,154.06,69.223,0.01487,-27.14,179.35,37.198,23.777
-8.4895,-16.357,26.066,2.6741,16.988,42.644,-13.98,25.74,-67.918,154.06,69.223,0.01487,-27.14,179.35,37.198,23.777
-8.5494,-15.449,25.898,3.5779,17.143,43.288,-14.027,26.793,-68.249,154.15,69.241,0.8341,-27.36,179.6,37.244,24.211
-8.5494,-15.449,25.898,3.5779,17.143,43.288,-14.027,26.793,-68.249,154.15,69.241,0.8341,-27.36,179.6,37.244,24.211
-8.6083,-14.546,25.73,4.478,17.296,43.927,-14.072,27.842,-68.579,154.25,69.257,1.6496,-27.58,179.83,37.289,24.643
-8.6083,-14.546,25.73,4.478,17.296,43.927,-14.072,27.842,-68.579,154.25,69.257,1.6496,-27.58,179.83,37.289,24.643
-8.6661,-13.647,25.561,5.3743,17.446,44.563,-14.116,28.885,-68.909,154.33,69.271,2.4613,-27.8,180.07,37.333,25.072
-8.6661,-13.647,25.561,5.3743,17.446,44.563,-14.116,28.885,-68.909,154.33,69.271,2.4613,-27.8,180.07,37.333,25.072
-8.6661,-13.647,25.561,5.3743,17.446,44.563,-14.116,28.885,-68.909,154.33,69.271,2.4613,-27.8,180.07,37.333,25.072
-8.7229,-12.753,25.393,6.2668,17.595,45.196,-14.158,29.922,-69.238,154.42,69.282,3.2692,-28.021,180.3,37.374,25.498
-8.7787,-11.864,25.225,7.1555,17.742,45.825,-14.199,30.954,-69.565,154.5,69.291,4.0733,-28.243,180.53,37.413,25.922
-8.7787,-11.864,25.225,7.1555,17.742,45.825,-14.199,30.954,-69.565,154.5,69.291,4.0733,-28.243,180.53,37.413,25.922
-8.8335,-10.98,25.056,8.0402,17.886,46.45,-14.239,31.981,-69.893,154.58,69.298,4.8735,-28.465,180.76,37.451,26.342
-8.8335,-10.98,25.056,8.0402,17.886,46.45,-14.239,31.981,-69.893,154.58,69.298,4.8735,-28.465,180.76,37.451,26.342
-8.8872,-10.101,24.888,8.921,18.029,47.072,-14.277,33.002,-70.219,154.66,69.302,5.6697,-28.687,180.98,37.487,26.759
-8.8872,-10.101,24.888,8.921,18.029,47.072,-14.277,33.002,-70.219,154.66,69.302,5.6697,-28.687,180.98,37.487,26.759
-8.8872,-10.101,24.888,8.921,18.029,47.072,-14.277,33.002,-70.219,154.66,69.302,5.6697,-28.687,180.98,37.487,26.759
-8.94,-9.2263,24.72,9.7977,18.17,47.69,-14.313,34.017,-70.544,154.73,69.304,6.4619,-28.91,181.2,37.521,27.174
-8.94,-9.2263,24.72,9.7977,18.17,47.69,-14.313,34.017,-70.544,154.73,69.304,6.4619,-28.91,181.2,37.521,27.174
-8.9917,-8.3568,24.552,10.67,18.309,48.304,-14.348,35.027,-70.869,154.8,69.304,7.2501,-29.133,181.42,37.553,27.585
-8.9917,-8.3568,24.552,10.67,18.309,48.304,-14.348,35.027,-70.869,154.8,69.304,7.2501,-29.133,181.42,37.553,27.585
-8.9917,-8.3568,24.552,10.67,18.309,48.304,-14.348,35.027,-70.869,154.8,69.304,7.2501,-29.133,181.42,37.553,27.585
-9.092,-6.6327,24.216,12.403,18.58,49.522,-14.413,37.029,-71.516,154.92,69.297,8.8144,-29.581,181.84,37.612,28.399
-9.092,-6.6327,24.216,12.403,18.58,49.522,-14.413,37.029,-71.516,154.92,69.297,8.8144,-29.581,181.84,37.612,28.399
-9.1407,-5.7782,24.048,13.264,18.713,50.125,-14.443,38.021,-71.839,154.98,69.29,9.5903,-29.806,182.04,37.639,28.801
-9.1407,-5.7782,24.048,13.264,18.713,50.125,-14.443,38.021,-71.839,154.98,69.29,9.5903,-29.806,182.04,37.639,28.801
-9.1883,-4.9289,23.88,14.119,18.843,50.724,-14.472,39.007,-72.161,155.03,69.28,10.362,-30.031,182.24,37.663,29.2
-9.1883,-4.9289,23.88,14.119,18.843,50.724,-14.472,39.007,-72.161,155.03,69.28,10.362,-30.031,182.24,37.663,29.2
-9.1883,-4.9289,23.88,14.119,18.843,50.724,-14.472,39.007,-72.161,155.03,69.28,10.362,-30.031,182.24,37.663,29.2
-9.2349,-4.0846,23.712,14.971,18.972,51.319,-14.499,39.987,-72.482,155.08,69.268,11.13,-30.257,182.44,37.686,29.596
-9.2349,-4.0846,23.712,14.971,18.972,51.319,-14.499,39.987,-72.482,155.08,69.268,11.13,-30.257,182.44,37.686,29.596
-9.2805,-3.2456,23.544,15.818,19.098,51.911,-14.524,40.961,-72.802,155.13,69.254,11.893,-30.483,182.63,37.707,29.989
-9.2805,-3.2456,23.544,15.818,19.098,51.911,-14.524,40.961,-72.802,155.13,69.254,11.893,-30.483,182.63,37.707,29.989
-9.2805,-3.2456,23.544,15.818,19.098,51.911,-14.524,40.961,-72.802,155.13,69.254,11.893,-30.483,182.63,37.707,29.989
-9.3687,-1.5831,23.208,17.499,19.345,53.082,-14.569,42.891,-73.441,155.21,69.219,13.407,-30.938,183.01,37.744,30.766
-9.3687,-1.5831,23.208,17.499,19.345,53.082,-14.569,42.891,-73.441,155.21,69.219,13.407,-30.938,183.01,37.744,30.766
-9.4112,-0.75984,23.041,18.333,19.465,53.662,-14.59,43.846,-73.759,155.24,69.197,14.157,-31.166,183.19,37.76,31.149
-9.4112,-0.75984,23.041,18.333,19.465,53.662,-14.59,43.846,-73.759,155.24,69.197,14.157,-31.166,183.19,37.76,31.149
-9.4112,-0.75984,23.041,18.333,19.465,53.662,-14.59,43.846,-73.759,155.24,69.197,14.157,-31.166,183.19,37.76,31.149
-9.4528,0.05813,22.873,19.163,19.583,54.238,-14.608,44.796,-74.077,155.28,69.174,14.903,-31.395,183.37,37.773,31.529
-9.4934,0.87074,22.706,19.987,19.699,54.809,-14.625,45.739,-74.394,155.3,69.148,15.644,-31.624,183.55,37.785,31.906
-9.4934,0.87074,22.706,19.987,19.699,54.809,-14.625,45.739,-74.394,155.3,69.148,15.644,-31.624,183.55,37.785,31.906
-9.5329,1.6779,22.539,20.807,19.813,55.377,-14.64,46.675,-74.71,155.33,69.12,16.381,-31.854,183.72,37.795,32.28
-9.5329,1.6779,22.539,20.807,19.813,55.377,-14.64,46.675,-74.71,155.33,69.12,16.381,-31.854,183.72,37.795,32.28
-9.5715,2.4797,22.371,21.623,19.925,55.941,-14.654,47.605,-75.026,155.35,69.089,17.114,-32.085,183.88,37.803,32.65
-9.5715,2.4797,22.371,21.623,19.925,55.941,-14.654,47.605,-75.026,155.35,69.089,17.114,-32.085,183.88,37.803,32.65
-9.5715,2.4797,22.371,21.623,19.925,55.941,-14.654,47.605,-75.026,155.35,69.089,17.114,-32.085,183.88,37.803,32.65
-9.609,3.276,22.204,22.433,20.034,56.5,-14.665,48.528,-75.341,155.36,69.056,17.842,-32.317,184.05,37.809,33.017
-9.609,3.276,22.204,22.433,20.034,56.5,-14.665,48.528,-75.341,155.36,69.056,17.842,-32.317,184.05,37.809,33.017
-9.6456,4.0668,22.037,23.239,20.142,57.056,-14.675,49.445,-75.655,155.38,69.021,18.565,-32.549,184.21,37.814,33.381
-9.6456,4.0668,22.037,23.239,20.142,57.056,-14.675,49.445,-75.655,155.38,69.021,18.565,-32.549,184.21,37.814,33.381
-9.6812,4.8521,21.871,24.04,20.247,57.607,-14.683,50.355,-75.969,155.39,68.984,19.284,-32.782,184.36,37.816,33.742
-9.6812,4.8521,21.871,24.04,20.247,57.607,-14.683,50.355,-75.969,155.39,68.984,19.284,-32.782,184.36,37.816,33.742
-9.7158,5.6318,21.704,24.836,20.351,58.155,-14.69,51.259,-76.282,155.39,68.944,19.998,-33.015,184.51,37.817,34.099
-9.7494,6.4058,21.537,25.628,20.452,58.698,-14.694,52.155,-76.595,155.39,68.902,20.707,-33.25,184.66,37.816,34.453
-9.7494,6.4058,21.537,25.628,20.452,58.698,-14.694,52.155,-76.595,155.39,68.902,20.707,-33.25,184.66,37.816,34.453
-9.782,7.1743,21.371,26.414,20.551,59.237,-14.697,53.045,-76.906,155.39,68.857,21.412,-33.485,184.8,37.813,34.803
-9.782,7.1743,21.371,26.414,20.551,59.237,-14.697,53.045,-76.906,155.39,68.857,21.412,-33.485,184.8,37.813,34.803
-9.8136,7.937,21.205,27.195,20.648,59.771,-14.698,53.928,-77.218,155.39,68.81,22.112,-33.721,184.94,37.808,35.15
-9.8136,7.937,21.205,27.195,20.648,59.771,-14.698,53.928,-77.218,155.39,68.81,22.112,-33.721,184.94,37.808,35.15
-9.8442,8.6941,21.039,27.971,20.742,60.302,-14.697,54.804,-77.529,155.38,68.761,22.807,-33.957,185.08,37.801,35.494
-9.8442,8.6941,21.039,27.971,20.742,60.302,-14.697,54.804,-77.529,155.38,68.761,22.807,-33.957,185.08,37.801,35.494
-9.8442,8.6941,21.039,27.971,20.742,60.302,-14.697,54.804,-77.529,155.38,68.761,22.807,-33.957,185.08,37.801,35.494
-9.8739,9.4455,20.873,28.743,20.835,60.828,-14.694,55.674,-77.839,155.36,68.71,23.497,-34.194,185.21,37.793,35.834
-9.8739,9.4455,20.873,28.743,20.835,60.828,-14.694,55.674,-77.839,155.36,68.71,23.497,-34.194,185.21,37.793,35.834
-9.8739,9.4455,20.873,28.743,20.835,60.828,-14.694,55.674,-77.839,155.36,68.71,23.497,-34.194,185.21,37.793,35.834
-9.9303,10.931,20.541,30.27,21.014,61.868,-14.683,57.391,-78.457,155.33,68.6,24.864,-34.672,185.46,37.77,36.504
-9.9303,10.931,20.541,30.27,21.014,61.868,-14.683,57.391,-78.457,155.33,68.6,24.864,-34.672,185.46,37.77,36.504
-9.957,11.665,20.376,31.025,21.1,62.381,-14.675,58.239,-78.766,155.3,68.542,25.539,-34.911,185.58,37.756,36.833
-9.957,11.665,20.376,31.025,21.1,62.381,-14.675,58.239,-78.766,155.3,68.542,25.539,-34.911,185.58,37.756,36.833
-9.957,11.665,20.376,31.025,21.1,62.381,-14.675,58.239,-78.766,155.3,68.542,25.539,-34.911,185.58,37.756,36.833
-9.957,11.665,20.376,31.025,21.1,62.381,-14.675,58.239,-78.766,155.3,68.542,25.539,-34.911,185.58,37.756,36.833
-10.008,13.115,20.046,32.521,21.265,63.395,-14.653,59.914,-79.381,155.24,68.418,26.876,-35.393,185.8,37.722,37.482
-10.008,13.115,20.046,32.521,21.265,63.395,-14.653,59.914,-79.381,155.24,68.418,26.876,-35.393,185.8,37.722,37.482
-10.031,13.831,19.881,33.261,21.345,63.895,-14.639,60.74,-79.688,155.21,68.352,27.537,-35.636,185.91,37.702,37.802
-10.031,13.831,19.881,33.261,21.345,63.895,-14.639,60.74,-79.688,155.21,68.352,27.537,-35.636,185.91,37.702,37.802
-10.031,13.831,19.881,33.261,21.345,63.895,-14.639,60.74,-79.688,155.21,68.352,27.537,-35.636,185.91,37.702,37.802
-10.054,14.542,19.717,33.995,21.422,64.391,-14.623,61.559,-79.995,155.17,68.285,28.193,-35.879,186.01,37.681,38.117
-10.076,15.246,19.552,34.724,21.498,64.883,-14.605,62.371,-80.3,155.12,68.215,28.844,-36.123,186.11,37.658,38.43
-10.076,15.246,19.552,34.724,21.498,64.883,-14.605,62.371,-80.3,155.12,68.215,28.844,-36.123,186.11,37.658,38.43
-10.097,15.945,19.388,35.448,21.571,65.37,-14.586,63.176,-80.606,155.08,68.143,29.489,-36.368,186.21,37.632,38.738
-10.097,15.945,19.388,35.448,21.571,65.37,-14.586,63.176,-80.606,155.08,68.143,29.489,-36.368,186.21,37.632,38.738
-10.117,16.637,19.224,36.166,21.641,65.853,-14.564,63.973,-80.911,155.03,68.068,30.13,-36.614,186.29,37.605,39.043
-10.117,16.637,19.224,36.166,21.641,65.853,-14.564,63.973,-80.911,155.03,68.068,30.13,-36.614,186.29,37.605,39.043
-10.117,16.637,19.224,36.166,21.641,65.853,-14.564,63.973,-80.911,155.03,68.068,30.13,-36.614,186.29,37.605,39.043
-10.117,16.637,19.224,36.166,21.641,65.853,-14.564,63.973,-80.911,155.03,68.068,30.13,-36.614,186.29,37.605,39.043
-10.154,18.004,18.897,37.587,21.776,66.805,-14.515,65.545,-81.519,154.91,67.912,31.396,-37.108,186.46,37.546,39.642
-10.154,18.004,18.897,37.587,21.776,66.805,-14.515,65.545,-81.519,154.91,67.912,31.396,-37.108,186.46,37.546,39.642
-10.172,18.678,18.734,38.288,21.841,67.274,-14.488,66.32,-81.822,154.85,67.831,32.021,-37.357,186.54,37.513,39.937
-10.172,18.678,18.734,38.288,21.841,67.274,-14.488,66.32,-81.822,154.85,67.831,32.021,-37.357,186.54,37.513,39.937
-10.188,19.346,18.571,38.984,21.903,67.739,-14.458,67.087,-82.125,154.78,67.747,32.64,-37.606,186.61,37.479,40.227
-10.188,19.346,18.571,38.984,21.903,67.739,-14.458,67.087,-82.125,154.78,67.747,32.64,-37.606,186.61,37.479,40.227
-10.188,19.346,18.571,38.984,21.903,67.739,-14.458,67.087,-82.125,154.78,67.747,32.64,-37.606,186.61,37.479,40.227
-10.203,20.008,18.408,39.675,21.963,68.199,-14.427,67.846,-82.428,154.71,67.661,33.255,-37.857,186.68,37.443,40.514
-10.203,20.008,18.408,39.675,21.963,68.199,-14.427,67.846,-82.428,154.71,67.661,33.255,-37.857,186.68,37.443,40.514
-10.203,20.008,18.408,39.675,21.963,68.199,-14.427,67.846,-82.428,154.71,67.661,33.255,-37.857,186.68,37.443,40.514
-10.231,21.314,18.083,41.039,22.076,69.106,-14.358,69.342,-83.031,154.56,67.483,34.469,-38.361,186.8,37.365,41.077
-10.231,21.314,18.083,41.039,22.076,69.106,-14.358,69.342,-83.031,154.56,67.483,34.469,-38.361,186.8,37.365,41.077
-10.231,21.314,18.083,41.039,22.076,69.106,-14.358,69.342,-83.031,154.56,67.483,34.469,-38.361,186.8,37.365,41.077
-10.244,21.957,17.922,41.712,22.129,69.552,-14.321,70.079,-83.332,154.48,67.39,35.067,-38.614,186.85,37.323,41.353
-10.244,21.957,17.922,41.712,22.129,69.552,-14.321,70.079,-83.332,154.48,67.39,35.067,-38.614,186.85,37.323,41.353
-10.255,22.594,17.76,42.38,22.18,69.994,-14.282,70.807,-83.633,154.4,67.295,35.661,-38.869,186.91,37.28,41.625
-10.255,22.594,17.76,42.38,22.18,69.994,-14.282,70.807,-83.633,154.4,67.295,35.661,-38.869,186.91,37.28,41.625
-10.255,22.594,17.76,42.38,22.18,69.994,-14.282,70.807,-83.633,154.4,67.295,35.661,-38.869,186.91,37.28,41.625
-10.276,23.85,17.438,43.698,22.276,70.864,-14.197,72.241,-84.233,154.22,67.098,36.831,-39.38,186.99,37.188,42.158
-10.276,23.85,17.438,43.698,22.276,70.864,-14.197,72.241,-84.233,154.22,67.098,36.831,-39.38,186.99,37.188,42.158
-10.276,23.85,17.438,43.698,22.276,70.864,-14.197,72.241,-84.233,154.22,67.098,36.831,-39.38,186.99,37.188,42.158
-10.284,24.469,17.277,44.348,22.32,71.292,-14.152,72.947,-84.532,154.12,66.997,37.409,-39.638,187.03,37.139,42.419
-10.284,24.469,17.277,44.348,22.32,71.292,-14.152,72.947,-84.532,154.12,66.997,37.409,-39.638,187.03,37.139,42.419
-10.284,24.469,17.277,44.348,22.32,71.292,-14.152,72.947,-84.532,154.12,66.997,37.409,-39.638,187.03,37.139,42.419
-10.299,25.687,16.956,45.631,22.403,72.135,-14.056,74.333,-85.129,153.92,66.787,38.547,-40.156,187.09,37.036,42.93
-10.299,25.687,16.956,45.631,22.403,72.135,-14.056,74.333,-85.129,153.92,66.787,38.547,-40.156,187.09,37.036,42.93
-10.299,25.687,16.956,45.631,22.403,72.135,-14.056,74.333,-85.129,153.92,66.787,38.547,-40.156,187.09,37.036,42.93
-10.306,26.286,16.796,46.264,22.441,72.549,-14.005,75.015,-85.427,153.81,66.678,39.108,-40.417,187.11,36.982,43.18
-10.306,26.286,16.796,46.264,22.441,72.549,-14.005,75.015,-85.427,153.81,66.678,39.108,-40.417,187.11,36.982,43.18
-10.311,26.879,16.637,46.891,22.476,72.958,-13.951,75.689,-85.725,153.7,66.568,39.663,-40.678,187.13,36.926,43.426
-10.315,27.466,16.477,47.511,22.51,73.363,-13.896,76.354,-86.022,153.58,66.455,40.213,-40.941,187.15,36.869,43.668
-10.315,27.466,16.477,47.511,22.51,73.363,-13.896,76.354,-86.022,153.58,66.455,40.213,-40.941,187.15,36.869,43.668
-10.319,28.047,16.319,48.126,22.541,73.763,-13.839,77.012,-86.319,153.46,66.34,40.757,-41.205,187.16,36.809,43.907
-10.319,28.047,16.319,48.126,22.541,73.763,-13.839,77.012,-86.319,153.46,66.34,40.757,-41.205,187.16,36.809,43.907
-10.319,28.047,16.319,48.126,22.541,73.763,-13.839,77.012,-86.319,153.46,66.34,40.757,-41.205,187.16,36.809,43.907
-10.321,28.621,16.16,48.735,22.57,74.158,-13.78,77.661,-86.615,153.34,66.223,41.296,-41.47,187.16,36.748,44.142
-10.321,28.621,16.16,48.735,22.57,74.158,-13.78,77.661,-86.615,153.34,66.223,41.296,-41.47,187.16,36.748,44.142
-10.323,29.188,16.002,49.337,22.597,74.549,-13.718,78.303,-86.912,153.22,66.104,41.829,-41.735,187.16,36.685,44.373
-10.324,29.749,15.844,49.934,22.622,74.934,-13.655,78.936,-87.207,153.09,65.982,42.357,-42.003,187.16,36.62,44.6
-10.324,29.749,15.844,49.934,22.622,74.934,-13.655,78.936,-87.207,153.09,65.982,42.357,-42.003,187.16,36.62,44.6
-10.324,30.304,15.686,50.524,22.644,75.315,-13.59,79.561,-87.503,152.95,65.859,42.879,-42.271,187.15,36.554,44.823
-10.324,30.304,15.686,50.524,22.644,75.315,-13.59,79.561,-87.503,152.95,65.859,42.879,-42.271,187.15,36.554,44.823
-10.324,30.304,15.686,50.524,22.644,75.315,-13.59,79.561,-87.503,152.95,65.859,42.879,-42.271,187.15,36.554,44.823
-10.323,30.852,15.529,51.109,22.665,75.692,-13.523,80.178,-87.797,152.81,65.733,43.395,-42.54,187.14,36.486,45.043
-10.321,31.394,15.372,51.687,22.683,76.063,-13.453,80.787,-88.092,152.67,65.605,43.906,-42.81,187.12,36.416,45.258
-10.321,31.394,15.372,51.687,22.683,76.063,-13.453,80.787,-88.092,152.67,65.605,43.906,-42.81,187.12,36.416,45.258
-10.318,31.93,15.216,52.259,22.699,76.43,-13.382,81.388,-88.386,152.53,65.475,44.41,-43.082,187.1,36.344,45.47
-10.318,31.93,15.216,52.259,22.699,76.43,-13.382,81.388,-88.386,152.53,65.475,44.41,-43.082,187.1,36.344,45.47
-10.314,32.458,15.06,52.825,22.713,76.792,-13.309,81.98,-88.68,152.38,65.343,44.91,-43.355,187.07,36.271,45.678
-10.314,32.458,15.06,52.825,22.713,76.792,-13.309,81.98,-88.68,152.38,65.343,44.91,-43.355,187.07,36.271,45.678
-10.31,32.981,14.904,53.385,22.724,77.149,-13.233,82.564,-88.974,152.23,65.209,45.403,-43.628,187.04,36.196,45.882
-10.31,32.981,14.904,53.385,22.724,77.149,-13.233,82.564,-88.974,152.23,65.209,45.403,-43.628,187.04,36.196,45.882
-10.31,32.981,14.904,53.385,22.724,77.149,-13.233,82.564,-88.974,152.23,65.209,45.403,-43.628,187.04,36.196,45.882
-10.305,33.497,14.749,53.939,22.734,77.501,-13.156,83.14,-89.267,152.07,65.072,45.891,-43.903,187.01,36.119,46.083
-10.305,33.497,14.749,53.939,22.734,77.501,-13.156,83.14,-89.267,152.07,65.072,45.891,-43.903,187.01,36.119,46.083
-10.299,34.006,14.594,54.486,22.741,77.849,-13.076,83.708,-89.559,151.91,64.934,46.373,-44.179,186.97,36.041,46.279
-10.299,34.006,14.594,54.486,22.741,77.849,-13.076,83.708,-89.559,151.91,64.934,46.373,-44.179,186.97,36.041,46.279
-10.299,34.006,14.594,54.486,22.741,77.849,-13.076,83.708,-89.559,151.91,64.934,46.373,-44.179,186.97,36.041,46.279
-10.284,35.005,14.285,55.562,22.749,78.529,-12.911,84.818,-90.144,151.58,64.65,47.321,-44.735,186.87,35.879,46.661
-10.284,35.005,14.285,55.562,22.749,78.529,-12.911,84.818,-90.144,151.58,64.65,47.321,-44.735,186.87,35.879,46.661
-10.275,35.495,14.131,56.091,22.75,78.862,-12.826,85.361,-90.436,151.41,64.505,47.785,-45.015,186.82,35.796,46.846
-10.275,35.495,14.131,56.091,22.75,78.862,-12.826,85.361,-90.436,151.41,64.505,47.785,-45.015,186.82,35.796,46.846
-10.266,35.978,13.977,56.613,22.749,79.19,-12.739,85.896,-90.727,151.23,64.359,48.244,-45.296,186.76,35.711,47.027
-10.266,35.978,13.977,56.613,22.749,79.19,-12.739,85.896,-90.727,151.23,64.359,48.244,-45.296,186.76,35.711,47.027
-10.255,36.454,13.824,57.129,22.745,79.514,-12.649,86.422,-91.018,151.05,64.21,48.698,-45.578,186.7,35.624,47.204
-10.255,36.454,13.824,57.129,22.745,79.514,-12.649,86.422,-91.018,151.05,64.21,48.698,-45.578,186.7,35.624,47.204
-10.244,36.924,13.672,57.639,22.74,79.832,-12.558,86.939,-91.309,150.87,64.059,49.145,-45.861,186.63,35.536,47.377
-10.244,36.924,13.672,57.639,22.74,79.832,-12.558,86.939,-91.309,150.87,64.059,49.145,-45.861,186.63,35.536,47.377
-10.232,37.388,13.52,58.142,22.732,80.145,-12.464,87.449,-91.599,150.69,63.906,49.587,-46.145,186.56,35.446,47.547
-10.232,37.388,13.52,58.142,22.732,80.145,-12.464,87.449,-91.599,150.69,63.906,49.587,-46.145,186.56,35.446,47.547
-10.232,37.388,13.52,58.142,22.732,80.145,-12.464,87.449,-91.599,150.69,63.906,49.587,-46.145,186.56,35.446,47.547
-10.219,37.845,13.368,58.639,22.722,80.454,-12.369,87.95,-91.889,150.5,63.751,50.023,-46.431,186.48,35.354,47.713
-10.219,37.845,13.368,58.639,22.722,80.454,-12.369,87.95,-91.889,150.5,63.751,50.023,-46.431,186.48,35.354,47.713
-10.219,37.845,13.368,58.639,22.722,80.454,-12.369,87.95,-91.889,150.5,63.751,50.023,-46.431,186.48,35.354,47.713
-10.191,38.739,13.066,59.614,22.696,81.057,-12.172,88.926,-92.468,150.11,63.435,50.877,-47.006,186.31,35.166,48.032
-10.191,38.739,13.066,59.614,22.696,81.057,-12.172,88.926,-92.468,150.11,63.435,50.877,-47.006,186.31,35.166,48.032
-10.191,38.739,13.066,59.614,22.696,81.057,-12.172,88.926,-92.468,150.11,63.435,50.877,-47.006,186.31,35.166,48.032
-10.176,39.176,12.915,60.092,22.679,81.351,-12.07,89.402,-92.757,149.91,63.274,51.295,-47.295,186.22,35.069,48.186
-10.176,39.176,12.915,60.092,22.679,81.351,-12.07,89.402,-92.757,149.91,63.274,51.295,-47.295,186.22,35.069,48.186
-10.176,39.176,12.915,60.092,22.679,81.351,-12.07,89.402,-92.757,149.91,63.274,51.295,-47.295,186.22,35.069,48.186
-10.143,40.03,12.615,61.028,22.641,81.924,-11.862,90.328,-93.334,149.49,62.946,52.114,-47.877,186.02,34.871,48.482
-10.143,40.03,12.615,61.028,22.641,81.924,-11.862,90.328,-93.334,149.49,62.946,52.114,-47.877,186.02,34.871,48.482
-10.143,40.03,12.615,61.028,22.641,81.924,-11.862,90.328,-93.334,149.49,62.946,52.114,-47.877,186.02,34.871,48.482
-10.125,40.448,12.466,61.487,22.618,82.204,-11.754,90.779,-93.623,149.28,62.779,52.514,-48.17,185.92,34.77,48.625
-10.125,40.448,12.466,61.487,22.618,82.204,-11.754,90.779,-93.623,149.28,62.779,52.514,-48.17,185.92,34.77,48.625
-10.125,40.448,12.466,61.487,22.618,82.204,-11.754,90.779,-93.623,149.28,62.779,52.514,-48.17,185.92,34.77,48.625
-10.087,41.263,12.169,62.385,22.566,82.748,-11.534,91.654,-94.198,148.85,62.439,53.298,-48.76,185.7,34.563,48.898
-10.087,41.263,12.169,62.385,22.566,82.748,-11.534,91.654,-94.198,148.85,62.439,53.298,-48.76,185.7,34.563,48.898
-10.087,41.263,12.169,62.385,22.566,82.748,-11.534,91.654,-94.198,148.85,62.439,53.298,-48.76,185.7,34.563,48.898
-10.067,41.66,12.021,62.825,22.538,83.012,-11.421,92.079,-94.485,148.62,62.266,53.681,-49.056,185.58,34.457,49.028
-10.067,41.66,12.021,62.825,22.538,83.012,-11.421,92.079,-94.485,148.62,62.266,53.681,-49.056,185.58,34.457,49.028
-10.046,42.051,11.874,63.258,22.507,83.272,-11.306,92.496,-94.772,148.4,62.091,54.058,-49.354,185.45,34.349,49.155
-10.046,42.051,11.874,63.258,22.507,83.272,-11.306,92.496,-94.772,148.4,62.091,54.058,-49.354,185.45,34.349,49.155
-10.025,42.436,11.727,63.684,22.474,83.527,-11.189,92.904,-95.058,148.17,61.915,54.429,-49.653,185.32,34.24,49.278
-10.025,42.436,11.727,63.684,22.474,83.527,-11.189,92.904,-95.058,148.17,61.915,54.429,-49.653,185.32,34.24,49.278
-10.025,42.436,11.727,63.684,22.474,83.527,-11.189,92.904,-95.058,148.17,61.915,54.429,-49.653,185.32,34.24,49.278
-9.9792,43.185,11.435,64.518,22.402,84.022,-10.949,93.695,-95.63,147.7,61.556,55.153,-50.256,185.05,34.017,49.512
-9.9792,43.185,11.435,64.518,22.402,84.022,-10.949,93.695,-95.63,147.7,61.556,55.153,-50.256,185.05,34.017,49.512
-9.9552,43.549,11.289,64.925,22.362,84.262,-10.826,94.078,-95.916,147.46,61.374,55.506,-50.559,184.91,33.903,49.624
-9.9552,43.549,11.289,64.925,22.362,84.262,-10.826,94.078,-95.916,147.46,61.374,55.506,-50.559,184.91,33.903,49.624
-9.9305,43.907,11.144,65.326,22.321,84.497,-10.701,94.452,-96.201,147.21,61.19,55.853,-50.863,184.76,33.788,49.731
-9.9305,43.907,11.144,65.326,22.321,84.497,-10.701,94.452,-96.201,147.21,61.19,55.853,-50.863,184.76,33.788,49.731
-9.9305,43.907,11.144,65.326,22.321,84.497,-10.701,94.452,-96.201,147.21,61.19,55.853,-50.863,184.76,33.788,49.731
-9.9305,43.907,11.144,65.326,22.321,84.497,-10.701,94.452,-96.201,147.21,61.19,55.853,-50.863,184.76,33.788,49.731
-9.8787,44.603,10.856,66.108,22.233,84.952,-10.446,95.175,-96.771,146.71,60.816,56.53,-51.475,184.46,33.554,49.934
-9.8787,44.603,10.856,66.108,22.233,84.952,-10.446,95.175,-96.771,146.71,60.816,56.53,-51.475,184.46,33.554,49.934
-9.8787,44.603,10.856,66.108,22.233,84.952,-10.446,95.175,-96.771,146.71,60.816,56.53,-51.475,184.46,33.554,49.934
-9.8517,44.942,10.712,66.489,22.185,85.173,-10.316,95.524,-97.055,146.46,60.626,56.859,-51.783,184.3,33.434,50.03
-9.8517,44.942,10.712,66.489,22.185,85.173,-10.316,95.524,-97.055,146.46,60.626,56.859,-51.783,184.3,33.434,50.03
-9.8517,44.942,10.712,66.489,22.185,85.173,-10.316,95.524,-97.055,146.46,60.626,56.859,-51.783,184.3,33.434,50.03
-9.7954,45.598,10.427,67.232,22.085,85.599,-10.05,96.197,-97.623,145.94,60.242,57.5,-52.403,183.96,33.19,50.21
-9.7954,45.598,10.427,67.232,22.085,85.599,-10.05,96.197,-97.623,145.94,60.242,57.5,-52.403,183.96,33.19,50.21
-9.7661,45.917,10.285,67.594,22.032,85.805,-9.9142,96.521,-97.907,145.67,60.047,57.811,-52.715,183.79,33.066,50.294
-9.7661,45.917,10.285,67.594,22.032,85.805,-9.9142,96.521,-97.907,145.67,60.047,57.811,-52.715,183.79,33.066,50.294
-9.7361,46.229,10.143,67.949,21.976,86.006,-9.7766,96.836,-98.19,145.41,59.85,58.116,-53.028,183.61,32.941,50.374
-9.7361,46.229,10.143,67.949,21.976,86.006,-9.7766,96.836,-98.19,145.41,59.85,58.116,-53.028,183.61,32.941,50.374
-9.7361,46.229,10.143,67.949,21.976,86.006,-9.7766,96.836,-98.19,145.41,59.85,58.116,-53.028,183.61,32.941,50.374
-9.7054,46.535,10.002,68.298,21.919,86.201,-9.6371,97.143,-98.472,145.13,59.652,58.416,-53.343,183.42,32.814,50.451
-9.7054,46.535,10.002,68.298,21.919,86.201,-9.6371,97.143,-98.472,145.13,59.652,58.416,-53.343,183.42,32.814,50.451
-9.7054,46.535,10.002,68.298,21.919,86.201,-9.6371,97.143,-98.472,145.13,59.652,58.416,-53.343,183.42,32.814,50.451
-9.6417,47.126,9.7218,68.976,21.799,86.579,-9.3528,97.731,-99.037,144.58,59.249,58.997,-53.976,183.04,32.556,50.592
-9.6417,47.126,9.7218,68.976,21.799,86.579,-9.3528,97.731,-99.037,144.58,59.249,58.997,-53.976,183.04,32.556,50.592
-9.6417,47.126,9.7218,68.976,21.799,86.579,-9.3528,97.731,-99.037,144.58,59.249,58.997,-53.976,183.04,32.556,50.592
-9.6088,47.412,9.5823,69.306,21.736,86.76,-9.208,98.013,-99.319,144.3,59.046,59.278,-54.294,182.85,32.425,50.657
-9.5751,47.691,9.4434,69.629,21.671,86.936,-9.0614,98.286,-99.6,144.01,58.841,59.554,-54.614,182.64,32.293,50.719
-9.5751,47.691,9.4434,69.629,21.671,86.936,-9.0614,98.286,-99.6,144.01,58.841,59.554,-54.614,182.64,32.293,50.719
-9.5407,47.964,9.305,69.945,21.604,87.108,-8.9131,98.551,-99.882,143.72,58.634,59.824,-54.935,182.44,32.159,50.776
-9.5407,47.964,9.305,69.945,21.604,87.108,-8.9131,98.551,-99.882,143.72,58.634,59.824,-54.935,182.44,32.159,50.776
-9.5056,48.23,9.1672,70.255,21.535,87.274,-8.763,98.807,-100.16,143.43,58.425,60.087,-55.257,182.23,32.024,50.83
-9.5056,48.23,9.1672,70.255,21.535,87.274,-8.763,98.807,-100.16,143.43,58.425,60.087,-55.257,182.23,32.024,50.83
-9.4698,48.49,9.0299,70.559,21.465,87.436,-8.6112,99.055,-100.44,143.13,58.215,60.345,-55.581,182.01,31.888,50.879
-9.4698,48.49,9.0299,70.559,21.465,87.436,-8.6112,99.055,-100.44,143.13,58.215,60.345,-55.581,182.01,31.888,50.879
-9.4333,48.744,8.8931,70.856,21.392,87.593,-8.4576,99.295,-100.72,142.83,58.003,60.597,-55.906,181.79,31.75,50.925
-9.4333,48.744,8.8931,70.856,21.392,87.593,-8.4576,99.295,-100.72,142.83,58.003,60.597,-55.906,181.79,31.75,50.925
-9.4333,48.744,8.8931,70.856,21.392,87.593,-8.4576,99.295,-100.72,142.83,58.003,60.597,-55.906,181.79,31.75,50.925
-9.3961,48.991,8.7569,71.147,21.318,87.745,-8.3024,99.527,-101,142.53,57.789,60.842,-56.232,181.57,31.611,50.967
-9.3961,48.991,8.7569,71.147,21.318,87.745,-8.3024,99.527,-101,142.53,57.789,60.842,-56.232,181.57,31.611,50.967
-9.3581,49.231,8.6212,71.431,21.241,87.892,-8.1455,99.75,-101.28,142.22,57.574,61.082,-56.559,181.34,31.47,51.006
-9.3195,49.466,8.4861,71.709,21.163,88.034,-7.9869,99.965,-101.56,141.91,57.357,61.316,-56.888,181.1,31.329,51.04
-9.3195,49.466,8.4861,71.709,21.163,88.034,-7.9869,99.965,-101.56,141.91,57.357,61.316,-56.888,181.1,31.329,51.04
-9.3195,49.466,8.4861,71.709,21.163,88.034,-7.9869,99.965,-101.56,141.91,57.357,61.316,-56.888,181.1,31.329,51.04
-9.2802,49.693,8.3515,71.98,21.083,88.171,-7.8267,100.17,-101.84,141.6,57.139,61.544,-57.218,180.87,31.186,51.071
-9.2802,49.693,8.3515,71.98,21.083,88.171,-7.8267,100.17,-101.84,141.6,57.139,61.544,-57.218,180.87,31.186,51.071
-9.1995,50.13,8.084,72.504,20.917,88.432,-7.5013,100.56,-102.4,140.96,56.698,61.982,-57.882,180.38,30.896,51.121
-9.1995,50.13,8.084,72.504,20.917,88.432,-7.5013,100.56,-102.4,140.96,56.698,61.982,-57.882,180.38,30.896,51.121
-9.1995,50.13,8.084,72.504,20.917,88.432,-7.5013,100.56,-102.4,140.96,56.698,61.982,-57.882,180.38,30.896,51.121
-9.1581,50.338,7.9511,72.756,20.832,88.555,-7.3362,100.74,-102.68,140.64,56.475,62.192,-58.216,180.13,30.749,51.141
-9.1581,50.338,7.9511,72.756,20.832,88.555,-7.3362,100.74,-102.68,140.64,56.475,62.192,-58.216,180.13,30.749,51.141
-9.116,50.54,7.8188,73.002,20.745,88.673,-7.1695,100.92,-102.95,140.31,56.251,62.396,-58.551,179.87,30.601,51.157
-9.116,50.54,7.8188,73.002,20.745,88.673,-7.1695,100.92,-102.95,140.31,56.251,62.396,-58.551,179.87,30.601,51.157
-9.116,50.54,7.8188,73.002,20.745,88.673,-7.1695,100.92,-102.95,140.31,56.251,62.396,-58.551,179.87,30.601,51.157
-9.0733,50.736,7.687,73.241,20.656,88.786,-7.0012,101.08,-103.23,139.98,56.025,62.594,-58.888,179.61,30.452,51.169
-9.0733,50.736,7.687,73.241,20.656,88.786,-7.0012,101.08,-103.23,139.98,56.025,62.594,-58.888,179.61,30.452,51.169
-9.0299,50.926,7.5558,73.474,20.565,88.895,-6.8313,101.24,-103.51,139.65,55.797,62.786,-59.225,179.35,30.301,51.177
-9.0299,50.926,7.5558,73.474,20.565,88.895,-6.8313,101.24,-103.51,139.65,55.797,62.786,-59.225,179.35,30.301,51.177
-8.9858,51.109,7.4252,73.701,20.472,88.998,-6.6599,101.39,-103.78,139.31,55.569,62.973,-59.565,179.08,30.149,51.182
-8.9858,51.109,7.4252,73.701,20.472,88.998,-6.6599,101.39,-103.78,139.31,55.569,62.973,-59.565,179.08,30.149,51.182
-8.8956,51.457,7.1657,74.136,20.282,89.191,-6.3125,101.66,-104.34,138.63,55.107,63.328,-60.247,178.53,29.842,51.18
-8.8956,51.457,7.1657,74.136,20.282,89.191,-6.3125,101.66,-104.34,138.63,55.107,63.328,-60.247,178.53,29.842,51.18
-8.8956,51.457,7.1657,74.136,20.282,89.191,-6.3125,101.66,-104.34,138.63,55.107,63.328,-60.247,178.53,29.842,51.18
-8.8495,51.621,7.0368,74.343,20.184,89.281,-6.1365,101.79,-104.61,138.29,54.874,63.496,-60.59,178.25,29.687,51.174
-8.8495,51.621,7.0368,74.343,20.184,89.281,-6.1365,101.79,-104.61,138.29,54.874,63.496,-60.59,178.25,29.687,51.174
-8.8028,51.779,6.9085,74.545,20.084,89.366,-5.9591,101.9,-104.89,137.94,54.639,63.659,-60.934,177.96,29.531,51.163
-8.8028,51.779,6.9085,74.545,20.084,89.366,-5.9591,101.9,-104.89,137.94,54.639,63.659,-60.934,177.96,29.531,51.163
-8.7554,51.931,6.7808,74.74,19.983,89.445,-5.7802,102.01,-105.16,137.59,54.403,63.816,-61.28,177.67,29.373,51.15
-8.7554,51.931,6.7808,74.74,19.983,89.445,-5.7802,102.01,-105.16,137.59,54.403,63.816,-61.28,177.67,29.373,51.15
-8.7074,52.077,6.6537,74.929,19.88,89.521,-5.5998,102.11,-105.43,137.23,54.166,63.967,-61.626,177.38,29.215,51.132
-8.7074,52.077,6.6537,74.929,19.88,89.521,-5.5998,102.11,-105.43,137.23,54.166,63.967,-61.626,177.38,29.215,51.132
-8.7074,52.077,6.6537,74.929,19.88,89.521,-5.5998,102.11,-105.43,137.23,54.166,63.967,-61.626,177.38,29.215,51.132
-8.6587,52.217,6.5271,75.111,19.776,89.591,-5.4181,102.21,-105.71,136.87,53.927,64.112,-61.974,177.08,29.055,51.111
-8.6587,52.217,6.5271,75.111,19.776,89.591,-5.4181,102.21,-105.71,136.87,53.927,64.112,-61.974,177.08,29.055,51.111
-8.6093,52.35,6.4012,75.288,19.669,89.657,-5.2349,102.29,-105.98,136.51,53.688,64.252,-62.324,176.78,28.894,51.087
-8.6093,52.35,6.4012,75.288,19.669,89.657,-5.2349,102.29,-105.98,136.51,53.688,64.252,-62.324,176.78,28.894,51.087
-8.6093,52.35,6.4012,75.288,19.669,89.657,-5.2349,102.29,-105.98,136.51,53.688,64.252,-62.324,176.78,28.894,51.087
-8.5594,52.478,6.2759,75.458,19.562,89.718,-5.0503,102.37,-106.26,136.15,53.446,64.386,-62.675,176.47,28.732,51.058
-8.5088,52.599,6.1511,75.622,19.452,89.774,-4.8643,102.44,-106.53,135.78,53.204,64.513,-63.026,176.16,28.569,51.027
-8.5088,52.599,6.1511,75.622,19.452,89.774,-4.8643,102.44,-106.53,135.78,53.204,64.513,-63.026,176.16,28.569,51.027
-8.4575,52.714,6.027,75.78,19.341,89.826,-4.677,102.5,-106.8,135.41,52.96,64.635,-63.38,175.84,28.405,50.991
-8.4575,52.714,6.027,75.78,19.341,89.826,-4.677,102.5,-106.8,135.41,52.96,64.635,-63.38,175.84,28.405,50.991
-8.4575,52.714,6.027,75.78,19.341,89.826,-4.677,102.5,-106.8,135.41,52.96,64.635,-63.38,175.84,28.405,50.991
-8.3531,52.926,5.7805,76.076,19.114,89.915,-4.2984,102.6,-107.34,134.66,52.469,64.862,-64.09,175.2,28.074,50.91
-8.3531,52.926,5.7805,76.076,19.114,89.915,-4.2984,102.6,-107.34,134.66,52.469,64.862,-64.09,175.2,28.074,50.91
-8.3531,52.926,5.7805,76.076,19.114,89.915,-4.2984,102.6,-107.34,134.66,52.469,64.862,-64.09,175.2,28.074,50.91
-8.3,53.023,5.6582,76.216,18.998,89.953,-4.1072,102.64,-107.61,134.28,52.222,64.967,-64.447,174.87,27.906,50.863
-8.3,53.023,5.6582,76.216,18.998,89.953,-4.1072,102.64,-107.61,134.28,52.222,64.967,-64.447,174.87,27.906,50.863
-8.2462,53.114,5.5365,76.349,18.881,89.986,-3.9146,102.67,-107.88,133.9,51.973,65.066,-64.805,174.54,27.738,50.814
-8.2462,53.114,5.5365,76.349,18.881,89.986,-3.9146,102.67,-107.88,133.9,51.973,65.066,-64.805,174.54,27.738,50.814
-8.2462,53.114,5.5365,76.349,18.881,89.986,-3.9146,102.67,-107.88,133.9,51.973,65.066,-64.805,174.54,27.738,50.814
-8.1368,53.278,5.2949,76.597,18.641,90.039,-3.5258,102.71,-108.42,133.12,51.472,65.246,-65.525,173.86,27.399,50.704
-8.1368,53.278,5.2949,76.597,18.641,90.039,-3.5258,102.71,-108.42,133.12,51.472,65.246,-65.525,173.86,27.399,50.704
-8.1368,53.278,5.2949,76.597,18.641,90.039,-3.5258,102.71,-108.42,133.12,51.472,65.246,-65.525,173.86,27.399,50.704
-8.0812,53.351,5.175,76.712,18.519,90.058,-3.3295,102.71,-108.69,132.73,51.22,65.328,-65.887,173.52,27.227,50.644
-8.0812,53.351,5.175,76.712,18.519,90.058,-3.3295,102.71,-108.69,132.73,51.22,65.328,-65.887,173.52,27.227,50.644
-8.025,53.419,5.0558,76.821,18.395,90.073,-3.132,102.71,-108.96,132.34,50.967,65.404,-66.25,173.17,27.055,50.58
-8.025,53.419,5.0558,76.821,18.395,90.073,-3.132,102.71,-108.96,132.34,50.967,65.404,-66.25,173.17,27.055,50.58
-8.025,53.419,5.0558,76.821,18.395,90.073,-3.132,102.71,-108.96,132.34,50.967,65.404,-66.25,173.17,27.055,50.58
-7.9107,53.535,4.8192,77.02,18.144,90.089,-2.7336,102.69,-109.5,131.54,50.457,65.539,-66.98,172.46,26.708,50.443
-7.9107,53.535,4.8192,77.02,18.144,90.089,-2.7336,102.69,-109.5,131.54,50.457,65.539,-66.98,172.46,26.708,50.443
-7.8527,53.585,4.7018,77.111,18.016,90.09,-2.5326,102.67,-109.77,131.14,50.2,65.599,-67.347,172.1,26.533,50.369
-7.8527,53.585,4.7018,77.111,18.016,90.09,-2.5326,102.67,-109.77,131.14,50.2,65.599,-67.347,172.1,26.533,50.369
-7.794,53.629,4.5851,77.196,17.887,90.087,-2.3306,102.64,-110.03,130.73,49.943,65.652,-67.715,171.74,26.357,50.291
-7.794,53.629,4.5851,77.196,17.887,90.087,-2.3306,102.64,-110.03,130.73,49.943,65.652,-67.715,171.74,26.357,50.291
-7.7348,53.667,4.469,77.275,17.756,90.079,-2.1274,102.6,-110.3,130.32,49.684,65.7,-68.084,171.37,26.181,50.211
-7.7348,53.667,4.469,77.275,17.756,90.079,-2.1274,102.6,-110.3,130.32,49.684,65.7,-68.084,171.37,26.181,50.211
-7.6749,53.7,4.3535,77.348,17.624,90.066,-1.9232,102.55,-110.57,129.91,49.425,65.742,-68.455,171,26.003,50.126
-7.6749,53.7,4.3535,77.348,17.624,90.066,-1.9232,102.55,-110.57,129.91,49.425,65.742,-68.455,171,26.003,50.126
-7.6145,53.726,4.2386,77.415,17.49,90.05,-1.7179,102.5,-110.83,129.5,49.164,65.779,-68.826,170.63,25.824,50.039
-7.6145,53.726,4.2386,77.415,17.49,90.05,-1.7179,102.5,-110.83,129.5,49.164,65.779,-68.826,170.63,25.824,50.039
-7.5535,53.747,4.1244,77.476,17.355,90.028,-1.5115,102.44,-111.1,129.08,48.903,65.81,-69.199,170.25,25.645,49.948
-7.5535,53.747,4.1244,77.476,17.355,90.028,-1.5115,102.44,-111.1,129.08,48.903,65.81,-69.199,170.25,25.645,49.948
-7.4918,53.763,4.0108,77.532,17.219,90.003,-1.3042,102.37,-111.36,128.66,48.64,65.836,-69.573,169.86,25.465,49.854
-7.4918,53.763,4.0108,77.532,17.219,90.003,-1.3042,102.37,-111.36,128.66,48.64,65.836,-69.573,169.86,25.465,49.854
-7.4296,53.772,3.8979,77.582,17.081,89.973,-1.0958,102.3,-111.63,128.24,48.377,65.856,-69.949,169.48,25.284,49.756
-7.3669,53.777,3.7856,77.625,16.942,89.938,-0.88653,102.22,-111.89,127.81,48.112,65.871,-70.325,169.09,25.102,49.655
-7.3669,53.777,3.7856,77.625,16.942,89.938,-0.88653,102.22,-111.89,127.81,48.112,65.871,-70.325,169.09,25.102,49.655
-7.3669,53.777,3.7856,77.625,16.942,89.938,-0.88653,102.22,-111.89,127.81,48.112,65.871,-70.325,169.09,25.102,49.655
-7.3035,53.775,3.6739,77.664,16.802,89.899,-0.67626,102.13,-112.15,127.38,47.847,65.88,-70.702,168.69,24.919,49.551
-7.3035,53.775,3.6739,77.664,16.802,89.899,-0.67626,102.13,-112.15,127.38,47.847,65.88,-70.702,168.69,24.919,49.551
-7.2396,53.768,3.5629,77.696,16.66,89.856,-0.46507,102.04,-112.42,126.95,47.581,65.884,-71.081,168.3,24.736,49.444
-7.2396,53.768,3.5629,77.696,16.66,89.856,-0.46507,102.04,-112.42,126.95,47.581,65.884,-71.081,168.3,24.736,49.444
-7.1751,53.756,3.4526,77.723,16.517,89.809,-0.25297,101.93,-112.68,126.52,47.314,65.882,-71.461,167.89,24.552,49.333
-7.1751,53.756,3.4526,77.723,16.517,89.809,-0.25297,101.93,-112.68,126.52,47.314,65.882,-71.461,167.89,24.552,49.333
-7.11,53.738,3.3429,77.744,16.373,89.757,-0.039982,101.82,-112.94,126.08,47.046,65.875,-71.842,167.49,24.367,49.219
-7.11,53.738,3.3429,77.744,16.373,89.757,-0.039982,101.82,-112.94,126.08,47.046,65.875,-71.842,167.49,24.367,49.219
-7.0443,53.714,3.2338,77.759,16.228,89.701,0.17387,101.71,-113.2,125.65,46.777,65.862,-72.224,167.08,24.181,49.102
-7.0443,53.714,3.2338,77.759,16.228,89.701,0.17387,101.71,-113.2,125.65,46.777,65.862,-72.224,167.08,24.181,49.102
-7.0443,53.714,3.2338,77.759,16.228,89.701,0.17387,101.71,-113.2,125.65,46.777,65.862,-72.224,167.08,24.181,49.102
-6.9781,53.685,3.1254,77.769,16.081,89.64,0.38856,101.58,-113.46,125.2,46.508,65.844,-72.607,166.67,23.995,48.982
-6.9781,53.685,3.1254,77.769,16.081,89.64,0.38856,101.58,-113.46,125.2,46.508,65.844,-72.607,166.67,23.995,48.982
-6.9781,53.685,3.1254,77.769,16.081,89.64,0.38856,101.58,-113.46,125.2,46.508,65.844,-72.607,166.67,23.995,48.982
-6.8439,53.612,2.9105,77.771,15.785,89.507,0.82038,101.32,-113.98,124.32,45.966,65.793,-73.377,165.83,23.62,48.732
-6.8439,53.612,2.9105,77.771,15.785,89.507,0.82038,101.32,-113.98,124.32,45.966,65.793,-73.377,165.83,23.62,48.732
-6.776,53.567,2.804,77.764,15.634,89.433,1.0375,101.17,-114.24,123.87,45.695,65.759,-73.763,165.41,23.431,48.602
-6.776,53.567,2.804,77.764,15.634,89.433,1.0375,101.17,-114.24,123.87,45.695,65.759,-73.763,165.41,23.431,48.602
-6.7075,53.516,2.6982,77.752,15.483,89.356,1.2553,101.02,-114.5,123.42,45.422,65.72,-74.151,164.98,23.242,48.469
-6.7075,53.516,2.6982,77.752,15.483,89.356,1.2553,101.02,-114.5,123.42,45.422,65.72,-74.151,164.98,23.242,48.469
-6.7075,53.516,2.6982,77.752,15.483,89.356,1.2553,101.02,-114.5,123.42,45.422,65.72,-74.151,164.98,23.242,48.469
-6.6385,53.461,2.5931,77.734,15.331,89.275,1.4739,100.86,-114.75,122.96,45.149,65.675,-74.54,164.56,23.052,48.333
-6.6385,53.461,2.5931,77.734,15.331,89.275,1.4739,100.86,-114.75,122.96,45.149,65.675,-74.54,164.56,23.052,48.333
-6.6385,53.461,2.5931,77.734,15.331,89.275,1.4739,100.86,-114.75,122.96,45.149,65.675,-74.54,164.56,23.052,48.333
-6.4987,53.334,2.3848,77.682,15.022,89.099,1.9131,100.53,-115.27,122.05,44.601,65.571,-75.32,163.69,22.671,48.052
-6.4987,53.334,2.3848,77.682,15.022,89.099,1.9131,100.53,-115.27,122.05,44.601,65.571,-75.32,163.69,22.671,48.052
-6.4987,53.334,2.3848,77.682,15.022,89.099,1.9131,100.53,-115.27,122.05,44.601,65.571,-75.32,163.69,22.671,48.052
-6.428,53.263,2.2816,77.647,14.866,89.005,2.1338,100.35,-115.52,121.59,44.325,65.511,-75.712,163.25,22.479,47.907
-6.428,53.263,2.2816,77.647,14.866,89.005,2.1338,100.35,-115.52,121.59,44.325,65.511,-75.712,163.25,22.479,47.907
-6.3567,53.187,2.1791,77.608,14.71,88.907,2.355,100.17,-115.78,121.12,44.05,65.445,-76.105,162.8,22.287,47.759
-6.2849,53.106,2.0773,77.563,14.552,88.805,2.5769,99.978,-116.03,120.66,43.773,65.375,-76.499,162.36,22.094,47.608
-6.2849,53.106,2.0773,77.563,14.552,88.805,2.5769,99.978,-116.03,120.66,43.773,65.375,-76.499,162.36,22.094,47.608
-6.2126,53.02,1.9761,77.513,14.393,88.698,2.7994,99.782,-116.29,120.19,43.496,65.299,-76.894,161.91,21.901,47.453
-6.2126,53.02,1.9761,77.513,14.393,88.698,2.7994,99.782,-116.29,120.19,43.496,65.299,-76.894,161.91,21.901,47.453
-6.1397,52.928,1.8756,77.457,14.233,88.588,3.0225,99.579,-116.54,119.72,43.219,65.219,-77.29,161.45,21.707,47.296
-6.1397,52.928,1.8756,77.457,14.233,88.588,3.0225,99.579,-116.54,119.72,43.219,65.219,-77.29,161.45,21.707,47.296
-6.1397,52.928,1.8756,77.457,14.233,88.588,3.0225,99.579,-116.54,119.72,43.219,65.219,-77.29,161.45,21.707,47.296
-6.0662,52.832,1.7757,77.397,14.072,88.474,3.2461,99.369,-116.79,119.25,42.94,65.133,-77.687,161,21.512,47.136
-6.0662,52.832,1.7757,77.397,14.072,88.474,3.2461,99.369,-116.79,119.25,42.94,65.133,-77.687,161,21.512,47.136
-5.9177,52.625,1.578,77.26,13.747,88.233,3.6949,98.932,-117.29,118.3,42.383,64.947,-78.484,160.08,21.121,46.807
-5.9177,52.625,1.578,77.26,13.747,88.233,3.6949,98.932,-117.29,118.3,42.383,64.947,-78.484,160.08,21.121,46.807
-5.9177,52.625,1.578,77.26,13.747,88.233,3.6949,98.932,-117.29,118.3,42.383,64.947,-78.484,160.08,21.121,46.807
-5.9177,52.625,1.578,77.26,13.747,88.233,3.6949,98.932,-117.29,118.3,42.383,64.947,-78.484,160.08,21.121,46.807
-5.8426,52.514,1.4802,77.183,13.583,88.107,3.9201,98.704,-117.54,117.82,42.103,64.846,-78.884,159.61,20.925,46.638
-5.8426,52.514,1.4802,77.183,13.583,88.107,3.9201,98.704,-117.54,117.82,42.103,64.846,-78.884,159.61,20.925,46.638
-5.8426,52.514,1.4802,77.183,13.583,88.107,3.9201,98.704,-117.54,117.82,42.103,64.846,-78.884,159.61,20.925,46.638
-5.6909,52.277,1.2865,77.016,13.253,87.843,4.3717,98.23,-118.04,116.85,41.543,64.63,-79.686,158.67,20.532,46.292
-5.6909,52.277,1.2865,77.016,13.253,87.843,4.3717,98.23,-118.04,116.85,41.543,64.63,-79.686,158.67,20.532,46.292
-5.6142,52.151,1.1907,76.924,13.086,87.705,4.5982,97.983,-118.29,116.37,41.262,64.515,-80.089,158.2,20.334,46.115
-5.6142,52.151,1.1907,76.924,13.086,87.705,4.5982,97.983,-118.29,116.37,41.262,64.515,-80.089,158.2,20.334,46.115
-5.537,52.021,1.0956,76.828,12.919,87.563,4.825,97.731,-118.54,115.88,40.98,64.394,-80.493,157.72,20.136,45.935
-5.537,52.021,1.0956,76.828,12.919,87.563,4.825,97.731,-118.54,115.88,40.98,64.394,-80.493,157.72,20.136,45.935
-5.537,52.021,1.0956,76.828,12.919,87.563,4.825,97.731,-118.54,115.88,40.98,64.394,-80.493,157.72,20.136,45.935
-5.4593,51.886,1.0011,76.726,12.75,87.417,5.0522,97.473,-118.79,115.39,40.699,64.269,-80.898,157.24,19.938,45.752
-5.4593,51.886,1.0011,76.726,12.75,87.417,5.0522,97.473,-118.79,115.39,40.699,64.269,-80.898,157.24,19.938,45.752
-5.4593,51.886,1.0011,76.726,12.75,87.417,5.0522,97.473,-118.79,115.39,40.699,64.269,-80.898,157.24,19.938,45.752
-5.3022,51.603,0.81416,76.509,12.411,87.115,5.5077,96.939,-119.28,114.41,40.134,64.004,-81.709,156.27,19.54,45.378
-5.3022,51.603,0.81416,76.509,12.411,87.115,5.5077,96.939,-119.28,114.41,40.134,64.004,-81.709,156.27,19.54,45.378
-5.3022,51.603,0.81416,76.509,12.411,87.115,5.5077,96.939,-119.28,114.41,40.134,64.004,-81.709,156.27,19.54,45.378
-5.2229,51.454,0.72171,76.393,12.24,86.958,5.7359,96.664,-119.52,113.91,39.851,63.865,-82.117,155.78,19.341,45.186
-5.2229,51.454,0.72171,76.393,12.24,86.958,5.7359,96.664,-119.52,113.91,39.851,63.865,-82.117,155.78,19.341,45.186
-5.2229,51.454,0.72171,76.393,12.24,86.958,5.7359,96.664,-119.52,113.91,39.851,63.865,-82.117,155.78,19.341,45.186
-5.2229,51.454,0.72171,76.393,12.24,86.958,5.7359,96.664,-119.52,113.91,39.851,63.865,-82.117,155.78,19.341,45.186
-5.0626,51.143,0.53883,76.146,11.897,86.632,6.1932,96.095,-120.01,112.91,39.285,63.571,-82.934,154.79,18.94,44.796
-5.0626,51.143,0.53883,76.146,11.897,86.632,6.1932,96.095,-120.01,112.91,39.285,63.571,-82.934,154.79,18.94,44.796
-5.0626,51.143,0.53883,76.146,11.897,86.632,6.1932,96.095,-120.01,112.91,39.285,63.571,-82.934,154.79,18.94,44.796
-4.9817,50.98,0.44841,76.015,11.724,86.464,6.4222,95.803,-120.25,112.41,39.002,63.417,-83.344,154.29,18.74,44.597
-4.9817,50.98,0.44841,76.015,11.724,86.464,6.4222,95.803,-120.25,112.41,39.002,63.417,-83.344,154.29,18.74,44.597
-4.8183,50.643,0.26961,75.74,11.375,86.117,6.8808,95.201,-120.73,111.4,38.434,63.096,-84.166,153.29,18.338,44.191
-4.8183,50.643,0.26961,75.74,11.375,86.117,6.8808,95.201,-120.73,111.4,38.434,63.096,-84.166,153.29,18.338,44.191
-4.7359,50.467,0.18122,75.596,11.2,85.938,7.1103,94.892,-120.98,110.89,38.15,62.929,-84.578,152.78,18.136,43.984
-4.7359,50.467,0.18122,75.596,11.2,85.938,7.1103,94.892,-120.98,110.89,38.15,62.929,-84.578,152.78,18.136,43.984
-4.6529,50.287,0.093519,75.446,11.025,85.755,7.3401,94.578,-121.21,110.38,37.865,62.757,-84.991,152.27,17.934,43.774
-4.6529,50.287,0.093519,75.446,11.025,85.755,7.3401,94.578,-121.21,110.38,37.865,62.757,-84.991,152.27,17.934,43.774
-4.6529,50.287,0.093519,75.446,11.025,85.755,7.3401,94.578,-121.21,110.38,37.865,62.757,-84.991,152.27,17.934,43.774
-4.5694,50.103,0.0064958,75.293,10.848,85.569,7.5699,94.258,-121.45,109.87,37.581,62.58,-85.405,151.76,17.732,43.562
-4.5694,50.103,0.0064958,75.293,10.848,85.569,7.5699,94.258,-121.45,109.87,37.581,62.58,-85.405,151.76,17.732,43.562
-4.4008,49.722,-0.16551,74.972,10.493,85.185,8.0299,93.602,-121.93,108.84,37.011,62.213,-86.235,150.73,17.327,43.131
-4.4008,49.722,-0.16551,74.972,10.493,85.185,8.0299,93.602,-121.93,108.84,37.011,62.213,-86.235,150.73,17.327,43.131
-4.4008,49.722,-0.16551,74.972,10.493,85.185,8.0299,93.602,-121.93,108.84,37.011,62.213,-86.235,150.73,17.327,43.131
-4.3157,49.526,-0.25049,74.804,10.315,84.989,8.26,93.267,-122.16,108.33,36.726,62.023,-86.651,150.21,17.125,42.911
-4.3157,49.526,-0.25049,74.804,10.315,84.989,8.26,93.267,-122.16,108.33,36.726,62.023,-86.651,150.21,17.125,42.911
-4.3157,49.526,-0.25049,74.804,10.315,84.989,8.26,93.267,-122.16,108.33,36.726,62.023,-86.651,150.21,17.125,42.911
-4.3157,49.526,-0.25049,74.804,10.315,84.989,8.26,93.267,-122.16,108.33,36.726,62.023,-86.651,150.21,17.125,42.911
-4.1441,49.12,-0.4184,74.456,9.9569,84.585,8.7203,92.58,-122.63,107.29,36.156,61.63,-87.485,149.17,16.718,42.465
-4.1441,49.12,-0.4184,74.456,9.9569,84.585,8.7203,92.58,-122.63,107.29,36.156,61.63,-87.485,149.17,16.718,42.465
-4.0575,48.911,-0.50133,74.276,9.777,84.377,8.9504,92.23,-122.87,106.76,35.871,61.427,-87.903,148.64,16.515,42.239
-4.0575,48.911,-0.50133,74.276,9.777,84.377,8.9504,92.23,-122.87,106.76,35.871,61.427,-87.903,148.64,16.515,42.239
-3.9704,48.698,-0.58358,74.091,9.5966,84.167,9.1806,91.874,-123.1,106.24,35.586,61.219,-88.322,148.11,16.312,42.009
-3.9704,48.698,-0.58358,74.091,9.5966,84.167,9.1806,91.874,-123.1,106.24,35.586,61.219,-88.322,148.11,16.312,42.009
-3.8827,48.481,-0.66514,73.902,9.4157,83.953,9.4106,91.513,-123.33,105.72,35.301,61.008,-88.742,147.58,16.108,41.778
-3.8827,48.481,-0.66514,73.902,9.4157,83.953,9.4106,91.513,-123.33,105.72,35.301,61.008,-88.742,147.58,16.108,41.778
-3.7946,48.261,-0.74603,73.709,9.2343,83.736,9.6406,91.148,-123.56,105.19,35.016,60.792,-89.162,147.05,15.904,41.544
-3.7946,48.261,-0.74603,73.709,9.2343,83.736,9.6406,91.148,-123.56,105.19,35.016,60.792,-89.162,147.05,15.904,41.544
-3.7946,48.261,-0.74603,73.709,9.2343,83.736,9.6406,91.148,-123.56,105.19,35.016,60.792,-89.162,147.05,15.904,41.544
-3.706,48.036,-0.82622,73.511,9.0525,83.515,9.8706,90.778,-123.79,104.66,34.731,60.572,-89.583,146.51,15.7,41.308
-3.706,48.036,-0.82622,73.511,9.0525,83.515,9.8706,90.778,-123.79,104.66,34.731,60.572,-89.583,146.51,15.7,41.308
-3.706,48.036,-0.82622,73.511,9.0525,83.515,9.8706,90.778,-123.79,104.66,34.731,60.572,-89.583,146.51,15.7,41.308
-3.6168,47.807,-0.90574,73.31,8.8703,83.291,10.1,90.403,-124.02,104.13,34.446,60.347,-90.004,145.98,15.496,41.07
-3.5271,47.575,-0.98456,73.104,8.6876,83.064,10.33,90.023,-124.25,103.6,34.162,60.119,-90.426,145.44,15.292,40.829
-3.437,47.339,-1.0627,72.894,8.5045,82.834,10.56,89.639,-124.48,103.07,33.877,59.887,-90.849,144.89,15.088,40.587
-3.437,47.339,-1.0627,72.894,8.5045,82.834,10.56,89.639,-124.48,103.07,33.877,59.887,-90.849,144.89,15.088,40.587
-3.3463,47.099,-1.1402,72.68,8.3211,82.6,10.789,89.25,-124.7,102.53,33.592,59.65,-91.272,144.35,14.884,40.342
-3.3463,47.099,-1.1402,72.68,8.3211,82.6,10.789,89.25,-124.7,102.53,33.592,59.65,-91.272,144.35,14.884,40.342
-3.2551,46.856,-1.2169,72.462,8.1373,82.364,11.018,88.857,-124.93,101.99,33.308,59.409,-91.696,143.8,14.679,40.094
-3.2551,46.856,-1.2169,72.462,8.1373,82.364,11.018,88.857,-124.93,101.99,33.308,59.409,-91.696,143.8,14.679,40.094
-3.2551,46.856,-1.2169,72.462,8.1373,82.364,11.018,88.857,-124.93,101.99,33.308,59.409,-91.696,143.8,14.679,40.094
-3.1634,46.609,-1.293,72.24,7.9532,82.124,11.247,88.459,-125.15,101.46,33.024,59.165,-92.12,143.25,14.475,39.845
-3.1634,46.609,-1.293,72.24,7.9532,82.124,11.247,88.459,-125.15,101.46,33.024,59.165,-92.12,143.25,14.475,39.845
-3.1634,46.609,-1.293,72.24,7.9532,82.124,11.247,88.459,-125.15,101.46,33.024,59.165,-92.12,143.25,14.475,39.845
-3.1634,46.609,-1.293,72.24,7.9532,82.124,11.247,88.459,-125.15,101.46,33.024,59.165,-92.12,143.25,14.475,39.845
-2.9785,46.104,-1.4432,71.784,7.584,81.635,11.704,87.65,-125.6,100.38,32.456,58.663,-92.97,142.15,14.066,39.34
-2.9785,46.104,-1.4432,71.784,7.584,81.635,11.704,87.65,-125.6,100.38,32.456,58.663,-92.97,142.15,14.066,39.34
-2.9785,46.104,-1.4432,71.784,7.584,81.635,11.704,87.65,-125.6,100.38,32.456,58.663,-92.97,142.15,14.066,39.34
-2.7915,45.585,-1.5905,71.313,7.2138,81.133,12.16,86.824,-126.04,99.292,31.888,58.147,-93.822,141.04,13.657,38.827
-2.7915,45.585,-1.5905,71.313,7.2138,81.133,12.16,86.824,-126.04,99.292,31.888,58.147,-93.822,141.04,13.657,38.827
-2.6973,45.32,-1.6632,71.072,7.0283,80.878,12.388,86.405,-126.26,98.747,31.605,57.883,-94.249,140.48,13.453,38.567
-2.6973,45.32,-1.6632,71.072,7.0283,80.878,12.388,86.405,-126.26,98.747,31.605,57.883,-94.249,140.48,13.453,38.567
-2.6026,45.052,-1.7352,70.827,6.8425,80.62,12.615,85.981,-126.48,98.201,31.322,57.615,-94.676,139.92,13.249,38.305
-2.6026,45.052,-1.7352,70.827,6.8425,80.62,12.615,85.981,-126.48,98.201,31.322,57.615,-94.676,139.92,13.249,38.305
-2.6026,45.052,-1.7352,70.827,6.8425,80.62,12.615,85.981,-126.48,98.201,31.322,57.615,-94.676,139.92,13.249,38.305
-2.5073,44.781,-1.8065,70.578,6.6566,80.359,12.842,85.554,-126.7,97.654,31.04,57.343,-95.103,139.36,13.045,38.042
-2.5073,44.781,-1.8065,70.578,6.6566,80.359,12.842,85.554,-126.7,97.654,31.04,57.343,-95.103,139.36,13.045,38.042
-2.5073,44.781,-1.8065,70.578,6.6566,80.359,12.842,85.554,-126.7,97.654,31.04,57.343,-95.103,139.36,13.045,38.042
-2.3154,44.228,-1.947,70.07,6.2843,79.828,13.295,84.687,-127.13,96.555,30.476,56.789,-95.96,138.23,12.636,37.509
-2.3154,44.228,-1.947,70.07,6.2843,79.828,13.295,84.687,-127.13,96.555,30.476,56.789,-95.96,138.23,12.636,37.509
-2.3154,44.228,-1.947,70.07,6.2843,79.828,13.295,84.687,-127.13,96.555,30.476,56.789,-95.96,138.23,12.636,37.509
-2.2186,43.947,-2.0162,69.811,6.0979,79.558,13.52,84.248,-127.34,96.004,30.194,56.506,-96.388,137.66,12.433,37.239
-2.2186,43.947,-2.0162,69.811,6.0979,79.558,13.52,84.248,-127.34,96.004,30.194,56.506,-96.388,137.66,12.433,37.239
-2.1214,43.663,-2.0848,69.548,5.9114,79.286,13.746,83.805,-127.56,95.452,29.913,56.22,-96.818,137.09,12.229,36.968
-2.0236,43.375,-2.1527,69.281,5.7248,79.01,13.97,83.358,-127.77,94.899,29.632,55.93,-97.247,136.52,12.025,36.695
-2.0236,43.375,-2.1527,69.281,5.7248,79.01,13.97,83.358,-127.77,94.899,29.632,55.93,-97.247,136.52,12.025,36.695
-1.9254,43.085,-2.2199,69.011,5.5381,78.732,14.195,82.907,-127.98,94.344,29.352,55.636,-97.677,135.95,11.822,36.42
-1.9254,43.085,-2.2199,69.011,5.5381,78.732,14.195,82.907,-127.98,94.344,29.352,55.636,-97.677,135.95,11.822,36.42
-1.8266,42.791,-2.2864,68.737,5.3513,78.451,14.419,82.453,-128.19,93.788,29.072,55.339,-98.107,135.37,11.618,36.143
-1.8266,42.791,-2.2864,68.737,5.3513,78.451,14.419,82.453,-128.19,93.788,29.072,55.339,-98.107,135.37,11.618,36.143
-1.7274,42.495,-2.3522,68.461,5.1646,78.167,14.642,81.995,-128.4,93.232,28.793,55.039,-98.537,134.8,11.415,35.864
-1.7274,42.495,-2.3522,68.461,5.1646,78.167,14.642,81.995,-128.4,93.232,28.793,55.039,-98.537,134.8,11.415,35.864
-1.7274,42.495,-2.3522,68.461,5.1646,78.167,14.642,81.995,-128.4,93.232,28.793,55.039,-98.537,134.8,11.415,35.864
-1.7274,42.495,-2.3522,68.461,5.1646,78.167,14.642,81.995,-128.4,93.232,28.793,55.039,-98.537,134.8,11.415,35.864
-1.5274,41.893,-2.4818,67.897,4.791,77.592,15.087,81.069,-128.81,92.115,28.235,54.428,-99.399,133.64,11.009,35.302
-1.5274,41.893,-2.4818,67.897,4.791,77.592,15.087,81.069,-128.81,92.115,28.235,54.428,-99.399,133.64,11.009,35.302
-1.4266,41.587,-2.5455,67.61,4.6042,77.3,15.309,80.6,-129.02,91.555,27.957,54.117,-99.83,133.06,10.807,35.018
-1.4266,41.587,-2.5455,67.61,4.6042,77.3,15.309,80.6,-129.02,91.555,27.957,54.117,-99.83,133.06,10.807,35.018
-1.3253,41.279,-2.6086,67.32,4.4174,77.006,15.53,80.129,-129.22,90.994,27.68,53.803,-100.26,132.48,10.604,34.733
-1.3253,41.279,-2.6086,67.32,4.4174,77.006,15.53,80.129,-129.22,90.994,27.68,53.803,-100.26,132.48,10.604,34.733
-1.2236,40.968,-2.671,67.027,4.2307,76.709,15.75,79.654,-129.43,90.432,27.403,53.486,-100.69,131.89,10.402,34.446
-1.2236,40.968,-2.671,67.027,4.2307,76.709,15.75,79.654,-129.43,90.432,27.403,53.486,-100.69,131.89,10.402,34.446
-1.1213,40.654,-2.7328,66.731,4.0441,76.41,15.97,79.175,-129.63,89.869,27.127,53.166,-101.12,131.31,10.2,34.157
-1.1213,40.654,-2.7328,66.731,4.0441,76.41,15.97,79.175,-129.63,89.869,27.127,53.166,-101.12,131.31,10.2,34.157
-1.1213,40.654,-2.7328,66.731,4.0441,76.41,15.97,79.175,-129.63,89.869,27.127,53.166,-101.12,131.31,10.2,34.157
-1.0185,40.338,-2.7938,66.431,3.8576,76.108,16.19,78.694,-129.83,89.306,26.851,52.842,-101.56,130.72,9.9989,33.867
-1.0185,40.338,-2.7938,66.431,3.8576,76.108,16.19,78.694,-129.83,89.306,26.851,52.842,-101.56,130.72,9.9989,33.867
