23571,54.3,19.341,0,0.042656,0,23680,70.279,0,0,0,0,0.015428,0
23571,54.3,19.341,0,0.042656,0,23680,70.279,0,0,0,0,0.015428,0
23571,54.3,19.341,0,0.042656,0,23680,70.279,0,0,0,0,0.015428,0
23571,54.3,19.341,0,0.042656,0,23680,70.279,0,0,0,0,0.015428,0
23571,54.3,19.341,0,0.042656,0,23680,70.279,0,0,0,0,0.015428,0
23572,54.3,19.343,0,0.042693,0,23680,70.279,0,0,0,0,0.015536,0
23573,54.3,19.347,0,0.042767,0,23680,70.279,0,0,0,0,0.015755,0
23573,54.3,19.347,0,0.042767,0,23680,70.279,0,0,0,0,0.015755,0
23573,54.3,19.347,0,0.042767,0,23680,70.279,0,0,0,0,0.015755,0
23573,54.3,19.347,0,0.042767,0,23680,70.279,0,0,0,0,0.015755,0
23573,54.3,19.347,0,0.042767,0,23680,70.279,0,0,0,0,0.015755,0
23573,54.3,19.347,0,0.042767,0,23680,70.279,0,0,0,0,0.015755,0
23573,54.3,19.347,0,0.042767,0,23680,70.279,0,0,0,0,0.015755,0
23573,54.3,19.347,0,0.042767,0,23680,70.279,0,0,0,0,0.015755,0
23576,54.3,19.352,0,0.042883,0,23680,70.279,0,0,0,0,0.016097,0
23576,54.3,19.352,0,0.042883,0,23680,70.279,0,0,0,0,0.016097,0
23576,54.3,19.353,0,0.042903,0,23680,70.279,0,0,0,0,0.016155,0
23576,54.3,19.353,0,0.042903,0,23680,70.279,0,0,0,0,0.016155,0
23576,54.3,19.353,0,0.042922,0,23680,70.279,0,0,0,0,0.016214,0
23576,54.3,19.353,0,0.042922,0,23680,70.279,0,0,0,0,0.016214,0
23577,54.3,19.354,0,0.042941,0,23680,70.279,0,0,0,0,0.016273,0
23577,54.3,19.355,0,0.042961,0,23680,70.279,0,0,0,0,0.016333,0
23577,54.3,19.355,0,0.042961,0,23680,70.279,0,0,0,0,0.016333,0
23577,54.3,19.355,0,0.042961,0,23680,70.279,0,0,0,0,0.016333,0
23577,54.3,19.355,0,0.042961,0,23680,70.279,0,0,0,0,0.016333,0
23577,54.3,19.355,0,0.042961,0,23680,70.279,0,0,0,0,0.016333,0
23577,54.3,19.355,0,0.042961,0,23680,70.279,0,0,0,0,0.016333,0
23577,54.3,19.355,0,0.042961,0,23680,70.279,0,0,0,0,0.016333,0
23577,54.3,19.355,0,0.042961,0,23680,70.279,0,0,0,0,0.016333,0
23577,54.3,19.355,0,0.042961,0,23680,70.279,0,0,0,0,0.016333,0
23577,54.3,19.355,0,0.042961,0,23680,70.279,0,0,0,0,0.016333,0
23577,54.3,19.355,0,0.042961,0,23680,70.279,0,0,0,0,0.016333,0
23577,54.3,19.355,0,0.042961,0,23680,70.279,0,0,0,0,0.016333,0
23577,54.3,19.355,0,0.042961,0,23680,70.279,0,0,0,0,0.016333,0
23578,54.3,19.358,0,0.043021,0,23680,70.279,0,0,0,0,0.016514,0
23578,54.3,19.358,0,0.043021,0,23680,70.279,0,0,0,0,0.016514,0
23578,54.3,19.358,0,0.043021,0,23680,70.279,0,0,0,0,0.016514,0
23578,54.3,19.358,0,0.043021,0,23680,70.279,0,0,0,0,0.016514,0
23581,54.3,19.363,0,0.043142,0,23680,70.279,0,0,0,0,0.01689,0
23581,54.3,19.363,0,0.043142,0,23680,70.279,0,0,0,0,0.01689,0
23581,54.3,19.363,0,0.043142,0,23680,70.279,0,0,0,0,0.01689,0
23581,54.3,19.363,0,0.043142,0,23680,70.279,0,0,0,0,0.01689,0
23581,54.3,19.363,0,0.043142,0,23680,70.279,0,0,0,0,0.01689,0
23581,54.3,19.363,0,0.043142,0,23680,70.279,0,0,0,0,0.01689,0
23581,54.3,19.363,0,0.043142,0,23680,70.279,0,0,0,0,0.01689,0
23581,54.3,19.363,0,0.043142,0,23680,70.279,0,0,0,0,0.01689,0
23581,54.3,19.363,0,0.043142,0,23680,70.279,0,0,0,0,0.01689,0
23581,54.3,19.363,0,0.043142,0,23680,70.279,0,0,0,0,0.01689,0
23581,54.3,19.363,0,0.043142,0,23680,70.279,0,0,0,0,0.01689,0
23581,54.3,19.363,0,0.043142,0,23680,70.279,0,0,0,0,0.01689,0
23581,54.3,19.363,0,0.043142,0,23680,70.279,0,0,0,0,0.01689,0
23581,54.3,19.363,0,0.043142,0,23680,70.279,0,0,0,0,0.01689,0
23581,54.3,19.363,0,0.043142,0,23680,70.279,0,0,0,0,0.01689,0
23581,54.3,19.363,0,0.043142,0,23680,70.279,0,0,0,0,0.01689,0
23581,54.3,19.363,0,0.043142,0,23680,70.279,0,0,0,0,0.01689,0
23583,54.3,19.367,0,0.043244,0,23680,70.279,0,0,0,0,0.017216,0
23583,54.3,19.369,0,0.043286,0,23680,70.279,0,0,0,0,0.01735,0
23583,54.3,19.369,0,0.043286,0,23680,70.279,0,0,0,0,0.01735,0
23584,54.3,19.37,0,0.043306,0,23680,70.279,0,0,0,0,0.017418,0
23584,54.3,19.37,0,0.043306,0,23680,70.279,0,0,0,0,0.017418,0
23584,54.3,19.37,0,0.043306,0,23680,70.279,0,0,0,0,0.017418,0
23584,54.3,19.37,0,0.043306,0,23680,70.279,0,0,0,0,0.017418,0
23584,54.3,19.37,0,0.043306,0,23680,70.279,0,0,0,0,0.017418,0
23584,54.3,19.37,0,0.043306,0,23680,70.279,0,0,0,0,0.017418,0
23584,54.3,19.37,0,0.043306,0,23680,70.279,0,0,0,0,0.017418,0
23584,54.3,19.37,0,0.043306,0,23680,70.279,0,0,0,0,0.017418,0
23584,54.3,19.37,0,0.043306,0,23680,70.279,0,0,0,0,0.017418,0
23584,54.3,19.37,0,0.043306,0,23680,70.279,0,0,0,0,0.017418,0
23584,54.3,19.37,0,0.043306,0,23680,70.279,0,0,0,0,0.017418,0
23584,54.3,19.37,0,0.043306,0,23680,70.279,0,0,0,0,0.017418,0
23584,54.3,19.37,0,0.043306,0,23680,70.279,0,0,0,0,0.017418,0
23584,54.3,19.37,0,0.043306,0,23680,70.279,0,0,0,0,0.017418,0
23584,54.3,19.37,0,0.043306,0,23680,70.279,0,0,0,0,0.017418,0
23584,54.3,19.37,0,0.043306,0,23680,70.279,0,0,0,0,0.017418,0
23584,54.3,19.37,0,0.043306,0,23680,70.279,0,0,0,0,0.017418,0
23584,54.3,19.37,0,0.043306,0,23680,70.279,0,0,0,0,0.017418,0
23586,54.3,19.374,0,0.043409,0,23680,70.279,0,0,0,0,0.017764,0
23586,54.3,19.375,0,0.04343,0,23680,70.279,0,0,0,0,0.017835,0
23586,54.3,19.375,0,0.04343,0,23680,70.279,0,0,0,0,0.017835,0
23586,54.3,19.375,0,0.04343,0,23680,70.279,0,0,0,0,0.017835,0
23588,54.3,19.38,0,0.043554,0,23680,70.279,0,0,0,0,0.018273,0
23588,54.3,19.38,0,0.043554,0,23680,70.279,0,0,0,0,0.018273,0
23588,54.3,19.38,0,0.043554,0,23680,70.279,0,0,0,0,0.018273,0
23588,54.3,19.38,0,0.043554,0,23680,70.279,0,0,0,0,0.018273,0
23588,54.3,19.38,0,0.043554,0,23680,70.279,0,0,0,0,0.018273,0
23588,54.3,19.38,0,0.043554,0,23680,70.279,0,0,0,0,0.018273,0
23589,54.3,19.382,0,0.043596,0,23680,70.279,0,0,0,0,0.018424,0
23589,54.3,19.382,0,0.043596,0,23680,70.279,0,0,0,0,0.018424,0
23590,54.3,19.383,0,0.043616,0,23680,70.279,0,0,0,0,0.0185,0
23590,54.3,19.383,0,0.043616,0,23680,70.279,0,0,0,0,0.0185,0
23590,54.3,19.383,0,0.043616,0,23680,70.279,0,0,0,0,0.0185,0
23590,54.3,19.383,0,0.043616,0,23680,70.279,0,0,0,0,0.0185,0
23590,54.3,19.383,0,0.043616,0,23680,70.279,0,0,0,0,0.0185,0
23590,54.3,19.383,0,0.043616,0,23680,70.279,0,0,0,0,0.0185,0
23591,54.3,19.386,0,0.0437,0,23680,70.279,0,0,0,0,0.018812,0
23591,54.3,19.386,0,0.0437,0,23680,70.279,0,0,0,0,0.018812,0
23591,54.3,19.386,0,0.0437,0,23680,70.279,0,0,0,0,0.018812,0
23591,54.3,19.386,0,0.0437,0,23680,70.279,0,0,0,0,0.018812,0
23592,54.3,19.387,0,0.043721,0,23680,70.279,0,0,0,0,0.018892,0
23592,54.3,19.388,0,0.043742,0,23680,70.279,0,0,0,0,0.018972,0
23592,54.3,19.388,0,0.043742,0,23680,70.279,0,0,0,0,0.018972,0
23592,54.3,19.388,0,0.043742,0,23680,70.279,0,0,0,0,0.018972,0
23592,54.3,19.388,0,0.043742,0,23680,70.279,0,0,0,0,0.018972,0
23593,54.3,19.391,0,0.043803,0,23680,70.279,0,0,0,0,0.019217,0
23593,54.3,19.391,0,0.043803,0,23680,70.279,0,0,0,0,0.019217,0
23593,54.3,19.391,0,0.043803,0,23680,70.279,0,0,0,0,0.019217,0
23593,54.3,19.391,0,0.043803,0,23680,70.279,0,0,0,0,0.019217,0
23593,54.3,19.391,0,0.043803,0,23680,70.279,0,0,0,0,0.019217,0
23593,54.3,19.391,0,0.043803,0,23680,70.279,0,0,0,0,0.019217,0
23593,54.3,19.391,0,0.043803,0,23680,70.279,0,0,0,0,0.019217,0
23593,54.3,19.391,0,0.043803,0,23680,70.279,0,0,0,0,0.019217,0
23593,54.3,19.392,0,0.043824,0,23680,70.279,0,0,0,0,0.0193,0
23593,54.3,19.392,0,0.043824,0,23680,70.279,0,0,0,0,0.0193,0
23594,54.3,19.392,0,0.043845,0,23680,70.279,0,0,0,0,0.019383,0
23594,54.3,19.392,0,0.043845,0,23680,70.279,0,0,0,0,0.019383,0
23594,54.3,19.392,0,0.043845,0,23680,70.279,0,0,0,0,0.019383,0
23594,54.3,19.392,0,0.043845,0,23680,70.279,0,0,0,0,0.019383,0
23594,54.3,19.392,0,0.043845,0,23680,70.279,0,0,0,0,0.019383,0
23594,54.3,19.393,0,0.043866,0,23680,70.279,0,0,0,0,0.019468,0
23594,54.3,19.393,0,0.043866,0,23680,70.279,0,0,0,0,0.019468,0
23594,54.3,19.393,0,0.043866,0,23680,70.279,0,0,0,0,0.019468,0
23594,54.3,19.393,0,0.043866,0,23680,70.279,0,0,0,0,0.019468,0
23594,54.3,19.393,0,0.043866,0,23680,70.279,0,0,0,0,0.019468,0
23594,54.3,19.393,0,0.043866,0,23680,70.279,0,0,0,0,0.019468,0
23596,54.3,19.398,0,0.043969,0,23680,70.279,0,0,0,0,0.019901,0
23597,54.3,19.4,0,0.04403,0,23680,70.279,0,0,0,0,0.02017,0
23598,54.3,19.401,0,0.044051,0,23680,70.279,0,0,0,0,0.020261,0
23598,54.3,19.402,0,0.04407,0,23680,70.279,0,0,0,0,0.020353,0
23598,54.3,19.402,0,0.04407,0,23680,70.279,0,0,0,0,0.020353,0
23598,54.3,19.402,0,0.04407,0,23680,70.279,0,0,0,0,0.020353,0
23598,54.3,19.402,0,0.04407,0,23680,70.279,0,0,0,0,0.020353,0
23598,54.3,19.402,0,0.04407,0,23680,70.279,0,0,0,0,0.020353,0
23598,54.3,19.402,0,0.04407,0,23680,70.279,0,0,0,0,0.020353,0
23598,54.3,19.402,0,0.04407,0,23680,70.279,0,0,0,0,0.020353,0
23598,54.3,19.402,0,0.04407,0,23680,70.279,0,0,0,0,0.020353,0
23598,54.3,19.402,0,0.04407,0,23680,70.279,0,0,0,0,0.020353,0
23598,54.3,19.402,0,0.04407,0,23680,70.279,0,0,0,0,0.020353,0
23598,54.3,19.402,0,0.04407,0,23680,70.279,0,0,0,0,0.020353,0
23598,54.3,19.402,0,0.04407,0,23680,70.279,0,0,0,0,0.020353,0
23598,54.3,19.402,0,0.04407,0,23680,70.279,0,0,0,0,0.020353,0
23598,54.3,19.402,0,0.04407,0,23680,70.279,0,0,0,0,0.020353,0
23598,54.3,19.402,0,0.04407,0,23680,70.279,0,0,0,0,0.020353,0
23598,54.3,19.402,0,0.04407,0,23680,70.279,0,0,0,0,0.020353,0
23598,54.3,19.402,0,0.04407,0,23680,70.279,0,0,0,0,0.020353,0
23598,54.3,19.402,0,0.04407,0,23680,70.279,0,0,0,0,0.020353,0
23598,54.3,19.402,0,0.04407,0,23680,70.279,0,0,0,0,0.020353,0
23598,54.3,19.402,0,0.04407,0,23680,70.279,0,0,0,0,0.020353,0
23599,54.3,19.404,0,0.044111,0,23680,70.279,0,0,0,0,0.02054,0
23599,54.3,19.404,0,0.044111,0,23680,70.279,0,0,0,0,0.02054,0
23599,54.3,19.404,0,0.044111,0,23680,70.279,0,0,0,0,0.02054,0
23599,54.3,19.404,0,0.044111,0,23680,70.279,0,0,0,0,0.02054,0
23600,54.3,19.407,0,0.044172,0,23680,70.279,0,0,0,0,0.020827,0
23601,54.3,19.408,0,0.044212,0,23680,70.279,0,0,0,0,0.021022,0
23601,54.3,19.408,0,0.044212,0,23680,70.279,0,0,0,0,0.021022,0
23601,54.3,19.408,0,0.044212,0,23680,70.279,0,0,0,0,0.021022,0
23603,54.3,19.413,0,0.044313,0,23680,70.279,0,0,0,0,0.021527,0
23603,54.3,19.413,0,0.044313,0,23680,70.279,0,0,0,0,0.021527,0
23603,54.3,19.413,0,0.044313,0,23680,70.279,0,0,0,0,0.021527,0
23603,54.3,19.413,0,0.044313,0,23680,70.279,0,0,0,0,0.021527,0
23603,54.3,19.413,0,0.044313,0,23680,70.279,0,0,0,0,0.021527,0
23603,54.3,19.413,0,0.044313,0,23680,70.279,0,0,0,0,0.021527,0
23603,54.3,19.413,0,0.044313,0,23680,70.279,0,0,0,0,0.021527,0
23603,54.3,19.413,0,0.044313,0,23680,70.279,0,0,0,0,0.021527,0
23603,54.3,19.413,0,0.044313,0,23680,70.279,0,0,0,0,0.021527,0
23603,54.3,19.413,0,0.044313,0,23680,70.279,0,0,0,0,0.021527,0
23603,54.3,19.413,0,0.044313,0,23680,70.279,0,0,0,0,0.021527,0
23603,54.3,19.413,0,0.044313,0,23680,70.279,0,0,0,0,0.021527,0
23603,54.3,19.413,0,0.044313,0,23680,70.279,0,0,0,0,0.021527,0
23603,54.3,19.413,0,0.044313,0,23680,70.279,0,0,0,0,0.021527,0
23603,54.3,19.413,0,0.044313,0,23680,70.279,0,0,0,0,0.021527,0
23603,54.3,19.413,0,0.044313,0,23680,70.279,0,0,0,0,0.021527,0
23603,54.3,19.413,0,0.044313,0,23680,70.279,0,0,0,0,0.021527,0
23603,54.3,19.413,0,0.044313,0,23680,70.279,0,0,0,0,0.021527,0
23605,54.3,19.417,0,0.044411,0,23680,70.279,0,0,0,0,0.022056,0
23605,54.3,19.417,0,0.044411,0,23680,70.279,0,0,0,0,0.022056,0
23605,54.3,19.417,0,0.044411,0,23680,70.279,0,0,0,0,0.022056,0
23605,54.3,19.417,0,0.044411,0,23680,70.279,0,0,0,0,0.022056,0
23605,54.3,19.417,0,0.044411,0,23680,70.279,0,0,0,0,0.022056,0
23605,54.3,19.418,0,0.044431,0,23680,70.279,0,0,0,0,0.022165,0
23605,54.3,19.418,0,0.044431,0,23680,70.279,0,0,0,0,0.022165,0
23607,54.3,19.423,0,0.044546,0,23680,70.279,0,0,0,0,0.022842,0
23607,54.3,19.423,0,0.044546,0,23680,70.279,0,0,0,0,0.022842,0
23609,54.3,19.426,0,0.044604,0,23680,70.279,0,0,0,0,0.023196,0
23609,54.3,19.426,0,0.044604,0,23680,70.279,0,0,0,0,0.023196,0
23609,54.3,19.426,0,0.044604,0,23680,70.279,0,0,0,0,0.023196,0
23609,54.3,19.426,0,0.044604,0,23680,70.279,0,0,0,0,0.023196,0
23609,54.3,19.426,0,0.044604,0,23680,70.279,0,0,0,0,0.023196,0
23609,54.3,19.426,0,0.044604,0,23680,70.279,0,0,0,0,0.023196,0
23609,54.3,19.427,0,0.044623,0,23680,70.279,0,0,0,0,0.023316,0
23609,54.3,19.427,0,0.044623,0,23680,70.279,0,0,0,0,0.023316,0
23609,54.3,19.427,0,0.044623,0,23680,70.279,0,0,0,0,0.023316,0
23609,54.3,19.427,0,0.044623,0,23680,70.279,0,0,0,0,0.023316,0
23609,54.3,19.427,0,0.044623,0,23680,70.279,0,0,0,0,0.023316,0
23609,54.3,19.427,0,0.044623,0,23680,70.279,0,0,0,0,0.023316,0
23609,54.3,19.427,0,0.044623,0,23680,70.279,0,0,0,0,0.023316,0
23609,54.3,19.427,0,0.044623,0,23680,70.279,0,0,0,0,0.023316,0
23609,54.3,19.427,0,0.044623,0,23680,70.279,0,0,0,0,0.023316,0
23609,54.3,19.427,0,0.044623,0,23680,70.279,0,0,0,0,0.023316,0
23609,54.3,19.427,0,0.044623,0,23680,70.279,0,0,0,0,0.023316,0
23609,54.3,19.427,0,0.044623,0,23680,70.279,0,0,0,0,0.023316,0
23609,54.3,19.427,0,0.044623,0,23680,70.279,0,0,0,0,0.023316,0
23610,54.3,19.429,0,0.04466,0,23680,70.279,0,0,0,0,0.02356,0
23610,54.3,19.429,0,0.04466,0,23680,70.279,0,0,0,0,0.02356,0
23611,54.3,19.431,0,0.044717,0,23680,70.279,0,0,0,0,0.023936,0
23611,54.3,19.431,0,0.044717,0,23680,70.279,0,0,0,0,0.023936,0
23613,54.3,19.435,0,0.04479,0,23680,70.279,0,0,0,0,0.024456,0
23613,54.3,19.435,0,0.04479,0,23680,70.279,0,0,0,0,0.024456,0
23613,54.3,19.437,0,0.044826,0,23680,70.279,0,0,0,0,0.024724,0
23613,54.3,19.437,0,0.044826,0,23680,70.279,0,0,0,0,0.024724,0
23613,54.3,19.437,0,0.044826,0,23680,70.279,0,0,0,0,0.024724,0
23613,54.3,19.437,0,0.044826,0,23680,70.279,0,0,0,0,0.024724,0
23613,54.3,19.437,0,0.044826,0,23680,70.279,0,0,0,0,0.024724,0
23614,54.3,19.438,0,0.044844,0,23680,70.279,0,0,0,0,0.02486,0
23614,54.3,19.438,0,0.044844,0,23680,70.279,0,0,0,0,0.02486,0
23614,54.3,19.438,0,0.044844,0,23680,70.279,0,0,0,0,0.02486,0
23614,54.3,19.438,0,0.044844,0,23680,70.279,0,0,0,0,0.02486,0
23614,54.3,19.438,0,0.044844,0,23680,70.279,0,0,0,0,0.02486,0
23614,54.3,19.438,0,0.044844,0,23680,70.279,0,0,0,0,0.02486,0
23614,54.3,19.438,0,0.044844,0,23680,70.279,0,0,0,0,0.02486,0
23614,54.3,19.438,0,0.044844,0,23680,70.279,0,0,0,0,0.02486,0
23614,54.3,19.438,0,0.044844,0,23680,70.279,0,0,0,0,0.02486,0
23614,54.3,19.438,0,0.044844,0,23680,70.279,0,0,0,0,0.02486,0
23614,54.3,19.438,0,0.044844,0,23680,70.279,0,0,0,0,0.02486,0
23614,54.3,19.438,0,0.044844,0,23680,70.279,0,0,0,0,0.02486,0
23614,54.3,19.438,0,0.044844,0,23680,70.279,0,0,0,0,0.02486,0
23615,54.3,19.441,0,0.044915,0,23680,70.279,0,0,0,0,0.025421,0
23615,54.3,19.441,0,0.044915,0,23680,70.279,0,0,0,0,0.025421,0
23616,54.3,19.444,0,0.044967,0,23680,70.279,0,0,0,0,0.025857,0
23618,54.3,19.447,0,0.04502,0,23680,70.279,0,0,0,0,0.026309,0
23618,54.3,19.447,0,0.04502,0,23680,70.279,0,0,0,0,0.026309,0
23618,54.3,19.447,0,0.04502,0,23680,70.279,0,0,0,0,0.026309,0
23618,54.3,19.447,0,0.04502,0,23680,70.279,0,0,0,0,0.026309,0
23618,54.3,19.447,0,0.04502,0,23680,70.279,0,0,0,0,0.026309,0
23618,54.3,19.447,0,0.04502,0,23680,70.279,0,0,0,0,0.026309,0
23618,54.3,19.447,0,0.04502,0,23680,70.279,0,0,0,0,0.026309,0
23618,54.3,19.447,0,0.04502,0,23680,70.279,0,0,0,0,0.026309,0
23618,54.3,19.447,0,0.04502,0,23680,70.279,0,0,0,0,0.026309,0
23618,54.3,19.447,0,0.04502,0,23680,70.279,0,0,0,0,0.026309,0
23618,54.3,19.447,0,0.04502,0,23680,70.279,0,0,0,0,0.026309,0
23618,54.3,19.447,0,0.04502,0,23680,70.279,0,0,0,0,0.026309,0
23618,54.3,19.447,0,0.04502,0,23680,70.279,0,0,0,0,0.026309,0
23618,54.3,19.447,0,0.04502,0,23680,70.279,0,0,0,0,0.026309,0
23618,54.3,19.448,0,0.045053,0,23680,70.279,0,0,0,0,0.026618,0
23618,54.3,19.448,0,0.045053,0,23680,70.279,0,0,0,0,0.026618,0
23618,54.3,19.448,0,0.045053,0,23680,70.279,0,0,0,0,0.026618,0
23619,54.3,19.449,0,0.045071,0,23680,70.279,0,0,0,0,0.026775,0
23620,54.3,19.452,0,0.045121,0,23680,70.279,0,0,0,0,0.027259,0
23621,54.3,19.455,0,0.04517,0,23680,70.279,0,0,0,0,0.027759,0
23621,54.3,19.455,0,0.04517,0,23680,70.279,0,0,0,0,0.027759,0
23621,54.3,19.455,0,0.04517,0,23680,70.279,0,0,0,0,0.027759,0
23621,54.3,19.455,0,0.04517,0,23680,70.279,0,0,0,0,0.027759,0
23621,54.3,19.455,0,0.04517,0,23680,70.279,0,0,0,0,0.027759,0
23621,54.3,19.455,0,0.04517,0,23680,70.279,0,0,0,0,0.027759,0
23621,54.3,19.455,0,0.04517,0,23680,70.279,0,0,0,0,0.027759,0
23621,54.3,19.455,0,0.04517,0,23680,70.279,0,0,0,0,0.027759,0
23621,54.3,19.455,0,0.04517,0,23680,70.279,0,0,0,0,0.027759,0
23621,54.3,19.455,0,0.04517,0,23680,70.279,0,0,0,0,0.027759,0
23621,54.3,19.455,0,0.04517,0,23680,70.279,0,0,0,0,0.027759,0
23621,54.3,19.455,0,0.04517,0,23680,70.279,0,0,0,0,0.027759,0
23621,54.3,19.455,0,0.04517,0,23680,70.279,0,0,0,0,0.027759,0
23622,54.3,19.458,0,0.045219,0,23680,70.279,0,0,0,0,0.028278,0
23622,54.3,19.458,0,0.045219,0,23680,70.279,0,0,0,0,0.028278,0
23622,54.3,19.458,0,0.045219,0,23680,70.279,0,0,0,0,0.028278,0
23622,54.3,19.458,0,0.045219,0,23680,70.279,0,0,0,0,0.028278,0
23622,54.3,19.458,0,0.045219,0,23680,70.279,0,0,0,0,0.028278,0
23622,54.3,19.458,0,0.045219,0,23680,70.279,0,0,0,0,0.028278,0
23622,54.3,19.458,0,0.045219,0,23680,70.279,0,0,0,0,0.028278,0
23622,54.3,19.458,0,0.045219,0,23680,70.279,0,0,0,0,0.028278,0
23622,54.3,19.458,0,0.045219,0,23680,70.279,0,0,0,0,0.028278,0
23623,54.3,19.459,0,0.045251,0,23680,70.279,0,0,0,0,0.028634,0
23623,54.3,19.459,0,0.045251,0,23680,70.279,0,0,0,0,0.028634,0
23625,54.3,19.463,0,0.045314,0,23680,70.279,0,0,0,0,0.029373,0
23626,54.3,19.466,0,0.04536,0,23680,70.279,0,0,0,0,0.029952,0
23626,54.3,19.466,0,0.04536,0,23680,70.279,0,0,0,0,0.029952,0
23626,54.3,19.466,0,0.04536,0,23680,70.279,0,0,0,0,0.029952,0
23626,54.3,19.466,0,0.04536,0,23680,70.279,0,0,0,0,0.029952,0
23627,54.3,19.468,0,0.045405,0,23680,70.279,0,0,0,0,0.030553,0
23627,54.3,19.468,0,0.045405,0,23680,70.279,0,0,0,0,0.030553,0
23627,54.3,19.468,0,0.045405,0,23680,70.279,0,0,0,0,0.030553,0
23627,54.3,19.468,0,0.045405,0,23680,70.279,0,0,0,0,0.030553,0
23627,54.3,19.468,0,0.045405,0,23680,70.279,0,0,0,0,0.030553,0
23627,54.3,19.468,0,0.045405,0,23680,70.279,0,0,0,0,0.030553,0
23627,54.3,19.468,0,0.045405,0,23680,70.279,0,0,0,0,0.030553,0
23627,54.3,19.468,0,0.045405,0,23680,70.279,0,0,0,0,0.030553,0
23627,54.3,19.468,0,0.045405,0,23680,70.279,0,0,0,0,0.030553,0
23627,54.3,19.468,0,0.045405,0,23680,70.279,0,0,0,0,0.030553,0
23627,54.3,19.468,0,0.045405,0,23680,70.279,0,0,0,0,0.030553,0
23627,54.3,19.468,0,0.045405,0,23680,70.279,0,0,0,0,0.030553,0
23627,54.3,19.468,0,0.045405,0,23680,70.279,0,0,0,0,0.030553,0
23627,54.3,19.468,0,0.045405,0,23680,70.279,0,0,0,0,0.030553,0
23627,54.3,19.468,0,0.045405,0,23680,70.279,0,0,0,0,0.030553,0
23627,54.3,19.468,0,0.045405,0,23680,70.279,0,0,0,0,0.030553,0
23627,54.3,19.468,0,0.045405,0,23680,70.279,0,0,0,0,0.030553,0
23627,54.3,19.468,0,0.045405,0,23680,70.279,0,0,0,0,0.030553,0
23627,54.3,19.468,0,0.045405,0,23680,70.279,0,0,0,0,0.030553,0
23629,54.3,19.473,0,0.045479,0,23680,70.279,0,0,0,0,0.031608,0
23630,54.3,19.476,0,0.045521,0,23680,70.279,0,0,0,0,0.032275,0
23630,54.3,19.476,0,0.045521,0,23680,70.279,0,0,0,0,0.032275,0
23630,54.3,19.476,0,0.045521,0,23680,70.279,0,0,0,0,0.032275,0
23630,54.3,19.476,0,0.045521,0,23680,70.279,0,0,0,0,0.032275,0
23630,54.3,19.476,0,0.045521,0,23680,70.279,0,0,0,0,0.032275,0
23630,54.3,19.476,0,0.045521,0,23680,70.279,0,0,0,0,0.032275,0
23630,54.3,19.476,0,0.045521,0,23680,70.279,0,0,0,0,0.032275,0
23630,54.3,19.476,0,0.045521,0,23680,70.279,0,0,0,0,0.032275,0
23630,54.3,19.476,0,0.045521,0,23680,70.279,0,0,0,0,0.032275,0
23630,54.3,19.476,0,0.045521,0,23680,70.279,0,0,0,0,0.032275,0
23630,54.3,19.476,0,0.045521,0,23680,70.279,0,0,0,0,0.032275,0
23630,54.3,19.476,0,0.045521,0,23680,70.279,0,0,0,0,0.032275,0
23630,54.3,19.476,0,0.045521,0,23680,70.279,0,0,0,0,0.032275,0
23630,54.3,19.476,0,0.045521,0,23680,70.279,0,0,0,0,0.032275,0
23632,54.3,19.48,0,0.045591,0,23680,70.279,0,0,0,0,0.033449,0
23632,54.3,19.48,0,0.045591,0,23680,70.279,0,0,0,0,0.033449,0
23632,54.3,19.48,0,0.045591,0,23680,70.279,0,0,0,0,0.033449,0
23632,54.3,19.48,0,0.045591,0,23680,70.279,0,0,0,0,0.033449,0
23632,54.3,19.48,0,0.045591,0,23680,70.279,0,0,0,0,0.033449,0
23632,54.3,19.48,0,0.045591,0,23680,70.279,0,0,0,0,0.033449,0
23632,54.3,19.48,0,0.045591,0,23680,70.279,0,0,0,0,0.033449,0
23632,54.3,19.48,0,0.045591,0,23680,70.279,0,0,0,0,0.033449,0
23632,54.3,19.48,0,0.045591,0,23680,70.279,0,0,0,0,0.033449,0
23633,54.3,19.482,0,0.045618,0,23680,70.279,0,0,0,0,0.033941,0
23633,54.3,19.482,0,0.045618,0,23680,70.279,0,0,0,0,0.033941,0
23634,54.3,19.486,0,0.045671,0,23680,70.279,0,0,0,0,0.034968,0
23634,54.3,19.486,0,0.045671,0,23680,70.279,0,0,0,0,0.034968,0
23634,54.3,19.486,0,0.045671,0,23680,70.279,0,0,0,0,0.034968,0
23634,54.3,19.486,0,0.045671,0,23680,70.279,0,0,0,0,0.034968,0
23636,54.3,19.489,0,0.045722,0,23680,70.279,0,0,0,0,0.036055,0
23636,54.3,19.489,0,0.045722,0,23680,70.279,0,0,0,0,0.036055,0
23636,54.3,19.489,0,0.045722,0,23680,70.279,0,0,0,0,0.036055,0
23636,54.3,19.489,0,0.045722,0,23680,70.279,0,0,0,0,0.036055,0
23636,54.3,19.489,0,0.045722,0,23680,70.279,0,0,0,0,0.036055,0
23636,54.3,19.489,0,0.045722,0,23680,70.279,0,0,0,0,0.036055,0
23636,54.3,19.489,0,0.045722,0,23680,70.279,0,0,0,0,0.036055,0
23637,54.3,19.493,0,0.045772,0,23680,70.279,0,0,0,0,0.037207,0
23637,54.3,19.493,0,0.045772,0,23680,70.279,0,0,0,0,0.037207,0
23637,54.3,19.493,0,0.045772,0,23680,70.279,0,0,0,0,0.037207,0
23638,54.3,19.494,0,0.045784,0,23680,70.279,0,0,0,0,0.037506,0
23638,54.3,19.495,0,0.045796,0,23680,70.279,0,0,0,0,0.03781,0
23638,54.3,19.495,0,0.045796,0,23680,70.279,0,0,0,0,0.03781,0
23639,54.3,19.496,0,0.045808,0,23680,70.279,0,0,0,0,0.038118,0
23639,54.3,19.496,0,0.045808,0,23680,70.279,0,0,0,0,0.038118,0
23639,54.3,19.497,0,0.04582,0,23680,70.279,0,0,0,0,0.03843,0
23639,54.3,19.497,0,0.04582,0,23680,70.279,0,0,0,0,0.03843,0
23639,54.3,19.498,0,0.045831,0,23680,70.279,0,0,0,0,0.038748,0
23639,54.3,19.498,0,0.045831,0,23680,70.279,0,0,0,0,0.038748,0
23639,54.3,19.498,0,0.045831,0,23680,70.279,0,0,0,0,0.038748,0
23639,54.3,19.498,0,0.045831,0,23680,70.279,0,0,0,0,0.038748,0
23639,54.3,19.498,0,0.045831,0,23680,70.279,0,0,0,0,0.038748,0
23640,54.3,19.499,0,0.045843,0,23680,70.279,0,0,0,0,0.03907,0
23640,54.3,19.499,0,0.045843,0,23680,70.279,0,0,0,0,0.03907,0
23640,54.3,19.499,0,0.045854,0,23680,70.279,0,0,0,0,0.039398,0
23641,54.3,19.5,0,0.045865,0,23680,70.279,0,0,0,0,0.03973,0
23641,54.3,19.501,0,0.045876,0,23680,70.279,0,0,0,0,0.040068,0
23641,54.3,19.501,0,0.045876,0,23680,70.279,0,0,0,0,0.040068,0
23642,54.3,19.503,0,0.045898,0,23680,70.279,0,0,0,0,0.04076,0
23642,54.3,19.504,0,0.045909,0,23680,70.279,0,0,0,0,0.041114,0
23642,54.3,19.504,0,0.045909,0,23680,70.279,0,0,0,0,0.041114,0
23642,54.3,19.504,0,0.045909,0,23680,70.279,0,0,0,0,0.041114,0
23642,54.3,19.504,0,0.045909,0,23680,70.279,0,0,0,0,0.041114,0
23642,54.3,19.504,0,0.045909,0,23680,70.279,0,0,0,0,0.041114,0
23642,54.3,19.504,0,0.045909,0,23680,70.279,0,0,0,0,0.041114,0
23642,54.3,19.504,0,0.045909,0,23680,70.279,0,0,0,0,0.041114,0
23642,54.3,19.504,0,0.045909,0,23680,70.279,0,0,0,0,0.041114,0
23642,54.3,19.504,0,0.045909,0,23680,70.279,0,0,0,0,0.041114,0
23642,54.3,19.504,0,0.045909,0,23680,70.279,0,0,0,0,0.041114,0
23642,54.3,19.504,0,0.045909,0,23680,70.279,0,0,0,0,0.041114,0
23642,54.3,19.504,0,0.045909,0,23680,70.279,0,0,0,0,0.041114,0
23642,54.3,19.504,0,0.045909,0,23680,70.279,0,0,0,0,0.041114,0
23642,54.3,19.504,0,0.045909,0,23680,70.279,0,0,0,0,0.041114,0
23643,54.3,19.506,0,0.045931,0,23680,70.279,0,0,0,0,0.041839,0
23643,54.3,19.506,0,0.045931,0,23680,70.279,0,0,0,0,0.041839,0
23643,54.3,19.506,0,0.045931,0,23680,70.279,0,0,0,0,0.041839,0
23643,54.3,19.507,0,0.045942,0,23680,70.279,0,0,0,0,0.04221,0
23644,54.3,19.51,0,0.045971,0,23680,70.279,0,0,0,0,0.043361,0
23646,54.3,19.512,0,0.046001,0,23680,70.279,0,0,0,0,0.04457,0
23646,54.3,19.513,0,0.046011,0,23680,70.279,0,0,0,0,0.044987,0
23646,54.3,19.513,0,0.046011,0,23680,70.279,0,0,0,0,0.044987,0
23646,54.3,19.513,0,0.046011,0,23680,70.279,0,0,0,0,0.044987,0
23646,54.3,19.513,0,0.046011,0,23680,70.279,0,0,0,0,0.044987,0
23646,54.3,19.513,0,0.046011,0,23680,70.279,0,0,0,0,0.044987,0
23646,54.3,19.513,0,0.046011,0,23680,70.279,0,0,0,0,0.044987,0
23646,54.3,19.513,0,0.046011,0,23680,70.279,0,0,0,0,0.044987,0
23646,54.3,19.513,0,0.046011,0,23680,70.279,0,0,0,0,0.044987,0
23646,54.3,19.513,0,0.046011,0,23680,70.279,0,0,0,0,0.044987,0
23646,54.3,19.513,0,0.046011,0,23680,70.279,0,0,0,0,0.044987,0
23647,54.3,19.515,0,0.046031,0,23680,70.279,0,0,0,0,0.045841,0
23647,54.3,19.515,0,0.046031,0,23680,70.279,0,0,0,0,0.045841,0
23647,54.3,19.515,0,0.046031,0,23680,70.279,0,0,0,0,0.045841,0
23647,54.3,19.515,0,0.046031,0,23680,70.279,0,0,0,0,0.045841,0
23647,54.3,19.515,0,0.046031,0,23680,70.279,0,0,0,0,0.045841,0
23647,54.3,19.515,0,0.046031,0,23680,70.279,0,0,0,0,0.045841,0
23647,54.3,19.515,0,0.046031,0,23680,70.279,0,0,0,0,0.045841,0
23647,54.3,19.515,0,0.046031,0,23680,70.279,0,0,0,0,0.045841,0
23647,54.3,19.515,0,0.046031,0,23680,70.279,0,0,0,0,0.045841,0
23647,54.3,19.515,0,0.046031,0,23680,70.279,0,0,0,0,0.045841,0
23647,54.3,19.515,0,0.046031,0,23680,70.279,0,0,0,0,0.045841,0
23647,54.3,19.515,0,0.046031,0,23680,70.279,0,0,0,0,0.045841,0
23647,54.3,19.515,0,0.046031,0,23680,70.279,0,0,0,0,0.045841,0
23648,54.3,19.518,0,0.046057,0,23680,70.279,0,0,0,0,0.047178,0
23648,54.3,19.518,0,0.046057,0,23680,70.279,0,0,0,0,0.047178,0
23649,54.3,19.521,0,0.046083,0,23680,70.279,0,0,0,0,0.048585,0
23651,54.3,19.524,0,0.046117,0,23680,70.279,0,0,0,0,0.050579,0
23651,54.3,19.524,0,0.046117,0,23680,70.279,0,0,0,0,0.050579,0
23651,54.3,19.524,0,0.046117,0,23680,70.279,0,0,0,0,0.050579,0
23651,54.3,19.524,0,0.046117,0,23680,70.279,0,0,0,0,0.050579,0
23651,54.3,19.524,0,0.046117,0,23680,70.279,0,0,0,0,0.050579,0
23652,54.3,19.527,0,0.046141,0,23680,70.279,0,0,0,0,0.052168,0
23652,54.3,19.527,0,0.046141,0,23680,70.279,0,0,0,0,0.052168,0
23652,54.3,19.527,0,0.046141,0,23680,70.279,0,0,0,0,0.052168,0
23652,54.3,19.527,0,0.046141,0,23680,70.279,0,0,0,0,0.052168,0
23652,54.3,19.527,0,0.046141,0,23680,70.279,0,0,0,0,0.052168,0
23652,54.3,19.527,0,0.046141,0,23680,70.279,0,0,0,0,0.052168,0
23652,54.3,19.527,0,0.046141,0,23680,70.279,0,0,0,0,0.052168,0
23652,54.3,19.527,0,0.046141,0,23680,70.279,0,0,0,0,0.052168,0
23652,54.3,19.527,0,0.046141,0,23680,70.279,0,0,0,0,0.052168,0
23652,54.3,19.527,0,0.046141,0,23680,70.279,0,0,0,0,0.052168,0
23652,54.3,19.527,0,0.046141,0,23680,70.279,0,0,0,0,0.052168,0
23652,54.3,19.527,0,0.046141,0,23680,70.279,0,0,0,0,0.052168,0
23652,54.3,19.527,0,0.046141,0,23680,70.279,0,0,0,0,0.052168,0
23652,54.3,19.527,0,0.046141,0,23680,70.279,0,0,0,0,0.052168,0
23652,54.3,19.527,0,0.046141,0,23680,70.279,0,0,0,0,0.052168,0
23652,54.3,19.527,0,0.046141,0,23680,70.279,0,0,0,0,0.052168,0
23652,54.3,19.527,0,0.046141,0,23680,70.279,0,0,0,0,0.052168,0
23652,54.3,19.527,0,0.046141,0,23680,70.279,0,0,0,0,0.052168,0
23654,54.3,19.532,0,0.046177,0,23680,70.279,0,0,0,0,0.05501,0
23654,54.3,19.532,0,0.046177,0,23680,70.279,0,0,0,0,0.05501,0
23655,54.3,19.534,0,0.046199,0,23680,70.279,0,0,0,0,0.056841,0
23655,54.3,19.534,0,0.046199,0,23680,70.279,0,0,0,0,0.056841,0
23656,54.3,19.537,0,0.04622,0,23680,70.279,0,0,0,0,0.058771,0
23656,54.3,19.537,0,0.04622,0,23680,70.279,0,0,0,0,0.058771,0
23656,54.3,19.537,0,0.04622,0,23680,70.279,0,0,0,0,0.058771,0
23656,54.3,19.537,0,0.04622,0,23680,70.279,0,0,0,0,0.058771,0
23656,54.3,19.537,0,0.04622,0,23680,70.279,0,0,0,0,0.058771,0
23656,54.3,19.537,0,0.04622,0,23680,70.279,0,0,0,0,0.058771,0
23656,54.3,19.537,0,0.04622,0,23680,70.279,0,0,0,0,0.058771,0
23656,54.3,19.537,0,0.04622,0,23680,70.279,0,0,0,0,0.058771,0
23656,54.3,19.537,0,0.04622,0,23680,70.279,0,0,0,0,0.058771,0
23656,54.3,19.537,0,0.04622,0,23680,70.279,0,0,0,0,0.058771,0
23656,54.3,19.537,0,0.04622,0,23680,70.279,0,0,0,0,0.058771,0
23656,54.3,19.537,0,0.04622,0,23680,70.279,0,0,0,0,0.058771,0
23657,54.3,19.539,0,0.046232,0,23680,70.279,0,0,0,0,0.060116,0
23657,54.3,19.539,0,0.046232,0,23680,70.279,0,0,0,0,0.060116,0
23657,54.3,19.539,0,0.046232,0,23680,70.279,0,0,0,0,0.060116,0
23657,54.3,19.539,0,0.046232,0,23680,70.279,0,0,0,0,0.060116,0
23657,54.3,19.539,0,0.046232,0,23680,70.279,0,0,0,0,0.060116,0
23658,54.3,19.542,0,0.046249,0,23680,70.279,0,0,0,0,0.062224,0
23658,54.3,19.542,0,0.046249,0,23680,70.279,0,0,0,0,0.062224,0
23659,54.3,19.544,0,0.04626,0,23680,70.279,0,0,0,0,0.063691,0
23660,54.3,19.546,0,0.046271,0,23680,70.279,0,0,0,0,0.065209,0
23660,54.3,19.546,0,0.046271,0,23680,70.279,0,0,0,0,0.065209,0
23660,54.3,19.546,0,0.046271,0,23680,70.279,0,0,0,0,0.065209,0
23660,54.3,19.546,0,0.046271,0,23680,70.279,0,0,0,0,0.065209,0
23660,54.3,19.546,0,0.046271,0,23680,70.279,0,0,0,0,0.065209,0
23660,54.3,19.546,0,0.046271,0,23680,70.279,0,0,0,0,0.065209,0
23660,54.3,19.546,0,0.046271,0,23680,70.279,0,0,0,0,0.065209,0
23661,54.3,19.548,0,0.046287,0,23680,70.279,0,0,0,0,0.067582,0
23661,54.3,19.548,0,0.046287,0,23680,70.279,0,0,0,0,0.067582,0
23661,54.3,19.548,0,0.046287,0,23680,70.279,0,0,0,0,0.067582,0
23661,54.3,19.548,0,0.046287,0,23680,70.279,0,0,0,0,0.067582,0
23661,54.3,19.548,0,0.046287,0,23680,70.279,0,0,0,0,0.067582,0
23661,54.3,19.548,0,0.046287,0,23680,70.279,0,0,0,0,0.067582,0
23661,54.3,19.548,0,0.046287,0,23680,70.279,0,0,0,0,0.067582,0
23661,54.3,19.548,0,0.046287,0,23680,70.279,0,0,0,0,0.067582,0
23661,54.3,19.548,0,0.046287,0,23680,70.279,0,0,0,0,0.067582,0
23661,54.3,19.548,0,0.046287,0,23680,70.279,0,0,0,0,0.067582,0
23661,54.3,19.548,0,0.046287,0,23680,70.279,0,0,0,0,0.067582,0
23661,54.3,19.548,0,0.046287,0,23680,70.279,0,0,0,0,0.067582,0
23661,54.3,19.548,0,0.046287,0,23680,70.279,0,0,0,0,0.067582,0
23661,54.3,19.548,0,0.046287,0,23680,70.279,0,0,0,0,0.067582,0
23661,54.3,19.548,0,0.046287,0,23680,70.279,0,0,0,0,0.067582,0
23661,54.3,19.548,0,0.046287,0,23680,70.279,0,0,0,0,0.067582,0
23661,54.3,19.548,0,0.046287,0,23680,70.279,0,0,0,0,0.067582,0
23662,54.3,19.552,0,0.046307,0,23680,70.279,0,0,0,0,0.070927,0
23664,54.3,19.555,0,0.046319,0,23680,70.279,0,0,0,0,0.073569,0
23664,54.3,19.555,0,0.046319,0,23680,70.279,0,0,0,0,0.073569,0
23665,54.3,19.558,0,0.046333,0,23680,70.279,0,0,0,0,0.077259,0
23665,54.3,19.558,0,0.046333,0,23680,70.279,0,0,0,0,0.077259,0
23665,54.3,19.558,0,0.046333,0,23680,70.279,0,0,0,0,0.077259,0
23665,54.3,19.558,0,0.046333,0,23680,70.279,0,0,0,0,0.077259,0
23665,54.3,19.558,0,0.046333,0,23680,70.279,0,0,0,0,0.077259,0
23665,54.3,19.558,0,0.046333,0,23680,70.279,0,0,0,0,0.077259,0
23665,54.3,19.558,0,0.046333,0,23680,70.279,0,0,0,0,0.077259,0
23665,54.3,19.558,0,0.046333,0,23680,70.279,0,0,0,0,0.077259,0
23665,54.3,19.558,0,0.046333,0,23680,70.279,0,0,0,0,0.077259,0
23665,54.3,19.558,0,0.046333,0,23680,70.279,0,0,0,0,0.077259,0
23665,54.3,19.558,0,0.046333,0,23680,70.279,0,0,0,0,0.077259,0
23665,54.3,19.558,0,0.046333,0,23680,70.279,0,0,0,0,0.077259,0
23665,54.3,19.558,0,0.046333,0,23680,70.279,0,0,0,0,0.077259,0
23665,54.3,19.558,0,0.046333,0,23680,70.279,0,0,0,0,0.077259,0
23665,54.3,19.558,0,0.046333,0,23680,70.279,0,0,0,0,0.077259,0
23667,54.3,19.562,0,0.046345,0,23680,70.279,0,0,0,0,0.081113,0
23667,54.3,19.562,0,0.046345,0,23680,70.279,0,0,0,0,0.081113,0
23667,54.3,19.562,0,0.046345,0,23680,70.279,0,0,0,0,0.081113,0
23667,54.3,19.562,0,0.046345,0,23680,70.279,0,0,0,0,0.081113,0
23668,54.3,19.564,0,0.046351,0,23680,70.279,0,0,0,0,0.083089,0
23668,54.3,19.566,0,0.046356,0,23680,70.279,0,0,0,0,0.085086,0
23669,54.3,19.569,0,0.046363,0,23680,70.279,0,0,0,0,0.088101,0
23669,54.3,19.569,0,0.046363,0,23680,70.279,0,0,0,0,0.088101,0
23669,54.3,19.569,0,0.046363,0,23680,70.279,0,0,0,0,0.088101,0
23670,54.3,19.571,0,0.046367,0,23680,70.279,0,0,0,0,0.090106,0
23670,54.3,19.571,0,0.046367,0,23680,70.279,0,0,0,0,0.090106,0
23670,54.3,19.571,0,0.046367,0,23680,70.279,0,0,0,0,0.090106,0
23670,54.3,19.571,0,0.046367,0,23680,70.279,0,0,0,0,0.090106,0
23670,54.3,19.571,0,0.046367,0,23680,70.279,0,0,0,0,0.090106,0
23670,54.3,19.571,0,0.046367,0,23680,70.279,0,0,0,0,0.090106,0
23670,54.3,19.571,0,0.046367,0,23680,70.279,0,0,0,0,0.090106,0
23670,54.3,19.571,0,0.046367,0,23680,70.279,0,0,0,0,0.090106,0
23670,54.3,19.571,0,0.046367,0,23680,70.279,0,0,0,0,0.090106,0
23670,54.3,19.571,0,0.046367,0,23680,70.279,0,0,0,0,0.090106,0
23670,54.3,19.571,0,0.046367,0,23680,70.279,0,0,0,0,0.090106,0
23670,54.3,19.571,0,0.046367,0,23680,70.279,0,0,0,0,0.090106,0
23670,54.3,19.571,0,0.046367,0,23680,70.279,0,0,0,0,0.090106,0
23670,54.3,19.571,0,0.046367,0,23680,70.279,0,0,0,0,0.090106,0
23670,54.3,19.571,0,0.046367,0,23680,70.279,0,0,0,0,0.090106,0
23670,54.3,19.571,0,0.046367,0,23680,70.279,0,0,0,0,0.090106,0
23670,54.3,19.571,0,0.046367,0,23680,70.279,0,0,0,0,0.090106,0
23670,54.3,19.571,0,0.046367,0,23680,70.279,0,0,0,0,0.090106,0
23670,54.3,19.571,0,0.046367,0,23680,70.279,0,0,0,0,0.090106,0
23670,54.3,19.571,0,0.046367,0,23680,70.279,0,0,0,0,0.090106,0
23673,54.3,19.577,0,0.046379,0,23680,70.279,0,0,0,0,0.096836,0
23673,54.3,19.577,0,0.046379,0,23680,70.279,0,0,0,0,0.096836,0
23673,54.3,19.578,0,0.04638,0,23680,70.279,0,0,0,0,0.097728,0
23673,54.3,19.578,0,0.04638,0,23680,70.279,0,0,0,0,0.097728,0
23673,54.3,19.578,0,0.04638,0,23680,70.279,0,0,0,0,0.097728,0
23673,54.3,19.578,0,0.04638,0,23680,70.279,0,0,0,0,0.097728,0
23673,54.3,19.578,0,0.04638,0,23680,70.279,0,0,0,0,0.097728,0
23673,54.3,19.578,0,0.04638,0,23680,70.279,0,0,0,0,0.097728,0
23673,54.3,19.578,0,0.04638,0,23680,70.279,0,0,0,0,0.097728,0
23673,54.3,19.578,0,0.04638,0,23680,70.279,0,0,0,0,0.097728,0
23673,54.3,19.578,0,0.04638,0,23680,70.279,0,0,0,0,0.097728,0
23673,54.3,19.578,0,0.04638,0,23680,70.279,0,0,0,0,0.097728,0
23673,54.3,19.578,0,0.04638,0,23680,70.279,0,0,0,0,0.097728,0
23673,54.3,19.578,0,0.04638,0,23680,70.279,0,0,0,0,0.097728,0
23673,54.3,19.578,0,0.04638,0,23680,70.279,0,0,0,0,0.097728,0
23673,54.3,19.578,0,0.04638,0,23680,70.279,0,0,0,0,0.097728,0
23673,54.3,19.578,0,0.04638,0,23680,70.279,0,0,0,0,0.097728,0
23673,54.3,19.578,0,0.04638,0,23680,70.279,0,0,0,0,0.097728,0
23673,54.3,19.578,0,0.04638,0,23680,70.279,0,0,0,0,0.097728,0
23673,54.3,19.578,0,0.04638,0,23680,70.279,0,0,0,0,0.097728,0
23673,54.3,19.578,0,0.04638,0,23680,70.279,0,0,0,0,0.097728,0
23673,54.3,19.578,0,0.04638,0,23680,70.279,0,0,0,0,0.097728,0
23673,54.3,19.578,0,0.04638,0,23680,70.279,0,0,0,0,0.097728,0
23676,54.3,19.584,0,0.046385,0,23680,70.279,0,0,0,0,0.1031,0
23676,54.3,19.584,0,0.046385,0,23680,70.279,0,0,0,0,0.1031,0
23676,54.3,19.584,0,0.046385,0,23680,70.279,0,0,0,0,0.1031,0
23676,54.3,19.584,0,0.046385,0,23680,70.279,0,0,0,0,0.1031,0
23676,54.3,19.584,0,0.046385,0,23680,70.279,0,0,0,0,0.1031,0
23676,54.3,19.584,0,0.046385,0,23680,70.279,0,0,0,0,0.1031,0
23676,54.3,19.584,0,0.046385,0,23680,70.279,0,0,0,0,0.1031,0
23676,54.3,19.584,0,0.046385,0,23680,70.279,0,0,0,0,0.1031,0
23676,54.3,19.584,0,0.046385,0,23680,70.279,0,0,0,0,0.1031,0
23678,54.3,19.59,0,0.046384,0,23680,70.279,0,0,0,0,0.10595,0
23678,54.3,19.59,0,0.046384,0,23680,70.279,0,0,0,0,0.10595,0
23680,54.3,19.593,0,0.046382,0,23680,70.279,0,0,0,0,0.10659,0
23680,54.3,19.593,0,0.046382,0,23680,70.279,0,0,0,0,0.10659,0
23680,54.3,19.593,0,0.046382,0,23680,70.279,0,0,0,0,0.10659,0
23681,54.3,19.596,0,0.046378,0,23680,70.279,0,0,0,0,0.10666,0
23681,54.3,19.596,0,0.046378,0,23680,70.279,0,0,0,0,0.10666,0
23681,54.3,19.596,0,0.046377,0,23680,70.279,0,0,0,0,0.10656,0
23681,54.3,19.596,0,0.046377,0,23680,70.279,0,0,0,0,0.10656,0
23681,54.3,19.596,0,0.046377,0,23680,70.279,0,0,0,0,0.10656,0
23681,54.3,19.596,0,0.046377,0,23680,70.279,0,0,0,0,0.10656,0
23681,54.3,19.596,0,0.046377,0,23680,70.279,0,0,0,0,0.10656,0
23681,54.3,19.596,0,0.046377,0,23680,70.279,0,0,0,0,0.10656,0
23681,54.3,19.596,0,0.046377,0,23680,70.279,0,0,0,0,0.10656,0
23681,54.3,19.596,0,0.046377,0,23680,70.279,0,0,0,0,0.10656,0
23681,54.3,19.596,0,0.046377,0,23680,70.279,0,0,0,0,0.10656,0
23681,54.3,19.596,0,0.046377,0,23680,70.279,0,0,0,0,0.10656,0
23681,54.3,19.596,0,0.046377,0,23680,70.279,0,0,0,0,0.10656,0
23681,54.3,19.596,0,0.046377,0,23680,70.279,0,0,0,0,0.10656,0
23681,54.3,19.596,0,0.046377,0,23680,70.279,0,0,0,0,0.10656,0
23681,54.3,19.596,0,0.046377,0,23680,70.279,0,0,0,0,0.10656,0
23681,54.3,19.596,0,0.046377,0,23680,70.279,0,0,0,0,0.10656,0
23681,54.3,19.596,0,0.046377,0,23680,70.279,0,0,0,0,0.10656,0
23681,54.3,19.596,0,0.046377,0,23680,70.279,0,0,0,0,0.10656,0
23681,54.3,19.596,0,0.046377,0,23680,70.279,0,0,0,0,0.10656,0
23681,54.3,19.596,0,0.046377,0,23680,70.279,0,0,0,0,0.10656,0
23681,54.3,19.596,0,0.046377,0,23680,70.279,0,0,0,0,0.10656,0
23681,54.3,19.596,0,0.046377,0,23680,70.279,0,0,0,0,0.10656,0
23681,54.3,19.596,0,0.046377,0,23680,70.279,0,0,0,0,0.10656,0
23684,54.3,19.602,0,0.046365,0,23680,70.279,0,0,0,0,0.10464,0
23684,54.3,19.602,0,0.046365,0,23680,70.279,0,0,0,0,0.10464,0
23684,54.3,19.602,0,0.046365,0,23680,70.279,0,0,0,0,0.10464,0
23685,54.3,19.605,0,0.046357,0,23680,70.279,0,0,0,0,0.10294,0
23686,54.3,19.608,0,0.046347,0,23680,70.279,0,0,0,0,0.10082,0
23687,54.3,19.61,0,0.046336,0,23680,70.279,0,0,0,0,0.098372,0
23687,54.3,19.611,0,0.046331,0,23680,70.279,0,0,0,0,0.097497,0
23687,54.3,19.611,0,0.046331,0,23680,70.279,0,0,0,0,0.097497,0
23687,54.3,19.611,0,0.046331,0,23680,70.279,0,0,0,0,0.097497,0
23687,54.3,19.611,0,0.046331,0,23680,70.279,0,0,0,0,0.097497,0
23687,54.3,19.611,0,0.046331,0,23680,70.279,0,0,0,0,0.097497,0
23687,54.3,19.611,0,0.046331,0,23680,70.279,0,0,0,0,0.097497,0
23687,54.3,19.611,0,0.046331,0,23680,70.279,0,0,0,0,0.097497,0
23687,54.3,19.611,0,0.046331,0,23680,70.279,0,0,0,0,0.097497,0
23687,54.3,19.611,0,0.046331,0,23680,70.279,0,0,0,0,0.097497,0
23687,54.3,19.611,0,0.046331,0,23680,70.279,0,0,0,0,0.097497,0
23687,54.3,19.611,0,0.046331,0,23680,70.279,0,0,0,0,0.097497,0
23687,54.3,19.611,0,0.046331,0,23680,70.279,0,0,0,0,0.097497,0
23687,54.3,19.611,0,0.046331,0,23680,70.279,0,0,0,0,0.097497,0
23687,54.3,19.611,0,0.046331,0,23680,70.279,0,0,0,0,0.097497,0
23687,54.3,19.611,0,0.046331,0,23680,70.279,0,0,0,0,0.097497,0
23687,54.3,19.611,0,0.046331,0,23680,70.279,0,0,0,0,0.097497,0
23687,54.3,19.611,0,0.046331,0,23680,70.279,0,0,0,0,0.097497,0
23687,54.3,19.611,0,0.046331,0,23680,70.279,0,0,0,0,0.097497,0
23687,54.3,19.611,0,0.046331,0,23680,70.279,0,0,0,0,0.097497,0
23688,54.3,19.613,0,0.046323,0,23680,70.279,0,0,0,0,0.095674,0
23688,54.3,19.613,0,0.046323,0,23680,70.279,0,0,0,0,0.095674,0
23689,54.3,19.614,0,0.046318,0,23680,70.279,0,0,0,0,0.094733,0
23690,54.3,19.618,0,0.046298,0,23680,70.279,0,0,0,0,0.090827,0
23690,54.3,19.618,0,0.046298,0,23680,70.279,0,0,0,0,0.090827,0
23692,54.3,19.622,0,0.046278,0,23680,70.279,0,0,0,0,0.086808,0
23692,54.3,19.622,0,0.046278,0,23680,70.279,0,0,0,0,0.086808,0
23692,54.3,19.622,0,0.046272,0,23680,70.279,0,0,0,0,0.0858,0
23692,54.3,19.622,0,0.046272,0,23680,70.279,0,0,0,0,0.0858,0
23692,54.3,19.622,0,0.046272,0,23680,70.279,0,0,0,0,0.0858,0
23692,54.3,19.622,0,0.046272,0,23680,70.279,0,0,0,0,0.0858,0
23692,54.3,19.622,0,0.046272,0,23680,70.279,0,0,0,0,0.0858,0
23692,54.3,19.622,0,0.046272,0,23680,70.279,0,0,0,0,0.0858,0
23692,54.3,19.622,0,0.046272,0,23680,70.279,0,0,0,0,0.0858,0
23692,54.3,19.622,0,0.046272,0,23680,70.279,0,0,0,0,0.0858,0
23692,54.3,19.622,0,0.046272,0,23680,70.279,0,0,0,0,0.0858,0
23692,54.3,19.622,0,0.046272,0,23680,70.279,0,0,0,0,0.0858,0
23692,54.3,19.622,0,0.046272,0,23680,70.279,0,0,0,0,0.0858,0
23692,54.3,19.622,0,0.046272,0,23680,70.279,0,0,0,0,0.0858,0
23692,54.3,19.622,0,0.046272,0,23680,70.279,0,0,0,0,0.0858,0
23692,54.3,19.622,0,0.046272,0,23680,70.279,0,0,0,0,0.0858,0
23693,54.3,19.624,0,0.046261,0,23680,70.279,0,0,0,0,0.083791,0
23693,54.3,19.625,0,0.046256,0,23680,70.279,0,0,0,0,0.082793,0
23693,54.3,19.625,0,0.046256,0,23680,70.279,0,0,0,0,0.082793,0
23695,54.3,19.628,0,0.046237,0,23680,70.279,0,0,0,0,0.079837,0
23696,54.3,19.631,0,0.046216,0,23680,70.279,0,0,0,0,0.076958,0
23696,54.3,19.631,0,0.046216,0,23680,70.279,0,0,0,0,0.076958,0
23696,54.3,19.631,0,0.046216,0,23680,70.279,0,0,0,0,0.076958,0
23696,54.3,19.631,0,0.046216,0,23680,70.279,0,0,0,0,0.076958,0
23696,54.3,19.631,0,0.046216,0,23680,70.279,0,0,0,0,0.076958,0
23696,54.3,19.631,0,0.046216,0,23680,70.279,0,0,0,0,0.076958,0
23696,54.3,19.631,0,0.046216,0,23680,70.279,0,0,0,0,0.076958,0
23696,54.3,19.631,0,0.046216,0,23680,70.279,0,0,0,0,0.076958,0
23696,54.3,19.631,0,0.046216,0,23680,70.279,0,0,0,0,0.076958,0
23696,54.3,19.631,0,0.046216,0,23680,70.279,0,0,0,0,0.076958,0
23696,54.3,19.631,0,0.046216,0,23680,70.279,0,0,0,0,0.076958,0
23696,54.3,19.631,0,0.046216,0,23680,70.279,0,0,0,0,0.076958,0
23697,54.3,19.634,0,0.046194,0,23680,70.279,0,0,0,0,0.074174,0
23697,54.3,19.634,0,0.046194,0,23680,70.279,0,0,0,0,0.074174,0
23697,54.3,19.634,0,0.046194,0,23680,70.279,0,0,0,0,0.074174,0
23697,54.3,19.634,0,0.046194,0,23680,70.279,0,0,0,0,0.074174,0
23697,54.3,19.634,0,0.046194,0,23680,70.279,0,0,0,0,0.074174,0
23697,54.3,19.634,0,0.046194,0,23680,70.279,0,0,0,0,0.074174,0
23697,54.3,19.634,0,0.046194,0,23680,70.279,0,0,0,0,0.074174,0
23697,54.3,19.634,0,0.046194,0,23680,70.279,0,0,0,0,0.074174,0
23697,54.3,19.634,0,0.046194,0,23680,70.279,0,0,0,0,0.074174,0
23697,54.3,19.634,0,0.046194,0,23680,70.279,0,0,0,0,0.074174,0
23697,54.3,19.634,0,0.046194,0,23680,70.279,0,0,0,0,0.074174,0
23697,54.3,19.634,0,0.046194,0,23680,70.279,0,0,0,0,0.074174,0
23699,54.3,19.639,0,0.04615,0,23680,70.279,0,0,0,0,0.068931,0
23701,54.3,19.643,0,0.046116,0,23680,70.279,0,0,0,0,0.065693,0
23701,54.3,19.643,0,0.046116,0,23680,70.279,0,0,0,0,0.065693,0
23701,54.3,19.644,0,0.046107,0,23680,70.279,0,0,0,0,0.064916,0
23701,54.3,19.644,0,0.046107,0,23680,70.279,0,0,0,0,0.064916,0
23701,54.3,19.644,0,0.046107,0,23680,70.279,0,0,0,0,0.064916,0
23701,54.3,19.644,0,0.046107,0,23680,70.279,0,0,0,0,0.064916,0
23701,54.3,19.644,0,0.046107,0,23680,70.279,0,0,0,0,0.064916,0
23701,54.3,19.644,0,0.046107,0,23680,70.279,0,0,0,0,0.064916,0
23701,54.3,19.644,0,0.046107,0,23680,70.279,0,0,0,0,0.064916,0
23701,54.3,19.644,0,0.046107,0,23680,70.279,0,0,0,0,0.064916,0
23701,54.3,19.644,0,0.046107,0,23680,70.279,0,0,0,0,0.064916,0
23701,54.3,19.644,0,0.046107,0,23680,70.279,0,0,0,0,0.064916,0
23701,54.3,19.644,0,0.046107,0,23680,70.279,0,0,0,0,0.064916,0
23701,54.3,19.644,0,0.046107,0,23680,70.279,0,0,0,0,0.064916,0
23701,54.3,19.644,0,0.046107,0,23680,70.279,0,0,0,0,0.064916,0
23701,54.3,19.644,0,0.046107,0,23680,70.279,0,0,0,0,0.064916,0
23701,54.3,19.644,0,0.046107,0,23680,70.279,0,0,0,0,0.064916,0
23702,54.3,19.646,0,0.046089,0,23680,70.279,0,0,0,0,0.0634,0
23702,54.3,19.646,0,0.04608,0,23680,70.279,0,0,0,0,0.062662,0
23704,54.3,19.649,0,0.046053,0,23680,70.279,0,0,0,0,0.06052,0
23704,54.3,19.649,0,0.046053,0,23680,70.279,0,0,0,0,0.06052,0
23705,54.3,19.652,0,0.046023,0,23680,70.279,0,0,0,0,0.058489,0
23705,54.3,19.652,0,0.046023,0,23680,70.279,0,0,0,0,0.058489,0
23705,54.3,19.652,0,0.046023,0,23680,70.279,0,0,0,0,0.058489,0
23705,54.3,19.652,0,0.046023,0,23680,70.279,0,0,0,0,0.058489,0
23705,54.3,19.652,0,0.046023,0,23680,70.279,0,0,0,0,0.058489,0
23705,54.3,19.652,0,0.046023,0,23680,70.279,0,0,0,0,0.058489,0
23705,54.3,19.652,0,0.046023,0,23680,70.279,0,0,0,0,0.058489,0
23705,54.3,19.652,0,0.046023,0,23680,70.279,0,0,0,0,0.058489,0
23705,54.3,19.652,0,0.046023,0,23680,70.279,0,0,0,0,0.058489,0
23705,54.3,19.652,0,0.046023,0,23680,70.279,0,0,0,0,0.058489,0
23706,54.3,19.654,0,0.046003,0,23680,70.279,0,0,0,0,0.057193,0
23706,54.3,19.654,0,0.046003,0,23680,70.279,0,0,0,0,0.057193,0
23706,54.3,19.654,0,0.046003,0,23680,70.279,0,0,0,0,0.057193,0
23706,54.3,19.654,0,0.046003,0,23680,70.279,0,0,0,0,0.057193,0
23706,54.3,19.654,0,0.046003,0,23680,70.279,0,0,0,0,0.057193,0
23706,54.3,19.654,0,0.046003,0,23680,70.279,0,0,0,0,0.057193,0
23706,54.3,19.654,0,0.046003,0,23680,70.279,0,0,0,0,0.057193,0
23706,54.3,19.654,0,0.046003,0,23680,70.279,0,0,0,0,0.057193,0
23706,54.3,19.654,0,0.046003,0,23680,70.279,0,0,0,0,0.057193,0
23706,54.3,19.654,0,0.046003,0,23680,70.279,0,0,0,0,0.057193,0
23706,54.3,19.654,0,0.046003,0,23680,70.279,0,0,0,0,0.057193,0
23706,54.3,19.654,0,0.046003,0,23680,70.279,0,0,0,0,0.057193,0
23706,54.3,19.654,0,0.046003,0,23680,70.279,0,0,0,0,0.057193,0
23708,54.3,19.658,0,0.045951,0,23680,70.279,0,0,0,0,0.054147,0
23709,54.3,19.662,0,0.045905,0,23680,70.279,0,0,0,0,0.051897,0
23709,54.3,19.663,0,0.045893,0,23680,70.279,0,0,0,0,0.051359,0
23709,54.3,19.663,0,0.045893,0,23680,70.279,0,0,0,0,0.051359,0
23710,54.3,19.665,0,0.045871,0,23680,70.279,0,0,0,0,0.050311,0
23710,54.3,19.665,0,0.045871,0,23680,70.279,0,0,0,0,0.050311,0
23710,54.3,19.665,0,0.045871,0,23680,70.279,0,0,0,0,0.050311,0
23710,54.3,19.665,0,0.045871,0,23680,70.279,0,0,0,0,0.050311,0
23710,54.3,19.665,0,0.045871,0,23680,70.279,0,0,0,0,0.050311,0
23710,54.3,19.665,0,0.045871,0,23680,70.279,0,0,0,0,0.050311,0
23710,54.3,19.665,0,0.045871,0,23680,70.279,0,0,0,0,0.050311,0
23710,54.3,19.665,0,0.045871,0,23680,70.279,0,0,0,0,0.050311,0
23710,54.3,19.665,0,0.045871,0,23680,70.279,0,0,0,0,0.050311,0
23710,54.3,19.665,0,0.045871,0,23680,70.279,0,0,0,0,0.050311,0
23710,54.3,19.665,0,0.045871,0,23680,70.279,0,0,0,0,0.050311,0
23710,54.3,19.665,0,0.045871,0,23680,70.279,0,0,0,0,0.050311,0
23710,54.3,19.665,0,0.045871,0,23680,70.279,0,0,0,0,0.050311,0
23710,54.3,19.665,0,0.045871,0,23680,70.279,0,0,0,0,0.050311,0
23710,54.3,19.665,0,0.045871,0,23680,70.279,0,0,0,0,0.050311,0
23710,54.3,19.665,0,0.045871,0,23680,70.279,0,0,0,0,0.050311,0
23710,54.3,19.665,0,0.045871,0,23680,70.279,0,0,0,0,0.050311,0
23711,54.3,19.667,0,0.045847,0,23680,70.279,0,0,0,0,0.049299,0
23711,54.3,19.667,0,0.045847,0,23680,70.279,0,0,0,0,0.049299,0
23713,54.3,19.67,0,0.045796,0,23680,70.279,0,0,0,0,0.047377,0
23713,54.3,19.67,0,0.045796,0,23680,70.279,0,0,0,0,0.047377,0
23713,54.3,19.67,0,0.045796,0,23680,70.279,0,0,0,0,0.047377,0
23714,54.3,19.673,0,0.045759,0,23680,70.279,0,0,0,0,0.04602,0
23714,54.3,19.673,0,0.045759,0,23680,70.279,0,0,0,0,0.04602,0
23715,54.3,19.675,0,0.045733,0,23680,70.279,0,0,0,0,0.045153,0
23715,54.3,19.675,0,0.045733,0,23680,70.279,0,0,0,0,0.045153,0
23715,54.3,19.675,0,0.045733,0,23680,70.279,0,0,0,0,0.045153,0
23715,54.3,19.675,0,0.045733,0,23680,70.279,0,0,0,0,0.045153,0
23715,54.3,19.675,0,0.045733,0,23680,70.279,0,0,0,0,0.045153,0
23715,54.3,19.675,0,0.045733,0,23680,70.279,0,0,0,0,0.045153,0
23715,54.3,19.676,0,0.045719,0,23680,70.279,0,0,0,0,0.04473,0
23715,54.3,19.676,0,0.045719,0,23680,70.279,0,0,0,0,0.04473,0
23715,54.3,19.676,0,0.045719,0,23680,70.279,0,0,0,0,0.04473,0
23716,54.3,19.678,0,0.045692,0,23680,70.279,0,0,0,0,0.043905,0
23716,54.3,19.678,0,0.045692,0,23680,70.279,0,0,0,0,0.043905,0
23716,54.3,19.678,0,0.045692,0,23680,70.279,0,0,0,0,0.043905,0
23717,54.3,19.68,0,0.045651,0,23680,70.279,0,0,0,0,0.042718,0
23717,54.3,19.68,0,0.045651,0,23680,70.279,0,0,0,0,0.042718,0
23717,54.3,19.68,0,0.045651,0,23680,70.279,0,0,0,0,0.042718,0
23717,54.3,19.68,0,0.045651,0,23680,70.279,0,0,0,0,0.042718,0
23717,54.3,19.68,0,0.045651,0,23680,70.279,0,0,0,0,0.042718,0
23717,54.3,19.68,0,0.045651,0,23680,70.279,0,0,0,0,0.042718,0
23717,54.3,19.68,0,0.045651,0,23680,70.279,0,0,0,0,0.042718,0
23717,54.3,19.68,0,0.045651,0,23680,70.279,0,0,0,0,0.042718,0
23718,54.3,19.683,0,0.045607,0,23680,70.279,0,0,0,0,0.041588,0
23718,54.3,19.683,0,0.045607,0,23680,70.279,0,0,0,0,0.041588,0
23718,54.3,19.683,0,0.045607,0,23680,70.279,0,0,0,0,0.041588,0
23718,54.3,19.683,0,0.045607,0,23680,70.279,0,0,0,0,0.041588,0
23718,54.3,19.683,0,0.045607,0,23680,70.279,0,0,0,0,0.041588,0
23718,54.3,19.683,0,0.045607,0,23680,70.279,0,0,0,0,0.041588,0
23718,54.3,19.683,0,0.045607,0,23680,70.279,0,0,0,0,0.041588,0
23719,54.3,19.686,0,0.045565,0,23680,70.279,0,0,0,0,0.040511,0
23720,54.3,19.687,0,0.04555,0,23680,70.279,0,0,0,0,0.040163,0
23720,54.3,19.687,0,0.04555,0,23680,70.279,0,0,0,0,0.040163,0
23720,54.3,19.687,0,0.04555,0,23680,70.279,0,0,0,0,0.040163,0
23721,54.3,19.69,0,0.045503,0,23680,70.279,0,0,0,0,0.039151,0
23721,54.3,19.69,0,0.045503,0,23680,70.279,0,0,0,0,0.039151,0
23721,54.3,19.69,0,0.045503,0,23680,70.279,0,0,0,0,0.039151,0
23721,54.3,19.69,0,0.045503,0,23680,70.279,0,0,0,0,0.039151,0
23721,54.3,19.69,0,0.045503,0,23680,70.279,0,0,0,0,0.039151,0
23721,54.3,19.69,0,0.045503,0,23680,70.279,0,0,0,0,0.039151,0
23721,54.3,19.69,0,0.045503,0,23680,70.279,0,0,0,0,0.039151,0
23721,54.3,19.69,0,0.045503,0,23680,70.279,0,0,0,0,0.039151,0
23721,54.3,19.69,0,0.045503,0,23680,70.279,0,0,0,0,0.039151,0
23722,54.3,19.691,0,0.045473,0,23680,70.279,0,0,0,0,0.038503,0
23722,54.3,19.691,0,0.045473,0,23680,70.279,0,0,0,0,0.038503,0
23722,54.3,19.691,0,0.045473,0,23680,70.279,0,0,0,0,0.038503,0
23722,54.3,19.691,0,0.045473,0,23680,70.279,0,0,0,0,0.038503,0
23722,54.3,19.691,0,0.045473,0,23680,70.279,0,0,0,0,0.038503,0
23722,54.3,19.691,0,0.045473,0,23680,70.279,0,0,0,0,0.038503,0
23722,54.3,19.691,0,0.045473,0,23680,70.279,0,0,0,0,0.038503,0
23722,54.3,19.693,0,0.045441,0,23680,70.279,0,0,0,0,0.037874,0
23722,54.3,19.693,0,0.045441,0,23680,70.279,0,0,0,0,0.037874,0
23723,54.3,19.694,0,0.045425,0,23680,70.279,0,0,0,0,0.037566,0
23723,54.3,19.694,0,0.045425,0,23680,70.279,0,0,0,0,0.037566,0
23724,54.3,19.697,0,0.045376,0,23680,70.279,0,0,0,0,0.036671,0
23724,54.3,19.697,0,0.045376,0,23680,70.279,0,0,0,0,0.036671,0
23724,54.3,19.697,0,0.045376,0,23680,70.279,0,0,0,0,0.036671,0
23724,54.3,19.697,0,0.045376,0,23680,70.279,0,0,0,0,0.036671,0
23724,54.3,19.697,0,0.045376,0,23680,70.279,0,0,0,0,0.036671,0
23724,54.3,19.697,0,0.045376,0,23680,70.279,0,0,0,0,0.036671,0
23724,54.3,19.697,0,0.045376,0,23680,70.279,0,0,0,0,0.036671,0
23726,54.3,19.701,0,0.045291,0,23680,70.279,0,0,0,0,0.035264,0
23726,54.3,19.701,0,0.045291,0,23680,70.279,0,0,0,0,0.035264,0
23726,54.3,19.702,0,0.045274,0,23680,70.279,0,0,0,0,0.034995,0
23726,54.3,19.702,0,0.045274,0,23680,70.279,0,0,0,0,0.034995,0
23727,54.3,19.703,0,0.045257,0,23680,70.279,0,0,0,0,0.03473,0
23727,54.3,19.703,0,0.045257,0,23680,70.279,0,0,0,0,0.03473,0
23727,54.3,19.703,0,0.045257,0,23680,70.279,0,0,0,0,0.03473,0
23727,54.3,19.703,0,0.045257,0,23680,70.279,0,0,0,0,0.03473,0
23727,54.3,19.704,0,0.045239,0,23680,70.279,0,0,0,0,0.034468,0
23728,54.3,19.705,0,0.045221,0,23680,70.279,0,0,0,0,0.03421,0
23728,54.3,19.705,0,0.045221,0,23680,70.279,0,0,0,0,0.03421,0
23728,54.3,19.706,0,0.045204,0,23680,70.279,0,0,0,0,0.033955,0
23728,54.3,19.706,0,0.045204,0,23680,70.279,0,0,0,0,0.033955,0
23728,54.3,19.707,0,0.045187,0,23680,70.279,0,0,0,0,0.033705,0
23728,54.3,19.707,0,0.045187,0,23680,70.279,0,0,0,0,0.033705,0
23728,54.3,19.707,0,0.045187,0,23680,70.279,0,0,0,0,0.033705,0
