20.468,-45.568,6.2211,-9.7128,8.6338,-30.566,44.926,-11.85,42.163,-44.831,20.816,-11.258,62.653,-51.703,71.274,-6.6369
20.573,-45.323,6.3091,-9.5261,8.3941,-30.171,44.623,-11.731,42.273,-44.672,20.749,-11.033,62.796,-51.426,71.123,-6.4426
20.573,-45.323,6.3091,-9.5261,8.3941,-30.171,44.623,-11.731,42.273,-44.672,20.749,-11.033,62.796,-51.426,71.123,-6.4426
20.573,-45.323,6.3091,-9.5261,8.3941,-30.171,44.623,-11.731,42.273,-44.672,20.749,-11.033,62.796,-51.426,71.123,-6.4426
20.625,-45.199,6.353,-9.4331,8.2742,-29.972,44.47,-11.673,42.326,-44.591,20.716,-10.921,62.866,-51.286,71.045,-6.3461
20.625,-45.199,6.353,-9.4331,8.2742,-29.972,44.47,-11.673,42.326,-44.591,20.716,-10.921,62.866,-51.286,71.045,-6.3461
20.677,-45.073,6.3968,-9.3402,8.1541,-29.772,44.316,-11.614,42.378,-44.509,20.682,-10.809,62.935,-51.144,70.967,-6.2501
20.677,-45.073,6.3968,-9.3402,8.1541,-29.772,44.316,-11.614,42.378,-44.509,20.682,-10.809,62.935,-51.144,70.967,-6.2501
20.727,-44.946,6.4404,-9.2475,8.034,-29.572,44.161,-11.556,42.429,-44.427,20.649,-10.698,63.003,-51.001,70.887,-6.1544
20.727,-44.946,6.4404,-9.2475,8.034,-29.572,44.161,-11.556,42.429,-44.427,20.649,-10.698,63.003,-51.001,70.887,-6.1544
20.777,-44.818,6.484,-9.155,7.9139,-29.37,44.006,-11.498,42.48,-44.343,20.615,-10.586,63.07,-50.857,70.805,-6.0593
20.777,-44.818,6.484,-9.155,7.9139,-29.37,44.006,-11.498,42.48,-44.343,20.615,-10.586,63.07,-50.857,70.805,-6.0593
20.777,-44.818,6.484,-9.155,7.9139,-29.37,44.006,-11.498,42.48,-44.343,20.615,-10.586,63.07,-50.857,70.805,-6.0593
20.875,-44.558,6.5708,-8.9705,7.6734,-28.965,43.692,-11.384,42.577,-44.173,20.548,-10.364,63.201,-50.564,70.64,-5.8703
20.875,-44.558,6.5708,-8.9705,7.6734,-28.965,43.692,-11.384,42.577,-44.173,20.548,-10.364,63.201,-50.564,70.64,-5.8703
20.875,-44.558,6.5708,-8.9705,7.6734,-28.965,43.692,-11.384,42.577,-44.173,20.548,-10.364,63.201,-50.564,70.64,-5.8703
20.923,-44.426,6.614,-8.8785,7.5531,-28.762,43.534,-11.327,42.624,-44.087,20.514,-10.253,63.264,-50.415,70.555,-5.7765
20.971,-44.293,6.6572,-8.7868,7.4328,-28.557,43.375,-11.27,42.671,-44,20.48,-10.142,63.327,-50.265,70.469,-5.6831
20.971,-44.293,6.6572,-8.7868,7.4328,-28.557,43.375,-11.27,42.671,-44,20.48,-10.142,63.327,-50.265,70.469,-5.6831
21.018,-44.159,6.7002,-8.6952,7.3124,-28.352,43.215,-11.214,42.716,-43.911,20.446,-10.031,63.389,-50.114,70.382,-5.5902
21.018,-44.159,6.7002,-8.6952,7.3124,-28.352,43.215,-11.214,42.716,-43.911,20.446,-10.031,63.389,-50.114,70.382,-5.5902
21.064,-44.023,6.7431,-8.6038,7.192,-28.146,43.054,-11.158,42.76,-43.822,20.412,-9.9212,63.449,-49.961,70.294,-5.4977
21.064,-44.023,6.7431,-8.6038,7.192,-28.146,43.054,-11.158,42.76,-43.822,20.412,-9.9212,63.449,-49.961,70.294,-5.4977
21.064,-44.023,6.7431,-8.6038,7.192,-28.146,43.054,-11.158,42.76,-43.822,20.412,-9.9212,63.449,-49.961,70.294,-5.4977
21.109,-43.886,6.7859,-8.5126,7.0717,-27.94,42.892,-11.103,42.803,-43.732,20.378,-9.8111,63.509,-49.807,70.205,-5.4057
21.109,-43.886,6.7859,-8.5126,7.0717,-27.94,42.892,-11.103,42.803,-43.732,20.378,-9.8111,63.509,-49.807,70.205,-5.4057
21.109,-43.886,6.7859,-8.5126,7.0717,-27.94,42.892,-11.103,42.803,-43.732,20.378,-9.8111,63.509,-49.807,70.205,-5.4057
21.198,-43.609,6.8712,-8.3307,6.8309,-27.524,42.566,-10.993,42.887,-43.549,20.31,-9.5915,63.624,-49.495,70.023,-5.2231
21.198,-43.609,6.8712,-8.3307,6.8309,-27.524,42.566,-10.993,42.887,-43.549,20.31,-9.5915,63.624,-49.495,70.023,-5.2231
21.242,-43.468,6.9137,-8.24,6.7105,-27.315,42.402,-10.938,42.927,-43.456,20.276,-9.482,63.68,-49.337,69.93,-5.1325
21.242,-43.468,6.9137,-8.24,6.7105,-27.315,42.402,-10.938,42.927,-43.456,20.276,-9.482,63.68,-49.337,69.93,-5.1325
21.242,-43.468,6.9137,-8.24,6.7105,-27.315,42.402,-10.938,42.927,-43.456,20.276,-9.482,63.68,-49.337,69.93,-5.1325
21.284,-43.327,6.9561,-8.1495,6.5902,-27.105,42.237,-10.884,42.966,-43.363,20.242,-9.3728,63.735,-49.178,69.835,-5.0424
21.284,-43.327,6.9561,-8.1495,6.5902,-27.105,42.237,-10.884,42.966,-43.363,20.242,-9.3728,63.735,-49.178,69.835,-5.0424
21.326,-43.183,6.9984,-8.0593,6.4698,-26.895,42.071,-10.83,43.004,-43.268,20.207,-9.2637,63.789,-49.017,69.74,-4.9527
21.326,-43.183,6.9984,-8.0593,6.4698,-26.895,42.071,-10.83,43.004,-43.268,20.207,-9.2637,63.789,-49.017,69.74,-4.9527
21.368,-43.039,7.0405,-7.9691,6.3495,-26.684,41.904,-10.776,43.041,-43.172,20.173,-9.1549,63.842,-48.855,69.644,-4.8635
21.368,-43.039,7.0405,-7.9691,6.3495,-26.684,41.904,-10.776,43.041,-43.172,20.173,-9.1549,63.842,-48.855,69.644,-4.8635
21.408,-42.893,7.0826,-7.8792,6.2293,-26.472,41.737,-10.723,43.077,-43.076,20.139,-9.0463,63.894,-48.692,69.546,-4.7747
21.408,-42.893,7.0826,-7.8792,6.2293,-26.472,41.737,-10.723,43.077,-43.076,20.139,-9.0463,63.894,-48.692,69.546,-4.7747
21.448,-42.747,7.1245,-7.7895,6.1091,-26.259,41.568,-10.67,43.112,-42.978,20.104,-8.9379,63.945,-48.527,69.447,-4.6865
21.448,-42.747,7.1245,-7.7895,6.1091,-26.259,41.568,-10.67,43.112,-42.978,20.104,-8.9379,63.945,-48.527,69.447,-4.6865
21.448,-42.747,7.1245,-7.7895,6.1091,-26.259,41.568,-10.67,43.112,-42.978,20.104,-8.9379,63.945,-48.527,69.447,-4.6865
21.526,-42.449,7.208,-7.6105,5.8688,-25.831,41.229,-10.565,43.178,-42.78,20.035,-8.7218,64.043,-48.193,69.245,-4.5114
21.526,-42.449,7.208,-7.6105,5.8688,-25.831,41.229,-10.565,43.178,-42.78,20.035,-8.7218,64.043,-48.193,69.245,-4.5114
21.526,-42.449,7.208,-7.6105,5.8688,-25.831,41.229,-10.565,43.178,-42.78,20.035,-8.7218,64.043,-48.193,69.245,-4.5114
21.564,-42.298,7.2496,-7.5213,5.7487,-25.616,41.059,-10.513,43.209,-42.68,20.001,-8.614,64.09,-48.025,69.143,-4.4245
21.601,-42.146,7.2911,-7.4323,5.6287,-25.401,40.887,-10.461,43.24,-42.578,19.966,-8.5065,64.136,-47.854,69.039,-4.3382
21.601,-42.146,7.2911,-7.4323,5.6287,-25.401,40.887,-10.461,43.24,-42.578,19.966,-8.5065,64.136,-47.854,69.039,-4.3382
21.638,-41.993,7.3325,-7.3434,5.5088,-25.184,40.715,-10.409,43.269,-42.476,19.931,-8.3993,64.181,-47.683,68.934,-4.2523
21.638,-41.993,7.3325,-7.3434,5.5088,-25.184,40.715,-10.409,43.269,-42.476,19.931,-8.3993,64.181,-47.683,68.934,-4.2523
21.673,-41.838,7.3738,-7.2547,5.389,-24.967,40.542,-10.358,43.298,-42.373,19.896,-8.2922,64.225,-47.51,68.828,-4.1668
21.673,-41.838,7.3738,-7.2547,5.389,-24.967,40.542,-10.358,43.298,-42.373,19.896,-8.2922,64.225,-47.51,68.828,-4.1668
21.708,-41.683,7.4149,-7.1662,5.2692,-24.749,40.368,-10.307,43.325,-42.268,19.862,-8.1854,64.268,-47.336,68.72,-4.0819
21.708,-41.683,7.4149,-7.1662,5.2692,-24.749,40.368,-10.307,43.325,-42.268,19.862,-8.1854,64.268,-47.336,68.72,-4.0819
21.708,-41.683,7.4149,-7.1662,5.2692,-24.749,40.368,-10.307,43.325,-42.268,19.862,-8.1854,64.268,-47.336,68.72,-4.0819
21.743,-41.525,7.4559,-7.0779,5.1495,-24.531,40.194,-10.257,43.351,-42.163,19.827,-8.0788,64.31,-47.16,68.612,-3.9974
21.776,-41.367,7.4969,-6.9897,5.03,-24.311,40.018,-10.207,43.376,-42.057,19.792,-7.9725,64.35,-46.983,68.502,-3.9134
21.776,-41.367,7.4969,-6.9897,5.03,-24.311,40.018,-10.207,43.376,-42.057,19.792,-7.9725,64.35,-46.983,68.502,-3.9134
21.776,-41.367,7.4969,-6.9897,5.03,-24.311,40.018,-10.207,43.376,-42.057,19.792,-7.9725,64.35,-46.983,68.502,-3.9134
21.809,-41.207,7.5377,-6.9017,4.9105,-24.091,39.842,-10.157,43.399,-41.95,19.756,-7.8663,64.39,-46.805,68.39,-3.8299
21.809,-41.207,7.5377,-6.9017,4.9105,-24.091,39.842,-10.157,43.399,-41.95,19.756,-7.8663,64.39,-46.805,68.39,-3.8299
21.809,-41.207,7.5377,-6.9017,4.9105,-24.091,39.842,-10.157,43.399,-41.95,19.756,-7.8663,64.39,-46.805,68.39,-3.8299
21.872,-40.884,7.6189,-6.7261,4.6719,-23.649,39.488,-10.058,43.444,-41.732,19.686,-7.6548,64.465,-46.444,68.164,-3.6643
21.872,-40.884,7.6189,-6.7261,4.6719,-23.649,39.488,-10.058,43.444,-41.732,19.686,-7.6548,64.465,-46.444,68.164,-3.6643
21.903,-40.721,7.6594,-6.6386,4.5528,-23.427,39.31,-10.009,43.464,-41.622,19.651,-7.5493,64.5,-46.262,68.05,-3.5823
21.903,-40.721,7.6594,-6.6386,4.5528,-23.427,39.31,-10.009,43.464,-41.622,19.651,-7.5493,64.5,-46.262,68.05,-3.5823
21.933,-40.556,7.6997,-6.5513,4.4338,-23.204,39.131,-9.9598,43.483,-41.511,19.615,-7.4441,64.535,-46.078,67.933,-3.5006
21.962,-40.39,7.7399,-6.464,4.315,-22.98,38.952,-9.9113,43.501,-41.399,19.58,-7.3391,64.568,-45.893,67.816,-3.4195
21.962,-40.39,7.7399,-6.464,4.315,-22.98,38.952,-9.9113,43.501,-41.399,19.58,-7.3391,64.568,-45.893,67.816,-3.4195
21.962,-40.39,7.7399,-6.464,4.315,-22.98,38.952,-9.9113,43.501,-41.399,19.58,-7.3391,64.568,-45.893,67.816,-3.4195
21.99,-40.222,7.78,-6.377,4.1962,-22.756,38.771,-9.8631,43.518,-41.286,19.545,-7.2344,64.601,-45.707,67.697,-3.3389
21.99,-40.222,7.78,-6.377,4.1962,-22.756,38.771,-9.8631,43.518,-41.286,19.545,-7.2344,64.601,-45.707,67.697,-3.3389
22.018,-40.053,7.82,-6.2901,4.0777,-22.531,38.59,-9.8151,43.534,-41.172,19.509,-7.1299,64.632,-45.519,67.578,-3.2587
22.018,-40.053,7.82,-6.2901,4.0777,-22.531,38.59,-9.8151,43.534,-41.172,19.509,-7.1299,64.632,-45.519,67.578,-3.2587
22.044,-39.883,7.8599,-6.2033,3.9592,-22.305,38.409,-9.7674,43.549,-41.057,19.473,-7.0256,64.661,-45.33,67.456,-3.179
22.044,-39.883,7.8599,-6.2033,3.9592,-22.305,38.409,-9.7674,43.549,-41.057,19.473,-7.0256,64.661,-45.33,67.456,-3.179
22.071,-39.712,7.8997,-6.1167,3.841,-22.079,38.226,-9.72,43.562,-40.941,19.437,-6.9216,64.69,-45.14,67.334,-3.0997
22.071,-39.712,7.8997,-6.1167,3.841,-22.079,38.226,-9.72,43.562,-40.941,19.437,-6.9216,64.69,-45.14,67.334,-3.0997
22.096,-39.539,7.9393,-6.0302,3.7228,-21.851,38.043,-9.6729,43.575,-40.824,19.402,-6.8177,64.717,-44.948,67.21,-3.021
22.12,-39.365,7.9788,-5.9439,3.6049,-21.624,37.859,-9.626,43.586,-40.706,19.366,-6.7141,64.743,-44.755,67.085,-2.9427
22.12,-39.365,7.9788,-5.9439,3.6049,-21.624,37.859,-9.626,43.586,-40.706,19.366,-6.7141,64.743,-44.755,67.085,-2.9427
22.12,-39.365,7.9788,-5.9439,3.6049,-21.624,37.859,-9.626,43.586,-40.706,19.366,-6.7141,64.743,-44.755,67.085,-2.9427
22.144,-39.19,8.0182,-5.8577,3.4871,-21.395,37.675,-9.5794,43.596,-40.587,19.33,-6.6108,64.768,-44.561,66.959,-2.8649
22.144,-39.19,8.0182,-5.8577,3.4871,-21.395,37.675,-9.5794,43.596,-40.587,19.33,-6.6108,64.768,-44.561,66.959,-2.8649
22.144,-39.19,8.0182,-5.8577,3.4871,-21.395,37.675,-9.5794,43.596,-40.587,19.33,-6.6108,64.768,-44.561,66.959,-2.8649
22.167,-39.013,8.0575,-5.7716,3.3695,-21.166,37.49,-9.533,43.604,-40.467,19.294,-6.5076,64.792,-44.365,66.832,-2.7875
22.189,-38.836,8.0967,-5.6857,3.252,-20.936,37.304,-9.4869,43.612,-40.346,19.257,-6.4047,64.814,-44.168,66.703,-2.7106
22.211,-38.656,8.1357,-5.5999,3.1348,-20.705,37.118,-9.441,43.618,-40.224,19.221,-6.3021,64.836,-43.97,66.573,-2.6342
22.211,-38.656,8.1357,-5.5999,3.1348,-20.705,37.118,-9.441,43.618,-40.224,19.221,-6.3021,64.836,-43.97,66.573,-2.6342
22.211,-38.656,8.1357,-5.5999,3.1348,-20.705,37.118,-9.441,43.618,-40.224,19.221,-6.3021,64.836,-43.97,66.573,-2.6342
22.231,-38.476,8.1746,-5.5142,3.0177,-20.474,36.931,-9.3953,43.624,-40.101,19.185,-6.1996,64.856,-43.77,66.442,-2.5582
22.231,-38.476,8.1746,-5.5142,3.0177,-20.474,36.931,-9.3953,43.624,-40.101,19.185,-6.1996,64.856,-43.77,66.442,-2.5582
22.251,-38.294,8.2135,-5.4287,2.9008,-20.242,36.743,-9.3499,43.628,-39.977,19.148,-6.0974,64.874,-43.569,66.309,-2.4827
22.251,-38.294,8.2135,-5.4287,2.9008,-20.242,36.743,-9.3499,43.628,-39.977,19.148,-6.0974,64.874,-43.569,66.309,-2.4827
22.251,-38.294,8.2135,-5.4287,2.9008,-20.242,36.743,-9.3499,43.628,-39.977,19.148,-6.0974,64.874,-43.569,66.309,-2.4827
22.27,-38.111,8.2521,-5.3432,2.7841,-20.009,36.555,-9.3047,43.63,-39.852,19.112,-5.9954,64.892,-43.366,66.175,-2.4077
22.289,-37.926,8.2907,-5.2579,2.6676,-19.775,36.366,-9.2597,43.632,-39.726,19.075,-5.8936,64.908,-43.163,66.04,-2.3331
22.306,-37.74,8.3291,-5.1726,2.5514,-19.541,36.176,-9.215,43.632,-39.599,19.038,-5.7921,64.923,-42.957,65.904,-2.259
22.306,-37.74,8.3291,-5.1726,2.5514,-19.541,36.176,-9.215,43.632,-39.599,19.038,-5.7921,64.923,-42.957,65.904,-2.259
22.306,-37.74,8.3291,-5.1726,2.5514,-19.541,36.176,-9.215,43.632,-39.599,19.038,-5.7921,64.923,-42.957,65.904,-2.259
22.323,-37.553,8.3675,-5.0875,2.4353,-19.307,35.986,-9.1705,43.631,-39.47,19.001,-5.6907,64.936,-42.751,65.766,-2.1854
22.323,-37.553,8.3675,-5.0875,2.4353,-19.307,35.986,-9.1705,43.631,-39.47,19.001,-5.6907,64.936,-42.751,65.766,-2.1854
22.339,-37.365,8.4057,-5.0025,2.3195,-19.071,35.796,-9.1261,43.629,-39.341,18.964,-5.5896,64.949,-42.543,65.627,-2.1122
22.339,-37.365,8.4057,-5.0025,2.3195,-19.071,35.796,-9.1261,43.629,-39.341,18.964,-5.5896,64.949,-42.543,65.627,-2.1122
22.354,-37.175,8.4438,-4.9176,2.2038,-18.835,35.604,-9.082,43.626,-39.211,18.927,-5.4887,64.96,-42.334,65.486,-2.0394
22.368,-36.984,8.4817,-4.8328,2.0884,-18.598,35.412,-9.0381,43.621,-39.08,18.89,-5.388,64.969,-42.124,65.345,-1.9671
22.368,-36.984,8.4817,-4.8328,2.0884,-18.598,35.412,-9.0381,43.621,-39.08,18.89,-5.388,64.969,-42.124,65.345,-1.9671
22.368,-36.984,8.4817,-4.8328,2.0884,-18.598,35.412,-9.0381,43.621,-39.08,18.89,-5.388,64.969,-42.124,65.345,-1.9671
22.382,-36.791,8.5196,-4.748,1.9732,-18.36,35.22,-8.9944,43.616,-38.948,18.852,-5.2876,64.978,-41.912,65.202,-1.8952
22.382,-36.791,8.5196,-4.748,1.9732,-18.36,35.22,-8.9944,43.616,-38.948,18.852,-5.2876,64.978,-41.912,65.202,-1.8952
22.394,-36.598,8.5573,-4.6634,1.8583,-18.122,35.027,-8.9508,43.609,-38.815,18.815,-5.1873,64.985,-41.699,65.057,-1.8238
22.394,-36.598,8.5573,-4.6634,1.8583,-18.122,35.027,-8.9508,43.609,-38.815,18.815,-5.1873,64.985,-41.699,65.057,-1.8238
22.394,-36.598,8.5573,-4.6634,1.8583,-18.122,35.027,-8.9508,43.609,-38.815,18.815,-5.1873,64.985,-41.699,65.057,-1.8238
22.406,-36.403,8.5949,-4.5788,1.7436,-17.883,34.833,-8.9074,43.6,-38.68,18.777,-5.0873,64.99,-41.484,64.912,-1.7529
22.406,-36.403,8.5949,-4.5788,1.7436,-17.883,34.833,-8.9074,43.6,-38.68,18.777,-5.0873,64.99,-41.484,64.912,-1.7529
22.417,-36.206,8.6323,-4.4943,1.6291,-17.644,34.639,-8.8642,43.591,-38.545,18.739,-4.9874,64.995,-41.269,64.765,-1.6823
22.428,-36.008,8.6697,-4.4099,1.5149,-17.404,34.444,-8.8212,43.58,-38.409,18.702,-4.8878,64.998,-41.052,64.616,-1.6122
22.428,-36.008,8.6697,-4.4099,1.5149,-17.404,34.444,-8.8212,43.58,-38.409,18.702,-4.8878,64.998,-41.052,64.616,-1.6122
22.437,-35.809,8.7069,-4.3256,1.4009,-17.163,34.248,-8.7783,43.568,-38.272,18.664,-4.7884,65,-40.833,64.467,-1.5426
22.437,-35.809,8.7069,-4.3256,1.4009,-17.163,34.248,-8.7783,43.568,-38.272,18.664,-4.7884,65,-40.833,64.467,-1.5426
22.446,-35.609,8.744,-4.2413,1.2872,-16.921,34.052,-8.7356,43.555,-38.133,18.625,-4.6892,65,-40.614,64.316,-1.4733
22.446,-35.609,8.744,-4.2413,1.2872,-16.921,34.052,-8.7356,43.555,-38.133,18.625,-4.6892,65,-40.614,64.316,-1.4733
22.454,-35.407,8.781,-4.1571,1.1737,-16.679,33.856,-8.6931,43.541,-37.994,18.587,-4.5902,64.999,-40.393,64.163,-1.4045
22.454,-35.407,8.781,-4.1571,1.1737,-16.679,33.856,-8.6931,43.541,-37.994,18.587,-4.5902,64.999,-40.393,64.163,-1.4045
22.454,-35.407,8.781,-4.1571,1.1737,-16.679,33.856,-8.6931,43.541,-37.994,18.587,-4.5902,64.999,-40.393,64.163,-1.4045
22.461,-35.204,8.8178,-4.0729,1.0605,-16.436,33.659,-8.6506,43.525,-37.854,18.549,-4.4914,64.997,-40.17,64.01,-1.3362
22.467,-34.999,8.8545,-3.9888,0.94756,-16.192,33.461,-8.6084,43.508,-37.712,18.51,-4.3928,64.993,-39.947,63.855,-1.2682
22.467,-34.999,8.8545,-3.9888,0.94756,-16.192,33.461,-8.6084,43.508,-37.712,18.51,-4.3928,64.993,-39.947,63.855,-1.2682
22.473,-34.794,8.8911,-3.9047,0.83488,-15.948,33.263,-8.5662,43.49,-37.57,18.471,-4.2944,64.988,-39.722,63.698,-1.2007
22.473,-34.794,8.8911,-3.9047,0.83488,-15.948,33.263,-8.5662,43.49,-37.57,18.471,-4.2944,64.988,-39.722,63.698,-1.2007
22.477,-34.587,8.9276,-3.8207,0.72247,-15.703,33.064,-8.5242,43.47,-37.426,18.433,-4.1962,64.982,-39.496,63.541,-1.1336
22.477,-34.587,8.9276,-3.8207,0.72247,-15.703,33.064,-8.5242,43.47,-37.426,18.433,-4.1962,64.982,-39.496,63.541,-1.1336
22.481,-34.378,8.9639,-3.7367,0.61033,-15.458,32.865,-8.4823,43.45,-37.282,18.393,-4.0982,64.974,-39.268,63.382,-1.0668
22.481,-34.378,8.9639,-3.7367,0.61033,-15.458,32.865,-8.4823,43.45,-37.282,18.393,-4.0982,64.974,-39.268,63.382,-1.0668
22.481,-34.378,8.9639,-3.7367,0.61033,-15.458,32.865,-8.4823,43.45,-37.282,18.393,-4.0982,64.974,-39.268,63.382,-1.0668
22.484,-34.168,9.0002,-3.6528,0.49848,-15.212,32.665,-8.4405,43.428,-37.136,18.354,-4.0003,64.965,-39.039,63.221,-1.0006
22.484,-34.168,9.0002,-3.6528,0.49848,-15.212,32.665,-8.4405,43.428,-37.136,18.354,-4.0003,64.965,-39.039,63.221,-1.0006
22.487,-33.745,9.0722,-3.4849,0.27561,-14.717,32.264,-8.3571,43.38,-36.842,18.275,-3.8052,64.942,-38.578,62.896,-0.86919
22.487,-33.745,9.0722,-3.4849,0.27561,-14.717,32.264,-8.3571,43.38,-36.842,18.275,-3.8052,64.942,-38.578,62.896,-0.86919
22.487,-33.745,9.0722,-3.4849,0.27561,-14.717,32.264,-8.3571,43.38,-36.842,18.275,-3.8052,64.942,-38.578,62.896,-0.86919
22.488,-33.531,9.1081,-3.4011,0.1646,-14.469,32.063,-8.3156,43.354,-36.693,18.236,-3.7079,64.929,-38.345,62.732,-0.80411
22.488,-33.531,9.1081,-3.4011,0.1646,-14.469,32.063,-8.3156,43.354,-36.693,18.236,-3.7079,64.929,-38.345,62.732,-0.80411
22.488,-33.316,9.1438,-3.3172,0.053889,-14.22,31.861,-8.2742,43.327,-36.543,18.196,-3.6108,64.914,-38.111,62.566,-0.73942
22.488,-33.316,9.1438,-3.3172,0.053889,-14.22,31.861,-8.2742,43.327,-36.543,18.196,-3.6108,64.914,-38.111,62.566,-0.73942
22.487,-33.099,9.1793,-3.2333,-0.056531,-13.971,31.659,-8.2328,43.298,-36.392,18.156,-3.5139,64.898,-37.876,62.399,-0.67513
22.487,-33.099,9.1793,-3.2333,-0.056531,-13.971,31.659,-8.2328,43.298,-36.392,18.156,-3.5139,64.898,-37.876,62.399,-0.67513
22.485,-32.881,9.2148,-3.1495,-0.16665,-13.721,31.456,-8.1915,43.269,-36.24,18.116,-3.4172,64.88,-37.639,62.23,-0.61123
22.485,-32.881,9.2148,-3.1495,-0.16665,-13.721,31.456,-8.1915,43.269,-36.24,18.116,-3.4172,64.88,-37.639,62.23,-0.61123
22.482,-32.662,9.2501,-3.0656,-0.27648,-13.47,31.253,-8.1502,43.238,-36.087,18.075,-3.3206,64.861,-37.401,62.06,-0.54771
22.482,-32.662,9.2501,-3.0656,-0.27648,-13.47,31.253,-8.1502,43.238,-36.087,18.075,-3.3206,64.861,-37.401,62.06,-0.54771
22.478,-32.441,9.2853,-2.9817,-0.386,-13.219,31.049,-8.109,43.205,-35.933,18.035,-3.2242,64.841,-37.162,61.889,-0.48457
22.478,-32.441,9.2853,-2.9817,-0.386,-13.219,31.049,-8.109,43.205,-35.933,18.035,-3.2242,64.841,-37.162,61.889,-0.48457
22.474,-32.219,9.3204,-2.8978,-0.49521,-12.967,30.845,-8.0679,43.172,-35.778,17.994,-3.1279,64.819,-36.922,61.716,-0.42182
22.474,-32.219,9.3204,-2.8978,-0.49521,-12.967,30.845,-8.0679,43.172,-35.778,17.994,-3.1279,64.819,-36.922,61.716,-0.42182
22.469,-31.996,9.3553,-2.8139,-0.60411,-12.714,30.641,-8.0268,43.137,-35.622,17.953,-3.0319,64.795,-36.68,61.542,-0.35943
22.469,-31.996,9.3553,-2.8139,-0.60411,-12.714,30.641,-8.0268,43.137,-35.622,17.953,-3.0319,64.795,-36.68,61.542,-0.35943
22.462,-31.772,9.3901,-2.73,-0.71271,-12.461,30.435,-7.9857,43.101,-35.465,17.912,-2.9359,64.77,-36.437,61.366,-0.29742
22.462,-31.772,9.3901,-2.73,-0.71271,-12.461,30.435,-7.9857,43.101,-35.465,17.912,-2.9359,64.77,-36.437,61.366,-0.29742
22.456,-31.546,9.4248,-2.6461,-0.82098,-12.207,30.23,-7.9446,43.064,-35.307,17.871,-2.8402,64.744,-36.193,61.189,-0.23577
22.456,-31.546,9.4248,-2.6461,-0.82098,-12.207,30.23,-7.9446,43.064,-35.307,17.871,-2.8402,64.744,-36.193,61.189,-0.23577
22.456,-31.546,9.4248,-2.6461,-0.82098,-12.207,30.23,-7.9446,43.064,-35.307,17.871,-2.8402,64.744,-36.193,61.189,-0.23577
22.448,-31.318,9.4593,-2.5621,-0.92894,-11.952,30.024,-7.9035,43.025,-35.148,17.829,-2.7446,64.716,-35.948,61.011,-0.17449
22.439,-31.09,9.4937,-2.4781,-1.0366,-11.697,29.817,-7.8625,42.985,-34.988,17.787,-2.6491,64.687,-35.701,60.831,-0.11356
22.439,-31.09,9.4937,-2.4781,-1.0366,-11.697,29.817,-7.8625,42.985,-34.988,17.787,-2.6491,64.687,-35.701,60.831,-0.11356
22.439,-31.09,9.4937,-2.4781,-1.0366,-11.697,29.817,-7.8625,42.985,-34.988,17.787,-2.6491,64.687,-35.701,60.831,-0.11356
22.43,-30.86,9.528,-2.394,-1.1439,-11.441,29.61,-7.8214,42.944,-34.826,17.745,-2.5538,64.656,-35.453,60.65,-0.052987
22.42,-30.629,9.5621,-2.3099,-1.2509,-11.184,29.403,-7.7803,42.901,-34.664,17.703,-2.4586,64.624,-35.204,60.467,0.0072368
22.42,-30.629,9.5621,-2.3099,-1.2509,-11.184,29.403,-7.7803,42.901,-34.664,17.703,-2.4586,64.624,-35.204,60.467,0.0072368
22.409,-30.396,9.5961,-2.2257,-1.3576,-10.927,29.195,-7.7392,42.857,-34.5,17.661,-2.3636,64.59,-34.953,60.283,0.067116
22.409,-30.396,9.5961,-2.2257,-1.3576,-10.927,29.195,-7.7392,42.857,-34.5,17.661,-2.3636,64.59,-34.953,60.283,0.067116
22.397,-30.162,9.63,-2.1415,-1.4639,-10.67,28.987,-7.6981,42.812,-34.336,17.618,-2.2687,64.555,-34.701,60.098,0.12665
22.397,-30.162,9.63,-2.1415,-1.4639,-10.67,28.987,-7.6981,42.812,-34.336,17.618,-2.2687,64.555,-34.701,60.098,0.12665
22.384,-29.927,9.6637,-2.0572,-1.5699,-10.411,28.778,-7.6569,42.765,-34.17,17.576,-2.174,64.518,-34.448,59.911,0.18586
22.384,-29.927,9.6637,-2.0572,-1.5699,-10.411,28.778,-7.6569,42.765,-34.17,17.576,-2.174,64.518,-34.448,59.911,0.18586
22.37,-29.69,9.6973,-1.9728,-1.6756,-10.152,28.569,-7.6157,42.718,-34.004,17.533,-2.0793,64.48,-34.194,59.723,0.24473
22.37,-29.69,9.6973,-1.9728,-1.6756,-10.152,28.569,-7.6157,42.718,-34.004,17.533,-2.0793,64.48,-34.194,59.723,0.24473
22.356,-29.452,9.7308,-1.8883,-1.7809,-9.8927,28.36,-7.5744,42.669,-33.836,17.489,-1.9848,64.44,-33.939,59.533,0.30327
22.341,-29.212,9.7641,-1.8038,-1.8859,-9.6325,28.15,-7.5331,42.618,-33.667,17.446,-1.8905,64.399,-33.682,59.342,0.36149
22.341,-29.212,9.7641,-1.8038,-1.8859,-9.6325,28.15,-7.5331,42.618,-33.667,17.446,-1.8905,64.399,-33.682,59.342,0.36149
22.341,-29.212,9.7641,-1.8038,-1.8859,-9.6325,28.15,-7.5331,42.618,-33.667,17.446,-1.8905,64.399,-33.682,59.342,0.36149
22.325,-28.972,9.7973,-1.7192,-1.9905,-9.3717,27.94,-7.4917,42.566,-33.497,17.402,-1.7962,64.356,-33.424,59.15,0.41939
22.325,-28.972,9.7973,-1.7192,-1.9905,-9.3717,27.94,-7.4917,42.566,-33.497,17.402,-1.7962,64.356,-33.424,59.15,0.41939
22.308,-28.73,9.8304,-1.6345,-2.0948,-9.1102,27.729,-7.4502,42.513,-33.327,17.358,-1.7021,64.311,-33.165,58.956,0.47697
22.308,-28.73,9.8304,-1.6345,-2.0948,-9.1102,27.729,-7.4502,42.513,-33.327,17.358,-1.7021,64.311,-33.165,58.956,0.47697
22.29,-28.486,9.8633,-1.5496,-2.1988,-8.8482,27.518,-7.4086,42.459,-33.155,17.314,-1.608,64.265,-32.905,58.761,0.53425
22.29,-28.486,9.8633,-1.5496,-2.1988,-8.8482,27.518,-7.4086,42.459,-33.155,17.314,-1.608,64.265,-32.905,58.761,0.53425
22.272,-28.242,9.896,-1.4647,-2.3024,-8.5855,27.306,-7.3669,42.404,-32.982,17.269,-1.5141,64.218,-32.643,58.564,0.59122
22.272,-28.242,9.896,-1.4647,-2.3024,-8.5855,27.306,-7.3669,42.404,-32.982,17.269,-1.5141,64.218,-32.643,58.564,0.59122
22.252,-27.996,9.9287,-1.3797,-2.4057,-8.3223,27.095,-7.3251,42.347,-32.808,17.225,-1.4203,64.169,-32.38,58.366,0.6479
22.252,-27.996,9.9287,-1.3797,-2.4057,-8.3223,27.095,-7.3251,42.347,-32.808,17.225,-1.4203,64.169,-32.38,58.366,0.6479
22.232,-27.748,9.9612,-1.2945,-2.5086,-8.0584,26.882,-7.2832,42.288,-32.633,17.18,-1.3266,64.118,-32.116,58.166,0.70428
22.232,-27.748,9.9612,-1.2945,-2.5086,-8.0584,26.882,-7.2832,42.288,-32.633,17.18,-1.3266,64.118,-32.116,58.166,0.70428
22.211,-27.499,9.9935,-1.2093,-2.6111,-7.7939,26.67,-7.2412,42.229,-32.456,17.135,-1.233,64.066,-31.851,57.965,0.76036
22.211,-27.499,9.9935,-1.2093,-2.6111,-7.7939,26.67,-7.2412,42.229,-32.456,17.135,-1.233,64.066,-31.851,57.965,0.76036
22.189,-27.249,10.026,-1.1239,-2.7133,-7.5289,26.457,-7.199,42.168,-32.279,17.089,-1.1395,64.012,-31.585,57.762,0.81617
22.189,-27.249,10.026,-1.1239,-2.7133,-7.5289,26.457,-7.199,42.168,-32.279,17.089,-1.1395,64.012,-31.585,57.762,0.81617
22.166,-26.998,10.058,-1.0383,-2.8152,-7.2632,26.243,-7.1567,42.106,-32.101,17.043,-1.0461,63.957,-31.317,57.558,0.87169
22.166,-26.998,10.058,-1.0383,-2.8152,-7.2632,26.243,-7.1567,42.106,-32.101,17.043,-1.0461,63.957,-31.317,57.558,0.87169
22.166,-26.998,10.058,-1.0383,-2.8152,-7.2632,26.243,-7.1567,42.106,-32.101,17.043,-1.0461,63.957,-31.317,57.558,0.87169
22.143,-26.745,10.09,-0.95264,-2.9167,-6.9969,26.03,-7.1143,42.042,-31.922,16.997,-0.95276,63.9,-31.049,57.353,0.92694
22.143,-26.745,10.09,-0.95264,-2.9167,-6.9969,26.03,-7.1143,42.042,-31.922,16.997,-0.95276,63.9,-31.049,57.353,0.92694
22.093,-26.236,10.153,-0.78084,-3.1186,-6.4626,25.601,-7.0289,41.912,-31.56,16.905,-0.76635,63.781,-30.508,56.938,1.0366
22.093,-26.236,10.153,-0.78084,-3.1186,-6.4626,25.601,-7.0289,41.912,-31.56,16.905,-0.76635,63.781,-30.508,56.938,1.0366
22.093,-26.236,10.153,-0.78084,-3.1186,-6.4626,25.601,-7.0289,41.912,-31.56,16.905,-0.76635,63.781,-30.508,56.938,1.0366
22.067,-25.979,10.185,-0.69471,-3.219,-6.1946,25.386,-6.9859,41.844,-31.378,16.858,-0.67326,63.72,-30.235,56.728,1.0911
22.067,-25.979,10.185,-0.69471,-3.219,-6.1946,25.386,-6.9859,41.844,-31.378,16.858,-0.67326,63.72,-30.235,56.728,1.0911
22.04,-25.721,10.216,-0.60842,-3.319,-5.926,25.171,-6.9427,41.776,-31.194,16.811,-0.58025,63.656,-29.962,56.517,1.1453
22.04,-25.721,10.216,-0.60842,-3.319,-5.926,25.171,-6.9427,41.776,-31.194,16.811,-0.58025,63.656,-29.962,56.517,1.1453
22.013,-25.462,10.247,-0.52195,-3.4187,-5.6568,24.956,-6.8994,41.706,-31.009,16.763,-0.4873,63.591,-29.687,56.304,1.1992
22.013,-25.462,10.247,-0.52195,-3.4187,-5.6568,24.956,-6.8994,41.706,-31.009,16.763,-0.4873,63.591,-29.687,56.304,1.1992
21.984,-25.201,10.278,-0.43532,-3.518,-5.387,24.74,-6.8558,41.634,-30.824,16.716,-0.39442,63.525,-29.412,56.09,1.2529
21.984,-25.201,10.278,-0.43532,-3.518,-5.387,24.74,-6.8558,41.634,-30.824,16.716,-0.39442,63.525,-29.412,56.09,1.2529
21.955,-24.939,10.309,-0.3485,-3.6169,-5.1166,24.524,-6.8121,41.562,-30.637,16.668,-0.3016,63.457,-29.135,55.874,1.3064
21.955,-24.939,10.309,-0.3485,-3.6169,-5.1166,24.524,-6.8121,41.562,-30.637,16.668,-0.3016,63.457,-29.135,55.874,1.3064
21.955,-24.939,10.309,-0.3485,-3.6169,-5.1166,24.524,-6.8121,41.562,-30.637,16.668,-0.3016,63.457,-29.135,55.874,1.3064
21.925,-24.676,10.34,-0.2615,-3.7155,-4.8457,24.307,-6.7681,41.488,-30.449,16.619,-0.20884,63.387,-28.857,55.657,1.3596
21.925,-24.676,10.34,-0.2615,-3.7155,-4.8457,24.307,-6.7681,41.488,-30.449,16.619,-0.20884,63.387,-28.857,55.657,1.3596
21.925,-24.676,10.34,-0.2615,-3.7155,-4.8457,24.307,-6.7681,41.488,-30.449,16.619,-0.20884,63.387,-28.857,55.657,1.3596
21.925,-24.676,10.34,-0.2615,-3.7155,-4.8457,24.307,-6.7681,41.488,-30.449,16.619,-0.20884,63.387,-28.857,55.657,1.3596
21.862,-24.145,10.401,-0.086927,-3.9115,-4.3021,23.873,-6.6794,41.336,-30.071,16.522,-0.023471,63.242,-28.297,55.219,1.4653
21.862,-24.145,10.401,-0.086927,-3.9115,-4.3021,23.873,-6.6794,41.336,-30.071,16.522,-0.023471,63.242,-28.297,55.219,1.4653
21.83,-23.878,10.431,0.00066218,-4.0089,-4.0295,23.656,-6.6347,41.258,-29.88,16.472,0.069141,63.167,-28.016,54.997,1.5179
21.83,-23.878,10.431,0.00066218,-4.0089,-4.0295,23.656,-6.6347,41.258,-29.88,16.472,0.069141,63.167,-28.016,54.997,1.5179
21.796,-23.61,10.461,0.088458,-4.106,-3.7563,23.438,-6.5897,41.179,-29.688,16.423,0.16171,63.091,-27.733,54.774,1.5702
21.796,-23.61,10.461,0.088458,-4.106,-3.7563,23.438,-6.5897,41.179,-29.688,16.423,0.16171,63.091,-27.733,54.774,1.5702
21.762,-23.34,10.491,0.17647,-4.2027,-3.4825,23.22,-6.5444,41.099,-29.495,16.373,0.25424,63.013,-27.45,54.55,1.6223
21.727,-23.069,10.521,0.26469,-4.299,-3.2082,23.002,-6.4989,41.017,-29.301,16.323,0.34674,62.933,-27.165,54.324,1.6742
21.727,-23.069,10.521,0.26469,-4.299,-3.2082,23.002,-6.4989,41.017,-29.301,16.323,0.34674,62.933,-27.165,54.324,1.6742
21.691,-22.796,10.551,0.35315,-4.3949,-2.9333,22.783,-6.4531,40.934,-29.106,16.272,0.43921,62.852,-26.879,54.097,1.726
21.691,-22.796,10.551,0.35315,-4.3949,-2.9333,22.783,-6.4531,40.934,-29.106,16.272,0.43921,62.852,-26.879,54.097,1.726
21.654,-22.523,10.58,0.44183,-4.4905,-2.6579,22.564,-6.407,40.85,-28.91,16.222,0.53165,62.769,-26.592,53.868,1.7775
21.654,-22.523,10.58,0.44183,-4.4905,-2.6579,22.564,-6.407,40.85,-28.91,16.222,0.53165,62.769,-26.592,53.868,1.7775
21.654,-22.523,10.58,0.44183,-4.4905,-2.6579,22.564,-6.407,40.85,-28.91,16.222,0.53165,62.769,-26.592,53.868,1.7775
21.617,-22.248,10.61,0.53074,-4.5856,-2.3819,22.345,-6.3606,40.764,-28.713,16.17,0.62406,62.684,-26.304,53.638,1.8288
21.617,-22.248,10.61,0.53074,-4.5856,-2.3819,22.345,-6.3606,40.764,-28.713,16.17,0.62406,62.684,-26.304,53.638,1.8288
21.579,-21.971,10.639,0.6199,-4.6804,-2.1054,22.125,-6.3139,40.678,-28.515,16.119,0.71646,62.597,-26.015,53.406,1.88
21.54,-21.694,10.668,0.7093,-4.7748,-1.8283,21.905,-6.2668,40.589,-28.316,16.067,0.80884,62.509,-25.725,53.173,1.9309
21.54,-21.694,10.668,0.7093,-4.7748,-1.8283,21.905,-6.2668,40.589,-28.316,16.067,0.80884,62.509,-25.725,53.173,1.9309
21.5,-21.415,10.697,0.79895,-4.8689,-1.5507,21.685,-6.2194,40.5,-28.115,16.015,0.90121,62.419,-25.433,52.938,1.9817
21.5,-21.415,10.697,0.79895,-4.8689,-1.5507,21.685,-6.2194,40.5,-28.115,16.015,0.90121,62.419,-25.433,52.938,1.9817
21.5,-21.415,10.697,0.79895,-4.8689,-1.5507,21.685,-6.2194,40.5,-28.115,16.015,0.90121,62.419,-25.433,52.938,1.9817
21.5,-21.415,10.697,0.79895,-4.8689,-1.5507,21.685,-6.2194,40.5,-28.115,16.015,0.90121,62.419,-25.433,52.938,1.9817
21.417,-20.853,10.754,0.97903,-5.0558,-0.99393,21.244,-6.1236,40.317,-27.712,15.91,1.0859,62.235,-24.848,52.464,2.0828
21.417,-20.853,10.754,0.97903,-5.0558,-0.99393,21.244,-6.1236,40.317,-27.712,15.91,1.0859,62.235,-24.848,52.464,2.0828
21.417,-20.853,10.754,0.97903,-5.0558,-0.99393,21.244,-6.1236,40.317,-27.712,15.91,1.0859,62.235,-24.848,52.464,2.0828
21.375,-20.57,10.783,1.0695,-5.1486,-0.71474,21.023,-6.0752,40.224,-27.509,15.856,1.1783,62.14,-24.553,52.225,2.1331
21.332,-20.286,10.811,1.1602,-5.2411,-0.43503,20.802,-6.0264,40.129,-27.304,15.803,1.2707,62.043,-24.258,51.985,2.1833
21.332,-20.286,10.811,1.1602,-5.2411,-0.43503,20.802,-6.0264,40.129,-27.304,15.803,1.2707,62.043,-24.258,51.985,2.1833
21.288,-20.001,10.839,1.2512,-5.3332,-0.15479,20.58,-5.9772,40.033,-27.099,15.749,1.363,61.945,-23.961,51.742,2.2333
21.243,-19.715,10.867,1.3424,-5.425,0.12596,20.358,-5.9277,39.936,-26.892,15.694,1.4554,61.844,-23.664,51.499,2.2832
21.243,-19.715,10.867,1.3424,-5.425,0.12596,20.358,-5.9277,39.936,-26.892,15.694,1.4554,61.844,-23.664,51.499,2.2832
21.243,-19.715,10.867,1.3424,-5.425,0.12596,20.358,-5.9277,39.936,-26.892,15.694,1.4554,61.844,-23.664,51.499,2.2832
21.198,-19.427,10.895,1.434,-5.5163,0.40723,20.136,-5.8777,39.838,-26.685,15.64,1.5478,61.743,-23.365,51.254,2.3329
21.198,-19.427,10.895,1.434,-5.5163,0.40723,20.136,-5.8777,39.838,-26.685,15.64,1.5478,61.743,-23.365,51.254,2.3329
21.198,-19.427,10.895,1.434,-5.5163,0.40723,20.136,-5.8777,39.838,-26.685,15.64,1.5478,61.743,-23.365,51.254,2.3329
21.152,-19.138,10.922,1.5258,-5.6072,0.689,19.914,-5.8274,39.738,-26.477,15.585,1.6403,61.639,-23.066,51.008,2.3825
21.104,-18.848,10.95,1.618,-5.6978,0.97128,19.692,-5.7766,39.637,-26.267,15.529,1.7327,61.534,-22.765,50.76,2.432
21.057,-18.556,10.977,1.7104,-5.788,1.2541,19.469,-5.7254,39.535,-26.057,15.473,1.8252,61.427,-22.464,50.51,2.4813
21.057,-18.556,10.977,1.7104,-5.788,1.2541,19.469,-5.7254,39.535,-26.057,15.473,1.8252,61.427,-22.464,50.51,2.4813
21.008,-18.263,11.004,1.8032,-5.8777,1.5373,19.246,-5.6738,39.432,-25.845,15.417,1.9177,61.318,-22.161,50.259,2.5306
21.008,-18.263,11.004,1.8032,-5.8777,1.5373,19.246,-5.6738,39.432,-25.845,15.417,1.9177,61.318,-22.161,50.259,2.5306
21.008,-18.263,11.004,1.8032,-5.8777,1.5373,19.246,-5.6738,39.432,-25.845,15.417,1.9177,61.318,-22.161,50.259,2.5306
20.958,-17.969,11.031,1.8963,-5.9671,1.8211,19.023,-5.6218,39.327,-25.633,15.361,2.0102,61.207,-21.858,50.007,2.5797
20.958,-17.969,11.031,1.8963,-5.9671,1.8211,19.023,-5.6218,39.327,-25.633,15.361,2.0102,61.207,-21.858,50.007,2.5797
20.958,-17.969,11.031,1.8963,-5.9671,1.8211,19.023,-5.6218,39.327,-25.633,15.361,2.0102,61.207,-21.858,50.007,2.5797
20.908,-17.674,11.057,1.9897,-6.0561,2.1054,18.799,-5.5693,39.221,-25.42,15.304,2.1028,61.095,-21.553,49.753,2.6287
20.857,-17.378,11.084,2.0834,-6.1447,2.3901,18.575,-5.5163,39.114,-25.205,15.246,2.1954,60.981,-21.248,49.498,2.6776
20.857,-17.378,11.084,2.0834,-6.1447,2.3901,18.575,-5.5163,39.114,-25.205,15.246,2.1954,60.981,-21.248,49.498,2.6776
20.805,-17.08,11.11,2.1774,-6.233,2.6753,18.351,-5.4629,39.005,-24.99,15.188,2.2881,60.865,-20.941,49.241,2.7265
20.805,-17.08,11.11,2.1774,-6.233,2.6753,18.351,-5.4629,39.005,-24.99,15.188,2.2881,60.865,-20.941,49.241,2.7265
20.753,-16.781,11.136,2.2718,-6.3208,2.9611,18.127,-5.409,38.896,-24.773,15.13,2.3808,60.748,-20.634,48.983,2.7752
20.753,-16.781,11.136,2.2718,-6.3208,2.9611,18.127,-5.409,38.896,-24.773,15.13,2.3808,60.748,-20.634,48.983,2.7752
20.699,-16.481,11.162,2.3665,-6.4082,3.2472,17.903,-5.3546,38.785,-24.556,15.072,2.4736,60.629,-20.325,48.723,2.8239
20.699,-16.481,11.162,2.3665,-6.4082,3.2472,17.903,-5.3546,38.785,-24.556,15.072,2.4736,60.629,-20.325,48.723,2.8239
20.645,-16.18,11.188,2.4615,-6.4953,3.5339,17.678,-5.2998,38.672,-24.337,15.013,2.5664,60.508,-20.016,48.462,2.8725
20.645,-16.18,11.188,2.4615,-6.4953,3.5339,17.678,-5.2998,38.672,-24.337,15.013,2.5664,60.508,-20.016,48.462,2.8725
20.59,-15.877,11.214,2.5569,-6.582,3.821,17.453,-5.2444,38.559,-24.118,14.953,2.6593,60.385,-19.706,48.2,2.921
20.59,-15.877,11.214,2.5569,-6.582,3.821,17.453,-5.2444,38.559,-24.118,14.953,2.6593,60.385,-19.706,48.2,2.921
20.535,-15.573,11.239,2.6527,-6.6682,4.1086,17.228,-5.1886,38.444,-23.898,14.893,2.7523,60.26,-19.395,47.936,2.9694
20.535,-15.573,11.239,2.6527,-6.6682,4.1086,17.228,-5.1886,38.444,-23.898,14.893,2.7523,60.26,-19.395,47.936,2.9694
20.478,-15.268,11.265,2.7488,-6.7541,4.3966,17.003,-5.1322,38.328,-23.676,14.833,2.8453,60.134,-19.083,47.67,3.0178
20.478,-15.268,11.265,2.7488,-6.7541,4.3966,17.003,-5.1322,38.328,-23.676,14.833,2.8453,60.134,-19.083,47.67,3.0178
20.478,-15.268,11.265,2.7488,-6.7541,4.3966,17.003,-5.1322,38.328,-23.676,14.833,2.8453,60.134,-19.083,47.67,3.0178
20.421,-14.962,11.29,2.8452,-6.8396,4.685,16.777,-5.0753,38.211,-23.454,14.772,2.9384,60.006,-18.77,47.403,3.0661
20.421,-14.962,11.29,2.8452,-6.8396,4.685,16.777,-5.0753,38.211,-23.454,14.772,2.9384,60.006,-18.77,47.403,3.0661
20.363,-14.655,11.314,2.942,-6.9247,4.974,16.551,-5.0179,38.093,-23.231,14.711,3.0316,59.876,-18.456,47.135,3.1143
20.304,-14.346,11.339,3.0392,-7.0094,5.2633,16.325,-4.9599,37.973,-23.006,14.65,3.1248,59.744,-18.142,46.865,3.1626
20.304,-14.346,11.339,3.0392,-7.0094,5.2633,16.325,-4.9599,37.973,-23.006,14.65,3.1248,59.744,-18.142,46.865,3.1626
20.245,-14.037,11.364,3.1368,-7.0938,5.5531,16.099,-4.9014,37.852,-22.781,14.588,3.2182,59.61,-17.826,46.593,3.2107
20.245,-14.037,11.364,3.1368,-7.0938,5.5531,16.099,-4.9014,37.852,-22.781,14.588,3.2182,59.61,-17.826,46.593,3.2107
20.184,-13.726,11.388,3.2347,-7.1777,5.8433,15.873,-4.8423,37.73,-22.555,14.525,3.3116,59.475,-17.51,46.32,3.2589
20.184,-13.726,11.388,3.2347,-7.1777,5.8433,15.873,-4.8423,37.73,-22.555,14.525,3.3116,59.475,-17.51,46.32,3.2589
20.184,-13.726,11.388,3.2347,-7.1777,5.8433,15.873,-4.8423,37.73,-22.555,14.525,3.3116,59.475,-17.51,46.32,3.2589
20.123,-13.414,11.412,3.333,-7.2612,6.134,15.646,-4.7827,37.607,-22.328,14.463,3.4051,59.338,-17.193,46.046,3.307
20.123,-13.414,11.412,3.333,-7.2612,6.134,15.646,-4.7827,37.607,-22.328,14.463,3.4051,59.338,-17.193,46.046,3.307
20.062,-13.101,11.436,3.4317,-7.3444,6.425,15.419,-4.7225,37.483,-22.1,14.399,3.4987,59.199,-16.874,45.771,3.355
20.062,-13.101,11.436,3.4317,-7.3444,6.425,15.419,-4.7225,37.483,-22.1,14.399,3.4987,59.199,-16.874,45.771,3.355
19.936,-12.471,11.483,3.6303,-7.5096,7.0084,14.965,-4.6004,37.23,-21.641,14.271,3.6862,58.916,-16.236,45.215,3.4511
19.936,-12.471,11.483,3.6303,-7.5096,7.0084,14.965,-4.6004,37.23,-21.641,14.271,3.6862,58.916,-16.236,45.215,3.4511
19.936,-12.471,11.483,3.6303,-7.5096,7.0084,14.965,-4.6004,37.23,-21.641,14.271,3.6862,58.916,-16.236,45.215,3.4511
19.872,-12.154,11.506,3.7302,-7.5916,7.3007,14.738,-4.5385,37.102,-21.41,14.207,3.7801,58.772,-15.915,44.935,3.4991
19.872,-12.154,11.506,3.7302,-7.5916,7.3007,14.738,-4.5385,37.102,-21.41,14.207,3.7801,58.772,-15.915,44.935,3.4991
19.807,-11.837,11.529,3.8304,-7.6732,7.5934,14.51,-4.476,36.973,-21.178,14.142,3.8741,58.626,-15.594,44.653,3.5472
19.807,-11.837,11.529,3.8304,-7.6732,7.5934,14.51,-4.476,36.973,-21.178,14.142,3.8741,58.626,-15.594,44.653,3.5472
19.807,-11.837,11.529,3.8304,-7.6732,7.5934,14.51,-4.476,36.973,-21.178,14.142,3.8741,58.626,-15.594,44.653,3.5472
19.742,-11.518,11.552,3.9311,-7.7544,7.8865,14.283,-4.4128,36.842,-20.945,14.076,3.9682,58.478,-15.272,44.37,3.5952
19.676,-11.198,11.575,4.0322,-7.8352,8.18,14.055,-4.3491,36.711,-20.711,14.01,4.0625,58.328,-14.949,44.086,3.6432
19.676,-11.198,11.575,4.0322,-7.8352,8.18,14.055,-4.3491,36.711,-20.711,14.01,4.0625,58.328,-14.949,44.086,3.6432
19.609,-10.877,11.597,4.1337,-7.9157,8.4738,13.827,-4.2847,36.578,-20.477,13.944,4.1568,58.177,-14.625,43.8,3.6912
19.609,-10.877,11.597,4.1337,-7.9157,8.4738,13.827,-4.2847,36.578,-20.477,13.944,4.1568,58.177,-14.625,43.8,3.6912
19.541,-10.554,11.619,4.2356,-7.9957,8.7681,13.598,-4.2197,36.444,-20.241,13.877,4.2513,58.023,-14.3,43.513,3.7392
19.541,-10.554,11.619,4.2356,-7.9957,8.7681,13.598,-4.2197,36.444,-20.241,13.877,4.2513,58.023,-14.3,43.513,3.7392
19.473,-10.231,11.641,4.3379,-8.0754,9.0627,13.37,-4.1541,36.309,-20.005,13.81,4.3459,57.868,-13.975,43.224,3.7873
19.473,-10.231,11.641,4.3379,-8.0754,9.0627,13.37,-4.1541,36.309,-20.005,13.81,4.3459,57.868,-13.975,43.224,3.7873
19.403,-9.9067,11.663,4.4406,-8.1547,9.3577,13.141,-4.0878,36.173,-19.767,13.742,4.4406,57.711,-13.649,42.934,3.8353
19.403,-9.9067,11.663,4.4406,-8.1547,9.3577,13.141,-4.0878,36.173,-19.767,13.742,4.4406,57.711,-13.649,42.934,3.8353
19.334,-9.5813,11.685,4.5438,-8.2336,9.653,12.912,-4.0209,36.035,-19.529,13.673,4.5354,57.553,-13.322,42.643,3.8834
19.334,-9.5813,11.685,4.5438,-8.2336,9.653,12.912,-4.0209,36.035,-19.529,13.673,4.5354,57.553,-13.322,42.643,3.8834
19.263,-9.2547,11.706,4.6474,-8.3122,9.9487,12.683,-3.9533,35.897,-19.29,13.605,4.6304,57.392,-12.995,42.35,3.9315
19.263,-9.2547,11.706,4.6474,-8.3122,9.9487,12.683,-3.9533,35.897,-19.29,13.605,4.6304,57.392,-12.995,42.35,3.9315
19.263,-9.2547,11.706,4.6474,-8.3122,9.9487,12.683,-3.9533,35.897,-19.29,13.605,4.6304,57.392,-12.995,42.35,3.9315
19.192,-8.927,11.727,4.7514,-8.3903,10.245,12.454,-3.8851,35.757,-19.05,13.535,4.7255,57.23,-12.667,42.056,3.9797
19.192,-8.927,11.727,4.7514,-8.3903,10.245,12.454,-3.8851,35.757,-19.05,13.535,4.7255,57.23,-12.667,42.056,3.9797
19.12,-8.5983,11.748,4.8559,-8.4681,10.541,12.225,-3.8161,35.616,-18.809,13.465,4.8208,57.066,-12.338,41.76,4.0279
19.047,-8.2686,11.769,4.9607,-8.5455,10.838,11.995,-3.7466,35.474,-18.567,13.395,4.9162,56.9,-12.008,41.463,4.0761
19.047,-8.2686,11.769,4.9607,-8.5455,10.838,11.995,-3.7466,35.474,-18.567,13.395,4.9162,56.9,-12.008,41.463,4.0761
19.047,-8.2686,11.769,4.9607,-8.5455,10.838,11.995,-3.7466,35.474,-18.567,13.395,4.9162,56.9,-12.008,41.463,4.0761
18.974,-7.9377,11.789,5.0661,-8.6225,11.135,11.766,-3.6763,35.331,-18.324,13.325,5.0117,56.732,-11.678,41.165,4.1244
18.899,-7.6059,11.81,5.1718,-8.6991,11.432,11.536,-3.6054,35.187,-18.081,13.253,5.1074,56.562,-11.347,40.865,4.1727
18.899,-7.6059,11.81,5.1718,-8.6991,11.432,11.536,-3.6054,35.187,-18.081,13.253,5.1074,56.562,-11.347,40.865,4.1727
18.825,-7.273,11.83,5.278,-8.7754,11.73,11.306,-3.5337,35.041,-17.836,13.182,5.2032,56.391,-11.015,40.564,4.2211
18.825,-7.273,11.83,5.278,-8.7754,11.73,11.306,-3.5337,35.041,-17.836,13.182,5.2032,56.391,-11.015,40.564,4.2211
18.749,-6.939,11.849,5.3847,-8.8512,12.028,11.076,-3.4614,34.895,-17.591,13.109,5.2992,56.217,-10.683,40.261,4.2696
18.749,-6.939,11.849,5.3847,-8.8512,12.028,11.076,-3.4614,34.895,-17.591,13.109,5.2992,56.217,-10.683,40.261,4.2696
18.673,-6.6041,11.869,5.4918,-8.9267,12.326,10.845,-3.3883,34.747,-17.345,13.037,5.3953,56.042,-10.35,39.957,4.3181
18.673,-6.6041,11.869,5.4918,-8.9267,12.326,10.845,-3.3883,34.747,-17.345,13.037,5.3953,56.042,-10.35,39.957,4.3181
18.596,-6.2681,11.888,5.5993,-9.0018,12.625,10.615,-3.3146,34.599,-17.098,12.964,5.4916,55.865,-10.016,39.651,4.3667
18.596,-6.2681,11.888,5.5993,-9.0018,12.625,10.615,-3.3146,34.599,-17.098,12.964,5.4916,55.865,-10.016,39.651,4.3667
18.518,-5.9311,11.907,5.7073,-9.0766,12.924,10.384,-3.2401,34.449,-16.85,12.89,5.588,55.687,-9.6817,39.345,4.4154
18.518,-5.9311,11.907,5.7073,-9.0766,12.924,10.384,-3.2401,34.449,-16.85,12.89,5.588,55.687,-9.6817,39.345,4.4154
18.44,-5.5932,11.926,5.8157,-9.1509,13.223,10.154,-3.1649,34.298,-16.601,12.816,5.6846,55.506,-9.3468,39.037,4.4641
18.44,-5.5932,11.926,5.8157,-9.1509,13.223,10.154,-3.1649,34.298,-16.601,12.816,5.6846,55.506,-9.3468,39.037,4.4641
18.361,-5.2542,11.945,5.9247,-9.2249,13.522,9.9227,-3.089,34.146,-16.352,12.741,5.7814,55.324,-9.0113,38.727,4.5129
18.361,-5.2542,11.945,5.9247,-9.2249,13.522,9.9227,-3.089,34.146,-16.352,12.741,5.7814,55.324,-9.0113,38.727,4.5129
18.281,-4.9143,11.963,6.034,-9.2985,13.822,9.6916,-3.0123,33.993,-16.101,12.666,5.8783,55.14,-8.6752,38.416,4.5619
18.281,-4.9143,11.963,6.034,-9.2985,13.822,9.6916,-3.0123,33.993,-16.101,12.666,5.8783,55.14,-8.6752,38.416,4.5619
18.281,-4.9143,11.963,6.034,-9.2985,13.822,9.6916,-3.0123,33.993,-16.101,12.666,5.8783,55.14,-8.6752,38.416,4.5619
18.201,-4.5734,11.981,6.1438,-9.3718,14.122,9.4604,-2.9349,33.839,-15.85,12.59,5.9754,54.954,-8.3385,38.104,4.6109
18.201,-4.5734,11.981,6.1438,-9.3718,14.122,9.4604,-2.9349,33.839,-15.85,12.59,5.9754,54.954,-8.3385,38.104,4.6109
18.201,-4.5734,11.981,6.1438,-9.3718,14.122,9.4604,-2.9349,33.839,-15.85,12.59,5.9754,54.954,-8.3385,38.104,4.6109
18.038,-3.8887,12.016,6.3649,-9.5172,14.723,8.9975,-2.7779,33.527,-15.346,12.437,6.1701,54.577,-7.6635,37.476,4.7092
18.038,-3.8887,12.016,6.3649,-9.5172,14.723,8.9975,-2.7779,33.527,-15.346,12.437,6.1701,54.577,-7.6635,37.476,4.7092
18.038,-3.8887,12.016,6.3649,-9.5172,14.723,8.9975,-2.7779,33.527,-15.346,12.437,6.1701,54.577,-7.6635,37.476,4.7092
17.956,-3.5449,12.034,6.4761,-9.5893,15.023,8.7659,-2.6983,33.37,-15.092,12.36,6.2678,54.385,-7.3252,37.159,4.7585
17.956,-3.5449,12.034,6.4761,-9.5893,15.023,8.7659,-2.6983,33.37,-15.092,12.36,6.2678,54.385,-7.3252,37.159,4.7585
17.873,-3.2002,12.051,6.5878,-9.661,15.324,8.5341,-2.6179,33.212,-14.837,12.282,6.3656,54.192,-6.9863,36.842,4.8079
17.873,-3.2002,12.051,6.5878,-9.661,15.324,8.5341,-2.6179,33.212,-14.837,12.282,6.3656,54.192,-6.9863,36.842,4.8079
17.873,-3.2002,12.051,6.5878,-9.661,15.324,8.5341,-2.6179,33.212,-14.837,12.282,6.3656,54.192,-6.9863,36.842,4.8079
17.705,-2.508,12.084,6.8126,-9.8035,15.927,8.0701,-2.4548,32.892,-14.326,12.125,6.5617,53.8,-6.3069,36.203,4.907
17.62,-2.1605,12.1,6.9257,-9.8741,16.228,7.8379,-2.3721,32.73,-14.07,12.046,6.66,53.602,-5.9664,35.881,4.9568
17.62,-2.1605,12.1,6.9257,-9.8741,16.228,7.8379,-2.3721,32.73,-14.07,12.046,6.66,53.602,-5.9664,35.881,4.9568
17.62,-2.1605,12.1,6.9257,-9.8741,16.228,7.8379,-2.3721,32.73,-14.07,12.046,6.66,53.602,-5.9664,35.881,4.9568
17.534,-1.8122,12.116,7.0392,-9.9444,16.53,7.6055,-2.2886,32.568,-13.812,11.966,6.7585,53.401,-5.6255,35.559,5.0066
17.534,-1.8122,12.116,7.0392,-9.9444,16.53,7.6055,-2.2886,32.568,-13.812,11.966,6.7585,53.401,-5.6255,35.559,5.0066
17.448,-1.4629,12.132,7.1533,-10.014,16.832,7.3731,-2.2044,32.404,-13.554,11.885,6.8572,53.199,-5.2841,35.235,5.0566
17.448,-1.4629,12.132,7.1533,-10.014,16.832,7.3731,-2.2044,32.404,-13.554,11.885,6.8572,53.199,-5.2841,35.235,5.0566
17.448,-1.4629,12.132,7.1533,-10.014,16.832,7.3731,-2.2044,32.404,-13.554,11.885,6.8572,53.199,-5.2841,35.235,5.0566
17.361,-1.1127,12.148,7.2678,-10.084,17.134,7.1405,-2.1194,32.24,-13.295,11.805,6.9561,52.995,-4.9421,34.909,5.1068
17.274,-0.76172,12.163,7.3828,-10.153,17.437,6.9077,-2.0335,32.074,-13.035,11.723,7.0552,52.789,-4.5998,34.583,5.157
17.274,-0.76172,12.163,7.3828,-10.153,17.437,6.9077,-2.0335,32.074,-13.035,11.723,7.0552,52.789,-4.5998,34.583,5.157
17.185,-0.40984,12.178,7.4982,-10.222,17.739,6.6748,-1.9469,31.908,-12.774,11.641,7.1545,52.582,-4.257,34.255,5.2074
17.185,-0.40984,12.178,7.4982,-10.222,17.739,6.6748,-1.9469,31.908,-12.774,11.641,7.1545,52.582,-4.257,34.255,5.2074
17.185,-0.40984,12.178,7.4982,-10.222,17.739,6.6748,-1.9469,31.908,-12.774,11.641,7.1545,52.582,-4.257,34.255,5.2074
17.097,-0.057106,12.192,7.6141,-10.29,18.042,6.4418,-1.8595,31.74,-12.513,11.559,7.2539,52.373,-3.9137,33.926,5.2579
17.007,0.29647,12.207,7.7306,-10.359,18.345,6.2087,-1.7713,31.572,-12.251,11.476,7.3536,52.161,-3.57,33.595,5.3086
17.007,0.29647,12.207,7.7306,-10.359,18.345,6.2087,-1.7713,31.572,-12.251,11.476,7.3536,52.161,-3.57,33.595,5.3086
17.007,0.29647,12.207,7.7306,-10.359,18.345,6.2087,-1.7713,31.572,-12.251,11.476,7.3536,52.161,-3.57,33.595,5.3086
16.917,0.65089,12.221,7.8475,-10.426,18.648,5.9754,-1.6823,31.403,-11.988,11.392,7.4534,51.949,-3.2259,33.263,5.3594
16.826,1.0061,12.235,7.9648,-10.494,18.951,5.7421,-1.5924,31.232,-11.725,11.308,7.5534,51.734,-2.8814,32.93,5.4104
16.826,1.0061,12.235,7.9648,-10.494,18.951,5.7421,-1.5924,31.232,-11.725,11.308,7.5534,51.734,-2.8814,32.93,5.4104
16.735,1.3622,12.248,8.0827,-10.561,19.254,5.5086,-1.5018,31.061,-11.461,11.224,7.6537,51.517,-2.5365,32.596,5.4615
16.735,1.3622,12.248,8.0827,-10.561,19.254,5.5086,-1.5018,31.061,-11.461,11.224,7.6537,51.517,-2.5365,32.596,5.4615
16.735,1.3622,12.248,8.0827,-10.561,19.254,5.5086,-1.5018,31.061,-11.461,11.224,7.6537,51.517,-2.5365,32.596,5.4615
16.643,1.719,12.261,8.201,-10.628,19.558,5.2749,-1.4104,30.888,-11.196,11.138,7.7541,51.299,-2.1913,32.261,5.5128
16.643,1.719,12.261,8.201,-10.628,19.558,5.2749,-1.4104,30.888,-11.196,11.138,7.7541,51.299,-2.1913,32.261,5.5128
16.55,2.0767,12.274,8.3198,-10.694,19.861,5.0412,-1.3181,30.715,-10.931,11.053,7.8548,51.079,-1.8456,31.924,5.5642
16.55,2.0767,12.274,8.3198,-10.694,19.861,5.0412,-1.3181,30.715,-10.931,11.053,7.8548,51.079,-1.8456,31.924,5.5642
16.457,2.4351,12.287,8.4391,-10.76,20.165,4.8073,-1.225,30.541,-10.664,10.967,7.9556,50.858,-1.4996,31.586,5.6158
16.457,2.4351,12.287,8.4391,-10.76,20.165,4.8073,-1.225,30.541,-10.664,10.967,7.9556,50.858,-1.4996,31.586,5.6158
16.457,2.4351,12.287,8.4391,-10.76,20.165,4.8073,-1.225,30.541,-10.664,10.967,7.9556,50.858,-1.4996,31.586,5.6158
16.457,2.4351,12.287,8.4391,-10.76,20.165,4.8073,-1.225,30.541,-10.664,10.967,7.9556,50.858,-1.4996,31.586,5.6158
16.269,3.1543,12.312,8.6791,-10.891,20.772,4.3392,-1.0364,30.19,-10.13,10.793,8.1579,50.409,-0.80659,30.907,5.7195
16.269,3.1543,12.312,8.6791,-10.891,20.772,4.3392,-1.0364,30.19,-10.13,10.793,8.1579,50.409,-0.80659,30.907,5.7195
16.269,3.1543,12.312,8.6791,-10.891,20.772,4.3392,-1.0364,30.19,-10.13,10.793,8.1579,50.409,-0.80659,30.907,5.7195
16.078,3.8764,12.335,8.921,-11.02,21.38,3.8706,-0.84446,29.835,-9.5929,10.616,8.3609,49.953,-0.11228,30.223,5.8238
16.078,3.8764,12.335,8.921,-11.02,21.38,3.8706,-0.84446,29.835,-9.5929,10.616,8.3609,49.953,-0.11228,30.223,5.8238
16.078,3.8764,12.335,8.921,-11.02,21.38,3.8706,-0.84446,29.835,-9.5929,10.616,8.3609,49.953,-0.11228,30.223,5.8238
15.982,4.2386,12.346,9.0426,-11.085,21.684,3.6361,-0.74725,29.656,-9.3234,10.528,8.4628,49.723,0.23532,29.879,5.8763
15.885,4.6015,12.357,9.1648,-11.149,21.988,3.4016,-0.64921,29.476,-9.0533,10.438,8.5648,49.49,0.58321,29.534,5.9289
15.885,4.6015,12.357,9.1648,-11.149,21.988,3.4016,-0.64921,29.476,-9.0533,10.438,8.5648,49.49,0.58321,29.534,5.9289
15.788,4.9651,12.367,9.2874,-11.212,22.293,3.1669,-0.55033,29.295,-8.7825,10.348,8.6671,49.257,0.93138,29.188,5.9817
15.788,4.9651,12.367,9.2874,-11.212,22.293,3.1669,-0.55033,29.295,-8.7825,10.348,8.6671,49.257,0.93138,29.188,5.9817
15.69,5.3294,12.378,9.4104,-11.275,22.597,2.9321,-0.45061,29.114,-8.5111,10.258,8.7696,49.021,1.2798,28.841,6.0347
15.69,5.3294,12.378,9.4104,-11.275,22.597,2.9321,-0.45061,29.114,-8.5111,10.258,8.7696,49.021,1.2798,28.841,6.0347
15.591,5.6944,12.388,9.534,-11.338,22.901,2.6972,-0.35006,28.932,-8.2391,10.167,8.8722,48.784,1.6285,28.492,6.0878
15.591,5.6944,12.388,9.534,-11.338,22.901,2.6972,-0.35006,28.932,-8.2391,10.167,8.8722,48.784,1.6285,28.492,6.0878
15.591,5.6944,12.388,9.534,-11.338,22.901,2.6972,-0.35006,28.932,-8.2391,10.167,8.8722,48.784,1.6285,28.492,6.0878
15.492,6.0601,12.397,9.658,-11.401,23.205,2.4622,-0.24866,28.748,-7.9665,10.075,8.9751,48.545,1.9774,28.143,6.1412
15.492,6.0601,12.397,9.658,-11.401,23.205,2.4622,-0.24866,28.748,-7.9665,10.075,8.9751,48.545,1.9774,28.143,6.1412
15.392,6.4264,12.407,9.7825,-11.463,23.509,2.227,-0.14643,28.564,-7.6933,9.9828,9.0782,48.304,2.3265,27.792,6.1947
15.392,6.4264,12.407,9.7825,-11.463,23.509,2.227,-0.14643,28.564,-7.6933,9.9828,9.0782,48.304,2.3265,27.792,6.1947
15.292,6.7934,12.416,9.9075,-11.525,23.814,1.9918,-0.043348,28.379,-7.4195,9.8902,9.1815,48.061,2.6759,27.44,6.2485
15.191,7.161,12.424,10.033,-11.586,24.118,1.7565,0.060574,28.194,-7.1452,9.797,9.285,47.817,3.0254,27.087,6.3024
15.191,7.161,12.424,10.033,-11.586,24.118,1.7565,0.060574,28.194,-7.1452,9.797,9.285,47.817,3.0254,27.087,6.3024
15.09,7.5293,12.433,10.159,-11.648,24.422,1.521,0.16534,28.007,-6.8702,9.7032,9.3887,47.571,3.3751,26.733,6.3565
15.09,7.5293,12.433,10.159,-11.648,24.422,1.521,0.16534,28.007,-6.8702,9.7032,9.3887,47.571,3.3751,26.733,6.3565
14.988,7.8981,12.441,10.285,-11.708,24.726,1.2855,0.27095,27.82,-6.5947,9.6089,9.4926,47.324,3.725,26.378,6.4108
14.988,7.8981,12.441,10.285,-11.708,24.726,1.2855,0.27095,27.82,-6.5947,9.6089,9.4926,47.324,3.725,26.378,6.4108
14.885,8.2676,12.448,10.412,-11.769,25.03,1.0498,0.37741,27.631,-6.3187,9.5141,9.5967,47.075,4.0751,26.022,6.4654
14.885,8.2676,12.448,10.412,-11.769,25.03,1.0498,0.37741,27.631,-6.3187,9.5141,9.5967,47.075,4.0751,26.022,6.4654
14.782,8.6376,12.456,10.539,-11.829,25.334,0.8141,0.48472,27.442,-6.0421,9.4187,9.701,46.824,4.4253,25.665,6.5201
14.782,8.6376,12.456,10.539,-11.829,25.334,0.8141,0.48472,27.442,-6.0421,9.4187,9.701,46.824,4.4253,25.665,6.5201
14.679,9.0083,12.463,10.667,-11.889,25.638,0.57826,0.59287,27.252,-5.765,9.3228,9.8056,46.571,4.7757,25.306,6.575
14.679,9.0083,12.463,10.667,-11.889,25.638,0.57826,0.59287,27.252,-5.765,9.3228,9.8056,46.571,4.7757,25.306,6.575
14.575,9.3795,12.469,10.795,-11.948,25.942,0.34232,0.70187,27.062,-5.4873,9.2263,9.9103,46.317,5.1262,24.947,6.6302
14.575,9.3795,12.469,10.795,-11.948,25.942,0.34232,0.70187,27.062,-5.4873,9.2263,9.9103,46.317,5.1262,24.947,6.6302
14.575,9.3795,12.469,10.795,-11.948,25.942,0.34232,0.70187,27.062,-5.4873,9.2263,9.9103,46.317,5.1262,24.947,6.6302
14.47,9.7512,12.476,10.924,-12.008,26.246,0.10628,0.81172,26.87,-5.2092,9.1293,10.015,46.061,5.4768,24.587,6.6855
14.47,9.7512,12.476,10.924,-12.008,26.246,0.10628,0.81172,26.87,-5.2092,9.1293,10.015,46.061,5.4768,24.587,6.6855
14.47,9.7512,12.476,10.924,-12.008,26.246,0.10628,0.81172,26.87,-5.2092,9.1293,10.015,46.061,5.4768,24.587,6.6855
14.259,10.496,12.487,11.183,-12.125,26.854,-0.36608,1.034,26.485,-4.6513,8.9337,10.226,45.545,6.1782,23.863,6.7968
14.259,10.496,12.487,11.183,-12.125,26.854,-0.36608,1.034,26.485,-4.6513,8.9337,10.226,45.545,6.1782,23.863,6.7968
14.153,10.87,12.493,11.313,-12.183,27.157,-0.60239,1.1464,26.292,-4.3717,8.8351,10.331,45.284,6.5291,23.499,6.8528
14.153,10.87,12.493,11.313,-12.183,27.157,-0.60239,1.1464,26.292,-4.3717,8.8351,10.331,45.284,6.5291,23.499,6.8528
14.153,10.87,12.493,11.313,-12.183,27.157,-0.60239,1.1464,26.292,-4.3717,8.8351,10.331,45.284,6.5291,23.499,6.8528
14.046,11.244,12.498,11.443,-12.241,27.461,-0.8388,1.2596,26.097,-4.0916,8.736,10.437,45.022,6.88,23.135,6.909
14.046,11.244,12.498,11.443,-12.241,27.461,-0.8388,1.2596,26.097,-4.0916,8.736,10.437,45.022,6.88,23.135,6.909
13.938,11.618,12.502,11.574,-12.299,27.764,-1.0753,1.3737,25.902,-3.8109,8.6363,10.543,44.758,7.231,22.77,6.9655
13.831,11.993,12.507,11.705,-12.356,28.067,-1.3119,1.4886,25.706,-3.5299,8.5361,10.649,44.492,7.582,22.403,7.0221
13.831,11.993,12.507,11.705,-12.356,28.067,-1.3119,1.4886,25.706,-3.5299,8.5361,10.649,44.492,7.582,22.403,7.0221
13.722,12.368,12.511,11.837,-12.413,28.37,-1.5486,1.6044,25.509,-3.2484,8.4353,10.756,44.225,7.9331,22.036,7.0789
13.722,12.368,12.511,11.837,-12.413,28.37,-1.5486,1.6044,25.509,-3.2484,8.4353,10.756,44.225,7.9331,22.036,7.0789
13.613,12.744,12.514,11.969,-12.469,28.673,-1.7853,1.721,25.312,-2.9664,8.334,10.862,43.957,8.2841,21.668,7.136
13.613,12.744,12.514,11.969,-12.469,28.673,-1.7853,1.721,25.312,-2.9664,8.334,10.862,43.957,8.2841,21.668,7.136
13.504,13.12,12.517,12.102,-12.526,28.976,-2.0222,1.8385,25.114,-2.684,8.2322,10.969,43.686,8.6352,21.299,7.1933
13.504,13.12,12.517,12.102,-12.526,28.976,-2.0222,1.8385,25.114,-2.684,8.2322,10.969,43.686,8.6352,21.299,7.1933
13.504,13.12,12.517,12.102,-12.526,28.976,-2.0222,1.8385,25.114,-2.684,8.2322,10.969,43.686,8.6352,21.299,7.1933
13.394,13.497,12.52,12.235,-12.581,29.278,-2.2591,1.9568,24.915,-2.4012,8.1299,11.076,43.414,8.9862,20.928,7.2508
13.284,13.874,12.523,12.369,-12.637,29.581,-2.4961,2.0759,24.716,-2.118,8.027,11.183,43.141,9.3372,20.557,7.3086
13.173,14.251,12.525,12.502,-12.692,29.883,-2.7332,2.1959,24.515,-1.8343,7.9236,11.29,42.866,9.6882,20.186,7.3665
13.173,14.251,12.525,12.502,-12.692,29.883,-2.7332,2.1959,24.515,-1.8343,7.9236,11.29,42.866,9.6882,20.186,7.3665
13.062,14.629,12.527,12.637,-12.747,30.185,-2.9704,2.3167,24.315,-1.5503,7.8197,11.398,42.59,10.039,19.813,7.4247
13.062,14.629,12.527,12.637,-12.747,30.185,-2.9704,2.3167,24.315,-1.5503,7.8197,11.398,42.59,10.039,19.813,7.4247
13.062,14.629,12.527,12.637,-12.747,30.185,-2.9704,2.3167,24.315,-1.5503,7.8197,11.398,42.59,10.039,19.813,7.4247
12.95,15.007,12.528,12.772,-12.802,30.486,-3.2076,2.4384,24.113,-1.2659,7.7152,11.506,42.312,10.39,19.439,7.4832
12.95,15.007,12.528,12.772,-12.802,30.486,-3.2076,2.4384,24.113,-1.2659,7.7152,11.506,42.312,10.39,19.439,7.4832
12.95,15.007,12.528,12.772,-12.802,30.486,-3.2076,2.4384,24.113,-1.2659,7.7152,11.506,42.312,10.39,19.439,7.4832
12.838,15.386,12.529,12.907,-12.856,30.788,-3.4449,2.5609,23.911,-0.98113,7.6102,11.614,42.032,10.741,19.064,7.5418
12.838,15.386,12.529,12.907,-12.856,30.788,-3.4449,2.5609,23.911,-0.98113,7.6102,11.614,42.032,10.741,19.064,7.5418
12.838,15.386,12.529,12.907,-12.856,30.788,-3.4449,2.5609,23.911,-0.98113,7.6102,11.614,42.032,10.741,19.064,7.5418
12.612,16.144,12.53,13.178,-12.964,31.39,-3.9198,2.8084,23.505,-0.41049,7.3987,11.83,41.469,11.442,18.313,7.6598
12.612,16.144,12.53,13.178,-12.964,31.39,-3.9198,2.8084,23.505,-0.41049,7.3987,11.83,41.469,11.442,18.313,7.6598
12.498,16.523,12.53,13.315,-13.018,31.691,-4.1573,2.9334,23.301,-0.12465,7.2922,11.939,41.185,11.793,17.936,7.7191
12.498,16.523,12.53,13.315,-13.018,31.691,-4.1573,2.9334,23.301,-0.12465,7.2922,11.939,41.185,11.793,17.936,7.7191
12.498,16.523,12.53,13.315,-13.018,31.691,-4.1573,2.9334,23.301,-0.12465,7.2922,11.939,41.185,11.793,17.936,7.7191
12.384,16.903,12.529,13.451,-13.071,31.991,-4.3949,3.0592,23.096,0.16152,7.1851,12.047,40.9,12.143,17.558,7.7787
12.384,16.903,12.529,13.451,-13.071,31.991,-4.3949,3.0592,23.096,0.16152,7.1851,12.047,40.9,12.143,17.558,7.7787
12.384,16.903,12.529,13.451,-13.071,31.991,-4.3949,3.0592,23.096,0.16152,7.1851,12.047,40.9,12.143,17.558,7.7787
12.154,17.664,12.527,13.726,-13.176,32.591,-4.8703,3.3132,22.685,0.73482,6.9695,12.265,40.324,12.843,16.8,7.8985
12.154,17.664,12.527,13.726,-13.176,32.591,-4.8703,3.3132,22.685,0.73482,6.9695,12.265,40.324,12.843,16.8,7.8985
12.038,18.044,12.526,13.864,-13.228,32.891,-5.1081,3.4415,22.479,1.0219,6.8609,12.374,40.035,13.193,16.419,7.9588
12.038,18.044,12.526,13.864,-13.228,32.891,-5.1081,3.4415,22.479,1.0219,6.8609,12.374,40.035,13.193,16.419,7.9588
11.922,18.425,12.524,14.002,-13.28,33.19,-5.346,3.5706,22.272,1.3093,6.7518,12.484,39.743,13.543,16.038,8.0192
11.922,18.425,12.524,14.002,-13.28,33.19,-5.346,3.5706,22.272,1.3093,6.7518,12.484,39.743,13.543,16.038,8.0192
11.806,18.806,12.521,14.141,-13.331,33.489,-5.5839,3.7005,22.064,1.597,6.6421,12.593,39.451,13.892,15.657,8.08
11.806,18.806,12.521,14.141,-13.331,33.489,-5.5839,3.7005,22.064,1.597,6.6421,12.593,39.451,13.892,15.657,8.08
11.806,18.806,12.521,14.141,-13.331,33.489,-5.5839,3.7005,22.064,1.597,6.6421,12.593,39.451,13.892,15.657,8.08
11.689,19.188,12.519,14.28,-13.383,33.787,-5.8219,3.8312,21.856,1.8849,6.532,12.703,39.157,14.242,15.274,8.1409
11.572,19.569,12.515,14.419,-13.434,34.086,-6.0599,3.9627,21.647,2.1731,6.4214,12.813,38.861,14.591,14.891,8.2021
11.572,19.569,12.515,14.419,-13.434,34.086,-6.0599,3.9627,21.647,2.1731,6.4214,12.813,38.861,14.591,14.891,8.2021
11.454,19.951,12.512,14.559,-13.484,34.383,-6.298,4.095,21.438,2.4616,6.3103,12.923,38.565,14.94,14.507,8.2635
11.454,19.951,12.512,14.559,-13.484,34.383,-6.298,4.095,21.438,2.4616,6.3103,12.923,38.565,14.94,14.507,8.2635
11.336,20.333,12.508,14.699,-13.534,34.681,-6.5362,4.228,21.228,2.7503,6.1987,13.033,38.266,15.289,14.122,8.3252
11.336,20.333,12.508,14.699,-13.534,34.681,-6.5362,4.228,21.228,2.7503,6.1987,13.033,38.266,15.289,14.122,8.3252
11.218,20.715,12.503,14.84,-13.584,34.978,-6.7744,4.3619,21.018,3.0392,6.0865,13.144,37.967,15.637,13.737,8.387
11.218,20.715,12.503,14.84,-13.584,34.978,-6.7744,4.3619,21.018,3.0392,6.0865,13.144,37.967,15.637,13.737,8.387
11.099,21.097,12.499,14.981,-13.634,35.274,-7.0126,4.4966,20.807,3.3283,5.9739,13.254,37.666,15.985,13.351,8.4491
11.099,21.097,12.499,14.981,-13.634,35.274,-7.0126,4.4966,20.807,3.3283,5.9739,13.254,37.666,15.985,13.351,8.4491
10.979,21.48,12.493,15.122,-13.684,35.571,-7.2509,4.6321,20.596,3.6177,5.8608,13.365,37.364,16.333,12.964,8.5115
10.979,21.48,12.493,15.122,-13.684,35.571,-7.2509,4.6321,20.596,3.6177,5.8608,13.365,37.364,16.333,12.964,8.5115
10.859,21.862,12.488,15.263,-13.733,35.867,-7.4892,4.7683,20.384,3.9072,5.7473,13.476,37.06,16.681,12.577,8.574
10.859,21.862,12.488,15.263,-13.733,35.867,-7.4892,4.7683,20.384,3.9072,5.7473,13.476,37.06,16.681,12.577,8.574
10.859,21.862,12.488,15.263,-13.733,35.867,-7.4892,4.7683,20.384,3.9072,5.7473,13.476,37.06,16.681,12.577,8.574
10.859,21.862,12.488,15.263,-13.733,35.867,-7.4892,4.7683,20.384,3.9072,5.7473,13.476,37.06,16.681,12.577,8.574
10.619,22.628,12.475,15.547,-13.83,36.457,-7.966,5.0431,19.959,4.4868,5.5186,13.698,36.449,17.375,11.801,8.6999
10.619,22.628,12.475,15.547,-13.83,36.457,-7.966,5.0431,19.959,4.4868,5.5186,13.698,36.449,17.375,11.801,8.6999
10.619,22.628,12.475,15.547,-13.83,36.457,-7.966,5.0431,19.959,4.4868,5.5186,13.698,36.449,17.375,11.801,8.6999
10.498,23.011,12.469,15.69,-13.878,36.751,-8.2045,5.1816,19.746,4.7768,5.4036,13.81,36.142,17.722,11.411,8.7631
10.376,23.393,12.461,15.833,-13.926,37.045,-8.443,5.3209,19.532,5.067,5.2881,13.921,35.833,18.068,11.022,8.8266
10.376,23.393,12.461,15.833,-13.926,37.045,-8.443,5.3209,19.532,5.067,5.2881,13.921,35.833,18.068,11.022,8.8266
10.255,23.776,12.454,15.976,-13.974,37.339,-8.6815,5.461,19.318,5.3574,5.1721,14.033,35.523,18.414,10.631,8.8903
10.255,23.776,12.454,15.976,-13.974,37.339,-8.6815,5.461,19.318,5.3574,5.1721,14.033,35.523,18.414,10.631,8.8903
10.132,24.159,12.446,16.119,-14.021,37.632,-8.92,5.6018,19.104,5.6478,5.0556,14.144,35.212,18.759,10.241,8.9543
10.132,24.159,12.446,16.119,-14.021,37.632,-8.92,5.6018,19.104,5.6478,5.0556,14.144,35.212,18.759,10.241,8.9543
10.01,24.542,12.437,16.263,-14.068,37.924,-9.1586,5.7434,18.889,5.9384,4.9387,14.256,34.9,19.105,9.8492,9.0184
10.01,24.542,12.437,16.263,-14.068,37.924,-9.1586,5.7434,18.889,5.9384,4.9387,14.256,34.9,19.105,9.8492,9.0184
10.01,24.542,12.437,16.263,-14.068,37.924,-9.1586,5.7434,18.889,5.9384,4.9387,14.256,34.9,19.105,9.8492,9.0184
9.887,24.925,12.428,16.407,-14.115,38.216,-9.3972,5.8857,18.674,6.2291,4.8213,14.368,34.586,19.449,9.4572,9.0828
9.7638,25.308,12.419,16.551,-14.161,38.508,-9.6358,6.0287,18.458,6.5198,4.7035,14.48,34.272,19.794,9.0648,9.1474
9.7638,25.308,12.419,16.551,-14.161,38.508,-9.6358,6.0287,18.458,6.5198,4.7035,14.48,34.272,19.794,9.0648,9.1474
9.6402,25.691,12.409,16.695,-14.207,38.799,-9.8745,6.1724,18.242,6.8107,4.5852,14.593,33.956,20.138,8.6718,9.2123
9.6402,25.691,12.409,16.695,-14.207,38.799,-9.8745,6.1724,18.242,6.8107,4.5852,14.593,33.956,20.138,8.6718,9.2123
9.5162,26.074,12.399,16.84,-14.253,39.089,-10.113,6.3169,18.025,7.1016,4.4664,14.705,33.638,20.481,8.2784,9.2773
9.5162,26.074,12.399,16.84,-14.253,39.089,-10.113,6.3169,18.025,7.1016,4.4664,14.705,33.638,20.481,8.2784,9.2773
9.3919,26.456,12.388,16.985,-14.299,39.379,-10.352,6.4621,17.808,7.3926,4.3472,14.817,33.32,20.825,7.8845,9.3426
9.3919,26.456,12.388,16.985,-14.299,39.379,-10.352,6.4621,17.808,7.3926,4.3472,14.817,33.32,20.825,7.8845,9.3426
9.3919,26.456,12.388,16.985,-14.299,39.379,-10.352,6.4621,17.808,7.3926,4.3472,14.817,33.32,20.825,7.8845,9.3426
9.2672,26.839,12.377,17.131,-14.344,39.668,-10.591,6.608,17.591,7.6836,4.2275,14.93,33.001,21.167,7.4901,9.4081
9.1422,27.221,12.366,17.276,-14.389,39.957,-10.829,6.7546,17.373,7.9747,4.1074,15.043,32.68,21.51,7.0953,9.4738
9.1422,27.221,12.366,17.276,-14.389,39.957,-10.829,6.7546,17.373,7.9747,4.1074,15.043,32.68,21.51,7.0953,9.4738
9.0168,27.604,12.354,17.422,-14.433,40.245,-11.068,6.9019,17.155,8.2657,3.9869,15.155,32.358,21.851,6.7001,9.5398
9.0168,27.604,12.354,17.422,-14.433,40.245,-11.068,6.9019,17.155,8.2657,3.9869,15.155,32.358,21.851,6.7001,9.5398
9.0168,27.604,12.354,17.422,-14.433,40.245,-11.068,6.9019,17.155,8.2657,3.9869,15.155,32.358,21.851,6.7001,9.5398
8.8911,27.986,12.342,17.568,-14.478,40.532,-11.307,7.0499,16.937,8.5568,3.8659,15.268,32.036,22.193,6.3045,9.6059
8.8911,27.986,12.342,17.568,-14.478,40.532,-11.307,7.0499,16.937,8.5568,3.8659,15.268,32.036,22.193,6.3045,9.6059
8.7651,28.368,12.329,17.714,-14.522,40.819,-11.545,7.1986,16.719,8.8479,3.7445,15.381,31.712,22.533,5.9084,9.6723
8.7651,28.368,12.329,17.714,-14.522,40.819,-11.545,7.1986,16.719,8.8479,3.7445,15.381,31.712,22.533,5.9084,9.6723
8.6388,28.75,12.316,17.861,-14.565,41.105,-11.784,7.348,16.5,9.139,3.6227,15.494,31.387,22.874,5.512,9.7388
8.5121,29.132,12.302,18.008,-14.609,41.39,-12.023,7.498,16.28,9.43,3.5004,15.608,31.061,23.213,5.1152,9.8056
8.3851,29.514,12.288,18.154,-14.652,41.675,-12.262,7.6487,16.061,9.721,3.3777,15.721,30.734,23.552,4.7181,9.8726
8.3851,29.514,12.288,18.154,-14.652,41.675,-12.262,7.6487,16.061,9.721,3.3777,15.721,30.734,23.552,4.7181,9.8726
8.2578,29.895,12.273,18.302,-14.695,41.959,-12.5,7.8,15.841,10.012,3.2546,15.834,30.406,23.891,4.3207,9.9398
8.2578,29.895,12.273,18.302,-14.695,41.959,-12.5,7.8,15.841,10.012,3.2546,15.834,30.406,23.891,4.3207,9.9398
8.2578,29.895,12.273,18.302,-14.695,41.959,-12.5,7.8,15.841,10.012,3.2546,15.834,30.406,23.891,4.3207,9.9398
8.1302,30.277,12.259,18.449,-14.738,42.243,-12.739,7.952,15.621,10.303,3.1311,15.947,30.077,24.229,3.9229,10.007
8.1302,30.277,12.259,18.449,-14.738,42.243,-12.739,7.952,15.621,10.303,3.1311,15.947,30.077,24.229,3.9229,10.007
8.1302,30.277,12.259,18.449,-14.738,42.243,-12.739,7.952,15.621,10.303,3.1311,15.947,30.077,24.229,3.9229,10.007
8.0023,30.657,12.243,18.596,-14.78,42.525,-12.978,8.1047,15.401,10.594,3.0072,16.061,29.747,24.567,3.5248,10.075
7.874,31.038,12.227,18.744,-14.822,42.807,-13.216,8.2579,15.18,10.884,2.8828,16.174,29.416,24.904,3.1264,10.143
7.874,31.038,12.227,18.744,-14.822,42.807,-13.216,8.2579,15.18,10.884,2.8828,16.174,29.416,24.904,3.1264,10.143
7.7455,31.419,12.211,18.892,-14.864,43.089,-13.455,8.4118,14.959,11.175,2.7581,16.288,29.084,25.24,2.7278,10.211
7.7455,31.419,12.211,18.892,-14.864,43.089,-13.455,8.4118,14.959,11.175,2.7581,16.288,29.084,25.24,2.7278,10.211
7.6167,31.799,12.194,19.04,-14.905,43.369,-13.693,8.5663,14.738,11.466,2.633,16.401,28.751,25.575,2.3289,10.279
7.6167,31.799,12.194,19.04,-14.905,43.369,-13.693,8.5663,14.738,11.466,2.633,16.401,28.751,25.575,2.3289,10.279
7.4876,32.178,12.177,19.188,-14.946,43.649,-13.932,8.7214,14.517,11.756,2.5075,16.515,28.417,25.911,1.9298,10.347
7.4876,32.178,12.177,19.188,-14.946,43.649,-13.932,8.7214,14.517,11.756,2.5075,16.515,28.417,25.911,1.9298,10.347
7.3583,32.558,12.16,19.337,-14.987,43.928,-14.171,8.8772,14.295,12.046,2.3815,16.629,28.083,26.245,1.5304,10.416
7.3583,32.558,12.16,19.337,-14.987,43.928,-14.171,8.8772,14.295,12.046,2.3815,16.629,28.083,26.245,1.5304,10.416
7.2286,32.937,12.141,19.485,-15.027,44.206,-14.409,9.0335,14.073,12.336,2.2553,16.742,27.747,26.579,1.1309,10.485
7.2286,32.937,12.141,19.485,-15.027,44.206,-14.409,9.0335,14.073,12.336,2.2553,16.742,27.747,26.579,1.1309,10.485
7.0987,33.316,12.123,19.634,-15.068,44.484,-14.648,9.1904,13.852,12.626,2.1286,16.856,27.411,26.912,0.73113,10.553
7.0987,33.316,12.123,19.634,-15.068,44.484,-14.648,9.1904,13.852,12.626,2.1286,16.856,27.411,26.912,0.73113,10.553
6.9685,33.694,12.104,19.782,-15.108,44.76,-14.886,9.3478,13.629,12.916,2.0015,16.97,27.073,27.244,0.33121,10.623
6.9685,33.694,12.104,19.782,-15.108,44.76,-14.886,9.3478,13.629,12.916,2.0015,16.97,27.073,27.244,0.33121,10.623
6.9685,33.694,12.104,19.782,-15.108,44.76,-14.886,9.3478,13.629,12.916,2.0015,16.97,27.073,27.244,0.33121,10.623
6.8381,34.072,12.085,19.931,-15.147,45.036,-15.124,9.5058,13.407,13.206,1.8741,17.084,26.735,27.576,-0.068873,10.692
6.8381,34.072,12.085,19.931,-15.147,45.036,-15.124,9.5058,13.407,13.206,1.8741,17.084,26.735,27.576,-0.068873,10.692
6.7074,34.45,12.065,20.08,-15.187,45.311,-15.363,9.6644,13.185,13.495,1.7464,17.197,26.396,27.907,-0.46909,10.761
6.5764,34.827,12.044,20.229,-15.226,45.585,-15.601,9.8236,12.962,13.784,1.6182,17.311,26.057,28.237,-0.86944,10.831
6.5764,34.827,12.044,20.229,-15.226,45.585,-15.601,9.8236,12.962,13.784,1.6182,17.311,26.057,28.237,-0.86944,10.831
6.4452,35.204,12.024,20.378,-15.265,45.858,-15.839,9.9832,12.739,14.073,1.4897,17.425,25.716,28.567,-1.2699,10.901
6.4452,35.204,12.024,20.378,-15.265,45.858,-15.839,9.9832,12.739,14.073,1.4897,17.425,25.716,28.567,-1.2699,10.901
6.3137,35.58,12.002,20.528,-15.303,46.131,-16.077,10.143,12.517,14.362,1.3609,17.539,25.375,28.896,-1.6704,10.971
6.3137,35.58,12.002,20.528,-15.303,46.131,-16.077,10.143,12.517,14.362,1.3609,17.539,25.375,28.896,-1.6704,10.971
6.182,35.956,11.981,20.677,-15.341,46.402,-16.315,10.304,12.294,14.651,1.2317,17.653,25.033,29.224,-2.0711,11.041
6.182,35.956,11.981,20.677,-15.341,46.402,-16.315,10.304,12.294,14.651,1.2317,17.653,25.033,29.224,-2.0711,11.041
6.0501,36.331,11.958,20.826,-15.379,46.673,-16.553,10.465,12.07,14.939,1.1022,17.766,24.69,29.551,-2.4717,11.111
6.0501,36.331,11.958,20.826,-15.379,46.673,-16.553,10.465,12.07,14.939,1.1022,17.766,24.69,29.551,-2.4717,11.111
5.918,36.706,11.936,20.976,-15.417,46.942,-16.791,10.627,11.847,15.227,0.9723,17.88,24.347,29.878,-2.8725,11.182
5.7856,37.08,11.913,21.125,-15.454,47.211,-17.029,10.789,11.624,15.514,0.84211,17.994,24.003,30.204,-3.2732,11.253
5.7856,37.08,11.913,21.125,-15.454,47.211,-17.029,10.789,11.624,15.514,0.84211,17.994,24.003,30.204,-3.2732,11.253
5.653,37.454,11.889,21.275,-15.491,47.479,-17.267,10.952,11.401,15.802,0.71159,18.107,23.658,30.529,-3.674,11.323
5.653,37.454,11.889,21.275,-15.491,47.479,-17.267,10.952,11.401,15.802,0.71159,18.107,23.658,30.529,-3.674,11.323
5.5202,37.827,11.865,21.424,-15.528,47.746,-17.505,11.115,11.177,16.089,0.58075,18.221,23.312,30.853,-4.0747,11.394
5.5202,37.827,11.865,21.424,-15.528,47.746,-17.505,11.115,11.177,16.089,0.58075,18.221,23.312,30.853,-4.0747,11.394
5.5202,37.827,11.865,21.424,-15.528,47.746,-17.505,11.115,11.177,16.089,0.58075,18.221,23.312,30.853,-4.0747,11.394
5.3871,38.2,11.841,21.574,-15.564,48.012,-17.742,11.279,10.954,16.375,0.4496,18.335,22.966,31.176,-4.4754,11.465
5.3871,38.2,11.841,21.574,-15.564,48.012,-17.742,11.279,10.954,16.375,0.4496,18.335,22.966,31.176,-4.4754,11.465
5.2539,38.571,11.816,21.724,-15.601,48.277,-17.98,11.443,10.73,16.662,0.31814,18.448,22.619,31.499,-4.8761,11.537
5.2539,38.571,11.816,21.724,-15.601,48.277,-17.98,11.443,10.73,16.662,0.31814,18.448,22.619,31.499,-4.8761,11.537
5.1205,38.943,11.79,21.873,-15.637,48.541,-18.217,11.608,10.506,16.948,0.18638,18.562,22.272,31.821,-5.2768,11.608
5.1205,38.943,11.79,21.873,-15.637,48.541,-18.217,11.608,10.506,16.948,0.18638,18.562,22.272,31.821,-5.2768,11.608
4.9868,39.313,11.765,22.023,-15.672,48.803,-18.455,11.772,10.283,17.234,0.054314,18.675,21.924,32.142,-5.6773,11.68
4.9868,39.313,11.765,22.023,-15.672,48.803,-18.455,11.772,10.283,17.234,0.054314,18.675,21.924,32.142,-5.6773,11.68
4.9868,39.313,11.765,22.023,-15.672,48.803,-18.455,11.772,10.283,17.234,0.054314,18.675,21.924,32.142,-5.6773,11.68
4.853,39.683,11.738,22.172,-15.707,49.065,-18.692,11.938,10.059,17.519,-0.07804,18.788,21.576,32.462,-6.0778,11.751
4.853,39.683,11.738,22.172,-15.707,49.065,-18.692,11.938,10.059,17.519,-0.07804,18.788,21.576,32.462,-6.0778,11.751
4.719,40.053,11.712,22.322,-15.742,49.326,-18.929,12.104,9.8356,17.804,-0.21068,18.902,21.227,32.781,-6.4781,11.823
4.719,40.053,11.712,22.322,-15.742,49.326,-18.929,12.104,9.8356,17.804,-0.21068,18.902,21.227,32.781,-6.4781,11.823
4.719,40.053,11.712,22.322,-15.742,49.326,-18.929,12.104,9.8356,17.804,-0.21068,18.902,21.227,32.781,-6.4781,11.823
4.4504,40.789,11.657,22.621,-15.812,49.845,-19.403,12.436,9.3883,18.372,-0.4768,19.128,20.527,33.416,-7.2784,11.967
4.4504,40.789,11.657,22.621,-15.812,49.845,-19.403,12.436,9.3883,18.372,-0.4768,19.128,20.527,33.416,-7.2784,11.967
4.4504,40.789,11.657,22.621,-15.812,49.845,-19.403,12.436,9.3883,18.372,-0.4768,19.128,20.527,33.416,-7.2784,11.967
4.3159,41.157,11.628,22.771,-15.846,50.102,-19.64,12.603,9.1646,18.656,-0.61027,19.241,20.177,33.733,-7.6783,12.039
4.1812,41.523,11.6,22.92,-15.879,50.359,-19.876,12.771,8.941,18.939,-0.74401,19.354,19.826,34.048,-8.0781,12.111
4.1812,41.523,11.6,22.92,-15.879,50.359,-19.876,12.771,8.941,18.939,-0.74401,19.354,19.826,34.048,-8.0781,12.111
4.0463,41.889,11.571,23.069,-15.913,50.614,-20.113,12.938,8.7175,19.222,-0.878,19.466,19.474,34.363,-8.4776,12.184
4.0463,41.889,11.571,23.069,-15.913,50.614,-20.113,12.938,8.7175,19.222,-0.878,19.466,19.474,34.363,-8.4776,12.184
3.9113,42.254,11.541,23.218,-15.946,50.869,-20.349,13.106,8.494,19.504,-1.0122,19.579,19.123,34.676,-8.8769,12.256
3.9113,42.254,11.541,23.218,-15.946,50.869,-20.349,13.106,8.494,19.504,-1.0122,19.579,19.123,34.676,-8.8769,12.256
3.7761,42.618,11.511,23.368,-15.979,51.122,-20.585,13.275,8.2705,19.786,-1.1467,19.692,18.77,34.989,-9.276,12.329
3.7761,42.618,11.511,23.368,-15.979,51.122,-20.585,13.275,8.2705,19.786,-1.1467,19.692,18.77,34.989,-9.276,12.329
3.7761,42.618,11.511,23.368,-15.979,51.122,-20.585,13.275,8.2705,19.786,-1.1467,19.692,18.77,34.989,-9.276,12.329
3.7761,42.618,11.511,23.368,-15.979,51.122,-20.585,13.275,8.2705,19.786,-1.1467,19.692,18.77,34.989,-9.276,12.329
3.5053,43.344,11.45,23.666,-16.044,51.625,-21.057,13.612,7.8239,20.348,-1.4164,19.916,18.065,35.611,-10.073,12.474
3.5053,43.344,11.45,23.666,-16.044,51.625,-21.057,13.612,7.8239,20.348,-1.4164,19.916,18.065,35.611,-10.073,12.474
3.3697,43.706,11.418,23.814,-16.076,51.875,-21.293,13.781,7.6007,20.628,-1.5516,20.028,17.711,35.921,-10.472,12.547
3.3697,43.706,11.418,23.814,-16.076,51.875,-21.293,13.781,7.6007,20.628,-1.5516,20.028,17.711,35.921,-10.472,12.547
3.234,44.066,11.386,23.963,-16.108,52.123,-21.529,13.951,7.3776,20.908,-1.6871,20.14,17.358,36.23,-10.87,12.62
3.234,44.066,11.386,23.963,-16.108,52.123,-21.529,13.951,7.3776,20.908,-1.6871,20.14,17.358,36.23,-10.87,12.62
3.0981,44.426,11.354,24.112,-16.139,52.371,-21.764,14.121,7.1546,21.187,-1.8227,20.252,17.004,36.538,-11.267,12.693
3.0981,44.426,11.354,24.112,-16.139,52.371,-21.764,14.121,7.1546,21.187,-1.8227,20.252,17.004,36.538,-11.267,12.693
2.9621,44.785,11.321,24.26,-16.17,52.617,-21.999,14.291,6.9317,21.466,-1.9585,20.363,16.65,36.844,-11.665,12.766
2.826,45.143,11.288,24.408,-16.201,52.862,-22.234,14.461,6.709,21.744,-2.0946,20.475,16.295,37.15,-12.062,12.839
2.826,45.143,11.288,24.408,-16.201,52.862,-22.234,14.461,6.709,21.744,-2.0946,20.475,16.295,37.15,-12.062,12.839
2.826,45.143,11.288,24.408,-16.201,52.862,-22.234,14.461,6.709,21.744,-2.0946,20.475,16.295,37.15,-12.062,12.839
2.6898,45.501,11.254,24.557,-16.232,53.105,-22.469,14.632,6.4864,22.021,-2.2308,20.586,15.941,37.455,-12.458,12.912
2.6898,45.501,11.254,24.557,-16.232,53.105,-22.469,14.632,6.4864,22.021,-2.2308,20.586,15.941,37.455,-12.458,12.912
2.5534,45.857,11.22,24.704,-16.262,53.348,-22.704,14.802,6.2639,22.298,-2.3673,20.697,15.586,37.758,-12.855,12.986
2.5534,45.857,11.22,24.704,-16.262,53.348,-22.704,14.802,6.2639,22.298,-2.3673,20.697,15.586,37.758,-12.855,12.986
2.417,46.212,11.185,24.852,-16.292,53.589,-22.938,14.973,6.0417,22.574,-2.5039,20.808,15.23,38.061,-13.251,13.059
2.417,46.212,11.185,24.852,-16.292,53.589,-22.938,14.973,6.0417,22.574,-2.5039,20.808,15.23,38.061,-13.251,13.059
2.2805,46.566,11.15,25,-16.321,53.829,-23.173,15.145,5.8196,22.85,-2.6407,20.918,14.875,38.362,-13.646,13.132
2.2805,46.566,11.15,25,-16.321,53.829,-23.173,15.145,5.8196,22.85,-2.6407,20.918,14.875,38.362,-13.646,13.132
2.1438,46.919,11.115,25.147,-16.351,54.068,-23.407,15.316,5.5976,23.125,-2.7777,21.029,14.52,38.662,-14.041,13.206
2.1438,46.919,11.115,25.147,-16.351,54.068,-23.407,15.316,5.5976,23.125,-2.7777,21.029,14.52,38.662,-14.041,13.206
2.0071,47.272,11.078,25.294,-16.38,54.305,-23.641,15.487,5.3759,23.399,-2.9148,21.139,14.164,38.961,-14.435,13.279
2.0071,47.272,11.078,25.294,-16.38,54.305,-23.641,15.487,5.3759,23.399,-2.9148,21.139,14.164,38.961,-14.435,13.279
2.0071,47.272,11.078,25.294,-16.38,54.305,-23.641,15.487,5.3759,23.399,-2.9148,21.139,14.164,38.961,-14.435,13.279
2.0071,47.272,11.078,25.294,-16.38,54.305,-23.641,15.487,5.3759,23.399,-2.9148,21.139,14.164,38.961,-14.435,13.279
1.7335,47.973,11.005,25.588,-16.437,54.776,-24.108,15.831,4.933,23.945,-3.1896,21.358,13.453,39.556,-15.223,13.426
1.7335,47.973,11.005,25.588,-16.437,54.776,-24.108,15.831,4.933,23.945,-3.1896,21.358,13.453,39.556,-15.223,13.426
1.5965,48.322,10.967,25.734,-16.465,55.009,-24.341,16.003,4.7119,24.218,-3.3272,21.468,13.097,39.852,-15.616,13.5
1.5965,48.322,10.967,25.734,-16.465,55.009,-24.341,16.003,4.7119,24.218,-3.3272,21.468,13.097,39.852,-15.616,13.5
1.4595,48.67,10.93,25.88,-16.492,55.241,-24.574,16.175,4.4911,24.489,-3.4649,21.577,12.741,40.147,-16.009,13.573
1.4595,48.67,10.93,25.88,-16.492,55.241,-24.574,16.175,4.4911,24.489,-3.4649,21.577,12.741,40.147,-16.009,13.573
1.3224,49.016,10.891,26.026,-16.52,55.471,-24.807,16.347,4.2704,24.76,-3.6028,21.686,12.385,40.44,-16.401,13.647
1.3224,49.016,10.891,26.026,-16.52,55.471,-24.807,16.347,4.2704,24.76,-3.6028,21.686,12.385,40.44,-16.401,13.647
1.1853,49.362,10.852,26.171,-16.547,55.701,-25.039,16.519,4.0501,25.03,-3.7408,21.794,12.029,40.733,-16.792,13.72
1.1853,49.362,10.852,26.171,-16.547,55.701,-25.039,16.519,4.0501,25.03,-3.7408,21.794,12.029,40.733,-16.792,13.72
1.0481,49.706,10.813,26.317,-16.574,55.928,-25.271,16.691,3.8299,25.299,-3.879,21.902,11.673,41.024,-17.183,13.794
0.9109,50.05,10.773,26.462,-16.6,56.155,-25.503,16.864,3.6101,25.568,-4.0172,22.01,11.317,41.314,-17.573,13.868
0.9109,50.05,10.773,26.462,-16.6,56.155,-25.503,16.864,3.6101,25.568,-4.0172,22.01,11.317,41.314,-17.573,13.868
0.9109,50.05,10.773,26.462,-16.6,56.155,-25.503,16.864,3.6101,25.568,-4.0172,22.01,11.317,41.314,-17.573,13.868
0.77363,50.392,10.733,26.606,-16.626,56.38,-25.735,17.036,3.3905,25.836,-4.1555,22.118,10.961,41.603,-17.963,13.941
0.77363,50.392,10.733,26.606,-16.626,56.38,-25.735,17.036,3.3905,25.836,-4.1555,22.118,10.961,41.603,-17.963,13.941
0.77363,50.392,10.733,26.606,-16.626,56.38,-25.735,17.036,3.3905,25.836,-4.1555,22.118,10.961,41.603,-17.963,13.941
0.63633,50.733,10.692,26.751,-16.652,56.603,-25.966,17.209,3.1712,26.103,-4.294,22.225,10.606,41.89,-18.352,14.015
0.63633,50.733,10.692,26.751,-16.652,56.603,-25.966,17.209,3.1712,26.103,-4.294,22.225,10.606,41.89,-18.352,14.015
0.499,51.072,10.651,26.895,-16.678,56.825,-26.198,17.381,2.9523,26.369,-4.4325,22.332,10.25,42.177,-18.74,14.088
0.36164,51.411,10.61,27.038,-16.703,57.046,-26.428,17.554,2.7336,26.634,-4.5711,22.439,9.8945,42.462,-19.128,14.162
0.36164,51.411,10.61,27.038,-16.703,57.046,-26.428,17.554,2.7336,26.634,-4.5711,22.439,9.8945,42.462,-19.128,14.162
0.22427,51.748,10.568,27.182,-16.728,57.265,-26.659,17.726,2.5153,26.899,-4.7098,22.546,9.5391,42.746,-19.515,14.235
0.22427,51.748,10.568,27.182,-16.728,57.265,-26.659,17.726,2.5153,26.899,-4.7098,22.546,9.5391,42.746,-19.515,14.235
0.086882,52.084,10.525,27.324,-16.752,57.483,-26.889,17.899,2.2973,27.162,-4.8486,22.652,9.1839,43.028,-19.901,14.309
0.086882,52.084,10.525,27.324,-16.752,57.483,-26.889,17.899,2.2973,27.162,-4.8486,22.652,9.1839,43.028,-19.901,14.309
-0.050513,52.418,10.482,27.467,-16.776,57.699,-27.119,18.071,2.0796,27.425,-4.9874,22.757,8.8289,43.309,-20.286,14.382
-0.050513,52.418,10.482,27.467,-16.776,57.699,-27.119,18.071,2.0796,27.425,-4.9874,22.757,8.8289,43.309,-20.286,14.382
-0.18791,52.751,10.439,27.609,-16.8,57.913,-27.349,18.243,1.8623,27.687,-5.1263,22.863,8.4741,43.59,-20.671,14.456
-0.18791,52.751,10.439,27.609,-16.8,57.913,-27.349,18.243,1.8623,27.687,-5.1263,22.863,8.4741,43.59,-20.671,14.456
-0.32531,53.083,10.395,27.751,-16.824,58.126,-27.578,18.416,1.6453,27.948,-5.2652,22.967,8.1195,43.868,-21.055,14.529
-0.32531,53.083,10.395,27.751,-16.824,58.126,-27.578,18.416,1.6453,27.948,-5.2652,22.967,8.1195,43.868,-21.055,14.529
-0.4627,53.414,10.351,27.892,-16.847,58.338,-27.807,18.588,1.4287,28.208,-5.4042,23.072,7.7652,44.146,-21.439,14.602
-0.4627,53.414,10.351,27.892,-16.847,58.338,-27.807,18.588,1.4287,28.208,-5.4042,23.072,7.7652,44.146,-21.439,14.602
-0.60007,53.743,10.306,28.033,-16.87,58.548,-28.036,18.76,1.2125,28.467,-5.5432,23.176,7.4112,44.422,-21.821,14.675
-0.60007,53.743,10.306,28.033,-16.87,58.548,-28.036,18.76,1.2125,28.467,-5.5432,23.176,7.4112,44.422,-21.821,14.675
-0.60007,53.743,10.306,28.033,-16.87,58.548,-28.036,18.76,1.2125,28.467,-5.5432,23.176,7.4112,44.422,-21.821,14.675
-0.73742,54.07,10.261,28.174,-16.892,58.756,-28.264,18.932,0.99665,28.726,-5.6823,23.28,7.0574,44.697,-22.203,14.749
-0.87475,54.397,10.215,28.314,-16.914,58.963,-28.492,19.104,0.78122,28.983,-5.8213,23.383,6.704,44.97,-22.584,14.822
-0.87475,54.397,10.215,28.314,-16.914,58.963,-28.492,19.104,0.78122,28.983,-5.8213,23.383,6.704,44.97,-22.584,14.822
-1.0121,54.721,10.169,28.453,-16.936,59.168,-28.72,19.276,0.5662,29.239,-5.9604,23.486,6.3509,45.243,-22.964,14.895
-1.0121,54.721,10.169,28.453,-16.936,59.168,-28.72,19.276,0.5662,29.239,-5.9604,23.486,6.3509,45.243,-22.964,14.895
-1.1493,55.045,10.122,28.592,-16.958,59.372,-28.947,19.447,0.35159,29.495,-6.0995,23.589,5.9982,45.514,-23.343,14.968
-1.1493,55.045,10.122,28.592,-16.958,59.372,-28.947,19.447,0.35159,29.495,-6.0995,23.589,5.9982,45.514,-23.343,14.968
-1.2865,55.367,10.076,28.731,-16.979,59.573,-29.174,19.619,0.13741,29.749,-6.2386,23.691,5.6459,45.783,-23.721,15.04
-1.2865,55.367,10.076,28.731,-16.979,59.573,-29.174,19.619,0.13741,29.749,-6.2386,23.691,5.6459,45.783,-23.721,15.04
-1.4237,55.687,10.028,28.869,-17,59.774,-29.401,19.79,-0.076332,30.003,-6.3776,23.792,5.294,46.051,-24.098,15.113
-1.4237,55.687,10.028,28.869,-17,59.774,-29.401,19.79,-0.076332,30.003,-6.3776,23.792,5.294,46.051,-24.098,15.113
-1.4237,55.687,10.028,28.869,-17,59.774,-29.401,19.79,-0.076332,30.003,-6.3776,23.792,5.294,46.051,-24.098,15.113
-1.4237,55.687,10.028,28.869,-17,59.774,-29.401,19.79,-0.076332,30.003,-6.3776,23.792,5.294,46.051,-24.098,15.113
-1.5608,56.006,9.9803,29.007,-17.02,59.972,-29.627,19.961,-0.28963,30.255,-6.5167,23.894,4.9425,46.318,-24.475,15.186
-1.5608,56.006,9.9803,29.007,-17.02,59.972,-29.627,19.961,-0.28963,30.255,-6.5167,23.894,4.9425,46.318,-24.475,15.186
-1.8349,56.639,9.8833,29.28,-17.06,60.365,-30.078,20.302,-0.71485,30.757,-6.7947,24.095,4.2409,46.848,-25.225,15.33
-1.8349,56.639,9.8833,29.28,-17.06,60.365,-30.078,20.302,-0.71485,30.757,-6.7947,24.095,4.2409,46.848,-25.225,15.33
-1.8349,56.639,9.8833,29.28,-17.06,60.365,-30.078,20.302,-0.71485,30.757,-6.7947,24.095,4.2409,46.848,-25.225,15.33
-1.9718,56.954,9.8342,29.416,-17.079,60.558,-30.303,20.473,-0.92675,31.006,-6.9337,24.194,3.8909,47.11,-25.598,15.403
-1.9718,56.954,9.8342,29.416,-17.079,60.558,-30.303,20.473,-0.92675,31.006,-6.9337,24.194,3.8909,47.11,-25.598,15.403
-2.1087,57.266,9.7846,29.552,-17.098,60.75,-30.528,20.643,-1.1382,31.255,-7.0726,24.294,3.5414,47.371,-25.971,15.475
-2.1087,57.266,9.7846,29.552,-17.098,60.75,-30.528,20.643,-1.1382,31.255,-7.0726,24.294,3.5414,47.371,-25.971,15.475
-2.2454,57.577,9.7346,29.687,-17.117,60.94,-30.752,20.813,-1.3491,31.502,-7.2115,24.392,3.1924,47.631,-26.343,15.547
-2.2454,57.577,9.7346,29.687,-17.117,60.94,-30.752,20.813,-1.3491,31.502,-7.2115,24.392,3.1924,47.631,-26.343,15.547
-2.2454,57.577,9.7346,29.687,-17.117,60.94,-30.752,20.813,-1.3491,31.502,-7.2115,24.392,3.1924,47.631,-26.343,15.547
-2.2454,57.577,9.7346,29.687,-17.117,60.94,-30.752,20.813,-1.3491,31.502,-7.2115,24.392,3.1924,47.631,-26.343,15.547
-2.5187,58.195,9.6333,29.955,-17.153,61.315,-31.199,21.152,-1.7694,31.993,-7.489,24.588,2.4961,48.146,-27.083,15.69
-2.5187,58.195,9.6333,29.955,-17.153,61.315,-31.199,21.152,-1.7694,31.993,-7.489,24.588,2.4961,48.146,-27.083,15.69
-2.5187,58.195,9.6333,29.955,-17.153,61.315,-31.199,21.152,-1.7694,31.993,-7.489,24.588,2.4961,48.146,-27.083,15.69
-2.7916,58.805,9.5303,30.221,-17.188,61.683,-31.645,21.489,-2.1877,32.48,-7.7663,24.782,1.8023,48.656,-27.819,15.833
-2.7916,58.805,9.5303,30.221,-17.188,61.683,-31.645,21.489,-2.1877,32.48,-7.7663,24.782,1.8023,48.656,-27.819,15.833
-2.7916,58.805,9.5303,30.221,-17.188,61.683,-31.645,21.489,-2.1877,32.48,-7.7663,24.782,1.8023,48.656,-27.819,15.833
-2.9278,59.108,9.4782,30.353,-17.205,61.864,-31.867,21.657,-2.396,32.721,-7.9047,24.878,1.4564,48.909,-28.185,15.904
-3.064,59.409,9.4257,30.484,-17.222,62.044,-32.088,21.825,-2.6038,32.962,-8.0431,24.974,1.1111,49.16,-28.55,15.975
-3.064,59.409,9.4257,30.484,-17.222,62.044,-32.088,21.825,-2.6038,32.962,-8.0431,24.974,1.1111,49.16,-28.55,15.975
-3.2,59.709,9.3727,30.615,-17.238,62.222,-32.309,21.993,-2.811,33.201,-8.1814,25.069,0.76657,49.409,-28.914,16.046
-3.2,59.709,9.3727,30.615,-17.238,62.222,-32.309,21.993,-2.811,33.201,-8.1814,25.069,0.76657,49.409,-28.914,16.046
-3.3359,60.006,9.3194,30.745,-17.253,62.398,-32.53,22.16,-3.0177,33.439,-8.3195,25.163,0.42273,49.657,-29.277,16.116
-3.3359,60.006,9.3194,30.745,-17.253,62.398,-32.53,22.16,-3.0177,33.439,-8.3195,25.163,0.42273,49.657,-29.277,16.116
-3.3359,60.006,9.3194,30.745,-17.253,62.398,-32.53,22.16,-3.0177,33.439,-8.3195,25.163,0.42273,49.657,-29.277,16.116
-3.4717,60.302,9.2656,30.874,-17.269,62.572,-32.75,22.326,-3.2237,33.676,-8.4576,25.257,0.079641,49.904,-29.639,16.187
-3.4717,60.302,9.2656,30.874,-17.269,62.572,-32.75,22.326,-3.2237,33.676,-8.4576,25.257,0.079641,49.904,-29.639,16.187
-3.6073,60.596,9.2114,31.003,-17.284,62.744,-32.97,22.493,-3.4292,33.912,-8.5955,25.35,-0.26269,50.149,-30,16.257
-3.7428,60.889,9.1568,31.131,-17.298,62.914,-33.189,22.658,-3.6341,34.147,-8.7332,25.443,-0.60423,50.393,-30.359,16.327
-3.8781,61.179,9.1018,31.258,-17.313,63.083,-33.408,22.824,-3.8384,34.38,-8.8709,25.535,-0.94496,50.635,-30.717,16.397
-3.8781,61.179,9.1018,31.258,-17.313,63.083,-33.408,22.824,-3.8384,34.38,-8.8709,25.535,-0.94496,50.635,-30.717,16.397
-3.8781,61.179,9.1018,31.258,-17.313,63.083,-33.408,22.824,-3.8384,34.38,-8.8709,25.535,-0.94496,50.635,-30.717,16.397
-4.0133,61.468,9.0464,31.385,-17.326,63.249,-33.626,22.989,-4.0421,34.612,-9.0083,25.626,-1.2849,50.875,-31.074,16.466
-4.0133,61.468,9.0464,31.385,-17.326,63.249,-33.626,22.989,-4.0421,34.612,-9.0083,25.626,-1.2849,50.875,-31.074,16.466
-4.1483,61.754,8.9907,31.511,-17.34,63.414,-33.843,23.153,-4.2451,34.843,-9.1456,25.717,-1.6239,51.114,-31.43,16.536
-4.1483,61.754,8.9907,31.511,-17.34,63.414,-33.843,23.153,-4.2451,34.843,-9.1456,25.717,-1.6239,51.114,-31.43,16.536
-4.2831,62.039,8.9345,31.636,-17.353,63.577,-34.06,23.317,-4.4475,35.073,-9.2828,25.807,-1.9621,51.351,-31.784,16.605
-4.2831,62.039,8.9345,31.636,-17.353,63.577,-34.06,23.317,-4.4475,35.073,-9.2828,25.807,-1.9621,51.351,-31.784,16.605
-4.4177,62.322,8.8779,31.76,-17.366,63.738,-34.277,23.48,-4.6493,35.301,-9.4197,25.896,-2.2993,51.587,-32.137,16.673
-4.5522,62.603,8.8209,31.884,-17.378,63.896,-34.493,23.643,-4.8504,35.528,-9.5565,25.985,-2.6357,51.822,-32.489,16.742
-4.5522,62.603,8.8209,31.884,-17.378,63.896,-34.493,23.643,-4.8504,35.528,-9.5565,25.985,-2.6357,51.822,-32.489,16.742
-4.5522,62.603,8.8209,31.884,-17.378,63.896,-34.493,23.643,-4.8504,35.528,-9.5565,25.985,-2.6357,51.822,-32.489,16.742
-4.6864,62.883,8.7636,32.007,-17.39,64.053,-34.708,23.805,-5.0509,35.753,-9.693,26.073,-2.9711,52.054,-32.84,16.81
-4.6864,62.883,8.7636,32.007,-17.39,64.053,-34.708,23.805,-5.0509,35.753,-9.693,26.073,-2.9711,52.054,-32.84,16.81
-4.8205,63.16,8.7058,32.129,-17.401,64.208,-34.923,23.967,-5.2507,35.978,-9.8294,26.16,-3.3055,52.285,-33.189,16.878
-4.8205,63.16,8.7058,32.129,-17.401,64.208,-34.923,23.967,-5.2507,35.978,-9.8294,26.16,-3.3055,52.285,-33.189,16.878
-4.8205,63.16,8.7058,32.129,-17.401,64.208,-34.923,23.967,-5.2507,35.978,-9.8294,26.16,-3.3055,52.285,-33.189,16.878
-4.9544,63.435,8.6477,32.25,-17.412,64.362,-35.138,24.128,-5.4498,36.201,-9.9656,26.247,-3.639,52.515,-33.537,16.946
-5.088,63.708,8.5892,32.371,-17.423,64.513,-35.351,24.288,-5.6483,36.423,-10.102,26.333,-3.9714,52.743,-33.883,17.014
-5.088,63.708,8.5892,32.371,-17.423,64.513,-35.351,24.288,-5.6483,36.423,-10.102,26.333,-3.9714,52.743,-33.883,17.014
-5.2214,63.98,8.5303,32.49,-17.433,64.662,-35.564,24.448,-5.846,36.643,-10.237,26.419,-4.3029,52.969,-34.229,17.081
-5.2214,63.98,8.5303,32.49,-17.433,64.662,-35.564,24.448,-5.846,36.643,-10.237,26.419,-4.3029,52.969,-34.229,17.081
-5.2214,63.98,8.5303,32.49,-17.433,64.662,-35.564,24.448,-5.846,36.643,-10.237,26.419,-4.3029,52.969,-34.229,17.081
-5.2214,63.98,8.5303,32.49,-17.433,64.662,-35.564,24.448,-5.846,36.643,-10.237,26.419,-4.3029,52.969,-34.229,17.081
-5.4876,64.516,8.4114,32.728,-17.452,64.954,-35.989,24.766,-6.2394,37.079,-10.508,26.587,-4.9625,53.417,-34.915,17.214
-5.4876,64.516,8.4114,32.728,-17.452,64.954,-35.989,24.766,-6.2394,37.079,-10.508,26.587,-4.9625,53.417,-34.915,17.214
-5.6203,64.782,8.3514,32.845,-17.461,65.097,-36.2,24.924,-6.435,37.296,-10.643,26.67,-5.2907,53.638,-35.256,17.281
-5.6203,64.782,8.3514,32.845,-17.461,65.097,-36.2,24.924,-6.435,37.296,-10.643,26.67,-5.2907,53.638,-35.256,17.281
-5.7528,65.045,8.2911,32.961,-17.47,65.238,-36.411,25.081,-6.6299,37.51,-10.778,26.752,-5.6178,53.858,-35.595,17.347
-5.7528,65.045,8.2911,32.961,-17.47,65.238,-36.411,25.081,-6.6299,37.51,-10.778,26.752,-5.6178,53.858,-35.595,17.347
-5.8851,65.306,8.2304,33.077,-17.478,65.377,-36.621,25.238,-6.8241,37.724,-10.912,26.834,-5.9437,54.076,-35.933,17.412
-5.8851,65.306,8.2304,33.077,-17.478,65.377,-36.621,25.238,-6.8241,37.724,-10.912,26.834,-5.9437,54.076,-35.933,17.412
-6.0171,65.565,8.1693,33.191,-17.485,65.514,-36.83,25.393,-7.0175,37.936,-11.046,26.915,-6.2685,54.292,-36.27,17.478
-6.0171,65.565,8.1693,33.191,-17.485,65.514,-36.83,25.393,-7.0175,37.936,-11.046,26.915,-6.2685,54.292,-36.27,17.478
-6.1488,65.822,8.1079,33.305,-17.493,65.649,-37.039,25.548,-7.2101,38.146,-11.18,26.995,-6.5921,54.507,-36.605,17.543
-6.1488,65.822,8.1079,33.305,-17.493,65.649,-37.039,25.548,-7.2101,38.146,-11.18,26.995,-6.5921,54.507,-36.605,17.543
-6.1488,65.822,8.1079,33.305,-17.493,65.649,-37.039,25.548,-7.2101,38.146,-11.18,26.995,-6.5921,54.507,-36.605,17.543
-6.1488,65.822,8.1079,33.305,-17.493,65.649,-37.039,25.548,-7.2101,38.146,-11.18,26.995,-6.5921,54.507,-36.605,17.543
-6.4114,66.329,7.984,33.53,-17.506,65.912,-37.455,25.856,-7.5931,38.563,-11.447,27.153,-7.2357,54.932,-37.27,17.672
-6.4114,66.329,7.984,33.53,-17.506,65.912,-37.455,25.856,-7.5931,38.563,-11.447,27.153,-7.2357,54.932,-37.27,17.672
-6.4114,66.329,7.984,33.53,-17.506,65.912,-37.455,25.856,-7.5931,38.563,-11.447,27.153,-7.2357,54.932,-37.27,17.672
-6.5423,66.579,7.9215,33.641,-17.512,66.04,-37.662,26.009,-7.7835,38.769,-11.58,27.23,-7.5556,55.141,-37.6,17.736
-6.5423,66.579,7.9215,33.641,-17.512,66.04,-37.662,26.009,-7.7835,38.769,-11.58,27.23,-7.5556,55.141,-37.6,17.736
-6.5423,66.579,7.9215,33.641,-17.512,66.04,-37.662,26.009,-7.7835,38.769,-11.58,27.23,-7.5556,55.141,-37.6,17.736
-6.8031,67.074,7.7955,33.86,-17.522,66.291,-38.073,26.312,-8.1618,39.177,-11.845,27.383,-8.1917,55.556,-38.257,17.862
-6.8031,67.074,7.7955,33.86,-17.522,66.291,-38.073,26.312,-8.1618,39.177,-11.845,27.383,-8.1917,55.556,-38.257,17.862
-6.9331,67.318,7.732,33.969,-17.527,66.413,-38.278,26.463,-8.3497,39.378,-11.977,27.458,-8.5077,55.76,-38.582,17.925
-6.9331,67.318,7.732,33.969,-17.527,66.413,-38.278,26.463,-8.3497,39.378,-11.977,27.458,-8.5077,55.76,-38.582,17.925
-7.0628,67.559,7.6682,34.076,-17.531,66.533,-38.482,26.612,-8.5368,39.578,-12.109,27.533,-8.8225,55.963,-38.906,17.988
-7.0628,67.559,7.6682,34.076,-17.531,66.533,-38.482,26.612,-8.5368,39.578,-12.109,27.533,-8.8225,55.963,-38.906,17.988
-7.1922,67.799,7.6041,34.182,-17.534,66.651,-38.685,26.761,-8.7232,39.777,-12.24,27.606,-9.1359,56.164,-39.229,18.05
-7.1922,67.799,7.6041,34.182,-17.534,66.651,-38.685,26.761,-8.7232,39.777,-12.24,27.606,-9.1359,56.164,-39.229,18.05
-7.3212,68.036,7.5396,34.287,-17.538,66.767,-38.888,26.908,-8.9086,39.974,-12.371,27.679,-9.4479,56.364,-39.55,18.111
-7.3212,68.036,7.5396,34.287,-17.538,66.767,-38.888,26.908,-8.9086,39.974,-12.371,27.679,-9.4479,56.364,-39.55,18.111
-7.4499,68.271,7.4749,34.392,-17.54,66.88,-39.09,27.055,-9.0933,40.169,-12.502,27.751,-9.7585,56.562,-39.869,18.173
-7.4499,68.271,7.4749,34.392,-17.54,66.88,-39.09,27.055,-9.0933,40.169,-12.502,27.751,-9.7585,56.562,-39.869,18.173
-7.4499,68.271,7.4749,34.392,-17.54,66.88,-39.09,27.055,-9.0933,40.169,-12.502,27.751,-9.7585,56.562,-39.869,18.173
-7.5782,68.503,7.4098,34.495,-17.543,66.992,-39.291,27.201,-9.2771,40.363,-12.632,27.822,-10.068,56.758,-40.186,18.233
-7.5782,68.503,7.4098,34.495,-17.543,66.992,-39.291,27.201,-9.2771,40.363,-12.632,27.822,-10.068,56.758,-40.186,18.233
-7.5782,68.503,7.4098,34.495,-17.543,66.992,-39.291,27.201,-9.2771,40.363,-12.632,27.822,-10.068,56.758,-40.186,18.233
-7.8339,68.961,7.2786,34.699,-17.546,67.208,-39.691,27.491,-9.6421,40.746,-12.891,27.961,-10.682,57.144,-40.816,18.354
-7.8339,68.961,7.2786,34.699,-17.546,67.208,-39.691,27.491,-9.6421,40.746,-12.891,27.961,-10.682,57.144,-40.816,18.354
-7.9611,69.187,7.2126,34.799,-17.547,67.313,-39.89,27.634,-9.8233,40.935,-13.02,28.029,-10.987,57.335,-41.129,18.413
-7.9611,69.187,7.2126,34.799,-17.547,67.313,-39.89,27.634,-9.8233,40.935,-13.02,28.029,-10.987,57.335,-41.129,18.413
-8.088,69.41,7.1463,34.898,-17.547,67.415,-40.088,27.776,-10.004,41.122,-13.149,28.096,-11.29,57.524,-41.439,18.473
-8.088,69.41,7.1463,34.898,-17.547,67.415,-40.088,27.776,-10.004,41.122,-13.149,28.096,-11.29,57.524,-41.439,18.473
-8.088,69.41,7.1463,34.898,-17.547,67.415,-40.088,27.776,-10.004,41.122,-13.149,28.096,-11.29,57.524,-41.439,18.473
-8.2146,69.631,7.0797,34.996,-17.547,67.515,-40.285,27.917,-10.183,41.308,-13.277,28.163,-11.592,57.711,-41.748,18.531
-8.2146,69.631,7.0797,34.996,-17.547,67.515,-40.285,27.917,-10.183,41.308,-13.277,28.163,-11.592,57.711,-41.748,18.531
-8.3407,69.849,7.0128,35.093,-17.546,67.613,-40.481,28.057,-10.362,41.492,-13.405,28.228,-11.892,57.896,-42.055,18.589
-8.3407,69.849,7.0128,35.093,-17.546,67.613,-40.481,28.057,-10.362,41.492,-13.405,28.228,-11.892,57.896,-42.055,18.589
-8.3407,69.849,7.0128,35.093,-17.546,67.613,-40.481,28.057,-10.362,41.492,-13.405,28.228,-11.892,57.896,-42.055,18.589
-8.5918,70.279,6.8782,35.284,-17.543,67.803,-40.872,28.335,-10.716,41.856,-13.659,28.356,-12.488,58.262,-42.664,18.705
-8.5918,70.279,6.8782,35.284,-17.543,67.803,-40.872,28.335,-10.716,41.856,-13.659,28.356,-12.488,58.262,-42.664,18.705
-8.5918,70.279,6.8782,35.284,-17.543,67.803,-40.872,28.335,-10.716,41.856,-13.659,28.356,-12.488,58.262,-42.664,18.705
-8.7168,70.49,6.8104,35.378,-17.541,67.894,-41.066,28.472,-10.892,42.035,-13.786,28.419,-12.784,58.442,-42.966,18.761
-8.7168,70.49,6.8104,35.378,-17.541,67.894,-41.066,28.472,-10.892,42.035,-13.786,28.419,-12.784,58.442,-42.966,18.761
-8.8413,70.699,6.7424,35.471,-17.539,67.983,-41.259,28.608,-11.067,42.213,-13.912,28.48,-13.078,58.62,-43.266,18.818
-8.9654,70.905,6.6741,35.563,-17.536,68.07,-41.451,28.743,-11.241,42.388,-14.038,28.541,-13.37,58.796,-43.564,18.874
-8.9654,70.905,6.6741,35.563,-17.536,68.07,-41.451,28.743,-11.241,42.388,-14.038,28.541,-13.37,58.796,-43.564,18.874
-8.9654,70.905,6.6741,35.563,-17.536,68.07,-41.451,28.743,-11.241,42.388,-14.038,28.541,-13.37,58.796,-43.564,18.874
-9.0891,71.109,6.6056,35.653,-17.532,68.154,-41.643,28.877,-11.414,42.563,-14.163,28.6,-13.661,58.971,-43.86,18.929
-9.0891,71.109,6.6056,35.653,-17.532,68.154,-41.643,28.877,-11.414,42.563,-14.163,28.6,-13.661,58.971,-43.86,18.929
-9.2123,71.31,6.5368,35.742,-17.528,68.236,-41.833,29.01,-11.586,42.735,-14.287,28.659,-13.95,59.143,-44.155,18.984
-9.3351,71.509,6.4677,35.831,-17.523,68.316,-42.023,29.141,-11.757,42.906,-14.411,28.717,-14.237,59.314,-44.447,19.038
-9.3351,71.509,6.4677,35.831,-17.523,68.316,-42.023,29.141,-11.757,42.906,-14.411,28.717,-14.237,59.314,-44.447,19.038
-9.3351,71.509,6.4677,35.831,-17.523,68.316,-42.023,29.141,-11.757,42.906,-14.411,28.717,-14.237,59.314,-44.447,19.038
-9.4575,71.705,6.3984,35.918,-17.518,68.394,-42.212,29.272,-11.927,43.075,-14.535,28.773,-14.523,59.483,-44.738,19.092
-9.4575,71.705,6.3984,35.918,-17.518,68.394,-42.212,29.272,-11.927,43.075,-14.535,28.773,-14.523,59.483,-44.738,19.092
-9.7008,72.09,6.259,36.088,-17.506,68.541,-42.587,29.529,-12.265,43.408,-14.781,28.883,-15.089,59.816,-45.313,19.198
-9.7008,72.09,6.259,36.088,-17.506,68.541,-42.587,29.529,-12.265,43.408,-14.781,28.883,-15.089,59.816,-45.313,19.198
-9.7008,72.09,6.259,36.088,-17.506,68.541,-42.587,29.529,-12.265,43.408,-14.781,28.883,-15.089,59.816,-45.313,19.198
-9.8217,72.279,6.189,36.172,-17.499,68.612,-42.773,29.656,-12.432,43.571,-14.903,28.937,-15.369,59.979,-45.598,19.25
-9.8217,72.279,6.189,36.172,-17.499,68.612,-42.773,29.656,-12.432,43.571,-14.903,28.937,-15.369,59.979,-45.598,19.25
-9.9421,72.465,6.1187,36.254,-17.492,68.68,-42.958,29.782,-12.598,43.733,-15.024,28.99,-15.648,60.141,-45.881,19.302
-9.9421,72.465,6.1187,36.254,-17.492,68.68,-42.958,29.782,-12.598,43.733,-15.024,28.99,-15.648,60.141,-45.881,19.302
-9.9421,72.465,6.1187,36.254,-17.492,68.68,-42.958,29.782,-12.598,43.733,-15.024,28.99,-15.648,60.141,-45.881,19.302
-10.062,72.649,6.0483,36.335,-17.484,68.746,-43.143,29.907,-12.763,43.893,-15.145,29.041,-15.925,60.301,-46.162,19.353
-10.182,72.829,5.9775,36.415,-17.476,68.809,-43.326,30.03,-12.928,44.052,-15.266,29.091,-16.2,60.459,-46.441,19.404
-10.182,72.829,5.9775,36.415,-17.476,68.809,-43.326,30.03,-12.928,44.052,-15.266,29.091,-16.2,60.459,-46.441,19.404
-10.301,73.008,5.9066,36.494,-17.467,68.87,-43.508,30.153,-13.091,44.208,-15.386,29.141,-16.473,60.615,-46.718,19.454
-10.301,73.008,5.9066,36.494,-17.467,68.87,-43.508,30.153,-13.091,44.208,-15.386,29.141,-16.473,60.615,-46.718,19.454
-10.419,73.183,5.8355,36.572,-17.458,68.929,-43.69,30.273,-13.253,44.363,-15.505,29.189,-16.744,60.769,-46.993,19.504
-10.419,73.183,5.8355,36.572,-17.458,68.929,-43.69,30.273,-13.253,44.363,-15.505,29.189,-16.744,60.769,-46.993,19.504
-10.537,73.356,5.7641,36.648,-17.448,68.985,-43.87,30.393,-13.414,44.516,-15.624,29.236,-17.013,60.921,-47.266,19.553
-10.537,73.356,5.7641,36.648,-17.448,68.985,-43.87,30.393,-13.414,44.516,-15.624,29.236,-17.013,60.921,-47.266,19.553
-10.537,73.356,5.7641,36.648,-17.448,68.985,-43.87,30.393,-13.414,44.516,-15.624,29.236,-17.013,60.921,-47.266,19.553
-10.654,73.527,5.6926,36.723,-17.437,69.039,-44.05,30.512,-13.574,44.667,-15.742,29.282,-17.281,61.071,-47.537,19.601
-10.771,73.694,5.6208,36.797,-17.426,69.091,-44.228,30.629,-13.734,44.817,-15.86,29.327,-17.546,61.22,-47.806,19.649
-10.771,73.694,5.6208,36.797,-17.426,69.091,-44.228,30.629,-13.734,44.817,-15.86,29.327,-17.546,61.22,-47.806,19.649
-10.887,73.859,5.5489,36.869,-17.415,69.14,-44.406,30.744,-13.892,44.964,-15.977,29.371,-17.81,61.367,-48.073,19.696
-10.887,73.859,5.5489,36.869,-17.415,69.14,-44.406,30.744,-13.892,44.964,-15.977,29.371,-17.81,61.367,-48.073,19.696
-11.003,74.022,5.4768,36.941,-17.402,69.187,-44.582,30.859,-14.049,45.11,-16.093,29.414,-18.072,61.511,-48.337,19.742
-11.003,74.022,5.4768,36.941,-17.402,69.187,-44.582,30.859,-14.049,45.11,-16.093,29.414,-18.072,61.511,-48.337,19.742
-11.003,74.022,5.4768,36.941,-17.402,69.187,-44.582,30.859,-14.049,45.11,-16.093,29.414,-18.072,61.511,-48.337,19.742
-11.118,74.181,5.4045,37.011,-17.389,69.231,-44.758,30.972,-14.205,45.254,-16.209,29.455,-18.332,61.654,-48.6,19.788
-11.118,74.181,5.4045,37.011,-17.389,69.231,-44.758,30.972,-14.205,45.254,-16.209,29.455,-18.332,61.654,-48.6,19.788
-11.233,74.338,5.332,37.079,-17.376,69.273,-44.932,31.084,-14.36,45.396,-16.324,29.496,-18.589,61.795,-48.861,19.834
-11.347,74.492,5.2594,37.147,-17.362,69.312,-45.106,31.194,-14.513,45.536,-16.439,29.535,-18.845,61.934,-49.119,19.879
-11.347,74.492,5.2594,37.147,-17.362,69.312,-45.106,31.194,-14.513,45.536,-16.439,29.535,-18.845,61.934,-49.119,19.879
-11.347,74.492,5.2594,37.147,-17.362,69.312,-45.106,31.194,-14.513,45.536,-16.439,29.535,-18.845,61.934,-49.119,19.879
-11.46,74.644,5.1866,37.213,-17.348,69.349,-45.278,31.303,-14.666,45.674,-16.553,29.573,-19.099,62.071,-49.375,19.923
-11.46,74.644,5.1866,37.213,-17.348,69.349,-45.278,31.303,-14.666,45.674,-16.553,29.573,-19.099,62.071,-49.375,19.923
-11.46,74.644,5.1866,37.213,-17.348,69.349,-45.278,31.303,-14.666,45.674,-16.553,29.573,-19.099,62.071,-49.375,19.923
-11.685,74.938,5.0405,37.341,-17.317,69.416,-45.62,31.517,-14.968,45.944,-16.779,29.646,-19.6,62.339,-49.882,20.009
-11.685,74.938,5.0405,37.341,-17.317,69.416,-45.62,31.517,-14.968,45.944,-16.779,29.646,-19.6,62.339,-49.882,20.009
-11.797,75.081,4.9673,37.403,-17.301,69.446,-45.789,31.622,-15.118,46.077,-16.891,29.681,-19.848,62.471,-50.132,20.051
-11.797,75.081,4.9673,37.403,-17.301,69.446,-45.789,31.622,-15.118,46.077,-16.891,29.681,-19.848,62.471,-50.132,20.051
-11.797,75.081,4.9673,37.403,-17.301,69.446,-45.789,31.622,-15.118,46.077,-16.891,29.681,-19.848,62.471,-50.132,20.051
-11.908,75.222,4.8939,37.464,-17.284,69.473,-45.957,31.725,-15.266,46.207,-17.002,29.715,-20.094,62.6,-50.379,20.093
-11.908,75.222,4.8939,37.464,-17.284,69.473,-45.957,31.725,-15.266,46.207,-17.002,29.715,-20.094,62.6,-50.379,20.093
-11.908,75.222,4.8939,37.464,-17.284,69.473,-45.957,31.725,-15.266,46.207,-17.002,29.715,-20.094,62.6,-50.379,20.093
-12.128,75.494,4.7467,37.582,-17.248,69.52,-46.29,31.928,-15.56,46.462,-17.223,29.778,-20.578,62.853,-50.868,20.174
-12.128,75.494,4.7467,37.582,-17.248,69.52,-46.29,31.928,-15.56,46.462,-17.223,29.778,-20.578,62.853,-50.868,20.174
-12.128,75.494,4.7467,37.582,-17.248,69.52,-46.29,31.928,-15.56,46.462,-17.223,29.778,-20.578,62.853,-50.868,20.174
-12.237,75.626,4.6729,37.639,-17.23,69.54,-46.454,32.027,-15.705,46.587,-17.332,29.808,-20.818,62.977,-51.11,20.214
-12.237,75.626,4.6729,37.639,-17.23,69.54,-46.454,32.027,-15.705,46.587,-17.332,29.808,-20.818,62.977,-51.11,20.214
-12.346,75.755,4.599,37.694,-17.21,69.557,-46.618,32.124,-15.849,46.71,-17.441,29.837,-21.055,63.098,-51.349,20.253
-12.346,75.755,4.599,37.694,-17.21,69.557,-46.618,32.124,-15.849,46.71,-17.441,29.837,-21.055,63.098,-51.349,20.253
-12.346,75.755,4.599,37.694,-17.21,69.557,-46.618,32.124,-15.849,46.71,-17.441,29.837,-21.055,63.098,-51.349,20.253
-12.561,76.005,4.4508,37.801,-17.17,69.585,-46.942,32.315,-16.133,46.95,-17.656,29.891,-21.523,63.336,-51.82,20.328
-12.561,76.005,4.4508,37.801,-17.17,69.585,-46.942,32.315,-16.133,46.95,-17.656,29.891,-21.523,63.336,-51.82,20.328
-12.667,76.125,4.3766,37.852,-17.149,69.595,-47.102,32.408,-16.274,47.067,-17.762,29.916,-21.753,63.452,-52.052,20.365
-12.667,76.125,4.3766,37.852,-17.149,69.595,-47.102,32.408,-16.274,47.067,-17.762,29.916,-21.753,63.452,-52.052,20.365
-12.667,76.125,4.3766,37.852,-17.149,69.595,-47.102,32.408,-16.274,47.067,-17.762,29.916,-21.753,63.452,-52.052,20.365
-12.773,76.243,4.3023,37.902,-17.127,69.602,-47.261,32.499,-16.413,47.181,-17.868,29.94,-21.981,63.566,-52.282,20.402
-12.773,76.243,4.3023,37.902,-17.127,69.602,-47.261,32.499,-16.413,47.181,-17.868,29.94,-21.981,63.566,-52.282,20.402
-12.878,76.358,4.2279,37.951,-17.105,69.607,-47.419,32.589,-16.551,47.294,-17.973,29.963,-22.208,63.678,-52.51,20.437
-12.878,76.358,4.2279,37.951,-17.105,69.607,-47.419,32.589,-16.551,47.294,-17.973,29.963,-22.208,63.678,-52.51,20.437
-12.878,76.358,4.2279,37.951,-17.105,69.607,-47.419,32.589,-16.551,47.294,-17.973,29.963,-22.208,63.678,-52.51,20.437
-12.878,76.358,4.2279,37.951,-17.105,69.607,-47.419,32.589,-16.551,47.294,-17.973,29.963,-22.208,63.678,-52.51,20.437
-13.086,76.579,4.0788,38.044,-17.058,69.61,-47.732,32.764,-16.824,47.514,-18.181,30.005,-22.653,63.896,-52.958,20.506
-13.086,76.579,4.0788,38.044,-17.058,69.61,-47.732,32.764,-16.824,47.514,-18.181,30.005,-22.653,63.896,-52.958,20.506
-13.189,76.685,4.0042,38.088,-17.034,69.607,-47.886,32.85,-16.959,47.621,-18.284,30.024,-22.873,64.002,-53.179,20.54
-13.189,76.685,4.0042,38.088,-17.034,69.607,-47.886,32.85,-16.959,47.621,-18.284,30.024,-22.873,64.002,-53.179,20.54
-13.291,76.788,3.9295,38.131,-17.009,69.602,-48.039,32.933,-17.092,47.726,-18.386,30.041,-23.09,64.106,-53.398,20.572
-13.291,76.788,3.9295,38.131,-17.009,69.602,-48.039,32.933,-17.092,47.726,-18.386,30.041,-23.09,64.106,-53.398,20.572
-13.291,76.788,3.9295,38.131,-17.009,69.602,-48.039,32.933,-17.092,47.726,-18.386,30.041,-23.09,64.106,-53.398,20.572
-13.493,76.985,3.7799,38.213,-16.958,69.585,-48.342,33.096,-17.356,47.93,-18.587,30.073,-23.517,64.308,-53.828,20.635
-13.493,76.985,3.7799,38.213,-16.958,69.585,-48.342,33.096,-17.356,47.93,-18.587,30.073,-23.517,64.308,-53.828,20.635
-13.593,77.08,3.705,38.251,-16.931,69.573,-48.491,33.174,-17.486,48.029,-18.687,30.087,-23.728,64.406,-54.04,20.666
-13.593,77.08,3.705,38.251,-16.931,69.573,-48.491,33.174,-17.486,48.029,-18.687,30.087,-23.728,64.406,-54.04,20.666
-13.692,77.171,3.6301,38.289,-16.904,69.558,-48.639,33.252,-17.615,48.126,-18.786,30.1,-23.936,64.502,-54.249,20.696
-13.692,77.171,3.6301,38.289,-16.904,69.558,-48.639,33.252,-17.615,48.126,-18.786,30.1,-23.936,64.502,-54.249,20.696
-13.791,77.26,3.5552,38.324,-16.875,69.54,-48.786,33.327,-17.742,48.221,-18.884,30.111,-24.141,64.597,-54.456,20.725
-13.791,77.26,3.5552,38.324,-16.875,69.54,-48.786,33.327,-17.742,48.221,-18.884,30.111,-24.141,64.597,-54.456,20.725
-13.888,77.345,3.4802,38.359,-16.847,69.52,-48.932,33.401,-17.869,48.313,-18.981,30.121,-24.345,64.689,-54.66,20.753
-13.888,77.345,3.4802,38.359,-16.847,69.52,-48.932,33.401,-17.869,48.313,-18.981,30.121,-24.345,64.689,-54.66,20.753
-13.985,77.428,3.4053,38.392,-16.817,69.498,-49.076,33.473,-17.994,48.404,-19.078,30.13,-24.545,64.779,-54.862,20.781
-13.985,77.428,3.4053,38.392,-16.817,69.498,-49.076,33.473,-17.994,48.404,-19.078,30.13,-24.545,64.779,-54.862,20.781
-14.081,77.507,3.3303,38.423,-16.787,69.473,-49.219,33.544,-18.118,48.493,-19.173,30.137,-24.744,64.867,-55.062,20.807
-14.081,77.507,3.3303,38.423,-16.787,69.473,-49.219,33.544,-18.118,48.493,-19.173,30.137,-24.744,64.867,-55.062,20.807
-14.176,77.584,3.2553,38.453,-16.757,69.445,-49.361,33.612,-18.24,48.58,-19.268,30.144,-24.94,64.954,-55.259,20.833
-14.176,77.584,3.2553,38.453,-16.757,69.445,-49.361,33.612,-18.24,48.58,-19.268,30.144,-24.94,64.954,-55.259,20.833
-14.176,77.584,3.2553,38.453,-16.757,69.445,-49.361,33.612,-18.24,48.58,-19.268,30.144,-24.94,64.954,-55.259,20.833
-14.271,77.657,3.1802,38.481,-16.725,69.415,-49.502,33.68,-18.362,48.664,-19.362,30.148,-25.134,65.038,-55.454,20.859
-14.271,77.657,3.1802,38.481,-16.725,69.415,-49.502,33.68,-18.362,48.664,-19.362,30.148,-25.134,65.038,-55.454,20.859
-14.364,77.728,3.1052,38.508,-16.693,69.383,-49.641,33.745,-18.482,48.747,-19.455,30.152,-25.325,65.121,-55.647,20.883
-14.457,77.795,3.0303,38.534,-16.66,69.348,-49.779,33.809,-18.601,48.827,-19.547,30.154,-25.514,65.201,-55.837,20.907
-14.457,77.795,3.0303,38.534,-16.66,69.348,-49.779,33.809,-18.601,48.827,-19.547,30.154,-25.514,65.201,-55.837,20.907
-14.549,77.86,2.9553,38.558,-16.627,69.31,-49.916,33.871,-18.719,48.905,-19.639,30.155,-25.701,65.279,-56.025,20.93
-14.549,77.86,2.9553,38.558,-16.627,69.31,-49.916,33.871,-18.719,48.905,-19.639,30.155,-25.701,65.279,-56.025,20.93
-14.549,77.86,2.9553,38.558,-16.627,69.31,-49.916,33.871,-18.719,48.905,-19.639,30.155,-25.701,65.279,-56.025,20.93
-14.64,77.921,2.8803,38.581,-16.593,69.27,-50.051,33.931,-18.836,48.982,-19.729,30.155,-25.885,65.356,-56.21,20.952
-14.64,77.921,2.8803,38.581,-16.593,69.27,-50.051,33.931,-18.836,48.982,-19.729,30.155,-25.885,65.356,-56.21,20.952
-14.64,77.921,2.8803,38.581,-16.593,69.27,-50.051,33.931,-18.836,48.982,-19.729,30.155,-25.885,65.356,-56.21,20.952
-14.82,78.035,2.7305,38.621,-16.523,69.182,-50.317,34.046,-19.065,49.128,-19.908,30.15,-26.245,65.503,-56.573,20.994
-14.82,78.035,2.7305,38.621,-16.523,69.182,-50.317,34.046,-19.065,49.128,-19.908,30.15,-26.245,65.503,-56.573,20.994
-14.82,78.035,2.7305,38.621,-16.523,69.182,-50.317,34.046,-19.065,49.128,-19.908,30.15,-26.245,65.503,-56.573,20.994
-14.909,78.088,2.6557,38.639,-16.487,69.135,-50.448,34.101,-19.178,49.198,-19.996,30.146,-26.422,65.573,-56.751,21.014
-14.909,78.088,2.6557,38.639,-16.487,69.135,-50.448,34.101,-19.178,49.198,-19.996,30.146,-26.422,65.573,-56.751,21.014
-14.909,78.088,2.6557,38.639,-16.487,69.135,-50.448,34.101,-19.178,49.198,-19.996,30.146,-26.422,65.573,-56.751,21.014
-15.083,78.183,2.5062,38.671,-16.412,69.032,-50.707,34.205,-19.4,49.332,-20.169,30.133,-26.768,65.708,-57.099,21.051
-15.083,78.183,2.5062,38.671,-16.412,69.032,-50.707,34.205,-19.4,49.332,-20.169,30.133,-26.768,65.708,-57.099,21.051
-15.169,78.226,2.4315,38.684,-16.374,68.977,-50.834,34.255,-19.509,49.396,-20.254,30.125,-26.937,65.773,-57.27,21.068
-15.169,78.226,2.4315,38.684,-16.374,68.977,-50.834,34.255,-19.509,49.396,-20.254,30.125,-26.937,65.773,-57.27,21.068
-15.169,78.226,2.4315,38.684,-16.374,68.977,-50.834,34.255,-19.509,49.396,-20.254,30.125,-26.937,65.773,-57.27,21.068
-15.254,78.267,2.3569,38.697,-16.335,68.919,-50.959,34.302,-19.617,49.457,-20.338,30.115,-27.104,65.836,-57.438,21.085
-15.338,78.304,2.2824,38.707,-16.296,68.859,-51.083,34.348,-19.724,49.517,-20.422,30.104,-27.268,65.896,-57.603,21.101
-15.338,78.304,2.2824,38.707,-16.296,68.859,-51.083,34.348,-19.724,49.517,-20.422,30.104,-27.268,65.896,-57.603,21.101
-15.421,78.338,2.2079,38.716,-16.255,68.796,-51.206,34.392,-19.829,49.574,-20.504,30.092,-27.43,65.955,-57.766,21.116
-15.503,78.369,2.1336,38.724,-16.214,68.731,-51.328,34.435,-19.933,49.63,-20.586,30.078,-27.589,66.011,-57.927,21.13
-15.503,78.369,2.1336,38.724,-16.214,68.731,-51.328,34.435,-19.933,49.63,-20.586,30.078,-27.589,66.011,-57.927,21.13
-15.503,78.369,2.1336,38.724,-16.214,68.731,-51.328,34.435,-19.933,49.63,-20.586,30.078,-27.589,66.011,-57.927,21.13
-15.585,78.397,2.0594,38.73,-16.173,68.664,-51.447,34.475,-20.036,49.683,-20.666,30.063,-27.745,66.066,-58.085,21.143
-15.585,78.397,2.0594,38.73,-16.173,68.664,-51.447,34.475,-20.036,49.683,-20.666,30.063,-27.745,66.066,-58.085,21.143
-15.665,78.421,1.9852,38.734,-16.13,68.593,-51.566,34.514,-20.137,49.734,-20.746,30.046,-27.899,66.119,-58.24,21.155
-15.665,78.421,1.9852,38.734,-16.13,68.593,-51.566,34.514,-20.137,49.734,-20.746,30.046,-27.899,66.119,-58.24,21.155
-15.744,78.443,1.9112,38.737,-16.087,68.521,-51.683,34.55,-20.237,49.783,-20.825,30.028,-28.051,66.169,-58.393,21.167
-15.744,78.443,1.9112,38.737,-16.087,68.521,-51.683,34.55,-20.237,49.783,-20.825,30.028,-28.051,66.169,-58.393,21.167
-15.823,78.462,1.8372,38.738,-16.043,68.446,-51.799,34.585,-20.336,49.83,-20.903,30.009,-28.199,66.218,-58.544,21.178
-15.823,78.462,1.8372,38.738,-16.043,68.446,-51.799,34.585,-20.336,49.83,-20.903,30.009,-28.199,66.218,-58.544,21.178
-15.9,78.477,1.7635,38.738,-15.999,68.368,-51.913,34.618,-20.434,49.875,-20.98,29.989,-28.346,66.265,-58.692,21.188
-15.9,78.477,1.7635,38.738,-15.999,68.368,-51.913,34.618,-20.434,49.875,-20.98,29.989,-28.346,66.265,-58.692,21.188
-15.977,78.49,1.6898,38.736,-15.954,68.288,-52.025,34.649,-20.53,49.917,-21.055,29.967,-28.489,66.31,-58.837,21.197
-15.977,78.49,1.6898,38.736,-15.954,68.288,-52.025,34.649,-20.53,49.917,-21.055,29.967,-28.489,66.31,-58.837,21.197
-15.977,78.49,1.6898,38.736,-15.954,68.288,-52.025,34.649,-20.53,49.917,-21.055,29.967,-28.489,66.31,-58.837,21.197
-16.052,78.499,1.6163,38.733,-15.908,68.205,-52.136,34.679,-20.625,49.958,-21.13,29.943,-28.63,66.353,-58.98,21.205
-16.052,78.499,1.6163,38.733,-15.908,68.205,-52.136,34.679,-20.625,49.958,-21.13,29.943,-28.63,66.353,-58.98,21.205
-16.127,78.505,1.5429,38.728,-15.861,68.12,-52.246,34.706,-20.719,49.996,-21.204,29.919,-28.769,66.393,-59.12,21.213
-16.2,78.508,1.4696,38.722,-15.813,68.033,-52.354,34.731,-20.812,50.032,-21.277,29.892,-28.905,66.432,-59.258,21.219
-16.2,78.508,1.4696,38.722,-15.813,68.033,-52.354,34.731,-20.812,50.032,-21.277,29.892,-28.905,66.432,-59.258,21.219
-16.273,78.508,1.3966,38.714,-15.765,67.943,-52.461,34.755,-20.903,50.066,-21.349,29.865,-29.038,66.469,-59.393,21.225
-16.273,78.508,1.3966,38.714,-15.765,67.943,-52.461,34.755,-20.903,50.066,-21.349,29.865,-29.038,66.469,-59.393,21.225
-16.344,78.505,1.3236,38.705,-15.716,67.85,-52.566,34.776,-20.993,50.098,-21.42,29.836,-29.169,66.504,-59.525,21.23
-16.344,78.505,1.3236,38.705,-15.716,67.85,-52.566,34.776,-20.993,50.098,-21.42,29.836,-29.169,66.504,-59.525,21.23
-16.344,78.505,1.3236,38.705,-15.716,67.85,-52.566,34.776,-20.993,50.098,-21.42,29.836,-29.169,66.504,-59.525,21.23
-16.415,78.499,1.2509,38.694,-15.667,67.755,-52.67,34.796,-21.081,50.128,-21.49,29.806,-29.297,66.537,-59.655,21.234
-16.415,78.499,1.2509,38.694,-15.667,67.755,-52.67,34.796,-21.081,50.128,-21.49,29.806,-29.297,66.537,-59.655,21.234
-16.552,78.477,1.106,38.667,-15.565,67.558,-52.872,34.83,-21.254,50.182,-21.627,29.741,-29.545,66.597,-59.908,21.24
-16.552,78.477,1.106,38.667,-15.565,67.558,-52.872,34.83,-21.254,50.182,-21.627,29.741,-29.545,66.597,-59.908,21.24
-16.62,78.462,1.0338,38.652,-15.513,67.455,-52.971,34.844,-21.339,50.205,-21.694,29.707,-29.665,66.624,-60.03,21.241
-16.62,78.462,1.0338,38.652,-15.513,67.455,-52.971,34.844,-21.339,50.205,-21.694,29.707,-29.665,66.624,-60.03,21.241
-16.62,78.462,1.0338,38.652,-15.513,67.455,-52.971,34.844,-21.339,50.205,-21.694,29.707,-29.665,66.624,-60.03,21.241
-16.686,78.443,0.96177,38.634,-15.461,67.351,-53.068,34.856,-21.422,50.227,-21.76,29.671,-29.782,66.649,-60.15,21.242
-16.686,78.443,0.96177,38.634,-15.461,67.351,-53.068,34.856,-21.422,50.227,-21.76,29.671,-29.782,66.649,-60.15,21.242
-16.751,78.421,0.88998,38.616,-15.408,67.243,-53.164,34.866,-21.504,50.246,-21.825,29.634,-29.897,66.672,-60.267,21.241
-16.751,78.421,0.88998,38.616,-15.408,67.243,-53.164,34.866,-21.504,50.246,-21.825,29.634,-29.897,66.672,-60.267,21.241
-16.751,78.421,0.88998,38.616,-15.408,67.243,-53.164,34.866,-21.504,50.246,-21.825,29.634,-29.897,66.672,-60.267,21.241
-16.815,78.396,0.8184,38.596,-15.354,67.134,-53.259,34.874,-21.585,50.263,-21.889,29.595,-30.009,66.694,-60.381,21.24
-16.878,78.368,0.74705,38.574,-15.299,67.022,-53.351,34.88,-21.665,50.278,-21.952,29.555,-30.119,66.713,-60.493,21.238
-16.878,78.368,0.74705,38.574,-15.299,67.022,-53.351,34.88,-21.665,50.278,-21.952,29.555,-30.119,66.713,-60.493,21.238
-16.94,78.337,0.67591,38.55,-15.243,66.907,-53.442,34.884,-21.743,50.291,-22.014,29.514,-30.226,66.73,-60.603,21.235
-16.94,78.337,0.67591,38.55,-15.243,66.907,-53.442,34.884,-21.743,50.291,-22.014,29.514,-30.226,66.73,-60.603,21.235
-17.001,78.303,0.60501,38.525,-15.187,66.79,-53.532,34.886,-21.82,50.301,-22.074,29.471,-30.33,66.746,-60.709,21.232
-17.001,78.303,0.60501,38.525,-15.187,66.79,-53.532,34.886,-21.82,50.301,-22.074,29.471,-30.33,66.746,-60.709,21.232
-17.061,78.266,0.53434,38.499,-15.13,66.671,-53.62,34.886,-21.895,50.31,-22.134,29.427,-30.431,66.759,-60.814,21.227
-17.061,78.266,0.53434,38.499,-15.13,66.671,-53.62,34.886,-21.895,50.31,-22.134,29.427,-30.431,66.759,-60.814,21.227
-17.061,78.266,0.53434,38.499,-15.13,66.671,-53.62,34.886,-21.895,50.31,-22.134,29.427,-30.431,66.759,-60.814,21.227
-17.12,78.225,0.46392,38.471,-15.072,66.549,-53.706,34.885,-21.969,50.316,-22.193,29.382,-30.53,66.771,-60.915,21.221
-17.177,78.182,0.39375,38.441,-15.014,66.425,-53.791,34.881,-22.042,50.321,-22.251,29.335,-30.626,66.78,-61.014,21.215
-17.177,78.182,0.39375,38.441,-15.014,66.425,-53.791,34.881,-22.042,50.321,-22.251,29.335,-30.626,66.78,-61.014,21.215
-17.234,78.135,0.32384,38.41,-14.954,66.298,-53.874,34.875,-22.114,50.323,-22.307,29.286,-30.72,66.788,-61.11,21.208
-17.234,78.135,0.32384,38.41,-14.954,66.298,-53.874,34.875,-22.114,50.323,-22.307,29.286,-30.72,66.788,-61.11,21.208
-17.289,78.085,0.2542,38.378,-14.894,66.169,-53.955,34.867,-22.184,50.323,-22.363,29.237,-30.81,66.794,-61.204,21.2
-17.289,78.085,0.2542,38.378,-14.894,66.169,-53.955,34.867,-22.184,50.323,-22.363,29.237,-30.81,66.794,-61.204,21.2
-17.343,78.032,0.18482,38.343,-14.834,66.038,-54.035,34.858,-22.253,50.321,-22.417,29.186,-30.898,66.797,-61.295,21.191
-17.343,78.032,0.18482,38.343,-14.834,66.038,-54.035,34.858,-22.253,50.321,-22.417,29.186,-30.898,66.797,-61.295,21.191
-17.343,78.032,0.18482,38.343,-14.834,66.038,-54.035,34.858,-22.253,50.321,-22.417,29.186,-30.898,66.797,-61.295,21.191
-17.397,77.976,0.11573,38.308,-14.772,65.904,-54.113,34.846,-22.32,50.317,-22.47,29.133,-30.984,66.799,-61.384,21.181
-17.397,77.976,0.11573,38.308,-14.772,65.904,-54.113,34.846,-22.32,50.317,-22.47,29.133,-30.984,66.799,-61.384,21.181
-17.397,77.976,0.11573,38.308,-14.772,65.904,-54.113,34.846,-22.32,50.317,-22.47,29.133,-30.984,66.799,-61.384,21.181
-17.499,77.855,-0.0216,38.232,-14.647,65.63,-54.264,34.817,-22.451,50.302,-22.574,29.024,-31.146,66.797,-61.553,21.158
-17.499,77.855,-0.0216,38.232,-14.647,65.63,-54.264,34.817,-22.451,50.302,-22.574,29.024,-31.146,66.797,-61.553,21.158
-17.549,77.79,-0.089821,38.191,-14.583,65.489,-54.338,34.799,-22.515,50.291,-22.624,28.967,-31.224,66.793,-61.634,21.146
-17.549,77.79,-0.089821,38.191,-14.583,65.489,-54.338,34.799,-22.515,50.291,-22.624,28.967,-31.224,66.793,-61.634,21.146
-17.597,77.721,-0.15774,38.149,-14.519,65.346,-54.409,34.779,-22.577,50.279,-22.673,28.909,-31.298,66.787,-61.712,21.132
-17.597,77.721,-0.15774,38.149,-14.519,65.346,-54.409,34.779,-22.577,50.279,-22.673,28.909,-31.298,66.787,-61.712,21.132
-17.644,77.65,-0.22534,38.106,-14.453,65.201,-54.479,34.757,-22.638,50.264,-22.721,28.85,-31.37,66.78,-61.787,21.118
-17.644,77.65,-0.22534,38.106,-14.453,65.201,-54.479,34.757,-22.638,50.264,-22.721,28.85,-31.37,66.78,-61.787,21.118
-17.691,77.575,-0.29263,38.061,-14.387,65.053,-54.547,34.734,-22.698,50.247,-22.768,28.789,-31.439,66.77,-61.86,21.102
-17.735,77.497,-0.35959,38.014,-14.32,64.903,-54.614,34.708,-22.756,50.228,-22.814,28.727,-31.506,66.759,-61.93,21.086
-17.735,77.497,-0.35959,38.014,-14.32,64.903,-54.614,34.708,-22.756,50.228,-22.814,28.727,-31.506,66.759,-61.93,21.086
-17.735,77.497,-0.35959,38.014,-14.32,64.903,-54.614,34.708,-22.756,50.228,-22.814,28.727,-31.506,66.759,-61.93,21.086
-17.779,77.417,-0.42622,37.966,-14.253,64.75,-54.678,34.68,-22.813,50.207,-22.859,28.663,-31.57,66.745,-61.998,21.069
-17.779,77.417,-0.42622,37.966,-14.253,64.75,-54.678,34.68,-22.813,50.207,-22.859,28.663,-31.57,66.745,-61.998,21.069
-17.779,77.417,-0.42622,37.966,-14.253,64.75,-54.678,34.68,-22.813,50.207,-22.859,28.663,-31.57,66.745,-61.998,21.069
-17.822,77.333,-0.49251,37.916,-14.184,64.596,-54.741,34.65,-22.869,50.184,-22.902,28.599,-31.631,66.73,-62.063,21.051
-17.822,77.333,-0.49251,37.916,-14.184,64.596,-54.741,34.65,-22.869,50.184,-22.902,28.599,-31.631,66.73,-62.063,21.051
-17.863,77.246,-0.55846,37.865,-14.115,64.439,-54.803,34.619,-22.923,50.159,-22.945,28.532,-31.689,66.713,-62.125,21.033
-17.863,77.246,-0.55846,37.865,-14.115,64.439,-54.803,34.619,-22.923,50.159,-22.945,28.532,-31.689,66.713,-62.125,21.033
-17.903,77.156,-0.62406,37.813,-14.046,64.28,-54.862,34.585,-22.976,50.132,-22.986,28.465,-31.745,66.694,-62.185,21.013
-17.903,77.156,-0.62406,37.813,-14.046,64.28,-54.862,34.585,-22.976,50.132,-22.986,28.465,-31.745,66.694,-62.185,21.013
-17.903,77.156,-0.62406,37.813,-14.046,64.28,-54.862,34.585,-22.976,50.132,-22.986,28.465,-31.745,66.694,-62.185,21.013
-17.979,76.967,-0.75418,37.703,-13.904,63.954,-54.976,34.511,-23.079,50.071,-23.065,28.325,-31.848,66.65,-62.297,20.971
-17.979,76.967,-0.75418,37.703,-13.904,63.954,-54.976,34.511,-23.079,50.071,-23.065,28.325,-31.848,66.65,-62.297,20.971
-17.979,76.967,-0.75418,37.703,-13.904,63.954,-54.976,34.511,-23.079,50.071,-23.065,28.325,-31.848,66.65,-62.297,20.971
