-6.377,42.403,6.9939,38.205,1.8976,36.678,1.5239,32.728,0.75314,33.481,10.663,41.816,2.5413,23.033,3.1274,26.905
-6.4462,42.369,6.9848,37.987,1.8165,36.642,1.502,32.673,0.63253,33.458,10.656,41.686,2.3809,22.992,3.0882,26.861
-6.5147,42.335,6.976,37.768,1.7358,36.606,1.4799,32.617,0.51253,33.435,10.649,41.557,2.2219,22.952,3.0489,26.816
-6.5147,42.335,6.976,37.768,1.7358,36.606,1.4799,32.617,0.51253,33.435,10.649,41.557,2.2219,22.952,3.0489,26.816
-6.5825,42.301,6.9676,37.55,1.6555,36.569,1.4577,32.561,0.39315,33.412,10.643,41.428,2.0643,22.912,3.0097,26.771
-6.5825,42.301,6.9676,37.55,1.6555,36.569,1.4577,32.561,0.39315,33.412,10.643,41.428,2.0643,22.912,3.0097,26.771
-6.5825,42.301,6.9676,37.55,1.6555,36.569,1.4577,32.561,0.39315,33.412,10.643,41.428,2.0643,22.912,3.0097,26.771
-6.6495,42.266,6.9596,37.333,1.5755,36.531,1.4354,32.505,0.27439,33.389,10.637,41.299,1.908,22.873,2.9704,26.725
-6.6495,42.266,6.9596,37.333,1.5755,36.531,1.4354,32.505,0.27439,33.389,10.637,41.299,1.908,22.873,2.9704,26.725
-6.7159,42.232,6.952,37.115,1.4958,36.494,1.413,32.448,0.15624,33.365,10.632,41.171,1.7532,22.833,2.9311,26.68
-6.7159,42.232,6.952,37.115,1.4958,36.494,1.413,32.448,0.15624,33.365,10.632,41.171,1.7532,22.833,2.9311,26.68
-6.7815,42.197,6.9448,36.899,1.4165,36.455,1.3905,32.391,0.038727,33.341,10.627,41.043,1.5997,22.794,2.8918,26.634
-6.7815,42.197,6.9448,36.899,1.4165,36.455,1.3905,32.391,0.038727,33.341,10.627,41.043,1.5997,22.794,2.8918,26.634
-6.8465,42.162,6.938,36.683,1.3376,36.416,1.3679,32.334,-0.078163,33.317,10.623,40.916,1.4477,22.755,2.8525,26.587
-6.8465,42.162,6.938,36.683,1.3376,36.416,1.3679,32.334,-0.078163,33.317,10.623,40.916,1.4477,22.755,2.8525,26.587
-6.9107,42.128,6.9316,36.467,1.2591,36.377,1.3452,32.276,-0.19442,33.292,10.619,40.79,1.297,22.716,2.8132,26.541
-6.9107,42.128,6.9316,36.467,1.2591,36.377,1.3452,32.276,-0.19442,33.292,10.619,40.79,1.297,22.716,2.8132,26.541
-6.9742,42.093,6.9256,36.252,1.1809,36.337,1.3224,32.218,-0.31005,33.267,10.616,40.664,1.1477,22.678,2.7739,26.494
-6.9742,42.093,6.9256,36.252,1.1809,36.337,1.3224,32.218,-0.31005,33.267,10.616,40.664,1.1477,22.678,2.7739,26.494
-7.037,42.058,6.9199,36.037,1.103,36.296,1.2994,32.16,-0.42504,33.242,10.614,40.538,0.99981,22.639,2.7345,26.447
-7.037,42.058,6.9199,36.037,1.103,36.296,1.2994,32.16,-0.42504,33.242,10.614,40.538,0.99981,22.639,2.7345,26.447
-7.0991,42.023,6.9146,35.823,1.0256,36.255,1.2764,32.101,-0.5394,33.217,10.611,40.413,0.85329,22.601,2.6951,26.399
-7.0991,42.023,6.9146,35.823,1.0256,36.255,1.2764,32.101,-0.5394,33.217,10.611,40.413,0.85329,22.601,2.6951,26.399
-7.1605,41.988,6.9098,35.61,0.9485,36.214,1.2532,32.042,-0.65312,33.191,10.61,40.289,0.70814,22.563,2.6558,26.351
-7.1605,41.988,6.9098,35.61,0.9485,36.214,1.2532,32.042,-0.65312,33.191,10.61,40.289,0.70814,22.563,2.6558,26.351
-7.2212,41.953,6.9052,35.397,0.8718,36.172,1.23,31.983,-0.76619,33.165,10.609,40.165,0.56438,22.525,2.6163,26.303
-7.2212,41.953,6.9052,35.397,0.8718,36.172,1.23,31.983,-0.76619,33.165,10.609,40.165,0.56438,22.525,2.6163,26.303
-7.2812,41.918,6.9011,35.185,0.79546,36.129,1.2066,31.923,-0.87862,33.139,10.608,40.041,0.42199,22.488,2.5769,26.255
-7.2812,41.918,6.9011,35.185,0.79546,36.129,1.2066,31.923,-0.87862,33.139,10.608,40.041,0.42199,22.488,2.5769,26.255
-7.3405,41.883,6.8973,34.973,0.71951,36.086,1.1831,31.863,-0.99041,33.113,10.608,39.918,0.28097,22.45,2.5374,26.207
-7.3405,41.883,6.8973,34.973,0.71951,36.086,1.1831,31.863,-0.99041,33.113,10.608,39.918,0.28097,22.45,2.5374,26.207
-7.3991,41.848,6.8939,34.762,0.64393,36.042,1.1595,31.802,-1.1015,33.086,10.608,39.796,0.14133,22.413,2.4979,26.158
-7.3991,41.848,6.8939,34.762,0.64393,36.042,1.1595,31.802,-1.1015,33.086,10.608,39.796,0.14133,22.413,2.4979,26.158
-7.457,41.813,6.8909,34.551,0.56874,35.998,1.1358,31.742,-1.212,33.059,10.609,39.674,0.0030562,22.376,2.4584,26.109
-7.457,41.813,6.8909,34.551,0.56874,35.998,1.1358,31.742,-1.212,33.059,10.609,39.674,0.0030562,22.376,2.4584,26.109
-7.457,41.813,6.8909,34.551,0.56874,35.998,1.1358,31.742,-1.212,33.059,10.609,39.674,0.0030562,22.376,2.4584,26.109
-7.5142,41.778,6.8882,34.342,0.49393,35.954,1.1119,31.681,-1.3219,33.032,10.611,39.553,-0.13385,22.339,2.4189,26.059
-7.5707,41.742,6.8859,34.132,0.4195,35.908,1.0879,31.619,-1.4311,33.004,10.613,39.432,-0.26939,22.302,2.3793,26.01
-7.5707,41.742,6.8859,34.132,0.4195,35.908,1.0879,31.619,-1.4311,33.004,10.613,39.432,-0.26939,22.302,2.3793,26.01
-7.6266,41.707,6.8839,33.924,0.34546,35.863,1.0638,31.557,-1.5396,32.976,10.615,39.312,-0.40356,22.266,2.3397,25.96
-7.6266,41.707,6.8839,33.924,0.34546,35.863,1.0638,31.557,-1.5396,32.976,10.615,39.312,-0.40356,22.266,2.3397,25.96
-7.6266,41.707,6.8839,33.924,0.34546,35.863,1.0638,31.557,-1.5396,32.976,10.615,39.312,-0.40356,22.266,2.3397,25.96
-7.6818,41.672,6.8823,33.716,0.2718,35.817,1.0396,31.495,-1.6475,32.948,10.618,39.192,-0.53638,22.23,2.3001,25.91
-7.6818,41.672,6.8823,33.716,0.2718,35.817,1.0396,31.495,-1.6475,32.948,10.618,39.192,-0.53638,22.23,2.3001,25.91
-7.6818,41.672,6.8823,33.716,0.2718,35.817,1.0396,31.495,-1.6475,32.948,10.618,39.192,-0.53638,22.23,2.3001,25.91
-7.6818,41.672,6.8823,33.716,0.2718,35.817,1.0396,31.495,-1.6475,32.948,10.618,39.192,-0.53638,22.23,2.3001,25.91
-7.7901,41.601,6.8801,33.302,0.12566,35.723,0.9908,31.37,-1.8613,32.891,10.626,38.954,-0.79794,22.157,2.2207,25.809
-7.7901,41.601,6.8801,33.302,0.12566,35.723,0.9908,31.37,-1.8613,32.891,10.626,38.954,-0.79794,22.157,2.2207,25.809
-7.8432,41.565,6.8796,33.096,0.053167,35.676,0.96621,31.307,-1.9672,32.862,10.63,38.836,-0.92669,22.121,2.1809,25.758
-7.8957,41.53,6.8793,32.891,-0.018929,35.628,0.94148,31.244,-2.0724,32.833,10.636,38.718,-1.0541,22.086,2.1411,25.707
-7.9475,41.494,6.8794,32.686,-0.090633,35.579,0.91662,31.181,-2.177,32.804,10.641,38.601,-1.1802,22.05,2.1013,25.656
-7.9475,41.494,6.8794,32.686,-0.090633,35.579,0.91662,31.181,-2.177,32.804,10.641,38.601,-1.1802,22.05,2.1013,25.656
-7.9987,41.459,6.8798,32.482,-0.16194,35.53,0.89163,31.117,-2.281,32.774,10.647,38.485,-1.3049,22.015,2.0614,25.604
-7.9987,41.459,6.8798,32.482,-0.16194,35.53,0.89163,31.117,-2.281,32.774,10.647,38.485,-1.3049,22.015,2.0614,25.604
-7.9987,41.459,6.8798,32.482,-0.16194,35.53,0.89163,31.117,-2.281,32.774,10.647,38.485,-1.3049,22.015,2.0614,25.604
-8.0491,41.423,6.8805,32.279,-0.23286,35.481,0.8665,31.052,-2.3842,32.744,10.654,38.369,-1.4283,21.979,2.0215,25.553
-8.0491,41.423,6.8805,32.279,-0.23286,35.481,0.8665,31.052,-2.3842,32.744,10.654,38.369,-1.4283,21.979,2.0215,25.553
-8.0491,41.423,6.8805,32.279,-0.23286,35.481,0.8665,31.052,-2.3842,32.744,10.654,38.369,-1.4283,21.979,2.0215,25.553
-8.1482,41.352,6.8829,31.875,-0.37351,35.381,0.81585,30.923,-2.5888,32.684,10.669,38.139,-1.671,21.909,1.9416,25.448
-8.1482,41.352,6.8829,31.875,-0.37351,35.381,0.81585,30.923,-2.5888,32.684,10.669,38.139,-1.671,21.909,1.9416,25.448
-8.1482,41.352,6.8829,31.875,-0.37351,35.381,0.81585,30.923,-2.5888,32.684,10.669,38.139,-1.671,21.909,1.9416,25.448
-8.1967,41.316,6.8845,31.674,-0.44324,35.33,0.79031,30.858,-2.6901,32.653,10.677,38.024,-1.7904,21.874,1.9015,25.396
-8.1967,41.316,6.8845,31.674,-0.44324,35.33,0.79031,30.858,-2.6901,32.653,10.677,38.024,-1.7904,21.874,1.9015,25.396
-8.2446,41.281,6.8865,31.474,-0.51257,35.279,0.76463,30.792,-2.7907,32.622,10.686,37.91,-1.9085,21.84,1.8614,25.343
-8.2446,41.281,6.8865,31.474,-0.51257,35.279,0.76463,30.792,-2.7907,32.622,10.686,37.91,-1.9085,21.84,1.8614,25.343
-8.2446,41.281,6.8865,31.474,-0.51257,35.279,0.76463,30.792,-2.7907,32.622,10.686,37.91,-1.9085,21.84,1.8614,25.343
-8.2919,41.245,6.8887,31.275,-0.58151,35.227,0.73881,30.727,-2.8907,32.59,10.695,37.797,-2.0252,21.805,1.8213,25.29
-8.2919,41.245,6.8887,31.275,-0.58151,35.227,0.73881,30.727,-2.8907,32.59,10.695,37.797,-2.0252,21.805,1.8213,25.29
-8.3385,41.209,6.8913,31.076,-0.65005,35.175,0.71284,30.661,-2.99,32.559,10.705,37.684,-2.1407,21.77,1.7811,25.237
-8.3845,41.173,6.8941,30.878,-0.71819,35.122,0.68673,30.594,-3.0886,32.527,10.715,37.572,-2.2548,21.736,1.7408,25.183
-8.4299,41.137,6.8972,30.681,-0.78594,35.069,0.66047,30.528,-3.1866,32.495,10.726,37.46,-2.3676,21.702,1.7005,25.13
-8.4299,41.137,6.8972,30.681,-0.78594,35.069,0.66047,30.528,-3.1866,32.495,10.726,37.46,-2.3676,21.702,1.7005,25.13
-8.4299,41.137,6.8972,30.681,-0.78594,35.069,0.66047,30.528,-3.1866,32.495,10.726,37.46,-2.3676,21.702,1.7005,25.13
-8.4746,41.102,6.9006,30.485,-0.85328,35.016,0.63406,30.461,-3.2839,32.462,10.737,37.349,-2.4792,21.667,1.6601,25.076
-8.4746,41.102,6.9006,30.485,-0.85328,35.016,0.63406,30.461,-3.2839,32.462,10.737,37.349,-2.4792,21.667,1.6601,25.076
-8.5188,41.066,6.9042,30.289,-0.92023,34.962,0.60749,30.393,-3.3806,32.43,10.749,37.238,-2.5894,21.633,1.6197,25.022
-8.5188,41.066,6.9042,30.289,-0.92023,34.962,0.60749,30.393,-3.3806,32.43,10.749,37.238,-2.5894,21.633,1.6197,25.022
-8.5623,41.03,6.9081,30.095,-0.98678,34.907,0.58078,30.326,-3.4766,32.397,10.761,37.128,-2.6984,21.599,1.5792,24.968
-8.5623,41.03,6.9081,30.095,-0.98678,34.907,0.58078,30.326,-3.4766,32.397,10.761,37.128,-2.6984,21.599,1.5792,24.968
-8.6052,40.994,6.9123,29.901,-1.0529,34.852,0.5539,30.258,-3.5719,32.363,10.774,37.018,-2.806,21.565,1.5386,24.913
-8.6052,40.994,6.9123,29.901,-1.0529,34.852,0.5539,30.258,-3.5719,32.363,10.774,37.018,-2.806,21.565,1.5386,24.913
-8.6476,40.957,6.9167,29.707,-1.1187,34.797,0.52687,30.19,-3.6666,32.33,10.788,36.908,-2.9124,21.532,1.498,24.858
-8.6476,40.957,6.9167,29.707,-1.1187,34.797,0.52687,30.19,-3.6666,32.33,10.788,36.908,-2.9124,21.532,1.498,24.858
-8.6893,40.921,6.9213,29.515,-1.1841,34.741,0.49968,30.121,-3.7606,32.296,10.801,36.8,-3.0175,21.498,1.4573,24.803
-8.6893,40.921,6.9213,29.515,-1.1841,34.741,0.49968,30.121,-3.7606,32.296,10.801,36.8,-3.0175,21.498,1.4573,24.803
-8.6893,40.921,6.9213,29.515,-1.1841,34.741,0.49968,30.121,-3.7606,32.296,10.801,36.8,-3.0175,21.498,1.4573,24.803
-8.7304,40.885,6.9262,29.324,-1.249,34.685,0.47233,30.053,-3.854,32.261,10.816,36.691,-3.1214,21.464,1.4165,24.748
-8.7304,40.885,6.9262,29.324,-1.249,34.685,0.47233,30.053,-3.854,32.261,10.816,36.691,-3.1214,21.464,1.4165,24.748
-8.771,40.849,6.9314,29.133,-1.3136,34.629,0.44481,29.983,-3.9467,32.227,10.831,36.583,-3.224,21.43,1.3757,24.692
-8.811,40.812,6.9367,28.943,-1.3778,34.571,0.41713,29.914,-4.0387,32.192,10.846,36.476,-3.3253,21.397,1.3348,24.637
-8.811,40.812,6.9367,28.943,-1.3778,34.571,0.41713,29.914,-4.0387,32.192,10.846,36.476,-3.3253,21.397,1.3348,24.637
-8.811,40.812,6.9367,28.943,-1.3778,34.571,0.41713,29.914,-4.0387,32.192,10.846,36.476,-3.3253,21.397,1.3348,24.637
-8.8504,40.776,6.9423,28.754,-1.4415,34.514,0.38927,29.844,-4.1301,32.157,10.862,36.369,-3.4254,21.363,1.2938,24.581
-8.8504,40.776,6.9423,28.754,-1.4415,34.514,0.38927,29.844,-4.1301,32.157,10.862,36.369,-3.4254,21.363,1.2938,24.581
-8.8504,40.776,6.9423,28.754,-1.4415,34.514,0.38927,29.844,-4.1301,32.157,10.862,36.369,-3.4254,21.363,1.2938,24.581
-8.9275,40.703,6.954,28.378,-1.5679,34.397,0.33306,29.704,-4.3109,32.086,10.895,36.156,-3.6219,21.296,1.2116,24.468
-8.9275,40.703,6.954,28.378,-1.5679,34.397,0.33306,29.704,-4.3109,32.086,10.895,36.156,-3.6219,21.296,1.2116,24.468
-8.9275,40.703,6.954,28.378,-1.5679,34.397,0.33306,29.704,-4.3109,32.086,10.895,36.156,-3.6219,21.296,1.2116,24.468
-8.9652,40.666,6.9602,28.191,-1.6305,34.339,0.30469,29.633,-4.4003,32.049,10.912,36.051,-3.7182,21.263,1.1703,24.412
-9.0024,40.629,6.9666,28.005,-1.6927,34.279,0.27614,29.563,-4.4891,32.013,10.93,35.946,-3.8134,21.23,1.129,24.355
-9.0024,40.629,6.9666,28.005,-1.6927,34.279,0.27614,29.563,-4.4891,32.013,10.93,35.946,-3.8134,21.23,1.129,24.355
-9.039,40.593,6.9731,27.82,-1.7545,34.219,0.24741,29.491,-4.5773,31.976,10.948,35.841,-3.9073,21.196,1.0876,24.298
-9.0751,40.556,6.9798,27.636,-1.8159,34.159,0.2185,29.42,-4.6647,31.939,10.967,35.737,-4,21.163,1.0461,24.241
-9.0751,40.556,6.9798,27.636,-1.8159,34.159,0.2185,29.42,-4.6647,31.939,10.967,35.737,-4,21.163,1.0461,24.241
-9.0751,40.556,6.9798,27.636,-1.8159,34.159,0.2185,29.42,-4.6647,31.939,10.967,35.737,-4,21.163,1.0461,24.241
-9.1106,40.519,6.9867,27.453,-1.877,34.099,0.18941,29.348,-4.7516,31.902,10.986,35.633,-4.0915,21.13,1.0046,24.183
-9.1106,40.519,6.9867,27.453,-1.877,34.099,0.18941,29.348,-4.7516,31.902,10.986,35.633,-4.0915,21.13,1.0046,24.183
-9.1106,40.519,6.9867,27.453,-1.877,34.099,0.18941,29.348,-4.7516,31.902,10.986,35.633,-4.0915,21.13,1.0046,24.183
-9.1456,40.482,6.9938,27.27,-1.9376,34.037,0.16013,29.276,-4.8378,31.864,11.005,35.529,-4.1819,21.096,0.9629,24.125
-9.1456,40.482,6.9938,27.27,-1.9376,34.037,0.16013,29.276,-4.8378,31.864,11.005,35.529,-4.1819,21.096,0.9629,24.125
-9.1456,40.482,6.9938,27.27,-1.9376,34.037,0.16013,29.276,-4.8378,31.864,11.005,35.529,-4.1819,21.096,0.9629,24.125
-9.2141,40.407,7.0084,26.908,-2.0578,33.914,0.101,29.131,-5.0083,31.787,11.046,35.323,-4.3589,21.03,0.87927,24.009
-9.2141,40.407,7.0084,26.908,-2.0578,33.914,0.101,29.131,-5.0083,31.787,11.046,35.323,-4.3589,21.03,0.87927,24.009
-9.2476,40.369,7.0159,26.728,-2.1173,33.852,0.071143,29.057,-5.0925,31.749,11.067,35.221,-4.4457,20.996,0.83732,23.951
-9.2476,40.369,7.0159,26.728,-2.1173,33.852,0.071143,29.057,-5.0925,31.749,11.067,35.221,-4.4457,20.996,0.83732,23.951
-9.2806,40.332,7.0235,26.548,-2.1764,33.789,0.041092,28.984,-5.1762,31.709,11.088,35.119,-4.5313,20.963,0.79526,23.892
-9.2806,40.332,7.0235,26.548,-2.1764,33.789,0.041092,28.984,-5.1762,31.709,11.088,35.119,-4.5313,20.963,0.79526,23.892
-9.3131,40.294,7.0312,26.37,-2.2351,33.725,0.010843,28.91,-5.2592,31.67,11.11,35.018,-4.6157,20.93,0.7531,23.833
-9.3131,40.294,7.0312,26.37,-2.2351,33.725,0.010843,28.91,-5.2592,31.67,11.11,35.018,-4.6157,20.93,0.7531,23.833
-9.3131,40.294,7.0312,26.37,-2.2351,33.725,0.010843,28.91,-5.2592,31.67,11.11,35.018,-4.6157,20.93,0.7531,23.833
-9.3131,40.294,7.0312,26.37,-2.2351,33.725,0.010843,28.91,-5.2592,31.67,11.11,35.018,-4.6157,20.93,0.7531,23.833
-9.3766,40.218,7.0471,26.016,-2.3514,33.597,-0.050262,28.762,-5.4233,31.59,11.155,34.816,-4.7811,20.863,0.66846,23.715
-9.3766,40.218,7.0471,26.016,-2.3514,33.597,-0.050262,28.762,-5.4233,31.59,11.155,34.816,-4.7811,20.863,0.66846,23.715
-9.4076,40.18,7.0552,25.84,-2.409,33.533,-0.081123,28.687,-5.5045,31.549,11.178,34.715,-4.8621,20.829,0.62598,23.655
-9.4076,40.18,7.0552,25.84,-2.409,33.533,-0.081123,28.687,-5.5045,31.549,11.178,34.715,-4.8621,20.829,0.62598,23.655
-9.4382,40.142,7.0633,25.665,-2.4663,33.468,-0.11219,28.612,-5.585,31.508,11.202,34.615,-4.942,20.796,0.58339,23.595
-9.4382,40.142,7.0633,25.665,-2.4663,33.468,-0.11219,28.612,-5.585,31.508,11.202,34.615,-4.942,20.796,0.58339,23.595
-9.4683,40.103,7.0716,25.49,-2.5231,33.402,-0.14347,28.537,-5.6649,31.467,11.226,34.515,-5.0207,20.762,0.54068,23.535
-9.4683,40.103,7.0716,25.49,-2.5231,33.402,-0.14347,28.537,-5.6649,31.467,11.226,34.515,-5.0207,20.762,0.54068,23.535
-9.4683,40.103,7.0716,25.49,-2.5231,33.402,-0.14347,28.537,-5.6649,31.467,11.226,34.515,-5.0207,20.762,0.54068,23.535
-9.498,40.065,7.0799,25.317,-2.5796,33.336,-0.17497,28.461,-5.7441,31.425,11.251,34.415,-5.0983,20.728,0.49786,23.475
-9.5272,40.026,7.0883,25.144,-2.6358,33.27,-0.20668,28.385,-5.8228,31.383,11.275,34.316,-5.1748,20.694,0.45492,23.414
-9.556,39.987,7.0968,24.972,-2.6915,33.203,-0.23861,28.308,-5.9008,31.34,11.301,34.217,-5.2502,20.66,0.41186,23.353
-9.556,39.987,7.0968,24.972,-2.6915,33.203,-0.23861,28.308,-5.9008,31.34,11.301,34.217,-5.2502,20.66,0.41186,23.353
-9.556,39.987,7.0968,24.972,-2.6915,33.203,-0.23861,28.308,-5.9008,31.34,11.301,34.217,-5.2502,20.66,0.41186,23.353
-9.556,39.987,7.0968,24.972,-2.6915,33.203,-0.23861,28.308,-5.9008,31.34,11.301,34.217,-5.2502,20.66,0.41186,23.353
-9.5843,39.948,7.1053,24.801,-2.747,33.135,-0.27076,28.231,-5.9782,31.297,11.326,34.119,-5.3245,20.626,0.36868,23.292
-9.5843,39.948,7.1053,24.801,-2.747,33.135,-0.27076,28.231,-5.9782,31.297,11.326,34.119,-5.3245,20.626,0.36868,23.292
-9.6122,39.908,7.1139,24.631,-2.802,33.068,-0.30314,28.154,-6.0551,31.254,11.353,34.02,-5.3978,20.592,0.32537,23.23
-9.6397,39.869,7.1225,24.462,-2.8567,32.999,-0.33575,28.077,-6.1313,31.21,11.379,33.922,-5.4699,20.558,0.28194,23.169
-9.6668,39.829,7.1311,24.293,-2.911,32.931,-0.36858,27.999,-6.2069,31.166,11.406,33.824,-5.541,20.524,0.23837,23.107
-9.6668,39.829,7.1311,24.293,-2.911,32.931,-0.36858,27.999,-6.2069,31.166,11.406,33.824,-5.541,20.524,0.23837,23.107
-9.6935,39.789,7.1397,24.125,-2.965,32.862,-0.40165,27.921,-6.2819,31.122,11.433,33.727,-5.611,20.489,0.19468,23.045
-9.6935,39.789,7.1397,24.125,-2.965,32.862,-0.40165,27.921,-6.2819,31.122,11.433,33.727,-5.611,20.489,0.19468,23.045
-9.6935,39.789,7.1397,24.125,-2.965,32.862,-0.40165,27.921,-6.2819,31.122,11.433,33.727,-5.611,20.489,0.19468,23.045
-9.7198,39.749,7.1484,23.958,-3.0187,32.792,-0.43495,27.842,-6.3564,31.077,11.461,33.629,-5.68,20.455,0.15085,22.982
-9.7198,39.749,7.1484,23.958,-3.0187,32.792,-0.43495,27.842,-6.3564,31.077,11.461,33.629,-5.68,20.455,0.15085,22.982
-9.7198,39.749,7.1484,23.958,-3.0187,32.792,-0.43495,27.842,-6.3564,31.077,11.461,33.629,-5.68,20.455,0.15085,22.982
-9.7457,39.708,7.157,23.792,-3.072,32.722,-0.4685,27.763,-6.4302,31.031,11.489,33.532,-5.7479,20.42,0.10689,22.92
-9.7713,39.668,7.1656,23.627,-3.1249,32.651,-0.50228,27.684,-6.5035,30.985,11.517,33.435,-5.8149,20.385,0.062788,22.857
-9.7713,39.668,7.1656,23.627,-3.1249,32.651,-0.50228,27.684,-6.5035,30.985,11.517,33.435,-5.8149,20.385,0.062788,22.857
-9.7964,39.627,7.1743,23.462,-3.1775,32.58,-0.53631,27.604,-6.5761,30.939,11.546,33.338,-5.8807,20.35,0.018547,22.793
-9.8212,39.586,7.1829,23.298,-3.2298,32.509,-0.57058,27.524,-6.6482,30.892,11.575,33.242,-5.9456,20.315,-0.025837,22.73
-9.8212,39.586,7.1829,23.298,-3.2298,32.509,-0.57058,27.524,-6.6482,30.892,11.575,33.242,-5.9456,20.315,-0.025837,22.73
-9.8212,39.586,7.1829,23.298,-3.2298,32.509,-0.57058,27.524,-6.6482,30.892,11.575,33.242,-5.9456,20.315,-0.025837,22.73
-9.8457,39.544,7.1914,23.135,-3.2818,32.437,-0.60511,27.444,-6.7197,30.845,11.605,33.145,-6.0095,20.279,-0.070366,22.666
-9.8457,39.544,7.1914,23.135,-3.2818,32.437,-0.60511,27.444,-6.7197,30.845,11.605,33.145,-6.0095,20.279,-0.070366,22.666
-9.8457,39.544,7.1914,23.135,-3.2818,32.437,-0.60511,27.444,-6.7197,30.845,11.605,33.145,-6.0095,20.279,-0.070366,22.666
-9.8697,39.502,7.1999,22.973,-3.3334,32.364,-0.63988,27.363,-6.7907,30.797,11.635,33.049,-6.0723,20.244,-0.11504,22.602
-9.8697,39.502,7.1999,22.973,-3.3334,32.364,-0.63988,27.363,-6.7907,30.797,11.635,33.049,-6.0723,20.244,-0.11504,22.602
-9.8697,39.502,7.1999,22.973,-3.3334,32.364,-0.63988,27.363,-6.7907,30.797,11.635,33.049,-6.0723,20.244,-0.11504,22.602
-9.9169,39.418,7.2168,22.65,-3.4356,32.218,-0.7102,27.2,-6.9309,30.7,11.696,32.857,-6.1951,20.172,-0.20484,22.473
-9.9169,39.418,7.2168,22.65,-3.4356,32.218,-0.7102,27.2,-6.9309,30.7,11.696,32.857,-6.1951,20.172,-0.20484,22.473
-9.94,39.375,7.2252,22.49,-3.4863,32.144,-0.74575,27.118,-7.0001,30.651,11.726,32.761,-6.2551,20.136,-0.24997,22.408
-9.94,39.375,7.2252,22.49,-3.4863,32.144,-0.74575,27.118,-7.0001,30.651,11.726,32.761,-6.2551,20.136,-0.24997,22.408
-9.94,39.375,7.2252,22.49,-3.4863,32.144,-0.74575,27.118,-7.0001,30.651,11.726,32.761,-6.2551,20.136,-0.24997,22.408
-9.9628,39.332,7.2334,22.331,-3.5366,32.07,-0.78157,27.036,-7.0688,30.602,11.758,32.666,-6.314,20.099,-0.29526,22.342
-9.9628,39.332,7.2334,22.331,-3.5366,32.07,-0.78157,27.036,-7.0688,30.602,11.758,32.666,-6.314,20.099,-0.29526,22.342
-10.007,39.246,7.2497,22.014,-3.6363,31.92,-0.854,26.87,-7.2045,30.501,11.821,32.474,-6.4291,20.026,-0.38631,22.211
-10.007,39.246,7.2497,22.014,-3.6363,31.92,-0.854,26.87,-7.2045,30.501,11.821,32.474,-6.4291,20.026,-0.38631,22.211
-10.007,39.246,7.2497,22.014,-3.6363,31.92,-0.854,26.87,-7.2045,30.501,11.821,32.474,-6.4291,20.026,-0.38631,22.211
-10.029,39.202,7.2577,21.857,-3.6857,31.844,-0.89062,26.786,-7.2716,30.45,11.853,32.379,-6.4853,19.989,-0.43207,22.144
-10.029,39.202,7.2577,21.857,-3.6857,31.844,-0.89062,26.786,-7.2716,30.45,11.853,32.379,-6.4853,19.989,-0.43207,22.144
-10.029,39.202,7.2577,21.857,-3.6857,31.844,-0.89062,26.786,-7.2716,30.45,11.853,32.379,-6.4853,19.989,-0.43207,22.144
-10.029,39.202,7.2577,21.857,-3.6857,31.844,-0.89062,26.786,-7.2716,30.45,11.853,32.379,-6.4853,19.989,-0.43207,22.144
-10.072,39.113,7.2733,21.545,-3.7836,31.691,-0.9647,26.618,-7.404,30.346,11.919,32.188,-6.5949,19.914,-0.52411,22.011
-10.072,39.113,7.2733,21.545,-3.7836,31.691,-0.9647,26.618,-7.404,30.346,11.919,32.188,-6.5949,19.914,-0.52411,22.011
-10.093,39.068,7.2809,21.39,-3.8322,31.613,-1.0022,26.533,-7.4695,30.294,11.952,32.093,-6.6483,19.876,-0.57038,21.944
-10.093,39.068,7.2809,21.39,-3.8322,31.613,-1.0022,26.533,-7.4695,30.294,11.952,32.093,-6.6483,19.876,-0.57038,21.944
-10.114,39.022,7.2884,21.236,-3.8804,31.535,-1.0399,26.447,-7.5344,30.24,11.985,31.998,-6.7008,19.838,-0.61682,21.876
-10.114,39.022,7.2884,21.236,-3.8804,31.535,-1.0399,26.447,-7.5344,30.24,11.985,31.998,-6.7008,19.838,-0.61682,21.876
-10.135,38.977,7.2957,21.082,-3.9283,31.457,-1.0779,26.362,-7.5988,30.187,12.019,31.902,-6.7525,19.799,-0.66343,21.808
-10.135,38.977,7.2957,21.082,-3.9283,31.457,-1.0779,26.362,-7.5988,30.187,12.019,31.902,-6.7525,19.799,-0.66343,21.808
-10.155,38.93,7.3029,20.929,-3.9759,31.378,-1.1162,26.275,-7.6626,30.132,12.053,31.807,-6.8033,19.76,-0.71022,21.74
-10.155,38.93,7.3029,20.929,-3.9759,31.378,-1.1162,26.275,-7.6626,30.132,12.053,31.807,-6.8033,19.76,-0.71022,21.74
-10.175,38.884,7.3099,20.776,-4.0233,31.299,-1.1549,26.189,-7.726,30.078,12.087,31.712,-6.8532,19.721,-0.75719,21.672
-10.175,38.884,7.3099,20.776,-4.0233,31.299,-1.1549,26.189,-7.726,30.078,12.087,31.712,-6.8532,19.721,-0.75719,21.672
-10.195,38.837,7.3167,20.625,-4.0704,31.219,-1.1938,26.101,-7.7888,30.022,12.121,31.616,-6.9023,19.682,-0.80434,21.603
-10.195,38.837,7.3167,20.625,-4.0704,31.219,-1.1938,26.101,-7.7888,30.022,12.121,31.616,-6.9023,19.682,-0.80434,21.603
-10.214,38.789,7.3233,20.473,-4.1172,31.139,-1.233,26.014,-7.8511,29.966,12.156,31.521,-6.9505,19.642,-0.85167,21.533
-10.234,38.742,7.3298,20.323,-4.1638,31.058,-1.2725,25.926,-7.913,29.91,12.191,31.425,-6.9979,19.602,-0.89918,21.464
-10.234,38.742,7.3298,20.323,-4.1638,31.058,-1.2725,25.926,-7.913,29.91,12.191,31.425,-6.9979,19.602,-0.89918,21.464
-10.253,38.693,7.336,20.173,-4.2101,30.976,-1.3123,25.837,-7.9743,29.853,12.226,31.33,-7.0445,19.562,-0.94689,21.394
-10.253,38.693,7.336,20.173,-4.2101,30.976,-1.3123,25.837,-7.9743,29.853,12.226,31.33,-7.0445,19.562,-0.94689,21.394
-10.253,38.693,7.336,20.173,-4.2101,30.976,-1.3123,25.837,-7.9743,29.853,12.226,31.33,-7.0445,19.562,-0.94689,21.394
-10.272,38.644,7.342,20.024,-4.2561,30.895,-1.3524,25.748,-8.0352,29.795,12.262,31.234,-7.0903,19.521,-0.99478,21.323
-10.291,38.595,7.3479,19.875,-4.3019,30.812,-1.3929,25.659,-8.0955,29.737,12.297,31.138,-7.1353,19.48,-1.0429,21.253
-10.291,38.595,7.3479,19.875,-4.3019,30.812,-1.3929,25.659,-8.0955,29.737,12.297,31.138,-7.1353,19.48,-1.0429,21.253
-10.309,38.545,7.3534,19.727,-4.3475,30.729,-1.4336,25.568,-8.1554,29.678,12.333,31.042,-7.1794,19.438,-1.0911,21.182
-10.309,38.545,7.3534,19.727,-4.3475,30.729,-1.4336,25.568,-8.1554,29.678,12.333,31.042,-7.1794,19.438,-1.0911,21.182
-10.309,38.545,7.3534,19.727,-4.3475,30.729,-1.4336,25.568,-8.1554,29.678,12.333,31.042,-7.1794,19.438,-1.0911,21.182
-10.328,38.495,7.3588,19.58,-4.3928,30.645,-1.4747,25.478,-8.2148,29.619,12.369,30.946,-7.2229,19.397,-1.1396,21.11
-10.328,38.495,7.3588,19.58,-4.3928,30.645,-1.4747,25.478,-8.2148,29.619,12.369,30.946,-7.2229,19.397,-1.1396,21.11
-10.346,38.444,7.3639,19.433,-4.4378,30.561,-1.5161,25.387,-8.2737,29.559,12.406,30.85,-7.2655,19.354,-1.1883,21.038
-10.346,38.444,7.3639,19.433,-4.4378,30.561,-1.5161,25.387,-8.2737,29.559,12.406,30.85,-7.2655,19.354,-1.1883,21.038
-10.364,38.393,7.3687,19.286,-4.4826,30.477,-1.5578,25.295,-8.3322,29.498,12.442,30.754,-7.3074,19.312,-1.2371,20.966
-10.364,38.393,7.3687,19.286,-4.4826,30.477,-1.5578,25.295,-8.3322,29.498,12.442,30.754,-7.3074,19.312,-1.2371,20.966
-10.382,38.341,7.3733,19.14,-4.5272,30.392,-1.5998,25.203,-8.3902,29.437,12.479,30.657,-7.3485,19.269,-1.2862,20.893
-10.382,38.341,7.3733,19.14,-4.5272,30.392,-1.5998,25.203,-8.3902,29.437,12.479,30.657,-7.3485,19.269,-1.2862,20.893
-10.382,38.341,7.3733,19.14,-4.5272,30.392,-1.5998,25.203,-8.3902,29.437,12.479,30.657,-7.3485,19.269,-1.2862,20.893
-10.382,38.341,7.3733,19.14,-4.5272,30.392,-1.5998,25.203,-8.3902,29.437,12.479,30.657,-7.3485,19.269,-1.2862,20.893
-10.418,38.236,7.3816,18.85,-4.6157,30.219,-1.6848,25.018,-8.5048,29.313,12.553,30.464,-7.4286,19.182,-1.385,20.747
-10.418,38.236,7.3816,18.85,-4.6157,30.219,-1.6848,25.018,-8.5048,29.313,12.553,30.464,-7.4286,19.182,-1.385,20.747
-10.436,38.183,7.3853,18.706,-4.6597,30.133,-1.7279,24.924,-8.5615,29.25,12.59,30.366,-7.4676,19.137,-1.4347,20.673
-10.436,38.183,7.3853,18.706,-4.6597,30.133,-1.7279,24.924,-8.5615,29.25,12.59,30.366,-7.4676,19.137,-1.4347,20.673
-10.453,38.129,7.3887,18.562,-4.7034,30.045,-1.7712,24.83,-8.6177,29.186,12.628,30.269,-7.5059,19.093,-1.4846,20.599
-10.453,38.129,7.3887,18.562,-4.7034,30.045,-1.7712,24.83,-8.6177,29.186,12.628,30.269,-7.5059,19.093,-1.4846,20.599
-10.47,38.074,7.3918,18.419,-4.7469,29.957,-1.8149,24.735,-8.6734,29.121,12.665,30.171,-7.5435,19.047,-1.5347,20.524
-10.47,38.074,7.3918,18.419,-4.7469,29.957,-1.8149,24.735,-8.6734,29.121,12.665,30.171,-7.5435,19.047,-1.5347,20.524
-10.47,38.074,7.3918,18.419,-4.7469,29.957,-1.8149,24.735,-8.6734,29.121,12.665,30.171,-7.5435,19.047,-1.5347,20.524
-10.488,38.019,7.3946,18.276,-4.7902,29.869,-1.859,24.64,-8.7288,29.056,12.703,30.073,-7.5804,19.002,-1.585,20.449
-10.488,38.019,7.3946,18.276,-4.7902,29.869,-1.859,24.64,-8.7288,29.056,12.703,30.073,-7.5804,19.002,-1.585,20.449
-10.488,38.019,7.3946,18.276,-4.7902,29.869,-1.859,24.64,-8.7288,29.056,12.703,30.073,-7.5804,19.002,-1.585,20.449
-10.522,37.907,7.3992,17.992,-4.8763,29.69,-1.9481,24.448,-8.8382,28.924,12.779,29.876,-7.6522,18.909,-1.6863,20.298
-10.522,37.907,7.3992,17.992,-4.8763,29.69,-1.9481,24.448,-8.8382,28.924,12.779,29.876,-7.6522,18.909,-1.6863,20.298
-10.539,37.85,7.401,17.851,-4.919,29.599,-1.9932,24.351,-8.8922,28.857,12.817,29.778,-7.6871,18.862,-1.7373,20.221
-10.539,37.85,7.401,17.851,-4.919,29.599,-1.9932,24.351,-8.8922,28.857,12.817,29.778,-7.6871,18.862,-1.7373,20.221
-10.539,37.85,7.401,17.851,-4.919,29.599,-1.9932,24.351,-8.8922,28.857,12.817,29.778,-7.6871,18.862,-1.7373,20.221
-10.556,37.792,7.4025,17.71,-4.9616,29.508,-2.0386,24.253,-8.9459,28.789,12.856,29.678,-7.7214,18.814,-1.7884,20.144
-10.556,37.792,7.4025,17.71,-4.9616,29.508,-2.0386,24.253,-8.9459,28.789,12.856,29.678,-7.7214,18.814,-1.7884,20.144
-10.556,37.792,7.4025,17.71,-4.9616,29.508,-2.0386,24.253,-8.9459,28.789,12.856,29.678,-7.7214,18.814,-1.7884,20.144
-10.59,37.675,7.4042,17.429,-5.0461,29.325,-2.1306,24.057,-9.052,28.651,12.933,29.479,-7.7881,18.718,-1.8915,19.989
-10.59,37.675,7.4042,17.429,-5.0461,29.325,-2.1306,24.057,-9.052,28.651,12.933,29.479,-7.7881,18.718,-1.8915,19.989
-10.607,37.615,7.4046,17.289,-5.0882,29.232,-2.1771,23.957,-9.1045,28.581,12.971,29.378,-7.8205,18.669,-1.9434,19.911
-10.607,37.615,7.4046,17.289,-5.0882,29.232,-2.1771,23.957,-9.1045,28.581,12.971,29.378,-7.8205,18.669,-1.9434,19.911
-10.607,37.615,7.4046,17.289,-5.0882,29.232,-2.1771,23.957,-9.1045,28.581,12.971,29.378,-7.8205,18.669,-1.9434,19.911
-10.624,37.554,7.4045,17.15,-5.1301,29.139,-2.224,23.857,-9.1566,28.511,13.01,29.278,-7.8524,18.619,-1.9955,19.832
-10.641,37.493,7.4041,17.011,-5.1718,29.045,-2.2713,23.757,-9.2083,28.439,13.049,29.177,-7.8836,18.569,-2.0478,19.753
-10.641,37.493,7.4041,17.011,-5.1718,29.045,-2.2713,23.757,-9.2083,28.439,13.049,29.177,-7.8836,18.569,-2.0478,19.753
-10.658,37.432,7.4032,16.872,-5.2134,28.95,-2.3189,23.656,-9.2596,28.367,13.088,29.075,-7.9143,18.518,-2.1004,19.673
-10.658,37.432,7.4032,16.872,-5.2134,28.95,-2.3189,23.656,-9.2596,28.367,13.088,29.075,-7.9143,18.518,-2.1004,19.673
-10.675,37.369,7.4019,16.734,-5.2548,28.855,-2.3669,23.554,-9.3105,28.294,13.127,28.973,-7.9445,18.467,-2.1532,19.593
-10.691,37.306,7.4002,16.596,-5.2961,28.759,-2.4153,23.452,-9.3611,28.221,13.166,28.87,-7.9741,18.415,-2.2062,19.512
-10.691,37.306,7.4002,16.596,-5.2961,28.759,-2.4153,23.452,-9.3611,28.221,13.166,28.87,-7.9741,18.415,-2.2062,19.512
-10.708,37.242,7.3981,16.458,-5.3373,28.663,-2.464,23.349,-9.4113,28.146,13.206,28.767,-8.0031,18.363,-2.2595,19.431
-10.708,37.242,7.3981,16.458,-5.3373,28.663,-2.464,23.349,-9.4113,28.146,13.206,28.767,-8.0031,18.363,-2.2595,19.431
-10.708,37.242,7.3981,16.458,-5.3373,28.663,-2.464,23.349,-9.4113,28.146,13.206,28.767,-8.0031,18.363,-2.2595,19.431
-10.725,37.177,7.3956,16.32,-5.3783,28.566,-2.5131,23.245,-9.4612,28.071,13.245,28.664,-8.0317,18.31,-2.313,19.349
-10.725,37.177,7.3956,16.32,-5.3783,28.566,-2.5131,23.245,-9.4612,28.071,13.245,28.664,-8.0317,18.31,-2.313,19.349
-10.725,37.177,7.3956,16.32,-5.3783,28.566,-2.5131,23.245,-9.4612,28.071,13.245,28.664,-8.0317,18.31,-2.313,19.349
-10.742,37.112,7.3926,16.183,-5.4192,28.468,-2.5627,23.141,-9.5107,27.996,13.284,28.56,-8.0597,18.256,-2.3667,19.267
-10.759,37.045,7.3891,16.046,-5.46,28.37,-2.6126,23.036,-9.5598,27.919,13.323,28.456,-8.0872,18.202,-2.4207,19.184
-10.776,36.978,7.3852,15.91,-5.5007,28.271,-2.6629,22.93,-9.6087,27.841,13.363,28.35,-8.1142,18.147,-2.4749,19.101
-10.776,36.978,7.3852,15.91,-5.5007,28.271,-2.6629,22.93,-9.6087,27.841,13.363,28.35,-8.1142,18.147,-2.4749,19.101
-10.793,36.91,7.3808,15.773,-5.5413,28.171,-2.7135,22.824,-9.6572,27.763,13.402,28.245,-8.1408,18.092,-2.5294,19.017
-10.793,36.91,7.3808,15.773,-5.5413,28.171,-2.7135,22.824,-9.6572,27.763,13.402,28.245,-8.1408,18.092,-2.5294,19.017
-10.793,36.91,7.3808,15.773,-5.5413,28.171,-2.7135,22.824,-9.6572,27.763,13.402,28.245,-8.1408,18.092,-2.5294,19.017
-10.81,36.842,7.376,15.637,-5.5818,28.071,-2.7646,22.717,-9.7053,27.684,13.442,28.139,-8.1668,18.036,-2.5842,18.933
-10.81,36.842,7.376,15.637,-5.5818,28.071,-2.7646,22.717,-9.7053,27.684,13.442,28.139,-8.1668,18.036,-2.5842,18.933
-10.81,36.842,7.376,15.637,-5.5818,28.071,-2.7646,22.717,-9.7053,27.684,13.442,28.139,-8.1668,18.036,-2.5842,18.933
-10.827,36.772,7.3706,15.501,-5.6222,27.97,-2.8161,22.61,-9.7532,27.604,13.481,28.032,-8.1925,17.979,-2.6391,18.848
-10.827,36.772,7.3706,15.501,-5.6222,27.97,-2.8161,22.61,-9.7532,27.604,13.481,28.032,-8.1925,17.979,-2.6391,18.848
-10.827,36.772,7.3706,15.501,-5.6222,27.97,-2.8161,22.61,-9.7532,27.604,13.481,28.032,-8.1925,17.979,-2.6391,18.848
-10.862,36.63,7.3585,15.23,-5.7027,27.766,-2.9202,22.392,-9.8479,27.442,13.56,27.816,-8.2424,17.864,-2.7498,18.677
-10.862,36.63,7.3585,15.23,-5.7027,27.766,-2.9202,22.392,-9.8479,27.442,13.56,27.816,-8.2424,17.864,-2.7498,18.677
-10.879,36.558,7.3517,15.094,-5.7428,27.663,-2.9729,22.283,-9.8948,27.36,13.6,27.708,-8.2667,17.806,-2.8056,18.59
-10.879,36.558,7.3517,15.094,-5.7428,27.663,-2.9729,22.283,-9.8948,27.36,13.6,27.708,-8.2667,17.806,-2.8056,18.59
-10.897,36.485,7.3443,14.959,-5.7829,27.56,-3.026,22.172,-9.9415,27.277,13.639,27.599,-8.2906,17.746,-2.8615,18.503
-10.897,36.485,7.3443,14.959,-5.7829,27.56,-3.026,22.172,-9.9415,27.277,13.639,27.599,-8.2906,17.746,-2.8615,18.503
-10.915,36.411,7.3365,14.824,-5.8229,27.456,-3.0795,22.061,-9.9878,27.193,13.679,27.489,-8.3141,17.686,-2.9178,18.416
-10.915,36.411,7.3365,14.824,-5.8229,27.456,-3.0795,22.061,-9.9878,27.193,13.679,27.489,-8.3141,17.686,-2.9178,18.416
-10.932,36.337,7.3281,14.689,-5.8628,27.351,-3.1334,21.95,-10.034,27.109,13.718,27.378,-8.3372,17.626,-2.9743,18.327
-10.932,36.337,7.3281,14.689,-5.8628,27.351,-3.1334,21.95,-10.034,27.109,13.718,27.378,-8.3372,17.626,-2.9743,18.327
-10.95,36.261,7.3192,14.554,-5.9027,27.245,-3.1877,21.837,-10.08,27.023,13.758,27.267,-8.3599,17.565,-3.031,18.239
-10.95,36.261,7.3192,14.554,-5.9027,27.245,-3.1877,21.837,-10.08,27.023,13.758,27.267,-8.3599,17.565,-3.031,18.239
-10.968,36.184,7.3097,14.419,-5.9425,27.139,-3.2425,21.724,-10.125,26.937,13.797,27.154,-8.3823,17.502,-3.088,18.149
-10.968,36.184,7.3097,14.419,-5.9425,27.139,-3.2425,21.724,-10.125,26.937,13.797,27.154,-8.3823,17.502,-3.088,18.149
-10.968,36.184,7.3097,14.419,-5.9425,27.139,-3.2425,21.724,-10.125,26.937,13.797,27.154,-8.3823,17.502,-3.088,18.149
-10.987,36.107,7.2997,14.285,-5.9823,27.032,-3.2976,21.61,-10.17,26.849,13.836,27.042,-8.4043,17.44,-3.1453,18.059
-10.987,36.107,7.2997,14.285,-5.9823,27.032,-3.2976,21.61,-10.17,26.849,13.836,27.042,-8.4043,17.44,-3.1453,18.059
-11.005,36.028,7.2891,14.15,-6.022,26.924,-3.3532,21.495,-10.215,26.761,13.876,26.928,-8.426,17.376,-3.2029,17.969
-11.023,35.949,7.278,14.015,-6.0617,26.816,-3.4092,21.38,-10.26,26.672,13.915,26.814,-8.4473,17.312,-3.2607,17.877
-11.023,35.949,7.278,14.015,-6.0617,26.816,-3.4092,21.38,-10.26,26.672,13.915,26.814,-8.4473,17.312,-3.2607,17.877
-11.042,35.869,7.2663,13.881,-6.1014,26.706,-3.4656,21.263,-10.304,26.582,13.954,26.699,-8.4683,17.247,-3.3187,17.785
-11.042,35.869,7.2663,13.881,-6.1014,26.706,-3.4656,21.263,-10.304,26.582,13.954,26.699,-8.4683,17.247,-3.3187,17.785
-11.042,35.869,7.2663,13.881,-6.1014,26.706,-3.4656,21.263,-10.304,26.582,13.954,26.699,-8.4683,17.247,-3.3187,17.785
-11.061,35.787,7.254,13.746,-6.1411,26.597,-3.5224,21.146,-10.348,26.491,13.993,26.583,-8.489,17.182,-3.3771,17.693
-11.061,35.787,7.254,13.746,-6.1411,26.597,-3.5224,21.146,-10.348,26.491,13.993,26.583,-8.489,17.182,-3.3771,17.693
-11.08,35.705,7.2412,13.612,-6.1807,26.486,-3.5797,21.029,-10.392,26.4,14.032,26.466,-8.5094,17.115,-3.4357,17.6
-11.099,35.622,7.2277,13.477,-6.2203,26.375,-3.6374,20.91,-10.436,26.307,14.071,26.349,-8.5295,17.048,-3.4945,17.506
-11.118,35.537,7.2137,13.343,-6.26,26.263,-3.6955,20.791,-10.48,26.214,14.11,26.23,-8.5494,16.98,-3.5537,17.412
-11.118,35.537,7.2137,13.343,-6.26,26.263,-3.6955,20.791,-10.48,26.214,14.11,26.23,-8.5494,16.98,-3.5537,17.412
-11.138,35.452,7.1991,13.208,-6.2996,26.15,-3.7541,20.671,-10.523,26.119,14.148,26.111,-8.5689,16.912,-3.6131,17.317
-11.138,35.452,7.1991,13.208,-6.2996,26.15,-3.7541,20.671,-10.523,26.119,14.148,26.111,-8.5689,16.912,-3.6131,17.317
-11.138,35.452,7.1991,13.208,-6.2996,26.15,-3.7541,20.671,-10.523,26.119,14.148,26.111,-8.5689,16.912,-3.6131,17.317
-11.157,35.365,7.1838,13.074,-6.3392,26.037,-3.8131,20.55,-10.566,26.024,14.187,25.991,-8.5882,16.842,-3.6727,17.221
-11.157,35.365,7.1838,13.074,-6.3392,26.037,-3.8131,20.55,-10.566,26.024,14.187,25.991,-8.5882,16.842,-3.6727,17.221
-11.177,35.278,7.1679,12.939,-6.3789,25.922,-3.8725,20.428,-10.609,25.928,14.226,25.87,-8.6073,16.772,-3.7327,17.125
-11.177,35.278,7.1679,12.939,-6.3789,25.922,-3.8725,20.428,-10.609,25.928,14.226,25.87,-8.6073,16.772,-3.7327,17.125
-11.177,35.278,7.1679,12.939,-6.3789,25.922,-3.8725,20.428,-10.609,25.928,14.226,25.87,-8.6073,16.772,-3.7327,17.125
-11.197,35.189,7.1515,12.804,-6.4185,25.807,-3.9324,20.305,-10.651,25.831,14.264,25.748,-8.6261,16.701,-3.7929,17.028
-11.197,35.189,7.1515,12.804,-6.4185,25.807,-3.9324,20.305,-10.651,25.831,14.264,25.748,-8.6261,16.701,-3.7929,17.028
-11.238,35.009,7.1166,12.534,-6.498,25.575,-4.0535,20.058,-10.736,25.634,14.34,25.501,-8.6631,16.556,-3.9142,16.832
-11.238,35.009,7.1166,12.534,-6.498,25.575,-4.0535,20.058,-10.736,25.634,14.34,25.501,-8.6631,16.556,-3.9142,16.832
-11.259,34.918,7.0983,12.399,-6.5377,25.458,-4.1147,19.933,-10.778,25.534,14.378,25.377,-8.6813,16.483,-3.9752,16.733
-11.259,34.918,7.0983,12.399,-6.5377,25.458,-4.1147,19.933,-10.778,25.534,14.378,25.377,-8.6813,16.483,-3.9752,16.733
-11.259,34.918,7.0983,12.399,-6.5377,25.458,-4.1147,19.933,-10.778,25.534,14.378,25.377,-8.6813,16.483,-3.9752,16.733
-11.28,34.825,7.0793,12.264,-6.5775,25.34,-4.1764,19.807,-10.82,25.433,14.416,25.251,-8.6993,16.409,-4.0365,16.633
-11.28,34.825,7.0793,12.264,-6.5775,25.34,-4.1764,19.807,-10.82,25.433,14.416,25.251,-8.6993,16.409,-4.0365,16.633
-11.301,34.731,7.0596,12.128,-6.6173,25.222,-4.2385,19.68,-10.861,25.331,14.454,25.125,-8.7172,16.334,-4.0981,16.533
-11.301,34.731,7.0596,12.128,-6.6173,25.222,-4.2385,19.68,-10.861,25.331,14.454,25.125,-8.7172,16.334,-4.0981,16.533
-11.323,34.636,7.0393,11.993,-6.6572,25.102,-4.301,19.553,-10.903,25.229,14.492,24.997,-8.7348,16.258,-4.16,16.432
-11.323,34.636,7.0393,11.993,-6.6572,25.102,-4.301,19.553,-10.903,25.229,14.492,24.997,-8.7348,16.258,-4.16,16.432
-11.345,34.54,7.0183,11.857,-6.6972,24.982,-4.364,19.425,-10.944,25.125,14.529,24.868,-8.7523,16.181,-4.2221,16.33
-11.345,34.54,7.0183,11.857,-6.6972,24.982,-4.364,19.425,-10.944,25.125,14.529,24.868,-8.7523,16.181,-4.2221,16.33
-11.367,34.442,6.9967,11.721,-6.7372,24.861,-4.4275,19.295,-10.985,25.02,14.566,24.739,-8.7697,16.103,-4.2846,16.228
-11.367,34.442,6.9967,11.721,-6.7372,24.861,-4.4275,19.295,-10.985,25.02,14.566,24.739,-8.7697,16.103,-4.2846,16.228
-11.367,34.442,6.9967,11.721,-6.7372,24.861,-4.4275,19.295,-10.985,25.02,14.566,24.739,-8.7697,16.103,-4.2846,16.228
-11.389,34.344,6.9744,11.585,-6.7773,24.739,-4.4914,19.165,-11.026,24.914,14.603,24.608,-8.7869,16.025,-4.3473,16.125
-11.389,34.344,6.9744,11.585,-6.7773,24.739,-4.4914,19.165,-11.026,24.914,14.603,24.608,-8.7869,16.025,-4.3473,16.125
-11.389,34.344,6.9744,11.585,-6.7773,24.739,-4.4914,19.165,-11.026,24.914,14.603,24.608,-8.7869,16.025,-4.3473,16.125
-11.435,34.144,6.9278,11.312,-6.8577,24.493,-4.6206,18.903,-11.108,24.7,14.677,24.344,-8.821,15.865,-4.4735,15.916
-11.435,34.144,6.9278,11.312,-6.8577,24.493,-4.6206,18.903,-11.108,24.7,14.677,24.344,-8.821,15.865,-4.4735,15.916
-11.458,34.042,6.9035,11.175,-6.898,24.369,-4.6859,18.77,-11.148,24.592,14.713,24.21,-8.8378,15.784,-4.5371,15.811
-11.458,34.042,6.9035,11.175,-6.898,24.369,-4.6859,18.77,-11.148,24.592,14.713,24.21,-8.8378,15.784,-4.5371,15.811
-11.482,33.939,6.8785,11.038,-6.9384,24.245,-4.7516,18.636,-11.189,24.482,14.75,24.075,-8.8546,15.702,-4.6009,15.705
-11.482,33.939,6.8785,11.038,-6.9384,24.245,-4.7516,18.636,-11.189,24.482,14.75,24.075,-8.8546,15.702,-4.6009,15.705
-11.505,33.835,6.8528,10.9,-6.979,24.119,-4.8178,18.502,-11.229,24.372,14.786,23.939,-8.8713,15.62,-4.665,15.598
-11.505,33.835,6.8528,10.9,-6.979,24.119,-4.8178,18.502,-11.229,24.372,14.786,23.939,-8.8713,15.62,-4.665,15.598
-11.529,33.729,6.8264,10.762,-7.0196,23.992,-4.8844,18.367,-11.269,24.26,14.822,23.802,-8.8879,15.536,-4.7294,15.49
-11.529,33.729,6.8264,10.762,-7.0196,23.992,-4.8844,18.367,-11.269,24.26,14.822,23.802,-8.8879,15.536,-4.7294,15.49
-11.554,33.623,6.7993,10.624,-7.0603,23.865,-4.9516,18.23,-11.309,24.147,14.857,23.664,-8.9045,15.451,-4.7941,15.382
-11.554,33.623,6.7993,10.624,-7.0603,23.865,-4.9516,18.23,-11.309,24.147,14.857,23.664,-8.9045,15.451,-4.7941,15.382
-11.579,33.515,6.7716,10.486,-7.1012,23.737,-5.0192,18.093,-11.349,24.034,14.893,23.524,-8.921,15.366,-4.859,15.273
-11.579,33.515,6.7716,10.486,-7.1012,23.737,-5.0192,18.093,-11.349,24.034,14.893,23.524,-8.921,15.366,-4.859,15.273
-11.604,33.406,6.7431,10.347,-7.1421,23.608,-5.0872,17.955,-11.389,23.919,14.928,23.384,-8.9375,15.279,-4.9243,15.163
-11.604,33.406,6.7431,10.347,-7.1421,23.608,-5.0872,17.955,-11.389,23.919,14.928,23.384,-8.9375,15.279,-4.9243,15.163
-11.604,33.406,6.7431,10.347,-7.1421,23.608,-5.0872,17.955,-11.389,23.919,14.928,23.384,-8.9375,15.279,-4.9243,15.163
-11.629,33.295,6.7139,10.208,-7.1832,23.479,-5.1557,17.816,-11.428,23.804,14.963,23.242,-8.9539,15.192,-4.9898,15.053
-11.629,33.295,6.7139,10.208,-7.1832,23.479,-5.1557,17.816,-11.428,23.804,14.963,23.242,-8.9539,15.192,-4.9898,15.053
-11.655,33.184,6.6839,10.068,-7.2244,23.348,-5.2247,17.676,-11.468,23.687,14.998,23.1,-8.9703,15.104,-5.0556,14.941
-11.655,33.184,6.6839,10.068,-7.2244,23.348,-5.2247,17.676,-11.468,23.687,14.998,23.1,-8.9703,15.104,-5.0556,14.941
-11.707,32.957,6.622,9.7881,-7.3073,23.085,-5.3641,17.394,-11.547,23.451,15.066,22.81,-9.0031,14.924,-5.1881,14.716
-11.707,32.957,6.622,9.7881,-7.3073,23.085,-5.3641,17.394,-11.547,23.451,15.066,22.81,-9.0031,14.924,-5.1881,14.716
-11.707,32.957,6.622,9.7881,-7.3073,23.085,-5.3641,17.394,-11.547,23.451,15.066,22.81,-9.0031,14.924,-5.1881,14.716
-11.734,32.842,6.5899,9.6474,-7.3489,22.952,-5.4345,17.251,-11.586,23.331,15.1,22.664,-9.0195,14.833,-5.2547,14.603
-11.734,32.842,6.5899,9.6474,-7.3489,22.952,-5.4345,17.251,-11.586,23.331,15.1,22.664,-9.0195,14.833,-5.2547,14.603
-11.761,32.725,6.5571,9.5062,-7.3907,22.818,-5.5053,17.107,-11.625,23.211,15.134,22.516,-9.0359,14.741,-5.3217,14.488
-11.761,32.725,6.5571,9.5062,-7.3907,22.818,-5.5053,17.107,-11.625,23.211,15.134,22.516,-9.0359,14.741,-5.3217,14.488
-11.761,32.725,6.5571,9.5062,-7.3907,22.818,-5.5053,17.107,-11.625,23.211,15.134,22.516,-9.0359,14.741,-5.3217,14.488
-11.788,32.607,6.5235,9.3647,-7.4326,22.684,-5.5766,16.963,-11.664,23.089,15.168,22.367,-9.0524,14.648,-5.3889,14.373
-11.788,32.607,6.5235,9.3647,-7.4326,22.684,-5.5766,16.963,-11.664,23.089,15.168,22.367,-9.0524,14.648,-5.3889,14.373
-11.844,32.368,6.4543,9.0801,-7.517,22.412,-5.7207,16.671,-11.742,22.842,15.234,22.066,-9.0854,14.46,-5.5242,14.14
-11.844,32.368,6.4543,9.0801,-7.517,22.412,-5.7207,16.671,-11.742,22.842,15.234,22.066,-9.0854,14.46,-5.5242,14.14
-11.873,32.246,6.4186,8.9372,-7.5595,22.276,-5.7934,16.523,-11.781,22.717,15.266,21.913,-9.102,14.364,-5.5923,14.022
-11.873,32.246,6.4186,8.9372,-7.5595,22.276,-5.7934,16.523,-11.781,22.717,15.266,21.913,-9.102,14.364,-5.5923,14.022
-11.873,32.246,6.4186,8.9372,-7.5595,22.276,-5.7934,16.523,-11.781,22.717,15.266,21.913,-9.102,14.364,-5.5923,14.022
-11.873,32.246,6.4186,8.9372,-7.5595,22.276,-5.7934,16.523,-11.781,22.717,15.266,21.913,-9.102,14.364,-5.5923,14.022
-11.902,32.123,6.3821,8.7937,-7.6021,22.138,-5.8666,16.375,-11.82,22.592,15.299,21.759,-9.1187,14.267,-5.6606,13.904
-11.902,32.123,6.3821,8.7937,-7.6021,22.138,-5.8666,16.375,-11.82,22.592,15.299,21.759,-9.1187,14.267,-5.6606,13.904
-11.902,32.123,6.3821,8.7937,-7.6021,22.138,-5.8666,16.375,-11.82,22.592,15.299,21.759,-9.1187,14.267,-5.6606,13.904
-11.961,31.873,6.3069,8.5052,-7.6879,21.86,-6.0145,16.075,-11.898,22.337,15.363,21.448,-9.1522,14.071,-5.7982,13.664
-11.961,31.873,6.3069,8.5052,-7.6879,21.86,-6.0145,16.075,-11.898,22.337,15.363,21.448,-9.1522,14.071,-5.7982,13.664
-11.991,31.746,6.2682,8.3602,-7.7311,21.719,-6.0891,15.924,-11.936,22.208,15.394,21.29,-9.1692,13.971,-5.8674,13.543
-11.991,31.746,6.2682,8.3602,-7.7311,21.719,-6.0891,15.924,-11.936,22.208,15.394,21.29,-9.1692,13.971,-5.8674,13.543
-12.021,31.618,6.2288,8.2146,-7.7744,21.578,-6.1642,15.772,-11.975,22.078,15.425,21.131,-9.1862,13.871,-5.9369,13.421
-12.021,31.618,6.2288,8.2146,-7.7744,21.578,-6.1642,15.772,-11.975,22.078,15.425,21.131,-9.1862,13.871,-5.9369,13.421
-12.052,31.488,6.1886,8.0685,-7.818,21.436,-6.2398,15.618,-12.014,21.946,15.456,20.97,-9.2033,13.769,-6.0067,13.299
-12.052,31.488,6.1886,8.0685,-7.818,21.436,-6.2398,15.618,-12.014,21.946,15.456,20.97,-9.2033,13.769,-6.0067,13.299
-12.083,31.357,6.1476,7.9218,-7.8618,21.293,-6.3158,15.464,-12.052,21.814,15.487,20.808,-9.2206,13.666,-6.0767,13.175
-12.083,31.357,6.1476,7.9218,-7.8618,21.293,-6.3158,15.464,-12.052,21.814,15.487,20.808,-9.2206,13.666,-6.0767,13.175
-12.083,31.357,6.1476,7.9218,-7.8618,21.293,-6.3158,15.464,-12.052,21.814,15.487,20.808,-9.2206,13.666,-6.0767,13.175
-12.115,31.225,6.1059,7.7745,-7.9058,21.15,-6.3924,15.309,-12.091,21.681,15.517,20.645,-9.238,13.563,-6.1471,13.051
-12.115,31.225,6.1059,7.7745,-7.9058,21.15,-6.3924,15.309,-12.091,21.681,15.517,20.645,-9.238,13.563,-6.1471,13.051
-12.115,31.225,6.1059,7.7745,-7.9058,21.15,-6.3924,15.309,-12.091,21.681,15.517,20.645,-9.238,13.563,-6.1471,13.051
-12.179,30.957,6.0203,7.4781,-7.9945,20.86,-6.5468,14.995,-12.168,21.411,15.576,20.315,-9.2732,13.353,-6.2886,12.8
-12.179,30.957,6.0203,7.4781,-7.9945,20.86,-6.5468,14.995,-12.168,21.411,15.576,20.315,-9.2732,13.353,-6.2886,12.8
-12.212,30.82,5.9763,7.329,-8.0392,20.714,-6.6248,14.837,-12.207,21.275,15.606,20.148,-9.291,13.246,-6.3597,12.673
-12.212,30.82,5.9763,7.329,-8.0392,20.714,-6.6248,14.837,-12.207,21.275,15.606,20.148,-9.291,13.246,-6.3597,12.673
-12.245,30.683,5.9316,7.1793,-8.0841,20.567,-6.7032,14.678,-12.245,21.137,15.635,19.979,-9.3091,13.138,-6.4312,12.545
-12.245,30.683,5.9316,7.1793,-8.0841,20.567,-6.7032,14.678,-12.245,21.137,15.635,19.979,-9.3091,13.138,-6.4312,12.545
-12.279,30.544,5.8861,7.0289,-8.1292,20.419,-6.7821,14.518,-12.284,20.999,15.663,19.809,-9.3272,13.03,-6.5029,12.417
-12.313,30.403,5.8399,6.8779,-8.1746,20.27,-6.8614,14.356,-12.322,20.859,15.691,19.638,-9.3456,12.92,-6.5749,12.287
-12.313,30.403,5.8399,6.8779,-8.1746,20.27,-6.8614,14.356,-12.322,20.859,15.691,19.638,-9.3456,12.92,-6.5749,12.287
-12.313,30.403,5.8399,6.8779,-8.1746,20.27,-6.8614,14.356,-12.322,20.859,15.691,19.638,-9.3456,12.92,-6.5749,12.287
-12.347,30.261,5.7929,6.7262,-8.2202,20.121,-6.9412,14.194,-12.361,20.718,15.719,19.465,-9.3642,12.81,-6.6472,12.157
-12.347,30.261,5.7929,6.7262,-8.2202,20.121,-6.9412,14.194,-12.361,20.718,15.719,19.465,-9.3642,12.81,-6.6472,12.157
-12.382,30.118,5.7451,6.5739,-8.2661,19.97,-7.0215,14.031,-12.4,20.576,15.747,19.29,-9.383,12.698,-6.7198,12.026
-12.382,30.118,5.7451,6.5739,-8.2661,19.97,-7.0215,14.031,-12.4,20.576,15.747,19.29,-9.383,12.698,-6.7198,12.026
-12.382,30.118,5.7451,6.5739,-8.2661,19.97,-7.0215,14.031,-12.4,20.576,15.747,19.29,-9.383,12.698,-6.7198,12.026
-12.418,29.974,5.6966,6.4208,-8.3123,19.819,-7.1023,13.866,-12.438,20.433,15.774,19.115,-9.4019,12.585,-6.7926,11.894
-12.418,29.974,5.6966,6.4208,-8.3123,19.819,-7.1023,13.866,-12.438,20.433,15.774,19.115,-9.4019,12.585,-6.7926,11.894
-12.418,29.974,5.6966,6.4208,-8.3123,19.819,-7.1023,13.866,-12.438,20.433,15.774,19.115,-9.4019,12.585,-6.7926,11.894
-12.489,29.68,5.5973,6.1127,-8.4053,19.514,-7.2653,13.535,-12.515,20.144,15.827,18.759,-9.4406,12.357,-6.9391,11.627
-12.489,29.68,5.5973,6.1127,-8.4053,19.514,-7.2653,13.535,-12.515,20.144,15.827,18.759,-9.4406,12.357,-6.9391,11.627
-12.489,29.68,5.5973,6.1127,-8.4053,19.514,-7.2653,13.535,-12.515,20.144,15.827,18.759,-9.4406,12.357,-6.9391,11.627
-12.526,29.532,5.5466,5.9575,-8.4522,19.36,-7.3474,13.367,-12.554,19.998,15.853,18.579,-9.4602,12.241,-7.0128,11.492
-12.526,29.532,5.5466,5.9575,-8.4522,19.36,-7.3474,13.367,-12.554,19.998,15.853,18.579,-9.4602,12.241,-7.0128,11.492
-12.563,29.382,5.495,5.8016,-8.4994,19.206,-7.4301,13.199,-12.593,19.851,15.879,18.398,-9.4801,12.125,-7.0867,11.357
-12.563,29.382,5.495,5.8016,-8.4994,19.206,-7.4301,13.199,-12.593,19.851,15.879,18.398,-9.4801,12.125,-7.0867,11.357
-12.563,29.382,5.495,5.8016,-8.4994,19.206,-7.4301,13.199,-12.593,19.851,15.879,18.398,-9.4801,12.125,-7.0867,11.357
-12.638,29.077,5.3897,5.4876,-8.5947,18.894,-7.5968,12.859,-12.67,19.554,15.929,18.03,-9.5207,11.888,-7.2354,11.083
-12.677,28.923,5.3359,5.3295,-8.6427,18.737,-7.6808,12.687,-12.709,19.403,15.954,17.844,-9.5414,11.768,-7.3101,10.945
-12.677,28.923,5.3359,5.3295,-8.6427,18.737,-7.6808,12.687,-12.709,19.403,15.954,17.844,-9.5414,11.768,-7.3101,10.945
-12.716,28.767,5.2813,5.1706,-8.691,18.579,-7.7653,12.515,-12.748,19.252,15.978,17.657,-9.5623,11.647,-7.3851,10.806
-12.716,28.767,5.2813,5.1706,-8.691,18.579,-7.7653,12.515,-12.748,19.252,15.978,17.657,-9.5623,11.647,-7.3851,10.806
-12.716,28.767,5.2813,5.1706,-8.691,18.579,-7.7653,12.515,-12.748,19.252,15.978,17.657,-9.5623,11.647,-7.3851,10.806
-12.755,28.61,5.226,5.0109,-8.7396,18.42,-7.8503,12.341,-12.787,19.099,16.002,17.468,-9.5836,11.526,-7.4604,10.666
-12.755,28.61,5.226,5.0109,-8.7396,18.42,-7.8503,12.341,-12.787,19.099,16.002,17.468,-9.5836,11.526,-7.4604,10.666
-12.795,28.452,5.1699,4.8505,-8.7886,18.26,-7.9358,12.167,-12.826,18.945,16.025,17.278,-9.6051,11.403,-7.5359,10.525
-12.795,28.452,5.1699,4.8505,-8.7886,18.26,-7.9358,12.167,-12.826,18.945,16.025,17.278,-9.6051,11.403,-7.5359,10.525
-12.835,28.292,5.1131,4.6892,-8.8378,18.1,-8.0216,11.991,-12.865,18.791,16.048,17.086,-9.6269,11.279,-7.6117,10.383
-12.835,28.292,5.1131,4.6892,-8.8378,18.1,-8.0216,11.991,-12.865,18.791,16.048,17.086,-9.6269,11.279,-7.6117,10.383
-12.875,28.13,5.0556,4.5272,-8.8873,17.938,-8.108,11.814,-12.904,18.635,16.071,16.893,-9.649,11.154,-7.6878,10.24
-12.875,28.13,5.0556,4.5272,-8.8873,17.938,-8.108,11.814,-12.904,18.635,16.071,16.893,-9.649,11.154,-7.6878,10.24
-12.916,27.968,4.9972,4.3643,-8.9371,17.776,-8.1948,11.636,-12.943,18.478,16.093,16.698,-9.6715,11.028,-7.7641,10.097
-12.916,27.968,4.9972,4.3643,-8.9371,17.776,-8.1948,11.636,-12.943,18.478,16.093,16.698,-9.6715,11.028,-7.7641,10.097
-12.958,27.803,4.9382,4.2007,-8.9873,17.613,-8.2821,11.458,-12.982,18.32,16.115,16.501,-9.6942,10.901,-7.8407,9.952
-12.958,27.803,4.9382,4.2007,-8.9873,17.613,-8.2821,11.458,-12.982,18.32,16.115,16.501,-9.6942,10.901,-7.8407,9.952
-12.958,27.803,4.9382,4.2007,-8.9873,17.613,-8.2821,11.458,-12.982,18.32,16.115,16.501,-9.6942,10.901,-7.8407,9.952
-13,27.638,4.8784,4.0362,-9.0377,17.449,-8.3698,11.278,-13.022,18.161,16.137,16.304,-9.7173,10.773,-7.9176,9.8065
-13,27.638,4.8784,4.0362,-9.0377,17.449,-8.3698,11.278,-13.022,18.161,16.137,16.304,-9.7173,10.773,-7.9176,9.8065
-13.085,27.303,4.7566,3.7046,-9.1396,17.118,-8.5466,10.915,-13.1,17.84,16.178,15.903,-9.7645,10.514,-8.072,9.5129
-13.085,27.303,4.7566,3.7046,-9.1396,17.118,-8.5466,10.915,-13.1,17.84,16.178,15.903,-9.7645,10.514,-8.072,9.5129
-13.085,27.303,4.7566,3.7046,-9.1396,17.118,-8.5466,10.915,-13.1,17.84,16.178,15.903,-9.7645,10.514,-8.072,9.5129
-13.128,27.133,4.6946,3.5376,-9.191,16.952,-8.6357,10.732,-13.14,17.678,16.198,15.701,-9.7886,10.382,-8.1496,9.3647
-13.128,27.133,4.6946,3.5376,-9.191,16.952,-8.6357,10.732,-13.14,17.678,16.198,15.701,-9.7886,10.382,-8.1496,9.3647
-13.172,26.962,4.6318,3.3697,-9.2428,16.785,-8.7252,10.548,-13.179,17.515,16.218,15.497,-9.8131,10.25,-8.2275,9.2156
-13.172,26.962,4.6318,3.3697,-9.2428,16.785,-8.7252,10.548,-13.179,17.515,16.218,15.497,-9.8131,10.25,-8.2275,9.2156
-13.172,26.962,4.6318,3.3697,-9.2428,16.785,-8.7252,10.548,-13.179,17.515,16.218,15.497,-9.8131,10.25,-8.2275,9.2156
-13.216,26.789,4.5683,3.201,-9.2949,16.616,-8.8152,10.363,-13.219,17.35,16.238,15.291,-9.8379,10.117,-8.3056,9.0655
-13.216,26.789,4.5683,3.201,-9.2949,16.616,-8.8152,10.363,-13.219,17.35,16.238,15.291,-9.8379,10.117,-8.3056,9.0655
-13.216,26.789,4.5683,3.201,-9.2949,16.616,-8.8152,10.363,-13.219,17.35,16.238,15.291,-9.8379,10.117,-8.3056,9.0655
-13.305,26.44,4.4392,2.8608,-9.4,16.278,-8.9965,9.9895,-13.299,17.018,16.275,14.876,-9.8886,9.8474,-8.4626,8.7627
-13.305,26.44,4.4392,2.8608,-9.4,16.278,-8.9965,9.9895,-13.299,17.018,16.275,14.876,-9.8886,9.8474,-8.4626,8.7627
-13.351,26.263,4.3736,2.6895,-9.4532,16.107,-9.0878,9.8012,-13.339,16.851,16.293,14.665,-9.9145,9.711,-8.5414,8.6099
-13.351,26.263,4.3736,2.6895,-9.4532,16.107,-9.0878,9.8012,-13.339,16.851,16.293,14.665,-9.9145,9.711,-8.5414,8.6099
-13.351,26.263,4.3736,2.6895,-9.4532,16.107,-9.0878,9.8012,-13.339,16.851,16.293,14.665,-9.9145,9.711,-8.5414,8.6099
-13.397,26.085,4.3072,2.5172,-9.5066,15.935,-9.1795,9.6119,-13.379,16.682,16.311,14.454,-9.9409,9.5736,-8.6205,8.4562
-13.397,26.085,4.3072,2.5172,-9.5066,15.935,-9.1795,9.6119,-13.379,16.682,16.311,14.454,-9.9409,9.5736,-8.6205,8.4562
-13.49,25.724,4.1723,2.1699,-9.6146,15.59,-9.3643,9.2302,-13.459,16.342,16.345,14.026,-9.9947,9.2958,-8.7794,8.146
-13.49,25.724,4.1723,2.1699,-9.6146,15.59,-9.3643,9.2302,-13.459,16.342,16.345,14.026,-9.9947,9.2958,-8.7794,8.146
-13.537,25.542,4.1038,1.9949,-9.6691,15.416,-9.4573,9.0378,-13.499,16.17,16.361,13.809,-10.022,9.1554,-8.8592,7.9896
-13.537,25.542,4.1038,1.9949,-9.6691,15.416,-9.4573,9.0378,-13.499,16.17,16.361,13.809,-10.022,9.1554,-8.8592,7.9896
-13.537,25.542,4.1038,1.9949,-9.6691,15.416,-9.4573,9.0378,-13.499,16.17,16.361,13.809,-10.022,9.1554,-8.8592,7.9896
-13.585,25.358,4.0346,1.819,-9.7239,15.241,-9.5508,8.8443,-13.54,15.998,16.377,13.592,-10.05,9.0139,-8.9393,7.8322
-13.585,25.358,4.0346,1.819,-9.7239,15.241,-9.5508,8.8443,-13.54,15.998,16.377,13.592,-10.05,9.0139,-8.9393,7.8322
-13.585,25.358,4.0346,1.819,-9.7239,15.241,-9.5508,8.8443,-13.54,15.998,16.377,13.592,-10.05,9.0139,-8.9393,7.8322
-13.633,25.173,3.9647,1.6422,-9.7792,15.066,-9.6447,8.6498,-13.58,15.824,16.393,13.372,-10.078,8.8714,-9.0196,7.6739
-13.633,25.173,3.9647,1.6422,-9.7792,15.066,-9.6447,8.6498,-13.58,15.824,16.393,13.372,-10.078,8.8714,-9.0196,7.6739
-13.682,24.986,3.8941,1.4645,-9.8347,14.889,-9.739,8.4543,-13.621,15.649,16.408,13.151,-10.107,8.7278,-9.1001,7.5146
-13.682,24.986,3.8941,1.4645,-9.8347,14.889,-9.739,8.4543,-13.621,15.649,16.408,13.151,-10.107,8.7278,-9.1001,7.5146
-13.731,24.798,3.8229,1.2858,-9.8907,14.712,-9.8338,8.2577,-13.662,15.473,16.423,12.929,-10.136,8.5833,-9.1808,7.3544
-13.781,24.609,3.7509,1.1062,-9.947,14.534,-9.9289,8.0601,-13.703,15.296,16.437,12.705,-10.166,8.4377,-9.2618,7.1934
-13.831,24.418,3.6782,0.92562,-10.004,14.355,-10.025,7.8614,-13.744,15.118,16.451,12.479,-10.196,8.2911,-9.343,7.0314
-13.831,24.418,3.6782,0.92562,-10.004,14.355,-10.025,7.8614,-13.744,15.118,16.451,12.479,-10.196,8.2911,-9.343,7.0314
-13.831,24.418,3.6782,0.92562,-10.004,14.355,-10.025,7.8614,-13.744,15.118,16.451,12.479,-10.196,8.2911,-9.343,7.0314
-13.881,24.226,3.6049,0.74413,-10.061,14.175,-10.12,7.6617,-13.785,14.94,16.464,12.252,-10.227,8.1435,-9.4244,6.8684
-13.881,24.226,3.6049,0.74413,-10.061,14.175,-10.12,7.6617,-13.785,14.94,16.464,12.252,-10.227,8.1435,-9.4244,6.8684
-13.932,24.032,3.5309,0.56169,-10.118,13.995,-10.217,7.461,-13.826,14.76,16.477,12.023,-10.257,7.9949,-9.5061,6.7046
-13.932,24.032,3.5309,0.56169,-10.118,13.995,-10.217,7.461,-13.826,14.76,16.477,12.023,-10.257,7.9949,-9.5061,6.7046
-13.983,23.837,3.4562,0.3783,-10.176,13.813,-10.314,7.2592,-13.867,14.579,16.489,11.793,-10.289,7.8452,-9.5879,6.5398
-13.983,23.837,3.4562,0.3783,-10.176,13.813,-10.314,7.2592,-13.867,14.579,16.489,11.793,-10.289,7.8452,-9.5879,6.5398
-14.035,23.641,3.3809,0.19396,-10.234,13.631,-10.411,7.0564,-13.909,14.397,16.501,11.561,-10.321,7.6946,-9.67,6.3741
-14.035,23.641,3.3809,0.19396,-10.234,13.631,-10.411,7.0564,-13.909,14.397,16.501,11.561,-10.321,7.6946,-9.67,6.3741
-14.087,23.444,3.3049,0.0086648,-10.293,13.449,-10.509,6.8526,-13.951,14.214,16.513,11.327,-10.353,7.5429,-9.7523,6.2075
-14.087,23.444,3.3049,0.0086648,-10.293,13.449,-10.509,6.8526,-13.951,14.214,16.513,11.327,-10.353,7.5429,-9.7523,6.2075
-14.14,23.245,3.2283,-0.17759,-10.352,13.265,-10.607,6.6477,-13.992,14.03,16.524,11.093,-10.386,7.3903,-9.8348,6.04
-14.14,23.245,3.2283,-0.17759,-10.352,13.265,-10.607,6.6477,-13.992,14.03,16.524,11.093,-10.386,7.3903,-9.8348,6.04
-14.14,23.245,3.2283,-0.17759,-10.352,13.265,-10.607,6.6477,-13.992,14.03,16.524,11.093,-10.386,7.3903,-9.8348,6.04
-14.193,23.045,3.151,-0.36481,-10.411,13.08,-10.705,6.4418,-14.034,13.845,16.535,10.856,-10.419,7.2366,-9.9175,5.8715
-14.193,23.045,3.151,-0.36481,-10.411,13.08,-10.705,6.4418,-14.034,13.845,16.535,10.856,-10.419,7.2366,-9.9175,5.8715
-14.193,23.045,3.151,-0.36481,-10.411,13.08,-10.705,6.4418,-14.034,13.845,16.535,10.856,-10.419,7.2366,-9.9175,5.8715
-14.3,22.64,2.9945,-0.74214,-10.531,12.709,-10.903,6.027,-14.118,13.472,16.555,10.378,-10.487,6.9264,-10.084,5.5319
-14.3,22.64,2.9945,-0.74214,-10.531,12.709,-10.903,6.027,-14.118,13.472,16.555,10.378,-10.487,6.9264,-10.084,5.5319
-14.3,22.64,2.9945,-0.74214,-10.531,12.709,-10.903,6.027,-14.118,13.472,16.555,10.378,-10.487,6.9264,-10.084,5.5319
-14.354,22.436,2.9154,-0.93226,-10.592,12.523,-11.003,5.8181,-14.161,13.284,16.564,10.137,-10.522,6.7698,-10.167,5.3607
-14.354,22.436,2.9154,-0.93226,-10.592,12.523,-11.003,5.8181,-14.161,13.284,16.564,10.137,-10.522,6.7698,-10.167,5.3607
-14.409,22.23,2.8356,-1.1233,-10.652,12.335,-11.102,5.6082,-14.203,13.095,16.573,9.8947,-10.557,6.6122,-10.25,5.1886
-14.409,22.23,2.8356,-1.1233,-10.652,12.335,-11.102,5.6082,-14.203,13.095,16.573,9.8947,-10.557,6.6122,-10.25,5.1886
-14.464,22.023,2.7551,-1.3154,-10.714,12.147,-11.203,5.3973,-14.246,12.905,16.582,9.6506,-10.592,6.4536,-10.334,5.0156
-14.464,22.023,2.7551,-1.3154,-10.714,12.147,-11.203,5.3973,-14.246,12.905,16.582,9.6506,-10.592,6.4536,-10.334,5.0156
-14.52,21.815,2.6741,-1.5084,-10.775,11.958,-11.304,5.1853,-14.288,12.714,16.59,9.4049,-10.629,6.294,-10.418,4.8416
-14.576,21.606,2.5925,-1.7024,-10.838,11.768,-11.405,4.9724,-14.331,12.523,16.597,9.1577,-10.665,6.1335,-10.502,4.6668
-14.576,21.606,2.5925,-1.7024,-10.838,11.768,-11.405,4.9724,-14.331,12.523,16.597,9.1577,-10.665,6.1335,-10.502,4.6668
-14.632,21.395,2.5103,-1.8974,-10.9,11.577,-11.506,4.7585,-14.374,12.33,16.605,8.909,-10.702,5.972,-10.586,4.4911
-14.689,21.183,2.4275,-2.0934,-10.963,11.386,-11.608,4.5436,-14.417,12.136,16.611,8.6587,-10.74,5.8095,-10.671,4.3144
-14.689,21.183,2.4275,-2.0934,-10.963,11.386,-11.608,4.5436,-14.417,12.136,16.611,8.6587,-10.74,5.8095,-10.671,4.3144
-14.689,21.183,2.4275,-2.0934,-10.963,11.386,-11.608,4.5436,-14.417,12.136,16.611,8.6587,-10.74,5.8095,-10.671,4.3144
-14.747,20.969,2.3441,-2.2903,-11.026,11.194,-11.71,4.3277,-14.461,11.942,16.617,8.407,-10.778,5.6461,-10.756,4.1369
-14.747,20.969,2.3441,-2.2903,-11.026,11.194,-11.71,4.3277,-14.461,11.942,16.617,8.407,-10.778,5.6461,-10.756,4.1369
-14.804,20.755,2.2601,-2.4882,-11.09,11.001,-11.813,4.1108,-14.504,11.746,16.623,8.1537,-10.817,5.4817,-10.84,3.9585
-14.862,20.539,2.1756,-2.6871,-11.154,10.808,-11.915,3.8929,-14.548,11.55,16.629,7.899,-10.856,5.3164,-10.925,3.7791
-14.862,20.539,2.1756,-2.6871,-11.154,10.808,-11.915,3.8929,-14.548,11.55,16.629,7.899,-10.856,5.3164,-10.925,3.7791
-14.862,20.539,2.1756,-2.6871,-11.154,10.808,-11.915,3.8929,-14.548,11.55,16.629,7.899,-10.856,5.3164,-10.925,3.7791
-14.921,20.322,2.0905,-2.8869,-11.219,10.614,-12.019,3.6741,-14.591,11.352,16.634,7.6427,-10.896,5.1501,-11.011,3.5989
-14.921,20.322,2.0905,-2.8869,-11.219,10.614,-12.019,3.6741,-14.591,11.352,16.634,7.6427,-10.896,5.1501,-11.011,3.5989
-14.921,20.322,2.0905,-2.8869,-11.219,10.614,-12.019,3.6741,-14.591,11.352,16.634,7.6427,-10.896,5.1501,-11.011,3.5989
-14.98,20.103,2.0048,-3.0878,-11.284,10.419,-12.122,3.4543,-14.635,11.154,16.638,7.385,-10.936,4.9829,-11.096,3.4178
-14.98,20.103,2.0048,-3.0878,-11.284,10.419,-12.122,3.4543,-14.635,11.154,16.638,7.385,-10.936,4.9829,-11.096,3.4178
-15.039,19.884,1.9186,-3.2896,-11.349,10.223,-12.226,3.2335,-14.679,10.955,16.642,7.1258,-10.977,4.8147,-11.181,3.2358
-15.099,19.663,1.8319,-3.4923,-11.415,10.027,-12.33,3.0118,-14.724,10.755,16.646,6.8651,-11.018,4.6456,-11.267,3.053
-15.159,19.441,1.7446,-3.6961,-11.481,9.8299,-12.435,2.7892,-14.768,10.554,16.649,6.6029,-11.06,4.4756,-11.353,2.8692
-15.159,19.441,1.7446,-3.6961,-11.481,9.8299,-12.435,2.7892,-14.768,10.554,16.649,6.6029,-11.06,4.4756,-11.353,2.8692
-15.219,19.218,1.6568,-3.9008,-11.547,9.6322,-12.54,2.5655,-14.812,10.352,16.652,6.3393,-11.102,4.3047,-11.439,2.6846
-15.219,19.218,1.6568,-3.9008,-11.547,9.6322,-12.54,2.5655,-14.812,10.352,16.652,6.3393,-11.102,4.3047,-11.439,2.6846
-15.219,19.218,1.6568,-3.9008,-11.547,9.6322,-12.54,2.5655,-14.812,10.352,16.652,6.3393,-11.102,4.3047,-11.439,2.6846
-15.28,18.993,1.5686,-4.1065,-11.614,9.4338,-12.645,2.341,-14.857,10.149,16.654,6.0742,-11.145,4.1329,-11.525,2.4991
-15.28,18.993,1.5686,-4.1065,-11.614,9.4338,-12.645,2.341,-14.857,10.149,16.654,6.0742,-11.145,4.1329,-11.525,2.4991
-15.28,18.993,1.5686,-4.1065,-11.614,9.4338,-12.645,2.341,-14.857,10.149,16.654,6.0742,-11.145,4.1329,-11.525,2.4991
-15.341,18.767,1.4797,-4.3131,-11.682,9.2347,-12.751,2.1155,-14.902,9.9452,16.656,5.8077,-11.189,3.9601,-11.611,2.3127
-15.341,18.767,1.4797,-4.3131,-11.682,9.2347,-12.751,2.1155,-14.902,9.9452,16.656,5.8077,-11.189,3.9601,-11.611,2.3127
-15.341,18.767,1.4797,-4.3131,-11.682,9.2347,-12.751,2.1155,-14.902,9.9452,16.656,5.8077,-11.189,3.9601,-11.611,2.3127
-15.403,18.541,1.3904,-4.5207,-11.749,9.035,-12.856,1.8891,-14.947,9.7407,16.657,5.5397,-11.233,3.7865,-11.698,2.1255
-15.403,18.541,1.3904,-4.5207,-11.749,9.035,-12.856,1.8891,-14.947,9.7407,16.657,5.5397,-11.233,3.7865,-11.698,2.1255
-15.527,18.083,1.2104,-4.9388,-11.886,8.6335,-13.069,1.4335,-15.037,9.3291,16.659,4.9995,-11.322,3.4365,-11.871,1.7484
-15.527,18.083,1.2104,-4.9388,-11.886,8.6335,-13.069,1.4335,-15.037,9.3291,16.659,4.9995,-11.322,3.4365,-11.871,1.7484
-15.589,17.853,1.1196,-5.1492,-11.955,8.4318,-13.176,1.2044,-15.082,9.122,16.659,4.7273,-11.368,3.2602,-11.958,1.5586
-15.589,17.853,1.1196,-5.1492,-11.955,8.4318,-13.176,1.2044,-15.082,9.122,16.659,4.7273,-11.368,3.2602,-11.958,1.5586
-15.652,17.621,1.0284,-5.3606,-12.025,8.2294,-13.283,0.97432,-15.128,8.9141,16.659,4.4536,-11.414,3.0831,-12.045,1.368
-15.652,17.621,1.0284,-5.3606,-12.025,8.2294,-13.283,0.97432,-15.128,8.9141,16.659,4.4536,-11.414,3.0831,-12.045,1.368
-15.652,17.621,1.0284,-5.3606,-12.025,8.2294,-13.283,0.97432,-15.128,8.9141,16.659,4.4536,-11.414,3.0831,-12.045,1.368
-15.716,17.389,0.93677,-5.573,-12.095,8.0265,-13.39,0.74337,-15.173,8.7054,16.658,4.1786,-11.461,2.905,-12.132,1.1765
-15.716,17.389,0.93677,-5.573,-12.095,8.0265,-13.39,0.74337,-15.173,8.7054,16.658,4.1786,-11.461,2.905,-12.132,1.1765
-15.716,17.389,0.93677,-5.573,-12.095,8.0265,-13.39,0.74337,-15.173,8.7054,16.658,4.1786,-11.461,2.905,-12.132,1.1765
-15.843,16.92,0.75212,-6.0005,-12.236,7.6186,-13.606,0.27881,-15.265,8.2855,16.655,3.6243,-11.556,2.5463,-12.307,0.79095
-15.843,16.92,0.75212,-6.0005,-12.236,7.6186,-13.606,0.27881,-15.265,8.2855,16.655,3.6243,-11.556,2.5463,-12.307,0.79095
-15.908,16.684,0.65915,-6.2157,-12.307,7.4137,-13.714,0.045223,-15.311,8.0743,16.653,3.3452,-11.604,2.3657,-12.394,0.59694
-15.908,16.684,0.65915,-6.2157,-12.307,7.4137,-13.714,0.045223,-15.311,8.0743,16.653,3.3452,-11.604,2.3657,-12.394,0.59694
-15.972,16.447,0.56575,-6.4318,-12.378,7.2082,-13.822,-0.18923,-15.358,7.8624,16.651,3.0646,-11.653,2.1843,-12.482,0.40211
-15.972,16.447,0.56575,-6.4318,-12.378,7.2082,-13.822,-0.18923,-15.358,7.8624,16.651,3.0646,-11.653,2.1843,-12.482,0.40211
-15.972,16.447,0.56575,-6.4318,-12.378,7.2082,-13.822,-0.18923,-15.358,7.8624,16.651,3.0646,-11.653,2.1843,-12.482,0.40211
-16.038,16.209,0.47195,-6.6488,-12.45,7.0022,-13.931,-0.42455,-15.404,7.6496,16.648,2.7827,-11.703,2.002,-12.57,0.20646
-16.103,15.97,0.37775,-6.8667,-12.522,6.7955,-14.04,-0.66071,-15.45,7.4361,16.645,2.4995,-11.753,1.8189,-12.657,0.0099872
-16.169,15.73,0.28316,-7.0856,-12.595,6.5883,-14.149,-0.89772,-15.497,7.2219,16.641,2.2149,-11.803,1.6349,-12.745,-0.18729
-16.169,15.73,0.28316,-7.0856,-12.595,6.5883,-14.149,-0.89772,-15.497,7.2219,16.641,2.2149,-11.803,1.6349,-12.745,-0.18729
-16.169,15.73,0.28316,-7.0856,-12.595,6.5883,-14.149,-0.89772,-15.497,7.2219,16.641,2.2149,-11.803,1.6349,-12.745,-0.18729
-16.235,15.489,0.18818,-7.3053,-12.668,6.3804,-14.258,-1.1356,-15.544,7.0069,16.637,1.929,-11.854,1.4502,-12.833,-0.38537
-16.235,15.489,0.18818,-7.3053,-12.668,6.3804,-14.258,-1.1356,-15.544,7.0069,16.637,1.929,-11.854,1.4502,-12.833,-0.38537
-16.235,15.489,0.18818,-7.3053,-12.668,6.3804,-14.258,-1.1356,-15.544,7.0069,16.637,1.929,-11.854,1.4502,-12.833,-0.38537
-16.301,15.247,0.092839,-7.526,-12.742,6.172,-14.368,-1.3742,-15.591,6.7911,16.633,1.6418,-11.906,1.2646,-12.921,-0.58426
-16.301,15.247,0.092839,-7.526,-12.742,6.172,-14.368,-1.3742,-15.591,6.7911,16.633,1.6418,-11.906,1.2646,-12.921,-0.58426
-16.434,14.759,-0.098928,-7.97,-12.89,5.7536,-14.588,-1.854,-15.685,6.3574,16.623,1.0636,-12.011,0.89113,-13.098,-0.9844
-16.434,14.759,-0.098928,-7.97,-12.89,5.7536,-14.588,-1.854,-15.685,6.3574,16.623,1.0636,-12.011,0.89113,-13.098,-0.9844
-16.434,14.759,-0.098928,-7.97,-12.89,5.7536,-14.588,-1.854,-15.685,6.3574,16.623,1.0636,-12.011,0.89113,-13.098,-0.9844
-16.502,14.514,-0.19533,-8.1933,-12.965,5.5435,-14.698,-2.0951,-15.733,6.1394,16.617,0.77254,-12.065,0.70322,-13.186,-1.1856
-16.502,14.514,-0.19533,-8.1933,-12.965,5.5435,-14.698,-2.0951,-15.733,6.1394,16.617,0.77254,-12.065,0.70322,-13.186,-1.1856
-16.569,14.268,-0.29206,-8.4175,-13.04,5.333,-14.809,-2.337,-15.78,5.9208,16.611,0.48024,-12.119,0.51453,-13.275,-1.3877
-16.569,14.268,-0.29206,-8.4175,-13.04,5.333,-14.809,-2.337,-15.78,5.9208,16.611,0.48024,-12.119,0.51453,-13.275,-1.3877
-16.569,14.268,-0.29206,-8.4175,-13.04,5.333,-14.809,-2.337,-15.78,5.9208,16.611,0.48024,-12.119,0.51453,-13.275,-1.3877
-16.637,14.021,-0.38912,-8.6425,-13.115,5.1218,-14.92,-2.5796,-15.828,5.7014,16.605,0.18668,-12.173,0.32508,-13.363,-1.5905
-16.705,13.773,-0.48648,-8.8684,-13.191,4.9102,-15.031,-2.8231,-15.876,5.4814,16.598,-0.10811,-12.228,0.13487,-13.452,-1.794
-16.773,13.524,-0.58415,-9.0952,-13.268,4.6981,-15.142,-3.0673,-15.924,5.2607,16.591,-0.40413,-12.284,-0.056081,-13.541,-1.9983
-16.773,13.524,-0.58415,-9.0952,-13.268,4.6981,-15.142,-3.0673,-15.924,5.2607,16.591,-0.40413,-12.284,-0.056081,-13.541,-1.9983
-16.773,13.524,-0.58415,-9.0952,-13.268,4.6981,-15.142,-3.0673,-15.924,5.2607,16.591,-0.40413,-12.284,-0.056081,-13.541,-1.9983
-16.842,13.274,-0.68211,-9.3228,-13.344,4.4854,-15.253,-3.3122,-15.972,5.0393,16.583,-0.70135,-12.34,-0.24777,-13.629,-2.2034
-16.842,13.274,-0.68211,-9.3228,-13.344,4.4854,-15.253,-3.3122,-15.972,5.0393,16.583,-0.70135,-12.34,-0.24777,-13.629,-2.2034
-16.842,13.274,-0.68211,-9.3228,-13.344,4.4854,-15.253,-3.3122,-15.972,5.0393,16.583,-0.70135,-12.34,-0.24777,-13.629,-2.2034
-16.98,12.772,-0.87886,-9.7805,-13.499,4.0587,-15.477,-3.8044,-16.069,4.5946,16.567,-1.2994,-12.454,-0.63333,-13.807,-2.6157
-16.98,12.772,-0.87886,-9.7805,-13.499,4.0587,-15.477,-3.8044,-16.069,4.5946,16.567,-1.2994,-12.454,-0.63333,-13.807,-2.6157
-16.98,12.772,-0.87886,-9.7805,-13.499,4.0587,-15.477,-3.8044,-16.069,4.5946,16.567,-1.2994,-12.454,-0.63333,-13.807,-2.6157
-17.049,12.519,-0.97763,-10.011,-13.577,3.8446,-15.589,-4.0515,-16.117,4.3712,16.558,-1.6002,-12.512,-0.82718,-13.896,-2.823
-17.049,12.519,-0.97763,-10.011,-13.577,3.8446,-15.589,-4.0515,-16.117,4.3712,16.558,-1.6002,-12.512,-0.82718,-13.896,-2.823
-17.119,12.266,-1.0766,-10.241,-13.655,3.6301,-15.701,-4.2994,-16.166,4.1473,16.549,-1.9021,-12.571,-1.0217,-13.985,-3.031
-17.119,12.266,-1.0766,-10.241,-13.655,3.6301,-15.701,-4.2994,-16.166,4.1473,16.549,-1.9021,-12.571,-1.0217,-13.985,-3.031
-17.188,12.012,-1.1759,-10.473,-13.734,3.4151,-15.813,-4.548,-16.215,3.9227,16.539,-2.2052,-12.63,-1.217,-14.074,-3.2397
-17.188,12.012,-1.1759,-10.473,-13.734,3.4151,-15.813,-4.548,-16.215,3.9227,16.539,-2.2052,-12.63,-1.217,-14.074,-3.2397
-17.258,11.757,-1.2754,-10.706,-13.813,3.1997,-15.925,-4.7973,-16.263,3.6976,16.529,-2.5094,-12.689,-1.4129,-14.163,-3.4491
-17.258,11.757,-1.2754,-10.706,-13.813,3.1997,-15.925,-4.7973,-16.263,3.6976,16.529,-2.5094,-12.689,-1.4129,-14.163,-3.4491
-17.329,11.501,-1.3751,-10.939,-13.893,2.9838,-16.038,-5.0472,-16.312,3.4718,16.519,-2.8147,-12.749,-1.6095,-14.252,-3.6592
-17.329,11.501,-1.3751,-10.939,-13.893,2.9838,-16.038,-5.0472,-16.312,3.4718,16.519,-2.8147,-12.749,-1.6095,-14.252,-3.6592
-17.399,11.245,-1.475,-11.173,-13.972,2.7675,-16.151,-5.2978,-16.362,3.2455,16.509,-3.1211,-12.81,-1.8068,-14.341,-3.8701
-17.399,11.245,-1.475,-11.173,-13.972,2.7675,-16.151,-5.2978,-16.362,3.2455,16.509,-3.1211,-12.81,-1.8068,-14.341,-3.8701
-17.47,10.987,-1.5751,-11.408,-14.053,2.5508,-16.263,-5.5491,-16.411,3.0186,16.498,-3.4286,-12.871,-2.0047,-14.43,-4.0816
-17.47,10.987,-1.5751,-11.408,-14.053,2.5508,-16.263,-5.5491,-16.411,3.0186,16.498,-3.4286,-12.871,-2.0047,-14.43,-4.0816
-17.541,10.729,-1.6754,-11.643,-14.133,2.3337,-16.376,-5.8011,-16.46,2.7911,16.486,-3.7371,-12.933,-2.2033,-14.519,-4.2937
-17.541,10.729,-1.6754,-11.643,-14.133,2.3337,-16.376,-5.8011,-16.46,2.7911,16.486,-3.7371,-12.933,-2.2033,-14.519,-4.2937
-17.612,10.47,-1.7758,-11.88,-14.214,2.1162,-16.49,-6.0537,-16.51,2.5631,16.475,-4.0467,-12.996,-2.4025,-14.608,-4.5066
-17.612,10.47,-1.7758,-11.88,-14.214,2.1162,-16.49,-6.0537,-16.51,2.5631,16.475,-4.0467,-12.996,-2.4025,-14.608,-4.5066
-17.683,10.211,-1.8765,-12.117,-14.296,1.8983,-16.603,-6.3069,-16.559,2.3345,16.463,-4.3574,-13.059,-2.6023,-14.698,-4.7201
-17.683,10.211,-1.8765,-12.117,-14.296,1.8983,-16.603,-6.3069,-16.559,2.3345,16.463,-4.3574,-13.059,-2.6023,-14.698,-4.7201
-17.755,9.9507,-1.9772,-12.354,-14.377,1.68,-16.716,-6.5607,-16.609,2.1054,16.451,-4.6691,-13.122,-2.8028,-14.787,-4.9343
-17.755,9.9507,-1.9772,-12.354,-14.377,1.68,-16.716,-6.5607,-16.609,2.1054,16.451,-4.6691,-13.122,-2.8028,-14.787,-4.9343
-17.827,9.6898,-2.0781,-12.593,-14.46,1.4614,-16.83,-6.8151,-16.659,1.8758,16.438,-4.9817,-13.186,-3.0038,-14.876,-5.1491
-17.827,9.6898,-2.0781,-12.593,-14.46,1.4614,-16.83,-6.8151,-16.659,1.8758,16.438,-4.9817,-13.186,-3.0038,-14.876,-5.1491
-17.898,9.4282,-2.1792,-12.832,-14.542,1.2424,-16.943,-7.0702,-16.709,1.6457,16.425,-5.2954,-13.251,-3.2055,-14.965,-5.3645
-17.97,9.166,-2.2803,-13.072,-14.625,1.0231,-17.057,-7.3258,-16.759,1.4152,16.412,-5.61,-13.316,-3.4077,-15.054,-5.5806
-17.97,9.166,-2.2803,-13.072,-14.625,1.0231,-17.057,-7.3258,-16.759,1.4152,16.412,-5.61,-13.316,-3.4077,-15.054,-5.5806
-17.97,9.166,-2.2803,-13.072,-14.625,1.0231,-17.057,-7.3258,-16.759,1.4152,16.412,-5.61,-13.316,-3.4077,-15.054,-5.5806
-18.043,8.9031,-2.3816,-13.312,-14.708,0.80343,-17.17,-7.582,-16.809,1.1841,16.398,-5.9256,-13.382,-3.6106,-15.143,-5.7973
-18.043,8.9031,-2.3816,-13.312,-14.708,0.80343,-17.17,-7.582,-16.809,1.1841,16.398,-5.9256,-13.382,-3.6106,-15.143,-5.7973
-18.043,8.9031,-2.3816,-13.312,-14.708,0.80343,-17.17,-7.582,-16.809,1.1841,16.398,-5.9256,-13.382,-3.6106,-15.143,-5.7973
-18.115,8.6397,-2.4829,-13.553,-14.792,0.58346,-17.284,-7.8387,-16.859,0.95257,16.384,-6.2421,-13.448,-3.8139,-15.232,-6.0146
-18.115,8.6397,-2.4829,-13.553,-14.792,0.58346,-17.284,-7.8387,-16.859,0.95257,16.384,-6.2421,-13.448,-3.8139,-15.232,-6.0146
-18.115,8.6397,-2.4829,-13.553,-14.792,0.58346,-17.284,-7.8387,-16.859,0.95257,16.384,-6.2421,-13.448,-3.8139,-15.232,-6.0146
-18.26,8.1109,-2.6859,-14.038,-14.96,0.14259,-17.512,-8.3538,-16.96,0.48816,16.355,-6.8779,-13.582,-4.2224,-15.411,-6.451
-18.26,8.1109,-2.6859,-14.038,-14.96,0.14259,-17.512,-8.3538,-16.96,0.48816,16.355,-6.8779,-13.582,-4.2224,-15.411,-6.451
-18.333,7.8457,-2.7874,-14.281,-15.045,-0.078277,-17.626,-8.6121,-17.011,0.2553,16.34,-7.1972,-13.65,-4.4274,-15.5,-6.6701
-18.333,7.8457,-2.7874,-14.281,-15.045,-0.078277,-17.626,-8.6121,-17.011,0.2553,16.34,-7.1972,-13.65,-4.4274,-15.5,-6.6701
-18.333,7.8457,-2.7874,-14.281,-15.045,-0.078277,-17.626,-8.6121,-17.011,0.2553,16.34,-7.1972,-13.65,-4.4274,-15.5,-6.6701
-18.406,7.58,-2.889,-14.524,-15.13,-0.29943,-17.74,-8.871,-17.061,0.02203,16.325,-7.5173,-13.718,-4.6329,-15.589,-6.8898
-18.406,7.58,-2.889,-14.524,-15.13,-0.29943,-17.74,-8.871,-17.061,0.02203,16.325,-7.5173,-13.718,-4.6329,-15.589,-6.8898
-18.479,7.3137,-2.9907,-14.769,-15.215,-0.52084,-17.854,-9.1304,-17.112,-0.21165,16.31,-7.8382,-13.787,-4.839,-15.678,-7.11
-18.479,7.3137,-2.9907,-14.769,-15.215,-0.52084,-17.854,-9.1304,-17.112,-0.21165,16.31,-7.8382,-13.787,-4.839,-15.678,-7.11
-18.479,7.3137,-2.9907,-14.769,-15.215,-0.52084,-17.854,-9.1304,-17.112,-0.21165,16.31,-7.8382,-13.787,-4.839,-15.678,-7.11
-18.625,6.7796,-3.194,-15.259,-15.387,-0.96442,-18.082,-9.6505,-17.214,-0.68017,16.278,-8.4826,-13.927,-5.2526,-15.855,-7.5521
-18.625,6.7796,-3.194,-15.259,-15.387,-0.96442,-18.082,-9.6505,-17.214,-0.68017,16.278,-8.4826,-13.927,-5.2526,-15.855,-7.5521
-18.625,6.7796,-3.194,-15.259,-15.387,-0.96442,-18.082,-9.6505,-17.214,-0.68017,16.278,-8.4826,-13.927,-5.2526,-15.855,-7.5521
-18.625,6.7796,-3.194,-15.259,-15.387,-0.96442,-18.082,-9.6505,-17.214,-0.68017,16.278,-8.4826,-13.927,-5.2526,-15.855,-7.5521
-18.772,6.2436,-3.3974,-15.751,-15.56,-1.4089,-18.31,-10.172,-17.316,-1.1502,16.245,-9.1302,-14.068,-5.6681,-16.033,-7.9964
-18.772,6.2436,-3.3974,-15.751,-15.56,-1.4089,-18.31,-10.172,-17.316,-1.1502,16.245,-9.1302,-14.068,-5.6681,-16.033,-7.9964
-18.772,6.2436,-3.3974,-15.751,-15.56,-1.4089,-18.31,-10.172,-17.316,-1.1502,16.245,-9.1302,-14.068,-5.6681,-16.033,-7.9964
-18.846,5.975,-3.499,-15.999,-15.647,-1.6315,-18.424,-10.434,-17.367,-1.3857,16.228,-9.4551,-14.14,-5.8765,-16.122,-8.2193
-18.846,5.975,-3.499,-15.999,-15.647,-1.6315,-18.424,-10.434,-17.367,-1.3857,16.228,-9.4551,-14.14,-5.8765,-16.122,-8.2193
-18.846,5.975,-3.499,-15.999,-15.647,-1.6315,-18.424,-10.434,-17.367,-1.3857,16.228,-9.4551,-14.14,-5.8765,-16.122,-8.2193
-18.993,5.4364,-3.7022,-16.494,-15.822,-2.0772,-18.653,-10.959,-17.469,-1.8577,16.194,-10.107,-14.284,-6.2947,-16.299,-8.6667
-19.067,5.1666,-3.8037,-16.743,-15.91,-2.3004,-18.767,-11.221,-17.521,-2.0941,16.176,-10.434,-14.357,-6.5045,-16.387,-8.8911
-19.067,5.1666,-3.8037,-16.743,-15.91,-2.3004,-18.767,-11.221,-17.521,-2.0941,16.176,-10.434,-14.357,-6.5045,-16.387,-8.8911
-19.067,5.1666,-3.8037,-16.743,-15.91,-2.3004,-18.767,-11.221,-17.521,-2.0941,16.176,-10.434,-14.357,-6.5045,-16.387,-8.8911
-19.14,4.8964,-3.9051,-16.992,-15.998,-2.5237,-18.881,-11.485,-17.572,-2.3309,16.158,-10.762,-14.431,-6.7147,-16.476,-9.116
-19.14,4.8964,-3.9051,-16.992,-15.998,-2.5237,-18.881,-11.485,-17.572,-2.3309,16.158,-10.762,-14.431,-6.7147,-16.476,-9.116
-19.14,4.8964,-3.9051,-16.992,-15.998,-2.5237,-18.881,-11.485,-17.572,-2.3309,16.158,-10.762,-14.431,-6.7147,-16.476,-9.116
-19.14,4.8964,-3.9051,-16.992,-15.998,-2.5237,-18.881,-11.485,-17.572,-2.3309,16.158,-10.762,-14.431,-6.7147,-16.476,-9.116
-19.214,4.6259,-4.0065,-17.241,-16.087,-2.7471,-18.995,-11.748,-17.624,-2.5679,16.14,-11.09,-14.505,-6.9252,-16.564,-9.3414
-19.214,4.6259,-4.0065,-17.241,-16.087,-2.7471,-18.995,-11.748,-17.624,-2.5679,16.14,-11.09,-14.505,-6.9252,-16.564,-9.3414
-19.362,4.0838,-4.2088,-17.742,-16.265,-3.1944,-19.223,-12.277,-17.727,-3.0428,16.103,-11.749,-14.655,-7.3475,-16.74,-9.7934
-19.362,4.0838,-4.2088,-17.742,-16.265,-3.1944,-19.223,-12.277,-17.727,-3.0428,16.103,-11.749,-14.655,-7.3475,-16.74,-9.7934
-19.436,3.8124,-4.3099,-17.992,-16.355,-3.4183,-19.337,-12.541,-17.778,-3.2805,16.084,-12.08,-14.731,-7.5592,-16.828,-10.02
-19.436,3.8124,-4.3099,-17.992,-16.355,-3.4183,-19.337,-12.541,-17.778,-3.2805,16.084,-12.08,-14.731,-7.5592,-16.828,-10.02
-19.51,3.5407,-4.4108,-18.244,-16.444,-3.6422,-19.451,-12.806,-17.83,-3.5185,16.065,-12.41,-14.807,-7.7713,-16.916,-10.247
-19.51,3.5407,-4.4108,-18.244,-16.444,-3.6422,-19.451,-12.806,-17.83,-3.5185,16.065,-12.41,-14.807,-7.7713,-16.916,-10.247
-19.51,3.5407,-4.4108,-18.244,-16.444,-3.6422,-19.451,-12.806,-17.83,-3.5185,16.065,-12.41,-14.807,-7.7713,-16.916,-10.247
-19.584,3.2687,-4.5115,-18.495,-16.535,-3.8662,-19.565,-13.071,-17.881,-3.7568,16.045,-12.742,-14.883,-7.9837,-17.004,-10.475
-19.584,3.2687,-4.5115,-18.495,-16.535,-3.8662,-19.565,-13.071,-17.881,-3.7568,16.045,-12.742,-14.883,-7.9837,-17.004,-10.475
-19.584,3.2687,-4.5115,-18.495,-16.535,-3.8662,-19.565,-13.071,-17.881,-3.7568,16.045,-12.742,-14.883,-7.9837,-17.004,-10.475
-19.732,2.7242,-4.7126,-18.999,-16.716,-4.3145,-19.792,-13.603,-17.985,-4.2338,16.006,-13.406,-15.038,-8.4095,-17.179,-10.931
-19.806,2.4516,-4.8128,-19.252,-16.807,-4.5387,-19.906,-13.869,-18.037,-4.4726,15.986,-13.739,-15.116,-8.6228,-17.266,-11.16
-19.806,2.4516,-4.8128,-19.252,-16.807,-4.5387,-19.906,-13.869,-18.037,-4.4726,15.986,-13.739,-15.116,-8.6228,-17.266,-11.16
-19.806,2.4516,-4.8128,-19.252,-16.807,-4.5387,-19.906,-13.869,-18.037,-4.4726,15.986,-13.739,-15.116,-8.6228,-17.266,-11.16
-19.88,2.1789,-4.9129,-19.505,-16.898,-4.763,-20.019,-14.135,-18.088,-4.7115,15.966,-14.073,-15.195,-8.8365,-17.353,-11.389
-19.88,2.1789,-4.9129,-19.505,-16.898,-4.763,-20.019,-14.135,-18.088,-4.7115,15.966,-14.073,-15.195,-8.8365,-17.353,-11.389
-19.88,2.1789,-4.9129,-19.505,-16.898,-4.763,-20.019,-14.135,-18.088,-4.7115,15.966,-14.073,-15.195,-8.8365,-17.353,-11.389
-19.954,1.906,-5.0127,-19.758,-16.99,-4.9873,-20.132,-14.401,-18.14,-4.9506,15.945,-14.407,-15.274,-9.0504,-17.44,-11.618
-19.954,1.906,-5.0127,-19.758,-16.99,-4.9873,-20.132,-14.401,-18.14,-4.9506,15.945,-14.407,-15.274,-9.0504,-17.44,-11.618
-19.954,1.906,-5.0127,-19.758,-16.99,-4.9873,-20.132,-14.401,-18.14,-4.9506,15.945,-14.407,-15.274,-9.0504,-17.44,-11.618
-20.102,1.3599,-5.2118,-20.265,-17.173,-5.4359,-20.359,-14.935,-18.244,-5.4291,15.904,-15.076,-15.433,-9.4791,-17.614,-12.078
-20.176,1.0867,-5.311,-20.519,-17.266,-5.6603,-20.472,-15.202,-18.296,-5.6685,15.883,-15.411,-15.513,-9.6938,-17.701,-12.309
-20.176,1.0867,-5.311,-20.519,-17.266,-5.6603,-20.472,-15.202,-18.296,-5.6685,15.883,-15.411,-15.513,-9.6938,-17.701,-12.309
-20.249,0.81343,-5.4099,-20.774,-17.358,-5.8846,-20.584,-15.469,-18.348,-5.908,15.862,-15.747,-15.594,-9.9087,-17.787,-12.54
-20.249,0.81343,-5.4099,-20.774,-17.358,-5.8846,-20.584,-15.469,-18.348,-5.908,15.862,-15.747,-15.594,-9.9087,-17.787,-12.54
-20.249,0.81343,-5.4099,-20.774,-17.358,-5.8846,-20.584,-15.469,-18.348,-5.908,15.862,-15.747,-15.594,-9.9087,-17.787,-12.54
-20.323,0.54013,-5.5085,-21.028,-17.451,-6.1088,-20.697,-15.736,-18.399,-6.1476,15.84,-16.083,-15.675,-10.124,-17.873,-12.771
-20.323,0.54013,-5.5085,-21.028,-17.451,-6.1088,-20.697,-15.736,-18.399,-6.1476,15.84,-16.083,-15.675,-10.124,-17.873,-12.771
-20.397,0.26681,-5.6069,-21.283,-17.544,-6.333,-20.81,-16.004,-18.451,-6.3872,15.819,-16.419,-15.757,-10.339,-17.959,-13.002
-20.471,-0.0065171,-5.705,-21.537,-17.638,-6.5572,-20.922,-16.271,-18.503,-6.6269,15.797,-16.756,-15.839,-10.555,-18.045,-13.234
-20.471,-0.0065171,-5.705,-21.537,-17.638,-6.5572,-20.922,-16.271,-18.503,-6.6269,15.797,-16.756,-15.839,-10.555,-18.045,-13.234
-20.471,-0.0065171,-5.705,-21.537,-17.638,-6.5572,-20.922,-16.271,-18.503,-6.6269,15.797,-16.756,-15.839,-10.555,-18.045,-13.234
-20.544,-0.27983,-5.8028,-21.792,-17.731,-6.7813,-21.034,-16.539,-18.555,-6.8666,15.775,-17.093,-15.922,-10.771,-18.131,-13.466
-20.544,-0.27983,-5.8028,-21.792,-17.731,-6.7813,-21.034,-16.539,-18.555,-6.8666,15.775,-17.093,-15.922,-10.771,-18.131,-13.466
-20.617,-0.5531,-5.9003,-22.048,-17.825,-7.0053,-21.146,-16.807,-18.607,-7.1064,15.753,-17.43,-16.005,-10.987,-18.216,-13.698
-20.617,-0.5531,-5.9003,-22.048,-17.825,-7.0053,-21.146,-16.807,-18.607,-7.1064,15.753,-17.43,-16.005,-10.987,-18.216,-13.698
-20.691,-0.82632,-5.9975,-22.303,-17.919,-7.2292,-21.258,-17.075,-18.659,-7.3461,15.731,-17.767,-16.088,-11.203,-18.302,-13.93
-20.691,-0.82632,-5.9975,-22.303,-17.919,-7.2292,-21.258,-17.075,-18.659,-7.3461,15.731,-17.767,-16.088,-11.203,-18.302,-13.93
-20.764,-1.0995,-6.0943,-22.558,-18.013,-7.453,-21.37,-17.343,-18.71,-7.5859,15.709,-18.105,-16.172,-11.419,-18.387,-14.163
-20.764,-1.0995,-6.0943,-22.558,-18.013,-7.453,-21.37,-17.343,-18.71,-7.5859,15.709,-18.105,-16.172,-11.419,-18.387,-14.163
-20.837,-1.3725,-6.1908,-22.814,-18.108,-7.6767,-21.481,-17.611,-18.762,-7.8256,15.687,-18.442,-16.257,-11.635,-18.472,-14.396
-20.837,-1.3725,-6.1908,-22.814,-18.108,-7.6767,-21.481,-17.611,-18.762,-7.8256,15.687,-18.442,-16.257,-11.635,-18.472,-14.396
-20.91,-1.6454,-6.287,-23.069,-18.202,-7.9003,-21.592,-17.879,-18.814,-8.0653,15.664,-18.78,-16.341,-11.852,-18.556,-14.629
-20.91,-1.6454,-6.287,-23.069,-18.202,-7.9003,-21.592,-17.879,-18.814,-8.0653,15.664,-18.78,-16.341,-11.852,-18.556,-14.629
-20.983,-1.9182,-6.3827,-23.325,-18.297,-8.1237,-21.703,-18.147,-18.865,-8.3049,15.641,-19.118,-16.427,-12.068,-18.641,-14.862
-20.983,-1.9182,-6.3827,-23.325,-18.297,-8.1237,-21.703,-18.147,-18.865,-8.3049,15.641,-19.118,-16.427,-12.068,-18.641,-14.862
-21.056,-2.1908,-6.4781,-23.581,-18.392,-8.3469,-21.814,-18.415,-18.917,-8.5445,15.619,-19.457,-16.512,-12.285,-18.725,-15.096
-21.056,-2.1908,-6.4781,-23.581,-18.392,-8.3469,-21.814,-18.415,-18.917,-8.5445,15.619,-19.457,-16.512,-12.285,-18.725,-15.096
-21.128,-2.4633,-6.5731,-23.836,-18.488,-8.57,-21.925,-18.682,-18.969,-8.784,15.596,-19.795,-16.598,-12.502,-18.809,-15.329
-21.128,-2.4633,-6.5731,-23.836,-18.488,-8.57,-21.925,-18.682,-18.969,-8.784,15.596,-19.795,-16.598,-12.502,-18.809,-15.329
-21.128,-2.4633,-6.5731,-23.836,-18.488,-8.57,-21.925,-18.682,-18.969,-8.784,15.596,-19.795,-16.598,-12.502,-18.809,-15.329
-21.201,-2.7355,-6.6677,-24.092,-18.583,-8.7929,-22.035,-18.95,-19.02,-9.0234,15.573,-20.134,-16.684,-12.719,-18.893,-15.563
-21.201,-2.7355,-6.6677,-24.092,-18.583,-8.7929,-22.035,-18.95,-19.02,-9.0234,15.573,-20.134,-16.684,-12.719,-18.893,-15.563
-21.201,-2.7355,-6.6677,-24.092,-18.583,-8.7929,-22.035,-18.95,-19.02,-9.0234,15.573,-20.134,-16.684,-12.719,-18.893,-15.563
-21.345,-3.2794,-6.8556,-24.603,-18.774,-9.238,-22.255,-19.486,-19.123,-9.5018,15.526,-20.811,-16.858,-13.153,-19.06,-16.031
-21.345,-3.2794,-6.8556,-24.603,-18.774,-9.238,-22.255,-19.486,-19.123,-9.5018,15.526,-20.811,-16.858,-13.153,-19.06,-16.031
-21.345,-3.2794,-6.8556,-24.603,-18.774,-9.238,-22.255,-19.486,-19.123,-9.5018,15.526,-20.811,-16.858,-13.153,-19.06,-16.031
-21.417,-3.5509,-6.9489,-24.859,-18.871,-9.4603,-22.364,-19.754,-19.174,-9.7409,15.503,-21.149,-16.946,-13.37,-19.143,-16.265
-21.489,-3.8221,-7.0417,-25.114,-18.967,-9.6823,-22.474,-20.021,-19.226,-9.9798,15.479,-21.488,-17.033,-13.587,-19.226,-16.499
-21.489,-3.8221,-7.0417,-25.114,-18.967,-9.6823,-22.474,-20.021,-19.226,-9.9798,15.479,-21.488,-17.033,-13.587,-19.226,-16.499
-21.561,-4.0931,-7.1341,-25.37,-19.063,-9.9041,-22.583,-20.289,-19.277,-10.218,15.456,-21.826,-17.122,-13.804,-19.308,-16.734
-21.561,-4.0931,-7.1341,-25.37,-19.063,-9.9041,-22.583,-20.289,-19.277,-10.218,15.456,-21.826,-17.122,-13.804,-19.308,-16.734
-21.632,-4.3637,-7.226,-25.625,-19.16,-10.126,-22.691,-20.556,-19.328,-10.457,15.432,-22.165,-17.21,-14.021,-19.39,-16.968
-21.632,-4.3637,-7.226,-25.625,-19.16,-10.126,-22.691,-20.556,-19.328,-10.457,15.432,-22.165,-17.21,-14.021,-19.39,-16.968
-21.703,-4.634,-7.3174,-25.88,-19.256,-10.347,-22.8,-20.823,-19.379,-10.695,15.409,-22.503,-17.299,-14.238,-19.472,-17.203
-21.703,-4.634,-7.3174,-25.88,-19.256,-10.347,-22.8,-20.823,-19.379,-10.695,15.409,-22.503,-17.299,-14.238,-19.472,-17.203
-21.703,-4.634,-7.3174,-25.88,-19.256,-10.347,-22.8,-20.823,-19.379,-10.695,15.409,-22.503,-17.299,-14.238,-19.472,-17.203
-21.774,-4.9039,-7.4084,-26.135,-19.353,-10.568,-22.908,-21.09,-19.43,-10.934,15.385,-22.841,-17.388,-14.455,-19.554,-17.437
-21.845,-5.1734,-7.4988,-26.39,-19.45,-10.788,-23.016,-21.357,-19.481,-11.171,15.361,-23.18,-17.478,-14.672,-19.635,-17.672
-21.845,-5.1734,-7.4988,-26.39,-19.45,-10.788,-23.016,-21.357,-19.481,-11.171,15.361,-23.18,-17.478,-14.672,-19.635,-17.672
-21.916,-5.4425,-7.5887,-26.644,-19.547,-11.009,-23.123,-21.624,-19.532,-11.409,15.337,-23.518,-17.568,-14.888,-19.716,-17.907
-21.986,-5.7112,-7.678,-26.899,-19.644,-11.229,-23.23,-21.89,-19.582,-11.647,15.313,-23.856,-17.658,-15.105,-19.797,-18.141
-21.986,-5.7112,-7.678,-26.899,-19.644,-11.229,-23.23,-21.89,-19.582,-11.647,15.313,-23.856,-17.658,-15.105,-19.797,-18.141
-21.986,-5.7112,-7.678,-26.899,-19.644,-11.229,-23.23,-21.89,-19.582,-11.647,15.313,-23.856,-17.658,-15.105,-19.797,-18.141
-22.056,-5.9795,-7.7669,-27.153,-19.742,-11.448,-23.337,-22.156,-19.633,-11.884,15.289,-24.193,-17.749,-15.322,-19.878,-18.376
-22.056,-5.9795,-7.7669,-27.153,-19.742,-11.448,-23.337,-22.156,-19.633,-11.884,15.289,-24.193,-17.749,-15.322,-19.878,-18.376
-22.056,-5.9795,-7.7669,-27.153,-19.742,-11.448,-23.337,-22.156,-19.633,-11.884,15.289,-24.193,-17.749,-15.322,-19.878,-18.376
-22.126,-6.2473,-7.8551,-27.407,-19.839,-11.668,-23.443,-22.422,-19.683,-12.121,15.265,-24.531,-17.84,-15.539,-19.958,-18.611
-22.126,-6.2473,-7.8551,-27.407,-19.839,-11.668,-23.443,-22.422,-19.683,-12.121,15.265,-24.531,-17.84,-15.539,-19.958,-18.611
-22.126,-6.2473,-7.8551,-27.407,-19.839,-11.668,-23.443,-22.422,-19.683,-12.121,15.265,-24.531,-17.84,-15.539,-19.958,-18.611
-22.265,-6.7814,-8.03,-27.914,-20.034,-12.105,-23.655,-22.953,-19.784,-12.594,15.217,-25.205,-18.023,-15.972,-20.117,-19.08
-22.265,-6.7814,-8.03,-27.914,-20.034,-12.105,-23.655,-22.953,-19.784,-12.594,15.217,-25.205,-18.023,-15.972,-20.117,-19.08
-22.265,-6.7814,-8.03,-27.914,-20.034,-12.105,-23.655,-22.953,-19.784,-12.594,15.217,-25.205,-18.023,-15.972,-20.117,-19.08
-22.334,-7.0477,-8.1165,-28.167,-20.132,-12.323,-23.761,-23.218,-19.834,-12.83,15.193,-25.542,-18.115,-16.188,-20.197,-19.314
-22.334,-7.0477,-8.1165,-28.167,-20.132,-12.323,-23.761,-23.218,-19.834,-12.83,15.193,-25.542,-18.115,-16.188,-20.197,-19.314
-22.403,-7.3134,-8.2025,-28.42,-20.23,-12.541,-23.866,-23.483,-19.884,-13.065,15.169,-25.878,-18.207,-16.404,-20.275,-19.549
-22.471,-7.5786,-8.2879,-28.672,-20.328,-12.758,-23.97,-23.747,-19.934,-13.301,15.145,-26.214,-18.299,-16.62,-20.354,-19.783
-22.471,-7.5786,-8.2879,-28.672,-20.328,-12.758,-23.97,-23.747,-19.934,-13.301,15.145,-26.214,-18.299,-16.62,-20.354,-19.783
-22.54,-7.8431,-8.3726,-28.924,-20.426,-12.975,-24.074,-24.011,-19.983,-13.536,15.12,-26.55,-18.392,-16.836,-20.432,-20.018
-22.608,-8.1071,-8.4567,-29.176,-20.524,-13.192,-24.178,-24.275,-20.033,-13.77,15.096,-26.885,-18.485,-17.052,-20.51,-20.252
-22.608,-8.1071,-8.4567,-29.176,-20.524,-13.192,-24.178,-24.275,-20.033,-13.77,15.096,-26.885,-18.485,-17.052,-20.51,-20.252
-22.608,-8.1071,-8.4567,-29.176,-20.524,-13.192,-24.178,-24.275,-20.033,-13.77,15.096,-26.885,-18.485,-17.052,-20.51,-20.252
-22.675,-8.3705,-8.5401,-29.427,-20.623,-13.408,-24.282,-24.538,-20.082,-14.004,15.072,-27.22,-18.578,-17.267,-20.588,-20.486
-22.675,-8.3705,-8.5401,-29.427,-20.623,-13.408,-24.282,-24.538,-20.082,-14.004,15.072,-27.22,-18.578,-17.267,-20.588,-20.486
-22.743,-8.6332,-8.623,-29.678,-20.721,-13.623,-24.385,-24.801,-20.132,-14.238,15.048,-27.554,-18.672,-17.482,-20.665,-20.72
-22.743,-8.6332,-8.623,-29.678,-20.721,-13.623,-24.385,-24.801,-20.132,-14.238,15.048,-27.554,-18.672,-17.482,-20.665,-20.72
-22.743,-8.6332,-8.623,-29.678,-20.721,-13.623,-24.385,-24.801,-20.132,-14.238,15.048,-27.554,-18.672,-17.482,-20.665,-20.72
-22.81,-8.8952,-8.7051,-29.929,-20.819,-13.838,-24.487,-25.063,-20.181,-14.472,15.024,-27.889,-18.766,-17.697,-20.742,-20.954
-22.81,-8.8952,-8.7051,-29.929,-20.819,-13.838,-24.487,-25.063,-20.181,-14.472,15.024,-27.889,-18.766,-17.697,-20.742,-20.954
-22.81,-8.8952,-8.7051,-29.929,-20.819,-13.838,-24.487,-25.063,-20.181,-14.472,15.024,-27.889,-18.766,-17.697,-20.742,-20.954
-22.943,-9.4172,-8.8674,-30.428,-21.016,-14.267,-24.691,-25.587,-20.278,-14.937,14.975,-28.555,-18.954,-18.127,-20.894,-21.421
-22.943,-9.4172,-8.8674,-30.428,-21.016,-14.267,-24.691,-25.587,-20.278,-14.937,14.975,-28.555,-18.954,-18.127,-20.894,-21.421
-22.943,-9.4172,-8.8674,-30.428,-21.016,-14.267,-24.691,-25.587,-20.278,-14.937,14.975,-28.555,-18.954,-18.127,-20.894,-21.421
-22.943,-9.4172,-8.8674,-30.428,-21.016,-14.267,-24.691,-25.587,-20.278,-14.937,14.975,-28.555,-18.954,-18.127,-20.894,-21.421
-23.075,-9.9363,-9.0269,-30.925,-21.213,-14.694,-24.893,-26.109,-20.375,-15.401,14.927,-29.22,-19.144,-18.555,-21.045,-21.887
-23.075,-9.9363,-9.0269,-30.925,-21.213,-14.694,-24.893,-26.109,-20.375,-15.401,14.927,-29.22,-19.144,-18.555,-21.045,-21.887
-23.075,-9.9363,-9.0269,-30.925,-21.213,-14.694,-24.893,-26.109,-20.375,-15.401,14.927,-29.22,-19.144,-18.555,-21.045,-21.887
-23.14,-10.195,-9.1056,-31.173,-21.312,-14.906,-24.993,-26.369,-20.424,-15.632,14.903,-29.551,-19.239,-18.769,-21.12,-22.12
-23.14,-10.195,-9.1056,-31.173,-21.312,-14.906,-24.993,-26.369,-20.424,-15.632,14.903,-29.551,-19.239,-18.769,-21.12,-22.12
-23.14,-10.195,-9.1056,-31.173,-21.312,-14.906,-24.993,-26.369,-20.424,-15.632,14.903,-29.551,-19.239,-18.769,-21.12,-22.12
-23.27,-10.709,-9.2608,-31.667,-21.509,-15.329,-25.193,-26.887,-20.519,-16.092,14.855,-30.212,-19.43,-19.195,-21.268,-22.585
-23.334,-10.965,-9.3374,-31.913,-21.608,-15.54,-25.291,-27.146,-20.567,-16.322,14.831,-30.542,-19.526,-19.408,-21.342,-22.817
-23.334,-10.965,-9.3374,-31.913,-21.608,-15.54,-25.291,-27.146,-20.567,-16.322,14.831,-30.542,-19.526,-19.408,-21.342,-22.817
-23.334,-10.965,-9.3374,-31.913,-21.608,-15.54,-25.291,-27.146,-20.567,-16.322,14.831,-30.542,-19.526,-19.408,-21.342,-22.817
-23.398,-11.22,-9.4131,-32.159,-21.707,-15.75,-25.39,-27.404,-20.614,-16.551,14.807,-30.871,-19.622,-19.621,-21.415,-23.049
-23.398,-11.22,-9.4131,-32.159,-21.707,-15.75,-25.39,-27.404,-20.614,-16.551,14.807,-30.871,-19.622,-19.621,-21.415,-23.049
-23.398,-11.22,-9.4131,-32.159,-21.707,-15.75,-25.39,-27.404,-20.614,-16.551,14.807,-30.871,-19.622,-19.621,-21.415,-23.049
-23.461,-11.475,-9.4881,-32.404,-21.805,-15.96,-25.488,-27.661,-20.662,-16.779,14.783,-31.199,-19.718,-19.833,-21.488,-23.281
-23.525,-11.728,-9.5623,-32.648,-21.904,-16.168,-25.585,-27.918,-20.709,-17.007,14.759,-31.527,-19.814,-20.044,-21.56,-23.512
-23.525,-11.728,-9.5623,-32.648,-21.904,-16.168,-25.585,-27.918,-20.709,-17.007,14.759,-31.527,-19.814,-20.044,-21.56,-23.512
-23.587,-11.981,-9.6358,-32.892,-22.003,-16.377,-25.682,-28.174,-20.755,-17.234,14.735,-31.854,-19.911,-20.256,-21.632,-23.743
-23.65,-12.232,-9.7084,-33.135,-22.101,-16.584,-25.778,-28.429,-20.802,-17.461,14.711,-32.18,-20.008,-20.467,-21.704,-23.974
-23.65,-12.232,-9.7084,-33.135,-22.101,-16.584,-25.778,-28.429,-20.802,-17.461,14.711,-32.18,-20.008,-20.467,-21.704,-23.974
-23.65,-12.232,-9.7084,-33.135,-22.101,-16.584,-25.778,-28.429,-20.802,-17.461,14.711,-32.18,-20.008,-20.467,-21.704,-23.974
-23.712,-12.483,-9.7803,-33.377,-22.2,-16.791,-25.874,-28.684,-20.848,-17.687,14.688,-32.505,-20.104,-20.677,-21.775,-24.204
-23.712,-12.483,-9.7803,-33.377,-22.2,-16.791,-25.874,-28.684,-20.848,-17.687,14.688,-32.505,-20.104,-20.677,-21.775,-24.204
-23.712,-12.483,-9.7803,-33.377,-22.2,-16.791,-25.874,-28.684,-20.848,-17.687,14.688,-32.505,-20.104,-20.677,-21.775,-24.204
-23.773,-12.733,-9.8514,-33.618,-22.298,-16.998,-25.969,-28.938,-20.894,-17.913,14.664,-32.83,-20.202,-20.888,-21.846,-24.434
-23.773,-12.733,-9.8514,-33.618,-22.298,-16.998,-25.969,-28.938,-20.894,-17.913,14.664,-32.83,-20.202,-20.888,-21.846,-24.434
-23.773,-12.733,-9.8514,-33.618,-22.298,-16.998,-25.969,-28.938,-20.894,-17.913,14.664,-32.83,-20.202,-20.888,-21.846,-24.434
-23.895,-13.229,-9.991,-34.099,-22.496,-17.408,-26.158,-29.444,-20.986,-18.362,14.617,-33.476,-20.396,-21.307,-21.985,-24.893
-23.955,-13.476,-10.06,-34.338,-22.594,-17.612,-26.252,-29.696,-21.031,-18.585,14.594,-33.798,-20.494,-21.516,-22.055,-25.122
-23.955,-13.476,-10.06,-34.338,-22.594,-17.612,-26.252,-29.696,-21.031,-18.585,14.594,-33.798,-20.494,-21.516,-22.055,-25.122
-23.955,-13.476,-10.06,-34.338,-22.594,-17.612,-26.252,-29.696,-21.031,-18.585,14.594,-33.798,-20.494,-21.516,-22.055,-25.122
-24.015,-13.722,-10.127,-34.576,-22.692,-17.816,-26.345,-29.948,-21.076,-18.808,14.571,-34.119,-20.591,-21.724,-22.123,-25.35
-24.015,-13.722,-10.127,-34.576,-22.692,-17.816,-26.345,-29.948,-21.076,-18.808,14.571,-34.119,-20.591,-21.724,-22.123,-25.35
-24.015,-13.722,-10.127,-34.576,-22.692,-17.816,-26.345,-29.948,-21.076,-18.808,14.571,-34.119,-20.591,-21.724,-22.123,-25.35
-24.074,-13.966,-10.194,-34.813,-22.791,-18.018,-26.437,-30.198,-21.121,-19.03,14.547,-34.44,-20.689,-21.932,-22.192,-25.578
-24.133,-14.21,-10.26,-35.05,-22.889,-18.22,-26.529,-30.448,-21.166,-19.252,14.524,-34.759,-20.787,-22.14,-22.26,-25.805
-24.133,-14.21,-10.26,-35.05,-22.889,-18.22,-26.529,-30.448,-21.166,-19.252,14.524,-34.759,-20.787,-22.14,-22.26,-25.805
-24.192,-14.452,-10.325,-35.285,-22.987,-18.422,-26.62,-30.697,-21.21,-19.472,14.501,-35.077,-20.885,-22.347,-22.327,-26.032
-24.192,-14.452,-10.325,-35.285,-22.987,-18.422,-26.62,-30.697,-21.21,-19.472,14.501,-35.077,-20.885,-22.347,-22.327,-26.032
-24.25,-14.694,-10.39,-35.52,-23.086,-18.622,-26.711,-30.945,-21.254,-19.693,14.478,-35.394,-20.984,-22.553,-22.394,-26.259
-24.25,-14.694,-10.39,-35.52,-23.086,-18.622,-26.711,-30.945,-21.254,-19.693,14.478,-35.394,-20.984,-22.553,-22.394,-26.259
-24.307,-14.934,-10.453,-35.754,-23.184,-18.822,-26.801,-31.193,-21.298,-19.912,14.456,-35.711,-21.082,-22.759,-22.46,-26.485
-24.307,-14.934,-10.453,-35.754,-23.184,-18.822,-26.801,-31.193,-21.298,-19.912,14.456,-35.711,-21.082,-22.759,-22.46,-26.485
-24.365,-15.173,-10.516,-35.987,-23.282,-19.02,-26.89,-31.439,-21.342,-20.13,14.433,-36.026,-21.18,-22.965,-22.526,-26.711
-24.365,-15.173,-10.516,-35.987,-23.282,-19.02,-26.89,-31.439,-21.342,-20.13,14.433,-36.026,-21.18,-22.965,-22.526,-26.711
-24.421,-15.411,-10.577,-36.219,-23.379,-19.218,-26.979,-31.685,-21.385,-20.348,14.41,-36.34,-21.279,-23.17,-22.591,-26.936
-24.421,-15.411,-10.577,-36.219,-23.379,-19.218,-26.979,-31.685,-21.385,-20.348,14.41,-36.34,-21.279,-23.17,-22.591,-26.936
-24.477,-15.648,-10.638,-36.45,-23.477,-19.416,-27.067,-31.929,-21.428,-20.565,14.388,-36.654,-21.378,-23.374,-22.656,-27.161
-24.477,-15.648,-10.638,-36.45,-23.477,-19.416,-27.067,-31.929,-21.428,-20.565,14.388,-36.654,-21.378,-23.374,-22.656,-27.161
-24.533,-15.884,-10.698,-36.68,-23.575,-19.612,-27.154,-32.173,-21.47,-20.781,14.366,-36.966,-21.476,-23.578,-22.72,-27.385
-24.533,-15.884,-10.698,-36.68,-23.575,-19.612,-27.154,-32.173,-21.47,-20.781,14.366,-36.966,-21.476,-23.578,-22.72,-27.385
-24.588,-16.119,-10.756,-36.909,-23.672,-19.808,-27.241,-32.416,-21.513,-20.997,14.344,-37.277,-21.575,-23.781,-22.784,-27.608
-24.588,-16.119,-10.756,-36.909,-23.672,-19.808,-27.241,-32.416,-21.513,-20.997,14.344,-37.277,-21.575,-23.781,-22.784,-27.608
-24.588,-16.119,-10.756,-36.909,-23.672,-19.808,-27.241,-32.416,-21.513,-20.997,14.344,-37.277,-21.575,-23.781,-22.784,-27.608
-24.643,-16.352,-10.814,-37.137,-23.77,-20.002,-27.327,-32.658,-21.555,-21.211,14.322,-37.586,-21.674,-23.983,-22.847,-27.831
-24.643,-16.352,-10.814,-37.137,-23.77,-20.002,-27.327,-32.658,-21.555,-21.211,14.322,-37.586,-21.674,-23.983,-22.847,-27.831
-24.75,-16.815,-10.927,-37.59,-23.964,-20.389,-27.498,-33.14,-21.638,-21.638,14.278,-38.203,-21.872,-24.387,-22.972,-28.275
-24.75,-16.815,-10.927,-37.59,-23.964,-20.389,-27.498,-33.14,-21.638,-21.638,14.278,-38.203,-21.872,-24.387,-22.972,-28.275
-24.75,-16.815,-10.927,-37.59,-23.964,-20.389,-27.498,-33.14,-21.638,-21.638,14.278,-38.203,-21.872,-24.387,-22.972,-28.275
-24.804,-17.044,-10.982,-37.815,-24.061,-20.581,-27.582,-33.379,-21.679,-21.85,14.256,-38.509,-21.971,-24.588,-23.033,-28.496
-24.804,-17.044,-10.982,-37.815,-24.061,-20.581,-27.582,-33.379,-21.679,-21.85,14.256,-38.509,-21.971,-24.588,-23.033,-28.496
-24.856,-17.272,-11.037,-38.038,-24.158,-20.772,-27.665,-33.617,-21.72,-22.061,14.235,-38.814,-22.07,-24.788,-23.094,-28.717
-24.856,-17.272,-11.037,-38.038,-24.158,-20.772,-27.665,-33.617,-21.72,-22.061,14.235,-38.814,-22.07,-24.788,-23.094,-28.717
-24.856,-17.272,-11.037,-38.038,-24.158,-20.772,-27.665,-33.617,-21.72,-22.061,14.235,-38.814,-22.07,-24.788,-23.094,-28.717
-24.908,-17.499,-11.09,-38.261,-24.255,-20.962,-27.748,-33.854,-21.76,-22.271,14.213,-39.118,-22.169,-24.987,-23.155,-28.937
-24.908,-17.499,-11.09,-38.261,-24.255,-20.962,-27.748,-33.854,-21.76,-22.271,14.213,-39.118,-22.169,-24.987,-23.155,-28.937
-24.908,-17.499,-11.09,-38.261,-24.255,-20.962,-27.748,-33.854,-21.76,-22.271,14.213,-39.118,-22.169,-24.987,-23.155,-28.937
-25.011,-17.949,-11.193,-38.703,-24.448,-21.34,-27.912,-34.326,-21.84,-22.689,14.171,-39.722,-22.368,-25.384,-23.274,-29.374
-25.061,-18.172,-11.243,-38.922,-24.544,-21.527,-27.992,-34.56,-21.879,-22.896,14.15,-40.022,-22.467,-25.582,-23.333,-29.592
-25.061,-18.172,-11.243,-38.922,-24.544,-21.527,-27.992,-34.56,-21.879,-22.896,14.15,-40.022,-22.467,-25.582,-23.333,-29.592
-25.061,-18.172,-11.243,-38.922,-24.544,-21.527,-27.992,-34.56,-21.879,-22.896,14.15,-40.022,-22.467,-25.582,-23.333,-29.592
-25.111,-18.394,-11.292,-39.14,-24.64,-21.714,-28.072,-34.793,-21.918,-23.103,14.13,-40.32,-22.566,-25.779,-23.391,-29.81
-25.111,-18.394,-11.292,-39.14,-24.64,-21.714,-28.072,-34.793,-21.918,-23.103,14.13,-40.32,-22.566,-25.779,-23.391,-29.81
-25.111,-18.394,-11.292,-39.14,-24.64,-21.714,-28.072,-34.793,-21.918,-23.103,14.13,-40.32,-22.566,-25.779,-23.391,-29.81
-25.161,-18.614,-11.341,-39.356,-24.736,-21.899,-28.151,-35.025,-21.957,-23.309,14.109,-40.618,-22.665,-25.975,-23.448,-30.026
-25.209,-18.833,-11.388,-39.572,-24.831,-22.084,-28.23,-35.256,-21.995,-23.513,14.089,-40.914,-22.764,-26.17,-23.505,-30.242
-25.258,-19.05,-11.434,-39.786,-24.927,-22.267,-28.308,-35.486,-22.033,-23.717,14.068,-41.208,-22.864,-26.365,-23.562,-30.457
-25.258,-19.05,-11.434,-39.786,-24.927,-22.267,-28.308,-35.486,-22.033,-23.717,14.068,-41.208,-22.864,-26.365,-23.562,-30.457
-25.258,-19.05,-11.434,-39.786,-24.927,-22.267,-28.308,-35.486,-22.033,-23.717,14.068,-41.208,-22.864,-26.365,-23.562,-30.457
-25.305,-19.266,-11.479,-39.999,-25.022,-22.449,-28.385,-35.714,-22.071,-23.92,14.048,-41.501,-22.963,-26.559,-23.618,-30.671
-25.305,-19.266,-11.479,-39.999,-25.022,-22.449,-28.385,-35.714,-22.071,-23.92,14.048,-41.501,-22.963,-26.559,-23.618,-30.671
-25.352,-19.481,-11.523,-40.211,-25.117,-22.631,-28.461,-35.942,-22.108,-24.122,14.028,-41.793,-23.062,-26.752,-23.673,-30.885
-25.352,-19.481,-11.523,-40.211,-25.117,-22.631,-28.461,-35.942,-22.108,-24.122,14.028,-41.793,-23.062,-26.752,-23.673,-30.885
-25.352,-19.481,-11.523,-40.211,-25.117,-22.631,-28.461,-35.942,-22.108,-24.122,14.028,-41.793,-23.062,-26.752,-23.673,-30.885
-25.399,-19.694,-11.566,-40.421,-25.212,-22.811,-28.536,-36.168,-22.145,-24.323,14.009,-42.083,-23.161,-26.944,-23.727,-31.097
-25.399,-19.694,-11.566,-40.421,-25.212,-22.811,-28.536,-36.168,-22.145,-24.323,14.009,-42.083,-23.161,-26.944,-23.727,-31.097
-25.399,-19.694,-11.566,-40.421,-25.212,-22.811,-28.536,-36.168,-22.145,-24.323,14.009,-42.083,-23.161,-26.944,-23.727,-31.097
-25.49,-20.116,-11.649,-40.838,-25.401,-23.169,-28.685,-36.617,-22.218,-24.721,13.97,-42.659,-23.359,-27.326,-23.834,-31.52
-25.49,-20.116,-11.649,-40.838,-25.401,-23.169,-28.685,-36.617,-22.218,-24.721,13.97,-42.659,-23.359,-27.326,-23.834,-31.52
-25.535,-20.324,-11.689,-41.044,-25.495,-23.346,-28.758,-36.84,-22.253,-24.919,13.951,-42.945,-23.459,-27.516,-23.887,-31.731
-25.535,-20.324,-11.689,-41.044,-25.495,-23.346,-28.758,-36.84,-22.253,-24.919,13.951,-42.945,-23.459,-27.516,-23.887,-31.731
-25.535,-20.324,-11.689,-41.044,-25.495,-23.346,-28.758,-36.84,-22.253,-24.919,13.951,-42.945,-23.459,-27.516,-23.887,-31.731
-25.579,-20.532,-11.728,-41.249,-25.588,-23.522,-28.83,-37.061,-22.289,-25.115,13.932,-43.229,-23.557,-27.706,-23.939,-31.94
-25.623,-20.737,-11.766,-41.453,-25.682,-23.698,-28.902,-37.282,-22.324,-25.311,13.913,-43.512,-23.656,-27.894,-23.991,-32.149
-25.623,-20.737,-11.766,-41.453,-25.682,-23.698,-28.902,-37.282,-22.324,-25.311,13.913,-43.512,-23.656,-27.894,-23.991,-32.149
-25.666,-20.941,-11.803,-41.655,-25.775,-23.872,-28.972,-37.501,-22.358,-25.506,13.894,-43.793,-23.755,-28.082,-24.041,-32.356
-25.666,-20.941,-11.803,-41.655,-25.775,-23.872,-28.972,-37.501,-22.358,-25.506,13.894,-43.793,-23.755,-28.082,-24.041,-32.356
-25.709,-21.144,-11.838,-41.856,-25.868,-24.044,-29.042,-37.718,-22.392,-25.699,13.876,-44.072,-23.854,-28.268,-24.091,-32.563
-25.709,-21.144,-11.838,-41.856,-25.868,-24.044,-29.042,-37.718,-22.392,-25.699,13.876,-44.072,-23.854,-28.268,-24.091,-32.563
-25.75,-21.345,-11.873,-42.055,-25.961,-24.216,-29.111,-37.935,-22.426,-25.891,13.858,-44.35,-23.953,-28.454,-24.141,-32.769
-25.75,-21.345,-11.873,-42.055,-25.961,-24.216,-29.111,-37.935,-22.426,-25.891,13.858,-44.35,-23.953,-28.454,-24.141,-32.769
-25.792,-21.544,-11.907,-42.253,-26.054,-24.387,-29.18,-38.15,-22.459,-26.083,13.84,-44.626,-24.051,-28.639,-24.19,-32.974
-25.792,-21.544,-11.907,-42.253,-26.054,-24.387,-29.18,-38.15,-22.459,-26.083,13.84,-44.626,-24.051,-28.639,-24.19,-32.974
-25.792,-21.544,-11.907,-42.253,-26.054,-24.387,-29.18,-38.15,-22.459,-26.083,13.84,-44.626,-24.051,-28.639,-24.19,-32.974
-25.792,-21.544,-11.907,-42.253,-26.054,-24.387,-29.18,-38.15,-22.459,-26.083,13.84,-44.626,-24.051,-28.639,-24.19,-32.974
-25.872,-21.939,-11.97,-42.645,-26.238,-24.725,-29.314,-38.577,-22.525,-26.462,13.804,-45.174,-24.248,-29.007,-24.285,-33.382
-25.872,-21.939,-11.97,-42.645,-26.238,-24.725,-29.314,-38.577,-22.525,-26.462,13.804,-45.174,-24.248,-29.007,-24.285,-33.382
-25.912,-22.133,-12.001,-42.838,-26.329,-24.892,-29.379,-38.788,-22.557,-26.65,13.787,-45.445,-24.347,-29.189,-24.332,-33.584
-25.912,-22.133,-12.001,-42.838,-26.329,-24.892,-29.379,-38.788,-22.557,-26.65,13.787,-45.445,-24.347,-29.189,-24.332,-33.584
-25.95,-22.326,-12.03,-43.03,-26.421,-25.058,-29.444,-38.998,-22.588,-26.836,13.769,-45.715,-24.445,-29.371,-24.378,-33.785
-25.95,-22.326,-12.03,-43.03,-26.421,-25.058,-29.444,-38.998,-22.588,-26.836,13.769,-45.715,-24.445,-29.371,-24.378,-33.785
-25.988,-22.518,-12.058,-43.22,-26.512,-25.223,-29.508,-39.206,-22.62,-27.022,13.752,-45.983,-24.543,-29.551,-24.424,-33.986
-25.988,-22.518,-12.058,-43.22,-26.512,-25.223,-29.508,-39.206,-22.62,-27.022,13.752,-45.983,-24.543,-29.551,-24.424,-33.986
-26.026,-22.707,-12.085,-43.409,-26.602,-25.387,-29.572,-39.413,-22.65,-27.206,13.735,-46.249,-24.641,-29.731,-24.468,-34.185
-26.063,-22.895,-12.11,-43.597,-26.693,-25.549,-29.634,-39.619,-22.681,-27.39,13.719,-46.513,-24.739,-29.91,-24.512,-34.384
-26.063,-22.895,-12.11,-43.597,-26.693,-25.549,-29.634,-39.619,-22.681,-27.39,13.719,-46.513,-24.739,-29.91,-24.512,-34.384
-26.063,-22.895,-12.11,-43.597,-26.693,-25.549,-29.634,-39.619,-22.681,-27.39,13.719,-46.513,-24.739,-29.91,-24.512,-34.384
-26.099,-23.082,-12.135,-43.783,-26.783,-25.711,-29.695,-39.823,-22.71,-27.572,13.702,-46.775,-24.837,-30.088,-24.556,-34.581
-26.135,-23.267,-12.159,-43.967,-26.872,-25.871,-29.756,-40.026,-22.74,-27.753,13.686,-47.036,-24.934,-30.265,-24.598,-34.777
-26.135,-23.267,-12.159,-43.967,-26.872,-25.871,-29.756,-40.026,-22.74,-27.753,13.686,-47.036,-24.934,-30.265,-24.598,-34.777
-26.135,-23.267,-12.159,-43.967,-26.872,-25.871,-29.756,-40.026,-22.74,-27.753,13.686,-47.036,-24.934,-30.265,-24.598,-34.777
-26.17,-23.45,-12.181,-44.149,-26.962,-26.029,-29.816,-40.227,-22.769,-27.932,13.67,-47.295,-25.032,-30.441,-24.64,-34.973
-26.17,-23.45,-12.181,-44.149,-26.962,-26.029,-29.816,-40.227,-22.769,-27.932,13.67,-47.295,-25.032,-30.441,-24.64,-34.973
-26.17,-23.45,-12.181,-44.149,-26.962,-26.029,-29.816,-40.227,-22.769,-27.932,13.67,-47.295,-25.032,-30.441,-24.64,-34.973
-26.204,-23.631,-12.202,-44.33,-27.051,-26.187,-29.874,-40.427,-22.797,-28.111,13.654,-47.552,-25.129,-30.615,-24.682,-35.167
-26.238,-23.811,-12.223,-44.51,-27.139,-26.344,-29.932,-40.626,-22.825,-28.288,13.639,-47.807,-25.226,-30.789,-24.722,-35.36
-26.271,-23.989,-12.242,-44.687,-27.228,-26.499,-29.989,-40.823,-22.853,-28.464,13.623,-48.061,-25.323,-30.962,-24.762,-35.552
-26.271,-23.989,-12.242,-44.687,-27.228,-26.499,-29.989,-40.823,-22.853,-28.464,13.623,-48.061,-25.323,-30.962,-24.762,-35.552
-26.303,-24.165,-12.26,-44.863,-27.316,-26.653,-30.045,-41.018,-22.88,-28.638,13.608,-48.312,-25.42,-31.134,-24.801,-35.743
-26.303,-24.165,-12.26,-44.863,-27.316,-26.653,-30.045,-41.018,-22.88,-28.638,13.608,-48.312,-25.42,-31.134,-24.801,-35.743
-26.303,-24.165,-12.26,-44.863,-27.316,-26.653,-30.045,-41.018,-22.88,-28.638,13.608,-48.312,-25.42,-31.134,-24.801,-35.743
-26.335,-24.339,-12.276,-45.038,-27.403,-26.805,-30.1,-41.212,-22.907,-28.812,13.593,-48.562,-25.516,-31.305,-24.839,-35.933
-26.335,-24.339,-12.276,-45.038,-27.403,-26.805,-30.1,-41.212,-22.907,-28.812,13.593,-48.562,-25.516,-31.305,-24.839,-35.933
-26.366,-24.512,-12.292,-45.21,-27.49,-26.957,-30.155,-41.405,-22.933,-28.984,13.579,-48.809,-25.613,-31.475,-24.877,-36.122
-26.366,-24.512,-12.292,-45.21,-27.49,-26.957,-30.155,-41.405,-22.933,-28.984,13.579,-48.809,-25.613,-31.475,-24.877,-36.122
-26.396,-24.683,-12.307,-45.381,-27.577,-27.107,-30.208,-41.595,-22.959,-29.155,13.564,-49.055,-25.709,-31.644,-24.914,-36.309
-26.396,-24.683,-12.307,-45.381,-27.577,-27.107,-30.208,-41.595,-22.959,-29.155,13.564,-49.055,-25.709,-31.644,-24.914,-36.309
-26.426,-24.852,-12.32,-45.55,-27.664,-27.255,-30.26,-41.785,-22.984,-29.325,13.55,-49.299,-25.805,-31.812,-24.95,-36.496
-26.426,-24.852,-12.32,-45.55,-27.664,-27.255,-30.26,-41.785,-22.984,-29.325,13.55,-49.299,-25.805,-31.812,-24.95,-36.496
-26.455,-25.019,-12.332,-45.718,-27.75,-27.403,-30.312,-41.973,-23.009,-29.493,13.536,-49.54,-25.901,-31.979,-24.985,-36.681
-26.455,-25.019,-12.332,-45.718,-27.75,-27.403,-30.312,-41.973,-23.009,-29.493,13.536,-49.54,-25.901,-31.979,-24.985,-36.681
-26.455,-25.019,-12.332,-45.718,-27.75,-27.403,-30.312,-41.973,-23.009,-29.493,13.536,-49.54,-25.901,-31.979,-24.985,-36.681
-26.483,-25.185,-12.343,-45.884,-27.835,-27.549,-30.362,-42.159,-23.033,-29.66,13.522,-49.78,-25.996,-32.145,-25.02,-36.865
-26.511,-25.349,-12.353,-46.048,-27.92,-27.694,-30.411,-42.343,-23.057,-29.826,13.508,-50.018,-26.092,-32.31,-25.054,-37.049
-26.511,-25.349,-12.353,-46.048,-27.92,-27.694,-30.411,-42.343,-23.057,-29.826,13.508,-50.018,-26.092,-32.31,-25.054,-37.049
-26.511,-25.349,-12.353,-46.048,-27.92,-27.694,-30.411,-42.343,-23.057,-29.826,13.508,-50.018,-26.092,-32.31,-25.054,-37.049
-26.538,-25.511,-12.362,-46.21,-28.005,-27.837,-30.46,-42.526,-23.08,-29.99,13.495,-50.254,-26.187,-32.473,-25.087,-37.23
-26.538,-25.511,-12.362,-46.21,-28.005,-27.837,-30.46,-42.526,-23.08,-29.99,13.495,-50.254,-26.187,-32.473,-25.087,-37.23
-26.538,-25.511,-12.362,-46.21,-28.005,-27.837,-30.46,-42.526,-23.08,-29.99,13.495,-50.254,-26.187,-32.473,-25.087,-37.23
-26.59,-25.829,-12.376,-46.529,-28.173,-28.12,-30.554,-42.888,-23.125,-30.315,13.468,-50.719,-26.376,-32.798,-25.15,-37.59
-26.59,-25.829,-12.376,-46.529,-28.173,-28.12,-30.554,-42.888,-23.125,-30.315,13.468,-50.719,-26.376,-32.798,-25.15,-37.59
-26.615,-25.986,-12.381,-46.686,-28.257,-28.26,-30.6,-43.066,-23.147,-30.475,13.456,-50.949,-26.471,-32.958,-25.181,-37.768
-26.615,-25.986,-12.381,-46.686,-28.257,-28.26,-30.6,-43.066,-23.147,-30.475,13.456,-50.949,-26.471,-32.958,-25.181,-37.768
-26.615,-25.986,-12.381,-46.686,-28.257,-28.26,-30.6,-43.066,-23.147,-30.475,13.456,-50.949,-26.471,-32.958,-25.181,-37.768
-26.639,-26.141,-12.385,-46.841,-28.34,-28.398,-30.644,-43.242,-23.168,-30.634,13.443,-51.176,-26.565,-33.117,-25.211,-37.945
-26.639,-26.141,-12.385,-46.841,-28.34,-28.398,-30.644,-43.242,-23.168,-30.634,13.443,-51.176,-26.565,-33.117,-25.211,-37.945
-26.663,-26.293,-12.388,-46.994,-28.423,-28.535,-30.688,-43.417,-23.189,-30.792,13.431,-51.402,-26.659,-33.276,-25.24,-38.121
-26.663,-26.293,-12.388,-46.994,-28.423,-28.535,-30.688,-43.417,-23.189,-30.792,13.431,-51.402,-26.659,-33.276,-25.24,-38.121
-26.708,-26.594,-12.391,-47.295,-28.587,-28.804,-30.773,-43.761,-23.229,-31.103,13.407,-51.846,-26.846,-33.589,-25.297,-38.469
-26.708,-26.594,-12.391,-47.295,-28.587,-28.804,-30.773,-43.761,-23.229,-31.103,13.407,-51.846,-26.846,-33.589,-25.297,-38.469
-26.708,-26.594,-12.391,-47.295,-28.587,-28.804,-30.773,-43.761,-23.229,-31.103,13.407,-51.846,-26.846,-33.589,-25.297,-38.469
-26.73,-26.741,-12.39,-47.443,-28.668,-28.936,-30.813,-43.931,-23.248,-31.256,13.395,-52.065,-26.939,-33.744,-25.323,-38.64
-26.73,-26.741,-12.39,-47.443,-28.668,-28.936,-30.813,-43.931,-23.248,-31.256,13.395,-52.065,-26.939,-33.744,-25.323,-38.64
-26.73,-26.741,-12.39,-47.443,-28.668,-28.936,-30.813,-43.931,-23.248,-31.256,13.395,-52.065,-26.939,-33.744,-25.323,-38.64
-26.751,-26.886,-12.388,-47.588,-28.749,-29.068,-30.853,-44.099,-23.267,-31.408,13.384,-52.282,-27.032,-33.897,-25.349,-38.811
-26.751,-26.886,-12.388,-47.588,-28.749,-29.068,-30.853,-44.099,-23.267,-31.408,13.384,-52.282,-27.032,-33.897,-25.349,-38.811
-26.771,-27.03,-12.386,-47.732,-28.829,-29.197,-30.892,-44.265,-23.285,-31.559,13.372,-52.497,-27.125,-34.05,-25.375,-38.98
-26.771,-27.03,-12.386,-47.732,-28.829,-29.197,-30.892,-44.265,-23.285,-31.559,13.372,-52.497,-27.125,-34.05,-25.375,-38.98
-26.809,-27.311,-12.376,-48.014,-28.988,-29.453,-30.966,-44.593,-23.32,-31.856,13.35,-52.92,-27.309,-34.352,-25.423,-39.315
-26.809,-27.311,-12.376,-48.014,-28.988,-29.453,-30.966,-44.593,-23.32,-31.856,13.35,-52.92,-27.309,-34.352,-25.423,-39.315
-26.828,-27.449,-12.37,-48.152,-29.067,-29.578,-31.002,-44.754,-23.337,-32.002,13.34,-53.128,-27.401,-34.501,-25.446,-39.48
-26.828,-27.449,-12.37,-48.152,-29.067,-29.578,-31.002,-44.754,-23.337,-32.002,13.34,-53.128,-27.401,-34.501,-25.446,-39.48
-26.828,-27.449,-12.37,-48.152,-29.067,-29.578,-31.002,-44.754,-23.337,-32.002,13.34,-53.128,-27.401,-34.501,-25.446,-39.48
-26.845,-27.585,-12.362,-48.289,-29.145,-29.702,-31.036,-44.913,-23.353,-32.147,13.329,-53.334,-27.492,-34.649,-25.468,-39.644
-26.845,-27.585,-12.362,-48.289,-29.145,-29.702,-31.036,-44.913,-23.353,-32.147,13.329,-53.334,-27.492,-34.649,-25.468,-39.644
-26.845,-27.585,-12.362,-48.289,-29.145,-29.702,-31.036,-44.913,-23.353,-32.147,13.329,-53.334,-27.492,-34.649,-25.468,-39.644
-26.862,-27.719,-12.354,-48.423,-29.223,-29.825,-31.07,-45.071,-23.368,-32.291,13.319,-53.538,-27.583,-34.795,-25.489,-39.806
-26.878,-27.851,-12.344,-48.555,-29.3,-29.946,-31.102,-45.226,-23.383,-32.433,13.309,-53.74,-27.674,-34.941,-25.509,-39.967
-26.893,-27.981,-12.333,-48.686,-29.377,-30.066,-31.134,-45.38,-23.398,-32.574,13.299,-53.939,-27.765,-35.085,-25.529,-40.127
-26.893,-27.981,-12.333,-48.686,-29.377,-30.066,-31.134,-45.38,-23.398,-32.574,13.299,-53.939,-27.765,-35.085,-25.529,-40.127
-26.908,-28.11,-12.321,-48.814,-29.454,-30.184,-31.164,-45.532,-23.412,-32.713,13.29,-54.136,-27.855,-35.228,-25.547,-40.285
-26.908,-28.11,-12.321,-48.814,-29.454,-30.184,-31.164,-45.532,-23.412,-32.713,13.29,-54.136,-27.855,-35.228,-25.547,-40.285
-26.908,-28.11,-12.321,-48.814,-29.454,-30.184,-31.164,-45.532,-23.412,-32.713,13.29,-54.136,-27.855,-35.228,-25.547,-40.285
-26.922,-28.236,-12.307,-48.941,-29.529,-30.301,-31.194,-45.682,-23.425,-32.85,13.28,-54.33,-27.945,-35.37,-25.565,-40.442
-26.922,-28.236,-12.307,-48.941,-29.529,-30.301,-31.194,-45.682,-23.425,-32.85,13.28,-54.33,-27.945,-35.37,-25.565,-40.442
-26.935,-28.361,-12.293,-49.065,-29.605,-30.416,-31.222,-45.831,-23.438,-32.986,13.271,-54.523,-28.034,-35.511,-25.582,-40.597
-26.935,-28.361,-12.293,-49.065,-29.605,-30.416,-31.222,-45.831,-23.438,-32.986,13.271,-54.523,-28.034,-35.511,-25.582,-40.597
-26.948,-28.483,-12.277,-49.188,-29.679,-30.53,-31.249,-45.977,-23.451,-33.121,13.262,-54.713,-28.123,-35.65,-25.598,-40.751
-26.948,-28.483,-12.277,-49.188,-29.679,-30.53,-31.249,-45.977,-23.451,-33.121,13.262,-54.713,-28.123,-35.65,-25.598,-40.751
-26.96,-28.604,-12.26,-49.308,-29.754,-30.643,-31.275,-46.122,-23.462,-33.254,13.254,-54.901,-28.212,-35.788,-25.614,-40.904
-26.96,-28.604,-12.26,-49.308,-29.754,-30.643,-31.275,-46.122,-23.462,-33.254,13.254,-54.901,-28.212,-35.788,-25.614,-40.904
-26.96,-28.604,-12.26,-49.308,-29.754,-30.643,-31.275,-46.122,-23.462,-33.254,13.254,-54.901,-28.212,-35.788,-25.614,-40.904
-26.971,-28.722,-12.242,-49.426,-29.827,-30.754,-31.301,-46.265,-23.474,-33.386,13.245,-55.086,-28.301,-35.925,-25.628,-41.055
-26.971,-28.722,-12.242,-49.426,-29.827,-30.754,-31.301,-46.265,-23.474,-33.386,13.245,-55.086,-28.301,-35.925,-25.628,-41.055
-26.971,-28.722,-12.242,-49.426,-29.827,-30.754,-31.301,-46.265,-23.474,-33.386,13.245,-55.086,-28.301,-35.925,-25.628,-41.055
-26.982,-28.839,-12.223,-49.543,-29.9,-30.863,-31.325,-46.406,-23.484,-33.516,13.237,-55.27,-28.389,-36.061,-25.642,-41.204
-26.982,-28.839,-12.223,-49.543,-29.9,-30.863,-31.325,-46.406,-23.484,-33.516,13.237,-55.27,-28.389,-36.061,-25.642,-41.204
-27,-29.067,-12.181,-49.77,-30.045,-31.077,-31.37,-46.682,-23.504,-33.772,13.221,-55.629,-28.564,-36.329,-25.667,-41.499
-27,-29.067,-12.181,-49.77,-30.045,-31.077,-31.37,-46.682,-23.504,-33.772,13.221,-55.629,-28.564,-36.329,-25.667,-41.499
-27,-29.067,-12.181,-49.77,-30.045,-31.077,-31.37,-46.682,-23.504,-33.772,13.221,-55.629,-28.564,-36.329,-25.667,-41.499
-27.009,-29.178,-12.159,-49.88,-30.116,-31.182,-31.39,-46.817,-23.513,-33.898,13.213,-55.805,-28.651,-36.461,-25.678,-41.644
-27.009,-29.178,-12.159,-49.88,-30.116,-31.182,-31.39,-46.817,-23.513,-33.898,13.213,-55.805,-28.651,-36.461,-25.678,-41.644
-27.009,-29.178,-12.159,-49.88,-30.116,-31.182,-31.39,-46.817,-23.513,-33.898,13.213,-55.805,-28.651,-36.461,-25.678,-41.644
-27.024,-29.393,-12.11,-50.095,-30.258,-31.388,-31.429,-47.082,-23.53,-34.144,13.198,-56.15,-28.824,-36.721,-25.697,-41.93
-27.024,-29.393,-12.11,-50.095,-30.258,-31.388,-31.429,-47.082,-23.53,-34.144,13.198,-56.15,-28.824,-36.721,-25.697,-41.93
-27.03,-29.498,-12.084,-50.199,-30.327,-31.488,-31.446,-47.211,-23.537,-34.265,13.191,-56.319,-28.91,-36.849,-25.706,-42.07
-27.03,-29.498,-12.084,-50.199,-30.327,-31.488,-31.446,-47.211,-23.537,-34.265,13.191,-56.319,-28.91,-36.849,-25.706,-42.07
-27.036,-29.602,-12.057,-50.301,-30.396,-31.587,-31.463,-47.339,-23.544,-34.385,13.184,-56.485,-28.995,-36.975,-25.713,-42.209
-27.036,-29.602,-12.057,-50.301,-30.396,-31.587,-31.463,-47.339,-23.544,-34.385,13.184,-56.485,-28.995,-36.975,-25.713,-42.209
-27.04,-29.703,-12.029,-50.401,-30.465,-31.684,-31.478,-47.464,-23.55,-34.503,13.177,-56.65,-29.08,-37.101,-25.72,-42.346
-27.04,-29.703,-12.029,-50.401,-30.465,-31.684,-31.478,-47.464,-23.55,-34.503,13.177,-56.65,-29.08,-37.101,-25.72,-42.346
-27.04,-29.703,-12.029,-50.401,-30.465,-31.684,-31.478,-47.464,-23.55,-34.503,13.177,-56.65,-29.08,-37.101,-25.72,-42.346
-27.04,-29.703,-12.029,-50.401,-30.465,-31.684,-31.478,-47.464,-23.55,-34.503,13.177,-56.65,-29.08,-37.101,-25.72,-42.346
-27.04,-29.703,-12.029,-50.401,-30.465,-31.684,-31.478,-47.464,-23.55,-34.503,13.177,-56.65,-29.08,-37.101,-25.72,-42.346
-27.048,-29.899,-11.969,-50.595,-30.6,-31.874,-31.506,-47.71,-23.561,-34.734,13.164,-56.97,-29.249,-37.348,-25.731,-42.617
-27.048,-29.899,-11.969,-50.595,-30.6,-31.874,-31.506,-47.71,-23.561,-34.734,13.164,-56.97,-29.249,-37.348,-25.731,-42.617
-27.053,-30.087,-11.904,-50.78,-30.733,-32.058,-31.529,-47.947,-23.57,-34.959,13.151,-57.282,-29.417,-37.59,-25.738,-42.88
-27.053,-30.087,-11.904,-50.78,-30.733,-32.058,-31.529,-47.947,-23.57,-34.959,13.151,-57.282,-29.417,-37.59,-25.738,-42.88
-27.055,-30.179,-11.87,-50.87,-30.799,-32.147,-31.539,-48.063,-23.573,-35.069,13.145,-57.434,-29.5,-37.708,-25.74,-43.01
-27.055,-30.179,-11.87,-50.87,-30.799,-32.147,-31.539,-48.063,-23.573,-35.069,13.145,-57.434,-29.5,-37.708,-25.74,-43.01
-27.055,-30.179,-11.87,-50.87,-30.799,-32.147,-31.539,-48.063,-23.573,-35.069,13.145,-57.434,-29.5,-37.708,-25.74,-43.01
-27.055,-30.268,-11.835,-50.957,-30.864,-32.235,-31.547,-48.176,-23.576,-35.177,13.14,-57.583,-29.582,-37.826,-25.742,-43.138
-27.055,-30.268,-11.835,-50.957,-30.864,-32.235,-31.547,-48.176,-23.576,-35.177,13.14,-57.583,-29.582,-37.826,-25.742,-43.138
-27.055,-30.268,-11.835,-50.957,-30.864,-32.235,-31.547,-48.176,-23.576,-35.177,13.14,-57.583,-29.582,-37.826,-25.742,-43.138
-27.055,-30.355,-11.799,-51.043,-30.928,-32.322,-31.555,-48.288,-23.578,-35.284,13.134,-57.73,-29.665,-37.942,-25.742,-43.264
-27.055,-30.355,-11.799,-51.043,-30.928,-32.322,-31.555,-48.288,-23.578,-35.284,13.134,-57.73,-29.665,-37.942,-25.742,-43.264
-27.055,-30.441,-11.761,-51.126,-30.991,-32.407,-31.561,-48.398,-23.58,-35.389,13.129,-57.874,-29.746,-38.057,-25.742,-43.389
-27.054,-30.524,-11.723,-51.207,-31.054,-32.49,-31.567,-48.505,-23.581,-35.493,13.123,-58.016,-29.828,-38.171,-25.741,-43.511
-27.054,-30.524,-11.723,-51.207,-31.054,-32.49,-31.567,-48.505,-23.581,-35.493,13.123,-58.016,-29.828,-38.171,-25.741,-43.511
-27.051,-30.606,-11.683,-51.286,-31.117,-32.572,-31.571,-48.611,-23.582,-35.595,13.118,-58.156,-29.909,-38.283,-25.739,-43.633
-27.049,-30.685,-11.643,-51.363,-31.179,-32.652,-31.574,-48.714,-23.582,-35.696,13.113,-58.293,-29.989,-38.394,-25.736,-43.752
-27.049,-30.685,-11.643,-51.363,-31.179,-32.652,-31.574,-48.714,-23.582,-35.696,13.113,-58.293,-29.989,-38.394,-25.736,-43.752
-27.049,-30.685,-11.643,-51.363,-31.179,-32.652,-31.574,-48.714,-23.582,-35.696,13.113,-58.293,-29.989,-38.394,-25.736,-43.752
-27.045,-30.763,-11.601,-51.437,-31.24,-32.73,-31.576,-48.816,-23.582,-35.794,13.108,-58.427,-30.069,-38.503,-25.732,-43.87
-27.045,-30.763,-11.601,-51.437,-31.24,-32.73,-31.576,-48.816,-23.582,-35.794,13.108,-58.427,-30.069,-38.503,-25.732,-43.87
-27.045,-30.763,-11.601,-51.437,-31.24,-32.73,-31.576,-48.816,-23.582,-35.794,13.108,-58.427,-30.069,-38.503,-25.732,-43.87
-27.041,-30.838,-11.558,-51.51,-31.3,-32.807,-31.577,-48.915,-23.58,-35.892,13.104,-58.559,-30.149,-38.611,-25.727,-43.987
-27.041,-30.838,-11.558,-51.51,-31.3,-32.807,-31.577,-48.915,-23.58,-35.892,13.104,-58.559,-30.149,-38.611,-25.727,-43.987
-27.041,-30.838,-11.558,-51.51,-31.3,-32.807,-31.577,-48.915,-23.58,-35.892,13.104,-58.559,-30.149,-38.611,-25.727,-43.987
-27.031,-30.984,-11.469,-51.649,-31.419,-32.957,-31.575,-49.108,-23.577,-36.081,13.095,-58.816,-30.306,-38.823,-25.714,-44.214
-27.031,-30.984,-11.469,-51.649,-31.419,-32.957,-31.575,-49.108,-23.577,-36.081,13.095,-58.816,-30.306,-38.823,-25.714,-44.214
-27.025,-31.054,-11.423,-51.715,-31.478,-33.029,-31.573,-49.201,-23.574,-36.174,13.091,-58.94,-30.385,-38.927,-25.707,-44.326
-27.025,-31.054,-11.423,-51.715,-31.478,-33.029,-31.573,-49.201,-23.574,-36.174,13.091,-58.94,-30.385,-38.927,-25.707,-44.326
-27.018,-31.121,-11.376,-51.779,-31.535,-33.099,-31.569,-49.293,-23.57,-36.264,13.086,-59.062,-30.462,-39.03,-25.698,-44.435
-27.018,-31.121,-11.376,-51.779,-31.535,-33.099,-31.569,-49.293,-23.57,-36.264,13.086,-59.062,-30.462,-39.03,-25.698,-44.435
-27.018,-31.121,-11.376,-51.779,-31.535,-33.099,-31.569,-49.293,-23.57,-36.264,13.086,-59.062,-30.462,-39.03,-25.698,-44.435
-27.011,-31.187,-11.328,-51.84,-31.592,-33.169,-31.564,-49.382,-23.566,-36.354,13.082,-59.181,-30.54,-39.131,-25.689,-44.543
-27.011,-31.187,-11.328,-51.84,-31.592,-33.169,-31.564,-49.382,-23.566,-36.354,13.082,-59.181,-30.54,-39.131,-25.689,-44.543
-27.002,-31.251,-11.279,-51.9,-31.649,-33.236,-31.558,-49.469,-23.562,-36.441,13.079,-59.298,-30.616,-39.231,-25.679,-44.649
-26.994,-31.313,-11.229,-51.958,-31.705,-33.302,-31.551,-49.554,-23.557,-36.527,13.075,-59.412,-30.693,-39.329,-25.667,-44.753
-26.994,-31.313,-11.229,-51.958,-31.705,-33.302,-31.551,-49.554,-23.557,-36.527,13.075,-59.412,-30.693,-39.329,-25.667,-44.753
-26.984,-31.373,-11.177,-52.013,-31.76,-33.366,-31.542,-49.637,-23.551,-36.611,13.071,-59.524,-30.769,-39.426,-25.655,-44.856
-26.984,-31.373,-11.177,-52.013,-31.76,-33.366,-31.542,-49.637,-23.551,-36.611,13.071,-59.524,-30.769,-39.426,-25.655,-44.856
-26.974,-31.431,-11.125,-52.066,-31.814,-33.429,-31.533,-49.717,-23.545,-36.694,13.068,-59.633,-30.844,-39.522,-25.642,-44.957
-26.974,-31.431,-11.125,-52.066,-31.814,-33.429,-31.533,-49.717,-23.545,-36.694,13.068,-59.633,-30.844,-39.522,-25.642,-44.957
-26.963,-31.487,-11.072,-52.117,-31.868,-33.49,-31.522,-49.796,-23.538,-36.775,13.064,-59.739,-30.919,-39.616,-25.628,-45.056
-26.963,-31.487,-11.072,-52.117,-31.868,-33.49,-31.522,-49.796,-23.538,-36.775,13.064,-59.739,-30.919,-39.616,-25.628,-45.056
-26.951,-31.542,-11.017,-52.166,-31.921,-33.549,-31.511,-49.873,-23.531,-36.854,13.061,-59.843,-30.993,-39.709,-25.613,-45.153
-26.939,-31.594,-10.962,-52.213,-31.973,-33.607,-31.498,-49.947,-23.523,-36.931,13.058,-59.945,-31.067,-39.8,-25.598,-45.249
-26.939,-31.594,-10.962,-52.213,-31.973,-33.607,-31.498,-49.947,-23.523,-36.931,13.058,-59.945,-31.067,-39.8,-25.598,-45.249
-26.939,-31.594,-10.962,-52.213,-31.973,-33.607,-31.498,-49.947,-23.523,-36.931,13.058,-59.945,-31.067,-39.8,-25.598,-45.249
-26.926,-31.644,-10.905,-52.257,-32.025,-33.663,-31.483,-50.019,-23.514,-37.007,13.055,-60.043,-31.14,-39.89,-25.581,-45.343
-26.926,-31.644,-10.905,-52.257,-32.025,-33.663,-31.483,-50.019,-23.514,-37.007,13.055,-60.043,-31.14,-39.89,-25.581,-45.343
-26.926,-31.644,-10.905,-52.257,-32.025,-33.663,-31.483,-50.019,-23.514,-37.007,13.055,-60.043,-31.14,-39.89,-25.581,-45.343
-26.913,-31.693,-10.848,-52.3,-32.076,-33.718,-31.468,-50.089,-23.505,-37.082,13.052,-60.14,-31.213,-39.979,-25.563,-45.435
-26.913,-31.693,-10.848,-52.3,-32.076,-33.718,-31.468,-50.089,-23.505,-37.082,13.052,-60.14,-31.213,-39.979,-25.563,-45.435
-26.898,-31.739,-10.789,-52.34,-32.126,-33.771,-31.452,-50.158,-23.496,-37.154,13.049,-60.233,-31.286,-40.066,-25.545,-45.525
-26.884,-31.784,-10.73,-52.378,-32.176,-33.822,-31.434,-50.223,-23.485,-37.225,13.046,-60.324,-31.358,-40.152,-25.525,-45.613
