22607,54.221,20.117,3.1413e-05,0.0069808,1.09e-08,22981,54.061,0,0,0,0,0.0045591,1
22607,54.221,20.117,3.1413e-05,0.0069808,1.09e-08,22981,54.061,0,0,0,0,0.0045591,1
22609,54.221,20.117,3.1413e-05,0.00674,1.0524e-08,22981,54.061,0,0,0,0,0.0045739,1
22609,54.221,20.117,3.1413e-05,0.00674,1.0524e-08,22981,54.061,0,0,0,0,0.0045739,1
22609,54.221,20.117,3.1413e-05,0.00674,1.0524e-08,22981,54.061,0,0,0,0,0.0045739,1
22609,54.221,20.117,3.1413e-05,0.00674,1.0524e-08,22981,54.061,0,0,0,0,0.0045739,1
22609,54.221,20.117,3.1413e-05,0.00674,1.0524e-08,22981,54.061,0,0,0,0,0.0045739,1
22609,54.221,20.117,3.1413e-05,0.00674,1.0524e-08,22981,54.061,0,0,0,0,0.0045739,1
22609,54.221,20.117,3.1413e-05,0.00674,1.0524e-08,22981,54.061,0,0,0,0,0.0045739,1
22609,54.221,20.117,3.1413e-05,0.00674,1.0524e-08,22981,54.061,0,0,0,0,0.0045739,1
22609,54.221,20.117,3.1413e-05,0.00674,1.0524e-08,22981,54.061,0,0,0,0,0.0045739,1
22609,54.221,20.117,3.1413e-05,0.00674,1.0524e-08,22981,54.061,0,0,0,0,0.0045739,1
22609,54.221,20.117,3.1413e-05,0.00674,1.0524e-08,22981,54.061,0,0,0,0,0.0045739,1
22609,54.221,20.117,3.1413e-05,0.00674,1.0524e-08,22981,54.061,0,0,0,0,0.0045739,1
22609,54.221,20.117,3.1413e-05,0.00674,1.0524e-08,22981,54.061,0,0,0,0,0.0045739,1
22609,54.221,20.117,3.1413e-05,0.00674,1.0524e-08,22981,54.061,0,0,0,0,0.0045739,1
22609,54.221,20.117,3.1413e-05,0.00674,1.0524e-08,22981,54.061,0,0,0,0,0.0045739,1
22609,54.221,20.117,3.1413e-05,0.00674,1.0524e-08,22981,54.061,0,0,0,0,0.0045739,1
22609,54.221,20.117,3.1413e-05,0.00674,1.0524e-08,22981,54.061,0,0,0,0,0.0045739,1
22609,54.221,20.117,3.1413e-05,0.00674,1.0524e-08,22981,54.061,0,0,0,0,0.0045739,1
22609,54.221,20.117,3.1413e-05,0.00674,1.0524e-08,22981,54.061,0,0,0,0,0.0045739,1
22609,54.221,20.117,3.1413e-05,0.00674,1.0524e-08,22981,54.061,0,0,0,0,0.0045739,1
22612,54.221,20.118,3.1415e-05,0.0060974,9.5202e-09,22981,54.061,0,0,0,0,0.0046137,1
22612,54.221,20.118,3.1415e-05,0.0060172,9.395e-09,22981,54.061,0,0,0,0,0.0046187,1
22613,54.221,20.118,3.1415e-05,0.0059371,9.27e-09,22981,54.061,0,0,0,0,0.0046238,1
22614,54.221,20.119,3.1416e-05,0.0056946,8.8912e-09,22981,54.061,0,0,0,0,0.0046389,1
22614,54.221,20.119,3.1416e-05,0.0056946,8.8912e-09,22981,54.061,0,0,0,0,0.0046389,1
22614,54.221,20.119,3.1416e-05,0.005614,8.7654e-09,22981,54.061,0,0,0,0,0.004644,1
22614,54.221,20.119,3.1416e-05,0.005614,8.7654e-09,22981,54.061,0,0,0,0,0.004644,1
22614,54.221,20.119,3.1416e-05,0.005614,8.7654e-09,22981,54.061,0,0,0,0,0.004644,1
22614,54.221,20.119,3.1416e-05,0.005614,8.7654e-09,22981,54.061,0,0,0,0,0.004644,1
22614,54.221,20.119,3.1416e-05,0.005614,8.7654e-09,22981,54.061,0,0,0,0,0.004644,1
22614,54.221,20.119,3.1416e-05,0.005614,8.7654e-09,22981,54.061,0,0,0,0,0.004644,1
22614,54.221,20.119,3.1416e-05,0.005614,8.7654e-09,22981,54.061,0,0,0,0,0.004644,1
22614,54.221,20.119,3.1416e-05,0.005614,8.7654e-09,22981,54.061,0,0,0,0,0.004644,1
22614,54.221,20.119,3.1416e-05,0.005614,8.7654e-09,22981,54.061,0,0,0,0,0.004644,1
22614,54.221,20.119,3.1416e-05,0.005614,8.7654e-09,22981,54.061,0,0,0,0,0.004644,1
22614,54.221,20.119,3.1416e-05,0.005614,8.7654e-09,22981,54.061,0,0,0,0,0.004644,1
22614,54.221,20.119,3.1416e-05,0.005614,8.7654e-09,22981,54.061,0,0,0,0,0.004644,1
22614,54.221,20.119,3.1416e-05,0.005614,8.7654e-09,22981,54.061,0,0,0,0,0.004644,1
22614,54.221,20.119,3.1416e-05,0.005614,8.7654e-09,22981,54.061,0,0,0,0,0.004644,1
22614,54.221,20.119,3.1416e-05,0.005614,8.7654e-09,22981,54.061,0,0,0,0,0.004644,1
22614,54.221,20.119,3.1416e-05,0.005614,8.7654e-09,22981,54.061,0,0,0,0,0.004644,1
22615,54.221,20.119,3.1416e-05,0.0054534,8.5145e-09,22981,54.061,0,0,0,0,0.0046542,1
22615,54.221,20.119,3.1416e-05,0.0054534,8.5145e-09,22981,54.061,0,0,0,0,0.0046542,1
22615,54.221,20.119,3.1416e-05,0.0054534,8.5145e-09,22981,54.061,0,0,0,0,0.0046542,1
22617,54.221,20.119,3.1417e-05,0.0051306,8.0105e-09,22981,54.061,0,0,0,0,0.0046748,1
22617,54.221,20.12,3.1417e-05,0.0049696,7.7591e-09,22981,54.061,0,0,0,0,0.0046851,1
22617,54.221,20.12,3.1417e-05,0.0049696,7.7591e-09,22981,54.061,0,0,0,0,0.0046851,1
22617,54.221,20.12,3.1417e-05,0.0049696,7.7591e-09,22981,54.061,0,0,0,0,0.0046851,1
22617,54.221,20.12,3.1417e-05,0.0049696,7.7591e-09,22981,54.061,0,0,0,0,0.0046851,1
22617,54.221,20.12,3.1417e-05,0.0049696,7.7591e-09,22981,54.061,0,0,0,0,0.0046851,1
22617,54.221,20.12,3.1417e-05,0.0049696,7.7591e-09,22981,54.061,0,0,0,0,0.0046851,1
22617,54.221,20.12,3.1417e-05,0.0049696,7.7591e-09,22981,54.061,0,0,0,0,0.0046851,1
22617,54.221,20.12,3.1417e-05,0.0049696,7.7591e-09,22981,54.061,0,0,0,0,0.0046851,1
22617,54.221,20.12,3.1417e-05,0.0049696,7.7591e-09,22981,54.061,0,0,0,0,0.0046851,1
22617,54.221,20.12,3.1417e-05,0.0049696,7.7591e-09,22981,54.061,0,0,0,0,0.0046851,1
22617,54.221,20.12,3.1417e-05,0.0049696,7.7591e-09,22981,54.061,0,0,0,0,0.0046851,1
22617,54.221,20.12,3.1417e-05,0.0049696,7.7591e-09,22981,54.061,0,0,0,0,0.0046851,1
22617,54.221,20.12,3.1417e-05,0.0049696,7.7591e-09,22981,54.061,0,0,0,0,0.0046851,1
22617,54.221,20.12,3.1417e-05,0.0049696,7.7591e-09,22981,54.061,0,0,0,0,0.0046851,1
22617,54.221,20.12,3.1417e-05,0.0049696,7.7591e-09,22981,54.061,0,0,0,0,0.0046851,1
22619,54.221,20.12,3.1418e-05,0.0045653,7.1278e-09,22981,54.061,0,0,0,0,0.0047112,1
22619,54.221,20.12,3.1418e-05,0.0045653,7.1278e-09,22981,54.061,0,0,0,0,0.0047112,1
22619,54.221,20.12,3.1418e-05,0.0045653,7.1278e-09,22981,54.061,0,0,0,0,0.0047112,1
22619,54.221,20.12,3.1418e-05,0.0045653,7.1278e-09,22981,54.061,0,0,0,0,0.0047112,1
22619,54.221,20.12,3.1418e-05,0.0045653,7.1278e-09,22981,54.061,0,0,0,0,0.0047112,1
22619,54.221,20.12,3.1418e-05,0.0045653,7.1278e-09,22981,54.061,0,0,0,0,0.0047112,1
22620,54.221,20.12,3.1418e-05,0.0044846,7.0019e-09,22981,54.061,0,0,0,0,0.0047164,1
22620,54.221,20.12,3.1418e-05,0.0044846,7.0019e-09,22981,54.061,0,0,0,0,0.0047164,1
22620,54.221,20.12,3.1418e-05,0.0044042,6.8763e-09,22981,54.061,0,0,0,0,0.0047217,1
22622,54.221,20.121,3.1419e-05,0.0040805,6.3709e-09,22981,54.061,0,0,0,0,0.0047428,1
22623,54.221,20.121,3.1419e-05,0.0038385,5.9932e-09,22981,54.061,0,0,0,0,0.0047588,1
22623,54.221,20.121,3.1419e-05,0.0038385,5.9932e-09,22981,54.061,0,0,0,0,0.0047588,1
22623,54.221,20.121,3.1419e-05,0.0038385,5.9932e-09,22981,54.061,0,0,0,0,0.0047588,1
22623,54.221,20.121,3.1419e-05,0.0038385,5.9932e-09,22981,54.061,0,0,0,0,0.0047588,1
22623,54.221,20.121,3.1419e-05,0.0038385,5.9932e-09,22981,54.061,0,0,0,0,0.0047588,1
22623,54.221,20.121,3.1419e-05,0.0038385,5.9932e-09,22981,54.061,0,0,0,0,0.0047588,1
22623,54.221,20.121,3.1419e-05,0.0038385,5.9932e-09,22981,54.061,0,0,0,0,0.0047588,1
22623,54.221,20.121,3.1419e-05,0.0038385,5.9932e-09,22981,54.061,0,0,0,0,0.0047588,1
22623,54.221,20.121,3.1419e-05,0.0038385,5.9932e-09,22981,54.061,0,0,0,0,0.0047588,1
22623,54.221,20.121,3.1419e-05,0.0038385,5.9932e-09,22981,54.061,0,0,0,0,0.0047588,1
22623,54.221,20.121,3.1419e-05,0.0038385,5.9932e-09,22981,54.061,0,0,0,0,0.0047588,1
22623,54.221,20.121,3.1419e-05,0.0038385,5.9932e-09,22981,54.061,0,0,0,0,0.0047588,1
22624,54.221,20.121,3.142e-05,0.0035945,5.6124e-09,22981,54.061,0,0,0,0,0.0047749,1
22624,54.221,20.121,3.142e-05,0.0035945,5.6124e-09,22981,54.061,0,0,0,0,0.0047749,1
22624,54.221,20.121,3.142e-05,0.0035945,5.6124e-09,22981,54.061,0,0,0,0,0.0047749,1
22624,54.221,20.121,3.142e-05,0.0035945,5.6124e-09,22981,54.061,0,0,0,0,0.0047749,1
22624,54.221,20.121,3.142e-05,0.0035945,5.6124e-09,22981,54.061,0,0,0,0,0.0047749,1
22624,54.221,20.121,3.142e-05,0.0035945,5.6124e-09,22981,54.061,0,0,0,0,0.0047749,1
22624,54.221,20.121,3.142e-05,0.0035945,5.6124e-09,22981,54.061,0,0,0,0,0.0047749,1
22624,54.221,20.121,3.142e-05,0.0035945,5.6124e-09,22981,54.061,0,0,0,0,0.0047749,1
22624,54.221,20.121,3.142e-05,0.0035945,5.6124e-09,22981,54.061,0,0,0,0,0.0047749,1
22624,54.221,20.121,3.142e-05,0.0035945,5.6124e-09,22981,54.061,0,0,0,0,0.0047749,1
22625,54.221,20.121,3.142e-05,0.003352,5.2337e-09,22981,54.061,0,0,0,0,0.0047911,1
22627,54.221,20.122,3.142e-05,0.0031086,4.8538e-09,22981,54.061,0,0,0,0,0.0048074,1
22628,54.221,20.122,3.142e-05,0.0028654,4.4743e-09,22981,54.061,0,0,0,0,0.0048238,1
22628,54.221,20.122,3.142e-05,0.0028654,4.4743e-09,22981,54.061,0,0,0,0,0.0048238,1
22628,54.221,20.122,3.142e-05,0.0028654,4.4743e-09,22981,54.061,0,0,0,0,0.0048238,1
22628,54.221,20.122,3.142e-05,0.0028654,4.4743e-09,22981,54.061,0,0,0,0,0.0048238,1
22628,54.221,20.122,3.142e-05,0.0028654,4.4743e-09,22981,54.061,0,0,0,0,0.0048238,1
22628,54.221,20.122,3.142e-05,0.0028654,4.4743e-09,22981,54.061,0,0,0,0,0.0048238,1
22628,54.221,20.122,3.142e-05,0.0028654,4.4743e-09,22981,54.061,0,0,0,0,0.0048238,1
22628,54.221,20.122,3.142e-05,0.0028654,4.4743e-09,22981,54.061,0,0,0,0,0.0048238,1
22628,54.221,20.122,3.142e-05,0.0028654,4.4743e-09,22981,54.061,0,0,0,0,0.0048238,1
22628,54.221,20.122,3.142e-05,0.0028654,4.4743e-09,22981,54.061,0,0,0,0,0.0048238,1
22628,54.221,20.122,3.142e-05,0.0028654,4.4743e-09,22981,54.061,0,0,0,0,0.0048238,1
22628,54.221,20.122,3.142e-05,0.0028654,4.4743e-09,22981,54.061,0,0,0,0,0.0048238,1
22628,54.221,20.122,3.142e-05,0.0028654,4.4743e-09,22981,54.061,0,0,0,0,0.0048238,1
22629,54.221,20.122,3.1421e-05,0.0026226,4.0953e-09,22981,54.061,0,0,0,0,0.0048403,1
22629,54.221,20.122,3.1421e-05,0.0026226,4.0953e-09,22981,54.061,0,0,0,0,0.0048403,1
22629,54.221,20.122,3.1421e-05,0.0026226,4.0953e-09,22981,54.061,0,0,0,0,0.0048403,1
22629,54.221,20.122,3.1421e-05,0.0026226,4.0953e-09,22981,54.061,0,0,0,0,0.0048403,1
22629,54.221,20.122,3.1421e-05,0.0026226,4.0953e-09,22981,54.061,0,0,0,0,0.0048403,1
22629,54.221,20.122,3.1421e-05,0.0026226,4.0953e-09,22981,54.061,0,0,0,0,0.0048403,1
22629,54.221,20.122,3.1421e-05,0.0026226,4.0953e-09,22981,54.061,0,0,0,0,0.0048403,1
22629,54.221,20.122,3.1421e-05,0.0026226,4.0953e-09,22981,54.061,0,0,0,0,0.0048403,1
22629,54.221,20.122,3.1421e-05,0.0026226,4.0953e-09,22981,54.061,0,0,0,0,0.0048403,1
22632,54.221,20.122,3.1421e-05,0.0021355,3.3352e-09,22981,54.061,0,0,0,0,0.0048737,1
22632,54.221,20.122,3.1421e-05,0.0021355,3.3352e-09,22981,54.061,0,0,0,0,0.0048737,1
22632,54.221,20.122,3.1421e-05,0.0021355,3.3352e-09,22981,54.061,0,0,0,0,0.0048737,1
22633,54.221,20.122,3.1421e-05,0.0018913,2.954e-09,22981,54.061,0,0,0,0,0.0048906,1
22633,54.221,20.122,3.1421e-05,0.0018102,2.8274e-09,22981,54.061,0,0,0,0,0.0048963,1
22633,54.221,20.122,3.1421e-05,0.0018102,2.8274e-09,22981,54.061,0,0,0,0,0.0048963,1
22633,54.221,20.122,3.1421e-05,0.0018102,2.8274e-09,22981,54.061,0,0,0,0,0.0048963,1
22634,54.221,20.122,3.1421e-05,0.0017293,2.7011e-09,22981,54.061,0,0,0,0,0.0049019,1
22634,54.221,20.122,3.1421e-05,0.0017293,2.7011e-09,22981,54.061,0,0,0,0,0.0049019,1
22634,54.221,20.122,3.1421e-05,0.0017293,2.7011e-09,22981,54.061,0,0,0,0,0.0049019,1
22634,54.221,20.122,3.1421e-05,0.0017293,2.7011e-09,22981,54.061,0,0,0,0,0.0049019,1
22634,54.221,20.122,3.1421e-05,0.0017293,2.7011e-09,22981,54.061,0,0,0,0,0.0049019,1
22634,54.221,20.122,3.1421e-05,0.0017293,2.7011e-09,22981,54.061,0,0,0,0,0.0049019,1
22634,54.221,20.122,3.1421e-05,0.0017293,2.7011e-09,22981,54.061,0,0,0,0,0.0049019,1
22634,54.221,20.122,3.1421e-05,0.0017293,2.7011e-09,22981,54.061,0,0,0,0,0.0049019,1
22634,54.221,20.122,3.1421e-05,0.0017293,2.7011e-09,22981,54.061,0,0,0,0,0.0049019,1
22634,54.221,20.122,3.1421e-05,0.0017293,2.7011e-09,22981,54.061,0,0,0,0,0.0049019,1
22634,54.221,20.122,3.1422e-05,0.0015668,2.4473e-09,22981,54.061,0,0,0,0,0.0049133,1
22635,54.221,20.122,3.1422e-05,0.0014852,2.32e-09,22981,54.061,0,0,0,0,0.004919,1
22635,54.221,20.122,3.1422e-05,0.0014852,2.32e-09,22981,54.061,0,0,0,0,0.004919,1
22635,54.221,20.122,3.1422e-05,0.0014852,2.32e-09,22981,54.061,0,0,0,0,0.004919,1
22635,54.221,20.122,3.1422e-05,0.0014852,2.32e-09,22981,54.061,0,0,0,0,0.004919,1
22635,54.221,20.122,3.1422e-05,0.0014852,2.32e-09,22981,54.061,0,0,0,0,0.004919,1
22635,54.221,20.122,3.1422e-05,0.0014852,2.32e-09,22981,54.061,0,0,0,0,0.004919,1
22635,54.221,20.122,3.1422e-05,0.0014852,2.32e-09,22981,54.061,0,0,0,0,0.004919,1
22635,54.221,20.122,3.1422e-05,0.0014852,2.32e-09,22981,54.061,0,0,0,0,0.004919,1
22636,54.222,20.123,3.1422e-05,0.0011605,1.813e-09,22981,54.061,0,0,0,0,0.004942,1
22636,54.222,20.123,3.1422e-05,0.0011605,1.813e-09,22981,54.061,0,0,0,0,0.004942,1
22636,54.222,20.123,3.1422e-05,0.0011605,1.813e-09,22981,54.061,0,0,0,0,0.004942,1
22638,54.222,20.123,3.1422e-05,0.00091631,1.4319e-09,22981,54.061,0,0,0,0,0.0049593,1
22638,54.222,20.123,3.1422e-05,0.00091631,1.4319e-09,22981,54.061,0,0,0,0,0.0049593,1
22638,54.222,20.123,3.1422e-05,0.00091631,1.4319e-09,22981,54.061,0,0,0,0,0.0049593,1
22638,54.222,20.123,3.1422e-05,0.00091631,1.4319e-09,22981,54.061,0,0,0,0,0.0049593,1
22638,54.222,20.123,3.1422e-05,0.00091631,1.4319e-09,22981,54.061,0,0,0,0,0.0049593,1
22638,54.222,20.123,3.1422e-05,0.00091631,1.4319e-09,22981,54.061,0,0,0,0,0.0049593,1
22638,54.222,20.123,3.1422e-05,0.00091631,1.4319e-09,22981,54.061,0,0,0,0,0.0049593,1
22638,54.222,20.123,3.1422e-05,0.00091631,1.4319e-09,22981,54.061,0,0,0,0,0.0049593,1
22638,54.222,20.123,3.1422e-05,0.00091631,1.4319e-09,22981,54.061,0,0,0,0,0.0049593,1
22638,54.222,20.123,3.1422e-05,0.00091631,1.4319e-09,22981,54.061,0,0,0,0,0.0049593,1
22638,54.222,20.123,3.1422e-05,0.00091631,1.4319e-09,22981,54.061,0,0,0,0,0.0049593,1
22638,54.222,20.123,3.1422e-05,0.00091631,1.4319e-09,22981,54.061,0,0,0,0,0.0049593,1
22638,54.222,20.123,3.1422e-05,0.00091631,1.4319e-09,22981,54.061,0,0,0,0,0.0049593,1
22638,54.222,20.123,3.1422e-05,0.00091631,1.4319e-09,22981,54.061,0,0,0,0,0.0049593,1
22640,54.222,20.123,3.1422e-05,0.00042899,6.7103e-10,22981,54.061,0,0,0,0,0.0049944,1
22640,54.222,20.123,3.1422e-05,0.00042899,6.7103e-10,22981,54.061,0,0,0,0,0.0049944,1
22640,54.222,20.123,3.1422e-05,0.00042899,6.7103e-10,22981,54.061,0,0,0,0,0.0049944,1
22640,54.222,20.123,3.1422e-05,0.00034739,5.4365e-10,22981,54.061,0,0,0,0,0.0050003,1
22640,54.222,20.123,3.1422e-05,0.00034739,5.4365e-10,22981,54.061,0,0,0,0,0.0050003,1
22641,54.222,20.123,3.1422e-05,0.00026595,4.1648e-10,22981,54.061,0,0,0,0,0.0050062,1
22641,54.222,20.123,3.1422e-05,0.00026595,4.1648e-10,22981,54.061,0,0,0,0,0.0050062,1
22642,54.222,20.123,3.1422e-05,2.2622e-05,3.6515e-11,22981,54.061,0,0,0,0,0.005024,1
22642,54.222,20.123,3.1422e-05,2.2622e-05,3.6515e-11,22981,54.061,0,0,0,0,0.005024,1
22642,54.222,20.123,3.1422e-05,2.2622e-05,3.6515e-11,22981,54.061,0,0,0,0,0.005024,1
22642,54.222,20.123,3.1422e-05,2.2622e-05,3.6515e-11,22981,54.061,0,0,0,0,0.005024,1
22642,54.222,20.123,3.1422e-05,2.2622e-05,3.6515e-11,22981,54.061,0,0,0,0,0.005024,1
22643,54.222,20.123,3.1422e-05,-0.00052588,-8.2004e-10,22981,54.061,0,0,0,0,0.0050419,1
22643,54.222,20.123,3.1422e-05,-0.00052588,-8.2004e-10,22981,54.061,0,0,0,0,0.0050419,1
22643,54.222,20.123,3.1422e-05,-0.00052588,-8.2004e-10,22981,54.061,0,0,0,0,0.0050419,1
22644,54.222,20.123,3.1422e-05,-0.00071648,-1.1177e-09,22981,54.061,0,0,0,0,0.005048,1
22644,54.222,20.123,3.1422e-05,-0.00071648,-1.1177e-09,22981,54.061,0,0,0,0,0.005048,1
22644,54.222,20.123,3.1422e-05,-0.00071648,-1.1177e-09,22981,54.061,0,0,0,0,0.005048,1
22644,54.222,20.123,3.1422e-05,-0.00071648,-1.1177e-09,22981,54.061,0,0,0,0,0.005048,1
22644,54.222,20.123,3.1422e-05,-0.00071648,-1.1177e-09,22981,54.061,0,0,0,0,0.005048,1
22644,54.222,20.123,3.1422e-05,-0.00071648,-1.1177e-09,22981,54.061,0,0,0,0,0.005048,1
22644,54.222,20.123,3.1422e-05,-0.00071648,-1.1177e-09,22981,54.061,0,0,0,0,0.005048,1
22644,54.222,20.123,3.1422e-05,-0.00071648,-1.1177e-09,22981,54.061,0,0,0,0,0.005048,1
22644,54.222,20.123,3.1422e-05,-0.00071648,-1.1177e-09,22981,54.061,0,0,0,0,0.005048,1
22644,54.222,20.123,3.1422e-05,-0.00071648,-1.1177e-09,22981,54.061,0,0,0,0,0.005048,1
22644,54.222,20.123,3.1422e-05,-0.00071648,-1.1177e-09,22981,54.061,0,0,0,0,0.005048,1
22645,54.222,20.123,3.1422e-05,-0.0012643,-1.9731e-09,22981,54.061,0,0,0,0,0.0050661,1
22645,54.222,20.123,3.1422e-05,-0.0012643,-1.9731e-09,22981,54.061,0,0,0,0,0.0050661,1
22645,54.222,20.123,3.1422e-05,-0.0012643,-1.9731e-09,22981,54.061,0,0,0,0,0.0050661,1
22646,54.222,20.123,3.1422e-05,-0.0017896,-2.7935e-09,22981,54.061,0,0,0,0,0.0050843,1
22646,54.222,20.123,3.1422e-05,-0.0017896,-2.7935e-09,22981,54.061,0,0,0,0,0.0050843,1
22646,54.222,20.123,3.1422e-05,-0.0017896,-2.7935e-09,22981,54.061,0,0,0,0,0.0050843,1
22646,54.222,20.123,3.1422e-05,-0.0017896,-2.7935e-09,22981,54.061,0,0,0,0,0.0050843,1
22646,54.222,20.123,3.1422e-05,-0.0017896,-2.7935e-09,22981,54.061,0,0,0,0,0.0050843,1
22646,54.222,20.123,3.1422e-05,-0.0017896,-2.7935e-09,22981,54.061,0,0,0,0,0.0050843,1
22646,54.222,20.123,3.1422e-05,-0.0017896,-2.7935e-09,22981,54.061,0,0,0,0,0.0050843,1
22646,54.222,20.123,3.1422e-05,-0.0017896,-2.7935e-09,22981,54.061,0,0,0,0,0.0050843,1
22646,54.222,20.123,3.1422e-05,-0.0017896,-2.7935e-09,22981,54.061,0,0,0,0,0.0050843,1
22646,54.222,20.123,3.1422e-05,-0.0017896,-2.7935e-09,22981,54.061,0,0,0,0,0.0050843,1
22646,54.222,20.123,3.1422e-05,-0.0017896,-2.7935e-09,22981,54.061,0,0,0,0,0.0050843,1
22646,54.222,20.123,3.1422e-05,-0.0017896,-2.7935e-09,22981,54.061,0,0,0,0,0.0050843,1
22646,54.222,20.123,3.1422e-05,-0.0017896,-2.7935e-09,22981,54.061,0,0,0,0,0.0050843,1
22646,54.222,20.123,3.1422e-05,-0.0017896,-2.7935e-09,22981,54.061,0,0,0,0,0.0050843,1
22646,54.222,20.123,3.1422e-05,-0.0017896,-2.7935e-09,22981,54.061,0,0,0,0,0.0050843,1
22646,54.222,20.123,3.1422e-05,-0.0017896,-2.7935e-09,22981,54.061,0,0,0,0,0.0050843,1
22646,54.222,20.123,3.1422e-05,-0.0017896,-2.7935e-09,22981,54.061,0,0,0,0,0.0050843,1
22646,54.222,20.123,3.1422e-05,-0.0017896,-2.7935e-09,22981,54.061,0,0,0,0,0.0050843,1
22646,54.222,20.123,3.1422e-05,-0.0017896,-2.7935e-09,22981,54.061,0,0,0,0,0.0050843,1
22646,54.222,20.123,3.1422e-05,-0.0017896,-2.7935e-09,22981,54.061,0,0,0,0,0.0050843,1
22649,54.222,20.122,3.1421e-05,-0.0029175,-4.555e-09,22981,54.061,0,0,0,0,0.0051274,1
22649,54.222,20.122,3.1421e-05,-0.0029175,-4.555e-09,22981,54.061,0,0,0,0,0.0051274,1
22649,54.222,20.122,3.1421e-05,-0.0029175,-4.555e-09,22981,54.061,0,0,0,0,0.0051274,1
22649,54.222,20.122,3.1421e-05,-0.0029175,-4.555e-09,22981,54.061,0,0,0,0,0.0051274,1
22649,54.222,20.122,3.1421e-05,-0.0029175,-4.555e-09,22981,54.061,0,0,0,0,0.0051274,1
22650,54.222,20.122,3.1421e-05,-0.0035145,-5.4874e-09,22981,54.061,0,0,0,0,0.0051523,1
22652,54.222,20.122,3.1421e-05,-0.0039391,-6.1505e-09,22981,54.061,0,0,0,0,0.0051712,1
22652,54.222,20.122,3.1421e-05,-0.0039391,-6.1505e-09,22981,54.061,0,0,0,0,0.0051712,1
22653,54.222,20.121,3.142e-05,-0.0043492,-6.7911e-09,22981,54.061,0,0,0,0,0.0051902,1
22653,54.222,20.121,3.142e-05,-0.0043492,-6.7911e-09,22981,54.061,0,0,0,0,0.0051902,1
22653,54.222,20.121,3.142e-05,-0.0043492,-6.7911e-09,22981,54.061,0,0,0,0,0.0051902,1
22653,54.222,20.121,3.142e-05,-0.0043492,-6.7911e-09,22981,54.061,0,0,0,0,0.0051902,1
22653,54.222,20.121,3.142e-05,-0.0043492,-6.7911e-09,22981,54.061,0,0,0,0,0.0051902,1
22653,54.222,20.121,3.142e-05,-0.0043492,-6.7911e-09,22981,54.061,0,0,0,0,0.0051902,1
22653,54.222,20.121,3.142e-05,-0.0043492,-6.7911e-09,22981,54.061,0,0,0,0,0.0051902,1
22653,54.222,20.121,3.142e-05,-0.0043492,-6.7911e-09,22981,54.061,0,0,0,0,0.0051902,1
22653,54.222,20.121,3.142e-05,-0.0043492,-6.7911e-09,22981,54.061,0,0,0,0,0.0051902,1
22653,54.222,20.121,3.142e-05,-0.0043492,-6.7911e-09,22981,54.061,0,0,0,0,0.0051902,1
22653,54.222,20.121,3.142e-05,-0.0043492,-6.7911e-09,22981,54.061,0,0,0,0,0.0051902,1
22653,54.222,20.121,3.142e-05,-0.0043492,-6.7911e-09,22981,54.061,0,0,0,0,0.0051902,1
22653,54.222,20.121,3.142e-05,-0.0043492,-6.7911e-09,22981,54.061,0,0,0,0,0.0051902,1
22653,54.222,20.121,3.142e-05,-0.0043492,-6.7911e-09,22981,54.061,0,0,0,0,0.0051902,1
22653,54.222,20.121,3.142e-05,-0.0043492,-6.7911e-09,22981,54.061,0,0,0,0,0.0051902,1
22653,54.222,20.121,3.142e-05,-0.0043492,-6.7911e-09,22981,54.061,0,0,0,0,0.0051902,1
22653,54.222,20.121,3.142e-05,-0.0043492,-6.7911e-09,22981,54.061,0,0,0,0,0.0051902,1
22653,54.222,20.121,3.142e-05,-0.0043492,-6.7911e-09,22981,54.061,0,0,0,0,0.0051902,1
22653,54.222,20.121,3.142e-05,-0.0043492,-6.7911e-09,22981,54.061,0,0,0,0,0.0051902,1
22654,54.222,20.121,3.142e-05,-0.004616,-7.2078e-09,22981,54.061,0,0,0,0,0.0052029,1
22654,54.222,20.121,3.142e-05,-0.004616,-7.2078e-09,22981,54.061,0,0,0,0,0.0052029,1
22654,54.222,20.121,3.142e-05,-0.004616,-7.2078e-09,22981,54.061,0,0,0,0,0.0052029,1
22654,54.222,20.121,3.142e-05,-0.0047475,-7.4131e-09,22981,54.061,0,0,0,0,0.0052093,1
22655,54.222,20.121,3.1419e-05,-0.0051312,-8.0126e-09,22981,54.061,0,0,0,0,0.0052286,1
22655,54.222,20.121,3.1419e-05,-0.0051312,-8.0126e-09,22981,54.061,0,0,0,0,0.0052286,1
22657,54.222,20.12,3.1418e-05,-0.0057436,-8.9691e-09,22981,54.061,0,0,0,0,0.0052611,1
22657,54.222,20.12,3.1418e-05,-0.0057436,-8.9691e-09,22981,54.061,0,0,0,0,0.0052611,1
22657,54.222,20.12,3.1418e-05,-0.0057436,-8.9691e-09,22981,54.061,0,0,0,0,0.0052611,1
22657,54.222,20.12,3.1418e-05,-0.0057436,-8.9691e-09,22981,54.061,0,0,0,0,0.0052611,1
22657,54.222,20.12,3.1418e-05,-0.0057436,-8.9691e-09,22981,54.061,0,0,0,0,0.0052611,1
22657,54.222,20.12,3.1418e-05,-0.0057436,-8.9691e-09,22981,54.061,0,0,0,0,0.0052611,1
22657,54.222,20.12,3.1418e-05,-0.0057436,-8.9691e-09,22981,54.061,0,0,0,0,0.0052611,1
22657,54.222,20.12,3.1418e-05,-0.0057436,-8.9691e-09,22981,54.061,0,0,0,0,0.0052611,1
22657,54.222,20.12,3.1418e-05,-0.0057436,-8.9691e-09,22981,54.061,0,0,0,0,0.0052611,1
22657,54.222,20.12,3.1418e-05,-0.0057436,-8.9691e-09,22981,54.061,0,0,0,0,0.0052611,1
22657,54.222,20.12,3.1418e-05,-0.0057436,-8.9691e-09,22981,54.061,0,0,0,0,0.0052611,1
22657,54.222,20.12,3.1418e-05,-0.0057436,-8.9691e-09,22981,54.061,0,0,0,0,0.0052611,1
22657,54.222,20.12,3.1418e-05,-0.0057436,-8.9691e-09,22981,54.061,0,0,0,0,0.0052611,1
22657,54.222,20.12,3.1418e-05,-0.0057436,-8.9691e-09,22981,54.061,0,0,0,0,0.0052611,1
22657,54.222,20.12,3.1418e-05,-0.0057436,-8.9691e-09,22981,54.061,0,0,0,0,0.0052611,1
22657,54.222,20.12,3.1418e-05,-0.0057436,-8.9691e-09,22981,54.061,0,0,0,0,0.0052611,1
22657,54.222,20.12,3.1418e-05,-0.0057436,-8.9691e-09,22981,54.061,0,0,0,0,0.0052611,1
22657,54.222,20.12,3.1418e-05,-0.0057436,-8.9691e-09,22981,54.061,0,0,0,0,0.0052611,1
22657,54.222,20.12,3.1418e-05,-0.0057436,-8.9691e-09,22981,54.061,0,0,0,0,0.0052611,1
22659,54.222,20.12,3.1417e-05,-0.0063265,-9.8796e-09,22981,54.061,0,0,0,0,0.005294,1
22659,54.222,20.12,3.1417e-05,-0.0063265,-9.8796e-09,22981,54.061,0,0,0,0,0.005294,1
22659,54.222,20.12,3.1417e-05,-0.0063265,-9.8796e-09,22981,54.061,0,0,0,0,0.005294,1
22659,54.222,20.12,3.1417e-05,-0.0063265,-9.8796e-09,22981,54.061,0,0,0,0,0.005294,1
22659,54.222,20.12,3.1417e-05,-0.0063265,-9.8796e-09,22981,54.061,0,0,0,0,0.005294,1
22659,54.222,20.12,3.1417e-05,-0.0063265,-9.8796e-09,22981,54.061,0,0,0,0,0.005294,1
22662,54.222,20.119,3.1416e-05,-0.0070995,-1.1087e-08,22981,54.061,0,0,0,0,0.0053407,1
22662,54.222,20.119,3.1416e-05,-0.0070995,-1.1087e-08,22981,54.061,0,0,0,0,0.0053407,1
22662,54.222,20.119,3.1416e-05,-0.0070995,-1.1087e-08,22981,54.061,0,0,0,0,0.0053407,1
22662,54.222,20.119,3.1416e-05,-0.0070995,-1.1087e-08,22981,54.061,0,0,0,0,0.0053407,1
22662,54.222,20.119,3.1416e-05,-0.0070995,-1.1087e-08,22981,54.061,0,0,0,0,0.0053407,1
22662,54.222,20.119,3.1416e-05,-0.0070995,-1.1087e-08,22981,54.061,0,0,0,0,0.0053407,1
22662,54.222,20.119,3.1416e-05,-0.0070995,-1.1087e-08,22981,54.061,0,0,0,0,0.0053407,1
22662,54.222,20.119,3.1416e-05,-0.0070995,-1.1087e-08,22981,54.061,0,0,0,0,0.0053407,1
22662,54.222,20.119,3.1416e-05,-0.0070995,-1.1087e-08,22981,54.061,0,0,0,0,0.0053407,1
22662,54.222,20.119,3.1416e-05,-0.0070995,-1.1087e-08,22981,54.061,0,0,0,0,0.0053407,1
22662,54.222,20.119,3.1416e-05,-0.0070995,-1.1087e-08,22981,54.061,0,0,0,0,0.0053407,1
22662,54.222,20.119,3.1416e-05,-0.0070995,-1.1087e-08,22981,54.061,0,0,0,0,0.0053407,1
22662,54.222,20.119,3.1416e-05,-0.0070995,-1.1087e-08,22981,54.061,0,0,0,0,0.0053407,1
22662,54.222,20.119,3.1416e-05,-0.0070995,-1.1087e-08,22981,54.061,0,0,0,0,0.0053407,1
22662,54.222,20.119,3.1416e-05,-0.0070995,-1.1087e-08,22981,54.061,0,0,0,0,0.0053407,1
22665,54.222,20.118,3.1414e-05,-0.0079357,-1.2393e-08,22981,54.061,0,0,0,0,0.0053951,1
22665,54.222,20.118,3.1414e-05,-0.0079357,-1.2393e-08,22981,54.061,0,0,0,0,0.0053951,1
22666,54.222,20.117,3.1414e-05,-0.008036,-1.2549e-08,22981,54.061,0,0,0,0,0.0054019,1
22666,54.222,20.117,3.1414e-05,-0.008036,-1.2549e-08,22981,54.061,0,0,0,0,0.0054019,1
22666,54.222,20.117,3.1414e-05,-0.0081357,-1.2705e-08,22981,54.061,0,0,0,0,0.0054088,1
22666,54.222,20.117,3.1414e-05,-0.0081357,-1.2705e-08,22981,54.061,0,0,0,0,0.0054088,1
22667,54.222,20.117,3.1413e-05,-0.0082351,-1.286e-08,22981,54.061,0,0,0,0,0.0054157,1
22667,54.222,20.117,3.1413e-05,-0.0082351,-1.286e-08,22981,54.061,0,0,0,0,0.0054157,1
22667,54.222,20.117,3.1413e-05,-0.008334,-1.3015e-08,22981,54.061,0,0,0,0,0.0054227,1
22667,54.222,20.117,3.1413e-05,-0.008334,-1.3015e-08,22981,54.061,0,0,0,0,0.0054227,1
22667,54.222,20.117,3.1413e-05,-0.0084324,-1.3169e-08,22981,54.061,0,0,0,0,0.0054296,1
22667,54.222,20.117,3.1413e-05,-0.0084324,-1.3169e-08,22981,54.061,0,0,0,0,0.0054296,1
22667,54.222,20.117,3.1413e-05,-0.0084324,-1.3169e-08,22981,54.061,0,0,0,0,0.0054296,1
22667,54.222,20.117,3.1413e-05,-0.0084324,-1.3169e-08,22981,54.061,0,0,0,0,0.0054296,1
22668,54.222,20.117,3.1413e-05,-0.0085304,-1.3322e-08,22981,54.061,0,0,0,0,0.0054366,1
22668,54.222,20.116,3.1412e-05,-0.008628,-1.3474e-08,22981,54.061,0,0,0,0,0.0054436,1
22668,54.222,20.116,3.1412e-05,-0.008628,-1.3474e-08,22981,54.061,0,0,0,0,0.0054436,1
22668,54.222,20.116,3.1412e-05,-0.008628,-1.3474e-08,22981,54.061,0,0,0,0,0.0054436,1
22668,54.222,20.116,3.1412e-05,-0.008628,-1.3474e-08,22981,54.061,0,0,0,0,0.0054436,1
22669,54.222,20.116,3.1412e-05,-0.0088218,-1.3777e-08,22981,54.061,0,0,0,0,0.0054576,1
22669,54.222,20.116,3.1412e-05,-0.0088218,-1.3777e-08,22981,54.061,0,0,0,0,0.0054576,1
22669,54.222,20.116,3.1412e-05,-0.0088218,-1.3777e-08,22981,54.061,0,0,0,0,0.0054576,1
22669,54.222,20.116,3.1412e-05,-0.0088218,-1.3777e-08,22981,54.061,0,0,0,0,0.0054576,1
22669,54.222,20.116,3.1412e-05,-0.0088218,-1.3777e-08,22981,54.061,0,0,0,0,0.0054576,1
22669,54.222,20.116,3.1412e-05,-0.0088218,-1.3777e-08,22981,54.061,0,0,0,0,0.0054576,1
22669,54.222,20.116,3.1412e-05,-0.0088218,-1.3777e-08,22981,54.061,0,0,0,0,0.0054576,1
22669,54.222,20.116,3.1412e-05,-0.0088218,-1.3777e-08,22981,54.061,0,0,0,0,0.0054576,1
22670,54.222,20.116,3.1411e-05,-0.0091091,-1.4225e-08,22981,54.061,0,0,0,0,0.0054788,1
22670,54.222,20.116,3.1411e-05,-0.0091091,-1.4225e-08,22981,54.061,0,0,0,0,0.0054788,1
22670,54.222,20.116,3.1411e-05,-0.0091091,-1.4225e-08,22981,54.061,0,0,0,0,0.0054788,1
22670,54.222,20.116,3.1411e-05,-0.0091091,-1.4225e-08,22981,54.061,0,0,0,0,0.0054788,1
22671,54.222,20.115,3.1411e-05,-0.009204,-1.4373e-08,22981,54.061,0,0,0,0,0.0054858,1
22671,54.222,20.115,3.1411e-05,-0.009204,-1.4373e-08,22981,54.061,0,0,0,0,0.0054858,1
22671,54.222,20.115,3.1411e-05,-0.009204,-1.4373e-08,22981,54.061,0,0,0,0,0.0054858,1
22671,54.222,20.115,3.1411e-05,-0.009204,-1.4373e-08,22981,54.061,0,0,0,0,0.0054858,1
22672,54.222,20.115,3.141e-05,-0.0094859,-1.4814e-08,22981,54.061,0,0,0,0,0.0055072,1
22672,54.222,20.115,3.141e-05,-0.0094859,-1.4814e-08,22981,54.061,0,0,0,0,0.0055072,1
22672,54.222,20.115,3.141e-05,-0.0094859,-1.4814e-08,22981,54.061,0,0,0,0,0.0055072,1
22672,54.222,20.115,3.141e-05,-0.0094859,-1.4814e-08,22981,54.061,0,0,0,0,0.0055072,1
22672,54.222,20.115,3.141e-05,-0.0094859,-1.4814e-08,22981,54.061,0,0,0,0,0.0055072,1
22673,54.222,20.114,3.1409e-05,-0.0096716,-1.5104e-08,22981,54.061,0,0,0,0,0.0055216,1
22673,54.222,20.114,3.1409e-05,-0.0096716,-1.5104e-08,22981,54.061,0,0,0,0,0.0055216,1
22673,54.222,20.114,3.1409e-05,-0.0096716,-1.5104e-08,22981,54.061,0,0,0,0,0.0055216,1
22673,54.222,20.114,3.1409e-05,-0.0098555,-1.5391e-08,22981,54.061,0,0,0,0,0.005536,1
22673,54.222,20.114,3.1409e-05,-0.0098555,-1.5391e-08,22981,54.061,0,0,0,0,0.005536,1
22673,54.222,20.114,3.1409e-05,-0.0098555,-1.5391e-08,22981,54.061,0,0,0,0,0.005536,1
22674,54.222,20.114,3.1408e-05,-0.010037,-1.5675e-08,22981,54.061,0,0,0,0,0.0055505,1
22674,54.222,20.114,3.1408e-05,-0.010037,-1.5675e-08,22981,54.061,0,0,0,0,0.0055505,1
22674,54.222,20.114,3.1408e-05,-0.010037,-1.5675e-08,22981,54.061,0,0,0,0,0.0055505,1
22674,54.222,20.114,3.1408e-05,-0.010037,-1.5675e-08,22981,54.061,0,0,0,0,0.0055505,1
22674,54.222,20.114,3.1408e-05,-0.010037,-1.5675e-08,22981,54.061,0,0,0,0,0.0055505,1
22674,54.222,20.114,3.1408e-05,-0.010037,-1.5675e-08,22981,54.061,0,0,0,0,0.0055505,1
22676,54.222,20.113,3.1407e-05,-0.010396,-1.6234e-08,22981,54.061,0,0,0,0,0.0055797,1
22676,54.222,20.113,3.1407e-05,-0.010396,-1.6234e-08,22981,54.061,0,0,0,0,0.0055797,1
22676,54.222,20.113,3.1407e-05,-0.010396,-1.6234e-08,22981,54.061,0,0,0,0,0.0055797,1
22677,54.222,20.112,3.1406e-05,-0.010572,-1.651e-08,22981,54.061,0,0,0,0,0.0055945,1
22677,54.222,20.112,3.1406e-05,-0.010572,-1.651e-08,22981,54.061,0,0,0,0,0.0055945,1
22677,54.222,20.112,3.1406e-05,-0.010572,-1.651e-08,22981,54.061,0,0,0,0,0.0055945,1
22677,54.222,20.112,3.1406e-05,-0.010572,-1.651e-08,22981,54.061,0,0,0,0,0.0055945,1
22677,54.222,20.112,3.1406e-05,-0.010572,-1.651e-08,22981,54.061,0,0,0,0,0.0055945,1
22677,54.222,20.112,3.1406e-05,-0.010572,-1.651e-08,22981,54.061,0,0,0,0,0.0055945,1
22677,54.222,20.112,3.1406e-05,-0.010572,-1.651e-08,22981,54.061,0,0,0,0,0.0055945,1
22677,54.222,20.112,3.1406e-05,-0.010572,-1.651e-08,22981,54.061,0,0,0,0,0.0055945,1
22677,54.222,20.112,3.1406e-05,-0.010572,-1.651e-08,22981,54.061,0,0,0,0,0.0055945,1
22677,54.222,20.112,3.1406e-05,-0.010572,-1.651e-08,22981,54.061,0,0,0,0,0.0055945,1
22677,54.222,20.112,3.1406e-05,-0.010572,-1.651e-08,22981,54.061,0,0,0,0,0.0055945,1
22677,54.222,20.112,3.1406e-05,-0.010572,-1.651e-08,22981,54.061,0,0,0,0,0.0055945,1
22677,54.222,20.112,3.1406e-05,-0.010572,-1.651e-08,22981,54.061,0,0,0,0,0.0055945,1
22677,54.222,20.112,3.1406e-05,-0.010572,-1.651e-08,22981,54.061,0,0,0,0,0.0055945,1
22678,54.222,20.112,3.1405e-05,-0.010842,-1.693e-08,22981,54.061,0,0,0,0,0.0056167,1
22678,54.222,20.112,3.1405e-05,-0.010842,-1.693e-08,22981,54.061,0,0,0,0,0.0056167,1
22678,54.222,20.112,3.1405e-05,-0.010842,-1.693e-08,22981,54.061,0,0,0,0,0.0056167,1
22679,54.222,20.111,3.1404e-05,-0.011107,-1.7344e-08,22981,54.061,0,0,0,0,0.0056391,1
22679,54.222,20.111,3.1404e-05,-0.011107,-1.7344e-08,22981,54.061,0,0,0,0,0.0056391,1
22679,54.222,20.111,3.1404e-05,-0.011107,-1.7344e-08,22981,54.061,0,0,0,0,0.0056391,1
22679,54.222,20.111,3.1404e-05,-0.011107,-1.7344e-08,22981,54.061,0,0,0,0,0.0056391,1
22679,54.222,20.111,3.1404e-05,-0.011107,-1.7344e-08,22981,54.061,0,0,0,0,0.0056391,1
22681,54.222,20.11,3.1403e-05,-0.011454,-1.7885e-08,22981,54.061,0,0,0,0,0.0056693,1
22681,54.222,20.11,3.1403e-05,-0.011454,-1.7885e-08,22981,54.061,0,0,0,0,0.0056693,1
22681,54.222,20.11,3.1403e-05,-0.011454,-1.7885e-08,22981,54.061,0,0,0,0,0.0056693,1
22681,54.222,20.11,3.1403e-05,-0.011454,-1.7885e-08,22981,54.061,0,0,0,0,0.0056693,1
22681,54.222,20.11,3.1403e-05,-0.011454,-1.7885e-08,22981,54.061,0,0,0,0,0.0056693,1
22681,54.222,20.11,3.1403e-05,-0.011454,-1.7885e-08,22981,54.061,0,0,0,0,0.0056693,1
22681,54.222,20.11,3.1403e-05,-0.011454,-1.7885e-08,22981,54.061,0,0,0,0,0.0056693,1
22681,54.222,20.11,3.1403e-05,-0.011454,-1.7885e-08,22981,54.061,0,0,0,0,0.0056693,1
22683,54.222,20.109,3.1401e-05,-0.011882,-1.8553e-08,22981,54.061,0,0,0,0,0.0057074,1
22683,54.222,20.109,3.1401e-05,-0.011882,-1.8553e-08,22981,54.061,0,0,0,0,0.0057074,1
22683,54.222,20.109,3.1401e-05,-0.011882,-1.8553e-08,22981,54.061,0,0,0,0,0.0057074,1
22683,54.222,20.109,3.1401e-05,-0.011882,-1.8553e-08,22981,54.061,0,0,0,0,0.0057074,1
22683,54.222,20.109,3.1401e-05,-0.011882,-1.8553e-08,22981,54.061,0,0,0,0,0.0057074,1
22683,54.222,20.109,3.1401e-05,-0.011882,-1.8553e-08,22981,54.061,0,0,0,0,0.0057074,1
22683,54.222,20.109,3.1401e-05,-0.011882,-1.8553e-08,22981,54.061,0,0,0,0,0.0057074,1
22683,54.222,20.109,3.1401e-05,-0.011882,-1.8553e-08,22981,54.061,0,0,0,0,0.0057074,1
22683,54.222,20.109,3.1401e-05,-0.011882,-1.8553e-08,22981,54.061,0,0,0,0,0.0057074,1
22683,54.222,20.109,3.1401e-05,-0.011882,-1.8553e-08,22981,54.061,0,0,0,0,0.0057074,1
22683,54.222,20.109,3.1401e-05,-0.011882,-1.8553e-08,22981,54.061,0,0,0,0,0.0057074,1
22683,54.222,20.109,3.1401e-05,-0.011882,-1.8553e-08,22981,54.061,0,0,0,0,0.0057074,1
22683,54.222,20.109,3.1401e-05,-0.011882,-1.8553e-08,22981,54.061,0,0,0,0,0.0057074,1
22683,54.222,20.109,3.1401e-05,-0.011882,-1.8553e-08,22981,54.061,0,0,0,0,0.0057074,1
22684,54.222,20.108,3.14e-05,-0.012138,-1.8953e-08,22981,54.061,0,0,0,0,0.0057306,1
22684,54.222,20.108,3.14e-05,-0.012138,-1.8953e-08,22981,54.061,0,0,0,0,0.0057306,1
22684,54.222,20.108,3.14e-05,-0.012138,-1.8953e-08,22981,54.061,0,0,0,0,0.0057306,1
22684,54.222,20.108,3.14e-05,-0.012138,-1.8953e-08,22981,54.061,0,0,0,0,0.0057306,1
22684,54.222,20.108,3.14e-05,-0.012138,-1.8953e-08,22981,54.061,0,0,0,0,0.0057306,1
22686,54.222,20.107,3.1397e-05,-0.012641,-1.9739e-08,22981,54.061,0,0,0,0,0.0057774,1
22686,54.222,20.107,3.1397e-05,-0.012641,-1.9739e-08,22981,54.061,0,0,0,0,0.0057774,1
22686,54.222,20.107,3.1397e-05,-0.012641,-1.9739e-08,22981,54.061,0,0,0,0,0.0057774,1
22686,54.222,20.107,3.1397e-05,-0.012641,-1.9739e-08,22981,54.061,0,0,0,0,0.0057774,1
22686,54.222,20.107,3.1397e-05,-0.012641,-1.9739e-08,22981,54.061,0,0,0,0,0.0057774,1
22686,54.222,20.107,3.1397e-05,-0.012641,-1.9739e-08,22981,54.061,0,0,0,0,0.0057774,1
22686,54.222,20.107,3.1397e-05,-0.012641,-1.9739e-08,22981,54.061,0,0,0,0,0.0057774,1
22686,54.222,20.107,3.1397e-05,-0.012641,-1.9739e-08,22981,54.061,0,0,0,0,0.0057774,1
22686,54.222,20.107,3.1397e-05,-0.012641,-1.9739e-08,22981,54.061,0,0,0,0,0.0057774,1
22686,54.222,20.107,3.1397e-05,-0.012641,-1.9739e-08,22981,54.061,0,0,0,0,0.0057774,1
22686,54.222,20.107,3.1397e-05,-0.012641,-1.9739e-08,22981,54.061,0,0,0,0,0.0057774,1
22686,54.222,20.107,3.1397e-05,-0.012641,-1.9739e-08,22981,54.061,0,0,0,0,0.0057774,1
22686,54.222,20.107,3.1397e-05,-0.012641,-1.9739e-08,22981,54.061,0,0,0,0,0.0057774,1
22686,54.222,20.107,3.1397e-05,-0.012641,-1.9739e-08,22981,54.061,0,0,0,0,0.0057774,1
22686,54.222,20.107,3.1397e-05,-0.012641,-1.9739e-08,22981,54.061,0,0,0,0,0.0057774,1
22686,54.222,20.107,3.1397e-05,-0.012641,-1.9739e-08,22981,54.061,0,0,0,0,0.0057774,1
22686,54.222,20.107,3.1397e-05,-0.012641,-1.9739e-08,22981,54.061,0,0,0,0,0.0057774,1
22686,54.222,20.107,3.1397e-05,-0.012641,-1.9739e-08,22981,54.061,0,0,0,0,0.0057774,1
22686,54.222,20.107,3.1397e-05,-0.012641,-1.9739e-08,22981,54.061,0,0,0,0,0.0057774,1
22686,54.222,20.107,3.1397e-05,-0.012641,-1.9739e-08,22981,54.061,0,0,0,0,0.0057774,1
22688,54.222,20.106,3.1395e-05,-0.013057,-2.0387e-08,22981,54.061,0,0,0,0,0.0058171,1
22688,54.222,20.106,3.1395e-05,-0.013057,-2.0387e-08,22981,54.061,0,0,0,0,0.0058171,1
22688,54.222,20.106,3.1395e-05,-0.013057,-2.0387e-08,22981,54.061,0,0,0,0,0.0058171,1
22688,54.222,20.106,3.1395e-05,-0.013057,-2.0387e-08,22981,54.061,0,0,0,0,0.0058171,1
22689,54.222,20.105,3.1394e-05,-0.013305,-2.0775e-08,22981,54.061,0,0,0,0,0.0058411,1
22689,54.222,20.105,3.1394e-05,-0.013305,-2.0775e-08,22981,54.061,0,0,0,0,0.0058411,1
22691,54.222,20.104,3.1393e-05,-0.013552,-2.116e-08,22981,54.061,0,0,0,0,0.0058654,1
22691,54.222,20.104,3.1393e-05,-0.013552,-2.116e-08,22981,54.061,0,0,0,0,0.0058654,1
22691,54.222,20.104,3.1393e-05,-0.013552,-2.116e-08,22981,54.061,0,0,0,0,0.0058654,1
22691,54.222,20.104,3.1393e-05,-0.013552,-2.116e-08,22981,54.061,0,0,0,0,0.0058654,1
22691,54.222,20.104,3.1393e-05,-0.013552,-2.116e-08,22981,54.061,0,0,0,0,0.0058654,1
22691,54.222,20.104,3.1393e-05,-0.013552,-2.116e-08,22981,54.061,0,0,0,0,0.0058654,1
22691,54.222,20.104,3.1393e-05,-0.013552,-2.116e-08,22981,54.061,0,0,0,0,0.0058654,1
22691,54.222,20.104,3.1393e-05,-0.013552,-2.116e-08,22981,54.061,0,0,0,0,0.0058654,1
22691,54.222,20.104,3.1393e-05,-0.013552,-2.116e-08,22981,54.061,0,0,0,0,0.0058654,1
22691,54.222,20.104,3.1393e-05,-0.013552,-2.116e-08,22981,54.061,0,0,0,0,0.0058654,1
22691,54.222,20.104,3.1393e-05,-0.013552,-2.116e-08,22981,54.061,0,0,0,0,0.0058654,1
22691,54.222,20.104,3.1393e-05,-0.013552,-2.116e-08,22981,54.061,0,0,0,0,0.0058654,1
22693,54.222,20.102,3.139e-05,-0.01412,-2.2048e-08,22981,54.061,0,0,0,0,0.0059227,1
22693,54.222,20.102,3.139e-05,-0.01412,-2.2048e-08,22981,54.061,0,0,0,0,0.0059227,1
22693,54.222,20.102,3.139e-05,-0.01412,-2.2048e-08,22981,54.061,0,0,0,0,0.0059227,1
22693,54.222,20.102,3.139e-05,-0.01412,-2.2048e-08,22981,54.061,0,0,0,0,0.0059227,1
22693,54.222,20.102,3.139e-05,-0.01412,-2.2048e-08,22981,54.061,0,0,0,0,0.0059227,1
22693,54.222,20.102,3.139e-05,-0.01412,-2.2048e-08,22981,54.061,0,0,0,0,0.0059227,1
22693,54.222,20.102,3.139e-05,-0.01412,-2.2048e-08,22981,54.061,0,0,0,0,0.0059227,1
22693,54.222,20.102,3.139e-05,-0.01412,-2.2048e-08,22981,54.061,0,0,0,0,0.0059227,1
22693,54.222,20.102,3.139e-05,-0.01412,-2.2048e-08,22981,54.061,0,0,0,0,0.0059227,1
22693,54.222,20.102,3.139e-05,-0.01412,-2.2048e-08,22981,54.061,0,0,0,0,0.0059227,1
22693,54.222,20.102,3.139e-05,-0.01412,-2.2048e-08,22981,54.061,0,0,0,0,0.0059227,1
22695,54.222,20.101,3.1388e-05,-0.014362,-2.2426e-08,22981,54.061,0,0,0,0,0.0059476,1
22695,54.222,20.101,3.1388e-05,-0.014362,-2.2426e-08,22981,54.061,0,0,0,0,0.0059476,1
22695,54.222,20.101,3.1388e-05,-0.014362,-2.2426e-08,22981,54.061,0,0,0,0,0.0059476,1
22696,54.222,20.1,3.1387e-05,-0.014685,-2.2929e-08,22981,54.061,0,0,0,0,0.0059812,1
22696,54.222,20.1,3.1387e-05,-0.014685,-2.2929e-08,22981,54.061,0,0,0,0,0.0059812,1
22696,54.222,20.1,3.1387e-05,-0.014685,-2.2929e-08,22981,54.061,0,0,0,0,0.0059812,1
22697,54.222,20.099,3.1385e-05,-0.014923,-2.3302e-08,22981,54.061,0,0,0,0,0.0060066,1
22697,54.222,20.099,3.1385e-05,-0.014923,-2.3302e-08,22981,54.061,0,0,0,0,0.0060066,1
22697,54.222,20.099,3.1385e-05,-0.014923,-2.3302e-08,22981,54.061,0,0,0,0,0.0060066,1
22697,54.222,20.099,3.1385e-05,-0.014923,-2.3302e-08,22981,54.061,0,0,0,0,0.0060066,1
22697,54.222,20.099,3.1385e-05,-0.014923,-2.3302e-08,22981,54.061,0,0,0,0,0.0060066,1
22697,54.222,20.099,3.1385e-05,-0.014923,-2.3302e-08,22981,54.061,0,0,0,0,0.0060066,1
22697,54.222,20.099,3.1385e-05,-0.014923,-2.3302e-08,22981,54.061,0,0,0,0,0.0060066,1
22697,54.222,20.099,3.1385e-05,-0.014923,-2.3302e-08,22981,54.061,0,0,0,0,0.0060066,1
22697,54.222,20.099,3.1385e-05,-0.014923,-2.3302e-08,22981,54.061,0,0,0,0,0.0060066,1
22697,54.222,20.099,3.1385e-05,-0.014923,-2.3302e-08,22981,54.061,0,0,0,0,0.0060066,1
22697,54.222,20.099,3.1385e-05,-0.014923,-2.3302e-08,22981,54.061,0,0,0,0,0.0060066,1
22697,54.222,20.099,3.1385e-05,-0.014923,-2.3302e-08,22981,54.061,0,0,0,0,0.0060066,1
22697,54.222,20.099,3.1385e-05,-0.014923,-2.3302e-08,22981,54.061,0,0,0,0,0.0060066,1
22698,54.222,20.099,3.1384e-05,-0.015084,-2.3552e-08,22981,54.061,0,0,0,0,0.0060236,1
22699,54.222,20.098,3.1384e-05,-0.015163,-2.3676e-08,22981,54.061,0,0,0,0,0.0060322,1
22699,54.222,20.098,3.1384e-05,-0.015163,-2.3676e-08,22981,54.061,0,0,0,0,0.0060322,1
22699,54.222,20.098,3.1383e-05,-0.01532,-2.3921e-08,22981,54.061,0,0,0,0,0.0060494,1
22699,54.222,20.098,3.1383e-05,-0.01532,-2.3921e-08,22981,54.061,0,0,0,0,0.0060494,1
22701,54.222,20.096,3.1381e-05,-0.015638,-2.4418e-08,22981,54.061,0,0,0,0,0.0060841,1
22701,54.222,20.096,3.1381e-05,-0.015638,-2.4418e-08,22981,54.061,0,0,0,0,0.0060841,1
22701,54.222,20.096,3.1381e-05,-0.015638,-2.4418e-08,22981,54.061,0,0,0,0,0.0060841,1
22701,54.222,20.096,3.1381e-05,-0.015638,-2.4418e-08,22981,54.061,0,0,0,0,0.0060841,1
22701,54.222,20.096,3.1381e-05,-0.015638,-2.4418e-08,22981,54.061,0,0,0,0,0.0060841,1
22701,54.222,20.096,3.1381e-05,-0.015638,-2.4418e-08,22981,54.061,0,0,0,0,0.0060841,1
22701,54.222,20.096,3.1381e-05,-0.015638,-2.4418e-08,22981,54.061,0,0,0,0,0.0060841,1
22701,54.222,20.096,3.138e-05,-0.015716,-2.454e-08,22981,54.061,0,0,0,0,0.0060929,1
22701,54.222,20.096,3.138e-05,-0.015716,-2.454e-08,22981,54.061,0,0,0,0,0.0060929,1
22701,54.222,20.096,3.138e-05,-0.015716,-2.454e-08,22981,54.061,0,0,0,0,0.0060929,1
22701,54.222,20.096,3.138e-05,-0.015716,-2.454e-08,22981,54.061,0,0,0,0,0.0060929,1
22701,54.222,20.096,3.138e-05,-0.015716,-2.454e-08,22981,54.061,0,0,0,0,0.0060929,1
22702,54.222,20.096,3.138e-05,-0.015794,-2.4662e-08,22981,54.061,0,0,0,0,0.0061016,1
22702,54.222,20.096,3.138e-05,-0.015794,-2.4662e-08,22981,54.061,0,0,0,0,0.0061016,1
22702,54.222,20.095,3.1379e-05,-0.015874,-2.4786e-08,22981,54.061,0,0,0,0,0.0061104,1
22704,54.222,20.094,3.1378e-05,-0.01611,-2.5155e-08,22981,54.061,0,0,0,0,0.0061369,1
22704,54.222,20.094,3.1378e-05,-0.01611,-2.5155e-08,22981,54.061,0,0,0,0,0.0061369,1
22704,54.222,20.094,3.1378e-05,-0.01611,-2.5155e-08,22981,54.061,0,0,0,0,0.0061369,1
22704,54.222,20.094,3.1377e-05,-0.016264,-2.5396e-08,22981,54.061,0,0,0,0,0.0061547,1
22704,54.222,20.094,3.1377e-05,-0.016264,-2.5396e-08,22981,54.061,0,0,0,0,0.0061547,1
22704,54.222,20.094,3.1377e-05,-0.016264,-2.5396e-08,22981,54.061,0,0,0,0,0.0061547,1
22704,54.222,20.094,3.1377e-05,-0.016264,-2.5396e-08,22981,54.061,0,0,0,0,0.0061547,1
22704,54.222,20.094,3.1377e-05,-0.016264,-2.5396e-08,22981,54.061,0,0,0,0,0.0061547,1
22704,54.222,20.094,3.1377e-05,-0.016264,-2.5396e-08,22981,54.061,0,0,0,0,0.0061547,1
22704,54.222,20.094,3.1377e-05,-0.016264,-2.5396e-08,22981,54.061,0,0,0,0,0.0061547,1
22704,54.222,20.094,3.1377e-05,-0.016264,-2.5396e-08,22981,54.061,0,0,0,0,0.0061547,1
22704,54.222,20.094,3.1377e-05,-0.016264,-2.5396e-08,22981,54.061,0,0,0,0,0.0061547,1
22704,54.222,20.094,3.1377e-05,-0.016264,-2.5396e-08,22981,54.061,0,0,0,0,0.0061547,1
22706,54.222,20.092,3.1375e-05,-0.016577,-2.5885e-08,22981,54.061,0,0,0,0,0.0061907,1
22706,54.222,20.092,3.1374e-05,-0.016654,-2.6005e-08,22981,54.061,0,0,0,0,0.0061997,1
22707,54.222,20.092,3.1374e-05,-0.016733,-2.6129e-08,22981,54.061,0,0,0,0,0.0062088,1
22707,54.222,20.092,3.1374e-05,-0.016733,-2.6129e-08,22981,54.061,0,0,0,0,0.0062088,1
22707,54.222,20.092,3.1374e-05,-0.016733,-2.6129e-08,22981,54.061,0,0,0,0,0.0062088,1
22707,54.222,20.092,3.1374e-05,-0.016733,-2.6129e-08,22981,54.061,0,0,0,0,0.0062088,1
22707,54.222,20.091,3.1373e-05,-0.016811,-2.6251e-08,22981,54.061,0,0,0,0,0.0062179,1
22708,54.222,20.091,3.1372e-05,-0.016967,-2.6493e-08,22981,54.061,0,0,0,0,0.0062362,1
22708,54.222,20.091,3.1372e-05,-0.016967,-2.6493e-08,22981,54.061,0,0,0,0,0.0062362,1
22708,54.222,20.091,3.1372e-05,-0.016967,-2.6493e-08,22981,54.061,0,0,0,0,0.0062362,1
22708,54.222,20.091,3.1372e-05,-0.016967,-2.6493e-08,22981,54.061,0,0,0,0,0.0062362,1
22708,54.222,20.091,3.1372e-05,-0.016967,-2.6493e-08,22981,54.061,0,0,0,0,0.0062362,1
22708,54.222,20.091,3.1372e-05,-0.016967,-2.6493e-08,22981,54.061,0,0,0,0,0.0062362,1
22708,54.222,20.091,3.1372e-05,-0.016967,-2.6493e-08,22981,54.061,0,0,0,0,0.0062362,1
22708,54.222,20.091,3.1372e-05,-0.016967,-2.6493e-08,22981,54.061,0,0,0,0,0.0062362,1
22708,54.222,20.09,3.1372e-05,-0.017043,-2.6613e-08,22981,54.061,0,0,0,0,0.0062453,1
22708,54.222,20.09,3.1372e-05,-0.017043,-2.6613e-08,22981,54.061,0,0,0,0,0.0062453,1
22708,54.222,20.09,3.1372e-05,-0.017043,-2.6613e-08,22981,54.061,0,0,0,0,0.0062453,1
22709,54.222,20.09,3.1371e-05,-0.017198,-2.6854e-08,22981,54.061,0,0,0,0,0.0062638,1
22709,54.222,20.09,3.1371e-05,-0.017198,-2.6854e-08,22981,54.061,0,0,0,0,0.0062638,1
22709,54.222,20.09,3.1371e-05,-0.017198,-2.6854e-08,22981,54.061,0,0,0,0,0.0062638,1
22709,54.222,20.09,3.1371e-05,-0.017198,-2.6854e-08,22981,54.061,0,0,0,0,0.0062638,1
22709,54.222,20.09,3.1371e-05,-0.017198,-2.6854e-08,22981,54.061,0,0,0,0,0.0062638,1
22710,54.222,20.089,3.137e-05,-0.017275,-2.6976e-08,22981,54.061,0,0,0,0,0.006273,1
22711,54.222,20.088,3.1368e-05,-0.017505,-2.7334e-08,22981,54.061,0,0,0,0,0.006301,1
22711,54.222,20.088,3.1368e-05,-0.017583,-2.7456e-08,22981,54.061,0,0,0,0,0.0063103,1
22711,54.222,20.088,3.1368e-05,-0.017583,-2.7456e-08,22981,54.061,0,0,0,0,0.0063103,1
22712,54.222,20.087,3.1366e-05,-0.017813,-2.7816e-08,22981,54.061,0,0,0,0,0.0063386,1
22712,54.222,20.087,3.1366e-05,-0.017813,-2.7816e-08,22981,54.061,0,0,0,0,0.0063386,1
22712,54.222,20.087,3.1366e-05,-0.017813,-2.7816e-08,22981,54.061,0,0,0,0,0.0063386,1
22712,54.222,20.087,3.1366e-05,-0.017813,-2.7816e-08,22981,54.061,0,0,0,0,0.0063386,1
22712,54.222,20.087,3.1366e-05,-0.017813,-2.7816e-08,22981,54.061,0,0,0,0,0.0063386,1
22712,54.222,20.087,3.1366e-05,-0.017813,-2.7816e-08,22981,54.061,0,0,0,0,0.0063386,1
22712,54.222,20.087,3.1366e-05,-0.017813,-2.7816e-08,22981,54.061,0,0,0,0,0.0063386,1
22712,54.222,20.087,3.1366e-05,-0.017813,-2.7816e-08,22981,54.061,0,0,0,0,0.0063386,1
22712,54.222,20.087,3.1366e-05,-0.017813,-2.7816e-08,22981,54.061,0,0,0,0,0.0063386,1
22712,54.222,20.087,3.1366e-05,-0.017813,-2.7816e-08,22981,54.061,0,0,0,0,0.0063386,1
22712,54.222,20.087,3.1366e-05,-0.017813,-2.7816e-08,22981,54.061,0,0,0,0,0.0063386,1
22712,54.222,20.087,3.1366e-05,-0.017813,-2.7816e-08,22981,54.061,0,0,0,0,0.0063386,1
22712,54.222,20.087,3.1366e-05,-0.017813,-2.7816e-08,22981,54.061,0,0,0,0,0.0063386,1
22712,54.222,20.087,3.1366e-05,-0.017813,-2.7816e-08,22981,54.061,0,0,0,0,0.0063386,1
22712,54.222,20.087,3.1366e-05,-0.017813,-2.7816e-08,22981,54.061,0,0,0,0,0.0063386,1
22712,54.222,20.087,3.1366e-05,-0.017813,-2.7816e-08,22981,54.061,0,0,0,0,0.0063386,1
22712,54.222,20.087,3.1366e-05,-0.017813,-2.7816e-08,22981,54.061,0,0,0,0,0.0063386,1
22712,54.222,20.087,3.1366e-05,-0.017813,-2.7816e-08,22981,54.061,0,0,0,0,0.0063386,1
22712,54.222,20.087,3.1366e-05,-0.017813,-2.7816e-08,22981,54.061,0,0,0,0,0.0063386,1
22715,54.222,20.085,3.1363e-05,-0.018271,-2.8531e-08,22981,54.061,0,0,0,0,0.0063959,1
22715,54.222,20.084,3.1362e-05,-0.018348,-2.8652e-08,22981,54.061,0,0,0,0,0.0064056,1
22715,54.222,20.084,3.1362e-05,-0.018348,-2.8652e-08,22981,54.061,0,0,0,0,0.0064056,1
22715,54.222,20.084,3.1362e-05,-0.018348,-2.8652e-08,22981,54.061,0,0,0,0,0.0064056,1
22715,54.222,20.084,3.1362e-05,-0.018348,-2.8652e-08,22981,54.061,0,0,0,0,0.0064056,1
22716,54.222,20.084,3.1361e-05,-0.018501,-2.8891e-08,22981,54.061,0,0,0,0,0.006425,1
22717,54.222,20.083,3.136e-05,-0.018652,-2.9126e-08,22981,54.061,0,0,0,0,0.0064445,1
22717,54.222,20.083,3.136e-05,-0.018652,-2.9126e-08,22981,54.061,0,0,0,0,0.0064445,1
22717,54.222,20.083,3.136e-05,-0.018652,-2.9126e-08,22981,54.061,0,0,0,0,0.0064445,1
22717,54.222,20.083,3.136e-05,-0.018652,-2.9126e-08,22981,54.061,0,0,0,0,0.0064445,1
22717,54.222,20.083,3.136e-05,-0.018652,-2.9126e-08,22981,54.061,0,0,0,0,0.0064445,1
22717,54.222,20.083,3.136e-05,-0.018652,-2.9126e-08,22981,54.061,0,0,0,0,0.0064445,1
22717,54.222,20.083,3.136e-05,-0.018652,-2.9126e-08,22981,54.061,0,0,0,0,0.0064445,1
22717,54.222,20.083,3.136e-05,-0.018652,-2.9126e-08,22981,54.061,0,0,0,0,0.0064445,1
22717,54.222,20.083,3.136e-05,-0.018652,-2.9126e-08,22981,54.061,0,0,0,0,0.0064445,1
22717,54.222,20.083,3.136e-05,-0.018652,-2.9126e-08,22981,54.061,0,0,0,0,0.0064445,1
22717,54.222,20.083,3.136e-05,-0.018652,-2.9126e-08,22981,54.061,0,0,0,0,0.0064445,1
22717,54.222,20.083,3.136e-05,-0.018652,-2.9126e-08,22981,54.061,0,0,0,0,0.0064445,1
22717,54.222,20.083,3.136e-05,-0.018652,-2.9126e-08,22981,54.061,0,0,0,0,0.0064445,1
22718,54.222,20.081,3.1358e-05,-0.018956,-2.9602e-08,22981,54.061,0,0,0,0,0.0064839,1
22718,54.222,20.081,3.1358e-05,-0.018956,-2.9602e-08,22981,54.061,0,0,0,0,0.0064839,1
22718,54.222,20.081,3.1358e-05,-0.018956,-2.9602e-08,22981,54.061,0,0,0,0,0.0064839,1
22718,54.222,20.081,3.1358e-05,-0.018956,-2.9602e-08,22981,54.061,0,0,0,0,0.0064839,1
22718,54.222,20.081,3.1358e-05,-0.018956,-2.9602e-08,22981,54.061,0,0,0,0,0.0064839,1
22718,54.222,20.081,3.1358e-05,-0.018956,-2.9602e-08,22981,54.061,0,0,0,0,0.0064839,1
22718,54.222,20.081,3.1358e-05,-0.018956,-2.9602e-08,22981,54.061,0,0,0,0,0.0064839,1
22718,54.222,20.081,3.1358e-05,-0.018956,-2.9602e-08,22981,54.061,0,0,0,0,0.0064839,1
22719,54.222,20.081,3.1357e-05,-0.019031,-2.9718e-08,22981,54.061,0,0,0,0,0.0064938,1
22720,54.222,20.08,3.1356e-05,-0.019183,-2.9956e-08,22981,54.061,0,0,0,0,0.0065137,1
22720,54.222,20.08,3.1356e-05,-0.019183,-2.9956e-08,22981,54.061,0,0,0,0,0.0065137,1
22722,54.222,20.078,3.1352e-05,-0.019708,-3.0776e-08,22981,54.061,0,0,0,0,0.0065844,1
22722,54.222,20.078,3.1352e-05,-0.019708,-3.0776e-08,22981,54.061,0,0,0,0,0.0065844,1
22722,54.222,20.078,3.1352e-05,-0.019708,-3.0776e-08,22981,54.061,0,0,0,0,0.0065844,1
22722,54.222,20.078,3.1352e-05,-0.019708,-3.0776e-08,22981,54.061,0,0,0,0,0.0065844,1
22722,54.222,20.078,3.1352e-05,-0.019708,-3.0776e-08,22981,54.061,0,0,0,0,0.0065844,1
22722,54.222,20.078,3.1352e-05,-0.019708,-3.0776e-08,22981,54.061,0,0,0,0,0.0065844,1
22722,54.222,20.078,3.1352e-05,-0.019708,-3.0776e-08,22981,54.061,0,0,0,0,0.0065844,1
22722,54.222,20.078,3.1352e-05,-0.019708,-3.0776e-08,22981,54.061,0,0,0,0,0.0065844,1
22722,54.222,20.078,3.1352e-05,-0.019708,-3.0776e-08,22981,54.061,0,0,0,0,0.0065844,1
22722,54.222,20.078,3.1352e-05,-0.019708,-3.0776e-08,22981,54.061,0,0,0,0,0.0065844,1
22722,54.222,20.078,3.1352e-05,-0.019708,-3.0776e-08,22981,54.061,0,0,0,0,0.0065844,1
22722,54.222,20.078,3.1352e-05,-0.019708,-3.0776e-08,22981,54.061,0,0,0,0,0.0065844,1
22722,54.222,20.078,3.1352e-05,-0.019708,-3.0776e-08,22981,54.061,0,0,0,0,0.0065844,1
22722,54.222,20.078,3.1352e-05,-0.019708,-3.0776e-08,22981,54.061,0,0,0,0,0.0065844,1
22722,54.222,20.078,3.1352e-05,-0.019708,-3.0776e-08,22981,54.061,0,0,0,0,0.0065844,1
22722,54.222,20.078,3.1352e-05,-0.019708,-3.0776e-08,22981,54.061,0,0,0,0,0.0065844,1
22722,54.222,20.078,3.1352e-05,-0.019708,-3.0776e-08,22981,54.061,0,0,0,0,0.0065844,1
22722,54.222,20.078,3.1352e-05,-0.019708,-3.0776e-08,22981,54.061,0,0,0,0,0.0065844,1
22722,54.222,20.078,3.1352e-05,-0.019708,-3.0776e-08,22981,54.061,0,0,0,0,0.0065844,1
22723,54.222,20.077,3.135e-05,-0.01986,-3.1014e-08,22981,54.061,0,0,0,0,0.0066049,1
22723,54.222,20.077,3.135e-05,-0.01986,-3.1014e-08,22981,54.061,0,0,0,0,0.0066049,1
22723,54.222,20.077,3.135e-05,-0.01986,-3.1014e-08,22981,54.061,0,0,0,0,0.0066049,1
22723,54.222,20.077,3.135e-05,-0.01986,-3.1014e-08,22981,54.061,0,0,0,0,0.0066049,1
22724,54.222,20.076,3.1349e-05,-0.02001,-3.1247e-08,22981,54.061,0,0,0,0,0.0066255,1
22724,54.222,20.076,3.1349e-05,-0.02001,-3.1247e-08,22981,54.061,0,0,0,0,0.0066255,1
22724,54.222,20.076,3.1349e-05,-0.02001,-3.1247e-08,22981,54.061,0,0,0,0,0.0066255,1
22724,54.222,20.076,3.1349e-05,-0.02001,-3.1247e-08,22981,54.061,0,0,0,0,0.0066255,1
22724,54.222,20.076,3.1349e-05,-0.02001,-3.1247e-08,22981,54.061,0,0,0,0,0.0066255,1
22724,54.222,20.076,3.1349e-05,-0.02001,-3.1247e-08,22981,54.061,0,0,0,0,0.0066255,1
22724,54.222,20.076,3.1349e-05,-0.02001,-3.1247e-08,22981,54.061,0,0,0,0,0.0066255,1
22724,54.222,20.076,3.1349e-05,-0.02001,-3.1247e-08,22981,54.061,0,0,0,0,0.0066255,1
22727,54.222,20.073,3.1344e-05,-0.020605,-3.2177e-08,22981,54.061,0,0,0,0,0.0067092,1
22727,54.222,20.073,3.1344e-05,-0.020605,-3.2177e-08,22981,54.061,0,0,0,0,0.0067092,1
22727,54.222,20.073,3.1344e-05,-0.020605,-3.2177e-08,22981,54.061,0,0,0,0,0.0067092,1
22727,54.222,20.073,3.1344e-05,-0.020605,-3.2177e-08,22981,54.061,0,0,0,0,0.0067092,1
22728,54.222,20.072,3.1343e-05,-0.020753,-3.2407e-08,22981,54.061,0,0,0,0,0.0067305,1
22729,54.222,20.071,3.1341e-05,-0.020902,-3.264e-08,22981,54.061,0,0,0,0,0.0067519,1
22729,54.222,20.071,3.1341e-05,-0.020902,-3.264e-08,22981,54.061,0,0,0,0,0.0067519,1
22729,54.222,20.071,3.1341e-05,-0.020902,-3.264e-08,22981,54.061,0,0,0,0,0.0067519,1
22730,54.222,20.07,3.134e-05,-0.021049,-3.287e-08,22981,54.061,0,0,0,0,0.0067734,1
22730,54.222,20.07,3.1339e-05,-0.021122,-3.2983e-08,22981,54.061,0,0,0,0,0.0067843,1
22730,54.222,20.07,3.1339e-05,-0.021122,-3.2983e-08,22981,54.061,0,0,0,0,0.0067843,1
22730,54.222,20.07,3.1339e-05,-0.021122,-3.2983e-08,22981,54.061,0,0,0,0,0.0067843,1
22730,54.222,20.07,3.1339e-05,-0.021122,-3.2983e-08,22981,54.061,0,0,0,0,0.0067843,1
22730,54.222,20.07,3.1339e-05,-0.021122,-3.2983e-08,22981,54.061,0,0,0,0,0.0067843,1
22730,54.222,20.07,3.1339e-05,-0.021122,-3.2983e-08,22981,54.061,0,0,0,0,0.0067843,1
22730,54.222,20.07,3.1339e-05,-0.021122,-3.2983e-08,22981,54.061,0,0,0,0,0.0067843,1
22730,54.222,20.07,3.1339e-05,-0.021122,-3.2983e-08,22981,54.061,0,0,0,0,0.0067843,1
22730,54.222,20.069,3.1339e-05,-0.021196,-3.3099e-08,22981,54.061,0,0,0,0,0.0067951,1
22730,54.222,20.069,3.1339e-05,-0.021196,-3.3099e-08,22981,54.061,0,0,0,0,0.0067951,1
22730,54.222,20.069,3.1339e-05,-0.021196,-3.3099e-08,22981,54.061,0,0,0,0,0.0067951,1
22730,54.222,20.069,3.1339e-05,-0.021196,-3.3099e-08,22981,54.061,0,0,0,0,0.0067951,1
22730,54.222,20.069,3.1339e-05,-0.021196,-3.3099e-08,22981,54.061,0,0,0,0,0.0067951,1
22730,54.222,20.069,3.1339e-05,-0.021196,-3.3099e-08,22981,54.061,0,0,0,0,0.0067951,1
22730,54.222,20.069,3.1339e-05,-0.021196,-3.3099e-08,22981,54.061,0,0,0,0,0.0067951,1
22730,54.222,20.069,3.1339e-05,-0.021196,-3.3099e-08,22981,54.061,0,0,0,0,0.0067951,1
22731,54.222,20.069,3.1338e-05,-0.021343,-3.3329e-08,22981,54.061,0,0,0,0,0.0068169,1
22732,54.222,20.067,3.1336e-05,-0.021564,-3.3674e-08,22981,54.061,0,0,0,0,0.0068499,1
22732,54.222,20.067,3.1336e-05,-0.021564,-3.3674e-08,22981,54.061,0,0,0,0,0.0068499,1
22732,54.222,20.067,3.1336e-05,-0.021564,-3.3674e-08,22981,54.061,0,0,0,0,0.0068499,1
22732,54.222,20.067,3.1336e-05,-0.021564,-3.3674e-08,22981,54.061,0,0,0,0,0.0068499,1
22734,54.222,20.066,3.1333e-05,-0.021855,-3.4128e-08,22981,54.061,0,0,0,0,0.0068944,1
22734,54.222,20.066,3.1333e-05,-0.021855,-3.4128e-08,22981,54.061,0,0,0,0,0.0068944,1
22734,54.222,20.066,3.1333e-05,-0.021855,-3.4128e-08,22981,54.061,0,0,0,0,0.0068944,1
22734,54.222,20.066,3.1333e-05,-0.021855,-3.4128e-08,22981,54.061,0,0,0,0,0.0068944,1
22734,54.222,20.066,3.1333e-05,-0.021855,-3.4128e-08,22981,54.061,0,0,0,0,0.0068944,1
22734,54.222,20.066,3.1333e-05,-0.021855,-3.4128e-08,22981,54.061,0,0,0,0,0.0068944,1
22734,54.222,20.066,3.1333e-05,-0.021855,-3.4128e-08,22981,54.061,0,0,0,0,0.0068944,1
22734,54.222,20.066,3.1333e-05,-0.021855,-3.4128e-08,22981,54.061,0,0,0,0,0.0068944,1
22734,54.222,20.066,3.1333e-05,-0.021855,-3.4128e-08,22981,54.061,0,0,0,0,0.0068944,1
22734,54.222,20.066,3.1333e-05,-0.021855,-3.4128e-08,22981,54.061,0,0,0,0,0.0068944,1
22734,54.222,20.066,3.1333e-05,-0.021855,-3.4128e-08,22981,54.061,0,0,0,0,0.0068944,1
22735,54.222,20.064,3.1331e-05,-0.022072,-3.4466e-08,22981,54.061,0,0,0,0,0.0069281,1
22735,54.222,20.064,3.1331e-05,-0.022072,-3.4466e-08,22981,54.061,0,0,0,0,0.0069281,1
22735,54.222,20.064,3.1331e-05,-0.022072,-3.4466e-08,22981,54.061,0,0,0,0,0.0069281,1
22735,54.222,20.064,3.1331e-05,-0.022072,-3.4466e-08,22981,54.061,0,0,0,0,0.0069281,1
22736,54.222,20.063,3.1329e-05,-0.022291,-3.4808e-08,22981,54.061,0,0,0,0,0.0069621,1
22736,54.222,20.063,3.1329e-05,-0.022291,-3.4808e-08,22981,54.061,0,0,0,0,0.0069621,1
22737,54.222,20.062,3.1327e-05,-0.022436,-3.5034e-08,22981,54.061,0,0,0,0,0.006985,1
22738,54.222,20.062,3.1327e-05,-0.022509,-3.5148e-08,22981,54.061,0,0,0,0,0.0069965,1
22738,54.222,20.062,3.1327e-05,-0.022509,-3.5148e-08,22981,54.061,0,0,0,0,0.0069965,1
22738,54.222,20.062,3.1327e-05,-0.022509,-3.5148e-08,22981,54.061,0,0,0,0,0.0069965,1
22738,54.222,20.062,3.1327e-05,-0.022509,-3.5148e-08,22981,54.061,0,0,0,0,0.0069965,1
22738,54.222,20.061,3.1325e-05,-0.022652,-3.5371e-08,22981,54.061,0,0,0,0,0.0070196,1
22738,54.222,20.061,3.1325e-05,-0.022652,-3.5371e-08,22981,54.061,0,0,0,0,0.0070196,1
22738,54.222,20.061,3.1325e-05,-0.022652,-3.5371e-08,22981,54.061,0,0,0,0,0.0070196,1
22738,54.222,20.061,3.1325e-05,-0.022652,-3.5371e-08,22981,54.061,0,0,0,0,0.0070196,1
22739,54.222,20.06,3.1324e-05,-0.022725,-3.5486e-08,22981,54.061,0,0,0,0,0.0070313,1
22739,54.222,20.06,3.1324e-05,-0.022725,-3.5486e-08,22981,54.061,0,0,0,0,0.0070313,1
22739,54.222,20.06,3.1324e-05,-0.022798,-3.5599e-08,22981,54.061,0,0,0,0,0.0070429,1
22739,54.222,20.06,3.1324e-05,-0.022798,-3.5599e-08,22981,54.061,0,0,0,0,0.0070429,1
22739,54.222,20.06,3.1324e-05,-0.022798,-3.5599e-08,22981,54.061,0,0,0,0,0.0070429,1
22739,54.222,20.06,3.1324e-05,-0.022798,-3.5599e-08,22981,54.061,0,0,0,0,0.0070429,1
22739,54.222,20.06,3.1324e-05,-0.022798,-3.5599e-08,22981,54.061,0,0,0,0,0.0070429,1
22740,54.222,20.058,3.1322e-05,-0.023014,-3.5936e-08,22981,54.061,0,0,0,0,0.0070781,1
22740,54.222,20.058,3.1322e-05,-0.023014,-3.5936e-08,22981,54.061,0,0,0,0,0.0070781,1
22740,54.222,20.058,3.1322e-05,-0.023014,-3.5936e-08,22981,54.061,0,0,0,0,0.0070781,1
22740,54.222,20.058,3.1322e-05,-0.023014,-3.5936e-08,22981,54.061,0,0,0,0,0.0070781,1
22740,54.222,20.058,3.1322e-05,-0.023014,-3.5936e-08,22981,54.061,0,0,0,0,0.0070781,1
22741,54.222,20.058,3.1321e-05,-0.023086,-3.6049e-08,22981,54.061,0,0,0,0,0.0070899,1
22741,54.222,20.058,3.1321e-05,-0.023086,-3.6049e-08,22981,54.061,0,0,0,0,0.0070899,1
22741,54.222,20.058,3.1321e-05,-0.023086,-3.6049e-08,22981,54.061,0,0,0,0,0.0070899,1
22741,54.222,20.058,3.1321e-05,-0.023086,-3.6049e-08,22981,54.061,0,0,0,0,0.0070899,1
22741,54.222,20.058,3.1321e-05,-0.023086,-3.6049e-08,22981,54.061,0,0,0,0,0.0070899,1
22741,54.222,20.058,3.1321e-05,-0.023086,-3.6049e-08,22981,54.061,0,0,0,0,0.0070899,1
22741,54.222,20.058,3.1321e-05,-0.023086,-3.6049e-08,22981,54.061,0,0,0,0,0.0070899,1
22741,54.222,20.058,3.1321e-05,-0.023086,-3.6049e-08,22981,54.061,0,0,0,0,0.0070899,1
22742,54.222,20.057,3.1319e-05,-0.023229,-3.6272e-08,22981,54.061,0,0,0,0,0.0071136,1
22743,54.222,20.056,3.1317e-05,-0.023445,-3.6609e-08,22981,54.061,0,0,0,0,0.0071495,1
22743,54.222,20.056,3.1317e-05,-0.023445,-3.6609e-08,22981,54.061,0,0,0,0,0.0071495,1
22744,54.222,20.054,3.1315e-05,-0.02366,-3.6945e-08,22981,54.061,0,0,0,0,0.0071858,1
22744,54.222,20.054,3.1315e-05,-0.02366,-3.6945e-08,22981,54.061,0,0,0,0,0.0071858,1
22744,54.222,20.054,3.1315e-05,-0.02366,-3.6945e-08,22981,54.061,0,0,0,0,0.0071858,1
22744,54.222,20.054,3.1315e-05,-0.02366,-3.6945e-08,22981,54.061,0,0,0,0,0.0071858,1
22744,54.222,20.054,3.1315e-05,-0.02366,-3.6945e-08,22981,54.061,0,0,0,0,0.0071858,1
22744,54.222,20.054,3.1315e-05,-0.02366,-3.6945e-08,22981,54.061,0,0,0,0,0.0071858,1
22744,54.222,20.054,3.1315e-05,-0.02366,-3.6945e-08,22981,54.061,0,0,0,0,0.0071858,1
22744,54.222,20.054,3.1315e-05,-0.02366,-3.6945e-08,22981,54.061,0,0,0,0,0.0071858,1
22744,54.222,20.054,3.1315e-05,-0.02366,-3.6945e-08,22981,54.061,0,0,0,0,0.0071858,1
22744,54.222,20.054,3.1315e-05,-0.02366,-3.6945e-08,22981,54.061,0,0,0,0,0.0071858,1
22744,54.222,20.054,3.1315e-05,-0.02366,-3.6945e-08,22981,54.061,0,0,0,0,0.0071858,1
22745,54.222,20.053,3.1314e-05,-0.023801,-3.7165e-08,22981,54.061,0,0,0,0,0.0072102,1
22745,54.222,20.053,3.1314e-05,-0.023801,-3.7165e-08,22981,54.061,0,0,0,0,0.0072102,1
22745,54.222,20.053,3.1314e-05,-0.023801,-3.7165e-08,22981,54.061,0,0,0,0,0.0072102,1
22745,54.222,20.053,3.1314e-05,-0.023801,-3.7165e-08,22981,54.061,0,0,0,0,0.0072102,1
22745,54.222,20.053,3.1314e-05,-0.023801,-3.7165e-08,22981,54.061,0,0,0,0,0.0072102,1
22745,54.222,20.053,3.1314e-05,-0.023801,-3.7165e-08,22981,54.061,0,0,0,0,0.0072102,1
22745,54.222,20.053,3.1314e-05,-0.023801,-3.7165e-08,22981,54.061,0,0,0,0,0.0072102,1
22745,54.222,20.053,3.1314e-05,-0.023801,-3.7165e-08,22981,54.061,0,0,0,0,0.0072102,1
22745,54.222,20.053,3.1314e-05,-0.023801,-3.7165e-08,22981,54.061,0,0,0,0,0.0072102,1
22747,54.222,20.05,3.1309e-05,-0.024229,-3.7832e-08,22981,54.061,0,0,0,0,0.0072843,1
22747,54.222,20.05,3.1309e-05,-0.024229,-3.7832e-08,22981,54.061,0,0,0,0,0.0072843,1
22747,54.222,20.05,3.1309e-05,-0.024229,-3.7832e-08,22981,54.061,0,0,0,0,0.0072843,1
22747,54.222,20.05,3.1309e-05,-0.024229,-3.7832e-08,22981,54.061,0,0,0,0,0.0072843,1
22747,54.222,20.05,3.1309e-05,-0.024229,-3.7832e-08,22981,54.061,0,0,0,0,0.0072843,1
22749,54.222,20.048,3.1306e-05,-0.024511,-3.8273e-08,22981,54.061,0,0,0,0,0.0073346,1
22749,54.222,20.048,3.1306e-05,-0.024511,-3.8273e-08,22981,54.061,0,0,0,0,0.0073346,1
22749,54.222,20.048,3.1306e-05,-0.024511,-3.8273e-08,22981,54.061,0,0,0,0,0.0073346,1
22749,54.222,20.048,3.1306e-05,-0.024511,-3.8273e-08,22981,54.061,0,0,0,0,0.0073346,1
22749,54.222,20.048,3.1306e-05,-0.024511,-3.8273e-08,22981,54.061,0,0,0,0,0.0073346,1
22749,54.222,20.048,3.1306e-05,-0.024511,-3.8273e-08,22981,54.061,0,0,0,0,0.0073346,1
22749,54.222,20.048,3.1306e-05,-0.024511,-3.8273e-08,22981,54.061,0,0,0,0,0.0073346,1
22749,54.222,20.048,3.1306e-05,-0.024511,-3.8273e-08,22981,54.061,0,0,0,0,0.0073346,1
22749,54.222,20.048,3.1306e-05,-0.024511,-3.8273e-08,22981,54.061,0,0,0,0,0.0073346,1
22749,54.222,20.048,3.1306e-05,-0.024511,-3.8273e-08,22981,54.061,0,0,0,0,0.0073346,1
22749,54.222,20.048,3.1306e-05,-0.024511,-3.8273e-08,22981,54.061,0,0,0,0,0.0073346,1
22749,54.222,20.048,3.1306e-05,-0.024511,-3.8273e-08,22981,54.061,0,0,0,0,0.0073346,1
22750,54.222,20.047,3.1304e-05,-0.02465,-3.849e-08,22981,54.061,0,0,0,0,0.0073599,1
22750,54.222,20.047,3.1304e-05,-0.02465,-3.849e-08,22981,54.061,0,0,0,0,0.0073599,1
22750,54.222,20.047,3.1304e-05,-0.02465,-3.849e-08,22981,54.061,0,0,0,0,0.0073599,1
22750,54.222,20.047,3.1304e-05,-0.02465,-3.849e-08,22981,54.061,0,0,0,0,0.0073599,1
22750,54.222,20.047,3.1304e-05,-0.02465,-3.849e-08,22981,54.061,0,0,0,0,0.0073599,1
22750,54.222,20.047,3.1304e-05,-0.02465,-3.849e-08,22981,54.061,0,0,0,0,0.0073599,1
22750,54.222,20.047,3.1304e-05,-0.02465,-3.849e-08,22981,54.061,0,0,0,0,0.0073599,1
22751,54.222,20.045,3.1301e-05,-0.024929,-3.8926e-08,22981,54.061,0,0,0,0,0.0074113,1
22752,54.222,20.044,3.13e-05,-0.02507,-3.9145e-08,22981,54.061,0,0,0,0,0.0074372,1
22752,54.222,20.044,3.13e-05,-0.02507,-3.9145e-08,22981,54.061,0,0,0,0,0.0074372,1
22752,54.222,20.044,3.13e-05,-0.02507,-3.9145e-08,22981,54.061,0,0,0,0,0.0074372,1
22752,54.222,20.044,3.13e-05,-0.02507,-3.9145e-08,22981,54.061,0,0,0,0,0.0074372,1
22752,54.222,20.044,3.13e-05,-0.02507,-3.9145e-08,22981,54.061,0,0,0,0,0.0074372,1
22754,54.222,20.042,3.1297e-05,-0.025346,-3.9577e-08,22981,54.061,0,0,0,0,0.0074896,1
22754,54.222,20.042,3.1297e-05,-0.025346,-3.9577e-08,22981,54.061,0,0,0,0,0.0074896,1
22754,54.222,20.042,3.1297e-05,-0.025346,-3.9577e-08,22981,54.061,0,0,0,0,0.0074896,1
22754,54.222,20.041,3.1295e-05,-0.025485,-3.9794e-08,22981,54.061,0,0,0,0,0.007516,1
22754,54.222,20.041,3.1295e-05,-0.025485,-3.9794e-08,22981,54.061,0,0,0,0,0.007516,1
22754,54.222,20.041,3.1295e-05,-0.025485,-3.9794e-08,22981,54.061,0,0,0,0,0.007516,1
22754,54.222,20.041,3.1295e-05,-0.025485,-3.9794e-08,22981,54.061,0,0,0,0,0.007516,1
22754,54.222,20.041,3.1295e-05,-0.025485,-3.9794e-08,22981,54.061,0,0,0,0,0.007516,1
22754,54.222,20.041,3.1295e-05,-0.025485,-3.9794e-08,22981,54.061,0,0,0,0,0.007516,1
22754,54.222,20.041,3.1295e-05,-0.025485,-3.9794e-08,22981,54.061,0,0,0,0,0.007516,1
22755,54.222,20.04,3.1293e-05,-0.025623,-4.001e-08,22981,54.061,0,0,0,0,0.0075427,1
22755,54.222,20.04,3.1293e-05,-0.025623,-4.001e-08,22981,54.061,0,0,0,0,0.0075427,1
22755,54.222,20.04,3.1293e-05,-0.025623,-4.001e-08,22981,54.061,0,0,0,0,0.0075427,1
22756,54.222,20.04,3.1293e-05,-0.025691,-4.0116e-08,22981,54.061,0,0,0,0,0.0075561,1
22756,54.222,20.039,3.1292e-05,-0.025761,-4.0225e-08,22981,54.061,0,0,0,0,0.0075695,1
22756,54.222,20.039,3.1292e-05,-0.025761,-4.0225e-08,22981,54.061,0,0,0,0,0.0075695,1
22756,54.222,20.039,3.1292e-05,-0.025761,-4.0225e-08,22981,54.061,0,0,0,0,0.0075695,1
22758,54.222,20.037,3.1289e-05,-0.026037,-4.0657e-08,22981,54.061,0,0,0,0,0.0076238,1
22758,54.222,20.037,3.1289e-05,-0.026037,-4.0657e-08,22981,54.061,0,0,0,0,0.0076238,1
22758,54.222,20.037,3.1289e-05,-0.026037,-4.0657e-08,22981,54.061,0,0,0,0,0.0076238,1
22758,54.222,20.037,3.1289e-05,-0.026037,-4.0657e-08,22981,54.061,0,0,0,0,0.0076238,1
22758,54.222,20.037,3.1289e-05,-0.026037,-4.0657e-08,22981,54.061,0,0,0,0,0.0076238,1
22758,54.222,20.037,3.1289e-05,-0.026037,-4.0657e-08,22981,54.061,0,0,0,0,0.0076238,1
22758,54.222,20.037,3.1289e-05,-0.026037,-4.0657e-08,22981,54.061,0,0,0,0,0.0076238,1
22758,54.222,20.037,3.1289e-05,-0.026037,-4.0657e-08,22981,54.061,0,0,0,0,0.0076238,1
22758,54.222,20.037,3.1289e-05,-0.026037,-4.0657e-08,22981,54.061,0,0,0,0,0.0076238,1
22758,54.222,20.037,3.1289e-05,-0.026037,-4.0657e-08,22981,54.061,0,0,0,0,0.0076238,1
22758,54.222,20.037,3.1289e-05,-0.026037,-4.0657e-08,22981,54.061,0,0,0,0,0.0076238,1
22758,54.222,20.037,3.1289e-05,-0.026037,-4.0657e-08,22981,54.061,0,0,0,0,0.0076238,1
22758,54.222,20.037,3.1289e-05,-0.026037,-4.0657e-08,22981,54.061,0,0,0,0,0.0076238,1
22758,54.222,20.037,3.1289e-05,-0.026037,-4.0657e-08,22981,54.061,0,0,0,0,0.0076238,1
22759,54.222,20.036,3.1286e-05,-0.026242,-4.0978e-08,22981,54.061,0,0,0,0,0.007665,1
22760,54.222,20.035,3.1285e-05,-0.026379,-4.119e-08,22981,54.061,0,0,0,0,0.0076927,1
22760,54.222,20.035,3.1285e-05,-0.026379,-4.119e-08,22981,54.061,0,0,0,0,0.0076927,1
22760,54.222,20.035,3.1285e-05,-0.026379,-4.119e-08,22981,54.061,0,0,0,0,0.0076927,1
22760,54.222,20.035,3.1285e-05,-0.026379,-4.119e-08,22981,54.061,0,0,0,0,0.0076927,1
22760,54.222,20.034,3.1283e-05,-0.026514,-4.1402e-08,22981,54.061,0,0,0,0,0.0077206,1
22760,54.222,20.034,3.1283e-05,-0.026514,-4.1402e-08,22981,54.061,0,0,0,0,0.0077206,1
22760,54.222,20.034,3.1283e-05,-0.026514,-4.1402e-08,22981,54.061,0,0,0,0,0.0077206,1
22760,54.222,20.034,3.1283e-05,-0.026514,-4.1402e-08,22981,54.061,0,0,0,0,0.0077206,1
22761,54.222,20.033,3.1281e-05,-0.026649,-4.1613e-08,22981,54.061,0,0,0,0,0.0077487,1
22761,54.222,20.033,3.1281e-05,-0.026649,-4.1613e-08,22981,54.061,0,0,0,0,0.0077487,1
22761,54.222,20.033,3.1281e-05,-0.026649,-4.1613e-08,22981,54.061,0,0,0,0,0.0077487,1
22763,54.222,20.031,3.1279e-05,-0.026853,-4.1931e-08,22981,54.061,0,0,0,0,0.0077913,1
22763,54.222,20.031,3.1279e-05,-0.026853,-4.1931e-08,22981,54.061,0,0,0,0,0.0077913,1
22763,54.222,20.031,3.1279e-05,-0.026853,-4.1931e-08,22981,54.061,0,0,0,0,0.0077913,1
22763,54.222,20.031,3.1279e-05,-0.026853,-4.1931e-08,22981,54.061,0,0,0,0,0.0077913,1
22763,54.222,20.031,3.1279e-05,-0.026853,-4.1931e-08,22981,54.061,0,0,0,0,0.0077913,1
22763,54.222,20.031,3.1279e-05,-0.026853,-4.1931e-08,22981,54.061,0,0,0,0,0.0077913,1
22763,54.222,20.031,3.1279e-05,-0.026853,-4.1931e-08,22981,54.061,0,0,0,0,0.0077913,1
22763,54.222,20.031,3.1279e-05,-0.026853,-4.1931e-08,22981,54.061,0,0,0,0,0.0077913,1
22763,54.222,20.031,3.1279e-05,-0.026853,-4.1931e-08,22981,54.061,0,0,0,0,0.0077913,1
22763,54.222,20.031,3.1279e-05,-0.026853,-4.1931e-08,22981,54.061,0,0,0,0,0.0077913,1
22763,54.222,20.031,3.1279e-05,-0.026853,-4.1931e-08,22981,54.061,0,0,0,0,0.0077913,1
22763,54.222,20.031,3.1279e-05,-0.026853,-4.1931e-08,22981,54.061,0,0,0,0,0.0077913,1
22763,54.222,20.031,3.1279e-05,-0.026853,-4.1931e-08,22981,54.061,0,0,0,0,0.0077913,1
22763,54.222,20.031,3.1279e-05,-0.026853,-4.1931e-08,22981,54.061,0,0,0,0,0.0077913,1
22764,54.222,20.029,3.1275e-05,-0.027121,-4.235e-08,22981,54.061,0,0,0,0,0.0078488,1
22764,54.222,20.029,3.1275e-05,-0.027121,-4.235e-08,22981,54.061,0,0,0,0,0.0078488,1
22764,54.222,20.029,3.1275e-05,-0.027121,-4.235e-08,22981,54.061,0,0,0,0,0.0078488,1
22764,54.222,20.029,3.1275e-05,-0.027121,-4.235e-08,22981,54.061,0,0,0,0,0.0078488,1
22764,54.222,20.029,3.1275e-05,-0.027121,-4.235e-08,22981,54.061,0,0,0,0,0.0078488,1
22764,54.222,20.029,3.1275e-05,-0.027121,-4.235e-08,22981,54.061,0,0,0,0,0.0078488,1
22764,54.222,20.029,3.1275e-05,-0.027121,-4.235e-08,22981,54.061,0,0,0,0,0.0078488,1
22764,54.222,20.029,3.1275e-05,-0.027121,-4.235e-08,22981,54.061,0,0,0,0,0.0078488,1
22764,54.222,20.029,3.1275e-05,-0.027121,-4.235e-08,22981,54.061,0,0,0,0,0.0078488,1
22764,54.222,20.029,3.1275e-05,-0.027121,-4.235e-08,22981,54.061,0,0,0,0,0.0078488,1
22764,54.222,20.029,3.1275e-05,-0.027121,-4.235e-08,22981,54.061,0,0,0,0,0.0078488,1
22766,54.222,20.027,3.1272e-05,-0.027391,-4.2772e-08,22981,54.061,0,0,0,0,0.0079071,1
22766,54.222,20.027,3.1272e-05,-0.027391,-4.2772e-08,22981,54.061,0,0,0,0,0.0079071,1
22767,54.222,20.025,3.1269e-05,-0.02759,-4.3083e-08,22981,54.061,0,0,0,0,0.0079514,1
22767,54.222,20.025,3.1269e-05,-0.02759,-4.3083e-08,22981,54.061,0,0,0,0,0.0079514,1
22768,54.222,20.023,3.1267e-05,-0.02779,-4.3395e-08,22981,54.061,0,0,0,0,0.0079962,1
22768,54.222,20.023,3.1267e-05,-0.02779,-4.3395e-08,22981,54.061,0,0,0,0,0.0079962,1
22769,54.222,20.023,3.1266e-05,-0.027857,-4.35e-08,22981,54.061,0,0,0,0,0.0080112,1
22769,54.222,20.023,3.1266e-05,-0.027857,-4.35e-08,22981,54.061,0,0,0,0,0.0080112,1
22769,54.222,20.023,3.1266e-05,-0.027857,-4.35e-08,22981,54.061,0,0,0,0,0.0080112,1
22769,54.222,20.022,3.1264e-05,-0.027989,-4.3707e-08,22981,54.061,0,0,0,0,0.0080415,1
22769,54.222,20.022,3.1264e-05,-0.027989,-4.3707e-08,22981,54.061,0,0,0,0,0.0080415,1
22769,54.222,20.022,3.1264e-05,-0.027989,-4.3707e-08,22981,54.061,0,0,0,0,0.0080415,1
22770,54.222,20.021,3.1263e-05,-0.028057,-4.3812e-08,22981,54.061,0,0,0,0,0.0080567,1
22770,54.222,20.021,3.1263e-05,-0.028057,-4.3812e-08,22981,54.061,0,0,0,0,0.0080567,1
22770,54.222,20.02,3.1262e-05,-0.028123,-4.3916e-08,22981,54.061,0,0,0,0,0.008072,1
22771,54.222,20.02,3.1262e-05,-0.028189,-4.4018e-08,22981,54.061,0,0,0,0,0.0080873,1
22771,54.222,20.02,3.1262e-05,-0.028189,-4.4018e-08,22981,54.061,0,0,0,0,0.0080873,1
22771,54.222,20.02,3.1262e-05,-0.028189,-4.4018e-08,22981,54.061,0,0,0,0,0.0080873,1
22771,54.222,20.02,3.1262e-05,-0.028189,-4.4018e-08,22981,54.061,0,0,0,0,0.0080873,1
22771,54.222,20.019,3.1261e-05,-0.028253,-4.4119e-08,22981,54.061,0,0,0,0,0.0081027,1
22771,54.222,20.019,3.1261e-05,-0.028253,-4.4119e-08,22981,54.061,0,0,0,0,0.0081027,1
22771,54.222,20.019,3.1261e-05,-0.028253,-4.4119e-08,22981,54.061,0,0,0,0,0.0081027,1
22771,54.222,20.019,3.1261e-05,-0.028253,-4.4119e-08,22981,54.061,0,0,0,0,0.0081027,1
22771,54.222,20.019,3.1261e-05,-0.028253,-4.4119e-08,22981,54.061,0,0,0,0,0.0081027,1
22771,54.222,20.019,3.1261e-05,-0.028253,-4.4119e-08,22981,54.061,0,0,0,0,0.0081027,1
22773,54.222,20.017,3.1257e-05,-0.028516,-4.453e-08,22981,54.061,0,0,0,0,0.0081648,1
22773,54.222,20.017,3.1257e-05,-0.028516,-4.453e-08,22981,54.061,0,0,0,0,0.0081648,1
22773,54.222,20.017,3.1257e-05,-0.028516,-4.453e-08,22981,54.061,0,0,0,0,0.0081648,1
22773,54.222,20.017,3.1256e-05,-0.028582,-4.4632e-08,22981,54.061,0,0,0,0,0.0081805,1
22773,54.222,20.016,3.1255e-05,-0.028646,-4.4733e-08,22981,54.061,0,0,0,0,0.0081963,1
22773,54.222,20.016,3.1255e-05,-0.028646,-4.4733e-08,22981,54.061,0,0,0,0,0.0081963,1
22774,54.222,20.015,3.1254e-05,-0.028713,-4.4836e-08,22981,54.061,0,0,0,0,0.0082121,1
22774,54.222,20.015,3.1254e-05,-0.028713,-4.4836e-08,22981,54.061,0,0,0,0,0.0082121,1
22774,54.222,20.015,3.1254e-05,-0.028713,-4.4836e-08,22981,54.061,0,0,0,0,0.0082121,1
22774,54.222,20.015,3.1254e-05,-0.028713,-4.4836e-08,22981,54.061,0,0,0,0,0.0082121,1
22775,54.222,20.014,3.1253e-05,-0.028842,-4.5039e-08,22981,54.061,0,0,0,0,0.0082439,1
22775,54.222,20.014,3.1253e-05,-0.028842,-4.5039e-08,22981,54.061,0,0,0,0,0.0082439,1
22775,54.222,20.014,3.1252e-05,-0.028909,-4.5142e-08,22981,54.061,0,0,0,0,0.0082598,1
22775,54.222,20.014,3.1252e-05,-0.028909,-4.5142e-08,22981,54.061,0,0,0,0,0.0082598,1
22775,54.222,20.013,3.1251e-05,-0.028974,-4.5244e-08,22981,54.061,0,0,0,0,0.0082759,1
22775,54.222,20.013,3.1251e-05,-0.028974,-4.5244e-08,22981,54.061,0,0,0,0,0.0082759,1
22775,54.222,20.013,3.1251e-05,-0.028974,-4.5244e-08,22981,54.061,0,0,0,0,0.0082759,1
22775,54.222,20.013,3.1251e-05,-0.028974,-4.5244e-08,22981,54.061,0,0,0,0,0.0082759,1
22775,54.222,20.013,3.1251e-05,-0.028974,-4.5244e-08,22981,54.061,0,0,0,0,0.0082759,1
22775,54.222,20.013,3.1251e-05,-0.028974,-4.5244e-08,22981,54.061,0,0,0,0,0.0082759,1
22775,54.222,20.013,3.1251e-05,-0.028974,-4.5244e-08,22981,54.061,0,0,0,0,0.0082759,1
22775,54.222,20.013,3.1251e-05,-0.028974,-4.5244e-08,22981,54.061,0,0,0,0,0.0082759,1
22776,54.222,20.012,3.125e-05,-0.029038,-4.5345e-08,22981,54.061,0,0,0,0,0.008292,1
22776,54.222,20.012,3.125e-05,-0.029038,-4.5345e-08,22981,54.061,0,0,0,0,0.008292,1
22776,54.222,20.012,3.125e-05,-0.029038,-4.5345e-08,22981,54.061,0,0,0,0,0.008292,1
22776,54.222,20.012,3.125e-05,-0.029038,-4.5345e-08,22981,54.061,0,0,0,0,0.008292,1
22776,54.222,20.012,3.125e-05,-0.029038,-4.5345e-08,22981,54.061,0,0,0,0,0.008292,1
22776,54.222,20.012,3.125e-05,-0.029038,-4.5345e-08,22981,54.061,0,0,0,0,0.008292,1
22776,54.222,20.012,3.125e-05,-0.029038,-4.5345e-08,22981,54.061,0,0,0,0,0.008292,1
22777,54.222,20.01,3.1246e-05,-0.029297,-4.5748e-08,22981,54.061,0,0,0,0,0.0083571,1
22777,54.222,20.01,3.1246e-05,-0.029297,-4.5748e-08,22981,54.061,0,0,0,0,0.0083571,1
22777,54.222,20.01,3.1246e-05,-0.029297,-4.5748e-08,22981,54.061,0,0,0,0,0.0083571,1
22777,54.222,20.01,3.1246e-05,-0.029297,-4.5748e-08,22981,54.061,0,0,0,0,0.0083571,1
22777,54.222,20.01,3.1246e-05,-0.029297,-4.5748e-08,22981,54.061,0,0,0,0,0.0083571,1
22777,54.222,20.01,3.1246e-05,-0.029297,-4.5748e-08,22981,54.061,0,0,0,0,0.0083571,1
22779,54.222,20.008,3.1243e-05,-0.029553,-4.6149e-08,22981,54.061,0,0,0,0,0.0084232,1
22779,54.222,20.008,3.1243e-05,-0.029553,-4.6149e-08,22981,54.061,0,0,0,0,0.0084232,1
22779,54.222,20.008,3.1243e-05,-0.029553,-4.6149e-08,22981,54.061,0,0,0,0,0.0084232,1
22779,54.222,20.008,3.1243e-05,-0.029553,-4.6149e-08,22981,54.061,0,0,0,0,0.0084232,1
22779,54.222,20.008,3.1243e-05,-0.029553,-4.6149e-08,22981,54.061,0,0,0,0,0.0084232,1
22780,54.222,20.006,3.124e-05,-0.029744,-4.6447e-08,22981,54.061,0,0,0,0,0.0084734,1
22780,54.222,20.006,3.124e-05,-0.029744,-4.6447e-08,22981,54.061,0,0,0,0,0.0084734,1
22780,54.222,20.006,3.124e-05,-0.029744,-4.6447e-08,22981,54.061,0,0,0,0,0.0084734,1
22781,54.222,20.005,3.1238e-05,-0.02987,-4.6644e-08,22981,54.061,0,0,0,0,0.0085072,1
22781,54.222,20.005,3.1238e-05,-0.02987,-4.6644e-08,22981,54.061,0,0,0,0,0.0085072,1
22781,54.222,20.005,3.1238e-05,-0.02987,-4.6644e-08,22981,54.061,0,0,0,0,0.0085072,1
22781,54.222,20.005,3.1238e-05,-0.02987,-4.6644e-08,22981,54.061,0,0,0,0,0.0085072,1
22781,54.222,20.005,3.1238e-05,-0.02987,-4.6644e-08,22981,54.061,0,0,0,0,0.0085072,1
22781,54.222,20.004,3.1237e-05,-0.029935,-4.6744e-08,22981,54.061,0,0,0,0,0.0085243,1
22781,54.222,20.004,3.1237e-05,-0.029935,-4.6744e-08,22981,54.061,0,0,0,0,0.0085243,1
22781,54.222,20.004,3.1237e-05,-0.029935,-4.6744e-08,22981,54.061,0,0,0,0,0.0085243,1
22781,54.222,20.004,3.1237e-05,-0.029935,-4.6744e-08,22981,54.061,0,0,0,0,0.0085243,1
22781,54.222,20.004,3.1237e-05,-0.029935,-4.6744e-08,22981,54.061,0,0,0,0,0.0085243,1
22781,54.222,20.004,3.1237e-05,-0.029935,-4.6744e-08,22981,54.061,0,0,0,0,0.0085243,1
22783,54.222,20.002,3.1234e-05,-0.030124,-4.704e-08,22981,54.061,0,0,0,0,0.0085757,1
22783,54.222,20.001,3.1232e-05,-0.030249,-4.7235e-08,22981,54.061,0,0,0,0,0.0086104,1
22783,54.222,20.001,3.1232e-05,-0.030249,-4.7235e-08,22981,54.061,0,0,0,0,0.0086104,1
22783,54.222,20.001,3.1232e-05,-0.030249,-4.7235e-08,22981,54.061,0,0,0,0,0.0086104,1
22784,54.222,20.001,3.1231e-05,-0.030313,-4.7335e-08,22981,54.061,0,0,0,0,0.0086278,1
22784,54.222,20.001,3.1231e-05,-0.030313,-4.7335e-08,22981,54.061,0,0,0,0,0.0086278,1
22784,54.222,20.001,3.1231e-05,-0.030313,-4.7335e-08,22981,54.061,0,0,0,0,0.0086278,1
22785,54.222,19.999,3.1229e-05,-0.030437,-4.7529e-08,22981,54.061,0,0,0,0,0.0086629,1
22785,54.222,19.999,3.1229e-05,-0.030437,-4.7529e-08,22981,54.061,0,0,0,0,0.0086629,1
22785,54.222,19.999,3.1229e-05,-0.030437,-4.7529e-08,22981,54.061,0,0,0,0,0.0086629,1
22785,54.222,19.999,3.1229e-05,-0.030437,-4.7529e-08,22981,54.061,0,0,0,0,0.0086629,1
22785,54.222,19.999,3.1229e-05,-0.030437,-4.7529e-08,22981,54.061,0,0,0,0,0.0086629,1
22785,54.222,19.999,3.1229e-05,-0.030437,-4.7529e-08,22981,54.061,0,0,0,0,0.0086629,1
22785,54.222,19.999,3.1229e-05,-0.030437,-4.7529e-08,22981,54.061,0,0,0,0,0.0086629,1
22785,54.222,19.999,3.1229e-05,-0.030437,-4.7529e-08,22981,54.061,0,0,0,0,0.0086629,1
22785,54.222,19.998,3.1228e-05,-0.030563,-4.7725e-08,22981,54.061,0,0,0,0,0.0086982,1
22786,54.222,19.998,3.1227e-05,-0.030627,-4.7825e-08,22981,54.061,0,0,0,0,0.008716,1
22786,54.222,19.998,3.1227e-05,-0.030627,-4.7825e-08,22981,54.061,0,0,0,0,0.008716,1
22786,54.222,19.998,3.1227e-05,-0.030627,-4.7825e-08,22981,54.061,0,0,0,0,0.008716,1
22786,54.222,19.998,3.1227e-05,-0.030627,-4.7825e-08,22981,54.061,0,0,0,0,0.008716,1
22786,54.222,19.998,3.1227e-05,-0.030627,-4.7825e-08,22981,54.061,0,0,0,0,0.008716,1
22787,54.222,19.996,3.1224e-05,-0.030816,-4.812e-08,22981,54.061,0,0,0,0,0.0087698,1
22787,54.222,19.996,3.1224e-05,-0.030816,-4.812e-08,22981,54.061,0,0,0,0,0.0087698,1
22787,54.222,19.996,3.1224e-05,-0.030816,-4.812e-08,22981,54.061,0,0,0,0,0.0087698,1
22787,54.222,19.996,3.1224e-05,-0.030816,-4.812e-08,22981,54.061,0,0,0,0,0.0087698,1
22789,54.222,19.993,3.122e-05,-0.031066,-4.851e-08,22981,54.061,0,0,0,0,0.0088425,1
22789,54.222,19.993,3.122e-05,-0.031066,-4.851e-08,22981,54.061,0,0,0,0,0.0088425,1
22789,54.222,19.993,3.122e-05,-0.031066,-4.851e-08,22981,54.061,0,0,0,0,0.0088425,1
22789,54.222,19.993,3.1219e-05,-0.031127,-4.8606e-08,22981,54.061,0,0,0,0,0.0088609,1
22789,54.222,19.993,3.1219e-05,-0.031127,-4.8606e-08,22981,54.061,0,0,0,0,0.0088609,1
22789,54.222,19.993,3.1219e-05,-0.031127,-4.8606e-08,22981,54.061,0,0,0,0,0.0088609,1
22789,54.222,19.993,3.1219e-05,-0.031127,-4.8606e-08,22981,54.061,0,0,0,0,0.0088609,1
22789,54.222,19.993,3.1219e-05,-0.031127,-4.8606e-08,22981,54.061,0,0,0,0,0.0088609,1
22789,54.222,19.993,3.1219e-05,-0.031127,-4.8606e-08,22981,54.061,0,0,0,0,0.0088609,1
22789,54.222,19.993,3.1219e-05,-0.031127,-4.8606e-08,22981,54.061,0,0,0,0,0.0088609,1
22789,54.222,19.993,3.1219e-05,-0.031127,-4.8606e-08,22981,54.061,0,0,0,0,0.0088609,1
22789,54.222,19.993,3.1219e-05,-0.031127,-4.8606e-08,22981,54.061,0,0,0,0,0.0088609,1
22789,54.222,19.993,3.1219e-05,-0.031127,-4.8606e-08,22981,54.061,0,0,0,0,0.0088609,1
22789,54.222,19.993,3.1219e-05,-0.031127,-4.8606e-08,22981,54.061,0,0,0,0,0.0088609,1
22790,54.222,19.991,3.1217e-05,-0.031252,-4.88e-08,22981,54.061,0,0,0,0,0.0088979,1
22790,54.222,19.991,3.1216e-05,-0.031313,-4.8895e-08,22981,54.061,0,0,0,0,0.0089165,1
22790,54.222,19.991,3.1216e-05,-0.031313,-4.8895e-08,22981,54.061,0,0,0,0,0.0089165,1
22791,54.222,19.99,3.1215e-05,-0.031375,-4.8993e-08,22981,54.061,0,0,0,0,0.0089352,1
22791,54.222,19.99,3.1215e-05,-0.031375,-4.8993e-08,22981,54.061,0,0,0,0,0.0089352,1
22791,54.222,19.99,3.1215e-05,-0.031375,-4.8993e-08,22981,54.061,0,0,0,0,0.0089352,1
22791,54.222,19.99,3.1215e-05,-0.031375,-4.8993e-08,22981,54.061,0,0,0,0,0.0089352,1
22792,54.222,19.988,3.1211e-05,-0.03162,-4.9375e-08,22981,54.061,0,0,0,0,0.0090107,1
22793,54.222,19.987,3.121e-05,-0.03168,-4.9468e-08,22981,54.061,0,0,0,0,0.0090298,1
22793,54.222,19.987,3.121e-05,-0.03168,-4.9468e-08,22981,54.061,0,0,0,0,0.0090298,1
22793,54.222,19.987,3.121e-05,-0.03168,-4.9468e-08,22981,54.061,0,0,0,0,0.0090298,1
22793,54.222,19.987,3.121e-05,-0.03168,-4.9468e-08,22981,54.061,0,0,0,0,0.0090298,1
22793,54.222,19.987,3.121e-05,-0.03168,-4.9468e-08,22981,54.061,0,0,0,0,0.0090298,1
22793,54.222,19.986,3.1209e-05,-0.031741,-4.9564e-08,22981,54.061,0,0,0,0,0.0090489,1
22793,54.222,19.986,3.1208e-05,-0.031802,-4.9659e-08,22981,54.061,0,0,0,0,0.0090682,1
22793,54.222,19.986,3.1208e-05,-0.031802,-4.9659e-08,22981,54.061,0,0,0,0,0.0090682,1
22793,54.222,19.986,3.1208e-05,-0.031802,-4.9659e-08,22981,54.061,0,0,0,0,0.0090682,1
22793,54.222,19.986,3.1208e-05,-0.031802,-4.9659e-08,22981,54.061,0,0,0,0,0.0090682,1
22793,54.222,19.986,3.1208e-05,-0.031802,-4.9659e-08,22981,54.061,0,0,0,0,0.0090682,1
22793,54.222,19.986,3.1208e-05,-0.031802,-4.9659e-08,22981,54.061,0,0,0,0,0.0090682,1
22795,54.222,19.983,3.1204e-05,-0.032044,-5.0036e-08,22981,54.061,0,0,0,0,0.0091459,1
22795,54.222,19.983,3.1204e-05,-0.032044,-5.0036e-08,22981,54.061,0,0,0,0,0.0091459,1
22795,54.222,19.983,3.1204e-05,-0.032044,-5.0036e-08,22981,54.061,0,0,0,0,0.0091459,1
22795,54.222,19.983,3.1204e-05,-0.032044,-5.0036e-08,22981,54.061,0,0,0,0,0.0091459,1
22795,54.222,19.983,3.1204e-05,-0.032044,-5.0036e-08,22981,54.061,0,0,0,0,0.0091459,1
22795,54.222,19.983,3.1204e-05,-0.032044,-5.0036e-08,22981,54.061,0,0,0,0,0.0091459,1
22795,54.222,19.982,3.1203e-05,-0.032104,-5.013e-08,22981,54.061,0,0,0,0,0.0091656,1
22795,54.222,19.982,3.1203e-05,-0.032104,-5.013e-08,22981,54.061,0,0,0,0,0.0091656,1
22796,54.222,19.982,3.1202e-05,-0.032163,-5.0223e-08,22981,54.061,0,0,0,0,0.0091853,1
22796,54.222,19.982,3.1202e-05,-0.032163,-5.0223e-08,22981,54.061,0,0,0,0,0.0091853,1
22796,54.222,19.982,3.1202e-05,-0.032163,-5.0223e-08,22981,54.061,0,0,0,0,0.0091853,1
22796,54.222,19.982,3.1202e-05,-0.032163,-5.0223e-08,22981,54.061,0,0,0,0,0.0091853,1
22796,54.222,19.982,3.1202e-05,-0.032163,-5.0223e-08,22981,54.061,0,0,0,0,0.0091853,1
22796,54.222,19.982,3.1202e-05,-0.032163,-5.0223e-08,22981,54.061,0,0,0,0,0.0091853,1
22796,54.222,19.982,3.1202e-05,-0.032163,-5.0223e-08,22981,54.061,0,0,0,0,0.0091853,1
22797,54.222,19.979,3.1198e-05,-0.032403,-5.0598e-08,22981,54.061,0,0,0,0,0.0092651,1
22797,54.222,19.979,3.1198e-05,-0.032403,-5.0598e-08,22981,54.061,0,0,0,0,0.0092651,1
22798,54.222,19.978,3.1196e-05,-0.032524,-5.0785e-08,22981,54.061,0,0,0,0,0.0093055,1
22798,54.222,19.978,3.1196e-05,-0.032524,-5.0785e-08,22981,54.061,0,0,0,0,0.0093055,1
22799,54.222,19.977,3.1195e-05,-0.032583,-5.0879e-08,22981,54.061,0,0,0,0,0.0093258,1
22799,54.222,19.977,3.1195e-05,-0.032583,-5.0879e-08,22981,54.061,0,0,0,0,0.0093258,1
22799,54.222,19.976,3.1193e-05,-0.032702,-5.1065e-08,22981,54.061,0,0,0,0,0.0093668,1
22800,54.222,19.975,3.1192e-05,-0.032762,-5.1157e-08,22981,54.061,0,0,0,0,0.0093874,1
22800,54.222,19.975,3.1191e-05,-0.03282,-5.1248e-08,22981,54.061,0,0,0,0,0.0094081,1
22800,54.222,19.975,3.1191e-05,-0.03282,-5.1248e-08,22981,54.061,0,0,0,0,0.0094081,1
22800,54.222,19.975,3.1191e-05,-0.03282,-5.1248e-08,22981,54.061,0,0,0,0,0.0094081,1
22800,54.222,19.975,3.1191e-05,-0.03282,-5.1248e-08,22981,54.061,0,0,0,0,0.0094081,1
22800,54.222,19.975,3.1191e-05,-0.03282,-5.1248e-08,22981,54.061,0,0,0,0,0.0094081,1
22800,54.222,19.975,3.1191e-05,-0.03282,-5.1248e-08,22981,54.061,0,0,0,0,0.0094081,1
22801,54.222,19.974,3.119e-05,-0.032879,-5.1341e-08,22981,54.061,0,0,0,0,0.0094289,1
22801,54.222,19.974,3.119e-05,-0.032879,-5.1341e-08,22981,54.061,0,0,0,0,0.0094289,1
22801,54.222,19.974,3.119e-05,-0.032879,-5.1341e-08,22981,54.061,0,0,0,0,0.0094289,1
22801,54.222,19.974,3.119e-05,-0.032879,-5.1341e-08,22981,54.061,0,0,0,0,0.0094289,1
22801,54.222,19.974,3.119e-05,-0.032879,-5.1341e-08,22981,54.061,0,0,0,0,0.0094289,1
22801,54.222,19.974,3.119e-05,-0.032879,-5.1341e-08,22981,54.061,0,0,0,0,0.0094289,1
22801,54.222,19.974,3.119e-05,-0.032879,-5.1341e-08,22981,54.061,0,0,0,0,0.0094289,1
22801,54.222,19.974,3.119e-05,-0.032879,-5.1341e-08,22981,54.061,0,0,0,0,0.0094289,1
22801,54.222,19.974,3.119e-05,-0.032879,-5.1341e-08,22981,54.061,0,0,0,0,0.0094289,1
22801,54.222,19.974,3.119e-05,-0.032879,-5.1341e-08,22981,54.061,0,0,0,0,0.0094289,1
22801,54.222,19.974,3.119e-05,-0.032879,-5.1341e-08,22981,54.061,0,0,0,0,0.0094289,1
22801,54.222,19.974,3.119e-05,-0.032879,-5.1341e-08,22981,54.061,0,0,0,0,0.0094289,1
22801,54.222,19.974,3.119e-05,-0.032879,-5.1341e-08,22981,54.061,0,0,0,0,0.0094289,1
22801,54.222,19.974,3.119e-05,-0.032879,-5.1341e-08,22981,54.061,0,0,0,0,0.0094289,1
22801,54.222,19.973,3.1188e-05,-0.032998,-5.1526e-08,22981,54.061,0,0,0,0,0.0094707,1
22801,54.222,19.973,3.1188e-05,-0.032998,-5.1526e-08,22981,54.061,0,0,0,0,0.0094707,1
22801,54.222,19.973,3.1188e-05,-0.032998,-5.1526e-08,22981,54.061,0,0,0,0,0.0094707,1
22803,54.222,19.969,3.1183e-05,-0.033289,-5.1981e-08,22981,54.061,0,0,0,0,0.009577,1
22805,54.222,19.967,3.118e-05,-0.033464,-5.2254e-08,22981,54.061,0,0,0,0,0.0096418,1
22805,54.222,19.967,3.118e-05,-0.033464,-5.2254e-08,22981,54.061,0,0,0,0,0.0096418,1
22805,54.222,19.967,3.118e-05,-0.033464,-5.2254e-08,22981,54.061,0,0,0,0,0.0096418,1
22805,54.222,19.967,3.118e-05,-0.033464,-5.2254e-08,22981,54.061,0,0,0,0,0.0096418,1
22805,54.222,19.967,3.118e-05,-0.033464,-5.2254e-08,22981,54.061,0,0,0,0,0.0096418,1
22805,54.222,19.967,3.118e-05,-0.033464,-5.2254e-08,22981,54.061,0,0,0,0,0.0096418,1
22805,54.222,19.967,3.118e-05,-0.033464,-5.2254e-08,22981,54.061,0,0,0,0,0.0096418,1
22805,54.222,19.967,3.118e-05,-0.033464,-5.2254e-08,22981,54.061,0,0,0,0,0.0096418,1
22805,54.222,19.967,3.118e-05,-0.033464,-5.2254e-08,22981,54.061,0,0,0,0,0.0096418,1
22806,54.222,19.965,3.1176e-05,-0.033637,-5.2524e-08,22981,54.061,0,0,0,0,0.0097076,1
22806,54.222,19.965,3.1176e-05,-0.033637,-5.2524e-08,22981,54.061,0,0,0,0,0.0097076,1
22806,54.222,19.965,3.1176e-05,-0.033637,-5.2524e-08,22981,54.061,0,0,0,0,0.0097076,1
22806,54.222,19.965,3.1176e-05,-0.033637,-5.2524e-08,22981,54.061,0,0,0,0,0.0097076,1
22806,54.222,19.965,3.1176e-05,-0.033637,-5.2524e-08,22981,54.061,0,0,0,0,0.0097076,1
22806,54.222,19.965,3.1176e-05,-0.033637,-5.2524e-08,22981,54.061,0,0,0,0,0.0097076,1
22806,54.222,19.965,3.1176e-05,-0.033637,-5.2524e-08,22981,54.061,0,0,0,0,0.0097076,1
22806,54.222,19.965,3.1176e-05,-0.033637,-5.2524e-08,22981,54.061,0,0,0,0,0.0097076,1
22806,54.222,19.965,3.1175e-05,-0.033694,-5.2613e-08,22981,54.061,0,0,0,0,0.0097297,1
22806,54.222,19.965,3.1175e-05,-0.033694,-5.2613e-08,22981,54.061,0,0,0,0,0.0097297,1
22806,54.222,19.965,3.1175e-05,-0.033694,-5.2613e-08,22981,54.061,0,0,0,0,0.0097297,1
22806,54.222,19.964,3.1174e-05,-0.033753,-5.2705e-08,22981,54.061,0,0,0,0,0.0097519,1
22806,54.222,19.964,3.1174e-05,-0.033753,-5.2705e-08,22981,54.061,0,0,0,0,0.0097519,1
22808,54.222,19.962,3.1171e-05,-0.033924,-5.2973e-08,22981,54.061,0,0,0,0,0.0098192,1
22808,54.222,19.962,3.1171e-05,-0.033924,-5.2973e-08,22981,54.061,0,0,0,0,0.0098192,1
22809,54.222,19.96,3.1168e-05,-0.034096,-5.3241e-08,22981,54.061,0,0,0,0,0.0098874,1
22810,54.222,19.959,3.1166e-05,-0.034209,-5.3418e-08,22981,54.061,0,0,0,0,0.0099334,1
22810,54.222,19.959,3.1166e-05,-0.034209,-5.3418e-08,22981,54.061,0,0,0,0,0.0099334,1
22810,54.222,19.959,3.1166e-05,-0.034209,-5.3418e-08,22981,54.061,0,0,0,0,0.0099334,1
22810,54.222,19.959,3.1166e-05,-0.034209,-5.3418e-08,22981,54.061,0,0,0,0,0.0099334,1
22810,54.222,19.959,3.1166e-05,-0.034209,-5.3418e-08,22981,54.061,0,0,0,0,0.0099334,1
22810,54.222,19.959,3.1166e-05,-0.034209,-5.3418e-08,22981,54.061,0,0,0,0,0.0099334,1
22810,54.222,19.959,3.1166e-05,-0.034209,-5.3418e-08,22981,54.061,0,0,0,0,0.0099334,1
22810,54.222,19.959,3.1166e-05,-0.034209,-5.3418e-08,22981,54.061,0,0,0,0,0.0099334,1
22810,54.222,19.959,3.1166e-05,-0.034209,-5.3418e-08,22981,54.061,0,0,0,0,0.0099334,1
22810,54.222,19.959,3.1166e-05,-0.034209,-5.3418e-08,22981,54.061,0,0,0,0,0.0099334,1
22810,54.222,19.959,3.1166e-05,-0.034209,-5.3418e-08,22981,54.061,0,0,0,0,0.0099334,1
22810,54.222,19.959,3.1166e-05,-0.034209,-5.3418e-08,22981,54.061,0,0,0,0,0.0099334,1
22810,54.222,19.959,3.1166e-05,-0.034209,-5.3418e-08,22981,54.061,0,0,0,0,0.0099334,1
22811,54.222,19.957,3.1163e-05,-0.034379,-5.3683e-08,22981,54.061,0,0,0,0,0.010003,1
22811,54.222,19.957,3.1163e-05,-0.034379,-5.3683e-08,22981,54.061,0,0,0,0,0.010003,1
22811,54.222,19.957,3.1163e-05,-0.034379,-5.3683e-08,22981,54.061,0,0,0,0,0.010003,1
22811,54.222,19.957,3.1163e-05,-0.034379,-5.3683e-08,22981,54.061,0,0,0,0,0.010003,1
22811,54.222,19.957,3.1163e-05,-0.034379,-5.3683e-08,22981,54.061,0,0,0,0,0.010003,1
22811,54.222,19.957,3.1163e-05,-0.034379,-5.3683e-08,22981,54.061,0,0,0,0,0.010003,1
22811,54.222,19.957,3.1163e-05,-0.034379,-5.3683e-08,22981,54.061,0,0,0,0,0.010003,1
22811,54.222,19.957,3.1163e-05,-0.034379,-5.3683e-08,22981,54.061,0,0,0,0,0.010003,1
22811,54.222,19.957,3.1163e-05,-0.034379,-5.3683e-08,22981,54.061,0,0,0,0,0.010003,1
22811,54.222,19.957,3.1163e-05,-0.034379,-5.3683e-08,22981,54.061,0,0,0,0,0.010003,1
22811,54.222,19.957,3.1163e-05,-0.034379,-5.3683e-08,22981,54.061,0,0,0,0,0.010003,1
22811,54.222,19.957,3.1163e-05,-0.034379,-5.3683e-08,22981,54.061,0,0,0,0,0.010003,1
22813,54.222,19.952,3.1156e-05,-0.034714,-5.4206e-08,22981,54.061,0,0,0,0,0.010146,1
22813,54.222,19.952,3.1156e-05,-0.034714,-5.4206e-08,22981,54.061,0,0,0,0,0.010146,1
22813,54.222,19.952,3.1156e-05,-0.034714,-5.4206e-08,22981,54.061,0,0,0,0,0.010146,1
22814,54.222,19.951,3.1154e-05,-0.034824,-5.4379e-08,22981,54.061,0,0,0,0,0.010194,1
22814,54.222,19.951,3.1154e-05,-0.034824,-5.4379e-08,22981,54.061,0,0,0,0,0.010194,1
22814,54.222,19.951,3.1154e-05,-0.034824,-5.4379e-08,22981,54.061,0,0,0,0,0.010194,1
22814,54.222,19.951,3.1154e-05,-0.034824,-5.4379e-08,22981,54.061,0,0,0,0,0.010194,1
22814,54.222,19.951,3.1154e-05,-0.034824,-5.4379e-08,22981,54.061,0,0,0,0,0.010194,1
22816,54.222,19.948,3.115e-05,-0.035047,-5.4727e-08,22981,54.061,0,0,0,0,0.010292,1
22816,54.222,19.948,3.115e-05,-0.035047,-5.4727e-08,22981,54.061,0,0,0,0,0.010292,1
22816,54.222,19.948,3.115e-05,-0.035047,-5.4727e-08,22981,54.061,0,0,0,0,0.010292,1
22816,54.222,19.948,3.1148e-05,-0.035101,-5.4811e-08,22981,54.061,0,0,0,0,0.010317,1
22816,54.222,19.947,3.1147e-05,-0.035157,-5.4898e-08,22981,54.061,0,0,0,0,0.010342,1
22816,54.222,19.947,3.1147e-05,-0.035157,-5.4898e-08,22981,54.061,0,0,0,0,0.010342,1
22817,54.222,19.945,3.1145e-05,-0.035267,-5.507e-08,22981,54.061,0,0,0,0,0.010392,1
22818,54.222,19.945,3.1144e-05,-0.035321,-5.5155e-08,22981,54.061,0,0,0,0,0.010418,1
22818,54.222,19.945,3.1144e-05,-0.035321,-5.5155e-08,22981,54.061,0,0,0,0,0.010418,1
22818,54.222,19.945,3.1144e-05,-0.035321,-5.5155e-08,22981,54.061,0,0,0,0,0.010418,1
22818,54.222,19.945,3.1144e-05,-0.035321,-5.5155e-08,22981,54.061,0,0,0,0,0.010418,1
22818,54.222,19.945,3.1144e-05,-0.035321,-5.5155e-08,22981,54.061,0,0,0,0,0.010418,1
22818,54.222,19.945,3.1144e-05,-0.035321,-5.5155e-08,22981,54.061,0,0,0,0,0.010418,1
22818,54.222,19.945,3.1144e-05,-0.035321,-5.5155e-08,22981,54.061,0,0,0,0,0.010418,1
22818,54.222,19.945,3.1144e-05,-0.035321,-5.5155e-08,22981,54.061,0,0,0,0,0.010418,1
22818,54.222,19.945,3.1144e-05,-0.035321,-5.5155e-08,22981,54.061,0,0,0,0,0.010418,1
22818,54.222,19.945,3.1144e-05,-0.035321,-5.5155e-08,22981,54.061,0,0,0,0,0.010418,1
22818,54.222,19.945,3.1144e-05,-0.035321,-5.5155e-08,22981,54.061,0,0,0,0,0.010418,1
22818,54.222,19.945,3.1144e-05,-0.035321,-5.5155e-08,22981,54.061,0,0,0,0,0.010418,1
22818,54.222,19.945,3.1144e-05,-0.035321,-5.5155e-08,22981,54.061,0,0,0,0,0.010418,1
22818,54.222,19.945,3.1144e-05,-0.035321,-5.5155e-08,22981,54.061,0,0,0,0,0.010418,1
22818,54.222,19.945,3.1144e-05,-0.035321,-5.5155e-08,22981,54.061,0,0,0,0,0.010418,1
22818,54.222,19.945,3.1144e-05,-0.035321,-5.5155e-08,22981,54.061,0,0,0,0,0.010418,1
22819,54.222,19.943,3.1141e-05,-0.035482,-5.5406e-08,22981,54.061,0,0,0,0,0.010495,1
22819,54.222,19.943,3.1141e-05,-0.035482,-5.5406e-08,22981,54.061,0,0,0,0,0.010495,1
22819,54.222,19.943,3.1141e-05,-0.035482,-5.5406e-08,22981,54.061,0,0,0,0,0.010495,1
22820,54.222,19.94,3.1136e-05,-0.035699,-5.5745e-08,22981,54.061,0,0,0,0,0.010599,1
22820,54.222,19.94,3.1136e-05,-0.035699,-5.5745e-08,22981,54.061,0,0,0,0,0.010599,1
22822,54.222,19.938,3.1133e-05,-0.03586,-5.5997e-08,22981,54.061,0,0,0,0,0.010678,1
22822,54.222,19.938,3.1133e-05,-0.03586,-5.5997e-08,22981,54.061,0,0,0,0,0.010678,1
22822,54.222,19.938,3.1133e-05,-0.03586,-5.5997e-08,22981,54.061,0,0,0,0,0.010678,1
22822,54.222,19.936,3.1131e-05,-0.035966,-5.6163e-08,22981,54.061,0,0,0,0,0.010732,1
22822,54.222,19.936,3.1131e-05,-0.035966,-5.6163e-08,22981,54.061,0,0,0,0,0.010732,1
22822,54.222,19.936,3.1131e-05,-0.035966,-5.6163e-08,22981,54.061,0,0,0,0,0.010732,1
22822,54.222,19.936,3.1131e-05,-0.035966,-5.6163e-08,22981,54.061,0,0,0,0,0.010732,1
22822,54.222,19.936,3.1131e-05,-0.035966,-5.6163e-08,22981,54.061,0,0,0,0,0.010732,1
22822,54.222,19.936,3.1131e-05,-0.035966,-5.6163e-08,22981,54.061,0,0,0,0,0.010732,1
22822,54.222,19.936,3.1131e-05,-0.035966,-5.6163e-08,22981,54.061,0,0,0,0,0.010732,1
22822,54.222,19.936,3.1131e-05,-0.035966,-5.6163e-08,22981,54.061,0,0,0,0,0.010732,1
22822,54.222,19.936,3.1131e-05,-0.035966,-5.6163e-08,22981,54.061,0,0,0,0,0.010732,1
22822,54.222,19.936,3.1131e-05,-0.035966,-5.6163e-08,22981,54.061,0,0,0,0,0.010732,1
22822,54.222,19.936,3.1131e-05,-0.035966,-5.6163e-08,22981,54.061,0,0,0,0,0.010732,1
22822,54.222,19.936,3.1131e-05,-0.035966,-5.6163e-08,22981,54.061,0,0,0,0,0.010732,1
22822,54.222,19.936,3.1131e-05,-0.035966,-5.6163e-08,22981,54.061,0,0,0,0,0.010732,1
22822,54.222,19.936,3.1131e-05,-0.035966,-5.6163e-08,22981,54.061,0,0,0,0,0.010732,1
22822,54.222,19.936,3.1131e-05,-0.035966,-5.6163e-08,22981,54.061,0,0,0,0,0.010732,1
22822,54.222,19.936,3.1131e-05,-0.035966,-5.6163e-08,22981,54.061,0,0,0,0,0.010732,1
22822,54.222,19.936,3.1131e-05,-0.035966,-5.6163e-08,22981,54.061,0,0,0,0,0.010732,1
22822,54.222,19.936,3.1131e-05,-0.035966,-5.6163e-08,22981,54.061,0,0,0,0,0.010732,1
22824,54.222,19.934,3.1127e-05,-0.036127,-5.6414e-08,22981,54.061,0,0,0,0,0.010813,1
22825,54.222,19.932,3.1124e-05,-0.036284,-5.666e-08,22981,54.061,0,0,0,0,0.010896,1
22825,54.222,19.932,3.1124e-05,-0.036284,-5.666e-08,22981,54.061,0,0,0,0,0.010896,1
22826,54.222,19.93,3.1122e-05,-0.036389,-5.6823e-08,22981,54.061,0,0,0,0,0.010951,1
22826,54.222,19.93,3.1122e-05,-0.036389,-5.6823e-08,22981,54.061,0,0,0,0,0.010951,1
22826,54.222,19.93,3.1122e-05,-0.036389,-5.6823e-08,22981,54.061,0,0,0,0,0.010951,1
22826,54.222,19.93,3.1122e-05,-0.036389,-5.6823e-08,22981,54.061,0,0,0,0,0.010951,1
22826,54.222,19.93,3.1122e-05,-0.036389,-5.6823e-08,22981,54.061,0,0,0,0,0.010951,1
22827,54.222,19.927,3.1117e-05,-0.036598,-5.7149e-08,22981,54.061,0,0,0,0,0.011065,1
22827,54.222,19.927,3.1117e-05,-0.036598,-5.7149e-08,22981,54.061,0,0,0,0,0.011065,1
22827,54.222,19.927,3.1117e-05,-0.036598,-5.7149e-08,22981,54.061,0,0,0,0,0.011065,1
22827,54.222,19.927,3.1117e-05,-0.036598,-5.7149e-08,22981,54.061,0,0,0,0,0.011065,1
22827,54.222,19.927,3.1117e-05,-0.036598,-5.7149e-08,22981,54.061,0,0,0,0,0.011065,1
22827,54.222,19.927,3.1117e-05,-0.036598,-5.7149e-08,22981,54.061,0,0,0,0,0.011065,1
22827,54.222,19.927,3.1117e-05,-0.036598,-5.7149e-08,22981,54.061,0,0,0,0,0.011065,1
22827,54.222,19.927,3.1117e-05,-0.036598,-5.7149e-08,22981,54.061,0,0,0,0,0.011065,1
22827,54.222,19.927,3.1117e-05,-0.036598,-5.7149e-08,22981,54.061,0,0,0,0,0.011065,1
22828,54.222,19.925,3.1114e-05,-0.036754,-5.7394e-08,22981,54.061,0,0,0,0,0.011151,1
22828,54.222,19.925,3.1114e-05,-0.036754,-5.7394e-08,22981,54.061,0,0,0,0,0.011151,1
22828,54.222,19.925,3.1114e-05,-0.036754,-5.7394e-08,22981,54.061,0,0,0,0,0.011151,1
22829,54.222,19.925,3.1113e-05,-0.036805,-5.7472e-08,22981,54.061,0,0,0,0,0.01118,1
22829,54.222,19.925,3.1113e-05,-0.036805,-5.7472e-08,22981,54.061,0,0,0,0,0.01118,1
22829,54.222,19.925,3.1113e-05,-0.036805,-5.7472e-08,22981,54.061,0,0,0,0,0.01118,1
22829,54.222,19.925,3.1113e-05,-0.036805,-5.7472e-08,22981,54.061,0,0,0,0,0.01118,1
22830,54.222,19.922,3.1108e-05,-0.037009,-5.7791e-08,22981,54.061,0,0,0,0,0.011298,1
22830,54.222,19.922,3.1108e-05,-0.037009,-5.7791e-08,22981,54.061,0,0,0,0,0.011298,1
22830,54.222,19.922,3.1108e-05,-0.037009,-5.7791e-08,22981,54.061,0,0,0,0,0.011298,1
22830,54.222,19.922,3.1108e-05,-0.037009,-5.7791e-08,22981,54.061,0,0,0,0,0.011298,1
22831,54.222,19.92,3.1106e-05,-0.037111,-5.7951e-08,22981,54.061,0,0,0,0,0.011358,1
22831,54.222,19.92,3.1106e-05,-0.037111,-5.7951e-08,22981,54.061,0,0,0,0,0.011358,1
22831,54.222,19.92,3.1106e-05,-0.037111,-5.7951e-08,22981,54.061,0,0,0,0,0.011358,1
22832,54.222,19.919,3.1104e-05,-0.037163,-5.8031e-08,22981,54.061,0,0,0,0,0.011389,1
22832,54.222,19.919,3.1104e-05,-0.037163,-5.8031e-08,22981,54.061,0,0,0,0,0.011389,1
22832,54.222,19.919,3.1103e-05,-0.037213,-5.811e-08,22981,54.061,0,0,0,0,0.011419,1
22832,54.222,19.919,3.1103e-05,-0.037213,-5.811e-08,22981,54.061,0,0,0,0,0.011419,1
22832,54.222,19.919,3.1103e-05,-0.037213,-5.811e-08,22981,54.061,0,0,0,0,0.011419,1
22832,54.222,19.919,3.1103e-05,-0.037213,-5.811e-08,22981,54.061,0,0,0,0,0.011419,1
22832,54.222,19.919,3.1103e-05,-0.037213,-5.811e-08,22981,54.061,0,0,0,0,0.011419,1
22832,54.222,19.919,3.1103e-05,-0.037213,-5.811e-08,22981,54.061,0,0,0,0,0.011419,1
22833,54.222,19.917,3.1101e-05,-0.037315,-5.8269e-08,22981,54.061,0,0,0,0,0.01148,1
22833,54.222,19.917,3.1101e-05,-0.037315,-5.8269e-08,22981,54.061,0,0,0,0,0.01148,1
22833,54.222,19.917,3.1101e-05,-0.037315,-5.8269e-08,22981,54.061,0,0,0,0,0.01148,1
22834,54.222,19.916,3.1099e-05,-0.037417,-5.8428e-08,22981,54.061,0,0,0,0,0.011542,1
22834,54.222,19.916,3.1099e-05,-0.037417,-5.8428e-08,22981,54.061,0,0,0,0,0.011542,1
22834,54.222,19.915,3.1097e-05,-0.037465,-5.8504e-08,22981,54.061,0,0,0,0,0.011573,1
22835,54.222,19.913,3.1095e-05,-0.037564,-5.8658e-08,22981,54.061,0,0,0,0,0.011636,1
22835,54.222,19.913,3.1095e-05,-0.037564,-5.8658e-08,22981,54.061,0,0,0,0,0.011636,1
22835,54.222,19.913,3.1095e-05,-0.037564,-5.8658e-08,22981,54.061,0,0,0,0,0.011636,1
22835,54.222,19.913,3.1095e-05,-0.037564,-5.8658e-08,22981,54.061,0,0,0,0,0.011636,1
22835,54.222,19.913,3.1094e-05,-0.037614,-5.8736e-08,22981,54.061,0,0,0,0,0.011668,1
22835,54.222,19.913,3.1094e-05,-0.037614,-5.8736e-08,22981,54.061,0,0,0,0,0.011668,1
22835,54.222,19.913,3.1094e-05,-0.037614,-5.8736e-08,22981,54.061,0,0,0,0,0.011668,1
22835,54.222,19.913,3.1094e-05,-0.037614,-5.8736e-08,22981,54.061,0,0,0,0,0.011668,1
22835,54.222,19.913,3.1094e-05,-0.037614,-5.8736e-08,22981,54.061,0,0,0,0,0.011668,1
22835,54.222,19.913,3.1094e-05,-0.037614,-5.8736e-08,22981,54.061,0,0,0,0,0.011668,1
22835,54.222,19.913,3.1094e-05,-0.037614,-5.8736e-08,22981,54.061,0,0,0,0,0.011668,1
22835,54.222,19.913,3.1094e-05,-0.037614,-5.8736e-08,22981,54.061,0,0,0,0,0.011668,1
22835,54.222,19.913,3.1094e-05,-0.037614,-5.8736e-08,22981,54.061,0,0,0,0,0.011668,1
22835,54.222,19.913,3.1094e-05,-0.037614,-5.8736e-08,22981,54.061,0,0,0,0,0.011668,1
22835,54.222,19.913,3.1094e-05,-0.037614,-5.8736e-08,22981,54.061,0,0,0,0,0.011668,1
22837,54.222,19.909,3.1088e-05,-0.03786,-5.9119e-08,22981,54.061,0,0,0,0,0.011829,1
22838,54.222,19.908,3.1087e-05,-0.037909,-5.9197e-08,22981,54.061,0,0,0,0,0.011862,1
22838,54.222,19.908,3.1087e-05,-0.037909,-5.9197e-08,22981,54.061,0,0,0,0,0.011862,1
22838,54.222,19.907,3.1085e-05,-0.038007,-5.9349e-08,22981,54.061,0,0,0,0,0.011928,1
22838,54.222,19.907,3.1085e-05,-0.038007,-5.9349e-08,22981,54.061,0,0,0,0,0.011928,1
22838,54.222,19.907,3.1085e-05,-0.038007,-5.9349e-08,22981,54.061,0,0,0,0,0.011928,1
22838,54.222,19.907,3.1085e-05,-0.038007,-5.9349e-08,22981,54.061,0,0,0,0,0.011928,1
22838,54.222,19.907,3.1085e-05,-0.038007,-5.9349e-08,22981,54.061,0,0,0,0,0.011928,1
22838,54.222,19.907,3.1085e-05,-0.038007,-5.9349e-08,22981,54.061,0,0,0,0,0.011928,1
22838,54.222,19.907,3.1085e-05,-0.038007,-5.9349e-08,22981,54.061,0,0,0,0,0.011928,1
22838,54.222,19.907,3.1085e-05,-0.038007,-5.9349e-08,22981,54.061,0,0,0,0,0.011928,1
22838,54.222,19.907,3.1085e-05,-0.038007,-5.9349e-08,22981,54.061,0,0,0,0,0.011928,1
22838,54.222,19.907,3.1085e-05,-0.038007,-5.9349e-08,22981,54.061,0,0,0,0,0.011928,1
22838,54.222,19.907,3.1085e-05,-0.038007,-5.9349e-08,22981,54.061,0,0,0,0,0.011928,1
22838,54.222,19.907,3.1085e-05,-0.038007,-5.9349e-08,22981,54.061,0,0,0,0,0.011928,1
22838,54.222,19.907,3.1085e-05,-0.038007,-5.9349e-08,22981,54.061,0,0,0,0,0.011928,1
22838,54.222,19.907,3.1085e-05,-0.038007,-5.9349e-08,22981,54.061,0,0,0,0,0.011928,1
22838,54.222,19.907,3.1085e-05,-0.038007,-5.9349e-08,22981,54.061,0,0,0,0,0.011928,1
22840,54.222,19.904,3.108e-05,-0.038202,-5.9654e-08,22981,54.061,0,0,0,0,0.012063,1
22840,54.222,19.904,3.108e-05,-0.038202,-5.9654e-08,22981,54.061,0,0,0,0,0.012063,1
22840,54.222,19.904,3.108e-05,-0.038202,-5.9654e-08,22981,54.061,0,0,0,0,0.012063,1
22841,54.222,19.902,3.1077e-05,-0.038299,-5.9805e-08,22981,54.061,0,0,0,0,0.012131,1
22841,54.222,19.902,3.1077e-05,-0.038299,-5.9805e-08,22981,54.061,0,0,0,0,0.012131,1
22842,54.222,19.9,3.1075e-05,-0.038396,-5.9956e-08,22981,54.061,0,0,0,0,0.0122,1
22842,54.222,19.9,3.1075e-05,-0.038396,-5.9956e-08,22981,54.061,0,0,0,0,0.0122,1
22843,54.222,19.898,3.1071e-05,-0.038539,-6.018e-08,22981,54.061,0,0,0,0,0.012305,1
22843,54.222,19.898,3.1071e-05,-0.038539,-6.018e-08,22981,54.061,0,0,0,0,0.012305,1
22843,54.222,19.898,3.1071e-05,-0.038539,-6.018e-08,22981,54.061,0,0,0,0,0.012305,1
22843,54.222,19.898,3.1071e-05,-0.038539,-6.018e-08,22981,54.061,0,0,0,0,0.012305,1
22843,54.222,19.898,3.1071e-05,-0.038539,-6.018e-08,22981,54.061,0,0,0,0,0.012305,1
22843,54.222,19.898,3.1071e-05,-0.038539,-6.018e-08,22981,54.061,0,0,0,0,0.012305,1
22843,54.222,19.898,3.1071e-05,-0.038539,-6.018e-08,22981,54.061,0,0,0,0,0.012305,1
22843,54.222,19.898,3.1071e-05,-0.038539,-6.018e-08,22981,54.061,0,0,0,0,0.012305,1
22843,54.222,19.898,3.1071e-05,-0.038539,-6.018e-08,22981,54.061,0,0,0,0,0.012305,1
22843,54.222,19.898,3.1071e-05,-0.038539,-6.018e-08,22981,54.061,0,0,0,0,0.012305,1
22843,54.222,19.898,3.1071e-05,-0.038539,-6.018e-08,22981,54.061,0,0,0,0,0.012305,1
22843,54.222,19.898,3.1071e-05,-0.038539,-6.018e-08,22981,54.061,0,0,0,0,0.012305,1
22843,54.222,19.898,3.1071e-05,-0.038539,-6.018e-08,22981,54.061,0,0,0,0,0.012305,1
22845,54.222,19.893,3.1064e-05,-0.038825,-6.0626e-08,22981,54.061,0,0,0,0,0.012521,1
22845,54.222,19.893,3.1064e-05,-0.038825,-6.0626e-08,22981,54.061,0,0,0,0,0.012521,1
22845,54.222,19.893,3.1064e-05,-0.038825,-6.0626e-08,22981,54.061,0,0,0,0,0.012521,1
22845,54.222,19.893,3.1064e-05,-0.038825,-6.0626e-08,22981,54.061,0,0,0,0,0.012521,1
22845,54.222,19.893,3.1064e-05,-0.038825,-6.0626e-08,22981,54.061,0,0,0,0,0.012521,1
22845,54.222,19.893,3.1064e-05,-0.038825,-6.0626e-08,22981,54.061,0,0,0,0,0.012521,1
22845,54.222,19.893,3.1064e-05,-0.038825,-6.0626e-08,22981,54.061,0,0,0,0,0.012521,1
22845,54.222,19.893,3.1064e-05,-0.038825,-6.0626e-08,22981,54.061,0,0,0,0,0.012521,1
22845,54.222,19.893,3.1064e-05,-0.038825,-6.0626e-08,22981,54.061,0,0,0,0,0.012521,1
22845,54.222,19.893,3.1064e-05,-0.038825,-6.0626e-08,22981,54.061,0,0,0,0,0.012521,1
22845,54.222,19.893,3.1064e-05,-0.038825,-6.0626e-08,22981,54.061,0,0,0,0,0.012521,1
22845,54.222,19.893,3.1064e-05,-0.038825,-6.0626e-08,22981,54.061,0,0,0,0,0.012521,1
22847,54.222,19.89,3.1058e-05,-0.039061,-6.0994e-08,22981,54.061,0,0,0,0,0.012706,1
22847,54.222,19.89,3.1058e-05,-0.039061,-6.0994e-08,22981,54.061,0,0,0,0,0.012706,1
22847,54.222,19.89,3.1058e-05,-0.039061,-6.0994e-08,22981,54.061,0,0,0,0,0.012706,1
22847,54.222,19.89,3.1058e-05,-0.039061,-6.0994e-08,22981,54.061,0,0,0,0,0.012706,1
22848,54.222,19.887,3.1054e-05,-0.0392,-6.1211e-08,22981,54.061,0,0,0,0,0.01282,1
22848,54.222,19.887,3.1054e-05,-0.0392,-6.1211e-08,22981,54.061,0,0,0,0,0.01282,1
22848,54.222,19.887,3.1054e-05,-0.0392,-6.1211e-08,22981,54.061,0,0,0,0,0.01282,1
22848,54.222,19.887,3.1054e-05,-0.0392,-6.1211e-08,22981,54.061,0,0,0,0,0.01282,1
22848,54.222,19.887,3.1054e-05,-0.0392,-6.1211e-08,22981,54.061,0,0,0,0,0.01282,1
22848,54.222,19.887,3.1054e-05,-0.0392,-6.1211e-08,22981,54.061,0,0,0,0,0.01282,1
22848,54.222,19.887,3.1054e-05,-0.0392,-6.1211e-08,22981,54.061,0,0,0,0,0.01282,1
22848,54.222,19.887,3.1054e-05,-0.0392,-6.1211e-08,22981,54.061,0,0,0,0,0.01282,1
22848,54.222,19.887,3.1054e-05,-0.0392,-6.1211e-08,22981,54.061,0,0,0,0,0.01282,1
22848,54.222,19.887,3.1054e-05,-0.0392,-6.1211e-08,22981,54.061,0,0,0,0,0.01282,1
22848,54.222,19.887,3.1054e-05,-0.0392,-6.1211e-08,22981,54.061,0,0,0,0,0.01282,1
22848,54.222,19.887,3.1054e-05,-0.0392,-6.1211e-08,22981,54.061,0,0,0,0,0.01282,1
22848,54.222,19.887,3.1054e-05,-0.0392,-6.1211e-08,22981,54.061,0,0,0,0,0.01282,1
22848,54.222,19.887,3.1054e-05,-0.0392,-6.1211e-08,22981,54.061,0,0,0,0,0.01282,1
22848,54.222,19.887,3.1054e-05,-0.0392,-6.1211e-08,22981,54.061,0,0,0,0,0.01282,1
22848,54.222,19.887,3.1054e-05,-0.0392,-6.1211e-08,22981,54.061,0,0,0,0,0.01282,1
22848,54.222,19.887,3.1054e-05,-0.0392,-6.1211e-08,22981,54.061,0,0,0,0,0.01282,1
22848,54.222,19.887,3.1054e-05,-0.0392,-6.1211e-08,22981,54.061,0,0,0,0,0.01282,1
22848,54.222,19.887,3.1054e-05,-0.0392,-6.1211e-08,22981,54.061,0,0,0,0,0.01282,1
22852,54.222,19.881,3.1045e-05,-0.039568,-6.1786e-08,22981,54.061,0,0,0,0,0.013135,1
22852,54.222,19.881,3.1045e-05,-0.039568,-6.1786e-08,22981,54.061,0,0,0,0,0.013135,1
22852,54.222,19.881,3.1045e-05,-0.039568,-6.1786e-08,22981,54.061,0,0,0,0,0.013135,1
22852,54.222,19.879,3.1042e-05,-0.039659,-6.1928e-08,22981,54.061,0,0,0,0,0.013216,1
22852,54.222,19.879,3.1042e-05,-0.039659,-6.1928e-08,22981,54.061,0,0,0,0,0.013216,1
22853,54.222,19.878,3.104e-05,-0.03975,-6.2069e-08,22981,54.061,0,0,0,0,0.013298,1
22853,54.222,19.878,3.104e-05,-0.03975,-6.2069e-08,22981,54.061,0,0,0,0,0.013298,1
22853,54.222,19.878,3.104e-05,-0.03975,-6.2069e-08,22981,54.061,0,0,0,0,0.013298,1
22853,54.222,19.878,3.104e-05,-0.03975,-6.2069e-08,22981,54.061,0,0,0,0,0.013298,1
22853,54.222,19.878,3.104e-05,-0.03975,-6.2069e-08,22981,54.061,0,0,0,0,0.013298,1
22853,54.222,19.878,3.104e-05,-0.03975,-6.2069e-08,22981,54.061,0,0,0,0,0.013298,1
22853,54.222,19.878,3.104e-05,-0.03975,-6.2069e-08,22981,54.061,0,0,0,0,0.013298,1
22853,54.222,19.878,3.104e-05,-0.03975,-6.2069e-08,22981,54.061,0,0,0,0,0.013298,1
22853,54.222,19.878,3.104e-05,-0.03975,-6.2069e-08,22981,54.061,0,0,0,0,0.013298,1
22853,54.222,19.878,3.104e-05,-0.03975,-6.2069e-08,22981,54.061,0,0,0,0,0.013298,1
22855,54.222,19.875,3.1035e-05,-0.03993,-6.235e-08,22981,54.061,0,0,0,0,0.013465,1
22855,54.222,19.875,3.1035e-05,-0.03993,-6.235e-08,22981,54.061,0,0,0,0,0.013465,1
22855,54.222,19.875,3.1035e-05,-0.03993,-6.235e-08,22981,54.061,0,0,0,0,0.013465,1
22855,54.222,19.874,3.1033e-05,-0.039975,-6.2421e-08,22981,54.061,0,0,0,0,0.013507,1
22855,54.222,19.874,3.1033e-05,-0.039975,-6.2421e-08,22981,54.061,0,0,0,0,0.013507,1
22856,54.222,19.873,3.1032e-05,-0.040022,-6.2494e-08,22981,54.061,0,0,0,0,0.01355,1
22856,54.222,19.873,3.1032e-05,-0.040022,-6.2494e-08,22981,54.061,0,0,0,0,0.01355,1
22856,54.222,19.873,3.1032e-05,-0.040022,-6.2494e-08,22981,54.061,0,0,0,0,0.01355,1
22856,54.222,19.871,3.1029e-05,-0.051159,-7.9884e-08,22981,54.061,0,0,0,0,0.013636,1
22856,54.222,19.871,3.1029e-05,-0.051159,-7.9884e-08,22981,54.061,0,0,0,0,0.013636,1
22856,54.222,19.871,3.1029e-05,-0.051159,-7.9884e-08,22981,54.061,0,0,0,0,0.013636,1
22856,54.222,19.871,3.1029e-05,-0.051159,-7.9884e-08,22981,54.061,0,0,0,0,0.013636,1
22856,54.222,19.871,3.1029e-05,-0.051159,-7.9884e-08,22981,54.061,0,0,0,0,0.013636,1
22856,54.222,19.871,3.1029e-05,-0.051159,-7.9884e-08,22981,54.061,0,0,0,0,0.013636,1
22856,54.222,19.871,3.1029e-05,-0.051159,-7.9884e-08,22981,54.061,0,0,0,0,0.013636,1
22856,54.222,19.871,3.1029e-05,-0.051159,-7.9884e-08,22981,54.061,0,0,0,0,0.013636,1
22859,54.222,19.862,3.1015e-05,-0.10186,-1.5905e-07,22981,54.061,0,0,0,0,0.013901,1
22859,54.222,19.862,3.1015e-05,-0.10186,-1.5905e-07,22981,54.061,0,0,0,0,0.013901,1
22859,54.222,19.862,3.1015e-05,-0.10186,-1.5905e-07,22981,54.061,0,0,0,0,0.013901,1
22859,54.222,19.862,3.1015e-05,-0.10186,-1.5905e-07,22981,54.061,0,0,0,0,0.013901,1
22859,54.222,19.862,3.1015e-05,-0.10186,-1.5905e-07,22981,54.061,0,0,0,0,0.013901,1
22859,54.222,19.862,3.1015e-05,-0.10186,-1.5905e-07,22981,54.061,0,0,0,0,0.013901,1
22859,54.222,19.862,3.1015e-05,-0.10186,-1.5905e-07,22981,54.061,0,0,0,0,0.013901,1
22859,54.222,19.862,3.1015e-05,-0.10186,-1.5905e-07,22981,54.061,0,0,0,0,0.013901,1
22859,54.222,19.862,3.1015e-05,-0.10186,-1.5905e-07,22981,54.061,0,0,0,0,0.013901,1
22859,54.222,19.862,3.1015e-05,-0.10186,-1.5905e-07,22981,54.061,0,0,0,0,0.013901,1
22859,54.222,19.862,3.1015e-05,-0.10186,-1.5905e-07,22981,54.061,0,0,0,0,0.013901,1
22859,54.222,19.862,3.1015e-05,-0.10186,-1.5905e-07,22981,54.061,0,0,0,0,0.013901,1
22859,54.222,19.862,3.1015e-05,-0.10186,-1.5905e-07,22981,54.061,0,0,0,0,0.013901,1
22859,54.222,19.862,3.1015e-05,-0.10186,-1.5905e-07,22981,54.061,0,0,0,0,0.013901,1
22860,54.222,19.855,3.1004e-05,-0.12573,-1.9632e-07,22981,54.061,0,0,0,0,0.014037,1
22860,54.222,19.855,3.1004e-05,-0.12573,-1.9632e-07,22981,54.061,0,0,0,0,0.014037,1
22860,54.222,19.855,3.1004e-05,-0.12573,-1.9632e-07,22981,54.061,0,0,0,0,0.014037,1
22860,54.222,19.855,3.1004e-05,-0.12573,-1.9632e-07,22981,54.061,0,0,0,0,0.014037,1
22860,54.222,19.855,3.1004e-05,-0.12573,-1.9632e-07,22981,54.061,0,0,0,0,0.014037,1
22860,54.222,19.855,3.1004e-05,-0.12573,-1.9632e-07,22981,54.061,0,0,0,0,0.014037,1
22861,54.222,19.844,3.0987e-05,-0.15624,-2.4398e-07,22981,54.061,0,0,0,0,0.014223,1
22861,54.222,19.844,3.0987e-05,-0.15624,-2.4398e-07,22981,54.061,0,0,0,0,0.014223,1
22863,54.222,19.834,3.0971e-05,-0.1783,-2.7841e-07,22981,54.061,0,0,0,0,0.014366,1
22863,54.222,19.834,3.0971e-05,-0.1783,-2.7841e-07,22981,54.061,0,0,0,0,0.014366,1
22863,54.222,19.834,3.0971e-05,-0.1783,-2.7841e-07,22981,54.061,0,0,0,0,0.014366,1
22863,54.222,19.834,3.0971e-05,-0.1783,-2.7841e-07,22981,54.061,0,0,0,0,0.014366,1
22863,54.222,19.834,3.0971e-05,-0.1783,-2.7841e-07,22981,54.061,0,0,0,0,0.014366,1
22863,54.222,19.834,3.0971e-05,-0.1783,-2.7841e-07,22981,54.061,0,0,0,0,0.014366,1
22863,54.222,19.834,3.0971e-05,-0.1783,-2.7841e-07,22981,54.061,0,0,0,0,0.014366,1
22863,54.222,19.834,3.0971e-05,-0.1783,-2.7841e-07,22981,54.061,0,0,0,0,0.014366,1
22863,54.222,19.834,3.0971e-05,-0.1783,-2.7841e-07,22981,54.061,0,0,0,0,0.014366,1
22863,54.222,19.834,3.0971e-05,-0.1783,-2.7841e-07,22981,54.061,0,0,0,0,0.014366,1
22864,54.222,19.818,3.0947e-05,-0.20827,-3.2522e-07,22981,54.061,0,0,0,0,0.01456,1
22864,54.222,19.818,3.0947e-05,-0.20827,-3.2522e-07,22981,54.061,0,0,0,0,0.01456,1
22864,54.222,19.818,3.0947e-05,-0.20827,-3.2522e-07,22981,54.061,0,0,0,0,0.01456,1
22865,54.222,19.814,3.094e-05,-0.21779,-3.4009e-07,22981,54.061,0,0,0,0,0.01461,1
22865,54.222,19.814,3.094e-05,-0.21779,-3.4009e-07,22981,54.061,0,0,0,0,0.01461,1
22865,54.222,19.81,3.0933e-05,-0.22736,-3.5503e-07,22981,54.061,0,0,0,0,0.01466,1
22865,54.222,19.805,3.0926e-05,-0.23697,-3.7004e-07,22981,54.061,0,0,0,0,0.01471,1
22867,54.222,19.79,3.0903e-05,-0.25584,-3.995e-07,22981,54.061,0.04,0,4,0,0.014892,1
22867,54.222,19.79,3.0903e-05,-0.25584,-3.995e-07,22981,54.061,0.04,0,4,0,0.014892,1
22867,54.222,19.79,3.0903e-05,-0.25584,-3.995e-07,22981,54.061,0.04,0,4,0,0.014892,1
22867,54.222,19.79,3.0903e-05,-0.25584,-3.995e-07,22981,54.061,0.04,0,4,0,0.014892,1
22867,54.222,19.79,3.0903e-05,-0.25584,-3.995e-07,22981,54.061,0.28,0.00012407,4,0.0043316,0.01507,1
22867,54.222,19.79,3.0903e-05,-0.25584,-3.995e-07,22981,54.061,0.28,0.00012407,4,0.0043316,0.01507,1
22867,54.222,19.79,3.0903e-05,-0.25584,-3.995e-07,22981,54.061,0.28,0.00012407,4,0.0043316,0.01507,1
22867,54.222,19.79,3.0903e-05,-0.25584,-3.995e-07,22981,54.061,0.28,0.00012407,4,0.0043316,0.01507,1
22867,54.222,19.79,3.0903e-05,-0.25584,-3.995e-07,22981,54.061,0.28,0.00012407,4,0.0043316,0.01507,1
22867,54.222,19.79,3.0903e-05,-0.25584,-3.995e-07,22981,54.061,0.28,0.00012407,4,0.0043316,0.01507,1
22867,54.222,19.79,3.0903e-05,-0.25584,-3.995e-07,22981,54.061,0.28,0.00012407,4,0.0043316,0.01507,1
22867,54.222,19.79,3.0903e-05,-0.25584,-3.995e-07,22981,54.061,0.36,0.00026293,4,0.0072798,0.01513,1
22867,54.222,19.79,3.0903e-05,-0.25584,-3.995e-07,22981,54.061,0.36,0.00026293,4,0.0072798,0.01513,1
22867,54.222,19.79,3.0903e-05,-0.25584,-3.995e-07,22981,54.061,0.36,0.00026293,4,0.0072798,0.01513,1
22867,54.222,19.79,3.0903e-05,-0.25584,-3.995e-07,22981,54.061,0.36,0.00026293,4,0.0072798,0.01513,1
22868,54.222,19.775,3.0879e-05,-0.25361,-3.9602e-07,22981,54.061,0.36,0.00026293,4,0.0072798,0.015288,1
22868,54.222,19.775,3.0879e-05,-0.25361,-3.9602e-07,22981,54.061,0.36,0.00026293,4,0.0072798,0.015288,1
22868,54.222,19.775,3.0879e-05,-0.25361,-3.9602e-07,22981,54.061,0.52,0.00076725,4,0.015172,0.015408,1
22868,54.222,19.775,3.0879e-05,-0.25361,-3.9602e-07,22981,54.061,0.52,0.00076725,4,0.015172,0.015408,1
22868,54.222,19.775,3.0879e-05,-0.25361,-3.9602e-07,22981,54.061,0.52,0.00076725,4,0.015172,0.015408,1
22869,54.222,19.755,3.0847e-05,-0.25022,-3.9073e-07,22981,54.061,0.68,0.0016558,4,0.025495,0.015748,1
22869,54.222,19.755,3.0847e-05,-0.25022,-3.9073e-07,22981,54.061,0.68,0.0016558,4,0.025495,0.015748,1
22869,54.222,19.755,3.0847e-05,-0.25022,-3.9073e-07,22981,54.061,0.83999,0.0030154,3.9999,0.037899,0.01587,1
22869,54.222,19.755,3.0847e-05,-0.25022,-3.9073e-07,22981,54.061,0.83999,0.0030154,3.9999,0.037899,0.01587,1
22869,54.222,19.755,3.0847e-05,-0.25022,-3.9073e-07,22981,54.061,0.99999,0.0049164,3.9998,0.051964,0.015992,1
22869,54.222,19.755,3.0847e-05,-0.25022,-3.9073e-07,22981,54.061,0.99999,0.0049164,3.9998,0.051964,0.015992,1
22869,54.222,19.755,3.0847e-05,-0.25022,-3.9073e-07,22981,54.061,0.99999,0.0049164,3.9998,0.051964,0.015992,1
22869,54.222,19.755,3.0847e-05,-0.25022,-3.9073e-07,22981,54.061,0.99999,0.0049164,3.9998,0.051964,0.015992,1
22871,54.222,19.73,3.0809e-05,-0.24553,-3.8341e-07,22981,54.061,0.99999,0.0049164,3.9998,0.051964,0.016279,1
22871,54.222,19.73,3.0809e-05,-0.24553,-3.8341e-07,22981,54.061,0.99999,0.0049164,3.9998,0.051964,0.016279,1
22871,54.222,19.73,3.0809e-05,-0.24553,-3.8341e-07,22981,54.061,0.99999,0.0049164,3.9998,0.051964,0.016279,1
22872,54.222,19.725,3.0801e-05,-0.24453,-3.8184e-07,22981,54.061,0.99999,0.0049164,3.9998,0.051964,0.016338,1
22872,54.222,19.72,3.0793e-05,-0.24351,-3.8025e-07,22981,54.061,0.99999,0.0049164,3.9998,0.051964,0.016397,1
22872,54.222,19.72,3.0793e-05,-0.24351,-3.8025e-07,22981,54.061,0.99999,0.0049164,3.9998,0.051964,0.016397,1
22872,54.222,19.72,3.0793e-05,-0.24351,-3.8025e-07,22981,54.061,0.99999,0.0049164,3.9998,0.051964,0.016397,1
22873,54.222,19.71,3.0778e-05,-0.2414,-3.7695e-07,22982,54.062,1.3999,0.012329,3.9994,0.091184,0.016831,1
22873,54.222,19.71,3.0778e-05,-0.2414,-3.7695e-07,22982,54.063,1.5599,0.0164,3.9991,0.10712,0.016957,1
22873,54.222,19.71,3.0778e-05,-0.2414,-3.7695e-07,22982,54.063,1.5599,0.0164,3.9991,0.10712,0.016957,1
22873,54.222,19.71,3.0778e-05,-0.2414,-3.7695e-07,22982,54.063,1.5599,0.0164,3.9991,0.10712,0.016957,1
22873,54.222,19.71,3.0778e-05,-0.2414,-3.7695e-07,22982,54.063,1.5599,0.0164,3.9991,0.10712,0.016957,1
22873,54.222,19.71,3.0778e-05,-0.2414,-3.7695e-07,22982,54.063,1.5599,0.0164,3.9991,0.10712,0.016957,1
22873,54.222,19.71,3.0778e-05,-0.2414,-3.7695e-07,22982,54.063,1.6399,0.018668,3.999,0.11487,0.01702,1
22873,54.222,19.71,3.0778e-05,-0.2414,-3.7695e-07,22982,54.064,1.7199,0.021084,3.9988,0.1224,0.017083,1
22873,54.222,19.71,3.0778e-05,-0.2414,-3.7695e-07,22982,54.064,1.7199,0.021084,3.9988,0.1224,0.017083,1
22873,54.222,19.71,3.0778e-05,-0.2414,-3.7695e-07,22982,54.064,1.7199,0.021084,3.9988,0.1224,0.017083,1
22873,54.222,19.71,3.0778e-05,-0.2414,-3.7695e-07,22982,54.064,1.7199,0.021084,3.9988,0.1224,0.017083,1
22873,54.222,19.71,3.0778e-05,-0.2414,-3.7695e-07,22982,54.064,1.7199,0.021084,3.9988,0.1224,0.017083,1
22875,54.222,19.687,3.0741e-05,-0.23571,-3.6807e-07,22982,54.064,1.7998,0.023643,3.9987,0.12965,0.017462,1
22875,54.222,19.687,3.0741e-05,-0.23571,-3.6807e-07,22982,54.065,1.9598,0.029163,3.9984,0.14304,0.017589,1
22875,54.222,19.687,3.0741e-05,-0.23571,-3.6807e-07,22982,54.065,1.9598,0.029163,3.9984,0.14304,0.017589,1
22875,54.222,19.687,3.0741e-05,-0.23571,-3.6807e-07,22982,54.065,1.9598,0.029163,3.9984,0.14304,0.017589,1
22875,54.222,19.687,3.0741e-05,-0.23571,-3.6807e-07,22982,54.066,2.0397,0.032107,3.9982,0.14908,0.017653,1
22876,54.222,19.668,3.0712e-05,-0.23073,-3.6029e-07,22982,54.066,2.1197,0.035159,3.998,0.15463,0.017982,1
22876,54.222,19.668,3.0712e-05,-0.23073,-3.6029e-07,22982,54.066,2.1197,0.035159,3.998,0.15463,0.017982,1
22876,54.222,19.668,3.0712e-05,-0.23073,-3.6029e-07,22982,54.066,2.1197,0.035159,3.998,0.15463,0.017982,1
22877,54.222,19.663,3.0705e-05,-0.22942,-3.5825e-07,22982,54.066,2.1197,0.035159,3.998,0.15463,0.018049,1
22877,54.222,19.663,3.0705e-05,-0.22942,-3.5825e-07,22982,54.066,2.1197,0.035159,3.998,0.15463,0.018049,1
22877,54.222,19.663,3.0705e-05,-0.22942,-3.5825e-07,22982,54.069,2.3596,0.044862,3.9976,0.16786,0.018243,1
22877,54.222,19.663,3.0705e-05,-0.22942,-3.5825e-07,22982,54.069,2.3596,0.044862,3.9976,0.16786,0.018243,1
22877,54.222,19.663,3.0705e-05,-0.22942,-3.5825e-07,22982,54.07,2.4395,0.048237,3.9974,0.17102,0.018308,1
22878,54.222,19.65,3.0683e-05,-0.22533,-3.5186e-07,22982,54.07,2.4395,0.048237,3.9974,0.17102,0.018516,1
22878,54.222,19.65,3.0683e-05,-0.22533,-3.5186e-07,22982,54.07,2.4395,0.048237,3.9974,0.17102,0.018516,1
22878,54.222,19.65,3.0683e-05,-0.22533,-3.5186e-07,22982,54.07,2.4395,0.048237,3.9974,0.17102,0.018516,1
22878,54.222,19.65,3.0683e-05,-0.22533,-3.5186e-07,22982,54.07,2.4395,0.048237,3.9974,0.17102,0.018516,1
22878,54.222,19.65,3.0683e-05,-0.22533,-3.5186e-07,22982,54.07,2.4395,0.048237,3.9974,0.17102,0.018516,1
22878,54.222,19.645,3.0676e-05,-0.22392,-3.4966e-07,22982,54.07,2.4395,0.048237,3.9974,0.17102,0.018586,1
22879,54.222,19.641,3.0669e-05,-0.22248,-3.474e-07,22982,54.07,2.4395,0.048237,3.9974,0.17102,0.018657,1
22879,54.222,19.641,3.0669e-05,-0.22248,-3.474e-07,22982,54.07,2.4395,0.048237,3.9974,0.17102,0.018657,1
22879,54.222,19.641,3.0669e-05,-0.22248,-3.474e-07,22982,54.07,2.4395,0.048237,3.9974,0.17102,0.018657,1
22879,54.222,19.641,3.0669e-05,-0.22248,-3.474e-07,22982,54.074,2.7593,0.062089,3.9971,0.17684,0.018919,1
22880,54.222,19.627,3.0649e-05,-0.21799,-3.404e-07,22982,54.074,2.7593,0.062089,3.9971,0.17684,0.019137,1
22880,54.222,19.627,3.0649e-05,-0.21799,-3.404e-07,22982,54.074,2.7593,0.062089,3.9971,0.17684,0.019137,1
22880,54.222,19.623,3.0642e-05,-0.21644,-3.3798e-07,22982,54.074,2.7593,0.062089,3.9971,0.17684,0.019211,1
22880,54.222,19.623,3.0642e-05,-0.21644,-3.3798e-07,22982,54.074,2.7593,0.062089,3.9971,0.17684,0.019211,1
22880,54.222,19.623,3.0642e-05,-0.21644,-3.3798e-07,22982,54.074,2.7593,0.062089,3.9971,0.17684,0.019211,1
22880,54.222,19.623,3.0642e-05,-0.21644,-3.3798e-07,22982,54.074,2.7593,0.062089,3.9971,0.17684,0.019211,1
22880,54.222,19.623,3.0642e-05,-0.21644,-3.3798e-07,22982,54.074,2.7593,0.062089,3.9971,0.17684,0.019211,1
22881,54.222,19.619,3.0635e-05,-0.21486,-3.3551e-07,22982,54.074,2.7593,0.062089,3.9971,0.17684,0.019285,1
22881,54.222,19.615,3.0628e-05,-0.21325,-3.33e-07,22982,54.074,2.7593,0.062089,3.9971,0.17684,0.01936,1
22881,54.222,19.615,3.0628e-05,-0.21325,-3.33e-07,22982,54.074,2.7593,0.062089,3.9971,0.17684,0.01936,1
22881,54.222,19.615,3.0628e-05,-0.21325,-3.33e-07,22983,54.083,3.239,0.082394,3.9971,0.16461,0.01976,1
22881,54.222,19.615,3.0628e-05,-0.21325,-3.33e-07,22983,54.083,3.239,0.082394,3.9971,0.16461,0.01976,1
22881,54.222,19.615,3.0628e-05,-0.21325,-3.33e-07,22983,54.083,3.239,0.082394,3.9971,0.16461,0.01976,1
22881,54.222,19.615,3.0628e-05,-0.21325,-3.33e-07,22983,54.083,3.239,0.082394,3.9971,0.16461,0.01976,1
22881,54.222,19.615,3.0628e-05,-0.21325,-3.33e-07,22983,54.086,3.3988,0.088606,3.9973,0.1553,0.019892,1
22881,54.222,19.615,3.0628e-05,-0.21325,-3.33e-07,22983,54.086,3.3988,0.088606,3.9973,0.1553,0.019892,1
22881,54.222,19.615,3.0628e-05,-0.21325,-3.33e-07,22983,54.086,3.3988,0.088606,3.9973,0.1553,0.019892,1
22883,54.222,19.598,3.0602e-05,-0.20654,-3.2252e-07,22983,54.086,3.3988,0.088606,3.9973,0.1553,0.020204,1
22883,54.222,19.594,3.0596e-05,-0.20479,-3.1979e-07,22983,54.086,3.3988,0.088606,3.9973,0.1553,0.020284,1
22883,54.222,19.594,3.0596e-05,-0.20479,-3.1979e-07,22983,54.086,3.3988,0.088606,3.9973,0.1553,0.020284,1
22884,54.222,19.585,3.0583e-05,-0.20121,-3.142e-07,22983,54.092,3.6387,0.097075,3.9978,0.13713,0.020647,1
22884,54.222,19.585,3.0583e-05,-0.20121,-3.142e-07,22983,54.092,3.6387,0.097075,3.9978,0.13713,0.020647,1
22884,54.222,19.585,3.0583e-05,-0.20121,-3.142e-07,22983,54.096,3.7986,0.10204,3.9981,0.12265,0.020781,1
22884,54.222,19.585,3.0583e-05,-0.20121,-3.142e-07,22983,54.096,3.7986,0.10204,3.9981,0.12265,0.020781,1
22884,54.222,19.585,3.0583e-05,-0.20121,-3.142e-07,22983,54.098,3.8786,0.10429,3.9984,0.11481,0.020849,1
22884,54.222,19.585,3.0583e-05,-0.20121,-3.142e-07,22983,54.1,3.9586,0.10639,3.9986,0.10664,0.020916,1
22884,54.222,19.585,3.0583e-05,-0.20121,-3.142e-07,22983,54.1,3.9586,0.10639,3.9986,0.10664,0.020916,1
22884,54.222,19.585,3.0583e-05,-0.20121,-3.142e-07,22983,54.1,3.9586,0.10639,3.9986,0.10664,0.020916,1
22884,54.222,19.585,3.0583e-05,-0.20121,-3.142e-07,22983,54.1,3.9586,0.10639,3.9986,0.10664,0.020916,1
