-2.8871,0.542,-5.0635,0.2911,-0.2187,1.195,-0.8314,0.6575,-4.1336,0.1811,-2.455,0.3804,-0.9987,0.2866,-0.2033,0.6338
-2.9193,0.5339,-5.0958,0.2759,-0.2464,1.1853,-0.8471,0.6518,-4.2028,0.2055,-2.4881,0.385,-0.9981,0.2468,-0.1244,0.6059
-2.9193,0.5339,-5.0958,0.2759,-0.2464,1.1853,-0.8471,0.6518,-4.2028,0.2055,-2.4881,0.385,-0.9981,0.2468,-0.1244,0.6059
-2.9193,0.5339,-5.0958,0.2759,-0.2464,1.1853,-0.8471,0.6518,-4.2028,0.2055,-2.4881,0.385,-0.9981,0.2468,-0.1244,0.6059
-2.9335,0.4999,-5.1058,0.2595,-0.2562,1.1499,-0.8885,0.6553,-4.2717,0.2299,-2.4948,0.3731,-1.0573,0.2545,-0.2033,0.6338
-2.9335,0.4999,-5.1058,0.2595,-0.2562,1.1499,-0.8885,0.6553,-4.2717,0.2299,-2.4948,0.3731,-1.0573,0.2545,-0.2033,0.6338
-2.9656,0.4918,-5.1219,0.2519,-0.2839,1.1403,-0.9299,0.6588,-4.2423,0.1876,-2.5015,0.3613,-1.1518,0.2748,-0.2819,0.6615
-2.9656,0.4918,-5.1219,0.2519,-0.2839,1.1403,-0.9299,0.6588,-4.2423,0.1876,-2.5015,0.3613,-1.1518,0.2748,-0.2819,0.6615
-2.9157,0.4742,-5.13,0.2482,-0.2384,1.1243,-0.9299,0.6588,-4.213,0.1453,-2.5345,0.3658,-1.1985,0.265,-0.3309,0.647
-2.9157,0.4742,-5.13,0.2482,-0.2384,1.1243,-0.9299,0.6588,-4.213,0.1453,-2.5345,0.3658,-1.1985,0.265,-0.3309,0.647
-2.9478,0.4661,-5.1663,0.2543,-0.2384,1.1243,-0.9711,0.6622,-4.2818,0.1696,-2.5674,0.3704,-1.245,0.2552,-0.3017,0.6048
-2.9478,0.4661,-5.1663,0.2543,-0.2384,1.1243,-0.9711,0.6622,-4.2818,0.1696,-2.5674,0.3704,-1.245,0.2552,-0.3017,0.6048
-2.9976,0.4837,-5.1884,0.2555,-0.2661,1.1147,-0.9866,0.6565,-4.3211,0.1517,-2.5938,0.3655,-1.3033,0.2627,-0.2234,0.5772
-2.9976,0.4837,-5.1884,0.2555,-0.2661,1.1147,-0.9866,0.6565,-4.3211,0.1517,-2.5938,0.3655,-1.3033,0.2627,-0.2234,0.5772
-2.9798,0.458,-5.2184,0.2529,-0.2937,1.1051,-0.9662,0.6271,-4.3211,0.1517,-2.5873,0.3561,-1.3265,0.2578,-0.1448,0.5494
-2.9798,0.458,-5.2184,0.2529,-0.2937,1.1051,-0.9662,0.6271,-4.3211,0.1517,-2.5873,0.3561,-1.3265,0.2578,-0.1448,0.5494
-3.0295,0.4756,-5.2485,0.2503,-0.3389,1.1211,-0.9816,0.6214,-4.4285,0.1579,-2.6267,0.3488,-1.3606,0.2307,-0.1942,0.5351
-3.0295,0.4756,-5.2485,0.2503,-0.3389,1.1211,-0.9816,0.6214,-4.4285,0.1579,-2.6267,0.3488,-1.3606,0.2307,-0.1942,0.5351
-3.0295,0.4756,-5.2485,0.2503,-0.3389,1.1211,-0.9816,0.6214,-4.4285,0.1579,-2.6267,0.3488,-1.3606,0.2307,-0.1942,0.5351
-3.0932,0.4594,-5.2864,0.2439,-0.3035,1.07,-1.0125,0.6102,-4.4964,0.1819,-2.653,0.3439,-1.4066,0.2209,-0.1942,0.5351
-3.0932,0.4594,-5.2864,0.2439,-0.3035,1.07,-1.0125,0.6102,-4.4964,0.1819,-2.653,0.3439,-1.4066,0.2209,-0.1942,0.5351
-3.0932,0.4594,-5.2864,0.2439,-0.3035,1.07,-1.0125,0.6102,-4.4964,0.1819,-2.653,0.3439,-1.4066,0.2209,-0.1942,0.5351
-3.1072,0.4258,-5.36,0.2436,-0.3487,1.086,-1.0535,0.6136,-4.6412,0.1698,-2.6858,0.3272,-1.4862,0.1842,-0.3995,0.576
-3.1072,0.4258,-5.36,0.2436,-0.3487,1.086,-1.0535,0.6136,-4.6412,0.1698,-2.6858,0.3272,-1.4862,0.1842,-0.3995,0.576
-3.1072,0.4258,-5.36,0.2436,-0.3487,1.086,-1.0535,0.6136,-4.6412,0.1698,-2.6858,0.3272,-1.4862,0.1842,-0.3995,0.576
-3.0577,0.4084,-5.3819,0.2447,-0.3212,1.0956,-1.0689,0.6079,-4.6795,0.1519,-2.7119,0.3224,-1.5664,0.1867,-0.4771,0.6034
-3.0401,0.3829,-5.3977,0.2372,-0.3664,1.1115,-1.0843,0.6023,-4.7558,0.1161,-2.738,0.3175,-1.6343,0.1721,-0.6026,0.6162
-3.0401,0.3829,-5.3977,0.2372,-0.3664,1.1115,-1.0843,0.6023,-4.7558,0.1161,-2.738,0.3175,-1.6343,0.1721,-0.6026,0.6162
-3.0401,0.3829,-5.4134,0.2296,-0.3938,1.1019,-1.0996,0.5967,-4.6889,0.0925,-2.7575,0.3244,-1.6451,0.1501,-0.5254,0.589
-3.0401,0.3829,-5.4134,0.2296,-0.3938,1.1019,-1.0996,0.5967,-4.6889,0.0925,-2.7575,0.3244,-1.6451,0.1501,-0.5254,0.589
-3.0401,0.3829,-5.4134,0.2296,-0.3938,1.1019,-1.0996,0.5967,-4.6889,0.0925,-2.7575,0.3244,-1.6451,0.1501,-0.5254,0.589
-3.0543,0.3495,-5.4509,0.2232,-0.4484,1.0828,-1.1303,0.5854,-4.6602,0.0511,-2.7705,0.322,-1.6902,0.1404,-0.5736,0.5745
-3.0543,0.3495,-5.4509,0.2232,-0.4484,1.0828,-1.1303,0.5854,-4.6602,0.0511,-2.7705,0.322,-1.6902,0.1404,-0.5736,0.5745
-3.0543,0.3495,-5.4509,0.2232,-0.4484,1.0828,-1.1303,0.5854,-4.6602,0.0511,-2.7705,0.322,-1.6902,0.1404,-0.5736,0.5745
-3.0719,0.3749,-5.4823,0.2081,-0.4308,1.0574,-1.1201,0.5708,-4.7651,0.057,-2.8418,0.319,-1.7799,0.1209,-0.6983,0.5871
-3.0719,0.3749,-5.4823,0.2081,-0.4308,1.0574,-1.1201,0.5708,-4.7651,0.057,-2.8418,0.319,-1.7799,0.1209,-0.6983,0.5871
-3.1212,0.3924,-5.498,0.2006,-0.4581,1.0479,-1.1354,0.5652,-4.8031,0.0393,-2.8934,0.3303,-1.8362,0.1281,-0.6695,0.5456
-3.1212,0.3924,-5.498,0.2006,-0.4581,1.0479,-1.1354,0.5652,-4.8031,0.0393,-2.8934,0.3303,-1.8362,0.1281,-0.6695,0.5456
-3.1704,0.4098,-5.5214,0.1893,-0.5028,1.0637,-1.1507,0.5596,-4.8316,0.0805,-2.8999,0.3185,-1.8585,0.1232,-0.6983,0.5871
-3.1704,0.4098,-5.543,0.1904,-0.5028,1.0637,-1.1862,0.5831,-4.898,0.1039,-2.9192,0.3044,-1.8912,0.0966,-0.7747,0.6141
-3.1704,0.4098,-5.543,0.1904,-0.5028,1.0637,-1.1862,0.5831,-4.898,0.1039,-2.9192,0.3044,-1.8912,0.0966,-0.7747,0.6141
-3.1704,0.4098,-5.543,0.1904,-0.5028,1.0637,-1.1862,0.5831,-4.898,0.1039,-2.9192,0.3044,-1.8912,0.0966,-0.7747,0.6141
-3.1844,0.3764,-5.5664,0.1791,-0.5745,1.0699,-1.2267,0.5865,-4.9355,0.0861,-2.9578,0.297,-1.9355,0.0869,-0.8221,0.5996
-3.1844,0.3764,-5.5664,0.1791,-0.5745,1.0699,-1.2267,0.5865,-4.9355,0.0861,-2.9578,0.297,-1.9355,0.0869,-0.8221,0.5996
-3.1844,0.3764,-5.5664,0.1791,-0.5745,1.0699,-1.2267,0.5865,-4.9355,0.0861,-2.9578,0.297,-1.9355,0.0869,-0.8221,0.5996
-3.2473,0.3604,-5.6035,0.1727,-0.6285,1.0509,-1.2823,0.5841,-4.973,0.0683,-2.9834,0.2921,-2.0249,0.1058,-0.8221,0.5996
-3.2786,0.3524,-5.6328,0.17,-0.611,1.0257,-1.3226,0.5874,-5.0104,0.0506,-3.0218,0.2848,-2.0688,0.096,-0.8693,0.585
-3.2786,0.3524,-5.6328,0.17,-0.611,1.0257,-1.3226,0.5874,-5.0104,0.0506,-3.0218,0.2848,-2.0688,0.096,-0.8693,0.585
-3.2786,0.3524,-5.6328,0.17,-0.611,1.0257,-1.3226,0.5874,-5.0104,0.0506,-3.0218,0.2848,-2.0688,0.096,-0.8693,0.585
-3.3099,0.3444,-5.6756,0.1722,-0.6379,1.0162,-1.3528,0.5761,-4.982,0.0097,-3.0474,0.2799,-2.1126,0.0863,-0.8407,0.5437
-3.2437,0.3021,-5.6893,0.177,-0.6205,0.991,-1.3779,0.585,-4.9446,0.0273,-3.0601,0.2774,-2.0908,0.0911,-0.7648,0.5169
-3.2437,0.3021,-5.6893,0.177,-0.6205,0.991,-1.3779,0.585,-4.9446,0.0273,-3.0601,0.2774,-2.0908,0.0911,-0.7648,0.5169
-3.2611,0.3272,-5.6953,0.1856,-0.6205,0.991,-1.3528,0.5761,-4.9446,0.0273,-3.0665,0.2867,-2.0921,0.1295,-0.7648,0.5169
-3.2611,0.3272,-5.6953,0.1856,-0.6205,0.991,-1.3528,0.5761,-4.9446,0.0273,-3.0665,0.2867,-2.0921,0.1295,-0.7648,0.5169
-3.1493,0.3258,-5.6584,0.1921,-0.5491,0.9848,-1.3226,0.5874,-4.9071,0.045,-3.0538,0.2891,-1.9705,0.1373,-0.7648,0.5169
-3.1493,0.3258,-5.6584,0.1921,-0.5491,0.9848,-1.3226,0.5874,-4.9071,0.045,-3.0538,0.2891,-1.9705,0.1373,-0.7648,0.5169
-3.0224,0.3575,-5.5706,0.2001,-0.423,0.9973,-1.2368,0.601,-4.8316,0.0805,-3.0027,0.2989,-1.8046,0.1937,-0.6695,0.5456
-3.0224,0.3575,-5.5706,0.2001,-0.423,0.9973,-1.2368,0.601,-4.8316,0.0805,-3.0027,0.2989,-1.8046,0.1937,-0.6695,0.5456
-3.0224,0.3575,-5.5706,0.2001,-0.423,0.9973,-1.2368,0.601,-4.8316,0.0805,-3.0027,0.2989,-1.8046,0.1937,-0.6695,0.5456
-2.9088,0.3558,-5.4883,0.2168,-0.2782,0.9843,-1.1505,0.6146,-4.6889,0.0925,-2.9064,0.3068,-1.602,0.2381,-0.5736,0.5745
-2.9088,0.3558,-5.4883,0.2168,-0.2782,0.9843,-1.1505,0.6146,-4.6889,0.0925,-2.9064,0.3068,-1.602,0.2381,-0.5736,0.5745
-2.6645,0.3854,-5.2724,0.239,-0.0662,1.0247,-0.9764,0.6418,-4.4674,0.14,-2.7249,0.3199,-1.1993,0.3047,-0.5061,0.6454
-2.6645,0.3854,-5.2724,0.239,-0.0662,1.0247,-0.9764,0.6418,-4.4674,0.14,-2.7249,0.3199,-1.1993,0.3047,-0.5061,0.6454
-2.6645,0.3854,-5.2724,0.239,-0.0662,1.0247,-0.9764,0.6418,-4.4674,0.14,-2.7249,0.3199,-1.1993,0.3047,-0.5061,0.6454
-2.6318,0.3933,-5.2044,0.248,-0.0559,1.0598,-0.9454,0.6531,-4.3211,0.1517,-2.64,0.3252,-1.0587,0.3343,-0.409,0.6746
-2.6318,0.3933,-5.2044,0.248,-0.0559,1.0598,-0.9454,0.6531,-4.3211,0.1517,-2.64,0.3252,-1.0587,0.3343,-0.409,0.6746
-2.6318,0.3933,-5.2044,0.248,-0.0559,1.0598,-0.9454,0.6531,-4.3211,0.1517,-2.64,0.3252,-1.0587,0.3343,-0.409,0.6746
-2.4974,0.3653,-5.12,0.2645,-0.0457,1.095,-0.8729,0.661,-4.0938,0.1991,-2.5412,0.354,-0.893,0.3688,-0.1832,0.6907
-2.4974,0.3653,-5.12,0.2645,-0.0457,1.095,-0.8729,0.661,-4.0938,0.1991,-2.5412,0.354,-0.893,0.3688,-0.1832,0.6907
-2.4974,0.3653,-5.0978,0.2633,-0.0457,1.095,-0.8212,0.6427,-4.0243,0.1745,-2.528,0.3564,-0.8692,0.3738,-0.2127,0.7333
-2.4974,0.3653,-5.0978,0.2633,-0.0457,1.095,-0.8212,0.6427,-4.0243,0.1745,-2.528,0.3564,-0.8692,0.3738,-0.2127,0.7333
-2.4974,0.3653,-5.0978,0.2633,-0.0457,1.095,-0.8212,0.6427,-4.0243,0.1745,-2.528,0.3564,-0.8692,0.3738,-0.2127,0.7333
-2.5662,0.4091,-5.1058,0.2595,0.0002,1.0787,-0.7952,0.6335,-4.0243,0.1745,-2.5215,0.347,-0.8692,0.3738,-0.1336,0.7053
-2.5662,0.4091,-5.1139,0.2557,0.0002,1.0787,-0.8212,0.6427,-4.1336,0.1811,-2.5414,0.3328,-0.8807,0.3512,-0.1832,0.6907
-2.5662,0.4091,-5.1139,0.2557,0.0002,1.0787,-0.8212,0.6427,-4.1336,0.1811,-2.5414,0.3328,-0.8807,0.3512,-0.1832,0.6907
-2.5662,0.4091,-5.1139,0.2557,0.0002,1.0787,-0.8212,0.6427,-4.1336,0.1811,-2.5414,0.3328,-0.8807,0.3512,-0.1832,0.6907
-2.6496,0.4191,-5.138,0.2444,-0.0737,1.0854,-0.8471,0.6518,-4.1336,0.1811,-2.5481,0.321,-0.8685,0.3335,-0.2621,0.7186
-2.6496,0.4191,-5.138,0.2444,-0.0737,1.0854,-0.8471,0.6518,-4.1336,0.1811,-2.5481,0.321,-0.8685,0.3335,-0.2621,0.7186
-2.599,0.4012,-5.148,0.2281,-0.0279,1.0692,-0.8729,0.661,-4.1336,0.1811,-2.5613,0.3186,-0.9283,0.3413,-0.2326,0.6761
-2.599,0.4012,-5.148,0.2281,-0.0559,1.0598,-0.8627,0.6462,-4.0938,0.1991,-2.5481,0.321,-0.9283,0.3413,-0.1832,0.6907
-2.599,0.4012,-5.148,0.2281,-0.0559,1.0598,-0.8627,0.6462,-4.0938,0.1991,-2.5481,0.321,-0.9283,0.3413,-0.1832,0.6907
-2.599,0.4012,-5.148,0.2281,-0.0559,1.0598,-0.8627,0.6462,-4.0938,0.1991,-2.5481,0.321,-0.9283,0.3413,-0.1832,0.6907
-2.599,0.4012,-5.148,0.2281,-0.0559,1.0598,-0.8627,0.6462,-4.0938,0.1991,-2.5481,0.321,-0.9283,0.3413,-0.1832,0.6907
-2.5811,0.3754,-5.148,0.2281,-0.0559,1.0598,-0.8627,0.6462,-4.0938,0.1991,-2.5481,0.321,-0.9283,0.3413,-0.1832,0.6907
-2.5811,0.3754,-5.148,0.2281,-0.0559,1.0598,-0.8627,0.6462,-4.0938,0.1991,-2.5481,0.321,-0.9283,0.3413,-0.1832,0.6907
-2.5304,0.3575,-5.1541,0.2368,-0.0101,1.0436,-0.8368,0.6371,-4.0243,0.1745,-2.5546,0.3304,-0.9643,0.354,-0.1041,0.6628
-2.4795,0.3395,-5.138,0.2444,0.0181,1.053,-0.8212,0.6427,-4.0243,0.1745,-2.5414,0.3328,-0.9643,0.354,-0.1041,0.6628
-2.4795,0.3395,-5.138,0.2444,0.0181,1.053,-0.8212,0.6427,-4.0243,0.1745,-2.5414,0.3328,-0.9643,0.354,-0.1041,0.6628
-2.4795,0.3395,-5.138,0.2444,0.0181,1.053,-0.8212,0.6427,-4.0243,0.1745,-2.5414,0.3328,-0.9643,0.354,-0.1041,0.6628
-2.4974,0.3653,-5.138,0.2444,0.0181,1.053,-0.8212,0.6427,-4.0243,0.1745,-2.5347,0.3446,-0.9521,0.3364,-0.1041,0.6628
-2.4974,0.3653,-5.1239,0.2394,0.0641,1.0368,-0.8212,0.6427,-4.0538,0.2171,-2.5215,0.347,-0.9521,0.3364,0.0047,0.5923
-2.4974,0.3653,-5.1239,0.2394,0.0641,1.0368,-0.8212,0.6427,-4.0538,0.2171,-2.5215,0.347,-0.9521,0.3364,0.0047,0.5923
-2.4974,0.3653,-5.138,0.2444,0.1102,1.0205,-0.8471,0.6518,-4.0834,0.2598,-2.5017,0.34,-0.9521,0.3364,-0.1041,0.6628
-2.4974,0.3653,-5.138,0.2444,0.1102,1.0205,-0.8471,0.6518,-4.0834,0.2598,-2.5017,0.34,-0.9521,0.3364,-0.1041,0.6628
-2.4974,0.3653,-5.138,0.2444,0.1102,1.0205,-0.8471,0.6518,-4.0834,0.2598,-2.5017,0.34,-0.9521,0.3364,-0.1041,0.6628
-2.4974,0.3653,-5.138,0.2444,0.1102,1.0205,-0.8471,0.6518,-4.0834,0.2598,-2.5017,0.34,-0.9521,0.3364,-0.1041,0.6628
-2.4285,0.3215,-5.14,0.2318,0.0462,1.0625,-0.8729,0.661,-4.1926,0.2661,-2.4952,0.3306,-1.023,0.3217,-0.1832,0.6907
-2.4285,0.3215,-5.14,0.2318,0.0462,1.0625,-0.8729,0.661,-4.1926,0.2661,-2.4952,0.3306,-1.023,0.3217,-0.1832,0.6907
-2.4285,0.3215,-5.1621,0.233,0.0002,1.0787,-0.8885,0.6553,-4.1631,0.2236,-2.4952,0.3306,-1.0466,0.3168,-0.1832,0.6907
-2.4285,0.3215,-5.1621,0.233,0.0002,1.0787,-0.8885,0.6553,-4.1631,0.2236,-2.4952,0.3306,-1.0466,0.3168,-0.1832,0.6907
-2.4285,0.3215,-5.1621,0.233,0.0002,1.0787,-0.8885,0.6553,-4.1631,0.2236,-2.4952,0.3306,-1.0466,0.3168,-0.1832,0.6907
-2.4285,0.3215,-5.1842,0.2342,-0.0279,1.0692,-0.8885,0.6553,-4.2028,0.2055,-2.5084,0.3282,-1.0701,0.3118,-0.2621,0.7186
-2.4285,0.3215,-5.1842,0.2342,-0.0279,1.0692,-0.8885,0.6553,-4.2028,0.2055,-2.5084,0.3282,-1.0701,0.3118,-0.2621,0.7186
-2.4285,0.3215,-5.1842,0.2342,-0.0279,1.0692,-0.8885,0.6553,-4.2028,0.2055,-2.5084,0.3282,-1.0701,0.3118,-0.2621,0.7186
-2.3954,0.3293,-5.2363,0.2328,-0.0279,1.0692,-0.8783,0.6405,-4.3111,0.2118,-2.5611,0.3397,-1.1639,0.2922,-0.3407,0.7463
-2.3954,0.3293,-5.2363,0.2328,-0.0279,1.0692,-0.8783,0.6405,-4.3111,0.2118,-2.5611,0.3397,-1.1639,0.2922,-0.3407,0.7463
-2.4464,0.3473,-5.2603,0.2215,-0.0279,1.0692,-0.868,0.6258,-4.3796,0.2361,-2.5743,0.3373,-1.2105,0.2824,-0.3112,0.7039
-2.4464,0.3473,-5.2603,0.2215,-0.0279,1.0692,-0.868,0.6258,-4.3796,0.2361,-2.5743,0.3373,-1.2105,0.2824,-0.3112,0.7039
-2.4464,0.3473,-5.2902,0.2189,-0.0101,1.0436,-0.8836,0.6201,-4.3796,0.2361,-2.5874,0.3349,-1.1985,0.265,-0.3407,0.7463
-2.4795,0.3395,-5.308,0.1989,-0.0381,1.0341,-0.9249,0.6236,-4.3796,0.2361,-2.5941,0.3231,-1.257,0.2726,-0.3407,0.7463
-2.4795,0.3395,-5.308,0.1989,-0.0381,1.0341,-0.9249,0.6236,-4.3796,0.2361,-2.5941,0.3231,-1.257,0.2726,-0.3407,0.7463
-2.4795,0.3395,-5.308,0.1989,-0.0381,1.0341,-0.9249,0.6236,-4.3796,0.2361,-2.5941,0.3231,-1.257,0.2726,-0.3407,0.7463
-2.5125,0.3317,-5.3238,0.1914,-0.0204,1.0086,-0.9507,0.6327,-4.4187,0.218,-2.6269,0.3276,-1.2682,0.2503,-0.3896,0.7316
-2.5125,0.3317,-5.3238,0.1914,-0.0204,1.0086,-0.9507,0.6327,-4.4187,0.218,-2.6269,0.3276,-1.2682,0.2503,-0.3896,0.7316
-2.5783,0.3162,-5.3536,0.1888,-0.1118,1.0409,-1.0175,0.6452,-4.4964,0.1819,-2.6466,0.3134,-1.3375,0.2356,-0.409,0.6746
-2.5783,0.3162,-5.3536,0.1888,-0.1118,1.0409,-1.0175,0.6452,-4.4964,0.1819,-2.6466,0.3134,-1.3375,0.2356,-0.409,0.6746
-2.5783,0.3162,-5.3536,0.1888,-0.1118,1.0409,-1.0175,0.6452,-4.4964,0.1819,-2.6466,0.3134,-1.3375,0.2356,-0.409,0.6746
-2.5933,0.2828,-5.3694,0.1813,-0.0941,1.0153,-1.0329,0.6395,-4.4285,0.1579,-2.6662,0.3203,-1.3726,0.248,-0.4383,0.7168
-2.5933,0.2828,-5.3694,0.1813,-0.0941,1.0153,-1.0329,0.6395,-4.4285,0.1579,-2.6662,0.3203,-1.3726,0.248,-0.4383,0.7168
-2.5933,0.2828,-5.3972,0.1911,-0.0484,0.9992,-1.0329,0.6395,-4.4674,0.14,-2.6924,0.3155,-1.4534,0.2505,-0.409,0.6746
-2.5756,0.2573,-5.419,0.1923,-0.0941,1.0153,-1.0739,0.6429,-4.4384,0.0982,-2.7249,0.3199,-1.4991,0.2406,-0.409,0.6746
-2.5756,0.2573,-5.419,0.1923,-0.0941,1.0153,-1.0739,0.6429,-4.4384,0.0982,-2.7249,0.3199,-1.4991,0.2406,-0.409,0.6746
-2.5756,0.2573,-5.4486,0.1897,-0.122,1.0059,-1.0637,0.6282,-4.4094,0.0565,-2.751,0.3151,-1.5447,0.2308,-0.3798,0.6324
-2.5756,0.2573,-5.4486,0.1897,-0.122,1.0059,-1.0637,0.6282,-4.4094,0.0565,-2.751,0.3151,-1.5447,0.2308,-0.3798,0.6324
-2.6083,0.2496,-5.492,0.1919,-0.122,1.0059,-1.0791,0.6226,-4.4772,0.0804,-2.777,0.3102,-1.5437,0.1916,-0.3798,0.6324
-2.6083,0.2496,-5.492,0.1919,-0.122,1.0059,-1.0791,0.6226,-4.4772,0.0804,-2.777,0.3102,-1.5437,0.1916,-0.3798,0.6324
-2.6083,0.2496,-5.5155,0.1806,-0.1043,0.9804,-1.1046,0.6316,-4.5448,0.1043,-2.803,0.3053,-1.6009,0.1989,-0.3507,0.5904
-2.6083,0.2496,-5.5155,0.1806,-0.1043,0.9804,-1.1046,0.6316,-4.5448,0.1043,-2.803,0.3053,-1.6009,0.1989,-0.3507,0.5904
-2.6913,0.2597,-5.5311,0.1731,-0.0867,0.955,-1.1199,0.6259,-4.6123,0.1281,-2.8289,0.3005,-1.6117,0.1769,-0.4577,0.66
-2.7414,0.2774,-5.5604,0.1705,-0.1322,0.9711,-1.1454,0.6349,-4.7177,0.134,-2.8677,0.2932,-1.6795,0.1623,-0.6606,0.6999
-2.7414,0.2774,-5.5604,0.1705,-0.1322,0.9711,-1.1454,0.6349,-4.7177,0.134,-2.8677,0.2932,-1.6795,0.1623,-0.6606,0.6999
-2.7414,0.2774,-5.5604,0.1705,-0.1322,0.9711,-1.1454,0.6349,-4.7177,0.134,-2.8677,0.2932,-1.6795,0.1623,-0.6606,0.6999
-2.7061,0.2266,-5.5778,0.1506,-0.1878,0.9524,-1.176,0.6236,-4.7558,0.1161,-2.8742,0.2815,-1.7244,0.1525,-0.6316,0.658
-2.7061,0.2266,-5.5778,0.1506,-0.1878,0.9524,-1.176,0.6236,-4.7558,0.1161,-2.8742,0.2815,-1.7244,0.1525,-0.6316,0.658
-2.7562,0.2442,-5.5856,0.1469,-0.16,0.9617,-1.1505,0.6146,-4.7271,0.0747,-2.9,0.2766,-1.7469,0.1476,-0.7084,0.6852
-2.7738,0.2696,-5.6071,0.148,-0.1878,0.9524,-1.1404,0.6,-4.7558,0.1161,-2.9193,0.2834,-1.7693,0.1427,-0.6606,0.6999
-2.7738,0.2696,-5.6071,0.148,-0.1878,0.9524,-1.1404,0.6,-4.7558,0.1161,-2.9193,0.2834,-1.7693,0.1427,-0.6606,0.6999
-2.7738,0.2696,-5.6071,0.148,-0.1878,0.9524,-1.1404,0.6,-4.7558,0.1161,-2.9193,0.2834,-1.7693,0.1427,-0.6606,0.6999
-2.8061,0.2619,-5.6363,0.1454,-0.2155,0.9431,-1.1557,0.5944,-4.7938,0.0983,-2.9514,0.2878,-1.8257,0.1499,-0.6316,0.658
-2.8061,0.2619,-5.6363,0.1454,-0.2155,0.9431,-1.1557,0.5944,-4.7938,0.0983,-2.9514,0.2878,-1.8257,0.1499,-0.6316,0.658
-2.8061,0.2619,-5.6363,0.1454,-0.2155,0.9431,-1.1557,0.5944,-4.7938,0.0983,-2.9514,0.2878,-1.8257,0.1499,-0.6316,0.658
-2.8559,0.2795,-5.6578,0.1465,-0.2606,0.959,-1.1811,0.6034,-4.8316,0.0805,-2.977,0.2829,-1.8702,0.1401,-0.6316,0.658
-2.8559,0.2795,-5.6578,0.1465,-0.2606,0.959,-1.1811,0.6034,-4.8316,0.0805,-2.977,0.2829,-1.8702,0.1401,-0.6316,0.658
-2.8559,0.2795,-5.6578,0.1465,-0.2606,0.959,-1.1811,0.6034,-4.8316,0.0805,-2.977,0.2829,-1.8702,0.1401,-0.6316,0.658
-2.8033,0.2035,-5.6887,0.1315,-0.3157,0.9404,-1.2368,0.601,-4.8316,0.0805,-3.0154,0.2756,-1.9367,0.1254,-0.6316,0.658
-2.8033,0.2035,-5.6887,0.1315,-0.3157,0.9404,-1.2368,0.601,-4.8316,0.0805,-3.0154,0.2756,-1.9367,0.1254,-0.6316,0.658
-2.8033,0.2035,-5.6887,0.1315,-0.3157,0.9404,-1.2368,0.601,-4.8316,0.0805,-3.0154,0.2756,-1.9367,0.1254,-0.6316,0.658
-2.8355,0.1959,-5.7236,0.1374,-0.3606,0.9562,-1.2773,0.6043,-4.8694,0.0627,-3.041,0.2707,-1.9809,0.1156,-0.6794,0.6434
-2.8355,0.1959,-5.7236,0.1374,-0.3606,0.9562,-1.2773,0.6043,-4.8694,0.0627,-3.041,0.2707,-1.9809,0.1156,-0.6794,0.6434
-2.8676,0.1882,-5.7645,0.1518,-0.2808,0.89,-1.2924,0.5987,-4.9355,0.0861,-3.0792,0.2634,-2.1024,0.1079,-0.7272,0.6287
-2.8676,0.1882,-5.7645,0.1518,-0.2808,0.89,-1.2924,0.5987,-4.9355,0.0861,-3.0792,0.2634,-2.1024,0.1079,-0.7272,0.6287
-2.8676,0.1882,-5.7645,0.1518,-0.2808,0.89,-1.2924,0.5987,-4.9355,0.0861,-3.0792,0.2634,-2.1024,0.1079,-0.7272,0.6287
-2.8851,0.2134,-5.7492,0.1593,-0.2358,0.8741,-1.2773,0.6043,-5.0388,0.0916,-3.1047,0.2585,-2.1242,0.103,-0.8509,0.641
-2.8851,0.2134,-5.7492,0.1593,-0.2358,0.8741,-1.2773,0.6043,-5.0388,0.0916,-3.1047,0.2585,-2.1242,0.103,-0.8509,0.641
-2.771,0.2112,-5.6833,0.1685,-0.1527,0.9018,-1.2318,0.6213,-5.076,0.0738,-3.0856,0.2517,-2.114,0.1246,-0.8221,0.5996
-2.771,0.2112,-5.6833,0.1685,-0.1527,0.9018,-1.2318,0.6213,-5.076,0.0738,-3.0856,0.2517,-2.114,0.1246,-0.8221,0.5996
-2.6058,0.1911,-5.6155,0.1899,-0.097,0.9203,-1.1352,0.6203,-5.0388,0.0916,-3.0474,0.259,-1.9822,0.1542,-0.8509,0.641
-2.5579,0.2318,-5.5196,0.2017,0.0046,0.9228,-1.0739,0.6429,-4.898,0.1039,-2.9834,0.2712,-1.8164,0.2107,-0.7272,0.6287
-2.5579,0.2318,-5.5196,0.2017,0.0046,0.9228,-1.0739,0.6429,-4.898,0.1039,-2.9834,0.2712,-1.8164,0.2107,-0.7272,0.6287
-2.5579,0.2318,-5.5196,0.2017,0.0046,0.9228,-1.0739,0.6429,-4.898,0.1039,-2.9834,0.2712,-1.8164,0.2107,-0.7272,0.6287
-2.4414,0.2291,-5.431,0.2096,0.0327,0.932,-1.0021,0.6509,-4.7938,0.0983,-2.9193,0.2834,-1.6366,0.2503,-0.6794,0.6434
-2.4414,0.2291,-5.431,0.2096,0.0327,0.932,-1.0021,0.6509,-4.7938,0.0983,-2.9193,0.2834,-1.6366,0.2503,-0.6794,0.6434
-2.4414,0.2291,-5.431,0.2096,0.0327,0.932,-1.0021,0.6509,-4.7938,0.0983,-2.9193,0.2834,-1.6366,0.2503,-0.6794,0.6434
-2.3905,0.2112,-5.328,0.2126,0.0891,0.9506,-0.9299,0.6588,-4.5834,0.0865,-2.8483,0.3073,-1.4315,0.2949,-0.5835,0.6727
-2.3905,0.2112,-5.328,0.2126,0.0891,0.9506,-0.9299,0.6588,-4.5834,0.0865,-2.8483,0.3073,-1.4315,0.2949,-0.5835,0.6727
-2.3905,0.2112,-5.328,0.2126,0.0891,0.9506,-0.9299,0.6588,-4.5834,0.0865,-2.8483,0.3073,-1.4315,0.2949,-0.5835,0.6727
-2.3573,0.2188,-5.2002,0.2267,0.1742,0.9785,-0.8832,0.6758,-4.3211,0.1517,-2.6923,0.3366,-1.1301,0.3595,-0.3602,0.6892
-2.3573,0.2188,-5.2002,0.2267,0.1742,0.9785,-0.8832,0.6758,-4.3211,0.1517,-2.6923,0.3366,-1.1301,0.3595,-0.3602,0.6892
-2.3573,0.2188,-5.2002,0.2267,0.1742,0.9785,-0.8832,0.6758,-4.3211,0.1517,-2.6923,0.3366,-1.1301,0.3595,-0.3602,0.6892
-2.3395,0.1932,-5.1762,0.238,0.1742,0.9785,-0.8573,0.6667,-4.1441,0.121,-2.6334,0.337,-1.036,0.3794,-0.3112,0.7039
-2.3395,0.1932,-5.1762,0.238,0.1742,0.9785,-0.8573,0.6667,-4.1441,0.121,-2.6334,0.337,-1.036,0.3794,-0.3112,0.7039
-2.4059,0.1781,-5.1823,0.2468,0.1458,0.9692,-0.8729,0.661,-4.1043,0.1388,-2.5874,0.3349,-1.0124,0.3844,-0.2621,0.7186
-2.4059,0.1781,-5.1743,0.2506,0.1458,0.9692,-0.8729,0.661,-4.1043,0.1388,-2.5808,0.3467,-1.0124,0.3844,-0.1832,0.6907
-2.4059,0.1781,-5.1743,0.2506,0.1458,0.9692,-0.8729,0.661,-4.1043,0.1388,-2.5808,0.3467,-1.0124,0.3844,-0.1832,0.6907
-2.4059,0.1781,-5.1723,0.2631,0.128,0.9948,-0.8729,0.661,-4.1336,0.1811,-2.5676,0.3491,-1.0002,0.3667,-0.1832,0.6907
-2.4059,0.1781,-5.1723,0.2631,0.128,0.9948,-0.8729,0.661,-4.1336,0.1811,-2.5676,0.3491,-1.0002,0.3667,-0.1832,0.6907
-2.4059,0.1781,-5.1723,0.2631,0.128,0.9948,-0.8729,0.661,-4.1336,0.1811,-2.5676,0.3491,-1.0002,0.3667,-0.1832,0.6907
-2.4567,0.196,-5.1723,0.2631,0.128,0.9948,-0.8988,0.6701,-4.2028,0.2055,-2.5676,0.3491,-1.0474,0.3568,-0.2127,0.7333
-2.4567,0.196,-5.1723,0.2631,0.128,0.9948,-0.8988,0.6701,-4.2028,0.2055,-2.5676,0.3491,-1.0474,0.3568,-0.2127,0.7333
-2.4567,0.196,-5.1723,0.2631,0.128,0.9948,-0.8988,0.6701,-4.2028,0.2055,-2.5676,0.3491,-1.0474,0.3568,-0.2127,0.7333
-2.439,0.1705,-5.1784,0.2719,0.0997,0.9855,-0.9246,0.6792,-4.2423,0.1876,-2.5544,0.3515,-1.1179,0.342,-0.2916,0.7611
-2.439,0.1705,-5.1784,0.2719,0.0997,0.9855,-0.9246,0.6792,-4.2423,0.1876,-2.5544,0.3515,-1.1179,0.342,-0.2916,0.7611
-2.3706,0.1272,-5.1845,0.2807,0.0536,1.0017,-0.9143,0.6644,-4.2423,0.1876,-2.5609,0.3609,-1.1413,0.337,-0.3702,0.7889
-2.3706,0.1272,-5.1845,0.2807,0.0536,1.0017,-0.9143,0.6644,-4.2423,0.1876,-2.5609,0.3609,-1.1413,0.337,-0.3702,0.7889
-2.3706,0.1272,-5.1845,0.2807,0.1174,0.9599,-0.9246,0.6792,-4.2423,0.1876,-2.5477,0.3634,-1.1647,0.3321,-0.3702,0.7889
-2.3706,0.1272,-5.1624,0.2795,0.1174,0.9599,-0.9246,0.6792,-4.213,0.1453,-2.541,0.3752,-1.1526,0.3146,-0.4485,0.8166
-2.3706,0.1272,-5.1624,0.2795,0.1174,0.9599,-0.9246,0.6792,-4.213,0.1453,-2.541,0.3752,-1.1526,0.3146,-0.4485,0.8166
-2.3706,0.1272,-5.1624,0.2795,0.1174,0.9599,-0.9246,0.6792,-4.213,0.1453,-2.541,0.3752,-1.1526,0.3146,-0.4485,0.8166
-2.3706,0.1272,-5.1544,0.2833,0.1174,0.9599,-0.8885,0.6553,-4.2028,0.2055,-2.5277,0.399,-1.1057,0.3244,-0.3702,0.7889
-2.3706,0.1272,-5.1544,0.2833,0.1174,0.9599,-0.8885,0.6553,-4.2028,0.2055,-2.5277,0.399,-1.1057,0.3244,-0.3702,0.7889
-2.3706,0.1272,-5.1463,0.2871,0.1351,0.9343,-0.8988,0.6701,-4.2028,0.2055,-2.5012,0.4039,-1.1057,0.3244,-0.2916,0.7611
-2.3706,0.1272,-5.1463,0.2871,0.1351,0.9343,-0.8988,0.6701,-4.2028,0.2055,-2.5012,0.4039,-1.1057,0.3244,-0.2916,0.7611
-2.3706,0.1272,-5.1383,0.2909,0.1528,0.9088,-0.9143,0.6644,-4.2717,0.2299,-2.4945,0.4158,-1.0701,0.3118,-0.3702,0.7889
-2.3706,0.1272,-5.1383,0.2909,0.1528,0.9088,-0.9143,0.6644,-4.2717,0.2299,-2.4945,0.4158,-1.0701,0.3118,-0.3702,0.7889
-2.4544,0.1376,-5.1383,0.2909,0.1245,0.8996,-0.9299,0.6588,-4.2028,0.2055,-2.4614,0.4112,-1.0701,0.3118,-0.3702,0.7889
-2.4544,0.1376,-5.1383,0.2909,0.1245,0.8996,-0.9299,0.6588,-4.2028,0.2055,-2.4614,0.4112,-1.0701,0.3118,-0.3702,0.7889
-2.4874,0.1301,-5.1383,0.2909,0.0785,0.9158,-0.9556,0.6679,-4.2028,0.2055,-2.4481,0.4137,-1.1057,0.3244,-0.3702,0.7889
-2.4874,0.1301,-5.1383,0.2909,0.0785,0.9158,-0.9556,0.6679,-4.2028,0.2055,-2.4481,0.4137,-1.1057,0.3244,-0.3702,0.7889
-2.5203,0.1226,-5.1444,0.2997,0.0962,0.8904,-0.9711,0.6622,-4.2423,0.1876,-2.4546,0.4232,-1.1292,0.3195,-0.3702,0.7889
-2.5203,0.1226,-5.1444,0.2997,0.0962,0.8904,-0.9711,0.6622,-4.2423,0.1876,-2.4546,0.4232,-1.1292,0.3195,-0.3702,0.7889
-2.5531,0.1151,-5.1524,0.2959,0.0679,0.8812,-0.9507,0.6327,-4.2423,0.1876,-2.4546,0.4232,-1.1881,0.3271,-0.3407,0.7463
-2.5531,0.1151,-5.1524,0.2959,0.0679,0.8812,-0.9507,0.6327,-4.2423,0.1876,-2.4546,0.4232,-1.1881,0.3271,-0.3407,0.7463
-2.5684,0.0825,-5.1746,0.2971,0.0679,0.8812,-0.9662,0.6271,-4.2717,0.2299,-2.4546,0.4232,-1.2114,0.3222,-0.3112,0.7039
-2.5684,0.0825,-5.1746,0.2971,0.0679,0.8812,-0.9662,0.6271,-4.2717,0.2299,-2.4546,0.4232,-1.2114,0.3222,-0.3112,0.7039
-2.601,0.075,-5.2108,0.3032,0.0855,0.8558,-0.9816,0.6214,-4.2423,0.1876,-2.4679,0.4207,-1.2579,0.3123,-0.3112,0.7039
-2.601,0.075,-5.2108,0.3032,0.0855,0.8558,-0.9816,0.6214,-4.2423,0.1876,-2.4679,0.4207,-1.2579,0.3123,-0.3112,0.7039
-2.601,0.075,-5.2108,0.3032,0.0855,0.8558,-0.9816,0.6214,-4.2423,0.1876,-2.4679,0.4207,-1.2579,0.3123,-0.3112,0.7039
-2.6511,0.0927,-5.2249,0.3082,0.1314,0.8396,-0.9918,0.6361,-4.3796,0.2361,-2.4878,0.4277,-1.3043,0.3024,-0.3896,0.7316
-2.6511,0.0927,-5.2249,0.3082,0.1314,0.8396,-0.9918,0.6361,-4.3796,0.2361,-2.4878,0.4277,-1.3043,0.3024,-0.3896,0.7316
-2.6511,0.0927,-5.2249,0.3082,0.1314,0.8396,-0.9918,0.6361,-4.3796,0.2361,-2.4878,0.4277,-1.3043,0.3024,-0.3896,0.7316
-2.5989,0.0174,-5.2568,0.293,0.0573,0.8467,-1.0483,0.6339,-4.4285,0.1579,-2.5275,0.4203,-1.4195,0.2776,-0.5162,0.7443
-2.5989,0.0174,-5.2568,0.293,0.0573,0.8467,-1.0483,0.6339,-4.4285,0.1579,-2.5275,0.4203,-1.4195,0.2776,-0.5162,0.7443
-2.5989,0.0174,-5.2568,0.293,0.0573,0.8467,-1.0483,0.6339,-4.4285,0.1579,-2.5275,0.4203,-1.4195,0.2776,-0.5162,0.7443
-2.6315,0.01,-5.2587,0.2804,-0.0339,0.8789,-1.0637,0.6282,-4.4674,0.14,-2.5408,0.4179,-1.4654,0.2677,-0.5938,0.7717
-2.6315,0.01,-5.2587,0.2804,-0.0339,0.8789,-1.0637,0.6282,-4.4674,0.14,-2.5408,0.4179,-1.4654,0.2677,-0.5938,0.7717
-2.6315,0.01,-5.2587,0.2804,-0.0339,0.8789,-1.0637,0.6282,-4.4674,0.14,-2.5408,0.4179,-1.4654,0.2677,-0.5938,0.7717
-2.6467,-0.0223,-5.2966,0.274,-0.0619,0.8697,-1.0434,0.5989,-4.4384,0.0982,-2.554,0.4154,-1.5339,0.2529,-0.5353,0.6874
-2.6467,-0.0223,-5.2966,0.274,-0.0619,0.8697,-1.0434,0.5989,-4.4384,0.0982,-2.554,0.4154,-1.5339,0.2529,-0.5353,0.6874
-2.664,0.0027,-5.3106,0.2789,-0.0619,0.8697,-1.0178,0.5899,-4.5062,0.1221,-2.5869,0.4199,-1.5447,0.2308,-0.5353,0.6874
-2.664,0.0027,-5.3106,0.2789,-0.0619,0.8697,-1.0178,0.5899,-4.5062,0.1221,-2.5869,0.4199,-1.5447,0.2308,-0.5353,0.6874
-2.664,0.0027,-5.3106,0.2789,-0.0619,0.8697,-1.0178,0.5899,-4.5062,0.1221,-2.5869,0.4199,-1.5447,0.2308,-0.5353,0.6874
-2.6964,-0.0047,-5.3405,0.2762,-0.0898,0.8606,-1.0434,0.5989,-4.5738,0.146,-2.6198,0.4244,-1.5901,0.221,-0.5353,0.6874
-2.8105,-0.0019,-5.3703,0.2736,-0.1455,0.8422,-1.0741,0.5877,-4.6123,0.1281,-2.6526,0.4289,-1.6009,0.1989,-0.5835,0.6727
-2.8105,-0.0019,-5.3703,0.2736,-0.1455,0.8422,-1.0741,0.5877,-4.6123,0.1281,-2.6526,0.4289,-1.6009,0.1989,-0.5835,0.6727
-2.8254,-0.0341,-5.3782,0.2698,-0.1733,0.833,-1.115,0.591,-4.6123,0.1281,-2.6592,0.417,-1.658,0.2062,-0.5835,0.6727
-2.8254,-0.0341,-5.3782,0.2698,-0.1733,0.833,-1.115,0.591,-4.6123,0.1281,-2.6592,0.417,-1.658,0.2062,-0.5835,0.6727
-2.8575,-0.0415,-5.414,0.2758,-0.1559,0.8079,-1.1303,0.5854,-4.6795,0.1519,-2.6789,0.4026,-1.7031,0.1963,-0.6606,0.6999
-2.8575,-0.0415,-5.414,0.2758,-0.1559,0.8079,-1.1303,0.5854,-4.6795,0.1519,-2.6789,0.4026,-1.7031,0.1963,-0.6606,0.6999
-2.8254,-0.0341,-5.4279,0.2807,-0.2009,0.8239,-1.1557,0.5944,-4.6889,0.0925,-2.7247,0.4046,-1.748,0.1865,-0.6794,0.6434
-2.8254,-0.0341,-5.4279,0.2807,-0.2009,0.8239,-1.1557,0.5944,-4.6889,0.0925,-2.7247,0.4046,-1.748,0.1865,-0.6794,0.6434
-2.8575,-0.0415,-5.4497,0.2818,-0.1836,0.7988,-1.1811,0.6034,-4.7177,0.134,-2.7182,0.3952,-1.7704,0.1816,-0.6316,0.658
-2.8575,-0.0415,-5.4497,0.2818,-0.1836,0.7988,-1.1811,0.6034,-4.7177,0.134,-2.7182,0.3952,-1.7704,0.1816,-0.6316,0.658
-2.8575,-0.0415,-5.4497,0.2818,-0.1836,0.7988,-1.1811,0.6034,-4.7177,0.134,-2.7182,0.3952,-1.7704,0.1816,-0.6316,0.658
-2.8895,-0.0488,-5.4654,0.2742,-0.1662,0.7738,-1.1963,0.5977,-4.7465,0.1756,-2.7508,0.3997,-1.8269,0.1887,-0.6794,0.6434
-2.9214,-0.0562,-5.4811,0.2666,-0.1939,0.7647,-1.2115,0.5921,-4.8225,0.1397,-2.7898,0.3922,-1.8597,0.1619,-0.8036,0.6557
-2.9214,-0.0562,-5.4811,0.2666,-0.1939,0.7647,-1.2115,0.5921,-4.8225,0.1397,-2.7898,0.3922,-1.8597,0.1619,-0.8036,0.6557
-2.985,-0.0709,-5.5124,0.2515,-0.2043,0.7308,-1.2419,0.5808,-4.889,0.1632,-2.8028,0.3898,-1.9041,0.1521,-0.8797,0.6827
-2.985,-0.0709,-5.5124,0.2515,-0.2043,0.7308,-1.2419,0.5808,-4.889,0.1632,-2.8028,0.3898,-1.9041,0.1521,-0.8797,0.6827
-2.985,-0.0709,-5.5202,0.2477,-0.2215,0.7557,-1.2419,0.5808,-4.9641,0.1273,-2.8223,0.3755,-1.9822,0.1542,-0.9268,0.6679
-2.985,-0.0709,-5.5202,0.2477,-0.2215,0.7557,-1.2419,0.5808,-4.9641,0.1273,-2.8223,0.3755,-1.9822,0.1542,-0.9268,0.6679
-2.968,-0.0954,-5.5557,0.2536,-0.3112,0.7873,-1.2823,0.5841,-5.0015,0.1094,-2.8288,0.3637,-1.9926,0.1324,-0.9738,0.6531
-2.968,-0.0954,-5.5557,0.2536,-0.3112,0.7873,-1.2823,0.5841,-5.0015,0.1094,-2.8288,0.3637,-1.9926,0.1324,-0.9738,0.6531
-2.968,-0.0954,-5.5557,0.2536,-0.3112,0.7873,-1.2823,0.5841,-5.0015,0.1094,-2.8288,0.3637,-1.9926,0.1324,-0.9738,0.6531
-2.9827,-0.1273,-5.585,0.2509,-0.2939,0.7624,-1.2975,0.5785,-5.0673,0.1327,-2.8611,0.3681,-2.0702,0.1345,-0.9738,0.6531
-2.9827,-0.1273,-5.585,0.2509,-0.2939,0.7624,-1.2975,0.5785,-5.0673,0.1327,-2.8611,0.3681,-2.0702,0.1345,-0.9738,0.6531
-2.9658,-0.1517,-5.6066,0.252,-0.3213,0.7534,-1.2874,0.564,-5.0015,0.1094,-2.8999,0.3818,-2.0921,0.1295,-0.9738,0.6531
-2.9658,-0.1517,-5.6066,0.252,-0.3213,0.7534,-1.2874,0.564,-5.0015,0.1094,-2.8999,0.3818,-2.0921,0.1295,-0.9738,0.6531
-2.9658,-0.1517,-5.6341,0.2617,-0.3213,0.7534,-1.2874,0.564,-5.0388,0.0916,-2.9257,0.3768,-2.1474,0.1364,-0.945,0.6117
-2.9827,-0.1273,-5.6204,0.2569,-0.2594,0.7127,-1.247,0.5607,-5.1044,0.1148,-2.9514,0.3718,-2.1474,0.1364,-0.9919,0.5971
-2.9827,-0.1273,-5.6204,0.2569,-0.2594,0.7127,-1.247,0.5607,-5.1044,0.1148,-2.9514,0.3718,-2.1474,0.1364,-0.9919,0.5971
-2.9192,-0.1127,-5.5833,0.2634,-0.2319,0.7218,-1.2166,0.5719,-5.1044,0.1148,-2.9514,0.3718,-2.1037,0.1463,-0.945,0.6117
-2.9192,-0.1127,-5.5833,0.2634,-0.2319,0.7218,-1.2166,0.5719,-5.1044,0.1148,-2.9514,0.3718,-2.1037,0.1463,-0.945,0.6117
-2.8872,-0.1054,-5.5244,0.2688,-0.187,0.7059,-1.1862,0.5831,-5.0015,0.1094,-2.945,0.3836,-1.9497,0.1809,-0.945,0.6117
-2.8872,-0.1054,-5.5244,0.2688,-0.187,0.7059,-1.1862,0.5831,-5.0015,0.1094,-2.945,0.3836,-1.9497,0.1809,-0.945,0.6117
-2.8553,-0.0982,-5.4297,0.2682,-0.1144,0.699,-1.1404,0.6,-4.9266,0.1452,-2.887,0.3842,-1.794,0.2156,-0.8509,0.641
-2.8553,-0.0982,-5.4297,0.2682,-0.1144,0.699,-1.1404,0.6,-4.9266,0.1452,-2.887,0.3842,-1.794,0.2156,-0.8509,0.641
-2.7911,-0.0836,-5.3265,0.2713,-0.0587,0.717,-1.0791,0.6226,-4.8512,0.1812,-2.8158,0.3873,-1.6258,0.2724,-0.7561,0.6705
-2.7911,-0.0836,-5.3265,0.2713,-0.0587,0.717,-1.0791,0.6226,-4.8512,0.1812,-2.8158,0.3873,-1.6258,0.2724,-0.7561,0.6705
-2.7589,-0.0763,-5.2507,0.2842,-0.0027,0.7349,-1.0227,0.6248,-4.6702,0.2117,-2.7182,0.3952,-1.4556,0.3296,-0.5835,0.6727
-2.7589,-0.0763,-5.2507,0.2842,-0.0027,0.7349,-1.0227,0.6248,-4.6702,0.2117,-2.7182,0.3952,-1.4556,0.3296,-0.5835,0.6727
-2.7589,-0.0763,-5.2507,0.2842,-0.0027,0.7349,-1.0227,0.6248,-4.6702,0.2117,-2.7182,0.3952,-1.4556,0.3296,-0.5835,0.6727
-2.7095,-0.0938,-5.1906,0.2895,0.0253,0.7439,-0.9662,0.6271,-4.4576,0.1999,-2.6527,0.4076,-1.3295,0.3771,-0.4869,0.7021
-2.66,-0.1113,-5.1524,0.2959,0.0079,0.769,-0.9507,0.6327,-4.3111,0.2118,-2.5936,0.408,-1.2488,0.4147,-0.4677,0.7592
-2.6771,-0.0865,-5.1283,0.3073,0.036,0.7781,-0.9352,0.6384,-4.2717,0.2299,-2.554,0.4154,-1.1666,0.4122,-0.3407,0.7463
-2.6771,-0.0865,-5.1283,0.3073,0.036,0.7781,-0.9352,0.6384,-4.2717,0.2299,-2.554,0.4154,-1.1666,0.4122,-0.3407,0.7463
-2.6771,-0.0865,-5.1283,0.3073,0.036,0.7781,-0.9352,0.6384,-4.2717,0.2299,-2.554,0.4154,-1.1666,0.4122,-0.3407,0.7463
-2.7095,-0.0938,-5.1283,0.3073,0.0534,0.7529,-0.9454,0.6531,-4.1631,0.2236,-2.5275,0.4203,-1.1075,0.4047,-0.2621,0.7186
-2.7095,-0.0938,-5.1283,0.3073,0.0534,0.7529,-0.9454,0.6531,-4.1631,0.2236,-2.5275,0.4203,-1.1075,0.4047,-0.2621,0.7186
-2.6924,-0.1185,-5.1425,0.3123,0.0253,0.7439,-0.9609,0.6474,-4.1926,0.2661,-2.5143,0.4228,-1.0953,0.387,-0.2621,0.7186
-2.7247,-0.1257,-5.1505,0.3085,0.0253,0.7439,-0.9609,0.6474,-4.1926,0.2661,-2.5143,0.4228,-1.1188,0.382,-0.2916,0.7611
-2.7247,-0.1257,-5.1505,0.3085,0.0253,0.7439,-0.9609,0.6474,-4.1926,0.2661,-2.5143,0.4228,-1.1188,0.382,-0.2916,0.7611
-2.7247,-0.1257,-5.1505,0.3085,0.0253,0.7439,-0.9609,0.6474,-4.1926,0.2661,-2.5143,0.4228,-1.1188,0.382,-0.2916,0.7611
-2.774,-0.1083,-5.1524,0.2959,-0.0027,0.7349,-0.9866,0.6565,-4.1631,0.2236,-2.5077,0.4133,-1.1301,0.3595,-0.2916,0.7611
-2.774,-0.1083,-5.1524,0.2959,-0.0027,0.7349,-0.9866,0.6565,-4.1631,0.2236,-2.5077,0.4133,-1.1301,0.3595,-0.2916,0.7611
-2.774,-0.1083,-5.1524,0.2959,-0.0027,0.7349,-0.9866,0.6565,-4.1631,0.2236,-2.5077,0.4133,-1.1301,0.3595,-0.2916,0.7611
-2.7569,-0.1329,-5.1605,0.2921,-0.0027,0.7349,-1.0021,0.6509,-4.2717,0.2299,-2.5012,0.4039,-1.2002,0.3446,-0.419,0.774
-2.7569,-0.1329,-5.1605,0.2921,-0.0027,0.7349,-1.0021,0.6509,-4.2717,0.2299,-2.5012,0.4039,-1.2002,0.3446,-0.419,0.774
-2.7399,-0.1575,-5.1746,0.2971,-0.0481,0.7509,-0.9662,0.6271,-4.2717,0.2299,-2.5077,0.4133,-1.2235,0.3396,-0.419,0.774
-2.7399,-0.1575,-5.1746,0.2971,-0.0481,0.7509,-0.9662,0.6271,-4.2717,0.2299,-2.5077,0.4133,-1.2235,0.3396,-0.419,0.774
-2.7399,-0.1575,-5.1746,0.2971,-0.0481,0.7509,-0.9662,0.6271,-4.2717,0.2299,-2.5077,0.4133,-1.2235,0.3396,-0.419,0.774
-2.7569,-0.1329,-5.1887,0.3021,-0.0481,0.7509,-0.9662,0.6271,-4.2717,0.2299,-2.5077,0.4133,-1.2589,0.3521,-0.4677,0.7592
-2.7569,-0.1329,-5.1887,0.3021,-0.0481,0.7509,-0.9662,0.6271,-4.2717,0.2299,-2.5077,0.4133,-1.2589,0.3521,-0.4677,0.7592
-2.7569,-0.1329,-5.1887,0.3021,-0.0481,0.7509,-0.9662,0.6271,-4.2717,0.2299,-2.5077,0.4133,-1.2589,0.3521,-0.4677,0.7592
-2.7247,-0.1257,-5.1666,0.3009,-0.0201,0.76,-0.9507,0.6327,-4.3111,0.2118,-2.5077,0.4133,-1.2356,0.3571,-0.3896,0.7316
-2.8061,-0.1155,-5.1746,0.2971,0.0146,0.7099,-0.9764,0.6418,-4.3111,0.2118,-2.5143,0.4228,-1.2002,0.3446,-0.3896,0.7316
-2.8061,-0.1155,-5.1746,0.2971,0.0146,0.7099,-0.9866,0.6565,-4.3111,0.2118,-2.5077,0.4133,-1.1647,0.3321,-0.3896,0.7316
-2.8061,-0.1155,-5.1746,0.2971,0.0146,0.7099,-0.9866,0.6565,-4.3111,0.2118,-2.5077,0.4133,-1.1647,0.3321,-0.3896,0.7316
-2.8061,-0.1155,-5.1746,0.2971,0.0146,0.7099,-0.9866,0.6565,-4.3111,0.2118,-2.5077,0.4133,-1.1647,0.3321,-0.3896,0.7316
-2.8553,-0.0982,-5.1685,0.2883,0.0146,0.7099,-1.0123,0.6656,-4.3796,0.2361,-2.521,0.4109,-1.2002,0.3446,-0.4383,0.7168
-2.8553,-0.0982,-5.1685,0.2883,0.0146,0.7099,-1.0123,0.6656,-4.3796,0.2361,-2.521,0.4109,-1.2002,0.3446,-0.4383,0.7168
-2.8382,-0.1228,-5.1685,0.2883,-0.0027,0.7349,-1.0021,0.6509,-4.3111,0.2118,-2.521,0.4109,-1.2356,0.3571,-0.4383,0.7168
-2.8382,-0.1228,-5.1685,0.2883,-0.0027,0.7349,-1.0021,0.6509,-4.3111,0.2118,-2.521,0.4109,-1.2356,0.3571,-0.4383,0.7168
-2.8212,-0.1473,-5.1826,0.2933,-0.0307,0.7259,-1.0021,0.6509,-4.2818,0.1696,-2.5144,0.4014,-1.2589,0.3521,-0.4383,0.7168
-2.8212,-0.1473,-5.1826,0.2933,-0.0307,0.7259,-1.0021,0.6509,-4.2818,0.1696,-2.5144,0.4014,-1.2589,0.3521,-0.4383,0.7168
-2.8532,-0.1545,-5.2047,0.2944,-0.0307,0.7259,-1.0073,0.6305,-4.2423,0.1876,-2.5144,0.4014,-1.271,0.3696,-0.3896,0.7316
-2.8532,-0.1545,-5.2047,0.2944,-0.0307,0.7259,-1.0073,0.6305,-4.2423,0.1876,-2.5144,0.4014,-1.271,0.3696,-0.3896,0.7316
-2.8362,-0.179,-5.2268,0.2956,-0.0134,0.701,-0.9971,0.6158,-4.2423,0.1876,-2.5277,0.399,-1.2821,0.3471,-0.3896,0.7316
-2.8362,-0.179,-5.2268,0.2956,-0.0134,0.701,-0.9971,0.6158,-4.2423,0.1876,-2.5277,0.399,-1.2821,0.3471,-0.3896,0.7316
-2.8682,-0.1862,-5.2507,0.2842,-0.0414,0.692,-1.0227,0.6248,-4.3111,0.2118,-2.5409,0.3965,-1.3284,0.3372,-0.419,0.774
-2.8682,-0.1862,-5.2507,0.2842,-0.0414,0.692,-1.0227,0.6248,-4.3111,0.2118,-2.5409,0.3965,-1.3284,0.3372,-0.419,0.774
-2.8513,-0.2106,-5.2807,0.2815,-0.0414,0.692,-1.0381,0.6192,-4.3796,0.2361,-2.5476,0.3846,-1.3395,0.3148,-0.419,0.774
-2.8513,-0.2106,-5.2807,0.2815,-0.0414,0.692,-1.0381,0.6192,-4.3796,0.2361,-2.5476,0.3846,-1.3395,0.3148,-0.419,0.774
-2.8513,-0.2106,-5.2807,0.2815,-0.0414,0.692,-1.0381,0.6192,-4.3796,0.2361,-2.5476,0.3846,-1.3395,0.3148,-0.419,0.774
-2.8663,-0.2421,-5.3144,0.2538,-0.1594,0.7149,-1.0791,0.6226,-4.3894,0.1758,-2.5871,0.3773,-1.4436,0.3123,-0.4971,0.8016
-2.8663,-0.2421,-5.3144,0.2538,-0.1594,0.7149,-1.0791,0.6226,-4.3894,0.1758,-2.5871,0.3773,-1.4436,0.3123,-0.4971,0.8016
-2.8663,-0.2421,-5.3144,0.2538,-0.1594,0.7149,-1.0791,0.6226,-4.3894,0.1758,-2.5871,0.3773,-1.4436,0.3123,-0.4971,0.8016
-2.8494,-0.2664,-5.3442,0.2512,-0.2043,0.7308,-1.0944,0.6169,-4.4576,0.1999,-2.62,0.3818,-1.5013,0.3196,-0.4971,0.8016
-2.8494,-0.2664,-5.3442,0.2512,-0.2043,0.7308,-1.0944,0.6169,-4.4576,0.1999,-2.62,0.3818,-1.5013,0.3196,-0.4971,0.8016
-2.8813,-0.2735,-5.3661,0.2523,-0.2319,0.7218,-1.0843,0.6023,-4.5352,0.164,-2.6594,0.3745,-1.547,0.3096,-0.5938,0.7717
-2.8813,-0.2735,-5.3661,0.2523,-0.2319,0.7218,-1.0843,0.6023,-4.5352,0.164,-2.6594,0.3745,-1.547,0.3096,-0.5938,0.7717
-2.93,-0.2563,-5.3958,0.2497,-0.1975,0.6721,-1.115,0.591,-4.5062,0.1221,-2.6921,0.3789,-1.5924,0.2996,-0.5938,0.7717
-2.93,-0.2563,-5.3958,0.2497,-0.1975,0.6721,-1.115,0.591,-4.5062,0.1221,-2.6921,0.3789,-1.5924,0.2996,-0.5938,0.7717
-2.93,-0.2563,-5.3958,0.2497,-0.1975,0.6721,-1.115,0.591,-4.5062,0.1221,-2.6921,0.3789,-1.5924,0.2996,-0.5938,0.7717
-3.027,-0.222,-5.4195,0.2383,-0.2698,0.679,-1.1048,0.5764,-4.5062,0.1221,-2.7051,0.3765,-1.6032,0.2774,-0.5162,0.7443
-3.0585,-0.2292,-5.4551,0.2443,-0.2526,0.6543,-1.1303,0.5854,-4.5738,0.146,-2.7313,0.3716,-1.6485,0.2675,-0.5938,0.7717
-3.0585,-0.2292,-5.4551,0.2443,-0.2526,0.6543,-1.1303,0.5854,-4.5738,0.146,-2.7313,0.3716,-1.6485,0.2675,-0.5938,0.7717
-3.1068,-0.2121,-5.4768,0.2455,-0.2801,0.6454,-1.1557,0.5944,-4.5738,0.146,-2.7768,0.3735,-1.6936,0.2575,-0.6419,0.7568
-3.1068,-0.2121,-5.4768,0.2455,-0.2801,0.6454,-1.1557,0.5944,-4.5738,0.146,-2.7768,0.3735,-1.6936,0.2575,-0.6419,0.7568
-3.0418,-0.2534,-5.4985,0.2466,-0.2801,0.6454,-1.1912,0.618,-4.6123,0.1281,-2.8028,0.3686,-1.7042,0.2354,-0.6898,0.742
-3.0418,-0.2534,-5.4985,0.2466,-0.2801,0.6454,-1.1912,0.618,-4.6123,0.1281,-2.8028,0.3686,-1.7042,0.2354,-0.6898,0.742
-3.0733,-0.2605,-5.5142,0.239,-0.263,0.6207,-1.2166,0.6269,-4.6123,0.1281,-2.8093,0.3568,-1.761,0.2426,-0.6898,0.742
-3.0733,-0.2605,-5.5142,0.239,-0.263,0.6207,-1.2166,0.6269,-4.6123,0.1281,-2.8093,0.3568,-1.761,0.2426,-0.6898,0.742
-3.1047,-0.2676,-5.5436,0.2363,-0.2905,0.6118,-1.2318,0.6213,-4.6506,0.1103,-2.8288,0.3426,-1.8058,0.2326,-0.7666,0.7691
-3.1047,-0.2676,-5.5436,0.2363,-0.2905,0.6118,-1.2318,0.6213,-4.6506,0.1103,-2.8288,0.3426,-1.8058,0.2326,-0.7666,0.7691
-3.1528,-0.2506,-5.5592,0.2287,-0.3349,0.6276,-1.247,0.6156,-4.6506,0.1103,-2.8547,0.3376,-1.8623,0.2397,-0.7375,0.7271
-3.1528,-0.2506,-5.5592,0.2287,-0.3349,0.6276,-1.247,0.6156,-4.6506,0.1103,-2.8547,0.3376,-1.8623,0.2397,-0.7375,0.7271
-3.1528,-0.2506,-5.5808,0.2298,-0.3075,0.6365,-1.2571,0.6302,-4.7177,0.134,-2.8805,0.3327,-1.9067,0.2298,-0.7375,0.7271
-3.1528,-0.2506,-5.5808,0.2298,-0.3075,0.6365,-1.2571,0.6302,-4.7177,0.134,-2.8805,0.3327,-1.9067,0.2298,-0.7375,0.7271
-3.184,-0.2578,-5.5964,0.2223,-0.2905,0.6118,-1.2722,0.6246,-4.8225,0.1397,-2.9192,0.3254,-1.9393,0.2028,-0.7851,0.7123
-3.184,-0.2578,-5.5964,0.2223,-0.2905,0.6118,-1.2722,0.6246,-4.8225,0.1397,-2.9192,0.3254,-1.9393,0.2028,-0.7851,0.7123
-3.2153,-0.2649,-5.6119,0.2147,-0.3349,0.6276,-1.2874,0.6189,-4.8603,0.1218,-2.9449,0.3204,-1.9835,0.1929,-0.8615,0.7393
-3.2153,-0.2649,-5.6119,0.2147,-0.3349,0.6276,-1.2874,0.6189,-4.8603,0.1218,-2.9449,0.3204,-1.9835,0.1929,-0.8615,0.7393
-3.1986,-0.289,-5.6352,0.2034,-0.3622,0.6187,-1.3277,0.6221,-4.9641,0.1273,-2.9642,0.3063,-2.0496,0.178,-0.9557,0.7095
-3.1986,-0.289,-5.6352,0.2034,-0.3622,0.6187,-1.3277,0.6221,-4.9641,0.1273,-2.9642,0.3063,-2.0496,0.178,-0.9557,0.7095
-3.2297,-0.2961,-5.6703,0.2093,-0.3895,0.6098,-1.3176,0.6076,-5.0015,0.1094,-2.9899,0.3014,-2.1168,0.2018,-0.9087,0.7244
-3.2297,-0.2961,-5.6703,0.2093,-0.3895,0.6098,-1.3176,0.6076,-5.0015,0.1094,-2.9899,0.3014,-2.1168,0.2018,-0.9087,0.7244
-3.2131,-0.32,-5.6995,0.2066,-0.4337,0.6254,-1.3428,0.6165,-5.0015,0.1094,-3.0091,0.3082,-2.127,0.1799,-0.9557,0.7095
-3.2131,-0.32,-5.6995,0.2066,-0.4337,0.6254,-1.3428,0.6165,-5.0015,0.1094,-3.0091,0.3082,-2.127,0.1799,-0.9557,0.7095
-3.2131,-0.32,-5.6995,0.2066,-0.4337,0.6254,-1.3428,0.6165,-5.0015,0.1094,-3.0091,0.3082,-2.127,0.1799,-0.9557,0.7095
-3.2131,-0.32,-5.6995,0.2066,-0.4337,0.6254,-1.3428,0.6165,-5.0015,0.1094,-3.0091,0.3082,-2.127,0.1799,-0.9557,0.7095
-3.3251,-0.2624,-5.738,0.1878,-0.4879,0.6076,-1.3478,0.5963,-5.0104,0.0506,-3.0793,0.3051,-2.2026,0.1433,-1.0025,0.6946
-3.3251,-0.2624,-5.738,0.1878,-0.4879,0.6076,-1.3478,0.5963,-5.0104,0.0506,-3.0793,0.3051,-2.2026,0.1433,-1.0025,0.6946
-3.3251,-0.2624,-5.738,0.1878,-0.4879,0.6076,-1.3478,0.5963,-5.0104,0.0506,-3.0793,0.3051,-2.2026,0.1433,-1.0025,0.6946
-3.356,-0.2696,-5.7729,0.1936,-0.471,0.5832,-1.3629,0.5906,-5.076,0.0738,-3.1238,0.3069,-2.2127,0.1216,-0.9738,0.6531
-3.3868,-0.2767,-5.7806,0.1899,-0.498,0.5743,-1.3779,0.585,-5.1131,0.056,-3.1492,0.302,-2.2229,0.1,-1.0492,0.6798
-3.3868,-0.2767,-5.7806,0.1899,-0.498,0.5743,-1.3779,0.585,-5.1131,0.056,-3.1492,0.302,-2.2229,0.1,-1.0492,0.6798
-3.3702,-0.3006,-5.7534,0.1802,-0.525,0.5655,-1.3779,0.585,-5.1131,0.056,-3.1619,0.2995,-2.2344,0.1167,-1.0492,0.6798
-3.3702,-0.3006,-5.7534,0.1802,-0.525,0.5655,-1.3779,0.585,-5.1131,0.056,-3.1619,0.2995,-2.2344,0.1167,-1.0492,0.6798
-3.3084,-0.2864,-5.6953,0.1856,-0.4811,0.55,-1.3327,0.6019,-5.1415,0.0969,-3.1428,0.2928,-2.1808,0.1482,-1.0492,0.6798
-3.3084,-0.2864,-5.6953,0.1856,-0.4811,0.55,-1.3327,0.6019,-5.1415,0.0969,-3.1428,0.2928,-2.1808,0.1482,-1.0492,0.6798
-3.2297,-0.2961,-5.6274,0.2072,-0.3828,0.552,-1.2621,0.61,-5.0388,0.0916,-3.1047,0.3002,-2.0613,0.1949,-0.9268,0.6679
-3.2297,-0.2961,-5.6274,0.2072,-0.3828,0.552,-1.2621,0.61,-5.0388,0.0916,-3.1047,0.3002,-2.0613,0.1949,-0.9268,0.6679
-3.2297,-0.2961,-5.6274,0.2072,-0.3828,0.552,-1.2621,0.61,-5.0388,0.0916,-3.1047,0.3002,-2.0613,0.1949,-0.9268,0.6679
-3.2297,-0.2961,-5.6274,0.2072,-0.3828,0.552,-1.2621,0.61,-5.0388,0.0916,-3.1047,0.3002,-2.0613,0.1949,-0.9268,0.6679
-3.0418,-0.2534,-5.4394,0.2519,-0.1567,0.5646,-1.1097,0.6667,-4.7465,0.1756,-2.9321,0.3229,-1.7068,0.314,-0.6606,0.6999
-3.0418,-0.2534,-5.4394,0.2519,-0.1567,0.5646,-1.1097,0.6667,-4.7465,0.1756,-2.9321,0.3229,-1.7068,0.314,-0.6606,0.6999
-2.9617,-0.2634,-5.3503,0.2599,-0.0392,0.5417,-1.0636,0.6837,-4.5642,0.2059,-2.8418,0.3401,-1.5025,0.3593,-0.5645,0.7295
-2.9617,-0.2634,-5.3503,0.2599,-0.0392,0.5417,-1.0636,0.6837,-4.5642,0.2059,-2.8418,0.3401,-1.5025,0.3593,-0.5645,0.7295
-2.8982,-0.2492,-5.2667,0.2766,0.0447,0.5679,-0.9916,0.6917,-4.5161,0.2843,-2.7639,0.3548,-1.3185,0.3996,-0.4971,0.8016
-2.8982,-0.2492,-5.2667,0.2766,0.0447,0.5679,-0.9916,0.6917,-4.5161,0.2843,-2.7639,0.3548,-1.3185,0.3996,-0.4971,0.8016
-2.8494,-0.2664,-5.2066,0.2819,0.0447,0.5679,-0.9504,0.6883,-4.448,0.2602,-2.6921,0.3577,-1.2255,0.4198,-0.5266,0.8442
-2.8494,-0.2664,-5.2066,0.2819,0.0447,0.5679,-0.9504,0.6883,-4.448,0.2602,-2.6921,0.3577,-1.2255,0.4198,-0.5266,0.8442
-2.8494,-0.2664,-5.2066,0.2819,0.0447,0.5679,-0.9504,0.6883,-4.448,0.2602,-2.6921,0.3577,-1.2255,0.4198,-0.5266,0.8442
-2.8494,-0.2664,-5.1685,0.2883,0.0276,0.5926,-0.9246,0.6792,-4.3404,0.2542,-2.6201,0.3606,-1.132,0.4399,-0.4781,0.8592
-2.8494,-0.2664,-5.1666,0.3009,-0.0005,0.5839,-0.8988,0.6701,-4.2717,0.2299,-2.5806,0.3679,-1.085,0.45,-0.4295,0.8743
-2.8494,-0.2664,-5.1666,0.3009,-0.0005,0.5839,-0.8988,0.6701,-4.2717,0.2299,-2.5806,0.3679,-1.085,0.45,-0.4295,0.8743
-2.9132,-0.2805,-5.1463,0.2871,-0.0284,0.5751,-0.9246,0.6792,-4.1926,0.2661,-2.541,0.3752,-1.0379,0.4601,-0.3018,0.8616
-2.9132,-0.2805,-5.1463,0.2871,-0.0284,0.5751,-0.9246,0.6792,-4.1926,0.2661,-2.541,0.3752,-1.0379,0.4601,-0.3018,0.8616
-2.9617,-0.2634,-5.1463,0.2871,-0.0734,0.591,-0.9143,0.6644,-4.1233,0.2416,-2.5476,0.3846,-0.9896,0.4297,-0.2226,0.8337
-2.9617,-0.2634,-5.1463,0.2871,-0.0734,0.591,-0.9143,0.6644,-4.1233,0.2416,-2.5476,0.3846,-0.9896,0.4297,-0.2226,0.8337
-3.025,-0.2776,-5.1402,0.2783,-0.1461,0.598,-0.9299,0.6588,-4.2222,0.3088,-2.5278,0.3777,-0.9896,0.4297,-0.2226,0.8337
-3.025,-0.2776,-5.1402,0.2783,-0.1461,0.598,-0.9299,0.6588,-4.2222,0.3088,-2.5278,0.3777,-0.9896,0.4297,-0.2226,0.8337
-3.025,-0.2776,-5.1463,0.2871,-0.129,0.5734,-0.9454,0.6531,-4.1631,0.2236,-2.541,0.3752,-1.0492,0.4374,-0.3212,0.8038
-3.025,-0.2776,-5.1322,0.2821,-0.1012,0.5822,-0.9299,0.6588,-4.1336,0.1811,-2.5345,0.3658,-1.0727,0.4323,-0.3212,0.8038
-3.025,-0.2776,-5.1322,0.2821,-0.1012,0.5822,-0.9299,0.6588,-4.1336,0.1811,-2.5345,0.3658,-1.0727,0.4323,-0.3212,0.8038
-3.025,-0.2776,-5.1322,0.2821,-0.1012,0.5822,-0.9299,0.6588,-4.1336,0.1811,-2.5345,0.3658,-1.0727,0.4323,-0.3212,0.8038
-3.025,-0.2776,-5.1383,0.2909,-0.0841,0.5575,-0.9299,0.6588,-4.1336,0.1811,-2.541,0.3752,-1.0963,0.4273,-0.2423,0.7759
-3.025,-0.2776,-5.1383,0.2909,-0.0841,0.5575,-0.9299,0.6588,-4.1336,0.1811,-2.541,0.3752,-1.0963,0.4273,-0.2423,0.7759
-3.025,-0.2776,-5.1383,0.2909,-0.0841,0.5575,-0.9299,0.6588,-4.1631,0.2236,-2.5213,0.3683,-1.0963,0.4273,-0.272,0.8187
-3.025,-0.2776,-5.1383,0.2909,-0.0841,0.5575,-0.9299,0.6588,-4.1631,0.2236,-2.5213,0.3683,-1.0963,0.4273,-0.272,0.8187
-3.025,-0.2776,-5.1383,0.2909,-0.0841,0.5575,-0.9299,0.6588,-4.1631,0.2236,-2.5213,0.3683,-1.0963,0.4273,-0.272,0.8187
-3.0083,-0.3017,-5.1241,0.2859,-0.0841,0.5575,-0.9299,0.6588,-4.2717,0.2299,-2.5345,0.3658,-1.1198,0.4223,-0.3212,0.8038
-3.0083,-0.3017,-5.1241,0.2859,-0.0841,0.5575,-0.9299,0.6588,-4.2717,0.2299,-2.5345,0.3658,-1.1198,0.4223,-0.3212,0.8038
-2.9282,-0.3118,-5.1161,0.2897,-0.0563,0.5663,-0.9143,0.6644,-4.1336,0.1811,-2.508,0.3707,-1.0963,0.4273,-0.272,0.8187
-2.9114,-0.3359,-5.1161,0.2897,-0.0563,0.5663,-0.8885,0.6553,-4.1336,0.1811,-2.4883,0.3637,-1.0963,0.4273,-0.272,0.8187
-2.9114,-0.3359,-5.1161,0.2897,-0.0563,0.5663,-0.8885,0.6553,-4.1336,0.1811,-2.4883,0.3637,-1.0963,0.4273,-0.272,0.8187
-2.9114,-0.3359,-5.1161,0.2897,-0.0563,0.5663,-0.8627,0.6462,-4.1336,0.1811,-2.4948,0.3731,-1.0963,0.4273,-0.3509,0.8466
-2.9114,-0.3359,-5.1161,0.2897,-0.0563,0.5663,-0.8627,0.6462,-4.1336,0.1811,-2.4948,0.3731,-1.0963,0.4273,-0.3509,0.8466
-2.9599,-0.3188,-5.1302,0.2947,-0.0563,0.5663,-0.8627,0.6462,-4.1631,0.2236,-2.4948,0.3731,-1.0963,0.4273,-0.3509,0.8466
-2.9599,-0.3188,-5.1302,0.2947,-0.0563,0.5663,-0.8627,0.6462,-4.1631,0.2236,-2.4948,0.3731,-1.0963,0.4273,-0.3509,0.8466
-3.0398,-0.3087,-5.1463,0.2871,-0.1119,0.5488,-0.8938,0.6349,-4.2322,0.248,-2.5146,0.3801,-1.084,0.4097,-0.272,0.8187
-3.0398,-0.3087,-5.1463,0.2871,-0.1119,0.5488,-0.8938,0.6349,-4.2322,0.248,-2.5146,0.3801,-1.084,0.4097,-0.272,0.8187
-3.0398,-0.3087,-5.1463,0.2871,-0.1119,0.5488,-0.8938,0.6349,-4.2322,0.248,-2.5146,0.3801,-1.084,0.4097,-0.272,0.8187
-3.1194,-0.2988,-5.1624,0.2795,-0.1396,0.54,-0.9454,0.6531,-4.2322,0.248,-2.508,0.3707,-1.0718,0.392,-0.272,0.8187
-3.1194,-0.2988,-5.1624,0.2795,-0.1396,0.54,-0.9454,0.6531,-4.2322,0.248,-2.508,0.3707,-1.0718,0.392,-0.272,0.8187
-3.1507,-0.3059,-5.1643,0.2669,-0.1673,0.5313,-0.9609,0.6474,-4.2322,0.248,-2.5213,0.3683,-1.0953,0.387,-0.3509,0.8466
-3.1507,-0.3059,-5.1643,0.2669,-0.1673,0.5313,-0.9609,0.6474,-4.2322,0.248,-2.5213,0.3683,-1.0953,0.387,-0.3509,0.8466
-3.134,-0.3299,-5.1804,0.2593,-0.1673,0.5313,-0.9609,0.6474,-4.2028,0.2055,-2.5345,0.3658,-1.1544,0.3946,-0.3509,0.8466
-3.134,-0.3299,-5.1804,0.2593,-0.1673,0.5313,-0.9609,0.6474,-4.2028,0.2055,-2.5345,0.3658,-1.1544,0.3946,-0.3509,0.8466
-3.1653,-0.3369,-5.2165,0.2655,-0.2119,0.547,-1.0123,0.6656,-4.1631,0.2236,-2.528,0.3564,-1.19,0.4072,-0.272,0.8187
-3.1487,-0.3609,-5.2325,0.2579,-0.1949,0.5225,-1.0277,0.6599,-4.2322,0.248,-2.5412,0.354,-1.2367,0.3972,-0.3509,0.8466
-3.1487,-0.3609,-5.2325,0.2579,-0.1949,0.5225,-1.0277,0.6599,-4.2322,0.248,-2.5412,0.354,-1.2367,0.3972,-0.3509,0.8466
-3.1965,-0.344,-5.2545,0.2591,-0.2225,0.5138,-1.0431,0.6543,-4.2028,0.2055,-2.5544,0.3515,-1.2832,0.3871,-0.3212,0.8038
-3.1965,-0.344,-5.2545,0.2591,-0.2225,0.5138,-1.0431,0.6543,-4.2028,0.2055,-2.5544,0.3515,-1.2832,0.3871,-0.3212,0.8038
-3.1487,-0.3609,-5.2765,0.2602,-0.2225,0.5138,-1.0431,0.6543,-4.2028,0.2055,-2.5873,0.3561,-1.3416,0.3946,-0.3998,0.8316
-3.1487,-0.3609,-5.2765,0.2602,-0.2225,0.5138,-1.0431,0.6543,-4.2028,0.2055,-2.5873,0.3561,-1.3416,0.3946,-0.3998,0.8316
-3.1487,-0.3609,-5.2765,0.2602,-0.2225,0.5138,-1.0431,0.6543,-4.2028,0.2055,-2.5873,0.3561,-1.3416,0.3946,-0.3998,0.8316
-3.1799,-0.3679,-5.2924,0.2527,-0.2225,0.5138,-1.0585,0.6486,-4.3011,0.2724,-2.607,0.363,-1.3526,0.3721,-0.3702,0.7889
-3.1799,-0.3679,-5.2924,0.2527,-0.2225,0.5138,-1.0585,0.6486,-4.3011,0.2724,-2.607,0.363,-1.3526,0.3721,-0.3702,0.7889
-3.2897,-0.3651,-5.3382,0.2425,-0.3217,0.512,-1.0791,0.6226,-4.409,0.2784,-2.6464,0.3557,-1.4447,0.352,-0.3702,0.7889
-3.2897,-0.3651,-5.3382,0.2425,-0.3217,0.512,-1.0791,0.6226,-4.409,0.2784,-2.6464,0.3557,-1.4447,0.352,-0.3702,0.7889
-3.2897,-0.3651,-5.3382,0.2425,-0.3217,0.512,-1.0791,0.6226,-4.409,0.2784,-2.6464,0.3557,-1.4447,0.352,-0.3702,0.7889
-3.2422,-0.3819,-5.36,0.2436,-0.3386,0.5364,-1.1148,0.6463,-4.4868,0.2421,-2.6726,0.3508,-1.4785,0.3246,-0.4971,0.8016
-3.2422,-0.3819,-5.36,0.2436,-0.3386,0.5364,-1.1148,0.6463,-4.4868,0.2421,-2.6726,0.3508,-1.4785,0.3246,-0.4971,0.8016
-3.2422,-0.3819,-5.3819,0.2447,-0.3217,0.512,-1.1301,0.6406,-4.4285,0.1579,-2.6857,0.3484,-1.4893,0.3023,-0.5455,0.7867
-3.2422,-0.3819,-5.3819,0.2447,-0.3217,0.512,-1.1301,0.6406,-4.4285,0.1579,-2.6857,0.3484,-1.4893,0.3023,-0.5455,0.7867
-3.2732,-0.3889,-5.4176,0.2508,-0.3659,0.5276,-1.1199,0.6259,-4.4674,0.14,-2.7183,0.3528,-1.547,0.3096,-0.5455,0.7867
-3.2732,-0.3889,-5.4176,0.2508,-0.3659,0.5276,-1.1199,0.6259,-4.4674,0.14,-2.7183,0.3528,-1.547,0.3096,-0.5455,0.7867
-3.3062,-0.3413,-5.4255,0.247,-0.3386,0.5364,-1.1301,0.6406,-4.4674,0.14,-2.7313,0.3504,-1.5924,0.2996,-0.5938,0.7717
-3.3062,-0.3413,-5.4255,0.247,-0.3386,0.5364,-1.1301,0.6406,-4.4674,0.14,-2.7313,0.3504,-1.5924,0.2996,-0.5938,0.7717
-3.368,-0.3554,-5.4491,0.2357,-0.3763,0.4945,-1.1352,0.6203,-4.5062,0.1221,-2.7574,0.3455,-1.6151,0.2946,-0.5938,0.7717
-3.368,-0.3554,-5.4491,0.2357,-0.3763,0.4945,-1.1352,0.6203,-4.5062,0.1221,-2.7574,0.3455,-1.6151,0.2946,-0.5938,0.7717
-3.368,-0.3554,-5.4491,0.2357,-0.3763,0.4945,-1.1352,0.6203,-4.5062,0.1221,-2.7574,0.3455,-1.6151,0.2946,-0.5938,0.7717
-3.368,-0.3554,-5.4491,0.2357,-0.3763,0.4945,-1.1352,0.6203,-4.5062,0.1221,-2.7574,0.3455,-1.6151,0.2946,-0.5938,0.7717
-3.4766,-0.3529,-5.4805,0.2205,-0.4577,0.4684,-1.2166,0.6269,-4.6795,0.1519,-2.8094,0.3357,-1.7055,0.2746,-0.6898,0.742
-3.4601,-0.3766,-5.4962,0.213,-0.4847,0.4597,-1.2318,0.6213,-4.6412,0.1698,-2.8094,0.3357,-1.6936,0.2575,-0.719,0.7841
-3.4601,-0.3766,-5.4962,0.213,-0.4847,0.4597,-1.2318,0.6213,-4.6412,0.1698,-2.8094,0.3357,-1.6936,0.2575,-0.719,0.7841
-3.4601,-0.3766,-5.4962,0.213,-0.4847,0.4597,-1.2318,0.6213,-4.6412,0.1698,-2.8094,0.3357,-1.6936,0.2575,-0.719,0.7841
-3.4907,-0.3836,-5.5178,0.2141,-0.5285,0.4752,-1.2217,0.6067,-4.6123,0.1281,-2.8353,0.3308,-1.7505,0.2647,-0.719,0.7841
-3.4907,-0.3836,-5.5178,0.2141,-0.5285,0.4752,-1.2217,0.6067,-4.6123,0.1281,-2.8353,0.3308,-1.7505,0.2647,-0.719,0.7841
-3.4907,-0.3836,-5.5178,0.2141,-0.5285,0.4752,-1.2217,0.6067,-4.6123,0.1281,-2.8353,0.3308,-1.7505,0.2647,-0.719,0.7841
-3.4907,-0.3836,-5.5454,0.2239,-0.5285,0.4752,-1.2217,0.6067,-4.6795,0.1519,-2.8418,0.319,-1.7953,0.2547,-0.719,0.7841
-3.5376,-0.3671,-5.5748,0.2212,-0.5117,0.451,-1.247,0.6156,-4.7084,0.1936,-2.8612,0.3259,-1.7953,0.2547,-0.6711,0.7991
-3.5376,-0.3671,-5.5748,0.2212,-0.5117,0.451,-1.247,0.6156,-4.7084,0.1936,-2.8612,0.3259,-1.7953,0.2547,-0.6711,0.7991
-3.5376,-0.3671,-5.5748,0.2212,-0.5117,0.451,-1.247,0.6156,-4.7084,0.1936,-2.8612,0.3259,-1.7953,0.2547,-0.6711,0.7991
-3.5212,-0.3907,-5.6041,0.2185,-0.5117,0.451,-1.2621,0.61,-4.7084,0.1936,-2.8934,0.3303,-1.84,0.2447,-0.7483,0.8263
-3.5212,-0.3907,-5.6041,0.2185,-0.5117,0.451,-1.2621,0.61,-4.7084,0.1936,-2.8934,0.3303,-1.84,0.2447,-0.7483,0.8263
-3.5516,-0.3978,-5.6137,0.2023,-0.5387,0.4423,-1.2874,0.6189,-4.7465,0.1756,-2.8999,0.3185,-1.8963,0.2518,-0.719,0.7841
-3.5353,-0.4213,-5.6429,0.1996,-0.5822,0.4577,-1.3277,0.6221,-4.7846,0.1576,-2.9257,0.3136,-1.9407,0.2418,-0.7959,0.8113
-3.5353,-0.4213,-5.6429,0.1996,-0.5822,0.4577,-1.3277,0.6221,-4.7846,0.1576,-2.9257,0.3136,-1.9407,0.2418,-0.7959,0.8113
-3.5353,-0.4213,-5.6721,0.1969,-0.6692,0.4884,-1.3176,0.6076,-4.8225,0.1397,-2.9706,0.3155,-2.0188,0.2437,-0.8433,0.7962
-3.5353,-0.4213,-5.6721,0.1969,-0.6692,0.4884,-1.3176,0.6076,-4.8225,0.1397,-2.9706,0.3155,-2.0188,0.2437,-0.8433,0.7962
-3.582,-0.4048,-5.6935,0.198,-0.6958,0.4797,-1.3579,0.6108,-4.8225,0.1397,-2.9899,0.3223,-2.0745,0.2506,-0.8433,0.7962
-3.582,-0.4048,-5.6935,0.198,-0.6958,0.4797,-1.3579,0.6108,-4.8225,0.1397,-2.9899,0.3223,-2.0745,0.2506,-0.8433,0.7962
-3.582,-0.4048,-5.6935,0.198,-0.6958,0.4797,-1.3579,0.6108,-4.8225,0.1397,-2.9899,0.3223,-2.0745,0.2506,-0.8433,0.7962
-3.6123,-0.4119,-5.7089,0.1905,-0.7224,0.4709,-1.383,0.6197,-4.8603,0.1218,-3.0155,0.3174,-2.1067,0.2236,-0.9197,0.8232
-3.6123,-0.4119,-5.7089,0.1905,-0.7224,0.4709,-1.383,0.6197,-4.8603,0.1218,-3.0155,0.3174,-2.1067,0.2236,-0.9197,0.8232
-3.6123,-0.4119,-5.7089,0.1905,-0.7224,0.4709,-1.383,0.6197,-4.8603,0.1218,-3.0155,0.3174,-2.1067,0.2236,-0.9197,0.8232
-3.6123,-0.4119,-5.7089,0.1905,-0.7224,0.4709,-1.383,0.6197,-4.8603,0.1218,-3.0155,0.3174,-2.1067,0.2236,-0.9197,0.8232
-3.582,-0.4048,-5.6661,0.1883,-0.6459,0.4077,-1.368,0.6254,-4.9355,0.0861,-3.041,0.3125,-2.1067,0.2236,-0.9377,0.7662
-3.582,-0.4048,-5.6661,0.1883,-0.6459,0.4077,-1.368,0.6254,-4.9355,0.0861,-3.041,0.3125,-2.1067,0.2236,-0.9377,0.7662
-3.582,-0.4048,-5.6661,0.1883,-0.6459,0.4077,-1.368,0.6254,-4.9355,0.0861,-3.041,0.3125,-2.1067,0.2236,-0.9377,0.7662
-3.582,-0.4048,-5.6661,0.1883,-0.6459,0.4077,-1.368,0.6254,-4.9355,0.0861,-3.041,0.3125,-2.1067,0.2236,-0.9377,0.7662
-3.4131,-0.3932,-5.5022,0.2217,-0.5387,0.4423,-1.252,0.6505,-4.8225,0.1397,-2.9449,0.3204,-1.8651,0.3181,-0.8142,0.7542
-3.4131,-0.3932,-5.5022,0.2217,-0.5387,0.4423,-1.252,0.6505,-4.8225,0.1397,-2.9449,0.3204,-1.8651,0.3181,-0.8142,0.7542
-3.3372,-0.3483,-5.4097,0.2546,-0.4138,0.4529,-1.1505,0.67,-4.6123,0.1281,-2.8676,0.3352,-1.6976,0.3759,-0.719,0.7841
-3.3372,-0.3483,-5.4097,0.2546,-0.4138,0.4529,-1.1505,0.67,-4.6123,0.1281,-2.8676,0.3352,-1.6976,0.3759,-0.719,0.7841
-3.2753,-0.3342,-5.3046,0.2701,-0.3153,0.4547,-1.079,0.678,-4.4964,0.1819,-2.7769,0.3524,-1.493,0.4217,-0.5455,0.7867
-3.2131,-0.32,-5.2268,0.2956,-0.2162,0.4563,-0.9814,0.677,-4.3796,0.2361,-2.6856,0.3696,-1.3087,0.4624,-0.3702,0.7889
-3.2297,-0.2961,-5.1585,0.3047,-0.1886,0.465,-0.9504,0.6883,-4.2617,0.2906,-2.5937,0.3867,-1.1331,0.4804,-0.272,0.8187
-3.2297,-0.2961,-5.1585,0.3047,-0.1886,0.465,-0.9504,0.6883,-4.2617,0.2906,-2.5937,0.3867,-1.1331,0.4804,-0.272,0.8187
-3.2297,-0.2961,-5.1585,0.3047,-0.1886,0.465,-0.9504,0.6883,-4.2617,0.2906,-2.5937,0.3867,-1.1331,0.4804,-0.272,0.8187
-3.2297,-0.2961,-5.1061,0.3061,-0.161,0.4736,-0.9193,0.6997,-4.1529,0.2843,-2.5079,0.392,-1.0029,0.488,-0.2525,0.8767
-3.2297,-0.2961,-5.1061,0.3061,-0.161,0.4736,-0.9193,0.6997,-4.1529,0.2843,-2.5079,0.392,-1.0029,0.488,-0.2525,0.8767
-3.2297,-0.2961,-5.1061,0.3061,-0.161,0.4736,-0.9193,0.6997,-4.1529,0.2843,-2.5079,0.392,-1.0029,0.488,-0.2525,0.8767
-3.1965,-0.344,-5.0758,0.3087,-0.2055,0.4894,-0.909,0.6849,-4.1529,0.2843,-2.4615,0.3899,-0.9554,0.4981,-0.2525,0.8767
-3.1965,-0.344,-5.0535,0.3075,-0.2331,0.4807,-0.8935,0.6906,-4.113,0.3025,-2.4282,0.4066,-0.9316,0.5032,-0.203,0.8917
-3.1965,-0.344,-5.0535,0.3075,-0.2331,0.4807,-0.8935,0.6906,-4.113,0.3025,-2.4282,0.4066,-0.9316,0.5032,-0.203,0.8917
-3.2277,-0.351,-5.0454,0.3114,-0.2331,0.4807,-0.8573,0.6667,-4.0433,0.2779,-2.4015,0.4115,-0.9316,0.5032,-0.203,0.8917
-3.2277,-0.351,-5.0454,0.3114,-0.2331,0.4807,-0.8573,0.6667,-4.0433,0.2779,-2.4015,0.4115,-0.9316,0.5032,-0.203,0.8917
-3.2277,-0.351,-5.0373,0.3152,-0.2605,0.472,-0.8573,0.6667,-4.0032,0.2961,-2.3814,0.4259,-0.9078,0.5083,-0.233,0.9349
-3.2277,-0.351,-5.0373,0.3152,-0.2605,0.472,-0.8573,0.6667,-4.0032,0.2961,-2.3814,0.4259,-0.9078,0.5083,-0.233,0.9349
-3.3062,-0.3413,-5.0454,0.3114,-0.2879,0.4633,-0.909,0.6849,-3.9734,0.2532,-2.388,0.4354,-0.9078,0.5083,-0.233,0.9349
-3.3062,-0.3413,-5.0454,0.3114,-0.2879,0.4633,-0.909,0.6849,-3.9734,0.2532,-2.388,0.4354,-0.9078,0.5083,-0.233,0.9349
-3.3207,-0.3721,-5.0535,0.3075,-0.3594,0.4703,-0.9246,0.6792,-3.9033,0.2284,-2.4079,0.4425,-0.883,0.4726,-0.233,0.9349
-3.3207,-0.3721,-5.0535,0.3075,-0.3594,0.4703,-0.9246,0.6792,-3.9033,0.2284,-2.4079,0.4425,-0.883,0.4726,-0.233,0.9349
-3.368,-0.3554,-5.0454,0.3114,-0.3594,0.4703,-0.9401,0.6736,-3.9734,0.2532,-2.3946,0.4449,-0.9069,0.4675,-0.3123,0.963
-3.368,-0.3554,-5.0454,0.3114,-0.3594,0.4703,-0.9401,0.6736,-3.9734,0.2532,-2.3946,0.4449,-0.9069,0.4675,-0.3123,0.963
-3.368,-0.3554,-5.0454,0.3114,-0.3594,0.4703,-0.9401,0.6736,-3.9734,0.2532,-2.3946,0.4449,-0.9069,0.4675,-0.3123,0.963
-3.368,-0.3554,-5.0454,0.3114,-0.3594,0.4703,-0.9401,0.6736,-3.9734,0.2532,-2.3946,0.4449,-0.9069,0.4675,-0.3123,0.963
-3.3372,-0.3483,-5.0576,0.329,-0.3763,0.4945,-0.8988,0.6701,-3.9033,0.2284,-2.3746,0.4379,-0.9069,0.4675,-0.233,0.9349
-3.3372,-0.3483,-5.0576,0.329,-0.3763,0.4945,-0.8988,0.6701,-3.9033,0.2284,-2.3746,0.4379,-0.9069,0.4675,-0.233,0.9349
-3.3372,-0.3483,-5.0495,0.3329,-0.3048,0.4877,-0.8935,0.6906,-3.9437,0.2104,-2.388,0.4354,-0.9792,0.4931,-0.2824,0.9198
-3.3372,-0.3483,-5.0495,0.3329,-0.3048,0.4877,-0.8935,0.6906,-3.9437,0.2104,-2.388,0.4354,-0.9792,0.4931,-0.2824,0.9198
-3.3372,-0.3483,-5.0495,0.3329,-0.3048,0.4877,-0.8935,0.6906,-3.9033,0.2284,-2.3612,0.4403,-0.9554,0.4981,-0.1234,0.8636
-3.3372,-0.3483,-5.0495,0.3329,-0.3048,0.4877,-0.8935,0.6906,-3.9033,0.2284,-2.3612,0.4403,-0.9554,0.4981,-0.1234,0.8636
-3.3207,-0.3721,-5.0495,0.3329,-0.2437,0.4477,-0.8935,0.6906,-3.9033,0.2284,-2.3746,0.4379,-0.9307,0.4625,-0.203,0.8917
-3.368,-0.3554,-5.0353,0.3278,-0.2162,0.4563,-0.8779,0.6963,-3.9033,0.2284,-2.3612,0.4403,-0.9668,0.4753,-0.203,0.8917
-3.368,-0.3554,-5.0353,0.3278,-0.2162,0.4563,-0.8779,0.6963,-3.9033,0.2284,-2.3612,0.4403,-0.9668,0.4753,-0.203,0.8917
-3.368,-0.3554,-5.0353,0.3278,-0.2162,0.4563,-0.8779,0.6963,-3.9033,0.2284,-2.3612,0.4403,-0.9668,0.4753,-0.203,0.8917
-3.2732,-0.3889,-5.0434,0.324,-0.2162,0.4563,-0.8676,0.6815,-3.9033,0.2284,-2.3346,0.4238,-0.9545,0.4575,-0.2824,0.9198
-3.2732,-0.3889,-5.0434,0.324,-0.2162,0.4563,-0.8676,0.6815,-3.9033,0.2284,-2.3346,0.4238,-0.9545,0.4575,-0.2824,0.9198
-3.3515,-0.3792,-5.0596,0.3164,-0.2879,0.4633,-0.8832,0.6758,-3.8736,0.1857,-2.3412,0.4333,-0.9905,0.4702,-0.2525,0.8767
-3.3515,-0.3792,-5.0596,0.3164,-0.2879,0.4633,-0.8832,0.6758,-3.8736,0.1857,-2.3412,0.4333,-0.9905,0.4702,-0.2525,0.8767
-3.3515,-0.3792,-5.0596,0.3164,-0.2879,0.4633,-0.8832,0.6758,-3.8736,0.1857,-2.3412,0.4333,-0.9905,0.4702,-0.2525,0.8767
-3.3351,-0.4029,-5.0758,0.3087,-0.2879,0.4633,-0.8729,0.661,-3.9437,0.2104,-2.3412,0.4333,-1.0019,0.4474,-0.3316,0.9046
-3.3351,-0.4029,-5.0758,0.3087,-0.2879,0.4633,-0.8729,0.661,-3.9437,0.2104,-2.3412,0.4333,-1.0019,0.4474,-0.3316,0.9046
-3.3351,-0.4029,-5.0758,0.3087,-0.2879,0.4633,-0.8729,0.661,-3.9437,0.2104,-2.3412,0.4333,-1.0019,0.4474,-0.3316,0.9046
-3.4295,-0.3695,-5.1222,0.2985,-0.3426,0.446,-0.8885,0.6553,-3.9437,0.2104,-2.3412,0.4333,-0.9896,0.4297,-0.2824,0.9198
-3.4295,-0.3695,-5.1222,0.2985,-0.3426,0.446,-0.8885,0.6553,-3.9437,0.2104,-2.3412,0.4333,-0.9896,0.4297,-0.2824,0.9198
-3.4601,-0.3766,-5.1383,0.2909,-0.3699,0.4374,-0.9143,0.6644,-3.9841,0.1925,-2.388,0.4354,-1.0246,0.402,-0.3018,0.8616
-3.4601,-0.3766,-5.1383,0.2909,-0.3699,0.4374,-0.9143,0.6644,-3.9841,0.1925,-2.388,0.4354,-1.0246,0.402,-0.3018,0.8616
-3.5212,-0.3907,-5.1483,0.2745,-0.4409,0.4442,-0.9556,0.6679,-4.0538,0.2171,-2.4013,0.433,-1.036,0.3794,-0.3018,0.8616
-3.5212,-0.3907,-5.1483,0.2745,-0.4409,0.4442,-0.9556,0.6679,-4.0538,0.2171,-2.4013,0.433,-1.036,0.3794,-0.3018,0.8616
-3.5212,-0.3907,-5.1483,0.2745,-0.4409,0.4442,-0.9556,0.6679,-4.0538,0.2171,-2.4013,0.433,-1.036,0.3794,-0.3018,0.8616
-3.5212,-0.3907,-5.1624,0.2795,-0.3971,0.4287,-0.9814,0.677,-4.1233,0.2416,-2.4147,0.4305,-1.0953,0.387,-0.3018,0.8616
-3.5048,-0.4143,-5.1845,0.2807,-0.4409,0.4442,-0.9711,0.6622,-4.0538,0.2171,-2.4081,0.421,-1.131,0.3996,-0.3316,0.9046
-3.5048,-0.4143,-5.1845,0.2807,-0.4409,0.4442,-0.9711,0.6622,-4.0538,0.2171,-2.4081,0.421,-1.131,0.3996,-0.3316,0.9046
-3.5048,-0.4143,-5.2207,0.2868,-0.468,0.4356,-0.9866,0.6565,-4.0538,0.2171,-2.4214,0.4186,-1.19,0.4072,-0.2226,0.8337
-3.5048,-0.4143,-5.2207,0.2868,-0.468,0.4356,-0.9866,0.6565,-4.0538,0.2171,-2.4214,0.4186,-1.19,0.4072,-0.2226,0.8337
-3.5353,-0.4213,-5.2367,0.2792,-0.4513,0.4115,-1.0021,0.6509,-4.0538,0.2171,-2.4546,0.4232,-1.2367,0.3972,-0.3018,0.8616
-3.5353,-0.4213,-5.2367,0.2792,-0.4513,0.4115,-1.0021,0.6509,-4.0538,0.2171,-2.4546,0.4232,-1.2367,0.3972,-0.3018,0.8616
-3.5353,-0.4213,-5.2367,0.2792,-0.4513,0.4115,-1.0021,0.6509,-4.0538,0.2171,-2.4546,0.4232,-1.2367,0.3972,-0.3018,0.8616
-3.5516,-0.3978,-5.2648,0.2892,-0.468,0.4356,-0.9764,0.6418,-4.1631,0.2236,-2.4812,0.4182,-1.3185,0.3996,-0.3509,0.8466
-3.5516,-0.3978,-5.2648,0.2892,-0.468,0.4356,-0.9764,0.6418,-4.1631,0.2236,-2.4812,0.4182,-1.3185,0.3996,-0.3509,0.8466
-3.5516,-0.3978,-5.2648,0.2892,-0.468,0.4356,-0.9764,0.6418,-4.1631,0.2236,-2.4812,0.4182,-1.3185,0.3996,-0.3509,0.8466
-3.6123,-0.4119,-5.3046,0.2701,-0.5387,0.4423,-1.0585,0.6486,-4.2717,0.2299,-2.4814,0.3969,-1.3757,0.367,-0.4295,0.8743
-3.6123,-0.4119,-5.3046,0.2701,-0.5387,0.4423,-1.0585,0.6486,-4.2717,0.2299,-2.4814,0.3969,-1.3757,0.367,-0.4295,0.8743
-3.6123,-0.4119,-5.3046,0.2701,-0.5387,0.4423,-1.0585,0.6486,-4.2717,0.2299,-2.4814,0.3969,-1.3757,0.367,-0.4295,0.8743
-3.596,-0.4353,-5.3265,0.2713,-0.5822,0.4577,-1.0483,0.6339,-4.3111,0.2118,-2.4946,0.3944,-1.3987,0.362,-0.4295,0.8743
-3.596,-0.4353,-5.3265,0.2713,-0.5822,0.4577,-1.0483,0.6339,-4.3111,0.2118,-2.4946,0.3944,-1.3987,0.362,-0.4295,0.8743
-3.596,-0.4353,-5.3265,0.2713,-0.5822,0.4577,-1.0483,0.6339,-4.3111,0.2118,-2.4946,0.3944,-1.3987,0.362,-0.4295,0.8743
-3.6426,-0.4189,-5.3642,0.2648,-0.609,0.449,-1.0483,0.6339,-4.3503,0.1938,-2.5672,0.4129,-1.4905,0.3419,-0.4781,0.8592
-3.6426,-0.4189,-5.3642,0.2648,-0.609,0.449,-1.0483,0.6339,-4.3503,0.1938,-2.5672,0.4129,-1.4905,0.3419,-0.4781,0.8592
-3.6426,-0.4189,-5.3642,0.2648,-0.609,0.449,-1.0483,0.6339,-4.3503,0.1938,-2.5672,0.4129,-1.4905,0.3419,-0.4781,0.8592
-3.7191,-0.4096,-5.4019,0.2584,-0.6459,0.4077,-1.0893,0.6373,-4.3796,0.2361,-2.5869,0.4199,-1.4785,0.3246,-0.4295,0.8743
-3.7191,-0.4096,-5.4019,0.2584,-0.6459,0.4077,-1.0893,0.6373,-4.3796,0.2361,-2.5869,0.4199,-1.4785,0.3246,-0.4295,0.8743
-3.7491,-0.4166,-5.4237,0.2595,-0.6293,0.3838,-1.1403,0.6553,-4.4187,0.218,-2.6001,0.4174,-1.5013,0.3196,-0.4781,0.8592
-3.7491,-0.4166,-5.4237,0.2595,-0.6293,0.3838,-1.1403,0.6553,-4.4187,0.218,-2.6001,0.4174,-1.5013,0.3196,-0.4781,0.8592
-3.7491,-0.4166,-5.4237,0.2595,-0.6293,0.3838,-1.1403,0.6553,-4.4187,0.218,-2.6001,0.4174,-1.5013,0.3196,-0.4781,0.8592
-3.8388,-0.4379,-5.4491,0.2357,-0.7092,0.358,-1.1963,0.6529,-4.5256,0.2239,-2.6396,0.41,-1.5697,0.3046,-0.5562,0.8868
-3.8388,-0.4379,-5.4491,0.2357,-0.7092,0.358,-1.1963,0.6529,-4.5256,0.2239,-2.6396,0.41,-1.5697,0.3046,-0.5562,0.8868
-3.8388,-0.4379,-5.4491,0.2357,-0.7092,0.358,-1.1963,0.6529,-4.5256,0.2239,-2.6396,0.41,-1.5697,0.3046,-0.5562,0.8868
-3.8227,-0.4612,-5.4708,0.2368,-0.7523,0.3732,-1.2217,0.6619,-4.5934,0.2479,-2.6658,0.4051,-1.639,0.3291,-0.6045,0.8717
-3.8227,-0.4612,-5.4708,0.2368,-0.7523,0.3732,-1.2217,0.6619,-4.5934,0.2479,-2.6658,0.4051,-1.639,0.3291,-0.6045,0.8717
-3.8525,-0.4682,-5.516,0.2265,-0.7622,0.3408,-1.2267,0.6416,-4.5352,0.164,-2.7051,0.3977,-1.7068,0.314,-0.6045,0.8717
-3.8525,-0.4682,-5.516,0.2265,-0.7622,0.3408,-1.2267,0.6416,-4.5352,0.164,-2.7051,0.3977,-1.7068,0.314,-0.6045,0.8717
-3.8525,-0.4682,-5.516,0.2265,-0.7622,0.3408,-1.2267,0.6416,-4.5352,0.164,-2.7051,0.3977,-1.7068,0.314,-0.6045,0.8717
-3.8983,-0.452,-5.5454,0.2239,-0.7458,0.3171,-1.2419,0.6359,-4.5738,0.146,-2.7508,0.3997,-1.7742,0.2989,-0.6232,0.8141
-3.8983,-0.452,-5.5454,0.2239,-0.7458,0.3171,-1.2419,0.6359,-4.5738,0.146,-2.7508,0.3997,-1.7742,0.2989,-0.6232,0.8141
-3.8983,-0.452,-5.5454,0.2239,-0.7458,0.3171,-1.2419,0.6359,-4.5738,0.146,-2.7508,0.3997,-1.7742,0.2989,-0.6232,0.8141
-3.8525,-0.4682,-5.567,0.225,-0.7193,0.3256,-1.2318,0.6213,-4.6412,0.1698,-2.7573,0.3878,-1.819,0.2889,-0.6232,0.8141
-3.8525,-0.4682,-5.567,0.225,-0.7193,0.3256,-1.2318,0.6213,-4.6412,0.1698,-2.7573,0.3878,-1.819,0.2889,-0.6232,0.8141
-3.8525,-0.4682,-5.567,0.225,-0.7193,0.3256,-1.2318,0.6213,-4.6412,0.1698,-2.7573,0.3878,-1.819,0.2889,-0.6232,0.8141
-3.928,-0.459,-5.6274,0.2072,-0.7458,0.3171,-1.2874,0.6189,-4.7465,0.1756,-2.8223,0.3755,-1.8741,0.2568,-0.7005,0.8414
-3.928,-0.459,-5.6274,0.2072,-0.7458,0.3171,-1.2874,0.6189,-4.7465,0.1756,-2.8223,0.3755,-1.8741,0.2568,-0.7005,0.8414
-3.928,-0.459,-5.6274,0.2072,-0.7458,0.3171,-1.2874,0.6189,-4.7465,0.1756,-2.8223,0.3755,-1.8741,0.2568,-0.7005,0.8414
-3.9737,-0.4429,-5.6566,0.2045,-0.7458,0.3171,-1.2773,0.6043,-4.8801,0.2228,-2.8417,0.3612,-1.9185,0.2467,-0.7776,0.8687
-3.9737,-0.4429,-5.6566,0.2045,-0.7458,0.3171,-1.2773,0.6043,-4.8801,0.2228,-2.8417,0.3612,-1.9185,0.2467,-0.7776,0.8687
-3.928,-0.459,-5.6644,0.2007,-0.7622,0.3408,-1.2874,0.6189,-4.9553,0.1866,-2.8741,0.3445,-1.9628,0.2367,-0.8725,0.8383
-3.928,-0.459,-5.6644,0.2007,-0.7622,0.3408,-1.2874,0.6189,-4.9553,0.1866,-2.8741,0.3445,-1.9628,0.2367,-0.8725,0.8383
-3.928,-0.459,-5.6644,0.2007,-0.7622,0.3408,-1.2874,0.6189,-4.9553,0.1866,-2.8741,0.3445,-1.9628,0.2367,-0.8725,0.8383
-3.7467,-0.4704,-5.5826,0.2174,-0.7092,0.358,-1.1861,0.6383,-4.8512,0.1812,-2.8741,0.3445,-1.8413,0.2839,-0.7483,0.8263
-3.7467,-0.4704,-5.5826,0.2174,-0.7092,0.358,-1.1861,0.6383,-4.8512,0.1812,-2.8741,0.3445,-1.8413,0.2839,-0.7483,0.8263
-3.7467,-0.4704,-5.5826,0.2174,-0.7092,0.358,-1.1861,0.6383,-4.8512,0.1812,-2.8741,0.3445,-1.8413,0.2839,-0.7483,0.8263
-3.7467,-0.4704,-5.5826,0.2174,-0.7092,0.358,-1.1861,0.6383,-4.8512,0.1812,-2.8741,0.3445,-1.8413,0.2839,-0.7483,0.8263
-3.596,-0.4353,-5.3958,0.2497,-0.6025,0.3924,-1.0379,0.6747,-4.5642,0.2059,-2.7638,0.376,-1.5267,0.3941,-0.5562,0.8868
-3.596,-0.4353,-5.3958,0.2497,-0.6025,0.3924,-1.0379,0.6747,-4.5642,0.2059,-2.7638,0.376,-1.5267,0.3941,-0.5562,0.8868
-3.5516,-0.3978,-5.2906,0.2652,-0.5053,0.3942,-0.9761,0.6974,-4.4187,0.218,-2.6724,0.3932,-1.3075,0.4222,-0.4592,0.9172
-3.5516,-0.3978,-5.2085,0.2693,-0.5053,0.3942,-0.9349,0.694,-4.2717,0.2299,-2.5672,0.4129,-1.1208,0.4627,-0.3615,0.9477
-3.5516,-0.3978,-5.2085,0.2693,-0.5053,0.3942,-0.9349,0.694,-4.2717,0.2299,-2.5672,0.4129,-1.1208,0.4627,-0.3615,0.9477
-3.5516,-0.3978,-5.2085,0.2693,-0.5053,0.3942,-0.9349,0.694,-4.2717,0.2299,-2.5672,0.4129,-1.1208,0.4627,-0.3615,0.9477
-3.5048,-0.4143,-5.1322,0.2821,-0.4783,0.4028,-0.9038,0.7054,-4.0834,0.2598,-2.4479,0.4351,-0.9678,0.516,-0.263,0.9783
-3.5048,-0.4143,-5.1322,0.2821,-0.4783,0.4028,-0.9038,0.7054,-4.0834,0.2598,-2.4479,0.4351,-0.9678,0.516,-0.263,0.9783
-3.5048,-0.4143,-5.0919,0.3011,-0.4783,0.4028,-0.8779,0.6963,-3.9437,0.2104,-2.3878,0.4569,-0.8964,0.5312,-0.2932,1.0217
-3.5212,-0.3907,-5.0596,0.3164,-0.4513,0.4115,-0.8467,0.7077,-3.9033,0.2284,-2.3208,0.4692,-0.861,0.5594,-0.2438,1.0372
-3.5212,-0.3907,-5.0596,0.3164,-0.4513,0.4115,-0.8467,0.7077,-3.9033,0.2284,-2.3208,0.4692,-0.861,0.5594,-0.2438,1.0372
-3.5212,-0.3907,-5.0596,0.3164,-0.4513,0.4115,-0.8467,0.7077,-3.9033,0.2284,-2.3208,0.4692,-0.861,0.5594,-0.2438,1.0372
-3.5212,-0.3907,-5.0596,0.3164,-0.4513,0.4115,-0.8467,0.7077,-3.9033,0.2284,-2.3208,0.4692,-0.861,0.5594,-0.2438,1.0372
-3.5212,-0.3907,-5.0292,0.319,-0.3908,0.3719,-0.8467,0.7077,-3.8221,0.2646,-2.2736,0.4886,-0.813,0.5696,-0.114,1.0243
-3.5212,-0.3907,-5.0292,0.319,-0.3908,0.3719,-0.8467,0.7077,-3.8221,0.2646,-2.2736,0.4886,-0.813,0.5696,-0.114,1.0243
-3.5212,-0.3907,-5.0292,0.319,-0.3908,0.3719,-0.8467,0.7077,-3.8221,0.2646,-2.2736,0.4886,-0.813,0.5696,-0.114,1.0243
-3.5516,-0.3978,-5.0129,0.3266,-0.3636,0.3805,-0.831,0.7134,-3.8628,0.2465,-2.2265,0.4864,-0.8485,0.5414,-0.1337,0.9654
-3.5516,-0.3978,-5.0129,0.3266,-0.3636,0.3805,-0.831,0.7134,-3.8628,0.2465,-2.2265,0.4864,-0.8485,0.5414,-0.1337,0.9654
-3.5516,-0.3978,-5.0129,0.3266,-0.3636,0.3805,-0.831,0.7134,-3.8628,0.2465,-2.2265,0.4864,-0.8485,0.5414,-0.1337,0.9654
-3.5353,-0.4213,-5.0211,0.3228,-0.3636,0.3805,-0.831,0.7134,-3.9734,0.2532,-2.2063,0.4793,-0.86,0.5184,-0.1834,0.9502
-3.5353,-0.4213,-5.0211,0.3228,-0.3636,0.3805,-0.831,0.7134,-3.9734,0.2532,-2.2063,0.4793,-0.86,0.5184,-0.1834,0.9502
-3.5353,-0.4213,-5.0211,0.3228,-0.3636,0.3805,-0.831,0.7134,-3.9734,0.2532,-2.2063,0.4793,-0.86,0.5184,-0.1834,0.9502
-3.5657,-0.4283,-5.0495,0.3329,-0.4783,0.4028,-0.8207,0.6985,-4.0433,0.2779,-2.1994,0.4914,-0.8592,0.4776,-0.233,0.9349
-3.5657,-0.4283,-5.0495,0.3329,-0.4783,0.4028,-0.8207,0.6985,-4.0433,0.2779,-2.1994,0.4914,-0.8592,0.4776,-0.233,0.9349
-3.5494,-0.4518,-5.0434,0.324,-0.522,0.4183,-0.8104,0.6837,-4.0137,0.2351,-2.2061,0.501,-0.8954,0.4904,-0.233,0.9349
-3.5494,-0.4518,-5.0434,0.324,-0.522,0.4183,-0.8104,0.6837,-4.0137,0.2351,-2.2061,0.501,-0.8954,0.4904,-0.233,0.9349
-3.5353,-0.4213,-5.0353,0.3278,-0.4783,0.4028,-0.7687,0.6802,-4.0137,0.2351,-2.2127,0.5106,-0.883,0.4726,-0.233,0.9349
-3.5353,-0.4213,-5.0353,0.3278,-0.4783,0.4028,-0.7687,0.6802,-4.0137,0.2351,-2.2127,0.5106,-0.883,0.4726,-0.233,0.9349
-3.6123,-0.4119,-5.0434,0.324,-0.5053,0.3942,-0.7947,0.6893,-3.9734,0.2532,-2.1857,0.5155,-0.8592,0.4776,-0.1534,0.9068
-3.6123,-0.4119,-5.0434,0.324,-0.5053,0.3942,-0.7947,0.6893,-3.9734,0.2532,-2.1857,0.5155,-0.8592,0.4776,-0.1534,0.9068
-3.6589,-0.3954,-5.0292,0.319,-0.4617,0.3788,-0.7947,0.6893,-3.9033,0.2284,-2.1923,0.5251,-0.8228,0.4648,-0.1534,0.9068
-3.6589,-0.3954,-5.0292,0.319,-0.4617,0.3788,-0.7947,0.6893,-3.9033,0.2284,-2.1923,0.5251,-0.8228,0.4648,-0.1534,0.9068
-3.6426,-0.4189,-5.0292,0.319,-0.4617,0.3788,-0.8051,0.7042,-4.0032,0.2961,-2.1721,0.518,-0.8228,0.4648,-0.1035,0.9219
-3.6426,-0.4189,-5.0292,0.319,-0.4617,0.3788,-0.8051,0.7042,-4.0032,0.2961,-2.1721,0.518,-0.8228,0.4648,-0.1035,0.9219
-3.7191,-0.4096,-5.0454,0.3114,-0.5053,0.3942,-0.8467,0.7077,-4.0032,0.2961,-2.1788,0.5276,-0.8228,0.4648,-0.0735,0.8786
-3.7191,-0.4096,-5.0454,0.3114,-0.5053,0.3942,-0.8467,0.7077,-4.0032,0.2961,-2.1788,0.5276,-0.8228,0.4648,-0.0735,0.8786
-3.7191,-0.4096,-5.0454,0.3114,-0.5053,0.3942,-0.8467,0.7077,-4.0032,0.2961,-2.1788,0.5276,-0.8228,0.4648,-0.0735,0.8786
-3.689,-0.4025,-5.0311,0.3063,-0.5053,0.3942,-0.8207,0.6985,-3.9033,0.2284,-2.1721,0.518,-0.8715,0.4955,-0.1035,0.9219
-3.689,-0.4025,-5.0311,0.3063,-0.5053,0.3942,-0.8207,0.6985,-3.9033,0.2284,-2.1721,0.518,-0.8715,0.4955,-0.1035,0.9219
-3.689,-0.4025,-5.0311,0.3063,-0.5053,0.3942,-0.8207,0.6985,-3.9033,0.2284,-2.1721,0.518,-0.8715,0.4955,-0.1035,0.9219
-3.7029,-0.433,-5.0758,0.3087,-0.5489,0.4096,-0.8104,0.6837,-3.7923,0.2216,-2.1788,0.5276,-0.9078,0.5083,-0.0234,0.8936
-3.7029,-0.433,-5.0758,0.3087,-0.5489,0.4096,-0.8104,0.6837,-3.7923,0.2216,-2.1788,0.5276,-0.9078,0.5083,-0.0234,0.8936
-3.6866,-0.4564,-5.1122,0.315,-0.5322,0.3856,-0.8261,0.678,-3.7923,0.2216,-2.1923,0.5251,-0.9193,0.4854,-0.0234,0.8936
-3.7329,-0.44,-5.1283,0.3073,-0.5322,0.3856,-0.852,0.6872,-3.8221,0.2646,-2.2059,0.5226,-0.9307,0.4625,-0.0234,0.8936
-3.7329,-0.44,-5.1283,0.3073,-0.5322,0.3856,-0.852,0.6872,-3.8221,0.2646,-2.2059,0.5226,-0.9307,0.4625,-0.0234,0.8936
-3.7329,-0.44,-5.1283,0.3073,-0.5322,0.3856,-0.852,0.6872,-3.8221,0.2646,-2.2059,0.5226,-0.9307,0.4625,-0.0234,0.8936
-3.7629,-0.4471,-5.1524,0.2959,-0.5591,0.377,-0.852,0.6872,-3.9331,0.2713,-2.2329,0.5177,-0.9659,0.4347,-0.0735,0.8786
-3.7629,-0.4471,-5.1524,0.2959,-0.5591,0.377,-0.852,0.6872,-3.9331,0.2713,-2.2329,0.5177,-0.9659,0.4347,-0.0735,0.8786
-3.809,-0.4308,-5.1765,0.2845,-0.5591,0.377,-0.8676,0.6815,-3.9734,0.2532,-2.2196,0.4985,-0.9773,0.412,-0.1834,0.9502
-3.809,-0.4308,-5.1765,0.2845,-0.5591,0.377,-0.8676,0.6815,-3.9734,0.2532,-2.2196,0.4985,-0.9773,0.412,-0.1834,0.9502
-3.7629,-0.4471,-5.1925,0.2769,-0.5757,0.401,-0.9038,0.7054,-4.0433,0.2779,-2.2265,0.4864,-1.0246,0.402,-0.1534,0.9068
-3.7629,-0.4471,-5.1925,0.2769,-0.5757,0.401,-0.9038,0.7054,-4.0433,0.2779,-2.2265,0.4864,-1.0246,0.402,-0.1534,0.9068
-3.7629,-0.4471,-5.2245,0.2617,-0.6192,0.4163,-0.9296,0.7146,-4.1233,0.2416,-2.2604,0.4695,-1.0718,0.392,-0.2824,0.9198
-3.7629,-0.4471,-5.2245,0.2617,-0.6192,0.4163,-0.9296,0.7146,-4.1233,0.2416,-2.2604,0.4695,-1.0718,0.392,-0.2824,0.9198
-3.7767,-0.4774,-5.2644,0.2428,-0.6459,0.4077,-0.9451,0.7089,-4.0538,0.2171,-2.2738,0.467,-1.1075,0.4047,-0.233,0.9349
-3.7767,-0.4774,-5.2644,0.2428,-0.6459,0.4077,-0.9451,0.7089,-4.0538,0.2171,-2.2738,0.467,-1.1075,0.4047,-0.233,0.9349
-3.7605,-0.5007,-5.3163,0.2413,-0.6892,0.423,-0.9349,0.694,-4.0938,0.1991,-2.3142,0.4597,-1.131,0.3996,-0.3123,0.963
-3.7605,-0.5007,-5.3163,0.2413,-0.6892,0.423,-0.9349,0.694,-4.0938,0.1991,-2.3142,0.4597,-1.131,0.3996,-0.3123,0.963
-3.7605,-0.5007,-5.3163,0.2413,-0.6892,0.423,-0.9349,0.694,-4.0938,0.1991,-2.3142,0.4597,-1.131,0.3996,-0.3123,0.963
-3.7605,-0.5007,-5.3163,0.2413,-0.6892,0.423,-0.9349,0.694,-4.0938,0.1991,-2.3142,0.4597,-1.131,0.3996,-0.3123,0.963
-3.7605,-0.5007,-5.3163,0.2413,-0.6892,0.423,-0.9349,0.694,-4.0938,0.1991,-2.3142,0.4597,-1.131,0.3996,-0.3123,0.963
-3.8227,-0.4612,-5.3916,0.2285,-0.7589,0.4295,-0.9349,0.694,-4.2322,0.248,-2.3878,0.4569,-1.2488,0.4147,-0.2824,0.9198
-3.8227,-0.4612,-5.3916,0.2285,-0.7589,0.4295,-0.9349,0.694,-4.2322,0.248,-2.3878,0.4569,-1.2488,0.4147,-0.2824,0.9198
-3.8227,-0.4612,-5.3916,0.2285,-0.7589,0.4295,-0.9349,0.694,-4.2322,0.248,-2.3878,0.4569,-1.2488,0.4147,-0.2824,0.9198
-3.8983,-0.452,-5.4449,0.2145,-0.7787,0.3645,-0.9659,0.6827,-4.1926,0.2661,-2.4013,0.433,-1.2599,0.3921,-0.3123,0.963
-3.8983,-0.452,-5.4449,0.2145,-0.7787,0.3645,-0.9659,0.6827,-4.1926,0.2661,-2.4013,0.433,-1.2599,0.3921,-0.3123,0.963
-3.8983,-0.452,-5.4449,0.2145,-0.7787,0.3645,-0.9659,0.6827,-4.1926,0.2661,-2.4013,0.433,-1.2599,0.3921,-0.3123,0.963
-3.9737,-0.4429,-5.4685,0.2032,-0.7887,0.3322,-0.9814,0.677,-4.2322,0.248,-2.4147,0.4305,-1.271,0.3696,-0.2824,0.9198
-3.9737,-0.4429,-5.4685,0.2032,-0.7887,0.3322,-0.9814,0.677,-4.2322,0.248,-2.4147,0.4305,-1.271,0.3696,-0.2824,0.9198
-3.9737,-0.4429,-5.4625,0.1946,-0.7887,0.3322,-0.9814,0.677,-4.3011,0.2724,-2.428,0.4281,-1.3174,0.3596,-0.2824,0.9198
-3.9576,-0.4661,-5.4703,0.1908,-0.8315,0.3473,-1.0225,0.6804,-4.2717,0.2299,-2.4413,0.4256,-1.3405,0.3546,-0.3316,0.9046
-3.9576,-0.4661,-5.4703,0.1908,-0.8315,0.3473,-1.0225,0.6804,-4.2717,0.2299,-2.4413,0.4256,-1.3405,0.3546,-0.3316,0.9046
-4.0032,-0.45,-5.498,0.2006,-0.8151,0.3237,-1.0738,0.6985,-4.3404,0.2542,-2.4612,0.4326,-1.3987,0.362,-0.3316,0.9046
-4.0032,-0.45,-5.498,0.2006,-0.8151,0.3237,-1.0738,0.6985,-4.3404,0.2542,-2.4612,0.4326,-1.3987,0.362,-0.3316,0.9046
-4.0032,-0.45,-5.498,0.2006,-0.8151,0.3237,-1.0738,0.6985,-4.3404,0.2542,-2.4612,0.4326,-1.3987,0.362,-0.3316,0.9046
-4.0192,-0.4268,-5.51,0.2179,-0.8151,0.3237,-1.0738,0.6985,-4.3111,0.2118,-2.4811,0.4396,-1.4797,0.3643,-0.4104,0.9325
-4.0192,-0.4268,-5.51,0.2179,-0.8151,0.3237,-1.0738,0.6985,-4.3111,0.2118,-2.4811,0.4396,-1.4797,0.3643,-0.4104,0.9325
-3.9737,-0.4429,-5.5238,0.2228,-0.8315,0.3473,-1.0738,0.6985,-4.3503,0.1938,-2.5009,0.4467,-1.5254,0.3543,-0.3316,0.9046
-4.0192,-0.4268,-5.5376,0.2276,-0.8578,0.3388,-1.0892,0.6928,-4.4187,0.218,-2.5208,0.4537,-1.571,0.3442,-0.3018,0.8616
-4.0192,-0.4268,-5.5376,0.2276,-0.8578,0.3388,-1.0892,0.6928,-4.4187,0.218,-2.5208,0.4537,-1.571,0.3442,-0.3018,0.8616
-4.0941,-0.4179,-5.567,0.225,-0.8677,0.3066,-1.1199,0.6814,-4.4868,0.2421,-2.534,0.4512,-1.5817,0.3219,-0.2226,0.8337
-4.0941,-0.4179,-5.567,0.225,-0.8677,0.3066,-1.1199,0.6814,-4.4868,0.2421,-2.534,0.4512,-1.5817,0.3219,-0.2226,0.8337
-4.078,-0.441,-5.5826,0.2174,-0.8677,0.3066,-1.1352,0.6757,-4.4868,0.2421,-2.5274,0.4417,-1.6271,0.3119,-0.3018,0.8616
-4.078,-0.441,-5.5826,0.2174,-0.8677,0.3066,-1.1352,0.6757,-4.4868,0.2421,-2.5274,0.4417,-1.6271,0.3119,-0.3018,0.8616
-4.1234,-0.425,-5.5981,0.2099,-0.8513,0.283,-1.1505,0.67,-4.5934,0.2479,-2.5539,0.4368,-1.6378,0.2896,-0.272,0.8187
-4.1234,-0.425,-5.5981,0.2099,-0.8513,0.283,-1.1505,0.67,-4.5934,0.2479,-2.5539,0.4368,-1.6378,0.2896,-0.272,0.8187
-4.1073,-0.4482,-5.6274,0.2072,-0.8939,0.298,-1.1403,0.6553,-4.661,0.2718,-2.5868,0.4413,-1.6829,0.2796,-0.3509,0.8466
-4.1073,-0.4482,-5.6274,0.2072,-0.8939,0.298,-1.1403,0.6553,-4.661,0.2718,-2.5868,0.4413,-1.6829,0.2796,-0.3509,0.8466
-4.1073,-0.4482,-5.6429,0.1996,-0.9364,0.313,-1.1556,0.6496,-4.6318,0.2298,-2.5935,0.4293,-1.7399,0.2868,-0.5078,0.902
-4.1073,-0.4482,-5.6429,0.1996,-0.9364,0.313,-1.1556,0.6496,-4.6318,0.2298,-2.5935,0.4293,-1.7399,0.2868,-0.5078,0.902
-4.1073,-0.4482,-5.6661,0.1883,-0.9364,0.313,-1.1709,0.6439,-4.7084,0.1936,-2.633,0.4219,-1.8071,0.2718,-0.6341,0.9143
-4.1073,-0.4482,-5.6661,0.1883,-0.9364,0.313,-1.1709,0.6439,-4.7084,0.1936,-2.633,0.4219,-1.8071,0.2718,-0.6341,0.9143
-4.062,-0.4642,-5.6816,0.1808,-0.9789,0.328,-1.2115,0.6472,-4.7465,0.1756,-2.6592,0.417,-1.8636,0.2788,-0.6821,0.8991
-4.062,-0.4642,-5.6816,0.1808,-0.9789,0.328,-1.2115,0.6472,-4.7465,0.1756,-2.6592,0.417,-1.8636,0.2788,-0.6821,0.8991
-4.0326,-0.4571,-5.6953,0.1856,-0.9789,0.328,-1.2217,0.6619,-4.7846,0.1576,-2.692,0.4215,-1.9081,0.2688,-0.7595,0.9264
-4.0326,-0.4571,-5.6953,0.1856,-0.9789,0.328,-1.2217,0.6619,-4.7846,0.1576,-2.692,0.4215,-1.9081,0.2688,-0.7595,0.9264
-4.0326,-0.4571,-5.6953,0.1856,-0.9789,0.328,-1.181,0.6586,-4.8225,0.1397,-2.7246,0.4259,-1.9643,0.2758,-0.6526,0.8565
-4.0326,-0.4571,-5.6953,0.1856,-0.9789,0.328,-1.181,0.6586,-4.8225,0.1397,-2.7246,0.4259,-1.9643,0.2758,-0.6526,0.8565
-3.9898,-0.4197,-5.6781,0.2055,-0.9528,0.3366,-1.1148,0.6463,-4.7558,0.1161,-2.7377,0.4447,-1.92,0.2858,-0.6045,0.8717
-3.9764,-0.3893,-5.6197,0.2109,-0.9103,0.3216,-1.0687,0.6633,-4.7177,0.134,-2.7116,0.4497,-1.8085,0.311,-0.6045,0.8717
-3.9764,-0.3893,-5.6197,0.2109,-0.9103,0.3216,-1.0687,0.6633,-4.7177,0.134,-2.7116,0.4497,-1.8085,0.311,-0.6045,0.8717
-3.9764,-0.3893,-5.6197,0.2109,-0.9103,0.3216,-1.0687,0.6633,-4.7177,0.134,-2.7116,0.4497,-1.8085,0.311,-0.6045,0.8717
-3.8875,-0.3678,-5.5376,0.2276,-0.8578,0.3388,-1.0071,0.6861,-4.6123,0.1281,-2.6723,0.4572,-1.663,0.3637,-0.5562,0.8868
-3.8875,-0.3678,-5.5376,0.2276,-0.8578,0.3388,-1.0071,0.6861,-4.6123,0.1281,-2.6723,0.4572,-1.663,0.3637,-0.5562,0.8868
-3.7817,-0.3698,-5.4334,0.2432,-0.7622,0.3408,-0.9451,0.7089,-4.6028,0.1878,-2.6197,0.4672,-1.5159,0.4166,-0.5078,0.902
-3.7817,-0.3698,-5.4334,0.2432,-0.7622,0.3408,-0.9451,0.7089,-4.6028,0.1878,-2.6197,0.4672,-1.5159,0.4166,-0.5078,0.902
-3.7817,-0.3698,-5.4334,0.2432,-0.7622,0.3408,-0.9451,0.7089,-4.6028,0.1878,-2.6197,0.4672,-1.5159,0.4166,-0.5078,0.902
-3.738,-0.3319,-5.3083,0.2451,-0.6826,0.3665,-0.8829,0.7317,-4.3894,0.1758,-2.5405,0.4821,-1.3087,0.4624,-0.4104,0.9325
-3.738,-0.3319,-5.3083,0.2451,-0.6826,0.3665,-0.8829,0.7317,-4.3894,0.1758,-2.5405,0.4821,-1.3087,0.4624,-0.4104,0.9325
-3.738,-0.3319,-5.3083,0.2451,-0.6826,0.3665,-0.8829,0.7317,-4.3894,0.1758,-2.5405,0.4821,-1.3087,0.4624,-0.4104,0.9325
-3.6147,-0.3577,-5.1925,0.2769,-0.6025,0.3924,-0.7944,0.7455,-4.0243,0.1745,-2.3741,0.5025,-1.0039,0.5287,-0.1834,0.9502
-3.6147,-0.3577,-5.1925,0.2769,-0.6025,0.3924,-0.7944,0.7455,-4.0243,0.1745,-2.3741,0.5025,-1.0039,0.5287,-0.1834,0.9502
-3.6311,-0.334,-5.1463,0.2871,-0.5924,0.425,-0.7629,0.7569,-3.9437,0.2104,-2.3205,0.5124,-0.9088,0.5492,-0.0535,0.9371
-3.6311,-0.334,-5.1463,0.2871,-0.5924,0.425,-0.7629,0.7569,-3.9437,0.2104,-2.3205,0.5124,-0.9088,0.5492,-0.0535,0.9371
-3.6311,-0.334,-5.1463,0.2871,-0.5924,0.425,-0.7629,0.7569,-3.9437,0.2104,-2.3205,0.5124,-0.9088,0.5492,-0.0535,0.9371
-3.6311,-0.334,-5.1463,0.2871,-0.5924,0.425,-0.7629,0.7569,-3.9437,0.2104,-2.3205,0.5124,-0.9088,0.5492,-0.0535,0.9371
-3.6777,-0.3176,-5.1161,0.2897,-0.5053,0.3942,-0.7211,0.7534,-3.9225,0.3326,-2.2263,0.5081,-0.837,0.5645,0.047,0.9674
-3.6777,-0.3176,-5.1161,0.2897,-0.5053,0.3942,-0.7211,0.7534,-3.9225,0.3326,-2.2263,0.5081,-0.837,0.5645,0.047,0.9674
-3.6777,-0.3176,-5.1161,0.2897,-0.5053,0.3942,-0.7211,0.7534,-3.9225,0.3326,-2.2263,0.5081,-0.837,0.5645,0.047,0.9674
-3.6777,-0.3176,-5.1161,0.2897,-0.4887,0.3702,-0.7211,0.7534,-3.9525,0.3758,-2.2061,0.501,-0.7881,0.5336,0.047,0.9674
-3.6777,-0.3176,-5.1161,0.2897,-0.5053,0.3942,-0.7211,0.7534,-3.9525,0.3758,-2.1859,0.4938,-0.8121,0.5285,0.0166,1.0112
-3.6777,-0.3176,-5.1161,0.2897,-0.5053,0.3942,-0.7211,0.7534,-3.9525,0.3758,-2.1859,0.4938,-0.8121,0.5285,0.0166,1.0112
-3.6777,-0.3176,-5.1241,0.2859,-0.522,0.4183,-0.7211,0.7534,-3.9525,0.3758,-2.159,0.4771,-0.8121,0.5285,-0.064,1.0397
-3.7079,-0.3247,-5.1322,0.2821,-0.5924,0.425,-0.7472,0.7627,-3.9225,0.3326,-2.159,0.4771,-0.8361,0.5235,-0.0336,0.9959
-3.7079,-0.3247,-5.1322,0.2821,-0.5924,0.425,-0.7472,0.7627,-3.9225,0.3326,-2.159,0.4771,-0.8361,0.5235,-0.0336,0.9959
-3.7079,-0.3247,-5.1322,0.2821,-0.5924,0.425,-0.7472,0.7627,-3.9225,0.3326,-2.159,0.4771,-0.8361,0.5235,-0.0336,0.9959
-3.6311,-0.334,-5.1322,0.2821,-0.5489,0.4096,-0.7315,0.7684,-3.9629,0.3143,-2.1859,0.4938,-0.8237,0.5056,-0.114,1.0243
-3.6311,-0.334,-5.1322,0.2821,-0.5489,0.4096,-0.7315,0.7684,-3.9629,0.3143,-2.1859,0.4938,-0.8237,0.5056,-0.114,1.0243
-3.6311,-0.334,-5.1322,0.2821,-0.5489,0.4096,-0.7315,0.7684,-3.9629,0.3143,-2.1859,0.4938,-0.8237,0.5056,-0.114,1.0243
-3.6311,-0.334,-5.1322,0.2821,-0.5489,0.4096,-0.7315,0.7684,-3.9629,0.3143,-2.1859,0.4938,-0.8237,0.5056,-0.114,1.0243
-3.6475,-0.3104,-5.118,0.2771,-0.5489,0.4096,-0.6528,0.7406,-3.9331,0.2713,-2.2127,0.5106,-0.8113,0.4877,-0.114,1.0243
-3.6475,-0.3104,-5.118,0.2771,-0.5489,0.4096,-0.6528,0.7406,-3.9331,0.2713,-2.2127,0.5106,-0.8113,0.4877,-0.114,1.0243
-3.6777,-0.3176,-5.1261,0.2733,-0.6192,0.4163,-0.6687,0.7349,-3.8628,0.2465,-2.1925,0.5034,-0.8237,0.5056,-0.0336,0.9959
-3.6777,-0.3176,-5.1261,0.2733,-0.6192,0.4163,-0.6687,0.7349,-3.8628,0.2465,-2.1925,0.5034,-0.8237,0.5056,-0.0336,0.9959
-3.6613,-0.3412,-5.118,0.2771,-0.5757,0.401,-0.6528,0.7406,-3.8926,0.2895,-2.1925,0.5034,-0.7873,0.4927,-0.0034,0.9522
-3.6613,-0.3412,-5.118,0.2771,-0.5757,0.401,-0.6528,0.7406,-3.8926,0.2895,-2.1925,0.5034,-0.7873,0.4927,-0.0034,0.9522
-3.6613,-0.3412,-5.118,0.2771,-0.5757,0.401,-0.6528,0.7406,-3.8926,0.2895,-2.1925,0.5034,-0.7873,0.4927,-0.0034,0.9522
-3.738,-0.3319,-5.12,0.2645,-0.5859,0.3684,-0.6791,0.7499,-3.8926,0.2895,-2.1992,0.513,-0.7632,0.4977,-0.0336,0.9959
-3.738,-0.3319,-5.12,0.2645,-0.5859,0.3684,-0.6791,0.7499,-3.8926,0.2895,-2.1992,0.513,-0.7632,0.4977,-0.0336,0.9959
-3.738,-0.3319,-5.12,0.2645,-0.5859,0.3684,-0.6791,0.7499,-3.8926,0.2895,-2.1992,0.513,-0.7632,0.4977,-0.0336,0.9959
-3.768,-0.3391,-5.1139,0.2557,-0.6025,0.3924,-0.7053,0.7592,-3.8926,0.2895,-2.1925,0.5034,-0.7997,0.5106,-0.0336,0.9959
-3.768,-0.3391,-5.1139,0.2557,-0.6025,0.3924,-0.7053,0.7592,-3.8926,0.2895,-2.1925,0.5034,-0.7997,0.5106,-0.0336,0.9959
-3.7517,-0.3626,-5.1422,0.2657,-0.6025,0.3924,-0.7053,0.7592,-3.8221,0.2646,-2.1925,0.5034,-0.7873,0.4927,-0.0336,0.9959
-3.7517,-0.3626,-5.1422,0.2657,-0.6025,0.3924,-0.7053,0.7592,-3.8221,0.2646,-2.1925,0.5034,-0.7873,0.4927,-0.0336,0.9959
-3.798,-0.3463,-5.1502,0.2619,-0.6293,0.3838,-0.7315,0.7684,-3.8926,0.2895,-2.1859,0.4938,-0.8113,0.4877,-0.0336,0.9959
-3.798,-0.3463,-5.1502,0.2619,-0.6293,0.3838,-0.7315,0.7684,-3.8926,0.2895,-2.1859,0.4938,-0.8113,0.4877,-0.0336,0.9959
-3.7517,-0.3626,-5.1784,0.2719,-0.6025,0.3924,-0.7053,0.7592,-3.8628,0.2465,-2.2061,0.501,-0.8715,0.4955,0.047,0.9674
-3.7517,-0.3626,-5.1784,0.2719,-0.6025,0.3924,-0.7053,0.7592,-3.8628,0.2465,-2.2061,0.501,-0.8715,0.4955,0.047,0.9674
-3.798,-0.3463,-5.1945,0.2643,-0.6025,0.3924,-0.7211,0.7534,-3.8628,0.2465,-2.2061,0.501,-0.8954,0.4904,0.0166,1.0112
-3.798,-0.3463,-5.2165,0.2655,-0.6459,0.4077,-0.7472,0.7627,-3.8628,0.2465,-2.1994,0.4914,-0.9431,0.4803,-0.064,1.0397
-3.798,-0.3463,-5.2165,0.2655,-0.6459,0.4077,-0.7472,0.7627,-3.8628,0.2465,-2.1994,0.4914,-0.9431,0.4803,-0.064,1.0397
-3.7817,-0.3698,-5.2325,0.2579,-0.6726,0.399,-0.7368,0.7477,-3.9331,0.2713,-2.1928,0.4818,-0.9668,0.4753,-0.0336,0.9959
-3.7817,-0.3698,-5.2325,0.2579,-0.6726,0.399,-0.7368,0.7477,-3.9331,0.2713,-2.1928,0.4818,-0.9668,0.4753,-0.0336,0.9959
-3.7817,-0.3698,-5.2325,0.2579,-0.6726,0.399,-0.7368,0.7477,-3.9331,0.2713,-2.1928,0.4818,-0.9668,0.4753,-0.0336,0.9959
-3.7817,-0.3698,-5.2485,0.2503,-0.6726,0.399,-0.7526,0.742,-3.8926,0.2895,-2.1928,0.4818,-0.9545,0.4575,0.0166,1.0112
-3.8278,-0.3534,-5.2705,0.2515,-0.6992,0.3904,-0.7683,0.7362,-3.9331,0.2713,-2.2063,0.4793,-1.0142,0.4652,-0.064,1.0397
-3.8278,-0.3534,-5.2705,0.2515,-0.6992,0.3904,-0.7683,0.7362,-3.9331,0.2713,-2.2063,0.4793,-1.0142,0.4652,-0.064,1.0397
-3.8278,-0.3534,-5.2705,0.2515,-0.6992,0.3904,-0.7683,0.7362,-3.9331,0.2713,-2.2063,0.4793,-1.0142,0.4652,-0.064,1.0397
-3.8278,-0.3534,-5.2864,0.2439,-0.7257,0.3818,-0.758,0.7213,-3.9331,0.2713,-2.2198,0.4769,-1.0614,0.4551,-0.064,1.0397
-3.8278,-0.3534,-5.2864,0.2439,-0.7257,0.3818,-0.758,0.7213,-3.9331,0.2713,-2.2198,0.4769,-1.0614,0.4551,-0.064,1.0397
-3.8278,-0.3534,-5.2864,0.2439,-0.7257,0.3818,-0.758,0.7213,-3.9331,0.2713,-2.2198,0.4769,-1.0614,0.4551,-0.064,1.0397
-3.8441,-0.33,-5.3023,0.2364,-0.7257,0.3818,-0.758,0.7213,-4.0032,0.2961,-2.2535,0.4815,-1.0727,0.4323,-0.114,1.0243
-3.8441,-0.33,-5.3023,0.2364,-0.7257,0.3818,-0.758,0.7213,-4.0032,0.2961,-2.2535,0.4815,-1.0727,0.4323,-0.114,1.0243
-3.8739,-0.3372,-5.3261,0.225,-0.7787,0.3645,-0.7997,0.7248,-4.0032,0.2961,-2.267,0.4791,-1.0605,0.4147,-0.064,1.0397
-3.8739,-0.3372,-5.3261,0.225,-0.7787,0.3645,-0.7997,0.7248,-4.0032,0.2961,-2.267,0.4791,-1.0605,0.4147,-0.064,1.0397
-3.8739,-0.3372,-5.3261,0.225,-0.7787,0.3645,-0.7997,0.7248,-4.0032,0.2961,-2.267,0.4791,-1.0605,0.4147,-0.064,1.0397
-3.9792,-0.3354,-5.3517,0.2013,-0.8051,0.3559,-0.8776,0.7524,-4.0834,0.2598,-2.3142,0.4597,-1.131,0.3996,-0.1639,1.009
-3.9792,-0.3354,-5.3517,0.2013,-0.8051,0.3559,-0.8776,0.7524,-4.0834,0.2598,-2.3142,0.4597,-1.131,0.3996,-0.1639,1.009
-3.9792,-0.3354,-5.3657,0.2062,-0.7787,0.3645,-0.8776,0.7524,-4.0834,0.2598,-2.341,0.4548,-1.19,0.4072,-0.1639,1.009
-3.9792,-0.3354,-5.3815,0.1986,-0.8051,0.3559,-0.8673,0.7375,-4.1233,0.2416,-2.3612,0.4403,-1.2488,0.4147,-0.1337,0.9654
-3.9792,-0.3354,-5.3815,0.1986,-0.8051,0.3559,-0.8673,0.7375,-4.1233,0.2416,-2.3612,0.4403,-1.2488,0.4147,-0.1337,0.9654
-3.9792,-0.3354,-5.3815,0.1986,-0.8051,0.3559,-0.8673,0.7375,-4.1233,0.2416,-2.3612,0.4403,-1.2488,0.4147,-0.1337,0.9654
-4.0088,-0.3426,-5.4232,0.2134,-0.8051,0.3559,-0.8829,0.7317,-4.1233,0.2416,-2.4013,0.433,-1.2721,0.4097,-0.2135,0.9936
-4.0088,-0.3426,-5.4232,0.2134,-0.8051,0.3559,-0.8829,0.7317,-4.1233,0.2416,-2.4013,0.433,-1.2721,0.4097,-0.2135,0.9936
-4.0088,-0.3426,-5.4232,0.2134,-0.8051,0.3559,-0.8829,0.7317,-4.1233,0.2416,-2.4013,0.433,-1.2721,0.4097,-0.2135,0.9936
-3.9926,-0.3659,-5.4588,0.2194,-0.848,0.3711,-0.9088,0.7409,-4.0938,0.1991,-2.428,0.4281,-1.3306,0.4171,-0.2135,0.9936
-4.0088,-0.3426,-5.4805,0.2205,-0.8644,0.3948,-0.9088,0.7409,-4.0938,0.1991,-2.4481,0.4137,-1.3416,0.3946,-0.2135,0.9936
-4.0088,-0.3426,-5.4805,0.2205,-0.8644,0.3948,-0.9088,0.7409,-4.0938,0.1991,-2.4481,0.4137,-1.3416,0.3946,-0.2135,0.9936
-3.9926,-0.3659,-5.51,0.2179,-0.848,0.3711,-0.8985,0.726,-4.1631,0.2236,-2.4945,0.4158,-1.3878,0.3845,-0.1834,0.9502
-3.9926,-0.3659,-5.51,0.2179,-0.848,0.3711,-0.8985,0.726,-4.1631,0.2236,-2.4945,0.4158,-1.3878,0.3845,-0.1834,0.9502
-3.9926,-0.3659,-5.51,0.2179,-0.848,0.3711,-0.8985,0.726,-4.1631,0.2236,-2.4945,0.4158,-1.3878,0.3845,-0.1834,0.9502
-4.0382,-0.3498,-5.5334,0.2066,-0.8315,0.3473,-0.8882,0.7111,-4.1631,0.2236,-2.5144,0.4014,-1.4108,0.3795,-0.1834,0.9502
-4.0382,-0.3498,-5.5334,0.2066,-0.8315,0.3473,-0.8882,0.7111,-4.1631,0.2236,-2.5144,0.4014,-1.4108,0.3795,-0.1834,0.9502
-4.0382,-0.3498,-5.5334,0.2066,-0.8315,0.3473,-0.8882,0.7111,-4.1631,0.2236,-2.5144,0.4014,-1.4108,0.3795,-0.1834,0.9502
-4.0676,-0.357,-5.5664,0.1791,-0.8578,0.3388,-0.9399,0.7294,-4.3404,0.2542,-2.5806,0.3679,-1.5374,0.3716,-0.2824,0.9198
-4.0676,-0.357,-5.5957,0.1765,-0.9005,0.3538,-0.9554,0.7237,-4.3796,0.2361,-2.6136,0.3512,-1.6057,0.3565,-0.3316,0.9046
-4.0676,-0.357,-5.5957,0.1765,-0.9005,0.3538,-0.9554,0.7237,-4.3796,0.2361,-2.6136,0.3512,-1.6057,0.3565,-0.3316,0.9046
-4.0676,-0.357,-5.5957,0.1765,-0.9005,0.3538,-0.9554,0.7237,-4.3796,0.2361,-2.6136,0.3512,-1.6057,0.3565,-0.3316,0.9046
-4.0676,-0.357,-5.619,0.1652,-0.9431,0.3689,-0.9709,0.718,-4.448,0.2602,-2.653,0.3439,-1.651,0.3464,-0.4104,0.9325
-4.0676,-0.357,-5.619,0.1652,-0.9431,0.3689,-0.9709,0.718,-4.448,0.2602,-2.653,0.3439,-1.651,0.3464,-0.4104,0.9325
-4.0676,-0.357,-5.6482,0.1625,-0.9692,0.3602,-0.9864,0.7123,-4.448,0.2602,-2.6987,0.3459,-1.7082,0.3535,-0.2824,0.9198
-4.0676,-0.357,-5.6637,0.155,-1.0116,0.3752,-0.9761,0.6974,-4.4868,0.2421,-2.7379,0.3386,-1.7532,0.3434,-0.3316,0.9046
-4.0676,-0.357,-5.6637,0.155,-1.0116,0.3752,-0.9761,0.6974,-4.4868,0.2421,-2.7379,0.3386,-1.7532,0.3434,-0.3316,0.9046
-4.0382,-0.3498,-5.6774,0.1599,-1.0376,0.3666,-0.9504,0.6883,-4.4576,0.1999,-2.7769,0.3313,-1.7637,0.3211,-0.3316,0.9046
-4.0382,-0.3498,-5.6774,0.1599,-1.0376,0.3666,-0.9504,0.6883,-4.4576,0.1999,-2.7769,0.3313,-1.7637,0.3211,-0.3316,0.9046
-4.0382,-0.3498,-5.6774,0.1599,-1.0376,0.3666,-0.9504,0.6883,-4.4576,0.1999,-2.7769,0.3313,-1.7637,0.3211,-0.3316,0.9046
-4.025,-0.3192,-5.6423,0.154,-0.9953,0.3516,-0.9451,0.7089,-4.5256,0.2239,-2.7899,0.3288,-1.7412,0.3262,-0.4104,0.9325
-4.025,-0.3192,-5.6423,0.154,-0.9953,0.3516,-0.9451,0.7089,-4.5256,0.2239,-2.7899,0.3288,-1.7412,0.3262,-0.4104,0.9325
-3.9659,-0.3047,-5.5838,0.1592,-0.9267,0.3452,-0.8985,0.726,-4.4187,0.218,-2.7769,0.3313,-1.6164,0.3341,-0.3615,0.9477
-3.9659,-0.3047,-5.5838,0.1592,-0.9267,0.3452,-0.8985,0.726,-4.4187,0.218,-2.7769,0.3313,-1.6164,0.3341,-0.3615,0.9477
-3.8604,-0.3064,-5.5095,0.172,-0.8315,0.3473,-0.862,0.7581,-4.409,0.2784,-2.7445,0.3268,-1.4567,0.3694,-0.3123,0.963
-3.8604,-0.3064,-5.5095,0.172,-0.8315,0.3473,-0.862,0.7581,-4.409,0.2784,-2.7445,0.3268,-1.4567,0.3694,-0.3123,0.963
-3.8007,-0.2919,-5.4209,0.1799,-0.7622,0.3408,-0.8151,0.7753,-4.2617,0.2906,-2.6923,0.3366,-1.3075,0.4222,-0.263,0.9783
-3.7106,-0.2702,-5.3299,0.2001,-0.6826,0.3665,-0.7261,0.7892,-4.0433,0.2779,-2.6202,0.3394,-1.1331,0.4804,-0.1337,0.9654
-3.7106,-0.2702,-5.3299,0.2001,-0.6826,0.3665,-0.7261,0.7892,-4.0433,0.2779,-2.6202,0.3394,-1.1331,0.4804,-0.1337,0.9654
-3.7106,-0.2702,-5.3299,0.2001,-0.6826,0.3665,-0.7261,0.7892,-4.0433,0.2779,-2.6202,0.3394,-1.1331,0.4804,-0.1337,0.9654
-3.6804,-0.263,-5.2542,0.2128,-0.6293,0.3838,-0.6524,0.7972,-3.9331,0.2713,-2.5544,0.3515,-1.0039,0.5287,-0.0837,0.9806
-3.6804,-0.263,-5.2542,0.2128,-0.6293,0.3838,-0.6524,0.7972,-3.9331,0.2713,-2.5544,0.3515,-1.0039,0.5287,-0.0837,0.9806
-3.6804,-0.263,-5.2542,0.2128,-0.6293,0.3838,-0.6524,0.7972,-3.9331,0.2713,-2.5544,0.3515,-1.0039,0.5287,-0.0837,0.9806
-3.6969,-0.2392,-5.1942,0.2179,-0.5591,0.377,-0.6206,0.8087,-3.7403,0.3009,-2.4685,0.3567,-0.837,0.5645,0.0671,1.0265
-3.6969,-0.2392,-5.1942,0.2179,-0.5591,0.377,-0.6206,0.8087,-3.7403,0.3009,-2.4685,0.3567,-0.837,0.5645,0.0671,1.0265
-3.7134,-0.2154,-5.1641,0.2205,-0.5322,0.3856,-0.5888,0.8202,-3.6581,0.3373,-2.4153,0.3664,-0.7408,0.5849,0.1992,1.0131
-3.6969,-0.2392,-5.1278,0.2143,-0.4887,0.3702,-0.5993,0.8354,-3.6471,0.3993,-2.3687,0.3642,-0.6924,0.5951,0.2503,1.0284
-3.6969,-0.2392,-5.1278,0.2143,-0.4887,0.3702,-0.5993,0.8354,-3.6471,0.3993,-2.3687,0.3642,-0.6924,0.5951,0.2503,1.0284
-3.6667,-0.2319,-5.1259,0.2268,-0.4617,0.3788,-0.5569,0.8318,-3.6471,0.3993,-2.3487,0.3572,-0.6682,0.6002,0.1379,1.1015
-3.6667,-0.2319,-5.1259,0.2268,-0.4617,0.3788,-0.5569,0.8318,-3.6471,0.3993,-2.3487,0.3572,-0.6682,0.6002,0.1379,1.1015
-3.6667,-0.2319,-5.1259,0.2268,-0.4617,0.3788,-0.5569,0.8318,-3.6471,0.3993,-2.3487,0.3572,-0.6682,0.6002,0.1379,1.1015
-3.7134,-0.2154,-5.1198,0.2181,-0.5053,0.3942,-0.5464,0.8167,-3.5753,0.374,-2.3154,0.3525,-0.6556,0.5821,0.1071,1.1459
-3.7134,-0.2154,-5.1198,0.2181,-0.5053,0.3942,-0.5464,0.8167,-3.5753,0.374,-2.3154,0.3525,-0.6556,0.5821,0.1071,1.1459
-3.7134,-0.2154,-5.1198,0.2181,-0.5053,0.3942,-0.5464,0.8167,-3.5753,0.374,-2.3154,0.3525,-0.6556,0.5821,0.1071,1.1459
-3.6667,-0.2319,-5.1339,0.2231,-0.5924,0.425,-0.5464,0.8167,-3.6883,0.3809,-2.2954,0.3455,-0.7041,0.572,-0.0247,1.159
-3.6667,-0.2319,-5.1339,0.2231,-0.5924,0.425,-0.5464,0.8167,-3.6883,0.3809,-2.2954,0.3455,-0.7041,0.572,-0.0247,1.159
-3.6832,-0.2081,-5.1339,0.2231,-0.5656,0.4337,-0.4934,0.798,-3.6168,0.3556,-2.3086,0.3644,-0.7283,0.5669,0.1379,1.1015
-3.6832,-0.2081,-5.1339,0.2231,-0.5656,0.4337,-0.4934,0.798,-3.6168,0.3556,-2.3086,0.3644,-0.7283,0.5669,0.1379,1.1015
-3.6997,-0.1842,-5.1278,0.2143,-0.609,0.449,-0.4934,0.798,-3.6883,0.3809,-2.2951,0.3668,-0.7158,0.5488,0.0565,1.1303
-3.6997,-0.1842,-5.1278,0.2143,-0.609,0.449,-0.4934,0.798,-3.6883,0.3809,-2.2951,0.3668,-0.7158,0.5488,0.0565,1.1303
-3.6832,-0.2081,-5.1359,0.2106,-0.6358,0.4403,-0.4934,0.798,-3.6883,0.3809,-2.3017,0.3763,-0.7158,0.5488,0.0872,1.086
-3.6832,-0.2081,-5.1359,0.2106,-0.6358,0.4403,-0.4934,0.798,-3.6883,0.3809,-2.3017,0.3763,-0.7158,0.5488,0.0872,1.086
-3.7134,-0.2154,-5.1359,0.2106,-0.6192,0.4163,-0.5199,0.8073,-3.6883,0.3809,-2.2949,0.3882,-0.6791,0.5359,0.1992,1.0131
-3.7134,-0.2154,-5.1359,0.2106,-0.6192,0.4163,-0.5199,0.8073,-3.6883,0.3809,-2.2949,0.3882,-0.6791,0.5359,0.1992,1.0131
-3.7134,-0.2154,-5.1359,0.2106,-0.6192,0.4163,-0.5199,0.8073,-3.6883,0.3809,-2.2949,0.3882,-0.6791,0.5359,0.1992,1.0131
-3.7435,-0.2227,-5.1298,0.2018,-0.6459,0.4077,-0.5359,0.8016,-3.6883,0.3809,-2.288,0.4001,-0.6423,0.5229,0.1992,1.0131
-3.79,-0.2063,-5.1218,0.2056,-0.6293,0.3838,-0.5199,0.8073,-3.5866,0.3121,-2.2611,0.4049,-0.6548,0.5409,0.1992,1.0131
-3.727,-0.2465,-5.1218,0.2056,-0.6459,0.4077,-0.5199,0.8073,-3.5866,0.3121,-2.2275,0.4003,-0.6674,0.559,0.1992,1.0131
-3.727,-0.2465,-5.1218,0.2056,-0.6459,0.4077,-0.5199,0.8073,-3.5866,0.3121,-2.2275,0.4003,-0.6674,0.559,0.1992,1.0131
-3.727,-0.2465,-5.1218,0.2056,-0.6459,0.4077,-0.5199,0.8073,-3.5148,0.2867,-2.214,0.4027,-0.7041,0.572,0.1992,1.0131
-3.727,-0.2465,-5.1218,0.2056,-0.6459,0.4077,-0.5199,0.8073,-3.5148,0.2867,-2.214,0.4027,-0.7041,0.572,0.1992,1.0131
-3.727,-0.2465,-5.1218,0.2056,-0.6459,0.4077,-0.5199,0.8073,-3.5148,0.2867,-2.214,0.4027,-0.7041,0.572,0.1992,1.0131
-3.7571,-0.2538,-5.1359,0.2106,-0.6892,0.423,-0.5199,0.8073,-3.5148,0.2867,-2.2071,0.4146,-0.7041,0.572,0.1992,1.0131
-3.7571,-0.2538,-5.1359,0.2106,-0.6892,0.423,-0.5199,0.8073,-3.5148,0.2867,-2.2071,0.4146,-0.7041,0.572,0.1992,1.0131
-3.7571,-0.2538,-5.1641,0.2205,-0.6726,0.399,-0.5464,0.8167,-3.4847,0.2433,-2.1936,0.4171,-0.7283,0.5669,0.1992,1.0131
-3.7571,-0.2538,-5.1641,0.2205,-0.6726,0.399,-0.5464,0.8167,-3.4847,0.2433,-2.1936,0.4171,-0.7283,0.5669,0.1992,1.0131
-3.7407,-0.2775,-5.1862,0.2217,-0.6726,0.399,-0.5464,0.8167,-3.5866,0.3121,-2.2002,0.4266,-0.7399,0.5438,0.281,0.9842
-3.7407,-0.2775,-5.1862,0.2217,-0.6726,0.399,-0.5464,0.8167,-3.5866,0.3121,-2.2002,0.4266,-0.7399,0.5438,0.281,0.9842
-3.7407,-0.2775,-5.1862,0.2217,-0.6726,0.399,-0.5464,0.8167,-3.5866,0.3121,-2.2002,0.4266,-0.7399,0.5438,0.281,0.9842
-3.7571,-0.2538,-5.1942,0.2179,-0.6892,0.423,-0.5464,0.8167,-3.545,0.3303,-2.1933,0.4386,-0.7399,0.5438,0.3839,1.0146
-3.7571,-0.2538,-5.1942,0.2179,-0.6892,0.423,-0.5464,0.8167,-3.545,0.3303,-2.1933,0.4386,-0.7399,0.5438,0.3839,1.0146
-3.7407,-0.2775,-5.2182,0.2066,-0.6726,0.399,-0.5624,0.8109,-3.7294,0.3625,-2.2068,0.4361,-0.7881,0.5336,0.4146,0.9703
-3.7407,-0.2775,-5.2182,0.2066,-0.6726,0.399,-0.5624,0.8109,-3.7294,0.3625,-2.2068,0.4361,-0.7881,0.5336,0.4146,0.9703
-3.7407,-0.2775,-5.2182,0.2066,-0.6726,0.399,-0.5624,0.8109,-3.7294,0.3625,-2.2068,0.4361,-0.7881,0.5336,0.4146,0.9703
-3.7871,-0.261,-5.2581,0.1879,-0.656,0.3752,-0.5783,0.8051,-3.8714,0.4127,-2.2204,0.4337,-0.8715,0.4955,0.3323,0.9994
-3.7871,-0.261,-5.2581,0.1879,-0.656,0.3752,-0.5783,0.8051,-3.8714,0.4127,-2.2204,0.4337,-0.8715,0.4955,0.3323,0.9994
-3.7571,-0.2538,-5.28,0.189,-0.6726,0.399,-0.5624,0.8109,-3.8413,0.3693,-2.2339,0.4313,-0.883,0.4726,0.2197,1.0726
-3.7571,-0.2538,-5.28,0.189,-0.6726,0.399,-0.5624,0.8109,-3.8413,0.3693,-2.2339,0.4313,-0.883,0.4726,0.2197,1.0726
-3.8036,-0.2374,-5.2959,0.1815,-0.7158,0.4143,-0.5888,0.8202,-3.9525,0.3758,-2.2608,0.4264,-0.9184,0.4447,0.0872,1.086
-3.8036,-0.2374,-5.2959,0.1815,-0.7158,0.4143,-0.5888,0.8202,-3.9525,0.3758,-2.2608,0.4264,-0.9184,0.4447,0.0872,1.086
-3.8036,-0.2374,-5.2959,0.1815,-0.7158,0.4143,-0.5888,0.8202,-3.9525,0.3758,-2.2608,0.4264,-0.9184,0.4447,0.0872,1.086
-3.8036,-0.2374,-5.2959,0.1815,-0.7158,0.4143,-0.5888,0.8202,-3.9525,0.3758,-2.2608,0.4264,-0.9184,0.4447,0.0872,1.086
-3.8036,-0.2374,-5.2959,0.1815,-0.7158,0.4143,-0.5888,0.8202,-3.9525,0.3758,-2.2608,0.4264,-0.9184,0.4447,0.0872,1.086
-3.7707,-0.2847,-5.3495,0.1677,-0.8019,0.4447,-0.6206,0.8087,-3.9225,0.3326,-2.2812,0.412,-0.9896,0.4297,-0.075,1.1433
-3.7707,-0.2847,-5.3495,0.1677,-0.8019,0.4447,-0.6206,0.8087,-3.9225,0.3326,-2.2812,0.412,-0.9896,0.4297,-0.075,1.1433
-3.7707,-0.2847,-5.3495,0.1677,-0.8019,0.4447,-0.6206,0.8087,-3.9225,0.3326,-2.2812,0.412,-0.9896,0.4297,-0.075,1.1433
-3.7871,-0.261,-5.3811,0.1527,-0.8019,0.4447,-0.5943,0.7994,-3.9629,0.3143,-2.308,0.4072,-1.0369,0.4197,-0.1556,1.1718
-3.8798,-0.2283,-5.4325,0.1513,-0.8283,0.436,-0.6102,0.7936,-3.8926,0.2895,-2.3415,0.4118,-1.0727,0.4323,-0.075,1.1433
-3.8798,-0.2283,-5.4325,0.1513,-0.8283,0.436,-0.6102,0.7936,-3.8926,0.2895,-2.3415,0.4118,-1.0727,0.4323,-0.075,1.1433
-3.8798,-0.2283,-5.4639,0.1364,-0.8117,0.4122,-0.6102,0.7936,-3.9225,0.3326,-2.3682,0.4069,-1.0369,0.4197,0.006,1.1147
-3.8798,-0.2283,-5.4639,0.1364,-0.8117,0.4122,-0.6102,0.7936,-3.9225,0.3326,-2.3682,0.4069,-1.0369,0.4197,0.006,1.1147
-3.8798,-0.2283,-5.4639,0.1364,-0.8117,0.4122,-0.6102,0.7936,-3.9225,0.3326,-2.3682,0.4069,-1.0369,0.4197,0.006,1.1147
-3.9392,-0.243,-5.4833,0.1043,-0.8381,0.4035,-0.6524,0.7972,-3.9629,0.3143,-2.415,0.3877,-1.0605,0.4147,0.006,1.1147
-3.9392,-0.243,-5.4833,0.1043,-0.8381,0.4035,-0.6524,0.7972,-3.9629,0.3143,-2.415,0.3877,-1.0605,0.4147,0.006,1.1147
-3.9392,-0.243,-5.4833,0.1043,-0.8381,0.4035,-0.6524,0.7972,-3.9629,0.3143,-2.415,0.3877,-1.0605,0.4147,0.006,1.1147
-3.9392,-0.243,-5.4833,0.1043,-0.8381,0.4035,-0.6524,0.7972,-3.9629,0.3143,-2.415,0.3877,-1.0605,0.4147,0.006,1.1147
-3.9853,-0.2267,-5.538,0.0783,-0.8809,0.4186,-0.7049,0.8157,-4.0433,0.2779,-2.4885,0.3424,-1.1432,0.4173,0.0366,1.0706
-3.9853,-0.2267,-5.538,0.0783,-0.8809,0.4186,-0.7049,0.8157,-4.0433,0.2779,-2.4885,0.3424,-1.1432,0.4173,0.0366,1.0706
-3.9853,-0.2267,-5.538,0.0783,-0.8809,0.4186,-0.7049,0.8157,-4.0433,0.2779,-2.4885,0.3424,-1.1432,0.4173,0.0366,1.0706
-3.9689,-0.2503,-5.5673,0.0757,-0.8644,0.3948,-0.7312,0.825,-3.9734,0.2532,-2.5084,0.3282,-1.1666,0.4122,0.0366,1.0706
-3.9689,-0.2503,-5.5673,0.0757,-0.8644,0.3948,-0.7312,0.825,-3.9734,0.2532,-2.5084,0.3282,-1.1666,0.4122,0.0366,1.0706
-3.9392,-0.243,-5.5948,0.0854,-0.8381,0.4035,-0.7312,0.825,-4.0137,0.2351,-2.5217,0.3258,-1.2255,0.4198,0.0366,1.0706
-3.9392,-0.243,-5.5948,0.0854,-0.8381,0.4035,-0.7312,0.825,-4.0137,0.2351,-2.5217,0.3258,-1.2255,0.4198,0.0366,1.0706
-3.9689,-0.2503,-5.6221,0.0951,-0.8644,0.3948,-0.7469,0.8192,-4.0137,0.2351,-2.5349,0.3234,-1.2843,0.4272,0.0366,1.0706
-3.9689,-0.2503,-5.6221,0.0951,-0.8644,0.3948,-0.7469,0.8192,-4.0137,0.2351,-2.5349,0.3234,-1.2843,0.4272,0.0366,1.0706
-3.9689,-0.2503,-5.6358,0.0999,-0.8644,0.3948,-0.7523,0.7984,-4.0834,0.2598,-2.5546,0.3304,-1.2953,0.4046,0.1483,0.9978
-3.9689,-0.2503,-5.6358,0.0999,-0.8644,0.3948,-0.7523,0.7984,-4.0834,0.2598,-2.5546,0.3304,-1.2953,0.4046,0.1483,0.9978
-3.9689,-0.2503,-5.6358,0.0999,-0.8644,0.3948,-0.7523,0.7984,-4.0834,0.2598,-2.5546,0.3304,-1.2953,0.4046,0.1483,0.9978
-3.9985,-0.2577,-5.6649,0.0973,-0.8315,0.3473,-0.7837,0.7869,-4.2222,0.3088,-2.5743,0.3373,-1.3526,0.3721,0.0671,1.0265
-3.9985,-0.2577,-5.6649,0.0973,-0.8315,0.3473,-0.7837,0.7869,-4.2222,0.3088,-2.5743,0.3373,-1.3526,0.3721,0.0671,1.0265
-3.9985,-0.2577,-5.6922,0.107,-0.8315,0.3473,-0.7994,0.7811,-4.2913,0.3332,-2.5743,0.3373,-1.4338,0.3744,-0.0443,1.0991
-3.9985,-0.2577,-5.6922,0.107,-0.8315,0.3473,-0.7994,0.7811,-4.2913,0.3332,-2.5743,0.3373,-1.4338,0.3744,-0.0443,1.0991
-3.9985,-0.2577,-5.6922,0.107,-0.8315,0.3473,-0.7994,0.7811,-4.2913,0.3332,-2.5743,0.3373,-1.4338,0.3744,-0.0443,1.0991
-3.9985,-0.2577,-5.7077,0.0995,-0.8743,0.3625,-0.8515,0.7995,-4.3306,0.3149,-2.5874,0.3349,-1.4797,0.3643,-0.0138,1.0551
-3.9985,-0.2577,-5.7077,0.0995,-0.8743,0.3625,-0.8515,0.7995,-4.3306,0.3149,-2.5874,0.3349,-1.4797,0.3643,-0.0138,1.0551
-3.9985,-0.2577,-5.7077,0.0995,-0.8743,0.3625,-0.8515,0.7995,-4.3306,0.3149,-2.5874,0.3349,-1.4797,0.3643,-0.0138,1.0551
-3.9689,-0.2503,-5.7443,0.0932,-0.9169,0.3775,-0.8411,0.7845,-4.448,0.2602,-2.6792,0.339,-1.6057,0.3565,-0.1942,1.0526
-3.9689,-0.2503,-5.7443,0.0932,-0.9169,0.3775,-0.8411,0.7845,-4.448,0.2602,-2.6792,0.339,-1.6057,0.3565,-0.1942,1.0526
-3.9853,-0.2267,-5.752,0.0894,-0.9431,0.3689,-0.8255,0.7903,-4.4868,0.2421,-2.7053,0.3341,-1.6284,0.3514,-0.1639,1.009
-3.9853,-0.2267,-5.752,0.0894,-0.9431,0.3689,-0.8255,0.7903,-4.4868,0.2421,-2.7053,0.3341,-1.6284,0.3514,-0.1639,1.009
-3.972,-0.1957,-5.7308,0.0884,-0.9169,0.3775,-0.768,0.7926,-4.4576,0.1999,-2.7184,0.3317,-1.6177,0.3738,-0.1639,1.009
-3.972,-0.1957,-5.7308,0.0884,-0.9169,0.3775,-0.768,0.7926,-4.4576,0.1999,-2.7184,0.3317,-1.6177,0.3738,-0.1639,1.009
-3.8664,-0.1973,-5.6668,0.0851,-0.848,0.3711,-0.7207,0.81,-4.4868,0.2421,-2.7184,0.3317,-1.4917,0.3817,-0.1639,1.009
-3.8664,-0.1973,-5.6668,0.0851,-0.848,0.3711,-0.7207,0.81,-4.4868,0.2421,-2.7184,0.3317,-1.4917,0.3817,-0.1639,1.009
-3.79,-0.2063,-5.5948,0.0854,-0.8216,0.3797,-0.6733,0.8273,-4.3796,0.2361,-2.6858,0.3272,-1.3428,0.4347,-0.114,1.0243
-3.7299,-0.1916,-5.5127,0.1017,-0.7257,0.3818,-0.6098,0.8505,-4.1926,0.2661,-2.6269,0.3276,-1.1454,0.4981,-0.0443,1.0991
-3.7299,-0.1916,-5.5127,0.1017,-0.7257,0.3818,-0.6098,0.8505,-4.1926,0.2661,-2.6269,0.3276,-1.1454,0.4981,-0.0443,1.0991
-3.7163,-0.1603,-5.4243,0.1094,-0.6726,0.399,-0.546,0.8737,-4.0433,0.2779,-2.5743,0.3373,-0.9688,0.5568,0.0565,1.1303
-3.7163,-0.1603,-5.4243,0.1094,-0.6726,0.399,-0.546,0.8737,-4.0433,0.2779,-2.5743,0.3373,-0.9688,0.5568,0.0565,1.1303
-3.7163,-0.1603,-5.4243,0.1094,-0.6726,0.399,-0.546,0.8737,-4.0433,0.2779,-2.5743,0.3373,-0.9688,0.5568,0.0565,1.1303
-3.6695,-0.1769,-5.3571,0.1182,-0.6025,0.3924,-0.4979,0.8912,-3.8926,0.2895,-2.4952,0.3306,-0.7649,0.5798,0.24,1.1325
-3.6695,-0.1769,-5.3571,0.1182,-0.6025,0.3924,-0.4979,0.8912,-3.8926,0.2895,-2.4952,0.3306,-0.7649,0.5798,0.24,1.1325
-3.6695,-0.1769,-5.3571,0.1182,-0.6025,0.3924,-0.4979,0.8912,-3.8926,0.2895,-2.4952,0.3306,-0.7649,0.5798,0.24,1.1325
-3.6088,-0.1621,-5.3176,0.1368,-0.5053,0.3942,-0.4497,0.9087,-3.8112,0.3259,-2.4223,0.3333,-0.6565,0.6235,0.3429,1.1636
-3.6861,-0.1529,-5.2957,0.1356,-0.4887,0.3702,-0.4124,0.884,-3.7704,0.3442,-2.3758,0.3311,-0.5464,0.6258,0.4257,1.1344
-3.6695,-0.1769,-5.2817,0.1307,-0.5053,0.3942,-0.3963,0.8899,-3.7294,0.3625,-2.3291,0.3288,-0.51,0.6543,0.4465,1.1949
-3.6695,-0.1769,-5.2817,0.1307,-0.5053,0.3942,-0.3963,0.8899,-3.7294,0.3625,-2.3291,0.3288,-0.51,0.6543,0.4465,1.1949
-3.6695,-0.1769,-5.2817,0.1307,-0.5053,0.3942,-0.3963,0.8899,-3.7294,0.3625,-2.3291,0.3288,-0.51,0.6543,0.4465,1.1949
-3.6695,-0.1769,-5.2817,0.1307,-0.5053,0.3942,-0.3963,0.8899,-3.7294,0.3625,-2.3291,0.3288,-0.51,0.6543,0.4465,1.1949
-3.6997,-0.1842,-5.2817,0.1307,-0.5489,0.4096,-0.3963,0.8899,-3.6581,0.3373,-2.2758,0.3171,-0.4481,0.6463,0.3838,1.2852
-3.6997,-0.1842,-5.2817,0.1307,-0.5489,0.4096,-0.3963,0.8899,-3.6581,0.3373,-2.2758,0.3171,-0.4481,0.6463,0.3838,1.2852
-3.6997,-0.1842,-5.2817,0.1307,-0.5489,0.4096,-0.3963,0.8899,-3.6581,0.3373,-2.2758,0.3171,-0.4481,0.6463,0.3838,1.2852
-3.6832,-0.2081,-5.2957,0.1356,-0.5924,0.425,-0.3589,0.8651,-3.6993,0.3191,-2.2623,0.3195,-0.4728,0.6411,0.3321,1.2693
-3.6832,-0.2081,-5.2957,0.1356,-0.5924,0.425,-0.3589,0.8651,-3.6993,0.3191,-2.2623,0.3195,-0.4728,0.6411,0.3321,1.2693
-3.7299,-0.1916,-5.3036,0.1319,-0.6192,0.4163,-0.3321,0.8557,-3.6581,0.3373,-2.2554,0.3313,-0.4728,0.6411,0.4986,1.2105
-3.7299,-0.1916,-5.3036,0.1319,-0.6192,0.4163,-0.3321,0.8557,-3.6581,0.3373,-2.2554,0.3313,-0.4728,0.6411,0.4986,1.2105
-3.7134,-0.2154,-5.2976,0.1232,-0.6459,0.4077,-0.3589,0.8651,-3.6581,0.3373,-2.242,0.3337,-0.4601,0.6229,0.4465,1.1949
-3.7134,-0.2154,-5.2976,0.1232,-0.6459,0.4077,-0.3589,0.8651,-3.6581,0.3373,-2.242,0.3337,-0.4601,0.6229,0.4465,1.1949
-3.79,-0.2063,-5.3116,0.1282,-0.7158,0.4143,-0.3645,0.8441,-3.7294,0.3625,-2.242,0.3337,-0.4228,0.6097,0.4777,1.1499
-3.79,-0.2063,-5.3116,0.1282,-0.7158,0.4143,-0.3645,0.8441,-3.7294,0.3625,-2.242,0.3337,-0.4228,0.6097,0.4777,1.1499
-3.79,-0.2063,-5.2837,0.1183,-0.6992,0.3904,-0.3913,0.8535,-3.628,0.2939,-2.2485,0.3432,-0.4228,0.6097,0.5088,1.105
-3.79,-0.2063,-5.2837,0.1183,-0.6992,0.3904,-0.3913,0.8535,-3.628,0.2939,-2.2485,0.3432,-0.4228,0.6097,0.5088,1.105
-3.82,-0.2136,-5.2837,0.1183,-0.7092,0.358,-0.4074,0.8478,-3.628,0.2939,-2.2285,0.3361,-0.4108,0.6331,0.4257,1.1344
-3.82,-0.2136,-5.2837,0.1183,-0.7092,0.358,-0.4074,0.8478,-3.628,0.2939,-2.2285,0.3361,-0.4108,0.6331,0.4257,1.1344
-3.82,-0.2136,-5.2837,0.1183,-0.7092,0.358,-0.4074,0.8478,-3.628,0.2939,-2.2285,0.3361,-0.4108,0.6331,0.4257,1.1344
-3.79,-0.2063,-5.2678,0.1258,-0.7257,0.3818,-0.4018,0.8688,-3.5564,0.2686,-2.215,0.3385,-0.3988,0.6565,0.4257,1.1344
-3.79,-0.2063,-5.2678,0.1258,-0.7257,0.3818,-0.4018,0.8688,-3.5564,0.2686,-2.215,0.3385,-0.3988,0.6565,0.4257,1.1344
-3.8365,-0.1899,-5.2817,0.1307,-0.7092,0.358,-0.4018,0.8688,-3.5148,0.2867,-2.2282,0.3574,-0.3868,0.68,0.4257,1.1344
-3.8664,-0.1973,-5.2877,0.1394,-0.6762,0.3104,-0.4285,0.8782,-3.5034,0.3486,-2.2012,0.3622,-0.3372,0.6902,0.4777,1.1499
-3.8664,-0.1973,-5.2877,0.1394,-0.6762,0.3104,-0.4285,0.8782,-3.5034,0.3486,-2.2012,0.3622,-0.3372,0.6902,0.4777,1.1499
-3.9229,-0.2666,-5.2897,0.127,-0.6864,0.2782,-0.4447,0.8724,-3.5034,0.3486,-2.2147,0.3598,-0.3372,0.6902,0.4257,1.1344
-3.9229,-0.2666,-5.2897,0.127,-0.6864,0.2782,-0.4447,0.8724,-3.5034,0.3486,-2.2147,0.3598,-0.3372,0.6902,0.4257,1.1344
-4.0544,-0.3264,-5.2897,0.127,-0.713,0.2697,-0.4447,0.8724,-3.5338,0.3923,-2.2147,0.3598,-0.3499,0.7087,0.3739,1.1189
-4.1686,-0.409,-5.2817,0.1307,-0.7987,0.3,-0.4447,0.8724,-3.5753,0.374,-2.2282,0.3574,-0.3748,0.7035,0.3223,1.1035
-4.1686,-0.409,-5.2817,0.1307,-0.7987,0.3,-0.4447,0.8724,-3.5753,0.374,-2.2282,0.3574,-0.3748,0.7035,0.3223,1.1035
-4.1686,-0.409,-5.2817,0.1307,-0.7987,0.3,-0.4447,0.8724,-3.5753,0.374,-2.2282,0.3574,-0.3748,0.7035,0.3223,1.1035
-4.1686,-0.409,-5.2817,0.1307,-0.7987,0.3,-0.4447,0.8724,-3.5753,0.374,-2.2282,0.3574,-0.3748,0.7035,0.3223,1.1035
-4.3237,-0.5278,-5.2897,0.127,-0.835,0.2594,-0.4341,0.8572,-3.5753,0.374,-2.2416,0.3551,-0.362,0.6851,0.24,1.1325
-4.3237,-0.5278,-5.2897,0.127,-0.835,0.2594,-0.4341,0.8572,-3.5753,0.374,-2.2416,0.3551,-0.362,0.6851,0.24,1.1325
-4.3237,-0.5278,-5.2897,0.127,-0.835,0.2594,-0.4341,0.8572,-3.5753,0.374,-2.2416,0.3551,-0.362,0.6851,0.24,1.1325
-4.7308,-0.7072,-5.3116,0.1282,-0.9659,0.2171,-0.4397,0.8362,-3.5338,0.3923,-2.2686,0.3503,-0.362,0.6851,0.2197,1.0726
-4.7308,-0.7072,-5.3116,0.1282,-0.9659,0.2171,-0.4397,0.8362,-3.5338,0.3923,-2.2686,0.3503,-0.362,0.6851,0.2197,1.0726
-4.9222,-0.8065,-5.3195,0.1244,-1.0179,0.2002,-0.4557,0.8304,-3.5338,0.3923,-2.2754,0.3384,-0.362,0.6851,0.1686,1.0572
-4.9222,-0.8065,-5.3195,0.1244,-1.0179,0.2002,-0.4557,0.8304,-3.5338,0.3923,-2.2754,0.3384,-0.362,0.6851,0.1686,1.0572
-5.029,-0.8842,-5.3195,0.1244,-1.0438,0.1918,-0.4823,0.8398,-3.5338,0.3923,-2.2958,0.3242,-0.3868,0.68,0.1178,1.0419
-5.029,-0.8842,-5.3195,0.1244,-1.0438,0.1918,-0.4823,0.8398,-3.5338,0.3923,-2.2958,0.3242,-0.3868,0.68,0.1178,1.0419
-5.1351,-0.9612,-5.3334,0.1294,-1.0955,0.175,-0.5144,0.8282,-3.5034,0.3486,-2.3226,0.3194,-0.4115,0.6748,0.0671,1.0265
-5.2819,-1.0227,-5.3552,0.1305,-1.1888,0.1729,-0.5464,0.8167,-3.4616,0.3669,-2.336,0.317,-0.4242,0.6932,-0.0138,1.0551
-5.2819,-1.0227,-5.3552,0.1305,-1.1888,0.1729,-0.5464,0.8167,-3.4616,0.3669,-2.336,0.317,-0.4242,0.6932,-0.0138,1.0551
-5.2819,-1.0227,-5.3552,0.1305,-1.1888,0.1729,-0.5464,0.8167,-3.4616,0.3669,-2.336,0.317,-0.4242,0.6932,-0.0138,1.0551
-5.3887,-1.0493,-5.3473,0.1343,-1.1888,0.1729,-0.5783,0.8051,-3.5753,0.374,-2.3692,0.3216,-0.4735,0.6829,-0.0034,0.9522
-5.3887,-1.0493,-5.3473,0.1343,-1.1888,0.1729,-0.5783,0.8051,-3.5753,0.374,-2.3692,0.3216,-0.4735,0.6829,-0.0034,0.9522
-5.4536,-1.0904,-5.3672,0.1478,-1.1984,0.1414,-0.6102,0.7936,-3.5338,0.3923,-2.3758,0.3311,-0.5109,0.6961,-0.0034,0.9522
-5.4536,-1.0904,-5.3672,0.1478,-1.1984,0.1414,-0.6102,0.7936,-3.5338,0.3923,-2.3758,0.3311,-0.5109,0.6961,-0.0034,0.9522
-5.5591,-1.1168,-5.3811,0.1527,-1.1824,0.1183,-0.642,0.7821,-3.6362,0.4617,-2.3758,0.3311,-0.5354,0.6909,0.0269,0.9087
-5.5591,-1.1168,-5.3811,0.1527,-1.1824,0.1183,-0.642,0.7821,-3.6362,0.4617,-2.3758,0.3311,-0.5354,0.6909,0.0269,0.9087
-5.6087,-1.1785,-5.3871,0.1614,-1.224,0.133,-0.6737,0.7706,-3.7186,0.4246,-2.4022,0.3475,-0.5843,0.6806,-0.0234,0.8936
-5.6087,-1.1785,-5.3871,0.1614,-1.224,0.133,-0.6737,0.7706,-3.7186,0.4246,-2.4022,0.3475,-0.5843,0.6806,-0.0234,0.8936
-5.6725,-1.2189,-5.3931,0.17,-1.2655,0.1477,-0.7053,0.7592,-3.7899,0.4498,-2.4153,0.3664,-0.6458,0.6885,-0.0735,0.8786
-5.7361,-1.2591,-5.407,0.175,-1.291,0.1393,-0.7472,0.7627,-3.861,0.4749,-2.4218,0.3758,-0.6574,0.665,-0.1234,0.8636
-5.7361,-1.2591,-5.407,0.175,-1.291,0.1393,-0.7472,0.7627,-3.861,0.4749,-2.4218,0.3758,-0.6574,0.665,-0.1234,0.8636
-5.7361,-1.2591,-5.407,0.175,-1.291,0.1393,-0.7472,0.7627,-3.861,0.4749,-2.4218,0.3758,-0.6574,0.665,-0.1234,0.8636
-5.7993,-1.2991,-5.4209,0.1799,-1.3324,0.1539,-0.7265,0.7327,-3.9319,0.5,-2.4284,0.3853,-0.6817,0.6599,-0.2525,0.8767
-5.7993,-1.2991,-5.4209,0.1799,-1.3324,0.1539,-0.7265,0.7327,-3.9319,0.5,-2.4284,0.3853,-0.6817,0.6599,-0.2525,0.8767
-5.7993,-1.2991,-5.4209,0.1799,-1.3324,0.1539,-0.7265,0.7327,-3.9319,0.5,-2.4284,0.3853,-0.6817,0.6599,-0.2525,0.8767
-5.7993,-1.2991,-5.4209,0.1799,-1.3324,0.1539,-0.7265,0.7327,-3.9319,0.5,-2.4284,0.3853,-0.6817,0.6599,-0.2525,0.8767
-5.9786,-1.3441,-5.4445,0.1686,-1.383,0.1371,-0.7894,0.7099,-3.9724,0.4813,-2.4615,0.3899,-0.7669,0.6625,-0.4295,0.8743
-5.9786,-1.3441,-5.4445,0.1686,-1.383,0.1371,-0.7894,0.7099,-3.9724,0.4813,-2.4615,0.3899,-0.7669,0.6625,-0.4295,0.8743
-6.0548,-1.3634,-5.4523,0.1649,-1.4083,0.1287,-0.8154,0.7191,-3.9724,0.4813,-2.4881,0.385,-0.7418,0.6262,-0.4781,0.8592
-6.1165,-1.4029,-5.4818,0.1622,-1.4745,0.1348,-0.8985,0.726,-3.9724,0.4813,-2.5211,0.3895,-0.7659,0.6211,-0.4781,0.8592
-6.1165,-1.4029,-5.4818,0.1622,-1.4745,0.1348,-0.8985,0.726,-3.9724,0.4813,-2.5211,0.3895,-0.7659,0.6211,-0.4781,0.8592
-6.1528,-1.4358,-5.5035,0.1634,-1.4996,0.1264,-0.9296,0.7146,-3.9724,0.4813,-2.5608,0.3822,-0.814,0.6108,-0.6045,0.8717
-6.1528,-1.4358,-5.5035,0.1634,-1.4996,0.1264,-0.9296,0.7146,-3.9724,0.4813,-2.5608,0.3822,-0.814,0.6108,-0.6045,0.8717
-6.1528,-1.4358,-5.5035,0.1634,-1.4996,0.1264,-0.9296,0.7146,-3.9724,0.4813,-2.5608,0.3822,-0.814,0.6108,-0.6045,0.8717
-6.1779,-1.4421,-5.5173,0.1682,-1.4996,0.1264,-0.9554,0.7237,-4.0126,0.4626,-2.6003,0.3749,-0.8984,0.6134,-0.6526,0.8565
-6.1779,-1.4421,-5.5173,0.1682,-1.4996,0.1264,-0.9554,0.7237,-4.0126,0.4626,-2.6003,0.3749,-0.8984,0.6134,-0.6526,0.8565
-6.228,-1.4548,-5.5389,0.1694,-1.5247,0.118,-0.9864,0.7123,-3.9825,0.4192,-2.6397,0.3675,-0.9824,0.6158,-0.7005,0.8414
-6.228,-1.4548,-5.5389,0.1694,-1.5247,0.118,-0.9864,0.7123,-3.9825,0.4192,-2.6397,0.3675,-0.9824,0.6158,-0.7005,0.8414
-6.228,-1.4548,-5.5389,0.1694,-1.468,0.0808,-0.9761,0.6974,-3.9825,0.4192,-2.6791,0.3602,-1.0535,0.6003,-0.6711,0.7991
-6.228,-1.4548,-5.5389,0.1694,-1.468,0.0808,-0.9761,0.6974,-3.9825,0.4192,-2.6791,0.3602,-1.0535,0.6003,-0.6711,0.7991
-6.228,-1.4548,-5.5389,0.1694,-1.468,0.0808,-0.9761,0.6974,-3.9825,0.4192,-2.6791,0.3602,-1.0535,0.6003,-0.6711,0.7991
-6.228,-1.4548,-5.5251,0.1645,-1.4838,0.1036,-0.9761,0.6974,-4.0528,0.444,-2.7118,0.3435,-1.1007,0.5899,-0.719,0.7841
-6.228,-1.4548,-5.5251,0.1645,-1.4838,0.1036,-0.9761,0.6974,-4.0528,0.444,-2.7118,0.3435,-1.1007,0.5899,-0.719,0.7841
-6.1639,-1.4623,-5.4957,0.1671,-1.4018,0.0746,-0.9349,0.694,-4.0528,0.444,-2.6923,0.3366,-1.0896,0.613,-0.719,0.7841
-6.1639,-1.4623,-5.4957,0.1671,-1.4018,0.0746,-0.9349,0.694,-4.0528,0.444,-2.6923,0.3366,-1.0896,0.613,-0.719,0.7841
-6.1639,-1.4623,-5.4957,0.1671,-1.4018,0.0746,-0.9349,0.694,-4.0528,0.444,-2.6923,0.3366,-1.0896,0.613,-0.719,0.7841
-6.1639,-1.4623,-5.4957,0.1671,-1.4018,0.0746,-0.9349,0.694,-4.0528,0.444,-2.6923,0.3366,-1.0896,0.613,-0.719,0.7841
-5.9959,-1.4912,-5.3536,0.1888,-1.3005,0.108,-0.7791,0.695,-3.8714,0.4127,-2.6136,0.3512,-0.9247,0.6909,-0.6419,0.7568
-5.9959,-1.4912,-5.3536,0.1888,-1.3005,0.108,-0.7791,0.695,-3.8714,0.4127,-2.6136,0.3512,-0.9247,0.6909,-0.6419,0.7568
-5.9959,-1.4912,-5.3536,0.1888,-1.3005,0.108,-0.7791,0.695,-3.8714,0.4127,-2.6136,0.3512,-0.9247,0.6909,-0.6419,0.7568
-6.0099,-1.4711,-5.2022,0.2142,-1.2336,0.1017,-0.6479,0.705,-3.6774,0.4431,-2.455,0.3804,-0.5853,0.7224,-0.419,0.774
-6.0099,-1.4711,-5.2022,0.2142,-1.2336,0.1017,-0.6479,0.705,-3.6774,0.4431,-2.455,0.3804,-0.5853,0.7224,-0.419,0.774
-6.0605,-1.4836,-5.142,0.2193,-1.2591,0.0933,-0.6321,0.7107,-3.6362,0.4617,-2.4015,0.4115,-0.4625,0.7485,-0.2916,0.7611
-6.0605,-1.4836,-5.142,0.2193,-1.2591,0.0933,-0.6321,0.7107,-3.6362,0.4617,-2.4015,0.4115,-0.4625,0.7485,-0.2916,0.7611
-6.0605,-1.4836,-5.142,0.2193,-1.2591,0.0933,-0.6321,0.7107,-3.6362,0.4617,-2.4015,0.4115,-0.4625,0.7485,-0.2916,0.7611
-6.097,-1.5163,-5.0956,0.2294,-1.275,0.1163,-0.6425,0.7257,-3.5947,0.4803,-2.3146,0.4167,-0.3507,0.7508,-0.272,0.8187
-6.097,-1.5163,-5.0956,0.2294,-1.275,0.1163,-0.6425,0.7257,-3.5947,0.4803,-2.3146,0.4167,-0.3507,0.7508,-0.272,0.8187
-6.1948,-1.5874,-5.0714,0.2407,-1.291,0.1393,-0.6583,0.72,-3.4808,0.4734,-2.254,0.4384,-0.2639,0.7902,-0.2525,0.8767
-6.1948,-1.5874,-5.0714,0.2407,-1.291,0.1393,-0.6583,0.72,-3.4808,0.4734,-2.254,0.4384,-0.2639,0.7902,-0.2525,0.8767
-6.1948,-1.5874,-5.0714,0.2407,-1.291,0.1393,-0.6583,0.72,-3.4808,0.4734,-2.254,0.4384,-0.2639,0.7902,-0.2525,0.8767
-6.2696,-1.6059,-5.0795,0.2369,-1.291,0.1393,-0.6741,0.7143,-3.3661,0.4663,-2.2405,0.4408,-0.2389,0.7954,-0.203,0.8917
-6.2696,-1.6059,-5.0795,0.2369,-1.291,0.1393,-0.6741,0.7143,-3.3661,0.4663,-2.2405,0.4408,-0.2389,0.7954,-0.203,0.8917
-6.2696,-1.6059,-5.0795,0.2369,-1.291,0.1393,-0.6741,0.7143,-3.3661,0.4663,-2.2405,0.4408,-0.2389,0.7954,-0.203,0.8917
-6.344,-1.6245,-5.1159,0.2432,-1.291,0.1393,-0.69,0.7086,-3.2931,0.4405,-2.254,0.4384,-0.2639,0.7902,-0.1731,0.8486
-6.407,-1.6171,-5.1461,0.2406,-1.2495,0.1247,-0.7057,0.7029,-3.3239,0.4848,-2.2608,0.4264,-0.276,0.7664,-0.0935,0.8205
-6.407,-1.6171,-5.1461,0.2406,-1.2495,0.1247,-0.7057,0.7029,-3.3239,0.4848,-2.2608,0.4264,-0.276,0.7664,-0.0935,0.8205
-6.418,-1.643,-5.1621,0.233,-1.224,0.133,-0.7319,0.7121,-3.3969,0.5106,-2.2944,0.4311,-0.3387,0.7745,-0.1731,0.8486
-6.418,-1.643,-5.1621,0.233,-1.224,0.133,-0.7319,0.7121,-3.3969,0.5106,-2.2944,0.4311,-0.3387,0.7745,-0.1731,0.8486
-6.418,-1.643,-5.1621,0.233,-1.224,0.133,-0.7319,0.7121,-3.3969,0.5106,-2.2944,0.4311,-0.3387,0.7745,-0.1731,0.8486
-6.4426,-1.6492,-5.1782,0.2255,-1.24,0.1561,-0.7476,0.7064,-3.4697,0.5364,-2.2878,0.4216,-0.3507,0.7508,-0.1731,0.8486
-6.4426,-1.6492,-5.1782,0.2255,-1.24,0.1561,-0.7476,0.7064,-3.4697,0.5364,-2.2878,0.4216,-0.3507,0.7508,-0.1731,0.8486
-6.4426,-1.6492,-5.1782,0.2255,-1.24,0.1561,-0.7476,0.7064,-3.4697,0.5364,-2.2878,0.4216,-0.3507,0.7508,-0.1731,0.8486
-6.4043,-1.6627,-5.1942,0.2179,-1.1631,0.1813,-0.727,0.6766,-3.5115,0.5176,-2.2946,0.4096,-0.4003,0.7404,-0.272,0.8187
-6.4043,-1.6627,-5.1942,0.2179,-1.1631,0.1813,-0.727,0.6766,-3.5115,0.5176,-2.2946,0.4096,-0.4003,0.7404,-0.272,0.8187
-6.4043,-1.6627,-5.1942,0.2179,-1.1631,0.1813,-0.727,0.6766,-3.5115,0.5176,-2.2946,0.4096,-0.4003,0.7404,-0.272,0.8187
-6.3277,-1.6898,-5.1922,0.2305,-1.1535,0.213,-0.7112,0.6823,-3.5115,0.5176,-2.3078,0.4286,-0.4003,0.7404,-0.272,0.8187
-6.3413,-1.6701,-5.1862,0.2217,-1.1182,0.2533,-0.7009,0.6674,-3.5115,0.5176,-2.2944,0.4311,-0.4003,0.7404,-0.272,0.8187
-6.3413,-1.6701,-5.1862,0.2217,-1.1182,0.2533,-0.7009,0.6674,-3.5115,0.5176,-2.2944,0.4311,-0.4003,0.7404,-0.272,0.8187
-6.3277,-1.6898,-5.1801,0.213,-1.1086,0.2852,-0.7009,0.6674,-3.5423,0.562,-2.2875,0.443,-0.3379,0.7323,-0.2226,0.8337
-6.3277,-1.6898,-5.1801,0.213,-1.1086,0.2852,-0.7009,0.6674,-3.5423,0.562,-2.2875,0.443,-0.3379,0.7323,-0.2226,0.8337
-6.366,-1.6762,-5.1741,0.2042,-1.0569,0.3023,-0.7166,0.6618,-3.5423,0.562,-2.301,0.4406,-0.3379,0.7323,-0.2226,0.8337
-6.366,-1.6762,-5.1741,0.2042,-1.0569,0.3023,-0.7166,0.6618,-3.5423,0.562,-2.301,0.4406,-0.3379,0.7323,-0.2226,0.8337
-6.366,-1.6762,-5.1741,0.2042,-1.0569,0.3023,-0.7166,0.6618,-3.5423,0.562,-2.301,0.4406,-0.3379,0.7323,-0.2226,0.8337
-6.4153,-1.6885,-5.1901,0.1967,-1.0309,0.3109,-0.7584,0.6653,-3.5423,0.562,-2.2944,0.4311,-0.2874,0.7005,-0.1433,0.8056
-6.4153,-1.6885,-5.1901,0.1967,-1.0309,0.3109,-0.7584,0.6653,-3.5423,0.562,-2.2944,0.4311,-0.2874,0.7005,-0.1433,0.8056
-6.4153,-1.6885,-5.1901,0.1967,-1.0309,0.3109,-0.7584,0.6653,-3.5423,0.562,-2.2944,0.4311,-0.2874,0.7005,-0.1433,0.8056
-6.5269,-1.6934,-5.224,0.1693,-1.0472,0.3344,-0.8417,0.6723,-3.5532,0.4989,-2.348,0.4213,-0.3372,0.6902,-0.2127,0.7333
-6.5269,-1.6934,-5.224,0.1693,-1.0472,0.3344,-0.8417,0.6723,-3.5532,0.4989,-2.348,0.4213,-0.3372,0.6902,-0.2127,0.7333
-6.5648,-1.68,-5.2619,0.163,-1.0309,0.3109,-0.8573,0.6667,-3.6254,0.5244,-2.3616,0.3975,-0.3748,0.7035,-0.2423,0.7759
-6.5648,-1.68,-5.2619,0.163,-1.0309,0.3109,-0.8573,0.6667,-3.6254,0.5244,-2.3616,0.3975,-0.3748,0.7035,-0.2423,0.7759
-6.5892,-1.6862,-5.3137,0.1616,-1.0895,0.3493,-0.8729,0.661,-3.5947,0.4803,-2.415,0.3877,-0.4498,0.73,-0.3212,0.8038
-6.5892,-1.6862,-5.3137,0.1616,-1.0895,0.3493,-0.8729,0.661,-3.5947,0.4803,-2.415,0.3877,-0.4498,0.73,-0.3212,0.8038
-6.5892,-1.6862,-5.3435,0.1591,-1.0472,0.3344,-0.8471,0.6518,-3.5642,0.4363,-2.4286,0.364,-0.4744,0.7248,-0.2916,0.7611
-6.5892,-1.6862,-5.3435,0.1591,-1.0472,0.3344,-0.8471,0.6518,-3.5642,0.4363,-2.4286,0.364,-0.4744,0.7248,-0.2916,0.7611
-6.5892,-1.6862,-5.3435,0.1591,-1.0472,0.3344,-0.8471,0.6518,-3.5642,0.4363,-2.4286,0.364,-0.4744,0.7248,-0.2916,0.7611
-6.6135,-1.6923,-5.3653,0.1602,-1.0731,0.3258,-0.8627,0.6462,-3.6057,0.4178,-2.4419,0.3615,-0.499,0.7196,-0.2127,0.7333
-6.6135,-1.6923,-5.3653,0.1602,-1.0731,0.3258,-0.8627,0.6462,-3.6057,0.4178,-2.4419,0.3615,-0.499,0.7196,-0.2127,0.7333
-6.6512,-1.679,-5.3871,0.1614,-1.099,0.3172,-0.8524,0.6314,-3.6057,0.4178,-2.4417,0.3829,-0.5236,0.7144,-0.1632,0.748
