1.6687,-0.1143,1.918,0.2015,0.053,-0.3289,0.2386,-0.1856,1.6854,-0.2337,1.5297,0.0639,0.3031,-0.0704,1.3007,0.1004
1.6687,-0.1143,1.918,0.2015,0.053,-0.3289,0.2386,-0.1856,1.6854,-0.2337,1.5297,0.0639,0.3031,-0.0704,1.3007,0.1004
1.6449,-0.1275,1.925,0.183,0.0089,-0.3354,0.1619,-0.1903,1.671,-0.2467,1.4919,0.0624,0.1257,0.0015,1.2741,0.0948
1.6449,-0.1275,1.925,0.183,0.0089,-0.3354,0.1619,-0.1903,1.671,-0.2467,1.4919,0.0624,0.1257,0.0015,1.2741,0.0948
1.6378,-0.1331,1.9201,0.1815,-0.0154,-0.3305,0.1237,-0.1927,1.669,-0.255,1.4663,0.0715,-0.0201,0.0898,1.242,0.0972
1.6378,-0.1331,1.9201,0.1815,-0.0154,-0.3305,0.1237,-0.1927,1.669,-0.255,1.4663,0.0715,-0.0201,0.0898,1.242,0.0972
1.6331,-0.1341,1.8939,0.1939,-0.0304,-0.3289,0.0987,-0.1997,1.7021,-0.2803,1.436,0.0871,-0.1208,0.1438,1.21,0.0995
1.6331,-0.1341,1.8939,0.1939,-0.0304,-0.3289,0.0987,-0.1997,1.7021,-0.2803,1.436,0.0871,-0.1208,0.1438,1.21,0.0995
1.6308,-0.1387,1.8559,0.2234,-0.0429,-0.3208,0.0821,-0.2044,1.7249,-0.3019,1.3931,0.1072,-0.1957,0.1611,1.1833,0.103
1.6308,-0.1387,1.8559,0.2234,-0.0429,-0.3208,0.0821,-0.2044,1.7249,-0.3019,1.3931,0.1072,-0.1957,0.1611,1.1833,0.103
1.6308,-0.1387,1.8559,0.2234,-0.0429,-0.3208,0.0821,-0.2044,1.7249,-0.3019,1.3931,0.1072,-0.1957,0.1611,1.1833,0.103
1.6453,-0.1438,1.8324,0.2574,-0.0197,-0.3142,0.1036,-0.2067,1.7228,-0.3102,1.3675,0.1163,-0.2342,0.1562,1.1994,0.0973
1.6453,-0.1438,1.8324,0.2574,-0.0197,-0.3142,0.1036,-0.2067,1.7228,-0.3102,1.3675,0.1163,-0.2342,0.1562,1.1994,0.0973
1.6453,-0.1438,1.8324,0.2574,-0.0197,-0.3142,0.1036,-0.2067,1.7228,-0.3102,1.3675,0.1163,-0.2342,0.1562,1.1994,0.0973
1.6836,-0.1358,1.8423,0.3022,0.1097,-0.2897,0.2413,-0.2183,1.7331,-0.2686,1.4315,0.0937,-0.0844,0.1218,1.3575,0.0713
1.6836,-0.1358,1.8423,0.3022,0.1097,-0.2897,0.2413,-0.2183,1.7331,-0.2686,1.4315,0.0937,-0.0844,0.1218,1.3575,0.0713
1.7268,-0.1267,1.8945,0.3031,0.2599,-0.2833,0.3449,-0.2231,1.733,-0.2233,1.4655,0.0866,0.0299,0.1091,1.4383,0.0698
1.7268,-0.1267,1.8945,0.3031,0.2599,-0.2833,0.3449,-0.2231,1.733,-0.2233,1.4655,0.0866,0.0299,0.1091,1.4383,0.0698
1.758,-0.1161,1.9372,0.3009,0.408,-0.2722,0.4493,-0.2281,1.7432,-0.1814,1.5078,0.0816,0.1732,0.0862,1.4867,0.0797
1.7943,-0.1126,1.9673,0.3,0.5559,-0.2794,0.5188,-0.226,1.7535,-0.1622,1.5418,0.0745,0.2212,0.0785,1.5053,0.1063
1.7943,-0.1126,1.9673,0.3,0.5559,-0.2794,0.5188,-0.226,1.7535,-0.1622,1.5418,0.0745,0.2212,0.0785,1.5053,0.1063
1.8161,-0.1122,1.9878,0.296,0.6521,-0.2833,0.553,-0.2168,1.7473,-0.1646,1.5381,0.0659,0.1817,0.074,1.4967,0.1365
1.8161,-0.1122,1.9878,0.296,0.6521,-0.2833,0.553,-0.2168,1.7473,-0.1646,1.5381,0.0659,0.1817,0.074,1.4967,0.1365
1.8161,-0.1122,1.9878,0.296,0.6521,-0.2833,0.553,-0.2168,1.7473,-0.1646,1.5381,0.0659,0.1817,0.074,1.4967,0.1365
1.8307,-0.1091,2.0035,0.2905,0.7235,-0.2821,0.5689,-0.1956,1.7494,-0.179,1.5472,0.0528,0.1226,0.0671,1.4772,0.1646
1.8307,-0.1091,2.0035,0.2905,0.7235,-0.2821,0.5689,-0.1956,1.7494,-0.179,1.5472,0.0528,0.1226,0.0671,1.4772,0.1646
1.8307,-0.1091,2.0035,0.2905,0.7235,-0.2821,0.5689,-0.1956,1.7494,-0.179,1.5472,0.0528,0.1226,0.0671,1.4772,0.1646
1.838,-0.1117,2.0065,0.2862,0.7515,-0.2807,0.5812,-0.1839,1.7329,-0.2005,1.5479,0.0377,0.0443,0.0578,1.4497,0.1864
1.8454,-0.1143,2.03,0.2779,0.7402,-0.254,0.602,-0.1698,1.733,-0.2233,1.5828,0.0155,-0.059,0.0851,1.4416,0.1893
1.8575,-0.1159,2.0535,0.2696,0.7124,-0.2138,0.6328,-0.1699,1.733,-0.2233,1.6473,-0.0073,-0.0844,0.1218,1.4579,0.1835
1.8575,-0.1159,2.0535,0.2696,0.7124,-0.2138,0.6328,-0.1699,1.733,-0.2233,1.6473,-0.0073,-0.0844,0.1218,1.4579,0.1835
1.8992,-0.1279,2.08,0.257,0.6818,-0.1803,0.6686,-0.1772,1.7663,-0.2259,1.6854,-0.0059,-0.0261,0.1289,1.4825,0.1749
1.8992,-0.1279,2.08,0.257,0.6818,-0.1803,0.6686,-0.1772,1.7663,-0.2259,1.6854,-0.0059,-0.0261,0.1289,1.4825,0.1749
1.8992,-0.1279,2.08,0.257,0.6818,-0.1803,0.6686,-0.1772,1.7663,-0.2259,1.6854,-0.0059,-0.0261,0.1289,1.4825,0.1749
1.9508,-0.1461,2.0898,0.26,0.6618,-0.1618,0.723,-0.1964,1.8204,-0.236,1.6924,0.0263,0.0435,0.1506,1.5288,0.1615
1.9508,-0.1461,2.0898,0.26,0.6618,-0.1618,0.723,-0.1964,1.8204,-0.236,1.6924,0.0263,0.0435,0.1506,1.5288,0.1615
1.9803,-0.1566,2.1025,0.2587,0.6461,-0.16,0.8135,-0.223,1.8685,-0.2484,1.6689,0.0743,0.1305,0.1477,1.5781,0.1441
1.9803,-0.1566,2.1025,0.2587,0.6461,-0.16,0.8135,-0.223,1.8685,-0.2484,1.6689,0.0743,0.1305,0.1477,1.5781,0.1441
1.9877,-0.1592,2.0995,0.263,0.6278,-0.165,0.9143,-0.264,1.8998,-0.2595,1.6506,0.1007,0.1614,0.1648,1.611,0.1325
1.963,-0.1395,2.0917,0.2658,0.6061,-0.1649,1.0194,-0.2957,1.9124,-0.2548,1.646,0.1073,0.2577,0.1494,1.6385,0.1197
1.963,-0.1395,2.0917,0.2658,0.6061,-0.1649,1.0194,-0.2957,1.9124,-0.2548,1.646,0.1073,0.2577,0.1494,1.6385,0.1197
1.963,-0.1395,2.0917,0.2658,0.6061,-0.1649,1.0194,-0.2957,1.9124,-0.2548,1.646,0.1073,0.2577,0.1494,1.6385,0.1197
1.9357,-0.1163,2.076,0.2713,0.62,-0.185,1.0332,-0.3006,1.8936,-0.2391,1.6246,0.1099,0.3716,0.1091,1.6358,0.1146
1.9357,-0.1163,2.076,0.2713,0.62,-0.185,1.0332,-0.3006,1.8936,-0.2391,1.6246,0.1099,0.3716,0.1091,1.6358,0.1146
1.9357,-0.1163,2.076,0.2713,0.62,-0.185,1.0332,-0.3006,1.8936,-0.2391,1.6246,0.1099,0.3716,0.1091,1.6358,0.1146
1.9085,-0.1012,2.0584,0.2711,0.6183,-0.2033,0.9869,-0.2789,1.8726,-0.2317,1.6125,0.0993,0.5234,0.0462,1.6139,0.1193
1.9085,-0.1012,2.0584,0.2711,0.6183,-0.2033,0.9869,-0.2789,1.8726,-0.2317,1.6125,0.0993,0.5234,0.0462,1.6139,0.1193
1.8792,-0.0991,2.0497,0.258,0.6105,-0.2233,0.8896,-0.2283,1.8308,-0.2169,1.5919,0.0866,0.598,0.0012,1.5894,0.1189
1.8404,-0.1071,2.0518,0.2378,0.5871,-0.2415,0.785,-0.1968,1.8079,-0.2179,1.6102,0.0603,0.5778,-0.001,1.5704,0.1105
1.8404,-0.1071,2.0518,0.2378,0.5871,-0.2415,0.785,-0.1968,1.8079,-0.2179,1.6102,0.0603,0.5778,-0.001,1.5704,0.1105
1.8404,-0.1071,2.0518,0.2378,0.5871,-0.2415,0.785,-0.1968,1.8079,-0.2179,1.6102,0.0603,0.5778,-0.001,1.5704,0.1105
1.809,-0.1178,2.0755,0.2037,0.5672,-0.2646,0.6908,-0.1797,1.7725,-0.2236,1.6071,0.0366,0.463,0.0395,1.5433,0.105
1.809,-0.1178,2.0755,0.2037,0.5672,-0.2646,0.6908,-0.1797,1.7725,-0.2236,1.6071,0.0366,0.463,0.0395,1.5433,0.105
1.809,-0.1178,2.0755,0.2037,0.5672,-0.2646,0.6908,-0.1797,1.7725,-0.2236,1.6071,0.0366,0.463,0.0395,1.5433,0.105
1.7706,-0.1422,2.111,0.1525,0.5068,-0.2808,0.564,-0.1885,1.7351,-0.2376,1.6215,0.0018,0.2266,0.1324,1.5028,0.0921
1.7706,-0.1422,2.111,0.1525,0.5068,-0.2808,0.564,-0.1885,1.7351,-0.2376,1.6215,0.0018,0.2266,0.1324,1.5028,0.0921
1.7708,-0.1504,2.112,0.1426,0.4913,-0.2791,0.5567,-0.2074,1.7601,-0.251,1.6305,-0.0113,0.1528,0.1771,1.4784,0.0917
1.7708,-0.1504,2.112,0.1426,0.4913,-0.2791,0.5567,-0.2074,1.7601,-0.251,1.6305,-0.0113,0.1528,0.1771,1.4784,0.0917
1.7854,-0.1555,2.0885,0.1509,0.4878,-0.2741,0.5665,-0.2215,1.8371,-0.2827,1.6396,-0.0243,0.1074,0.2118,1.4595,0.0924
1.7854,-0.1555,2.0885,0.1509,0.4878,-0.2741,0.5665,-0.2215,1.8371,-0.2827,1.6396,-0.0243,0.1074,0.2118,1.4595,0.0924
1.7975,-0.1571,2.0562,0.1719,0.4844,-0.2691,0.5849,-0.2334,1.9081,-0.3169,1.6145,-0.0303,0.0509,0.2318,1.4352,0.0919
1.7975,-0.1571,2.0562,0.1719,0.4844,-0.2691,0.5849,-0.2334,1.9081,-0.3169,1.6145,-0.0303,0.0509,0.2318,1.4352,0.0919
1.8024,-0.1561,2.0024,0.207,0.4749,-0.2658,0.5947,-0.2475,1.9582,-0.3436,1.5759,-0.0166,0.0203,0.2146,1.4191,0.0886
1.8024,-0.1561,2.0024,0.207,0.4749,-0.2658,0.5947,-0.2475,1.9582,-0.3436,1.5759,-0.0166,0.0203,0.2146,1.4191,0.0886
1.795,-0.1535,1.9564,0.2393,0.45,-0.2608,0.6045,-0.2616,1.9665,-0.3556,1.5328,0.0035,-0.0017,0.1851,1.4192,0.0795
1.795,-0.1535,1.9564,0.2393,0.45,-0.2608,0.6045,-0.2616,1.9665,-0.3556,1.5328,0.0035,-0.0017,0.1851,1.4192,0.0795
1.7779,-0.1448,1.9193,0.2588,0.426,-0.2673,0.6008,-0.271,1.9184,-0.3431,1.4897,0.0237,-0.0236,0.1558,1.4492,0.0629
1.7535,-0.1334,1.896,0.2671,0.3858,-0.2605,0.6057,-0.2781,1.8433,-0.303,1.4724,0.0347,-0.0541,0.1387,1.4872,0.0435
1.7535,-0.1334,1.896,0.2671,0.3858,-0.2605,0.6057,-0.2781,1.8433,-0.303,1.4724,0.0347,-0.0541,0.1387,1.4872,0.0435
1.7535,-0.1334,1.896,0.2671,0.3858,-0.2605,0.6057,-0.2781,1.8433,-0.303,1.4724,0.0347,-0.0541,0.1387,1.4872,0.0435
1.7535,-0.1334,1.896,0.2671,0.3858,-0.2605,0.6057,-0.2781,1.8433,-0.303,1.4724,0.0347,-0.0541,0.1387,1.4872,0.0435
1.7389,-0.1283,1.8815,0.2625,0.3738,-0.2638,0.602,-0.2874,1.7663,-0.2487,1.4724,0.0347,-0.065,0.1241,1.5009,0.0327
1.7389,-0.1283,1.8815,0.2625,0.3738,-0.2638,0.602,-0.2874,1.7663,-0.2487,1.4724,0.0347,-0.065,0.1241,1.5009,0.0327
1.7389,-0.1283,1.8815,0.2625,0.3738,-0.2638,0.602,-0.2874,1.7663,-0.2487,1.4724,0.0347,-0.065,0.1241,1.5009,0.0327
1.7389,-0.1283,1.8815,0.2625,0.3738,-0.2638,0.602,-0.2874,1.7663,-0.2487,1.4724,0.0347,-0.065,0.1241,1.5009,0.0327
1.7124,-0.1297,1.8693,0.2379,0.3816,-0.2853,0.5762,-0.2943,1.627,-0.1494,1.4467,0.0438,-0.059,0.0851,1.4657,0.0391
1.7124,-0.1297,1.8693,0.2379,0.3816,-0.2853,0.5762,-0.2943,1.627,-0.1494,1.4467,0.0438,-0.059,0.0851,1.4657,0.0391
1.7124,-0.1297,1.8693,0.2379,0.3816,-0.2853,0.5762,-0.2943,1.627,-0.1494,1.4467,0.0438,-0.059,0.0851,1.4657,0.0391
1.6957,-0.1373,1.8763,0.2194,0.4304,-0.3249,0.5457,-0.2941,1.5797,-0.16,1.4219,0.0378,0.0026,0.0266,1.3655,0.0775
1.6957,-0.1373,1.8763,0.2194,0.4304,-0.3249,0.5457,-0.2941,1.5797,-0.16,1.4219,0.0378,0.0026,0.0266,1.3655,0.0775
1.674,-0.1378,1.8696,0.2122,0.4193,-0.3396,0.5151,-0.2939,1.543,-0.1969,1.4107,0.0122,-0.0415,-0.0311,1.29,0.0982
1.674,-0.1378,1.8696,0.2122,0.4193,-0.3396,0.5151,-0.2939,1.543,-0.1969,1.4107,0.0122,-0.0415,-0.0311,1.29,0.0982
1.6501,-0.1428,1.8611,0.1992,0.3578,-0.3328,0.4579,-0.2843,1.5065,-0.2337,1.4205,-0.0158,-0.1683,-0.059,1.2151,0.1097
1.6501,-0.1428,1.8611,0.1992,0.3578,-0.3328,0.4579,-0.2843,1.5065,-0.2337,1.4205,-0.0158,-0.1683,-0.059,1.2151,0.1097
1.6501,-0.1428,1.8611,0.1992,0.3578,-0.3328,0.4579,-0.2843,1.5065,-0.2337,1.4205,-0.0158,-0.1683,-0.059,1.2151,0.1097
1.6309,-0.1469,1.8389,0.1974,0.2829,-0.3063,0.4142,-0.2794,1.4781,-0.2597,1.4558,-0.0528,-0.2342,-0.0539,1.1778,0.1109
1.6309,-0.1469,1.8389,0.1974,0.2829,-0.3063,0.4142,-0.2794,1.4781,-0.2597,1.4558,-0.0528,-0.2342,-0.0539,1.1778,0.1109
1.6309,-0.1469,1.8389,0.1974,0.2829,-0.3063,0.4142,-0.2794,1.4781,-0.2597,1.4558,-0.0528,-0.2342,-0.0539,1.1778,0.1109
1.6336,-0.1586,1.8168,0.1956,0.2048,-0.275,0.3621,-0.2769,1.47,-0.2703,1.4513,-0.0463,-0.2508,-0.0299,1.154,0.1103
1.6702,-0.1877,1.7657,0.2104,0.1034,-0.2503,0.2753,-0.2674,1.4885,-0.2858,1.3807,0.0277,-0.2543,0.035,1.1436,0.0991
1.6702,-0.1877,1.7657,0.2104,0.1034,-0.2503,0.2753,-0.2674,1.4885,-0.2858,1.3807,0.0277,-0.2543,0.035,1.1436,0.0991
1.6606,-0.1897,1.7456,0.2144,0.0858,-0.2553,0.2801,-0.2744,1.4967,-0.2977,1.3235,0.0824,-0.2627,0.0471,1.1491,0.0912
1.6606,-0.1897,1.7456,0.2144,0.0858,-0.2553,0.2801,-0.2744,1.4967,-0.2977,1.3235,0.0824,-0.2627,0.0471,1.1491,0.0912
1.6606,-0.1897,1.7456,0.2144,0.0858,-0.2553,0.2801,-0.2744,1.4967,-0.2977,1.3235,0.0824,-0.2627,0.0471,1.1491,0.0912
1.6509,-0.1835,1.7474,0.2201,0.1044,-0.2618,0.3815,-0.3049,1.5111,-0.3073,1.2881,0.1196,-0.2627,0.0471,1.1732,0.0827
1.6509,-0.1835,1.7474,0.2201,0.1044,-0.2618,0.3815,-0.3049,1.5111,-0.3073,1.2881,0.1196,-0.2627,0.0471,1.1732,0.0827
1.6408,-0.1612,1.7676,0.2162,0.1709,-0.2668,0.5005,-0.3311,1.5294,-0.3003,1.2963,0.1216,-0.1968,0.0421,1.2265,0.0758
1.6408,-0.1612,1.7676,0.2162,0.1709,-0.2668,0.5005,-0.3311,1.5294,-0.3003,1.2963,0.1216,-0.1968,0.0421,1.2265,0.0758
1.652,-0.1219,1.8058,0.2283,0.298,-0.2669,0.6227,-0.3319,1.5703,-0.2923,1.3091,0.1171,-0.0472,0.0075,1.2933,0.0671
1.652,-0.1219,1.8058,0.2283,0.298,-0.2669,0.6227,-0.3319,1.5703,-0.2923,1.3091,0.1171,-0.0472,0.0075,1.2933,0.0671
1.6731,-0.0969,1.8578,0.2291,0.4191,-0.2573,0.7274,-0.321,1.6299,-0.2773,1.3556,0.1057,0.2185,-0.0405,1.3629,0.0724
1.6731,-0.0969,1.8578,0.2291,0.4191,-0.2573,0.7274,-0.321,1.6299,-0.2773,1.3556,0.1057,0.2185,-0.0405,1.3629,0.0724
1.704,-0.078,1.8963,0.2412,0.5318,-0.2445,0.7821,-0.2817,1.6793,-0.2587,1.4067,0.0876,0.5049,-0.1141,1.4355,0.0738
1.704,-0.078,1.8963,0.2412,0.5318,-0.2445,0.7821,-0.2817,1.6793,-0.2587,1.4067,0.0876,0.5049,-0.1141,1.4355,0.0738
1.74,-0.0662,1.9378,0.2491,0.6235,-0.2317,0.8185,-0.2301,1.7165,-0.2447,1.4323,0.0785,0.7172,-0.1707,1.484,0.0837
1.74,-0.0662,1.9378,0.2491,0.6235,-0.2317,0.8185,-0.2301,1.7165,-0.2447,1.4323,0.0785,0.7172,-0.1707,1.484,0.0837
1.7691,-0.0683,1.965,0.2524,0.6818,-0.222,0.8237,-0.1781,1.731,-0.2316,1.458,0.0695,0.8905,-0.2319,1.5136,0.0943
1.7691,-0.0683,1.965,0.2524,0.6818,-0.222,0.8237,-0.1781,1.731,-0.2316,1.458,0.0695,0.8905,-0.2319,1.5136,0.0943
1.7838,-0.0735,1.9825,0.2527,0.7097,-0.2205,0.8064,-0.1233,1.7268,-0.2256,1.4542,0.0609,0.957,-0.2646,1.5297,0.1067
1.7865,-0.0854,1.9914,0.2398,0.7097,-0.2205,0.7727,-0.0897,1.7372,-0.2293,1.4716,0.0498,0.899,-0.2441,1.5376,0.1221
1.7865,-0.0854,1.9914,0.2398,0.7097,-0.2205,0.7727,-0.0897,1.7372,-0.2293,1.4716,0.0498,0.899,-0.2441,1.5376,0.1221
1.7843,-0.0982,2.0081,0.2243,0.6845,-0.2154,0.7453,-0.08,1.7455,-0.2186,1.5139,0.0448,0.8072,-0.1748,1.5619,0.1316
1.7843,-0.0982,2.0081,0.2243,0.6845,-0.2154,0.7453,-0.08,1.7455,-0.2186,1.5139,0.0448,0.8072,-0.1748,1.5619,0.1316
1.7843,-0.0982,2.0081,0.2243,0.6845,-0.2154,0.7453,-0.08,1.7455,-0.2186,1.5139,0.0448,0.8072,-0.1748,1.5619,0.1316
1.7723,-0.1048,2.0433,0.1989,0.6688,-0.2136,0.7379,-0.0991,1.7725,-0.2236,1.5737,0.0286,0.6492,-0.0727,1.5727,0.143
1.7723,-0.1048,2.0433,0.1989,0.6688,-0.2136,0.7379,-0.0991,1.7725,-0.2236,1.5737,0.0286,0.6492,-0.0727,1.5727,0.143
1.7723,-0.1048,2.0433,0.1989,0.6688,-0.2136,0.7379,-0.0991,1.7725,-0.2236,1.5737,0.0286,0.6492,-0.0727,1.5727,0.143
1.7821,-0.111,2.0746,0.1879,0.6522,-0.2002,0.7478,-0.1134,1.8267,-0.2336,1.6033,0.028,0.5148,0.0585,1.5918,0.1423
1.7821,-0.111,2.0746,0.1879,0.6522,-0.2002,0.7478,-0.1134,1.8267,-0.2336,1.6033,0.028,0.5148,0.0585,1.5918,0.1423
1.7821,-0.111,2.0746,0.1879,0.6522,-0.2002,0.7478,-0.1134,1.8267,-0.2336,1.6033,0.028,0.5148,0.0585,1.5918,0.1423
1.8407,-0.1235,2.0785,0.1994,0.6714,-0.2069,0.8088,-0.1566,1.9649,-0.2734,1.6375,0.0209,0.2855,0.2333,1.5919,0.1332
1.8407,-0.1235,2.0785,0.1994,0.6714,-0.2069,0.8088,-0.1566,1.9649,-0.2734,1.6375,0.0209,0.2855,0.2333,1.5919,0.1332
1.8724,-0.1293,2.0618,0.215,0.6783,-0.217,0.8275,-0.1686,2.0385,-0.2994,1.6246,0.0255,0.2484,0.2558,1.5975,0.1251
1.8724,-0.1293,2.0618,0.215,0.6783,-0.217,0.8275,-0.1686,2.0385,-0.2994,1.6246,0.0255,0.2484,0.2558,1.5975,0.1251
1.8724,-0.1293,2.0618,0.215,0.6783,-0.217,0.8275,-0.1686,2.0385,-0.2994,1.6246,0.0255,0.2484,0.2558,1.5975,0.1251
1.8945,-0.1371,2.0343,0.2376,0.6914,-0.2254,0.8549,-0.1783,2.0912,-0.318,1.6162,0.0235,0.2371,0.2409,1.5976,0.116
1.8945,-0.1371,2.0343,0.2376,0.6914,-0.2254,0.8549,-0.1783,2.0912,-0.318,1.6162,0.0235,0.2371,0.2409,1.5976,0.116
1.8945,-0.1371,2.0343,0.2376,0.6914,-0.2254,0.8549,-0.1783,2.0912,-0.318,1.6162,0.0235,0.2371,0.2409,1.5976,0.116
1.9166,-0.1449,1.9919,0.2816,0.6827,-0.2337,0.9473,-0.2217,2.0552,-0.3235,1.5904,0.0326,0.2861,0.1393,1.6389,0.0833
1.919,-0.1485,1.986,0.2902,0.6801,-0.2403,0.966,-0.2338,1.9942,-0.2928,1.5858,0.0391,0.3032,0.1146,1.6829,0.0647
1.919,-0.1485,1.986,0.2902,0.6801,-0.2403,0.966,-0.2338,1.9942,-0.2928,1.5858,0.0391,0.3032,0.1146,1.6829,0.0647
1.919,-0.1485,1.986,0.2902,0.6801,-0.2403,0.966,-0.2338,1.9942,-0.2928,1.5858,0.0391,0.3032,0.1146,1.6829,0.0647
1.9018,-0.1397,1.9889,0.2859,0.674,-0.2419,0.9709,-0.2409,1.925,-0.2502,1.5729,0.0437,0.2721,0.0977,1.7214,0.045
1.9018,-0.1397,1.9889,0.2859,0.674,-0.2419,0.9709,-0.2409,1.925,-0.2502,1.5729,0.0437,0.2721,0.0977,1.7214,0.045
1.8846,-0.1309,1.9881,0.27,0.6748,-0.2536,0.9533,-0.2455,1.8475,-0.1954,1.5646,0.0417,0.2324,0.0931,1.7352,0.0341
1.8846,-0.1309,1.9881,0.27,0.6748,-0.2536,0.9533,-0.2455,1.8475,-0.1954,1.5646,0.0417,0.2324,0.0931,1.7352,0.0341
1.8846,-0.1309,1.9881,0.27,0.6748,-0.2536,0.9533,-0.2455,1.8475,-0.1954,1.5646,0.0417,0.2324,0.0931,1.7352,0.0341
1.8722,-0.1211,2,0.2529,0.6913,-0.267,0.9495,-0.2549,1.8014,-0.1517,1.5691,0.0351,0.241,0.0808,1.7297,0.033
1.8551,-0.1123,1.9962,0.2414,0.7174,-0.2837,0.922,-0.2452,1.7554,-0.1309,1.5441,0.0292,0.2297,0.0663,1.6913,0.0436
1.8551,-0.1123,1.9962,0.2414,0.7174,-0.2837,0.922,-0.2452,1.7554,-0.1309,1.5441,0.0292,0.2297,0.0663,1.6913,0.0436
1.8477,-0.1097,1.9817,0.2368,0.747,-0.3055,0.8896,-0.2283,1.7305,-0.1404,1.5275,0.0251,0.2269,0.0395,1.6391,0.0651
1.8477,-0.1097,1.9817,0.2368,0.747,-0.3055,0.8896,-0.2283,1.7305,-0.1404,1.5275,0.0251,0.2269,0.0395,1.6391,0.0651
1.8454,-0.1143,1.9701,0.228,0.7547,-0.327,0.8534,-0.2209,1.712,-0.1704,1.5071,0.0126,0.1931,-0.004,1.5652,0.0912
1.8454,-0.1143,1.9701,0.228,0.7547,-0.327,0.8534,-0.2209,1.712,-0.1704,1.5071,0.0126,0.1931,-0.004,1.5652,0.0912
1.8382,-0.1199,1.9585,0.2193,0.7206,-0.3301,0.8223,-0.2207,1.6811,-0.2049,1.5041,-0.0109,0.0838,-0.0296,1.4808,0.115
1.8382,-0.1199,1.9585,0.2193,0.7206,-0.3301,0.8223,-0.2207,1.6811,-0.2049,1.5041,-0.0109,0.0838,-0.0296,1.4808,0.115
1.8382,-0.1199,1.9585,0.2193,0.7206,-0.3301,0.8223,-0.2207,1.6811,-0.2049,1.5041,-0.0109,0.0838,-0.0296,1.4808,0.115
1.8211,-0.1194,1.9596,0.2092,0.6771,-0.3297,0.801,-0.2347,1.6565,-0.237,1.5266,-0.0435,-0.0137,-0.0409,1.4185,0.1249
1.8139,-0.125,1.9684,0.1965,0.6043,-0.3078,0.7662,-0.2439,1.6463,-0.256,1.5787,-0.0766,-0.0525,-0.0454,1.3916,0.1194
1.8093,-0.1342,1.9569,0.1877,0.5223,-0.2825,0.7364,-0.2602,1.6546,-0.268,1.6088,-0.0922,-0.0525,-0.0454,1.3811,0.108
1.8093,-0.1342,1.9569,0.1877,0.5223,-0.2825,0.7364,-0.2602,1.6546,-0.268,1.6088,-0.0922,-0.0525,-0.0454,1.3811,0.108
1.8191,-0.1403,1.9502,0.1805,0.4526,-0.2541,0.7153,-0.2741,1.6856,-0.279,1.6256,-0.0883,0.0142,-0.0507,1.3867,0.091
1.8191,-0.1403,1.9502,0.1805,0.4526,-0.2541,0.7153,-0.2741,1.6856,-0.279,1.6256,-0.0883,0.0142,-0.0507,1.3867,0.091
1.8191,-0.1403,1.9502,0.1805,0.4526,-0.2541,0.7153,-0.2741,1.6856,-0.279,1.6256,-0.0883,0.0142,-0.0507,1.3867,0.091
1.8412,-0.1563,1.9386,0.1718,0.3934,-0.2407,0.6807,-0.2832,1.7021,-0.2803,1.5992,-0.0642,0.0252,-0.0363,1.3897,0.078
1.8412,-0.1563,1.9386,0.1718,0.3934,-0.2407,0.6807,-0.2832,1.7021,-0.2803,1.5992,-0.0642,0.0252,-0.0363,1.3897,0.078
1.8412,-0.1563,1.9386,0.1718,0.3934,-0.2407,0.6807,-0.2832,1.7021,-0.2803,1.5992,-0.0642,0.0252,-0.0363,1.3897,0.078
1.8755,-0.1738,1.929,0.1688,0.3531,-0.234,0.6327,-0.2876,1.729,-0.2853,1.5728,-0.0401,0.0642,-0.0318,1.387,0.0729
1.8755,-0.1738,1.929,0.1688,0.3531,-0.234,0.6327,-0.2876,1.729,-0.2853,1.5728,-0.0401,0.0642,-0.0318,1.387,0.0729
1.8755,-0.1738,1.929,0.1688,0.3531,-0.234,0.6327,-0.2876,1.729,-0.2853,1.5728,-0.0401,0.0642,-0.0318,1.387,0.0729
1.8755,-0.1738,1.929,0.1688,0.3531,-0.234,0.6327,-0.2876,1.729,-0.2853,1.5728,-0.0401,0.0642,-0.0318,1.387,0.0729
1.9076,-0.2041,1.8846,0.1653,0.2749,-0.2438,0.5677,-0.2965,1.7083,-0.278,1.5116,0.0061,0.0922,-0.0417,1.3603,0.0674
1.9076,-0.2041,1.8846,0.1653,0.2749,-0.2438,0.5677,-0.2965,1.7083,-0.278,1.5116,0.0061,0.0922,-0.0417,1.3603,0.0674
1.8662,-0.2003,1.8488,0.1747,0.2352,-0.2783,0.5603,-0.3152,1.6442,-0.2644,1.3976,0.1007,0.0531,-0.0462,1.3281,0.0698
1.8662,-0.2003,1.8488,0.1747,0.2352,-0.2783,0.5603,-0.3152,1.6442,-0.2644,1.3976,0.1007,0.0531,-0.0462,1.3281,0.0698
1.8224,-0.1929,1.8227,0.1871,0.2125,-0.2963,0.5883,-0.341,1.6174,-0.2594,1.3621,0.138,0.0058,-0.0386,1.3229,0.0596
1.8224,-0.1929,1.8227,0.1871,0.2125,-0.2963,0.5883,-0.341,1.6174,-0.2594,1.3621,0.138,0.0058,-0.0386,1.3229,0.0596
1.8224,-0.1929,1.8227,0.1871,0.2125,-0.2963,0.5883,-0.341,1.6174,-0.2594,1.3621,0.138,0.0058,-0.0386,1.3229,0.0596
1.7664,-0.1758,1.7995,0.1953,0.1771,-0.3061,0.625,-0.3645,1.5824,-0.2425,1.3402,0.1557,0.0058,-0.0386,1.3175,0.0585
1.7664,-0.1758,1.7995,0.1953,0.1771,-0.3061,0.625,-0.3645,1.5824,-0.2425,1.3402,0.1557,0.0058,-0.0386,1.3175,0.0585
1.7202,-0.1568,1.787,0.1965,0.1384,-0.311,0.653,-0.3903,1.5474,-0.2256,1.3365,0.1471,-0.0415,-0.0311,1.3069,0.0563
1.7202,-0.1568,1.787,0.1965,0.1384,-0.311,0.653,-0.3903,1.5474,-0.2256,1.3365,0.1471,-0.0415,-0.0311,1.3069,0.0563
1.7202,-0.1568,1.787,0.1965,0.1384,-0.311,0.653,-0.3903,1.5474,-0.2256,1.3365,0.1471,-0.0415,-0.0311,1.3069,0.0563
1.669,-0.1306,1.7698,0.1963,0.0906,-0.3126,0.6724,-0.4182,1.5124,-0.2087,1.3292,0.1298,-0.0608,-0.0333,1.299,0.0501
1.669,-0.1306,1.7698,0.1963,0.0906,-0.3126,0.6724,-0.4182,1.5124,-0.2087,1.3292,0.1298,-0.0608,-0.0333,1.299,0.0501
1.6155,-0.1009,1.7631,0.189,0.0487,-0.3126,0.66,-0.4297,1.4857,-0.2038,1.3436,0.095,-0.0525,-0.0454,1.2911,0.044
1.6155,-0.1009,1.7631,0.189,0.0487,-0.3126,0.66,-0.4297,1.4857,-0.2038,1.3436,0.095,-0.0525,-0.0454,1.2911,0.044
1.5838,-0.0789,1.7584,0.1875,0.0497,-0.324,0.6063,-0.4107,1.4694,-0.2026,1.3445,0.0799,0.0867,-0.0946,1.2885,0.0389
1.5693,-0.0738,1.7613,0.1833,0.0774,-0.3338,0.5381,-0.3708,1.4694,-0.2026,1.3663,0.0624,0.3026,-0.1617,1.2991,0.0411
1.5718,-0.0773,1.7738,0.1821,0.1319,-0.342,0.4737,-0.3216,1.4899,-0.2098,1.4219,0.0378,0.4553,-0.1974,1.323,0.0506
1.5718,-0.0773,1.7738,0.1821,0.1319,-0.342,0.4737,-0.3216,1.4899,-0.2098,1.4219,0.0378,0.4553,-0.1974,1.323,0.0506
1.5718,-0.0773,1.7738,0.1821,0.1319,-0.342,0.4737,-0.3216,1.4899,-0.2098,1.4219,0.0378,0.4553,-0.1974,1.323,0.0506
1.5863,-0.0825,1.8142,0.1742,0.2137,-0.3487,0.4312,-0.2748,1.5268,-0.2183,1.4731,0.0197,0.5238,-0.2033,1.3523,0.0612
1.5863,-0.0825,1.8142,0.1742,0.2137,-0.3487,0.4312,-0.2748,1.5268,-0.2183,1.4731,0.0197,0.5238,-0.2033,1.3523,0.0612
1.6128,-0.0891,1.8856,0.1553,0.2915,-0.3391,0.4189,-0.228,1.5699,-0.2245,1.5245,0.0015,0.4985,-0.167,1.3924,0.074
1.6128,-0.0891,1.8856,0.1553,0.2915,-0.3391,0.4189,-0.228,1.5699,-0.2245,1.5245,0.0015,0.4985,-0.167,1.3924,0.074
1.6465,-0.0902,1.9562,0.1463,0.3723,-0.323,0.4565,-0.2094,1.6132,-0.2308,1.5456,-0.001,0.3826,-0.0617,1.43,0.0817
1.6465,-0.0902,1.9562,0.1463,0.3723,-0.323,0.4565,-0.2094,1.6132,-0.2308,1.5456,-0.001,0.3826,-0.0617,1.43,0.0817
1.6465,-0.0902,1.9562,0.1463,0.3723,-0.323,0.4565,-0.2094,1.6132,-0.2308,1.5456,-0.001,0.3826,-0.0617,1.43,0.0817
1.7092,-0.0934,2.0232,0.1515,0.4587,-0.2938,0.5432,-0.2026,1.6937,-0.2457,1.5752,-0.0016,0.3062,0.0485,1.4784,0.0917
1.7092,-0.0934,2.0232,0.1515,0.4587,-0.2938,0.5432,-0.2026,1.6937,-0.2457,1.5752,-0.0016,0.3062,0.0485,1.4784,0.0917
1.7092,-0.0934,2.0232,0.1515,0.4587,-0.2938,0.5432,-0.2026,1.6937,-0.2457,1.5752,-0.0016,0.3062,0.0485,1.4784,0.0917
1.8329,-0.0963,2.0647,0.2107,0.5776,-0.2381,0.7056,-0.201,1.8768,-0.2831,1.5896,0.0477,0.2775,0.1517,1.5596,0.1083
1.8329,-0.0963,2.0647,0.2107,0.5776,-0.2381,0.7056,-0.201,1.8768,-0.2831,1.5896,0.0477,0.2775,0.1517,1.5596,0.1083
1.884,-0.098,2.0654,0.2524,0.6296,-0.23,0.7676,-0.2014,1.9417,-0.297,1.6056,0.0669,0.306,0.1417,1.6004,0.112
1.884,-0.098,2.0654,0.2524,0.6296,-0.23,0.7676,-0.2014,1.9417,-0.297,1.6056,0.0669,0.306,0.1417,1.6004,0.112
1.884,-0.098,2.0654,0.2524,0.6296,-0.23,0.7676,-0.2014,1.9417,-0.297,1.6056,0.0669,0.306,0.1417,1.6004,0.112
1.9256,-0.1018,2.0513,0.2898,0.6601,-0.2219,0.831,-0.2184,1.9753,-0.2998,1.6132,0.0841,0.3431,0.1192,1.6414,0.1066
1.9256,-0.1018,2.0513,0.2898,0.6601,-0.2219,0.831,-0.2184,1.9753,-0.2998,1.6132,0.0841,0.3431,0.1192,1.6414,0.1066
1.9574,-0.0994,2.0245,0.3285,0.6792,-0.2287,0.9357,-0.25,1.9439,-0.2659,1.6391,0.0749,0.4173,0.0743,1.768,0.0679
1.9574,-0.0994,2.0245,0.3285,0.6792,-0.2287,0.9357,-0.25,1.9439,-0.2659,1.6391,0.0749,0.4173,0.0743,1.768,0.0679
1.9574,-0.0994,2.0245,0.3285,0.6792,-0.2287,0.9357,-0.25,1.9439,-0.2659,1.6391,0.0749,0.4173,0.0743,1.768,0.0679
1.9574,-0.0994,2.0245,0.3285,0.6792,-0.2287,0.9357,-0.25,1.9439,-0.2659,1.6391,0.0749,0.4173,0.0743,1.768,0.0679
1.9549,-0.0958,2.0226,0.3226,0.6705,-0.2369,0.9819,-0.2717,1.8936,-0.2391,1.6482,0.0617,0.4259,0.062,1.826,0.0383
1.9549,-0.0958,2.0226,0.3226,0.6705,-0.2369,0.9819,-0.2717,1.8936,-0.2391,1.6482,0.0617,0.4259,0.062,1.826,0.0383
1.9524,-0.0922,2.0297,0.3039,0.6652,-0.2502,1.0144,-0.2886,1.8454,-0.2038,1.6444,0.0532,0.463,0.0395,1.8593,0.0175
1.9524,-0.0922,2.0297,0.3039,0.6652,-0.2502,1.0144,-0.2886,1.8454,-0.2038,1.6444,0.0532,0.463,0.0395,1.8593,0.0175
1.9524,-0.0922,2.0297,0.3039,0.6652,-0.2502,1.0144,-0.2886,1.8454,-0.2038,1.6444,0.0532,0.463,0.0395,1.8593,0.0175
1.94,-0.0823,2.0486,0.2681,0.6921,-0.2786,1.0293,-0.31,1.745,-0.1272,1.6322,0.0426,0.5863,-0.0133,1.8455,0.0012
1.94,-0.0823,2.0486,0.2681,0.6921,-0.2786,1.0293,-0.31,1.745,-0.1272,1.6322,0.0426,0.5863,-0.0133,1.8455,0.0012
1.94,-0.0823,2.0486,0.2681,0.6921,-0.2786,1.0293,-0.31,1.745,-0.1272,1.6322,0.0426,0.5863,-0.0133,1.8455,0.0012
1.9375,-0.0787,2.0605,0.2509,0.7374,-0.3021,1.0116,-0.3145,1.7366,-0.1151,1.6193,0.0472,0.6727,-0.0439,1.8041,0.0158
1.9375,-0.0787,2.0605,0.2509,0.7374,-0.3021,1.0116,-0.3145,1.7366,-0.1151,1.6193,0.0472,0.6727,-0.0439,1.8041,0.0158
1.9375,-0.0787,2.0605,0.2509,0.7374,-0.3021,1.0116,-0.3145,1.7366,-0.1151,1.6193,0.0472,0.6727,-0.0439,1.8041,0.0158
1.9375,-0.0787,2.0605,0.2509,0.7374,-0.3021,1.0116,-0.3145,1.7366,-0.1151,1.6193,0.0472,0.6727,-0.0439,1.8041,0.0158
1.918,-0.0827,2.0529,0.2278,0.7808,-0.3438,0.9401,-0.3161,1.7015,-0.1438,1.5608,0.0331,0.5599,-0.0689,1.6609,0.0694
1.918,-0.0827,2.0529,0.2278,0.7808,-0.3438,0.9401,-0.3161,1.7015,-0.1438,1.5608,0.0331,0.5599,-0.0689,1.6609,0.0694
1.896,-0.0832,2.0412,0.219,0.7693,-0.3585,0.8814,-0.306,1.681,-0.1822,1.5237,0.0166,0.411,-0.0717,1.576,0.1025
1.8888,-0.0888,2.0345,0.2117,0.7352,-0.3615,0.8181,-0.289,1.6502,-0.2167,1.4867,0.0001,0.2353,-0.0648,1.5078,0.1205
1.8888,-0.0888,2.0345,0.2117,0.7352,-0.3615,0.8181,-0.289,1.6502,-0.2167,1.4867,0.0001,0.2353,-0.0648,1.5078,0.1205
1.8814,-0.0862,2.0267,0.2145,0.6943,-0.3546,0.7772,-0.2746,1.6194,-0.2511,1.4799,-0.0319,0.0531,-0.0462,1.4454,0.1305
1.8814,-0.0862,2.0267,0.2145,0.6943,-0.3546,0.7772,-0.2746,1.6194,-0.2511,1.4799,-0.0319,0.0531,-0.0462,1.4454,0.1305
1.8717,-0.0882,2.0374,0.2075,0.6345,-0.3409,0.75,-0.265,1.5764,-0.2674,1.4896,-0.0599,-0.0802,-0.0356,1.3996,0.1256
1.8717,-0.0882,2.0374,0.2075,0.6345,-0.3409,0.75,-0.265,1.5764,-0.2674,1.4896,-0.0599,-0.0802,-0.0356,1.3996,0.1256
1.8692,-0.0846,2.0423,0.209,0.5766,-0.3092,0.75,-0.265,1.5641,-0.2721,1.537,-0.0864,-0.1247,-0.0017,1.3999,0.1074
1.8692,-0.0846,2.0423,0.209,0.5766,-0.3092,0.75,-0.265,1.5641,-0.2721,1.537,-0.0864,-0.1247,-0.0017,1.3999,0.1074
1.8692,-0.0846,2.0579,0.2034,0.5154,-0.2726,0.7549,-0.2721,1.5599,-0.2661,1.5922,-0.0961,-0.0944,0.0151,1.4218,0.0846
1.8692,-0.0846,2.0579,0.2034,0.5154,-0.2726,0.7549,-0.2721,1.5599,-0.2661,1.5922,-0.0961,-0.0944,0.0151,1.4218,0.0846
1.874,-0.0836,2.0687,0.1964,0.4732,-0.2426,0.7462,-0.2743,1.5619,-0.2578,1.6217,-0.0967,-0.0447,0.0341,1.4383,0.0698
1.874,-0.0836,2.0687,0.1964,0.4732,-0.2426,0.7462,-0.2743,1.5619,-0.2578,1.6217,-0.0967,-0.0447,0.0341,1.4383,0.0698
1.8913,-0.0924,2.0668,0.1906,0.4284,-0.2193,0.7338,-0.286,1.5865,-0.2485,1.6552,-0.0889,0.0527,0.0456,1.4654,0.0572
1.8913,-0.0924,2.0668,0.1906,0.4284,-0.2193,0.7338,-0.286,1.5865,-0.2485,1.6552,-0.0889,0.0527,0.0456,1.4654,0.0572
1.9233,-0.1065,2.0619,0.1891,0.4035,-0.2143,0.7165,-0.2905,1.6256,-0.2487,1.6326,-0.0564,0.1396,0.0426,1.4845,0.0475
1.9233,-0.1065,2.0619,0.1891,0.4035,-0.2143,0.7165,-0.2905,1.6256,-0.2487,1.6326,-0.0564,0.1396,0.0426,1.4845,0.0475
1.9529,-0.1251,2.0414,0.1932,0.3736,-0.2225,0.6905,-0.2974,1.6524,-0.2537,1.5842,-0.0146,0.2072,0.0372,1.5008,0.0417
1.9529,-0.1251,2.0414,0.1932,0.3736,-0.2225,0.6905,-0.2974,1.6524,-0.2537,1.5842,-0.0146,0.2072,0.0372,1.5008,0.0417
1.9678,-0.1385,2.0209,0.1972,0.36,-0.244,0.6781,-0.309,1.6835,-0.2647,1.5487,0.0226,0.2072,0.0372,1.5117,0.0348
1.9678,-0.1385,2.0209,0.1972,0.36,-0.244,0.6781,-0.309,1.6835,-0.2647,1.5487,0.0226,0.2072,0.0372,1.5117,0.0348
1.9606,-0.1441,2.0053,0.2027,0.3499,-0.2703,0.6928,-0.3301,1.6918,-0.2766,1.4874,0.069,0.2241,0.0127,1.5172,0.0269
1.9606,-0.1441,2.0053,0.2027,0.3499,-0.2703,0.6928,-0.3301,1.6918,-0.2766,1.4874,0.069,0.2241,0.0127,1.5172,0.0269
1.9361,-0.1409,1.9819,0.211,0.3458,-0.295,0.748,-0.3656,1.7001,-0.2886,1.439,0.1109,0.2044,0.0105,1.5227,0.019
1.9361,-0.1409,1.9819,0.211,0.3458,-0.295,0.748,-0.3656,1.7001,-0.2886,1.439,0.1109,0.2044,0.0105,1.5227,0.019
1.8968,-0.1325,1.9693,0.2122,0.3288,-0.3114,0.7984,-0.394,1.6918,-0.2992,1.3868,0.1442,0.165,0.006,1.5201,0.0139
1.8625,-0.1231,1.9537,0.2177,0.3178,-0.3261,0.8538,-0.4295,1.6629,-0.3025,1.3402,0.1557,0.0781,0.0091,1.5066,0.0067
1.8625,-0.1231,1.9537,0.2177,0.3178,-0.3261,0.8538,-0.4295,1.6629,-0.3025,1.3402,0.1557,0.0781,0.0091,1.5066,0.0067
1.8185,-0.1075,1.9411,0.219,0.294,-0.3326,0.8956,-0.4601,1.6299,-0.2999,1.3283,0.145,0.0474,-0.0076,1.4823,0.0063
1.8185,-0.1075,1.9411,0.219,0.294,-0.3326,0.8956,-0.4601,1.6299,-0.2999,1.3283,0.145,0.0474,-0.0076,1.4823,0.0063
1.8185,-0.1075,1.9411,0.219,0.294,-0.3326,0.8956,-0.4601,1.6299,-0.2999,1.3283,0.145,0.0474,-0.0076,1.4823,0.0063
1.7865,-0.0854,1.9363,0.2175,0.2762,-0.3374,0.9053,-0.4741,1.5929,-0.2913,1.3127,0.1257,0.0084,-0.0121,1.4418,0.0116
1.7865,-0.0854,1.9363,0.2175,0.2762,-0.3374,0.9053,-0.4741,1.5929,-0.2913,1.3127,0.1257,0.0084,-0.0121,1.4418,0.0116
1.7495,-0.056,1.9314,0.216,0.255,-0.3374,0.8878,-0.4785,1.5435,-0.2648,1.3181,0.104,0.0168,-0.0242,1.4176,0.0112
1.7495,-0.056,1.9314,0.216,0.255,-0.3374,0.8878,-0.4785,1.5435,-0.2648,1.3181,0.104,0.0168,-0.0242,1.4176,0.0112
1.7223,-0.0327,1.9159,0.2215,0.2339,-0.3373,0.8384,-0.4663,1.5086,-0.248,1.3408,0.0714,0.0615,-0.0583,1.3825,0.0176
1.7223,-0.0327,1.9159,0.2215,0.2339,-0.3373,0.8384,-0.4663,1.5086,-0.248,1.3408,0.0714,0.0615,-0.0583,1.3825,0.0176
1.7002,-0.0167,1.9111,0.22,0.2069,-0.3389,0.7755,-0.4494,1.4676,-0.2335,1.3334,0.0543,0.0504,-0.0726,1.345,0.019
1.7002,-0.0167,1.9111,0.22,0.2069,-0.3389,0.7755,-0.4494,1.4676,-0.2335,1.3334,0.0543,0.0504,-0.0726,1.345,0.019
1.678,-0.0007,1.8985,0.2212,0.1858,-0.3388,0.7128,-0.4325,1.4369,-0.2227,1.3343,0.0392,0.095,-0.1066,1.3209,0.0185
1.678,-0.0007,1.8985,0.2212,0.1858,-0.3388,0.7128,-0.4325,1.4369,-0.2227,1.3343,0.0392,0.095,-0.1066,1.3209,0.0185
1.678,-0.0007,1.8985,0.2212,0.1858,-0.3388,0.7128,-0.4325,1.4369,-0.2227,1.3343,0.0392,0.095,-0.1066,1.3209,0.0185
1.6611,-0.0002,1.8811,0.2209,0.1588,-0.3404,0.6417,-0.418,1.4124,-0.2095,1.326,0.0372,0.1873,-0.1483,1.3048,0.0242
1.6563,-0.0012,1.8733,0.2237,0.1706,-0.3372,0.5917,-0.3898,1.4021,-0.2059,1.326,0.0372,0.2995,-0.188,1.2965,0.0361
1.6709,-0.0064,1.8829,0.2267,0.2187,-0.3356,0.5589,-0.357,1.4143,-0.2012,1.3388,0.0327,0.4155,-0.2016,1.3096,0.0523
1.6709,-0.0064,1.8829,0.2267,0.2187,-0.3356,0.5589,-0.357,1.4143,-0.2012,1.3388,0.0327,0.4155,-0.2016,1.3096,0.0523
1.6709,-0.0064,1.8829,0.2267,0.2187,-0.3356,0.5589,-0.357,1.4143,-0.2012,1.3388,0.0327,0.4155,-0.2016,1.3096,0.0523
1.7048,-0.0074,1.9118,0.2358,0.2991,-0.3195,0.5737,-0.3199,1.453,-0.2013,1.3507,0.0433,0.5522,-0.2134,1.3468,0.0691
1.7048,-0.0074,1.9118,0.2358,0.2991,-0.3195,0.5737,-0.3199,1.453,-0.2013,1.3507,0.0433,0.5522,-0.2134,1.3468,0.0691
1.7048,-0.0074,1.9118,0.2358,0.2991,-0.3195,0.5737,-0.3199,1.453,-0.2013,1.3507,0.0433,0.5522,-0.2134,1.3468,0.0691
1.7607,-0.0162,1.9534,0.2436,0.3919,-0.3001,0.5959,-0.2639,1.5205,-0.198,1.3836,0.0513,0.7391,-0.2336,1.403,0.0853
1.8216,-0.0241,2,0.2529,0.4982,-0.289,0.6353,-0.203,1.5801,-0.2055,1.4129,0.0508,0.87,-0.2339,1.4594,0.1014
1.8216,-0.0241,2,0.2529,0.4982,-0.289,0.6353,-0.203,1.5801,-0.2055,1.4129,0.0508,0.87,-0.2339,1.4594,0.1014
1.8754,-0.0294,2.0467,0.2623,0.5767,-0.2679,0.6933,-0.1536,1.6522,-0.2083,1.4588,0.0544,0.9607,-0.2383,1.5161,0.1085
1.9147,-0.0378,2.0819,0.2628,0.6383,-0.2633,0.7305,-0.1181,1.7019,-0.2123,1.4882,0.0539,0.9935,-0.2221,1.5512,0.1203
1.9147,-0.0378,2.0819,0.2628,0.6383,-0.2633,0.7305,-0.1181,1.7019,-0.2123,1.4882,0.0539,0.9935,-0.2221,1.5512,0.1203
1.9147,-0.0378,2.0819,0.2628,0.6383,-0.2633,0.7305,-0.1181,1.7019,-0.2123,1.4882,0.0539,0.9935,-0.2221,1.5512,0.1203
1.9565,-0.0416,2.1221,0.2648,0.7001,-0.2587,0.7777,-0.0969,1.7517,-0.2162,1.5002,0.0644,1.0348,-0.2182,1.592,0.124
1.9565,-0.0416,2.1221,0.2648,0.7001,-0.2587,0.7777,-0.0969,1.7517,-0.2162,1.5002,0.0644,1.0348,-0.2182,1.592,0.124
1.9565,-0.0416,2.1221,0.2648,0.7001,-0.2587,0.7777,-0.0969,1.7517,-0.2162,1.5002,0.0644,1.0348,-0.2182,1.592,0.124
1.9737,-0.0422,2.1447,0.2665,0.728,-0.2572,0.8126,-0.0874,1.7808,-0.2129,1.5169,0.0685,1.0556,-0.2163,1.6192,0.1296
1.9737,-0.0422,2.1447,0.2665,0.728,-0.2572,0.8126,-0.0874,1.7808,-0.2129,1.5169,0.0685,1.0556,-0.2163,1.6192,0.1296
1.9737,-0.0422,2.1447,0.2665,0.728,-0.2572,0.8126,-0.0874,1.7808,-0.2129,1.5169,0.0685,1.0556,-0.2163,1.6192,0.1296
1.9983,-0.0454,2.2256,0.2444,0.7533,-0.2624,0.8401,-0.0972,1.8121,-0.2239,1.5509,0.0614,0.9012,-0.1524,1.6659,0.1161
2.0032,-0.0444,2.284,0.2205,0.741,-0.2656,0.8601,-0.1259,1.8162,-0.2299,1.5813,0.0457,0.7476,-0.0889,1.6797,0.1052
2.0032,-0.0444,2.284,0.2205,0.741,-0.2656,0.8601,-0.1259,1.8162,-0.2299,1.5813,0.0457,0.7476,-0.0889,1.6797,0.1052
2.023,-0.0486,2.3237,0.2065,0.7445,-0.2706,0.885,-0.1619,1.8329,-0.2313,1.6246,0.0255,0.6268,-0.009,1.6881,0.0931
2.023,-0.0486,2.3237,0.2065,0.7445,-0.2706,0.885,-0.1619,1.8329,-0.2313,1.6246,0.0255,0.6268,-0.009,1.6881,0.0931
2.023,-0.0486,2.3237,0.2065,0.7445,-0.2706,0.885,-0.1619,1.8329,-0.2313,1.6246,0.0255,0.6268,-0.009,1.6881,0.0931
2.0452,-0.0482,2.3336,0.2095,0.7315,-0.2623,0.9236,-0.2026,1.8936,-0.2618,1.6427,-0.0008,0.4947,0.0563,1.6827,0.0829
2.0452,-0.0482,2.3336,0.2095,0.7315,-0.2623,0.9236,-0.2026,1.8936,-0.2618,1.6427,-0.0008,0.4947,0.0563,1.6827,0.0829
2.0452,-0.0482,2.3336,0.2095,0.7315,-0.2623,0.9236,-0.2026,1.8936,-0.2618,1.6427,-0.0008,0.4947,0.0563,1.6827,0.0829
2.0699,-0.0514,2.3186,0.231,0.7341,-0.2556,0.961,-0.2266,1.9459,-0.2803,1.6389,-0.0093,0.4288,0.0889,1.6745,0.0767
2.0896,-0.0474,2.2917,0.2698,0.7333,-0.244,0.9886,-0.2364,1.9669,-0.2877,1.6176,-0.0067,0.3802,0.0968,1.6911,0.0618
2.0896,-0.0474,2.2917,0.2698,0.7333,-0.244,0.9886,-0.2364,1.9669,-0.2877,1.6176,-0.0067,0.3802,0.0968,1.6911,0.0618
2.097,-0.0417,2.2738,0.2957,0.7394,-0.2423,1.0162,-0.2461,1.9481,-0.272,1.6093,-0.0087,0.3204,0.09,1.7132,0.048
2.097,-0.0417,2.2738,0.2957,0.7394,-0.2423,1.0162,-0.2461,1.9481,-0.272,1.6093,-0.0087,0.3204,0.09,1.7132,0.048
2.1018,-0.0324,2.2568,0.3115,0.7324,-0.2323,1.0438,-0.2559,1.9167,-0.2381,1.6047,-0.0021,0.2806,0.0854,1.76,0.0254
2.1018,-0.0324,2.2568,0.3115,0.7324,-0.2323,1.0438,-0.2559,1.9167,-0.2381,1.6047,-0.0021,0.2806,0.0854,1.76,0.0254
2.1017,-0.0241,2.2538,0.3158,0.7455,-0.2407,1.0488,-0.263,1.8601,-0.1907,1.5964,-0.0041,0.2495,0.0685,1.7821,0.0115
2.1017,-0.0241,2.2538,0.3158,0.7455,-0.2407,1.0488,-0.263,1.8601,-0.1907,1.5964,-0.0041,0.2495,0.0685,1.7821,0.0115
2.1115,-0.0221,2.2618,0.313,0.7936,-0.2577,1.0764,-0.2728,1.8181,-0.153,1.6047,-0.0021,0.2863,0.0462,1.7738,0.0145
2.1216,-0.0284,2.2727,0.3059,0.8488,-0.2848,1.0764,-0.2728,1.7889,-0.1564,1.6009,-0.0107,0.3005,-0.005,1.727,0.028
2.1216,-0.0284,2.2727,0.3059,0.8488,-0.2848,1.0764,-0.2728,1.7889,-0.1564,1.6009,-0.0107,0.3005,-0.005,1.727,0.028
2.1166,-0.0294,2.2867,0.2944,0.8592,-0.2998,1.0676,-0.275,1.7432,-0.1814,1.6023,-0.0407,0.1875,-0.0571,1.653,0.0451
2.1166,-0.0294,2.2867,0.2944,0.8592,-0.2998,1.0676,-0.275,1.7432,-0.1814,1.6023,-0.0407,0.1875,-0.0571,1.653,0.0451
2.1166,-0.0294,2.2867,0.2944,0.8592,-0.2998,1.0676,-0.275,1.7432,-0.1814,1.6023,-0.0407,0.1875,-0.0571,1.653,0.0451
2.1018,-0.0324,2.2987,0.2772,0.8311,-0.3012,1.0498,-0.2796,1.6749,-0.2073,1.5998,-0.0792,0.0671,-0.0968,1.5793,0.053
2.1018,-0.0324,2.2987,0.2772,0.8311,-0.3012,1.0498,-0.2796,1.6749,-0.2073,1.5998,-0.0792,0.0671,-0.0968,1.5793,0.053
2.1018,-0.0324,2.2987,0.2772,0.8311,-0.3012,1.0498,-0.2796,1.6749,-0.2073,1.5998,-0.0792,0.0671,-0.0968,1.5793,0.053
2.0795,-0.0328,2.2838,0.2726,0.7611,-0.2841,1.0282,-0.2935,1.6378,-0.2214,1.6564,-0.1188,0.0254,-0.1275,1.5331,0.0573
2.0795,-0.0328,2.2838,0.2726,0.7611,-0.2841,1.0282,-0.2935,1.6378,-0.2214,1.6564,-0.1188,0.0254,-0.1275,1.5331,0.0573
2.0671,-0.0312,2.2769,0.2653,0.6966,-0.2537,0.9968,-0.2931,1.6296,-0.2321,1.6951,-0.1324,-0.0024,-0.1177,1.5115,0.0529
2.0671,-0.0312,2.2769,0.2653,0.6966,-0.2537,0.9968,-0.2931,1.6296,-0.2321,1.6951,-0.1324,-0.0024,-0.1177,1.5115,0.0529
2.0971,-0.05,2.2541,0.2636,0.5905,-0.2049,0.9478,-0.2973,1.6523,-0.231,1.6765,-0.0915,0.042,-0.0605,1.4953,0.0497
2.0971,-0.05,2.2541,0.2636,0.5905,-0.2049,0.9478,-0.2973,1.6523,-0.231,1.6765,-0.0915,0.042,-0.0605,1.4953,0.0497
2.1146,-0.059,2.2353,0.2735,0.5533,-0.2031,0.939,-0.2996,1.673,-0.2384,1.6274,-0.0348,0.0726,-0.044,1.4845,0.0475
2.1146,-0.059,2.2353,0.2735,0.5533,-0.2031,0.939,-0.2996,1.673,-0.2384,1.6274,-0.0348,0.0726,-0.044,1.4845,0.0475
2.1146,-0.059,2.2353,0.2735,0.5533,-0.2031,0.939,-0.2996,1.673,-0.2384,1.6274,-0.0348,0.0726,-0.044,1.4845,0.0475
2.1072,-0.0646,2.2175,0.2733,0.511,-0.2146,0.9675,-0.3257,1.6896,-0.2397,1.5699,0.0201,0.1202,-0.0516,1.4872,0.0435
2.1072,-0.0646,2.2175,0.2733,0.511,-0.2146,0.9675,-0.3257,1.6896,-0.2397,1.5699,0.0201,0.1202,-0.0516,1.4872,0.0435
2.0873,-0.0604,2.1997,0.273,0.4818,-0.2344,1.0372,-0.3665,1.6896,-0.2397,1.526,0.0554,0.1286,-0.0637,1.4955,0.0316
2.0873,-0.0604,2.1997,0.273,0.4818,-0.2344,1.0372,-0.3665,1.6896,-0.2397,1.526,0.0554,0.1286,-0.0637,1.4955,0.0316
2.0599,-0.0452,2.1948,0.2715,0.4741,-0.2542,1.1071,-0.4072,1.6792,-0.236,1.5048,0.0579,0.137,-0.0758,1.5147,0.0128
2.0226,-0.0237,2.185,0.2685,0.4758,-0.2774,1.108,-0.4235,1.6647,-0.2264,1.4965,0.0559,0.2295,-0.1177,1.5283,0.002
2.0226,-0.0237,2.185,0.2685,0.4758,-0.2774,1.108,-0.4235,1.6647,-0.2264,1.4965,0.0559,0.2295,-0.1177,1.5283,0.002
2.0226,-0.0237,2.185,0.2685,0.4758,-0.2774,1.108,-0.4235,1.6647,-0.2264,1.4965,0.0559,0.2295,-0.1177,1.5283,0.002
2.0226,-0.0237,2.185,0.2685,0.4758,-0.2774,1.108,-0.4235,1.6647,-0.2264,1.4965,0.0559,0.2295,-0.1177,1.5283,0.002
1.9852,-0.0023,2.1643,0.2726,0.4776,-0.3005,1.0676,-0.4253,1.6378,-0.2214,1.4799,0.0518,0.3224,-0.1596,1.5284,-0.007
1.9852,-0.0023,2.1643,0.2726,0.4776,-0.3005,1.0676,-0.4253,1.6378,-0.2214,1.4799,0.0518,0.3224,-0.1596,1.5284,-0.007
1.9852,-0.0023,2.1643,0.2726,0.4776,-0.3005,1.0676,-0.4253,1.6378,-0.2214,1.4799,0.0518,0.3224,-0.1596,1.5284,-0.007
1.9258,0.0187,2.1259,0.2764,0.4458,-0.3266,0.8993,-0.3765,1.5945,-0.2151,1.4678,0.0413,0.6428,-0.2819,1.5177,-0.0182
1.9258,0.0187,2.1259,0.2764,0.4458,-0.3266,0.8993,-0.3765,1.5945,-0.2151,1.4678,0.0413,0.6428,-0.2819,1.5177,-0.0182
1.9038,0.0183,2.1083,0.2761,0.4124,-0.3298,0.8176,-0.3476,1.5719,-0.2162,1.4513,0.0373,0.7454,-0.3364,1.4906,-0.0146
1.8868,0.0105,2.0906,0.2759,0.3732,-0.3345,0.7312,-0.3117,1.5474,-0.2256,1.4137,0.0358,0.7991,-0.3827,1.4529,-0.0132
1.8868,0.0105,2.0906,0.2759,0.3732,-0.3345,0.7312,-0.3117,1.5474,-0.2256,1.4137,0.0358,0.7991,-0.3827,1.4529,-0.0132
1.8868,0.0105,2.0906,0.2759,0.3732,-0.3345,0.7312,-0.3117,1.5474,-0.2256,1.4137,0.0358,0.7991,-0.3827,1.4529,-0.0132
1.8626,-0.0029,2.0711,0.2698,0.3246,-0.3359,0.645,-0.276,1.529,-0.2327,1.3889,0.0297,0.7955,-0.4086,1.4097,-0.0039
1.8626,-0.0029,2.0711,0.2698,0.3246,-0.3359,0.645,-0.276,1.529,-0.2327,1.3889,0.0297,0.7955,-0.4086,1.4097,-0.0039
1.8362,-0.021,2.0575,0.2552,0.2585,-0.3423,0.5371,-0.2378,1.4901,-0.2324,1.3642,0.0237,0.6491,-0.3841,1.3666,0.0054
1.8362,-0.021,2.0575,0.2552,0.2585,-0.3423,0.5371,-0.2378,1.4901,-0.2324,1.3642,0.0237,0.6491,-0.3841,1.3666,0.0054
1.7903,-0.0349,2.0421,0.2348,0.1774,-0.347,0.4359,-0.2234,1.4718,-0.2395,1.3523,0.0132,0.4673,-0.3379,1.3236,0.0146
1.7903,-0.0349,2.0421,0.2348,0.1774,-0.347,0.4359,-0.2234,1.4718,-0.2395,1.3523,0.0132,0.4673,-0.3379,1.3236,0.0146
1.7468,-0.0441,2.0393,0.2132,0.0992,-0.3452,0.3632,-0.2349,1.4554,-0.2382,1.3605,0.0152,0.2819,-0.2543,1.2994,0.0231
1.7468,-0.0441,2.0393,0.2132,0.0992,-0.3452,0.3632,-0.2349,1.4554,-0.2382,1.3605,0.0152,0.2819,-0.2543,1.2994,0.0231
1.7131,-0.0513,2.0493,0.1904,0.0389,-0.3387,0.3089,-0.2581,1.4493,-0.2406,1.3733,0.0107,0.1172,-0.169,1.278,0.0277
1.6987,-0.0543,2.063,0.1791,0.0079,-0.324,0.3199,-0.2884,1.4535,-0.2465,1.3905,-0.0003,-0.0718,-0.0477,1.2647,0.0295
1.6987,-0.0543,2.063,0.1791,0.0079,-0.324,0.3199,-0.2884,1.4535,-0.2465,1.3905,-0.0003,-0.0718,-0.0477,1.2647,0.0295
1.6987,-0.0543,2.063,0.1791,0.0079,-0.324,0.3199,-0.2884,1.4535,-0.2465,1.3905,-0.0003,-0.0718,-0.0477,1.2647,0.0295
1.7131,-0.0513,2.0981,0.1796,0.0336,-0.311,0.3646,-0.3095,1.4842,-0.2574,1.416,-0.0093,-0.1498,0.0346,1.27,0.0306
1.7131,-0.0513,2.0981,0.1796,0.0336,-0.311,0.3646,-0.3095,1.4842,-0.2574,1.416,-0.0093,-0.1498,0.0346,1.27,0.0306
1.759,-0.0457,2.1215,0.1971,0.0979,-0.293,0.4385,-0.3145,1.5949,-0.283,1.4408,-0.0033,-0.1534,0.1001,1.3127,0.0304
1.8416,-0.0448,2.138,0.2332,0.2013,-0.2701,0.5603,-0.3152,1.7187,-0.3042,1.4784,-0.0019,-0.0759,0.1095,1.3635,0.0363
1.8416,-0.0448,2.138,0.2332,0.2013,-0.2701,0.5603,-0.3152,1.7187,-0.3042,1.4784,-0.0019,-0.0759,0.1095,1.3635,0.0363
1.9293,-0.0347,2.1711,0.2799,0.3421,-0.2489,0.7176,-0.3069,1.8246,-0.31,1.5154,0.0146,0.0469,0.0846,1.4549,0.0369
1.9293,-0.0347,2.1711,0.2799,0.3421,-0.2489,0.7176,-0.3069,1.8246,-0.31,1.5154,0.0146,0.0469,0.0846,1.4549,0.0369
1.9293,-0.0347,2.1711,0.2799,0.3421,-0.2489,0.7176,-0.3069,1.8246,-0.31,1.5154,0.0146,0.0469,0.0846,1.4549,0.0369
2.0103,-0.0304,2.1974,0.3194,0.4568,-0.2293,0.8579,-0.287,1.8747,-0.2915,1.5615,0.018,0.1423,0.0694,1.5714,0.0288
2.0103,-0.0304,2.1974,0.3194,0.4568,-0.2293,0.8579,-0.287,1.8747,-0.2915,1.5615,0.018,0.1423,0.0694,1.5714,0.0288
2.0103,-0.0304,2.1974,0.3194,0.4568,-0.2293,0.8579,-0.287,1.8747,-0.2915,1.5615,0.018,0.1423,0.0694,1.5714,0.0288
2.0718,-0.0135,2.2438,0.339,0.5758,-0.2148,0.9682,-0.2669,1.8936,-0.2391,1.6117,0.03,0.258,0.0563,1.6805,0.0233
2.0718,-0.0135,2.2438,0.339,0.5758,-0.2148,0.9682,-0.2669,1.8936,-0.2391,1.6117,0.03,0.258,0.0563,1.6805,0.0233
2.1581,0.0168,2.3191,0.3517,0.8035,-0.2194,1.1227,-0.2188,1.862,-0.1365,1.6399,0.0597,0.4601,0.0127,1.7846,0.0439
2.1581,0.0168,2.3191,0.3517,0.8035,-0.2194,1.1227,-0.2188,1.862,-0.1365,1.6399,0.0597,0.4601,0.0127,1.7846,0.0439
2.1581,0.0168,2.3191,0.3517,0.8035,-0.2194,1.1227,-0.2188,1.862,-0.1365,1.6399,0.0597,0.4601,0.0127,1.7846,0.0439
2.183,0.0219,2.3371,0.3519,0.88,-0.235,1.1306,-0.1998,1.8578,-0.1304,1.6528,0.0552,0.5057,-0.022,1.7762,0.0741
2.183,0.0219,2.3371,0.3519,0.88,-0.235,1.1306,-0.1998,1.8578,-0.1304,1.6528,0.0552,0.5057,-0.022,1.7762,0.0741
2.2004,0.0213,2.369,0.3406,0.9117,-0.2387,1.1623,-0.2001,1.8432,-0.1436,1.6879,0.0328,0.4826,-0.0509,1.7457,0.1001
2.2179,0.0207,2.4011,0.3293,0.9047,-0.2286,1.1763,-0.2051,1.8391,-0.1604,1.7535,-0.0052,0.471,-0.0653,1.7263,0.1099
2.2179,0.0207,2.4011,0.3293,0.9047,-0.2286,1.1763,-0.2051,1.8391,-0.1604,1.7535,-0.0052,0.471,-0.0653,1.7263,0.1099
2.2179,0.0207,2.4011,0.3293,0.9047,-0.2286,1.1763,-0.2051,1.8391,-0.1604,1.7535,-0.0052,0.471,-0.0653,1.7263,0.1099
2.2254,0.018,2.4331,0.318,0.8748,-0.2066,1.1813,-0.2123,1.8621,-0.1823,1.8407,-0.0459,0.4425,-0.0552,1.7291,0.1059
2.2254,0.018,2.4331,0.318,0.8748,-0.2066,1.1813,-0.2123,1.8621,-0.1823,1.8407,-0.0459,0.4425,-0.0552,1.7291,0.1059
2.2254,0.018,2.4331,0.318,0.8748,-0.2066,1.1813,-0.2123,1.8621,-0.1823,1.8407,-0.0459,0.4425,-0.0552,1.7291,0.1059
2.2254,0.018,2.4331,0.318,0.8748,-0.2066,1.1813,-0.2123,1.8621,-0.1823,1.8407,-0.0459,0.4425,-0.0552,1.7291,0.1059
2.2733,-0.0017,2.4743,0.2936,0.8124,-0.1693,1.1634,-0.2168,1.9461,-0.212,1.9145,-0.0671,0.4941,-0.0364,1.7513,0.0829
2.2733,-0.0017,2.4743,0.2936,0.8124,-0.1693,1.1634,-0.2168,1.9461,-0.212,1.9145,-0.0671,0.4941,-0.0364,1.7513,0.0829
2.3035,-0.0124,2.4663,0.2964,0.7843,-0.1708,1.1595,-0.2263,1.9671,-0.2194,1.8832,-0.0362,0.5343,-0.0321,1.7514,0.0738
2.3035,-0.0124,2.4663,0.2964,0.7843,-0.1708,1.1595,-0.2263,1.9671,-0.2194,1.8832,-0.0362,0.5343,-0.0321,1.7514,0.0738
2.3161,-0.0224,2.4532,0.2978,0.7667,-0.1874,1.1605,-0.2429,1.9776,-0.2231,1.8251,0.0192,0.5545,-0.0299,1.757,0.0658
2.3161,-0.0224,2.4532,0.2978,0.7667,-0.1874,1.1605,-0.2429,1.9776,-0.2231,1.8251,0.0192,0.5545,-0.0299,1.757,0.0658
2.3085,-0.0113,2.4442,0.3108,0.7518,-0.1974,1.2073,-0.2649,1.965,-0.2049,1.7807,0.0548,0.5374,-0.0053,1.7708,0.0548
2.3085,-0.0113,2.4442,0.3108,0.7518,-0.1974,1.2073,-0.2649,1.965,-0.2049,1.7807,0.0548,0.5374,-0.0053,1.7708,0.0548
2.2832,0.0087,2.4442,0.3108,0.7404,-0.2123,1.2591,-0.294,1.9503,-0.1952,1.7546,0.064,0.5289,0.007,1.7791,0.0428
2.2832,0.0087,2.4442,0.3108,0.7404,-0.2123,1.2591,-0.294,1.9503,-0.1952,1.7546,0.064,0.5289,0.007,1.7791,0.0428
2.2551,0.0409,2.4381,0.3195,0.7377,-0.219,1.3059,-0.316,1.9314,-0.1793,1.7331,0.0666,0.5863,-0.0133,1.793,0.0318
2.2551,0.0409,2.4381,0.3195,0.7377,-0.219,1.3059,-0.316,1.9314,-0.1793,1.7331,0.0666,0.5863,-0.0133,1.793,0.0318
2.2372,0.0667,2.4482,0.3225,0.7508,-0.2274,1.3199,-0.321,1.9272,-0.1732,1.7247,0.0646,0.6931,-0.0417,1.7985,0.0238
2.2372,0.0667,2.4482,0.3225,0.7508,-0.2274,1.3199,-0.321,1.9272,-0.1732,1.7247,0.0646,0.6931,-0.0417,1.7985,0.0238
2.2245,0.0768,2.4401,0.3254,0.7674,-0.2409,1.3059,-0.316,1.9335,-0.1709,1.7377,0.06,0.9167,-0.1114,1.8013,0.0198
2.2245,0.0768,2.4401,0.3254,0.7674,-0.2409,1.3059,-0.316,1.9335,-0.1709,1.7377,0.06,0.9167,-0.1114,1.8013,0.0198
2.217,0.0794,2.4371,0.3297,0.784,-0.2543,1.2591,-0.294,1.9398,-0.1685,1.7507,0.0554,1.172,-0.1923,1.8124,0.0129
2.217,0.0794,2.4371,0.3297,0.784,-0.2543,1.2591,-0.294,1.9398,-0.1685,1.7507,0.0554,1.172,-0.1923,1.8124,0.0129
2.2171,0.071,2.4271,0.3267,0.7979,-0.2744,1.2172,-0.2792,1.944,-0.1746,1.7507,0.0554,1.3495,-0.255,1.8096,0.0078
2.2171,0.071,2.4271,0.3267,0.7979,-0.2744,1.2172,-0.2792,1.944,-0.1746,1.7507,0.0554,1.3495,-0.255,1.8096,0.0078
2.2171,0.071,2.4271,0.3267,0.7979,-0.2744,1.2172,-0.2792,1.944,-0.1746,1.7507,0.0554,1.3495,-0.255,1.8096,0.0078
2.2099,0.0569,2.4171,0.3237,0.783,-0.2842,1.1476,-0.2547,1.9314,-0.1793,1.7553,0.0488,1.4644,-0.3236,1.7958,0.0097
2.2099,0.0569,2.4171,0.3237,0.783,-0.2842,1.1476,-0.2547,1.9314,-0.1793,1.7553,0.0488,1.4644,-0.3236,1.7958,0.0097
2.2099,0.0569,2.4171,0.3237,0.783,-0.2842,1.1476,-0.2547,1.9314,-0.1793,1.7553,0.0488,1.4644,-0.3236,1.7958,0.0097
2.1556,0.0205,2.3842,0.2927,0.7015,-0.3233,0.9324,-0.2003,1.8873,-0.1958,1.7782,0.0158,1.3333,-0.3607,1.7381,0.012
2.1556,0.0205,2.3842,0.2927,0.7015,-0.3233,0.9324,-0.2003,1.8873,-0.1958,1.7782,0.0158,1.3333,-0.3607,1.7381,0.012
2.1236,0.0013,2.3763,0.2693,0.638,-0.3459,0.8286,-0.1852,1.8412,-0.1978,1.7788,0.0007,1.1906,-0.3472,1.708,0.0106
2.1236,0.0013,2.3763,0.2693,0.638,-0.3459,0.8286,-0.1852,1.8412,-0.1978,1.7788,0.0007,1.1906,-0.3472,1.708,0.0106
2.0816,-0.0115,2.3654,0.2503,0.5713,-0.3635,0.7267,-0.187,1.7995,-0.2058,1.758,-0.0118,0.9618,-0.3031,1.6724,0.0081
2.0816,-0.0115,2.3654,0.2503,0.5713,-0.3635,0.7267,-0.187,1.7995,-0.2058,1.758,-0.0118,0.9618,-0.3031,1.6724,0.0081
2.0422,-0.0196,2.3753,0.2273,0.5041,-0.3696,0.6612,-0.1961,1.7641,-0.2115,1.7373,-0.0243,0.7644,-0.2701,1.6315,0.0045
2.0422,-0.0196,2.3753,0.2273,0.5041,-0.3696,0.6612,-0.1961,1.7641,-0.2115,1.7373,-0.0243,0.7644,-0.2701,1.6315,0.0045
2.0176,-0.0247,2.3873,0.21,0.4458,-0.3676,0.6279,-0.2218,1.7455,-0.2186,1.7074,-0.0236,0.5756,-0.185,1.6098,0.0002
2.0176,-0.0247,2.3873,0.21,0.4458,-0.3676,0.6279,-0.2218,1.7455,-0.2186,1.7074,-0.0236,0.5756,-0.185,1.6098,0.0002
2.0102,-0.0221,2.3923,0.2115,0.4107,-0.3478,0.6475,-0.2502,1.7538,-0.2306,1.6861,-0.021,0.3826,-0.0617,1.5744,0.0067
2.0102,-0.0221,2.3923,0.2115,0.4107,-0.3478,0.6475,-0.2502,1.7538,-0.2306,1.6861,-0.021,0.3826,-0.0617,1.5744,0.0067
2.0102,-0.0221,2.3923,0.2115,0.4107,-0.3478,0.6475,-0.2502,1.7538,-0.2306,1.6861,-0.021,0.3826,-0.0617,1.5744,0.0067
2.02,-0.0201,2.3833,0.2244,0.3911,-0.3297,0.6574,-0.2643,1.7996,-0.2513,1.6557,-0.0053,0.275,0.0317,1.5554,0.0074
2.0324,-0.0217,2.3554,0.2473,0.368,-0.3066,0.6807,-0.2832,1.8663,-0.2795,1.6246,0.0255,0.2126,0.0908,1.5336,0.0121
2.0471,-0.0186,2.3235,0.2847,0.3611,-0.2967,0.6856,-0.2903,1.9018,-0.2965,1.598,0.0497,0.1929,0.0885,1.5174,0.0088
2.0471,-0.0186,2.3235,0.2847,0.3611,-0.2967,0.6856,-0.2903,1.9018,-0.2965,1.598,0.0497,0.1929,0.0885,1.5174,0.0088
2.0621,-0.0239,2.2865,0.3206,0.3423,-0.2901,0.6954,-0.3044,1.9165,-0.3062,1.5631,0.072,0.2269,0.0395,1.5148,0.0038
2.0621,-0.0239,2.2865,0.3206,0.3423,-0.2901,0.6954,-0.3044,1.9165,-0.3062,1.5631,0.072,0.2269,0.0395,1.5148,0.0038
2.0621,-0.0239,2.2865,0.3206,0.3423,-0.2901,0.6954,-0.3044,1.9165,-0.3062,1.5631,0.072,0.2269,0.0395,1.5148,0.0038
2.0621,-0.0239,2.2476,0.3507,0.3304,-0.2933,0.7003,-0.3115,1.906,-0.3025,1.5502,0.0765,0.2326,0.0005,1.5447,-0.0128
2.0621,-0.0239,2.2476,0.3507,0.3304,-0.2933,0.7003,-0.3115,1.906,-0.3025,1.5502,0.0765,0.2326,0.0005,1.5447,-0.0128
2.0646,-0.0275,2.2227,0.3694,0.3185,-0.2966,0.7323,-0.3281,1.8538,-0.2841,1.5335,0.0725,0.2298,-0.0261,1.5829,-0.0322
2.0646,-0.0275,2.2227,0.3694,0.3185,-0.2966,0.7323,-0.3281,1.8538,-0.2841,1.5335,0.0725,0.2298,-0.0261,1.5829,-0.0322
2.0398,-0.0243,2.2079,0.3648,0.2947,-0.3031,0.742,-0.3422,1.7996,-0.2513,1.5381,0.0659,0.2353,-0.0648,1.6184,-0.0567
2.0398,-0.0243,2.2079,0.3648,0.2947,-0.3031,0.742,-0.3422,1.7996,-0.2513,1.5381,0.0659,0.2353,-0.0648,1.6184,-0.0567
2.0275,-0.0227,2.212,0.3502,0.2922,-0.3096,0.7518,-0.3563,1.7351,-0.2149,1.5343,0.0574,0.2606,-0.1012,1.643,-0.0744
2.0275,-0.0227,2.212,0.3502,0.2922,-0.3096,0.7518,-0.3563,1.7351,-0.2149,1.5343,0.0574,0.2606,-0.1012,1.643,-0.0744
2.0028,-0.0195,2.2032,0.337,0.2838,-0.3178,0.7665,-0.3774,1.6706,-0.1785,1.5305,0.0488,0.2774,-0.1254,1.6348,-0.0805
2.0028,-0.0195,2.2032,0.337,0.2838,-0.3178,0.7665,-0.3774,1.6706,-0.1785,1.5305,0.0488,0.2774,-0.1254,1.6348,-0.0805
1.983,-0.0152,2.1944,0.3238,0.294,-0.3326,0.754,-0.3889,1.6312,-0.1555,1.5396,0.0357,0.3704,-0.1674,1.6049,-0.0729
1.983,-0.0152,2.1944,0.3238,0.294,-0.3326,0.754,-0.3889,1.6312,-0.1555,1.5396,0.0357,0.3704,-0.1674,1.6049,-0.0729
1.9509,-0.0094,2.1748,0.3177,0.3077,-0.3522,0.7107,-0.4001,1.5878,-0.1492,1.5101,0.0362,0.3673,-0.1937,1.5451,-0.0577
1.9509,-0.0094,2.1748,0.3177,0.3077,-0.3522,0.7107,-0.4001,1.5878,-0.1492,1.5101,0.0362,0.3673,-0.1937,1.5451,-0.0577
1.9289,-0.0099,2.1581,0.3073,0.3213,-0.3719,0.6713,-0.402,1.557,-0.1611,1.4897,0.0237,0.3162,-0.2121,1.4638,-0.029
1.8971,-0.0124,2.1385,0.3012,0.3069,-0.3816,0.5955,-0.3805,1.5163,-0.192,1.4528,0.0072,0.1701,-0.2148,1.3774,-0.0015
1.8971,-0.0124,2.1385,0.3012,0.3069,-0.3816,0.5955,-0.3805,1.5163,-0.192,1.4528,0.0072,0.1701,-0.2148,1.3774,-0.0015
1.8971,-0.0124,2.1385,0.3012,0.3069,-0.3816,0.5955,-0.3805,1.5163,-0.192,1.4528,0.0072,0.1701,-0.2148,1.3774,-0.0015
1.8848,-0.0108,2.1415,0.2969,0.2873,-0.3636,0.5638,-0.364,1.4715,-0.2169,1.4543,-0.0229,-0.0107,-0.1961,1.313,0.0124
1.8848,-0.0108,2.1415,0.2969,0.2873,-0.3636,0.5638,-0.364,1.4715,-0.2169,1.4543,-0.0229,-0.0107,-0.1961,1.313,0.0124
1.8944,-0.0004,2.1739,0.3017,0.2991,-0.3195,0.5969,-0.3387,1.4615,-0.2359,1.4979,-0.0579,-0.1486,-0.1474,1.3022,0.0192
1.8944,-0.0004,2.1739,0.3017,0.2991,-0.3195,0.5969,-0.3387,1.4615,-0.2359,1.4979,-0.0579,-0.1486,-0.1474,1.3022,0.0192
1.8944,-0.0004,2.1739,0.3017,0.2991,-0.3195,0.5969,-0.3387,1.4615,-0.2359,1.4979,-0.0579,-0.1486,-0.1474,1.3022,0.0192
1.9309,0.0114,2.2212,0.311,0.3465,-0.2654,0.6609,-0.3135,1.4881,-0.2408,1.5575,-0.074,-0.1626,-0.0973,1.3395,0.0269
1.9873,0.0191,2.2816,0.3191,0.4215,-0.2093,0.756,-0.2885,1.5392,-0.2363,1.6294,-0.0798,-0.1381,-0.0424,1.4066,0.0271
1.9873,0.0191,2.2816,0.3191,0.4215,-0.2093,0.756,-0.2885,1.5392,-0.2363,1.6294,-0.0798,-0.1381,-0.0424,1.4066,0.0271
2.0463,0.0314,2.3392,0.3315,0.5004,-0.1579,0.8793,-0.2731,1.6132,-0.2308,1.71,-0.0837,-0.0582,-0.0069,1.4847,0.0294
2.0463,0.0314,2.3392,0.3315,0.5004,-0.1579,0.8793,-0.2731,1.6132,-0.2308,1.71,-0.0837,-0.0582,-0.0069,1.4847,0.0294
2.1106,0.0364,2.4,0.3395,0.5772,-0.1128,0.9759,-0.2481,1.6895,-0.217,1.7904,-0.0727,0.0977,0.0114,1.5741,0.0338
2.1106,0.0364,2.4,0.3395,0.5772,-0.1128,0.9759,-0.2481,1.6895,-0.217,1.7904,-0.0727,0.0977,0.0114,1.5741,0.0338
2.1106,0.0364,2.4,0.3395,0.5772,-0.1128,0.9759,-0.2481,1.6895,-0.217,1.7904,-0.0727,0.0977,0.0114,1.5741,0.0338
2.1852,0.035,2.4481,0.3489,0.6432,-0.0827,1.0605,-0.2347,1.76,-0.2055,1.8192,-0.0433,0.2241,0.0127,1.6503,0.04
2.1852,0.035,2.4481,0.3489,0.6432,-0.0827,1.0605,-0.2347,1.76,-0.2055,1.8192,-0.0433,0.2241,0.0127,1.6503,0.04
2.2604,0.0251,2.4842,0.3493,0.6921,-0.0693,1.1138,-0.221,1.835,-0.2001,1.8264,-0.0111,0.3686,-0.0106,1.7159,0.044
2.2604,0.0251,2.4842,0.3493,0.6921,-0.0693,1.1138,-0.221,1.835,-0.2001,1.8264,-0.0111,0.3686,-0.0106,1.7159,0.044
2.3713,-0.0029,2.5225,0.3556,0.7825,-0.1051,1.1863,-0.2195,1.9734,-0.2171,1.7831,0.0938,0.5599,-0.0689,1.815,0.0453
2.3713,-0.0029,2.5225,0.3556,0.7825,-0.1051,1.1863,-0.2195,1.9734,-0.2171,1.7831,0.0938,0.5599,-0.0689,1.815,0.0453
2.3865,-0.0083,2.5356,0.3542,0.8195,-0.1374,1.2421,-0.2392,2.0114,-0.2259,1.764,0.1357,0.6173,-0.0892,1.8564,0.0397
2.3865,-0.0083,2.5356,0.3542,0.8195,-0.1374,1.2421,-0.2392,2.0114,-0.2259,1.764,0.1357,0.6173,-0.0892,1.8564,0.0397
2.3865,-0.0083,2.5356,0.3542,0.8195,-0.1374,1.2421,-0.2392,2.0114,-0.2259,1.764,0.1357,0.6173,-0.0892,1.8564,0.0397
2.3839,-0.0046,2.5457,0.3573,0.8336,-0.1576,1.3071,-0.2567,2.0494,-0.2347,1.7363,0.1756,0.6088,-0.0769,1.8952,0.029
2.3839,-0.0046,2.5457,0.3573,0.8336,-0.1576,1.3071,-0.2567,2.0494,-0.2347,1.7363,0.1756,0.6088,-0.0769,1.8952,0.029
2.3839,-0.0046,2.5457,0.3573,0.8336,-0.1576,1.3071,-0.2567,2.0494,-0.2347,1.7363,0.1756,0.6088,-0.0769,1.8952,0.029
2.3611,0.0034,2.5427,0.3617,0.8379,-0.1744,1.3773,-0.2815,2.043,-0.2371,1.7317,0.1822,0.6173,-0.0892,1.898,0.025
2.3256,0.0299,2.5477,0.3632,0.8194,-0.1794,1.4477,-0.3064,2.0325,-0.2333,1.7279,0.1735,0.6173,-0.0892,1.8952,0.0199
2.3256,0.0299,2.5477,0.3632,0.8194,-0.1794,1.4477,-0.3064,2.0325,-0.2333,1.7279,0.1735,0.6173,-0.0892,1.8952,0.0199
2.2825,0.0591,2.5427,0.3617,0.8045,-0.1893,1.4577,-0.3208,2.0093,-0.2114,1.7333,0.1515,0.6663,-0.0973,1.8842,0.0178
2.2825,0.0591,2.5427,0.3617,0.8045,-0.1893,1.4577,-0.3208,2.0093,-0.2114,1.7333,0.1515,0.6663,-0.0973,1.8842,0.0178
2.2825,0.0591,2.5427,0.3617,0.8045,-0.1893,1.4577,-0.3208,2.0093,-0.2114,1.7333,0.1515,0.6663,-0.0973,1.8842,0.0178
2.2621,0.0803,2.5346,0.3645,0.7921,-0.1926,1.4295,-0.3108,1.9861,-0.1895,1.7471,0.1316,0.7646,-0.1135,1.8675,0.0237
2.2621,0.0803,2.5346,0.3645,0.7921,-0.1926,1.4295,-0.3108,1.9861,-0.1895,1.7471,0.1316,0.7646,-0.1135,1.8675,0.0237
2.2418,0.093,2.5215,0.3659,0.7833,-0.2009,1.3782,-0.2982,1.9777,-0.1773,1.7478,0.1163,0.8806,-0.1544,1.8565,0.0306
2.2418,0.093,2.5215,0.3659,0.7833,-0.2009,1.3782,-0.2982,1.9777,-0.1773,1.7478,0.1163,0.8806,-0.1544,1.8565,0.0306
2.2241,0.1021,2.5084,0.3672,0.7807,-0.2076,1.3171,-0.2711,1.9587,-0.1614,1.744,0.1077,0.9886,-0.1833,1.8509,0.0386
2.2193,0.0926,2.5064,0.3613,0.7815,-0.2193,1.2321,-0.2248,1.9587,-0.1614,1.7486,0.1011,1.1056,-0.2247,1.8315,0.0485
2.2193,0.0926,2.5064,0.3613,0.7815,-0.2193,1.2321,-0.2248,1.9587,-0.1614,1.7486,0.1011,1.1056,-0.2247,1.8315,0.0485
2.2171,0.071,2.4993,0.3539,0.7639,-0.2359,1.1334,-0.1736,1.9566,-0.1699,1.7363,0.0904,1.1019,-0.2512,1.8122,0.0493
2.2171,0.071,2.4993,0.3539,0.7639,-0.2359,1.1334,-0.1736,1.9566,-0.1699,1.7363,0.0904,1.1019,-0.2512,1.8122,0.0493
2.2025,0.0511,2.4983,0.3377,0.7437,-0.259,1.0399,-0.1296,1.9482,-0.1807,1.7324,0.0818,1.0603,-0.255,1.7929,0.05
2.2025,0.0511,2.4983,0.3377,0.7437,-0.259,1.0399,-0.1296,1.9482,-0.1807,1.7324,0.0818,1.0603,-0.255,1.7929,0.05
2.2025,0.0511,2.4983,0.3377,0.7437,-0.259,1.0399,-0.1296,1.9482,-0.1807,1.7324,0.0818,1.0603,-0.255,1.7929,0.05
2.1777,0.0376,2.4974,0.3216,0.7044,-0.2753,0.953,-0.1098,1.944,-0.1975,1.7155,0.0778,0.9401,-0.2402,1.7709,0.0457
2.1777,0.0376,2.4974,0.3216,0.7044,-0.2753,0.953,-0.1098,1.944,-0.1975,1.7155,0.0778,0.9401,-0.2402,1.7709,0.0457
2.1258,0.0143,2.5145,0.2794,0.6165,-0.3045,0.8188,-0.1114,1.9167,-0.2153,1.7338,0.0514,0.7257,-0.1829,1.738,0.0301
2.1258,0.0143,2.5145,0.2794,0.6165,-0.3045,0.8188,-0.1114,1.9167,-0.2153,1.7338,0.0514,0.7257,-0.1829,1.738,0.0301
2.1258,0.0143,2.5145,0.2794,0.6165,-0.3045,0.8188,-0.1114,1.9167,-0.2153,1.7338,0.0514,0.7257,-0.1829,1.738,0.0301
2.1185,0.0086,2.5396,0.2607,0.5792,-0.3027,0.8163,-0.1376,1.8978,-0.2223,1.7345,0.0362,0.562,-0.1343,1.7051,0.0236
2.1185,0.0086,2.5396,0.2607,0.5792,-0.3027,0.8163,-0.1376,1.8978,-0.2223,1.7345,0.0362,0.562,-0.1343,1.7051,0.0236
2.1136,0.0076,2.5617,0.2463,0.5542,-0.2976,0.81,-0.1732,1.8852,-0.227,1.7521,0.025,0.488,-0.0897,1.6887,0.0204
2.1136,0.0076,2.5617,0.2463,0.5542,-0.2976,0.81,-0.1732,1.8852,-0.227,1.7521,0.025,0.488,-0.0897,1.6887,0.0204
2.1311,-0.0013,2.5647,0.242,0.5257,-0.2875,0.8348,-0.209,1.8936,-0.2391,1.7697,0.0139,0.3771,-0.0228,1.6669,0.0161
2.1311,-0.0013,2.5647,0.242,0.5257,-0.2875,0.8348,-0.209,1.8936,-0.2391,1.7697,0.0139,0.3771,-0.0228,1.6669,0.0161
2.1311,-0.0013,2.5647,0.242,0.5257,-0.2875,0.8348,-0.209,1.8936,-0.2391,1.7697,0.0139,0.3771,-0.0228,1.6669,0.0161
2.166,-0.0109,2.5295,0.2577,0.4939,-0.2725,0.8743,-0.266,1.9229,-0.2585,1.7704,-0.0013,0.2948,0.034,1.6533,0.0088
2.166,-0.0109,2.5295,0.2577,0.4939,-0.2725,0.8743,-0.266,1.9229,-0.2585,1.7704,-0.0013,0.2948,0.034,1.6533,0.0088
2.166,-0.0109,2.5295,0.2577,0.4939,-0.2725,0.8743,-0.266,1.9229,-0.2585,1.7704,-0.0013,0.2948,0.034,1.6533,0.0088
2.1611,-0.0119,2.4472,0.3065,0.4595,-0.2641,0.8579,-0.287,2.0574,-0.3151,1.7405,-0.0006,0.1817,0.074,1.6097,0.0092
2.1611,-0.0119,2.4472,0.3065,0.4595,-0.2641,0.8579,-0.287,2.0574,-0.3151,1.7405,-0.0006,0.1817,0.074,1.6097,0.0092
2.1611,-0.0119,2.4472,0.3065,0.4595,-0.2641,0.8579,-0.287,2.0574,-0.3151,1.7405,-0.0006,0.1817,0.074,1.6097,0.0092
2.1386,-0.004,2.397,0.3439,0.438,-0.264,0.8492,-0.2893,2.1143,-0.3398,1.7229,0.0105,0.179,0.0472,1.5988,0.0071
2.1386,-0.004,2.397,0.3439,0.438,-0.264,0.8492,-0.2893,2.1143,-0.3398,1.7229,0.0105,0.179,0.0472,1.5988,0.0071
2.1111,0.0029,2.3559,0.3683,0.4012,-0.2622,0.8454,-0.2987,2.1121,-0.3481,1.6924,0.0263,0.1931,-0.004,1.5907,0.0009
2.0787,0.0172,2.3289,0.3811,0.3644,-0.2605,0.8415,-0.308,2.0657,-0.3272,1.6528,0.0552,0.1903,-0.0305,1.6208,-0.0157
2.0563,0.0251,2.322,0.3737,0.3499,-0.2703,0.8328,-0.3103,1.9901,-0.2868,1.6391,0.0749,0.1594,-0.0472,1.6454,-0.0334
2.0563,0.0251,2.322,0.3737,0.3499,-0.2703,0.8328,-0.3103,1.9901,-0.2868,1.6391,0.0749,0.1594,-0.0472,1.6454,-0.0334
2.0339,0.033,2.3181,0.3619,0.3508,-0.2819,0.8339,-0.3267,1.902,-0.2284,1.6345,0.0815,0.1482,-0.0615,1.6673,-0.0471
2.0339,0.033,2.3181,0.3619,0.3508,-0.2819,0.8339,-0.3267,1.902,-0.2284,1.6345,0.0815,0.1482,-0.0615,1.6673,-0.0471
2.0166,0.0336,2.3222,0.3474,0.3799,-0.3033,0.8116,-0.3241,1.8098,-0.1638,1.63,0.0881,0.137,-0.0758,1.6592,-0.0532
2.0166,0.0336,2.3222,0.3474,0.3799,-0.3033,0.8116,-0.3241,1.8098,-0.1638,1.63,0.0881,0.137,-0.0758,1.6592,-0.0532
2.0044,0.0268,2.3213,0.3313,0.3936,-0.3231,0.7757,-0.3168,1.7492,-0.1333,1.6087,0.0906,0.1902,-0.122,1.6292,-0.0456
2.0044,0.0268,2.3213,0.3313,0.3936,-0.3231,0.7757,-0.3168,1.7492,-0.1333,1.6087,0.0906,0.1902,-0.122,1.6292,-0.0456
1.9724,0.0243,2.3173,0.3196,0.3569,-0.3213,0.7312,-0.3117,1.6849,-0.1425,1.5927,0.0714,0.1368,-0.1668,1.5557,-0.0286
1.9724,0.0243,2.3173,0.3196,0.3569,-0.3213,0.7312,-0.3117,1.6849,-0.1425,1.5927,0.0714,0.1368,-0.1668,1.5557,-0.0286
1.9724,0.0243,2.3173,0.3196,0.3569,-0.3213,0.7312,-0.3117,1.6849,-0.1425,1.5927,0.0714,0.1368,-0.1668,1.5557,-0.0286
1.9504,0.0155,2.3035,0.3048,0.2888,-0.3047,0.6879,-0.3231,1.6334,-0.1699,1.62,0.032,0.0836,-0.2114,1.4799,-0.0168
1.9504,0.0155,2.3035,0.3048,0.2888,-0.3047,0.6879,-0.3231,1.6334,-0.1699,1.62,0.032,0.0836,-0.2114,1.4799,-0.0168
1.9235,0.0141,2.2837,0.2988,0.2073,-0.2684,0.635,-0.3203,1.6047,-0.1961,1.6686,-0.0099,0.0058,-0.22,1.4152,-0.0118
1.9235,0.0141,2.2837,0.2988,0.2073,-0.2684,0.635,-0.3203,1.6047,-0.1961,1.6686,-0.0099,0.0058,-0.22,1.4152,-0.0118
1.9188,0.0047,2.2579,0.3013,0.1352,-0.2355,0.5958,-0.3224,1.5884,-0.2175,1.6906,-0.0276,-0.0218,-0.2102,1.3803,-0.0144
1.9189,-0.0036,2.2321,0.3039,0.0819,-0.2092,0.5517,-0.3174,1.5967,-0.2295,1.699,-0.0256,-0.0466,-0.1744,1.3615,-0.0137
1.9189,-0.0036,2.2321,0.3039,0.0819,-0.2092,0.5517,-0.3174,1.5967,-0.2295,1.699,-0.0256,-0.0466,-0.1744,1.3615,-0.0137
1.9289,-0.0099,2.2103,0.3182,0.0506,-0.1945,0.5115,-0.3032,1.6008,-0.2355,1.6686,-0.0099,-0.0356,-0.1602,1.3428,-0.013
1.9289,-0.0099,2.2103,0.3182,0.0506,-0.1945,0.5115,-0.3032,1.6008,-0.2355,1.6686,-0.0099,-0.0356,-0.1602,1.3428,-0.013
1.9289,-0.0099,2.2103,0.3182,0.0506,-0.1945,0.5115,-0.3032,1.6008,-0.2355,1.6686,-0.0099,-0.0356,-0.1602,1.3428,-0.013
1.9585,-0.0203,2.2092,0.3283,0.0623,-0.1911,0.4932,-0.2915,1.6153,-0.2451,1.6337,0.0123,-0.0328,-0.1341,1.3375,-0.0141
1.9585,-0.0203,2.2092,0.3283,0.0623,-0.1911,0.4932,-0.2915,1.6153,-0.2451,1.6337,0.0123,-0.0328,-0.1341,1.3375,-0.0141
1.9585,-0.0203,2.2092,0.3283,0.0623,-0.1911,0.4932,-0.2915,1.6153,-0.2451,1.6337,0.0123,-0.0328,-0.1341,1.3375,-0.0141
2.0004,-0.0241,2.215,0.3459,0.1254,-0.191,0.5273,-0.2823,1.6421,-0.25,1.5942,0.0411,-0.0024,-0.1177,1.3454,-0.008
2.0004,-0.0241,2.215,0.3459,0.1254,-0.191,0.5273,-0.2823,1.6421,-0.25,1.5942,0.0411,-0.0024,-0.1177,1.3454,-0.008
2.0004,-0.0241,2.215,0.3459,0.1254,-0.191,0.5273,-0.2823,1.6421,-0.25,1.5942,0.0411,-0.0024,-0.1177,1.3454,-0.008
2.0422,-0.0196,2.2526,0.3523,0.2252,-0.1926,0.6143,-0.2758,1.671,-0.2467,1.5714,0.074,0.0282,-0.1012,1.3694,0.0014
2.0766,-0.0042,2.3081,0.3589,0.3529,-0.1926,0.7957,-0.2865,1.7269,-0.2483,1.5607,0.1175,0.1062,-0.0923,1.4122,0.0101
2.101,0.0176,2.3509,0.3668,0.4721,-0.1895,0.9703,-0.2999,1.7788,-0.244,1.5583,0.1633,0.165,-0.0857,1.4903,0.0124
2.101,0.0176,2.3509,0.3668,0.4721,-0.1895,0.9703,-0.2999,1.7788,-0.244,1.5583,0.1633,0.165,-0.0857,1.4903,0.0124
2.1154,0.0458,2.3969,0.3703,0.5862,-0.1882,1.0913,-0.2942,1.8434,-0.235,1.6085,0.1756,0.2917,-0.0847,1.5851,0.0179
2.1154,0.0458,2.3969,0.3703,0.5862,-0.1882,1.0913,-0.2942,1.8434,-0.235,1.6085,0.1756,0.2917,-0.0847,1.5851,0.0179
2.1151,0.0625,2.4199,0.372,0.667,-0.1902,1.1486,-0.2713,1.881,-0.221,1.6382,0.1751,0.4933,-0.1284,1.6614,0.015
2.1151,0.0625,2.4199,0.372,0.667,-0.1902,1.1486,-0.2713,1.881,-0.221,1.6382,0.1751,0.4933,-0.1284,1.6614,0.015
2.1149,0.0709,2.443,0.3738,0.7107,-0.1905,1.1366,-0.2237,1.9167,-0.2153,1.6773,0.1613,0.7714,-0.2174,1.7107,0.0157
2.1149,0.0709,2.443,0.3738,0.7107,-0.1905,1.1366,-0.2237,1.9167,-0.2153,1.6773,0.1613,0.7714,-0.2174,1.7107,0.0157
2.1026,0.0642,2.444,0.3635,0.7142,-0.1955,1.0789,-0.1706,1.9167,-0.2153,1.6911,0.1414,0.9243,-0.2807,1.7326,0.02
2.1026,0.0642,2.444,0.3635,0.7142,-0.1955,1.0789,-0.1706,1.9167,-0.2153,1.6911,0.1414,0.9243,-0.2807,1.7326,0.02
2.0879,0.0527,2.44,0.3517,0.6993,-0.2054,0.9995,-0.1317,1.9167,-0.2153,1.7003,0.1281,1.0283,-0.3358,1.738,0.0301
2.0879,0.0527,2.44,0.3517,0.6993,-0.2054,0.9995,-0.1317,1.9167,-0.2153,1.7003,0.1281,1.0283,-0.3358,1.738,0.0301
2.0879,0.0527,2.44,0.3517,0.6993,-0.2054,0.9995,-0.1317,1.9167,-0.2153,1.7003,0.1281,1.0283,-0.3358,1.738,0.0301
2.0583,0.0465,2.4391,0.3356,0.6688,-0.2136,0.9165,-0.1024,1.9062,-0.2116,1.7049,0.1215,1.0659,-0.3582,1.7434,0.0403
2.0583,0.0465,2.4391,0.3356,0.6688,-0.2136,0.9165,-0.1024,1.9062,-0.2116,1.7049,0.1215,1.0659,-0.3582,1.7434,0.0403
2.0583,0.0465,2.4391,0.3356,0.6688,-0.2136,0.9165,-0.1024,1.9062,-0.2116,1.7049,0.1215,1.0659,-0.3582,1.7434,0.0403
2.0583,0.0465,2.4391,0.3356,0.6688,-0.2136,0.9165,-0.1024,1.9062,-0.2116,1.7049,0.1215,1.0659,-0.3582,1.7434,0.0403
2.0289,0.032,2.4763,0.2995,0.5966,-0.2033,0.8513,-0.1283,1.8747,-0.2005,1.7486,0.1011,0.8291,-0.2378,1.7351,0.0523
2.0289,0.032,2.4763,0.2995,0.5966,-0.2033,0.8513,-0.1283,1.8747,-0.2005,1.7486,0.1011,0.8291,-0.2378,1.7351,0.0523
2.0289,0.032,2.4763,0.2995,0.5966,-0.2033,0.8513,-0.1283,1.8747,-0.2005,1.7486,0.1011,0.8291,-0.2378,1.7351,0.0523
2.0289,0.032,2.5034,0.2866,0.574,-0.1915,0.8961,-0.1929,1.8999,-0.2139,1.8008,0.0826,0.5118,0.0316,1.7186,0.049
2.0289,0.032,2.5034,0.2866,0.574,-0.1915,0.8961,-0.1929,1.8999,-0.2139,1.8008,0.0826,0.5118,0.0316,1.7186,0.049
2.0289,0.032,2.5034,0.2866,0.574,-0.1915,0.8961,-0.1929,1.8999,-0.2139,1.8008,0.0826,0.5118,0.0316,1.7186,0.049
2.0339,0.033,2.5054,0.2925,0.5801,-0.1899,0.9335,-0.2169,1.9251,-0.2274,1.8185,0.0714,0.403,0.1261,1.7159,0.044
2.0512,0.0324,2.4994,0.3012,0.5957,-0.1916,0.961,-0.2266,1.9503,-0.2408,1.8185,0.0714,0.3227,0.2107,1.7132,0.0389
2.0512,0.0324,2.4994,0.3012,0.5957,-0.1916,0.961,-0.2266,1.9503,-0.2408,1.8185,0.0714,0.3227,0.2107,1.7132,0.0389
2.076,0.0292,2.4984,0.3114,0.6018,-0.1899,0.9886,-0.2364,2.0028,-0.2594,1.8185,0.0714,0.2882,0.2606,1.7078,0.0378
2.0959,0.0249,2.4873,0.3186,0.6113,-0.1933,0.9974,-0.2341,2.0555,-0.278,1.8185,0.0714,0.2621,0.2981,1.7078,0.0378
2.0959,0.0249,2.4873,0.3186,0.6113,-0.1933,0.9974,-0.2341,2.0555,-0.278,1.8185,0.0714,0.2621,0.2981,1.7078,0.0378
2.0959,0.0249,2.4873,0.3186,0.6113,-0.1933,0.9974,-0.2341,2.0555,-0.278,1.8185,0.0714,0.2621,0.2981,1.7078,0.0378
2.1083,0.0233,2.4652,0.333,0.6088,-0.2,0.9836,-0.2292,2.1041,-0.2906,1.8316,0.0667,0.2908,0.288,1.716,0.0349
2.1083,0.0233,2.4652,0.333,0.6088,-0.2,0.9836,-0.2292,2.1041,-0.2906,1.8316,0.0667,0.2908,0.288,1.716,0.0349
2.1083,0.0233,2.4652,0.333,0.6088,-0.2,0.9836,-0.2292,2.1041,-0.2906,1.8316,0.0667,0.2908,0.288,1.716,0.0349
2.1209,0.0133,2.4461,0.343,0.6001,-0.2083,0.9748,-0.2315,2.1464,-0.3056,1.8139,0.078,0.2795,0.2731,1.7133,0.0298
2.126,0.006,2.4049,0.3674,0.5819,-0.2132,0.9847,-0.2458,2.1824,-0.3229,1.8139,0.078,0.3314,0.1983,1.7106,0.0247
2.126,0.006,2.4049,0.3674,0.5819,-0.2132,0.9847,-0.2458,2.1824,-0.3229,1.8139,0.078,0.3314,0.1983,1.7106,0.0247
2.126,0.006,2.4049,0.3674,0.5819,-0.2132,0.9847,-0.2458,2.1824,-0.3229,1.8139,0.078,0.3314,0.1983,1.7106,0.0247
2.1186,0.0003,2.3718,0.389,0.5542,-0.2147,0.9897,-0.2529,2.1824,-0.3229,1.8047,0.0912,0.4116,0.1137,1.7409,0.008
2.1186,0.0003,2.3718,0.389,0.5542,-0.2147,0.9897,-0.2529,2.1824,-0.3229,1.8047,0.0912,0.4116,0.1137,1.7409,0.008
2.1186,0.0003,2.3718,0.389,0.5542,-0.2147,0.9897,-0.2529,2.1824,-0.3229,1.8047,0.0912,0.4116,0.1137,1.7409,0.008
2.084,-0.0068,2.3187,0.4045,0.4869,-0.2211,1.0007,-0.2837,2.0702,-0.2878,1.7563,0.1183,0.42,0.0083,1.7987,-0.0215
2.084,-0.0068,2.3187,0.4045,0.4869,-0.2211,1.0007,-0.2837,2.0702,-0.2878,1.7563,0.1183,0.42,0.0083,1.7987,-0.0215
2.0592,-0.0036,2.3118,0.397,0.4593,-0.2227,0.983,-0.2883,1.9902,-0.2641,1.7348,0.1209,0.3856,-0.0351,1.8263,-0.0433
2.0592,-0.0036,2.3118,0.397,0.4593,-0.2227,0.983,-0.2883,1.9902,-0.2641,1.7348,0.1209,0.3856,-0.0351,1.8263,-0.0433
2.0319,0.0033,2.303,0.3837,0.4353,-0.2293,0.9379,-0.2831,1.9355,-0.2311,1.7302,0.1276,0.3458,-0.0395,1.865,-0.0629
2.0319,0.0033,2.303,0.3837,0.4353,-0.2293,0.9379,-0.2831,1.9355,-0.2311,1.7302,0.1276,0.3458,-0.0395,1.865,-0.0629
2.0047,0.0102,2.2971,0.366,0.4491,-0.2492,0.8929,-0.2779,1.8705,-0.1944,1.7394,0.1143,0.3145,-0.056,1.8567,-0.069
2.0047,0.0102,2.2971,0.366,0.4491,-0.2492,0.8929,-0.2779,1.8705,-0.1944,1.7394,0.1143,0.3145,-0.056,1.8567,-0.069
1.9824,0.0181,2.2883,0.3528,0.4595,-0.2641,0.8431,-0.2657,1.8223,-0.1591,1.7309,0.1123,0.3229,-0.0682,1.8264,-0.0613
1.9824,0.0181,2.2883,0.3528,0.4595,-0.2641,0.8431,-0.2657,1.8223,-0.1591,1.7309,0.1123,0.3229,-0.0682,1.8264,-0.0613
1.9577,0.0212,2.2795,0.3395,0.4483,-0.2789,0.7984,-0.2606,1.7805,-0.1443,1.7141,0.1082,0.3398,-0.0925,1.7603,-0.038
1.9577,0.0212,2.2795,0.3395,0.4483,-0.2789,0.7984,-0.2606,1.7805,-0.1443,1.7141,0.1082,0.3398,-0.0925,1.7603,-0.038
1.9577,0.0212,2.2795,0.3395,0.4483,-0.2789,0.7984,-0.2606,1.7805,-0.1443,1.7141,0.1082,0.3398,-0.0925,1.7603,-0.038
1.943,0.0182,2.2756,0.3278,0.408,-0.2722,0.7636,-0.2698,1.7411,-0.1669,1.698,0.089,0.2492,-0.1155,1.6643,-0.0071
1.9332,0.0161,2.2766,0.3176,0.361,-0.2555,0.7326,-0.2695,1.7018,-0.1895,1.7208,0.056,0.1593,-0.1384,1.5743,0.0157
1.9332,0.0161,2.2766,0.3176,0.361,-0.2555,0.7326,-0.2695,1.7018,-0.1895,1.7208,0.056,0.1593,-0.1384,1.5743,0.0157
1.9334,0.0078,2.2757,0.3016,0.2883,-0.2224,0.6931,-0.2716,1.6895,-0.217,1.7606,0.027,0.1284,-0.1548,1.52,0.0229
1.9334,0.0078,2.2757,0.3016,0.2883,-0.2224,0.6931,-0.2716,1.6895,-0.217,1.7606,0.027,0.1284,-0.1548,1.52,0.0229
1.9361,-0.0042,2.251,0.294,0.2099,-0.1909,0.6499,-0.283,1.7123,-0.2387,1.7912,0.0112,0.1368,-0.1668,1.4956,0.0225
1.9361,-0.0042,2.251,0.294,0.2099,-0.1909,0.6499,-0.283,1.7123,-0.2387,1.7912,0.0112,0.1368,-0.1668,1.4956,0.0225
1.9585,-0.0203,2.2392,0.2851,0.1573,-0.1761,0.6106,-0.2851,1.7352,-0.2603,1.7782,0.0158,0.1647,-0.1767,1.4741,0.0182
1.9585,-0.0203,2.2392,0.2851,0.1573,-0.1761,0.6106,-0.2851,1.7352,-0.2603,1.7782,0.0158,0.1647,-0.1767,1.4741,0.0182
1.9809,-0.0365,2.2214,0.2849,0.121,-0.1745,0.5848,-0.292,1.7518,-0.2617,1.7644,0.0356,0.176,-0.1625,1.4687,0.0171
1.9809,-0.0365,2.2214,0.2849,0.121,-0.1745,0.5848,-0.292,1.7518,-0.2617,1.7644,0.0356,0.176,-0.1625,1.4687,0.0171
1.991,-0.051,2.1987,0.2832,0.0765,-0.1812,0.5371,-0.2964,1.756,-0.2677,1.7247,0.0646,0.1956,-0.1604,1.4607,0.0109
1.9863,-0.0603,2.1641,0.2986,0.0541,-0.1994,0.5249,-0.308,1.7394,-0.2663,1.6666,0.12,0.2153,-0.1582,1.4418,0.0116
1.9863,-0.0603,2.1641,0.2986,0.0541,-0.1994,0.5249,-0.308,1.7394,-0.2663,1.6666,0.12,0.2153,-0.1582,1.4418,0.0116
1.9419,-0.0529,2.1385,0.3012,0.0258,-0.2192,0.5309,-0.3313,1.7062,-0.2636,1.6047,0.1669,0.1956,-0.1604,1.4203,0.0073
1.9419,-0.0529,2.1385,0.3012,0.0258,-0.2192,0.5309,-0.3313,1.7062,-0.2636,1.6047,0.1669,0.1956,-0.1604,1.4203,0.0073
1.9419,-0.0529,2.1385,0.3012,0.0258,-0.2192,0.5309,-0.3313,1.7062,-0.2636,1.6047,0.1669,0.1956,-0.1604,1.4203,0.0073
1.8877,-0.031,2.1197,0.3111,0.0001,-0.2324,0.5809,-0.3595,1.6752,-0.2527,1.5557,0.2092,0.1593,-0.1384,1.4015,0.008
1.8877,-0.031,2.1197,0.3111,0.0001,-0.2324,0.5809,-0.3595,1.6752,-0.2527,1.5557,0.2092,0.1593,-0.1384,1.4015,0.008
1.8877,-0.031,2.1197,0.3111,0.0001,-0.2324,0.5809,-0.3595,1.6752,-0.2527,1.5557,0.2092,0.1593,-0.1384,1.4015,0.008
1.8211,0.0008,2.0991,0.3151,-0.0348,-0.2424,0.6003,-0.3875,1.6235,-0.2344,1.5298,0.2184,0.1313,-0.1285,1.3854,0.0047
1.8211,0.0008,2.0991,0.3151,-0.0348,-0.2424,0.6003,-0.3875,1.6235,-0.2344,1.5298,0.2184,0.1313,-0.1285,1.3854,0.0047
1.7324,0.0486,2.0893,0.3121,-0.0188,-0.2554,0.537,-0.3546,1.5822,-0.2198,1.5223,0.201,0.2911,-0.1759,1.3828,-0.0004
1.7324,0.0486,2.0893,0.3121,-0.0188,-0.2554,0.537,-0.3546,1.5822,-0.2198,1.5223,0.201,0.2911,-0.1759,1.3828,-0.0004
1.7177,0.0538,2.0971,0.3093,0.0507,-0.2652,0.4944,-0.3078,1.6028,-0.2271,1.5574,0.1786,0.5005,-0.2316,1.4043,-0.005
1.7177,0.0538,2.0971,0.3093,0.0507,-0.2652,0.4944,-0.3078,1.6028,-0.2271,1.5574,0.1786,0.5005,-0.2316,1.4043,-0.005
1.7177,0.0538,2.0971,0.3093,0.0507,-0.2652,0.4944,-0.3078,1.6028,-0.2271,1.5574,0.1786,0.5005,-0.2316,1.4043,-0.005
1.7202,0.0501,2.1366,0.2954,0.1229,-0.2684,0.4603,-0.2586,1.6193,-0.2284,1.6055,0.1516,0.663,-0.28,1.4284,0.0044
1.7202,0.0501,2.1366,0.2954,0.1229,-0.2684,0.4603,-0.2586,1.6193,-0.2284,1.6055,0.1516,0.663,-0.28,1.4284,0.0044
1.7446,0.047,2.2145,0.2776,0.2156,-0.2602,0.4748,-0.2212,1.6585,-0.2287,1.6704,0.1287,0.7238,-0.274,1.4687,0.0171
1.7834,0.047,2.2947,0.2655,0.308,-0.2406,0.5481,-0.2097,1.6978,-0.229,1.7179,0.1169,0.6817,-0.2133,1.5334,0.0302
1.7834,0.047,2.2947,0.2655,0.308,-0.2406,0.5481,-0.2097,1.6978,-0.229,1.7179,0.1169,0.6817,-0.2133,1.5334,0.0302
1.837,0.0501,2.3633,0.2706,0.406,-0.2076,0.639,-0.1936,1.7538,-0.2306,1.7394,0.1143,0.6055,-0.1035,1.5876,0.0411
1.837,0.0501,2.3633,0.2706,0.406,-0.2076,0.639,-0.1936,1.7538,-0.2306,1.7394,0.1143,0.6055,-0.1035,1.5876,0.0411
1.9007,0.0469,2.3862,0.2985,0.4807,-0.1812,0.7131,-0.1821,1.8309,-0.2397,1.7601,0.127,0.5661,-0.0155,1.6448,0.048
1.9007,0.0469,2.3862,0.2985,0.4807,-0.1812,0.7131,-0.1821,1.8309,-0.2397,1.7601,0.127,0.5661,-0.0155,1.6448,0.048
1.9007,0.0469,2.3862,0.2985,0.4807,-0.1812,0.7131,-0.1821,1.8309,-0.2397,1.7601,0.127,0.5661,-0.0155,1.6448,0.048
1.9574,0.0379,2.379,0.3437,0.5376,-0.1597,0.7838,-0.1802,1.9334,-0.2622,1.7586,0.1576,0.5435,0.0484,1.7021,0.0549
1.9574,0.0379,2.379,0.3437,0.5376,-0.1597,0.7838,-0.1802,1.9334,-0.2622,1.7586,0.1576,0.5435,0.0484,1.7021,0.0549
2.0067,0.0315,2.3698,0.3831,0.5765,-0.143,0.8736,-0.1903,2.0007,-0.2678,1.7794,0.1704,0.5465,0.0754,1.7653,0.0537
2.0067,0.0315,2.3698,0.3831,0.5765,-0.143,0.8736,-0.1903,2.0007,-0.2678,1.7794,0.1704,0.5465,0.0754,1.7653,0.0537
2.0439,0.0267,2.3627,0.4021,0.6199,-0.1432,0.9599,-0.21,2.0197,-0.2608,1.7833,0.1791,0.5551,0.063,1.8371,0.0405
2.0439,0.0267,2.3627,0.4021,0.6199,-0.1432,0.9599,-0.21,2.0197,-0.2608,1.7833,0.1791,0.5551,0.063,1.8371,0.0405
2.0636,0.0308,2.3676,0.4037,0.6574,-0.145,1.0289,-0.2344,2.0219,-0.2296,1.8134,0.1785,0.662,0.0346,1.9091,0.0272
2.0636,0.0308,2.3676,0.4037,0.6574,-0.145,1.0289,-0.2344,2.0219,-0.2296,1.8134,0.1785,0.662,0.0346,1.9091,0.0272
2.066,0.0355,2.3737,0.3949,0.715,-0.1654,1.0704,-0.249,1.9883,-0.1811,1.8088,0.1852,0.7489,0.0039,1.948,0.0164
2.066,0.0355,2.3737,0.3949,0.715,-0.1654,1.0704,-0.249,1.9883,-0.1811,1.8088,0.1852,0.7489,0.0039,1.948,0.0164
2.0585,0.0381,2.3668,0.3875,0.7737,-0.1975,1.0665,-0.2585,1.9672,-0.1506,1.8173,0.1872,0.8738,-0.0496,1.9508,0.0215
2.0585,0.0381,2.3668,0.3875,0.7737,-0.1975,1.0665,-0.2585,1.9672,-0.1506,1.8173,0.1872,0.8738,-0.0496,1.9508,0.0215
2.0585,0.0381,2.3668,0.3875,0.7737,-0.1975,1.0665,-0.2585,1.9672,-0.1506,1.8173,0.1872,0.8738,-0.0496,1.9508,0.0215
2.0362,0.0377,2.3449,0.3755,0.7815,-0.2193,1.03,-0.251,1.9355,-0.1395,1.8049,0.1765,0.8996,-0.0867,1.9146,0.0373
2.0091,0.0362,2.339,0.3578,0.757,-0.2258,0.966,-0.2338,1.8977,-0.1537,1.7887,0.1571,0.797,-0.097,1.848,0.0609
2.0091,0.0362,2.339,0.3578,0.757,-0.2258,0.966,-0.2338,1.8977,-0.1537,1.7887,0.1571,0.797,-0.097,1.848,0.0609
1.9993,0.0342,2.3481,0.3448,0.715,-0.2072,0.9385,-0.224,1.8412,-0.1749,1.7994,0.1131,0.646,-0.0993,1.7789,0.0701
1.9993,0.0342,2.3481,0.3448,0.715,-0.2072,0.9385,-0.224,1.8412,-0.1749,1.7994,0.1131,0.646,-0.0993,1.7789,0.0701
2.0067,0.0315,2.3671,0.3348,0.6557,-0.1634,0.9247,-0.2192,1.8058,-0.2035,1.8316,0.0667,0.5281,-0.0854,1.7404,0.0716
2.0067,0.0315,2.3671,0.3348,0.6557,-0.1634,0.9247,-0.2192,1.8058,-0.2035,1.8316,0.0667,0.5281,-0.0854,1.7404,0.0716
2.0391,0.0173,2.3781,0.3276,0.6034,-0.1297,0.906,-0.2072,1.7954,-0.2226,1.8715,0.0376,0.434,-0.0429,1.7185,0.0672
2.0391,0.0173,2.3781,0.3276,0.6034,-0.1297,0.906,-0.2072,1.7954,-0.2226,1.8715,0.0376,0.434,-0.0429,1.7185,0.0672
2.0839,0.0015,2.3831,0.3291,0.5711,-0.1145,0.911,-0.2143,1.8246,-0.242,1.8885,0.0416,0.4455,-0.0285,1.7295,0.0603
2.0839,0.0015,2.3831,0.3291,0.5711,-0.1145,0.911,-0.2143,1.8246,-0.242,1.8885,0.0416,0.4455,-0.0285,1.7295,0.0603
2.1189,-0.0164,2.3911,0.3263,0.5529,-0.1195,0.9385,-0.224,1.8664,-0.2568,1.8741,0.0767,0.4856,-0.0242,1.7461,0.0545
2.1189,-0.0164,2.3881,0.3306,0.5418,-0.1346,1.0123,-0.2555,1.904,-0.2655,1.8156,0.1325,0.4856,-0.0242,1.7736,0.0417
2.1189,-0.0164,2.3881,0.3306,0.5418,-0.1346,1.0123,-0.2555,1.904,-0.2655,1.8156,0.1325,0.4856,-0.0242,1.7736,0.0417
2.0888,0.0025,2.377,0.3378,0.5306,-0.1496,1.0637,-0.2845,1.9313,-0.2706,1.7879,0.1724,0.5057,-0.022,1.7985,0.0329
2.0888,0.0025,2.377,0.3378,0.5306,-0.1496,1.0637,-0.2845,1.9313,-0.2706,1.7879,0.1724,0.5057,-0.022,1.7985,0.0329
2.0888,0.0025,2.377,0.3378,0.5306,-0.1496,1.0637,-0.2845,1.9313,-0.2706,1.7879,0.1724,0.5057,-0.022,1.7985,0.0329
2.0464,0.023,2.3511,0.3404,0.5324,-0.173,1.0498,-0.2796,1.9334,-0.2622,1.7525,0.195,0.563,-0.0422,1.7985,0.0329
2.0464,0.023,2.3511,0.3404,0.5324,-0.173,1.0498,-0.2796,1.9334,-0.2622,1.7525,0.195,0.563,-0.0422,1.7985,0.0329
2.0044,0.0268,2.3342,0.33,0.5127,-0.1963,0.9622,-0.2432,1.9187,-0.2525,1.7309,0.1976,0.7154,-0.1053,1.7847,0.0348
1.9528,0.0202,2.3234,0.3109,0.4654,-0.2211,0.8397,-0.2161,1.9041,-0.2428,1.714,0.1935,0.8191,-0.1605,1.7599,0.0435
1.9528,0.0202,2.3234,0.3109,0.4654,-0.2211,0.8397,-0.2161,1.9041,-0.2428,1.714,0.1935,0.8191,-0.1605,1.7599,0.0435
1.9309,0.0114,2.3254,0.2905,0.4328,-0.2359,0.7639,-0.2108,1.8747,-0.2461,1.7241,0.1648,0.7867,-0.1768,1.7297,0.0421
1.9309,0.0114,2.3254,0.2905,0.4328,-0.2359,0.7639,-0.2108,1.8747,-0.2461,1.7241,0.1648,0.7867,-0.1768,1.7297,0.0421
1.9309,0.0114,2.3254,0.2905,0.4328,-0.2359,0.7639,-0.2108,1.8747,-0.2461,1.7241,0.1648,0.7867,-0.1768,1.7297,0.0421
1.9287,-0.0016,2.3185,0.2832,0.4053,-0.2375,0.7204,-0.2224,1.8559,-0.2531,1.7294,0.1429,0.6917,-0.134,1.6995,0.0407
1.9287,-0.0016,2.3185,0.2832,0.4053,-0.2375,0.7204,-0.2224,1.8559,-0.2531,1.7294,0.1429,0.6917,-0.134,1.6995,0.0407
1.9287,-0.0016,2.3185,0.2832,0.4053,-0.2375,0.7204,-0.2224,1.8559,-0.2531,1.7294,0.1429,0.6917,-0.134,1.6995,0.0407
1.9215,-0.0072,2.2946,0.2916,0.3745,-0.2341,0.6809,-0.2245,1.8935,-0.2845,1.7263,0.1189,0.5312,-0.0588,1.675,0.0313
1.9215,-0.0072,2.2946,0.2916,0.3745,-0.2341,0.6809,-0.2245,1.8935,-0.2845,1.7263,0.1189,0.5312,-0.0588,1.675,0.0313
1.9191,-0.0119,2.2588,0.3174,0.3497,-0.2291,0.655,-0.2314,1.9311,-0.3159,1.7141,0.1082,0.434,-0.0429,1.6395,0.0288
1.9191,-0.0119,2.2588,0.3174,0.3497,-0.2291,0.655,-0.2314,1.9311,-0.3159,1.7141,0.1082,0.434,-0.0429,1.6395,0.0288
1.9191,-0.0119,2.2588,0.3174,0.3497,-0.2291,0.655,-0.2314,1.9311,-0.3159,1.7141,0.1082,0.434,-0.0429,1.6395,0.0288
1.9191,-0.0119,2.2588,0.3174,0.3497,-0.2291,0.655,-0.2314,1.9311,-0.3159,1.7141,0.1082,0.434,-0.0429,1.6395,0.0288
1.8772,0.0001,2.1912,0.3543,0.2824,-0.224,0.6623,-0.2714,1.9331,-0.3302,1.6658,0.1353,0.3259,-0.0417,1.6506,0.0038
1.8772,0.0001,2.1912,0.3543,0.2824,-0.224,0.6623,-0.2714,1.9331,-0.3302,1.6658,0.1353,0.3259,-0.0417,1.6506,0.0038
1.8772,0.0001,2.1912,0.3543,0.2824,-0.224,0.6623,-0.2714,1.9331,-0.3302,1.6658,0.1353,0.3259,-0.0417,1.6506,0.0038
1.8329,0.0158,2.1745,0.3439,0.2433,-0.2289,0.6597,-0.2971,1.81,-0.2777,1.6139,0.1536,0.1988,-0.0427,1.6891,-0.0338
1.8329,0.0158,2.1745,0.3439,0.2433,-0.2289,0.6597,-0.2971,1.81,-0.2777,1.6139,0.1536,0.1988,-0.0427,1.6891,-0.0338
1.8159,0.0163,2.1628,0.3349,0.2443,-0.2405,0.6425,-0.3017,1.7414,-0.2353,1.6055,0.1516,0.1678,-0.0593,1.6919,-0.0468
1.8159,0.0163,2.1628,0.3349,0.2443,-0.2405,0.6425,-0.3017,1.7414,-0.2353,1.6055,0.1516,0.1678,-0.0593,1.6919,-0.0468
1.8135,0.0117,2.1639,0.3248,0.2605,-0.2537,0.6387,-0.311,1.6914,-0.1858,1.6055,0.1516,0.1959,-0.0692,1.6728,-0.046
1.8135,0.0117,2.1639,0.3248,0.2605,-0.2537,0.6387,-0.311,1.6914,-0.1858,1.6055,0.1516,0.1959,-0.0692,1.6728,-0.046
1.8064,0.006,2.1521,0.3159,0.2801,-0.2718,0.6215,-0.3156,1.6539,-0.1544,1.5925,0.1562,0.2324,-0.0913,1.6455,-0.0424
1.8064,0.006,2.1521,0.3159,0.2801,-0.2718,0.6215,-0.3156,1.6539,-0.1544,1.5925,0.1562,0.2324,-0.0913,1.6455,-0.0424
1.7918,0.0029,2.1502,0.3101,0.3032,-0.2949,0.5995,-0.3131,1.6228,-0.1434,1.5674,0.1501,0.2774,-0.1254,1.5965,-0.034
1.7918,0.0029,2.1502,0.3101,0.3032,-0.2949,0.5995,-0.3131,1.6228,-0.1434,1.5674,0.1501,0.2774,-0.1254,1.5965,-0.034
1.7651,0.0013,2.1415,0.2969,0.2829,-0.3063,0.5469,-0.3104,1.6065,-0.1649,1.5507,0.146,0.3026,-0.1617,1.5312,-0.011
1.7651,0.0013,2.1415,0.2969,0.2829,-0.3063,0.5469,-0.3104,1.6065,-0.1649,1.5507,0.146,0.3026,-0.1617,1.5312,-0.011
1.7362,-0.0048,2.1327,0.2837,0.2159,-0.3013,0.4944,-0.3078,1.5862,-0.2032,1.5478,0.1221,0.2403,-0.1943,1.4472,0.0127
1.7362,-0.0048,2.1327,0.2837,0.2159,-0.3013,0.4944,-0.3078,1.5862,-0.2032,1.5478,0.1221,0.2403,-0.1943,1.4472,0.0127
1.6951,-0.0095,2.1004,0.2789,0.118,-0.2815,0.4118,-0.3051,1.5434,-0.2423,1.5714,0.074,0.1197,-0.2332,1.3636,0.0273
1.6759,-0.0136,2.073,0.2756,0.0254,-0.2488,0.3598,-0.3025,1.5129,-0.2765,1.6117,0.03,0.0224,-0.2438,1.3046,0.0332
1.6759,-0.0136,2.073,0.2756,0.0254,-0.2488,0.3598,-0.3025,1.5129,-0.2765,1.6117,0.03,0.0224,-0.2438,1.3046,0.0332
1.6759,-0.0136,2.073,0.2756,0.0254,-0.2488,0.3598,-0.3025,1.5129,-0.2765,1.6117,0.03,0.0224,-0.2438,1.3046,0.0332
1.6786,-0.0255,2.0475,0.2781,-0.0426,-0.2211,0.3079,-0.3,1.513,-0.299,1.6466,0.0078,-0.0411,-0.2124,1.2833,0.0288
1.6786,-0.0255,2.0475,0.2781,-0.0426,-0.2211,0.3079,-0.3,1.513,-0.299,1.6466,0.0078,-0.0411,-0.2124,1.2833,0.0288
1.6983,-0.0379,2.0259,0.2923,-0.0713,-0.1998,0.2947,-0.2953,1.5111,-0.3073,1.6291,0.0189,-0.0466,-0.1744,1.2674,0.0255
1.6983,-0.0379,2.0259,0.2923,-0.0713,-0.1998,0.2947,-0.2953,1.5111,-0.3073,1.6291,0.0189,-0.0466,-0.1744,1.2674,0.0255
1.7371,-0.0461,2.0189,0.311,-0.0457,-0.1865,0.3067,-0.2837,1.5356,-0.3205,1.5896,0.0477,-0.0245,-0.1461,1.2782,0.0187
1.7371,-0.0461,2.0189,0.311,-0.0457,-0.1865,0.3067,-0.2837,1.5356,-0.3205,1.5896,0.0477,-0.0245,-0.1461,1.2782,0.0187
1.798,-0.054,2.0342,0.3315,0.0403,-0.1796,0.3609,-0.2606,1.5684,-0.3231,1.5365,0.0963,-0.0107,-0.1056,1.2969,0.0181
1.8588,-0.0536,2.0654,0.3465,0.1479,-0.1728,0.4505,-0.2445,1.63,-0.3224,1.5037,0.1576,0.0588,-0.0847,1.3422,0.0229
1.8588,-0.0536,2.0654,0.3465,0.1479,-0.1728,0.4505,-0.2445,1.63,-0.3224,1.5037,0.1576,0.0588,-0.0847,1.3422,0.0229
1.8588,-0.0536,2.0654,0.3465,0.1479,-0.1728,0.4505,-0.2445,1.63,-0.3224,1.5037,0.1576,0.0588,-0.0847,1.3422,0.0229
1.9124,-0.0425,2.1173,0.3576,0.2647,-0.1577,0.5935,-0.2311,1.7104,-0.3148,1.5048,0.2122,0.1482,-0.0615,1.4092,0.0321
1.9124,-0.0425,2.1173,0.3576,0.2647,-0.1577,0.5935,-0.2311,1.7104,-0.3148,1.5048,0.2122,0.1482,-0.0615,1.4092,0.0321
1.9124,-0.0425,2.1173,0.3576,0.2647,-0.1577,0.5935,-0.2311,1.7104,-0.3148,1.5048,0.2122,0.1482,-0.0615,1.4092,0.0321
1.9462,-0.0187,2.1803,0.3614,0.3919,-0.1461,0.7836,-0.2393,1.7954,-0.3133,1.5234,0.2558,0.2382,-0.0383,1.4981,0.0366
1.9462,-0.0187,2.1803,0.3614,0.3919,-0.1461,0.7836,-0.2393,1.7954,-0.3133,1.5234,0.2558,0.2382,-0.0383,1.4981,0.0366
1.9555,0.0082,2.2257,0.365,0.5115,-0.1429,0.9721,-0.2575,1.86,-0.3044,1.5522,0.2708,0.3259,-0.0417,1.5849,0.036
1.9555,0.0082,2.2257,0.365,0.5115,-0.1429,0.9721,-0.2575,1.86,-0.3044,1.5522,0.2708,0.3259,-0.0417,1.5849,0.036
1.9574,0.0379,2.2663,0.3671,0.6103,-0.1398,1.1031,-0.266,1.9103,-0.2859,1.6164,0.2633,0.471,-0.0653,1.6777,0.0364
1.947,0.0609,2.2952,0.3602,0.6888,-0.1485,1.1387,-0.2569,1.9334,-0.2622,1.6602,0.2428,0.6258,-0.1014,1.7517,0.0283
1.9517,0.0703,2.3161,0.3561,0.7422,-0.1521,1.1188,-0.2282,1.9439,-0.2432,1.704,0.2222,0.8396,-0.1585,1.804,0.0249
1.9517,0.0703,2.3161,0.3561,0.7422,-0.1521,1.1188,-0.2282,1.9439,-0.2432,1.704,0.2222,0.8396,-0.1585,1.804,0.0249
1.9517,0.0703,2.3161,0.3561,0.7422,-0.1521,1.1188,-0.2282,1.9439,-0.2432,1.704,0.2222,0.8396,-0.1585,1.804,0.0249
1.9321,0.0662,2.3092,0.3487,0.7334,-0.1604,1.0572,-0.1847,1.9566,-0.2385,1.7178,0.2022,1.0726,-0.2408,1.8372,0.0223
1.9321,0.0662,2.3092,0.3487,0.7334,-0.1604,1.0572,-0.1847,1.9566,-0.2385,1.7178,0.2022,1.0726,-0.2408,1.8372,0.0223
1.9321,0.0662,2.3092,0.3487,0.7334,-0.1604,1.0572,-0.1847,1.9566,-0.2385,1.7178,0.2022,1.0726,-0.2408,1.8372,0.0223
1.9054,0.0563,2.3034,0.3311,0.7063,-0.1737,0.9603,-0.1505,1.9566,-0.2385,1.7056,0.1914,1.2069,-0.3068,1.8399,0.0274
1.8837,0.0391,2.3005,0.3092,0.6505,-0.1768,0.8551,-0.1187,1.9334,-0.2395,1.6979,0.174,1.1652,-0.3105,1.8205,0.0372
1.8547,0.0246,2.3056,0.2845,0.5913,-0.1749,0.7789,-0.1136,1.925,-0.2502,1.7118,0.1541,1.0651,-0.2936,1.7929,0.05
1.8547,0.0246,2.3056,0.2845,0.5913,-0.1749,0.7789,-0.1136,1.925,-0.2502,1.7118,0.1541,1.0651,-0.2936,1.7929,0.05
1.8547,0.0246,2.3056,0.2845,0.5913,-0.1749,0.7789,-0.1136,1.925,-0.2502,1.7118,0.1541,1.0651,-0.2936,1.7929,0.05
1.8353,0.0205,2.3385,0.2631,0.5471,-0.163,0.7628,-0.1349,1.9187,-0.2525,1.7294,0.1429,0.9437,-0.2138,1.7818,0.057
1.8353,0.0205,2.3385,0.2631,0.5471,-0.163,0.7628,-0.1349,1.9187,-0.2525,1.7294,0.1429,0.9437,-0.2138,1.7818,0.057
1.8355,0.0121,2.3574,0.2531,0.528,-0.1563,0.769,-0.1587,1.9187,-0.2525,1.7732,0.1224,0.8055,-0.1093,1.7763,0.0559
1.8355,0.0121,2.3574,0.2531,0.528,-0.1563,0.769,-0.1587,1.9187,-0.2525,1.7732,0.1224,0.8055,-0.1093,1.7763,0.0559
1.8355,0.0121,2.3574,0.2531,0.528,-0.1563,0.769,-0.1587,1.9187,-0.2525,1.7732,0.1224,0.8055,-0.1093,1.7763,0.0559
1.8551,0.008,2.3564,0.2633,0.5341,-0.1546,0.8013,-0.1756,1.9502,-0.2636,1.8125,0.1085,0.6791,0.0098,1.7791,0.0519
1.8551,0.008,2.3564,0.2633,0.5341,-0.1546,0.8013,-0.1756,1.9502,-0.2636,1.8125,0.1085,0.6791,0.0098,1.7791,0.0519
1.9265,-0.0145,2.3124,0.318,0.5592,-0.1597,0.9297,-0.2263,2.0848,-0.3203,1.8387,0.0992,0.5698,0.1047,1.804,0.034
1.9265,-0.0145,2.3124,0.318,0.5592,-0.1597,0.9297,-0.2263,2.0848,-0.3203,1.8387,0.0992,0.5698,0.1047,1.804,0.034
1.9265,-0.0145,2.3124,0.318,0.5592,-0.1597,0.9297,-0.2263,2.0848,-0.3203,1.8387,0.0992,0.5698,0.1047,1.804,0.034
1.9413,-0.0198,2.2894,0.3425,0.5722,-0.1681,0.9847,-0.2458,2.1165,-0.3315,1.8341,0.1059,0.5667,0.0776,1.851,0.0113
1.9413,-0.0198,2.2894,0.3425,0.5722,-0.1681,0.9847,-0.2458,2.1165,-0.3315,1.8341,0.1059,0.5667,0.0776,1.851,0.0113
1.9438,-0.0234,2.2595,0.3597,0.5697,-0.1748,1.0035,-0.2578,2.1059,-0.3277,1.8295,0.1125,0.5925,0.0404,1.9008,-0.0063
1.9438,-0.0234,2.2595,0.3597,0.5697,-0.1748,1.0035,-0.2578,2.1059,-0.3277,1.8295,0.1125,0.5925,0.0404,1.9008,-0.0063
1.9438,-0.0234,2.2595,0.3597,0.5697,-0.1748,1.0035,-0.2578,2.1059,-0.3277,1.8295,0.1125,0.5925,0.0404,1.9008,-0.0063
1.9489,-0.0307,2.2405,0.3696,0.5706,-0.1865,1.036,-0.2747,2.0848,-0.3203,1.8164,0.1172,0.5692,0.0113,1.9563,-0.0319
1.9489,-0.0307,2.2405,0.3696,0.5706,-0.1865,1.036,-0.2747,2.0848,-0.3203,1.8164,0.1172,0.5692,0.0113,1.9563,-0.0319
1.9489,-0.0307,2.2405,0.3696,0.5706,-0.1865,1.036,-0.2747,2.0848,-0.3203,1.8164,0.1172,0.5692,0.0113,1.9563,-0.0319
1.9317,-0.0301,2.2128,0.3663,0.5403,-0.1947,1.0095,-0.2815,2.0006,-0.2905,1.7863,0.1178,0.563,-0.0422,2.0091,-0.0627
1.9317,-0.0301,2.2128,0.3663,0.5403,-0.1947,1.0095,-0.2815,2.0006,-0.2905,1.7863,0.1178,0.563,-0.0422,2.0091,-0.0627
1.9194,-0.0285,2.2041,0.353,0.5256,-0.2047,0.9506,-0.2714,1.9775,-0.2687,1.7817,0.1244,0.5917,-0.0524,2.0314,-0.0766
1.8898,-0.018,2.1884,0.3324,0.5369,-0.2313,0.8557,-0.254,1.8936,-0.1934,1.7471,0.1316,0.58,-0.0668,1.9674,-0.066
1.8898,-0.018,2.1884,0.3324,0.5369,-0.2313,0.8557,-0.254,1.8936,-0.1934,1.7471,0.1316,0.58,-0.0668,1.9674,-0.066
1.8898,-0.018,2.1884,0.3324,0.5369,-0.2313,0.8557,-0.254,1.8936,-0.1934,1.7471,0.1316,0.58,-0.0668,1.9674,-0.066
1.8898,-0.018,2.1884,0.3324,0.5369,-0.2313,0.8557,-0.254,1.8936,-0.1934,1.7471,0.1316,0.58,-0.0668,1.9674,-0.066
1.8898,-0.018,2.1884,0.3324,0.5369,-0.2313,0.8557,-0.254,1.8936,-0.1934,1.7471,0.1316,0.58,-0.0668,1.9674,-0.066
1.8776,-0.0165,2.1767,0.3235,0.5603,-0.2546,0.8097,-0.2324,1.8684,-0.18,1.7256,0.1342,0.597,-0.0913,1.8981,-0.0476
1.8776,-0.0165,2.1767,0.3235,0.5603,-0.2546,0.8097,-0.2324,1.8684,-0.18,1.7256,0.1342,0.597,-0.0913,1.8981,-0.0476
1.863,-0.0195,2.1442,0.3187,0.543,-0.2711,0.7563,-0.2297,1.8475,-0.1954,1.7087,0.1301,0.5938,-0.1179,1.8152,-0.0183
1.863,-0.0195,2.1442,0.3187,0.543,-0.2711,0.7563,-0.2297,1.8475,-0.1954,1.7087,0.1301,0.5938,-0.1179,1.8152,-0.0183
1.8509,-0.0262,2.1404,0.307,0.5094,-0.2742,0.7303,-0.2366,1.8183,-0.2216,1.701,0.1128,0.4933,-0.1284,1.7244,0.0138
1.8509,-0.0262,2.1404,0.307,0.5094,-0.2742,0.7303,-0.2366,1.8183,-0.2216,1.701,0.1128,0.4933,-0.1284,1.7244,0.0138
1.8315,-0.0303,2.1366,0.2954,0.444,-0.2624,0.6956,-0.2458,1.7767,-0.2523,1.7285,0.0732,0.3819,-0.1532,1.6477,0.0259
1.8315,-0.0303,2.1366,0.2954,0.444,-0.2624,0.6956,-0.2458,1.7767,-0.2523,1.7285,0.0732,0.3819,-0.1532,1.6477,0.0259
1.8315,-0.0303,2.1366,0.2954,0.444,-0.2624,0.6956,-0.2458,1.7767,-0.2523,1.7285,0.0732,0.3819,-0.1532,1.6477,0.0259
1.8146,-0.038,2.1357,0.2794,0.3695,-0.2473,0.666,-0.262,1.758,-0.282,1.7775,0.031,0.3026,-0.1617,1.5986,0.0251
1.8146,-0.038,2.1357,0.2794,0.3695,-0.2473,0.666,-0.262,1.758,-0.282,1.7775,0.031,0.3026,-0.1617,1.5986,0.0251
1.8075,-0.0437,2.1368,0.2693,0.313,-0.2274,0.6401,-0.2689,1.7456,-0.3092,1.8394,-0.0157,0.204,-0.1724,1.5634,0.0136
1.8075,-0.0437,2.1368,0.2693,0.313,-0.2274,0.6401,-0.2689,1.7456,-0.3092,1.8394,-0.0157,0.204,-0.1724,1.5634,0.0136
1.793,-0.0468,2.1378,0.2592,0.2602,-0.2124,0.6192,-0.2828,1.7249,-0.3244,1.8662,-0.0401,0.1284,-0.1548,1.5391,0.0042
1.793,-0.0468,2.1378,0.2592,0.2602,-0.2124,0.6192,-0.2828,1.7249,-0.3244,1.8662,-0.0401,0.1284,-0.1548,1.5391,0.0042
1.8005,-0.0576,2.1261,0.2504,0.204,-0.1926,0.5799,-0.2849,1.7332,-0.3363,1.8883,-0.0578,0.1284,-0.1548,1.5338,-0.0059
1.8005,-0.0576,2.1261,0.2504,0.204,-0.1926,0.5799,-0.2849,1.7332,-0.3363,1.8883,-0.0578,0.1284,-0.1548,1.5338,-0.0059
1.8202,-0.07,2.1144,0.2416,0.1701,-0.1843,0.5445,-0.2777,1.7497,-0.3377,1.8707,-0.0466,0.1313,-0.1285,1.5312,-0.011
1.8447,-0.0814,2.0968,0.2413,0.1372,-0.1877,0.5005,-0.2728,1.7767,-0.3427,1.8003,-0.0019,0.1705,-0.1242,1.5258,-0.0121
1.8718,-0.0964,2.0654,0.2524,0.1171,-0.1993,0.4835,-0.2774,1.7788,-0.3344,1.7338,0.0514,0.2098,-0.1198,1.5204,-0.0131
1.8718,-0.0964,2.0654,0.2524,0.1171,-0.1993,0.4835,-0.2774,1.7788,-0.3344,1.7338,0.0514,0.2098,-0.1198,1.5204,-0.0131
1.872,-0.1047,2.037,0.2592,0.0912,-0.2125,0.453,-0.2773,1.7643,-0.3248,1.6498,0.116,0.2379,-0.1298,1.5068,-0.0113
1.872,-0.1047,2.037,0.2592,0.0912,-0.2125,0.453,-0.2773,1.7643,-0.3248,1.6498,0.116,0.2379,-0.1298,1.5068,-0.0113
1.872,-0.1047,2.037,0.2592,0.0912,-0.2125,0.453,-0.2773,1.7643,-0.3248,1.6498,0.116,0.2379,-0.1298,1.5068,-0.0113
1.8696,-0.1093,2.0086,0.266,0.0595,-0.2274,0.4142,-0.2794,1.7539,-0.3212,1.5917,0.1715,0.2858,-0.1375,1.4933,-0.0096
1.8696,-0.1093,2.0086,0.266,0.0595,-0.2274,0.4142,-0.2794,1.7539,-0.3212,1.5917,0.1715,0.2858,-0.1375,1.4933,-0.0096
1.8624,-0.1149,1.9881,0.27,0.0337,-0.2406,0.3888,-0.2863,1.7373,-0.3198,1.5428,0.2138,0.2942,-0.1496,1.4716,-0.0049
1.8624,-0.1149,1.9881,0.27,0.0337,-0.2406,0.3888,-0.2863,1.7373,-0.3198,1.5428,0.2138,0.2942,-0.1496,1.4716,-0.0049
1.843,-0.1189,1.9628,0.2725,-0.0013,-0.2505,0.3549,-0.2955,1.7208,-0.3185,1.4984,0.2496,0.3026,-0.1617,1.4528,-0.0042
1.843,-0.1189,1.9628,0.2725,-0.0013,-0.2505,0.3549,-0.2955,1.7208,-0.3185,1.4984,0.2496,0.3026,-0.1617,1.4528,-0.0042
1.8113,-0.1132,1.9472,0.278,-0.028,-0.2522,0.3646,-0.3095,1.698,-0.3194,1.4633,0.272,0.2547,-0.1539,1.4285,-0.0046
1.8113,-0.1132,1.9472,0.278,-0.028,-0.2522,0.3646,-0.3095,1.698,-0.3194,1.4633,0.272,0.2547,-0.1539,1.4285,-0.0046
1.7747,-0.1002,1.9413,0.2866,-0.0222,-0.2505,0.413,-0.3213,1.6753,-0.3204,1.4458,0.2832,0.235,-0.1561,1.4205,-0.0107
1.7747,-0.1002,1.9413,0.2866,-0.0222,-0.2505,0.413,-0.3213,1.6753,-0.3204,1.4458,0.2832,0.235,-0.1561,1.4205,-0.0107
1.7425,-0.0698,1.9498,0.2997,0.0244,-0.2373,0.509,-0.3288,1.6712,-0.3144,1.4412,0.2899,0.2266,-0.144,1.4394,-0.0114
1.7425,-0.0698,1.9498,0.2997,0.0244,-0.2373,0.509,-0.3288,1.6712,-0.3144,1.4412,0.2899,0.2266,-0.144,1.4394,-0.0114
1.732,-0.0307,1.9867,0.3061,0.1098,-0.2191,0.6362,-0.3367,1.6856,-0.3015,1.4679,0.2654,0.2379,-0.1298,1.4771,-0.0128
1.732,-0.0307,1.9867,0.3061,0.1098,-0.2191,0.6362,-0.3367,1.6856,-0.3015,1.4679,0.2654,0.2379,-0.1298,1.4771,-0.0128
1.7431,0.0091,2.0334,0.3155,0.2134,-0.1959,0.7632,-0.3284,1.729,-0.2853,1.5419,0.2292,0.3368,-0.119,1.542,-0.0088
1.7738,0.0449,2.0961,0.3194,0.346,-0.1826,0.8727,-0.3083,1.7954,-0.268,1.6244,0.195,0.4933,-0.1284,1.6344,-0.0085
1.7738,0.0449,2.0961,0.3194,0.346,-0.1826,0.8727,-0.3083,1.7954,-0.268,1.6244,0.195,0.4933,-0.1284,1.6344,-0.0085
1.7738,0.0449,2.0961,0.3194,0.346,-0.1826,0.8727,-0.3083,1.7954,-0.268,1.6244,0.195,0.4933,-0.1284,1.6344,-0.0085
1.81,0.0569,2.1382,0.3273,0.4737,-0.1712,0.9368,-0.2666,1.8664,-0.2568,1.7026,0.1674,0.7579,-0.1666,1.7163,-0.0014
1.81,0.0569,2.1382,0.3273,0.4737,-0.1712,0.9368,-0.2666,1.8664,-0.2568,1.7026,0.1674,0.7579,-0.1666,1.7163,-0.0014
1.81,0.0569,2.1382,0.3273,0.4737,-0.1712,0.9368,-0.2666,1.8664,-0.2568,1.7026,0.1674,0.7579,-0.1666,1.7163,-0.0014
1.8222,0.0553,2.1748,0.3177,0.5575,-0.1781,0.906,-0.2072,1.9313,-0.2478,1.7717,0.153,1.0641,-0.2285,1.7903,0.0086
1.8222,0.0553,2.1748,0.3177,0.5575,-0.1781,0.906,-0.2072,1.9313,-0.2478,1.7717,0.153,1.0641,-0.2285,1.7903,0.0086
1.8323,0.0407,2.2154,0.2935,0.6018,-0.1899,0.8449,-0.164,1.9713,-0.2483,1.8326,0.1365,1.2613,-0.2889,1.8399,0.0183
1.8323,0.0407,2.2154,0.2935,0.6018,-0.1899,0.8449,-0.164,1.9713,-0.2483,1.8326,0.1365,1.2613,-0.2889,1.8399,0.0183
1.8376,0.0251,2.258,0.2752,0.627,-0.1951,0.8038,-0.1494,1.9944,-0.2473,1.8805,0.1246,1.2652,-0.2625,1.8703,0.0287
1.85,0.0152,2.2977,0.2612,0.6357,-0.1867,0.8213,-0.1448,2.0155,-0.2548,1.8937,0.12,1.172,-0.1923,1.8924,0.033
1.8821,0.0012,2.3046,0.2685,0.6505,-0.1768,0.8213,-0.1448,2.045,-0.2743,1.8983,0.1133,0.9857,-0.0517,1.8952,0.0381
1.8821,0.0012,2.3046,0.2685,0.6505,-0.1768,0.8213,-0.1448,2.045,-0.2743,1.8983,0.1133,0.9857,-0.0517,1.8952,0.0381
1.8821,0.0012,2.3046,0.2685,0.6505,-0.1768,0.8213,-0.1448,2.045,-0.2743,1.8983,0.1133,0.9857,-0.0517,1.8952,0.0381
1.9117,-0.0093,2.2916,0.296,0.6627,-0.1735,0.835,-0.1496,2.0977,-0.293,1.9023,0.122,0.8839,0.0312,1.8979,0.0432
1.9117,-0.0093,2.2916,0.296,0.6627,-0.1735,0.835,-0.1496,2.0977,-0.293,1.9023,0.122,0.8839,0.0312,1.8979,0.0432
1.9117,-0.0093,2.2916,0.296,0.6627,-0.1735,0.835,-0.1496,2.0977,-0.293,1.9023,0.122,0.8839,0.0312,1.8979,0.0432
1.9364,-0.0208,2.2627,0.3291,0.6627,-0.1735,0.8537,-0.1616,2.1442,-0.3139,1.8798,0.1399,0.8255,0.0519,1.9063,0.0403
1.9464,-0.027,2.2317,0.3564,0.6566,-0.1751,0.8812,-0.1714,2.176,-0.3252,1.8706,0.1533,0.8341,0.0394,1.9229,0.0344
1.9563,-0.0333,2.2049,0.3691,0.6444,-0.1784,0.9049,-0.1905,2.1654,-0.3214,1.866,0.16,0.8514,0.0145,1.9675,0.0156
1.9563,-0.0333,2.2049,0.3691,0.6444,-0.1784,0.9049,-0.1905,2.1654,-0.3214,1.866,0.16,0.8514,0.0145,1.9675,0.0156
1.9514,-0.0343,2.195,0.366,0.6383,-0.1801,0.9373,-0.2074,2.1337,-0.3102,1.8489,0.1559,0.8275,-0.0145,2.0176,-0.0112
1.9514,-0.0343,2.195,0.366,0.6383,-0.1801,0.9373,-0.2074,2.1337,-0.3102,1.8489,0.1559,0.8275,-0.0145,2.0176,-0.0112
1.9514,-0.0343,2.195,0.366,0.6383,-0.1801,0.9373,-0.2074,2.1337,-0.3102,1.8489,0.1559,0.8275,-0.0145,2.0176,-0.0112
1.944,-0.0317,2.1912,0.3543,0.6583,-0.1985,0.9522,-0.2289,2.0977,-0.293,1.845,0.1472,0.8447,-0.0393,2.0595,-0.0351
1.944,-0.0317,2.1912,0.3543,0.6583,-0.1985,0.9522,-0.2289,2.0977,-0.293,1.845,0.1472,0.8447,-0.0393,2.0595,-0.0351
1.9292,-0.0265,2.1904,0.3383,0.7071,-0.2272,0.9671,-0.2503,2.0535,-0.2636,1.8326,0.1365,0.891,-0.0744,2.0678,-0.0471
1.9292,-0.0265,2.1904,0.3383,0.7071,-0.2272,0.9671,-0.2503,2.0535,-0.2636,1.8326,0.1365,0.891,-0.0744,2.0678,-0.0471
1.9169,-0.0249,2.1816,0.325,0.7368,-0.249,0.9495,-0.2549,2.0198,-0.238,1.8241,0.1345,0.9373,-0.1094,2.0455,-0.0422
1.9169,-0.0249,2.1816,0.325,0.7368,-0.249,0.9495,-0.2549,2.0198,-0.238,1.8241,0.1345,0.9373,-0.1094,2.0455,-0.0422
1.9023,-0.0279,2.1758,0.3075,0.7507,-0.269,0.8995,-0.2426,1.9966,-0.2389,1.8249,0.1192,0.9544,-0.1341,2.0037,-0.0275
1.9023,-0.0279,2.1758,0.3075,0.7507,-0.269,0.8995,-0.2426,1.9966,-0.2389,1.8249,0.1192,0.9544,-0.1341,2.0037,-0.0275
1.89,-0.0263,2.1641,0.2986,0.7358,-0.2789,0.8584,-0.2281,1.9691,-0.2566,1.7955,0.1045,0.8516,-0.1442,1.9258,0.0031
1.8803,-0.0284,2.1651,0.2885,0.7044,-0.2753,0.826,-0.2113,1.9501,-0.2863,1.7708,0.0832,0.729,-0.1564,1.8509,0.0295
1.8803,-0.0284,2.1651,0.2885,0.7044,-0.2753,0.826,-0.2113,1.9501,-0.2863,1.7708,0.0832,0.729,-0.1564,1.8509,0.0295
1.8632,-0.0278,2.1662,0.2784,0.6574,-0.2701,0.79,-0.2039,1.9143,-0.3146,1.7768,0.0462,0.5704,-0.1465,1.7764,0.0468
1.8632,-0.0278,2.1662,0.2784,0.6574,-0.2701,0.79,-0.2039,1.9143,-0.3146,1.7768,0.0462,0.5704,-0.1465,1.7764,0.0468
1.8632,-0.0278,2.1662,0.2784,0.6574,-0.2701,0.79,-0.2039,1.9143,-0.3146,1.7768,0.0462,0.5704,-0.1465,1.7764,0.0468
1.8484,-0.0226,2.1771,0.2713,0.6036,-0.2548,0.7627,-0.1943,1.8704,-0.3307,1.7912,0.0112,0.4333,-0.1347,1.7241,0.0501
1.8484,-0.0226,2.1771,0.2713,0.6036,-0.2548,0.7627,-0.1943,1.8704,-0.3307,1.7912,0.0112,0.4333,-0.1347,1.7241,0.0501
1.8411,-0.02,2.1771,0.2713,0.562,-0.2364,0.7627,-0.1943,1.8369,-0.3505,1.814,-0.0216,0.2888,-0.1112,1.683,0.0465
1.8411,-0.02,2.1771,0.2713,0.562,-0.2364,0.7627,-0.1943,1.8369,-0.3505,1.814,-0.0216,0.2888,-0.1112,1.683,0.0465
1.8387,-0.0247,2.1752,0.2655,0.498,-0.2062,0.7453,-0.1989,1.814,-0.3514,1.8446,-0.0374,0.2522,-0.0891,1.6722,0.0353
1.8387,-0.0247,2.1752,0.2655,0.498,-0.2062,0.7453,-0.1989,1.814,-0.3514,1.8446,-0.0374,0.2522,-0.0891,1.6722,0.0353
1.8387,-0.0247,2.1752,0.2655,0.498,-0.2062,0.7453,-0.1989,1.814,-0.3514,1.8446,-0.0374,0.2522,-0.0891,1.6722,0.0353
1.8437,-0.0319,2.1683,0.2582,0.4437,-0.1795,0.7378,-0.2178,1.8203,-0.3491,1.8707,-0.0466,0.2917,-0.0847,1.6833,0.0193
1.8437,-0.0319,2.1683,0.2582,0.4437,-0.1795,0.7378,-0.2178,1.8203,-0.3491,1.8707,-0.0466,0.2917,-0.0847,1.6833,0.0193
1.8561,-0.0418,2.1664,0.2524,0.3988,-0.1561,0.7303,-0.2366,1.8287,-0.3385,1.9008,-0.0474,0.3711,-0.076,1.6998,0.0044
1.8561,-0.0418,2.1664,0.2524,0.3988,-0.1561,0.7303,-0.2366,1.8287,-0.3385,1.9008,-0.0474,0.3711,-0.076,1.6998,0.0044
1.8489,-0.0474,2.1517,0.2478,0.355,-0.1444,0.7179,-0.2483,1.8412,-0.3339,1.9224,-0.05,0.4394,-0.0818,1.7163,-0.0104
1.8489,-0.0474,2.1517,0.2478,0.355,-0.1444,0.7179,-0.2483,1.8412,-0.3339,1.9224,-0.05,0.4394,-0.0818,1.7163,-0.0104
1.8369,-0.0541,2.1242,0.2446,0.3183,-0.1427,0.6833,-0.2574,1.837,-0.3279,1.931,-0.0481,0.4795,-0.0775,1.7301,-0.0213
1.8369,-0.0541,2.1242,0.2446,0.3183,-0.1427,0.6833,-0.2574,1.837,-0.3279,1.931,-0.0481,0.4795,-0.0775,1.7301,-0.0213
1.8518,-0.0675,2.1095,0.2401,0.2816,-0.1411,0.6574,-0.2643,1.837,-0.3279,1.9133,-0.0369,0.471,-0.0653,1.7356,-0.0292
1.8518,-0.0675,2.1095,0.2401,0.2816,-0.1411,0.6574,-0.2643,1.837,-0.3279,1.9133,-0.0369,0.471,-0.0653,1.7356,-0.0292
1.8839,-0.0898,2.0949,0.2355,0.2647,-0.1577,0.6315,-0.2712,1.86,-0.327,1.8865,-0.0125,0.5281,-0.0854,1.7301,-0.0303
1.8839,-0.0898,2.0949,0.2355,0.2647,-0.1577,0.6315,-0.2712,1.86,-0.327,1.8865,-0.0125,0.5281,-0.0854,1.7301,-0.0303
1.9087,-0.1095,2.0772,0.2353,0.2548,-0.1843,0.6057,-0.2781,1.8808,-0.3344,1.829,0.0277,0.5281,-0.0854,1.7246,-0.0314
1.8989,-0.1115,2.0616,0.2409,0.2636,-0.2174,0.629,-0.2969,1.9058,-0.3477,1.7669,0.0746,0.5165,-0.0998,1.7219,-0.0364
1.8695,-0.1011,2.0459,0.2464,0.2536,-0.2438,0.6879,-0.3231,1.9246,-0.3634,1.7133,0.1235,0.4964,-0.1019,1.7274,-0.0444
1.8695,-0.1011,2.0459,0.2464,0.2536,-0.2438,0.6879,-0.3231,1.9246,-0.3634,1.7133,0.1235,0.4964,-0.1019,1.7274,-0.0444
1.8695,-0.1011,2.0459,0.2464,0.2536,-0.2438,0.6879,-0.3231,1.9246,-0.3634,1.7133,0.1235,0.4964,-0.1019,1.7274,-0.0444
1.8202,-0.07,2.0302,0.2519,0.2462,-0.2635,0.7247,-0.3467,1.9057,-0.3703,1.6567,0.1485,0.4448,-0.1205,1.7138,-0.0515
1.8202,-0.07,2.0302,0.2519,0.2462,-0.2635,0.7247,-0.3467,1.9057,-0.3703,1.6567,0.1485,0.4448,-0.1205,1.7138,-0.0515
1.8202,-0.07,2.0302,0.2519,0.2462,-0.2635,0.7247,-0.3467,1.9057,-0.3703,1.6567,0.1485,0.4448,-0.1205,1.7138,-0.0515
1.7783,-0.0416,2.0146,0.2575,0.2225,-0.2701,0.748,-0.3656,1.8807,-0.3569,1.6223,0.1557,0.4333,-0.1347,1.7056,-0.0576
1.7783,-0.0416,2.0146,0.2575,0.2225,-0.2701,0.748,-0.3656,1.8807,-0.3569,1.6223,0.1557,0.4333,-0.1347,1.7056,-0.0576
1.7316,-0.0141,2.0049,0.2544,0.1989,-0.2766,0.7491,-0.3819,1.8557,-0.3436,1.6185,0.147,0.4985,-0.167,1.6865,-0.0569
1.6874,0.0097,1.9922,0.2557,0.1719,-0.2783,0.7269,-0.3793,1.8204,-0.3266,1.6063,0.1363,0.507,-0.1791,1.6701,-0.0601
1.6874,0.0097,1.9922,0.2557,0.1719,-0.2783,0.7269,-0.3793,1.8204,-0.3266,1.6063,0.1363,0.507,-0.1791,1.6701,-0.0601
1.6874,0.0097,1.9922,0.2557,0.1719,-0.2783,0.7269,-0.3793,1.8204,-0.3266,1.6063,0.1363,0.507,-0.1791,1.6701,-0.0601
1.6559,0.0153,1.962,0.2567,0.1424,-0.2864,0.647,-0.367,1.785,-0.3096,1.6155,0.1231,0.6009,-0.2214,1.651,-0.0593
1.6559,0.0153,1.962,0.2567,0.1424,-0.2864,0.647,-0.367,1.785,-0.3096,1.6155,0.1231,0.6009,-0.2214,1.651,-0.0593
1.6559,0.0153,1.962,0.2567,0.1424,-0.2864,0.647,-0.367,1.785,-0.3096,1.6155,0.1231,0.6009,-0.2214,1.651,-0.0593
1.6205,-0.0131,1.9234,0.2445,0.1048,-0.3028,0.436,-0.2819,1.7332,-0.2913,1.5736,0.113,0.7812,-0.2943,1.5938,-0.0391
1.6205,-0.0131,1.9234,0.2445,0.1048,-0.3028,0.436,-0.2819,1.7332,-0.2913,1.5736,0.113,0.7812,-0.2943,1.5938,-0.0391
1.6041,-0.0291,1.9322,0.2318,0.1023,-0.3093,0.3463,-0.2395,1.7208,-0.2959,1.5569,0.1089,0.8556,-0.3388,1.5693,-0.0304
1.6041,-0.0291,1.9322,0.2318,0.1023,-0.3093,0.3463,-0.2395,1.7208,-0.2959,1.5569,0.1089,0.8556,-0.3388,1.5693,-0.0304
1.6141,-0.0435,1.9897,0.2082,0.1409,-0.3044,0.3183,-0.2137,1.729,-0.3079,1.5706,0.0892,0.8268,-0.3287,1.5638,-0.0225
1.6141,-0.0435,1.9897,0.2082,0.1409,-0.3044,0.3183,-0.2137,1.729,-0.3079,1.5706,0.0892,0.8268,-0.3287,1.5638,-0.0225
1.6722,-0.0558,2.056,0.1977,0.2234,-0.2816,0.3739,-0.2068,1.7601,-0.3188,1.614,0.0689,0.7475,-0.2458,1.5855,-0.0182
1.6722,-0.0558,2.056,0.1977,0.2234,-0.2816,0.3739,-0.2068,1.7601,-0.3188,1.614,0.0689,0.7475,-0.2458,1.5855,-0.0182
1.7398,-0.058,2.1294,0.1943,0.3208,-0.2488,0.4821,-0.2024,1.8349,-0.3362,1.6917,0.0414,0.6715,-0.1361,1.6399,-0.0164
1.7398,-0.058,2.1294,0.1943,0.3208,-0.2488,0.4821,-0.2024,1.8349,-0.3362,1.6917,0.0414,0.6715,-0.1361,1.6399,-0.0164
1.8102,-0.0556,2.1922,0.1979,0.4224,-0.2209,0.5861,-0.191,1.9121,-0.3454,1.7606,0.027,0.5949,-0.0256,1.6999,-0.0136
1.8102,-0.0556,2.1922,0.1979,0.4224,-0.2209,0.5861,-0.191,1.9121,-0.3454,1.7606,0.027,0.5949,-0.0256,1.6999,-0.0136
1.8808,-0.0532,2.2257,0.2185,0.5343,-0.1964,0.6995,-0.1773,2.0086,-0.3479,1.8466,0.0165,0.6042,0.055,1.7794,-0.0116
1.8808,-0.0532,2.2257,0.2185,0.5343,-0.1964,0.6995,-0.1773,2.0086,-0.3479,1.8466,0.0165,0.6042,0.055,1.7794,-0.0116
1.9297,-0.0513,2.2275,0.2502,0.6105,-0.1816,0.7925,-0.1779,2.114,-0.3624,1.8852,0.0178,0.6016,0.1216,1.8483,-0.0119
1.9297,-0.0513,2.2275,0.2502,0.6105,-0.1816,0.7925,-0.1779,2.114,-0.3624,1.8852,0.0178,0.6016,0.1216,1.8483,-0.0119
1.9297,-0.0513,2.2275,0.2502,0.6105,-0.1816,0.7925,-0.1779,2.114,-0.3624,1.8852,0.0178,0.6016,0.1216,1.8483,-0.0119
1.9541,-0.0462,2.2135,0.2877,0.6566,-0.1751,0.8412,-0.1735,2.2201,-0.3772,1.924,0.0191,0.6422,0.126,1.8842,-0.0004
1.9541,-0.0462,2.2135,0.2877,0.6566,-0.1751,0.8412,-0.1735,2.2201,-0.3772,1.924,0.0191,0.6422,0.126,1.8842,-0.0004
1.9541,-0.0462,2.2135,0.2877,0.6566,-0.1751,0.8412,-0.1735,2.2201,-0.3772,1.924,0.0191,0.6422,0.126,1.8842,-0.0004
1.9561,-0.025,2.1844,0.3469,0.7063,-0.1737,0.9262,-0.1764,2.3096,-0.3906,1.9049,0.0608,0.7349,0.0557,1.9675,-0.0026
1.9561,-0.025,2.1844,0.3469,0.7063,-0.1737,0.9262,-0.1764,2.3096,-0.3906,1.9049,0.0608,0.7349,0.0557,1.9675,-0.0026
1.9486,-0.0141,2.1814,0.3512,0.7159,-0.1771,0.9676,-0.1911,2.278,-0.3567,1.8997,0.0827,0.7521,0.0308,2.026,-0.0141
1.9486,-0.0141,2.1814,0.3512,0.7159,-0.1771,0.9676,-0.1911,2.278,-0.3567,1.8997,0.0827,0.7521,0.0308,2.026,-0.0141
1.9509,-0.0094,2.1874,0.3426,0.7544,-0.1907,0.9952,-0.2008,2.2209,-0.3091,1.9082,0.0847,0.7865,-0.0188,2.0623,-0.03
1.9509,-0.0094,2.1874,0.3426,0.7544,-0.1907,0.9952,-0.2008,2.2209,-0.3091,1.9082,0.0847,0.7865,-0.0188,2.0623,-0.03
1.9609,-0.0157,2.1964,0.3296,0.8096,-0.2178,1.009,-0.2057,2.1596,-0.2554,1.9036,0.0913,0.8242,-0.0414,2.0707,-0.033
1.9634,-0.0193,2.2133,0.3138,0.8649,-0.2449,1.0367,-0.2155,2.1342,-0.2418,1.9036,0.0913,0.891,-0.0744,2.0623,-0.03
1.9634,-0.0193,2.2133,0.3138,0.8649,-0.2449,1.0367,-0.2155,2.1342,-0.2418,1.9036,0.0913,0.891,-0.0744,2.0623,-0.03
1.9634,-0.0193,2.2133,0.3138,0.8649,-0.2449,1.0367,-0.2155,2.1342,-0.2418,1.9036,0.0913,0.891,-0.0744,2.0623,-0.03
1.9636,-0.0276,2.2253,0.2966,0.8754,-0.26,1.0229,-0.2106,2.1044,-0.245,1.8911,0.0807,0.9167,-0.1114,2.0176,-0.0112
1.9636,-0.0276,2.2253,0.2966,0.8754,-0.26,1.0229,-0.2106,2.1044,-0.245,1.8911,0.0807,0.9167,-0.1114,2.0176,-0.0112
1.9636,-0.0276,2.2253,0.2966,0.8754,-0.26,1.0229,-0.2106,2.1044,-0.245,1.8911,0.0807,0.9167,-0.1114,2.0176,-0.0112
1.9563,-0.0333,2.2402,0.275,0.8603,-0.2699,1.0052,-0.2152,2.0598,-0.2613,1.8794,0.0548,0.8806,-0.1544,1.9647,0.0015
1.9442,-0.04,2.2363,0.2634,0.8094,-0.2595,0.9737,-0.2149,2.0174,-0.2919,1.8898,0.0112,0.7833,-0.2033,1.9008,0.0119
1.9442,-0.04,2.2363,0.2634,0.8094,-0.2595,0.9737,-0.2149,2.0174,-0.2919,1.8898,0.0112,0.7833,-0.2033,1.9008,0.0119
1.9442,-0.04,2.2363,0.2634,0.8094,-0.2595,0.9737,-0.2149,2.0174,-0.2919,1.8898,0.0112,0.7833,-0.2033,1.9008,0.0119
1.9369,-0.0456,2.2245,0.2545,0.7482,-0.2341,0.9473,-0.2217,1.9815,-0.3201,1.9173,-0.0283,0.653,-0.2032,1.851,0.0113
1.9369,-0.0456,2.2245,0.2545,0.7482,-0.2341,0.9473,-0.2217,1.9815,-0.3201,1.9173,-0.0283,0.653,-0.2032,1.851,0.0113
1.9517,-0.0509,2.2245,0.2545,0.708,-0.1971,0.9423,-0.2146,1.9625,-0.327,1.9965,-0.0713,0.6042,-0.1951,1.8344,0.0081
1.9517,-0.0509,2.2245,0.2545,0.708,-0.1971,0.9423,-0.2146,1.9625,-0.327,1.9965,-0.0713,0.6042,-0.1951,1.8344,0.0081
1.9665,-0.0561,2.2087,0.2601,0.6496,-0.1651,0.9197,-0.212,1.9667,-0.333,2.0183,-0.074,0.5789,-0.1586,1.8455,-0.0079
1.9987,-0.0702,2.1978,0.2672,0.6173,-0.1499,0.8923,-0.2023,1.9793,-0.3284,2.0177,-0.0589,0.5938,-0.1179,1.8566,-0.0148
2.0235,-0.0817,2.1632,0.2827,0.5895,-0.1515,0.8747,-0.2069,2.0171,-0.3373,1.9863,-0.0278,0.6173,-0.0892,1.8594,-0.0188
2.0235,-0.0817,2.1632,0.2827,0.5895,-0.1515,0.8747,-0.2069,2.0171,-0.3373,1.9863,-0.0278,0.6173,-0.0892,1.8594,-0.0188
2.036,-0.0916,2.1445,0.2926,0.5818,-0.1715,0.8523,-0.2044,2.034,-0.3387,1.9417,0.0079,0.6205,-0.0625,1.8566,-0.0239
2.036,-0.0916,2.1445,0.2926,0.5818,-0.1715,0.8523,-0.2044,2.034,-0.3387,1.9417,0.0079,0.6205,-0.0625,1.8566,-0.0239
2.036,-0.0916,2.1445,0.2926,0.5818,-0.1715,0.8523,-0.2044,2.034,-0.3387,1.9417,0.0079,0.6205,-0.0625,1.8566,-0.0239
2.036,-0.0916,2.1445,0.2926,0.5818,-0.1715,0.8523,-0.2044,2.034,-0.3387,1.9417,0.0079,0.6205,-0.0625,1.8566,-0.0239
2.041,-0.0989,2.1238,0.2966,0.5715,-0.1982,0.826,-0.2113,2.0614,-0.3438,1.8964,0.0588,0.661,-0.0583,1.8456,-0.026
2.041,-0.0989,2.1238,0.2966,0.5715,-0.1982,0.826,-0.2113,2.0614,-0.3438,1.8964,0.0588,0.661,-0.0583,1.8456,-0.026
2.041,-0.0989,2.1238,0.2966,0.5715,-0.1982,0.826,-0.2113,2.0614,-0.3438,1.8964,0.0588,0.661,-0.0583,1.8456,-0.026
2.009,-0.1012,2.0934,0.2976,0.5404,-0.2363,0.8683,-0.2423,2.0866,-0.3573,1.8018,0.1524,0.7272,-0.091,1.8235,-0.0302
2.009,-0.1012,2.0934,0.2976,0.5404,-0.2363,0.8683,-0.2423,2.0866,-0.3573,1.8018,0.1524,0.7272,-0.091,1.8235,-0.0302
1.977,-0.0954,2.0817,0.2888,0.5137,-0.2494,0.9017,-0.2757,2.0885,-0.3716,1.7571,0.1883,0.7357,-0.1033,1.8153,-0.0364
1.977,-0.0954,2.0817,0.2888,0.5137,-0.2494,0.9017,-0.2757,2.0885,-0.3716,1.7571,0.1883,0.7357,-0.1033,1.8153,-0.0364
1.945,-0.0896,2.0622,0.2827,0.487,-0.2625,0.9439,-0.3067,2.0758,-0.3761,1.7394,0.1996,0.7036,-0.1197,1.807,-0.0425
1.945,-0.0896,2.0622,0.2827,0.487,-0.2625,0.9439,-0.3067,2.0758,-0.3761,1.7394,0.1996,0.7036,-0.1197,1.807,-0.0425
1.9057,-0.0811,2.0584,0.2711,0.4535,-0.2657,0.9999,-0.3425,2.0567,-0.383,1.7178,0.2022,0.6917,-0.134,1.8071,-0.0515
1.9057,-0.0811,2.0584,0.2711,0.4535,-0.2657,0.9999,-0.3425,2.0567,-0.383,1.7178,0.2022,0.6917,-0.134,1.8071,-0.0515
1.8615,-0.0655,2.0467,0.2623,0.4295,-0.2722,1.0284,-0.3687,2.0399,-0.3815,1.7233,0.1802,0.6512,-0.1381,1.8071,-0.0605
1.8615,-0.0655,2.0467,0.2623,0.4295,-0.2722,1.0284,-0.3687,2.0399,-0.3815,1.7233,0.1802,0.6512,-0.1381,1.8071,-0.0605
1.8295,-0.0515,2.0351,0.2534,0.4278,-0.2904,1.0206,-0.3873,2.0126,-0.3764,1.7333,0.1515,0.631,-0.1402,1.8154,-0.0724
1.8295,-0.0515,2.0351,0.2534,0.4278,-0.2904,1.0206,-0.3873,2.0126,-0.3764,1.7333,0.1515,0.631,-0.1402,1.8154,-0.0724
1.7953,-0.0421,2.0156,0.2474,0.4227,-0.3035,0.9393,-0.3746,1.9916,-0.369,1.7394,0.1143,0.6479,-0.1646,1.8099,-0.0825
1.7953,-0.0421,2.0156,0.2474,0.4227,-0.3035,0.9393,-0.3746,1.9916,-0.369,1.7394,0.1143,0.6479,-0.1646,1.8099,-0.0825
1.7443,-0.0405,1.9973,0.2313,0.3842,-0.3198,0.7991,-0.3357,1.9644,-0.3639,1.7278,0.0884,0.7882,-0.2418,1.7906,-0.0907
1.7443,-0.0405,1.9973,0.2313,0.3842,-0.3198,0.7991,-0.3357,1.9644,-0.3639,1.7278,0.0884,0.7882,-0.2418,1.7906,-0.0907
1.6914,-0.0518,1.983,0.201,0.3025,-0.3244,0.6253,-0.3062,1.9308,-0.3611,1.7208,0.056,0.8424,-0.2885,1.7605,-0.092
1.6914,-0.0518,1.983,0.201,0.3025,-0.3244,0.6253,-0.3062,1.9308,-0.3611,1.7208,0.056,0.8424,-0.2885,1.7605,-0.092
1.6363,-0.0676,1.9687,0.1707,0.2153,-0.3307,0.453,-0.2773,1.912,-0.368,1.7177,0.0322,0.8304,-0.3025,1.7248,-0.0854
1.6363,-0.0676,1.9687,0.1707,0.2153,-0.3307,0.453,-0.2773,1.912,-0.368,1.7177,0.0322,0.8304,-0.3025,1.7248,-0.0854
1.6029,-0.0748,1.9785,0.148,0.1545,-0.3241,0.3706,-0.2746,1.8848,-0.3629,1.7184,0.0171,0.7847,-0.2681,1.6948,-0.0777
1.6029,-0.0748,1.9785,0.148,0.1545,-0.3241,0.3706,-0.2746,1.8848,-0.3629,1.7184,0.0171,0.7847,-0.2681,1.6948,-0.0777
1.591,-0.0814,1.9815,0.1438,0.1301,-0.3191,0.3319,-0.2768,1.8577,-0.3578,1.7405,-0.0006,0.6648,-0.189,1.6647,-0.0701
1.591,-0.0814,1.9815,0.1438,0.1301,-0.3191,0.3319,-0.2768,1.8577,-0.3578,1.7405,-0.0006,0.6648,-0.189,1.6647,-0.0701
1.6008,-0.0876,1.9708,0.1508,0.1116,-0.3126,0.3151,-0.2814,1.866,-0.3698,1.732,-0.0026,0.5281,-0.0854,1.6402,-0.0704
1.6178,-0.0963,1.9327,0.1802,0.0906,-0.3126,0.3296,-0.3024,1.9118,-0.3905,1.732,-0.0026,0.437,-0.0163,1.6212,-0.0697
1.6178,-0.0963,1.9327,0.1802,0.0906,-0.3126,0.3296,-0.3024,1.9118,-0.3905,1.732,-0.0026,0.437,-0.0163,1.6212,-0.0697
1.6396,-0.104,1.9073,0.2084,0.0906,-0.3126,0.3743,-0.3235,1.9514,-0.4134,1.7275,0.004,0.417,-0.0184,1.613,-0.0757
1.6396,-0.104,1.9073,0.2084,0.0906,-0.3126,0.3743,-0.3235,1.9514,-0.4134,1.7275,0.004,0.417,-0.0184,1.613,-0.0757
1.6396,-0.104,1.9073,0.2084,0.0906,-0.3126,0.3743,-0.3235,1.9514,-0.4134,1.7275,0.004,0.417,-0.0184,1.613,-0.0757
1.6541,-0.1092,1.8818,0.2367,0.0872,-0.3077,0.4227,-0.3353,1.9533,-0.4276,1.7015,0.0131,0.3856,-0.0351,1.6213,-0.0876
1.6541,-0.1092,1.8818,0.2367,0.0872,-0.3077,0.4227,-0.3353,1.9533,-0.4276,1.7015,0.0131,0.3856,-0.0351,1.6213,-0.0876
1.6541,-0.1092,1.8818,0.2367,0.0872,-0.3077,0.4227,-0.3353,1.9533,-0.4276,1.7015,0.0131,0.3856,-0.0351,1.6213,-0.0876
1.671,-0.1097,1.8748,0.2552,0.1072,-0.2962,0.4798,-0.3449,1.9303,-0.4285,1.6756,0.0223,0.3627,-0.0639,1.6758,-0.1128
1.69,-0.0974,1.8863,0.2641,0.1753,-0.2832,0.5309,-0.3313,1.9075,-0.4069,1.671,0.0289,0.408,-0.0982,1.7523,-0.1339
1.721,-0.0785,1.923,0.2704,0.2861,-0.2702,0.6081,-0.3108,1.8911,-0.3606,1.6795,0.0309,0.4564,-0.1061,1.8346,-0.1451
1.721,-0.0785,1.923,0.2704,0.2861,-0.2702,0.6081,-0.3108,1.8911,-0.3606,1.6795,0.0309,0.4564,-0.1061,1.8346,-0.1451
1.7665,-0.0565,1.9725,0.2755,0.4157,-0.2524,0.698,-0.2787,1.8997,-0.3049,1.7261,0.0342,0.5652,-0.1078,1.898,-0.1376
1.7665,-0.0565,1.9725,0.2755,0.4157,-0.2524,0.698,-0.2787,1.8997,-0.3049,1.7261,0.0342,0.5652,-0.1078,1.898,-0.1376
1.7665,-0.0565,1.9725,0.2755,0.4157,-0.2524,0.698,-0.2787,1.8997,-0.3049,1.7261,0.0342,0.5652,-0.1078,1.898,-0.1376
1.8146,-0.038,2.0251,0.2764,0.5724,-0.2513,0.7836,-0.2393,1.9397,-0.2599,1.7729,0.0376,0.6865,-0.0952,1.9561,-0.1222
1.8146,-0.038,2.0251,0.2764,0.5724,-0.2513,0.7836,-0.2393,1.9397,-0.2599,1.7729,0.0376,0.6865,-0.0952,1.9561,-0.1222
1.8146,-0.038,2.0251,0.2764,0.5724,-0.2513,0.7836,-0.2393,1.9397,-0.2599,1.7729,0.0376,0.6865,-0.0952,1.9561,-0.1222
1.8706,-0.0304,2.0622,0.2827,0.7123,-0.2555,0.8386,-0.1995,1.9902,-0.2413,1.8068,0.0455,0.8174,-0.095,1.9729,-0.083
1.8706,-0.0304,2.0622,0.2827,0.7123,-0.2555,0.8386,-0.1995,1.9902,-0.2413,1.8068,0.0455,0.8174,-0.095,1.9729,-0.083
1.9097,-0.0305,2.0925,0.2817,0.7867,-0.2477,0.8999,-0.1834,2.0514,-0.2492,1.8453,0.0469,0.9167,-0.1114,1.973,-0.0378
1.9097,-0.0305,2.0925,0.2817,0.7867,-0.2477,0.8999,-0.1834,2.0514,-0.2492,1.8453,0.0469,0.9167,-0.1114,1.973,-0.0378
1.9317,-0.0301,2.1368,0.2693,0.8201,-0.2329,0.9351,-0.1741,2.0852,-0.2748,1.9023,0.0218,0.9459,-0.1217,1.9647,0.0015
1.9317,-0.0301,2.1368,0.2693,0.8201,-0.2329,0.9351,-0.1741,2.0852,-0.2748,1.9023,0.0218,0.9459,-0.1217,1.9647,0.0015
1.9662,-0.0396,2.1683,0.2582,0.8185,-0.2095,0.9715,-0.1816,2.1083,-0.2967,1.9857,-0.0127,0.9544,-0.1341,1.9535,0.0266
2.0082,-0.0516,2.1999,0.247,0.8106,-0.1877,0.9941,-0.1842,2.142,-0.3223,2.0693,-0.0472,0.9459,-0.1217,1.9591,0.0277
2.0082,-0.0516,2.1999,0.247,0.8106,-0.1877,0.9941,-0.1842,2.142,-0.3223,2.0693,-0.0472,0.9459,-0.1217,1.9591,0.0277
2.0703,-0.0763,2.2137,0.2356,0.7843,-0.1708,1.0041,-0.1985,2.2014,-0.3387,2.1222,-0.0659,0.9993,-0.1033,1.9925,0.0159
2.0703,-0.0763,2.2137,0.2356,0.7843,-0.1708,1.0041,-0.1985,2.2014,-0.3387,2.1222,-0.0659,0.9993,-0.1033,1.9925,0.0159
2.1225,-0.0947,2.2276,0.2242,0.765,-0.1639,1.0041,-0.1985,2.2609,-0.3552,2.1349,-0.0554,1.0322,-0.0869,2.0232,-0.001
2.1225,-0.0947,2.2276,0.2242,0.765,-0.1639,1.0041,-0.1985,2.2609,-0.3552,2.1349,-0.0554,1.0322,-0.0869,2.0232,-0.001
2.1673,-0.1106,2.2257,0.2185,0.7527,-0.1672,1.014,-0.2129,2.2951,-0.3581,2.1125,-0.0375,1.0652,-0.0704,2.0455,-0.015
2.1673,-0.1106,2.2257,0.2185,0.7527,-0.1672,1.014,-0.2129,2.2951,-0.3581,2.1125,-0.0375,1.0652,-0.0704,2.0455,-0.015
2.2022,-0.1284,2.2237,0.2127,0.7343,-0.1722,0.9963,-0.2175,2.3229,-0.3634,2.0947,-0.0262,1.0983,-0.0539,2.0595,-0.026
2.2022,-0.1284,2.2237,0.2127,0.7343,-0.1722,0.9963,-0.2175,2.3229,-0.3634,2.0947,-0.0262,1.0983,-0.0539,2.0595,-0.026
2.2322,-0.139,2.2188,0.2112,0.7194,-0.1821,1.0013,-0.2246,2.3443,-0.3709,2.0682,-0.0169,1.0983,-0.0539,2.0678,-0.038
2.2322,-0.139,2.2188,0.2112,0.7194,-0.1821,1.0013,-0.2246,2.3443,-0.3709,2.0682,-0.0169,1.0983,-0.0539,2.0678,-0.038
2.2322,-0.139,2.2188,0.2112,0.7194,-0.1821,1.0013,-0.2246,2.3443,-0.3709,2.0682,-0.0169,1.0983,-0.0539,2.0678,-0.038
2.2447,-0.1489,2.206,0.2125,0.7142,-0.1955,0.9787,-0.222,2.3443,-0.3709,2.0418,-0.0076,1.1278,-0.0643,2.0678,-0.0471
2.2498,-0.1562,2.1872,0.2223,0.7124,-0.2138,0.9748,-0.2315,2.3443,-0.3709,2.0149,0.017,1.1574,-0.0748,2.0678,-0.0562
2.2498,-0.1562,2.1872,0.2223,0.7124,-0.2138,0.9748,-0.2315,2.3443,-0.3709,2.0149,0.017,1.1574,-0.0748,2.0678,-0.0562
2.2373,-0.1545,2.1764,0.2294,0.7167,-0.2305,0.9798,-0.2386,2.3164,-0.3657,1.9655,0.0595,1.1364,-0.0768,2.0677,-0.0652
2.2373,-0.1545,2.1764,0.2294,0.7167,-0.2305,0.9798,-0.2386,2.3164,-0.3657,1.9655,0.0595,1.1364,-0.0768,2.0677,-0.0652
2.2073,-0.1439,2.1704,0.238,0.7176,-0.2422,1.0074,-0.2484,2.2993,-0.3642,1.9339,0.0907,1.1155,-0.0788,2.0649,-0.0703
2.2073,-0.1439,2.1704,0.238,0.7176,-0.2422,1.0074,-0.2484,2.2993,-0.3642,1.9339,0.0907,1.1155,-0.0788,2.0649,-0.0703
2.1575,-0.1291,2.1625,0.2408,0.7088,-0.2505,1.0449,-0.2724,2.2845,-0.3544,1.893,0.1353,1.1069,-0.0664,2.0649,-0.0703
2.1575,-0.1291,2.1625,0.2408,0.7088,-0.2505,1.0449,-0.2724,2.2845,-0.3544,1.893,0.1353,1.1069,-0.0664,2.0649,-0.0703
2.1103,-0.1096,2.1468,0.2463,0.6939,-0.2603,1.0686,-0.2916,2.2567,-0.3491,1.8621,0.1513,1.0358,-0.06,2.0565,-0.0764
2.1103,-0.1096,2.1468,0.2463,0.6939,-0.2603,1.0686,-0.2916,2.2567,-0.3491,1.8621,0.1513,1.0358,-0.06,2.0565,-0.0764
2.1103,-0.1096,2.1468,0.2463,0.6939,-0.2603,1.0686,-0.2916,2.2567,-0.3491,1.8621,0.1513,1.0358,-0.06,2.0565,-0.0764
2.0655,-0.0856,2.1419,0.2448,0.6756,-0.2652,1.12,-0.3205,2.2419,-0.3393,1.8536,0.1492,0.9857,-0.0517,2.0621,-0.0844
2.0655,-0.0856,2.1419,0.2448,0.6756,-0.2652,1.12,-0.3205,2.2419,-0.3393,1.8536,0.1492,0.9857,-0.0517,2.0621,-0.0844
2.0206,-0.0533,2.1321,0.2418,0.6539,-0.2651,1.1299,-0.3348,2.2293,-0.3212,1.8805,0.1246,0.9857,-0.0517,2.0648,-0.0884
2.0206,-0.0533,2.1321,0.2418,0.6539,-0.2651,1.1299,-0.3348,2.2293,-0.3212,1.8805,0.1246,0.9857,-0.0517,2.0648,-0.0884
2.0206,-0.0533,2.1321,0.2418,0.6539,-0.2651,1.1299,-0.3348,2.2293,-0.3212,1.8805,0.1246,0.9857,-0.0517,2.0648,-0.0884
1.9584,-0.012,2.1204,0.233,0.6495,-0.2899,1.0529,-0.3291,2.2123,-0.3197,1.9181,0.0562,1.1709,-0.1265,2.062,-0.1024
1.9584,-0.012,2.1204,0.233,0.6495,-0.2899,1.0529,-0.3291,2.2123,-0.3197,1.9181,0.0562,1.1709,-0.1265,2.062,-0.1024
1.9584,-0.012,2.1204,0.233,0.6495,-0.2899,1.0529,-0.3291,2.2123,-0.3197,1.9181,0.0562,1.1709,-0.1265,2.062,-0.1024
1.9216,-0.0155,2.1097,0.2142,0.6165,-0.3045,0.9439,-0.3067,2.2123,-0.3197,1.945,0.0316,1.4084,-0.2104,2.0564,-0.1035
1.8902,-0.0346,2.1177,0.1855,0.5749,-0.3274,0.8181,-0.289,2.2036,-0.3304,1.9811,-0.0061,1.5239,-0.2793,2.0313,-0.1036
1.8902,-0.0346,2.1177,0.1855,0.5749,-0.3274,0.8181,-0.289,2.2036,-0.3304,1.9811,-0.0061,1.5239,-0.2793,2.0313,-0.1036
1.8902,-0.0346,2.1177,0.1855,0.5749,-0.3274,0.8181,-0.289,2.2036,-0.3304,1.9811,-0.0061,1.5239,-0.2793,2.0313,-0.1036
1.8685,-0.0516,2.1305,0.1585,0.5231,-0.3353,0.7387,-0.293,2.1716,-0.3418,1.9823,-0.0364,1.4514,-0.2724,1.984,-0.099
1.8685,-0.0516,2.1305,0.1585,0.5231,-0.3353,0.7387,-0.293,2.1716,-0.3418,1.9823,-0.0364,1.4514,-0.2724,1.984,-0.099
1.8685,-0.0516,2.1305,0.1585,0.5231,-0.3353,0.7387,-0.293,2.1716,-0.3418,1.9823,-0.0364,1.4514,-0.2724,1.984,-0.099
1.8789,-0.0826,2.107,0.1668,0.4518,-0.325,0.6511,-0.2994,2.1732,-0.3788,1.9572,-0.0573,1.1242,-0.0912,1.923,-0.1015
1.8789,-0.0826,2.107,0.1668,0.4518,-0.325,0.6511,-0.2994,2.1732,-0.3788,1.9572,-0.0573,1.1242,-0.0912,1.923,-0.1015
1.8789,-0.0826,2.107,0.1668,0.4518,-0.325,0.6511,-0.2994,2.1732,-0.3788,1.9572,-0.0573,1.1242,-0.0912,1.923,-0.1015
1.8865,-0.1017,2.059,0.1934,0.4184,-0.3281,0.6166,-0.3085,2.2092,-0.396,1.9349,-0.0396,1.0272,-0.0476,1.9036,-0.1006
1.8892,-0.1135,2.0207,0.223,0.3911,-0.3297,0.5958,-0.3224,2.247,-0.4276,1.9042,-0.0237,0.9771,-0.0393,1.8898,-0.1077
1.8893,-0.1217,1.9806,0.2469,0.3766,-0.3394,0.592,-0.3317,2.2512,-0.4336,1.8996,-0.0171,0.9443,-0.0558,1.9036,-0.1186
1.8893,-0.1217,1.9806,0.2469,0.3766,-0.3394,0.592,-0.3317,2.2512,-0.4336,1.8996,-0.0171,0.9443,-0.0558,1.9036,-0.1186
1.8698,-0.1175,1.9631,0.2466,0.3715,-0.3525,0.6201,-0.3575,2.2236,-0.4283,1.8865,-0.0125,0.903,-0.0599,1.9422,-0.1382
1.8698,-0.1175,1.9631,0.2466,0.3715,-0.3525,0.6201,-0.3575,2.2236,-0.4283,1.8865,-0.0125,0.903,-0.0599,1.9422,-0.1382
1.8698,-0.1175,1.9631,0.2466,0.3715,-0.3525,0.6201,-0.3575,2.2236,-0.4283,1.8865,-0.0125,0.903,-0.0599,1.9422,-0.1382
1.8551,-0.1123,1.9564,0.2393,0.3723,-0.3639,0.653,-0.3903,2.1624,-0.3977,1.8826,-0.0211,0.9081,-0.0991,1.9671,-0.156
1.8551,-0.1123,1.9564,0.2393,0.3723,-0.3639,0.653,-0.3903,2.1624,-0.3977,1.8826,-0.0211,0.9081,-0.0991,1.9671,-0.156
1.8404,-0.1071,1.9556,0.2235,0.3979,-0.3804,0.6676,-0.4113,2.093,-0.355,1.874,-0.023,0.9544,-0.1341,1.967,-0.165
1.8404,-0.1071,1.9556,0.2235,0.3979,-0.3804,0.6676,-0.4113,2.093,-0.355,1.874,-0.023,0.9544,-0.1341,1.967,-0.165
1.833,-0.1045,1.9518,0.212,0.4235,-0.3969,0.6503,-0.4157,2.0383,-0.3221,1.857,-0.0269,0.9715,-0.1587,1.9421,-0.1651
1.833,-0.1045,1.9518,0.212,0.4235,-0.3969,0.6503,-0.4157,2.0383,-0.3221,1.857,-0.0269,0.9715,-0.1587,1.9421,-0.1651
1.8111,-0.105,1.9277,0.2045,0.4371,-0.4165,0.6111,-0.4177,1.9984,-0.2989,1.8355,-0.0243,0.9886,-0.1833,1.9062,-0.1584
1.8111,-0.105,1.9277,0.2045,0.4371,-0.4165,0.6111,-0.4177,1.9984,-0.2989,1.8355,-0.0243,0.9886,-0.1833,1.9062,-0.1584
1.7918,-0.109,1.9006,0.2012,0.4038,-0.4196,0.5489,-0.401,1.9522,-0.3007,1.8146,-0.0367,0.9267,-0.1893,1.8483,-0.138
1.7918,-0.109,1.9006,0.2012,0.4038,-0.4196,0.5489,-0.401,1.9522,-0.3007,1.8146,-0.0367,0.9267,-0.1893,1.8483,-0.138
1.7918,-0.109,1.9006,0.2012,0.4038,-0.4196,0.5489,-0.401,1.9522,-0.3007,1.8146,-0.0367,0.9267,-0.1893,1.8483,-0.138
1.7725,-0.113,1.8843,0.1909,0.3323,-0.398,0.4918,-0.3913,1.8996,-0.3275,1.7944,-0.0642,0.7629,-0.2053,1.7605,-0.1189
1.7725,-0.113,1.8843,0.1909,0.3323,-0.398,0.4918,-0.3913,1.8996,-0.3275,1.7944,-0.0642,0.7629,-0.2053,1.7605,-0.1189
1.7725,-0.113,1.8843,0.1909,0.3323,-0.398,0.4918,-0.3913,1.8996,-0.3275,1.7944,-0.0642,0.7629,-0.2053,1.7605,-0.1189
1.8044,-0.1352,1.8864,0.171,0.2103,-0.3438,0.4566,-0.3841,1.841,-0.3789,1.7871,-0.0962,0.5354,-0.1892,1.6594,-0.107
1.8044,-0.1352,1.8864,0.171,0.2103,-0.3438,0.4566,-0.3841,1.841,-0.3789,1.7871,-0.0962,0.5354,-0.1892,1.6594,-0.107
1.8044,-0.1352,1.8864,0.171,0.2103,-0.3438,0.4566,-0.3841,1.841,-0.3789,1.7871,-0.0962,0.5354,-0.1892,1.6594,-0.107
1.8116,-0.1296,1.9067,0.167,0.2094,-0.3323,0.5452,-0.4102,1.8616,-0.4087,1.7606,-0.072,0.5154,-0.1912,1.6649,-0.1149
1.8116,-0.1296,1.9067,0.167,0.2094,-0.3323,0.5452,-0.4102,1.8616,-0.4087,1.7606,-0.072,0.5154,-0.1912,1.6649,-0.1149
1.8116,-0.1296,1.9067,0.167,0.2094,-0.3323,0.5452,-0.4102,1.8616,-0.4087,1.7606,-0.072,0.5154,-0.1912,1.6649,-0.1149
1.8449,-0.0897,1.9598,0.1835,0.3313,-0.3048,0.6826,-0.3743,1.9429,-0.4239,1.7288,-0.0262,0.6851,-0.187,1.7331,-0.1152
1.8449,-0.0897,1.9598,0.1835,0.3313,-0.3048,0.6826,-0.3743,1.9429,-0.4239,1.7288,-0.0262,0.6851,-0.187,1.7331,-0.1152
1.8665,-0.0727,2.0201,0.1814,0.4158,-0.2936,0.7101,-0.3256,2.0039,-0.4095,1.7411,-0.0157,0.9026,-0.2177,1.7934,-0.1036
1.8665,-0.0727,2.0201,0.1814,0.4158,-0.2936,0.7101,-0.3256,2.0039,-0.4095,1.7411,-0.0157,0.9026,-0.2177,1.7934,-0.1036
1.8665,-0.0727,2.0201,0.1814,0.4158,-0.2936,0.7101,-0.3256,2.0039,-0.4095,1.7411,-0.0157,0.9026,-0.2177,1.7934,-0.1036
1.9128,-0.0673,2.1119,0.1683,0.5223,-0.2825,0.7647,-0.2862,2.0714,-0.3927,1.801,-0.017,1.0678,-0.202,1.876,-0.0969
1.9128,-0.0673,2.1119,0.1683,0.5223,-0.2825,0.7647,-0.2862,2.0714,-0.3927,1.801,-0.017,1.0678,-0.202,1.876,-0.0969
1.979,-0.066,2.1717,0.1761,0.6296,-0.2715,0.8382,-0.2586,2.154,-0.3856,1.8832,-0.0362,1.1291,-0.1305,1.9535,-0.0912
1.979,-0.066,2.1717,0.1761,0.6296,-0.2715,0.8382,-0.2586,2.154,-0.3856,1.8832,-0.0362,1.1291,-0.1305,1.9535,-0.0912
1.979,-0.066,2.1717,0.1761,0.6296,-0.2715,0.8382,-0.2586,2.154,-0.3856,1.8832,-0.0362,1.1291,-0.1305,1.9535,-0.0912
2.0726,-0.0634,2.2148,0.2255,0.8067,-0.2661,0.966,-0.2338,2.3824,-0.4026,2.0091,-0.0608,1.1682,0.0063,2.0705,-0.0783
2.0726,-0.0634,2.2148,0.2255,0.8067,-0.2661,0.966,-0.2338,2.3824,-0.4026,2.0091,-0.0608,1.1682,0.0063,2.0705,-0.0783
