2.6164,38.392,-13.532,5.4052,13.005,0.57668,-20.497,-1.5219,-15.555,8.6974,-10.493,11.021,16.653,26.506,-14.034,0.48756
2.6164,38.392,-13.532,5.4052,13.005,0.57668,-20.497,-1.5219,-15.555,8.6974,-10.493,11.021,16.653,26.506,-14.034,0.48756
2.6005,38.425,-13.447,5.3412,12.94,0.65932,-20.497,-1.4852,-15.622,8.6505,-10.437,11.027,16.717,26.705,-14.124,0.6085
2.6005,38.425,-13.447,5.3412,12.94,0.65932,-20.497,-1.4852,-15.622,8.6505,-10.437,11.027,16.717,26.705,-14.124,0.6085
2.5848,38.457,-13.361,5.2776,12.876,0.74235,-20.496,-1.4485,-15.688,8.604,-10.38,11.032,16.781,26.903,-14.214,0.72955
2.5691,38.489,-13.275,5.2144,12.811,0.82575,-20.496,-1.4118,-15.752,8.5579,-10.323,11.038,16.844,27.1,-14.302,0.85068
2.5536,38.52,-13.189,5.1515,12.746,0.90954,-20.495,-1.375,-15.815,8.5122,-10.265,11.043,16.906,27.296,-14.389,0.9719
2.5536,38.52,-13.189,5.1515,12.746,0.90954,-20.495,-1.375,-15.815,8.5122,-10.265,11.043,16.906,27.296,-14.389,0.9719
2.5382,38.55,-13.102,5.0891,12.681,0.9937,-20.493,-1.3382,-15.877,8.467,-10.206,11.048,16.968,27.492,-14.475,1.0932
2.523,38.58,-13.014,5.0271,12.615,1.0782,-20.492,-1.3013,-15.937,8.4221,-10.147,11.053,17.03,27.688,-14.56,1.2146
2.5079,38.609,-12.925,4.9654,12.55,1.1632,-20.49,-1.2644,-15.996,8.3777,-10.088,11.058,17.091,27.882,-14.644,1.336
2.5079,38.609,-12.925,4.9654,12.55,1.1632,-20.49,-1.2644,-15.996,8.3777,-10.088,11.058,17.091,27.882,-14.644,1.336
2.4929,38.637,-12.836,4.9042,12.485,1.2484,-20.488,-1.2275,-16.053,8.3337,-10.027,11.063,17.151,28.076,-14.727,1.4575
2.478,38.665,-12.746,4.8434,12.419,1.3341,-20.485,-1.1905,-16.109,8.2901,-9.9667,11.068,17.211,28.27,-14.809,1.5791
2.4633,38.692,-12.656,4.783,12.353,1.4201,-20.482,-1.1534,-16.164,8.247,-9.9055,11.072,17.27,28.462,-14.89,1.7007
2.4487,38.719,-12.565,4.7231,12.287,1.5065,-20.479,-1.1164,-16.218,8.2043,-9.8438,11.077,17.329,28.654,-14.97,1.8224
2.4487,38.719,-12.565,4.7231,12.287,1.5065,-20.479,-1.1164,-16.218,8.2043,-9.8438,11.077,17.329,28.654,-14.97,1.8224
2.4342,38.745,-12.474,4.6635,12.221,1.5932,-20.475,-1.0793,-16.269,8.1621,-9.7815,11.081,17.387,28.845,-15.048,1.9442
2.4199,38.77,-12.382,4.6045,12.155,1.6803,-20.472,-1.0421,-16.32,8.1203,-9.7187,11.085,17.445,29.036,-15.126,2.0659
2.4056,38.795,-12.289,4.5458,12.088,1.7678,-20.467,-1.0049,-16.369,8.0789,-9.6554,11.089,17.502,29.226,-15.203,2.1877
2.3916,38.819,-12.196,4.4877,12.022,1.8556,-20.463,-0.96774,-16.417,8.038,-9.5916,11.093,17.558,29.415,-15.279,2.3096
2.3916,38.819,-12.196,4.4877,12.022,1.8556,-20.463,-0.96774,-16.417,8.038,-9.5916,11.093,17.558,29.415,-15.279,2.3096
2.3776,38.843,-12.102,4.43,11.955,1.9438,-20.458,-0.93049,-16.464,7.9975,-9.5273,11.097,17.614,29.603,-15.354,2.4315
2.3638,38.865,-12.008,4.3727,11.888,2.0323,-20.453,-0.8932,-16.509,7.9576,-9.4626,11.101,17.669,29.791,-15.427,2.5534
2.3638,38.865,-12.008,4.3727,11.888,2.0323,-20.453,-0.8932,-16.509,7.9576,-9.4626,11.101,17.669,29.791,-15.427,2.5534
2.3501,38.888,-11.913,4.316,11.821,2.1211,-20.448,-0.85589,-16.553,7.918,-9.3973,11.105,17.724,29.978,-15.5,2.6753
2.3365,38.909,-11.817,4.2597,11.754,2.2103,-20.442,-0.81854,-16.595,7.8789,-9.3316,11.108,17.778,30.164,-15.572,2.7972
2.3231,38.93,-11.721,4.2039,11.687,2.2999,-20.436,-0.78116,-16.636,7.8403,-9.2654,11.112,17.832,30.35,-15.643,2.9191
2.3098,38.951,-11.625,4.1486,11.62,2.3897,-20.43,-0.74374,-16.676,7.8022,-9.1987,11.115,17.885,30.535,-15.713,3.041
2.3098,38.951,-11.625,4.1486,11.62,2.3897,-20.43,-0.74374,-16.676,7.8022,-9.1987,11.115,17.885,30.535,-15.713,3.041
2.2966,38.971,-11.528,4.0938,11.552,2.48,-20.423,-0.7063,-16.715,7.7645,-9.1316,11.119,17.937,30.719,-15.781,3.163
2.2836,38.99,-11.43,4.0395,11.485,2.5705,-20.417,-0.66883,-16.752,7.7274,-9.0641,11.122,17.989,30.902,-15.849,3.2849
2.2707,39.009,-11.332,3.9857,11.417,2.6614,-20.409,-0.63132,-16.788,7.6906,-8.9961,11.125,18.04,31.085,-15.916,3.4068
2.2579,39.027,-11.233,3.9324,11.349,2.7526,-20.402,-0.59379,-16.822,7.6544,-8.9277,11.128,18.091,31.267,-15.982,3.5287
2.2579,39.027,-11.233,3.9324,11.349,2.7526,-20.402,-0.59379,-16.822,7.6544,-8.9277,11.128,18.091,31.267,-15.982,3.5287
2.2452,39.045,-11.134,3.8797,11.281,2.8441,-20.394,-0.55623,-16.855,7.6187,-8.8588,11.131,18.141,31.448,-16.046,3.6506
2.2327,39.062,-11.034,3.8274,11.213,2.9359,-20.386,-0.51864,-16.887,7.5834,-8.7896,11.134,18.191,31.629,-16.11,3.7724
2.2327,39.062,-11.034,3.8274,11.213,2.9359,-20.386,-0.51864,-16.887,7.5834,-8.7896,11.134,18.191,31.629,-16.11,3.7724
2.2203,39.078,-10.934,3.7757,11.145,3.0281,-20.378,-0.48103,-16.918,7.5486,-8.7199,11.137,18.24,31.809,-16.173,3.8943
2.2203,39.078,-10.934,3.7757,11.145,3.0281,-20.378,-0.48103,-16.918,7.5486,-8.7199,11.137,18.24,31.809,-16.173,3.8943
2.2081,39.094,-10.833,3.7246,11.077,3.1206,-20.37,-0.44339,-16.947,7.5144,-8.6498,11.14,18.288,31.988,-16.235,4.016
2.1959,39.109,-10.732,3.674,11.008,3.2133,-20.361,-0.40572,-16.975,7.4806,-8.5794,11.142,18.336,32.166,-16.296,4.1378
2.1959,39.109,-10.732,3.674,11.008,3.2133,-20.361,-0.40572,-16.975,7.4806,-8.5794,11.142,18.336,32.166,-16.296,4.1378
2.1839,39.124,-10.63,3.624,10.94,3.3064,-20.352,-0.36803,-17.002,7.4473,-8.5085,11.145,18.383,32.344,-16.356,4.2595
2.1721,39.138,-10.528,3.5745,10.871,3.3998,-20.342,-0.33031,-17.028,7.4145,-8.4373,11.148,18.43,32.521,-16.415,4.3811
2.1603,39.152,-10.425,3.5255,10.802,3.4935,-20.333,-0.29256,-17.052,7.3822,-8.3657,11.15,18.476,32.697,-16.473,4.5027
2.1487,39.165,-10.322,3.4772,10.734,3.5875,-20.323,-0.2548,-17.075,7.3504,-8.2937,11.152,18.521,32.873,-16.53,4.6243
2.1372,39.178,-10.219,3.4294,10.665,3.6818,-20.313,-0.21701,-17.097,7.3191,-8.2214,11.155,18.566,33.048,-16.586,4.7458
2.1372,39.178,-10.219,3.4294,10.665,3.6818,-20.313,-0.21701,-17.097,7.3191,-8.2214,11.155,18.566,33.048,-16.586,4.7458
2.1259,39.19,-10.114,3.3822,10.596,3.7764,-20.302,-0.17919,-17.117,7.2883,-8.1488,11.157,18.61,33.222,-16.641,4.8672
2.1147,39.201,-10.01,3.3356,10.526,3.8713,-20.292,-0.14135,-17.136,7.258,-8.0757,11.159,18.653,33.395,-16.696,4.9885
2.1036,39.212,-9.9048,3.2896,10.457,3.9665,-20.281,-0.10349,-17.154,7.2282,-8.0024,11.162,18.696,33.568,-16.749,5.1098
2.1036,39.212,-9.9048,3.2896,10.457,3.9665,-20.281,-0.10349,-17.154,7.2282,-8.0024,11.162,18.696,33.568,-16.749,5.1098
2.0927,39.222,-9.7993,3.2442,10.388,4.0619,-20.269,-0.065606,-17.171,7.1989,-7.9287,11.164,18.739,33.739,-16.801,5.231
2.0927,39.222,-9.7993,3.2442,10.388,4.0619,-20.269,-0.065606,-17.171,7.1989,-7.9287,11.164,18.739,33.739,-16.801,5.231
2.0818,39.232,-9.6933,3.1993,10.318,4.1577,-20.258,-0.027699,-17.187,7.1702,-7.8547,11.166,18.781,33.911,-16.853,5.3521
2.0818,39.232,-9.6933,3.1993,10.318,4.1577,-20.258,-0.027699,-17.187,7.1702,-7.8547,11.166,18.781,33.911,-16.853,5.3521
2.0818,39.232,-9.6933,3.1993,10.318,4.1577,-20.258,-0.027699,-17.187,7.1702,-7.8547,11.166,18.781,33.911,-16.853,5.3521
2.0606,39.25,-9.4801,3.1115,10.179,4.35,-20.234,0.048183,-17.214,7.1142,-7.7058,11.17,18.862,34.251,-16.953,5.594
2.0502,39.259,-9.3729,3.0686,10.11,4.4466,-20.222,0.086156,-17.226,7.087,-7.6309,11.172,18.902,34.419,-17.001,5.7148
2.0399,39.267,-9.2652,3.0262,10.04,4.5434,-20.21,0.12415,-17.237,7.0603,-7.5557,11.174,18.942,34.588,-17.049,5.8356
2.0297,39.274,-9.1571,2.9845,9.9699,4.6405,-20.197,0.16217,-17.246,7.0341,-7.4803,11.175,18.98,34.755,-17.096,5.9562
2.0297,39.274,-9.1571,2.9845,9.9699,4.6405,-20.197,0.16217,-17.246,7.0341,-7.4803,11.175,18.98,34.755,-17.096,5.9562
2.0197,39.281,-9.0486,2.9434,9.8999,4.7379,-20.184,0.20021,-17.255,7.0085,-7.4045,11.177,19.019,34.922,-17.142,6.0767
2.0098,39.287,-8.9397,2.903,9.8298,4.8356,-20.171,0.23827,-17.262,6.9833,-7.3285,11.179,19.056,35.088,-17.187,6.1971
2.0098,39.287,-8.9397,2.903,9.8298,4.8356,-20.171,0.23827,-17.262,6.9833,-7.3285,11.179,19.056,35.088,-17.187,6.1971
2.0001,39.293,-8.8304,2.8632,9.7597,4.9335,-20.157,0.27636,-17.268,6.9587,-7.2522,11.181,19.093,35.253,-17.231,6.3174
1.9904,39.298,-8.7207,2.8241,9.6895,5.0316,-20.144,0.31446,-17.272,6.9346,-7.1757,11.183,19.129,35.417,-17.274,6.4376
1.9809,39.303,-8.6106,2.7856,9.6191,5.13,-20.13,0.35259,-17.276,6.9111,-7.0989,11.184,19.165,35.581,-17.317,6.5577
1.9716,39.307,-8.5001,2.7478,9.5487,5.2287,-20.116,0.39074,-17.278,6.8881,-7.0219,11.186,19.2,35.744,-17.358,6.6776
1.9624,39.311,-8.3893,2.7106,9.4783,5.3276,-20.101,0.42892,-17.28,6.8656,-6.9447,11.188,19.235,35.906,-17.399,6.7974
1.9624,39.311,-8.3893,2.7106,9.4783,5.3276,-20.101,0.42892,-17.28,6.8656,-6.9447,11.188,19.235,35.906,-17.399,6.7974
1.9533,39.314,-8.2781,2.6742,9.4077,5.4267,-20.087,0.46712,-17.28,6.8436,-6.8672,11.189,19.269,36.068,-17.438,6.9171
1.9443,39.317,-8.1665,2.6384,9.3371,5.5261,-20.072,0.50534,-17.279,6.8221,-6.7895,11.191,19.302,36.229,-17.477,7.0366
1.9355,39.32,-8.0545,2.6033,9.2664,5.6258,-20.057,0.54358,-17.277,6.8012,-6.7117,11.193,19.335,36.389,-17.515,7.156
1.9355,39.32,-8.0545,2.6033,9.2664,5.6258,-20.057,0.54358,-17.277,6.8012,-6.7117,11.193,19.335,36.389,-17.515,7.156
1.9268,39.322,-7.9422,2.5688,9.1957,5.7256,-20.041,0.58185,-17.273,6.7809,-6.6336,11.194,19.367,36.548,-17.552,7.2752
1.9183,39.323,-7.8296,2.5351,9.1248,5.8257,-20.026,0.62014,-17.269,6.761,-6.5553,11.196,19.399,36.707,-17.589,7.3943
1.9183,39.323,-7.8296,2.5351,9.1248,5.8257,-20.026,0.62014,-17.269,6.761,-6.5553,11.196,19.399,36.707,-17.589,7.3943
1.9098,39.324,-7.7166,2.5021,9.0539,5.9261,-20.01,0.65845,-17.263,6.7417,-6.4769,11.198,19.43,36.865,-17.624,7.5133
1.9016,39.325,-7.6032,2.4698,8.983,6.0266,-19.994,0.69679,-17.257,6.723,-6.3982,11.199,19.46,37.022,-17.659,7.6321
1.8934,39.325,-7.4896,2.4382,8.9119,6.1274,-19.978,0.73516,-17.249,6.7047,-6.3194,11.201,19.49,37.178,-17.692,7.7508
1.8934,39.325,-7.4896,2.4382,8.9119,6.1274,-19.978,0.73516,-17.249,6.7047,-6.3194,11.201,19.49,37.178,-17.692,7.7508
1.8854,39.325,-7.3756,2.4073,8.8409,6.2284,-19.962,0.77355,-17.24,6.687,-6.2405,11.203,19.519,37.334,-17.725,7.8693
1.8776,39.324,-7.2613,2.3771,8.7697,6.3296,-19.945,0.81197,-17.23,6.6699,-6.1614,11.204,19.547,37.489,-17.757,7.9876
1.8698,39.323,-7.1466,2.3477,8.6985,6.4311,-19.928,0.85041,-17.219,6.6533,-6.0821,11.206,19.575,37.643,-17.788,8.1058
1.8622,39.321,-7.0317,2.319,8.6272,6.5327,-19.912,0.88889,-17.207,6.6372,-6.0027,11.208,19.603,37.797,-17.819,8.2238
1.8622,39.321,-7.0317,2.319,8.6272,6.5327,-19.912,0.88889,-17.207,6.6372,-6.0027,11.208,19.603,37.797,-17.819,8.2238
1.8548,39.319,-6.9165,2.291,8.5559,6.6346,-19.894,0.92739,-17.194,6.6216,-5.9232,11.209,19.63,37.949,-17.848,8.3416
1.8475,39.317,-6.8009,2.2638,8.4845,6.7366,-19.877,0.96591,-17.18,6.6066,-5.8436,11.211,19.656,38.101,-17.877,8.4593
1.8475,39.317,-6.8009,2.2638,8.4845,6.7366,-19.877,0.96591,-17.18,6.6066,-5.8436,11.211,19.656,38.101,-17.877,8.4593
1.8403,39.314,-6.6851,2.2373,8.4131,6.8389,-19.859,1.0045,-17.165,6.5922,-5.7638,11.213,19.681,38.253,-17.905,8.5768
1.8403,39.314,-6.6851,2.2373,8.4131,6.8389,-19.859,1.0045,-17.165,6.5922,-5.7638,11.213,19.681,38.253,-17.905,8.5768
1.8403,39.314,-6.6851,2.2373,8.4131,6.8389,-19.859,1.0045,-17.165,6.5922,-5.7638,11.213,19.681,38.253,-17.905,8.5768
1.8264,39.307,-6.4526,2.1865,8.2701,7.044,-19.824,1.0817,-17.131,6.5649,-5.604,11.217,19.731,38.553,-17.959,8.8113
1.8196,39.303,-6.336,2.1623,8.1985,7.1469,-19.805,1.1203,-17.113,6.5521,-5.5239,11.218,19.755,38.702,-17.984,8.9282
1.813,39.299,-6.2191,2.1388,8.1269,7.2499,-19.787,1.159,-17.094,6.5398,-5.4438,11.22,19.778,38.851,-18.009,9.045
1.8065,39.294,-6.1019,2.1161,8.0553,7.3531,-19.769,1.1977,-17.073,6.528,-5.3636,11.222,19.801,38.999,-18.033,9.1616
1.8065,39.294,-6.1019,2.1161,8.0553,7.3531,-19.769,1.1977,-17.073,6.528,-5.3636,11.222,19.801,38.999,-18.033,9.1616
1.8002,39.289,-5.9845,2.0942,7.9836,7.4566,-19.75,1.2365,-17.052,6.5168,-5.2833,11.224,19.823,39.146,-18.056,9.278
1.794,39.283,-5.8668,2.073,7.9118,7.5602,-19.731,1.2752,-17.029,6.5062,-5.2029,11.226,19.844,39.292,-18.079,9.3943
1.7879,39.277,-5.7489,2.0527,7.84,7.6639,-19.712,1.3141,-17.006,6.4961,-5.1225,11.228,19.865,39.438,-18.1,9.5103
1.7879,39.277,-5.7489,2.0527,7.84,7.6639,-19.712,1.3141,-17.006,6.4961,-5.1225,11.228,19.865,39.438,-18.1,9.5103
1.782,39.271,-5.6308,2.0331,7.7682,7.7679,-19.693,1.3529,-16.981,6.4865,-5.0421,11.231,19.886,39.583,-18.121,9.6261
1.7762,39.264,-5.5124,2.0143,7.6963,7.872,-19.673,1.3918,-16.956,6.4775,-4.9616,11.233,19.906,39.727,-18.141,9.7418
1.7706,39.257,-5.3938,1.9963,7.6244,7.9763,-19.654,1.4307,-16.929,6.469,-4.881,11.235,19.925,39.871,-18.161,9.8572
1.7651,39.25,-5.275,1.9791,7.5525,8.0808,-19.634,1.4697,-16.902,6.4611,-4.8005,11.237,19.943,40.013,-18.179,9.9725
1.7651,39.25,-5.275,1.9791,7.5525,8.0808,-19.634,1.4697,-16.902,6.4611,-4.8005,11.237,19.943,40.013,-18.179,9.9725
1.7598,39.242,-5.1559,1.9627,7.4806,8.1855,-19.614,1.5087,-16.874,6.4537,-4.7199,11.24,19.962,40.156,-18.197,10.088
1.7546,39.234,-5.0367,1.9471,7.4086,8.2903,-19.594,1.5478,-16.844,6.4469,-4.6393,11.242,19.979,40.297,-18.215,10.202
1.7495,39.226,-4.9173,1.9323,7.3366,8.3952,-19.573,1.5869,-16.814,6.4406,-4.5587,11.245,19.996,40.438,-18.231,10.317
1.7495,39.226,-4.9173,1.9323,7.3366,8.3952,-19.573,1.5869,-16.814,6.4406,-4.5587,11.245,19.996,40.438,-18.231,10.317
1.7446,39.217,-4.7977,1.9183,7.2645,8.5003,-19.553,1.626,-16.783,6.4349,-4.4781,11.247,20.013,40.578,-18.247,10.431
1.7399,39.208,-4.6778,1.9052,7.1925,8.6056,-19.532,1.6652,-16.751,6.4297,-4.3976,11.25,20.028,40.718,-18.262,10.546
1.7353,39.198,-4.5579,1.8929,7.1204,8.711,-19.512,1.7044,-16.718,6.425,-4.317,11.253,20.044,40.856,-18.276,10.66
1.7353,39.198,-4.5579,1.8929,7.1204,8.711,-19.512,1.7044,-16.718,6.425,-4.317,11.253,20.044,40.856,-18.276,10.66
1.7308,39.189,-4.4377,1.8814,7.0483,8.8166,-19.491,1.7437,-16.684,6.4209,-4.2365,11.256,20.059,40.994,-18.289,10.774
1.7265,39.179,-4.3174,1.8707,6.9761,8.9223,-19.47,1.783,-16.649,6.4174,-4.156,11.259,20.073,41.132,-18.302,10.887
1.7223,39.168,-4.1969,1.8609,6.904,9.0282,-19.449,1.8224,-16.613,6.4144,-4.0755,11.262,20.087,41.269,-18.314,11.001
1.7223,39.168,-4.1969,1.8609,6.904,9.0282,-19.449,1.8224,-16.613,6.4144,-4.0755,11.262,20.087,41.269,-18.314,11.001
1.7183,39.158,-4.0762,1.8519,6.8318,9.1342,-19.427,1.8618,-16.576,6.4119,-3.9951,11.265,20.1,41.405,-18.326,11.114
1.7144,39.147,-3.9554,1.8437,6.7597,9.2403,-19.406,1.9013,-16.538,6.41,-3.9147,11.268,20.112,41.54,-18.336,11.227
1.7107,39.136,-3.8345,1.8364,6.6875,9.3466,-19.384,1.9409,-16.5,6.4086,-3.8344,11.271,20.124,41.675,-18.346,11.339
1.7107,39.136,-3.8345,1.8364,6.6875,9.3466,-19.384,1.9409,-16.5,6.4086,-3.8344,11.271,20.124,41.675,-18.346,11.339
1.7071,39.124,-3.7134,1.83,6.6153,9.453,-19.362,1.9804,-16.46,6.4078,-3.7542,11.275,20.136,41.809,-18.356,11.452
1.7071,39.124,-3.7134,1.83,6.6153,9.453,-19.362,1.9804,-16.46,6.4078,-3.7542,11.275,20.136,41.809,-18.356,11.452
1.7037,39.112,-3.5922,1.8244,6.543,9.5595,-19.34,2.0201,-16.42,6.4075,-3.674,11.278,20.147,41.943,-18.364,11.564
1.7005,39.1,-3.4709,1.8197,6.4708,9.6662,-19.318,2.0598,-16.379,6.4078,-3.5939,11.282,20.157,42.075,-18.372,11.676
1.6973,39.088,-3.3495,1.8158,6.3986,9.773,-19.296,2.0996,-16.337,6.4086,-3.5139,11.286,20.167,42.208,-18.38,11.788
1.6973,39.088,-3.3495,1.8158,6.3986,9.773,-19.296,2.0996,-16.337,6.4086,-3.5139,11.286,20.167,42.208,-18.38,11.788
1.6944,39.076,-3.2279,1.8128,6.3263,9.8799,-19.274,2.1394,-16.294,6.41,-3.434,11.29,20.177,42.339,-18.386,11.9
1.6916,39.063,-3.1062,1.8107,6.2541,9.9869,-19.251,2.1793,-16.25,6.4119,-3.3542,11.294,20.186,42.47,-18.392,12.011
1.6889,39.05,-2.9845,1.8094,6.1819,10.094,-19.229,2.2193,-16.205,6.4143,-3.2745,11.298,20.194,42.601,-18.398,12.123
1.6864,39.036,-2.8626,1.809,6.1096,10.201,-19.206,2.2593,-16.16,6.4173,-3.195,11.302,20.202,42.73,-18.402,12.234
1.6864,39.036,-2.8626,1.809,6.1096,10.201,-19.206,2.2593,-16.16,6.4173,-3.195,11.302,20.202,42.73,-18.402,12.234
1.6841,39.023,-2.7407,1.8095,6.0374,10.309,-19.183,2.2994,-16.114,6.4209,-3.1155,11.307,20.21,42.859,-18.406,12.345
1.6819,39.009,-2.6186,1.8109,5.9651,10.416,-19.16,2.3396,-16.067,6.425,-3.0362,11.311,20.216,42.988,-18.409,12.455
1.6819,39.009,-2.6186,1.8109,5.9651,10.416,-19.16,2.3396,-16.067,6.425,-3.0362,11.311,20.216,42.988,-18.409,12.455
1.6798,38.995,-2.4965,1.8131,5.8929,10.524,-19.137,2.3798,-16.019,6.4296,-2.957,11.316,20.223,43.116,-18.412,12.566
1.678,38.981,-2.3744,1.8163,5.8206,10.631,-19.114,2.4202,-15.97,6.4348,-2.8779,11.321,20.229,43.243,-18.414,12.676
1.6762,38.966,-2.2521,1.8203,5.7484,10.739,-19.091,2.4606,-15.92,6.4405,-2.799,11.326,20.234,43.369,-18.416,12.786
1.6747,38.952,-2.1298,1.8252,5.6762,10.847,-19.067,2.501,-15.87,6.4468,-2.7203,11.331,20.239,43.495,-18.417,12.895
1.6747,38.952,-2.1298,1.8252,5.6762,10.847,-19.067,2.501,-15.87,6.4468,-2.7203,11.331,20.239,43.495,-18.417,12.895
1.6733,38.937,-2.0075,1.8311,5.604,10.955,-19.044,2.5416,-15.819,6.4536,-2.6417,11.336,20.243,43.621,-18.417,13.005
1.6733,38.937,-2.0075,1.8311,5.604,10.955,-19.044,2.5416,-15.819,6.4536,-2.6417,11.336,20.243,43.621,-18.417,13.005
1.672,38.922,-1.8851,1.8378,5.5318,11.063,-19.02,2.5822,-15.767,6.4609,-2.5633,11.342,20.247,43.746,-18.416,13.114
1.6709,38.907,-1.7627,1.8454,5.4596,11.171,-18.996,2.6229,-15.714,6.4688,-2.4851,11.347,20.251,43.87,-18.415,13.223
1.67,38.891,-1.6402,1.854,5.3874,11.279,-18.972,2.6637,-15.661,6.4773,-2.407,11.353,20.254,43.994,-18.414,13.332
1.67,38.891,-1.6402,1.854,5.3874,11.279,-18.972,2.6637,-15.661,6.4773,-2.407,11.353,20.254,43.994,-18.414,13.332
1.6692,38.876,-1.5177,1.8634,5.3152,11.388,-18.949,2.7046,-15.606,6.4862,-2.3291,11.359,20.256,44.117,-18.411,13.441
1.6686,38.86,-1.3952,1.8738,5.2431,11.496,-18.925,2.7456,-15.551,6.4958,-2.2515,11.365,20.258,44.239,-18.409,13.549
1.6681,38.844,-1.2727,1.8851,5.1709,11.605,-18.9,2.7866,-15.495,6.5058,-2.174,11.372,20.26,44.361,-18.405,13.657
1.6681,38.844,-1.2727,1.8851,5.1709,11.605,-18.9,2.7866,-15.495,6.5058,-2.174,11.372,20.26,44.361,-18.405,13.657
1.6678,38.828,-1.1502,1.8973,5.0988,11.713,-18.876,2.8278,-15.439,6.5164,-2.0967,11.378,20.261,44.482,-18.401,13.765
1.6677,38.811,-1.0277,1.9104,5.0267,11.822,-18.852,2.869,-15.382,6.5276,-2.0197,11.385,20.262,44.603,-18.397,13.873
1.6677,38.795,-0.90517,1.9244,4.9546,11.93,-18.828,2.9104,-15.324,6.5392,-1.9428,11.392,20.262,44.724,-18.391,13.981
1.6677,38.795,-0.90517,1.9244,4.9546,11.93,-18.828,2.9104,-15.324,6.5392,-1.9428,11.392,20.262,44.724,-18.391,13.981
1.6679,38.778,-0.78266,1.9394,4.8826,12.039,-18.803,2.9518,-15.265,6.5514,-1.8662,11.399,20.262,44.843,-18.386,14.088
1.6683,38.762,-0.66017,1.9552,4.8105,12.148,-18.778,2.9934,-15.205,6.5642,-1.7898,11.406,20.261,44.962,-18.379,14.195
1.6688,38.745,-0.53771,1.9721,4.7385,12.257,-18.754,3.035,-15.145,6.5775,-1.7137,11.413,20.26,45.081,-18.372,14.302
1.6694,38.728,-0.41527,1.9898,4.6665,12.366,-18.729,3.0767,-15.084,6.5913,-1.6378,11.421,20.259,45.199,-18.365,14.409
1.6694,38.728,-0.41527,1.9898,4.6665,12.366,-18.729,3.0767,-15.084,6.5913,-1.6378,11.421,20.259,45.199,-18.365,14.409
1.6703,38.711,-0.29287,2.0085,4.5946,12.475,-18.704,3.1186,-15.023,6.6056,-1.5622,11.429,20.257,45.317,-18.357,14.515
1.6713,38.693,-0.17051,2.0281,4.5226,12.584,-18.68,3.1605,-14.96,6.6205,-1.4868,11.437,20.254,45.434,-18.348,14.621
1.6724,38.676,-0.048205,2.0486,4.4507,12.693,-18.655,3.2026,-14.898,6.6359,-1.4116,11.445,20.251,45.55,-18.339,14.728
1.6724,38.676,-0.048205,2.0486,4.4507,12.693,-18.655,3.2026,-14.898,6.6359,-1.4116,11.445,20.251,45.55,-18.339,14.728
1.6738,38.658,0.074049,2.0701,4.3789,12.802,-18.63,3.2447,-14.834,6.6519,-1.3368,11.453,20.248,45.666,-18.33,14.833
1.6753,38.641,0.19624,2.0925,4.307,12.911,-18.605,3.287,-14.77,6.6684,-1.2622,11.462,20.245,45.781,-18.32,14.939
1.6769,38.623,0.31837,2.1159,4.2352,13.02,-18.58,3.3294,-14.705,6.6854,-1.1879,11.471,20.241,45.896,-18.309,15.044
1.6787,38.605,0.44043,2.1402,4.1635,13.13,-18.554,3.3719,-14.639,6.7029,-1.1139,11.48,20.236,46.011,-18.298,15.15
1.6787,38.605,0.44043,2.1402,4.1635,13.13,-18.554,3.3719,-14.639,6.7029,-1.1139,11.48,20.236,46.011,-18.298,15.15
1.6807,38.587,0.5624,2.1654,4.0917,13.239,-18.529,3.4145,-14.573,6.721,-1.0401,11.489,20.231,46.125,-18.286,15.255
1.6829,38.569,0.68429,2.1916,4.02,13.348,-18.504,3.4573,-14.506,6.7396,-0.96669,11.499,20.226,46.238,-18.274,15.359
1.6852,38.551,0.80609,2.2188,3.9483,13.458,-18.479,3.5001,-14.438,6.7587,-0.89356,11.509,20.22,46.351,-18.261,15.464
1.6852,38.551,0.80609,2.2188,3.9483,13.458,-18.479,3.5001,-14.438,6.7587,-0.89356,11.509,20.22,46.351,-18.261,15.464
1.6877,38.533,0.92779,2.2469,3.8767,13.567,-18.453,3.5431,-14.37,6.7783,-0.82073,11.519,20.214,46.464,-18.247,15.568
1.6903,38.515,1.0494,2.2759,3.8051,13.676,-18.428,3.5862,-14.301,6.7985,-0.74822,11.529,20.208,46.576,-18.234,15.673
1.6931,38.497,1.1709,2.3059,3.7336,13.786,-18.402,3.6294,-14.232,6.8192,-0.67603,11.539,20.201,46.687,-18.219,15.776
1.6931,38.497,1.1709,2.3059,3.7336,13.786,-18.402,3.6294,-14.232,6.8192,-0.67603,11.539,20.201,46.687,-18.219,15.776
1.6961,38.478,1.2923,2.3368,3.6621,13.895,-18.377,3.6728,-14.161,6.8404,-0.60416,11.55,20.194,46.798,-18.204,15.88
1.6993,38.46,1.4135,2.3687,3.5906,14.005,-18.351,3.7163,-14.091,6.8621,-0.53263,11.561,20.186,46.909,-18.189,15.984
1.7026,38.442,1.5346,2.4016,3.5192,14.114,-18.326,3.7599,-14.019,6.8843,-0.46143,11.572,20.178,47.019,-18.173,16.087
1.706,38.423,1.6556,2.4354,3.4478,14.224,-18.3,3.8036,-13.948,6.9071,-0.39057,11.584,20.17,47.128,-18.157,16.19
1.706,38.423,1.6556,2.4354,3.4478,14.224,-18.3,3.8036,-13.948,6.9071,-0.39057,11.584,20.17,47.128,-18.157,16.19
1.7097,38.405,1.7765,2.4701,3.3765,14.333,-18.275,3.8475,-13.875,6.9304,-0.32006,11.596,20.161,47.237,-18.14,16.293
1.7135,38.386,1.8972,2.5058,3.3052,14.443,-18.249,3.8915,-13.802,6.9542,-0.24989,11.608,20.152,47.346,-18.123,16.396
1.7175,38.368,2.0177,2.5425,3.2339,14.552,-18.223,3.9357,-13.728,6.9785,-0.18009,11.62,20.143,47.454,-18.105,16.499
1.7175,38.368,2.0177,2.5425,3.2339,14.552,-18.223,3.9357,-13.728,6.9785,-0.18009,11.62,20.143,47.454,-18.105,16.499
1.7216,38.349,2.1381,2.5801,3.1627,14.662,-18.198,3.98,-13.654,7.0033,-0.11065,11.632,20.133,47.562,-18.087,16.601
1.7259,38.331,2.2584,2.6187,3.0916,14.771,-18.172,4.0244,-13.579,7.0286,-0.041569,11.645,20.123,47.67,-18.069,16.703
1.7304,38.312,2.3784,2.6582,3.0205,14.881,-18.146,4.069,-13.504,7.0544,0.027135,11.658,20.113,47.777,-18.049,16.805
1.735,38.293,2.4983,2.6987,2.9494,14.99,-18.12,4.1137,-13.428,7.0808,0.095461,11.671,20.102,47.883,-18.03,16.907
1.735,38.293,2.4983,2.6987,2.9494,14.99,-18.12,4.1137,-13.428,7.0808,0.095461,11.671,20.102,47.883,-18.03,16.907
1.7398,38.275,2.618,2.7401,2.8784,15.1,-18.095,4.1585,-13.352,7.1076,0.16341,11.685,20.091,47.989,-18.01,17.008
1.7398,38.275,2.618,2.7401,2.8784,15.1,-18.095,4.1585,-13.352,7.1076,0.16341,11.685,20.091,47.989,-18.01,17.008
1.7448,38.256,2.7375,2.7825,2.8075,15.209,-18.069,4.2036,-13.275,7.135,0.23096,11.699,20.08,48.095,-17.989,17.11
1.7448,38.256,2.7375,2.7825,2.8075,15.209,-18.069,4.2036,-13.275,7.135,0.23096,11.699,20.08,48.095,-17.989,17.11
1.7448,38.256,2.7375,2.7825,2.8075,15.209,-18.069,4.2036,-13.275,7.135,0.23096,11.699,20.08,48.095,-17.989,17.11
1.7499,38.238,2.8569,2.8259,2.7366,15.319,-18.043,4.2487,-13.197,7.1628,0.29813,11.713,20.068,48.2,-17.969,17.211
1.7552,38.219,2.976,2.8702,2.6658,15.428,-18.017,4.294,-13.119,7.1912,0.3649,11.727,20.056,48.305,-17.947,17.312
1.7607,38.2,3.0949,2.9155,2.595,15.538,-17.992,4.3395,-13.041,7.2201,0.43127,11.742,20.044,48.41,-17.926,17.413
1.7664,38.182,3.2136,2.9617,2.5242,15.647,-17.966,4.3851,-12.962,7.2494,0.49723,11.757,20.031,48.514,-17.903,17.514
1.7721,38.163,3.3321,3.0089,2.4536,15.756,-17.94,4.4309,-12.882,7.2793,0.56278,11.772,20.019,48.618,-17.881,17.614
1.7721,38.163,3.3321,3.0089,2.4536,15.756,-17.94,4.4309,-12.882,7.2793,0.56278,11.772,20.019,48.618,-17.881,17.614
1.7781,38.145,3.4504,3.057,2.3829,15.866,-17.914,4.4768,-12.802,7.3096,0.62791,11.788,20.005,48.721,-17.858,17.714
1.7842,38.126,3.5684,3.1061,2.3124,15.975,-17.889,4.5228,-12.722,7.3404,0.69262,11.803,19.992,48.824,-17.834,17.814
1.7905,38.108,3.6862,3.1561,2.2419,16.084,-17.863,4.5691,-12.641,7.3718,0.75691,11.819,19.978,48.926,-17.81,17.914
1.797,38.09,3.8038,3.2071,2.1714,16.193,-17.837,4.6155,-12.559,7.4036,0.82077,11.836,19.964,49.029,-17.786,18.014
1.797,38.09,3.8038,3.2071,2.1714,16.193,-17.837,4.6155,-12.559,7.4036,0.82077,11.836,19.964,49.029,-17.786,18.014
1.8036,38.071,3.9211,3.259,2.101,16.302,-17.812,4.662,-12.477,7.4359,0.88419,11.853,19.95,49.13,-17.762,18.114
1.8104,38.053,4.0382,3.3119,2.0307,16.411,-17.786,4.7087,-12.395,7.4687,0.94718,11.87,19.935,49.232,-17.736,18.213
1.8173,38.035,4.155,3.3658,1.9604,16.52,-17.76,4.7556,-12.312,7.5019,1.0097,11.887,19.92,49.333,-17.711,18.312
1.8173,38.035,4.155,3.3658,1.9604,16.52,-17.76,4.7556,-12.312,7.5019,1.0097,11.887,19.92,49.333,-17.711,18.312
1.8244,38.017,4.2715,3.4205,1.8902,16.629,-17.735,4.8027,-12.228,7.5357,1.0718,11.904,19.905,49.434,-17.685,18.411
1.8317,37.999,4.3878,3.4763,1.82,16.738,-17.709,4.8499,-12.145,7.5699,1.1335,11.922,19.89,49.534,-17.659,18.51
1.8391,37.981,4.5038,3.5329,1.7499,16.847,-17.684,4.8972,-12.06,7.6046,1.1947,11.94,19.874,49.634,-17.632,18.609
1.8467,37.963,4.6195,3.5905,1.6799,16.956,-17.658,4.9448,-11.976,7.6398,1.2554,11.959,19.858,49.734,-17.605,18.707
1.8467,37.963,4.6195,3.5905,1.6799,16.956,-17.658,4.9448,-11.976,7.6398,1.2554,11.959,19.858,49.734,-17.605,18.707
1.8544,37.945,4.7349,3.6491,1.6099,17.065,-17.633,4.9925,-11.89,7.6754,1.3156,11.978,19.842,49.833,-17.578,18.806
1.8623,37.927,4.8501,3.7086,1.54,17.173,-17.607,5.0403,-11.805,7.7115,1.3754,11.997,19.826,49.932,-17.55,18.904
1.8703,37.91,4.9649,3.769,1.4702,17.282,-17.582,5.0884,-11.719,7.7481,1.4348,12.016,19.809,50.031,-17.522,19.002
1.8786,37.892,5.0794,3.8304,1.4004,17.391,-17.557,5.1366,-11.633,7.7852,1.4936,12.036,19.792,50.129,-17.494,19.1
1.8786,37.892,5.0794,3.8304,1.4004,17.391,-17.557,5.1366,-11.633,7.7852,1.4936,12.036,19.792,50.129,-17.494,19.1
1.8869,37.874,5.1936,3.8926,1.3307,17.499,-17.531,5.185,-11.546,7.8227,1.552,12.056,19.775,50.227,-17.465,19.197
1.8954,37.857,5.3075,3.9559,1.261,17.607,-17.506,5.2335,-11.459,7.8606,1.6099,12.076,19.758,50.325,-17.436,19.295
1.8954,37.857,5.3075,3.9559,1.261,17.607,-17.506,5.2335,-11.459,7.8606,1.6099,12.076,19.758,50.325,-17.436,19.295
1.9041,37.84,5.4211,4.02,1.1914,17.716,-17.481,5.2822,-11.371,7.8991,1.6673,12.097,19.741,50.422,-17.406,19.392
1.9129,37.823,5.5344,4.0851,1.1219,17.824,-17.456,5.3311,-11.283,7.9379,1.7242,12.118,19.723,50.519,-17.376,19.489
1.9219,37.806,5.6473,4.151,1.0524,17.932,-17.431,5.3802,-11.195,7.9773,1.7806,12.139,19.705,50.616,-17.346,19.586
1.9219,37.806,5.6473,4.151,1.0524,17.932,-17.431,5.3802,-11.195,7.9773,1.7806,12.139,19.705,50.616,-17.346,19.586
1.931,37.789,5.7599,4.2179,0.98297,18.04,-17.406,5.4294,-11.106,8.017,1.8365,12.161,19.687,50.712,-17.316,19.683
1.9403,37.772,5.8721,4.2858,0.91363,18.148,-17.381,5.4789,-11.017,8.0572,1.8919,12.183,19.668,50.808,-17.285,19.78
1.9497,37.755,5.984,4.3545,0.84434,18.255,-17.356,5.5284,-10.928,8.0979,1.9468,12.205,19.65,50.904,-17.254,19.876
1.9593,37.739,6.0955,4.4241,0.77513,18.363,-17.332,5.5782,-10.838,8.139,2.0012,12.228,19.631,51,-17.222,19.972
1.9593,37.739,6.0955,4.4241,0.77513,18.363,-17.332,5.5782,-10.838,8.139,2.0012,12.228,19.631,51,-17.222,19.972
1.969,37.722,6.2067,4.4947,0.70598,18.47,-17.307,5.6281,-10.748,8.1805,2.055,12.251,19.612,51.095,-17.19,20.069
1.9789,37.706,6.3175,4.5661,0.63689,18.578,-17.282,5.6783,-10.658,8.2225,2.1084,12.274,19.593,51.19,-17.158,20.165
1.9889,37.69,6.4279,4.6385,0.56786,18.685,-17.258,5.7286,-10.567,8.2649,2.1612,12.298,19.574,51.284,-17.126,20.26
1.9991,37.674,6.538,4.7117,0.49891,18.792,-17.234,5.779,-10.476,8.3078,2.2136,12.322,19.554,51.379,-17.093,20.356
1.9991,37.674,6.538,4.7117,0.49891,18.792,-17.234,5.779,-10.476,8.3078,2.2136,12.322,19.554,51.379,-17.093,20.356
2.0094,37.658,6.6476,4.7858,0.43001,18.899,-17.209,5.8297,-10.384,8.351,2.2653,12.346,19.535,51.473,-17.06,20.452
2.0198,37.642,6.7569,4.8609,0.36118,19.006,-17.185,5.8805,-10.293,8.3947,2.3166,12.37,19.515,51.566,-17.027,20.547
2.0304,37.626,6.8658,4.9368,0.29242,19.113,-17.161,5.9315,-10.201,8.4388,2.3673,12.395,19.495,51.66,-16.993,20.642
2.0411,37.611,6.9743,5.0136,0.22372,19.22,-17.137,5.9826,-10.108,8.4833,2.4175,12.42,19.475,51.753,-16.959,20.737
2.0411,37.611,6.9743,5.0136,0.22372,19.22,-17.137,5.9826,-10.108,8.4833,2.4175,12.42,19.475,51.753,-16.959,20.737
2.052,37.595,7.0824,5.0912,0.15508,19.326,-17.113,6.034,-10.016,8.5283,2.4672,12.446,19.455,51.846,-16.925,20.832
2.0629,37.58,7.1901,5.1698,0.086511,19.432,-17.089,6.0855,-9.9227,8.5736,2.5163,12.472,19.434,51.939,-16.89,20.927
2.0629,37.58,7.1901,5.1698,0.086511,19.432,-17.089,6.0855,-9.9227,8.5736,2.5163,12.472,19.434,51.939,-16.89,20.927
2.0741,37.565,7.2973,5.2492,0.018005,19.539,-17.066,6.1372,-9.8295,8.6194,2.5648,12.498,19.413,52.031,-16.856,21.021
2.0741,37.565,7.2973,5.2492,0.018005,19.539,-17.066,6.1372,-9.8295,8.6194,2.5648,12.498,19.413,52.031,-16.856,21.021
2.0853,37.55,7.4042,5.3294,-0.050437,19.645,-17.042,6.1891,-9.7361,8.6655,2.6129,12.524,19.393,52.123,-16.821,21.116
2.0967,37.536,7.5106,5.4105,-0.11882,19.751,-17.019,6.2411,-9.6423,8.7121,2.6603,12.551,19.372,52.215,-16.785,21.21
2.1082,37.521,7.6165,5.4925,-0.18713,19.856,-16.995,6.2934,-9.5483,8.759,2.7072,12.578,19.351,52.307,-16.75,21.304
2.1199,37.507,7.7221,5.5753,-0.25538,19.962,-16.972,6.3458,-9.4541,8.8063,2.7536,12.606,19.33,52.398,-16.714,21.398
2.1199,37.507,7.7221,5.5753,-0.25538,19.962,-16.972,6.3458,-9.4541,8.8063,2.7536,12.606,19.33,52.398,-16.714,21.398
2.1316,37.493,7.8272,5.659,-0.32356,20.067,-16.949,6.3983,-9.3596,8.8541,2.7994,12.634,19.309,52.49,-16.678,21.492
2.1435,37.479,7.9319,5.7435,-0.39169,20.172,-16.926,6.4511,-9.2648,8.9022,2.8446,12.662,19.287,52.58,-16.641,21.586
2.1435,37.479,7.9319,5.7435,-0.39169,20.172,-16.926,6.4511,-9.2648,8.9022,2.8446,12.662,19.287,52.58,-16.641,21.586
2.1555,37.465,8.0361,5.8289,-0.45975,20.277,-16.903,6.504,-9.1699,8.9507,2.8893,12.69,19.266,52.671,-16.605,21.679
2.1677,37.451,8.1398,5.915,-0.52774,20.382,-16.881,6.5571,-9.0747,8.9996,2.9334,12.719,19.244,52.761,-16.568,21.772
2.1799,37.438,8.2431,6.002,-0.59568,20.487,-16.858,6.6104,-8.9792,9.0488,2.9769,12.748,19.222,52.852,-16.531,21.865
2.1799,37.438,8.2431,6.002,-0.59568,20.487,-16.858,6.6104,-8.9792,9.0488,2.9769,12.748,19.222,52.852,-16.531,21.865
2.1923,37.424,8.3459,6.0898,-0.66355,20.591,-16.836,6.6638,-8.8836,9.0984,3.0199,12.778,19.2,52.942,-16.493,21.958
2.2048,37.411,8.4483,6.1785,-0.73136,20.696,-16.813,6.7174,-8.7877,9.1484,3.0623,12.808,19.178,53.031,-16.456,22.051
2.2174,37.398,8.5501,6.2679,-0.79911,20.8,-16.791,6.7712,-8.6916,9.1988,3.1041,12.838,19.156,53.121,-16.418,22.144
2.2174,37.398,8.5501,6.2679,-0.79911,20.8,-16.791,6.7712,-8.6916,9.1988,3.1041,12.838,19.156,53.121,-16.418,22.144
2.2301,37.386,8.6515,6.3581,-0.86679,20.904,-16.769,6.8251,-8.5954,9.2495,3.1453,12.868,19.134,53.21,-16.38,22.237
2.2301,37.386,8.6515,6.3581,-0.86679,20.904,-16.769,6.8251,-8.5954,9.2495,3.1453,12.868,19.134,53.21,-16.38,22.237
2.2429,37.373,8.7524,6.4491,-0.93442,21.007,-16.747,6.8793,-8.4989,9.3006,3.186,12.899,19.112,53.299,-16.341,22.329
2.2558,37.361,8.8529,6.5409,-1.002,21.111,-16.726,6.9335,-8.4023,9.352,3.226,12.93,19.09,53.387,-16.303,22.421
2.2689,37.348,8.9528,6.6335,-1.0695,21.214,-16.704,6.988,-8.3054,9.4038,3.2655,12.961,19.067,53.476,-16.264,22.513
2.2689,37.348,8.9528,6.6335,-1.0695,21.214,-16.704,6.988,-8.3054,9.4038,3.2655,12.961,19.067,53.476,-16.264,22.513
2.282,37.336,9.0522,6.7269,-1.1369,21.317,-16.683,7.0426,-8.2084,9.4559,3.3044,12.993,19.045,53.564,-16.225,22.605
2.2952,37.325,9.1511,6.8211,-1.2043,21.42,-16.662,7.0974,-8.1113,9.5083,3.3427,13.025,19.022,53.652,-16.186,22.697
2.3086,37.313,9.2495,6.916,-1.2716,21.523,-16.641,7.1523,-8.0139,9.5611,3.3804,13.057,19,53.74,-16.147,22.788
2.3086,37.313,9.2495,6.916,-1.2716,21.523,-16.641,7.1523,-8.0139,9.5611,3.3804,13.057,19,53.74,-16.147,22.788
2.322,37.302,9.3474,7.0116,-1.3389,21.625,-16.62,7.2074,-7.9165,9.6142,3.4176,13.09,18.977,53.828,-16.107,22.88
2.3355,37.29,9.4447,7.108,-1.4061,21.727,-16.599,7.2626,-7.8188,9.6677,3.4541,13.123,18.954,53.915,-16.068,22.971
2.3492,37.279,9.5416,7.2052,-1.4733,21.829,-16.579,7.3181,-7.7211,9.7214,3.49,13.156,18.931,54.002,-16.028,23.062
2.3629,37.269,9.6379,7.3031,-1.5404,21.931,-16.558,7.3736,-7.6231,9.7755,3.5254,13.19,18.908,54.089,-15.988,23.153
2.3629,37.269,9.6379,7.3031,-1.5404,21.931,-16.558,7.3736,-7.6231,9.7755,3.5254,13.19,18.908,54.089,-15.988,23.153
2.3767,37.258,9.7336,7.4017,-1.6074,22.032,-16.538,7.4294,-7.5251,9.8299,3.5601,13.224,18.885,54.176,-15.947,23.244
2.3906,37.248,9.8289,7.501,-1.6744,22.133,-16.518,7.4852,-7.4269,9.8846,3.5942,13.258,18.862,54.262,-15.907,23.335
2.4045,37.237,9.9236,7.6011,-1.7413,22.234,-16.498,7.5413,-7.3286,9.9397,3.6278,13.292,18.839,54.348,-15.866,23.425
2.4045,37.237,9.9236,7.6011,-1.7413,22.234,-16.498,7.5413,-7.3286,9.9397,3.6278,13.292,18.839,54.348,-15.866,23.425
2.4186,37.227,10.018,7.7018,-1.8082,22.335,-16.479,7.5975,-7.2302,9.995,3.6607,13.327,18.816,54.434,-15.825,23.515
2.4327,37.218,10.111,7.8033,-1.875,22.435,-16.459,7.6538,-7.1317,10.051,3.693,13.362,18.793,54.52,-15.784,23.606
2.4469,37.208,10.204,7.9055,-1.9417,22.535,-16.44,7.7103,-7.0331,10.106,3.7248,13.397,18.769,54.606,-15.743,23.695
2.4612,37.199,10.297,8.0083,-2.0084,22.635,-16.421,7.7669,-6.9344,10.163,3.7559,13.433,18.746,54.691,-15.702,23.785
2.4612,37.199,10.297,8.0083,-2.0084,22.635,-16.421,7.7669,-6.9344,10.163,3.7559,13.433,18.746,54.691,-15.702,23.785
2.4755,37.19,10.389,8.1118,-2.0751,22.734,-16.402,7.8237,-6.8356,10.219,3.7864,13.469,18.723,54.776,-15.66,23.875
2.49,37.181,10.48,8.216,-2.1417,22.834,-16.383,7.8806,-6.7368,10.276,3.8163,13.505,18.699,54.861,-15.619,23.964
2.5044,37.172,10.571,8.3209,-2.2082,22.933,-16.365,7.9376,-6.6378,10.333,3.8455,13.542,18.676,54.946,-15.577,24.054
2.519,37.163,10.661,8.4264,-2.2747,23.031,-16.347,7.9948,-6.5388,10.39,3.8742,13.579,18.653,55.03,-15.535,24.143
2.519,37.163,10.661,8.4264,-2.2747,23.031,-16.347,7.9948,-6.5388,10.39,3.8742,13.579,18.653,55.03,-15.535,24.143
2.5336,37.155,10.751,8.5325,-2.3412,23.13,-16.329,8.0521,-6.4397,10.448,3.9023,13.616,18.629,55.114,-15.493,24.232
2.5483,37.147,10.84,8.6393,-2.4075,23.228,-16.311,8.1096,-6.3406,10.506,3.9297,13.653,18.606,55.198,-15.45,24.321
2.563,37.139,10.928,8.7467,-2.4739,23.326,-16.293,8.1672,-6.2414,10.564,3.9565,13.691,18.582,55.282,-15.408,24.409
2.563,37.139,10.928,8.7467,-2.4739,23.326,-16.293,8.1672,-6.2414,10.564,3.9565,13.691,18.582,55.282,-15.408,24.409
2.5778,37.131,11.016,8.8548,-2.5402,23.423,-16.276,8.2249,-6.1422,10.622,3.9828,13.729,18.559,55.366,-15.366,24.498
2.5926,37.124,11.103,8.9634,-2.6064,23.52,-16.258,8.2828,-6.0429,10.681,4.0083,13.767,18.535,55.449,-15.323,24.586
2.5926,37.124,11.103,8.9634,-2.6064,23.52,-16.258,8.2828,-6.0429,10.681,4.0083,13.767,18.535,55.449,-15.323,24.586
2.6075,37.116,11.19,9.0727,-2.6726,23.617,-16.241,8.3408,-5.9436,10.739,4.0333,13.806,18.512,55.532,-15.28,24.674
2.6075,37.116,11.19,9.0727,-2.6726,23.617,-16.241,8.3408,-5.9436,10.739,4.0333,13.806,18.512,55.532,-15.28,24.674
2.6224,37.109,11.276,9.1825,-2.7387,23.713,-16.225,8.3989,-5.8443,10.798,4.0577,13.845,18.488,55.615,-15.237,24.762
2.6374,37.102,11.361,9.293,-2.8048,23.81,-16.208,8.4571,-5.7449,10.858,4.0814,13.884,18.465,55.698,-15.194,24.849
2.6524,37.096,11.446,9.404,-2.8709,23.906,-16.192,8.5154,-5.6455,10.917,4.1046,13.923,18.441,55.78,-15.151,24.937
2.6675,37.089,11.53,9.5156,-2.9369,24.001,-16.176,8.5739,-5.5462,10.977,4.1271,13.963,18.417,55.862,-15.108,25.024
2.6675,37.089,11.53,9.5156,-2.9369,24.001,-16.176,8.5739,-5.5462,10.977,4.1271,13.963,18.417,55.862,-15.108,25.024
2.6825,37.083,11.614,9.6278,-3.0028,24.096,-16.16,8.6325,-5.4468,11.037,4.149,14.003,18.394,55.944,-15.064,25.111
2.6977,37.077,11.697,9.7405,-3.0687,24.191,-16.144,8.6911,-5.3474,11.097,4.1702,14.043,18.37,56.026,-15.021,25.198
2.7128,37.071,11.779,9.8537,-3.1346,24.286,-16.129,8.7499,-5.248,11.157,4.1909,14.083,18.347,56.108,-14.977,25.285
2.7128,37.071,11.779,9.8537,-3.1346,24.286,-16.129,8.7499,-5.248,11.157,4.1909,14.083,18.347,56.108,-14.977,25.285
2.728,37.066,11.861,9.9675,-3.2004,24.38,-16.114,8.8088,-5.1487,11.218,4.2109,14.124,18.323,56.189,-14.934,25.372
2.7432,37.06,11.942,10.082,-3.2662,24.474,-16.099,8.8678,-5.0493,11.279,4.2303,14.165,18.3,56.27,-14.89,25.458
2.7584,37.055,12.022,10.197,-3.3319,24.567,-16.084,8.9269,-4.95,11.34,4.2491,14.206,18.276,56.351,-14.846,25.544
2.7584,37.055,12.022,10.197,-3.3319,24.567,-16.084,8.9269,-4.95,11.34,4.2491,14.206,18.276,56.351,-14.846,25.544
2.7736,37.05,12.102,10.312,-3.3976,24.66,-16.07,8.9861,-4.8508,11.401,4.2673,14.247,18.253,56.432,-14.802,25.63
2.7889,37.045,12.181,10.428,-3.4633,24.753,-16.055,9.0454,-4.7515,11.462,4.2848,14.289,18.229,56.512,-14.758,25.716
2.7889,37.045,12.181,10.428,-3.4633,24.753,-16.055,9.0454,-4.7515,11.462,4.2848,14.289,18.229,56.512,-14.758,25.716
2.8042,37.041,12.259,10.544,-3.5289,24.845,-16.041,9.1048,-4.6523,11.524,4.3018,14.33,18.206,56.592,-14.714,25.802
2.8194,37.036,12.337,10.661,-3.5944,24.937,-16.028,9.1643,-4.5532,11.585,4.3181,14.373,18.182,56.672,-14.67,25.887
2.8347,37.032,12.414,10.778,-3.66,25.029,-16.014,9.2239,-4.4541,11.647,4.3338,14.415,18.159,56.752,-14.625,25.973
2.85,37.028,12.491,10.896,-3.7254,25.12,-16.001,9.2835,-4.3551,11.709,4.3488,14.457,18.136,56.832,-14.581,26.058
2.85,37.028,12.491,10.896,-3.7254,25.12,-16.001,9.2835,-4.3551,11.709,4.3488,14.457,18.136,56.832,-14.581,26.058
2.8653,37.024,12.567,11.014,-3.7909,25.21,-15.988,9.3433,-4.2561,11.771,4.3633,14.5,18.112,56.911,-14.536,26.142
2.8806,37.021,12.642,11.133,-3.8563,25.301,-15.975,9.4031,-4.1572,11.834,4.3771,14.543,18.089,56.99,-14.492,26.227
2.8959,37.017,12.717,11.252,-3.9216,25.391,-15.963,9.463,-4.0584,11.896,4.3903,14.586,18.066,57.068,-14.447,26.311
2.9111,37.014,12.79,11.371,-3.987,25.48,-15.95,9.5229,-3.9597,11.959,4.4029,14.629,18.042,57.147,-14.403,26.395
2.9111,37.014,12.79,11.371,-3.987,25.48,-15.95,9.5229,-3.9597,11.959,4.4029,14.629,18.042,57.147,-14.403,26.395
2.9264,37.011,12.864,11.491,-4.0523,25.57,-15.938,9.5829,-3.861,12.021,4.4149,14.673,18.019,57.225,-14.358,26.479
2.9416,37.008,12.936,11.611,-4.1175,25.658,-15.927,9.643,-3.7625,12.084,4.4263,14.717,17.996,57.303,-14.313,26.563
2.9569,37.005,13.008,11.732,-4.1827,25.747,-15.915,9.7032,-3.6641,12.147,4.437,14.76,17.973,57.381,-14.268,26.647
2.9721,37.003,13.079,11.853,-4.2479,25.835,-15.904,9.7634,-3.5657,12.21,4.4471,14.805,17.95,57.458,-14.224,26.73
2.9721,37.003,13.079,11.853,-4.2479,25.835,-15.904,9.7634,-3.5657,12.21,4.4471,14.805,17.95,57.458,-14.224,26.73
2.9721,37.003,13.079,11.853,-4.2479,25.835,-15.904,9.7634,-3.5657,12.21,4.4471,14.805,17.95,57.458,-14.224,26.73
2.9872,37.001,13.149,11.974,-4.313,25.922,-15.893,9.8237,-3.4675,12.273,4.4566,14.849,17.927,57.536,-14.179,26.813
2.9872,37.001,13.149,11.974,-4.313,25.922,-15.893,9.8237,-3.4675,12.273,4.4566,14.849,17.927,57.536,-14.179,26.813
2.9872,37.001,13.149,11.974,-4.313,25.922,-15.893,9.8237,-3.4675,12.273,4.4566,14.849,17.927,57.536,-14.179,26.813
3.0175,36.997,13.288,12.218,-4.4432,26.096,-15.872,9.9444,-3.2714,12.4,4.4738,14.938,17.881,57.689,-14.089,26.978
3.0326,36.995,13.357,12.34,-4.5083,26.182,-15.862,10.005,-3.1736,12.463,4.4815,14.983,17.858,57.766,-14.044,27.061
3.0477,36.993,13.424,12.463,-4.5733,26.268,-15.852,10.065,-3.0759,12.527,4.4886,15.028,17.835,57.842,-13.999,27.143
3.0627,36.992,13.491,12.586,-4.6382,26.353,-15.843,10.126,-2.9783,12.591,4.495,15.073,17.812,57.918,-13.954,27.225
3.0627,36.992,13.491,12.586,-4.6382,26.353,-15.843,10.126,-2.9783,12.591,4.495,15.073,17.812,57.918,-13.954,27.225
3.0777,36.991,13.558,12.709,-4.7032,26.438,-15.833,10.186,-2.8809,12.654,4.5009,15.118,17.789,57.994,-13.908,27.306
3.0926,36.99,13.623,12.833,-4.7681,26.522,-15.824,10.247,-2.7836,12.718,4.5061,15.164,17.767,58.069,-13.863,27.388
3.1075,36.989,13.688,12.957,-4.8329,26.606,-15.815,10.307,-2.6865,12.782,4.5107,15.209,17.744,58.144,-13.818,27.469
3.1223,36.988,13.752,13.081,-4.8978,26.689,-15.807,10.368,-2.5896,12.846,4.5148,15.255,17.721,58.219,-13.773,27.55
3.1223,36.988,13.752,13.081,-4.8978,26.689,-15.807,10.368,-2.5896,12.846,4.5148,15.255,17.721,58.219,-13.773,27.55
3.1371,36.988,13.816,13.205,-4.9626,26.772,-15.799,10.429,-2.4928,12.91,4.5182,15.301,17.699,58.293,-13.728,27.63
3.1518,36.988,13.879,13.33,-5.0274,26.855,-15.791,10.489,-2.3962,12.974,4.521,15.347,17.676,58.368,-13.683,27.711
3.1664,36.987,13.941,13.455,-5.0921,26.937,-15.783,10.55,-2.2998,13.038,4.5232,15.393,17.654,58.441,-13.637,27.791
3.181,36.987,14.002,13.58,-5.1568,27.018,-15.776,10.611,-2.2035,13.102,4.5248,15.439,17.632,58.515,-13.592,27.87
3.181,36.987,14.002,13.58,-5.1568,27.018,-15.776,10.611,-2.2035,13.102,4.5248,15.439,17.632,58.515,-13.592,27.87
3.181,36.987,14.002,13.58,-5.1568,27.018,-15.776,10.611,-2.2035,13.102,4.5248,15.439,17.632,58.515,-13.592,27.87
3.1956,36.988,14.063,13.706,-5.2215,27.099,-15.768,10.671,-2.1075,13.166,4.5258,15.486,17.609,58.588,-13.547,27.95
3.1956,36.988,14.063,13.706,-5.2215,27.099,-15.768,10.671,-2.1075,13.166,4.5258,15.486,17.609,58.588,-13.547,27.95
3.1956,36.988,14.063,13.706,-5.2215,27.099,-15.768,10.671,-2.1075,13.166,4.5258,15.486,17.609,58.588,-13.547,27.95
3.2244,36.988,14.182,13.957,-5.3507,27.26,-15.755,10.793,-1.916,13.294,4.5261,15.579,17.565,58.734,-13.456,28.108
3.2387,36.989,14.24,14.083,-5.4153,27.339,-15.749,10.853,-1.8205,13.358,4.5253,15.625,17.543,58.807,-13.411,28.187
3.2529,36.99,14.298,14.209,-5.4799,27.418,-15.743,10.914,-1.7253,13.422,4.5239,15.672,17.521,58.879,-13.366,28.266
3.267,36.991,14.355,14.335,-5.5444,27.497,-15.737,10.975,-1.6303,13.487,4.522,15.719,17.499,58.95,-13.321,28.344
3.2811,36.992,14.411,14.461,-5.6089,27.575,-15.731,11.035,-1.5355,13.551,4.5194,15.766,17.477,59.022,-13.275,28.422
3.2811,36.992,14.411,14.461,-5.6089,27.575,-15.731,11.035,-1.5355,13.551,4.5194,15.766,17.477,59.022,-13.275,28.422
3.2951,36.993,14.467,14.588,-5.6734,27.652,-15.726,11.096,-1.4409,13.615,4.5163,15.813,17.455,59.093,-13.23,28.499
3.3089,36.994,14.522,14.715,-5.7378,27.729,-15.721,11.156,-1.3466,13.679,4.5126,15.86,17.433,59.164,-13.185,28.577
3.3089,36.994,14.522,14.715,-5.7378,27.729,-15.721,11.156,-1.3466,13.679,4.5126,15.86,17.433,59.164,-13.185,28.577
3.3227,36.996,14.576,14.841,-5.8022,27.806,-15.717,11.217,-1.2525,13.743,4.5083,15.907,17.412,59.234,-13.14,28.654
3.3364,36.997,14.629,14.968,-5.8666,27.882,-15.712,11.278,-1.1587,13.807,4.5034,15.955,17.39,59.304,-13.095,28.73
3.3499,36.999,14.682,15.095,-5.9309,27.957,-15.708,11.338,-1.0651,13.871,4.498,16.002,17.368,59.374,-13.05,28.807
3.3634,37.001,14.734,15.222,-5.9952,28.032,-15.705,11.399,-0.97176,13.935,4.4919,16.049,17.347,59.444,-13.005,28.883
3.3768,37.003,14.785,15.349,-6.0595,28.106,-15.701,11.459,-0.87868,13.999,4.4853,16.097,17.326,59.513,-12.959,28.959
3.3768,37.003,14.785,15.349,-6.0595,28.106,-15.701,11.459,-0.87868,13.999,4.4853,16.097,17.326,59.513,-12.959,28.959
3.39,37.005,14.836,15.477,-6.1237,28.18,-15.698,11.519,-0.78587,14.063,4.4781,16.144,17.304,59.582,-12.914,29.034
3.4031,37.007,14.885,15.604,-6.188,28.253,-15.695,11.58,-0.69332,14.127,4.4704,16.192,17.283,59.65,-12.869,29.109
3.4031,37.007,14.885,15.604,-6.188,28.253,-15.695,11.58,-0.69332,14.127,4.4704,16.192,17.283,59.65,-12.869,29.109
3.4161,37.01,14.934,15.731,-6.2522,28.326,-15.692,11.64,-0.60106,14.191,4.4621,16.239,17.262,59.718,-12.824,29.184
3.429,37.012,14.983,15.858,-6.3163,28.398,-15.69,11.7,-0.50907,14.254,4.4532,16.287,17.241,59.786,-12.78,29.259
3.4418,37.015,15.03,15.985,-6.3804,28.47,-15.688,11.76,-0.41737,14.318,4.4437,16.334,17.22,59.853,-12.735,29.333
3.4544,37.017,15.077,16.113,-6.4445,28.541,-15.686,11.82,-0.32596,14.381,4.4337,16.382,17.199,59.92,-12.69,29.407
3.4544,37.017,15.077,16.113,-6.4445,28.541,-15.686,11.82,-0.32596,14.381,4.4337,16.382,17.199,59.92,-12.69,29.407
3.4669,37.02,15.123,16.24,-6.5086,28.611,-15.684,11.88,-0.23485,14.445,4.4231,16.43,17.178,59.986,-12.645,29.48
3.4793,37.023,15.168,16.367,-6.5727,28.681,-15.683,11.94,-0.14404,14.508,4.412,16.477,17.157,60.053,-12.6,29.554
3.4915,37.026,15.213,16.494,-6.6367,28.75,-15.682,12,-0.05353,14.571,4.4003,16.525,17.136,60.118,-12.556,29.626
3.5036,37.029,15.257,16.621,-6.7006,28.819,-15.682,12.059,0.036665,14.634,4.3881,16.572,17.116,60.184,-12.511,29.699
3.5036,37.029,15.257,16.621,-6.7006,28.819,-15.682,12.059,0.036665,14.634,4.3881,16.572,17.116,60.184,-12.511,29.699
3.5156,37.032,15.3,16.748,-6.7646,28.887,-15.681,12.119,0.12654,14.697,4.3753,16.62,17.095,60.249,-12.466,29.771
3.5274,37.035,15.342,16.875,-6.8285,28.954,-15.681,12.179,0.2161,14.76,4.362,16.668,17.075,60.313,-12.422,29.843
3.539,37.038,15.384,17.002,-6.8924,29.021,-15.681,12.238,0.30533,14.823,4.3481,16.715,17.054,60.377,-12.377,29.914
3.539,37.038,15.384,17.002,-6.8924,29.021,-15.681,12.238,0.30533,14.823,4.3481,16.715,17.054,60.377,-12.377,29.914
3.5505,37.042,15.425,17.129,-6.9562,29.088,-15.682,12.297,0.39423,14.886,4.3337,16.763,17.034,60.441,-12.333,29.985
3.5619,37.045,15.465,17.256,-7.02,29.153,-15.682,12.356,0.48279,14.948,4.3188,16.81,17.014,60.504,-12.289,30.056
3.5619,37.045,15.465,17.256,-7.02,29.153,-15.682,12.356,0.48279,14.948,4.3188,16.81,17.014,60.504,-12.289,30.056
3.5731,37.048,15.504,17.382,-7.0838,29.219,-15.683,12.415,0.57102,15.01,4.3033,16.857,16.993,60.567,-12.245,30.126
3.5841,37.052,15.543,17.508,-7.1476,29.283,-15.685,12.474,0.65889,15.073,4.2873,16.905,16.973,60.63,-12.2,30.196
3.595,37.055,15.581,17.635,-7.2113,29.347,-15.686,12.533,0.74642,15.135,4.2707,16.952,16.953,60.692,-12.156,30.266
3.6056,37.059,15.618,17.761,-7.2749,29.41,-15.688,12.592,0.83359,15.196,4.2536,16.999,16.933,60.753,-12.112,30.335
3.6056,37.059,15.618,17.761,-7.2749,29.41,-15.688,12.592,0.83359,15.196,4.2536,16.999,16.933,60.753,-12.112,30.335
3.6162,37.063,15.654,17.887,-7.3386,29.473,-15.69,12.65,0.9204,15.258,4.236,17.046,16.913,60.814,-12.068,30.404
3.6265,37.066,15.69,18.012,-7.4022,29.535,-15.692,12.709,1.0068,15.32,4.2179,17.093,16.894,60.875,-12.024,30.472
3.6367,37.07,15.725,18.138,-7.4658,29.596,-15.695,12.767,1.0929,15.381,4.1993,17.14,16.874,60.935,-11.981,30.54
3.6467,37.074,15.759,18.263,-7.5293,29.657,-15.698,12.825,1.1786,15.442,4.1801,17.187,16.854,60.995,-11.937,30.608
3.6467,37.074,15.759,18.263,-7.5293,29.657,-15.698,12.825,1.1786,15.442,4.1801,17.187,16.854,60.995,-11.937,30.608
3.6565,37.078,15.792,18.388,-7.5928,29.717,-15.701,12.883,1.2639,15.503,4.1605,17.234,16.835,61.054,-11.893,30.675
3.6661,37.082,15.825,18.513,-7.6563,29.777,-15.705,12.941,1.3489,15.564,4.1403,17.281,16.815,61.113,-11.85,30.742
3.6661,37.082,15.825,18.513,-7.6563,29.777,-15.705,12.941,1.3489,15.564,4.1403,17.281,16.815,61.113,-11.85,30.742
3.6755,37.086,15.857,18.638,-7.7197,29.836,-15.708,12.999,1.4334,15.624,4.1196,17.327,16.796,61.171,-11.806,30.808
3.6755,37.086,15.857,18.638,-7.7197,29.836,-15.708,12.999,1.4334,15.624,4.1196,17.327,16.796,61.171,-11.806,30.808
3.6755,37.086,15.857,18.638,-7.7197,29.836,-15.708,12.999,1.4334,15.624,4.1196,17.327,16.796,61.171,-11.806,30.808
3.6847,37.089,15.888,18.762,-7.7831,29.894,-15.712,13.056,1.5176,15.684,4.0984,17.374,16.776,61.229,-11.763,30.874
3.6938,37.093,15.919,18.886,-7.8464,29.952,-15.717,13.113,1.6013,15.744,4.0767,17.42,16.757,61.286,-11.72,30.939
3.7026,37.097,15.948,19.01,-7.9097,30.009,-15.721,13.171,1.6847,15.804,4.0546,17.466,16.738,61.343,-11.677,31.004
3.7026,37.097,15.948,19.01,-7.9097,30.009,-15.721,13.171,1.6847,15.804,4.0546,17.466,16.738,61.343,-11.677,31.004
3.7113,37.101,15.977,19.133,-7.973,30.065,-15.726,13.228,1.7676,15.864,4.0319,17.512,16.719,61.399,-11.634,31.069
3.7197,37.105,16.006,19.256,-8.0362,30.121,-15.731,13.284,1.8502,15.923,4.0087,17.558,16.7,61.455,-11.591,31.133
3.7279,37.109,16.033,19.379,-8.0994,30.176,-15.736,13.341,1.9323,15.982,3.9851,17.604,16.681,61.51,-11.548,31.197
3.7279,37.109,16.033,19.379,-8.0994,30.176,-15.736,13.341,1.9323,15.982,3.9851,17.604,16.681,61.51,-11.548,31.197
3.736,37.113,16.06,19.502,-8.1625,30.23,-15.742,13.397,2.014,16.041,3.9609,17.649,16.662,61.565,-11.505,31.26
3.7438,37.117,16.086,19.624,-8.2256,30.284,-15.748,13.453,2.0953,16.1,3.9363,17.695,16.643,61.619,-11.463,31.323
3.7514,37.121,16.111,19.746,-8.2887,30.337,-15.754,13.509,2.1761,16.158,3.9112,17.74,16.624,61.673,-11.42,31.385
3.7587,37.124,16.136,19.867,-8.3517,30.389,-15.76,13.565,2.2565,16.216,3.8857,17.785,16.605,61.726,-11.378,31.447
3.7587,37.124,16.136,19.867,-8.3517,30.389,-15.76,13.565,2.2565,16.216,3.8857,17.785,16.605,61.726,-11.378,31.447
3.7659,37.128,16.16,19.988,-8.4146,30.441,-15.767,13.621,2.3365,16.274,3.8597,17.83,16.587,61.778,-11.336,31.509
3.7728,37.132,16.183,20.109,-8.4775,30.492,-15.773,13.676,2.416,16.331,3.8332,17.875,16.568,61.83,-11.294,31.57
3.7795,37.136,16.205,20.229,-8.5404,30.542,-15.781,13.731,2.4951,16.388,3.8062,17.919,16.55,61.882,-11.252,31.63
3.786,37.139,16.227,20.349,-8.6032,30.592,-15.788,13.786,2.5737,16.445,3.7788,17.963,16.531,61.933,-11.21,31.69
3.786,37.139,16.227,20.349,-8.6032,30.592,-15.788,13.786,2.5737,16.445,3.7788,17.963,16.531,61.933,-11.21,31.69
3.7922,37.143,16.248,20.469,-8.666,30.641,-15.795,13.84,2.6519,16.502,3.7509,18.007,16.513,61.983,-11.168,31.75
3.7983,37.146,16.268,20.588,-8.7287,30.689,-15.803,13.895,2.7296,16.558,3.7226,18.051,16.495,62.033,-11.126,31.809
3.804,37.15,16.288,20.706,-8.7914,30.736,-15.811,13.949,2.8069,16.614,3.6938,18.095,16.476,62.082,-11.085,31.867
3.804,37.15,16.288,20.706,-8.7914,30.736,-15.811,13.949,2.8069,16.614,3.6938,18.095,16.476,62.082,-11.085,31.867
3.8096,37.153,16.306,20.824,-8.854,30.783,-15.82,14.003,2.8837,16.67,3.6646,18.138,16.458,62.13,-11.044,31.925
3.8148,37.157,16.324,20.942,-8.9165,30.83,-15.828,14.056,2.96,16.725,3.635,18.181,16.44,62.178,-11.002,31.983
3.8199,37.16,16.342,21.059,-8.979,30.875,-15.837,14.11,3.0358,16.78,3.6049,18.224,16.422,62.225,-10.961,32.04
3.8247,37.163,16.358,21.176,-9.0415,30.92,-15.846,14.163,3.1112,16.834,3.5743,18.267,16.404,62.272,-10.92,32.096
3.8247,37.163,16.358,21.176,-9.0415,30.92,-15.846,14.163,3.1112,16.834,3.5743,18.267,16.404,62.272,-10.92,32.096
3.8292,37.166,16.374,21.292,-9.1038,30.964,-15.855,14.215,3.1861,16.889,3.5434,18.309,16.386,62.318,-10.879,32.152
3.8335,37.169,16.389,21.408,-9.1662,31.007,-15.865,14.268,3.2604,16.942,3.512,18.351,16.368,62.364,-10.839,32.207
3.8335,37.169,16.389,21.408,-9.1662,31.007,-15.865,14.268,3.2604,16.942,3.512,18.351,16.368,62.364,-10.839,32.207
3.8375,37.172,16.404,21.523,-9.2284,31.05,-15.875,14.32,3.3343,16.996,3.4802,18.393,16.35,62.408,-10.798,32.262
3.8413,37.175,16.418,21.637,-9.2906,31.092,-15.884,14.372,3.4077,17.049,3.448,18.435,16.332,62.453,-10.758,32.317
3.8448,37.178,16.431,21.751,-9.3528,31.133,-15.895,14.424,3.4806,17.102,3.4153,18.476,16.315,62.496,-10.718,32.37
3.8481,37.18,16.443,21.864,-9.4149,31.174,-15.905,14.475,3.553,17.154,3.3823,18.517,16.297,62.539,-10.678,32.423
3.8511,37.183,16.455,21.977,-9.4769,31.213,-15.916,14.526,3.6249,17.206,3.3488,18.558,16.279,62.581,-10.638,32.476
3.8511,37.183,16.455,21.977,-9.4769,31.213,-15.916,14.526,3.6249,17.206,3.3488,18.558,16.279,62.581,-10.638,32.476
3.8538,37.185,16.466,22.089,-9.5388,31.252,-15.927,14.577,3.6963,17.258,3.315,18.598,16.262,62.622,-10.598,32.528
3.8562,37.187,16.476,22.201,-9.6007,31.291,-15.938,14.627,3.7671,17.309,3.2807,18.638,16.244,62.663,-10.558,32.58
3.8584,37.189,16.485,22.312,-9.6626,31.328,-15.949,14.677,3.8375,17.36,3.2461,18.678,16.227,62.703,-10.519,32.631
3.8584,37.189,16.485,22.312,-9.6626,31.328,-15.949,14.677,3.8375,17.36,3.2461,18.678,16.227,62.703,-10.519,32.631
3.8603,37.191,16.494,22.422,-9.7243,31.365,-15.96,14.727,3.9073,17.41,3.211,18.717,16.209,62.743,-10.48,32.681
3.8619,37.193,16.502,22.532,-9.786,31.401,-15.972,14.776,3.9766,17.46,3.1756,18.756,16.192,62.782,-10.441,32.731
3.8633,37.195,16.51,22.641,-9.8476,31.437,-15.984,14.825,4.0453,17.51,3.1398,18.795,16.174,62.82,-10.402,32.78
3.8643,37.196,16.516,22.75,-9.9091,31.471,-15.996,14.874,4.1135,17.559,3.1036,18.833,16.157,62.857,-10.363,32.829
3.8643,37.196,16.516,22.75,-9.9091,31.471,-15.996,14.874,4.1135,17.559,3.1036,18.833,16.157,62.857,-10.363,32.829
3.8651,37.197,16.523,22.857,-9.9706,31.505,-16.008,14.922,4.1812,17.607,3.067,18.871,16.14,62.893,-10.324,32.877
3.8656,37.198,16.528,22.964,-10.032,31.538,-16.021,14.97,4.2483,17.656,3.0301,18.909,16.123,62.929,-10.286,32.924
3.8658,37.199,16.533,23.071,-10.093,31.571,-16.034,15.018,4.3149,17.703,2.9928,18.946,16.105,62.964,-10.247,32.971
3.8658,37.199,16.533,23.071,-10.093,31.571,-16.034,15.018,4.3149,17.703,2.9928,18.946,16.105,62.964,-10.247,32.971
3.8657,37.2,16.537,23.176,-10.155,31.603,-16.046,15.065,4.381,17.751,2.9551,18.983,16.088,62.999,-10.209,33.017
3.8657,37.2,16.537,23.176,-10.155,31.603,-16.046,15.065,4.381,17.751,2.9551,18.983,16.088,62.999,-10.209,33.017
3.8657,37.2,16.537,23.176,-10.155,31.603,-16.046,15.065,4.381,17.751,2.9551,18.983,16.088,62.999,-10.209,33.017
3.8653,37.201,16.54,23.281,-10.216,31.633,-16.06,15.112,4.4465,17.797,2.9171,19.019,16.071,63.032,-10.171,33.062
3.8653,37.201,16.54,23.281,-10.216,31.633,-16.06,15.112,4.4465,17.797,2.9171,19.019,16.071,63.032,-10.171,33.062
3.8653,37.201,16.54,23.281,-10.216,31.633,-16.06,15.112,4.4465,17.797,2.9171,19.019,16.071,63.032,-10.171,33.062
3.8636,37.201,16.545,23.489,-10.338,31.693,-16.086,15.205,4.5758,17.89,2.8399,19.091,16.037,63.097,-10.096,33.152
3.8623,37.201,16.546,23.591,-10.399,31.722,-16.1,15.25,4.6396,17.935,2.8008,19.126,16.02,63.129,-10.059,33.195
3.8607,37.201,16.547,23.693,-10.459,31.75,-16.114,15.296,4.7028,17.98,2.7614,19.161,16.003,63.159,-10.022,33.238
3.8588,37.2,16.547,23.795,-10.52,31.777,-16.128,15.341,4.7655,18.024,2.7216,19.196,15.986,63.189,-9.9846,33.28
3.8588,37.2,16.547,23.795,-10.52,31.777,-16.128,15.341,4.7655,18.024,2.7216,19.196,15.986,63.189,-9.9846,33.28
3.8566,37.199,16.546,23.895,-10.581,31.803,-16.142,15.385,4.8276,18.068,2.6815,19.23,15.969,63.218,-9.9478,33.322
3.8541,37.198,16.545,23.994,-10.641,31.829,-16.156,15.429,4.8891,18.111,2.6411,19.263,15.952,63.246,-9.9112,33.363
3.8513,37.197,16.543,24.093,-10.702,31.853,-16.171,15.473,4.9501,18.154,2.6003,19.296,15.935,63.273,-9.8748,33.403
3.8482,37.195,16.54,24.191,-10.762,31.877,-16.186,15.516,5.0105,18.197,2.5592,19.329,15.918,63.3,-9.8386,33.443
3.8482,37.195,16.54,24.191,-10.762,31.877,-16.186,15.516,5.0105,18.197,2.5592,19.329,15.918,63.3,-9.8386,33.443
3.8447,37.194,16.537,24.288,-10.822,31.901,-16.201,15.559,5.0702,18.238,2.5178,19.361,15.901,63.325,-9.8025,33.482
3.841,37.192,16.533,24.384,-10.883,31.923,-16.216,15.601,5.1294,18.28,2.4761,19.393,15.884,63.35,-9.7667,33.52
3.8369,37.189,16.528,24.48,-10.943,31.945,-16.231,15.643,5.188,18.32,2.4341,19.424,15.867,63.374,-9.7311,33.558
3.8325,37.187,16.523,24.574,-11.003,31.966,-16.246,15.685,5.246,18.361,2.3917,19.455,15.85,63.397,-9.6956,33.595
3.8325,37.187,16.523,24.574,-11.003,31.966,-16.246,15.685,5.246,18.361,2.3917,19.455,15.85,63.397,-9.6956,33.595
3.8277,37.184,16.517,24.668,-11.062,31.986,-16.262,15.726,5.3034,18.4,2.3491,19.485,15.833,63.42,-9.6604,33.631
3.8227,37.181,16.511,24.761,-11.122,32.005,-16.277,15.766,5.3602,18.439,2.3062,19.515,15.817,63.441,-9.6254,33.666
3.8173,37.177,16.504,24.852,-11.182,32.024,-16.293,15.807,5.4164,18.478,2.2629,19.544,15.8,63.462,-9.5906,33.701
3.8173,37.177,16.504,24.852,-11.182,32.024,-16.293,15.807,5.4164,18.478,2.2629,19.544,15.8,63.462,-9.5906,33.701
3.8116,37.173,16.496,24.943,-11.241,32.041,-16.309,15.846,5.472,18.516,2.2194,19.573,15.783,63.481,-9.556,33.735
3.8056,37.169,16.488,25.033,-11.301,32.058,-16.325,15.885,5.527,18.553,2.1756,19.601,15.766,63.5,-9.5216,33.768
3.7992,37.165,16.479,25.122,-11.36,32.075,-16.341,15.924,5.5814,18.59,2.1315,19.629,15.749,63.518,-9.4874,33.801
3.7992,37.165,16.479,25.122,-11.36,32.075,-16.341,15.924,5.5814,18.59,2.1315,19.629,15.749,63.518,-9.4874,33.801
3.7925,37.16,16.469,25.21,-11.419,32.09,-16.358,15.962,5.6351,18.626,2.0871,19.656,15.732,63.535,-9.4535,33.833
3.7855,37.155,16.459,25.298,-11.478,32.105,-16.374,16,5.6882,18.661,2.0425,19.683,15.715,63.551,-9.4197,33.864
3.7782,37.15,16.448,25.384,-11.537,32.118,-16.391,16.037,5.7408,18.696,1.9976,19.709,15.699,63.566,-9.3862,33.894
3.7782,37.15,16.448,25.384,-11.537,32.118,-16.391,16.037,5.7408,18.696,1.9976,19.709,15.699,63.566,-9.3862,33.894
3.7705,37.144,16.436,25.469,-11.596,32.131,-16.408,16.074,5.7926,18.73,1.9524,19.734,15.682,63.58,-9.3529,33.924
3.7624,37.138,16.424,25.553,-11.655,32.143,-16.425,16.11,5.8439,18.764,1.907,19.759,15.665,63.594,-9.3198,33.952
3.754,37.132,16.412,25.637,-11.713,32.155,-16.441,16.146,5.8945,18.797,1.8613,19.784,15.648,63.606,-9.287,33.98
3.754,37.132,16.412,25.637,-11.713,32.155,-16.441,16.146,5.8945,18.797,1.8613,19.784,15.648,63.606,-9.287,33.98
3.7453,37.125,16.399,25.719,-11.772,32.165,-16.459,16.181,5.9445,18.83,1.8153,19.808,15.631,63.618,-9.2543,34.008
3.7363,37.118,16.385,25.8,-11.83,32.175,-16.476,16.216,5.9939,18.862,1.7691,19.831,15.614,63.628,-9.2219,34.034
3.7268,37.11,16.37,25.88,-11.888,32.184,-16.493,16.25,6.0426,18.893,1.7227,19.854,15.597,63.638,-9.1897,34.06
3.7171,37.102,16.355,25.96,-11.947,32.192,-16.511,16.283,6.0907,18.923,1.676,19.876,15.58,63.646,-9.1578,34.085
3.7171,37.102,16.355,25.96,-11.947,32.192,-16.511,16.283,6.0907,18.923,1.676,19.876,15.58,63.646,-9.1578,34.085
3.707,37.094,16.34,26.038,-12.005,32.199,-16.528,16.316,6.1381,18.953,1.6291,19.897,15.563,63.654,-9.1261,34.109
3.6965,37.085,16.324,26.115,-12.062,32.206,-16.546,16.349,6.1849,18.982,1.582,19.918,15.546,63.66,-9.0946,34.132
3.6857,37.076,16.307,26.191,-12.12,32.212,-16.563,16.381,6.2311,19.011,1.5346,19.939,15.529,63.666,-9.0634,34.154
3.6746,37.067,16.289,26.266,-12.178,32.216,-16.581,16.412,6.2766,19.039,1.487,19.958,15.512,63.671,-9.0324,34.176
3.6746,37.067,16.289,26.266,-12.178,32.216,-16.581,16.412,6.2766,19.039,1.487,19.958,15.512,63.671,-9.0324,34.176
3.6631,37.057,16.272,26.34,-12.235,32.221,-16.599,16.443,6.3214,19.066,1.4392,19.978,15.495,63.674,-9.0016,34.197
3.6512,37.046,16.253,26.413,-12.292,32.224,-16.617,16.473,6.3656,19.092,1.3912,19.996,15.478,63.677,-8.9711,34.217
3.639,37.035,16.234,26.484,-12.349,32.226,-16.635,16.503,6.4092,19.118,1.3429,20.014,15.461,63.678,-8.9408,34.236
3.639,37.035,16.234,26.484,-12.349,32.226,-16.635,16.503,6.4092,19.118,1.3429,20.014,15.461,63.678,-8.9408,34.236
3.6264,37.024,16.215,26.555,-12.406,32.228,-16.653,16.532,6.452,19.143,1.2945,20.031,15.444,63.679,-8.9108,34.254
3.6135,37.012,16.195,26.624,-12.463,32.228,-16.672,16.56,6.4943,19.168,1.2458,20.048,15.426,63.679,-8.881,34.272
3.6002,37,16.174,26.693,-12.52,32.228,-16.69,16.588,6.5358,19.191,1.197,20.063,15.409,63.677,-8.8514,34.288
3.6002,37,16.174,26.693,-12.52,32.228,-16.69,16.588,6.5358,19.191,1.197,20.063,15.409,63.677,-8.8514,34.288
3.5866,36.988,16.153,26.76,-12.576,32.227,-16.708,16.615,6.5767,19.214,1.148,20.079,15.392,63.675,-8.8221,34.304
3.5866,36.988,16.153,26.76,-12.576,32.227,-16.708,16.615,6.5767,19.214,1.148,20.079,15.392,63.675,-8.8221,34.304
3.5726,36.975,16.131,26.826,-12.633,32.226,-16.727,16.642,6.6169,19.237,1.0988,20.093,15.375,63.671,-8.7931,34.319
3.5582,36.961,16.109,26.891,-12.689,32.223,-16.745,16.668,6.6564,19.258,1.0493,20.107,15.357,63.666,-8.7643,34.333
3.5434,36.947,16.086,26.955,-12.745,32.219,-16.764,16.693,6.6953,19.279,0.99976,20.12,15.34,63.66,-8.7357,34.346
3.5434,36.947,16.086,26.955,-12.745,32.219,-16.764,16.693,6.6953,19.279,0.99976,20.12,15.34,63.66,-8.7357,34.346
3.5284,36.933,16.063,27.017,-12.801,32.215,-16.782,16.718,6.7335,19.299,0.94999,20.133,15.322,63.654,-8.7075,34.359
3.5129,36.918,16.039,27.079,-12.857,32.21,-16.801,16.742,6.771,19.318,0.90006,20.144,15.305,63.646,-8.6794,34.37
3.4971,36.902,16.014,27.139,-12.912,32.204,-16.82,16.765,6.8079,19.337,0.84995,20.156,15.287,63.637,-8.6517,34.38
3.4971,36.902,16.014,27.139,-12.912,32.204,-16.82,16.765,6.8079,19.337,0.84995,20.156,15.287,63.637,-8.6517,34.38
3.4809,36.886,15.989,27.198,-12.968,32.197,-16.838,16.788,6.8441,19.355,0.79969,20.166,15.269,63.627,-8.6241,34.39
3.4643,36.87,15.964,27.255,-13.023,32.19,-16.857,16.81,6.8795,19.372,0.74926,20.176,15.252,63.616,-8.5969,34.399
3.4474,36.853,15.938,27.312,-13.078,32.181,-16.876,16.832,6.9143,19.388,0.69868,20.185,15.234,63.603,-8.5699,34.407
3.4474,36.853,15.938,27.312,-13.078,32.181,-16.876,16.832,6.9143,19.388,0.69868,20.185,15.234,63.603,-8.5699,34.407
3.4301,36.835,15.912,27.367,-13.133,32.172,-16.895,16.853,6.9485,19.404,0.64794,20.193,15.216,63.59,-8.5432,34.413
3.4124,36.817,15.885,27.422,-13.187,32.162,-16.914,16.873,6.9819,19.418,0.59706,20.2,15.198,63.575,-8.5167,34.419
3.4124,36.817,15.885,27.422,-13.187,32.162,-16.914,16.873,6.9819,19.418,0.59706,20.2,15.198,63.575,-8.5167,34.419
3.3944,36.798,15.858,27.474,-13.242,32.151,-16.932,16.893,7.0146,19.432,0.54604,20.207,15.18,63.56,-8.4905,34.425
3.3944,36.798,15.858,27.474,-13.242,32.151,-16.932,16.893,7.0146,19.432,0.54604,20.207,15.18,63.56,-8.4905,34.425
3.3944,36.798,15.858,27.474,-13.242,32.151,-16.932,16.893,7.0146,19.432,0.54604,20.207,15.18,63.56,-8.4905,34.425
3.3572,36.759,15.801,27.576,-13.35,32.126,-16.97,16.93,7.078,19.458,0.44358,20.218,15.144,63.525,-8.4389,34.432
3.338,36.739,15.773,27.625,-13.404,32.112,-16.989,16.947,7.1087,19.47,0.39215,20.223,15.126,63.506,-8.4135,34.434
3.3185,36.718,15.743,27.673,-13.458,32.098,-17.008,16.964,7.1387,19.48,0.3406,20.227,15.108,63.486,-8.3884,34.435
3.2986,36.697,15.713,27.72,-13.512,32.083,-17.027,16.98,7.168,19.49,0.28893,20.23,15.09,63.464,-8.3636,34.436
3.2986,36.697,15.713,27.72,-13.512,32.083,-17.027,16.98,7.168,19.49,0.28893,20.23,15.09,63.464,-8.3636,34.436
3.2783,36.675,15.683,27.765,-13.565,32.067,-17.046,16.995,7.1965,19.5,0.23714,20.232,15.071,63.442,-8.339,34.435
3.2576,36.652,15.653,27.809,-13.618,32.05,-17.065,17.01,7.2244,19.508,0.18523,20.234,15.053,63.418,-8.3147,34.434
3.2576,36.652,15.653,27.809,-13.618,32.05,-17.065,17.01,7.2244,19.508,0.18523,20.234,15.053,63.418,-8.3147,34.434
3.2366,36.629,15.621,27.852,-13.671,32.032,-17.084,17.024,7.2516,19.515,0.13321,20.234,15.034,63.393,-8.2907,34.431
3.2152,36.605,15.59,27.893,-13.724,32.013,-17.103,17.037,7.2781,19.522,0.081093,20.234,15.016,63.367,-8.267,34.428
3.1934,36.581,15.558,27.933,-13.776,31.993,-17.121,17.05,7.3038,19.528,0.028871,20.233,14.997,63.34,-8.2435,34.423
3.1712,36.556,15.525,27.972,-13.829,31.973,-17.14,17.061,7.3289,19.533,-0.023449,20.232,14.978,63.311,-8.2203,34.418
3.1487,36.53,15.492,28.009,-13.881,31.952,-17.159,17.072,7.3533,19.537,-0.075861,20.229,14.959,63.282,-8.1974,34.411
3.1487,36.53,15.492,28.009,-13.881,31.952,-17.159,17.072,7.3533,19.537,-0.075861,20.229,14.959,63.282,-8.1974,34.411
3.1257,36.504,15.459,28.045,-13.933,31.93,-17.178,17.083,7.3769,19.541,-0.12836,20.226,14.94,63.251,-8.1748,34.404
3.1024,36.477,15.425,28.08,-13.985,31.907,-17.197,17.092,7.3999,19.543,-0.18095,20.222,14.921,63.219,-8.1525,34.395
3.0787,36.449,15.391,28.113,-14.036,31.883,-17.215,17.101,7.4221,19.545,-0.23361,20.217,14.902,63.186,-8.1304,34.386
3.0787,36.449,15.391,28.113,-14.036,31.883,-17.215,17.101,7.4221,19.545,-0.23361,20.217,14.902,63.186,-8.1304,34.386
3.0547,36.421,15.356,28.145,-14.088,31.858,-17.234,17.109,7.4436,19.546,-0.28636,20.211,14.883,63.151,-8.1087,34.376
3.0302,36.392,15.321,28.176,-14.139,31.832,-17.253,17.116,7.4644,19.545,-0.33917,20.204,14.864,63.115,-8.0872,34.364
3.0054,36.363,15.286,28.205,-14.19,31.806,-17.271,17.123,7.4846,19.544,-0.39206,20.197,14.844,63.078,-8.066,34.352
2.9802,36.332,15.25,28.233,-14.24,31.779,-17.29,17.128,7.5039,19.543,-0.44501,20.189,14.825,63.04,-8.0451,34.338
2.9802,36.332,15.25,28.233,-14.24,31.779,-17.29,17.128,7.5039,19.543,-0.44501,20.189,14.825,63.04,-8.0451,34.338
2.9546,36.302,15.214,28.259,-14.291,31.75,-17.308,17.133,7.5226,19.54,-0.49801,20.18,14.805,63,-8.0245,34.324
2.9286,36.27,15.177,28.285,-14.341,31.721,-17.326,17.138,7.5406,19.536,-0.55108,20.17,14.785,62.96,-8.0042,34.308
2.9286,36.27,15.177,28.285,-14.341,31.721,-17.326,17.138,7.5406,19.536,-0.55108,20.17,14.785,62.96,-8.0042,34.308
2.9022,36.238,15.14,28.308,-14.391,31.691,-17.345,17.141,7.5578,19.532,-0.6042,20.159,14.765,62.918,-7.9842,34.292
2.8755,36.205,15.103,28.331,-14.441,31.66,-17.363,17.143,7.5744,19.526,-0.65736,20.147,14.745,62.874,-7.9644,34.274
2.8484,36.171,15.065,28.351,-14.49,31.629,-17.381,17.145,7.5902,19.52,-0.71057,20.135,14.725,62.83,-7.945,34.256
2.8209,36.137,15.027,28.371,-14.539,31.596,-17.399,17.146,7.6053,19.513,-0.76382,20.122,14.705,62.784,-7.9258,34.236
2.8209,36.137,15.027,28.371,-14.539,31.596,-17.399,17.146,7.6053,19.513,-0.76382,20.122,14.705,62.784,-7.9258,34.236
2.793,36.102,14.988,28.389,-14.588,31.563,-17.417,17.146,7.6197,19.505,-0.8171,20.107,14.685,62.737,-7.907,34.215
2.793,36.102,14.988,28.389,-14.588,31.563,-17.417,17.146,7.6197,19.505,-0.8171,20.107,14.685,62.737,-7.907,34.215
2.7647,36.066,14.95,28.406,-14.637,31.529,-17.435,17.146,7.6334,19.496,-0.87042,20.092,14.664,62.688,-7.8884,34.194
2.7647,36.066,14.95,28.406,-14.637,31.529,-17.435,17.146,7.6334,19.496,-0.87042,20.092,14.664,62.688,-7.8884,34.194
2.7647,36.066,14.95,28.406,-14.637,31.529,-17.435,17.146,7.6334,19.496,-0.87042,20.092,14.664,62.688,-7.8884,34.194
2.707,35.993,14.871,28.434,-14.734,31.457,-17.471,17.142,7.6586,19.475,-0.97713,20.059,14.623,62.588,-7.8522,34.147
2.6776,35.955,14.831,28.447,-14.782,31.42,-17.488,17.139,7.6701,19.463,-1.0305,20.042,14.602,62.536,-7.8346,34.122
2.6477,35.916,14.791,28.458,-14.83,31.383,-17.506,17.135,7.6809,19.451,-1.0839,20.023,14.581,62.482,-7.8172,34.096
2.6175,35.877,14.75,28.467,-14.877,31.344,-17.523,17.13,7.691,19.437,-1.1373,20.004,14.56,62.427,-7.8002,34.069
2.6175,35.877,14.75,28.467,-14.877,31.344,-17.523,17.13,7.691,19.437,-1.1373,20.004,14.56,62.427,-7.8002,34.069
2.587,35.836,14.709,28.475,-14.925,31.304,-17.54,17.124,7.7003,19.422,-1.1907,19.983,14.539,62.371,-7.7834,34.041
2.556,35.795,14.668,28.482,-14.972,31.264,-17.558,17.118,7.709,19.407,-1.2442,19.962,14.518,62.313,-7.7669,34.011
2.5247,35.754,14.626,28.487,-15.018,31.223,-17.575,17.11,7.7169,19.39,-1.2976,19.94,14.496,62.254,-7.7508,33.981
2.4929,35.711,14.584,28.49,-15.065,31.181,-17.591,17.102,7.7241,19.373,-1.351,19.917,14.475,62.194,-7.7349,33.95
2.4929,35.711,14.584,28.49,-15.065,31.181,-17.591,17.102,7.7241,19.373,-1.351,19.917,14.475,62.194,-7.7349,33.95
2.4608,35.668,14.542,28.492,-15.111,31.137,-17.608,17.093,7.7306,19.355,-1.4044,19.893,14.453,62.133,-7.7194,33.917
2.4283,35.624,14.499,28.493,-15.157,31.094,-17.625,17.083,7.7364,19.335,-1.4578,19.868,14.431,62.07,-7.7041,33.884
2.4283,35.624,14.499,28.493,-15.157,31.094,-17.625,17.083,7.7364,19.335,-1.4578,19.868,14.431,62.07,-7.7041,33.884
2.3955,35.579,14.457,28.492,-15.203,31.049,-17.641,17.072,7.7414,19.315,-1.5112,19.842,14.409,62.006,-7.6892,33.849
2.3622,35.534,14.413,28.49,-15.248,31.003,-17.658,17.061,7.7458,19.294,-1.5646,19.815,14.387,61.94,-7.6745,33.813
2.3286,35.487,14.37,28.486,-15.293,30.957,-17.674,17.048,7.7494,19.272,-1.6179,19.787,14.365,61.873,-7.6602,33.776
2.3286,35.487,14.37,28.486,-15.293,30.957,-17.674,17.048,7.7494,19.272,-1.6179,19.787,14.365,61.873,-7.6602,33.776
2.2946,35.44,14.326,28.48,-15.338,30.909,-17.69,17.035,7.7523,19.249,-1.6712,19.759,14.342,61.805,-7.6461,33.738
2.2602,35.392,14.282,28.474,-15.383,30.861,-17.706,17.02,7.7545,19.225,-1.7245,19.729,14.32,61.736,-7.6324,33.699
2.2254,35.344,14.238,28.465,-15.427,30.812,-17.721,17.005,7.756,19.2,-1.7777,19.699,14.297,61.665,-7.619,33.659
2.1903,35.294,14.193,28.455,-15.471,30.762,-17.737,16.989,7.7567,19.174,-1.8309,19.667,14.274,61.593,-7.6059,33.618
2.1903,35.294,14.193,28.455,-15.471,30.762,-17.737,16.989,7.7567,19.174,-1.8309,19.667,14.274,61.593,-7.6059,33.618
2.1547,35.244,14.149,28.444,-15.515,30.711,-17.752,16.972,7.7568,19.147,-1.884,19.635,14.251,61.519,-7.593,33.576
2.1188,35.192,14.104,28.431,-15.558,30.659,-17.767,16.954,7.7561,19.119,-1.9371,19.602,14.228,61.444,-7.5805,33.532
2.0825,35.14,14.058,28.417,-15.601,30.606,-17.782,16.935,7.7548,19.09,-1.9902,19.568,14.205,61.368,-7.5683,33.487
2.0459,35.087,14.013,28.401,-15.644,30.553,-17.797,16.916,7.7527,19.06,-2.0431,19.532,14.182,61.29,-7.5564,33.442
2.0088,35.034,13.967,28.384,-15.687,30.498,-17.811,16.895,7.7499,19.029,-2.0961,19.496,14.158,61.211,-7.5448,33.395
2.0088,35.034,13.967,28.384,-15.687,30.498,-17.811,16.895,7.7499,19.029,-2.0961,19.496,14.158,61.211,-7.5448,33.395
1.9714,34.979,13.921,28.365,-15.729,30.443,-17.826,16.874,7.7464,18.997,-2.1489,19.459,14.134,61.131,-7.5335,33.347
1.9336,34.924,13.875,28.344,-15.771,30.387,-17.84,16.851,7.7422,18.964,-2.2017,19.421,14.11,61.049,-7.5225,33.298
1.9336,34.924,13.875,28.344,-15.771,30.387,-17.84,16.851,7.7422,18.964,-2.2017,19.421,14.11,61.049,-7.5225,33.298
1.8955,34.868,13.828,28.322,-15.812,30.33,-17.854,16.828,7.7373,18.93,-2.2544,19.382,14.086,60.965,-7.5119,33.247
1.8955,34.868,13.828,28.322,-15.812,30.33,-17.854,16.828,7.7373,18.93,-2.2544,19.382,14.086,60.965,-7.5119,33.247
1.8569,34.81,13.781,28.299,-15.854,30.272,-17.868,16.803,7.7317,18.895,-2.3071,19.342,14.062,60.881,-7.5015,33.196
1.818,34.752,13.735,28.274,-15.895,30.213,-17.881,16.778,7.7254,18.859,-2.3596,19.302,14.038,60.795,-7.4914,33.143
1.7788,34.694,13.687,28.247,-15.935,30.154,-17.894,16.752,7.7184,18.823,-2.4121,19.26,14.013,60.708,-7.4817,33.09
1.7788,34.694,13.687,28.247,-15.935,30.154,-17.894,16.752,7.7184,18.823,-2.4121,19.26,14.013,60.708,-7.4817,33.09
1.7391,34.634,13.64,28.219,-15.976,30.093,-17.908,16.725,7.7106,18.785,-2.4645,19.217,13.989,60.619,-7.4722,33.035
1.6991,34.573,13.592,28.19,-16.016,30.032,-17.92,16.697,7.7022,18.746,-2.5168,19.173,13.964,60.529,-7.463,32.979
1.6587,34.512,13.545,28.158,-16.055,29.969,-17.933,16.668,7.6931,18.706,-2.569,19.129,13.939,60.437,-7.4542,32.922
1.618,34.45,13.497,28.126,-16.095,29.906,-17.945,16.638,7.6833,18.665,-2.6211,19.083,13.914,60.344,-7.4456,32.864
1.618,34.45,13.497,28.126,-16.095,29.906,-17.945,16.638,7.6833,18.665,-2.6211,19.083,13.914,60.344,-7.4456,32.864
1.5769,34.386,13.449,28.091,-16.134,29.842,-17.957,16.607,7.6728,18.623,-2.673,19.036,13.889,60.25,-7.4374,32.804
1.5354,34.322,13.4,28.056,-16.173,29.777,-17.969,16.576,7.6616,18.58,-2.7249,18.989,13.863,60.154,-7.4294,32.744
1.4935,34.257,13.352,28.018,-16.211,29.712,-17.981,16.543,7.6497,18.537,-2.7767,18.94,13.837,60.057,-7.4218,32.682
1.4935,34.257,13.352,28.018,-16.211,29.712,-17.981,16.543,7.6497,18.537,-2.7767,18.94,13.837,60.057,-7.4218,32.682
1.4513,34.191,13.303,27.98,-16.249,29.645,-17.992,16.509,7.6372,18.492,-2.8283,18.891,13.812,59.959,-7.4145,32.619
1.4088,34.125,13.255,27.939,-16.287,29.578,-18.003,16.475,7.6239,18.446,-2.8799,18.84,13.786,59.859,-7.4074,32.556
1.3659,34.057,13.206,27.897,-16.324,29.509,-18.014,16.439,7.61,18.399,-2.9313,18.789,13.76,59.758,-7.4007,32.491
1.3659,34.057,13.206,27.897,-16.324,29.509,-18.014,16.439,7.61,18.399,-2.9313,18.789,13.76,59.758,-7.4007,32.491
1.3226,33.988,13.157,27.854,-16.361,29.44,-18.025,16.402,7.5954,18.351,-2.9825,18.737,13.733,59.655,-7.3943,32.424
1.3226,33.988,13.157,27.854,-16.361,29.44,-18.025,16.402,7.5954,18.351,-2.9825,18.737,13.733,59.655,-7.3943,32.424
1.2789,33.919,13.107,27.809,-16.398,29.37,-18.035,16.365,7.5801,18.302,-3.0337,18.683,13.707,59.551,-7.3881,32.357
1.2349,33.849,13.058,27.762,-16.435,29.299,-18.045,16.326,7.5641,18.252,-3.0847,18.629,13.68,59.446,-7.3823,32.288
1.2349,33.849,13.058,27.762,-16.435,29.299,-18.045,16.326,7.5641,18.252,-3.0847,18.629,13.68,59.446,-7.3823,32.288
1.1906,33.777,13.009,27.714,-16.471,29.227,-18.054,16.287,7.5475,18.201,-3.1356,18.574,13.654,59.339,-7.3768,32.219
1.1459,33.705,12.959,27.664,-16.506,29.155,-18.064,16.247,7.5302,18.149,-3.1863,18.517,13.627,59.231,-7.3715,32.148
1.1008,33.632,12.909,27.613,-16.542,29.081,-18.073,16.205,7.5122,18.096,-3.2369,18.46,13.6,59.121,-7.3666,32.076
1.0554,33.558,12.859,27.561,-16.577,29.007,-18.082,16.163,7.4935,18.042,-3.2873,18.402,13.572,59.01,-7.362,32.003
1.0554,33.558,12.859,27.561,-16.577,29.007,-18.082,16.163,7.4935,18.042,-3.2873,18.402,13.572,59.01,-7.362,32.003
1.0097,33.483,12.809,27.506,-16.611,28.931,-18.09,16.119,7.4742,17.987,-3.3375,18.343,13.545,58.898,-7.3576,31.929
0.96357,33.407,12.759,27.45,-16.646,28.855,-18.098,16.075,7.4543,17.931,-3.3876,18.283,13.517,58.784,-7.3536,31.854
0.91713,33.33,12.709,27.393,-16.679,28.778,-18.106,16.03,7.4336,17.874,-3.4376,18.222,13.49,58.669,-7.3498,31.777
0.87034,33.252,12.659,27.334,-16.713,28.701,-18.113,15.984,7.4124,17.816,-3.4874,18.16,13.462,58.552,-7.3463,31.699
0.87034,33.252,12.659,27.334,-16.713,28.701,-18.113,15.984,7.4124,17.816,-3.4874,18.16,13.462,58.552,-7.3463,31.699
0.82322,33.173,12.608,27.274,-16.746,28.622,-18.121,15.936,7.3904,17.757,-3.537,18.097,13.434,58.434,-7.3431,31.621
0.77575,33.094,12.558,27.212,-16.779,28.543,-18.127,15.888,7.3679,17.697,-3.5864,18.033,13.406,58.315,-7.3403,31.541
0.72795,33.013,12.508,27.148,-16.812,28.462,-18.134,15.839,7.3447,17.636,-3.6356,17.968,13.377,58.194,-7.3377,31.46
0.67981,32.932,12.457,27.083,-16.844,28.381,-18.14,15.789,7.3208,17.574,-3.6847,17.902,13.349,58.072,-7.3354,31.377
0.67981,32.932,12.457,27.083,-16.844,28.381,-18.14,15.789,7.3208,17.574,-3.6847,17.902,13.349,58.072,-7.3354,31.377
0.63134,32.849,12.406,27.017,-16.875,28.299,-18.146,15.738,7.2963,17.511,-3.7336,17.835,13.32,57.948,-7.3333,31.294
0.58253,32.766,12.356,26.949,-16.907,28.216,-18.151,15.686,7.2712,17.447,-3.7823,17.767,13.291,57.824,-7.3316,31.21
0.58253,32.766,12.356,26.949,-16.907,28.216,-18.151,15.686,7.2712,17.447,-3.7823,17.767,13.291,57.824,-7.3316,31.21
0.5334,32.681,12.305,26.879,-16.938,28.132,-18.156,15.633,7.2454,17.382,-3.8308,17.698,13.262,57.697,-7.3302,31.124
0.48393,32.596,12.254,26.808,-16.968,28.048,-18.161,15.579,7.219,17.316,-3.879,17.629,13.233,57.57,-7.329,31.037
0.43415,32.51,12.203,26.735,-16.998,27.962,-18.165,15.523,7.192,17.249,-3.9271,17.558,13.203,57.44,-7.3281,30.949
0.38403,32.423,12.152,26.661,-17.028,27.876,-18.169,15.467,7.1644,17.181,-3.975,17.486,13.174,57.31,-7.3275,30.86
0.38403,32.423,12.152,26.661,-17.028,27.876,-18.169,15.467,7.1644,17.181,-3.975,17.486,13.174,57.31,-7.3275,30.86
0.3336,32.334,12.101,26.585,-17.058,27.789,-18.173,15.41,7.1361,17.112,-4.0227,17.414,13.144,57.178,-7.3272,30.77
0.28284,32.245,12.051,26.508,-17.087,27.701,-18.176,15.352,7.1073,17.042,-4.0702,17.34,13.114,57.045,-7.3271,30.679
0.23177,32.155,12,26.429,-17.115,27.613,-18.179,15.293,7.0778,16.971,-4.1174,17.266,13.084,56.911,-7.3274,30.587
0.18038,32.064,11.949,26.349,-17.144,27.523,-18.182,15.233,7.0478,16.899,-4.1644,17.19,13.054,56.775,-7.3279,30.493
0.18038,32.064,11.949,26.349,-17.144,27.523,-18.182,15.233,7.0478,16.899,-4.1644,17.19,13.054,56.775,-7.3279,30.493
0.12868,31.972,11.898,26.268,-17.171,27.433,-18.184,15.172,7.0171,16.826,-4.2112,17.114,13.024,56.637,-7.3286,30.399
0.076672,31.879,11.847,26.184,-17.199,27.341,-18.185,15.11,6.9858,16.752,-4.2578,17.037,12.993,56.499,-7.3297,30.303
0.024351,31.785,11.796,26.1,-17.226,27.249,-18.187,15.047,6.954,16.677,-4.3041,16.959,12.963,56.359,-7.331,30.206
-0.028276,31.69,11.745,26.013,-17.253,27.157,-18.187,14.984,6.9216,16.601,-4.3502,16.879,12.932,56.217,-7.3326,30.108
-0.028276,31.69,11.745,26.013,-17.253,27.157,-18.187,14.984,6.9216,16.601,-4.3502,16.879,12.932,56.217,-7.3326,30.108
-0.081208,31.594,11.694,25.926,-17.279,27.063,-18.188,14.919,6.8885,16.524,-4.3961,16.799,12.901,56.075,-7.3345,30.009
-0.13444,31.498,11.643,25.836,-17.305,26.968,-18.188,14.853,6.8549,16.446,-4.4417,16.718,12.87,55.931,-7.3366,29.909
-0.18797,31.4,11.592,25.746,-17.33,26.873,-18.188,14.786,6.8208,16.367,-4.4871,16.636,12.838,55.785,-7.339,29.808
-0.18797,31.4,11.592,25.746,-17.33,26.873,-18.188,14.786,6.8208,16.367,-4.4871,16.636,12.838,55.785,-7.339,29.808
-0.2418,31.301,11.541,25.654,-17.355,26.777,-18.187,14.718,6.786,16.287,-4.5322,16.553,12.807,55.639,-7.3416,29.706
-0.29593,31.201,11.49,25.56,-17.38,26.68,-18.185,14.649,6.7507,16.206,-4.5771,16.47,12.775,55.49,-7.3445,29.602
-0.29593,31.201,11.49,25.56,-17.38,26.68,-18.185,14.649,6.7507,16.206,-4.5771,16.47,12.775,55.49,-7.3445,29.602
-0.35035,31.101,11.439,25.465,-17.404,26.582,-18.184,14.579,6.7149,16.124,-4.6217,16.385,12.744,55.341,-7.3477,29.498
-0.40505,30.999,11.388,25.368,-17.428,26.484,-18.182,14.509,6.6785,16.041,-4.6661,16.299,12.712,55.19,-7.3511,29.392
-0.46005,30.896,11.338,25.27,-17.452,26.384,-18.179,14.437,6.6415,15.958,-4.7101,16.213,12.68,55.038,-7.3548,29.285
-0.51533,30.793,11.287,25.171,-17.475,26.284,-18.176,14.364,6.604,15.873,-4.754,16.125,12.648,54.885,-7.3587,29.178
-0.51533,30.793,11.287,25.171,-17.475,26.284,-18.176,14.364,6.604,15.873,-4.754,16.125,12.648,54.885,-7.3587,29.178
-0.57089,30.688,11.236,25.07,-17.497,26.183,-18.173,14.29,6.5659,15.787,-4.7975,16.037,12.615,54.73,-7.3629,29.069
-0.57089,30.688,11.236,25.07,-17.497,26.183,-18.173,14.29,6.5659,15.787,-4.7975,16.037,12.615,54.73,-7.3629,29.069
-0.57089,30.688,11.236,25.07,-17.497,26.183,-18.173,14.29,6.5659,15.787,-4.7975,16.037,12.615,54.73,-7.3629,29.069
-0.62673,30.583,11.186,24.967,-17.519,26.081,-18.169,14.216,6.5274,15.701,-4.8408,15.948,12.583,54.574,-7.3674,28.959
-0.68285,30.476,11.135,24.863,-17.541,25.979,-18.164,14.14,6.4883,15.613,-4.8837,15.858,12.55,54.417,-7.372,28.848
-0.73924,30.369,11.085,24.758,-17.562,25.875,-18.159,14.063,6.4486,15.524,-4.9265,15.767,12.518,54.258,-7.377,28.736
-0.7959,30.26,11.035,24.651,-17.583,25.771,-18.154,13.986,6.4085,15.435,-4.9689,15.675,12.485,54.098,-7.3821,28.623
-0.7959,30.26,11.035,24.651,-17.583,25.771,-18.154,13.986,6.4085,15.435,-4.9689,15.675,12.485,54.098,-7.3821,28.623
-0.85283,30.151,10.985,24.543,-17.604,25.666,-18.148,13.907,6.3678,15.344,-5.011,15.582,12.452,53.937,-7.3875,28.509
-0.91003,30.041,10.934,24.434,-17.624,25.561,-18.142,13.827,6.3266,15.253,-5.0528,15.488,12.418,53.775,-7.3932,28.394
-0.91003,30.041,10.934,24.434,-17.624,25.561,-18.142,13.827,6.3266,15.253,-5.0528,15.488,12.418,53.775,-7.3932,28.394
-0.96749,29.929,10.884,24.323,-17.643,25.454,-18.135,13.747,6.285,15.161,-5.0944,15.394,12.385,53.611,-7.3991,28.278
-1.0252,29.817,10.834,24.21,-17.663,25.347,-18.128,13.665,6.2428,15.067,-5.1356,15.298,12.352,53.446,-7.4052,28.16
-1.0832,29.704,10.785,24.096,-17.681,25.239,-18.12,13.583,6.2001,14.973,-5.1766,15.202,12.318,53.279,-7.4116,28.042
-1.1414,29.589,10.735,23.981,-17.7,25.13,-18.112,13.5,6.157,14.878,-5.2172,15.105,12.284,53.112,-7.4181,27.923
-1.1414,29.589,10.735,23.981,-17.7,25.13,-18.112,13.5,6.157,14.878,-5.2172,15.105,12.284,53.112,-7.4181,27.923
-1.1999,29.474,10.685,23.865,-17.718,25.02,-18.103,13.415,6.1134,14.782,-5.2575,15.007,12.251,52.943,-7.425,27.802
-1.2587,29.358,10.636,23.747,-17.735,24.91,-18.094,13.33,6.0693,14.685,-5.2975,14.908,12.217,52.773,-7.432,27.681
-1.3176,29.241,10.587,23.627,-17.752,24.799,-18.084,13.244,6.0247,14.588,-5.3372,14.809,12.182,52.601,-7.4393,27.559
-1.3176,29.241,10.587,23.627,-17.752,24.799,-18.084,13.244,6.0247,14.588,-5.3372,14.809,12.182,52.601,-7.4393,27.559
-1.3769,29.123,10.537,23.507,-17.769,24.687,-18.074,13.156,5.9797,14.489,-5.3766,14.708,12.148,52.429,-7.4467,27.435
-1.4363,29.004,10.488,23.385,-17.785,24.574,-18.063,13.068,5.9342,14.389,-5.4156,14.607,12.114,52.255,-7.4544,27.311
-1.496,28.884,10.439,23.261,-17.8,24.461,-18.052,12.979,5.8882,14.289,-5.4543,14.505,12.079,52.08,-7.4624,27.186
-1.496,28.884,10.439,23.261,-17.8,24.461,-18.052,12.979,5.8882,14.289,-5.4543,14.505,12.079,52.08,-7.4624,27.186
-1.556,28.763,10.391,23.136,-17.816,24.347,-18.04,12.889,5.8419,14.187,-5.4927,14.402,12.045,51.904,-7.4705,27.059
-1.6161,28.641,10.342,23.01,-17.831,24.232,-18.027,12.798,5.795,14.085,-5.5307,14.298,12.01,51.726,-7.4788,26.932
-1.6765,28.518,10.294,22.883,-17.845,24.116,-18.015,12.706,5.7478,13.982,-5.5685,14.193,11.975,51.547,-7.4874,26.804
-1.7371,28.394,10.245,22.754,-17.859,24,-18.001,12.613,5.7001,13.878,-5.6058,14.088,11.94,51.367,-7.4961,26.674
-1.798,28.27,10.197,22.624,-17.872,23.883,-17.987,12.519,5.652,13.773,-5.6429,13.981,11.905,51.186,-7.5051,26.544
-1.798,28.27,10.197,22.624,-17.872,23.883,-17.987,12.519,5.652,13.773,-5.6429,13.981,11.905,51.186,-7.5051,26.544
-1.859,28.144,10.149,22.492,-17.885,23.765,-17.973,12.425,5.6035,13.667,-5.6795,13.874,11.87,51.004,-7.5143,26.413
-1.9203,28.017,10.102,22.36,-17.898,23.646,-17.957,12.329,5.5546,13.561,-5.7159,13.767,11.835,50.821,-7.5236,26.281
-1.9818,27.89,10.054,22.226,-17.91,23.527,-17.942,12.233,5.5053,13.453,-5.7518,13.658,11.8,50.636,-7.5332,26.148
-1.9818,27.89,10.054,22.226,-17.91,23.527,-17.942,12.233,5.5053,13.453,-5.7518,13.658,11.8,50.636,-7.5332,26.148
-2.0435,27.761,10.007,22.09,-17.922,23.407,-17.926,12.135,5.4556,13.345,-5.7875,13.549,11.764,50.45,-7.5429,26.014
-2.1054,27.632,9.9596,21.954,-17.933,23.286,-17.909,12.037,5.4055,13.236,-5.8227,13.439,11.728,50.263,-7.5529,25.879
-2.1675,27.501,9.9127,21.816,-17.944,23.164,-17.892,11.937,5.355,13.126,-5.8576,13.328,11.693,50.075,-7.563,25.743
-2.1675,27.501,9.9127,21.816,-17.944,23.164,-17.892,11.937,5.355,13.126,-5.8576,13.328,11.693,50.075,-7.563,25.743
-2.2298,27.37,9.8659,21.677,-17.954,23.042,-17.874,11.837,5.3042,13.015,-5.8921,13.216,11.657,49.886,-7.5733,25.606
-2.2923,27.237,9.8193,21.536,-17.964,22.919,-17.855,11.736,5.253,12.904,-5.9263,13.104,11.621,49.695,-7.5838,25.468
-2.355,27.104,9.773,21.395,-17.973,22.795,-17.836,11.634,5.2014,12.791,-5.9601,12.99,11.585,49.504,-7.5944,25.33
-2.355,27.104,9.773,21.395,-17.973,22.795,-17.836,11.634,5.2014,12.791,-5.9601,12.99,11.585,49.504,-7.5944,25.33
-2.4178,26.97,9.7269,21.252,-17.982,22.671,-17.817,11.531,5.1495,12.678,-5.9935,12.876,11.549,49.311,-7.6053,25.19
-2.4809,26.835,9.681,21.107,-17.991,22.546,-17.796,11.428,5.0972,12.564,-6.0265,12.762,11.513,49.117,-7.6163,25.05
-2.5442,26.699,9.6353,20.962,-17.999,22.42,-17.776,11.323,5.0446,12.449,-6.0592,12.646,11.477,48.922,-7.6275,24.909
-2.6076,26.562,9.5899,20.816,-18.006,22.293,-17.754,11.217,4.9917,12.334,-6.0914,12.53,11.44,48.726,-7.6388,24.767
-2.6712,26.424,9.5447,20.668,-18.013,22.166,-17.732,11.111,4.9384,12.217,-6.1233,12.414,11.404,48.529,-7.6504,24.624
-2.6712,26.424,9.5447,20.668,-18.013,22.166,-17.732,11.111,4.9384,12.217,-6.1233,12.414,11.404,48.529,-7.6504,24.624
-2.735,26.285,9.4998,20.519,-18.02,22.038,-17.71,11.004,4.8848,12.1,-6.1548,12.296,11.368,48.331,-7.662,24.48
-2.7989,26.146,9.4551,20.369,-18.026,21.91,-17.687,10.896,4.8309,11.982,-6.1859,12.178,11.331,48.132,-7.6739,24.335
-2.7989,26.146,9.4551,20.369,-18.026,21.91,-17.687,10.896,4.8309,11.982,-6.1859,12.178,11.331,48.132,-7.6739,24.335
-2.863,26.005,9.4106,20.217,-18.032,21.781,-17.663,10.787,4.7767,11.864,-6.2166,12.059,11.294,47.932,-7.6859,24.19
-2.9273,25.863,9.3664,20.065,-18.037,21.651,-17.638,10.677,4.7222,11.744,-6.2469,11.94,11.258,47.73,-7.698,24.043
-2.9917,25.721,9.3225,19.911,-18.042,21.52,-17.613,10.566,4.6675,11.624,-6.2768,11.819,11.221,47.528,-7.7103,23.896
-2.9917,25.721,9.3225,19.911,-18.042,21.52,-17.613,10.566,4.6675,11.624,-6.2768,11.819,11.221,47.528,-7.7103,23.896
-3.0563,25.578,9.2788,19.757,-18.046,21.389,-17.588,10.455,4.6124,11.503,-6.3063,11.698,11.184,47.324,-7.7227,23.748
-3.0563,25.578,9.2788,19.757,-18.046,21.389,-17.588,10.455,4.6124,11.503,-6.3063,11.698,11.184,47.324,-7.7227,23.748
-3.121,25.433,9.2355,19.601,-18.05,21.257,-17.562,10.342,4.5571,11.382,-6.3354,11.577,11.147,47.12,-7.7353,23.6
-3.1859,25.288,9.1923,19.444,-18.053,21.124,-17.535,10.229,4.5014,11.259,-6.3641,11.455,11.11,46.914,-7.748,23.45
-3.2509,25.142,9.1495,19.285,-18.056,20.991,-17.507,10.115,4.4456,11.136,-6.3923,11.332,11.073,46.708,-7.7609,23.3
-3.2509,25.142,9.1495,19.285,-18.056,20.991,-17.507,10.115,4.4456,11.136,-6.3923,11.332,11.073,46.708,-7.7609,23.3
-3.3161,24.995,9.1069,19.126,-18.059,20.857,-17.479,10,4.3894,11.012,-6.4202,11.208,11.036,46.5,-7.7739,23.148
-3.3814,24.848,9.0647,18.966,-18.061,20.722,-17.451,9.8847,4.3331,10.888,-6.4476,11.084,10.999,46.292,-7.787,22.997
-3.4469,24.699,9.0227,18.804,-18.062,20.587,-17.421,9.7683,4.2765,10.763,-6.4746,10.96,10.962,46.083,-7.8003,22.844
-3.5124,24.549,8.981,18.642,-18.063,20.451,-17.391,9.651,4.2196,10.637,-6.5012,10.834,10.925,45.872,-7.8136,22.69
-3.5124,24.549,8.981,18.642,-18.063,20.451,-17.391,9.651,4.2196,10.637,-6.5012,10.834,10.925,45.872,-7.8136,22.69
-3.5781,24.399,8.9396,18.478,-18.064,20.315,-17.361,9.533,4.1626,10.51,-6.5273,10.708,10.887,45.661,-7.8271,22.536
-3.6439,24.248,8.8985,18.314,-18.064,20.178,-17.329,9.4141,4.1053,10.383,-6.553,10.582,10.85,45.448,-7.8407,22.381
-3.7099,24.096,8.8578,18.148,-18.063,20.04,-17.297,9.2945,4.0478,10.255,-6.5783,10.455,10.813,45.235,-7.8544,22.226
-3.7759,23.943,8.8173,17.981,-18.062,19.902,-17.265,9.174,3.9901,10.127,-6.6032,10.327,10.775,45.021,-7.8683,22.069
-3.7759,23.943,8.8173,17.981,-18.062,19.902,-17.265,9.174,3.9901,10.127,-6.6032,10.327,10.775,45.021,-7.8683,22.069
-3.8421,23.789,8.7772,17.813,-18.061,19.763,-17.232,9.0529,3.9322,9.9975,-6.6276,10.199,10.738,44.806,-7.8822,21.912
-3.8421,23.789,8.7772,17.813,-18.061,19.763,-17.232,9.0529,3.9322,9.9975,-6.6276,10.199,10.738,44.806,-7.8822,21.912
-3.9084,23.634,8.7374,17.645,-18.059,19.623,-17.198,8.9309,3.8741,9.8677,-6.6516,10.07,10.701,44.59,-7.8962,21.755
-3.9747,23.478,8.6979,17.475,-18.057,19.483,-17.163,8.8082,3.8159,9.7372,-6.6751,9.9407,10.663,44.373,-7.9103,21.596
-3.9747,23.478,8.6979,17.475,-18.057,19.483,-17.163,8.8082,3.8159,9.7372,-6.6751,9.9407,10.663,44.373,-7.9103,21.596
-4.0412,23.322,8.6587,17.304,-18.054,19.342,-17.128,8.6847,3.7575,9.6062,-6.6982,9.8108,10.626,44.155,-7.9246,21.437
-4.1078,23.165,8.6199,17.132,-18.051,19.2,-17.092,8.5605,3.6989,9.4745,-6.7208,9.6804,10.588,43.936,-7.9389,21.277
-4.1745,23.006,8.5814,16.96,-18.048,19.058,-17.056,8.4355,3.6401,9.3422,-6.743,9.5494,10.55,43.717,-7.9533,21.117
-4.2412,22.848,8.5432,16.786,-18.043,18.916,-17.019,8.3098,3.5812,9.2093,-6.7647,9.418,10.513,43.496,-7.9678,20.956
-4.3081,22.688,8.5054,16.611,-18.039,18.772,-16.981,8.1834,3.5222,9.0759,-6.786,9.286,10.475,43.275,-7.9824,20.794
-4.3081,22.688,8.5054,16.611,-18.039,18.772,-16.981,8.1834,3.5222,9.0759,-6.786,9.286,10.475,43.275,-7.9824,20.794
-4.375,22.527,8.4679,16.436,-18.034,18.629,-16.942,8.0562,3.463,8.9418,-6.8068,9.1535,10.438,43.053,-7.997,20.632
-4.442,22.366,8.4308,16.259,-18.028,18.484,-16.903,7.9283,3.4037,8.8072,-6.8272,9.0206,10.4,42.83,-8.0117,20.469
-4.5091,22.203,8.394,16.082,-18.022,18.339,-16.863,7.7998,3.3443,8.6721,-6.8471,8.8871,10.362,42.606,-8.0265,20.306
-4.5091,22.203,8.394,16.082,-18.022,18.339,-16.863,7.7998,3.3443,8.6721,-6.8471,8.8871,10.362,42.606,-8.0265,20.306
-4.5762,22.04,8.3576,15.904,-18.016,18.194,-16.823,7.6705,3.2848,8.5363,-6.8665,8.7532,10.325,42.381,-8.0414,20.141
-4.6435,21.877,8.3216,15.725,-18.009,18.048,-16.782,7.5405,3.2252,8.4001,-6.8855,8.6189,10.287,42.156,-8.0563,19.977
-4.6435,21.877,8.3216,15.725,-18.009,18.048,-16.782,7.5405,3.2252,8.4001,-6.8855,8.6189,10.287,42.156,-8.0563,19.977
-4.7107,21.712,8.2859,15.545,-18.001,17.901,-16.74,7.4099,3.1655,8.2633,-6.904,8.4841,10.25,41.93,-8.0713,19.811
-4.7781,21.546,8.2506,15.364,-17.993,17.754,-16.697,7.2786,3.1056,8.1259,-6.922,8.3488,10.212,41.703,-8.0863,19.646
-4.8455,21.38,8.2157,15.182,-17.985,17.606,-16.654,7.1466,3.0458,7.9881,-6.9395,8.2131,10.174,41.475,-8.1014,19.479
-4.9129,21.213,8.1812,15,-17.976,17.457,-16.61,7.0139,2.9858,7.8497,-6.9566,8.077,10.137,41.247,-8.1165,19.312
-4.9129,21.213,8.1812,15,-17.976,17.457,-16.61,7.0139,2.9858,7.8497,-6.9566,8.077,10.137,41.247,-8.1165,19.312
-4.9804,21.045,8.147,14.816,-17.967,17.309,-16.565,6.8806,2.9258,7.7109,-6.9732,7.9405,10.099,41.018,-8.1317,19.145
-5.0479,20.877,8.1132,14.632,-17.957,17.159,-16.52,6.7466,2.8657,7.5716,-6.9893,7.8035,10.061,40.788,-8.1469,18.977
-5.1155,20.708,8.0798,14.447,-17.947,17.009,-16.474,6.612,2.8056,7.4317,-7.0049,7.6662,10.024,40.557,-8.1622,18.808
-5.1831,20.537,8.0468,14.261,-17.936,16.859,-16.427,6.4768,2.7454,7.2915,-7.0201,7.5285,9.9864,40.326,-8.1774,18.64
-5.1831,20.537,8.0468,14.261,-17.936,16.859,-16.427,6.4768,2.7454,7.2915,-7.0201,7.5285,9.9864,40.326,-8.1774,18.64
-5.2508,20.367,8.0142,14.075,-17.925,16.708,-16.379,6.3409,2.6852,7.1507,-7.0347,7.3905,9.9488,40.094,-8.1927,18.47
-5.3184,20.195,7.982,13.887,-17.913,16.556,-16.331,6.2045,2.6249,7.0095,-7.0489,7.252,9.9113,39.861,-8.2081,18.3
-5.3861,20.023,7.9501,13.699,-17.901,16.404,-16.282,6.0674,2.5647,6.8679,-7.0625,7.1132,9.8739,39.627,-8.2234,18.13
-5.4539,19.849,7.9187,13.511,-17.888,16.252,-16.233,5.9297,2.5044,6.7258,-7.0757,6.9741,9.8364,39.393,-8.2388,17.959
-5.4539,19.849,7.9187,13.511,-17.888,16.252,-16.233,5.9297,2.5044,6.7258,-7.0757,6.9741,9.8364,39.393,-8.2388,17.959
-5.5216,19.676,7.8877,13.321,-17.875,16.099,-16.183,5.7914,2.4442,6.5833,-7.0884,6.8346,9.799,39.159,-8.2542,17.788
-5.5893,19.501,7.8571,13.131,-17.862,15.945,-16.132,5.6526,2.3839,6.4405,-7.1006,6.6948,9.7617,38.923,-8.2695,17.616
-5.5893,19.501,7.8571,13.131,-17.862,15.945,-16.132,5.6526,2.3839,6.4405,-7.1006,6.6948,9.7617,38.923,-8.2695,17.616
-5.6571,19.326,7.8269,12.94,-17.848,15.791,-16.08,5.5132,2.3237,6.2972,-7.1122,6.5547,9.7243,38.687,-8.2849,17.444
-5.6571,19.326,7.8269,12.94,-17.848,15.791,-16.08,5.5132,2.3237,6.2972,-7.1122,6.5547,9.7243,38.687,-8.2849,17.444
-5.7248,19.15,7.7972,12.748,-17.833,15.637,-16.027,5.3732,2.2634,6.1535,-7.1234,6.4143,9.6871,38.451,-8.3003,17.271
-5.7926,18.973,7.7678,12.556,-17.818,15.482,-15.974,5.2327,2.2032,6.0094,-7.1341,6.2736,9.6498,38.214,-8.3157,17.099
-5.8604,18.796,7.7389,12.363,-17.803,15.326,-15.92,5.0916,2.143,5.8649,-7.1442,6.1326,9.6126,37.976,-8.331,16.925
-5.9281,18.617,7.7104,12.169,-17.787,15.17,-15.866,4.9499,2.0829,5.7201,-7.1539,5.9914,9.5755,37.738,-8.3464,16.752
-5.9281,18.617,7.7104,12.169,-17.787,15.17,-15.866,4.9499,2.0829,5.7201,-7.1539,5.9914,9.5755,37.738,-8.3464,16.752
-5.9958,18.439,7.6823,11.975,-17.771,15.014,-15.81,4.8078,2.0228,5.575,-7.163,5.8498,9.5384,37.499,-8.3617,16.578
-6.0636,18.259,7.6547,11.78,-17.754,14.857,-15.754,4.6651,1.9628,5.4295,-7.1717,5.7081,9.5014,37.259,-8.3771,16.403
-6.0636,18.259,7.6547,11.78,-17.754,14.857,-15.754,4.6651,1.9628,5.4295,-7.1717,5.7081,9.5014,37.259,-8.3771,16.403
-6.1313,18.079,7.6274,11.585,-17.737,14.7,-15.698,4.5219,1.9029,5.2836,-7.1798,5.5661,9.4644,37.019,-8.3923,16.229
-6.1989,17.898,7.6007,11.389,-17.719,14.542,-15.64,4.3782,1.843,5.1375,-7.1874,5.4238,9.4275,36.779,-8.4076,16.054
-6.2666,17.716,7.5743,11.192,-17.701,14.384,-15.582,4.234,1.7832,4.991,-7.1945,5.2814,9.3907,36.538,-8.4228,15.878
-6.3342,17.534,7.5484,10.995,-17.683,14.225,-15.523,4.0894,1.7235,4.8443,-7.201,5.1387,9.3539,36.296,-8.438,15.703
-6.4018,17.351,7.523,10.797,-17.664,14.066,-15.463,3.9442,1.6638,4.6972,-7.2071,4.9958,9.3172,36.054,-8.4531,15.527
-6.4018,17.351,7.523,10.797,-17.664,14.066,-15.463,3.9442,1.6638,4.6972,-7.2071,4.9958,9.3172,36.054,-8.4531,15.527
-6.4693,17.168,7.498,10.599,-17.644,13.906,-15.403,3.7986,1.6043,4.5499,-7.2126,4.8528,9.2806,35.812,-8.4682,15.351
-6.4693,17.168,7.498,10.599,-17.644,13.906,-15.403,3.7986,1.6043,4.5499,-7.2126,4.8528,9.2806,35.812,-8.4682,15.351
-6.5368,16.984,7.4734,10.4,-17.624,13.747,-15.341,3.6525,1.5449,4.4022,-7.2176,4.7095,9.244,35.569,-8.4833,15.174
-6.5368,16.984,7.4734,10.4,-17.624,13.747,-15.341,3.6525,1.5449,4.4022,-7.2176,4.7095,9.244,35.569,-8.4833,15.174
-6.5368,16.984,7.4734,10.4,-17.624,13.747,-15.341,3.6525,1.5449,4.4022,-7.2176,4.7095,9.244,35.569,-8.4833,15.174
-6.6717,16.614,7.4257,10.001,-17.583,13.425,-15.217,3.3591,1.4264,4.1063,-7.226,4.4226,9.1711,35.081,-8.5132,14.821
-6.739,16.427,7.4025,9.8006,-17.561,13.264,-15.154,3.2117,1.3674,3.9579,-7.2294,4.2789,9.1348,34.837,-8.528,14.644
-6.8063,16.241,7.3797,9.5998,-17.54,13.103,-15.089,3.0639,1.3085,3.8093,-7.2323,4.1351,9.0986,34.592,-8.5428,14.467
-6.8063,16.241,7.3797,9.5998,-17.54,13.103,-15.089,3.0639,1.3085,3.8093,-7.2323,4.1351,9.0986,34.592,-8.5428,14.467
-6.8735,16.054,7.3575,9.3985,-17.517,12.941,-15.024,2.9157,1.2497,3.6605,-7.2346,3.9911,9.0625,34.347,-8.5575,14.289
-6.9407,15.866,7.3357,9.1968,-17.495,12.779,-14.959,2.7671,1.1911,3.5115,-7.2364,3.847,9.0264,34.102,-8.5721,14.111
-7.0078,15.677,7.3143,8.9947,-17.472,12.616,-14.892,2.6181,1.1327,3.3623,-7.2377,3.7029,8.9905,33.856,-8.5867,13.934
-7.0748,15.488,7.2935,8.7922,-17.448,12.453,-14.825,2.4688,1.0744,3.2129,-7.2385,3.5586,8.9546,33.61,-8.6011,13.756
-7.0748,15.488,7.2935,8.7922,-17.448,12.453,-14.825,2.4688,1.0744,3.2129,-7.2385,3.5586,8.9546,33.61,-8.6011,13.756
-7.1417,15.299,7.2731,8.5893,-17.424,12.289,-14.757,2.319,1.0163,3.0634,-7.2386,3.4143,8.9188,33.363,-8.6155,13.578
-7.2085,15.108,7.2531,8.3859,-17.4,12.126,-14.689,2.1689,0.95838,2.9137,-7.2383,3.2699,8.8832,33.116,-8.6298,13.399
-7.2753,14.918,7.2337,8.1822,-17.375,11.962,-14.619,2.0185,0.90064,2.7638,-7.2374,3.1254,8.8476,32.869,-8.6439,13.221
-7.2753,14.918,7.2337,8.1822,-17.375,11.962,-14.619,2.0185,0.90064,2.7638,-7.2374,3.1254,8.8476,32.869,-8.6439,13.221
-7.3419,14.726,7.2147,7.9782,-17.349,11.797,-14.549,1.8677,0.84311,2.6138,-7.236,2.9809,8.8122,32.622,-8.658,13.043
-7.4085,14.535,7.1962,7.7738,-17.324,11.632,-14.478,1.7167,0.78577,2.4636,-7.234,2.8364,8.7768,32.374,-8.6719,12.864
-7.475,14.342,7.1782,7.569,-17.297,11.467,-14.407,1.5652,0.72864,2.3133,-7.2315,2.6918,8.7416,32.126,-8.6858,12.685
-7.475,14.342,7.1782,7.569,-17.297,11.467,-14.407,1.5652,0.72864,2.3133,-7.2315,2.6918,8.7416,32.126,-8.6858,12.685
-7.5413,14.149,7.1607,7.364,-17.271,11.302,-14.334,1.4135,0.67173,2.163,-7.2284,2.5472,8.7065,31.877,-8.6995,12.507
-7.6076,13.956,7.1436,7.1586,-17.244,11.136,-14.261,1.2615,0.61504,2.0125,-7.2247,2.4026,8.6715,31.629,-8.713,12.328
-7.6737,13.762,7.1271,6.953,-17.216,10.97,-14.187,1.1092,0.55859,1.8619,-7.2206,2.2581,8.6366,31.38,-8.7265,12.149
-7.7397,13.567,7.111,6.7471,-17.188,10.803,-14.113,0.95665,0.50236,1.7113,-7.2158,2.1135,8.6018,31.131,-8.7398,11.971
-7.7397,13.567,7.111,6.7471,-17.188,10.803,-14.113,0.95665,0.50236,1.7113,-7.2158,2.1135,8.6018,31.131,-8.7398,11.971
-7.8056,13.372,7.0954,6.5409,-17.16,10.637,-14.037,0.80382,0.44638,1.5606,-7.2105,1.969,8.5672,30.881,-8.753,11.792
-7.8714,13.177,7.0803,6.3345,-17.131,10.47,-13.961,0.65074,0.39065,1.4098,-7.2047,1.8246,8.5327,30.632,-8.766,11.613
-7.937,12.981,7.0657,6.1278,-17.102,10.303,-13.884,0.49742,0.33518,1.259,-7.1983,1.6801,8.4983,30.382,-8.7789,11.434
-8.0026,12.784,7.0516,5.921,-17.072,10.135,-13.806,0.34387,0.27997,1.1082,-7.1913,1.5358,8.464,30.132,-8.7916,11.256
-8.0026,12.784,7.0516,5.921,-17.072,10.135,-13.806,0.34387,0.27997,1.1082,-7.1913,1.5358,8.464,30.132,-8.7916,11.256
-8.0679,12.588,7.038,5.7139,-17.042,9.9671,-13.728,0.1901,0.22503,0.95733,-7.1838,1.3915,8.4299,29.882,-8.8042,11.077
-8.1332,12.39,7.0249,5.5066,-17.011,9.799,-13.649,0.036115,0.17036,0.80647,-7.1757,1.2473,8.3959,29.632,-8.8166,10.898
-8.1332,12.39,7.0249,5.5066,-17.011,9.799,-13.649,0.036115,0.17036,0.80647,-7.1757,1.2473,8.3959,29.632,-8.8166,10.898
-8.1983,12.192,7.0123,5.2992,-16.981,9.6307,-13.569,-0.11806,0.11598,0.6556,-7.1671,1.1033,8.3621,29.381,-8.8288,10.72
-8.2632,11.994,7.0003,5.0916,-16.949,9.462,-13.488,-0.27243,0.061887,0.50475,-7.1579,0.95929,8.3283,29.131,-8.8409,10.541
-8.2632,11.994,7.0003,5.0916,-16.949,9.462,-13.488,-0.27243,0.061887,0.50475,-7.1579,0.95929,8.3283,29.131,-8.8409,10.541
-8.328,11.795,6.9887,4.8838,-16.917,9.2932,-13.406,-0.42697,0.0080869,0.35392,-7.1481,0.81544,8.2948,28.88,-8.8528,10.363
-8.328,11.795,6.9887,4.8838,-16.917,9.2932,-13.406,-0.42697,0.0080869,0.35392,-7.1481,0.81544,8.2948,28.88,-8.8528,10.363
-8.328,11.795,6.9887,4.8838,-16.917,9.2932,-13.406,-0.42697,0.0080869,0.35392,-7.1481,0.81544,8.2948,28.88,-8.8528,10.363
-8.4571,11.397,6.967,4.4679,-16.853,8.9547,-13.241,-0.73653,-0.098604,0.052375,-7.1269,0.52816,8.228,28.379,-8.876,10.007
-8.5214,11.197,6.9569,4.2598,-16.82,8.7852,-13.157,-0.89153,-0.15148,-0.098319,-7.1154,0.38474,8.1949,28.128,-8.8873,9.8288
-8.5855,10.996,6.9474,4.0516,-16.786,8.6154,-13.072,-1.0467,-0.20404,-0.24895,-7.1034,0.2415,8.1619,27.877,-8.8985,9.651
-8.5855,10.996,6.9474,4.0516,-16.786,8.6154,-13.072,-1.0467,-0.20404,-0.24895,-7.1034,0.2415,8.1619,27.877,-8.8985,9.651
-8.6495,10.795,6.9383,3.8434,-16.752,8.4454,-12.987,-1.2019,-0.25627,-0.39949,-7.0908,0.098429,8.129,27.626,-8.9094,9.4734
-8.7133,10.594,6.9298,3.635,-16.718,8.2752,-12.901,-1.3573,-0.30818,-0.54995,-7.0776,-0.044449,8.0963,27.375,-8.9201,9.296
-8.7769,10.393,6.9218,3.4266,-16.683,8.1048,-12.814,-1.5127,-0.35974,-0.70031,-7.0638,-0.18713,8.0637,27.124,-8.9306,9.1188
-8.8403,10.191,6.9143,3.2182,-16.648,7.9342,-12.726,-1.6683,-0.41096,-0.85056,-7.0495,-0.32959,8.0313,26.873,-8.9409,8.9418
-8.9036,9.9884,6.9073,3.0098,-16.613,7.7635,-12.638,-1.8239,-0.46183,-1.0007,-7.0346,-0.47183,7.9991,26.622,-8.951,8.765
-8.9036,9.9884,6.9073,3.0098,-16.613,7.7635,-12.638,-1.8239,-0.46183,-1.0007,-7.0346,-0.47183,7.9991,26.622,-8.951,8.765
-8.9666,9.7857,6.9008,2.8014,-16.577,7.5925,-12.548,-1.9795,-0.51235,-1.1507,-7.0192,-0.61384,7.967,26.371,-8.9608,8.5885
-9.0295,9.5827,6.8949,2.593,-16.541,7.4214,-12.458,-2.1353,-0.56251,-1.3005,-7.0031,-0.7556,7.9351,26.12,-8.9704,8.4122
-9.0295,9.5827,6.8949,2.593,-16.541,7.4214,-12.458,-2.1353,-0.56251,-1.3005,-7.0031,-0.7556,7.9351,26.12,-8.9704,8.4122
-9.0921,9.3794,6.8894,2.3846,-16.504,7.2501,-12.368,-2.291,-0.6123,-1.4502,-6.9865,-0.8971,7.9033,25.869,-8.9798,8.2362
-9.1546,9.1757,6.8845,2.1762,-16.467,7.0787,-12.276,-2.4468,-0.66172,-1.5997,-6.9693,-1.0383,7.8717,25.618,-8.9889,8.0604
-9.2168,8.9717,6.8801,1.9679,-16.429,6.9071,-12.184,-2.6026,-0.71076,-1.7491,-6.9515,-1.1793,7.8402,25.367,-8.9978,7.885
-9.2788,8.7674,6.8763,1.7597,-16.391,6.7354,-12.091,-2.7584,-0.75942,-1.8982,-6.9332,-1.3199,7.809,25.117,-9.0064,7.7099
-9.2788,8.7674,6.8763,1.7597,-16.391,6.7354,-12.091,-2.7584,-0.75942,-1.8982,-6.9332,-1.3199,7.809,25.117,-9.0064,7.7099
-9.3406,8.5628,6.8729,1.5515,-16.353,6.5635,-11.997,-2.9142,-0.8077,-2.0472,-6.9142,-1.4603,7.7778,24.866,-9.0148,7.5351
-9.4022,8.358,6.8701,1.3435,-16.315,6.3915,-11.902,-3.07,-0.85558,-2.1959,-6.8947,-1.6004,7.7469,24.615,-9.0229,7.3606
-9.4636,8.1528,6.8678,1.1355,-16.276,6.2194,-11.807,-3.2258,-0.90306,-2.3444,-6.8746,-1.7401,7.7161,24.365,-9.0308,7.1865
-9.4636,8.1528,6.8678,1.1355,-16.276,6.2194,-11.807,-3.2258,-0.90306,-2.3444,-6.8746,-1.7401,7.7161,24.365,-9.0308,7.1865
-9.5248,7.9473,6.866,0.92771,-16.236,6.0472,-11.711,-3.3815,-0.95013,-2.4927,-6.8539,-1.8795,7.6855,24.115,-9.0383,7.0128
-9.5857,7.7416,6.8648,0.72003,-16.196,5.8749,-11.614,-3.5372,-0.9968,-2.6408,-6.8327,-2.0185,7.6551,23.865,-9.0456,6.8394
-9.6464,7.5356,6.8641,0.51251,-16.156,5.7025,-11.516,-3.6928,-1.0431,-2.7886,-6.8108,-2.1572,7.6248,23.615,-9.0527,6.6665
-9.7068,7.3294,6.8639,0.30515,-16.116,5.53,-11.418,-3.8483,-1.0889,-2.9361,-6.7884,-2.2955,7.5947,23.365,-9.0594,6.4939
-9.7068,7.3294,6.8639,0.30515,-16.116,5.53,-11.418,-3.8483,-1.0889,-2.9361,-6.7884,-2.2955,7.5947,23.365,-9.0594,6.4939
-9.767,7.1229,6.8642,0.097982,-16.075,5.3574,-11.318,-4.0037,-1.1343,-3.0833,-6.7654,-2.4334,7.5648,23.116,-9.0658,6.3218
-9.827,6.9162,6.8651,-0.10899,-16.033,5.1848,-11.218,-4.159,-1.1793,-3.2303,-6.7418,-2.571,7.5351,22.867,-9.072,6.1501
-9.8867,6.7093,6.8665,-0.31576,-15.992,5.012,-11.118,-4.3142,-1.2238,-3.3769,-6.7176,-2.7081,7.5055,22.617,-9.0778,5.9789
-9.8867,6.7093,6.8665,-0.31576,-15.992,5.012,-11.118,-4.3142,-1.2238,-3.3769,-6.7176,-2.7081,7.5055,22.617,-9.0778,5.9789
-9.9462,6.5022,6.8684,-0.5223,-15.95,4.8393,-11.016,-4.4693,-1.268,-3.5233,-6.6929,-2.8449,7.4761,22.369,-9.0834,5.8081
-9.9462,6.5022,6.8684,-0.5223,-15.95,4.8393,-11.016,-4.4693,-1.268,-3.5233,-6.6929,-2.8449,7.4761,22.369,-9.0834,5.8081
-10.005,6.2949,6.8709,-0.7286,-15.907,4.6664,-10.914,-4.6243,-1.3116,-3.6693,-6.6675,-2.9812,7.4469,22.12,-9.0886,5.6378
-10.064,6.0873,6.8739,-0.93465,-15.864,4.4936,-10.811,-4.7791,-1.3549,-3.815,-6.6416,-3.117,7.4179,21.872,-9.0935,5.468
-10.123,5.8796,6.8774,-1.1404,-15.821,4.3206,-10.707,-4.9337,-1.3976,-3.9603,-6.615,-3.2525,7.3891,21.624,-9.0981,5.2987
-10.181,5.6717,6.8814,-1.3459,-15.778,4.1477,-10.602,-5.0882,-1.4399,-4.1053,-6.5879,-3.3874,7.3604,21.376,-9.1023,5.1299
-10.181,5.6717,6.8814,-1.3459,-15.778,4.1477,-10.602,-5.0882,-1.4399,-4.1053,-6.5879,-3.3874,7.3604,21.376,-9.1023,5.1299
-10.24,5.4637,6.886,-1.5511,-15.734,3.9748,-10.497,-5.2424,-1.4818,-4.25,-6.5602,-3.5219,7.3319,21.128,-9.1063,4.9617
-10.297,5.2555,6.8911,-1.756,-15.69,3.8018,-10.39,-5.3965,-1.5232,-4.3942,-6.532,-3.656,7.3037,20.881,-9.1099,4.794
-10.355,5.0471,6.8968,-1.9606,-15.645,3.6288,-10.284,-5.5504,-1.5641,-4.5381,-6.5031,-3.7895,7.2755,20.634,-9.1131,4.6268
-10.355,5.0471,6.8968,-1.9606,-15.645,3.6288,-10.284,-5.5504,-1.5641,-4.5381,-6.5031,-3.7895,7.2755,20.634,-9.1131,4.6268
-10.412,4.8386,6.903,-2.1648,-15.6,3.4558,-10.176,-5.7041,-1.6046,-4.6816,-6.4736,-3.9225,7.2476,20.388,-9.116,4.4603
-10.469,4.63,6.9097,-2.3687,-15.555,3.2829,-10.067,-5.8575,-1.6445,-4.8246,-6.4436,-4.0551,7.2199,20.142,-9.1186,4.2943
-10.526,4.4213,6.9169,-2.5722,-15.509,3.1099,-9.9582,-6.0107,-1.684,-4.9673,-6.4129,-4.1871,7.1923,19.896,-9.1208,4.1289
-10.526,4.4213,6.9169,-2.5722,-15.509,3.1099,-9.9582,-6.0107,-1.684,-4.9673,-6.4129,-4.1871,7.1923,19.896,-9.1208,4.1289
-10.583,4.2124,6.9247,-2.7754,-15.464,2.937,-9.8482,-6.1636,-1.7231,-5.1095,-6.3817,-4.3185,7.165,19.651,-9.1227,3.9642
-10.639,4.0035,6.933,-2.9781,-15.417,2.7641,-9.7374,-6.3162,-1.7616,-5.2513,-6.3499,-4.4495,7.1378,19.406,-9.1241,3.8
-10.695,3.7944,6.9419,-3.1805,-15.371,2.5913,-9.6259,-6.4686,-1.7996,-5.3927,-6.3175,-4.5799,7.1108,19.161,-9.1252,3.6366
-10.695,3.7944,6.9419,-3.1805,-15.371,2.5913,-9.6259,-6.4686,-1.7996,-5.3927,-6.3175,-4.5799,7.1108,19.161,-9.1252,3.6366
-10.75,3.5853,6.9513,-3.3824,-15.324,2.4185,-9.5136,-6.6207,-1.8372,-5.5335,-6.2845,-4.7097,7.084,18.917,-9.126,3.4737
-10.75,3.5853,6.9513,-3.3824,-15.324,2.4185,-9.5136,-6.6207,-1.8372,-5.5335,-6.2845,-4.7097,7.084,18.917,-9.126,3.4737
-10.806,3.3761,6.9612,-3.5839,-15.276,2.2457,-9.4006,-6.7725,-1.8742,-5.674,-6.2509,-4.8389,7.0574,18.673,-9.1263,3.3116
-10.861,3.1668,6.9716,-3.7849,-15.229,2.0731,-9.2868,-6.924,-1.9107,-5.8139,-6.2168,-4.9676,7.0309,18.43,-9.1263,3.1501
-10.915,2.9575,6.9826,-3.9855,-15.181,1.9005,-9.1722,-7.0751,-1.9468,-5.9533,-6.182,-5.0957,7.0047,18.187,-9.1259,2.9893
-10.97,2.7481,6.9941,-4.1856,-15.132,1.728,-9.0569,-7.2259,-1.9823,-6.0923,-6.1467,-5.2232,6.9786,17.945,-9.1251,2.8293
-10.97,2.7481,6.9941,-4.1856,-15.132,1.728,-9.0569,-7.2259,-1.9823,-6.0923,-6.1467,-5.2232,6.9786,17.945,-9.1251,2.8293
-11.024,2.5387,7.0062,-4.3853,-15.084,1.5555,-8.9409,-7.3764,-2.0173,-6.2307,-6.1107,-5.35,6.9528,17.703,-9.1239,2.6699
-11.077,2.3293,7.0188,-4.5844,-15.035,1.3832,-8.8241,-7.5265,-2.0518,-6.3687,-6.0742,-5.4763,6.9271,17.461,-9.1223,2.5113
-11.131,2.1199,7.0319,-4.783,-14.986,1.211,-8.7065,-7.6762,-2.0858,-6.5061,-6.0371,-5.6019,6.9016,17.22,-9.1203,2.3534
-11.131,2.1199,7.0319,-4.783,-14.986,1.211,-8.7065,-7.6762,-2.0858,-6.5061,-6.0371,-5.6019,6.9016,17.22,-9.1203,2.3534
-11.184,1.9104,7.0455,-4.9811,-14.936,1.0388,-8.5882,-7.8255,-2.1192,-6.6429,-5.9994,-5.7268,6.8763,16.98,-9.1178,2.1963
-11.237,1.7009,7.0597,-5.1786,-14.886,0.86683,-8.4691,-7.9745,-2.1522,-6.7792,-5.9611,-5.8511,6.8512,16.74,-9.115,2.04
-11.289,1.4915,7.0744,-5.3756,-14.836,0.69496,-8.3493,-8.123,-2.1846,-6.915,-5.9223,-5.9748,6.8262,16.501,-9.1117,1.8845
-11.289,1.4915,7.0744,-5.3756,-14.836,0.69496,-8.3493,-8.123,-2.1846,-6.915,-5.9223,-5.9748,6.8262,16.501,-9.1117,1.8845
-11.341,1.2821,7.0897,-5.5721,-14.786,0.52322,-8.2287,-8.2712,-2.2165,-7.0502,-5.8828,-6.0978,6.8015,16.262,-9.108,1.7297
-11.393,1.0727,7.1054,-5.7679,-14.735,0.35162,-8.1074,-8.4188,-2.2478,-7.1848,-5.8428,-6.2201,6.7769,16.024,-9.1039,1.5758
-11.444,0.86329,7.1217,-5.9632,-14.684,0.18017,-7.9854,-8.5661,-2.2787,-7.3188,-5.8022,-6.3417,6.7526,15.786,-9.0994,1.4227
-11.496,0.65397,7.1386,-6.1578,-14.632,0.0088871,-7.8626,-8.7129,-2.3089,-7.4523,-5.761,-6.4626,6.7284,15.549,-9.0944,1.2704
-11.496,0.65397,7.1386,-6.1578,-14.632,0.0088871,-7.8626,-8.7129,-2.3089,-7.4523,-5.761,-6.4626,6.7284,15.549,-9.0944,1.2704
-11.546,0.44471,7.1559,-6.3519,-14.581,-0.16223,-7.739,-8.8592,-2.3387,-7.5851,-5.7192,-6.5828,6.7044,15.313,-9.0889,1.119
-11.597,0.23551,7.1738,-6.5453,-14.529,-0.33318,-7.6148,-9.0051,-2.3679,-7.7173,-5.6768,-6.7023,6.6805,15.077,-9.0831,0.96847
-11.647,0.026391,7.1922,-6.7381,-14.477,-0.50395,-7.4898,-9.1505,-2.3966,-7.8489,-5.6339,-6.821,6.6569,14.842,-9.0767,0.81879
-11.696,-0.18265,7.2112,-6.9302,-14.424,-0.67452,-7.364,-9.2953,-2.4247,-7.9799,-5.5903,-6.939,6.6335,14.607,-9.0699,0.67
-11.696,-0.18265,7.2112,-6.9302,-14.424,-0.67452,-7.364,-9.2953,-2.4247,-7.9799,-5.5903,-6.939,6.6335,14.607,-9.0699,0.67
-11.746,-0.3916,7.2306,-7.1216,-14.371,-0.8449,-7.2375,-9.4397,-2.4522,-8.1102,-5.5462,-7.0563,6.6102,14.373,-9.0627,0.52212
-11.795,-0.60044,7.2506,-7.3124,-14.318,-1.0151,-7.1103,-9.5835,-2.4793,-8.2399,-5.5015,-7.1728,6.5871,14.14,-9.055,0.37514
-11.795,-0.60044,7.2506,-7.3124,-14.318,-1.0151,-7.1103,-9.5835,-2.4793,-8.2399,-5.5015,-7.1728,6.5871,14.14,-9.055,0.37514
-11.844,-0.80918,7.2711,-7.5025,-14.265,-1.185,-6.9824,-9.7269,-2.5057,-8.3689,-5.4563,-7.2886,6.5642,13.908,-9.0468,0.22909
-11.892,-1.0178,7.2922,-7.6918,-14.211,-1.3548,-6.8537,-9.8696,-2.5317,-8.4973,-5.4104,-7.4036,6.5415,13.676,-9.0381,0.083975
-11.94,-1.2263,7.3137,-7.8805,-14.157,-1.5243,-6.7244,-10.012,-2.557,-8.6249,-5.364,-7.5178,6.5189,13.444,-9.029,-0.060192
-11.987,-1.4346,7.3358,-8.0684,-14.103,-1.6935,-6.5942,-10.154,-2.5819,-8.7519,-5.317,-7.6312,6.4965,13.214,-9.0194,-0.2034
-11.987,-1.4346,7.3358,-8.0684,-14.103,-1.6935,-6.5942,-10.154,-2.5819,-8.7519,-5.317,-7.6312,6.4965,13.214,-9.0194,-0.2034
-12.035,-1.6428,7.3584,-8.2556,-14.049,-1.8626,-6.4634,-10.295,-2.6061,-8.8782,-5.2694,-7.7438,6.4743,12.984,-9.0093,-0.34563
-12.082,-1.8509,7.3815,-8.442,-13.994,-2.0313,-6.3319,-10.435,-2.6298,-9.0038,-5.2213,-7.8556,6.4523,12.755,-8.9987,-0.48688
-12.128,-2.0587,7.4052,-8.6277,-13.939,-2.1999,-6.1996,-10.575,-2.653,-9.1287,-5.1726,-7.9666,6.4305,12.527,-8.9876,-0.62714
-12.174,-2.2665,7.4293,-8.8126,-13.884,-2.3681,-6.0666,-10.714,-2.6756,-9.2529,-5.1233,-8.0767,6.4088,12.299,-8.976,-0.76639
-12.174,-2.2665,7.4293,-8.8126,-13.884,-2.3681,-6.0666,-10.714,-2.6756,-9.2529,-5.1233,-8.0767,6.4088,12.299,-8.976,-0.76639
-12.22,-2.474,7.454,-8.9967,-13.828,-2.5361,-5.9329,-10.853,-2.6976,-9.3763,-5.0734,-8.1861,6.3873,12.072,-8.964,-0.90462
-12.265,-2.6813,7.4792,-9.18,-13.773,-2.7038,-5.7986,-10.991,-2.7191,-9.499,-5.023,-8.2946,6.366,11.846,-8.9514,-1.0418
-12.31,-2.8884,7.5049,-9.3625,-13.717,-2.8712,-5.6635,-11.128,-2.74,-9.621,-4.972,-8.4022,6.3448,11.621,-8.9383,-1.178
-12.355,-3.0954,7.5311,-9.5442,-13.66,-3.0383,-5.5277,-11.265,-2.7603,-9.7422,-4.9204,-8.509,6.3238,11.396,-8.9247,-1.3131
-12.355,-3.0954,7.5311,-9.5442,-13.66,-3.0383,-5.5277,-11.265,-2.7603,-9.7422,-4.9204,-8.509,6.3238,11.396,-8.9247,-1.3131
-12.399,-3.3021,7.5578,-9.725,-13.604,-3.2051,-5.3912,-11.401,-2.7801,-9.8627,-4.8683,-8.6149,6.303,11.173,-8.9106,-1.4471
-12.443,-3.5085,7.5851,-9.905,-13.547,-3.3716,-5.254,-11.537,-2.7993,-9.9824,-4.8156,-8.7199,6.2824,10.95,-8.8959,-1.5801
-12.443,-3.5085,7.5851,-9.905,-13.547,-3.3716,-5.254,-11.537,-2.7993,-9.9824,-4.8156,-8.7199,6.2824,10.95,-8.8959,-1.5801
-12.487,-3.7148,7.6128,-10.084,-13.49,-3.5377,-5.1161,-11.672,-2.8179,-10.101,-4.7623,-8.8241,6.2619,10.728,-8.8808,-1.712
-12.53,-3.9208,7.6411,-10.262,-13.433,-3.7035,-4.9775,-11.806,-2.836,-10.219,-4.7085,-8.9274,6.2415,10.507,-8.8651,-1.8428
-12.573,-4.1265,7.6699,-10.44,-13.376,-3.869,-4.8382,-11.939,-2.8536,-10.337,-4.6541,-9.0298,6.2214,10.286,-8.8489,-1.9725
-12.573,-4.1265,7.6699,-10.44,-13.376,-3.869,-4.8382,-11.939,-2.8536,-10.337,-4.6541,-9.0298,6.2214,10.286,-8.8489,-1.9725
-12.615,-4.332,7.6991,-10.616,-13.318,-4.0342,-4.6983,-12.072,-2.8705,-10.453,-4.5992,-9.1313,6.2014,10.067,-8.8321,-2.1011
-12.615,-4.332,7.6991,-10.616,-13.318,-4.0342,-4.6983,-12.072,-2.8705,-10.453,-4.5992,-9.1313,6.2014,10.067,-8.8321,-2.1011
-12.657,-4.5372,7.7289,-10.792,-13.261,-4.199,-4.5576,-12.204,-2.8869,-10.569,-4.5437,-9.2319,6.1815,9.8479,-8.8148,-2.2285
-12.657,-4.5372,7.7289,-10.792,-13.261,-4.199,-4.5576,-12.204,-2.8869,-10.569,-4.5437,-9.2319,6.1815,9.8479,-8.8148,-2.2285
-12.74,-4.9468,7.7899,-11.14,-13.144,-4.5275,-4.2743,-12.465,-2.918,-10.798,-4.4311,-9.4303,6.1423,9.4131,-8.7786,-2.48
-12.74,-4.9468,7.7899,-11.14,-13.144,-4.5275,-4.2743,-12.465,-2.918,-10.798,-4.4311,-9.4303,6.1423,9.4131,-8.7786,-2.48
-12.781,-5.1511,7.8212,-11.313,-13.086,-4.6912,-4.1316,-12.595,-2.9327,-10.912,-4.3739,-9.5281,6.1229,9.197,-8.7597,-2.604
-12.821,-5.3552,7.853,-11.485,-13.027,-4.8545,-3.9883,-12.724,-2.9468,-11.024,-4.3163,-9.6249,6.1036,8.9819,-8.7403,-2.7269
-12.861,-5.5589,7.8853,-11.656,-12.968,-5.0175,-3.8443,-12.852,-2.9604,-11.136,-4.258,-9.7209,6.0845,8.7676,-8.7203,-2.8486
-12.861,-5.5589,7.8853,-11.656,-12.968,-5.0175,-3.8443,-12.852,-2.9604,-11.136,-4.258,-9.7209,6.0845,8.7676,-8.7203,-2.8486
-12.901,-5.7623,7.918,-11.826,-12.909,-5.18,-3.6997,-12.98,-2.9734,-11.247,-4.1993,-9.8159,6.0656,8.5542,-8.6997,-2.9691
-12.94,-5.9654,7.9513,-11.995,-12.85,-5.3422,-3.5543,-13.106,-2.9859,-11.357,-4.1399,-9.9099,6.0467,8.3418,-8.6786,-3.0884
-12.979,-6.1681,7.985,-12.163,-12.791,-5.5039,-3.4084,-13.232,-2.9977,-11.466,-4.0801,-10.003,6.0281,8.1303,-8.6569,-3.2065
-13.017,-6.3705,8.0193,-12.33,-12.731,-5.6652,-3.2618,-13.357,-3.0091,-11.574,-4.0197,-10.095,6.0095,7.9197,-8.6347,-3.3234
-13.017,-6.3705,8.0193,-12.33,-12.731,-5.6652,-3.2618,-13.357,-3.0091,-11.574,-4.0197,-10.095,6.0095,7.9197,-8.6347,-3.3234
-13.055,-6.5726,8.054,-12.496,-12.671,-5.8261,-3.1145,-13.482,-3.0198,-11.681,-3.9588,-10.186,5.9911,7.7101,-8.6119,-3.439
-13.093,-6.7743,8.0892,-12.661,-12.611,-5.9865,-2.9666,-13.605,-3.03,-11.788,-3.8973,-10.276,5.9729,7.5015,-8.5885,-3.5535
-13.13,-6.9756,8.1249,-12.825,-12.551,-6.1466,-2.818,-13.728,-3.0397,-11.894,-3.8353,-10.365,5.9547,7.2938,-8.5646,-3.6667
-13.13,-6.9756,8.1249,-12.825,-12.551,-6.1466,-2.818,-13.728,-3.0397,-11.894,-3.8353,-10.365,5.9547,7.2938,-8.5646,-3.6667
-13.167,-7.1765,8.161,-12.988,-12.491,-6.3061,-2.6688,-13.849,-3.0488,-11.998,-3.7728,-10.454,5.9367,7.087,-8.54,-3.7787
-13.204,-7.3771,8.1977,-13.15,-12.43,-6.4652,-2.519,-13.97,-3.0573,-12.102,-3.7098,-10.541,5.9188,6.8813,-8.515,-3.8894
-13.24,-7.5773,8.2348,-13.311,-12.37,-6.6239,-2.3686,-14.09,-3.0653,-12.205,-3.6462,-10.627,5.901,6.6765,-8.4893,-3.9988
-13.275,-7.777,8.2724,-13.471,-12.309,-6.7821,-2.2175,-14.21,-3.0727,-12.307,-3.5821,-10.712,5.8834,6.4728,-8.4631,-4.107
-13.275,-7.777,8.2724,-13.471,-12.309,-6.7821,-2.2175,-14.21,-3.0727,-12.307,-3.5821,-10.712,5.8834,6.4728,-8.4631,-4.107
-13.311,-7.9764,8.3105,-13.63,-12.248,-6.9398,-2.0658,-14.328,-3.0796,-12.409,-3.5175,-10.796,5.8659,6.27,-8.4363,-4.2139
-13.346,-8.1753,8.349,-13.787,-12.187,-7.0971,-1.9136,-14.445,-3.086,-12.509,-3.4524,-10.879,5.8485,6.0683,-8.4089,-4.3195
-13.346,-8.1753,8.349,-13.787,-12.187,-7.0971,-1.9136,-14.445,-3.086,-12.509,-3.4524,-10.879,5.8485,6.0683,-8.4089,-4.3195
-13.38,-8.3739,8.388,-13.944,-12.126,-7.2538,-1.7607,-14.562,-3.0917,-12.608,-3.3868,-10.962,5.8311,5.8675,-8.3809,-4.4238
-13.414,-8.572,8.4275,-14.099,-12.064,-7.4101,-1.6071,-14.678,-3.097,-12.707,-3.3206,-11.043,5.8139,5.6678,-8.3523,-4.5269
-13.448,-8.7696,8.4675,-14.254,-12.003,-7.5659,-1.453,-14.792,-3.1017,-12.804,-3.254,-11.123,5.7969,5.4691,-8.3232,-4.6286
-13.481,-8.9668,8.5079,-14.407,-11.941,-7.7211,-1.2983,-14.906,-3.1058,-12.901,-3.1869,-11.202,5.7799,5.2715,-8.2934,-4.729
-13.514,-9.1636,8.5487,-14.559,-11.879,-7.8759,-1.143,-15.019,-3.1095,-12.997,-3.1192,-11.28,5.763,5.0749,-8.2631,-4.8281
-13.514,-9.1636,8.5487,-14.559,-11.879,-7.8759,-1.143,-15.019,-3.1095,-12.997,-3.1192,-11.28,5.763,5.0749,-8.2631,-4.8281
-13.546,-9.3599,8.5901,-14.71,-11.817,-8.0301,-0.98717,-15.131,-3.1125,-13.091,-3.0511,-11.357,5.7462,4.8794,-8.2322,-4.9258
-13.579,-9.5557,8.6318,-14.86,-11.755,-8.1838,-0.83071,-15.243,-3.1151,-13.185,-2.9825,-11.432,5.7295,4.6849,-8.2007,-5.0222
-13.579,-9.5557,8.6318,-14.86,-11.755,-8.1838,-0.83071,-15.243,-3.1151,-13.185,-2.9825,-11.432,5.7295,4.6849,-8.2007,-5.0222
-13.61,-9.7511,8.6741,-15.009,-11.693,-8.337,-0.67368,-15.353,-3.1171,-13.278,-2.9133,-11.507,5.7129,4.4914,-8.1686,-5.1173
-13.642,-9.946,8.7167,-15.157,-11.631,-8.4896,-0.51607,-15.462,-3.1186,-13.37,-2.8437,-11.581,5.6963,4.2991,-8.1359,-5.211
-13.673,-10.14,8.7599,-15.303,-11.568,-8.6417,-0.3579,-15.57,-3.1196,-13.461,-2.7736,-11.654,5.6799,4.1078,-8.1026,-5.3034
-13.673,-10.14,8.7599,-15.303,-11.568,-8.6417,-0.3579,-15.57,-3.1196,-13.461,-2.7736,-11.654,5.6799,4.1078,-8.1026,-5.3034
-13.703,-10.334,8.8034,-15.449,-11.506,-8.7932,-0.19917,-15.678,-3.12,-13.551,-2.7031,-11.725,5.6635,3.9176,-8.0687,-5.3944
-13.733,-10.528,8.8474,-15.593,-11.443,-8.9442,-0.039883,-15.784,-3.1199,-13.64,-2.632,-11.796,5.6472,3.7285,-8.0342,-5.4841
-13.763,-10.721,8.8919,-15.736,-11.38,-9.0946,0.11995,-15.889,-3.1193,-13.728,-2.5605,-11.865,5.631,3.5405,-7.9992,-5.5724
-13.792,-10.913,8.9368,-15.878,-11.317,-9.2445,0.28034,-15.994,-3.1182,-13.815,-2.4885,-11.934,5.6149,3.3536,-7.9635,-5.6593
-13.821,-11.105,8.9821,-16.018,-11.254,-9.3937,0.44126,-16.097,-3.1166,-13.902,-2.416,-12.001,5.5988,3.1678,-7.9272,-5.7448
-13.821,-11.105,8.9821,-16.018,-11.254,-9.3937,0.44126,-16.097,-3.1166,-13.902,-2.416,-12.001,5.5988,3.1678,-7.9272,-5.7448
-13.85,-11.296,9.0279,-16.158,-11.191,-9.5424,0.60271,-16.2,-3.1144,-13.987,-2.3431,-12.068,5.5828,2.9831,-7.8903,-5.8289
-13.878,-11.487,9.0741,-16.296,-11.128,-9.6905,0.7647,-16.301,-3.1118,-14.071,-2.2697,-12.133,5.5668,2.7996,-7.8528,-5.9117
-13.878,-11.487,9.0741,-16.296,-11.128,-9.6905,0.7647,-16.301,-3.1118,-14.071,-2.2697,-12.133,5.5668,2.7996,-7.8528,-5.9117
-13.906,-11.677,9.1207,-16.433,-11.065,-9.838,0.9272,-16.402,-3.1086,-14.154,-2.1959,-12.197,5.5509,2.6171,-7.8148,-5.993
-13.933,-11.867,9.1677,-16.569,-11.002,-9.9849,1.0902,-16.501,-3.105,-14.237,-2.1216,-12.26,5.5351,2.4358,-7.7761,-6.073
-13.96,-12.056,9.2151,-16.703,-10.938,-10.131,1.2538,-16.6,-3.1009,-14.318,-2.0469,-12.322,5.5193,2.2556,-7.7368,-6.1515
-13.986,-12.245,9.263,-16.837,-10.875,-10.277,1.4178,-16.697,-3.0962,-14.398,-1.9717,-12.383,5.5035,2.0765,-7.6969,-6.2286
-13.986,-12.245,9.263,-16.837,-10.875,-10.277,1.4178,-16.697,-3.0962,-14.398,-1.9717,-12.383,5.5035,2.0765,-7.6969,-6.2286
-14.013,-12.433,9.3113,-16.969,-10.811,-10.422,1.5823,-16.794,-3.0911,-14.478,-1.8961,-12.442,5.4878,1.8986,-7.6565,-6.3044
-14.013,-12.433,9.3113,-16.969,-10.811,-10.422,1.5823,-16.794,-3.0911,-14.478,-1.8961,-12.442,5.4878,1.8986,-7.6565,-6.3044
-14.038,-12.62,9.36,-17.1,-10.748,-10.566,1.7474,-16.889,-3.0855,-14.556,-1.82,-12.501,5.4721,1.7219,-7.6154,-6.3787
-14.064,-12.807,9.4091,-17.23,-10.684,-10.71,1.9129,-16.984,-3.0794,-14.633,-1.7436,-12.559,5.4565,1.5462,-7.5737,-6.4515
-14.064,-12.807,9.4091,-17.23,-10.684,-10.71,1.9129,-16.984,-3.0794,-14.633,-1.7436,-12.559,5.4565,1.5462,-7.5737,-6.4515
-14.089,-12.993,9.4586,-17.358,-10.621,-10.853,2.0789,-17.077,-3.0729,-14.71,-1.6666,-12.615,5.4408,1.3718,-7.5315,-6.523
-14.114,-13.179,9.5085,-17.485,-10.557,-10.996,2.2454,-17.169,-3.0658,-14.785,-1.5893,-12.67,5.4252,1.1985,-7.4886,-6.593
-14.138,-13.364,9.5588,-17.611,-10.493,-11.138,2.4123,-17.261,-3.0583,-14.859,-1.5116,-12.725,5.4097,1.0263,-7.4451,-6.6616
-14.162,-13.548,9.6095,-17.736,-10.429,-11.279,2.5797,-17.351,-3.0503,-14.933,-1.4334,-12.778,5.3941,0.85531,-7.4011,-6.7288
-14.162,-13.548,9.6095,-17.736,-10.429,-11.279,2.5797,-17.351,-3.0503,-14.933,-1.4334,-12.778,5.3941,0.85531,-7.4011,-6.7288
-14.185,-13.732,9.6606,-17.859,-10.366,-11.42,2.7476,-17.44,-3.0419,-15.005,-1.3548,-12.83,5.3786,0.68549,-7.3564,-6.7945
-14.208,-13.916,9.7121,-17.981,-10.302,-11.56,2.9159,-17.528,-3.033,-15.077,-1.2758,-12.881,5.363,0.51684,-7.3112,-6.8588
-14.231,-14.098,9.764,-18.102,-10.238,-11.699,3.0847,-17.615,-3.0237,-15.147,-1.1964,-12.931,5.3475,0.34936,-7.2654,-6.9217
-14.253,-14.28,9.8162,-18.221,-10.174,-11.838,3.2539,-17.701,-3.0139,-15.217,-1.1166,-12.979,5.3319,0.18306,-7.2189,-6.9831
-14.253,-14.28,9.8162,-18.221,-10.174,-11.838,3.2539,-17.701,-3.0139,-15.217,-1.1166,-12.979,5.3319,0.18306,-7.2189,-6.9831
-14.275,-14.462,9.8689,-18.34,-10.11,-11.976,3.4235,-17.786,-3.0037,-15.285,-1.0365,-13.027,5.3164,0.01794,-7.1719,-7.043
-14.275,-14.462,9.8689,-18.34,-10.11,-11.976,3.4235,-17.786,-3.0037,-15.285,-1.0365,-13.027,5.3164,0.01794,-7.1719,-7.043
-14.297,-14.643,9.9219,-18.457,-10.046,-12.113,3.5936,-17.87,-2.993,-15.352,-0.95591,-13.073,5.3009,-0.146,-7.1243,-7.1015
-14.297,-14.643,9.9219,-18.457,-10.046,-12.113,3.5936,-17.87,-2.993,-15.352,-0.95591,-13.073,5.3009,-0.146,-7.1243,-7.1015
-14.297,-14.643,9.9219,-18.457,-10.046,-12.113,3.5936,-17.87,-2.993,-15.352,-0.95591,-13.073,5.3009,-0.146,-7.1243,-7.1015
-14.339,-15.002,10.029,-18.687,-9.9181,-12.385,3.9349,-18.035,-2.9703,-15.484,-0.79364,-13.163,5.2697,-0.47031,-7.0273,-7.2142
-14.36,-15.181,10.083,-18.8,-9.8541,-12.52,4.1062,-18.115,-2.9584,-15.549,-0.71194,-13.206,5.2541,-0.63069,-6.978,-7.2684
-14.38,-15.359,10.138,-18.911,-9.7902,-12.655,4.2779,-18.195,-2.946,-15.612,-0.62987,-13.248,5.2385,-0.78987,-6.928,-7.3211
-14.399,-15.537,10.192,-19.022,-9.7262,-12.789,4.45,-18.273,-2.9332,-15.675,-0.54744,-13.289,5.2228,-0.94786,-6.8775,-7.3723
-14.419,-15.714,10.248,-19.131,-9.6623,-12.922,4.6224,-18.351,-2.92,-15.736,-0.46465,-13.329,5.2071,-1.1046,-6.8264,-7.4221
-14.419,-15.714,10.248,-19.131,-9.6623,-12.922,4.6224,-18.351,-2.92,-15.736,-0.46465,-13.329,5.2071,-1.1046,-6.8264,-7.4221
-14.438,-15.89,10.303,-19.239,-9.5983,-13.054,4.7953,-18.427,-2.9064,-15.797,-0.38151,-13.368,5.1914,-1.2602,-6.7748,-7.4705
-14.457,-16.066,10.359,-19.345,-9.5344,-13.186,4.9685,-18.502,-2.8924,-15.856,-0.29801,-13.406,5.1756,-1.4146,-6.7225,-7.5174
-14.475,-16.24,10.415,-19.451,-9.4706,-13.317,5.142,-18.576,-2.878,-15.915,-0.21418,-13.442,5.1598,-1.5678,-6.6697,-7.5628
-14.475,-16.24,10.415,-19.451,-9.4706,-13.317,5.142,-18.576,-2.878,-15.915,-0.21418,-13.442,5.1598,-1.5678,-6.6697,-7.5628
-14.493,-16.415,10.472,-19.554,-9.4067,-13.447,5.316,-18.649,-2.8632,-15.972,-0.13,-13.478,5.1439,-1.7198,-6.6164,-7.6068
-14.511,-16.588,10.529,-19.657,-9.3429,-13.576,5.4902,-18.721,-2.848,-16.028,-0.04549,-13.512,5.128,-1.8706,-6.5624,-7.6493
-14.528,-16.761,10.586,-19.758,-9.2791,-13.705,5.6648,-18.792,-2.8325,-16.084,0.039349,-13.546,5.112,-2.0202,-6.5079,-7.6904
-14.528,-16.761,10.586,-19.758,-9.2791,-13.705,5.6648,-18.792,-2.8325,-16.084,0.039349,-13.546,5.112,-2.0202,-6.5079,-7.6904
-14.545,-16.933,10.644,-19.858,-9.2154,-13.833,5.8398,-18.862,-2.8166,-16.138,0.12451,-13.578,5.0959,-2.1685,-6.4529,-7.73
-14.561,-17.105,10.702,-19.957,-9.1517,-13.96,6.0151,-18.93,-2.8003,-16.192,0.20999,-13.609,5.0798,-2.3157,-6.3972,-7.7681
-14.578,-17.275,10.76,-20.054,-9.088,-14.087,6.1907,-18.998,-2.7836,-16.244,0.29579,-13.639,5.0636,-2.4616,-6.3411,-7.8048
-14.578,-17.275,10.76,-20.054,-9.088,-14.087,6.1907,-18.998,-2.7836,-16.244,0.29579,-13.639,5.0636,-2.4616,-6.3411,-7.8048
-14.593,-17.445,10.818,-20.15,-9.0245,-14.213,6.3666,-19.064,-2.7666,-16.296,0.38189,-13.668,5.0473,-2.6064,-6.2844,-7.8401
-14.609,-17.615,10.877,-20.244,-8.9609,-14.338,6.5428,-19.13,-2.7492,-16.347,0.46829,-13.695,5.0309,-2.7499,-6.2271,-7.8738
-14.624,-17.783,10.936,-20.338,-8.8975,-14.462,6.7193,-19.194,-2.7315,-16.396,0.55499,-13.722,5.0144,-2.8922,-6.1693,-7.9062
-14.639,-17.951,10.996,-20.43,-8.8341,-14.585,6.8961,-19.257,-2.7135,-16.445,0.64198,-13.748,4.9979,-3.0334,-6.1109,-7.9371
-14.639,-17.951,10.996,-20.43,-8.8341,-14.585,6.8961,-19.257,-2.7135,-16.445,0.64198,-13.748,4.9979,-3.0334,-6.1109,-7.9371
