-16.185,31.616,-106.74,94.456,-38.035,45.504,-99.051,103.46,-34.865,38.131,-120.3,101.32,-84.133,92.902,-50.751,101.43
-16.185,31.616,-106.74,94.456,-38.035,45.504,-99.051,103.46,-34.865,38.131,-120.3,101.32,-84.133,92.902,-50.751,101.43
-16.218,31.599,-106.68,94.417,-37.933,45.506,-99.148,103.59,-34.884,38.037,-120.26,101.21,-84.194,92.947,-50.945,101.52
-16.218,31.599,-106.68,94.417,-37.933,45.506,-99.148,103.59,-34.884,38.037,-120.26,101.21,-84.194,92.947,-50.945,101.52
-16.218,31.599,-106.68,94.417,-37.933,45.506,-99.148,103.59,-34.884,38.037,-120.26,101.21,-84.194,92.947,-50.945,101.52
-16.252,31.581,-106.63,94.376,-37.832,45.506,-99.245,103.73,-34.902,37.944,-120.21,101.11,-84.254,92.991,-51.138,101.61
-16.252,31.581,-106.63,94.376,-37.832,45.506,-99.245,103.73,-34.902,37.944,-120.21,101.11,-84.254,92.991,-51.138,101.61
-16.252,31.581,-106.63,94.376,-37.832,45.506,-99.245,103.73,-34.902,37.944,-120.21,101.11,-84.254,92.991,-51.138,101.61
-16.287,31.563,-106.57,94.335,-37.731,45.506,-99.341,103.87,-34.92,37.849,-120.16,101.01,-84.314,93.034,-51.332,101.7
-16.287,31.563,-106.57,94.335,-37.731,45.506,-99.341,103.87,-34.92,37.849,-120.16,101.01,-84.314,93.034,-51.332,101.7
-16.287,31.563,-106.57,94.335,-37.731,45.506,-99.341,103.87,-34.92,37.849,-120.16,101.01,-84.314,93.034,-51.332,101.7
-16.358,31.523,-106.46,94.251,-37.532,45.503,-99.533,104.14,-34.955,37.66,-120.07,100.79,-84.433,93.119,-51.717,101.88
-16.358,31.523,-106.46,94.251,-37.532,45.503,-99.533,104.14,-34.955,37.66,-120.07,100.79,-84.433,93.119,-51.717,101.88
-16.395,31.502,-106.4,94.207,-37.433,45.501,-99.628,104.27,-34.972,37.564,-120.02,100.68,-84.492,93.16,-51.909,101.96
-16.395,31.502,-106.4,94.207,-37.433,45.501,-99.628,104.27,-34.972,37.564,-120.02,100.68,-84.492,93.16,-51.909,101.96
-16.432,31.48,-106.34,94.162,-37.334,45.497,-99.723,104.4,-34.989,37.468,-119.97,100.57,-84.551,93.2,-52.101,102.04
-16.432,31.48,-106.34,94.162,-37.334,45.497,-99.723,104.4,-34.989,37.468,-119.97,100.57,-84.551,93.2,-52.101,102.04
-16.432,31.48,-106.34,94.162,-37.334,45.497,-99.723,104.4,-34.989,37.468,-119.97,100.57,-84.551,93.2,-52.101,102.04
-16.508,31.434,-106.22,94.071,-37.138,45.487,-99.912,104.67,-35.02,37.276,-119.86,100.35,-84.669,93.279,-52.483,102.21
-16.508,31.434,-106.22,94.071,-37.138,45.487,-99.912,104.67,-35.02,37.276,-119.86,100.35,-84.669,93.279,-52.483,102.21
-16.547,31.409,-106.16,94.023,-37.041,45.481,-100.01,104.8,-35.036,37.178,-119.81,100.23,-84.727,93.317,-52.673,102.29
-16.547,31.409,-106.16,94.023,-37.041,45.481,-100.01,104.8,-35.036,37.178,-119.81,100.23,-84.727,93.317,-52.673,102.29
-16.547,31.409,-106.16,94.023,-37.041,45.481,-100.01,104.8,-35.036,37.178,-119.81,100.23,-84.727,93.317,-52.673,102.29
-16.547,31.409,-106.16,94.023,-37.041,45.481,-100.01,104.8,-35.036,37.178,-119.81,100.23,-84.727,93.317,-52.673,102.29
-16.586,31.384,-106.1,93.975,-36.945,45.474,-100.1,104.93,-35.05,37.081,-119.76,100.12,-84.785,93.354,-52.863,102.36
-16.586,31.384,-106.1,93.975,-36.945,45.474,-100.1,104.93,-35.05,37.081,-119.76,100.12,-84.785,93.354,-52.863,102.36
-16.586,31.384,-106.1,93.975,-36.945,45.474,-100.1,104.93,-35.05,37.081,-119.76,100.12,-84.785,93.354,-52.863,102.36
-16.667,31.331,-105.98,93.877,-36.754,45.458,-100.29,105.19,-35.079,36.885,-119.65,99.881,-84.9,93.427,-53.241,102.51
-16.667,31.331,-105.98,93.877,-36.754,45.458,-100.29,105.19,-35.079,36.885,-119.65,99.881,-84.9,93.427,-53.241,102.51
-16.667,31.331,-105.98,93.877,-36.754,45.458,-100.29,105.19,-35.079,36.885,-119.65,99.881,-84.9,93.427,-53.241,102.51
-16.709,31.303,-105.92,93.826,-36.659,45.448,-100.38,105.32,-35.092,36.786,-119.59,99.761,-84.957,93.462,-53.43,102.59
-16.709,31.303,-105.92,93.826,-36.659,45.448,-100.38,105.32,-35.092,36.786,-119.59,99.761,-84.957,93.462,-53.43,102.59
-16.793,31.245,-105.79,93.722,-36.471,45.426,-100.56,105.57,-35.118,36.587,-119.48,99.516,-85.07,93.53,-53.805,102.73
-16.793,31.245,-105.79,93.722,-36.471,45.426,-100.56,105.57,-35.118,36.587,-119.48,99.516,-85.07,93.53,-53.805,102.73
-16.793,31.245,-105.79,93.722,-36.471,45.426,-100.56,105.57,-35.118,36.587,-119.48,99.516,-85.07,93.53,-53.805,102.73
-16.836,31.215,-105.73,93.669,-36.377,45.414,-100.65,105.69,-35.13,36.487,-119.42,99.391,-85.126,93.563,-53.992,102.79
-16.836,31.215,-105.73,93.669,-36.377,45.414,-100.65,105.69,-35.13,36.487,-119.42,99.391,-85.126,93.563,-53.992,102.79
-16.88,31.184,-105.66,93.615,-36.284,45.401,-100.74,105.82,-35.142,36.386,-119.36,99.265,-85.182,93.595,-54.178,102.86
-16.88,31.184,-105.66,93.615,-36.284,45.401,-100.74,105.82,-35.142,36.386,-119.36,99.265,-85.182,93.595,-54.178,102.86
-16.924,31.152,-105.6,93.559,-36.192,45.387,-100.83,105.94,-35.153,36.285,-119.3,99.138,-85.238,93.626,-54.364,102.93
-16.924,31.152,-105.6,93.559,-36.192,45.387,-100.83,105.94,-35.153,36.285,-119.3,99.138,-85.238,93.626,-54.364,102.93
-16.924,31.152,-105.6,93.559,-36.192,45.387,-100.83,105.94,-35.153,36.285,-119.3,99.138,-85.238,93.626,-54.364,102.93
-16.969,31.119,-105.53,93.504,-36.101,45.372,-100.92,106.07,-35.164,36.184,-119.24,99.009,-85.293,93.657,-54.549,102.99
-16.969,31.119,-105.53,93.504,-36.101,45.372,-100.92,106.07,-35.164,36.184,-119.24,99.009,-85.293,93.657,-54.549,102.99
-17.014,31.085,-105.47,93.447,-36.009,45.357,-101.01,106.19,-35.175,36.082,-119.18,98.879,-85.348,93.687,-54.734,103.05
-17.014,31.085,-105.47,93.447,-36.009,45.357,-101.01,106.19,-35.175,36.082,-119.18,98.879,-85.348,93.687,-54.734,103.05
-17.06,31.05,-105.4,93.389,-35.919,45.34,-101.1,106.31,-35.185,35.98,-119.12,98.747,-85.403,93.716,-54.918,103.11
-17.06,31.05,-105.4,93.389,-35.919,45.34,-101.1,106.31,-35.185,35.98,-119.12,98.747,-85.403,93.716,-54.918,103.11
-17.107,31.015,-105.33,93.331,-35.829,45.323,-101.19,106.43,-35.194,35.877,-119.05,98.614,-85.457,93.744,-55.102,103.17
-17.153,30.978,-105.27,93.271,-35.739,45.305,-101.28,106.55,-35.203,35.774,-118.99,98.48,-85.511,93.771,-55.285,103.23
-17.153,30.978,-105.27,93.271,-35.739,45.305,-101.28,106.55,-35.203,35.774,-118.99,98.48,-85.511,93.771,-55.285,103.23
-17.201,30.941,-105.2,93.211,-35.65,45.285,-101.37,106.67,-35.212,35.671,-118.93,98.344,-85.565,93.798,-55.467,103.28
-17.201,30.941,-105.2,93.211,-35.65,45.285,-101.37,106.67,-35.212,35.671,-118.93,98.344,-85.565,93.798,-55.467,103.28
-17.201,30.941,-105.2,93.211,-35.65,45.285,-101.37,106.67,-35.212,35.671,-118.93,98.344,-85.565,93.798,-55.467,103.28
-17.249,30.903,-105.13,93.15,-35.562,45.265,-101.45,106.79,-35.22,35.567,-118.86,98.206,-85.619,93.824,-55.649,103.33
-17.249,30.903,-105.13,93.15,-35.562,45.265,-101.45,106.79,-35.22,35.567,-118.86,98.206,-85.619,93.824,-55.649,103.33
-17.249,30.903,-105.13,93.15,-35.562,45.265,-101.45,106.79,-35.22,35.567,-118.86,98.206,-85.619,93.824,-55.649,103.33
-17.346,30.824,-104.99,93.025,-35.386,45.223,-101.63,107.02,-35.236,35.358,-118.73,97.927,-85.725,93.874,-56.011,103.44
-17.396,30.783,-104.92,92.961,-35.299,45.2,-101.71,107.14,-35.243,35.253,-118.66,97.786,-85.777,93.897,-56.191,103.49
-17.396,30.783,-104.92,92.961,-35.299,45.2,-101.71,107.14,-35.243,35.253,-118.66,97.786,-85.777,93.897,-56.191,103.49
-17.396,30.783,-104.92,92.961,-35.299,45.2,-101.71,107.14,-35.243,35.253,-118.66,97.786,-85.777,93.897,-56.191,103.49
-17.446,30.742,-104.85,92.896,-35.213,45.177,-101.8,107.25,-35.249,35.147,-118.59,97.643,-85.829,93.92,-56.371,103.53
-17.446,30.742,-104.85,92.896,-35.213,45.177,-101.8,107.25,-35.249,35.147,-118.59,97.643,-85.829,93.92,-56.371,103.53
-17.446,30.742,-104.85,92.896,-35.213,45.177,-101.8,107.25,-35.249,35.147,-118.59,97.643,-85.829,93.92,-56.371,103.53
-17.446,30.742,-104.85,92.896,-35.213,45.177,-101.8,107.25,-35.249,35.147,-118.59,97.643,-85.829,93.92,-56.371,103.53
-17.548,30.656,-104.71,92.764,-35.042,45.127,-101.97,107.48,-35.261,34.934,-118.45,97.353,-85.932,93.963,-56.728,103.62
-17.548,30.656,-104.71,92.764,-35.042,45.127,-101.97,107.48,-35.261,34.934,-118.45,97.353,-85.932,93.963,-56.728,103.62
-17.599,30.612,-104.64,92.697,-34.957,45.101,-102.05,107.59,-35.267,34.828,-118.38,97.205,-85.983,93.984,-56.906,103.67
-17.599,30.612,-104.64,92.697,-34.957,45.101,-102.05,107.59,-35.267,34.828,-118.38,97.205,-85.983,93.984,-56.906,103.67
-17.651,30.566,-104.56,92.629,-34.873,45.074,-102.13,107.7,-35.271,34.72,-118.31,97.057,-86.034,94.003,-57.083,103.71
-17.651,30.566,-104.56,92.629,-34.873,45.074,-102.13,107.7,-35.271,34.72,-118.31,97.057,-86.034,94.003,-57.083,103.71
-17.704,30.52,-104.49,92.56,-34.789,45.046,-102.21,107.81,-35.276,34.612,-118.24,96.907,-86.084,94.022,-57.259,103.74
-17.704,30.52,-104.49,92.56,-34.789,45.046,-102.21,107.81,-35.276,34.612,-118.24,96.907,-86.084,94.022,-57.259,103.74
-17.756,30.473,-104.42,92.49,-34.706,45.017,-102.3,107.92,-35.28,34.504,-118.16,96.755,-86.134,94.04,-57.435,103.78
-17.756,30.473,-104.42,92.49,-34.706,45.017,-102.3,107.92,-35.28,34.504,-118.16,96.755,-86.134,94.04,-57.435,103.78
-17.81,30.425,-104.34,92.419,-34.623,44.988,-102.38,108.03,-35.283,34.396,-118.09,96.602,-86.184,94.058,-57.61,103.82
-17.81,30.425,-104.34,92.419,-34.623,44.988,-102.38,108.03,-35.283,34.396,-118.09,96.602,-86.184,94.058,-57.61,103.82
-17.864,30.377,-104.27,92.348,-34.541,44.957,-102.46,108.14,-35.286,34.286,-118.02,96.448,-86.233,94.074,-57.784,103.85
-17.864,30.377,-104.27,92.348,-34.541,44.957,-102.46,108.14,-35.286,34.286,-118.02,96.448,-86.233,94.074,-57.784,103.85
-17.918,30.327,-104.19,92.275,-34.459,44.926,-102.54,108.25,-35.289,34.177,-117.94,96.293,-86.282,94.09,-57.958,103.88
-17.918,30.327,-104.19,92.275,-34.459,44.926,-102.54,108.25,-35.289,34.177,-117.94,96.293,-86.282,94.09,-57.958,103.88
-17.973,30.276,-104.12,92.202,-34.378,44.894,-102.62,108.35,-35.291,34.067,-117.86,96.136,-86.331,94.104,-58.131,103.92
-17.973,30.276,-104.12,92.202,-34.378,44.894,-102.62,108.35,-35.291,34.067,-117.86,96.136,-86.331,94.104,-58.131,103.92
-18.028,30.225,-104.04,92.128,-34.298,44.861,-102.7,108.46,-35.293,33.957,-117.79,95.977,-86.379,94.118,-58.303,103.94
-18.028,30.225,-104.04,92.128,-34.298,44.861,-102.7,108.46,-35.293,33.957,-117.79,95.977,-86.379,94.118,-58.303,103.94
-18.084,30.173,-103.97,92.052,-34.218,44.827,-102.78,108.56,-35.294,33.846,-117.71,95.817,-86.427,94.131,-58.475,103.97
-18.084,30.173,-103.97,92.052,-34.218,44.827,-102.78,108.56,-35.294,33.846,-117.71,95.817,-86.427,94.131,-58.475,103.97
-18.084,30.173,-103.97,92.052,-34.218,44.827,-102.78,108.56,-35.294,33.846,-117.71,95.817,-86.427,94.131,-58.475,103.97
-18.14,30.119,-103.89,91.976,-34.138,44.792,-102.86,108.67,-35.295,33.735,-117.63,95.656,-86.474,94.144,-58.646,104
-18.196,30.065,-103.81,91.9,-34.059,44.756,-102.93,108.77,-35.296,33.623,-117.55,95.493,-86.521,94.155,-58.816,104.02
-18.196,30.065,-103.81,91.9,-34.059,44.756,-102.93,108.77,-35.296,33.623,-117.55,95.493,-86.521,94.155,-58.816,104.02
-18.253,30.01,-103.73,91.822,-33.981,44.72,-103.01,108.87,-35.296,33.511,-117.47,95.329,-86.568,94.166,-58.986,104.04
-18.253,30.01,-103.73,91.822,-33.981,44.72,-103.01,108.87,-35.296,33.511,-117.47,95.329,-86.568,94.166,-58.986,104.04
-18.253,30.01,-103.73,91.822,-33.981,44.72,-103.01,108.87,-35.296,33.511,-117.47,95.329,-86.568,94.166,-58.986,104.04
-18.368,29.897,-103.57,91.664,-33.825,44.644,-103.16,109.07,-35.294,33.285,-117.31,94.997,-86.66,94.185,-59.323,104.08
-18.368,29.897,-103.57,91.664,-33.825,44.644,-103.16,109.07,-35.294,33.285,-117.31,94.997,-86.66,94.185,-59.323,104.08
-18.368,29.897,-103.57,91.664,-33.825,44.644,-103.16,109.07,-35.294,33.285,-117.31,94.997,-86.66,94.185,-59.323,104.08
-18.426,29.839,-103.49,91.583,-33.748,44.605,-103.24,109.17,-35.293,33.172,-117.22,94.829,-86.705,94.193,-59.49,104.1
-18.426,29.839,-103.49,91.583,-33.748,44.605,-103.24,109.17,-35.293,33.172,-117.22,94.829,-86.705,94.193,-59.49,104.1
-18.485,29.781,-103.41,91.502,-33.672,44.565,-103.31,109.26,-35.291,33.058,-117.14,94.659,-86.75,94.2,-59.656,104.12
-18.485,29.781,-103.41,91.502,-33.672,44.565,-103.31,109.26,-35.291,33.058,-117.14,94.659,-86.75,94.2,-59.656,104.12
-18.544,29.721,-103.33,91.42,-33.596,44.524,-103.39,109.36,-35.289,32.944,-117.06,94.488,-86.795,94.207,-59.822,104.13
-18.544,29.721,-103.33,91.42,-33.596,44.524,-103.39,109.36,-35.289,32.944,-117.06,94.488,-86.795,94.207,-59.822,104.13
-18.603,29.66,-103.25,91.337,-33.521,44.482,-103.46,109.46,-35.286,32.829,-116.97,94.316,-86.839,94.212,-59.987,104.14
-18.603,29.66,-103.25,91.337,-33.521,44.482,-103.46,109.46,-35.286,32.829,-116.97,94.316,-86.839,94.212,-59.987,104.14
-18.603,29.66,-103.25,91.337,-33.521,44.482,-103.46,109.46,-35.286,32.829,-116.97,94.316,-86.839,94.212,-59.987,104.14
-18.663,29.599,-103.17,91.253,-33.446,44.439,-103.53,109.55,-35.283,32.714,-116.89,94.142,-86.882,94.217,-60.152,104.15
-18.663,29.599,-103.17,91.253,-33.446,44.439,-103.53,109.55,-35.283,32.714,-116.89,94.142,-86.882,94.217,-60.152,104.15
-18.723,29.536,-103.09,91.169,-33.372,44.396,-103.6,109.64,-35.28,32.599,-116.8,93.967,-86.926,94.221,-60.315,104.16
-18.783,29.473,-103.01,91.083,-33.298,44.351,-103.68,109.74,-35.276,32.483,-116.71,93.791,-86.969,94.224,-60.478,104.17
-18.844,29.409,-102.92,90.997,-33.224,44.306,-103.75,109.83,-35.271,32.366,-116.62,93.613,-87.011,94.227,-60.64,104.17
-18.844,29.409,-102.92,90.997,-33.224,44.306,-103.75,109.83,-35.271,32.366,-116.62,93.613,-87.011,94.227,-60.64,104.17
-18.905,29.344,-102.84,90.91,-33.152,44.26,-103.82,109.92,-35.267,32.25,-116.53,93.434,-87.053,94.228,-60.801,104.18
-18.905,29.344,-102.84,90.91,-33.152,44.26,-103.82,109.92,-35.267,32.25,-116.53,93.434,-87.053,94.228,-60.801,104.18
-18.905,29.344,-102.84,90.91,-33.152,44.26,-103.82,109.92,-35.267,32.25,-116.53,93.434,-87.053,94.228,-60.801,104.18
-18.966,29.278,-102.75,90.821,-33.079,44.213,-103.89,110.01,-35.261,32.132,-116.44,93.253,-87.095,94.229,-60.962,104.18
-18.966,29.278,-102.75,90.821,-33.079,44.213,-103.89,110.01,-35.261,32.132,-116.44,93.253,-87.095,94.229,-60.962,104.18
-18.966,29.278,-102.75,90.821,-33.079,44.213,-103.89,110.01,-35.261,32.132,-116.44,93.253,-87.095,94.229,-60.962,104.18
-19.028,29.211,-102.67,90.732,-33.008,44.165,-103.95,110.1,-35.256,32.015,-116.35,93.071,-87.136,94.228,-61.121,104.18
-19.09,29.143,-102.58,90.642,-32.936,44.116,-104.02,110.18,-35.249,31.897,-116.26,92.888,-87.177,94.227,-61.28,104.18
-19.09,29.143,-102.58,90.642,-32.936,44.116,-104.02,110.18,-35.249,31.897,-116.26,92.888,-87.177,94.227,-61.28,104.18
-19.153,29.074,-102.5,90.552,-32.866,44.066,-104.09,110.27,-35.243,31.778,-116.17,92.703,-87.217,94.225,-61.438,104.17
-19.153,29.074,-102.5,90.552,-32.866,44.066,-104.09,110.27,-35.243,31.778,-116.17,92.703,-87.217,94.225,-61.438,104.17
-19.215,29.004,-102.41,90.46,-32.795,44.016,-104.16,110.36,-35.236,31.659,-116.08,92.517,-87.257,94.222,-61.595,104.17
-19.215,29.004,-102.41,90.46,-32.795,44.016,-104.16,110.36,-35.236,31.659,-116.08,92.517,-87.257,94.222,-61.595,104.17
-19.278,28.934,-102.33,90.368,-32.726,43.964,-104.22,110.44,-35.228,31.54,-115.98,92.33,-87.296,94.218,-61.752,104.16
-19.278,28.934,-102.33,90.368,-32.726,43.964,-104.22,110.44,-35.228,31.54,-115.98,92.33,-87.296,94.218,-61.752,104.16
-19.342,28.862,-102.24,90.274,-32.656,43.912,-104.29,110.52,-35.221,31.42,-115.89,92.141,-87.335,94.214,-61.907,104.15
-19.342,28.862,-102.24,90.274,-32.656,43.912,-104.29,110.52,-35.221,31.42,-115.89,92.141,-87.335,94.214,-61.907,104.15
-19.342,28.862,-102.24,90.274,-32.656,43.912,-104.29,110.52,-35.221,31.42,-115.89,92.141,-87.335,94.214,-61.907,104.15
-19.406,28.789,-102.15,90.18,-32.588,43.859,-104.35,110.61,-35.212,31.3,-115.79,91.951,-87.373,94.208,-62.062,104.14
-19.406,28.789,-102.15,90.18,-32.588,43.859,-104.35,110.61,-35.212,31.3,-115.79,91.951,-87.373,94.208,-62.062,104.14
-19.406,28.789,-102.15,90.18,-32.588,43.859,-104.35,110.61,-35.212,31.3,-115.79,91.951,-87.373,94.208,-62.062,104.14
-19.534,28.642,-101.97,89.989,-32.452,43.75,-104.48,110.77,-35.194,31.058,-115.6,91.566,-87.449,94.194,-62.368,104.12
-19.534,28.642,-101.97,89.989,-32.452,43.75,-104.48,110.77,-35.194,31.058,-115.6,91.566,-87.449,94.194,-62.368,104.12
-19.598,28.566,-101.88,89.892,-32.384,43.694,-104.54,110.85,-35.185,30.937,-115.5,91.372,-87.486,94.186,-62.52,104.1
-19.598,28.566,-101.88,89.892,-32.384,43.694,-104.54,110.85,-35.185,30.937,-115.5,91.372,-87.486,94.186,-62.52,104.1
-19.598,28.566,-101.88,89.892,-32.384,43.694,-104.54,110.85,-35.185,30.937,-115.5,91.372,-87.486,94.186,-62.52,104.1
-19.663,28.49,-101.79,89.794,-32.318,43.637,-104.61,110.92,-35.175,30.815,-115.4,91.177,-87.522,94.177,-62.672,104.08
-19.663,28.49,-101.79,89.794,-32.318,43.637,-104.61,110.92,-35.175,30.815,-115.4,91.177,-87.522,94.177,-62.672,104.08
-19.663,28.49,-101.79,89.794,-32.318,43.637,-104.61,110.92,-35.175,30.815,-115.4,91.177,-87.522,94.177,-62.672,104.08
-19.663,28.49,-101.79,89.794,-32.318,43.637,-104.61,110.92,-35.175,30.815,-115.4,91.177,-87.522,94.177,-62.672,104.08
-19.794,28.335,-101.61,89.597,-32.186,43.521,-104.73,111.08,-35.153,30.57,-115.2,90.782,-87.594,94.156,-62.971,104.04
-19.794,28.335,-101.61,89.597,-32.186,43.521,-104.73,111.08,-35.153,30.57,-115.2,90.782,-87.594,94.156,-62.971,104.04
-19.859,28.256,-101.52,89.496,-32.121,43.462,-104.79,111.15,-35.142,30.447,-115.1,90.582,-87.629,94.144,-63.12,104.02
-19.859,28.256,-101.52,89.496,-32.121,43.462,-104.79,111.15,-35.142,30.447,-115.1,90.582,-87.629,94.144,-63.12,104.02
-19.925,28.176,-101.43,89.395,-32.056,43.402,-104.85,111.22,-35.13,30.324,-115,90.381,-87.663,94.132,-63.267,103.99
-19.925,28.176,-101.43,89.395,-32.056,43.402,-104.85,111.22,-35.13,30.324,-115,90.381,-87.663,94.132,-63.267,103.99
-19.992,28.095,-101.34,89.293,-31.991,43.341,-104.91,111.3,-35.118,30.2,-114.89,90.179,-87.697,94.118,-63.414,103.97
-19.992,28.095,-101.34,89.293,-31.991,43.341,-104.91,111.3,-35.118,30.2,-114.89,90.179,-87.697,94.118,-63.414,103.97
-20.058,28.013,-101.24,89.19,-31.928,43.279,-104.97,111.37,-35.105,30.076,-114.79,89.976,-87.731,94.104,-63.56,103.94
-20.058,28.013,-101.24,89.19,-31.928,43.279,-104.97,111.37,-35.105,30.076,-114.79,89.976,-87.731,94.104,-63.56,103.94
-20.125,27.931,-101.15,89.086,-31.864,43.216,-105.02,111.44,-35.092,29.951,-114.68,89.771,-87.764,94.088,-63.705,103.91
-20.191,27.847,-101.06,88.982,-31.802,43.153,-105.08,111.51,-35.079,29.826,-114.58,89.565,-87.796,94.072,-63.849,103.88
-20.191,27.847,-101.06,88.982,-31.802,43.153,-105.08,111.51,-35.079,29.826,-114.58,89.565,-87.796,94.072,-63.849,103.88
-20.191,27.847,-101.06,88.982,-31.802,43.153,-105.08,111.51,-35.079,29.826,-114.58,89.565,-87.796,94.072,-63.849,103.88
-20.259,27.763,-100.96,88.876,-31.739,43.088,-105.13,111.58,-35.065,29.7,-114.47,89.357,-87.828,94.055,-63.992,103.84
-20.259,27.763,-100.96,88.876,-31.739,43.088,-105.13,111.58,-35.065,29.7,-114.47,89.357,-87.828,94.055,-63.992,103.84
-20.326,27.677,-100.87,88.77,-31.677,43.023,-105.19,111.64,-35.05,29.574,-114.37,89.148,-87.86,94.037,-64.134,103.81
-20.393,27.591,-100.77,88.663,-31.616,42.957,-105.24,111.71,-35.036,29.448,-114.26,88.938,-87.891,94.018,-64.275,103.77
-20.461,27.503,-100.68,88.555,-31.555,42.889,-105.3,111.77,-35.02,29.322,-114.15,88.727,-87.921,93.998,-64.415,103.73
-20.461,27.503,-100.68,88.555,-31.555,42.889,-105.3,111.77,-35.02,29.322,-114.15,88.727,-87.921,93.998,-64.415,103.73
-20.461,27.503,-100.68,88.555,-31.555,42.889,-105.3,111.77,-35.02,29.322,-114.15,88.727,-87.921,93.998,-64.415,103.73
-20.529,27.415,-100.58,88.446,-31.495,42.821,-105.35,111.84,-35.005,29.194,-114.04,88.514,-87.951,93.977,-64.554,103.69
-20.529,27.415,-100.58,88.446,-31.495,42.821,-105.35,111.84,-35.005,29.194,-114.04,88.514,-87.951,93.977,-64.554,103.69
-20.597,27.326,-100.48,88.336,-31.435,42.753,-105.4,111.9,-34.989,29.067,-113.93,88.3,-87.98,93.955,-64.693,103.65
-20.597,27.326,-100.48,88.336,-31.435,42.753,-105.4,111.9,-34.989,29.067,-113.93,88.3,-87.98,93.955,-64.693,103.65
-20.666,27.236,-100.39,88.226,-31.375,42.683,-105.45,111.96,-34.972,28.939,-113.82,88.085,-88.009,93.932,-64.83,103.61
-20.666,27.236,-100.39,88.226,-31.375,42.683,-105.45,111.96,-34.972,28.939,-113.82,88.085,-88.009,93.932,-64.83,103.61
-20.666,27.236,-100.39,88.226,-31.375,42.683,-105.45,111.96,-34.972,28.939,-113.82,88.085,-88.009,93.932,-64.83,103.61
-20.734,27.145,-100.29,88.114,-31.316,42.612,-105.5,112.02,-34.955,28.811,-113.7,87.868,-88.037,93.909,-64.966,103.56
-20.734,27.145,-100.29,88.114,-31.316,42.612,-105.5,112.02,-34.955,28.811,-113.7,87.868,-88.037,93.909,-64.966,103.56
-20.734,27.145,-100.29,88.114,-31.316,42.612,-105.5,112.02,-34.955,28.811,-113.7,87.868,-88.037,93.909,-64.966,103.56
-20.872,26.96,-100.09,87.889,-31.199,42.468,-105.6,112.14,-34.92,28.553,-113.48,87.431,-88.092,93.858,-65.236,103.46
-20.872,26.96,-100.09,87.889,-31.199,42.468,-105.6,112.14,-34.92,28.553,-113.48,87.431,-88.092,93.858,-65.236,103.46
-20.872,26.96,-100.09,87.889,-31.199,42.468,-105.6,112.14,-34.92,28.553,-113.48,87.431,-88.092,93.858,-65.236,103.46
-20.872,26.96,-100.09,87.889,-31.199,42.468,-105.6,112.14,-34.92,28.553,-113.48,87.431,-88.092,93.858,-65.236,103.46
-21.01,26.772,-99.895,87.66,-31.085,42.321,-105.7,112.25,-34.884,28.294,-113.25,86.989,-88.145,93.805,-65.502,103.36
-21.01,26.772,-99.895,87.66,-31.085,42.321,-105.7,112.25,-34.884,28.294,-113.25,86.989,-88.145,93.805,-65.502,103.36
-21.079,26.676,-99.795,87.544,-31.028,42.246,-105.75,112.3,-34.865,28.164,-113.13,86.766,-88.17,93.776,-65.633,103.3
-21.079,26.676,-99.795,87.544,-31.028,42.246,-105.75,112.3,-34.865,28.164,-113.13,86.766,-88.17,93.776,-65.633,103.3
-21.149,26.579,-99.694,87.427,-30.972,42.17,-105.79,112.36,-34.845,28.034,-113.01,86.542,-88.195,93.747,-65.764,103.24
-21.149,26.579,-99.694,87.427,-30.972,42.17,-105.79,112.36,-34.845,28.034,-113.01,86.542,-88.195,93.747,-65.764,103.24
-21.149,26.579,-99.694,87.427,-30.972,42.17,-105.79,112.36,-34.845,28.034,-113.01,86.542,-88.195,93.747,-65.764,103.24
-21.149,26.579,-99.694,87.427,-30.972,42.17,-105.79,112.36,-34.845,28.034,-113.01,86.542,-88.195,93.747,-65.764,103.24
-21.288,26.384,-99.492,87.191,-30.861,42.016,-105.88,112.46,-34.805,27.772,-112.78,86.09,-88.243,93.685,-66.021,103.12
-21.288,26.384,-99.492,87.191,-30.861,42.016,-105.88,112.46,-34.805,27.772,-112.78,86.09,-88.243,93.685,-66.021,103.12
-21.358,26.284,-99.39,87.072,-30.806,41.937,-105.92,112.51,-34.785,27.64,-112.66,85.861,-88.267,93.653,-66.149,103.06
-21.358,26.284,-99.39,87.072,-30.806,41.937,-105.92,112.51,-34.785,27.64,-112.66,85.861,-88.267,93.653,-66.149,103.06
-21.428,26.184,-99.287,86.952,-30.751,41.858,-105.97,112.55,-34.763,27.508,-112.54,85.632,-88.289,93.62,-66.275,103
-21.428,26.184,-99.287,86.952,-30.751,41.858,-105.97,112.55,-34.763,27.508,-112.54,85.632,-88.289,93.62,-66.275,103
-21.498,26.083,-99.184,86.831,-30.697,41.778,-106.01,112.6,-34.742,27.376,-112.41,85.402,-88.311,93.586,-66.4,102.93
-21.498,26.083,-99.184,86.831,-30.697,41.778,-106.01,112.6,-34.742,27.376,-112.41,85.402,-88.311,93.586,-66.4,102.93
-21.569,25.981,-99.081,86.709,-30.644,41.697,-106.05,112.65,-34.72,27.243,-112.29,85.17,-88.333,93.551,-66.524,102.86
-21.569,25.981,-99.081,86.709,-30.644,41.697,-106.05,112.65,-34.72,27.243,-112.29,85.17,-88.333,93.551,-66.524,102.86
-21.639,25.878,-98.977,86.587,-30.59,41.615,-106.09,112.69,-34.698,27.11,-112.17,84.937,-88.353,93.515,-66.648,102.79
-21.639,25.878,-98.977,86.587,-30.59,41.615,-106.09,112.69,-34.698,27.11,-112.17,84.937,-88.353,93.515,-66.648,102.79
-21.71,25.774,-98.873,86.463,-30.538,41.532,-106.13,112.73,-34.675,26.977,-112.05,84.703,-88.373,93.478,-66.77,102.72
-21.71,25.774,-98.873,86.463,-30.538,41.532,-106.13,112.73,-34.675,26.977,-112.05,84.703,-88.373,93.478,-66.77,102.72
-21.71,25.774,-98.873,86.463,-30.538,41.532,-106.13,112.73,-34.675,26.977,-112.05,84.703,-88.373,93.478,-66.77,102.72
-21.78,25.669,-98.768,86.339,-30.486,41.448,-106.17,112.78,-34.652,26.843,-111.92,84.467,-88.393,93.44,-66.891,102.64
-21.78,25.669,-98.768,86.339,-30.486,41.448,-106.17,112.78,-34.652,26.843,-111.92,84.467,-88.393,93.44,-66.891,102.64
-21.78,25.669,-98.768,86.339,-30.486,41.448,-106.17,112.78,-34.652,26.843,-111.92,84.467,-88.393,93.44,-66.891,102.64
-21.922,25.457,-98.557,86.088,-30.382,41.278,-106.24,112.86,-34.605,26.575,-111.67,83.993,-88.43,93.361,-67.129,102.49
-21.922,25.457,-98.557,86.088,-30.382,41.278,-106.24,112.86,-34.605,26.575,-111.67,83.993,-88.43,93.361,-67.129,102.49
-21.992,25.35,-98.45,85.961,-30.331,41.192,-106.28,112.89,-34.581,26.44,-111.54,83.754,-88.448,93.321,-67.247,102.41
-21.992,25.35,-98.45,85.961,-30.331,41.192,-106.28,112.89,-34.581,26.44,-111.54,83.754,-88.448,93.321,-67.247,102.41
-21.992,25.35,-98.45,85.961,-30.331,41.192,-106.28,112.89,-34.581,26.44,-111.54,83.754,-88.448,93.321,-67.247,102.41
-22.063,25.241,-98.344,85.833,-30.281,41.105,-106.32,112.93,-34.556,26.305,-111.41,83.513,-88.465,93.279,-67.364,102.33
-22.134,25.132,-98.236,85.704,-30.231,41.017,-106.35,112.97,-34.531,26.17,-111.28,83.272,-88.482,93.236,-67.48,102.25
-22.134,25.132,-98.236,85.704,-30.231,41.017,-106.35,112.97,-34.531,26.17,-111.28,83.272,-88.482,93.236,-67.48,102.25
-22.205,25.022,-98.129,85.575,-30.181,40.928,-106.39,113,-34.505,26.034,-111.15,83.029,-88.497,93.192,-67.594,102.16
-22.205,25.022,-98.129,85.575,-30.181,40.928,-106.39,113,-34.505,26.034,-111.15,83.029,-88.497,93.192,-67.594,102.16
-22.205,25.022,-98.129,85.575,-30.181,40.928,-106.39,113,-34.505,26.034,-111.15,83.029,-88.497,93.192,-67.594,102.16
-22.205,25.022,-98.129,85.575,-30.181,40.928,-106.39,113,-34.505,26.034,-111.15,83.029,-88.497,93.192,-67.594,102.16
-22.348,24.798,-97.912,85.314,-30.083,40.747,-106.45,113.06,-34.453,25.762,-110.89,82.54,-88.527,93.102,-67.82,101.99
-22.348,24.798,-97.912,85.314,-30.083,40.747,-106.45,113.06,-34.453,25.762,-110.89,82.54,-88.527,93.102,-67.82,101.99
-22.419,24.685,-97.803,85.182,-30.034,40.656,-106.48,113.09,-34.427,25.625,-110.76,82.294,-88.541,93.055,-67.931,101.9
-22.419,24.685,-97.803,85.182,-30.034,40.656,-106.48,113.09,-34.427,25.625,-110.76,82.294,-88.541,93.055,-67.931,101.9
-22.49,24.572,-97.693,85.049,-29.986,40.563,-106.51,113.12,-34.4,25.488,-110.62,82.047,-88.554,93.007,-68.041,101.8
-22.49,24.572,-97.693,85.049,-29.986,40.563,-106.51,113.12,-34.4,25.488,-110.62,82.047,-88.554,93.007,-68.041,101.8
-22.561,24.457,-97.583,84.915,-29.939,40.47,-106.54,113.15,-34.372,25.351,-110.49,81.798,-88.567,92.959,-68.15,101.71
-22.561,24.457,-97.583,84.915,-29.939,40.47,-106.54,113.15,-34.372,25.351,-110.49,81.798,-88.567,92.959,-68.15,101.71
-22.633,24.341,-97.473,84.781,-29.892,40.376,-106.57,113.18,-34.344,25.213,-110.35,81.548,-88.579,92.909,-68.258,101.61
-22.633,24.341,-97.473,84.781,-29.892,40.376,-106.57,113.18,-34.344,25.213,-110.35,81.548,-88.579,92.909,-68.258,101.61
-22.704,24.225,-97.362,84.645,-29.845,40.281,-106.6,113.2,-34.316,25.075,-110.22,81.297,-88.59,92.858,-68.365,101.52
-22.704,24.225,-97.362,84.645,-29.845,40.281,-106.6,113.2,-34.316,25.075,-110.22,81.297,-88.59,92.858,-68.365,101.52
-22.776,24.107,-97.251,84.509,-29.798,40.185,-106.63,113.23,-34.288,24.937,-110.08,81.045,-88.601,92.807,-68.47,101.42
-22.776,24.107,-97.251,84.509,-29.798,40.185,-106.63,113.23,-34.288,24.937,-110.08,81.045,-88.601,92.807,-68.47,101.42
-22.847,23.989,-97.139,84.372,-29.752,40.088,-106.65,113.25,-34.259,24.799,-109.94,80.792,-88.611,92.754,-68.575,101.32
-22.847,23.989,-97.139,84.372,-29.752,40.088,-106.65,113.25,-34.259,24.799,-109.94,80.792,-88.611,92.754,-68.575,101.32
-22.847,23.989,-97.139,84.372,-29.752,40.088,-106.65,113.25,-34.259,24.799,-109.94,80.792,-88.611,92.754,-68.575,101.32
-22.918,23.87,-97.027,84.234,-29.707,39.99,-106.68,113.27,-34.229,24.66,-109.8,80.538,-88.62,92.7,-68.678,101.21
-22.918,23.87,-97.027,84.234,-29.707,39.99,-106.68,113.27,-34.229,24.66,-109.8,80.538,-88.62,92.7,-68.678,101.21
-22.918,23.87,-97.027,84.234,-29.707,39.99,-106.68,113.27,-34.229,24.66,-109.8,80.538,-88.62,92.7,-68.678,101.21
-23.061,23.629,-96.801,83.956,-29.617,39.792,-106.73,113.31,-34.169,24.382,-109.52,80.026,-88.636,92.59,-68.881,101
-23.061,23.629,-96.801,83.956,-29.617,39.792,-106.73,113.31,-34.169,24.382,-109.52,80.026,-88.636,92.59,-68.881,101
-23.061,23.629,-96.801,83.956,-29.617,39.792,-106.73,113.31,-34.169,24.382,-109.52,80.026,-88.636,92.59,-68.881,101
-23.133,23.507,-96.687,83.815,-29.572,39.692,-106.75,113.32,-34.139,24.243,-109.38,79.768,-88.643,92.534,-68.981,100.89
-23.133,23.507,-96.687,83.815,-29.572,39.692,-106.75,113.32,-34.139,24.243,-109.38,79.768,-88.643,92.534,-68.981,100.89
-23.275,23.261,-96.458,83.532,-29.484,39.489,-106.79,113.35,-34.077,23.963,-109.1,79.25,-88.656,92.417,-69.177,100.67
-23.275,23.261,-96.458,83.532,-29.484,39.489,-106.79,113.35,-34.077,23.963,-109.1,79.25,-88.656,92.417,-69.177,100.67
-23.347,23.136,-96.343,83.389,-29.441,39.386,-106.82,113.37,-34.045,23.823,-108.95,78.989,-88.661,92.358,-69.273,100.55
-23.347,23.136,-96.343,83.389,-29.441,39.386,-106.82,113.37,-34.045,23.823,-108.95,78.989,-88.661,92.358,-69.273,100.55
-23.418,23.011,-96.228,83.245,-29.398,39.282,-106.84,113.38,-34.013,23.682,-108.81,78.727,-88.665,92.297,-69.368,100.44
-23.418,23.011,-96.228,83.245,-29.398,39.282,-106.84,113.38,-34.013,23.682,-108.81,78.727,-88.665,92.297,-69.368,100.44
-23.489,22.885,-96.112,83.101,-29.356,39.177,-106.85,113.39,-33.981,23.542,-108.66,78.464,-88.669,92.236,-69.462,100.32
-23.489,22.885,-96.112,83.101,-29.356,39.177,-106.85,113.39,-33.981,23.542,-108.66,78.464,-88.669,92.236,-69.462,100.32
-23.489,22.885,-96.112,83.101,-29.356,39.177,-106.85,113.39,-33.981,23.542,-108.66,78.464,-88.669,92.236,-69.462,100.32
-23.489,22.885,-96.112,83.101,-29.356,39.177,-106.85,113.39,-33.981,23.542,-108.66,78.464,-88.669,92.236,-69.462,100.32
-23.561,22.758,-95.996,82.955,-29.313,39.072,-106.87,113.4,-33.948,23.401,-108.51,78.199,-88.672,92.173,-69.555,100.2
-23.561,22.758,-95.996,82.955,-29.313,39.072,-106.87,113.4,-33.948,23.401,-108.51,78.199,-88.672,92.173,-69.555,100.2
-23.703,22.501,-95.762,82.662,-29.23,38.858,-106.91,113.41,-33.882,23.118,-108.22,77.668,-88.675,92.045,-69.737,99.951
-23.703,22.501,-95.762,82.662,-29.23,38.858,-106.91,113.41,-33.882,23.118,-108.22,77.668,-88.675,92.045,-69.737,99.951
-23.774,22.371,-95.644,82.514,-29.189,38.75,-106.92,113.42,-33.848,22.977,-108.07,77.4,-88.676,91.979,-69.826,99.825
-23.774,22.371,-95.644,82.514,-29.189,38.75,-106.92,113.42,-33.848,22.977,-108.07,77.4,-88.676,91.979,-69.826,99.825
-23.774,22.371,-95.644,82.514,-29.189,38.75,-106.92,113.42,-33.848,22.977,-108.07,77.4,-88.676,91.979,-69.826,99.825
-23.845,22.241,-95.526,82.366,-29.148,38.641,-106.94,113.42,-33.814,22.835,-107.92,77.132,-88.676,91.912,-69.914,99.698
-23.845,22.241,-95.526,82.366,-29.148,38.641,-106.94,113.42,-33.814,22.835,-107.92,77.132,-88.676,91.912,-69.914,99.698
-23.916,22.109,-95.407,82.216,-29.108,38.531,-106.95,113.42,-33.78,22.693,-107.76,76.863,-88.675,91.845,-70,99.568
-23.916,22.109,-95.407,82.216,-29.108,38.531,-106.95,113.42,-33.78,22.693,-107.76,76.863,-88.675,91.845,-70,99.568
-23.987,21.977,-95.288,82.066,-29.068,38.42,-106.96,113.42,-33.745,22.551,-107.61,76.592,-88.674,91.776,-70.086,99.437
-23.987,21.977,-95.288,82.066,-29.068,38.42,-106.96,113.42,-33.745,22.551,-107.61,76.592,-88.674,91.776,-70.086,99.437
-24.058,21.844,-95.169,81.914,-29.028,38.308,-106.97,113.42,-33.71,22.408,-107.46,76.321,-88.672,91.706,-70.17,99.304
-24.058,21.844,-95.169,81.914,-29.028,38.308,-106.97,113.42,-33.71,22.408,-107.46,76.321,-88.672,91.706,-70.17,99.304
-24.129,21.71,-95.049,81.762,-28.989,38.196,-106.99,113.42,-33.674,22.266,-107.3,76.048,-88.669,91.636,-70.253,99.169
-24.199,21.575,-94.928,81.61,-28.95,38.082,-107,113.41,-33.638,22.123,-107.15,75.775,-88.665,91.564,-70.335,99.032
-24.199,21.575,-94.928,81.61,-28.95,38.082,-107,113.41,-33.638,22.123,-107.15,75.775,-88.665,91.564,-70.335,99.032
-24.199,21.575,-94.928,81.61,-28.95,38.082,-107,113.41,-33.638,22.123,-107.15,75.775,-88.665,91.564,-70.335,99.032
-24.27,21.44,-94.808,81.456,-28.911,37.968,-107.01,113.41,-33.602,21.98,-106.99,75.5,-88.66,91.491,-70.415,98.894
-24.27,21.44,-94.808,81.456,-28.911,37.968,-107.01,113.41,-33.602,21.98,-106.99,75.5,-88.66,91.491,-70.415,98.894
-24.34,21.303,-94.686,81.302,-28.873,37.853,-107.01,113.4,-33.566,21.837,-106.84,75.225,-88.655,91.418,-70.495,98.754
-24.34,21.303,-94.686,81.302,-28.873,37.853,-107.01,113.4,-33.566,21.837,-106.84,75.225,-88.655,91.418,-70.495,98.754
-24.411,21.166,-94.565,81.146,-28.835,37.737,-107.02,113.39,-33.529,21.694,-106.68,74.948,-88.649,91.343,-70.573,98.611
-24.411,21.166,-94.565,81.146,-28.835,37.737,-107.02,113.39,-33.529,21.694,-106.68,74.948,-88.649,91.343,-70.573,98.611
-24.411,21.166,-94.565,81.146,-28.835,37.737,-107.02,113.39,-33.529,21.694,-106.68,74.948,-88.649,91.343,-70.573,98.611
-24.481,21.028,-94.443,80.99,-28.797,37.62,-107.03,113.38,-33.492,21.55,-106.52,74.671,-88.642,91.267,-70.65,98.467
-24.481,21.028,-94.443,80.99,-28.797,37.62,-107.03,113.38,-33.492,21.55,-106.52,74.671,-88.642,91.267,-70.65,98.467
-24.551,20.889,-94.32,80.833,-28.76,37.502,-107.03,113.37,-33.454,21.407,-106.36,74.392,-88.635,91.19,-70.725,98.321
-24.551,20.889,-94.32,80.833,-28.76,37.502,-107.03,113.37,-33.454,21.407,-106.36,74.392,-88.635,91.19,-70.725,98.321
-24.622,20.749,-94.197,80.676,-28.723,37.383,-107.04,113.36,-33.416,21.263,-106.2,74.113,-88.626,91.113,-70.799,98.174
-24.622,20.749,-94.197,80.676,-28.723,37.383,-107.04,113.36,-33.416,21.263,-106.2,74.113,-88.626,91.113,-70.799,98.174
-24.692,20.608,-94.074,80.517,-28.686,37.264,-107.04,113.35,-33.378,21.119,-106.04,73.833,-88.617,91.034,-70.872,98.024
-24.761,20.467,-93.95,80.358,-28.65,37.143,-107.05,113.33,-33.34,20.975,-105.88,73.551,-88.607,90.954,-70.944,97.873
-24.761,20.467,-93.95,80.358,-28.65,37.143,-107.05,113.33,-33.34,20.975,-105.88,73.551,-88.607,90.954,-70.944,97.873
-24.831,20.325,-93.826,80.198,-28.614,37.022,-107.05,113.32,-33.301,20.831,-105.71,73.269,-88.596,90.873,-71.015,97.72
-24.831,20.325,-93.826,80.198,-28.614,37.022,-107.05,113.32,-33.301,20.831,-105.71,73.269,-88.596,90.873,-71.015,97.72
-24.901,20.182,-93.701,80.037,-28.578,36.9,-107.05,113.3,-33.262,20.687,-105.55,72.986,-88.584,90.792,-71.084,97.565
-24.901,20.182,-93.701,80.037,-28.578,36.9,-107.05,113.3,-33.262,20.687,-105.55,72.986,-88.584,90.792,-71.084,97.565
-24.97,20.038,-93.576,79.875,-28.543,36.777,-107.05,113.28,-33.222,20.543,-105.38,72.702,-88.572,90.709,-71.152,97.408
-24.97,20.038,-93.576,79.875,-28.543,36.777,-107.05,113.28,-33.222,20.543,-105.38,72.702,-88.572,90.709,-71.152,97.408
-24.97,20.038,-93.576,79.875,-28.543,36.777,-107.05,113.28,-33.222,20.543,-105.38,72.702,-88.572,90.709,-71.152,97.408
-25.039,19.893,-93.45,79.713,-28.507,36.653,-107.05,113.26,-33.182,20.399,-105.22,72.417,-88.559,90.625,-71.219,97.25
-25.039,19.893,-93.45,79.713,-28.507,36.653,-107.05,113.26,-33.182,20.399,-105.22,72.417,-88.559,90.625,-71.219,97.25
-25.109,19.747,-93.324,79.55,-28.473,36.528,-107.05,113.23,-33.142,20.254,-105.05,72.132,-88.545,90.54,-71.284,97.089
-25.178,19.601,-93.198,79.386,-28.438,36.402,-107.05,113.21,-33.102,20.11,-104.88,71.845,-88.53,90.454,-71.348,96.927
-25.178,19.601,-93.198,79.386,-28.438,36.402,-107.05,113.21,-33.102,20.11,-104.88,71.845,-88.53,90.454,-71.348,96.927
-25.247,19.454,-93.071,79.221,-28.404,36.276,-107.05,113.18,-33.061,19.965,-104.71,71.557,-88.514,90.368,-71.411,96.763
-25.247,19.454,-93.071,79.221,-28.404,36.276,-107.05,113.18,-33.061,19.965,-104.71,71.557,-88.514,90.368,-71.411,96.763
-25.247,19.454,-93.071,79.221,-28.404,36.276,-107.05,113.18,-33.061,19.965,-104.71,71.557,-88.514,90.368,-71.411,96.763
-25.315,19.306,-92.944,79.055,-28.37,36.148,-107.04,113.16,-33.02,19.82,-104.54,71.269,-88.498,90.28,-71.472,96.598
-25.315,19.306,-92.944,79.055,-28.37,36.148,-107.04,113.16,-33.02,19.82,-104.54,71.269,-88.498,90.28,-71.472,96.598
-25.384,19.157,-92.816,78.889,-28.336,36.02,-107.04,113.13,-32.979,19.676,-104.37,70.98,-88.48,90.191,-71.533,96.43
-25.384,19.157,-92.816,78.889,-28.336,36.02,-107.04,113.13,-32.979,19.676,-104.37,70.98,-88.48,90.191,-71.533,96.43
-25.52,18.857,-92.56,78.554,-28.27,35.761,-107.03,113.07,-32.895,19.386,-104.03,70.399,-88.443,90.01,-71.649,96.09
-25.52,18.857,-92.56,78.554,-28.27,35.761,-107.03,113.07,-32.895,19.386,-104.03,70.399,-88.443,90.01,-71.649,96.09
-25.52,18.857,-92.56,78.554,-28.27,35.761,-107.03,113.07,-32.895,19.386,-104.03,70.399,-88.443,90.01,-71.649,96.09
-25.588,18.706,-92.431,78.385,-28.237,35.63,-107.02,113.03,-32.853,19.242,-103.85,70.107,-88.423,89.919,-71.705,95.917
-25.588,18.706,-92.431,78.385,-28.237,35.63,-107.02,113.03,-32.853,19.242,-103.85,70.107,-88.423,89.919,-71.705,95.917
-25.588,18.706,-92.431,78.385,-28.237,35.63,-107.02,113.03,-32.853,19.242,-103.85,70.107,-88.423,89.919,-71.705,95.917
-25.656,18.554,-92.302,78.216,-28.204,35.498,-107.01,113,-32.81,19.097,-103.68,69.814,-88.403,89.826,-71.76,95.743
-25.724,18.402,-92.172,78.045,-28.172,35.365,-107,112.96,-32.767,18.952,-103.5,69.521,-88.381,89.732,-71.814,95.566
-25.724,18.402,-92.172,78.045,-28.172,35.365,-107,112.96,-32.767,18.952,-103.5,69.521,-88.381,89.732,-71.814,95.566
-25.791,18.248,-92.042,77.874,-28.14,35.232,-106.99,112.93,-32.724,18.807,-103.32,69.227,-88.358,89.637,-71.866,95.388
-25.791,18.248,-92.042,77.874,-28.14,35.232,-106.99,112.93,-32.724,18.807,-103.32,69.227,-88.358,89.637,-71.866,95.388
-25.859,18.094,-91.912,77.703,-28.108,35.097,-106.98,112.89,-32.681,18.662,-103.15,68.932,-88.335,89.541,-71.918,95.209
-25.859,18.094,-91.912,77.703,-28.108,35.097,-106.98,112.89,-32.681,18.662,-103.15,68.932,-88.335,89.541,-71.918,95.209
-25.926,17.939,-91.781,77.53,-28.077,34.962,-106.97,112.85,-32.637,18.518,-102.97,68.636,-88.311,89.445,-71.967,95.027
-25.926,17.939,-91.781,77.53,-28.077,34.962,-106.97,112.85,-32.637,18.518,-102.97,68.636,-88.311,89.445,-71.967,95.027
-25.993,17.783,-91.649,77.357,-28.045,34.826,-106.96,112.81,-32.593,18.373,-102.79,68.34,-88.286,89.347,-72.016,94.844
-25.993,17.783,-91.649,77.357,-28.045,34.826,-106.96,112.81,-32.593,18.373,-102.79,68.34,-88.286,89.347,-72.016,94.844
-25.993,17.783,-91.649,77.357,-28.045,34.826,-106.96,112.81,-32.593,18.373,-102.79,68.34,-88.286,89.347,-72.016,94.844
-26.059,17.627,-91.518,77.183,-28.014,34.689,-106.95,112.76,-32.549,18.228,-102.61,68.043,-88.26,89.248,-72.063,94.659
-26.059,17.627,-91.518,77.183,-28.014,34.689,-106.95,112.76,-32.549,18.228,-102.61,68.043,-88.26,89.248,-72.063,94.659
-26.059,17.627,-91.518,77.183,-28.014,34.689,-106.95,112.76,-32.549,18.228,-102.61,68.043,-88.26,89.248,-72.063,94.659
-26.192,17.311,-91.253,76.833,-27.953,34.412,-106.92,112.67,-32.46,17.939,-102.24,67.446,-88.205,89.048,-72.153,94.284
-26.192,17.311,-91.253,76.833,-27.953,34.412,-106.92,112.67,-32.46,17.939,-102.24,67.446,-88.205,89.048,-72.153,94.284
-26.192,17.311,-91.253,76.833,-27.953,34.412,-106.92,112.67,-32.46,17.939,-102.24,67.446,-88.205,89.048,-72.153,94.284
-26.258,17.152,-91.12,76.656,-27.923,34.272,-106.9,112.62,-32.415,17.794,-102.06,67.147,-88.177,88.946,-72.196,94.094
-26.258,17.152,-91.12,76.656,-27.923,34.272,-106.9,112.62,-32.415,17.794,-102.06,67.147,-88.177,88.946,-72.196,94.094
-26.389,16.833,-90.853,76.302,-27.863,33.99,-106.87,112.52,-32.324,17.505,-101.69,66.546,-88.117,88.74,-72.278,93.709
-26.389,16.833,-90.853,76.302,-27.863,33.99,-106.87,112.52,-32.324,17.505,-101.69,66.546,-88.117,88.74,-72.278,93.709
-26.389,16.833,-90.853,76.302,-27.863,33.99,-106.87,112.52,-32.324,17.505,-101.69,66.546,-88.117,88.74,-72.278,93.709
-26.454,16.672,-90.719,76.123,-27.833,33.848,-106.85,112.47,-32.278,17.361,-101.5,66.244,-88.086,88.635,-72.317,93.514
-26.454,16.672,-90.719,76.123,-27.833,33.848,-106.85,112.47,-32.278,17.361,-101.5,66.244,-88.086,88.635,-72.317,93.514
-26.454,16.672,-90.719,76.123,-27.833,33.848,-106.85,112.47,-32.278,17.361,-101.5,66.244,-88.086,88.635,-72.317,93.514
-26.454,16.672,-90.719,76.123,-27.833,33.848,-106.85,112.47,-32.278,17.361,-101.5,66.244,-88.086,88.635,-72.317,93.514
-26.584,16.348,-90.45,75.764,-27.775,33.561,-106.81,112.36,-32.186,17.073,-101.13,65.639,-88.02,88.423,-72.391,93.119
-26.584,16.348,-90.45,75.764,-27.775,33.561,-106.81,112.36,-32.186,17.073,-101.13,65.639,-88.02,88.423,-72.391,93.119
-26.649,16.184,-90.315,75.584,-27.746,33.416,-106.79,112.3,-32.139,16.929,-100.94,65.336,-87.986,88.315,-72.426,92.919
-26.649,16.184,-90.315,75.584,-27.746,33.416,-106.79,112.3,-32.139,16.929,-100.94,65.336,-87.986,88.315,-72.426,92.919
-26.713,16.021,-90.179,75.402,-27.717,33.27,-106.77,112.24,-32.092,16.785,-100.75,65.032,-87.951,88.207,-72.46,92.717
-26.713,16.021,-90.179,75.402,-27.717,33.27,-106.77,112.24,-32.092,16.785,-100.75,65.032,-87.951,88.207,-72.46,92.717
-26.777,15.856,-90.043,75.22,-27.688,33.124,-106.74,112.18,-32.045,16.641,-100.56,64.727,-87.916,88.098,-72.492,92.514
-26.777,15.856,-90.043,75.22,-27.688,33.124,-106.74,112.18,-32.045,16.641,-100.56,64.727,-87.916,88.098,-72.492,92.514
-26.841,15.691,-89.907,75.037,-27.66,32.976,-106.72,112.12,-31.998,16.497,-100.37,64.422,-87.879,87.987,-72.523,92.308
-26.841,15.691,-89.907,75.037,-27.66,32.976,-106.72,112.12,-31.998,16.497,-100.37,64.422,-87.879,87.987,-72.523,92.308
-26.905,15.525,-89.77,74.854,-27.632,32.828,-106.7,112.06,-31.95,16.354,-100.17,64.116,-87.841,87.876,-72.553,92.102
-26.905,15.525,-89.77,74.854,-27.632,32.828,-106.7,112.06,-31.95,16.354,-100.17,64.116,-87.841,87.876,-72.553,92.102
-26.968,15.358,-89.633,74.67,-27.604,32.678,-106.67,112,-31.903,16.211,-99.978,63.809,-87.803,87.764,-72.581,91.894
-26.968,15.358,-89.633,74.67,-27.604,32.678,-106.67,112,-31.903,16.211,-99.978,63.809,-87.803,87.764,-72.581,91.894
-26.968,15.358,-89.633,74.67,-27.604,32.678,-106.67,112,-31.903,16.211,-99.978,63.809,-87.803,87.764,-72.581,91.894
-27.031,15.19,-89.495,74.485,-27.576,32.528,-106.64,111.93,-31.855,16.068,-99.783,63.502,-87.763,87.651,-72.608,91.684
-27.031,15.19,-89.495,74.485,-27.576,32.528,-106.64,111.93,-31.855,16.068,-99.783,63.502,-87.763,87.651,-72.608,91.684
-27.093,15.022,-89.358,74.3,-27.549,32.377,-106.62,111.86,-31.807,15.925,-99.587,63.194,-87.722,87.536,-72.634,91.472
-27.156,14.854,-89.219,74.113,-27.521,32.226,-106.59,111.79,-31.758,15.782,-99.39,62.886,-87.681,87.421,-72.658,91.259
-27.156,14.854,-89.219,74.113,-27.521,32.226,-106.59,111.79,-31.758,15.782,-99.39,62.886,-87.681,87.421,-72.658,91.259
-27.218,14.684,-89.081,73.926,-27.494,32.073,-106.56,111.72,-31.71,15.64,-99.191,62.577,-87.639,87.305,-72.681,91.044
-27.218,14.684,-89.081,73.926,-27.494,32.073,-106.56,111.72,-31.71,15.64,-99.191,62.577,-87.639,87.305,-72.681,91.044
-27.218,14.684,-89.081,73.926,-27.494,32.073,-106.56,111.72,-31.71,15.64,-99.191,62.577,-87.639,87.305,-72.681,91.044
-27.28,14.514,-88.942,73.739,-27.467,31.92,-106.53,111.65,-31.661,15.498,-98.992,62.268,-87.595,87.188,-72.702,90.828
-27.341,14.343,-88.802,73.551,-27.44,31.765,-106.5,111.58,-31.612,15.356,-98.792,61.958,-87.551,87.071,-72.722,90.61
-27.341,14.343,-88.802,73.551,-27.44,31.765,-106.5,111.58,-31.612,15.356,-98.792,61.958,-87.551,87.071,-72.722,90.61
-27.341,14.343,-88.802,73.551,-27.44,31.765,-106.5,111.58,-31.612,15.356,-98.792,61.958,-87.551,87.071,-72.722,90.61
-27.403,14.172,-88.663,73.362,-27.414,31.61,-106.47,111.5,-31.562,15.214,-98.591,61.648,-87.506,86.952,-72.741,90.391
-27.403,14.172,-88.663,73.362,-27.414,31.61,-106.47,111.5,-31.562,15.214,-98.591,61.648,-87.506,86.952,-72.741,90.391
-27.403,14.172,-88.663,73.362,-27.414,31.61,-106.47,111.5,-31.562,15.214,-98.591,61.648,-87.506,86.952,-72.741,90.391
-27.524,13.827,-88.382,72.982,-27.361,31.297,-106.41,111.34,-31.463,14.931,-98.186,61.026,-87.412,86.712,-72.774,89.948
-27.524,13.827,-88.382,72.982,-27.361,31.297,-106.41,111.34,-31.463,14.931,-98.186,61.026,-87.412,86.712,-72.774,89.948
-27.584,13.653,-88.242,72.791,-27.335,31.139,-106.37,111.26,-31.413,14.79,-97.982,60.714,-87.364,86.59,-72.789,89.724
-27.584,13.653,-88.242,72.791,-27.335,31.139,-106.37,111.26,-31.413,14.79,-97.982,60.714,-87.364,86.59,-72.789,89.724
-27.584,13.653,-88.242,72.791,-27.335,31.139,-106.37,111.26,-31.413,14.79,-97.982,60.714,-87.364,86.59,-72.789,89.724
-27.644,13.479,-88.1,72.6,-27.309,30.981,-106.34,111.18,-31.363,14.65,-97.777,60.402,-87.315,86.468,-72.802,89.498
-27.644,13.479,-88.1,72.6,-27.309,30.981,-106.34,111.18,-31.363,14.65,-97.777,60.402,-87.315,86.468,-72.802,89.498
-27.644,13.479,-88.1,72.6,-27.309,30.981,-106.34,111.18,-31.363,14.65,-97.777,60.402,-87.315,86.468,-72.802,89.498
-27.763,13.129,-87.817,72.215,-27.257,30.661,-106.27,111.02,-31.263,14.37,-97.363,59.776,-87.214,86.22,-72.824,89.042
-27.763,13.129,-87.817,72.215,-27.257,30.661,-106.27,111.02,-31.263,14.37,-97.363,59.776,-87.214,86.22,-72.824,89.042
-27.822,12.953,-87.675,72.021,-27.231,30.5,-106.23,110.93,-31.212,14.23,-97.155,59.462,-87.162,86.095,-72.834,88.812
-27.822,12.953,-87.675,72.021,-27.231,30.5,-106.23,110.93,-31.212,14.23,-97.155,59.462,-87.162,86.095,-72.834,88.812
-27.881,12.777,-87.533,71.827,-27.206,30.338,-106.19,110.84,-31.161,14.091,-96.946,59.148,-87.109,85.969,-72.841,88.581
-27.881,12.777,-87.533,71.827,-27.206,30.338,-106.19,110.84,-31.161,14.091,-96.946,59.148,-87.109,85.969,-72.841,88.581
-27.94,12.599,-87.39,71.633,-27.18,30.175,-106.15,110.75,-31.11,13.952,-96.736,58.834,-87.055,85.842,-72.848,88.348
-27.94,12.599,-87.39,71.633,-27.18,30.175,-106.15,110.75,-31.11,13.952,-96.736,58.834,-87.055,85.842,-72.848,88.348
-27.998,12.422,-87.247,71.437,-27.155,30.011,-106.11,110.66,-31.059,13.813,-96.525,58.519,-87,85.715,-72.853,88.114
-27.998,12.422,-87.247,71.437,-27.155,30.011,-106.11,110.66,-31.059,13.813,-96.525,58.519,-87,85.715,-72.853,88.114
-28.055,12.243,-87.103,71.242,-27.13,29.847,-106.07,110.57,-31.008,13.675,-96.313,58.204,-86.944,85.586,-72.856,87.878
-28.055,12.243,-87.103,71.242,-27.13,29.847,-106.07,110.57,-31.008,13.675,-96.313,58.204,-86.944,85.586,-72.856,87.878
-28.113,12.064,-86.959,71.045,-27.105,29.681,-106.03,110.48,-30.956,13.537,-96.1,57.889,-86.887,85.457,-72.859,87.641
-28.113,12.064,-86.959,71.045,-27.105,29.681,-106.03,110.48,-30.956,13.537,-96.1,57.889,-86.887,85.457,-72.859,87.641
-28.113,12.064,-86.959,71.045,-27.105,29.681,-106.03,110.48,-30.956,13.537,-96.1,57.889,-86.887,85.457,-72.859,87.641
-28.169,11.885,-86.815,70.848,-27.08,29.515,-105.99,110.38,-30.905,13.4,-95.886,57.573,-86.829,85.327,-72.859,87.402
-28.169,11.885,-86.815,70.848,-27.08,29.515,-105.99,110.38,-30.905,13.4,-95.886,57.573,-86.829,85.327,-72.859,87.402
-28.226,11.704,-86.671,70.65,-27.055,29.348,-105.94,110.28,-30.853,13.263,-95.671,57.257,-86.77,85.196,-72.859,87.162
-28.226,11.704,-86.671,70.65,-27.055,29.348,-105.94,110.28,-30.853,13.263,-95.671,57.257,-86.77,85.196,-72.859,87.162
-28.226,11.704,-86.671,70.65,-27.055,29.348,-105.94,110.28,-30.853,13.263,-95.671,57.257,-86.77,85.196,-72.859,87.162
-28.338,11.342,-86.381,70.253,-27.006,29.012,-105.86,110.09,-30.749,12.99,-95.237,56.624,-86.649,84.931,-72.854,86.677
-28.338,11.342,-86.381,70.253,-27.006,29.012,-105.86,110.09,-30.749,12.99,-95.237,56.624,-86.649,84.931,-72.854,86.677
-28.338,11.342,-86.381,70.253,-27.006,29.012,-105.86,110.09,-30.749,12.99,-95.237,56.624,-86.649,84.931,-72.854,86.677
-28.394,11.16,-86.235,70.054,-26.982,28.842,-105.81,109.99,-30.697,12.854,-95.019,56.307,-86.587,84.797,-72.849,86.433
-28.394,11.16,-86.235,70.054,-26.982,28.842,-105.81,109.99,-30.697,12.854,-95.019,56.307,-86.587,84.797,-72.849,86.433
-28.504,10.795,-85.944,69.654,-26.933,28.5,-105.72,109.78,-30.592,12.584,-94.58,55.673,-86.461,84.528,-72.836,85.94
-28.504,10.795,-85.944,69.654,-26.933,28.5,-105.72,109.78,-30.592,12.584,-94.58,55.673,-86.461,84.528,-72.836,85.94
-28.558,10.611,-85.797,69.453,-26.909,28.328,-105.67,109.67,-30.54,12.45,-94.359,55.355,-86.396,84.392,-72.827,85.692
-28.558,10.611,-85.797,69.453,-26.909,28.328,-105.67,109.67,-30.54,12.45,-94.359,55.355,-86.396,84.392,-72.827,85.692
-28.612,10.427,-85.651,69.251,-26.884,28.156,-105.62,109.56,-30.487,12.316,-94.137,55.038,-86.33,84.255,-72.817,85.442
-28.612,10.427,-85.651,69.251,-26.884,28.156,-105.62,109.56,-30.487,12.316,-94.137,55.038,-86.33,84.255,-72.817,85.442
-28.612,10.427,-85.651,69.251,-26.884,28.156,-105.62,109.56,-30.487,12.316,-94.137,55.038,-86.33,84.255,-72.817,85.442
-28.666,10.242,-85.504,69.049,-26.86,27.982,-105.57,109.46,-30.434,12.183,-93.914,54.719,-86.263,84.117,-72.805,85.192
-28.666,10.242,-85.504,69.049,-26.86,27.982,-105.57,109.46,-30.434,12.183,-93.914,54.719,-86.263,84.117,-72.805,85.192
-28.666,10.242,-85.504,69.049,-26.86,27.982,-105.57,109.46,-30.434,12.183,-93.914,54.719,-86.263,84.117,-72.805,85.192
-28.719,10.057,-85.357,68.846,-26.836,27.808,-105.52,109.35,-30.381,12.05,-93.69,54.401,-86.195,83.979,-72.793,84.939
-28.719,10.057,-85.357,68.846,-26.836,27.808,-105.52,109.35,-30.381,12.05,-93.69,54.401,-86.195,83.979,-72.793,84.939
-28.772,9.8712,-85.209,68.643,-26.812,27.632,-105.47,109.23,-30.328,11.918,-93.465,54.083,-86.125,83.84,-72.778,84.686
-28.772,9.8712,-85.209,68.643,-26.812,27.632,-105.47,109.23,-30.328,11.918,-93.465,54.083,-86.125,83.84,-72.778,84.686
-28.772,9.8712,-85.209,68.643,-26.812,27.632,-105.47,109.23,-30.328,11.918,-93.465,54.083,-86.125,83.84,-72.778,84.686
-28.876,9.4981,-84.913,68.235,-26.764,27.279,-105.36,109.01,-30.222,11.655,-93.012,53.446,-85.984,83.559,-72.746,84.175
-28.876,9.4981,-84.913,68.235,-26.764,27.279,-105.36,109.01,-30.222,11.655,-93.012,53.446,-85.984,83.559,-72.746,84.175
-28.876,9.4981,-84.913,68.235,-26.764,27.279,-105.36,109.01,-30.222,11.655,-93.012,53.446,-85.984,83.559,-72.746,84.175
-28.928,9.3108,-84.765,68.03,-26.741,27.102,-105.31,108.89,-30.168,11.525,-92.784,53.127,-85.912,83.417,-72.727,83.918
-28.928,9.3108,-84.765,68.03,-26.741,27.102,-105.31,108.89,-30.168,11.525,-92.784,53.127,-85.912,83.417,-72.727,83.918
-28.979,9.123,-84.616,67.825,-26.717,26.923,-105.26,108.77,-30.115,11.395,-92.555,52.808,-85.839,83.275,-72.708,83.659
-28.979,9.123,-84.616,67.825,-26.717,26.923,-105.26,108.77,-30.115,11.395,-92.555,52.808,-85.839,83.275,-72.708,83.659
-28.979,9.123,-84.616,67.825,-26.717,26.923,-105.26,108.77,-30.115,11.395,-92.555,52.808,-85.839,83.275,-72.708,83.659
-29.08,8.746,-84.318,67.413,-26.669,26.564,-105.15,108.53,-30.008,11.137,-92.094,52.17,-85.69,82.988,-72.664,83.138
-29.08,8.746,-84.318,67.413,-26.669,26.564,-105.15,108.53,-30.008,11.137,-92.094,52.17,-85.69,82.988,-72.664,83.138
-29.08,8.746,-84.318,67.413,-26.669,26.564,-105.15,108.53,-30.008,11.137,-92.094,52.17,-85.69,82.988,-72.664,83.138
-29.13,8.5568,-84.168,67.207,-26.646,26.383,-105.09,108.41,-29.954,11.009,-91.862,51.85,-85.613,82.844,-72.641,82.876
-29.13,8.5568,-84.168,67.207,-26.646,26.383,-105.09,108.41,-29.954,11.009,-91.862,51.85,-85.613,82.844,-72.641,82.876
-29.18,8.3671,-84.018,67,-26.622,26.201,-105.03,108.28,-29.9,10.881,-91.629,51.531,-85.536,82.699,-72.615,82.613
-29.18,8.3671,-84.018,67,-26.622,26.201,-105.03,108.28,-29.9,10.881,-91.629,51.531,-85.536,82.699,-72.615,82.613
-29.229,8.1769,-83.868,66.792,-26.598,26.019,-104.97,108.16,-29.847,10.754,-91.395,51.212,-85.458,82.553,-72.589,82.348
-29.278,7.9863,-83.718,66.584,-26.575,25.836,-104.91,108.03,-29.793,10.628,-91.16,50.893,-85.378,82.406,-72.561,82.083
-29.278,7.9863,-83.718,66.584,-26.575,25.836,-104.91,108.03,-29.793,10.628,-91.16,50.893,-85.378,82.406,-72.561,82.083
-29.326,7.7952,-83.567,66.376,-26.551,25.652,-104.85,107.9,-29.739,10.503,-90.924,50.573,-85.298,82.259,-72.532,81.816
-29.326,7.7952,-83.567,66.376,-26.551,25.652,-104.85,107.9,-29.739,10.503,-90.924,50.573,-85.298,82.259,-72.532,81.816
-29.374,7.6037,-83.417,66.167,-26.527,25.467,-104.79,107.77,-29.685,10.378,-90.687,50.254,-85.217,82.111,-72.501,81.548
-29.374,7.6037,-83.417,66.167,-26.527,25.467,-104.79,107.77,-29.685,10.378,-90.687,50.254,-85.217,82.111,-72.501,81.548
-29.421,7.4117,-83.265,65.957,-26.504,25.281,-104.73,107.64,-29.631,10.254,-90.449,49.935,-85.134,81.962,-72.47,81.279
-29.421,7.4117,-83.265,65.957,-26.504,25.281,-104.73,107.64,-29.631,10.254,-90.449,49.935,-85.134,81.962,-72.47,81.279
-29.468,7.2194,-83.114,65.748,-26.48,25.095,-104.67,107.51,-29.577,10.131,-90.21,49.615,-85.051,81.813,-72.436,81.009
-29.468,7.2194,-83.114,65.748,-26.48,25.095,-104.67,107.51,-29.577,10.131,-90.21,49.615,-85.051,81.813,-72.436,81.009
-29.515,7.0266,-82.963,65.538,-26.456,24.908,-104.61,107.38,-29.523,10.008,-89.97,49.296,-84.966,81.663,-72.402,80.738
-29.561,6.8333,-82.811,65.327,-26.433,24.72,-104.54,107.24,-29.468,9.8865,-89.73,48.977,-84.88,81.512,-72.366,80.466
-29.561,6.8333,-82.811,65.327,-26.433,24.72,-104.54,107.24,-29.468,9.8865,-89.73,48.977,-84.88,81.512,-72.366,80.466
-29.606,6.6397,-82.659,65.116,-26.409,24.531,-104.48,107.1,-29.414,9.7655,-89.488,48.658,-84.794,81.361,-72.329,80.192
-29.606,6.6397,-82.659,65.116,-26.409,24.531,-104.48,107.1,-29.414,9.7655,-89.488,48.658,-84.794,81.361,-72.329,80.192
-29.606,6.6397,-82.659,65.116,-26.409,24.531,-104.48,107.1,-29.414,9.7655,-89.488,48.658,-84.794,81.361,-72.329,80.192
-29.651,6.4457,-82.506,64.905,-26.385,24.342,-104.41,106.97,-29.36,9.6453,-89.245,48.339,-84.706,81.209,-72.29,79.918
-29.651,6.4457,-82.506,64.905,-26.385,24.342,-104.41,106.97,-29.36,9.6453,-89.245,48.339,-84.706,81.209,-72.29,79.918
-29.696,6.2513,-82.354,64.693,-26.361,24.152,-104.35,106.83,-29.306,9.5258,-89.001,48.02,-84.617,81.056,-72.25,79.643
-29.696,6.2513,-82.354,64.693,-26.361,24.152,-104.35,106.83,-29.306,9.5258,-89.001,48.02,-84.617,81.056,-72.25,79.643
-29.74,6.0565,-82.201,64.481,-26.338,23.961,-104.28,106.68,-29.252,9.4072,-88.757,47.702,-84.528,80.903,-72.209,79.366
-29.74,6.0565,-82.201,64.481,-26.338,23.961,-104.28,106.68,-29.252,9.4072,-88.757,47.702,-84.528,80.903,-72.209,79.366
-29.784,5.8614,-82.048,64.268,-26.314,23.769,-104.21,106.54,-29.197,9.2893,-88.511,47.383,-84.437,80.749,-72.166,79.089
-29.784,5.8614,-82.048,64.268,-26.314,23.769,-104.21,106.54,-29.197,9.2893,-88.511,47.383,-84.437,80.749,-72.166,79.089
-29.827,5.6659,-81.895,64.056,-26.29,23.577,-104.14,106.4,-29.143,9.1723,-88.264,47.065,-84.345,80.595,-72.122,78.811
-29.827,5.6659,-81.895,64.056,-26.29,23.577,-104.14,106.4,-29.143,9.1723,-88.264,47.065,-84.345,80.595,-72.122,78.811
-29.827,5.6659,-81.895,64.056,-26.29,23.577,-104.14,106.4,-29.143,9.1723,-88.264,47.065,-84.345,80.595,-72.122,78.811
-29.87,5.47,-81.742,63.843,-26.266,23.384,-104.08,106.25,-29.089,9.0562,-88.017,46.747,-84.252,80.44,-72.077,78.532
-29.87,5.47,-81.742,63.843,-26.266,23.384,-104.08,106.25,-29.089,9.0562,-88.017,46.747,-84.252,80.44,-72.077,78.532
-29.912,5.2738,-81.588,63.629,-26.242,23.19,-104.01,106.1,-29.035,8.9409,-87.768,46.429,-84.158,80.284,-72.031,78.252
-29.954,5.0772,-81.434,63.415,-26.218,22.995,-103.94,105.96,-28.981,8.8265,-87.519,46.111,-84.063,80.128,-71.983,77.971
-29.995,4.8803,-81.28,63.201,-26.194,22.8,-103.86,105.81,-28.926,8.7129,-87.268,45.793,-83.967,79.971,-71.934,77.689
-29.995,4.8803,-81.28,63.201,-26.194,22.8,-103.86,105.81,-28.926,8.7129,-87.268,45.793,-83.967,79.971,-71.934,77.689
-29.995,4.8803,-81.28,63.201,-26.194,22.8,-103.86,105.81,-28.926,8.7129,-87.268,45.793,-83.967,79.971,-71.934,77.689
-30.036,4.683,-81.126,62.987,-26.169,22.604,-103.79,105.65,-28.872,8.6003,-87.017,45.476,-83.87,79.814,-71.883,77.406
-30.036,4.683,-81.126,62.987,-26.169,22.604,-103.79,105.65,-28.872,8.6003,-87.017,45.476,-83.87,79.814,-71.883,77.406
-30.036,4.683,-81.126,62.987,-26.169,22.604,-103.79,105.65,-28.872,8.6003,-87.017,45.476,-83.87,79.814,-71.883,77.406
-30.076,4.4855,-80.971,62.772,-26.145,22.407,-103.72,105.5,-28.818,8.4886,-86.764,45.159,-83.772,79.656,-71.831,77.122
-30.076,4.4855,-80.971,62.772,-26.145,22.407,-103.72,105.5,-28.818,8.4886,-86.764,45.159,-83.772,79.656,-71.831,77.122
-30.076,4.4855,-80.971,62.772,-26.145,22.407,-103.72,105.5,-28.818,8.4886,-86.764,45.159,-83.772,79.656,-71.831,77.122
-30.156,4.0895,-80.662,62.342,-26.096,22.011,-103.57,105.19,-28.71,8.268,-86.257,44.526,-83.572,79.339,-71.724,76.553
-30.156,4.0895,-80.662,62.342,-26.096,22.011,-103.57,105.19,-28.71,8.268,-86.257,44.526,-83.572,79.339,-71.724,76.553
-30.194,3.891,-80.507,62.126,-26.072,21.812,-103.5,105.04,-28.656,8.1591,-86.002,44.21,-83.471,79.18,-71.668,76.266
-30.194,3.891,-80.507,62.126,-26.072,21.812,-103.5,105.04,-28.656,8.1591,-86.002,44.21,-83.471,79.18,-71.668,76.266
-30.233,3.6922,-80.352,61.91,-26.047,21.613,-103.42,104.88,-28.602,8.0512,-85.746,43.894,-83.369,79.02,-71.612,75.979
-30.233,3.6922,-80.352,61.91,-26.047,21.613,-103.42,104.88,-28.602,8.0512,-85.746,43.894,-83.369,79.02,-71.612,75.979
-30.233,3.6922,-80.352,61.91,-26.047,21.613,-103.42,104.88,-28.602,8.0512,-85.746,43.894,-83.369,79.02,-71.612,75.979
-30.271,3.4932,-80.197,61.694,-26.022,21.412,-103.34,104.72,-28.548,7.9443,-85.489,43.579,-83.265,78.859,-71.553,75.692
-30.271,3.4932,-80.197,61.694,-26.022,21.412,-103.34,104.72,-28.548,7.9443,-85.489,43.579,-83.265,78.859,-71.553,75.692
-30.308,3.2939,-80.041,61.478,-25.997,21.211,-103.27,104.56,-28.494,7.8383,-85.231,43.264,-83.161,78.698,-71.494,75.403
-30.345,3.0944,-79.886,61.261,-25.972,21.009,-103.19,104.39,-28.44,7.7334,-84.972,42.949,-83.055,78.537,-71.433,75.114
-30.345,3.0944,-79.886,61.261,-25.972,21.009,-103.19,104.39,-28.44,7.7334,-84.972,42.949,-83.055,78.537,-71.433,75.114
-30.381,2.8946,-79.73,61.044,-25.947,20.807,-103.11,104.23,-28.387,7.6295,-84.712,42.635,-82.949,78.375,-71.371,74.824
-30.381,2.8946,-79.73,61.044,-25.947,20.807,-103.11,104.23,-28.387,7.6295,-84.712,42.635,-82.949,78.375,-71.371,74.824
-30.417,2.6945,-79.574,60.827,-25.922,20.604,-103.03,104.07,-28.333,7.5267,-84.451,42.321,-82.841,78.213,-71.308,74.533
-30.417,2.6945,-79.574,60.827,-25.922,20.604,-103.03,104.07,-28.333,7.5267,-84.451,42.321,-82.841,78.213,-71.308,74.533
-30.417,2.6945,-79.574,60.827,-25.922,20.604,-103.03,104.07,-28.333,7.5267,-84.451,42.321,-82.841,78.213,-71.308,74.533
-30.452,2.4942,-79.418,60.61,-25.896,20.4,-102.95,103.9,-28.279,7.4249,-84.19,42.007,-82.733,78.05,-71.243,74.242
-30.486,2.2937,-79.261,60.392,-25.871,20.195,-102.87,103.73,-28.226,7.3242,-83.927,41.694,-82.623,77.887,-71.178,73.95
-30.486,2.2937,-79.261,60.392,-25.871,20.195,-102.87,103.73,-28.226,7.3242,-83.927,41.694,-82.623,77.887,-71.178,73.95
-30.486,2.2937,-79.261,60.392,-25.871,20.195,-102.87,103.73,-28.226,7.3242,-83.927,41.694,-82.623,77.887,-71.178,73.95
-30.521,2.093,-79.105,60.175,-25.845,19.99,-102.79,103.56,-28.173,7.2245,-83.664,41.382,-82.513,77.723,-71.111,73.657
-30.521,2.093,-79.105,60.175,-25.845,19.99,-102.79,103.56,-28.173,7.2245,-83.664,41.382,-82.513,77.723,-71.111,73.657
-30.554,1.892,-78.949,59.957,-25.819,19.784,-102.71,103.39,-28.119,7.1259,-83.4,41.07,-82.401,77.559,-71.042,73.364
-30.587,1.6908,-78.792,59.739,-25.793,19.578,-102.62,103.22,-28.066,7.0285,-83.134,40.758,-82.288,77.395,-70.973,73.07
-30.587,1.6908,-78.792,59.739,-25.793,19.578,-102.62,103.22,-28.066,7.0285,-83.134,40.758,-82.288,77.395,-70.973,73.07
-30.587,1.6908,-78.792,59.739,-25.793,19.578,-102.62,103.22,-28.066,7.0285,-83.134,40.758,-82.288,77.395,-70.973,73.07
-30.62,1.4895,-78.635,59.521,-25.767,19.371,-102.54,103.05,-28.013,6.9322,-82.868,40.447,-82.174,77.23,-70.902,72.775
-30.62,1.4895,-78.635,59.521,-25.767,19.371,-102.54,103.05,-28.013,6.9322,-82.868,40.447,-82.174,77.23,-70.902,72.775
-30.652,1.288,-78.478,59.303,-25.741,19.163,-102.46,102.87,-27.96,6.837,-82.601,40.137,-82.06,77.065,-70.83,72.48
-30.683,1.0863,-78.321,59.084,-25.714,18.954,-102.37,102.7,-27.907,6.7429,-82.333,39.827,-81.944,76.899,-70.757,72.185
-30.683,1.0863,-78.321,59.084,-25.714,18.954,-102.37,102.7,-27.907,6.7429,-82.333,39.827,-81.944,76.899,-70.757,72.185
-30.714,0.88439,-78.164,58.865,-25.687,18.745,-102.29,102.52,-27.855,6.65,-82.065,39.517,-81.827,76.733,-70.683,71.888
-30.714,0.88439,-78.164,58.865,-25.687,18.745,-102.29,102.52,-27.855,6.65,-82.065,39.517,-81.827,76.733,-70.683,71.888
-30.744,0.68235,-78.007,58.647,-25.66,18.536,-102.2,102.34,-27.802,6.5583,-81.795,39.208,-81.709,76.567,-70.607,71.592
-30.744,0.68235,-78.007,58.647,-25.66,18.536,-102.2,102.34,-27.802,6.5583,-81.795,39.208,-81.709,76.567,-70.607,71.592
-30.774,0.48017,-77.849,58.428,-25.633,18.325,-102.11,102.16,-27.75,6.4678,-81.525,38.9,-81.59,76.4,-70.53,71.294
-30.774,0.48017,-77.849,58.428,-25.633,18.325,-102.11,102.16,-27.75,6.4678,-81.525,38.9,-81.59,76.4,-70.53,71.294
-30.803,0.27784,-77.692,58.209,-25.606,18.114,-102.03,101.98,-27.698,6.3785,-81.253,38.592,-81.47,76.233,-70.452,70.996
-30.803,0.27784,-77.692,58.209,-25.606,18.114,-102.03,101.98,-27.698,6.3785,-81.253,38.592,-81.47,76.233,-70.452,70.996
-30.832,0.07538,-77.535,57.99,-25.578,17.902,-101.94,101.8,-27.646,6.2904,-80.981,38.285,-81.349,76.066,-70.373,70.698
-30.832,0.07538,-77.535,57.99,-25.578,17.902,-101.94,101.8,-27.646,6.2904,-80.981,38.285,-81.349,76.066,-70.373,70.698
-30.86,-0.1272,-77.377,57.771,-25.551,17.69,-101.85,101.62,-27.594,6.2035,-80.708,37.979,-81.227,75.898,-70.293,70.399
-30.86,-0.1272,-77.377,57.771,-25.551,17.69,-101.85,101.62,-27.594,6.2035,-80.708,37.979,-81.227,75.898,-70.293,70.399
-30.86,-0.1272,-77.377,57.771,-25.551,17.69,-101.85,101.62,-27.594,6.2035,-80.708,37.979,-81.227,75.898,-70.293,70.399
-30.887,-0.3299,-77.219,57.552,-25.523,17.477,-101.76,101.43,-27.542,6.1179,-80.434,37.673,-81.104,75.73,-70.212,70.1
-30.887,-0.3299,-77.219,57.552,-25.523,17.477,-101.76,101.43,-27.542,6.1179,-80.434,37.673,-81.104,75.73,-70.212,70.1
-30.887,-0.3299,-77.219,57.552,-25.523,17.477,-101.76,101.43,-27.542,6.1179,-80.434,37.673,-81.104,75.73,-70.212,70.1
-30.941,-0.73561,-76.904,57.113,-25.466,17.05,-101.58,101.06,-27.439,5.9504,-79.884,37.064,-80.855,75.394,-70.045,69.501
-30.941,-0.73561,-76.904,57.113,-25.466,17.05,-101.58,101.06,-27.439,5.9504,-79.884,37.064,-80.855,75.394,-70.045,69.501
-30.966,-0.9386,-76.746,56.894,-25.438,16.835,-101.49,100.87,-27.388,5.8685,-79.608,36.761,-80.729,75.225,-69.96,69.2
-30.966,-0.9386,-76.746,56.894,-25.438,16.835,-101.49,100.87,-27.388,5.8685,-79.608,36.761,-80.729,75.225,-69.96,69.2
-30.966,-0.9386,-76.746,56.894,-25.438,16.835,-101.49,100.87,-27.388,5.8685,-79.608,36.761,-80.729,75.225,-69.96,69.2
-30.992,-1.1417,-76.588,56.675,-25.409,16.62,-101.4,100.68,-27.337,5.788,-79.331,36.458,-80.602,75.056,-69.874,68.9
-30.992,-1.1417,-76.588,56.675,-25.409,16.62,-101.4,100.68,-27.337,5.788,-79.331,36.458,-80.602,75.056,-69.874,68.9
-30.992,-1.1417,-76.588,56.675,-25.409,16.62,-101.4,100.68,-27.337,5.788,-79.331,36.458,-80.602,75.056,-69.874,68.9
-30.992,-1.1417,-76.588,56.675,-25.409,16.62,-101.4,100.68,-27.337,5.788,-79.331,36.458,-80.602,75.056,-69.874,68.9
-31.04,-1.548,-76.272,56.236,-25.35,16.187,-101.21,100.3,-27.236,5.6308,-78.774,35.854,-80.345,74.717,-69.698,68.297
-31.04,-1.548,-76.272,56.236,-25.35,16.187,-101.21,100.3,-27.236,5.6308,-78.774,35.854,-80.345,74.717,-69.698,68.297
-31.04,-1.548,-76.272,56.236,-25.35,16.187,-101.21,100.3,-27.236,5.6308,-78.774,35.854,-80.345,74.717,-69.698,68.297
-31.063,-1.7513,-76.113,56.016,-25.321,15.97,-101.12,100.1,-27.185,5.5543,-78.494,35.554,-80.215,74.547,-69.609,67.996
-31.086,-1.9546,-75.955,55.797,-25.291,15.752,-101.02,99.91,-27.135,5.479,-78.214,35.254,-80.084,74.378,-69.518,67.694
-31.108,-2.1579,-75.797,55.578,-25.261,15.534,-100.93,99.715,-27.085,5.4051,-77.933,34.955,-79.952,74.207,-69.426,67.391
-31.108,-2.1579,-75.797,55.578,-25.261,15.534,-100.93,99.715,-27.085,5.4051,-77.933,34.955,-79.952,74.207,-69.426,67.391
-31.13,-2.3612,-75.639,55.358,-25.23,15.315,-100.83,99.518,-27.035,5.3326,-77.651,34.657,-79.819,74.037,-69.333,67.089
-31.151,-2.5646,-75.481,55.139,-25.199,15.096,-100.73,99.32,-26.986,5.2615,-77.368,34.359,-79.685,73.867,-69.239,66.786
-31.151,-2.5646,-75.481,55.139,-25.199,15.096,-100.73,99.32,-26.986,5.2615,-77.368,34.359,-79.685,73.867,-69.239,66.786
-31.151,-2.5646,-75.481,55.139,-25.199,15.096,-100.73,99.32,-26.986,5.2615,-77.368,34.359,-79.685,73.867,-69.239,66.786
-31.171,-2.768,-75.322,54.92,-25.168,14.876,-100.64,99.121,-26.937,5.1918,-77.085,34.063,-79.551,73.696,-69.144,66.483
-31.171,-2.768,-75.322,54.92,-25.168,14.876,-100.64,99.121,-26.937,5.1918,-77.085,34.063,-79.551,73.696,-69.144,66.483
-31.171,-2.768,-75.322,54.92,-25.168,14.876,-100.64,99.121,-26.937,5.1918,-77.085,34.063,-79.551,73.696,-69.144,66.483
-31.191,-2.9714,-75.164,54.701,-25.137,14.656,-100.54,98.921,-26.888,5.1234,-76.8,33.767,-79.415,73.525,-69.048,66.18
-31.191,-2.9714,-75.164,54.701,-25.137,14.656,-100.54,98.921,-26.888,5.1234,-76.8,33.767,-79.415,73.525,-69.048,66.18
-31.229,-3.3781,-74.847,54.262,-25.073,14.213,-100.34,98.517,-26.79,4.9911,-76.23,33.179,-79.14,73.184,-68.853,65.573
-31.229,-3.3781,-74.847,54.262,-25.073,14.213,-100.34,98.517,-26.79,4.9911,-76.23,33.179,-79.14,73.184,-68.853,65.573
-31.229,-3.3781,-74.847,54.262,-25.073,14.213,-100.34,98.517,-26.79,4.9911,-76.23,33.179,-79.14,73.184,-68.853,65.573
-31.247,-3.5814,-74.689,54.043,-25.041,13.991,-100.24,98.313,-26.742,4.927,-75.943,32.886,-79.001,73.012,-68.753,65.27
-31.247,-3.5814,-74.689,54.043,-25.041,13.991,-100.24,98.313,-26.742,4.927,-75.943,32.886,-79.001,73.012,-68.753,65.27
-31.264,-3.7847,-74.531,53.825,-25.009,13.769,-100.14,98.108,-26.694,4.8645,-75.656,32.594,-78.861,72.841,-68.653,64.966
-31.264,-3.7847,-74.531,53.825,-25.009,13.769,-100.14,98.108,-26.694,4.8645,-75.656,32.594,-78.861,72.841,-68.653,64.966
-31.28,-3.9879,-74.373,53.606,-24.976,13.546,-100.04,97.902,-26.647,4.8034,-75.368,32.303,-78.721,72.67,-68.552,64.662
-31.28,-3.9879,-74.373,53.606,-24.976,13.546,-100.04,97.902,-26.647,4.8034,-75.368,32.303,-78.721,72.67,-68.552,64.662
-31.296,-4.191,-74.214,53.387,-24.943,13.322,-99.94,97.695,-26.599,4.7437,-75.079,32.013,-78.579,72.499,-68.449,64.358
-31.296,-4.191,-74.214,53.387,-24.943,13.322,-99.94,97.695,-26.599,4.7437,-75.079,32.013,-78.579,72.499,-68.449,64.358
-31.296,-4.191,-74.214,53.387,-24.943,13.322,-99.94,97.695,-26.599,4.7437,-75.079,32.013,-78.579,72.499,-68.449,64.358
-31.312,-4.3941,-74.056,53.169,-24.909,13.098,-99.839,97.487,-26.552,4.6856,-74.79,31.724,-78.436,72.327,-68.346,64.054
-31.327,-4.5972,-73.898,52.95,-24.875,12.873,-99.736,97.278,-26.506,4.6289,-74.499,31.436,-78.293,72.156,-68.241,63.75
-31.327,-4.5972,-73.898,52.95,-24.875,12.873,-99.736,97.278,-26.506,4.6289,-74.499,31.436,-78.293,72.156,-68.241,63.75
-31.341,-4.8001,-73.74,52.732,-24.841,12.648,-99.633,97.068,-26.459,4.5738,-74.209,31.149,-78.148,71.984,-68.136,63.446
-31.341,-4.8001,-73.74,52.732,-24.841,12.648,-99.633,97.068,-26.459,4.5738,-74.209,31.149,-78.148,71.984,-68.136,63.446
-31.341,-4.8001,-73.74,52.732,-24.841,12.648,-99.633,97.068,-26.459,4.5738,-74.209,31.149,-78.148,71.984,-68.136,63.446
-31.354,-5.003,-73.582,52.514,-24.806,12.422,-99.529,96.856,-26.413,4.5202,-73.917,30.863,-78.003,71.812,-68.029,63.142
-31.367,-5.2057,-73.424,52.296,-24.771,12.196,-99.425,96.644,-26.367,4.4682,-73.625,30.579,-77.856,71.641,-67.922,62.838
-31.367,-5.2057,-73.424,52.296,-24.771,12.196,-99.425,96.644,-26.367,4.4682,-73.625,30.579,-77.856,71.641,-67.922,62.838
-31.379,-5.4083,-73.266,52.079,-24.736,11.97,-99.321,96.43,-26.322,4.4176,-73.332,30.295,-77.709,71.469,-67.813,62.534
-31.39,-5.6108,-73.108,51.861,-24.7,11.743,-99.215,96.216,-26.277,4.3687,-73.038,30.012,-77.561,71.297,-67.704,62.23
-31.39,-5.6108,-73.108,51.861,-24.7,11.743,-99.215,96.216,-26.277,4.3687,-73.038,30.012,-77.561,71.297,-67.704,62.23
-31.39,-5.6108,-73.108,51.861,-24.7,11.743,-99.215,96.216,-26.277,4.3687,-73.038,30.012,-77.561,71.297,-67.704,62.23
-31.401,-5.8132,-72.95,51.644,-24.664,11.515,-99.109,96,-26.232,4.3213,-72.744,29.73,-77.412,71.126,-67.593,61.926
-31.401,-5.8132,-72.95,51.644,-24.664,11.515,-99.109,96,-26.232,4.3213,-72.744,29.73,-77.412,71.126,-67.593,61.926
-31.411,-6.0154,-72.792,51.427,-24.628,11.287,-99.003,95.783,-26.187,4.2755,-72.449,29.45,-77.261,70.954,-67.482,61.623
-31.411,-6.0154,-72.792,51.427,-24.628,11.287,-99.003,95.783,-26.187,4.2755,-72.449,29.45,-77.261,70.954,-67.482,61.623
-31.411,-6.0154,-72.792,51.427,-24.628,11.287,-99.003,95.783,-26.187,4.2755,-72.449,29.45,-77.261,70.954,-67.482,61.623
-31.421,-6.2175,-72.634,51.21,-24.591,11.059,-98.896,95.566,-26.143,4.2313,-72.153,29.17,-77.111,70.783,-67.37,61.319
-31.421,-6.2175,-72.634,51.21,-24.591,11.059,-98.896,95.566,-26.143,4.2313,-72.153,29.17,-77.111,70.783,-67.37,61.319
-31.421,-6.2175,-72.634,51.21,-24.591,11.059,-98.896,95.566,-26.143,4.2313,-72.153,29.17,-77.111,70.783,-67.37,61.319
-31.438,-6.6212,-72.319,50.777,-24.516,10.601,-98.68,95.127,-26.056,4.1476,-71.56,28.615,-76.806,70.44,-67.143,60.712
-31.438,-6.6212,-72.319,50.777,-24.516,10.601,-98.68,95.127,-26.056,4.1476,-71.56,28.615,-76.806,70.44,-67.143,60.712
-31.445,-6.8227,-72.161,50.561,-24.478,10.371,-98.572,94.907,-26.013,4.1082,-71.263,28.339,-76.652,70.268,-67.027,60.409
-31.445,-6.8227,-72.161,50.561,-24.478,10.371,-98.572,94.907,-26.013,4.1082,-71.263,28.339,-76.652,70.268,-67.027,60.409
-31.445,-6.8227,-72.161,50.561,-24.478,10.371,-98.572,94.907,-26.013,4.1082,-71.263,28.339,-76.652,70.268,-67.027,60.409
-31.445,-6.8227,-72.161,50.561,-24.478,10.371,-98.572,94.907,-26.013,4.1082,-71.263,28.339,-76.652,70.268,-67.027,60.409
-31.458,-7.2253,-71.847,50.13,-24.4,9.9106,-98.353,94.462,-25.928,4.0344,-70.666,27.791,-76.342,69.925,-66.795,59.803
-31.464,-7.4263,-71.689,49.914,-24.361,9.6797,-98.243,94.239,-25.886,3.9999,-70.367,27.518,-76.186,69.754,-66.677,59.5
-31.464,-7.4263,-71.689,49.914,-24.361,9.6797,-98.243,94.239,-25.886,3.9999,-70.367,27.518,-76.186,69.754,-66.677,59.5
-31.464,-7.4263,-71.689,49.914,-24.361,9.6797,-98.243,94.239,-25.886,3.9999,-70.367,27.518,-76.186,69.754,-66.677,59.5
-31.468,-7.6271,-71.532,49.699,-24.321,9.4483,-98.132,94.014,-25.845,3.9671,-70.067,27.247,-76.029,69.583,-66.558,59.198
-31.468,-7.6271,-71.532,49.699,-24.321,9.4483,-98.132,94.014,-25.845,3.9671,-70.067,27.247,-76.029,69.583,-66.558,59.198
-31.472,-7.8276,-71.375,49.485,-24.28,9.2166,-98.021,93.788,-25.804,3.936,-69.767,26.977,-75.871,69.412,-66.439,58.896
-31.472,-7.8276,-71.375,49.485,-24.28,9.2166,-98.021,93.788,-25.804,3.936,-69.767,26.977,-75.871,69.412,-66.439,58.896
-31.476,-8.0279,-71.218,49.27,-24.24,8.9844,-97.909,93.562,-25.763,3.9065,-69.466,26.708,-75.712,69.242,-66.319,58.594
-31.476,-8.0279,-71.218,49.27,-24.24,8.9844,-97.909,93.562,-25.763,3.9065,-69.466,26.708,-75.712,69.242,-66.319,58.594
-31.476,-8.0279,-71.218,49.27,-24.24,8.9844,-97.909,93.562,-25.763,3.9065,-69.466,26.708,-75.712,69.242,-66.319,58.594
-31.478,-8.228,-71.062,49.056,-24.199,8.7519,-97.797,93.335,-25.723,3.8787,-69.164,26.441,-75.552,69.071,-66.197,58.293
-31.478,-8.228,-71.062,49.056,-24.199,8.7519,-97.797,93.335,-25.723,3.8787,-69.164,26.441,-75.552,69.071,-66.197,58.293
-31.482,-8.6273,-70.749,48.629,-24.115,8.2857,-97.571,92.877,-25.644,3.8283,-68.559,25.91,-75.23,68.73,-65.953,57.691
-31.482,-8.6273,-70.749,48.629,-24.115,8.2857,-97.571,92.877,-25.644,3.8283,-68.559,25.91,-75.23,68.73,-65.953,57.691
-31.482,-8.6273,-70.749,48.629,-24.115,8.2857,-97.571,92.877,-25.644,3.8283,-68.559,25.91,-75.23,68.73,-65.953,57.691
-31.482,-8.8266,-70.592,48.416,-24.072,8.0521,-97.457,92.647,-25.605,3.8057,-68.256,25.647,-75.068,68.56,-65.829,57.39
-31.482,-8.8266,-70.592,48.416,-24.072,8.0521,-97.457,92.647,-25.605,3.8057,-68.256,25.647,-75.068,68.56,-65.829,57.39
-31.482,-8.8266,-70.592,48.416,-24.072,8.0521,-97.457,92.647,-25.605,3.8057,-68.256,25.647,-75.068,68.56,-65.829,57.39
-31.482,-9.0256,-70.436,48.204,-24.029,7.8181,-97.342,92.416,-25.567,3.7847,-67.952,25.384,-74.904,68.39,-65.704,57.09
-31.481,-9.2243,-70.28,47.991,-23.985,7.5838,-97.228,92.184,-25.529,3.7656,-67.648,25.124,-74.741,68.22,-65.579,56.79
-31.48,-9.4227,-70.124,47.779,-23.941,7.3491,-97.112,91.951,-25.491,3.7481,-67.343,24.864,-74.576,68.051,-65.453,56.491
-31.48,-9.4227,-70.124,47.779,-23.941,7.3491,-97.112,91.951,-25.491,3.7481,-67.343,24.864,-74.576,68.051,-65.453,56.491
-31.477,-9.6208,-69.969,47.568,-23.897,7.114,-96.996,91.717,-25.454,3.7324,-67.038,24.606,-74.41,67.881,-65.326,56.192
-31.477,-9.6208,-69.969,47.568,-23.897,7.114,-96.996,91.717,-25.454,3.7324,-67.038,24.606,-74.41,67.881,-65.326,56.192
-31.477,-9.6208,-69.969,47.568,-23.897,7.114,-96.996,91.717,-25.454,3.7324,-67.038,24.606,-74.41,67.881,-65.326,56.192
-31.474,-9.8186,-69.813,47.357,-23.852,6.8787,-96.88,91.482,-25.417,3.7185,-66.732,24.349,-74.244,67.712,-65.199,55.893
-31.474,-9.8186,-69.813,47.357,-23.852,6.8787,-96.88,91.482,-25.417,3.7185,-66.732,24.349,-74.244,67.712,-65.199,55.893
-31.471,-10.016,-69.658,47.146,-23.806,6.643,-96.763,91.247,-25.381,3.7063,-66.426,24.094,-74.077,67.543,-65.071,55.595
-31.471,-10.016,-69.658,47.146,-23.806,6.643,-96.763,91.247,-25.381,3.7063,-66.426,24.094,-74.077,67.543,-65.071,55.595
-31.466,-10.213,-69.503,46.936,-23.76,6.407,-96.646,91.01,-25.346,3.6959,-66.119,23.84,-73.909,67.375,-64.942,55.298
-31.466,-10.213,-69.503,46.936,-23.76,6.407,-96.646,91.01,-25.346,3.6959,-66.119,23.84,-73.909,67.375,-64.942,55.298
-31.461,-10.41,-69.348,46.726,-23.713,6.1707,-96.528,90.773,-25.31,3.6873,-65.812,23.587,-73.74,67.206,-64.812,55.001
-31.461,-10.41,-69.348,46.726,-23.713,6.1707,-96.528,90.773,-25.31,3.6873,-65.812,23.587,-73.74,67.206,-64.812,55.001
-31.455,-10.606,-69.193,46.517,-23.666,5.9342,-96.41,90.535,-25.276,3.6804,-65.504,23.336,-73.57,67.038,-64.681,54.704
-31.455,-10.606,-69.193,46.517,-23.666,5.9342,-96.41,90.535,-25.276,3.6804,-65.504,23.336,-73.57,67.038,-64.681,54.704
-31.448,-10.802,-69.039,46.308,-23.618,5.6973,-96.291,90.296,-25.242,3.6754,-65.196,23.086,-73.4,66.87,-64.55,54.408
-31.448,-10.802,-69.039,46.308,-23.618,5.6973,-96.291,90.296,-25.242,3.6754,-65.196,23.086,-73.4,66.87,-64.55,54.408
-31.441,-10.998,-68.884,46.1,-23.57,5.4601,-96.172,90.057,-25.208,3.6721,-64.887,22.838,-73.229,66.703,-64.418,54.113
-31.441,-10.998,-68.884,46.1,-23.57,5.4601,-96.172,90.057,-25.208,3.6721,-64.887,22.838,-73.229,66.703,-64.418,54.113
-31.433,-11.193,-68.73,45.892,-23.521,5.2227,-96.053,89.816,-25.175,3.6707,-64.578,22.591,-73.057,66.536,-64.286,53.818
-31.433,-11.193,-68.73,45.892,-23.521,5.2227,-96.053,89.816,-25.175,3.6707,-64.578,22.591,-73.057,66.536,-64.286,53.818
-31.424,-11.388,-68.576,45.684,-23.472,4.9849,-95.933,89.575,-25.142,3.6711,-64.269,22.346,-72.885,66.369,-64.153,53.524
-31.414,-11.583,-68.423,45.477,-23.422,4.747,-95.812,89.333,-25.11,3.6733,-63.959,22.102,-72.711,66.202,-64.019,53.23
-31.414,-11.583,-68.423,45.477,-23.422,4.747,-95.812,89.333,-25.11,3.6733,-63.959,22.102,-72.711,66.202,-64.019,53.23
-31.414,-11.583,-68.423,45.477,-23.422,4.747,-95.812,89.333,-25.11,3.6733,-63.959,22.102,-72.711,66.202,-64.019,53.23
-31.414,-11.583,-68.423,45.477,-23.422,4.747,-95.812,89.333,-25.11,3.6733,-63.959,22.102,-72.711,66.202,-64.019,53.23
-31.404,-11.777,-68.269,45.271,-23.371,4.5087,-95.691,89.09,-25.079,3.6773,-63.649,21.86,-72.537,66.036,-63.884,52.937
-31.404,-11.777,-68.269,45.271,-23.371,4.5087,-95.691,89.09,-25.079,3.6773,-63.649,21.86,-72.537,66.036,-63.884,52.937
-31.393,-11.971,-68.116,45.065,-23.32,4.2702,-95.57,88.847,-25.048,3.6832,-63.338,21.619,-72.362,65.87,-63.749,52.645
-31.381,-12.164,-67.963,44.859,-23.268,4.0315,-95.448,88.602,-25.017,3.6909,-63.027,21.379,-72.187,65.705,-63.613,52.353
-31.381,-12.164,-67.963,44.859,-23.268,4.0315,-95.448,88.602,-25.017,3.6909,-63.027,21.379,-72.187,65.705,-63.613,52.353
-31.369,-12.357,-67.81,44.654,-23.216,3.7926,-95.326,88.357,-24.987,3.7004,-62.716,21.141,-72.011,65.539,-63.477,52.062
-31.355,-12.549,-67.658,44.45,-23.163,3.5534,-95.203,88.112,-24.958,3.7118,-62.404,20.905,-71.834,65.375,-63.34,51.771
-31.355,-12.549,-67.658,44.45,-23.163,3.5534,-95.203,88.112,-24.958,3.7118,-62.404,20.905,-71.834,65.375,-63.34,51.771
-31.355,-12.549,-67.658,44.45,-23.163,3.5534,-95.203,88.112,-24.958,3.7118,-62.404,20.905,-71.834,65.375,-63.34,51.771
-31.341,-12.741,-67.505,44.246,-23.11,3.314,-95.08,87.865,-24.929,3.7251,-62.092,20.67,-71.656,65.21,-63.202,51.481
-31.341,-12.741,-67.505,44.246,-23.11,3.314,-95.08,87.865,-24.929,3.7251,-62.092,20.67,-71.656,65.21,-63.202,51.481
-31.341,-12.741,-67.505,44.246,-23.11,3.314,-95.08,87.865,-24.929,3.7251,-62.092,20.67,-71.656,65.21,-63.202,51.481
-31.326,-12.933,-67.353,44.042,-23.056,3.0744,-94.956,87.618,-24.901,3.7402,-61.78,20.437,-71.478,65.046,-63.064,51.192
-31.326,-12.933,-67.353,44.042,-23.056,3.0744,-94.956,87.618,-24.901,3.7402,-61.78,20.437,-71.478,65.046,-63.064,51.192
-31.294,-13.314,-67.05,43.637,-22.946,2.5946,-94.708,87.121,-24.846,3.776,-61.154,19.976,-71.119,64.719,-62.786,50.617
-31.294,-13.314,-67.05,43.637,-22.946,2.5946,-94.708,87.121,-24.846,3.776,-61.154,19.976,-71.119,64.719,-62.786,50.617
-31.277,-13.504,-66.899,43.436,-22.89,2.3544,-94.583,86.872,-24.82,3.7968,-60.841,19.747,-70.939,64.556,-62.647,50.33
-31.277,-13.504,-66.899,43.436,-22.89,2.3544,-94.583,86.872,-24.82,3.7968,-60.841,19.747,-70.939,64.556,-62.647,50.33
-31.277,-13.504,-66.899,43.436,-22.89,2.3544,-94.583,86.872,-24.82,3.7968,-60.841,19.747,-70.939,64.556,-62.647,50.33
-31.277,-13.504,-66.899,43.436,-22.89,2.3544,-94.583,86.872,-24.82,3.7968,-60.841,19.747,-70.939,64.556,-62.647,50.33
-31.259,-13.694,-66.748,43.235,-22.833,2.114,-94.458,86.622,-24.794,3.8194,-60.527,19.52,-70.758,64.394,-62.506,50.044
-31.259,-13.694,-66.748,43.235,-22.833,2.114,-94.458,86.622,-24.794,3.8194,-60.527,19.52,-70.758,64.394,-62.506,50.044
-31.259,-13.694,-66.748,43.235,-22.833,2.114,-94.458,86.622,-24.794,3.8194,-60.527,19.52,-70.758,64.394,-62.506,50.044
-31.259,-13.694,-66.748,43.235,-22.833,2.114,-94.458,86.622,-24.794,3.8194,-60.527,19.52,-70.758,64.394,-62.506,50.044
-31.22,-14.071,-66.447,42.834,-22.718,1.6327,-94.206,86.12,-24.744,3.8702,-59.899,19.071,-70.394,64.071,-62.224,49.474
-31.22,-14.071,-66.447,42.834,-22.718,1.6327,-94.206,86.12,-24.744,3.8702,-59.899,19.071,-70.394,64.071,-62.224,49.474
-31.179,-14.447,-66.148,42.436,-22.6,1.1509,-93.952,85.615,-24.697,3.9287,-59.27,18.629,-70.027,63.749,-61.94,48.908
-31.179,-14.447,-66.148,42.436,-22.6,1.1509,-93.952,85.615,-24.697,3.9287,-59.27,18.629,-70.027,63.749,-61.94,48.908
-31.179,-14.447,-66.148,42.436,-22.6,1.1509,-93.952,85.615,-24.697,3.9287,-59.27,18.629,-70.027,63.749,-61.94,48.908
-31.179,-14.447,-66.148,42.436,-22.6,1.1509,-93.952,85.615,-24.697,3.9287,-59.27,18.629,-70.027,63.749,-61.94,48.908
-31.157,-14.634,-65.998,42.238,-22.54,0.90973,-93.825,85.362,-24.674,3.9607,-58.955,18.41,-69.843,63.589,-61.797,48.626
-31.157,-14.634,-65.998,42.238,-22.54,0.90973,-93.825,85.362,-24.674,3.9607,-58.955,18.41,-69.843,63.589,-61.797,48.626
-31.157,-14.634,-65.998,42.238,-22.54,0.90973,-93.825,85.362,-24.674,3.9607,-58.955,18.41,-69.843,63.589,-61.797,48.626
-31.134,-14.82,-65.849,42.041,-22.48,0.66844,-93.697,85.108,-24.652,3.9947,-58.639,18.193,-69.658,63.429,-61.654,48.345
-31.134,-14.82,-65.849,42.041,-22.48,0.66844,-93.697,85.108,-24.652,3.9947,-58.639,18.193,-69.658,63.429,-61.654,48.345
-31.087,-15.191,-65.552,41.648,-22.357,0.18552,-93.441,84.598,-24.61,4.0683,-58.008,17.764,-69.287,63.111,-61.366,47.786
-31.087,-15.191,-65.552,41.648,-22.357,0.18552,-93.441,84.598,-24.61,4.0683,-58.008,17.764,-69.287,63.111,-61.366,47.786
-31.062,-15.376,-65.404,41.453,-22.294,-0.056108,-93.312,84.343,-24.589,4.108,-57.693,17.552,-69.1,62.953,-61.221,47.508
-31.062,-15.376,-65.404,41.453,-22.294,-0.056108,-93.312,84.343,-24.589,4.108,-57.693,17.552,-69.1,62.953,-61.221,47.508
-31.036,-15.56,-65.256,41.258,-22.231,-0.29783,-93.183,84.086,-24.57,4.1496,-57.376,17.341,-68.913,62.795,-61.077,47.23
-31.036,-15.56,-65.256,41.258,-22.231,-0.29783,-93.183,84.086,-24.57,4.1496,-57.376,17.341,-68.913,62.795,-61.077,47.23
-31.009,-15.744,-65.108,41.064,-22.167,-0.53965,-93.053,83.829,-24.551,4.1931,-57.06,17.133,-68.725,62.638,-60.931,46.954
-31.009,-15.744,-65.108,41.064,-22.167,-0.53965,-93.053,83.829,-24.551,4.1931,-57.06,17.133,-68.725,62.638,-60.931,46.954
-31.009,-15.744,-65.108,41.064,-22.167,-0.53965,-93.053,83.829,-24.551,4.1931,-57.06,17.133,-68.725,62.638,-60.931,46.954
-30.982,-15.927,-64.961,40.871,-22.102,-0.78155,-92.923,83.572,-24.533,4.2385,-56.744,16.926,-68.537,62.482,-60.785,46.678
-30.982,-15.927,-64.961,40.871,-22.102,-0.78155,-92.923,83.572,-24.533,4.2385,-56.744,16.926,-68.537,62.482,-60.785,46.678
-30.982,-15.927,-64.961,40.871,-22.102,-0.78155,-92.923,83.572,-24.533,4.2385,-56.744,16.926,-68.537,62.482,-60.785,46.678
-30.924,-16.291,-64.668,40.486,-21.971,-1.2656,-92.662,83.055,-24.499,4.335,-56.111,16.517,-68.158,62.17,-60.493,46.13
-30.924,-16.291,-64.668,40.486,-21.971,-1.2656,-92.662,83.055,-24.499,4.335,-56.111,16.517,-68.158,62.17,-60.493,46.13
-30.894,-16.472,-64.522,40.294,-21.904,-1.5077,-92.531,82.796,-24.483,4.3862,-55.794,16.315,-67.968,62.015,-60.346,45.858
-30.894,-16.472,-64.522,40.294,-21.904,-1.5077,-92.531,82.796,-24.483,4.3862,-55.794,16.315,-67.968,62.015,-60.346,45.858
-30.863,-16.652,-64.376,40.104,-21.836,-1.7498,-92.399,82.536,-24.467,4.4393,-55.477,16.115,-67.778,61.86,-60.199,45.587
-30.863,-16.652,-64.376,40.104,-21.836,-1.7498,-92.399,82.536,-24.467,4.4393,-55.477,16.115,-67.778,61.86,-60.199,45.587
-30.832,-16.832,-64.231,39.914,-21.768,-1.992,-92.267,82.276,-24.452,4.4943,-55.16,15.916,-67.587,61.707,-60.052,45.316
-30.832,-16.832,-64.231,39.914,-21.768,-1.992,-92.267,82.276,-24.452,4.4943,-55.16,15.916,-67.587,61.707,-60.052,45.316
-30.832,-16.832,-64.231,39.914,-21.768,-1.992,-92.267,82.276,-24.452,4.4943,-55.16,15.916,-67.587,61.707,-60.052,45.316
-30.799,-17.011,-64.086,39.725,-21.699,-2.2342,-92.135,82.016,-24.438,4.5512,-54.843,15.72,-67.395,61.553,-59.904,45.047
-30.799,-17.011,-64.086,39.725,-21.699,-2.2342,-92.135,82.016,-24.438,4.5512,-54.843,15.72,-67.395,61.553,-59.904,45.047
-30.766,-17.19,-63.941,39.536,-21.629,-2.4765,-92.003,81.754,-24.425,4.61,-54.526,15.525,-67.203,61.4,-59.756,44.778
-30.766,-17.19,-63.941,39.536,-21.629,-2.4765,-92.003,81.754,-24.425,4.61,-54.526,15.525,-67.203,61.4,-59.756,44.778
-30.766,-17.19,-63.941,39.536,-21.629,-2.4765,-92.003,81.754,-24.425,4.61,-54.526,15.525,-67.203,61.4,-59.756,44.778
-30.766,-17.19,-63.941,39.536,-21.629,-2.4765,-92.003,81.754,-24.425,4.61,-54.526,15.525,-67.203,61.4,-59.756,44.778
-30.697,-17.545,-63.653,39.161,-21.487,-2.961,-91.736,81.23,-24.401,4.7334,-53.891,15.14,-66.818,61.097,-59.459,44.245
-30.697,-17.545,-63.653,39.161,-21.487,-2.961,-91.736,81.23,-24.401,4.7334,-53.891,15.14,-66.818,61.097,-59.459,44.245
-30.662,-17.721,-63.509,38.975,-21.415,-3.2033,-91.603,80.968,-24.389,4.798,-53.573,14.95,-66.624,60.946,-59.31,43.98
-30.662,-17.721,-63.509,38.975,-21.415,-3.2033,-91.603,80.968,-24.389,4.798,-53.573,14.95,-66.624,60.946,-59.31,43.98
-30.588,-18.072,-63.223,38.605,-21.268,-3.6878,-91.334,80.441,-24.369,4.933,-52.938,14.576,-66.236,60.645,-59.012,43.453
-30.588,-18.072,-63.223,38.605,-21.268,-3.6878,-91.334,80.441,-24.369,4.933,-52.938,14.576,-66.236,60.645,-59.012,43.453
-30.588,-18.072,-63.223,38.605,-21.268,-3.6878,-91.334,80.441,-24.369,4.933,-52.938,14.576,-66.236,60.645,-59.012,43.453
-30.55,-18.247,-63.081,38.421,-21.194,-3.9301,-91.2,80.177,-24.36,5.0033,-52.621,14.392,-66.041,60.496,-58.862,43.191
-30.55,-18.247,-63.081,38.421,-21.194,-3.9301,-91.2,80.177,-24.36,5.0033,-52.621,14.392,-66.041,60.496,-58.862,43.191
-30.55,-18.247,-63.081,38.421,-21.194,-3.9301,-91.2,80.177,-24.36,5.0033,-52.621,14.392,-66.041,60.496,-58.862,43.191
-30.511,-18.421,-62.939,38.237,-21.119,-4.1722,-91.065,79.912,-24.352,5.0755,-52.303,14.209,-65.845,60.348,-58.713,42.931
-30.471,-18.594,-62.797,38.055,-21.043,-4.4144,-90.929,79.647,-24.345,5.1497,-51.986,14.028,-65.649,60.2,-58.563,42.671
-30.471,-18.594,-62.797,38.055,-21.043,-4.4144,-90.929,79.647,-24.345,5.1497,-51.986,14.028,-65.649,60.2,-58.563,42.671
-30.43,-18.766,-62.656,37.873,-20.966,-4.6565,-90.794,79.382,-24.338,5.2258,-51.668,13.849,-65.453,60.052,-58.413,42.413
-30.43,-18.766,-62.656,37.873,-20.966,-4.6565,-90.794,79.382,-24.338,5.2258,-51.668,13.849,-65.453,60.052,-58.413,42.413
-30.389,-18.937,-62.516,37.692,-20.888,-4.8985,-90.658,79.116,-24.332,5.3038,-51.351,13.672,-65.257,59.906,-58.262,42.156
-30.389,-18.937,-62.516,37.692,-20.888,-4.8985,-90.658,79.116,-24.332,5.3038,-51.351,13.672,-65.257,59.906,-58.262,42.156
-30.389,-18.937,-62.516,37.692,-20.888,-4.8985,-90.658,79.116,-24.332,5.3038,-51.351,13.672,-65.257,59.906,-58.262,42.156
-30.346,-19.108,-62.375,37.512,-20.81,-5.1405,-90.521,78.85,-24.327,5.3836,-51.033,13.496,-65.06,59.759,-58.112,41.9
-30.346,-19.108,-62.375,37.512,-20.81,-5.1405,-90.521,78.85,-24.327,5.3836,-51.033,13.496,-65.06,59.759,-58.112,41.9
-30.346,-19.108,-62.375,37.512,-20.81,-5.1405,-90.521,78.85,-24.327,5.3836,-51.033,13.496,-65.06,59.759,-58.112,41.9
-30.259,-19.448,-62.096,37.154,-20.65,-5.6242,-90.248,78.316,-24.319,5.5491,-50.398,13.151,-64.664,59.469,-57.811,41.392
-30.259,-19.448,-62.096,37.154,-20.65,-5.6242,-90.248,78.316,-24.319,5.5491,-50.398,13.151,-64.664,59.469,-57.811,41.392
-30.259,-19.448,-62.096,37.154,-20.65,-5.6242,-90.248,78.316,-24.319,5.5491,-50.398,13.151,-64.664,59.469,-57.811,41.392
-30.214,-19.616,-61.957,36.976,-20.569,-5.8659,-90.11,78.049,-24.316,5.6347,-50.081,12.981,-64.466,59.325,-57.66,41.139
-30.214,-19.616,-61.957,36.976,-20.569,-5.8659,-90.11,78.049,-24.316,5.6347,-50.081,12.981,-64.466,59.325,-57.66,41.139
-30.214,-19.616,-61.957,36.976,-20.569,-5.8659,-90.11,78.049,-24.316,5.6347,-50.081,12.981,-64.466,59.325,-57.66,41.139
-30.121,-19.951,-61.68,36.623,-20.405,-6.349,-89.835,77.513,-24.313,5.8115,-49.447,12.646,-64.069,59.039,-57.358,40.638
-30.121,-19.951,-61.68,36.623,-20.405,-6.349,-89.835,77.513,-24.313,5.8115,-49.447,12.646,-64.069,59.039,-57.358,40.638
-30.074,-20.117,-61.542,36.448,-20.322,-6.5904,-89.696,77.245,-24.313,5.9027,-49.13,12.481,-63.869,58.897,-57.207,40.39
-30.074,-20.117,-61.542,36.448,-20.322,-6.5904,-89.696,77.245,-24.313,5.9027,-49.13,12.481,-63.869,58.897,-57.207,40.39
-30.026,-20.283,-61.405,36.273,-20.237,-6.8316,-89.558,76.976,-24.313,5.9959,-48.813,12.318,-63.67,58.755,-57.056,40.142
-30.026,-20.283,-61.405,36.273,-20.237,-6.8316,-89.558,76.976,-24.313,5.9959,-48.813,12.318,-63.67,58.755,-57.056,40.142
-29.976,-20.447,-61.268,36.1,-20.152,-7.0727,-89.419,76.707,-24.314,6.0909,-48.496,12.157,-63.47,58.614,-56.904,39.896
-29.976,-20.447,-61.268,36.1,-20.152,-7.0727,-89.419,76.707,-24.314,6.0909,-48.496,12.157,-63.47,58.614,-56.904,39.896
-29.926,-20.611,-61.131,35.927,-20.066,-7.3136,-89.28,76.437,-24.316,6.1877,-48.179,11.998,-63.269,58.474,-56.753,39.651
-29.926,-20.611,-61.131,35.927,-20.066,-7.3136,-89.28,76.437,-24.316,6.1877,-48.179,11.998,-63.269,58.474,-56.753,39.651
-29.926,-20.611,-61.131,35.927,-20.066,-7.3136,-89.28,76.437,-24.316,6.1877,-48.179,11.998,-63.269,58.474,-56.753,39.651
-29.876,-20.774,-60.995,35.755,-19.979,-7.5544,-89.14,76.167,-24.319,6.2865,-47.863,11.84,-63.069,58.335,-56.602,39.408
-29.876,-20.774,-60.995,35.755,-19.979,-7.5544,-89.14,76.167,-24.319,6.2865,-47.863,11.84,-63.069,58.335,-56.602,39.408
-29.824,-20.936,-60.859,35.583,-19.891,-7.7951,-89,75.897,-24.322,6.3871,-47.547,11.685,-62.868,58.196,-56.451,39.166
-29.771,-21.098,-60.724,35.413,-19.803,-8.0355,-88.86,75.627,-24.327,6.4895,-47.23,11.531,-62.667,58.058,-56.299,38.925
-29.771,-21.098,-60.724,35.413,-19.803,-8.0355,-88.86,75.627,-24.327,6.4895,-47.23,11.531,-62.667,58.058,-56.299,38.925
-29.718,-21.258,-60.59,35.244,-19.713,-8.2758,-88.719,75.356,-24.332,6.5938,-46.914,11.379,-62.465,57.92,-56.148,38.685
-29.663,-21.418,-60.455,35.075,-19.623,-8.5159,-88.579,75.085,-24.338,6.6999,-46.599,11.229,-62.263,57.784,-55.997,38.447
-29.663,-21.418,-60.455,35.075,-19.623,-8.5159,-88.579,75.085,-24.338,6.6999,-46.599,11.229,-62.263,57.784,-55.997,38.447
-29.608,-21.577,-60.322,34.907,-19.531,-8.7557,-88.438,74.814,-24.345,6.8079,-46.283,11.08,-62.061,57.648,-55.846,38.21
-29.608,-21.577,-60.322,34.907,-19.531,-8.7557,-88.438,74.814,-24.345,6.8079,-46.283,11.08,-62.061,57.648,-55.846,38.21
-29.608,-21.577,-60.322,34.907,-19.531,-8.7557,-88.438,74.814,-24.345,6.8079,-46.283,11.08,-62.061,57.648,-55.846,38.21
-29.608,-21.577,-60.322,34.907,-19.531,-8.7557,-88.438,74.814,-24.345,6.8079,-46.283,11.08,-62.061,57.648,-55.846,38.21
-29.552,-21.735,-60.188,34.74,-19.439,-8.9954,-88.296,74.542,-24.353,6.9177,-45.968,10.934,-61.859,57.512,-55.694,37.974
-29.552,-21.735,-60.188,34.74,-19.439,-8.9954,-88.296,74.542,-24.353,6.9177,-45.968,10.934,-61.859,57.512,-55.694,37.974
-29.437,-22.048,-59.923,34.409,-19.252,-9.4741,-88.012,73.998,-24.371,7.1428,-45.338,10.646,-61.454,57.244,-55.392,37.507
-29.437,-22.048,-59.923,34.409,-19.252,-9.4741,-88.012,73.998,-24.371,7.1428,-45.338,10.646,-61.454,57.244,-55.392,37.507
-29.378,-22.203,-59.791,34.244,-19.157,-9.713,-87.87,73.726,-24.381,7.258,-45.023,10.505,-61.251,57.11,-55.241,37.275
-29.378,-22.203,-59.791,34.244,-19.157,-9.713,-87.87,73.726,-24.381,7.258,-45.023,10.505,-61.251,57.11,-55.241,37.275
-29.378,-22.203,-59.791,34.244,-19.157,-9.713,-87.87,73.726,-24.381,7.258,-45.023,10.505,-61.251,57.11,-55.241,37.275
-29.378,-22.203,-59.791,34.244,-19.157,-9.713,-87.87,73.726,-24.381,7.258,-45.023,10.505,-61.251,57.11,-55.241,37.275
-29.319,-22.358,-59.66,34.081,-19.061,-9.9518,-87.728,73.454,-24.392,7.3751,-44.709,10.365,-61.047,56.978,-55.09,37.045
-29.319,-22.358,-59.66,34.081,-19.061,-9.9518,-87.728,73.454,-24.392,7.3751,-44.709,10.365,-61.047,56.978,-55.09,37.045
-29.197,-22.664,-59.398,33.756,-18.867,-10.428,-87.441,72.908,-24.417,7.6146,-44.081,10.092,-60.64,56.715,-54.789,36.588
-29.197,-22.664,-59.398,33.756,-18.867,-10.428,-87.441,72.908,-24.417,7.6146,-44.081,10.092,-60.64,56.715,-54.789,36.588
-29.197,-22.664,-59.398,33.756,-18.867,-10.428,-87.441,72.908,-24.417,7.6146,-44.081,10.092,-60.64,56.715,-54.789,36.588
-29.135,-22.816,-59.268,33.595,-18.768,-10.666,-87.298,72.635,-24.431,7.737,-43.767,9.9582,-60.436,56.584,-54.638,36.362
-29.135,-22.816,-59.268,33.595,-18.768,-10.666,-87.298,72.635,-24.431,7.737,-43.767,9.9582,-60.436,56.584,-54.638,36.362
-29.072,-22.967,-59.139,33.435,-18.669,-10.904,-87.154,72.361,-24.445,7.8612,-43.454,9.826,-60.232,56.455,-54.488,36.137
-29.072,-22.967,-59.139,33.435,-18.669,-10.904,-87.154,72.361,-24.445,7.8612,-43.454,9.826,-60.232,56.455,-54.488,36.137
-29.008,-23.117,-59.01,33.276,-18.568,-11.141,-87.01,72.087,-24.461,7.9871,-43.141,9.6957,-60.028,56.326,-54.338,35.914
-29.008,-23.117,-59.01,33.276,-18.568,-11.141,-87.01,72.087,-24.461,7.9871,-43.141,9.6957,-60.028,56.326,-54.338,35.914
-29.008,-23.117,-59.01,33.276,-18.568,-11.141,-87.01,72.087,-24.461,7.9871,-43.141,9.6957,-60.028,56.326,-54.338,35.914
-29.008,-23.117,-59.01,33.276,-18.568,-11.141,-87.01,72.087,-24.461,7.9871,-43.141,9.6957,-60.028,56.326,-54.338,35.914
-28.877,-23.414,-58.753,32.96,-18.364,-11.615,-86.721,71.54,-24.494,8.2443,-42.516,9.4403,-59.619,56.07,-54.038,35.471
-28.877,-23.414,-58.753,32.96,-18.364,-11.615,-86.721,71.54,-24.494,8.2443,-42.516,9.4403,-59.619,56.07,-54.038,35.471
-28.811,-23.562,-58.626,32.803,-18.261,-11.851,-86.576,71.265,-24.512,8.3754,-42.204,9.3153,-59.415,55.943,-53.888,35.252
-28.811,-23.562,-58.626,32.803,-18.261,-11.851,-86.576,71.265,-24.512,8.3754,-42.204,9.3153,-59.415,55.943,-53.888,35.252
-28.743,-23.708,-58.498,32.647,-18.156,-12.088,-86.431,70.991,-24.531,8.5083,-41.893,9.1921,-59.21,55.817,-53.739,35.035
-28.743,-23.708,-58.498,32.647,-18.156,-12.088,-86.431,70.991,-24.531,8.5083,-41.893,9.1921,-59.21,55.817,-53.739,35.035
-28.675,-23.853,-58.372,32.492,-18.051,-12.323,-86.285,70.717,-24.551,8.6429,-41.582,9.0707,-59.005,55.691,-53.589,34.818
-28.675,-23.853,-58.372,32.492,-18.051,-12.323,-86.285,70.717,-24.551,8.6429,-41.582,9.0707,-59.005,55.691,-53.589,34.818
-28.606,-23.998,-58.246,32.338,-17.945,-12.559,-86.139,70.442,-24.572,8.7792,-41.271,8.951,-58.8,55.567,-53.44,34.603
-28.606,-23.998,-58.246,32.338,-17.945,-12.559,-86.139,70.442,-24.572,8.7792,-41.271,8.951,-58.8,55.567,-53.44,34.603
-28.606,-23.998,-58.246,32.338,-17.945,-12.559,-86.139,70.442,-24.572,8.7792,-41.271,8.951,-58.8,55.567,-53.44,34.603
-28.536,-24.141,-58.12,32.185,-17.837,-12.794,-85.993,70.167,-24.594,8.9172,-40.961,8.8331,-58.595,55.443,-53.291,34.39
-28.536,-24.141,-58.12,32.185,-17.837,-12.794,-85.993,70.167,-24.594,8.9172,-40.961,8.8331,-58.595,55.443,-53.291,34.39
-28.536,-24.141,-58.12,32.185,-17.837,-12.794,-85.993,70.167,-24.594,8.9172,-40.961,8.8331,-58.595,55.443,-53.291,34.39
-28.393,-24.426,-57.871,31.882,-17.62,-13.263,-85.7,69.617,-24.64,9.1982,-40.342,8.6026,-58.184,55.197,-52.995,33.967
-28.393,-24.426,-57.871,31.882,-17.62,-13.263,-85.7,69.617,-24.64,9.1982,-40.342,8.6026,-58.184,55.197,-52.995,33.967
-28.393,-24.426,-57.871,31.882,-17.62,-13.263,-85.7,69.617,-24.64,9.1982,-40.342,8.6026,-58.184,55.197,-52.995,33.967
-28.32,-24.566,-57.746,31.731,-17.509,-13.496,-85.553,69.342,-24.664,9.3412,-40.033,8.49,-57.979,55.075,-52.846,33.758
-28.32,-24.566,-57.746,31.731,-17.509,-13.496,-85.553,69.342,-24.664,9.3412,-40.033,8.49,-57.979,55.075,-52.846,33.758
-28.32,-24.566,-57.746,31.731,-17.509,-13.496,-85.553,69.342,-24.664,9.3412,-40.033,8.49,-57.979,55.075,-52.846,33.758
-28.246,-24.706,-57.623,31.581,-17.398,-13.73,-85.406,69.067,-24.689,9.4859,-39.724,8.3791,-57.773,54.954,-52.699,33.55
-28.246,-24.706,-57.623,31.581,-17.398,-13.73,-85.406,69.067,-24.689,9.4859,-39.724,8.3791,-57.773,54.954,-52.699,33.55
-28.246,-24.706,-57.623,31.581,-17.398,-13.73,-85.406,69.067,-24.689,9.4859,-39.724,8.3791,-57.773,54.954,-52.699,33.55
-28.097,-24.982,-57.377,31.285,-17.173,-14.196,-85.11,68.516,-24.742,9.7801,-39.108,8.1625,-57.362,54.714,-52.404,33.139
-28.097,-24.982,-57.377,31.285,-17.173,-14.196,-85.11,68.516,-24.742,9.7801,-39.108,8.1625,-57.362,54.714,-52.404,33.139
-27.943,-25.255,-57.133,30.991,-16.943,-14.66,-84.814,67.965,-24.799,10.081,-38.495,7.9529,-56.95,54.476,-52.111,32.734
-27.943,-25.255,-57.133,30.991,-16.943,-14.66,-84.814,67.965,-24.799,10.081,-38.495,7.9529,-56.95,54.476,-52.111,32.734
-27.865,-25.389,-57.012,30.846,-16.827,-14.891,-84.665,67.689,-24.829,10.233,-38.188,7.8506,-56.745,54.359,-51.965,32.533
-27.865,-25.389,-57.012,30.846,-16.827,-14.891,-84.665,67.689,-24.829,10.233,-38.188,7.8506,-56.745,54.359,-51.965,32.533
-27.865,-25.389,-57.012,30.846,-16.827,-14.891,-84.665,67.689,-24.829,10.233,-38.188,7.8506,-56.745,54.359,-51.965,32.533
-27.865,-25.389,-57.012,30.846,-16.827,-14.891,-84.665,67.689,-24.829,10.233,-38.188,7.8506,-56.745,54.359,-51.965,32.533
-27.786,-25.523,-56.892,30.702,-16.709,-15.122,-84.516,67.414,-24.859,10.388,-37.883,7.7501,-56.539,54.242,-51.819,32.334
-27.786,-25.523,-56.892,30.702,-16.709,-15.122,-84.516,67.414,-24.859,10.388,-37.883,7.7501,-56.539,54.242,-51.819,32.334
-27.786,-25.523,-56.892,30.702,-16.709,-15.122,-84.516,67.414,-24.859,10.388,-37.883,7.7501,-56.539,54.242,-51.819,32.334
-27.786,-25.523,-56.892,30.702,-16.709,-15.122,-84.516,67.414,-24.859,10.388,-37.883,7.7501,-56.539,54.242,-51.819,32.334
-27.626,-25.787,-56.652,30.415,-16.472,-15.582,-84.217,66.862,-24.923,10.701,-37.273,7.5541,-56.127,54.01,-51.528,31.94
-27.626,-25.787,-56.652,30.415,-16.472,-15.582,-84.217,66.862,-24.923,10.701,-37.273,7.5541,-56.127,54.01,-51.528,31.94
-27.626,-25.787,-56.652,30.415,-16.472,-15.582,-84.217,66.862,-24.923,10.701,-37.273,7.5541,-56.127,54.01,-51.528,31.94
-27.462,-26.048,-56.415,30.133,-16.23,-16.04,-83.916,66.31,-24.991,11.02,-36.666,7.3648,-55.716,53.781,-51.239,31.553
-27.462,-26.048,-56.415,30.133,-16.23,-16.04,-83.916,66.31,-24.991,11.02,-36.666,7.3648,-55.716,53.781,-51.239,31.553
-27.462,-26.048,-56.415,30.133,-16.23,-16.04,-83.916,66.31,-24.991,11.02,-36.666,7.3648,-55.716,53.781,-51.239,31.553
-27.379,-26.176,-56.297,29.993,-16.107,-16.269,-83.766,66.034,-25.026,11.182,-36.363,7.2727,-55.51,53.667,-51.095,31.361
-27.379,-26.176,-56.297,29.993,-16.107,-16.269,-83.766,66.034,-25.026,11.182,-36.363,7.2727,-55.51,53.667,-51.095,31.361
-27.209,-26.43,-56.062,29.715,-15.859,-16.724,-83.464,65.483,-25.1,11.511,-35.759,7.0934,-55.099,53.443,-50.809,30.982
-27.209,-26.43,-56.062,29.715,-15.859,-16.724,-83.464,65.483,-25.1,11.511,-35.759,7.0934,-55.099,53.443,-50.809,30.982
-27.209,-26.43,-56.062,29.715,-15.859,-16.724,-83.464,65.483,-25.1,11.511,-35.759,7.0934,-55.099,53.443,-50.809,30.982
-27.123,-26.556,-55.946,29.577,-15.733,-16.951,-83.312,65.207,-25.138,11.677,-35.458,7.0062,-54.893,53.331,-50.666,30.794
-27.123,-26.556,-55.946,29.577,-15.733,-16.951,-83.312,65.207,-25.138,11.677,-35.458,7.0062,-54.893,53.331,-50.666,30.794
-27.037,-26.68,-55.83,29.441,-15.607,-17.177,-83.161,64.931,-25.177,11.845,-35.157,6.9207,-54.688,53.22,-50.524,30.608
-27.037,-26.68,-55.83,29.441,-15.607,-17.177,-83.161,64.931,-25.177,11.845,-35.157,6.9207,-54.688,53.22,-50.524,30.608
-26.949,-26.804,-55.714,29.305,-15.479,-17.403,-83.009,64.655,-25.217,12.014,-34.858,6.8367,-54.483,53.11,-50.382,30.424
-26.949,-26.804,-55.714,29.305,-15.479,-17.403,-83.009,64.655,-25.217,12.014,-34.858,6.8367,-54.483,53.11,-50.382,30.424
-26.86,-26.926,-55.599,29.17,-15.35,-17.628,-82.856,64.379,-25.257,12.185,-34.558,6.7544,-54.277,53.001,-50.241,30.241
-26.86,-26.926,-55.599,29.17,-15.35,-17.628,-82.856,64.379,-25.257,12.185,-34.558,6.7544,-54.277,53.001,-50.241,30.241
-26.771,-27.048,-55.485,29.036,-15.22,-17.853,-82.704,64.103,-25.299,12.357,-34.26,6.6737,-54.072,52.892,-50.1,30.06
-26.681,-27.168,-55.371,28.902,-15.089,-18.076,-82.551,63.827,-25.342,12.53,-33.962,6.5946,-53.867,52.784,-49.96,29.88
-26.681,-27.168,-55.371,28.902,-15.089,-18.076,-82.551,63.827,-25.342,12.53,-33.962,6.5946,-53.867,52.784,-49.96,29.88
-26.59,-27.287,-55.257,28.77,-14.957,-18.3,-82.397,63.552,-25.386,12.705,-33.665,6.517,-53.662,52.677,-49.82,29.701
-26.59,-27.287,-55.257,28.77,-14.957,-18.3,-82.397,63.552,-25.386,12.705,-33.665,6.517,-53.662,52.677,-49.82,29.701
-26.59,-27.287,-55.257,28.77,-14.957,-18.3,-82.397,63.552,-25.386,12.705,-33.665,6.517,-53.662,52.677,-49.82,29.701
-26.498,-27.405,-55.144,28.638,-14.824,-18.523,-82.244,63.276,-25.43,12.881,-33.368,6.441,-53.457,52.57,-49.68,29.524
-26.498,-27.405,-55.144,28.638,-14.824,-18.523,-82.244,63.276,-25.43,12.881,-33.368,6.441,-53.457,52.57,-49.68,29.524
-26.498,-27.405,-55.144,28.638,-14.824,-18.523,-82.244,63.276,-25.43,12.881,-33.368,6.441,-53.457,52.57,-49.68,29.524
-26.498,-27.405,-55.144,28.638,-14.824,-18.523,-82.244,63.276,-25.43,12.881,-33.368,6.441,-53.457,52.57,-49.68,29.524
-26.311,-27.638,-54.92,28.377,-14.554,-18.966,-81.935,62.725,-25.522,13.237,-32.778,6.2937,-53.047,52.359,-49.403,29.174
-26.216,-27.753,-54.809,28.248,-14.418,-19.187,-81.781,62.449,-25.569,13.417,-32.483,6.2223,-52.843,52.254,-49.266,29.001
-26.216,-27.753,-54.809,28.248,-14.418,-19.187,-81.781,62.449,-25.569,13.417,-32.483,6.2223,-52.843,52.254,-49.266,29.001
-26.121,-27.867,-54.698,28.12,-14.28,-19.407,-81.626,62.174,-25.618,13.599,-32.19,6.1525,-52.638,52.15,-49.128,28.83
-26.121,-27.867,-54.698,28.12,-14.28,-19.407,-81.626,62.174,-25.618,13.599,-32.19,6.1525,-52.638,52.15,-49.128,28.83
-26.121,-27.867,-54.698,28.12,-14.28,-19.407,-81.626,62.174,-25.618,13.599,-32.19,6.1525,-52.638,52.15,-49.128,28.83
-26.024,-27.979,-54.587,27.992,-14.142,-19.627,-81.471,61.898,-25.667,13.781,-31.897,6.0842,-52.434,52.046,-48.992,28.66
-26.024,-27.979,-54.587,27.992,-14.142,-19.627,-81.471,61.898,-25.667,13.781,-31.897,6.0842,-52.434,52.046,-48.992,28.66
-25.927,-28.091,-54.478,27.866,-14.002,-19.846,-81.315,61.623,-25.717,13.965,-31.605,6.0174,-52.23,51.943,-48.856,28.492
-25.927,-28.091,-54.478,27.866,-14.002,-19.846,-81.315,61.623,-25.717,13.965,-31.605,6.0174,-52.23,51.943,-48.856,28.492
-25.927,-28.091,-54.478,27.866,-14.002,-19.846,-81.315,61.623,-25.717,13.965,-31.605,6.0174,-52.23,51.943,-48.856,28.492
-25.73,-28.311,-54.259,27.615,-13.719,-20.281,-81.003,61.073,-25.82,14.337,-31.023,5.8881,-51.822,51.739,-48.585,28.159
-25.73,-28.311,-54.259,27.615,-13.719,-20.281,-81.003,61.073,-25.82,14.337,-31.023,5.8881,-51.822,51.739,-48.585,28.159
-25.73,-28.311,-54.259,27.615,-13.719,-20.281,-81.003,61.073,-25.82,14.337,-31.023,5.8881,-51.822,51.739,-48.585,28.159
-25.63,-28.419,-54.151,27.49,-13.576,-20.498,-80.847,60.798,-25.873,14.524,-30.733,5.8257,-51.619,51.638,-48.451,27.995
-25.63,-28.419,-54.151,27.49,-13.576,-20.498,-80.847,60.798,-25.873,14.524,-30.733,5.8257,-51.619,51.638,-48.451,27.995
-25.53,-28.526,-54.043,27.367,-13.432,-20.714,-80.69,60.523,-25.927,14.713,-30.444,5.7648,-51.416,51.538,-48.317,27.833
-25.428,-28.632,-53.936,27.244,-13.287,-20.929,-80.533,60.249,-25.982,14.903,-30.156,5.7052,-51.213,51.438,-48.184,27.672
-25.428,-28.632,-53.936,27.244,-13.287,-20.929,-80.533,60.249,-25.982,14.903,-30.156,5.7052,-51.213,51.438,-48.184,27.672
-25.428,-28.632,-53.936,27.244,-13.287,-20.929,-80.533,60.249,-25.982,14.903,-30.156,5.7052,-51.213,51.438,-48.184,27.672
-25.428,-28.632,-53.936,27.244,-13.287,-20.929,-80.533,60.249,-25.982,14.903,-30.156,5.7052,-51.213,51.438,-48.184,27.672
-25.326,-28.737,-53.829,27.122,-13.14,-21.144,-80.375,59.974,-26.038,15.094,-29.868,5.6471,-51.01,51.339,-48.051,27.512
-25.326,-28.737,-53.829,27.122,-13.14,-21.144,-80.375,59.974,-26.038,15.094,-29.868,5.6471,-51.01,51.339,-48.051,27.512
-25.223,-28.841,-53.722,27.001,-12.993,-21.358,-80.217,59.7,-26.094,15.286,-29.582,5.5904,-50.807,51.24,-47.919,27.354
-25.119,-28.944,-53.616,26.88,-12.844,-21.571,-80.059,59.426,-26.152,15.479,-29.296,5.5351,-50.605,51.142,-47.788,27.197
-25.119,-28.944,-53.616,26.88,-12.844,-21.571,-80.059,59.426,-26.152,15.479,-29.296,5.5351,-50.605,51.142,-47.788,27.197
-25.014,-29.045,-53.511,26.761,-12.694,-21.783,-79.901,59.152,-26.21,15.673,-29.011,5.4811,-50.402,51.044,-47.657,27.041
-25.014,-29.045,-53.511,26.761,-12.694,-21.783,-79.901,59.152,-26.21,15.673,-29.011,5.4811,-50.402,51.044,-47.657,27.041
-24.908,-29.146,-53.406,26.642,-12.543,-21.995,-79.742,58.878,-26.27,15.869,-28.727,5.4285,-50.2,50.947,-47.527,26.887
-24.801,-29.245,-53.301,26.524,-12.391,-22.205,-79.583,58.604,-26.33,16.065,-28.444,5.3773,-49.999,50.851,-47.398,26.735
-24.801,-29.245,-53.301,26.524,-12.391,-22.205,-79.583,58.604,-26.33,16.065,-28.444,5.3773,-49.999,50.851,-47.398,26.735
-24.694,-29.343,-53.197,26.406,-12.238,-22.415,-79.423,58.331,-26.392,16.262,-28.162,5.3274,-49.797,50.755,-47.269,26.583
-24.694,-29.343,-53.197,26.406,-12.238,-22.415,-79.423,58.331,-26.392,16.262,-28.162,5.3274,-49.797,50.755,-47.269,26.583
-24.694,-29.343,-53.197,26.406,-12.238,-22.415,-79.423,58.331,-26.392,16.262,-28.162,5.3274,-49.797,50.755,-47.269,26.583
-24.586,-29.44,-53.094,26.29,-12.084,-22.624,-79.263,58.058,-26.454,16.461,-27.881,5.2788,-49.596,50.66,-47.141,26.434
-24.586,-29.44,-53.094,26.29,-12.084,-22.624,-79.263,58.058,-26.454,16.461,-27.881,5.2788,-49.596,50.66,-47.141,26.434
-24.586,-29.44,-53.094,26.29,-12.084,-22.624,-79.263,58.058,-26.454,16.461,-27.881,5.2788,-49.596,50.66,-47.141,26.434
-24.476,-29.536,-52.991,26.174,-11.929,-22.833,-79.103,57.784,-26.517,16.66,-27.6,5.2315,-49.395,50.565,-47.014,26.285
-24.366,-29.631,-52.888,26.059,-11.772,-23.04,-78.942,57.512,-26.581,16.861,-27.321,5.1855,-49.194,50.471,-46.887,26.138
-24.366,-29.631,-52.888,26.059,-11.772,-23.04,-78.942,57.512,-26.581,16.861,-27.321,5.1855,-49.194,50.471,-46.887,26.138
-24.256,-29.724,-52.786,25.944,-11.614,-23.247,-78.781,57.239,-26.647,17.062,-27.042,5.1407,-48.994,50.377,-46.761,25.993
-24.256,-29.724,-52.786,25.944,-11.614,-23.247,-78.781,57.239,-26.647,17.062,-27.042,5.1407,-48.994,50.377,-46.761,25.993
-24.144,-29.817,-52.685,25.83,-11.455,-23.452,-78.62,56.966,-26.713,17.264,-26.764,5.0972,-48.794,50.284,-46.636,25.848
-24.144,-29.817,-52.685,25.83,-11.455,-23.452,-78.62,56.966,-26.713,17.264,-26.764,5.0972,-48.794,50.284,-46.636,25.848
-24.032,-29.908,-52.583,25.717,-11.295,-23.657,-78.458,56.694,-26.779,17.467,-26.487,5.055,-48.594,50.191,-46.512,25.705
-24.032,-29.908,-52.583,25.717,-11.295,-23.657,-78.458,56.694,-26.779,17.467,-26.487,5.055,-48.594,50.191,-46.512,25.705
-24.032,-29.908,-52.583,25.717,-11.295,-23.657,-78.458,56.694,-26.779,17.467,-26.487,5.055,-48.594,50.191,-46.512,25.705
-23.918,-29.998,-52.483,25.605,-11.134,-23.861,-78.296,56.422,-26.847,17.671,-26.212,5.0139,-48.395,50.099,-46.388,25.564
-23.918,-29.998,-52.483,25.605,-11.134,-23.861,-78.296,56.422,-26.847,17.671,-26.212,5.0139,-48.395,50.099,-46.388,25.564
-23.918,-29.998,-52.483,25.605,-11.134,-23.861,-78.296,56.422,-26.847,17.671,-26.212,5.0139,-48.395,50.099,-46.388,25.564
-23.689,-30.175,-52.283,25.383,-10.808,-24.266,-77.97,55.879,-26.986,18.081,-25.663,4.9355,-47.997,49.916,-46.142,25.285
-23.689,-30.175,-52.283,25.383,-10.808,-24.266,-77.97,55.879,-26.986,18.081,-25.663,4.9355,-47.997,49.916,-46.142,25.285
-23.574,-30.262,-52.183,25.272,-10.644,-24.467,-77.807,55.608,-27.056,18.288,-25.39,4.898,-47.798,49.825,-46.021,25.148
-23.574,-30.262,-52.183,25.272,-10.644,-24.467,-77.807,55.608,-27.056,18.288,-25.39,4.898,-47.798,49.825,-46.021,25.148
-23.574,-30.262,-52.183,25.272,-10.644,-24.467,-77.807,55.608,-27.056,18.288,-25.39,4.898,-47.798,49.825,-46.021,25.148
-23.457,-30.347,-52.084,25.163,-10.478,-24.668,-77.643,55.337,-27.128,18.495,-25.118,4.8617,-47.6,49.735,-45.9,25.012
-23.457,-30.347,-52.084,25.163,-10.478,-24.668,-77.643,55.337,-27.128,18.495,-25.118,4.8617,-47.6,49.735,-45.9,25.012
-23.34,-30.431,-51.986,25.054,-10.311,-24.867,-77.479,55.066,-27.2,18.703,-24.847,4.8265,-47.402,49.645,-45.78,24.877
-23.34,-30.431,-51.986,25.054,-10.311,-24.867,-77.479,55.066,-27.2,18.703,-24.847,4.8265,-47.402,49.645,-45.78,24.877
-23.222,-30.514,-51.888,24.946,-10.143,-25.066,-77.315,54.795,-27.274,18.912,-24.577,4.7924,-47.205,49.555,-45.66,24.743
-23.103,-30.596,-51.79,24.838,-9.9735,-25.263,-77.15,54.525,-27.348,19.121,-24.309,4.7594,-47.008,49.466,-45.542,24.611
-22.983,-30.677,-51.693,24.731,-9.803,-25.459,-76.985,54.255,-27.423,19.332,-24.041,4.7275,-46.811,49.378,-45.424,24.48
-22.983,-30.677,-51.693,24.731,-9.803,-25.459,-76.985,54.255,-27.423,19.332,-24.041,4.7275,-46.811,49.378,-45.424,24.48
-22.983,-30.677,-51.693,24.731,-9.803,-25.459,-76.985,54.255,-27.423,19.332,-24.041,4.7275,-46.811,49.378,-45.424,24.48
-22.983,-30.677,-51.693,24.731,-9.803,-25.459,-76.985,54.255,-27.423,19.332,-24.041,4.7275,-46.811,49.378,-45.424,24.48
-22.862,-30.757,-51.597,24.625,-9.6314,-25.655,-76.819,53.986,-27.499,19.542,-23.774,4.6967,-46.615,49.29,-45.307,24.351
-22.862,-30.757,-51.597,24.625,-9.6314,-25.655,-76.819,53.986,-27.499,19.542,-23.774,4.6967,-46.615,49.29,-45.307,24.351
-22.741,-30.835,-51.5,24.52,-9.4586,-25.849,-76.653,53.716,-27.576,19.754,-23.508,4.6669,-46.419,49.202,-45.19,24.223
-22.619,-30.912,-51.404,24.415,-9.2846,-26.043,-76.486,53.447,-27.654,19.966,-23.244,4.6381,-46.223,49.115,-45.075,24.096
-22.496,-30.988,-51.309,24.31,-9.1095,-26.235,-76.319,53.179,-27.733,20.179,-22.98,4.6104,-46.028,49.028,-44.96,23.97
-22.496,-30.988,-51.309,24.31,-9.1095,-26.235,-76.319,53.179,-27.733,20.179,-22.98,4.6104,-46.028,49.028,-44.96,23.97
-22.372,-31.063,-51.214,24.207,-8.9332,-26.427,-76.152,52.91,-27.812,20.392,-22.717,4.5836,-45.833,48.942,-44.846,23.846
-22.372,-31.063,-51.214,24.207,-8.9332,-26.427,-76.152,52.91,-27.812,20.392,-22.717,4.5836,-45.833,48.942,-44.846,23.846
-22.247,-31.136,-51.119,24.103,-8.7557,-26.617,-75.984,52.642,-27.893,20.606,-22.456,4.5578,-45.639,48.855,-44.733,23.723
-22.247,-31.136,-51.119,24.103,-8.7557,-26.617,-75.984,52.642,-27.893,20.606,-22.456,4.5578,-45.639,48.855,-44.733,23.723
-22.247,-31.136,-51.119,24.103,-8.7557,-26.617,-75.984,52.642,-27.893,20.606,-22.456,4.5578,-45.639,48.855,-44.733,23.723
-22.122,-31.209,-51.025,24.001,-8.5771,-26.807,-75.816,52.375,-27.975,20.82,-22.196,4.533,-45.445,48.77,-44.621,23.601
-22.122,-31.209,-51.025,24.001,-8.5771,-26.807,-75.816,52.375,-27.975,20.82,-22.196,4.533,-45.445,48.77,-44.621,23.601
-21.996,-31.28,-50.931,23.899,-8.3972,-26.995,-75.647,52.107,-28.057,21.035,-21.936,4.5091,-45.251,48.684,-44.509,23.481
-21.869,-31.35,-50.838,23.798,-8.2162,-27.182,-75.478,51.84,-28.14,21.251,-21.678,4.4861,-45.058,48.599,-44.399,23.362
-21.869,-31.35,-50.838,23.798,-8.2162,-27.182,-75.478,51.84,-28.14,21.251,-21.678,4.4861,-45.058,48.599,-44.399,23.362
-21.869,-31.35,-50.838,23.798,-8.2162,-27.182,-75.478,51.84,-28.14,21.251,-21.678,4.4861,-45.058,48.599,-44.399,23.362
-21.869,-31.35,-50.838,23.798,-8.2162,-27.182,-75.478,51.84,-28.14,21.251,-21.678,4.4861,-45.058,48.599,-44.399,23.362
-21.742,-31.419,-50.745,23.697,-8.0341,-27.368,-75.309,51.574,-28.224,21.467,-21.421,4.464,-44.865,48.515,-44.289,23.244
-21.742,-31.419,-50.745,23.697,-8.0341,-27.368,-75.309,51.574,-28.224,21.467,-21.421,4.464,-44.865,48.515,-44.289,23.244
-21.742,-31.419,-50.745,23.697,-8.0341,-27.368,-75.309,51.574,-28.224,21.467,-21.421,4.464,-44.865,48.515,-44.289,23.244
-21.613,-31.486,-50.652,23.597,-7.8507,-27.553,-75.139,51.307,-28.309,21.683,-21.165,4.4428,-44.673,48.43,-44.18,23.127
-21.613,-31.486,-50.652,23.597,-7.8507,-27.553,-75.139,51.307,-28.309,21.683,-21.165,4.4428,-44.673,48.43,-44.18,23.127
-21.613,-31.486,-50.652,23.597,-7.8507,-27.553,-75.139,51.307,-28.309,21.683,-21.165,4.4428,-44.673,48.43,-44.18,23.127
-21.354,-31.618,-50.468,23.398,-7.4805,-27.92,-74.797,50.776,-28.482,22.117,-20.657,4.4029,-44.289,48.262,-43.964,22.897
-21.354,-31.618,-50.468,23.398,-7.4805,-27.92,-74.797,50.776,-28.482,22.117,-20.657,4.4029,-44.289,48.262,-43.964,22.897
-21.354,-31.618,-50.468,23.398,-7.4805,-27.92,-74.797,50.776,-28.482,22.117,-20.657,4.4029,-44.289,48.262,-43.964,22.897
-21.223,-31.681,-50.377,23.3,-7.2936,-28.101,-74.626,50.51,-28.569,22.335,-20.404,4.3841,-44.098,48.179,-43.858,22.784
-21.223,-31.681,-50.377,23.3,-7.2936,-28.101,-74.626,50.51,-28.569,22.335,-20.404,4.3841,-44.098,48.179,-43.858,22.784
-20.96,-31.806,-50.195,23.104,-6.9163,-28.461,-74.281,49.981,-28.747,22.771,-19.903,4.3491,-43.717,48.013,-43.647,22.561
-20.96,-31.806,-50.195,23.104,-6.9163,-28.461,-74.281,49.981,-28.747,22.771,-19.903,4.3491,-43.717,48.013,-43.647,22.561
-20.827,-31.866,-50.105,23.007,-6.7259,-28.639,-74.109,49.717,-28.837,22.989,-19.654,4.3326,-43.528,47.93,-43.543,22.451
-20.827,-31.866,-50.105,23.007,-6.7259,-28.639,-74.109,49.717,-28.837,22.989,-19.654,4.3326,-43.528,47.93,-43.543,22.451
-20.827,-31.866,-50.105,23.007,-6.7259,-28.639,-74.109,49.717,-28.837,22.989,-19.654,4.3326,-43.528,47.93,-43.543,22.451
-20.693,-31.925,-50.015,22.911,-6.5343,-28.816,-73.935,49.454,-28.928,23.208,-19.406,4.317,-43.338,47.848,-43.44,22.343
-20.559,-31.983,-49.925,22.815,-6.3415,-28.992,-73.761,49.19,-29.02,23.427,-19.16,4.302,-43.15,47.766,-43.338,22.235
-20.424,-32.039,-49.836,22.72,-6.1475,-29.167,-73.587,48.927,-29.113,23.646,-18.915,4.2877,-42.961,47.684,-43.236,22.129
-20.424,-32.039,-49.836,22.72,-6.1475,-29.167,-73.587,48.927,-29.113,23.646,-18.915,4.2877,-42.961,47.684,-43.236,22.129
-20.288,-32.094,-49.747,22.625,-5.9524,-29.34,-73.412,48.665,-29.206,23.866,-18.67,4.2741,-42.773,47.602,-43.136,22.024
-20.288,-32.094,-49.747,22.625,-5.9524,-29.34,-73.412,48.665,-29.206,23.866,-18.67,4.2741,-42.773,47.602,-43.136,22.024
-20.288,-32.094,-49.747,22.625,-5.9524,-29.34,-73.412,48.665,-29.206,23.866,-18.67,4.2741,-42.773,47.602,-43.136,22.024
-20.151,-32.149,-49.658,22.53,-5.7561,-29.512,-73.237,48.403,-29.301,24.085,-18.428,4.2612,-42.586,47.521,-43.036,21.92
-20.151,-32.149,-49.658,22.53,-5.7561,-29.512,-73.237,48.403,-29.301,24.085,-18.428,4.2612,-42.586,47.521,-43.036,21.92
-20.151,-32.149,-49.658,22.53,-5.7561,-29.512,-73.237,48.403,-29.301,24.085,-18.428,4.2612,-42.586,47.521,-43.036,21.92
-20.014,-32.201,-49.57,22.436,-5.5586,-29.683,-73.061,48.142,-29.396,24.305,-18.186,4.2488,-42.399,47.439,-42.937,21.817
-20.014,-32.201,-49.57,22.436,-5.5586,-29.683,-73.061,48.142,-29.396,24.305,-18.186,4.2488,-42.399,47.439,-42.937,21.817
-19.737,-32.303,-49.394,22.25,-5.16,-30.021,-72.708,47.62,-29.589,24.745,-17.706,4.226,-42.027,47.278,-42.742,21.615
-19.737,-32.303,-49.394,22.25,-5.16,-30.021,-72.708,47.62,-29.589,24.745,-17.706,4.226,-42.027,47.278,-42.742,21.615
-19.737,-32.303,-49.394,22.25,-5.16,-30.021,-72.708,47.62,-29.589,24.745,-17.706,4.226,-42.027,47.278,-42.742,21.615
-19.598,-32.352,-49.306,22.157,-4.959,-30.188,-72.53,47.36,-29.686,24.965,-17.468,4.2154,-41.841,47.197,-42.646,21.516
-19.598,-32.352,-49.306,22.157,-4.959,-30.188,-72.53,47.36,-29.686,24.965,-17.468,4.2154,-41.841,47.197,-42.646,21.516
-19.598,-32.352,-49.306,22.157,-4.959,-30.188,-72.53,47.36,-29.686,24.965,-17.468,4.2154,-41.841,47.197,-42.646,21.516
-19.457,-32.4,-49.219,22.065,-4.7568,-30.354,-72.352,47.1,-29.785,25.185,-17.232,4.2054,-41.656,47.116,-42.551,21.417
-19.457,-32.4,-49.219,22.065,-4.7568,-30.354,-72.352,47.1,-29.785,25.185,-17.232,4.2054,-41.656,47.116,-42.551,21.417
-19.457,-32.4,-49.219,22.065,-4.7568,-30.354,-72.352,47.1,-29.785,25.185,-17.232,4.2054,-41.656,47.116,-42.551,21.417
-19.175,-32.492,-49.046,21.882,-4.3489,-30.681,-71.995,46.582,-29.984,25.626,-16.762,4.1868,-41.288,46.956,-42.363,21.223
-19.175,-32.492,-49.046,21.882,-4.3489,-30.681,-71.995,46.582,-29.984,25.626,-16.762,4.1868,-41.288,46.956,-42.363,21.223
-19.175,-32.492,-49.046,21.882,-4.3489,-30.681,-71.995,46.582,-29.984,25.626,-16.762,4.1868,-41.288,46.956,-42.363,21.223
-19.033,-32.536,-48.96,21.791,-4.1431,-30.843,-71.815,46.323,-30.085,25.846,-16.529,4.1783,-41.105,46.875,-42.27,21.128
-18.89,-32.579,-48.874,21.701,-3.9362,-31.004,-71.635,46.065,-30.187,26.066,-16.298,4.1702,-40.922,46.795,-42.178,21.034
-18.89,-32.579,-48.874,21.701,-3.9362,-31.004,-71.635,46.065,-30.187,26.066,-16.298,4.1702,-40.922,46.795,-42.178,21.034
-18.746,-32.621,-48.788,21.611,-3.7281,-31.163,-71.454,45.808,-30.289,26.286,-16.068,4.1626,-40.739,46.715,-42.087,20.941
-18.746,-32.621,-48.788,21.611,-3.7281,-31.163,-71.454,45.808,-30.289,26.286,-16.068,4.1626,-40.739,46.715,-42.087,20.941
-18.602,-32.661,-48.703,21.521,-3.5189,-31.321,-71.273,45.551,-30.393,26.506,-15.839,4.1553,-40.557,46.635,-41.998,20.848
-18.602,-32.661,-48.703,21.521,-3.5189,-31.321,-71.273,45.551,-30.393,26.506,-15.839,4.1553,-40.557,46.635,-41.998,20.848
-18.457,-32.7,-48.617,21.431,-3.3085,-31.477,-71.091,45.295,-30.497,26.726,-15.611,4.1485,-40.376,46.556,-41.908,20.757
-18.457,-32.7,-48.617,21.431,-3.3085,-31.477,-71.091,45.295,-30.497,26.726,-15.611,4.1485,-40.376,46.556,-41.908,20.757
-18.311,-32.738,-48.533,21.343,-3.0969,-31.632,-70.908,45.039,-30.601,26.946,-15.385,4.142,-40.195,46.476,-41.82,20.667
-18.311,-32.738,-48.533,21.343,-3.0969,-31.632,-70.908,45.039,-30.601,26.946,-15.385,4.142,-40.195,46.476,-41.82,20.667
-18.165,-32.775,-48.448,21.254,-2.8841,-31.786,-70.725,44.783,-30.707,27.165,-15.16,4.1358,-40.015,46.396,-41.733,20.577
-18.165,-32.775,-48.448,21.254,-2.8841,-31.786,-70.725,44.783,-30.707,27.165,-15.16,4.1358,-40.015,46.396,-41.733,20.577
-18.165,-32.775,-48.448,21.254,-2.8841,-31.786,-70.725,44.783,-30.707,27.165,-15.16,4.1358,-40.015,46.396,-41.733,20.577
-18.018,-32.81,-48.363,21.166,-2.6702,-31.938,-70.542,44.528,-30.813,27.385,-14.936,4.13,-39.835,46.317,-41.647,20.489
-17.87,-32.844,-48.279,21.078,-2.4551,-32.089,-70.358,44.274,-30.92,27.604,-14.714,4.1245,-39.656,46.237,-41.561,20.401
-17.87,-32.844,-48.279,21.078,-2.4551,-32.089,-70.358,44.274,-30.92,27.604,-14.714,4.1245,-39.656,46.237,-41.561,20.401
-17.722,-32.877,-48.195,20.99,-2.2389,-32.238,-70.173,44.02,-31.028,27.823,-14.493,4.1192,-39.477,46.157,-41.477,20.315
-17.722,-32.877,-48.195,20.99,-2.2389,-32.238,-70.173,44.02,-31.028,27.823,-14.493,4.1192,-39.477,46.157,-41.477,20.315
-17.573,-32.908,-48.111,20.903,-2.0215,-32.386,-69.987,43.767,-31.137,28.041,-14.273,4.1142,-39.299,46.078,-41.393,20.229
-17.573,-32.908,-48.111,20.903,-2.0215,-32.386,-69.987,43.767,-31.137,28.041,-14.273,4.1142,-39.299,46.078,-41.393,20.229
-17.424,-32.938,-48.028,20.816,-1.8029,-32.533,-69.801,43.514,-31.246,28.259,-14.055,4.1095,-39.121,45.998,-41.31,20.145
-17.424,-32.938,-48.028,20.816,-1.8029,-32.533,-69.801,43.514,-31.246,28.259,-14.055,4.1095,-39.121,45.998,-41.31,20.145
-17.424,-32.938,-48.028,20.816,-1.8029,-32.533,-69.801,43.514,-31.246,28.259,-14.055,4.1095,-39.121,45.998,-41.31,20.145
-17.273,-32.967,-47.944,20.729,-1.5832,-32.678,-69.615,43.262,-31.356,28.477,-13.838,4.1049,-38.944,45.919,-41.228,20.061
-17.273,-32.967,-47.944,20.729,-1.5832,-32.678,-69.615,43.262,-31.356,28.477,-13.838,4.1049,-38.944,45.919,-41.228,20.061
-17.273,-32.967,-47.944,20.729,-1.5832,-32.678,-69.615,43.262,-31.356,28.477,-13.838,4.1049,-38.944,45.919,-41.228,20.061
-16.971,-33.021,-47.778,20.557,-1.1403,-32.963,-69.239,42.759,-31.578,28.912,-13.408,4.0963,-38.592,45.759,-41.067,19.896
-16.971,-33.021,-47.778,20.557,-1.1403,-32.963,-69.239,42.759,-31.578,28.912,-13.408,4.0963,-38.592,45.759,-41.067,19.896
-16.819,-33.046,-47.695,20.471,-0.91711,-33.104,-69.051,42.508,-31.69,29.129,-13.195,4.0923,-38.416,45.679,-40.988,19.815
-16.819,-33.046,-47.695,20.471,-0.91711,-33.104,-69.051,42.508,-31.69,29.129,-13.195,4.0923,-38.416,45.679,-40.988,19.815
-16.667,-33.07,-47.613,20.385,-0.69279,-33.243,-68.862,42.258,-31.803,29.345,-12.984,4.0883,-38.241,45.6,-40.91,19.734
-16.667,-33.07,-47.613,20.385,-0.69279,-33.243,-68.862,42.258,-31.803,29.345,-12.984,4.0883,-38.241,45.6,-40.91,19.734
-16.513,-33.093,-47.53,20.3,-0.46732,-33.38,-68.672,42.009,-31.917,29.561,-12.774,4.0845,-38.067,45.52,-40.832,19.655
-16.513,-33.093,-47.53,20.3,-0.46732,-33.38,-68.672,42.009,-31.917,29.561,-12.774,4.0845,-38.067,45.52,-40.832,19.655
-16.359,-33.114,-47.448,20.215,-0.24071,-33.516,-68.481,41.76,-32.031,29.777,-12.565,4.0807,-37.893,45.44,-40.756,19.576
-16.359,-33.114,-47.448,20.215,-0.24071,-33.516,-68.481,41.76,-32.031,29.777,-12.565,4.0807,-37.893,45.44,-40.756,19.576
-16.359,-33.114,-47.448,20.215,-0.24071,-33.516,-68.481,41.76,-32.031,29.777,-12.565,4.0807,-37.893,45.44,-40.756,19.576
-16.205,-33.134,-47.366,20.13,-0.012956,-33.651,-68.29,41.511,-32.146,29.992,-12.358,4.077,-37.72,45.36,-40.68,19.498
-16.205,-33.134,-47.366,20.13,-0.012956,-33.651,-68.29,41.511,-32.146,29.992,-12.358,4.077,-37.72,45.36,-40.68,19.498
-16.205,-33.134,-47.366,20.13,-0.012956,-33.651,-68.29,41.511,-32.146,29.992,-12.358,4.077,-37.72,45.36,-40.68,19.498
-16.205,-33.134,-47.366,20.13,-0.012956,-33.651,-68.29,41.511,-32.146,29.992,-12.358,4.077,-37.72,45.36,-40.68,19.498
-15.894,-33.17,-47.202,19.961,0.44596,-33.915,-67.906,41.016,-32.378,30.42,-11.948,4.0696,-37.375,45.199,-40.532,19.345
-15.894,-33.17,-47.202,19.961,0.44596,-33.915,-67.906,41.016,-32.378,30.42,-11.948,4.0696,-37.375,45.199,-40.532,19.345
-15.738,-33.186,-47.12,19.877,0.67711,-34.045,-67.712,40.77,-32.495,30.633,-11.745,4.0658,-37.203,45.119,-40.459,19.269
-15.581,-33.201,-47.038,19.793,0.9094,-34.173,-67.519,40.524,-32.612,30.846,-11.543,4.0621,-37.032,45.038,-40.387,19.194
-15.424,-33.214,-46.957,19.709,1.1428,-34.299,-67.324,40.278,-32.73,31.058,-11.343,4.0583,-36.862,44.957,-40.316,19.12
-15.424,-33.214,-46.957,19.709,1.1428,-34.299,-67.324,40.278,-32.73,31.058,-11.343,4.0583,-36.862,44.957,-40.316,19.12
-15.266,-33.226,-46.875,19.626,1.3773,-34.424,-67.129,40.034,-32.849,31.27,-11.144,4.0543,-36.692,44.876,-40.246,19.047
-15.266,-33.226,-46.875,19.626,1.3773,-34.424,-67.129,40.034,-32.849,31.27,-11.144,4.0543,-36.692,44.876,-40.246,19.047
