1.0614,-1.0539,0.9149,-0.576,-0.0046,-0.957,0.5061,-1.3512,0.1805,-0.0638,0.7147,-1.1801,-2.3596,-1.158,-0.6899,-0.8087
1.0614,-1.0539,0.9149,-0.576,-0.0046,-0.957,0.5061,-1.3512,0.1805,-0.0638,0.7147,-1.1801,-2.3596,-1.158,-0.6899,-0.8087
1.0273,-1.0518,0.9149,-0.576,-0.0251,-0.9624,0.4969,-1.3536,0.2314,-0.0384,0.7049,-1.1871,-2.3596,-1.158,-0.7089,-0.8125
1.0273,-1.0518,0.9149,-0.576,-0.0251,-0.9624,0.4969,-1.3536,0.2314,-0.0384,0.7049,-1.1871,-2.3596,-1.158,-0.7089,-0.8125
1.0273,-1.0518,0.9149,-0.576,-0.0251,-0.9624,0.4969,-1.3536,0.2314,-0.0384,0.7049,-1.1871,-2.3596,-1.158,-0.7089,-0.8125
1.0105,-1.0558,0.8943,-0.5965,-0.0456,-0.9678,0.4876,-1.3561,0.0901,-0.0318,0.6819,-1.1966,-2.3702,-1.1604,-0.7342,-0.8177
0.9937,-1.0598,0.8943,-0.5965,-0.0579,-0.9711,0.4836,-1.366,0.1406,-0.0063,0.6689,-1.199,-2.3702,-1.1604,-0.7469,-0.8202
0.9937,-1.0598,0.8943,-0.5965,-0.0579,-0.9711,0.4836,-1.366,0.1406,-0.0063,0.6689,-1.199,-2.3702,-1.1604,-0.7469,-0.8202
0.9825,-1.0625,0.8482,-0.5803,-0.0743,-0.9754,0.4744,-1.3684,0.1406,-0.0063,0.6461,-1.198,-2.3727,-1.1656,-0.7658,-0.8241
0.9825,-1.0625,0.8482,-0.5803,-0.0743,-0.9754,0.4744,-1.3684,0.1406,-0.0063,0.6461,-1.198,-2.3727,-1.1656,-0.7658,-0.8241
0.9602,-1.0678,0.8531,-0.6373,-0.0988,-0.9819,0.4507,-1.3657,0.0901,-0.0318,0.6265,-1.2016,-2.3809,-1.1627,-0.7847,-0.8279
0.9602,-1.0678,0.8531,-0.6373,-0.0988,-0.9819,0.4507,-1.3657,0.0901,-0.0318,0.6265,-1.2016,-2.3809,-1.1627,-0.7847,-0.8279
0.9349,-1.0688,0.8531,-0.6373,-0.1233,-0.9883,0.4271,-1.363,0.0901,-0.0318,0.607,-1.2052,-2.3833,-1.168,-0.8099,-0.8331
0.9349,-1.0688,0.8531,-0.6373,-0.1233,-0.9883,0.4271,-1.363,0.0901,-0.0318,0.607,-1.2052,-2.3833,-1.168,-0.8099,-0.8331
0.9349,-1.0688,0.8531,-0.6373,-0.1233,-0.9883,0.4271,-1.363,0.0901,-0.0318,0.607,-1.2052,-2.3833,-1.168,-0.8099,-0.8331
0.8793,-1.0821,0.8326,-0.6577,-0.1842,-1.0045,0.376,-1.3675,0.0901,-0.0318,0.539,-1.2126,-2.4156,-1.1659,-0.8664,-0.8446
0.8793,-1.0821,0.8326,-0.6577,-0.1842,-1.0045,0.376,-1.3675,0.0901,-0.0318,0.539,-1.2126,-2.4156,-1.1659,-0.8664,-0.8446
0.8793,-1.0821,0.8326,-0.6577,-0.1842,-1.0045,0.376,-1.3675,0.0901,-0.0318,0.539,-1.2126,-2.4156,-1.1659,-0.8664,-0.8446
0.8547,-1.0931,0.7869,-0.6415,-0.2207,-1.0142,0.3577,-1.3723,0,-0,0.5002,-1.2198,-2.4262,-1.1683,-0.9072,-0.8477
0.8547,-1.0931,0.7869,-0.6415,-0.2207,-1.0142,0.3577,-1.3723,0,-0,0.5002,-1.2198,-2.4262,-1.1683,-0.9072,-0.8477
0.8185,-1.0968,0.7869,-0.6415,-0.2553,-1.0195,0.3342,-1.3697,-0.0104,-0.0827,0.4455,-1.2248,-2.4474,-1.1731,-0.9508,-0.8567
0.8185,-1.0968,0.7869,-0.6415,-0.2553,-1.0195,0.3342,-1.3697,-0.0104,-0.0827,0.4455,-1.2248,-2.4474,-1.1731,-0.9508,-0.8567
0.8185,-1.0968,0.7869,-0.6415,-0.2553,-1.0195,0.3342,-1.3697,-0.0104,-0.0827,0.4455,-1.2248,-2.4474,-1.1731,-0.9508,-0.8567
0.7884,-1.1091,0.7412,-0.6254,-0.2979,-1.0269,0.3068,-1.3769,-0.0998,-0.0511,0.4102,-1.2366,-2.4632,-1.1767,-0.9944,-0.8657
0.7884,-1.1091,0.7412,-0.6254,-0.2979,-1.0269,0.3068,-1.3769,-0.0998,-0.0511,0.4102,-1.2366,-2.4632,-1.1767,-0.9944,-0.8657
0.7499,-1.1184,0.7209,-0.6457,-0.3404,-1.0344,0.2795,-1.3841,-0.0998,-0.0511,0.3654,-1.2451,-2.4791,-1.1803,-1.0284,-0.878
0.7499,-1.1184,0.7209,-0.6457,-0.3404,-1.0344,0.2795,-1.3841,-0.0998,-0.0511,0.3654,-1.2451,-2.4791,-1.1803,-1.0284,-0.878
0.7061,-1.1291,0.6754,-0.6296,-0.3804,-1.0451,0.2522,-1.3913,-0.1889,-0.0197,0.3208,-1.2535,-2.4949,-1.1839,-1.0717,-0.887
0.7061,-1.1291,0.6754,-0.6296,-0.3804,-1.0451,0.2522,-1.3913,-0.1889,-0.0197,0.3208,-1.2535,-2.4949,-1.1839,-1.0717,-0.887
0.6539,-1.1367,0.6098,-0.6339,-0.4306,-1.0547,0.2107,-1.3935,-0.1494,-0.0765,0.2667,-1.2586,-2.5107,-1.1875,-1.1148,-0.8959
0.6539,-1.1367,0.6098,-0.6339,-0.4306,-1.0547,0.2107,-1.3935,-0.1494,-0.0765,0.2667,-1.2586,-2.5107,-1.1875,-1.1148,-0.8959
0.6539,-1.1367,0.6098,-0.6339,-0.4306,-1.0547,0.2107,-1.3935,-0.1494,-0.0765,0.2667,-1.2586,-2.5107,-1.1875,-1.1148,-0.8959
0.5586,-1.155,0.5446,-0.6383,-0.5162,-1.074,0.1475,-1.4103,-0.1988,-0.1019,0.1656,-1.2779,-2.5476,-1.1959,-1.1946,-0.9126
0.5586,-1.155,0.5446,-0.6383,-0.5162,-1.074,0.1475,-1.4103,-0.1988,-0.1019,0.1656,-1.2779,-2.5476,-1.1959,-1.1946,-0.9126
0.5315,-1.1617,0.5246,-0.6585,-0.5422,-1.0771,0.1153,-1.4102,-0.0603,-0.108,0.1404,-1.2827,-2.5528,-1.1971,-1.2098,-0.921
0.5315,-1.1617,0.5246,-0.6585,-0.5422,-1.0771,0.1153,-1.4102,-0.0603,-0.108,0.1404,-1.2827,-2.5528,-1.1971,-1.2098,-0.921
0.5394,-1.1547,0.4995,-0.6223,-0.5242,-1.0761,0.1243,-1.4077,-0.0603,-0.108,0.1562,-1.2849,-2.5395,-1.1987,-1.2068,-0.9152
0.6069,-1.1331,0.5446,-0.6383,-0.4539,-1.0688,0.1604,-1.3981,-0.1101,-0.1332,0.2256,-1.2716,-2.5237,-1.1951,-1.161,-0.9003
0.6069,-1.1331,0.5446,-0.6383,-0.4539,-1.0688,0.1604,-1.3981,-0.1101,-0.1332,0.2256,-1.2716,-2.5237,-1.1951,-1.161,-0.9003
0.6069,-1.1331,0.5446,-0.6383,-0.4539,-1.0688,0.1604,-1.3981,-0.1101,-0.1332,0.2256,-1.2716,-2.5237,-1.1951,-1.161,-0.9003
0.7245,-1.1094,0.6047,-0.5771,-0.3535,-1.0496,0.2328,-1.3789,-0.0603,-0.108,0.3463,-1.2487,-2.4868,-1.1868,-1.0625,-0.8798
0.7245,-1.1094,0.6047,-0.5771,-0.3535,-1.0496,0.2328,-1.3789,-0.0603,-0.108,0.3463,-1.2487,-2.4868,-1.1868,-1.0625,-0.8798
0.8481,-1.0744,0.6905,-0.5522,-0.2277,-1.0317,0.3394,-1.3771,-0.0104,-0.0827,0.4809,-1.2234,-2.4389,-1.1853,-0.954,-0.8521
0.8481,-1.0744,0.6905,-0.5522,-0.2277,-1.0317,0.3394,-1.3771,-0.0104,-0.0827,0.4809,-1.2234,-2.4389,-1.1853,-0.954,-0.8521
0.9536,-1.0489,0.8023,-0.564,-0.1234,-1.0159,0.4127,-1.3579,0.0397,-0.0573,0.607,-1.2052,-2.4177,-1.1805,-0.8541,-0.8315
0.9536,-1.0489,0.8023,-0.564,-0.1234,-1.0159,0.4127,-1.3579,0.0397,-0.0573,0.607,-1.2052,-2.4177,-1.1805,-0.8541,-0.8315
1.0405,-1.0332,0.9149,-0.576,-0.0388,-1.0056,0.4732,-1.3509,0.1406,-0.0063,0.7049,-1.1871,-2.3883,-1.1786,-0.7627,-0.8181
1.0405,-1.0332,0.9149,-0.576,-0.0388,-1.0056,0.4732,-1.3509,0.1406,-0.0063,0.7049,-1.1871,-2.3883,-1.1786,-0.7627,-0.8181
1.0968,-1.0198,0.9818,-0.5719,0.0192,-0.9983,0.5194,-1.3389,0.0901,-0.0318,0.7573,-1.1775,-2.3749,-1.1803,-0.7185,-0.8091
1.0968,-1.0198,0.9818,-0.5719,0.0192,-0.9983,0.5194,-1.3389,0.0901,-0.0318,0.7573,-1.1775,-2.3749,-1.1803,-0.7185,-0.8091
1.128,-1.0176,1.0074,-0.6087,0.0503,-0.9942,0.5577,-1.3467,0.0901,-0.0318,0.7738,-1.1693,-2.3696,-1.1791,-0.6868,-0.8027
1.128,-1.0176,1.0074,-0.6087,0.0503,-0.9942,0.5577,-1.3467,0.0901,-0.0318,0.7738,-1.1693,-2.3696,-1.1791,-0.6868,-0.8027
1.1393,-1.0149,1.0282,-0.5882,0.065,-0.9943,0.5618,-1.3368,0.0901,-0.0318,0.7804,-1.1681,-2.3614,-1.1819,-0.6804,-0.8014
1.1393,-1.0149,1.0282,-0.5882,0.065,-0.9943,0.5618,-1.3368,0.0901,-0.0318,0.7804,-1.1681,-2.3614,-1.1819,-0.6804,-0.8014
1.1424,-1.0193,1.0282,-0.5882,0.0586,-0.992,0.5763,-1.3419,0.0901,-0.0318,0.7672,-1.1705,-2.3614,-1.1819,-0.6772,-0.8061
1.1424,-1.0193,1.0282,-0.5882,0.0586,-0.992,0.5763,-1.3419,0.0901,-0.0318,0.7672,-1.1705,-2.3614,-1.1819,-0.6772,-0.8061
1.1254,-1.0233,1.0282,-0.5882,0.0485,-0.9986,0.5815,-1.3495,0.0901,-0.0318,0.7475,-1.1741,-2.3667,-1.1831,-0.7058,-0.8066
1.1254,-1.0233,1.0282,-0.5882,0.0485,-0.9986,0.5815,-1.3495,0.0901,-0.0318,0.7475,-1.1741,-2.3667,-1.1831,-0.7058,-0.8066
1.1116,-1.0317,0.9769,-0.5143,0.0256,-1.0006,0.567,-1.3443,0.1298,-0.0891,0.7245,-1.1835,-2.372,-1.1843,-0.7311,-0.8117
1.1116,-1.0317,0.9769,-0.5143,0.0256,-1.0006,0.567,-1.3443,0.1298,-0.0891,0.7245,-1.1835,-2.372,-1.1843,-0.7311,-0.8117
1.0804,-1.034,0.9562,-0.5349,0.0009,-1.007,0.5484,-1.3492,0.1298,-0.0891,0.6983,-1.1883,-2.3774,-1.1855,-0.7564,-0.8169
1.0804,-1.034,0.9562,-0.5349,0.0009,-1.007,0.5484,-1.3492,0.1298,-0.0891,0.6983,-1.1883,-2.3774,-1.1855,-0.7564,-0.8169
1.0804,-1.034,0.9562,-0.5349,0.0009,-1.007,0.5484,-1.3492,0.1298,-0.0891,0.6983,-1.1883,-2.3774,-1.1855,-0.7564,-0.8169
1.0609,-1.0438,0.9099,-0.5185,-0.0196,-1.0124,0.5391,-1.3515,0.1298,-0.0891,0.6656,-1.1944,-2.3936,-1.1798,-0.7817,-0.822
1.0609,-1.0438,0.9099,-0.5185,-0.0196,-1.0124,0.5391,-1.3515,0.1298,-0.0891,0.6656,-1.1944,-2.3936,-1.1798,-0.7817,-0.822
1.0609,-1.0438,0.9099,-0.5185,-0.0196,-1.0124,0.5391,-1.3515,0.1298,-0.0891,0.6656,-1.1944,-2.3936,-1.1798,-0.7817,-0.822
1.0217,-1.0531,0.8893,-0.5392,-0.0588,-1.0187,0.5113,-1.3588,0.0793,-0.1144,0.633,-1.2004,-2.3908,-1.1838,-0.8131,-0.8284
1.0135,-1.0602,0.8688,-0.5597,-0.0647,-1.0241,0.5113,-1.3588,0.0793,-0.1144,0.6135,-1.204,-2.3961,-1.185,-0.8225,-0.8356
1.0135,-1.0602,0.8688,-0.5597,-0.0647,-1.0241,0.5113,-1.3588,0.0793,-0.1144,0.6135,-1.204,-2.3961,-1.185,-0.8225,-0.8356
1.0135,-1.0602,0.8688,-0.5597,-0.0647,-1.0241,0.5113,-1.3588,0.0793,-0.1144,0.6135,-1.204,-2.3961,-1.185,-0.8225,-0.8356
0.9937,-1.0598,0.8688,-0.5597,-0.0833,-1.0251,0.5021,-1.3612,0.0291,-0.1396,0.594,-1.2076,-2.3961,-1.185,-0.8413,-0.8395
0.9937,-1.0598,0.8688,-0.5597,-0.0833,-1.0251,0.5021,-1.3612,0.0291,-0.1396,0.594,-1.2076,-2.3961,-1.185,-0.8413,-0.8395
0.9769,-1.0638,0.8688,-0.5597,-0.0996,-1.0294,0.4928,-1.3636,0.0793,-0.1144,0.5843,-1.2146,-2.4014,-1.1862,-0.8602,-0.8433
0.9769,-1.0638,0.8688,-0.5597,-0.0996,-1.0294,0.4928,-1.3636,0.0793,-0.1144,0.5843,-1.2146,-2.4014,-1.1862,-0.8602,-0.8433
0.9516,-1.0648,0.8688,-0.5597,-0.1136,-1.037,0.4692,-1.3609,0.0291,-0.1396,0.5551,-1.2148,-2.4039,-1.1915,-0.8852,-0.8485
0.9516,-1.0648,0.8688,-0.5597,-0.1136,-1.037,0.4692,-1.3609,0.0291,-0.1396,0.5551,-1.2148,-2.4039,-1.1915,-0.8852,-0.8485
0.9293,-1.0701,0.8482,-0.5803,-0.1381,-1.0434,0.4415,-1.3681,-0.0104,-0.0827,0.5228,-1.2208,-2.4092,-1.1927,-0.907,-0.8582
0.9293,-1.0701,0.8482,-0.5803,-0.1381,-1.0434,0.4415,-1.3681,-0.0104,-0.0827,0.5228,-1.2208,-2.4092,-1.1927,-0.907,-0.8582
0.896,-1.0781,0.7819,-0.5845,-0.1688,-1.0475,0.4087,-1.3678,-0.0998,-0.0511,0.4809,-1.2234,-2.4251,-1.1963,-0.9382,-0.8646
0.896,-1.0781,0.7819,-0.5845,-0.1688,-1.0475,0.4087,-1.3678,-0.0998,-0.0511,0.4809,-1.2234,-2.4251,-1.1963,-0.9382,-0.8646
0.8652,-1.0804,0.7819,-0.5845,-0.1995,-1.0517,0.3995,-1.3702,-0.0998,-0.0511,0.4391,-1.226,-2.4386,-1.1946,-0.9788,-0.8677
0.8652,-1.0804,0.7819,-0.5845,-0.1995,-1.0517,0.3995,-1.3702,-0.0998,-0.0511,0.4391,-1.226,-2.4386,-1.1946,-0.9788,-0.8677
0.8652,-1.0804,0.7819,-0.5845,-0.1995,-1.0517,0.3995,-1.3702,-0.0998,-0.0511,0.4391,-1.226,-2.4386,-1.1946,-0.9788,-0.8677
0.8265,-1.0898,0.8073,-0.6211,-0.2341,-1.0569,0.372,-1.3774,-0.0104,-0.0827,0.407,-1.232,-2.441,-1.1999,-1.0004,-0.8774
0.8265,-1.0898,0.8073,-0.6211,-0.2341,-1.0569,0.372,-1.3774,-0.0104,-0.0827,0.407,-1.232,-2.441,-1.1999,-1.0004,-0.8774
0.7964,-1.1021,0.7158,-0.5888,-0.2767,-1.0643,0.3445,-1.3846,-0.0998,-0.0511,0.3622,-1.2405,-2.4569,-1.2034,-1.0469,-0.8818
0.7494,-1.1084,0.6956,-0.6092,-0.3152,-1.0706,0.3171,-1.3918,-0.1494,-0.0765,0.3208,-1.2535,-2.478,-1.2082,-1.087,-0.8954
0.7494,-1.1084,0.6956,-0.6092,-0.3152,-1.0706,0.3171,-1.3918,-0.1494,-0.0765,0.3208,-1.2535,-2.478,-1.2082,-1.087,-0.8954
0.7111,-1.1178,0.6754,-0.6296,-0.3576,-1.078,0.2898,-1.399,-0.1988,-0.1019,0.2763,-1.262,-2.4939,-1.2118,-1.1208,-0.9077
0.7111,-1.1178,0.6754,-0.6296,-0.3576,-1.078,0.2898,-1.399,-0.1988,-0.1019,0.2763,-1.262,-2.4939,-1.2118,-1.1208,-0.9077
0.6673,-1.1284,0.6299,-0.6136,-0.3998,-1.0854,0.2482,-1.4012,-0.1596,-0.1584,0.2161,-1.2682,-2.5149,-1.2166,-1.1638,-0.9166
0.6673,-1.1284,0.6299,-0.6136,-0.3998,-1.0854,0.2482,-1.4012,-0.1596,-0.1584,0.2161,-1.2682,-2.5149,-1.2166,-1.1638,-0.9166
0.6673,-1.1284,0.6299,-0.6136,-0.3998,-1.0854,0.2482,-1.4012,-0.1596,-0.1584,0.2161,-1.2682,-2.5149,-1.2166,-1.1638,-0.9166
0.6237,-1.1391,0.5646,-0.6179,-0.4482,-1.0906,0.2068,-1.4033,-0.248,-0.1271,0.1719,-1.2767,-2.5388,-1.2173,-1.2127,-0.9269
0.6237,-1.1391,0.5646,-0.6179,-0.4482,-1.0906,0.2068,-1.4033,-0.248,-0.1271,0.1719,-1.2767,-2.5388,-1.2173,-1.2127,-0.9269
0.5719,-1.1467,0.5446,-0.6383,-0.4941,-1.0991,0.1797,-1.4105,-0.248,-0.1271,0.1216,-1.2864,-2.5545,-1.2209,-1.2462,-0.9391
0.531,-1.1518,0.5446,-0.6383,-0.5219,-1.1065,0.1526,-1.4177,-0.248,-0.1271,0.0746,-1.2903,-2.565,-1.2233,-1.2766,-0.9455
0.531,-1.1518,0.5446,-0.6383,-0.5219,-1.1065,0.1526,-1.4177,-0.248,-0.1271,0.0746,-1.2903,-2.565,-1.2233,-1.2766,-0.9455
0.5334,-1.1462,0.5697,-0.6745,-0.5139,-1.1044,0.1616,-1.4153,-0.3361,-0.096,0.0714,-1.296,-2.565,-1.2233,-1.2858,-0.9422
0.5334,-1.1462,0.5697,-0.6745,-0.5139,-1.1044,0.1616,-1.4153,-0.3361,-0.096,0.0714,-1.296,-2.565,-1.2233,-1.2858,-0.9422
0.5984,-1.1301,0.5897,-0.6542,-0.4561,-1.0927,0.1978,-1.4057,-0.248,-0.1271,0.1279,-1.2852,-2.544,-1.2185,-1.2464,-0.9287
0.5984,-1.1301,0.5897,-0.6542,-0.4561,-1.0927,0.1978,-1.4057,-0.248,-0.1271,0.1279,-1.2852,-2.544,-1.2185,-1.2464,-0.9287
0.7075,-1.1034,0.6754,-0.6296,-0.3536,-1.0769,0.2755,-1.394,-0.1494,-0.0765,0.2477,-1.2622,-2.4991,-1.213,-1.1453,-0.9128
0.7075,-1.1034,0.6754,-0.6296,-0.3536,-1.0769,0.2755,-1.394,-0.1494,-0.0765,0.2477,-1.2622,-2.4991,-1.213,-1.1453,-0.9128
0.7075,-1.1034,0.6754,-0.6296,-0.3536,-1.0769,0.2755,-1.394,-0.1494,-0.0765,0.2477,-1.2622,-2.4991,-1.213,-1.1453,-0.9128
0.8285,-1.074,0.7158,-0.5888,-0.2336,-1.0646,0.3537,-1.3822,-0.0603,-0.108,0.391,-1.2299,-2.4541,-1.2075,-1.0344,-0.8897
0.948,-1.0503,0.7819,-0.5845,-0.1381,-1.0434,0.4271,-1.363,-0.0104,-0.0827,0.5196,-1.2057,-2.4142,-1.2032,-0.9163,-0.8654
1.0375,-1.0288,0.8688,-0.5597,-0.0454,-1.0309,0.4969,-1.3536,0.0793,-0.1144,0.6169,-1.1876,-2.3848,-1.2013,-0.8349,-0.8488
1.0375,-1.0288,0.8688,-0.5597,-0.0454,-1.0309,0.4969,-1.3536,0.0793,-0.1144,0.6169,-1.1876,-2.3848,-1.2013,-0.8349,-0.8488
1.1224,-1.0189,0.9099,-0.5185,0.0272,-1.0238,0.5525,-1.3392,0.1694,-0.1462,0.6821,-1.1756,-2.3689,-1.1977,-0.7688,-0.8406
1.1224,-1.0189,0.9099,-0.5185,0.0272,-1.0238,0.5525,-1.3392,0.1694,-0.1462,0.6821,-1.1756,-2.3689,-1.1977,-0.7688,-0.8406
1.1445,-1.0034,0.9818,-0.5719,0.0689,-1.0209,0.5856,-1.3395,0.1298,-0.0891,0.7148,-1.1696,-2.3583,-1.1953,-0.7372,-0.8342
1.1445,-1.0034,0.9818,-0.5719,0.0689,-1.0209,0.5856,-1.3395,0.1298,-0.0891,0.7148,-1.1696,-2.3583,-1.1953,-0.7372,-0.8342
1.1445,-1.0034,0.9818,-0.5719,0.0689,-1.0209,0.5856,-1.3395,0.1298,-0.0891,0.7148,-1.1696,-2.3583,-1.1953,-0.7372,-0.8342
1.1645,-1.0037,1.0282,-0.5882,0.0854,-1.0167,0.6042,-1.3347,0.0397,-0.0573,0.7279,-1.1672,-2.3501,-1.1982,-0.7278,-0.827
1.1645,-1.0037,1.0282,-0.5882,0.0854,-1.0167,0.6042,-1.3347,0.0397,-0.0573,0.7279,-1.1672,-2.3501,-1.1982,-0.7278,-0.827
1.1645,-1.0037,1.0282,-0.5882,0.0919,-1.0189,0.6136,-1.3323,0.0793,-0.1144,0.7214,-1.1684,-2.342,-1.2011,-0.7245,-0.8316
1.1645,-1.0037,1.0282,-0.5882,0.0919,-1.0189,0.6136,-1.3323,0.0793,-0.1144,0.7214,-1.1684,-2.342,-1.2011,-0.7245,-0.8316
1.1563,-1.0108,1.0282,-0.5882,0.0772,-1.0188,0.6136,-1.3323,0.0397,-0.0573,0.7082,-1.1708,-2.3501,-1.1982,-0.7404,-0.8295
1.1563,-1.0108,1.0282,-0.5882,0.0772,-1.0188,0.6136,-1.3323,0.0397,-0.0573,0.7082,-1.1708,-2.3501,-1.1982,-0.7404,-0.8295
1.1337,-1.0162,1.0282,-0.5882,0.0565,-1.0241,0.6042,-1.3347,0.0793,-0.1144,0.6821,-1.1756,-2.3529,-1.1942,-0.7561,-0.838
1.1337,-1.0162,1.0282,-0.5882,0.0565,-1.0241,0.6042,-1.3347,0.0793,-0.1144,0.6821,-1.1756,-2.3529,-1.1942,-0.7561,-0.838
1.1055,-1.0229,0.9818,-0.5719,0.0272,-1.0238,0.5949,-1.3371,0.0397,-0.0573,0.6592,-1.1851,-2.3501,-1.1982,-0.7814,-0.8431
1.1055,-1.0229,0.9818,-0.5719,0.0272,-1.0238,0.5949,-1.3371,0.0397,-0.0573,0.6592,-1.1851,-2.3501,-1.1982,-0.7814,-0.8431
1.0886,-1.0269,1.0026,-0.5513,0.0084,-1.0248,0.5949,-1.3371,0.0793,-0.1144,0.6331,-1.1899,-2.3611,-1.1913,-0.8003,-0.847
1.0886,-1.0269,1.0026,-0.5513,0.0084,-1.0248,0.5949,-1.3371,0.0793,-0.1144,0.6331,-1.1899,-2.3611,-1.1913,-0.8003,-0.847
1.0717,-1.0309,1.0026,-0.5513,-0.0103,-1.0257,0.5856,-1.3395,-0.0104,-0.0827,0.6136,-1.1935,-2.3529,-1.1942,-0.8191,-0.8508
1.0717,-1.0309,1.0026,-0.5513,-0.0103,-1.0257,0.5856,-1.3395,-0.0104,-0.0827,0.6136,-1.1935,-2.3529,-1.1942,-0.8191,-0.8508
1.0604,-1.0336,0.9562,-0.5349,-0.0185,-1.0278,0.5908,-1.3471,0.0397,-0.0573,0.5974,-1.1913,-2.3476,-1.193,-0.8254,-0.8521
1.0604,-1.0336,0.9562,-0.5349,-0.0185,-1.0278,0.5908,-1.3471,0.0397,-0.0573,0.5974,-1.1913,-2.3476,-1.193,-0.8254,-0.8521
1.0436,-1.0376,0.9355,-0.5555,-0.0285,-1.0344,0.567,-1.3443,0.0397,-0.0573,0.5844,-1.1937,-2.3558,-1.1901,-0.838,-0.8547
1.0436,-1.0376,0.9355,-0.5555,-0.0285,-1.0344,0.567,-1.3443,0.0397,-0.0573,0.5844,-1.1937,-2.3558,-1.1901,-0.838,-0.8547
1.0324,-1.0403,0.9611,-0.5924,-0.0431,-1.0342,0.5722,-1.3519,0.0397,-0.0573,0.5714,-1.1961,-2.3558,-1.1901,-0.8505,-0.8572
1.0324,-1.0403,0.9611,-0.5924,-0.0431,-1.0342,0.5722,-1.3519,0.0397,-0.0573,0.5714,-1.1961,-2.3558,-1.1901,-0.8505,-0.8572
1.0324,-1.0403,0.9611,-0.5924,-0.0431,-1.0342,0.5722,-1.3519,0.0397,-0.0573,0.5714,-1.1961,-2.3558,-1.1901,-0.8505,-0.8572
1.0156,-1.0443,0.9611,-0.5924,-0.0531,-1.0408,0.5577,-1.3467,0.0397,-0.0573,0.552,-1.1997,-2.3558,-1.1901,-0.8661,-0.8657
0.9957,-1.0439,0.9818,-0.5719,-0.0631,-1.0473,0.5432,-1.3416,-0.0104,-0.0827,0.5164,-1.2011,-2.3664,-1.1925,-0.8974,-0.8721
0.9957,-1.0439,0.9818,-0.5719,-0.0631,-1.0473,0.5432,-1.3416,-0.0104,-0.0827,0.5164,-1.2011,-2.3664,-1.1925,-0.8974,-0.8721
0.9678,-1.0506,0.9355,-0.5555,-0.0899,-1.0504,0.5391,-1.3515,-0.0998,-0.0511,0.481,-1.2025,-2.3799,-1.1908,-0.9224,-0.8772
0.9288,-1.06,0.8943,-0.5965,-0.1225,-1.0589,0.4969,-1.3536,-0.0104,-0.0827,0.4552,-1.2074,-2.3905,-1.1932,-0.9535,-0.8836
0.9288,-1.06,0.8943,-0.5965,-0.1225,-1.0589,0.4969,-1.3536,-0.0104,-0.0827,0.4552,-1.2074,-2.3905,-1.1932,-0.9535,-0.8836
0.9288,-1.06,0.8943,-0.5965,-0.1225,-1.0589,0.4969,-1.3536,-0.0104,-0.0827,0.4552,-1.2074,-2.3905,-1.1932,-0.9535,-0.8836
0.9288,-1.06,0.8943,-0.5965,-0.1225,-1.0589,0.4969,-1.3536,-0.0104,-0.0827,0.4552,-1.2074,-2.3905,-1.1932,-0.9535,-0.8836
0.8955,-1.068,0.8482,-0.5803,-0.1533,-1.063,0.4784,-1.3585,-0.0603,-0.108,0.4167,-1.2146,-2.4011,-1.1956,-0.9908,-0.8912
0.8955,-1.068,0.8482,-0.5803,-0.1533,-1.063,0.4784,-1.3585,-0.0603,-0.108,0.4167,-1.2146,-2.4011,-1.1956,-0.9908,-0.8912
0.815,-1.0824,0.8073,-0.6211,-0.2267,-1.0745,0.4323,-1.3705,-0.1101,-0.1332,0.3335,-1.2304,-2.4276,-1.2015,-1.0619,-0.9112
0.815,-1.0824,0.8073,-0.6211,-0.2267,-1.0745,0.4323,-1.3705,-0.1101,-0.1332,0.3335,-1.2304,-2.4276,-1.2015,-1.0619,-0.9112
0.815,-1.0824,0.8073,-0.6211,-0.2267,-1.0745,0.4323,-1.3705,-0.1101,-0.1332,0.3335,-1.2304,-2.4276,-1.2015,-1.0619,-0.9112
0.7764,-1.0917,0.7412,-0.6254,-0.2653,-1.0808,0.3995,-1.3702,-0.1988,-0.1019,0.289,-1.2388,-2.4463,-1.2011,-1.1051,-0.9201
0.7764,-1.0917,0.7412,-0.6254,-0.2653,-1.0808,0.3995,-1.3702,-0.1988,-0.1019,0.289,-1.2388,-2.4463,-1.2011,-1.1051,-0.9201
0.7764,-1.0917,0.7412,-0.6254,-0.2653,-1.0808,0.3995,-1.3702,-0.1988,-0.1019,0.289,-1.2388,-2.4463,-1.2011,-1.1051,-0.9201
0.7764,-1.0917,0.7412,-0.6254,-0.2653,-1.0808,0.3995,-1.3702,-0.1988,-0.1019,0.289,-1.2388,-2.4463,-1.2011,-1.1051,-0.9201
0.6996,-1.1104,0.7209,-0.6457,-0.3422,-1.0934,0.3394,-1.3771,-0.2872,-0.0707,0.2003,-1.2558,-2.4808,-1.2042,-1.1849,-0.9367
0.6996,-1.1104,0.7209,-0.6457,-0.3422,-1.0934,0.3394,-1.3771,-0.2872,-0.0707,0.2003,-1.2558,-2.4808,-1.2042,-1.1849,-0.9367
0.6996,-1.1104,0.7209,-0.6457,-0.3422,-1.0934,0.3394,-1.3771,-0.2872,-0.0707,0.2003,-1.2558,-2.4808,-1.2042,-1.1849,-0.9367
0.642,-1.1195,0.6098,-0.6339,-0.3947,-1.0996,0.2937,-1.3892,-0.248,-0.1271,0.1498,-1.2655,-2.4967,-1.2078,-1.2369,-0.9424
0.5984,-1.1301,0.5897,-0.6542,-0.4368,-1.107,0.2664,-1.3964,-0.248,-0.1271,0.1059,-1.274,-2.5125,-1.2113,-1.2795,-0.9513
0.5984,-1.1301,0.5897,-0.6542,-0.4368,-1.107,0.2664,-1.3964,-0.248,-0.1271,0.1059,-1.274,-2.5125,-1.2113,-1.2795,-0.9513
0.5551,-1.1408,0.5446,-0.6383,-0.4749,-1.1133,0.2392,-1.4036,-0.3361,-0.096,0.0495,-1.2746,-2.5255,-1.219,-1.3252,-0.9557
0.5551,-1.1408,0.5446,-0.6383,-0.4749,-1.1133,0.2392,-1.4036,-0.3361,-0.096,0.0495,-1.2746,-2.5255,-1.219,-1.3252,-0.9557
0.5196,-1.1445,0.5047,-0.6788,-0.5009,-1.1164,0.2068,-1.4033,-0.3361,-0.096,0.0183,-1.2807,-2.5307,-1.2202,-1.3494,-0.9608
0.5196,-1.1445,0.5047,-0.6788,-0.5009,-1.1164,0.2068,-1.4033,-0.3361,-0.096,0.0183,-1.2807,-2.5307,-1.2202,-1.3494,-0.9608
0.5437,-1.1336,0.5246,-0.6585,-0.4834,-1.1078,0.2249,-1.3985,-0.248,-0.1271,0.0401,-1.2816,-2.523,-1.2137,-1.3404,-0.9537
0.5437,-1.1336,0.5246,-0.6585,-0.4834,-1.1078,0.2249,-1.3985,-0.248,-0.1271,0.0401,-1.2816,-2.523,-1.2137,-1.3404,-0.9537
0.5437,-1.1336,0.5246,-0.6585,-0.4834,-1.1078,0.2249,-1.3985,-0.248,-0.1271,0.0401,-1.2816,-2.523,-1.2137,-1.3404,-0.9537
0.6112,-1.1119,0.5697,-0.6745,-0.4152,-1.0973,0.2613,-1.3889,-0.1988,-0.1019,0.1278,-1.2646,-2.4861,-1.2054,-1.2737,-0.9397
0.7314,-1.0824,0.6299,-0.6136,-0.3106,-1.0772,0.3485,-1.3747,-0.021,-0.1647,0.2509,-1.2357,-2.441,-1.1999,-1.1699,-0.9179
0.7314,-1.0824,0.6299,-0.6136,-0.3106,-1.0772,0.3485,-1.3747,-0.021,-0.1647,0.2509,-1.2357,-2.441,-1.1999,-1.1699,-0.9179
0.8637,-1.0502,0.7158,-0.5888,-0.1845,-1.0595,0.4271,-1.363,0.0291,-0.1396,0.3879,-1.2044,-2.3958,-1.1944,-1.0529,-0.8936
0.8637,-1.0502,0.7158,-0.5888,-0.1845,-1.0595,0.4271,-1.363,0.0291,-0.1396,0.3879,-1.2044,-2.3958,-1.1944,-1.0529,-0.8936
0.9638,-1.026,0.8073,-0.6211,-0.084,-1.0449,0.5206,-1.3564,0.0291,-0.1396,0.5036,-1.1826,-2.3583,-1.1953,-0.9537,-0.8731
0.9638,-1.026,0.8073,-0.6211,-0.084,-1.0449,0.5206,-1.3564,0.0291,-0.1396,0.5036,-1.1826,-2.3583,-1.1953,-0.9537,-0.8731
1.0477,-1.0058,0.8482,-0.5803,0.0007,-1.0347,0.5763,-1.3419,0.0793,-0.1144,0.604,-1.1691,-2.3369,-1.1906,-0.8788,-0.8577
1.0477,-1.0058,0.8482,-0.5803,0.0007,-1.0347,0.5763,-1.3419,0.0793,-0.1144,0.604,-1.1691,-2.3369,-1.1906,-0.8788,-0.8577
1.0477,-1.0058,0.8482,-0.5803,0.0007,-1.0347,0.5763,-1.3419,0.0793,-0.1144,0.604,-1.1691,-2.3369,-1.1906,-0.8788,-0.8577
1.1127,-0.9955,0.9355,-0.5555,0.0565,-1.0241,0.6322,-1.3275,0.1694,-0.1462,0.6594,-1.1535,-2.3209,-1.187,-0.8286,-0.8475
1.1127,-0.9955,0.9355,-0.5555,0.0565,-1.0241,0.6322,-1.3275,0.1694,-0.1462,0.6594,-1.1535,-2.3209,-1.187,-0.8286,-0.8475
1.1497,-0.9918,0.9818,-0.5719,0.1048,-1.0235,0.6655,-1.3279,0.1188,-0.1713,0.692,-1.158,-2.3209,-1.187,-0.8035,-0.8423
1.1497,-0.9918,0.9818,-0.5719,0.1048,-1.0235,0.6655,-1.3279,0.1188,-0.1713,0.692,-1.158,-2.3209,-1.187,-0.8035,-0.8423
1.1497,-0.9918,0.9818,-0.5719,0.1048,-1.0235,0.6655,-1.3279,0.1188,-0.1713,0.692,-1.158,-2.3209,-1.187,-0.8035,-0.8423
1.144,-0.9931,1.0026,-0.5513,0.1048,-1.0235,0.6749,-1.3255,0.1188,-0.1713,0.6757,-1.1557,-2.3128,-1.1899,-0.8003,-0.847
1.144,-0.9931,1.0026,-0.5513,0.1048,-1.0235,0.6749,-1.3255,0.1188,-0.1713,0.6757,-1.1557,-2.3128,-1.1899,-0.8003,-0.847
1.144,-0.9931,1.0026,-0.5513,0.1048,-1.0235,0.6749,-1.3255,0.1188,-0.1713,0.6757,-1.1557,-2.3128,-1.1899,-0.8003,-0.847
1.1214,-0.9985,0.9818,-0.5719,0.0841,-1.0288,0.6655,-1.3279,0.1188,-0.1713,0.6496,-1.1606,-2.3209,-1.187,-0.8286,-0.8475
1.1214,-0.9985,0.9818,-0.5719,0.0841,-1.0288,0.6655,-1.3279,0.1188,-0.1713,0.6496,-1.1606,-2.3209,-1.187,-0.8286,-0.8475
1.1214,-0.9985,0.9818,-0.5719,0.0841,-1.0288,0.6655,-1.3279,0.1188,-0.1713,0.6496,-1.1606,-2.3209,-1.187,-0.8286,-0.8475
1.0595,-1.0133,0.9404,-0.6128,0.0259,-1.036,0.6427,-1.3426,0.0291,-0.1396,0.5813,-1.168,-2.3288,-1.1935,-0.8788,-0.8577
1.0595,-1.0133,0.9404,-0.6128,0.0259,-1.036,0.6427,-1.3426,0.0291,-0.1396,0.5813,-1.168,-2.3288,-1.1935,-0.8788,-0.8577
1.0426,-1.0174,0.9611,-0.5924,0.0112,-1.0358,0.6375,-1.3351,-0.0603,-0.108,0.5553,-1.1729,-2.3369,-1.1906,-0.8976,-0.8616
1.0344,-1.0244,0.9611,-0.5924,-0.0034,-1.0357,0.6229,-1.3299,-0.05,-0.0256,0.5392,-1.1707,-2.3316,-1.1894,-0.9101,-0.8641
1.0344,-1.0244,0.9611,-0.5924,-0.0034,-1.0357,0.6229,-1.3299,-0.05,-0.0256,0.5392,-1.1707,-2.3316,-1.1894,-0.9101,-0.8641
1.0232,-1.0271,0.9866,-0.6291,-0.0116,-1.0378,0.6083,-1.3248,-0.0998,-0.0511,0.5294,-1.1778,-2.3369,-1.1906,-0.9225,-0.8667
1.0232,-1.0271,0.9866,-0.6291,-0.0116,-1.0378,0.6083,-1.3248,-0.0998,-0.0511,0.5294,-1.1778,-2.3369,-1.1906,-0.9225,-0.8667
1.0232,-1.0271,0.9866,-0.6291,-0.0116,-1.0378,0.6083,-1.3248,-0.0998,-0.0511,0.5294,-1.1778,-2.3369,-1.1906,-0.9225,-0.8667
1.012,-1.0298,0.9404,-0.6128,-0.0134,-1.0422,0.6083,-1.3248,-0.0603,-0.108,0.5165,-1.1802,-2.3423,-1.1918,-0.935,-0.8692
1.012,-1.0298,0.9404,-0.6128,-0.0134,-1.0422,0.6083,-1.3248,-0.0603,-0.108,0.5165,-1.1802,-2.3423,-1.1918,-0.935,-0.8692
1.012,-1.0298,0.9611,-0.5924,-0.0175,-1.0433,0.6083,-1.3248,-0.0998,-0.0511,0.5004,-1.178,-2.3423,-1.1918,-0.9475,-0.8718
1.012,-1.0298,0.9611,-0.5924,-0.0175,-1.0433,0.6083,-1.3248,-0.0998,-0.0511,0.5004,-1.178,-2.3423,-1.1918,-0.9475,-0.8718
0.9866,-1.0308,0.8943,-0.5965,-0.0403,-1.0453,0.599,-1.3272,-0.1494,-0.0765,0.481,-1.1816,-2.3558,-1.1901,-0.9661,-0.8756
0.9668,-1.0304,0.9149,-0.576,-0.0567,-1.0496,0.5844,-1.322,-0.1494,-0.0765,0.4521,-1.1819,-2.3611,-1.1913,-0.9816,-0.8841
0.9668,-1.0304,0.9149,-0.576,-0.0567,-1.0496,0.5844,-1.322,-0.1494,-0.0765,0.4521,-1.1819,-2.3611,-1.1913,-0.9816,-0.8841
0.9668,-1.0304,0.9149,-0.576,-0.0567,-1.0496,0.5844,-1.322,-0.1494,-0.0765,0.4521,-1.1819,-2.3611,-1.1913,-0.9816,-0.8841
0.9445,-1.0358,0.8688,-0.5597,-0.0858,-1.0493,0.5658,-1.3269,-0.1494,-0.0765,0.4296,-1.1913,-2.3717,-1.1937,-1.0158,-0.8859
0.9445,-1.0358,0.8688,-0.5597,-0.0858,-1.0493,0.5658,-1.3269,-0.1494,-0.0765,0.4296,-1.1913,-2.3717,-1.1937,-1.0158,-0.8859
0.9445,-1.0358,0.8688,-0.5597,-0.0858,-1.0493,0.5658,-1.3269,-0.1494,-0.0765,0.4296,-1.1913,-2.3717,-1.1937,-1.0158,-0.8859
0.9167,-1.0425,0.8688,-0.5597,-0.1103,-1.0557,0.5473,-1.3317,-0.1101,-0.1332,0.3879,-1.194,-2.3823,-1.1961,-1.0436,-0.8969
0.8748,-1.0475,0.8278,-0.6007,-0.1515,-1.0586,0.5194,-1.3389,-0.0603,-0.108,0.3623,-1.1989,-2.3877,-1.1972,-1.0745,-0.9033
0.8748,-1.0475,0.8278,-0.6007,-0.1515,-1.0586,0.5194,-1.3389,-0.0603,-0.108,0.3623,-1.1989,-2.3877,-1.1972,-1.0745,-0.9033
0.836,-1.0569,0.8073,-0.6211,-0.1822,-1.0628,0.5009,-1.3437,-0.0603,-0.108,0.324,-1.2062,-2.4064,-1.1968,-1.1021,-0.9142
0.836,-1.0569,0.8073,-0.6211,-0.1822,-1.0628,0.5009,-1.3437,-0.0603,-0.108,0.324,-1.2062,-2.4064,-1.1968,-1.1021,-0.9142
0.8029,-1.065,0.7615,-0.605,-0.2146,-1.0713,0.4732,-1.3509,-0.1101,-0.1332,0.2858,-1.2135,-2.4142,-1.2032,-1.1515,-0.9141
0.8029,-1.065,0.7615,-0.605,-0.2146,-1.0713,0.4732,-1.3509,-0.1101,-0.1332,0.2858,-1.2135,-2.4142,-1.2032,-1.1515,-0.9141
0.8029,-1.065,0.7615,-0.605,-0.2146,-1.0713,0.4732,-1.3509,-0.1101,-0.1332,0.2858,-1.2135,-2.4142,-1.2032,-1.1515,-0.9141
0.7643,-1.0744,0.7412,-0.6254,-0.2555,-1.0743,0.4547,-1.3558,-0.1101,-0.1332,0.2477,-1.2208,-2.4301,-1.2068,-1.1883,-0.9217
0.7643,-1.0744,0.7412,-0.6254,-0.2555,-1.0743,0.4547,-1.3558,-0.1101,-0.1332,0.2477,-1.2208,-2.4301,-1.2068,-1.1883,-0.9217
0.7643,-1.0744,0.7412,-0.6254,-0.2555,-1.0743,0.4547,-1.3558,-0.1101,-0.1332,0.2477,-1.2208,-2.4301,-1.2068,-1.1883,-0.9217
0.7259,-1.0837,0.6501,-0.5932,-0.2877,-1.0828,0.4271,-1.363,-0.209,-0.1834,0.2034,-1.2293,-2.4513,-1.2116,-1.231,-0.9307
0.7259,-1.0837,0.6501,-0.5932,-0.2877,-1.0828,0.4271,-1.363,-0.209,-0.1834,0.2034,-1.2293,-2.4513,-1.2116,-1.231,-0.9307
0.6463,-1.0982,0.6754,-0.6296,-0.3668,-1.0921,0.3812,-1.375,-0.2971,-0.1523,0.1058,-1.243,-2.4963,-1.217,-1.3193,-0.9441
0.6463,-1.0982,0.6754,-0.6296,-0.3668,-1.0921,0.3812,-1.375,-0.2971,-0.1523,0.1058,-1.243,-2.4963,-1.217,-1.3193,-0.9441
0.6058,-1.1132,0.5897,-0.6542,-0.4067,-1.1028,0.3394,-1.3771,-0.3459,-0.1774,0.0493,-1.2437,-2.5121,-1.2206,-1.3617,-0.953
0.6058,-1.1132,0.5897,-0.6542,-0.4067,-1.1028,0.3394,-1.3771,-0.3459,-0.1774,0.0493,-1.2437,-2.5121,-1.2206,-1.3617,-0.953
0.6058,-1.1132,0.5897,-0.6542,-0.4067,-1.1028,0.3394,-1.3771,-0.3459,-0.1774,0.0493,-1.2437,-2.5121,-1.2206,-1.3617,-0.953
0.6058,-1.1132,0.5897,-0.6542,-0.4067,-1.1028,0.3394,-1.3771,-0.3459,-0.1774,0.0493,-1.2437,-2.5121,-1.2206,-1.3617,-0.953
0.5594,-1.1196,0.5697,-0.6745,-0.4408,-1.108,0.3028,-1.3868,-0.209,-0.1834,0.0057,-1.2523,-2.5227,-1.223,-1.3859,-0.9582
0.5594,-1.1196,0.5697,-0.6745,-0.4408,-1.108,0.3028,-1.3868,-0.209,-0.1834,0.0057,-1.2523,-2.5227,-1.223,-1.3859,-0.9582
0.5594,-1.1196,0.5697,-0.6745,-0.4408,-1.108,0.3028,-1.3868,-0.209,-0.1834,0.0057,-1.2523,-2.5227,-1.223,-1.3859,-0.9582
0.6052,-1.1032,0.5897,-0.6542,-0.3925,-1.1029,0.3302,-1.3795,-0.2582,-0.2084,0.0368,-1.2461,-2.5121,-1.2206,-1.3617,-0.953
0.7064,-1.0834,0.6552,-0.6499,-0.3101,-1.0849,0.3903,-1.3726,-0.209,-0.1834,0.1434,-1.2254,-2.4805,-1.2135,-1.2829,-0.9364
0.7064,-1.0834,0.6552,-0.6499,-0.3101,-1.0849,0.3903,-1.3726,-0.209,-0.1834,0.1434,-1.2254,-2.4805,-1.2135,-1.2829,-0.9364
0.8219,-1.0552,0.7209,-0.6457,-0.1961,-1.0704,0.4692,-1.3609,-0.0709,-0.1897,0.2858,-1.2031,-2.4245,-1.2149,-1.1701,-0.9075
0.8219,-1.0552,0.7209,-0.6457,-0.1961,-1.0704,0.4692,-1.3609,-0.0709,-0.1897,0.2858,-1.2031,-2.4245,-1.2149,-1.1701,-0.9075
0.9415,-1.0314,0.8073,-0.6211,-0.0899,-1.0504,0.5432,-1.3416,-0.021,-0.1647,0.4232,-1.1821,-2.3927,-1.2078,-1.0593,-0.8844
0.9415,-1.0314,0.8073,-0.6211,-0.0899,-1.0504,0.5432,-1.3416,-0.021,-0.1647,0.4232,-1.1821,-2.3927,-1.2078,-1.0593,-0.8844
0.9415,-1.0314,0.8073,-0.6211,-0.0899,-1.0504,0.5432,-1.3416,-0.021,-0.1647,0.4232,-1.1821,-2.3927,-1.2078,-1.0593,-0.8844
1.0595,-1.0133,0.9404,-0.6128,0.0007,-1.0347,0.6375,-1.3351,0.0684,-0.1963,0.5327,-1.1614,-2.3632,-1.2059,-0.9663,-0.8652
1.0595,-1.0133,0.9404,-0.6128,0.0007,-1.0347,0.6375,-1.3351,0.0684,-0.1963,0.5327,-1.1614,-2.3632,-1.2059,-0.9663,-0.8652
1.1066,-0.9866,0.9611,-0.5924,0.0648,-1.022,0.6696,-1.3179,0.0291,-0.1396,0.6106,-1.1468,-2.3445,-1.2064,-0.9072,-0.8477
1.1066,-0.9866,0.9611,-0.5924,0.0648,-1.022,0.6696,-1.3179,0.0291,-0.1396,0.6106,-1.1468,-2.3445,-1.2064,-0.9072,-0.8477
1.1066,-0.9866,0.9611,-0.5924,0.0648,-1.022,0.6696,-1.3179,0.0291,-0.1396,0.6106,-1.1468,-2.3445,-1.2064,-0.9072,-0.8477
1.1066,-0.9866,0.9611,-0.5924,0.0648,-1.022,0.6696,-1.3179,0.0291,-0.1396,0.6106,-1.1468,-2.3445,-1.2064,-0.9072,-0.8477
1.1605,-0.9789,1.0026,-0.5513,0.1185,-1.0081,0.7312,-1.311,-0.0104,-0.0827,0.6693,-1.1359,-2.3256,-1.2069,-0.8476,-0.8408
1.1605,-0.9789,1.0026,-0.5513,0.1185,-1.0081,0.7312,-1.311,-0.0104,-0.0827,0.6693,-1.1359,-2.3256,-1.2069,-0.8476,-0.8408
1.1605,-0.9789,1.0026,-0.5513,0.1185,-1.0081,0.7312,-1.311,-0.0104,-0.0827,0.6693,-1.1359,-2.3256,-1.2069,-0.8476,-0.8408
1.1379,-0.9843,1.0026,-0.5513,0.1061,-1.0113,0.7365,-1.3186,-0.021,-0.1647,0.6236,-1.1444,-2.3498,-1.2076,-0.8884,-0.8438
1.1379,-0.9843,1.0026,-0.5513,0.1061,-1.0113,0.7365,-1.3186,-0.021,-0.1647,0.6236,-1.1444,-2.3498,-1.2076,-0.8884,-0.8438
1.1127,-0.9955,1.0282,-0.5882,0.0854,-1.0167,0.7124,-1.3158,0.0291,-0.1396,0.5944,-1.1446,-2.347,-1.2116,-0.904,-0.8523
1.1127,-0.9955,1.0282,-0.5882,0.0854,-1.0167,0.7124,-1.3158,0.0291,-0.1396,0.5944,-1.1446,-2.347,-1.2116,-0.904,-0.8523
1.0789,-1.0035,1.0074,-0.6087,0.0607,-1.0231,0.7083,-1.3258,-0.021,-0.1647,0.5457,-1.1485,-2.3658,-1.2111,-0.9352,-0.8587
1.0789,-1.0035,1.0074,-0.6087,0.0607,-1.0231,0.7083,-1.3258,-0.021,-0.1647,0.5457,-1.1485,-2.3658,-1.2111,-0.9352,-0.8587
1.0564,-1.0089,0.9611,-0.5924,0.04,-1.0284,0.6842,-1.3231,0.0291,-0.1396,0.5263,-1.1521,-2.3658,-1.2111,-0.9539,-0.8626
1.0564,-1.0089,0.9611,-0.5924,0.04,-1.0284,0.6842,-1.3231,0.0291,-0.1396,0.5263,-1.1521,-2.3658,-1.2111,-0.9539,-0.8626
1.0426,-1.0174,0.9611,-0.5924,0.0277,-1.0316,0.6696,-1.3179,0.0291,-0.1396,0.5069,-1.1558,-2.3629,-1.2152,-0.9663,-0.8652
1.0426,-1.0174,0.9611,-0.5924,0.0277,-1.0316,0.6696,-1.3179,0.0291,-0.1396,0.5069,-1.1558,-2.3629,-1.2152,-0.9663,-0.8652
1.0426,-1.0174,0.9611,-0.5924,0.0277,-1.0316,0.6696,-1.3179,0.0291,-0.1396,0.5069,-1.1558,-2.3629,-1.2152,-0.9663,-0.8652
1.0314,-1.02,0.9149,-0.576,0.0195,-1.0337,0.6696,-1.3179,-0.0603,-0.108,0.4908,-1.1536,-2.3683,-1.2164,-0.9788,-0.8677
1.0314,-1.02,0.9149,-0.576,0.0195,-1.0337,0.6696,-1.3179,-0.0603,-0.108,0.4908,-1.1536,-2.3683,-1.2164,-0.9788,-0.8677
1.0171,-1.0183,0.9149,-0.576,0.0112,-1.0358,0.6696,-1.3179,0.0291,-0.1396,0.4875,-1.1594,-2.3683,-1.2164,-0.9944,-0.8657
1.0029,-1.0166,0.9149,-0.576,0.003,-1.038,0.6603,-1.3203,-0.021,-0.1647,0.4811,-1.1607,-2.3764,-1.2135,-0.9974,-0.8716
1.0029,-1.0166,0.9149,-0.576,0.003,-1.038,0.6603,-1.3203,-0.021,-0.1647,0.4811,-1.1607,-2.3764,-1.2135,-0.9974,-0.8716
0.9917,-1.0193,0.8688,-0.5597,-0.0116,-1.0378,0.6456,-1.3151,-0.0709,-0.1897,0.4618,-1.1643,-2.387,-1.2159,-1.0128,-0.88
0.9917,-1.0193,0.8688,-0.5597,-0.0116,-1.0378,0.6456,-1.3151,-0.0709,-0.1897,0.4618,-1.1643,-2.387,-1.2159,-1.0128,-0.88
0.9917,-1.0193,0.8688,-0.5597,-0.0116,-1.0378,0.6456,-1.3151,-0.0709,-0.1897,0.4618,-1.1643,-2.387,-1.2159,-1.0128,-0.88
0.978,-1.0277,0.8688,-0.5597,-0.028,-1.0421,0.6217,-1.3124,-0.0319,-0.246,0.4328,-1.1646,-2.3923,-1.2171,-1.0408,-0.8805
0.978,-1.0277,0.8688,-0.5597,-0.028,-1.0421,0.6217,-1.3124,-0.0319,-0.246,0.4328,-1.1646,-2.3923,-1.2171,-1.0408,-0.8805
0.978,-1.0277,0.8688,-0.5597,-0.028,-1.0421,0.6217,-1.3124,-0.0319,-0.246,0.4328,-1.1646,-2.3923,-1.2171,-1.0408,-0.8805
0.9161,-1.0324,0.8482,-0.5803,-0.0858,-1.0493,0.599,-1.3272,-0.0319,-0.246,0.3783,-1.1802,-2.4107,-1.2259,-1.087,-0.8954
0.9161,-1.0324,0.8482,-0.5803,-0.0858,-1.0493,0.599,-1.3272,-0.0319,-0.246,0.3783,-1.1802,-2.4107,-1.2259,-1.087,-0.8954
0.8828,-1.0405,0.8278,-0.6007,-0.1189,-1.0501,0.5658,-1.3269,-0.1701,-0.2395,0.3304,-1.1841,-2.4238,-1.2335,-1.1333,-0.8998
0.8828,-1.0405,0.8278,-0.6007,-0.1189,-1.0501,0.5658,-1.3269,-0.1701,-0.2395,0.3304,-1.1841,-2.4238,-1.2335,-1.1333,-0.8998
0.8496,-1.0485,0.8073,-0.6211,-0.1474,-1.0576,0.5525,-1.3392,-0.1701,-0.2395,0.2921,-1.1915,-2.4425,-1.233,-1.1671,-0.9016
0.8496,-1.0485,0.8073,-0.6211,-0.1474,-1.0576,0.5525,-1.3392,-0.1701,-0.2395,0.2921,-1.1915,-2.4425,-1.233,-1.1671,-0.9016
0.8109,-1.0579,0.7869,-0.6415,-0.1822,-1.0628,0.5194,-1.3389,-0.2582,-0.2084,0.2445,-1.1954,-2.4584,-1.2366,-1.2039,-0.9093
0.8109,-1.0579,0.7869,-0.6415,-0.1822,-1.0628,0.5194,-1.3389,-0.2582,-0.2084,0.2445,-1.1954,-2.4584,-1.2366,-1.2039,-0.9093
0.7723,-1.0673,0.7412,-0.6254,-0.2169,-1.068,0.4917,-1.3461,-0.2582,-0.2084,0.2002,-1.204,-2.4742,-1.2401,-1.2405,-0.917
0.7723,-1.0673,0.7412,-0.6254,-0.2169,-1.068,0.4917,-1.3461,-0.2582,-0.2084,0.2002,-1.204,-2.4742,-1.2401,-1.2405,-0.917
0.7253,-1.0737,0.7209,-0.6457,-0.2555,-1.0743,0.464,-1.3534,-0.3459,-0.1774,0.1528,-1.208,-2.49,-1.2437,-1.2739,-0.9293
0.7253,-1.0737,0.7209,-0.6457,-0.2555,-1.0743,0.464,-1.3534,-0.3459,-0.1774,0.1528,-1.208,-2.49,-1.2437,-1.2739,-0.9293
0.7253,-1.0737,0.7209,-0.6457,-0.2555,-1.0743,0.464,-1.3534,-0.3459,-0.1774,0.1528,-1.208,-2.49,-1.2437,-1.2739,-0.9293
0.6815,-1.0845,0.7006,-0.666,-0.3043,-1.0794,0.4363,-1.3606,-0.3459,-0.1774,0.1088,-1.2166,-2.5139,-1.2444,-1.3164,-0.9383
0.6815,-1.0845,0.7006,-0.666,-0.3043,-1.0794,0.4363,-1.3606,-0.3459,-0.1774,0.1088,-1.2166,-2.5139,-1.2444,-1.3164,-0.9383
0.6815,-1.0845,0.7006,-0.666,-0.3043,-1.0794,0.4363,-1.3606,-0.3459,-0.1774,0.1088,-1.2166,-2.5139,-1.2444,-1.3164,-0.9383
0.5943,-1.1059,0.5897,-0.6542,-0.3867,-1.0975,0.372,-1.3774,-0.3459,-0.1774,0.0274,-1.2325,-2.5507,-1.2527,-1.3859,-0.9582
0.5943,-1.1059,0.5897,-0.6542,-0.3867,-1.0975,0.372,-1.3774,-0.3459,-0.1774,0.0274,-1.2325,-2.5507,-1.2527,-1.3859,-0.9582
0.548,-1.1123,0.5446,-0.6383,-0.4187,-1.106,0.3394,-1.3771,-0.3559,-0.2581,-0.0193,-1.2469,-2.5689,-1.2615,-1.4312,-0.9626
0.548,-1.1123,0.5446,-0.6383,-0.4187,-1.106,0.3394,-1.3771,-0.3559,-0.2581,-0.0193,-1.2469,-2.5689,-1.2615,-1.4312,-0.9626
0.548,-1.1123,0.5446,-0.6383,-0.4187,-1.106,0.3394,-1.3771,-0.3559,-0.2581,-0.0193,-1.2469,-2.5689,-1.2615,-1.4312,-0.9626
0.5401,-1.1193,0.5246,-0.6585,-0.4329,-1.1059,0.3211,-1.3819,-0.4431,-0.2274,-0.0442,-1.2518,-2.5713,-1.2667,-1.4432,-0.9652
0.5781,-1.1099,0.5697,-0.6745,-0.3987,-1.1007,0.3394,-1.3771,-0.3071,-0.2333,-0.0069,-1.2444,-2.5476,-1.266,-1.4131,-0.9588
0.6761,-1.0858,0.635,-0.6702,-0.3181,-1.087,0.3852,-1.3651,-0.3071,-0.2333,0.0712,-1.2239,-2.5185,-1.2641,-1.3438,-0.9389
0.6761,-1.0858,0.635,-0.6702,-0.3181,-1.087,0.3852,-1.3651,-0.3071,-0.2333,0.0712,-1.2239,-2.5185,-1.2641,-1.3438,-0.9389
0.6761,-1.0858,0.635,-0.6702,-0.3181,-1.087,0.3852,-1.3651,-0.3071,-0.2333,0.0712,-1.2239,-2.5185,-1.2641,-1.3438,-0.9389
0.7938,-1.0519,0.7412,-0.6254,-0.1984,-1.0671,0.4732,-1.3509,-0.2582,-0.2084,0.1938,-1.1948,-2.4816,-1.2558,-1.2498,-0.9138
0.7938,-1.0519,0.7412,-0.6254,-0.1984,-1.0671,0.4732,-1.3509,-0.2582,-0.2084,0.1938,-1.1948,-2.4816,-1.2558,-1.2498,-0.9138
0.9131,-1.028,0.7615,-0.605,-0.0899,-1.0504,0.5525,-1.3392,-0.209,-0.1834,0.3367,-1.1725,-2.4447,-1.2475,-1.1335,-0.8894
0.9131,-1.028,0.7615,-0.605,-0.0899,-1.0504,0.5525,-1.3392,-0.209,-0.1834,0.3367,-1.1725,-2.4447,-1.2475,-1.1335,-0.8894
0.9131,-1.028,0.7615,-0.605,-0.0899,-1.0504,0.5525,-1.3392,-0.209,-0.1834,0.3367,-1.1725,-2.4447,-1.2475,-1.1335,-0.8894
0.9131,-1.028,0.7615,-0.605,-0.0899,-1.0504,0.5525,-1.3392,-0.209,-0.1834,0.3367,-1.1725,-2.4447,-1.2475,-1.1335,-0.8894
1.1066,-0.9866,0.9355,-0.5555,0.0924,-1.0267,0.7083,-1.3258,-0.0709,-0.1897,0.5587,-1.1355,-2.3942,-1.2409,-0.954,-0.8521
1.1066,-0.9866,0.9355,-0.5555,0.0924,-1.0267,0.7083,-1.3258,-0.0709,-0.1897,0.5587,-1.1355,-2.3942,-1.2409,-0.954,-0.8521
1.1066,-0.9866,0.9355,-0.5555,0.0924,-1.0267,0.7083,-1.3258,-0.0709,-0.1897,0.5587,-1.1355,-2.3942,-1.2409,-0.954,-0.8521
1.1574,-0.9745,1.0026,-0.5513,0.1462,-1.0129,0.75,-1.3062,-0.021,-0.1647,0.6107,-1.1257,-2.3808,-1.2426,-0.8979,-0.8405
1.1574,-0.9745,1.0026,-0.5513,0.1462,-1.0129,0.75,-1.3062,-0.021,-0.1647,0.6107,-1.1257,-2.3808,-1.2426,-0.8979,-0.8405
1.1574,-0.9745,1.0026,-0.5513,0.1462,-1.0129,0.75,-1.3062,-0.021,-0.1647,0.6107,-1.1257,-2.3808,-1.2426,-0.8979,-0.8405
1.1945,-0.9708,1.0234,-0.5307,0.186,-1.0066,0.7783,-1.299,-0.021,-0.1647,0.6433,-1.1196,-2.3755,-1.2414,-0.8666,-0.8341
1.1945,-0.9708,1.0234,-0.5307,0.186,-1.0066,0.7783,-1.299,-0.021,-0.1647,0.6433,-1.1196,-2.3755,-1.2414,-0.8666,-0.8341
1.1945,-0.9708,1.07,-0.5471,0.1837,-1.0033,0.8025,-1.3018,0.0182,-0.2212,0.6302,-1.1221,-2.3808,-1.2426,-0.8729,-0.8353
1.1945,-0.9708,1.07,-0.5471,0.1837,-1.0033,0.8025,-1.3018,0.0182,-0.2212,0.6302,-1.1221,-2.3808,-1.2426,-0.8729,-0.8353
1.1661,-0.9776,1.0026,-0.5513,0.1605,-1.0052,0.7836,-1.3066,0.0182,-0.2212,0.6139,-1.1304,-2.3833,-1.2478,-0.8916,-0.8392
1.1661,-0.9776,1.0026,-0.5513,0.1605,-1.0052,0.7836,-1.3066,0.0182,-0.2212,0.6139,-1.1304,-2.3833,-1.2478,-0.8916,-0.8392
1.1661,-0.9776,1.0026,-0.5513,0.1605,-1.0052,0.7836,-1.3066,0.0182,-0.2212,0.6139,-1.1304,-2.3833,-1.2478,-0.8916,-0.8392
1.1435,-0.983,0.9562,-0.5349,0.1333,-1.0083,0.7542,-1.2962,0.0182,-0.2212,0.5879,-1.1353,-2.3967,-1.2461,-0.9166,-0.8443
1.1435,-0.983,0.9562,-0.5349,0.1333,-1.0083,0.7542,-1.2962,0.0182,-0.2212,0.5879,-1.1353,-2.3967,-1.2461,-0.9166,-0.8443
1.1435,-0.983,0.9562,-0.5349,0.1333,-1.0083,0.7542,-1.2962,0.0182,-0.2212,0.5879,-1.1353,-2.3967,-1.2461,-0.9166,-0.8443
1.1014,-0.9981,1.0282,-0.5882,0.1002,-1.0168,0.7406,-1.3086,0.0182,-0.2212,0.5328,-1.1404,-2.402,-1.2473,-0.9414,-0.86
1.1014,-0.9981,1.0282,-0.5882,0.1002,-1.0168,0.7406,-1.3086,0.0182,-0.2212,0.5328,-1.1404,-2.402,-1.2473,-0.9414,-0.86
1.0845,-1.0022,1.0538,-0.6251,0.0877,-1.02,0.7259,-1.3034,0.0182,-0.2212,0.5134,-1.1441,-2.3992,-1.2514,-0.9633,-0.8593
1.0845,-1.0022,1.0538,-0.6251,0.0877,-1.02,0.7259,-1.3034,0.0182,-0.2212,0.5134,-1.1441,-2.3992,-1.2514,-0.9633,-0.8593
1.0676,-1.0062,1.0074,-0.6087,0.073,-1.0199,0.7312,-1.311,-0.0319,-0.246,0.494,-1.1477,-2.4045,-1.2526,-0.9788,-0.8677
1.0676,-1.0062,1.0074,-0.6087,0.073,-1.0199,0.7312,-1.311,-0.0319,-0.246,0.494,-1.1477,-2.4045,-1.2526,-0.9788,-0.8677
1.0533,-1.0045,1.0074,-0.6087,0.0671,-1.0253,0.7165,-1.3058,-0.0319,-0.246,0.4811,-1.1502,-2.4126,-1.2497,-0.9912,-0.8703
1.0421,-1.0072,0.9611,-0.5924,0.0612,-1.0308,0.7218,-1.3134,-0.0319,-0.246,0.4682,-1.1526,-2.4098,-1.2537,-1.0036,-0.8728
1.0421,-1.0072,0.9611,-0.5924,0.0612,-1.0308,0.7218,-1.3134,-0.0319,-0.246,0.4682,-1.1526,-2.4098,-1.2537,-1.0036,-0.8728
1.0421,-1.0072,0.9611,-0.5924,0.0612,-1.0308,0.7218,-1.3134,-0.0319,-0.246,0.4682,-1.1526,-2.4098,-1.2537,-1.0036,-0.8728
1.0339,-1.0143,0.9611,-0.5924,0.0424,-1.0317,0.7124,-1.3158,-0.1206,-0.2147,0.4585,-1.1597,-2.4151,-1.2549,-1.0222,-0.8767
1.0339,-1.0143,0.9611,-0.5924,0.0424,-1.0317,0.7124,-1.3158,-0.1206,-0.2147,0.4585,-1.1597,-2.4151,-1.2549,-1.0222,-0.8767
1.0339,-1.0143,0.9611,-0.5924,0.0424,-1.0317,0.7124,-1.3158,-0.1206,-0.2147,0.4585,-1.1597,-2.4151,-1.2549,-1.0222,-0.8767
1.0171,-1.0183,0.9355,-0.5555,0.0259,-1.036,0.7177,-1.3234,-0.0319,-0.246,0.436,-1.1587,-2.4232,-1.2521,-1.0408,-0.8805
0.9891,-1.025,0.9149,-0.576,-0.0052,-1.0401,0.6842,-1.3231,-0.0319,-0.246,0.4135,-1.1682,-2.4338,-1.2544,-1.0748,-0.8824
0.9891,-1.025,0.9149,-0.576,-0.0052,-1.0401,0.6842,-1.3231,-0.0319,-0.246,0.4135,-1.1682,-2.4338,-1.2544,-1.0748,-0.8824
0.9891,-1.025,0.9149,-0.576,-0.0052,-1.0401,0.6842,-1.3231,-0.0319,-0.246,0.4135,-1.1682,-2.4338,-1.2544,-1.0748,-0.8824
0.9556,-1.0331,0.8943,-0.5965,-0.0362,-1.0442,0.6509,-1.3227,-0.1701,-0.2395,0.3655,-1.1722,-2.4497,-1.258,-1.1118,-0.8901
0.9556,-1.0331,0.8943,-0.5965,-0.0362,-1.0442,0.6509,-1.3227,-0.1701,-0.2395,0.3655,-1.1722,-2.4497,-1.258,-1.1118,-0.8901
0.9136,-1.0381,0.8482,-0.5803,-0.0712,-1.0494,0.6176,-1.3224,-0.1701,-0.2395,0.324,-1.1749,-2.4655,-1.2615,-1.1394,-0.9011
0.9136,-1.0381,0.8482,-0.5803,-0.0712,-1.0494,0.6176,-1.3224,-0.1701,-0.2395,0.324,-1.1749,-2.4655,-1.2615,-1.1394,-0.9011
0.8803,-1.0462,0.8278,-0.6007,-0.1039,-1.0579,0.5897,-1.3296,-0.0817,-0.2708,0.2921,-1.181,-2.476,-1.2639,-1.1733,-0.9029
0.8415,-1.0556,0.8073,-0.6211,-0.1388,-1.0631,0.5763,-1.3419,-0.0817,-0.2708,0.2445,-1.185,-2.4919,-1.2674,-1.21,-0.9106
0.8415,-1.0556,0.8073,-0.6211,-0.1388,-1.0631,0.5763,-1.3419,-0.0817,-0.2708,0.2445,-1.185,-2.4919,-1.2674,-1.21,-0.9106
0.7943,-1.062,0.7615,-0.605,-0.1776,-1.0694,0.5339,-1.344,-0.2194,-0.2643,0.197,-1.1994,-2.5101,-1.2762,-1.2495,-0.9242
0.7943,-1.062,0.7615,-0.605,-0.1776,-1.0694,0.5339,-1.344,-0.2194,-0.2643,0.197,-1.1994,-2.5101,-1.2762,-1.2495,-0.9242
0.7503,-1.0727,0.7412,-0.6254,-0.214,-1.079,0.5061,-1.3512,-0.2685,-0.289,0.1434,-1.2046,-2.5231,-1.2837,-1.2921,-0.9331
0.7503,-1.0727,0.7412,-0.6254,-0.214,-1.079,0.5061,-1.3512,-0.2685,-0.289,0.1434,-1.2046,-2.5231,-1.2837,-1.2921,-0.9331
0.7119,-1.0821,0.7412,-0.6254,-0.259,-1.083,0.4784,-1.3585,-0.3559,-0.2581,0.0993,-1.2132,-2.5441,-1.2885,-1.3346,-0.9421
0.7119,-1.0821,0.7412,-0.6254,-0.259,-1.083,0.4784,-1.3585,-0.3559,-0.2581,0.0993,-1.2132,-2.5441,-1.2885,-1.3346,-0.9421
0.6597,-1.0898,0.6754,-0.6296,-0.3015,-1.0904,0.4415,-1.3681,-0.3559,-0.2581,0.0492,-1.2231,-2.5679,-1.2892,-1.3769,-0.9511
0.6597,-1.0898,0.6754,-0.6296,-0.3015,-1.0904,0.4415,-1.3681,-0.3559,-0.2581,0.0492,-1.2231,-2.5679,-1.2892,-1.3769,-0.9511
0.6597,-1.0898,0.6754,-0.6296,-0.3015,-1.0904,0.4415,-1.3681,-0.3559,-0.2581,0.0492,-1.2231,-2.5679,-1.2892,-1.3769,-0.9511
0.6191,-1.1049,0.6299,-0.6136,-0.3479,-1.0988,0.4139,-1.3753,-0.4046,-0.2829,0.0055,-1.2316,-2.5888,-1.2939,-1.4131,-0.9588
0.5919,-1.1116,0.6098,-0.6339,-0.3742,-1.1019,0.4007,-1.3875,-0.4046,-0.2829,-0.0318,-1.239,-2.5941,-1.2951,-1.4372,-0.9639
0.5998,-1.1046,0.5646,-0.6179,-0.3559,-1.1009,0.4007,-1.3875,-0.3559,-0.2581,-0.0162,-1.2411,-2.5836,-1.2927,-1.4374,-0.9536
0.5998,-1.1046,0.5646,-0.6179,-0.3559,-1.1009,0.4007,-1.3875,-0.3559,-0.2581,-0.0162,-1.2411,-2.5836,-1.2927,-1.4374,-0.9536
0.5998,-1.1046,0.5646,-0.6179,-0.3559,-1.1009,0.4007,-1.3875,-0.3559,-0.2581,-0.0162,-1.2411,-2.5836,-1.2927,-1.4374,-0.9536
0.6706,-1.0871,0.6098,-0.6339,-0.2872,-1.0905,0.4375,-1.378,-0.2685,-0.289,0.0618,-1.2309,-2.5574,-1.2868,-1.3864,-0.9375
0.6706,-1.0871,0.6098,-0.6339,-0.2872,-1.0905,0.4375,-1.378,-0.2685,-0.289,0.0618,-1.2309,-2.5574,-1.2868,-1.3864,-0.9375
0.7858,-1.0589,0.6754,-0.6296,-0.1857,-1.0715,0.5021,-1.3612,-0.2194,-0.2643,0.1812,-1.1973,-2.5126,-1.2814,-1.2773,-0.9144
0.7858,-1.0589,0.6754,-0.6296,-0.1857,-1.0715,0.5021,-1.3612,-0.2194,-0.2643,0.1812,-1.1973,-2.5126,-1.2814,-1.2773,-0.9144
0.7858,-1.0589,0.6754,-0.6296,-0.1857,-1.0715,0.5021,-1.3612,-0.2194,-0.2643,0.1812,-1.1973,-2.5126,-1.2814,-1.2773,-0.9144
0.9161,-1.0324,0.8073,-0.6211,-0.0689,-1.0528,0.5908,-1.3471,-0.1701,-0.2395,0.3304,-1.1737,-2.4757,-1.2731,-1.1551,-0.8886
1.0391,-1.0028,0.8943,-0.5965,0.0511,-1.0373,0.6749,-1.3255,-0.1206,-0.2147,0.4586,-1.1492,-2.4441,-1.266,-1.0441,-0.8655
1.0391,-1.0028,0.8943,-0.5965,0.0511,-1.0373,0.6749,-1.3255,-0.1206,-0.2147,0.4586,-1.1492,-2.4441,-1.266,-1.0441,-0.8655
1.1317,-0.9754,0.9818,-0.5719,0.1468,-1.0206,0.7553,-1.3138,-0.0709,-0.1897,0.5523,-1.1262,-2.412,-1.2682,-0.9573,-0.8474
1.1317,-0.9754,0.9818,-0.5719,0.1468,-1.0206,0.7553,-1.3138,-0.0709,-0.1897,0.5523,-1.1262,-2.412,-1.2682,-0.9573,-0.8474
1.2002,-0.9695,1.0282,-0.5882,0.2031,-1.0102,0.8078,-1.3094,0.0182,-0.2212,0.627,-1.1174,-2.3986,-1.2699,-0.8916,-0.8392
1.2002,-0.9695,1.0282,-0.5882,0.2031,-1.0102,0.8078,-1.3094,0.0182,-0.2212,0.627,-1.1174,-2.3986,-1.2699,-0.8916,-0.8392
1.24,-0.96,1.0956,-0.5842,0.2496,-1.0062,0.8509,-1.3074,0.0684,-0.1963,0.6759,-1.1135,-2.3827,-1.2664,-0.8446,-0.8348
1.24,-0.96,1.0956,-0.5842,0.2496,-1.0062,0.8509,-1.3074,0.0684,-0.1963,0.6759,-1.1135,-2.3827,-1.2664,-0.8446,-0.8348
1.2659,-0.9591,1.07,-0.5471,0.2747,-0.9999,0.8646,-1.295,0.0684,-0.1963,0.6956,-1.1099,-2.3745,-1.2692,-0.8162,-0.8344
1.2659,-0.9591,1.07,-0.5471,0.2747,-0.9999,0.8646,-1.295,0.0684,-0.1963,0.6956,-1.1099,-2.3745,-1.2692,-0.8162,-0.8344
1.2716,-0.9577,1.1166,-0.5636,0.2831,-0.9977,0.8942,-1.3054,0.0684,-0.1963,0.6988,-1.1146,-2.3745,-1.2692,-0.8099,-0.8331
1.2716,-0.9577,1.1166,-0.5636,0.2831,-0.9977,0.8942,-1.3054,0.0684,-0.1963,0.6988,-1.1146,-2.3745,-1.2692,-0.8099,-0.8331
1.2602,-0.9604,1.1166,-0.5636,0.2723,-0.9965,0.8794,-1.3002,0.0182,-0.2212,0.6759,-1.1135,-2.3799,-1.2704,-0.832,-0.8323
1.2462,-0.9689,1.0909,-0.5265,0.2556,-1.0007,0.8847,-1.3078,0.0182,-0.2212,0.6629,-1.116,-2.3799,-1.2704,-0.8446,-0.8348
1.2462,-0.9689,1.0909,-0.5265,0.2556,-1.0007,0.8847,-1.3078,0.0182,-0.2212,0.6629,-1.116,-2.3799,-1.2704,-0.8446,-0.8348
1.2462,-0.9689,1.0909,-0.5265,0.2556,-1.0007,0.8847,-1.3078,0.0182,-0.2212,0.6629,-1.116,-2.3799,-1.2704,-0.8446,-0.8348
1.2265,-0.9788,1.0909,-0.5265,0.2282,-1.0038,0.8604,-1.305,0.0182,-0.2212,0.6368,-1.1209,-2.3933,-1.2687,-0.8634,-0.8387
1.2265,-0.9788,1.0909,-0.5265,0.2282,-1.0038,0.8604,-1.305,0.0182,-0.2212,0.6368,-1.1209,-2.3933,-1.2687,-0.8634,-0.8387
1.2037,-0.9841,1.07,-0.5471,0.2115,-1.008,0.8509,-1.3074,0.0182,-0.2212,0.6075,-1.1211,-2.4014,-1.2659,-0.879,-0.8472
1.2037,-0.9841,1.07,-0.5471,0.2115,-1.008,0.8509,-1.3074,0.0182,-0.2212,0.6075,-1.1211,-2.4014,-1.2659,-0.879,-0.8472
1.178,-0.9851,1.07,-0.5471,0.1948,-1.0123,0.8414,-1.3098,0.0182,-0.2212,0.5879,-1.1247,-2.4014,-1.2659,-0.8977,-0.851
1.178,-0.9851,1.07,-0.5471,0.1948,-1.0123,0.8414,-1.3098,0.0182,-0.2212,0.5879,-1.1247,-2.4014,-1.2659,-0.8977,-0.851
1.1697,-0.9922,1.07,-0.5471,0.1911,-1.0211,0.8267,-1.3046,-0.1206,-0.2147,0.5717,-1.1331,-2.4067,-1.267,-0.9227,-0.8562
1.1697,-0.9922,1.07,-0.5471,0.1911,-1.0211,0.8267,-1.3046,-0.1206,-0.2147,0.5717,-1.1331,-2.4067,-1.267,-0.9227,-0.8562
1.144,-0.9931,0.9769,-0.5143,0.1828,-1.0232,0.8172,-1.307,-0.1206,-0.2147,0.5587,-1.1355,-2.4148,-1.2642,-0.9414,-0.86
1.144,-0.9931,0.9769,-0.5143,0.1828,-1.0232,0.8172,-1.307,-0.1206,-0.2147,0.5587,-1.1355,-2.4148,-1.2642,-0.9414,-0.86
1.1414,-0.9989,1.0234,-0.5307,0.1703,-1.0264,0.8078,-1.3094,-0.1701,-0.2395,0.5458,-1.138,-2.4201,-1.2654,-0.9539,-0.8626
1.1414,-0.9989,1.0234,-0.5307,0.1703,-1.0264,0.8078,-1.3094,-0.1701,-0.2395,0.5458,-1.138,-2.4201,-1.2654,-0.9539,-0.8626
1.1214,-0.9985,0.9769,-0.5143,0.1579,-1.0296,0.7983,-1.3118,-0.1206,-0.2147,0.5328,-1.1404,-2.4201,-1.2654,-0.9569,-0.8685
1.1214,-0.9985,0.9769,-0.5143,0.1579,-1.0296,0.7983,-1.3118,-0.1206,-0.2147,0.5328,-1.1404,-2.4201,-1.2654,-0.9569,-0.8685
1.1045,-1.0026,0.9976,-0.4936,0.1454,-1.0328,0.7889,-1.3142,-0.1206,-0.2147,0.5037,-1.1406,-2.4254,-1.2665,-0.985,-0.869
1.1045,-1.0026,0.9976,-0.4936,0.1454,-1.0328,0.7889,-1.3142,-0.1206,-0.2147,0.5037,-1.1406,-2.4254,-1.2665,-0.985,-0.869
1.085,-1.0124,0.9976,-0.4936,0.1247,-1.0381,0.7794,-1.3166,-0.1701,-0.2395,0.4714,-1.1468,-2.4413,-1.2701,-1.016,-0.8754
1.085,-1.0124,0.9976,-0.4936,0.1247,-1.0381,0.7794,-1.3166,-0.1701,-0.2395,0.4714,-1.1468,-2.4413,-1.2701,-1.016,-0.8754
1.0457,-1.0218,0.9562,-0.5349,0.087,-1.0399,0.7511,-1.3238,-0.1313,-0.2954,0.4296,-1.1495,-2.4437,-1.2753,-1.0376,-0.8851
1.0457,-1.0218,0.9562,-0.5349,0.087,-1.0399,0.7511,-1.3238,-0.1313,-0.2954,0.4296,-1.1495,-2.4437,-1.2753,-1.0376,-0.8851
1.009,-1.0254,0.9562,-0.5349,0.0599,-1.043,0.7417,-1.3262,-0.2194,-0.2643,0.3911,-1.1568,-2.4571,-1.2736,-1.0685,-0.8915
1.009,-1.0254,0.9562,-0.5349,0.0599,-1.043,0.7417,-1.3262,-0.2194,-0.2643,0.3911,-1.1568,-2.4571,-1.2736,-1.0685,-0.8915
0.9699,-1.0348,0.9099,-0.5185,0.0246,-1.0481,0.7135,-1.3334,-0.1808,-0.32,0.3591,-1.163,-2.4729,-1.2771,-1.0961,-0.9025
0.9699,-1.0348,0.9099,-0.5185,0.0246,-1.0481,0.7135,-1.3334,-0.1808,-0.32,0.3591,-1.163,-2.4729,-1.2771,-1.0961,-0.9025
0.9197,-1.0469,0.8688,-0.5597,-0.0147,-1.0544,0.676,-1.343,-0.2194,-0.2643,0.3272,-1.1691,-2.4863,-1.2755,-1.1269,-0.9089
0.9197,-1.0469,0.8688,-0.5597,-0.0147,-1.0544,0.676,-1.343,-0.2194,-0.2643,0.3272,-1.1691,-2.4863,-1.2755,-1.1269,-0.9089
0.8753,-1.0576,0.8482,-0.5803,-0.0539,-1.0606,0.6427,-1.3426,-0.2194,-0.2643,0.2889,-1.1764,-2.5021,-1.279,-1.1638,-0.9166
0.8753,-1.0576,0.8482,-0.5803,-0.0539,-1.0606,0.6427,-1.3426,-0.2194,-0.2643,0.2889,-1.1764,-2.5021,-1.279,-1.1638,-0.9166
0.831,-1.0683,0.8278,-0.6007,-0.097,-1.0679,0.6001,-1.3447,-0.2685,-0.289,0.2381,-1.1862,-2.5203,-1.2878,-1.2159,-0.9223
0.831,-1.0683,0.8278,-0.6007,-0.097,-1.0679,0.6001,-1.3447,-0.2685,-0.289,0.2381,-1.1862,-2.5203,-1.2878,-1.2159,-0.9223
0.7924,-1.0777,0.8278,-0.6007,-0.1359,-1.0741,0.5867,-1.357,-0.23,-0.3446,0.1938,-1.1948,-2.5413,-1.2925,-1.2493,-0.9345
0.7924,-1.0777,0.8278,-0.6007,-0.1359,-1.0741,0.5867,-1.357,-0.23,-0.3446,0.1938,-1.1948,-2.5413,-1.2925,-1.2493,-0.9345
0.7924,-1.0777,0.8278,-0.6007,-0.1359,-1.0741,0.5867,-1.357,-0.23,-0.3446,0.1938,-1.1948,-2.5413,-1.2925,-1.2493,-0.9345
0.7429,-1.0898,0.7158,-0.5888,-0.1829,-1.0825,0.5351,-1.3615,-0.3174,-0.3137,0.1528,-1.208,-2.5623,-1.2972,-1.2919,-0.9435
0.6906,-1.0975,0.6956,-0.6092,-0.2297,-1.0909,0.498,-1.3711,-0.3174,-0.3137,0.0962,-1.219,-2.5833,-1.3019,-1.3436,-0.9492
0.6439,-1.1038,0.6299,-0.6136,-0.266,-1.1005,0.4611,-1.3806,-0.3174,-0.3137,0.0492,-1.2231,-2.599,-1.3054,-1.3798,-0.9569
0.6439,-1.1038,0.6299,-0.6136,-0.266,-1.1005,0.4611,-1.3806,-0.3174,-0.3137,0.0492,-1.2231,-2.599,-1.3054,-1.3798,-0.9569
0.6439,-1.1038,0.6299,-0.6136,-0.266,-1.1005,0.4611,-1.3806,-0.3174,-0.3137,0.0492,-1.2231,-2.599,-1.3054,-1.3798,-0.9569
0.6251,-1.1135,0.6047,-0.5771,-0.2884,-1.1025,0.4519,-1.383,-0.3662,-0.3382,0.0087,-1.2362,-2.6147,-1.309,-1.404,-0.962
0.6251,-1.1135,0.6047,-0.5771,-0.2884,-1.1025,0.4519,-1.383,-0.3662,-0.3382,0.0087,-1.2362,-2.6147,-1.309,-1.404,-0.962
0.6469,-1.1082,0.6047,-0.5771,-0.2723,-1.0982,0.4467,-1.3756,-0.2791,-0.369,0.0118,-1.2304,-2.6042,-1.3066,-1.395,-0.9549
0.6469,-1.1082,0.6047,-0.5771,-0.2723,-1.0982,0.4467,-1.3756,-0.2791,-0.369,0.0118,-1.2304,-2.6042,-1.3066,-1.395,-0.9549
0.6469,-1.1082,0.6047,-0.5771,-0.2723,-1.0982,0.4467,-1.3756,-0.2791,-0.369,0.0118,-1.2304,-2.6042,-1.3066,-1.395,-0.9549
0.7204,-1.0851,0.6956,-0.6092,-0.1991,-1.0868,0.498,-1.3711,-0.3174,-0.3137,0.09,-1.2203,-2.5753,-1.3047,-1.3346,-0.9421
0.839,-1.0613,0.7615,-0.605,-0.0988,-1.0723,0.5681,-1.3618,-0.1313,-0.2954,0.2223,-1.1945,-2.5253,-1.2982,-1.2313,-0.9203
0.9724,-1.0291,0.8688,-0.5597,0.0228,-1.0525,0.652,-1.3402,-0.1313,-0.2954,0.3559,-1.1688,-2.4937,-1.2911,-1.1241,-0.8926
0.9724,-1.0291,0.8688,-0.5597,0.0228,-1.0525,0.652,-1.3402,-0.1313,-0.2954,0.3559,-1.1688,-2.4937,-1.2911,-1.1241,-0.8926
1.0963,-1.0097,0.9355,-0.5555,0.1247,-1.0381,0.7376,-1.3362,-0.0817,-0.2708,0.5037,-1.1406,-2.454,-1.2869,-1.0098,-0.8741
1.0963,-1.0097,0.9355,-0.5555,0.1247,-1.0381,0.7376,-1.3362,-0.0817,-0.2708,0.5037,-1.1406,-2.454,-1.2869,-1.0098,-0.8741
1.0963,-1.0097,0.9355,-0.5555,0.1247,-1.0381,0.7376,-1.3362,-0.0817,-0.2708,0.5037,-1.1406,-2.454,-1.2869,-1.0098,-0.8741
1.1867,-0.9882,1.0491,-0.5677,0.219,-1.0259,0.8088,-1.327,-0.0319,-0.246,0.6009,-1.1223,-2.4329,-1.2822,-0.9165,-0.8549
1.1867,-0.9882,1.0491,-0.5677,0.219,-1.0259,0.8088,-1.327,-0.0319,-0.246,0.6009,-1.1223,-2.4329,-1.2822,-0.9165,-0.8549
1.1867,-0.9882,1.0491,-0.5677,0.219,-1.0259,0.8088,-1.327,-0.0319,-0.246,0.6009,-1.1223,-2.4329,-1.2822,-0.9165,-0.8549
1.258,-0.9765,1.07,-0.5471,0.2863,-1.0167,0.8615,-1.3226,-0.0319,-0.246,0.6596,-1.1113,-2.4142,-1.2827,-0.8507,-0.8467
1.298,-0.9671,1.0909,-0.5265,0.3241,-1.0071,0.8995,-1.3131,-0.0319,-0.246,0.6923,-1.1052,-2.4089,-1.2815,-0.8193,-0.8403
1.298,-0.9671,1.0909,-0.5265,0.3241,-1.0071,0.8995,-1.3131,-0.0319,-0.246,0.6923,-1.1052,-2.4089,-1.2815,-0.8193,-0.8403
1.3151,-0.963,1.1376,-0.543,0.3517,-1.0042,0.9186,-1.3083,0.007,-0.3021,0.7054,-1.1027,-2.4117,-1.2775,-0.7972,-0.8411
1.3151,-0.963,1.1376,-0.543,0.3517,-1.0042,0.9186,-1.3083,0.007,-0.3021,0.7054,-1.1027,-2.4117,-1.2775,-0.7972,-0.8411
1.312,-0.9586,1.1845,-0.5596,0.3601,-1.002,0.9281,-1.3059,-0.0319,-0.246,0.7152,-1.1062,-2.4064,-1.2763,-0.7909,-0.8398
1.312,-0.9586,1.1845,-0.5596,0.3601,-1.002,0.9281,-1.3059,-0.0319,-0.246,0.7152,-1.1062,-2.4064,-1.2763,-0.7909,-0.8398
1.3006,-0.9613,1.1845,-0.5596,0.3517,-1.0042,0.9334,-1.3135,-0.0817,-0.2708,0.7054,-1.1133,-2.4117,-1.2775,-0.8035,-0.8423
1.3006,-0.9613,1.1845,-0.5596,0.3517,-1.0042,0.9334,-1.3135,-0.0817,-0.2708,0.7054,-1.1133,-2.4117,-1.2775,-0.8035,-0.8423
1.3006,-0.9613,1.1845,-0.5596,0.3517,-1.0042,0.9334,-1.3135,-0.0817,-0.2708,0.7054,-1.1133,-2.4117,-1.2775,-0.8035,-0.8423
1.3006,-0.9613,1.1845,-0.5596,0.3517,-1.0042,0.9334,-1.3135,-0.0817,-0.2708,0.7054,-1.1133,-2.4117,-1.2775,-0.8035,-0.8423
1.2606,-0.9707,1.2056,-0.5389,0.3157,-1.0093,0.9238,-1.3159,-0.0817,-0.2708,0.6596,-1.1219,-2.4251,-1.2758,-0.8412,-0.85
1.2322,-0.9774,1.1845,-0.5596,0.2905,-1.0156,0.89,-1.3154,-0.0817,-0.2708,0.6302,-1.1221,-2.4304,-1.277,-0.86,-0.8539
1.2322,-0.9774,1.1845,-0.5596,0.2905,-1.0156,0.89,-1.3154,-0.0817,-0.2708,0.6302,-1.1221,-2.4304,-1.277,-0.86,-0.8539
1.2322,-0.9774,1.1845,-0.5596,0.2905,-1.0156,0.89,-1.3154,-0.0817,-0.2708,0.6302,-1.1221,-2.4304,-1.277,-0.86,-0.8539
1.2182,-0.9859,1.1634,-0.5801,0.2738,-1.0199,0.8805,-1.3178,-0.1701,-0.2395,0.6107,-1.1257,-2.4304,-1.277,-0.8693,-0.8611
1.2182,-0.9859,1.1634,-0.5801,0.2738,-1.0199,0.8805,-1.3178,-0.1701,-0.2395,0.6107,-1.1257,-2.4304,-1.277,-0.8693,-0.8611
1.2011,-0.9899,1.1634,-0.5801,0.2677,-1.0254,0.8858,-1.3255,-0.1206,-0.2147,0.5977,-1.1282,-2.4276,-1.281,-0.8818,-0.8636
1.2011,-0.9899,1.1634,-0.5801,0.2677,-1.0254,0.8858,-1.3255,-0.1206,-0.2147,0.5977,-1.1282,-2.4276,-1.281,-0.8818,-0.8636
1.1898,-0.9926,1.1166,-0.5636,0.2528,-1.0252,0.871,-1.3202,-0.1206,-0.2147,0.575,-1.1272,-2.4276,-1.281,-0.8944,-0.8662
1.1898,-0.9926,1.1166,-0.5636,0.2528,-1.0252,0.871,-1.3202,-0.1206,-0.2147,0.575,-1.1272,-2.4276,-1.281,-0.8944,-0.8662
1.1754,-0.9909,1.1166,-0.5636,0.2468,-1.0307,0.8763,-1.3278,-0.1206,-0.2147,0.5652,-1.1343,-2.4329,-1.2822,-0.9163,-0.8654
1.1754,-0.9909,1.1166,-0.5636,0.2468,-1.0307,0.8763,-1.3278,-0.1206,-0.2147,0.5652,-1.1343,-2.4329,-1.2822,-0.9163,-0.8654
1.1671,-0.998,1.1166,-0.5636,0.2278,-1.0315,0.8615,-1.3226,-0.1206,-0.2147,0.5393,-1.1392,-2.4381,-1.2834,-0.9444,-0.8659
1.1671,-0.998,1.1166,-0.5636,0.2278,-1.0315,0.8615,-1.3226,-0.1206,-0.2147,0.5393,-1.1392,-2.4381,-1.2834,-0.9444,-0.8659
1.1532,-1.0064,1.07,-0.5471,0.2111,-1.0358,0.8425,-1.3274,-0.1206,-0.2147,0.5199,-1.1428,-2.4515,-1.2817,-0.9693,-0.871
1.1532,-1.0064,1.07,-0.5471,0.2111,-1.0358,0.8425,-1.3274,-0.1206,-0.2147,0.5199,-1.1428,-2.4515,-1.2817,-0.9693,-0.871
1.1532,-1.0064,1.07,-0.5471,0.2111,-1.0358,0.8425,-1.3274,-0.1206,-0.2147,0.5199,-1.1428,-2.4515,-1.2817,-0.9693,-0.871
1.1306,-1.0118,1.0491,-0.5677,0.1838,-1.0388,0.8183,-1.3246,-0.0817,-0.2708,0.4843,-1.1443,-2.4621,-1.284,-0.991,-0.8808
1.0937,-1.0154,1.0026,-0.5513,0.1524,-1.0428,0.7994,-1.3294,-0.1313,-0.2954,0.4457,-1.1517,-2.4779,-1.2876,-1.0376,-0.8851
1.0937,-1.0154,1.0026,-0.5513,0.1524,-1.0428,0.7994,-1.3294,-0.1313,-0.2954,0.4457,-1.1517,-2.4779,-1.2876,-1.0376,-0.8851
1.0599,-1.0235,1.0026,-0.5513,0.1169,-1.048,0.7858,-1.3417,-0.2194,-0.2643,0.4232,-1.1612,-2.4912,-1.2859,-1.0591,-0.8949
1.0599,-1.0235,1.0026,-0.5513,0.1169,-1.048,0.7858,-1.3417,-0.2194,-0.2643,0.4232,-1.1612,-2.4912,-1.2859,-1.0591,-0.8949
1.0293,-1.0359,0.9818,-0.5719,0.0815,-1.0531,0.7522,-1.3413,-0.2194,-0.2643,0.3783,-1.1697,-2.5123,-1.2906,-1.1023,-0.9038
1.0293,-1.0359,0.9818,-0.5719,0.0815,-1.0531,0.7522,-1.3413,-0.2194,-0.2643,0.3783,-1.1697,-2.5123,-1.2906,-1.1023,-0.9038
0.9871,-1.0409,0.9355,-0.5555,0.0485,-1.0616,0.7188,-1.341,-0.1808,-0.32,0.3304,-1.1737,-2.5281,-1.2941,-1.1392,-0.9115
0.9871,-1.0409,0.9355,-0.5555,0.0485,-1.0616,0.7188,-1.341,-0.1808,-0.32,0.3304,-1.1737,-2.5281,-1.2941,-1.1392,-0.9115
0.9394,-1.0472,0.9149,-0.576,0.0092,-1.0678,0.6906,-1.3481,-0.2685,-0.289,0.2857,-1.1823,-2.5438,-1.2977,-1.176,-0.9192
0.9394,-1.0472,0.9149,-0.576,0.0092,-1.0678,0.6906,-1.3481,-0.2685,-0.289,0.2857,-1.1823,-2.5438,-1.2977,-1.176,-0.9192
0.9005,-1.0566,0.8688,-0.5597,-0.0301,-1.074,0.6625,-1.3553,-0.3174,-0.3137,0.2381,-1.1862,-2.5595,-1.3012,-1.2188,-0.9281
0.9005,-1.0566,0.8688,-0.5597,-0.0301,-1.074,0.6625,-1.3553,-0.3174,-0.3137,0.2381,-1.1862,-2.5595,-1.3012,-1.2188,-0.9281
0.8446,-1.0599,0.8482,-0.5803,-0.0669,-1.0835,0.6199,-1.3574,-0.3174,-0.3137,0.1938,-1.1948,-2.5833,-1.3019,-1.2615,-0.9371
0.8446,-1.0599,0.8482,-0.5803,-0.0669,-1.0835,0.6199,-1.3574,-0.3174,-0.3137,0.1938,-1.1948,-2.5833,-1.3019,-1.2615,-0.9371
0.8446,-1.0599,0.8482,-0.5803,-0.0669,-1.0835,0.6199,-1.3574,-0.3174,-0.3137,0.1938,-1.1948,-2.5833,-1.3019,-1.2615,-0.9371
0.7919,-1.0677,0.8023,-0.564,-0.11,-1.0908,0.5972,-1.3721,-0.4046,-0.2829,0.1528,-1.208,-2.5962,-1.3094,-1.3041,-0.9461
0.7919,-1.0677,0.8023,-0.564,-0.11,-1.0908,0.5972,-1.3721,-0.4046,-0.2829,0.1528,-1.208,-2.5962,-1.3094,-1.3041,-0.9461
0.7919,-1.0677,0.8023,-0.564,-0.11,-1.0908,0.5972,-1.3721,-0.4046,-0.2829,0.1528,-1.208,-2.5962,-1.3094,-1.3041,-0.9461
0.6985,-1.0904,0.7158,-0.5888,-0.2038,-1.1075,0.5229,-1.3912,-0.3662,-0.3382,0.0586,-1.2264,-2.6435,-1.3108,-1.3856,-0.9685
0.6985,-1.0904,0.7158,-0.5888,-0.2038,-1.1075,0.5229,-1.3912,-0.3662,-0.3382,0.0586,-1.2264,-2.6435,-1.3108,-1.3856,-0.9685
0.6602,-1.0998,0.6703,-0.5727,-0.2384,-1.1127,0.4951,-1.3983,-0.453,-0.3075,0.0149,-1.235,-2.6619,-1.3104,-1.4158,-0.9749
0.6602,-1.0998,0.6703,-0.5727,-0.2384,-1.1127,0.4951,-1.3983,-0.453,-0.3075,0.0149,-1.235,-2.6619,-1.3104,-1.4158,-0.9749
0.6602,-1.0998,0.6703,-0.5727,-0.2384,-1.1127,0.4951,-1.3983,-0.453,-0.3075,0.0149,-1.235,-2.6619,-1.3104,-1.4158,-0.9749
0.6518,-1.0968,0.6501,-0.5932,-0.2425,-1.1137,0.5003,-1.4058,-0.4046,-0.2829,-0.0007,-1.2329,-2.6567,-1.3092,-1.4158,-0.9749
0.7094,-1.0878,0.6703,-0.5727,-0.1957,-1.1054,0.5136,-1.3936,-0.3662,-0.3382,0.0461,-1.2288,-2.6383,-1.3097,-1.3796,-0.9672
0.8054,-1.0593,0.7361,-0.5683,-0.11,-1.0908,0.5693,-1.3792,-0.3174,-0.3137,0.1434,-1.2046,-2.607,-1.3026,-1.3072,-0.9415
0.8054,-1.0593,0.7361,-0.5683,-0.11,-1.0908,0.5693,-1.3792,-0.3174,-0.3137,0.1434,-1.2046,-2.607,-1.3026,-1.3072,-0.9415
0.8054,-1.0593,0.7361,-0.5683,-0.11,-1.0908,0.5693,-1.3792,-0.3174,-0.3137,0.1434,-1.2046,-2.607,-1.3026,-1.3072,-0.9415
0.9531,-1.0388,0.8482,-0.5803,0.0033,-1.0732,0.649,-1.3676,-0.2685,-0.289,0.2762,-1.1789,-2.5676,-1.2984,-1.1975,-0.9185
0.9531,-1.0388,0.8482,-0.5803,0.0033,-1.0732,0.649,-1.3676,-0.2685,-0.289,0.2762,-1.1789,-2.5676,-1.2984,-1.1975,-0.9185
0.9531,-1.0388,0.8482,-0.5803,0.0033,-1.0732,0.649,-1.3676,-0.2685,-0.289,0.2762,-1.1789,-2.5676,-1.2984,-1.1975,-0.9185
1.0646,-1.0018,0.9818,-0.5719,0.1257,-1.0536,0.7387,-1.3537,-0.1313,-0.2954,0.4103,-1.1532,-2.5281,-1.2941,-1.0808,-0.8941
1.1661,-0.9776,1.0491,-0.5677,0.2241,-1.0404,0.8141,-1.3346,-0.0817,-0.2708,0.5328,-1.1404,-2.5018,-1.2882,-0.9818,-0.8736
1.24,-0.96,1.1634,-0.5801,0.2957,-1.0302,0.8763,-1.3278,-0.1206,-0.2147,0.6009,-1.1223,-2.486,-1.2847,-0.907,-0.8582
1.24,-0.96,1.1634,-0.5801,0.2957,-1.0302,0.8763,-1.3278,-0.1206,-0.2147,0.6009,-1.1223,-2.486,-1.2847,-0.907,-0.8582
1.24,-0.96,1.1634,-0.5801,0.2957,-1.0302,0.8763,-1.3278,-0.1206,-0.2147,0.6009,-1.1223,-2.486,-1.2847,-0.907,-0.8582
1.2856,-0.9492,1.1845,-0.5596,0.3377,-1.0196,0.9196,-1.3259,-0.0319,-0.246,0.6563,-1.1172,-2.4726,-1.2864,-0.8632,-0.8492
1.2856,-0.9492,1.1845,-0.5596,0.3377,-1.0196,0.9196,-1.3259,-0.0319,-0.246,0.6563,-1.1172,-2.4726,-1.2864,-0.8632,-0.8492
1.3204,-0.9514,1.2056,-0.5389,0.3629,-1.0132,0.9387,-1.3211,-0.021,-0.1647,0.6923,-1.1158,-2.4621,-1.284,-0.8286,-0.8475
1.3204,-0.9514,1.2056,-0.5389,0.3629,-1.0132,0.9387,-1.3211,-0.021,-0.1647,0.6923,-1.1158,-2.4621,-1.284,-0.8286,-0.8475
1.3204,-0.9514,1.2056,-0.5389,0.3629,-1.0132,0.9387,-1.3211,-0.021,-0.1647,0.6923,-1.1158,-2.4621,-1.284,-0.8286,-0.8475
1.335,-0.9532,1.2056,-0.5389,0.3779,-1.0134,0.9482,-1.3187,-0.1101,-0.1332,0.689,-1.1111,-2.454,-1.2869,-0.8223,-0.8462
1.335,-0.9532,1.2056,-0.5389,0.3779,-1.0134,0.9482,-1.3187,-0.1101,-0.1332,0.689,-1.1111,-2.454,-1.2869,-0.8223,-0.8462
1.2975,-0.9568,1.1587,-0.5224,0.3569,-1.0187,0.9387,-1.3211,-0.1206,-0.2147,0.6531,-1.1231,-2.4698,-1.2904,-0.8505,-0.8572
1.2975,-0.9568,1.1587,-0.5224,0.3569,-1.0187,0.9387,-1.3211,-0.1206,-0.2147,0.6531,-1.1231,-2.4698,-1.2904,-0.8505,-0.8572
1.2975,-0.9568,1.1587,-0.5224,0.3569,-1.0187,0.9387,-1.3211,-0.1206,-0.2147,0.6531,-1.1231,-2.4698,-1.2904,-0.8505,-0.8572
1.2975,-0.9568,1.1587,-0.5224,0.3569,-1.0187,0.9387,-1.3211,-0.1206,-0.2147,0.6531,-1.1231,-2.4698,-1.2904,-0.8505,-0.8572
1.2778,-0.9667,1.1587,-0.5224,0.3358,-1.024,0.9344,-1.3311,-0.1701,-0.2395,0.627,-1.128,-2.4832,-1.2887,-0.8756,-0.8623
1.2778,-0.9667,1.1587,-0.5224,0.3358,-1.024,0.9344,-1.3311,-0.1701,-0.2395,0.627,-1.128,-2.4832,-1.2887,-0.8756,-0.8623
1.2778,-0.9667,1.1587,-0.5224,0.3358,-1.024,0.9344,-1.3311,-0.1701,-0.2395,0.627,-1.128,-2.4832,-1.2887,-0.8756,-0.8623
1.2379,-0.9761,1.2056,-0.5389,0.3022,-1.0325,0.9154,-1.3359,-0.1701,-0.2395,0.5749,-1.1377,-2.4937,-1.2911,-0.9193,-0.8713
1.2379,-0.9761,1.2056,-0.5389,0.3022,-1.0325,0.9154,-1.3359,-0.1701,-0.2395,0.5749,-1.1377,-2.4937,-1.2911,-0.9193,-0.8713
1.2151,-0.9815,1.1587,-0.5224,0.2831,-1.0333,0.9006,-1.3307,-0.1206,-0.2147,0.5522,-1.1367,-2.4965,-1.2871,-0.9412,-0.8705
1.2151,-0.9815,1.1587,-0.5224,0.2831,-1.0333,0.9006,-1.3307,-0.1206,-0.2147,0.5522,-1.1367,-2.4965,-1.2871,-0.9412,-0.8705
1.1981,-0.9855,1.1845,-0.5596,0.2664,-1.0376,0.8763,-1.3278,-0.2582,-0.2084,0.536,-1.145,-2.5018,-1.2882,-0.9567,-0.879
1.1981,-0.9855,1.1845,-0.5596,0.2664,-1.0376,0.8763,-1.3278,-0.2582,-0.2084,0.536,-1.145,-2.5018,-1.2882,-0.9567,-0.879
1.1867,-0.9882,1.1634,-0.5801,0.2538,-1.0407,0.8815,-1.3355,-0.1206,-0.2147,0.5199,-1.1428,-2.5018,-1.2882,-0.9692,-0.8815
1.1867,-0.9882,1.1634,-0.5801,0.2538,-1.0407,0.8815,-1.3355,-0.1206,-0.2147,0.5199,-1.1428,-2.5018,-1.2882,-0.9692,-0.8815
1.1666,-0.9878,1.1634,-0.5801,0.2413,-1.0439,0.8573,-1.3326,-0.1701,-0.2395,0.5005,-1.1465,-2.5018,-1.2882,-0.9816,-0.8841
1.1666,-0.9878,1.1634,-0.5801,0.2413,-1.0439,0.8573,-1.3326,-0.1701,-0.2395,0.5005,-1.1465,-2.5018,-1.2882,-0.9816,-0.8841
1.1409,-0.9887,1.1166,-0.5636,0.2204,-1.0492,0.8531,-1.3426,-0.1701,-0.2395,0.4811,-1.1502,-2.5042,-1.2934,-1.0064,-0.8892
1.1409,-0.9887,1.1166,-0.5636,0.2204,-1.0492,0.8531,-1.3426,-0.1701,-0.2395,0.4811,-1.1502,-2.5042,-1.2934,-1.0064,-0.8892
1.1127,-0.9955,1.0956,-0.5842,0.1889,-1.0532,0.8194,-1.3422,-0.1701,-0.2395,0.4553,-1.1551,-2.5175,-1.2918,-1.0312,-0.8943
1.1127,-0.9955,1.0956,-0.5842,0.1889,-1.0532,0.8194,-1.3422,-0.1701,-0.2395,0.4553,-1.1551,-2.5175,-1.2918,-1.0312,-0.8943
1.0815,-0.9978,1.0956,-0.5842,0.1617,-1.0562,0.8099,-1.3446,-0.2582,-0.2084,0.4232,-1.1612,-2.5253,-1.2982,-1.0528,-0.904
1.0477,-1.0058,1.0491,-0.5677,0.1349,-1.067,0.7816,-1.3517,-0.2194,-0.2643,0.3847,-1.1685,-2.5438,-1.2977,-1.0898,-0.9117
1.0477,-1.0058,1.0491,-0.5677,0.1349,-1.067,0.7816,-1.3517,-0.2194,-0.2643,0.3847,-1.1685,-2.5438,-1.2977,-1.0898,-0.9117
1.0477,-1.0058,1.0491,-0.5677,0.1349,-1.067,0.7816,-1.3517,-0.2194,-0.2643,0.3847,-1.1685,-2.5438,-1.2977,-1.0898,-0.9117
1.0171,-1.0183,1.0282,-0.5882,0.0931,-1.0698,0.7481,-1.3513,-0.3071,-0.2333,0.3463,-1.1758,-2.5543,-1.3,-1.1329,-0.9206
1.0171,-1.0183,1.0282,-0.5882,0.0931,-1.0698,0.7481,-1.3513,-0.3071,-0.2333,0.3463,-1.1758,-2.5543,-1.3,-1.1329,-0.9206
0.978,-1.0277,1.0074,-0.6087,0.0559,-1.0793,0.7199,-1.3585,-0.2685,-0.289,0.2985,-1.1798,-2.57,-1.3036,-1.1697,-0.9283
0.978,-1.0277,1.0074,-0.6087,0.0559,-1.0793,0.7199,-1.3585,-0.2685,-0.289,0.2985,-1.1798,-2.57,-1.3036,-1.1697,-0.9283
0.9247,-1.0354,0.9866,-0.6291,0.0166,-1.0855,0.6917,-1.3656,-0.2685,-0.289,0.254,-1.1884,-2.5965,-1.3002,-1.2032,-0.9405
0.9247,-1.0354,0.9866,-0.6291,0.0166,-1.0855,0.6917,-1.3656,-0.2685,-0.289,0.254,-1.1884,-2.5965,-1.3002,-1.2032,-0.9405
0.8859,-1.0448,0.9404,-0.6128,-0.0245,-1.096,0.649,-1.3676,-0.23,-0.3446,0.2096,-1.197,-2.6094,-1.3078,-1.2399,-0.9482
0.8859,-1.0448,0.9404,-0.6128,-0.0245,-1.096,0.649,-1.3676,-0.23,-0.3446,0.2096,-1.197,-2.6094,-1.3078,-1.2399,-0.9482
0.8471,-1.0542,0.9404,-0.6128,-0.0636,-1.1022,0.6304,-1.3724,-0.3662,-0.3382,0.1591,-1.2068,-2.6303,-1.3125,-1.2917,-0.9538
0.8471,-1.0542,0.9404,-0.6128,-0.0636,-1.1022,0.6304,-1.3724,-0.3662,-0.3382,0.1591,-1.2068,-2.6303,-1.3125,-1.2917,-0.9538
0.8471,-1.0542,0.9404,-0.6128,-0.0636,-1.1022,0.6304,-1.3724,-0.3662,-0.3382,0.1591,-1.2068,-2.6303,-1.3125,-1.2917,-0.9538
0.8114,-1.068,0.8943,-0.5965,-0.1067,-1.1094,0.5931,-1.382,-0.2791,-0.369,0.1151,-1.2154,-2.6459,-1.316,-1.3281,-0.9615
0.8114,-1.068,0.8943,-0.5965,-0.1067,-1.1094,0.5931,-1.382,-0.2791,-0.369,0.1151,-1.2154,-2.6459,-1.316,-1.3281,-0.9615
0.7533,-1.077,0.8073,-0.6211,-0.16,-1.1155,0.5466,-1.3939,-0.4147,-0.3627,0.0586,-1.2264,-2.672,-1.3219,-1.3825,-0.973
0.7533,-1.077,0.8073,-0.6211,-0.16,-1.1155,0.5466,-1.3939,-0.4147,-0.3627,0.0586,-1.2264,-2.672,-1.3219,-1.3825,-0.973
0.701,-1.0848,0.7869,-0.6415,-0.2091,-1.1205,0.5188,-1.401,-0.5012,-0.3321,0.0087,-1.2362,-2.7007,-1.3238,-1.4216,-0.9865
0.701,-1.0848,0.7869,-0.6415,-0.2091,-1.1205,0.5188,-1.401,-0.5012,-0.3321,0.0087,-1.2362,-2.7007,-1.3238,-1.4216,-0.9865
0.6518,-1.0968,0.7209,-0.6457,-0.2495,-1.1311,0.4819,-1.4106,-0.5874,-0.3017,-0.0411,-1.246,-2.7266,-1.3297,-1.4636,-0.9954
0.6137,-1.1062,0.6956,-0.6092,-0.2799,-1.1352,0.4634,-1.4153,-0.5493,-0.3566,-0.0845,-1.2546,-2.7421,-1.3332,-1.4936,-1.0018
0.6137,-1.1062,0.6956,-0.6092,-0.2799,-1.1352,0.4634,-1.4153,-0.5493,-0.3566,-0.0845,-1.2546,-2.7421,-1.3332,-1.4936,-1.0018
0.6082,-1.1075,0.6956,-0.6092,-0.2817,-1.1395,0.4594,-1.4252,-0.5012,-0.3321,-0.1031,-1.2583,-2.7473,-1.3344,-1.4996,-1.003
0.6082,-1.1075,0.6956,-0.6092,-0.2817,-1.1395,0.4594,-1.4252,-0.5012,-0.3321,-0.1031,-1.2583,-2.7473,-1.3344,-1.4996,-1.003
0.6488,-1.0925,0.7209,-0.6457,-0.2455,-1.13,0.4686,-1.4228,-0.5874,-0.3017,-0.066,-1.2509,-2.7346,-1.3269,-1.4727,-0.9922
0.6488,-1.0925,0.7209,-0.6457,-0.2455,-1.13,0.4686,-1.4228,-0.5874,-0.3017,-0.066,-1.2509,-2.7346,-1.3269,-1.4727,-0.9922
0.6488,-1.0925,0.7209,-0.6457,-0.2455,-1.13,0.4686,-1.4228,-0.5874,-0.3017,-0.066,-1.2509,-2.7346,-1.3269,-1.4727,-0.9922
0.7443,-1.064,0.7869,-0.6415,-0.1537,-1.1178,0.524,-1.4085,-0.453,-0.3075,0.0242,-1.228,-2.7007,-1.3238,-1.3885,-0.9743
0.8712,-1.0331,0.8737,-0.6169,-0.0431,-1.0969,0.618,-1.4021,-0.3559,-0.2581,0.1812,-1.1973,-2.6511,-1.3172,-1.2735,-0.95
0.8712,-1.0331,0.8737,-0.6169,-0.0431,-1.0969,0.618,-1.4021,-0.3559,-0.2581,0.1812,-1.1973,-2.6511,-1.3172,-1.2735,-0.95
1.0024,-1.0065,0.9404,-0.6128,0.0642,-1.0772,0.698,-1.3906,-0.3559,-0.2581,0.3176,-1.1761,-2.6199,-1.3101,-1.1545,-0.9199
1.0024,-1.0065,0.9404,-0.6128,0.0642,-1.0772,0.698,-1.3906,-0.3559,-0.2581,0.3176,-1.1761,-2.6199,-1.3101,-1.1545,-0.9199
1.1122,-0.9853,1.0282,-0.5882,0.1598,-1.0606,0.7638,-1.374,-0.2685,-0.289,0.4328,-1.1541,-2.591,-1.3083,-1.0559,-0.8994
1.1122,-0.9853,1.0282,-0.5882,0.1598,-1.0606,0.7638,-1.374,-0.2685,-0.289,0.4328,-1.1541,-2.591,-1.3083,-1.0559,-0.8994
1.1971,-0.965,1.1166,-0.5636,0.2394,-1.0483,0.8299,-1.3573,-0.2194,-0.2643,0.5102,-1.1394,-2.5833,-1.3019,-0.9878,-0.8854
1.1971,-0.965,1.1166,-0.5636,0.2394,-1.0483,0.8299,-1.3573,-0.2194,-0.2643,0.5102,-1.1394,-2.5833,-1.3019,-0.9878,-0.8854
1.1971,-0.965,1.1166,-0.5636,0.2394,-1.0483,0.8299,-1.3573,-0.2194,-0.2643,0.5102,-1.1394,-2.5833,-1.3019,-0.9878,-0.8854
1.2312,-0.9569,1.1166,-0.5636,0.2836,-1.0411,0.8636,-1.3578,-0.2194,-0.2643,0.5652,-1.1343,-2.57,-1.3036,-0.9537,-0.8731
1.2312,-0.9569,1.1166,-0.5636,0.2836,-1.0411,0.8636,-1.3578,-0.2194,-0.2643,0.5652,-1.1343,-2.57,-1.3036,-0.9537,-0.8731
1.2312,-0.9569,1.1166,-0.5636,0.2836,-1.0411,0.8636,-1.3578,-0.2194,-0.2643,0.5652,-1.1343,-2.57,-1.3036,-0.9537,-0.8731
1.2483,-0.9529,1.1845,-0.5596,0.3134,-1.0415,0.8921,-1.3507,-0.2582,-0.2084,0.5847,-1.1306,-2.562,-1.3064,-0.9256,-0.8726
1.2483,-0.9529,1.1845,-0.5596,0.3134,-1.0415,0.8921,-1.3507,-0.2582,-0.2084,0.5847,-1.1306,-2.562,-1.3064,-0.9256,-0.8726
1.24,-0.96,1.1376,-0.543,0.305,-1.0436,0.8826,-1.353,-0.3071,-0.2333,0.5587,-1.1355,-2.5805,-1.3059,-0.9349,-0.8797
1.24,-0.96,1.1376,-0.543,0.305,-1.0436,0.8826,-1.353,-0.3071,-0.2333,0.5587,-1.1355,-2.5805,-1.3059,-0.9349,-0.8797
1.2172,-0.9654,1.1376,-0.543,0.2817,-1.0455,0.8731,-1.3554,-0.3071,-0.2333,0.5328,-1.1404,-2.583,-1.3111,-0.9598,-0.8849
1.2172,-0.9654,1.1376,-0.543,0.2817,-1.0455,0.8731,-1.3554,-0.3071,-0.2333,0.5328,-1.1404,-2.583,-1.3111,-0.9598,-0.8849
1.1888,-0.9722,1.1166,-0.5636,0.2631,-1.0542,0.8541,-1.3602,-0.3559,-0.2581,0.5005,-1.1465,-2.5962,-1.3094,-0.9878,-0.8854
1.1888,-0.9722,1.1166,-0.5636,0.2631,-1.0542,0.8541,-1.3602,-0.3559,-0.2581,0.5005,-1.1465,-2.5962,-1.3094,-0.9878,-0.8854
1.1605,-0.9789,1.1166,-0.5636,0.2334,-1.0538,0.8499,-1.3701,-0.4046,-0.2829,0.4747,-1.1514,-2.6042,-1.3066,-1.0032,-0.8938
1.1348,-0.9799,1.07,-0.5471,0.2167,-1.058,0.8204,-1.3597,-0.3559,-0.2581,0.4553,-1.1551,-2.6042,-1.3066,-1.0188,-0.8918
1.1348,-0.9799,1.07,-0.5471,0.2167,-1.058,0.8204,-1.3597,-0.3559,-0.2581,0.4553,-1.1551,-2.6042,-1.3066,-1.0188,-0.8918
1.1348,-0.9799,1.07,-0.5471,0.2167,-1.058,0.8204,-1.3597,-0.3559,-0.2581,0.4553,-1.1551,-2.6042,-1.3066,-1.0188,-0.8918
1.1266,-0.987,1.07,-0.5471,0.2084,-1.0601,0.8257,-1.3673,-0.3174,-0.3137,0.4425,-1.1575,-2.6014,-1.3106,-1.0312,-0.8943
1.1266,-0.987,1.07,-0.5471,0.2084,-1.0601,0.8257,-1.3673,-0.3174,-0.3137,0.4425,-1.1575,-2.6014,-1.3106,-1.0312,-0.8943
1.1153,-0.9897,1.07,-0.5471,0.2001,-1.0622,0.811,-1.3621,-0.23,-0.3446,0.436,-1.1587,-2.6094,-1.3078,-1.0404,-0.9015
1.1153,-0.9897,1.07,-0.5471,0.2001,-1.0622,0.811,-1.3621,-0.23,-0.3446,0.436,-1.1587,-2.6094,-1.3078,-1.0404,-0.9015
1.1153,-0.9897,1.07,-0.5471,0.2001,-1.0622,0.811,-1.3621,-0.23,-0.3446,0.436,-1.1587,-2.6094,-1.3078,-1.0404,-0.9015
1.0953,-0.9893,1.0491,-0.5677,0.1811,-1.0631,0.7921,-1.3669,-0.23,-0.3446,0.42,-1.1566,-2.6094,-1.3078,-1.0528,-0.904
1.0953,-0.9893,1.0491,-0.5677,0.1811,-1.0631,0.7921,-1.3669,-0.23,-0.3446,0.42,-1.1566,-2.6094,-1.3078,-1.0528,-0.904
1.0953,-0.9893,1.0491,-0.5677,0.1811,-1.0631,0.7921,-1.3669,-0.23,-0.3446,0.42,-1.1566,-2.6094,-1.3078,-1.0528,-0.904
1.0758,-0.9991,1.0491,-0.5677,0.1562,-1.0694,0.7732,-1.3716,-0.2685,-0.289,0.3879,-1.1627,-2.6279,-1.3073,-1.0805,-0.915
1.0503,-1.0001,1.0747,-0.6047,0.129,-1.0724,0.769,-1.3816,-0.3559,-0.2581,0.3655,-1.1722,-2.6383,-1.3097,-1.1051,-0.9201
1.0503,-1.0001,1.0747,-0.6047,0.129,-1.0724,0.769,-1.3816,-0.3559,-0.2581,0.3655,-1.1722,-2.6383,-1.3097,-1.1051,-0.9201
1.0503,-1.0001,1.0747,-0.6047,0.129,-1.0724,0.769,-1.3816,-0.3559,-0.2581,0.3655,-1.1722,-2.6383,-1.3097,-1.1051,-0.9201
1.0253,-1.0112,1.0747,-0.6047,0.1041,-1.0787,0.7502,-1.3863,-0.3662,-0.3382,0.3272,-1.1795,-2.6511,-1.3172,-1.1452,-0.9232
1.0253,-1.0112,1.0747,-0.6047,0.1041,-1.0787,0.7502,-1.3863,-0.3662,-0.3382,0.3272,-1.1795,-2.6511,-1.3172,-1.1452,-0.9232
0.9886,-1.0149,1.0282,-0.5882,0.0688,-1.0838,0.722,-1.3934,-0.3662,-0.3382,0.2953,-1.1856,-2.6695,-1.3167,-1.1727,-0.9341
0.9465,-1.0199,1.0074,-0.6087,0.0335,-1.089,0.6887,-1.393,-0.4147,-0.3627,0.2572,-1.193,-2.6879,-1.3163,-1.2125,-0.9372
0.9465,-1.0199,1.0074,-0.6087,0.0335,-1.089,0.6887,-1.393,-0.4147,-0.3627,0.2572,-1.193,-2.6879,-1.3163,-1.2125,-0.9372
0.9465,-1.0199,1.0074,-0.6087,0.0335,-1.089,0.6887,-1.393,-0.4147,-0.3627,0.2572,-1.193,-2.6879,-1.3163,-1.2125,-0.9372
0.9131,-1.028,0.9611,-0.5924,-0.0016,-1.0941,0.6606,-1.4001,-0.4147,-0.3627,0.2096,-1.197,-2.7035,-1.3198,-1.2491,-0.9449
0.9131,-1.028,0.9611,-0.5924,-0.0016,-1.0941,0.6606,-1.4001,-0.4147,-0.3627,0.2096,-1.197,-2.7035,-1.3198,-1.2491,-0.9449
0.8798,-1.0361,0.9149,-0.576,-0.0408,-1.1002,0.6326,-1.4073,-0.4631,-0.3871,0.1749,-1.2089,-2.7242,-1.3245,-1.2856,-0.9526
0.8798,-1.0361,0.9149,-0.576,-0.0408,-1.1002,0.6326,-1.4073,-0.4631,-0.3871,0.1749,-1.2089,-2.7242,-1.3245,-1.2856,-0.9526
0.841,-1.0455,0.8943,-0.5965,-0.0735,-1.1087,0.5994,-1.4069,-0.5493,-0.3566,0.1276,-1.2129,-2.7397,-1.3281,-1.322,-0.9602
0.841,-1.0455,0.8943,-0.5965,-0.0735,-1.1087,0.5994,-1.4069,-0.5493,-0.3566,0.1276,-1.2129,-2.7397,-1.3281,-1.322,-0.9602
0.841,-1.0455,0.8943,-0.5965,-0.0735,-1.1087,0.5994,-1.4069,-0.5493,-0.3566,0.1276,-1.2129,-2.7397,-1.3281,-1.322,-0.9602
0.8023,-1.0549,0.8023,-0.564,-0.1125,-1.1149,0.5715,-1.414,-0.6351,-0.3263,0.0931,-1.2248,-2.7604,-1.3328,-1.3583,-0.9679
0.7583,-1.0657,0.7819,-0.5845,-0.1491,-1.1243,0.5344,-1.4235,-0.6351,-0.3263,0.0493,-1.2334,-2.7759,-1.3363,-1.3946,-0.9756
0.7583,-1.0657,0.7819,-0.5845,-0.1491,-1.1243,0.5344,-1.4235,-0.6351,-0.3263,0.0493,-1.2334,-2.7759,-1.3363,-1.3946,-0.9756
0.7089,-1.0777,0.7412,-0.6254,-0.2023,-1.1304,0.483,-1.4279,-0.6351,-0.3263,0.0056,-1.242,-2.7993,-1.337,-1.4367,-0.9845
0.7089,-1.0777,0.7412,-0.6254,-0.2023,-1.1304,0.483,-1.4279,-0.6351,-0.3263,0.0056,-1.242,-2.7993,-1.337,-1.4367,-0.9845
0.7089,-1.0777,0.7412,-0.6254,-0.2023,-1.1304,0.483,-1.4279,-0.6351,-0.3263,0.0056,-1.242,-2.7993,-1.337,-1.4367,-0.9845
0.7089,-1.0777,0.7412,-0.6254,-0.2023,-1.1304,0.483,-1.4279,-0.6351,-0.3263,0.0056,-1.242,-2.7993,-1.337,-1.4367,-0.9845
0.627,-1.0979,0.6956,-0.6092,-0.2794,-1.1428,0.4277,-1.4421,-0.5972,-0.3811,-0.0907,-1.2558,-2.8353,-1.3453,-1.5146,-1.0011
0.627,-1.0979,0.6956,-0.6092,-0.2794,-1.1428,0.4277,-1.4421,-0.5972,-0.3811,-0.0907,-1.2558,-2.8353,-1.3453,-1.5146,-1.0011
0.6022,-1.0989,0.6754,-0.6296,-0.2978,-1.1437,0.4094,-1.4469,-0.5972,-0.3811,-0.1216,-1.2619,-2.8405,-1.3465,-1.5325,-1.0049
0.6022,-1.0989,0.6754,-0.6296,-0.2978,-1.1437,0.4094,-1.4469,-0.5972,-0.3811,-0.1216,-1.2619,-2.8405,-1.3465,-1.5325,-1.0049
0.6155,-1.0906,0.7209,-0.6457,-0.2754,-1.1418,0.4042,-1.4394,-0.5972,-0.3811,-0.1124,-1.255,-2.8302,-1.3441,-1.5237,-0.9979
0.6919,-1.0717,0.7665,-0.6618,-0.2063,-1.1315,0.4553,-1.435,-0.6351,-0.3263,-0.0349,-1.2448,-2.8123,-1.3354,-1.4578,-0.9838
0.6919,-1.0717,0.7665,-0.6618,-0.2063,-1.1315,0.4553,-1.435,-0.6351,-0.3263,-0.0349,-1.2448,-2.8123,-1.3354,-1.4578,-0.9838
0.6919,-1.0717,0.7665,-0.6618,-0.2063,-1.1315,0.4553,-1.435,-0.6351,-0.3263,-0.0349,-1.2448,-2.8123,-1.3354,-1.4578,-0.9838
0.8098,-1.0378,0.8073,-0.6211,-0.1107,-1.1105,0.5055,-1.4133,-0.5012,-0.3321,0.0805,-1.2169,-2.7735,-1.3312,-1.3646,-0.9589
0.8098,-1.0378,0.8073,-0.6211,-0.1107,-1.1105,0.5055,-1.4133,-0.5012,-0.3321,0.0805,-1.2169,-2.7735,-1.3312,-1.3646,-0.9589
0.9348,-1.0125,0.8943,-0.5965,0.0043,-1.0886,0.5942,-1.3994,-0.453,-0.3075,0.2223,-1.1945,-2.7346,-1.3269,-1.2493,-0.9345
0.9348,-1.0125,0.8943,-0.5965,0.0043,-1.0886,0.5942,-1.3994,-0.453,-0.3075,0.2223,-1.1945,-2.7346,-1.3269,-1.2493,-0.9345
0.9348,-1.0125,0.8943,-0.5965,0.0043,-1.0886,0.5942,-1.3994,-0.453,-0.3075,0.2223,-1.1945,-2.7346,-1.3269,-1.2493,-0.9345
1.0498,-0.9899,1.0074,-0.6087,0.0995,-1.0721,0.6887,-1.393,-0.453,-0.3075,0.3399,-1.1666,-2.7007,-1.3238,-1.1453,-0.9128
1.0498,-0.9899,1.0074,-0.6087,0.0995,-1.0721,0.6887,-1.393,-0.453,-0.3075,0.3399,-1.1666,-2.7007,-1.3238,-1.1453,-0.9128
1.1853,-0.9575,1.1166,-0.5636,0.2311,-1.0504,0.8026,-1.382,-0.2791,-0.369,0.494,-1.1372,-2.664,-1.3247,-1.0064,-0.8892
1.1853,-0.9575,1.1166,-0.5636,0.2311,-1.0504,0.8026,-1.382,-0.2791,-0.369,0.494,-1.1372,-2.664,-1.3247,-1.0064,-0.8892
1.1853,-0.9575,1.1166,-0.5636,0.2311,-1.0504,0.8026,-1.382,-0.2791,-0.369,0.494,-1.1372,-2.664,-1.3247,-1.0064,-0.8892
1.2136,-0.9507,1.2102,-0.5967,0.2603,-1.043,0.8362,-1.3825,-0.2791,-0.369,0.5199,-1.1323,-2.6588,-1.3235,-0.9816,-0.8841
1.2136,-0.9507,1.2102,-0.5967,0.2603,-1.043,0.8362,-1.3825,-0.2791,-0.369,0.5199,-1.1323,-2.6588,-1.3235,-0.9816,-0.8841
1.2281,-0.9525,1.2314,-0.5761,0.2752,-1.0432,0.8457,-1.3801,-0.2791,-0.369,0.5393,-1.1392,-2.6588,-1.3235,-0.9754,-0.8828
1.2281,-0.9525,1.2314,-0.5761,0.2752,-1.0432,0.8457,-1.3801,-0.2791,-0.369,0.5393,-1.1392,-2.6588,-1.3235,-0.9754,-0.8828
1.2281,-0.9525,1.2314,-0.5761,0.2752,-1.0432,0.8457,-1.3801,-0.2791,-0.369,0.5393,-1.1392,-2.6588,-1.3235,-0.9754,-0.8828
1.2167,-0.9552,1.2314,-0.5761,0.271,-1.0443,0.8457,-1.3801,-0.2791,-0.369,0.5231,-1.137,-2.664,-1.3247,-0.9816,-0.8841
1.2028,-0.9637,1.2314,-0.5761,0.2543,-1.0485,0.8215,-1.3773,-0.3662,-0.3382,0.4972,-1.1419,-2.6744,-1.3271,-0.9908,-0.8912
1.2028,-0.9637,1.2314,-0.5761,0.2543,-1.0485,0.8215,-1.3773,-0.3662,-0.3382,0.4972,-1.1419,-2.6744,-1.3271,-0.9908,-0.8912
1.1687,-0.9718,1.1634,-0.5801,0.2251,-1.0559,0.7931,-1.3844,-0.3279,-0.3934,0.4747,-1.1514,-2.6796,-1.3283,-1.0094,-0.8951
1.1687,-0.9718,1.1634,-0.5801,0.2251,-1.0559,0.7931,-1.3844,-0.3279,-0.3934,0.4747,-1.1514,-2.6796,-1.3283,-1.0094,-0.8951
1.1404,-0.9785,1.1423,-0.6006,0.2065,-1.0645,0.769,-1.3816,-0.3279,-0.3934,0.4489,-1.1563,-2.682,-1.3334,-1.0342,-0.9002
1.1404,-0.9785,1.1423,-0.6006,0.2065,-1.0645,0.769,-1.3816,-0.3279,-0.3934,0.4489,-1.1563,-2.682,-1.3334,-1.0342,-0.9002
1.1266,-0.987,1.1166,-0.5636,0.1899,-1.0687,0.7743,-1.3891,-0.453,-0.3075,0.4168,-1.1624,-2.6952,-1.3318,-1.0621,-0.9007
1.1266,-0.987,1.1166,-0.5636,0.1899,-1.0687,0.7743,-1.3891,-0.453,-0.3075,0.4168,-1.1624,-2.6952,-1.3318,-1.0621,-0.9007
1.0978,-0.9835,1.1423,-0.6006,0.1709,-1.0696,0.7596,-1.3839,-0.453,-0.3075,0.3975,-1.1661,-2.6924,-1.3358,-1.0745,-0.9033
1.0978,-0.9835,1.1423,-0.6006,0.1709,-1.0696,0.7596,-1.3839,-0.453,-0.3075,0.3975,-1.1661,-2.6924,-1.3358,-1.0745,-0.9033
1.0866,-0.9862,1.0956,-0.5842,0.1562,-1.0694,0.7502,-1.3863,-0.453,-0.3075,0.3815,-1.1639,-2.7004,-1.333,-1.0868,-0.9058
1.0866,-0.9862,1.0956,-0.5842,0.1562,-1.0694,0.7502,-1.3863,-0.453,-0.3075,0.3815,-1.1639,-2.7004,-1.333,-1.0868,-0.9058
1.0866,-0.9862,1.0956,-0.5842,0.1562,-1.0694,0.7502,-1.3863,-0.453,-0.3075,0.3815,-1.1639,-2.7004,-1.333,-1.0868,-0.9058
1.0753,-0.9889,1.07,-0.5471,0.1502,-1.0749,0.7356,-1.3811,-0.453,-0.3075,0.3687,-1.1663,-2.6976,-1.3369,-1.0991,-0.9084
1.0753,-0.9889,1.07,-0.5471,0.1502,-1.0749,0.7356,-1.3811,-0.453,-0.3075,0.3687,-1.1663,-2.6976,-1.3369,-1.0991,-0.9084
1.0753,-0.9889,1.07,-0.5471,0.1502,-1.0749,0.7356,-1.3811,-0.453,-0.3075,0.3687,-1.1663,-2.6976,-1.3369,-1.0991,-0.9084
1.0472,-0.9957,1.07,-0.5471,0.1188,-1.0789,0.7314,-1.3911,-0.3662,-0.3382,0.3431,-1.1712,-2.7107,-1.3353,-1.1299,-0.9148
1.0472,-0.9957,1.07,-0.5471,0.1188,-1.0789,0.7314,-1.3911,-0.3662,-0.3382,0.3431,-1.1712,-2.7107,-1.3353,-1.1299,-0.9148
1.0472,-0.9957,1.07,-0.5471,0.1188,-1.0789,0.7314,-1.3911,-0.3662,-0.3382,0.3431,-1.1712,-2.7107,-1.3353,-1.1299,-0.9148
1.0217,-0.9967,1.0491,-0.5677,0.0982,-1.0842,0.7022,-1.3807,-0.3662,-0.3382,0.324,-1.1749,-2.7211,-1.3377,-1.1452,-0.9232
1.0024,-1.0065,1.0491,-0.5677,0.067,-1.0882,0.6741,-1.3879,-0.4147,-0.3627,0.2857,-1.1823,-2.7418,-1.3424,-1.1912,-0.9276
0.9658,-1.0101,1.0026,-0.5513,0.0294,-1.09,0.6554,-1.3926,-0.4147,-0.3627,0.2572,-1.193,-2.7601,-1.3419,-1.2186,-0.9385
0.9658,-1.0101,1.0026,-0.5513,0.0294,-1.09,0.6554,-1.3926,-0.4147,-0.3627,0.2572,-1.193,-2.7601,-1.3419,-1.2186,-0.9385
0.9658,-1.0101,1.0026,-0.5513,0.0294,-1.09,0.6554,-1.3926,-0.4147,-0.3627,0.2572,-1.193,-2.7601,-1.3419,-1.2186,-0.9385
0.9354,-1.0226,0.9818,-0.5719,-0.0058,-1.0951,0.6273,-1.3997,-0.4631,-0.3871,0.2192,-1.2003,-2.7756,-1.3454,-1.2584,-0.9416
0.9354,-1.0226,0.9818,-0.5719,-0.0058,-1.0951,0.6273,-1.3997,-0.4631,-0.3871,0.2192,-1.2003,-2.7756,-1.3454,-1.2584,-0.9416
0.9354,-1.0226,0.9818,-0.5719,-0.0058,-1.0951,0.6273,-1.3997,-0.4631,-0.3871,0.2192,-1.2003,-2.7756,-1.3454,-1.2584,-0.9416
0.8964,-1.032,0.9611,-0.5924,-0.0472,-1.098,0.5942,-1.3994,-0.5113,-0.4114,0.1717,-1.2043,-2.7859,-1.3478,-1.2948,-0.9493
0.8964,-1.032,0.9611,-0.5924,-0.0472,-1.098,0.5942,-1.3994,-0.5113,-0.4114,0.1717,-1.2043,-2.7859,-1.3478,-1.2948,-0.9493
0.8964,-1.032,0.9611,-0.5924,-0.0472,-1.098,0.5942,-1.3994,-0.5113,-0.4114,0.1717,-1.2043,-2.7859,-1.3478,-1.2948,-0.9493
0.8576,-1.0415,0.9404,-0.6128,-0.084,-1.1075,0.5715,-1.414,-0.5113,-0.4114,0.1371,-1.2162,-2.8013,-1.3513,-1.3312,-0.957
0.8576,-1.0415,0.9404,-0.6128,-0.084,-1.1075,0.5715,-1.414,-0.5113,-0.4114,0.1371,-1.2162,-2.8013,-1.3513,-1.3312,-0.957
0.7858,-1.0589,0.8482,-0.5803,-0.1577,-1.1188,0.5303,-1.4333,-0.4735,-0.466,0.043,-1.2243,-2.835,-1.3544,-1.3946,-0.9756
0.7858,-1.0589,0.8482,-0.5803,-0.1577,-1.1188,0.5303,-1.4333,-0.4735,-0.466,0.043,-1.2243,-2.835,-1.3544,-1.3946,-0.9756
0.7363,-1.071,0.8073,-0.6211,-0.1982,-1.1294,0.4789,-1.4377,-0.5593,-0.4357,-0.0038,-1.2386,-2.8634,-1.3563,-1.4427,-0.9858
0.7363,-1.071,0.8073,-0.6211,-0.1982,-1.1294,0.4789,-1.4377,-0.5593,-0.4357,-0.0038,-1.2386,-2.8634,-1.3563,-1.4427,-0.9858
0.6925,-1.0818,0.7615,-0.605,-0.2409,-1.1366,0.4421,-1.4472,-0.6449,-0.4054,-0.0473,-1.2472,-2.8839,-1.361,-1.4878,-0.9902
0.6925,-1.0818,0.7615,-0.605,-0.2409,-1.1366,0.4421,-1.4472,-0.6449,-0.4054,-0.0473,-1.2472,-2.8839,-1.361,-1.4878,-0.9902
0.6925,-1.0818,0.7615,-0.605,-0.2409,-1.1366,0.4421,-1.4472,-0.6449,-0.4054,-0.0473,-1.2472,-2.8839,-1.361,-1.4878,-0.9902
0.6488,-1.0925,0.7412,-0.6254,-0.2834,-1.1439,0.4002,-1.4492,-0.6924,-0.4297,-0.0907,-1.2558,-2.9043,-1.3657,-1.5175,-1.0069
0.5998,-1.1046,0.6501,-0.5932,-0.3299,-1.1522,0.3727,-1.4563,-0.6924,-0.4297,-0.134,-1.2644,-2.9275,-1.3665,-1.5624,-1.0113
0.5558,-1.1053,0.6299,-0.6136,-0.3601,-1.1563,0.3453,-1.4634,-0.7774,-0.3997,-0.1803,-1.2685,-2.9377,-1.3689,-1.5921,-1.0177
0.5558,-1.1053,0.6299,-0.6136,-0.3601,-1.1563,0.3453,-1.4634,-0.7774,-0.3997,-0.1803,-1.2685,-2.9377,-1.3689,-1.5921,-1.0177
0.5558,-1.1053,0.6299,-0.6136,-0.3601,-1.1563,0.3453,-1.4634,-0.7774,-0.3997,-0.1803,-1.2685,-2.9377,-1.3689,-1.5921,-1.0177
0.5667,-1.1026,0.7006,-0.666,-0.3521,-1.1542,0.3453,-1.4634,-0.862,-0.3698,-0.1864,-1.2697,-2.9326,-1.3677,-1.5921,-1.0177
0.5667,-1.1026,0.7006,-0.666,-0.3521,-1.1542,0.3453,-1.4634,-0.862,-0.3698,-0.1864,-1.2697,-2.9326,-1.3677,-1.5921,-1.0177
0.6264,-1.0879,0.7209,-0.6457,-0.3,-1.1405,0.3675,-1.4489,-0.8151,-0.3453,-0.1371,-1.2599,-2.9122,-1.363,-1.5567,-0.9998
0.6264,-1.0879,0.7209,-0.6457,-0.3,-1.1405,0.3675,-1.4489,-0.8151,-0.3453,-0.1371,-1.2599,-2.9122,-1.363,-1.5567,-0.9998
0.6264,-1.0879,0.7209,-0.6457,-0.3,-1.1405,0.3675,-1.4489,-0.8151,-0.3453,-0.1371,-1.2599,-2.9122,-1.363,-1.5567,-0.9998
0.7273,-1.058,0.7869,-0.6415,-0.2068,-1.1238,0.4369,-1.4398,-0.6827,-0.3508,-0.0225,-1.232,-2.8685,-1.3575,-1.4581,-0.9735
0.8485,-1.0283,0.8991,-0.6536,-0.0903,-1.1052,0.5107,-1.4208,-0.5493,-0.3566,0.1213,-1.2038,-2.8274,-1.3481,-1.3375,-0.9479
0.9739,-1.003,1.0329,-0.6455,0.0166,-1.0855,0.6046,-1.4144,-0.4147,-0.3627,0.2667,-1.1859,-2.7886,-1.3438,-1.222,-0.9236
0.9739,-1.003,1.0329,-0.6455,0.0166,-1.0855,0.6046,-1.4144,-0.4147,-0.3627,0.2667,-1.1859,-2.7886,-1.3438,-1.222,-0.9236
1.0835,-0.9818,1.0747,-0.6047,0.1248,-1.0735,0.6699,-1.3978,-0.2791,-0.369,0.3815,-1.1639,-2.768,-1.3391,-1.1239,-0.9031
1.0835,-0.9818,1.0747,-0.6047,0.1248,-1.0735,0.6699,-1.3978,-0.2791,-0.369,0.3815,-1.1639,-2.768,-1.3391,-1.1239,-0.9031
1.0835,-0.9818,1.0747,-0.6047,0.1248,-1.0735,0.6699,-1.3978,-0.2791,-0.369,0.3815,-1.1639,-2.768,-1.3391,-1.1239,-0.9031
1.16,-0.9687,1.1166,-0.5636,0.1894,-1.061,0.7408,-1.3887,-0.2408,-0.4241,0.4553,-1.1551,-2.7497,-1.3396,-1.0529,-0.8936
1.16,-0.9687,1.1166,-0.5636,0.1894,-1.061,0.7408,-1.3887,-0.2408,-0.4241,0.4553,-1.1551,-2.7497,-1.3396,-1.0529,-0.8936
1.16,-0.9687,1.1166,-0.5636,0.1894,-1.061,0.7408,-1.3887,-0.2408,-0.4241,0.4553,-1.1551,-2.7497,-1.3396,-1.0529,-0.8936
1.2084,-0.9623,1.1845,-0.5596,0.2334,-1.0538,0.769,-1.3816,-0.2791,-0.369,0.5037,-1.1511,-2.7394,-1.3372,-1.0096,-0.8846
1.2343,-0.9614,1.2056,-0.5389,0.2585,-1.0474,0.7973,-1.3744,-0.3662,-0.3382,0.5199,-1.1428,-2.7394,-1.3372,-0.9848,-0.8795
1.2343,-0.9614,1.2056,-0.5389,0.2585,-1.0474,0.7973,-1.3744,-0.3662,-0.3382,0.5199,-1.1428,-2.7394,-1.3372,-0.9848,-0.8795
1.2488,-0.9631,1.2526,-0.5556,0.2692,-1.0487,0.8068,-1.3721,-0.3662,-0.3382,0.5263,-1.1416,-2.7315,-1.34,-0.9692,-0.8815
1.2488,-0.9631,1.2526,-0.5556,0.2692,-1.0487,0.8068,-1.3721,-0.3662,-0.3382,0.5263,-1.1416,-2.7315,-1.34,-0.9692,-0.8815
1.2431,-0.9645,1.2526,-0.5556,0.265,-1.0497,0.812,-1.3796,-0.3662,-0.3382,0.5134,-1.1441,-2.7366,-1.3412,-0.9816,-0.8841
1.2431,-0.9645,1.2526,-0.5556,0.265,-1.0497,0.812,-1.3796,-0.3662,-0.3382,0.5134,-1.1441,-2.7366,-1.3412,-0.9816,-0.8841
1.2172,-0.9654,1.2056,-0.5389,0.2483,-1.054,0.812,-1.3796,-0.3279,-0.3934,0.494,-1.1477,-2.7366,-1.3412,-0.994,-0.8866
1.2172,-0.9654,1.2056,-0.5389,0.2483,-1.054,0.812,-1.3796,-0.3279,-0.3934,0.494,-1.1477,-2.7366,-1.3412,-0.994,-0.8866
1.2172,-0.9654,1.2056,-0.5389,0.2483,-1.054,0.812,-1.3796,-0.3279,-0.3934,0.494,-1.1477,-2.7366,-1.3412,-0.994,-0.8866
1.1692,-0.982,1.1587,-0.5224,0.1936,-1.0599,0.7837,-1.3867,-0.3279,-0.3934,0.4457,-1.1621,-2.747,-1.3435,-1.0468,-0.8923
1.1692,-0.982,1.1587,-0.5224,0.1936,-1.0599,0.7837,-1.3867,-0.3279,-0.3934,0.4457,-1.1621,-2.747,-1.3435,-1.0468,-0.8923
1.1692,-0.982,1.1587,-0.5224,0.1936,-1.0599,0.7837,-1.3867,-0.3279,-0.3934,0.4457,-1.1621,-2.747,-1.3435,-1.0468,-0.8923
1.1466,-0.9874,1.1845,-0.5596,0.1769,-1.0641,0.7743,-1.3891,-0.4147,-0.3627,0.4168,-1.1624,-2.7549,-1.3407,-1.0653,-0.8961
1.1466,-0.9874,1.1845,-0.5596,0.1769,-1.0641,0.7743,-1.3891,-0.4147,-0.3627,0.4168,-1.1624,-2.7549,-1.3407,-1.0653,-0.8961
1.1296,-0.9914,1.1845,-0.5596,0.1645,-1.0673,0.7649,-1.3915,-0.3279,-0.3934,0.4103,-1.1741,-2.7521,-1.3447,-1.087,-0.8954
1.1296,-0.9914,1.1845,-0.5596,0.1645,-1.0673,0.7649,-1.3915,-0.3279,-0.3934,0.4103,-1.1741,-2.7521,-1.3447,-1.087,-0.8954
1.1096,-0.991,1.1376,-0.543,0.1497,-1.0671,0.7502,-1.3863,-0.453,-0.3075,0.3879,-1.1731,-2.7601,-1.3419,-1.0961,-0.9025
1.1096,-0.991,1.1376,-0.543,0.1497,-1.0671,0.7502,-1.3863,-0.453,-0.3075,0.3879,-1.1731,-2.7601,-1.3419,-1.0961,-0.9025
1.0983,-0.9937,1.1634,-0.5801,0.1373,-1.0703,0.7408,-1.3887,-0.4147,-0.3627,0.3751,-1.1756,-2.7652,-1.3431,-1.1085,-0.9051
1.0983,-0.9937,1.1634,-0.5801,0.1373,-1.0703,0.7408,-1.3887,-0.4147,-0.3627,0.3751,-1.1756,-2.7652,-1.3431,-1.1085,-0.9051
1.0983,-0.9937,1.1634,-0.5801,0.1373,-1.0703,0.7408,-1.3887,-0.4147,-0.3627,0.3751,-1.1756,-2.7652,-1.3431,-1.1085,-0.9051
1.0901,-1.0008,1.1166,-0.5636,0.1207,-1.0745,0.7262,-1.3835,-0.4147,-0.3627,0.3527,-1.1746,-2.7652,-1.3431,-1.1301,-0.9044
1.0901,-1.0008,1.1166,-0.5636,0.1207,-1.0745,0.7262,-1.3835,-0.4147,-0.3627,0.3527,-1.1746,-2.7652,-1.3431,-1.1301,-0.9044
1.0901,-1.0008,1.1166,-0.5636,0.1207,-1.0745,0.7262,-1.3835,-0.4147,-0.3627,0.3527,-1.1746,-2.7652,-1.3431,-1.1301,-0.9044
1.0452,-1.0116,1.1213,-0.6211,0.0729,-1.0828,0.6741,-1.3879,-0.4251,-0.4418,0.3112,-1.1878,-2.7859,-1.3478,-1.1792,-0.9146
1.0452,-1.0116,1.1213,-0.6211,0.0729,-1.0828,0.6741,-1.3879,-0.4251,-0.4418,0.3112,-1.1878,-2.7859,-1.3478,-1.1792,-0.9146
1.0227,-1.017,1.0956,-0.5842,0.0523,-1.0881,0.6647,-1.3902,-0.5113,-0.4114,0.2762,-1.1893,-2.7989,-1.3462,-1.2005,-0.9243
1.0227,-1.017,1.0956,-0.5842,0.0523,-1.0881,0.6647,-1.3902,-0.5113,-0.4114,0.2762,-1.1893,-2.7989,-1.3462,-1.2005,-0.9243
1.0227,-1.017,1.0956,-0.5842,0.0523,-1.0881,0.6647,-1.3902,-0.5113,-0.4114,0.2762,-1.1893,-2.7989,-1.3462,-1.2005,-0.9243
0.9947,-1.0237,1.0747,-0.6047,0.0235,-1.0954,0.646,-1.395,-0.4735,-0.466,0.2477,-1.2,-2.8171,-1.3457,-1.2371,-0.932
0.9556,-1.0331,1.0282,-0.5882,-0.0052,-1.1028,0.6128,-1.3946,-0.5593,-0.4357,0.2097,-1.2074,-2.8247,-1.3521,-1.2644,-0.9429
0.9278,-1.0398,1.0026,-0.5513,-0.0362,-1.1069,0.6087,-1.4045,-0.5593,-0.4357,0.1655,-1.2159,-2.8428,-1.3516,-1.3009,-0.9506
0.9278,-1.0398,1.0026,-0.5513,-0.0362,-1.1069,0.6087,-1.4045,-0.5593,-0.4357,0.1655,-1.2159,-2.8428,-1.3516,-1.3009,-0.9506
0.9278,-1.0398,1.0026,-0.5513,-0.0362,-1.1069,0.6087,-1.4045,-0.5593,-0.4357,0.1655,-1.2159,-2.8428,-1.3516,-1.3009,-0.9506
0.8748,-1.0475,0.9611,-0.5924,-0.0794,-1.1141,0.5715,-1.414,-0.5593,-0.4357,0.1277,-1.2233,-2.8582,-1.3551,-1.3373,-0.9583
0.8748,-1.0475,0.9611,-0.5924,-0.0794,-1.1141,0.5715,-1.414,-0.5593,-0.4357,0.1277,-1.2233,-2.8582,-1.3551,-1.3373,-0.9583
0.8415,-1.0556,0.9611,-0.5924,-0.1183,-1.1203,0.5529,-1.4187,-0.6449,-0.4054,0.0837,-1.2318,-2.8736,-1.3587,-1.3736,-0.9659
0.8415,-1.0556,0.9611,-0.5924,-0.1183,-1.1203,0.5529,-1.4187,-0.6449,-0.4054,0.0837,-1.2318,-2.8736,-1.3587,-1.3736,-0.9659
0.8415,-1.0556,0.9611,-0.5924,-0.1183,-1.1203,0.5529,-1.4187,-0.6449,-0.4054,0.0837,-1.2318,-2.8736,-1.3587,-1.3736,-0.9659
0.8004,-1.0707,0.8943,-0.5965,-0.1613,-1.1275,0.5159,-1.4282,-0.6072,-0.4598,0.0399,-1.2404,-2.889,-1.3622,-1.4158,-0.9749
0.8004,-1.0707,0.8943,-0.5965,-0.1613,-1.1275,0.5159,-1.4282,-0.6072,-0.4598,0.0399,-1.2404,-2.889,-1.3622,-1.4158,-0.9749
0.7264,-1.0938,0.8023,-0.564,-0.2426,-1.1409,0.4461,-1.4374,-0.6924,-0.4297,-0.0473,-1.2575,-2.9275,-1.3665,-1.4907,-0.996
0.7264,-1.0938,0.8023,-0.564,-0.2426,-1.1409,0.4461,-1.4374,-0.6924,-0.4297,-0.0473,-1.2575,-2.9275,-1.3665,-1.4907,-0.996
0.7264,-1.0938,0.8023,-0.564,-0.2426,-1.1409,0.4461,-1.4374,-0.6924,-0.4297,-0.0473,-1.2575,-2.9275,-1.3665,-1.4907,-0.996
0.6687,-1.1028,0.7615,-0.605,-0.2955,-1.147,0.395,-1.4418,-0.7774,-0.3997,-0.0968,-1.2673,-2.9479,-1.3712,-1.5325,-1.0049
0.6687,-1.1028,0.7615,-0.605,-0.2955,-1.147,0.395,-1.4418,-0.7774,-0.3997,-0.0968,-1.2673,-2.9479,-1.3712,-1.5325,-1.0049
0.6687,-1.1028,0.7615,-0.605,-0.2955,-1.147,0.395,-1.4418,-0.7774,-0.3997,-0.0968,-1.2673,-2.9479,-1.3712,-1.5325,-1.0049
0.6251,-1.1135,0.7158,-0.5888,-0.3379,-1.1543,0.3675,-1.4489,-0.8244,-0.424,-0.1308,-1.2792,-2.9632,-1.3747,-1.5774,-1.0094
0.6251,-1.1135,0.7158,-0.5888,-0.3379,-1.1543,0.3675,-1.4489,-0.8244,-0.424,-0.1308,-1.2792,-2.9632,-1.3747,-1.5774,-1.0094
0.5949,-1.1159,0.6956,-0.6092,-0.3601,-1.1563,0.335,-1.4486,-0.7774,-0.3997,-0.1554,-1.284,-2.9632,-1.3747,-1.5893,-1.0119
0.6167,-1.1105,0.6703,-0.5727,-0.3401,-1.151,0.3441,-1.4462,-0.7774,-0.3997,-0.1586,-1.2795,-2.9608,-1.3696,-1.5774,-1.0094
0.6167,-1.1105,0.6703,-0.5727,-0.3401,-1.151,0.3441,-1.4462,-0.7774,-0.3997,-0.1586,-1.2795,-2.9608,-1.3696,-1.5774,-1.0094
0.6845,-1.0888,0.7615,-0.605,-0.2736,-1.1374,0.3899,-1.4344,-0.6924,-0.4297,-0.0907,-1.2661,-2.9326,-1.3677,-1.5268,-0.9934
0.6845,-1.0888,0.7615,-0.605,-0.2736,-1.1374,0.3899,-1.4344,-0.6924,-0.4297,-0.0907,-1.2661,-2.9326,-1.3677,-1.5268,-0.9934
0.7943,-1.062,0.7819,-0.5845,-0.1676,-1.1253,0.4594,-1.4252,-0.6072,-0.4598,0.0337,-1.2416,-2.8917,-1.3583,-1.4249,-0.9716
0.7943,-1.062,0.7819,-0.5845,-0.1676,-1.1253,0.4594,-1.4252,-0.6072,-0.4598,0.0337,-1.2416,-2.8917,-1.3583,-1.4249,-0.9716
0.9247,-1.0354,0.8943,-0.5965,-0.0531,-1.1034,0.5333,-1.4062,-0.5593,-0.4357,0.1939,-1.2156,-2.848,-1.3528,-1.3133,-0.9428
0.9247,-1.0354,0.8943,-0.5965,-0.0531,-1.1034,0.5333,-1.4062,-0.5593,-0.4357,0.1939,-1.2156,-2.848,-1.3528,-1.3133,-0.9428
0.9247,-1.0354,0.8943,-0.5965,-0.0531,-1.1034,0.5333,-1.4062,-0.5593,-0.4357,0.1939,-1.2156,-2.848,-1.3528,-1.3133,-0.9428
1.0421,-1.0072,1.0491,-0.5677,0.0605,-1.0859,0.6367,-1.3974,-0.4251,-0.4418,0.3208,-1.1912,-2.8171,-1.3457,-1.1914,-0.9172
1.1409,-0.9887,1.1166,-0.5636,0.1479,-1.0715,0.7074,-1.3883,-0.3766,-0.4176,0.4168,-1.1729,-2.7886,-1.3438,-1.0961,-0.9025
1.1409,-0.9887,1.1166,-0.5636,0.1479,-1.0715,0.7074,-1.3883,-0.3766,-0.4176,0.4168,-1.1729,-2.7886,-1.3438,-1.0961,-0.9025
1.2032,-0.9739,1.1587,-0.5224,0.2084,-1.0601,0.7544,-1.3764,-0.2898,-0.4483,0.4811,-1.1607,-2.7704,-1.3443,-1.0344,-0.8897
1.2032,-0.9739,1.1587,-0.5224,0.2084,-1.0601,0.7544,-1.3764,-0.2898,-0.4483,0.4811,-1.1607,-2.7704,-1.3443,-1.0344,-0.8897
1.2462,-0.9689,1.2056,-0.5389,0.2483,-1.054,0.7879,-1.3768,-0.2898,-0.4483,0.5198,-1.1533,-2.7652,-1.3431,-0.9972,-0.882
1.2462,-0.9689,1.2056,-0.5389,0.2483,-1.054,0.7879,-1.3768,-0.2898,-0.4483,0.5198,-1.1533,-2.7652,-1.3431,-0.9972,-0.882
1.272,-0.968,1.2526,-0.5556,0.2715,-1.052,0.8068,-1.3721,-0.2408,-0.4241,0.5489,-1.1531,-2.7549,-1.3407,-0.9724,-0.8769
1.272,-0.968,1.2526,-0.5556,0.2715,-1.052,0.8068,-1.3721,-0.2408,-0.4241,0.5489,-1.1531,-2.7549,-1.3407,-0.9724,-0.8769
1.2865,-0.9698,1.3211,-0.5516,0.2864,-1.0522,0.8457,-1.3801,-0.2408,-0.4241,0.5554,-1.1519,-2.7549,-1.3407,-0.9661,-0.8756
1.2865,-0.9698,1.3211,-0.5516,0.2864,-1.0522,0.8457,-1.3801,-0.2408,-0.4241,0.5554,-1.1519,-2.7549,-1.3407,-0.9661,-0.8756
1.2865,-0.9698,1.3211,-0.5516,0.2864,-1.0522,0.8457,-1.3801,-0.2408,-0.4241,0.5554,-1.1519,-2.7549,-1.3407,-0.9661,-0.8756
1.2865,-0.9698,1.3211,-0.5516,0.2864,-1.0522,0.8457,-1.3801,-0.2408,-0.4241,0.5554,-1.1519,-2.7549,-1.3407,-0.9661,-0.8756
1.258,-0.9765,1.3425,-0.5309,0.2696,-1.0564,0.8404,-1.3725,-0.3766,-0.4176,0.5263,-1.1626,-2.7546,-1.3499,-1.0004,-0.8774
1.2528,-0.9881,1.3684,-0.5683,0.2464,-1.0584,0.8215,-1.3773,-0.3766,-0.4176,0.5004,-1.1675,-2.7625,-1.3471,-1.0158,-0.8859
1.2528,-0.9881,1.3684,-0.5683,0.2464,-1.0584,0.8215,-1.3773,-0.3766,-0.4176,0.5004,-1.1675,-2.7625,-1.3471,-1.0158,-0.8859
1.2528,-0.9881,1.3684,-0.5683,0.2464,-1.0584,0.8215,-1.3773,-0.3766,-0.4176,0.5004,-1.1675,-2.7625,-1.3471,-1.0158,-0.8859
1.23,-0.9934,1.3211,-0.5516,0.232,-1.0659,0.8068,-1.3721,-0.4631,-0.3871,0.4714,-1.1677,-2.7676,-1.3482,-1.0344,-0.8897
1.23,-0.9934,1.3211,-0.5516,0.232,-1.0659,0.8068,-1.3721,-0.4631,-0.3871,0.4714,-1.1677,-2.7676,-1.3482,-1.0344,-0.8897
1.23,-0.9934,1.3211,-0.5516,0.232,-1.0659,0.8068,-1.3721,-0.4631,-0.3871,0.4714,-1.1677,-2.7676,-1.3482,-1.0344,-0.8897
1.1872,-0.9984,1.2997,-0.5722,0.1964,-1.071,0.7827,-1.3692,-0.3766,-0.4176,0.4392,-1.1738,-2.7704,-1.3443,-1.0559,-0.8994
1.1872,-0.9984,1.2997,-0.5722,0.1964,-1.071,0.7827,-1.3692,-0.3766,-0.4176,0.4392,-1.1738,-2.7704,-1.3443,-1.0559,-0.8994
1.182,-1.0099,1.2784,-0.5928,0.1797,-1.0752,0.7785,-1.3792,-0.4147,-0.3627,0.4264,-1.1763,-2.7783,-1.3415,-1.0683,-0.902
1.182,-1.0099,1.2784,-0.5928,0.1797,-1.0752,0.7785,-1.3792,-0.4147,-0.3627,0.4264,-1.1763,-2.7783,-1.3415,-1.0683,-0.902
1.182,-1.0099,1.2784,-0.5928,0.1797,-1.0752,0.7785,-1.3792,-0.4147,-0.3627,0.4264,-1.1763,-2.7783,-1.3415,-1.0683,-0.902
1.1707,-1.0126,1.2314,-0.5761,0.1696,-1.0817,0.769,-1.3816,-0.4147,-0.3627,0.4135,-1.1787,-2.7783,-1.3415,-1.0806,-0.9046
1.1707,-1.0126,1.2314,-0.5761,0.1696,-1.0817,0.769,-1.3816,-0.4147,-0.3627,0.4135,-1.1787,-2.7783,-1.3415,-1.0806,-0.9046
1.1506,-1.0122,1.2314,-0.5761,0.1507,-1.0826,0.7596,-1.3839,-0.5012,-0.3321,0.4039,-1.1858,-2.7862,-1.3387,-1.0991,-0.9084
1.1506,-1.0122,1.2314,-0.5761,0.1507,-1.0826,0.7596,-1.3839,-0.5012,-0.3321,0.4039,-1.1858,-2.7862,-1.3387,-1.0991,-0.9084
1.1337,-1.0162,1.2314,-0.5761,0.1341,-1.0868,0.7502,-1.3863,-0.5113,-0.4114,0.3783,-1.1906,-2.7965,-1.341,-1.1237,-0.9135
1.1337,-1.0162,1.2314,-0.5761,0.1341,-1.0868,0.7502,-1.3863,-0.5113,-0.4114,0.3783,-1.1906,-2.7965,-1.341,-1.1237,-0.9135
1.1024,-1.0185,1.1845,-0.5596,0.1069,-1.0898,0.746,-1.3962,-0.5972,-0.3811,0.3527,-1.1955,-2.8017,-1.3422,-1.1452,-0.9232
1.1024,-1.0185,1.1845,-0.5596,0.1069,-1.0898,0.746,-1.3962,-0.5972,-0.3811,0.3527,-1.1955,-2.8017,-1.3422,-1.1452,-0.9232
1.0773,-1.0296,1.1634,-0.5801,0.0821,-1.0961,0.7272,-1.401,-0.5972,-0.3811,0.3208,-1.2016,-2.812,-1.3446,-1.179,-0.925
1.0492,-1.0363,1.1376,-0.543,0.051,-1.1001,0.7032,-1.3982,-0.5113,-0.4114,0.289,-1.2077,-2.8195,-1.3509,-1.2096,-0.9314
1.0492,-1.0363,1.1376,-0.543,0.051,-1.1001,0.7032,-1.3982,-0.5113,-0.4114,0.289,-1.2077,-2.8195,-1.3509,-1.2096,-0.9314
1.0492,-1.0363,1.1376,-0.543,0.051,-1.1001,0.7032,-1.3982,-0.5113,-0.4114,0.289,-1.2077,-2.8195,-1.3509,-1.2096,-0.9314
1.01,-1.0457,1.0956,-0.5842,0.0117,-1.1063,0.6606,-1.4001,-0.5593,-0.4357,0.2509,-1.215,-2.8298,-1.3532,-1.2462,-0.9391
1.01,-1.0457,1.0956,-0.5842,0.0117,-1.1063,0.6606,-1.4001,-0.5593,-0.4357,0.2509,-1.215,-2.8298,-1.3532,-1.2462,-0.9391
1.01,-1.0457,1.0956,-0.5842,0.0117,-1.1063,0.6606,-1.4001,-0.5593,-0.4357,0.2509,-1.215,-2.8298,-1.3532,-1.2462,-0.9391
0.9678,-1.0506,1.0491,-0.5677,-0.0212,-1.1147,0.6326,-1.4073,-0.5113,-0.4114,0.2129,-1.2223,-2.8401,-1.3556,-1.2798,-0.9409
0.9678,-1.0506,1.0491,-0.5677,-0.0212,-1.1147,0.6326,-1.4073,-0.5113,-0.4114,0.2129,-1.2223,-2.8401,-1.3556,-1.2798,-0.9409
0.9404,-1.0674,1.0282,-0.5882,-0.0603,-1.1208,0.5994,-1.4069,-0.6072,-0.4598,0.1529,-1.2287,-2.8555,-1.3591,-1.3191,-0.9544
0.9015,-1.0768,1.0074,-0.6087,-0.0993,-1.127,0.5715,-1.414,-0.6072,-0.4598,0.1089,-1.2373,-2.8709,-1.3626,-1.3523,-0.9666
0.9015,-1.0768,1.0074,-0.6087,-0.0993,-1.127,0.5715,-1.414,-0.6072,-0.4598,0.1089,-1.2373,-2.8709,-1.3626,-1.3523,-0.9666
0.8627,-1.0861,0.9866,-0.6291,-0.1445,-1.1309,0.5385,-1.4136,-0.5216,-0.49,0.0807,-1.2479,-2.889,-1.3622,-1.3885,-0.9743
0.8627,-1.0861,0.9866,-0.6291,-0.1445,-1.1309,0.5385,-1.4136,-0.5216,-0.49,0.0807,-1.2479,-2.889,-1.3622,-1.3885,-0.9743
0.81,-1.0938,0.9658,-0.6495,-0.181,-1.1404,0.5015,-1.4231,-0.6548,-0.4839,0.0307,-1.2577,-2.9094,-1.3669,-1.4307,-0.9832
0.81,-1.0938,0.9658,-0.6495,-0.181,-1.1404,0.5015,-1.4231,-0.6548,-0.4839,0.0307,-1.2577,-2.9094,-1.3669,-1.4307,-0.9832
0.7629,-1.1001,0.9451,-0.6698,-0.2278,-1.1487,0.4594,-1.4252,-0.5696,-0.514,-0.0067,-1.265,-2.9275,-1.3665,-1.4667,-0.9909
0.7629,-1.1001,0.9451,-0.6698,-0.2278,-1.1487,0.4594,-1.4252,-0.5696,-0.514,-0.0067,-1.265,-2.9275,-1.3665,-1.4667,-0.9909
0.722,-1.1151,0.8531,-0.6373,-0.2703,-1.1559,0.4369,-1.4398,-0.6173,-0.5379,-0.0627,-1.276,-2.9479,-1.3712,-1.5055,-1.0043
0.722,-1.1151,0.8531,-0.6373,-0.2703,-1.1559,0.4369,-1.4398,-0.6173,-0.5379,-0.0627,-1.276,-2.9479,-1.3712,-1.5055,-1.0043
0.6613,-1.1198,0.8121,-0.6779,-0.3105,-1.1664,0.3858,-1.4442,-0.7023,-0.5079,-0.1153,-1.2812,-2.971,-1.372,-1.5504,-1.0088
0.6613,-1.1198,0.8121,-0.6779,-0.3105,-1.1664,0.3858,-1.4442,-0.7023,-0.5079,-0.1153,-1.2812,-2.971,-1.372,-1.5504,-1.0088
0.6371,-1.1308,0.7665,-0.6618,-0.3368,-1.1695,0.3675,-1.4489,-0.7023,-0.5079,-0.143,-1.2918,-2.9812,-1.3743,-1.5743,-1.0139
0.6371,-1.1308,0.7665,-0.6618,-0.3368,-1.1695,0.3675,-1.4489,-0.7023,-0.5079,-0.143,-1.2918,-2.9812,-1.3743,-1.5743,-1.0139
0.6479,-1.1281,0.7665,-0.6618,-0.3248,-1.1663,0.3624,-1.4415,-0.7496,-0.5319,-0.143,-1.2918,-2.9734,-1.3771,-1.5805,-1.0049
0.6479,-1.1281,0.7665,-0.6618,-0.3248,-1.1663,0.3624,-1.4415,-0.7496,-0.5319,-0.143,-1.2918,-2.9734,-1.3771,-1.5805,-1.0049
0.722,-1.1151,0.7869,-0.6415,-0.26,-1.1571,0.4185,-1.4445,-0.7496,-0.5319,-0.0719,-1.2829,-2.9479,-1.3712,-1.5209,-0.9921
0.722,-1.1151,0.7869,-0.6415,-0.26,-1.1571,0.4185,-1.4445,-0.7496,-0.5319,-0.0719,-1.2829,-2.9479,-1.3712,-1.5209,-0.9921
0.8345,-1.0827,0.8278,-0.6007,-0.1711,-1.134,0.483,-1.4279,-0.5696,-0.514,0.0525,-1.2585,-2.9071,-1.3618,-1.422,-0.9659
0.8345,-1.0827,0.8278,-0.6007,-0.1711,-1.134,0.483,-1.4279,-0.5696,-0.514,0.0525,-1.2585,-2.9071,-1.3618,-1.422,-0.9659
0.9709,-1.055,0.9611,-0.5924,-0.0421,-1.1123,0.5901,-1.4092,-0.5216,-0.49,0.1876,-1.2272,-2.8634,-1.3563,-1.298,-0.9448
0.9709,-1.055,0.9611,-0.5924,-0.0421,-1.1123,0.5901,-1.4092,-0.5216,-0.49,0.1876,-1.2272,-2.8634,-1.3563,-1.298,-0.9448
1.0742,-1.0252,1.0282,-0.5882,0.0675,-1.0959,0.6606,-1.4001,-0.4735,-0.466,0.324,-1.2062,-2.8326,-1.3493,-1.1914,-0.9172
1.0742,-1.0252,1.0282,-0.5882,0.0675,-1.0959,0.6606,-1.4001,-0.4735,-0.466,0.324,-1.2062,-2.8326,-1.3493,-1.1914,-0.9172
1.1733,-1.0068,1.1423,-0.6006,0.1548,-1.0815,0.7408,-1.3887,-0.3766,-0.4176,0.4296,-1.1809,-2.7989,-1.3462,-1.0932,-0.8967
1.1733,-1.0068,1.1423,-0.6006,0.1548,-1.0815,0.7408,-1.3887,-0.3766,-0.4176,0.4296,-1.1809,-2.7989,-1.3462,-1.0932,-0.8967
1.2414,-0.9907,1.2102,-0.5967,0.2218,-1.0724,0.7879,-1.3768,-0.3279,-0.3934,0.5069,-1.1663,-2.7835,-1.3426,-1.022,-0.8872
1.2414,-0.9907,1.2102,-0.5967,0.2218,-1.0724,0.7879,-1.3768,-0.3279,-0.3934,0.5069,-1.1663,-2.7835,-1.3426,-1.022,-0.8872
1.2414,-0.9907,1.2102,-0.5967,0.2218,-1.0724,0.7879,-1.3768,-0.3279,-0.3934,0.5069,-1.1663,-2.7835,-1.3426,-1.022,-0.8872
1.287,-0.98,1.2526,-0.5556,0.2701,-1.0642,0.8404,-1.3725,-0.2408,-0.4241,0.5457,-1.159,-2.7732,-1.3403,-0.9786,-0.8782
1.313,-0.9791,1.2739,-0.5349,0.2976,-1.0612,0.8594,-1.3678,-0.2408,-0.4241,0.5748,-1.1588,-2.768,-1.3391,-0.9599,-0.8744
1.313,-0.9791,1.2739,-0.5349,0.2976,-1.0612,0.8594,-1.3678,-0.2408,-0.4241,0.5748,-1.1588,-2.768,-1.3391,-0.9599,-0.8744
1.313,-0.9791,1.3211,-0.5516,0.3083,-1.0625,0.8689,-1.3654,-0.3766,-0.4176,0.5683,-1.16,-2.7732,-1.3403,-0.9599,-0.8744
1.313,-0.9791,1.3211,-0.5516,0.3083,-1.0625,0.8689,-1.3654,-0.3766,-0.4176,0.5683,-1.16,-2.7732,-1.3403,-0.9599,-0.8744
1.3103,-0.9849,1.248,-0.4975,0.2999,-1.0646,0.8541,-1.3602,-0.3766,-0.4176,0.5748,-1.1693,-2.768,-1.3391,-0.9661,-0.8756
1.3103,-0.9849,1.248,-0.4975,0.2999,-1.0646,0.8541,-1.3602,-0.3766,-0.4176,0.5748,-1.1693,-2.768,-1.3391,-0.9661,-0.8756
1.2989,-0.9876,1.2952,-0.5142,0.2873,-1.0678,0.8541,-1.3602,-0.3279,-0.3934,0.5553,-1.1729,-2.7732,-1.3403,-0.9754,-0.8828
1.2989,-0.9876,1.2952,-0.5142,0.2873,-1.0678,0.8541,-1.3602,-0.3279,-0.3934,0.5553,-1.1729,-2.7732,-1.3403,-0.9754,-0.8828
1.2704,-0.9943,1.2952,-0.5142,0.2599,-1.0707,0.8299,-1.3573,-0.4147,-0.3627,0.5198,-1.1743,-2.7756,-1.3454,-1.0002,-0.8879
1.2704,-0.9943,1.2952,-0.5142,0.2599,-1.0707,0.8299,-1.3573,-0.4147,-0.3627,0.5198,-1.1743,-2.7756,-1.3454,-1.0002,-0.8879
1.2476,-0.9996,1.3211,-0.5516,0.239,-1.076,0.8257,-1.3673,-0.5493,-0.3566,0.4875,-1.1804,-2.7886,-1.3438,-1.0218,-0.8976
1.216,-1.0019,1.2526,-0.5556,0.2181,-1.0812,0.8068,-1.3721,-0.4631,-0.3871,0.4778,-1.1875,-2.7886,-1.3438,-1.0342,-0.9002
1.216,-1.0019,1.2526,-0.5556,0.2181,-1.0812,0.8068,-1.3721,-0.4631,-0.3871,0.4778,-1.1875,-2.7886,-1.3438,-1.0342,-0.9002
1.216,-1.0019,1.2526,-0.5556,0.2181,-1.0812,0.8068,-1.3721,-0.4631,-0.3871,0.4778,-1.1875,-2.7886,-1.3438,-1.0342,-0.9002
1.2134,-1.0077,1.2997,-0.5722,0.214,-1.0823,0.8215,-1.3773,-0.4631,-0.3871,0.4649,-1.1899,-2.7886,-1.3438,-1.0434,-0.9073
1.2134,-1.0077,1.2997,-0.5722,0.214,-1.0823,0.8215,-1.3773,-0.4631,-0.3871,0.4649,-1.1899,-2.7886,-1.3438,-1.0434,-0.9073
1.1907,-1.013,1.2314,-0.5761,0.1973,-1.0865,0.8026,-1.382,-0.5972,-0.3811,0.4392,-1.1947,-2.7938,-1.345,-1.0619,-0.9112
1.1825,-1.0201,1.1845,-0.5596,0.1848,-1.0896,0.7879,-1.3768,-0.5972,-0.3811,0.436,-1.2006,-2.7938,-1.345,-1.0836,-0.9104
1.1825,-1.0201,1.1845,-0.5596,0.1848,-1.0896,0.7879,-1.3768,-0.5972,-0.3811,0.436,-1.2006,-2.7938,-1.345,-1.0836,-0.9104
1.1825,-1.0201,1.1845,-0.5596,0.1848,-1.0896,0.7879,-1.3768,-0.5972,-0.3811,0.436,-1.2006,-2.7938,-1.345,-1.0836,-0.9104
1.1711,-1.0228,1.1587,-0.5224,0.1659,-1.0905,0.7785,-1.3792,-0.5972,-0.3811,0.4167,-1.2042,-2.791,-1.349,-1.096,-0.913
1.1711,-1.0228,1.1587,-0.5224,0.1659,-1.0905,0.7785,-1.3792,-0.5972,-0.3811,0.4167,-1.2042,-2.791,-1.349,-1.096,-0.913
1.1711,-1.0228,1.1587,-0.5224,0.1659,-1.0905,0.7785,-1.3792,-0.5972,-0.3811,0.4167,-1.2042,-2.791,-1.349,-1.096,-0.913
1.1711,-1.0228,1.1587,-0.5224,0.1659,-1.0905,0.7785,-1.3792,-0.5972,-0.3811,0.4167,-1.2042,-2.791,-1.349,-1.096,-0.913
1.1259,-1.0335,1.1634,-0.5801,0.1115,-1.0964,0.7209,-1.376,-0.5874,-0.3017,0.3815,-1.2161,-2.812,-1.3446,-1.1422,-0.9174
1.1259,-1.0335,1.1634,-0.5801,0.1115,-1.0964,0.7209,-1.376,-0.5874,-0.3017,0.3815,-1.2161,-2.812,-1.3446,-1.1422,-0.9174
1.1034,-1.0388,1.1634,-0.5801,0.0909,-1.1017,0.7116,-1.3783,-0.5972,-0.3811,0.3431,-1.2233,-2.8353,-1.3453,-1.1758,-0.9296
1.1034,-1.0388,1.1634,-0.5801,0.0909,-1.1017,0.7116,-1.3783,-0.5972,-0.3811,0.3431,-1.2233,-2.8353,-1.3453,-1.1758,-0.9296
1.1034,-1.0388,1.1634,-0.5801,0.0909,-1.1017,0.7116,-1.3783,-0.5972,-0.3811,0.3431,-1.2233,-2.8353,-1.3453,-1.1758,-0.9296
1.0783,-1.0499,1.1166,-0.5636,0.0579,-1.1101,0.6928,-1.3831,-0.5972,-0.3811,0.3017,-1.226,-2.8456,-1.3477,-1.2125,-0.9372
1.0783,-1.0499,1.1166,-0.5636,0.0579,-1.1101,0.6928,-1.3831,-0.5972,-0.3811,0.3017,-1.226,-2.8456,-1.3477,-1.2125,-0.9372
1.0783,-1.0499,1.1166,-0.5636,0.0579,-1.1101,0.6928,-1.3831,-0.5972,-0.3811,0.3017,-1.226,-2.8456,-1.3477,-1.2125,-0.9372
0.9998,-1.0686,1.0747,-0.6047,-0.0143,-1.1246,0.6512,-1.4025,-0.6449,-0.4054,0.2287,-1.2452,-2.8764,-1.3547,-1.2825,-0.9571
0.9998,-1.0686,1.0747,-0.6047,-0.0143,-1.1246,0.6512,-1.4025,-0.6449,-0.4054,0.2287,-1.2452,-2.8764,-1.3547,-1.2825,-0.9571
0.9521,-1.0748,1.0538,-0.6251,-0.0511,-1.1341,0.618,-1.4021,-0.6924,-0.4297,0.1845,-1.2536,-2.889,-1.3622,-1.3158,-0.9693
0.9521,-1.0748,1.0538,-0.6251,-0.0511,-1.1341,0.618,-1.4021,-0.6924,-0.4297,0.1845,-1.2536,-2.889,-1.3622,-1.3158,-0.9693
0.9131,-1.0842,1.0074,-0.6087,-0.0901,-1.1402,0.5901,-1.4092,-0.7774,-0.3997,0.1404,-1.2621,-2.9122,-1.363,-1.3521,-0.9769
0.9131,-1.0842,1.0074,-0.6087,-0.0901,-1.1402,0.5901,-1.4092,-0.7774,-0.3997,0.1404,-1.2621,-2.9122,-1.363,-1.3521,-0.9769
0.9131,-1.0842,1.0074,-0.6087,-0.0901,-1.1402,0.5901,-1.4092,-0.7774,-0.3997,0.1404,-1.2621,-2.9122,-1.363,-1.3521,-0.9769
0.8688,-1.0948,0.9866,-0.6291,-0.1267,-1.1496,0.5529,-1.4187,-0.862,-0.3698,0.087,-1.2673,-2.9326,-1.3677,-1.3943,-0.9859
0.8688,-1.0948,0.9866,-0.6291,-0.1267,-1.1496,0.5529,-1.4187,-0.862,-0.3698,0.087,-1.2673,-2.9326,-1.3677,-1.3943,-0.9859
0.8688,-1.0948,0.9866,-0.6291,-0.1267,-1.1496,0.5529,-1.4187,-0.862,-0.3698,0.087,-1.2673,-2.9326,-1.3677,-1.3943,-0.9859
0.7859,-1.1148,0.8943,-0.5965,-0.206,-1.1663,0.4974,-1.433,-0.8244,-0.424,0.0027,-1.2888,-2.9656,-1.3799,-1.4785,-1.0037
0.7859,-1.1148,0.8943,-0.5965,-0.206,-1.1663,0.4974,-1.433,-0.8244,-0.424,0.0027,-1.2888,-2.9656,-1.3799,-1.4785,-1.0037
0.7365,-1.1268,0.8482,-0.5803,-0.2487,-1.1735,0.4605,-1.4425,-0.8244,-0.424,-0.047,-1.2985,-2.9859,-1.3846,-1.5204,-1.0126
0.7365,-1.1268,0.8482,-0.5803,-0.2487,-1.1735,0.4605,-1.4425,-0.8244,-0.424,-0.047,-1.2985,-2.9859,-1.3846,-1.5204,-1.0126
0.6872,-1.1387,0.7615,-0.605,-0.3014,-1.1795,0.4094,-1.4469,-0.8713,-0.4482,-0.0904,-1.307,-3.0062,-1.3893,-1.5621,-1.0215
0.6872,-1.1387,0.7615,-0.605,-0.3014,-1.1795,0.4094,-1.4469,-0.8713,-0.4482,-0.0904,-1.307,-3.0062,-1.3893,-1.5621,-1.0215
0.6545,-1.1467,0.7615,-0.605,-0.3255,-1.1858,0.3767,-1.4465,-0.7869,-0.478,-0.1306,-1.3098,-3.0191,-1.3877,-1.589,-1.0222
0.6569,-1.141,0.7412,-0.6254,-0.3175,-1.1837,0.391,-1.4516,-0.7869,-0.478,-0.1274,-1.3143,-3.0191,-1.3877,-1.589,-1.0222
0.6569,-1.141,0.7412,-0.6254,-0.3175,-1.1837,0.391,-1.4516,-0.7869,-0.478,-0.1274,-1.3143,-3.0191,-1.3877,-1.589,-1.0222
0.6569,-1.141,0.7412,-0.6254,-0.3175,-1.1837,0.391,-1.4516,-0.7869,-0.478,-0.1274,-1.3143,-3.0191,-1.3877,-1.589,-1.0222
0.728,-1.1238,0.7819,-0.5845,-0.2612,-1.169,0.4226,-1.4347,-0.7398,-0.4539,-0.0656,-1.3022,-3.0015,-1.379,-1.5354,-1.0107
0.728,-1.1238,0.7819,-0.5845,-0.2612,-1.169,0.4226,-1.4347,-0.7398,-0.4539,-0.0656,-1.3022,-3.0015,-1.379,-1.5354,-1.0107
0.8325,-1.0985,0.8737,-0.6169,-0.1678,-1.1525,0.4778,-1.4204,-0.6924,-0.4297,0.0432,-1.2758,-2.9632,-1.3747,-1.4427,-0.9858
0.8325,-1.0985,0.8737,-0.6169,-0.1678,-1.1525,0.4778,-1.4204,-0.6924,-0.4297,0.0432,-1.2758,-2.9632,-1.3747,-1.4427,-0.9858
0.9546,-1.0691,0.9866,-0.6291,-0.0511,-1.1341,0.5663,-1.4065,-0.5593,-0.4357,0.1813,-1.2491,-2.9248,-1.3704,-1.322,-0.9602
0.9546,-1.0691,0.9866,-0.6291,-0.0511,-1.1341,0.5663,-1.4065,-0.5593,-0.4357,0.1813,-1.2491,-2.9248,-1.3704,-1.322,-0.9602
0.9546,-1.0691,0.9866,-0.6291,-0.0511,-1.1341,0.5663,-1.4065,-0.5593,-0.4357,0.1813,-1.2491,-2.9248,-1.3704,-1.322,-0.9602
1.089,-1.0371,1.0956,-0.5842,0.0643,-1.1124,0.6699,-1.3978,-0.5113,-0.4114,0.3176,-1.2282,-2.8941,-1.3634,-1.2064,-0.936
1.089,-1.0371,1.0956,-0.5842,0.0643,-1.1124,0.6699,-1.3978,-0.5113,-0.4114,0.3176,-1.2282,-2.8941,-1.3634,-1.2064,-0.936
1.1794,-1.0157,1.1845,-0.5596,0.1576,-1.0926,0.745,-1.3788,-0.4251,-0.4418,0.4199,-1.2088,-2.8658,-1.3615,-1.1237,-0.9135
1.1794,-1.0157,1.1845,-0.5596,0.1576,-1.0926,0.745,-1.3788,-0.4251,-0.4418,0.4199,-1.2088,-2.8658,-1.3615,-1.1237,-0.9135
1.2994,-0.9978,1.2739,-0.5349,0.2687,-1.0764,0.8352,-1.3649,-0.4631,-0.3871,0.5229,-1.1894,-2.8527,-1.3631,-1.0344,-0.8897
1.2994,-0.9978,1.2739,-0.5349,0.2687,-1.0764,0.8352,-1.3649,-0.4631,-0.3871,0.5229,-1.1894,-2.8527,-1.3631,-1.0344,-0.8897
1.2994,-0.9978,1.2739,-0.5349,0.2687,-1.0764,0.8352,-1.3649,-0.4631,-0.3871,0.5229,-1.1894,-2.8527,-1.3631,-1.0344,-0.8897
1.3165,-0.9938,1.3211,-0.5516,0.292,-1.0745,0.8541,-1.3602,-0.5493,-0.3566,0.5455,-1.1904,-2.8527,-1.3631,-1.0126,-0.8905
1.3165,-0.9938,1.3211,-0.5516,0.292,-1.0745,0.8541,-1.3602,-0.5493,-0.3566,0.5455,-1.1904,-2.8527,-1.3631,-1.0126,-0.8905
1.3165,-0.9938,1.3211,-0.5516,0.292,-1.0745,0.8541,-1.3602,-0.5493,-0.3566,0.5455,-1.1904,-2.8527,-1.3631,-1.0126,-0.8905
1.3165,-0.9938,1.2952,-0.5142,0.2985,-1.0768,0.8488,-1.3526,-0.5012,-0.3321,0.5423,-1.1858,-2.8527,-1.3631,-1.0032,-0.8938
1.3051,-0.9965,1.3425,-0.5309,0.2836,-1.0766,0.8541,-1.3602,-0.4631,-0.3871,0.5294,-1.1882,-2.8551,-1.3682,-1.0156,-0.8964
1.3051,-0.9965,1.3425,-0.5309,0.2836,-1.0766,0.8541,-1.3602,-0.4631,-0.3871,0.5294,-1.1882,-2.8551,-1.3682,-1.0156,-0.8964
1.2734,-0.9987,1.3211,-0.5516,0.2603,-1.0785,0.8446,-1.3625,-0.5113,-0.4114,0.5003,-1.1989,-2.8626,-1.3745,-1.0404,-0.9015
1.2734,-0.9987,1.3211,-0.5516,0.2603,-1.0785,0.8446,-1.3625,-0.5113,-0.4114,0.5003,-1.1989,-2.8626,-1.3745,-1.0404,-0.9015
1.2537,-1.0085,1.3211,-0.5516,0.2418,-1.0871,0.8204,-1.3597,-0.4735,-0.466,0.4745,-1.2037,-2.8756,-1.3729,-1.0651,-0.9066
1.2537,-1.0085,1.3211,-0.5516,0.2418,-1.0871,0.8204,-1.3597,-0.4735,-0.466,0.4745,-1.2037,-2.8756,-1.3729,-1.0651,-0.9066
1.2309,-1.0138,1.2997,-0.5722,0.2209,-1.0923,0.811,-1.3621,-0.4735,-0.466,0.4488,-1.2086,-2.8886,-1.3713,-1.093,-0.9071
1.2309,-1.0138,1.2997,-0.5722,0.2209,-1.0923,0.811,-1.3621,-0.4735,-0.466,0.4488,-1.2086,-2.8886,-1.3713,-1.093,-0.9071
1.2309,-1.0138,1.2997,-0.5722,0.2209,-1.0923,0.811,-1.3621,-0.4735,-0.466,0.4488,-1.2086,-2.8886,-1.3713,-1.093,-0.9071
1.2082,-1.0192,1.2997,-0.5722,0.2019,-1.0931,0.812,-1.3796,-0.4735,-0.466,0.4263,-1.2076,-2.8965,-1.3685,-1.1021,-0.9142
1.1912,-1.0232,1.2314,-0.5761,0.1959,-1.0986,0.7921,-1.3669,-0.4735,-0.466,0.4167,-1.2146,-2.9016,-1.3697,-1.1144,-0.9168
1.1912,-1.0232,1.2314,-0.5761,0.1959,-1.0986,0.7921,-1.3669,-0.4735,-0.466,0.4167,-1.2146,-2.9016,-1.3697,-1.1144,-0.9168
1.1855,-1.0245,1.2784,-0.5928,0.1876,-1.1007,0.7973,-1.3744,-0.5113,-0.4114,0.4038,-1.217,-2.9016,-1.3697,-1.1174,-0.9227
1.1855,-1.0245,1.2784,-0.5928,0.1876,-1.1007,0.7973,-1.3744,-0.5113,-0.4114,0.4038,-1.217,-2.9016,-1.3697,-1.1174,-0.9227
1.1829,-1.0303,1.2526,-0.5556,0.1793,-1.1028,0.7879,-1.3768,-0.5972,-0.3811,0.3974,-1.2183,-2.9067,-1.3709,-1.1204,-0.9285
1.1829,-1.0303,1.2526,-0.5556,0.1793,-1.1028,0.7879,-1.3768,-0.5972,-0.3811,0.3974,-1.2183,-2.9067,-1.3709,-1.1204,-0.9285
1.1716,-1.0329,1.2056,-0.5389,0.1668,-1.1059,0.7732,-1.3716,-0.5972,-0.3811,0.3846,-1.2207,-2.9146,-1.3681,-1.1388,-0.9323
1.1716,-1.0329,1.2056,-0.5389,0.1668,-1.1059,0.7732,-1.3716,-0.5972,-0.3811,0.3846,-1.2207,-2.9146,-1.3681,-1.1388,-0.9323
1.1546,-1.037,1.2314,-0.5761,0.1438,-1.1078,0.769,-1.3816,-0.5593,-0.4357,0.3655,-1.2243,-2.9169,-1.3732,-1.1572,-0.9361
1.1546,-1.037,1.2314,-0.5761,0.1438,-1.1078,0.769,-1.3816,-0.5593,-0.4357,0.3655,-1.2243,-2.9169,-1.3732,-1.1572,-0.9361
1.1407,-1.0454,1.1845,-0.5596,0.1231,-1.1131,0.745,-1.3788,-0.7301,-0.3753,0.3431,-1.2337,-2.935,-1.3728,-1.1879,-0.9425
1.1182,-1.0507,1.1376,-0.543,0.0983,-1.1193,0.7408,-1.3887,-0.6449,-0.4054,0.3176,-1.2386,-2.9479,-1.3712,-1.203,-0.9509
1.1182,-1.0507,1.1376,-0.543,0.0983,-1.1193,0.7408,-1.3887,-0.6449,-0.4054,0.3176,-1.2386,-2.9479,-1.3712,-1.203,-0.9509
1.1182,-1.0507,1.1376,-0.543,0.0983,-1.1193,0.7408,-1.3887,-0.6449,-0.4054,0.3176,-1.2386,-2.9479,-1.3712,-1.203,-0.9509
1.0757,-1.0556,1.0956,-0.5842,0.063,-1.1244,0.698,-1.3906,-0.6449,-0.4054,0.289,-1.2492,-2.9632,-1.3747,-1.2428,-0.954
1.042,-1.0636,1.0956,-0.5842,0.0341,-1.1317,0.6647,-1.3902,-0.7301,-0.3753,0.2509,-1.2564,-2.9706,-1.381,-1.2793,-0.9616
1.042,-1.0636,1.0956,-0.5842,0.0341,-1.1317,0.6647,-1.3902,-0.7301,-0.3753,0.2509,-1.2564,-2.9706,-1.381,-1.2793,-0.9616
1.042,-1.0636,1.0956,-0.5842,0.0341,-1.1317,0.6647,-1.3902,-0.7301,-0.3753,0.2509,-1.2564,-2.9706,-1.381,-1.2793,-0.9616
1.0084,-1.0716,1.0747,-0.6047,-0.0033,-1.1335,0.6512,-1.4025,-0.6924,-0.4297,0.2129,-1.2637,-2.9886,-1.3806,-1.3189,-0.9648
1.0084,-1.0716,1.0747,-0.6047,-0.0033,-1.1335,0.6512,-1.4025,-0.6924,-0.4297,0.2129,-1.2637,-2.9886,-1.3806,-1.3189,-0.9648
0.9693,-1.0809,1.0282,-0.5882,-0.0361,-1.1419,0.618,-1.4021,-0.6548,-0.4839,0.1656,-1.2676,-3.0039,-1.3842,-1.346,-0.9757
0.9303,-1.0902,1.0074,-0.6087,-0.0751,-1.148,0.5901,-1.4092,-0.7398,-0.4539,0.1278,-1.2749,-3.0218,-1.3837,-1.3823,-0.9833
0.9303,-1.0902,1.0074,-0.6087,-0.0751,-1.148,0.5901,-1.4092,-0.7398,-0.4539,0.1278,-1.2749,-3.0218,-1.3837,-1.3823,-0.9833
0.8884,-1.0952,0.9611,-0.5924,-0.1141,-1.1541,0.5674,-1.4239,-0.6924,-0.4297,0.0871,-1.2776,-3.0319,-1.3861,-1.4124,-0.9897
0.8884,-1.0952,0.9611,-0.5924,-0.1141,-1.1541,0.5674,-1.4239,-0.6924,-0.4297,0.0871,-1.2776,-3.0319,-1.3861,-1.4124,-0.9897
0.8884,-1.0952,0.9611,-0.5924,-0.1141,-1.1541,0.5674,-1.4239,-0.6924,-0.4297,0.0871,-1.2776,-3.0319,-1.3861,-1.4124,-0.9897
0.8441,-1.1058,0.8943,-0.5965,-0.1529,-1.1603,0.5251,-1.4259,-0.8244,-0.424,0.037,-1.2873,-3.0522,-1.3908,-1.4514,-1.0031
0.8441,-1.1058,0.8943,-0.5965,-0.1529,-1.1603,0.5251,-1.4259,-0.8244,-0.424,0.037,-1.2873,-3.0522,-1.3908,-1.4514,-1.0031
0.8441,-1.1058,0.8943,-0.5965,-0.1529,-1.1603,0.5251,-1.4259,-0.8244,-0.424,0.037,-1.2873,-3.0522,-1.3908,-1.4514,-1.0031
0.8085,-1.1195,0.8737,-0.6169,-0.1979,-1.1642,0.4974,-1.433,-0.8713,-0.4482,-0.0128,-1.297,-3.0724,-1.3955,-1.4933,-1.012
0.7614,-1.1258,0.8991,-0.6536,-0.2366,-1.1703,0.4553,-1.435,-0.9553,-0.4185,-0.047,-1.3088,-3.0981,-1.3924,-1.5383,-1.0164
0.723,-1.1351,0.8531,-0.6373,-0.2751,-1.1765,0.4277,-1.4421,-0.918,-0.4724,-0.0903,-1.3172,-3.1132,-1.3959,-1.574,-1.0241
0.723,-1.1351,0.8531,-0.6373,-0.2751,-1.1765,0.4277,-1.4421,-0.918,-0.4724,-0.0903,-1.3172,-3.1132,-1.3959,-1.574,-1.0241
0.723,-1.1351,0.8531,-0.6373,-0.2751,-1.1765,0.4277,-1.4421,-0.918,-0.4724,-0.0903,-1.3172,-3.1132,-1.3959,-1.574,-1.0241
0.6982,-1.1361,0.8326,-0.6577,-0.2911,-1.1807,0.4094,-1.4469,-0.8339,-0.5021,-0.0996,-1.3242,-3.1132,-1.3959,-1.58,-1.0254
0.6982,-1.1361,0.8326,-0.6577,-0.2911,-1.1807,0.4094,-1.4469,-0.8339,-0.5021,-0.0996,-1.3242,-3.1132,-1.3959,-1.58,-1.0254
0.7255,-1.1294,0.8073,-0.6211,-0.2607,-1.1766,0.4277,-1.4421,-0.8713,-0.4482,-0.0841,-1.316,-3.0981,-1.3924,-1.5621,-1.0215
0.7255,-1.1294,0.8073,-0.6211,-0.2607,-1.1766,0.4277,-1.4421,-0.8713,-0.4482,-0.0841,-1.316,-3.0981,-1.3924,-1.5621,-1.0215
0.7994,-1.1065,0.8737,-0.6169,-0.1835,-1.1643,0.4738,-1.4303,-0.7023,-0.5079,-0.0128,-1.297,-3.0728,-1.3865,-1.4996,-1.003
0.7994,-1.1065,0.8737,-0.6169,-0.1835,-1.1643,0.4738,-1.4303,-0.7023,-0.5079,-0.0128,-1.297,-3.0728,-1.3865,-1.4996,-1.003
0.9101,-1.0798,0.9611,-0.5924,-0.0838,-1.1424,0.5385,-1.4136,-0.6548,-0.4839,0.131,-1.2794,-3.0374,-1.3782,-1.4006,-0.9768
0.9101,-1.0798,0.9611,-0.5924,-0.0838,-1.1424,0.5385,-1.4136,-0.6548,-0.4839,0.131,-1.2794,-3.0374,-1.3782,-1.4006,-0.9768
1.0359,-1.0548,1.0491,-0.5677,0.0296,-1.1251,0.618,-1.4021,-0.5696,-0.514,0.2509,-1.2461,-2.9992,-1.3739,-1.2888,-0.948
1.0359,-1.0548,1.0491,-0.5677,0.0296,-1.1251,0.618,-1.4021,-0.5696,-0.514,0.2509,-1.2461,-2.9992,-1.3739,-1.2888,-0.948
1.1285,-1.0277,1.07,-0.5471,0.1249,-1.1087,0.6834,-1.3855,-0.5216,-0.49,0.3718,-1.2231,-2.9738,-1.368,-1.1851,-0.9263
1.1285,-1.0277,1.07,-0.5471,0.1249,-1.1087,0.6834,-1.3855,-0.5216,-0.49,0.3718,-1.2231,-2.9738,-1.368,-1.1851,-0.9263
1.2222,-1.0107,1.1587,-0.5224,0.2149,-1.0977,0.769,-1.3816,-0.4735,-0.466,0.4552,-1.2074,-2.9585,-1.3645,-1.1146,-0.9064
1.2222,-1.0107,1.1587,-0.5224,0.2149,-1.0977,0.769,-1.3816,-0.4735,-0.466,0.4552,-1.2074,-2.9585,-1.3645,-1.1146,-0.9064
1.2791,-0.9974,1.1797,-0.5016,0.2715,-1.0875,0.8015,-1.3645,-0.5113,-0.4114,0.5164,-1.2011,-2.9405,-1.3649,-1.0498,-0.8982
1.2791,-0.9974,1.1797,-0.5016,0.2715,-1.0875,0.8015,-1.3645,-0.5113,-0.4114,0.5164,-1.2011,-2.9405,-1.3649,-1.0498,-0.8982
1.3196,-0.9982,1.2739,-0.5349,0.3031,-1.0835,0.8299,-1.3573,-0.5493,-0.3566,0.5423,-1.1963,-2.9483,-1.3621,-1.0312,-0.8943
1.331,-0.9956,1.2739,-0.5349,0.3092,-1.078,0.8541,-1.3602,-0.5012,-0.3321,0.5455,-1.1904,-2.9405,-1.3649,-1.022,-0.8872
1.331,-0.9956,1.2739,-0.5349,0.3092,-1.078,0.8541,-1.3602,-0.5012,-0.3321,0.5455,-1.1904,-2.9405,-1.3649,-1.022,-0.8872
1.331,-0.9956,1.2739,-0.5349,0.3092,-1.078,0.8541,-1.3602,-0.5012,-0.3321,0.5455,-1.1904,-2.9405,-1.3649,-1.022,-0.8872
1.3341,-1,1.3425,-0.5309,0.3092,-1.078,0.8488,-1.3526,-0.5012,-0.3321,0.5391,-1.1917,-2.9483,-1.3621,-1.025,-0.893
1.3341,-1,1.3425,-0.5309,0.3092,-1.078,0.8488,-1.3526,-0.5012,-0.3321,0.5391,-1.1917,-2.9483,-1.3621,-1.025,-0.893
1.3112,-1.0054,1.347,-0.5889,0.2882,-1.0833,0.8352,-1.3649,-0.5972,-0.3811,0.5132,-1.1965,-2.9585,-1.3645,-1.0498,-0.8982
1.3112,-1.0054,1.347,-0.5889,0.2882,-1.0833,0.8352,-1.3649,-0.5972,-0.3811,0.5132,-1.1965,-2.9585,-1.3645,-1.0498,-0.8982
1.3112,-1.0054,1.347,-0.5889,0.2882,-1.0833,0.8352,-1.3649,-0.5972,-0.3811,0.5132,-1.1965,-2.9585,-1.3645,-1.0498,-0.8982
1.2941,-1.0094,1.3943,-0.6056,0.2692,-1.0841,0.8204,-1.3597,-0.5113,-0.4114,0.4778,-1.1979,-2.9714,-1.3629,-1.0651,-0.9066
1.2656,-1.016,1.347,-0.5889,0.2418,-1.0871,0.811,-1.3621,-0.5972,-0.3811,0.4552,-1.2074,-2.9816,-1.3653,-1.0898,-0.9117
1.2656,-1.016,1.347,-0.5889,0.2418,-1.0871,0.811,-1.3621,-0.5972,-0.3811,0.4552,-1.2074,-2.9816,-1.3653,-1.0898,-0.9117
1.2428,-1.0214,1.347,-0.5889,0.2186,-1.089,0.8015,-1.3645,-0.5972,-0.3811,0.4295,-1.2122,-2.9894,-1.3625,-1.1083,-0.9155
1.2226,-1.0209,1.3255,-0.6094,0.2126,-1.0944,0.7921,-1.3669,-0.5972,-0.3811,0.4102,-1.2158,-2.9867,-1.3664,-1.1206,-0.9181
1.2226,-1.0209,1.3255,-0.6094,0.2126,-1.0944,0.7921,-1.3669,-0.5972,-0.3811,0.4102,-1.2158,-2.9867,-1.3664,-1.1206,-0.9181
1.2226,-1.0209,1.3255,-0.6094,0.2126,-1.0944,0.7921,-1.3669,-0.5972,-0.3811,0.4102,-1.2158,-2.9867,-1.3664,-1.1206,-0.9181
1.2113,-1.0236,1.2526,-0.5556,0.2001,-1.0975,0.7973,-1.3744,-0.5972,-0.3811,0.3974,-1.2183,-2.9917,-1.3676,-1.1329,-0.9206
1.2113,-1.0236,1.2526,-0.5556,0.2001,-1.0975,0.7973,-1.3744,-0.5972,-0.3811,0.3974,-1.2183,-2.9917,-1.3676,-1.1329,-0.9206
1.2113,-1.0236,1.2526,-0.5556,0.2001,-1.0975,0.7973,-1.3744,-0.5972,-0.3811,0.3974,-1.2183,-2.9917,-1.3676,-1.1329,-0.9206
1.1999,-1.0263,1.2784,-0.5928,0.1853,-1.0973,0.7879,-1.3768,-0.6351,-0.3263,0.391,-1.2195,-2.9945,-1.3637,-1.139,-0.9219
1.1999,-1.0263,1.2784,-0.5928,0.1853,-1.0973,0.7879,-1.3768,-0.6351,-0.3263,0.391,-1.2195,-2.9945,-1.3637,-1.139,-0.9219
1.1999,-1.0263,1.2784,-0.5928,0.1853,-1.0973,0.7879,-1.3768,-0.6351,-0.3263,0.391,-1.2195,-2.9945,-1.3637,-1.139,-0.9219
1.1773,-1.0316,1.2056,-0.5389,0.1604,-1.1036,0.7785,-1.3792,-0.5972,-0.3811,0.3718,-1.2335,-2.9992,-1.3739,-1.1697,-0.9283
1.1773,-1.0316,1.2056,-0.5389,0.1604,-1.1036,0.7785,-1.3792,-0.5972,-0.3811,0.3718,-1.2335,-2.9992,-1.3739,-1.1697,-0.9283
1.1459,-1.0339,1.2102,-0.5967,0.1332,-1.1066,0.7596,-1.3839,-0.5972,-0.3811,0.3431,-1.2337,-3.0015,-1.379,-1.1942,-0.9334
1.1459,-1.0339,1.2102,-0.5967,0.1332,-1.1066,0.7596,-1.3839,-0.5972,-0.3811,0.3431,-1.2337,-3.0015,-1.379,-1.1942,-0.9334
1.132,-1.0423,1.1845,-0.5596,0.1125,-1.1118,0.7502,-1.3863,-0.5216,-0.49,0.3144,-1.2444,-3.0245,-1.3798,-1.2308,-0.9411
1.132,-1.0423,1.1845,-0.5596,0.1125,-1.1118,0.7502,-1.3863,-0.5216,-0.49,0.3144,-1.2444,-3.0245,-1.3798,-1.2308,-0.9411
1.132,-1.0423,1.1845,-0.5596,0.1125,-1.1118,0.7502,-1.3863,-0.5216,-0.49,0.3144,-1.2444,-3.0245,-1.3798,-1.2308,-0.9411
1.1013,-1.0547,1.1166,-0.5636,0.0795,-1.1202,0.7074,-1.3883,-0.5593,-0.4357,0.2763,-1.2413,-3.0269,-1.3849,-1.2552,-0.9462
1.0675,-1.0627,1.1423,-0.6006,0.0529,-1.1309,0.6793,-1.3954,-0.5216,-0.49,0.2477,-1.2519,-3.0448,-1.3845,-1.2825,-0.9571
1.0252,-1.0676,1.0956,-0.5842,0.02,-1.1392,0.6658,-1.4077,-0.6072,-0.4598,0.2003,-1.2558,-3.06,-1.3881,-1.3189,-0.9648
1.0252,-1.0676,1.0956,-0.5842,0.02,-1.1392,0.6658,-1.4077,-0.6072,-0.4598,0.2003,-1.2558,-3.06,-1.3881,-1.3189,-0.9648
