-6.5495,7.7313,-33.335,-1.5935,-30.432,20.791,-40.058,8.8064,-16.084,25.917,-24.966,32.71,-11.318,-2.5426,6.6816,-12.069
-6.5495,7.7313,-33.335,-1.5935,-30.432,20.791,-40.058,8.8064,-16.084,25.917,-24.966,32.71,-11.318,-2.5426,6.6816,-12.069
-6.5289,7.8276,-33.339,-1.6121,-30.563,21.092,-40.14,8.8569,-16.224,26.138,-25.207,32.878,-11.244,-2.4228,6.4727,-11.929
-6.5289,7.8276,-33.339,-1.6121,-30.563,21.092,-40.14,8.8569,-16.224,26.138,-25.207,32.878,-11.244,-2.4228,6.4727,-11.929
-6.5289,7.8276,-33.339,-1.6121,-30.563,21.092,-40.14,8.8569,-16.224,26.138,-25.207,32.878,-11.244,-2.4228,6.4727,-11.929
-6.5085,7.9243,-33.342,-1.6307,-30.693,21.392,-40.221,8.907,-16.363,26.357,-25.447,33.046,-11.169,-2.3041,6.2646,-11.788
-6.5085,7.9243,-33.342,-1.6307,-30.693,21.392,-40.221,8.907,-16.363,26.357,-25.447,33.046,-11.169,-2.3041,6.2646,-11.788
-6.5085,7.9243,-33.342,-1.6307,-30.693,21.392,-40.221,8.907,-16.363,26.357,-25.447,33.046,-11.169,-2.3041,6.2646,-11.788
-6.4684,8.1187,-33.347,-1.6676,-30.949,21.992,-40.379,9.0054,-16.64,26.793,-25.926,33.379,-11.015,-2.0703,5.8511,-11.51
-6.4684,8.1187,-33.347,-1.6676,-30.949,21.992,-40.379,9.0054,-16.64,26.793,-25.926,33.379,-11.015,-2.0703,5.8511,-11.51
-6.4486,8.2165,-33.348,-1.686,-31.075,22.292,-40.455,9.0538,-16.778,27.01,-26.164,33.544,-10.937,-1.9551,5.6457,-11.371
-6.4486,8.2165,-33.348,-1.686,-31.075,22.292,-40.455,9.0538,-16.778,27.01,-26.164,33.544,-10.937,-1.9551,5.6457,-11.371
-6.4486,8.2165,-33.348,-1.686,-31.075,22.292,-40.455,9.0538,-16.778,27.01,-26.164,33.544,-10.937,-1.9551,5.6457,-11.371
-6.4292,8.3146,-33.349,-1.7044,-31.2,22.59,-40.529,9.1017,-16.915,27.226,-26.401,33.709,-10.857,-1.8411,5.4411,-11.233
-6.4292,8.3146,-33.349,-1.7044,-31.2,22.59,-40.529,9.1017,-16.915,27.226,-26.401,33.709,-10.857,-1.8411,5.4411,-11.233
-6.391,8.5117,-33.349,-1.7411,-31.447,23.187,-40.673,9.1958,-17.187,27.654,-26.874,34.036,-10.695,-1.6166,5.0346,-10.959
-6.391,8.5117,-33.349,-1.7411,-31.447,23.187,-40.673,9.1958,-17.187,27.654,-26.874,34.036,-10.695,-1.6166,5.0346,-10.959
-6.391,8.5117,-33.349,-1.7411,-31.447,23.187,-40.673,9.1958,-17.187,27.654,-26.874,34.036,-10.695,-1.6166,5.0346,-10.959
-6.3723,8.6108,-33.348,-1.7595,-31.568,23.485,-40.743,9.2421,-17.323,27.867,-27.109,34.198,-10.612,-1.506,4.8327,-10.823
-6.3723,8.6108,-33.348,-1.7595,-31.568,23.485,-40.743,9.2421,-17.323,27.867,-27.109,34.198,-10.612,-1.506,4.8327,-10.823
-6.3538,8.7101,-33.347,-1.7778,-31.688,23.782,-40.811,9.2878,-17.457,28.079,-27.344,34.36,-10.529,-1.3966,4.6316,-10.687
-6.3538,8.7101,-33.347,-1.7778,-31.688,23.782,-40.811,9.2878,-17.457,28.079,-27.344,34.36,-10.529,-1.3966,4.6316,-10.687
-6.3356,8.8098,-33.345,-1.7961,-31.807,24.079,-40.877,9.3329,-17.591,28.29,-27.578,34.521,-10.444,-1.2884,4.4315,-10.552
-6.3356,8.8098,-33.345,-1.7961,-31.807,24.079,-40.877,9.3329,-17.591,28.29,-27.578,34.521,-10.444,-1.2884,4.4315,-10.552
-6.3176,8.9098,-33.342,-1.8145,-31.925,24.375,-40.942,9.3775,-17.725,28.5,-27.811,34.681,-10.358,-1.1813,4.2322,-10.418
-6.3176,8.9098,-33.342,-1.8145,-31.925,24.375,-40.942,9.3775,-17.725,28.5,-27.811,34.681,-10.358,-1.1813,4.2322,-10.418
-6.2999,9.0101,-33.339,-1.8329,-32.042,24.671,-41.005,9.4216,-17.858,28.71,-28.043,34.84,-10.272,-1.0753,4.0339,-10.285
-6.2999,9.0101,-33.339,-1.8329,-32.042,24.671,-41.005,9.4216,-17.858,28.71,-28.043,34.84,-10.272,-1.0753,4.0339,-10.285
-6.2824,9.1107,-33.335,-1.8513,-32.157,24.967,-41.066,9.4651,-17.99,28.918,-28.275,34.998,-10.184,-0.97047,3.8364,-10.152
-6.2824,9.1107,-33.335,-1.8513,-32.157,24.967,-41.066,9.4651,-17.99,28.918,-28.275,34.998,-10.184,-0.97047,3.8364,-10.152
-6.2653,9.2116,-33.33,-1.8698,-32.272,25.262,-41.126,9.508,-18.121,29.125,-28.505,35.156,-10.095,-0.86676,3.6399,-10.019
-6.2653,9.2116,-33.33,-1.8698,-32.272,25.262,-41.126,9.508,-18.121,29.125,-28.505,35.156,-10.095,-0.86676,3.6399,-10.019
-6.2483,9.3128,-33.325,-1.8883,-32.385,25.556,-41.185,9.5504,-18.252,29.331,-28.735,35.312,-10.006,-0.76419,3.4443,-9.8875
-6.2483,9.3128,-33.325,-1.8883,-32.385,25.556,-41.185,9.5504,-18.252,29.331,-28.735,35.312,-10.006,-0.76419,3.4443,-9.8875
-6.2317,9.4142,-33.319,-1.9068,-32.497,25.85,-41.241,9.5923,-18.383,29.537,-28.964,35.468,-9.9154,-0.66273,3.2495,-9.7564
-6.2317,9.4142,-33.319,-1.9068,-32.497,25.85,-41.241,9.5923,-18.383,29.537,-28.964,35.468,-9.9154,-0.66273,3.2495,-9.7564
-6.2317,9.4142,-33.319,-1.9068,-32.497,25.85,-41.241,9.5923,-18.383,29.537,-28.964,35.468,-9.9154,-0.66273,3.2495,-9.7564
-6.2153,9.5159,-33.313,-1.9254,-32.608,26.143,-41.296,9.6336,-18.513,29.741,-29.193,35.623,-9.8241,-0.5624,3.0557,-9.626
-6.2153,9.5159,-33.313,-1.9254,-32.608,26.143,-41.296,9.6336,-18.513,29.741,-29.193,35.623,-9.8241,-0.5624,3.0557,-9.626
-6.2153,9.5159,-33.313,-1.9254,-32.608,26.143,-41.296,9.6336,-18.513,29.741,-29.193,35.623,-9.8241,-0.5624,3.0557,-9.626
-6.1834,9.7202,-33.298,-1.9629,-32.827,26.729,-41.401,9.7145,-18.771,30.146,-29.647,35.93,-9.6387,-0.36507,2.6708,-9.3673
-6.1834,9.7202,-33.298,-1.9629,-32.827,26.729,-41.401,9.7145,-18.771,30.146,-29.647,35.93,-9.6387,-0.36507,2.6708,-9.3673
-6.1678,9.8227,-33.289,-1.9817,-32.934,27.02,-41.451,9.7542,-18.899,30.348,-29.873,36.082,-9.5448,-0.26808,2.4798,-9.2389
-6.1678,9.8227,-33.289,-1.9817,-32.934,27.02,-41.451,9.7542,-18.899,30.348,-29.873,36.082,-9.5448,-0.26808,2.4798,-9.2389
-6.1526,9.9254,-33.28,-2.0007,-33.041,27.312,-41.5,9.7932,-19.026,30.548,-30.098,36.233,-9.45,-0.1722,2.2897,-9.1112
-6.1376,10.028,-33.271,-2.0197,-33.146,27.602,-41.547,9.8317,-19.153,30.747,-30.323,36.384,-9.3543,-0.077412,2.1005,-8.9842
-6.1376,10.028,-33.271,-2.0197,-33.146,27.602,-41.547,9.8317,-19.153,30.747,-30.323,36.384,-9.3543,-0.077412,2.1005,-8.9842
-6.1229,10.132,-33.26,-2.0388,-33.25,27.892,-41.592,9.8697,-19.279,30.946,-30.546,36.533,-9.2578,0.01627,1.9122,-8.858
-6.1229,10.132,-33.26,-2.0388,-33.25,27.892,-41.592,9.8697,-19.279,30.946,-30.546,36.533,-9.2578,0.01627,1.9122,-8.858
-6.1229,10.132,-33.26,-2.0388,-33.25,27.892,-41.592,9.8697,-19.279,30.946,-30.546,36.533,-9.2578,0.01627,1.9122,-8.858
-6.1084,10.235,-33.249,-2.0581,-33.353,28.182,-41.636,9.9071,-19.405,31.143,-30.769,36.681,-9.1606,0.10886,1.7248,-8.7324
-6.1084,10.235,-33.249,-2.0581,-33.353,28.182,-41.636,9.9071,-19.405,31.143,-30.769,36.681,-9.1606,0.10886,1.7248,-8.7324
-6.0943,10.339,-33.238,-2.0774,-33.455,28.471,-41.678,9.9439,-19.53,31.339,-30.99,36.829,-9.0625,0.20035,1.5384,-8.6075
-6.0805,10.443,-33.225,-2.0969,-33.556,28.759,-41.719,9.9802,-19.655,31.534,-31.211,36.975,-8.9637,0.29075,1.353,-8.4834
-6.0805,10.443,-33.225,-2.0969,-33.556,28.759,-41.719,9.9802,-19.655,31.534,-31.211,36.975,-8.9637,0.29075,1.353,-8.4834
-6.0669,10.547,-33.212,-2.1166,-33.655,29.047,-41.758,10.016,-19.779,31.729,-31.431,37.12,-8.8641,0.38007,1.1685,-8.36
-6.0669,10.547,-33.212,-2.1166,-33.655,29.047,-41.758,10.016,-19.779,31.729,-31.431,37.12,-8.8641,0.38007,1.1685,-8.36
-6.0537,10.651,-33.199,-2.1363,-33.754,29.334,-41.795,10.051,-19.903,31.922,-31.651,37.265,-8.7637,0.4683,0.9849,-8.2373
-6.0537,10.651,-33.199,-2.1363,-33.754,29.334,-41.795,10.051,-19.903,31.922,-31.651,37.265,-8.7637,0.4683,0.9849,-8.2373
-6.0407,10.755,-33.185,-2.1563,-33.852,29.62,-41.831,10.086,-20.025,32.114,-31.869,37.408,-8.6627,0.55546,0.80228,-8.1154
-6.0407,10.755,-33.185,-2.1563,-33.852,29.62,-41.831,10.086,-20.025,32.114,-31.869,37.408,-8.6627,0.55546,0.80228,-8.1154
-6.0407,10.755,-33.185,-2.1563,-33.852,29.62,-41.831,10.086,-20.025,32.114,-31.869,37.408,-8.6627,0.55546,0.80228,-8.1154
-6.0281,10.86,-33.17,-2.1763,-33.948,29.906,-41.865,10.12,-20.148,32.305,-32.086,37.55,-8.5609,0.64153,0.62062,-7.9942
-6.0281,10.86,-33.17,-2.1763,-33.948,29.906,-41.865,10.12,-20.148,32.305,-32.086,37.55,-8.5609,0.64153,0.62062,-7.9942
-6.0157,10.965,-33.154,-2.1966,-34.043,30.191,-41.898,10.153,-20.27,32.495,-32.303,37.691,-8.4584,0.72654,0.43992,-7.8738
-6.0036,11.07,-33.138,-2.217,-34.138,30.475,-41.929,10.186,-20.391,32.684,-32.518,37.832,-8.3552,0.81047,0.26017,-7.7541
-6.0036,11.07,-33.138,-2.217,-34.138,30.475,-41.929,10.186,-20.391,32.684,-32.518,37.832,-8.3552,0.81047,0.26017,-7.7541
-6.0036,11.07,-33.138,-2.217,-34.138,30.475,-41.929,10.186,-20.391,32.684,-32.518,37.832,-8.3552,0.81047,0.26017,-7.7541
-5.9919,11.175,-33.121,-2.2376,-34.231,30.759,-41.958,10.218,-20.511,32.872,-32.733,37.971,-8.2514,0.89334,0.081387,-7.6352
-5.9919,11.175,-33.121,-2.2376,-34.231,30.759,-41.958,10.218,-20.511,32.872,-32.733,37.971,-8.2514,0.89334,0.081387,-7.6352
-5.9804,11.28,-33.103,-2.2584,-34.323,31.042,-41.986,10.25,-20.632,33.059,-32.947,38.109,-8.1469,0.97515,-0.096428,-7.5171
-5.9804,11.28,-33.103,-2.2584,-34.323,31.042,-41.986,10.25,-20.632,33.059,-32.947,38.109,-8.1469,0.97515,-0.096428,-7.5171
-5.9693,11.386,-33.085,-2.2794,-34.414,31.324,-42.013,10.281,-20.751,33.244,-33.16,38.245,-8.0418,1.0559,-0.27327,-7.3997
-5.9693,11.386,-33.085,-2.2794,-34.414,31.324,-42.013,10.281,-20.751,33.244,-33.16,38.245,-8.0418,1.0559,-0.27327,-7.3997
-5.9693,11.386,-33.085,-2.2794,-34.414,31.324,-42.013,10.281,-20.751,33.244,-33.16,38.245,-8.0418,1.0559,-0.27327,-7.3997
-5.9585,11.491,-33.066,-2.3006,-34.504,31.606,-42.038,10.312,-20.87,33.429,-33.372,38.381,-7.936,1.1356,-0.44914,-7.2832
-5.9585,11.491,-33.066,-2.3006,-34.504,31.606,-42.038,10.312,-20.87,33.429,-33.372,38.381,-7.936,1.1356,-0.44914,-7.2832
-5.9585,11.491,-33.066,-2.3006,-34.504,31.606,-42.038,10.312,-20.87,33.429,-33.372,38.381,-7.936,1.1356,-0.44914,-7.2832
-5.9378,11.703,-33.026,-2.3436,-34.681,32.167,-42.083,10.371,-21.106,33.795,-33.793,38.649,-7.7227,1.2918,-0.79795,-7.0524
-5.9378,11.703,-33.026,-2.3436,-34.681,32.167,-42.083,10.371,-21.106,33.795,-33.793,38.649,-7.7227,1.2918,-0.79795,-7.0524
-5.9279,11.809,-33.005,-2.3655,-34.768,32.446,-42.103,10.4,-21.224,33.977,-34.002,38.782,-7.6152,1.3684,-0.97088,-6.9383
-5.9279,11.809,-33.005,-2.3655,-34.768,32.446,-42.103,10.4,-21.224,33.977,-34.002,38.782,-7.6152,1.3684,-0.97088,-6.9383
-5.9183,11.915,-32.983,-2.3876,-34.854,32.725,-42.121,10.429,-21.341,34.157,-34.21,38.913,-7.5071,1.4439,-1.1428,-6.8249
-5.9183,11.915,-32.983,-2.3876,-34.854,32.725,-42.121,10.429,-21.341,34.157,-34.21,38.913,-7.5071,1.4439,-1.1428,-6.8249
-5.9091,12.021,-32.96,-2.4099,-34.939,33.003,-42.139,10.456,-21.457,34.336,-34.417,39.043,-7.3985,1.5183,-1.3138,-6.7124
-5.9091,12.021,-32.96,-2.4099,-34.939,33.003,-42.139,10.456,-21.457,34.336,-34.417,39.043,-7.3985,1.5183,-1.3138,-6.7124
-5.9002,12.127,-32.937,-2.4325,-35.022,33.28,-42.154,10.484,-21.573,34.514,-34.624,39.171,-7.2894,1.5918,-1.4837,-6.6007
-5.9002,12.127,-32.937,-2.4325,-35.022,33.28,-42.154,10.484,-21.573,34.514,-34.624,39.171,-7.2894,1.5918,-1.4837,-6.6007
-5.8916,12.234,-32.913,-2.4553,-35.105,33.556,-42.168,10.51,-21.688,34.692,-34.829,39.299,-7.1797,1.6642,-1.6527,-6.4899
-5.8916,12.234,-32.913,-2.4553,-35.105,33.556,-42.168,10.51,-21.688,34.692,-34.829,39.299,-7.1797,1.6642,-1.6527,-6.4899
-5.8833,12.34,-32.889,-2.4784,-35.187,33.831,-42.181,10.536,-21.803,34.867,-35.033,39.425,-7.0695,1.7355,-1.8207,-6.3799
-5.8833,12.34,-32.889,-2.4784,-35.187,33.831,-42.181,10.536,-21.803,34.867,-35.033,39.425,-7.0695,1.7355,-1.8207,-6.3799
-5.8753,12.446,-32.864,-2.5018,-35.268,34.106,-42.192,10.562,-21.917,35.042,-35.236,39.55,-6.9589,1.8059,-1.9876,-6.2708
-5.8753,12.446,-32.864,-2.5018,-35.268,34.106,-42.192,10.562,-21.917,35.042,-35.236,39.55,-6.9589,1.8059,-1.9876,-6.2708
-5.8677,12.553,-32.838,-2.5254,-35.348,34.38,-42.201,10.586,-22.03,35.216,-35.439,39.674,-6.8477,1.8752,-2.1535,-6.1625
-5.8604,12.659,-32.811,-2.5493,-35.426,34.653,-42.209,10.611,-22.144,35.389,-35.64,39.797,-6.7362,1.9435,-2.3185,-6.0551
-5.8604,12.659,-32.811,-2.5493,-35.426,34.653,-42.209,10.611,-22.144,35.389,-35.64,39.797,-6.7362,1.9435,-2.3185,-6.0551
-5.8534,12.766,-32.784,-2.5736,-35.504,34.925,-42.216,10.634,-22.256,35.56,-35.84,39.918,-6.6242,2.0108,-2.4824,-5.9485
-5.8534,12.766,-32.784,-2.5736,-35.504,34.925,-42.216,10.634,-22.256,35.56,-35.84,39.918,-6.6242,2.0108,-2.4824,-5.9485
-5.8534,12.766,-32.784,-2.5736,-35.504,34.925,-42.216,10.634,-22.256,35.56,-35.84,39.918,-6.6242,2.0108,-2.4824,-5.9485
-5.8468,12.872,-32.756,-2.5981,-35.581,35.196,-42.221,10.658,-22.368,35.73,-36.039,40.038,-6.5117,2.077,-2.6453,-5.8428
-5.8468,12.872,-32.756,-2.5981,-35.581,35.196,-42.221,10.658,-22.368,35.73,-36.039,40.038,-6.5117,2.077,-2.6453,-5.8428
-5.8468,12.872,-32.756,-2.5981,-35.581,35.196,-42.221,10.658,-22.368,35.73,-36.039,40.038,-6.5117,2.077,-2.6453,-5.8428
-5.8405,12.979,-32.727,-2.6229,-35.657,35.466,-42.224,10.68,-22.48,35.9,-36.237,40.157,-6.3989,2.1423,-2.8072,-5.7381
-5.8345,13.086,-32.697,-2.6481,-35.732,35.736,-42.226,10.702,-22.591,36.068,-36.434,40.274,-6.2857,2.2066,-2.968,-5.6342
-5.8289,13.192,-32.667,-2.6736,-35.806,36.005,-42.227,10.723,-22.702,36.235,-36.631,40.39,-6.1721,2.2698,-3.1278,-5.5312
-5.8289,13.192,-32.667,-2.6736,-35.806,36.005,-42.227,10.723,-22.702,36.235,-36.631,40.39,-6.1721,2.2698,-3.1278,-5.5312
-5.8289,13.192,-32.667,-2.6736,-35.806,36.005,-42.227,10.723,-22.702,36.235,-36.631,40.39,-6.1721,2.2698,-3.1278,-5.5312
-5.8236,13.299,-32.636,-2.6994,-35.879,36.272,-42.226,10.744,-22.812,36.4,-36.826,40.505,-6.0582,2.3321,-3.2866,-5.4291
-5.8236,13.299,-32.636,-2.6994,-35.879,36.272,-42.226,10.744,-22.812,36.4,-36.826,40.505,-6.0582,2.3321,-3.2866,-5.4291
-5.8236,13.299,-32.636,-2.6994,-35.879,36.272,-42.226,10.744,-22.812,36.4,-36.826,40.505,-6.0582,2.3321,-3.2866,-5.4291
-5.8186,13.405,-32.605,-2.7255,-35.951,36.539,-42.223,10.764,-22.921,36.565,-37.02,40.619,-5.9439,2.3933,-3.4443,-5.328
-5.8186,13.405,-32.605,-2.7255,-35.951,36.539,-42.223,10.764,-22.921,36.565,-37.02,40.619,-5.9439,2.3933,-3.4443,-5.328
-5.814,13.512,-32.572,-2.752,-36.022,36.805,-42.22,10.784,-23.031,36.729,-37.212,40.731,-5.8293,2.4536,-3.601,-5.2278
-5.814,13.512,-32.572,-2.752,-36.022,36.805,-42.22,10.784,-23.031,36.729,-37.212,40.731,-5.8293,2.4536,-3.601,-5.2278
-5.8097,13.619,-32.539,-2.7788,-36.092,37.07,-42.214,10.803,-23.139,36.891,-37.404,40.842,-5.7143,2.5129,-3.7567,-5.1285
-5.8057,13.725,-32.505,-2.806,-36.162,37.334,-42.207,10.822,-23.247,37.052,-37.595,40.951,-5.5991,2.5712,-3.9113,-5.0301
-5.8021,13.831,-32.471,-2.8336,-36.23,37.597,-42.199,10.839,-23.355,37.212,-37.785,41.059,-5.4836,2.6285,-4.0648,-4.9327
-5.8021,13.831,-32.471,-2.8336,-36.23,37.597,-42.199,10.839,-23.355,37.212,-37.785,41.059,-5.4836,2.6285,-4.0648,-4.9327
-5.8021,13.831,-32.471,-2.8336,-36.23,37.597,-42.199,10.839,-23.355,37.212,-37.785,41.059,-5.4836,2.6285,-4.0648,-4.9327
-5.7988,13.938,-32.436,-2.8615,-36.297,37.859,-42.189,10.857,-23.462,37.371,-37.973,41.165,-5.3679,2.6849,-4.2173,-4.8363
-5.7988,13.938,-32.436,-2.8615,-36.297,37.859,-42.189,10.857,-23.462,37.371,-37.973,41.165,-5.3679,2.6849,-4.2173,-4.8363
-5.7959,14.044,-32.4,-2.8898,-36.364,38.119,-42.178,10.873,-23.569,37.528,-38.16,41.271,-5.2519,2.7402,-4.3687,-4.7408
-5.7959,14.044,-32.4,-2.8898,-36.364,38.119,-42.178,10.873,-23.569,37.528,-38.16,41.271,-5.2519,2.7402,-4.3687,-4.7408
-5.7933,14.15,-32.363,-2.9185,-36.429,38.379,-42.166,10.89,-23.675,37.685,-38.347,41.374,-5.1356,2.7946,-4.5191,-4.6462
-5.7933,14.15,-32.363,-2.9185,-36.429,38.379,-42.166,10.89,-23.675,37.685,-38.347,41.374,-5.1356,2.7946,-4.5191,-4.6462
-5.7911,14.256,-32.326,-2.9476,-36.494,38.638,-42.152,10.905,-23.781,37.84,-38.532,41.477,-5.0192,2.8481,-4.6684,-4.5527
-5.7911,14.256,-32.326,-2.9476,-36.494,38.638,-42.152,10.905,-23.781,37.84,-38.532,41.477,-5.0192,2.8481,-4.6684,-4.5527
-5.7892,14.362,-32.287,-2.9771,-36.558,38.896,-42.136,10.92,-23.886,37.994,-38.716,41.578,-4.9025,2.9005,-4.8166,-4.4601
-5.7892,14.362,-32.287,-2.9771,-36.558,38.896,-42.136,10.92,-23.886,37.994,-38.716,41.578,-4.9025,2.9005,-4.8166,-4.4601
-5.7876,14.468,-32.249,-3.007,-36.621,39.153,-42.12,10.934,-23.991,38.147,-38.899,41.677,-4.7857,2.952,-4.9637,-4.3686
-5.7876,14.468,-32.249,-3.007,-36.621,39.153,-42.12,10.934,-23.991,38.147,-38.899,41.677,-4.7857,2.952,-4.9637,-4.3686
-5.7864,14.574,-32.209,-3.0373,-36.683,39.409,-42.101,10.948,-24.095,38.299,-39.08,41.775,-4.6687,3.0026,-5.1097,-4.278
-5.7864,14.574,-32.209,-3.0373,-36.683,39.409,-42.101,10.948,-24.095,38.299,-39.08,41.775,-4.6687,3.0026,-5.1097,-4.278
-5.7855,14.679,-32.169,-3.068,-36.744,39.664,-42.082,10.961,-24.199,38.449,-39.261,41.871,-4.5516,3.0521,-5.2547,-4.1885
-5.785,14.785,-32.128,-3.0992,-36.805,39.918,-42.061,10.974,-24.303,38.599,-39.44,41.966,-4.4343,3.1008,-5.3986,-4.0999
-5.785,14.785,-32.128,-3.0992,-36.805,39.918,-42.061,10.974,-24.303,38.599,-39.44,41.966,-4.4343,3.1008,-5.3986,-4.0999
-5.785,14.785,-32.128,-3.0992,-36.805,39.918,-42.061,10.974,-24.303,38.599,-39.44,41.966,-4.4343,3.1008,-5.3986,-4.0999
-5.7849,14.89,-32.086,-3.1308,-36.864,40.17,-42.038,10.986,-24.406,38.747,-39.618,42.06,-4.3169,3.1485,-5.5413,-4.0124
-5.7849,14.89,-32.086,-3.1308,-36.864,40.17,-42.038,10.986,-24.406,38.747,-39.618,42.06,-4.3169,3.1485,-5.5413,-4.0124
-5.785,14.995,-32.043,-3.1628,-36.923,40.422,-42.015,10.997,-24.509,38.894,-39.795,42.152,-4.1994,3.1952,-5.683,-3.9259
-5.785,14.995,-32.043,-3.1628,-36.923,40.422,-42.015,10.997,-24.509,38.894,-39.795,42.152,-4.1994,3.1952,-5.683,-3.9259
-5.7856,15.1,-32,-3.1953,-36.981,40.672,-41.989,11.008,-24.611,39.039,-39.971,42.242,-4.0818,3.241,-5.8236,-3.8404
-5.7856,15.1,-32,-3.1953,-36.981,40.672,-41.989,11.008,-24.611,39.039,-39.971,42.242,-4.0818,3.241,-5.8236,-3.8404
-5.7864,15.205,-31.956,-3.2282,-37.038,40.921,-41.963,11.018,-24.712,39.184,-40.146,42.331,-3.9641,3.2858,-5.963,-3.756
-5.7877,15.309,-31.911,-3.2616,-37.094,41.17,-41.935,11.028,-24.814,39.327,-40.319,42.418,-3.8463,3.3298,-6.1014,-3.6727
-5.7877,15.309,-31.911,-3.2616,-37.094,41.17,-41.935,11.028,-24.814,39.327,-40.319,42.418,-3.8463,3.3298,-6.1014,-3.6727
-5.7892,15.413,-31.866,-3.2954,-37.15,41.417,-41.906,11.037,-24.915,39.469,-40.491,42.504,-3.7286,3.3728,-6.2386,-3.5904
-5.7892,15.413,-31.866,-3.2954,-37.15,41.417,-41.906,11.037,-24.915,39.469,-40.491,42.504,-3.7286,3.3728,-6.2386,-3.5904
-5.7892,15.413,-31.866,-3.2954,-37.15,41.417,-41.906,11.037,-24.915,39.469,-40.491,42.504,-3.7286,3.3728,-6.2386,-3.5904
-5.7912,15.518,-31.819,-3.3297,-37.204,41.662,-41.875,11.045,-25.015,39.61,-40.662,42.588,-3.6108,3.4148,-6.3747,-3.5091
-5.7912,15.518,-31.819,-3.3297,-37.204,41.662,-41.875,11.045,-25.015,39.61,-40.662,42.588,-3.6108,3.4148,-6.3747,-3.5091
-5.7912,15.518,-31.819,-3.3297,-37.204,41.662,-41.875,11.045,-25.015,39.61,-40.662,42.588,-3.6108,3.4148,-6.3747,-3.5091
-5.7934,15.621,-31.772,-3.3645,-37.258,41.907,-41.843,11.053,-25.115,39.749,-40.832,42.671,-3.4929,3.456,-6.5097,-3.429
-5.7934,15.621,-31.772,-3.3645,-37.258,41.907,-41.843,11.053,-25.115,39.749,-40.832,42.671,-3.4929,3.456,-6.5097,-3.429
-5.796,15.725,-31.725,-3.3998,-37.311,42.151,-41.81,11.06,-25.215,39.888,-41.001,42.752,-3.3751,3.4962,-6.6435,-3.3499
-5.796,15.725,-31.725,-3.3998,-37.311,42.151,-41.81,11.06,-25.215,39.888,-41.001,42.752,-3.3751,3.4962,-6.6435,-3.3499
-5.799,15.828,-31.676,-3.4355,-37.363,42.393,-41.775,11.067,-25.314,40.025,-41.168,42.831,-3.2573,3.5355,-6.7762,-3.2719
-5.799,15.828,-31.676,-3.4355,-37.363,42.393,-41.775,11.067,-25.314,40.025,-41.168,42.831,-3.2573,3.5355,-6.7762,-3.2719
-5.806,16.034,-31.577,-3.5086,-37.465,42.874,-41.702,11.079,-25.511,40.295,-41.498,42.985,-3.0219,3.6113,-7.0382,-3.1193
-5.806,16.034,-31.577,-3.5086,-37.465,42.874,-41.702,11.079,-25.511,40.295,-41.498,42.985,-3.0219,3.6113,-7.0382,-3.1193
-5.806,16.034,-31.577,-3.5086,-37.465,42.874,-41.702,11.079,-25.511,40.295,-41.498,42.985,-3.0219,3.6113,-7.0382,-3.1193
-5.81,16.137,-31.526,-3.5458,-37.515,43.112,-41.664,11.084,-25.609,40.428,-41.662,43.059,-2.9042,3.6478,-7.1675,-3.0446
-5.81,16.137,-31.526,-3.5458,-37.515,43.112,-41.664,11.084,-25.609,40.428,-41.662,43.059,-2.9042,3.6478,-7.1675,-3.0446
-5.81,16.137,-31.526,-3.5458,-37.515,43.112,-41.664,11.084,-25.609,40.428,-41.662,43.059,-2.9042,3.6478,-7.1675,-3.0446
-5.8143,16.239,-31.475,-3.5836,-37.564,43.35,-41.624,11.088,-25.706,40.56,-41.824,43.132,-2.7867,3.6835,-7.2956,-2.9711
-5.8143,16.239,-31.475,-3.5836,-37.564,43.35,-41.624,11.088,-25.706,40.56,-41.824,43.132,-2.7867,3.6835,-7.2956,-2.9711
-5.8241,16.442,-31.37,-3.6607,-37.66,43.821,-41.541,11.095,-25.9,40.821,-42.144,43.273,-2.5519,3.7521,-7.5484,-2.8274
-5.8241,16.442,-31.37,-3.6607,-37.66,43.821,-41.541,11.095,-25.9,40.821,-42.144,43.273,-2.5519,3.7521,-7.5484,-2.8274
-5.8241,16.442,-31.37,-3.6607,-37.66,43.821,-41.541,11.095,-25.9,40.821,-42.144,43.273,-2.5519,3.7521,-7.5484,-2.8274
-5.8295,16.544,-31.316,-3.7,-37.707,44.054,-41.497,11.097,-25.997,40.949,-42.302,43.341,-2.4346,3.785,-7.673,-2.7572
-5.8295,16.544,-31.316,-3.7,-37.707,44.054,-41.497,11.097,-25.997,40.949,-42.302,43.341,-2.4346,3.785,-7.673,-2.7572
-5.8352,16.645,-31.261,-3.7399,-37.753,44.287,-41.452,11.099,-26.093,41.076,-42.459,43.407,-2.3175,3.8171,-7.7965,-2.6883
-5.8352,16.645,-31.261,-3.7399,-37.753,44.287,-41.452,11.099,-26.093,41.076,-42.459,43.407,-2.3175,3.8171,-7.7965,-2.6883
-5.8413,16.745,-31.206,-3.7803,-37.798,44.518,-41.406,11.1,-26.188,41.202,-42.615,43.472,-2.2006,3.8482,-7.9187,-2.6204
-5.8477,16.845,-31.15,-3.8213,-37.843,44.747,-41.359,11.101,-26.283,41.326,-42.769,43.534,-2.0839,3.8785,-8.0398,-2.5538
-5.8477,16.845,-31.15,-3.8213,-37.843,44.747,-41.359,11.101,-26.283,41.326,-42.769,43.534,-2.0839,3.8785,-8.0398,-2.5538
-5.8477,16.845,-31.15,-3.8213,-37.843,44.747,-41.359,11.101,-26.283,41.326,-42.769,43.534,-2.0839,3.8785,-8.0398,-2.5538
-5.8545,16.945,-31.094,-3.8628,-37.887,44.976,-41.31,11.101,-26.378,41.45,-42.922,43.595,-1.9673,3.9079,-8.1598,-2.4883
-5.8545,16.945,-31.094,-3.8628,-37.887,44.976,-41.31,11.101,-26.378,41.45,-42.922,43.595,-1.9673,3.9079,-8.1598,-2.4883
-5.8616,17.045,-31.036,-3.9048,-37.93,45.203,-41.26,11.101,-26.473,41.571,-43.073,43.655,-1.8509,3.9364,-8.2785,-2.424
-5.8616,17.045,-31.036,-3.9048,-37.93,45.203,-41.26,11.101,-26.473,41.571,-43.073,43.655,-1.8509,3.9364,-8.2785,-2.424
-5.8691,17.144,-30.978,-3.9474,-37.973,45.428,-41.209,11.1,-26.567,41.692,-43.223,43.712,-1.7348,3.964,-8.396,-2.3608
-5.8691,17.144,-30.978,-3.9474,-37.973,45.428,-41.209,11.1,-26.567,41.692,-43.223,43.712,-1.7348,3.964,-8.396,-2.3608
-5.8769,17.242,-30.919,-3.9906,-38.015,45.653,-41.157,11.098,-26.661,41.812,-43.372,43.768,-1.6188,3.9907,-8.5123,-2.2989
-5.885,17.341,-30.859,-4.0344,-38.056,45.876,-41.103,11.096,-26.754,41.93,-43.52,43.822,-1.5032,4.0166,-8.6274,-2.2382
-5.885,17.341,-30.859,-4.0344,-38.056,45.876,-41.103,11.096,-26.754,41.93,-43.52,43.822,-1.5032,4.0166,-8.6274,-2.2382
-5.8935,17.438,-30.799,-4.0787,-38.097,46.097,-41.049,11.093,-26.847,42.046,-43.666,43.874,-1.3878,4.0416,-8.7413,-2.1787
-5.8935,17.438,-30.799,-4.0787,-38.097,46.097,-41.049,11.093,-26.847,42.046,-43.666,43.874,-1.3878,4.0416,-8.7413,-2.1787
-5.8935,17.438,-30.799,-4.0787,-38.097,46.097,-41.049,11.093,-26.847,42.046,-43.666,43.874,-1.3878,4.0416,-8.7413,-2.1787
-5.8935,17.438,-30.799,-4.0787,-38.097,46.097,-41.049,11.093,-26.847,42.046,-43.666,43.874,-1.3878,4.0416,-8.7413,-2.1787
-5.9023,17.536,-30.738,-4.1236,-38.136,46.317,-40.993,11.09,-26.94,42.162,-43.81,43.925,-1.2726,4.0658,-8.854,-2.1204
-5.9023,17.536,-30.738,-4.1236,-38.136,46.317,-40.993,11.09,-26.94,42.162,-43.81,43.925,-1.2726,4.0658,-8.854,-2.1204
-5.9023,17.536,-30.738,-4.1236,-38.136,46.317,-40.993,11.09,-26.94,42.162,-43.81,43.925,-1.2726,4.0658,-8.854,-2.1204
-5.9209,17.729,-30.613,-4.2151,-38.214,46.753,-40.878,11.081,-27.124,42.389,-44.095,44.021,-1.0432,4.1115,-9.0757,-2.0075
-5.9209,17.729,-30.613,-4.2151,-38.214,46.753,-40.878,11.081,-27.124,42.389,-44.095,44.021,-1.0432,4.1115,-9.0757,-2.0075
-5.9209,17.729,-30.613,-4.2151,-38.214,46.753,-40.878,11.081,-27.124,42.389,-44.095,44.021,-1.0432,4.1115,-9.0757,-2.0075
-5.9307,17.825,-30.55,-4.2618,-38.252,46.969,-40.818,11.076,-27.215,42.501,-44.235,44.066,-0.92899,4.133,-9.1847,-1.9529
-5.9307,17.825,-30.55,-4.2618,-38.252,46.969,-40.818,11.076,-27.215,42.501,-44.235,44.066,-0.92899,4.133,-9.1847,-1.9529
-5.9307,17.825,-30.55,-4.2618,-38.252,46.969,-40.818,11.076,-27.215,42.501,-44.235,44.066,-0.92899,4.133,-9.1847,-1.9529
-5.9514,18.016,-30.421,-4.3569,-38.326,47.397,-40.696,11.064,-27.398,42.72,-44.512,44.15,-0.70155,4.1736,-9.399,-1.8474
-5.9514,18.016,-30.421,-4.3569,-38.326,47.397,-40.696,11.064,-27.398,42.72,-44.512,44.15,-0.70155,4.1736,-9.399,-1.8474
-5.9514,18.016,-30.421,-4.3569,-38.326,47.397,-40.696,11.064,-27.398,42.72,-44.512,44.15,-0.70155,4.1736,-9.399,-1.8474
-5.9622,18.11,-30.355,-4.4053,-38.362,47.608,-40.633,11.057,-27.488,42.828,-44.648,44.19,-0.58836,4.1926,-9.5043,-1.7966
-5.9733,18.204,-30.289,-4.4544,-38.397,47.818,-40.569,11.05,-27.578,42.934,-44.782,44.228,-0.47555,4.2108,-9.6083,-1.747
-5.9848,18.297,-30.222,-4.504,-38.432,48.027,-40.504,11.042,-27.668,43.039,-44.915,44.264,-0.36313,4.2281,-9.7111,-1.6987
-5.9848,18.297,-30.222,-4.504,-38.432,48.027,-40.504,11.042,-27.668,43.039,-44.915,44.264,-0.36313,4.2281,-9.7111,-1.6987
-5.9966,18.39,-30.154,-4.5543,-38.466,48.234,-40.438,11.033,-27.758,43.143,-45.047,44.298,-0.25112,4.2446,-9.8126,-1.6517
-5.9966,18.39,-30.154,-4.5543,-38.466,48.234,-40.438,11.033,-27.758,43.143,-45.047,44.298,-0.25112,4.2446,-9.8126,-1.6517
-5.9966,18.39,-30.154,-4.5543,-38.466,48.234,-40.438,11.033,-27.758,43.143,-45.047,44.298,-0.25112,4.2446,-9.8126,-1.6517
-6.0087,18.483,-30.085,-4.6052,-38.499,48.439,-40.371,11.024,-27.847,43.245,-45.177,44.33,-0.13952,4.2603,-9.9129,-1.6059
-6.0087,18.483,-30.085,-4.6052,-38.499,48.439,-40.371,11.024,-27.847,43.245,-45.177,44.33,-0.13952,4.2603,-9.9129,-1.6059
-6.0211,18.574,-30.016,-4.6567,-38.532,48.643,-40.302,11.014,-27.936,43.347,-45.306,44.36,-0.028349,4.2751,-10.012,-1.5615
-6.0211,18.574,-30.016,-4.6567,-38.532,48.643,-40.302,11.014,-27.936,43.347,-45.306,44.36,-0.028349,4.2751,-10.012,-1.5615
-6.0338,18.666,-29.946,-4.7089,-38.565,48.846,-40.233,11.003,-28.025,43.446,-45.433,44.389,0.082373,4.2891,-10.11,-1.5184
-6.0469,18.756,-29.875,-4.7616,-38.596,49.046,-40.162,10.992,-28.113,43.545,-45.558,44.416,0.19264,4.3023,-10.206,-1.4765
-6.0469,18.756,-29.875,-4.7616,-38.596,49.046,-40.162,10.992,-28.113,43.545,-45.558,44.416,0.19264,4.3023,-10.206,-1.4765
-6.0603,18.846,-29.804,-4.815,-38.627,49.246,-40.091,10.981,-28.201,43.642,-45.682,44.44,0.30243,4.3146,-10.301,-1.436
-6.0603,18.846,-29.804,-4.815,-38.627,49.246,-40.091,10.981,-28.201,43.642,-45.682,44.44,0.30243,4.3146,-10.301,-1.436
-6.0603,18.846,-29.804,-4.815,-38.627,49.246,-40.091,10.981,-28.201,43.642,-45.682,44.44,0.30243,4.3146,-10.301,-1.436
-6.0739,18.936,-29.732,-4.869,-38.658,49.443,-40.018,10.969,-28.289,43.738,-45.805,44.463,0.41173,4.3261,-10.395,-1.3969
-6.0739,18.936,-29.732,-4.869,-38.658,49.443,-40.018,10.969,-28.289,43.738,-45.805,44.463,0.41173,4.3261,-10.395,-1.3969
-6.0879,19.024,-29.659,-4.9237,-38.688,49.64,-39.945,10.956,-28.376,43.832,-45.926,44.484,0.52054,4.3369,-10.487,-1.359
-6.0879,19.024,-29.659,-4.9237,-38.688,49.64,-39.945,10.956,-28.376,43.832,-45.926,44.484,0.52054,4.3369,-10.487,-1.359
-6.1022,19.112,-29.585,-4.979,-38.717,49.834,-39.87,10.943,-28.463,43.926,-46.045,44.503,0.62883,4.3468,-10.579,-1.3225
-6.1168,19.2,-29.51,-5.035,-38.746,50.027,-39.794,10.929,-28.55,44.017,-46.163,44.52,0.7366,4.3558,-10.669,-1.2873
-6.1168,19.2,-29.51,-5.035,-38.746,50.027,-39.794,10.929,-28.55,44.017,-46.163,44.52,0.7366,4.3558,-10.669,-1.2873
-6.1318,19.287,-29.435,-5.0916,-38.775,50.219,-39.717,10.914,-28.637,44.108,-46.28,44.535,0.84383,4.3641,-10.757,-1.2535
-6.1318,19.287,-29.435,-5.0916,-38.775,50.219,-39.717,10.914,-28.637,44.108,-46.28,44.535,0.84383,4.3641,-10.757,-1.2535
-6.1318,19.287,-29.435,-5.0916,-38.775,50.219,-39.717,10.914,-28.637,44.108,-46.28,44.535,0.84383,4.3641,-10.757,-1.2535
-6.147,19.373,-29.359,-5.1488,-38.802,50.408,-39.64,10.899,-28.723,44.197,-46.394,44.548,0.9505,4.3716,-10.844,-1.221
-6.147,19.373,-29.359,-5.1488,-38.802,50.408,-39.64,10.899,-28.723,44.197,-46.394,44.548,0.9505,4.3716,-10.844,-1.221
-6.1625,19.458,-29.283,-5.2067,-38.83,50.596,-39.561,10.884,-28.809,44.285,-46.508,44.559,1.0566,4.3783,-10.93,-1.1899
-6.1625,19.458,-29.283,-5.2067,-38.83,50.596,-39.561,10.884,-28.809,44.285,-46.508,44.559,1.0566,4.3783,-10.93,-1.1899
-6.1783,19.543,-29.205,-5.2652,-38.856,50.783,-39.481,10.868,-28.894,44.371,-46.619,44.568,1.1621,4.3842,-11.015,-1.1602
-6.1783,19.543,-29.205,-5.2652,-38.856,50.783,-39.481,10.868,-28.894,44.371,-46.619,44.568,1.1621,4.3842,-11.015,-1.1602
-6.1944,19.627,-29.127,-5.3244,-38.883,50.967,-39.401,10.851,-28.98,44.457,-46.729,44.576,1.2671,4.3892,-11.098,-1.1318
-6.1944,19.627,-29.127,-5.3244,-38.883,50.967,-39.401,10.851,-28.98,44.457,-46.729,44.576,1.2671,4.3892,-11.098,-1.1318
-6.2107,19.711,-29.049,-5.3843,-38.908,51.151,-39.319,10.834,-29.065,44.54,-46.838,44.581,1.3714,4.3935,-11.18,-1.1049
-6.2107,19.711,-29.049,-5.3843,-38.908,51.151,-39.319,10.834,-29.065,44.54,-46.838,44.581,1.3714,4.3935,-11.18,-1.1049
-6.2274,19.794,-28.969,-5.4448,-38.933,51.332,-39.236,10.816,-29.15,44.623,-46.944,44.584,1.4751,4.397,-11.261,-1.0793
-6.2274,19.794,-28.969,-5.4448,-38.933,51.332,-39.236,10.816,-29.15,44.623,-46.944,44.584,1.4751,4.397,-11.261,-1.0793
-6.2444,19.875,-28.889,-5.506,-38.958,51.512,-39.153,10.797,-29.234,44.704,-47.05,44.585,1.5782,4.3997,-11.34,-1.0551
-6.2444,19.875,-28.889,-5.506,-38.958,51.512,-39.153,10.797,-29.234,44.704,-47.05,44.585,1.5782,4.3997,-11.34,-1.0551
-6.2616,19.957,-28.808,-5.5678,-38.982,51.69,-39.068,10.778,-29.318,44.784,-47.153,44.585,1.6807,4.4017,-11.418,-1.0323
-6.2791,20.037,-28.726,-5.6303,-39.006,51.866,-38.983,10.759,-29.402,44.862,-47.255,44.582,1.7825,4.4028,-11.495,-1.0109
-6.2791,20.037,-28.726,-5.6303,-39.006,51.866,-38.983,10.759,-29.402,44.862,-47.255,44.582,1.7825,4.4028,-11.495,-1.0109
-6.2969,20.117,-28.644,-5.6934,-39.029,52.041,-38.897,10.739,-29.486,44.939,-47.355,44.577,1.8836,4.4032,-11.57,-0.99097
-6.2969,20.117,-28.644,-5.6934,-39.029,52.041,-38.897,10.739,-29.486,44.939,-47.355,44.577,1.8836,4.4032,-11.57,-0.99097
-6.3149,20.196,-28.561,-5.7573,-39.052,52.213,-38.809,10.718,-29.569,45.015,-47.454,44.57,1.9841,4.4028,-11.644,-0.97243
-6.3149,20.196,-28.561,-5.7573,-39.052,52.213,-38.809,10.718,-29.569,45.015,-47.454,44.57,1.9841,4.4028,-11.644,-0.97243
-6.3149,20.196,-28.561,-5.7573,-39.052,52.213,-38.809,10.718,-29.569,45.015,-47.454,44.57,1.9841,4.4028,-11.644,-0.97243
-6.3333,20.274,-28.477,-5.8218,-39.074,52.384,-38.721,10.697,-29.653,45.089,-47.551,44.562,2.0838,4.4016,-11.716,-0.95532
-6.3333,20.274,-28.477,-5.8218,-39.074,52.384,-38.721,10.697,-29.653,45.089,-47.551,44.562,2.0838,4.4016,-11.716,-0.95532
-6.3519,20.351,-28.393,-5.8869,-39.096,52.554,-38.632,10.675,-29.736,45.162,-47.646,44.551,2.1829,4.3996,-11.787,-0.93964
-6.3707,20.428,-28.307,-5.9527,-39.117,52.721,-38.542,10.653,-29.818,45.234,-47.739,44.538,2.2813,4.3969,-11.857,-0.92541
-6.3707,20.428,-28.307,-5.9527,-39.117,52.721,-38.542,10.653,-29.818,45.234,-47.739,44.538,2.2813,4.3969,-11.857,-0.92541
-6.3898,20.504,-28.221,-6.0192,-39.138,52.887,-38.452,10.63,-29.901,45.304,-47.831,44.523,2.3789,4.3934,-11.925,-0.91261
-6.3898,20.504,-28.221,-6.0192,-39.138,52.887,-38.452,10.63,-29.901,45.304,-47.831,44.523,2.3789,4.3934,-11.925,-0.91261
-6.3898,20.504,-28.221,-6.0192,-39.138,52.887,-38.452,10.63,-29.901,45.304,-47.831,44.523,2.3789,4.3934,-11.925,-0.91261
-6.4092,20.578,-28.135,-6.0864,-39.158,53.051,-38.36,10.606,-29.983,45.373,-47.921,44.506,2.4758,4.3892,-11.992,-0.90127
-6.4092,20.578,-28.135,-6.0864,-39.158,53.051,-38.36,10.606,-29.983,45.373,-47.921,44.506,2.4758,4.3892,-11.992,-0.90127
-6.4092,20.578,-28.135,-6.0864,-39.158,53.051,-38.36,10.606,-29.983,45.373,-47.921,44.506,2.4758,4.3892,-11.992,-0.90127
-6.4288,20.653,-28.048,-6.1542,-39.178,53.213,-38.268,10.582,-30.065,45.441,-48.01,44.487,2.5719,4.3842,-12.057,-0.89139
-6.4288,20.653,-28.048,-6.1542,-39.178,53.213,-38.268,10.582,-30.065,45.441,-48.01,44.487,2.5719,4.3842,-12.057,-0.89139
-6.4687,20.798,-27.871,-6.2919,-39.217,53.532,-38.08,10.533,-30.228,45.572,-48.182,44.443,2.7619,4.3719,-12.184,-0.87601
-6.4687,20.798,-27.871,-6.2919,-39.217,53.532,-38.08,10.533,-30.228,45.572,-48.182,44.443,2.7619,4.3719,-12.184,-0.87601
-6.4891,20.87,-27.782,-6.3618,-39.235,53.689,-37.985,10.507,-30.309,45.636,-48.265,44.418,2.8558,4.3647,-12.245,-0.87053
-6.4891,20.87,-27.782,-6.3618,-39.235,53.689,-37.985,10.507,-30.309,45.636,-48.265,44.418,2.8558,4.3647,-12.245,-0.87053
-6.4891,20.87,-27.782,-6.3618,-39.235,53.689,-37.985,10.507,-30.309,45.636,-48.265,44.418,2.8558,4.3647,-12.245,-0.87053
-6.5096,20.94,-27.692,-6.4323,-39.253,53.844,-37.89,10.481,-30.39,45.698,-48.346,44.391,2.9488,4.3567,-12.305,-0.86654
-6.5096,20.94,-27.692,-6.4323,-39.253,53.844,-37.89,10.481,-30.39,45.698,-48.346,44.391,2.9488,4.3567,-12.305,-0.86654
-6.5096,20.94,-27.692,-6.4323,-39.253,53.844,-37.89,10.481,-30.39,45.698,-48.346,44.391,2.9488,4.3567,-12.305,-0.86654
-6.5096,20.94,-27.692,-6.4323,-39.253,53.844,-37.89,10.481,-30.39,45.698,-48.346,44.391,2.9488,4.3567,-12.305,-0.86654
-6.5515,21.079,-27.51,-6.5754,-39.288,54.148,-37.696,10.427,-30.551,45.818,-48.504,44.33,3.1325,4.3384,-12.421,-0.863
-6.5515,21.079,-27.51,-6.5754,-39.288,54.148,-37.696,10.427,-30.551,45.818,-48.504,44.33,3.1325,4.3384,-12.421,-0.863
-6.5515,21.079,-27.51,-6.5754,-39.288,54.148,-37.696,10.427,-30.551,45.818,-48.504,44.33,3.1325,4.3384,-12.421,-0.863
-6.5727,21.147,-27.417,-6.6479,-39.305,54.297,-37.598,10.399,-30.632,45.876,-48.581,44.297,3.2231,4.3282,-12.476,-0.86348
-6.5727,21.147,-27.417,-6.6479,-39.305,54.297,-37.598,10.399,-30.632,45.876,-48.581,44.297,3.2231,4.3282,-12.476,-0.86348
-6.5727,21.147,-27.417,-6.6479,-39.305,54.297,-37.598,10.399,-30.632,45.876,-48.581,44.297,3.2231,4.3282,-12.476,-0.86348
-6.6159,21.28,-27.231,-6.7951,-39.338,54.59,-37.399,10.342,-30.791,45.988,-48.728,44.224,3.4018,4.3055,-12.583,-0.86894
-6.6159,21.28,-27.231,-6.7951,-39.338,54.59,-37.399,10.342,-30.791,45.988,-48.728,44.224,3.4018,4.3055,-12.583,-0.86894
-6.6378,21.345,-27.137,-6.8696,-39.354,54.734,-37.299,10.313,-30.871,46.042,-48.799,44.184,3.4898,4.2931,-12.634,-0.87393
-6.6378,21.345,-27.137,-6.8696,-39.354,54.734,-37.299,10.313,-30.871,46.042,-48.799,44.184,3.4898,4.2931,-12.634,-0.87393
-6.6599,21.409,-27.043,-6.9448,-39.369,54.876,-37.198,10.283,-30.95,46.095,-48.868,44.142,3.577,4.28,-12.684,-0.88045
-6.6599,21.409,-27.043,-6.9448,-39.369,54.876,-37.198,10.283,-30.95,46.095,-48.868,44.142,3.577,4.28,-12.684,-0.88045
-6.6822,21.472,-26.947,-7.0207,-39.384,55.016,-37.096,10.253,-31.029,46.146,-48.935,44.098,3.6634,4.2661,-12.732,-0.88848
-6.7047,21.534,-26.851,-7.0973,-39.398,55.154,-36.994,10.222,-31.108,46.196,-49.001,44.052,3.7488,4.2515,-12.779,-0.89805
-6.7047,21.534,-26.851,-7.0973,-39.398,55.154,-36.994,10.222,-31.108,46.196,-49.001,44.052,3.7488,4.2515,-12.779,-0.89805
-6.7047,21.534,-26.851,-7.0973,-39.398,55.154,-36.994,10.222,-31.108,46.196,-49.001,44.052,3.7488,4.2515,-12.779,-0.89805
-6.7274,21.595,-26.754,-7.1745,-39.413,55.29,-36.891,10.19,-31.187,46.244,-49.064,44.004,3.8334,4.2361,-12.824,-0.90914
-6.7274,21.595,-26.754,-7.1745,-39.413,55.29,-36.891,10.19,-31.187,46.244,-49.064,44.004,3.8334,4.2361,-12.824,-0.90914
-6.7503,21.656,-26.657,-7.2524,-39.426,55.424,-36.787,10.158,-31.265,46.291,-49.126,43.954,3.917,4.2201,-12.868,-0.92178
-6.7503,21.656,-26.657,-7.2524,-39.426,55.424,-36.787,10.158,-31.265,46.291,-49.126,43.954,3.917,4.2201,-12.868,-0.92178
-6.7734,21.715,-26.559,-7.331,-39.44,55.556,-36.683,10.126,-31.344,46.337,-49.186,43.902,3.9997,4.2033,-12.91,-0.93596
-6.7966,21.773,-26.46,-7.4102,-39.453,55.686,-36.577,10.093,-31.422,46.382,-49.244,43.847,4.0816,4.1858,-12.951,-0.95168
-6.7966,21.773,-26.46,-7.4102,-39.453,55.686,-36.577,10.093,-31.422,46.382,-49.244,43.847,4.0816,4.1858,-12.951,-0.95168
-6.7966,21.773,-26.46,-7.4102,-39.453,55.686,-36.577,10.093,-31.422,46.382,-49.244,43.847,4.0816,4.1858,-12.951,-0.95168
-6.82,21.83,-26.361,-7.4901,-39.465,55.814,-36.472,10.06,-31.5,46.425,-49.301,43.791,4.1624,4.1677,-12.99,-0.96896
-6.82,21.83,-26.361,-7.4901,-39.465,55.814,-36.472,10.06,-31.5,46.425,-49.301,43.791,4.1624,4.1677,-12.99,-0.96896
-6.8436,21.886,-26.261,-7.5707,-39.478,55.94,-36.365,10.026,-31.577,46.466,-49.355,43.732,4.2424,4.1488,-13.028,-0.98779
-6.8436,21.886,-26.261,-7.5707,-39.478,55.94,-36.365,10.026,-31.577,46.466,-49.355,43.732,4.2424,4.1488,-13.028,-0.98779
-6.8674,21.942,-26.161,-7.6519,-39.49,56.065,-36.258,9.9911,-31.655,46.507,-49.408,43.671,4.3214,4.1292,-13.065,-1.0082
-6.8674,21.942,-26.161,-7.6519,-39.49,56.065,-36.258,9.9911,-31.655,46.507,-49.408,43.671,4.3214,4.1292,-13.065,-1.0082
-6.8913,21.996,-26.059,-7.7338,-39.501,56.187,-36.151,9.9562,-31.732,46.546,-49.459,43.608,4.3994,4.1089,-13.099,-1.0301
-6.9154,22.049,-25.958,-7.8163,-39.512,56.307,-36.042,9.9207,-31.809,46.583,-49.508,43.543,4.4765,4.0879,-13.133,-1.0537
-6.9154,22.049,-25.958,-7.8163,-39.512,56.307,-36.042,9.9207,-31.809,46.583,-49.508,43.543,4.4765,4.0879,-13.133,-1.0537
-6.9396,22.101,-25.855,-7.8995,-39.523,56.425,-35.933,9.8848,-31.886,46.62,-49.555,43.476,4.5526,4.0662,-13.165,-1.0788
-6.9396,22.101,-25.855,-7.8995,-39.523,56.425,-35.933,9.8848,-31.886,46.62,-49.555,43.476,4.5526,4.0662,-13.165,-1.0788
-6.9396,22.101,-25.855,-7.8995,-39.523,56.425,-35.933,9.8848,-31.886,46.62,-49.555,43.476,4.5526,4.0662,-13.165,-1.0788
-6.9396,22.101,-25.855,-7.8995,-39.523,56.425,-35.933,9.8848,-31.886,46.62,-49.555,43.476,4.5526,4.0662,-13.165,-1.0788
-6.964,22.151,-25.752,-7.9833,-39.534,56.542,-35.824,9.8483,-31.962,46.654,-49.6,43.406,4.6277,4.0438,-13.195,-1.1055
-6.964,22.151,-25.752,-7.9833,-39.534,56.542,-35.824,9.8483,-31.962,46.654,-49.6,43.406,4.6277,4.0438,-13.195,-1.1055
-6.964,22.151,-25.752,-7.9833,-39.534,56.542,-35.824,9.8483,-31.962,46.654,-49.6,43.406,4.6277,4.0438,-13.195,-1.1055
-7.0131,22.25,-25.544,-8.1529,-39.554,56.768,-35.603,9.774,-32.115,46.72,-49.684,43.261,4.7749,3.9969,-13.251,-1.1636
-7.0131,22.25,-25.544,-8.1529,-39.554,56.768,-35.603,9.774,-32.115,46.72,-49.684,43.261,4.7749,3.9969,-13.251,-1.1636
-7.0131,22.25,-25.544,-8.1529,-39.554,56.768,-35.603,9.774,-32.115,46.72,-49.684,43.261,4.7749,3.9969,-13.251,-1.1636
-7.0379,22.297,-25.439,-8.2386,-39.563,56.878,-35.492,9.7361,-32.191,46.751,-49.723,43.185,4.847,3.9724,-13.277,-1.1951
-7.0379,22.297,-25.439,-8.2386,-39.563,56.878,-35.492,9.7361,-32.191,46.751,-49.723,43.185,4.847,3.9724,-13.277,-1.1951
-7.0379,22.297,-25.439,-8.2386,-39.563,56.878,-35.492,9.7361,-32.191,46.751,-49.723,43.185,4.847,3.9724,-13.277,-1.1951
-7.0878,22.389,-25.228,-8.4121,-39.581,57.092,-35.268,9.6588,-32.342,46.808,-49.796,43.027,4.9882,3.9214,-13.323,-1.2627
-7.0878,22.389,-25.228,-8.4121,-39.581,57.092,-35.268,9.6588,-32.342,46.808,-49.796,43.027,4.9882,3.9214,-13.323,-1.2627
-7.1129,22.433,-25.121,-8.4998,-39.59,57.196,-35.156,9.6195,-32.418,46.835,-49.83,42.945,5.0573,3.8949,-13.344,-1.299
-7.1129,22.433,-25.121,-8.4998,-39.59,57.196,-35.156,9.6195,-32.418,46.835,-49.83,42.945,5.0573,3.8949,-13.344,-1.299
-7.1381,22.476,-25.014,-8.5881,-39.598,57.298,-35.042,9.5797,-32.493,46.86,-49.862,42.861,5.1253,3.8677,-13.364,-1.3368
-7.1381,22.476,-25.014,-8.5881,-39.598,57.298,-35.042,9.5797,-32.493,46.86,-49.862,42.861,5.1253,3.8677,-13.364,-1.3368
-7.1634,22.518,-24.906,-8.677,-39.606,57.398,-34.929,9.5394,-32.568,46.884,-49.891,42.774,5.1922,3.8398,-13.382,-1.3763
-7.1889,22.559,-24.797,-8.7665,-39.614,57.496,-34.815,9.4987,-32.643,46.907,-49.919,42.685,5.2582,3.8112,-13.398,-1.4174
-7.1889,22.559,-24.797,-8.7665,-39.614,57.496,-34.815,9.4987,-32.643,46.907,-49.919,42.685,5.2582,3.8112,-13.398,-1.4174
-7.1889,22.559,-24.797,-8.7665,-39.614,57.496,-34.815,9.4987,-32.643,46.907,-49.919,42.685,5.2582,3.8112,-13.398,-1.4174
-7.2144,22.599,-24.688,-8.8567,-39.621,57.591,-34.7,9.4575,-32.718,46.928,-49.945,42.595,5.323,3.782,-13.413,-1.4601
-7.2144,22.599,-24.688,-8.8567,-39.621,57.591,-34.7,9.4575,-32.718,46.928,-49.945,42.595,5.323,3.782,-13.413,-1.4601
-7.24,22.637,-24.579,-8.9475,-39.628,57.685,-34.585,9.4159,-32.792,46.948,-49.969,42.502,5.3868,3.7521,-13.426,-1.5044
-7.24,22.637,-24.579,-8.9475,-39.628,57.685,-34.585,9.4159,-32.792,46.948,-49.969,42.502,5.3868,3.7521,-13.426,-1.5044
-7.24,22.637,-24.579,-8.9475,-39.628,57.685,-34.585,9.4159,-32.792,46.948,-49.969,42.502,5.3868,3.7521,-13.426,-1.5044
-7.2657,22.674,-24.469,-9.0389,-39.635,57.776,-34.469,9.3738,-32.867,46.967,-49.991,42.406,5.4495,3.7215,-13.438,-1.5504
-7.2914,22.71,-24.358,-9.1309,-39.641,57.866,-34.353,9.3312,-32.941,46.984,-50.011,42.309,5.5112,3.6903,-13.448,-1.598
-7.3172,22.745,-24.246,-9.2236,-39.647,57.953,-34.237,9.2882,-33.015,47,-50.028,42.21,5.5718,3.6584,-13.457,-1.6472
-7.3172,22.745,-24.246,-9.2236,-39.647,57.953,-34.237,9.2882,-33.015,47,-50.028,42.21,5.5718,3.6584,-13.457,-1.6472
-7.3431,22.779,-24.135,-9.3168,-39.653,58.038,-34.12,9.2447,-33.088,47.014,-50.044,42.108,5.6312,3.6258,-13.464,-1.698
-7.3431,22.779,-24.135,-9.3168,-39.653,58.038,-34.12,9.2447,-33.088,47.014,-50.044,42.108,5.6312,3.6258,-13.464,-1.698
-7.3431,22.779,-24.135,-9.3168,-39.653,58.038,-34.12,9.2447,-33.088,47.014,-50.044,42.108,5.6312,3.6258,-13.464,-1.698
-7.369,22.811,-24.022,-9.4106,-39.659,58.121,-34.003,9.2008,-33.162,47.027,-50.058,42.004,5.6896,3.5926,-13.469,-1.7505
-7.369,22.811,-24.022,-9.4106,-39.659,58.121,-34.003,9.2008,-33.162,47.027,-50.058,42.004,5.6896,3.5926,-13.469,-1.7505
-7.395,22.842,-23.909,-9.505,-39.664,58.202,-33.885,9.1565,-33.235,47.039,-50.07,41.898,5.7469,3.5587,-13.473,-1.8046
-7.4211,22.872,-23.796,-9.6,-39.669,58.281,-33.767,9.1117,-33.308,47.05,-50.08,41.79,5.8031,3.5241,-13.475,-1.8604
-7.4211,22.872,-23.796,-9.6,-39.669,58.281,-33.767,9.1117,-33.308,47.05,-50.08,41.79,5.8031,3.5241,-13.475,-1.8604
-7.4471,22.901,-23.682,-9.6956,-39.674,58.357,-33.649,9.0665,-33.382,47.059,-50.088,41.68,5.8582,3.4889,-13.475,-1.9178
-7.4471,22.901,-23.682,-9.6956,-39.674,58.357,-33.649,9.0665,-33.382,47.059,-50.088,41.68,5.8582,3.4889,-13.475,-1.9178
-7.4732,22.928,-23.567,-9.7918,-39.678,58.432,-33.53,9.0209,-33.454,47.066,-50.094,41.567,5.9121,3.453,-13.474,-1.9769
-7.4732,22.928,-23.567,-9.7918,-39.678,58.432,-33.53,9.0209,-33.454,47.066,-50.094,41.567,5.9121,3.453,-13.474,-1.9769
-7.4993,22.955,-23.452,-9.8885,-39.682,58.504,-33.411,8.9748,-33.527,47.073,-50.098,41.453,5.9649,3.4165,-13.472,-2.0376
-7.4993,22.955,-23.452,-9.8885,-39.682,58.504,-33.411,8.9748,-33.527,47.073,-50.098,41.453,5.9649,3.4165,-13.472,-2.0376
-7.4993,22.955,-23.452,-9.8885,-39.682,58.504,-33.411,8.9748,-33.527,47.073,-50.098,41.453,5.9649,3.4165,-13.472,-2.0376
-7.5255,22.98,-23.337,-9.9858,-39.686,58.574,-33.291,8.9283,-33.6,47.078,-50.099,41.336,6.0166,3.3794,-13.467,-2.1
-7.5255,22.98,-23.337,-9.9858,-39.686,58.574,-33.291,8.9283,-33.6,47.078,-50.099,41.336,6.0166,3.3794,-13.467,-2.1
-7.5255,22.98,-23.337,-9.9858,-39.686,58.574,-33.291,8.9283,-33.6,47.078,-50.099,41.336,6.0166,3.3794,-13.467,-2.1
-7.5516,23.003,-23.221,-10.084,-39.689,58.642,-33.172,8.8814,-33.672,47.082,-50.099,41.217,6.0672,3.3416,-13.462,-2.164
-7.5516,23.003,-23.221,-10.084,-39.689,58.642,-33.172,8.8814,-33.672,47.082,-50.099,41.217,6.0672,3.3416,-13.462,-2.164
-7.604,23.047,-22.987,-10.281,-39.696,58.771,-32.931,8.7864,-33.816,47.085,-50.093,40.973,6.1649,3.264,-13.445,-2.2971
-7.604,23.047,-22.987,-10.281,-39.696,58.771,-32.931,8.7864,-33.816,47.085,-50.093,40.973,6.1649,3.264,-13.445,-2.2971
-7.604,23.047,-22.987,-10.281,-39.696,58.771,-32.931,8.7864,-33.816,47.085,-50.093,40.973,6.1649,3.264,-13.445,-2.2971
-7.6301,23.067,-22.869,-10.381,-39.698,58.833,-32.81,8.7382,-33.888,47.085,-50.086,40.848,6.2121,3.2242,-13.434,-2.3661
-7.6301,23.067,-22.869,-10.381,-39.698,58.833,-32.81,8.7382,-33.888,47.085,-50.086,40.848,6.2121,3.2242,-13.434,-2.3661
-7.6301,23.067,-22.869,-10.381,-39.698,58.833,-32.81,8.7382,-33.888,47.085,-50.086,40.848,6.2121,3.2242,-13.434,-2.3661
-7.6563,23.085,-22.751,-10.481,-39.701,58.892,-32.689,8.6897,-33.959,47.083,-50.078,40.721,6.2581,3.1839,-13.422,-2.4368
-7.6824,23.102,-22.633,-10.581,-39.703,58.949,-32.568,8.6407,-34.031,47.08,-50.067,40.591,6.303,3.1428,-13.408,-2.5092
-7.7085,23.118,-22.514,-10.683,-39.705,59.004,-32.447,8.5914,-34.102,47.076,-50.055,40.459,6.3467,3.1012,-13.392,-2.5832
-7.7085,23.118,-22.514,-10.683,-39.705,59.004,-32.447,8.5914,-34.102,47.076,-50.055,40.459,6.3467,3.1012,-13.392,-2.5832
-7.7085,23.118,-22.514,-10.683,-39.705,59.004,-32.447,8.5914,-34.102,47.076,-50.055,40.459,6.3467,3.1012,-13.392,-2.5832
-7.7346,23.133,-22.394,-10.784,-39.707,59.056,-32.325,8.5416,-34.173,47.07,-50.04,40.325,6.3892,3.0589,-13.375,-2.659
-7.7346,23.133,-22.394,-10.784,-39.707,59.056,-32.325,8.5416,-34.173,47.07,-50.04,40.325,6.3892,3.0589,-13.375,-2.659
-7.7606,23.146,-22.274,-10.887,-39.708,59.107,-32.203,8.4915,-34.244,47.063,-50.023,40.189,6.4306,3.0159,-13.356,-2.7363
-7.7606,23.146,-22.274,-10.887,-39.708,59.107,-32.203,8.4915,-34.244,47.063,-50.023,40.189,6.4306,3.0159,-13.356,-2.7363
-7.7606,23.146,-22.274,-10.887,-39.708,59.107,-32.203,8.4915,-34.244,47.063,-50.023,40.189,6.4306,3.0159,-13.356,-2.7363
-7.7866,23.158,-22.154,-10.989,-39.709,59.155,-32.081,8.4409,-34.314,47.055,-50.005,40.051,6.4708,2.9723,-13.335,-2.8154
-7.7866,23.158,-22.154,-10.989,-39.709,59.155,-32.081,8.4409,-34.314,47.055,-50.005,40.051,6.4708,2.9723,-13.335,-2.8154
-7.8384,23.178,-21.911,-11.196,-39.711,59.244,-31.836,8.3387,-34.455,47.034,-49.961,39.769,6.5477,2.8833,-13.289,-2.9786
-7.8384,23.178,-21.911,-11.196,-39.711,59.244,-31.836,8.3387,-34.455,47.034,-49.961,39.769,6.5477,2.8833,-13.289,-2.9786
-7.8642,23.186,-21.789,-11.301,-39.711,59.286,-31.713,8.287,-34.525,47.022,-49.936,39.624,6.5844,2.8378,-13.264,-3.0627
-7.8642,23.186,-21.789,-11.301,-39.711,59.286,-31.713,8.287,-34.525,47.022,-49.936,39.624,6.5844,2.8378,-13.264,-3.0627
-7.8642,23.186,-21.789,-11.301,-39.711,59.286,-31.713,8.287,-34.525,47.022,-49.936,39.624,6.5844,2.8378,-13.264,-3.0627
-7.8899,23.192,-21.667,-11.405,-39.711,59.325,-31.59,8.235,-34.595,47.009,-49.909,39.478,6.6199,2.7918,-13.236,-3.1485
-7.8899,23.192,-21.667,-11.405,-39.711,59.325,-31.59,8.235,-34.595,47.009,-49.909,39.478,6.6199,2.7918,-13.236,-3.1485
-7.9156,23.197,-21.544,-11.51,-39.711,59.362,-31.467,8.1825,-34.665,46.994,-49.879,39.329,6.6543,2.745,-13.208,-3.236
-7.9156,23.197,-21.544,-11.51,-39.711,59.362,-31.467,8.1825,-34.665,46.994,-49.879,39.329,6.6543,2.745,-13.208,-3.236
-7.9412,23.201,-21.421,-11.616,-39.711,59.397,-31.344,8.1298,-34.735,46.977,-49.848,39.178,6.6875,2.6977,-13.177,-3.3252
-7.9412,23.201,-21.421,-11.616,-39.711,59.397,-31.344,8.1298,-34.735,46.977,-49.848,39.178,6.6875,2.6977,-13.177,-3.3252
-7.9666,23.203,-21.298,-11.722,-39.71,59.429,-31.22,8.0766,-34.804,46.96,-49.815,39.025,6.7194,2.6497,-13.145,-3.416
-7.9666,23.203,-21.298,-11.722,-39.71,59.429,-31.22,8.0766,-34.804,46.96,-49.815,39.025,6.7194,2.6497,-13.145,-3.416
-7.992,23.204,-21.174,-11.829,-39.709,59.46,-31.097,8.0231,-34.874,46.941,-49.779,38.87,6.7502,2.6012,-13.111,-3.5086
-7.992,23.204,-21.174,-11.829,-39.709,59.46,-31.097,8.0231,-34.874,46.941,-49.779,38.87,6.7502,2.6012,-13.111,-3.5086
-8.0173,23.204,-21.049,-11.936,-39.708,59.488,-30.973,7.9692,-34.943,46.921,-49.741,38.713,6.7799,2.552,-13.076,-3.6028
-8.0173,23.204,-21.049,-11.936,-39.708,59.488,-30.973,7.9692,-34.943,46.921,-49.741,38.713,6.7799,2.552,-13.076,-3.6028
-8.0425,23.202,-20.924,-12.044,-39.707,59.514,-30.849,7.915,-35.011,46.9,-49.701,38.554,6.8083,2.5021,-13.038,-3.6987
-8.0425,23.202,-20.924,-12.044,-39.707,59.514,-30.849,7.915,-35.011,46.9,-49.701,38.554,6.8083,2.5021,-13.038,-3.6987
-8.0675,23.199,-20.799,-12.152,-39.705,59.537,-30.725,7.8604,-35.08,46.877,-49.659,38.392,6.8355,2.4517,-13,-3.7964
-8.0924,23.195,-20.674,-12.26,-39.703,59.558,-30.601,7.8055,-35.149,46.853,-49.615,38.229,6.8616,2.4006,-12.959,-3.8957
-8.0924,23.195,-20.674,-12.26,-39.703,59.558,-30.601,7.8055,-35.149,46.853,-49.615,38.229,6.8616,2.4006,-12.959,-3.8957
-8.1172,23.189,-20.548,-12.369,-39.701,59.577,-30.477,7.7502,-35.217,46.828,-49.569,38.063,6.8864,2.349,-12.917,-3.9967
-8.1172,23.189,-20.548,-12.369,-39.701,59.577,-30.477,7.7502,-35.217,46.828,-49.569,38.063,6.8864,2.349,-12.917,-3.9967
-8.1172,23.189,-20.548,-12.369,-39.701,59.577,-30.477,7.7502,-35.217,46.828,-49.569,38.063,6.8864,2.349,-12.917,-3.9967
-8.1419,23.181,-20.421,-12.478,-39.698,59.594,-30.353,7.6946,-35.285,46.801,-49.521,37.896,6.9101,2.2967,-12.873,-4.0994
-8.1419,23.181,-20.421,-12.478,-39.698,59.594,-30.353,7.6946,-35.285,46.801,-49.521,37.896,6.9101,2.2967,-12.873,-4.0994
-8.1419,23.181,-20.421,-12.478,-39.698,59.594,-30.353,7.6946,-35.285,46.801,-49.521,37.896,6.9101,2.2967,-12.873,-4.0994
-8.1664,23.173,-20.294,-12.588,-39.696,59.609,-30.229,7.6387,-35.353,46.773,-49.47,37.726,6.9326,2.2438,-12.827,-4.2038
-8.1664,23.173,-20.294,-12.588,-39.696,59.609,-30.229,7.6387,-35.353,46.773,-49.47,37.726,6.9326,2.2438,-12.827,-4.2038
-8.2149,23.151,-20.04,-12.809,-39.69,59.631,-29.98,7.5258,-35.488,46.713,-49.363,37.38,6.9739,2.1362,-12.731,-4.4177
-8.2149,23.151,-20.04,-12.809,-39.69,59.631,-29.98,7.5258,-35.488,46.713,-49.363,37.38,6.9739,2.1362,-12.731,-4.4177
-8.239,23.138,-19.912,-12.919,-39.686,59.639,-29.856,7.4689,-35.556,46.682,-49.306,37.204,6.9928,2.0814,-12.681,-4.5272
-8.239,23.138,-19.912,-12.919,-39.686,59.639,-29.856,7.4689,-35.556,46.682,-49.306,37.204,6.9928,2.0814,-12.681,-4.5272
-8.239,23.138,-19.912,-12.919,-39.686,59.639,-29.856,7.4689,-35.556,46.682,-49.306,37.204,6.9928,2.0814,-12.681,-4.5272
-8.2628,23.123,-19.784,-13.031,-39.683,59.644,-29.731,7.4116,-35.623,46.649,-49.247,37.027,7.0105,2.0261,-12.628,-4.6384
-8.2628,23.123,-19.784,-13.031,-39.683,59.644,-29.731,7.4116,-35.623,46.649,-49.247,37.027,7.0105,2.0261,-12.628,-4.6384
-8.2865,23.107,-19.655,-13.142,-39.679,59.647,-29.607,7.3541,-35.69,46.614,-49.186,36.847,7.0271,1.9702,-12.574,-4.7512
-8.2865,23.107,-19.655,-13.142,-39.679,59.647,-29.607,7.3541,-35.69,46.614,-49.186,36.847,7.0271,1.9702,-12.574,-4.7512
-8.2865,23.107,-19.655,-13.142,-39.679,59.647,-29.607,7.3541,-35.69,46.614,-49.186,36.847,7.0271,1.9702,-12.574,-4.7512
-8.31,23.09,-19.526,-13.255,-39.674,59.648,-29.482,7.2962,-35.757,46.579,-49.122,36.664,7.0424,1.9136,-12.519,-4.8658
-8.31,23.09,-19.526,-13.255,-39.674,59.648,-29.482,7.2962,-35.757,46.579,-49.122,36.664,7.0424,1.9136,-12.519,-4.8658
-8.31,23.09,-19.526,-13.255,-39.674,59.648,-29.482,7.2962,-35.757,46.579,-49.122,36.664,7.0424,1.9136,-12.519,-4.8658
-8.3563,23.051,-19.267,-13.48,-39.665,59.643,-29.234,7.1795,-35.89,46.504,-48.989,36.294,7.0694,1.7987,-12.402,-5.1001
-8.3563,23.051,-19.267,-13.48,-39.665,59.643,-29.234,7.1795,-35.89,46.504,-48.989,36.294,7.0694,1.7987,-12.402,-5.1001
-8.3792,23.029,-19.138,-13.593,-39.66,59.637,-29.109,7.1207,-35.956,46.464,-48.919,36.106,7.0812,1.7404,-12.342,-5.2197
-8.3792,23.029,-19.138,-13.593,-39.66,59.637,-29.109,7.1207,-35.956,46.464,-48.919,36.106,7.0812,1.7404,-12.342,-5.2197
-8.4019,23.006,-19.007,-13.706,-39.655,59.629,-28.985,7.0617,-36.022,46.424,-48.847,35.916,7.0917,1.6814,-12.279,-5.3411
-8.4019,23.006,-19.007,-13.706,-39.655,59.629,-28.985,7.0617,-36.022,46.424,-48.847,35.916,7.0917,1.6814,-12.279,-5.3411
-8.4243,22.981,-18.877,-13.82,-39.65,59.618,-28.861,7.0023,-36.088,46.382,-48.773,35.724,7.1011,1.6219,-12.215,-5.4641
-8.4243,22.981,-18.877,-13.82,-39.65,59.618,-28.861,7.0023,-36.088,46.382,-48.773,35.724,7.1011,1.6219,-12.215,-5.4641
-8.4465,22.955,-18.746,-13.934,-39.644,59.605,-28.737,6.9426,-36.153,46.339,-48.697,35.53,7.1093,1.5617,-12.149,-5.5889
-8.4465,22.955,-18.746,-13.934,-39.644,59.605,-28.737,6.9426,-36.153,46.339,-48.697,35.53,7.1093,1.5617,-12.149,-5.5889
-8.4685,22.927,-18.615,-14.049,-39.638,59.59,-28.612,6.8826,-36.219,46.294,-48.618,35.333,7.1163,1.501,-12.082,-5.7153
-8.4685,22.927,-18.615,-14.049,-39.638,59.59,-28.612,6.8826,-36.219,46.294,-48.618,35.333,7.1163,1.501,-12.082,-5.7153
-8.4902,22.898,-18.484,-14.163,-39.632,59.573,-28.488,6.8224,-36.284,46.249,-48.538,35.135,7.1221,1.4396,-12.012,-5.8435
-8.4902,22.898,-18.484,-14.163,-39.632,59.573,-28.488,6.8224,-36.284,46.249,-48.538,35.135,7.1221,1.4396,-12.012,-5.8435
-8.5117,22.868,-18.352,-14.278,-39.626,59.553,-28.365,6.7619,-36.349,46.202,-48.455,34.935,7.1268,1.3777,-11.941,-5.9733
-8.5117,22.868,-18.352,-14.278,-39.626,59.553,-28.365,6.7619,-36.349,46.202,-48.455,34.935,7.1268,1.3777,-11.941,-5.9733
-8.5329,22.836,-18.22,-14.394,-39.619,59.531,-28.241,6.7011,-36.414,46.154,-48.37,34.733,7.1302,1.3151,-11.869,-6.1048
-8.5329,22.836,-18.22,-14.394,-39.619,59.531,-28.241,6.7011,-36.414,46.154,-48.37,34.733,7.1302,1.3151,-11.869,-6.1048
-8.5538,22.802,-18.088,-14.509,-39.612,59.507,-28.117,6.64,-36.478,46.104,-48.283,34.529,7.1325,1.252,-11.795,-6.238
-8.5538,22.802,-18.088,-14.509,-39.612,59.507,-28.117,6.64,-36.478,46.104,-48.283,34.529,7.1325,1.252,-11.795,-6.238
-8.5745,22.767,-17.955,-14.625,-39.605,59.48,-27.993,6.5787,-36.543,46.054,-48.194,34.323,7.1336,1.1883,-11.719,-6.3729
-8.5745,22.767,-17.955,-14.625,-39.605,59.48,-27.993,6.5787,-36.543,46.054,-48.194,34.323,7.1336,1.1883,-11.719,-6.3729
-8.5949,22.731,-17.823,-14.741,-39.597,59.451,-27.87,6.5171,-36.607,46.002,-48.102,34.114,7.1336,1.124,-11.641,-6.5095
-8.5949,22.731,-17.823,-14.741,-39.597,59.451,-27.87,6.5171,-36.607,46.002,-48.102,34.114,7.1336,1.124,-11.641,-6.5095
-8.615,22.693,-17.69,-14.857,-39.589,59.42,-27.747,6.4552,-36.671,45.949,-48.008,33.904,7.1324,1.0591,-11.561,-6.6478
-8.615,22.693,-17.69,-14.857,-39.589,59.42,-27.747,6.4552,-36.671,45.949,-48.008,33.904,7.1324,1.0591,-11.561,-6.6478
-8.6348,22.653,-17.557,-14.974,-39.581,59.387,-27.623,6.3931,-36.734,45.894,-47.913,33.692,7.13,0.99357,-11.48,-6.7877
-8.6348,22.653,-17.557,-14.974,-39.581,59.387,-27.623,6.3931,-36.734,45.894,-47.913,33.692,7.13,0.99357,-11.48,-6.7877
-8.6543,22.612,-17.423,-15.091,-39.573,59.351,-27.5,6.3307,-36.798,45.839,-47.815,33.479,7.1264,0.92749,-11.398,-6.9294
-8.6735,22.57,-17.29,-15.208,-39.565,59.313,-27.378,6.2681,-36.861,45.782,-47.714,33.263,7.1217,0.86082,-11.313,-7.0727
-8.6735,22.57,-17.29,-15.208,-39.565,59.313,-27.378,6.2681,-36.861,45.782,-47.714,33.263,7.1217,0.86082,-11.313,-7.0727
-8.6735,22.57,-17.29,-15.208,-39.565,59.313,-27.378,6.2681,-36.861,45.782,-47.714,33.263,7.1217,0.86082,-11.313,-7.0727
-8.6924,22.526,-17.156,-15.325,-39.556,59.273,-27.255,6.2052,-36.924,45.724,-47.612,33.045,7.1159,0.79357,-11.227,-7.2177
-8.6924,22.526,-17.156,-15.325,-39.556,59.273,-27.255,6.2052,-36.924,45.724,-47.612,33.045,7.1159,0.79357,-11.227,-7.2177
-8.6924,22.526,-17.156,-15.325,-39.556,59.273,-27.255,6.2052,-36.924,45.724,-47.612,33.045,7.1159,0.79357,-11.227,-7.2177
-8.711,22.481,-17.022,-15.443,-39.547,59.23,-27.132,6.1421,-36.987,45.665,-47.507,32.825,7.1089,0.72573,-11.139,-7.3644
-8.7292,22.434,-16.887,-15.56,-39.537,59.185,-27.01,6.0788,-37.049,45.605,-47.401,32.604,7.1007,0.6573,-11.049,-7.5127
-8.7471,22.385,-16.753,-15.678,-39.528,59.138,-26.888,6.0152,-37.112,45.543,-47.292,32.38,7.0914,0.5883,-10.958,-7.6627
-8.7471,22.385,-16.753,-15.678,-39.528,59.138,-26.888,6.0152,-37.112,45.543,-47.292,32.38,7.0914,0.5883,-10.958,-7.6627
-8.7647,22.335,-16.618,-15.796,-39.518,59.089,-26.766,5.9514,-37.174,45.481,-47.181,32.155,7.081,0.5187,-10.865,-7.8144
-8.7647,22.335,-16.618,-15.796,-39.518,59.089,-26.766,5.9514,-37.174,45.481,-47.181,32.155,7.081,0.5187,-10.865,-7.8144
-8.7647,22.335,-16.618,-15.796,-39.518,59.089,-26.766,5.9514,-37.174,45.481,-47.181,32.155,7.081,0.5187,-10.865,-7.8144
-8.7647,22.335,-16.618,-15.796,-39.518,59.089,-26.766,5.9514,-37.174,45.481,-47.181,32.155,7.081,0.5187,-10.865,-7.8144
-8.7819,22.284,-16.483,-15.914,-39.508,59.037,-26.645,5.8874,-37.236,45.417,-47.068,31.928,7.0694,0.44853,-10.77,-7.9678
-8.7819,22.284,-16.483,-15.914,-39.508,59.037,-26.645,5.8874,-37.236,45.417,-47.068,31.928,7.0694,0.44853,-10.77,-7.9678
-8.8152,22.176,-16.213,-16.151,-39.486,58.927,-26.402,5.7586,-37.358,45.285,-46.835,31.467,7.0429,0.30644,-10.576,-8.2795
-8.8152,22.176,-16.213,-16.151,-39.486,58.927,-26.402,5.7586,-37.358,45.285,-46.835,31.467,7.0429,0.30644,-10.576,-8.2795
-8.8313,22.121,-16.078,-16.27,-39.475,58.869,-26.281,5.6939,-37.42,45.218,-46.715,31.235,7.028,0.23453,-10.476,-8.4379
-8.8313,22.121,-16.078,-16.27,-39.475,58.869,-26.281,5.6939,-37.42,45.218,-46.715,31.235,7.028,0.23453,-10.476,-8.4379
-8.8313,22.121,-16.078,-16.27,-39.475,58.869,-26.281,5.6939,-37.42,45.218,-46.715,31.235,7.028,0.23453,-10.476,-8.4379
-8.8471,22.063,-15.942,-16.388,-39.464,58.808,-26.16,5.629,-37.48,45.149,-46.593,31,7.0119,0.16204,-10.375,-8.5979
-8.8471,22.063,-15.942,-16.388,-39.464,58.808,-26.16,5.629,-37.48,45.149,-46.593,31,7.0119,0.16204,-10.375,-8.5979
-8.8471,22.063,-15.942,-16.388,-39.464,58.808,-26.16,5.629,-37.48,45.149,-46.593,31,7.0119,0.16204,-10.375,-8.5979
-8.8624,22.004,-15.807,-16.507,-39.452,58.745,-26.04,5.5639,-37.541,45.079,-46.469,30.763,6.9947,0.088965,-10.272,-8.7595
-8.8624,22.004,-15.807,-16.507,-39.452,58.745,-26.04,5.5639,-37.541,45.079,-46.469,30.763,6.9947,0.088965,-10.272,-8.7595
-8.8624,22.004,-15.807,-16.507,-39.452,58.745,-26.04,5.5639,-37.541,45.079,-46.469,30.763,6.9947,0.088965,-10.272,-8.7595
-8.8919,21.882,-15.535,-16.745,-39.428,58.612,-25.8,5.4331,-37.661,44.936,-46.214,30.285,6.9571,-0.058905,-10.06,-9.0878
-8.8919,21.882,-15.535,-16.745,-39.428,58.612,-25.8,5.4331,-37.661,44.936,-46.214,30.285,6.9571,-0.058905,-10.06,-9.0878
-8.8919,21.882,-15.535,-16.745,-39.428,58.612,-25.8,5.4331,-37.661,44.936,-46.214,30.285,6.9571,-0.058905,-10.06,-9.0878
-8.9061,21.818,-15.399,-16.865,-39.416,58.542,-25.681,5.3674,-37.721,44.863,-46.084,30.043,6.9366,-0.1337,-9.9523,-9.2544
-8.9061,21.818,-15.399,-16.865,-39.416,58.542,-25.681,5.3674,-37.721,44.863,-46.084,30.043,6.9366,-0.1337,-9.9523,-9.2544
-8.9061,21.818,-15.399,-16.865,-39.416,58.542,-25.681,5.3674,-37.721,44.863,-46.084,30.043,6.9366,-0.1337,-9.9523,-9.2544
-8.9332,21.687,-15.126,-17.103,-39.39,58.396,-25.443,5.2354,-37.84,44.713,-45.816,29.554,6.8924,-0.28502,-9.731,-9.5926
-8.9332,21.687,-15.126,-17.103,-39.39,58.396,-25.443,5.2354,-37.84,44.713,-45.816,29.554,6.8924,-0.28502,-9.731,-9.5926
-8.9332,21.687,-15.126,-17.103,-39.39,58.396,-25.443,5.2354,-37.84,44.713,-45.816,29.554,6.8924,-0.28502,-9.731,-9.5926
-8.9461,21.619,-14.99,-17.222,-39.377,58.319,-25.324,5.1691,-37.899,44.636,-45.679,29.306,6.8687,-0.36154,-9.6178,-9.7641
-8.9461,21.619,-14.99,-17.222,-39.377,58.319,-25.324,5.1691,-37.899,44.636,-45.679,29.306,6.8687,-0.36154,-9.6178,-9.7641
-8.9585,21.549,-14.854,-17.342,-39.363,58.24,-25.206,5.1027,-37.958,44.558,-45.54,29.057,6.844,-0.43863,-9.5029,-9.9373
-8.9585,21.549,-14.854,-17.342,-39.363,58.24,-25.206,5.1027,-37.958,44.558,-45.54,29.057,6.844,-0.43863,-9.5029,-9.9373
-8.9822,21.406,-14.58,-17.581,-39.335,58.076,-24.97,4.9693,-38.074,44.399,-45.255,28.554,6.7912,-0.59453,-9.2682,-10.289
-8.9822,21.406,-14.58,-17.581,-39.335,58.076,-24.97,4.9693,-38.074,44.399,-45.255,28.554,6.7912,-0.59453,-9.2682,-10.289
-8.9822,21.406,-14.58,-17.581,-39.335,58.076,-24.97,4.9693,-38.074,44.399,-45.255,28.554,6.7912,-0.59453,-9.2682,-10.289
-8.9933,21.332,-14.444,-17.7,-39.32,57.99,-24.853,4.9023,-38.132,44.317,-45.11,28.3,6.7633,-0.67333,-9.1483,-10.467
-8.9933,21.332,-14.444,-17.7,-39.32,57.99,-24.853,4.9023,-38.132,44.317,-45.11,28.3,6.7633,-0.67333,-9.1483,-10.467
-8.9933,21.332,-14.444,-17.7,-39.32,57.99,-24.853,4.9023,-38.132,44.317,-45.11,28.3,6.7633,-0.67333,-9.1483,-10.467
-9.004,21.256,-14.307,-17.82,-39.305,57.903,-24.736,4.8352,-38.19,44.235,-44.962,28.044,6.7343,-0.7527,-9.0268,-10.646
-9.0142,21.179,-14.17,-17.939,-39.29,57.813,-24.62,4.7679,-38.247,44.151,-44.812,27.786,6.7042,-0.83264,-8.9036,-10.828
-9.0239,21.1,-14.033,-18.059,-39.274,57.72,-24.503,4.7004,-38.304,44.067,-44.66,27.526,6.6732,-0.91314,-8.7788,-11.01
-9.0239,21.1,-14.033,-18.059,-39.274,57.72,-24.503,4.7004,-38.304,44.067,-44.66,27.526,6.6732,-0.91314,-8.7788,-11.01
-9.0332,21.02,-13.896,-18.178,-39.259,57.626,-24.388,4.6328,-38.361,43.981,-44.506,27.265,6.6411,-0.99421,-8.6523,-11.195
-9.0332,21.02,-13.896,-18.178,-39.259,57.626,-24.388,4.6328,-38.361,43.981,-44.506,27.265,6.6411,-0.99421,-8.6523,-11.195
-9.0332,21.02,-13.896,-18.178,-39.259,57.626,-24.388,4.6328,-38.361,43.981,-44.506,27.265,6.6411,-0.99421,-8.6523,-11.195
-9.042,20.939,-13.759,-18.297,-39.242,57.529,-24.272,4.565,-38.417,43.894,-44.35,27.002,6.608,-1.0758,-8.5241,-11.381
-9.042,20.939,-13.759,-18.297,-39.242,57.529,-24.272,4.565,-38.417,43.894,-44.35,27.002,6.608,-1.0758,-8.5241,-11.381
-9.0503,20.856,-13.622,-18.417,-39.226,57.43,-24.157,4.4971,-38.473,43.806,-44.191,26.738,6.5739,-1.158,-8.3943,-11.569
-9.0581,20.771,-13.485,-18.536,-39.209,57.329,-24.043,4.4291,-38.529,43.717,-44.031,26.472,6.5388,-1.2408,-8.2629,-11.758
-9.0581,20.771,-13.485,-18.536,-39.209,57.329,-24.043,4.4291,-38.529,43.717,-44.031,26.472,6.5388,-1.2408,-8.2629,-11.758
-9.0581,20.771,-13.485,-18.536,-39.209,57.329,-24.043,4.4291,-38.529,43.717,-44.031,26.472,6.5388,-1.2408,-8.2629,-11.758
-9.0653,20.685,-13.348,-18.655,-39.192,57.226,-23.929,4.3609,-38.585,43.627,-43.868,26.204,6.5027,-1.3241,-8.1298,-11.949
-9.0653,20.685,-13.348,-18.655,-39.192,57.226,-23.929,4.3609,-38.585,43.627,-43.868,26.204,6.5027,-1.3241,-8.1298,-11.949
-9.0721,20.598,-13.211,-18.774,-39.174,57.121,-23.815,4.2925,-38.64,43.536,-43.704,25.935,6.4656,-1.408,-7.9951,-12.141
-9.0784,20.509,-13.074,-18.893,-39.156,57.013,-23.701,4.2241,-38.695,43.443,-43.537,25.664,6.4276,-1.4925,-7.8588,-12.335
-9.0784,20.509,-13.074,-18.893,-39.156,57.013,-23.701,4.2241,-38.695,43.443,-43.537,25.664,6.4276,-1.4925,-7.8588,-12.335
-9.0784,20.509,-13.074,-18.893,-39.156,57.013,-23.701,4.2241,-38.695,43.443,-43.537,25.664,6.4276,-1.4925,-7.8588,-12.335
-9.0841,20.418,-12.937,-19.012,-39.138,56.903,-23.589,4.1555,-38.749,43.35,-43.368,25.391,6.3886,-1.5775,-7.7208,-12.531
-9.0841,20.418,-12.937,-19.012,-39.138,56.903,-23.589,4.1555,-38.749,43.35,-43.368,25.391,6.3886,-1.5775,-7.7208,-12.531
-9.0893,20.326,-12.8,-19.131,-39.12,56.791,-23.476,4.0868,-38.804,43.256,-43.197,25.117,6.3486,-1.663,-7.5812,-12.728
-9.094,20.233,-12.663,-19.25,-39.101,56.677,-23.364,4.0179,-38.858,43.16,-43.024,24.841,6.3077,-1.7492,-7.44,-12.927
-9.094,20.233,-12.663,-19.25,-39.101,56.677,-23.364,4.0179,-38.858,43.16,-43.024,24.841,6.3077,-1.7492,-7.44,-12.927
-9.0982,20.138,-12.525,-19.368,-39.081,56.561,-23.253,3.949,-38.911,43.063,-42.849,24.564,6.2658,-1.8358,-7.2971,-13.127
-9.0982,20.138,-12.525,-19.368,-39.081,56.561,-23.253,3.949,-38.911,43.063,-42.849,24.564,6.2658,-1.8358,-7.2971,-13.127
-9.0982,20.138,-12.525,-19.368,-39.081,56.561,-23.253,3.949,-38.911,43.063,-42.849,24.564,6.2658,-1.8358,-7.2971,-13.127
-9.1018,20.042,-12.388,-19.487,-39.062,56.442,-23.142,3.8799,-38.964,42.966,-42.671,24.285,6.223,-1.9231,-7.1527,-13.329
-9.1018,20.042,-12.388,-19.487,-39.062,56.442,-23.142,3.8799,-38.964,42.966,-42.671,24.285,6.223,-1.9231,-7.1527,-13.329
-9.1018,20.042,-12.388,-19.487,-39.062,56.442,-23.142,3.8799,-38.964,42.966,-42.671,24.285,6.223,-1.9231,-7.1527,-13.329
-9.1048,19.944,-12.252,-19.605,-39.042,56.321,-23.031,3.8107,-39.017,42.867,-42.492,24.004,6.1793,-2.0109,-7.0066,-13.532
-9.1073,19.844,-12.115,-19.723,-39.021,56.199,-22.921,3.7414,-39.07,42.767,-42.31,23.722,6.1346,-2.0992,-6.859,-13.737
-9.1092,19.744,-11.978,-19.841,-39.001,56.074,-22.811,3.6721,-39.122,42.667,-42.127,23.439,6.0891,-2.1881,-6.7097,-13.944
-9.1092,19.744,-11.978,-19.841,-39.001,56.074,-22.811,3.6721,-39.122,42.667,-42.127,23.439,6.0891,-2.1881,-6.7097,-13.944
-9.1106,19.641,-11.841,-19.959,-38.98,55.946,-22.702,3.6026,-39.174,42.565,-41.941,23.154,6.0426,-2.2776,-6.5589,-14.152
-9.1106,19.641,-11.841,-19.959,-38.98,55.946,-22.702,3.6026,-39.174,42.565,-41.941,23.154,6.0426,-2.2776,-6.5589,-14.152
-9.1106,19.641,-11.841,-19.959,-38.98,55.946,-22.702,3.6026,-39.174,42.565,-41.941,23.154,6.0426,-2.2776,-6.5589,-14.152
-9.1114,19.538,-11.704,-20.076,-38.958,55.817,-22.593,3.533,-39.225,42.462,-41.754,22.867,5.9953,-2.3676,-6.4065,-14.361
-9.1114,19.538,-11.704,-20.076,-38.958,55.817,-22.593,3.533,-39.225,42.462,-41.754,22.867,5.9953,-2.3676,-6.4065,-14.361
-9.1116,19.433,-11.568,-20.193,-38.936,55.686,-22.485,3.4633,-39.277,42.358,-41.564,22.579,5.9471,-2.4581,-6.2524,-14.572
-9.1116,19.433,-11.568,-20.193,-38.936,55.686,-22.485,3.4633,-39.277,42.358,-41.564,22.579,5.9471,-2.4581,-6.2524,-14.572
-9.1112,19.326,-11.431,-20.311,-38.914,55.552,-22.377,3.3936,-39.327,42.253,-41.373,22.29,5.898,-2.5492,-6.0968,-14.785
-9.1112,19.326,-11.431,-20.311,-38.914,55.552,-22.377,3.3936,-39.327,42.253,-41.373,22.29,5.898,-2.5492,-6.0968,-14.785
-9.1102,19.218,-11.295,-20.427,-38.891,55.417,-22.27,3.3237,-39.378,42.148,-41.179,21.999,5.8481,-2.6409,-5.9397,-14.999
-9.1102,19.218,-11.295,-20.427,-38.891,55.417,-22.27,3.3237,-39.378,42.148,-41.179,21.999,5.8481,-2.6409,-5.9397,-14.999
-9.1086,19.109,-11.158,-20.544,-38.868,55.279,-22.163,3.2538,-39.428,42.041,-40.983,21.706,5.7973,-2.7331,-5.781,-15.214
-9.1086,19.109,-11.158,-20.544,-38.868,55.279,-22.163,3.2538,-39.428,42.041,-40.983,21.706,5.7973,-2.7331,-5.781,-15.214
-9.1064,18.998,-11.022,-20.66,-38.845,55.139,-22.057,3.1838,-39.478,41.933,-40.785,21.413,5.7457,-2.8258,-5.6207,-15.431
-9.1064,18.998,-11.022,-20.66,-38.845,55.139,-22.057,3.1838,-39.478,41.933,-40.785,21.413,5.7457,-2.8258,-5.6207,-15.431
-9.1037,18.885,-10.886,-20.776,-38.821,54.998,-21.951,3.1137,-39.527,41.824,-40.586,21.117,5.6932,-2.9191,-5.4588,-15.65
-9.1003,18.772,-10.75,-20.892,-38.797,54.854,-21.846,3.0436,-39.576,41.714,-40.384,20.821,5.6399,-3.0129,-5.2954,-15.87
-9.1003,18.772,-10.75,-20.892,-38.797,54.854,-21.846,3.0436,-39.576,41.714,-40.384,20.821,5.6399,-3.0129,-5.2954,-15.87
-9.0962,18.656,-10.614,-21.007,-38.773,54.708,-21.742,2.9734,-39.624,41.603,-40.18,20.523,5.5859,-3.1073,-5.1305,-16.091
-9.0962,18.656,-10.614,-21.007,-38.773,54.708,-21.742,2.9734,-39.624,41.603,-40.18,20.523,5.5859,-3.1073,-5.1305,-16.091
-9.0916,18.54,-10.478,-21.123,-38.748,54.56,-21.638,2.9031,-39.673,41.491,-39.974,20.223,5.531,-3.2022,-4.964,-16.314
-9.0916,18.54,-10.478,-21.123,-38.748,54.56,-21.638,2.9031,-39.673,41.491,-39.974,20.223,5.531,-3.2022,-4.964,-16.314
-9.0916,18.54,-10.478,-21.123,-38.748,54.56,-21.638,2.9031,-39.673,41.491,-39.974,20.223,5.531,-3.2022,-4.964,-16.314
-9.0916,18.54,-10.478,-21.123,-38.748,54.56,-21.638,2.9031,-39.673,41.491,-39.974,20.223,5.531,-3.2022,-4.964,-16.314
-9.0863,18.422,-10.343,-21.237,-38.722,54.41,-21.534,2.8328,-39.72,41.379,-39.767,19.923,5.4753,-3.2976,-4.796,-16.539
-9.0863,18.422,-10.343,-21.237,-38.722,54.41,-21.534,2.8328,-39.72,41.379,-39.767,19.923,5.4753,-3.2976,-4.796,-16.539
-9.0804,18.302,-10.207,-21.352,-38.696,54.258,-21.431,2.7624,-39.768,41.265,-39.557,19.621,5.4189,-3.3936,-4.6265,-16.765
-9.0739,18.182,-10.072,-21.466,-38.67,54.103,-21.329,2.692,-39.815,41.15,-39.345,19.317,5.3617,-3.4901,-4.4555,-16.992
-9.0667,18.059,-9.9366,-21.58,-38.643,53.947,-21.227,2.6215,-39.861,41.034,-39.132,19.012,5.3038,-3.5872,-4.2829,-17.221
-9.0667,18.059,-9.9366,-21.58,-38.643,53.947,-21.227,2.6215,-39.861,41.034,-39.132,19.012,5.3038,-3.5872,-4.2829,-17.221
-9.0667,18.059,-9.9366,-21.58,-38.643,53.947,-21.227,2.6215,-39.861,41.034,-39.132,19.012,5.3038,-3.5872,-4.2829,-17.221
-9.0589,17.936,-9.8016,-21.693,-38.616,53.789,-21.126,2.551,-39.908,40.918,-38.916,18.706,5.2451,-3.6848,-4.1089,-17.451
-9.0589,17.936,-9.8016,-21.693,-38.616,53.789,-21.126,2.551,-39.908,40.918,-38.916,18.706,5.2451,-3.6848,-4.1089,-17.451
-9.0504,17.811,-9.6668,-21.806,-38.589,53.629,-21.025,2.4804,-39.953,40.8,-38.699,18.399,5.1856,-3.7829,-3.9334,-17.682
-9.0504,17.811,-9.6668,-21.806,-38.589,53.629,-21.025,2.4804,-39.953,40.8,-38.699,18.399,5.1856,-3.7829,-3.9334,-17.682
-9.0413,17.685,-9.5322,-21.919,-38.561,53.467,-20.925,2.4098,-39.999,40.682,-38.479,18.09,5.1255,-3.8816,-3.7563,-17.915
-9.0413,17.685,-9.5322,-21.919,-38.561,53.467,-20.925,2.4098,-39.999,40.682,-38.479,18.09,5.1255,-3.8816,-3.7563,-17.915
-9.0315,17.557,-9.3978,-22.031,-38.532,53.302,-20.825,2.3392,-40.044,40.562,-38.258,17.781,5.0646,-3.9808,-3.5778,-18.15
-9.021,17.428,-9.2636,-22.143,-38.504,53.136,-20.726,2.2685,-40.088,40.442,-38.034,17.47,5.0031,-4.0805,-3.3978,-18.386
-9.021,17.428,-9.2636,-22.143,-38.504,53.136,-20.726,2.2685,-40.088,40.442,-38.034,17.47,5.0031,-4.0805,-3.3978,-18.386
-9.0099,17.297,-9.1295,-22.254,-38.474,52.968,-20.628,2.1978,-40.132,40.321,-37.809,17.157,4.9408,-4.1807,-3.2164,-18.623
-9.0099,17.297,-9.1295,-22.254,-38.474,52.968,-20.628,2.1978,-40.132,40.321,-37.809,17.157,4.9408,-4.1807,-3.2164,-18.623
-9.0099,17.297,-9.1295,-22.254,-38.474,52.968,-20.628,2.1978,-40.132,40.321,-37.809,17.157,4.9408,-4.1807,-3.2164,-18.623
-8.9981,17.166,-8.9957,-22.365,-38.445,52.798,-20.53,2.1271,-40.176,40.198,-37.582,16.844,4.8779,-4.2815,-3.0335,-18.861
-8.9981,17.166,-8.9957,-22.365,-38.445,52.798,-20.53,2.1271,-40.176,40.198,-37.582,16.844,4.8779,-4.2815,-3.0335,-18.861
-8.9856,17.033,-8.8621,-22.476,-38.414,52.626,-20.433,2.0564,-40.219,40.075,-37.353,16.529,4.8143,-4.3828,-2.8491,-19.101
-8.9856,17.033,-8.8621,-22.476,-38.414,52.626,-20.433,2.0564,-40.219,40.075,-37.353,16.529,4.8143,-4.3828,-2.8491,-19.101
-8.9725,16.898,-8.7288,-22.586,-38.384,52.452,-20.336,1.9856,-40.262,39.951,-37.123,16.213,4.7501,-4.4846,-2.6633,-19.342
-8.9725,16.898,-8.7288,-22.586,-38.384,52.452,-20.336,1.9856,-40.262,39.951,-37.123,16.213,4.7501,-4.4846,-2.6633,-19.342
-8.9586,16.762,-8.5957,-22.696,-38.353,52.276,-20.24,1.9149,-40.304,39.826,-36.89,15.896,4.6852,-4.587,-2.4761,-19.585
-8.9586,16.762,-8.5957,-22.696,-38.353,52.276,-20.24,1.9149,-40.304,39.826,-36.89,15.896,4.6852,-4.587,-2.4761,-19.585
-8.9441,16.625,-8.4628,-22.805,-38.321,52.098,-20.145,1.8441,-40.346,39.701,-36.655,15.578,4.6197,-4.6898,-2.2874,-19.829
-8.9441,16.625,-8.4628,-22.805,-38.321,52.098,-20.145,1.8441,-40.346,39.701,-36.655,15.578,4.6197,-4.6898,-2.2874,-19.829
-8.9289,16.487,-8.3301,-22.914,-38.289,51.918,-20.05,1.7733,-40.387,39.574,-36.419,15.258,4.5536,-4.7932,-2.0973,-20.074
-8.9289,16.487,-8.3301,-22.914,-38.289,51.918,-20.05,1.7733,-40.387,39.574,-36.419,15.258,4.5536,-4.7932,-2.0973,-20.074
-8.9289,16.487,-8.3301,-22.914,-38.289,51.918,-20.05,1.7733,-40.387,39.574,-36.419,15.258,4.5536,-4.7932,-2.0973,-20.074
-8.9129,16.347,-8.1978,-23.022,-38.257,51.737,-19.956,1.7026,-40.428,39.446,-36.181,14.938,4.4869,-4.8971,-1.9058,-20.321
-8.9129,16.347,-8.1978,-23.022,-38.257,51.737,-19.956,1.7026,-40.428,39.446,-36.181,14.938,4.4869,-4.8971,-1.9058,-20.321
-8.8963,16.206,-8.0656,-23.129,-38.224,51.553,-19.863,1.6318,-40.469,39.318,-35.941,14.616,4.4196,-5.0015,-1.7129,-20.569
-8.879,16.064,-7.9338,-23.236,-38.19,51.368,-19.77,1.561,-40.509,39.189,-35.699,14.294,4.3517,-5.1064,-1.5187,-20.818
-8.879,16.064,-7.9338,-23.236,-38.19,51.368,-19.77,1.561,-40.509,39.189,-35.699,14.294,4.3517,-5.1064,-1.5187,-20.818
-8.8609,15.921,-7.8022,-23.343,-38.156,51.18,-19.677,1.4902,-40.549,39.058,-35.455,13.97,4.2833,-5.2119,-1.323,-21.069
-8.8609,15.921,-7.8022,-23.343,-38.156,51.18,-19.677,1.4902,-40.549,39.058,-35.455,13.97,4.2833,-5.2119,-1.323,-21.069
-8.8422,15.776,-7.6709,-23.449,-38.122,50.991,-19.586,1.4195,-40.588,38.927,-35.21,13.645,4.2143,-5.3178,-1.126,-21.321
-8.8422,15.776,-7.6709,-23.449,-38.122,50.991,-19.586,1.4195,-40.588,38.927,-35.21,13.645,4.2143,-5.3178,-1.126,-21.321
-8.8227,15.63,-7.5399,-23.555,-38.087,50.8,-19.495,1.3488,-40.626,38.795,-34.963,13.319,4.1447,-5.4243,-0.92756,-21.574
-8.8227,15.63,-7.5399,-23.555,-38.087,50.8,-19.495,1.3488,-40.626,38.795,-34.963,13.319,4.1447,-5.4243,-0.92756,-21.574
-8.8227,15.63,-7.5399,-23.555,-38.087,50.8,-19.495,1.3488,-40.626,38.795,-34.963,13.319,4.1447,-5.4243,-0.92756,-21.574
-8.8025,15.482,-7.4092,-23.659,-38.052,50.607,-19.404,1.278,-40.665,38.663,-34.714,12.992,4.0746,-5.5313,-0.7278,-21.829
-8.8025,15.482,-7.4092,-23.659,-38.052,50.607,-19.404,1.278,-40.665,38.663,-34.714,12.992,4.0746,-5.5313,-0.7278,-21.829
-8.8025,15.482,-7.4092,-23.659,-38.052,50.607,-19.404,1.278,-40.665,38.663,-34.714,12.992,4.0746,-5.5313,-0.7278,-21.829
-8.7599,15.184,-7.1487,-23.868,-37.979,50.216,-19.225,1.1367,-40.739,38.395,-34.211,12.335,3.9329,-5.7467,-0.32426,-22.341
-8.7599,15.184,-7.1487,-23.868,-37.979,50.216,-19.225,1.1367,-40.739,38.395,-34.211,12.335,3.9329,-5.7467,-0.32426,-22.341
-8.7376,15.033,-7.019,-23.971,-37.943,50.018,-19.137,1.066,-40.776,38.26,-33.956,12.006,3.8613,-5.8552,-0.1205,-22.6
-8.7376,15.033,-7.019,-23.971,-37.943,50.018,-19.137,1.066,-40.776,38.26,-33.956,12.006,3.8613,-5.8552,-0.1205,-22.6
-8.7145,14.88,-6.8895,-24.073,-37.905,49.818,-19.049,0.99543,-40.812,38.123,-33.701,11.675,3.7893,-5.9642,0.084584,-22.859
-8.7145,14.88,-6.8895,-24.073,-37.905,49.818,-19.049,0.99543,-40.812,38.123,-33.701,11.675,3.7893,-5.9642,0.084584,-22.859
-8.7145,14.88,-6.8895,-24.073,-37.905,49.818,-19.049,0.99543,-40.812,38.123,-33.701,11.675,3.7893,-5.9642,0.084584,-22.859
-8.6907,14.727,-6.7604,-24.175,-37.867,49.616,-18.962,0.92486,-40.848,37.987,-33.443,11.343,3.7167,-6.0736,0.29097,-23.12
-8.6907,14.727,-6.7604,-24.175,-37.867,49.616,-18.962,0.92486,-40.848,37.987,-33.443,11.343,3.7167,-6.0736,0.29097,-23.12
-8.6408,14.416,-6.5032,-24.377,-37.79,49.207,-18.789,0.78383,-40.918,37.71,-32.923,10.677,3.5703,-6.2941,0.70762,-23.645
-8.6408,14.416,-6.5032,-24.377,-37.79,49.207,-18.789,0.78383,-40.918,37.71,-32.923,10.677,3.5703,-6.2941,0.70762,-23.645
-8.6408,14.416,-6.5032,-24.377,-37.79,49.207,-18.789,0.78383,-40.918,37.71,-32.923,10.677,3.5703,-6.2941,0.70762,-23.645
-8.6147,14.259,-6.3751,-24.477,-37.751,49,-18.704,0.71338,-40.952,37.571,-32.66,10.342,3.4965,-6.405,0.91786,-23.909
-8.6147,14.259,-6.3751,-24.477,-37.751,49,-18.704,0.71338,-40.952,37.571,-32.66,10.342,3.4965,-6.405,0.91786,-23.909
-8.6147,14.259,-6.3751,-24.477,-37.751,49,-18.704,0.71338,-40.952,37.571,-32.66,10.342,3.4965,-6.405,0.91786,-23.909
-8.588,14.101,-6.2474,-24.576,-37.711,48.792,-18.619,0.64298,-40.986,37.431,-32.396,10.007,3.4222,-6.5165,1.1294,-24.175
-8.5604,13.942,-6.12,-24.675,-37.67,48.581,-18.535,0.57264,-41.019,37.29,-32.13,9.6704,3.3475,-6.6284,1.3421,-24.441
-8.5321,13.781,-5.993,-24.773,-37.629,48.369,-18.452,0.50234,-41.051,37.149,-31.862,9.3332,3.2725,-6.7408,1.5561,-24.709
-8.5321,13.781,-5.993,-24.773,-37.629,48.369,-18.452,0.50234,-41.051,37.149,-31.862,9.3332,3.2725,-6.7408,1.5561,-24.709
-8.5321,13.781,-5.993,-24.773,-37.629,48.369,-18.452,0.50234,-41.051,37.149,-31.862,9.3332,3.2725,-6.7408,1.5561,-24.709
-8.5031,13.619,-5.8664,-24.87,-37.588,48.155,-18.37,0.43211,-41.083,37.006,-31.593,8.9953,3.1971,-6.8537,1.7714,-24.978
-8.5031,13.619,-5.8664,-24.87,-37.588,48.155,-18.37,0.43211,-41.083,37.006,-31.593,8.9953,3.1971,-6.8537,1.7714,-24.978
-8.4733,13.456,-5.7402,-24.966,-37.545,47.939,-18.288,0.36194,-41.115,36.863,-31.323,8.6565,3.1213,-6.9671,1.9878,-25.248
-8.4733,13.456,-5.7402,-24.966,-37.545,47.939,-18.288,0.36194,-41.115,36.863,-31.323,8.6565,3.1213,-6.9671,1.9878,-25.248
-8.4733,13.456,-5.7402,-24.966,-37.545,47.939,-18.288,0.36194,-41.115,36.863,-31.323,8.6565,3.1213,-6.9671,1.9878,-25.248
-8.4428,13.292,-5.6143,-25.062,-37.503,47.722,-18.206,0.29183,-41.146,36.719,-31.05,8.3169,3.0451,-7.081,2.2055,-25.52
-8.4428,13.292,-5.6143,-25.062,-37.503,47.722,-18.206,0.29183,-41.146,36.719,-31.05,8.3169,3.0451,-7.081,2.2055,-25.52
-8.4428,13.292,-5.6143,-25.062,-37.503,47.722,-18.206,0.29183,-41.146,36.719,-31.05,8.3169,3.0451,-7.081,2.2055,-25.52
-8.3795,12.961,-5.3638,-25.251,-37.416,47.283,-18.046,0.15183,-41.206,36.429,-30.501,7.6354,2.8919,-7.3101,2.6444,-26.065
-8.3795,12.961,-5.3638,-25.251,-37.416,47.283,-18.046,0.15183,-41.206,36.429,-30.501,7.6354,2.8919,-7.3101,2.6444,-26.065
-8.3467,12.794,-5.2392,-25.345,-37.372,47.061,-17.966,0.081939,-41.236,36.283,-30.224,7.2935,2.8148,-7.4254,2.8657,-26.34
-8.3467,12.794,-5.2392,-25.345,-37.372,47.061,-17.966,0.081939,-41.236,36.283,-30.224,7.2935,2.8148,-7.4254,2.8657,-26.34
-8.3131,12.625,-5.115,-25.437,-37.327,46.837,-17.888,0.012125,-41.264,36.136,-29.946,6.9509,2.7374,-7.5411,3.0881,-26.616
-8.3131,12.625,-5.115,-25.437,-37.327,46.837,-17.888,0.012125,-41.264,36.136,-29.946,6.9509,2.7374,-7.5411,3.0881,-26.616
-8.2788,12.456,-4.9912,-25.529,-37.281,46.612,-17.81,-0.057608,-41.293,35.988,-29.666,6.6076,2.6598,-7.6573,3.3116,-26.893
-8.2788,12.456,-4.9912,-25.529,-37.281,46.612,-17.81,-0.057608,-41.293,35.988,-29.666,6.6076,2.6598,-7.6573,3.3116,-26.893
-8.2788,12.456,-4.9912,-25.529,-37.281,46.612,-17.81,-0.057608,-41.293,35.988,-29.666,6.6076,2.6598,-7.6573,3.3116,-26.893
-8.2437,12.285,-4.8678,-25.62,-37.235,46.385,-17.733,-0.12726,-41.32,35.84,-29.384,6.2636,2.5819,-7.774,3.5363,-27.17
-8.2078,12.114,-4.7449,-25.711,-37.189,46.156,-17.656,-0.19682,-41.347,35.691,-29.101,5.9189,2.5037,-7.8912,3.7621,-27.449
-8.1712,11.941,-4.6224,-25.8,-37.142,45.926,-17.58,-0.26629,-41.374,35.541,-28.817,5.5736,2.4253,-8.0087,3.989,-27.729
-8.1712,11.941,-4.6224,-25.8,-37.142,45.926,-17.58,-0.26629,-41.374,35.541,-28.817,5.5736,2.4253,-8.0087,3.989,-27.729
-8.1338,11.768,-4.5003,-25.889,-37.094,45.695,-17.505,-0.33567,-41.4,35.391,-28.531,5.2276,2.3467,-8.1268,4.2171,-28.01
-8.1338,11.768,-4.5003,-25.889,-37.094,45.695,-17.505,-0.33567,-41.4,35.391,-28.531,5.2276,2.3467,-8.1268,4.2171,-28.01
-8.1338,11.768,-4.5003,-25.889,-37.094,45.695,-17.505,-0.33567,-41.4,35.391,-28.531,5.2276,2.3467,-8.1268,4.2171,-28.01
-8.0957,11.593,-4.3787,-25.977,-37.046,45.462,-17.43,-0.40495,-41.425,35.239,-28.244,4.8809,2.2678,-8.2453,4.4462,-28.292
-8.0957,11.593,-4.3787,-25.977,-37.046,45.462,-17.43,-0.40495,-41.425,35.239,-28.244,4.8809,2.2678,-8.2453,4.4462,-28.292
-8.0568,11.417,-4.2576,-26.064,-36.997,45.227,-17.357,-0.47414,-41.45,35.088,-27.955,4.5337,2.1888,-8.3643,4.6764,-28.575
-8.0568,11.417,-4.2576,-26.064,-36.997,45.227,-17.357,-0.47414,-41.45,35.088,-27.955,4.5337,2.1888,-8.3643,4.6764,-28.575
-8.0171,11.241,-4.1369,-26.15,-36.948,44.991,-17.283,-0.54322,-41.474,34.935,-27.665,4.1859,2.1096,-8.4837,4.9076,-28.859
-7.9766,11.063,-4.0167,-26.235,-36.898,44.754,-17.211,-0.61219,-41.498,34.782,-27.373,3.8375,2.0302,-8.6035,5.1399,-29.144
-7.9766,11.063,-4.0167,-26.235,-36.898,44.754,-17.211,-0.61219,-41.498,34.782,-27.373,3.8375,2.0302,-8.6035,5.1399,-29.144
-7.9354,10.884,-3.897,-26.32,-36.847,44.515,-17.139,-0.68106,-41.521,34.628,-27.081,3.4885,1.9506,-8.7238,5.3733,-29.43
-7.9354,10.884,-3.897,-26.32,-36.847,44.515,-17.139,-0.68106,-41.521,34.628,-27.081,3.4885,1.9506,-8.7238,5.3733,-29.43
-7.8934,10.705,-3.7778,-26.403,-36.796,44.274,-17.068,-0.74981,-41.543,34.473,-26.786,3.139,1.871,-8.8445,5.6077,-29.717
-7.8934,10.705,-3.7778,-26.403,-36.796,44.274,-17.068,-0.74981,-41.543,34.473,-26.786,3.139,1.871,-8.8445,5.6077,-29.717
-7.8507,10.524,-3.659,-26.486,-36.745,44.032,-16.998,-0.81846,-41.565,34.318,-26.491,2.789,1.7912,-8.9657,5.8431,-30.005
-7.8507,10.524,-3.659,-26.486,-36.745,44.032,-16.998,-0.81846,-41.565,34.318,-26.491,2.789,1.7912,-8.9657,5.8431,-30.005
-7.8507,10.524,-3.659,-26.486,-36.745,44.032,-16.998,-0.81846,-41.565,34.318,-26.491,2.789,1.7912,-8.9657,5.8431,-30.005
-7.8072,10.343,-3.5408,-26.567,-36.692,43.789,-16.928,-0.88698,-41.586,34.162,-26.194,2.4384,1.7112,-9.0873,6.0795,-30.294
-7.8072,10.343,-3.5408,-26.567,-36.692,43.789,-16.928,-0.88698,-41.586,34.162,-26.194,2.4384,1.7112,-9.0873,6.0795,-30.294
-7.8072,10.343,-3.5408,-26.567,-36.692,43.789,-16.928,-0.88698,-41.586,34.162,-26.194,2.4384,1.7112,-9.0873,6.0795,-30.294
-7.7629,10.16,-3.423,-26.648,-36.639,43.544,-16.859,-0.95539,-41.607,34.006,-25.896,2.0874,1.6312,-9.2093,6.3168,-30.584
-7.7629,10.16,-3.423,-26.648,-36.639,43.544,-16.859,-0.95539,-41.607,34.006,-25.896,2.0874,1.6312,-9.2093,6.3168,-30.584
-7.7178,9.9772,-3.3058,-26.728,-36.586,43.298,-16.79,-1.0237,-41.627,33.848,-25.596,1.7359,1.5511,-9.3318,6.5552,-30.875
-7.7178,9.9772,-3.3058,-26.728,-36.586,43.298,-16.79,-1.0237,-41.627,33.848,-25.596,1.7359,1.5511,-9.3318,6.5552,-30.875
-7.672,9.793,-3.1891,-26.807,-36.532,43.051,-16.723,-1.0918,-41.646,33.691,-25.296,1.384,1.471,-9.4546,6.7945,-31.166
-7.672,9.793,-3.1891,-26.807,-36.532,43.051,-16.723,-1.0918,-41.646,33.691,-25.296,1.384,1.471,-9.4546,6.7945,-31.166
-7.6254,9.6079,-3.0729,-26.885,-36.477,42.802,-16.656,-1.1599,-41.665,33.532,-24.994,1.0316,1.3907,-9.5779,7.0347,-31.459
-7.6254,9.6079,-3.0729,-26.885,-36.477,42.802,-16.656,-1.1599,-41.665,33.532,-24.994,1.0316,1.3907,-9.5779,7.0347,-31.459
-7.578,9.422,-2.9572,-26.962,-36.422,42.551,-16.589,-1.2278,-41.683,33.373,-24.691,0.67876,1.3105,-9.7017,7.2759,-31.752
-7.5299,9.2351,-2.8421,-27.038,-36.366,42.3,-16.524,-1.2955,-41.701,33.213,-24.386,0.32556,1.2302,-9.8258,7.518,-32.046
-7.5299,9.2351,-2.8421,-27.038,-36.366,42.3,-16.524,-1.2955,-41.701,33.213,-24.386,0.32556,1.2302,-9.8258,7.518,-32.046
-7.481,9.0475,-2.7275,-27.113,-36.309,42.047,-16.459,-1.3631,-41.717,33.053,-24.081,-0.028028,1.1499,-9.9503,7.761,-32.341
-7.481,9.0475,-2.7275,-27.113,-36.309,42.047,-16.459,-1.3631,-41.717,33.053,-24.081,-0.028028,1.1499,-9.9503,7.761,-32.341
-7.4313,8.859,-2.6134,-27.187,-36.252,41.793,-16.394,-1.4306,-41.734,32.892,-23.774,-0.38198,1.0696,-10.075,8.0048,-32.637
-7.4313,8.859,-2.6134,-27.187,-36.252,41.793,-16.394,-1.4306,-41.734,32.892,-23.774,-0.38198,1.0696,-10.075,8.0048,-32.637
-7.4313,8.859,-2.6134,-27.187,-36.252,41.793,-16.394,-1.4306,-41.734,32.892,-23.774,-0.38198,1.0696,-10.075,8.0048,-32.637
-7.3809,8.6697,-2.4999,-27.26,-36.195,41.538,-16.331,-1.498,-41.749,32.73,-23.466,-0.73628,0.98928,-10.201,8.2496,-32.934
-7.3297,8.4796,-2.387,-27.332,-36.136,41.281,-16.268,-1.5652,-41.764,32.568,-23.157,-1.0909,0.90902,-10.326,8.4952,-33.231
-7.2778,8.2887,-2.2746,-27.403,-36.077,41.023,-16.206,-1.6322,-41.778,32.406,-22.847,-1.4458,0.8288,-10.453,8.7416,-33.53
-7.2778,8.2887,-2.2746,-27.403,-36.077,41.023,-16.206,-1.6322,-41.778,32.406,-22.847,-1.4458,0.8288,-10.453,8.7416,-33.53
-7.2251,8.097,-2.1628,-27.473,-36.018,40.764,-16.144,-1.6991,-41.792,32.242,-22.536,-1.8011,0.74864,-10.579,8.9889,-33.829
-7.2251,8.097,-2.1628,-27.473,-36.018,40.764,-16.144,-1.6991,-41.792,32.242,-22.536,-1.8011,0.74864,-10.579,8.9889,-33.829
-7.2251,8.097,-2.1628,-27.473,-36.018,40.764,-16.144,-1.6991,-41.792,32.242,-22.536,-1.8011,0.74864,-10.579,8.9889,-33.829
-7.1716,7.9045,-2.0515,-27.542,-35.958,40.503,-16.083,-1.7659,-41.805,32.078,-22.224,-2.1566,0.66855,-10.706,9.237,-34.129
-7.1716,7.9045,-2.0515,-27.542,-35.958,40.503,-16.083,-1.7659,-41.805,32.078,-22.224,-2.1566,0.66855,-10.706,9.237,-34.129
-7.1174,7.7113,-1.9408,-27.61,-35.897,40.242,-16.023,-1.8325,-41.817,31.914,-21.91,-2.5124,0.58855,-10.833,9.4859,-34.429
-7.1174,7.7113,-1.9408,-27.61,-35.897,40.242,-16.023,-1.8325,-41.817,31.914,-21.91,-2.5124,0.58855,-10.833,9.4859,-34.429
-7.0625,7.5173,-1.8307,-27.677,-35.836,39.979,-15.964,-1.8989,-41.829,31.749,-21.596,-2.8684,0.50864,-10.961,9.7355,-34.731
-7.0625,7.5173,-1.8307,-27.677,-35.836,39.979,-15.964,-1.8989,-41.829,31.749,-21.596,-2.8684,0.50864,-10.961,9.7355,-34.731
-7.0067,7.3226,-1.7212,-27.743,-35.774,39.715,-15.905,-1.9652,-41.84,31.583,-21.281,-3.2246,0.42885,-11.089,9.986,-35.033
-7.0067,7.3226,-1.7212,-27.743,-35.774,39.715,-15.905,-1.9652,-41.84,31.583,-21.281,-3.2246,0.42885,-11.089,9.986,-35.033
-6.9503,7.1272,-1.6123,-27.808,-35.711,39.45,-15.847,-2.0313,-41.85,31.417,-20.964,-3.581,0.34919,-11.218,10.237,-35.336
-6.9503,7.1272,-1.6123,-27.808,-35.711,39.45,-15.847,-2.0313,-41.85,31.417,-20.964,-3.581,0.34919,-11.218,10.237,-35.336
-6.893,6.9311,-1.504,-27.871,-35.648,39.184,-15.789,-2.0972,-41.86,31.25,-20.647,-3.9376,0.26967,-11.346,10.489,-35.639
-6.893,6.9311,-1.504,-27.871,-35.648,39.184,-15.789,-2.0972,-41.86,31.25,-20.647,-3.9376,0.26967,-11.346,10.489,-35.639
-6.893,6.9311,-1.504,-27.871,-35.648,39.184,-15.789,-2.0972,-41.86,31.25,-20.647,-3.9376,0.26967,-11.346,10.489,-35.639
-6.8351,6.7343,-1.3963,-27.934,-35.584,38.916,-15.733,-2.163,-41.869,31.083,-20.329,-4.2944,0.1903,-11.476,10.742,-35.943
-6.7764,6.5369,-1.2892,-27.995,-35.519,38.648,-15.677,-2.2286,-41.877,30.915,-20.009,-4.6514,0.11111,-11.605,10.995,-36.248
-6.7169,6.3388,-1.1827,-28.056,-35.454,38.378,-15.621,-2.294,-41.884,30.747,-19.689,-5.0084,0.032101,-11.735,11.249,-36.554
-6.7169,6.3388,-1.1827,-28.056,-35.454,38.378,-15.621,-2.294,-41.884,30.747,-19.689,-5.0084,0.032101,-11.735,11.249,-36.554
-6.7169,6.3388,-1.1827,-28.056,-35.454,38.378,-15.621,-2.294,-41.884,30.747,-19.689,-5.0084,0.032101,-11.735,11.249,-36.554
-6.6567,6.14,-1.0769,-28.115,-35.388,38.108,-15.566,-2.3593,-41.891,30.578,-19.368,-5.3656,-0.046709,-11.865,11.504,-36.86
-6.6567,6.14,-1.0769,-28.115,-35.388,38.108,-15.566,-2.3593,-41.891,30.578,-19.368,-5.3656,-0.046709,-11.865,11.504,-36.86
-6.6567,6.14,-1.0769,-28.115,-35.388,38.108,-15.566,-2.3593,-41.891,30.578,-19.368,-5.3656,-0.046709,-11.865,11.504,-36.86
-6.5958,5.9406,-0.97165,-28.173,-35.322,37.836,-15.512,-2.4244,-41.897,30.409,-19.046,-5.7229,-0.12531,-11.996,11.759,-37.167
-6.5341,5.7406,-0.86705,-28.23,-35.255,37.563,-15.459,-2.4892,-41.903,30.239,-18.723,-6.0803,-0.20368,-12.127,12.015,-37.474
-6.5341,5.7406,-0.86705,-28.23,-35.255,37.563,-15.459,-2.4892,-41.903,30.239,-18.723,-6.0803,-0.20368,-12.127,12.015,-37.474
-6.4717,5.54,-0.76309,-28.286,-35.187,37.289,-15.406,-2.554,-41.908,30.069,-18.399,-6.4377,-0.28181,-12.258,12.272,-37.782
-6.4717,5.54,-0.76309,-28.286,-35.187,37.289,-15.406,-2.554,-41.908,30.069,-18.399,-6.4377,-0.28181,-12.258,12.272,-37.782
-6.4086,5.3388,-0.65976,-28.34,-35.119,37.015,-15.354,-2.6185,-41.912,29.898,-18.075,-6.7951,-0.35968,-12.39,12.529,-38.091
-6.4086,5.3388,-0.65976,-28.34,-35.119,37.015,-15.354,-2.6185,-41.912,29.898,-18.075,-6.7951,-0.35968,-12.39,12.529,-38.091
-6.3448,5.1371,-0.55709,-28.394,-35.05,36.739,-15.303,-2.6828,-41.915,29.726,-17.75,-7.1526,-0.43729,-12.522,12.787,-38.4
-6.3448,5.1371,-0.55709,-28.394,-35.05,36.739,-15.303,-2.6828,-41.915,29.726,-17.75,-7.1526,-0.43729,-12.522,12.787,-38.4
-6.2802,4.9347,-0.45507,-28.446,-34.98,36.462,-15.252,-2.7469,-41.918,29.555,-17.424,-7.5101,-0.51461,-12.654,13.045,-38.71
-6.2802,4.9347,-0.45507,-28.446,-34.98,36.462,-15.252,-2.7469,-41.918,29.555,-17.424,-7.5101,-0.51461,-12.654,13.045,-38.71
-6.2149,4.7319,-0.3537,-28.497,-34.91,36.185,-15.202,-2.8109,-41.919,29.382,-17.097,-7.8676,-0.59164,-12.787,13.304,-39.02
-6.2149,4.7319,-0.3537,-28.497,-34.91,36.185,-15.202,-2.8109,-41.919,29.382,-17.097,-7.8676,-0.59164,-12.787,13.304,-39.02
-6.1489,4.5285,-0.253,-28.547,-34.839,35.906,-15.153,-2.8746,-41.921,29.209,-16.769,-8.225,-0.66835,-12.92,13.564,-39.331
-6.1489,4.5285,-0.253,-28.547,-34.839,35.906,-15.153,-2.8746,-41.921,29.209,-16.769,-8.225,-0.66835,-12.92,13.564,-39.331
-6.1489,4.5285,-0.253,-28.547,-34.839,35.906,-15.153,-2.8746,-41.921,29.209,-16.769,-8.225,-0.66835,-12.92,13.564,-39.331
-6.0822,4.3246,-0.15296,-28.596,-34.768,35.626,-15.104,-2.9382,-41.921,29.036,-16.441,-8.5824,-0.74474,-13.053,13.824,-39.642
-6.0822,4.3246,-0.15296,-28.596,-34.768,35.626,-15.104,-2.9382,-41.921,29.036,-16.441,-8.5824,-0.74474,-13.053,13.824,-39.642
-6.0822,4.3246,-0.15296,-28.596,-34.768,35.626,-15.104,-2.9382,-41.921,29.036,-16.441,-8.5824,-0.74474,-13.053,13.824,-39.642
-5.9466,3.9153,0.0451,-28.69,-34.623,35.065,-15.009,-3.0647,-41.92,28.688,-15.782,-9.297,-0.89649,-13.32,14.345,-40.266
-5.9466,3.9153,0.0451,-28.69,-34.623,35.065,-15.009,-3.0647,-41.92,28.688,-15.782,-9.297,-0.89649,-13.32,14.345,-40.266
-5.8778,3.71,0.14311,-28.735,-34.549,34.783,-14.962,-3.1276,-41.918,28.513,-15.452,-9.6541,-0.97183,-13.454,14.607,-40.579
-5.8778,3.71,0.14311,-28.735,-34.549,34.783,-14.962,-3.1276,-41.918,28.513,-15.452,-9.6541,-0.97183,-13.454,14.607,-40.579
-5.8083,3.5042,0.24043,-28.779,-34.475,34.5,-14.916,-3.1904,-41.916,28.338,-15.121,-10.011,-1.0468,-13.589,14.869,-40.892
-5.8083,3.5042,0.24043,-28.779,-34.475,34.5,-14.916,-3.1904,-41.916,28.338,-15.121,-10.011,-1.0468,-13.589,14.869,-40.892
-5.7381,3.298,0.33707,-28.822,-34.401,34.216,-14.871,-3.2529,-41.912,28.163,-14.79,-10.368,-1.1213,-13.724,15.131,-41.206
-5.7381,3.298,0.33707,-28.822,-34.401,34.216,-14.871,-3.2529,-41.912,28.163,-14.79,-10.368,-1.1213,-13.724,15.131,-41.206
-5.6672,3.0914,0.433,-28.863,-34.325,33.931,-14.826,-3.3152,-41.908,27.987,-14.458,-10.725,-1.1955,-13.859,15.394,-41.52
-5.6672,3.0914,0.433,-28.863,-34.325,33.931,-14.826,-3.3152,-41.908,27.987,-14.458,-10.725,-1.1955,-13.859,15.394,-41.52
-5.5956,2.8843,0.52824,-28.903,-34.249,33.646,-14.782,-3.3773,-41.904,27.81,-14.125,-11.081,-1.2692,-13.994,15.657,-41.834
-5.5956,2.8843,0.52824,-28.903,-34.249,33.646,-14.782,-3.3773,-41.904,27.81,-14.125,-11.081,-1.2692,-13.994,15.657,-41.834
-5.5234,2.6769,0.62278,-28.942,-34.173,33.359,-14.739,-3.4392,-41.898,27.633,-13.792,-11.438,-1.3425,-14.129,15.92,-42.149
-5.5234,2.6769,0.62278,-28.942,-34.173,33.359,-14.739,-3.4392,-41.898,27.633,-13.792,-11.438,-1.3425,-14.129,15.92,-42.149
-5.4504,2.4691,0.7166,-28.98,-34.096,33.072,-14.696,-3.5009,-41.892,27.456,-13.458,-11.794,-1.4153,-14.265,16.184,-42.464
-5.4504,2.4691,0.7166,-28.98,-34.096,33.072,-14.696,-3.5009,-41.892,27.456,-13.458,-11.794,-1.4153,-14.265,16.184,-42.464
-5.3768,2.2609,0.80971,-29.016,-34.018,32.785,-14.654,-3.5623,-41.885,27.278,-13.124,-12.15,-1.4877,-14.401,16.449,-42.78
-5.3768,2.2609,0.80971,-29.016,-34.018,32.785,-14.654,-3.5623,-41.885,27.278,-13.124,-12.15,-1.4877,-14.401,16.449,-42.78
-5.3026,2.0524,0.90211,-29.051,-33.939,32.496,-14.612,-3.6236,-41.877,27.1,-12.789,-12.505,-1.5596,-14.538,16.713,-43.096
-5.3026,2.0524,0.90211,-29.051,-33.939,32.496,-14.612,-3.6236,-41.877,27.1,-12.789,-12.505,-1.5596,-14.538,16.713,-43.096
-5.2276,1.8436,0.99378,-29.085,-33.86,32.207,-14.571,-3.6845,-41.869,26.921,-12.454,-12.861,-1.631,-14.674,16.978,-43.412
-5.2276,1.8436,0.99378,-29.085,-33.86,32.207,-14.571,-3.6845,-41.869,26.921,-12.454,-12.861,-1.631,-14.674,16.978,-43.412
-5.152,1.6344,1.0847,-29.118,-33.78,31.917,-14.531,-3.7453,-41.859,26.743,-12.118,-13.216,-1.7019,-14.811,17.244,-43.729
-5.152,1.6344,1.0847,-29.118,-33.78,31.917,-14.531,-3.7453,-41.859,26.743,-12.118,-13.216,-1.7019,-14.811,17.244,-43.729
-5.0758,1.425,1.1749,-29.149,-33.7,31.627,-14.492,-3.8059,-41.849,26.563,-11.782,-13.571,-1.7723,-14.948,17.509,-44.046
-5.0758,1.425,1.1749,-29.149,-33.7,31.627,-14.492,-3.8059,-41.849,26.563,-11.782,-13.571,-1.7723,-14.948,17.509,-44.046
-4.999,1.2153,1.2644,-29.179,-33.619,31.336,-14.453,-3.8662,-41.838,26.383,-11.446,-13.925,-1.8422,-15.086,17.775,-44.363
-4.999,1.2153,1.2644,-29.179,-33.619,31.336,-14.453,-3.8662,-41.838,26.383,-11.446,-13.925,-1.8422,-15.086,17.775,-44.363
-4.9214,1.0053,1.3532,-29.208,-33.537,31.044,-14.414,-3.9262,-41.827,26.203,-11.109,-14.279,-1.9115,-15.223,18.041,-44.68
-4.9214,1.0053,1.3532,-29.208,-33.537,31.044,-14.414,-3.9262,-41.827,26.203,-11.109,-14.279,-1.9115,-15.223,18.041,-44.68
-4.8433,0.79505,1.4412,-29.235,-33.455,30.752,-14.377,-3.9861,-41.814,26.023,-10.772,-14.633,-1.9802,-15.361,18.307,-44.998
-4.8433,0.79505,1.4412,-29.235,-33.455,30.752,-14.377,-3.9861,-41.814,26.023,-10.772,-14.633,-1.9802,-15.361,18.307,-44.998
-4.7645,0.5846,1.5284,-29.261,-33.372,30.459,-14.34,-4.0457,-41.801,25.842,-10.435,-14.987,-2.0484,-15.499,18.574,-45.316
-4.7645,0.5846,1.5284,-29.261,-33.372,30.459,-14.34,-4.0457,-41.801,25.842,-10.435,-14.987,-2.0484,-15.499,18.574,-45.316
-4.6851,0.37394,1.6149,-29.285,-33.288,30.165,-14.303,-4.1051,-41.787,25.661,-10.097,-15.34,-2.116,-15.637,18.84,-45.634
-4.6051,0.16307,1.7006,-29.309,-33.204,29.871,-14.268,-4.1642,-41.772,25.479,-9.7595,-15.692,-2.183,-15.776,19.107,-45.952
-4.6051,0.16307,1.7006,-29.309,-33.204,29.871,-14.268,-4.1642,-41.772,25.479,-9.7595,-15.692,-2.183,-15.776,19.107,-45.952
-4.5245,-0.047969,1.7856,-29.331,-33.119,29.576,-14.232,-4.223,-41.757,25.297,-9.4214,-16.044,-2.2494,-15.914,19.374,-46.27
-4.5245,-0.047969,1.7856,-29.331,-33.119,29.576,-14.232,-4.223,-41.757,25.297,-9.4214,-16.044,-2.2494,-15.914,19.374,-46.27
-4.5245,-0.047969,1.7856,-29.331,-33.119,29.576,-14.232,-4.223,-41.757,25.297,-9.4214,-16.044,-2.2494,-15.914,19.374,-46.27
-4.4433,-0.25917,1.8699,-29.351,-33.034,29.281,-14.198,-4.2817,-41.74,25.115,-9.083,-16.396,-2.3152,-16.053,19.641,-46.589
-4.4433,-0.25917,1.8699,-29.351,-33.034,29.281,-14.198,-4.2817,-41.74,25.115,-9.083,-16.396,-2.3152,-16.053,19.641,-46.589
-4.4433,-0.25917,1.8699,-29.351,-33.034,29.281,-14.198,-4.2817,-41.74,25.115,-9.083,-16.396,-2.3152,-16.053,19.641,-46.589
-4.3615,-0.47053,1.9533,-29.37,-32.948,28.985,-14.164,-4.3401,-41.723,24.932,-8.7444,-16.747,-2.3803,-16.192,19.908,-46.908
-4.2791,-0.68201,2.036,-29.388,-32.861,28.689,-14.131,-4.3982,-41.705,24.749,-8.4057,-17.098,-2.4448,-16.331,20.175,-47.226
-4.2791,-0.68201,2.036,-29.388,-32.861,28.689,-14.131,-4.3982,-41.705,24.749,-8.4057,-17.098,-2.4448,-16.331,20.175,-47.226
-4.1961,-0.89361,2.1179,-29.405,-32.774,28.393,-14.098,-4.4561,-41.686,24.566,-8.0668,-17.448,-2.5086,-16.471,20.443,-47.545
-4.1961,-0.89361,2.1179,-29.405,-32.774,28.393,-14.098,-4.4561,-41.686,24.566,-8.0668,-17.448,-2.5086,-16.471,20.443,-47.545
-4.1125,-1.1053,2.199,-29.42,-32.686,28.095,-14.066,-4.5137,-41.666,24.382,-7.7278,-17.798,-2.5717,-16.61,20.71,-47.864
-4.1125,-1.1053,2.199,-29.42,-32.686,28.095,-14.066,-4.5137,-41.666,24.382,-7.7278,-17.798,-2.5717,-16.61,20.71,-47.864
-4.0283,-1.3171,2.2794,-29.434,-32.597,27.798,-14.034,-4.5711,-41.646,24.198,-7.3887,-18.147,-2.6341,-16.75,20.978,-48.184
-4.0283,-1.3171,2.2794,-29.434,-32.597,27.798,-14.034,-4.5711,-41.646,24.198,-7.3887,-18.147,-2.6341,-16.75,20.978,-48.184
-3.9436,-1.5289,2.3589,-29.446,-32.508,27.5,-14.004,-4.6282,-41.625,24.014,-7.0495,-18.496,-2.6959,-16.89,21.245,-48.503
-3.9436,-1.5289,2.3589,-29.446,-32.508,27.5,-14.004,-4.6282,-41.625,24.014,-7.0495,-18.496,-2.6959,-16.89,21.245,-48.503
-3.8583,-1.7408,2.4377,-29.457,-32.419,27.202,-13.973,-4.685,-41.603,23.83,-6.7103,-18.844,-2.7569,-17.03,21.513,-48.822
-3.8583,-1.7408,2.4377,-29.457,-32.419,27.202,-13.973,-4.685,-41.603,23.83,-6.7103,-18.844,-2.7569,-17.03,21.513,-48.822
-3.7725,-1.9527,2.5157,-29.466,-32.328,26.903,-13.944,-4.7416,-41.58,23.645,-6.371,-19.192,-2.8172,-17.17,21.78,-49.141
-3.7725,-1.9527,2.5157,-29.466,-32.328,26.903,-13.944,-4.7416,-41.58,23.645,-6.371,-19.192,-2.8172,-17.17,21.78,-49.141
-3.6861,-2.1646,2.5929,-29.475,-32.237,26.604,-13.915,-4.7979,-41.556,23.46,-6.0317,-19.539,-2.8767,-17.31,22.048,-49.461
-3.6861,-2.1646,2.5929,-29.475,-32.237,26.604,-13.915,-4.7979,-41.556,23.46,-6.0317,-19.539,-2.8767,-17.31,22.048,-49.461
-3.6861,-2.1646,2.5929,-29.475,-32.237,26.604,-13.915,-4.7979,-41.556,23.46,-6.0317,-19.539,-2.8767,-17.31,22.048,-49.461
-3.5992,-2.3766,2.6693,-29.481,-32.146,26.305,-13.886,-4.854,-41.531,23.274,-5.6924,-19.885,-2.9355,-17.45,22.315,-49.78
-3.5992,-2.3766,2.6693,-29.481,-32.146,26.305,-13.886,-4.854,-41.531,23.274,-5.6924,-19.885,-2.9355,-17.45,22.315,-49.78
-3.4238,-2.8003,2.8196,-29.49,-31.961,25.705,-13.831,-4.9653,-41.479,22.902,-5.014,-20.576,-3.0507,-17.731,22.849,-50.418
-3.4238,-2.8003,2.8196,-29.49,-31.961,25.705,-13.831,-4.9653,-41.479,22.902,-5.014,-20.576,-3.0507,-17.731,22.849,-50.418
-3.4238,-2.8003,2.8196,-29.49,-31.961,25.705,-13.831,-4.9653,-41.479,22.902,-5.014,-20.576,-3.0507,-17.731,22.849,-50.418
-3.4238,-2.8003,2.8196,-29.49,-31.961,25.705,-13.831,-4.9653,-41.479,22.902,-5.014,-20.576,-3.0507,-17.731,22.849,-50.418
-3.3353,-3.0121,2.8936,-29.493,-31.867,25.405,-13.804,-5.0205,-41.452,22.716,-4.675,-20.92,-3.1072,-17.872,23.117,-50.737
-3.3353,-3.0121,2.8936,-29.493,-31.867,25.405,-13.804,-5.0205,-41.452,22.716,-4.675,-20.92,-3.1072,-17.872,23.117,-50.737
-3.3353,-3.0121,2.8936,-29.493,-31.867,25.405,-13.804,-5.0205,-41.452,22.716,-4.675,-20.92,-3.1072,-17.872,23.117,-50.737
-3.1568,-3.4355,3.0391,-29.494,-31.679,24.804,-13.752,-5.1302,-41.395,22.342,-3.9972,-21.606,-3.2176,-18.154,23.65,-51.375
-3.1568,-3.4355,3.0391,-29.494,-31.679,24.804,-13.752,-5.1302,-41.395,22.342,-3.9972,-21.606,-3.2176,-18.154,23.65,-51.375
-3.1568,-3.4355,3.0391,-29.494,-31.679,24.804,-13.752,-5.1302,-41.395,22.342,-3.9972,-21.606,-3.2176,-18.154,23.65,-51.375
-3.0668,-3.647,3.1106,-29.492,-31.583,24.503,-13.727,-5.1846,-41.365,22.155,-3.6585,-21.948,-3.2716,-18.295,23.917,-51.694
-3.0668,-3.647,3.1106,-29.492,-31.583,24.503,-13.727,-5.1846,-41.365,22.155,-3.6585,-21.948,-3.2716,-18.295,23.917,-51.694
-2.9764,-3.8585,3.1813,-29.488,-31.488,24.201,-13.703,-5.2387,-41.335,21.968,-3.32,-22.29,-3.3248,-18.436,24.183,-52.013
-2.9764,-3.8585,3.1813,-29.488,-31.488,24.201,-13.703,-5.2387,-41.335,21.968,-3.32,-22.29,-3.3248,-18.436,24.183,-52.013
-2.794,-4.2808,3.3203,-29.477,-31.294,23.599,-13.656,-5.3461,-41.271,21.592,-2.6436,-22.97,-3.4285,-18.718,24.715,-52.649
-2.794,-4.2808,3.3203,-29.477,-31.294,23.599,-13.656,-5.3461,-41.271,21.592,-2.6436,-22.97,-3.4285,-18.718,24.715,-52.649
-2.794,-4.2808,3.3203,-29.477,-31.294,23.599,-13.656,-5.3461,-41.271,21.592,-2.6436,-22.97,-3.4285,-18.718,24.715,-52.649
-2.7021,-4.4918,3.3885,-29.47,-31.197,23.297,-13.633,-5.3994,-41.238,21.404,-2.3058,-23.309,-3.479,-18.859,24.981,-52.967
-2.7021,-4.4918,3.3885,-29.47,-31.197,23.297,-13.633,-5.3994,-41.238,21.404,-2.3058,-23.309,-3.479,-18.859,24.981,-52.967
-2.7021,-4.4918,3.3885,-29.47,-31.197,23.297,-13.633,-5.3994,-41.238,21.404,-2.3058,-23.309,-3.479,-18.859,24.981,-52.967
-2.6097,-4.7025,3.4559,-29.461,-31.098,22.995,-13.611,-5.4524,-41.203,21.216,-1.9683,-23.647,-3.5286,-19,25.247,-53.285
-2.5169,-4.913,3.5224,-29.45,-31,22.693,-13.589,-5.5051,-41.168,21.027,-1.6311,-23.985,-3.5774,-19.141,25.512,-53.603
-2.4237,-5.1233,3.5882,-29.438,-30.9,22.391,-13.568,-5.5575,-41.133,20.839,-1.2942,-24.321,-3.6252,-19.283,25.777,-53.92
-2.4237,-5.1233,3.5882,-29.438,-30.9,22.391,-13.568,-5.5575,-41.133,20.839,-1.2942,-24.321,-3.6252,-19.283,25.777,-53.92
-2.4237,-5.1233,3.5882,-29.438,-30.9,22.391,-13.568,-5.5575,-41.133,20.839,-1.2942,-24.321,-3.6252,-19.283,25.777,-53.92
-2.33,-5.3333,3.653,-29.424,-30.801,22.089,-13.547,-5.6096,-41.096,20.65,-0.95767,-24.657,-3.6721,-19.424,26.041,-54.237
-2.33,-5.3333,3.653,-29.424,-30.801,22.089,-13.547,-5.6096,-41.096,20.65,-0.95767,-24.657,-3.6721,-19.424,26.041,-54.237
-2.2359,-5.5431,3.7171,-29.409,-30.7,21.787,-13.527,-5.6614,-41.058,20.461,-0.6215,-24.992,-3.718,-19.565,26.306,-54.554
-2.2359,-5.5431,3.7171,-29.409,-30.7,21.787,-13.527,-5.6614,-41.058,20.461,-0.6215,-24.992,-3.718,-19.565,26.306,-54.554
-2.2359,-5.5431,3.7171,-29.409,-30.7,21.787,-13.527,-5.6614,-41.058,20.461,-0.6215,-24.992,-3.718,-19.565,26.306,-54.554
-2.1414,-5.7526,3.7803,-29.393,-30.599,21.485,-13.508,-5.7129,-41.02,20.271,-0.28573,-25.325,-3.763,-19.706,26.569,-54.871
-2.1414,-5.7526,3.7803,-29.393,-30.599,21.485,-13.508,-5.7129,-41.02,20.271,-0.28573,-25.325,-3.763,-19.706,26.569,-54.871
-1.9512,-6.1707,3.9041,-29.355,-30.396,20.881,-13.47,-5.815,-40.94,19.892,0.38451,-25.99,-3.8501,-19.989,27.096,-55.503
-1.9512,-6.1707,3.9041,-29.355,-30.396,20.881,-13.47,-5.815,-40.94,19.892,0.38451,-25.99,-3.8501,-19.989,27.096,-55.503
-1.9512,-6.1707,3.9041,-29.355,-30.396,20.881,-13.47,-5.815,-40.94,19.892,0.38451,-25.99,-3.8501,-19.989,27.096,-55.503
-1.8555,-6.3792,3.9647,-29.334,-30.293,20.579,-13.453,-5.8656,-40.898,19.702,0.71894,-26.321,-3.8921,-20.13,27.358,-55.818
-1.8555,-6.3792,3.9647,-29.334,-30.293,20.579,-13.453,-5.8656,-40.898,19.702,0.71894,-26.321,-3.8921,-20.13,27.358,-55.818
-1.7594,-6.5874,4.0245,-29.312,-30.19,20.277,-13.435,-5.9159,-40.856,19.512,1.0529,-26.651,-3.9332,-20.271,27.621,-56.133
-1.7594,-6.5874,4.0245,-29.312,-30.19,20.277,-13.435,-5.9159,-40.856,19.512,1.0529,-26.651,-3.9332,-20.271,27.621,-56.133
-1.7594,-6.5874,4.0245,-29.312,-30.19,20.277,-13.435,-5.9159,-40.856,19.512,1.0529,-26.651,-3.9332,-20.271,27.621,-56.133
-1.5661,-7.0026,4.1415,-29.262,-29.982,19.673,-13.402,-6.0156,-40.769,19.131,1.7191,-27.308,-4.0123,-20.553,28.144,-56.762
-1.5661,-7.0026,4.1415,-29.262,-29.982,19.673,-13.402,-6.0156,-40.769,19.131,1.7191,-27.308,-4.0123,-20.553,28.144,-56.762
-1.4689,-7.2096,4.1987,-29.235,-29.877,19.372,-13.386,-6.0649,-40.724,18.94,2.0514,-27.635,-4.0502,-20.694,28.404,-57.076
-1.4689,-7.2096,4.1987,-29.235,-29.877,19.372,-13.386,-6.0649,-40.724,18.94,2.0514,-27.635,-4.0502,-20.694,28.404,-57.076
-1.3714,-7.4162,4.2551,-29.207,-29.772,19.07,-13.371,-6.114,-40.678,18.75,2.3832,-27.961,-4.0872,-20.835,28.664,-57.389
-1.3714,-7.4162,4.2551,-29.207,-29.772,19.07,-13.371,-6.114,-40.678,18.75,2.3832,-27.961,-4.0872,-20.835,28.664,-57.389
-1.3714,-7.4162,4.2551,-29.207,-29.772,19.07,-13.371,-6.114,-40.678,18.75,2.3832,-27.961,-4.0872,-20.835,28.664,-57.389
-1.2735,-7.6223,4.3106,-29.177,-29.666,18.768,-13.356,-6.1627,-40.632,18.559,2.7143,-28.286,-4.1231,-20.976,28.924,-57.702
-1.2735,-7.6223,4.3106,-29.177,-29.666,18.768,-13.356,-6.1627,-40.632,18.559,2.7143,-28.286,-4.1231,-20.976,28.924,-57.702
-1.1754,-7.828,4.3652,-29.145,-29.559,18.467,-13.342,-6.2111,-40.584,18.368,3.0447,-28.61,-4.1579,-21.117,29.183,-58.014
-1.1754,-7.828,4.3652,-29.145,-29.559,18.467,-13.342,-6.2111,-40.584,18.368,3.0447,-28.61,-4.1579,-21.117,29.183,-58.014
-1.0769,-8.0332,4.419,-29.112,-29.452,18.166,-13.328,-6.2592,-40.535,18.176,3.3745,-28.932,-4.1916,-21.257,29.442,-58.326
-1.0769,-8.0332,4.419,-29.112,-29.452,18.166,-13.328,-6.2592,-40.535,18.176,3.3745,-28.932,-4.1916,-21.257,29.442,-58.326
-0.97805,-8.2379,4.4718,-29.077,-29.345,17.865,-13.315,-6.3069,-40.486,17.985,3.7036,-29.254,-4.2243,-21.398,29.7,-58.637
-0.97805,-8.2379,4.4718,-29.077,-29.345,17.865,-13.315,-6.3069,-40.486,17.985,3.7036,-29.254,-4.2243,-21.398,29.7,-58.637
-0.97805,-8.2379,4.4718,-29.077,-29.345,17.865,-13.315,-6.3069,-40.486,17.985,3.7036,-29.254,-4.2243,-21.398,29.7,-58.637
-0.87893,-8.4421,4.5238,-29.041,-29.237,17.565,-13.302,-6.3543,-40.435,17.794,4.032,-29.574,-4.2558,-21.538,29.957,-58.948
-0.87893,-8.4421,4.5238,-29.041,-29.237,17.565,-13.302,-6.3543,-40.435,17.794,4.032,-29.574,-4.2558,-21.538,29.957,-58.948
-0.87893,-8.4421,4.5238,-29.041,-29.237,17.565,-13.302,-6.3543,-40.435,17.794,4.032,-29.574,-4.2558,-21.538,29.957,-58.948
-0.67985,-8.8488,4.6252,-28.964,-29.019,16.964,-13.278,-6.4482,-40.331,17.41,4.6866,-30.211,-4.3155,-21.818,30.47,-59.568
-0.67985,-8.8488,4.6252,-28.964,-29.019,16.964,-13.278,-6.4482,-40.331,17.41,4.6866,-30.211,-4.3155,-21.818,30.47,-59.568
-0.57989,-9.0513,4.6746,-28.923,-28.91,16.664,-13.266,-6.4946,-40.278,17.218,5.0127,-30.528,-4.3437,-21.958,30.725,-59.876
-0.57989,-9.0513,4.6746,-28.923,-28.91,16.664,-13.266,-6.4946,-40.278,17.218,5.0127,-30.528,-4.3437,-21.958,30.725,-59.876
-0.57989,-9.0513,4.6746,-28.923,-28.91,16.664,-13.266,-6.4946,-40.278,17.218,5.0127,-30.528,-4.3437,-21.958,30.725,-59.876
-0.47968,-9.2533,4.7231,-28.881,-28.8,16.365,-13.255,-6.5407,-40.224,17.027,5.338,-30.844,-4.3707,-22.098,30.979,-60.185
-0.47968,-9.2533,4.7231,-28.881,-28.8,16.365,-13.255,-6.5407,-40.224,17.027,5.338,-30.844,-4.3707,-22.098,30.979,-60.185
-0.47968,-9.2533,4.7231,-28.881,-28.8,16.365,-13.255,-6.5407,-40.224,17.027,5.338,-30.844,-4.3707,-22.098,30.979,-60.185
-0.47968,-9.2533,4.7231,-28.881,-28.8,16.365,-13.255,-6.5407,-40.224,17.027,5.338,-30.844,-4.3707,-22.098,30.979,-60.185
-0.27849,-9.6553,4.8175,-28.792,-28.579,15.767,-13.235,-6.6319,-40.112,16.643,5.9861,-31.471,-4.4213,-22.377,31.487,-60.799
-0.27849,-9.6553,4.8175,-28.792,-28.579,15.767,-13.235,-6.6319,-40.112,16.643,5.9861,-31.471,-4.4213,-22.377,31.487,-60.799
-0.27849,-9.6553,4.8175,-28.792,-28.579,15.767,-13.235,-6.6319,-40.112,16.643,5.9861,-31.471,-4.4213,-22.377,31.487,-60.799
-0.17755,-9.8553,4.8634,-28.745,-28.467,15.468,-13.225,-6.6769,-40.055,16.45,6.3089,-31.783,-4.4448,-22.516,31.739,-61.105
-0.17755,-9.8553,4.8634,-28.745,-28.467,15.468,-13.225,-6.6769,-40.055,16.45,6.3089,-31.783,-4.4448,-22.516,31.739,-61.105
0.025006,-10.253,4.9525,-28.646,-28.243,14.872,-13.208,-6.766,-39.938,16.066,6.9516,-32.403,-4.4883,-22.794,32.241,-61.715
0.025006,-10.253,4.9525,-28.646,-28.243,14.872,-13.208,-6.766,-39.938,16.066,6.9516,-32.403,-4.4883,-22.794,32.241,-61.715
0.12659,-10.451,4.9957,-28.594,-28.13,14.575,-13.2,-6.81,-39.878,15.874,7.2716,-32.711,-4.5083,-22.932,32.491,-62.019
0.12659,-10.451,4.9957,-28.594,-28.13,14.575,-13.2,-6.81,-39.878,15.874,7.2716,-32.711,-4.5083,-22.932,32.491,-62.019
0.22838,-10.649,5.0381,-28.541,-28.017,14.278,-13.192,-6.8537,-39.817,15.681,7.5906,-33.018,-4.527,-23.071,32.741,-62.322
0.22838,-10.649,5.0381,-28.541,-28.017,14.278,-13.192,-6.8537,-39.817,15.681,7.5906,-33.018,-4.527,-23.071,32.741,-62.322
0.33034,-10.845,5.0795,-28.486,-27.903,13.982,-13.185,-6.897,-39.755,15.489,7.9086,-33.323,-4.5445,-23.209,32.989,-62.624
0.33034,-10.845,5.0795,-28.486,-27.903,13.982,-13.185,-6.897,-39.755,15.489,7.9086,-33.323,-4.5445,-23.209,32.989,-62.624
0.43248,-11.041,5.1201,-28.43,-27.789,13.686,-13.178,-6.9399,-39.692,15.296,8.2256,-33.627,-4.5607,-23.346,33.236,-62.926
0.43248,-11.041,5.1201,-28.43,-27.789,13.686,-13.178,-6.9399,-39.692,15.296,8.2256,-33.627,-4.5607,-23.346,33.236,-62.926
0.43248,-11.041,5.1201,-28.43,-27.789,13.686,-13.178,-6.9399,-39.692,15.296,8.2256,-33.627,-4.5607,-23.346,33.236,-62.926
0.53479,-11.236,5.1598,-28.372,-27.674,13.391,-13.171,-6.9825,-39.628,15.104,8.5416,-33.93,-4.5757,-23.484,33.483,-63.226
0.53479,-11.236,5.1598,-28.372,-27.674,13.391,-13.171,-6.9825,-39.628,15.104,8.5416,-33.93,-4.5757,-23.484,33.483,-63.226
0.53479,-11.236,5.1598,-28.372,-27.674,13.391,-13.171,-6.9825,-39.628,15.104,8.5416,-33.93,-4.5757,-23.484,33.483,-63.226
0.73985,-11.624,5.2365,-28.251,-27.443,12.802,-13.16,-7.0666,-39.497,14.719,9.1703,-34.531,-4.602,-23.758,33.973,-63.825
0.73985,-11.624,5.2365,-28.251,-27.443,12.802,-13.16,-7.0666,-39.497,14.719,9.1703,-34.531,-4.602,-23.758,33.973,-63.825
0.73985,-11.624,5.2365,-28.251,-27.443,12.802,-13.16,-7.0666,-39.497,14.719,9.1703,-34.531,-4.602,-23.758,33.973,-63.825
0.84259,-11.816,5.2735,-28.189,-27.327,12.508,-13.155,-7.108,-39.43,14.526,9.483,-34.829,-4.6132,-23.894,34.217,-64.123
0.94546,-12.008,5.3096,-28.125,-27.211,12.215,-13.15,-7.1491,-39.362,14.334,9.7946,-35.126,-4.6231,-24.03,34.46,-64.42
0.94546,-12.008,5.3096,-28.125,-27.211,12.215,-13.15,-7.1491,-39.362,14.334,9.7946,-35.126,-4.6231,-24.03,34.46,-64.42
1.0484,-12.199,5.3448,-28.059,-27.094,11.923,-13.146,-7.1899,-39.293,14.141,10.105,-35.421,-4.6317,-24.166,34.702,-64.715
1.0484,-12.199,5.3448,-28.059,-27.094,11.923,-13.146,-7.1899,-39.293,14.141,10.105,-35.421,-4.6317,-24.166,34.702,-64.715
1.1515,-12.389,5.3792,-27.991,-26.977,11.631,-13.142,-7.2302,-39.223,13.948,10.414,-35.715,-4.639,-24.302,34.942,-65.01
1.1515,-12.389,5.3792,-27.991,-26.977,11.631,-13.142,-7.2302,-39.223,13.948,10.414,-35.715,-4.639,-24.302,34.942,-65.01
1.2547,-12.578,5.4126,-27.922,-26.859,11.34,-13.138,-7.2702,-39.152,13.756,10.722,-36.008,-4.645,-24.437,35.182,-65.304
1.2547,-12.578,5.4126,-27.922,-26.859,11.34,-13.138,-7.2702,-39.152,13.756,10.722,-36.008,-4.645,-24.437,35.182,-65.304
1.3579,-12.766,5.4452,-27.852,-26.741,11.049,-13.135,-7.3098,-39.08,13.563,11.029,-36.299,-4.6497,-24.572,35.421,-65.597
1.3579,-12.766,5.4452,-27.852,-26.741,11.049,-13.135,-7.3098,-39.08,13.563,11.029,-36.299,-4.6497,-24.572,35.421,-65.597
1.3579,-12.766,5.4452,-27.852,-26.741,11.049,-13.135,-7.3098,-39.08,13.563,11.029,-36.299,-4.6497,-24.572,35.421,-65.597
1.4613,-12.953,5.4769,-27.78,-26.623,10.759,-13.133,-7.3489,-39.007,13.371,11.335,-36.588,-4.6531,-24.706,35.658,-65.889
1.4613,-12.953,5.4769,-27.78,-26.623,10.759,-13.133,-7.3489,-39.007,13.371,11.335,-36.588,-4.6531,-24.706,35.658,-65.889
1.4613,-12.953,5.4769,-27.78,-26.623,10.759,-13.133,-7.3489,-39.007,13.371,11.335,-36.588,-4.6531,-24.706,35.658,-65.889
1.5647,-13.139,5.5077,-27.706,-26.504,10.47,-13.13,-7.3877,-38.933,13.179,11.639,-36.876,-4.6551,-24.84,35.895,-66.18
1.5647,-13.139,5.5077,-27.706,-26.504,10.47,-13.13,-7.3877,-38.933,13.179,11.639,-36.876,-4.6551,-24.84,35.895,-66.18
1.7716,-13.509,5.5666,-27.554,-26.265,9.8939,-13.127,-7.4642,-38.782,12.794,12.244,-37.447,-4.6551,-25.106,36.365,-66.758
1.7716,-13.509,5.5666,-27.554,-26.265,9.8939,-13.127,-7.4642,-38.782,12.794,12.244,-37.447,-4.6551,-25.106,36.365,-66.758
1.7716,-13.509,5.5666,-27.554,-26.265,9.8939,-13.127,-7.4642,-38.782,12.794,12.244,-37.447,-4.6551,-25.106,36.365,-66.758
1.8751,-13.692,5.5947,-27.475,-26.145,9.607,-13.126,-7.5018,-38.705,12.602,12.544,-37.73,-4.653,-25.239,36.598,-67.045
1.9787,-13.874,5.6219,-27.395,-26.025,9.3209,-13.125,-7.539,-38.626,12.409,12.843,-38.012,-4.6496,-25.371,36.83,-67.332
1.9787,-13.874,5.6219,-27.395,-26.025,9.3209,-13.125,-7.539,-38.626,12.409,12.843,-38.012,-4.6496,-25.371,36.83,-67.332
2.0822,-14.056,5.6482,-27.314,-25.904,9.0356,-13.124,-7.5758,-38.547,12.217,13.141,-38.292,-4.6448,-25.503,37.061,-67.617
2.0822,-14.056,5.6482,-27.314,-25.904,9.0356,-13.124,-7.5758,-38.547,12.217,13.141,-38.292,-4.6448,-25.503,37.061,-67.617
2.0822,-14.056,5.6482,-27.314,-25.904,9.0356,-13.124,-7.5758,-38.547,12.217,13.141,-38.292,-4.6448,-25.503,37.061,-67.617
2.1858,-14.236,5.6737,-27.23,-25.783,8.7511,-13.124,-7.6122,-38.467,12.025,13.437,-38.57,-4.6386,-25.634,37.29,-67.9
2.1858,-14.236,5.6737,-27.23,-25.783,8.7511,-13.124,-7.6122,-38.467,12.025,13.437,-38.57,-4.6386,-25.634,37.29,-67.9
2.1858,-14.236,5.6737,-27.23,-25.783,8.7511,-13.124,-7.6122,-38.467,12.025,13.437,-38.57,-4.6386,-25.634,37.29,-67.9
2.3928,-14.593,5.7219,-27.059,-25.54,8.1848,-13.125,-7.6837,-38.304,11.641,14.025,-39.121,-4.6219,-25.895,37.746,-68.464
2.3928,-14.593,5.7219,-27.059,-25.54,8.1848,-13.125,-7.6837,-38.304,11.641,14.025,-39.121,-4.6219,-25.895,37.746,-68.464
2.4963,-14.769,5.7447,-26.971,-25.418,7.9029,-13.126,-7.7188,-38.22,11.45,14.317,-39.394,-4.6115,-26.025,37.972,-68.744
2.4963,-14.769,5.7447,-26.971,-25.418,7.9029,-13.126,-7.7188,-38.22,11.45,14.317,-39.394,-4.6115,-26.025,37.972,-68.744
2.4963,-14.769,5.7447,-26.971,-25.418,7.9029,-13.126,-7.7188,-38.22,11.45,14.317,-39.394,-4.6115,-26.025,37.972,-68.744
2.5998,-14.945,5.7666,-26.881,-25.296,7.622,-13.127,-7.7536,-38.136,11.258,14.607,-39.666,-4.5997,-26.154,38.197,-69.023
2.5998,-14.945,5.7666,-26.881,-25.296,7.622,-13.127,-7.7536,-38.136,11.258,14.607,-39.666,-4.5997,-26.154,38.197,-69.023
2.5998,-14.945,5.7666,-26.881,-25.296,7.622,-13.127,-7.7536,-38.136,11.258,14.607,-39.666,-4.5997,-26.154,38.197,-69.023
2.8065,-15.293,5.8077,-26.697,-25.05,7.0629,-13.131,-7.8217,-37.964,10.875,15.183,-40.203,-4.5716,-26.41,38.642,-69.577
2.8065,-15.293,5.8077,-26.697,-25.05,7.0629,-13.131,-7.8217,-37.964,10.875,15.183,-40.203,-4.5716,-26.41,38.642,-69.577
2.9097,-15.465,5.827,-26.603,-24.927,6.7848,-13.133,-7.8552,-37.877,10.684,15.469,-40.47,-4.5555,-26.538,38.863,-69.851
2.9097,-15.465,5.827,-26.603,-24.927,6.7848,-13.133,-7.8552,-37.877,10.684,15.469,-40.47,-4.5555,-26.538,38.863,-69.851
2.9097,-15.465,5.827,-26.603,-24.927,6.7848,-13.133,-7.8552,-37.877,10.684,15.469,-40.47,-4.5555,-26.538,38.863,-69.851
3.0129,-15.636,5.8453,-26.507,-24.803,6.5077,-13.136,-7.8881,-37.788,10.493,15.753,-40.734,-4.5379,-26.665,39.082,-70.125
3.116,-15.805,5.8628,-26.409,-24.679,6.2317,-13.139,-7.9207,-37.698,10.302,16.036,-40.997,-4.5188,-26.791,39.3,-70.396
3.116,-15.805,5.8628,-26.409,-24.679,6.2317,-13.139,-7.9207,-37.698,10.302,16.036,-40.997,-4.5188,-26.791,39.3,-70.396
3.219,-15.974,5.8794,-26.31,-24.555,5.9566,-13.142,-7.9528,-37.608,10.111,16.317,-41.258,-4.4982,-26.916,39.517,-70.667
3.219,-15.974,5.8794,-26.31,-24.555,5.9566,-13.142,-7.9528,-37.608,10.111,16.317,-41.258,-4.4982,-26.916,39.517,-70.667
3.3218,-16.141,5.8951,-26.209,-24.43,5.6826,-13.146,-7.9845,-37.516,9.9206,16.596,-41.517,-4.4762,-27.041,39.732,-70.936
3.3218,-16.141,5.8951,-26.209,-24.43,5.6826,-13.146,-7.9845,-37.516,9.9206,16.596,-41.517,-4.4762,-27.041,39.732,-70.936
3.4245,-16.307,5.9099,-26.106,-24.305,5.4097,-13.15,-8.0157,-37.423,9.7302,16.874,-41.774,-4.4527,-27.166,39.946,-71.203
3.4245,-16.307,5.9099,-26.106,-24.305,5.4097,-13.15,-8.0157,-37.423,9.7302,16.874,-41.774,-4.4527,-27.166,39.946,-71.203
3.5271,-16.471,5.9239,-26.002,-24.18,5.1378,-13.154,-8.0464,-37.329,9.54,17.15,-42.029,-4.4277,-27.289,40.158,-71.469
3.5271,-16.471,5.9239,-26.002,-24.18,5.1378,-13.154,-8.0464,-37.329,9.54,17.15,-42.029,-4.4277,-27.289,40.158,-71.469
3.6296,-16.634,5.937,-25.897,-24.055,4.8671,-13.158,-8.0767,-37.234,9.3499,17.425,-42.282,-4.4012,-27.412,40.369,-71.734
3.7319,-16.796,5.9492,-25.789,-23.929,4.5975,-13.163,-8.1066,-37.138,9.1601,17.697,-42.534,-4.3732,-27.534,40.579,-71.996
3.7319,-16.796,5.9492,-25.789,-23.929,4.5975,-13.163,-8.1066,-37.138,9.1601,17.697,-42.534,-4.3732,-27.534,40.579,-71.996
3.7319,-16.796,5.9492,-25.789,-23.929,4.5975,-13.163,-8.1066,-37.138,9.1601,17.697,-42.534,-4.3732,-27.534,40.579,-71.996
3.834,-16.956,5.9605,-25.68,-23.803,4.3291,-13.168,-8.136,-37.041,8.9705,17.968,-42.784,-4.3437,-27.656,40.787,-72.258
3.834,-16.956,5.9605,-25.68,-23.803,4.3291,-13.168,-8.136,-37.041,8.9705,17.968,-42.784,-4.3437,-27.656,40.787,-72.258
3.834,-16.956,5.9605,-25.68,-23.803,4.3291,-13.168,-8.136,-37.041,8.9705,17.968,-42.784,-4.3437,-27.656,40.787,-72.258
3.9359,-17.115,5.9709,-25.57,-23.677,4.0618,-13.174,-8.1649,-36.943,8.7812,18.237,-43.031,-4.3127,-27.777,40.993,-72.517
3.9359,-17.115,5.9709,-25.57,-23.677,4.0618,-13.174,-8.1649,-36.943,8.7812,18.237,-43.031,-4.3127,-27.777,40.993,-72.517
4.0377,-17.273,5.9805,-25.458,-23.551,3.7957,-13.179,-8.1933,-36.844,8.592,18.505,-43.277,-4.2801,-27.897,41.198,-72.775
4.0377,-17.273,5.9805,-25.458,-23.551,3.7957,-13.179,-8.1933,-36.844,8.592,18.505,-43.277,-4.2801,-27.897,41.198,-72.775
4.0377,-17.273,5.9805,-25.458,-23.551,3.7957,-13.179,-8.1933,-36.844,8.592,18.505,-43.277,-4.2801,-27.897,41.198,-72.775
4.2405,-17.584,5.9971,-25.229,-23.298,3.2672,-13.191,-8.2487,-36.642,8.2145,19.034,-43.763,-4.2105,-28.134,41.603,-73.286
4.2405,-17.584,5.9971,-25.229,-23.298,3.2672,-13.191,-8.2487,-36.642,8.2145,19.034,-43.763,-4.2105,-28.134,41.603,-73.286
4.2405,-17.584,5.9971,-25.229,-23.298,3.2672,-13.191,-8.2487,-36.642,8.2145,19.034,-43.763,-4.2105,-28.134,41.603,-73.286
4.3417,-17.737,6.004,-25.112,-23.171,3.0048,-13.198,-8.2757,-36.54,8.0261,19.296,-44.002,-4.1733,-28.252,41.804,-73.539
4.4425,-17.889,6.0102,-24.993,-23.043,2.7437,-13.204,-8.3022,-36.436,7.838,19.556,-44.24,-4.1346,-28.369,42.002,-73.791
4.4425,-17.889,6.0102,-24.993,-23.043,2.7437,-13.204,-8.3022,-36.436,7.838,19.556,-44.24,-4.1346,-28.369,42.002,-73.791
4.5432,-18.04,6.0154,-24.873,-22.916,2.4839,-13.211,-8.3282,-36.331,7.6502,19.814,-44.476,-4.0944,-28.485,42.199,-74.04
4.5432,-18.04,6.0154,-24.873,-22.916,2.4839,-13.211,-8.3282,-36.331,7.6502,19.814,-44.476,-4.0944,-28.485,42.199,-74.04
4.6435,-18.188,6.0198,-24.751,-22.788,2.2253,-13.218,-8.3537,-36.225,7.4626,20.07,-44.71,-4.0526,-28.6,42.395,-74.288
4.6435,-18.188,6.0198,-24.751,-22.788,2.2253,-13.218,-8.3537,-36.225,7.4626,20.07,-44.71,-4.0526,-28.6,42.395,-74.288
4.7437,-18.336,6.0233,-24.628,-22.66,1.9682,-13.226,-8.3787,-36.119,7.2754,20.325,-44.942,-4.0092,-28.714,42.589,-74.534
4.7437,-18.336,6.0233,-24.628,-22.66,1.9682,-13.226,-8.3787,-36.119,7.2754,20.325,-44.942,-4.0092,-28.714,42.589,-74.534
4.8435,-18.481,6.026,-24.503,-22.532,1.7123,-13.233,-8.4032,-36.011,7.0885,20.577,-45.171,-3.9643,-28.828,42.781,-74.778
4.8435,-18.481,6.026,-24.503,-22.532,1.7123,-13.233,-8.4032,-36.011,7.0885,20.577,-45.171,-3.9643,-28.828,42.781,-74.778
4.9431,-18.626,6.0278,-24.376,-22.404,1.4579,-13.241,-8.4271,-35.901,6.9018,20.828,-45.399,-3.9178,-28.94,42.971,-75.02
4.9431,-18.626,6.0278,-24.376,-22.404,1.4579,-13.241,-8.4271,-35.901,6.9018,20.828,-45.399,-3.9178,-28.94,42.971,-75.02
5.0423,-18.768,6.0288,-24.248,-22.276,1.2048,-13.249,-8.4506,-35.791,6.7155,21.076,-45.624,-3.8697,-29.052,43.16,-75.261
5.0423,-18.768,6.0288,-24.248,-22.276,1.2048,-13.249,-8.4506,-35.791,6.7155,21.076,-45.624,-3.8697,-29.052,43.16,-75.261
5.1413,-18.909,6.0289,-24.118,-22.147,0.95312,-13.258,-8.4735,-35.68,6.5296,21.323,-45.848,-3.82,-29.163,43.347,-75.499
5.2399,-19.049,6.0282,-23.987,-22.019,0.70289,-13.266,-8.496,-35.568,6.344,21.567,-46.069,-3.7688,-29.273,43.532,-75.736
5.2399,-19.049,6.0282,-23.987,-22.019,0.70289,-13.266,-8.496,-35.568,6.344,21.567,-46.069,-3.7688,-29.273,43.532,-75.736
5.3382,-19.186,6.0266,-23.854,-21.89,0.4541,-13.275,-8.5179,-35.454,6.1587,21.81,-46.288,-3.7159,-29.381,43.716,-75.971
5.3382,-19.186,6.0266,-23.854,-21.89,0.4541,-13.275,-8.5179,-35.454,6.1587,21.81,-46.288,-3.7159,-29.381,43.716,-75.971
5.3382,-19.186,6.0266,-23.854,-21.89,0.4541,-13.275,-8.5179,-35.454,6.1587,21.81,-46.288,-3.7159,-29.381,43.716,-75.971
5.3382,-19.186,6.0266,-23.854,-21.89,0.4541,-13.275,-8.5179,-35.454,6.1587,21.81,-46.288,-3.7159,-29.381,43.716,-75.971
5.4362,-19.322,6.0242,-23.719,-21.761,0.20678,-13.284,-8.5392,-35.339,5.9738,22.05,-46.505,-3.6615,-29.489,43.897,-76.203
5.4362,-19.322,6.0242,-23.719,-21.761,0.20678,-13.284,-8.5392,-35.339,5.9738,22.05,-46.505,-3.6615,-29.489,43.897,-76.203
5.5338,-19.457,6.0209,-23.583,-21.632,-0.039054,-13.293,-8.56,-35.224,5.7893,22.289,-46.72,-3.6055,-29.596,44.077,-76.434
5.6311,-19.589,6.0169,-23.445,-21.503,-0.28338,-13.303,-8.5803,-35.107,5.6051,22.525,-46.932,-3.5478,-29.702,44.256,-76.663
5.6311,-19.589,6.0169,-23.445,-21.503,-0.28338,-13.303,-8.5803,-35.107,5.6051,22.525,-46.932,-3.5478,-29.702,44.256,-76.663
5.728,-19.72,6.0119,-23.306,-21.373,-0.52618,-13.312,-8.6001,-34.989,5.4214,22.759,-47.142,-3.4885,-29.807,44.432,-76.889
5.8245,-19.85,6.0062,-23.165,-21.244,-0.76743,-13.322,-8.6192,-34.87,5.2381,22.991,-47.351,-3.4277,-29.91,44.606,-77.114
5.8245,-19.85,6.0062,-23.165,-21.244,-0.76743,-13.322,-8.6192,-34.87,5.2381,22.991,-47.351,-3.4277,-29.91,44.606,-77.114
5.8245,-19.85,6.0062,-23.165,-21.244,-0.76743,-13.322,-8.6192,-34.87,5.2381,22.991,-47.351,-3.4277,-29.91,44.606,-77.114
5.9207,-19.977,5.9996,-23.022,-21.114,-1.0071,-13.332,-8.6379,-34.75,5.0551,23.221,-47.556,-3.3652,-30.013,44.779,-77.336
5.9207,-19.977,5.9996,-23.022,-21.114,-1.0071,-13.332,-8.6379,-34.75,5.0551,23.221,-47.556,-3.3652,-30.013,44.779,-77.336
5.9207,-19.977,5.9996,-23.022,-21.114,-1.0071,-13.332,-8.6379,-34.75,5.0551,23.221,-47.556,-3.3652,-30.013,44.779,-77.336
6.0164,-20.103,5.9921,-22.878,-20.985,-1.2452,-13.342,-8.6559,-34.628,4.8726,23.449,-47.76,-3.3011,-30.115,44.95,-77.557
6.1117,-20.227,5.9839,-22.732,-20.855,-1.4817,-13.352,-8.6734,-34.506,4.6906,23.675,-47.961,-3.2353,-30.215,45.119,-77.775
6.1117,-20.227,5.9839,-22.732,-20.855,-1.4817,-13.352,-8.6734,-34.506,4.6906,23.675,-47.961,-3.2353,-30.215,45.119,-77.775
6.2066,-20.349,5.9748,-22.584,-20.725,-1.7166,-13.363,-8.6904,-34.382,4.509,23.898,-48.161,-3.1679,-30.314,45.286,-77.991
6.2066,-20.349,5.9748,-22.584,-20.725,-1.7166,-13.363,-8.6904,-34.382,4.509,23.898,-48.161,-3.1679,-30.314,45.286,-77.991
6.2066,-20.349,5.9748,-22.584,-20.725,-1.7166,-13.363,-8.6904,-34.382,4.509,23.898,-48.161,-3.1679,-30.314,45.286,-77.991
6.3011,-20.469,5.965,-22.435,-20.595,-1.9498,-13.373,-8.7067,-34.258,4.3278,24.12,-48.357,-3.0989,-30.413,45.451,-78.205
6.3011,-20.469,5.965,-22.435,-20.595,-1.9498,-13.373,-8.7067,-34.258,4.3278,24.12,-48.357,-3.0989,-30.413,45.451,-78.205
6.3952,-20.588,5.9543,-22.285,-20.465,-2.1814,-13.384,-8.7225,-34.132,4.1471,24.339,-48.552,-3.0283,-30.51,45.614,-78.416
6.3952,-20.588,5.9543,-22.285,-20.465,-2.1814,-13.384,-8.7225,-34.132,4.1471,24.339,-48.552,-3.0283,-30.51,45.614,-78.416
6.4888,-20.705,5.9427,-22.132,-20.335,-2.4113,-13.395,-8.7377,-34.005,3.9669,24.556,-48.744,-2.956,-30.606,45.775,-78.626
6.4888,-20.705,5.9427,-22.132,-20.335,-2.4113,-13.395,-8.7377,-34.005,3.9669,24.556,-48.744,-2.956,-30.606,45.775,-78.626
6.5819,-20.819,5.9304,-21.978,-20.205,-2.6395,-13.406,-8.7523,-33.877,3.7872,24.77,-48.934,-2.8821,-30.7,45.935,-78.833
6.5819,-20.819,5.9304,-21.978,-20.205,-2.6395,-13.406,-8.7523,-33.877,3.7872,24.77,-48.934,-2.8821,-30.7,45.935,-78.833
6.7667,-21.043,5.9034,-21.666,-19.945,-3.0907,-13.429,-8.7797,-33.617,3.4292,25.193,-49.307,-2.7293,-30.886,46.247,-79.24
