-28.966,39.769,9.6908,2.2071,-36.667,49.831,-17.432,11.02,-8.1369,26.582,9.9899,10.684,-5.2942,28.232,15.495,20.994
-29.178,40.006,9.5569,2.3252,-36.932,50.08,-17.609,11.184,-8.4194,26.892,9.7882,10.938,-5.5865,28.535,15.418,21.33
-29.178,40.006,9.5569,2.3252,-36.932,50.08,-17.609,11.184,-8.4194,26.892,9.7882,10.938,-5.5865,28.535,15.418,21.33
-29.178,40.006,9.5569,2.3252,-36.932,50.08,-17.609,11.184,-8.4194,26.892,9.7882,10.938,-5.5865,28.535,15.418,21.33
-29.392,40.243,9.4223,2.4438,-37.197,50.33,-17.785,11.348,-8.7025,27.201,9.586,11.193,-5.8787,28.837,15.34,21.667
-29.606,40.481,9.2871,2.5629,-37.462,50.579,-17.961,11.512,-8.986,27.511,9.3832,11.449,-6.1707,29.14,15.262,22.004
-29.821,40.72,9.1513,2.6826,-37.726,50.829,-18.135,11.675,-9.2701,27.821,9.18,11.705,-6.4625,29.442,15.185,22.341
-29.821,40.72,9.1513,2.6826,-37.726,50.829,-18.135,11.675,-9.2701,27.821,9.18,11.705,-6.4625,29.442,15.185,22.341
-29.821,40.72,9.1513,2.6826,-37.726,50.829,-18.135,11.675,-9.2701,27.821,9.18,11.705,-6.4625,29.442,15.185,22.341
-30.037,40.959,9.0149,2.8028,-37.991,51.079,-18.31,11.839,-9.5547,28.131,8.9763,11.961,-6.754,29.744,15.106,22.68
-30.037,40.959,9.0149,2.8028,-37.991,51.079,-18.31,11.839,-9.5547,28.131,8.9763,11.961,-6.754,29.744,15.106,22.68
-30.037,40.959,9.0149,2.8028,-37.991,51.079,-18.31,11.839,-9.5547,28.131,8.9763,11.961,-6.754,29.744,15.106,22.68
-30.254,41.199,8.878,2.9235,-38.255,51.329,-18.483,12.003,-9.8397,28.442,8.7722,12.218,-7.0454,30.046,15.028,23.019
-30.254,41.199,8.878,2.9235,-38.255,51.329,-18.483,12.003,-9.8397,28.442,8.7722,12.218,-7.0454,30.046,15.028,23.019
-30.254,41.199,8.878,2.9235,-38.255,51.329,-18.483,12.003,-9.8397,28.442,8.7722,12.218,-7.0454,30.046,15.028,23.019
-30.472,41.44,8.7404,3.0448,-38.519,51.58,-18.656,12.166,-10.125,28.753,8.5675,12.476,-7.3365,30.347,14.949,23.358
-30.472,41.44,8.7404,3.0448,-38.519,51.58,-18.656,12.166,-10.125,28.753,8.5675,12.476,-7.3365,30.347,14.949,23.358
-30.91,41.922,8.4637,3.2887,-39.047,52.081,-18.999,12.493,-10.697,29.375,8.1569,12.992,-7.9179,30.949,14.792,24.039
-30.91,41.922,8.4637,3.2887,-39.047,52.081,-18.999,12.493,-10.697,29.375,8.1569,12.992,-7.9179,30.949,14.792,24.039
-31.13,42.164,8.3245,3.4114,-39.31,52.332,-19.17,12.656,-10.984,29.687,7.951,13.251,-8.2082,31.25,14.713,24.38
-31.13,42.164,8.3245,3.4114,-39.31,52.332,-19.17,12.656,-10.984,29.687,7.951,13.251,-8.2082,31.25,14.713,24.38
-31.351,42.407,8.1847,3.5345,-39.574,52.583,-19.339,12.819,-11.271,29.998,7.7446,13.51,-8.4982,31.551,14.633,24.722
-31.351,42.407,8.1847,3.5345,-39.574,52.583,-19.339,12.819,-11.271,29.998,7.7446,13.51,-8.4982,31.551,14.633,24.722
-31.572,42.65,8.0445,3.6581,-39.836,52.834,-19.509,12.981,-11.559,30.31,7.5378,13.77,-8.7879,31.851,14.554,25.064
-31.795,42.893,7.9037,3.7822,-40.099,53.086,-19.677,13.144,-11.847,30.622,7.3306,14.03,-9.0773,32.15,14.474,25.407
-31.795,42.893,7.9037,3.7822,-40.099,53.086,-19.677,13.144,-11.847,30.622,7.3306,14.03,-9.0773,32.15,14.474,25.407
-32.018,43.137,7.7624,3.9068,-40.361,53.337,-19.845,13.306,-12.135,30.934,7.123,14.29,-9.3663,32.45,14.395,25.75
-32.018,43.137,7.7624,3.9068,-40.361,53.337,-19.845,13.306,-12.135,30.934,7.123,14.29,-9.3663,32.45,14.395,25.75
-32.018,43.137,7.7624,3.9068,-40.361,53.337,-19.845,13.306,-12.135,30.934,7.123,14.29,-9.3663,32.45,14.395,25.75
-32.242,43.382,7.6206,4.0317,-40.623,53.588,-20.011,13.468,-12.423,31.246,6.915,14.551,-9.655,32.749,14.315,26.094
-32.242,43.382,7.6206,4.0317,-40.623,53.588,-20.011,13.468,-12.423,31.246,6.915,14.551,-9.655,32.749,14.315,26.094
-32.242,43.382,7.6206,4.0317,-40.623,53.588,-20.011,13.468,-12.423,31.246,6.915,14.551,-9.655,32.749,14.315,26.094
-32.467,43.626,7.4784,4.1571,-40.885,53.84,-20.177,13.63,-12.712,31.558,6.7067,14.812,-9.9434,33.048,14.234,26.439
-32.467,43.626,7.4784,4.1571,-40.885,53.84,-20.177,13.63,-12.712,31.558,6.7067,14.812,-9.9434,33.048,14.234,26.439
-32.692,43.872,7.3356,4.283,-41.146,54.091,-20.343,13.791,-13.001,31.871,6.4979,15.074,-10.231,33.346,14.154,26.783
-32.692,43.872,7.3356,4.283,-41.146,54.091,-20.343,13.791,-13.001,31.871,6.4979,15.074,-10.231,33.346,14.154,26.783
-32.918,44.117,7.1924,4.4092,-41.407,54.342,-20.507,13.953,-13.291,32.183,6.2889,15.336,-10.519,33.644,14.074,27.129
-32.918,44.117,7.1924,4.4092,-41.407,54.342,-20.507,13.953,-13.291,32.183,6.2889,15.336,-10.519,33.644,14.074,27.129
-32.918,44.117,7.1924,4.4092,-41.407,54.342,-20.507,13.953,-13.291,32.183,6.2889,15.336,-10.519,33.644,14.074,27.129
-33.371,44.609,6.9046,4.6629,-41.928,54.845,-20.834,14.274,-13.87,32.808,5.8697,15.86,-11.093,34.239,13.912,27.82
-33.371,44.609,6.9046,4.6629,-41.928,54.845,-20.834,14.274,-13.87,32.808,5.8697,15.86,-11.093,34.239,13.912,27.82
-33.599,44.856,6.76,4.7904,-42.188,55.096,-20.996,14.434,-14.16,33.12,5.6596,16.123,-11.379,34.536,13.831,28.167
-33.599,44.856,6.76,4.7904,-42.188,55.096,-20.996,14.434,-14.16,33.12,5.6596,16.123,-11.379,34.536,13.831,28.167
-33.599,44.856,6.76,4.7904,-42.188,55.096,-20.996,14.434,-14.16,33.12,5.6596,16.123,-11.379,34.536,13.831,28.167
-33.827,45.103,6.615,4.9182,-42.447,55.348,-21.157,14.594,-14.451,33.433,5.4492,16.386,-11.665,34.833,13.75,28.514
-33.827,45.103,6.615,4.9182,-42.447,55.348,-21.157,14.594,-14.451,33.433,5.4492,16.386,-11.665,34.833,13.75,28.514
-34.285,45.597,6.3238,5.175,-42.964,55.85,-21.477,14.913,-15.032,34.057,5.0275,16.913,-12.236,35.424,13.587,29.209
-34.285,45.597,6.3238,5.175,-42.964,55.85,-21.477,14.913,-15.032,34.057,5.0275,16.913,-12.236,35.424,13.587,29.209
-34.285,45.597,6.3238,5.175,-42.964,55.85,-21.477,14.913,-15.032,34.057,5.0275,16.913,-12.236,35.424,13.587,29.209
-34.514,45.845,6.1775,5.304,-43.222,56.101,-21.636,15.071,-15.322,34.369,4.8162,17.177,-12.52,35.719,13.506,29.557
-34.514,45.845,6.1775,5.304,-43.222,56.101,-21.636,15.071,-15.322,34.369,4.8162,17.177,-12.52,35.719,13.506,29.557
-34.514,45.845,6.1775,5.304,-43.222,56.101,-21.636,15.071,-15.322,34.369,4.8162,17.177,-12.52,35.719,13.506,29.557
-34.745,46.093,6.0309,5.4332,-43.479,56.351,-21.794,15.23,-15.613,34.682,4.6046,17.441,-12.804,36.014,13.424,29.905
-34.975,46.341,5.8839,5.5629,-43.736,56.602,-21.951,15.388,-15.904,34.994,4.3927,17.705,-13.088,36.308,13.343,30.254
-34.975,46.341,5.8839,5.5629,-43.736,56.602,-21.951,15.388,-15.904,34.994,4.3927,17.705,-13.088,36.308,13.343,30.254
-35.206,46.589,5.7365,5.6929,-43.992,56.852,-22.107,15.545,-16.195,35.306,4.1807,17.969,-13.371,36.601,13.261,30.603
-35.206,46.589,5.7365,5.6929,-43.992,56.852,-22.107,15.545,-16.195,35.306,4.1807,17.969,-13.371,36.601,13.261,30.603
-35.438,46.838,5.5887,5.8232,-44.248,57.103,-22.262,15.702,-16.487,35.617,3.9683,18.234,-13.653,36.895,13.179,30.952
-35.438,46.838,5.5887,5.8232,-44.248,57.103,-22.262,15.702,-16.487,35.617,3.9683,18.234,-13.653,36.895,13.179,30.952
-35.669,47.087,5.4406,5.9538,-44.503,57.353,-22.417,15.859,-16.778,35.929,3.7557,18.499,-13.935,37.187,13.096,31.302
-35.669,47.087,5.4406,5.9538,-44.503,57.353,-22.417,15.859,-16.778,35.929,3.7557,18.499,-13.935,37.187,13.096,31.302
-35.902,47.335,5.2922,6.0847,-44.758,57.602,-22.57,16.015,-17.069,36.241,3.5429,18.764,-14.217,37.479,13.014,31.651
-35.902,47.335,5.2922,6.0847,-44.758,57.602,-22.57,16.015,-17.069,36.241,3.5429,18.764,-14.217,37.479,13.014,31.651
-36.134,47.584,5.1433,6.2159,-45.012,57.852,-22.723,16.171,-17.361,36.552,3.3299,19.029,-14.497,37.771,12.932,32.002
-36.134,47.584,5.1433,6.2159,-45.012,57.852,-22.723,16.171,-17.361,36.552,3.3299,19.029,-14.497,37.771,12.932,32.002
-36.367,47.833,4.9942,6.3475,-45.265,58.101,-22.875,16.326,-17.652,36.863,3.1167,19.294,-14.778,38.061,12.849,32.352
-36.367,47.833,4.9942,6.3475,-45.265,58.101,-22.875,16.326,-17.652,36.863,3.1167,19.294,-14.778,38.061,12.849,32.352
-36.6,48.083,4.8448,6.4793,-45.518,58.35,-23.026,16.48,-17.943,37.174,2.9032,19.56,-15.057,38.352,12.767,32.703
-36.834,48.332,4.695,6.6114,-45.77,58.599,-23.176,16.634,-18.234,37.485,2.6896,19.825,-15.336,38.641,12.684,33.053
-36.834,48.332,4.695,6.6114,-45.77,58.599,-23.176,16.634,-18.234,37.485,2.6896,19.825,-15.336,38.641,12.684,33.053
-36.834,48.332,4.695,6.6114,-45.77,58.599,-23.176,16.634,-18.234,37.485,2.6896,19.825,-15.336,38.641,12.684,33.053
-37.067,48.581,4.5449,6.7437,-46.021,58.847,-23.325,16.788,-18.526,37.795,2.4758,20.091,-15.615,38.931,12.601,33.404
-37.067,48.581,4.5449,6.7437,-46.021,58.847,-23.325,16.788,-18.526,37.795,2.4758,20.091,-15.615,38.931,12.601,33.404
-37.301,48.83,4.3946,6.8764,-46.272,59.095,-23.473,16.941,-18.817,38.106,2.2619,20.357,-15.893,39.219,12.518,33.756
-37.301,48.83,4.3946,6.8764,-46.272,59.095,-23.473,16.941,-18.817,38.106,2.2619,20.357,-15.893,39.219,12.518,33.756
-37.535,49.08,4.2439,7.0092,-46.522,59.343,-23.62,17.093,-19.108,38.416,2.0477,20.623,-16.17,39.507,12.435,34.107
-37.769,49.329,4.093,7.1424,-46.771,59.59,-23.766,17.245,-19.399,38.725,1.8335,20.889,-16.447,39.794,12.352,34.459
-37.769,49.329,4.093,7.1424,-46.771,59.59,-23.766,17.245,-19.399,38.725,1.8335,20.889,-16.447,39.794,12.352,34.459
-37.769,49.329,4.093,7.1424,-46.771,59.59,-23.766,17.245,-19.399,38.725,1.8335,20.889,-16.447,39.794,12.352,34.459
-38.004,49.578,3.9418,7.2757,-47.02,59.837,-23.911,17.396,-19.69,39.035,1.6191,21.154,-16.722,40.081,12.269,34.81
-38.004,49.578,3.9418,7.2757,-47.02,59.837,-23.911,17.396,-19.69,39.035,1.6191,21.154,-16.722,40.081,12.269,34.81
-38.238,49.827,3.7903,7.4093,-47.268,60.084,-24.056,17.546,-19.981,39.344,1.4045,21.42,-16.998,40.367,12.186,35.162
-38.238,49.827,3.7903,7.4093,-47.268,60.084,-24.056,17.546,-19.981,39.344,1.4045,21.42,-16.998,40.367,12.186,35.162
-38.238,49.827,3.7903,7.4093,-47.268,60.084,-24.056,17.546,-19.981,39.344,1.4045,21.42,-16.998,40.367,12.186,35.162
-38.473,50.077,3.6387,7.5432,-47.515,60.33,-24.199,17.696,-20.271,39.652,1.1899,21.687,-17.272,40.652,12.103,35.514
-38.473,50.077,3.6387,7.5432,-47.515,60.33,-24.199,17.696,-20.271,39.652,1.1899,21.687,-17.272,40.652,12.103,35.514
-38.943,50.575,3.3346,7.8114,-48.007,60.821,-24.483,17.994,-20.852,40.269,0.76029,22.219,-17.819,41.22,11.936,36.218
-38.943,50.575,3.3346,7.8114,-48.007,60.821,-24.483,17.994,-20.852,40.269,0.76029,22.219,-17.819,41.22,11.936,36.218
-39.178,50.824,3.1822,7.9459,-48.251,61.065,-24.623,18.142,-21.142,40.576,0.54535,22.485,-18.091,41.503,11.853,36.571
-39.178,50.824,3.1822,7.9459,-48.251,61.065,-24.623,18.142,-21.142,40.576,0.54535,22.485,-18.091,41.503,11.853,36.571
-39.178,50.824,3.1822,7.9459,-48.251,61.065,-24.623,18.142,-21.142,40.576,0.54535,22.485,-18.091,41.503,11.853,36.571
-39.413,51.072,3.0296,8.0805,-48.495,61.309,-24.763,18.289,-21.432,40.883,0.33033,22.751,-18.363,41.786,11.769,36.923
-39.413,51.072,3.0296,8.0805,-48.495,61.309,-24.763,18.289,-21.432,40.883,0.33033,22.751,-18.363,41.786,11.769,36.923
-39.413,51.072,3.0296,8.0805,-48.495,61.309,-24.763,18.289,-21.432,40.883,0.33033,22.751,-18.363,41.786,11.769,36.923
-39.648,51.321,2.8768,8.2153,-48.738,61.553,-24.901,18.435,-21.722,41.19,0.11525,23.017,-18.634,42.068,11.686,37.275
-39.648,51.321,2.8768,8.2153,-48.738,61.553,-24.901,18.435,-21.722,41.19,0.11525,23.017,-18.634,42.068,11.686,37.275
-39.648,51.321,2.8768,8.2153,-48.738,61.553,-24.901,18.435,-21.722,41.19,0.11525,23.017,-18.634,42.068,11.686,37.275
-40.118,51.818,2.5706,8.4854,-49.222,62.039,-25.175,18.726,-22.3,41.802,-0.31509,23.548,-19.173,42.629,11.518,37.98
-40.118,51.818,2.5706,8.4854,-49.222,62.039,-25.175,18.726,-22.3,41.802,-0.31509,23.548,-19.173,42.629,11.518,37.98
-40.118,51.818,2.5706,8.4854,-49.222,62.039,-25.175,18.726,-22.3,41.802,-0.31509,23.548,-19.173,42.629,11.518,37.98
-40.353,52.066,2.4172,8.6207,-49.462,62.281,-25.311,18.87,-22.589,42.107,-0.53032,23.814,-19.442,42.908,11.435,38.333
-40.353,52.066,2.4172,8.6207,-49.462,62.281,-25.311,18.87,-22.589,42.107,-0.53032,23.814,-19.442,42.908,11.435,38.333
-40.588,52.314,2.2637,8.7562,-49.702,62.523,-25.445,19.014,-22.877,42.412,-0.74557,24.08,-19.71,43.187,11.351,38.685
-40.588,52.314,2.2637,8.7562,-49.702,62.523,-25.445,19.014,-22.877,42.412,-0.74557,24.08,-19.71,43.187,11.351,38.685
-40.822,52.561,2.11,8.8918,-49.94,62.764,-25.579,19.156,-23.165,42.717,-0.96084,24.346,-19.977,43.465,11.267,39.038
-40.822,52.561,2.11,8.8918,-49.94,62.764,-25.579,19.156,-23.165,42.717,-0.96084,24.346,-19.977,43.465,11.267,39.038
-40.822,52.561,2.11,8.8918,-49.94,62.764,-25.579,19.156,-23.165,42.717,-0.96084,24.346,-19.977,43.465,11.267,39.038
-41.292,53.056,1.8022,9.1633,-50.414,63.243,-25.842,19.44,-23.741,43.324,-1.3914,24.876,-20.508,44.018,11.1,39.743
-41.292,53.056,1.8022,9.1633,-50.414,63.243,-25.842,19.44,-23.741,43.324,-1.3914,24.876,-20.508,44.018,11.1,39.743
-41.526,53.302,1.6481,9.2993,-50.65,63.483,-25.973,19.58,-24.028,43.627,-1.6067,25.142,-20.773,44.294,11.016,40.095
-41.526,53.302,1.6481,9.2993,-50.65,63.483,-25.973,19.58,-24.028,43.627,-1.6067,25.142,-20.773,44.294,11.016,40.095
-41.76,53.549,1.4939,9.4354,-50.885,63.721,-26.102,19.719,-24.314,43.929,-1.8219,25.407,-21.036,44.568,10.933,40.447
-41.76,53.549,1.4939,9.4354,-50.885,63.721,-26.102,19.719,-24.314,43.929,-1.8219,25.407,-21.036,44.568,10.933,40.447
-41.994,53.795,1.3395,9.5716,-51.118,63.959,-26.23,19.858,-24.6,44.23,-2.0371,25.672,-21.299,44.842,10.849,40.799
-41.994,53.795,1.3395,9.5716,-51.118,63.959,-26.23,19.858,-24.6,44.23,-2.0371,25.672,-21.299,44.842,10.849,40.799
-42.228,54.041,1.1851,9.7078,-51.351,64.196,-26.358,19.996,-24.886,44.532,-2.2523,25.937,-21.561,45.115,10.765,41.151
-42.228,54.041,1.1851,9.7078,-51.351,64.196,-26.358,19.996,-24.886,44.532,-2.2523,25.937,-21.561,45.115,10.765,41.151
-42.461,54.286,1.0305,9.8442,-51.583,64.432,-26.484,20.133,-25.172,44.832,-2.4674,26.201,-21.822,45.387,10.681,41.503
-42.695,54.531,0.87589,9.9806,-51.813,64.667,-26.609,20.269,-25.456,45.132,-2.6825,26.466,-22.082,45.658,10.598,41.855
-42.695,54.531,0.87589,9.9806,-51.813,64.667,-26.609,20.269,-25.456,45.132,-2.6825,26.466,-22.082,45.658,10.598,41.855
-42.695,54.531,0.87589,9.9806,-51.813,64.667,-26.609,20.269,-25.456,45.132,-2.6825,26.466,-22.082,45.658,10.598,41.855
-42.927,54.776,0.72117,10.117,-52.043,64.902,-26.733,20.404,-25.741,45.431,-2.8974,26.73,-22.341,45.928,10.514,42.207
-42.927,54.776,0.72117,10.117,-52.043,64.902,-26.733,20.404,-25.741,45.431,-2.8974,26.73,-22.341,45.928,10.514,42.207
-43.16,55.02,0.56637,10.254,-52.271,65.136,-26.856,20.538,-26.025,45.729,-3.1123,26.994,-22.599,46.198,10.431,42.558
-43.16,55.02,0.56637,10.254,-52.271,65.136,-26.856,20.538,-26.025,45.729,-3.1123,26.994,-22.599,46.198,10.431,42.558
-43.392,55.264,0.41152,10.39,-52.498,65.37,-26.977,20.672,-26.308,46.027,-3.3271,27.257,-22.856,46.466,10.347,42.91
-43.392,55.264,0.41152,10.39,-52.498,65.37,-26.977,20.672,-26.308,46.027,-3.3271,27.257,-22.856,46.466,10.347,42.91
-43.624,55.507,0.25661,10.527,-52.724,65.602,-27.098,20.804,-26.591,46.324,-3.5418,27.521,-23.113,46.734,10.263,43.261
-43.624,55.507,0.25661,10.527,-52.724,65.602,-27.098,20.804,-26.591,46.324,-3.5418,27.521,-23.113,46.734,10.263,43.261
-43.856,55.75,0.10166,10.664,-52.949,65.834,-27.218,20.935,-26.873,46.62,-3.7564,27.784,-23.368,47,10.18,43.612
-43.856,55.75,0.10166,10.664,-52.949,65.834,-27.218,20.935,-26.873,46.62,-3.7564,27.784,-23.368,47,10.18,43.612
-44.087,55.992,-0.053337,10.8,-53.173,66.064,-27.336,21.066,-27.154,46.916,-3.9709,28.047,-23.622,47.266,10.096,43.963
-44.087,55.992,-0.053337,10.8,-53.173,66.064,-27.336,21.066,-27.154,46.916,-3.9709,28.047,-23.622,47.266,10.096,43.963
-44.318,56.234,-0.20836,10.937,-53.396,66.294,-27.454,21.196,-27.435,47.211,-4.1852,28.31,-23.876,47.531,10.013,44.313
-44.318,56.234,-0.20836,10.937,-53.396,66.294,-27.454,21.196,-27.435,47.211,-4.1852,28.31,-23.876,47.531,10.013,44.313
-44.318,56.234,-0.20836,10.937,-53.396,66.294,-27.454,21.196,-27.435,47.211,-4.1852,28.31,-23.876,47.531,10.013,44.313
-44.548,56.475,-0.3634,11.074,-53.618,66.524,-27.57,21.324,-27.716,47.505,-4.3994,28.572,-24.128,47.794,9.9298,44.664
-44.778,56.716,-0.51845,11.211,-53.838,66.752,-27.685,21.452,-27.996,47.798,-4.6135,28.834,-24.38,48.057,9.8466,45.014
-44.778,56.716,-0.51845,11.211,-53.838,66.752,-27.685,21.452,-27.996,47.798,-4.6135,28.834,-24.38,48.057,9.8466,45.014
-45.007,56.956,-0.67351,11.347,-54.057,66.979,-27.799,21.578,-28.275,48.091,-4.8274,29.096,-24.63,48.319,9.7634,45.363
-45.236,57.196,-0.82856,11.484,-54.275,67.206,-27.912,21.704,-28.553,48.383,-5.0411,29.357,-24.879,48.58,9.6804,45.713
-45.236,57.196,-0.82856,11.484,-54.275,67.206,-27.912,21.704,-28.553,48.383,-5.0411,29.357,-24.879,48.58,9.6804,45.713
-45.236,57.196,-0.82856,11.484,-54.275,67.206,-27.912,21.704,-28.553,48.383,-5.0411,29.357,-24.879,48.58,9.6804,45.713
-45.465,57.435,-0.9836,11.621,-54.492,67.431,-28.024,21.828,-28.831,48.674,-5.2546,29.619,-25.128,48.84,9.5974,46.062
-45.465,57.435,-0.9836,11.621,-54.492,67.431,-28.024,21.828,-28.831,48.674,-5.2546,29.619,-25.128,48.84,9.5974,46.062
-45.692,57.673,-1.1386,11.758,-54.707,67.656,-28.135,21.952,-29.108,48.964,-5.4679,29.879,-25.375,49.098,9.5145,46.411
-45.692,57.673,-1.1386,11.758,-54.707,67.656,-28.135,21.952,-29.108,48.964,-5.4679,29.879,-25.375,49.098,9.5145,46.411
-45.92,57.911,-1.2936,11.894,-54.921,67.879,-28.244,22.074,-29.384,49.253,-5.6811,30.14,-25.621,49.356,9.4317,46.76
-45.92,57.911,-1.2936,11.894,-54.921,67.879,-28.244,22.074,-29.384,49.253,-5.6811,30.14,-25.621,49.356,9.4317,46.76
-45.92,57.911,-1.2936,11.894,-54.921,67.879,-28.244,22.074,-29.384,49.253,-5.6811,30.14,-25.621,49.356,9.4317,46.76
-46.146,58.148,-1.4486,12.031,-55.134,68.102,-28.353,22.196,-29.66,49.542,-5.894,30.4,-25.866,49.613,9.3491,47.108
-46.146,58.148,-1.4486,12.031,-55.134,68.102,-28.353,22.196,-29.66,49.542,-5.894,30.4,-25.866,49.613,9.3491,47.108
-46.146,58.148,-1.4486,12.031,-55.134,68.102,-28.353,22.196,-29.66,49.542,-5.894,30.4,-25.866,49.613,9.3491,47.108
-46.598,58.62,-1.7583,12.304,-55.556,68.544,-28.566,22.435,-30.208,50.116,-6.3192,30.918,-26.353,50.123,9.1841,47.803
-46.598,58.62,-1.7583,12.304,-55.556,68.544,-28.566,22.435,-30.208,50.116,-6.3192,30.918,-26.353,50.123,9.1841,47.803
-46.598,58.62,-1.7583,12.304,-55.556,68.544,-28.566,22.435,-30.208,50.116,-6.3192,30.918,-26.353,50.123,9.1841,47.803
-46.822,58.855,-1.9131,12.44,-55.764,68.764,-28.671,22.553,-30.482,50.401,-6.5314,31.177,-26.595,50.377,9.1017,48.15
-47.046,59.089,-2.0678,12.577,-55.972,68.983,-28.774,22.67,-30.754,50.686,-6.7434,31.436,-26.836,50.629,9.0196,48.497
-47.046,59.089,-2.0678,12.577,-55.972,68.983,-28.774,22.67,-30.754,50.686,-6.7434,31.436,-26.836,50.629,9.0196,48.497
-47.27,59.323,-2.2224,12.713,-56.178,69.2,-28.877,22.786,-31.026,50.97,-6.9551,31.694,-27.076,50.881,8.9375,48.843
-47.27,59.323,-2.2224,12.713,-56.178,69.2,-28.877,22.786,-31.026,50.97,-6.9551,31.694,-27.076,50.881,8.9375,48.843
-47.493,59.556,-2.377,12.849,-56.383,69.417,-28.978,22.901,-31.296,51.253,-7.1665,31.951,-27.314,51.131,8.8556,49.189
-47.493,59.556,-2.377,12.849,-56.383,69.417,-28.978,22.901,-31.296,51.253,-7.1665,31.951,-27.314,51.131,8.8556,49.189
-47.493,59.556,-2.377,12.849,-56.383,69.417,-28.978,22.901,-31.296,51.253,-7.1665,31.951,-27.314,51.131,8.8556,49.189
-47.714,59.788,-2.5314,12.986,-56.586,69.632,-29.078,23.015,-31.566,51.535,-7.3777,32.208,-27.552,51.38,8.7739,49.535
-47.714,59.788,-2.5314,12.986,-56.586,69.632,-29.078,23.015,-31.566,51.535,-7.3777,32.208,-27.552,51.38,8.7739,49.535
-47.936,60.019,-2.6858,13.122,-56.788,69.846,-29.177,23.127,-31.835,51.816,-7.5886,32.464,-27.788,51.628,8.6923,49.88
-47.936,60.019,-2.6858,13.122,-56.788,69.846,-29.177,23.127,-31.835,51.816,-7.5886,32.464,-27.788,51.628,8.6923,49.88
-47.936,60.019,-2.6858,13.122,-56.788,69.846,-29.177,23.127,-31.835,51.816,-7.5886,32.464,-27.788,51.628,8.6923,49.88
-48.376,60.479,-2.9941,13.393,-57.188,70.272,-29.372,23.349,-32.37,52.374,-8.0094,32.976,-28.257,52.121,8.5296,50.568
-48.376,60.479,-2.9941,13.393,-57.188,70.272,-29.372,23.349,-32.37,52.374,-8.0094,32.976,-28.257,52.121,8.5296,50.568
-48.594,60.708,-3.1481,13.529,-57.386,70.483,-29.467,23.458,-32.636,52.652,-8.2194,33.231,-28.489,52.366,8.4485,50.912
-48.594,60.708,-3.1481,13.529,-57.386,70.483,-29.467,23.458,-32.636,52.652,-8.2194,33.231,-28.489,52.366,8.4485,50.912
-48.812,60.936,-3.302,13.664,-57.582,70.693,-29.561,23.565,-32.902,52.929,-8.429,33.486,-28.721,52.609,8.3676,51.255
-48.812,60.936,-3.302,13.664,-57.582,70.693,-29.561,23.565,-32.902,52.929,-8.429,33.486,-28.721,52.609,8.3676,51.255
-49.029,61.163,-3.4557,13.8,-57.776,70.901,-29.654,23.672,-33.166,53.205,-8.6383,33.74,-28.951,52.852,8.2869,51.598
-49.029,61.163,-3.4557,13.8,-57.776,70.901,-29.654,23.672,-33.166,53.205,-8.6383,33.74,-28.951,52.852,8.2869,51.598
-49.246,61.389,-3.6092,13.935,-57.97,71.109,-29.746,23.777,-33.429,53.479,-8.8472,33.993,-29.18,53.093,8.2064,51.94
-49.461,61.614,-3.7626,14.07,-58.161,71.315,-29.836,23.881,-33.691,53.753,-9.0558,34.246,-29.408,53.333,8.1261,52.281
-49.461,61.614,-3.7626,14.07,-58.161,71.315,-29.836,23.881,-33.691,53.753,-9.0558,34.246,-29.408,53.333,8.1261,52.281
-49.675,61.838,-3.9159,14.205,-58.351,71.52,-29.926,23.984,-33.953,54.026,-9.264,34.498,-29.635,53.572,8.0461,52.622
-49.675,61.838,-3.9159,14.205,-58.351,71.52,-29.926,23.984,-33.953,54.026,-9.264,34.498,-29.635,53.572,8.0461,52.622
-49.675,61.838,-3.9159,14.205,-58.351,71.52,-29.926,23.984,-33.953,54.026,-9.264,34.498,-29.635,53.572,8.0461,52.622
-49.889,62.062,-4.0689,14.34,-58.54,71.724,-30.014,24.086,-34.213,54.297,-9.4718,34.75,-29.86,53.81,7.9662,52.962
-49.889,62.062,-4.0689,14.34,-58.54,71.724,-30.014,24.086,-34.213,54.297,-9.4718,34.75,-29.86,53.81,7.9662,52.962
-49.889,62.062,-4.0689,14.34,-58.54,71.724,-30.014,24.086,-34.213,54.297,-9.4718,34.75,-29.86,53.81,7.9662,52.962
-50.101,62.284,-4.2218,14.474,-58.727,71.926,-30.1,24.186,-34.472,54.567,-9.6792,35.001,-30.084,54.046,7.8865,53.302
-50.313,62.506,-4.3744,14.609,-58.912,72.127,-30.186,24.285,-34.73,54.836,-9.8863,35.251,-30.307,54.281,7.8071,53.641
-50.313,62.506,-4.3744,14.609,-58.912,72.127,-30.186,24.285,-34.73,54.836,-9.8863,35.251,-30.307,54.281,7.8071,53.641
-50.523,62.726,-4.5269,14.743,-59.096,72.327,-30.27,24.383,-34.987,55.104,-10.093,35.501,-30.529,54.515,7.728,53.98
-50.523,62.726,-4.5269,14.743,-59.096,72.327,-30.27,24.383,-34.987,55.104,-10.093,35.501,-30.529,54.515,7.728,53.98
-50.733,62.945,-4.6792,14.877,-59.279,72.526,-30.353,24.48,-35.242,55.371,-10.299,35.751,-30.749,54.748,7.649,54.318
-50.733,62.945,-4.6792,14.877,-59.279,72.526,-30.353,24.48,-35.242,55.371,-10.299,35.751,-30.749,54.748,7.649,54.318
-50.733,62.945,-4.6792,14.877,-59.279,72.526,-30.353,24.48,-35.242,55.371,-10.299,35.751,-30.749,54.748,7.649,54.318
-50.941,63.164,-4.8312,15.011,-59.459,72.724,-30.435,24.575,-35.497,55.636,-10.505,35.999,-30.968,54.98,7.5703,54.655
-50.941,63.164,-4.8312,15.011,-59.459,72.724,-30.435,24.575,-35.497,55.636,-10.505,35.999,-30.968,54.98,7.5703,54.655
-50.941,63.164,-4.8312,15.011,-59.459,72.724,-30.435,24.575,-35.497,55.636,-10.505,35.999,-30.968,54.98,7.5703,54.655
-51.355,63.598,-5.1347,15.277,-59.816,73.115,-30.595,24.762,-36.003,56.164,-10.915,36.494,-31.402,55.439,7.4138,55.327
-51.355,63.598,-5.1347,15.277,-59.816,73.115,-30.595,24.762,-36.003,56.164,-10.915,36.494,-31.402,55.439,7.4138,55.327
-51.355,63.598,-5.1347,15.277,-59.816,73.115,-30.595,24.762,-36.003,56.164,-10.915,36.494,-31.402,55.439,7.4138,55.327
-51.56,63.813,-5.286,15.41,-59.992,73.308,-30.673,24.853,-36.254,56.426,-11.12,36.741,-31.617,55.667,7.3359,55.662
-51.56,63.813,-5.286,15.41,-59.992,73.308,-30.673,24.853,-36.254,56.426,-11.12,36.741,-31.617,55.667,7.3359,55.662
-51.56,63.813,-5.286,15.41,-59.992,73.308,-30.673,24.853,-36.254,56.426,-11.12,36.741,-31.617,55.667,7.3359,55.662
-51.967,64.24,-5.588,15.676,-60.338,73.691,-30.825,25.032,-36.753,56.946,-11.527,37.232,-32.043,56.118,7.181,56.331
-51.967,64.24,-5.588,15.676,-60.338,73.691,-30.825,25.032,-36.753,56.946,-11.527,37.232,-32.043,56.118,7.181,56.331
-51.967,64.24,-5.588,15.676,-60.338,73.691,-30.825,25.032,-36.753,56.946,-11.527,37.232,-32.043,56.118,7.181,56.331
-52.169,64.452,-5.7386,15.808,-60.509,73.88,-30.899,25.119,-37,57.204,-11.73,37.477,-32.254,56.342,7.104,56.664
-52.37,64.663,-5.8889,15.94,-60.678,74.068,-30.972,25.205,-37.247,57.46,-11.933,37.72,-32.464,56.565,7.0273,56.996
-52.37,64.663,-5.8889,15.94,-60.678,74.068,-30.972,25.205,-37.247,57.46,-11.933,37.72,-32.464,56.565,7.0273,56.996
-52.569,64.873,-6.039,16.072,-60.845,74.255,-31.043,25.289,-37.492,57.716,-12.135,37.964,-32.672,56.786,6.9509,57.327
-52.569,64.873,-6.039,16.072,-60.845,74.255,-31.043,25.289,-37.492,57.716,-12.135,37.964,-32.672,56.786,6.9509,57.327
-52.767,65.081,-6.1888,16.204,-61.011,74.44,-31.113,25.372,-37.735,57.97,-12.336,38.206,-32.879,57.006,6.8748,57.658
-52.767,65.081,-6.1888,16.204,-61.011,74.44,-31.113,25.372,-37.735,57.97,-12.336,38.206,-32.879,57.006,6.8748,57.658
-52.964,65.289,-6.3382,16.335,-61.175,74.624,-31.182,25.454,-37.978,58.223,-12.537,38.447,-33.085,57.224,6.799,57.988
-52.964,65.289,-6.3382,16.335,-61.175,74.624,-31.182,25.454,-37.978,58.223,-12.537,38.447,-33.085,57.224,6.799,57.988
-53.16,65.495,-6.4874,16.466,-61.337,74.806,-31.25,25.535,-38.219,58.474,-12.738,38.688,-33.289,57.442,6.7236,58.317
-53.16,65.495,-6.4874,16.466,-61.337,74.806,-31.25,25.535,-38.219,58.474,-12.738,38.688,-33.289,57.442,6.7236,58.317
-53.355,65.7,-6.6363,16.596,-61.497,74.987,-31.316,25.614,-38.458,58.725,-12.938,38.928,-33.492,57.658,6.6485,58.646
-53.355,65.7,-6.6363,16.596,-61.497,74.987,-31.316,25.614,-38.458,58.725,-12.938,38.928,-33.492,57.658,6.6485,58.646
-53.355,65.7,-6.6363,16.596,-61.497,74.987,-31.316,25.614,-38.458,58.725,-12.938,38.928,-33.492,57.658,6.6485,58.646
-53.548,65.903,-6.7848,16.727,-61.655,75.166,-31.381,25.691,-38.697,58.973,-13.137,39.167,-33.693,57.872,6.5737,58.973
-53.548,65.903,-6.7848,16.727,-61.655,75.166,-31.381,25.691,-38.697,58.973,-13.137,39.167,-33.693,57.872,6.5737,58.973
-53.548,65.903,-6.7848,16.727,-61.655,75.166,-31.381,25.691,-38.697,58.973,-13.137,39.167,-33.693,57.872,6.5737,58.973
-53.93,66.307,-7.081,16.986,-61.967,75.52,-31.507,25.842,-39.169,59.467,-13.534,39.644,-34.092,58.297,6.4253,59.626
-53.93,66.307,-7.081,16.986,-61.967,75.52,-31.507,25.842,-39.169,59.467,-13.534,39.644,-34.092,58.297,6.4253,59.626
-53.93,66.307,-7.081,16.986,-61.967,75.52,-31.507,25.842,-39.169,59.467,-13.534,39.644,-34.092,58.297,6.4253,59.626
-54.12,66.507,-7.2286,17.116,-62.12,75.695,-31.568,25.915,-39.404,59.711,-13.732,39.88,-34.289,58.508,6.3516,59.951
-54.307,66.706,-7.3758,17.245,-62.271,75.868,-31.628,25.987,-39.637,59.954,-13.929,40.116,-34.485,58.717,6.2783,60.275
-54.494,66.903,-7.5227,17.373,-62.421,76.04,-31.686,26.057,-39.868,60.196,-14.125,40.351,-34.679,58.924,6.2054,60.598
-54.494,66.903,-7.5227,17.373,-62.421,76.04,-31.686,26.057,-39.868,60.196,-14.125,40.351,-34.679,58.924,6.2054,60.598
-54.679,67.099,-7.6692,17.502,-62.568,76.21,-31.744,26.126,-40.098,60.436,-14.321,40.586,-34.872,59.131,6.1329,60.92
-54.679,67.099,-7.6692,17.502,-62.568,76.21,-31.744,26.126,-40.098,60.436,-14.321,40.586,-34.872,59.131,6.1329,60.92
-54.679,67.099,-7.6692,17.502,-62.568,76.21,-31.744,26.126,-40.098,60.436,-14.321,40.586,-34.872,59.131,6.1329,60.92
-54.863,67.294,-7.8153,17.63,-62.714,76.379,-31.799,26.194,-40.326,60.675,-14.517,40.819,-35.063,59.336,6.0608,61.241
-54.863,67.294,-7.8153,17.63,-62.714,76.379,-31.799,26.194,-40.326,60.675,-14.517,40.819,-35.063,59.336,6.0608,61.241
-55.045,67.487,-7.9611,17.757,-62.858,76.546,-31.854,26.26,-40.553,60.913,-14.711,41.052,-35.253,59.539,5.989,61.562
-55.045,67.487,-7.9611,17.757,-62.858,76.546,-31.854,26.26,-40.553,60.913,-14.711,41.052,-35.253,59.539,5.989,61.562
-55.226,67.68,-8.1065,17.884,-62.999,76.712,-31.907,26.324,-40.779,61.148,-14.905,41.283,-35.441,59.741,5.9177,61.881
-55.405,67.87,-8.2515,18.011,-63.139,76.876,-31.958,26.387,-41.003,61.383,-15.099,41.514,-35.628,59.942,5.8468,62.199
-55.405,67.87,-8.2515,18.011,-63.139,76.876,-31.958,26.387,-41.003,61.383,-15.099,41.514,-35.628,59.942,5.8468,62.199
-55.405,67.87,-8.2515,18.011,-63.139,76.876,-31.958,26.387,-41.003,61.383,-15.099,41.514,-35.628,59.942,5.8468,62.199
-55.583,68.06,-8.3961,18.138,-63.278,77.038,-32.008,26.449,-41.225,61.616,-15.291,41.744,-35.814,60.141,5.7764,62.517
-55.583,68.06,-8.3961,18.138,-63.278,77.038,-32.008,26.449,-41.225,61.616,-15.291,41.744,-35.814,60.141,5.7764,62.517
-55.583,68.06,-8.3961,18.138,-63.278,77.038,-32.008,26.449,-41.225,61.616,-15.291,41.744,-35.814,60.141,5.7764,62.517
-55.76,68.248,-8.5403,18.264,-63.414,77.199,-32.057,26.509,-41.446,61.847,-15.483,41.973,-35.997,60.338,5.7063,62.833
-55.76,68.248,-8.5403,18.264,-63.414,77.199,-32.057,26.509,-41.446,61.847,-15.483,41.973,-35.997,60.338,5.7063,62.833
-55.934,68.434,-8.6841,18.39,-63.548,77.358,-32.105,26.567,-41.666,62.077,-15.675,42.2,-36.18,60.535,5.6367,63.149
-56.108,68.619,-8.8275,18.515,-63.68,77.515,-32.151,26.624,-41.884,62.305,-15.865,42.427,-36.361,60.729,5.5676,63.463
-56.108,68.619,-8.8275,18.515,-63.68,77.515,-32.151,26.624,-41.884,62.305,-15.865,42.427,-36.361,60.729,5.5676,63.463
-56.28,68.803,-8.9705,18.64,-63.81,77.671,-32.196,26.68,-42.1,62.532,-16.055,42.653,-36.54,60.923,5.4989,63.776
-56.28,68.803,-8.9705,18.64,-63.81,77.671,-32.196,26.68,-42.1,62.532,-16.055,42.653,-36.54,60.923,5.4989,63.776
-56.28,68.803,-8.9705,18.64,-63.81,77.671,-32.196,26.68,-42.1,62.532,-16.055,42.653,-36.54,60.923,5.4989,63.776
-56.45,68.985,-9.113,18.764,-63.939,77.825,-32.239,26.733,-42.314,62.757,-16.245,42.879,-36.718,61.114,5.4307,64.089
-56.45,68.985,-9.113,18.764,-63.939,77.825,-32.239,26.733,-42.314,62.757,-16.245,42.879,-36.718,61.114,5.4307,64.089
-56.619,69.166,-9.2551,18.888,-64.065,77.978,-32.281,26.786,-42.527,62.98,-16.433,43.103,-36.894,61.305,5.363,64.4
-56.786,69.345,-9.3968,19.012,-64.189,78.128,-32.322,26.837,-42.739,63.202,-16.621,43.326,-37.069,61.494,5.2957,64.71
-56.786,69.345,-9.3968,19.012,-64.189,78.128,-32.322,26.837,-42.739,63.202,-16.621,43.326,-37.069,61.494,5.2957,64.71
-56.951,69.523,-9.538,19.135,-64.311,78.278,-32.361,26.886,-42.949,63.423,-16.808,43.548,-37.242,61.681,5.2289,65.019
-56.951,69.523,-9.538,19.135,-64.311,78.278,-32.361,26.886,-42.949,63.423,-16.808,43.548,-37.242,61.681,5.2289,65.019
-57.115,69.699,-9.6787,19.257,-64.432,78.425,-32.399,26.934,-43.157,63.641,-16.995,43.769,-37.413,61.867,5.1626,65.327
-57.115,69.699,-9.6787,19.257,-64.432,78.425,-32.399,26.934,-43.157,63.641,-16.995,43.769,-37.413,61.867,5.1626,65.327
-57.277,69.874,-9.819,19.38,-64.55,78.571,-32.436,26.98,-43.363,63.859,-17.18,43.989,-37.583,62.051,5.0968,65.634
-57.277,69.874,-9.819,19.38,-64.55,78.571,-32.436,26.98,-43.363,63.859,-17.18,43.989,-37.583,62.051,5.0968,65.634
-57.438,70.048,-9.9588,19.501,-64.666,78.715,-32.471,27.024,-43.568,64.074,-17.365,44.208,-37.752,62.234,5.0316,65.939
-57.438,70.048,-9.9588,19.501,-64.666,78.715,-32.471,27.024,-43.568,64.074,-17.365,44.208,-37.752,62.234,5.0316,65.939
-57.597,70.219,-10.098,19.623,-64.78,78.857,-32.504,27.067,-43.771,64.288,-17.549,44.426,-37.919,62.415,4.9668,66.244
-57.597,70.219,-10.098,19.623,-64.78,78.857,-32.504,27.067,-43.771,64.288,-17.549,44.426,-37.919,62.415,4.9668,66.244
-57.754,70.39,-10.237,19.743,-64.892,78.997,-32.537,27.109,-43.972,64.5,-17.733,44.643,-38.084,62.595,4.9026,66.547
-57.754,70.39,-10.237,19.743,-64.892,78.997,-32.537,27.109,-43.972,64.5,-17.733,44.643,-38.084,62.595,4.9026,66.547
-57.909,70.558,-10.375,19.864,-65.002,79.136,-32.567,27.149,-44.172,64.71,-17.915,44.859,-38.248,62.773,4.8389,66.849
-57.909,70.558,-10.375,19.864,-65.002,79.136,-32.567,27.149,-44.172,64.71,-17.915,44.859,-38.248,62.773,4.8389,66.849
-58.063,70.725,-10.513,19.984,-65.11,79.273,-32.597,27.187,-44.369,64.919,-18.097,45.074,-38.41,62.949,4.7757,67.15
-58.063,70.725,-10.513,19.984,-65.11,79.273,-32.597,27.187,-44.369,64.919,-18.097,45.074,-38.41,62.949,4.7757,67.15
-58.215,70.891,-10.65,20.103,-65.216,79.409,-32.625,27.224,-44.565,65.126,-18.278,45.287,-38.57,63.124,4.7131,67.45
-58.215,70.891,-10.65,20.103,-65.216,79.409,-32.625,27.224,-44.565,65.126,-18.278,45.287,-38.57,63.124,4.7131,67.45
-58.215,70.891,-10.65,20.103,-65.216,79.409,-32.625,27.224,-44.565,65.126,-18.278,45.287,-38.57,63.124,4.7131,67.45
-58.365,71.055,-10.787,20.222,-65.32,79.542,-32.651,27.259,-44.76,65.332,-18.458,45.5,-38.729,63.298,4.651,67.749
-58.514,71.217,-10.924,20.34,-65.422,79.674,-32.677,27.292,-44.952,65.535,-18.638,45.711,-38.886,63.47,4.5895,68.046
-58.514,71.217,-10.924,20.34,-65.422,79.674,-32.677,27.292,-44.952,65.535,-18.638,45.711,-38.886,63.47,4.5895,68.046
-58.66,71.378,-11.059,20.458,-65.521,79.804,-32.7,27.324,-45.143,65.737,-18.816,45.922,-39.042,63.64,4.5286,68.342
-58.66,71.378,-11.059,20.458,-65.521,79.804,-32.7,27.324,-45.143,65.737,-18.816,45.922,-39.042,63.64,4.5286,68.342
-58.805,71.537,-11.195,20.575,-65.618,79.932,-32.723,27.354,-45.332,65.938,-18.994,46.131,-39.196,63.809,4.4683,68.637
-58.805,71.537,-11.195,20.575,-65.618,79.932,-32.723,27.354,-45.332,65.938,-18.994,46.131,-39.196,63.809,4.4683,68.637
-58.949,71.694,-11.329,20.692,-65.714,80.058,-32.744,27.383,-45.519,66.136,-19.171,46.339,-39.348,63.976,4.4085,68.93
-58.949,71.694,-11.329,20.692,-65.714,80.058,-32.744,27.383,-45.519,66.136,-19.171,46.339,-39.348,63.976,4.4085,68.93
-58.949,71.694,-11.329,20.692,-65.714,80.058,-32.744,27.383,-45.519,66.136,-19.171,46.339,-39.348,63.976,4.4085,68.93
-59.09,71.85,-11.463,20.808,-65.807,80.182,-32.763,27.41,-45.704,66.333,-19.347,46.546,-39.499,64.141,4.3493,69.223
-59.09,71.85,-11.463,20.808,-65.807,80.182,-32.763,27.41,-45.704,66.333,-19.347,46.546,-39.499,64.141,4.3493,69.223
-59.09,71.85,-11.463,20.808,-65.807,80.182,-32.763,27.41,-45.704,66.333,-19.347,46.546,-39.499,64.141,4.3493,69.223
-59.367,72.157,-11.73,21.039,-65.986,80.426,-32.798,27.459,-46.069,66.721,-19.697,46.957,-39.796,64.468,4.2328,69.803
-59.367,72.157,-11.73,21.039,-65.986,80.426,-32.798,27.459,-46.069,66.721,-19.697,46.957,-39.796,64.468,4.2328,69.803
-59.503,72.307,-11.862,21.153,-66.073,80.545,-32.813,27.481,-46.248,66.912,-19.87,47.16,-39.941,64.628,4.1755,70.091
-59.503,72.307,-11.862,21.153,-66.073,80.545,-32.813,27.481,-46.248,66.912,-19.87,47.16,-39.941,64.628,4.1755,70.091
-59.637,72.457,-11.994,21.267,-66.157,80.662,-32.827,27.501,-46.426,67.102,-20.043,47.362,-40.086,64.787,4.1187,70.378
-59.637,72.457,-11.994,21.267,-66.157,80.662,-32.827,27.501,-46.426,67.102,-20.043,47.362,-40.086,64.787,4.1187,70.378
-59.637,72.457,-11.994,21.267,-66.157,80.662,-32.827,27.501,-46.426,67.102,-20.043,47.362,-40.086,64.787,4.1187,70.378
-59.769,72.604,-12.126,21.381,-66.24,80.777,-32.839,27.52,-46.602,67.29,-20.214,47.563,-40.228,64.945,4.0627,70.664
-59.769,72.604,-12.126,21.381,-66.24,80.777,-32.839,27.52,-46.602,67.29,-20.214,47.563,-40.228,64.945,4.0627,70.664
-59.899,72.75,-12.256,21.494,-66.32,80.89,-32.85,27.537,-46.776,67.476,-20.385,47.763,-40.369,65.101,4.0072,70.948
-60.027,72.894,-12.386,21.606,-66.398,81.002,-32.859,27.553,-46.948,67.66,-20.555,47.962,-40.508,65.255,3.9524,71.231
-60.153,73.036,-12.516,21.718,-66.473,81.112,-32.867,27.567,-47.118,67.842,-20.724,48.159,-40.645,65.407,3.8982,71.512
-60.153,73.036,-12.516,21.718,-66.473,81.112,-32.867,27.567,-47.118,67.842,-20.724,48.159,-40.645,65.407,3.8982,71.512
-60.153,73.036,-12.516,21.718,-66.473,81.112,-32.867,27.567,-47.118,67.842,-20.724,48.159,-40.645,65.407,3.8982,71.512
-60.277,73.176,-12.645,21.829,-66.546,81.219,-32.873,27.579,-47.286,68.023,-20.892,48.356,-40.781,65.558,3.8447,71.792
-60.277,73.176,-12.645,21.829,-66.546,81.219,-32.873,27.579,-47.286,68.023,-20.892,48.356,-40.781,65.558,3.8447,71.792
-60.4,73.315,-12.773,21.939,-66.618,81.325,-32.878,27.589,-47.452,68.201,-21.059,48.55,-40.915,65.707,3.7919,72.071
-60.4,73.315,-12.773,21.939,-66.618,81.325,-32.878,27.589,-47.452,68.201,-21.059,48.55,-40.915,65.707,3.7919,72.071
-60.52,73.452,-12.901,22.049,-66.687,81.429,-32.882,27.598,-47.616,68.378,-21.225,48.744,-41.047,65.855,3.7397,72.348
-60.52,73.452,-12.901,22.049,-66.687,81.429,-32.882,27.598,-47.616,68.378,-21.225,48.744,-41.047,65.855,3.7397,72.348
-60.639,73.587,-13.028,22.159,-66.753,81.531,-32.884,27.605,-47.778,68.553,-21.39,48.937,-41.178,66.001,3.6883,72.624
-60.639,73.587,-13.028,22.159,-66.753,81.531,-32.884,27.605,-47.778,68.553,-21.39,48.937,-41.178,66.001,3.6883,72.624
-60.639,73.587,-13.028,22.159,-66.753,81.531,-32.884,27.605,-47.778,68.553,-21.39,48.937,-41.178,66.001,3.6883,72.624
-60.755,73.721,-13.154,22.267,-66.818,81.631,-32.884,27.611,-47.938,68.726,-21.554,49.128,-41.307,66.145,3.6375,72.898
-60.755,73.721,-13.154,22.267,-66.818,81.631,-32.884,27.611,-47.938,68.726,-21.554,49.128,-41.307,66.145,3.6375,72.898
-60.87,73.852,-13.28,22.375,-66.88,81.729,-32.883,27.615,-48.096,68.897,-21.717,49.317,-41.434,66.288,3.5874,73.171
-60.982,73.982,-13.405,22.483,-66.94,81.825,-32.881,27.617,-48.253,69.066,-21.88,49.506,-41.559,66.428,3.538,73.442
-60.982,73.982,-13.405,22.483,-66.94,81.825,-32.881,27.617,-48.253,69.066,-21.88,49.506,-41.559,66.428,3.538,73.442
-61.092,74.11,-13.53,22.589,-66.997,81.92,-32.877,27.617,-48.407,69.234,-22.041,49.693,-41.683,66.567,3.4893,73.711
-61.092,74.11,-13.53,22.589,-66.997,81.92,-32.877,27.617,-48.407,69.234,-22.041,49.693,-41.683,66.567,3.4893,73.711
-61.201,74.236,-13.653,22.696,-67.053,82.012,-32.872,27.616,-48.559,69.399,-22.201,49.879,-41.805,66.705,3.4414,73.98
-61.201,74.236,-13.653,22.696,-67.053,82.012,-32.872,27.616,-48.559,69.399,-22.201,49.879,-41.805,66.705,3.4414,73.98
-61.307,74.361,-13.777,22.801,-67.106,82.102,-32.865,27.613,-48.709,69.562,-22.36,50.064,-41.925,66.841,3.3941,74.246
-61.307,74.361,-13.777,22.801,-67.106,82.102,-32.865,27.613,-48.709,69.562,-22.36,50.064,-41.925,66.841,3.3941,74.246
-61.411,74.483,-13.899,22.906,-67.156,82.191,-32.857,27.609,-48.856,69.724,-22.518,50.247,-42.044,66.975,3.3476,74.512
-61.411,74.483,-13.899,22.906,-67.156,82.191,-32.857,27.609,-48.856,69.724,-22.518,50.247,-42.044,66.975,3.3476,74.512
-61.514,74.604,-14.021,23.01,-67.205,82.277,-32.847,27.603,-49.002,69.884,-22.676,50.429,-42.161,67.107,3.3019,74.775
-61.514,74.604,-14.021,23.01,-67.205,82.277,-32.847,27.603,-49.002,69.884,-22.676,50.429,-42.161,67.107,3.3019,74.775
-61.614,74.723,-14.142,23.114,-67.251,82.362,-32.836,27.595,-49.146,70.041,-22.832,50.609,-42.276,67.237,3.2569,75.037
-61.614,74.723,-14.142,23.114,-67.251,82.362,-32.836,27.595,-49.146,70.041,-22.832,50.609,-42.276,67.237,3.2569,75.037
-61.712,74.84,-14.262,23.217,-67.295,82.444,-32.823,27.585,-49.288,70.197,-22.987,50.789,-42.389,67.366,3.2126,75.298
-61.712,74.84,-14.262,23.217,-67.295,82.444,-32.823,27.585,-49.288,70.197,-22.987,50.789,-42.389,67.366,3.2126,75.298
-61.712,74.84,-14.262,23.217,-67.295,82.444,-32.823,27.585,-49.288,70.197,-22.987,50.789,-42.389,67.366,3.2126,75.298
-61.808,74.955,-14.382,23.319,-67.336,82.525,-32.809,27.574,-49.427,70.351,-23.141,50.966,-42.501,67.493,3.1691,75.556
-61.808,74.955,-14.382,23.319,-67.336,82.525,-32.809,27.574,-49.427,70.351,-23.141,50.966,-42.501,67.493,3.1691,75.556
-61.902,75.068,-14.501,23.42,-67.375,82.604,-32.793,27.561,-49.565,70.503,-23.294,51.143,-42.61,67.619,3.1263,75.814
-61.902,75.068,-14.501,23.42,-67.375,82.604,-32.793,27.561,-49.565,70.503,-23.294,51.143,-42.61,67.619,3.1263,75.814
-61.993,75.18,-14.619,23.521,-67.412,82.68,-32.776,27.546,-49.7,70.652,-23.446,51.318,-42.719,67.742,3.0844,76.069
-61.993,75.18,-14.619,23.521,-67.412,82.68,-32.776,27.546,-49.7,70.652,-23.446,51.318,-42.719,67.742,3.0844,76.069
-62.171,75.397,-14.854,23.721,-67.479,82.827,-32.737,27.512,-49.964,70.946,-23.747,51.664,-42.929,67.984,3.0028,76.575
-62.171,75.397,-14.854,23.721,-67.479,82.827,-32.737,27.512,-49.964,70.946,-23.747,51.664,-42.929,67.984,3.0028,76.575
-62.256,75.503,-14.97,23.82,-67.509,82.898,-32.715,27.492,-50.093,71.09,-23.895,51.834,-43.032,68.103,2.9632,76.826
-62.256,75.503,-14.97,23.82,-67.509,82.898,-32.715,27.492,-50.093,71.09,-23.895,51.834,-43.032,68.103,2.9632,76.826
-62.256,75.503,-14.97,23.82,-67.509,82.898,-32.715,27.492,-50.093,71.09,-23.895,51.834,-43.032,68.103,2.9632,76.826
-62.339,75.606,-15.085,23.918,-67.536,82.966,-32.691,27.47,-50.219,71.232,-24.043,52.004,-43.133,68.219,2.9244,77.075
-62.339,75.606,-15.085,23.918,-67.536,82.966,-32.691,27.47,-50.219,71.232,-24.043,52.004,-43.133,68.219,2.9244,77.075
-62.339,75.606,-15.085,23.918,-67.536,82.966,-32.691,27.47,-50.219,71.232,-24.043,52.004,-43.133,68.219,2.9244,77.075
-62.42,75.708,-15.2,24.015,-67.561,83.033,-32.667,27.447,-50.344,71.372,-24.189,52.172,-43.232,68.334,2.8864,77.322
-62.499,75.808,-15.314,24.112,-67.584,83.098,-32.64,27.422,-50.466,71.509,-24.335,52.338,-43.33,68.447,2.8492,77.568
-62.576,75.906,-15.427,24.207,-67.604,83.16,-32.613,27.396,-50.586,71.645,-24.479,52.503,-43.426,68.558,2.8129,77.812
-62.576,75.906,-15.427,24.207,-67.604,83.16,-32.613,27.396,-50.586,71.645,-24.479,52.503,-43.426,68.558,2.8129,77.812
-62.576,75.906,-15.427,24.207,-67.604,83.16,-32.613,27.396,-50.586,71.645,-24.479,52.503,-43.426,68.558,2.8129,77.812
-62.65,76.003,-15.54,24.303,-67.622,83.221,-32.583,27.367,-50.704,71.779,-24.622,52.666,-43.52,68.668,2.7774,78.054
-62.65,76.003,-15.54,24.303,-67.622,83.221,-32.583,27.367,-50.704,71.779,-24.622,52.666,-43.52,68.668,2.7774,78.054
-62.722,76.097,-15.651,24.397,-67.638,83.279,-32.553,27.337,-50.82,71.911,-24.764,52.829,-43.612,68.776,2.7427,78.294
-62.722,76.097,-15.651,24.397,-67.638,83.279,-32.553,27.337,-50.82,71.911,-24.764,52.829,-43.612,68.776,2.7427,78.294
-62.722,76.097,-15.651,24.397,-67.638,83.279,-32.553,27.337,-50.82,71.911,-24.764,52.829,-43.612,68.776,2.7427,78.294
-62.792,76.189,-15.762,24.491,-67.651,83.336,-32.52,27.306,-50.933,72.041,-24.905,52.989,-43.702,68.882,2.7088,78.533
-62.792,76.189,-15.762,24.491,-67.651,83.336,-32.52,27.306,-50.933,72.041,-24.905,52.989,-43.702,68.882,2.7088,78.533
-62.792,76.189,-15.762,24.491,-67.651,83.336,-32.52,27.306,-50.933,72.041,-24.905,52.989,-43.702,68.882,2.7088,78.533
-62.926,76.368,-15.982,24.676,-67.67,83.442,-32.451,27.237,-51.153,72.294,-25.183,53.306,-43.877,69.088,2.6437,79.005
-62.926,76.368,-15.982,24.676,-67.67,83.442,-32.451,27.237,-51.153,72.294,-25.183,53.306,-43.877,69.088,2.6437,79.005
-62.989,76.454,-16.09,24.767,-67.676,83.493,-32.414,27.2,-51.26,72.417,-25.321,53.462,-43.962,69.189,2.6124,79.238
-62.989,76.454,-16.09,24.767,-67.676,83.493,-32.414,27.2,-51.26,72.417,-25.321,53.462,-43.962,69.189,2.6124,79.238
-63.051,76.539,-16.198,24.858,-67.68,83.541,-32.376,27.162,-51.365,72.539,-25.457,53.616,-44.046,69.287,2.582,79.47
-63.051,76.539,-16.198,24.858,-67.68,83.541,-32.376,27.162,-51.365,72.539,-25.457,53.616,-44.046,69.287,2.582,79.47
-63.109,76.621,-16.305,24.948,-67.681,83.587,-32.336,27.122,-51.467,72.658,-25.592,53.769,-44.127,69.384,2.5524,79.699
-63.109,76.621,-16.305,24.948,-67.681,83.587,-32.336,27.122,-51.467,72.658,-25.592,53.769,-44.127,69.384,2.5524,79.699
-63.109,76.621,-16.305,24.948,-67.681,83.587,-32.336,27.122,-51.467,72.658,-25.592,53.769,-44.127,69.384,2.5524,79.699
-63.166,76.701,-16.411,25.037,-67.68,83.631,-32.295,27.08,-51.567,72.776,-25.726,53.921,-44.207,69.479,2.5237,79.927
-63.221,76.78,-16.516,25.126,-67.677,83.674,-32.252,27.036,-51.665,72.891,-25.858,54.071,-44.285,69.573,2.4959,80.153
-63.221,76.78,-16.516,25.126,-67.677,83.674,-32.252,27.036,-51.665,72.891,-25.858,54.071,-44.285,69.573,2.4959,80.153
-63.273,76.856,-16.621,25.213,-67.671,83.714,-32.207,26.991,-51.76,73.004,-25.99,54.219,-44.361,69.664,2.469,80.378
-63.273,76.856,-16.621,25.213,-67.671,83.714,-32.207,26.991,-51.76,73.004,-25.99,54.219,-44.361,69.664,2.469,80.378
-63.323,76.931,-16.725,25.3,-67.662,83.752,-32.161,26.944,-51.853,73.115,-26.12,54.366,-44.435,69.754,2.443,80.6
-63.323,76.931,-16.725,25.3,-67.662,83.752,-32.161,26.944,-51.853,73.115,-26.12,54.366,-44.435,69.754,2.443,80.6
-63.323,76.931,-16.725,25.3,-67.662,83.752,-32.161,26.944,-51.853,73.115,-26.12,54.366,-44.435,69.754,2.443,80.6
-63.37,77.004,-16.827,25.386,-67.652,83.788,-32.114,26.896,-51.944,73.224,-26.249,54.511,-44.507,69.842,2.4179,80.82
-63.37,77.004,-16.827,25.386,-67.652,83.788,-32.114,26.896,-51.944,73.224,-26.249,54.511,-44.507,69.842,2.4179,80.82
-63.37,77.004,-16.827,25.386,-67.652,83.788,-32.114,26.896,-51.944,73.224,-26.249,54.511,-44.507,69.842,2.4179,80.82
-63.459,77.143,-17.031,25.556,-67.623,83.854,-32.014,26.793,-52.119,73.436,-26.503,54.797,-44.647,70.012,2.3705,81.256
-63.499,77.209,-17.131,25.64,-67.605,83.883,-31.962,26.74,-52.203,73.538,-26.629,54.937,-44.714,70.094,2.3481,81.47
-63.499,77.209,-17.131,25.64,-67.605,83.883,-31.962,26.74,-52.203,73.538,-26.629,54.937,-44.714,70.094,2.3481,81.47
-63.499,77.209,-17.131,25.64,-67.605,83.883,-31.962,26.74,-52.203,73.538,-26.629,54.937,-44.714,70.094,2.3481,81.47
-63.538,77.274,-17.231,25.723,-67.584,83.911,-31.908,26.684,-52.284,73.639,-26.753,55.076,-44.779,70.175,2.3267,81.683
-63.538,77.274,-17.231,25.723,-67.584,83.911,-31.908,26.684,-52.284,73.639,-26.753,55.076,-44.779,70.175,2.3267,81.683
-63.538,77.274,-17.231,25.723,-67.584,83.911,-31.908,26.684,-52.284,73.639,-26.753,55.076,-44.779,70.175,2.3267,81.683
-63.538,77.274,-17.231,25.723,-67.584,83.911,-31.908,26.684,-52.284,73.639,-26.753,55.076,-44.779,70.175,2.3267,81.683
-63.574,77.336,-17.329,25.805,-67.562,83.937,-31.853,26.627,-52.364,73.737,-26.876,55.213,-44.842,70.253,2.3062,81.894
-63.574,77.336,-17.329,25.805,-67.562,83.937,-31.853,26.627,-52.364,73.737,-26.876,55.213,-44.842,70.253,2.3062,81.894
-63.639,77.455,-17.524,25.967,-67.509,83.982,-31.739,26.508,-52.515,73.928,-27.117,55.483,-44.964,70.405,2.268,82.31
-63.639,77.455,-17.524,25.967,-67.509,83.982,-31.739,26.508,-52.515,73.928,-27.117,55.483,-44.964,70.405,2.268,82.31
-63.639,77.455,-17.524,25.967,-67.509,83.982,-31.739,26.508,-52.515,73.928,-27.117,55.483,-44.964,70.405,2.268,82.31
-63.669,77.512,-17.62,26.046,-67.478,84.002,-31.679,26.446,-52.587,74.02,-27.236,55.615,-45.022,70.478,2.2504,82.515
-63.669,77.512,-17.62,26.046,-67.478,84.002,-31.679,26.446,-52.587,74.02,-27.236,55.615,-45.022,70.478,2.2504,82.515
-63.669,77.512,-17.62,26.046,-67.478,84.002,-31.679,26.446,-52.587,74.02,-27.236,55.615,-45.022,70.478,2.2504,82.515
-63.72,77.619,-17.81,26.203,-67.411,84.034,-31.555,26.317,-52.725,74.198,-27.47,55.875,-45.133,70.619,2.2179,82.919
-63.72,77.619,-17.81,26.203,-67.411,84.034,-31.555,26.317,-52.725,74.198,-27.47,55.875,-45.133,70.619,2.2179,82.919
-63.742,77.669,-17.903,26.28,-67.373,84.048,-31.491,26.25,-52.79,74.283,-27.586,56.002,-45.185,70.686,2.2031,83.118
-63.762,77.717,-17.996,26.357,-67.334,84.059,-31.425,26.182,-52.853,74.367,-27.699,56.128,-45.236,70.752,2.1893,83.315
-63.762,77.717,-17.996,26.357,-67.334,84.059,-31.425,26.182,-52.853,74.367,-27.699,56.128,-45.236,70.752,2.1893,83.315
-63.78,77.764,-18.088,26.432,-67.291,84.068,-31.358,26.111,-52.914,74.448,-27.812,56.252,-45.285,70.816,2.1765,83.51
-63.78,77.764,-18.088,26.432,-67.291,84.068,-31.358,26.111,-52.914,74.448,-27.812,56.252,-45.285,70.816,2.1765,83.51
-63.78,77.764,-18.088,26.432,-67.291,84.068,-31.358,26.111,-52.914,74.448,-27.812,56.252,-45.285,70.816,2.1765,83.51
-63.795,77.808,-18.178,26.507,-67.247,84.075,-31.289,26.039,-52.972,74.528,-27.923,56.375,-45.332,70.878,2.1646,83.703
-63.795,77.808,-18.178,26.507,-67.247,84.075,-31.289,26.039,-52.972,74.528,-27.923,56.375,-45.332,70.878,2.1646,83.703
-63.795,77.808,-18.178,26.507,-67.247,84.075,-31.289,26.039,-52.972,74.528,-27.923,56.375,-45.332,70.878,2.1646,83.703
-63.808,77.85,-18.268,26.581,-67.199,84.08,-31.219,25.966,-53.027,74.605,-28.033,56.495,-45.378,70.938,2.1537,83.894
-63.819,77.89,-18.357,26.654,-67.15,84.083,-31.147,25.89,-53.081,74.68,-28.141,56.614,-45.421,70.996,2.1438,84.083
-63.819,77.89,-18.357,26.654,-67.15,84.083,-31.147,25.89,-53.081,74.68,-28.141,56.614,-45.421,70.996,2.1438,84.083
-63.827,77.928,-18.445,26.726,-67.098,84.084,-31.073,25.814,-53.132,74.752,-28.248,56.732,-45.463,71.052,2.1349,84.27
-63.827,77.928,-18.445,26.726,-67.098,84.084,-31.073,25.814,-53.132,74.752,-28.248,56.732,-45.463,71.052,2.1349,84.27
-63.833,77.965,-18.532,26.797,-67.043,84.083,-30.998,25.735,-53.181,74.823,-28.354,56.847,-45.503,71.107,2.127,84.455
-63.833,77.965,-18.532,26.797,-67.043,84.083,-30.998,25.735,-53.181,74.823,-28.354,56.847,-45.503,71.107,2.127,84.455
-63.836,77.999,-18.619,26.868,-66.987,84.079,-30.922,25.655,-53.227,74.891,-28.459,56.961,-45.541,71.159,2.1202,84.637
-63.836,77.999,-18.619,26.868,-66.987,84.079,-30.922,25.655,-53.227,74.891,-28.459,56.961,-45.541,71.159,2.1202,84.637
-63.837,78.031,-18.704,26.938,-66.927,84.074,-30.844,25.573,-53.271,74.958,-28.562,57.073,-45.577,71.21,2.1143,84.818
-63.837,78.031,-18.704,26.938,-66.927,84.074,-30.844,25.573,-53.271,74.958,-28.562,57.073,-45.577,71.21,2.1143,84.818
-63.836,78.061,-18.788,27.006,-66.866,84.067,-30.765,25.49,-53.312,75.022,-28.664,57.184,-45.612,71.259,2.1094,84.996
-63.836,78.061,-18.788,27.006,-66.866,84.067,-30.765,25.49,-53.312,75.022,-28.664,57.184,-45.612,71.259,2.1094,84.996
-63.833,78.089,-18.872,27.074,-66.801,84.057,-30.684,25.405,-53.351,75.084,-28.764,57.292,-45.645,71.306,2.1056,85.173
-63.833,78.089,-18.872,27.074,-66.801,84.057,-30.684,25.405,-53.351,75.084,-28.764,57.292,-45.645,71.306,2.1056,85.173
-63.827,78.114,-18.954,27.141,-66.735,84.046,-30.601,25.318,-53.388,75.144,-28.863,57.399,-45.676,71.351,2.1027,85.347
-63.827,78.114,-18.954,27.141,-66.735,84.046,-30.601,25.318,-53.388,75.144,-28.863,57.399,-45.676,71.351,2.1027,85.347
-63.818,78.138,-19.036,27.207,-66.666,84.032,-30.517,25.23,-53.422,75.201,-28.96,57.504,-45.705,71.394,2.1009,85.519
-63.818,78.138,-19.036,27.207,-66.666,84.032,-30.517,25.23,-53.422,75.201,-28.96,57.504,-45.705,71.394,2.1009,85.519
-63.808,78.16,-19.117,27.273,-66.594,84.017,-30.432,25.14,-53.454,75.257,-29.057,57.608,-45.732,71.435,2.1002,85.689
-63.808,78.16,-19.117,27.273,-66.594,84.017,-30.432,25.14,-53.454,75.257,-29.057,57.608,-45.732,71.435,2.1002,85.689
-63.795,78.18,-19.196,27.337,-66.521,83.999,-30.345,25.049,-53.483,75.31,-29.151,57.709,-45.758,71.474,2.1005,85.857
-63.795,78.18,-19.196,27.337,-66.521,83.999,-30.345,25.049,-53.483,75.31,-29.151,57.709,-45.758,71.474,2.1005,85.857
-63.779,78.198,-19.275,27.401,-66.444,83.979,-30.256,24.956,-53.51,75.361,-29.245,57.809,-45.782,71.512,2.1018,86.022
-63.779,78.198,-19.275,27.401,-66.444,83.979,-30.256,24.956,-53.51,75.361,-29.245,57.809,-45.782,71.512,2.1018,86.022
-63.762,78.213,-19.353,27.463,-66.366,83.957,-30.166,24.861,-53.535,75.41,-29.337,57.907,-45.804,71.547,2.1041,86.185
-63.762,78.213,-19.353,27.463,-66.366,83.957,-30.166,24.861,-53.535,75.41,-29.337,57.907,-45.804,71.547,2.1041,86.185
-63.741,78.227,-19.429,27.525,-66.285,83.933,-30.075,24.765,-53.557,75.457,-29.427,58.004,-45.824,71.581,2.1075,86.347
-63.741,78.227,-19.429,27.525,-66.285,83.933,-30.075,24.765,-53.557,75.457,-29.427,58.004,-45.824,71.581,2.1075,86.347
-63.719,78.238,-19.505,27.586,-66.201,83.908,-29.982,24.668,-53.577,75.501,-29.516,58.098,-45.843,71.613,2.112,86.506
-63.719,78.238,-19.505,27.586,-66.201,83.908,-29.982,24.668,-53.577,75.501,-29.516,58.098,-45.843,71.613,2.112,86.506
-63.694,78.248,-19.58,27.646,-66.115,83.88,-29.887,24.568,-53.594,75.544,-29.604,58.191,-45.859,71.643,2.1175,86.662
-63.694,78.248,-19.58,27.646,-66.115,83.88,-29.887,24.568,-53.594,75.544,-29.604,58.191,-45.859,71.643,2.1175,86.662
-63.667,78.255,-19.654,27.705,-66.027,83.85,-29.791,24.468,-53.609,75.584,-29.69,58.282,-45.874,71.671,2.1241,86.817
-63.637,78.261,-19.727,27.764,-65.936,83.818,-29.693,24.365,-53.622,75.622,-29.775,58.371,-45.887,71.697,2.1317,86.969
-63.637,78.261,-19.727,27.764,-65.936,83.818,-29.693,24.365,-53.622,75.622,-29.775,58.371,-45.887,71.697,2.1317,86.969
-63.605,78.264,-19.799,27.821,-65.843,83.784,-29.594,24.261,-53.632,75.658,-29.859,58.458,-45.899,71.721,2.1404,87.119
-63.605,78.264,-19.799,27.821,-65.843,83.784,-29.594,24.261,-53.632,75.658,-29.859,58.458,-45.899,71.721,2.1404,87.119
-63.605,78.264,-19.799,27.821,-65.843,83.784,-29.594,24.261,-53.632,75.658,-29.859,58.458,-45.899,71.721,2.1404,87.119
-63.571,78.265,-19.87,27.877,-65.747,83.747,-29.494,24.156,-53.64,75.691,-29.941,58.544,-45.908,71.743,2.1502,87.267
-63.571,78.265,-19.87,27.877,-65.747,83.747,-29.494,24.156,-53.64,75.691,-29.941,58.544,-45.908,71.743,2.1502,87.267
-63.571,78.265,-19.87,27.877,-65.747,83.747,-29.494,24.156,-53.64,75.691,-29.941,58.544,-45.908,71.743,2.1502,87.267
-63.534,78.265,-19.94,27.933,-65.65,83.709,-29.392,24.049,-53.645,75.723,-30.021,58.628,-45.916,71.764,2.1611,87.413
-63.534,78.265,-19.94,27.933,-65.65,83.709,-29.392,24.049,-53.645,75.723,-30.021,58.628,-45.916,71.764,2.1611,87.413
-63.534,78.265,-19.94,27.933,-65.65,83.709,-29.392,24.049,-53.645,75.723,-30.021,58.628,-45.916,71.764,2.1611,87.413
-63.454,78.257,-20.077,28.041,-65.447,83.627,-29.183,23.831,-53.649,75.779,-30.178,58.789,-45.926,71.799,2.186,87.697
-63.454,78.257,-20.077,28.041,-65.447,83.627,-29.183,23.831,-53.649,75.779,-30.178,58.789,-45.926,71.799,2.186,87.697
-63.41,78.25,-20.143,28.094,-65.341,83.583,-29.077,23.719,-53.647,75.804,-30.254,58.868,-45.929,71.814,2.2001,87.835
-63.41,78.25,-20.143,28.094,-65.341,83.583,-29.077,23.719,-53.647,75.804,-30.254,58.868,-45.929,71.814,2.2001,87.835
-63.364,78.241,-20.209,28.146,-65.234,83.537,-28.969,23.606,-53.642,75.827,-30.328,58.944,-45.93,71.826,2.2153,87.972
-63.364,78.241,-20.209,28.146,-65.234,83.537,-28.969,23.606,-53.642,75.827,-30.328,58.944,-45.93,71.826,2.2153,87.972
-63.315,78.23,-20.274,28.197,-65.124,83.488,-28.86,23.492,-53.636,75.848,-30.401,59.018,-45.929,71.837,2.2316,88.106
-63.315,78.23,-20.274,28.197,-65.124,83.488,-28.86,23.492,-53.636,75.848,-30.401,59.018,-45.929,71.837,2.2316,88.106
-63.264,78.217,-20.338,28.248,-65.012,83.438,-28.749,23.376,-53.627,75.866,-30.473,59.091,-45.926,71.846,2.2489,88.238
-63.264,78.217,-20.338,28.248,-65.012,83.438,-28.749,23.376,-53.627,75.866,-30.473,59.091,-45.926,71.846,2.2489,88.238
-63.211,78.202,-20.401,28.297,-64.897,83.386,-28.636,23.258,-53.615,75.882,-30.543,59.162,-45.922,71.853,2.2674,88.367
-63.211,78.202,-20.401,28.297,-64.897,83.386,-28.636,23.258,-53.615,75.882,-30.543,59.162,-45.922,71.853,2.2674,88.367
-63.156,78.185,-20.463,28.345,-64.78,83.332,-28.522,23.14,-53.601,75.896,-30.612,59.231,-45.915,71.859,2.287,88.494
-63.156,78.185,-20.463,28.345,-64.78,83.332,-28.522,23.14,-53.601,75.896,-30.612,59.231,-45.915,71.859,2.287,88.494
-63.156,78.185,-20.463,28.345,-64.78,83.332,-28.522,23.14,-53.601,75.896,-30.612,59.231,-45.915,71.859,2.287,88.494
-63.098,78.166,-20.524,28.393,-64.661,83.275,-28.407,23.019,-53.585,75.908,-30.679,59.298,-45.907,71.862,2.3076,88.619
-63.037,78.145,-20.584,28.439,-64.54,83.217,-28.29,22.898,-53.566,75.918,-30.744,59.363,-45.898,71.863,2.3294,88.742
-63.037,78.145,-20.584,28.439,-64.54,83.217,-28.29,22.898,-53.566,75.918,-30.744,59.363,-45.898,71.863,2.3294,88.742
-62.975,78.122,-20.642,28.485,-64.416,83.157,-28.172,22.774,-53.545,75.926,-30.808,59.426,-45.886,71.863,2.3523,88.862
-62.975,78.122,-20.642,28.485,-64.416,83.157,-28.172,22.774,-53.545,75.926,-30.808,59.426,-45.886,71.863,2.3523,88.862
-62.975,78.122,-20.642,28.485,-64.416,83.157,-28.172,22.774,-53.545,75.926,-30.808,59.426,-45.886,71.863,2.3523,88.862
-62.91,78.097,-20.7,28.53,-64.289,83.095,-28.053,22.65,-53.521,75.931,-30.871,59.487,-45.873,71.86,2.3763,88.979
-62.91,78.097,-20.7,28.53,-64.289,83.095,-28.053,22.65,-53.521,75.931,-30.871,59.487,-45.873,71.86,2.3763,88.979
-62.842,78.07,-20.757,28.574,-64.161,83.031,-27.931,22.524,-53.495,75.934,-30.932,59.547,-45.858,71.856,2.4014,89.095
-62.773,78.041,-20.813,28.617,-64.03,82.965,-27.809,22.396,-53.467,75.935,-30.992,59.604,-45.842,71.85,2.4276,89.208
-62.773,78.041,-20.813,28.617,-64.03,82.965,-27.809,22.396,-53.467,75.935,-30.992,59.604,-45.842,71.85,2.4276,89.208
-62.773,78.041,-20.813,28.617,-64.03,82.965,-27.809,22.396,-53.467,75.935,-30.992,59.604,-45.842,71.85,2.4276,89.208
-62.701,78.01,-20.867,28.659,-63.896,82.896,-27.685,22.268,-53.436,75.934,-31.05,59.66,-45.823,71.842,2.455,89.318
-62.627,77.977,-20.921,28.7,-63.761,82.826,-27.559,22.137,-53.403,75.931,-31.106,59.714,-45.803,71.832,2.4834,89.426
-62.55,77.941,-20.974,28.74,-63.623,82.754,-27.433,22.006,-53.367,75.926,-31.161,59.765,-45.782,71.82,2.513,89.532
-62.55,77.941,-20.974,28.74,-63.623,82.754,-27.433,22.006,-53.367,75.926,-31.161,59.765,-45.782,71.82,2.513,89.532
-62.471,77.904,-21.025,28.779,-63.483,82.68,-27.304,21.873,-53.329,75.918,-31.214,59.815,-45.758,71.806,2.5437,89.636
-62.471,77.904,-21.025,28.779,-63.483,82.68,-27.304,21.873,-53.329,75.918,-31.214,59.815,-45.758,71.806,2.5437,89.636
-62.471,77.904,-21.025,28.779,-63.483,82.68,-27.304,21.873,-53.329,75.918,-31.214,59.815,-45.758,71.806,2.5437,89.636
-62.39,77.865,-21.076,28.818,-63.34,82.605,-27.175,21.738,-53.289,75.908,-31.266,59.863,-45.733,71.791,2.5755,89.736
-62.39,77.865,-21.076,28.818,-63.34,82.605,-27.175,21.738,-53.289,75.908,-31.266,59.863,-45.733,71.791,2.5755,89.736
-62.306,77.824,-21.125,28.855,-63.195,82.527,-27.043,21.603,-53.246,75.896,-31.316,59.91,-45.706,71.773,2.6085,89.835
-62.306,77.824,-21.125,28.855,-63.195,82.527,-27.043,21.603,-53.246,75.896,-31.316,59.91,-45.706,71.773,2.6085,89.835
-62.22,77.781,-21.174,28.892,-63.048,82.447,-26.911,21.466,-53.201,75.882,-31.365,59.954,-45.678,71.754,2.6426,89.931
-62.132,77.736,-21.221,28.927,-62.899,82.365,-26.777,21.327,-53.154,75.866,-31.412,59.996,-45.647,71.732,2.6778,90.025
-62.132,77.736,-21.221,28.927,-62.899,82.365,-26.777,21.327,-53.154,75.866,-31.412,59.996,-45.647,71.732,2.6778,90.025
-62.132,77.736,-21.221,28.927,-62.899,82.365,-26.777,21.327,-53.154,75.866,-31.412,59.996,-45.647,71.732,2.6778,90.025
-62.042,77.689,-21.267,28.962,-62.747,82.282,-26.642,21.188,-53.104,75.848,-31.457,60.036,-45.616,71.709,2.7141,90.116
-62.042,77.689,-21.267,28.962,-62.747,82.282,-26.642,21.188,-53.104,75.848,-31.457,60.036,-45.616,71.709,2.7141,90.116
-62.042,77.689,-21.267,28.962,-62.747,82.282,-26.642,21.188,-53.104,75.848,-31.457,60.036,-45.616,71.709,2.7141,90.116
-61.949,77.64,-21.312,28.996,-62.593,82.196,-26.505,21.047,-53.052,75.827,-31.501,60.075,-45.582,71.684,2.7516,90.205
-61.949,77.64,-21.312,28.996,-62.593,82.196,-26.505,21.047,-53.052,75.827,-31.501,60.075,-45.582,71.684,2.7516,90.205
-61.854,77.589,-21.357,29.029,-62.437,82.109,-26.367,20.905,-52.998,75.805,-31.544,60.111,-45.547,71.657,2.7902,90.291
-61.756,77.536,-21.4,29.061,-62.278,82.019,-26.227,20.761,-52.941,75.78,-31.585,60.146,-45.51,71.628,2.83,90.375
-61.756,77.536,-21.4,29.061,-62.278,82.019,-26.227,20.761,-52.941,75.78,-31.585,60.146,-45.51,71.628,2.83,90.375
-61.657,77.481,-21.442,29.092,-62.118,81.928,-26.086,20.616,-52.882,75.753,-31.624,60.178,-45.471,71.598,2.8709,90.456
-61.657,77.481,-21.442,29.092,-62.118,81.928,-26.086,20.616,-52.882,75.753,-31.624,60.178,-45.471,71.598,2.8709,90.456
-61.555,77.424,-21.483,29.122,-61.955,81.835,-25.944,20.47,-52.82,75.724,-31.661,60.209,-45.431,71.565,2.9129,90.535
-61.555,77.424,-21.483,29.122,-61.955,81.835,-25.944,20.47,-52.82,75.724,-31.661,60.209,-45.431,71.565,2.9129,90.535
-61.555,77.424,-21.483,29.122,-61.955,81.835,-25.944,20.47,-52.82,75.724,-31.661,60.209,-45.431,71.565,2.9129,90.535
-61.451,77.365,-21.523,29.151,-61.79,81.74,-25.8,20.323,-52.756,75.693,-31.697,60.237,-45.39,71.53,2.9561,90.611
-61.345,77.305,-21.562,29.18,-61.622,81.643,-25.655,20.174,-52.69,75.66,-31.732,60.264,-45.346,71.494,3.0004,90.685
-61.345,77.305,-21.562,29.18,-61.622,81.643,-25.655,20.174,-52.69,75.66,-31.732,60.264,-45.346,71.494,3.0004,90.685
-61.345,77.305,-21.562,29.18,-61.622,81.643,-25.655,20.174,-52.69,75.66,-31.732,60.264,-45.346,71.494,3.0004,90.685
-61.236,77.242,-21.599,29.207,-61.453,81.544,-25.509,20.024,-52.622,75.624,-31.765,60.289,-45.301,71.456,3.0459,90.757
-61.125,77.177,-21.636,29.234,-61.281,81.444,-25.361,19.874,-52.551,75.587,-31.796,60.312,-45.254,71.416,3.0925,90.826
-61.125,77.177,-21.636,29.234,-61.281,81.444,-25.361,19.874,-52.551,75.587,-31.796,60.312,-45.254,71.416,3.0925,90.826
-61.012,77.111,-21.672,29.26,-61.107,81.341,-25.212,19.721,-52.478,75.547,-31.826,60.332,-45.206,71.374,3.1402,90.892
-61.012,77.111,-21.672,29.26,-61.107,81.341,-25.212,19.721,-52.478,75.547,-31.826,60.332,-45.206,71.374,3.1402,90.892
-60.897,77.042,-21.706,29.284,-60.931,81.237,-25.062,19.568,-52.402,75.506,-31.854,60.351,-45.156,71.33,3.1891,90.956
-60.897,77.042,-21.706,29.284,-60.931,81.237,-25.062,19.568,-52.402,75.506,-31.854,60.351,-45.156,71.33,3.1891,90.956
-60.779,76.972,-21.74,29.308,-60.753,81.131,-24.91,19.413,-52.325,75.462,-31.88,60.368,-45.105,71.285,3.2391,91.017
-60.779,76.972,-21.74,29.308,-60.753,81.131,-24.91,19.413,-52.325,75.462,-31.88,60.368,-45.105,71.285,3.2391,91.017
-60.779,76.972,-21.74,29.308,-60.753,81.131,-24.91,19.413,-52.325,75.462,-31.88,60.368,-45.105,71.285,3.2391,91.017
-60.659,76.9,-21.772,29.331,-60.572,81.023,-24.757,19.258,-52.244,75.416,-31.905,60.383,-45.051,71.237,3.2903,91.076
-60.659,76.9,-21.772,29.331,-60.572,81.023,-24.757,19.258,-52.244,75.416,-31.905,60.383,-45.051,71.237,3.2903,91.076
-60.659,76.9,-21.772,29.331,-60.572,81.023,-24.757,19.258,-52.244,75.416,-31.905,60.383,-45.051,71.237,3.2903,91.076
-60.413,76.749,-21.834,29.375,-60.205,80.802,-24.446,18.943,-52.078,75.318,-31.95,60.407,-44.94,71.137,3.3961,91.186
-60.413,76.749,-21.834,29.375,-60.205,80.802,-24.446,18.943,-52.078,75.318,-31.95,60.407,-44.94,71.137,3.3961,91.186
-60.287,76.671,-21.863,29.395,-60.018,80.688,-24.289,18.784,-51.991,75.266,-31.969,60.416,-44.882,71.084,3.4507,91.237
-60.287,76.671,-21.863,29.395,-60.018,80.688,-24.289,18.784,-51.991,75.266,-31.969,60.416,-44.882,71.084,3.4507,91.237
-60.158,76.592,-21.891,29.414,-59.829,80.573,-24.131,18.623,-51.902,75.212,-31.988,60.423,-44.823,71.029,3.5065,91.286
-60.158,76.592,-21.891,29.414,-59.829,80.573,-24.131,18.623,-51.902,75.212,-31.988,60.423,-44.823,71.029,3.5065,91.286
-60.027,76.51,-21.918,29.433,-59.638,80.456,-23.971,18.462,-51.81,75.155,-32.004,60.428,-44.762,70.972,3.5634,91.332
-60.027,76.51,-21.918,29.433,-59.638,80.456,-23.971,18.462,-51.81,75.155,-32.004,60.428,-44.762,70.972,3.5634,91.332
-59.895,76.426,-21.944,29.45,-59.445,80.338,-23.81,18.3,-51.717,75.097,-32.02,60.431,-44.699,70.914,3.6214,91.376
-59.895,76.426,-21.944,29.45,-59.445,80.338,-23.81,18.3,-51.717,75.097,-32.02,60.431,-44.699,70.914,3.6214,91.376
-59.76,76.341,-21.969,29.467,-59.249,80.217,-23.648,18.136,-51.621,75.037,-32.033,60.432,-44.635,70.853,3.6806,91.417
-59.76,76.341,-21.969,29.467,-59.249,80.217,-23.648,18.136,-51.621,75.037,-32.033,60.432,-44.635,70.853,3.6806,91.417
-59.76,76.341,-21.969,29.467,-59.249,80.217,-23.648,18.136,-51.621,75.037,-32.033,60.432,-44.635,70.853,3.6806,91.417
-59.622,76.254,-21.993,29.483,-59.052,80.095,-23.485,17.971,-51.523,74.974,-32.045,60.432,-44.57,70.791,3.741,91.455
-59.622,76.254,-21.993,29.483,-59.052,80.095,-23.485,17.971,-51.523,74.974,-32.045,60.432,-44.57,70.791,3.741,91.455
-59.483,76.164,-22.016,29.498,-58.853,79.971,-23.32,17.806,-51.423,74.91,-32.055,60.429,-44.502,70.727,3.8025,91.491
-59.342,76.073,-22.038,29.512,-58.651,79.845,-23.154,17.639,-51.32,74.843,-32.063,60.424,-44.434,70.661,3.8651,91.525
-59.198,75.981,-22.058,29.525,-58.447,79.718,-22.987,17.471,-51.215,74.775,-32.07,60.417,-44.363,70.594,3.9289,91.556
-59.198,75.981,-22.058,29.525,-58.447,79.718,-22.987,17.471,-51.215,74.775,-32.07,60.417,-44.363,70.594,3.9289,91.556
-59.198,75.981,-22.058,29.525,-58.447,79.718,-22.987,17.471,-51.215,74.775,-32.07,60.417,-44.363,70.594,3.9289,91.556
-59.052,75.886,-22.078,29.538,-58.242,79.588,-22.818,17.303,-51.108,74.704,-32.075,60.408,-44.291,70.524,3.9938,91.584
-59.052,75.886,-22.078,29.538,-58.242,79.588,-22.818,17.303,-51.108,74.704,-32.075,60.408,-44.291,70.524,3.9938,91.584
-59.052,75.886,-22.078,29.538,-58.242,79.588,-22.818,17.303,-51.108,74.704,-32.075,60.408,-44.291,70.524,3.9938,91.584
-58.904,75.789,-22.096,29.549,-58.034,79.457,-22.648,17.133,-50.999,74.631,-32.079,60.397,-44.218,70.453,4.0599,91.609
-58.755,75.691,-22.114,29.56,-57.824,79.325,-22.477,16.962,-50.888,74.557,-32.081,60.385,-44.143,70.38,4.1271,91.632
-58.603,75.591,-22.13,29.57,-57.613,79.19,-22.305,16.791,-50.775,74.48,-32.081,60.37,-44.067,70.305,4.1954,91.653
-58.603,75.591,-22.13,29.57,-57.613,79.19,-22.305,16.791,-50.775,74.48,-32.081,60.37,-44.067,70.305,4.1954,91.653
-58.603,75.591,-22.13,29.57,-57.613,79.19,-22.305,16.791,-50.775,74.48,-32.081,60.37,-44.067,70.305,4.1954,91.653
-58.449,75.489,-22.145,29.578,-57.399,79.054,-22.132,16.618,-50.659,74.401,-32.08,60.353,-43.989,70.229,4.2649,91.671
-58.449,75.489,-22.145,29.578,-57.399,79.054,-22.132,16.618,-50.659,74.401,-32.08,60.353,-43.989,70.229,4.2649,91.671
-58.292,75.386,-22.16,29.587,-57.183,78.917,-21.957,16.445,-50.541,74.321,-32.077,60.334,-43.91,70.15,4.3355,91.686
-58.292,75.386,-22.16,29.587,-57.183,78.917,-21.957,16.445,-50.541,74.321,-32.077,60.334,-43.91,70.15,4.3355,91.686
-58.292,75.386,-22.16,29.587,-57.183,78.917,-21.957,16.445,-50.541,74.321,-32.077,60.334,-43.91,70.15,4.3355,91.686
-58.134,75.28,-22.173,29.594,-56.965,78.777,-21.782,16.271,-50.421,74.238,-32.072,60.314,-43.829,70.07,4.4073,91.699
-57.974,75.173,-22.185,29.6,-56.746,78.636,-21.605,16.095,-50.299,74.153,-32.066,60.291,-43.747,69.988,4.4802,91.709
-57.974,75.173,-22.185,29.6,-56.746,78.636,-21.605,16.095,-50.299,74.153,-32.066,60.291,-43.747,69.988,4.4802,91.709
-57.812,75.064,-22.196,29.606,-56.524,78.494,-21.426,15.919,-50.175,74.067,-32.058,60.266,-43.663,69.904,4.5542,91.717
-57.812,75.064,-22.196,29.606,-56.524,78.494,-21.426,15.919,-50.175,74.067,-32.058,60.266,-43.663,69.904,4.5542,91.717
-57.647,74.953,-22.206,29.61,-56.301,78.349,-21.247,15.742,-50.049,73.978,-32.048,60.24,-43.578,69.819,4.6294,91.721
-57.647,74.953,-22.206,29.61,-56.301,78.349,-21.247,15.742,-50.049,73.978,-32.048,60.24,-43.578,69.819,4.6294,91.721
-57.481,74.841,-22.215,29.614,-56.075,78.203,-21.067,15.564,-49.921,73.888,-32.037,60.211,-43.492,69.731,4.7057,91.724
-57.481,74.841,-22.215,29.614,-56.075,78.203,-21.067,15.564,-49.921,73.888,-32.037,60.211,-43.492,69.731,4.7057,91.724
-57.313,74.726,-22.223,29.617,-55.848,78.056,-20.885,15.385,-49.79,73.795,-32.024,60.18,-43.404,69.642,4.7832,91.724
-57.313,74.726,-22.223,29.617,-55.848,78.056,-20.885,15.385,-49.79,73.795,-32.024,60.18,-43.404,69.642,4.7832,91.724
-57.313,74.726,-22.223,29.617,-55.848,78.056,-20.885,15.385,-49.79,73.795,-32.024,60.18,-43.404,69.642,4.7832,91.724
-57.143,74.61,-22.229,29.619,-55.618,77.906,-20.702,15.206,-49.658,73.7,-32.01,60.148,-43.314,69.552,4.8617,91.721
-57.143,74.61,-22.229,29.619,-55.618,77.906,-20.702,15.206,-49.658,73.7,-32.01,60.148,-43.314,69.552,4.8617,91.721
-57.143,74.61,-22.229,29.619,-55.618,77.906,-20.702,15.206,-49.658,73.7,-32.01,60.148,-43.314,69.552,4.8617,91.721
-56.796,74.373,-22.24,29.621,-55.154,77.603,-20.334,14.844,-49.387,73.506,-31.975,60.076,-43.131,69.365,5.0223,91.707
-56.796,74.373,-22.24,29.621,-55.154,77.603,-20.334,14.844,-49.387,73.506,-31.975,60.076,-43.131,69.365,5.0223,91.707
-56.62,74.252,-22.243,29.621,-54.919,77.449,-20.147,14.663,-49.248,73.405,-31.956,60.038,-43.038,69.269,5.1042,91.696
-56.62,74.252,-22.243,29.621,-54.919,77.449,-20.147,14.663,-49.248,73.405,-31.956,60.038,-43.038,69.269,5.1042,91.696
-56.442,74.129,-22.246,29.619,-54.682,77.294,-19.96,14.48,-49.107,73.303,-31.935,59.997,-42.943,69.171,5.1873,91.683
-56.442,74.129,-22.246,29.619,-54.682,77.294,-19.96,14.48,-49.107,73.303,-31.935,59.997,-42.943,69.171,5.1873,91.683
-56.262,74.005,-22.247,29.617,-54.444,77.137,-19.772,14.296,-48.964,73.199,-31.912,59.955,-42.846,69.072,5.2715,91.667
-56.262,74.005,-22.247,29.617,-54.444,77.137,-19.772,14.296,-48.964,73.199,-31.912,59.955,-42.846,69.072,5.2715,91.667
-56.08,73.879,-22.248,29.615,-54.203,76.978,-19.583,14.112,-48.82,73.093,-31.887,59.91,-42.749,68.97,5.3568,91.649
-56.08,73.879,-22.248,29.615,-54.203,76.978,-19.583,14.112,-48.82,73.093,-31.887,59.91,-42.749,68.97,5.3568,91.649
-55.896,73.751,-22.247,29.611,-53.961,76.818,-19.392,13.927,-48.673,72.985,-31.861,59.864,-42.65,68.868,5.4432,91.627
-55.71,73.621,-22.246,29.607,-53.717,76.656,-19.201,13.742,-48.524,72.875,-31.833,59.815,-42.549,68.763,5.5307,91.604
-55.71,73.621,-22.246,29.607,-53.717,76.656,-19.201,13.742,-48.524,72.875,-31.833,59.815,-42.549,68.763,5.5307,91.604
-55.71,73.621,-22.246,29.607,-53.717,76.656,-19.201,13.742,-48.524,72.875,-31.833,59.815,-42.549,68.763,5.5307,91.604
-55.522,73.49,-22.243,29.601,-53.471,76.493,-19.008,13.556,-48.374,72.763,-31.804,59.765,-42.447,68.657,5.6194,91.577
-55.522,73.49,-22.243,29.601,-53.471,76.493,-19.008,13.556,-48.374,72.763,-31.804,59.765,-42.447,68.657,5.6194,91.577
-55.333,73.357,-22.239,29.595,-53.223,76.328,-18.815,13.369,-48.221,72.649,-31.772,59.712,-42.344,68.549,5.7091,91.548
-55.141,73.223,-22.235,29.589,-52.974,76.162,-18.62,13.181,-48.066,72.534,-31.74,59.658,-42.24,68.439,5.8,91.517
-55.141,73.223,-22.235,29.589,-52.974,76.162,-18.62,13.181,-48.066,72.534,-31.74,59.658,-42.24,68.439,5.8,91.517
-55.141,73.223,-22.235,29.589,-52.974,76.162,-18.62,13.181,-48.066,72.534,-31.74,59.658,-42.24,68.439,5.8,91.517
-55.141,73.223,-22.235,29.589,-52.974,76.162,-18.62,13.181,-48.066,72.534,-31.74,59.658,-42.24,68.439,5.8,91.517
-54.948,73.086,-22.229,29.581,-52.723,75.994,-18.425,12.993,-47.91,72.417,-31.705,59.602,-42.134,68.328,5.8919,91.483
-54.948,73.086,-22.229,29.581,-52.723,75.994,-18.425,12.993,-47.91,72.417,-31.705,59.602,-42.134,68.328,5.8919,91.483
-54.753,72.949,-22.222,29.573,-52.47,75.825,-18.228,12.805,-47.751,72.297,-31.669,59.543,-42.027,68.215,5.985,91.446
-54.556,72.809,-22.214,29.564,-52.215,75.654,-18.031,12.615,-47.591,72.176,-31.631,59.483,-41.919,68.1,6.0792,91.406
-54.556,72.809,-22.214,29.564,-52.215,75.654,-18.031,12.615,-47.591,72.176,-31.631,59.483,-41.919,68.1,6.0792,91.406
-54.357,72.668,-22.206,29.554,-51.959,75.482,-17.832,12.425,-47.429,72.053,-31.592,59.421,-41.809,67.984,6.1744,91.364
-54.357,72.668,-22.206,29.554,-51.959,75.482,-17.832,12.425,-47.429,72.053,-31.592,59.421,-41.809,67.984,6.1744,91.364
-54.156,72.526,-22.196,29.543,-51.701,75.308,-17.633,12.235,-47.265,71.928,-31.551,59.357,-41.698,67.866,6.2708,91.32
-53.954,72.382,-22.185,29.532,-51.441,75.133,-17.432,12.044,-47.099,71.802,-31.508,59.29,-41.586,67.746,6.3682,91.273
-53.954,72.382,-22.185,29.532,-51.441,75.133,-17.432,12.044,-47.099,71.802,-31.508,59.29,-41.586,67.746,6.3682,91.273
-53.75,72.236,-22.173,29.52,-51.18,74.957,-17.231,11.853,-46.931,71.673,-31.463,59.222,-41.473,67.625,6.4667,91.223
-53.75,72.236,-22.173,29.52,-51.18,74.957,-17.231,11.853,-46.931,71.673,-31.463,59.222,-41.473,67.625,6.4667,91.223
-53.75,72.236,-22.173,29.52,-51.18,74.957,-17.231,11.853,-46.931,71.673,-31.463,59.222,-41.473,67.625,6.4667,91.223
-53.75,72.236,-22.173,29.52,-51.18,74.957,-17.231,11.853,-46.931,71.673,-31.463,59.222,-41.473,67.625,6.4667,91.223
-53.544,72.089,-22.16,29.507,-50.917,74.779,-17.028,11.661,-46.761,71.543,-31.417,59.152,-41.358,67.502,6.5663,91.17
-53.544,72.089,-22.16,29.507,-50.917,74.779,-17.028,11.661,-46.761,71.543,-31.417,59.152,-41.358,67.502,6.5663,91.17
-53.544,72.089,-22.16,29.507,-50.917,74.779,-17.028,11.661,-46.761,71.543,-31.417,59.152,-41.358,67.502,6.5663,91.17
-53.127,71.79,-22.132,29.479,-50.386,74.419,-16.621,11.275,-46.416,71.277,-31.32,59.006,-41.125,67.251,6.7687,91.057
-52.916,71.638,-22.116,29.464,-50.118,74.237,-16.416,11.082,-46.241,71.142,-31.269,58.93,-41.007,67.123,6.8715,90.997
-52.916,71.638,-22.116,29.464,-50.118,74.237,-16.416,11.082,-46.241,71.142,-31.269,58.93,-41.007,67.123,6.8715,90.997
-52.703,71.484,-22.099,29.448,-49.848,74.054,-16.21,10.888,-46.064,71.005,-31.216,58.853,-40.887,66.994,6.9754,90.934
-52.703,71.484,-22.099,29.448,-49.848,74.054,-16.21,10.888,-46.064,71.005,-31.216,58.853,-40.887,66.994,6.9754,90.934
-52.703,71.484,-22.099,29.448,-49.848,74.054,-16.21,10.888,-46.064,71.005,-31.216,58.853,-40.887,66.994,6.9754,90.934
-52.488,71.33,-22.081,29.432,-49.577,73.869,-16.003,10.694,-45.885,70.865,-31.162,58.773,-40.767,66.863,7.0804,90.869
-52.488,71.33,-22.081,29.432,-49.577,73.869,-16.003,10.694,-45.885,70.865,-31.162,58.773,-40.767,66.863,7.0804,90.869
-52.272,71.173,-22.062,29.415,-49.304,73.683,-15.796,10.499,-45.705,70.725,-31.106,58.691,-40.645,66.73,7.1864,90.801
-52.272,71.173,-22.062,29.415,-49.304,73.683,-15.796,10.499,-45.705,70.725,-31.106,58.691,-40.645,66.73,7.1864,90.801
-52.054,71.015,-22.043,29.397,-49.03,73.495,-15.587,10.304,-45.522,70.582,-31.049,58.607,-40.522,66.596,7.2934,90.73
-52.054,71.015,-22.043,29.397,-49.03,73.495,-15.587,10.304,-45.522,70.582,-31.049,58.607,-40.522,66.596,7.2934,90.73
-51.835,70.856,-22.022,29.378,-48.754,73.307,-15.378,10.109,-45.338,70.438,-30.989,58.522,-40.397,66.461,7.4016,90.657
-51.835,70.856,-22.022,29.378,-48.754,73.307,-15.378,10.109,-45.338,70.438,-30.989,58.522,-40.397,66.461,7.4016,90.657
-51.614,70.695,-22,29.359,-48.477,73.117,-15.168,9.9135,-45.153,70.292,-30.929,58.435,-40.272,66.323,7.5107,90.581
-51.614,70.695,-22,29.359,-48.477,73.117,-15.168,9.9135,-45.153,70.292,-30.929,58.435,-40.272,66.323,7.5107,90.581
-51.391,70.533,-21.978,29.339,-48.198,72.925,-14.957,9.7176,-44.965,70.144,-30.866,58.345,-40.145,66.185,7.6209,90.503
-51.391,70.533,-21.978,29.339,-48.198,72.925,-14.957,9.7176,-44.965,70.144,-30.866,58.345,-40.145,66.185,7.6209,90.503
-51.166,70.369,-21.954,29.318,-47.918,72.733,-14.745,9.5214,-44.776,69.994,-30.802,58.254,-40.018,66.044,7.7322,90.422
-51.166,70.369,-21.954,29.318,-47.918,72.733,-14.745,9.5214,-44.776,69.994,-30.802,58.254,-40.018,66.044,7.7322,90.422
-50.94,70.204,-21.93,29.297,-47.636,72.539,-14.532,9.3249,-44.585,69.843,-30.736,58.161,-39.889,65.902,7.8444,90.338
-50.94,70.204,-21.93,29.297,-47.636,72.539,-14.532,9.3249,-44.585,69.843,-30.736,58.161,-39.889,65.902,7.8444,90.338
-50.94,70.204,-21.93,29.297,-47.636,72.539,-14.532,9.3249,-44.585,69.843,-30.736,58.161,-39.889,65.902,7.8444,90.338
-50.713,70.037,-21.904,29.275,-47.353,72.344,-14.319,9.1282,-44.393,69.69,-30.669,58.066,-39.759,65.759,7.9577,90.252
-50.483,69.869,-21.878,29.252,-47.069,72.147,-14.105,8.9312,-44.199,69.536,-30.6,57.969,-39.628,65.614,8.0721,90.163
-50.253,69.7,-21.851,29.229,-46.782,71.95,-13.89,8.7341,-44.003,69.38,-30.529,57.87,-39.496,65.467,8.1874,90.072
-50.253,69.7,-21.851,29.229,-46.782,71.95,-13.89,8.7341,-44.003,69.38,-30.529,57.87,-39.496,65.467,8.1874,90.072
-50.253,69.7,-21.851,29.229,-46.782,71.95,-13.89,8.7341,-44.003,69.38,-30.529,57.87,-39.496,65.467,8.1874,90.072
-50.02,69.529,-21.822,29.205,-46.495,71.751,-13.675,8.5367,-43.806,69.222,-30.457,57.769,-39.363,65.319,8.3038,89.978
-50.02,69.529,-21.822,29.205,-46.495,71.751,-13.675,8.5367,-43.806,69.222,-30.457,57.769,-39.363,65.319,8.3038,89.978
-49.787,69.356,-21.793,29.18,-46.206,71.551,-13.459,8.3392,-43.607,69.062,-30.383,57.667,-39.228,65.17,8.4212,89.882
-49.551,69.183,-21.763,29.155,-45.916,71.35,-13.242,8.1415,-43.406,68.901,-30.308,57.562,-39.093,65.019,8.5395,89.783
-49.551,69.183,-21.763,29.155,-45.916,71.35,-13.242,8.1415,-43.406,68.901,-30.308,57.562,-39.093,65.019,8.5395,89.783
-49.315,69.008,-21.732,29.129,-45.624,71.147,-13.024,7.9436,-43.204,68.738,-30.231,57.456,-38.957,64.866,8.6589,89.682
-49.315,69.008,-21.732,29.129,-45.624,71.147,-13.024,7.9436,-43.204,68.738,-30.231,57.456,-38.957,64.866,8.6589,89.682
-49.315,69.008,-21.732,29.129,-45.624,71.147,-13.024,7.9436,-43.204,68.738,-30.231,57.456,-38.957,64.866,8.6589,89.682
-49.076,68.831,-21.7,29.103,-45.331,70.944,-12.806,7.7457,-43.001,68.574,-30.152,57.348,-38.819,64.712,8.7793,89.578
-49.076,68.831,-21.7,29.103,-45.331,70.944,-12.806,7.7457,-43.001,68.574,-30.152,57.348,-38.819,64.712,8.7793,89.578
-48.836,68.654,-21.668,29.076,-45.037,70.739,-12.587,7.5477,-42.795,68.408,-30.072,57.238,-38.681,64.557,8.9007,89.471
-48.836,68.654,-21.668,29.076,-45.037,70.739,-12.587,7.5477,-42.795,68.408,-30.072,57.238,-38.681,64.557,8.9007,89.471
-48.595,68.475,-21.634,29.048,-44.741,70.533,-12.367,7.3496,-42.589,68.24,-29.99,57.126,-38.541,64.4,9.023,89.362
-48.353,68.294,-21.599,29.02,-44.444,70.326,-12.147,7.1514,-42.381,68.071,-29.906,57.012,-38.401,64.242,9.1463,89.25
-48.353,68.294,-21.599,29.02,-44.444,70.326,-12.147,7.1514,-42.381,68.071,-29.906,57.012,-38.401,64.242,9.1463,89.25
-48.353,68.294,-21.599,29.02,-44.444,70.326,-12.147,7.1514,-42.381,68.071,-29.906,57.012,-38.401,64.242,9.1463,89.25
-48.108,68.113,-21.564,28.991,-44.146,70.118,-11.926,6.9533,-42.171,67.9,-29.821,56.897,-38.259,64.082,9.2706,89.136
-48.108,68.113,-21.564,28.991,-44.146,70.118,-11.926,6.9533,-42.171,67.9,-29.821,56.897,-38.259,64.082,9.2706,89.136
-48.108,68.113,-21.564,28.991,-44.146,70.118,-11.926,6.9533,-42.171,67.9,-29.821,56.897,-38.259,64.082,9.2706,89.136
-47.863,67.93,-21.528,28.962,-43.846,69.908,-11.705,6.7551,-41.96,67.728,-29.735,56.779,-38.117,63.921,9.3959,89.02
-47.863,67.93,-21.528,28.962,-43.846,69.908,-11.705,6.7551,-41.96,67.728,-29.735,56.779,-38.117,63.921,9.3959,89.02
-47.616,67.745,-21.491,28.932,-43.545,69.698,-11.483,6.5569,-41.747,67.554,-29.647,56.66,-37.974,63.758,9.5221,88.9
-47.616,67.745,-21.491,28.932,-43.545,69.698,-11.483,6.5569,-41.747,67.554,-29.647,56.66,-37.974,63.758,9.5221,88.9
-47.616,67.745,-21.491,28.932,-43.545,69.698,-11.483,6.5569,-41.747,67.554,-29.647,56.66,-37.974,63.758,9.5221,88.9
-47.118,67.373,-21.414,28.87,-42.94,69.274,-11.037,6.1606,-41.317,67.202,-29.465,56.416,-37.684,63.429,9.7774,88.655
-47.118,67.373,-21.414,28.87,-42.94,69.274,-11.037,6.1606,-41.317,67.202,-29.465,56.416,-37.684,63.429,9.7774,88.655
-46.867,67.185,-21.374,28.838,-42.636,69.06,-10.814,5.9626,-41.101,67.023,-29.373,56.291,-37.538,63.262,9.9065,88.528
-46.867,67.185,-21.374,28.838,-42.636,69.06,-10.814,5.9626,-41.101,67.023,-29.373,56.291,-37.538,63.262,9.9065,88.528
-46.615,66.996,-21.334,28.806,-42.33,68.846,-10.59,5.7647,-40.882,66.843,-29.278,56.165,-37.39,63.094,10.037,88.399
-46.615,66.996,-21.334,28.806,-42.33,68.846,-10.59,5.7647,-40.882,66.843,-29.278,56.165,-37.39,63.094,10.037,88.399
-46.361,66.805,-21.293,28.774,-42.023,68.63,-10.365,5.5669,-40.663,66.662,-29.182,56.037,-37.242,62.925,10.167,88.267
-46.361,66.805,-21.293,28.774,-42.023,68.63,-10.365,5.5669,-40.663,66.662,-29.182,56.037,-37.242,62.925,10.167,88.267
-46.106,66.613,-21.25,28.74,-41.715,68.414,-10.14,5.3692,-40.442,66.479,-29.085,55.907,-37.093,62.754,10.299,88.133
-46.106,66.613,-21.25,28.74,-41.715,68.414,-10.14,5.3692,-40.442,66.479,-29.085,55.907,-37.093,62.754,10.299,88.133
-46.106,66.613,-21.25,28.74,-41.715,68.414,-10.14,5.3692,-40.442,66.479,-29.085,55.907,-37.093,62.754,10.299,88.133
-45.85,66.42,-21.208,28.707,-41.406,68.196,-9.9145,5.1717,-40.219,66.294,-28.985,55.775,-36.944,62.581,10.432,87.997
-45.85,66.42,-21.208,28.707,-41.406,68.196,-9.9145,5.1717,-40.219,66.294,-28.985,55.775,-36.944,62.581,10.432,87.997
-45.593,66.226,-21.164,28.672,-41.096,67.977,-9.6884,4.9743,-39.995,66.108,-28.885,55.642,-36.793,62.408,10.566,87.858
-45.593,66.226,-21.164,28.672,-41.096,67.977,-9.6884,4.9743,-39.995,66.108,-28.885,55.642,-36.793,62.408,10.566,87.858
-45.334,66.031,-21.119,28.637,-40.784,67.758,-9.462,4.7772,-39.77,65.921,-28.783,55.506,-36.641,62.233,10.7,87.716
-45.334,66.031,-21.119,28.637,-40.784,67.758,-9.462,4.7772,-39.77,65.921,-28.783,55.506,-36.641,62.233,10.7,87.716
-45.074,65.834,-21.074,28.602,-40.472,67.537,-9.2351,4.5803,-39.544,65.732,-28.679,55.369,-36.489,62.057,10.836,87.572
-44.813,65.636,-21.028,28.567,-40.158,67.315,-9.0077,4.3836,-39.316,65.541,-28.574,55.23,-36.335,61.879,10.972,87.426
-44.813,65.636,-21.028,28.567,-40.158,67.315,-9.0077,4.3836,-39.316,65.541,-28.574,55.23,-36.335,61.879,10.972,87.426
-44.55,65.437,-20.981,28.53,-39.844,67.093,-8.78,4.1872,-39.088,65.35,-28.467,55.09,-36.181,61.7,11.11,87.277
-44.286,65.237,-20.934,28.494,-39.528,66.869,-8.552,3.9911,-38.857,65.157,-28.359,54.948,-36.026,61.52,11.248,87.126
-44.286,65.237,-20.934,28.494,-39.528,66.869,-8.552,3.9911,-38.857,65.157,-28.359,54.948,-36.026,61.52,11.248,87.126
-44.286,65.237,-20.934,28.494,-39.528,66.869,-8.552,3.9911,-38.857,65.157,-28.359,54.948,-36.026,61.52,11.248,87.126
-44.022,65.036,-20.885,28.456,-39.212,66.645,-8.3235,3.7953,-38.626,64.962,-28.249,54.804,-35.87,61.339,11.387,86.973
-44.022,65.036,-20.885,28.456,-39.212,66.645,-8.3235,3.7953,-38.626,64.962,-28.249,54.804,-35.87,61.339,11.387,86.973
-43.756,64.834,-20.836,28.419,-38.894,66.42,-8.0948,3.5998,-38.394,64.766,-28.137,54.658,-35.714,61.156,11.527,86.817
-43.756,64.834,-20.836,28.419,-38.894,66.42,-8.0948,3.5998,-38.394,64.766,-28.137,54.658,-35.714,61.156,11.527,86.817
-43.756,64.834,-20.836,28.419,-38.894,66.42,-8.0948,3.5998,-38.394,64.766,-28.137,54.658,-35.714,61.156,11.527,86.817
-43.489,64.63,-20.787,28.381,-38.575,66.194,-7.8656,3.4047,-38.16,64.569,-28.025,54.511,-35.556,60.972,11.668,86.658
-43.489,64.63,-20.787,28.381,-38.575,66.194,-7.8656,3.4047,-38.16,64.569,-28.025,54.511,-35.556,60.972,11.668,86.658
-43.489,64.63,-20.787,28.381,-38.575,66.194,-7.8656,3.4047,-38.16,64.569,-28.025,54.511,-35.556,60.972,11.668,86.658
-42.951,64.22,-20.685,28.304,-37.935,65.739,-7.4065,3.0156,-37.689,64.17,-27.795,54.211,-35.239,60.601,11.952,86.334
-42.951,64.22,-20.685,28.304,-37.935,65.739,-7.4065,3.0156,-37.689,64.17,-27.795,54.211,-35.239,60.601,11.952,86.334
-42.68,64.013,-20.633,28.264,-37.614,65.51,-7.1765,2.8216,-37.452,63.968,-27.677,54.059,-35.08,60.413,12.095,86.169
-42.68,64.013,-20.633,28.264,-37.614,65.51,-7.1765,2.8216,-37.452,63.968,-27.677,54.059,-35.08,60.413,12.095,86.169
-42.409,63.806,-20.58,28.225,-37.291,65.28,-6.9463,2.6281,-37.213,63.766,-27.559,53.905,-34.919,60.224,12.239,86.001
-42.409,63.806,-20.58,28.225,-37.291,65.28,-6.9463,2.6281,-37.213,63.766,-27.559,53.905,-34.919,60.224,12.239,86.001
-42.136,63.597,-20.527,28.185,-36.968,65.05,-6.7158,2.4351,-36.974,63.562,-27.439,53.749,-34.758,60.034,12.384,85.831
-41.862,63.387,-20.473,28.144,-36.644,64.819,-6.4851,2.2425,-36.733,63.356,-27.317,53.591,-34.596,59.843,12.53,85.658
-41.862,63.387,-20.473,28.144,-36.644,64.819,-6.4851,2.2425,-36.733,63.356,-27.317,53.591,-34.596,59.843,12.53,85.658
-41.862,63.387,-20.473,28.144,-36.644,64.819,-6.4851,2.2425,-36.733,63.356,-27.317,53.591,-34.596,59.843,12.53,85.658
-41.588,63.176,-20.418,28.103,-36.318,64.587,-6.2542,2.0505,-36.492,63.149,-27.194,53.432,-34.433,59.651,12.676,85.483
-41.588,63.176,-20.418,28.103,-36.318,64.587,-6.2542,2.0505,-36.492,63.149,-27.194,53.432,-34.433,59.651,12.676,85.483
-41.312,62.964,-20.363,28.062,-35.993,64.354,-6.0231,1.859,-36.249,62.941,-27.069,53.272,-34.27,59.457,12.824,85.306
-41.312,62.964,-20.363,28.062,-35.993,64.354,-6.0231,1.859,-36.249,62.941,-27.069,53.272,-34.27,59.457,12.824,85.306
-41.035,62.751,-20.307,28.02,-35.666,64.12,-5.7918,1.668,-36.005,62.732,-26.943,53.11,-34.106,59.263,12.972,85.127
-40.757,62.537,-20.25,27.979,-35.338,63.886,-5.5603,1.4777,-35.76,62.522,-26.816,52.946,-33.942,59.067,13.121,84.945
-40.757,62.537,-20.25,27.979,-35.338,63.886,-5.5603,1.4777,-35.76,62.522,-26.816,52.946,-33.942,59.067,13.121,84.945
-40.757,62.537,-20.25,27.979,-35.338,63.886,-5.5603,1.4777,-35.76,62.522,-26.816,52.946,-33.942,59.067,13.121,84.945
-40.757,62.537,-20.25,27.979,-35.338,63.886,-5.5603,1.4777,-35.76,62.522,-26.816,52.946,-33.942,59.067,13.121,84.945
-40.479,62.323,-20.193,27.936,-35.01,63.651,-5.3287,1.2879,-35.515,62.31,-26.687,52.78,-33.776,58.87,13.27,84.761
-40.479,62.323,-20.193,27.936,-35.01,63.651,-5.3287,1.2879,-35.515,62.31,-26.687,52.78,-33.776,58.87,13.27,84.761
-40.479,62.323,-20.193,27.936,-35.01,63.651,-5.3287,1.2879,-35.515,62.31,-26.687,52.78,-33.776,58.87,13.27,84.761
-39.918,61.89,-20.077,27.851,-34.351,63.179,-4.8652,0.9102,-35.02,61.882,-26.425,52.445,-33.444,58.472,13.572,84.386
-39.918,61.89,-20.077,27.851,-34.351,63.179,-4.8652,0.9102,-35.02,61.882,-26.425,52.445,-33.444,58.472,13.572,84.386
-39.637,61.672,-20.018,27.808,-34.02,62.941,-4.6333,0.72235,-34.772,61.667,-26.292,52.275,-33.277,58.272,13.724,84.195
-39.637,61.672,-20.018,27.808,-34.02,62.941,-4.6333,0.72235,-34.772,61.667,-26.292,52.275,-33.277,58.272,13.724,84.195
-39.637,61.672,-20.018,27.808,-34.02,62.941,-4.6333,0.72235,-34.772,61.667,-26.292,52.275,-33.277,58.272,13.724,84.195
-39.354,61.453,-19.958,27.764,-33.688,62.704,-4.4014,0.53518,-34.522,61.45,-26.158,52.103,-33.109,58.071,13.877,84.002
-39.071,61.234,-19.898,27.72,-33.356,62.465,-4.1694,0.34873,-34.272,61.232,-26.022,51.93,-32.94,57.868,14.03,83.807
-38.787,61.013,-19.837,27.676,-33.024,62.226,-3.9373,0.16301,-34.02,61.013,-25.885,51.755,-32.771,57.665,14.184,83.609
-38.787,61.013,-19.837,27.676,-33.024,62.226,-3.9373,0.16301,-34.02,61.013,-25.885,51.755,-32.771,57.665,14.184,83.609
-38.787,61.013,-19.837,27.676,-33.024,62.226,-3.9373,0.16301,-34.02,61.013,-25.885,51.755,-32.771,57.665,14.184,83.609
-38.502,60.792,-19.776,27.632,-32.69,61.986,-3.7053,-0.021948,-33.768,60.793,-25.747,51.579,-32.602,57.46,14.339,83.41
-38.502,60.792,-19.776,27.632,-32.69,61.986,-3.7053,-0.021948,-33.768,60.793,-25.747,51.579,-32.602,57.46,14.339,83.41
-38.216,60.569,-19.714,27.587,-32.356,61.745,-3.4732,-0.20613,-33.515,60.571,-25.607,51.401,-32.432,57.254,14.494,83.208
-38.216,60.569,-19.714,27.587,-32.356,61.745,-3.4732,-0.20613,-33.515,60.571,-25.607,51.401,-32.432,57.254,14.494,83.208
-38.216,60.569,-19.714,27.587,-32.356,61.745,-3.4732,-0.20613,-33.515,60.571,-25.607,51.401,-32.432,57.254,14.494,83.208
-37.929,60.346,-19.652,27.542,-32.021,61.504,-3.2412,-0.3895,-33.261,60.349,-25.465,51.222,-32.261,57.048,14.651,83.004
-37.929,60.346,-19.652,27.542,-32.021,61.504,-3.2412,-0.3895,-33.261,60.349,-25.465,51.222,-32.261,57.048,14.651,83.004
-37.353,59.897,-19.525,27.452,-31.35,61.02,-2.7773,-0.75376,-32.75,59.9,-25.179,50.859,-31.918,56.631,14.965,82.589
-37.353,59.897,-19.525,27.452,-31.35,61.02,-2.7773,-0.75376,-32.75,59.9,-25.179,50.859,-31.918,56.631,14.965,82.589
-37.353,59.897,-19.525,27.452,-31.35,61.02,-2.7773,-0.75376,-32.75,59.9,-25.179,50.859,-31.918,56.631,14.965,82.589
-37.064,59.672,-19.461,27.406,-31.013,60.777,-2.5454,-0.93458,-32.494,59.674,-25.034,50.675,-31.746,56.422,15.123,82.379
-37.064,59.672,-19.461,27.406,-31.013,60.777,-2.5454,-0.93458,-32.494,59.674,-25.034,50.675,-31.746,56.422,15.123,82.379
-37.064,59.672,-19.461,27.406,-31.013,60.777,-2.5454,-0.93458,-32.494,59.674,-25.034,50.675,-31.746,56.422,15.123,82.379
-36.774,59.445,-19.397,27.36,-30.676,60.534,-2.3136,-1.1145,-32.237,59.447,-24.887,50.49,-31.573,56.211,15.282,82.166
-36.483,59.218,-19.332,27.314,-30.338,60.29,-2.082,-1.2935,-31.979,59.219,-24.739,50.303,-31.4,55.999,15.442,81.951
-36.483,59.218,-19.332,27.314,-30.338,60.29,-2.082,-1.2935,-31.979,59.219,-24.739,50.303,-31.4,55.999,15.442,81.951
-36.192,58.989,-19.266,27.268,-30,60.046,-1.8505,-1.4716,-31.72,58.99,-24.59,50.115,-31.226,55.787,15.602,81.734
-35.9,58.76,-19.2,27.222,-29.661,59.8,-1.6191,-1.6487,-31.461,58.76,-24.44,49.926,-31.052,55.573,15.763,81.515
-35.9,58.76,-19.2,27.222,-29.661,59.8,-1.6191,-1.6487,-31.461,58.76,-24.44,49.926,-31.052,55.573,15.763,81.515
-35.9,58.76,-19.2,27.222,-29.661,59.8,-1.6191,-1.6487,-31.461,58.76,-24.44,49.926,-31.052,55.573,15.763,81.515
-35.607,58.531,-19.134,27.175,-29.321,59.555,-1.3879,-1.8248,-31.201,58.528,-24.288,49.735,-30.877,55.359,15.924,81.294
-35.607,58.531,-19.134,27.175,-29.321,59.555,-1.3879,-1.8248,-31.201,58.528,-24.288,49.735,-30.877,55.359,15.924,81.294
-35.313,58.3,-19.067,27.129,-28.982,59.309,-1.1569,-1.9999,-30.94,58.296,-24.135,49.543,-30.702,55.144,16.086,81.071
-35.313,58.3,-19.067,27.129,-28.982,59.309,-1.1569,-1.9999,-30.94,58.296,-24.135,49.543,-30.702,55.144,16.086,81.071
-35.019,58.069,-19,27.082,-28.641,59.062,-0.92615,-2.174,-30.679,58.063,-23.981,49.349,-30.526,54.927,16.249,80.846
-35.019,58.069,-19,27.082,-28.641,59.062,-0.92615,-2.174,-30.679,58.063,-23.981,49.349,-30.526,54.927,16.249,80.846
-35.019,58.069,-19,27.082,-28.641,59.062,-0.92615,-2.174,-30.679,58.063,-23.981,49.349,-30.526,54.927,16.249,80.846
-34.724,57.837,-18.933,27.035,-28.301,58.815,-0.69558,-2.347,-30.417,57.828,-23.825,49.154,-30.35,54.71,16.412,80.619
-34.724,57.837,-18.933,27.035,-28.301,58.815,-0.69558,-2.347,-30.417,57.828,-23.825,49.154,-30.35,54.71,16.412,80.619
-34.429,57.604,-18.865,26.988,-27.96,58.568,-0.46526,-2.519,-30.154,57.593,-23.669,48.958,-30.174,54.492,16.576,80.39
-34.133,57.371,-18.796,26.94,-27.618,58.32,-0.23521,-2.6898,-29.89,57.356,-23.511,48.76,-29.997,54.273,16.74,80.158
-34.133,57.371,-18.796,26.94,-27.618,58.32,-0.23521,-2.6898,-29.89,57.356,-23.511,48.76,-29.997,54.273,16.74,80.158
-33.836,57.136,-18.727,26.893,-27.276,58.072,-0.0054376,-2.8595,-29.627,57.119,-23.352,48.561,-29.82,54.054,16.905,79.925
-33.836,57.136,-18.727,26.893,-27.276,58.072,-0.0054376,-2.8595,-29.627,57.119,-23.352,48.561,-29.82,54.054,16.905,79.925
-33.539,56.902,-18.658,26.845,-26.934,57.823,0.22403,-3.028,-29.362,56.881,-23.191,48.361,-29.642,53.833,17.07,79.69
-33.539,56.902,-18.658,26.845,-26.934,57.823,0.22403,-3.028,-29.362,56.881,-23.191,48.361,-29.642,53.833,17.07,79.69
-33.241,56.666,-18.589,26.798,-26.591,57.574,0.45318,-3.1954,-29.097,56.641,-23.03,48.16,-29.465,53.612,17.236,79.453
-32.942,56.43,-18.519,26.75,-26.248,57.324,0.68198,-3.3616,-28.831,56.401,-22.867,47.957,-29.286,53.389,17.402,79.214
-32.942,56.43,-18.519,26.75,-26.248,57.324,0.68198,-3.3616,-28.831,56.401,-22.867,47.957,-29.286,53.389,17.402,79.214
-32.942,56.43,-18.519,26.75,-26.248,57.324,0.68198,-3.3616,-28.831,56.401,-22.867,47.957,-29.286,53.389,17.402,79.214
-32.643,56.193,-18.448,26.702,-25.905,57.075,0.91042,-3.5265,-28.565,56.16,-22.703,47.753,-29.108,53.166,17.569,78.973
-32.643,56.193,-18.448,26.702,-25.905,57.075,0.91042,-3.5265,-28.565,56.16,-22.703,47.753,-29.108,53.166,17.569,78.973
-32.344,55.955,-18.378,26.655,-25.561,56.824,1.1385,-3.6902,-28.299,55.918,-22.538,47.547,-28.929,52.942,17.737,78.73
-32.344,55.955,-18.378,26.655,-25.561,56.824,1.1385,-3.6902,-28.299,55.918,-22.538,47.547,-28.929,52.942,17.737,78.73
-32.344,55.955,-18.378,26.655,-25.561,56.824,1.1385,-3.6902,-28.299,55.918,-22.538,47.547,-28.929,52.942,17.737,78.73
-32.044,55.717,-18.307,26.607,-25.217,56.574,1.3662,-3.8527,-28.032,55.675,-22.372,47.341,-28.75,52.718,17.905,78.485
-31.743,55.479,-18.236,26.559,-24.873,56.323,1.5934,-4.0138,-27.764,55.431,-22.205,47.133,-28.57,52.493,18.073,78.239
-31.743,55.479,-18.236,26.559,-24.873,56.323,1.5934,-4.0138,-27.764,55.431,-22.205,47.133,-28.57,52.493,18.073,78.239
-31.442,55.239,-18.165,26.511,-24.528,56.072,1.8202,-4.1736,-27.496,55.186,-22.036,46.924,-28.39,52.266,18.242,77.99
-31.442,55.239,-18.165,26.511,-24.528,56.072,1.8202,-4.1736,-27.496,55.186,-22.036,46.924,-28.39,52.266,18.242,77.99
-31.141,54.999,-18.093,26.463,-24.184,55.82,2.0466,-4.3321,-27.228,54.941,-21.867,46.714,-28.21,52.04,18.411,77.74
-31.141,54.999,-18.093,26.463,-24.184,55.82,2.0466,-4.3321,-27.228,54.941,-21.867,46.714,-28.21,52.04,18.411,77.74
-30.839,54.759,-18.021,26.415,-23.839,55.569,2.2724,-4.4893,-26.959,54.694,-21.696,46.503,-28.03,51.812,18.581,77.488
-30.839,54.759,-18.021,26.415,-23.839,55.569,2.2724,-4.4893,-26.959,54.694,-21.696,46.503,-28.03,51.812,18.581,77.488
-30.537,54.518,-17.949,26.367,-23.494,55.317,2.4978,-4.645,-26.689,54.447,-21.524,46.29,-27.849,51.584,18.751,77.234
-30.537,54.518,-17.949,26.367,-23.494,55.317,2.4978,-4.645,-26.689,54.447,-21.524,46.29,-27.849,51.584,18.751,77.234
-30.234,54.276,-17.876,26.319,-23.149,55.064,2.7227,-4.7993,-26.42,54.199,-21.351,46.076,-27.669,51.355,18.921,76.978
-30.234,54.276,-17.876,26.319,-23.149,55.064,2.7227,-4.7993,-26.42,54.199,-21.351,46.076,-27.669,51.355,18.921,76.978
-30.234,54.276,-17.876,26.319,-23.149,55.064,2.7227,-4.7993,-26.42,54.199,-21.351,46.076,-27.669,51.355,18.921,76.978
-29.931,54.034,-17.803,26.271,-22.803,54.812,2.947,-4.9522,-26.15,53.95,-21.177,45.861,-27.487,51.125,19.092,76.72
-29.931,54.034,-17.803,26.271,-22.803,54.812,2.947,-4.9522,-26.15,53.95,-21.177,45.861,-27.487,51.125,19.092,76.72
-29.324,53.548,-17.657,26.175,-22.112,54.306,3.3939,-5.2536,-25.609,53.449,-20.826,45.428,-27.125,50.664,19.435,76.2
-29.324,53.548,-17.657,26.175,-22.112,54.306,3.3939,-5.2536,-25.609,53.449,-20.826,45.428,-27.125,50.664,19.435,76.2
-29.324,53.548,-17.657,26.175,-22.112,54.306,3.3939,-5.2536,-25.609,53.449,-20.826,45.428,-27.125,50.664,19.435,76.2
-29.02,53.304,-17.584,26.127,-21.766,54.053,3.6165,-5.4021,-25.338,53.198,-20.649,45.21,-26.943,50.432,19.607,75.937
-29.02,53.304,-17.584,26.127,-21.766,54.053,3.6165,-5.4021,-25.338,53.198,-20.649,45.21,-26.943,50.432,19.607,75.937
-28.715,53.06,-17.511,26.08,-21.42,53.8,3.8385,-5.549,-25.066,52.946,-20.471,44.991,-26.761,50.2,19.78,75.673
-28.715,53.06,-17.511,26.08,-21.42,53.8,3.8385,-5.549,-25.066,52.946,-20.471,44.991,-26.761,50.2,19.78,75.673
-28.41,52.815,-17.437,26.032,-21.074,53.546,4.0599,-5.6944,-24.795,52.693,-20.292,44.771,-26.579,49.967,19.953,75.406
-28.41,52.815,-17.437,26.032,-21.074,53.546,4.0599,-5.6944,-24.795,52.693,-20.292,44.771,-26.579,49.967,19.953,75.406
-28.105,52.57,-17.363,25.984,-20.728,53.292,4.2805,-5.8382,-24.523,52.44,-20.112,44.549,-26.397,49.734,20.126,75.139
-28.105,52.57,-17.363,25.984,-20.728,53.292,4.2805,-5.8382,-24.523,52.44,-20.112,44.549,-26.397,49.734,20.126,75.139
-27.8,52.324,-17.289,25.937,-20.382,53.039,4.5006,-5.9804,-24.251,52.185,-19.931,44.327,-26.215,49.5,20.299,74.869
-27.8,52.324,-17.289,25.937,-20.382,53.039,4.5006,-5.9804,-24.251,52.185,-19.931,44.327,-26.215,49.5,20.299,74.869
-27.8,52.324,-17.289,25.937,-20.382,53.039,4.5006,-5.9804,-24.251,52.185,-19.931,44.327,-26.215,49.5,20.299,74.869
-27.494,52.078,-17.215,25.889,-20.036,52.785,4.7199,-6.121,-23.979,51.93,-19.749,44.104,-26.032,49.265,20.473,74.598
-27.494,52.078,-17.215,25.889,-20.036,52.785,4.7199,-6.121,-23.979,51.93,-19.749,44.104,-26.032,49.265,20.473,74.598
-26.882,51.584,-17.067,25.795,-19.344,52.277,5.1564,-6.3972,-23.434,51.418,-19.382,43.654,-25.667,48.794,20.821,74.051
-26.882,51.584,-17.067,25.795,-19.344,52.277,5.1564,-6.3972,-23.434,51.418,-19.382,43.654,-25.667,48.794,20.821,74.051
-26.576,51.337,-16.992,25.748,-18.998,52.022,5.3735,-6.5328,-23.161,51.161,-19.197,43.427,-25.484,48.558,20.995,73.775
-26.576,51.337,-16.992,25.748,-18.998,52.022,5.3735,-6.5328,-23.161,51.161,-19.197,43.427,-25.484,48.558,20.995,73.775
-26.576,51.337,-16.992,25.748,-18.998,52.022,5.3735,-6.5328,-23.161,51.161,-19.197,43.427,-25.484,48.558,20.995,73.775
-26.269,51.089,-16.918,25.701,-18.652,51.768,5.5898,-6.6667,-22.888,50.904,-19.011,43.2,-25.301,48.321,21.17,73.497
-26.269,51.089,-16.918,25.701,-18.652,51.768,5.5898,-6.6667,-22.888,50.904,-19.011,43.2,-25.301,48.321,21.17,73.497
-25.962,50.841,-16.843,25.654,-18.306,51.514,5.8054,-6.7988,-22.615,50.645,-18.824,42.972,-25.118,48.084,21.345,73.218
-25.962,50.841,-16.843,25.654,-18.306,51.514,5.8054,-6.7988,-22.615,50.645,-18.824,42.972,-25.118,48.084,21.345,73.218
-25.655,50.593,-16.769,25.608,-17.961,51.26,6.0201,-6.9292,-22.342,50.386,-18.637,42.743,-24.935,47.846,21.52,72.938
-25.348,50.344,-16.694,25.561,-17.615,51.005,6.234,-7.0578,-22.068,50.127,-18.448,42.513,-24.752,47.608,21.696,72.656
-25.348,50.344,-16.694,25.561,-17.615,51.005,6.234,-7.0578,-22.068,50.127,-18.448,42.513,-24.752,47.608,21.696,72.656
-25.348,50.344,-16.694,25.561,-17.615,51.005,6.234,-7.0578,-22.068,50.127,-18.448,42.513,-24.752,47.608,21.696,72.656
-25.041,50.095,-16.62,25.515,-17.27,50.751,6.447,-7.1846,-21.795,49.866,-18.259,42.282,-24.569,47.369,21.871,72.372
-25.041,50.095,-16.62,25.515,-17.27,50.751,6.447,-7.1846,-21.795,49.866,-18.259,42.282,-24.569,47.369,21.871,72.372
-24.734,49.845,-16.545,25.469,-16.924,50.496,6.6592,-7.3096,-21.521,49.606,-18.069,42.05,-24.386,47.13,22.047,72.087
-24.734,49.845,-16.545,25.469,-16.924,50.496,6.6592,-7.3096,-21.521,49.606,-18.069,42.05,-24.386,47.13,22.047,72.087
-24.426,49.595,-16.47,25.423,-16.579,50.242,6.8705,-7.4327,-21.248,49.344,-17.878,41.817,-24.203,46.89,22.223,71.801
-24.119,49.345,-16.396,25.378,-16.234,49.988,7.0808,-7.5539,-20.974,49.082,-17.686,41.584,-24.02,46.65,22.399,71.513
-24.119,49.345,-16.396,25.378,-16.234,49.988,7.0808,-7.5539,-20.974,49.082,-17.686,41.584,-24.02,46.65,22.399,71.513
-24.119,49.345,-16.396,25.378,-16.234,49.988,7.0808,-7.5539,-20.974,49.082,-17.686,41.584,-24.02,46.65,22.399,71.513
-24.119,49.345,-16.396,25.378,-16.234,49.988,7.0808,-7.5539,-20.974,49.082,-17.686,41.584,-24.02,46.65,22.399,71.513
-23.811,49.095,-16.321,25.332,-15.889,49.733,7.2902,-7.6733,-20.701,48.82,-17.493,41.35,-23.837,46.41,22.575,71.223
-23.811,49.095,-16.321,25.332,-15.889,49.733,7.2902,-7.6733,-20.701,48.82,-17.493,41.35,-23.837,46.41,22.575,71.223
-23.811,49.095,-16.321,25.332,-15.889,49.733,7.2902,-7.6733,-20.701,48.82,-17.493,41.35,-23.837,46.41,22.575,71.223
-23.195,48.593,-16.172,25.242,-15.2,49.225,7.7062,-7.9062,-20.154,48.293,-17.106,40.879,-23.471,45.928,22.928,70.641
-23.195,48.593,-16.172,25.242,-15.2,49.225,7.7062,-7.9062,-20.154,48.293,-17.106,40.879,-23.471,45.928,22.928,70.641
-22.888,48.342,-16.097,25.198,-14.856,48.971,7.9127,-8.0197,-19.88,48.029,-16.911,40.642,-23.288,45.686,23.104,70.347
-22.888,48.342,-16.097,25.198,-14.856,48.971,7.9127,-8.0197,-19.88,48.029,-16.911,40.642,-23.288,45.686,23.104,70.347
-22.58,48.09,-16.023,25.153,-14.512,48.717,8.1182,-8.1312,-19.607,47.764,-16.715,40.405,-23.105,45.445,23.281,70.053
-22.272,47.839,-15.949,25.109,-14.169,48.463,8.3226,-8.2407,-19.334,47.499,-16.518,40.166,-22.922,45.202,23.457,69.757
-22.272,47.839,-15.949,25.109,-14.169,48.463,8.3226,-8.2407,-19.334,47.499,-16.518,40.166,-22.922,45.202,23.457,69.757
-22.272,47.839,-15.949,25.109,-14.169,48.463,8.3226,-8.2407,-19.334,47.499,-16.518,40.166,-22.922,45.202,23.457,69.757
-21.964,47.587,-15.875,25.066,-13.826,48.21,8.526,-8.3482,-19.061,47.234,-16.321,39.928,-22.739,44.96,23.634,69.459
-21.964,47.587,-15.875,25.066,-13.826,48.21,8.526,-8.3482,-19.061,47.234,-16.321,39.928,-22.739,44.96,23.634,69.459
-21.657,47.335,-15.801,25.022,-13.483,47.956,8.7283,-8.4536,-18.788,46.968,-16.123,39.688,-22.556,44.717,23.811,69.161
-21.657,47.335,-15.801,25.022,-13.483,47.956,8.7283,-8.4536,-18.788,46.968,-16.123,39.688,-22.556,44.717,23.811,69.161
-21.657,47.335,-15.801,25.022,-13.483,47.956,8.7283,-8.4536,-18.788,46.968,-16.123,39.688,-22.556,44.717,23.811,69.161
-21.349,47.082,-15.727,24.979,-13.14,47.703,8.9295,-8.5569,-18.515,46.701,-15.925,39.448,-22.374,44.474,23.987,68.861
-21.041,46.83,-15.653,24.936,-12.798,47.45,9.1296,-8.6582,-18.242,46.434,-15.726,39.207,-22.191,44.23,24.164,68.56
-21.041,46.83,-15.653,24.936,-12.798,47.45,9.1296,-8.6582,-18.242,46.434,-15.726,39.207,-22.191,44.23,24.164,68.56
-20.734,46.577,-15.579,24.894,-12.456,47.197,9.3286,-8.7573,-17.969,46.167,-15.526,38.965,-22.009,43.987,24.341,68.258
-20.734,46.577,-15.579,24.894,-12.456,47.197,9.3286,-8.7573,-17.969,46.167,-15.526,38.965,-22.009,43.987,24.341,68.258
-20.427,46.325,-15.506,24.851,-12.115,46.944,9.5264,-8.8542,-17.697,45.899,-15.325,38.723,-21.826,43.743,24.517,67.955
-20.427,46.325,-15.506,24.851,-12.115,46.944,9.5264,-8.8542,-17.697,45.899,-15.325,38.723,-21.826,43.743,24.517,67.955
-20.427,46.325,-15.506,24.851,-12.115,46.944,9.5264,-8.8542,-17.697,45.899,-15.325,38.723,-21.826,43.743,24.517,67.955
-20.119,46.072,-15.432,24.81,-11.774,46.691,9.723,-8.949,-17.424,45.631,-15.124,38.48,-21.644,43.498,24.694,67.65
-20.119,46.072,-15.432,24.81,-11.774,46.691,9.723,-8.949,-17.424,45.631,-15.124,38.48,-21.644,43.498,24.694,67.65
-19.812,45.819,-15.359,24.768,-11.434,46.439,9.9184,-9.0416,-17.152,45.362,-14.923,38.237,-21.462,43.254,24.87,67.345
-19.505,45.565,-15.286,24.727,-11.094,46.187,10.113,-9.132,-16.88,45.093,-14.72,37.993,-21.281,43.009,25.047,67.038
-19.198,45.312,-15.214,24.686,-10.754,45.935,10.306,-9.2202,-16.609,44.824,-14.517,37.749,-21.099,42.764,25.223,66.73
-19.198,45.312,-15.214,24.686,-10.754,45.935,10.306,-9.2202,-16.609,44.824,-14.517,37.749,-21.099,42.764,25.223,66.73
-19.198,45.312,-15.214,24.686,-10.754,45.935,10.306,-9.2202,-16.609,44.824,-14.517,37.749,-21.099,42.764,25.223,66.73
-18.892,45.059,-15.141,24.646,-10.415,45.684,10.497,-9.3061,-16.337,44.554,-14.314,37.504,-20.918,42.519,25.399,66.421
-18.892,45.059,-15.141,24.646,-10.415,45.684,10.497,-9.3061,-16.337,44.554,-14.314,37.504,-20.918,42.519,25.399,66.421
-18.585,44.805,-15.069,24.606,-10.076,45.432,10.688,-9.3897,-16.066,44.284,-14.11,37.258,-20.736,42.274,25.576,66.111
-18.585,44.805,-15.069,24.606,-10.076,45.432,10.688,-9.3897,-16.066,44.284,-14.11,37.258,-20.736,42.274,25.576,66.111
-18.279,44.552,-14.997,24.567,-9.7382,45.181,10.877,-9.471,-15.796,44.014,-13.905,37.012,-20.555,42.029,25.751,65.8
-18.279,44.552,-14.997,24.567,-9.7382,45.181,10.877,-9.471,-15.796,44.014,-13.905,37.012,-20.555,42.029,25.751,65.8
-17.973,44.298,-14.926,24.527,-9.4007,44.931,11.065,-9.55,-15.525,43.743,-13.7,36.765,-20.375,41.783,25.927,65.488
-17.973,44.298,-14.926,24.527,-9.4007,44.931,11.065,-9.55,-15.525,43.743,-13.7,36.765,-20.375,41.783,25.927,65.488
-17.667,44.045,-14.854,24.489,-9.0637,44.681,11.251,-9.6267,-15.255,43.472,-13.495,36.518,-20.194,41.538,26.103,65.175
-17.667,44.045,-14.854,24.489,-9.0637,44.681,11.251,-9.6267,-15.255,43.472,-13.495,36.518,-20.194,41.538,26.103,65.175
-17.361,43.791,-14.783,24.451,-8.7274,44.431,11.436,-9.7009,-14.985,43.201,-13.289,36.271,-20.014,41.292,26.278,64.862
-17.361,43.791,-14.783,24.451,-8.7274,44.431,11.436,-9.7009,-14.985,43.201,-13.289,36.271,-20.014,41.292,26.278,64.862
-17.056,43.538,-14.712,24.413,-8.3916,44.181,11.62,-9.7728,-14.716,42.93,-13.082,36.023,-19.834,41.046,26.453,64.547
-17.056,43.538,-14.712,24.413,-8.3916,44.181,11.62,-9.7728,-14.716,42.93,-13.082,36.023,-19.834,41.046,26.453,64.547
-17.056,43.538,-14.712,24.413,-8.3916,44.181,11.62,-9.7728,-14.716,42.93,-13.082,36.023,-19.834,41.046,26.453,64.547
-16.751,43.284,-14.642,24.375,-8.0564,43.932,11.803,-9.8423,-14.447,42.658,-12.876,35.775,-19.654,40.8,26.628,64.231
-16.446,43.03,-14.572,24.339,-7.7219,43.683,11.983,-9.9094,-14.178,42.386,-12.668,35.526,-19.475,40.554,26.803,63.915
-16.446,43.03,-14.572,24.339,-7.7219,43.683,11.983,-9.9094,-14.178,42.386,-12.668,35.526,-19.475,40.554,26.803,63.915
-16.446,43.03,-14.572,24.339,-7.7219,43.683,11.983,-9.9094,-14.178,42.386,-12.668,35.526,-19.475,40.554,26.803,63.915
-16.142,42.777,-14.502,24.302,-7.388,43.435,12.163,-9.974,-13.91,42.114,-12.461,35.277,-19.296,40.308,26.978,63.597
-16.142,42.777,-14.502,24.302,-7.388,43.435,12.163,-9.974,-13.91,42.114,-12.461,35.277,-19.296,40.308,26.978,63.597
-16.142,42.777,-14.502,24.302,-7.388,43.435,12.163,-9.974,-13.91,42.114,-12.461,35.277,-19.296,40.308,26.978,63.597
-15.534,42.27,-14.364,24.231,-6.7223,42.94,12.518,-10.096,-13.375,41.569,-12.044,34.778,-18.938,39.816,27.326,62.96
-15.534,42.27,-14.364,24.231,-6.7223,42.94,12.518,-10.096,-13.375,41.569,-12.044,34.778,-18.938,39.816,27.326,62.96
-15.534,42.27,-14.364,24.231,-6.7223,42.94,12.518,-10.096,-13.375,41.569,-12.044,34.778,-18.938,39.816,27.326,62.96
-15.231,42.016,-14.295,24.196,-6.3905,42.693,12.693,-10.153,-13.108,41.296,-11.835,34.528,-18.76,39.57,27.499,62.64
-14.928,41.763,-14.227,24.162,-6.0594,42.446,12.866,-10.208,-12.842,41.023,-11.626,34.278,-18.582,39.324,27.672,62.319
-14.625,41.51,-14.159,24.128,-5.7291,42.2,13.038,-10.26,-12.576,40.749,-11.417,34.027,-18.405,39.078,27.845,61.998
-14.625,41.51,-14.159,24.128,-5.7291,42.2,13.038,-10.26,-12.576,40.749,-11.417,34.027,-18.405,39.078,27.845,61.998
-14.323,41.257,-14.092,24.095,-5.3995,41.954,13.209,-10.309,-12.31,40.476,-11.207,33.776,-18.228,38.832,28.018,61.676
-14.323,41.257,-14.092,24.095,-5.3995,41.954,13.209,-10.309,-12.31,40.476,-11.207,33.776,-18.228,38.832,28.018,61.676
-14.323,41.257,-14.092,24.095,-5.3995,41.954,13.209,-10.309,-12.31,40.476,-11.207,33.776,-18.228,38.832,28.018,61.676
-14.022,41.004,-14.025,24.062,-5.0706,41.709,13.378,-10.356,-12.046,40.202,-10.997,33.525,-18.051,38.585,28.19,61.353
-14.022,41.004,-14.025,24.062,-5.0706,41.709,13.378,-10.356,-12.046,40.202,-10.997,33.525,-18.051,38.585,28.19,61.353
-14.022,41.004,-14.025,24.062,-5.0706,41.709,13.378,-10.356,-12.046,40.202,-10.997,33.525,-18.051,38.585,28.19,61.353
-13.72,40.751,-13.958,24.03,-4.7426,41.465,13.545,-10.4,-11.781,39.929,-10.786,33.274,-17.874,38.339,28.361,61.029
-13.42,40.498,-13.892,23.998,-4.4154,41.221,13.711,-10.442,-11.517,39.655,-10.576,33.022,-17.698,38.094,28.533,60.705
-13.119,40.246,-13.827,23.967,-4.089,40.977,13.875,-10.481,-11.254,39.381,-10.365,32.771,-17.523,37.848,28.704,60.38
-13.119,40.246,-13.827,23.967,-4.089,40.977,13.875,-10.481,-11.254,39.381,-10.365,32.771,-17.523,37.848,28.704,60.38
-13.119,40.246,-13.827,23.967,-4.089,40.977,13.875,-10.481,-11.254,39.381,-10.365,32.771,-17.523,37.848,28.704,60.38
-12.819,39.993,-13.762,23.937,-3.7635,40.734,14.037,-10.517,-10.992,39.107,-10.154,32.519,-17.348,37.602,28.874,60.055
-12.819,39.993,-13.762,23.937,-3.7635,40.734,14.037,-10.517,-10.992,39.107,-10.154,32.519,-17.348,37.602,28.874,60.055
-12.52,39.741,-13.697,23.907,-3.4388,40.492,14.198,-10.551,-10.73,38.833,-9.9428,32.267,-17.173,37.356,29.044,59.729
-12.52,39.741,-13.697,23.907,-3.4388,40.492,14.198,-10.551,-10.73,38.833,-9.9428,32.267,-17.173,37.356,29.044,59.729
-12.221,39.489,-13.633,23.877,-3.115,40.251,14.357,-10.582,-10.468,38.559,-9.7315,32.015,-16.999,37.111,29.213,59.403
-11.923,39.237,-13.57,23.849,-2.792,40.009,14.515,-10.61,-10.207,38.285,-9.52,31.762,-16.825,36.865,29.382,59.076
-11.923,39.237,-13.57,23.849,-2.792,40.009,14.515,-10.61,-10.207,38.285,-9.52,31.762,-16.825,36.865,29.382,59.076
-11.923,39.237,-13.57,23.849,-2.792,40.009,14.515,-10.61,-10.207,38.285,-9.52,31.762,-16.825,36.865,29.382,59.076
-11.625,38.985,-13.507,23.821,-2.47,39.769,14.67,-10.635,-9.9472,38.01,-9.3083,31.51,-16.651,36.62,29.55,58.748
-11.625,38.985,-13.507,23.821,-2.47,39.769,14.67,-10.635,-9.9472,38.01,-9.3083,31.51,-16.651,36.62,29.55,58.748
-11.328,38.734,-13.444,23.793,-2.149,39.529,14.824,-10.658,-9.6877,37.736,-9.0965,31.258,-16.478,36.375,29.718,58.42
-11.328,38.734,-13.444,23.793,-2.149,39.529,14.824,-10.658,-9.6877,37.736,-9.0965,31.258,-16.478,36.375,29.718,58.42
-11.328,38.734,-13.444,23.793,-2.149,39.529,14.824,-10.658,-9.6877,37.736,-9.0965,31.258,-16.478,36.375,29.718,58.42
-11.031,38.483,-13.383,23.767,-1.8289,39.29,14.976,-10.678,-9.429,37.462,-8.8847,31.005,-16.306,36.13,29.886,58.092
-11.031,38.483,-13.383,23.767,-1.8289,39.29,14.976,-10.678,-9.429,37.462,-8.8847,31.005,-16.306,36.13,29.886,58.092
-10.735,38.232,-13.321,23.74,-1.5097,39.052,15.127,-10.695,-9.1709,37.187,-8.6727,30.753,-16.134,35.886,30.052,57.763
-10.735,38.232,-13.321,23.74,-1.5097,39.052,15.127,-10.695,-9.1709,37.187,-8.6727,30.753,-16.134,35.886,30.052,57.763
-10.44,37.981,-13.261,23.715,-1.1915,38.814,15.275,-10.709,-8.9135,36.913,-8.4607,30.5,-15.962,35.641,30.218,57.433
-10.44,37.981,-13.261,23.715,-1.1915,38.814,15.275,-10.709,-8.9135,36.913,-8.4607,30.5,-15.962,35.641,30.218,57.433
-10.145,37.731,-13.201,23.69,-0.87436,38.577,15.422,-10.72,-8.6568,36.639,-8.2487,30.248,-15.791,35.397,30.384,57.104
-10.145,37.731,-13.201,23.69,-0.87436,38.577,15.422,-10.72,-8.6568,36.639,-8.2487,30.248,-15.791,35.397,30.384,57.104
-10.145,37.731,-13.201,23.69,-0.87436,38.577,15.422,-10.72,-8.6568,36.639,-8.2487,30.248,-15.791,35.397,30.384,57.104
-9.5576,37.231,-13.082,23.642,-0.24307,38.105,15.71,-10.734,-8.1457,36.09,-7.8245,29.743,-15.451,34.909,30.713,56.443
-9.5576,37.231,-13.082,23.642,-0.24307,38.105,15.71,-10.734,-8.1457,36.09,-7.8245,29.743,-15.451,34.909,30.713,56.443
-9.5576,37.231,-13.082,23.642,-0.24307,38.105,15.71,-10.734,-8.1457,36.09,-7.8245,29.743,-15.451,34.909,30.713,56.443
-9.2648,36.982,-13.024,23.62,0.071007,37.87,15.851,-10.737,-7.8913,35.816,-7.6125,29.491,-15.282,34.665,30.876,56.113
-9.2648,36.982,-13.024,23.62,0.071007,37.87,15.851,-10.737,-7.8913,35.816,-7.6125,29.491,-15.282,34.665,30.876,56.113
-8.9727,36.733,-12.967,23.598,0.38402,37.636,15.99,-10.737,-7.6377,35.542,-7.4005,29.238,-15.113,34.422,31.039,55.782
-8.9727,36.733,-12.967,23.598,0.38402,37.636,15.99,-10.737,-7.6377,35.542,-7.4005,29.238,-15.113,34.422,31.039,55.782
-8.9727,36.733,-12.967,23.598,0.38402,37.636,15.99,-10.737,-7.6377,35.542,-7.4005,29.238,-15.113,34.422,31.039,55.782
-8.3905,36.236,-12.854,23.555,1.0068,37.17,16.263,-10.727,-7.1328,34.994,-6.9766,28.734,-14.777,33.936,31.362,55.119
-8.3905,36.236,-12.854,23.555,1.0068,37.17,16.263,-10.727,-7.1328,34.994,-6.9766,28.734,-14.777,33.936,31.362,55.119
-8.1006,35.988,-12.798,23.536,1.3165,36.938,16.396,-10.718,-6.8816,34.72,-6.7648,28.483,-14.61,33.694,31.523,54.787
-8.1006,35.988,-12.798,23.536,1.3165,36.938,16.396,-10.718,-6.8816,34.72,-6.7648,28.483,-14.61,33.694,31.523,54.787
-7.8114,35.74,-12.743,23.516,1.6251,36.707,16.528,-10.706,-6.6313,34.446,-6.5531,28.231,-14.443,33.452,31.682,54.455
-7.5229,35.493,-12.689,23.498,1.9325,36.477,16.657,-10.691,-6.3818,34.173,-6.3416,27.979,-14.277,33.21,31.841,54.123
-7.5229,35.493,-12.689,23.498,1.9325,36.477,16.657,-10.691,-6.3818,34.173,-6.3416,27.979,-14.277,33.21,31.841,54.123
-7.2352,35.246,-12.636,23.48,2.2388,36.247,16.785,-10.673,-6.1331,33.899,-6.1302,27.728,-14.112,32.969,31.999,53.791
-7.2352,35.246,-12.636,23.48,2.2388,36.247,16.785,-10.673,-6.1331,33.899,-6.1302,27.728,-14.112,32.969,31.999,53.791
-7.2352,35.246,-12.636,23.48,2.2388,36.247,16.785,-10.673,-6.1331,33.899,-6.1302,27.728,-14.112,32.969,31.999,53.791
-6.9483,35,-12.584,23.463,2.5439,36.019,16.91,-10.652,-5.8854,33.626,-5.9189,27.477,-13.947,32.728,32.157,53.459
-6.9483,35,-12.584,23.463,2.5439,36.019,16.91,-10.652,-5.8854,33.626,-5.9189,27.477,-13.947,32.728,32.157,53.459
-6.6623,34.754,-12.532,23.447,2.8477,35.791,17.034,-10.627,-5.6385,33.353,-5.7079,27.226,-13.783,32.487,32.313,53.126
-6.6623,34.754,-12.532,23.447,2.8477,35.791,17.034,-10.627,-5.6385,33.353,-5.7079,27.226,-13.783,32.487,32.313,53.126
-6.377,34.508,-12.481,23.431,3.1504,35.564,17.155,-10.6,-5.3926,33.08,-5.4971,26.976,-13.62,32.247,32.469,52.794
-6.0926,34.263,-12.43,23.417,3.4518,35.339,17.275,-10.57,-5.1476,32.807,-5.2865,26.725,-13.457,32.007,32.623,52.461
-6.0926,34.263,-12.43,23.417,3.4518,35.339,17.275,-10.57,-5.1476,32.807,-5.2865,26.725,-13.457,32.007,32.623,52.461
-6.0926,34.263,-12.43,23.417,3.4518,35.339,17.275,-10.57,-5.1476,32.807,-5.2865,26.725,-13.457,32.007,32.623,52.461
-5.809,34.019,-12.381,23.403,3.752,35.114,17.392,-10.536,-4.9035,32.534,-5.0761,26.475,-13.295,31.768,32.777,52.129
-5.809,34.019,-12.381,23.403,3.752,35.114,17.392,-10.536,-4.9035,32.534,-5.0761,26.475,-13.295,31.768,32.777,52.129
-5.5263,33.775,-12.332,23.39,4.051,34.889,17.507,-10.499,-4.6603,32.262,-4.866,26.226,-13.133,31.529,32.93,51.796
-5.5263,33.775,-12.332,23.39,4.051,34.889,17.507,-10.499,-4.6603,32.262,-4.866,26.226,-13.133,31.529,32.93,51.796
-5.2445,33.531,-12.284,23.377,4.3486,34.666,17.62,-10.46,-4.4182,31.99,-4.6563,25.976,-12.972,31.29,33.082,51.463
-5.2445,33.531,-12.284,23.377,4.3486,34.666,17.62,-10.46,-4.4182,31.99,-4.6563,25.976,-12.972,31.29,33.082,51.463
-4.9636,33.288,-12.237,23.366,4.645,34.444,17.731,-10.417,-4.177,31.718,-4.4468,25.727,-12.812,31.052,33.233,51.131
-4.9636,33.288,-12.237,23.366,4.645,34.444,17.731,-10.417,-4.177,31.718,-4.4468,25.727,-12.812,31.052,33.233,51.131
-4.6836,33.045,-12.191,23.355,4.94,34.223,17.84,-10.371,-3.9368,31.446,-4.2376,25.479,-12.653,30.814,33.383,50.799
-4.4045,32.803,-12.145,23.345,5.2337,34.003,17.946,-10.321,-3.6976,31.175,-4.0288,25.23,-12.494,30.577,33.531,50.466
-4.4045,32.803,-12.145,23.345,5.2337,34.003,17.946,-10.321,-3.6976,31.175,-4.0288,25.23,-12.494,30.577,33.531,50.466
-4.1263,32.562,-12.101,23.336,5.5261,33.784,18.05,-10.269,-3.4594,30.903,-3.8204,24.983,-12.336,30.34,33.679,50.134
-4.1263,32.562,-12.101,23.336,5.5261,33.784,18.05,-10.269,-3.4594,30.903,-3.8204,24.983,-12.336,30.34,33.679,50.134
-4.1263,32.562,-12.101,23.336,5.5261,33.784,18.05,-10.269,-3.4594,30.903,-3.8204,24.983,-12.336,30.34,33.679,50.134
-3.8491,32.321,-12.057,23.328,5.8171,33.565,18.153,-10.213,-3.2223,30.633,-3.6124,24.735,-12.179,30.104,33.826,49.802
-3.8491,32.321,-12.057,23.328,5.8171,33.565,18.153,-10.213,-3.2223,30.633,-3.6124,24.735,-12.179,30.104,33.826,49.802
-3.8491,32.321,-12.057,23.328,5.8171,33.565,18.153,-10.213,-3.2223,30.633,-3.6124,24.735,-12.179,30.104,33.826,49.802
-3.5729,32.081,-12.014,23.32,6.1067,33.348,18.252,-10.154,-2.9861,30.362,-3.4048,24.488,-12.022,29.868,33.972,49.47
-3.2977,31.841,-11.972,23.314,6.395,33.132,18.35,-10.092,-2.7511,30.092,-3.1976,24.242,-11.867,29.633,34.116,49.139
-3.2977,31.841,-11.972,23.314,6.395,33.132,18.35,-10.092,-2.7511,30.092,-3.1976,24.242,-11.867,29.633,34.116,49.139
-3.0234,31.602,-11.931,23.308,6.6818,32.917,18.446,-10.026,-2.5171,29.822,-2.9908,23.996,-11.712,29.398,34.26,48.807
-2.7502,31.363,-11.891,23.303,6.9673,32.702,18.539,-9.9577,-2.2842,29.552,-2.7845,23.75,-11.557,29.164,34.402,48.476
-2.7502,31.363,-11.891,23.303,6.9673,32.702,18.539,-9.9577,-2.2842,29.552,-2.7845,23.75,-11.557,29.164,34.402,48.476
-2.7502,31.363,-11.891,23.303,6.9673,32.702,18.539,-9.9577,-2.2842,29.552,-2.7845,23.75,-11.557,29.164,34.402,48.476
-2.478,31.125,-11.852,23.299,7.2512,32.489,18.63,-9.8857,-2.0524,29.283,-2.5788,23.505,-11.404,28.931,34.544,48.145
-2.478,31.125,-11.852,23.299,7.2512,32.489,18.63,-9.8857,-2.0524,29.283,-2.5788,23.505,-11.404,28.931,34.544,48.145
-2.478,31.125,-11.852,23.299,7.2512,32.489,18.63,-9.8857,-2.0524,29.283,-2.5788,23.505,-11.404,28.931,34.544,48.145
-2.2069,30.888,-11.814,23.296,7.5338,32.277,18.718,-9.8104,-1.8217,29.014,-2.3735,23.261,-11.251,28.698,34.684,47.815
-2.2069,30.888,-11.814,23.296,7.5338,32.277,18.718,-9.8104,-1.8217,29.014,-2.3735,23.261,-11.251,28.698,34.684,47.815
-1.6677,30.415,-11.74,23.293,8.0944,31.857,18.888,-9.6497,-1.3637,28.477,-1.9645,22.774,-10.948,28.234,34.96,47.155
-1.6677,30.415,-11.74,23.293,8.0944,31.857,18.888,-9.6497,-1.3637,28.477,-1.9645,22.774,-10.948,28.234,34.96,47.155
-1.6677,30.415,-11.74,23.293,8.0944,31.857,18.888,-9.6497,-1.3637,28.477,-1.9645,22.774,-10.948,28.234,34.96,47.155
-1.3998,30.18,-11.704,23.292,8.3725,31.648,18.97,-9.5644,-1.1364,28.209,-1.7609,22.531,-10.797,28.002,35.097,46.825
-1.3998,30.18,-11.704,23.292,8.3725,31.648,18.97,-9.5644,-1.1364,28.209,-1.7609,22.531,-10.797,28.002,35.097,46.825
-1.1329,29.945,-11.67,23.293,8.6491,31.44,19.049,-9.4758,-0.91029,27.942,-1.5579,22.289,-10.648,27.772,35.232,46.496
-1.1329,29.945,-11.67,23.293,8.6491,31.44,19.049,-9.4758,-0.91029,27.942,-1.5579,22.289,-10.648,27.772,35.232,46.496
-1.1329,29.945,-11.67,23.293,8.6491,31.44,19.049,-9.4758,-0.91029,27.942,-1.5579,22.289,-10.648,27.772,35.232,46.496
-0.86722,29.711,-11.637,23.294,8.9241,31.234,19.126,-9.3837,-0.68532,27.675,-1.3555,22.048,-10.499,27.542,35.366,46.167
-0.86722,29.711,-11.637,23.294,8.9241,31.234,19.126,-9.3837,-0.68532,27.675,-1.3555,22.048,-10.499,27.542,35.366,46.167
-0.86722,29.711,-11.637,23.294,8.9241,31.234,19.126,-9.3837,-0.68532,27.675,-1.3555,22.048,-10.499,27.542,35.366,46.167
-0.33916,29.245,-11.573,23.3,9.4696,30.824,19.272,-9.1895,-0.23894,27.142,-0.95253,21.567,-10.204,27.084,35.63,45.511
-0.33916,29.245,-11.573,23.3,9.4696,30.824,19.272,-9.1895,-0.23894,27.142,-0.95253,21.567,-10.204,27.084,35.63,45.511
-0.076855,29.013,-11.542,23.304,9.74,30.621,19.342,-9.0873,-0.017553,26.876,-0.75206,21.327,-10.058,26.856,35.759,45.184
-0.076855,29.013,-11.542,23.304,9.74,30.621,19.342,-9.0873,-0.017553,26.876,-0.75206,21.327,-10.058,26.856,35.759,45.184
0.18428,28.782,-11.513,23.309,10.009,30.42,19.409,-8.9817,0.20262,26.611,-0.55228,21.089,-9.9123,26.629,35.888,44.857
0.18428,28.782,-11.513,23.309,10.009,30.42,19.409,-8.9817,0.20262,26.611,-0.55228,21.089,-9.9123,26.629,35.888,44.857
0.44422,28.552,-11.484,23.315,10.276,30.219,19.473,-8.8727,0.42156,26.346,-0.35322,20.851,-9.7677,26.402,36.015,44.531
0.44422,28.552,-11.484,23.315,10.276,30.219,19.473,-8.8727,0.42156,26.346,-0.35322,20.851,-9.7677,26.402,36.015,44.531
0.70297,28.322,-11.457,23.322,10.542,30.02,19.536,-8.7602,0.63927,26.082,-0.15488,20.613,-9.624,26.176,36.141,44.205
0.70297,28.322,-11.457,23.322,10.542,30.02,19.536,-8.7602,0.63927,26.082,-0.15488,20.613,-9.624,26.176,36.141,44.205
0.70297,28.322,-11.457,23.322,10.542,30.02,19.536,-8.7602,0.63927,26.082,-0.15488,20.613,-9.624,26.176,36.141,44.205
0.96051,28.093,-11.43,23.33,10.806,29.821,19.595,-8.6443,0.85572,25.818,0.042704,20.377,-9.4812,25.951,36.265,43.88
0.96051,28.093,-11.43,23.33,10.806,29.821,19.595,-8.6443,0.85572,25.818,0.042704,20.377,-9.4812,25.951,36.265,43.88
0.96051,28.093,-11.43,23.33,10.806,29.821,19.595,-8.6443,0.85572,25.818,0.042704,20.377,-9.4812,25.951,36.265,43.88
1.4719,27.638,-11.381,23.348,11.329,29.429,19.707,-8.402,1.2848,25.292,0.43554,19.906,-9.1982,25.502,36.51,43.231
1.4719,27.638,-11.381,23.348,11.329,29.429,19.707,-8.402,1.2848,25.292,0.43554,19.906,-9.1982,25.502,36.51,43.231
1.4719,27.638,-11.381,23.348,11.329,29.429,19.707,-8.402,1.2848,25.292,0.43554,19.906,-9.1982,25.502,36.51,43.231
