17.236,-36.49,16.4,-21.063,10.713,-19.152,11.871,-29.886,-4.9642,-13.173,41.248,-40.03,-7.2499,-56.946,-9.8646,-32.347
17.051,-36.29,16.212,-20.842,10.565,-18.882,11.615,-29.633,-5.1709,-12.822,40.965,-39.728,-7.3251,-56.383,-10.264,-31.991
17.051,-36.29,16.212,-20.842,10.565,-18.882,11.615,-29.633,-5.1709,-12.822,40.965,-39.728,-7.3251,-56.383,-10.264,-31.991
16.863,-36.088,16.022,-20.618,10.416,-18.61,11.357,-29.377,-5.3784,-12.469,40.677,-39.422,-7.4019,-55.815,-10.665,-31.633
16.673,-35.883,15.83,-20.393,10.265,-18.336,11.095,-29.12,-5.5866,-12.115,40.386,-39.112,-7.4802,-55.242,-11.067,-31.273
16.673,-35.883,15.83,-20.393,10.265,-18.336,11.095,-29.12,-5.5866,-12.115,40.386,-39.112,-7.4802,-55.242,-11.067,-31.273
16.482,-35.676,15.635,-20.165,10.113,-18.059,10.831,-28.861,-5.7956,-11.759,40.091,-38.799,-7.56,-54.664,-11.471,-30.911
16.482,-35.676,15.635,-20.165,10.113,-18.059,10.831,-28.861,-5.7956,-11.759,40.091,-38.799,-7.56,-54.664,-11.471,-30.911
16.482,-35.676,15.635,-20.165,10.113,-18.059,10.831,-28.861,-5.7956,-11.759,40.091,-38.799,-7.56,-54.664,-11.471,-30.911
16.288,-35.466,15.438,-19.934,9.9586,-17.781,10.565,-28.6,-6.0052,-11.402,39.792,-38.483,-7.6413,-54.081,-11.877,-30.546
16.288,-35.466,15.438,-19.934,9.9586,-17.781,10.565,-28.6,-6.0052,-11.402,39.792,-38.483,-7.6413,-54.081,-11.877,-30.546
16.093,-35.254,15.239,-19.702,9.8031,-17.5,10.296,-28.337,-6.2156,-11.043,39.488,-38.163,-7.7241,-53.494,-12.284,-30.179
16.093,-35.254,15.239,-19.702,9.8031,-17.5,10.296,-28.337,-6.2156,-11.043,39.488,-38.163,-7.7241,-53.494,-12.284,-30.179
15.896,-35.039,15.037,-19.467,9.6463,-17.217,10.024,-28.072,-6.4266,-10.683,39.181,-37.84,-7.8084,-52.902,-12.692,-29.81
15.896,-35.039,15.037,-19.467,9.6463,-17.217,10.024,-28.072,-6.4266,-10.683,39.181,-37.84,-7.8084,-52.902,-12.692,-29.81
15.697,-34.822,14.832,-19.23,9.488,-16.933,9.7493,-27.806,-6.6382,-10.321,38.87,-37.514,-7.8942,-52.305,-13.102,-29.439
15.697,-34.822,14.832,-19.23,9.488,-16.933,9.7493,-27.806,-6.6382,-10.321,38.87,-37.514,-7.8942,-52.305,-13.102,-29.439
15.496,-34.603,14.626,-18.991,9.3284,-16.646,9.4723,-27.538,-6.8505,-9.9578,38.554,-37.184,-7.9814,-51.703,-13.513,-29.065
15.496,-34.603,14.626,-18.991,9.3284,-16.646,9.4723,-27.538,-6.8505,-9.9578,38.554,-37.184,-7.9814,-51.703,-13.513,-29.065
15.293,-34.381,14.417,-18.75,9.1674,-16.358,9.1929,-27.268,-7.0634,-9.5933,38.235,-36.851,-8.0702,-51.097,-13.926,-28.69
15.293,-34.381,14.417,-18.75,9.1674,-16.358,9.1929,-27.268,-7.0634,-9.5933,38.235,-36.851,-8.0702,-51.097,-13.926,-28.69
15.089,-34.157,14.206,-18.506,9.0051,-16.067,8.9109,-26.997,-7.2768,-9.2275,37.912,-36.514,-8.1604,-50.486,-14.34,-28.312
15.089,-34.157,14.206,-18.506,9.0051,-16.067,8.9109,-26.997,-7.2768,-9.2275,37.912,-36.514,-8.1604,-50.486,-14.34,-28.312
15.089,-34.157,14.206,-18.506,9.0051,-16.067,8.9109,-26.997,-7.2768,-9.2275,37.912,-36.514,-8.1604,-50.486,-14.34,-28.312
14.883,-33.931,13.992,-18.261,8.8414,-15.775,8.6266,-26.723,-7.4908,-8.8603,37.585,-36.175,-8.252,-49.871,-14.755,-27.933
14.675,-33.702,13.777,-18.013,8.6765,-15.481,8.3398,-26.449,-7.7053,-8.4919,37.255,-35.832,-8.3451,-49.251,-15.172,-27.551
14.675,-33.702,13.777,-18.013,8.6765,-15.481,8.3398,-26.449,-7.7053,-8.4919,37.255,-35.832,-8.3451,-49.251,-15.172,-27.551
14.465,-33.471,13.559,-17.763,8.5104,-15.185,8.0506,-26.172,-7.9203,-8.1223,36.92,-35.486,-8.4397,-48.626,-15.59,-27.167
14.465,-33.471,13.559,-17.763,8.5104,-15.185,8.0506,-26.172,-7.9203,-8.1223,36.92,-35.486,-8.4397,-48.626,-15.59,-27.167
14.254,-33.238,13.339,-17.512,8.343,-14.887,7.7591,-25.894,-8.1358,-7.7514,36.582,-35.137,-8.5357,-47.997,-16.009,-26.782
14.254,-33.238,13.339,-17.512,8.343,-14.887,7.7591,-25.894,-8.1358,-7.7514,36.582,-35.137,-8.5357,-47.997,-16.009,-26.782
14.041,-33.003,13.117,-17.258,8.1744,-14.588,7.4653,-25.615,-8.3517,-7.3794,36.24,-34.784,-8.6331,-47.364,-16.43,-26.394
14.041,-33.003,13.117,-17.258,8.1744,-14.588,7.4653,-25.615,-8.3517,-7.3794,36.24,-34.784,-8.6331,-47.364,-16.43,-26.394
14.041,-33.003,13.117,-17.258,8.1744,-14.588,7.4653,-25.615,-8.3517,-7.3794,36.24,-34.784,-8.6331,-47.364,-16.43,-26.394
13.827,-32.765,12.892,-17.002,8.0047,-14.286,7.1692,-25.334,-8.5681,-7.0062,35.895,-34.428,-8.7319,-46.726,-16.851,-26.005
13.611,-32.526,12.666,-16.744,7.8338,-13.984,6.8708,-25.052,-8.7849,-6.632,35.545,-34.07,-8.8322,-46.084,-17.274,-25.613
13.611,-32.526,12.666,-16.744,7.8338,-13.984,6.8708,-25.052,-8.7849,-6.632,35.545,-34.07,-8.8322,-46.084,-17.274,-25.613
13.393,-32.284,12.437,-16.485,7.6618,-13.679,6.5702,-24.769,-9.0021,-6.2567,35.192,-33.708,-8.9338,-45.437,-17.698,-25.22
13.393,-32.284,12.437,-16.485,7.6618,-13.679,6.5702,-24.769,-9.0021,-6.2567,35.192,-33.708,-8.9338,-45.437,-17.698,-25.22
13.173,-32.04,12.206,-16.223,7.4887,-13.373,6.2673,-24.484,-9.2196,-5.8803,34.836,-33.343,-9.0369,-44.786,-18.123,-24.825
13.173,-32.04,12.206,-16.223,7.4887,-13.373,6.2673,-24.484,-9.2196,-5.8803,34.836,-33.343,-9.0369,-44.786,-18.123,-24.825
12.952,-31.795,11.974,-15.96,7.3146,-13.066,5.9624,-24.197,-9.4375,-5.503,34.476,-32.975,-9.1413,-44.131,-18.55,-24.428
12.952,-31.795,11.974,-15.96,7.3146,-13.066,5.9624,-24.197,-9.4375,-5.503,34.476,-32.975,-9.1413,-44.131,-18.55,-24.428
12.952,-31.795,11.974,-15.96,7.3146,-13.066,5.9624,-24.197,-9.4375,-5.503,34.476,-32.975,-9.1413,-44.131,-18.55,-24.428
12.73,-31.547,11.739,-15.694,7.1395,-12.757,5.6552,-23.91,-9.6557,-5.1246,34.112,-32.605,-9.2471,-43.472,-18.977,-24.029
12.506,-31.297,11.502,-15.427,6.9633,-12.446,5.346,-23.621,-9.8743,-4.7454,33.744,-32.231,-9.3542,-42.808,-19.405,-23.628
12.506,-31.297,11.502,-15.427,6.9633,-12.446,5.346,-23.621,-9.8743,-4.7454,33.744,-32.231,-9.3542,-42.808,-19.405,-23.628
12.281,-31.045,11.263,-15.158,6.7862,-12.134,5.0347,-23.331,-10.093,-4.3653,33.374,-31.854,-9.4627,-42.14,-19.835,-23.226
12.281,-31.045,11.263,-15.158,6.7862,-12.134,5.0347,-23.331,-10.093,-4.3653,33.374,-31.854,-9.4627,-42.14,-19.835,-23.226
12.054,-30.791,11.022,-14.887,6.6081,-11.821,4.7214,-23.04,-10.312,-3.9843,32.999,-31.474,-9.5725,-41.469,-20.265,-22.821
12.054,-30.791,11.022,-14.887,6.6081,-11.821,4.7214,-23.04,-10.312,-3.9843,32.999,-31.474,-9.5725,-41.469,-20.265,-22.821
12.054,-30.791,11.022,-14.887,6.6081,-11.821,4.7214,-23.04,-10.312,-3.9843,32.999,-31.474,-9.5725,-41.469,-20.265,-22.821
11.825,-30.535,10.78,-14.615,6.4291,-11.506,4.4061,-22.747,-10.531,-3.6025,32.622,-31.092,-9.6837,-40.793,-20.696,-22.416
11.825,-30.535,10.78,-14.615,6.4291,-11.506,4.4061,-22.747,-10.531,-3.6025,32.622,-31.092,-9.6837,-40.793,-20.696,-22.416
11.595,-30.278,10.535,-14.34,6.2492,-11.191,4.0888,-22.454,-10.751,-3.2198,32.241,-30.706,-9.7962,-40.113,-21.129,-22.008
11.364,-30.018,10.288,-14.064,6.0685,-10.873,3.7695,-22.16,-10.971,-2.8365,31.856,-30.318,-9.9099,-39.429,-21.562,-21.599
11.364,-30.018,10.288,-14.064,6.0685,-10.873,3.7695,-22.16,-10.971,-2.8365,31.856,-30.318,-9.9099,-39.429,-21.562,-21.599
11.132,-29.757,10.04,-13.786,5.8869,-10.555,3.4484,-21.864,-11.19,-2.4524,31.469,-29.927,-10.025,-38.741,-21.996,-21.188
11.132,-29.757,10.04,-13.786,5.8869,-10.555,3.4484,-21.864,-11.19,-2.4524,31.469,-29.927,-10.025,-38.741,-21.996,-21.188
10.898,-29.493,9.7894,-13.507,5.7045,-10.235,3.1254,-21.568,-11.41,-2.0676,31.077,-29.533,-10.141,-38.05,-22.431,-20.776
10.898,-29.493,9.7894,-13.507,5.7045,-10.235,3.1254,-21.568,-11.41,-2.0676,31.077,-29.533,-10.141,-38.05,-22.431,-20.776
10.662,-29.228,9.5372,-13.226,5.5213,-9.9143,2.8005,-21.27,-11.63,-1.6822,30.683,-29.137,-10.259,-37.354,-22.867,-20.362
10.662,-29.228,9.5372,-13.226,5.5213,-9.9143,2.8005,-21.27,-11.63,-1.6822,30.683,-29.137,-10.259,-37.354,-22.867,-20.362
10.662,-29.228,9.5372,-13.226,5.5213,-9.9143,2.8005,-21.27,-11.63,-1.6822,30.683,-29.137,-10.259,-37.354,-22.867,-20.362
10.426,-28.962,9.2832,-12.943,5.3374,-9.5923,2.4739,-20.972,-11.851,-1.2962,30.285,-28.737,-10.378,-36.655,-23.303,-19.946
10.188,-28.693,9.0274,-12.659,5.1527,-9.2692,2.1455,-20.673,-12.071,-0.90953,29.885,-28.335,-10.498,-35.951,-23.741,-19.529
10.188,-28.693,9.0274,-12.659,5.1527,-9.2692,2.1455,-20.673,-12.071,-0.90953,29.885,-28.335,-10.498,-35.951,-23.741,-19.529
9.9488,-28.423,8.7699,-12.373,4.9674,-8.9451,1.8154,-20.372,-12.291,-0.52236,29.481,-27.931,-10.619,-35.245,-24.179,-19.111
9.9488,-28.423,8.7699,-12.373,4.9674,-8.9451,1.8154,-20.372,-12.291,-0.52236,29.481,-27.931,-10.619,-35.245,-24.179,-19.111
9.7084,-28.151,8.5106,-12.085,4.7814,-8.6199,1.4835,-20.072,-12.512,-0.13468,29.074,-27.523,-10.742,-34.534,-24.617,-18.691
9.7084,-28.151,8.5106,-12.085,4.7814,-8.6199,1.4835,-20.072,-12.512,-0.13468,29.074,-27.523,-10.742,-34.534,-24.617,-18.691
9.4668,-27.877,8.2496,-11.797,4.5948,-8.2937,1.15,-19.77,-12.732,0.25348,28.663,-27.114,-10.865,-33.82,-25.057,-18.269
9.4668,-27.877,8.2496,-11.797,4.5948,-8.2937,1.15,-19.77,-12.732,0.25348,28.663,-27.114,-10.865,-33.82,-25.057,-18.269
9.4668,-27.877,8.2496,-11.797,4.5948,-8.2937,1.15,-19.77,-12.732,0.25348,28.663,-27.114,-10.865,-33.82,-25.057,-18.269
9.224,-27.602,7.9869,-11.506,4.4075,-7.9667,0.8149,-19.468,-12.952,0.64208,28.25,-26.701,-10.99,-33.102,-25.497,-17.846
9.224,-27.602,7.9869,-11.506,4.4075,-7.9667,0.8149,-19.468,-12.952,0.64208,28.25,-26.701,-10.99,-33.102,-25.497,-17.846
8.98,-27.325,7.7226,-11.214,4.2197,-7.6386,0.47819,-19.164,-13.172,1.0311,27.834,-26.286,-11.116,-32.381,-25.938,-17.422
8.98,-27.325,7.7226,-11.214,4.2197,-7.6386,0.47819,-19.164,-13.172,1.0311,27.834,-26.286,-11.116,-32.381,-25.938,-17.422
8.4886,-26.766,7.1891,-10.626,3.8423,-6.9801,-0.19985,-18.556,-13.613,1.8102,26.992,-25.449,-11.372,-30.927,-26.821,-16.57
8.4886,-26.766,7.1891,-10.626,3.8423,-6.9801,-0.19985,-18.556,-13.613,1.8102,26.992,-25.449,-11.372,-30.927,-26.821,-16.57
8.4886,-26.766,7.1891,-10.626,3.8423,-6.9801,-0.19985,-18.556,-13.613,1.8102,26.992,-25.449,-11.372,-30.927,-26.821,-16.57
8.2413,-26.484,6.9199,-10.33,3.6529,-6.6495,-0.54111,-18.251,-13.833,2.2002,26.567,-25.027,-11.501,-30.196,-27.263,-16.142
8.2413,-26.484,6.9199,-10.33,3.6529,-6.6495,-0.54111,-18.251,-13.833,2.2002,26.567,-25.027,-11.501,-30.196,-27.263,-16.142
8.2413,-26.484,6.9199,-10.33,3.6529,-6.6495,-0.54111,-18.251,-13.833,2.2002,26.567,-25.027,-11.501,-30.196,-27.263,-16.142
7.9928,-26.201,6.6492,-10.033,3.463,-6.3183,-0.88382,-17.946,-14.053,2.5905,26.139,-24.602,-11.632,-29.461,-27.706,-15.712
7.9928,-26.201,6.6492,-10.033,3.463,-6.3183,-0.88382,-17.946,-14.053,2.5905,26.139,-24.602,-11.632,-29.461,-27.706,-15.712
7.9928,-26.201,6.6492,-10.033,3.463,-6.3183,-0.88382,-17.946,-14.053,2.5905,26.139,-24.602,-11.632,-29.461,-27.706,-15.712
7.4928,-25.631,6.1032,-9.4341,3.0819,-5.6536,-1.5734,-17.333,-14.492,3.3717,25.274,-23.745,-11.896,-27.98,-28.593,-14.85
7.4928,-25.631,6.1032,-9.4341,3.0819,-5.6536,-1.5734,-17.333,-14.492,3.3717,25.274,-23.745,-11.896,-27.98,-28.593,-14.85
7.2413,-25.343,5.828,-9.1328,2.8908,-5.3203,-1.9202,-17.026,-14.711,3.7625,24.837,-23.314,-12.03,-27.235,-29.037,-14.417
7.2413,-25.343,5.828,-9.1328,2.8908,-5.3203,-1.9202,-17.026,-14.711,3.7625,24.837,-23.314,-12.03,-27.235,-29.037,-14.417
6.9888,-25.054,5.5513,-8.8303,2.6993,-4.9863,-2.2683,-16.719,-14.931,4.1535,24.398,-22.88,-12.165,-26.487,-29.482,-13.983
6.9888,-25.054,5.5513,-8.8303,2.6993,-4.9863,-2.2683,-16.719,-14.931,4.1535,24.398,-22.88,-12.165,-26.487,-29.482,-13.983
6.9888,-25.054,5.5513,-8.8303,2.6993,-4.9863,-2.2683,-16.719,-14.931,4.1535,24.398,-22.88,-12.165,-26.487,-29.482,-13.983
6.7353,-24.764,5.2732,-8.5266,2.5074,-4.6518,-2.6177,-16.411,-15.15,4.5446,23.956,-22.443,-12.3,-25.736,-29.927,-13.547
6.4809,-24.472,4.9937,-8.2217,2.3153,-4.3167,-2.9683,-16.103,-15.368,4.9357,23.511,-22.005,-12.437,-24.982,-30.372,-13.111
6.4809,-24.472,4.9937,-8.2217,2.3153,-4.3167,-2.9683,-16.103,-15.368,4.9357,23.511,-22.005,-12.437,-24.982,-30.372,-13.111
6.2256,-24.18,4.7129,-7.9157,2.1229,-3.9812,-3.3201,-15.794,-15.587,5.3269,23.064,-21.564,-12.575,-24.225,-30.817,-12.674
6.2256,-24.18,4.7129,-7.9157,2.1229,-3.9812,-3.3201,-15.794,-15.587,5.3269,23.064,-21.564,-12.575,-24.225,-30.817,-12.674
5.9694,-23.885,4.4307,-7.6085,1.9302,-3.6451,-3.673,-15.486,-15.805,5.718,22.614,-21.122,-12.714,-23.464,-31.263,-12.235
5.9694,-23.885,4.4307,-7.6085,1.9302,-3.6451,-3.673,-15.486,-15.805,5.718,22.614,-21.122,-12.714,-23.464,-31.263,-12.235
5.7123,-23.59,4.1472,-7.3003,1.7373,-3.3087,-4.0271,-15.177,-16.022,6.1091,22.161,-20.677,-12.853,-22.701,-31.709,-11.796
5.7123,-23.59,4.1472,-7.3003,1.7373,-3.3087,-4.0271,-15.177,-16.022,6.1091,22.161,-20.677,-12.853,-22.701,-31.709,-11.796
5.4543,-23.293,3.8624,-6.991,1.5443,-2.9718,-4.3822,-14.868,-16.24,6.5001,21.706,-20.23,-12.994,-21.935,-32.155,-11.356
5.4543,-23.293,3.8624,-6.991,1.5443,-2.9718,-4.3822,-14.868,-16.24,6.5001,21.706,-20.23,-12.994,-21.935,-32.155,-11.356
5.1956,-22.995,3.5763,-6.6807,1.351,-2.6346,-4.7383,-14.558,-16.457,6.8909,21.248,-19.781,-13.136,-21.166,-32.602,-10.914
5.1956,-22.995,3.5763,-6.6807,1.351,-2.6346,-4.7383,-14.558,-16.457,6.8909,21.248,-19.781,-13.136,-21.166,-32.602,-10.914
4.936,-22.696,3.289,-6.3694,1.1576,-2.2971,-5.0954,-14.249,-16.673,7.2816,20.788,-19.33,-13.278,-20.395,-33.048,-10.472
4.936,-22.696,3.289,-6.3694,1.1576,-2.2971,-5.0954,-14.249,-16.673,7.2816,20.788,-19.33,-13.278,-20.395,-33.048,-10.472
4.936,-22.696,3.289,-6.3694,1.1576,-2.2971,-5.0954,-14.249,-16.673,7.2816,20.788,-19.33,-13.278,-20.395,-33.048,-10.472
4.936,-22.696,3.289,-6.3694,1.1576,-2.2971,-5.0954,-14.249,-16.673,7.2816,20.788,-19.33,-13.278,-20.395,-33.048,-10.472
4.4147,-22.095,2.7108,-5.7438,0.77054,-1.6213,-5.8125,-13.63,-17.105,8.0624,19.861,-18.422,-13.565,-18.843,-33.941,-9.5855
4.4147,-22.095,2.7108,-5.7438,0.77054,-1.6213,-5.8125,-13.63,-17.105,8.0624,19.861,-18.422,-13.565,-18.843,-33.941,-9.5855
4.4147,-22.095,2.7108,-5.7438,0.77054,-1.6213,-5.8125,-13.63,-17.105,8.0624,19.861,-18.422,-13.565,-18.843,-33.941,-9.5855
4.1529,-21.792,2.42,-5.4297,0.5769,-1.2831,-6.1724,-13.321,-17.321,8.4524,19.394,-17.965,-13.71,-18.064,-34.387,-9.1409
3.8904,-21.489,2.1281,-5.1146,0.38324,-0.94465,-6.5331,-13.011,-17.536,8.8421,18.924,-17.507,-13.856,-17.281,-34.834,-8.6955
3.8904,-21.489,2.1281,-5.1146,0.38324,-0.94465,-6.5331,-13.011,-17.536,8.8421,18.924,-17.507,-13.856,-17.281,-34.834,-8.6955
3.6272,-21.184,1.8351,-4.7987,0.18957,-0.6061,-6.8947,-12.702,-17.75,9.2315,18.453,-17.046,-14.002,-16.497,-35.28,-8.2494
3.3634,-20.879,1.541,-4.482,-0.0040793,-0.26746,-7.257,-12.393,-17.964,9.6205,17.979,-16.584,-14.15,-15.71,-35.727,-7.8025
3.3634,-20.879,1.541,-4.482,-0.0040793,-0.26746,-7.257,-12.393,-17.964,9.6205,17.979,-16.584,-14.15,-15.71,-35.727,-7.8025
3.3634,-20.879,1.541,-4.482,-0.0040793,-0.26746,-7.257,-12.393,-17.964,9.6205,17.979,-16.584,-14.15,-15.71,-35.727,-7.8025
3.0989,-20.572,1.2458,-4.1645,-0.19767,0.071246,-7.62,-12.083,-18.177,10.009,17.503,-16.12,-14.298,-14.92,-36.173,-7.3551
3.0989,-20.572,1.2458,-4.1645,-0.19767,0.071246,-7.62,-12.083,-18.177,10.009,17.503,-16.12,-14.298,-14.92,-36.173,-7.3551
3.0989,-20.572,1.2458,-4.1645,-0.19767,0.071246,-7.62,-12.083,-18.177,10.009,17.503,-16.12,-14.298,-14.92,-36.173,-7.3551
2.8338,-20.265,0.94972,-3.8463,-0.39119,0.40997,-7.9837,-11.774,-18.39,10.397,17.024,-15.655,-14.446,-14.128,-36.619,-6.9069
2.5682,-19.957,0.65262,-3.5273,-0.5846,0.74869,-8.348,-11.466,-18.602,10.785,16.544,-15.187,-14.596,-13.334,-37.065,-6.4582
2.5682,-19.957,0.65262,-3.5273,-0.5846,0.74869,-8.348,-11.466,-18.602,10.785,16.544,-15.187,-14.596,-13.334,-37.065,-6.4582
2.3019,-19.647,0.35456,-3.2076,-0.77787,1.0874,-8.713,-11.157,-18.813,11.172,16.061,-14.718,-14.746,-12.538,-37.511,-6.0089
2.3019,-19.647,0.35456,-3.2076,-0.77787,1.0874,-8.713,-11.157,-18.813,11.172,16.061,-14.718,-14.746,-12.538,-37.511,-6.0089
2.0352,-19.337,0.055591,-2.8872,-0.97099,1.4259,-9.0785,-10.849,-19.024,11.559,15.577,-14.248,-14.897,-11.74,-37.956,-5.5591
2.0352,-19.337,0.055591,-2.8872,-0.97099,1.4259,-9.0785,-10.849,-19.024,11.559,15.577,-14.248,-14.897,-11.74,-37.956,-5.5591
1.7679,-19.026,-0.24427,-2.5662,-1.1639,1.7644,-9.4445,-10.541,-19.235,11.945,15.091,-13.776,-15.048,-10.939,-38.402,-5.1088
1.7679,-19.026,-0.24427,-2.5662,-1.1639,1.7644,-9.4445,-10.541,-19.235,11.945,15.091,-13.776,-15.048,-10.939,-38.402,-5.1088
1.7679,-19.026,-0.24427,-2.5662,-1.1639,1.7644,-9.4445,-10.541,-19.235,11.945,15.091,-13.776,-15.048,-10.939,-38.402,-5.1088
1.5002,-18.714,-0.54499,-2.2446,-1.3566,2.1027,-9.811,-10.233,-19.444,12.33,14.602,-13.302,-15.2,-10.137,-38.847,-4.658
1.2319,-18.402,-0.84655,-1.9224,-1.5491,2.4408,-10.178,-9.9259,-19.653,12.715,14.112,-12.827,-15.352,-9.3319,-39.291,-4.2068
1.2319,-18.402,-0.84655,-1.9224,-1.5491,2.4408,-10.178,-9.9259,-19.653,12.715,14.112,-12.827,-15.352,-9.3319,-39.291,-4.2068
0.96327,-18.089,-1.1489,-1.5996,-1.7413,2.7787,-10.545,-9.6191,-19.861,13.099,13.62,-12.35,-15.506,-8.5254,-39.735,-3.7551
0.96327,-18.089,-1.1489,-1.5996,-1.7413,2.7787,-10.545,-9.6191,-19.861,13.099,13.62,-12.35,-15.506,-8.5254,-39.735,-3.7551
0.69418,-17.775,-1.452,-1.2763,-1.9333,3.1163,-10.913,-9.3127,-20.069,13.482,13.126,-11.872,-15.659,-7.717,-40.179,-3.3031
0.69418,-17.775,-1.452,-1.2763,-1.9333,3.1163,-10.913,-9.3127,-20.069,13.482,13.126,-11.872,-15.659,-7.717,-40.179,-3.3031
0.69418,-17.775,-1.452,-1.2763,-1.9333,3.1163,-10.913,-9.3127,-20.069,13.482,13.126,-11.872,-15.659,-7.717,-40.179,-3.3031
0.42469,-17.46,-1.7559,-0.95259,-2.1249,3.4536,-11.281,-9.0068,-20.276,13.865,12.63,-11.393,-15.813,-6.9068,-40.622,-2.8508
0.42469,-17.46,-1.7559,-0.95259,-2.1249,3.4536,-11.281,-9.0068,-20.276,13.865,12.63,-11.393,-15.813,-6.9068,-40.622,-2.8508
0.15483,-17.145,-2.0605,-0.62838,-2.3161,3.7906,-11.65,-8.7015,-20.482,14.247,12.132,-10.912,-15.968,-6.0949,-41.065,-2.3982
0.15483,-17.145,-2.0605,-0.62838,-2.3161,3.7906,-11.65,-8.7015,-20.482,14.247,12.132,-10.912,-15.968,-6.0949,-41.065,-2.3982
0.15483,-17.145,-2.0605,-0.62838,-2.3161,3.7906,-11.65,-8.7015,-20.482,14.247,12.132,-10.912,-15.968,-6.0949,-41.065,-2.3982
0.15483,-17.145,-2.0605,-0.62838,-2.3161,3.7906,-11.65,-8.7015,-20.482,14.247,12.132,-10.912,-15.968,-6.0949,-41.065,-2.3982
-0.38593,-16.512,-2.6717,0.02129,-2.6975,4.4634,-12.387,-8.0925,-20.891,15.008,11.132,-9.9465,-16.278,-4.466,-41.949,-1.4922
-0.38593,-16.512,-2.6717,0.02129,-2.6975,4.4634,-12.387,-8.0925,-20.891,15.008,11.132,-9.9465,-16.278,-4.466,-41.949,-1.4922
-0.38593,-16.512,-2.6717,0.02129,-2.6975,4.4634,-12.387,-8.0925,-20.891,15.008,11.132,-9.9465,-16.278,-4.466,-41.949,-1.4922
-0.92791,-15.877,-3.2854,0.67241,-3.0772,5.1344,-13.125,-7.486,-21.298,15.765,10.125,-8.9762,-16.591,-2.8307,-42.831,-0.58533
-0.92791,-15.877,-3.2854,0.67241,-3.0772,5.1344,-13.125,-7.486,-21.298,15.765,10.125,-8.9762,-16.591,-2.8307,-42.831,-0.58533
-0.92791,-15.877,-3.2854,0.67241,-3.0772,5.1344,-13.125,-7.486,-21.298,15.765,10.125,-8.9762,-16.591,-2.8307,-42.831,-0.58533
-1.1993,-15.559,-3.5932,0.99844,-3.2664,5.4692,-13.494,-7.1838,-21.499,16.143,9.6196,-8.4893,-16.747,-2.0109,-43.271,-0.1317
-1.1993,-15.559,-3.5932,0.99844,-3.2664,5.4692,-13.494,-7.1838,-21.499,16.143,9.6196,-8.4893,-16.747,-2.0109,-43.271,-0.1317
-1.4709,-15.24,-3.9014,1.3247,-3.455,5.8034,-13.864,-6.8823,-21.7,16.519,9.1124,-8.0013,-16.904,-1.1897,-43.71,0.32202
-1.7428,-14.921,-4.2102,1.6513,-3.6432,6.1371,-14.233,-6.5816,-21.901,16.894,8.6037,-7.5123,-17.061,-0.36722,-44.148,0.77579
-1.7428,-14.921,-4.2102,1.6513,-3.6432,6.1371,-14.233,-6.5816,-21.901,16.894,8.6037,-7.5123,-17.061,-0.36722,-44.148,0.77579
-2.0148,-14.601,-4.5195,1.978,-3.8308,6.4701,-14.602,-6.2816,-22.1,17.269,8.0937,-7.0222,-17.219,0.45657,-44.586,1.2296
-2.0148,-14.601,-4.5195,1.978,-3.8308,6.4701,-14.602,-6.2816,-22.1,17.269,8.0937,-7.0222,-17.219,0.45657,-44.586,1.2296
-2.287,-14.281,-4.8292,2.305,-4.0178,6.8025,-14.972,-5.9826,-22.298,17.642,7.5822,-6.5311,-17.377,1.2816,-45.023,1.6834
-2.287,-14.281,-4.8292,2.305,-4.0178,6.8025,-14.972,-5.9826,-22.298,17.642,7.5822,-6.5311,-17.377,1.2816,-45.023,1.6834
-2.5593,-13.961,-5.1393,2.632,-4.2042,7.1341,-15.341,-5.6843,-22.495,18.014,7.0694,-6.039,-17.535,2.1077,-45.459,2.1371
-2.5593,-13.961,-5.1393,2.632,-4.2042,7.1341,-15.341,-5.6843,-22.495,18.014,7.0694,-6.039,-17.535,2.1077,-45.459,2.1371
-2.5593,-13.961,-5.1393,2.632,-4.2042,7.1341,-15.341,-5.6843,-22.495,18.014,7.0694,-6.039,-17.535,2.1077,-45.459,2.1371
-2.8318,-13.64,-5.4499,2.9592,-4.39,7.4651,-15.71,-5.387,-22.692,18.385,6.5553,-5.5461,-17.693,2.9349,-45.894,2.5908
-3.1044,-13.319,-5.7607,3.2865,-4.5751,7.7953,-16.078,-5.0906,-22.887,18.754,6.0399,-5.0522,-17.851,3.7631,-46.329,3.0444
-3.1044,-13.319,-5.7607,3.2865,-4.5751,7.7953,-16.078,-5.0906,-22.887,18.754,6.0399,-5.0522,-17.851,3.7631,-46.329,3.0444
-3.377,-12.997,-6.072,3.6138,-4.7596,8.1247,-16.447,-4.7952,-23.082,19.123,5.5233,-4.5576,-18.01,4.5923,-46.762,3.4978
-3.377,-12.997,-6.072,3.6138,-4.7596,8.1247,-16.447,-4.7952,-23.082,19.123,5.5233,-4.5576,-18.01,4.5923,-46.762,3.4978
-3.6497,-12.676,-6.3835,3.9411,-4.9434,8.4533,-16.815,-4.5008,-23.275,19.49,5.0055,-4.0621,-18.169,5.4224,-47.194,3.951
-3.6497,-12.676,-6.3835,3.9411,-4.9434,8.4533,-16.815,-4.5008,-23.275,19.49,5.0055,-4.0621,-18.169,5.4224,-47.194,3.951
-3.6497,-12.676,-6.3835,3.9411,-4.9434,8.4533,-16.815,-4.5008,-23.275,19.49,5.0055,-4.0621,-18.169,5.4224,-47.194,3.951
-3.9225,-12.354,-6.6953,4.2684,-5.1265,8.781,-17.183,-4.2074,-23.467,19.856,4.4866,-3.5659,-18.327,6.2532,-47.626,4.404
-3.9225,-12.354,-6.6953,4.2684,-5.1265,8.781,-17.183,-4.2074,-23.467,19.856,4.4866,-3.5659,-18.327,6.2532,-47.626,4.404
-4.1952,-12.032,-7.0074,4.5957,-5.3088,9.1078,-17.551,-3.9151,-23.659,20.22,3.9666,-3.0689,-18.486,7.0849,-48.056,4.8567
-4.1952,-12.032,-7.0074,4.5957,-5.3088,9.1078,-17.551,-3.9151,-23.659,20.22,3.9666,-3.0689,-18.486,7.0849,-48.056,4.8567
-4.468,-11.709,-7.3196,4.9229,-5.4903,9.4337,-17.918,-3.6239,-23.849,20.583,3.4456,-2.5713,-18.645,7.9172,-48.486,5.3092
-4.468,-11.709,-7.3196,4.9229,-5.4903,9.4337,-17.918,-3.6239,-23.849,20.583,3.4456,-2.5713,-18.645,7.9172,-48.486,5.3092
-4.468,-11.709,-7.3196,4.9229,-5.4903,9.4337,-17.918,-3.6239,-23.849,20.583,3.4456,-2.5713,-18.645,7.9172,-48.486,5.3092
-5.0134,-11.064,-7.9447,5.577,-5.8511,10.083,-18.651,-3.0448,-24.226,21.305,2.4004,-1.5742,-18.963,9.5837,-49.341,6.213
-5.0134,-11.064,-7.9447,5.577,-5.8511,10.083,-18.651,-3.0448,-24.226,21.305,2.4004,-1.5742,-18.963,9.5837,-49.341,6.213
-5.286,-10.742,-8.2574,5.9037,-6.0302,10.406,-19.017,-2.7571,-24.413,21.664,1.8765,-1.0748,-19.121,10.418,-49.767,6.6644
-5.286,-10.742,-8.2574,5.9037,-6.0302,10.406,-19.017,-2.7571,-24.413,21.664,1.8765,-1.0748,-19.121,10.418,-49.767,6.6644
-5.5585,-10.419,-8.5703,6.2303,-6.2084,10.727,-19.382,-2.4706,-24.599,22.021,1.3516,-0.57492,-19.28,11.252,-50.192,7.1153
-5.5585,-10.419,-8.5703,6.2303,-6.2084,10.727,-19.382,-2.4706,-24.599,22.021,1.3516,-0.57492,-19.28,11.252,-50.192,7.1153
-5.8308,-10.096,-8.8832,6.5567,-6.3858,11.048,-19.747,-2.1854,-24.783,22.377,0.82585,-0.074537,-19.438,12.087,-50.615,7.5658
-5.8308,-10.096,-8.8832,6.5567,-6.3858,11.048,-19.747,-2.1854,-24.783,22.377,0.82585,-0.074537,-19.438,12.087,-50.615,7.5658
-6.1031,-9.7732,-9.1961,6.8827,-6.5622,11.368,-20.111,-1.9015,-24.967,22.731,0.29931,0.42628,-19.597,12.922,-51.037,8.0157
-6.1031,-9.7732,-9.1961,6.8827,-6.5622,11.368,-20.111,-1.9015,-24.967,22.731,0.29931,0.42628,-19.597,12.922,-51.037,8.0157
-6.3752,-9.4504,-9.5091,7.2085,-6.7378,11.686,-20.474,-1.6188,-25.149,23.084,-0.22799,0.92749,-19.755,13.757,-51.458,8.4651
-6.3752,-9.4504,-9.5091,7.2085,-6.7378,11.686,-20.474,-1.6188,-25.149,23.084,-0.22799,0.92749,-19.755,13.757,-51.458,8.4651
-6.647,-9.1277,-9.822,7.534,-6.9124,12.003,-20.837,-1.3376,-25.33,23.435,-0.75602,1.4291,-19.913,14.593,-51.878,8.9139
-6.647,-9.1277,-9.822,7.534,-6.9124,12.003,-20.837,-1.3376,-25.33,23.435,-0.75602,1.4291,-19.913,14.593,-51.878,8.9139
-6.9187,-8.805,-10.135,7.8591,-7.086,12.32,-21.199,-1.0577,-25.51,23.784,-1.2847,1.9309,-20.071,15.428,-52.296,9.3621
-6.9187,-8.805,-10.135,7.8591,-7.086,12.32,-21.199,-1.0577,-25.51,23.784,-1.2847,1.9309,-20.071,15.428,-52.296,9.3621
-7.1902,-8.4824,-10.448,8.1838,-7.2586,12.634,-21.56,-0.77927,-25.688,24.132,-1.8141,2.4331,-20.228,16.264,-52.713,9.8096
-7.1902,-8.4824,-10.448,8.1838,-7.2586,12.634,-21.56,-0.77927,-25.688,24.132,-1.8141,2.4331,-20.228,16.264,-52.713,9.8096
-7.4615,-8.16,-10.76,8.5081,-7.4302,12.948,-21.921,-0.50228,-25.866,24.478,-2.3441,2.9354,-20.385,17.1,-53.128,10.256
-7.4615,-8.16,-10.76,8.5081,-7.4302,12.948,-21.921,-0.50228,-25.866,24.478,-2.3441,2.9354,-20.385,17.1,-53.128,10.256
-7.7324,-7.8377,-11.073,8.8319,-7.6007,13.26,-22.28,-0.22677,-26.042,24.822,-2.8746,3.438,-20.542,17.935,-53.542,10.703
-7.7324,-7.8377,-11.073,8.8319,-7.6007,13.26,-22.28,-0.22677,-26.042,24.822,-2.8746,3.438,-20.542,17.935,-53.542,10.703
-7.7324,-7.8377,-11.073,8.8319,-7.6007,13.26,-22.28,-0.22677,-26.042,24.822,-2.8746,3.438,-20.542,17.935,-53.542,10.703
-8.0031,-7.5156,-11.386,9.1552,-7.7702,13.571,-22.639,0.047233,-26.217,25.165,-3.4057,3.9407,-20.699,18.77,-53.954,11.148
-8.0031,-7.5156,-11.386,9.1552,-7.7702,13.571,-22.639,0.047233,-26.217,25.165,-3.4057,3.9407,-20.699,18.77,-53.954,11.148
-8.2735,-7.1937,-11.698,9.478,-7.9387,13.88,-22.997,0.31969,-26.39,25.505,-3.9372,4.4435,-20.855,19.605,-54.365,11.593
-8.5435,-6.8721,-12.01,9.8003,-8.106,14.188,-23.354,0.59056,-26.562,25.844,-4.4692,4.9464,-21.011,20.44,-54.774,12.036
-8.5435,-6.8721,-12.01,9.8003,-8.106,14.188,-23.354,0.59056,-26.562,25.844,-4.4692,4.9464,-21.011,20.44,-54.774,12.036
-8.5435,-6.8721,-12.01,9.8003,-8.106,14.188,-23.354,0.59056,-26.562,25.844,-4.4692,4.9464,-21.011,20.44,-54.774,12.036
-8.8133,-6.5507,-12.322,10.122,-8.2721,14.495,-23.709,0.85984,-26.733,26.181,-5.0016,5.4493,-21.166,21.274,-55.182,12.479
-8.8133,-6.5507,-12.322,10.122,-8.2721,14.495,-23.709,0.85984,-26.733,26.181,-5.0016,5.4493,-21.166,21.274,-55.182,12.479
-8.8133,-6.5507,-12.322,10.122,-8.2721,14.495,-23.709,0.85984,-26.733,26.181,-5.0016,5.4493,-21.166,21.274,-55.182,12.479
-9.3516,-5.9089,-12.944,10.763,-8.6011,15.103,-24.418,1.3934,-27.071,26.849,-6.0674,6.455,-21.475,22.942,-55.992,13.362
-9.3516,-5.9089,-12.944,10.763,-8.6011,15.103,-24.418,1.3934,-27.071,26.849,-6.0674,6.455,-21.475,22.942,-55.992,13.362
-9.3516,-5.9089,-12.944,10.763,-8.6011,15.103,-24.418,1.3934,-27.071,26.849,-6.0674,6.455,-21.475,22.942,-55.992,13.362
-9.6201,-5.5885,-13.255,11.083,-8.7637,15.405,-24.77,1.6577,-27.238,27.18,-6.6007,6.9577,-21.629,23.775,-56.395,13.802
-9.6201,-5.5885,-13.255,11.083,-8.7637,15.405,-24.77,1.6577,-27.238,27.18,-6.6007,6.9577,-21.629,23.775,-56.395,13.802
-9.8883,-5.2685,-13.566,11.402,-8.9252,15.706,-25.122,1.9203,-27.404,27.509,-7.1343,7.4602,-21.782,24.607,-56.796,14.241
-9.8883,-5.2685,-13.566,11.402,-8.9252,15.706,-25.122,1.9203,-27.404,27.509,-7.1343,7.4602,-21.782,24.607,-56.796,14.241
-9.8883,-5.2685,-13.566,11.402,-8.9252,15.706,-25.122,1.9203,-27.404,27.509,-7.1343,7.4602,-21.782,24.607,-56.796,14.241
-10.423,-4.6297,-14.185,12.038,-9.2445,16.301,-25.821,2.4401,-27.73,28.16,-8.202,8.4648,-22.086,26.269,-57.592,15.116
-10.423,-4.6297,-14.185,12.038,-9.2445,16.301,-25.821,2.4401,-27.73,28.16,-8.202,8.4648,-22.086,26.269,-57.592,15.116
-10.69,-4.311,-14.495,12.355,-9.4022,16.597,-26.168,2.6973,-27.892,28.483,-8.7361,8.9667,-22.237,27.098,-57.988,15.551
-10.69,-4.311,-14.495,12.355,-9.4022,16.597,-26.168,2.6973,-27.892,28.483,-8.7361,8.9667,-22.237,27.098,-57.988,15.551
-10.69,-4.311,-14.495,12.355,-9.4022,16.597,-26.168,2.6973,-27.892,28.483,-8.7361,8.9667,-22.237,27.098,-57.988,15.551
-10.956,-3.9927,-14.803,12.671,-9.5587,16.891,-26.515,2.9526,-28.052,28.804,-9.2702,9.4682,-22.388,27.927,-58.381,15.986
-11.222,-3.675,-15.112,12.986,-9.7138,17.183,-26.86,3.2061,-28.21,29.122,-9.8043,9.9695,-22.538,28.755,-58.773,16.419
-11.222,-3.675,-15.112,12.986,-9.7138,17.183,-26.86,3.2061,-28.21,29.122,-9.8043,9.9695,-22.538,28.755,-58.773,16.419
-11.487,-3.3579,-15.42,13.3,-9.8676,17.473,-27.204,3.4577,-28.367,29.439,-10.339,10.47,-22.687,29.582,-59.162,16.851
-11.487,-3.3579,-15.42,13.3,-9.8676,17.473,-27.204,3.4577,-28.367,29.439,-10.339,10.47,-22.687,29.582,-59.162,16.851
-11.752,-3.0413,-15.727,13.613,-10.02,17.761,-27.546,3.7074,-28.523,29.753,-10.873,10.971,-22.835,30.407,-59.55,17.282
-11.752,-3.0413,-15.727,13.613,-10.02,17.761,-27.546,3.7074,-28.523,29.753,-10.873,10.971,-22.835,30.407,-59.55,17.282
-12.016,-2.7253,-16.033,13.925,-10.171,18.048,-27.887,3.9551,-28.677,30.065,-11.407,11.471,-22.982,31.232,-59.936,17.712
-12.016,-2.7253,-16.033,13.925,-10.171,18.048,-27.887,3.9551,-28.677,30.065,-11.407,11.471,-22.982,31.232,-59.936,17.712
-12.016,-2.7253,-16.033,13.925,-10.171,18.048,-27.887,3.9551,-28.677,30.065,-11.407,11.471,-22.982,31.232,-59.936,17.712
-12.279,-2.4099,-16.339,14.237,-10.321,18.333,-28.226,4.2008,-28.829,30.374,-11.941,11.97,-23.128,32.055,-60.32,18.14
-12.279,-2.4099,-16.339,14.237,-10.321,18.333,-28.226,4.2008,-28.829,30.374,-11.941,11.97,-23.128,32.055,-60.32,18.14
-12.542,-2.0952,-16.645,14.547,-10.469,18.616,-28.564,4.4445,-28.981,30.681,-12.474,12.469,-23.274,32.876,-60.701,18.567
-12.804,-1.7811,-16.95,14.856,-10.616,18.896,-28.9,4.6862,-29.13,30.986,-13.008,12.967,-23.419,33.696,-61.081,18.992
-12.804,-1.7811,-16.95,14.856,-10.616,18.896,-28.9,4.6862,-29.13,30.986,-13.008,12.967,-23.419,33.696,-61.081,18.992
-13.066,-1.4678,-17.254,15.164,-10.762,19.175,-29.235,4.9258,-29.278,31.289,-13.541,13.465,-23.562,34.515,-61.458,19.416
-13.066,-1.4678,-17.254,15.164,-10.762,19.175,-29.235,4.9258,-29.278,31.289,-13.541,13.465,-23.562,34.515,-61.458,19.416
-13.066,-1.4678,-17.254,15.164,-10.762,19.175,-29.235,4.9258,-29.278,31.289,-13.541,13.465,-23.562,34.515,-61.458,19.416
-13.327,-1.1552,-17.557,15.471,-10.906,19.452,-29.568,5.1633,-29.425,31.589,-14.074,13.962,-23.705,35.332,-61.833,19.838
-13.327,-1.1552,-17.557,15.471,-10.906,19.452,-29.568,5.1633,-29.425,31.589,-14.074,13.962,-23.705,35.332,-61.833,19.838
-13.587,-0.84338,-17.859,15.777,-11.048,19.727,-29.899,5.3987,-29.57,31.887,-14.607,14.458,-23.847,36.148,-62.206,20.259
-13.587,-0.84338,-17.859,15.777,-11.048,19.727,-29.899,5.3987,-29.57,31.887,-14.607,14.458,-23.847,36.148,-62.206,20.259
-13.847,-0.53233,-18.161,16.082,-11.189,20,-30.229,5.6319,-29.713,32.182,-15.139,14.953,-23.987,36.962,-62.577,20.678
-14.105,-0.22209,-18.462,16.385,-11.329,20.271,-30.557,5.863,-29.855,32.475,-15.671,15.448,-24.127,37.774,-62.945,21.096
-14.105,-0.22209,-18.462,16.385,-11.329,20.271,-30.557,5.863,-29.855,32.475,-15.671,15.448,-24.127,37.774,-62.945,21.096
-14.363,0.08731,-18.762,16.687,-11.467,20.54,-30.883,6.0918,-29.996,32.766,-16.203,15.942,-24.265,38.584,-63.312,21.512
-14.363,0.08731,-18.762,16.687,-11.467,20.54,-30.883,6.0918,-29.996,32.766,-16.203,15.942,-24.265,38.584,-63.312,21.512
-14.621,0.39584,-19.062,16.988,-11.603,20.807,-31.207,6.3185,-30.134,33.054,-16.734,16.434,-24.402,39.392,-63.676,21.926
-14.621,0.39584,-19.062,16.988,-11.603,20.807,-31.207,6.3185,-30.134,33.054,-16.734,16.434,-24.402,39.392,-63.676,21.926
-14.877,0.70348,-19.36,17.288,-11.738,21.071,-31.53,6.5428,-30.272,33.339,-17.264,16.926,-24.538,40.198,-64.037,22.338
-14.877,0.70348,-19.36,17.288,-11.738,21.071,-31.53,6.5428,-30.272,33.339,-17.264,16.926,-24.538,40.198,-64.037,22.338
-14.877,0.70348,-19.36,17.288,-11.738,21.071,-31.53,6.5428,-30.272,33.339,-17.264,16.926,-24.538,40.198,-64.037,22.338
-15.133,1.0102,-19.658,17.586,-11.872,21.334,-31.851,6.7649,-30.407,33.622,-17.794,17.417,-24.673,41.002,-64.396,22.749
-15.133,1.0102,-19.658,17.586,-11.872,21.334,-31.851,6.7649,-30.407,33.622,-17.794,17.417,-24.673,41.002,-64.396,22.749
-15.133,1.0102,-19.658,17.586,-11.872,21.334,-31.851,6.7649,-30.407,33.622,-17.794,17.417,-24.673,41.002,-64.396,22.749
-15.642,1.6208,-20.25,18.179,-12.134,21.852,-32.486,7.2022,-30.674,34.179,-18.852,18.396,-24.938,42.604,-65.107,23.565
-15.642,1.6208,-20.25,18.179,-12.134,21.852,-32.486,7.2022,-30.674,34.179,-18.852,18.396,-24.938,42.604,-65.107,23.565
-15.896,1.9246,-20.545,18.473,-12.262,22.107,-32.801,7.4173,-30.804,34.454,-19.38,18.884,-25.069,43.401,-65.459,23.971
-15.896,1.9246,-20.545,18.473,-12.262,22.107,-32.801,7.4173,-30.804,34.454,-19.38,18.884,-25.069,43.401,-65.459,23.971
-15.896,1.9246,-20.545,18.473,-12.262,22.107,-32.801,7.4173,-30.804,34.454,-19.38,18.884,-25.069,43.401,-65.459,23.971
-16.148,2.2274,-20.839,18.766,-12.389,22.361,-33.114,7.6301,-30.934,34.726,-19.908,19.37,-25.198,44.196,-65.809,24.374
-16.4,2.5291,-21.131,19.057,-12.514,22.612,-33.425,7.8404,-31.061,34.996,-20.434,19.856,-25.326,44.989,-66.155,24.775
-16.65,2.8297,-21.423,19.347,-12.638,22.86,-33.734,8.0483,-31.187,35.262,-20.96,20.34,-25.453,45.779,-66.5,25.175
-16.65,2.8297,-21.423,19.347,-12.638,22.86,-33.734,8.0483,-31.187,35.262,-20.96,20.34,-25.453,45.779,-66.5,25.175
-16.65,2.8297,-21.423,19.347,-12.638,22.86,-33.734,8.0483,-31.187,35.262,-20.96,20.34,-25.453,45.779,-66.5,25.175
-16.9,3.1293,-21.714,19.635,-12.76,23.106,-34.04,8.2537,-31.311,35.526,-21.485,20.823,-25.578,46.567,-66.841,25.572
-16.9,3.1293,-21.714,19.635,-12.76,23.106,-34.04,8.2537,-31.311,35.526,-21.485,20.823,-25.578,46.567,-66.841,25.572
-16.9,3.1293,-21.714,19.635,-12.76,23.106,-34.04,8.2537,-31.311,35.526,-21.485,20.823,-25.578,46.567,-66.841,25.572
-17.149,3.4277,-22.003,19.922,-12.88,23.35,-34.345,8.4567,-31.434,35.787,-22.009,21.305,-25.701,47.352,-67.18,25.967
-17.149,3.4277,-22.003,19.922,-12.88,23.35,-34.345,8.4567,-31.434,35.787,-22.009,21.305,-25.701,47.352,-67.18,25.967
-17.397,3.725,-22.292,20.207,-12.999,23.592,-34.647,8.6571,-31.555,36.046,-22.532,21.785,-25.823,48.134,-67.516,26.361
-17.644,4.0211,-22.579,20.49,-13.115,23.831,-34.948,8.8551,-31.674,36.301,-23.054,22.264,-25.944,48.913,-67.85,26.752
-17.644,4.0211,-22.579,20.49,-13.115,23.831,-34.948,8.8551,-31.674,36.301,-23.054,22.264,-25.944,48.913,-67.85,26.752
-17.89,4.3159,-22.865,20.772,-13.23,24.067,-35.246,9.0505,-31.792,36.554,-23.576,22.741,-26.063,49.69,-68.181,27.141
-17.89,4.3159,-22.865,20.772,-13.23,24.067,-35.246,9.0505,-31.792,36.554,-23.576,22.741,-26.063,49.69,-68.181,27.141
-18.135,4.6096,-23.15,21.052,-13.344,24.301,-35.541,9.2433,-31.907,36.803,-24.096,23.217,-26.18,50.463,-68.509,27.527
-18.135,4.6096,-23.15,21.052,-13.344,24.301,-35.541,9.2433,-31.907,36.803,-24.096,23.217,-26.18,50.463,-68.509,27.527
-18.135,4.6096,-23.15,21.052,-13.344,24.301,-35.541,9.2433,-31.907,36.803,-24.096,23.217,-26.18,50.463,-68.509,27.527
-18.379,4.902,-23.433,21.33,-13.455,24.532,-35.835,9.4335,-32.022,37.05,-24.615,23.692,-26.295,51.234,-68.835,27.912
-18.379,4.902,-23.433,21.33,-13.455,24.532,-35.835,9.4335,-32.022,37.05,-24.615,23.692,-26.295,51.234,-68.835,27.912
-18.623,5.1931,-23.716,21.607,-13.565,24.761,-36.126,9.6211,-32.134,37.294,-25.133,24.165,-26.409,52.002,-69.157,28.294
-18.865,5.4829,-23.997,21.882,-13.673,24.987,-36.415,9.806,-32.245,37.535,-25.65,24.636,-26.521,52.766,-69.477,28.674
-19.106,5.7714,-24.277,22.155,-13.779,25.211,-36.701,9.9883,-32.354,37.773,-26.166,25.106,-26.632,53.527,-69.794,29.052
-19.106,5.7714,-24.277,22.155,-13.779,25.211,-36.701,9.9883,-32.354,37.773,-26.166,25.106,-26.632,53.527,-69.794,29.052
-19.106,5.7714,-24.277,22.155,-13.779,25.211,-36.701,9.9883,-32.354,37.773,-26.166,25.106,-26.632,53.527,-69.794,29.052
-19.346,6.0586,-24.555,22.426,-13.883,25.432,-36.986,10.168,-32.461,38.008,-26.681,25.574,-26.74,54.285,-70.108,29.427
-19.346,6.0586,-24.555,22.426,-13.883,25.432,-36.986,10.168,-32.461,38.008,-26.681,25.574,-26.74,54.285,-70.108,29.427
-19.585,6.3443,-24.832,22.696,-13.986,25.65,-37.267,10.345,-32.567,38.24,-27.194,26.04,-26.847,55.039,-70.419,29.799
-19.585,6.3443,-24.832,22.696,-13.986,25.65,-37.267,10.345,-32.567,38.24,-27.194,26.04,-26.847,55.039,-70.419,29.799
-19.823,6.6287,-25.108,22.963,-14.086,25.866,-37.546,10.519,-32.671,38.469,-27.707,26.505,-26.951,55.79,-70.728,30.17
-19.823,6.6287,-25.108,22.963,-14.086,25.866,-37.546,10.519,-32.671,38.469,-27.707,26.505,-26.951,55.79,-70.728,30.17
-20.059,6.9116,-25.383,23.229,-14.185,26.079,-37.823,10.69,-32.773,38.694,-28.217,26.967,-27.054,56.538,-71.033,30.537
-20.059,6.9116,-25.383,23.229,-14.185,26.079,-37.823,10.69,-32.773,38.694,-28.217,26.967,-27.054,56.538,-71.033,30.537
-20.295,7.1931,-25.656,23.492,-14.282,26.289,-38.097,10.859,-32.873,38.917,-28.727,27.428,-27.155,57.282,-71.335,30.903
-20.295,7.1931,-25.656,23.492,-14.282,26.289,-38.097,10.859,-32.873,38.917,-28.727,27.428,-27.155,57.282,-71.335,30.903
-20.53,7.4731,-25.927,23.754,-14.377,26.496,-38.369,11.025,-32.972,39.137,-29.235,27.887,-27.254,58.022,-71.635,31.265
-20.53,7.4731,-25.927,23.754,-14.377,26.496,-38.369,11.025,-32.972,39.137,-29.235,27.887,-27.254,58.022,-71.635,31.265
-20.763,7.7515,-26.198,24.014,-14.47,26.7,-38.638,11.188,-33.069,39.353,-29.742,28.344,-27.351,58.759,-71.931,31.625
-20.763,7.7515,-26.198,24.014,-14.47,26.7,-38.638,11.188,-33.069,39.353,-29.742,28.344,-27.351,58.759,-71.931,31.625
-20.996,8.0285,-26.466,24.271,-14.562,26.902,-38.905,11.348,-33.164,39.566,-30.247,28.8,-27.446,59.492,-72.224,31.983
-20.996,8.0285,-26.466,24.271,-14.562,26.902,-38.905,11.348,-33.164,39.566,-30.247,28.8,-27.446,59.492,-72.224,31.983
-21.227,8.3039,-26.734,24.527,-14.651,27.101,-39.169,11.505,-33.257,39.776,-30.751,29.253,-27.539,60.221,-72.514,32.338
-21.457,8.5778,-26.999,24.781,-14.738,27.297,-39.43,11.66,-33.349,39.983,-31.253,29.704,-27.629,60.946,-72.801,32.69
-21.457,8.5778,-26.999,24.781,-14.738,27.297,-39.43,11.66,-33.349,39.983,-31.253,29.704,-27.629,60.946,-72.801,32.69
-21.457,8.5778,-26.999,24.781,-14.738,27.297,-39.43,11.66,-33.349,39.983,-31.253,29.704,-27.629,60.946,-72.801,32.69
-21.686,8.85,-27.263,25.032,-14.824,27.49,-39.688,11.812,-33.439,40.187,-31.754,30.153,-27.718,61.667,-73.085,33.039
-21.686,8.85,-27.263,25.032,-14.824,27.49,-39.688,11.812,-33.439,40.187,-31.754,30.153,-27.718,61.667,-73.085,33.039
-21.686,8.85,-27.263,25.032,-14.824,27.49,-39.688,11.812,-33.439,40.187,-31.754,30.153,-27.718,61.667,-73.085,33.039
-22.14,9.3896,-27.787,25.528,-14.989,27.867,-40.197,12.106,-33.613,40.584,-32.751,31.045,-27.888,63.097,-73.643,33.729
-22.14,9.3896,-27.787,25.528,-14.989,27.867,-40.197,12.106,-33.613,40.584,-32.751,31.045,-27.888,63.097,-73.643,33.729
-22.14,9.3896,-27.787,25.528,-14.989,27.867,-40.197,12.106,-33.613,40.584,-32.751,31.045,-27.888,63.097,-73.643,33.729
-22.365,9.6569,-28.047,25.773,-15.068,28.051,-40.448,12.249,-33.698,40.778,-33.246,31.487,-27.97,63.806,-73.917,34.07
-22.365,9.6569,-28.047,25.773,-15.068,28.051,-40.448,12.249,-33.698,40.778,-33.246,31.487,-27.97,63.806,-73.917,34.07
-22.589,9.9225,-28.305,26.016,-15.146,28.233,-40.695,12.388,-33.781,40.968,-33.741,31.928,-28.05,64.51,-74.188,34.408
-22.812,10.186,-28.561,26.257,-15.222,28.411,-40.94,12.525,-33.862,41.156,-34.233,32.366,-28.127,65.211,-74.456,34.743
-22.812,10.186,-28.561,26.257,-15.222,28.411,-40.94,12.525,-33.862,41.156,-34.233,32.366,-28.127,65.211,-74.456,34.743
-23.034,10.449,-28.815,26.495,-15.295,28.586,-41.182,12.659,-33.941,41.339,-34.724,32.802,-28.202,65.906,-74.72,35.075
-23.034,10.449,-28.815,26.495,-15.295,28.586,-41.182,12.659,-33.941,41.339,-34.724,32.802,-28.202,65.906,-74.72,35.075
-23.254,10.709,-29.068,26.731,-15.367,28.758,-41.421,12.79,-34.018,41.52,-35.213,33.235,-28.275,66.598,-74.981,35.404
-23.254,10.709,-29.068,26.731,-15.367,28.758,-41.421,12.79,-34.018,41.52,-35.213,33.235,-28.275,66.598,-74.981,35.404
-23.254,10.709,-29.068,26.731,-15.367,28.758,-41.421,12.79,-34.018,41.52,-35.213,33.235,-28.275,66.598,-74.981,35.404
-23.473,10.968,-29.319,26.964,-15.436,28.927,-41.658,12.918,-34.094,41.697,-35.7,33.666,-28.345,67.284,-75.239,35.73
-23.473,10.968,-29.319,26.964,-15.436,28.927,-41.658,12.918,-34.094,41.697,-35.7,33.666,-28.345,67.284,-75.239,35.73
-23.691,11.224,-29.569,27.196,-15.504,29.093,-41.891,13.042,-34.168,41.87,-36.185,34.095,-28.413,67.967,-75.493,36.053
-23.691,11.224,-29.569,27.196,-15.504,29.093,-41.891,13.042,-34.168,41.87,-36.185,34.095,-28.413,67.967,-75.493,36.053
-23.908,11.479,-29.817,27.424,-15.57,29.255,-42.121,13.164,-34.24,42.041,-36.668,34.521,-28.478,68.644,-75.744,36.373
-23.908,11.479,-29.817,27.424,-15.57,29.255,-42.121,13.164,-34.24,42.041,-36.668,34.521,-28.478,68.644,-75.744,36.373
-24.123,11.733,-30.063,27.651,-15.633,29.415,-42.349,13.282,-34.31,42.207,-37.15,34.945,-28.541,69.317,-75.992,36.69
-24.123,11.733,-30.063,27.651,-15.633,29.415,-42.349,13.282,-34.31,42.207,-37.15,34.945,-28.541,69.317,-75.992,36.69
-24.123,11.733,-30.063,27.651,-15.633,29.415,-42.349,13.282,-34.31,42.207,-37.15,34.945,-28.541,69.317,-75.992,36.69
-24.337,11.984,-30.307,27.875,-15.694,29.571,-42.573,13.398,-34.379,42.371,-37.629,35.366,-28.602,69.985,-76.236,37.003
-24.549,12.233,-30.549,28.097,-15.754,29.724,-42.795,13.51,-34.445,42.531,-38.106,35.785,-28.659,70.648,-76.477,37.314
-24.549,12.233,-30.549,28.097,-15.754,29.724,-42.795,13.51,-34.445,42.531,-38.106,35.785,-28.659,70.648,-76.477,37.314
-24.761,12.481,-30.79,28.316,-15.811,29.874,-43.014,13.619,-34.51,42.687,-38.582,36.201,-28.715,71.306,-76.714,37.621
-24.761,12.481,-30.79,28.316,-15.811,29.874,-43.014,13.619,-34.51,42.687,-38.582,36.201,-28.715,71.306,-76.714,37.621
-24.971,12.726,-31.029,28.533,-15.866,30.021,-43.229,13.725,-34.573,42.84,-39.055,36.614,-28.767,71.96,-76.948,37.925
-24.971,12.726,-31.029,28.533,-15.866,30.021,-43.229,13.725,-34.573,42.84,-39.055,36.614,-28.767,71.96,-76.948,37.925
-25.179,12.97,-31.266,28.747,-15.92,30.164,-43.442,13.828,-34.635,42.989,-39.526,37.025,-28.817,72.608,-77.178,38.225
-25.179,12.97,-31.266,28.747,-15.92,30.164,-43.442,13.828,-34.635,42.989,-39.526,37.025,-28.817,72.608,-77.178,38.225
-25.179,12.97,-31.266,28.747,-15.92,30.164,-43.442,13.828,-34.635,42.989,-39.526,37.025,-28.817,72.608,-77.178,38.225
-25.592,13.451,-31.734,29.168,-16.02,30.441,-43.857,14.023,-34.752,43.277,-40.462,37.838,-28.909,73.889,-77.628,38.817
-25.592,13.451,-31.734,29.168,-16.02,30.441,-43.857,14.023,-34.752,43.277,-40.462,37.838,-28.909,73.889,-77.628,38.817
-25.797,13.689,-31.966,29.374,-16.066,30.575,-44.061,14.116,-34.808,43.415,-40.927,38.241,-28.951,74.522,-77.847,39.107
-25.797,13.689,-31.966,29.374,-16.066,30.575,-44.061,14.116,-34.808,43.415,-40.927,38.241,-28.951,74.522,-77.847,39.107
-25.797,13.689,-31.966,29.374,-16.066,30.575,-44.061,14.116,-34.808,43.415,-40.927,38.241,-28.951,74.522,-77.847,39.107
-26,13.924,-32.195,29.578,-16.111,30.705,-44.261,14.206,-34.862,43.55,-41.39,38.64,-28.99,75.149,-78.063,39.394
-26,13.924,-32.195,29.578,-16.111,30.705,-44.261,14.206,-34.862,43.55,-41.39,38.64,-28.99,75.149,-78.063,39.394
-26,13.924,-32.195,29.578,-16.111,30.705,-44.261,14.206,-34.862,43.55,-41.39,38.64,-28.99,75.149,-78.063,39.394
-26.402,14.389,-32.648,29.978,-16.194,30.955,-44.651,14.376,-34.964,43.809,-42.308,39.431,-29.06,76.388,-78.484,39.958
-26.402,14.389,-32.648,29.978,-16.194,30.955,-44.651,14.376,-34.964,43.809,-42.308,39.431,-29.06,76.388,-78.484,39.958
-26.402,14.389,-32.648,29.978,-16.194,30.955,-44.651,14.376,-34.964,43.809,-42.308,39.431,-29.06,76.388,-78.484,39.958
-26.601,14.618,-32.872,30.174,-16.233,31.075,-44.842,14.456,-35.013,43.934,-42.764,39.822,-29.091,76.999,-78.689,40.235
-26.601,14.618,-32.872,30.174,-16.233,31.075,-44.842,14.456,-35.013,43.934,-42.764,39.822,-29.091,76.999,-78.689,40.235
-26.798,14.845,-33.094,30.367,-16.269,31.191,-45.029,14.533,-35.06,44.054,-43.217,40.21,-29.119,77.605,-78.89,40.508
-26.994,15.07,-33.313,30.557,-16.303,31.304,-45.213,14.606,-35.105,44.171,-43.668,40.595,-29.144,78.205,-79.088,40.777
-26.994,15.07,-33.313,30.557,-16.303,31.304,-45.213,14.606,-35.105,44.171,-43.668,40.595,-29.144,78.205,-79.088,40.777
-27.189,15.293,-33.531,30.745,-16.335,31.414,-45.394,14.676,-35.148,44.284,-44.117,40.977,-29.166,78.8,-79.282,41.043
-27.189,15.293,-33.531,30.745,-16.335,31.414,-45.394,14.676,-35.148,44.284,-44.117,40.977,-29.166,78.8,-79.282,41.043
-27.189,15.293,-33.531,30.745,-16.335,31.414,-45.394,14.676,-35.148,44.284,-44.117,40.977,-29.166,78.8,-79.282,41.043
-27.382,15.514,-33.747,30.93,-16.365,31.52,-45.572,14.743,-35.19,44.393,-44.563,41.356,-29.185,79.388,-79.472,41.306
-27.574,15.732,-33.96,31.112,-16.392,31.622,-45.746,14.806,-35.229,44.499,-45.007,41.732,-29.202,79.971,-79.659,41.564
-27.574,15.732,-33.96,31.112,-16.392,31.622,-45.746,14.806,-35.229,44.499,-45.007,41.732,-29.202,79.971,-79.659,41.564
-27.574,15.732,-33.96,31.112,-16.392,31.622,-45.746,14.806,-35.229,44.499,-45.007,41.732,-29.202,79.971,-79.659,41.564
-27.764,15.948,-34.172,31.291,-16.418,31.721,-45.917,14.866,-35.267,44.601,-45.448,42.105,-29.215,80.548,-79.841,41.819
-27.953,16.162,-34.381,31.468,-16.441,31.816,-46.085,14.923,-35.303,44.699,-45.887,42.475,-29.225,81.12,-80.02,42.07
-27.953,16.162,-34.381,31.468,-16.441,31.816,-46.085,14.923,-35.303,44.699,-45.887,42.475,-29.225,81.12,-80.02,42.07
-27.953,16.162,-34.381,31.468,-16.441,31.816,-46.085,14.923,-35.303,44.699,-45.887,42.475,-29.225,81.12,-80.02,42.07
-28.141,16.374,-34.588,31.642,-16.462,31.908,-46.249,14.976,-35.338,44.793,-46.323,42.841,-29.232,81.685,-80.195,42.318
-28.141,16.374,-34.588,31.642,-16.462,31.908,-46.249,14.976,-35.338,44.793,-46.323,42.841,-29.232,81.685,-80.195,42.318
-28.141,16.374,-34.588,31.642,-16.462,31.908,-46.249,14.976,-35.338,44.793,-46.323,42.841,-29.232,81.685,-80.195,42.318
-28.326,16.583,-34.794,31.812,-16.481,31.996,-46.411,15.026,-35.37,44.884,-46.757,43.204,-29.236,82.244,-80.366,42.561
-28.326,16.583,-34.794,31.812,-16.481,31.996,-46.411,15.026,-35.37,44.884,-46.757,43.204,-29.236,82.244,-80.366,42.561
-28.511,16.79,-34.997,31.98,-16.498,32.081,-46.568,15.072,-35.401,44.971,-47.188,43.564,-29.237,82.797,-80.534,42.801
-28.511,16.79,-34.997,31.98,-16.498,32.081,-46.568,15.072,-35.401,44.971,-47.188,43.564,-29.237,82.797,-80.534,42.801
-28.694,16.995,-35.198,32.145,-16.513,32.162,-46.723,15.115,-35.43,45.054,-47.616,43.921,-29.235,83.345,-80.697,43.037
-28.694,16.995,-35.198,32.145,-16.513,32.162,-46.723,15.115,-35.43,45.054,-47.616,43.921,-29.235,83.345,-80.697,43.037
-28.875,17.198,-35.397,32.307,-16.525,32.239,-46.874,15.155,-35.457,45.133,-48.042,44.274,-29.23,83.886,-80.857,43.269
-29.233,17.595,-35.788,32.622,-16.543,32.383,-47.165,15.224,-35.506,45.28,-48.885,44.97,-29.209,84.949,-81.164,43.721
-29.233,17.595,-35.788,32.622,-16.543,32.383,-47.165,15.224,-35.506,45.28,-48.885,44.97,-29.209,84.949,-81.164,43.721
-29.233,17.595,-35.788,32.622,-16.543,32.383,-47.165,15.224,-35.506,45.28,-48.885,44.97,-29.209,84.949,-81.164,43.721
-29.41,17.791,-35.98,32.776,-16.549,32.449,-47.306,15.253,-35.528,45.348,-49.303,45.313,-29.195,85.471,-81.312,43.941
-29.41,17.791,-35.98,32.776,-16.549,32.449,-47.306,15.253,-35.528,45.348,-49.303,45.313,-29.195,85.471,-81.312,43.941
-29.41,17.791,-35.98,32.776,-16.549,32.449,-47.306,15.253,-35.528,45.348,-49.303,45.313,-29.195,85.471,-81.312,43.941
-29.586,17.983,-36.171,32.926,-16.553,32.512,-47.443,15.278,-35.548,45.412,-49.718,45.653,-29.177,85.987,-81.456,44.158
-29.586,17.983,-36.171,32.926,-16.553,32.512,-47.443,15.278,-35.548,45.412,-49.718,45.653,-29.177,85.987,-81.456,44.158
-29.76,18.174,-36.359,33.073,-16.554,32.571,-47.577,15.3,-35.566,45.472,-50.13,45.989,-29.155,86.496,-81.596,44.37
-29.932,18.362,-36.544,33.217,-16.553,32.626,-47.708,15.319,-35.582,45.528,-50.539,46.322,-29.131,86.999,-81.732,44.578
-29.932,18.362,-36.544,33.217,-16.553,32.626,-47.708,15.319,-35.582,45.528,-50.539,46.322,-29.131,86.999,-81.732,44.578
-30.103,18.547,-36.728,33.358,-16.55,32.677,-47.834,15.334,-35.597,45.58,-50.945,46.651,-29.103,87.496,-81.864,44.782
-30.103,18.547,-36.728,33.358,-16.55,32.677,-47.834,15.334,-35.597,45.58,-50.945,46.651,-29.103,87.496,-81.864,44.782
-30.103,18.547,-36.728,33.358,-16.55,32.677,-47.834,15.334,-35.597,45.58,-50.945,46.651,-29.103,87.496,-81.864,44.782
-30.272,18.73,-36.909,33.496,-16.545,32.725,-47.958,15.346,-35.61,45.629,-51.349,46.977,-29.072,87.985,-81.992,44.982
-30.272,18.73,-36.909,33.496,-16.545,32.725,-47.958,15.346,-35.61,45.629,-51.349,46.977,-29.072,87.985,-81.992,44.982
-30.439,18.911,-37.088,33.63,-16.537,32.768,-48.078,15.354,-35.621,45.673,-51.749,47.299,-29.037,88.469,-82.116,45.178
-30.605,19.089,-37.265,33.762,-16.528,32.808,-48.194,15.359,-35.63,45.714,-52.147,47.617,-28.999,88.945,-82.237,45.37
-30.605,19.089,-37.265,33.762,-16.528,32.808,-48.194,15.359,-35.63,45.714,-52.147,47.617,-28.999,88.945,-82.237,45.37
-30.77,19.264,-37.439,33.89,-16.516,32.844,-48.307,15.36,-35.638,45.75,-52.541,47.932,-28.958,89.415,-82.353,45.557
-30.77,19.264,-37.439,33.89,-16.516,32.844,-48.307,15.36,-35.638,45.75,-52.541,47.932,-28.958,89.415,-82.353,45.557
-30.933,19.437,-37.611,34.016,-16.502,32.877,-48.416,15.357,-35.644,45.783,-52.933,48.243,-28.913,89.878,-82.465,45.741
-30.933,19.437,-37.611,34.016,-16.502,32.877,-48.416,15.357,-35.644,45.783,-52.933,48.243,-28.913,89.878,-82.465,45.741
-30.933,19.437,-37.611,34.016,-16.502,32.877,-48.416,15.357,-35.644,45.783,-52.933,48.243,-28.913,89.878,-82.465,45.741
-30.933,19.437,-37.611,34.016,-16.502,32.877,-48.416,15.357,-35.644,45.783,-52.933,48.243,-28.913,89.878,-82.465,45.741
-31.094,19.608,-37.781,34.138,-16.485,32.905,-48.522,15.351,-35.648,45.812,-53.322,48.55,-28.865,90.334,-82.573,45.92
-31.254,19.776,-37.949,34.257,-16.467,32.93,-48.624,15.341,-35.65,45.837,-53.707,48.854,-28.814,90.784,-82.676,46.095
-31.412,19.941,-38.114,34.373,-16.446,32.95,-48.723,15.328,-35.651,45.858,-54.09,49.154,-28.759,91.226,-82.776,46.265
-31.412,19.941,-38.114,34.373,-16.446,32.95,-48.723,15.328,-35.651,45.858,-54.09,49.154,-28.759,91.226,-82.776,46.265
-31.412,19.941,-38.114,34.373,-16.446,32.95,-48.723,15.328,-35.651,45.858,-54.09,49.154,-28.759,91.226,-82.776,46.265
-31.569,20.103,-38.277,34.485,-16.423,32.967,-48.818,15.311,-35.65,45.875,-54.469,49.45,-28.7,91.662,-82.872,46.431
-31.569,20.103,-38.277,34.485,-16.423,32.967,-48.818,15.311,-35.65,45.875,-54.469,49.45,-28.7,91.662,-82.872,46.431
-31.724,20.263,-38.438,34.595,-16.398,32.98,-48.909,15.291,-35.647,45.888,-54.846,49.742,-28.638,92.091,-82.963,46.593
-31.724,20.263,-38.438,34.595,-16.398,32.98,-48.909,15.291,-35.647,45.888,-54.846,49.742,-28.638,92.091,-82.963,46.593
-31.877,20.421,-38.596,34.701,-16.37,32.989,-48.997,15.267,-35.643,45.897,-55.219,50.03,-28.573,92.512,-83.051,46.751
-31.877,20.421,-38.596,34.701,-16.37,32.989,-48.997,15.267,-35.643,45.897,-55.219,50.03,-28.573,92.512,-83.051,46.751
-32.029,20.575,-38.752,34.804,-16.341,32.994,-49.082,15.239,-35.636,45.902,-55.589,50.315,-28.504,92.927,-83.134,46.904
-32.029,20.575,-38.752,34.804,-16.341,32.994,-49.082,15.239,-35.636,45.902,-55.589,50.315,-28.504,92.927,-83.134,46.904
-32.179,20.727,-38.905,34.903,-16.309,32.995,-49.162,15.208,-35.628,45.903,-55.956,50.595,-28.432,93.334,-83.214,47.053
-32.179,20.727,-38.905,34.903,-16.309,32.995,-49.162,15.208,-35.628,45.903,-55.956,50.595,-28.432,93.334,-83.214,47.053
-32.179,20.727,-38.905,34.903,-16.309,32.995,-49.162,15.208,-35.628,45.903,-55.956,50.595,-28.432,93.334,-83.214,47.053
-32.328,20.877,-39.056,34.999,-16.275,32.992,-49.239,15.173,-35.619,45.9,-56.32,50.872,-28.356,93.735,-83.289,47.197
-32.328,20.877,-39.056,34.999,-16.275,32.992,-49.239,15.173,-35.619,45.9,-56.32,50.872,-28.356,93.735,-83.289,47.197
-32.475,21.023,-39.205,35.092,-16.238,32.985,-49.313,15.134,-35.607,45.893,-56.68,51.145,-28.276,94.128,-83.36,47.337
-32.475,21.023,-39.205,35.092,-16.238,32.985,-49.313,15.134,-35.607,45.893,-56.68,51.145,-28.276,94.128,-83.36,47.337
-32.475,21.023,-39.205,35.092,-16.238,32.985,-49.313,15.134,-35.607,45.893,-56.68,51.145,-28.276,94.128,-83.36,47.337
-32.764,21.308,-39.495,35.268,-16.159,32.959,-49.449,15.047,-35.579,45.867,-57.391,51.678,-28.106,94.893,-83.489,47.604
-32.764,21.308,-39.495,35.268,-16.159,32.959,-49.449,15.047,-35.579,45.867,-57.391,51.678,-28.106,94.893,-83.489,47.604
-32.906,21.447,-39.636,35.351,-16.116,32.941,-49.512,14.997,-35.563,45.848,-57.742,51.939,-28.016,95.264,-83.547,47.73
-33.047,21.582,-39.775,35.431,-16.071,32.918,-49.57,14.944,-35.544,45.825,-58.089,52.195,-27.922,95.628,-83.602,47.852
-33.047,21.582,-39.775,35.431,-16.071,32.918,-49.57,14.944,-35.544,45.825,-58.089,52.195,-27.922,95.628,-83.602,47.852
-33.186,21.715,-39.912,35.507,-16.023,32.891,-49.626,14.888,-35.524,45.798,-58.433,52.448,-27.825,95.985,-83.652,47.97
-33.186,21.715,-39.912,35.507,-16.023,32.891,-49.626,14.888,-35.524,45.798,-58.433,52.448,-27.825,95.985,-83.652,47.97
-33.323,21.845,-40.046,35.58,-15.973,32.86,-49.677,14.827,-35.503,45.767,-58.773,52.696,-27.724,96.334,-83.698,48.083
-33.323,21.845,-40.046,35.58,-15.973,32.86,-49.677,14.827,-35.503,45.767,-58.773,52.696,-27.724,96.334,-83.698,48.083
-33.459,21.973,-40.178,35.649,-15.921,32.825,-49.725,14.764,-35.48,45.732,-59.111,52.941,-27.619,96.676,-83.739,48.191
-33.593,22.097,-40.307,35.716,-15.867,32.786,-49.77,14.696,-35.455,45.693,-59.444,53.181,-27.511,97.01,-83.777,48.295
-33.593,22.097,-40.307,35.716,-15.867,32.786,-49.77,14.696,-35.455,45.693,-59.444,53.181,-27.511,97.01,-83.777,48.295
-33.593,22.097,-40.307,35.716,-15.867,32.786,-49.77,14.696,-35.455,45.693,-59.444,53.181,-27.511,97.01,-83.777,48.295
-33.725,22.219,-40.434,35.778,-15.811,32.743,-49.81,14.625,-35.428,45.65,-59.775,53.417,-27.399,97.337,-83.81,48.394
-33.725,22.219,-40.434,35.778,-15.811,32.743,-49.81,14.625,-35.428,45.65,-59.775,53.417,-27.399,97.337,-83.81,48.394
-33.856,22.338,-40.558,35.837,-15.752,32.695,-49.847,14.55,-35.4,45.602,-60.101,53.649,-27.283,97.657,-83.839,48.488
-33.856,22.338,-40.558,35.837,-15.752,32.695,-49.847,14.55,-35.4,45.602,-60.101,53.649,-27.283,97.657,-83.839,48.488
-33.856,22.338,-40.558,35.837,-15.752,32.695,-49.847,14.55,-35.4,45.602,-60.101,53.649,-27.283,97.657,-83.839,48.488
-33.985,22.454,-40.68,35.893,-15.692,32.644,-49.88,14.471,-35.37,45.551,-60.425,53.877,-27.163,97.968,-83.864,48.578
-34.112,22.567,-40.799,35.946,-15.629,32.589,-49.91,14.389,-35.338,45.496,-60.745,54.1,-27.04,98.273,-83.884,48.663
-34.112,22.567,-40.799,35.946,-15.629,32.589,-49.91,14.389,-35.338,45.496,-60.745,54.1,-27.04,98.273,-83.884,48.663
-34.238,22.677,-40.916,35.995,-15.563,32.529,-49.936,14.303,-35.305,45.437,-61.061,54.319,-26.913,98.569,-83.901,48.744
-34.238,22.677,-40.916,35.995,-15.563,32.529,-49.936,14.303,-35.305,45.437,-61.061,54.319,-26.913,98.569,-83.901,48.744
-34.362,22.785,-41.03,36.04,-15.496,32.466,-49.958,14.214,-35.27,45.373,-61.374,54.534,-26.783,98.858,-83.913,48.819
-34.362,22.785,-41.03,36.04,-15.496,32.466,-49.958,14.214,-35.27,45.373,-61.374,54.534,-26.783,98.858,-83.913,48.819
-34.362,22.785,-41.03,36.04,-15.496,32.466,-49.958,14.214,-35.27,45.373,-61.374,54.534,-26.783,98.858,-83.913,48.819
-34.485,22.889,-41.142,36.082,-15.426,32.398,-49.977,14.121,-35.234,45.306,-61.683,54.745,-26.649,99.14,-83.92,48.89
-34.485,22.889,-41.142,36.082,-15.426,32.398,-49.977,14.121,-35.234,45.306,-61.683,54.745,-26.649,99.14,-83.92,48.89
-34.606,22.991,-41.251,36.12,-15.355,32.326,-49.992,14.024,-35.195,45.234,-61.989,54.951,-26.511,99.413,-83.924,48.957
-34.606,22.991,-41.251,36.12,-15.355,32.326,-49.992,14.024,-35.195,45.234,-61.989,54.951,-26.511,99.413,-83.924,48.957
-34.725,23.09,-41.358,36.155,-15.281,32.25,-50.003,13.923,-35.156,45.159,-62.291,55.153,-26.369,99.679,-83.923,49.018
-34.725,23.09,-41.358,36.155,-15.281,32.25,-50.003,13.923,-35.156,45.159,-62.291,55.153,-26.369,99.679,-83.923,49.018
-34.842,23.186,-41.462,36.187,-15.205,32.17,-50.01,13.819,-35.114,45.079,-62.589,55.351,-26.224,99.938,-83.918,49.075
-34.842,23.186,-41.462,36.187,-15.205,32.17,-50.01,13.819,-35.114,45.079,-62.589,55.351,-26.224,99.938,-83.918,49.075
-34.958,23.279,-41.564,36.215,-15.126,32.086,-50.014,13.711,-35.071,44.996,-62.884,55.544,-26.075,100.19,-83.909,49.127
-34.958,23.279,-41.564,36.215,-15.126,32.086,-50.014,13.711,-35.071,44.996,-62.884,55.544,-26.075,100.19,-83.909,49.127
-34.958,23.279,-41.564,36.215,-15.126,32.086,-50.014,13.711,-35.071,44.996,-62.884,55.544,-26.075,100.19,-83.909,49.127
-35.072,23.369,-41.663,36.24,-15.046,31.997,-50.014,13.6,-35.027,44.908,-63.175,55.733,-25.922,100.43,-83.896,49.174
-35.185,23.456,-41.76,36.261,-14.963,31.905,-50.011,13.485,-34.981,44.816,-63.463,55.918,-25.765,100.67,-83.878,49.216
-35.185,23.456,-41.76,36.261,-14.963,31.905,-50.011,13.485,-34.981,44.816,-63.463,55.918,-25.765,100.67,-83.878,49.216
-35.295,23.54,-41.854,36.278,-14.878,31.808,-50.003,13.366,-34.933,44.721,-63.747,56.098,-25.605,100.89,-83.856,49.254
-35.295,23.54,-41.854,36.278,-14.878,31.808,-50.003,13.366,-34.933,44.721,-63.747,56.098,-25.605,100.89,-83.856,49.254
-35.405,23.621,-41.945,36.292,-14.791,31.707,-49.992,13.243,-34.884,44.621,-64.027,56.274,-25.441,101.11,-83.83,49.287
-35.405,23.621,-41.945,36.292,-14.791,31.707,-49.992,13.243,-34.884,44.621,-64.027,56.274,-25.441,101.11,-83.83,49.287
-35.512,23.699,-42.034,36.302,-14.702,31.602,-49.978,13.117,-34.833,44.517,-64.303,56.445,-25.273,101.32,-83.799,49.314
-35.512,23.699,-42.034,36.302,-14.702,31.602,-49.978,13.117,-34.833,44.517,-64.303,56.445,-25.273,101.32,-83.799,49.314
-35.512,23.699,-42.034,36.302,-14.702,31.602,-49.978,13.117,-34.833,44.517,-64.303,56.445,-25.273,101.32,-83.799,49.314
-35.722,23.846,-42.204,36.313,-14.517,31.379,-49.937,12.854,-34.726,44.297,-64.844,56.774,-24.926,101.72,-83.725,49.355
-35.722,23.846,-42.204,36.313,-14.517,31.379,-49.937,12.854,-34.726,44.297,-64.844,56.774,-24.926,101.72,-83.725,49.355
-35.722,23.846,-42.204,36.313,-14.517,31.379,-49.937,12.854,-34.726,44.297,-64.844,56.774,-24.926,101.72,-83.725,49.355
-35.825,23.916,-42.286,36.313,-14.421,31.262,-49.911,12.717,-34.67,44.181,-65.109,56.932,-24.747,101.91,-83.682,49.369
-35.825,23.916,-42.286,36.313,-14.421,31.262,-49.911,12.717,-34.67,44.181,-65.109,56.932,-24.747,101.91,-83.682,49.369
-35.925,23.982,-42.365,36.309,-14.324,31.14,-49.882,12.576,-34.613,44.061,-65.371,57.085,-24.564,102.09,-83.634,49.377
-35.925,23.982,-42.365,36.309,-14.324,31.14,-49.882,12.576,-34.613,44.061,-65.371,57.085,-24.564,102.09,-83.634,49.377
-36.024,24.045,-42.441,36.302,-14.224,31.014,-49.849,12.432,-34.555,43.937,-65.628,57.234,-24.378,102.26,-83.582,49.38
-36.024,24.045,-42.441,36.302,-14.224,31.014,-49.849,12.432,-34.555,43.937,-65.628,57.234,-24.378,102.26,-83.582,49.38
-36.122,24.105,-42.514,36.291,-14.122,30.884,-49.812,12.284,-34.494,43.809,-65.881,57.378,-24.188,102.43,-83.526,49.379
-36.218,24.162,-42.585,36.276,-14.017,30.75,-49.772,12.132,-34.433,43.677,-66.131,57.518,-23.994,102.58,-83.466,49.372
-36.218,24.162,-42.585,36.276,-14.017,30.75,-49.772,12.132,-34.433,43.677,-66.131,57.518,-23.994,102.58,-83.466,49.372
-36.218,24.162,-42.585,36.276,-14.017,30.75,-49.772,12.132,-34.433,43.677,-66.131,57.518,-23.994,102.58,-83.466,49.372
-36.312,24.217,-42.654,36.258,-13.911,30.611,-49.728,11.977,-34.369,43.541,-66.377,57.653,-23.796,102.73,-83.401,49.361
-36.312,24.217,-42.654,36.258,-13.911,30.611,-49.728,11.977,-34.369,43.541,-66.377,57.653,-23.796,102.73,-83.401,49.361
-36.312,24.217,-42.654,36.258,-13.911,30.611,-49.728,11.977,-34.369,43.541,-66.377,57.653,-23.796,102.73,-83.401,49.361
-36.495,24.316,-42.783,36.212,-13.692,30.322,-49.628,11.655,-34.238,43.257,-66.857,57.909,-23.389,103,-83.259,49.323
-36.495,24.316,-42.783,36.212,-13.692,30.322,-49.628,11.655,-34.238,43.257,-66.857,57.909,-23.389,103,-83.259,49.323
-36.495,24.316,-42.783,36.212,-13.692,30.322,-49.628,11.655,-34.238,43.257,-66.857,57.909,-23.389,103,-83.259,49.323
-36.584,24.361,-42.843,36.183,-13.58,30.171,-49.573,11.489,-34.17,43.109,-67.091,58.031,-23.18,103.12,-83.181,49.297
-36.584,24.361,-42.843,36.183,-13.58,30.171,-49.573,11.489,-34.17,43.109,-67.091,58.031,-23.18,103.12,-83.181,49.297
-36.584,24.361,-42.843,36.183,-13.58,30.171,-49.573,11.489,-34.17,43.109,-67.091,58.031,-23.18,103.12,-83.181,49.297
-36.671,24.403,-42.902,36.151,-13.465,30.015,-49.514,11.32,-34.101,42.957,-67.321,58.147,-22.967,103.24,-83.099,49.266
-36.757,24.442,-42.957,36.115,-13.348,29.856,-49.452,11.146,-34.03,42.801,-67.547,58.259,-22.751,103.35,-83.013,49.23
-36.757,24.442,-42.957,36.115,-13.348,29.856,-49.452,11.146,-34.03,42.801,-67.547,58.259,-22.751,103.35,-83.013,49.23
-36.841,24.477,-43.01,36.076,-13.229,29.692,-49.386,10.969,-33.958,42.641,-67.77,58.367,-22.531,103.45,-82.923,49.189
-36.923,24.51,-43.06,36.033,-13.108,29.524,-49.316,10.789,-33.884,42.476,-67.988,58.47,-22.307,103.54,-82.829,49.142
-36.923,24.51,-43.06,36.033,-13.108,29.524,-49.316,10.789,-33.884,42.476,-67.988,58.47,-22.307,103.54,-82.829,49.142
-36.923,24.51,-43.06,36.033,-13.108,29.524,-49.316,10.789,-33.884,42.476,-67.988,58.47,-22.307,103.54,-82.829,49.142
-37.004,24.54,-43.108,35.986,-12.985,29.352,-49.243,10.604,-33.809,42.308,-68.202,58.568,-22.079,103.62,-82.73,49.091
-37.004,24.54,-43.108,35.986,-12.985,29.352,-49.243,10.604,-33.809,42.308,-68.202,58.568,-22.079,103.62,-82.73,49.091
-37.083,24.566,-43.153,35.936,-12.86,29.176,-49.166,10.417,-33.733,42.136,-68.413,58.661,-21.848,103.7,-82.627,49.035
-37.16,24.59,-43.196,35.882,-12.733,28.996,-49.085,10.225,-33.654,41.96,-68.619,58.75,-21.613,103.77,-82.52,48.974
-37.16,24.59,-43.196,35.882,-12.733,28.996,-49.085,10.225,-33.654,41.96,-68.619,58.75,-21.613,103.77,-82.52,48.974
-37.16,24.59,-43.196,35.882,-12.733,28.996,-49.085,10.225,-33.654,41.96,-68.619,58.75,-21.613,103.77,-82.52,48.974
-37.236,24.61,-43.236,35.825,-12.604,28.811,-49.001,10.03,-33.575,41.78,-68.821,58.834,-21.375,103.83,-82.408,48.908
-37.236,24.61,-43.236,35.825,-12.604,28.811,-49.001,10.03,-33.575,41.78,-68.821,58.834,-21.375,103.83,-82.408,48.908
-37.31,24.628,-43.273,35.764,-12.473,28.622,-48.913,9.8317,-33.494,41.596,-69.019,58.913,-21.132,103.88,-82.293,48.837
-37.31,24.628,-43.273,35.764,-12.473,28.622,-48.913,9.8317,-33.494,41.596,-69.019,58.913,-21.132,103.88,-82.293,48.837
-37.382,24.642,-43.308,35.7,-12.34,28.43,-48.821,9.6297,-33.411,41.408,-69.213,58.988,-20.886,103.92,-82.173,48.76
-37.382,24.642,-43.308,35.7,-12.34,28.43,-48.821,9.6297,-33.411,41.408,-69.213,58.988,-20.886,103.92,-82.173,48.76
-37.453,24.653,-43.34,35.632,-12.205,28.232,-48.726,9.4241,-33.328,41.217,-69.403,59.058,-20.637,103.96,-82.048,48.679
-37.522,24.661,-43.369,35.561,-12.068,28.031,-48.628,9.2149,-33.242,41.021,-69.589,59.123,-20.383,103.98,-81.92,48.593
-37.522,24.661,-43.369,35.561,-12.068,28.031,-48.628,9.2149,-33.242,41.021,-69.589,59.123,-20.383,103.98,-81.92,48.593
-37.522,24.661,-43.369,35.561,-12.068,28.031,-48.628,9.2149,-33.242,41.021,-69.589,59.123,-20.383,103.98,-81.92,48.593
-37.589,24.666,-43.396,35.486,-11.929,27.826,-48.526,9.0022,-33.156,40.821,-69.771,59.183,-20.127,104,-81.788,48.502
-37.589,24.666,-43.396,35.486,-11.929,27.826,-48.526,9.0022,-33.156,40.821,-69.771,59.183,-20.127,104,-81.788,48.502
-37.589,24.666,-43.396,35.486,-11.929,27.826,-48.526,9.0022,-33.156,40.821,-69.771,59.183,-20.127,104,-81.788,48.502
-37.654,24.668,-43.42,35.407,-11.787,27.616,-48.42,8.786,-33.068,40.618,-69.949,59.239,-19.866,104.01,-81.651,48.405
-37.654,24.668,-43.42,35.407,-11.787,27.616,-48.42,8.786,-33.068,40.618,-69.949,59.239,-19.866,104.01,-81.651,48.405
-37.654,24.668,-43.42,35.407,-11.787,27.616,-48.42,8.786,-33.068,40.618,-69.949,59.239,-19.866,104.01,-81.651,48.405
-37.78,24.663,-43.461,35.239,-11.499,27.185,-48.197,8.3431,-32.887,40.199,-70.292,59.336,-19.334,104.01,-81.365,48.198
-37.78,24.663,-43.461,35.239,-11.499,27.185,-48.197,8.3431,-32.887,40.199,-70.292,59.336,-19.334,104.01,-81.365,48.198
-37.841,24.655,-43.478,35.15,-11.352,26.963,-48.081,8.1163,-32.795,39.983,-70.457,59.377,-19.063,104,-81.216,48.087
-37.841,24.655,-43.478,35.15,-11.352,26.963,-48.081,8.1163,-32.795,39.983,-70.457,59.377,-19.063,104,-81.216,48.087
-37.9,24.645,-43.492,35.057,-11.203,26.736,-47.961,7.8861,-32.702,39.764,-70.618,59.414,-18.788,103.98,-81.062,47.97
-37.9,24.645,-43.492,35.057,-11.203,26.736,-47.961,7.8861,-32.702,39.764,-70.618,59.414,-18.788,103.98,-81.062,47.97
-37.957,24.631,-43.503,34.961,-11.052,26.506,-47.837,7.6524,-32.607,39.541,-70.775,59.446,-18.51,103.95,-80.905,47.849
-37.957,24.631,-43.503,34.961,-11.052,26.506,-47.837,7.6524,-32.607,39.541,-70.775,59.446,-18.51,103.95,-80.905,47.849
-38.012,24.615,-43.512,34.861,-10.899,26.272,-47.71,7.4152,-32.511,39.314,-70.928,59.473,-18.228,103.91,-80.743,47.722
-38.012,24.615,-43.512,34.861,-10.899,26.272,-47.71,7.4152,-32.511,39.314,-70.928,59.473,-18.228,103.91,-80.743,47.722
-38.066,24.595,-43.518,34.758,-10.745,26.033,-47.58,7.1746,-32.413,39.084,-71.076,59.495,-17.942,103.87,-80.577,47.591
-38.066,24.595,-43.518,34.758,-10.745,26.033,-47.58,7.1746,-32.413,39.084,-71.076,59.495,-17.942,103.87,-80.577,47.591
-38.118,24.572,-43.521,34.651,-10.588,25.791,-47.446,6.9305,-32.314,38.849,-71.221,59.513,-17.653,103.82,-80.407,47.454
-38.118,24.572,-43.521,34.651,-10.588,25.791,-47.446,6.9305,-32.314,38.849,-71.221,59.513,-17.653,103.82,-80.407,47.454
-38.169,24.546,-43.522,34.541,-10.43,25.544,-47.308,6.683,-32.214,38.611,-71.361,59.525,-17.361,103.75,-80.233,47.313
-38.169,24.546,-43.522,34.541,-10.43,25.544,-47.308,6.683,-32.214,38.611,-71.361,59.525,-17.361,103.75,-80.233,47.313
-38.218,24.517,-43.521,34.427,-10.269,25.293,-47.167,6.432,-32.112,38.369,-71.497,59.533,-17.065,103.69,-80.055,47.167
-38.218,24.517,-43.521,34.427,-10.269,25.293,-47.167,6.432,-32.112,38.369,-71.497,59.533,-17.065,103.69,-80.055,47.167
-38.218,24.517,-43.521,34.427,-10.269,25.293,-47.167,6.432,-32.112,38.369,-71.497,59.533,-17.065,103.69,-80.055,47.167
-38.265,24.484,-43.517,34.31,-10.107,25.038,-47.022,6.1777,-32.009,38.123,-71.628,59.537,-16.766,103.61,-79.873,47.015
-38.31,24.449,-43.51,34.189,-9.9427,24.779,-46.874,5.9199,-31.905,37.873,-71.756,59.535,-16.463,103.52,-79.686,46.859
-38.31,24.449,-43.51,34.189,-9.9427,24.779,-46.874,5.9199,-31.905,37.873,-71.756,59.535,-16.463,103.52,-79.686,46.859
-38.354,24.411,-43.5,34.065,-9.7767,24.517,-46.723,5.6588,-31.8,37.62,-71.879,59.528,-16.157,103.43,-79.496,46.697
-38.354,24.411,-43.5,34.065,-9.7767,24.517,-46.723,5.6588,-31.8,37.62,-71.879,59.528,-16.157,103.43,-79.496,46.697
-38.396,24.369,-43.488,33.937,-9.6088,24.25,-46.568,5.3942,-31.693,37.362,-71.998,59.517,-15.847,103.33,-79.301,46.531
-38.396,24.369,-43.488,33.937,-9.6088,24.25,-46.568,5.3942,-31.693,37.362,-71.998,59.517,-15.847,103.33,-79.301,46.531
-38.437,24.324,-43.474,33.806,-9.4392,23.978,-46.41,5.1264,-31.585,37.101,-72.112,59.501,-15.534,103.22,-79.103,46.359
-38.437,24.324,-43.474,33.806,-9.4392,23.978,-46.41,5.1264,-31.585,37.101,-72.112,59.501,-15.534,103.22,-79.103,46.359
-38.437,24.324,-43.474,33.806,-9.4392,23.978,-46.41,5.1264,-31.585,37.101,-72.112,59.501,-15.534,103.22,-79.103,46.359
-38.476,24.277,-43.457,33.671,-9.2677,23.703,-46.248,4.8551,-31.475,36.837,-72.223,59.48,-15.218,103.11,-78.9,46.183
-38.476,24.277,-43.457,33.671,-9.2677,23.703,-46.248,4.8551,-31.475,36.837,-72.223,59.48,-15.218,103.11,-78.9,46.183
-38.476,24.277,-43.457,33.671,-9.2677,23.703,-46.248,4.8551,-31.475,36.837,-72.223,59.48,-15.218,103.11,-78.9,46.183
-38.548,24.172,-43.415,33.392,-8.9193,23.141,-45.914,4.3026,-31.253,36.296,-72.43,59.424,-14.575,102.85,-78.483,45.815
-38.548,24.172,-43.415,33.392,-8.9193,23.141,-45.914,4.3026,-31.253,36.296,-72.43,59.424,-14.575,102.85,-78.483,45.815
-38.582,24.115,-43.39,33.247,-8.7424,22.854,-45.742,4.0214,-31.14,36.02,-72.528,59.389,-14.248,102.71,-78.268,45.624
-38.582,24.115,-43.39,33.247,-8.7424,22.854,-45.742,4.0214,-31.14,36.02,-72.528,59.389,-14.248,102.71,-78.268,45.624
-38.582,24.115,-43.39,33.247,-8.7424,22.854,-45.742,4.0214,-31.14,36.02,-72.528,59.389,-14.248,102.71,-78.268,45.624
-38.582,24.115,-43.39,33.247,-8.7424,22.854,-45.742,4.0214,-31.14,36.02,-72.528,59.389,-14.248,102.71,-78.268,45.624
-38.645,23.992,-43.333,32.947,-8.3833,22.268,-45.389,3.449,-30.91,35.457,-72.71,59.304,-13.586,102.41,-77.827,45.226
-38.645,23.992,-43.333,32.947,-8.3833,22.268,-45.389,3.449,-30.91,35.457,-72.71,59.304,-13.586,102.41,-77.827,45.226
-38.674,23.925,-43.3,32.792,-8.2012,21.969,-45.207,3.1579,-30.793,35.171,-72.794,59.254,-13.25,102.25,-77.601,45.02
-38.674,23.925,-43.3,32.792,-8.2012,21.969,-45.207,3.1579,-30.793,35.171,-72.794,59.254,-13.25,102.25,-77.601,45.02
-38.701,23.856,-43.265,32.633,-8.0173,21.666,-45.021,2.8636,-30.675,34.88,-72.874,59.2,-12.91,102.08,-77.37,44.809
-38.701,23.856,-43.265,32.633,-8.0173,21.666,-45.021,2.8636,-30.675,34.88,-72.874,59.2,-12.91,102.08,-77.37,44.809
-38.727,23.784,-43.228,32.471,-7.8316,21.36,-44.833,2.566,-30.556,34.586,-72.95,59.141,-12.568,101.9,-77.136,44.593
-38.727,23.784,-43.228,32.471,-7.8316,21.36,-44.833,2.566,-30.556,34.586,-72.95,59.141,-12.568,101.9,-77.136,44.593
-38.727,23.784,-43.228,32.471,-7.8316,21.36,-44.833,2.566,-30.556,34.586,-72.95,59.141,-12.568,101.9,-77.136,44.593
-38.75,23.708,-43.188,32.306,-7.6443,21.049,-44.641,2.2652,-30.436,34.289,-73.021,59.077,-12.222,101.71,-76.897,44.372
-38.75,23.708,-43.188,32.306,-7.6443,21.049,-44.641,2.2652,-30.436,34.289,-73.021,59.077,-12.222,101.71,-76.897,44.372
-38.773,23.63,-43.145,32.138,-7.4553,20.734,-44.446,1.9612,-30.314,33.987,-73.088,59.008,-11.873,101.52,-76.655,44.146
-38.793,23.548,-43.1,31.966,-7.2646,20.416,-44.248,1.654,-30.191,33.682,-73.151,58.934,-11.521,101.32,-76.409,43.915
-38.793,23.548,-43.1,31.966,-7.2646,20.416,-44.248,1.654,-30.191,33.682,-73.151,58.934,-11.521,101.32,-76.409,43.915
-38.812,23.463,-43.052,31.791,-7.0722,20.093,-44.046,1.3436,-30.067,33.374,-73.209,58.856,-11.166,101.11,-76.159,43.68
-38.812,23.463,-43.052,31.791,-7.0722,20.093,-44.046,1.3436,-30.067,33.374,-73.209,58.856,-11.166,101.11,-76.159,43.68
-38.83,23.376,-43.002,31.612,-6.8781,19.767,-43.841,1.03,-29.942,33.062,-73.263,58.772,-10.808,100.89,-75.905,43.439
-38.83,23.376,-43.002,31.612,-6.8781,19.767,-43.841,1.03,-29.942,33.062,-73.263,58.772,-10.808,100.89,-75.905,43.439
-38.845,23.285,-42.949,31.431,-6.6824,19.437,-43.633,0.71327,-29.816,32.747,-73.313,58.685,-10.447,100.67,-75.648,43.194
-38.845,23.285,-42.949,31.431,-6.6824,19.437,-43.633,0.71327,-29.816,32.747,-73.313,58.685,-10.447,100.67,-75.648,43.194
-38.86,23.191,-42.894,31.246,-6.4851,19.103,-43.422,0.39342,-29.688,32.428,-73.358,58.592,-10.083,100.44,-75.386,42.944
-38.86,23.191,-42.894,31.246,-6.4851,19.103,-43.422,0.39342,-29.688,32.428,-73.358,58.592,-10.083,100.44,-75.386,42.944
-38.86,23.191,-42.894,31.246,-6.4851,19.103,-43.422,0.39342,-29.688,32.428,-73.358,58.592,-10.083,100.44,-75.386,42.944
-38.872,23.095,-42.836,31.058,-6.2861,18.766,-43.207,0.070458,-29.56,32.105,-73.399,58.494,-9.7158,100.2,-75.121,42.689
-38.872,23.095,-42.836,31.058,-6.2861,18.766,-43.207,0.070458,-29.56,32.105,-73.399,58.494,-9.7158,100.2,-75.121,42.689
-38.872,23.095,-42.836,31.058,-6.2861,18.766,-43.207,0.070458,-29.56,32.105,-73.399,58.494,-9.7158,100.2,-75.121,42.689
-38.892,22.892,-42.713,30.672,-5.8834,18.079,-42.769,-0.58475,-29.299,31.45,-73.467,58.285,-8.9727,99.696,-74.579,42.164
-38.892,22.892,-42.713,30.672,-5.8834,18.079,-42.769,-0.58475,-29.299,31.45,-73.467,58.285,-8.9727,99.696,-74.579,42.164
-38.9,22.786,-42.648,30.474,-5.6796,17.73,-42.545,-0.91696,-29.167,31.118,-73.495,58.173,-8.5968,99.435,-74.303,41.895
-38.9,22.786,-42.648,30.474,-5.6796,17.73,-42.545,-0.91696,-29.167,31.118,-73.495,58.173,-8.5968,99.435,-74.303,41.895
-38.9,22.786,-42.648,30.474,-5.6796,17.73,-42.545,-0.91696,-29.167,31.118,-73.495,58.173,-8.5968,99.435,-74.303,41.895
-38.905,22.678,-42.58,30.273,-5.4743,17.378,-42.318,-1.2522,-29.034,30.782,-73.518,58.057,-8.218,99.166,-74.022,41.621
-38.91,22.566,-42.51,30.068,-5.2675,17.022,-42.087,-1.5905,-28.9,30.442,-73.537,57.936,-7.8363,98.89,-73.738,41.342
-38.912,22.451,-42.437,29.861,-5.059,16.661,-41.854,-1.9318,-28.765,30.099,-73.551,57.81,-7.4519,98.607,-73.451,41.058
-38.912,22.451,-42.437,29.861,-5.059,16.661,-41.854,-1.9318,-28.765,30.099,-73.551,57.81,-7.4519,98.607,-73.451,41.058
-38.912,22.451,-42.437,29.861,-5.059,16.661,-41.854,-1.9318,-28.765,30.099,-73.551,57.81,-7.4519,98.607,-73.451,41.058
-38.913,22.333,-42.362,29.65,-4.8491,16.298,-41.618,-2.2761,-28.628,29.753,-73.561,57.679,-7.0646,98.317,-73.159,40.77
-38.913,22.333,-42.362,29.65,-4.8491,16.298,-41.618,-2.2761,-28.628,29.753,-73.561,57.679,-7.0646,98.317,-73.159,40.77
-38.913,22.213,-42.284,29.437,-4.6376,15.931,-41.378,-2.6234,-28.491,29.403,-73.567,57.544,-6.6746,98.019,-72.864,40.477
-38.911,22.089,-42.204,29.22,-4.4247,15.56,-41.136,-2.9736,-28.352,29.05,-73.568,57.404,-6.2819,97.715,-72.566,40.179
-38.911,22.089,-42.204,29.22,-4.4247,15.56,-41.136,-2.9736,-28.352,29.05,-73.568,57.404,-6.2819,97.715,-72.566,40.179
-38.911,22.089,-42.204,29.22,-4.4247,15.56,-41.136,-2.9736,-28.352,29.05,-73.568,57.404,-6.2819,97.715,-72.566,40.179
-38.907,21.962,-42.122,29,-4.2102,15.185,-40.89,-3.3267,-28.213,28.694,-73.565,57.259,-5.8865,97.403,-72.263,39.877
-38.907,21.962,-42.122,29,-4.2102,15.185,-40.89,-3.3267,-28.213,28.694,-73.565,57.259,-5.8865,97.403,-72.263,39.877
-38.901,21.833,-42.037,28.777,-3.9943,14.807,-40.642,-3.6828,-28.072,28.335,-73.557,57.11,-5.4884,97.084,-71.957,39.57
-38.901,21.833,-42.037,28.777,-3.9943,14.807,-40.642,-3.6828,-28.072,28.335,-73.557,57.11,-5.4884,97.084,-71.957,39.57
-38.894,21.7,-41.949,28.551,-3.7769,14.425,-40.391,-4.0418,-27.93,27.972,-73.545,56.956,-5.0877,96.758,-71.648,39.258
-38.894,21.7,-41.949,28.551,-3.7769,14.425,-40.391,-4.0418,-27.93,27.972,-73.545,56.956,-5.0877,96.758,-71.648,39.258
-38.886,21.565,-41.859,28.322,-3.558,14.04,-40.136,-4.4036,-27.788,27.606,-73.528,56.797,-4.6843,96.425,-71.335,38.942
-38.886,21.565,-41.859,28.322,-3.558,14.04,-40.136,-4.4036,-27.788,27.606,-73.528,56.797,-4.6843,96.425,-71.335,38.942
-38.886,21.565,-41.859,28.322,-3.558,14.04,-40.136,-4.4036,-27.788,27.606,-73.528,56.797,-4.6843,96.425,-71.335,38.942
-38.876,21.427,-41.767,28.09,-3.3378,13.651,-39.879,-4.7684,-27.644,27.237,-73.507,56.634,-4.2784,96.085,-71.018,38.621
-38.864,21.286,-41.672,27.855,-3.1161,13.259,-39.618,-5.1359,-27.499,26.865,-73.482,56.466,-3.87,95.738,-70.698,38.296
-38.864,21.286,-41.672,27.855,-3.1161,13.259,-39.618,-5.1359,-27.499,26.865,-73.482,56.466,-3.87,95.738,-70.698,38.296
-38.85,21.142,-41.575,27.617,-2.893,12.863,-39.355,-5.5063,-27.353,26.489,-73.452,56.293,-3.4591,95.384,-70.375,37.966
-38.85,21.142,-41.575,27.617,-2.893,12.863,-39.355,-5.5063,-27.353,26.489,-73.452,56.293,-3.4591,95.384,-70.375,37.966
-38.835,20.995,-41.476,27.377,-2.6685,12.464,-39.089,-5.8794,-27.207,26.111,-73.418,56.116,-3.0456,95.023,-70.048,37.631
-38.835,20.995,-41.476,27.377,-2.6685,12.464,-39.089,-5.8794,-27.207,26.111,-73.418,56.116,-3.0456,95.023,-70.048,37.631
-38.819,20.845,-41.374,27.133,-2.4426,12.061,-38.82,-6.2554,-27.059,25.729,-73.379,55.935,-2.6298,94.656,-69.717,37.292
-38.819,20.845,-41.374,27.133,-2.4426,12.061,-38.82,-6.2554,-27.059,25.729,-73.379,55.935,-2.6298,94.656,-69.717,37.292
-38.8,20.692,-41.27,26.886,-2.2153,11.655,-38.548,-6.6341,-26.91,25.344,-73.336,55.748,-2.2115,94.281,-69.383,36.949
-38.8,20.692,-41.27,26.886,-2.2153,11.655,-38.548,-6.6341,-26.91,25.344,-73.336,55.748,-2.2115,94.281,-69.383,36.949
-38.781,20.537,-41.163,26.636,-1.9868,11.246,-38.274,-7.0155,-26.76,24.956,-73.289,55.557,-1.7909,93.9,-69.046,36.601
-38.781,20.537,-41.163,26.636,-1.9868,11.246,-38.274,-7.0155,-26.76,24.956,-73.289,55.557,-1.7909,93.9,-69.046,36.601
-38.759,20.379,-41.054,26.384,-1.7568,10.833,-37.996,-7.3996,-26.61,24.565,-73.237,55.362,-1.368,93.512,-68.705,36.249
-38.759,20.379,-41.054,26.384,-1.7568,10.833,-37.996,-7.3996,-26.61,24.565,-73.237,55.362,-1.368,93.512,-68.705,36.249
-38.736,20.217,-40.943,26.128,-1.5256,10.417,-37.716,-7.7865,-26.458,24.171,-73.181,55.162,-0.9427,93.118,-68.361,35.892
-38.736,20.217,-40.943,26.128,-1.5256,10.417,-37.716,-7.7865,-26.458,24.171,-73.181,55.162,-0.9427,93.118,-68.361,35.892
-38.712,20.053,-40.829,25.87,-1.293,9.9973,-37.433,-8.176,-26.305,23.774,-73.12,54.957,-0.51516,92.717,-68.014,35.531
-38.712,20.053,-40.829,25.87,-1.293,9.9973,-37.433,-8.176,-26.305,23.774,-73.12,54.957,-0.51516,92.717,-68.014,35.531
-38.712,20.053,-40.829,25.87,-1.293,9.9973,-37.433,-8.176,-26.305,23.774,-73.12,54.957,-0.51516,92.717,-68.014,35.531
-38.685,19.887,-40.713,25.609,-1.0592,9.5745,-37.147,-8.5681,-26.152,23.374,-73.055,54.748,-0.085401,92.31,-67.663,35.165
-38.658,19.717,-40.595,25.345,-0.82405,9.1485,-36.858,-8.9629,-25.997,22.972,-72.985,54.535,0.34656,91.896,-67.309,34.795
-38.628,19.545,-40.474,25.079,-0.58765,8.7192,-36.567,-9.3603,-25.842,22.566,-72.911,54.316,0.78068,91.475,-66.952,34.421
-38.628,19.545,-40.474,25.079,-0.58765,8.7192,-36.567,-9.3603,-25.842,22.566,-72.911,54.316,0.78068,91.475,-66.952,34.421
-38.628,19.545,-40.474,25.079,-0.58765,8.7192,-36.567,-9.3603,-25.842,22.566,-72.911,54.316,0.78068,91.475,-66.952,34.421
-38.628,19.545,-40.474,25.079,-0.58765,8.7192,-36.567,-9.3603,-25.842,22.566,-72.911,54.316,0.78068,91.475,-66.952,34.421
-38.598,19.37,-40.351,24.809,-0.35001,8.2866,-36.273,-9.7602,-25.685,22.157,-72.833,54.094,1.2169,91.048,-66.592,34.043
-38.598,19.37,-40.351,24.809,-0.35001,8.2866,-36.273,-9.7602,-25.685,22.157,-72.833,54.094,1.2169,91.048,-66.592,34.043
-38.531,19.012,-40.098,24.263,0.12898,7.4121,-35.677,-10.568,-25.37,21.331,-72.663,53.636,2.0957,90.176,-65.861,33.273
-38.531,19.012,-40.098,24.263,0.12898,7.4121,-35.677,-10.568,-25.37,21.331,-72.663,53.636,2.0957,90.176,-65.861,33.273
-38.531,19.012,-40.098,24.263,0.12898,7.4121,-35.677,-10.568,-25.37,21.331,-72.663,53.636,2.0957,90.176,-65.861,33.273
-38.495,18.829,-39.968,23.985,0.37029,6.97,-35.375,-10.975,-25.211,20.913,-72.571,53.4,2.5381,89.73,-65.491,32.882
-38.495,18.829,-39.968,23.985,0.37029,6.97,-35.375,-10.975,-25.211,20.913,-72.571,53.4,2.5381,89.73,-65.491,32.882
-38.458,18.643,-39.836,23.705,0.61279,6.5249,-35.071,-11.385,-25.051,20.493,-72.475,53.159,2.9825,89.278,-65.118,32.486
-38.458,18.643,-39.836,23.705,0.61279,6.5249,-35.071,-11.385,-25.051,20.493,-72.475,53.159,2.9825,89.278,-65.118,32.486
-38.42,18.454,-39.701,23.423,0.85648,6.0767,-34.763,-11.798,-24.89,20.07,-72.375,52.915,3.4288,88.82,-64.741,32.087
-38.379,18.263,-39.564,23.137,1.1013,5.6254,-34.454,-12.213,-24.728,19.645,-72.27,52.666,3.877,88.356,-64.362,31.683
-38.379,18.263,-39.564,23.137,1.1013,5.6254,-34.454,-12.213,-24.728,19.645,-72.27,52.666,3.877,88.356,-64.362,31.683
-38.379,18.263,-39.564,23.137,1.1013,5.6254,-34.454,-12.213,-24.728,19.645,-72.27,52.666,3.877,88.356,-64.362,31.683
-38.338,18.069,-39.425,22.85,1.3473,5.171,-34.141,-12.63,-24.565,19.216,-72.161,52.412,4.3271,87.885,-63.98,31.275
-38.338,18.069,-39.425,22.85,1.3473,5.171,-34.141,-12.63,-24.565,19.216,-72.161,52.412,4.3271,87.885,-63.98,31.275
-38.294,17.872,-39.284,22.559,1.5945,4.7137,-33.827,-13.05,-24.402,18.785,-72.047,52.155,4.7791,87.409,-63.594,30.864
-38.294,17.872,-39.284,22.559,1.5945,4.7137,-33.827,-13.05,-24.402,18.785,-72.047,52.155,4.7791,87.409,-63.594,30.864
-38.249,17.673,-39.14,22.266,1.8427,4.2533,-33.509,-13.472,-24.237,18.351,-71.929,51.893,5.2328,86.927,-63.206,30.448
-38.203,17.471,-38.995,21.971,2.0921,3.79,-33.189,-13.896,-24.072,17.915,-71.807,51.627,5.6883,86.438,-62.814,30.028
-38.203,17.471,-38.995,21.971,2.0921,3.79,-33.189,-13.896,-24.072,17.915,-71.807,51.627,5.6883,86.438,-62.814,30.028
-38.203,17.471,-38.995,21.971,2.0921,3.79,-33.189,-13.896,-24.072,17.915,-71.807,51.627,5.6883,86.438,-62.814,30.028
-38.155,17.267,-38.847,21.673,2.3425,3.3238,-32.867,-14.323,-23.906,17.476,-71.681,51.356,6.1455,85.944,-62.42,29.604
-38.155,17.267,-38.847,21.673,2.3425,3.3238,-32.867,-14.323,-23.906,17.476,-71.681,51.356,6.1455,85.944,-62.42,29.604
-38.105,17.06,-38.696,21.373,2.5941,2.8547,-32.543,-14.752,-23.739,17.034,-71.55,51.081,6.6044,85.445,-62.022,29.176
-38.105,17.06,-38.696,21.373,2.5941,2.8547,-32.543,-14.752,-23.739,17.034,-71.55,51.081,6.6044,85.445,-62.022,29.176
-38.105,17.06,-38.696,21.373,2.5941,2.8547,-32.543,-14.752,-23.739,17.034,-71.55,51.081,6.6044,85.445,-62.022,29.176
-38.054,16.851,-38.544,21.07,2.8467,2.3827,-32.215,-15.184,-23.571,16.59,-71.414,50.802,7.0649,84.939,-61.622,28.744
-38.002,16.639,-38.39,20.765,3.1003,1.9079,-31.886,-15.617,-23.403,16.143,-71.275,50.519,7.527,84.428,-61.219,28.309
-38.002,16.639,-38.39,20.765,3.1003,1.9079,-31.886,-15.617,-23.403,16.143,-71.275,50.519,7.527,84.428,-61.219,28.309
-37.947,16.424,-38.233,20.457,3.355,1.4302,-31.554,-16.053,-23.233,15.693,-71.131,50.231,7.9907,83.911,-60.813,27.869
-37.947,16.424,-38.233,20.457,3.355,1.4302,-31.554,-16.053,-23.233,15.693,-71.131,50.231,7.9907,83.911,-60.813,27.869
-37.892,16.207,-38.074,20.147,3.6107,0.94974,-31.22,-16.491,-23.063,15.241,-70.983,49.94,8.4559,83.389,-60.404,27.426
-37.892,16.207,-38.074,20.147,3.6107,0.94974,-31.22,-16.491,-23.063,15.241,-70.983,49.94,8.4559,83.389,-60.404,27.426
-37.835,15.987,-37.913,19.835,3.8674,0.46653,-30.883,-16.931,-22.892,14.787,-70.83,49.644,8.9226,82.861,-59.992,26.978
-37.835,15.987,-37.913,19.835,3.8674,0.46653,-30.883,-16.931,-22.892,14.787,-70.83,49.644,8.9226,82.861,-59.992,26.978
-37.776,15.765,-37.75,19.521,4.1251,-0.019413,-30.544,-17.373,-22.72,14.33,-70.673,49.344,9.3908,82.327,-59.578,26.527
-37.716,15.541,-37.584,19.204,4.3837,-0.50806,-30.203,-17.818,-22.548,13.871,-70.512,49.04,9.8603,81.789,-59.16,26.073
-37.716,15.541,-37.584,19.204,4.3837,-0.50806,-30.203,-17.818,-22.548,13.871,-70.512,49.04,9.8603,81.789,-59.16,26.073
-37.654,15.314,-37.417,18.885,4.6434,-0.99937,-29.86,-18.264,-22.375,13.41,-70.346,48.732,10.331,81.245,-58.741,25.614
-37.654,15.314,-37.417,18.885,4.6434,-0.99937,-29.86,-18.264,-22.375,13.41,-70.346,48.732,10.331,81.245,-58.741,25.614
-37.654,15.314,-37.417,18.885,4.6434,-0.99937,-29.86,-18.264,-22.375,13.41,-70.346,48.732,10.331,81.245,-58.741,25.614
-37.591,15.085,-37.247,18.564,4.904,-1.4933,-29.514,-18.713,-22.2,12.946,-70.177,48.419,10.803,80.695,-58.318,25.152
-37.591,15.085,-37.247,18.564,4.904,-1.4933,-29.514,-18.713,-22.2,12.946,-70.177,48.419,10.803,80.695,-58.318,25.152
-37.591,15.085,-37.247,18.564,4.904,-1.4933,-29.514,-18.713,-22.2,12.946,-70.177,48.419,10.803,80.695,-58.318,25.152
-37.526,14.853,-37.076,18.24,5.1655,-1.9899,-29.166,-19.163,-22.026,12.479,-70.003,48.103,11.277,80.141,-57.893,24.687
-37.526,14.853,-37.076,18.24,5.1655,-1.9899,-29.166,-19.163,-22.026,12.479,-70.003,48.103,11.277,80.141,-57.893,24.687
-37.46,14.619,-36.902,17.915,5.4279,-2.4891,-28.816,-19.616,-21.85,12.011,-69.824,47.783,11.752,79.581,-57.465,24.217
-37.46,14.619,-36.902,17.915,5.4279,-2.4891,-28.816,-19.616,-21.85,12.011,-69.824,47.783,11.752,79.581,-57.465,24.217
-37.392,14.382,-36.726,17.587,5.6913,-2.9908,-28.464,-20.07,-21.674,11.54,-69.642,47.459,12.228,79.016,-57.035,23.744
-37.323,14.143,-36.548,17.258,5.9555,-3.495,-28.109,-20.527,-21.497,11.067,-69.455,47.13,12.705,78.446,-56.602,23.268
-37.323,14.143,-36.548,17.258,5.9555,-3.495,-28.109,-20.527,-21.497,11.067,-69.455,47.13,12.705,78.446,-56.602,23.268
-37.252,13.902,-36.368,16.926,6.2206,-4.0017,-27.753,-20.985,-21.319,10.592,-69.264,46.798,13.183,77.871,-56.166,22.788
-37.252,13.902,-36.368,16.926,6.2206,-4.0017,-27.753,-20.985,-21.319,10.592,-69.264,46.798,13.183,77.871,-56.166,22.788
-37.18,13.659,-36.186,16.592,6.4866,-4.5109,-27.394,-21.446,-21.14,10.114,-69.069,46.462,13.662,77.291,-55.728,22.305
-37.18,13.659,-36.186,16.592,6.4866,-4.5109,-27.394,-21.446,-21.14,10.114,-69.069,46.462,13.662,77.291,-55.728,22.305
-37.18,13.659,-36.186,16.592,6.4866,-4.5109,-27.394,-21.446,-21.14,10.114,-69.069,46.462,13.662,77.291,-55.728,22.305
-37.106,13.413,-36.002,16.256,6.7534,-5.0225,-27.034,-21.908,-20.961,9.6345,-68.869,46.122,14.143,76.706,-55.287,21.818
-37.031,13.165,-35.816,15.918,7.021,-5.5365,-26.671,-22.372,-20.781,9.1527,-68.666,45.778,14.624,76.117,-54.844,21.327
-36.954,12.914,-35.628,15.578,7.2895,-6.0529,-26.306,-22.837,-20.601,8.6689,-68.458,45.43,15.107,75.523,-54.399,20.834
-36.954,12.914,-35.628,15.578,7.2895,-6.0529,-26.306,-22.837,-20.601,8.6689,-68.458,45.43,15.107,75.523,-54.399,20.834
-36.954,12.914,-35.628,15.578,7.2895,-6.0529,-26.306,-22.837,-20.601,8.6689,-68.458,45.43,15.107,75.523,-54.399,20.834
-36.876,12.662,-35.438,15.237,7.5588,-6.5716,-25.939,-23.305,-20.419,8.183,-68.246,45.079,15.59,74.924,-53.951,20.337
-36.876,12.662,-35.438,15.237,7.5588,-6.5716,-25.939,-23.305,-20.419,8.183,-68.246,45.079,15.59,74.924,-53.951,20.337
-36.796,12.407,-35.246,14.893,7.8289,-7.0926,-25.571,-23.774,-20.237,7.695,-68.03,44.723,16.074,74.32,-53.501,19.837
-36.796,12.407,-35.246,14.893,7.8289,-7.0926,-25.571,-23.774,-20.237,7.695,-68.03,44.723,16.074,74.32,-53.501,19.837
-36.796,12.407,-35.246,14.893,7.8289,-7.0926,-25.571,-23.774,-20.237,7.695,-68.03,44.723,16.074,74.32,-53.501,19.837
-36.715,12.15,-35.052,14.548,8.0997,-7.6159,-25.2,-24.245,-20.055,7.2051,-67.81,44.364,16.559,73.712,-53.049,19.333
-36.633,11.891,-34.856,14.2,8.3713,-8.1414,-24.827,-24.718,-19.871,6.7131,-67.585,44.001,17.045,73.099,-52.594,18.827
-36.549,11.63,-34.658,13.851,8.6437,-8.6691,-24.453,-25.192,-19.687,6.2193,-67.357,43.635,17.531,72.482,-52.137,18.317
-36.549,11.63,-34.658,13.851,8.6437,-8.6691,-24.453,-25.192,-19.687,6.2193,-67.357,43.635,17.531,72.482,-52.137,18.317
-36.549,11.63,-34.658,13.851,8.6437,-8.6691,-24.453,-25.192,-19.687,6.2193,-67.357,43.635,17.531,72.482,-52.137,18.317
-36.463,11.366,-34.458,13.5,8.9168,-9.1991,-24.076,-25.669,-19.503,5.7235,-67.124,43.264,18.019,71.861,-51.678,17.804
-36.463,11.366,-34.458,13.5,8.9168,-9.1991,-24.076,-25.669,-19.503,5.7235,-67.124,43.264,18.019,71.861,-51.678,17.804
-36.376,11.101,-34.256,13.148,9.1906,-9.7311,-23.698,-26.146,-19.318,5.2258,-66.887,42.89,18.506,71.235,-51.216,17.288
-36.376,11.101,-34.256,13.148,9.1906,-9.7311,-23.698,-26.146,-19.318,5.2258,-66.887,42.89,18.506,71.235,-51.216,17.288
-36.288,10.833,-34.053,12.793,9.4651,-10.265,-23.318,-26.625,-19.132,4.7263,-66.646,42.512,18.995,70.605,-50.753,16.769
-36.288,10.833,-34.053,12.793,9.4651,-10.265,-23.318,-26.625,-19.132,4.7263,-66.646,42.512,18.995,70.605,-50.753,16.769
-36.198,10.563,-33.847,12.437,9.7404,-10.802,-22.936,-27.106,-18.945,4.2249,-66.401,42.131,19.484,69.971,-50.287,16.247
-36.198,10.563,-33.847,12.437,9.7404,-10.802,-22.936,-27.106,-18.945,4.2249,-66.401,42.131,19.484,69.971,-50.287,16.247
-36.107,10.292,-33.639,12.079,10.016,-11.34,-22.552,-27.588,-18.758,3.7218,-66.152,41.746,19.974,69.332,-49.819,15.721
-36.107,10.292,-33.639,12.079,10.016,-11.34,-22.552,-27.588,-18.758,3.7218,-66.152,41.746,19.974,69.332,-49.819,15.721
-36.014,10.018,-33.43,11.72,10.293,-11.88,-22.167,-28.072,-18.57,3.2169,-65.899,41.358,20.464,68.69,-49.349,15.193
-36.014,10.018,-33.43,11.72,10.293,-11.88,-22.167,-28.072,-18.57,3.2169,-65.899,41.358,20.464,68.69,-49.349,15.193
-35.92,9.7421,-33.219,11.359,10.57,-12.422,-21.78,-28.557,-18.382,2.7102,-65.642,40.966,20.955,68.043,-48.877,14.662
-35.92,9.7421,-33.219,11.359,10.57,-12.422,-21.78,-28.557,-18.382,2.7102,-65.642,40.966,20.955,68.043,-48.877,14.662
-35.825,9.4644,-33.006,10.997,10.848,-12.967,-21.391,-29.044,-18.193,2.2019,-65.381,40.57,21.446,67.393,-48.403,14.129
-35.825,9.4644,-33.006,10.997,10.848,-12.967,-21.391,-29.044,-18.193,2.2019,-65.381,40.57,21.446,67.393,-48.403,14.129
-35.825,9.4644,-33.006,10.997,10.848,-12.967,-21.391,-29.044,-18.193,2.2019,-65.381,40.57,21.446,67.393,-48.403,14.129
-35.728,9.1847,-32.791,10.633,11.126,-13.513,-21,-29.532,-18.003,1.6919,-65.116,40.172,21.937,66.739,-47.928,13.592
-35.629,8.9031,-32.574,10.267,11.405,-14.061,-20.608,-30.021,-17.813,1.1803,-64.847,39.769,22.429,66.081,-47.45,13.053
-35.629,8.9031,-32.574,10.267,11.405,-14.061,-20.608,-30.021,-17.813,1.1803,-64.847,39.769,22.429,66.081,-47.45,13.053
-35.529,8.6196,-32.356,9.9001,11.685,-14.611,-20.214,-30.512,-17.622,0.66708,-64.574,39.363,22.921,65.419,-46.97,12.51
-35.529,8.6196,-32.356,9.9001,11.685,-14.611,-20.214,-30.512,-17.622,0.66708,-64.574,39.363,22.921,65.419,-46.97,12.51
-35.428,8.3341,-32.135,9.5316,11.965,-15.162,-19.818,-31.004,-17.431,0.15228,-64.297,38.954,23.414,64.754,-46.488,11.966
-35.428,8.3341,-32.135,9.5316,11.965,-15.162,-19.818,-31.004,-17.431,0.15228,-64.297,38.954,23.414,64.754,-46.488,11.966
-35.325,8.0468,-31.913,9.1618,12.246,-15.716,-19.421,-31.498,-17.239,-0.36405,-64.017,38.542,23.906,64.085,-46.005,11.418
-35.325,8.0468,-31.913,9.1618,12.246,-15.716,-19.421,-31.498,-17.239,-0.36405,-64.017,38.542,23.906,64.085,-46.005,11.418
-35.221,7.7577,-31.69,8.7906,12.528,-16.271,-19.023,-31.992,-17.046,-0.88189,-63.732,38.126,24.399,63.413,-45.519,10.868
-35.221,7.7577,-31.69,8.7906,12.528,-16.271,-19.023,-31.992,-17.046,-0.88189,-63.732,38.126,24.399,63.413,-45.519,10.868
-35.116,7.4667,-31.464,8.418,12.81,-16.828,-18.622,-32.488,-16.853,-1.4012,-63.443,37.707,24.892,62.737,-45.032,10.315
-35.116,7.4667,-31.464,8.418,12.81,-16.828,-18.622,-32.488,-16.853,-1.4012,-63.443,37.707,24.892,62.737,-45.032,10.315
-35.009,7.174,-31.237,8.0441,13.092,-17.386,-18.221,-32.985,-16.66,-1.922,-63.151,37.284,25.385,62.057,-44.544,9.7599
-35.009,7.174,-31.237,8.0441,13.092,-17.386,-18.221,-32.985,-16.66,-1.922,-63.151,37.284,25.385,62.057,-44.544,9.7599
-34.901,6.8794,-31.008,7.669,13.375,-17.947,-17.818,-33.483,-16.465,-2.4441,-62.854,36.858,25.878,61.375,-44.053,9.2022
-34.901,6.8794,-31.008,7.669,13.375,-17.947,-17.818,-33.483,-16.465,-2.4441,-62.854,36.858,25.878,61.375,-44.053,9.2022
-34.901,6.8794,-31.008,7.669,13.375,-17.947,-17.818,-33.483,-16.465,-2.4441,-62.854,36.858,25.878,61.375,-44.053,9.2022
-34.791,6.5831,-30.777,7.2926,13.659,-18.508,-17.413,-33.982,-16.271,-2.9677,-62.554,36.429,26.371,60.689,-43.561,8.642
-34.68,6.2851,-30.544,6.915,13.943,-19.072,-17.007,-34.482,-16.076,-3.4925,-62.25,35.997,26.865,60,-43.067,8.0795
-34.568,5.9854,-30.31,6.5362,14.227,-19.637,-16.599,-34.984,-15.88,-4.0187,-61.942,35.562,27.358,59.307,-42.572,7.5145
-34.568,5.9854,-30.31,6.5362,14.227,-19.637,-16.599,-34.984,-15.88,-4.0187,-61.942,35.562,27.358,59.307,-42.572,7.5145
-34.568,5.9854,-30.31,6.5362,14.227,-19.637,-16.599,-34.984,-15.88,-4.0187,-61.942,35.562,27.358,59.307,-42.572,7.5145
-34.454,5.684,-30.074,6.1562,14.512,-20.203,-16.191,-35.486,-15.684,-4.5462,-61.631,35.124,27.85,58.612,-42.075,6.9473
-34.454,5.684,-30.074,6.1562,14.512,-20.203,-16.191,-35.486,-15.684,-4.5462,-61.631,35.124,27.85,58.612,-42.075,6.9473
-34.339,5.3809,-29.837,5.7752,14.797,-20.771,-15.78,-35.989,-15.487,-5.0749,-61.315,34.683,28.343,57.914,-41.576,6.3777
-34.339,5.3809,-29.837,5.7752,14.797,-20.771,-15.78,-35.989,-15.487,-5.0749,-61.315,34.683,28.343,57.914,-41.576,6.3777
-34.222,5.0762,-29.598,5.393,15.083,-21.341,-15.369,-36.494,-15.29,-5.6049,-60.996,34.238,28.836,57.213,-41.076,5.806
-34.222,5.0762,-29.598,5.393,15.083,-21.341,-15.369,-36.494,-15.29,-5.6049,-60.996,34.238,28.836,57.213,-41.076,5.806
-34.104,4.7699,-29.357,5.0098,15.37,-21.911,-14.956,-36.999,-15.092,-6.136,-60.673,33.791,29.328,56.508,-40.574,5.232
-34.104,4.7699,-29.357,5.0098,15.37,-21.911,-14.956,-36.999,-15.092,-6.136,-60.673,33.791,29.328,56.508,-40.574,5.232
-33.985,4.462,-29.115,4.6256,15.656,-22.483,-14.542,-37.505,-14.894,-6.6683,-60.347,33.34,29.82,55.802,-40.071,4.6559
-33.985,4.462,-29.115,4.6256,15.656,-22.483,-14.542,-37.505,-14.894,-6.6683,-60.347,33.34,29.82,55.802,-40.071,4.6559
-33.865,4.1526,-28.871,4.2404,15.943,-23.057,-14.126,-38.012,-14.695,-7.2016,-60.016,32.887,30.312,55.092,-39.567,4.0777
-33.865,4.1526,-28.871,4.2404,15.943,-23.057,-14.126,-38.012,-14.695,-7.2016,-60.016,32.887,30.312,55.092,-39.567,4.0777
-33.865,4.1526,-28.871,4.2404,15.943,-23.057,-14.126,-38.012,-14.695,-7.2016,-60.016,32.887,30.312,55.092,-39.567,4.0777
-33.743,3.8416,-28.626,3.8542,16.231,-23.632,-13.71,-38.52,-14.496,-7.7361,-59.683,32.43,30.803,54.38,-39.061,3.4974
-33.743,3.8416,-28.626,3.8542,16.231,-23.632,-13.71,-38.52,-14.496,-7.7361,-59.683,32.43,30.803,54.38,-39.061,3.4974
-33.619,3.5291,-28.379,3.4671,16.519,-24.208,-13.292,-39.028,-14.296,-8.2716,-59.345,31.971,31.294,53.665,-38.554,2.9152
-33.495,3.2151,-28.13,3.0791,16.807,-24.785,-12.873,-39.538,-14.096,-8.8081,-59.004,31.509,31.785,52.947,-38.046,2.3309
-33.495,3.2151,-28.13,3.0791,16.807,-24.785,-12.873,-39.538,-14.096,-8.8081,-59.004,31.509,31.785,52.947,-38.046,2.3309
-33.495,3.2151,-28.13,3.0791,16.807,-24.785,-12.873,-39.538,-14.096,-8.8081,-59.004,31.509,31.785,52.947,-38.046,2.3309
-33.369,2.8996,-27.88,2.6903,17.095,-25.363,-12.453,-40.048,-13.896,-9.3456,-58.659,31.044,32.275,52.227,-37.536,1.7448
-33.369,2.8996,-27.88,2.6903,17.095,-25.363,-12.453,-40.048,-13.896,-9.3456,-58.659,31.044,32.275,52.227,-37.536,1.7448
-33.113,2.2644,-27.375,1.9101,17.673,-26.524,-11.609,-41.07,-13.493,-10.423,-57.959,30.106,33.254,50.781,-36.513,0.56688
-33.113,2.2644,-27.375,1.9101,17.673,-26.524,-11.609,-41.07,-13.493,-10.423,-57.959,30.106,33.254,50.781,-36.513,0.56688
-33.113,2.2644,-27.375,1.9101,17.673,-26.524,-11.609,-41.07,-13.493,-10.423,-57.959,30.106,33.254,50.781,-36.513,0.56688
-33.113,2.2644,-27.375,1.9101,17.673,-26.524,-11.609,-41.07,-13.493,-10.423,-57.959,30.106,33.254,50.781,-36.513,0.56688
-32.983,1.9448,-27.121,1.5189,17.963,-27.105,-11.186,-41.582,-13.292,-10.964,-57.603,29.633,33.742,50.054,-36,-0.024771
-32.983,1.9448,-27.121,1.5189,17.963,-27.105,-11.186,-41.582,-13.292,-10.964,-57.603,29.633,33.742,50.054,-36,-0.024771
-32.983,1.9448,-27.121,1.5189,17.963,-27.105,-11.186,-41.582,-13.292,-10.964,-57.603,29.633,33.742,50.054,-36,-0.024771
-32.719,1.3013,-26.607,0.73427,18.543,-28.272,-10.335,-42.608,-12.887,-12.047,-56.882,28.679,34.717,48.594,-34.97,-1.2133
-32.719,1.3013,-26.607,0.73427,18.543,-28.272,-10.335,-42.608,-12.887,-12.047,-56.882,28.679,34.717,48.594,-34.97,-1.2133
-32.585,0.97759,-26.348,0.34095,18.833,-28.857,-9.9089,-43.121,-12.684,-12.589,-56.516,28.198,35.203,47.86,-34.454,-1.81
-32.585,0.97759,-26.348,0.34095,18.833,-28.857,-9.9089,-43.121,-12.684,-12.589,-56.516,28.198,35.203,47.86,-34.454,-1.81
-32.45,0.65259,-26.088,-0.052993,19.124,-29.443,-9.4814,-43.636,-12.48,-13.133,-56.147,27.714,35.689,47.125,-33.936,-2.4083
-32.45,0.65259,-26.088,-0.052993,19.124,-29.443,-9.4814,-43.636,-12.48,-13.133,-56.147,27.714,35.689,47.125,-33.936,-2.4083
-32.45,0.65259,-26.088,-0.052993,19.124,-29.443,-9.4814,-43.636,-12.48,-13.133,-56.147,27.714,35.689,47.125,-33.936,-2.4083
-32.314,0.32634,-25.826,-0.44754,19.415,-30.029,-9.053,-44.15,-12.276,-13.677,-55.774,27.228,36.174,46.388,-33.418,-3.0082
-32.176,-0.0011557,-25.563,-0.84264,19.706,-30.617,-8.6236,-44.666,-12.072,-14.222,-55.398,26.739,36.658,45.649,-32.898,-3.6096
-32.037,-0.32986,-25.298,-1.2383,19.997,-31.205,-8.1933,-45.181,-11.867,-14.767,-55.018,26.248,37.141,44.908,-32.378,-4.2125
-32.037,-0.32986,-25.298,-1.2383,19.997,-31.205,-8.1933,-45.181,-11.867,-14.767,-55.018,26.248,37.141,44.908,-32.378,-4.2125
-32.037,-0.32986,-25.298,-1.2383,19.997,-31.205,-8.1933,-45.181,-11.867,-14.767,-55.018,26.248,37.141,44.908,-32.378,-4.2125
-31.897,-0.65975,-25.032,-1.6344,20.289,-31.795,-7.7622,-45.697,-11.662,-15.313,-54.635,25.754,37.623,44.166,-31.856,-4.8168
-31.897,-0.65975,-25.032,-1.6344,20.289,-31.795,-7.7622,-45.697,-11.662,-15.313,-54.635,25.754,37.623,44.166,-31.856,-4.8168
-31.755,-0.9908,-24.765,-2.031,20.581,-32.385,-7.3302,-46.213,-11.457,-15.86,-54.249,25.258,38.104,43.422,-31.334,-5.4225
-31.755,-0.9908,-24.765,-2.031,20.581,-32.385,-7.3302,-46.213,-11.457,-15.86,-54.249,25.258,38.104,43.422,-31.334,-5.4225
-31.613,-1.323,-24.497,-2.428,20.873,-32.975,-6.8974,-46.73,-11.251,-16.407,-53.859,24.76,38.585,42.676,-30.811,-6.0295
-31.613,-1.323,-24.497,-2.428,20.873,-32.975,-6.8974,-46.73,-11.251,-16.407,-53.859,24.76,38.585,42.676,-30.811,-6.0295
-31.468,-1.6563,-24.227,-2.8255,21.165,-33.567,-6.4638,-47.246,-11.045,-16.955,-53.467,24.259,39.064,41.929,-30.288,-6.6377
-31.468,-1.6563,-24.227,-2.8255,21.165,-33.567,-6.4638,-47.246,-11.045,-16.955,-53.467,24.259,39.064,41.929,-30.288,-6.6377
-31.323,-1.9906,-23.956,-3.2233,21.457,-34.159,-6.0295,-47.763,-10.838,-17.503,-53.071,23.756,39.542,41.181,-29.763,-7.2472
-31.323,-1.9906,-23.956,-3.2233,21.457,-34.159,-6.0295,-47.763,-10.838,-17.503,-53.071,23.756,39.542,41.181,-29.763,-7.2472
-31.177,-2.3261,-23.683,-3.6214,21.75,-34.751,-5.5944,-48.281,-10.632,-18.052,-52.671,23.251,40.019,40.431,-29.238,-7.8579
-31.177,-2.3261,-23.683,-3.6214,21.75,-34.751,-5.5944,-48.281,-10.632,-18.052,-52.671,23.251,40.019,40.431,-29.238,-7.8579
-31.177,-2.3261,-23.683,-3.6214,21.75,-34.751,-5.5944,-48.281,-10.632,-18.052,-52.671,23.251,40.019,40.431,-29.238,-7.8579
-31.029,-2.6625,-23.409,-4.0198,22.042,-35.345,-5.1586,-48.798,-10.424,-18.601,-52.269,22.743,40.495,39.679,-28.712,-8.4698
-31.029,-2.6625,-23.409,-4.0198,22.042,-35.345,-5.1586,-48.798,-10.424,-18.601,-52.269,22.743,40.495,39.679,-28.712,-8.4698
-31.029,-2.6625,-23.409,-4.0198,22.042,-35.345,-5.1586,-48.798,-10.424,-18.601,-52.269,22.743,40.495,39.679,-28.712,-8.4698
-30.73,-3.3384,-22.858,-4.8175,22.628,-36.533,-4.285,-49.833,-10.009,-19.7,-51.454,21.722,41.444,38.173,-27.659,-9.6966
-30.73,-3.3384,-22.858,-4.8175,22.628,-36.533,-4.285,-49.833,-10.009,-19.7,-51.454,21.722,41.444,38.173,-27.659,-9.6966
-30.578,-3.6778,-22.581,-5.2166,22.921,-37.128,-3.8472,-50.351,-9.8009,-20.25,-51.042,21.208,41.916,37.419,-27.131,-10.312
-30.578,-3.6778,-22.581,-5.2166,22.921,-37.128,-3.8472,-50.351,-9.8009,-20.25,-51.042,21.208,41.916,37.419,-27.131,-10.312
-30.578,-3.6778,-22.581,-5.2166,22.921,-37.128,-3.8472,-50.351,-9.8009,-20.25,-51.042,21.208,41.916,37.419,-27.131,-10.312
-30.425,-4.0181,-22.302,-5.6159,23.214,-37.723,-3.4088,-50.868,-9.5925,-20.8,-50.627,20.692,42.387,36.663,-26.603,-10.927
-30.425,-4.0181,-22.302,-5.6159,23.214,-37.723,-3.4088,-50.868,-9.5925,-20.8,-50.627,20.692,42.387,36.663,-26.603,-10.927
-30.272,-4.3594,-22.023,-6.0154,23.507,-38.318,-2.9698,-51.386,-9.3837,-21.351,-50.209,20.173,42.857,35.906,-26.075,-11.544
-30.272,-4.3594,-22.023,-6.0154,23.507,-38.318,-2.9698,-51.386,-9.3837,-21.351,-50.209,20.173,42.857,35.906,-26.075,-11.544
-30.116,-4.7015,-21.742,-6.4149,23.8,-38.915,-2.5303,-51.903,-9.1746,-21.902,-49.788,19.653,43.325,35.148,-25.546,-12.162
-29.96,-5.0444,-21.46,-6.8146,24.094,-39.511,-2.0903,-52.421,-8.9653,-22.453,-49.364,19.131,43.792,34.39,-25.016,-12.78
-29.96,-5.0444,-21.46,-6.8146,24.094,-39.511,-2.0903,-52.421,-8.9653,-22.453,-49.364,19.131,43.792,34.39,-25.016,-12.78
-29.803,-5.3882,-21.177,-7.2142,24.387,-40.108,-1.6497,-52.938,-8.7556,-23.004,-48.937,18.607,44.257,33.631,-24.486,-13.4
-29.803,-5.3882,-21.177,-7.2142,24.387,-40.108,-1.6497,-52.938,-8.7556,-23.004,-48.937,18.607,44.257,33.631,-24.486,-13.4
-29.644,-5.7327,-20.892,-7.6139,24.68,-40.705,-1.2087,-53.456,-8.5457,-23.555,-48.507,18.081,44.721,32.871,-23.956,-14.02
-29.644,-5.7327,-20.892,-7.6139,24.68,-40.705,-1.2087,-53.456,-8.5457,-23.555,-48.507,18.081,44.721,32.871,-23.956,-14.02
-29.484,-6.078,-20.607,-8.0136,24.974,-41.302,-0.76721,-53.973,-8.3355,-24.106,-48.074,17.553,45.184,32.11,-23.426,-14.64
-29.484,-6.078,-20.607,-8.0136,24.974,-41.302,-0.76721,-53.973,-8.3355,-24.106,-48.074,17.553,45.184,32.11,-23.426,-14.64
-29.484,-6.078,-20.607,-8.0136,24.974,-41.302,-0.76721,-53.973,-8.3355,-24.106,-48.074,17.553,45.184,32.11,-23.426,-14.64
-29.323,-6.4241,-20.321,-8.4132,25.267,-41.899,-0.3253,-54.49,-8.125,-24.657,-47.638,17.024,45.645,31.349,-22.895,-15.261
-29.161,-6.7709,-20.033,-8.8127,25.561,-42.497,0.11701,-55.006,-7.9143,-25.209,-47.199,16.492,46.104,30.587,-22.364,-15.883
-29.161,-6.7709,-20.033,-8.8127,25.561,-42.497,0.11701,-55.006,-7.9143,-25.209,-47.199,16.492,46.104,30.587,-22.364,-15.883
-28.997,-7.1184,-19.745,-9.2121,25.854,-43.094,0.55969,-55.522,-7.7033,-25.76,-46.757,15.959,46.562,29.825,-21.833,-16.505
-28.997,-7.1184,-19.745,-9.2121,25.854,-43.094,0.55969,-55.522,-7.7033,-25.76,-46.757,15.959,46.562,29.825,-21.833,-16.505
-28.833,-7.4665,-19.455,-9.6113,26.148,-43.692,1.0027,-56.038,-7.4921,-26.311,-46.313,15.425,47.018,29.063,-21.302,-17.128
-28.833,-7.4665,-19.455,-9.6113,26.148,-43.692,1.0027,-56.038,-7.4921,-26.311,-46.313,15.425,47.018,29.063,-21.302,-17.128
-28.833,-7.4665,-19.455,-9.6113,26.148,-43.692,1.0027,-56.038,-7.4921,-26.311,-46.313,15.425,47.018,29.063,-21.302,-17.128
-28.667,-7.8153,-19.165,-10.01,26.441,-44.29,1.4461,-56.554,-7.2806,-26.862,-45.865,14.888,47.472,28.3,-20.77,-17.751
-28.501,-8.1646,-18.873,-10.409,26.734,-44.888,1.8897,-57.069,-7.0689,-27.413,-45.415,14.35,47.925,27.537,-20.239,-18.375
-28.501,-8.1646,-18.873,-10.409,26.734,-44.888,1.8897,-57.069,-7.0689,-27.413,-45.415,14.35,47.925,27.537,-20.239,-18.375
-28.333,-8.5146,-18.581,-10.808,27.028,-45.486,2.3336,-57.584,-6.857,-27.964,-44.963,13.81,48.376,26.774,-19.707,-18.999
-28.333,-8.5146,-18.581,-10.808,27.028,-45.486,2.3336,-57.584,-6.857,-27.964,-44.963,13.81,48.376,26.774,-19.707,-18.999
-28.333,-8.5146,-18.581,-10.808,27.028,-45.486,2.3336,-57.584,-6.857,-27.964,-44.963,13.81,48.376,26.774,-19.707,-18.999
-28.164,-8.8651,-18.288,-11.206,27.321,-46.083,2.7778,-58.099,-6.6448,-28.515,-44.507,13.269,48.825,26.011,-19.175,-19.623
-28.164,-8.8651,-18.288,-11.206,27.321,-46.083,2.7778,-58.099,-6.6448,-28.515,-44.507,13.269,48.825,26.011,-19.175,-19.623
-27.993,-9.2162,-17.993,-11.604,27.614,-46.681,3.2222,-58.612,-6.4324,-29.065,-44.049,12.726,49.272,25.248,-18.644,-20.247
-27.993,-9.2162,-17.993,-11.604,27.614,-46.681,3.2222,-58.612,-6.4324,-29.065,-44.049,12.726,49.272,25.248,-18.644,-20.247
-27.822,-9.5677,-17.698,-12.002,27.907,-47.279,3.6667,-59.126,-6.2199,-29.615,-43.588,12.182,49.718,24.484,-18.112,-20.872
-27.65,-9.9198,-17.402,-12.399,28.2,-47.876,4.1115,-59.639,-6.0071,-30.165,-43.125,11.636,50.162,23.721,-17.581,-21.496
-27.65,-9.9198,-17.402,-12.399,28.2,-47.876,4.1115,-59.639,-6.0071,-30.165,-43.125,11.636,50.162,23.721,-17.581,-21.496
-27.476,-10.272,-17.105,-12.796,28.493,-48.473,4.5563,-60.151,-5.7941,-30.714,-42.659,11.089,50.603,22.958,-17.049,-22.121
-27.476,-10.272,-17.105,-12.796,28.493,-48.473,4.5563,-60.151,-5.7941,-30.714,-42.659,11.089,50.603,22.958,-17.049,-22.121
-27.302,-10.625,-16.807,-13.192,28.786,-49.07,5.0013,-60.662,-5.5809,-31.263,-42.191,10.54,51.043,22.196,-16.518,-22.746
-27.302,-10.625,-16.807,-13.192,28.786,-49.07,5.0013,-60.662,-5.5809,-31.263,-42.191,10.54,51.043,22.196,-16.518,-22.746
-27.126,-10.978,-16.509,-13.588,29.079,-49.667,5.4464,-61.173,-5.3676,-31.812,-41.719,9.9903,51.481,21.433,-15.987,-23.371
-27.126,-10.978,-16.509,-13.588,29.079,-49.667,5.4464,-61.173,-5.3676,-31.812,-41.719,9.9903,51.481,21.433,-15.987,-23.371
-26.949,-11.332,-16.209,-13.984,29.371,-50.264,5.8916,-61.684,-5.154,-32.36,-41.246,9.4392,51.916,20.671,-15.456,-23.996
-26.949,-11.332,-16.209,-13.984,29.371,-50.264,5.8916,-61.684,-5.154,-32.36,-41.246,9.4392,51.916,20.671,-15.456,-23.996
-26.949,-11.332,-16.209,-13.984,29.371,-50.264,5.8916,-61.684,-5.154,-32.36,-41.246,9.4392,51.916,20.671,-15.456,-23.996
-26.772,-11.686,-15.909,-14.379,29.664,-50.86,6.3367,-62.193,-4.9403,-32.908,-40.77,8.8867,52.35,19.909,-14.926,-24.62
-26.593,-12.041,-15.608,-14.773,29.956,-51.455,6.7819,-62.702,-4.7265,-33.456,-40.292,8.3331,52.781,19.148,-14.396,-25.245
-26.593,-12.041,-15.608,-14.773,29.956,-51.455,6.7819,-62.702,-4.7265,-33.456,-40.292,8.3331,52.781,19.148,-14.396,-25.245
-26.413,-12.395,-15.306,-15.167,30.248,-52.051,7.2271,-63.21,-4.5124,-34.002,-39.811,7.7783,53.211,18.387,-13.866,-25.869
-26.413,-12.395,-15.306,-15.167,30.248,-52.051,7.2271,-63.21,-4.5124,-34.002,-39.811,7.7783,53.211,18.387,-13.866,-25.869
-26.232,-12.75,-15.003,-15.56,30.54,-52.646,7.6723,-63.717,-4.2983,-34.548,-39.328,7.2224,53.638,17.627,-13.336,-26.493
-26.232,-12.75,-15.003,-15.56,30.54,-52.646,7.6723,-63.717,-4.2983,-34.548,-39.328,7.2224,53.638,17.627,-13.336,-26.493
-26.232,-12.75,-15.003,-15.56,30.54,-52.646,7.6723,-63.717,-4.2983,-34.548,-39.328,7.2224,53.638,17.627,-13.336,-26.493
-26.05,-13.105,-14.7,-15.953,30.832,-53.24,8.1173,-64.223,-4.0839,-35.094,-38.842,6.6654,54.063,16.868,-12.807,-27.117
-26.05,-13.105,-14.7,-15.953,30.832,-53.24,8.1173,-64.223,-4.0839,-35.094,-38.842,6.6654,54.063,16.868,-12.807,-27.117
-25.867,-13.461,-14.396,-16.344,31.124,-53.834,8.5623,-64.729,-3.8695,-35.639,-38.354,6.1073,54.486,16.109,-12.279,-27.74
-25.683,-13.816,-14.092,-16.736,31.415,-54.428,9.0072,-65.233,-3.6549,-36.183,-37.864,5.5482,54.907,15.351,-11.75,-28.363
-25.683,-13.816,-14.092,-16.736,31.415,-54.428,9.0072,-65.233,-3.6549,-36.183,-37.864,5.5482,54.907,15.351,-11.75,-28.363
-25.498,-14.172,-13.786,-17.126,31.706,-55.021,9.4519,-65.736,-3.4402,-36.727,-37.372,4.9881,55.325,14.594,-11.223,-28.986
-25.312,-14.528,-13.48,-17.516,31.997,-55.613,9.8965,-66.239,-3.2253,-37.27,-36.878,4.427,55.741,13.838,-10.696,-29.608
-25.312,-14.528,-13.48,-17.516,31.997,-55.613,9.8965,-66.239,-3.2253,-37.27,-36.878,4.427,55.741,13.838,-10.696,-29.608
-25.312,-14.528,-13.48,-17.516,31.997,-55.613,9.8965,-66.239,-3.2253,-37.27,-36.878,4.427,55.741,13.838,-10.696,-29.608
-25.125,-14.884,-13.174,-17.904,32.288,-56.204,10.341,-66.74,-3.0104,-37.812,-36.381,3.8651,56.155,13.083,-10.169,-30.229
-25.125,-14.884,-13.174,-17.904,32.288,-56.204,10.341,-66.74,-3.0104,-37.812,-36.381,3.8651,56.155,13.083,-10.169,-30.229
-24.937,-15.24,-12.866,-18.292,32.578,-56.795,10.785,-67.241,-2.7953,-38.353,-35.882,3.3023,56.566,12.329,-9.6433,-30.85
-24.937,-15.24,-12.866,-18.292,32.578,-56.795,10.785,-67.241,-2.7953,-38.353,-35.882,3.3023,56.566,12.329,-9.6433,-30.85
-24.937,-15.24,-12.866,-18.292,32.578,-56.795,10.785,-67.241,-2.7953,-38.353,-35.882,3.3023,56.566,12.329,-9.6433,-30.85
-24.748,-15.596,-12.559,-18.68,32.868,-57.386,11.229,-67.74,-2.5802,-38.894,-35.381,2.7386,56.975,11.576,-9.1181,-31.47
-24.748,-15.596,-12.559,-18.68,32.868,-57.386,11.229,-67.74,-2.5802,-38.894,-35.381,2.7386,56.975,11.576,-9.1181,-31.47
-24.558,-15.952,-12.25,-19.066,33.158,-57.975,11.673,-68.238,-2.3649,-39.433,-34.878,2.1742,57.382,10.825,-8.5936,-32.09
-24.367,-16.308,-11.941,-19.451,33.448,-58.564,12.116,-68.735,-2.1496,-39.972,-34.373,1.609,57.786,10.074,-8.0698,-32.709
-24.367,-16.308,-11.941,-19.451,33.448,-58.564,12.116,-68.735,-2.1496,-39.972,-34.373,1.609,57.786,10.074,-8.0698,-32.709
-24.175,-16.664,-11.632,-19.835,33.737,-59.152,12.559,-69.23,-1.9342,-40.51,-33.866,1.0431,58.187,9.3248,-7.5467,-33.327
-24.175,-16.664,-11.632,-19.835,33.737,-59.152,12.559,-69.23,-1.9342,-40.51,-33.866,1.0431,58.187,9.3248,-7.5467,-33.327
-23.982,-17.02,-11.322,-20.219,34.027,-59.739,13.002,-69.725,-1.7187,-41.047,-33.357,0.47658,58.586,8.5769,-7.0245,-33.944
-23.982,-17.02,-11.322,-20.219,34.027,-59.739,13.002,-69.725,-1.7187,-41.047,-33.357,0.47658,58.586,8.5769,-7.0245,-33.944
-23.982,-17.02,-11.322,-20.219,34.027,-59.739,13.002,-69.725,-1.7187,-41.047,-33.357,0.47658,58.586,8.5769,-7.0245,-33.944
-23.788,-17.376,-11.011,-20.601,34.315,-60.325,13.444,-70.218,-1.5031,-41.582,-32.846,-0.090619,58.983,7.8304,-6.503,-34.56
-23.594,-17.732,-10.7,-20.983,34.604,-60.911,13.886,-70.71,-1.2875,-42.117,-32.334,-0.65841,59.377,7.0854,-5.9825,-35.176
-23.594,-17.732,-10.7,-20.983,34.604,-60.911,13.886,-70.71,-1.2875,-42.117,-32.334,-0.65841,59.377,7.0854,-5.9825,-35.176
-23.398,-18.088,-10.389,-21.363,34.892,-61.495,14.327,-71.201,-1.0718,-42.651,-31.819,-1.2268,59.768,6.3419,-5.4628,-35.79
-23.398,-18.088,-10.389,-21.363,34.892,-61.495,14.327,-71.201,-1.0718,-42.651,-31.819,-1.2268,59.768,6.3419,-5.4628,-35.79
-23.201,-18.444,-10.077,-21.742,35.18,-62.079,14.768,-71.69,-0.85606,-43.184,-31.303,-1.7956,60.157,5.6,-4.9441,-36.404
-23.201,-18.444,-10.077,-21.742,35.18,-62.079,14.768,-71.69,-0.85606,-43.184,-31.303,-1.7956,60.157,5.6,-4.9441,-36.404
-23.201,-18.444,-10.077,-21.742,35.18,-62.079,14.768,-71.69,-0.85606,-43.184,-31.303,-1.7956,60.157,5.6,-4.9441,-36.404
-23.004,-18.799,-9.765,-22.12,35.467,-62.661,15.209,-72.178,-0.64029,-43.715,-30.784,-2.365,60.543,4.8597,-4.4263,-37.016
-22.806,-19.155,-9.4523,-22.497,35.755,-63.242,15.649,-72.664,-0.42448,-44.246,-30.264,-2.9348,60.927,4.1212,-3.9096,-37.627
-22.806,-19.155,-9.4523,-22.497,35.755,-63.242,15.649,-72.664,-0.42448,-44.246,-30.264,-2.9348,60.927,4.1212,-3.9096,-37.627
-22.607,-19.51,-9.1393,-22.873,36.041,-63.823,16.089,-73.149,-0.20864,-44.775,-29.742,-3.505,61.308,3.3844,-3.3938,-38.237
-22.406,-19.864,-8.8259,-23.248,36.328,-64.402,16.528,-73.632,0.0072281,-45.303,-29.219,-4.0755,61.686,2.6494,-2.8792,-38.846
-22.406,-19.864,-8.8259,-23.248,36.328,-64.402,16.528,-73.632,0.0072281,-45.303,-29.219,-4.0755,61.686,2.6494,-2.8792,-38.846
-22.406,-19.864,-8.8259,-23.248,36.328,-64.402,16.528,-73.632,0.0072281,-45.303,-29.219,-4.0755,61.686,2.6494,-2.8792,-38.846
-22.205,-20.219,-8.5122,-23.621,36.614,-64.98,16.966,-74.114,0.22311,-45.83,-28.694,-4.6464,62.061,1.9164,-2.3656,-39.454
-22.205,-20.219,-8.5122,-23.621,36.614,-64.98,16.966,-74.114,0.22311,-45.83,-28.694,-4.6464,62.061,1.9164,-2.3656,-39.454
-22.205,-20.219,-8.5122,-23.621,36.614,-64.98,16.966,-74.114,0.22311,-45.83,-28.694,-4.6464,62.061,1.9164,-2.3656,-39.454
-22.004,-20.573,-8.1981,-23.993,36.9,-65.557,17.404,-74.594,0.439,-46.355,-28.167,-5.2175,62.434,1.1852,-1.8532,-40.06
-21.801,-20.927,-7.8838,-24.364,37.185,-66.133,17.841,-75.073,0.6549,-46.88,-27.639,-5.789,62.804,0.45609,-1.342,-40.665
-21.598,-21.281,-7.5691,-24.733,37.47,-66.707,18.278,-75.55,0.8708,-47.403,-27.109,-6.3606,63.171,-0.27099,-0.83197,-41.269
-21.598,-21.281,-7.5691,-24.733,37.47,-66.707,18.278,-75.55,0.8708,-47.403,-27.109,-6.3606,63.171,-0.27099,-0.83197,-41.269
-21.393,-21.634,-7.2543,-25.101,37.754,-67.281,18.714,-76.025,1.0867,-47.924,-26.577,-6.9324,63.535,-0.99596,-0.32319,-41.871
-21.393,-21.634,-7.2543,-25.101,37.754,-67.281,18.714,-76.025,1.0867,-47.924,-26.577,-6.9324,63.535,-0.99596,-0.32319,-41.871
-21.393,-21.634,-7.2543,-25.101,37.754,-67.281,18.714,-76.025,1.0867,-47.924,-26.577,-6.9324,63.535,-0.99596,-0.32319,-41.871
-21.188,-21.987,-6.9391,-25.468,38.038,-67.853,19.149,-76.499,1.3026,-48.444,-26.044,-7.5043,63.896,-1.7188,0.18432,-42.472
-21.188,-21.987,-6.9391,-25.468,38.038,-67.853,19.149,-76.499,1.3026,-48.444,-26.044,-7.5043,63.896,-1.7188,0.18432,-42.472
-21.188,-21.987,-6.9391,-25.468,38.038,-67.853,19.149,-76.499,1.3026,-48.444,-26.044,-7.5043,63.896,-1.7188,0.18432,-42.472
-20.982,-22.339,-6.6238,-25.834,38.322,-68.423,19.584,-76.971,1.5184,-48.963,-25.51,-8.0763,64.254,-2.4394,0.69053,-43.071
-20.775,-22.691,-6.3082,-26.198,38.605,-68.993,20.018,-77.441,1.7342,-49.48,-24.974,-8.6484,64.61,-3.1577,1.1954,-43.669
-20.775,-22.691,-6.3082,-26.198,38.605,-68.993,20.018,-77.441,1.7342,-49.48,-24.974,-8.6484,64.61,-3.1577,1.1954,-43.669
-20.568,-23.042,-5.9925,-26.56,38.888,-69.561,20.451,-77.909,1.95,-49.996,-24.437,-9.2205,64.962,-3.8736,1.6989,-44.265
-20.568,-23.042,-5.9925,-26.56,38.888,-69.561,20.451,-77.909,1.95,-49.996,-24.437,-9.2205,64.962,-3.8736,1.6989,-44.265
-20.36,-23.393,-5.6766,-26.921,39.17,-70.127,20.883,-78.376,2.1658,-50.51,-23.899,-9.7925,65.312,-4.5872,2.201,-44.859
-20.36,-23.393,-5.6766,-26.921,39.17,-70.127,20.883,-78.376,2.1658,-50.51,-23.899,-9.7925,65.312,-4.5872,2.201,-44.859
-20.36,-23.393,-5.6766,-26.921,39.17,-70.127,20.883,-78.376,2.1658,-50.51,-23.899,-9.7925,65.312,-4.5872,2.201,-44.859
-20.15,-23.744,-5.3606,-27.281,39.452,-70.692,21.314,-78.841,2.3815,-51.023,-23.359,-10.365,65.659,-5.2984,2.7016,-45.451
-20.15,-23.744,-5.3606,-27.281,39.452,-70.692,21.314,-78.841,2.3815,-51.023,-23.359,-10.365,65.659,-5.2984,2.7016,-45.451
-20.15,-23.744,-5.3606,-27.281,39.452,-70.692,21.314,-78.841,2.3815,-51.023,-23.359,-10.365,65.659,-5.2984,2.7016,-45.451
-19.941,-24.094,-5.0444,-27.639,39.733,-71.256,21.745,-79.303,2.5971,-51.534,-22.818,-10.936,66.002,-6.007,3.2008,-46.042
-19.941,-24.094,-5.0444,-27.639,39.733,-71.256,21.745,-79.303,2.5971,-51.534,-22.818,-10.936,66.002,-6.007,3.2008,-46.042
-19.519,-24.792,-4.4118,-28.351,40.295,-72.378,22.604,-80.223,3.0282,-52.552,-21.732,-12.08,66.68,-7.4166,4.1946,-47.218
-19.519,-24.792,-4.4118,-28.351,40.295,-72.378,22.604,-80.223,3.0282,-52.552,-21.732,-12.08,66.68,-7.4166,4.1946,-47.218
-19.307,-25.14,-4.0954,-28.704,40.574,-72.937,23.032,-80.68,3.2437,-53.058,-21.187,-12.651,67.015,-8.1174,4.6891,-47.804
-19.307,-25.14,-4.0954,-28.704,40.574,-72.937,23.032,-80.68,3.2437,-53.058,-21.187,-12.651,67.015,-8.1174,4.6891,-47.804
-19.094,-25.487,-3.7789,-29.056,40.854,-73.495,23.459,-81.135,3.4591,-53.562,-20.641,-13.222,67.346,-8.8156,5.1821,-48.387
-19.094,-25.487,-3.7789,-29.056,40.854,-73.495,23.459,-81.135,3.4591,-53.562,-20.641,-13.222,67.346,-8.8156,5.1821,-48.387
-18.88,-25.834,-3.4624,-29.406,41.133,-74.05,23.885,-81.588,3.6744,-54.065,-20.095,-13.793,67.674,-9.5109,5.6734,-48.968
-18.88,-25.834,-3.4624,-29.406,41.133,-74.05,23.885,-81.588,3.6744,-54.065,-20.095,-13.793,67.674,-9.5109,5.6734,-48.968
-18.666,-26.18,-3.1459,-29.755,41.411,-74.604,24.31,-82.039,3.8896,-54.566,-19.547,-14.364,67.999,-10.203,6.163,-49.548
-18.666,-26.18,-3.1459,-29.755,41.411,-74.604,24.31,-82.039,3.8896,-54.566,-19.547,-14.364,67.999,-10.203,6.163,-49.548
-18.451,-26.526,-2.8295,-30.102,41.689,-75.157,24.734,-82.487,4.1047,-55.065,-18.998,-14.934,68.321,-10.893,6.651,-50.125
-18.451,-26.526,-2.8295,-30.102,41.689,-75.157,24.734,-82.487,4.1047,-55.065,-18.998,-14.934,68.321,-10.893,6.651,-50.125
-18.236,-26.87,-2.513,-30.447,41.966,-75.708,25.157,-82.934,4.3196,-55.563,-18.448,-15.504,68.64,-11.58,7.1372,-50.7
-18.236,-26.87,-2.513,-30.447,41.966,-75.708,25.157,-82.934,4.3196,-55.563,-18.448,-15.504,68.64,-11.58,7.1372,-50.7
-18.019,-27.214,-2.1967,-30.79,42.243,-76.256,25.579,-83.378,4.5345,-56.059,-17.897,-16.073,68.956,-12.264,7.6216,-51.273
-18.019,-27.214,-2.1967,-30.79,42.243,-76.256,25.579,-83.378,4.5345,-56.059,-17.897,-16.073,68.956,-12.264,7.6216,-51.273
-17.803,-27.558,-1.8804,-31.132,42.519,-76.804,26,-83.82,4.7493,-56.552,-17.345,-16.642,69.268,-12.944,8.1043,-51.844
-17.803,-27.558,-1.8804,-31.132,42.519,-76.804,26,-83.82,4.7493,-56.552,-17.345,-16.642,69.268,-12.944,8.1043,-51.844
-17.803,-27.558,-1.8804,-31.132,42.519,-76.804,26,-83.82,4.7493,-56.552,-17.345,-16.642,69.268,-12.944,8.1043,-51.844
-17.585,-27.9,-1.5642,-31.472,42.794,-77.349,26.42,-84.26,4.9639,-57.044,-16.793,-17.21,69.578,-13.622,8.5851,-52.412
-17.585,-27.9,-1.5642,-31.472,42.794,-77.349,26.42,-84.26,4.9639,-57.044,-16.793,-17.21,69.578,-13.622,8.5851,-52.412
-17.148,-28.582,-0.9321,-32.146,43.344,-78.434,27.257,-85.133,5.3928,-58.022,-15.685,-18.345,70.186,-14.968,9.5412,-53.542
-17.148,-28.582,-0.9321,-32.146,43.344,-78.434,27.257,-85.133,5.3928,-58.022,-15.685,-18.345,70.186,-14.968,9.5412,-53.542
-17.148,-28.582,-0.9321,-32.146,43.344,-78.434,27.257,-85.133,5.3928,-58.022,-15.685,-18.345,70.186,-14.968,9.5412,-53.542
-16.929,-28.922,-0.61629,-32.48,43.618,-78.974,27.673,-85.566,5.607,-58.508,-15.13,-18.912,70.486,-15.636,10.016,-54.104
-16.929,-28.922,-0.61629,-32.48,43.618,-78.974,27.673,-85.566,5.607,-58.508,-15.13,-18.912,70.486,-15.636,10.016,-54.104
-16.929,-28.922,-0.61629,-32.48,43.618,-78.974,27.673,-85.566,5.607,-58.508,-15.13,-18.912,70.486,-15.636,10.016,-54.104
-16.709,-29.261,-0.30066,-32.813,43.891,-79.512,28.089,-85.997,5.8211,-58.992,-14.574,-19.478,70.782,-16.301,10.49,-54.663
-16.488,-29.599,0.014784,-33.144,44.163,-80.048,28.503,-86.425,6.035,-59.474,-14.018,-20.043,71.075,-16.963,10.961,-55.219
-16.488,-29.599,0.014784,-33.144,44.163,-80.048,28.503,-86.425,6.035,-59.474,-14.018,-20.043,71.075,-16.963,10.961,-55.219
-16.267,-29.936,0.33001,-33.473,44.435,-80.582,28.916,-86.851,6.2488,-59.954,-13.461,-20.607,71.364,-17.621,11.43,-55.773
-16.045,-30.272,0.645,-33.799,44.707,-81.113,29.328,-87.274,6.4624,-60.432,-12.903,-21.171,71.65,-18.276,11.897,-56.325
-16.045,-30.272,0.645,-33.799,44.707,-81.113,29.328,-87.274,6.4624,-60.432,-12.903,-21.171,71.65,-18.276,11.897,-56.325
-16.045,-30.272,0.645,-33.799,44.707,-81.113,29.328,-87.274,6.4624,-60.432,-12.903,-21.171,71.65,-18.276,11.897,-56.325
-15.823,-30.607,0.95975,-34.124,44.978,-81.643,29.738,-87.695,6.6758,-60.908,-12.345,-21.734,71.933,-18.927,12.362,-56.874
-15.823,-30.607,0.95975,-34.124,44.978,-81.643,29.738,-87.695,6.6758,-60.908,-12.345,-21.734,71.933,-18.927,12.362,-56.874
-15.6,-30.941,1.2742,-34.447,45.248,-82.171,30.147,-88.113,6.889,-61.381,-11.786,-22.296,72.212,-19.575,12.825,-57.42
-15.6,-30.941,1.2742,-34.447,45.248,-82.171,30.147,-88.113,6.889,-61.381,-11.786,-22.296,72.212,-19.575,12.825,-57.42
-15.376,-31.274,1.5884,-34.768,45.517,-82.697,30.555,-88.529,7.1021,-61.853,-11.227,-22.857,72.488,-20.219,13.286,-57.964
-15.376,-31.274,1.5884,-34.768,45.517,-82.697,30.555,-88.529,7.1021,-61.853,-11.227,-22.857,72.488,-20.219,13.286,-57.964
-15.376,-31.274,1.5884,-34.768,45.517,-82.697,30.555,-88.529,7.1021,-61.853,-11.227,-22.857,72.488,-20.219,13.286,-57.964
-15.152,-31.606,1.9023,-35.087,45.786,-83.22,30.961,-88.942,7.3149,-62.322,-10.668,-23.417,72.761,-20.86,13.745,-58.505
-15.152,-31.606,1.9023,-35.087,45.786,-83.22,30.961,-88.942,7.3149,-62.322,-10.668,-23.417,72.761,-20.86,13.745,-58.505
-15.152,-31.606,1.9023,-35.087,45.786,-83.22,30.961,-88.942,7.3149,-62.322,-10.668,-23.417,72.761,-20.86,13.745,-58.505
-14.703,-32.267,2.529,-35.719,46.321,-84.261,31.77,-89.761,7.74,-63.254,-9.5471,-24.535,73.296,-22.13,14.656,-59.578
-14.703,-32.267,2.529,-35.719,46.321,-84.261,31.77,-89.761,7.74,-63.254,-9.5471,-24.535,73.296,-22.13,14.656,-59.578
-14.477,-32.596,2.8418,-36.032,46.588,-84.778,32.172,-90.166,7.9522,-63.716,-8.9863,-25.092,73.558,-22.76,15.108,-60.111
-14.477,-32.596,2.8418,-36.032,46.588,-84.778,32.172,-90.166,7.9522,-63.716,-8.9863,-25.092,73.558,-22.76,15.108,-60.111
-14.251,-32.923,3.1542,-36.342,46.854,-85.293,32.573,-90.569,8.1642,-64.177,-8.4253,-25.648,73.817,-23.385,15.558,-60.64
-14.251,-32.923,3.1542,-36.342,46.854,-85.293,32.573,-90.569,8.1642,-64.177,-8.4253,-25.648,73.817,-23.385,15.558,-60.64
-14.025,-33.25,3.4662,-36.651,47.119,-85.806,32.973,-90.969,8.376,-64.634,-7.8639,-26.203,74.072,-24.007,16.005,-61.167
-13.798,-33.575,3.7778,-36.958,47.384,-86.316,33.371,-91.366,8.5875,-65.09,-7.3024,-26.757,74.324,-24.626,16.45,-61.691
-13.798,-33.575,3.7778,-36.958,47.384,-86.316,33.371,-91.366,8.5875,-65.09,-7.3024,-26.757,74.324,-24.626,16.45,-61.691
-13.798,-33.575,3.7778,-36.958,47.384,-86.316,33.371,-91.366,8.5875,-65.09,-7.3024,-26.757,74.324,-24.626,16.45,-61.691
-13.571,-33.899,4.089,-37.262,47.648,-86.824,33.767,-91.761,8.7988,-65.543,-6.7406,-27.31,74.573,-25.24,16.893,-62.211
-13.571,-33.899,4.089,-37.262,47.648,-86.824,33.767,-91.761,8.7988,-65.543,-6.7406,-27.31,74.573,-25.24,16.893,-62.211
-13.343,-34.222,4.3996,-37.564,47.911,-87.33,34.162,-92.152,9.0098,-65.994,-6.1787,-27.862,74.817,-25.85,17.333,-62.729
-13.343,-34.222,4.3996,-37.564,47.911,-87.33,34.162,-92.152,9.0098,-65.994,-6.1787,-27.862,74.817,-25.85,17.333,-62.729
-13.115,-34.544,4.7098,-37.864,48.173,-87.833,34.556,-92.541,9.2206,-66.442,-5.6167,-28.412,75.059,-26.456,17.771,-63.243
-13.115,-34.544,4.7098,-37.864,48.173,-87.833,34.556,-92.541,9.2206,-66.442,-5.6167,-28.412,75.059,-26.456,17.771,-63.243
-13.115,-34.544,4.7098,-37.864,48.173,-87.833,34.556,-92.541,9.2206,-66.442,-5.6167,-28.412,75.059,-26.456,17.771,-63.243
-12.886,-34.864,5.0195,-38.162,48.435,-88.334,34.948,-92.927,9.4311,-66.888,-5.0546,-28.961,75.296,-27.058,18.207,-63.755
-12.886,-34.864,5.0195,-38.162,48.435,-88.334,34.948,-92.927,9.4311,-66.888,-5.0546,-28.961,75.296,-27.058,18.207,-63.755
-12.886,-34.864,5.0195,-38.162,48.435,-88.334,34.948,-92.927,9.4311,-66.888,-5.0546,-28.961,75.296,-27.058,18.207,-63.755
-12.428,-35.501,5.6372,-38.751,48.956,-89.328,35.727,-93.691,9.8513,-67.772,-3.9304,-30.056,75.761,-28.25,19.07,-64.768
-12.428,-35.501,5.6372,-38.751,48.956,-89.328,35.727,-93.691,9.8513,-67.772,-3.9304,-30.056,75.761,-28.25,19.07,-64.768
-12.198,-35.817,5.9453,-39.042,49.216,-89.822,36.114,-94.068,10.061,-68.211,-3.3683,-30.601,75.988,-28.84,19.498,-65.27
-12.198,-35.817,5.9453,-39.042,49.216,-89.822,36.114,-94.068,10.061,-68.211,-3.3683,-30.601,75.988,-28.84,19.498,-65.27
-11.968,-36.132,6.2528,-39.331,49.474,-90.313,36.5,-94.442,10.27,-68.647,-2.8063,-31.144,76.212,-29.426,19.924,-65.769
