-38.956,-33.401,-60.249,-19.52,-59.16,-61.116,-47.303,-52.249,-138.5,-125.87,-17.931,-30.294,-117.87,-107.56,18.971,-39.473
-38.956,-33.401,-60.249,-19.52,-59.16,-61.116,-47.303,-52.249,-138.5,-125.87,-17.931,-30.294,-117.87,-107.56,18.971,-39.473
-38.769,-33.371,-60.087,-19.699,-58.922,-60.922,-47.1,-52.148,-138.01,-125.92,-17.649,-30.166,-117.37,-107.58,19.21,-39.148
-38.769,-33.371,-60.087,-19.699,-58.922,-60.922,-47.1,-52.148,-138.01,-125.92,-17.649,-30.166,-117.37,-107.58,19.21,-39.148
-38.582,-33.34,-59.925,-19.877,-58.682,-60.726,-46.896,-52.045,-137.52,-125.96,-17.367,-30.037,-116.87,-107.6,19.449,-38.823
-38.582,-33.34,-59.925,-19.877,-58.682,-60.726,-46.896,-52.045,-137.52,-125.96,-17.367,-30.037,-116.87,-107.6,19.449,-38.823
-38.395,-33.307,-59.763,-20.053,-58.442,-60.528,-46.692,-51.941,-137.02,-126.01,-17.085,-29.906,-116.37,-107.62,19.686,-38.497
-38.395,-33.307,-59.763,-20.053,-58.442,-60.528,-46.692,-51.941,-137.02,-126.01,-17.085,-29.906,-116.37,-107.62,19.686,-38.497
-38.208,-33.274,-59.6,-20.227,-58.201,-60.329,-46.488,-51.836,-136.53,-126.05,-16.802,-29.775,-115.86,-107.64,19.924,-38.17
-38.208,-33.274,-59.6,-20.227,-58.201,-60.329,-46.488,-51.836,-136.53,-126.05,-16.802,-29.775,-115.86,-107.64,19.924,-38.17
-38.208,-33.274,-59.6,-20.227,-58.201,-60.329,-46.488,-51.836,-136.53,-126.05,-16.802,-29.775,-115.86,-107.64,19.924,-38.17
-38.208,-33.274,-59.6,-20.227,-58.201,-60.329,-46.488,-51.836,-136.53,-126.05,-16.802,-29.775,-115.86,-107.64,19.924,-38.17
-37.832,-33.203,-59.273,-20.57,-57.718,-59.924,-46.079,-51.622,-135.53,-126.13,-16.238,-29.511,-114.85,-107.67,20.396,-37.515
-37.832,-33.203,-59.273,-20.57,-57.718,-59.924,-46.079,-51.622,-135.53,-126.13,-16.238,-29.511,-114.85,-107.67,20.396,-37.515
-37.832,-33.203,-59.273,-20.57,-57.718,-59.924,-46.079,-51.622,-135.53,-126.13,-16.238,-29.511,-114.85,-107.67,20.396,-37.515
-37.832,-33.203,-59.273,-20.57,-57.718,-59.924,-46.079,-51.622,-135.53,-126.13,-16.238,-29.511,-114.85,-107.67,20.396,-37.515
-37.643,-33.166,-59.109,-20.739,-57.476,-59.72,-45.874,-51.513,-135.03,-126.17,-15.955,-29.377,-114.33,-107.69,20.632,-37.187
-37.643,-33.166,-59.109,-20.739,-57.476,-59.72,-45.874,-51.513,-135.03,-126.17,-15.955,-29.377,-114.33,-107.69,20.632,-37.187
-37.643,-33.166,-59.109,-20.739,-57.476,-59.72,-45.874,-51.513,-135.03,-126.17,-15.955,-29.377,-114.33,-107.69,20.632,-37.187
-37.265,-33.09,-58.781,-21.072,-56.989,-59.305,-45.464,-51.292,-134.02,-126.24,-15.39,-29.106,-113.31,-107.71,21.101,-36.53
-37.265,-33.09,-58.781,-21.072,-56.989,-59.305,-45.464,-51.292,-134.02,-126.24,-15.39,-29.106,-113.31,-107.71,21.101,-36.53
-37.076,-33.05,-58.616,-21.236,-56.745,-59.095,-45.259,-51.18,-133.51,-126.27,-15.108,-28.97,-112.79,-107.72,21.335,-36.2
-37.076,-33.05,-58.616,-21.236,-56.745,-59.095,-45.259,-51.18,-133.51,-126.27,-15.108,-28.97,-112.79,-107.72,21.335,-36.2
-36.887,-33.009,-58.451,-21.398,-56.501,-58.884,-45.054,-51.067,-133,-126.3,-14.826,-28.833,-112.27,-107.72,21.567,-35.871
-36.887,-33.009,-58.451,-21.398,-56.501,-58.884,-45.054,-51.067,-133,-126.3,-14.826,-28.833,-112.27,-107.72,21.567,-35.871
-36.887,-33.009,-58.451,-21.398,-56.501,-58.884,-45.054,-51.067,-133,-126.3,-14.826,-28.833,-112.27,-107.72,21.567,-35.871
-36.507,-32.925,-58.12,-21.717,-56.011,-58.457,-44.644,-50.837,-131.97,-126.35,-14.261,-28.557,-111.24,-107.73,22.031,-35.21
-36.507,-32.925,-58.12,-21.717,-56.011,-58.457,-44.644,-50.837,-131.97,-126.35,-14.261,-28.557,-111.24,-107.73,22.031,-35.21
-36.317,-32.881,-57.954,-21.875,-55.765,-58.241,-44.439,-50.72,-131.45,-126.37,-13.979,-28.417,-110.71,-107.73,22.262,-34.879
-36.317,-32.881,-57.954,-21.875,-55.765,-58.241,-44.439,-50.72,-131.45,-126.37,-13.979,-28.417,-110.71,-107.73,22.262,-34.879
-36.317,-32.881,-57.954,-21.875,-55.765,-58.241,-44.439,-50.72,-131.45,-126.37,-13.979,-28.417,-110.71,-107.73,22.262,-34.879
-36.127,-32.837,-57.788,-22.03,-55.519,-58.024,-44.234,-50.602,-130.93,-126.39,-13.697,-28.277,-110.19,-107.73,22.492,-34.548
-36.127,-32.837,-57.788,-22.03,-55.519,-58.024,-44.234,-50.602,-130.93,-126.39,-13.697,-28.277,-110.19,-107.73,22.492,-34.548
-36.127,-32.837,-57.788,-22.03,-55.519,-58.024,-44.234,-50.602,-130.93,-126.39,-13.697,-28.277,-110.19,-107.73,22.492,-34.548
-35.745,-32.746,-57.455,-22.336,-55.026,-57.585,-43.823,-50.364,-129.89,-126.42,-13.133,-27.996,-109.14,-107.72,22.95,-33.885
-35.745,-32.746,-57.455,-22.336,-55.026,-57.585,-43.823,-50.364,-129.89,-126.42,-13.133,-27.996,-109.14,-107.72,22.95,-33.885
-35.554,-32.699,-57.288,-22.487,-54.778,-57.364,-43.618,-50.243,-129.36,-126.43,-12.851,-27.854,-108.61,-107.71,23.178,-33.553
-35.554,-32.699,-57.288,-22.487,-54.778,-57.364,-43.618,-50.243,-129.36,-126.43,-12.851,-27.854,-108.61,-107.71,23.178,-33.553
-35.554,-32.699,-57.288,-22.487,-54.778,-57.364,-43.618,-50.243,-129.36,-126.43,-12.851,-27.854,-108.61,-107.71,23.178,-33.553
-35.363,-32.651,-57.12,-22.636,-54.531,-57.141,-43.413,-50.122,-128.84,-126.45,-12.57,-27.712,-108.08,-107.7,23.405,-33.221
-35.172,-32.603,-56.953,-22.784,-54.283,-56.916,-43.208,-49.999,-128.31,-126.46,-12.288,-27.569,-107.55,-107.69,23.631,-32.889
-35.172,-32.603,-56.953,-22.784,-54.283,-56.916,-43.208,-49.999,-128.31,-126.46,-12.288,-27.569,-107.55,-107.69,23.631,-32.889
-34.98,-32.554,-56.785,-22.93,-54.035,-56.691,-43.002,-49.876,-127.78,-126.46,-12.007,-27.426,-107.02,-107.68,23.856,-32.557
-34.98,-32.554,-56.785,-22.93,-54.035,-56.691,-43.002,-49.876,-127.78,-126.46,-12.007,-27.426,-107.02,-107.68,23.856,-32.557
-34.98,-32.554,-56.785,-22.93,-54.035,-56.691,-43.002,-49.876,-127.78,-126.46,-12.007,-27.426,-107.02,-107.68,23.856,-32.557
-34.789,-32.504,-56.618,-23.075,-53.786,-56.464,-42.797,-49.751,-127.24,-126.47,-11.726,-27.282,-106.48,-107.67,24.081,-32.224
-34.789,-32.504,-56.618,-23.075,-53.786,-56.464,-42.797,-49.751,-127.24,-126.47,-11.726,-27.282,-106.48,-107.67,24.081,-32.224
-34.597,-32.454,-56.45,-23.218,-53.538,-56.236,-42.592,-49.626,-126.71,-126.47,-11.446,-27.138,-105.95,-107.65,24.304,-31.892
-34.597,-32.454,-56.45,-23.218,-53.538,-56.236,-42.592,-49.626,-126.71,-126.47,-11.446,-27.138,-105.95,-107.65,24.304,-31.892
-34.405,-32.403,-56.282,-23.359,-53.289,-56.007,-42.387,-49.5,-126.17,-126.47,-11.165,-26.993,-105.41,-107.63,24.527,-31.56
-34.213,-32.351,-56.113,-23.499,-53.039,-55.776,-42.183,-49.373,-125.63,-126.47,-10.885,-26.848,-104.87,-107.62,24.749,-31.227
-34.213,-32.351,-56.113,-23.499,-53.039,-55.776,-42.183,-49.373,-125.63,-126.47,-10.885,-26.848,-104.87,-107.62,24.749,-31.227
-34.213,-32.351,-56.113,-23.499,-53.039,-55.776,-42.183,-49.373,-125.63,-126.47,-10.885,-26.848,-104.87,-107.62,24.749,-31.227
-34.021,-32.299,-55.945,-23.638,-52.79,-55.545,-41.978,-49.245,-125.09,-126.47,-10.605,-26.703,-104.33,-107.59,24.97,-30.894
-34.021,-32.299,-55.945,-23.638,-52.79,-55.545,-41.978,-49.245,-125.09,-126.47,-10.605,-26.703,-104.33,-107.59,24.97,-30.894
-33.829,-32.246,-55.776,-23.775,-52.54,-55.312,-41.773,-49.117,-124.54,-126.46,-10.326,-26.557,-103.79,-107.57,25.19,-30.562
-33.637,-32.193,-55.607,-23.911,-52.29,-55.078,-41.569,-48.987,-124,-126.46,-10.047,-26.411,-103.25,-107.55,25.409,-30.23
-33.637,-32.193,-55.607,-23.911,-52.29,-55.078,-41.569,-48.987,-124,-126.46,-10.047,-26.411,-103.25,-107.55,25.409,-30.23
-33.445,-32.139,-55.438,-24.045,-52.04,-54.843,-41.365,-48.857,-123.45,-126.45,-9.7678,-26.265,-102.71,-107.52,25.627,-29.897
-33.445,-32.139,-55.438,-24.045,-52.04,-54.843,-41.365,-48.857,-123.45,-126.45,-9.7678,-26.265,-102.71,-107.52,25.627,-29.897
-33.252,-32.084,-55.269,-24.178,-51.79,-54.607,-41.16,-48.727,-122.9,-126.44,-9.4893,-26.118,-102.16,-107.5,25.845,-29.565
-33.06,-32.03,-55.1,-24.309,-51.54,-54.37,-40.956,-48.595,-122.34,-126.42,-9.2112,-25.972,-101.62,-107.47,26.061,-29.233
-33.06,-32.03,-55.1,-24.309,-51.54,-54.37,-40.956,-48.595,-122.34,-126.42,-9.2112,-25.972,-101.62,-107.47,26.061,-29.233
-33.06,-32.03,-55.1,-24.309,-51.54,-54.37,-40.956,-48.595,-122.34,-126.42,-9.2112,-25.972,-101.62,-107.47,26.061,-29.233
-32.867,-31.974,-54.931,-24.439,-51.289,-54.132,-40.752,-48.463,-121.79,-126.41,-8.9335,-25.825,-101.07,-107.44,26.276,-28.901
-32.867,-31.974,-54.931,-24.439,-51.289,-54.132,-40.752,-48.463,-121.79,-126.41,-8.9335,-25.825,-101.07,-107.44,26.276,-28.901
-32.867,-31.974,-54.931,-24.439,-51.289,-54.132,-40.752,-48.463,-121.79,-126.41,-8.9335,-25.825,-101.07,-107.44,26.276,-28.901
-32.675,-31.918,-54.761,-24.568,-51.039,-53.893,-40.549,-48.33,-121.23,-126.39,-8.6562,-25.678,-100.52,-107.4,26.491,-28.569
-32.482,-31.862,-54.592,-24.695,-50.788,-53.653,-40.345,-48.196,-120.67,-126.37,-8.3793,-25.531,-99.973,-107.37,26.704,-28.237
-32.482,-31.862,-54.592,-24.695,-50.788,-53.653,-40.345,-48.196,-120.67,-126.37,-8.3793,-25.531,-99.973,-107.37,26.704,-28.237
-32.482,-31.862,-54.592,-24.695,-50.788,-53.653,-40.345,-48.196,-120.67,-126.37,-8.3793,-25.531,-99.973,-107.37,26.704,-28.237
-32.289,-31.805,-54.422,-24.821,-50.537,-53.412,-40.142,-48.062,-120.11,-126.35,-8.1029,-25.383,-99.422,-107.33,26.917,-27.906
-32.289,-31.805,-54.422,-24.821,-50.537,-53.412,-40.142,-48.062,-120.11,-126.35,-8.1029,-25.383,-99.422,-107.33,26.917,-27.906
-32.289,-31.805,-54.422,-24.821,-50.537,-53.412,-40.142,-48.062,-120.11,-126.35,-8.1029,-25.383,-99.422,-107.33,26.917,-27.906
-32.289,-31.805,-54.422,-24.821,-50.537,-53.412,-40.142,-48.062,-120.11,-126.35,-8.1029,-25.383,-99.422,-107.33,26.917,-27.906
-31.904,-31.691,-54.083,-25.069,-50.035,-52.928,-39.736,-47.792,-118.99,-126.3,-7.5514,-25.089,-98.318,-107.26,27.338,-27.244
-31.904,-31.691,-54.083,-25.069,-50.035,-52.928,-39.736,-47.792,-118.99,-126.3,-7.5514,-25.089,-98.318,-107.26,27.338,-27.244
-31.711,-31.633,-53.913,-25.191,-49.784,-52.684,-39.533,-47.655,-118.42,-126.28,-7.2764,-24.941,-97.764,-107.22,27.547,-26.913
-31.711,-31.633,-53.913,-25.191,-49.784,-52.684,-39.533,-47.655,-118.42,-126.28,-7.2764,-24.941,-97.764,-107.22,27.547,-26.913
-31.518,-31.575,-53.743,-25.311,-49.533,-52.44,-39.331,-47.519,-117.85,-126.25,-7.0018,-24.794,-97.209,-107.18,27.756,-26.583
-31.326,-31.517,-53.573,-25.431,-49.282,-52.195,-39.129,-47.382,-117.28,-126.22,-6.7278,-24.646,-96.653,-107.13,27.963,-26.253
-31.326,-31.517,-53.573,-25.431,-49.282,-52.195,-39.129,-47.382,-117.28,-126.22,-6.7278,-24.646,-96.653,-107.13,27.963,-26.253
-31.133,-31.458,-53.403,-25.549,-49.031,-51.949,-38.927,-47.244,-116.7,-126.18,-6.4543,-24.499,-96.096,-107.09,28.169,-25.924
-31.133,-31.458,-53.403,-25.549,-49.031,-51.949,-38.927,-47.244,-116.7,-126.18,-6.4543,-24.499,-96.096,-107.09,28.169,-25.924
-30.94,-31.4,-53.233,-25.666,-48.78,-51.702,-38.725,-47.106,-116.13,-126.15,-6.1814,-24.352,-95.538,-107.04,28.374,-25.595
-30.748,-31.34,-53.063,-25.781,-48.53,-51.455,-38.524,-46.967,-115.55,-126.11,-5.909,-24.204,-94.979,-106.99,28.577,-25.266
-30.748,-31.34,-53.063,-25.781,-48.53,-51.455,-38.524,-46.967,-115.55,-126.11,-5.909,-24.204,-94.979,-106.99,28.577,-25.266
-30.748,-31.34,-53.063,-25.781,-48.53,-51.455,-38.524,-46.967,-115.55,-126.11,-5.909,-24.204,-94.979,-106.99,28.577,-25.266
-30.748,-31.34,-53.063,-25.781,-48.53,-51.455,-38.524,-46.967,-115.55,-126.11,-5.909,-24.204,-94.979,-106.99,28.577,-25.266
-30.555,-31.281,-52.892,-25.895,-48.279,-51.207,-38.323,-46.827,-114.97,-126.07,-5.6372,-24.057,-94.419,-106.94,28.78,-24.938
-30.555,-31.281,-52.892,-25.895,-48.279,-51.207,-38.323,-46.827,-114.97,-126.07,-5.6372,-24.057,-94.419,-106.94,28.78,-24.938
-30.555,-31.281,-52.892,-25.895,-48.279,-51.207,-38.323,-46.827,-114.97,-126.07,-5.6372,-24.057,-94.419,-106.94,28.78,-24.938
-30.17,-31.162,-52.552,-26.12,-47.777,-50.709,-37.922,-46.547,-113.81,-125.99,-5.0953,-23.764,-93.295,-106.84,29.182,-24.283
-30.17,-31.162,-52.552,-26.12,-47.777,-50.709,-37.922,-46.547,-113.81,-125.99,-5.0953,-23.764,-93.295,-106.84,29.182,-24.283
-29.977,-31.102,-52.382,-26.231,-47.526,-50.459,-37.722,-46.407,-113.22,-125.95,-4.8252,-23.617,-92.732,-106.78,29.381,-23.956
-29.977,-31.102,-52.382,-26.231,-47.526,-50.459,-37.722,-46.407,-113.22,-125.95,-4.8252,-23.617,-92.732,-106.78,29.381,-23.956
-29.785,-31.042,-52.211,-26.34,-47.276,-50.208,-37.522,-46.266,-112.63,-125.9,-4.5558,-23.471,-92.168,-106.73,29.579,-23.63
-29.785,-31.042,-52.211,-26.34,-47.276,-50.208,-37.522,-46.266,-112.63,-125.9,-4.5558,-23.471,-92.168,-106.73,29.579,-23.63
-29.592,-30.982,-52.041,-26.448,-47.025,-49.957,-37.322,-46.124,-112.04,-125.85,-4.2871,-23.325,-91.603,-106.67,29.776,-23.304
-29.592,-30.982,-52.041,-26.448,-47.025,-49.957,-37.322,-46.124,-112.04,-125.85,-4.2871,-23.325,-91.603,-106.67,29.776,-23.304
-29.592,-30.982,-52.041,-26.448,-47.025,-49.957,-37.322,-46.124,-112.04,-125.85,-4.2871,-23.325,-91.603,-106.67,29.776,-23.304
-29.4,-30.922,-51.871,-26.555,-46.775,-49.705,-37.123,-45.982,-111.45,-125.8,-4.019,-23.179,-91.037,-106.61,29.972,-22.979
-29.4,-30.922,-51.871,-26.555,-46.775,-49.705,-37.123,-45.982,-111.45,-125.8,-4.019,-23.179,-91.037,-106.61,29.972,-22.979
-29.4,-30.922,-51.871,-26.555,-46.775,-49.705,-37.123,-45.982,-111.45,-125.8,-4.019,-23.179,-91.037,-106.61,29.972,-22.979
-29.016,-30.801,-51.53,-26.766,-46.274,-49.2,-36.726,-45.698,-110.26,-125.7,-3.4847,-22.889,-89.903,-106.49,30.359,-22.331
-29.016,-30.801,-51.53,-26.766,-46.274,-49.2,-36.726,-45.698,-110.26,-125.7,-3.4847,-22.889,-89.903,-106.49,30.359,-22.331
-29.016,-30.801,-51.53,-26.766,-46.274,-49.2,-36.726,-45.698,-110.26,-125.7,-3.4847,-22.889,-89.903,-106.49,30.359,-22.331
-28.824,-30.741,-51.36,-26.869,-46.024,-48.947,-36.528,-45.555,-109.66,-125.64,-3.2186,-22.744,-89.334,-106.42,30.551,-22.008
-28.824,-30.741,-51.36,-26.869,-46.024,-48.947,-36.528,-45.555,-109.66,-125.64,-3.2186,-22.744,-89.334,-106.42,30.551,-22.008
-28.632,-30.681,-51.19,-26.971,-45.775,-48.693,-36.33,-45.411,-109.06,-125.58,-2.9532,-22.6,-88.765,-106.36,30.742,-21.685
-28.44,-30.62,-51.019,-27.072,-45.525,-48.439,-36.133,-45.268,-108.46,-125.52,-2.6886,-22.456,-88.194,-106.29,30.931,-21.363
-28.44,-30.62,-51.019,-27.072,-45.525,-48.439,-36.133,-45.268,-108.46,-125.52,-2.6886,-22.456,-88.194,-106.29,30.931,-21.363
-28.248,-30.56,-50.849,-27.173,-45.276,-48.184,-35.936,-45.124,-107.86,-125.46,-2.4246,-22.312,-87.623,-106.22,31.12,-21.042
-28.248,-30.56,-50.849,-27.173,-45.276,-48.184,-35.936,-45.124,-107.86,-125.46,-2.4246,-22.312,-87.623,-106.22,31.12,-21.042
-28.057,-30.499,-50.679,-27.271,-45.027,-47.93,-35.739,-44.98,-107.25,-125.4,-2.1614,-22.169,-87.052,-106.15,31.306,-20.722
-28.057,-30.499,-50.679,-27.271,-45.027,-47.93,-35.739,-44.98,-107.25,-125.4,-2.1614,-22.169,-87.052,-106.15,31.306,-20.722
-27.865,-30.439,-50.509,-27.369,-44.778,-47.674,-35.543,-44.836,-106.64,-125.34,-1.899,-22.026,-86.479,-106.08,31.492,-20.402
-27.865,-30.439,-50.509,-27.369,-44.778,-47.674,-35.543,-44.836,-106.64,-125.34,-1.899,-22.026,-86.479,-106.08,31.492,-20.402
-27.674,-30.379,-50.338,-27.466,-44.529,-47.419,-35.347,-44.691,-106.03,-125.27,-1.6373,-21.884,-85.905,-106.01,31.676,-20.083
-27.674,-30.379,-50.338,-27.466,-44.529,-47.419,-35.347,-44.691,-106.03,-125.27,-1.6373,-21.884,-85.905,-106.01,31.676,-20.083
-27.483,-30.319,-50.168,-27.562,-44.28,-47.163,-35.152,-44.546,-105.42,-125.2,-1.3763,-21.742,-85.331,-105.93,31.86,-19.765
-27.483,-30.319,-50.168,-27.562,-44.28,-47.163,-35.152,-44.546,-105.42,-125.2,-1.3763,-21.742,-85.331,-105.93,31.86,-19.765
-27.483,-30.319,-50.168,-27.562,-44.28,-47.163,-35.152,-44.546,-105.42,-125.2,-1.3763,-21.742,-85.331,-105.93,31.86,-19.765
-27.291,-30.259,-49.998,-27.656,-44.032,-46.906,-34.957,-44.401,-104.8,-125.13,-1.1162,-21.601,-84.756,-105.86,32.041,-19.448
-27.291,-30.259,-49.998,-27.656,-44.032,-46.906,-34.957,-44.401,-104.8,-125.13,-1.1162,-21.601,-84.756,-105.86,32.041,-19.448
-27.101,-30.199,-49.828,-27.749,-43.784,-46.65,-34.762,-44.256,-104.19,-125.06,-0.85684,-21.461,-84.181,-105.78,32.222,-19.132
-27.101,-30.199,-49.828,-27.749,-43.784,-46.65,-34.762,-44.256,-104.19,-125.06,-0.85684,-21.461,-84.181,-105.78,32.222,-19.132
-26.91,-30.139,-49.658,-27.842,-43.536,-46.393,-34.568,-44.11,-103.57,-124.99,-0.5983,-21.321,-83.604,-105.7,32.401,-18.816
-26.719,-30.079,-49.488,-27.933,-43.289,-46.136,-34.374,-43.964,-102.95,-124.91,-0.34057,-21.181,-83.027,-105.62,32.579,-18.502
-26.719,-30.079,-49.488,-27.933,-43.289,-46.136,-34.374,-43.964,-102.95,-124.91,-0.34057,-21.181,-83.027,-105.62,32.579,-18.502
-26.529,-30.02,-49.318,-28.023,-43.042,-45.879,-34.181,-43.819,-102.33,-124.83,-0.083674,-21.043,-82.45,-105.54,32.755,-18.188
-26.529,-30.02,-49.318,-28.023,-43.042,-45.879,-34.181,-43.819,-102.33,-124.83,-0.083674,-21.043,-82.45,-105.54,32.755,-18.188
-26.338,-29.96,-49.148,-28.113,-42.795,-45.622,-33.988,-43.673,-101.7,-124.75,0.17239,-20.905,-81.871,-105.45,32.93,-17.875
-26.338,-29.96,-49.148,-28.113,-42.795,-45.622,-33.988,-43.673,-101.7,-124.75,0.17239,-20.905,-81.871,-105.45,32.93,-17.875
-26.338,-29.96,-49.148,-28.113,-42.795,-45.622,-33.988,-43.673,-101.7,-124.75,0.17239,-20.905,-81.871,-105.45,32.93,-17.875
-26.148,-29.901,-48.979,-28.201,-42.549,-45.364,-33.796,-43.527,-101.07,-124.67,0.4276,-20.767,-81.292,-105.37,33.104,-17.564
-26.148,-29.901,-48.979,-28.201,-42.549,-45.364,-33.796,-43.527,-101.07,-124.67,0.4276,-20.767,-81.292,-105.37,33.104,-17.564
-25.958,-29.842,-48.809,-28.288,-42.302,-45.106,-33.604,-43.38,-100.45,-124.59,0.68196,-20.63,-80.713,-105.28,33.276,-17.253
-25.958,-29.842,-48.809,-28.288,-42.302,-45.106,-33.604,-43.38,-100.45,-124.59,0.68196,-20.63,-80.713,-105.28,33.276,-17.253
-25.958,-29.842,-48.809,-28.288,-42.302,-45.106,-33.604,-43.38,-100.45,-124.59,0.68196,-20.63,-80.713,-105.28,33.276,-17.253
-25.579,-29.725,-48.47,-28.459,-41.811,-44.591,-33.221,-43.088,-99.182,-124.42,1.1881,-20.359,-79.551,-105.11,33.616,-16.634
-25.579,-29.725,-48.47,-28.459,-41.811,-44.591,-33.221,-43.088,-99.182,-124.42,1.1881,-20.359,-79.551,-105.11,33.616,-16.634
-25.39,-29.667,-48.3,-28.543,-41.566,-44.333,-33.031,-42.941,-98.547,-124.33,1.4398,-20.225,-78.97,-105.02,33.784,-16.326
-25.39,-29.667,-48.3,-28.543,-41.566,-44.333,-33.031,-42.941,-98.547,-124.33,1.4398,-20.225,-78.97,-105.02,33.784,-16.326
-25.39,-29.667,-48.3,-28.543,-41.566,-44.333,-33.031,-42.941,-98.547,-124.33,1.4398,-20.225,-78.97,-105.02,33.784,-16.326
-25.201,-29.609,-48.131,-28.626,-41.321,-44.074,-32.841,-42.794,-97.91,-124.24,1.6906,-20.091,-78.388,-104.92,33.951,-16.02
-25.201,-29.609,-48.131,-28.626,-41.321,-44.074,-32.841,-42.794,-97.91,-124.24,1.6906,-20.091,-78.388,-104.92,33.951,-16.02
-25.201,-29.609,-48.131,-28.626,-41.321,-44.074,-32.841,-42.794,-97.91,-124.24,1.6906,-20.091,-78.388,-104.92,33.951,-16.02
-24.823,-29.494,-47.792,-28.789,-40.833,-43.558,-32.462,-42.501,-96.631,-124.06,2.1896,-19.826,-77.222,-104.74,34.28,-15.409
-24.823,-29.494,-47.792,-28.789,-40.833,-43.558,-32.462,-42.501,-96.631,-124.06,2.1896,-19.826,-77.222,-104.74,34.28,-15.409
-24.635,-29.437,-47.623,-28.87,-40.589,-43.3,-32.273,-42.354,-95.988,-123.96,2.4377,-19.694,-76.638,-104.64,34.443,-15.106
-24.446,-29.381,-47.453,-28.949,-40.346,-43.042,-32.085,-42.208,-95.344,-123.86,2.6848,-19.564,-76.054,-104.54,34.604,-14.803
-24.446,-29.381,-47.453,-28.949,-40.346,-43.042,-32.085,-42.208,-95.344,-123.86,2.6848,-19.564,-76.054,-104.54,34.604,-14.803
-24.446,-29.381,-47.453,-28.949,-40.346,-43.042,-32.085,-42.208,-95.344,-123.86,2.6848,-19.564,-76.054,-104.54,34.604,-14.803
-24.446,-29.381,-47.453,-28.949,-40.346,-43.042,-32.085,-42.208,-95.344,-123.86,2.6848,-19.564,-76.054,-104.54,34.604,-14.803
-24.258,-29.324,-47.284,-29.027,-40.104,-42.784,-31.898,-42.061,-94.697,-123.77,2.931,-19.434,-75.469,-104.44,34.763,-14.502
-24.258,-29.324,-47.284,-29.027,-40.104,-42.784,-31.898,-42.061,-94.697,-123.77,2.931,-19.434,-75.469,-104.44,34.763,-14.502
-24.258,-29.324,-47.284,-29.027,-40.104,-42.784,-31.898,-42.061,-94.697,-123.77,2.931,-19.434,-75.469,-104.44,34.763,-14.502
-23.883,-29.212,-46.946,-29.18,-39.619,-42.268,-31.524,-41.767,-93.398,-123.56,3.4206,-19.177,-74.298,-104.24,35.078,-13.903
-23.883,-29.212,-46.946,-29.18,-39.619,-42.268,-31.524,-41.767,-93.398,-123.56,3.4206,-19.177,-74.298,-104.24,35.078,-13.903
-23.695,-29.157,-46.777,-29.256,-39.378,-42.01,-31.338,-41.621,-92.745,-123.46,3.664,-19.05,-73.712,-104.14,35.233,-13.605
-23.695,-29.157,-46.777,-29.256,-39.378,-42.01,-31.338,-41.621,-92.745,-123.46,3.664,-19.05,-73.712,-104.14,35.233,-13.605
-23.508,-29.102,-46.609,-29.33,-39.137,-41.752,-31.152,-41.474,-92.091,-123.36,3.9064,-18.924,-73.126,-104.03,35.386,-13.309
-23.508,-29.102,-46.609,-29.33,-39.137,-41.752,-31.152,-41.474,-92.091,-123.36,3.9064,-18.924,-73.126,-104.03,35.386,-13.309
-23.321,-29.048,-46.44,-29.403,-38.896,-41.495,-30.967,-41.327,-91.434,-123.25,4.1478,-18.799,-72.539,-103.93,35.539,-13.013
-23.321,-29.048,-46.44,-29.403,-38.896,-41.495,-30.967,-41.327,-91.434,-123.25,4.1478,-18.799,-72.539,-103.93,35.539,-13.013
-23.321,-29.048,-46.44,-29.403,-38.896,-41.495,-30.967,-41.327,-91.434,-123.25,4.1478,-18.799,-72.539,-103.93,35.539,-13.013
-23.135,-28.994,-46.271,-29.476,-38.656,-41.237,-30.782,-41.181,-90.776,-123.14,4.3882,-18.675,-71.951,-103.82,35.689,-12.719
-22.948,-28.94,-46.103,-29.547,-38.417,-40.98,-30.598,-41.034,-90.116,-123.03,4.6276,-18.552,-71.363,-103.71,35.838,-12.427
-22.948,-28.94,-46.103,-29.547,-38.417,-40.98,-30.598,-41.034,-90.116,-123.03,4.6276,-18.552,-71.363,-103.71,35.838,-12.427
-22.762,-28.887,-45.934,-29.618,-38.178,-40.723,-30.414,-40.888,-89.453,-122.92,4.8661,-18.43,-70.775,-103.6,35.986,-12.135
-22.576,-28.834,-45.766,-29.687,-37.939,-40.466,-30.231,-40.741,-88.789,-122.8,5.1035,-18.309,-70.186,-103.49,36.132,-11.845
-22.576,-28.834,-45.766,-29.687,-37.939,-40.466,-30.231,-40.741,-88.789,-122.8,5.1035,-18.309,-70.186,-103.49,36.132,-11.845
-22.576,-28.834,-45.766,-29.687,-37.939,-40.466,-30.231,-40.741,-88.789,-122.8,5.1035,-18.309,-70.186,-103.49,36.132,-11.845
-22.391,-28.782,-45.597,-29.756,-37.701,-40.209,-30.049,-40.595,-88.123,-122.69,5.3399,-18.189,-69.597,-103.38,36.277,-11.556
-22.391,-28.782,-45.597,-29.756,-37.701,-40.209,-30.049,-40.595,-88.123,-122.69,5.3399,-18.189,-69.597,-103.38,36.277,-11.556
-22.391,-28.782,-45.597,-29.756,-37.701,-40.209,-30.049,-40.595,-88.123,-122.69,5.3399,-18.189,-69.597,-103.38,36.277,-11.556
-22.206,-28.73,-45.429,-29.824,-37.463,-39.953,-29.867,-40.449,-87.455,-122.57,5.5753,-18.07,-69.007,-103.27,36.42,-11.268
-22.206,-28.73,-45.429,-29.824,-37.463,-39.953,-29.867,-40.449,-87.455,-122.57,5.5753,-18.07,-69.007,-103.27,36.42,-11.268
-22.206,-28.73,-45.429,-29.824,-37.463,-39.953,-29.867,-40.449,-87.455,-122.57,5.5753,-18.07,-69.007,-103.27,36.42,-11.268
-21.836,-28.628,-45.093,-29.957,-36.989,-39.441,-29.504,-40.157,-86.113,-122.33,6.043,-17.835,-67.827,-103.03,36.701,-10.697
-21.836,-28.628,-45.093,-29.957,-36.989,-39.441,-29.504,-40.157,-86.113,-122.33,6.043,-17.835,-67.827,-103.03,36.701,-10.697
-21.651,-28.578,-44.925,-30.022,-36.753,-39.185,-29.324,-40.011,-85.44,-122.21,6.2753,-17.719,-67.237,-102.92,36.84,-10.413
-21.651,-28.578,-44.925,-30.022,-36.753,-39.185,-29.324,-40.011,-85.44,-122.21,6.2753,-17.719,-67.237,-102.92,36.84,-10.413
-21.651,-28.578,-44.925,-30.022,-36.753,-39.185,-29.324,-40.011,-85.44,-122.21,6.2753,-17.719,-67.237,-102.92,36.84,-10.413
-21.467,-28.528,-44.757,-30.086,-36.518,-38.93,-29.144,-39.866,-84.764,-122.09,6.5065,-17.605,-66.646,-102.8,36.977,-10.131
-21.467,-28.528,-44.757,-30.086,-36.518,-38.93,-29.144,-39.866,-84.764,-122.09,6.5065,-17.605,-66.646,-102.8,36.977,-10.131
-21.467,-28.528,-44.757,-30.086,-36.518,-38.93,-29.144,-39.866,-84.764,-122.09,6.5065,-17.605,-66.646,-102.8,36.977,-10.131
-21.099,-28.43,-44.421,-30.212,-36.048,-38.42,-28.786,-39.575,-83.407,-121.84,6.9658,-17.379,-65.464,-102.56,37.246,-9.5711
-21.099,-28.43,-44.421,-30.212,-36.048,-38.42,-28.786,-39.575,-83.407,-121.84,6.9658,-17.379,-65.464,-102.56,37.246,-9.5711
-21.099,-28.43,-44.421,-30.212,-36.048,-38.42,-28.786,-39.575,-83.407,-121.84,6.9658,-17.379,-65.464,-102.56,37.246,-9.5711
-20.916,-28.381,-44.253,-30.274,-35.814,-38.165,-28.607,-39.43,-82.726,-121.71,7.1939,-17.267,-64.872,-102.43,37.378,-9.2932
-20.916,-28.381,-44.253,-30.274,-35.814,-38.165,-28.607,-39.43,-82.726,-121.71,7.1939,-17.267,-64.872,-102.43,37.378,-9.2932
-20.733,-28.334,-44.086,-30.334,-35.581,-37.911,-28.43,-39.285,-82.042,-121.58,7.4209,-17.157,-64.28,-102.31,37.509,-9.0167
-20.733,-28.334,-44.086,-30.334,-35.581,-37.911,-28.43,-39.285,-82.042,-121.58,7.4209,-17.157,-64.28,-102.31,37.509,-9.0167
-20.733,-28.334,-44.086,-30.334,-35.581,-37.911,-28.43,-39.285,-82.042,-121.58,7.4209,-17.157,-64.28,-102.31,37.509,-9.0167
-20.368,-28.24,-43.751,-30.453,-35.116,-37.405,-28.076,-38.995,-80.671,-121.31,7.8717,-16.941,-63.095,-102.06,37.765,-8.4681
-20.368,-28.24,-43.751,-30.453,-35.116,-37.405,-28.076,-38.995,-80.671,-121.31,7.8717,-16.941,-63.095,-102.06,37.765,-8.4681
-20.368,-28.24,-43.751,-30.453,-35.116,-37.405,-28.076,-38.995,-80.671,-121.31,7.8717,-16.941,-63.095,-102.06,37.765,-8.4681
-20.186,-28.194,-43.583,-30.511,-34.884,-37.152,-27.899,-38.851,-79.982,-121.18,8.0955,-16.834,-62.502,-101.93,37.891,-8.196
-20.186,-28.194,-43.583,-30.511,-34.884,-37.152,-27.899,-38.851,-79.982,-121.18,8.0955,-16.834,-62.502,-101.93,37.891,-8.196
-20.186,-28.194,-43.583,-30.511,-34.884,-37.152,-27.899,-38.851,-79.982,-121.18,8.0955,-16.834,-62.502,-101.93,37.891,-8.196
-19.822,-28.104,-43.248,-30.624,-34.423,-36.648,-27.549,-38.563,-78.599,-120.9,8.5398,-16.625,-61.316,-101.67,38.138,-7.6563
-19.822,-28.104,-43.248,-30.624,-34.423,-36.648,-27.549,-38.563,-78.599,-120.9,8.5398,-16.625,-61.316,-101.67,38.138,-7.6563
-19.822,-28.104,-43.248,-30.624,-34.423,-36.648,-27.549,-38.563,-78.599,-120.9,8.5398,-16.625,-61.316,-101.67,38.138,-7.6563
-19.641,-28.06,-43.081,-30.68,-34.193,-36.396,-27.374,-38.419,-77.905,-120.77,8.7604,-16.522,-60.723,-101.54,38.26,-7.3887
-19.46,-28.016,-42.914,-30.734,-33.964,-36.145,-27.2,-38.275,-77.209,-120.62,8.9798,-16.421,-60.129,-101.4,38.379,-7.1227
-19.46,-28.016,-42.914,-30.734,-33.964,-36.145,-27.2,-38.275,-77.209,-120.62,8.9798,-16.421,-60.129,-101.4,38.379,-7.1227
-19.28,-27.973,-42.747,-30.788,-33.735,-35.895,-27.027,-38.132,-76.511,-120.48,9.1981,-16.32,-59.536,-101.27,38.497,-6.8582
-19.28,-27.973,-42.747,-30.788,-33.735,-35.895,-27.027,-38.132,-76.511,-120.48,9.1981,-16.32,-59.536,-101.27,38.497,-6.8582
-19.28,-27.973,-42.747,-30.788,-33.735,-35.895,-27.027,-38.132,-76.511,-120.48,9.1981,-16.32,-59.536,-101.27,38.497,-6.8582
-19.099,-27.931,-42.58,-30.841,-33.507,-35.645,-26.854,-37.989,-75.811,-120.34,9.4153,-16.221,-58.942,-101.13,38.614,-6.5953
-19.099,-27.931,-42.58,-30.841,-33.507,-35.645,-26.854,-37.989,-75.811,-120.34,9.4153,-16.221,-58.942,-101.13,38.614,-6.5953
-18.92,-27.889,-42.412,-30.893,-33.279,-35.395,-26.681,-37.846,-75.11,-120.19,9.6314,-16.124,-58.348,-100.99,38.728,-6.334
-18.74,-27.848,-42.245,-30.944,-33.053,-35.146,-26.51,-37.704,-74.407,-120.05,9.8464,-16.027,-57.754,-100.86,38.841,-6.0742
-18.74,-27.848,-42.245,-30.944,-33.053,-35.146,-26.51,-37.704,-74.407,-120.05,9.8464,-16.027,-57.754,-100.86,38.841,-6.0742
-18.561,-27.807,-42.078,-30.994,-32.826,-34.898,-26.338,-37.561,-73.702,-119.9,10.06,-15.932,-57.159,-100.72,38.953,-5.816
-18.561,-27.807,-42.078,-30.994,-32.826,-34.898,-26.338,-37.561,-73.702,-119.9,10.06,-15.932,-57.159,-100.72,38.953,-5.816
-18.561,-27.807,-42.078,-30.994,-32.826,-34.898,-26.338,-37.561,-73.702,-119.9,10.06,-15.932,-57.159,-100.72,38.953,-5.816
-18.561,-27.807,-42.078,-30.994,-32.826,-34.898,-26.338,-37.561,-73.702,-119.9,10.06,-15.932,-57.159,-100.72,38.953,-5.816
-18.382,-27.768,-41.912,-31.043,-32.601,-34.65,-26.168,-37.419,-72.995,-119.75,10.273,-15.838,-56.565,-100.58,39.063,-5.5594
-18.382,-27.768,-41.912,-31.043,-32.601,-34.65,-26.168,-37.419,-72.995,-119.75,10.273,-15.838,-56.565,-100.58,39.063,-5.5594
-18.025,-27.69,-41.578,-31.14,-32.151,-34.155,-25.828,-37.136,-71.577,-119.44,10.695,-15.655,-55.376,-100.29,39.278,-5.0512
-18.025,-27.69,-41.578,-31.14,-32.151,-34.155,-25.828,-37.136,-71.577,-119.44,10.695,-15.655,-55.376,-100.29,39.278,-5.0512
-17.847,-27.652,-41.411,-31.186,-31.928,-33.909,-25.658,-36.995,-70.865,-119.29,10.905,-15.565,-54.781,-100.15,39.383,-4.7995
-17.847,-27.652,-41.411,-31.186,-31.928,-33.909,-25.658,-36.995,-70.865,-119.29,10.905,-15.565,-54.781,-100.15,39.383,-4.7995
-17.669,-27.615,-41.244,-31.232,-31.705,-33.664,-25.49,-36.854,-70.151,-119.13,11.113,-15.477,-54.186,-100,39.486,-4.5494
-17.669,-27.615,-41.244,-31.232,-31.705,-33.664,-25.49,-36.854,-70.151,-119.13,11.113,-15.477,-54.186,-100,39.486,-4.5494
-17.669,-27.615,-41.244,-31.232,-31.705,-33.664,-25.49,-36.854,-70.151,-119.13,11.113,-15.477,-54.186,-100,39.486,-4.5494
-17.492,-27.578,-41.077,-31.278,-31.482,-33.419,-25.322,-36.713,-69.436,-118.97,11.32,-15.389,-53.591,-99.854,39.588,-4.301
-17.492,-27.578,-41.077,-31.278,-31.482,-33.419,-25.322,-36.713,-69.436,-118.97,11.32,-15.389,-53.591,-99.854,39.588,-4.301
-17.492,-27.578,-41.077,-31.278,-31.482,-33.419,-25.322,-36.713,-69.436,-118.97,11.32,-15.389,-53.591,-99.854,39.588,-4.301
-17.138,-27.507,-40.744,-31.365,-31.039,-32.93,-24.987,-36.433,-68.001,-118.65,11.731,-15.219,-52.401,-99.557,39.787,-3.8093
-17.138,-27.507,-40.744,-31.365,-31.039,-32.93,-24.987,-36.433,-68.001,-118.65,11.731,-15.219,-52.401,-99.557,39.787,-3.8093
-16.962,-27.473,-40.577,-31.408,-30.819,-32.687,-24.821,-36.293,-67.28,-118.49,11.935,-15.137,-51.806,-99.406,39.883,-3.5659
-16.962,-27.473,-40.577,-31.408,-30.819,-32.687,-24.821,-36.293,-67.28,-118.49,11.935,-15.137,-51.806,-99.406,39.883,-3.5659
-16.962,-27.473,-40.577,-31.408,-30.819,-32.687,-24.821,-36.293,-67.28,-118.49,11.935,-15.137,-51.806,-99.406,39.883,-3.5659
-16.786,-27.439,-40.411,-31.45,-30.599,-32.445,-24.655,-36.154,-66.558,-118.33,12.137,-15.055,-51.211,-99.254,39.979,-3.3242
-16.61,-27.406,-40.244,-31.49,-30.38,-32.203,-24.489,-36.015,-65.835,-118.16,12.339,-14.975,-50.616,-99.101,40.072,-3.0843
-16.435,-27.374,-40.077,-31.531,-30.161,-31.962,-24.324,-35.876,-65.109,-117.99,12.539,-14.896,-50.021,-98.947,40.164,-2.846
-16.435,-27.374,-40.077,-31.531,-30.161,-31.962,-24.324,-35.876,-65.109,-117.99,12.539,-14.896,-50.021,-98.947,40.164,-2.846
-16.435,-27.374,-40.077,-31.531,-30.161,-31.962,-24.324,-35.876,-65.109,-117.99,12.539,-14.896,-50.021,-98.947,40.164,-2.846
-16.26,-27.342,-39.911,-31.57,-29.943,-31.721,-24.16,-35.737,-64.383,-117.83,12.738,-14.819,-49.425,-98.792,40.255,-2.6095
-16.26,-27.342,-39.911,-31.57,-29.943,-31.721,-24.16,-35.737,-64.383,-117.83,12.738,-14.819,-49.425,-98.792,40.255,-2.6095
-16.086,-27.311,-39.744,-31.608,-29.726,-31.482,-23.996,-35.599,-63.654,-117.66,12.936,-14.743,-48.83,-98.635,40.343,-2.3747
-16.086,-27.311,-39.744,-31.608,-29.726,-31.482,-23.996,-35.599,-63.654,-117.66,12.936,-14.743,-48.83,-98.635,40.343,-2.3747
-15.911,-27.281,-39.577,-31.646,-29.51,-31.243,-23.833,-35.462,-62.924,-117.49,13.133,-14.669,-48.235,-98.478,40.43,-2.1416
-15.911,-27.281,-39.577,-31.646,-29.51,-31.243,-23.833,-35.462,-62.924,-117.49,13.133,-14.669,-48.235,-98.478,40.43,-2.1416
-15.737,-27.251,-39.411,-31.682,-29.294,-31.004,-23.67,-35.324,-62.192,-117.31,13.329,-14.596,-47.64,-98.319,40.516,-1.9103
-15.737,-27.251,-39.411,-31.682,-29.294,-31.004,-23.67,-35.324,-62.192,-117.31,13.329,-14.596,-47.64,-98.319,40.516,-1.9103
-15.564,-27.222,-39.244,-31.718,-29.079,-30.767,-23.508,-35.187,-61.459,-117.14,13.524,-14.524,-47.045,-98.159,40.599,-1.6807
-15.564,-27.222,-39.244,-31.718,-29.079,-30.767,-23.508,-35.187,-61.459,-117.14,13.524,-14.524,-47.045,-98.159,40.599,-1.6807
-15.391,-27.194,-39.077,-31.753,-28.864,-30.53,-23.346,-35.05,-60.724,-116.96,13.717,-14.454,-46.45,-97.998,40.681,-1.4529
-15.391,-27.194,-39.077,-31.753,-28.864,-30.53,-23.346,-35.05,-60.724,-116.96,13.717,-14.454,-46.45,-97.998,40.681,-1.4529
-15.218,-27.167,-38.911,-31.787,-28.65,-30.294,-23.184,-34.914,-59.988,-116.79,13.91,-14.385,-45.855,-97.835,40.762,-1.2269
-15.218,-27.167,-38.911,-31.787,-28.65,-30.294,-23.184,-34.914,-59.988,-116.79,13.91,-14.385,-45.855,-97.835,40.762,-1.2269
-15.218,-27.167,-38.911,-31.787,-28.65,-30.294,-23.184,-34.914,-59.988,-116.79,13.91,-14.385,-45.855,-97.835,40.762,-1.2269
-15.045,-27.14,-38.744,-31.821,-28.437,-30.058,-23.024,-34.778,-59.25,-116.61,14.101,-14.318,-45.26,-97.672,40.84,-1.0026
-14.873,-27.114,-38.577,-31.853,-28.225,-29.824,-22.863,-34.642,-58.511,-116.43,14.291,-14.252,-44.665,-97.507,40.918,-0.78012
-14.873,-27.114,-38.577,-31.853,-28.225,-29.824,-22.863,-34.642,-58.511,-116.43,14.291,-14.252,-44.665,-97.507,40.918,-0.78012
-14.702,-27.089,-38.41,-31.885,-28.013,-29.59,-22.704,-34.506,-57.77,-116.25,14.48,-14.188,-44.07,-97.341,40.993,-0.55941
-14.702,-27.089,-38.41,-31.885,-28.013,-29.59,-22.704,-34.506,-57.77,-116.25,14.48,-14.188,-44.07,-97.341,40.993,-0.55941
-14.53,-27.064,-38.243,-31.915,-27.802,-29.357,-22.544,-34.371,-57.027,-116.07,14.668,-14.125,-43.476,-97.174,41.067,-0.3405
-14.53,-27.064,-38.243,-31.915,-27.802,-29.357,-22.544,-34.371,-57.027,-116.07,14.668,-14.125,-43.476,-97.174,41.067,-0.3405
-14.359,-27.04,-38.077,-31.945,-27.592,-29.124,-22.385,-34.237,-56.284,-115.88,14.854,-14.063,-42.881,-97.006,41.139,-0.12338
-14.359,-27.04,-38.077,-31.945,-27.592,-29.124,-22.385,-34.237,-56.284,-115.88,14.854,-14.063,-42.881,-97.006,41.139,-0.12338
-14.188,-27.017,-37.91,-31.974,-27.382,-28.893,-22.227,-34.102,-55.538,-115.7,15.04,-14.003,-42.287,-96.837,41.21,0.091929
-14.188,-27.017,-37.91,-31.974,-27.382,-28.893,-22.227,-34.102,-55.538,-115.7,15.04,-14.003,-42.287,-96.837,41.21,0.091929
-14.018,-26.995,-37.743,-32.003,-27.173,-28.662,-22.069,-33.968,-54.792,-115.51,15.224,-13.945,-41.692,-96.666,41.278,0.30543
-14.018,-26.995,-37.743,-32.003,-27.173,-28.662,-22.069,-33.968,-54.792,-115.51,15.224,-13.945,-41.692,-96.666,41.278,0.30543
-13.848,-26.973,-37.576,-32.03,-26.965,-28.432,-21.912,-33.835,-54.043,-115.32,15.407,-13.888,-41.098,-96.495,41.346,0.51712
-13.848,-26.973,-37.576,-32.03,-26.965,-28.432,-21.912,-33.835,-54.043,-115.32,15.407,-13.888,-41.098,-96.495,41.346,0.51712
-13.678,-26.952,-37.408,-32.056,-26.757,-28.203,-21.755,-33.701,-53.294,-115.13,15.589,-13.832,-40.504,-96.322,41.411,0.727
-13.678,-26.952,-37.408,-32.056,-26.757,-28.203,-21.755,-33.701,-53.294,-115.13,15.589,-13.832,-40.504,-96.322,41.411,0.727
-13.678,-26.952,-37.408,-32.056,-26.757,-28.203,-21.755,-33.701,-53.294,-115.13,15.589,-13.832,-40.504,-96.322,41.411,0.727
-13.678,-26.952,-37.408,-32.056,-26.757,-28.203,-21.755,-33.701,-53.294,-115.13,15.589,-13.832,-40.504,-96.322,41.411,0.727
-13.509,-26.932,-37.241,-32.082,-26.55,-27.974,-21.599,-33.568,-52.543,-114.94,15.77,-13.778,-39.91,-96.148,41.475,0.93504
-13.34,-26.912,-37.074,-32.107,-26.344,-27.747,-21.443,-33.436,-51.79,-114.75,15.95,-13.726,-39.316,-95.974,41.537,1.1413
-13.34,-26.912,-37.074,-32.107,-26.344,-27.747,-21.443,-33.436,-51.79,-114.75,15.95,-13.726,-39.316,-95.974,41.537,1.1413
-13.172,-26.893,-36.907,-32.131,-26.138,-27.52,-21.287,-33.304,-51.037,-114.56,16.129,-13.675,-38.723,-95.798,41.598,1.3456
-13.003,-26.875,-36.739,-32.154,-25.933,-27.294,-21.132,-33.172,-50.281,-114.36,16.306,-13.625,-38.129,-95.62,41.657,1.5482
-13.003,-26.875,-36.739,-32.154,-25.933,-27.294,-21.132,-33.172,-50.281,-114.36,16.306,-13.625,-38.129,-95.62,41.657,1.5482
-12.835,-26.858,-36.572,-32.176,-25.729,-27.069,-20.978,-33.04,-49.525,-114.17,16.483,-13.577,-37.536,-95.442,41.714,1.7489
-12.835,-26.858,-36.572,-32.176,-25.729,-27.069,-20.978,-33.04,-49.525,-114.17,16.483,-13.577,-37.536,-95.442,41.714,1.7489
-12.835,-26.858,-36.572,-32.176,-25.729,-27.069,-20.978,-33.04,-49.525,-114.17,16.483,-13.577,-37.536,-95.442,41.714,1.7489
-12.668,-26.841,-36.404,-32.197,-25.525,-26.845,-20.824,-32.909,-48.767,-113.97,16.658,-13.53,-36.943,-95.263,41.77,1.9478
-12.668,-26.841,-36.404,-32.197,-25.525,-26.845,-20.824,-32.909,-48.767,-113.97,16.658,-13.53,-36.943,-95.263,41.77,1.9478
-12.668,-26.841,-36.404,-32.197,-25.525,-26.845,-20.824,-32.909,-48.767,-113.97,16.658,-13.53,-36.943,-95.263,41.77,1.9478
-12.334,-26.81,-36.069,-32.238,-25.12,-26.399,-20.517,-32.648,-47.248,-113.57,17.005,-13.442,-35.757,-94.901,41.876,2.34
-12.334,-26.81,-36.069,-32.238,-25.12,-26.399,-20.517,-32.648,-47.248,-113.57,17.005,-13.442,-35.757,-94.901,41.876,2.34
-12.334,-26.81,-36.069,-32.238,-25.12,-26.399,-20.517,-32.648,-47.248,-113.57,17.005,-13.442,-35.757,-94.901,41.876,2.34
-12.167,-26.796,-35.901,-32.256,-24.919,-26.178,-20.364,-32.518,-46.486,-113.37,17.177,-13.399,-35.165,-94.718,41.927,2.5333
-12.167,-26.796,-35.901,-32.256,-24.919,-26.178,-20.364,-32.518,-46.486,-113.37,17.177,-13.399,-35.165,-94.718,41.927,2.5333
-12.167,-26.796,-35.901,-32.256,-24.919,-26.178,-20.364,-32.518,-46.486,-113.37,17.177,-13.399,-35.165,-94.718,41.927,2.5333
-11.836,-26.769,-35.565,-32.291,-24.518,-25.737,-20.06,-32.259,-44.959,-112.96,17.517,-13.319,-33.98,-94.35,42.024,2.9143
-11.836,-26.769,-35.565,-32.291,-24.518,-25.737,-20.06,-32.259,-44.959,-112.96,17.517,-13.319,-33.98,-94.35,42.024,2.9143
-11.836,-26.769,-35.565,-32.291,-24.518,-25.737,-20.06,-32.259,-44.959,-112.96,17.517,-13.319,-33.98,-94.35,42.024,2.9143
-11.67,-26.756,-35.397,-32.308,-24.319,-25.518,-19.909,-32.13,-44.194,-112.76,17.686,-13.282,-33.389,-94.164,42.07,3.1021
-11.67,-26.756,-35.397,-32.308,-24.319,-25.518,-19.909,-32.13,-44.194,-112.76,17.686,-13.282,-33.389,-94.164,42.07,3.1021
-11.505,-26.745,-35.228,-32.323,-24.12,-25.3,-19.758,-32.001,-43.427,-112.55,17.853,-13.245,-32.797,-93.977,42.114,3.2879
-11.505,-26.745,-35.228,-32.323,-24.12,-25.3,-19.758,-32.001,-43.427,-112.55,17.853,-13.245,-32.797,-93.977,42.114,3.2879
-11.505,-26.745,-35.228,-32.323,-24.12,-25.3,-19.758,-32.001,-43.427,-112.55,17.853,-13.245,-32.797,-93.977,42.114,3.2879
-11.176,-26.723,-34.891,-32.351,-23.725,-24.867,-19.457,-31.745,-41.891,-112.14,18.185,-13.177,-31.615,-93.6,42.198,3.6541
-11.176,-26.723,-34.891,-32.351,-23.725,-24.867,-19.457,-31.745,-41.891,-112.14,18.185,-13.177,-31.615,-93.6,42.198,3.6541
-11.012,-26.714,-34.722,-32.364,-23.528,-24.651,-19.307,-31.618,-41.121,-111.93,18.349,-13.145,-31.024,-93.41,42.237,3.8343
-11.012,-26.714,-34.722,-32.364,-23.528,-24.651,-19.307,-31.618,-41.121,-111.93,18.349,-13.145,-31.024,-93.41,42.237,3.8343
-11.012,-26.714,-34.722,-32.364,-23.528,-24.651,-19.307,-31.618,-41.121,-111.93,18.349,-13.145,-31.024,-93.41,42.237,3.8343
-10.849,-26.705,-34.553,-32.375,-23.332,-24.437,-19.158,-31.49,-40.35,-111.71,18.512,-13.115,-30.433,-93.218,42.275,4.0127
-10.849,-26.705,-34.553,-32.375,-23.332,-24.437,-19.158,-31.49,-40.35,-111.71,18.512,-13.115,-30.433,-93.218,42.275,4.0127
-10.685,-26.697,-34.384,-32.386,-23.137,-24.223,-19.009,-31.364,-39.578,-111.5,18.674,-13.086,-29.843,-93.026,42.311,4.1893
-10.522,-26.689,-34.215,-32.396,-22.942,-24.01,-18.861,-31.237,-38.804,-111.29,18.834,-13.059,-29.253,-92.833,42.345,4.3639
-10.522,-26.689,-34.215,-32.396,-22.942,-24.01,-18.861,-31.237,-38.804,-111.29,18.834,-13.059,-29.253,-92.833,42.345,4.3639
-10.36,-26.682,-34.046,-32.406,-22.748,-23.799,-18.713,-31.111,-38.03,-111.07,18.994,-13.033,-28.664,-92.639,42.378,4.5367
-10.36,-26.682,-34.046,-32.406,-22.748,-23.799,-18.713,-31.111,-38.03,-111.07,18.994,-13.033,-28.664,-92.639,42.378,4.5367
-10.198,-26.676,-33.876,-32.414,-22.555,-23.588,-18.565,-30.985,-37.254,-110.86,19.153,-13.008,-28.074,-92.443,42.409,4.7076
-10.198,-26.676,-33.876,-32.414,-22.555,-23.588,-18.565,-30.985,-37.254,-110.86,19.153,-13.008,-28.074,-92.443,42.409,4.7076
-10.198,-26.676,-33.876,-32.414,-22.555,-23.588,-18.565,-30.985,-37.254,-110.86,19.153,-13.008,-28.074,-92.443,42.409,4.7076
-10.036,-26.671,-33.706,-32.421,-22.363,-23.378,-18.418,-30.86,-36.478,-110.64,19.31,-12.985,-27.485,-92.247,42.439,4.8766
-10.036,-26.671,-33.706,-32.421,-22.363,-23.378,-18.418,-30.86,-36.478,-110.64,19.31,-12.985,-27.485,-92.247,42.439,4.8766
-9.8743,-26.666,-33.537,-32.428,-22.171,-23.169,-18.271,-30.735,-35.7,-110.42,19.467,-12.963,-26.897,-92.049,42.467,5.0438
-9.8743,-26.666,-33.537,-32.428,-22.171,-23.169,-18.271,-30.735,-35.7,-110.42,19.467,-12.963,-26.897,-92.049,42.467,5.0438
-9.7131,-26.662,-33.366,-32.433,-21.98,-22.961,-18.124,-30.61,-34.922,-110.2,19.622,-12.943,-26.308,-91.851,42.494,5.2091
-9.7131,-26.662,-33.366,-32.433,-21.98,-22.961,-18.124,-30.61,-34.922,-110.2,19.622,-12.943,-26.308,-91.851,42.494,5.2091
-9.7131,-26.662,-33.366,-32.433,-21.98,-22.961,-18.124,-30.61,-34.922,-110.2,19.622,-12.943,-26.308,-91.851,42.494,5.2091
-9.3918,-26.655,-33.026,-32.442,-21.599,-22.547,-17.832,-30.362,-33.362,-109.76,19.929,-12.907,-25.133,-91.451,42.542,5.5341
-9.3918,-26.655,-33.026,-32.442,-21.599,-22.547,-17.832,-30.362,-33.362,-109.76,19.929,-12.907,-25.133,-91.451,42.542,5.5341
-9.3918,-26.655,-33.026,-32.442,-21.599,-22.547,-17.832,-30.362,-33.362,-109.76,19.929,-12.907,-25.133,-91.451,42.542,5.5341
-9.2316,-26.653,-32.855,-32.445,-21.41,-22.342,-17.687,-30.238,-32.581,-109.53,20.081,-12.891,-24.545,-91.249,42.564,5.6937
-9.2316,-26.653,-32.855,-32.445,-21.41,-22.342,-17.687,-30.238,-32.581,-109.53,20.081,-12.891,-24.545,-91.249,42.564,5.6937
-9.0718,-26.651,-32.684,-32.447,-21.221,-22.137,-17.542,-30.115,-31.799,-109.31,20.232,-12.877,-23.958,-91.047,42.584,5.8515
-8.9124,-26.651,-32.513,-32.448,-21.034,-21.934,-17.397,-29.992,-31.016,-109.08,20.382,-12.864,-23.372,-90.844,42.602,6.0075
-8.9124,-26.651,-32.513,-32.448,-21.034,-21.934,-17.397,-29.992,-31.016,-109.08,20.382,-12.864,-23.372,-90.844,42.602,6.0075
-8.7533,-26.65,-32.342,-32.448,-20.846,-21.731,-17.253,-29.869,-30.232,-108.86,20.531,-12.852,-22.786,-90.639,42.619,6.1615
-8.7533,-26.65,-32.342,-32.448,-20.846,-21.731,-17.253,-29.869,-30.232,-108.86,20.531,-12.852,-22.786,-90.639,42.619,6.1615
-8.5945,-26.651,-32.17,-32.448,-20.66,-21.53,-17.109,-29.747,-29.447,-108.63,20.679,-12.842,-22.2,-90.434,42.635,6.3137
-8.5945,-26.651,-32.17,-32.448,-20.66,-21.53,-17.109,-29.747,-29.447,-108.63,20.679,-12.842,-22.2,-90.434,42.635,6.3137
-8.4361,-26.652,-31.998,-32.446,-20.474,-21.329,-16.965,-29.625,-28.661,-108.4,20.826,-12.833,-21.615,-90.227,42.648,6.4641
-8.4361,-26.652,-31.998,-32.446,-20.474,-21.329,-16.965,-29.625,-28.661,-108.4,20.826,-12.833,-21.615,-90.227,42.648,6.4641
-8.4361,-26.652,-31.998,-32.446,-20.474,-21.329,-16.965,-29.625,-28.661,-108.4,20.826,-12.833,-21.615,-90.227,42.648,6.4641
-8.278,-26.653,-31.827,-32.444,-20.289,-21.129,-16.822,-29.503,-27.875,-108.17,20.972,-12.826,-21.03,-90.02,42.661,6.6126
-8.278,-26.653,-31.827,-32.444,-20.289,-21.129,-16.822,-29.503,-27.875,-108.17,20.972,-12.826,-21.03,-90.02,42.661,6.6126
-8.278,-26.653,-31.827,-32.444,-20.289,-21.129,-16.822,-29.503,-27.875,-108.17,20.972,-12.826,-21.03,-90.02,42.661,6.6126
-8.278,-26.653,-31.827,-32.444,-20.289,-21.129,-16.822,-29.503,-27.875,-108.17,20.972,-12.826,-21.03,-90.02,42.661,6.6126
-7.9628,-26.658,-31.482,-32.436,-19.92,-20.733,-16.536,-29.261,-26.3,-107.7,21.26,-12.815,-19.861,-89.602,42.68,6.9039
-7.9628,-26.658,-31.482,-32.436,-19.92,-20.733,-16.536,-29.261,-26.3,-107.7,21.26,-12.815,-19.861,-89.602,42.68,6.9039
-7.9628,-26.658,-31.482,-32.436,-19.92,-20.733,-16.536,-29.261,-26.3,-107.7,21.26,-12.815,-19.861,-89.602,42.68,6.9039
-7.649,-26.665,-31.136,-32.425,-19.555,-20.34,-16.251,-29.02,-24.722,-107.24,21.544,-12.81,-18.694,-89.18,42.694,7.1879
-7.649,-26.665,-31.136,-32.425,-19.555,-20.34,-16.251,-29.02,-24.722,-107.24,21.544,-12.81,-18.694,-89.18,42.694,7.1879
-7.4926,-26.67,-30.963,-32.418,-19.373,-20.145,-16.11,-28.899,-23.932,-107,21.685,-12.809,-18.111,-88.968,42.698,7.3271
-7.4926,-26.67,-30.963,-32.418,-19.373,-20.145,-16.11,-28.899,-23.932,-107,21.685,-12.809,-18.111,-88.968,42.698,7.3271
-7.3365,-26.675,-30.79,-32.41,-19.191,-19.951,-15.968,-28.78,-23.141,-106.76,21.824,-12.81,-17.529,-88.755,42.701,7.4644
-7.3365,-26.675,-30.79,-32.41,-19.191,-19.951,-15.968,-28.78,-23.141,-106.76,21.824,-12.81,-17.529,-88.755,42.701,7.4644
-7.1807,-26.681,-30.616,-32.401,-19.011,-19.758,-15.827,-28.66,-22.35,-106.52,21.963,-12.812,-16.947,-88.541,42.703,7.6
-7.1807,-26.681,-30.616,-32.401,-19.011,-19.758,-15.827,-28.66,-22.35,-106.52,21.963,-12.812,-16.947,-88.541,42.703,7.6
-7.1807,-26.681,-30.616,-32.401,-19.011,-19.758,-15.827,-28.66,-22.35,-106.52,21.963,-12.812,-16.947,-88.541,42.703,7.6
-7.1807,-26.681,-30.616,-32.401,-19.011,-19.758,-15.827,-28.66,-22.35,-106.52,21.963,-12.812,-16.947,-88.541,42.703,7.6
-6.8702,-26.694,-30.268,-32.381,-18.651,-19.374,-15.546,-28.422,-20.766,-106.05,22.237,-12.82,-15.784,-88.11,42.701,7.8655
-6.8702,-26.694,-30.268,-32.381,-18.651,-19.374,-15.546,-28.422,-20.766,-106.05,22.237,-12.82,-15.784,-88.11,42.701,7.8655
-6.7154,-26.701,-30.093,-32.369,-18.472,-19.184,-15.405,-28.304,-19.973,-105.8,22.373,-12.827,-15.204,-87.893,42.698,7.9955
-6.7154,-26.701,-30.093,-32.369,-18.472,-19.184,-15.405,-28.304,-19.973,-105.8,22.373,-12.827,-15.204,-87.893,42.698,7.9955
-6.561,-26.709,-29.918,-32.356,-18.294,-18.994,-15.265,-28.185,-19.179,-105.56,22.507,-12.834,-14.624,-87.675,42.693,8.1237
-6.561,-26.709,-29.918,-32.356,-18.294,-18.994,-15.265,-28.185,-19.179,-105.56,22.507,-12.834,-14.624,-87.675,42.693,8.1237
-6.4069,-26.718,-29.743,-32.343,-18.117,-18.806,-15.126,-28.067,-18.385,-105.32,22.641,-12.843,-14.044,-87.456,42.687,8.25
-6.4069,-26.718,-29.743,-32.343,-18.117,-18.806,-15.126,-28.067,-18.385,-105.32,22.641,-12.843,-14.044,-87.456,42.687,8.25
-6.4069,-26.718,-29.743,-32.343,-18.117,-18.806,-15.126,-28.067,-18.385,-105.32,22.641,-12.843,-14.044,-87.456,42.687,8.25
-6.2531,-26.727,-29.568,-32.328,-17.94,-18.619,-14.986,-27.949,-17.59,-105.07,22.773,-12.853,-13.465,-87.236,42.679,8.3746
-6.2531,-26.727,-29.568,-32.328,-17.94,-18.619,-14.986,-27.949,-17.59,-105.07,22.773,-12.853,-13.465,-87.236,42.679,8.3746
-6.0996,-26.736,-29.392,-32.313,-17.764,-18.432,-14.847,-27.832,-16.795,-104.83,22.905,-12.864,-12.887,-87.016,42.67,8.4973
-5.9465,-26.746,-29.216,-32.297,-17.588,-18.246,-14.708,-27.715,-16,-104.58,23.035,-12.877,-12.309,-86.794,42.659,8.6182
-5.9465,-26.746,-29.216,-32.297,-17.588,-18.246,-14.708,-27.715,-16,-104.58,23.035,-12.877,-12.309,-86.794,42.659,8.6182
-5.7936,-26.757,-29.04,-32.28,-17.413,-18.062,-14.569,-27.598,-15.204,-104.34,23.165,-12.891,-11.731,-86.572,42.647,8.7373
-5.7936,-26.757,-29.04,-32.28,-17.413,-18.062,-14.569,-27.598,-15.204,-104.34,23.165,-12.891,-11.731,-86.572,42.647,8.7373
-5.6411,-26.768,-28.863,-32.261,-17.238,-17.878,-14.431,-27.481,-14.408,-104.09,23.294,-12.906,-11.154,-86.349,42.634,8.8546
-5.6411,-26.768,-28.863,-32.261,-17.238,-17.878,-14.431,-27.481,-14.408,-104.09,23.294,-12.906,-11.154,-86.349,42.634,8.8546
-5.6411,-26.768,-28.863,-32.261,-17.238,-17.878,-14.431,-27.481,-14.408,-104.09,23.294,-12.906,-11.154,-86.349,42.634,8.8546
-5.4889,-26.779,-28.686,-32.242,-17.065,-17.695,-14.293,-27.365,-13.611,-103.84,23.421,-12.922,-10.578,-86.124,42.618,8.9701
-5.4889,-26.779,-28.686,-32.242,-17.065,-17.695,-14.293,-27.365,-13.611,-103.84,23.421,-12.922,-10.578,-86.124,42.618,8.9701
-5.3371,-26.791,-28.509,-32.222,-16.891,-17.513,-14.155,-27.249,-12.814,-103.59,23.548,-12.94,-10.002,-85.899,42.602,9.0839
-5.3371,-26.791,-28.509,-32.222,-16.891,-17.513,-14.155,-27.249,-12.814,-103.59,23.548,-12.94,-10.002,-85.899,42.602,9.0839
-5.1855,-26.804,-28.332,-32.201,-16.719,-17.332,-14.017,-27.133,-12.017,-103.34,23.674,-12.959,-9.427,-85.674,42.584,9.1958
-5.1855,-26.804,-28.332,-32.201,-16.719,-17.332,-14.017,-27.133,-12.017,-103.34,23.674,-12.959,-9.427,-85.674,42.584,9.1958
-5.0342,-26.817,-28.154,-32.179,-16.547,-17.152,-13.879,-27.017,-11.219,-103.08,23.799,-12.979,-8.8523,-85.447,42.564,9.306
-5.0342,-26.817,-28.154,-32.179,-16.547,-17.152,-13.879,-27.017,-11.219,-103.08,23.799,-12.979,-8.8523,-85.447,42.564,9.306
-5.0342,-26.817,-28.154,-32.179,-16.547,-17.152,-13.879,-27.017,-11.219,-103.08,23.799,-12.979,-8.8523,-85.447,42.564,9.306
-4.8833,-26.83,-27.976,-32.157,-16.375,-16.973,-13.742,-26.902,-10.421,-102.83,23.923,-13,-8.2783,-85.219,42.543,9.4144
-4.7327,-26.844,-27.797,-32.133,-16.205,-16.795,-13.605,-26.787,-9.6234,-102.58,24.045,-13.022,-7.7048,-84.991,42.521,9.521
-4.5824,-26.858,-27.618,-32.108,-16.034,-16.618,-13.468,-26.672,-8.8251,-102.32,24.168,-13.046,-7.1319,-84.761,42.497,9.6259
-4.5824,-26.858,-27.618,-32.108,-16.034,-16.618,-13.468,-26.672,-8.8251,-102.32,24.168,-13.046,-7.1319,-84.761,42.497,9.6259
-4.4324,-26.873,-27.439,-32.082,-15.865,-16.442,-13.332,-26.558,-8.0266,-102.07,24.289,-13.071,-6.5596,-84.531,42.472,9.729
-4.4324,-26.873,-27.439,-32.082,-15.865,-16.442,-13.332,-26.558,-8.0266,-102.07,24.289,-13.071,-6.5596,-84.531,42.472,9.729
-4.2827,-26.888,-27.26,-32.056,-15.696,-16.266,-13.195,-26.443,-7.228,-101.81,24.409,-13.097,-5.9879,-84.3,42.445,9.8304
-4.1333,-26.904,-27.08,-32.028,-15.527,-16.092,-13.059,-26.329,-6.4293,-101.55,24.528,-13.124,-5.4169,-84.069,42.417,9.93
-4.1333,-26.904,-27.08,-32.028,-15.527,-16.092,-13.059,-26.329,-6.4293,-101.55,24.528,-13.124,-5.4169,-84.069,42.417,9.93
-3.9842,-26.92,-26.899,-32,-15.359,-15.918,-12.923,-26.215,-5.6305,-101.29,24.646,-13.152,-4.8465,-83.836,42.387,10.028
-3.9842,-26.92,-26.899,-32,-15.359,-15.918,-12.923,-26.215,-5.6305,-101.29,24.646,-13.152,-4.8465,-83.836,42.387,10.028
-3.9842,-26.92,-26.899,-32,-15.359,-15.918,-12.923,-26.215,-5.6305,-101.29,24.646,-13.152,-4.8465,-83.836,42.387,10.028
-3.9842,-26.92,-26.899,-32,-15.359,-15.918,-12.923,-26.215,-5.6305,-101.29,24.646,-13.152,-4.8465,-83.836,42.387,10.028
-3.8354,-26.936,-26.719,-31.97,-15.192,-15.746,-12.787,-26.101,-4.8316,-101.03,24.764,-13.182,-4.2767,-83.602,42.356,10.124
-3.8354,-26.936,-26.719,-31.97,-15.192,-15.746,-12.787,-26.101,-4.8316,-101.03,24.764,-13.182,-4.2767,-83.602,42.356,10.124
-3.6869,-26.953,-26.538,-31.94,-15.025,-15.574,-12.651,-25.988,-4.0327,-100.77,24.88,-13.212,-3.7076,-83.368,42.324,10.219
-3.5387,-26.97,-26.357,-31.908,-14.859,-15.403,-12.516,-25.875,-3.2337,-100.51,24.996,-13.244,-3.1391,-83.133,42.29,10.311
-3.5387,-26.97,-26.357,-31.908,-14.859,-15.403,-12.516,-25.875,-3.2337,-100.51,24.996,-13.244,-3.1391,-83.133,42.29,10.311
-3.3909,-26.988,-26.175,-31.876,-14.694,-15.233,-12.381,-25.761,-2.4348,-100.25,25.111,-13.277,-2.5713,-82.897,42.255,10.402
-3.3909,-26.988,-26.175,-31.876,-14.694,-15.233,-12.381,-25.761,-2.4348,-100.25,25.111,-13.277,-2.5713,-82.897,42.255,10.402
-3.3909,-26.988,-26.175,-31.876,-14.694,-15.233,-12.381,-25.761,-2.4348,-100.25,25.111,-13.277,-2.5713,-82.897,42.255,10.402
-3.2433,-27.006,-25.993,-31.843,-14.528,-15.064,-12.246,-25.649,-1.6359,-99.988,25.225,-13.31,-2.0042,-82.661,42.218,10.492
-3.2433,-27.006,-25.993,-31.843,-14.528,-15.064,-12.246,-25.649,-1.6359,-99.988,25.225,-13.31,-2.0042,-82.661,42.218,10.492
-3.2433,-27.006,-25.993,-31.843,-14.528,-15.064,-12.246,-25.649,-1.6359,-99.988,25.225,-13.31,-2.0042,-82.661,42.218,10.492
-3.096,-27.024,-25.811,-31.809,-14.364,-14.896,-12.111,-25.536,-0.83712,-99.724,25.338,-13.345,-1.4377,-82.423,42.18,10.579
-3.096,-27.024,-25.811,-31.809,-14.364,-14.896,-12.111,-25.536,-0.83712,-99.724,25.338,-13.345,-1.4377,-82.423,42.18,10.579
-2.8023,-27.061,-25.445,-31.737,-14.037,-14.563,-11.841,-25.311,0.76018,-99.195,25.561,-13.418,-0.30692,-81.946,42.1,10.75
-2.8023,-27.061,-25.445,-31.737,-14.037,-14.563,-11.841,-25.311,0.76018,-99.195,25.561,-13.418,-0.30692,-81.946,42.1,10.75
-2.6559,-27.081,-25.261,-31.7,-13.874,-14.397,-11.707,-25.199,1.5586,-98.929,25.672,-13.456,0.25743,-81.707,42.058,10.832
-2.6559,-27.081,-25.261,-31.7,-13.874,-14.397,-11.707,-25.199,1.5586,-98.929,25.672,-13.456,0.25743,-81.707,42.058,10.832
-2.5098,-27.1,-25.077,-31.662,-13.711,-14.233,-11.572,-25.087,2.3569,-98.662,25.781,-13.495,0.82106,-81.466,42.014,10.913
-2.5098,-27.1,-25.077,-31.662,-13.711,-14.233,-11.572,-25.087,2.3569,-98.662,25.781,-13.495,0.82106,-81.466,42.014,10.913
-2.364,-27.12,-24.893,-31.623,-13.55,-14.069,-11.438,-24.975,3.1549,-98.394,25.89,-13.535,1.384,-81.225,41.97,10.992
-2.364,-27.12,-24.893,-31.623,-13.55,-14.069,-11.438,-24.975,3.1549,-98.394,25.89,-13.535,1.384,-81.225,41.97,10.992
-2.364,-27.12,-24.893,-31.623,-13.55,-14.069,-11.438,-24.975,3.1549,-98.394,25.89,-13.535,1.384,-81.225,41.97,10.992
-2.2184,-27.14,-24.708,-31.583,-13.388,-13.907,-11.304,-24.864,3.9527,-98.126,25.998,-13.576,1.9461,-80.983,41.924,11.07
-2.0732,-27.161,-24.523,-31.542,-13.228,-13.745,-11.17,-24.752,4.7502,-97.857,26.105,-13.618,2.5076,-80.741,41.876,11.146
-2.0732,-27.161,-24.523,-31.542,-13.228,-13.745,-11.17,-24.752,4.7502,-97.857,26.105,-13.618,2.5076,-80.741,41.876,11.146
-1.9282,-27.181,-24.338,-31.501,-13.068,-13.584,-11.037,-24.641,5.5474,-97.587,26.211,-13.661,3.0682,-80.497,41.827,11.221
-1.9282,-27.181,-24.338,-31.501,-13.068,-13.584,-11.037,-24.641,5.5474,-97.587,26.211,-13.661,3.0682,-80.497,41.827,11.221
-1.7836,-27.202,-24.152,-31.458,-12.908,-13.424,-10.903,-24.53,6.3443,-97.317,26.316,-13.705,3.6282,-80.253,41.777,11.293
-1.7836,-27.202,-24.152,-31.458,-12.908,-13.424,-10.903,-24.53,6.3443,-97.317,26.316,-13.705,3.6282,-80.253,41.777,11.293
-1.7836,-27.202,-24.152,-31.458,-12.908,-13.424,-10.903,-24.53,6.3443,-97.317,26.316,-13.705,3.6282,-80.253,41.777,11.293
-1.6392,-27.224,-23.966,-31.414,-12.749,-13.265,-10.769,-24.419,7.1408,-97.046,26.421,-13.75,4.1873,-80.009,41.726,11.365
-1.6392,-27.224,-23.966,-31.414,-12.749,-13.265,-10.769,-24.419,7.1408,-97.046,26.421,-13.75,4.1873,-80.009,41.726,11.365
-1.6392,-27.224,-23.966,-31.414,-12.749,-13.265,-10.769,-24.419,7.1408,-97.046,26.421,-13.75,4.1873,-80.009,41.726,11.365
-1.3513,-27.267,-23.592,-31.324,-12.432,-12.949,-10.503,-24.198,8.7327,-96.501,26.628,-13.842,5.3032,-79.517,41.619,11.502
-1.3513,-27.267,-23.592,-31.324,-12.432,-12.949,-10.503,-24.198,8.7327,-96.501,26.628,-13.842,5.3032,-79.517,41.619,11.502
-1.2077,-27.289,-23.405,-31.277,-12.275,-12.792,-10.37,-24.087,9.5279,-96.228,26.73,-13.889,5.86,-79.27,41.564,11.569
-1.2077,-27.289,-23.405,-31.277,-12.275,-12.792,-10.37,-24.087,9.5279,-96.228,26.73,-13.889,5.86,-79.27,41.564,11.569
-1.0645,-27.311,-23.217,-31.23,-12.118,-12.636,-10.237,-23.977,10.323,-95.954,26.831,-13.938,6.416,-79.023,41.507,11.634
-1.0645,-27.311,-23.217,-31.23,-12.118,-12.636,-10.237,-23.977,10.323,-95.954,26.831,-13.938,6.416,-79.023,41.507,11.634
-0.92153,-27.333,-23.029,-31.181,-11.961,-12.481,-10.104,-23.867,11.117,-95.679,26.932,-13.987,6.9711,-78.775,41.449,11.697
-0.92153,-27.333,-23.029,-31.181,-11.961,-12.481,-10.104,-23.867,11.117,-95.679,26.932,-13.987,6.9711,-78.775,41.449,11.697
-0.92153,-27.333,-23.029,-31.181,-11.961,-12.481,-10.104,-23.867,11.117,-95.679,26.932,-13.987,6.9711,-78.775,41.449,11.697
-0.77883,-27.356,-22.841,-31.132,-11.805,-12.327,-9.971,-23.756,11.911,-95.404,27.032,-14.037,7.5254,-78.526,41.39,11.759
-0.63642,-27.379,-22.652,-31.081,-11.649,-12.174,-9.8383,-23.646,12.704,-95.128,27.13,-14.088,8.0789,-78.276,41.33,11.819
-0.63642,-27.379,-22.652,-31.081,-11.649,-12.174,-9.8383,-23.646,12.704,-95.128,27.13,-14.088,8.0789,-78.276,41.33,11.819
-0.63642,-27.379,-22.652,-31.081,-11.649,-12.174,-9.8383,-23.646,12.704,-95.128,27.13,-14.088,8.0789,-78.276,41.33,11.819
-0.49428,-27.402,-22.462,-31.03,-11.494,-12.022,-9.7057,-23.537,13.496,-94.851,27.229,-14.14,8.6316,-78.026,41.268,11.878
-0.49428,-27.402,-22.462,-31.03,-11.494,-12.022,-9.7057,-23.537,13.496,-94.851,27.229,-14.14,8.6316,-78.026,41.268,11.878
-0.49428,-27.402,-22.462,-31.03,-11.494,-12.022,-9.7057,-23.537,13.496,-94.851,27.229,-14.14,8.6316,-78.026,41.268,11.878
-0.21083,-27.448,-22.082,-30.925,-11.186,-11.719,-9.4408,-23.317,15.08,-94.296,27.423,-14.246,9.7343,-77.524,41.141,11.991
-0.21083,-27.448,-22.082,-30.925,-11.186,-11.719,-9.4408,-23.317,15.08,-94.296,27.423,-14.246,9.7343,-77.524,41.141,11.991
-0.21083,-27.448,-22.082,-30.925,-11.186,-11.719,-9.4408,-23.317,15.08,-94.296,27.423,-14.246,9.7343,-77.524,41.141,11.991
-0.069516,-27.472,-21.892,-30.871,-11.032,-11.569,-9.3085,-23.208,15.87,-94.018,27.519,-14.3,10.284,-77.272,41.076,12.045
-0.069516,-27.472,-21.892,-30.871,-11.032,-11.569,-9.3085,-23.208,15.87,-94.018,27.519,-14.3,10.284,-77.272,41.076,12.045
0.071524,-27.495,-21.701,-30.816,-10.879,-11.42,-9.1762,-23.098,16.66,-93.739,27.614,-14.355,10.833,-77.02,41.009,12.097
0.071524,-27.495,-21.701,-30.816,-10.879,-11.42,-9.1762,-23.098,16.66,-93.739,27.614,-14.355,10.833,-77.02,41.009,12.097
0.071524,-27.495,-21.701,-30.816,-10.879,-11.42,-9.1762,-23.098,16.66,-93.739,27.614,-14.355,10.833,-77.02,41.009,12.097
0.35279,-27.543,-21.318,-30.703,-10.574,-11.125,-8.912,-22.88,18.238,-93.179,27.802,-14.467,11.929,-76.513,40.872,12.198
0.35279,-27.543,-21.318,-30.703,-10.574,-11.125,-8.912,-22.88,18.238,-93.179,27.802,-14.467,11.929,-76.513,40.872,12.198
0.49302,-27.567,-21.126,-30.645,-10.423,-10.978,-8.78,-22.77,19.025,-92.899,27.895,-14.524,12.476,-76.259,40.802,12.247
0.49302,-27.567,-21.126,-30.645,-10.423,-10.978,-8.78,-22.77,19.025,-92.899,27.895,-14.524,12.476,-76.259,40.802,12.247
0.63297,-27.591,-20.933,-30.586,-10.272,-10.832,-8.6481,-22.661,19.812,-92.617,27.987,-14.582,13.021,-76.004,40.731,12.294
0.63297,-27.591,-20.933,-30.586,-10.272,-10.832,-8.6481,-22.661,19.812,-92.617,27.987,-14.582,13.021,-76.004,40.731,12.294
0.77266,-27.615,-20.74,-30.526,-10.121,-10.687,-8.5162,-22.552,20.597,-92.336,28.078,-14.64,13.566,-75.748,40.658,12.339
0.77266,-27.615,-20.74,-30.526,-10.121,-10.687,-8.5162,-22.552,20.597,-92.336,28.078,-14.64,13.566,-75.748,40.658,12.339
0.91208,-27.639,-20.547,-30.466,-9.9706,-10.543,-8.3844,-22.443,21.382,-92.053,28.169,-14.699,14.109,-75.492,40.584,12.383
0.91208,-27.639,-20.547,-30.466,-9.9706,-10.543,-8.3844,-22.443,21.382,-92.053,28.169,-14.699,14.109,-75.492,40.584,12.383
0.91208,-27.639,-20.547,-30.466,-9.9706,-10.543,-8.3844,-22.443,21.382,-92.053,28.169,-14.699,14.109,-75.492,40.584,12.383
1.0512,-27.663,-20.353,-30.404,-9.8208,-10.399,-8.2527,-22.335,22.166,-91.77,28.259,-14.759,14.652,-75.236,40.509,12.425
1.1901,-27.688,-20.159,-30.342,-9.6715,-10.257,-8.1211,-22.226,22.949,-91.487,28.348,-14.82,15.194,-74.979,40.433,12.467
1.1901,-27.688,-20.159,-30.342,-9.6715,-10.257,-8.1211,-22.226,22.949,-91.487,28.348,-14.82,15.194,-74.979,40.433,12.467
1.3287,-27.712,-19.964,-30.278,-9.5226,-10.115,-7.9895,-22.117,23.731,-91.203,28.437,-14.881,15.734,-74.721,40.356,12.506
1.3287,-27.712,-19.964,-30.278,-9.5226,-10.115,-7.9895,-22.117,23.731,-91.203,28.437,-14.881,15.734,-74.721,40.356,12.506
1.3287,-27.712,-19.964,-30.278,-9.5226,-10.115,-7.9895,-22.117,23.731,-91.203,28.437,-14.881,15.734,-74.721,40.356,12.506
1.4671,-27.737,-19.769,-30.214,-9.3742,-9.9734,-7.858,-22.009,24.512,-90.919,28.525,-14.942,16.274,-74.463,40.277,12.545
1.4671,-27.737,-19.769,-30.214,-9.3742,-9.9734,-7.858,-22.009,24.512,-90.919,28.525,-14.942,16.274,-74.463,40.277,12.545
1.6052,-27.761,-19.574,-30.149,-9.2262,-9.8331,-7.7265,-21.9,25.292,-90.634,28.612,-15.005,16.813,-74.204,40.198,12.582
1.6052,-27.761,-19.574,-30.149,-9.2262,-9.8331,-7.7265,-21.9,25.292,-90.634,28.612,-15.005,16.813,-74.204,40.198,12.582
1.743,-27.786,-19.378,-30.083,-9.0787,-9.6935,-7.5951,-21.791,26.071,-90.349,28.699,-15.067,17.351,-73.945,40.117,12.618
1.743,-27.786,-19.378,-30.083,-9.0787,-9.6935,-7.5951,-21.791,26.071,-90.349,28.699,-15.067,17.351,-73.945,40.117,12.618
1.743,-27.786,-19.378,-30.083,-9.0787,-9.6935,-7.5951,-21.791,26.071,-90.349,28.699,-15.067,17.351,-73.945,40.117,12.618
2.0179,-27.835,-18.985,-29.948,-8.7849,-9.4165,-7.3324,-21.574,27.625,-89.778,28.869,-15.195,18.423,-73.425,39.952,12.685
2.0179,-27.835,-18.985,-29.948,-8.7849,-9.4165,-7.3324,-21.574,27.625,-89.778,28.869,-15.195,18.423,-73.425,39.952,12.685
2.0179,-27.835,-18.985,-29.948,-8.7849,-9.4165,-7.3324,-21.574,27.625,-89.778,28.869,-15.195,18.423,-73.425,39.952,12.685
2.1549,-27.859,-18.788,-29.879,-8.6387,-9.2792,-7.2011,-21.466,28.4,-89.491,28.954,-15.259,18.958,-73.165,39.868,12.717
2.1549,-27.859,-18.788,-29.879,-8.6387,-9.2792,-7.2011,-21.466,28.4,-89.491,28.954,-15.259,18.958,-73.165,39.868,12.717
2.1549,-27.859,-18.788,-29.879,-8.6387,-9.2792,-7.2011,-21.466,28.4,-89.491,28.954,-15.259,18.958,-73.165,39.868,12.717
2.4282,-27.908,-18.393,-29.739,-8.3476,-9.0067,-6.9387,-21.249,29.947,-88.917,29.121,-15.39,20.024,-72.642,39.697,12.776
2.4282,-27.908,-18.393,-29.739,-8.3476,-9.0067,-6.9387,-21.249,29.947,-88.917,29.121,-15.39,20.024,-72.642,39.697,12.776
2.4282,-27.908,-18.393,-29.739,-8.3476,-9.0067,-6.9387,-21.249,29.947,-88.917,29.121,-15.39,20.024,-72.642,39.697,12.776
2.5644,-27.933,-18.195,-29.667,-8.2027,-8.8716,-6.8076,-21.141,30.718,-88.63,29.203,-15.456,20.556,-72.38,39.609,12.804
2.7004,-27.957,-17.996,-29.595,-8.0583,-8.7372,-6.6765,-21.033,31.489,-88.342,29.285,-15.522,21.086,-72.118,39.521,12.83
2.7004,-27.957,-17.996,-29.595,-8.0583,-8.7372,-6.6765,-21.033,31.489,-88.342,29.285,-15.522,21.086,-72.118,39.521,12.83
2.8361,-27.981,-17.797,-29.522,-7.9142,-8.6035,-6.5455,-20.925,32.257,-88.053,29.366,-15.589,21.615,-71.855,39.431,12.856
2.8361,-27.981,-17.797,-29.522,-7.9142,-8.6035,-6.5455,-20.925,32.257,-88.053,29.366,-15.589,21.615,-71.855,39.431,12.856
2.9716,-28.006,-17.598,-29.447,-7.7706,-8.4706,-6.4144,-20.816,33.025,-87.764,29.447,-15.656,22.144,-71.591,39.341,12.88
2.9716,-28.006,-17.598,-29.447,-7.7706,-8.4706,-6.4144,-20.816,33.025,-87.764,29.447,-15.656,22.144,-71.591,39.341,12.88
3.1068,-28.03,-17.398,-29.372,-7.6274,-8.3383,-6.2835,-20.708,33.791,-87.475,29.527,-15.724,22.671,-71.328,39.249,12.902
3.1068,-28.03,-17.398,-29.372,-7.6274,-8.3383,-6.2835,-20.708,33.791,-87.475,29.527,-15.724,22.671,-71.328,39.249,12.902
3.1068,-28.03,-17.398,-29.372,-7.6274,-8.3383,-6.2835,-20.708,33.791,-87.475,29.527,-15.724,22.671,-71.328,39.249,12.902
3.2417,-28.054,-17.198,-29.297,-7.4846,-8.2068,-6.1525,-20.6,34.555,-87.186,29.606,-15.792,23.197,-71.064,39.157,12.924
3.2417,-28.054,-17.198,-29.297,-7.4846,-8.2068,-6.1525,-20.6,34.555,-87.186,29.606,-15.792,23.197,-71.064,39.157,12.924
3.3764,-28.078,-16.997,-29.22,-7.3422,-8.076,-6.0217,-20.492,35.319,-86.896,29.684,-15.861,23.722,-70.799,39.063,12.944
3.3764,-28.078,-16.997,-29.22,-7.3422,-8.076,-6.0217,-20.492,35.319,-86.896,29.684,-15.861,23.722,-70.799,39.063,12.944
3.3764,-28.078,-16.997,-29.22,-7.3422,-8.076,-6.0217,-20.492,35.319,-86.896,29.684,-15.861,23.722,-70.799,39.063,12.944
3.3764,-28.078,-16.997,-29.22,-7.3422,-8.076,-6.0217,-20.492,35.319,-86.896,29.684,-15.861,23.722,-70.799,39.063,12.944
3.645,-28.126,-16.595,-29.064,-7.0587,-7.8164,-5.76,-20.275,36.84,-86.316,29.84,-15.999,24.768,-70.269,38.872,12.981
3.645,-28.126,-16.595,-29.064,-7.0587,-7.8164,-5.76,-20.275,36.84,-86.316,29.84,-15.999,24.768,-70.269,38.872,12.981
3.645,-28.126,-16.595,-29.064,-7.0587,-7.8164,-5.76,-20.275,36.84,-86.316,29.84,-15.999,24.768,-70.269,38.872,12.981
3.9125,-28.173,-16.192,-28.904,-6.7768,-7.5596,-5.4984,-20.059,38.356,-85.735,29.992,-16.138,25.81,-69.738,38.678,13.014
3.9125,-28.173,-16.192,-28.904,-6.7768,-7.5596,-5.4984,-20.059,38.356,-85.735,29.992,-16.138,25.81,-69.738,38.678,13.014
4.0459,-28.196,-15.989,-28.823,-6.6365,-7.4323,-5.3677,-19.951,39.111,-85.444,30.068,-16.209,26.329,-69.472,38.579,13.028
4.0459,-28.196,-15.989,-28.823,-6.6365,-7.4323,-5.3677,-19.951,39.111,-85.444,30.068,-16.209,26.329,-69.472,38.579,13.028
4.1791,-28.22,-15.786,-28.742,-6.4965,-7.3056,-5.237,-19.842,39.864,-85.152,30.143,-16.279,26.846,-69.205,38.479,13.042
4.1791,-28.22,-15.786,-28.742,-6.4965,-7.3056,-5.237,-19.842,39.864,-85.152,30.143,-16.279,26.846,-69.205,38.479,13.042
4.3119,-28.243,-15.583,-28.659,-6.357,-7.1795,-5.1063,-19.734,40.616,-84.861,30.217,-16.35,27.363,-68.938,38.378,13.054
4.3119,-28.243,-15.583,-28.659,-6.357,-7.1795,-5.1063,-19.734,40.616,-84.861,30.217,-16.35,27.363,-68.938,38.378,13.054
4.3119,-28.243,-15.583,-28.659,-6.357,-7.1795,-5.1063,-19.734,40.616,-84.861,30.217,-16.35,27.363,-68.938,38.378,13.054
4.4445,-28.266,-15.38,-28.575,-6.2179,-7.0541,-4.9757,-19.626,41.366,-84.569,30.291,-16.421,27.878,-68.671,38.276,13.065
4.4445,-28.266,-15.38,-28.575,-6.2179,-7.0541,-4.9757,-19.626,41.366,-84.569,30.291,-16.421,27.878,-68.671,38.276,13.065
4.5769,-28.288,-15.176,-28.491,-6.0791,-6.9294,-4.8451,-19.518,42.115,-84.277,30.364,-16.492,28.393,-68.404,38.173,13.075
4.5769,-28.288,-15.176,-28.491,-6.0791,-6.9294,-4.8451,-19.518,42.115,-84.277,30.364,-16.492,28.393,-68.404,38.173,13.075
4.7089,-28.311,-14.972,-28.406,-5.9408,-6.8054,-4.7145,-19.409,42.861,-83.985,30.436,-16.564,28.906,-68.136,38.07,13.084
4.8408,-28.333,-14.767,-28.32,-5.8028,-6.682,-4.584,-19.301,43.606,-83.692,30.508,-16.635,29.417,-67.868,37.965,13.091
4.8408,-28.333,-14.767,-28.32,-5.8028,-6.682,-4.584,-19.301,43.606,-83.692,30.508,-16.635,29.417,-67.868,37.965,13.091
4.9723,-28.356,-14.563,-28.233,-5.6653,-6.5592,-4.4534,-19.193,44.349,-83.4,30.579,-16.707,29.928,-67.599,37.859,13.098
4.9723,-28.356,-14.563,-28.233,-5.6653,-6.5592,-4.4534,-19.193,44.349,-83.4,30.579,-16.707,29.928,-67.599,37.859,13.098
5.1036,-28.378,-14.357,-28.146,-5.5281,-6.4371,-4.323,-19.085,45.09,-83.107,30.65,-16.779,30.437,-67.331,37.753,13.104
5.1036,-28.378,-14.357,-28.146,-5.5281,-6.4371,-4.323,-19.085,45.09,-83.107,30.65,-16.779,30.437,-67.331,37.753,13.104
5.2347,-28.399,-14.152,-28.057,-5.3913,-6.3156,-4.1925,-18.976,45.829,-82.814,30.72,-16.852,30.944,-67.062,37.645,13.109
5.2347,-28.399,-14.152,-28.057,-5.3913,-6.3156,-4.1925,-18.976,45.829,-82.814,30.72,-16.852,30.944,-67.062,37.645,13.109
5.2347,-28.399,-14.152,-28.057,-5.3913,-6.3156,-4.1925,-18.976,45.829,-82.814,30.72,-16.852,30.944,-67.062,37.645,13.109
5.3654,-28.421,-13.946,-27.968,-5.2549,-6.1947,-4.0621,-18.868,46.566,-82.521,30.79,-16.924,31.451,-66.793,37.537,13.112
5.496,-28.442,-13.74,-27.878,-5.1188,-6.0745,-3.9317,-18.759,47.301,-82.228,30.859,-16.997,31.956,-66.524,37.427,13.115
5.496,-28.442,-13.74,-27.878,-5.1188,-6.0745,-3.9317,-18.759,47.301,-82.228,30.859,-16.997,31.956,-66.524,37.427,13.115
5.6262,-28.463,-13.533,-27.787,-4.9832,-5.9548,-3.8013,-18.651,48.034,-81.935,30.927,-17.069,32.46,-66.254,37.317,13.116
5.6262,-28.463,-13.533,-27.787,-4.9832,-5.9548,-3.8013,-18.651,48.034,-81.935,30.927,-17.069,32.46,-66.254,37.317,13.116
5.7562,-28.484,-13.326,-27.696,-4.8479,-5.8358,-3.671,-18.542,48.765,-81.642,30.995,-17.142,32.962,-65.985,37.206,13.117
5.8859,-28.505,-13.119,-27.604,-4.713,-5.7174,-3.5407,-18.434,49.494,-81.348,31.063,-17.215,33.463,-65.715,37.094,13.117
5.8859,-28.505,-13.119,-27.604,-4.713,-5.7174,-3.5407,-18.434,49.494,-81.348,31.063,-17.215,33.463,-65.715,37.094,13.117
5.8859,-28.505,-13.119,-27.604,-4.713,-5.7174,-3.5407,-18.434,49.494,-81.348,31.063,-17.215,33.463,-65.715,37.094,13.117
6.0154,-28.525,-12.912,-27.511,-4.5785,-5.5996,-3.4104,-18.325,50.221,-81.055,31.129,-17.288,33.963,-65.445,36.981,13.115
6.0154,-28.525,-12.912,-27.511,-4.5785,-5.5996,-3.4104,-18.325,50.221,-81.055,31.129,-17.288,33.963,-65.445,36.981,13.115
6.0154,-28.525,-12.912,-27.511,-4.5785,-5.5996,-3.4104,-18.325,50.221,-81.055,31.129,-17.288,33.963,-65.445,36.981,13.115
6.1446,-28.545,-12.704,-27.417,-4.4444,-5.4824,-3.2802,-18.216,50.945,-80.761,31.196,-17.361,34.462,-65.174,36.867,13.113
6.1446,-28.545,-12.704,-27.417,-4.4444,-5.4824,-3.2802,-18.216,50.945,-80.761,31.196,-17.361,34.462,-65.174,36.867,13.113
6.1446,-28.545,-12.704,-27.417,-4.4444,-5.4824,-3.2802,-18.216,50.945,-80.761,31.196,-17.361,34.462,-65.174,36.867,13.113
6.4022,-28.584,-12.288,-27.227,-4.1772,-5.2497,-3.0198,-17.999,52.388,-80.174,31.327,-17.507,35.454,-64.634,36.637,13.106
6.4022,-28.584,-12.288,-27.227,-4.1772,-5.2497,-3.0198,-17.999,52.388,-80.174,31.327,-17.507,35.454,-64.634,36.637,13.106
6.4022,-28.584,-12.288,-27.227,-4.1772,-5.2497,-3.0198,-17.999,52.388,-80.174,31.327,-17.507,35.454,-64.634,36.637,13.106
6.5307,-28.603,-12.079,-27.131,-4.0441,-5.1343,-2.8896,-17.89,53.106,-79.88,31.391,-17.58,35.948,-64.363,36.521,13.101
6.5307,-28.603,-12.079,-27.131,-4.0441,-5.1343,-2.8896,-17.89,53.106,-79.88,31.391,-17.58,35.948,-64.363,36.521,13.101
6.6588,-28.622,-11.87,-27.034,-3.9115,-5.0194,-2.7595,-17.781,53.822,-79.586,31.455,-17.652,36.441,-64.092,36.403,13.095
6.7867,-28.641,-11.661,-26.937,-3.7792,-4.9051,-2.6295,-17.672,54.535,-79.292,31.519,-17.725,36.932,-63.821,36.285,13.088
6.7867,-28.641,-11.661,-26.937,-3.7792,-4.9051,-2.6295,-17.672,54.535,-79.292,31.519,-17.725,36.932,-63.821,36.285,13.088
6.7867,-28.641,-11.661,-26.937,-3.7792,-4.9051,-2.6295,-17.672,54.535,-79.292,31.519,-17.725,36.932,-63.821,36.285,13.088
6.9143,-28.659,-11.451,-26.839,-3.6472,-4.7913,-2.4995,-17.563,55.247,-78.999,31.582,-17.798,37.422,-63.55,36.166,13.081
6.9143,-28.659,-11.451,-26.839,-3.6472,-4.7913,-2.4995,-17.563,55.247,-78.999,31.582,-17.798,37.422,-63.55,36.166,13.081
7.0417,-28.677,-11.242,-26.74,-3.5157,-4.6781,-2.3695,-17.454,55.955,-78.705,31.645,-17.871,37.911,-63.279,36.047,13.072
7.1687,-28.694,-11.031,-26.64,-3.3844,-4.5655,-2.2395,-17.345,56.662,-78.411,31.707,-17.944,38.398,-63.008,35.926,13.063
7.1687,-28.694,-11.031,-26.64,-3.3844,-4.5655,-2.2395,-17.345,56.662,-78.411,31.707,-17.944,38.398,-63.008,35.926,13.063
7.2956,-28.712,-10.821,-26.54,-3.2536,-4.4534,-2.1096,-17.236,57.366,-78.117,31.768,-18.017,38.883,-62.737,35.805,13.053
7.2956,-28.712,-10.821,-26.54,-3.2536,-4.4534,-2.1096,-17.236,57.366,-78.117,31.768,-18.017,38.883,-62.737,35.805,13.053
7.4221,-28.728,-10.611,-26.439,-3.1231,-4.3419,-1.9798,-17.127,58.067,-77.824,31.829,-18.089,39.367,-62.465,35.682,13.042
7.4221,-28.728,-10.611,-26.439,-3.1231,-4.3419,-1.9798,-17.127,58.067,-77.824,31.829,-18.089,39.367,-62.465,35.682,13.042
7.4221,-28.728,-10.611,-26.439,-3.1231,-4.3419,-1.9798,-17.127,58.067,-77.824,31.829,-18.089,39.367,-62.465,35.682,13.042
7.5484,-28.745,-10.4,-26.337,-2.993,-4.2309,-1.8499,-17.017,58.766,-77.53,31.89,-18.162,39.849,-62.194,35.56,13.03
7.5484,-28.745,-10.4,-26.337,-2.993,-4.2309,-1.8499,-17.017,58.766,-77.53,31.89,-18.162,39.849,-62.194,35.56,13.03
7.6744,-28.761,-10.189,-26.235,-2.8632,-4.1204,-1.7202,-16.908,59.463,-77.236,31.95,-18.234,40.33,-61.922,35.436,13.017
7.6744,-28.761,-10.189,-26.235,-2.8632,-4.1204,-1.7202,-16.908,59.463,-77.236,31.95,-18.234,40.33,-61.922,35.436,13.017
7.8001,-28.777,-9.9774,-26.132,-2.7338,-4.0105,-1.5905,-16.799,60.157,-76.943,32.009,-18.306,40.809,-61.651,35.311,13.004
7.8001,-28.777,-9.9774,-26.132,-2.7338,-4.0105,-1.5905,-16.799,60.157,-76.943,32.009,-18.306,40.809,-61.651,35.311,13.004
7.9256,-28.792,-9.7659,-26.028,-2.6047,-3.9011,-1.4608,-16.689,60.848,-76.649,32.068,-18.378,41.287,-61.379,35.186,12.99
7.9256,-28.792,-9.7659,-26.028,-2.6047,-3.9011,-1.4608,-16.689,60.848,-76.649,32.068,-18.378,41.287,-61.379,35.186,12.99
8.0508,-28.807,-9.5541,-25.924,-2.476,-3.7922,-1.3312,-16.579,61.537,-76.356,32.126,-18.45,41.763,-61.108,35.06,12.975
8.0508,-28.807,-9.5541,-25.924,-2.476,-3.7922,-1.3312,-16.579,61.537,-76.356,32.126,-18.45,41.763,-61.108,35.06,12.975
8.0508,-28.807,-9.5541,-25.924,-2.476,-3.7922,-1.3312,-16.579,61.537,-76.356,32.126,-18.45,41.763,-61.108,35.06,12.975
8.3004,-28.836,-9.1299,-25.713,-2.2197,-3.576,-1.0721,-16.36,62.907,-75.77,32.242,-18.593,42.711,-60.565,34.806,12.943
8.3004,-28.836,-9.1299,-25.713,-2.2197,-3.576,-1.0721,-16.36,62.907,-75.77,32.242,-18.593,42.711,-60.565,34.806,12.943
8.4247,-28.849,-8.9175,-25.607,-2.0921,-3.4687,-0.94268,-16.25,63.588,-75.477,32.299,-18.664,43.183,-60.293,34.677,12.926
8.4247,-28.849,-8.9175,-25.607,-2.0921,-3.4687,-0.94268,-16.25,63.588,-75.477,32.299,-18.664,43.183,-60.293,34.677,12.926
8.5488,-28.863,-8.7049,-25.5,-1.9648,-3.3618,-0.8133,-16.14,64.266,-75.184,32.356,-18.735,43.652,-60.022,34.548,12.909
8.5488,-28.863,-8.7049,-25.5,-1.9648,-3.3618,-0.8133,-16.14,64.266,-75.184,32.356,-18.735,43.652,-60.022,34.548,12.909
8.5488,-28.863,-8.7049,-25.5,-1.9648,-3.3618,-0.8133,-16.14,64.266,-75.184,32.356,-18.735,43.652,-60.022,34.548,12.909
8.6727,-28.875,-8.4921,-25.393,-1.8378,-3.2555,-0.68398,-16.03,64.942,-74.891,32.412,-18.806,44.121,-59.75,34.419,12.89
8.6727,-28.875,-8.4921,-25.393,-1.8378,-3.2555,-0.68398,-16.03,64.942,-74.891,32.412,-18.806,44.121,-59.75,34.419,12.89
8.7962,-28.888,-8.2791,-25.285,-1.7112,-3.1496,-0.55473,-15.92,65.614,-74.598,32.467,-18.876,44.587,-59.479,34.288,12.871
8.7962,-28.888,-8.2791,-25.285,-1.7112,-3.1496,-0.55473,-15.92,65.614,-74.598,32.467,-18.876,44.587,-59.479,34.288,12.871
8.7962,-28.888,-8.2791,-25.285,-1.7112,-3.1496,-0.55473,-15.92,65.614,-74.598,32.467,-18.876,44.587,-59.479,34.288,12.871
9.0425,-28.911,-7.8526,-25.067,-1.4591,-2.9393,-0.29642,-15.7,66.951,-74.014,32.577,-19.016,45.515,-58.937,34.025,12.831
9.0425,-28.911,-7.8526,-25.067,-1.4591,-2.9393,-0.29642,-15.7,66.951,-74.014,32.577,-19.016,45.515,-58.937,34.025,12.831
9.0425,-28.911,-7.8526,-25.067,-1.4591,-2.9393,-0.29642,-15.7,66.951,-74.014,32.577,-19.016,45.515,-58.937,34.025,12.831
9.1652,-28.923,-7.6391,-24.957,-1.3336,-2.8349,-0.16737,-15.59,67.615,-73.722,32.631,-19.086,45.977,-58.665,33.893,12.811
9.1652,-28.923,-7.6391,-24.957,-1.3336,-2.8349,-0.16737,-15.59,67.615,-73.722,32.631,-19.086,45.977,-58.665,33.893,12.811
9.1652,-28.923,-7.6391,-24.957,-1.3336,-2.8349,-0.16737,-15.59,67.615,-73.722,32.631,-19.086,45.977,-58.665,33.893,12.811
9.1652,-28.923,-7.6391,-24.957,-1.3336,-2.8349,-0.16737,-15.59,67.615,-73.722,32.631,-19.086,45.977,-58.665,33.893,12.811
9.4098,-28.943,-7.2115,-24.736,-1.0836,-2.6275,0.090492,-15.369,68.935,-73.138,32.738,-19.224,46.895,-58.124,33.626,12.767
9.4098,-28.943,-7.2115,-24.736,-1.0836,-2.6275,0.090492,-15.369,68.935,-73.138,32.738,-19.224,46.895,-58.124,33.626,12.767
9.5316,-28.953,-6.9975,-24.624,-0.9591,-2.5244,0.21931,-15.259,69.59,-72.847,32.791,-19.292,47.352,-57.853,33.491,12.744
9.6532,-28.962,-6.7834,-24.512,-0.83496,-2.4219,0.34804,-15.148,70.243,-72.556,32.843,-19.36,47.806,-57.582,33.356,12.721
9.6532,-28.962,-6.7834,-24.512,-0.83496,-2.4219,0.34804,-15.148,70.243,-72.556,32.843,-19.36,47.806,-57.582,33.356,12.721
9.7745,-28.971,-6.5691,-24.399,-0.71118,-2.3198,0.47668,-15.037,70.892,-72.265,32.895,-19.428,48.259,-57.311,33.22,12.697
9.7745,-28.971,-6.5691,-24.399,-0.71118,-2.3198,0.47668,-15.037,70.892,-72.265,32.895,-19.428,48.259,-57.311,33.22,12.697
9.8955,-28.979,-6.3547,-24.286,-0.58774,-2.2181,0.60524,-14.927,71.539,-71.974,32.947,-19.495,48.711,-57.041,33.083,12.673
9.8955,-28.979,-6.3547,-24.286,-0.58774,-2.2181,0.60524,-14.927,71.539,-71.974,32.947,-19.495,48.711,-57.041,33.083,12.673
9.8955,-28.979,-6.3547,-24.286,-0.58774,-2.2181,0.60524,-14.927,71.539,-71.974,32.947,-19.495,48.711,-57.041,33.083,12.673
10.016,-28.987,-6.1402,-24.172,-0.46464,-2.1169,0.7337,-14.816,72.182,-71.683,32.997,-19.562,49.16,-56.771,32.946,12.648
10.016,-28.987,-6.1402,-24.172,-0.46464,-2.1169,0.7337,-14.816,72.182,-71.683,32.997,-19.562,49.16,-56.771,32.946,12.648
10.016,-28.987,-6.1402,-24.172,-0.46464,-2.1169,0.7337,-14.816,72.182,-71.683,32.997,-19.562,49.16,-56.771,32.946,12.648
10.257,-29.001,-5.7108,-23.943,-0.2195,-1.9157,0.99035,-14.594,73.46,-71.103,33.098,-19.694,50.054,-56.231,32.67,12.596
10.257,-29.001,-5.7108,-23.943,-0.2195,-1.9157,0.99035,-14.594,73.46,-71.103,33.098,-19.694,50.054,-56.231,32.67,12.596
10.257,-29.001,-5.7108,-23.943,-0.2195,-1.9157,0.99035,-14.594,73.46,-71.103,33.098,-19.694,50.054,-56.231,32.67,12.596
10.377,-29.007,-5.496,-23.828,-0.097453,-1.8158,1.1185,-14.483,74.094,-70.813,33.148,-19.76,50.498,-55.961,32.531,12.57
10.496,-29.013,-5.281,-23.712,0.024248,-1.7163,1.2466,-14.372,74.725,-70.524,33.197,-19.825,50.94,-55.692,32.392,12.543
10.496,-29.013,-5.281,-23.712,0.024248,-1.7163,1.2466,-14.372,74.725,-70.524,33.197,-19.825,50.94,-55.692,32.392,12.543
10.496,-29.013,-5.281,-23.712,0.024248,-1.7163,1.2466,-14.372,74.725,-70.524,33.197,-19.825,50.94,-55.692,32.392,12.543
10.616,-29.018,-5.066,-23.596,0.1456,-1.6173,1.3746,-14.261,75.353,-70.235,33.246,-19.889,51.381,-55.422,32.251,12.516
10.616,-29.018,-5.066,-23.596,0.1456,-1.6173,1.3746,-14.261,75.353,-70.235,33.246,-19.889,51.381,-55.422,32.251,12.516
10.735,-29.023,-4.8509,-23.479,0.26661,-1.5186,1.5024,-14.149,75.978,-69.946,33.294,-19.953,51.82,-55.153,32.111,12.488
10.735,-29.023,-4.8509,-23.479,0.26661,-1.5186,1.5024,-14.149,75.978,-69.946,33.294,-19.953,51.82,-55.153,32.111,12.488
10.853,-29.027,-4.6357,-23.362,0.38727,-1.4204,1.6302,-14.038,76.599,-69.658,33.342,-20.017,52.256,-54.885,31.969,12.46
10.853,-29.027,-4.6357,-23.362,0.38727,-1.4204,1.6302,-14.038,76.599,-69.658,33.342,-20.017,52.256,-54.885,31.969,12.46
10.972,-29.031,-4.4205,-23.244,0.50758,-1.3225,1.7578,-13.926,77.217,-69.37,33.389,-20.08,52.691,-54.616,31.827,12.431
10.972,-29.031,-4.4205,-23.244,0.50758,-1.3225,1.7578,-13.926,77.217,-69.37,33.389,-20.08,52.691,-54.616,31.827,12.431
10.972,-29.031,-4.4205,-23.244,0.50758,-1.3225,1.7578,-13.926,77.217,-69.37,33.389,-20.08,52.691,-54.616,31.827,12.431
10.972,-29.031,-4.4205,-23.244,0.50758,-1.3225,1.7578,-13.926,77.217,-69.37,33.389,-20.08,52.691,-54.616,31.827,12.431
11.208,-29.037,-3.9899,-23.008,0.74715,-1.1281,2.0127,-13.703,78.444,-68.794,33.483,-20.204,53.556,-54.08,31.542,12.372
11.208,-29.037,-3.9899,-23.008,0.74715,-1.1281,2.0127,-13.703,78.444,-68.794,33.483,-20.204,53.556,-54.08,31.542,12.372
11.208,-29.037,-3.9899,-23.008,0.74715,-1.1281,2.0127,-13.703,78.444,-68.794,33.483,-20.204,53.556,-54.08,31.542,12.372
11.325,-29.039,-3.7745,-22.889,0.86642,-1.0314,2.1399,-13.592,79.052,-68.507,33.529,-20.266,53.985,-53.812,31.398,12.342
11.325,-29.039,-3.7745,-22.889,0.86642,-1.0314,2.1399,-13.592,79.052,-68.507,33.529,-20.266,53.985,-53.812,31.398,12.342
11.559,-29.041,-3.3436,-22.65,1.1039,-0.83931,2.394,-13.368,80.259,-67.934,33.62,-20.387,54.838,-53.277,31.109,12.281
11.559,-29.041,-3.3436,-22.65,1.1039,-0.83931,2.394,-13.368,80.259,-67.934,33.62,-20.387,54.838,-53.277,31.109,12.281
11.676,-29.041,-3.1282,-22.529,1.2221,-0.74383,2.5209,-13.256,80.857,-67.648,33.665,-20.446,55.261,-53.01,30.964,12.251
11.676,-29.041,-3.1282,-22.529,1.2221,-0.74383,2.5209,-13.256,80.857,-67.648,33.665,-20.446,55.261,-53.01,30.964,12.251
11.792,-29.041,-2.9127,-22.409,1.34,-0.64872,2.6476,-13.144,81.452,-67.363,33.709,-20.505,55.683,-52.743,30.818,12.219
11.908,-29.04,-2.6972,-22.288,1.4575,-0.55399,2.7742,-13.032,82.043,-67.077,33.753,-20.564,56.103,-52.477,30.672,12.188
11.908,-29.04,-2.6972,-22.288,1.4575,-0.55399,2.7742,-13.032,82.043,-67.077,33.753,-20.564,56.103,-52.477,30.672,12.188
11.908,-29.04,-2.6972,-22.288,1.4575,-0.55399,2.7742,-13.032,82.043,-67.077,33.753,-20.564,56.103,-52.477,30.672,12.188
11.908,-29.04,-2.6972,-22.288,1.4575,-0.55399,2.7742,-13.032,82.043,-67.077,33.753,-20.564,56.103,-52.477,30.672,12.188
12.024,-29.039,-2.4818,-22.166,1.5747,-0.45963,2.9006,-12.92,82.631,-66.793,33.797,-20.621,56.52,-52.211,30.525,12.156
12.024,-29.039,-2.4818,-22.166,1.5747,-0.45963,2.9006,-12.92,82.631,-66.793,33.797,-20.621,56.52,-52.211,30.525,12.156
12.139,-29.037,-2.2663,-22.045,1.6915,-0.36563,3.0269,-12.808,83.215,-66.508,33.84,-20.678,56.936,-51.946,30.378,12.123
12.139,-29.037,-2.2663,-22.045,1.6915,-0.36563,3.0269,-12.808,83.215,-66.508,33.84,-20.678,56.936,-51.946,30.378,12.123
12.254,-29.034,-2.0509,-21.922,1.8079,-0.27199,3.153,-12.695,83.796,-66.224,33.883,-20.735,57.35,-51.68,30.23,12.091
12.369,-29.031,-1.8355,-21.8,1.9241,-0.17871,3.2789,-12.583,84.374,-65.941,33.926,-20.79,57.761,-51.415,30.082,12.058
12.369,-29.031,-1.8355,-21.8,1.9241,-0.17871,3.2789,-12.583,84.374,-65.941,33.926,-20.79,57.761,-51.415,30.082,12.058
12.484,-29.028,-1.6201,-21.677,2.0398,-0.085779,3.4047,-12.471,84.947,-65.657,33.968,-20.845,58.171,-51.151,29.933,12.025
12.484,-29.028,-1.6201,-21.677,2.0398,-0.085779,3.4047,-12.471,84.947,-65.657,33.968,-20.845,58.171,-51.151,29.933,12.025
12.484,-29.028,-1.6201,-21.677,2.0398,-0.085779,3.4047,-12.471,84.947,-65.657,33.968,-20.845,58.171,-51.151,29.933,12.025
12.598,-29.023,-1.4048,-21.554,2.1552,0.0068019,3.5303,-12.358,85.518,-65.375,34.009,-20.9,58.579,-50.887,29.784,11.992
12.712,-29.018,-1.1895,-21.431,2.2703,0.099039,3.6558,-12.246,86.085,-65.092,34.05,-20.953,58.984,-50.623,29.634,11.958
12.712,-29.018,-1.1895,-21.431,2.2703,0.099039,3.6558,-12.246,86.085,-65.092,34.05,-20.953,58.984,-50.623,29.634,11.958
12.825,-29.013,-0.97433,-21.307,2.385,0.19094,3.781,-12.133,86.648,-64.811,34.091,-21.006,59.388,-50.36,29.484,11.925
12.825,-29.013,-0.97433,-21.307,2.385,0.19094,3.781,-12.133,86.648,-64.811,34.091,-21.006,59.388,-50.36,29.484,11.925
12.825,-29.013,-0.97433,-21.307,2.385,0.19094,3.781,-12.133,86.648,-64.811,34.091,-21.006,59.388,-50.36,29.484,11.925
12.938,-29.007,-0.7592,-21.183,2.4993,0.2825,3.9061,-12.02,87.207,-64.529,34.131,-21.058,59.789,-50.097,29.334,11.891
12.938,-29.007,-0.7592,-21.183,2.4993,0.2825,3.9061,-12.02,87.207,-64.529,34.131,-21.058,59.789,-50.097,29.334,11.891
13.051,-29,-0.54414,-21.058,2.6133,0.37372,4.0311,-11.908,87.763,-64.248,34.171,-21.11,60.189,-49.834,29.183,11.857
13.051,-29,-0.54414,-21.058,2.6133,0.37372,4.0311,-11.908,87.763,-64.248,34.171,-21.11,60.189,-49.834,29.183,11.857
13.164,-28.993,-0.32917,-20.933,2.7269,0.46462,4.1558,-11.795,88.315,-63.968,34.211,-21.16,60.586,-49.572,29.031,11.822
13.164,-28.993,-0.32917,-20.933,2.7269,0.46462,4.1558,-11.795,88.315,-63.968,34.211,-21.16,60.586,-49.572,29.031,11.822
13.276,-28.985,-0.1143,-20.808,2.8402,0.55519,4.2803,-11.682,88.864,-63.688,34.25,-21.21,60.981,-49.31,28.879,11.788
13.276,-28.985,-0.1143,-20.808,2.8402,0.55519,4.2803,-11.682,88.864,-63.688,34.25,-21.21,60.981,-49.31,28.879,11.788
13.276,-28.985,-0.1143,-20.808,2.8402,0.55519,4.2803,-11.682,88.864,-63.688,34.25,-21.21,60.981,-49.31,28.879,11.788
13.5,-28.967,0.31514,-20.558,3.0656,0.73538,4.5288,-11.456,89.95,-63.13,34.327,-21.307,61.766,-48.788,28.574,11.719
13.5,-28.967,0.31514,-20.558,3.0656,0.73538,4.5288,-11.456,89.95,-63.13,34.327,-21.307,61.766,-48.788,28.574,11.719
13.611,-28.957,0.52969,-20.432,3.1778,0.825,4.6527,-11.343,90.487,-62.851,34.365,-21.355,62.155,-48.528,28.421,11.684
13.611,-28.957,0.52969,-20.432,3.1778,0.825,4.6527,-11.343,90.487,-62.851,34.365,-21.355,62.155,-48.528,28.421,11.684
13.611,-28.957,0.52969,-20.432,3.1778,0.825,4.6527,-11.343,90.487,-62.851,34.365,-21.355,62.155,-48.528,28.421,11.684
13.722,-28.947,0.74411,-20.306,3.2896,0.91431,4.7764,-11.23,91.021,-62.573,34.403,-21.401,62.541,-48.268,28.268,11.649
13.722,-28.947,0.74411,-20.306,3.2896,0.91431,4.7764,-11.23,91.021,-62.573,34.403,-21.401,62.541,-48.268,28.268,11.649
13.722,-28.947,0.74411,-20.306,3.2896,0.91431,4.7764,-11.23,91.021,-62.573,34.403,-21.401,62.541,-48.268,28.268,11.649
13.943,-28.924,1.1725,-20.053,3.5122,1.092,5.0232,-11.003,92.077,-62.019,34.477,-21.492,63.308,-47.75,27.96,11.578
13.943,-28.924,1.1725,-20.053,3.5122,1.092,5.0232,-11.003,92.077,-62.019,34.477,-21.492,63.308,-47.75,27.96,11.578
13.943,-28.924,1.1725,-20.053,3.5122,1.092,5.0232,-11.003,92.077,-62.019,34.477,-21.492,63.308,-47.75,27.96,11.578
14.053,-28.912,1.3865,-19.926,3.6229,1.1804,5.1463,-10.89,92.599,-61.742,34.513,-21.536,63.689,-47.491,27.805,11.543
14.053,-28.912,1.3865,-19.926,3.6229,1.1804,5.1463,-10.89,92.599,-61.742,34.513,-21.536,63.689,-47.491,27.805,11.543
14.053,-28.912,1.3865,-19.926,3.6229,1.1804,5.1463,-10.89,92.599,-61.742,34.513,-21.536,63.689,-47.491,27.805,11.543
14.272,-28.885,1.814,-19.672,3.8433,1.3563,5.3918,-10.664,93.633,-61.191,34.585,-21.621,64.443,-46.976,27.495,11.472
14.272,-28.885,1.814,-19.672,3.8433,1.3563,5.3918,-10.664,93.633,-61.191,34.585,-21.621,64.443,-46.976,27.495,11.472
14.381,-28.871,2.0275,-19.545,3.9529,1.4439,5.5142,-10.55,94.143,-60.916,34.62,-21.663,64.816,-46.719,27.339,11.437
14.381,-28.871,2.0275,-19.545,3.9529,1.4439,5.5142,-10.55,94.143,-60.916,34.62,-21.663,64.816,-46.719,27.339,11.437
14.381,-28.871,2.0275,-19.545,3.9529,1.4439,5.5142,-10.55,94.143,-60.916,34.62,-21.663,64.816,-46.719,27.339,11.437
14.49,-28.856,2.2408,-19.418,4.0622,1.5311,5.6363,-10.437,94.65,-60.642,34.655,-21.703,65.188,-46.463,27.183,11.401
14.49,-28.856,2.2408,-19.418,4.0622,1.5311,5.6363,-10.437,94.65,-60.642,34.655,-21.703,65.188,-46.463,27.183,11.401
14.49,-28.856,2.2408,-19.418,4.0622,1.5311,5.6363,-10.437,94.65,-60.642,34.655,-21.703,65.188,-46.463,27.183,11.401
14.598,-28.84,2.454,-19.29,4.1711,1.6181,5.7582,-10.323,95.154,-60.368,34.69,-21.743,65.557,-46.207,27.026,11.366
14.814,-28.807,2.8796,-19.034,4.3878,1.7912,6.0013,-10.096,96.148,-59.822,34.757,-21.82,66.289,-45.697,26.713,11.295
14.814,-28.807,2.8796,-19.034,4.3878,1.7912,6.0013,-10.096,96.148,-59.822,34.757,-21.82,66.289,-45.697,26.713,11.295
14.814,-28.807,2.8796,-19.034,4.3878,1.7912,6.0013,-10.096,96.148,-59.822,34.757,-21.82,66.289,-45.697,26.713,11.295
14.922,-28.79,3.0921,-18.906,4.4955,1.8773,6.1224,-9.9827,96.64,-59.55,34.791,-21.857,66.651,-45.442,26.555,11.259
14.922,-28.79,3.0921,-18.906,4.4955,1.8773,6.1224,-9.9827,96.64,-59.55,34.791,-21.857,66.651,-45.442,26.555,11.259
15.029,-28.772,3.3044,-18.778,4.6029,1.9631,6.2433,-9.8691,97.127,-59.278,34.824,-21.893,67.012,-45.189,26.398,11.224
15.029,-28.772,3.3044,-18.778,4.6029,1.9631,6.2433,-9.8691,97.127,-59.278,34.824,-21.893,67.012,-45.189,26.398,11.224
15.135,-28.753,3.5164,-18.649,4.71,2.0487,6.364,-9.7554,97.611,-59.008,34.856,-21.928,67.37,-44.936,26.24,11.188
15.135,-28.753,3.5164,-18.649,4.71,2.0487,6.364,-9.7554,97.611,-59.008,34.856,-21.928,67.37,-44.936,26.24,11.188
15.135,-28.753,3.5164,-18.649,4.71,2.0487,6.364,-9.7554,97.611,-59.008,34.856,-21.928,67.37,-44.936,26.24,11.188
15.242,-28.734,3.7282,-18.521,4.8166,2.1341,6.4843,-9.6417,98.09,-58.737,34.888,-21.962,67.725,-44.683,26.081,11.153
15.242,-28.734,3.7282,-18.521,4.8166,2.1341,6.4843,-9.6417,98.09,-58.737,34.888,-21.962,67.725,-44.683,26.081,11.153
15.348,-28.714,3.9397,-18.392,4.9229,2.2191,6.6044,-9.528,98.566,-58.467,34.92,-21.995,68.079,-44.431,25.923,11.118
15.454,-28.693,4.151,-18.264,5.0288,2.304,6.7242,-9.4143,99.037,-58.198,34.952,-22.027,68.43,-44.18,25.764,11.082
15.454,-28.693,4.151,-18.264,5.0288,2.304,6.7242,-9.4143,99.037,-58.198,34.952,-22.027,68.43,-44.18,25.764,11.082
15.559,-28.671,4.3621,-18.135,5.1343,2.3885,6.8437,-9.3006,99.505,-57.929,34.983,-22.058,68.779,-43.929,25.605,11.047
15.559,-28.671,4.3621,-18.135,5.1343,2.3885,6.8437,-9.3006,99.505,-57.929,34.983,-22.058,68.779,-43.929,25.605,11.047
15.559,-28.671,4.3621,-18.135,5.1343,2.3885,6.8437,-9.3006,99.505,-57.929,34.983,-22.058,68.779,-43.929,25.605,11.047
15.664,-28.649,4.5728,-18.006,5.2394,2.4728,6.963,-9.1868,99.969,-57.661,35.014,-22.088,69.125,-43.679,25.445,11.012
15.664,-28.649,4.5728,-18.006,5.2394,2.4728,6.963,-9.1868,99.969,-57.661,35.014,-22.088,69.125,-43.679,25.445,11.012
15.769,-28.627,4.7833,-17.877,5.3441,2.5569,7.0819,-9.0731,100.43,-57.394,35.044,-22.117,69.469,-43.43,25.286,10.977
15.873,-28.603,4.9935,-17.748,5.4485,2.6407,7.2005,-8.9593,100.88,-57.127,35.074,-22.145,69.811,-43.181,25.126,10.942
15.873,-28.603,4.9935,-17.748,5.4485,2.6407,7.2005,-8.9593,100.88,-57.127,35.074,-22.145,69.811,-43.181,25.126,10.942
15.977,-28.579,5.2033,-17.619,5.5524,2.7243,7.3189,-8.8455,101.34,-56.861,35.103,-22.172,70.151,-42.933,24.966,10.908
15.977,-28.579,5.2033,-17.619,5.5524,2.7243,7.3189,-8.8455,101.34,-56.861,35.103,-22.172,70.151,-42.933,24.966,10.908
16.081,-28.555,5.4129,-17.49,5.656,2.8076,7.4369,-8.7317,101.78,-56.595,35.133,-22.198,70.488,-42.685,24.805,10.873
16.081,-28.555,5.4129,-17.49,5.656,2.8076,7.4369,-8.7317,101.78,-56.595,35.133,-22.198,70.488,-42.685,24.805,10.873
16.081,-28.555,5.4129,-17.49,5.656,2.8076,7.4369,-8.7317,101.78,-56.595,35.133,-22.198,70.488,-42.685,24.805,10.873
16.184,-28.529,5.6222,-17.361,5.7592,2.8907,7.5547,-8.6179,102.23,-56.33,35.161,-22.224,70.822,-42.438,24.645,10.839
16.184,-28.529,5.6222,-17.361,5.7592,2.8907,7.5547,-8.6179,102.23,-56.33,35.161,-22.224,70.822,-42.438,24.645,10.839
16.184,-28.529,5.6222,-17.361,5.7592,2.8907,7.5547,-8.6179,102.23,-56.33,35.161,-22.224,70.822,-42.438,24.645,10.839
16.287,-28.503,5.8311,-17.231,5.862,2.9736,7.6721,-8.504,102.67,-56.065,35.19,-22.248,71.155,-42.192,24.484,10.804
16.287,-28.503,5.8311,-17.231,5.862,2.9736,7.6721,-8.504,102.67,-56.065,35.19,-22.248,71.155,-42.192,24.484,10.804
16.492,-28.449,6.248,-16.973,6.0663,3.1386,7.906,-8.2764,103.53,-55.538,35.246,-22.292,71.812,-41.701,24.161,10.736
16.492,-28.449,6.248,-16.973,6.0663,3.1386,7.906,-8.2764,103.53,-55.538,35.246,-22.292,71.812,-41.701,24.161,10.736
16.594,-28.421,6.4559,-16.844,6.1679,3.2208,8.0224,-8.1626,103.96,-55.276,35.273,-22.313,72.138,-41.457,24,10.702
16.594,-28.421,6.4559,-16.844,6.1679,3.2208,8.0224,-8.1626,103.96,-55.276,35.273,-22.313,72.138,-41.457,24,10.702
16.695,-28.393,6.6635,-16.715,6.2691,3.3027,8.1385,-8.0488,104.38,-55.014,35.3,-22.333,72.46,-41.213,23.838,10.669
16.695,-28.393,6.6635,-16.715,6.2691,3.3027,8.1385,-8.0488,104.38,-55.014,35.3,-22.333,72.46,-41.213,23.838,10.669
16.695,-28.393,6.6635,-16.715,6.2691,3.3027,8.1385,-8.0488,104.38,-55.014,35.3,-22.333,72.46,-41.213,23.838,10.669
16.796,-28.364,6.8707,-16.586,6.3699,3.3845,8.2543,-7.935,104.8,-54.752,35.327,-22.352,72.781,-40.97,23.676,10.636
16.796,-28.364,6.8707,-16.586,6.3699,3.3845,8.2543,-7.935,104.8,-54.752,35.327,-22.352,72.781,-40.97,23.676,10.636
16.897,-28.334,7.0775,-16.456,6.4703,3.466,8.3697,-7.8212,105.22,-54.491,35.353,-22.369,73.099,-40.728,23.514,10.602
16.998,-28.303,7.2839,-16.327,6.5703,3.5473,8.4848,-7.7074,105.63,-54.231,35.379,-22.386,73.414,-40.486,23.352,10.57
16.998,-28.303,7.2839,-16.327,6.5703,3.5473,8.4848,-7.7074,105.63,-54.231,35.379,-22.386,73.414,-40.486,23.352,10.57
17.098,-28.272,7.49,-16.198,6.6699,3.6284,8.5995,-7.5937,106.03,-53.972,35.404,-22.401,73.727,-40.245,23.189,10.537
17.098,-28.272,7.49,-16.198,6.6699,3.6284,8.5995,-7.5937,106.03,-53.972,35.404,-22.401,73.727,-40.245,23.189,10.537
17.098,-28.272,7.49,-16.198,6.6699,3.6284,8.5995,-7.5937,106.03,-53.972,35.404,-22.401,73.727,-40.245,23.189,10.537
17.198,-28.24,7.6957,-16.069,6.7691,3.7092,8.7139,-7.4799,106.44,-53.713,35.429,-22.416,74.038,-40.005,23.027,10.505
17.198,-28.24,7.6957,-16.069,6.7691,3.7092,8.7139,-7.4799,106.44,-53.713,35.429,-22.416,74.038,-40.005,23.027,10.505
17.297,-28.207,7.9009,-15.94,6.8678,3.7899,8.8279,-7.3662,106.83,-53.454,35.454,-22.429,74.346,-39.765,22.864,10.472
17.297,-28.207,7.9009,-15.94,6.8678,3.7899,8.8279,-7.3662,106.83,-53.454,35.454,-22.429,74.346,-39.765,22.864,10.472
17.396,-28.174,8.1058,-15.811,6.9662,3.8703,8.9416,-7.2526,107.23,-53.197,35.478,-22.441,74.652,-39.527,22.701,10.441
17.396,-28.174,8.1058,-15.811,6.9662,3.8703,8.9416,-7.2526,107.23,-53.197,35.478,-22.441,74.652,-39.527,22.701,10.441
17.495,-28.14,8.3102,-15.683,7.0641,3.9506,9.0549,-7.1389,107.62,-52.94,35.502,-22.452,74.955,-39.288,22.538,10.409
17.495,-28.14,8.3102,-15.683,7.0641,3.9506,9.0549,-7.1389,107.62,-52.94,35.502,-22.452,74.955,-39.288,22.538,10.409
17.593,-28.106,8.5142,-15.554,7.1617,4.0306,9.1678,-7.0253,108.01,-52.683,35.526,-22.462,75.256,-39.051,22.374,10.378
17.691,-28.071,8.7178,-15.425,7.2588,4.1105,9.2803,-6.9117,108.39,-52.427,35.549,-22.471,75.554,-38.814,22.211,10.347
17.691,-28.071,8.7178,-15.425,7.2588,4.1105,9.2803,-6.9117,108.39,-52.427,35.549,-22.471,75.554,-38.814,22.211,10.347
17.691,-28.071,8.7178,-15.425,7.2588,4.1105,9.2803,-6.9117,108.39,-52.427,35.549,-22.471,75.554,-38.814,22.211,10.347
17.789,-28.035,8.9209,-15.297,7.3555,4.1901,9.3925,-6.7981,108.76,-52.172,35.572,-22.478,75.85,-38.578,22.048,10.316
17.789,-28.035,8.9209,-15.297,7.3555,4.1901,9.3925,-6.7981,108.76,-52.172,35.572,-22.478,75.85,-38.578,22.048,10.316
17.789,-28.035,8.9209,-15.297,7.3555,4.1901,9.3925,-6.7981,108.76,-52.172,35.572,-22.478,75.85,-38.578,22.048,10.316
17.983,-27.961,9.3258,-15.04,7.5476,4.3488,9.6156,-6.5712,109.51,-51.664,35.617,-22.49,76.434,-38.109,21.72,10.256
17.983,-27.961,9.3258,-15.04,7.5476,4.3488,9.6156,-6.5712,109.51,-51.664,35.617,-22.49,76.434,-38.109,21.72,10.256
18.08,-27.923,9.5275,-14.912,7.643,4.4279,9.7266,-6.4578,109.87,-51.411,35.639,-22.494,76.723,-37.875,21.556,10.226
18.08,-27.923,9.5275,-14.912,7.643,4.4279,9.7266,-6.4578,109.87,-51.411,35.639,-22.494,76.723,-37.875,21.556,10.226
18.176,-27.885,9.7288,-14.784,7.738,4.5067,9.8372,-6.3444,110.23,-51.158,35.66,-22.497,77.008,-37.642,21.392,10.197
18.176,-27.885,9.7288,-14.784,7.738,4.5067,9.8372,-6.3444,110.23,-51.158,35.66,-22.497,77.008,-37.642,21.392,10.197
18.272,-27.846,9.9296,-14.656,7.8326,4.5854,9.9473,-6.2311,110.59,-50.906,35.682,-22.499,77.292,-37.409,21.228,10.168
18.272,-27.846,9.9296,-14.656,7.8326,4.5854,9.9473,-6.2311,110.59,-50.906,35.682,-22.499,77.292,-37.409,21.228,10.168
18.367,-27.806,10.13,-14.529,7.9267,4.6639,10.057,-6.1178,110.94,-50.654,35.702,-22.5,77.572,-37.178,21.064,10.139
18.367,-27.806,10.13,-14.529,7.9267,4.6639,10.057,-6.1178,110.94,-50.654,35.702,-22.5,77.572,-37.178,21.064,10.139
18.367,-27.806,10.13,-14.529,7.9267,4.6639,10.057,-6.1178,110.94,-50.654,35.702,-22.5,77.572,-37.178,21.064,10.139
18.462,-27.766,10.33,-14.401,8.0204,4.7422,10.166,-6.0047,111.29,-50.404,35.723,-22.499,77.851,-36.947,20.9,10.111
18.557,-27.725,10.529,-14.274,8.1137,4.8203,10.275,-5.8915,111.64,-50.154,35.743,-22.498,78.126,-36.717,20.735,10.083
18.557,-27.725,10.529,-14.274,8.1137,4.8203,10.275,-5.8915,111.64,-50.154,35.743,-22.498,78.126,-36.717,20.735,10.083
18.651,-27.683,10.728,-14.147,8.2065,4.8982,10.384,-5.7785,111.98,-49.904,35.762,-22.495,78.4,-36.488,20.571,10.055
18.651,-27.683,10.728,-14.147,8.2065,4.8982,10.384,-5.7785,111.98,-49.904,35.762,-22.495,78.4,-36.488,20.571,10.055
18.651,-27.683,10.728,-14.147,8.2065,4.8982,10.384,-5.7785,111.98,-49.904,35.762,-22.495,78.4,-36.488,20.571,10.055
18.745,-27.641,10.926,-14.02,8.2989,4.976,10.492,-5.6655,112.31,-49.655,35.782,-22.491,78.67,-36.259,20.406,10.028
18.745,-27.641,10.926,-14.02,8.2989,4.976,10.492,-5.6655,112.31,-49.655,35.782,-22.491,78.67,-36.259,20.406,10.028
18.839,-27.598,11.124,-13.893,8.3909,5.0535,10.6,-5.5525,112.65,-49.407,35.801,-22.485,78.938,-36.031,20.242,10.002
18.839,-27.598,11.124,-13.893,8.3909,5.0535,10.6,-5.5525,112.65,-49.407,35.801,-22.485,78.938,-36.031,20.242,10.002
18.932,-27.554,11.321,-13.767,8.4824,5.1309,10.707,-5.4397,112.97,-49.159,35.819,-22.479,79.204,-35.804,20.077,9.9754
18.932,-27.554,11.321,-13.767,8.4824,5.1309,10.707,-5.4397,112.97,-49.159,35.819,-22.479,79.204,-35.804,20.077,9.9754
19.025,-27.51,11.518,-13.64,8.5735,5.2082,10.814,-5.3269,113.3,-48.912,35.837,-22.471,79.467,-35.578,19.912,9.9495
19.025,-27.51,11.518,-13.64,8.5735,5.2082,10.814,-5.3269,113.3,-48.912,35.837,-22.471,79.467,-35.578,19.912,9.9495
19.117,-27.465,11.714,-13.514,8.6641,5.2852,10.92,-5.2142,113.62,-48.666,35.855,-22.463,79.727,-35.353,19.748,9.9241
19.209,-27.42,11.909,-13.388,8.7543,5.3621,11.026,-5.1016,113.93,-48.42,35.873,-22.453,79.985,-35.128,19.583,9.8992
19.209,-27.42,11.909,-13.388,8.7543,5.3621,11.026,-5.1016,113.93,-48.42,35.873,-22.453,79.985,-35.128,19.583,9.8992
19.301,-27.374,12.104,-13.263,8.844,5.4388,11.131,-4.9891,114.24,-48.175,35.89,-22.441,80.24,-34.904,19.418,9.8746
19.301,-27.374,12.104,-13.263,8.844,5.4388,11.131,-4.9891,114.24,-48.175,35.89,-22.441,80.24,-34.904,19.418,9.8746
19.392,-27.327,12.299,-13.138,8.9333,5.5153,11.236,-4.8767,114.55,-47.931,35.906,-22.429,80.493,-34.681,19.253,9.8506
19.392,-27.327,12.299,-13.138,8.9333,5.5153,11.236,-4.8767,114.55,-47.931,35.906,-22.429,80.493,-34.681,19.253,9.8506
19.392,-27.327,12.299,-13.138,8.9333,5.5153,11.236,-4.8767,114.55,-47.931,35.906,-22.429,80.493,-34.681,19.253,9.8506
19.483,-27.28,12.492,-13.013,9.0221,5.5916,11.341,-4.7644,114.85,-47.687,35.923,-22.416,80.743,-34.459,19.088,9.827
19.483,-27.28,12.492,-13.013,9.0221,5.5916,11.341,-4.7644,114.85,-47.687,35.923,-22.416,80.743,-34.459,19.088,9.827
19.574,-27.232,12.686,-12.888,9.1105,5.6678,11.445,-4.6522,115.15,-47.443,35.939,-22.401,80.991,-34.237,18.923,9.8038
19.574,-27.232,12.686,-12.888,9.1105,5.6678,11.445,-4.6522,115.15,-47.443,35.939,-22.401,80.991,-34.237,18.923,9.8038
19.574,-27.232,12.686,-12.888,9.1105,5.6678,11.445,-4.6522,115.15,-47.443,35.939,-22.401,80.991,-34.237,18.923,9.8038
19.754,-27.135,13.07,-12.639,9.2858,5.8196,11.651,-4.4281,115.74,-46.959,35.97,-22.367,81.478,-33.797,18.593,9.759
19.754,-27.135,13.07,-12.639,9.2858,5.8196,11.651,-4.4281,115.74,-46.959,35.97,-22.367,81.478,-33.797,18.593,9.759
19.754,-27.135,13.07,-12.639,9.2858,5.8196,11.651,-4.4281,115.74,-46.959,35.97,-22.367,81.478,-33.797,18.593,9.759
19.843,-27.085,13.262,-12.515,9.3728,5.8953,11.754,-4.3162,116.02,-46.717,35.985,-22.349,81.718,-33.577,18.429,9.7374
19.932,-27.035,13.453,-12.391,9.4593,5.9708,11.856,-4.2044,116.31,-46.476,35.999,-22.329,81.955,-33.359,18.264,9.7162
20.021,-26.984,13.643,-12.268,9.5454,6.0462,11.958,-4.0927,116.58,-46.236,36.013,-22.308,82.19,-33.142,18.099,9.6955
20.021,-26.984,13.643,-12.268,9.5454,6.0462,11.958,-4.0927,116.58,-46.236,36.013,-22.308,82.19,-33.142,18.099,9.6955
20.021,-26.984,13.643,-12.268,9.5454,6.0462,11.958,-4.0927,116.58,-46.236,36.013,-22.308,82.19,-33.142,18.099,9.6955
20.109,-26.932,13.832,-12.145,9.6309,6.1213,12.059,-3.9812,116.86,-45.996,36.027,-22.286,82.422,-32.925,17.934,9.6754
20.109,-26.932,13.832,-12.145,9.6309,6.1213,12.059,-3.9812,116.86,-45.996,36.027,-22.286,82.422,-32.925,17.934,9.6754
20.197,-26.88,14.021,-12.023,9.716,6.1964,12.159,-3.8697,117.13,-45.757,36.041,-22.263,82.651,-32.709,17.769,9.6557
20.197,-26.88,14.021,-12.023,9.716,6.1964,12.159,-3.8697,117.13,-45.757,36.041,-22.263,82.651,-32.709,17.769,9.6557
20.284,-26.828,14.209,-11.9,9.8007,6.2712,12.26,-3.7584,117.39,-45.519,36.054,-22.239,82.878,-32.494,17.604,9.6366
20.284,-26.828,14.209,-11.9,9.8007,6.2712,12.26,-3.7584,117.39,-45.519,36.054,-22.239,82.878,-32.494,17.604,9.6366
20.284,-26.828,14.209,-11.9,9.8007,6.2712,12.26,-3.7584,117.39,-45.519,36.054,-22.239,82.878,-32.494,17.604,9.6366
20.371,-26.774,14.397,-11.778,9.8848,6.3459,12.359,-3.6473,117.66,-45.281,36.066,-22.213,83.102,-32.279,17.439,9.618
20.371,-26.774,14.397,-11.778,9.8848,6.3459,12.359,-3.6473,117.66,-45.281,36.066,-22.213,83.102,-32.279,17.439,9.618
20.458,-26.721,14.584,-11.657,9.9685,6.4204,12.458,-3.5363,117.91,-45.044,36.079,-22.186,83.323,-32.066,17.274,9.6
20.458,-26.721,14.584,-11.657,9.9685,6.4204,12.458,-3.5363,117.91,-45.044,36.079,-22.186,83.323,-32.066,17.274,9.6
20.458,-26.721,14.584,-11.657,9.9685,6.4204,12.458,-3.5363,117.91,-45.044,36.079,-22.186,83.323,-32.066,17.274,9.6
20.63,-26.611,14.956,-11.415,10.134,6.569,12.655,-3.3146,118.42,-44.571,36.102,-22.128,83.759,-31.641,16.945,9.5656
20.63,-26.611,14.956,-11.415,10.134,6.569,12.655,-3.3146,118.42,-44.571,36.102,-22.128,83.759,-31.641,16.945,9.5656
20.63,-26.611,14.956,-11.415,10.134,6.569,12.655,-3.3146,118.42,-44.571,36.102,-22.128,83.759,-31.641,16.945,9.5656
20.716,-26.556,15.141,-11.294,10.217,6.643,12.753,-3.204,118.66,-44.335,36.113,-22.098,83.972,-31.43,16.78,9.5492
20.716,-26.556,15.141,-11.294,10.217,6.643,12.753,-3.204,118.66,-44.335,36.113,-22.098,83.972,-31.43,16.78,9.5492
20.801,-26.5,15.325,-11.174,10.298,6.7169,12.85,-3.0936,118.9,-44.1,36.124,-22.066,84.183,-31.219,16.616,9.5334
20.801,-26.5,15.325,-11.174,10.298,6.7169,12.85,-3.0936,118.9,-44.1,36.124,-22.066,84.183,-31.219,16.616,9.5334
20.885,-26.443,15.509,-11.054,10.38,6.7906,12.946,-2.9833,119.14,-43.866,36.135,-22.033,84.392,-31.01,16.451,9.5181
20.885,-26.443,15.509,-11.054,10.38,6.7906,12.946,-2.9833,119.14,-43.866,36.135,-22.033,84.392,-31.01,16.451,9.5181
20.885,-26.443,15.509,-11.054,10.38,6.7906,12.946,-2.9833,119.14,-43.866,36.135,-22.033,84.392,-31.01,16.451,9.5181
21.054,-26.328,15.873,-10.816,10.541,6.9376,13.137,-2.7632,119.6,-43.399,36.155,-21.963,84.801,-30.593,16.122,9.4893
21.054,-26.328,15.873,-10.816,10.541,6.9376,13.137,-2.7632,119.6,-43.399,36.155,-21.963,84.801,-30.593,16.122,9.4893
21.137,-26.27,16.055,-10.698,10.62,7.0108,13.232,-2.6534,119.83,-43.166,36.164,-21.926,85.001,-30.386,15.958,9.4758
21.137,-26.27,16.055,-10.698,10.62,7.0108,13.232,-2.6534,119.83,-43.166,36.164,-21.926,85.001,-30.386,15.958,9.4758
21.22,-26.211,16.236,-10.58,10.7,7.0839,13.327,-2.5437,120.05,-42.934,36.173,-21.888,85.199,-30.18,15.793,9.4629
21.22,-26.211,16.236,-10.58,10.7,7.0839,13.327,-2.5437,120.05,-42.934,36.173,-21.888,85.199,-30.18,15.793,9.4629
21.22,-26.211,16.236,-10.58,10.7,7.0839,13.327,-2.5437,120.05,-42.934,36.173,-21.888,85.199,-30.18,15.793,9.4629
21.303,-26.152,16.415,-10.462,10.778,7.1568,13.42,-2.4343,120.27,-42.702,36.182,-21.849,85.394,-29.974,15.629,9.4506
21.303,-26.152,16.415,-10.462,10.778,7.1568,13.42,-2.4343,120.27,-42.702,36.182,-21.849,85.394,-29.974,15.629,9.4506
21.303,-26.152,16.415,-10.462,10.778,7.1568,13.42,-2.4343,120.27,-42.702,36.182,-21.849,85.394,-29.974,15.629,9.4506
21.303,-26.152,16.415,-10.462,10.778,7.1568,13.42,-2.4343,120.27,-42.702,36.182,-21.849,85.394,-29.974,15.629,9.4506
21.467,-26.031,16.773,-10.228,10.934,7.3022,13.606,-2.2159,120.69,-42.241,36.198,-21.767,85.777,-29.565,15.301,9.4277
21.467,-26.031,16.773,-10.228,10.934,7.3022,13.606,-2.2159,120.69,-42.241,36.198,-21.767,85.777,-29.565,15.301,9.4277
21.467,-26.031,16.773,-10.228,10.934,7.3022,13.606,-2.2159,120.69,-42.241,36.198,-21.767,85.777,-29.565,15.301,9.4277
21.63,-25.909,17.128,-9.9962,11.088,7.4469,13.79,-1.9982,121.1,-41.781,36.212,-21.68,86.149,-29.16,14.973,9.4073
21.63,-25.909,17.128,-9.9962,11.088,7.4469,13.79,-1.9982,121.1,-41.781,36.212,-21.68,86.149,-29.16,14.973,9.4073
21.63,-25.909,17.128,-9.9962,11.088,7.4469,13.79,-1.9982,121.1,-41.781,36.212,-21.68,86.149,-29.16,14.973,9.4073
21.71,-25.847,17.304,-9.8809,11.164,7.519,13.881,-1.8897,121.3,-41.552,36.219,-21.634,86.332,-28.959,14.809,9.3981
21.71,-25.847,17.304,-9.8809,11.164,7.519,13.881,-1.8897,121.3,-41.552,36.219,-21.634,86.332,-28.959,14.809,9.3981
21.71,-25.847,17.304,-9.8809,11.164,7.519,13.881,-1.8897,121.3,-41.552,36.219,-21.634,86.332,-28.959,14.809,9.3981
21.87,-25.721,17.654,-9.6518,11.315,7.6628,14.061,-1.6732,121.68,-41.096,36.231,-21.54,86.688,-28.558,14.482,9.3814
21.87,-25.721,17.654,-9.6518,11.315,7.6628,14.061,-1.6732,121.68,-41.096,36.231,-21.54,86.688,-28.558,14.482,9.3814
21.95,-25.658,17.828,-9.538,11.39,7.7344,14.15,-1.5652,121.87,-40.869,36.237,-21.491,86.862,-28.359,14.319,9.374
21.95,-25.658,17.828,-9.538,11.39,7.7344,14.15,-1.5652,121.87,-40.869,36.237,-21.491,86.862,-28.359,14.319,9.374
22.029,-25.594,18.001,-9.4247,11.464,7.8059,14.239,-1.4575,122.05,-40.642,36.242,-21.441,87.034,-28.161,14.156,9.3673
22.029,-25.594,18.001,-9.4247,11.464,7.8059,14.239,-1.4575,122.05,-40.642,36.242,-21.441,87.034,-28.161,14.156,9.3673
22.107,-25.53,18.173,-9.3119,11.537,7.8772,14.327,-1.35,122.23,-40.415,36.247,-21.39,87.203,-27.963,13.993,9.3612
22.107,-25.53,18.173,-9.3119,11.537,7.8772,14.327,-1.35,122.23,-40.415,36.247,-21.39,87.203,-27.963,13.993,9.3612
22.107,-25.53,18.173,-9.3119,11.537,7.8772,14.327,-1.35,122.23,-40.415,36.247,-21.39,87.203,-27.963,13.993,9.3612
22.186,-25.465,18.345,-9.1996,11.61,7.9484,14.415,-1.2427,122.4,-40.19,36.252,-21.337,87.37,-27.766,13.83,9.3557
22.186,-25.465,18.345,-9.1996,11.61,7.9484,14.415,-1.2427,122.4,-40.19,36.252,-21.337,87.37,-27.766,13.83,9.3557
22.263,-25.399,18.515,-9.0879,11.683,8.0194,14.501,-1.1356,122.57,-39.964,36.256,-21.284,87.533,-27.571,13.667,9.3509
22.263,-25.399,18.515,-9.0879,11.683,8.0194,14.501,-1.1356,122.57,-39.964,36.256,-21.284,87.533,-27.571,13.667,9.3509
22.341,-25.333,18.685,-8.9767,11.755,8.0902,14.588,-1.0287,122.74,-39.739,36.259,-21.229,87.695,-27.375,13.504,9.3468
22.418,-25.267,18.854,-8.8661,11.826,8.1609,14.673,-0.92207,122.9,-39.515,36.263,-21.173,87.853,-27.181,13.341,9.3433
22.494,-25.2,19.022,-8.756,11.897,8.2314,14.758,-0.81566,123.06,-39.291,36.266,-21.115,88.009,-26.988,13.179,9.3404
22.494,-25.2,19.022,-8.756,11.897,8.2314,14.758,-0.81566,123.06,-39.291,36.266,-21.115,88.009,-26.988,13.179,9.3404
22.494,-25.2,19.022,-8.756,11.897,8.2314,14.758,-0.81566,123.06,-39.291,36.266,-21.115,88.009,-26.988,13.179,9.3404
22.494,-25.2,19.022,-8.756,11.897,8.2314,14.758,-0.81566,123.06,-39.291,36.266,-21.115,88.009,-26.988,13.179,9.3404
22.57,-25.133,19.189,-8.6465,11.968,8.3017,14.843,-0.70949,123.22,-39.067,36.268,-21.057,88.162,-26.795,13.017,9.3383
22.57,-25.133,19.189,-8.6465,11.968,8.3017,14.843,-0.70949,123.22,-39.067,36.268,-21.057,88.162,-26.795,13.017,9.3383
22.646,-25.065,19.356,-8.5376,12.037,8.3718,14.927,-0.60356,123.37,-38.844,36.27,-20.997,88.313,-26.603,12.855,9.3368
22.646,-25.065,19.356,-8.5376,12.037,8.3718,14.927,-0.60356,123.37,-38.844,36.27,-20.997,88.313,-26.603,12.855,9.3368
22.721,-24.997,19.522,-8.4292,12.107,8.4418,15.01,-0.49787,123.52,-38.622,36.272,-20.937,88.461,-26.412,12.693,9.3359
22.721,-24.997,19.522,-8.4292,12.107,8.4418,15.01,-0.49787,123.52,-38.622,36.272,-20.937,88.461,-26.412,12.693,9.3359
22.721,-24.997,19.522,-8.4292,12.107,8.4418,15.01,-0.49787,123.52,-38.622,36.272,-20.937,88.461,-26.412,12.693,9.3359
22.87,-24.859,19.85,-8.2143,12.243,8.5813,15.174,-0.28724,123.8,-38.178,36.274,-20.811,88.75,-26.032,12.369,9.3363
22.87,-24.859,19.85,-8.2143,12.243,8.5813,15.174,-0.28724,123.8,-38.178,36.274,-20.811,88.75,-26.032,12.369,9.3363
22.944,-24.79,20.013,-8.1077,12.311,8.6508,15.256,-0.1823,123.94,-37.957,36.275,-20.747,88.89,-25.843,12.208,9.3374
22.944,-24.79,20.013,-8.1077,12.311,8.6508,15.256,-0.1823,123.94,-37.957,36.275,-20.747,88.89,-25.843,12.208,9.3374
23.018,-24.72,20.175,-8.0018,12.378,8.7201,15.336,-0.077624,124.07,-37.736,36.275,-20.682,89.028,-25.655,12.047,9.3393
23.018,-24.72,20.175,-8.0018,12.378,8.7201,15.336,-0.077624,124.07,-37.736,36.275,-20.682,89.028,-25.655,12.047,9.3393
23.091,-24.65,20.337,-7.8964,12.444,8.7893,15.417,0.026789,124.2,-37.516,36.275,-20.615,89.163,-25.468,11.886,9.3419
23.091,-24.65,20.337,-7.8964,12.444,8.7893,15.417,0.026789,124.2,-37.516,36.275,-20.615,89.163,-25.468,11.886,9.3419
23.091,-24.65,20.337,-7.8964,12.444,8.7893,15.417,0.026789,124.2,-37.516,36.275,-20.615,89.163,-25.468,11.886,9.3419
23.163,-24.579,20.497,-7.7917,12.51,8.8582,15.496,0.13094,124.33,-37.296,36.274,-20.547,89.295,-25.282,11.725,9.3451
23.236,-24.508,20.657,-7.6877,12.576,8.927,15.575,0.23481,124.45,-37.076,36.273,-20.478,89.425,-25.096,11.564,9.349
23.236,-24.508,20.657,-7.6877,12.576,8.927,15.575,0.23481,124.45,-37.076,36.273,-20.478,89.425,-25.096,11.564,9.349
23.307,-24.436,20.815,-7.5842,12.64,8.9956,15.653,0.33841,124.57,-36.857,36.272,-20.408,89.552,-24.911,11.403,9.3536
23.307,-24.436,20.815,-7.5842,12.64,8.9956,15.653,0.33841,124.57,-36.857,36.272,-20.408,89.552,-24.911,11.403,9.3536
23.307,-24.436,20.815,-7.5842,12.64,8.9956,15.653,0.33841,124.57,-36.857,36.272,-20.408,89.552,-24.911,11.403,9.3536
23.379,-24.365,20.973,-7.4814,12.705,9.0641,15.73,0.44173,124.68,-36.638,36.27,-20.337,89.677,-24.727,11.243,9.3589
23.379,-24.365,20.973,-7.4814,12.705,9.0641,15.73,0.44173,124.68,-36.638,36.27,-20.337,89.677,-24.727,11.243,9.3589
23.45,-24.292,21.13,-7.3793,12.768,9.1323,15.807,0.54477,124.79,-36.42,36.268,-20.265,89.799,-24.544,11.083,9.3649
23.52,-24.22,21.286,-7.2778,12.831,9.2004,15.883,0.64752,124.9,-36.202,36.265,-20.192,89.919,-24.361,10.923,9.3716
23.52,-24.22,21.286,-7.2778,12.831,9.2004,15.883,0.64752,124.9,-36.202,36.265,-20.192,89.919,-24.361,10.923,9.3716
23.59,-24.147,21.441,-7.177,12.894,9.2683,15.959,0.74997,125.01,-35.984,36.262,-20.117,90.036,-24.179,10.763,9.379
23.59,-24.147,21.441,-7.177,12.894,9.2683,15.959,0.74997,125.01,-35.984,36.262,-20.117,90.036,-24.179,10.763,9.379
23.66,-24.073,21.595,-7.0769,12.956,9.336,16.034,0.85214,125.11,-35.767,36.259,-20.041,90.15,-23.998,10.604,9.387
23.66,-24.073,21.595,-7.0769,12.956,9.336,16.034,0.85214,125.11,-35.767,36.259,-20.041,90.15,-23.998,10.604,9.387
23.729,-24,21.748,-6.9775,13.017,9.4035,16.108,0.954,125.2,-35.55,36.255,-19.965,90.262,-23.818,10.444,9.3958
23.729,-24,21.748,-6.9775,13.017,9.4035,16.108,0.954,125.2,-35.55,36.255,-19.965,90.262,-23.818,10.444,9.3958
23.729,-24,21.748,-6.9775,13.017,9.4035,16.108,0.954,125.2,-35.55,36.255,-19.965,90.262,-23.818,10.444,9.3958
23.798,-23.926,21.9,-6.8788,13.077,9.4708,16.181,1.0556,125.3,-35.334,36.251,-19.887,90.372,-23.638,10.285,9.4053
23.866,-23.851,22.051,-6.7808,13.138,9.538,16.254,1.1568,125.39,-35.118,36.246,-19.808,90.478,-23.46,10.126,9.4155
23.866,-23.851,22.051,-6.7808,13.138,9.538,16.254,1.1568,125.39,-35.118,36.246,-19.808,90.478,-23.46,10.126,9.4155
23.866,-23.851,22.051,-6.7808,13.138,9.538,16.254,1.1568,125.39,-35.118,36.246,-19.808,90.478,-23.46,10.126,9.4155
23.934,-23.776,22.201,-6.6834,13.197,9.6049,16.326,1.2578,125.48,-34.902,36.241,-19.728,90.583,-23.282,9.9679,9.4263
23.934,-23.776,22.201,-6.6834,13.197,9.6049,16.326,1.2578,125.48,-34.902,36.241,-19.728,90.583,-23.282,9.9679,9.4263
24.001,-23.701,22.35,-6.5868,13.256,9.6717,16.398,1.3584,125.56,-34.687,36.236,-19.647,90.684,-23.104,9.8094,9.4379
24.068,-23.626,22.499,-6.491,13.314,9.7383,16.469,1.4587,125.64,-34.472,36.23,-19.565,90.783,-22.928,9.6512,9.4502
24.068,-23.626,22.499,-6.491,13.314,9.7383,16.469,1.4587,125.64,-34.472,36.23,-19.565,90.783,-22.928,9.6512,9.4502
24.134,-23.55,22.646,-6.3958,13.372,9.8047,16.539,1.5587,125.72,-34.257,36.223,-19.482,90.88,-22.752,9.4933,9.4632
24.134,-23.55,22.646,-6.3958,13.372,9.8047,16.539,1.5587,125.72,-34.257,36.223,-19.482,90.88,-22.752,9.4933,9.4632
24.134,-23.55,22.646,-6.3958,13.372,9.8047,16.539,1.5587,125.72,-34.257,36.223,-19.482,90.88,-22.752,9.4933,9.4632
24.2,-23.474,22.792,-6.3014,13.429,9.8708,16.608,1.6583,125.79,-34.043,36.217,-19.397,90.974,-22.577,9.3355,9.4769
24.2,-23.474,22.792,-6.3014,13.429,9.8708,16.608,1.6583,125.79,-34.043,36.217,-19.397,90.974,-22.577,9.3355,9.4769
24.266,-23.398,22.938,-6.2078,13.485,9.9368,16.677,1.7576,125.86,-33.829,36.21,-19.312,91.066,-22.403,9.1781,9.4912
24.266,-23.398,22.938,-6.2078,13.485,9.9368,16.677,1.7576,125.86,-33.829,36.21,-19.312,91.066,-22.403,9.1781,9.4912
24.395,-23.244,23.226,-6.0227,13.596,10.068,16.812,1.9553,125.99,-33.401,36.194,-19.138,91.241,-22.056,8.8638,9.5221
24.395,-23.244,23.226,-6.0227,13.596,10.068,16.812,1.9553,125.99,-33.401,36.194,-19.138,91.241,-22.056,8.8638,9.5221
24.395,-23.244,23.226,-6.0227,13.596,10.068,16.812,1.9553,125.99,-33.401,36.194,-19.138,91.241,-22.056,8.8638,9.5221
24.395,-23.244,23.226,-6.0227,13.596,10.068,16.812,1.9553,125.99,-33.401,36.194,-19.138,91.241,-22.056,8.8638,9.5221
24.459,-23.167,23.368,-5.9313,13.651,10.134,16.879,2.0536,126.05,-33.188,36.186,-19.05,91.325,-21.884,8.707,9.5386
24.459,-23.167,23.368,-5.9313,13.651,10.134,16.879,2.0536,126.05,-33.188,36.186,-19.05,91.325,-21.884,8.707,9.5386
24.459,-23.167,23.368,-5.9313,13.651,10.134,16.879,2.0536,126.05,-33.188,36.186,-19.05,91.325,-21.884,8.707,9.5386
24.459,-23.167,23.368,-5.9313,13.651,10.134,16.879,2.0536,126.05,-33.188,36.186,-19.05,91.325,-21.884,8.707,9.5386
24.586,-23.012,23.65,-5.7509,13.758,10.264,17.01,2.2491,126.17,-32.763,36.168,-18.87,91.486,-21.542,8.3943,9.5737
24.586,-23.012,23.65,-5.7509,13.758,10.264,17.01,2.2491,126.17,-32.763,36.168,-18.87,91.486,-21.542,8.3943,9.5737
24.586,-23.012,23.65,-5.7509,13.758,10.264,17.01,2.2491,126.17,-32.763,36.168,-18.87,91.486,-21.542,8.3943,9.5737
24.711,-22.856,23.927,-5.5737,13.863,10.393,17.138,2.4433,126.26,-32.338,36.148,-18.686,91.636,-21.202,8.0825,9.6116
24.711,-22.856,23.927,-5.5737,13.863,10.393,17.138,2.4433,126.26,-32.338,36.148,-18.686,91.636,-21.202,8.0825,9.6116
24.711,-22.856,23.927,-5.5737,13.863,10.393,17.138,2.4433,126.26,-32.338,36.148,-18.686,91.636,-21.202,8.0825,9.6116
24.773,-22.777,24.065,-5.4863,13.915,10.457,17.201,2.5398,126.31,-32.127,36.138,-18.593,91.708,-21.034,7.927,9.6316
24.773,-22.777,24.065,-5.4863,13.915,10.457,17.201,2.5398,126.31,-32.127,36.138,-18.593,91.708,-21.034,7.927,9.6316
24.834,-22.698,24.201,-5.3997,13.966,10.521,17.264,2.636,126.35,-31.915,36.127,-18.499,91.777,-20.866,7.7718,9.6523
24.834,-22.698,24.201,-5.3997,13.966,10.521,17.264,2.636,126.35,-31.915,36.127,-18.499,91.777,-20.866,7.7718,9.6523
24.895,-22.619,24.336,-5.3139,14.016,10.585,17.325,2.7317,126.39,-31.704,36.115,-18.403,91.843,-20.699,7.6168,9.6737
24.895,-22.619,24.336,-5.3139,14.016,10.585,17.325,2.7317,126.39,-31.704,36.115,-18.403,91.843,-20.699,7.6168,9.6737
24.955,-22.54,24.47,-5.2289,14.065,10.649,17.386,2.8272,126.43,-31.493,36.103,-18.307,91.908,-20.532,7.4621,9.6958
24.955,-22.54,24.47,-5.2289,14.065,10.649,17.386,2.8272,126.43,-31.493,36.103,-18.307,91.908,-20.532,7.4621,9.6958
25.015,-22.461,24.604,-5.1448,14.114,10.712,17.447,2.9222,126.46,-31.282,36.091,-18.21,91.969,-20.366,7.3077,9.7186
25.075,-22.381,24.736,-5.0615,14.163,10.775,17.506,3.0168,126.49,-31.071,36.079,-18.112,92.029,-20.201,7.1536,9.7421
25.075,-22.381,24.736,-5.0615,14.163,10.775,17.506,3.0168,126.49,-31.071,36.079,-18.112,92.029,-20.201,7.1536,9.7421
25.133,-22.301,24.867,-4.9791,14.21,10.838,17.565,3.1111,126.51,-30.861,36.065,-18.012,92.085,-20.037,6.9997,9.7663
25.133,-22.301,24.867,-4.9791,14.21,10.838,17.565,3.1111,126.51,-30.861,36.065,-18.012,92.085,-20.037,6.9997,9.7663
25.192,-22.221,24.997,-4.8975,14.257,10.901,17.623,3.205,126.54,-30.651,36.052,-17.912,92.14,-19.873,6.8461,9.7911
25.192,-22.221,24.997,-4.8975,14.257,10.901,17.623,3.205,126.54,-30.651,36.052,-17.912,92.14,-19.873,6.8461,9.7911
25.25,-22.141,25.125,-4.8168,14.304,10.964,17.68,3.2985,126.56,-30.441,36.038,-17.812,92.192,-19.71,6.6928,9.8167
25.25,-22.141,25.125,-4.8168,14.304,10.964,17.68,3.2985,126.56,-30.441,36.038,-17.812,92.192,-19.71,6.6928,9.8167
25.307,-22.06,25.253,-4.7369,14.349,11.026,17.737,3.3915,126.58,-30.231,36.023,-17.71,92.241,-19.548,6.5397,9.843
25.307,-22.06,25.253,-4.7369,14.349,11.026,17.737,3.3915,126.58,-30.231,36.023,-17.71,92.241,-19.548,6.5397,9.843
25.364,-21.98,25.38,-4.6579,14.394,11.088,17.793,3.4842,126.59,-30.022,36.009,-17.607,92.289,-19.386,6.387,9.8699
25.364,-21.98,25.38,-4.6579,14.394,11.088,17.793,3.4842,126.59,-30.022,36.009,-17.607,92.289,-19.386,6.387,9.8699
25.42,-21.899,25.506,-4.5798,14.439,11.15,17.848,3.5765,126.6,-29.812,35.993,-17.503,92.333,-19.225,6.2345,9.8975
25.42,-21.899,25.506,-4.5798,14.439,11.15,17.848,3.5765,126.6,-29.812,35.993,-17.503,92.333,-19.225,6.2345,9.8975
25.476,-21.818,25.63,-4.5026,14.482,11.211,17.902,3.6683,126.61,-29.603,35.977,-17.399,92.376,-19.064,6.0823,9.9258
25.476,-21.818,25.63,-4.5026,14.482,11.211,17.902,3.6683,126.61,-29.603,35.977,-17.399,92.376,-19.064,6.0823,9.9258
25.476,-21.818,25.63,-4.5026,14.482,11.211,17.902,3.6683,126.61,-29.603,35.977,-17.399,92.376,-19.064,6.0823,9.9258
25.532,-21.737,25.754,-4.4263,14.525,11.273,17.956,3.7598,126.62,-29.394,35.961,-17.294,92.416,-18.904,5.9305,9.9548
25.532,-21.737,25.754,-4.4263,14.525,11.273,17.956,3.7598,126.62,-29.394,35.961,-17.294,92.416,-18.904,5.9305,9.9548
25.587,-21.656,25.876,-4.3509,14.568,11.334,18.008,3.8508,126.62,-29.186,35.944,-17.187,92.453,-18.745,5.7789,9.9845
25.587,-21.656,25.876,-4.3509,14.568,11.334,18.008,3.8508,126.62,-29.186,35.944,-17.187,92.453,-18.745,5.7789,9.9845
25.641,-21.574,25.997,-4.2764,14.609,11.394,18.061,3.9414,126.62,-28.977,35.927,-17.08,92.489,-18.587,5.6276,10.015
25.695,-21.493,26.117,-4.2028,14.65,11.455,18.112,4.0316,126.62,-28.769,35.91,-16.973,92.522,-18.429,5.4766,10.046
25.695,-21.493,26.117,-4.2028,14.65,11.455,18.112,4.0316,126.62,-28.769,35.91,-16.973,92.522,-18.429,5.4766,10.046
25.749,-21.411,26.236,-4.1302,14.691,11.515,18.162,4.1214,126.61,-28.56,35.892,-16.864,92.552,-18.272,5.3259,10.078
25.749,-21.411,26.236,-4.1302,14.691,11.515,18.162,4.1214,126.61,-28.56,35.892,-16.864,92.552,-18.272,5.3259,10.078
25.749,-21.411,26.236,-4.1302,14.691,11.515,18.162,4.1214,126.61,-28.56,35.892,-16.864,92.552,-18.272,5.3259,10.078
25.749,-21.411,26.236,-4.1302,14.691,11.515,18.162,4.1214,126.61,-28.56,35.892,-16.864,92.552,-18.272,5.3259,10.078
25.801,-21.329,26.354,-4.0584,14.73,11.575,18.212,4.2107,126.61,-28.352,35.873,-16.754,92.58,-18.115,5.1755,10.11
25.801,-21.329,26.354,-4.0584,14.73,11.575,18.212,4.2107,126.61,-28.352,35.873,-16.754,92.58,-18.115,5.1755,10.11
25.906,-21.166,26.587,-3.9178,14.808,11.694,18.31,4.388,126.58,-27.936,35.835,-16.533,92.63,-17.804,4.8756,10.177
25.906,-21.166,26.587,-3.9178,14.808,11.694,18.31,4.388,126.58,-27.936,35.835,-16.533,92.63,-17.804,4.8756,10.177
25.957,-21.084,26.701,-3.8489,14.845,11.754,18.357,4.476,126.57,-27.728,35.815,-16.421,92.651,-17.649,4.7261,10.211
25.957,-21.084,26.701,-3.8489,14.845,11.754,18.357,4.476,126.57,-27.728,35.815,-16.421,92.651,-17.649,4.7261,10.211
25.957,-21.084,26.701,-3.8489,14.845,11.754,18.357,4.476,126.57,-27.728,35.815,-16.421,92.651,-17.649,4.7261,10.211
26.008,-21.001,26.814,-3.781,14.882,11.813,18.404,4.5636,126.55,-27.521,35.794,-16.309,92.67,-17.495,4.5769,10.246
26.008,-21.001,26.814,-3.781,14.882,11.813,18.404,4.5636,126.55,-27.521,35.794,-16.309,92.67,-17.495,4.5769,10.246
26.008,-21.001,26.814,-3.781,14.882,11.813,18.404,4.5636,126.55,-27.521,35.794,-16.309,92.67,-17.495,4.5769,10.246
26.058,-20.919,26.927,-3.714,14.918,11.871,18.45,4.6507,126.53,-27.313,35.774,-16.195,92.687,-17.342,4.428,10.282
26.108,-20.837,27.038,-3.648,14.954,11.93,18.495,4.7374,126.51,-27.106,35.752,-16.081,92.701,-17.189,4.2795,10.318
26.108,-20.837,27.038,-3.648,14.954,11.93,18.495,4.7374,126.51,-27.106,35.752,-16.081,92.701,-17.189,4.2795,10.318
26.157,-20.754,27.148,-3.5829,14.989,11.988,18.54,4.8236,126.48,-26.898,35.731,-15.967,92.713,-17.036,4.1312,10.355
26.157,-20.754,27.148,-3.5829,14.989,11.988,18.54,4.8236,126.48,-26.898,35.731,-15.967,92.713,-17.036,4.1312,10.355
26.157,-20.754,27.148,-3.5829,14.989,11.988,18.54,4.8236,126.48,-26.898,35.731,-15.967,92.713,-17.036,4.1312,10.355
26.254,-20.589,27.364,-3.4558,15.056,12.103,18.627,4.9946,126.42,-26.484,35.686,-15.735,92.73,-16.734,3.8357,10.431
26.254,-20.589,27.364,-3.4558,15.056,12.103,18.627,4.9946,126.42,-26.484,35.686,-15.735,92.73,-16.734,3.8357,10.431
26.254,-20.589,27.364,-3.4558,15.056,12.103,18.627,4.9946,126.42,-26.484,35.686,-15.735,92.73,-16.734,3.8357,10.431
26.302,-20.507,27.47,-3.3937,15.089,12.16,18.669,5.0794,126.39,-26.277,35.662,-15.618,92.736,-16.583,3.6884,10.47
26.302,-20.507,27.47,-3.3937,15.089,12.16,18.669,5.0794,126.39,-26.277,35.662,-15.618,92.736,-16.583,3.6884,10.47
26.302,-20.507,27.47,-3.3937,15.089,12.16,18.669,5.0794,126.39,-26.277,35.662,-15.618,92.736,-16.583,3.6884,10.47
26.349,-20.424,27.576,-3.3326,15.121,12.217,18.71,5.1637,126.36,-26.07,35.639,-15.5,92.739,-16.433,3.5414,10.509
26.349,-20.424,27.576,-3.3326,15.121,12.217,18.71,5.1637,126.36,-26.07,35.639,-15.5,92.739,-16.433,3.5414,10.509
26.442,-20.259,27.783,-3.2135,15.183,12.331,18.791,5.331,126.28,-25.656,35.59,-15.263,92.738,-16.135,3.2484,10.59
26.442,-20.259,27.783,-3.2135,15.183,12.331,18.791,5.331,126.28,-25.656,35.59,-15.263,92.738,-16.135,3.2484,10.59
26.487,-20.176,27.884,-3.1555,15.212,12.387,18.83,5.4139,126.23,-25.449,35.565,-15.143,92.735,-15.987,3.1024,10.631
26.487,-20.176,27.884,-3.1555,15.212,12.387,18.83,5.4139,126.23,-25.449,35.565,-15.143,92.735,-15.987,3.1024,10.631
26.532,-20.093,27.985,-3.0985,15.241,12.442,18.868,5.4963,126.19,-25.243,35.539,-15.023,92.729,-15.839,2.9567,10.673
26.532,-20.093,27.985,-3.0985,15.241,12.442,18.868,5.4963,126.19,-25.243,35.539,-15.023,92.729,-15.839,2.9567,10.673
26.577,-20.011,28.084,-3.0425,15.27,12.498,18.906,5.5782,126.14,-25.036,35.513,-14.902,92.721,-15.692,2.8114,10.716
26.577,-20.011,28.084,-3.0425,15.27,12.498,18.906,5.5782,126.14,-25.036,35.513,-14.902,92.721,-15.692,2.8114,10.716
26.621,-19.928,28.182,-2.9875,15.298,12.553,18.942,5.6597,126.09,-24.829,35.486,-14.781,92.711,-15.546,2.6664,10.759
26.621,-19.928,28.182,-2.9875,15.298,12.553,18.942,5.6597,126.09,-24.829,35.486,-14.781,92.711,-15.546,2.6664,10.759
26.664,-19.845,28.279,-2.9336,15.325,12.608,18.978,5.7406,126.04,-24.623,35.459,-14.659,92.699,-15.4,2.5217,10.803
26.664,-19.845,28.279,-2.9336,15.325,12.608,18.978,5.7406,126.04,-24.623,35.459,-14.659,92.699,-15.4,2.5217,10.803
26.664,-19.845,28.279,-2.9336,15.325,12.608,18.978,5.7406,126.04,-24.623,35.459,-14.659,92.699,-15.4,2.5217,10.803
26.707,-19.763,28.375,-2.8808,15.351,12.663,19.014,5.8211,125.99,-24.416,35.432,-14.536,92.684,-15.254,2.3773,10.847
26.749,-19.68,28.469,-2.829,15.376,12.717,19.048,5.901,125.93,-24.21,35.404,-14.413,92.668,-15.109,2.2333,10.892
