26807,54.3,20.046,0,0.024093,0,26920,48.536,0,0,0,0,0.015002,0
26807,54.3,20.046,0,0.024093,0,26920,48.536,0,0,0,0,0.015002,0
26807,54.3,20.046,0,0.024093,0,26920,48.536,0,0,0,0,0.015002,0
26807,54.3,20.046,0,0.024093,0,26920,48.536,0,0,0,0,0.015002,0
26807,54.3,20.046,0,0.024093,0,26920,48.536,0,0,0,0,0.015002,0
26808,54.3,20.047,0,0.023884,0,26920,48.536,0,0,0,0,0.015162,0
26808,54.3,20.047,0,0.023884,0,26920,48.536,0,0,0,0,0.015162,0
26808,54.3,20.047,0,0.023884,0,26920,48.536,0,0,0,0,0.015162,0
26808,54.3,20.047,0,0.023884,0,26920,48.536,0,0,0,0,0.015162,0
26809,54.3,20.048,0,0.023743,0,26920,48.536,0,0,0,0,0.015271,0
26809,54.3,20.048,0,0.023743,0,26920,48.536,0,0,0,0,0.015271,0
26809,54.3,20.048,0,0.023743,0,26920,48.536,0,0,0,0,0.015271,0
26809,54.3,20.048,0,0.023743,0,26920,48.536,0,0,0,0,0.015271,0
26809,54.3,20.048,0,0.023743,0,26920,48.536,0,0,0,0,0.015271,0
26809,54.3,20.048,0,0.023743,0,26920,48.536,0,0,0,0,0.015271,0
26809,54.3,20.048,0,0.023743,0,26920,48.536,0,0,0,0,0.015271,0
26809,54.3,20.048,0,0.023743,0,26920,48.536,0,0,0,0,0.015271,0
26809,54.3,20.048,0,0.023743,0,26920,48.536,0,0,0,0,0.015271,0
26809,54.3,20.048,0,0.023743,0,26920,48.536,0,0,0,0,0.015271,0
26809,54.3,20.048,0,0.023743,0,26920,48.536,0,0,0,0,0.015271,0
26812,54.3,20.052,0,0.023182,0,26920,48.536,0,0,0,0,0.015722,0
26812,54.3,20.052,0,0.023182,0,26920,48.536,0,0,0,0,0.015722,0
26812,54.3,20.052,0,0.023182,0,26920,48.536,0,0,0,0,0.015722,0
26812,54.3,20.052,0,0.023182,0,26920,48.536,0,0,0,0,0.015722,0
26812,54.3,20.052,0,0.023182,0,26920,48.536,0,0,0,0,0.015722,0
26812,54.3,20.052,0,0.023182,0,26920,48.536,0,0,0,0,0.015722,0
26812,54.3,20.052,0,0.023182,0,26920,48.536,0,0,0,0,0.015722,0
26812,54.3,20.052,0,0.023182,0,26920,48.536,0,0,0,0,0.015722,0
26812,54.3,20.052,0,0.023182,0,26920,48.536,0,0,0,0,0.015722,0
26812,54.3,20.052,0,0.023182,0,26920,48.536,0,0,0,0,0.015722,0
26812,54.3,20.052,0,0.023182,0,26920,48.536,0,0,0,0,0.015722,0
26813,54.3,20.053,0,0.023042,0,26920,48.536,0,0,0,0,0.015839,0
26813,54.3,20.053,0,0.023042,0,26920,48.536,0,0,0,0,0.015839,0
26813,54.3,20.053,0,0.023042,0,26920,48.536,0,0,0,0,0.015839,0
26813,54.3,20.053,0,0.023042,0,26920,48.536,0,0,0,0,0.015839,0
26813,54.3,20.053,0,0.023042,0,26920,48.536,0,0,0,0,0.015839,0
26815,54.3,20.055,0,0.022618,0,26920,48.536,0,0,0,0,0.016201,0
26815,54.3,20.055,0,0.022618,0,26920,48.536,0,0,0,0,0.016201,0
26815,54.3,20.055,0,0.022618,0,26920,48.536,0,0,0,0,0.016201,0
26815,54.3,20.055,0,0.022618,0,26920,48.536,0,0,0,0,0.016201,0
26815,54.3,20.055,0,0.022618,0,26920,48.536,0,0,0,0,0.016201,0
26815,54.3,20.055,0,0.022618,0,26920,48.536,0,0,0,0,0.016201,0
26815,54.3,20.055,0,0.022618,0,26920,48.536,0,0,0,0,0.016201,0
26815,54.3,20.055,0,0.022618,0,26920,48.536,0,0,0,0,0.016201,0
26815,54.3,20.055,0,0.022618,0,26920,48.536,0,0,0,0,0.016201,0
26815,54.3,20.055,0,0.022618,0,26920,48.536,0,0,0,0,0.016201,0
26815,54.3,20.055,0,0.022618,0,26920,48.536,0,0,0,0,0.016201,0
26815,54.3,20.055,0,0.022618,0,26920,48.536,0,0,0,0,0.016201,0
26815,54.3,20.055,0,0.022618,0,26920,48.536,0,0,0,0,0.016201,0
26815,54.3,20.055,0,0.022618,0,26920,48.536,0,0,0,0,0.016201,0
26817,54.3,20.057,0,0.022333,0,26920,48.536,0,0,0,0,0.016451,0
26817,54.3,20.057,0,0.022333,0,26920,48.536,0,0,0,0,0.016451,0
26817,54.3,20.057,0,0.022333,0,26920,48.536,0,0,0,0,0.016451,0
26817,54.3,20.057,0,0.022333,0,26920,48.536,0,0,0,0,0.016451,0
26817,54.3,20.057,0,0.022333,0,26920,48.536,0,0,0,0,0.016451,0
26817,54.3,20.057,0,0.022333,0,26920,48.536,0,0,0,0,0.016451,0
26817,54.3,20.057,0,0.022333,0,26920,48.536,0,0,0,0,0.016451,0
26817,54.3,20.057,0,0.022333,0,26920,48.536,0,0,0,0,0.016451,0
26817,54.3,20.057,0,0.022333,0,26920,48.536,0,0,0,0,0.016451,0
26817,54.3,20.058,0,0.022191,0,26920,48.536,0,0,0,0,0.016579,0
26819,54.3,20.06,0,0.021905,0,26920,48.536,0,0,0,0,0.016841,0
26819,54.3,20.06,0,0.021905,0,26920,48.536,0,0,0,0,0.016841,0
26820,54.3,20.061,0,0.02169,0,26920,48.536,0,0,0,0,0.017044,0
26820,54.3,20.061,0,0.02169,0,26920,48.536,0,0,0,0,0.017044,0
26820,54.3,20.061,0,0.02169,0,26920,48.536,0,0,0,0,0.017044,0
26820,54.3,20.061,0,0.02169,0,26920,48.536,0,0,0,0,0.017044,0
26820,54.3,20.061,0,0.02169,0,26920,48.536,0,0,0,0,0.017044,0
26820,54.3,20.061,0,0.02169,0,26920,48.536,0,0,0,0,0.017044,0
26820,54.3,20.061,0,0.02169,0,26920,48.536,0,0,0,0,0.017044,0
26820,54.3,20.061,0,0.02169,0,26920,48.536,0,0,0,0,0.017044,0
26820,54.3,20.061,0,0.02169,0,26920,48.536,0,0,0,0,0.017044,0
26820,54.3,20.061,0,0.02169,0,26920,48.536,0,0,0,0,0.017044,0
26821,54.3,20.062,0,0.021474,0,26920,48.536,0,0,0,0,0.017251,0
26821,54.3,20.062,0,0.021474,0,26920,48.536,0,0,0,0,0.017251,0
26821,54.3,20.062,0,0.021474,0,26920,48.536,0,0,0,0,0.017251,0
26822,54.3,20.063,0,0.021402,0,26920,48.536,0,0,0,0,0.017321,0
26822,54.3,20.063,0,0.021402,0,26920,48.536,0,0,0,0,0.017321,0
26822,54.3,20.063,0,0.021402,0,26920,48.536,0,0,0,0,0.017321,0
26822,54.3,20.063,0,0.021402,0,26920,48.536,0,0,0,0,0.017321,0
26822,54.3,20.063,0,0.021402,0,26920,48.536,0,0,0,0,0.017321,0
26822,54.3,20.063,0,0.021402,0,26920,48.536,0,0,0,0,0.017321,0
26822,54.3,20.063,0,0.021402,0,26920,48.536,0,0,0,0,0.017321,0
26822,54.3,20.063,0,0.021402,0,26920,48.536,0,0,0,0,0.017321,0
26823,54.3,20.065,0,0.021113,0,26920,48.536,0,0,0,0,0.017608,0
26824,54.3,20.065,0,0.021041,0,26920,48.536,0,0,0,0,0.017681,0
26824,54.3,20.065,0,0.020968,0,26920,48.536,0,0,0,0,0.017755,0
26824,54.3,20.065,0,0.020968,0,26920,48.536,0,0,0,0,0.017755,0
26825,54.3,20.067,0,0.020752,0,26920,48.536,0,0,0,0,0.01798,0
26826,54.3,20.067,0,0.020679,0,26920,48.536,0,0,0,0,0.018056,0
26826,54.3,20.067,0,0.020679,0,26920,48.536,0,0,0,0,0.018056,0
26826,54.3,20.067,0,0.020679,0,26920,48.536,0,0,0,0,0.018056,0
26826,54.3,20.067,0,0.020679,0,26920,48.536,0,0,0,0,0.018056,0
26826,54.3,20.067,0,0.020679,0,26920,48.536,0,0,0,0,0.018056,0
26826,54.3,20.067,0,0.020679,0,26920,48.536,0,0,0,0,0.018056,0
26826,54.3,20.067,0,0.020679,0,26920,48.536,0,0,0,0,0.018056,0
26826,54.3,20.067,0,0.020679,0,26920,48.536,0,0,0,0,0.018056,0
26826,54.3,20.067,0,0.020679,0,26920,48.536,0,0,0,0,0.018056,0
26826,54.3,20.067,0,0.020606,0,26920,48.536,0,0,0,0,0.018133,0
26826,54.3,20.067,0,0.020606,0,26920,48.536,0,0,0,0,0.018133,0
26826,54.3,20.067,0,0.020606,0,26920,48.536,0,0,0,0,0.018133,0
26826,54.3,20.067,0,0.020606,0,26920,48.536,0,0,0,0,0.018133,0
26826,54.3,20.067,0,0.020606,0,26920,48.536,0,0,0,0,0.018133,0
26826,54.3,20.067,0,0.020606,0,26920,48.536,0,0,0,0,0.018133,0
26826,54.3,20.067,0,0.020606,0,26920,48.536,0,0,0,0,0.018133,0
26826,54.3,20.067,0,0.020606,0,26920,48.536,0,0,0,0,0.018133,0
26826,54.3,20.067,0,0.020606,0,26920,48.536,0,0,0,0,0.018133,0
26826,54.3,20.067,0,0.020606,0,26920,48.536,0,0,0,0,0.018133,0
26826,54.3,20.067,0,0.020606,0,26920,48.536,0,0,0,0,0.018133,0
26826,54.3,20.067,0,0.020606,0,26920,48.536,0,0,0,0,0.018133,0
26828,54.3,20.069,0,0.020243,0,26920,48.536,0,0,0,0,0.018528,0
26828,54.3,20.069,0,0.020243,0,26920,48.536,0,0,0,0,0.018528,0
26829,54.3,20.071,0,0.020024,0,26920,48.536,0,0,0,0,0.018773,0
26829,54.3,20.071,0,0.020024,0,26920,48.536,0,0,0,0,0.018773,0
26831,54.3,20.072,0,0.019804,0,26920,48.536,0,0,0,0,0.019024,0
26831,54.3,20.072,0,0.019804,0,26920,48.536,0,0,0,0,0.019024,0
26831,54.3,20.072,0,0.019731,0,26920,48.536,0,0,0,0,0.01911,0
26831,54.3,20.072,0,0.019731,0,26920,48.536,0,0,0,0,0.01911,0
26831,54.3,20.073,0,0.019657,0,26920,48.536,0,0,0,0,0.019196,0
26831,54.3,20.073,0,0.019657,0,26920,48.536,0,0,0,0,0.019196,0
26831,54.3,20.073,0,0.019657,0,26920,48.536,0,0,0,0,0.019196,0
26831,54.3,20.073,0,0.019657,0,26920,48.536,0,0,0,0,0.019196,0
26831,54.3,20.073,0,0.019657,0,26920,48.536,0,0,0,0,0.019196,0
26831,54.3,20.073,0,0.019657,0,26920,48.536,0,0,0,0,0.019196,0
26831,54.3,20.073,0,0.019657,0,26920,48.536,0,0,0,0,0.019196,0
26831,54.3,20.073,0,0.019657,0,26920,48.536,0,0,0,0,0.019196,0
26831,54.3,20.073,0,0.019657,0,26920,48.536,0,0,0,0,0.019196,0
26831,54.3,20.073,0,0.019657,0,26920,48.536,0,0,0,0,0.019196,0
26831,54.3,20.073,0,0.019657,0,26920,48.536,0,0,0,0,0.019196,0
26831,54.3,20.073,0,0.019657,0,26920,48.536,0,0,0,0,0.019196,0
26831,54.3,20.073,0,0.019657,0,26920,48.536,0,0,0,0,0.019196,0
26831,54.3,20.073,0,0.019657,0,26920,48.536,0,0,0,0,0.019196,0
26831,54.3,20.073,0,0.019657,0,26920,48.536,0,0,0,0,0.019196,0
26833,54.3,20.075,0,0.019289,0,26920,48.536,0,0,0,0,0.019639,0
26833,54.3,20.075,0,0.019289,0,26920,48.536,0,0,0,0,0.019639,0
26835,54.3,20.076,0,0.018994,0,26920,48.536,0,0,0,0,0.020008,0
26835,54.3,20.076,0,0.018994,0,26920,48.536,0,0,0,0,0.020008,0
26835,54.3,20.076,0,0.018994,0,26920,48.536,0,0,0,0,0.020008,0
26835,54.3,20.076,0,0.018994,0,26920,48.536,0,0,0,0,0.020008,0
26835,54.3,20.076,0,0.018994,0,26920,48.536,0,0,0,0,0.020008,0
26835,54.3,20.076,0,0.018994,0,26920,48.536,0,0,0,0,0.020008,0
26835,54.3,20.076,0,0.018994,0,26920,48.536,0,0,0,0,0.020008,0
26835,54.3,20.076,0,0.018994,0,26920,48.536,0,0,0,0,0.020008,0
26835,54.3,20.076,0,0.018994,0,26920,48.536,0,0,0,0,0.020008,0
26835,54.3,20.076,0,0.018994,0,26920,48.536,0,0,0,0,0.020008,0
26836,54.3,20.077,0,0.018846,0,26920,48.536,0,0,0,0,0.020198,0
26836,54.3,20.077,0,0.018846,0,26920,48.536,0,0,0,0,0.020198,0
26836,54.3,20.077,0,0.018846,0,26920,48.536,0,0,0,0,0.020198,0
26836,54.3,20.077,0,0.018846,0,26920,48.536,0,0,0,0,0.020198,0
26836,54.3,20.077,0,0.018846,0,26920,48.536,0,0,0,0,0.020198,0
26836,54.3,20.077,0,0.018846,0,26920,48.536,0,0,0,0,0.020198,0
26836,54.3,20.077,0,0.018846,0,26920,48.536,0,0,0,0,0.020198,0
26836,54.3,20.077,0,0.018846,0,26920,48.536,0,0,0,0,0.020198,0
26836,54.3,20.077,0,0.018846,0,26920,48.536,0,0,0,0,0.020198,0
26836,54.3,20.077,0,0.018846,0,26920,48.536,0,0,0,0,0.020198,0
26836,54.3,20.077,0,0.018846,0,26920,48.536,0,0,0,0,0.020198,0
26836,54.3,20.077,0,0.018846,0,26920,48.536,0,0,0,0,0.020198,0
26836,54.3,20.077,0,0.018846,0,26920,48.536,0,0,0,0,0.020198,0
26836,54.3,20.077,0,0.018846,0,26920,48.536,0,0,0,0,0.020198,0
26838,54.3,20.079,0,0.018476,0,26920,48.536,0,0,0,0,0.020689,0
26838,54.3,20.079,0,0.018476,0,26920,48.536,0,0,0,0,0.020689,0
26839,54.3,20.08,0,0.018178,0,26920,48.536,0,0,0,0,0.021099,0
26840,54.3,20.081,0,0.018029,0,26920,48.536,0,0,0,0,0.021311,0
26840,54.3,20.081,0,0.018029,0,26920,48.536,0,0,0,0,0.021311,0
26840,54.3,20.081,0,0.018029,0,26920,48.536,0,0,0,0,0.021311,0
26840,54.3,20.081,0,0.018029,0,26920,48.536,0,0,0,0,0.021311,0
26840,54.3,20.081,0,0.018029,0,26920,48.536,0,0,0,0,0.021311,0
26840,54.3,20.081,0,0.018029,0,26920,48.536,0,0,0,0,0.021311,0
26840,54.3,20.081,0,0.018029,0,26920,48.536,0,0,0,0,0.021311,0
26840,54.3,20.081,0,0.018029,0,26920,48.536,0,0,0,0,0.021311,0
26840,54.3,20.081,0,0.018029,0,26920,48.536,0,0,0,0,0.021311,0
26840,54.3,20.081,0,0.018029,0,26920,48.536,0,0,0,0,0.021311,0
26840,54.3,20.081,0,0.018029,0,26920,48.536,0,0,0,0,0.021311,0
26840,54.3,20.081,0,0.018029,0,26920,48.536,0,0,0,0,0.021311,0
26840,54.3,20.081,0,0.018029,0,26920,48.536,0,0,0,0,0.021311,0
26840,54.3,20.081,0,0.018029,0,26920,48.536,0,0,0,0,0.021311,0
26841,54.3,20.082,0,0.017805,0,26920,48.536,0,0,0,0,0.021636,0
26841,54.3,20.082,0,0.017805,0,26920,48.536,0,0,0,0,0.021636,0
26841,54.3,20.082,0,0.017805,0,26920,48.536,0,0,0,0,0.021636,0
26841,54.3,20.082,0,0.017805,0,26920,48.536,0,0,0,0,0.021636,0
26841,54.3,20.082,0,0.017805,0,26920,48.536,0,0,0,0,0.021636,0
26842,54.3,20.083,0,0.017655,0,26920,48.536,0,0,0,0,0.021858,0
26843,54.3,20.083,0,0.017581,0,26920,48.536,0,0,0,0,0.021971,0
26844,54.3,20.084,0,0.01728,0,26920,48.536,0,0,0,0,0.022434,0
26844,54.3,20.084,0,0.01728,0,26920,48.536,0,0,0,0,0.022434,0
26844,54.3,20.084,0,0.01728,0,26920,48.536,0,0,0,0,0.022434,0
26844,54.3,20.084,0,0.01728,0,26920,48.536,0,0,0,0,0.022434,0
26844,54.3,20.084,0,0.01728,0,26920,48.536,0,0,0,0,0.022434,0
26844,54.3,20.084,0,0.01728,0,26920,48.536,0,0,0,0,0.022434,0
26844,54.3,20.084,0,0.01728,0,26920,48.536,0,0,0,0,0.022434,0
26844,54.3,20.084,0,0.01728,0,26920,48.536,0,0,0,0,0.022434,0
26844,54.3,20.084,0,0.01728,0,26920,48.536,0,0,0,0,0.022434,0
26844,54.3,20.084,0,0.01728,0,26920,48.536,0,0,0,0,0.022434,0
26845,54.3,20.086,0,0.017054,0,26920,48.536,0,0,0,0,0.022794,0
26845,54.3,20.086,0,0.017054,0,26920,48.536,0,0,0,0,0.022794,0
26845,54.3,20.086,0,0.017054,0,26920,48.536,0,0,0,0,0.022794,0
26845,54.3,20.086,0,0.017054,0,26920,48.536,0,0,0,0,0.022794,0
26845,54.3,20.086,0,0.017054,0,26920,48.536,0,0,0,0,0.022794,0
26845,54.3,20.086,0,0.017054,0,26920,48.536,0,0,0,0,0.022794,0
26845,54.3,20.086,0,0.017054,0,26920,48.536,0,0,0,0,0.022794,0
26845,54.3,20.086,0,0.017054,0,26920,48.536,0,0,0,0,0.022794,0
26845,54.3,20.086,0,0.017054,0,26920,48.536,0,0,0,0,0.022794,0
26845,54.3,20.086,0,0.017054,0,26920,48.536,0,0,0,0,0.022794,0
26845,54.3,20.086,0,0.017054,0,26920,48.536,0,0,0,0,0.022794,0
26845,54.3,20.086,0,0.017054,0,26920,48.536,0,0,0,0,0.022794,0
26845,54.3,20.086,0,0.017054,0,26920,48.536,0,0,0,0,0.022794,0
26845,54.3,20.086,0,0.017054,0,26920,48.536,0,0,0,0,0.022794,0
26847,54.3,20.087,0,0.016677,0,26920,48.536,0,0,0,0,0.023421,0
26848,54.3,20.088,0,0.016526,0,26920,48.536,0,0,0,0,0.023682,0
26848,54.3,20.088,0,0.016526,0,26920,48.536,0,0,0,0,0.023682,0
26848,54.3,20.088,0,0.016526,0,26920,48.536,0,0,0,0,0.023682,0
26848,54.3,20.088,0,0.016526,0,26920,48.536,0,0,0,0,0.023682,0
26850,54.3,20.09,0,0.016148,0,26920,48.536,0,0,0,0,0.024359,0
26850,54.3,20.09,0,0.016148,0,26920,48.536,0,0,0,0,0.024359,0
26850,54.3,20.09,0,0.016148,0,26920,48.536,0,0,0,0,0.024359,0
26850,54.3,20.09,0,0.016148,0,26920,48.536,0,0,0,0,0.024359,0
26850,54.3,20.09,0,0.016148,0,26920,48.536,0,0,0,0,0.024359,0
26850,54.3,20.09,0,0.016148,0,26920,48.536,0,0,0,0,0.024359,0
26850,54.3,20.09,0,0.016148,0,26920,48.536,0,0,0,0,0.024359,0
26851,54.3,20.09,0,0.016071,0,26920,48.536,0,0,0,0,0.024499,0
26851,54.3,20.09,0,0.016071,0,26920,48.536,0,0,0,0,0.024499,0
26851,54.3,20.09,0,0.016071,0,26920,48.536,0,0,0,0,0.024499,0
26851,54.3,20.09,0,0.016071,0,26920,48.536,0,0,0,0,0.024499,0
26851,54.3,20.09,0,0.016071,0,26920,48.536,0,0,0,0,0.024499,0
26851,54.3,20.09,0,0.016071,0,26920,48.536,0,0,0,0,0.024499,0
26851,54.3,20.09,0,0.016071,0,26920,48.536,0,0,0,0,0.024499,0
26851,54.3,20.09,0,0.016071,0,26920,48.536,0,0,0,0,0.024499,0
26851,54.3,20.09,0,0.016071,0,26920,48.536,0,0,0,0,0.024499,0
26852,54.3,20.091,0,0.015767,0,26920,48.536,0,0,0,0,0.025076,0
26853,54.3,20.092,0,0.015614,0,26920,48.536,0,0,0,0,0.025375,0
26853,54.3,20.092,0,0.015614,0,26920,48.536,0,0,0,0,0.025375,0
26854,54.3,20.092,0,0.015461,0,26920,48.536,0,0,0,0,0.025681,0
26854,54.3,20.092,0,0.015461,0,26920,48.536,0,0,0,0,0.025681,0
26854,54.3,20.092,0,0.015461,0,26920,48.536,0,0,0,0,0.025681,0
26854,54.3,20.092,0,0.015461,0,26920,48.536,0,0,0,0,0.025681,0
26854,54.3,20.092,0,0.015461,0,26920,48.536,0,0,0,0,0.025681,0
26854,54.3,20.092,0,0.015461,0,26920,48.536,0,0,0,0,0.025681,0
26854,54.3,20.092,0,0.015461,0,26920,48.536,0,0,0,0,0.025681,0
26854,54.3,20.092,0,0.015461,0,26920,48.536,0,0,0,0,0.025681,0
26854,54.3,20.092,0,0.015461,0,26920,48.536,0,0,0,0,0.025681,0
26854,54.3,20.092,0,0.015461,0,26920,48.536,0,0,0,0,0.025681,0
26854,54.3,20.092,0,0.015461,0,26920,48.536,0,0,0,0,0.025681,0
26854,54.3,20.092,0,0.015461,0,26920,48.536,0,0,0,0,0.025681,0
26854,54.3,20.092,0,0.015461,0,26920,48.536,0,0,0,0,0.025681,0
26854,54.3,20.092,0,0.015461,0,26920,48.536,0,0,0,0,0.025681,0
26855,54.3,20.094,0,0.015155,0,26920,48.536,0,0,0,0,0.026316,0
26855,54.3,20.094,0,0.015155,0,26920,48.536,0,0,0,0,0.026316,0
26855,54.3,20.094,0,0.015155,0,26920,48.536,0,0,0,0,0.026316,0
26855,54.3,20.094,0,0.015155,0,26920,48.536,0,0,0,0,0.026316,0
26855,54.3,20.094,0,0.015155,0,26920,48.536,0,0,0,0,0.026316,0
26855,54.3,20.094,0,0.015155,0,26920,48.536,0,0,0,0,0.026316,0
26855,54.3,20.094,0,0.015155,0,26920,48.536,0,0,0,0,0.026316,0
26856,54.3,20.094,0,0.015079,0,26920,48.536,0,0,0,0,0.02648,0
26856,54.3,20.094,0,0.015079,0,26920,48.536,0,0,0,0,0.02648,0
26856,54.3,20.094,0,0.015079,0,26920,48.536,0,0,0,0,0.02648,0
26857,54.3,20.095,0,0.014771,0,26920,48.536,0,0,0,0,0.027155,0
26858,54.3,20.096,0,0.014618,0,26920,48.536,0,0,0,0,0.027505,0
26859,54.3,20.097,0,0.014388,0,26920,48.536,0,0,0,0,0.028049,0
26859,54.3,20.097,0,0.014388,0,26920,48.536,0,0,0,0,0.028049,0
26859,54.3,20.097,0,0.014388,0,26920,48.536,0,0,0,0,0.028049,0
26859,54.3,20.097,0,0.014388,0,26920,48.536,0,0,0,0,0.028049,0
26859,54.3,20.097,0,0.014388,0,26920,48.536,0,0,0,0,0.028049,0
26859,54.3,20.097,0,0.014388,0,26920,48.536,0,0,0,0,0.028049,0
26859,54.3,20.097,0,0.014388,0,26920,48.536,0,0,0,0,0.028049,0
26859,54.3,20.097,0,0.014388,0,26920,48.536,0,0,0,0,0.028049,0
26859,54.3,20.097,0,0.014388,0,26920,48.536,0,0,0,0,0.028049,0
26859,54.3,20.097,0,0.014388,0,26920,48.536,0,0,0,0,0.028049,0
26860,54.3,20.097,0,0.014234,0,26920,48.536,0,0,0,0,0.028423,0
26860,54.3,20.097,0,0.014234,0,26920,48.536,0,0,0,0,0.028423,0
26860,54.3,20.097,0,0.014234,0,26920,48.536,0,0,0,0,0.028423,0
26860,54.3,20.097,0,0.014234,0,26920,48.536,0,0,0,0,0.028423,0
26860,54.3,20.097,0,0.014234,0,26920,48.536,0,0,0,0,0.028423,0
26860,54.3,20.097,0,0.014234,0,26920,48.536,0,0,0,0,0.028423,0
26860,54.3,20.097,0,0.014234,0,26920,48.536,0,0,0,0,0.028423,0
26860,54.3,20.097,0,0.014234,0,26920,48.536,0,0,0,0,0.028423,0
26860,54.3,20.097,0,0.014234,0,26920,48.536,0,0,0,0,0.028423,0
26860,54.3,20.097,0,0.014234,0,26920,48.536,0,0,0,0,0.028423,0
26860,54.3,20.097,0,0.014234,0,26920,48.536,0,0,0,0,0.028423,0
26860,54.3,20.097,0,0.014234,0,26920,48.536,0,0,0,0,0.028423,0
26860,54.3,20.097,0,0.014234,0,26920,48.536,0,0,0,0,0.028423,0
26860,54.3,20.097,0,0.014234,0,26920,48.536,0,0,0,0,0.028423,0
26860,54.3,20.097,0,0.014234,0,26920,48.536,0,0,0,0,0.028423,0
26862,54.3,20.099,0,0.013848,0,26920,48.536,0,0,0,0,0.029403,0
26864,54.3,20.099,0,0.013616,0,26920,48.536,0,0,0,0,0.030024,0
26864,54.3,20.099,0,0.013616,0,26920,48.536,0,0,0,0,0.030024,0
26865,54.3,20.1,0,0.013384,0,26920,48.536,0,0,0,0,0.030672,0
26865,54.3,20.1,0,0.013384,0,26920,48.536,0,0,0,0,0.030672,0
26865,54.3,20.1,0,0.013384,0,26920,48.536,0,0,0,0,0.030672,0
26865,54.3,20.1,0,0.013384,0,26920,48.536,0,0,0,0,0.030672,0
26865,54.3,20.1,0,0.013384,0,26920,48.536,0,0,0,0,0.030672,0
26865,54.3,20.1,0,0.013384,0,26920,48.536,0,0,0,0,0.030672,0
26865,54.3,20.1,0,0.013384,0,26920,48.536,0,0,0,0,0.030672,0
26865,54.3,20.1,0,0.013384,0,26920,48.536,0,0,0,0,0.030672,0
26865,54.3,20.1,0,0.013384,0,26920,48.536,0,0,0,0,0.030672,0
26865,54.3,20.1,0,0.013384,0,26920,48.536,0,0,0,0,0.030672,0
26865,54.3,20.1,0,0.013384,0,26920,48.536,0,0,0,0,0.030672,0
26865,54.3,20.1,0,0.013384,0,26920,48.536,0,0,0,0,0.030672,0
26866,54.3,20.101,0,0.013151,0,26920,48.536,0,0,0,0,0.031349,0
26866,54.3,20.101,0,0.013151,0,26920,48.536,0,0,0,0,0.031349,0
26866,54.3,20.101,0,0.013151,0,26920,48.536,0,0,0,0,0.031349,0
26866,54.3,20.101,0,0.013151,0,26920,48.536,0,0,0,0,0.031349,0
26866,54.3,20.101,0,0.013151,0,26920,48.536,0,0,0,0,0.031349,0
26866,54.3,20.101,0,0.013151,0,26920,48.536,0,0,0,0,0.031349,0
26866,54.3,20.101,0,0.013151,0,26920,48.536,0,0,0,0,0.031349,0
26866,54.3,20.101,0,0.013073,0,26920,48.536,0,0,0,0,0.031581,0
26866,54.3,20.101,0,0.013073,0,26920,48.536,0,0,0,0,0.031581,0
26866,54.3,20.101,0,0.013073,0,26920,48.536,0,0,0,0,0.031581,0
26868,54.3,20.102,0,0.012762,0,26920,48.536,0,0,0,0,0.032544,0
26868,54.3,20.102,0,0.012762,0,26920,48.536,0,0,0,0,0.032544,0
26870,54.3,20.103,0,0.012451,0,26920,48.536,0,0,0,0,0.033568,0
26870,54.3,20.103,0,0.012373,0,26920,48.536,0,0,0,0,0.033835,0
26870,54.3,20.103,0,0.012373,0,26920,48.536,0,0,0,0,0.033835,0
26870,54.3,20.103,0,0.012373,0,26920,48.536,0,0,0,0,0.033835,0
26870,54.3,20.103,0,0.012373,0,26920,48.536,0,0,0,0,0.033835,0
26870,54.3,20.103,0,0.012373,0,26920,48.536,0,0,0,0,0.033835,0
26870,54.3,20.103,0,0.012373,0,26920,48.536,0,0,0,0,0.033835,0
26870,54.3,20.103,0,0.012373,0,26920,48.536,0,0,0,0,0.033835,0
26870,54.3,20.103,0,0.012373,0,26920,48.536,0,0,0,0,0.033835,0
26870,54.3,20.103,0,0.012373,0,26920,48.536,0,0,0,0,0.033835,0
26870,54.3,20.103,0,0.012373,0,26920,48.536,0,0,0,0,0.033835,0
26870,54.3,20.103,0,0.012373,0,26920,48.536,0,0,0,0,0.033835,0
26870,54.3,20.103,0,0.012373,0,26920,48.536,0,0,0,0,0.033835,0
26870,54.3,20.103,0,0.012373,0,26920,48.536,0,0,0,0,0.033835,0
26871,54.3,20.104,0,0.012139,0,26920,48.536,0,0,0,0,0.034659,0
26871,54.3,20.104,0,0.012139,0,26920,48.536,0,0,0,0,0.034659,0
26871,54.3,20.104,0,0.012139,0,26920,48.536,0,0,0,0,0.034659,0
26871,54.3,20.104,0,0.012139,0,26920,48.536,0,0,0,0,0.034659,0
26871,54.3,20.104,0,0.012139,0,26920,48.536,0,0,0,0,0.034659,0
26871,54.3,20.104,0,0.012139,0,26920,48.536,0,0,0,0,0.034659,0
26871,54.3,20.104,0,0.012139,0,26920,48.536,0,0,0,0,0.034659,0
26872,54.3,20.104,0,0.01206,0,26920,48.536,0,0,0,0,0.034942,0
26872,54.3,20.104,0,0.01206,0,26920,48.536,0,0,0,0,0.034942,0
26872,54.3,20.105,0,0.011903,0,26920,48.536,0,0,0,0,0.035523,0
26872,54.3,20.105,0,0.011903,0,26920,48.536,0,0,0,0,0.035523,0
26874,54.3,20.106,0,0.011669,0,26920,48.536,0,0,0,0,0.036432,0
26874,54.3,20.106,0,0.011669,0,26920,48.536,0,0,0,0,0.036432,0
26875,54.3,20.106,0,0.011433,0,26920,48.536,0,0,0,0,0.037389,0
26875,54.3,20.106,0,0.011433,0,26920,48.536,0,0,0,0,0.037389,0
26875,54.3,20.106,0,0.011433,0,26920,48.536,0,0,0,0,0.037389,0
26875,54.3,20.106,0,0.011433,0,26920,48.536,0,0,0,0,0.037389,0
26875,54.3,20.106,0,0.011433,0,26920,48.536,0,0,0,0,0.037389,0
26875,54.3,20.106,0,0.011433,0,26920,48.536,0,0,0,0,0.037389,0
26875,54.3,20.106,0,0.011433,0,26920,48.536,0,0,0,0,0.037389,0
26875,54.3,20.106,0,0.011433,0,26920,48.536,0,0,0,0,0.037389,0
26875,54.3,20.106,0,0.011433,0,26920,48.536,0,0,0,0,0.037389,0
26875,54.3,20.106,0,0.011433,0,26920,48.536,0,0,0,0,0.037389,0
26876,54.3,20.107,0,0.011119,0,26920,48.536,0,0,0,0,0.038744,0
26876,54.3,20.107,0,0.011119,0,26920,48.536,0,0,0,0,0.038744,0
26876,54.3,20.107,0,0.011119,0,26920,48.536,0,0,0,0,0.038744,0
26876,54.3,20.107,0,0.011119,0,26920,48.536,0,0,0,0,0.038744,0
26876,54.3,20.107,0,0.011119,0,26920,48.536,0,0,0,0,0.038744,0
26876,54.3,20.107,0,0.011119,0,26920,48.536,0,0,0,0,0.038744,0
26876,54.3,20.107,0,0.011119,0,26920,48.536,0,0,0,0,0.038744,0
26876,54.3,20.107,0,0.011119,0,26920,48.536,0,0,0,0,0.038744,0
26876,54.3,20.107,0,0.011119,0,26920,48.536,0,0,0,0,0.038744,0
26876,54.3,20.107,0,0.011119,0,26920,48.536,0,0,0,0,0.038744,0
26876,54.3,20.107,0,0.011119,0,26920,48.536,0,0,0,0,0.038744,0
26876,54.3,20.107,0,0.011119,0,26920,48.536,0,0,0,0,0.038744,0
26876,54.3,20.107,0,0.011119,0,26920,48.536,0,0,0,0,0.038744,0
26876,54.3,20.107,0,0.011119,0,26920,48.536,0,0,0,0,0.038744,0
26876,54.3,20.107,0,0.011119,0,26920,48.536,0,0,0,0,0.038744,0
26878,54.3,20.108,0,0.010804,0,26920,48.536,0,0,0,0,0.0402,0
26878,54.3,20.108,0,0.010804,0,26920,48.536,0,0,0,0,0.0402,0
26880,54.3,20.109,0,0.010488,0,26920,48.536,0,0,0,0,0.041769,0
26880,54.3,20.109,0,0.010331,0,26920,48.536,0,0,0,0,0.0426,0
26880,54.3,20.109,0,0.010331,0,26920,48.536,0,0,0,0,0.0426,0
26880,54.3,20.109,0,0.010331,0,26920,48.536,0,0,0,0,0.0426,0
26880,54.3,20.109,0,0.010331,0,26920,48.536,0,0,0,0,0.0426,0
26880,54.3,20.109,0,0.010331,0,26920,48.536,0,0,0,0,0.0426,0
26880,54.3,20.109,0,0.010331,0,26920,48.536,0,0,0,0,0.0426,0
26880,54.3,20.109,0,0.010331,0,26920,48.536,0,0,0,0,0.0426,0
26880,54.3,20.109,0,0.010331,0,26920,48.536,0,0,0,0,0.0426,0
26880,54.3,20.109,0,0.010331,0,26920,48.536,0,0,0,0,0.0426,0
26880,54.3,20.109,0,0.010331,0,26920,48.536,0,0,0,0,0.0426,0
26880,54.3,20.109,0,0.010331,0,26920,48.536,0,0,0,0,0.0426,0
26880,54.3,20.109,0,0.010331,0,26920,48.536,0,0,0,0,0.0426,0
26880,54.3,20.109,0,0.010331,0,26920,48.536,0,0,0,0,0.0426,0
26880,54.3,20.109,0,0.010331,0,26920,48.536,0,0,0,0,0.0426,0
26880,54.3,20.109,0,0.010331,0,26920,48.536,0,0,0,0,0.0426,0
26880,54.3,20.109,0,0.010331,0,26920,48.536,0,0,0,0,0.0426,0
26880,54.3,20.109,0,0.010331,0,26920,48.536,0,0,0,0,0.0426,0
26882,54.3,20.11,0,0.010013,0,26920,48.536,0,0,0,0,0.044364,0
26882,54.3,20.11,0,0.010013,0,26920,48.536,0,0,0,0,0.044364,0
26882,54.3,20.11,0,0.010013,0,26920,48.536,0,0,0,0,0.044364,0
26882,54.3,20.11,0,0.0099345,0,26920,48.536,0,0,0,0,0.044828,0
26882,54.3,20.11,0,0.0099345,0,26920,48.536,0,0,0,0,0.044828,0
26884,54.3,20.111,0,0.0096966,0,26920,48.536,0,0,0,0,0.046278,0
26885,54.3,20.112,0,0.0093801,0,26920,48.536,0,0,0,0,0.048363,0
26885,54.3,20.112,0,0.0093801,0,26920,48.536,0,0,0,0,0.048363,0
26886,54.3,20.112,0,0.0092205,0,26920,48.536,0,0,0,0,0.049477,0
26886,54.3,20.112,0,0.0092205,0,26920,48.536,0,0,0,0,0.049477,0
26886,54.3,20.112,0,0.0092205,0,26920,48.536,0,0,0,0,0.049477,0
26886,54.3,20.112,0,0.0092205,0,26920,48.536,0,0,0,0,0.049477,0
26886,54.3,20.112,0,0.0092205,0,26920,48.536,0,0,0,0,0.049477,0
26886,54.3,20.112,0,0.0092205,0,26920,48.536,0,0,0,0,0.049477,0
26886,54.3,20.112,0,0.0092205,0,26920,48.536,0,0,0,0,0.049477,0
26886,54.3,20.112,0,0.0092205,0,26920,48.536,0,0,0,0,0.049477,0
26886,54.3,20.112,0,0.0092205,0,26920,48.536,0,0,0,0,0.049477,0
26886,54.3,20.112,0,0.0092205,0,26920,48.536,0,0,0,0,0.049477,0
26886,54.3,20.112,0,0.0092205,0,26920,48.536,0,0,0,0,0.049477,0
26886,54.3,20.112,0,0.0092205,0,26920,48.536,0,0,0,0,0.049477,0
26887,54.3,20.112,0,0.0090616,0,26920,48.536,0,0,0,0,0.050642,0
26887,54.3,20.112,0,0.0090616,0,26920,48.536,0,0,0,0,0.050642,0
26887,54.3,20.112,0,0.0090616,0,26920,48.536,0,0,0,0,0.050642,0
26887,54.3,20.112,0,0.0090616,0,26920,48.536,0,0,0,0,0.050642,0
26887,54.3,20.112,0,0.0090616,0,26920,48.536,0,0,0,0,0.050642,0
26887,54.3,20.112,0,0.0090616,0,26920,48.536,0,0,0,0,0.050642,0
26887,54.3,20.112,0,0.0090616,0,26920,48.536,0,0,0,0,0.050642,0
26887,54.3,20.113,0,0.0089824,0,26920,48.536,0,0,0,0,0.051245,0
26887,54.3,20.113,0,0.0089824,0,26920,48.536,0,0,0,0,0.051245,0
26887,54.3,20.113,0,0.0089824,0,26920,48.536,0,0,0,0,0.051245,0
26887,54.3,20.113,0,0.0089824,0,26920,48.536,0,0,0,0,0.051245,0
26889,54.3,20.114,0,0.0085841,0,26920,48.536,0,0,0,0,0.054486,0
26890,54.3,20.114,0,0.0085047,0,26920,48.536,0,0,0,0,0.055183,0
26890,54.3,20.114,0,0.0085047,0,26920,48.536,0,0,0,0,0.055183,0
26890,54.3,20.114,0,0.0085047,0,26920,48.536,0,0,0,0,0.055183,0
26891,54.3,20.114,0,0.0082652,0,26920,48.536,0,0,0,0,0.057383,0
26891,54.3,20.114,0,0.0082652,0,26920,48.536,0,0,0,0,0.057383,0
26891,54.3,20.114,0,0.0082652,0,26920,48.536,0,0,0,0,0.057383,0
26891,54.3,20.114,0,0.0082652,0,26920,48.536,0,0,0,0,0.057383,0
26891,54.3,20.114,0,0.0082652,0,26920,48.536,0,0,0,0,0.057383,0
26891,54.3,20.114,0,0.0082652,0,26920,48.536,0,0,0,0,0.057383,0
26891,54.3,20.114,0,0.0082652,0,26920,48.536,0,0,0,0,0.057383,0
26891,54.3,20.114,0,0.0082652,0,26920,48.536,0,0,0,0,0.057383,0
26891,54.3,20.114,0,0.0082652,0,26920,48.536,0,0,0,0,0.057383,0
26892,54.3,20.115,0,0.0079466,0,26920,48.536,0,0,0,0,0.0606,0
26893,54.3,20.115,0,0.0078662,0,26920,48.536,0,0,0,0,0.061459,0
26893,54.3,20.115,0,0.0078662,0,26920,48.536,0,0,0,0,0.061459,0
26893,54.3,20.115,0,0.0078662,0,26920,48.536,0,0,0,0,0.061459,0
26893,54.3,20.115,0,0.0078662,0,26920,48.536,0,0,0,0,0.061459,0
26893,54.3,20.115,0,0.0078662,0,26920,48.536,0,0,0,0,0.061459,0
26893,54.3,20.115,0,0.0078662,0,26920,48.536,0,0,0,0,0.061459,0
26893,54.3,20.115,0,0.0078662,0,26920,48.536,0,0,0,0,0.061459,0
26893,54.3,20.115,0,0.0078662,0,26920,48.536,0,0,0,0,0.061459,0
26893,54.3,20.115,0,0.0078662,0,26920,48.536,0,0,0,0,0.061459,0
26894,54.3,20.116,0,0.0076259,0,26920,48.536,0,0,0,0,0.064188,0
26894,54.3,20.116,0,0.0076259,0,26920,48.536,0,0,0,0,0.064188,0
26894,54.3,20.116,0,0.0076259,0,26920,48.536,0,0,0,0,0.064188,0
26894,54.3,20.116,0,0.0076259,0,26920,48.536,0,0,0,0,0.064188,0
26894,54.3,20.116,0,0.0076259,0,26920,48.536,0,0,0,0,0.064188,0
26894,54.3,20.116,0,0.0076259,0,26920,48.536,0,0,0,0,0.064188,0
26896,54.3,20.116,0,0.0072252,0,26920,48.536,0,0,0,0,0.069301,0
26896,54.3,20.116,0,0.0072252,0,26920,48.536,0,0,0,0,0.069301,0
26896,54.3,20.116,0,0.0072252,0,26920,48.536,0,0,0,0,0.069301,0
26896,54.3,20.116,0,0.0072252,0,26920,48.536,0,0,0,0,0.069301,0
26896,54.3,20.116,0,0.0072252,0,26920,48.536,0,0,0,0,0.069301,0
26896,54.3,20.116,0,0.0072252,0,26920,48.536,0,0,0,0,0.069301,0
26896,54.3,20.116,0,0.0072252,0,26920,48.536,0,0,0,0,0.069301,0
26896,54.3,20.116,0,0.0072252,0,26920,48.536,0,0,0,0,0.069301,0
26896,54.3,20.116,0,0.0072252,0,26920,48.536,0,0,0,0,0.069301,0
26897,54.3,20.117,0,0.0070651,0,26920,48.536,0,0,0,0,0.071575,0
26897,54.3,20.117,0,0.0070651,0,26920,48.536,0,0,0,0,0.071575,0
26897,54.3,20.117,0,0.0070651,0,26920,48.536,0,0,0,0,0.071575,0
26898,54.3,20.117,0,0.0069045,0,26920,48.536,0,0,0,0,0.073998,0
26898,54.3,20.117,0,0.0068239,0,26920,48.536,0,0,0,0,0.075269,0
26898,54.3,20.117,0,0.0068239,0,26920,48.536,0,0,0,0,0.075269,0
26899,54.3,20.117,0,0.006583,0,26920,48.536,0,0,0,0,0.079351,0
26899,54.3,20.117,0,0.006583,0,26920,48.536,0,0,0,0,0.079351,0
26899,54.3,20.117,0,0.006583,0,26920,48.536,0,0,0,0,0.079351,0
26899,54.3,20.117,0,0.006583,0,26920,48.536,0,0,0,0,0.079351,0
26899,54.3,20.117,0,0.006583,0,26920,48.536,0,0,0,0,0.079351,0
26899,54.3,20.117,0,0.006583,0,26920,48.536,0,0,0,0,0.079351,0
26899,54.3,20.117,0,0.006583,0,26920,48.536,0,0,0,0,0.079351,0
26899,54.3,20.117,0,0.006583,0,26920,48.536,0,0,0,0,0.079351,0
26899,54.3,20.117,0,0.006583,0,26920,48.536,0,0,0,0,0.079351,0
26899,54.3,20.117,0,0.006583,0,26920,48.536,0,0,0,0,0.079351,0
26899,54.3,20.117,0,0.006583,0,26920,48.536,0,0,0,0,0.079351,0
26900,54.3,20.118,0,0.0064231,0,26920,48.536,0,0,0,0,0.082316,0
26900,54.3,20.118,0,0.0064231,0,26920,48.536,0,0,0,0,0.082316,0
26900,54.3,20.118,0,0.0064231,0,26920,48.536,0,0,0,0,0.082316,0
26900,54.3,20.118,0,0.0064231,0,26920,48.536,0,0,0,0,0.082316,0
26900,54.3,20.118,0,0.0064231,0,26920,48.536,0,0,0,0,0.082316,0
26900,54.3,20.118,0,0.0064231,0,26920,48.536,0,0,0,0,0.082316,0
26900,54.3,20.118,0,0.0064231,0,26920,48.536,0,0,0,0,0.082316,0
26900,54.3,20.118,0,0.0064231,0,26920,48.536,0,0,0,0,0.082316,0
26900,54.3,20.118,0,0.0064231,0,26920,48.536,0,0,0,0,0.082316,0
26900,54.3,20.118,0,0.0064231,0,26920,48.536,0,0,0,0,0.082316,0
26900,54.3,20.118,0,0.0064231,0,26920,48.536,0,0,0,0,0.082316,0
26903,54.3,20.118,0,0.0059405,0,26920,48.536,0,0,0,0,0.092632,0
26903,54.3,20.118,0,0.0059405,0,26920,48.536,0,0,0,0,0.092632,0
26903,54.3,20.118,0,0.0059405,0,26920,48.536,0,0,0,0,0.092632,0
26903,54.3,20.118,0,0.0059405,0,26920,48.536,0,0,0,0,0.092632,0
26904,54.3,20.119,0,0.0056174,0,26920,48.536,0,0,0,0,0.10098,0
26904,54.3,20.119,0,0.0056174,0,26920,48.536,0,0,0,0,0.10098,0
26904,54.3,20.119,0,0.0056174,0,26920,48.536,0,0,0,0,0.10098,0
26904,54.3,20.119,0,0.0056174,0,26920,48.536,0,0,0,0,0.10098,0
26904,54.3,20.119,0,0.0056174,0,26920,48.536,0,0,0,0,0.10098,0
26904,54.3,20.119,0,0.0056174,0,26920,48.536,0,0,0,0,0.10098,0
26904,54.3,20.119,0,0.0056174,0,26920,48.536,0,0,0,0,0.10098,0
26905,54.3,20.119,0,0.0053767,0,26920,48.536,0,0,0,0,0.10821,0
26905,54.3,20.119,0,0.0053767,0,26920,48.536,0,0,0,0,0.10821,0
26905,54.3,20.119,0,0.0053767,0,26920,48.536,0,0,0,0,0.10821,0
26905,54.3,20.119,0,0.0053767,0,26920,48.536,0,0,0,0,0.10821,0
26905,54.3,20.119,0,0.0053767,0,26920,48.536,0,0,0,0,0.10821,0
26905,54.3,20.119,0,0.0053767,0,26920,48.536,0,0,0,0,0.10821,0
26906,54.3,20.119,0,0.0052957,0,26920,48.536,0,0,0,0,0.11084,0
26906,54.3,20.119,0,0.0052957,0,26920,48.536,0,0,0,0,0.11084,0
26906,54.3,20.119,0,0.0052957,0,26920,48.536,0,0,0,0,0.11084,0
26907,54.3,20.119,0,0.005134,0,26920,48.536,0,0,0,0,0.11647,0
26907,54.3,20.119,0,0.005134,0,26920,48.536,0,0,0,0,0.11647,0
26907,54.3,20.12,0,0.0050534,0,26920,48.536,0,0,0,0,0.11948,0
26908,54.3,20.12,0,0.0048115,0,26920,48.536,0,0,0,0,0.12941,0
26908,54.3,20.12,0,0.0048115,0,26920,48.536,0,0,0,0,0.12941,0
26909,54.3,20.12,0,0.0047304,0,26920,48.536,0,0,0,0,0.13306,0
26909,54.3,20.12,0,0.0047304,0,26920,48.536,0,0,0,0,0.13306,0
26909,54.3,20.12,0,0.0047304,0,26920,48.536,0,0,0,0,0.13306,0
26909,54.3,20.12,0,0.0046495,0,26920,48.536,0,0,0,0,0.13688,0
26909,54.3,20.12,0,0.0045687,0,26920,48.536,0,0,0,0,0.1409,0
26909,54.3,20.12,0,0.0045687,0,26920,48.536,0,0,0,0,0.1409,0
26910,54.3,20.12,0,0.0044881,0,26920,48.536,0,0,0,0,0.14512,0
26910,54.3,20.12,0,0.0044076,0,26920,48.536,0,0,0,0,0.14957,0
26910,54.3,20.12,0,0.0044076,0,26920,48.536,0,0,0,0,0.14957,0
26910,54.3,20.12,0,0.0044076,0,26920,48.536,0,0,0,0,0.14957,0
26910,54.3,20.12,0,0.0044076,0,26920,48.536,0,0,0,0,0.14957,0
26910,54.3,20.12,0,0.0044076,0,26920,48.536,0,0,0,0,0.14957,0
26911,54.3,20.12,0,0.004246,0,26920,48.536,0,0,0,0,0.15915,0
26911,54.3,20.12,0,0.004246,0,26920,48.536,0,0,0,0,0.15915,0
26911,54.3,20.12,0,0.004246,0,26920,48.536,0,0,0,0,0.15915,0
26911,54.3,20.12,0,0.004246,0,26920,48.536,0,0,0,0,0.15915,0
26911,54.3,20.12,0,0.004246,0,26920,48.536,0,0,0,0,0.15915,0
26911,54.3,20.12,0,0.004246,0,26920,48.536,0,0,0,0,0.15915,0
26911,54.3,20.12,0,0.004246,0,26920,48.536,0,0,0,0,0.15915,0
26911,54.3,20.12,0,0.004246,0,26920,48.536,0,0,0,0,0.15915,0
26911,54.3,20.12,0,0.004246,0,26920,48.536,0,0,0,0,0.15915,0
26912,54.3,20.121,0,0.0040839,0,26920,48.536,0,0,0,0,0.16975,0
26912,54.3,20.121,0,0.0040031,0,26920,48.536,0,0,0,0,0.17546,0
26912,54.3,20.121,0,0.0040031,0,26920,48.536,0,0,0,0,0.17546,0
26913,54.3,20.121,0,0.0039224,0,26920,48.536,0,0,0,0,0.18146,0
26913,54.3,20.121,0,0.0039224,0,26920,48.536,0,0,0,0,0.18146,0
26913,54.3,20.121,0,0.0039224,0,26920,48.536,0,0,0,0,0.18146,0
26913,54.3,20.121,0,0.0039224,0,26920,48.536,0,0,0,0,0.18146,0
26913,54.3,20.121,0,0.0039224,0,26920,48.536,0,0,0,0,0.18146,0
26913,54.3,20.121,0,0.0039224,0,26920,48.536,0,0,0,0,0.18146,0
26913,54.3,20.121,0,0.0039224,0,26920,48.536,0,0,0,0,0.18146,0
26914,54.3,20.121,0,0.0035979,0,26920,48.536,0,0,0,0,0.20832,0
26914,54.3,20.121,0,0.0035979,0,26920,48.536,0,0,0,0,0.20832,0
26914,54.3,20.121,0,0.0035979,0,26920,48.536,0,0,0,0,0.20832,0
26914,54.3,20.121,0,0.0035979,0,26920,48.536,0,0,0,0,0.20832,0
26914,54.3,20.121,0,0.0035979,0,26920,48.536,0,0,0,0,0.20832,0
26914,54.3,20.121,0,0.0035979,0,26920,48.536,0,0,0,0,0.20832,0
26914,54.3,20.121,0,0.0035979,0,26920,48.536,0,0,0,0,0.20832,0
26914,54.3,20.121,0,0.0035979,0,26920,48.536,0,0,0,0,0.20832,0
26914,54.3,20.121,0,0.0035979,0,26920,48.536,0,0,0,0,0.20832,0
26914,54.3,20.121,0,0.0035979,0,26920,48.536,0,0,0,0,0.20832,0
26914,54.3,20.121,0,0.0035979,0,26920,48.536,0,0,0,0,0.20832,0
26914,54.3,20.121,0,0.0035979,0,26920,48.536,0,0,0,0,0.20832,0
26914,54.3,20.121,0,0.0035979,0,26920,48.536,0,0,0,0,0.20832,0
26914,54.3,20.121,0,0.0035979,0,26920,48.536,0,0,0,0,0.20832,0
26915,54.3,20.121,0,0.0034361,0,26920,48.536,0,0,0,0,0.22333,0
26916,54.3,20.121,0,0.0031933,0,26920,48.536,0,0,0,0,0.24699,0
26916,54.3,20.121,0,0.0031933,0,26920,48.536,0,0,0,0,0.24699,0
26919,54.3,20.122,0,0.0027064,0,26920,48.536,0,0,0,0,0.28763,0
26919,54.3,20.122,0,0.0027064,0,26920,48.536,0,0,0,0,0.28763,0
26919,54.3,20.122,0,0.0027064,0,26920,48.536,0,0,0,0,0.28763,0
26919,54.3,20.122,0,0.0027064,0,26920,48.536,0,0,0,0,0.28763,0
26919,54.3,20.122,0,0.0027064,0,26920,48.536,0,0,0,0,0.28763,0
26919,54.3,20.122,0,0.0027064,0,26920,48.536,0,0,0,0,0.28763,0
26919,54.3,20.122,0,0.0027064,0,26920,48.536,0,0,0,0,0.28763,0
26919,54.3,20.122,0,0.0027064,0,26920,48.536,0,0,0,0,0.28763,0
26919,54.3,20.122,0,0.0027064,0,26920,48.536,0,0,0,0,0.28763,0
26919,54.3,20.122,0,0.0027064,0,26920,48.536,0,0,0,0,0.28763,0
26919,54.3,20.122,0,0.0025435,0,26920,48.536,0,0,0,0,0.29433,0
26919,54.3,20.122,0,0.0025435,0,26920,48.536,0,0,0,0,0.29433,0
26919,54.3,20.122,0,0.0025435,0,26920,48.536,0,0,0,0,0.29433,0
26919,54.3,20.122,0,0.0025435,0,26920,48.536,0,0,0,0,0.29433,0
26919,54.3,20.122,0,0.0025435,0,26920,48.536,0,0,0,0,0.29433,0
26919,54.3,20.122,0,0.0025435,0,26920,48.536,0,0,0,0,0.29433,0
26919,54.3,20.122,0,0.0025435,0,26920,48.536,0,0,0,0,0.29433,0
26919,54.3,20.122,0,0.0025435,0,26920,48.536,0,0,0,0,0.29433,0
26919,54.3,20.122,0,0.0025435,0,26920,48.536,0,0,0,0,0.29433,0
26919,54.3,20.122,0,0.0025435,0,26920,48.536,0,0,0,0,0.29433,0
26919,54.3,20.122,0,0.0025435,0,26920,48.536,0,0,0,0,0.29433,0
26919,54.3,20.122,0,0.0025435,0,26920,48.536,0,0,0,0,0.29433,0
26919,54.3,20.122,0,0.0025435,0,26920,48.536,0,0,0,0,0.29433,0
26919,54.3,20.122,0,0.0025435,0,26920,48.536,0,0,0,0,0.29433,0
26921,54.3,20.122,0,0.0021378,0,26920,48.536,0,0,0,0,0.28707,0
26922,54.3,20.122,0,0.0019748,0,26920,48.536,0,0,0,0,0.27576,0
26922,54.3,20.122,0,0.0019748,0,26920,48.536,0,0,0,0,0.27576,0
26922,54.3,20.122,0,0.0019748,0,26920,48.536,0,0,0,0,0.27576,0
26924,54.3,20.122,0,0.0016508,0,26920,48.536,0,0,0,0,0.24603,0
26924,54.3,20.122,0,0.0016508,0,26920,48.536,0,0,0,0,0.24603,0
26924,54.3,20.122,0,0.0016508,0,26920,48.536,0,0,0,0,0.24603,0
26924,54.3,20.122,0,0.0016508,0,26920,48.536,0,0,0,0,0.24603,0
26924,54.3,20.122,0,0.0016508,0,26920,48.536,0,0,0,0,0.24603,0
26924,54.3,20.122,0,0.0016508,0,26920,48.536,0,0,0,0,0.24603,0
26924,54.3,20.122,0,0.0016508,0,26920,48.536,0,0,0,0,0.24603,0
26924,54.3,20.122,0,0.0016508,0,26920,48.536,0,0,0,0,0.24603,0
26925,54.3,20.122,0,0.0014875,0,26920,48.536,0,0,0,0,0.23018,0
26925,54.3,20.122,0,0.0014061,0,26920,48.536,0,0,0,0,0.2224,0
26925,54.3,20.122,0,0.0014061,0,26920,48.536,0,0,0,0,0.2224,0
26925,54.3,20.122,0,0.0014061,0,26920,48.536,0,0,0,0,0.2224,0
26925,54.3,20.122,0,0.0014061,0,26920,48.536,0,0,0,0,0.2224,0
26925,54.3,20.122,0,0.0014061,0,26920,48.536,0,0,0,0,0.2224,0
26925,54.3,20.122,0,0.0014061,0,26920,48.536,0,0,0,0,0.2224,0
26925,54.3,20.122,0,0.0014061,0,26920,48.536,0,0,0,0,0.2224,0
26925,54.3,20.122,0,0.0014061,0,26920,48.536,0,0,0,0,0.2224,0
26925,54.3,20.122,0,0.0014061,0,26920,48.536,0,0,0,0,0.2224,0
26925,54.3,20.122,0,0.0014061,0,26920,48.536,0,0,0,0,0.2224,0
26925,54.3,20.122,0,0.0014061,0,26920,48.536,0,0,0,0,0.2224,0
26927,54.3,20.123,0,0.001082,0,26920,48.536,0,0,0,0,0.1935,0
26927,54.3,20.123,0,0.001082,0,26920,48.536,0,0,0,0,0.1935,0
26927,54.3,20.123,0,0.001082,0,26920,48.536,0,0,0,0,0.1935,0
26927,54.3,20.123,0,0.001082,0,26920,48.536,0,0,0,0,0.1935,0
26927,54.3,20.123,0,0.001082,0,26920,48.536,0,0,0,0,0.1935,0
26927,54.3,20.123,0,0.001082,0,26920,48.536,0,0,0,0,0.1935,0
26927,54.3,20.123,0,0.001082,0,26920,48.536,0,0,0,0,0.1935,0
26927,54.3,20.123,0,0.0010002,0,26920,48.536,0,0,0,0,0.18696,0
26929,54.3,20.123,0,0.00067478,0,26920,48.536,0,0,0,0,0.16368,0
26929,54.3,20.123,0,0.00067478,0,26920,48.536,0,0,0,0,0.16368,0
26929,54.3,20.123,0,0.00067478,0,26920,48.536,0,0,0,0,0.16368,0
26929,54.3,20.123,0,0.00067478,0,26920,48.536,0,0,0,0,0.16368,0
26930,54.3,20.123,0,0.00034855,0,26920,48.536,0,0,0,0,0.1446,0
26930,54.3,20.123,0,0.00034855,0,26920,48.536,0,0,0,0,0.1446,0
26930,54.3,20.123,0,0.00034855,0,26920,48.536,0,0,0,0,0.1446,0
26930,54.3,20.123,0,0.00034855,0,26920,48.536,0,0,0,0,0.1446,0
26930,54.3,20.123,0,0.00034855,0,26920,48.536,0,0,0,0,0.1446,0
26930,54.3,20.123,0,0.00034855,0,26920,48.536,0,0,0,0,0.1446,0
26930,54.3,20.123,0,0.00034855,0,26920,48.536,0,0,0,0,0.1446,0
26930,54.3,20.123,0,0.00034855,0,26920,48.536,0,0,0,0,0.1446,0
26930,54.3,20.123,0,0.00034855,0,26920,48.536,0,0,0,0,0.1446,0
26930,54.3,20.123,0,0.00034855,0,26920,48.536,0,0,0,0,0.1446,0
26931,54.3,20.123,0,0.00018584,0,26920,48.536,0,0,0,0,0.1364,0
26931,54.3,20.123,0,0.00018584,0,26920,48.536,0,0,0,0,0.1364,0
26931,54.3,20.123,0,0.00018584,0,26920,48.536,0,0,0,0,0.1364,0
26931,54.3,20.123,0,0.00018584,0,26920,48.536,0,0,0,0,0.1364,0
26931,54.3,20.123,0,0.00018584,0,26920,48.536,0,0,0,0,0.1364,0
26931,54.3,20.123,0,0.00018584,0,26920,48.536,0,0,0,0,0.1364,0
26931,54.3,20.123,0,0.00018584,0,26920,48.536,0,0,0,0,0.1364,0
26931,54.3,20.123,0,0.00018584,0,26920,48.536,0,0,0,0,0.1364,0
26931,54.3,20.123,0,0.00018584,0,26920,48.536,0,0,0,0,0.1364,0
26931,54.3,20.123,0,0.00018584,0,26920,48.536,0,0,0,0,0.1364,0
26932,54.3,20.123,0,2.3778e-05,0,26920,48.536,0,0,0,0,0.12898,0
26934,54.3,20.123,0,-0.00071374,0,26920,48.536,0,0,0,0,0.11611,0
26934,54.3,20.123,0,-0.00071374,0,26920,48.536,0,0,0,0,0.11611,0
26934,54.3,20.123,0,-0.00071374,0,26920,48.536,0,0,0,0,0.11611,0
26934,54.3,20.123,0,-0.00071374,0,26920,48.536,0,0,0,0,0.11611,0
26934,54.3,20.123,0,-0.00071374,0,26920,48.536,0,0,0,0,0.11611,0
26934,54.3,20.123,0,-0.00071374,0,26920,48.536,0,0,0,0,0.11611,0
26934,54.3,20.123,0,-0.00071374,0,26920,48.536,0,0,0,0,0.11611,0
26934,54.3,20.123,0,-0.00090124,0,26920,48.536,0,0,0,0,0.11325,0
26934,54.3,20.123,0,-0.00090124,0,26920,48.536,0,0,0,0,0.11325,0
26934,54.3,20.123,0,-0.00090124,0,26920,48.536,0,0,0,0,0.11325,0
26934,54.3,20.123,0,-0.00090124,0,26920,48.536,0,0,0,0,0.11325,0
26934,54.3,20.123,0,-0.00090124,0,26920,48.536,0,0,0,0,0.11325,0
26934,54.3,20.123,0,-0.00090124,0,26920,48.536,0,0,0,0,0.11325,0
26934,54.3,20.123,0,-0.00090124,0,26920,48.536,0,0,0,0,0.11325,0
26934,54.3,20.123,0,-0.00090124,0,26920,48.536,0,0,0,0,0.11325,0
26934,54.3,20.123,0,-0.00090124,0,26920,48.536,0,0,0,0,0.11325,0
26934,54.3,20.123,0,-0.00090124,0,26920,48.536,0,0,0,0,0.11325,0
26934,54.3,20.123,0,-0.00090124,0,26920,48.536,0,0,0,0,0.11325,0
26936,54.3,20.123,0,-0.0017922,0,26920,48.536,0,0,0,0,0.1007,0
26936,54.3,20.123,0,-0.0019611,0,26920,48.536,0,0,0,0,0.098491,0
26938,54.3,20.122,0,-0.0024519,0,26920,48.536,0,0,0,0,0.092391,0
26938,54.3,20.122,0,-0.0024519,0,26920,48.536,0,0,0,0,0.092391,0
26938,54.3,20.122,0,-0.0027671,0,26920,48.536,0,0,0,0,0.088708,0
26940,54.3,20.122,0,-0.0032221,0,26920,48.536,0,0,0,0,0.08368,0
26940,54.3,20.122,0,-0.0032221,0,26920,48.536,0,0,0,0,0.08368,0
26940,54.3,20.122,0,-0.0032221,0,26920,48.536,0,0,0,0,0.08368,0
26940,54.3,20.122,0,-0.0032221,0,26920,48.536,0,0,0,0,0.08368,0
26940,54.3,20.122,0,-0.0032221,0,26920,48.536,0,0,0,0,0.08368,0
26940,54.3,20.122,0,-0.0032221,0,26920,48.536,0,0,0,0,0.08368,0
26940,54.3,20.122,0,-0.0032221,0,26920,48.536,0,0,0,0,0.08368,0
26940,54.3,20.122,0,-0.0032221,0,26920,48.536,0,0,0,0,0.08368,0
26940,54.3,20.122,0,-0.0032221,0,26920,48.536,0,0,0,0,0.08368,0
26940,54.3,20.122,0,-0.0033712,0,26920,48.536,0,0,0,0,0.082123,0
26940,54.3,20.122,0,-0.0035171,0,26920,48.536,0,0,0,0,0.08062,0
26940,54.3,20.122,0,-0.0035171,0,26920,48.536,0,0,0,0,0.08062,0
26940,54.3,20.122,0,-0.0035171,0,26920,48.536,0,0,0,0,0.08062,0
26940,54.3,20.122,0,-0.0035171,0,26920,48.536,0,0,0,0,0.08062,0
26940,54.3,20.122,0,-0.0035171,0,26920,48.536,0,0,0,0,0.08062,0
26940,54.3,20.122,0,-0.0035171,0,26920,48.536,0,0,0,0,0.08062,0
26940,54.3,20.122,0,-0.0035171,0,26920,48.536,0,0,0,0,0.08062,0
26942,54.3,20.122,0,-0.0039417,0,26920,48.536,0,0,0,0,0.076414,0
26942,54.3,20.122,0,-0.0042164,0,26920,48.536,0,0,0,0,0.073838,0
26942,54.3,20.122,0,-0.0042164,0,26920,48.536,0,0,0,0,0.073838,0
26942,54.3,20.122,0,-0.0042164,0,26920,48.536,0,0,0,0,0.073838,0
26944,54.3,20.121,0,-0.004616,0,26920,48.536,0,0,0,0,0.070274,0
26944,54.3,20.121,0,-0.004616,0,26920,48.536,0,0,0,0,0.070274,0
26944,54.3,20.121,0,-0.004616,0,26920,48.536,0,0,0,0,0.070274,0
26944,54.3,20.121,0,-0.0047474,0,26920,48.536,0,0,0,0,0.06916,0
26944,54.3,20.121,0,-0.0047474,0,26920,48.536,0,0,0,0,0.06916,0
26944,54.3,20.121,0,-0.0047474,0,26920,48.536,0,0,0,0,0.06916,0
26944,54.3,20.121,0,-0.0047474,0,26920,48.536,0,0,0,0,0.06916,0
26944,54.3,20.121,0,-0.0047474,0,26920,48.536,0,0,0,0,0.06916,0
26944,54.3,20.121,0,-0.0047474,0,26920,48.536,0,0,0,0,0.06916,0
26944,54.3,20.121,0,-0.0048757,0,26920,48.536,0,0,0,0,0.068079,0
26944,54.3,20.121,0,-0.0048757,0,26920,48.536,0,0,0,0,0.068079,0
26944,54.3,20.121,0,-0.0048757,0,26920,48.536,0,0,0,0,0.068079,0
26944,54.3,20.121,0,-0.0048757,0,26920,48.536,0,0,0,0,0.068079,0
26944,54.3,20.121,0,-0.0048757,0,26920,48.536,0,0,0,0,0.068079,0
26944,54.3,20.121,0,-0.0048757,0,26920,48.536,0,0,0,0,0.068079,0
26944,54.3,20.121,0,-0.0048757,0,26920,48.536,0,0,0,0,0.068079,0
26945,54.3,20.121,0,-0.0051312,0,26920,48.536,0,0,0,0,0.066012,0
26945,54.3,20.121,0,-0.0051312,0,26920,48.536,0,0,0,0,0.066012,0
26945,54.3,20.121,0,-0.0051312,0,26920,48.536,0,0,0,0,0.066012,0
26945,54.3,20.121,0,-0.0051312,0,26920,48.536,0,0,0,0,0.066012,0
26946,54.3,20.121,0,-0.0055031,0,26920,48.536,0,0,0,0,0.063133,0
26946,54.3,20.121,0,-0.0055031,0,26920,48.536,0,0,0,0,0.063133,0
26947,54.3,20.12,0,-0.0056235,0,26920,48.536,0,0,0,0,0.062227,0
26947,54.3,20.12,0,-0.0056235,0,26920,48.536,0,0,0,0,0.062227,0
26948,54.3,20.12,0,-0.0060956,0,26920,48.536,0,0,0,0,0.058843,0
26949,54.3,20.12,0,-0.0062113,0,26920,48.536,0,0,0,0,0.058053,0
26949,54.3,20.12,0,-0.0062113,0,26920,48.536,0,0,0,0,0.058053,0
26949,54.3,20.12,0,-0.0063265,0,26920,48.536,0,0,0,0,0.057283,0
26949,54.3,20.12,0,-0.0063265,0,26920,48.536,0,0,0,0,0.057283,0
26949,54.3,20.12,0,-0.0063265,0,26920,48.536,0,0,0,0,0.057283,0
26949,54.3,20.12,0,-0.0063265,0,26920,48.536,0,0,0,0,0.057283,0
26949,54.3,20.12,0,-0.0063265,0,26920,48.536,0,0,0,0,0.057283,0
26949,54.3,20.12,0,-0.0063265,0,26920,48.536,0,0,0,0,0.057283,0
26949,54.3,20.12,0,-0.0063265,0,26920,48.536,0,0,0,0,0.057283,0
26949,54.3,20.12,0,-0.0063265,0,26920,48.536,0,0,0,0,0.057283,0
26949,54.3,20.12,0,-0.0063265,0,26920,48.536,0,0,0,0,0.057283,0
26949,54.3,20.12,0,-0.0063265,0,26920,48.536,0,0,0,0,0.057283,0
26949,54.3,20.12,0,-0.0063265,0,26920,48.536,0,0,0,0,0.057283,0
26949,54.3,20.12,0,-0.0063265,0,26920,48.536,0,0,0,0,0.057283,0
26949,54.3,20.12,0,-0.0063265,0,26920,48.536,0,0,0,0,0.057283,0
26949,54.3,20.12,0,-0.0063265,0,26920,48.536,0,0,0,0,0.057283,0
26949,54.3,20.12,0,-0.0063265,0,26920,48.536,0,0,0,0,0.057283,0
26949,54.3,20.12,0,-0.0063265,0,26920,48.536,0,0,0,0,0.057283,0
26949,54.3,20.12,0,-0.0063265,0,26920,48.536,0,0,0,0,0.057283,0
26949,54.3,20.12,0,-0.0063265,0,26920,48.536,0,0,0,0,0.057283,0
26949,54.3,20.12,0,-0.0063265,0,26920,48.536,0,0,0,0,0.057283,0
26950,54.3,20.119,0,-0.0066614,0,26920,48.536,0,0,0,0,0.055089,0
26952,54.3,20.119,0,-0.0070994,0,26920,48.536,0,0,0,0,0.052409,0
26953,54.3,20.118,0,-0.0074173,0,26920,48.536,0,0,0,0,0.050562,0
26953,54.3,20.118,0,-0.0074173,0,26920,48.536,0,0,0,0,0.050562,0
26954,54.3,20.118,0,-0.0075224,0,26920,48.536,0,0,0,0,0.049974,0
26954,54.3,20.118,0,-0.0075224,0,26920,48.536,0,0,0,0,0.049974,0
26954,54.3,20.118,0,-0.0075224,0,26920,48.536,0,0,0,0,0.049974,0
26954,54.3,20.118,0,-0.0075224,0,26920,48.536,0,0,0,0,0.049974,0
26954,54.3,20.118,0,-0.0075224,0,26920,48.536,0,0,0,0,0.049974,0
26954,54.3,20.118,0,-0.0075224,0,26920,48.536,0,0,0,0,0.049974,0
26954,54.3,20.118,0,-0.0075224,0,26920,48.536,0,0,0,0,0.049974,0
26954,54.3,20.118,0,-0.0075224,0,26920,48.536,0,0,0,0,0.049974,0
26954,54.3,20.118,0,-0.0075224,0,26920,48.536,0,0,0,0,0.049974,0
26954,54.3,20.118,0,-0.0075224,0,26920,48.536,0,0,0,0,0.049974,0
26954,54.3,20.118,0,-0.0077312,0,26920,48.536,0,0,0,0,0.048838,0
26954,54.3,20.118,0,-0.0077312,0,26920,48.536,0,0,0,0,0.048838,0
26954,54.3,20.118,0,-0.0077312,0,26920,48.536,0,0,0,0,0.048838,0
26954,54.3,20.118,0,-0.0077312,0,26920,48.536,0,0,0,0,0.048838,0
26954,54.3,20.118,0,-0.0077312,0,26920,48.536,0,0,0,0,0.048838,0
26954,54.3,20.118,0,-0.0077312,0,26920,48.536,0,0,0,0,0.048838,0
26954,54.3,20.118,0,-0.0077312,0,26920,48.536,0,0,0,0,0.048838,0
26954,54.3,20.118,0,-0.0077312,0,26920,48.536,0,0,0,0,0.048838,0
26955,54.3,20.118,0,-0.007835,0,26920,48.536,0,0,0,0,0.048289,0
26955,54.3,20.118,0,-0.007835,0,26920,48.536,0,0,0,0,0.048289,0
26955,54.3,20.118,0,-0.0079357,0,26920,48.536,0,0,0,0,0.047752,0
26957,54.3,20.117,0,-0.0083339,0,26920,48.536,0,0,0,0,0.045717,0
26958,54.3,20.116,0,-0.0086279,0,26920,48.536,0,0,0,0,0.0443,0
26958,54.3,20.116,0,-0.0086279,0,26920,48.536,0,0,0,0,0.0443,0
26958,54.3,20.116,0,-0.0086279,0,26920,48.536,0,0,0,0,0.0443,0
26958,54.3,20.116,0,-0.0086279,0,26920,48.536,0,0,0,0,0.0443,0
26958,54.3,20.116,0,-0.0086279,0,26920,48.536,0,0,0,0,0.0443,0
26958,54.3,20.116,0,-0.0086279,0,26920,48.536,0,0,0,0,0.0443,0
26958,54.3,20.116,0,-0.0086279,0,26920,48.536,0,0,0,0,0.0443,0
26958,54.3,20.116,0,-0.0086279,0,26920,48.536,0,0,0,0,0.0443,0
26958,54.3,20.116,0,-0.0086279,0,26920,48.536,0,0,0,0,0.0443,0
26958,54.3,20.116,0,-0.0086279,0,26920,48.536,0,0,0,0,0.0443,0
26958,54.3,20.116,0,-0.0086279,0,26920,48.536,0,0,0,0,0.0443,0
26959,54.3,20.116,0,-0.0089179,0,26920,48.536,0,0,0,0,0.042968,0
26959,54.3,20.116,0,-0.0089179,0,26920,48.536,0,0,0,0,0.042968,0
26959,54.3,20.116,0,-0.0089179,0,26920,48.536,0,0,0,0,0.042968,0
26959,54.3,20.116,0,-0.0089179,0,26920,48.536,0,0,0,0,0.042968,0
26959,54.3,20.116,0,-0.0089179,0,26920,48.536,0,0,0,0,0.042968,0
26959,54.3,20.116,0,-0.0089179,0,26920,48.536,0,0,0,0,0.042968,0
26959,54.3,20.116,0,-0.0089179,0,26920,48.536,0,0,0,0,0.042968,0
26959,54.3,20.116,0,-0.0089179,0,26920,48.536,0,0,0,0,0.042968,0
26959,54.3,20.116,0,-0.0089179,0,26920,48.536,0,0,0,0,0.042968,0
26959,54.3,20.116,0,-0.0089179,0,26920,48.536,0,0,0,0,0.042968,0
26959,54.3,20.116,0,-0.0089179,0,26920,48.536,0,0,0,0,0.042968,0
26959,54.3,20.116,0,-0.0089179,0,26920,48.536,0,0,0,0,0.042968,0
26959,54.3,20.116,0,-0.0089179,0,26920,48.536,0,0,0,0,0.042968,0
26961,54.3,20.115,0,-0.0093923,0,26920,48.536,0,0,0,0,0.040915,0
26961,54.3,20.115,0,-0.0093923,0,26920,48.536,0,0,0,0,0.040915,0
26962,54.3,20.115,0,-0.0095789,0,26920,48.536,0,0,0,0,0.040147,0
26962,54.3,20.115,0,-0.0095789,0,26920,48.536,0,0,0,0,0.040147,0
26962,54.3,20.115,0,-0.0095789,0,26920,48.536,0,0,0,0,0.040147,0
26962,54.3,20.115,0,-0.0095789,0,26920,48.536,0,0,0,0,0.040147,0
26962,54.3,20.115,0,-0.0095789,0,26920,48.536,0,0,0,0,0.040147,0
26962,54.3,20.115,0,-0.0095789,0,26920,48.536,0,0,0,0,0.040147,0
26962,54.3,20.115,0,-0.0095789,0,26920,48.536,0,0,0,0,0.040147,0
26962,54.3,20.115,0,-0.0095789,0,26920,48.536,0,0,0,0,0.040147,0
26962,54.3,20.115,0,-0.0095789,0,26920,48.536,0,0,0,0,0.040147,0
26964,54.3,20.114,0,-0.010037,0,26920,48.536,0,0,0,0,0.038347,0
26965,54.3,20.113,0,-0.010128,0,26920,48.536,0,0,0,0,0.038006,0
26965,54.3,20.113,0,-0.010128,0,26920,48.536,0,0,0,0,0.038006,0
26965,54.3,20.113,0,-0.010128,0,26920,48.536,0,0,0,0,0.038006,0
26965,54.3,20.113,0,-0.010128,0,26920,48.536,0,0,0,0,0.038006,0
26965,54.3,20.113,0,-0.010128,0,26920,48.536,0,0,0,0,0.038006,0
26965,54.3,20.113,0,-0.010128,0,26920,48.536,0,0,0,0,0.038006,0
26965,54.3,20.113,0,-0.010128,0,26920,48.536,0,0,0,0,0.038006,0
26965,54.3,20.113,0,-0.010128,0,26920,48.536,0,0,0,0,0.038006,0
26965,54.3,20.113,0,-0.010128,0,26920,48.536,0,0,0,0,0.038006,0
26965,54.3,20.113,0,-0.010128,0,26920,48.536,0,0,0,0,0.038006,0
26966,54.3,20.113,0,-0.010484,0,26920,48.536,0,0,0,0,0.0367,0
26966,54.3,20.113,0,-0.010484,0,26920,48.536,0,0,0,0,0.0367,0
26966,54.3,20.113,0,-0.010484,0,26920,48.536,0,0,0,0,0.0367,0
26966,54.3,20.113,0,-0.010484,0,26920,48.536,0,0,0,0,0.0367,0
26966,54.3,20.113,0,-0.010484,0,26920,48.536,0,0,0,0,0.0367,0
26966,54.3,20.113,0,-0.010484,0,26920,48.536,0,0,0,0,0.0367,0
26966,54.3,20.113,0,-0.010484,0,26920,48.536,0,0,0,0,0.0367,0
