21.947,-10.753,12.963,-55.881,46.892,8.0291,8.6368,-27.298,-1.2872,-24.301,4.1385,-54.788,19.255,16.561,8.2132,-20.018
21.947,-10.753,12.963,-55.881,46.892,8.0291,8.6368,-27.298,-1.2872,-24.301,4.1385,-54.788,19.255,16.561,8.2132,-20.018
21.947,-10.753,12.963,-55.881,46.892,8.0291,8.6368,-27.298,-1.2872,-24.301,4.1385,-54.788,19.255,16.561,8.2132,-20.018
21.779,-11.142,12.877,-56.208,46.441,7.5274,8.4516,-27.548,-1.2577,-24.618,4.2629,-55.135,19.133,16.11,8.3351,-20.515
21.779,-11.142,12.877,-56.208,46.441,7.5274,8.4516,-27.548,-1.2577,-24.618,4.2629,-55.135,19.133,16.11,8.3351,-20.515
21.779,-11.142,12.877,-56.208,46.441,7.5274,8.4516,-27.548,-1.2577,-24.618,4.2629,-55.135,19.133,16.11,8.3351,-20.515
21.61,-11.532,12.79,-56.536,45.989,7.0244,8.2655,-27.799,-1.2293,-24.936,4.3869,-55.482,19.01,15.658,8.4558,-21.012
21.441,-11.923,12.701,-56.863,45.536,6.5203,8.0784,-28.051,-1.2019,-25.255,4.5107,-55.829,18.886,15.204,8.5753,-21.511
21.271,-12.314,12.612,-57.191,45.082,6.0151,7.8904,-28.305,-1.1756,-25.574,4.6341,-56.177,18.762,14.748,8.6935,-22.01
21.271,-12.314,12.612,-57.191,45.082,6.0151,7.8904,-28.305,-1.1756,-25.574,4.6341,-56.177,18.762,14.748,8.6935,-22.01
21.1,-12.707,12.521,-57.519,44.628,5.5089,7.7014,-28.56,-1.1504,-25.894,4.7573,-56.525,18.638,14.29,8.8105,-22.511
21.1,-12.707,12.521,-57.519,44.628,5.5089,7.7014,-28.56,-1.1504,-25.894,4.7573,-56.525,18.638,14.29,8.8105,-22.511
21.1,-12.707,12.521,-57.519,44.628,5.5089,7.7014,-28.56,-1.1504,-25.894,4.7573,-56.525,18.638,14.29,8.8105,-22.511
20.928,-13.1,12.429,-57.847,44.173,5.0016,7.5115,-28.815,-1.1262,-26.214,4.8802,-56.874,18.513,13.83,8.9261,-23.012
20.928,-13.1,12.429,-57.847,44.173,5.0016,7.5115,-28.815,-1.1262,-26.214,4.8802,-56.874,18.513,13.83,8.9261,-23.012
20.755,-13.494,12.336,-58.175,43.717,4.4933,7.3207,-29.072,-1.103,-26.535,5.0029,-57.223,18.387,13.368,9.0406,-23.514
20.755,-13.494,12.336,-58.175,43.717,4.4933,7.3207,-29.072,-1.103,-26.535,5.0029,-57.223,18.387,13.368,9.0406,-23.514
20.582,-13.889,12.241,-58.504,43.26,3.9841,7.129,-29.33,-1.0808,-26.857,5.1252,-57.573,18.261,12.905,9.1538,-24.017
20.407,-14.285,12.146,-58.832,42.802,3.4739,6.9364,-29.59,-1.0596,-27.179,5.2473,-57.923,18.135,12.44,9.2657,-24.521
20.407,-14.285,12.146,-58.832,42.802,3.4739,6.9364,-29.59,-1.0596,-27.179,5.2473,-57.923,18.135,12.44,9.2657,-24.521
20.233,-14.681,12.049,-59.16,42.344,2.9628,6.743,-29.85,-1.0395,-27.502,5.3691,-58.273,18.008,11.973,9.3763,-25.025
20.233,-14.681,12.049,-59.16,42.344,2.9628,6.743,-29.85,-1.0395,-27.502,5.3691,-58.273,18.008,11.973,9.3763,-25.025
20.233,-14.681,12.049,-59.16,42.344,2.9628,6.743,-29.85,-1.0395,-27.502,5.3691,-58.273,18.008,11.973,9.3763,-25.025
20.057,-15.079,11.951,-59.489,41.886,2.4509,6.5487,-30.111,-1.0203,-27.825,5.4906,-58.623,17.88,11.504,9.4857,-25.53
20.057,-15.079,11.951,-59.489,41.886,2.4509,6.5487,-30.111,-1.0203,-27.825,5.4906,-58.623,17.88,11.504,9.4857,-25.53
20.057,-15.079,11.951,-59.489,41.886,2.4509,6.5487,-30.111,-1.0203,-27.825,5.4906,-58.623,17.88,11.504,9.4857,-25.53
19.881,-15.476,11.852,-59.818,41.426,1.9381,6.3535,-30.373,-1.0021,-28.148,5.6119,-58.974,17.752,11.034,9.5939,-26.036
19.704,-15.875,11.752,-60.146,40.966,1.4245,6.1575,-30.636,-0.98488,-28.472,5.7328,-59.325,17.624,10.562,9.7007,-26.543
19.526,-16.274,11.651,-60.475,40.505,0.91019,5.9607,-30.9,-0.96862,-28.797,5.8535,-59.676,17.495,10.089,9.8064,-27.05
19.526,-16.274,11.651,-60.475,40.505,0.91019,5.9607,-30.9,-0.96862,-28.797,5.8535,-59.676,17.495,10.089,9.8064,-27.05
19.526,-16.274,11.651,-60.475,40.505,0.91019,5.9607,-30.9,-0.96862,-28.797,5.8535,-59.676,17.495,10.089,9.8064,-27.05
19.348,-16.674,11.548,-60.803,40.044,0.39514,5.7631,-31.165,-0.95331,-29.122,5.9739,-60.027,17.366,9.6138,9.9107,-27.557
19.348,-16.674,11.548,-60.803,40.044,0.39514,5.7631,-31.165,-0.95331,-29.122,5.9739,-60.027,17.366,9.6138,9.9107,-27.557
19.169,-17.074,11.445,-61.131,39.582,-0.12061,5.5646,-31.431,-0.93894,-29.447,6.0941,-60.379,17.236,9.1372,10.014,-28.066
19.169,-17.074,11.445,-61.131,39.582,-0.12061,5.5646,-31.431,-0.93894,-29.447,6.0941,-60.379,17.236,9.1372,10.014,-28.066
19.169,-17.074,11.445,-61.131,39.582,-0.12061,5.5646,-31.431,-0.93894,-29.447,6.0941,-60.379,17.236,9.1372,10.014,-28.066
18.989,-17.475,11.34,-61.459,39.12,-0.63701,5.3654,-31.698,-0.9255,-29.773,6.2139,-60.73,17.106,8.6592,10.116,-28.574
18.809,-17.876,11.235,-61.788,38.657,-1.154,5.1654,-31.966,-0.91299,-30.099,6.3335,-61.082,16.976,8.1796,10.216,-29.083
18.628,-18.278,11.128,-62.115,38.194,-1.6717,4.9647,-32.234,-0.90138,-30.425,6.4529,-61.434,16.845,7.6986,10.315,-29.593
18.628,-18.278,11.128,-62.115,38.194,-1.6717,4.9647,-32.234,-0.90138,-30.425,6.4529,-61.434,16.845,7.6986,10.315,-29.593
18.447,-18.681,11.02,-62.443,37.73,-2.1898,4.7632,-32.503,-0.89068,-30.751,6.5719,-61.785,16.714,7.2162,10.414,-30.103
18.447,-18.681,11.02,-62.443,37.73,-2.1898,4.7632,-32.503,-0.89068,-30.751,6.5719,-61.785,16.714,7.2162,10.414,-30.103
18.447,-18.681,11.02,-62.443,37.73,-2.1898,4.7632,-32.503,-0.89068,-30.751,6.5719,-61.785,16.714,7.2162,10.414,-30.103
18.265,-19.084,10.911,-62.771,37.266,-2.7085,4.5609,-32.773,-0.88087,-31.078,6.6907,-62.137,16.583,6.7323,10.51,-30.613
18.265,-19.084,10.911,-62.771,37.266,-2.7085,4.5609,-32.773,-0.88087,-31.078,6.6907,-62.137,16.583,6.7323,10.51,-30.613
18.083,-19.487,10.802,-63.098,36.801,-3.2277,4.3579,-33.044,-0.87193,-31.405,6.8092,-62.489,16.451,6.2471,10.606,-31.124
18.083,-19.487,10.802,-63.098,36.801,-3.2277,4.3579,-33.044,-0.87193,-31.405,6.8092,-62.489,16.451,6.2471,10.606,-31.124
17.9,-19.891,10.691,-63.425,36.336,-3.7473,4.1543,-33.316,-0.86387,-31.732,6.9275,-62.841,16.319,5.7606,10.7,-31.635
17.716,-20.295,10.579,-63.752,35.871,-4.2674,3.9499,-33.588,-0.85666,-32.06,7.0455,-63.193,16.186,5.2727,10.793,-32.146
17.716,-20.295,10.579,-63.752,35.871,-4.2674,3.9499,-33.588,-0.85666,-32.06,7.0455,-63.193,16.186,5.2727,10.793,-32.146
17.532,-20.699,10.467,-64.078,35.405,-4.7878,3.7448,-33.861,-0.85031,-32.387,7.1632,-63.545,16.053,4.7835,10.885,-32.658
17.532,-20.699,10.467,-64.078,35.405,-4.7878,3.7448,-33.861,-0.85031,-32.387,7.1632,-63.545,16.053,4.7835,10.885,-32.658
17.532,-20.699,10.467,-64.078,35.405,-4.7878,3.7448,-33.861,-0.85031,-32.387,7.1632,-63.545,16.053,4.7835,10.885,-32.658
17.348,-21.104,10.353,-64.404,34.939,-5.3086,3.5391,-34.134,-0.84478,-32.715,7.2807,-63.896,15.92,4.2931,10.975,-33.169
17.348,-21.104,10.353,-64.404,34.939,-5.3086,3.5391,-34.134,-0.84478,-32.715,7.2807,-63.896,15.92,4.2931,10.975,-33.169
17.348,-21.104,10.353,-64.404,34.939,-5.3086,3.5391,-34.134,-0.84478,-32.715,7.2807,-63.896,15.92,4.2931,10.975,-33.169
17.163,-21.509,10.238,-64.73,34.472,-5.8296,3.3327,-34.408,-0.84009,-33.043,7.3979,-64.248,15.787,3.8015,11.065,-33.681
16.978,-21.914,10.123,-65.055,34.005,-6.351,3.1256,-34.682,-0.8362,-33.371,7.5149,-64.599,15.653,3.3087,11.153,-34.193
16.978,-21.914,10.123,-65.055,34.005,-6.351,3.1256,-34.682,-0.8362,-33.371,7.5149,-64.599,15.653,3.3087,11.153,-34.193
16.978,-21.914,10.123,-65.055,34.005,-6.351,3.1256,-34.682,-0.8362,-33.371,7.5149,-64.599,15.653,3.3087,11.153,-34.193
16.792,-22.32,10.007,-65.38,33.538,-6.8726,2.9179,-34.958,-0.83312,-33.699,7.6316,-64.95,15.519,2.8147,11.239,-34.705
16.792,-22.32,10.007,-65.38,33.538,-6.8726,2.9179,-34.958,-0.83312,-33.699,7.6316,-64.95,15.519,2.8147,11.239,-34.705
16.792,-22.32,10.007,-65.38,33.538,-6.8726,2.9179,-34.958,-0.83312,-33.699,7.6316,-64.95,15.519,2.8147,11.239,-34.705
16.42,-23.132,9.7713,-66.028,32.604,-7.9165,2.5006,-35.509,-0.82933,-34.355,7.8642,-65.652,15.251,1.8234,11.409,-35.729
16.42,-23.132,9.7713,-66.028,32.604,-7.9165,2.5006,-35.509,-0.82933,-34.355,7.8642,-65.652,15.251,1.8234,11.409,-35.729
16.233,-23.538,9.6524,-66.352,32.136,-8.4386,2.2911,-35.786,-0.82859,-34.683,7.9802,-66.003,15.116,1.3261,11.492,-36.242
16.233,-23.538,9.6524,-66.352,32.136,-8.4386,2.2911,-35.786,-0.82859,-34.683,7.9802,-66.003,15.116,1.3261,11.492,-36.242
16.046,-23.944,9.5326,-66.674,31.668,-8.9608,2.081,-36.063,-0.8286,-35.011,8.0959,-66.353,14.981,0.82774,11.574,-36.754
15.858,-24.35,9.4119,-66.997,31.2,-9.4832,1.8703,-36.34,-0.82936,-35.339,8.2113,-66.703,14.846,0.3284,11.654,-37.266
15.858,-24.35,9.4119,-66.997,31.2,-9.4832,1.8703,-36.34,-0.82936,-35.339,8.2113,-66.703,14.846,0.3284,11.654,-37.266
15.67,-24.757,9.2905,-67.319,30.732,-10.006,1.659,-36.618,-0.83086,-35.666,8.3265,-67.053,14.711,-0.17192,11.734,-37.777
15.67,-24.757,9.2905,-67.319,30.732,-10.006,1.659,-36.618,-0.83086,-35.666,8.3265,-67.053,14.711,-0.17192,11.734,-37.777
15.482,-25.163,9.1682,-67.64,30.264,-10.528,1.4472,-36.896,-0.83307,-35.994,8.4415,-67.402,14.575,-0.67319,11.812,-38.289
15.482,-25.163,9.1682,-67.64,30.264,-10.528,1.4472,-36.896,-0.83307,-35.994,8.4415,-67.402,14.575,-0.67319,11.812,-38.289
15.482,-25.163,9.1682,-67.64,30.264,-10.528,1.4472,-36.896,-0.83307,-35.994,8.4415,-67.402,14.575,-0.67319,11.812,-38.289
15.294,-25.57,9.0452,-67.96,29.796,-11.05,1.2349,-37.174,-0.836,-36.322,8.5562,-67.751,14.44,-1.1754,11.889,-38.801
15.294,-25.57,9.0452,-67.96,29.796,-11.05,1.2349,-37.174,-0.836,-36.322,8.5562,-67.751,14.44,-1.1754,11.889,-38.801
15.105,-25.977,8.9214,-68.28,29.327,-11.573,1.0221,-37.453,-0.83962,-36.649,8.6707,-68.1,14.304,-1.6784,11.964,-39.312
14.916,-26.383,8.7969,-68.599,28.859,-12.095,0.80869,-37.732,-0.84392,-36.976,8.7849,-68.448,14.168,-2.1824,12.039,-39.823
14.916,-26.383,8.7969,-68.599,28.859,-12.095,0.80869,-37.732,-0.84392,-36.976,8.7849,-68.448,14.168,-2.1824,12.039,-39.823
14.727,-26.79,8.6716,-68.918,28.39,-12.617,0.59483,-38.011,-0.8489,-37.303,8.899,-68.796,14.032,-2.6871,12.112,-40.334
14.727,-26.79,8.6716,-68.918,28.39,-12.617,0.59483,-38.011,-0.8489,-37.303,8.899,-68.796,14.032,-2.6871,12.112,-40.334
14.727,-26.79,8.6716,-68.918,28.39,-12.617,0.59483,-38.011,-0.8489,-37.303,8.899,-68.796,14.032,-2.6871,12.112,-40.334
14.538,-27.196,8.5456,-69.236,27.922,-13.139,0.38048,-38.291,-0.85453,-37.63,9.0127,-69.143,13.895,-3.1927,12.184,-40.844
14.538,-27.196,8.5456,-69.236,27.922,-13.139,0.38048,-38.291,-0.85453,-37.63,9.0127,-69.143,13.895,-3.1927,12.184,-40.844
14.348,-27.602,8.419,-69.553,27.454,-13.66,0.16567,-38.57,-0.86082,-37.956,9.1263,-69.49,13.759,-3.699,12.255,-41.354
14.348,-27.602,8.419,-69.553,27.454,-13.66,0.16567,-38.57,-0.86082,-37.956,9.1263,-69.49,13.759,-3.699,12.255,-41.354
14.158,-28.009,8.2916,-69.869,26.985,-14.182,-0.0496,-38.85,-0.86773,-38.282,9.2396,-69.836,13.623,-4.206,12.324,-41.864
13.968,-28.415,8.1636,-70.184,26.517,-14.703,-0.26531,-39.13,-0.87527,-38.608,9.3527,-70.182,13.486,-4.7138,12.393,-42.373
13.968,-28.415,8.1636,-70.184,26.517,-14.703,-0.26531,-39.13,-0.87527,-38.608,9.3527,-70.182,13.486,-4.7138,12.393,-42.373
13.968,-28.415,8.1636,-70.184,26.517,-14.703,-0.26531,-39.13,-0.87527,-38.608,9.3527,-70.182,13.486,-4.7138,12.393,-42.373
13.778,-28.821,8.0349,-70.499,26.049,-15.224,-0.48146,-39.41,-0.88342,-38.934,9.4656,-70.527,13.349,-5.2222,12.46,-42.881
13.778,-28.821,8.0349,-70.499,26.049,-15.224,-0.48146,-39.41,-0.88342,-38.934,9.4656,-70.527,13.349,-5.2222,12.46,-42.881
13.778,-28.821,8.0349,-70.499,26.049,-15.224,-0.48146,-39.41,-0.88342,-38.934,9.4656,-70.527,13.349,-5.2222,12.46,-42.881
13.588,-29.226,7.9056,-70.813,25.581,-15.744,-0.69802,-39.69,-0.89216,-39.259,9.5783,-70.871,13.213,-5.7313,12.526,-43.39
13.398,-29.632,7.7757,-71.125,25.113,-16.265,-0.91498,-39.969,-0.90149,-39.583,9.6908,-71.215,13.076,-6.2409,12.591,-43.897
13.398,-29.632,7.7757,-71.125,25.113,-16.265,-0.91498,-39.969,-0.90149,-39.583,9.6908,-71.215,13.076,-6.2409,12.591,-43.897
13.207,-30.037,7.6451,-71.437,24.645,-16.784,-1.1323,-40.249,-0.91138,-39.908,9.803,-71.558,12.939,-6.7511,12.655,-44.404
13.207,-30.037,7.6451,-71.437,24.645,-16.784,-1.1323,-40.249,-0.91138,-39.908,9.803,-71.558,12.939,-6.7511,12.655,-44.404
13.017,-30.442,7.514,-71.748,24.178,-17.304,-1.3501,-40.529,-0.92183,-40.231,9.9151,-71.901,12.802,-7.2619,12.717,-44.911
12.826,-30.846,7.3823,-72.058,23.71,-17.822,-1.5682,-40.809,-0.93283,-40.555,10.027,-72.243,12.665,-7.7732,12.779,-45.416
12.826,-30.846,7.3823,-72.058,23.71,-17.822,-1.5682,-40.809,-0.93283,-40.555,10.027,-72.243,12.665,-7.7732,12.779,-45.416
12.826,-30.846,7.3823,-72.058,23.71,-17.822,-1.5682,-40.809,-0.93283,-40.555,10.027,-72.243,12.665,-7.7732,12.779,-45.416
12.636,-31.25,7.2501,-72.367,23.243,-18.341,-1.7866,-41.089,-0.94435,-40.878,10.139,-72.584,12.528,-8.285,12.839,-45.922
12.636,-31.25,7.2501,-72.367,23.243,-18.341,-1.7866,-41.089,-0.94435,-40.878,10.139,-72.584,12.528,-8.285,12.839,-45.922
12.636,-31.25,7.2501,-72.367,23.243,-18.341,-1.7866,-41.089,-0.94435,-40.878,10.139,-72.584,12.528,-8.285,12.839,-45.922
12.445,-31.654,7.1174,-72.675,22.776,-18.859,-2.0054,-41.368,-0.9564,-41.2,10.25,-72.924,12.391,-8.7972,12.898,-46.426
12.255,-32.058,6.9841,-72.982,22.31,-19.376,-2.2245,-41.648,-0.96894,-41.522,10.361,-73.263,12.254,-9.3098,12.956,-46.93
12.064,-32.461,6.8503,-73.287,21.843,-19.893,-2.4439,-41.927,-0.98197,-41.843,10.472,-73.602,12.117,-9.8228,13.012,-47.432
12.064,-32.461,6.8503,-73.287,21.843,-19.893,-2.4439,-41.927,-0.98197,-41.843,10.472,-73.602,12.117,-9.8228,13.012,-47.432
11.874,-32.863,6.7161,-73.592,21.377,-20.409,-2.6637,-42.206,-0.99548,-42.163,10.583,-73.94,11.98,-10.336,13.068,-47.934
11.874,-32.863,6.7161,-73.592,21.377,-20.409,-2.6637,-42.206,-0.99548,-42.163,10.583,-73.94,11.98,-10.336,13.068,-47.934
11.874,-32.863,6.7161,-73.592,21.377,-20.409,-2.6637,-42.206,-0.99548,-42.163,10.583,-73.94,11.98,-10.336,13.068,-47.934
11.683,-33.265,6.5813,-73.896,20.912,-20.924,-2.8837,-42.485,-1.0095,-42.483,10.694,-74.277,11.843,-10.85,13.122,-48.435
11.683,-33.265,6.5813,-73.896,20.912,-20.924,-2.8837,-42.485,-1.0095,-42.483,10.694,-74.277,11.843,-10.85,13.122,-48.435
11.493,-33.667,6.4462,-74.198,20.446,-21.438,-3.1039,-42.763,-1.0239,-42.802,10.804,-74.613,11.706,-11.364,13.176,-48.936
11.493,-33.667,6.4462,-74.198,20.446,-21.438,-3.1039,-42.763,-1.0239,-42.802,10.804,-74.613,11.706,-11.364,13.176,-48.936
11.302,-34.068,6.3106,-74.499,19.982,-21.952,-3.3245,-43.042,-1.0387,-43.121,10.915,-74.948,11.57,-11.878,13.228,-49.435
11.112,-34.468,6.1746,-74.799,19.517,-22.465,-3.5452,-43.319,-1.054,-43.439,11.025,-75.282,11.433,-12.392,13.279,-49.933
11.112,-34.468,6.1746,-74.799,19.517,-22.465,-3.5452,-43.319,-1.054,-43.439,11.025,-75.282,11.433,-12.392,13.279,-49.933
11.112,-34.468,6.1746,-74.799,19.517,-22.465,-3.5452,-43.319,-1.054,-43.439,11.025,-75.282,11.433,-12.392,13.279,-49.933
10.922,-34.868,6.0382,-75.098,19.053,-22.978,-3.7662,-43.597,-1.0697,-43.756,11.135,-75.616,11.296,-12.907,13.329,-50.43
10.922,-34.868,6.0382,-75.098,19.053,-22.978,-3.7662,-43.597,-1.0697,-43.756,11.135,-75.616,11.296,-12.907,13.329,-50.43
10.732,-35.267,5.9014,-75.395,18.59,-23.489,-3.9874,-43.874,-1.0858,-44.072,11.244,-75.948,11.16,-13.422,13.378,-50.927
10.732,-35.267,5.9014,-75.395,18.59,-23.489,-3.9874,-43.874,-1.0858,-44.072,11.244,-75.948,11.16,-13.422,13.378,-50.927
10.542,-35.666,5.7643,-75.691,18.126,-24,-4.2089,-44.15,-1.1022,-44.388,11.354,-76.279,11.024,-13.937,13.426,-51.422
10.542,-35.666,5.7643,-75.691,18.126,-24,-4.2089,-44.15,-1.1022,-44.388,11.354,-76.279,11.024,-13.937,13.426,-51.422
10.352,-36.064,5.6268,-75.986,17.664,-24.51,-4.4305,-44.427,-1.119,-44.703,11.463,-76.609,10.887,-14.452,13.473,-51.916
10.163,-36.461,5.4891,-76.28,17.202,-25.018,-4.6523,-44.702,-1.1362,-45.017,11.573,-76.938,10.751,-14.967,13.518,-52.409
10.163,-36.461,5.4891,-76.28,17.202,-25.018,-4.6523,-44.702,-1.1362,-45.017,11.573,-76.938,10.751,-14.967,13.518,-52.409
9.9737,-36.857,5.351,-76.572,16.74,-25.526,-4.8742,-44.977,-1.1537,-45.33,11.682,-77.266,10.615,-15.482,13.563,-52.9
9.9737,-36.857,5.351,-76.572,16.74,-25.526,-4.8742,-44.977,-1.1537,-45.33,11.682,-77.266,10.615,-15.482,13.563,-52.9
9.7847,-37.253,5.2126,-76.862,16.279,-26.033,-5.0963,-45.252,-1.1715,-45.642,11.791,-77.593,10.479,-15.997,13.607,-53.391
9.7847,-37.253,5.2126,-76.862,16.279,-26.033,-5.0963,-45.252,-1.1715,-45.642,11.791,-77.593,10.479,-15.997,13.607,-53.391
9.7847,-37.253,5.2126,-76.862,16.279,-26.033,-5.0963,-45.252,-1.1715,-45.642,11.791,-77.593,10.479,-15.997,13.607,-53.391
9.5959,-37.648,5.074,-77.151,15.819,-26.539,-5.3185,-45.526,-1.1897,-45.953,11.9,-77.918,10.344,-16.512,13.649,-53.88
9.5959,-37.648,5.074,-77.151,15.819,-26.539,-5.3185,-45.526,-1.1897,-45.953,11.9,-77.918,10.344,-16.512,13.649,-53.88
9.5959,-37.648,5.074,-77.151,15.819,-26.539,-5.3185,-45.526,-1.1897,-45.953,11.9,-77.918,10.344,-16.512,13.649,-53.88
9.4074,-38.042,4.9351,-77.439,15.359,-27.043,-5.5409,-45.799,-1.2081,-46.263,12.009,-78.243,10.208,-17.027,13.691,-54.368
9.4074,-38.042,4.9351,-77.439,15.359,-27.043,-5.5409,-45.799,-1.2081,-46.263,12.009,-78.243,10.208,-17.027,13.691,-54.368
9.4074,-38.042,4.9351,-77.439,15.359,-27.043,-5.5409,-45.799,-1.2081,-46.263,12.009,-78.243,10.208,-17.027,13.691,-54.368
9.0312,-38.828,4.6566,-78.01,14.442,-28.05,-5.9859,-46.344,-1.2458,-46.881,12.226,-78.888,9.9379,-18.057,13.771,-55.34
9.0312,-38.828,4.6566,-78.01,14.442,-28.05,-5.9859,-46.344,-1.2458,-46.881,12.226,-78.888,9.9379,-18.057,13.771,-55.34
8.8436,-39.22,4.5171,-78.293,13.984,-28.551,-6.2085,-46.615,-1.265,-47.188,12.334,-79.209,9.8031,-18.571,13.809,-55.824
8.8436,-39.22,4.5171,-78.293,13.984,-28.551,-6.2085,-46.615,-1.265,-47.188,12.334,-79.209,9.8031,-18.571,13.809,-55.824
8.8436,-39.22,4.5171,-78.293,13.984,-28.551,-6.2085,-46.615,-1.265,-47.188,12.334,-79.209,9.8031,-18.571,13.809,-55.824
8.6563,-39.611,4.3774,-78.575,13.527,-29.051,-6.4312,-46.885,-1.2844,-47.495,12.442,-79.528,9.6685,-19.086,13.847,-56.306
8.4694,-40,4.2376,-78.855,13.07,-29.55,-6.654,-47.155,-1.3041,-47.8,12.55,-79.846,9.5341,-19.6,13.883,-56.787
8.2828,-40.389,4.0976,-79.133,12.615,-30.047,-6.8767,-47.424,-1.324,-48.104,12.658,-80.163,9.4,-20.114,13.919,-57.266
8.2828,-40.389,4.0976,-79.133,12.615,-30.047,-6.8767,-47.424,-1.324,-48.104,12.658,-80.163,9.4,-20.114,13.919,-57.266
8.0966,-40.777,3.9575,-79.41,12.16,-30.544,-7.0995,-47.692,-1.344,-48.407,12.766,-80.478,9.2662,-20.627,13.953,-57.744
8.0966,-40.777,3.9575,-79.41,12.16,-30.544,-7.0995,-47.692,-1.344,-48.407,12.766,-80.478,9.2662,-20.627,13.953,-57.744
8.0966,-40.777,3.9575,-79.41,12.16,-30.544,-7.0995,-47.692,-1.344,-48.407,12.766,-80.478,9.2662,-20.627,13.953,-57.744
7.9109,-41.164,3.8173,-79.685,11.706,-31.039,-7.3224,-47.959,-1.3643,-48.709,12.874,-80.792,9.1327,-21.141,13.987,-58.221
7.9109,-41.164,3.8173,-79.685,11.706,-31.039,-7.3224,-47.959,-1.3643,-48.709,12.874,-80.792,9.1327,-21.141,13.987,-58.221
7.7255,-41.549,3.677,-79.959,11.252,-31.533,-7.5452,-48.225,-1.3847,-49.009,12.981,-81.104,8.9994,-21.653,14.019,-58.695
7.7255,-41.549,3.677,-79.959,11.252,-31.533,-7.5452,-48.225,-1.3847,-49.009,12.981,-81.104,8.9994,-21.653,14.019,-58.695
7.5406,-41.934,3.5366,-80.23,10.8,-32.025,-7.768,-48.491,-1.4052,-49.309,13.089,-81.415,8.8664,-22.166,14.051,-59.168
7.5406,-41.934,3.5366,-80.23,10.8,-32.025,-7.768,-48.491,-1.4052,-49.309,13.089,-81.415,8.8664,-22.166,14.051,-59.168
7.3562,-42.318,3.3962,-80.5,10.348,-32.516,-7.9907,-48.755,-1.4259,-49.607,13.196,-81.725,8.7338,-22.678,14.082,-59.64
7.1723,-42.7,3.2558,-80.768,9.8974,-33.005,-8.2135,-49.018,-1.4467,-49.904,13.304,-82.033,8.6015,-23.19,14.111,-60.109
7.1723,-42.7,3.2558,-80.768,9.8974,-33.005,-8.2135,-49.018,-1.4467,-49.904,13.304,-82.033,8.6015,-23.19,14.111,-60.109
6.9888,-43.081,3.1154,-81.035,9.4476,-33.493,-8.4361,-49.281,-1.4676,-50.2,13.411,-82.339,8.4695,-23.701,14.14,-60.577
6.9888,-43.081,3.1154,-81.035,9.4476,-33.493,-8.4361,-49.281,-1.4676,-50.2,13.411,-82.339,8.4695,-23.701,14.14,-60.577
6.9888,-43.081,3.1154,-81.035,9.4476,-33.493,-8.4361,-49.281,-1.4676,-50.2,13.411,-82.339,8.4695,-23.701,14.14,-60.577
6.8058,-43.462,2.975,-81.299,8.9986,-33.98,-8.6587,-49.542,-1.4885,-50.494,13.518,-82.644,8.3379,-24.211,14.168,-61.043
6.8058,-43.462,2.975,-81.299,8.9986,-33.98,-8.6587,-49.542,-1.4885,-50.494,13.518,-82.644,8.3379,-24.211,14.168,-61.043
6.6234,-43.84,2.8346,-81.562,8.5506,-34.464,-8.8812,-49.802,-1.5096,-50.787,13.625,-82.948,8.2066,-24.721,14.195,-61.508
6.6234,-43.84,2.8346,-81.562,8.5506,-34.464,-8.8812,-49.802,-1.5096,-50.787,13.625,-82.948,8.2066,-24.721,14.195,-61.508
6.4416,-44.218,2.6943,-81.822,8.1035,-34.948,-9.1036,-50.061,-1.5307,-51.079,13.733,-83.249,8.0757,-25.231,14.222,-61.97
6.2603,-44.595,2.554,-82.081,7.6575,-35.43,-9.3259,-50.319,-1.5518,-51.369,13.84,-83.549,7.9452,-25.74,14.247,-62.431
6.2603,-44.595,2.554,-82.081,7.6575,-35.43,-9.3259,-50.319,-1.5518,-51.369,13.84,-83.549,7.9452,-25.74,14.247,-62.431
6.0796,-44.97,2.4139,-82.338,7.2124,-35.91,-9.548,-50.576,-1.5729,-51.658,13.947,-83.848,7.8152,-26.248,14.271,-62.889
6.0796,-44.97,2.4139,-82.338,7.2124,-35.91,-9.548,-50.576,-1.5729,-51.658,13.947,-83.848,7.8152,-26.248,14.271,-62.889
6.0796,-44.97,2.4139,-82.338,7.2124,-35.91,-9.548,-50.576,-1.5729,-51.658,13.947,-83.848,7.8152,-26.248,14.271,-62.889
5.8995,-45.344,2.2738,-82.593,6.7683,-36.388,-9.77,-50.831,-1.5941,-51.945,14.054,-84.144,7.6855,-26.755,14.295,-63.346
5.8995,-45.344,2.2738,-82.593,6.7683,-36.388,-9.77,-50.831,-1.5941,-51.945,14.054,-84.144,7.6855,-26.755,14.295,-63.346
5.72,-45.716,2.1339,-82.846,6.3253,-36.865,-9.9918,-51.085,-1.6152,-52.231,14.16,-84.439,7.5562,-27.262,14.318,-63.8
5.72,-45.716,2.1339,-82.846,6.3253,-36.865,-9.9918,-51.085,-1.6152,-52.231,14.16,-84.439,7.5562,-27.262,14.318,-63.8
5.72,-45.716,2.1339,-82.846,6.3253,-36.865,-9.9918,-51.085,-1.6152,-52.231,14.16,-84.439,7.5562,-27.262,14.318,-63.8
5.5411,-46.087,1.9941,-83.097,5.8834,-37.34,-10.214,-51.338,-1.6364,-52.516,14.267,-84.732,7.4274,-27.768,14.34,-64.253
5.5411,-46.087,1.9941,-83.097,5.8834,-37.34,-10.214,-51.338,-1.6364,-52.516,14.267,-84.732,7.4274,-27.768,14.34,-64.253
5.5411,-46.087,1.9941,-83.097,5.8834,-37.34,-10.214,-51.338,-1.6364,-52.516,14.267,-84.732,7.4274,-27.768,14.34,-64.253
5.1854,-46.825,1.7151,-83.592,5.0027,-38.285,-10.656,-51.84,-1.6785,-53.08,14.481,-85.313,7.1711,-28.777,14.381,-65.152
5.1854,-46.825,1.7151,-83.592,5.0027,-38.285,-10.656,-51.84,-1.6785,-53.08,14.481,-85.313,7.1711,-28.777,14.381,-65.152
5.1854,-46.825,1.7151,-83.592,5.0027,-38.285,-10.656,-51.84,-1.6785,-53.08,14.481,-85.313,7.1711,-28.777,14.381,-65.152
5.0086,-47.192,1.5759,-83.837,4.5641,-38.754,-10.877,-52.088,-1.6994,-53.36,14.588,-85.601,7.0437,-29.281,14.401,-65.598
4.8325,-47.558,1.4369,-84.079,4.1266,-39.222,-11.098,-52.336,-1.7203,-53.638,14.694,-85.887,6.9168,-29.784,14.42,-66.043
4.6571,-47.922,1.2982,-84.32,3.6903,-39.688,-11.319,-52.582,-1.7411,-53.915,14.801,-86.171,6.7903,-30.285,14.438,-66.485
4.6571,-47.922,1.2982,-84.32,3.6903,-39.688,-11.319,-52.582,-1.7411,-53.915,14.801,-86.171,6.7903,-30.285,14.438,-66.485
4.6571,-47.922,1.2982,-84.32,3.6903,-39.688,-11.319,-52.582,-1.7411,-53.915,14.801,-86.171,6.7903,-30.285,14.438,-66.485
4.4825,-48.284,1.1597,-84.558,3.2552,-40.152,-11.539,-52.826,-1.7618,-54.19,14.908,-86.453,6.6644,-30.786,14.455,-66.924
4.4825,-48.284,1.1597,-84.558,3.2552,-40.152,-11.539,-52.826,-1.7618,-54.19,14.908,-86.453,6.6644,-30.786,14.455,-66.924
4.4825,-48.284,1.1597,-84.558,3.2552,-40.152,-11.539,-52.826,-1.7618,-54.19,14.908,-86.453,6.6644,-30.786,14.455,-66.924
4.4825,-48.284,1.1597,-84.558,3.2552,-40.152,-11.539,-52.826,-1.7618,-54.19,14.908,-86.453,6.6644,-30.786,14.455,-66.924
4.1355,-49.005,0.88366,-85.027,2.3886,-41.075,-11.979,-53.311,-1.8027,-54.735,15.121,-87.011,6.4141,-31.785,14.488,-67.797
4.1355,-49.005,0.88366,-85.027,2.3886,-41.075,-11.979,-53.311,-1.8027,-54.735,15.121,-87.011,6.4141,-31.785,14.488,-67.797
4.1355,-49.005,0.88366,-85.027,2.3886,-41.075,-11.979,-53.311,-1.8027,-54.735,15.121,-87.011,6.4141,-31.785,14.488,-67.797
3.9632,-49.362,0.7461,-85.259,1.9571,-41.533,-12.198,-53.55,-1.8229,-55.005,15.228,-87.287,6.2897,-32.282,14.503,-68.23
3.9632,-49.362,0.7461,-85.259,1.9571,-41.533,-12.198,-53.55,-1.8229,-55.005,15.228,-87.287,6.2897,-32.282,14.503,-68.23
3.7918,-49.718,0.60889,-85.488,1.527,-41.989,-12.418,-53.789,-1.8429,-55.273,15.335,-87.562,6.1659,-32.779,14.517,-68.66
3.7918,-49.718,0.60889,-85.488,1.527,-41.989,-12.418,-53.789,-1.8429,-55.273,15.335,-87.562,6.1659,-32.779,14.517,-68.66
3.7918,-49.718,0.60889,-85.488,1.527,-41.989,-12.418,-53.789,-1.8429,-55.273,15.335,-87.562,6.1659,-32.779,14.517,-68.66
3.4513,-50.426,0.33558,-85.94,0.67057,-42.895,-12.855,-54.26,-1.8824,-55.804,15.548,-88.104,5.9201,-33.769,14.544,-69.514
3.4513,-50.426,0.33558,-85.94,0.67057,-42.895,-12.855,-54.26,-1.8824,-55.804,15.548,-88.104,5.9201,-33.769,14.544,-69.514
3.4513,-50.426,0.33558,-85.94,0.67057,-42.895,-12.855,-54.26,-1.8824,-55.804,15.548,-88.104,5.9201,-33.769,14.544,-69.514
3.2824,-50.777,0.19952,-86.162,0.24435,-43.345,-13.073,-54.493,-1.9018,-56.067,15.655,-88.372,5.798,-34.262,14.556,-69.937
3.2824,-50.777,0.19952,-86.162,0.24435,-43.345,-13.073,-54.493,-1.9018,-56.067,15.655,-88.372,5.798,-34.262,14.556,-69.937
3.1144,-51.127,0.063879,-86.382,-0.18051,-43.793,-13.291,-54.725,-1.9209,-56.328,15.762,-88.638,5.6766,-34.754,14.568,-70.358
2.9472,-51.474,-0.071315,-86.599,-0.604,-44.239,-13.508,-54.955,-1.9398,-56.588,15.869,-88.901,5.5558,-35.245,14.579,-70.776
2.9472,-51.474,-0.071315,-86.599,-0.604,-44.239,-13.508,-54.955,-1.9398,-56.588,15.869,-88.901,5.5558,-35.245,14.579,-70.776
2.781,-51.82,-0.20605,-86.814,-1.0261,-44.683,-13.725,-55.183,-1.9584,-56.845,15.976,-89.163,5.4356,-35.734,14.59,-71.191
2.781,-51.82,-0.20605,-86.814,-1.0261,-44.683,-13.725,-55.183,-1.9584,-56.845,15.976,-89.163,5.4356,-35.734,14.59,-71.191
2.781,-51.82,-0.20605,-86.814,-1.0261,-44.683,-13.725,-55.183,-1.9584,-56.845,15.976,-89.163,5.4356,-35.734,14.59,-71.191
2.781,-51.82,-0.20605,-86.814,-1.0261,-44.683,-13.725,-55.183,-1.9584,-56.845,15.976,-89.163,5.4356,-35.734,14.59,-71.191
2.4515,-52.507,-0.47404,-87.236,-1.866,-45.563,-14.158,-55.633,-1.9948,-57.354,16.19,-89.679,5.1971,-36.709,14.609,-72.015
2.4515,-52.507,-0.47404,-87.236,-1.866,-45.563,-14.158,-55.633,-1.9948,-57.354,16.19,-89.679,5.1971,-36.709,14.609,-72.015
2.4515,-52.507,-0.47404,-87.236,-1.866,-45.563,-14.158,-55.633,-1.9948,-57.354,16.19,-89.679,5.1971,-36.709,14.609,-72.015
2.2881,-52.847,-0.60727,-87.444,-2.2838,-46,-14.373,-55.855,-2.0125,-57.605,16.297,-89.934,5.0789,-37.194,14.618,-72.422
2.1258,-53.186,-0.73995,-87.649,-2.7001,-46.434,-14.588,-56.076,-2.0299,-57.855,16.405,-90.187,4.9613,-37.678,14.626,-72.827
1.9644,-53.523,-0.87207,-87.851,-3.1149,-46.866,-14.803,-56.294,-2.0469,-58.102,16.512,-90.437,4.8445,-38.161,14.634,-73.229
1.9644,-53.523,-0.87207,-87.851,-3.1149,-46.866,-14.803,-56.294,-2.0469,-58.102,16.512,-90.437,4.8445,-38.161,14.634,-73.229
1.9644,-53.523,-0.87207,-87.851,-3.1149,-46.866,-14.803,-56.294,-2.0469,-58.102,16.512,-90.437,4.8445,-38.161,14.634,-73.229
1.8041,-53.858,-1.0036,-88.051,-3.5282,-47.296,-15.017,-56.511,-2.0635,-58.348,16.62,-90.685,4.7283,-38.642,14.641,-73.629
1.8041,-53.858,-1.0036,-88.051,-3.5282,-47.296,-15.017,-56.511,-2.0635,-58.348,16.62,-90.685,4.7283,-38.642,14.641,-73.629
1.8041,-53.858,-1.0036,-88.051,-3.5282,-47.296,-15.017,-56.511,-2.0635,-58.348,16.62,-90.685,4.7283,-38.642,14.641,-73.629
1.6448,-54.191,-1.1345,-88.248,-3.9399,-47.724,-15.231,-56.725,-2.0798,-58.592,16.727,-90.93,4.6128,-39.121,14.647,-74.026
1.4866,-54.522,-1.2649,-88.443,-4.3501,-48.149,-15.444,-56.938,-2.0957,-58.833,16.835,-91.173,4.4981,-39.6,14.654,-74.419
1.3295,-54.851,-1.3945,-88.635,-4.7588,-48.571,-15.657,-57.148,-2.1111,-59.072,16.943,-91.414,4.3841,-40.076,14.659,-74.81
1.3295,-54.851,-1.3945,-88.635,-4.7588,-48.571,-15.657,-57.148,-2.1111,-59.072,16.943,-91.414,4.3841,-40.076,14.659,-74.81
1.1734,-55.178,-1.5236,-88.824,-5.1658,-48.992,-15.869,-57.356,-2.1261,-59.309,17.05,-91.653,4.2708,-40.551,14.664,-75.199
1.1734,-55.178,-1.5236,-88.824,-5.1658,-48.992,-15.869,-57.356,-2.1261,-59.309,17.05,-91.653,4.2708,-40.551,14.664,-75.199
1.1734,-55.178,-1.5236,-88.824,-5.1658,-48.992,-15.869,-57.356,-2.1261,-59.309,17.05,-91.653,4.2708,-40.551,14.664,-75.199
1.0185,-55.503,-1.6519,-89.011,-5.5712,-49.409,-16.081,-57.563,-2.1407,-59.545,17.158,-91.888,4.1583,-41.024,14.669,-75.584
1.0185,-55.503,-1.6519,-89.011,-5.5712,-49.409,-16.081,-57.563,-2.1407,-59.545,17.158,-91.888,4.1583,-41.024,14.669,-75.584
1.0185,-55.503,-1.6519,-89.011,-5.5712,-49.409,-16.081,-57.563,-2.1407,-59.545,17.158,-91.888,4.1583,-41.024,14.669,-75.584
0.86467,-55.826,-1.7795,-89.194,-5.975,-49.825,-16.292,-57.767,-2.1548,-59.777,17.267,-92.122,4.0466,-41.496,14.673,-75.966
0.712,-56.146,-1.9064,-89.375,-6.3771,-50.237,-16.502,-57.968,-2.1684,-60.008,17.375,-92.353,3.9356,-41.966,14.677,-76.345
0.712,-56.146,-1.9064,-89.375,-6.3771,-50.237,-16.502,-57.968,-2.1684,-60.008,17.375,-92.353,3.9356,-41.966,14.677,-76.345
0.56049,-56.465,-2.0326,-89.554,-6.7775,-50.647,-16.712,-58.168,-2.1815,-60.237,17.483,-92.581,3.8254,-42.434,14.68,-76.722
0.41016,-56.782,-2.158,-89.729,-7.1763,-51.055,-16.921,-58.365,-2.1942,-60.463,17.592,-92.807,3.7161,-42.9,14.683,-77.095
0.41016,-56.782,-2.158,-89.729,-7.1763,-51.055,-16.921,-58.365,-2.1942,-60.463,17.592,-92.807,3.7161,-42.9,14.683,-77.095
0.41016,-56.782,-2.158,-89.729,-7.1763,-51.055,-16.921,-58.365,-2.1942,-60.463,17.592,-92.807,3.7161,-42.9,14.683,-77.095
0.41016,-56.782,-2.158,-89.729,-7.1763,-51.055,-16.921,-58.365,-2.1942,-60.463,17.592,-92.807,3.7161,-42.9,14.683,-77.095
0.26102,-57.096,-2.2827,-89.902,-7.5733,-51.46,-17.13,-58.56,-2.2063,-60.687,17.701,-93.03,3.6075,-43.365,14.686,-77.465
0.26102,-57.096,-2.2827,-89.902,-7.5733,-51.46,-17.13,-58.56,-2.2063,-60.687,17.701,-93.03,3.6075,-43.365,14.686,-77.465
0.11309,-57.409,-2.4065,-90.072,-7.9686,-51.862,-17.337,-58.753,-2.2178,-60.909,17.809,-93.251,3.4998,-43.828,14.688,-77.832
-0.033619,-57.719,-2.5295,-90.238,-8.3622,-52.262,-17.545,-58.944,-2.2288,-61.128,17.919,-93.469,3.3929,-44.289,14.69,-78.196
-0.033619,-57.719,-2.5295,-90.238,-8.3622,-52.262,-17.545,-58.944,-2.2288,-61.128,17.919,-93.469,3.3929,-44.289,14.69,-78.196
-0.033619,-57.719,-2.5295,-90.238,-8.3622,-52.262,-17.545,-58.944,-2.2288,-61.128,17.919,-93.469,3.3929,-44.289,14.69,-78.196
-0.17908,-58.027,-2.6517,-90.402,-8.7539,-52.659,-17.751,-59.132,-2.2392,-61.346,18.028,-93.684,3.2869,-44.748,14.691,-78.557
-0.17908,-58.027,-2.6517,-90.402,-8.7539,-52.659,-17.751,-59.132,-2.2392,-61.346,18.028,-93.684,3.2869,-44.748,14.691,-78.557
-0.46622,-58.636,-2.8934,-90.722,-9.5321,-53.444,-18.162,-59.5,-2.2583,-61.773,18.247,-94.107,3.0774,-45.66,14.693,-79.268
-0.46622,-58.636,-2.8934,-90.722,-9.5321,-53.444,-18.162,-59.5,-2.2583,-61.773,18.247,-94.107,3.0774,-45.66,14.693,-79.268
-0.46622,-58.636,-2.8934,-90.722,-9.5321,-53.444,-18.162,-59.5,-2.2583,-61.773,18.247,-94.107,3.0774,-45.66,14.693,-79.268
-0.60785,-58.937,-3.013,-90.877,-9.9185,-53.833,-18.367,-59.681,-2.2669,-61.983,18.357,-94.314,2.974,-46.113,14.694,-79.619
-0.60785,-58.937,-3.013,-90.877,-9.9185,-53.833,-18.367,-59.681,-2.2669,-61.983,18.357,-94.314,2.974,-46.113,14.694,-79.619
-0.60785,-58.937,-3.013,-90.877,-9.9185,-53.833,-18.367,-59.681,-2.2669,-61.983,18.357,-94.314,2.974,-46.113,14.694,-79.619
-0.74818,-59.236,-3.1316,-91.029,-10.303,-54.219,-18.57,-59.86,-2.2749,-62.191,18.467,-94.519,2.8715,-46.564,14.694,-79.967
-0.74818,-59.236,-3.1316,-91.029,-10.303,-54.219,-18.57,-59.86,-2.2749,-62.191,18.467,-94.519,2.8715,-46.564,14.694,-79.967
-0.88719,-59.533,-3.2493,-91.178,-10.686,-54.602,-18.773,-60.035,-2.2822,-62.396,18.577,-94.721,2.7698,-47.014,14.694,-80.312
-0.88719,-59.533,-3.2493,-91.178,-10.686,-54.602,-18.773,-60.035,-2.2822,-62.396,18.577,-94.721,2.7698,-47.014,14.694,-80.312
-1.1612,-60.119,-3.4818,-91.468,-11.445,-55.36,-19.177,-60.379,-2.2949,-62.799,18.798,-95.116,2.5693,-47.906,14.694,-80.99
-1.1612,-60.119,-3.4818,-91.468,-11.445,-55.36,-19.177,-60.379,-2.2949,-62.799,18.798,-95.116,2.5693,-47.906,14.694,-80.99
-1.1612,-60.119,-3.4818,-91.468,-11.445,-55.36,-19.177,-60.379,-2.2949,-62.799,18.798,-95.116,2.5693,-47.906,14.694,-80.99
-1.2961,-60.408,-3.5965,-91.608,-11.822,-55.734,-19.377,-60.547,-2.3002,-62.997,18.909,-95.309,2.4705,-48.348,14.693,-81.325
-1.2961,-60.408,-3.5965,-91.608,-11.822,-55.734,-19.377,-60.547,-2.3002,-62.997,18.909,-95.309,2.4705,-48.348,14.693,-81.325
-1.2961,-60.408,-3.5965,-91.608,-11.822,-55.734,-19.377,-60.547,-2.3002,-62.997,18.909,-95.309,2.4705,-48.348,14.693,-81.325
-1.4297,-60.695,-3.7103,-91.745,-12.197,-56.106,-19.577,-60.713,-2.3048,-63.192,19.02,-95.499,2.3726,-48.789,14.692,-81.656
-1.5618,-60.98,-3.823,-91.878,-12.57,-56.475,-19.776,-60.875,-2.3086,-63.385,19.131,-95.687,2.2756,-49.228,14.691,-81.983
-1.5618,-60.98,-3.823,-91.878,-12.57,-56.475,-19.776,-60.875,-2.3086,-63.385,19.131,-95.687,2.2756,-49.228,14.691,-81.983
-1.6926,-61.262,-3.9346,-92.009,-12.941,-56.841,-19.974,-61.035,-2.3117,-63.575,19.243,-95.872,2.1797,-49.664,14.69,-82.307
-1.6926,-61.262,-3.9346,-92.009,-12.941,-56.841,-19.974,-61.035,-2.3117,-63.575,19.243,-95.872,2.1797,-49.664,14.69,-82.307
-1.8219,-61.542,-4.0452,-92.137,-13.31,-57.203,-20.172,-61.193,-2.3141,-63.763,19.355,-96.053,2.0847,-50.098,14.688,-82.628
-1.8219,-61.542,-4.0452,-92.137,-13.31,-57.203,-20.172,-61.193,-2.3141,-63.763,19.355,-96.053,2.0847,-50.098,14.688,-82.628
-1.9497,-61.819,-4.1547,-92.261,-13.677,-57.563,-20.368,-61.347,-2.3157,-63.948,19.467,-96.232,1.9907,-50.53,14.687,-82.944
-1.9497,-61.819,-4.1547,-92.261,-13.677,-57.563,-20.368,-61.347,-2.3157,-63.948,19.467,-96.232,1.9907,-50.53,14.687,-82.944
-2.0761,-62.093,-4.2631,-92.382,-14.042,-57.92,-20.564,-61.499,-2.3165,-64.13,19.579,-96.408,1.8977,-50.959,14.685,-83.258
-2.0761,-62.093,-4.2631,-92.382,-14.042,-57.92,-20.564,-61.499,-2.3165,-64.13,19.579,-96.408,1.8977,-50.959,14.685,-83.258
-2.0761,-62.093,-4.2631,-92.382,-14.042,-57.92,-20.564,-61.499,-2.3165,-64.13,19.579,-96.408,1.8977,-50.959,14.685,-83.258
-2.201,-62.366,-4.3703,-92.5,-14.405,-58.274,-20.758,-61.648,-2.3165,-64.31,19.692,-96.58,1.8057,-51.386,14.684,-83.568
-2.201,-62.366,-4.3703,-92.5,-14.405,-58.274,-20.758,-61.648,-2.3165,-64.31,19.692,-96.58,1.8057,-51.386,14.684,-83.568
-2.4463,-62.902,-4.5813,-92.726,-15.125,-58.972,-21.145,-61.938,-2.314,-64.662,19.918,-96.917,1.6248,-52.233,14.68,-84.176
-2.4463,-62.902,-4.5813,-92.726,-15.125,-58.972,-21.145,-61.938,-2.314,-64.662,19.918,-96.917,1.6248,-52.233,14.68,-84.176
-2.4463,-62.902,-4.5813,-92.726,-15.125,-58.972,-21.145,-61.938,-2.314,-64.662,19.918,-96.917,1.6248,-52.233,14.68,-84.176
-2.5667,-63.167,-4.6851,-92.834,-15.482,-59.317,-21.337,-62.078,-2.3115,-64.834,20.032,-97.08,1.5359,-52.653,14.678,-84.475
-2.5667,-63.167,-4.6851,-92.834,-15.482,-59.317,-21.337,-62.078,-2.3115,-64.834,20.032,-97.08,1.5359,-52.653,14.678,-84.475
-2.6855,-63.429,-4.7876,-92.939,-15.836,-59.658,-21.527,-62.216,-2.3082,-65.003,20.146,-97.241,1.4481,-53.071,14.676,-84.77
-2.8028,-63.688,-4.8889,-93.04,-16.189,-59.996,-21.717,-62.351,-2.304,-65.169,20.26,-97.398,1.3613,-53.486,14.674,-85.061
-2.8028,-63.688,-4.8889,-93.04,-16.189,-59.996,-21.717,-62.351,-2.304,-65.169,20.26,-97.398,1.3613,-53.486,14.674,-85.061
-2.8028,-63.688,-4.8889,-93.04,-16.189,-59.996,-21.717,-62.351,-2.304,-65.169,20.26,-97.398,1.3613,-53.486,14.674,-85.061
-2.8028,-63.688,-4.8889,-93.04,-16.189,-59.996,-21.717,-62.351,-2.304,-65.169,20.26,-97.398,1.3613,-53.486,14.674,-85.061
-2.9185,-63.944,-4.9889,-93.138,-16.539,-60.332,-21.906,-62.482,-2.2989,-65.333,20.375,-97.553,1.2756,-53.898,14.672,-85.349
-2.9185,-63.944,-4.9889,-93.138,-16.539,-60.332,-21.906,-62.482,-2.2989,-65.333,20.375,-97.553,1.2756,-53.898,14.672,-85.349
-2.9185,-63.944,-4.9889,-93.138,-16.539,-60.332,-21.906,-62.482,-2.2989,-65.333,20.375,-97.553,1.2756,-53.898,14.672,-85.349
-3.1452,-64.449,-5.1852,-93.324,-17.233,-60.992,-22.281,-62.737,-2.2859,-65.652,20.605,-97.852,1.1075,-54.715,14.668,-85.913
-3.1452,-64.449,-5.1852,-93.324,-17.233,-60.992,-22.281,-62.737,-2.2859,-65.652,20.605,-97.852,1.1075,-54.715,14.668,-85.913
-3.2561,-64.698,-5.2814,-93.412,-17.577,-61.318,-22.467,-62.859,-2.2781,-65.807,20.72,-97.996,1.0251,-55.12,14.666,-86.189
-3.2561,-64.698,-5.2814,-93.412,-17.577,-61.318,-22.467,-62.859,-2.2781,-65.807,20.72,-97.996,1.0251,-55.12,14.666,-86.189
-3.3654,-64.944,-5.3763,-93.496,-17.919,-61.64,-22.652,-62.979,-2.2692,-65.96,20.836,-98.138,0.94381,-55.522,14.664,-86.461
-3.3654,-64.944,-5.3763,-93.496,-17.919,-61.64,-22.652,-62.979,-2.2692,-65.96,20.836,-98.138,0.94381,-55.522,14.664,-86.461
-3.473,-65.187,-5.4698,-93.578,-18.258,-61.959,-22.836,-63.095,-2.2595,-66.109,20.952,-98.276,0.86364,-55.921,14.662,-86.729
-3.473,-65.187,-5.4698,-93.578,-18.258,-61.959,-22.836,-63.095,-2.2595,-66.109,20.952,-98.276,0.86364,-55.921,14.662,-86.729
-3.579,-65.427,-5.562,-93.655,-18.595,-62.274,-23.019,-63.209,-2.2487,-66.256,21.069,-98.411,0.7846,-56.318,14.661,-86.994
-3.579,-65.427,-5.562,-93.655,-18.595,-62.274,-23.019,-63.209,-2.2487,-66.256,21.069,-98.411,0.7846,-56.318,14.661,-86.994
-3.6833,-65.664,-5.6528,-93.729,-18.93,-62.587,-23.2,-63.319,-2.237,-66.4,21.186,-98.542,0.70671,-56.712,14.659,-87.254
-3.6833,-65.664,-5.6528,-93.729,-18.93,-62.587,-23.2,-63.319,-2.237,-66.4,21.186,-98.542,0.70671,-56.712,14.659,-87.254
-3.786,-65.899,-5.7423,-93.8,-19.262,-62.896,-23.381,-63.426,-2.2243,-66.541,21.303,-98.671,0.62997,-57.103,14.658,-87.511
-3.786,-65.899,-5.7423,-93.8,-19.262,-62.896,-23.381,-63.426,-2.2243,-66.541,21.303,-98.671,0.62997,-57.103,14.658,-87.511
-3.8869,-66.131,-5.8303,-93.867,-19.592,-63.201,-23.561,-63.53,-2.2105,-66.679,21.421,-98.796,0.55439,-57.491,14.656,-87.764
-3.8869,-66.131,-5.8303,-93.867,-19.592,-63.201,-23.561,-63.53,-2.2105,-66.679,21.421,-98.796,0.55439,-57.491,14.656,-87.764
-3.9861,-66.36,-5.9168,-93.93,-19.92,-63.504,-23.739,-63.631,-2.1958,-66.814,21.539,-98.917,0.47998,-57.877,14.655,-88.012
-3.9861,-66.36,-5.9168,-93.93,-19.92,-63.504,-23.739,-63.631,-2.1958,-66.814,21.539,-98.917,0.47998,-57.877,14.655,-88.012
-4.0836,-66.586,-6.0019,-93.99,-20.246,-63.803,-23.916,-63.728,-2.1799,-66.947,21.657,-99.036,0.40676,-58.26,14.654,-88.257
-4.0836,-66.586,-6.0019,-93.99,-20.246,-63.803,-23.916,-63.728,-2.1799,-66.947,21.657,-99.036,0.40676,-58.26,14.654,-88.257
-4.1794,-66.809,-6.0856,-94.046,-20.569,-64.098,-24.092,-63.823,-2.1631,-67.076,21.776,-99.151,0.33472,-58.64,14.654,-88.497
-4.1794,-66.809,-6.0856,-94.046,-20.569,-64.098,-24.092,-63.823,-2.1631,-67.076,21.776,-99.151,0.33472,-58.64,14.654,-88.497
-4.2734,-67.029,-6.1678,-94.099,-20.89,-64.39,-24.267,-63.913,-2.1451,-67.202,21.895,-99.262,0.26389,-59.017,14.653,-88.734
-4.2734,-67.029,-6.1678,-94.099,-20.89,-64.39,-24.267,-63.913,-2.1451,-67.202,21.895,-99.262,0.26389,-59.017,14.653,-88.734
-4.3656,-67.247,-6.2484,-94.148,-21.208,-64.679,-24.441,-64.001,-2.1261,-67.326,22.015,-99.37,0.19426,-59.391,14.653,-88.966
-4.3656,-67.247,-6.2484,-94.148,-21.208,-64.679,-24.441,-64.001,-2.1261,-67.326,22.015,-99.37,0.19426,-59.391,14.653,-88.966
-4.4561,-67.461,-6.3276,-94.194,-21.524,-64.964,-24.613,-64.085,-2.106,-67.446,22.135,-99.475,0.12586,-59.762,14.652,-89.194
-4.4561,-67.461,-6.3276,-94.194,-21.524,-64.964,-24.613,-64.085,-2.106,-67.446,22.135,-99.475,0.12586,-59.762,14.652,-89.194
-4.5448,-67.673,-6.4052,-94.236,-21.838,-65.246,-24.785,-64.166,-2.0847,-67.563,22.255,-99.576,0.058674,-60.13,14.653,-89.418
-4.5448,-67.673,-6.4052,-94.236,-21.838,-65.246,-24.785,-64.166,-2.0847,-67.563,22.255,-99.576,0.058674,-60.13,14.653,-89.418
-4.6316,-67.881,-6.4812,-94.274,-22.149,-65.524,-24.955,-64.244,-2.0624,-67.678,22.376,-99.673,-0.0072705,-60.496,14.653,-89.638
-4.6316,-67.881,-6.4812,-94.274,-22.149,-65.524,-24.955,-64.244,-2.0624,-67.678,22.376,-99.673,-0.0072705,-60.496,14.653,-89.638
-4.7167,-68.087,-6.5557,-94.308,-22.458,-65.799,-25.124,-64.318,-2.0389,-67.789,22.497,-99.767,-0.071971,-60.858,14.654,-89.854
-4.7999,-68.29,-6.6286,-94.339,-22.764,-66.07,-25.292,-64.389,-2.0143,-67.897,22.619,-99.858,-0.13542,-61.217,14.655,-90.065
-4.7999,-68.29,-6.6286,-94.339,-22.764,-66.07,-25.292,-64.389,-2.0143,-67.897,22.619,-99.858,-0.13542,-61.217,14.655,-90.065
-4.7999,-68.29,-6.6286,-94.339,-22.764,-66.07,-25.292,-64.389,-2.0143,-67.897,22.619,-99.858,-0.13542,-61.217,14.655,-90.065
-4.7999,-68.29,-6.6286,-94.339,-22.764,-66.07,-25.292,-64.389,-2.0143,-67.897,22.619,-99.858,-0.13542,-61.217,14.655,-90.065
-4.8813,-68.489,-6.6999,-94.366,-23.068,-66.338,-25.458,-64.456,-1.9885,-68.002,22.741,-99.945,-0.1976,-61.573,14.656,-90.272
-4.8813,-68.489,-6.6999,-94.366,-23.068,-66.338,-25.458,-64.456,-1.9885,-68.002,22.741,-99.945,-0.1976,-61.573,14.656,-90.272
-4.8813,-68.489,-6.6999,-94.366,-23.068,-66.338,-25.458,-64.456,-1.9885,-68.002,22.741,-99.945,-0.1976,-61.573,14.656,-90.272
-5.0384,-68.879,-6.8375,-94.409,-23.668,-66.862,-25.787,-64.58,-1.9334,-68.203,22.987,-100.11,-0.31815,-62.276,14.66,-90.674
-5.0384,-68.879,-6.8375,-94.409,-23.668,-66.862,-25.787,-64.58,-1.9334,-68.203,22.987,-100.11,-0.31815,-62.276,14.66,-90.674
-5.1142,-69.07,-6.9039,-94.425,-23.964,-67.119,-25.949,-64.637,-1.904,-68.299,23.111,-100.18,-0.3765,-62.622,14.662,-90.868
-5.1142,-69.07,-6.9039,-94.425,-23.964,-67.119,-25.949,-64.637,-1.904,-68.299,23.111,-100.18,-0.3765,-62.622,14.662,-90.868
-5.1881,-69.257,-6.9686,-94.437,-24.258,-67.372,-26.111,-64.69,-1.8734,-68.391,23.235,-100.26,-0.43355,-62.966,14.665,-91.058
-5.1881,-69.257,-6.9686,-94.437,-24.258,-67.372,-26.111,-64.69,-1.8734,-68.391,23.235,-100.26,-0.43355,-62.966,14.665,-91.058
-5.2601,-69.442,-7.0316,-94.445,-24.549,-67.622,-26.271,-64.74,-1.8417,-68.481,23.359,-100.33,-0.4893,-63.306,14.668,-91.244
-5.2601,-69.442,-7.0316,-94.445,-24.549,-67.622,-26.271,-64.74,-1.8417,-68.481,23.359,-100.33,-0.4893,-63.306,14.668,-91.244
-5.3301,-69.623,-7.0928,-94.449,-24.837,-67.868,-26.429,-64.786,-1.8086,-68.567,23.484,-100.39,-0.54374,-63.643,14.671,-91.426
-5.3301,-69.623,-7.0928,-94.449,-24.837,-67.868,-26.429,-64.786,-1.8086,-68.567,23.484,-100.39,-0.54374,-63.643,14.671,-91.426
-5.3982,-69.801,-7.1524,-94.45,-25.123,-68.11,-26.586,-64.829,-1.7744,-68.65,23.61,-100.45,-0.59686,-63.977,14.675,-91.603
-5.3982,-69.801,-7.1524,-94.45,-25.123,-68.11,-26.586,-64.829,-1.7744,-68.65,23.61,-100.45,-0.59686,-63.977,14.675,-91.603
-5.4644,-69.976,-7.2102,-94.447,-25.407,-68.349,-26.742,-64.868,-1.7389,-68.73,23.736,-100.51,-0.64865,-64.308,14.68,-91.775
-5.4644,-69.976,-7.2102,-94.447,-25.407,-68.349,-26.742,-64.868,-1.7389,-68.73,23.736,-100.51,-0.64865,-64.308,14.68,-91.775
-5.5287,-70.148,-7.2662,-94.44,-25.688,-68.584,-26.897,-64.903,-1.7021,-68.807,23.862,-100.57,-0.6991,-64.635,14.685,-91.943
-5.591,-70.317,-7.3205,-94.429,-25.966,-68.815,-27.05,-64.935,-1.664,-68.88,23.989,-100.62,-0.74822,-64.959,14.69,-92.107
-5.591,-70.317,-7.3205,-94.429,-25.966,-68.815,-27.05,-64.935,-1.664,-68.88,23.989,-100.62,-0.74822,-64.959,14.69,-92.107
-5.6513,-70.482,-7.373,-94.414,-26.241,-69.043,-27.202,-64.963,-1.6246,-68.951,24.117,-100.66,-0.79598,-65.279,14.696,-92.266
-5.6513,-70.482,-7.373,-94.414,-26.241,-69.043,-27.202,-64.963,-1.6246,-68.951,24.117,-100.66,-0.79598,-65.279,14.696,-92.266
-5.6513,-70.482,-7.373,-94.414,-26.241,-69.043,-27.202,-64.963,-1.6246,-68.951,24.117,-100.66,-0.79598,-65.279,14.696,-92.266
-5.7096,-70.645,-7.4237,-94.395,-26.514,-69.266,-27.352,-64.987,-1.584,-69.018,24.245,-100.71,-0.84238,-65.597,14.702,-92.421
-5.7096,-70.645,-7.4237,-94.395,-26.514,-69.266,-27.352,-64.987,-1.584,-69.018,24.245,-100.71,-0.84238,-65.597,14.702,-92.421
-5.7659,-70.804,-7.4725,-94.372,-26.784,-69.486,-27.501,-65.008,-1.542,-69.082,24.373,-100.74,-0.88742,-65.91,14.709,-92.571
-5.7659,-70.804,-7.4725,-94.372,-26.784,-69.486,-27.501,-65.008,-1.542,-69.082,24.373,-100.74,-0.88742,-65.91,14.709,-92.571
-5.8202,-70.96,-7.5195,-94.346,-27.052,-69.703,-27.648,-65.025,-1.4987,-69.142,24.502,-100.78,-0.93109,-66.221,14.716,-92.717
-5.8725,-71.112,-7.5647,-94.315,-27.317,-69.915,-27.794,-65.038,-1.454,-69.199,24.632,-100.81,-0.97338,-66.528,14.724,-92.858
-5.8725,-71.112,-7.5647,-94.315,-27.317,-69.915,-27.794,-65.038,-1.454,-69.199,24.632,-100.81,-0.97338,-66.528,14.724,-92.858
-5.9228,-71.262,-7.608,-94.281,-27.579,-70.124,-27.939,-65.047,-1.408,-69.253,24.762,-100.84,-1.0143,-66.831,14.733,-92.995
-5.9228,-71.262,-7.608,-94.281,-27.579,-70.124,-27.939,-65.047,-1.408,-69.253,24.762,-100.84,-1.0143,-66.831,14.733,-92.995
-5.9228,-71.262,-7.608,-94.281,-27.579,-70.124,-27.939,-65.047,-1.408,-69.253,24.762,-100.84,-1.0143,-66.831,14.733,-92.995
-5.971,-71.408,-7.6494,-94.242,-27.838,-70.329,-28.082,-65.053,-1.3607,-69.304,24.892,-100.86,-1.0538,-67.131,14.742,-93.127
-5.971,-71.408,-7.6494,-94.242,-27.838,-70.329,-28.082,-65.053,-1.3607,-69.304,24.892,-100.86,-1.0538,-67.131,14.742,-93.127
-5.971,-71.408,-7.6494,-94.242,-27.838,-70.329,-28.082,-65.053,-1.3607,-69.304,24.892,-100.86,-1.0538,-67.131,14.742,-93.127
-6.0172,-71.551,-7.6889,-94.2,-28.095,-70.53,-28.223,-65.055,-1.312,-69.351,25.024,-100.88,-1.0919,-67.427,14.752,-93.255
-6.0613,-71.691,-7.7265,-94.154,-28.349,-70.727,-28.363,-65.052,-1.2619,-69.395,25.155,-100.9,-1.1286,-67.72,14.762,-93.378
-6.1034,-71.827,-7.7621,-94.103,-28.6,-70.921,-28.502,-65.047,-1.2104,-69.436,25.288,-100.91,-1.1639,-68.01,14.773,-93.496
-6.1034,-71.827,-7.7621,-94.103,-28.6,-70.921,-28.502,-65.047,-1.2104,-69.436,25.288,-100.91,-1.1639,-68.01,14.773,-93.496
-6.1034,-71.827,-7.7621,-94.103,-28.6,-70.921,-28.502,-65.047,-1.2104,-69.436,25.288,-100.91,-1.1639,-68.01,14.773,-93.496
-6.1433,-71.96,-7.7958,-94.049,-28.849,-71.11,-28.639,-65.037,-1.1575,-69.473,25.42,-100.92,-1.1977,-68.295,14.784,-93.61
-6.1433,-71.96,-7.7958,-94.049,-28.849,-71.11,-28.639,-65.037,-1.1575,-69.473,25.42,-100.92,-1.1977,-68.295,14.784,-93.61
-6.1433,-71.96,-7.7958,-94.049,-28.849,-71.11,-28.639,-65.037,-1.1575,-69.473,25.42,-100.92,-1.1977,-68.295,14.784,-93.61
-6.1812,-72.09,-7.8276,-93.99,-29.094,-71.296,-28.774,-65.023,-1.1032,-69.507,25.554,-100.92,-1.2302,-68.577,14.796,-93.719
-6.1812,-72.09,-7.8276,-93.99,-29.094,-71.296,-28.774,-65.023,-1.1032,-69.507,25.554,-100.92,-1.2302,-68.577,14.796,-93.719
-6.217,-72.216,-7.8574,-93.928,-29.337,-71.478,-28.908,-65.006,-1.0475,-69.538,25.688,-100.93,-1.2612,-68.856,14.809,-93.824
-6.2507,-72.34,-7.8852,-93.861,-29.577,-71.656,-29.041,-64.984,-0.99038,-69.565,25.822,-100.92,-1.2908,-69.131,14.823,-93.923
-6.2823,-72.459,-7.911,-93.791,-29.815,-71.83,-29.171,-64.959,-0.93181,-69.589,25.957,-100.91,-1.3189,-69.402,14.837,-94.019
-6.2823,-72.459,-7.911,-93.791,-29.815,-71.83,-29.171,-64.959,-0.93181,-69.589,25.957,-100.91,-1.3189,-69.402,14.837,-94.019
-6.2823,-72.459,-7.911,-93.791,-29.815,-71.83,-29.171,-64.959,-0.93181,-69.589,25.957,-100.91,-1.3189,-69.402,14.837,-94.019
-6.3117,-72.576,-7.9348,-93.716,-30.049,-72,-29.301,-64.93,-0.8718,-69.61,26.093,-100.9,-1.3456,-69.67,14.852,-94.109
-6.3117,-72.576,-7.9348,-93.716,-30.049,-72,-29.301,-64.93,-0.8718,-69.61,26.093,-100.9,-1.3456,-69.67,14.852,-94.109
-6.339,-72.689,-7.9565,-93.637,-30.281,-72.166,-29.428,-64.897,-0.81033,-69.627,26.229,-100.89,-1.3708,-69.933,14.868,-94.195
-6.339,-72.689,-7.9565,-93.637,-30.281,-72.166,-29.428,-64.897,-0.81033,-69.627,26.229,-100.89,-1.3708,-69.933,14.868,-94.195
-6.3642,-72.799,-7.9762,-93.555,-30.509,-72.328,-29.554,-64.86,-0.74739,-69.641,26.366,-100.87,-1.3946,-70.193,14.884,-94.276
-6.3642,-72.799,-7.9762,-93.555,-30.509,-72.328,-29.554,-64.86,-0.74739,-69.641,26.366,-100.87,-1.3946,-70.193,14.884,-94.276
-6.3872,-72.905,-7.9939,-93.468,-30.735,-72.487,-29.679,-64.819,-0.68299,-69.651,26.503,-100.84,-1.4169,-70.45,14.901,-94.352
-6.4081,-73.008,-8.0095,-93.377,-30.958,-72.641,-29.802,-64.774,-0.6171,-69.658,26.641,-100.82,-1.4377,-70.702,14.919,-94.424
-6.4081,-73.008,-8.0095,-93.377,-30.958,-72.641,-29.802,-64.774,-0.6171,-69.658,26.641,-100.82,-1.4377,-70.702,14.919,-94.424
-6.4081,-73.008,-8.0095,-93.377,-30.958,-72.641,-29.802,-64.774,-0.6171,-69.658,26.641,-100.82,-1.4377,-70.702,14.919,-94.424
-6.4268,-73.107,-8.023,-93.282,-31.178,-72.792,-29.923,-64.725,-0.54973,-69.662,26.78,-100.79,-1.457,-70.951,14.938,-94.49
-6.4268,-73.107,-8.023,-93.282,-31.178,-72.792,-29.923,-64.725,-0.54973,-69.662,26.78,-100.79,-1.457,-70.951,14.938,-94.49
-6.4433,-73.204,-8.0344,-93.182,-31.395,-72.938,-30.042,-64.671,-0.48086,-69.662,26.919,-100.75,-1.4749,-71.196,14.957,-94.552
-6.4433,-73.204,-8.0344,-93.182,-31.395,-72.938,-30.042,-64.671,-0.48086,-69.662,26.919,-100.75,-1.4749,-71.196,14.957,-94.552
-6.4433,-73.204,-8.0344,-93.182,-31.395,-72.938,-30.042,-64.671,-0.48086,-69.662,26.919,-100.75,-1.4749,-71.196,14.957,-94.552
-6.4576,-73.296,-8.0437,-93.079,-31.61,-73.081,-30.16,-64.614,-0.41048,-69.658,27.059,-100.71,-1.4913,-71.437,14.978,-94.609
-6.4576,-73.296,-8.0437,-93.079,-31.61,-73.081,-30.16,-64.614,-0.41048,-69.658,27.059,-100.71,-1.4913,-71.437,14.978,-94.609
-6.4698,-73.385,-8.0509,-92.971,-31.821,-73.219,-30.276,-64.553,-0.33859,-69.652,27.199,-100.67,-1.5062,-71.674,14.999,-94.662
-6.4698,-73.385,-8.0509,-92.971,-31.821,-73.219,-30.276,-64.553,-0.33859,-69.652,27.199,-100.67,-1.5062,-71.674,14.999,-94.662
-6.4698,-73.385,-8.0509,-92.971,-31.821,-73.219,-30.276,-64.553,-0.33859,-69.652,27.199,-100.67,-1.5062,-71.674,14.999,-94.662
-6.4874,-73.554,-8.0588,-92.744,-32.235,-73.484,-30.504,-64.419,-0.19025,-69.628,27.482,-100.57,-1.5314,-72.137,15.043,-94.752
-6.4874,-73.554,-8.0588,-92.744,-32.235,-73.484,-30.504,-64.419,-0.19025,-69.628,27.482,-100.57,-1.5314,-72.137,15.043,-94.752
-6.493,-73.633,-8.0596,-92.624,-32.438,-73.61,-30.615,-64.345,-0.11378,-69.61,27.624,-100.51,-1.5418,-72.363,15.067,-94.79
-6.493,-73.633,-8.0596,-92.624,-32.438,-73.61,-30.615,-64.345,-0.11378,-69.61,27.624,-100.51,-1.5418,-72.363,15.067,-94.79
-6.4963,-73.708,-8.0581,-92.5,-32.637,-73.733,-30.724,-64.268,-0.035762,-69.59,27.767,-100.45,-1.5507,-72.584,15.091,-94.823
-6.4973,-73.78,-8.0545,-92.371,-32.834,-73.851,-30.832,-64.186,0.043802,-69.566,27.91,-100.39,-1.5581,-72.802,15.117,-94.852
-6.4973,-73.78,-8.0545,-92.371,-32.834,-73.851,-30.832,-64.186,0.043802,-69.566,27.91,-100.39,-1.5581,-72.802,15.117,-94.852
-6.4973,-73.78,-8.0545,-92.371,-32.834,-73.851,-30.832,-64.186,0.043802,-69.566,27.91,-100.39,-1.5581,-72.802,15.117,-94.852
-6.4962,-73.849,-8.0487,-92.239,-33.028,-73.966,-30.938,-64.101,0.12492,-69.538,28.054,-100.32,-1.5639,-73.016,15.143,-94.875
-6.4962,-73.849,-8.0487,-92.239,-33.028,-73.966,-30.938,-64.101,0.12492,-69.538,28.054,-100.32,-1.5639,-73.016,15.143,-94.875
-6.4962,-73.849,-8.0487,-92.239,-33.028,-73.966,-30.938,-64.101,0.12492,-69.538,28.054,-100.32,-1.5639,-73.016,15.143,-94.875
-6.4962,-73.849,-8.0487,-92.239,-33.028,-73.966,-30.938,-64.101,0.12492,-69.538,28.054,-100.32,-1.5639,-73.016,15.143,-94.875
-6.4871,-73.975,-8.0305,-91.961,-33.406,-74.182,-31.144,-63.917,0.29186,-69.473,28.344,-100.17,-1.571,-73.432,15.198,-94.907
-6.4871,-73.975,-8.0305,-91.961,-33.406,-74.182,-31.144,-63.917,0.29186,-69.473,28.344,-100.17,-1.571,-73.432,15.198,-94.907
-6.4871,-73.975,-8.0305,-91.961,-33.406,-74.182,-31.144,-63.917,0.29186,-69.473,28.344,-100.17,-1.571,-73.432,15.198,-94.907
-6.4792,-74.033,-8.0181,-91.816,-33.591,-74.284,-31.245,-63.819,0.37768,-69.435,28.49,-100.09,-1.5723,-73.633,15.227,-94.916
-6.469,-74.088,-8.0034,-91.667,-33.772,-74.383,-31.344,-63.717,0.46509,-69.393,28.637,-100,-1.572,-73.831,15.257,-94.92
-6.469,-74.088,-8.0034,-91.667,-33.772,-74.383,-31.344,-63.717,0.46509,-69.393,28.637,-100,-1.572,-73.831,15.257,-94.92
-6.4566,-74.139,-7.9865,-91.514,-33.951,-74.477,-31.441,-63.611,0.55408,-69.348,28.784,-99.913,-1.5702,-74.025,15.287,-94.919
-6.4566,-74.139,-7.9865,-91.514,-33.951,-74.477,-31.441,-63.611,0.55408,-69.348,28.784,-99.913,-1.5702,-74.025,15.287,-94.919
-6.4419,-74.186,-7.9673,-91.356,-34.127,-74.567,-31.536,-63.5,0.64467,-69.3,28.932,-99.819,-1.5669,-74.215,15.319,-94.913
-6.4419,-74.186,-7.9673,-91.356,-34.127,-74.567,-31.536,-63.5,0.64467,-69.3,28.932,-99.819,-1.5669,-74.215,15.319,-94.913
-6.4249,-74.23,-7.9458,-91.194,-34.299,-74.652,-31.63,-63.386,0.73686,-69.248,29.08,-99.721,-1.562,-74.4,15.352,-94.902
-6.4249,-74.23,-7.9458,-91.194,-34.299,-74.652,-31.63,-63.386,0.73686,-69.248,29.08,-99.721,-1.562,-74.4,15.352,-94.902
-6.4057,-74.271,-7.9221,-91.028,-34.469,-74.734,-31.722,-63.267,0.83065,-69.192,29.229,-99.619,-1.5556,-74.582,15.385,-94.887
-6.4057,-74.271,-7.9221,-91.028,-34.469,-74.734,-31.722,-63.267,0.83065,-69.192,29.229,-99.619,-1.5556,-74.582,15.385,-94.887
-6.3841,-74.308,-7.8961,-90.857,-34.635,-74.812,-31.812,-63.144,0.92604,-69.133,29.379,-99.513,-1.5476,-74.759,15.42,-94.866
-6.3841,-74.308,-7.8961,-90.857,-34.635,-74.812,-31.812,-63.144,0.92604,-69.133,29.379,-99.513,-1.5476,-74.759,15.42,-94.866
-6.3603,-74.341,-7.8677,-90.683,-34.799,-74.885,-31.9,-63.017,1.0231,-69.071,29.529,-99.402,-1.5381,-74.933,15.456,-94.84
-6.3603,-74.341,-7.8677,-90.683,-34.799,-74.885,-31.9,-63.017,1.0231,-69.071,29.529,-99.402,-1.5381,-74.933,15.456,-94.84
-6.3603,-74.341,-7.8677,-90.683,-34.799,-74.885,-31.9,-63.017,1.0231,-69.071,29.529,-99.402,-1.5381,-74.933,15.456,-94.84
-6.3603,-74.341,-7.8677,-90.683,-34.799,-74.885,-31.9,-63.017,1.0231,-69.071,29.529,-99.402,-1.5381,-74.933,15.456,-94.84
-6.3057,-74.397,-7.8042,-90.321,-35.116,-75.02,-32.071,-62.749,1.2219,-68.935,29.832,-99.168,-1.5144,-75.267,15.53,-94.774
-6.3057,-74.397,-7.8042,-90.321,-35.116,-75.02,-32.071,-62.749,1.2219,-68.935,29.832,-99.168,-1.5144,-75.267,15.53,-94.774
-6.275,-74.42,-7.7689,-90.133,-35.271,-75.082,-32.153,-62.61,1.3238,-68.862,29.984,-99.045,-1.5003,-75.428,15.569,-94.734
-6.275,-74.42,-7.7689,-90.133,-35.271,-75.082,-32.153,-62.61,1.3238,-68.862,29.984,-99.045,-1.5003,-75.428,15.569,-94.734
-6.2419,-74.439,-7.7313,-89.942,-35.422,-75.139,-32.234,-62.466,1.4273,-68.786,30.137,-98.917,-1.4845,-75.584,15.608,-94.689
-6.2419,-74.439,-7.7313,-89.942,-35.422,-75.139,-32.234,-62.466,1.4273,-68.786,30.137,-98.917,-1.4845,-75.584,15.608,-94.689
-6.2066,-74.455,-7.6914,-89.746,-35.57,-75.192,-32.313,-62.317,1.5325,-68.706,30.291,-98.786,-1.4672,-75.737,15.649,-94.638
-6.2066,-74.455,-7.6914,-89.746,-35.57,-75.192,-32.313,-62.317,1.5325,-68.706,30.291,-98.786,-1.4672,-75.737,15.649,-94.638
-6.1689,-74.467,-7.6491,-89.546,-35.715,-75.241,-32.39,-62.165,1.6392,-68.622,30.445,-98.649,-1.4484,-75.885,15.691,-94.583
-6.1689,-74.467,-7.6491,-89.546,-35.715,-75.241,-32.39,-62.165,1.6392,-68.622,30.445,-98.649,-1.4484,-75.885,15.691,-94.583
-6.1289,-74.475,-7.6044,-89.342,-35.857,-75.285,-32.465,-62.008,1.7477,-68.535,30.6,-98.509,-1.428,-76.03,15.734,-94.523
-6.1289,-74.475,-7.6044,-89.342,-35.857,-75.285,-32.465,-62.008,1.7477,-68.535,30.6,-98.509,-1.428,-76.03,15.734,-94.523
-6.0865,-74.48,-7.5574,-89.133,-35.995,-75.326,-32.538,-61.847,1.8577,-68.445,30.755,-98.364,-1.406,-76.169,15.778,-94.458
-6.0865,-74.48,-7.5574,-89.133,-35.995,-75.326,-32.538,-61.847,1.8577,-68.445,30.755,-98.364,-1.406,-76.169,15.778,-94.458
-6.0419,-74.482,-7.508,-88.92,-36.131,-75.362,-32.609,-61.682,1.9694,-68.351,30.911,-98.215,-1.3824,-76.305,15.823,-94.388
-5.9949,-74.48,-7.4562,-88.703,-36.263,-75.395,-32.679,-61.512,2.0828,-68.253,31.068,-98.062,-1.3573,-76.437,15.869,-94.313
-5.9949,-74.48,-7.4562,-88.703,-36.263,-75.395,-32.679,-61.512,2.0828,-68.253,31.068,-98.062,-1.3573,-76.437,15.869,-94.313
-5.9949,-74.48,-7.4562,-88.703,-36.263,-75.395,-32.679,-61.512,2.0828,-68.253,31.068,-98.062,-1.3573,-76.437,15.869,-94.313
-5.9456,-74.474,-7.402,-88.482,-36.393,-75.423,-32.746,-61.339,2.1978,-68.152,31.226,-97.904,-1.3306,-76.564,15.916,-94.233
-5.8939,-74.464,-7.3454,-88.256,-36.519,-75.447,-32.812,-61.161,2.3145,-68.047,31.384,-97.742,-1.3024,-76.687,15.964,-94.148
-5.8939,-74.464,-7.3454,-88.256,-36.519,-75.447,-32.812,-61.161,2.3145,-68.047,31.384,-97.742,-1.3024,-76.687,15.964,-94.148
-5.8939,-74.464,-7.3454,-88.256,-36.519,-75.447,-32.812,-61.161,2.3145,-68.047,31.384,-97.742,-1.3024,-76.687,15.964,-94.148
-5.8399,-74.452,-7.2865,-88.026,-36.642,-75.467,-32.876,-60.978,2.4328,-67.939,31.542,-97.575,-1.2726,-76.805,16.013,-94.058
-5.8399,-74.452,-7.2865,-88.026,-36.642,-75.467,-32.876,-60.978,2.4328,-67.939,31.542,-97.575,-1.2726,-76.805,16.013,-94.058
-5.7835,-74.435,-7.2251,-87.792,-36.762,-75.483,-32.937,-60.792,2.5528,-67.828,31.702,-97.405,-1.2412,-76.92,16.064,-93.963
-5.7249,-74.415,-7.1613,-87.554,-36.878,-75.494,-32.997,-60.601,2.6745,-67.713,31.862,-97.23,-1.2082,-77.03,16.116,-93.863
-5.7249,-74.415,-7.1613,-87.554,-36.878,-75.494,-32.997,-60.601,2.6745,-67.713,31.862,-97.23,-1.2082,-77.03,16.116,-93.863
-5.6638,-74.391,-7.095,-87.311,-36.992,-75.502,-33.055,-60.406,2.7978,-67.594,32.022,-97.05,-1.1737,-77.135,16.168,-93.758
-5.6638,-74.391,-7.095,-87.311,-36.992,-75.502,-33.055,-60.406,2.7978,-67.594,32.022,-97.05,-1.1737,-77.135,16.168,-93.758
-5.6638,-74.391,-7.095,-87.311,-36.992,-75.502,-33.055,-60.406,2.7978,-67.594,32.022,-97.05,-1.1737,-77.135,16.168,-93.758
-5.6004,-74.364,-7.0264,-87.064,-37.102,-75.505,-33.111,-60.207,2.9228,-67.472,32.184,-96.867,-1.1376,-77.237,16.222,-93.648
-5.6004,-74.364,-7.0264,-87.064,-37.102,-75.505,-33.111,-60.207,2.9228,-67.472,32.184,-96.867,-1.1376,-77.237,16.222,-93.648
-5.5347,-74.333,-6.9553,-86.813,-37.209,-75.504,-33.165,-60.003,3.0494,-67.346,32.346,-96.678,-1.0999,-77.334,16.277,-93.533
-5.5347,-74.333,-6.9553,-86.813,-37.209,-75.504,-33.165,-60.003,3.0494,-67.346,32.346,-96.678,-1.0999,-77.334,16.277,-93.533
-5.5347,-74.333,-6.9553,-86.813,-37.209,-75.504,-33.165,-60.003,3.0494,-67.346,32.346,-96.678,-1.0999,-77.334,16.277,-93.533
-5.4666,-74.299,-6.8818,-86.558,-37.314,-75.499,-33.217,-59.796,3.1777,-67.217,32.508,-96.486,-1.0607,-77.427,16.333,-93.414
-5.3962,-74.261,-6.8058,-86.298,-37.414,-75.49,-33.267,-59.583,3.3077,-67.085,32.671,-96.289,-1.0199,-77.515,16.391,-93.289
-5.3234,-74.219,-6.7273,-86.035,-37.512,-75.477,-33.315,-59.367,3.4393,-66.949,32.835,-96.088,-0.97755,-77.599,16.449,-93.159
-5.3234,-74.219,-6.7273,-86.035,-37.512,-75.477,-33.315,-59.367,3.4393,-66.949,32.835,-96.088,-0.97755,-77.599,16.449,-93.159
-5.3234,-74.219,-6.7273,-86.035,-37.512,-75.477,-33.315,-59.367,3.4393,-66.949,32.835,-96.088,-0.97755,-77.599,16.449,-93.159
-5.2483,-74.174,-6.6464,-85.767,-37.607,-75.459,-33.361,-59.147,3.5726,-66.809,33,-95.883,-0.93361,-77.679,16.509,-93.025
-5.2483,-74.174,-6.6464,-85.767,-37.607,-75.459,-33.361,-59.147,3.5726,-66.809,33,-95.883,-0.93361,-77.679,16.509,-93.025
-5.1708,-74.125,-6.5631,-85.494,-37.698,-75.437,-33.405,-58.922,3.7076,-66.666,33.165,-95.673,-0.88812,-77.754,16.57,-92.885
-5.1708,-74.125,-6.5631,-85.494,-37.698,-75.437,-33.405,-58.922,3.7076,-66.666,33.165,-95.673,-0.88812,-77.754,16.57,-92.885
-5.0909,-74.073,-6.4773,-85.218,-37.786,-75.412,-33.447,-58.693,3.8443,-66.52,33.33,-95.458,-0.84105,-77.825,16.632,-92.74
-5.0909,-74.073,-6.4773,-85.218,-37.786,-75.412,-33.447,-58.693,3.8443,-66.52,33.33,-95.458,-0.84105,-77.825,16.632,-92.74
-5.0087,-74.017,-6.389,-84.937,-37.871,-75.382,-33.487,-58.459,3.9826,-66.37,33.497,-95.24,-0.79243,-77.892,16.695,-92.591
-5.0087,-74.017,-6.389,-84.937,-37.871,-75.382,-33.487,-58.459,3.9826,-66.37,33.497,-95.24,-0.79243,-77.892,16.695,-92.591
-4.9242,-73.958,-6.2982,-84.652,-37.953,-75.348,-33.525,-58.222,4.1225,-66.217,33.664,-95.017,-0.74224,-77.954,16.759,-92.436
-4.9242,-73.958,-6.2982,-84.652,-37.953,-75.348,-33.525,-58.222,4.1225,-66.217,33.664,-95.017,-0.74224,-77.954,16.759,-92.436
-4.8373,-73.895,-6.205,-84.363,-38.031,-75.309,-33.561,-57.98,4.2642,-66.06,33.831,-94.79,-0.6905,-78.012,16.825,-92.277
-4.8373,-73.895,-6.205,-84.363,-38.031,-75.309,-33.561,-57.98,4.2642,-66.06,33.831,-94.79,-0.6905,-78.012,16.825,-92.277
-4.748,-73.828,-6.1093,-84.07,-38.106,-75.267,-33.595,-57.734,4.4075,-65.9,33.999,-94.558,-0.6372,-78.065,16.892,-92.113
-4.748,-73.828,-6.1093,-84.07,-38.106,-75.267,-33.595,-57.734,4.4075,-65.9,33.999,-94.558,-0.6372,-78.065,16.892,-92.113
-4.6564,-73.758,-6.0111,-83.772,-38.179,-75.22,-33.627,-57.483,4.5525,-65.736,34.168,-94.322,-0.58234,-78.114,16.96,-91.943
-4.6564,-73.758,-6.0111,-83.772,-38.179,-75.22,-33.627,-57.483,4.5525,-65.736,34.168,-94.322,-0.58234,-78.114,16.96,-91.943
-4.5624,-73.684,-5.9104,-83.47,-38.247,-75.17,-33.657,-57.229,4.6991,-65.569,34.338,-94.082,-0.52593,-78.159,17.029,-91.769
-4.5624,-73.684,-5.9104,-83.47,-38.247,-75.17,-33.657,-57.229,4.6991,-65.569,34.338,-94.082,-0.52593,-78.159,17.029,-91.769
-4.4661,-73.607,-5.8072,-83.164,-38.313,-75.115,-33.685,-56.97,4.8474,-65.399,34.508,-93.837,-0.46796,-78.199,17.099,-91.59
-4.4661,-73.607,-5.8072,-83.164,-38.313,-75.115,-33.685,-56.97,4.8474,-65.399,34.508,-93.837,-0.46796,-78.199,17.099,-91.59
-4.3674,-73.526,-5.7015,-82.854,-38.376,-75.056,-33.711,-56.707,4.9973,-65.225,34.678,-93.588,-0.40845,-78.235,17.171,-91.406
-4.3674,-73.526,-5.7015,-82.854,-38.376,-75.056,-33.711,-56.707,4.9973,-65.225,34.678,-93.588,-0.40845,-78.235,17.171,-91.406
-4.3674,-73.526,-5.7015,-82.854,-38.376,-75.056,-33.711,-56.707,4.9973,-65.225,34.678,-93.588,-0.40845,-78.235,17.171,-91.406
-4.2664,-73.442,-5.5933,-82.54,-38.435,-74.993,-33.734,-56.439,5.1489,-65.048,34.849,-93.334,-0.3474,-78.266,17.244,-91.217
-4.2664,-73.442,-5.5933,-82.54,-38.435,-74.993,-33.734,-56.439,5.1489,-65.048,34.849,-93.334,-0.3474,-78.266,17.244,-91.217
-4.163,-73.354,-5.4827,-82.221,-38.491,-74.926,-33.756,-56.168,5.3022,-64.867,35.021,-93.076,-0.2848,-78.293,17.318,-91.023
-4.163,-73.354,-5.4827,-82.221,-38.491,-74.926,-33.756,-56.168,5.3022,-64.867,35.021,-93.076,-0.2848,-78.293,17.318,-91.023
-3.9493,-73.167,-5.2538,-81.572,-38.593,-74.779,-33.794,-55.612,5.6136,-64.496,35.367,-92.548,-0.15498,-78.334,17.469,-90.621
-3.9493,-73.167,-5.2538,-81.572,-38.593,-74.779,-33.794,-55.612,5.6136,-64.496,35.367,-92.548,-0.15498,-78.334,17.469,-90.621
-3.9493,-73.167,-5.2538,-81.572,-38.593,-74.779,-33.794,-55.612,5.6136,-64.496,35.367,-92.548,-0.15498,-78.334,17.469,-90.621
-3.8389,-73.069,-5.1357,-81.241,-38.64,-74.7,-33.809,-55.328,5.7718,-64.305,35.54,-92.277,-0.08777,-78.347,17.547,-90.412
-3.8389,-73.069,-5.1357,-81.241,-38.64,-74.7,-33.809,-55.328,5.7718,-64.305,35.54,-92.277,-0.08777,-78.347,17.547,-90.412
-3.8389,-73.069,-5.1357,-81.241,-38.64,-74.7,-33.809,-55.328,5.7718,-64.305,35.54,-92.277,-0.08777,-78.347,17.547,-90.412
-3.7262,-72.967,-5.015,-80.905,-38.683,-74.616,-33.823,-55.039,5.9316,-64.111,35.714,-92.001,-0.019031,-78.356,17.626,-90.199
-3.6111,-72.861,-4.8918,-80.566,-38.723,-74.528,-33.834,-54.747,6.0931,-63.914,35.889,-91.722,0.051235,-78.361,17.706,-89.981
-3.6111,-72.861,-4.8918,-80.566,-38.723,-74.528,-33.834,-54.747,6.0931,-63.914,35.889,-91.722,0.051235,-78.361,17.706,-89.981
-3.6111,-72.861,-4.8918,-80.566,-38.723,-74.528,-33.834,-54.747,6.0931,-63.914,35.889,-91.722,0.051235,-78.361,17.706,-89.981
-3.4937,-72.752,-4.7661,-80.223,-38.76,-74.436,-33.844,-54.45,6.2562,-63.713,36.065,-91.438,0.12302,-78.361,17.788,-89.758
-3.4937,-72.752,-4.7661,-80.223,-38.76,-74.436,-33.844,-54.45,6.2562,-63.713,36.065,-91.438,0.12302,-78.361,17.788,-89.758
-3.4937,-72.752,-4.7661,-80.223,-38.76,-74.436,-33.844,-54.45,6.2562,-63.713,36.065,-91.438,0.12302,-78.361,17.788,-89.758
-3.4937,-72.752,-4.7661,-80.223,-38.76,-74.436,-33.844,-54.45,6.2562,-63.713,36.065,-91.438,0.12302,-78.361,17.788,-89.758
-3.2519,-72.523,-4.5073,-79.524,-38.823,-74.24,-33.856,-53.844,6.5872,-63.301,36.417,-90.857,0.27115,-78.349,17.954,-89.297
-3.2519,-72.523,-4.5073,-79.524,-38.823,-74.24,-33.856,-53.844,6.5872,-63.301,36.417,-90.857,0.27115,-78.349,17.954,-89.297
-3.2519,-72.523,-4.5073,-79.524,-38.823,-74.24,-33.856,-53.844,6.5872,-63.301,36.417,-90.857,0.27115,-78.349,17.954,-89.297
-3.2519,-72.523,-4.5073,-79.524,-38.823,-74.24,-33.856,-53.844,6.5872,-63.301,36.417,-90.857,0.27115,-78.349,17.954,-89.297
-3.0009,-72.28,-4.2384,-78.808,-38.874,-74.028,-33.861,-53.221,6.9248,-62.877,36.771,-90.259,0.42532,-78.318,18.126,-88.817
-3.0009,-72.28,-4.2384,-78.808,-38.874,-74.028,-33.861,-53.221,6.9248,-62.877,36.771,-90.259,0.42532,-78.318,18.126,-88.817
-3.0009,-72.28,-4.2384,-78.808,-38.874,-74.028,-33.861,-53.221,6.9248,-62.877,36.771,-90.259,0.42532,-78.318,18.126,-88.817
-2.7406,-72.023,-3.9595,-78.076,-38.912,-73.799,-33.857,-52.582,7.2687,-62.439,37.128,-89.644,0.58548,-78.27,18.302,-88.318
-2.7406,-72.023,-3.9595,-78.076,-38.912,-73.799,-33.857,-52.582,7.2687,-62.439,37.128,-89.644,0.58548,-78.27,18.302,-88.318
-2.607,-71.889,-3.8163,-77.704,-38.927,-73.679,-33.852,-52.256,7.4431,-62.215,37.307,-89.329,0.66781,-78.239,18.392,-88.061
-2.607,-71.889,-3.8163,-77.704,-38.927,-73.679,-33.852,-52.256,7.4431,-62.215,37.307,-89.329,0.66781,-78.239,18.392,-88.061
-2.4711,-71.752,-3.6706,-77.328,-38.938,-73.555,-33.845,-51.926,7.6191,-61.988,37.487,-89.011,0.75161,-78.204,18.484,-87.8
-2.4711,-71.752,-3.6706,-77.328,-38.938,-73.555,-33.845,-51.926,7.6191,-61.988,37.487,-89.011,0.75161,-78.204,18.484,-87.8
-2.3329,-71.612,-3.5224,-76.948,-38.945,-73.426,-33.835,-51.592,7.7966,-61.758,37.667,-88.688,0.8369,-78.164,18.576,-87.534
-2.3329,-71.612,-3.5224,-76.948,-38.945,-73.426,-33.835,-51.592,7.7966,-61.758,37.667,-88.688,0.8369,-78.164,18.576,-87.534
-2.3329,-71.612,-3.5224,-76.948,-38.945,-73.426,-33.835,-51.592,7.7966,-61.758,37.667,-88.688,0.8369,-78.164,18.576,-87.534
-2.1924,-71.468,-3.3717,-76.564,-38.95,-73.294,-33.824,-51.254,7.9758,-61.524,37.848,-88.361,0.92367,-78.12,18.67,-87.263
-2.0496,-71.32,-3.2185,-76.176,-38.951,-73.157,-33.811,-50.912,8.1565,-61.288,38.029,-88.03,1.0119,-78.071,18.765,-86.987
-1.9045,-71.169,-3.0628,-75.784,-38.95,-73.016,-33.795,-50.566,8.3388,-61.048,38.211,-87.694,1.1016,-78.018,18.862,-86.706
-1.9045,-71.169,-3.0628,-75.784,-38.95,-73.016,-33.795,-50.566,8.3388,-61.048,38.211,-87.694,1.1016,-78.018,18.862,-86.706
-1.9045,-71.169,-3.0628,-75.784,-38.95,-73.016,-33.795,-50.566,8.3388,-61.048,38.211,-87.694,1.1016,-78.018,18.862,-86.706
-1.7572,-71.015,-2.9047,-75.388,-38.945,-72.872,-33.777,-50.215,8.5226,-60.805,38.393,-87.354,1.1927,-77.961,18.959,-86.421
-1.7572,-71.015,-2.9047,-75.388,-38.945,-72.872,-33.777,-50.215,8.5226,-60.805,38.393,-87.354,1.1927,-77.961,18.959,-86.421
-1.6076,-70.857,-2.744,-74.988,-38.936,-72.723,-33.758,-49.861,8.708,-60.559,38.576,-87.01,1.2853,-77.899,19.058,-86.132
-1.6076,-70.857,-2.744,-74.988,-38.936,-72.723,-33.758,-49.861,8.708,-60.559,38.576,-87.01,1.2853,-77.899,19.058,-86.132
-1.4558,-70.696,-2.5809,-74.584,-38.925,-72.571,-33.736,-49.503,8.8949,-60.309,38.759,-86.662,1.3794,-77.832,19.158,-85.837
-1.4558,-70.696,-2.5809,-74.584,-38.925,-72.571,-33.736,-49.503,8.8949,-60.309,38.759,-86.662,1.3794,-77.832,19.158,-85.837
-1.3017,-70.531,-2.4153,-74.176,-38.91,-72.414,-33.712,-49.14,9.0834,-60.057,38.943,-86.309,1.4749,-77.762,19.259,-85.538
-1.3017,-70.531,-2.4153,-74.176,-38.91,-72.414,-33.712,-49.14,9.0834,-60.057,38.943,-86.309,1.4749,-77.762,19.259,-85.538
-1.1453,-70.363,-2.2472,-73.764,-38.892,-72.254,-33.686,-48.774,9.2734,-59.801,39.127,-85.952,1.5718,-77.686,19.362,-85.234
-1.1453,-70.363,-2.2472,-73.764,-38.892,-72.254,-33.686,-48.774,9.2734,-59.801,39.127,-85.952,1.5718,-77.686,19.362,-85.234
-0.98671,-70.192,-2.0766,-73.348,-38.871,-72.089,-33.658,-48.403,9.4649,-59.543,39.312,-85.591,1.6701,-77.607,19.466,-84.926
-0.98671,-70.192,-2.0766,-73.348,-38.871,-72.089,-33.658,-48.403,9.4649,-59.543,39.312,-85.591,1.6701,-77.607,19.466,-84.926
-0.82588,-70.017,-1.9036,-72.929,-38.847,-71.921,-33.628,-48.029,9.6579,-59.281,39.497,-85.226,1.7699,-77.523,19.571,-84.613
-0.66282,-69.839,-1.7281,-72.505,-38.82,-71.748,-33.595,-47.651,9.8524,-59.016,39.683,-84.856,1.8711,-77.434,19.677,-84.295
-0.66282,-69.839,-1.7281,-72.505,-38.82,-71.748,-33.595,-47.651,9.8524,-59.016,39.683,-84.856,1.8711,-77.434,19.677,-84.295
-0.49755,-69.658,-1.5501,-72.078,-38.789,-71.572,-33.561,-47.268,10.048,-58.748,39.869,-84.483,1.9736,-77.342,19.784,-83.973
-0.49755,-69.658,-1.5501,-72.078,-38.789,-71.572,-33.561,-47.268,10.048,-58.748,39.869,-84.483,1.9736,-77.342,19.784,-83.973
-0.33007,-69.473,-1.3697,-71.647,-38.756,-71.391,-33.524,-46.882,10.246,-58.477,40.055,-84.105,2.0776,-77.245,19.893,-83.647
-0.33007,-69.473,-1.3697,-71.647,-38.756,-71.391,-33.524,-46.882,10.246,-58.477,40.055,-84.105,2.0776,-77.245,19.893,-83.647
-0.33007,-69.473,-1.3697,-71.647,-38.756,-71.391,-33.524,-46.882,10.246,-58.477,40.055,-84.105,2.0776,-77.245,19.893,-83.647
-0.16038,-69.285,-1.1869,-71.212,-38.719,-71.207,-33.486,-46.492,10.445,-58.203,40.242,-83.723,2.1829,-77.143,20.003,-83.316
-0.16038,-69.285,-1.1869,-71.212,-38.719,-71.207,-33.486,-46.492,10.445,-58.203,40.242,-83.723,2.1829,-77.143,20.003,-83.316
-0.16038,-69.285,-1.1869,-71.212,-38.719,-71.207,-33.486,-46.492,10.445,-58.203,40.242,-83.723,2.1829,-77.143,20.003,-83.316
0.011502,-69.093,-1.0016,-70.773,-38.679,-71.019,-33.445,-46.098,10.645,-57.926,40.429,-83.336,2.2897,-77.037,20.114,-82.98
0.011502,-69.093,-1.0016,-70.773,-38.679,-71.019,-33.445,-46.098,10.645,-57.926,40.429,-83.336,2.2897,-77.037,20.114,-82.98
0.36181,-68.7,-0.62372,-69.884,-38.589,-70.631,-33.357,-45.299,11.051,-57.364,40.805,-82.552,2.5072,-76.812,20.34,-82.295
0.36181,-68.7,-0.62372,-69.884,-38.589,-70.631,-33.357,-45.299,11.051,-57.364,40.805,-82.552,2.5072,-76.812,20.34,-82.295
0.36181,-68.7,-0.62372,-69.884,-38.589,-70.631,-33.357,-45.299,11.051,-57.364,40.805,-82.552,2.5072,-76.812,20.34,-82.295
0.54022,-68.499,-0.43115,-69.433,-38.54,-70.432,-33.31,-44.893,11.255,-57.078,40.993,-82.153,2.6181,-76.693,20.454,-81.946
0.54022,-68.499,-0.43115,-69.433,-38.54,-70.432,-33.31,-44.893,11.255,-57.078,40.993,-82.153,2.6181,-76.693,20.454,-81.946
0.7208,-68.294,-0.23615,-68.979,-38.487,-70.228,-33.261,-44.484,11.462,-56.789,41.182,-81.75,2.7302,-76.57,20.57,-81.592
0.7208,-68.294,-0.23615,-68.979,-38.487,-70.228,-33.261,-44.484,11.462,-56.789,41.182,-81.75,2.7302,-76.57,20.57,-81.592
0.90352,-68.087,-0.038748,-68.522,-38.431,-70.021,-33.21,-44.07,11.669,-56.498,41.371,-81.344,2.8437,-76.442,20.687,-81.234
0.90352,-68.087,-0.038748,-68.522,-38.431,-70.021,-33.21,-44.07,11.669,-56.498,41.371,-81.344,2.8437,-76.442,20.687,-81.234
1.0884,-67.875,0.16106,-68.06,-38.372,-69.809,-33.157,-43.653,11.878,-56.203,41.561,-80.933,2.9586,-76.31,20.806,-80.872
1.0884,-67.875,0.16106,-68.06,-38.372,-69.809,-33.157,-43.653,11.878,-56.203,41.561,-80.933,2.9586,-76.31,20.806,-80.872
1.2754,-67.661,0.36326,-67.595,-38.31,-69.594,-33.102,-43.233,12.089,-55.906,41.751,-80.518,3.0747,-76.174,20.925,-80.505
1.2754,-67.661,0.36326,-67.595,-38.31,-69.594,-33.102,-43.233,12.089,-55.906,41.751,-80.518,3.0747,-76.174,20.925,-80.505
1.2754,-67.661,0.36326,-67.595,-38.31,-69.594,-33.102,-43.233,12.089,-55.906,41.751,-80.518,3.0747,-76.174,20.925,-80.505
1.2754,-67.661,0.36326,-67.595,-38.31,-69.594,-33.102,-43.233,12.089,-55.906,41.751,-80.518,3.0747,-76.174,20.925,-80.505
1.6557,-67.223,0.77482,-66.654,-38.177,-69.153,-32.985,-42.38,12.514,-55.302,42.132,-79.676,3.3109,-75.888,21.168,-79.759
1.6557,-67.223,0.77482,-66.654,-38.177,-69.153,-32.985,-42.38,12.514,-55.302,42.132,-79.676,3.3109,-75.888,21.168,-79.759
1.849,-66.999,0.98416,-66.178,-38.106,-68.926,-32.923,-41.948,12.728,-54.996,42.323,-79.249,3.431,-75.739,21.291,-79.379
1.849,-66.999,0.98416,-66.178,-38.106,-68.926,-32.923,-41.948,12.728,-54.996,42.323,-79.249,3.431,-75.739,21.291,-79.379
2.0444,-66.772,1.1959,-65.699,-38.031,-68.696,-32.859,-41.512,12.944,-54.688,42.514,-78.818,3.5523,-75.585,21.415,-78.995
2.0444,-66.772,1.1959,-65.699,-38.031,-68.696,-32.859,-41.512,12.944,-54.688,42.514,-78.818,3.5523,-75.585,21.415,-78.995
2.2419,-66.541,1.4099,-65.216,-37.954,-68.462,-32.794,-41.073,13.161,-54.376,42.705,-78.383,3.6749,-75.428,21.54,-78.607
2.4415,-66.308,1.6263,-64.729,-37.873,-68.224,-32.726,-40.63,13.38,-54.062,42.897,-77.944,3.7988,-75.266,21.667,-78.214
2.4415,-66.308,1.6263,-64.729,-37.873,-68.224,-32.726,-40.63,13.38,-54.062,42.897,-77.944,3.7988,-75.266,21.667,-78.214
2.4415,-66.308,1.6263,-64.729,-37.873,-68.224,-32.726,-40.63,13.38,-54.062,42.897,-77.944,3.7988,-75.266,21.667,-78.214
2.6431,-66.071,1.8451,-64.239,-37.789,-67.983,-32.656,-40.183,13.599,-53.745,43.089,-77.501,3.9239,-75.099,21.794,-77.818
2.6431,-66.071,1.8451,-64.239,-37.789,-67.983,-32.656,-40.183,13.599,-53.745,43.089,-77.501,3.9239,-75.099,21.794,-77.818
2.8467,-65.832,2.0661,-63.745,-37.703,-67.738,-32.584,-39.733,13.82,-53.426,43.282,-77.054,4.0503,-74.929,21.923,-77.417
3.0524,-65.589,2.2895,-63.248,-37.613,-67.489,-32.51,-39.279,14.043,-53.103,43.474,-76.603,4.1779,-74.754,22.053,-77.012
3.0524,-65.589,2.2895,-63.248,-37.613,-67.489,-32.51,-39.279,14.043,-53.103,43.474,-76.603,4.1779,-74.754,22.053,-77.012
3.0524,-65.589,2.2895,-63.248,-37.613,-67.489,-32.51,-39.279,14.043,-53.103,43.474,-76.603,4.1779,-74.754,22.053,-77.012
3.2601,-65.343,2.5152,-62.747,-37.52,-67.236,-32.434,-38.822,14.266,-52.778,43.667,-76.148,4.3067,-74.575,22.184,-76.603
3.2601,-65.343,2.5152,-62.747,-37.52,-67.236,-32.434,-38.822,14.266,-52.778,43.667,-76.148,4.3067,-74.575,22.184,-76.603
3.4699,-65.094,2.7432,-62.243,-37.424,-66.98,-32.356,-38.361,14.491,-52.451,43.86,-75.689,4.4367,-74.392,22.316,-76.189
3.4699,-65.094,2.7432,-62.243,-37.424,-66.98,-32.356,-38.361,14.491,-52.451,43.86,-75.689,4.4367,-74.392,22.316,-76.189
3.6816,-64.842,2.9735,-61.735,-37.325,-66.72,-32.276,-37.897,14.717,-52.121,44.054,-75.227,4.5679,-74.205,22.449,-75.772
3.6816,-64.842,2.9735,-61.735,-37.325,-66.72,-32.276,-37.897,14.717,-52.121,44.054,-75.227,4.5679,-74.205,22.449,-75.772
3.8953,-64.587,3.206,-61.224,-37.223,-66.457,-32.193,-37.429,14.945,-51.788,44.247,-74.76,4.7003,-74.013,22.584,-75.35
3.8953,-64.587,3.206,-61.224,-37.223,-66.457,-32.193,-37.429,14.945,-51.788,44.247,-74.76,4.7003,-74.013,22.584,-75.35
4.111,-64.329,3.4408,-60.709,-37.118,-66.19,-32.109,-36.958,15.173,-51.452,44.441,-74.29,4.8339,-73.818,22.719,-74.925
4.111,-64.329,3.4408,-60.709,-37.118,-66.19,-32.109,-36.958,15.173,-51.452,44.441,-74.29,4.8339,-73.818,22.719,-74.925
4.3286,-64.068,3.6779,-60.192,-37.01,-65.919,-32.023,-36.483,15.403,-51.114,44.635,-73.816,4.9686,-73.618,22.855,-74.495
4.3286,-64.068,3.6779,-60.192,-37.01,-65.919,-32.023,-36.483,15.403,-51.114,44.635,-73.816,4.9686,-73.618,22.855,-74.495
4.5481,-63.804,3.9172,-59.67,-36.899,-65.645,-31.934,-36.005,15.634,-50.774,44.829,-73.338,5.1045,-73.414,22.993,-74.062
4.5481,-63.804,3.9172,-59.67,-36.899,-65.645,-31.934,-36.005,15.634,-50.774,44.829,-73.338,5.1045,-73.414,22.993,-74.062
4.5481,-63.804,3.9172,-59.67,-36.899,-65.645,-31.934,-36.005,15.634,-50.774,44.829,-73.338,5.1045,-73.414,22.993,-74.062
4.7697,-63.537,4.1587,-59.146,-36.785,-65.367,-31.844,-35.523,15.866,-50.431,45.023,-72.857,5.2416,-73.206,23.132,-73.624
4.7697,-63.537,4.1587,-59.146,-36.785,-65.367,-31.844,-35.523,15.866,-50.431,45.023,-72.857,5.2416,-73.206,23.132,-73.624
4.9931,-63.267,4.4025,-58.618,-36.668,-65.085,-31.752,-35.038,16.099,-50.086,45.218,-72.371,5.3797,-72.994,23.271,-73.183
5.2184,-62.994,4.6485,-58.087,-36.548,-64.8,-31.657,-34.55,16.334,-49.738,45.412,-71.882,5.519,-72.778,23.412,-72.737
5.2184,-62.994,4.6485,-58.087,-36.548,-64.8,-31.657,-34.55,16.334,-49.738,45.412,-71.882,5.519,-72.778,23.412,-72.737
5.4456,-62.718,4.8966,-57.553,-36.426,-64.512,-31.561,-34.058,16.569,-49.388,45.607,-71.39,5.6594,-72.558,23.554,-72.288
5.6747,-62.439,5.147,-57.016,-36.3,-64.22,-31.462,-33.563,16.806,-49.035,45.802,-70.893,5.8009,-72.334,23.697,-71.835
5.6747,-62.439,5.147,-57.016,-36.3,-64.22,-31.462,-33.563,16.806,-49.035,45.802,-70.893,5.8009,-72.334,23.697,-71.835
5.6747,-62.439,5.147,-57.016,-36.3,-64.22,-31.462,-33.563,16.806,-49.035,45.802,-70.893,5.8009,-72.334,23.697,-71.835
5.9056,-62.158,5.3995,-56.475,-36.171,-63.925,-31.362,-33.065,17.043,-48.68,45.997,-70.393,5.9435,-72.106,23.84,-71.378
5.9056,-62.158,5.3995,-56.475,-36.171,-63.925,-31.362,-33.065,17.043,-48.68,45.997,-70.393,5.9435,-72.106,23.84,-71.378
5.9056,-62.158,5.3995,-56.475,-36.171,-63.925,-31.362,-33.065,17.043,-48.68,45.997,-70.393,5.9435,-72.106,23.84,-71.378
6.1384,-61.873,5.6541,-55.931,-36.039,-63.626,-31.259,-32.563,17.282,-48.322,46.192,-69.889,6.0871,-71.874,23.985,-70.918
6.3731,-61.586,5.911,-55.384,-35.905,-63.324,-31.155,-32.059,17.522,-47.963,46.387,-69.382,6.2318,-71.638,24.131,-70.453
6.6095,-61.296,6.1699,-54.834,-35.767,-63.018,-31.048,-31.551,17.763,-47.601,46.582,-68.871,6.3775,-71.398,24.278,-69.985
6.6095,-61.296,6.1699,-54.834,-35.767,-63.018,-31.048,-31.551,17.763,-47.601,46.582,-68.871,6.3775,-71.398,24.278,-69.985
6.8477,-61.003,6.4309,-54.281,-35.627,-62.709,-30.94,-31.04,18.004,-47.236,46.778,-68.356,6.5243,-71.154,24.426,-69.513
6.8477,-61.003,6.4309,-54.281,-35.627,-62.709,-30.94,-31.04,18.004,-47.236,46.778,-68.356,6.5243,-71.154,24.426,-69.513
6.8477,-61.003,6.4309,-54.281,-35.627,-62.709,-30.94,-31.04,18.004,-47.236,46.778,-68.356,6.5243,-71.154,24.426,-69.513
7.0878,-60.707,6.6941,-53.725,-35.484,-62.396,-30.829,-30.526,18.247,-46.87,46.973,-67.838,6.672,-70.906,24.574,-69.038
7.0878,-60.707,6.6941,-53.725,-35.484,-62.396,-30.829,-30.526,18.247,-46.87,46.973,-67.838,6.672,-70.906,24.574,-69.038
7.0878,-60.707,6.6941,-53.725,-35.484,-62.396,-30.829,-30.526,18.247,-46.87,46.973,-67.838,6.672,-70.906,24.574,-69.038
7.3296,-60.409,6.9593,-53.166,-35.338,-62.08,-30.717,-30.008,18.491,-46.501,47.168,-67.316,6.8208,-70.654,24.724,-68.558
7.5731,-60.107,7.2266,-52.604,-35.189,-61.761,-30.602,-29.488,18.736,-46.13,47.364,-66.791,6.9706,-70.398,24.875,-68.076
7.8184,-59.804,7.496,-52.039,-35.037,-61.439,-30.486,-28.965,18.981,-45.757,47.559,-66.262,7.1213,-70.139,25.026,-67.589
7.8184,-59.804,7.496,-52.039,-35.037,-61.439,-30.486,-28.965,18.981,-45.757,47.559,-66.262,7.1213,-70.139,25.026,-67.589
7.8184,-59.804,7.496,-52.039,-35.037,-61.439,-30.486,-28.965,18.981,-45.757,47.559,-66.262,7.1213,-70.139,25.026,-67.589
8.0654,-59.497,7.7674,-51.471,-34.882,-61.113,-30.368,-28.438,19.228,-45.382,47.754,-65.73,7.273,-69.875,25.179,-67.099
8.0654,-59.497,7.7674,-51.471,-34.882,-61.113,-30.368,-28.438,19.228,-45.382,47.754,-65.73,7.273,-69.875,25.179,-67.099
8.0654,-59.497,7.7674,-51.471,-34.882,-61.113,-30.368,-28.438,19.228,-45.382,47.754,-65.73,7.273,-69.875,25.179,-67.099
8.3141,-59.188,8.0408,-50.9,-34.725,-60.784,-30.248,-27.909,19.475,-45.004,47.95,-65.194,7.4256,-69.608,25.332,-66.606
8.5645,-58.875,8.3162,-50.326,-34.565,-60.451,-30.125,-27.377,19.724,-44.625,48.145,-64.655,7.5792,-69.337,25.487,-66.109
8.8166,-58.561,8.5937,-49.749,-34.402,-60.115,-30.001,-26.842,19.973,-44.244,48.34,-64.113,7.7337,-69.062,25.642,-65.609
8.8166,-58.561,8.5937,-49.749,-34.402,-60.115,-30.001,-26.842,19.973,-44.244,48.34,-64.113,7.7337,-69.062,25.642,-65.609
8.8166,-58.561,8.5937,-49.749,-34.402,-60.115,-30.001,-26.842,19.973,-44.244,48.34,-64.113,7.7337,-69.062,25.642,-65.609
9.0703,-58.244,8.8731,-49.17,-34.236,-59.777,-29.875,-26.303,20.223,-43.86,48.536,-63.567,7.8891,-68.784,25.798,-65.105
9.0703,-58.244,8.8731,-49.17,-34.236,-59.777,-29.875,-26.303,20.223,-43.86,48.536,-63.567,7.8891,-68.784,25.798,-65.105
9.3256,-57.924,9.1544,-48.588,-34.067,-59.434,-29.747,-25.762,20.474,-43.475,48.731,-63.018,8.0454,-68.501,25.955,-64.598
9.3256,-57.924,9.1544,-48.588,-34.067,-59.434,-29.747,-25.762,20.474,-43.475,48.731,-63.018,8.0454,-68.501,25.955,-64.598
9.3256,-57.924,9.1544,-48.588,-34.067,-59.434,-29.747,-25.762,20.474,-43.475,48.731,-63.018,8.0454,-68.501,25.955,-64.598
9.5826,-57.601,9.4378,-48.003,-33.896,-59.089,-29.617,-25.219,20.726,-43.087,48.926,-62.465,8.2026,-68.215,26.113,-64.087
9.5826,-57.601,9.4378,-48.003,-33.896,-59.089,-29.617,-25.219,20.726,-43.087,48.926,-62.465,8.2026,-68.215,26.113,-64.087
9.8412,-57.276,9.723,-47.415,-33.722,-58.741,-29.486,-24.672,20.978,-42.698,49.121,-61.91,8.3606,-67.926,26.271,-63.574
9.8412,-57.276,9.723,-47.415,-33.722,-58.741,-29.486,-24.672,20.978,-42.698,49.121,-61.91,8.3606,-67.926,26.271,-63.574
10.101,-56.949,10.01,-46.824,-33.545,-58.389,-29.352,-24.123,21.232,-42.306,49.316,-61.351,8.5195,-67.632,26.431,-63.057
10.101,-56.949,10.01,-46.824,-33.545,-58.389,-29.352,-24.123,21.232,-42.306,49.316,-61.351,8.5195,-67.632,26.431,-63.057
10.626,-56.286,10.59,-45.636,-33.183,-57.677,-29.079,-23.016,21.741,-41.518,49.705,-60.223,8.8397,-67.035,26.752,-62.013
10.626,-56.286,10.59,-45.636,-33.183,-57.677,-29.079,-23.016,21.741,-41.518,49.705,-60.223,8.8397,-67.035,26.752,-62.013
10.626,-56.286,10.59,-45.636,-33.183,-57.677,-29.079,-23.016,21.741,-41.518,49.705,-60.223,8.8397,-67.035,26.752,-62.013
10.891,-55.951,10.883,-45.037,-32.999,-57.316,-28.94,-22.458,21.996,-41.121,49.899,-59.654,9.001,-66.731,26.914,-61.486
10.891,-55.951,10.883,-45.037,-32.999,-57.316,-28.94,-22.458,21.996,-41.121,49.899,-59.654,9.001,-66.731,26.914,-61.486
10.891,-55.951,10.883,-45.037,-32.999,-57.316,-28.94,-22.458,21.996,-41.121,49.899,-59.654,9.001,-66.731,26.914,-61.486
11.157,-55.613,11.178,-44.437,-32.811,-56.952,-28.799,-21.898,22.252,-40.723,50.093,-59.083,9.1631,-66.423,27.076,-60.956
11.425,-55.274,11.474,-43.833,-32.621,-56.585,-28.656,-21.335,22.509,-40.322,50.287,-58.508,9.326,-66.112,27.24,-60.423
11.694,-54.931,11.772,-43.227,-32.428,-56.215,-28.511,-20.77,22.767,-39.92,50.481,-57.93,9.4896,-65.797,27.404,-59.887
11.694,-54.931,11.772,-43.227,-32.428,-56.215,-28.511,-20.77,22.767,-39.92,50.481,-57.93,9.4896,-65.797,27.404,-59.887
11.694,-54.931,11.772,-43.227,-32.428,-56.215,-28.511,-20.77,22.767,-39.92,50.481,-57.93,9.4896,-65.797,27.404,-59.887
11.965,-54.587,12.072,-42.619,-32.233,-55.842,-28.364,-20.202,23.025,-39.516,50.675,-57.349,9.654,-65.479,27.569,-59.348
11.965,-54.587,12.072,-42.619,-32.233,-55.842,-28.364,-20.202,23.025,-39.516,50.675,-57.349,9.654,-65.479,27.569,-59.348
11.965,-54.587,12.072,-42.619,-32.233,-55.842,-28.364,-20.202,23.025,-39.516,50.675,-57.349,9.654,-65.479,27.569,-59.348
12.237,-54.24,12.374,-42.008,-32.035,-55.466,-28.216,-19.631,23.284,-39.111,50.868,-56.765,9.8191,-65.157,27.734,-58.806
12.237,-54.24,12.374,-42.008,-32.035,-55.466,-28.216,-19.631,23.284,-39.111,50.868,-56.765,9.8191,-65.157,27.734,-58.806
12.511,-53.89,12.678,-41.395,-31.834,-55.088,-28.066,-19.058,23.543,-38.703,51.061,-56.178,9.9849,-64.832,27.9,-58.261
12.786,-53.539,12.983,-40.779,-31.631,-54.706,-27.913,-18.483,23.803,-38.295,51.254,-55.588,10.151,-64.504,28.067,-57.713
13.062,-53.185,13.29,-40.161,-31.425,-54.321,-27.76,-17.905,24.063,-37.884,51.447,-54.995,10.319,-64.172,28.235,-57.162
13.062,-53.185,13.29,-40.161,-31.425,-54.321,-27.76,-17.905,24.063,-37.884,51.447,-54.995,10.319,-64.172,28.235,-57.162
13.34,-52.828,13.599,-39.541,-31.217,-53.934,-27.604,-17.325,24.324,-37.473,51.639,-54.4,10.486,-63.837,28.403,-56.609
13.34,-52.828,13.599,-39.541,-31.217,-53.934,-27.604,-17.325,24.324,-37.473,51.639,-54.4,10.486,-63.837,28.403,-56.609
13.34,-52.828,13.599,-39.541,-31.217,-53.934,-27.604,-17.325,24.324,-37.473,51.639,-54.4,10.486,-63.837,28.403,-56.609
13.619,-52.47,13.909,-38.919,-31.006,-53.543,-27.446,-16.743,24.586,-37.059,51.831,-53.801,10.655,-63.498,28.572,-56.052
13.619,-52.47,13.909,-38.919,-31.006,-53.543,-27.446,-16.743,24.586,-37.059,51.831,-53.801,10.655,-63.498,28.572,-56.052
13.899,-52.109,14.221,-38.294,-30.792,-53.15,-27.287,-16.158,24.848,-36.644,52.023,-53.199,10.824,-63.157,28.741,-55.493
14.181,-51.747,14.534,-37.667,-30.577,-52.754,-27.126,-15.571,25.11,-36.228,52.214,-52.595,10.994,-62.812,28.911,-54.931
14.181,-51.747,14.534,-37.667,-30.577,-52.754,-27.126,-15.571,25.11,-36.228,52.214,-52.595,10.994,-62.812,28.911,-54.931
14.181,-51.747,14.534,-37.667,-30.577,-52.754,-27.126,-15.571,25.11,-36.228,52.214,-52.595,10.994,-62.812,28.911,-54.931
14.463,-51.382,14.85,-37.038,-30.358,-52.356,-26.964,-14.982,25.373,-35.81,52.405,-51.988,11.164,-62.463,29.082,-54.366
14.463,-51.382,14.85,-37.038,-30.358,-52.356,-26.964,-14.982,25.373,-35.81,52.405,-51.988,11.164,-62.463,29.082,-54.366
14.748,-51.015,15.167,-36.407,-30.138,-51.954,-26.799,-14.39,25.636,-35.391,52.595,-51.378,11.335,-62.112,29.253,-53.799
14.748,-51.015,15.167,-36.407,-30.138,-51.954,-26.799,-14.39,25.636,-35.391,52.595,-51.378,11.335,-62.112,29.253,-53.799
14.748,-51.015,15.167,-36.407,-30.138,-51.954,-26.799,-14.39,25.636,-35.391,52.595,-51.378,11.335,-62.112,29.253,-53.799
15.033,-50.645,15.485,-35.774,-29.914,-51.55,-26.633,-13.797,25.9,-34.971,52.785,-50.766,11.506,-61.757,29.425,-53.229
15.033,-50.645,15.485,-35.774,-29.914,-51.55,-26.633,-13.797,25.9,-34.971,52.785,-50.766,11.506,-61.757,29.425,-53.229
15.319,-50.274,15.805,-35.138,-29.689,-51.143,-26.465,-13.201,26.164,-34.549,52.975,-50.151,11.678,-61.4,29.597,-52.657
15.319,-50.274,15.805,-35.138,-29.689,-51.143,-26.465,-13.201,26.164,-34.549,52.975,-50.151,11.678,-61.4,29.597,-52.657
15.607,-49.901,16.126,-34.501,-29.461,-50.734,-26.296,-12.603,26.428,-34.126,53.165,-49.533,11.85,-61.039,29.77,-52.082
15.896,-49.525,16.449,-33.862,-29.23,-50.322,-26.124,-12.003,26.693,-33.702,53.354,-48.913,12.023,-60.675,29.943,-51.504
15.896,-49.525,16.449,-33.862,-29.23,-50.322,-26.124,-12.003,26.693,-33.702,53.354,-48.913,12.023,-60.675,29.943,-51.504
16.186,-49.148,16.774,-33.221,-28.997,-49.907,-25.952,-11.401,26.958,-33.276,53.542,-48.29,12.197,-60.308,30.117,-50.924
16.186,-49.148,16.774,-33.221,-28.997,-49.907,-25.952,-11.401,26.958,-33.276,53.542,-48.29,12.197,-60.308,30.117,-50.924
16.477,-48.769,17.1,-32.577,-28.762,-49.49,-25.777,-10.798,27.223,-32.85,53.73,-47.664,12.371,-59.938,30.292,-50.342
16.477,-48.769,17.1,-32.577,-28.762,-49.49,-25.777,-10.798,27.223,-32.85,53.73,-47.664,12.371,-59.938,30.292,-50.342
16.769,-48.387,17.427,-31.932,-28.525,-49.07,-25.601,-10.192,27.488,-32.422,53.917,-47.036,12.545,-59.565,30.466,-49.757
16.769,-48.387,17.427,-31.932,-28.525,-49.07,-25.601,-10.192,27.488,-32.422,53.917,-47.036,12.545,-59.565,30.466,-49.757
17.063,-48.004,17.756,-31.286,-28.285,-48.647,-25.423,-9.584,27.754,-31.993,54.104,-46.406,12.72,-59.189,30.642,-49.17
17.357,-47.619,18.086,-30.637,-28.043,-48.222,-25.244,-8.9744,28.02,-31.563,54.291,-45.773,12.895,-58.81,30.817,-48.58
17.357,-47.619,18.086,-30.637,-28.043,-48.222,-25.244,-8.9744,28.02,-31.563,54.291,-45.773,12.895,-58.81,30.817,-48.58
17.357,-47.619,18.086,-30.637,-28.043,-48.222,-25.244,-8.9744,28.02,-31.563,54.291,-45.773,12.895,-58.81,30.817,-48.58
17.652,-47.232,18.417,-29.987,-27.799,-47.795,-25.062,-8.3631,28.286,-31.132,54.477,-45.138,13.071,-58.428,30.993,-47.989
17.652,-47.232,18.417,-29.987,-27.799,-47.795,-25.062,-8.3631,28.286,-31.132,54.477,-45.138,13.071,-58.428,30.993,-47.989
17.949,-46.843,18.75,-29.335,-27.552,-47.365,-24.88,-7.7499,28.552,-30.7,54.662,-44.5,13.247,-58.044,31.17,-47.395
17.949,-46.843,18.75,-29.335,-27.552,-47.365,-24.88,-7.7499,28.552,-30.7,54.662,-44.5,13.247,-58.044,31.17,-47.395
18.246,-46.453,19.084,-28.681,-27.303,-46.933,-24.695,-7.1349,28.818,-30.267,54.847,-43.86,13.423,-57.656,31.347,-46.799
18.246,-46.453,19.084,-28.681,-27.303,-46.933,-24.695,-7.1349,28.818,-30.267,54.847,-43.86,13.423,-57.656,31.347,-46.799
18.544,-46.06,19.42,-28.025,-27.052,-46.498,-24.51,-6.5183,29.085,-29.833,55.032,-43.218,13.6,-57.266,31.524,-46.201
18.544,-46.06,19.42,-28.025,-27.052,-46.498,-24.51,-6.5183,29.085,-29.833,55.032,-43.218,13.6,-57.266,31.524,-46.201
18.844,-45.666,19.757,-27.368,-26.799,-46.061,-24.322,-5.9,29.351,-29.398,55.215,-42.573,13.777,-56.873,31.701,-45.601
19.144,-45.27,20.095,-26.71,-26.543,-45.622,-24.133,-5.28,29.618,-28.962,55.398,-41.927,13.954,-56.478,31.879,-44.998
19.144,-45.27,20.095,-26.71,-26.543,-45.622,-24.133,-5.28,29.618,-28.962,55.398,-41.927,13.954,-56.478,31.879,-44.998
19.144,-45.27,20.095,-26.71,-26.543,-45.622,-24.133,-5.28,29.618,-28.962,55.398,-41.927,13.954,-56.478,31.879,-44.998
19.445,-44.872,20.434,-26.05,-26.286,-45.18,-23.943,-4.6585,29.884,-28.525,55.581,-41.278,14.132,-56.079,32.057,-44.394
19.445,-44.872,20.434,-26.05,-26.286,-45.18,-23.943,-4.6585,29.884,-28.525,55.581,-41.278,14.132,-56.079,32.057,-44.394
19.747,-44.473,20.775,-25.388,-26.026,-44.736,-23.751,-4.0354,30.151,-28.088,55.763,-40.627,14.31,-55.678,32.236,-43.788
20.05,-44.072,21.116,-24.725,-25.764,-44.29,-23.557,-3.4108,30.417,-27.65,55.944,-39.974,14.488,-55.275,32.415,-43.18
20.05,-44.072,21.116,-24.725,-25.764,-44.29,-23.557,-3.4108,30.417,-27.65,55.944,-39.974,14.488,-55.275,32.415,-43.18
20.05,-44.072,21.116,-24.725,-25.764,-44.29,-23.557,-3.4108,30.417,-27.65,55.944,-39.974,14.488,-55.275,32.415,-43.18
20.353,-43.67,21.459,-24.061,-25.5,-43.841,-23.362,-2.7847,30.684,-27.211,56.124,-39.318,14.667,-54.869,32.593,-42.57
20.353,-43.67,21.459,-24.061,-25.5,-43.841,-23.362,-2.7847,30.684,-27.211,56.124,-39.318,14.667,-54.869,32.593,-42.57
20.353,-43.67,21.459,-24.061,-25.5,-43.841,-23.362,-2.7847,30.684,-27.211,56.124,-39.318,14.667,-54.869,32.593,-42.57
20.657,-43.266,21.803,-23.395,-25.234,-43.39,-23.166,-2.1572,30.95,-26.771,56.304,-38.661,14.845,-54.46,32.773,-41.958
20.657,-43.266,21.803,-23.395,-25.234,-43.39,-23.166,-2.1572,30.95,-26.771,56.304,-38.661,14.845,-54.46,32.773,-41.958
20.963,-42.86,22.148,-22.728,-24.966,-42.937,-22.968,-1.5282,31.216,-26.331,56.483,-38.002,15.024,-54.049,32.952,-41.344
20.963,-42.86,22.148,-22.728,-24.966,-42.937,-22.968,-1.5282,31.216,-26.331,56.483,-38.002,15.024,-54.049,32.952,-41.344
21.268,-42.453,22.494,-22.06,-24.695,-42.482,-22.768,-0.89796,31.483,-25.89,56.661,-37.341,15.203,-53.635,33.132,-40.729
21.575,-42.044,22.842,-21.39,-24.423,-42.025,-22.567,-0.26636,31.749,-25.449,56.839,-36.678,15.382,-53.219,33.311,-40.112
21.882,-41.634,23.19,-20.72,-24.149,-41.566,-22.365,0.3665,32.014,-25.007,57.016,-36.013,15.561,-52.801,33.491,-39.493
21.882,-41.634,23.19,-20.72,-24.149,-41.566,-22.365,0.3665,32.014,-25.007,57.016,-36.013,15.561,-52.801,33.491,-39.493
22.19,-41.222,23.539,-20.048,-23.873,-41.105,-22.161,1.0006,32.28,-24.564,57.192,-35.347,15.741,-52.38,33.671,-38.873
22.19,-41.222,23.539,-20.048,-23.873,-41.105,-22.161,1.0006,32.28,-24.564,57.192,-35.347,15.741,-52.38,33.671,-38.873
22.19,-41.222,23.539,-20.048,-23.873,-41.105,-22.161,1.0006,32.28,-24.564,57.192,-35.347,15.741,-52.38,33.671,-38.873
22.499,-40.809,23.889,-19.375,-23.594,-40.641,-21.956,1.6359,32.546,-24.121,57.367,-34.678,15.92,-51.957,33.852,-38.251
22.499,-40.809,23.889,-19.375,-23.594,-40.641,-21.956,1.6359,32.546,-24.121,57.367,-34.678,15.92,-51.957,33.852,-38.251
22.499,-40.809,23.889,-19.375,-23.594,-40.641,-21.956,1.6359,32.546,-24.121,57.367,-34.678,15.92,-51.957,33.852,-38.251
22.808,-40.394,24.241,-18.701,-23.314,-40.176,-21.75,2.2724,32.811,-23.678,57.542,-34.008,16.1,-51.531,34.032,-37.628
23.118,-39.979,24.593,-18.026,-23.032,-39.709,-21.542,2.9099,33.076,-23.234,57.716,-33.336,16.28,-51.104,34.212,-37.003
23.118,-39.979,24.593,-18.026,-23.032,-39.709,-21.542,2.9099,33.076,-23.234,57.716,-33.336,16.28,-51.104,34.212,-37.003
23.428,-39.561,24.946,-17.349,-22.748,-39.24,-21.332,3.5485,33.34,-22.79,57.888,-32.663,16.459,-50.674,34.393,-36.377
23.428,-39.561,24.946,-17.349,-22.748,-39.24,-21.332,3.5485,33.34,-22.79,57.888,-32.663,16.459,-50.674,34.393,-36.377
23.739,-39.143,25.3,-16.672,-22.462,-38.768,-21.122,4.1882,33.604,-22.345,58.06,-31.987,16.639,-50.242,34.573,-35.749
23.739,-39.143,25.3,-16.672,-22.462,-38.768,-21.122,4.1882,33.604,-22.345,58.06,-31.987,16.639,-50.242,34.573,-35.749
24.05,-38.723,25.655,-15.994,-22.175,-38.295,-20.91,4.8289,33.868,-21.9,58.231,-31.311,16.819,-49.808,34.754,-35.12
24.05,-38.723,25.655,-15.994,-22.175,-38.295,-20.91,4.8289,33.868,-21.9,58.231,-31.311,16.819,-49.808,34.754,-35.12
24.05,-38.723,25.655,-15.994,-22.175,-38.295,-20.91,4.8289,33.868,-21.9,58.231,-31.311,16.819,-49.808,34.754,-35.12
24.362,-38.302,26.01,-15.316,-21.885,-37.821,-20.697,5.4705,34.132,-21.455,58.402,-30.632,16.999,-49.372,34.934,-34.49
24.675,-37.88,26.367,-14.636,-21.594,-37.344,-20.482,6.113,34.395,-21.01,58.571,-29.953,17.178,-48.933,35.115,-33.858
24.987,-37.457,26.724,-13.956,-21.301,-36.865,-20.266,6.7563,34.657,-20.564,58.739,-29.271,17.358,-48.493,35.295,-33.226
24.987,-37.457,26.724,-13.956,-21.301,-36.865,-20.266,6.7563,34.657,-20.564,58.739,-29.271,17.358,-48.493,35.295,-33.226
24.987,-37.457,26.724,-13.956,-21.301,-36.865,-20.266,6.7563,34.657,-20.564,58.739,-29.271,17.358,-48.493,35.295,-33.226
25.301,-37.032,27.082,-13.274,-21.006,-36.385,-20.049,7.4005,34.92,-20.118,58.907,-28.589,17.537,-48.051,35.476,-32.592
25.301,-37.032,27.082,-13.274,-21.006,-36.385,-20.049,7.4005,34.92,-20.118,58.907,-28.589,17.537,-48.051,35.476,-32.592
25.614,-36.607,27.441,-12.593,-20.709,-35.903,-19.831,8.0455,35.181,-19.673,59.074,-27.905,17.717,-47.607,35.656,-31.957
25.614,-36.607,27.441,-12.593,-20.709,-35.903,-19.831,8.0455,35.181,-19.673,59.074,-27.905,17.717,-47.607,35.656,-31.957
25.928,-36.18,27.8,-11.91,-20.411,-35.419,-19.611,8.6912,35.443,-19.227,59.239,-27.22,17.896,-47.161,35.837,-31.321
25.928,-36.18,27.8,-11.91,-20.411,-35.419,-19.611,8.6912,35.443,-19.227,59.239,-27.22,17.896,-47.161,35.837,-31.321
26.243,-35.752,28.16,-11.227,-20.111,-34.934,-19.391,9.3376,35.703,-18.781,59.404,-26.533,18.075,-46.713,36.017,-30.684
26.243,-35.752,28.16,-11.227,-20.111,-34.934,-19.391,9.3376,35.703,-18.781,59.404,-26.533,18.075,-46.713,36.017,-30.684
26.557,-35.324,28.521,-10.543,-19.809,-34.447,-19.169,9.9847,35.963,-18.335,59.567,-25.845,18.255,-46.263,36.197,-30.046
26.557,-35.324,28.521,-10.543,-19.809,-34.447,-19.169,9.9847,35.963,-18.335,59.567,-25.845,18.255,-46.263,36.197,-30.046
26.872,-34.894,28.883,-9.8592,-19.505,-33.959,-18.946,10.632,36.223,-17.889,59.73,-25.156,18.433,-45.811,36.377,-29.407
26.872,-34.894,28.883,-9.8592,-19.505,-33.959,-18.946,10.632,36.223,-17.889,59.73,-25.156,18.433,-45.811,36.377,-29.407
27.187,-34.463,29.245,-9.1746,-19.2,-33.468,-18.721,11.281,36.482,-17.443,59.891,-24.466,18.612,-45.358,36.557,-28.767
27.187,-34.463,29.245,-9.1746,-19.2,-33.468,-18.721,11.281,36.482,-17.443,59.891,-24.466,18.612,-45.358,36.557,-28.767
27.187,-34.463,29.245,-9.1746,-19.2,-33.468,-18.721,11.281,36.482,-17.443,59.891,-24.466,18.612,-45.358,36.557,-28.767
27.502,-34.031,29.607,-8.4895,-18.894,-32.977,-18.496,11.929,36.74,-16.998,60.052,-23.775,18.791,-44.903,36.736,-28.127
27.818,-33.599,29.97,-7.8041,-18.585,-32.483,-18.269,12.579,36.997,-16.552,60.211,-23.083,18.969,-44.447,36.915,-27.485
27.818,-33.599,29.97,-7.8041,-18.585,-32.483,-18.269,12.579,36.997,-16.552,60.211,-23.083,18.969,-44.447,36.915,-27.485
28.134,-33.165,30.334,-7.1183,-18.275,-31.989,-18.041,13.228,37.254,-16.107,60.37,-22.389,19.147,-43.989,37.095,-26.843
28.45,-32.731,30.698,-6.4322,-17.964,-31.493,-17.813,13.878,37.51,-15.662,60.527,-21.695,19.325,-43.529,37.274,-26.2
28.45,-32.731,30.698,-6.4322,-17.964,-31.493,-17.813,13.878,37.51,-15.662,60.527,-21.695,19.325,-43.529,37.274,-26.2
28.45,-32.731,30.698,-6.4322,-17.964,-31.493,-17.813,13.878,37.51,-15.662,60.527,-21.695,19.325,-43.529,37.274,-26.2
28.766,-32.296,31.063,-5.7458,-17.651,-30.995,-17.583,14.529,37.765,-15.217,60.683,-21,19.502,-43.068,37.452,-25.557
28.766,-32.296,31.063,-5.7458,-17.651,-30.995,-17.583,14.529,37.765,-15.217,60.683,-21,19.502,-43.068,37.452,-25.557
28.766,-32.296,31.063,-5.7458,-17.651,-30.995,-17.583,14.529,37.765,-15.217,60.683,-21,19.502,-43.068,37.452,-25.557
29.082,-31.86,31.428,-5.0593,-17.337,-30.496,-17.352,15.18,38.02,-14.772,60.838,-20.304,19.679,-42.605,37.631,-24.913
29.398,-31.424,31.793,-4.3726,-17.021,-29.996,-17.12,15.831,38.274,-14.328,60.992,-19.607,19.856,-42.141,37.809,-24.268
29.714,-30.986,32.159,-3.6857,-16.703,-29.494,-16.886,16.482,38.527,-13.884,61.145,-18.909,20.033,-41.675,37.987,-23.623
29.714,-30.986,32.159,-3.6857,-16.703,-29.494,-16.886,16.482,38.527,-13.884,61.145,-18.909,20.033,-41.675,37.987,-23.623
30.03,-30.549,32.525,-2.9988,-16.385,-28.991,-16.652,17.133,38.779,-13.441,61.297,-18.211,20.209,-41.208,38.164,-22.977
30.03,-30.549,32.525,-2.9988,-16.385,-28.991,-16.652,17.133,38.779,-13.441,61.297,-18.211,20.209,-41.208,38.164,-22.977
30.03,-30.549,32.525,-2.9988,-16.385,-28.991,-16.652,17.133,38.779,-13.441,61.297,-18.211,20.209,-41.208,38.164,-22.977
30.346,-30.11,32.892,-2.3118,-16.064,-28.487,-16.417,17.785,39.03,-12.998,61.447,-17.512,20.384,-40.74,38.341,-22.331
30.346,-30.11,32.892,-2.3118,-16.064,-28.487,-16.417,17.785,39.03,-12.998,61.447,-17.512,20.384,-40.74,38.341,-22.331
30.663,-29.671,33.259,-1.6249,-15.743,-27.982,-16.181,18.437,39.28,-12.555,61.596,-16.812,20.56,-40.271,38.518,-21.685
30.663,-29.671,33.259,-1.6249,-15.743,-27.982,-16.181,18.437,39.28,-12.555,61.596,-16.812,20.56,-40.271,38.518,-21.685
30.979,-29.231,33.626,-0.93802,-15.42,-27.475,-15.944,19.088,39.529,-12.113,61.744,-16.112,20.735,-39.8,38.694,-21.038
30.979,-29.231,33.626,-0.93802,-15.42,-27.475,-15.944,19.088,39.529,-12.113,61.744,-16.112,20.735,-39.8,38.694,-21.038
31.295,-28.79,33.993,-0.25124,-15.096,-26.968,-15.706,19.74,39.778,-11.672,61.891,-15.411,20.909,-39.328,38.87,-20.392
31.295,-28.79,33.993,-0.25124,-15.096,-26.968,-15.706,19.74,39.778,-11.672,61.891,-15.411,20.909,-39.328,38.87,-20.392
31.61,-28.35,34.361,0.4354,-14.77,-26.459,-15.467,20.392,40.025,-11.231,62.036,-14.709,21.083,-38.855,39.046,-19.744
31.61,-28.35,34.361,0.4354,-14.77,-26.459,-15.467,20.392,40.025,-11.231,62.036,-14.709,21.083,-38.855,39.046,-19.744
31.61,-28.35,34.361,0.4354,-14.77,-26.459,-15.467,20.392,40.025,-11.231,62.036,-14.709,21.083,-38.855,39.046,-19.744
31.926,-27.908,34.728,1.1218,-14.443,-25.949,-15.227,21.044,40.271,-10.791,62.181,-14.007,21.257,-38.381,39.221,-19.097
31.926,-27.908,34.728,1.1218,-14.443,-25.949,-15.227,21.044,40.271,-10.791,62.181,-14.007,21.257,-38.381,39.221,-19.097
32.242,-27.466,35.096,1.808,-14.115,-25.438,-14.986,21.695,40.517,-10.351,62.324,-13.305,21.43,-37.906,39.395,-18.45
32.242,-27.466,35.096,1.808,-14.115,-25.438,-14.986,21.695,40.517,-10.351,62.324,-13.305,21.43,-37.906,39.395,-18.45
32.872,-26.582,35.833,3.1796,-13.455,-24.413,-14.502,22.998,41.004,-9.4744,62.606,-11.899,21.774,-36.953,39.743,-17.155
32.872,-26.582,35.833,3.1796,-13.455,-24.413,-14.502,22.998,41.004,-9.4744,62.606,-11.899,21.774,-36.953,39.743,-17.155
33.187,-26.139,36.201,3.8648,-13.123,-23.899,-14.258,23.649,41.246,-9.0371,62.745,-11.196,21.945,-36.475,39.916,-16.507
33.187,-26.139,36.201,3.8648,-13.123,-23.899,-14.258,23.649,41.246,-9.0371,62.745,-11.196,21.945,-36.475,39.916,-16.507
33.187,-26.139,36.201,3.8648,-13.123,-23.899,-14.258,23.649,41.246,-9.0371,62.745,-11.196,21.945,-36.475,39.916,-16.507
33.187,-26.139,36.201,3.8648,-13.123,-23.899,-14.258,23.649,41.246,-9.0371,62.745,-11.196,21.945,-36.475,39.916,-16.507
33.501,-25.695,36.569,4.5496,-12.79,-23.384,-14.014,24.3,41.487,-8.6007,62.883,-10.492,22.116,-35.996,40.088,-15.86
33.501,-25.695,36.569,4.5496,-12.79,-23.384,-14.014,24.3,41.487,-8.6007,62.883,-10.492,22.116,-35.996,40.088,-15.86
33.816,-25.252,36.937,5.2339,-12.456,-22.868,-13.769,24.95,41.726,-8.1651,63.019,-9.7883,22.286,-35.516,40.26,-15.212
34.13,-24.808,37.306,5.9178,-12.12,-22.351,-13.523,25.6,41.965,-7.7304,63.154,-9.0844,22.456,-35.036,40.432,-14.565
34.13,-24.808,37.306,5.9178,-12.12,-22.351,-13.523,25.6,41.965,-7.7304,63.154,-9.0844,22.456,-35.036,40.432,-14.565
34.443,-24.364,37.674,6.6011,-11.784,-21.834,-13.277,26.25,42.202,-7.2966,63.288,-8.3804,22.625,-34.554,40.602,-13.918
34.443,-24.364,37.674,6.6011,-11.784,-21.834,-13.277,26.25,42.202,-7.2966,63.288,-8.3804,22.625,-34.554,40.602,-13.918
34.756,-23.919,38.042,7.2837,-11.447,-21.315,-13.029,26.899,42.438,-6.8639,63.42,-7.6763,22.793,-34.072,40.773,-13.271
34.756,-23.919,38.042,7.2837,-11.447,-21.315,-13.029,26.899,42.438,-6.8639,63.42,-7.6763,22.793,-34.072,40.773,-13.271
35.069,-23.475,38.41,7.9658,-11.108,-20.796,-12.781,27.547,42.672,-6.4321,63.551,-6.9723,22.961,-33.59,40.942,-12.625
35.069,-23.475,38.41,7.9658,-11.108,-20.796,-12.781,27.547,42.672,-6.4321,63.551,-6.9723,22.961,-33.59,40.942,-12.625
35.381,-23.03,38.778,8.6471,-10.768,-20.276,-12.532,28.195,42.905,-6.0014,63.68,-6.2682,23.128,-33.107,41.111,-11.979
35.381,-23.03,38.778,8.6471,-10.768,-20.276,-12.532,28.195,42.905,-6.0014,63.68,-6.2682,23.128,-33.107,41.111,-11.979
35.693,-22.585,39.146,9.3278,-10.428,-19.756,-12.282,28.843,43.137,-5.5717,63.808,-5.5643,23.294,-32.623,41.279,-11.333
36.004,-22.141,39.514,10.008,-10.086,-19.234,-12.032,29.49,43.368,-5.1432,63.935,-4.8605,23.459,-32.138,41.446,-10.688
36.004,-22.141,39.514,10.008,-10.086,-19.234,-12.032,29.49,43.368,-5.1432,63.935,-4.8605,23.459,-32.138,41.446,-10.688
36.315,-21.696,39.881,10.687,-9.7438,-18.713,-11.781,30.136,43.597,-4.7158,64.06,-4.1569,23.624,-31.654,41.613,-10.043
36.315,-21.696,39.881,10.687,-9.7438,-18.713,-11.781,30.136,43.597,-4.7158,64.06,-4.1569,23.624,-31.654,41.613,-10.043
36.315,-21.696,39.881,10.687,-9.7438,-18.713,-11.781,30.136,43.597,-4.7158,64.06,-4.1569,23.624,-31.654,41.613,-10.043
36.625,-21.251,40.249,11.365,-9.4004,-18.19,-11.53,30.782,43.825,-4.2896,64.184,-3.4536,23.788,-31.168,41.779,-9.3989
36.625,-21.251,40.249,11.365,-9.4004,-18.19,-11.53,30.782,43.825,-4.2896,64.184,-3.4536,23.788,-31.168,41.779,-9.3989
36.625,-21.251,40.249,11.365,-9.4004,-18.19,-11.53,30.782,43.825,-4.2896,64.184,-3.4536,23.788,-31.168,41.779,-9.3989
36.934,-20.806,40.616,12.042,-9.056,-17.667,-11.277,31.426,44.051,-3.8647,64.306,-2.7505,23.951,-30.683,41.945,-8.7552
37.243,-20.361,40.982,12.718,-8.7108,-17.143,-11.024,32.07,44.276,-3.441,64.427,-2.0478,24.114,-30.197,42.109,-8.1122
37.551,-19.917,41.349,13.394,-8.3646,-16.619,-10.771,32.714,44.5,-3.0186,64.546,-1.3454,24.275,-29.711,42.273,-7.4698
37.551,-19.917,41.349,13.394,-8.3646,-16.619,-10.771,32.714,44.5,-3.0186,64.546,-1.3454,24.275,-29.711,42.273,-7.4698
37.859,-19.472,41.715,14.068,-8.0177,-16.095,-10.517,33.356,44.721,-2.5976,64.663,-0.64345,24.436,-29.224,42.436,-6.8282
37.859,-19.472,41.715,14.068,-8.0177,-16.095,-10.517,33.356,44.721,-2.5976,64.663,-0.64345,24.436,-29.224,42.436,-6.8282
37.859,-19.472,41.715,14.068,-8.0177,-16.095,-10.517,33.356,44.721,-2.5976,64.663,-0.64345,24.436,-29.224,42.436,-6.8282
38.166,-19.028,42.081,14.741,-7.6699,-15.57,-10.262,33.997,44.942,-2.1779,64.779,0.058014,24.596,-28.737,42.598,-6.1873
38.166,-19.028,42.081,14.741,-7.6699,-15.57,-10.262,33.997,44.942,-2.1779,64.779,0.058014,24.596,-28.737,42.598,-6.1873
38.166,-19.028,42.081,14.741,-7.6699,-15.57,-10.262,33.997,44.942,-2.1779,64.779,0.058014,24.596,-28.737,42.598,-6.1873
38.472,-18.584,42.446,15.413,-7.3213,-15.045,-10.007,34.638,45.161,-1.7597,64.894,0.75896,24.754,-28.251,42.759,-5.5473
38.777,-18.14,42.811,16.084,-6.972,-14.519,-9.7512,35.277,45.378,-1.3429,65.007,1.4593,24.912,-27.764,42.919,-4.908
38.777,-18.14,42.811,16.084,-6.972,-14.519,-9.7512,35.277,45.378,-1.3429,65.007,1.4593,24.912,-27.764,42.919,-4.908
39.082,-17.696,43.175,16.753,-6.6219,-13.993,-9.4949,35.915,45.593,-0.92755,65.118,2.1591,25.07,-27.277,43.079,-4.2697
39.082,-17.696,43.175,16.753,-6.6219,-13.993,-9.4949,35.915,45.593,-0.92755,65.118,2.1591,25.07,-27.277,43.079,-4.2697
39.385,-17.253,43.539,17.422,-6.2711,-13.466,-9.2382,36.553,45.807,-0.51374,65.228,2.8582,25.226,-26.789,43.238,-3.6324
39.385,-17.253,43.539,17.422,-6.2711,-13.466,-9.2382,36.553,45.807,-0.51374,65.228,2.8582,25.226,-26.789,43.238,-3.6324
39.688,-16.81,43.903,18.089,-5.9196,-12.94,-8.9809,37.189,46.019,-0.10148,65.336,3.5566,25.381,-26.302,43.395,-2.996
39.688,-16.81,43.903,18.089,-5.9196,-12.94,-8.9809,37.189,46.019,-0.10148,65.336,3.5566,25.381,-26.302,43.395,-2.996
39.99,-16.367,44.266,18.754,-5.5674,-12.413,-8.7233,37.824,46.23,0.30919,65.443,4.2542,25.535,-25.815,43.552,-2.3607
39.99,-16.367,44.266,18.754,-5.5674,-12.413,-8.7233,37.824,46.23,0.30919,65.443,4.2542,25.535,-25.815,43.552,-2.3607
40.292,-15.925,44.628,19.418,-5.2146,-11.886,-8.4651,38.458,46.439,0.71823,65.548,4.951,25.688,-25.328,43.708,-1.7265
40.292,-15.925,44.628,19.418,-5.2146,-11.886,-8.4651,38.458,46.439,0.71823,65.548,4.951,25.688,-25.328,43.708,-1.7265
40.592,-15.483,44.99,20.081,-4.8612,-11.358,-8.2066,39.09,46.646,1.1256,65.651,5.647,25.841,-24.842,43.863,-1.0934
40.592,-15.483,44.99,20.081,-4.8612,-11.358,-8.2066,39.09,46.646,1.1256,65.651,5.647,25.841,-24.842,43.863,-1.0934
40.891,-15.041,45.351,20.742,-4.5071,-10.831,-7.9476,39.721,46.851,1.5313,65.753,6.3421,25.992,-24.355,44.017,-0.46148
40.891,-15.041,45.351,20.742,-4.5071,-10.831,-7.9476,39.721,46.851,1.5313,65.753,6.3421,25.992,-24.355,44.017,-0.46148
41.189,-14.6,45.712,21.402,-4.1525,-10.303,-7.6883,40.351,47.054,1.9353,65.853,7.0362,26.142,-23.869,44.17,0.16922
41.189,-14.6,45.712,21.402,-4.1525,-10.303,-7.6883,40.351,47.054,1.9353,65.853,7.0362,26.142,-23.869,44.17,0.16922
41.486,-14.16,46.072,22.06,-3.7973,-9.7757,-7.4286,40.98,47.256,2.3375,65.952,7.7293,26.291,-23.383,44.322,0.79866
41.486,-14.16,46.072,22.06,-3.7973,-9.7757,-7.4286,40.98,47.256,2.3375,65.952,7.7293,26.291,-23.383,44.322,0.79866
41.783,-13.72,46.431,22.717,-3.4416,-9.248,-7.1686,41.607,47.456,2.7379,66.048,8.4214,26.439,-22.897,44.473,1.4268
42.078,-13.28,46.789,23.372,-3.0854,-8.7204,-6.9082,42.233,47.654,3.1365,66.143,9.1123,26.586,-22.412,44.622,2.0536
42.078,-13.28,46.789,23.372,-3.0854,-8.7204,-6.9082,42.233,47.654,3.1365,66.143,9.1123,26.586,-22.412,44.622,2.0536
42.078,-13.28,46.789,23.372,-3.0854,-8.7204,-6.9082,42.233,47.654,3.1365,66.143,9.1123,26.586,-22.412,44.622,2.0536
42.372,-12.841,47.147,24.025,-2.7288,-8.1927,-6.6475,42.857,47.85,3.5332,66.237,9.8022,26.732,-21.927,44.771,2.6789
42.372,-12.841,47.147,24.025,-2.7288,-8.1927,-6.6475,42.857,47.85,3.5332,66.237,9.8022,26.732,-21.927,44.771,2.6789
42.665,-12.403,47.504,24.676,-2.3716,-7.6652,-6.3865,43.479,48.044,3.928,66.328,10.491,26.877,-21.442,44.919,3.3029
42.665,-12.403,47.504,24.676,-2.3716,-7.6652,-6.3865,43.479,48.044,3.928,66.328,10.491,26.877,-21.442,44.919,3.3029
42.957,-11.966,47.86,25.326,-2.0141,-7.1377,-6.1252,44.1,48.236,4.3209,66.418,11.178,27.02,-20.959,45.065,3.9253
42.957,-11.966,47.86,25.326,-2.0141,-7.1377,-6.1252,44.1,48.236,4.3209,66.418,11.178,27.02,-20.959,45.065,3.9253
43.247,-11.529,48.215,25.973,-1.6561,-6.6103,-5.8637,44.72,48.427,4.7118,66.506,11.864,27.163,-20.475,45.211,4.5462
43.247,-11.529,48.215,25.973,-1.6561,-6.6103,-5.8637,44.72,48.427,4.7118,66.506,11.864,27.163,-20.475,45.211,4.5462
43.247,-11.529,48.215,25.973,-1.6561,-6.6103,-5.8637,44.72,48.427,4.7118,66.506,11.864,27.163,-20.475,45.211,4.5462
43.537,-11.093,48.57,26.619,-1.2977,-6.0831,-5.6019,45.338,48.615,5.1007,66.593,12.549,27.304,-19.992,45.355,5.1655
43.537,-11.093,48.57,26.619,-1.2977,-6.0831,-5.6019,45.338,48.615,5.1007,66.593,12.549,27.304,-19.992,45.355,5.1655
43.537,-11.093,48.57,26.619,-1.2977,-6.0831,-5.6019,45.338,48.615,5.1007,66.593,12.549,27.304,-19.992,45.355,5.1655
43.537,-11.093,48.57,26.619,-1.2977,-6.0831,-5.6019,45.338,48.615,5.1007,66.593,12.549,27.304,-19.992,45.355,5.1655
44.112,-10.223,49.276,27.905,-0.57995,-5.0293,-5.0777,46.568,48.985,5.8724,66.76,13.915,27.583,-19.029,45.641,6.3993
44.112,-10.223,49.276,27.905,-0.57995,-5.0293,-5.0777,46.568,48.985,5.8724,66.76,13.915,27.583,-19.029,45.641,6.3993
44.398,-9.7894,49.628,28.545,-0.22058,-4.5027,-4.8153,47.181,49.168,6.2551,66.841,14.595,27.721,-18.548,45.781,7.0137
44.682,-9.3565,49.979,29.183,0.13907,-3.9764,-4.5528,47.792,49.348,6.6357,66.92,15.274,27.857,-18.068,45.921,7.6263
44.965,-8.9246,50.329,29.819,0.49899,-3.4505,-4.2901,48.401,49.526,7.0141,66.998,15.952,27.992,-17.589,46.06,8.2371
44.965,-8.9246,50.329,29.819,0.49899,-3.4505,-4.2901,48.401,49.526,7.0141,66.998,15.952,27.992,-17.589,46.06,8.2371
44.965,-8.9246,50.329,29.819,0.49899,-3.4505,-4.2901,48.401,49.526,7.0141,66.998,15.952,27.992,-17.589,46.06,8.2371
45.247,-8.4935,50.677,30.452,0.85915,-2.9249,-4.0272,49.008,49.702,7.3904,67.074,16.628,28.126,-17.111,46.197,8.8461
45.247,-8.4935,50.677,30.452,0.85915,-2.9249,-4.0272,49.008,49.702,7.3904,67.074,16.628,28.126,-17.111,46.197,8.8461
45.247,-8.4935,50.677,30.452,0.85915,-2.9249,-4.0272,49.008,49.702,7.3904,67.074,16.628,28.126,-17.111,46.197,8.8461
45.247,-8.4935,50.677,30.452,0.85915,-2.9249,-4.0272,49.008,49.702,7.3904,67.074,16.628,28.126,-17.111,46.197,8.8461
45.806,-7.6343,51.372,31.713,1.5801,-1.8749,-3.5012,50.216,50.047,8.1361,67.22,17.974,28.39,-16.157,46.468,10.058
45.806,-7.6343,51.372,31.713,1.5801,-1.8749,-3.5012,50.216,50.047,8.1361,67.22,17.974,28.39,-16.157,46.468,10.058
46.083,-7.2062,51.717,32.34,1.9409,-1.3505,-3.2381,50.818,50.217,8.5056,67.29,18.645,28.52,-15.682,46.601,10.662
46.083,-7.2062,51.717,32.34,1.9409,-1.3505,-3.2381,50.818,50.217,8.5056,67.29,18.645,28.52,-15.682,46.601,10.662
46.083,-7.2062,51.717,32.34,1.9409,-1.3505,-3.2381,50.818,50.217,8.5056,67.29,18.645,28.52,-15.682,46.601,10.662
46.359,-6.7791,52.062,32.964,2.3017,-0.82663,-2.9749,51.417,50.384,8.8727,67.358,19.314,28.649,-15.207,46.733,11.263
46.359,-6.7791,52.062,32.964,2.3017,-0.82663,-2.9749,51.417,50.384,8.8727,67.358,19.314,28.649,-15.207,46.733,11.263
46.359,-6.7791,52.062,32.964,2.3017,-0.82663,-2.9749,51.417,50.384,8.8727,67.358,19.314,28.649,-15.207,46.733,11.263
46.634,-6.3531,52.405,33.587,2.6628,-0.30326,-2.7116,52.014,50.549,9.2375,67.425,19.981,28.776,-14.734,46.864,11.862
46.634,-6.3531,52.405,33.587,2.6628,-0.30326,-2.7116,52.014,50.549,9.2375,67.425,19.981,28.776,-14.734,46.864,11.862
47.178,-5.5044,53.088,34.824,3.3851,0.74184,-2.1851,53.202,50.873,9.9599,67.552,21.31,29.026,-13.791,47.122,13.054
47.178,-5.5044,53.088,34.824,3.3851,0.74184,-2.1851,53.202,50.873,9.9599,67.552,21.31,29.026,-13.791,47.122,13.054
47.448,-5.0818,53.428,35.439,3.7463,1.2635,-1.9218,53.793,51.031,10.317,67.613,21.972,29.15,-13.321,47.249,13.647
47.448,-5.0818,53.428,35.439,3.7463,1.2635,-1.9218,53.793,51.031,10.317,67.613,21.972,29.15,-13.321,47.249,13.647
47.716,-4.6603,53.767,36.051,4.1076,1.7845,-1.6586,54.381,51.187,10.673,67.672,22.631,29.271,-12.852,47.375,14.238
47.716,-4.6603,53.767,36.051,4.1076,1.7845,-1.6586,54.381,51.187,10.673,67.672,22.631,29.271,-12.852,47.375,14.238
47.983,-4.2401,54.104,36.661,4.4689,2.3049,-1.3954,54.967,51.34,11.025,67.729,23.288,29.392,-12.385,47.499,14.826
48.248,-3.8211,54.44,37.269,4.8301,2.8245,-1.1322,55.551,51.492,11.375,67.785,23.943,29.511,-11.919,47.622,15.413
48.248,-3.8211,54.44,37.269,4.8301,2.8245,-1.1322,55.551,51.492,11.375,67.785,23.943,29.511,-11.919,47.622,15.413
48.248,-3.8211,54.44,37.269,4.8301,2.8245,-1.1322,55.551,51.492,11.375,67.785,23.943,29.511,-11.919,47.622,15.413
48.511,-3.4033,54.775,37.873,5.1914,3.3435,-0.86919,56.133,51.641,11.723,67.838,24.597,29.628,-11.454,47.744,15.996
48.511,-3.4033,54.775,37.873,5.1914,3.3435,-0.86919,56.133,51.641,11.723,67.838,24.597,29.628,-11.454,47.744,15.996
48.773,-2.9869,55.108,38.475,5.5525,3.8616,-0.60623,56.712,51.787,12.068,67.89,25.247,29.744,-10.991,47.864,16.578
48.773,-2.9869,55.108,38.475,5.5525,3.8616,-0.60623,56.712,51.787,12.068,67.89,25.247,29.744,-10.991,47.864,16.578
49.033,-2.5718,55.44,39.075,5.9136,4.379,-0.34338,57.289,51.931,12.41,67.939,25.896,29.859,-10.53,47.982,17.157
49.033,-2.5718,55.44,39.075,5.9136,4.379,-0.34338,57.289,51.931,12.41,67.939,25.896,29.859,-10.53,47.982,17.157
49.291,-2.158,55.77,39.671,6.2746,4.8956,-0.08067,57.864,52.073,12.75,67.987,26.543,29.972,-10.069,48.1,17.734
49.291,-2.158,55.77,39.671,6.2746,4.8956,-0.08067,57.864,52.073,12.75,67.987,26.543,29.972,-10.069,48.1,17.734
49.547,-1.7457,56.1,40.265,6.6354,5.4113,0.18189,58.436,52.212,13.087,68.032,27.187,30.084,-9.6108,48.216,18.308
49.547,-1.7457,56.1,40.265,6.6354,5.4113,0.18189,58.436,52.212,13.087,68.032,27.187,30.084,-9.6108,48.216,18.308
49.547,-1.7457,56.1,40.265,6.6354,5.4113,0.18189,58.436,52.212,13.087,68.032,27.187,30.084,-9.6108,48.216,18.308
49.802,-1.3347,56.427,40.856,6.9961,5.9261,0.44429,59.005,52.349,13.421,68.076,27.828,30.194,-9.1537,48.33,18.88
49.802,-1.3347,56.427,40.856,6.9961,5.9261,0.44429,59.005,52.349,13.421,68.076,27.828,30.194,-9.1537,48.33,18.88
50.306,-0.51718,57.078,42.029,7.717,6.953,0.96852,60.137,52.616,14.081,68.158,29.105,30.41,-8.2445,48.554,20.015
50.306,-0.51718,57.078,42.029,7.717,6.953,0.96852,60.137,52.616,14.081,68.158,29.105,30.41,-8.2445,48.554,20.015
50.555,-0.11063,57.402,42.611,8.0771,7.465,1.2303,60.699,52.745,14.407,68.195,29.739,30.515,-7.7924,48.664,20.579
50.555,-0.11063,57.402,42.611,8.0771,7.465,1.2303,60.699,52.745,14.407,68.195,29.739,30.515,-7.7924,48.664,20.579
50.555,-0.11063,57.402,42.611,8.0771,7.465,1.2303,60.699,52.745,14.407,68.195,29.739,30.515,-7.7924,48.664,20.579
50.555,-0.11063,57.402,42.611,8.0771,7.465,1.2303,60.699,52.745,14.407,68.195,29.739,30.515,-7.7924,48.664,20.579
50.802,0.29439,57.723,43.191,8.4369,7.976,1.4919,61.258,52.872,14.731,68.231,30.371,30.619,-7.342,48.772,21.141
50.802,0.29439,57.723,43.191,8.4369,7.976,1.4919,61.258,52.872,14.731,68.231,30.371,30.619,-7.342,48.772,21.141
50.802,0.29439,57.723,43.191,8.4369,7.976,1.4919,61.258,52.872,14.731,68.231,30.371,30.619,-7.342,48.772,21.141
51.291,1.0998,58.362,44.34,9.1558,8.9948,2.0142,62.368,53.118,15.369,68.297,31.627,30.823,-6.4467,48.985,22.255
51.291,1.0998,58.362,44.34,9.1558,8.9948,2.0142,62.368,53.118,15.369,68.297,31.627,30.823,-6.4467,48.985,22.255
51.291,1.0998,58.362,44.34,9.1558,8.9948,2.0142,62.368,53.118,15.369,68.297,31.627,30.823,-6.4467,48.985,22.255
51.532,1.5,58.679,44.91,9.5148,9.5027,2.275,62.919,53.237,15.683,68.327,32.251,30.922,-6.0019,49.089,22.809
51.532,1.5,58.679,44.91,9.5148,9.5027,2.275,62.919,53.237,15.683,68.327,32.251,30.922,-6.0019,49.089,22.809
52.009,2.2957,59.308,46.041,10.232,10.515,2.7956,64.013,53.468,16.304,68.381,33.491,31.116,-5.1179,49.292,23.907
52.009,2.2957,59.308,46.041,10.232,10.515,2.7956,64.013,53.468,16.304,68.381,33.491,31.116,-5.1179,49.292,23.907
52.009,2.2957,59.308,46.041,10.232,10.515,2.7956,64.013,53.468,16.304,68.381,33.491,31.116,-5.1179,49.292,23.907
52.244,2.691,59.62,46.602,10.59,11.019,3.0554,64.556,53.579,16.61,68.405,34.106,31.21,-4.6788,49.391,24.451
52.244,2.691,59.62,46.602,10.59,11.019,3.0554,64.556,53.579,16.61,68.405,34.106,31.21,-4.6788,49.391,24.451
52.244,2.691,59.62,46.602,10.59,11.019,3.0554,64.556,53.579,16.61,68.405,34.106,31.21,-4.6788,49.391,24.451
52.478,3.0847,59.931,47.16,10.947,11.522,3.3149,65.096,53.688,16.913,68.427,34.72,31.303,-4.2418,49.488,24.993
52.709,3.4765,60.24,47.714,11.304,12.024,3.574,65.633,53.794,17.213,68.447,35.33,31.394,-3.8068,49.584,25.532
52.938,3.8667,60.547,48.265,11.661,12.525,3.8327,66.167,53.898,17.51,68.465,35.937,31.484,-3.3739,49.679,26.068
52.938,3.8667,60.547,48.265,11.661,12.525,3.8327,66.167,53.898,17.51,68.465,35.937,31.484,-3.3739,49.679,26.068
52.938,3.8667,60.547,48.265,11.661,12.525,3.8327,66.167,53.898,17.51,68.465,35.937,31.484,-3.3739,49.679,26.068
53.165,4.255,60.852,48.812,12.017,13.024,4.091,66.699,53.998,17.803,68.481,36.541,31.572,-2.9431,49.771,26.601
53.165,4.255,60.852,48.812,12.017,13.024,4.091,66.699,53.998,17.803,68.481,36.541,31.572,-2.9431,49.771,26.601
53.39,4.6415,61.155,49.357,12.373,13.522,4.3489,67.227,54.096,18.094,68.494,37.143,31.658,-2.5145,49.862,27.131
53.39,4.6415,61.155,49.357,12.373,13.522,4.3489,67.227,54.096,18.094,68.494,37.143,31.658,-2.5145,49.862,27.131
53.613,5.0262,61.457,49.898,12.728,14.019,4.6063,67.752,54.192,18.382,68.506,37.741,31.743,-2.0881,49.952,27.658
53.613,5.0262,61.457,49.898,12.728,14.019,4.6063,67.752,54.192,18.382,68.506,37.741,31.743,-2.0881,49.952,27.658
53.834,5.4091,61.757,50.435,13.083,14.514,4.8633,68.274,54.284,18.666,68.516,38.336,31.826,-1.664,50.04,28.182
53.834,5.4091,61.757,50.435,13.083,14.514,4.8633,68.274,54.284,18.666,68.516,38.336,31.826,-1.664,50.04,28.182
54.052,5.79,62.055,50.969,13.437,15.008,5.1199,68.794,54.374,18.948,68.524,38.929,31.907,-1.2421,50.126,28.702
54.052,5.79,62.055,50.969,13.437,15.008,5.1199,68.794,54.374,18.948,68.524,38.929,31.907,-1.2421,50.126,28.702
54.268,6.1691,62.351,51.5,13.791,15.501,5.3759,69.31,54.461,19.226,68.53,39.518,31.987,-0.82256,50.21,29.22
54.268,6.1691,62.351,51.5,13.791,15.501,5.3759,69.31,54.461,19.226,68.53,39.518,31.987,-0.82256,50.21,29.22
54.268,6.1691,62.351,51.5,13.791,15.501,5.3759,69.31,54.461,19.226,68.53,39.518,31.987,-0.82256,50.21,29.22
54.482,6.5462,62.645,52.027,14.144,15.992,5.6315,69.823,54.546,19.501,68.533,40.104,32.064,-0.40536,50.293,29.735
54.482,6.5462,62.645,52.027,14.144,15.992,5.6315,69.823,54.546,19.501,68.533,40.104,32.064,-0.40536,50.293,29.735
54.482,6.5462,62.645,52.027,14.144,15.992,5.6315,69.823,54.546,19.501,68.533,40.104,32.064,-0.40536,50.293,29.735
54.903,7.2945,63.228,53.07,14.848,16.97,6.1411,70.839,54.706,20.042,68.534,41.266,32.215,0.42186,50.454,30.754
54.903,7.2945,63.228,53.07,14.848,16.97,6.1411,70.839,54.706,20.042,68.534,41.266,32.215,0.42186,50.454,30.754
55.11,7.6657,63.516,53.586,15.199,17.456,6.3951,71.343,54.782,20.307,68.532,41.843,32.288,0.83181,50.532,31.259
55.314,8.0349,63.803,54.099,15.549,17.941,6.6485,71.843,54.856,20.57,68.527,42.416,32.359,1.2393,50.608,31.76
55.314,8.0349,63.803,54.099,15.549,17.941,6.6485,71.843,54.856,20.57,68.527,42.416,32.359,1.2393,50.608,31.76
55.517,8.402,64.088,54.608,15.899,18.424,6.9014,72.34,54.926,20.829,68.521,42.985,32.428,1.6442,50.682,32.258
55.517,8.402,64.088,54.608,15.899,18.424,6.9014,72.34,54.926,20.829,68.521,42.985,32.428,1.6442,50.682,32.258
55.517,8.402,64.088,54.608,15.899,18.424,6.9014,72.34,54.926,20.829,68.521,42.985,32.428,1.6442,50.682,32.258
55.717,8.7671,64.37,55.114,16.248,18.906,7.1536,72.834,54.994,21.084,68.512,43.552,32.495,2.0466,50.755,32.753
55.717,8.7671,64.37,55.114,16.248,18.906,7.1536,72.834,54.994,21.084,68.512,43.552,32.495,2.0466,50.755,32.753
55.914,9.13,64.651,55.615,16.597,19.386,7.4053,73.325,55.058,21.337,68.501,44.115,32.561,2.4463,50.825,33.245
56.109,9.4909,64.929,56.113,16.944,19.865,7.6563,73.812,55.12,21.586,68.488,44.674,32.625,2.8435,50.895,33.733
56.109,9.4909,64.929,56.113,16.944,19.865,7.6563,73.812,55.12,21.586,68.488,44.674,32.625,2.8435,50.895,33.733
56.302,9.8496,65.206,56.607,17.291,20.341,7.9067,74.296,55.179,21.831,68.474,45.23,32.687,3.238,50.962,34.217
56.302,9.8496,65.206,56.607,17.291,20.341,7.9067,74.296,55.179,21.831,68.474,45.23,32.687,3.238,50.962,34.217
56.302,9.8496,65.206,56.607,17.291,20.341,7.9067,74.296,55.179,21.831,68.474,45.23,32.687,3.238,50.962,34.217
56.492,10.206,65.48,57.098,17.637,20.816,8.1565,74.776,55.235,22.074,68.457,45.783,32.747,3.6298,51.028,34.699
56.492,10.206,65.48,57.098,17.637,20.816,8.1565,74.776,55.235,22.074,68.457,45.783,32.747,3.6298,51.028,34.699
56.492,10.206,65.48,57.098,17.637,20.816,8.1565,74.776,55.235,22.074,68.457,45.783,32.747,3.6298,51.028,34.699
56.68,10.561,65.752,57.584,17.982,21.29,8.4056,75.253,55.289,22.312,68.437,46.332,32.806,4.0189,51.091,35.176
56.866,10.913,66.022,58.067,18.326,21.761,8.654,75.727,55.339,22.548,68.416,46.877,32.863,4.4052,51.153,35.651
57.048,11.263,66.29,58.545,18.67,22.231,8.9017,76.197,55.386,22.78,68.393,47.419,32.918,4.7887,51.214,36.122
57.048,11.263,66.29,58.545,18.67,22.231,8.9017,76.197,55.386,22.78,68.393,47.419,32.918,4.7887,51.214,36.122
57.048,11.263,66.29,58.545,18.67,22.231,8.9017,76.197,55.386,22.78,68.393,47.419,32.918,4.7887,51.214,36.122
57.229,11.61,66.556,59.02,19.013,22.699,9.1488,76.664,55.431,23.009,68.368,47.958,32.971,5.1694,51.272,36.589
57.229,11.61,66.556,59.02,19.013,22.699,9.1488,76.664,55.431,23.009,68.368,47.958,32.971,5.1694,51.272,36.589
57.229,11.61,66.556,59.02,19.013,22.699,9.1488,76.664,55.431,23.009,68.368,47.958,32.971,5.1694,51.272,36.589
57.406,11.956,66.82,59.491,19.354,23.165,9.3951,77.128,55.473,23.234,68.34,48.492,33.022,5.5473,51.329,37.053
57.406,11.956,66.82,59.491,19.354,23.165,9.3951,77.128,55.473,23.234,68.34,48.492,33.022,5.5473,51.329,37.053
57.582,12.299,67.082,59.958,19.695,23.629,9.6406,77.587,55.511,23.456,68.311,49.023,33.072,5.9223,51.384,37.513
57.754,12.64,67.341,60.421,20.035,24.092,9.8854,78.044,55.547,23.674,68.279,49.551,33.12,6.2944,51.437,37.969
57.924,12.979,67.598,60.88,20.374,24.552,10.129,78.497,55.58,23.889,68.246,50.074,33.166,6.6635,51.488,38.422
57.924,12.979,67.598,60.88,20.374,24.552,10.129,78.497,55.58,23.889,68.246,50.074,33.166,6.6635,51.488,38.422
57.924,12.979,67.598,60.88,20.374,24.552,10.129,78.497,55.58,23.889,68.246,50.074,33.166,6.6635,51.488,38.422
