13043,54.3,19.813,0,0.042054,0,13503,54.174,0,0,0,0,0.0037084,0
13044,54.3,19.814,0,0.041987,0,13503,54.174,0,0,0,0,0.0037149,0
13044,54.3,19.814,0,0.041987,0,13503,54.174,0,0,0,0,0.0037149,0
13044,54.3,19.814,0,0.041987,0,13503,54.174,0,0,0,0,0.0037149,0
13044,54.3,19.814,0,0.041987,0,13503,54.174,0,0,0,0,0.0037149,0
13044,54.3,19.814,0,0.041987,0,13503,54.174,0,0,0,0,0.0037149,0
13044,54.3,19.814,0,0.041987,0,13503,54.174,0,0,0,0,0.0037149,0
13044,54.3,19.814,0,0.041987,0,13503,54.174,0,0,0,0,0.0037149,0
13044,54.3,19.814,0,0.041987,0,13503,54.174,0,0,0,0,0.0037149,0
13044,54.3,19.814,0,0.041987,0,13503,54.174,0,0,0,0,0.0037149,0
13046,54.3,19.818,0,0.04185,0,13503,54.174,0,0,0,0,0.0037277,0
13046,54.3,19.819,0,0.041782,0,13503,54.174,0,0,0,0,0.0037342,0
13046,54.3,19.819,0,0.041782,0,13503,54.174,0,0,0,0,0.0037342,0
13046,54.3,19.819,0,0.041782,0,13503,54.174,0,0,0,0,0.0037342,0
13046,54.3,19.819,0,0.041782,0,13503,54.174,0,0,0,0,0.0037342,0
13046,54.3,19.819,0,0.041782,0,13503,54.174,0,0,0,0,0.0037342,0
13046,54.3,19.819,0,0.041782,0,13503,54.174,0,0,0,0,0.0037342,0
13046,54.3,19.819,0,0.041782,0,13503,54.174,0,0,0,0,0.0037342,0
13046,54.3,19.819,0,0.041782,0,13503,54.174,0,0,0,0,0.0037342,0
13046,54.3,19.819,0,0.041782,0,13503,54.174,0,0,0,0,0.0037342,0
13046,54.3,19.819,0,0.041782,0,13503,54.174,0,0,0,0,0.0037342,0
13046,54.3,19.819,0,0.041782,0,13503,54.174,0,0,0,0,0.0037342,0
13046,54.3,19.819,0,0.041782,0,13503,54.174,0,0,0,0,0.0037342,0
13046,54.3,19.819,0,0.041782,0,13503,54.174,0,0,0,0,0.0037342,0
13048,54.3,19.824,0,0.041607,0,13503,54.174,0,0,0,0,0.0037505,0
13048,54.3,19.824,0,0.041607,0,13503,54.174,0,0,0,0,0.0037505,0
13048,54.3,19.824,0,0.041607,0,13503,54.174,0,0,0,0,0.0037505,0
13048,54.3,19.824,0,0.041607,0,13503,54.174,0,0,0,0,0.0037505,0
13048,54.3,19.824,0,0.041607,0,13503,54.174,0,0,0,0,0.0037505,0
13048,54.3,19.824,0,0.041607,0,13503,54.174,0,0,0,0,0.0037505,0
13048,54.3,19.824,0,0.041607,0,13503,54.174,0,0,0,0,0.0037505,0
13048,54.3,19.824,0,0.041607,0,13503,54.174,0,0,0,0,0.0037505,0
13048,54.3,19.824,0,0.041607,0,13503,54.174,0,0,0,0,0.0037505,0
13051,54.3,19.829,0,0.041394,0,13503,54.174,0,0,0,0,0.0037702,0
13051,54.3,19.829,0,0.041394,0,13503,54.174,0,0,0,0,0.0037702,0
13051,54.3,19.829,0,0.041394,0,13503,54.174,0,0,0,0,0.0037702,0
13052,54.3,19.832,0,0.041249,0,13503,54.174,0,0,0,0,0.0037835,0
13052,54.3,19.832,0,0.041249,0,13503,54.174,0,0,0,0,0.0037835,0
13052,54.3,19.832,0,0.041249,0,13503,54.174,0,0,0,0,0.0037835,0
13052,54.3,19.832,0,0.041249,0,13503,54.174,0,0,0,0,0.0037835,0
13052,54.3,19.832,0,0.041249,0,13503,54.174,0,0,0,0,0.0037835,0
13052,54.3,19.832,0,0.041249,0,13503,54.174,0,0,0,0,0.0037835,0
13052,54.3,19.832,0,0.041249,0,13503,54.174,0,0,0,0,0.0037835,0
13052,54.3,19.832,0,0.041249,0,13503,54.174,0,0,0,0,0.0037835,0
13052,54.3,19.832,0,0.041249,0,13503,54.174,0,0,0,0,0.0037835,0
13052,54.3,19.832,0,0.041249,0,13503,54.174,0,0,0,0,0.0037835,0
13052,54.3,19.832,0,0.041249,0,13503,54.174,0,0,0,0,0.0037835,0
13052,54.3,19.832,0,0.041249,0,13503,54.174,0,0,0,0,0.0037835,0
13052,54.3,19.832,0,0.041249,0,13503,54.174,0,0,0,0,0.0037835,0
13052,54.3,19.832,0,0.041249,0,13503,54.174,0,0,0,0,0.0037835,0
13052,54.3,19.832,0,0.041249,0,13503,54.174,0,0,0,0,0.0037835,0
13052,54.3,19.832,0,0.041249,0,13503,54.174,0,0,0,0,0.0037835,0
13052,54.3,19.832,0,0.041249,0,13503,54.174,0,0,0,0,0.0037835,0
13052,54.3,19.832,0,0.041249,0,13503,54.174,0,0,0,0,0.0037835,0
13052,54.3,19.832,0,0.041249,0,13503,54.174,0,0,0,0,0.0037835,0
13052,54.3,19.832,0,0.041249,0,13503,54.174,0,0,0,0,0.0037835,0
13054,54.3,19.834,0,0.041139,0,13503,54.174,0,0,0,0,0.0037935,0
13055,54.3,19.838,0,0.04099,0,13503,54.174,0,0,0,0,0.0038069,0
13056,54.3,19.839,0,0.040916,0,13503,54.174,0,0,0,0,0.0038137,0
13057,54.3,19.842,0,0.040802,0,13503,54.174,0,0,0,0,0.0038239,0
13057,54.3,19.842,0,0.040802,0,13503,54.174,0,0,0,0,0.0038239,0
13057,54.3,19.842,0,0.040802,0,13503,54.174,0,0,0,0,0.0038239,0
13057,54.3,19.842,0,0.040802,0,13503,54.174,0,0,0,0,0.0038239,0
13057,54.3,19.842,0,0.040802,0,13503,54.174,0,0,0,0,0.0038239,0
13057,54.3,19.842,0,0.040802,0,13503,54.174,0,0,0,0,0.0038239,0
13057,54.3,19.842,0,0.040802,0,13503,54.174,0,0,0,0,0.0038239,0
13057,54.3,19.842,0,0.040802,0,13503,54.174,0,0,0,0,0.0038239,0
13057,54.3,19.842,0,0.040802,0,13503,54.174,0,0,0,0,0.0038239,0
13057,54.3,19.842,0,0.040802,0,13503,54.174,0,0,0,0,0.0038239,0
13057,54.3,19.842,0,0.040802,0,13503,54.174,0,0,0,0,0.0038239,0
13057,54.3,19.842,0,0.040802,0,13503,54.174,0,0,0,0,0.0038239,0
13057,54.3,19.842,0,0.040802,0,13503,54.174,0,0,0,0,0.0038239,0
13057,54.3,19.842,0,0.040802,0,13503,54.174,0,0,0,0,0.0038239,0
13057,54.3,19.842,0,0.040802,0,13503,54.174,0,0,0,0,0.0038239,0
13057,54.3,19.842,0,0.040802,0,13503,54.174,0,0,0,0,0.0038239,0
13057,54.3,19.842,0,0.040802,0,13503,54.174,0,0,0,0,0.0038239,0
13057,54.3,19.842,0,0.040802,0,13503,54.174,0,0,0,0,0.0038239,0
13057,54.3,19.842,0,0.040802,0,13503,54.174,0,0,0,0,0.0038239,0
13058,54.3,19.843,0,0.040726,0,13503,54.174,0,0,0,0,0.0038307,0
13058,54.3,19.843,0,0.040726,0,13503,54.174,0,0,0,0,0.0038307,0
13058,54.3,19.844,0,0.040688,0,13503,54.174,0,0,0,0,0.0038341,0
13058,54.3,19.844,0,0.040688,0,13503,54.174,0,0,0,0,0.0038341,0
13058,54.3,19.844,0,0.040688,0,13503,54.174,0,0,0,0,0.0038341,0
13060,54.3,19.847,0,0.040534,0,13503,54.174,0,0,0,0,0.0038479,0
13060,54.3,19.847,0,0.040534,0,13503,54.174,0,0,0,0,0.0038479,0
13060,54.3,19.847,0,0.040534,0,13503,54.174,0,0,0,0,0.0038479,0
13062,54.3,19.851,0,0.040378,0,13503,54.174,0,0,0,0,0.0038617,0
13062,54.3,19.851,0,0.040378,0,13503,54.174,0,0,0,0,0.0038617,0
13062,54.3,19.851,0,0.040378,0,13503,54.174,0,0,0,0,0.0038617,0
13062,54.3,19.851,0,0.040378,0,13503,54.174,0,0,0,0,0.0038617,0
13063,54.3,19.853,0,0.040259,0,13503,54.174,0,0,0,0,0.0038721,0
13063,54.3,19.853,0,0.040259,0,13503,54.174,0,0,0,0,0.0038721,0
13063,54.3,19.853,0,0.040259,0,13503,54.174,0,0,0,0,0.0038721,0
13063,54.3,19.853,0,0.040259,0,13503,54.174,0,0,0,0,0.0038721,0
13063,54.3,19.853,0,0.040259,0,13503,54.174,0,0,0,0,0.0038721,0
13063,54.3,19.853,0,0.040259,0,13503,54.174,0,0,0,0,0.0038721,0
13063,54.3,19.853,0,0.040259,0,13503,54.174,0,0,0,0,0.0038721,0
13063,54.3,19.853,0,0.040259,0,13503,54.174,0,0,0,0,0.0038721,0
13064,54.3,19.855,0,0.04018,0,13503,54.174,0,0,0,0,0.0038791,0
13064,54.3,19.855,0,0.04018,0,13503,54.174,0,0,0,0,0.0038791,0
13064,54.3,19.855,0,0.04018,0,13503,54.174,0,0,0,0,0.0038791,0
13064,54.3,19.855,0,0.04014,0,13503,54.174,0,0,0,0,0.0038826,0
13064,54.3,19.855,0,0.04014,0,13503,54.174,0,0,0,0,0.0038826,0
13064,54.3,19.855,0,0.04014,0,13503,54.174,0,0,0,0,0.0038826,0
13064,54.3,19.855,0,0.04014,0,13503,54.174,0,0,0,0,0.0038826,0
13065,54.3,19.859,0,0.039978,0,13503,54.174,0,0,0,0,0.0038967,0
13066,54.3,19.859,0,0.039938,0,13503,54.174,0,0,0,0,0.0039003,0
13066,54.3,19.859,0,0.039938,0,13503,54.174,0,0,0,0,0.0039003,0
13066,54.3,19.859,0,0.039938,0,13503,54.174,0,0,0,0,0.0039003,0
13066,54.3,19.859,0,0.039938,0,13503,54.174,0,0,0,0,0.0039003,0
13066,54.3,19.859,0,0.039938,0,13503,54.174,0,0,0,0,0.0039003,0
13066,54.3,19.859,0,0.039938,0,13503,54.174,0,0,0,0,0.0039003,0
13066,54.3,19.859,0,0.039938,0,13503,54.174,0,0,0,0,0.0039003,0
13066,54.3,19.859,0,0.039938,0,13503,54.174,0,0,0,0,0.0039003,0
13066,54.3,19.859,0,0.039938,0,13503,54.174,0,0,0,0,0.0039003,0
13066,54.3,19.859,0,0.039938,0,13503,54.174,0,0,0,0,0.0039003,0
13066,54.3,19.859,0,0.039938,0,13503,54.174,0,0,0,0,0.0039003,0
13066,54.3,19.859,0,0.039938,0,13503,54.174,0,0,0,0,0.0039003,0
13066,54.3,19.859,0,0.039938,0,13503,54.174,0,0,0,0,0.0039003,0
13066,54.3,19.859,0,0.039938,0,13503,54.174,0,0,0,0,0.0039003,0
13066,54.3,19.859,0,0.039938,0,13503,54.174,0,0,0,0,0.0039003,0
13066,54.3,19.859,0,0.039938,0,13503,54.174,0,0,0,0,0.0039003,0
13066,54.3,19.859,0,0.039938,0,13503,54.174,0,0,0,0,0.0039003,0
13066,54.3,19.859,0,0.039938,0,13503,54.174,0,0,0,0,0.0039003,0
13067,54.3,19.863,0,0.039774,0,13503,54.174,0,0,0,0,0.0039145,0
13067,54.3,19.863,0,0.039774,0,13503,54.174,0,0,0,0,0.0039145,0
13067,54.3,19.863,0,0.039774,0,13503,54.174,0,0,0,0,0.0039145,0
13067,54.3,19.863,0,0.039774,0,13503,54.174,0,0,0,0,0.0039145,0
13071,54.3,19.869,0,0.039441,0,13503,54.174,0,0,0,0,0.0039433,0
13071,54.3,19.869,0,0.039441,0,13503,54.174,0,0,0,0,0.0039433,0
13071,54.3,19.869,0,0.039441,0,13503,54.174,0,0,0,0,0.0039433,0
13071,54.3,19.869,0,0.039441,0,13503,54.174,0,0,0,0,0.0039433,0
13071,54.3,19.869,0,0.039441,0,13503,54.174,0,0,0,0,0.0039433,0
13071,54.3,19.869,0,0.039441,0,13503,54.174,0,0,0,0,0.0039433,0
13071,54.3,19.869,0,0.039441,0,13503,54.174,0,0,0,0,0.0039433,0
13071,54.3,19.869,0,0.039441,0,13503,54.174,0,0,0,0,0.0039433,0
13071,54.3,19.869,0,0.039441,0,13503,54.174,0,0,0,0,0.0039433,0
13071,54.3,19.869,0,0.039441,0,13503,54.174,0,0,0,0,0.0039433,0
13071,54.3,19.871,0,0.039357,0,13503,54.174,0,0,0,0,0.0039506,0
13071,54.3,19.871,0,0.039357,0,13503,54.174,0,0,0,0,0.0039506,0
13071,54.3,19.871,0,0.039357,0,13503,54.174,0,0,0,0,0.0039506,0
13071,54.3,19.871,0,0.039357,0,13503,54.174,0,0,0,0,0.0039506,0
13071,54.3,19.871,0,0.039357,0,13503,54.174,0,0,0,0,0.0039506,0
13071,54.3,19.871,0,0.039357,0,13503,54.174,0,0,0,0,0.0039506,0
13071,54.3,19.871,0,0.039357,0,13503,54.174,0,0,0,0,0.0039506,0
13071,54.3,19.871,0,0.039357,0,13503,54.174,0,0,0,0,0.0039506,0
13072,54.3,19.871,0,0.039315,0,13503,54.174,0,0,0,0,0.0039542,0
13072,54.3,19.871,0,0.039315,0,13503,54.174,0,0,0,0,0.0039542,0
13072,54.3,19.871,0,0.039315,0,13503,54.174,0,0,0,0,0.0039542,0
13072,54.3,19.871,0,0.039315,0,13503,54.174,0,0,0,0,0.0039542,0
13075,54.3,19.878,0,0.038972,0,13503,54.174,0,0,0,0,0.0039836,0
13075,54.3,19.878,0,0.038972,0,13503,54.174,0,0,0,0,0.0039836,0
13075,54.3,19.878,0,0.038972,0,13503,54.174,0,0,0,0,0.0039836,0
13075,54.3,19.878,0,0.038972,0,13503,54.174,0,0,0,0,0.0039836,0
13075,54.3,19.878,0,0.038972,0,13503,54.174,0,0,0,0,0.0039836,0
13075,54.3,19.878,0,0.038972,0,13503,54.174,0,0,0,0,0.0039836,0
13075,54.3,19.878,0,0.038972,0,13503,54.174,0,0,0,0,0.0039836,0
13075,54.3,19.878,0,0.038972,0,13503,54.174,0,0,0,0,0.0039836,0
13075,54.3,19.878,0,0.038972,0,13503,54.174,0,0,0,0,0.0039836,0
13075,54.3,19.878,0,0.038972,0,13503,54.174,0,0,0,0,0.0039836,0
13075,54.3,19.878,0,0.038972,0,13503,54.174,0,0,0,0,0.0039836,0
13075,54.3,19.878,0,0.038972,0,13503,54.174,0,0,0,0,0.0039836,0
13075,54.3,19.878,0,0.038972,0,13503,54.174,0,0,0,0,0.0039836,0
13075,54.3,19.878,0,0.038972,0,13503,54.174,0,0,0,0,0.0039836,0
13075,54.3,19.878,0,0.038972,0,13503,54.174,0,0,0,0,0.0039836,0
13075,54.3,19.878,0,0.038972,0,13503,54.174,0,0,0,0,0.0039836,0
13075,54.3,19.878,0,0.038972,0,13503,54.174,0,0,0,0,0.0039836,0
13075,54.3,19.878,0,0.038972,0,13503,54.174,0,0,0,0,0.0039836,0
13076,54.3,19.88,0,0.038842,0,13503,54.174,0,0,0,0,0.0039947,0
13077,54.3,19.882,0,0.03871,0,13503,54.174,0,0,0,0,0.0040059,0
13078,54.3,19.884,0,0.038621,0,13503,54.174,0,0,0,0,0.0040134,0
13078,54.3,19.884,0,0.038621,0,13503,54.174,0,0,0,0,0.0040134,0
13079,54.3,19.886,0,0.038488,0,13503,54.174,0,0,0,0,0.0040247,0
13079,54.3,19.886,0,0.038488,0,13503,54.174,0,0,0,0,0.0040247,0
13079,54.3,19.886,0,0.038488,0,13503,54.174,0,0,0,0,0.0040247,0
13079,54.3,19.886,0,0.038488,0,13503,54.174,0,0,0,0,0.0040247,0
13079,54.3,19.886,0,0.038488,0,13503,54.174,0,0,0,0,0.0040247,0
13079,54.3,19.886,0,0.038488,0,13503,54.174,0,0,0,0,0.0040247,0
13079,54.3,19.886,0,0.038488,0,13503,54.174,0,0,0,0,0.0040247,0
13079,54.3,19.886,0,0.038488,0,13503,54.174,0,0,0,0,0.0040247,0
13079,54.3,19.886,0,0.038488,0,13503,54.174,0,0,0,0,0.0040247,0
13079,54.3,19.886,0,0.038488,0,13503,54.174,0,0,0,0,0.0040247,0
13079,54.3,19.886,0,0.038488,0,13503,54.174,0,0,0,0,0.0040247,0
13079,54.3,19.886,0,0.038488,0,13503,54.174,0,0,0,0,0.0040247,0
13079,54.3,19.886,0,0.038488,0,13503,54.174,0,0,0,0,0.0040247,0
13079,54.3,19.886,0,0.038488,0,13503,54.174,0,0,0,0,0.0040247,0
13079,54.3,19.886,0,0.038488,0,13503,54.174,0,0,0,0,0.0040247,0
13079,54.3,19.886,0,0.038488,0,13503,54.174,0,0,0,0,0.0040247,0
13080,54.3,19.888,0,0.038398,0,13503,54.174,0,0,0,0,0.0040323,0
13080,54.3,19.888,0,0.038398,0,13503,54.174,0,0,0,0,0.0040323,0
13080,54.3,19.888,0,0.038398,0,13503,54.174,0,0,0,0,0.0040323,0
13082,54.3,19.891,0,0.038219,0,13503,54.174,0,0,0,0,0.0040475,0
13082,54.3,19.892,0,0.038174,0,13503,54.174,0,0,0,0,0.0040513,0
13082,54.3,19.892,0,0.038174,0,13503,54.174,0,0,0,0,0.0040513,0
13082,54.3,19.892,0,0.038174,0,13503,54.174,0,0,0,0,0.0040513,0
13082,54.3,19.892,0,0.038174,0,13503,54.174,0,0,0,0,0.0040513,0
13082,54.3,19.892,0,0.038174,0,13503,54.174,0,0,0,0,0.0040513,0
13082,54.3,19.892,0,0.038174,0,13503,54.174,0,0,0,0,0.0040513,0
13082,54.3,19.892,0,0.038174,0,13503,54.174,0,0,0,0,0.0040513,0
13084,54.3,19.895,0,0.037944,0,13503,54.174,0,0,0,0,0.0040706,0
13084,54.3,19.895,0,0.037944,0,13503,54.174,0,0,0,0,0.0040706,0
13084,54.3,19.895,0,0.037944,0,13503,54.174,0,0,0,0,0.0040706,0
13084,54.3,19.895,0,0.037944,0,13503,54.174,0,0,0,0,0.0040706,0
13084,54.3,19.895,0,0.037944,0,13503,54.174,0,0,0,0,0.0040706,0
13084,54.3,19.895,0,0.037944,0,13503,54.174,0,0,0,0,0.0040706,0
13084,54.3,19.895,0,0.037944,0,13503,54.174,0,0,0,0,0.0040706,0
13085,54.3,19.896,0,0.037898,0,13503,54.174,0,0,0,0,0.0040744,0
13085,54.3,19.896,0,0.037898,0,13503,54.174,0,0,0,0,0.0040744,0
13085,54.3,19.896,0,0.037898,0,13503,54.174,0,0,0,0,0.0040744,0
13085,54.3,19.896,0,0.037898,0,13503,54.174,0,0,0,0,0.0040744,0
13085,54.3,19.898,0,0.037805,0,13503,54.174,0,0,0,0,0.0040822,0
13085,54.3,19.898,0,0.037805,0,13503,54.174,0,0,0,0,0.0040822,0
13085,54.3,19.898,0,0.037805,0,13503,54.174,0,0,0,0,0.0040822,0
13087,54.3,19.901,0,0.037618,0,13503,54.174,0,0,0,0,0.0040978,0
13087,54.3,19.901,0,0.037618,0,13503,54.174,0,0,0,0,0.0040978,0
13087,54.3,19.901,0,0.037618,0,13503,54.174,0,0,0,0,0.0040978,0
13087,54.3,19.901,0,0.037618,0,13503,54.174,0,0,0,0,0.0040978,0
13087,54.3,19.901,0,0.037572,0,13503,54.174,0,0,0,0,0.0041017,0
13087,54.3,19.901,0,0.037572,0,13503,54.174,0,0,0,0,0.0041017,0
13087,54.3,19.901,0,0.037572,0,13503,54.174,0,0,0,0,0.0041017,0
13087,54.3,19.901,0,0.037572,0,13503,54.174,0,0,0,0,0.0041017,0
13087,54.3,19.901,0,0.037572,0,13503,54.174,0,0,0,0,0.0041017,0
13087,54.3,19.901,0,0.037572,0,13503,54.174,0,0,0,0,0.0041017,0
13087,54.3,19.901,0,0.037572,0,13503,54.174,0,0,0,0,0.0041017,0
13088,54.3,19.903,0,0.037478,0,13503,54.174,0,0,0,0,0.0041096,0
13089,54.3,19.904,0,0.03743,0,13503,54.174,0,0,0,0,0.0041136,0
13089,54.3,19.905,0,0.037336,0,13503,54.174,0,0,0,0,0.0041215,0
13090,54.3,19.906,0,0.037288,0,13503,54.174,0,0,0,0,0.0041255,0
13090,54.3,19.906,0,0.037288,0,13503,54.174,0,0,0,0,0.0041255,0
13090,54.3,19.906,0,0.037288,0,13503,54.174,0,0,0,0,0.0041255,0
13091,54.3,19.908,0,0.037145,0,13503,54.174,0,0,0,0,0.0041374,0
13091,54.3,19.908,0,0.037145,0,13503,54.174,0,0,0,0,0.0041374,0
13091,54.3,19.908,0,0.037145,0,13503,54.174,0,0,0,0,0.0041374,0
13091,54.3,19.908,0,0.037145,0,13503,54.174,0,0,0,0,0.0041374,0
13091,54.3,19.908,0,0.037145,0,13503,54.174,0,0,0,0,0.0041374,0
13091,54.3,19.908,0,0.037145,0,13503,54.174,0,0,0,0,0.0041374,0
13091,54.3,19.908,0,0.037145,0,13503,54.174,0,0,0,0,0.0041374,0
13091,54.3,19.908,0,0.037145,0,13503,54.174,0,0,0,0,0.0041374,0
13091,54.3,19.908,0,0.037145,0,13503,54.174,0,0,0,0,0.0041374,0
13091,54.3,19.908,0,0.037145,0,13503,54.174,0,0,0,0,0.0041374,0
13091,54.3,19.908,0,0.037145,0,13503,54.174,0,0,0,0,0.0041374,0
13091,54.3,19.908,0,0.037145,0,13503,54.174,0,0,0,0,0.0041374,0
13091,54.3,19.908,0,0.037145,0,13503,54.174,0,0,0,0,0.0041374,0
13091,54.3,19.908,0,0.037145,0,13503,54.174,0,0,0,0,0.0041374,0
13091,54.3,19.908,0,0.037145,0,13503,54.174,0,0,0,0,0.0041374,0
13091,54.3,19.908,0,0.037145,0,13503,54.174,0,0,0,0,0.0041374,0
13091,54.3,19.908,0,0.037145,0,13503,54.174,0,0,0,0,0.0041374,0
13091,54.3,19.908,0,0.037145,0,13503,54.174,0,0,0,0,0.0041374,0
13093,54.3,19.912,0,0.036904,0,13503,54.174,0,0,0,0,0.0041575,0
13093,54.3,19.912,0,0.036904,0,13503,54.174,0,0,0,0,0.0041575,0
13093,54.3,19.912,0,0.036904,0,13503,54.174,0,0,0,0,0.0041575,0
13093,54.3,19.912,0,0.036904,0,13503,54.174,0,0,0,0,0.0041575,0
13095,54.3,19.916,0,0.036611,0,13503,54.174,0,0,0,0,0.0041819,0
13095,54.3,19.916,0,0.036611,0,13503,54.174,0,0,0,0,0.0041819,0
13095,54.3,19.916,0,0.036611,0,13503,54.174,0,0,0,0,0.0041819,0
13095,54.3,19.916,0,0.036611,0,13503,54.174,0,0,0,0,0.0041819,0
13095,54.3,19.916,0,0.036611,0,13503,54.174,0,0,0,0,0.0041819,0
13095,54.3,19.916,0,0.036611,0,13503,54.174,0,0,0,0,0.0041819,0
13095,54.3,19.916,0,0.036611,0,13503,54.174,0,0,0,0,0.0041819,0
13095,54.3,19.916,0,0.036611,0,13503,54.174,0,0,0,0,0.0041819,0
13095,54.3,19.916,0,0.036611,0,13503,54.174,0,0,0,0,0.0041819,0
13095,54.3,19.916,0,0.036611,0,13503,54.174,0,0,0,0,0.0041819,0
13095,54.3,19.916,0,0.036611,0,13503,54.174,0,0,0,0,0.0041819,0
13095,54.3,19.916,0,0.036611,0,13503,54.174,0,0,0,0,0.0041819,0
13095,54.3,19.916,0,0.036611,0,13503,54.174,0,0,0,0,0.0041819,0
13095,54.3,19.916,0,0.036611,0,13503,54.174,0,0,0,0,0.0041819,0
13095,54.3,19.916,0,0.036611,0,13503,54.174,0,0,0,0,0.0041819,0
13095,54.3,19.916,0,0.036611,0,13503,54.174,0,0,0,0,0.0041819,0
13095,54.3,19.916,0,0.036611,0,13503,54.174,0,0,0,0,0.0041819,0
13095,54.3,19.916,0,0.036611,0,13503,54.174,0,0,0,0,0.0041819,0
13097,54.3,19.92,0,0.036363,0,13503,54.174,0,0,0,0,0.0042024,0
13099,54.3,19.922,0,0.036213,0,13503,54.174,0,0,0,0,0.0042148,0
13099,54.3,19.922,0,0.036213,0,13503,54.174,0,0,0,0,0.0042148,0
13099,54.3,19.922,0,0.036213,0,13503,54.174,0,0,0,0,0.0042148,0
13099,54.3,19.922,0,0.036213,0,13503,54.174,0,0,0,0,0.0042148,0
13099,54.3,19.922,0,0.036213,0,13503,54.174,0,0,0,0,0.0042148,0
13099,54.3,19.922,0,0.036213,0,13503,54.174,0,0,0,0,0.0042148,0
13099,54.3,19.922,0,0.036213,0,13503,54.174,0,0,0,0,0.0042148,0
13099,54.3,19.922,0,0.036213,0,13503,54.174,0,0,0,0,0.0042148,0
13099,54.3,19.922,0,0.036213,0,13503,54.174,0,0,0,0,0.0042148,0
13099,54.3,19.922,0,0.036213,0,13503,54.174,0,0,0,0,0.0042148,0
13099,54.3,19.922,0,0.036213,0,13503,54.174,0,0,0,0,0.0042148,0
13100,54.3,19.925,0,0.036013,0,13503,54.174,0,0,0,0,0.0042315,0
13100,54.3,19.925,0,0.036013,0,13503,54.174,0,0,0,0,0.0042315,0
13100,54.3,19.925,0,0.036013,0,13503,54.174,0,0,0,0,0.0042315,0
13100,54.3,19.925,0,0.036013,0,13503,54.174,0,0,0,0,0.0042315,0
13100,54.3,19.925,0,0.036013,0,13503,54.174,0,0,0,0,0.0042315,0
13100,54.3,19.925,0,0.036013,0,13503,54.174,0,0,0,0,0.0042315,0
13100,54.3,19.925,0,0.036013,0,13503,54.174,0,0,0,0,0.0042315,0
13100,54.3,19.925,0,0.036013,0,13503,54.174,0,0,0,0,0.0042315,0
13100,54.3,19.925,0,0.036013,0,13503,54.174,0,0,0,0,0.0042315,0
13100,54.3,19.925,0,0.036013,0,13503,54.174,0,0,0,0,0.0042315,0
13100,54.3,19.925,0,0.036013,0,13503,54.174,0,0,0,0,0.0042315,0
13100,54.3,19.925,0,0.036013,0,13503,54.174,0,0,0,0,0.0042315,0
13101,54.3,19.927,0,0.035862,0,13503,54.174,0,0,0,0,0.0042441,0
13101,54.3,19.927,0,0.035862,0,13503,54.174,0,0,0,0,0.0042441,0
13101,54.3,19.927,0,0.035862,0,13503,54.174,0,0,0,0,0.0042441,0
13104,54.3,19.932,0,0.035503,0,13503,54.174,0,0,0,0,0.0042738,0
13104,54.3,19.932,0,0.035503,0,13503,54.174,0,0,0,0,0.0042738,0
13104,54.3,19.933,0,0.035452,0,13503,54.174,0,0,0,0,0.004278,0
13104,54.3,19.933,0,0.035452,0,13503,54.174,0,0,0,0,0.004278,0
13104,54.3,19.933,0,0.035452,0,13503,54.174,0,0,0,0,0.004278,0
13104,54.3,19.933,0,0.035452,0,13503,54.174,0,0,0,0,0.004278,0
13105,54.3,19.933,0,0.0354,0,13503,54.174,0,0,0,0,0.0042823,0
13105,54.3,19.933,0,0.0354,0,13503,54.174,0,0,0,0,0.0042823,0
13105,54.3,19.933,0,0.0354,0,13503,54.174,0,0,0,0,0.0042823,0
13105,54.3,19.933,0,0.0354,0,13503,54.174,0,0,0,0,0.0042823,0
13105,54.3,19.933,0,0.0354,0,13503,54.174,0,0,0,0,0.0042823,0
13105,54.3,19.933,0,0.0354,0,13503,54.174,0,0,0,0,0.0042823,0
13105,54.3,19.933,0,0.0354,0,13503,54.174,0,0,0,0,0.0042823,0
13105,54.3,19.933,0,0.0354,0,13503,54.174,0,0,0,0,0.0042823,0
13105,54.3,19.934,0,0.035348,0,13503,54.174,0,0,0,0,0.0042866,0
13105,54.3,19.934,0,0.035348,0,13503,54.174,0,0,0,0,0.0042866,0
13105,54.3,19.934,0,0.035348,0,13503,54.174,0,0,0,0,0.0042866,0
13105,54.3,19.934,0,0.035348,0,13503,54.174,0,0,0,0,0.0042866,0
13106,54.3,19.935,0,0.035297,0,13503,54.174,0,0,0,0,0.0042909,0
13106,54.3,19.935,0,0.035297,0,13503,54.174,0,0,0,0,0.0042909,0
13106,54.3,19.936,0,0.035193,0,13503,54.174,0,0,0,0,0.0042995,0
13106,54.3,19.936,0,0.035193,0,13503,54.174,0,0,0,0,0.0042995,0
13108,54.3,19.939,0,0.034983,0,13503,54.174,0,0,0,0,0.0043169,0
13108,54.3,19.939,0,0.034983,0,13503,54.174,0,0,0,0,0.0043169,0
13108,54.3,19.939,0,0.034983,0,13503,54.174,0,0,0,0,0.0043169,0
13108,54.3,19.939,0,0.034983,0,13503,54.174,0,0,0,0,0.0043169,0
13108,54.3,19.939,0,0.034983,0,13503,54.174,0,0,0,0,0.0043169,0
13108,54.3,19.939,0,0.034983,0,13503,54.174,0,0,0,0,0.0043169,0
13108,54.3,19.939,0,0.034983,0,13503,54.174,0,0,0,0,0.0043169,0
13108,54.3,19.939,0,0.034983,0,13503,54.174,0,0,0,0,0.0043169,0
13108,54.3,19.939,0,0.034983,0,13503,54.174,0,0,0,0,0.0043169,0
13108,54.3,19.939,0,0.034983,0,13503,54.174,0,0,0,0,0.0043169,0
13108,54.3,19.939,0,0.034983,0,13503,54.174,0,0,0,0,0.0043169,0
13108,54.3,19.939,0,0.034983,0,13503,54.174,0,0,0,0,0.0043169,0
13108,54.3,19.939,0,0.034983,0,13503,54.174,0,0,0,0,0.0043169,0
13108,54.3,19.939,0,0.034983,0,13503,54.174,0,0,0,0,0.0043169,0
13108,54.3,19.939,0,0.034983,0,13503,54.174,0,0,0,0,0.0043169,0
13108,54.3,19.939,0,0.034983,0,13503,54.174,0,0,0,0,0.0043169,0
13108,54.3,19.939,0,0.034983,0,13503,54.174,0,0,0,0,0.0043169,0
13108,54.3,19.939,0,0.034983,0,13503,54.174,0,0,0,0,0.0043169,0
13110,54.3,19.943,0,0.034719,0,13503,54.174,0,0,0,0,0.0043388,0
13110,54.3,19.943,0,0.034719,0,13503,54.174,0,0,0,0,0.0043388,0
13110,54.3,19.943,0,0.034719,0,13503,54.174,0,0,0,0,0.0043388,0
13110,54.3,19.943,0,0.034719,0,13503,54.174,0,0,0,0,0.0043388,0
13110,54.3,19.943,0,0.034719,0,13503,54.174,0,0,0,0,0.0043388,0
13110,54.3,19.943,0,0.034666,0,13503,54.174,0,0,0,0,0.0043432,0
13110,54.3,19.943,0,0.034666,0,13503,54.174,0,0,0,0,0.0043432,0
13110,54.3,19.943,0,0.034666,0,13503,54.174,0,0,0,0,0.0043432,0
13113,54.3,19.948,0,0.03429,0,13503,54.174,0,0,0,0,0.0043743,0
13113,54.3,19.948,0,0.03429,0,13503,54.174,0,0,0,0,0.0043743,0
13113,54.3,19.948,0,0.03429,0,13503,54.174,0,0,0,0,0.0043743,0
13113,54.3,19.948,0,0.03429,0,13503,54.174,0,0,0,0,0.0043743,0
13113,54.3,19.948,0,0.03429,0,13503,54.174,0,0,0,0,0.0043743,0
13113,54.3,19.948,0,0.03429,0,13503,54.174,0,0,0,0,0.0043743,0
13113,54.3,19.948,0,0.03429,0,13503,54.174,0,0,0,0,0.0043743,0
13113,54.3,19.948,0,0.03429,0,13503,54.174,0,0,0,0,0.0043743,0
13113,54.3,19.948,0,0.03429,0,13503,54.174,0,0,0,0,0.0043743,0
13113,54.3,19.948,0,0.03429,0,13503,54.174,0,0,0,0,0.0043743,0
13113,54.3,19.948,0,0.03429,0,13503,54.174,0,0,0,0,0.0043743,0
13113,54.3,19.948,0,0.03429,0,13503,54.174,0,0,0,0,0.0043743,0
13113,54.3,19.948,0,0.03429,0,13503,54.174,0,0,0,0,0.0043743,0
13113,54.3,19.948,0,0.03429,0,13503,54.174,0,0,0,0,0.0043743,0
13113,54.3,19.948,0,0.03429,0,13503,54.174,0,0,0,0,0.0043743,0
13113,54.3,19.948,0,0.03429,0,13503,54.174,0,0,0,0,0.0043743,0
13113,54.3,19.948,0,0.03429,0,13503,54.174,0,0,0,0,0.0043743,0
13115,54.3,19.951,0,0.034074,0,13503,54.174,0,0,0,0,0.0043923,0
13115,54.3,19.951,0,0.034074,0,13503,54.174,0,0,0,0,0.0043923,0
13115,54.3,19.951,0,0.034074,0,13503,54.174,0,0,0,0,0.0043923,0
13116,54.3,19.954,0,0.033856,0,13503,54.174,0,0,0,0,0.0044105,0
13116,54.3,19.954,0,0.033856,0,13503,54.174,0,0,0,0,0.0044105,0
13116,54.3,19.954,0,0.033856,0,13503,54.174,0,0,0,0,0.0044105,0
13116,54.3,19.954,0,0.033856,0,13503,54.174,0,0,0,0,0.0044105,0
13118,54.3,19.956,0,0.033636,0,13503,54.174,0,0,0,0,0.0044287,0
13118,54.3,19.956,0,0.033636,0,13503,54.174,0,0,0,0,0.0044287,0
13118,54.3,19.956,0,0.033636,0,13503,54.174,0,0,0,0,0.0044287,0
13118,54.3,19.956,0,0.033636,0,13503,54.174,0,0,0,0,0.0044287,0
13118,54.3,19.956,0,0.033636,0,13503,54.174,0,0,0,0,0.0044287,0
13118,54.3,19.956,0,0.033636,0,13503,54.174,0,0,0,0,0.0044287,0
13118,54.3,19.956,0,0.033636,0,13503,54.174,0,0,0,0,0.0044287,0
13118,54.3,19.956,0,0.033636,0,13503,54.174,0,0,0,0,0.0044287,0
13119,54.3,19.958,0,0.033525,0,13503,54.174,0,0,0,0,0.0044379,0
13119,54.3,19.958,0,0.033525,0,13503,54.174,0,0,0,0,0.0044379,0
13119,54.3,19.958,0,0.033525,0,13503,54.174,0,0,0,0,0.0044379,0
13119,54.3,19.958,0,0.033525,0,13503,54.174,0,0,0,0,0.0044379,0
13119,54.3,19.958,0,0.033525,0,13503,54.174,0,0,0,0,0.0044379,0
13121,54.3,19.961,0,0.033247,0,13503,54.174,0,0,0,0,0.0044611,0
13121,54.3,19.962,0,0.033191,0,13503,54.174,0,0,0,0,0.0044658,0
13121,54.3,19.962,0,0.033191,0,13503,54.174,0,0,0,0,0.0044658,0
13121,54.3,19.962,0,0.033191,0,13503,54.174,0,0,0,0,0.0044658,0
13121,54.3,19.962,0,0.033191,0,13503,54.174,0,0,0,0,0.0044658,0
13121,54.3,19.962,0,0.033191,0,13503,54.174,0,0,0,0,0.0044658,0
13121,54.3,19.962,0,0.033191,0,13503,54.174,0,0,0,0,0.0044658,0
13121,54.3,19.962,0,0.033191,0,13503,54.174,0,0,0,0,0.0044658,0
13121,54.3,19.962,0,0.033191,0,13503,54.174,0,0,0,0,0.0044658,0
13121,54.3,19.962,0,0.033191,0,13503,54.174,0,0,0,0,0.0044658,0
13121,54.3,19.962,0,0.033191,0,13503,54.174,0,0,0,0,0.0044658,0
13121,54.3,19.962,0,0.033191,0,13503,54.174,0,0,0,0,0.0044658,0
13121,54.3,19.962,0,0.033191,0,13503,54.174,0,0,0,0,0.0044658,0
13121,54.3,19.962,0,0.033191,0,13503,54.174,0,0,0,0,0.0044658,0
13122,54.3,19.964,0,0.033022,0,13503,54.174,0,0,0,0,0.0044798,0
13122,54.3,19.964,0,0.033022,0,13503,54.174,0,0,0,0,0.0044798,0
13122,54.3,19.964,0,0.033022,0,13503,54.174,0,0,0,0,0.0044798,0
13122,54.3,19.964,0,0.033022,0,13503,54.174,0,0,0,0,0.0044798,0
13122,54.3,19.964,0,0.033022,0,13503,54.174,0,0,0,0,0.0044798,0
13122,54.3,19.964,0,0.033022,0,13503,54.174,0,0,0,0,0.0044798,0
13122,54.3,19.964,0,0.033022,0,13503,54.174,0,0,0,0,0.0044798,0
13122,54.3,19.964,0,0.033022,0,13503,54.174,0,0,0,0,0.0044798,0
13123,54.3,19.964,0,0.032966,0,13503,54.174,0,0,0,0,0.0044845,0
13123,54.3,19.964,0,0.032966,0,13503,54.174,0,0,0,0,0.0044845,0
13124,54.3,19.966,0,0.032796,0,13503,54.174,0,0,0,0,0.0044987,0
13125,54.3,19.968,0,0.032625,0,13503,54.174,0,0,0,0,0.004513,0
13126,54.3,19.97,0,0.032454,0,13503,54.174,0,0,0,0,0.0045273,0
13126,54.3,19.97,0,0.032454,0,13503,54.174,0,0,0,0,0.0045273,0
13126,54.3,19.97,0,0.032454,0,13503,54.174,0,0,0,0,0.0045273,0
13126,54.3,19.97,0,0.032454,0,13503,54.174,0,0,0,0,0.0045273,0
13126,54.3,19.97,0,0.032454,0,13503,54.174,0,0,0,0,0.0045273,0
13126,54.3,19.97,0,0.032454,0,13503,54.174,0,0,0,0,0.0045273,0
13126,54.3,19.97,0,0.032454,0,13503,54.174,0,0,0,0,0.0045273,0
13126,54.3,19.97,0,0.032454,0,13503,54.174,0,0,0,0,0.0045273,0
13126,54.3,19.97,0,0.032454,0,13503,54.174,0,0,0,0,0.0045273,0
13126,54.3,19.97,0,0.032454,0,13503,54.174,0,0,0,0,0.0045273,0
13126,54.3,19.97,0,0.032454,0,13503,54.174,0,0,0,0,0.0045273,0
13127,54.3,19.971,0,0.032339,0,13503,54.174,0,0,0,0,0.004537,0
13127,54.3,19.971,0,0.032339,0,13503,54.174,0,0,0,0,0.004537,0
13127,54.3,19.971,0,0.032339,0,13503,54.174,0,0,0,0,0.004537,0
13127,54.3,19.971,0,0.032339,0,13503,54.174,0,0,0,0,0.004537,0
13127,54.3,19.971,0,0.032339,0,13503,54.174,0,0,0,0,0.004537,0
13127,54.3,19.971,0,0.032339,0,13503,54.174,0,0,0,0,0.004537,0
13127,54.3,19.971,0,0.032339,0,13503,54.174,0,0,0,0,0.004537,0
13127,54.3,19.971,0,0.032339,0,13503,54.174,0,0,0,0,0.004537,0
13127,54.3,19.971,0,0.032339,0,13503,54.174,0,0,0,0,0.004537,0
13127,54.3,19.971,0,0.032339,0,13503,54.174,0,0,0,0,0.004537,0
13127,54.3,19.971,0,0.032339,0,13503,54.174,0,0,0,0,0.004537,0
13127,54.3,19.971,0,0.032339,0,13503,54.174,0,0,0,0,0.004537,0
13128,54.3,19.973,0,0.032167,0,13503,54.174,0,0,0,0,0.0045515,0
13130,54.3,19.975,0,0.031993,0,13503,54.174,0,0,0,0,0.0045661,0
13130,54.3,19.975,0,0.031993,0,13503,54.174,0,0,0,0,0.0045661,0
13130,54.3,19.975,0,0.031993,0,13503,54.174,0,0,0,0,0.0045661,0
13131,54.3,19.978,0,0.03176,0,13503,54.174,0,0,0,0,0.0045857,0
13131,54.3,19.978,0,0.03176,0,13503,54.174,0,0,0,0,0.0045857,0
13131,54.3,19.978,0,0.03176,0,13503,54.174,0,0,0,0,0.0045857,0
13131,54.3,19.978,0,0.03176,0,13503,54.174,0,0,0,0,0.0045857,0
13131,54.3,19.978,0,0.03176,0,13503,54.174,0,0,0,0,0.0045857,0
13131,54.3,19.978,0,0.03176,0,13503,54.174,0,0,0,0,0.0045857,0
13131,54.3,19.978,0,0.03176,0,13503,54.174,0,0,0,0,0.0045857,0
13131,54.3,19.978,0,0.03176,0,13503,54.174,0,0,0,0,0.0045857,0
13131,54.3,19.978,0,0.03176,0,13503,54.174,0,0,0,0,0.0045857,0
13131,54.3,19.978,0,0.03176,0,13503,54.174,0,0,0,0,0.0045857,0
13131,54.3,19.978,0,0.03176,0,13503,54.174,0,0,0,0,0.0045857,0
13131,54.3,19.978,0,0.03176,0,13503,54.174,0,0,0,0,0.0045857,0
13131,54.3,19.978,0,0.03176,0,13503,54.174,0,0,0,0,0.0045857,0
13131,54.3,19.978,0,0.03176,0,13503,54.174,0,0,0,0,0.0045857,0
13131,54.3,19.978,0,0.03176,0,13503,54.174,0,0,0,0,0.0045857,0
13131,54.3,19.978,0,0.03176,0,13503,54.174,0,0,0,0,0.0045857,0
13131,54.3,19.978,0,0.03176,0,13503,54.174,0,0,0,0,0.0045857,0
13131,54.3,19.978,0,0.03176,0,13503,54.174,0,0,0,0,0.0045857,0
13133,54.3,19.981,0,0.031467,0,13503,54.174,0,0,0,0,0.0046105,0
13134,54.3,19.982,0,0.031408,0,13503,54.174,0,0,0,0,0.0046155,0
13134,54.3,19.983,0,0.03129,0,13503,54.174,0,0,0,0,0.0046255,0
13136,54.3,19.985,0,0.031052,0,13503,54.174,0,0,0,0,0.0046456,0
13136,54.3,19.985,0,0.031052,0,13503,54.174,0,0,0,0,0.0046456,0
13136,54.3,19.985,0,0.031052,0,13503,54.174,0,0,0,0,0.0046456,0
13136,54.3,19.985,0,0.031052,0,13503,54.174,0,0,0,0,0.0046456,0
13136,54.3,19.985,0,0.031052,0,13503,54.174,0,0,0,0,0.0046456,0
13136,54.3,19.985,0,0.031052,0,13503,54.174,0,0,0,0,0.0046456,0
13136,54.3,19.985,0,0.031052,0,13503,54.174,0,0,0,0,0.0046456,0
13136,54.3,19.985,0,0.031052,0,13503,54.174,0,0,0,0,0.0046456,0
13136,54.3,19.985,0,0.031052,0,13503,54.174,0,0,0,0,0.0046456,0
13136,54.3,19.985,0,0.031052,0,13503,54.174,0,0,0,0,0.0046456,0
13137,54.3,19.987,0,0.030932,0,13503,54.174,0,0,0,0,0.0046558,0
13137,54.3,19.987,0,0.030932,0,13503,54.174,0,0,0,0,0.0046558,0
13137,54.3,19.987,0,0.030932,0,13503,54.174,0,0,0,0,0.0046558,0
13137,54.3,19.987,0,0.030932,0,13503,54.174,0,0,0,0,0.0046558,0
13137,54.3,19.987,0,0.030932,0,13503,54.174,0,0,0,0,0.0046558,0
13137,54.3,19.987,0,0.030932,0,13503,54.174,0,0,0,0,0.0046558,0
13137,54.3,19.987,0,0.030932,0,13503,54.174,0,0,0,0,0.0046558,0
13137,54.3,19.987,0,0.030932,0,13503,54.174,0,0,0,0,0.0046558,0
13137,54.3,19.987,0,0.030932,0,13503,54.174,0,0,0,0,0.0046558,0
13137,54.3,19.987,0,0.030932,0,13503,54.174,0,0,0,0,0.0046558,0
13137,54.3,19.987,0,0.030932,0,13503,54.174,0,0,0,0,0.0046558,0
13137,54.3,19.987,0,0.030932,0,13503,54.174,0,0,0,0,0.0046558,0
13138,54.3,19.988,0,0.030753,0,13503,54.174,0,0,0,0,0.0046711,0
13139,54.3,19.99,0,0.030572,0,13503,54.174,0,0,0,0,0.0046865,0
13141,54.3,19.993,0,0.030329,0,13503,54.174,0,0,0,0,0.0047072,0
13141,54.3,19.993,0,0.030329,0,13503,54.174,0,0,0,0,0.0047072,0
13141,54.3,19.993,0,0.030269,0,13503,54.174,0,0,0,0,0.0047124,0
13141,54.3,19.993,0,0.030269,0,13503,54.174,0,0,0,0,0.0047124,0
13141,54.3,19.993,0,0.030269,0,13503,54.174,0,0,0,0,0.0047124,0
13141,54.3,19.993,0,0.030269,0,13503,54.174,0,0,0,0,0.0047124,0
13141,54.3,19.993,0,0.030269,0,13503,54.174,0,0,0,0,0.0047124,0
13141,54.3,19.993,0,0.030269,0,13503,54.174,0,0,0,0,0.0047124,0
13141,54.3,19.993,0,0.030269,0,13503,54.174,0,0,0,0,0.0047124,0
13141,54.3,19.993,0,0.030269,0,13503,54.174,0,0,0,0,0.0047124,0
13141,54.3,19.993,0,0.030269,0,13503,54.174,0,0,0,0,0.0047124,0
13141,54.3,19.993,0,0.030269,0,13503,54.174,0,0,0,0,0.0047124,0
13141,54.3,19.993,0,0.030269,0,13503,54.174,0,0,0,0,0.0047124,0
13141,54.3,19.993,0,0.030269,0,13503,54.174,0,0,0,0,0.0047124,0
13141,54.3,19.993,0,0.030269,0,13503,54.174,0,0,0,0,0.0047124,0
13141,54.3,19.993,0,0.030269,0,13503,54.174,0,0,0,0,0.0047124,0
13142,54.3,19.995,0,0.030147,0,13503,54.174,0,0,0,0,0.0047228,0
13142,54.3,19.995,0,0.030147,0,13503,54.174,0,0,0,0,0.0047228,0
13142,54.3,19.995,0,0.030147,0,13503,54.174,0,0,0,0,0.0047228,0
13142,54.3,19.995,0,0.030086,0,13503,54.174,0,0,0,0,0.004728,0
13144,54.3,19.997,0,0.029903,0,13503,54.174,0,0,0,0,0.0047438,0
13145,54.3,19.999,0,0.029718,0,13503,54.174,0,0,0,0,0.0047597,0
13145,54.3,19.999,0,0.029718,0,13503,54.174,0,0,0,0,0.0047597,0
13145,54.3,19.999,0,0.029718,0,13503,54.174,0,0,0,0,0.0047597,0
13145,54.3,19.999,0,0.029718,0,13503,54.174,0,0,0,0,0.0047597,0
13145,54.3,19.999,0,0.029718,0,13503,54.174,0,0,0,0,0.0047597,0
13145,54.3,19.999,0,0.029718,0,13503,54.174,0,0,0,0,0.0047597,0
13145,54.3,19.999,0,0.029718,0,13503,54.174,0,0,0,0,0.0047597,0
13145,54.3,19.999,0,0.029718,0,13503,54.174,0,0,0,0,0.0047597,0
13145,54.3,19.999,0,0.029718,0,13503,54.174,0,0,0,0,0.0047597,0
13145,54.3,19.999,0,0.029718,0,13503,54.174,0,0,0,0,0.0047597,0
13145,54.3,19.999,0,0.029718,0,13503,54.174,0,0,0,0,0.0047597,0
13145,54.3,19.999,0,0.029718,0,13503,54.174,0,0,0,0,0.0047597,0
13145,54.3,19.999,0,0.029718,0,13503,54.174,0,0,0,0,0.0047597,0
13146,54.3,20.001,0,0.029532,0,13503,54.174,0,0,0,0,0.0047757,0
13146,54.3,20.001,0,0.029532,0,13503,54.174,0,0,0,0,0.0047757,0
13146,54.3,20.001,0,0.02947,0,13503,54.174,0,0,0,0,0.0047811,0
13146,54.3,20.001,0,0.02947,0,13503,54.174,0,0,0,0,0.0047811,0
13146,54.3,20.001,0,0.02947,0,13503,54.174,0,0,0,0,0.0047811,0
13147,54.3,20.002,0,0.029408,0,13503,54.174,0,0,0,0,0.0047864,0
13148,54.3,20.004,0,0.029159,0,13503,54.174,0,0,0,0,0.004808,0
13148,54.3,20.004,0,0.029159,0,13503,54.174,0,0,0,0,0.004808,0
13149,54.3,20.005,0,0.029097,0,13503,54.174,0,0,0,0,0.0048135,0
13149,54.3,20.005,0,0.029034,0,13503,54.174,0,0,0,0,0.0048189,0
13149,54.3,20.005,0,0.029034,0,13503,54.174,0,0,0,0,0.0048189,0
13149,54.3,20.005,0,0.029034,0,13503,54.174,0,0,0,0,0.0048189,0
13149,54.3,20.005,0,0.029034,0,13503,54.174,0,0,0,0,0.0048189,0
13149,54.3,20.005,0,0.029034,0,13503,54.174,0,0,0,0,0.0048189,0
13149,54.3,20.005,0,0.029034,0,13503,54.174,0,0,0,0,0.0048189,0
13149,54.3,20.005,0,0.029034,0,13503,54.174,0,0,0,0,0.0048189,0
13149,54.3,20.005,0,0.029034,0,13503,54.174,0,0,0,0,0.0048189,0
13149,54.3,20.005,0,0.029034,0,13503,54.174,0,0,0,0,0.0048189,0
13149,54.3,20.005,0,0.029034,0,13503,54.174,0,0,0,0,0.0048189,0
13149,54.3,20.005,0,0.029034,0,13503,54.174,0,0,0,0,0.0048189,0
13149,54.3,20.005,0,0.029034,0,13503,54.174,0,0,0,0,0.0048189,0
13149,54.3,20.005,0,0.029034,0,13503,54.174,0,0,0,0,0.0048189,0
13149,54.3,20.005,0,0.029034,0,13503,54.174,0,0,0,0,0.0048189,0
13149,54.3,20.005,0,0.029034,0,13503,54.174,0,0,0,0,0.0048189,0
13149,54.3,20.005,0,0.029034,0,13503,54.174,0,0,0,0,0.0048189,0
13150,54.3,20.007,0,0.028846,0,13503,54.174,0,0,0,0,0.0048353,0
13150,54.3,20.007,0,0.028846,0,13503,54.174,0,0,0,0,0.0048353,0
13151,54.3,20.008,0,0.028784,0,13503,54.174,0,0,0,0,0.0048408,0
13151,54.3,20.008,0,0.028784,0,13503,54.174,0,0,0,0,0.0048408,0
13151,54.3,20.008,0,0.028784,0,13503,54.174,0,0,0,0,0.0048408,0
13153,54.3,20.011,0,0.028404,0,13503,54.174,0,0,0,0,0.004874,0
13153,54.3,20.011,0,0.028404,0,13503,54.174,0,0,0,0,0.004874,0
13153,54.3,20.011,0,0.028404,0,13503,54.174,0,0,0,0,0.004874,0
13153,54.3,20.011,0,0.028404,0,13503,54.174,0,0,0,0,0.004874,0
13153,54.3,20.011,0,0.028404,0,13503,54.174,0,0,0,0,0.004874,0
13153,54.3,20.011,0,0.028404,0,13503,54.174,0,0,0,0,0.004874,0
13153,54.3,20.011,0,0.028404,0,13503,54.174,0,0,0,0,0.004874,0
13153,54.3,20.011,0,0.028404,0,13503,54.174,0,0,0,0,0.004874,0
13153,54.3,20.011,0,0.028404,0,13503,54.174,0,0,0,0,0.004874,0
13153,54.3,20.011,0,0.028404,0,13503,54.174,0,0,0,0,0.004874,0
13153,54.3,20.011,0,0.028404,0,13503,54.174,0,0,0,0,0.004874,0
13153,54.3,20.011,0,0.028404,0,13503,54.174,0,0,0,0,0.004874,0
13153,54.3,20.011,0,0.028404,0,13503,54.174,0,0,0,0,0.004874,0
13153,54.3,20.011,0,0.028404,0,13503,54.174,0,0,0,0,0.004874,0
13153,54.3,20.011,0,0.028404,0,13503,54.174,0,0,0,0,0.004874,0
13153,54.3,20.011,0,0.028404,0,13503,54.174,0,0,0,0,0.004874,0
13153,54.3,20.011,0,0.028404,0,13503,54.174,0,0,0,0,0.004874,0
13153,54.3,20.011,0,0.028404,0,13503,54.174,0,0,0,0,0.004874,0
13153,54.3,20.011,0,0.028404,0,13503,54.174,0,0,0,0,0.004874,0
13155,54.3,20.014,0,0.028085,0,13503,54.174,0,0,0,0,0.0049021,0
13155,54.3,20.014,0,0.028085,0,13503,54.174,0,0,0,0,0.0049021,0
13155,54.3,20.014,0,0.028085,0,13503,54.174,0,0,0,0,0.0049021,0
13155,54.3,20.014,0,0.028085,0,13503,54.174,0,0,0,0,0.0049021,0
13155,54.3,20.014,0,0.028085,0,13503,54.174,0,0,0,0,0.0049021,0
13156,54.3,20.014,0,0.028022,0,13503,54.174,0,0,0,0,0.0049077,0
13156,54.3,20.014,0,0.028022,0,13503,54.174,0,0,0,0,0.0049077,0
13156,54.3,20.014,0,0.028022,0,13503,54.174,0,0,0,0,0.0049077,0
13158,54.3,20.018,0,0.027637,0,13503,54.174,0,0,0,0,0.0049419,0
13159,54.3,20.019,0,0.027444,0,13503,54.174,0,0,0,0,0.0049592,0
13159,54.3,20.019,0,0.027444,0,13503,54.174,0,0,0,0,0.0049592,0
13159,54.3,20.019,0,0.027444,0,13503,54.174,0,0,0,0,0.0049592,0
13159,54.3,20.019,0,0.027444,0,13503,54.174,0,0,0,0,0.0049592,0
13159,54.3,20.019,0,0.027444,0,13503,54.174,0,0,0,0,0.0049592,0
13159,54.3,20.019,0,0.027444,0,13503,54.174,0,0,0,0,0.0049592,0
13159,54.3,20.019,0,0.027444,0,13503,54.174,0,0,0,0,0.0049592,0
13159,54.3,20.019,0,0.027444,0,13503,54.174,0,0,0,0,0.0049592,0
13159,54.3,20.019,0,0.027444,0,13503,54.174,0,0,0,0,0.0049592,0
13159,54.3,20.019,0,0.027444,0,13503,54.174,0,0,0,0,0.0049592,0
13160,54.3,20.02,0,0.027314,0,13503,54.174,0,0,0,0,0.0049707,0
13160,54.3,20.02,0,0.027314,0,13503,54.174,0,0,0,0,0.0049707,0
13160,54.3,20.02,0,0.027314,0,13503,54.174,0,0,0,0,0.0049707,0
13160,54.3,20.02,0,0.027314,0,13503,54.174,0,0,0,0,0.0049707,0
13160,54.3,20.02,0,0.027314,0,13503,54.174,0,0,0,0,0.0049707,0
13160,54.3,20.02,0,0.027314,0,13503,54.174,0,0,0,0,0.0049707,0
13160,54.3,20.02,0,0.027314,0,13503,54.174,0,0,0,0,0.0049707,0
13160,54.3,20.02,0,0.027314,0,13503,54.174,0,0,0,0,0.0049707,0
13160,54.3,20.02,0,0.027314,0,13503,54.174,0,0,0,0,0.0049707,0
13160,54.3,20.02,0,0.027314,0,13503,54.174,0,0,0,0,0.0049707,0
13160,54.3,20.02,0,0.027314,0,13503,54.174,0,0,0,0,0.0049707,0
13160,54.3,20.02,0,0.027314,0,13503,54.174,0,0,0,0,0.0049707,0
13160,54.3,20.02,0,0.027314,0,13503,54.174,0,0,0,0,0.0049707,0
13161,54.3,20.022,0,0.027119,0,13503,54.174,0,0,0,0,0.0049882,0
13161,54.3,20.022,0,0.027119,0,13503,54.174,0,0,0,0,0.0049882,0
13162,54.3,20.024,0,0.026923,0,13503,54.174,0,0,0,0,0.0050058,0
13164,54.3,20.026,0,0.026661,0,13503,54.174,0,0,0,0,0.0050295,0
13164,54.3,20.026,0,0.026661,0,13503,54.174,0,0,0,0,0.0050295,0
13164,54.3,20.026,0,0.026661,0,13503,54.174,0,0,0,0,0.0050295,0
13164,54.3,20.026,0,0.026661,0,13503,54.174,0,0,0,0,0.0050295,0
13165,54.3,20.027,0,0.026463,0,13503,54.174,0,0,0,0,0.0050473,0
13165,54.3,20.027,0,0.026463,0,13503,54.174,0,0,0,0,0.0050473,0
13165,54.3,20.027,0,0.026463,0,13503,54.174,0,0,0,0,0.0050473,0
13165,54.3,20.027,0,0.026463,0,13503,54.174,0,0,0,0,0.0050473,0
13165,54.3,20.027,0,0.026463,0,13503,54.174,0,0,0,0,0.0050473,0
13165,54.3,20.027,0,0.026463,0,13503,54.174,0,0,0,0,0.0050473,0
13165,54.3,20.027,0,0.026463,0,13503,54.174,0,0,0,0,0.0050473,0
13165,54.3,20.027,0,0.026463,0,13503,54.174,0,0,0,0,0.0050473,0
13165,54.3,20.027,0,0.026463,0,13503,54.174,0,0,0,0,0.0050473,0
13165,54.3,20.027,0,0.026463,0,13503,54.174,0,0,0,0,0.0050473,0
13165,54.3,20.027,0,0.026463,0,13503,54.174,0,0,0,0,0.0050473,0
13165,54.3,20.027,0,0.026463,0,13503,54.174,0,0,0,0,0.0050473,0
13165,54.3,20.027,0,0.026463,0,13503,54.174,0,0,0,0,0.0050473,0
13165,54.3,20.027,0,0.026463,0,13503,54.174,0,0,0,0,0.0050473,0
13165,54.3,20.027,0,0.026463,0,13503,54.174,0,0,0,0,0.0050473,0
13165,54.3,20.027,0,0.026463,0,13503,54.174,0,0,0,0,0.0050473,0
13165,54.3,20.027,0,0.026463,0,13503,54.174,0,0,0,0,0.0050473,0
13165,54.3,20.027,0,0.026463,0,13503,54.174,0,0,0,0,0.0050473,0
13165,54.3,20.027,0,0.026463,0,13503,54.174,0,0,0,0,0.0050473,0
13167,54.3,20.03,0,0.026131,0,13503,54.174,0,0,0,0,0.0050775,0
13167,54.3,20.03,0,0.026131,0,13503,54.174,0,0,0,0,0.0050775,0
13170,54.3,20.033,0,0.025731,0,13503,54.174,0,0,0,0,0.0051141,0
13170,54.3,20.033,0,0.025731,0,13503,54.174,0,0,0,0,0.0051141,0
13170,54.3,20.033,0,0.025731,0,13503,54.174,0,0,0,0,0.0051141,0
13170,54.3,20.033,0,0.025731,0,13503,54.174,0,0,0,0,0.0051141,0
13170,54.3,20.033,0,0.025731,0,13503,54.174,0,0,0,0,0.0051141,0
13170,54.3,20.033,0,0.025731,0,13503,54.174,0,0,0,0,0.0051141,0
13170,54.3,20.033,0,0.025731,0,13503,54.174,0,0,0,0,0.0051141,0
13170,54.3,20.033,0,0.025731,0,13503,54.174,0,0,0,0,0.0051141,0
13170,54.3,20.033,0,0.025731,0,13503,54.174,0,0,0,0,0.0051141,0
13170,54.3,20.033,0,0.025731,0,13503,54.174,0,0,0,0,0.0051141,0
13170,54.3,20.034,0,0.025663,0,13503,54.174,0,0,0,0,0.0051202,0
13170,54.3,20.034,0,0.025663,0,13503,54.174,0,0,0,0,0.0051202,0
13170,54.3,20.034,0,0.025663,0,13503,54.174,0,0,0,0,0.0051202,0
13170,54.3,20.034,0,0.025663,0,13503,54.174,0,0,0,0,0.0051202,0
13170,54.3,20.034,0,0.025663,0,13503,54.174,0,0,0,0,0.0051202,0
13170,54.3,20.034,0,0.025663,0,13503,54.174,0,0,0,0,0.0051202,0
13170,54.3,20.034,0,0.025663,0,13503,54.174,0,0,0,0,0.0051202,0
13170,54.3,20.034,0,0.025663,0,13503,54.174,0,0,0,0,0.0051202,0
13170,54.3,20.034,0,0.025663,0,13503,54.174,0,0,0,0,0.0051202,0
13170,54.3,20.034,0,0.025597,0,13503,54.174,0,0,0,0,0.0051264,0
13170,54.3,20.034,0,0.025597,0,13503,54.174,0,0,0,0,0.0051264,0
13171,54.3,20.035,0,0.02553,0,13503,54.174,0,0,0,0,0.0051326,0
13171,54.3,20.035,0,0.02553,0,13503,54.174,0,0,0,0,0.0051326,0
13172,54.3,20.037,0,0.025261,0,13503,54.174,0,0,0,0,0.0051574,0
13174,54.3,20.039,0,0.024989,0,13503,54.174,0,0,0,0,0.0051826,0
13174,54.3,20.039,0,0.024989,0,13503,54.174,0,0,0,0,0.0051826,0
13174,54.3,20.039,0,0.024922,0,13503,54.174,0,0,0,0,0.0051889,0
13174,54.3,20.039,0,0.024922,0,13503,54.174,0,0,0,0,0.0051889,0
13174,54.3,20.039,0,0.024922,0,13503,54.174,0,0,0,0,0.0051889,0
13174,54.3,20.039,0,0.024922,0,13503,54.174,0,0,0,0,0.0051889,0
13174,54.3,20.039,0,0.024922,0,13503,54.174,0,0,0,0,0.0051889,0
13174,54.3,20.039,0,0.024922,0,13503,54.174,0,0,0,0,0.0051889,0
13174,54.3,20.039,0,0.024922,0,13503,54.174,0,0,0,0,0.0051889,0
13174,54.3,20.039,0,0.024922,0,13503,54.174,0,0,0,0,0.0051889,0
13174,54.3,20.039,0,0.024922,0,13503,54.174,0,0,0,0,0.0051889,0
13174,54.3,20.039,0,0.024922,0,13503,54.174,0,0,0,0,0.0051889,0
13174,54.3,20.039,0,0.024922,0,13503,54.174,0,0,0,0,0.0051889,0
13174,54.3,20.039,0,0.024922,0,13503,54.174,0,0,0,0,0.0051889,0
13174,54.3,20.039,0,0.024922,0,13503,54.174,0,0,0,0,0.0051889,0
13174,54.3,20.039,0,0.024922,0,13503,54.174,0,0,0,0,0.0051889,0
13174,54.3,20.039,0,0.024922,0,13503,54.174,0,0,0,0,0.0051889,0
13174,54.3,20.039,0,0.024922,0,13503,54.174,0,0,0,0,0.0051889,0
13174,54.3,20.039,0,0.024922,0,13503,54.174,0,0,0,0,0.0051889,0
13174,54.3,20.039,0,0.024922,0,13503,54.174,0,0,0,0,0.0051889,0
13174,54.3,20.039,0,0.024922,0,13503,54.174,0,0,0,0,0.0051889,0
13174,54.3,20.039,0,0.024922,0,13503,54.174,0,0,0,0,0.0051889,0
13178,54.3,20.043,0,0.024377,0,13503,54.174,0,0,0,0,0.00524,0
13178,54.3,20.044,0,0.024308,0,13503,54.174,0,0,0,0,0.0052465,0
13178,54.3,20.044,0,0.024308,0,13503,54.174,0,0,0,0,0.0052465,0
13178,54.3,20.044,0,0.024308,0,13503,54.174,0,0,0,0,0.0052465,0
13178,54.3,20.044,0,0.024308,0,13503,54.174,0,0,0,0,0.0052465,0
13178,54.3,20.044,0,0.024308,0,13503,54.174,0,0,0,0,0.0052465,0
13178,54.3,20.044,0,0.024308,0,13503,54.174,0,0,0,0,0.0052465,0
13178,54.3,20.044,0,0.024308,0,13503,54.174,0,0,0,0,0.0052465,0
13178,54.3,20.044,0,0.024308,0,13503,54.174,0,0,0,0,0.0052465,0
13178,54.3,20.044,0,0.024308,0,13503,54.174,0,0,0,0,0.0052465,0
13178,54.3,20.044,0,0.024308,0,13503,54.174,0,0,0,0,0.0052465,0
13178,54.3,20.044,0,0.024308,0,13503,54.174,0,0,0,0,0.0052465,0
13178,54.3,20.044,0,0.024308,0,13503,54.174,0,0,0,0,0.0052465,0
13178,54.3,20.044,0,0.024308,0,13503,54.174,0,0,0,0,0.0052465,0
13178,54.3,20.044,0,0.024308,0,13503,54.174,0,0,0,0,0.0052465,0
13178,54.3,20.044,0,0.024308,0,13503,54.174,0,0,0,0,0.0052465,0
13178,54.3,20.044,0,0.024308,0,13503,54.174,0,0,0,0,0.0052465,0
13178,54.3,20.044,0,0.024308,0,13503,54.174,0,0,0,0,0.0052465,0
13178,54.3,20.044,0,0.024308,0,13503,54.174,0,0,0,0,0.0052465,0
13178,54.3,20.044,0,0.024308,0,13503,54.174,0,0,0,0,0.0052465,0
13180,54.3,20.047,0,0.023895,0,13503,54.174,0,0,0,0,0.0052856,0
13180,54.3,20.047,0,0.023895,0,13503,54.174,0,0,0,0,0.0052856,0
13180,54.3,20.047,0,0.023895,0,13503,54.174,0,0,0,0,0.0052856,0
13180,54.3,20.047,0,0.023895,0,13503,54.174,0,0,0,0,0.0052856,0
13180,54.3,20.047,0,0.023895,0,13503,54.174,0,0,0,0,0.0052856,0
13183,54.3,20.05,0,0.023411,0,13503,54.174,0,0,0,0,0.005332,0
13183,54.3,20.05,0,0.023411,0,13503,54.174,0,0,0,0,0.005332,0
13183,54.3,20.05,0,0.023411,0,13503,54.174,0,0,0,0,0.005332,0
13183,54.3,20.05,0,0.023411,0,13503,54.174,0,0,0,0,0.005332,0
13183,54.3,20.05,0,0.023411,0,13503,54.174,0,0,0,0,0.005332,0
13183,54.3,20.05,0,0.023411,0,13503,54.174,0,0,0,0,0.005332,0
13183,54.3,20.05,0,0.023411,0,13503,54.174,0,0,0,0,0.005332,0
13183,54.3,20.05,0,0.023411,0,13503,54.174,0,0,0,0,0.005332,0
13183,54.3,20.05,0,0.023411,0,13503,54.174,0,0,0,0,0.005332,0
13183,54.3,20.05,0,0.023411,0,13503,54.174,0,0,0,0,0.005332,0
13183,54.3,20.05,0,0.023411,0,13503,54.174,0,0,0,0,0.005332,0
13183,54.3,20.05,0,0.023411,0,13503,54.174,0,0,0,0,0.005332,0
13183,54.3,20.05,0,0.023411,0,13503,54.174,0,0,0,0,0.005332,0
13183,54.3,20.05,0,0.023411,0,13503,54.174,0,0,0,0,0.005332,0
13183,54.3,20.05,0,0.023411,0,13503,54.174,0,0,0,0,0.005332,0
13185,54.3,20.052,0,0.023132,0,13503,54.174,0,0,0,0,0.0053589,0
13185,54.3,20.052,0,0.023132,0,13503,54.174,0,0,0,0,0.0053589,0
13185,54.3,20.052,0,0.023132,0,13503,54.174,0,0,0,0,0.0053589,0
13185,54.3,20.052,0,0.023132,0,13503,54.174,0,0,0,0,0.0053589,0
13185,54.3,20.052,0,0.023132,0,13503,54.174,0,0,0,0,0.0053589,0
13185,54.3,20.052,0,0.023132,0,13503,54.174,0,0,0,0,0.0053589,0
13185,54.3,20.052,0,0.023062,0,13503,54.174,0,0,0,0,0.0053657,0
13185,54.3,20.052,0,0.023062,0,13503,54.174,0,0,0,0,0.0053657,0
13185,54.3,20.052,0,0.023062,0,13503,54.174,0,0,0,0,0.0053657,0
13185,54.3,20.052,0,0.023062,0,13503,54.174,0,0,0,0,0.0053657,0
13186,54.3,20.053,0,0.022992,0,13503,54.174,0,0,0,0,0.0053724,0
13186,54.3,20.053,0,0.022992,0,13503,54.174,0,0,0,0,0.0053724,0
13186,54.3,20.053,0,0.022992,0,13503,54.174,0,0,0,0,0.0053724,0
13188,54.3,20.056,0,0.022501,0,13503,54.174,0,0,0,0,0.0054204,0
13189,54.3,20.057,0,0.02236,0,13503,54.174,0,0,0,0,0.0054343,0
13189,54.3,20.057,0,0.02236,0,13503,54.174,0,0,0,0,0.0054343,0
13189,54.3,20.057,0,0.02236,0,13503,54.174,0,0,0,0,0.0054343,0
13189,54.3,20.057,0,0.02236,0,13503,54.174,0,0,0,0,0.0054343,0
13189,54.3,20.057,0,0.02236,0,13503,54.174,0,0,0,0,0.0054343,0
13189,54.3,20.057,0,0.02236,0,13503,54.174,0,0,0,0,0.0054343,0
13189,54.3,20.057,0,0.02236,0,13503,54.174,0,0,0,0,0.0054343,0
13189,54.3,20.057,0,0.02236,0,13503,54.174,0,0,0,0,0.0054343,0
13189,54.3,20.057,0,0.02236,0,13503,54.174,0,0,0,0,0.0054343,0
13189,54.3,20.057,0,0.02236,0,13503,54.174,0,0,0,0,0.0054343,0
13189,54.3,20.057,0,0.02236,0,13503,54.174,0,0,0,0,0.0054343,0
13189,54.3,20.057,0,0.02236,0,13503,54.174,0,0,0,0,0.0054343,0
13190,54.3,20.058,0,0.022147,0,13503,54.174,0,0,0,0,0.0054552,0
13190,54.3,20.058,0,0.022147,0,13503,54.174,0,0,0,0,0.0054552,0
13190,54.3,20.058,0,0.022147,0,13503,54.174,0,0,0,0,0.0054552,0
13190,54.3,20.058,0,0.022147,0,13503,54.174,0,0,0,0,0.0054552,0
13190,54.3,20.058,0,0.022147,0,13503,54.174,0,0,0,0,0.0054552,0
13190,54.3,20.058,0,0.022147,0,13503,54.174,0,0,0,0,0.0054552,0
13190,54.3,20.058,0,0.022147,0,13503,54.174,0,0,0,0,0.0054552,0
13190,54.3,20.058,0,0.022147,0,13503,54.174,0,0,0,0,0.0054552,0
13190,54.3,20.058,0,0.022147,0,13503,54.174,0,0,0,0,0.0054552,0
13190,54.3,20.058,0,0.022147,0,13503,54.174,0,0,0,0,0.0054552,0
13193,54.3,20.06,0,0.021793,0,13503,54.174,0,0,0,0,0.0054904,0
13193,54.3,20.061,0,0.02165,0,13503,54.174,0,0,0,0,0.0055046,0
13193,54.3,20.061,0,0.02165,0,13503,54.174,0,0,0,0,0.0055046,0
13193,54.3,20.061,0,0.02165,0,13503,54.174,0,0,0,0,0.0055046,0
13193,54.3,20.061,0,0.02165,0,13503,54.174,0,0,0,0,0.0055046,0
13195,54.3,20.063,0,0.021365,0,13503,54.174,0,0,0,0,0.0055333,0
13195,54.3,20.063,0,0.021365,0,13503,54.174,0,0,0,0,0.0055333,0
13195,54.3,20.063,0,0.021365,0,13503,54.174,0,0,0,0,0.0055333,0
13195,54.3,20.063,0,0.021365,0,13503,54.174,0,0,0,0,0.0055333,0
13195,54.3,20.063,0,0.021365,0,13503,54.174,0,0,0,0,0.0055333,0
13195,54.3,20.063,0,0.021365,0,13503,54.174,0,0,0,0,0.0055333,0
13195,54.3,20.063,0,0.021365,0,13503,54.174,0,0,0,0,0.0055333,0
13195,54.3,20.063,0,0.021365,0,13503,54.174,0,0,0,0,0.0055333,0
13195,54.3,20.063,0,0.021365,0,13503,54.174,0,0,0,0,0.0055333,0
13195,54.3,20.063,0,0.021365,0,13503,54.174,0,0,0,0,0.0055333,0
13195,54.3,20.063,0,0.021365,0,13503,54.174,0,0,0,0,0.0055333,0
13195,54.3,20.063,0,0.021365,0,13503,54.174,0,0,0,0,0.0055333,0
13195,54.3,20.063,0,0.021365,0,13503,54.174,0,0,0,0,0.0055333,0
13195,54.3,20.063,0,0.021365,0,13503,54.174,0,0,0,0,0.0055333,0
13195,54.3,20.063,0,0.021365,0,13503,54.174,0,0,0,0,0.0055333,0
13195,54.3,20.063,0,0.021365,0,13503,54.174,0,0,0,0,0.0055333,0
13195,54.3,20.063,0,0.021365,0,13503,54.174,0,0,0,0,0.0055333,0
13195,54.3,20.063,0,0.021365,0,13503,54.174,0,0,0,0,0.0055333,0
13195,54.3,20.063,0,0.021365,0,13503,54.174,0,0,0,0,0.0055333,0
13195,54.3,20.063,0,0.021365,0,13503,54.174,0,0,0,0,0.0055333,0
13198,54.3,20.066,0,0.020863,0,13503,54.174,0,0,0,0,0.0055842,0
13198,54.3,20.066,0,0.020863,0,13503,54.174,0,0,0,0,0.0055842,0
13198,54.3,20.066,0,0.020863,0,13503,54.174,0,0,0,0,0.0055842,0
13198,54.3,20.066,0,0.020863,0,13503,54.174,0,0,0,0,0.0055842,0
13199,54.3,20.067,0,0.020647,0,13503,54.174,0,0,0,0,0.0056063,0
13199,54.3,20.067,0,0.020574,0,13503,54.174,0,0,0,0,0.0056137,0
13199,54.3,20.067,0,0.020574,0,13503,54.174,0,0,0,0,0.0056137,0
13199,54.3,20.067,0,0.020574,0,13503,54.174,0,0,0,0,0.0056137,0
13199,54.3,20.067,0,0.020574,0,13503,54.174,0,0,0,0,0.0056137,0
13200,54.3,20.068,0,0.02043,0,13503,54.174,0,0,0,0,0.0056286,0
13200,54.3,20.068,0,0.02043,0,13503,54.174,0,0,0,0,0.0056286,0
13200,54.3,20.068,0,0.02043,0,13503,54.174,0,0,0,0,0.0056286,0
13200,54.3,20.068,0,0.02043,0,13503,54.174,0,0,0,0,0.0056286,0
13200,54.3,20.068,0,0.02043,0,13503,54.174,0,0,0,0,0.0056286,0
13200,54.3,20.068,0,0.02043,0,13503,54.174,0,0,0,0,0.0056286,0
13200,54.3,20.068,0,0.02043,0,13503,54.174,0,0,0,0,0.0056286,0
13200,54.3,20.068,0,0.02043,0,13503,54.174,0,0,0,0,0.0056286,0
13200,54.3,20.068,0,0.02043,0,13503,54.174,0,0,0,0,0.0056286,0
13200,54.3,20.068,0,0.02043,0,13503,54.174,0,0,0,0,0.0056286,0
13200,54.3,20.068,0,0.02043,0,13503,54.174,0,0,0,0,0.0056286,0
13200,54.3,20.068,0,0.02043,0,13503,54.174,0,0,0,0,0.0056286,0
13203,54.3,20.071,0,0.019921,0,13503,54.174,0,0,0,0,0.0056813,0
13203,54.3,20.072,0,0.019848,0,13503,54.174,0,0,0,0,0.0056889,0
13204,54.3,20.072,0,0.019776,0,13503,54.174,0,0,0,0,0.0056966,0
13204,54.3,20.072,0,0.019776,0,13503,54.174,0,0,0,0,0.0056966,0
13204,54.3,20.072,0,0.019776,0,13503,54.174,0,0,0,0,0.0056966,0
13204,54.3,20.072,0,0.019776,0,13503,54.174,0,0,0,0,0.0056966,0
13204,54.3,20.072,0,0.019776,0,13503,54.174,0,0,0,0,0.0056966,0
13204,54.3,20.072,0,0.019776,0,13503,54.174,0,0,0,0,0.0056966,0
13204,54.3,20.072,0,0.019776,0,13503,54.174,0,0,0,0,0.0056966,0
13204,54.3,20.072,0,0.019776,0,13503,54.174,0,0,0,0,0.0056966,0
13204,54.3,20.072,0,0.019776,0,13503,54.174,0,0,0,0,0.0056966,0
13204,54.3,20.072,0,0.019776,0,13503,54.174,0,0,0,0,0.0056966,0
13204,54.3,20.072,0,0.019776,0,13503,54.174,0,0,0,0,0.0056966,0
13204,54.3,20.072,0,0.019776,0,13503,54.174,0,0,0,0,0.0056966,0
13204,54.3,20.072,0,0.019776,0,13503,54.174,0,0,0,0,0.0056966,0
13204,54.3,20.072,0,0.019776,0,13503,54.174,0,0,0,0,0.0056966,0
13204,54.3,20.072,0,0.019776,0,13503,54.174,0,0,0,0,0.0056966,0
13204,54.3,20.072,0,0.019776,0,13503,54.174,0,0,0,0,0.0056966,0
13204,54.3,20.072,0,0.019776,0,13503,54.174,0,0,0,0,0.0056966,0
13204,54.3,20.072,0,0.019776,0,13503,54.174,0,0,0,0,0.0056966,0
13204,54.3,20.072,0,0.019776,0,13503,54.174,0,0,0,0,0.0056966,0
13205,54.3,20.073,0,0.019629,0,13503,54.174,0,0,0,0,0.0057119,0
13205,54.3,20.073,0,0.019629,0,13503,54.174,0,0,0,0,0.0057119,0
13205,54.3,20.073,0,0.019629,0,13503,54.174,0,0,0,0,0.0057119,0
13205,54.3,20.073,0,0.019629,0,13503,54.174,0,0,0,0,0.0057119,0
13205,54.3,20.073,0,0.019483,0,13503,54.174,0,0,0,0,0.0057273,0
13205,54.3,20.073,0,0.019483,0,13503,54.174,0,0,0,0,0.0057273,0
13207,54.3,20.075,0,0.019263,0,13503,54.174,0,0,0,0,0.0057505,0
13208,54.3,20.076,0,0.018969,0,13503,54.174,0,0,0,0,0.0057819,0
13208,54.3,20.076,0,0.018969,0,13503,54.174,0,0,0,0,0.0057819,0
13208,54.3,20.076,0,0.018969,0,13503,54.174,0,0,0,0,0.0057819,0
13208,54.3,20.076,0,0.018969,0,13503,54.174,0,0,0,0,0.0057819,0
13208,54.3,20.076,0,0.018969,0,13503,54.174,0,0,0,0,0.0057819,0
13208,54.3,20.076,0,0.018969,0,13503,54.174,0,0,0,0,0.0057819,0
13208,54.3,20.076,0,0.018969,0,13503,54.174,0,0,0,0,0.0057819,0
13208,54.3,20.076,0,0.018969,0,13503,54.174,0,0,0,0,0.0057819,0
13209,54.3,20.077,0,0.018748,0,13503,54.174,0,0,0,0,0.0058056,0
13209,54.3,20.077,0,0.018748,0,13503,54.174,0,0,0,0,0.0058056,0
13209,54.3,20.077,0,0.018748,0,13503,54.174,0,0,0,0,0.0058056,0
13209,54.3,20.077,0,0.018748,0,13503,54.174,0,0,0,0,0.0058056,0
13209,54.3,20.077,0,0.018748,0,13503,54.174,0,0,0,0,0.0058056,0
13209,54.3,20.077,0,0.018748,0,13503,54.174,0,0,0,0,0.0058056,0
13209,54.3,20.077,0,0.018748,0,13503,54.174,0,0,0,0,0.0058056,0
13209,54.3,20.077,0,0.018748,0,13503,54.174,0,0,0,0,0.0058056,0
13209,54.3,20.077,0,0.018748,0,13503,54.174,0,0,0,0,0.0058056,0
13209,54.3,20.077,0,0.018748,0,13503,54.174,0,0,0,0,0.0058056,0
13209,54.3,20.077,0,0.018748,0,13503,54.174,0,0,0,0,0.0058056,0
13209,54.3,20.077,0,0.018748,0,13503,54.174,0,0,0,0,0.0058056,0
13209,54.3,20.077,0,0.018748,0,13503,54.174,0,0,0,0,0.0058056,0
13209,54.3,20.077,0,0.018748,0,13503,54.174,0,0,0,0,0.0058056,0
13209,54.3,20.077,0,0.018748,0,13503,54.174,0,0,0,0,0.0058056,0
13211,54.3,20.079,0,0.018453,0,13503,54.174,0,0,0,0,0.0058375,0
13212,54.3,20.08,0,0.01823,0,13503,54.174,0,0,0,0,0.0058617,0
13212,54.3,20.08,0,0.01823,0,13503,54.174,0,0,0,0,0.0058617,0
13212,54.3,20.08,0,0.01823,0,13503,54.174,0,0,0,0,0.0058617,0
13212,54.3,20.08,0,0.01823,0,13503,54.174,0,0,0,0,0.0058617,0
13212,54.3,20.08,0,0.01823,0,13503,54.174,0,0,0,0,0.0058617,0
13212,54.3,20.08,0,0.01823,0,13503,54.174,0,0,0,0,0.0058617,0
13212,54.3,20.08,0,0.01823,0,13503,54.174,0,0,0,0,0.0058617,0
13212,54.3,20.08,0,0.01823,0,13503,54.174,0,0,0,0,0.0058617,0
13212,54.3,20.08,0,0.01823,0,13503,54.174,0,0,0,0,0.0058617,0
13212,54.3,20.08,0,0.01823,0,13503,54.174,0,0,0,0,0.0058617,0
13212,54.3,20.08,0,0.01823,0,13503,54.174,0,0,0,0,0.0058617,0
13215,54.3,20.082,0,0.017784,0,13503,54.174,0,0,0,0,0.0059107,0
13215,54.3,20.082,0,0.017784,0,13503,54.174,0,0,0,0,0.0059107,0
13215,54.3,20.082,0,0.017784,0,13503,54.174,0,0,0,0,0.0059107,0
13215,54.3,20.082,0,0.017784,0,13503,54.174,0,0,0,0,0.0059107,0
13215,54.3,20.082,0,0.017784,0,13503,54.174,0,0,0,0,0.0059107,0
13215,54.3,20.082,0,0.017784,0,13503,54.174,0,0,0,0,0.0059107,0
13215,54.3,20.082,0,0.017784,0,13503,54.174,0,0,0,0,0.0059107,0
13215,54.3,20.082,0,0.017784,0,13503,54.174,0,0,0,0,0.0059107,0
13215,54.3,20.082,0,0.017784,0,13503,54.174,0,0,0,0,0.0059107,0
13215,54.3,20.082,0,0.017784,0,13503,54.174,0,0,0,0,0.0059107,0
13215,54.3,20.082,0,0.017784,0,13503,54.174,0,0,0,0,0.0059107,0
13215,54.3,20.082,0,0.017784,0,13503,54.174,0,0,0,0,0.0059107,0
13215,54.3,20.082,0,0.017784,0,13503,54.174,0,0,0,0,0.0059107,0
13216,54.3,20.083,0,0.01756,0,13503,54.174,0,0,0,0,0.0059354,0
13216,54.3,20.083,0,0.01756,0,13503,54.174,0,0,0,0,0.0059354,0
13219,54.3,20.086,0,0.017036,0,13503,54.174,0,0,0,0,0.0059941,0
13219,54.3,20.086,0,0.017036,0,13503,54.174,0,0,0,0,0.0059941,0
13219,54.3,20.086,0,0.017036,0,13503,54.174,0,0,0,0,0.0059941,0
13219,54.3,20.086,0,0.017036,0,13503,54.174,0,0,0,0,0.0059941,0
13219,54.3,20.086,0,0.017036,0,13503,54.174,0,0,0,0,0.0059941,0
13219,54.3,20.086,0,0.017036,0,13503,54.174,0,0,0,0,0.0059941,0
13219,54.3,20.086,0,0.017036,0,13503,54.174,0,0,0,0,0.0059941,0
13219,54.3,20.086,0,0.017036,0,13503,54.174,0,0,0,0,0.0059941,0
13219,54.3,20.086,0,0.017036,0,13503,54.174,0,0,0,0,0.0059941,0
13219,54.3,20.086,0,0.017036,0,13503,54.174,0,0,0,0,0.0059941,0
13219,54.3,20.086,0,0.017036,0,13503,54.174,0,0,0,0,0.0059941,0
13219,54.3,20.086,0,0.017036,0,13503,54.174,0,0,0,0,0.0059941,0
13219,54.3,20.086,0,0.017036,0,13503,54.174,0,0,0,0,0.0059941,0
13220,54.3,20.087,0,0.01681,0,13503,54.174,0,0,0,0,0.0060196,0
13220,54.3,20.087,0,0.01681,0,13503,54.174,0,0,0,0,0.0060196,0
13220,54.3,20.087,0,0.01681,0,13503,54.174,0,0,0,0,0.0060196,0
13220,54.3,20.087,0,0.01681,0,13503,54.174,0,0,0,0,0.0060196,0
13220,54.3,20.087,0,0.01681,0,13503,54.174,0,0,0,0,0.0060196,0
13220,54.3,20.087,0,0.01681,0,13503,54.174,0,0,0,0,0.0060196,0
13220,54.3,20.087,0,0.01681,0,13503,54.174,0,0,0,0,0.0060196,0
13220,54.3,20.087,0,0.01681,0,13503,54.174,0,0,0,0,0.0060196,0
13220,54.3,20.087,0,0.016735,0,13503,54.174,0,0,0,0,0.0060282,0
13221,54.3,20.087,0,0.01666,0,13503,54.174,0,0,0,0,0.0060367,0
13222,54.3,20.089,0,0.016358,0,13503,54.174,0,0,0,0,0.0060713,0
13222,54.3,20.089,0,0.016358,0,13503,54.174,0,0,0,0,0.0060713,0
13223,54.3,20.089,0,0.016206,0,13503,54.174,0,0,0,0,0.0060887,0
13223,54.3,20.089,0,0.016206,0,13503,54.174,0,0,0,0,0.0060887,0
13223,54.3,20.089,0,0.016206,0,13503,54.174,0,0,0,0,0.0060887,0
13223,54.3,20.089,0,0.016206,0,13503,54.174,0,0,0,0,0.0060887,0
13223,54.3,20.089,0,0.016206,0,13503,54.174,0,0,0,0,0.0060887,0
13223,54.3,20.089,0,0.016206,0,13503,54.174,0,0,0,0,0.0060887,0
13223,54.3,20.089,0,0.016206,0,13503,54.174,0,0,0,0,0.0060887,0
13224,54.3,20.09,0,0.015979,0,13503,54.174,0,0,0,0,0.006115,0
13224,54.3,20.09,0,0.015979,0,13503,54.174,0,0,0,0,0.006115,0
13224,54.3,20.09,0,0.015979,0,13503,54.174,0,0,0,0,0.006115,0
13224,54.3,20.09,0,0.015979,0,13503,54.174,0,0,0,0,0.006115,0
13224,54.3,20.09,0,0.015979,0,13503,54.174,0,0,0,0,0.006115,0
13224,54.3,20.09,0,0.015979,0,13503,54.174,0,0,0,0,0.006115,0
13224,54.3,20.09,0,0.015979,0,13503,54.174,0,0,0,0,0.006115,0
13224,54.3,20.09,0,0.015979,0,13503,54.174,0,0,0,0,0.006115,0
13224,54.3,20.09,0,0.015979,0,13503,54.174,0,0,0,0,0.006115,0
13224,54.3,20.09,0,0.015979,0,13503,54.174,0,0,0,0,0.006115,0
13224,54.3,20.09,0,0.015979,0,13503,54.174,0,0,0,0,0.006115,0
13224,54.3,20.09,0,0.015979,0,13503,54.174,0,0,0,0,0.006115,0
13224,54.3,20.09,0,0.015979,0,13503,54.174,0,0,0,0,0.006115,0
13224,54.3,20.09,0,0.015979,0,13503,54.174,0,0,0,0,0.006115,0
13226,54.3,20.091,0,0.015675,0,13503,54.174,0,0,0,0,0.0061505,0
13226,54.3,20.091,0,0.015675,0,13503,54.174,0,0,0,0,0.0061505,0
13227,54.3,20.093,0,0.01537,0,13503,54.174,0,0,0,0,0.0061864,0
13228,54.3,20.093,0,0.015295,0,13503,54.174,0,0,0,0,0.0061954,0
13228,54.3,20.093,0,0.015295,0,13503,54.174,0,0,0,0,0.0061954,0
13228,54.3,20.093,0,0.015295,0,13503,54.174,0,0,0,0,0.0061954,0
13228,54.3,20.093,0,0.015295,0,13503,54.174,0,0,0,0,0.0061954,0
13228,54.3,20.093,0,0.015295,0,13503,54.174,0,0,0,0,0.0061954,0
13228,54.3,20.093,0,0.015295,0,13503,54.174,0,0,0,0,0.0061954,0
13228,54.3,20.093,0,0.015295,0,13503,54.174,0,0,0,0,0.0061954,0
13228,54.3,20.093,0,0.015295,0,13503,54.174,0,0,0,0,0.0061954,0
13228,54.3,20.093,0,0.015295,0,13503,54.174,0,0,0,0,0.0061954,0
13228,54.3,20.093,0,0.015295,0,13503,54.174,0,0,0,0,0.0061954,0
13228,54.3,20.093,0,0.015295,0,13503,54.174,0,0,0,0,0.0061954,0
13228,54.3,20.093,0,0.015295,0,13503,54.174,0,0,0,0,0.0061954,0
13228,54.3,20.093,0,0.015295,0,13503,54.174,0,0,0,0,0.0061954,0
13228,54.3,20.093,0,0.015295,0,13503,54.174,0,0,0,0,0.0061954,0
13228,54.3,20.093,0,0.015295,0,13503,54.174,0,0,0,0,0.0061954,0
13228,54.3,20.093,0,0.015295,0,13503,54.174,0,0,0,0,0.0061954,0
13228,54.3,20.093,0,0.015295,0,13503,54.174,0,0,0,0,0.0061954,0
13230,54.3,20.095,0,0.014913,0,13503,54.174,0,0,0,0,0.006241,0
13230,54.3,20.095,0,0.014913,0,13503,54.174,0,0,0,0,0.006241,0
13230,54.3,20.095,0,0.014913,0,13503,54.174,0,0,0,0,0.006241,0
13230,54.3,20.095,0,0.014913,0,13503,54.174,0,0,0,0,0.006241,0
13230,54.3,20.095,0,0.014913,0,13503,54.174,0,0,0,0,0.006241,0
13230,54.3,20.095,0,0.014913,0,13503,54.174,0,0,0,0,0.006241,0
13230,54.3,20.095,0,0.014836,0,13503,54.174,0,0,0,0,0.0062502,0
13230,54.3,20.095,0,0.014836,0,13503,54.174,0,0,0,0,0.0062502,0
13231,54.3,20.096,0,0.014606,0,13503,54.174,0,0,0,0,0.0062779,0
13233,54.3,20.097,0,0.014298,0,13503,54.174,0,0,0,0,0.0063153,0
13233,54.3,20.097,0,0.014298,0,13503,54.174,0,0,0,0,0.0063153,0
13234,54.3,20.097,0,0.014145,0,13503,54.174,0,0,0,0,0.0063341,0
13234,54.3,20.097,0,0.014145,0,13503,54.174,0,0,0,0,0.0063341,0
13234,54.3,20.097,0,0.014145,0,13503,54.174,0,0,0,0,0.0063341,0
13234,54.3,20.097,0,0.014145,0,13503,54.174,0,0,0,0,0.0063341,0
13234,54.3,20.097,0,0.014145,0,13503,54.174,0,0,0,0,0.0063341,0
13234,54.3,20.097,0,0.014145,0,13503,54.174,0,0,0,0,0.0063341,0
13234,54.3,20.097,0,0.014145,0,13503,54.174,0,0,0,0,0.0063341,0
13234,54.3,20.097,0,0.014145,0,13503,54.174,0,0,0,0,0.0063341,0
13234,54.3,20.097,0,0.014145,0,13503,54.174,0,0,0,0,0.0063341,0
13234,54.3,20.097,0,0.014145,0,13503,54.174,0,0,0,0,0.0063341,0
13234,54.3,20.097,0,0.014145,0,13503,54.174,0,0,0,0,0.0063341,0
13234,54.3,20.097,0,0.014145,0,13503,54.174,0,0,0,0,0.0063341,0
13234,54.3,20.097,0,0.014145,0,13503,54.174,0,0,0,0,0.0063341,0
13234,54.3,20.097,0,0.014145,0,13503,54.174,0,0,0,0,0.0063341,0
13234,54.3,20.097,0,0.014145,0,13503,54.174,0,0,0,0,0.0063341,0
13234,54.3,20.097,0,0.014145,0,13503,54.174,0,0,0,0,0.0063341,0
13234,54.3,20.097,0,0.014145,0,13503,54.174,0,0,0,0,0.0063341,0
13234,54.3,20.097,0,0.014145,0,13503,54.174,0,0,0,0,0.0063341,0
13234,54.3,20.097,0,0.014145,0,13503,54.174,0,0,0,0,0.0063341,0
13234,54.3,20.097,0,0.014145,0,13503,54.174,0,0,0,0,0.0063341,0
13236,54.3,20.099,0,0.013759,0,13503,54.174,0,0,0,0,0.0063818,0
13237,54.3,20.1,0,0.013527,0,13503,54.174,0,0,0,0,0.0064107,0
13237,54.3,20.1,0,0.013527,0,13503,54.174,0,0,0,0,0.0064107,0
13237,54.3,20.1,0,0.01345,0,13503,54.174,0,0,0,0,0.0064204,0
13239,54.3,20.101,0,0.01314,0,13503,54.174,0,0,0,0,0.0064596,0
13239,54.3,20.101,0,0.01314,0,13503,54.174,0,0,0,0,0.0064596,0
13239,54.3,20.101,0,0.01314,0,13503,54.174,0,0,0,0,0.0064596,0
13239,54.3,20.101,0,0.01314,0,13503,54.174,0,0,0,0,0.0064596,0
13239,54.3,20.101,0,0.01314,0,13503,54.174,0,0,0,0,0.0064596,0
13239,54.3,20.101,0,0.01314,0,13503,54.174,0,0,0,0,0.0064596,0
13239,54.3,20.101,0,0.01314,0,13503,54.174,0,0,0,0,0.0064596,0
13239,54.3,20.101,0,0.01314,0,13503,54.174,0,0,0,0,0.0064596,0
13239,54.3,20.101,0,0.01314,0,13503,54.174,0,0,0,0,0.0064596,0
13239,54.3,20.101,0,0.01314,0,13503,54.174,0,0,0,0,0.0064596,0
13239,54.3,20.101,0,0.01314,0,13503,54.174,0,0,0,0,0.0064596,0
13239,54.3,20.101,0,0.01314,0,13503,54.174,0,0,0,0,0.0064596,0
13239,54.3,20.101,0,0.01314,0,13503,54.174,0,0,0,0,0.0064596,0
13239,54.3,20.101,0,0.01314,0,13503,54.174,0,0,0,0,0.0064596,0
13239,54.3,20.101,0,0.01314,0,13503,54.174,0,0,0,0,0.0064596,0
13239,54.3,20.101,0,0.01314,0,13503,54.174,0,0,0,0,0.0064596,0
13239,54.3,20.101,0,0.01314,0,13503,54.174,0,0,0,0,0.0064596,0
13241,54.3,20.102,0,0.012752,0,13503,54.174,0,0,0,0,0.0065091,0
13241,54.3,20.102,0,0.012752,0,13503,54.174,0,0,0,0,0.0065091,0
13242,54.3,20.103,0,0.012597,0,13503,54.174,0,0,0,0,0.0065292,0
13242,54.3,20.103,0,0.012519,0,13503,54.174,0,0,0,0,0.0065392,0
13242,54.3,20.103,0,0.012519,0,13503,54.174,0,0,0,0,0.0065392,0
13242,54.3,20.103,0,0.012519,0,13503,54.174,0,0,0,0,0.0065392,0
13242,54.3,20.103,0,0.012519,0,13503,54.174,0,0,0,0,0.0065392,0
13242,54.3,20.103,0,0.012519,0,13503,54.174,0,0,0,0,0.0065392,0
13242,54.3,20.103,0,0.012519,0,13503,54.174,0,0,0,0,0.0065392,0
13242,54.3,20.103,0,0.012519,0,13503,54.174,0,0,0,0,0.0065392,0
13242,54.3,20.103,0,0.012519,0,13503,54.174,0,0,0,0,0.0065392,0
13242,54.3,20.103,0,0.012519,0,13503,54.174,0,0,0,0,0.0065392,0
13242,54.3,20.103,0,0.012519,0,13503,54.174,0,0,0,0,0.0065392,0
13242,54.3,20.103,0,0.012519,0,13503,54.174,0,0,0,0,0.0065392,0
13242,54.3,20.103,0,0.012519,0,13503,54.174,0,0,0,0,0.0065392,0
13242,54.3,20.103,0,0.012519,0,13503,54.174,0,0,0,0,0.0065392,0
13242,54.3,20.103,0,0.012519,0,13503,54.174,0,0,0,0,0.0065392,0
13242,54.3,20.103,0,0.012519,0,13503,54.174,0,0,0,0,0.0065392,0
13242,54.3,20.103,0,0.012519,0,13503,54.174,0,0,0,0,0.0065392,0
13242,54.3,20.103,0,0.012519,0,13503,54.174,0,0,0,0,0.0065392,0
13242,54.3,20.103,0,0.012519,0,13503,54.174,0,0,0,0,0.0065392,0
13244,54.3,20.104,0,0.01213,0,13503,54.174,0,0,0,0,0.00659,0
13244,54.3,20.104,0,0.01213,0,13503,54.174,0,0,0,0,0.00659,0
13244,54.3,20.104,0,0.01213,0,13503,54.174,0,0,0,0,0.00659,0
13244,54.3,20.104,0,0.01213,0,13503,54.174,0,0,0,0,0.00659,0
13248,54.3,20.106,0,0.011504,0,13503,54.174,0,0,0,0,0.006673,0
13248,54.3,20.106,0,0.011504,0,13503,54.174,0,0,0,0,0.006673,0
13248,54.3,20.106,0,0.011504,0,13503,54.174,0,0,0,0,0.006673,0
13248,54.3,20.106,0,0.011504,0,13503,54.174,0,0,0,0,0.006673,0
13248,54.3,20.106,0,0.011504,0,13503,54.174,0,0,0,0,0.006673,0
13248,54.3,20.106,0,0.011504,0,13503,54.174,0,0,0,0,0.006673,0
13248,54.3,20.106,0,0.011504,0,13503,54.174,0,0,0,0,0.006673,0
13248,54.3,20.106,0,0.011504,0,13503,54.174,0,0,0,0,0.006673,0
13248,54.3,20.106,0,0.011504,0,13503,54.174,0,0,0,0,0.006673,0
13248,54.3,20.106,0,0.011504,0,13503,54.174,0,0,0,0,0.006673,0
13248,54.3,20.106,0,0.011504,0,13503,54.174,0,0,0,0,0.006673,0
13248,54.3,20.106,0,0.011504,0,13503,54.174,0,0,0,0,0.006673,0
13248,54.3,20.106,0,0.011504,0,13503,54.174,0,0,0,0,0.006673,0
13248,54.3,20.106,0,0.011504,0,13503,54.174,0,0,0,0,0.006673,0
13248,54.3,20.106,0,0.011504,0,13503,54.174,0,0,0,0,0.006673,0
13248,54.3,20.106,0,0.011504,0,13503,54.174,0,0,0,0,0.006673,0
13248,54.3,20.106,0,0.011504,0,13503,54.174,0,0,0,0,0.006673,0
13248,54.3,20.106,0,0.011504,0,13503,54.174,0,0,0,0,0.006673,0
13249,54.3,20.107,0,0.011269,0,13503,54.174,0,0,0,0,0.0067047,0
13249,54.3,20.107,0,0.011269,0,13503,54.174,0,0,0,0,0.0067047,0
13249,54.3,20.107,0,0.011269,0,13503,54.174,0,0,0,0,0.0067047,0
13251,54.3,20.108,0,0.010876,0,13503,54.174,0,0,0,0,0.0067581,0
13252,54.3,20.109,0,0.01064,0,13503,54.174,0,0,0,0,0.0067906,0
13252,54.3,20.109,0,0.010561,0,13503,54.174,0,0,0,0,0.0068015,0
13252,54.3,20.109,0,0.010561,0,13503,54.174,0,0,0,0,0.0068015,0
13252,54.3,20.109,0,0.010561,0,13503,54.174,0,0,0,0,0.0068015,0
13252,54.3,20.109,0,0.010561,0,13503,54.174,0,0,0,0,0.0068015,0
13252,54.3,20.109,0,0.010561,0,13503,54.174,0,0,0,0,0.0068015,0
13252,54.3,20.109,0,0.010561,0,13503,54.174,0,0,0,0,0.0068015,0
13252,54.3,20.109,0,0.010561,0,13503,54.174,0,0,0,0,0.0068015,0
13252,54.3,20.109,0,0.010561,0,13503,54.174,0,0,0,0,0.0068015,0
13252,54.3,20.109,0,0.010561,0,13503,54.174,0,0,0,0,0.0068015,0
13252,54.3,20.109,0,0.010561,0,13503,54.174,0,0,0,0,0.0068015,0
13252,54.3,20.109,0,0.010561,0,13503,54.174,0,0,0,0,0.0068015,0
13252,54.3,20.109,0,0.010561,0,13503,54.174,0,0,0,0,0.0068015,0
13252,54.3,20.109,0,0.010561,0,13503,54.174,0,0,0,0,0.0068015,0
13252,54.3,20.109,0,0.010561,0,13503,54.174,0,0,0,0,0.0068015,0
13252,54.3,20.109,0,0.010561,0,13503,54.174,0,0,0,0,0.0068015,0
13252,54.3,20.109,0,0.010561,0,13503,54.174,0,0,0,0,0.0068015,0
13252,54.3,20.109,0,0.010561,0,13503,54.174,0,0,0,0,0.0068015,0
13252,54.3,20.109,0,0.010561,0,13503,54.174,0,0,0,0,0.0068015,0
13252,54.3,20.109,0,0.010561,0,13503,54.174,0,0,0,0,0.0068015,0
13252,54.3,20.109,0,0.010561,0,13503,54.174,0,0,0,0,0.0068015,0
13253,54.3,20.109,0,0.010403,0,13503,54.174,0,0,0,0,0.0068234,0
13254,54.3,20.109,0,0.010325,0,13503,54.174,0,0,0,0,0.0068344,0
13255,54.3,20.11,0,0.010009,0,13503,54.174,0,0,0,0,0.0068787,0
13255,54.3,20.11,0,0.010009,0,13503,54.174,0,0,0,0,0.0068787,0
13257,54.3,20.111,0,0.009692,0,13503,54.174,0,0,0,0,0.0069237,0
13257,54.3,20.111,0,0.009692,0,13503,54.174,0,0,0,0,0.0069237,0
13257,54.3,20.111,0,0.009692,0,13503,54.174,0,0,0,0,0.0069237,0
13257,54.3,20.111,0,0.009692,0,13503,54.174,0,0,0,0,0.0069237,0
13257,54.3,20.111,0,0.009692,0,13503,54.174,0,0,0,0,0.0069237,0
13257,54.3,20.111,0,0.009692,0,13503,54.174,0,0,0,0,0.0069237,0
13257,54.3,20.111,0,0.009692,0,13503,54.174,0,0,0,0,0.0069237,0
13257,54.3,20.111,0,0.009692,0,13503,54.174,0,0,0,0,0.0069237,0
13257,54.3,20.111,0,0.009692,0,13503,54.174,0,0,0,0,0.0069237,0
13257,54.3,20.111,0,0.009692,0,13503,54.174,0,0,0,0,0.0069237,0
13258,54.3,20.111,0,0.0095335,0,13503,54.174,0,0,0,0,0.0069464,0
13258,54.3,20.111,0,0.0095335,0,13503,54.174,0,0,0,0,0.0069464,0
13258,54.3,20.111,0,0.0095335,0,13503,54.174,0,0,0,0,0.0069464,0
13258,54.3,20.111,0,0.0095335,0,13503,54.174,0,0,0,0,0.0069464,0
13258,54.3,20.111,0,0.0095335,0,13503,54.174,0,0,0,0,0.0069464,0
13258,54.3,20.111,0,0.0095335,0,13503,54.174,0,0,0,0,0.0069464,0
13258,54.3,20.111,0,0.0095335,0,13503,54.174,0,0,0,0,0.0069464,0
13258,54.3,20.111,0,0.0095335,0,13503,54.174,0,0,0,0,0.0069464,0
13258,54.3,20.111,0,0.0095335,0,13503,54.174,0,0,0,0,0.0069464,0
13258,54.3,20.111,0,0.0095335,0,13503,54.174,0,0,0,0,0.0069464,0
13258,54.3,20.111,0,0.0095335,0,13503,54.174,0,0,0,0,0.0069464,0
13260,54.3,20.112,0,0.0091364,0,13503,54.174,0,0,0,0,0.0070038,0
13260,54.3,20.112,0,0.0091364,0,13503,54.174,0,0,0,0,0.0070038,0
13261,54.3,20.113,0,0.0088188,0,13503,54.174,0,0,0,0,0.0070504,0
13262,54.3,20.113,0,0.0087389,0,13503,54.174,0,0,0,0,0.0070621,0
13262,54.3,20.113,0,0.0086592,0,13503,54.174,0,0,0,0,0.0070739,0
13262,54.3,20.113,0,0.0086592,0,13503,54.174,0,0,0,0,0.0070739,0
13262,54.3,20.113,0,0.0086592,0,13503,54.174,0,0,0,0,0.0070739,0
13262,54.3,20.113,0,0.0086592,0,13503,54.174,0,0,0,0,0.0070739,0
13262,54.3,20.113,0,0.0086592,0,13503,54.174,0,0,0,0,0.0070739,0
13262,54.3,20.113,0,0.0086592,0,13503,54.174,0,0,0,0,0.0070739,0
13262,54.3,20.114,0,0.0085796,0,13503,54.174,0,0,0,0,0.0070857,0
13262,54.3,20.114,0,0.0085796,0,13503,54.174,0,0,0,0,0.0070857,0
13262,54.3,20.114,0,0.0085796,0,13503,54.174,0,0,0,0,0.0070857,0
13262,54.3,20.114,0,0.0085796,0,13503,54.174,0,0,0,0,0.0070857,0
13262,54.3,20.114,0,0.0085796,0,13503,54.174,0,0,0,0,0.0070857,0
13262,54.3,20.114,0,0.0085796,0,13503,54.174,0,0,0,0,0.0070857,0
13262,54.3,20.114,0,0.0085796,0,13503,54.174,0,0,0,0,0.0070857,0
13262,54.3,20.114,0,0.0085796,0,13503,54.174,0,0,0,0,0.0070857,0
13263,54.3,20.114,0,0.0085002,0,13503,54.174,0,0,0,0,0.0070976,0
13263,54.3,20.114,0,0.0085002,0,13503,54.174,0,0,0,0,0.0070976,0
13263,54.3,20.114,0,0.0085002,0,13503,54.174,0,0,0,0,0.0070976,0
13263,54.3,20.114,0,0.0085002,0,13503,54.174,0,0,0,0,0.0070976,0
13263,54.3,20.114,0,0.0085002,0,13503,54.174,0,0,0,0,0.0070976,0
13263,54.3,20.114,0,0.0085002,0,13503,54.174,0,0,0,0,0.0070976,0
13264,54.3,20.114,0,0.0082607,0,13503,54.174,0,0,0,0,0.0071334,0
13264,54.3,20.114,0,0.0082607,0,13503,54.174,0,0,0,0,0.0071334,0
13264,54.3,20.114,0,0.0081808,0,13503,54.174,0,0,0,0,0.0071454,0
13264,54.3,20.114,0,0.0081808,0,13503,54.174,0,0,0,0,0.0071454,0
13264,54.3,20.114,0,0.0081808,0,13503,54.174,0,0,0,0,0.0071454,0
13267,54.3,20.115,0,0.0077013,0,13503,54.174,0,0,0,0,0.0072185,0
13267,54.3,20.115,0,0.0077013,0,13503,54.174,0,0,0,0,0.0072185,0
13267,54.3,20.115,0,0.0077013,0,13503,54.174,0,0,0,0,0.0072185,0
13267,54.3,20.116,0,0.0076214,0,13503,54.174,0,0,0,0,0.0072308,0
13267,54.3,20.116,0,0.0076214,0,13503,54.174,0,0,0,0,0.0072308,0
13267,54.3,20.116,0,0.0076214,0,13503,54.174,0,0,0,0,0.0072308,0
13267,54.3,20.116,0,0.0076214,0,13503,54.174,0,0,0,0,0.0072308,0
13267,54.3,20.116,0,0.0076214,0,13503,54.174,0,0,0,0,0.0072308,0
13267,54.3,20.116,0,0.0076214,0,13503,54.174,0,0,0,0,0.0072308,0
13267,54.3,20.116,0,0.0076214,0,13503,54.174,0,0,0,0,0.0072308,0
13267,54.3,20.116,0,0.0076214,0,13503,54.174,0,0,0,0,0.0072308,0
13267,54.3,20.116,0,0.0076214,0,13503,54.174,0,0,0,0,0.0072308,0
13267,54.3,20.116,0,0.0076214,0,13503,54.174,0,0,0,0,0.0072308,0
13267,54.3,20.116,0,0.0076214,0,13503,54.174,0,0,0,0,0.0072308,0
13267,54.3,20.116,0,0.0076214,0,13503,54.174,0,0,0,0,0.0072308,0
13267,54.3,20.116,0,0.0076214,0,13503,54.174,0,0,0,0,0.0072308,0
13268,54.3,20.116,0,0.0073825,0,13503,54.174,0,0,0,0,0.007268,0
13269,54.3,20.116,0,0.0073021,0,13503,54.174,0,0,0,0,0.0072805,0
13269,54.3,20.116,0,0.0073021,0,13503,54.174,0,0,0,0,0.0072805,0
13270,54.3,20.117,0,0.0070617,0,13503,54.174,0,0,0,0,0.0073182,0
13270,54.3,20.117,0,0.0070617,0,13503,54.174,0,0,0,0,0.0073182,0
13270,54.3,20.117,0,0.0070617,0,13503,54.174,0,0,0,0,0.0073182,0
13270,54.3,20.117,0,0.0070617,0,13503,54.174,0,0,0,0,0.0073182,0
13270,54.3,20.117,0,0.0070617,0,13503,54.174,0,0,0,0,0.0073182,0
13272,54.3,20.117,0,0.0067412,0,13503,54.174,0,0,0,0,0.0073691,0
13272,54.3,20.117,0,0.0067412,0,13503,54.174,0,0,0,0,0.0073691,0
13272,54.3,20.117,0,0.0067412,0,13503,54.174,0,0,0,0,0.0073691,0
13272,54.3,20.117,0,0.0067412,0,13503,54.174,0,0,0,0,0.0073691,0
13272,54.3,20.117,0,0.0067412,0,13503,54.174,0,0,0,0,0.0073691,0
13272,54.3,20.117,0,0.0067412,0,13503,54.174,0,0,0,0,0.0073691,0
13272,54.3,20.117,0,0.0067412,0,13503,54.174,0,0,0,0,0.0073691,0
13272,54.3,20.117,0,0.0067412,0,13503,54.174,0,0,0,0,0.0073691,0
13272,54.3,20.117,0,0.0067412,0,13503,54.174,0,0,0,0,0.0073691,0
13272,54.3,20.117,0,0.0067412,0,13503,54.174,0,0,0,0,0.0073691,0
13272,54.3,20.117,0,0.0065807,0,13503,54.174,0,0,0,0,0.0073948,0
13272,54.3,20.117,0,0.0065807,0,13503,54.174,0,0,0,0,0.0073948,0
13272,54.3,20.117,0,0.0065807,0,13503,54.174,0,0,0,0,0.0073948,0
13273,54.3,20.117,0,0.0065007,0,13503,54.174,0,0,0,0,0.0074077,0
13273,54.3,20.117,0,0.0065007,0,13503,54.174,0,0,0,0,0.0074077,0
13273,54.3,20.117,0,0.0065007,0,13503,54.174,0,0,0,0,0.0074077,0
13274,54.3,20.118,0,0.0061789,0,13503,54.174,0,0,0,0,0.0074599,0
13275,54.3,20.118,0,0.0060183,0,13503,54.174,0,0,0,0,0.0074863,0
13275,54.3,20.118,0,0.0060183,0,13503,54.174,0,0,0,0,0.0074863,0
13275,54.3,20.118,0,0.0060183,0,13503,54.174,0,0,0,0,0.0074863,0
13275,54.3,20.118,0,0.0060183,0,13503,54.174,0,0,0,0,0.0074863,0
13275,54.3,20.118,0,0.0060183,0,13503,54.174,0,0,0,0,0.0074863,0
13275,54.3,20.118,0,0.0060183,0,13503,54.174,0,0,0,0,0.0074863,0
13275,54.3,20.118,0,0.0060183,0,13503,54.174,0,0,0,0,0.0074863,0
13275,54.3,20.118,0,0.0060183,0,13503,54.174,0,0,0,0,0.0074863,0
13275,54.3,20.118,0,0.0060183,0,13503,54.174,0,0,0,0,0.0074863,0
13275,54.3,20.118,0,0.0060183,0,13503,54.174,0,0,0,0,0.0074863,0
13275,54.3,20.118,0,0.0060183,0,13503,54.174,0,0,0,0,0.0074863,0
13275,54.3,20.118,0,0.0060183,0,13503,54.174,0,0,0,0,0.0074863,0
13275,54.3,20.118,0,0.0060183,0,13503,54.174,0,0,0,0,0.0074863,0
13276,54.3,20.118,0,0.0058573,0,13503,54.174,0,0,0,0,0.0075128,0
13276,54.3,20.118,0,0.0058573,0,13503,54.174,0,0,0,0,0.0075128,0
13276,54.3,20.118,0,0.0058573,0,13503,54.174,0,0,0,0,0.0075128,0
13276,54.3,20.118,0,0.0058573,0,13503,54.174,0,0,0,0,0.0075128,0
13276,54.3,20.118,0,0.0058573,0,13503,54.174,0,0,0,0,0.0075128,0
13276,54.3,20.118,0,0.0058573,0,13503,54.174,0,0,0,0,0.0075128,0
13277,54.3,20.119,0,0.0056152,0,13503,54.174,0,0,0,0,0.007553,0
13277,54.3,20.119,0,0.0056152,0,13503,54.174,0,0,0,0,0.007553,0
13277,54.3,20.119,0,0.0056152,0,13503,54.174,0,0,0,0,0.007553,0
13280,54.3,20.119,0,0.0051318,0,13503,54.174,0,0,0,0,0.0076346,0
13280,54.3,20.119,0,0.0051318,0,13503,54.174,0,0,0,0,0.0076346,0
13280,54.3,20.119,0,0.0051318,0,13503,54.174,0,0,0,0,0.0076346,0
13280,54.3,20.119,0,0.0051318,0,13503,54.174,0,0,0,0,0.0076346,0
13280,54.3,20.12,0,0.0050512,0,13503,54.174,0,0,0,0,0.0076484,0
13280,54.3,20.12,0,0.0050512,0,13503,54.174,0,0,0,0,0.0076484,0
13280,54.3,20.12,0,0.0050512,0,13503,54.174,0,0,0,0,0.0076484,0
13280,54.3,20.12,0,0.0050512,0,13503,54.174,0,0,0,0,0.0076484,0
13280,54.3,20.12,0,0.0050512,0,13503,54.174,0,0,0,0,0.0076484,0
13280,54.3,20.12,0,0.0050512,0,13503,54.174,0,0,0,0,0.0076484,0
13280,54.3,20.12,0,0.0050512,0,13503,54.174,0,0,0,0,0.0076484,0
13281,54.3,20.12,0,0.0049707,0,13503,54.174,0,0,0,0,0.0076622,0
13281,54.3,20.12,0,0.0049707,0,13503,54.174,0,0,0,0,0.0076622,0
13281,54.3,20.12,0,0.0049707,0,13503,54.174,0,0,0,0,0.0076622,0
13281,54.3,20.12,0,0.0049707,0,13503,54.174,0,0,0,0,0.0076622,0
13281,54.3,20.12,0,0.0049707,0,13503,54.174,0,0,0,0,0.0076622,0
13281,54.3,20.12,0,0.0048092,0,13503,54.174,0,0,0,0,0.00769,0
13281,54.3,20.12,0,0.0048092,0,13503,54.174,0,0,0,0,0.00769,0
13281,54.3,20.12,0,0.0048092,0,13503,54.174,0,0,0,0,0.00769,0
13283,54.3,20.12,0,0.0045664,0,13503,54.174,0,0,0,0,0.0077321,0
13283,54.3,20.12,0,0.0045664,0,13503,54.174,0,0,0,0,0.0077321,0
13284,54.3,20.12,0,0.004325,0,13503,54.174,0,0,0,0,0.0077747,0
13284,54.3,20.12,0,0.004325,0,13503,54.174,0,0,0,0,0.0077747,0
13284,54.3,20.12,0,0.004325,0,13503,54.174,0,0,0,0,0.0077747,0
13284,54.3,20.12,0,0.004325,0,13503,54.174,0,0,0,0,0.0077747,0
13284,54.3,20.12,0,0.004325,0,13503,54.174,0,0,0,0,0.0077747,0
13284,54.3,20.12,0,0.0042437,0,13503,54.174,0,0,0,0,0.007789,0
13284,54.3,20.12,0,0.0042437,0,13503,54.174,0,0,0,0,0.007789,0
13284,54.3,20.12,0,0.0042437,0,13503,54.174,0,0,0,0,0.007789,0
13284,54.3,20.12,0,0.0042437,0,13503,54.174,0,0,0,0,0.007789,0
13284,54.3,20.12,0,0.0042437,0,13503,54.174,0,0,0,0,0.007789,0
13284,54.3,20.12,0,0.0042437,0,13503,54.174,0,0,0,0,0.007789,0
13284,54.3,20.12,0,0.0042437,0,13503,54.174,0,0,0,0,0.007789,0
13284,54.3,20.12,0,0.0042437,0,13503,54.174,0,0,0,0,0.007789,0
13284,54.3,20.12,0,0.0042437,0,13503,54.174,0,0,0,0,0.007789,0
13284,54.3,20.12,0,0.0042437,0,13503,54.174,0,0,0,0,0.007789,0
13284,54.3,20.12,0,0.0042437,0,13503,54.174,0,0,0,0,0.007789,0
13285,54.3,20.121,0,0.0040008,0,13503,54.174,0,0,0,0,0.0078322,0
13285,54.3,20.121,0,0.0040008,0,13503,54.174,0,0,0,0,0.0078322,0
13287,54.3,20.121,0,0.0037582,0,13503,54.174,0,0,0,0,0.0078759,0
13287,54.3,20.121,0,0.0035957,0,13503,54.174,0,0,0,0,0.0079053,0
13288,54.3,20.121,0,0.0035147,0,13503,54.174,0,0,0,0,0.00792,0
13288,54.3,20.121,0,0.0035147,0,13503,54.174,0,0,0,0,0.00792,0
13288,54.3,20.121,0,0.0034338,0,13503,54.174,0,0,0,0,0.0079349,0
13288,54.3,20.121,0,0.0034338,0,13503,54.174,0,0,0,0,0.0079349,0
13288,54.3,20.121,0,0.0034338,0,13503,54.174,0,0,0,0,0.0079349,0
13289,54.3,20.121,0,0.0033531,0,13503,54.174,0,0,0,0,0.0079498,0
13289,54.3,20.121,0,0.0033531,0,13503,54.174,0,0,0,0,0.0079498,0
13289,54.3,20.121,0,0.0033531,0,13503,54.174,0,0,0,0,0.0079498,0
13289,54.3,20.121,0,0.0033531,0,13503,54.174,0,0,0,0,0.0079498,0
13289,54.3,20.121,0,0.0033531,0,13503,54.174,0,0,0,0,0.0079498,0
13289,54.3,20.121,0,0.0033531,0,13503,54.174,0,0,0,0,0.0079498,0
13289,54.3,20.121,0,0.0033531,0,13503,54.174,0,0,0,0,0.0079498,0
13289,54.3,20.121,0,0.0033531,0,13503,54.174,0,0,0,0,0.0079498,0
13289,54.3,20.121,0,0.0033531,0,13503,54.174,0,0,0,0,0.0079498,0
13289,54.3,20.121,0,0.0032726,0,13503,54.174,0,0,0,0,0.0079647,0
13289,54.3,20.121,0,0.0032726,0,13503,54.174,0,0,0,0,0.0079647,0
13289,54.3,20.121,0,0.0031911,0,13503,54.174,0,0,0,0,0.0079797,0
13289,54.3,20.121,0,0.0031911,0,13503,54.174,0,0,0,0,0.0079797,0
13291,54.3,20.122,0,0.0028666,0,13503,54.174,0,0,0,0,0.0080403,0
13292,54.3,20.122,0,0.0027053,0,13503,54.174,0,0,0,0,0.0080709,0
13292,54.3,20.122,0,0.0027053,0,13503,54.174,0,0,0,0,0.0080709,0
13292,54.3,20.122,0,0.0027053,0,13503,54.174,0,0,0,0,0.0080709,0
13292,54.3,20.122,0,0.0027053,0,13503,54.174,0,0,0,0,0.0080709,0
13292,54.3,20.122,0,0.0027053,0,13503,54.174,0,0,0,0,0.0080709,0
13292,54.3,20.122,0,0.0027053,0,13503,54.174,0,0,0,0,0.0080709,0
13292,54.3,20.122,0,0.0027053,0,13503,54.174,0,0,0,0,0.0080709,0
13292,54.3,20.122,0,0.0027053,0,13503,54.174,0,0,0,0,0.0080709,0
13292,54.3,20.122,0,0.0027053,0,13503,54.174,0,0,0,0,0.0080709,0
13292,54.3,20.122,0,0.0027053,0,13503,54.174,0,0,0,0,0.0080709,0
13293,54.3,20.122,0,0.0025424,0,13503,54.174,0,0,0,0,0.0081018,0
13293,54.3,20.122,0,0.0025424,0,13503,54.174,0,0,0,0,0.0081018,0
13293,54.3,20.122,0,0.0025424,0,13503,54.174,0,0,0,0,0.0081018,0
13293,54.3,20.122,0,0.0025424,0,13503,54.174,0,0,0,0,0.0081018,0
13293,54.3,20.122,0,0.0025424,0,13503,54.174,0,0,0,0,0.0081018,0
13293,54.3,20.122,0,0.0025424,0,13503,54.174,0,0,0,0,0.0081018,0
13293,54.3,20.122,0,0.0025424,0,13503,54.174,0,0,0,0,0.0081018,0
13293,54.3,20.122,0,0.0025424,0,13503,54.174,0,0,0,0,0.0081018,0
13293,54.3,20.122,0,0.0025424,0,13503,54.174,0,0,0,0,0.0081018,0
13293,54.3,20.122,0,0.0025424,0,13503,54.174,0,0,0,0,0.0081018,0
13293,54.3,20.122,0,0.0025424,0,13503,54.174,0,0,0,0,0.0081018,0
13293,54.3,20.122,0,0.0025424,0,13503,54.174,0,0,0,0,0.0081018,0
13293,54.3,20.122,0,0.0025424,0,13503,54.174,0,0,0,0,0.0081018,0
13293,54.3,20.122,0,0.0025424,0,13503,54.174,0,0,0,0,0.0081018,0
13295,54.3,20.122,0,0.0021367,0,13503,54.174,0,0,0,0,0.00818,0
13295,54.3,20.122,0,0.0021367,0,13503,54.174,0,0,0,0,0.00818,0
13296,54.3,20.122,0,0.0018925,0,13503,54.174,0,0,0,0,0.0082277,0
13297,54.3,20.122,0,0.0016497,0,13503,54.174,0,0,0,0,0.0082759,0
13297,54.3,20.122,0,0.0016497,0,13503,54.174,0,0,0,0,0.0082759,0
13297,54.3,20.122,0,0.0016497,0,13503,54.174,0,0,0,0,0.0082759,0
13297,54.3,20.122,0,0.0016497,0,13503,54.174,0,0,0,0,0.0082759,0
13297,54.3,20.122,0,0.0016497,0,13503,54.174,0,0,0,0,0.0082759,0
13297,54.3,20.122,0,0.0016497,0,13503,54.174,0,0,0,0,0.0082759,0
13297,54.3,20.122,0,0.0016497,0,13503,54.174,0,0,0,0,0.0082759,0
13297,54.3,20.122,0,0.0016497,0,13503,54.174,0,0,0,0,0.0082759,0
13297,54.3,20.122,0,0.0016497,0,13503,54.174,0,0,0,0,0.0082759,0
13297,54.3,20.122,0,0.0016497,0,13503,54.174,0,0,0,0,0.0082759,0
13297,54.3,20.122,0,0.0016497,0,13503,54.174,0,0,0,0,0.0082759,0
13297,54.3,20.122,0,0.0016497,0,13503,54.174,0,0,0,0,0.0082759,0
13297,54.3,20.122,0,0.0016497,0,13503,54.174,0,0,0,0,0.0082759,0
13297,54.3,20.122,0,0.0016497,0,13503,54.174,0,0,0,0,0.0082759,0
13297,54.3,20.122,0,0.0016497,0,13503,54.174,0,0,0,0,0.0082759,0
13297,54.3,20.122,0,0.0016497,0,13503,54.174,0,0,0,0,0.0082759,0
13297,54.3,20.122,0,0.0016497,0,13503,54.174,0,0,0,0,0.0082759,0
13297,54.3,20.122,0,0.0016497,0,13503,54.174,0,0,0,0,0.0082759,0
13297,54.3,20.122,0,0.0016497,0,13503,54.174,0,0,0,0,0.0082759,0
13297,54.3,20.122,0,0.0016497,0,13503,54.174,0,0,0,0,0.0082759,0
13297,54.3,20.122,0,0.0016497,0,13503,54.174,0,0,0,0,0.0082759,0
13297,54.3,20.122,0,0.0016497,0,13503,54.174,0,0,0,0,0.0082759,0
13297,54.3,20.122,0,0.0016497,0,13503,54.174,0,0,0,0,0.0082759,0
13299,54.3,20.123,0,0.0011616,0,13503,54.174,0,0,0,0,0.008374,0
13301,54.3,20.123,0,0.00091746,0,13503,54.174,0,0,0,0,0.008424,0
13301,54.3,20.123,0,0.00091746,0,13503,54.174,0,0,0,0,0.008424,0
13301,54.3,20.123,0,0.00091746,0,13503,54.174,0,0,0,0,0.008424,0
13301,54.3,20.123,0,0.00091746,0,13503,54.174,0,0,0,0,0.008424,0
13301,54.3,20.123,0,0.00091746,0,13503,54.174,0,0,0,0,0.008424,0
13301,54.3,20.123,0,0.00091746,0,13503,54.174,0,0,0,0,0.008424,0
13301,54.3,20.123,0,0.00091746,0,13503,54.174,0,0,0,0,0.008424,0
13301,54.3,20.123,0,0.00091746,0,13503,54.174,0,0,0,0,0.008424,0
13301,54.3,20.123,0,0.00091746,0,13503,54.174,0,0,0,0,0.008424,0
13301,54.3,20.123,0,0.00091746,0,13503,54.174,0,0,0,0,0.008424,0
13301,54.3,20.123,0,0.00091746,0,13503,54.174,0,0,0,0,0.008424,0
13301,54.3,20.123,0,0.00091746,0,13503,54.174,0,0,0,0,0.008424,0
13303,54.3,20.123,0,0.00043014,0,13503,54.174,0,0,0,0,0.0085257,0
13303,54.3,20.123,0,0.00043014,0,13503,54.174,0,0,0,0,0.0085257,0
13303,54.3,20.123,0,0.00043014,0,13503,54.174,0,0,0,0,0.0085257,0
13303,54.3,20.123,0,0.00043014,0,13503,54.174,0,0,0,0,0.0085257,0
13303,54.3,20.123,0,0.00043014,0,13503,54.174,0,0,0,0,0.0085257,0
13303,54.3,20.123,0,0.00043014,0,13503,54.174,0,0,0,0,0.0085257,0
13303,54.3,20.123,0,0.00043014,0,13503,54.174,0,0,0,0,0.0085257,0
13303,54.3,20.123,0,0.00043014,0,13503,54.174,0,0,0,0,0.0085257,0
13303,54.3,20.123,0,0.00043014,0,13503,54.174,0,0,0,0,0.0085257,0
13303,54.3,20.123,0,0.00043014,0,13503,54.174,0,0,0,0,0.0085257,0
13303,54.3,20.123,0,0.00043014,0,13503,54.174,0,0,0,0,0.0085257,0
13303,54.3,20.123,0,0.00043014,0,13503,54.174,0,0,0,0,0.0085257,0
13304,54.3,20.123,0,0.00018583,0,13503,54.174,0,0,0,0,0.0085775,0
13305,54.3,20.123,0,-0.00013805,0,13503,54.174,0,0,0,0,0.0086299,0
13305,54.3,20.123,0,-0.00013805,0,13503,54.174,0,0,0,0,0.0086299,0
13307,54.3,20.123,0,-0.00090124,0,13503,54.174,0,0,0,0,0.0087008,0
13307,54.3,20.123,0,-0.00090124,0,13503,54.174,0,0,0,0,0.0087008,0
13307,54.3,20.123,0,-0.00090124,0,13503,54.174,0,0,0,0,0.0087008,0
13307,54.3,20.123,0,-0.00090124,0,13503,54.174,0,0,0,0,0.0087008,0
13307,54.3,20.123,0,-0.00090124,0,13503,54.174,0,0,0,0,0.0087008,0
13307,54.3,20.123,0,-0.00090124,0,13503,54.174,0,0,0,0,0.0087008,0
13307,54.3,20.123,0,-0.00090124,0,13503,54.174,0,0,0,0,0.0087008,0
13307,54.3,20.123,0,-0.00090124,0,13503,54.174,0,0,0,0,0.0087008,0
13307,54.3,20.123,0,-0.00090124,0,13503,54.174,0,0,0,0,0.0087008,0
13308,54.3,20.123,0,-0.0014451,0,13503,54.174,0,0,0,0,0.0087547,0
13308,54.3,20.123,0,-0.0014451,0,13503,54.174,0,0,0,0,0.0087547,0
13308,54.3,20.123,0,-0.0014451,0,13503,54.174,0,0,0,0,0.0087547,0
13308,54.3,20.123,0,-0.0014451,0,13503,54.174,0,0,0,0,0.0087547,0
13308,54.3,20.123,0,-0.0014451,0,13503,54.174,0,0,0,0,0.0087547,0
13308,54.3,20.123,0,-0.0014451,0,13503,54.174,0,0,0,0,0.0087547,0
13308,54.3,20.123,0,-0.0014451,0,13503,54.174,0,0,0,0,0.0087547,0
13308,54.3,20.123,0,-0.0014451,0,13503,54.174,0,0,0,0,0.0087547,0
13308,54.3,20.123,0,-0.0014451,0,13503,54.174,0,0,0,0,0.0087547,0
13308,54.3,20.123,0,-0.0014451,0,13503,54.174,0,0,0,0,0.0087547,0
13308,54.3,20.123,0,-0.0014451,0,13503,54.174,0,0,0,0,0.0087547,0
13310,54.3,20.122,0,-0.0021269,0,13503,54.174,0,0,0,0,0.0088277,0
13310,54.3,20.122,0,-0.0021269,0,13503,54.174,0,0,0,0,0.0088277,0
13312,54.3,20.122,0,-0.0027672,0,13503,54.174,0,0,0,0,0.0089019,0
13312,54.3,20.122,0,-0.0027672,0,13503,54.174,0,0,0,0,0.0089019,0
13312,54.3,20.122,0,-0.0027672,0,13503,54.174,0,0,0,0,0.0089019,0
13312,54.3,20.122,0,-0.0027672,0,13503,54.174,0,0,0,0,0.0089019,0
13312,54.3,20.122,0,-0.0030727,0,13503,54.174,0,0,0,0,0.0089395,0
13312,54.3,20.122,0,-0.0030727,0,13503,54.174,0,0,0,0,0.0089395,0
13312,54.3,20.122,0,-0.0030727,0,13503,54.174,0,0,0,0,0.0089395,0
13312,54.3,20.122,0,-0.0030727,0,13503,54.174,0,0,0,0,0.0089395,0
13312,54.3,20.122,0,-0.0030727,0,13503,54.174,0,0,0,0,0.0089395,0
13313,54.3,20.122,0,-0.0032222,0,13503,54.174,0,0,0,0,0.0089584,0
13313,54.3,20.122,0,-0.0032222,0,13503,54.174,0,0,0,0,0.0089584,0
13313,54.3,20.122,0,-0.0032222,0,13503,54.174,0,0,0,0,0.0089584,0
13313,54.3,20.122,0,-0.0032222,0,13503,54.174,0,0,0,0,0.0089584,0
13313,54.3,20.122,0,-0.0032222,0,13503,54.174,0,0,0,0,0.0089584,0
13313,54.3,20.122,0,-0.0033712,0,13503,54.174,0,0,0,0,0.0089773,0
13313,54.3,20.122,0,-0.0033712,0,13503,54.174,0,0,0,0,0.0089773,0
13313,54.3,20.122,0,-0.0033712,0,13503,54.174,0,0,0,0,0.0089773,0
13314,54.3,20.122,0,-0.0038024,0,13503,54.174,0,0,0,0,0.0090348,0
13314,54.3,20.122,0,-0.0038024,0,13503,54.174,0,0,0,0,0.0090348,0
13316,54.3,20.122,0,-0.0042164,0,13503,54.174,0,0,0,0,0.009093,0
13316,54.3,20.122,0,-0.0042164,0,13503,54.174,0,0,0,0,0.009093,0
13316,54.3,20.122,0,-0.0042164,0,13503,54.174,0,0,0,0,0.009093,0
13316,54.3,20.122,0,-0.0042164,0,13503,54.174,0,0,0,0,0.009093,0
13316,54.3,20.122,0,-0.0042164,0,13503,54.174,0,0,0,0,0.009093,0
13316,54.3,20.122,0,-0.0042164,0,13503,54.174,0,0,0,0,0.009093,0
13316,54.3,20.122,0,-0.0042164,0,13503,54.174,0,0,0,0,0.009093,0
13316,54.3,20.122,0,-0.0042164,0,13503,54.174,0,0,0,0,0.009093,0
13316,54.3,20.122,0,-0.0042164,0,13503,54.174,0,0,0,0,0.009093,0
13316,54.3,20.122,0,-0.0042164,0,13503,54.174,0,0,0,0,0.009093,0
13316,54.3,20.121,0,-0.0044841,0,13503,54.174,0,0,0,0,0.0091322,0
13316,54.3,20.121,0,-0.0044841,0,13503,54.174,0,0,0,0,0.0091322,0
13316,54.3,20.121,0,-0.0044841,0,13503,54.174,0,0,0,0,0.0091322,0
13316,54.3,20.121,0,-0.0044841,0,13503,54.174,0,0,0,0,0.0091322,0
13316,54.3,20.121,0,-0.0044841,0,13503,54.174,0,0,0,0,0.0091322,0
13316,54.3,20.121,0,-0.0044841,0,13503,54.174,0,0,0,0,0.0091322,0
13316,54.3,20.121,0,-0.0044841,0,13503,54.174,0,0,0,0,0.0091322,0
13316,54.3,20.121,0,-0.0044841,0,13503,54.174,0,0,0,0,0.0091322,0
13316,54.3,20.121,0,-0.0044841,0,13503,54.174,0,0,0,0,0.0091322,0
13316,54.3,20.121,0,-0.0044841,0,13503,54.174,0,0,0,0,0.0091322,0
13318,54.3,20.121,0,-0.0050037,0,13503,54.174,0,0,0,0,0.0092116,0
13319,54.3,20.121,0,-0.0052556,0,13503,54.174,0,0,0,0,0.0092518,0
13319,54.3,20.121,0,-0.0052556,0,13503,54.174,0,0,0,0,0.0092518,0
13319,54.3,20.121,0,-0.0052556,0,13503,54.174,0,0,0,0,0.0092518,0
13319,54.3,20.121,0,-0.0052556,0,13503,54.174,0,0,0,0,0.0092518,0
13321,54.3,20.12,0,-0.0058632,0,13503,54.174,0,0,0,0,0.0093539,0
13321,54.3,20.12,0,-0.0058632,0,13503,54.174,0,0,0,0,0.0093539,0
13321,54.3,20.12,0,-0.0058632,0,13503,54.174,0,0,0,0,0.0093539,0
13321,54.3,20.12,0,-0.0058632,0,13503,54.174,0,0,0,0,0.0093539,0
13321,54.3,20.12,0,-0.0058632,0,13503,54.174,0,0,0,0,0.0093539,0
13321,54.3,20.12,0,-0.0058632,0,13503,54.174,0,0,0,0,0.0093539,0
13321,54.3,20.12,0,-0.0058632,0,13503,54.174,0,0,0,0,0.0093539,0
13321,54.3,20.12,0,-0.0058632,0,13503,54.174,0,0,0,0,0.0093539,0
13321,54.3,20.12,0,-0.0058632,0,13503,54.174,0,0,0,0,0.0093539,0
13321,54.3,20.12,0,-0.0058632,0,13503,54.174,0,0,0,0,0.0093539,0
13321,54.3,20.12,0,-0.0058632,0,13503,54.174,0,0,0,0,0.0093539,0
13321,54.3,20.12,0,-0.0058632,0,13503,54.174,0,0,0,0,0.0093539,0
13321,54.3,20.12,0,-0.0058632,0,13503,54.174,0,0,0,0,0.0093539,0
13321,54.3,20.12,0,-0.0058632,0,13503,54.174,0,0,0,0,0.0093539,0
13321,54.3,20.12,0,-0.0058632,0,13503,54.174,0,0,0,0,0.0093539,0
13321,54.3,20.12,0,-0.0058632,0,13503,54.174,0,0,0,0,0.0093539,0
13321,54.3,20.12,0,-0.0058632,0,13503,54.174,0,0,0,0,0.0093539,0
13321,54.3,20.12,0,-0.0058632,0,13503,54.174,0,0,0,0,0.0093539,0
13321,54.3,20.12,0,-0.0058632,0,13503,54.174,0,0,0,0,0.0093539,0
13322,54.3,20.12,0,-0.0063265,0,13503,54.174,0,0,0,0,0.0094373,0
13324,54.3,20.119,0,-0.0066615,0,13503,54.174,0,0,0,0,0.0095007,0
13325,54.3,20.119,0,-0.0069926,0,13503,54.174,0,0,0,0,0.0095651,0
13325,54.3,20.119,0,-0.0070995,0,13503,54.174,0,0,0,0,0.0095867,0
13325,54.3,20.119,0,-0.0070995,0,13503,54.174,0,0,0,0,0.0095867,0
13325,54.3,20.119,0,-0.0070995,0,13503,54.174,0,0,0,0,0.0095867,0
13325,54.3,20.119,0,-0.0070995,0,13503,54.174,0,0,0,0,0.0095867,0
13325,54.3,20.119,0,-0.0070995,0,13503,54.174,0,0,0,0,0.0095867,0
13325,54.3,20.119,0,-0.0070995,0,13503,54.174,0,0,0,0,0.0095867,0
13325,54.3,20.119,0,-0.0070995,0,13503,54.174,0,0,0,0,0.0095867,0
13325,54.3,20.119,0,-0.0070995,0,13503,54.174,0,0,0,0,0.0095867,0
13325,54.3,20.119,0,-0.0070995,0,13503,54.174,0,0,0,0,0.0095867,0
13325,54.3,20.119,0,-0.0070995,0,13503,54.174,0,0,0,0,0.0095867,0
13325,54.3,20.119,0,-0.0070995,0,13503,54.174,0,0,0,0,0.0095867,0
13326,54.3,20.119,0,-0.0073118,0,13503,54.174,0,0,0,0,0.0096303,0
13326,54.3,20.119,0,-0.0073118,0,13503,54.174,0,0,0,0,0.0096303,0
13326,54.3,20.119,0,-0.0073118,0,13503,54.174,0,0,0,0,0.0096303,0
13326,54.3,20.119,0,-0.0073118,0,13503,54.174,0,0,0,0,0.0096303,0
13326,54.3,20.119,0,-0.0073118,0,13503,54.174,0,0,0,0,0.0096303,0
13326,54.3,20.119,0,-0.0073118,0,13503,54.174,0,0,0,0,0.0096303,0
13326,54.3,20.119,0,-0.0073118,0,13503,54.174,0,0,0,0,0.0096303,0
13326,54.3,20.119,0,-0.0073118,0,13503,54.174,0,0,0,0,0.0096303,0
13326,54.3,20.119,0,-0.0073118,0,13503,54.174,0,0,0,0,0.0096303,0
13326,54.3,20.119,0,-0.0073118,0,13503,54.174,0,0,0,0,0.0096303,0
13326,54.3,20.119,0,-0.0073118,0,13503,54.174,0,0,0,0,0.0096303,0
13327,54.3,20.118,0,-0.0076271,0,13503,54.174,0,0,0,0,0.0096964,0
13328,54.3,20.118,0,-0.0079357,0,13503,54.174,0,0,0,0,0.0097634,0
13330,54.3,20.117,0,-0.008334,0,13503,54.174,0,0,0,0,0.0098542,0
13330,54.3,20.117,0,-0.008334,0,13503,54.174,0,0,0,0,0.0098542,0
13330,54.3,20.117,0,-0.0084324,0,13503,54.174,0,0,0,0,0.0098772,0
13330,54.3,20.117,0,-0.0084324,0,13503,54.174,0,0,0,0,0.0098772,0
13330,54.3,20.117,0,-0.0084324,0,13503,54.174,0,0,0,0,0.0098772,0
13330,54.3,20.117,0,-0.0084324,0,13503,54.174,0,0,0,0,0.0098772,0
13330,54.3,20.117,0,-0.0084324,0,13503,54.174,0,0,0,0,0.0098772,0
13330,54.3,20.117,0,-0.0084324,0,13503,54.174,0,0,0,0,0.0098772,0
13330,54.3,20.117,0,-0.0084324,0,13503,54.174,0,0,0,0,0.0098772,0
13330,54.3,20.117,0,-0.0084324,0,13503,54.174,0,0,0,0,0.0098772,0
13330,54.3,20.117,0,-0.0084324,0,13503,54.174,0,0,0,0,0.0098772,0
13330,54.3,20.117,0,-0.0084324,0,13503,54.174,0,0,0,0,0.0098772,0
13330,54.3,20.117,0,-0.0084324,0,13503,54.174,0,0,0,0,0.0098772,0
13330,54.3,20.117,0,-0.0084324,0,13503,54.174,0,0,0,0,0.0098772,0
13330,54.3,20.117,0,-0.0084324,0,13503,54.174,0,0,0,0,0.0098772,0
13330,54.3,20.117,0,-0.0084324,0,13503,54.174,0,0,0,0,0.0098772,0
13330,54.3,20.117,0,-0.0084324,0,13503,54.174,0,0,0,0,0.0098772,0
13330,54.3,20.117,0,-0.0084324,0,13503,54.174,0,0,0,0,0.0098772,0
13331,54.3,20.116,0,-0.008628,0,13503,54.174,0,0,0,0,0.0099235,0
13331,54.3,20.116,0,-0.008628,0,13503,54.174,0,0,0,0,0.0099235,0
13331,54.3,20.116,0,-0.008628,0,13503,54.174,0,0,0,0,0.0099235,0
13333,54.3,20.116,0,-0.0090138,0,13503,54.174,0,0,0,0,0.010017,0
13333,54.3,20.116,0,-0.0090138,0,13503,54.174,0,0,0,0,0.010017,0
13334,54.3,20.115,0,-0.0092985,0,13503,54.174,0,0,0,0,0.010089,0
13335,54.3,20.115,0,-0.009486,0,13503,54.174,0,0,0,0,0.010137,0
13335,54.3,20.115,0,-0.009486,0,13503,54.174,0,0,0,0,0.010137,0
13335,54.3,20.115,0,-0.009486,0,13503,54.174,0,0,0,0,0.010137,0
13335,54.3,20.115,0,-0.009486,0,13503,54.174,0,0,0,0,0.010137,0
13335,54.3,20.115,0,-0.009486,0,13503,54.174,0,0,0,0,0.010137,0
13335,54.3,20.115,0,-0.009486,0,13503,54.174,0,0,0,0,0.010137,0
13335,54.3,20.115,0,-0.009486,0,13503,54.174,0,0,0,0,0.010137,0
13335,54.3,20.115,0,-0.009486,0,13503,54.174,0,0,0,0,0.010137,0
13335,54.3,20.115,0,-0.009486,0,13503,54.174,0,0,0,0,0.010137,0
13335,54.3,20.115,0,-0.009486,0,13503,54.174,0,0,0,0,0.010137,0
13335,54.3,20.115,0,-0.009486,0,13503,54.174,0,0,0,0,0.010137,0
13335,54.3,20.115,0,-0.009486,0,13503,54.174,0,0,0,0,0.010137,0
13335,54.3,20.115,0,-0.009486,0,13503,54.174,0,0,0,0,0.010137,0
13336,54.3,20.114,0,-0.0096717,0,13503,54.174,0,0,0,0,0.010186,0
13336,54.3,20.114,0,-0.0096717,0,13503,54.174,0,0,0,0,0.010186,0
13336,54.3,20.114,0,-0.0096717,0,13503,54.174,0,0,0,0,0.010186,0
13336,54.3,20.114,0,-0.0096717,0,13503,54.174,0,0,0,0,0.010186,0
13336,54.3,20.114,0,-0.0096717,0,13503,54.174,0,0,0,0,0.010186,0
13336,54.3,20.114,0,-0.0096717,0,13503,54.174,0,0,0,0,0.010186,0
13336,54.3,20.114,0,-0.0096717,0,13503,54.174,0,0,0,0,0.010186,0
13336,54.3,20.114,0,-0.0097639,0,13503,54.174,0,0,0,0,0.01021,0
13336,54.3,20.114,0,-0.0097639,0,13503,54.174,0,0,0,0,0.01021,0
13336,54.3,20.114,0,-0.0097639,0,13503,54.174,0,0,0,0,0.01021,0
13336,54.3,20.114,0,-0.0097639,0,13503,54.174,0,0,0,0,0.01021,0
13340,54.3,20.112,0,-0.010573,0,13503,54.174,0,0,0,0,0.010437,0
13340,54.3,20.112,0,-0.010573,0,13503,54.174,0,0,0,0,0.010437,0
13340,54.3,20.112,0,-0.010573,0,13503,54.174,0,0,0,0,0.010437,0
13340,54.3,20.112,0,-0.010573,0,13503,54.174,0,0,0,0,0.010437,0
13340,54.3,20.112,0,-0.010573,0,13503,54.174,0,0,0,0,0.010437,0
13340,54.3,20.112,0,-0.010573,0,13503,54.174,0,0,0,0,0.010437,0
13340,54.3,20.112,0,-0.010573,0,13503,54.174,0,0,0,0,0.010437,0
13340,54.3,20.112,0,-0.010573,0,13503,54.174,0,0,0,0,0.010437,0
13340,54.3,20.112,0,-0.010573,0,13503,54.174,0,0,0,0,0.010437,0
13340,54.3,20.112,0,-0.010573,0,13503,54.174,0,0,0,0,0.010437,0
13340,54.3,20.112,0,-0.010573,0,13503,54.174,0,0,0,0,0.010437,0
13340,54.3,20.112,0,-0.010573,0,13503,54.174,0,0,0,0,0.010437,0
13340,54.3,20.112,0,-0.010573,0,13503,54.174,0,0,0,0,0.010437,0
13340,54.3,20.112,0,-0.010573,0,13503,54.174,0,0,0,0,0.010437,0
13340,54.3,20.112,0,-0.010573,0,13503,54.174,0,0,0,0,0.010437,0
13340,54.3,20.112,0,-0.010573,0,13503,54.174,0,0,0,0,0.010437,0
13340,54.3,20.112,0,-0.010573,0,13503,54.174,0,0,0,0,0.010437,0
13341,54.3,20.112,0,-0.010931,0,13503,54.174,0,0,0,0,0.01054,0
13341,54.3,20.112,0,-0.010931,0,13503,54.174,0,0,0,0,0.01054,0
13342,54.3,20.111,0,-0.011107,0,13503,54.174,0,0,0,0,0.010593,0
13342,54.3,20.111,0,-0.011107,0,13503,54.174,0,0,0,0,0.010593,0
13342,54.3,20.111,0,-0.011107,0,13503,54.174,0,0,0,0,0.010593,0
13342,54.3,20.111,0,-0.011107,0,13503,54.174,0,0,0,0,0.010593,0
13342,54.3,20.111,0,-0.011107,0,13503,54.174,0,0,0,0,0.010593,0
13344,54.3,20.11,0,-0.011454,0,13503,54.174,0,0,0,0,0.0107,0
13344,54.3,20.11,0,-0.011454,0,13503,54.174,0,0,0,0,0.0107,0
13345,54.3,20.11,0,-0.011625,0,13503,54.174,0,0,0,0,0.010754,0
13345,54.3,20.11,0,-0.011625,0,13503,54.174,0,0,0,0,0.010754,0
13345,54.3,20.11,0,-0.011625,0,13503,54.174,0,0,0,0,0.010754,0
13345,54.3,20.11,0,-0.011709,0,13503,54.174,0,0,0,0,0.010782,0
13345,54.3,20.11,0,-0.011709,0,13503,54.174,0,0,0,0,0.010782,0
13345,54.3,20.11,0,-0.011709,0,13503,54.174,0,0,0,0,0.010782,0
13345,54.3,20.11,0,-0.011709,0,13503,54.174,0,0,0,0,0.010782,0
13345,54.3,20.11,0,-0.011709,0,13503,54.174,0,0,0,0,0.010782,0
13345,54.3,20.11,0,-0.011709,0,13503,54.174,0,0,0,0,0.010782,0
13345,54.3,20.11,0,-0.011709,0,13503,54.174,0,0,0,0,0.010782,0
13345,54.3,20.11,0,-0.011709,0,13503,54.174,0,0,0,0,0.010782,0
13345,54.3,20.11,0,-0.011709,0,13503,54.174,0,0,0,0,0.010782,0
13345,54.3,20.11,0,-0.011709,0,13503,54.174,0,0,0,0,0.010782,0
13346,54.3,20.109,0,-0.011968,0,13503,54.174,0,0,0,0,0.010865,0
13346,54.3,20.109,0,-0.011968,0,13503,54.174,0,0,0,0,0.010865,0
13346,54.3,20.109,0,-0.011968,0,13503,54.174,0,0,0,0,0.010865,0
13348,54.3,20.108,0,-0.012306,0,13503,54.174,0,0,0,0,0.010977,0
13348,54.3,20.108,0,-0.012306,0,13503,54.174,0,0,0,0,0.010977,0
13348,54.3,20.108,0,-0.012306,0,13503,54.174,0,0,0,0,0.010977,0
13348,54.3,20.108,0,-0.012306,0,13503,54.174,0,0,0,0,0.010977,0
13348,54.3,20.108,0,-0.012306,0,13503,54.174,0,0,0,0,0.010977,0
13348,54.3,20.108,0,-0.012306,0,13503,54.174,0,0,0,0,0.010977,0
13348,54.3,20.108,0,-0.012306,0,13503,54.174,0,0,0,0,0.010977,0
13348,54.3,20.108,0,-0.012306,0,13503,54.174,0,0,0,0,0.010977,0
13348,54.3,20.108,0,-0.012306,0,13503,54.174,0,0,0,0,0.010977,0
13348,54.3,20.108,0,-0.012306,0,13503,54.174,0,0,0,0,0.010977,0
13348,54.3,20.108,0,-0.012306,0,13503,54.174,0,0,0,0,0.010977,0
13348,54.3,20.108,0,-0.012306,0,13503,54.174,0,0,0,0,0.010977,0
13348,54.3,20.108,0,-0.012306,0,13503,54.174,0,0,0,0,0.010977,0
13348,54.3,20.108,0,-0.012306,0,13503,54.174,0,0,0,0,0.010977,0
13349,54.3,20.107,0,-0.012642,0,13503,54.174,0,0,0,0,0.011092,0
13350,54.3,20.107,0,-0.012727,0,13503,54.174,0,0,0,0,0.011121,0
13350,54.3,20.107,0,-0.012727,0,13503,54.174,0,0,0,0,0.011121,0
13350,54.3,20.107,0,-0.012727,0,13503,54.174,0,0,0,0,0.011121,0
13351,54.3,20.106,0,-0.012976,0,13503,54.174,0,0,0,0,0.011209,0
13351,54.3,20.106,0,-0.012976,0,13503,54.174,0,0,0,0,0.011209,0
13351,54.3,20.106,0,-0.012976,0,13503,54.174,0,0,0,0,0.011209,0
13351,54.3,20.106,0,-0.012976,0,13503,54.174,0,0,0,0,0.011209,0
13351,54.3,20.106,0,-0.012976,0,13503,54.174,0,0,0,0,0.011209,0
13351,54.3,20.106,0,-0.012976,0,13503,54.174,0,0,0,0,0.011209,0
13351,54.3,20.106,0,-0.012976,0,13503,54.174,0,0,0,0,0.011209,0
13351,54.3,20.106,0,-0.012976,0,13503,54.174,0,0,0,0,0.011209,0
13351,54.3,20.106,0,-0.012976,0,13503,54.174,0,0,0,0,0.011209,0
13351,54.3,20.106,0,-0.012976,0,13503,54.174,0,0,0,0,0.011209,0
13351,54.3,20.106,0,-0.012976,0,13503,54.174,0,0,0,0,0.011209,0
13351,54.3,20.106,0,-0.012976,0,13503,54.174,0,0,0,0,0.011209,0
13351,54.3,20.106,0,-0.012976,0,13503,54.174,0,0,0,0,0.011209,0
13351,54.3,20.106,0,-0.012976,0,13503,54.174,0,0,0,0,0.011209,0
13351,54.3,20.106,0,-0.012976,0,13503,54.174,0,0,0,0,0.011209,0
13351,54.3,20.106,0,-0.012976,0,13503,54.174,0,0,0,0,0.011209,0
13351,54.3,20.106,0,-0.012976,0,13503,54.174,0,0,0,0,0.011209,0
13353,54.3,20.104,0,-0.01339,0,13503,54.174,0,0,0,0,0.011359,0
13353,54.3,20.104,0,-0.01339,0,13503,54.174,0,0,0,0,0.011359,0
13353,54.3,20.104,0,-0.01339,0,13503,54.174,0,0,0,0,0.011359,0
13353,54.3,20.104,0,-0.01339,0,13503,54.174,0,0,0,0,0.011359,0
13353,54.3,20.104,0,-0.01339,0,13503,54.174,0,0,0,0,0.011359,0
13353,54.3,20.104,0,-0.01339,0,13503,54.174,0,0,0,0,0.011359,0
13353,54.3,20.104,0,-0.01339,0,13503,54.174,0,0,0,0,0.011359,0
13353,54.3,20.104,0,-0.01339,0,13503,54.174,0,0,0,0,0.011359,0
13356,54.3,20.103,0,-0.013961,0,13503,54.174,0,0,0,0,0.011577,0
13356,54.3,20.103,0,-0.013961,0,13503,54.174,0,0,0,0,0.011577,0
13357,54.3,20.102,0,-0.014123,0,13503,54.174,0,0,0,0,0.01164,0
13357,54.3,20.102,0,-0.014204,0,13503,54.174,0,0,0,0,0.011672,0
13357,54.3,20.102,0,-0.014204,0,13503,54.174,0,0,0,0,0.011672,0
13357,54.3,20.102,0,-0.014204,0,13503,54.174,0,0,0,0,0.011672,0
13357,54.3,20.102,0,-0.014204,0,13503,54.174,0,0,0,0,0.011672,0
13357,54.3,20.102,0,-0.014204,0,13503,54.174,0,0,0,0,0.011672,0
13357,54.3,20.102,0,-0.014204,0,13503,54.174,0,0,0,0,0.011672,0
13357,54.3,20.102,0,-0.014204,0,13503,54.174,0,0,0,0,0.011672,0
13357,54.3,20.102,0,-0.014204,0,13503,54.174,0,0,0,0,0.011672,0
13357,54.3,20.102,0,-0.014204,0,13503,54.174,0,0,0,0,0.011672,0
13357,54.3,20.102,0,-0.014204,0,13503,54.174,0,0,0,0,0.011672,0
13357,54.3,20.102,0,-0.014204,0,13503,54.174,0,0,0,0,0.011672,0
13357,54.3,20.102,0,-0.014204,0,13503,54.174,0,0,0,0,0.011672,0
13357,54.3,20.102,0,-0.014204,0,13503,54.174,0,0,0,0,0.011672,0
13357,54.3,20.102,0,-0.014204,0,13503,54.174,0,0,0,0,0.011672,0
13357,54.3,20.102,0,-0.014204,0,13503,54.174,0,0,0,0,0.011672,0
13357,54.3,20.102,0,-0.014204,0,13503,54.174,0,0,0,0,0.011672,0
13357,54.3,20.102,0,-0.014204,0,13503,54.174,0,0,0,0,0.011672,0
13357,54.3,20.102,0,-0.014204,0,13503,54.174,0,0,0,0,0.011672,0
13359,54.3,20.101,0,-0.014526,0,13503,54.174,0,0,0,0,0.011802,0
13359,54.3,20.101,0,-0.014526,0,13503,54.174,0,0,0,0,0.011802,0
13359,54.3,20.101,0,-0.014526,0,13503,54.174,0,0,0,0,0.011802,0
13359,54.3,20.101,0,-0.014526,0,13503,54.174,0,0,0,0,0.011802,0
13362,54.3,20.098,0,-0.015166,0,13503,54.174,0,0,0,0,0.012071,0
13362,54.3,20.098,0,-0.015166,0,13503,54.174,0,0,0,0,0.012071,0
13362,54.3,20.098,0,-0.015166,0,13503,54.174,0,0,0,0,0.012071,0
13362,54.3,20.098,0,-0.015166,0,13503,54.174,0,0,0,0,0.012071,0
13362,54.3,20.098,0,-0.015166,0,13503,54.174,0,0,0,0,0.012071,0
13362,54.3,20.098,0,-0.015166,0,13503,54.174,0,0,0,0,0.012071,0
13362,54.3,20.098,0,-0.015166,0,13503,54.174,0,0,0,0,0.012071,0
13362,54.3,20.098,0,-0.015166,0,13503,54.174,0,0,0,0,0.012071,0
13362,54.3,20.098,0,-0.015166,0,13503,54.174,0,0,0,0,0.012071,0
13362,54.3,20.098,0,-0.015166,0,13503,54.174,0,0,0,0,0.012071,0
13362,54.3,20.098,0,-0.015166,0,13503,54.174,0,0,0,0,0.012071,0
13362,54.3,20.098,0,-0.015166,0,13503,54.174,0,0,0,0,0.012071,0
13362,54.3,20.098,0,-0.015166,0,13503,54.174,0,0,0,0,0.012071,0
13362,54.3,20.098,0,-0.015166,0,13503,54.174,0,0,0,0,0.012071,0
13362,54.3,20.098,0,-0.015166,0,13503,54.174,0,0,0,0,0.012071,0
13362,54.3,20.098,0,-0.015166,0,13503,54.174,0,0,0,0,0.012071,0
13362,54.3,20.098,0,-0.015166,0,13503,54.174,0,0,0,0,0.012071,0
13364,54.3,20.097,0,-0.015565,0,13503,54.174,0,0,0,0,0.012245,0
13365,54.3,20.096,0,-0.015723,0,13503,54.174,0,0,0,0,0.012316,0
13365,54.3,20.096,0,-0.015723,0,13503,54.174,0,0,0,0,0.012316,0
13365,54.3,20.096,0,-0.015801,0,13503,54.174,0,0,0,0,0.012352,0
13365,54.3,20.096,0,-0.015801,0,13503,54.174,0,0,0,0,0.012352,0
13365,54.3,20.096,0,-0.015801,0,13503,54.174,0,0,0,0,0.012352,0
13365,54.3,20.096,0,-0.015801,0,13503,54.174,0,0,0,0,0.012352,0
13365,54.3,20.096,0,-0.015801,0,13503,54.174,0,0,0,0,0.012352,0
13365,54.3,20.096,0,-0.015801,0,13503,54.174,0,0,0,0,0.012352,0
13365,54.3,20.096,0,-0.015801,0,13503,54.174,0,0,0,0,0.012352,0
13365,54.3,20.096,0,-0.015801,0,13503,54.174,0,0,0,0,0.012352,0
13365,54.3,20.096,0,-0.015801,0,13503,54.174,0,0,0,0,0.012352,0
13365,54.3,20.096,0,-0.015801,0,13503,54.174,0,0,0,0,0.012352,0
13365,54.3,20.096,0,-0.015801,0,13503,54.174,0,0,0,0,0.012352,0
13365,54.3,20.096,0,-0.015801,0,13503,54.174,0,0,0,0,0.012352,0
13365,54.3,20.096,0,-0.015801,0,13503,54.174,0,0,0,0,0.012352,0
13365,54.3,20.096,0,-0.015801,0,13503,54.174,0,0,0,0,0.012352,0
13365,54.3,20.096,0,-0.015801,0,13503,54.174,0,0,0,0,0.012352,0
13365,54.3,20.096,0,-0.015801,0,13503,54.174,0,0,0,0,0.012352,0
13365,54.3,20.096,0,-0.015801,0,13503,54.174,0,0,0,0,0.012352,0
13367,54.3,20.094,0,-0.016198,0,13503,54.174,0,0,0,0,0.012534,0
13367,54.3,20.094,0,-0.016198,0,13503,54.174,0,0,0,0,0.012534,0
13367,54.3,20.094,0,-0.016198,0,13503,54.174,0,0,0,0,0.012534,0
13367,54.3,20.094,0,-0.016198,0,13503,54.174,0,0,0,0,0.012534,0
13367,54.3,20.094,0,-0.016198,0,13503,54.174,0,0,0,0,0.012534,0
13367,54.3,20.094,0,-0.016198,0,13503,54.174,0,0,0,0,0.012534,0
13367,54.3,20.094,0,-0.016198,0,13503,54.174,0,0,0,0,0.012534,0
13367,54.3,20.094,0,-0.016198,0,13503,54.174,0,0,0,0,0.012534,0
13370,54.3,20.092,0,-0.016748,0,13503,54.174,0,0,0,0,0.012799,0
13370,54.3,20.092,0,-0.016748,0,13503,54.174,0,0,0,0,0.012799,0
13370,54.3,20.092,0,-0.016748,0,13503,54.174,0,0,0,0,0.012799,0
13371,54.3,20.091,0,-0.016986,0,13503,54.174,0,0,0,0,0.012916,0
13371,54.3,20.091,0,-0.016986,0,13503,54.174,0,0,0,0,0.012916,0
13371,54.3,20.091,0,-0.016986,0,13503,54.174,0,0,0,0,0.012916,0
13371,54.3,20.091,0,-0.016986,0,13503,54.174,0,0,0,0,0.012916,0
13371,54.3,20.091,0,-0.016986,0,13503,54.174,0,0,0,0,0.012916,0
13371,54.3,20.091,0,-0.016986,0,13503,54.174,0,0,0,0,0.012916,0
13371,54.3,20.091,0,-0.016986,0,13503,54.174,0,0,0,0,0.012916,0
13371,54.3,20.091,0,-0.016986,0,13503,54.174,0,0,0,0,0.012916,0
13371,54.3,20.091,0,-0.016986,0,13503,54.174,0,0,0,0,0.012916,0
13371,54.3,20.091,0,-0.016986,0,13503,54.174,0,0,0,0,0.012916,0
13371,54.3,20.091,0,-0.016986,0,13503,54.174,0,0,0,0,0.012916,0
13371,54.3,20.091,0,-0.016986,0,13503,54.174,0,0,0,0,0.012916,0
13371,54.3,20.091,0,-0.016986,0,13503,54.174,0,0,0,0,0.012916,0
13371,54.3,20.091,0,-0.016986,0,13503,54.174,0,0,0,0,0.012916,0
13371,54.3,20.091,0,-0.016986,0,13503,54.174,0,0,0,0,0.012916,0
13371,54.3,20.091,0,-0.016986,0,13503,54.174,0,0,0,0,0.012916,0
13371,54.3,20.091,0,-0.016986,0,13503,54.174,0,0,0,0,0.012916,0
13371,54.3,20.091,0,-0.016986,0,13503,54.174,0,0,0,0,0.012916,0
13373,54.3,20.089,0,-0.017299,0,13503,54.174,0,0,0,0,0.013075,0
13373,54.3,20.089,0,-0.017378,0,13503,54.174,0,0,0,0,0.013116,0
13373,54.3,20.089,0,-0.017378,0,13503,54.174,0,0,0,0,0.013116,0
13373,54.3,20.089,0,-0.017378,0,13503,54.174,0,0,0,0,0.013116,0
13373,54.3,20.089,0,-0.017378,0,13503,54.174,0,0,0,0,0.013116,0
13376,54.3,20.086,0,-0.0385,0,13503,54.174,0,0,0,0,0.013406,0
13376,54.3,20.086,0,-0.0385,0,13503,54.174,0,0,0,0,0.013406,0
13376,54.3,20.086,0,-0.0385,0,13503,54.174,0,0,0,0,0.013406,0
13376,54.3,20.086,0,-0.0385,0,13503,54.174,0,0,0,0,0.013406,0
13376,54.3,20.086,0,-0.0385,0,13503,54.174,0,0,0,0,0.013406,0
13376,54.3,20.086,0,-0.0385,0,13503,54.174,0,0,0,0,0.013406,0
13376,54.3,20.086,0,-0.0385,0,13503,54.174,0,0,0,0,0.013406,0
13376,54.3,20.085,0,-0.0472,0,13503,54.174,0,0,0,0,0.013448,0
13376,54.3,20.085,0,-0.0472,0,13503,54.174,0,0,0,0,0.013448,0
13377,54.3,20.084,0,-0.05578,0,13503,54.174,0,0,0,0,0.013491,0
13377,54.3,20.084,0,-0.05578,0,13503,54.174,0,0,0,0,0.013491,0
13377,54.3,20.084,0,-0.05578,0,13503,54.174,0,0,0,0,0.013491,0
13377,54.3,20.084,0,-0.05578,0,13503,54.174,0,0,0,0,0.013491,0
13377,54.3,20.084,0,-0.05578,0,13503,54.174,0,0,0,0,0.013491,0
13377,54.3,20.084,0,-0.05578,0,13503,54.174,0,0,0,0,0.013491,0
13377,54.3,20.083,0,-0.06424,0,13503,54.174,0,0,0,0,0.013534,0
13377,54.3,20.083,0,-0.06424,0,13503,54.174,0,0,0,0,0.013534,0
13378,54.3,20.078,0,-0.088932,0,13503,54.174,0,0,0,0,0.013665,0
13378,54.3,20.078,0,-0.088932,0,13503,54.174,0,0,0,0,0.013665,0
13378,54.3,20.078,0,-0.088932,0,13503,54.174,0,0,0,0,0.013665,0
13380,54.3,20.07,0,-0.12044,0,13503,54.174,0,0,0,0,0.013843,0
13380,54.3,20.068,0,-0.12809,0,13503,54.174,0,0,0,0,0.013888,0
13380,54.3,20.068,0,-0.12809,0,13503,54.174,0,0,0,0,0.013888,0
13380,54.3,20.068,0,-0.12809,0,13503,54.174,0,0,0,0,0.013888,0
13380,54.3,20.068,0,-0.12809,0,13503,54.174,0,0,0,0,0.013888,0
13380,54.3,20.068,0,-0.12809,0,13503,54.174,0,0,0,0,0.013888,0
13380,54.3,20.068,0,-0.12809,0,13503,54.174,0,0,0,0,0.013888,0
13380,54.3,20.068,0,-0.12809,0,13503,54.174,0,0,0,0,0.013888,0
13380,54.3,20.068,0,-0.12809,0,13503,54.174,0,0,0,0,0.013888,0
13380,54.3,20.068,0,-0.12809,0,13503,54.174,0,0,0,0,0.013888,0
13380,54.3,20.068,0,-0.12809,0,13503,54.174,0,0,0,0,0.013888,0
13380,54.3,20.068,0,-0.12809,0,13503,54.174,0,0,0,0,0.013888,0
13380,54.3,20.068,0,-0.12809,0,13503,54.174,0,0,0,0,0.013888,0
13380,54.3,20.068,0,-0.12809,0,13503,54.174,0,0,0,0,0.013888,0
13380,54.3,20.068,0,-0.12809,0,13503,54.174,0,0,0,0,0.013888,0
13380,54.3,20.068,0,-0.12809,0,13503,54.174,0,0,0,0,0.013888,0
13381,54.3,20.062,0,-0.14457,0,13503,54.174,0,0,0,0,0.013979,0
13381,54.3,20.062,0,-0.14457,0,13503,54.174,0,0,0,0,0.013979,0
13381,54.3,20.059,0,-0.1538,0,13503,54.174,0,0,0,0,0.014025,0
13383,54.3,20.049,0,-0.18172,0,13503,54.174,0,0,0,0,0.014166,0
13384,54.3,20.037,0,-0.20987,0,13503,54.174,0,0,0,0,0.014309,0
13384,54.3,20.037,0,-0.20987,0,13503,54.174,0,0,0,0,0.014309,0
13384,54.3,20.037,0,-0.20987,0,13503,54.174,0,0,0,0,0.014309,0
13384,54.3,20.037,0,-0.20987,0,13503,54.174,0,0,0,0,0.014309,0
13384,54.3,20.037,0,-0.20987,0,13503,54.174,0,0,0,0,0.014309,0
13384,54.3,20.037,0,-0.20987,0,13503,54.174,0,0,0,0,0.014309,0
13384,54.3,20.037,0,-0.20987,0,13503,54.174,0,0,0,0,0.014309,0
13384,54.3,20.037,0,-0.20987,0,13503,54.174,0,0,0,0,0.014309,0
13384,54.3,20.037,0,-0.20987,0,13503,54.174,0,0,0,0,0.014309,0
13384,54.3,20.037,0,-0.20987,0,13503,54.174,0,0,0,0,0.014309,0
13384,54.3,20.037,0,-0.20987,0,13503,54.174,0,0,0,0,0.014309,0
13384,54.3,20.037,0,-0.20987,0,13503,54.174,0,0,0,0,0.014309,0
13384,54.3,20.037,0,-0.20987,0,13503,54.174,0,0,0,0,0.014309,0
13384,54.3,20.037,0,-0.20987,0,13503,54.174,0,0,0,0,0.014309,0
13385,54.3,20.024,0,-0.23827,0,13503,54.174,0,0,0,0,0.014454,0
13385,54.3,20.024,0,-0.23827,0,13503,54.174,0,0,0,0,0.014454,0
13385,54.3,20.024,0,-0.23827,0,13503,54.174,0,0,0,0,0.014454,0
13385,54.3,20.024,0,-0.23827,0,13503,54.174,0,0,0,0,0.014454,0
13386,54.3,20.014,0,-0.25734,0,13503,54.174,0,0,0,0,0.014553,0
13386,54.3,20.014,0,-0.25734,0,13503,54.174,0,0,0,0,0.014553,0
13386,54.3,20.009,0,-0.26692,0,13503,54.174,0,0,0,0,0.014603,0
13388,54.3,19.986,0,-0.30554,0,13503,54.174,0,0,0,0,0.014806,0
13388,54.3,19.986,0,-0.30554,0,13503,54.174,0,0,0,0,0.014806,0
13388,54.3,19.986,0,-0.30554,0,13503,54.174,0,0,0,0,0.014806,0
13388,54.3,19.986,0,-0.30554,0,13503,54.174,0,0,0,0,0.014806,0
13388,54.3,19.986,0,-0.30554,0,13503,54.174,0,0,0,0,0.014806,0
13388,54.3,19.986,0,-0.30554,0,13503,54.174,0,0,0,0,0.014806,0
13389,54.3,19.973,0,-0.32503,0,13503,54.174,0,0,0,0,0.014909,0
13389,54.3,19.967,0,-0.33483,0,13503,54.174,0,0,0,0,0.014962,0
13389,54.3,19.967,0,-0.33483,0,13503,54.174,0,0,0,0,0.014962,0
13389,54.3,19.967,0,-0.33483,0,13503,54.174,0,0,0,0,0.014962,0
13389,54.3,19.967,0,-0.33483,0,13503,54.174,0,0,0,0,0.014962,0
13389,54.3,19.967,0,-0.33483,0,13503,54.174,0,0,0,0,0.014962,0
13389,54.3,19.967,0,-0.33483,0,13503,54.174,0,0,0,0,0.014962,0
13389,54.3,19.967,0,-0.33483,0,13503,54.174,0,0,0,0,0.014962,0
13389,54.3,19.967,0,-0.33483,0,13503,54.174,0,0,0,0,0.014962,0
13389,54.3,19.967,0,-0.33483,0,13503,54.174,0,0,0,0,0.014962,0
13389,54.3,19.967,0,-0.33483,0,13503,54.174,0,0,0,0,0.014962,0
13390,54.3,19.953,0,-0.35451,0,13503,54.174,0,0,0,0,0.015067,0
13390,54.3,19.953,0,-0.35451,0,13503,54.174,0,0,0,0,0.015067,0
13390,54.3,19.953,0,-0.35451,0,13503,54.174,0,0,0,0,0.015067,0
13390,54.3,19.953,0,-0.35451,0,13503,54.174,0,0,0,0,0.015067,0
13392,54.3,19.915,0,-0.40428,0,13503,54.174,0,0,0,0,0.015337,0
13392,54.3,19.915,0,-0.40428,0,13503,54.174,0,0,0,0,0.015337,0
13392,54.3,19.915,0,-0.40428,0,13503,54.174,0,0,0,0,0.015337,0
13392,54.3,19.915,0,-0.40428,0,13503,54.174,0,0,0,0,0.015337,0
13392,54.3,19.915,0,-0.40428,0,13503,54.174,0,0,0,0,0.015337,0
13392,54.3,19.915,0,-0.40428,0,13503,54.174,0,0,0,0,0.015337,0
13392,54.3,19.915,0,-0.40428,0,13503,54.174,0,0,0,0,0.015337,0
13393,54.3,19.881,0,-0.4447,0,13503,54.174,0,0,0,0,0.01556,0
13393,54.3,19.881,0,-0.4447,0,13503,54.174,0,0,0,0,0.01556,0
13393,54.3,19.881,0,-0.4447,0,13503,54.174,0,0,0,0,0.01556,0
13393,54.3,19.881,0,-0.4447,0,13503,54.174,0,0,0,0,0.01556,0
13393,54.3,19.881,0,-0.4447,0,13503,54.174,0,0,0,0,0.01556,0
13394,54.3,19.872,0,-0.45488,0,13503,54.174,0,0,0,0,0.015617,0
13394,54.3,19.863,0,-0.46511,0,13503,54.174,0,0,0,0,0.015674,0
13394,54.3,19.863,0,-0.46511,0,13503,54.174,0,0,0,0,0.015674,0
13394,54.3,19.863,0,-0.46511,0,13503,54.174,0,0,0,0,0.015674,0
13394,54.3,19.863,0,-0.46511,0,13503,54.174,0,0,0,0,0.015674,0
13395,54.3,19.834,0,-0.49598,0,13503,54.174,0,0,0,0,0.015847,0
13395,54.3,19.834,0,-0.49598,0,13503,54.174,0,0,0,0,0.015847,0
13395,54.3,19.834,0,-0.49598,0,13503,54.174,0,0,0,0,0.015847,0
13395,54.3,19.834,0,-0.49598,0,13503,54.174,0,0,0,0,0.015847,0
13395,54.3,19.834,0,-0.49598,0,13503,54.174,0,0,0,0,0.015847,0
13395,54.3,19.834,0,-0.49598,0,13503,54.174,0,0,0,0,0.015847,0
13395,54.3,19.834,0,-0.49598,0,13503,54.174,0,0,0,0,0.015847,0
13395,54.3,19.834,0,-0.49598,0,13503,54.174,0,0,0,0,0.015847,0
13397,54.3,19.803,0,-0.52715,0,13503,54.174,0,0,0,0,0.016025,0
13397,54.3,19.803,0,-0.52715,0,13503,54.174,0,0,0,0,0.016025,0
13397,54.3,19.803,0,-0.52715,0,13503,54.174,0,0,0,0,0.016025,0
13397,54.3,19.803,0,-0.52715,0,13503,54.174,0,0,0,0,0.016025,0
13397,54.3,19.803,0,-0.52715,0,13503,54.174,0,0,0,0,0.016025,0
13397,54.3,19.803,0,-0.52715,0,13503,54.174,0,0,0,0,0.016025,0
13397,54.3,19.803,0,-0.52715,0,13503,54.174,0,0,0,0,0.016025,0
13397,54.3,19.803,0,-0.52715,0,13503,54.174,0,0,0,0,0.016025,0
13397,54.3,19.803,0,-0.52715,0,13503,54.174,0,0,0,0,0.016025,0
13397,54.3,19.782,0,-0.54811,0,13503,54.174,0,0,0,0,0.016145,0
13398,54.3,19.771,0,-0.55863,0,13503,54.174,0,0,0,0,0.016205,0
13398,54.3,19.771,0,-0.55863,0,13503,54.174,0,0,0,0,0.016205,0
13400,54.3,19.712,0,-0.61178,0,13503,54.174,0,0,0,0,0.016515,0
13400,54.3,19.712,0,-0.61178,0,13503,54.174,0,0,0,0,0.016515,0
13400,54.3,19.7,0,-0.62251,0,13503,54.174,0,0,0,0,0.016579,0
13400,54.3,19.7,0,-0.62251,0,13503,54.174,0,0,0,0,0.016579,0
13400,54.3,19.7,0,-0.62251,0,13503,54.174,0,0,0,0,0.016579,0
13400,54.3,19.7,0,-0.62251,0,13503,54.174,0,0,0,0,0.016579,0
13400,54.3,19.7,0,-0.62251,0,13503,54.174,0,0,0,0,0.016579,0
13400,54.3,19.7,0,-0.62251,0,13503,54.174,0,0,0,0,0.016579,0
13400,54.3,19.7,0,-0.62251,0,13503,54.174,0,0,0,0,0.016579,0
13400,54.3,19.7,0,-0.62251,0,13503,54.174,0,0,0,0,0.016579,0
13400,54.3,19.7,0,-0.62251,0,13503,54.174,0,0,0,0,0.016579,0
13400,54.3,19.7,0,-0.62251,0,13503,54.174,0,0,0,0,0.016579,0
13400,54.3,19.7,0,-0.62251,0,13503,54.174,0,0,0,0,0.016579,0
13400,54.3,19.7,0,-0.62251,0,13503,54.174,0,0,0,0,0.016579,0
13400,54.3,19.7,0,-0.62251,0,13503,54.174,0,0,0,0,0.016579,0
13400,54.3,19.7,0,-0.62251,0,13503,54.174,0,0,0,0,0.016579,0
13400,54.3,19.7,0,-0.62251,0,13503,54.174,0,0,0,0,0.016579,0
13400,54.3,19.7,0,-0.62251,0,13503,54.174,0,0,0,0,0.016579,0
13401,54.3,19.674,0,-0.64408,0,13503,54.174,0,0,0,0,0.016707,0
13401,54.3,19.674,0,-0.64408,0,13503,54.174,0,0,0,0,0.016707,0
13401,54.3,19.674,0,-0.64408,0,13503,54.174,0,0,0,0,0.016707,0
13401,54.3,19.674,0,-0.64408,0,13503,54.174,0,0,0,0,0.016707,0
13403,54.3,19.621,0,-0.68759,0,13503,54.174,0,0,0,0,0.016968,0
13403,54.3,19.621,0,-0.68759,0,13503,54.174,0,0,0,0,0.016968,0
13403,54.3,19.621,0,-0.68759,0,13503,54.174,0,0,0,0,0.016968,0
13404,54.3,19.579,0,-0.72057,0,13503,54.174,0,0,0,0,0.017169,0
13405,54.3,19.55,0,-0.74271,0,13503,54.174,0,0,0,0,0.017305,0
13405,54.3,19.535,0,-0.75382,0,13503,54.174,0,0,0,0,0.017374,0
13405,54.3,19.52,0,-0.76497,0,13503,54.174,0,0,0,0,0.017444,0
13405,54.3,19.52,0,-0.76497,0,13503,54.174,0,0,0,0,0.017444,0
13406,54.3,19.504,0,-0.77615,0,13503,54.174,0,0,0,0,0.017513,0
13406,54.3,19.504,0,-0.77615,0,13503,54.174,0,0,0,0,0.017513,0
13406,54.3,19.504,0,-0.77615,0,13503,54.174,0,0,0,0,0.017513,0
13406,54.3,19.504,0,-0.77615,0,13503,54.174,0,0,0,0,0.017513,0
13406,54.3,19.504,0,-0.77615,0,13503,54.174,0,0,0,0,0.017513,0
13406,54.3,19.504,0,-0.77615,0,13503,54.174,0,0,0,0,0.017513,0
13406,54.3,19.504,0,-0.77615,0,13503,54.174,0,0,0,0,0.017513,0
13406,54.3,19.504,0,-0.77615,0,13503,54.174,0,0,0,0,0.017513,0
13406,54.3,19.504,0,-0.77615,0,13503,54.174,0,0,0,0,0.017513,0
13406,54.3,19.504,0,-0.77615,0,13503,54.174,0,0,0,0,0.017513,0
13406,54.3,19.504,0,-0.77615,0,13503,54.174,0,0,0,0,0.017513,0
13406,54.3,19.504,0,-0.77615,0,13503,54.174,0,0,0,0,0.017513,0
13406,54.3,19.504,0,-0.77615,0,13503,54.174,0,0,0,0,0.017513,0
13406,54.3,19.504,0,-0.77615,0,13503,54.174,0,0,0,0,0.017513,0
13406,54.3,19.504,0,-0.77615,0,13503,54.174,0,0,0,0,0.017513,0
13406,54.3,19.504,0,-0.77615,0,13503,54.174,0,0,0,0,0.017513,0
13406,54.3,19.504,0,-0.77615,0,13503,54.174,0,0,0,0,0.017513,0
13406,54.3,19.473,0,-0.79859,0,13503,54.174,0,0,0,0,0.017655,0
13406,54.3,19.473,0,-0.79859,0,13503,54.174,0,0,0,0,0.017655,0
13408,54.3,19.407,0,-0.84382,0,13503,54.174,0,0,0,0,0.017944,0
13408,54.3,19.407,0,-0.84382,0,13503,54.174,0,0,0,0,0.017944,0
13409,54.3,19.355,0,-0.87803,0,13503,54.174,0,0,0,0,0.018166,0
13410,54.3,19.32,0,-0.90097,0,13503,54.174,0,0,0,0,0.018317,0
13410,54.3,19.32,0,-0.90097,0,13503,54.174,0,0,0,0,0.018317,0
13410,54.3,19.32,0,-0.90097,0,13503,54.174,0,0,0,0,0.018317,0
13410,54.3,19.32,0,-0.90097,0,13503,54.174,0,0,0,0,0.018317,0
13410,54.3,19.32,0,-0.90097,0,13503,54.174,0,0,0,0,0.018317,0
13410,54.3,19.32,0,-0.90097,0,13503,54.174,0,0,0,0,0.018317,0
13410,54.3,19.32,0,-0.90097,0,13503,54.174,0,0,0,0,0.018317,0
13410,54.3,19.32,0,-0.90097,0,13503,54.174,0,0,0,0,0.018317,0
13410,54.3,19.32,0,-0.90097,0,13503,54.174,0,0,0,0,0.018317,0
13410,54.3,19.32,0,-0.90097,0,13503,54.174,0,0,0,0,0.018317,0
13410,54.3,19.32,0,-0.90097,0,13503,54.174,0,0,0,0,0.018317,0
13410,54.3,19.32,0,-0.90097,0,13503,54.174,0,0,0,0,0.018317,0
13410,54.3,19.32,0,-0.90097,0,13503,54.174,0,0,0,0,0.018317,0
13410,54.3,19.32,0,-0.90097,0,13503,54.174,0,0,0,0,0.018317,0
13411,54.3,19.283,0,-0.924,0,13503,54.174,0,0,0,0,0.01847,0
13411,54.3,19.283,0,-0.924,0,13503,54.174,0,0,0,0,0.01847,0
13411,54.3,19.283,0,-0.924,0,13503,54.174,0,0,0,0,0.01847,0
13411,54.3,19.283,0,-0.924,0,13503,54.174,0,0,0,0,0.01847,0
13411,54.3,19.283,0,-0.924,0,13503,54.174,0,0,0,0,0.01847,0
13411,54.3,19.283,0,-0.924,0,13503,54.174,0,0,0,0,0.01847,0
13411,54.3,19.265,0,-0.93556,0,13503,54.174,0,0,0,0,0.018548,0
13412,54.3,19.227,0,-0.95874,0,13503,54.174,0,0,0,0,0.018704,0
13412,54.3,19.227,0,-0.95874,0,13503,54.174,0,0,0,0,0.018704,0
13413,54.3,19.148,0,-1.0054,0,13503,54.174,0,0,0,0,0.019025,0
13413,54.3,19.148,0,-1.0054,0,13503,54.174,0,0,0,0,0.019025,0
13415,54.3,19.087,0,-1.0406,0,13503,54.174,0,0,0,0,0.019271,0
13415,54.3,19.066,0,-1.0523,0,13503,54.174,0,0,0,0,0.019355,0
13415,54.3,19.066,0,-1.0523,0,13503,54.174,0,0,0,0,0.019355,0
13415,54.3,19.066,0,-1.0523,0,13503,54.174,0,0,0,0,0.019355,0
13415,54.3,19.066,0,-1.0523,0,13503,54.174,0,0,0,0,0.019355,0
13415,54.3,19.066,0,-1.0523,0,13503,54.174,0,0,0,0,0.019355,0
13415,54.3,19.066,0,-1.0523,0,13503,54.174,0,0,0,0,0.019355,0
13415,54.3,19.066,0,-1.0523,0,13503,54.174,0,0,0,0,0.019355,0
13415,54.3,19.066,0,-1.0523,0,13503,54.174,0,0,0,0,0.019355,0
13415,54.3,19.066,0,-1.0523,0,13503,54.174,0.1001,0,10.01,0,0.019452,0
13415,54.3,19.066,0,-1.0523,0,13503,54.174,0.1001,0,10.01,0,0.019452,0
13415,54.3,19.066,0,-1.0523,0,13503,54.174,0.1001,0,10.01,0,0.019452,0
13415,54.3,19.066,0,-1.0523,0,13503,54.174,0.1001,0,10.01,0,0.019452,0
13415,54.3,19.066,0,-1.0523,0,13503,54.174,0.1001,0,10.01,0,0.019452,0
13415,54.3,19.066,0,-1.0523,0,13503,54.174,0.1001,0,10.01,0,0.019452,0
13415,54.3,19.066,0,-1.0523,0,13503,54.174,0.1001,0,10.01,0,0.019452,0
13416,54.3,19.023,0,-1.0759,0,13503,54.174,0.1001,0,10.01,0,0.019622,0
13416,54.3,19.023,0,-1.0759,0,13503,54.174,0.1001,0,10.01,0,0.019622,0
13416,54.3,19.023,0,-1.0759,0,13503,54.174,0.1001,0,10.01,0,0.019622,0
13416,54.3,18.975,0,-1.2111,0,13503,54.174,0.1001,0,10.01,0,0.019794,0
13417,54.3,18.929,0,-1.0954,0,13503,54.174,0.9009,0.00038358,10.01,0.0099478,0.020775,0
13418,54.3,18.868,0,-0.92953,0,13503,54.174,1.3013,0.0010668,10.01,0.020172,0.021468,0
13418,54.3,18.868,0,-0.92953,0,13503,54.174,2.1021,0.003934,10.01,0.046781,0.022309,0
13418,54.3,18.868,0,-0.92953,0,13503,54.174,2.1021,0.003934,10.01,0.046781,0.022309,0
13418,54.3,18.868,0,-0.92953,0,13503,54.174,2.1021,0.003934,10.01,0.046781,0.022309,0
13418,54.3,18.868,0,-0.92953,0,13503,54.174,2.1021,0.003934,10.01,0.046781,0.022309,0
13418,54.3,18.868,0,-0.92953,0,13503,54.174,2.1021,0.003934,10.01,0.046781,0.022309,0
