8639.2,54.233,19.259,0,-0.037337,0,8827.5,57.586,0,0,0,0,0.0090555,2
8639.2,54.233,19.259,0,-0.037337,0,8827.5,57.586,0,0,0,0,0.0090555,2
8639.2,54.233,19.259,0,-0.037337,0,8827.5,57.586,0,0,0,0,0.0090555,2
8639.2,54.233,19.259,0,-0.037337,0,8827.5,57.586,0,0,0,0,0.0090555,2
8639.6,54.233,19.258,0,-0.037287,0,8827.5,57.586,0,0,0,0,0.0090741,2
8639.6,54.233,19.258,0,-0.037287,0,8827.5,57.586,0,0,0,0,0.0090741,2
8640,54.233,19.258,0,-0.037236,0,8827.5,57.586,0,0,0,0,0.0090927,2
8640,54.233,19.258,0,-0.037236,0,8827.5,57.586,0,0,0,0,0.0090927,2
8640,54.233,19.258,0,-0.037236,0,8827.5,57.586,0,0,0,0,0.0090927,2
8640,54.233,19.258,0,-0.037236,0,8827.5,57.586,0,0,0,0,0.0090927,2
8640,54.233,19.258,0,-0.037236,0,8827.5,57.586,0,0,0,0,0.0090927,2
8640,54.233,19.258,0,-0.037236,0,8827.5,57.586,0,0,0,0,0.0090927,2
8640,54.233,19.258,0,-0.037236,0,8827.5,57.586,0,0,0,0,0.0090927,2
8641.2,54.233,19.255,0,-0.037083,0,8827.5,57.586,0,0,0,0,0.0091491,2
8641.2,54.233,19.255,0,-0.037083,0,8827.5,57.586,0,0,0,0,0.0091491,2
8641.2,54.233,19.255,0,-0.037083,0,8827.5,57.586,0,0,0,0,0.0091491,2
8641.2,54.233,19.255,0,-0.037083,0,8827.5,57.586,0,0,0,0,0.0091491,2
8641.2,54.233,19.255,0,-0.037083,0,8827.5,57.586,0,0,0,0,0.0091491,2
8642.3,54.233,19.253,0,-0.036928,0,8827.5,57.586,0,0,0,0,0.0092061,2
8642.3,54.233,19.253,0,-0.036928,0,8827.5,57.586,0,0,0,0,0.0092061,2
8642.3,54.233,19.253,0,-0.036928,0,8827.5,57.586,0,0,0,0,0.0092061,2
8642.3,54.233,19.253,0,-0.036928,0,8827.5,57.586,0,0,0,0,0.0092061,2
8643.5,54.233,19.251,0,-0.036774,0,8827.5,57.586,0,0,0,0,0.0092639,2
8643.5,54.233,19.251,0,-0.036774,0,8827.5,57.586,0,0,0,0,0.0092639,2
8643.8,54.233,19.25,0,-0.036724,0,8827.5,57.586,0,0,0,0,0.0092833,2
8643.8,54.233,19.25,0,-0.036724,0,8827.5,57.586,0,0,0,0,0.0092833,2
8643.8,54.233,19.25,0,-0.036724,0,8827.5,57.586,0,0,0,0,0.0092833,2
8643.8,54.233,19.25,0,-0.036724,0,8827.5,57.586,0,0,0,0,0.0092833,2
8645,54.233,19.248,0,-0.036568,0,8827.5,57.586,0,0,0,0,0.0093421,2
8645.4,54.233,19.247,0,-0.036516,0,8827.5,57.586,0,0,0,0,0.0093618,2
8645.4,54.233,19.247,0,-0.036516,0,8827.5,57.586,0,0,0,0,0.0093618,2
8645.4,54.233,19.247,0,-0.036516,0,8827.5,57.586,0,0,0,0,0.0093618,2
8645.8,54.233,19.247,0,-0.036463,0,8827.5,57.586,0,0,0,0,0.0093816,2
8645.8,54.233,19.247,0,-0.036463,0,8827.5,57.586,0,0,0,0,0.0093816,2
8646.2,54.233,19.246,0,-0.036411,0,8827.5,57.586,0,0,0,0,0.0094015,2
8646.2,54.233,19.246,0,-0.036411,0,8827.5,57.586,0,0,0,0,0.0094015,2
8646.2,54.233,19.246,0,-0.036411,0,8827.5,57.586,0,0,0,0,0.0094015,2
8646.2,54.233,19.246,0,-0.036411,0,8827.5,57.586,0,0,0,0,0.0094015,2
8646.2,54.233,19.246,0,-0.036411,0,8827.5,57.586,0,0,0,0,0.0094015,2
8646.2,54.233,19.246,0,-0.036411,0,8827.5,57.586,0,0,0,0,0.0094015,2
8646.2,54.233,19.246,0,-0.036411,0,8827.5,57.586,0,0,0,0,0.0094015,2
8646.2,54.233,19.246,0,-0.036411,0,8827.5,57.586,0,0,0,0,0.0094015,2
8646.2,54.233,19.246,0,-0.036411,0,8827.5,57.586,0,0,0,0,0.0094015,2
8646.2,54.233,19.246,0,-0.036411,0,8827.5,57.586,0,0,0,0,0.0094015,2
8646.9,54.233,19.244,0,-0.036305,0,8827.5,57.586,0,0,0,0,0.0094416,2
8647.3,54.233,19.244,0,-0.036251,0,8827.5,57.586,0,0,0,0,0.0094618,2
8647.3,54.233,19.244,0,-0.036251,0,8827.5,57.586,0,0,0,0,0.0094618,2
8648.5,54.233,19.241,0,-0.036093,0,8827.5,57.586,0,0,0,0,0.0095228,2
8649.2,54.233,19.24,0,-0.035986,0,8827.5,57.586,0,0,0,0,0.0095639,2
8649.2,54.233,19.24,0,-0.035986,0,8827.5,57.586,0,0,0,0,0.0095639,2
8649.2,54.233,19.24,0,-0.035986,0,8827.5,57.586,0,0,0,0,0.0095639,2
8649.2,54.233,19.24,0,-0.035986,0,8827.5,57.586,0,0,0,0,0.0095639,2
8649.2,54.233,19.24,0,-0.035986,0,8827.5,57.586,0,0,0,0,0.0095639,2
8649.2,54.233,19.24,0,-0.035986,0,8827.5,57.586,0,0,0,0,0.0095639,2
8649.2,54.233,19.24,0,-0.035986,0,8827.5,57.586,0,0,0,0,0.0095639,2
8649.6,54.233,19.239,0,-0.035933,0,8827.5,57.586,0,0,0,0,0.0095846,2
8649.6,54.233,19.239,0,-0.035933,0,8827.5,57.586,0,0,0,0,0.0095846,2
8649.6,54.233,19.239,0,-0.035933,0,8827.5,57.586,0,0,0,0,0.0095846,2
8649.6,54.233,19.239,0,-0.035933,0,8827.5,57.586,0,0,0,0,0.0095846,2
8650,54.233,19.239,0,-0.035879,0,8827.5,57.586,0,0,0,0,0.0096053,2
8650,54.233,19.239,0,-0.035879,0,8827.5,57.586,0,0,0,0,0.0096053,2
8650,54.233,19.239,0,-0.035879,0,8827.5,57.586,0,0,0,0,0.0096053,2
8650,54.233,19.239,0,-0.035879,0,8827.5,57.586,0,0,0,0,0.0096053,2
8650,54.233,19.239,0,-0.035879,0,8827.5,57.586,0,0,0,0,0.0096053,2
8650,54.233,19.239,0,-0.035879,0,8827.5,57.586,0,0,0,0,0.0096053,2
8650.4,54.233,19.238,0,-0.035826,0,8827.5,57.586,0,0,0,0,0.0096262,2
8650.4,54.233,19.238,0,-0.035826,0,8827.5,57.586,0,0,0,0,0.0096262,2
8650.4,54.233,19.238,0,-0.035826,0,8827.5,57.586,0,0,0,0,0.0096262,2
8651.9,54.233,19.235,0,-0.035609,0,8827.5,57.586,0,0,0,0,0.0097106,2
8653.1,54.233,19.233,0,-0.035447,0,8827.5,57.586,0,0,0,0,0.0097748,2
8653.1,54.233,19.233,0,-0.035447,0,8827.5,57.586,0,0,0,0,0.0097748,2
8653.1,54.233,19.233,0,-0.035447,0,8827.5,57.586,0,0,0,0,0.0097748,2
8653.1,54.233,19.233,0,-0.035447,0,8827.5,57.586,0,0,0,0,0.0097748,2
8653.1,54.233,19.233,0,-0.035447,0,8827.5,57.586,0,0,0,0,0.0097748,2
8653.1,54.233,19.233,0,-0.035447,0,8827.5,57.586,0,0,0,0,0.0097748,2
8653.1,54.233,19.233,0,-0.035447,0,8827.5,57.586,0,0,0,0,0.0097748,2
8653.1,54.233,19.233,0,-0.035447,0,8827.5,57.586,0,0,0,0,0.0097748,2
8653.1,54.233,19.233,0,-0.035447,0,8827.5,57.586,0,0,0,0,0.0097748,2
8653.1,54.233,19.233,0,-0.035447,0,8827.5,57.586,0,0,0,0,0.0097748,2
8653.1,54.233,19.233,0,-0.035447,0,8827.5,57.586,0,0,0,0,0.0097748,2
8653.1,54.233,19.233,0,-0.035447,0,8827.5,57.586,0,0,0,0,0.0097748,2
8653.1,54.233,19.233,0,-0.035447,0,8827.5,57.586,0,0,0,0,0.0097748,2
8653.1,54.233,19.233,0,-0.035447,0,8827.5,57.586,0,0,0,0,0.0097748,2
8653.1,54.233,19.233,0,-0.035447,0,8827.5,57.586,0,0,0,0,0.0097748,2
8653.1,54.233,19.233,0,-0.035447,0,8827.5,57.586,0,0,0,0,0.0097748,2
8653.1,54.233,19.233,0,-0.035447,0,8827.5,57.586,0,0,0,0,0.0097748,2
8654.2,54.233,19.231,0,-0.035283,0,8827.5,57.586,0,0,0,0,0.0098399,2
8654.2,54.233,19.231,0,-0.035283,0,8827.5,57.586,0,0,0,0,0.0098399,2
8654.2,54.233,19.231,0,-0.035283,0,8827.5,57.586,0,0,0,0,0.0098399,2
8655.4,54.233,19.229,0,-0.035118,0,8827.5,57.586,0,0,0,0,0.0099058,2
8656.5,54.233,19.227,0,-0.034951,0,8827.5,57.586,0,0,0,0,0.0099727,2
8657.7,54.233,19.224,0,-0.034786,0,8827.5,57.586,0,0,0,0,0.01004,2
8657.7,54.233,19.224,0,-0.034786,0,8827.5,57.586,0,0,0,0,0.01004,2
8657.7,54.233,19.224,0,-0.034786,0,8827.5,57.586,0,0,0,0,0.01004,2
8657.7,54.233,19.224,0,-0.034786,0,8827.5,57.586,0,0,0,0,0.01004,2
8657.7,54.233,19.224,0,-0.034786,0,8827.5,57.586,0,0,0,0,0.01004,2
8657.7,54.233,19.224,0,-0.034786,0,8827.5,57.586,0,0,0,0,0.01004,2
8657.7,54.233,19.224,0,-0.034786,0,8827.5,57.586,0,0,0,0,0.01004,2
8657.7,54.233,19.224,0,-0.034786,0,8827.5,57.586,0,0,0,0,0.01004,2
8657.7,54.233,19.224,0,-0.034786,0,8827.5,57.586,0,0,0,0,0.01004,2
8657.7,54.233,19.224,0,-0.034786,0,8827.5,57.586,0,0,0,0,0.01004,2
8657.7,54.233,19.224,0,-0.034786,0,8827.5,57.586,0,0,0,0,0.01004,2
8657.7,54.233,19.224,0,-0.034786,0,8827.5,57.586,0,0,0,0,0.01004,2
8657.7,54.233,19.224,0,-0.034786,0,8827.5,57.586,0,0,0,0,0.01004,2
8657.7,54.233,19.224,0,-0.034786,0,8827.5,57.586,0,0,0,0,0.01004,2
8657.7,54.233,19.224,0,-0.034786,0,8827.5,57.586,0,0,0,0,0.01004,2
8657.7,54.233,19.224,0,-0.034786,0,8827.5,57.586,0,0,0,0,0.01004,2
8657.7,54.233,19.224,0,-0.034786,0,8827.5,57.586,0,0,0,0,0.01004,2
8658.5,54.233,19.223,0,-0.034674,0,8827.5,57.586,0,0,0,0,0.010086,2
8658.5,54.233,19.223,0,-0.034674,0,8827.5,57.586,0,0,0,0,0.010086,2
8658.5,54.233,19.223,0,-0.034674,0,8827.5,57.586,0,0,0,0,0.010086,2
8658.9,54.233,19.222,0,-0.034619,0,8827.5,57.586,0,0,0,0,0.010109,2
8658.9,54.233,19.222,0,-0.034619,0,8827.5,57.586,0,0,0,0,0.010109,2
8658.9,54.233,19.222,0,-0.034619,0,8827.5,57.586,0,0,0,0,0.010109,2
8661.2,54.233,19.218,0,-0.03428,0,8827.5,57.586,0,0,0,0,0.010249,2
8661.2,54.233,19.218,0,-0.03428,0,8827.5,57.586,0,0,0,0,0.010249,2
8661.9,54.233,19.217,0,-0.034167,0,8827.5,57.586,0,0,0,0,0.010297,2
8661.9,54.233,19.217,0,-0.034167,0,8827.5,57.586,0,0,0,0,0.010297,2
8661.9,54.233,19.217,0,-0.034167,0,8827.5,57.586,0,0,0,0,0.010297,2
8661.9,54.233,19.217,0,-0.034167,0,8827.5,57.586,0,0,0,0,0.010297,2
8661.9,54.233,19.217,0,-0.034167,0,8827.5,57.586,0,0,0,0,0.010297,2
8661.9,54.233,19.217,0,-0.034167,0,8827.5,57.586,0,0,0,0,0.010297,2
8661.9,54.233,19.217,0,-0.034167,0,8827.5,57.586,0,0,0,0,0.010297,2
8661.9,54.233,19.217,0,-0.034167,0,8827.5,57.586,0,0,0,0,0.010297,2
8661.9,54.233,19.217,0,-0.034167,0,8827.5,57.586,0,0,0,0,0.010297,2
8661.9,54.233,19.217,0,-0.034167,0,8827.5,57.586,0,0,0,0,0.010297,2
8661.9,54.233,19.217,0,-0.034167,0,8827.5,57.586,0,0,0,0,0.010297,2
8661.9,54.233,19.217,0,-0.034167,0,8827.5,57.586,0,0,0,0,0.010297,2
8663.1,54.233,19.215,0,-0.033996,0,8827.5,57.586,0,0,0,0,0.010369,2
8663.1,54.233,19.215,0,-0.033996,0,8827.5,57.586,0,0,0,0,0.010369,2
8663.1,54.233,19.215,0,-0.033996,0,8827.5,57.586,0,0,0,0,0.010369,2
8663.1,54.233,19.215,0,-0.033996,0,8827.5,57.586,0,0,0,0,0.010369,2
8663.1,54.233,19.215,0,-0.033996,0,8827.5,57.586,0,0,0,0,0.010369,2
8663.1,54.233,19.215,0,-0.033996,0,8827.5,57.586,0,0,0,0,0.010369,2
8663.1,54.233,19.215,0,-0.033996,0,8827.5,57.586,0,0,0,0,0.010369,2
8663.5,54.233,19.214,0,-0.03394,0,8827.5,57.586,0,0,0,0,0.010393,2
8663.5,54.233,19.214,0,-0.03394,0,8827.5,57.586,0,0,0,0,0.010393,2
8663.8,54.233,19.213,0,-0.033882,0,8827.5,57.586,0,0,0,0,0.010418,2
8665.4,54.233,19.211,0,-0.033652,0,8827.5,57.586,0,0,0,0,0.010516,2
8665.4,54.233,19.211,0,-0.033652,0,8827.5,57.586,0,0,0,0,0.010516,2
8665.8,54.233,19.21,0,-0.033594,0,8827.5,57.586,0,0,0,0,0.010541,2
8665.8,54.233,19.21,0,-0.033594,0,8827.5,57.586,0,0,0,0,0.010541,2
8666.9,54.233,19.208,0,-0.03342,0,8827.5,57.586,0,0,0,0,0.010617,2
8666.9,54.233,19.208,0,-0.03342,0,8827.5,57.586,0,0,0,0,0.010617,2
8666.9,54.233,19.208,0,-0.03342,0,8827.5,57.586,0,0,0,0,0.010617,2
8666.9,54.233,19.208,0,-0.03342,0,8827.5,57.586,0,0,0,0,0.010617,2
8666.9,54.233,19.208,0,-0.03342,0,8827.5,57.586,0,0,0,0,0.010617,2
8666.9,54.233,19.208,0,-0.03342,0,8827.5,57.586,0,0,0,0,0.010617,2
8666.9,54.233,19.208,0,-0.03342,0,8827.5,57.586,0,0,0,0,0.010617,2
8667.7,54.233,19.207,0,-0.033303,0,8827.5,57.586,0,0,0,0,0.010668,2
8667.7,54.233,19.207,0,-0.033303,0,8827.5,57.586,0,0,0,0,0.010668,2
8667.7,54.233,19.207,0,-0.033303,0,8827.5,57.586,0,0,0,0,0.010668,2
8667.7,54.233,19.207,0,-0.033303,0,8827.5,57.586,0,0,0,0,0.010668,2
8667.7,54.233,19.207,0,-0.033303,0,8827.5,57.586,0,0,0,0,0.010668,2
8667.7,54.233,19.207,0,-0.033303,0,8827.5,57.586,0,0,0,0,0.010668,2
8667.7,54.233,19.207,0,-0.033303,0,8827.5,57.586,0,0,0,0,0.010668,2
8667.7,54.233,19.207,0,-0.033303,0,8827.5,57.586,0,0,0,0,0.010668,2
8667.7,54.233,19.207,0,-0.033303,0,8827.5,57.586,0,0,0,0,0.010668,2
8667.7,54.233,19.207,0,-0.033303,0,8827.5,57.586,0,0,0,0,0.010668,2
8667.7,54.233,19.207,0,-0.033303,0,8827.5,57.586,0,0,0,0,0.010668,2
8667.7,54.233,19.207,0,-0.033303,0,8827.5,57.586,0,0,0,0,0.010668,2
8667.7,54.233,19.207,0,-0.033303,0,8827.5,57.586,0,0,0,0,0.010668,2
8668.5,54.233,19.205,0,-0.033186,0,8827.5,57.586,0,0,0,0,0.010719,2
8669.6,54.233,19.203,0,-0.03301,0,8827.5,57.586,0,0,0,0,0.010798,2
8669.6,54.233,19.203,0,-0.03301,0,8827.5,57.586,0,0,0,0,0.010798,2
8671.9,54.233,19.199,0,-0.032656,0,8827.5,57.586,0,0,0,0,0.010958,2
8671.9,54.233,19.199,0,-0.032656,0,8827.5,57.586,0,0,0,0,0.010958,2
8671.9,54.233,19.199,0,-0.032656,0,8827.5,57.586,0,0,0,0,0.010958,2
8671.9,54.233,19.199,0,-0.032656,0,8827.5,57.586,0,0,0,0,0.010958,2
8671.9,54.233,19.199,0,-0.032656,0,8827.5,57.586,0,0,0,0,0.010958,2
8671.9,54.233,19.199,0,-0.032656,0,8827.5,57.586,0,0,0,0,0.010958,2
8671.9,54.233,19.199,0,-0.032656,0,8827.5,57.586,0,0,0,0,0.010958,2
8671.9,54.233,19.199,0,-0.032656,0,8827.5,57.586,0,0,0,0,0.010958,2
8671.9,54.233,19.199,0,-0.032656,0,8827.5,57.586,0,0,0,0,0.010958,2
8671.9,54.233,19.199,0,-0.032656,0,8827.5,57.586,0,0,0,0,0.010958,2
8671.9,54.233,19.199,0,-0.032656,0,8827.5,57.586,0,0,0,0,0.010958,2
8671.9,54.233,19.199,0,-0.032656,0,8827.5,57.586,0,0,0,0,0.010958,2
8671.9,54.233,19.199,0,-0.032656,0,8827.5,57.586,0,0,0,0,0.010958,2
8671.9,54.233,19.199,0,-0.032656,0,8827.5,57.586,0,0,0,0,0.010958,2
8671.9,54.233,19.199,0,-0.032656,0,8827.5,57.586,0,0,0,0,0.010958,2
8671.9,54.233,19.199,0,-0.032656,0,8827.5,57.586,0,0,0,0,0.010958,2
8671.9,54.233,19.199,0,-0.032656,0,8827.5,57.586,0,0,0,0,0.010958,2
8671.9,54.233,19.199,0,-0.032656,0,8827.5,57.586,0,0,0,0,0.010958,2
8671.9,54.233,19.199,0,-0.032656,0,8827.5,57.586,0,0,0,0,0.010958,2
8672.7,54.233,19.198,0,-0.032537,0,8827.5,57.586,0,0,0,0,0.011012,2
8672.7,54.233,19.198,0,-0.032537,0,8827.5,57.586,0,0,0,0,0.011012,2
8672.7,54.233,19.198,0,-0.032537,0,8827.5,57.586,0,0,0,0,0.011012,2
8672.7,54.233,19.198,0,-0.032537,0,8827.5,57.586,0,0,0,0,0.011012,2
8672.7,54.233,19.198,0,-0.032537,0,8827.5,57.586,0,0,0,0,0.011012,2
8674.6,54.233,19.195,0,-0.032239,0,8827.5,57.586,0,0,0,0,0.01115,2
8675.4,54.233,19.194,0,-0.03212,0,8827.5,57.586,0,0,0,0,0.011206,2
8675.4,54.233,19.194,0,-0.03212,0,8827.5,57.586,0,0,0,0,0.011206,2
8676.5,54.233,19.192,0,-0.031939,0,8827.5,57.586,0,0,0,0,0.011292,2
8676.5,54.233,19.192,0,-0.031939,0,8827.5,57.586,0,0,0,0,0.011292,2
8676.5,54.233,19.192,0,-0.031939,0,8827.5,57.586,0,0,0,0,0.011292,2
8676.5,54.233,19.192,0,-0.031939,0,8827.5,57.586,0,0,0,0,0.011292,2
8676.5,54.233,19.192,0,-0.031939,0,8827.5,57.586,0,0,0,0,0.011292,2
8676.5,54.233,19.192,0,-0.031939,0,8827.5,57.586,0,0,0,0,0.011292,2
8676.5,54.233,19.192,0,-0.031939,0,8827.5,57.586,0,0,0,0,0.011292,2
8676.5,54.233,19.192,0,-0.031939,0,8827.5,57.586,0,0,0,0,0.011292,2
8677.7,54.233,19.19,0,-0.031756,0,8827.5,57.586,0,0,0,0,0.011379,2
8677.7,54.233,19.19,0,-0.031756,0,8827.5,57.586,0,0,0,0,0.011379,2
8677.7,54.233,19.19,0,-0.031756,0,8827.5,57.586,0,0,0,0,0.011379,2
8677.7,54.233,19.19,0,-0.031756,0,8827.5,57.586,0,0,0,0,0.011379,2
8677.7,54.233,19.19,0,-0.031756,0,8827.5,57.586,0,0,0,0,0.011379,2
8677.7,54.233,19.19,0,-0.031756,0,8827.5,57.586,0,0,0,0,0.011379,2
8677.7,54.233,19.19,0,-0.031756,0,8827.5,57.586,0,0,0,0,0.011379,2
8678.4,54.233,19.189,0,-0.031635,0,8827.5,57.586,0,0,0,0,0.011437,2
8678.4,54.233,19.189,0,-0.031635,0,8827.5,57.586,0,0,0,0,0.011437,2
8679.2,54.233,19.187,0,-0.031512,0,8827.5,57.586,0,0,0,0,0.011496,2
8679.6,54.233,19.187,0,-0.031451,0,8827.5,57.586,0,0,0,0,0.011526,2
8679.6,54.233,19.187,0,-0.031451,0,8827.5,57.586,0,0,0,0,0.011526,2
8679.6,54.233,19.187,0,-0.031451,0,8827.5,57.586,0,0,0,0,0.011526,2
8679.6,54.233,19.187,0,-0.031451,0,8827.5,57.586,0,0,0,0,0.011526,2
8679.6,54.233,19.187,0,-0.031451,0,8827.5,57.586,0,0,0,0,0.011526,2
8679.6,54.233,19.187,0,-0.031451,0,8827.5,57.586,0,0,0,0,0.011526,2
8679.6,54.233,19.187,0,-0.031451,0,8827.5,57.586,0,0,0,0,0.011526,2
8679.6,54.233,19.187,0,-0.031451,0,8827.5,57.586,0,0,0,0,0.011526,2
8679.6,54.233,19.187,0,-0.031451,0,8827.5,57.586,0,0,0,0,0.011526,2
8681.1,54.233,19.184,0,-0.031205,0,8827.5,57.586,0,0,0,0,0.011647,2
8681.1,54.233,19.184,0,-0.031205,0,8827.5,57.586,0,0,0,0,0.011647,2
8681.5,54.233,19.184,0,-0.031144,0,8827.5,57.586,0,0,0,0,0.011678,2
8681.5,54.233,19.184,0,-0.031144,0,8827.5,57.586,0,0,0,0,0.011678,2
8681.5,54.233,19.184,0,-0.031144,0,8827.5,57.586,0,0,0,0,0.011678,2
8681.5,54.233,19.184,0,-0.031144,0,8827.5,57.586,0,0,0,0,0.011678,2
8681.5,54.233,19.184,0,-0.031144,0,8827.5,57.586,0,0,0,0,0.011678,2
8681.5,54.233,19.184,0,-0.031144,0,8827.5,57.586,0,0,0,0,0.011678,2
8681.5,54.233,19.184,0,-0.031144,0,8827.5,57.586,0,0,0,0,0.011678,2
8681.9,54.233,19.183,0,-0.031081,0,8827.5,57.586,0,0,0,0,0.011708,2
8681.9,54.233,19.183,0,-0.031081,0,8827.5,57.586,0,0,0,0,0.011708,2
8682.7,54.233,19.182,0,-0.030957,0,8827.5,57.586,0,0,0,0,0.01177,2
8682.7,54.233,19.182,0,-0.030957,0,8827.5,57.586,0,0,0,0,0.01177,2
8683.4,54.233,19.18,0,-0.030831,0,8827.5,57.586,0,0,0,0,0.011833,2
8683.4,54.233,19.18,0,-0.030831,0,8827.5,57.586,0,0,0,0,0.011833,2
8683.4,54.233,19.18,0,-0.030831,0,8827.5,57.586,0,0,0,0,0.011833,2
8683.4,54.233,19.18,0,-0.030831,0,8827.5,57.586,0,0,0,0,0.011833,2
8683.4,54.233,19.18,0,-0.030831,0,8827.5,57.586,0,0,0,0,0.011833,2
8683.4,54.233,19.18,0,-0.030831,0,8827.5,57.586,0,0,0,0,0.011833,2
8683.4,54.233,19.18,0,-0.030831,0,8827.5,57.586,0,0,0,0,0.011833,2
8683.4,54.233,19.18,0,-0.030831,0,8827.5,57.586,0,0,0,0,0.011833,2
8683.4,54.233,19.18,0,-0.030831,0,8827.5,57.586,0,0,0,0,0.011833,2
8683.4,54.233,19.18,0,-0.030831,0,8827.5,57.586,0,0,0,0,0.011833,2
8683.4,54.233,19.18,0,-0.030831,0,8827.5,57.586,0,0,0,0,0.011833,2
8683.4,54.233,19.18,0,-0.030831,0,8827.5,57.586,0,0,0,0,0.011833,2
8683.4,54.233,19.18,0,-0.030831,0,8827.5,57.586,0,0,0,0,0.011833,2
8683.4,54.233,19.18,0,-0.030831,0,8827.5,57.586,0,0,0,0,0.011833,2
8683.4,54.233,19.18,0,-0.030831,0,8827.5,57.586,0,0,0,0,0.011833,2
8683.4,54.233,19.18,0,-0.030831,0,8827.5,57.586,0,0,0,0,0.011833,2
8685.7,54.233,19.177,0,-0.030455,0,8827.5,57.586,0,0,0,0,0.012025,2
8685.7,54.233,19.177,0,-0.030455,0,8827.5,57.586,0,0,0,0,0.012025,2
8685.7,54.233,19.177,0,-0.030455,0,8827.5,57.586,0,0,0,0,0.012025,2
8685.7,54.233,19.177,0,-0.030455,0,8827.5,57.586,0,0,0,0,0.012025,2
8685.7,54.233,19.177,0,-0.030455,0,8827.5,57.586,0,0,0,0,0.012025,2
8685.7,54.233,19.177,0,-0.030455,0,8827.5,57.586,0,0,0,0,0.012025,2
8685.7,54.233,19.177,0,-0.030455,0,8827.5,57.586,0,0,0,0,0.012025,2
8685.7,54.233,19.177,0,-0.030455,0,8827.5,57.586,0,0,0,0,0.012025,2
8685.7,54.233,19.177,0,-0.030455,0,8827.5,57.586,0,0,0,0,0.012025,2
8685.7,54.233,19.177,0,-0.030455,0,8827.5,57.586,0,0,0,0,0.012025,2
8685.7,54.233,19.177,0,-0.030455,0,8827.5,57.586,0,0,0,0,0.012025,2
8686.9,54.233,19.175,0,-0.030266,0,8827.5,57.586,0,0,0,0,0.012123,2
8688.4,54.233,19.173,0,-0.030015,0,8827.5,57.586,0,0,0,0,0.012257,2
8688.4,54.233,19.173,0,-0.030015,0,8827.5,57.586,0,0,0,0,0.012257,2
8688.4,54.233,19.173,0,-0.030015,0,8827.5,57.586,0,0,0,0,0.012257,2
8690.3,54.233,19.17,0,-0.029696,0,8827.5,57.586,0,0,0,0,0.012428,2
8690.3,54.233,19.17,0,-0.029696,0,8827.5,57.586,0,0,0,0,0.012428,2
8690.3,54.233,19.17,0,-0.029696,0,8827.5,57.586,0,0,0,0,0.012428,2
8690.3,54.233,19.17,0,-0.029696,0,8827.5,57.586,0,0,0,0,0.012428,2
8690.3,54.233,19.17,0,-0.029696,0,8827.5,57.586,0,0,0,0,0.012428,2
8690.3,54.233,19.17,0,-0.029696,0,8827.5,57.586,0,0,0,0,0.012428,2
8690.3,54.233,19.17,0,-0.029696,0,8827.5,57.586,0,0,0,0,0.012428,2
8690.3,54.233,19.17,0,-0.029696,0,8827.5,57.586,0,0,0,0,0.012428,2
8690.3,54.233,19.17,0,-0.029696,0,8827.5,57.586,0,0,0,0,0.012428,2
8690.3,54.233,19.17,0,-0.029696,0,8827.5,57.586,0,0,0,0,0.012428,2
8690.3,54.233,19.17,0,-0.029696,0,8827.5,57.586,0,0,0,0,0.012428,2
8690.3,54.233,19.17,0,-0.029696,0,8827.5,57.586,0,0,0,0,0.012428,2
8690.3,54.233,19.17,0,-0.029696,0,8827.5,57.586,0,0,0,0,0.012428,2
8690.3,54.233,19.17,0,-0.029696,0,8827.5,57.586,0,0,0,0,0.012428,2
8690.3,54.233,19.17,0,-0.029696,0,8827.5,57.586,0,0,0,0,0.012428,2
8690.3,54.233,19.17,0,-0.029696,0,8827.5,57.586,0,0,0,0,0.012428,2
8690.3,54.233,19.17,0,-0.029696,0,8827.5,57.586,0,0,0,0,0.012428,2
8690.3,54.233,19.17,0,-0.029696,0,8827.5,57.586,0,0,0,0,0.012428,2
8690.3,54.233,19.17,0,-0.029696,0,8827.5,57.586,0,0,0,0,0.012428,2
8690.3,54.233,19.17,0,-0.029696,0,8827.5,57.586,0,0,0,0,0.012428,2
8693,54.233,19.165,0,-0.029247,0,8827.5,57.586,0,0,0,0,0.012676,2
8693,54.233,19.165,0,-0.029247,0,8827.5,57.586,0,0,0,0,0.012676,2
8693.4,54.233,19.165,0,-0.029182,0,8827.5,57.586,0,0,0,0,0.012712,2
8693.4,54.233,19.165,0,-0.029182,0,8827.5,57.586,0,0,0,0,0.012712,2
8693.4,54.233,19.165,0,-0.029182,0,8827.5,57.586,0,0,0,0,0.012712,2
8694.9,54.233,19.163,0,-0.028922,0,8827.5,57.586,0,0,0,0,0.012859,2
8694.9,54.233,19.163,0,-0.028922,0,8827.5,57.586,0,0,0,0,0.012859,2
8694.9,54.233,19.163,0,-0.028922,0,8827.5,57.586,0,0,0,0,0.012859,2
8694.9,54.233,19.163,0,-0.028922,0,8827.5,57.586,0,0,0,0,0.012859,2
8695.3,54.233,19.162,0,-0.028858,0,8827.5,57.586,0,0,0,0,0.012896,2
8695.3,54.233,19.162,0,-0.028858,0,8827.5,57.586,0,0,0,0,0.012896,2
8695.3,54.233,19.162,0,-0.028858,0,8827.5,57.586,0,0,0,0,0.012896,2
8696.1,54.233,19.161,0,-0.028726,0,8827.5,57.586,0,0,0,0,0.012972,2
8696.1,54.233,19.161,0,-0.028726,0,8827.5,57.586,0,0,0,0,0.012972,2
8696.5,54.233,19.16,0,-0.028661,0,8827.5,57.586,0,0,0,0,0.01301,2
8696.5,54.233,19.16,0,-0.028661,0,8827.5,57.586,0,0,0,0,0.01301,2
8697.2,54.233,19.159,0,-0.028529,0,8827.5,57.586,0,0,0,0,0.013086,2
8697.2,54.233,19.159,0,-0.028529,0,8827.5,57.586,0,0,0,0,0.013086,2
8697.2,54.233,19.159,0,-0.028529,0,8827.5,57.586,0,0,0,0,0.013086,2
8697.2,54.233,19.159,0,-0.028529,0,8827.5,57.586,0,0,0,0,0.013086,2
8697.2,54.233,19.159,0,-0.028529,0,8827.5,57.586,0,0,0,0,0.013086,2
8697.2,54.233,19.159,0,-0.028529,0,8827.5,57.586,0,0,0,0,0.013086,2
8697.2,54.233,19.159,0,-0.028529,0,8827.5,57.586,0,0,0,0,0.013086,2
8697.2,54.233,19.159,0,-0.028529,0,8827.5,57.586,0,0,0,0,0.013086,2
8697.2,54.233,19.159,0,-0.028529,0,8827.5,57.586,0,0,0,0,0.013086,2
8697.2,54.233,19.159,0,-0.028529,0,8827.5,57.586,0,0,0,0,0.013086,2
8697.2,54.233,19.159,0,-0.028529,0,8827.5,57.586,0,0,0,0,0.013086,2
8697.2,54.233,19.159,0,-0.028529,0,8827.5,57.586,0,0,0,0,0.013086,2
8697.2,54.233,19.159,0,-0.028529,0,8827.5,57.586,0,0,0,0,0.013086,2
8697.2,54.233,19.159,0,-0.028529,0,8827.5,57.586,0,0,0,0,0.013086,2
8698.4,54.233,19.157,0,-0.028333,0,8827.5,57.586,0,0,0,0,0.013202,2
8699.5,54.233,19.156,0,-0.028136,0,8827.5,57.586,0,0,0,0,0.013321,2
8699.5,54.233,19.156,0,-0.028136,0,8827.5,57.586,0,0,0,0,0.013321,2
8700.7,54.233,19.154,0,-0.027938,0,8827.5,57.586,0,0,0,0,0.013442,2
8700.7,54.233,19.154,0,-0.027938,0,8827.5,57.586,0,0,0,0,0.013442,2
8700.7,54.233,19.154,0,-0.027938,0,8827.5,57.586,0,0,0,0,0.013442,2
8700.7,54.233,19.154,0,-0.027938,0,8827.5,57.586,0,0,0,0,0.013442,2
8700.7,54.233,19.154,0,-0.027938,0,8827.5,57.586,0,0,0,0,0.013442,2
8700.7,54.233,19.154,0,-0.027938,0,8827.5,57.586,0,0,0,0,0.013442,2
8700.7,54.233,19.154,0,-0.027938,0,8827.5,57.586,0,0,0,0,0.013442,2
8700.7,54.233,19.154,0,-0.027938,0,8827.5,57.586,0,0,0,0,0.013442,2
8700.7,54.233,19.154,0,-0.027938,0,8827.5,57.586,0,0,0,0,0.013442,2
8700.7,54.233,19.154,0,-0.027938,0,8827.5,57.586,0,0,0,0,0.013442,2
8701.4,54.233,19.153,0,-0.027805,0,8827.5,57.586,0,0,0,0,0.013523,2
8701.4,54.233,19.153,0,-0.027805,0,8827.5,57.586,0,0,0,0,0.013523,2
8701.4,54.233,19.153,0,-0.027805,0,8827.5,57.586,0,0,0,0,0.013523,2
8701.4,54.233,19.153,0,-0.027805,0,8827.5,57.586,0,0,0,0,0.013523,2
8701.4,54.233,19.153,0,-0.027805,0,8827.5,57.586,0,0,0,0,0.013523,2
8701.4,54.233,19.153,0,-0.027805,0,8827.5,57.586,0,0,0,0,0.013523,2
8701.4,54.233,19.153,0,-0.027805,0,8827.5,57.586,0,0,0,0,0.013523,2
8701.4,54.233,19.153,0,-0.027805,0,8827.5,57.586,0,0,0,0,0.013523,2
8701.4,54.233,19.153,0,-0.027805,0,8827.5,57.586,0,0,0,0,0.013523,2
8701.4,54.233,19.153,0,-0.027805,0,8827.5,57.586,0,0,0,0,0.013523,2
8701.4,54.233,19.153,0,-0.027805,0,8827.5,57.586,0,0,0,0,0.013523,2
8703,54.233,19.151,0,-0.027539,0,8827.5,57.586,0,0,0,0,0.01369,2
8703.7,54.233,19.15,0,-0.027405,0,8827.5,57.586,0,0,0,0,0.013774,2
8703.7,54.233,19.15,0,-0.027405,0,8827.5,57.586,0,0,0,0,0.013774,2
8703.7,54.233,19.15,0,-0.027405,0,8827.5,57.586,0,0,0,0,0.013774,2
8703.7,54.233,19.15,0,-0.027405,0,8827.5,57.586,0,0,0,0,0.013774,2
8703.7,54.233,19.15,0,-0.027405,0,8827.5,57.586,0,0,0,0,0.013774,2
8703.7,54.233,19.15,0,-0.027405,0,8827.5,57.586,0,0,0,0,0.013774,2
8703.7,54.233,19.15,0,-0.027405,0,8827.5,57.586,0,0,0,0,0.013774,2
8703.7,54.233,19.15,0,-0.027405,0,8827.5,57.586,0,0,0,0,0.013774,2
8703.7,54.233,19.15,0,-0.027405,0,8827.5,57.586,0,0,0,0,0.013774,2
8703.7,54.233,19.15,0,-0.027405,0,8827.5,57.586,0,0,0,0,0.013774,2
8705.7,54.233,19.147,0,-0.027069,0,8827.5,57.586,0,0,0,0,0.013991,2
8705.7,54.233,19.147,0,-0.027069,0,8827.5,57.586,0,0,0,0,0.013991,2
8705.7,54.233,19.147,0,-0.027069,0,8827.5,57.586,0,0,0,0,0.013991,2
8705.7,54.233,19.147,0,-0.027069,0,8827.5,57.586,0,0,0,0,0.013991,2
8705.7,54.233,19.147,0,-0.027069,0,8827.5,57.586,0,0,0,0,0.013991,2
8705.7,54.233,19.147,0,-0.027069,0,8827.5,57.586,0,0,0,0,0.013991,2
8705.7,54.233,19.147,0,-0.027069,0,8827.5,57.586,0,0,0,0,0.013991,2
8705.7,54.233,19.147,0,-0.027069,0,8827.5,57.586,0,0,0,0,0.013991,2
8705.7,54.233,19.147,0,-0.027069,0,8827.5,57.586,0,0,0,0,0.013991,2
8705.7,54.233,19.147,0,-0.027069,0,8827.5,57.586,0,0,0,0,0.013991,2
8705.7,54.233,19.147,0,-0.027069,0,8827.5,57.586,0,0,0,0,0.013991,2
8705.7,54.233,19.147,0,-0.027069,0,8827.5,57.586,0,0,0,0,0.013991,2
8705.7,54.233,19.147,0,-0.027069,0,8827.5,57.586,0,0,0,0,0.013991,2
8706.4,54.233,19.146,0,-0.026934,0,8827.5,57.586,0,0,0,0,0.014079,2
8707.6,54.233,19.144,0,-0.026731,0,8827.5,57.586,0,0,0,0,0.014214,2
8709.5,54.233,19.141,0,-0.02639,0,8827.5,57.586,0,0,0,0,0.014444,2
8709.5,54.233,19.141,0,-0.02639,0,8827.5,57.586,0,0,0,0,0.014444,2
8709.5,54.233,19.141,0,-0.02639,0,8827.5,57.586,0,0,0,0,0.014444,2
8709.5,54.233,19.141,0,-0.02639,0,8827.5,57.586,0,0,0,0,0.014444,2
8709.5,54.233,19.141,0,-0.02639,0,8827.5,57.586,0,0,0,0,0.014444,2
8709.5,54.233,19.141,0,-0.02639,0,8827.5,57.586,0,0,0,0,0.014444,2
8709.5,54.233,19.141,0,-0.02639,0,8827.5,57.586,0,0,0,0,0.014444,2
8709.5,54.233,19.141,0,-0.02639,0,8827.5,57.586,0,0,0,0,0.014444,2
8709.5,54.233,19.141,0,-0.02639,0,8827.5,57.586,0,0,0,0,0.014444,2
8709.5,54.233,19.141,0,-0.02639,0,8827.5,57.586,0,0,0,0,0.014444,2
8709.5,54.233,19.141,0,-0.02639,0,8827.5,57.586,0,0,0,0,0.014444,2
8709.5,54.233,19.141,0,-0.02639,0,8827.5,57.586,0,0,0,0,0.014444,2
8710.6,54.233,19.14,0,-0.026185,0,8827.5,57.586,0,0,0,0,0.014586,2
8710.6,54.233,19.14,0,-0.026185,0,8827.5,57.586,0,0,0,0,0.014586,2
8710.6,54.233,19.14,0,-0.026185,0,8827.5,57.586,0,0,0,0,0.014586,2
8710.6,54.233,19.14,0,-0.026185,0,8827.5,57.586,0,0,0,0,0.014586,2
8710.6,54.233,19.14,0,-0.026185,0,8827.5,57.586,0,0,0,0,0.014586,2
8710.6,54.233,19.14,0,-0.026185,0,8827.5,57.586,0,0,0,0,0.014586,2
8710.6,54.233,19.14,0,-0.026185,0,8827.5,57.586,0,0,0,0,0.014586,2
8710.6,54.233,19.14,0,-0.026185,0,8827.5,57.586,0,0,0,0,0.014586,2
8711,54.233,19.139,0,-0.026116,0,8827.5,57.586,0,0,0,0,0.014634,2
8711,54.233,19.139,0,-0.026116,0,8827.5,57.586,0,0,0,0,0.014634,2
8711.4,54.233,19.139,0,-0.026047,0,8827.5,57.586,0,0,0,0,0.014682,2
8712.9,54.233,19.137,0,-0.025773,0,8827.5,57.586,0,0,0,0,0.014878,2
8714.1,54.233,19.135,0,-0.025565,0,8827.5,57.586,0,0,0,0,0.015029,2
8714.1,54.233,19.135,0,-0.025565,0,8827.5,57.586,0,0,0,0,0.015029,2
8714.1,54.233,19.135,0,-0.025565,0,8827.5,57.586,0,0,0,0,0.015029,2
8714.1,54.233,19.135,0,-0.025565,0,8827.5,57.586,0,0,0,0,0.015029,2
8714.1,54.233,19.135,0,-0.025565,0,8827.5,57.586,0,0,0,0,0.015029,2
8714.1,54.233,19.135,0,-0.025565,0,8827.5,57.586,0,0,0,0,0.015029,2
8714.1,54.233,19.135,0,-0.025565,0,8827.5,57.586,0,0,0,0,0.015029,2
8714.1,54.233,19.135,0,-0.025565,0,8827.5,57.586,0,0,0,0,0.015029,2
8714.1,54.233,19.135,0,-0.025565,0,8827.5,57.586,0,0,0,0,0.015029,2
8714.1,54.233,19.135,0,-0.025565,0,8827.5,57.586,0,0,0,0,0.015029,2
8714.1,54.233,19.135,0,-0.025565,0,8827.5,57.586,0,0,0,0,0.015029,2
8715.2,54.233,19.134,0,-0.025358,0,8827.5,57.586,0,0,0,0,0.015182,2
8715.2,54.233,19.134,0,-0.025358,0,8827.5,57.586,0,0,0,0,0.015182,2
8715.2,54.233,19.134,0,-0.025358,0,8827.5,57.586,0,0,0,0,0.015182,2
8715.2,54.233,19.134,0,-0.025358,0,8827.5,57.586,0,0,0,0,0.015182,2
8715.2,54.233,19.134,0,-0.025358,0,8827.5,57.586,0,0,0,0,0.015182,2
8715.2,54.233,19.134,0,-0.025358,0,8827.5,57.586,0,0,0,0,0.015182,2
8715.2,54.233,19.134,0,-0.025358,0,8827.5,57.586,0,0,0,0,0.015182,2
8715.2,54.233,19.134,0,-0.025358,0,8827.5,57.586,0,0,0,0,0.015182,2
8715.2,54.233,19.134,0,-0.025358,0,8827.5,57.586,0,0,0,0,0.015182,2
8715.2,54.233,19.134,0,-0.025358,0,8827.5,57.586,0,0,0,0,0.015182,2
8715.2,54.233,19.134,0,-0.025358,0,8827.5,57.586,0,0,0,0,0.015182,2
8715.2,54.233,19.134,0,-0.025358,0,8827.5,57.586,0,0,0,0,0.015182,2
8715.2,54.233,19.134,0,-0.025358,0,8827.5,57.586,0,0,0,0,0.015182,2
8717.1,54.233,19.131,0,-0.025008,0,8827.5,57.586,0,0,0,0,0.015445,2
8717.1,54.233,19.131,0,-0.025008,0,8827.5,57.586,0,0,0,0,0.015445,2
8717.5,54.233,19.131,0,-0.024939,0,8827.5,57.586,0,0,0,0,0.015499,2
8719.1,54.233,19.129,0,-0.024659,0,8827.5,57.586,0,0,0,0,0.015718,2
8719.1,54.233,19.129,0,-0.024659,0,8827.5,57.586,0,0,0,0,0.015718,2
8719.1,54.233,19.129,0,-0.024659,0,8827.5,57.586,0,0,0,0,0.015718,2
8719.1,54.233,19.129,0,-0.024659,0,8827.5,57.586,0,0,0,0,0.015718,2
8719.1,54.233,19.129,0,-0.024659,0,8827.5,57.586,0,0,0,0,0.015718,2
8719.1,54.233,19.129,0,-0.024659,0,8827.5,57.586,0,0,0,0,0.015718,2
8719.1,54.233,19.129,0,-0.024659,0,8827.5,57.586,0,0,0,0,0.015718,2
8719.8,54.233,19.128,0,-0.024517,0,8827.5,57.586,0,0,0,0,0.015829,2
8719.8,54.233,19.128,0,-0.024517,0,8827.5,57.586,0,0,0,0,0.015829,2
8720.2,54.233,19.127,0,-0.024448,0,8827.5,57.586,0,0,0,0,0.015886,2
8720.2,54.233,19.127,0,-0.024448,0,8827.5,57.586,0,0,0,0,0.015886,2
8720.2,54.233,19.127,0,-0.024448,0,8827.5,57.586,0,0,0,0,0.015886,2
8720.2,54.233,19.127,0,-0.024448,0,8827.5,57.586,0,0,0,0,0.015886,2
8720.2,54.233,19.127,0,-0.024448,0,8827.5,57.586,0,0,0,0,0.015886,2
8720.2,54.233,19.127,0,-0.024448,0,8827.5,57.586,0,0,0,0,0.015886,2
8720.2,54.233,19.127,0,-0.024448,0,8827.5,57.586,0,0,0,0,0.015886,2
8720.2,54.233,19.127,0,-0.024448,0,8827.5,57.586,0,0,0,0,0.015886,2
8720.2,54.233,19.127,0,-0.024448,0,8827.5,57.586,0,0,0,0,0.015886,2
8720.2,54.233,19.127,0,-0.024448,0,8827.5,57.586,0,0,0,0,0.015886,2
8720.2,54.233,19.127,0,-0.024448,0,8827.5,57.586,0,0,0,0,0.015886,2
8721.7,54.233,19.125,0,-0.024166,0,8827.5,57.586,0,0,0,0,0.016115,2
8722.1,54.233,19.125,0,-0.024094,0,8827.5,57.586,0,0,0,0,0.016174,2
8723.6,54.233,19.123,0,-0.023809,0,8827.5,57.586,0,0,0,0,0.016412,2
8723.6,54.233,19.123,0,-0.023809,0,8827.5,57.586,0,0,0,0,0.016412,2
8723.6,54.233,19.123,0,-0.023809,0,8827.5,57.586,0,0,0,0,0.016412,2
8723.6,54.233,19.123,0,-0.023809,0,8827.5,57.586,0,0,0,0,0.016412,2
8723.6,54.233,19.123,0,-0.023809,0,8827.5,57.586,0,0,0,0,0.016412,2
8723.6,54.233,19.123,0,-0.023809,0,8827.5,57.586,0,0,0,0,0.016412,2
8723.6,54.233,19.123,0,-0.023809,0,8827.5,57.586,0,0,0,0,0.016412,2
8723.6,54.233,19.123,0,-0.023809,0,8827.5,57.586,0,0,0,0,0.016412,2
8723.6,54.233,19.123,0,-0.023809,0,8827.5,57.586,0,0,0,0,0.016412,2
8723.6,54.233,19.123,0,-0.023809,0,8827.5,57.586,0,0,0,0,0.016412,2
8724.4,54.233,19.122,0,-0.023667,0,8827.5,57.586,0,0,0,0,0.016533,2
8724.4,54.233,19.122,0,-0.023667,0,8827.5,57.586,0,0,0,0,0.016533,2
8724.4,54.233,19.122,0,-0.023667,0,8827.5,57.586,0,0,0,0,0.016533,2
8724.4,54.233,19.122,0,-0.023667,0,8827.5,57.586,0,0,0,0,0.016533,2
8724.4,54.233,19.122,0,-0.023667,0,8827.5,57.586,0,0,0,0,0.016533,2
8724.4,54.233,19.122,0,-0.023667,0,8827.5,57.586,0,0,0,0,0.016533,2
8724.4,54.233,19.122,0,-0.023667,0,8827.5,57.586,0,0,0,0,0.016533,2
8724.4,54.233,19.122,0,-0.023667,0,8827.5,57.586,0,0,0,0,0.016533,2
8724.4,54.233,19.122,0,-0.023667,0,8827.5,57.586,0,0,0,0,0.016533,2
8724.4,54.233,19.122,0,-0.023667,0,8827.5,57.586,0,0,0,0,0.016533,2
8724.4,54.233,19.122,0,-0.023667,0,8827.5,57.586,0,0,0,0,0.016533,2
8724.4,54.233,19.122,0,-0.023667,0,8827.5,57.586,0,0,0,0,0.016533,2
8724.4,54.233,19.122,0,-0.023667,0,8827.5,57.586,0,0,0,0,0.016533,2
8726.3,54.233,19.12,0,-0.02331,0,8827.5,57.586,0,0,0,0,0.016846,2
8726.3,54.233,19.12,0,-0.02331,0,8827.5,57.586,0,0,0,0,0.016846,2
8727.5,54.233,19.118,0,-0.023093,0,8827.5,57.586,0,0,0,0,0.017039,2
8728.6,54.233,19.117,0,-0.022877,0,8827.5,57.586,0,0,0,0,0.017236,2
8728.6,54.233,19.117,0,-0.022877,0,8827.5,57.586,0,0,0,0,0.017236,2
8728.6,54.233,19.117,0,-0.022877,0,8827.5,57.586,0,0,0,0,0.017236,2
8728.6,54.233,19.117,0,-0.022877,0,8827.5,57.586,0,0,0,0,0.017236,2
8728.6,54.233,19.117,0,-0.022877,0,8827.5,57.586,0,0,0,0,0.017236,2
8728.6,54.233,19.117,0,-0.022877,0,8827.5,57.586,0,0,0,0,0.017236,2
8728.6,54.233,19.117,0,-0.022877,0,8827.5,57.586,0,0,0,0,0.017236,2
8729,54.233,19.116,0,-0.022805,0,8827.5,57.586,0,0,0,0,0.017303,2
8729,54.233,19.116,0,-0.022805,0,8827.5,57.586,0,0,0,0,0.017303,2
8729,54.233,19.116,0,-0.022805,0,8827.5,57.586,0,0,0,0,0.017303,2
8729,54.233,19.116,0,-0.022805,0,8827.5,57.586,0,0,0,0,0.017303,2
8729,54.233,19.116,0,-0.022805,0,8827.5,57.586,0,0,0,0,0.017303,2
8729,54.233,19.116,0,-0.022805,0,8827.5,57.586,0,0,0,0,0.017303,2
8729,54.233,19.116,0,-0.022805,0,8827.5,57.586,0,0,0,0,0.017303,2
8729,54.233,19.116,0,-0.022805,0,8827.5,57.586,0,0,0,0,0.017303,2
8729,54.233,19.116,0,-0.022805,0,8827.5,57.586,0,0,0,0,0.017303,2
8729,54.233,19.116,0,-0.022805,0,8827.5,57.586,0,0,0,0,0.017303,2
8729.8,54.233,19.115,0,-0.02266,0,8827.5,57.586,0,0,0,0,0.017438,2
8729.8,54.233,19.115,0,-0.02266,0,8827.5,57.586,0,0,0,0,0.017438,2
8729.8,54.233,19.115,0,-0.02266,0,8827.5,57.586,0,0,0,0,0.017438,2
8731.3,54.233,19.114,0,-0.022372,0,8827.5,57.586,0,0,0,0,0.017715,2
8732.4,54.233,19.112,0,-0.022155,0,8827.5,57.586,0,0,0,0,0.017929,2
8732.4,54.233,19.112,0,-0.022155,0,8827.5,57.586,0,0,0,0,0.017929,2
8732.4,54.233,19.112,0,-0.022155,0,8827.5,57.586,0,0,0,0,0.017929,2
8732.4,54.233,19.112,0,-0.022155,0,8827.5,57.586,0,0,0,0,0.017929,2
8732.4,54.233,19.112,0,-0.022155,0,8827.5,57.586,0,0,0,0,0.017929,2
8732.4,54.233,19.112,0,-0.022155,0,8827.5,57.586,0,0,0,0,0.017929,2
8732.4,54.233,19.112,0,-0.022155,0,8827.5,57.586,0,0,0,0,0.017929,2
8732.4,54.233,19.112,0,-0.022155,0,8827.5,57.586,0,0,0,0,0.017929,2
8732.4,54.233,19.112,0,-0.022155,0,8827.5,57.586,0,0,0,0,0.017929,2
8732.4,54.233,19.112,0,-0.022155,0,8827.5,57.586,0,0,0,0,0.017929,2
8732.4,54.233,19.112,0,-0.022155,0,8827.5,57.586,0,0,0,0,0.017929,2
8732.4,54.233,19.112,0,-0.022155,0,8827.5,57.586,0,0,0,0,0.017929,2
8733.6,54.233,19.111,0,-0.021937,0,8827.5,57.586,0,0,0,0,0.018147,2
8733.6,54.233,19.111,0,-0.021937,0,8827.5,57.586,0,0,0,0,0.018147,2
8733.6,54.233,19.111,0,-0.021937,0,8827.5,57.586,0,0,0,0,0.018147,2
8733.6,54.233,19.111,0,-0.021937,0,8827.5,57.586,0,0,0,0,0.018147,2
8733.6,54.233,19.111,0,-0.021937,0,8827.5,57.586,0,0,0,0,0.018147,2
8733.6,54.233,19.111,0,-0.021937,0,8827.5,57.586,0,0,0,0,0.018147,2
8733.6,54.233,19.111,0,-0.021937,0,8827.5,57.586,0,0,0,0,0.018147,2
8733.6,54.233,19.111,0,-0.021937,0,8827.5,57.586,0,0,0,0,0.018147,2
8734,54.233,19.111,0,-0.021864,0,8827.5,57.586,0,0,0,0,0.018221,2
8734,54.233,19.111,0,-0.021864,0,8827.5,57.586,0,0,0,0,0.018221,2
8734.4,54.233,19.11,0,-0.021793,0,8827.5,57.586,0,0,0,0,0.018296,2
8735.5,54.233,19.109,0,-0.021572,0,8827.5,57.586,0,0,0,0,0.018524,2
8737,54.233,19.107,0,-0.021279,0,8827.5,57.586,0,0,0,0,0.018836,2
8737,54.233,19.107,0,-0.021279,0,8827.5,57.586,0,0,0,0,0.018836,2
8737,54.233,19.107,0,-0.021279,0,8827.5,57.586,0,0,0,0,0.018836,2
8737,54.233,19.107,0,-0.021279,0,8827.5,57.586,0,0,0,0,0.018836,2
8737,54.233,19.107,0,-0.021279,0,8827.5,57.586,0,0,0,0,0.018836,2
8737,54.233,19.107,0,-0.021279,0,8827.5,57.586,0,0,0,0,0.018836,2
8737,54.233,19.107,0,-0.021279,0,8827.5,57.586,0,0,0,0,0.018836,2
8737,54.233,19.107,0,-0.021279,0,8827.5,57.586,0,0,0,0,0.018836,2
8737,54.233,19.107,0,-0.021279,0,8827.5,57.586,0,0,0,0,0.018836,2
8737,54.233,19.107,0,-0.021279,0,8827.5,57.586,0,0,0,0,0.018836,2
8737,54.233,19.107,0,-0.021279,0,8827.5,57.586,0,0,0,0,0.018836,2
8737,54.233,19.107,0,-0.021279,0,8827.5,57.586,0,0,0,0,0.018836,2
8737,54.233,19.107,0,-0.021279,0,8827.5,57.586,0,0,0,0,0.018836,2
8738.2,54.233,19.106,0,-0.021057,0,8827.5,57.586,0,0,0,0,0.019078,2
8738.2,54.233,19.106,0,-0.021057,0,8827.5,57.586,0,0,0,0,0.019078,2
8738.2,54.233,19.106,0,-0.021057,0,8827.5,57.586,0,0,0,0,0.019078,2
8738.2,54.233,19.106,0,-0.021057,0,8827.5,57.586,0,0,0,0,0.019078,2
8738.2,54.233,19.106,0,-0.021057,0,8827.5,57.586,0,0,0,0,0.019078,2
8738.2,54.233,19.106,0,-0.021057,0,8827.5,57.586,0,0,0,0,0.019078,2
8738.2,54.233,19.106,0,-0.021057,0,8827.5,57.586,0,0,0,0,0.019078,2
8738.2,54.233,19.106,0,-0.021057,0,8827.5,57.586,0,0,0,0,0.019078,2
8738.2,54.233,19.106,0,-0.021057,0,8827.5,57.586,0,0,0,0,0.019078,2
8738.9,54.233,19.105,0,-0.02091,0,8827.5,57.586,0,0,0,0,0.019242,2
8740.5,54.233,19.103,0,-0.020615,0,8827.5,57.586,0,0,0,0,0.01958,2
8740.5,54.233,19.103,0,-0.020615,0,8827.5,57.586,0,0,0,0,0.01958,2
8740.5,54.233,19.103,0,-0.020615,0,8827.5,57.586,0,0,0,0,0.01958,2
8742,54.233,19.102,0,-0.020317,0,8827.5,57.586,0,0,0,0,0.019929,2
8742,54.233,19.102,0,-0.020317,0,8827.5,57.586,0,0,0,0,0.019929,2
8742,54.233,19.102,0,-0.020317,0,8827.5,57.586,0,0,0,0,0.019929,2
8742,54.233,19.102,0,-0.020317,0,8827.5,57.586,0,0,0,0,0.019929,2
8742,54.233,19.102,0,-0.020317,0,8827.5,57.586,0,0,0,0,0.019929,2
8742,54.233,19.102,0,-0.020317,0,8827.5,57.586,0,0,0,0,0.019929,2
8742,54.233,19.102,0,-0.020317,0,8827.5,57.586,0,0,0,0,0.019929,2
8742,54.233,19.102,0,-0.020317,0,8827.5,57.586,0,0,0,0,0.019929,2
8742,54.233,19.102,0,-0.020317,0,8827.5,57.586,0,0,0,0,0.019929,2
8742,54.233,19.102,0,-0.020317,0,8827.5,57.586,0,0,0,0,0.019929,2
8742.8,54.233,19.101,0,-0.020171,0,8827.5,57.586,0,0,0,0,0.020109,2
8742.8,54.233,19.101,0,-0.020171,0,8827.5,57.586,0,0,0,0,0.020109,2
8742.8,54.233,19.101,0,-0.020171,0,8827.5,57.586,0,0,0,0,0.020109,2
8742.8,54.233,19.101,0,-0.020171,0,8827.5,57.586,0,0,0,0,0.020109,2
8742.8,54.233,19.101,0,-0.020171,0,8827.5,57.586,0,0,0,0,0.020109,2
8742.8,54.233,19.101,0,-0.020171,0,8827.5,57.586,0,0,0,0,0.020109,2
8742.8,54.233,19.101,0,-0.020171,0,8827.5,57.586,0,0,0,0,0.020109,2
8742.8,54.233,19.101,0,-0.020171,0,8827.5,57.586,0,0,0,0,0.020109,2
8743.1,54.233,19.1,0,-0.020095,0,8827.5,57.586,0,0,0,0,0.0202,2
8743.1,54.233,19.1,0,-0.020095,0,8827.5,57.586,0,0,0,0,0.0202,2
8743.5,54.233,19.1,0,-0.020021,0,8827.5,57.586,0,0,0,0,0.020291,2
8745,54.233,19.099,0,-0.019721,0,8827.5,57.586,0,0,0,0,0.020667,2
8746.2,54.233,19.097,0,-0.019499,0,8827.5,57.586,0,0,0,0,0.020958,2
8746.2,54.233,19.097,0,-0.019499,0,8827.5,57.586,0,0,0,0,0.020958,2
8746.2,54.233,19.097,0,-0.019499,0,8827.5,57.586,0,0,0,0,0.020958,2
8746.2,54.233,19.097,0,-0.019499,0,8827.5,57.586,0,0,0,0,0.020958,2
8746.2,54.233,19.097,0,-0.019499,0,8827.5,57.586,0,0,0,0,0.020958,2
8746.2,54.233,19.097,0,-0.019499,0,8827.5,57.586,0,0,0,0,0.020958,2
8746.2,54.233,19.097,0,-0.019499,0,8827.5,57.586,0,0,0,0,0.020958,2
8746.2,54.233,19.097,0,-0.019499,0,8827.5,57.586,0,0,0,0,0.020958,2
8746.2,54.233,19.097,0,-0.019499,0,8827.5,57.586,0,0,0,0,0.020958,2
8746.2,54.233,19.097,0,-0.019499,0,8827.5,57.586,0,0,0,0,0.020958,2
8746.2,54.233,19.097,0,-0.019499,0,8827.5,57.586,0,0,0,0,0.020958,2
8746.2,54.233,19.097,0,-0.019499,0,8827.5,57.586,0,0,0,0,0.020958,2
8746.2,54.233,19.097,0,-0.019499,0,8827.5,57.586,0,0,0,0,0.020958,2
8746.2,54.233,19.097,0,-0.019499,0,8827.5,57.586,0,0,0,0,0.020958,2
8747.3,54.233,19.096,0,-0.019272,0,8827.5,57.586,0,0,0,0,0.021257,2
8747.3,54.233,19.096,0,-0.019272,0,8827.5,57.586,0,0,0,0,0.021257,2
8747.3,54.233,19.096,0,-0.019272,0,8827.5,57.586,0,0,0,0,0.021257,2
8747.3,54.233,19.096,0,-0.019272,0,8827.5,57.586,0,0,0,0,0.021257,2
8747.3,54.233,19.096,0,-0.019272,0,8827.5,57.586,0,0,0,0,0.021257,2
8748.1,54.233,19.095,0,-0.019124,0,8827.5,57.586,0,0,0,0,0.021461,2
8748.1,54.233,19.095,0,-0.019124,0,8827.5,57.586,0,0,0,0,0.021461,2
8748.9,54.233,19.095,0,-0.018973,0,8827.5,57.586,0,0,0,0,0.021669,2
8750,54.233,19.094,0,-0.018747,0,8827.5,57.586,0,0,0,0,0.021989,2
8750,54.233,19.094,0,-0.018747,0,8827.5,57.586,0,0,0,0,0.021989,2
8750,54.233,19.094,0,-0.018747,0,8827.5,57.586,0,0,0,0,0.021989,2
8750,54.233,19.094,0,-0.018747,0,8827.5,57.586,0,0,0,0,0.021989,2
8750,54.233,19.094,0,-0.018747,0,8827.5,57.586,0,0,0,0,0.021989,2
8750,54.233,19.094,0,-0.018747,0,8827.5,57.586,0,0,0,0,0.021989,2
8750,54.233,19.094,0,-0.018747,0,8827.5,57.586,0,0,0,0,0.021989,2
8750,54.233,19.094,0,-0.018747,0,8827.5,57.586,0,0,0,0,0.021989,2
8750,54.233,19.094,0,-0.018747,0,8827.5,57.586,0,0,0,0,0.021989,2
8750,54.233,19.094,0,-0.018747,0,8827.5,57.586,0,0,0,0,0.021989,2
8750,54.233,19.094,0,-0.018747,0,8827.5,57.586,0,0,0,0,0.021989,2
8750,54.233,19.094,0,-0.018747,0,8827.5,57.586,0,0,0,0,0.021989,2
8750,54.233,19.094,0,-0.018747,0,8827.5,57.586,0,0,0,0,0.021989,2
8751.5,54.233,19.092,0,-0.018445,0,8827.5,57.586,0,0,0,0,0.022431,2
8751.5,54.233,19.092,0,-0.018445,0,8827.5,57.586,0,0,0,0,0.022431,2
8751.5,54.233,19.092,0,-0.018445,0,8827.5,57.586,0,0,0,0,0.022431,2
8751.5,54.233,19.092,0,-0.018445,0,8827.5,57.586,0,0,0,0,0.022431,2
8751.5,54.233,19.092,0,-0.018445,0,8827.5,57.586,0,0,0,0,0.022431,2
8751.9,54.233,19.092,0,-0.018368,0,8827.5,57.586,0,0,0,0,0.022544,2
8751.9,54.233,19.092,0,-0.018368,0,8827.5,57.586,0,0,0,0,0.022544,2
8751.9,54.233,19.092,0,-0.018368,0,8827.5,57.586,0,0,0,0,0.022544,2
8751.9,54.233,19.092,0,-0.018368,0,8827.5,57.586,0,0,0,0,0.022544,2
8751.9,54.233,19.092,0,-0.018368,0,8827.5,57.586,0,0,0,0,0.022544,2
8751.9,54.233,19.092,0,-0.018368,0,8827.5,57.586,0,0,0,0,0.022544,2
8751.9,54.233,19.092,0,-0.018368,0,8827.5,57.586,0,0,0,0,0.022544,2
8751.9,54.233,19.092,0,-0.018368,0,8827.5,57.586,0,0,0,0,0.022544,2
8751.9,54.233,19.092,0,-0.018368,0,8827.5,57.586,0,0,0,0,0.022544,2
8753.8,54.233,19.09,0,-0.017988,0,8827.5,57.586,0,0,0,0,0.023127,2
8754.2,54.233,19.089,0,-0.017912,0,8827.5,57.586,0,0,0,0,0.023247,2
8755,54.233,19.089,0,-0.01776,0,8827.5,57.586,0,0,0,0,0.023491,2
8756.5,54.233,19.087,0,-0.017455,0,8827.5,57.586,0,0,0,0,0.023996,2
8756.5,54.233,19.087,0,-0.017455,0,8827.5,57.586,0,0,0,0,0.023996,2
8756.5,54.233,19.087,0,-0.017455,0,8827.5,57.586,0,0,0,0,0.023996,2
8756.5,54.233,19.087,0,-0.017455,0,8827.5,57.586,0,0,0,0,0.023996,2
8756.5,54.233,19.087,0,-0.017455,0,8827.5,57.586,0,0,0,0,0.023996,2
8756.5,54.233,19.087,0,-0.017455,0,8827.5,57.586,0,0,0,0,0.023996,2
8756.5,54.233,19.087,0,-0.017455,0,8827.5,57.586,0,0,0,0,0.023996,2
8756.5,54.233,19.087,0,-0.017455,0,8827.5,57.586,0,0,0,0,0.023996,2
8756.5,54.233,19.087,0,-0.017455,0,8827.5,57.586,0,0,0,0,0.023996,2
8756.5,54.233,19.087,0,-0.017455,0,8827.5,57.586,0,0,0,0,0.023996,2
8756.5,54.233,19.087,0,-0.017455,0,8827.5,57.586,0,0,0,0,0.023996,2
8756.5,54.233,19.087,0,-0.017455,0,8827.5,57.586,0,0,0,0,0.023996,2
8756.5,54.233,19.087,0,-0.017455,0,8827.5,57.586,0,0,0,0,0.023996,2
8756.5,54.233,19.087,0,-0.017455,0,8827.5,57.586,0,0,0,0,0.023996,2
8756.5,54.233,19.087,0,-0.017455,0,8827.5,57.586,0,0,0,0,0.023996,2
8756.5,54.233,19.087,0,-0.017455,0,8827.5,57.586,0,0,0,0,0.023996,2
8756.5,54.233,19.087,0,-0.017455,0,8827.5,57.586,0,0,0,0,0.023996,2
8757.3,54.233,19.087,0,-0.017304,0,8827.5,57.586,0,0,0,0,0.024256,2
8757.3,54.233,19.087,0,-0.017304,0,8827.5,57.586,0,0,0,0,0.024256,2
8757.3,54.233,19.087,0,-0.017304,0,8827.5,57.586,0,0,0,0,0.024256,2
8757.3,54.233,19.087,0,-0.017304,0,8827.5,57.586,0,0,0,0,0.024256,2
8758,54.233,19.086,0,-0.017149,0,8827.5,57.586,0,0,0,0,0.024522,2
8758,54.233,19.086,0,-0.017149,0,8827.5,57.586,0,0,0,0,0.024522,2
8758.8,54.233,19.085,0,-0.016996,0,8827.5,57.586,0,0,0,0,0.024794,2
8760.3,54.233,19.084,0,-0.016688,0,8827.5,57.586,0,0,0,0,0.025356,2
8761.1,54.233,19.083,0,-0.016536,0,8827.5,57.586,0,0,0,0,0.025647,2
8761.5,54.233,19.083,0,-0.016458,0,8827.5,57.586,0,0,0,0,0.025795,2
8761.5,54.233,19.083,0,-0.016458,0,8827.5,57.586,0,0,0,0,0.025795,2
8761.5,54.233,19.083,0,-0.016458,0,8827.5,57.586,0,0,0,0,0.025795,2
8761.5,54.233,19.083,0,-0.016458,0,8827.5,57.586,0,0,0,0,0.025795,2
8761.5,54.233,19.083,0,-0.016458,0,8827.5,57.586,0,0,0,0,0.025795,2
8761.5,54.233,19.083,0,-0.016458,0,8827.5,57.586,0,0,0,0,0.025795,2
8761.5,54.233,19.083,0,-0.016458,0,8827.5,57.586,0,0,0,0,0.025795,2
8761.5,54.233,19.083,0,-0.016458,0,8827.5,57.586,0,0,0,0,0.025795,2
8761.5,54.233,19.083,0,-0.016458,0,8827.5,57.586,0,0,0,0,0.025795,2
8761.5,54.233,19.083,0,-0.016458,0,8827.5,57.586,0,0,0,0,0.025795,2
8761.5,54.233,19.083,0,-0.016458,0,8827.5,57.586,0,0,0,0,0.025795,2
8761.5,54.233,19.083,0,-0.016458,0,8827.5,57.586,0,0,0,0,0.025795,2
8761.5,54.233,19.083,0,-0.016458,0,8827.5,57.586,0,0,0,0,0.025795,2
8761.5,54.233,19.083,0,-0.016458,0,8827.5,57.586,0,0,0,0,0.025795,2
8761.5,54.233,19.083,0,-0.016458,0,8827.5,57.586,0,0,0,0,0.025795,2
8761.5,54.233,19.083,0,-0.016458,0,8827.5,57.586,0,0,0,0,0.025795,2
8761.5,54.233,19.083,0,-0.016458,0,8827.5,57.586,0,0,0,0,0.025795,2
8761.5,54.233,19.083,0,-0.016458,0,8827.5,57.586,0,0,0,0,0.025795,2
8761.5,54.233,19.083,0,-0.016458,0,8827.5,57.586,0,0,0,0,0.025795,2
8761.5,54.233,19.083,0,-0.016458,0,8827.5,57.586,0,0,0,0,0.025795,2
8762.2,54.233,19.082,0,-0.016303,0,8827.5,57.586,0,0,0,0,0.026096,2
8762.6,54.233,19.082,0,-0.016226,0,8827.5,57.586,0,0,0,0,0.026249,2
8764.1,54.233,19.081,0,-0.015915,0,8827.5,57.586,0,0,0,0,0.02688,2
8765.7,54.233,19.079,0,-0.015606,0,8827.5,57.586,0,0,0,0,0.027542,2
8765.7,54.233,19.079,0,-0.015606,0,8827.5,57.586,0,0,0,0,0.027542,2
8765.7,54.233,19.079,0,-0.015606,0,8827.5,57.586,0,0,0,0,0.027542,2
8765.7,54.233,19.079,0,-0.015606,0,8827.5,57.586,0,0,0,0,0.027542,2
8765.7,54.233,19.079,0,-0.015606,0,8827.5,57.586,0,0,0,0,0.027542,2
8765.7,54.233,19.079,0,-0.015606,0,8827.5,57.586,0,0,0,0,0.027542,2
8765.7,54.233,19.079,0,-0.015606,0,8827.5,57.586,0,0,0,0,0.027542,2
8765.7,54.233,19.079,0,-0.015606,0,8827.5,57.586,0,0,0,0,0.027542,2
8765.7,54.233,19.079,0,-0.015606,0,8827.5,57.586,0,0,0,0,0.027542,2
8765.7,54.233,19.079,0,-0.015606,0,8827.5,57.586,0,0,0,0,0.027542,2
8766.4,54.233,19.079,0,-0.015451,0,8827.5,57.586,0,0,0,0,0.027885,2
8766.4,54.233,19.079,0,-0.015451,0,8827.5,57.586,0,0,0,0,0.027885,2
8766.4,54.233,19.079,0,-0.015451,0,8827.5,57.586,0,0,0,0,0.027885,2
8766.4,54.233,19.079,0,-0.015451,0,8827.5,57.586,0,0,0,0,0.027885,2
8766.4,54.233,19.079,0,-0.015451,0,8827.5,57.586,0,0,0,0,0.027885,2
8766.4,54.233,19.079,0,-0.015451,0,8827.5,57.586,0,0,0,0,0.027885,2
8766.4,54.233,19.079,0,-0.015451,0,8827.5,57.586,0,0,0,0,0.027885,2
8766.4,54.233,19.079,0,-0.015451,0,8827.5,57.586,0,0,0,0,0.027885,2
8766.4,54.233,19.079,0,-0.015451,0,8827.5,57.586,0,0,0,0,0.027885,2
8766.4,54.233,19.079,0,-0.015451,0,8827.5,57.586,0,0,0,0,0.027885,2
8766.4,54.233,19.079,0,-0.015451,0,8827.5,57.586,0,0,0,0,0.027885,2
8766.4,54.233,19.079,0,-0.015451,0,8827.5,57.586,0,0,0,0,0.027885,2
8768.3,54.233,19.077,0,-0.015062,0,8827.5,57.586,0,0,0,0,0.028782,2
8768.3,54.233,19.077,0,-0.015062,0,8827.5,57.586,0,0,0,0,0.028782,2
8769.5,54.233,19.076,0,-0.014827,0,8827.5,57.586,0,0,0,0,0.029348,2
8769.5,54.233,19.076,0,-0.014827,0,8827.5,57.586,0,0,0,0,0.029348,2
8769.5,54.233,19.076,0,-0.014827,0,8827.5,57.586,0,0,0,0,0.029348,2
8769.5,54.233,19.076,0,-0.014827,0,8827.5,57.586,0,0,0,0,0.029348,2
8769.5,54.233,19.076,0,-0.014827,0,8827.5,57.586,0,0,0,0,0.029348,2
8769.5,54.233,19.076,0,-0.014827,0,8827.5,57.586,0,0,0,0,0.029348,2
8769.5,54.233,19.076,0,-0.014827,0,8827.5,57.586,0,0,0,0,0.029348,2
8769.5,54.233,19.076,0,-0.014827,0,8827.5,57.586,0,0,0,0,0.029348,2
8769.5,54.233,19.076,0,-0.014827,0,8827.5,57.586,0,0,0,0,0.029348,2
8769.5,54.233,19.076,0,-0.014827,0,8827.5,57.586,0,0,0,0,0.029348,2
8769.5,54.233,19.076,0,-0.014827,0,8827.5,57.586,0,0,0,0,0.029348,2
8769.5,54.233,19.076,0,-0.014827,0,8827.5,57.586,0,0,0,0,0.029348,2
8769.5,54.233,19.076,0,-0.014827,0,8827.5,57.586,0,0,0,0,0.029348,2
8769.5,54.233,19.076,0,-0.014827,0,8827.5,57.586,0,0,0,0,0.029348,2
8771.4,54.233,19.075,0,-0.014437,0,8827.5,57.586,0,0,0,0,0.030342,2
8771.4,54.233,19.075,0,-0.014437,0,8827.5,57.586,0,0,0,0,0.030342,2
8771.4,54.233,19.075,0,-0.014437,0,8827.5,57.586,0,0,0,0,0.030342,2
8771.4,54.233,19.075,0,-0.014437,0,8827.5,57.586,0,0,0,0,0.030342,2
8771.4,54.233,19.075,0,-0.014437,0,8827.5,57.586,0,0,0,0,0.030342,2
8771.4,54.233,19.075,0,-0.014437,0,8827.5,57.586,0,0,0,0,0.030342,2
8771.4,54.233,19.075,0,-0.014437,0,8827.5,57.586,0,0,0,0,0.030342,2
8771.8,54.233,19.075,0,-0.014358,0,8827.5,57.586,0,0,0,0,0.030549,2
8772.2,54.233,19.074,0,-0.014279,0,8827.5,57.586,0,0,0,0,0.030759,2
8773.7,54.233,19.073,0,-0.013967,0,8827.5,57.586,0,0,0,0,0.031628,2
8774.8,54.233,19.072,0,-0.01373,0,8827.5,57.586,0,0,0,0,0.032313,2
8774.8,54.233,19.072,0,-0.01373,0,8827.5,57.586,0,0,0,0,0.032313,2
8774.8,54.233,19.072,0,-0.01373,0,8827.5,57.586,0,0,0,0,0.032313,2
8774.8,54.233,19.072,0,-0.01373,0,8827.5,57.586,0,0,0,0,0.032313,2
8774.8,54.233,19.072,0,-0.01373,0,8827.5,57.586,0,0,0,0,0.032313,2
8774.8,54.233,19.072,0,-0.01373,0,8827.5,57.586,0,0,0,0,0.032313,2
8774.8,54.233,19.072,0,-0.01373,0,8827.5,57.586,0,0,0,0,0.032313,2
8774.8,54.233,19.072,0,-0.01373,0,8827.5,57.586,0,0,0,0,0.032313,2
8774.8,54.233,19.072,0,-0.01373,0,8827.5,57.586,0,0,0,0,0.032313,2
8774.8,54.233,19.072,0,-0.01373,0,8827.5,57.586,0,0,0,0,0.032313,2
8775.6,54.233,19.072,0,-0.013574,0,8827.5,57.586,0,0,0,0,0.032786,2
8775.6,54.233,19.072,0,-0.013574,0,8827.5,57.586,0,0,0,0,0.032786,2
8775.6,54.233,19.072,0,-0.013574,0,8827.5,57.586,0,0,0,0,0.032786,2
8775.6,54.233,19.072,0,-0.013574,0,8827.5,57.586,0,0,0,0,0.032786,2
8775.6,54.233,19.072,0,-0.013574,0,8827.5,57.586,0,0,0,0,0.032786,2
8775.6,54.233,19.072,0,-0.013574,0,8827.5,57.586,0,0,0,0,0.032786,2
8775.6,54.233,19.072,0,-0.013574,0,8827.5,57.586,0,0,0,0,0.032786,2
8775.6,54.233,19.072,0,-0.013574,0,8827.5,57.586,0,0,0,0,0.032786,2
8775.6,54.233,19.072,0,-0.013574,0,8827.5,57.586,0,0,0,0,0.032786,2
8775.6,54.233,19.072,0,-0.013574,0,8827.5,57.586,0,0,0,0,0.032786,2
8775.6,54.233,19.072,0,-0.013574,0,8827.5,57.586,0,0,0,0,0.032786,2
8775.6,54.233,19.072,0,-0.013574,0,8827.5,57.586,0,0,0,0,0.032786,2
8775.6,54.233,19.072,0,-0.013574,0,8827.5,57.586,0,0,0,0,0.032786,2
8777.5,54.233,19.07,0,-0.013178,0,8827.5,57.586,0,0,0,0,0.034031,2
8778.6,54.233,19.07,0,-0.012941,0,8827.5,57.586,0,0,0,0,0.034825,2
8778.6,54.233,19.07,0,-0.012941,0,8827.5,57.586,0,0,0,0,0.034825,2
8778.6,54.233,19.07,0,-0.012941,0,8827.5,57.586,0,0,0,0,0.034825,2
8778.6,54.233,19.07,0,-0.012941,0,8827.5,57.586,0,0,0,0,0.034825,2
8778.6,54.233,19.07,0,-0.012941,0,8827.5,57.586,0,0,0,0,0.034825,2
8778.6,54.233,19.07,0,-0.012941,0,8827.5,57.586,0,0,0,0,0.034825,2
8778.6,54.233,19.07,0,-0.012941,0,8827.5,57.586,0,0,0,0,0.034825,2
8778.6,54.233,19.07,0,-0.012941,0,8827.5,57.586,0,0,0,0,0.034825,2
8778.6,54.233,19.07,0,-0.012941,0,8827.5,57.586,0,0,0,0,0.034825,2
8778.6,54.233,19.07,0,-0.012941,0,8827.5,57.586,0,0,0,0,0.034825,2
8778.6,54.233,19.07,0,-0.012941,0,8827.5,57.586,0,0,0,0,0.034825,2
8778.6,54.233,19.07,0,-0.012941,0,8827.5,57.586,0,0,0,0,0.034825,2
8778.6,54.233,19.07,0,-0.012941,0,8827.5,57.586,0,0,0,0,0.034825,2
8778.6,54.233,19.07,0,-0.012941,0,8827.5,57.586,0,0,0,0,0.034825,2
8780.5,54.233,19.068,0,-0.012546,0,8827.5,57.586,0,0,0,0,0.036232,2
8780.5,54.233,19.068,0,-0.012546,0,8827.5,57.586,0,0,0,0,0.036232,2
8780.5,54.233,19.068,0,-0.012546,0,8827.5,57.586,0,0,0,0,0.036232,2
8780.5,54.233,19.068,0,-0.012546,0,8827.5,57.586,0,0,0,0,0.036232,2
8780.5,54.233,19.068,0,-0.012546,0,8827.5,57.586,0,0,0,0,0.036232,2
8780.5,54.233,19.068,0,-0.012546,0,8827.5,57.586,0,0,0,0,0.036232,2
8780.5,54.233,19.068,0,-0.012546,0,8827.5,57.586,0,0,0,0,0.036232,2
8780.5,54.233,19.068,0,-0.012546,0,8827.5,57.586,0,0,0,0,0.036232,2
8780.9,54.233,19.068,0,-0.012466,0,8827.5,57.586,0,0,0,0,0.036528,2
8780.9,54.233,19.068,0,-0.012466,0,8827.5,57.586,0,0,0,0,0.036528,2
8782.4,54.233,19.067,0,-0.01215,0,8827.5,57.586,0,0,0,0,0.037758,2
8782.4,54.233,19.067,0,-0.01215,0,8827.5,57.586,0,0,0,0,0.037758,2
8784,54.233,19.066,0,-0.011831,0,8827.5,57.586,0,0,0,0,0.039075,2
8784,54.233,19.066,0,-0.011831,0,8827.5,57.586,0,0,0,0,0.039075,2
8784,54.233,19.066,0,-0.011831,0,8827.5,57.586,0,0,0,0,0.039075,2
8784,54.233,19.066,0,-0.011831,0,8827.5,57.586,0,0,0,0,0.039075,2
8784,54.233,19.066,0,-0.011831,0,8827.5,57.586,0,0,0,0,0.039075,2
8784,54.233,19.066,0,-0.011831,0,8827.5,57.586,0,0,0,0,0.039075,2
8784,54.233,19.066,0,-0.011831,0,8827.5,57.586,0,0,0,0,0.039075,2
8784,54.233,19.066,0,-0.011831,0,8827.5,57.586,0,0,0,0,0.039075,2
8784,54.233,19.066,0,-0.011831,0,8827.5,57.586,0,0,0,0,0.039075,2
8784,54.233,19.066,0,-0.011831,0,8827.5,57.586,0,0,0,0,0.039075,2
8784,54.233,19.066,0,-0.011831,0,8827.5,57.586,0,0,0,0,0.039075,2
8784,54.233,19.066,0,-0.011831,0,8827.5,57.586,0,0,0,0,0.039075,2
8784,54.233,19.066,0,-0.011831,0,8827.5,57.586,0,0,0,0,0.039075,2
8784,54.233,19.066,0,-0.011831,0,8827.5,57.586,0,0,0,0,0.039075,2
8784,54.233,19.066,0,-0.011831,0,8827.5,57.586,0,0,0,0,0.039075,2
8784,54.233,19.066,0,-0.011831,0,8827.5,57.586,0,0,0,0,0.039075,2
8784,54.233,19.066,0,-0.011831,0,8827.5,57.586,0,0,0,0,0.039075,2
8784,54.233,19.066,0,-0.011831,0,8827.5,57.586,0,0,0,0,0.039075,2
8784,54.233,19.066,0,-0.011831,0,8827.5,57.586,0,0,0,0,0.039075,2
8784,54.233,19.066,0,-0.011831,0,8827.5,57.586,0,0,0,0,0.039075,2
8784,54.233,19.066,0,-0.011831,0,8827.5,57.586,0,0,0,0,0.039075,2
8784,54.233,19.066,0,-0.011831,0,8827.5,57.586,0,0,0,0,0.039075,2
8787,54.233,19.064,0,-0.011195,0,8827.5,57.586,0,0,0,0,0.042001,2
8787.4,54.233,19.064,0,-0.011114,0,8827.5,57.586,0,0,0,0,0.042398,2
8788.5,54.233,19.064,0,-0.010873,0,8827.5,57.586,0,0,0,0,0.043635,2
8788.9,54.233,19.063,0,-0.010794,0,8827.5,57.586,0,0,0,0,0.044063,2
8789.3,54.233,19.063,0,-0.010715,0,8827.5,57.586,0,0,0,0,0.0445,2
8789.3,54.233,19.063,0,-0.010715,0,8827.5,57.586,0,0,0,0,0.0445,2
8789.3,54.233,19.063,0,-0.010715,0,8827.5,57.586,0,0,0,0,0.0445,2
8789.3,54.233,19.063,0,-0.010715,0,8827.5,57.586,0,0,0,0,0.0445,2
8789.3,54.233,19.063,0,-0.010715,0,8827.5,57.586,0,0,0,0,0.0445,2
8789.3,54.233,19.063,0,-0.010715,0,8827.5,57.586,0,0,0,0,0.0445,2
8789.3,54.233,19.063,0,-0.010715,0,8827.5,57.586,0,0,0,0,0.0445,2
8789.7,54.233,19.063,0,-0.010634,0,8827.5,57.586,0,0,0,0,0.044946,2
8789.7,54.233,19.063,0,-0.010634,0,8827.5,57.586,0,0,0,0,0.044946,2
8789.7,54.233,19.063,0,-0.010634,0,8827.5,57.586,0,0,0,0,0.044946,2
8789.7,54.233,19.063,0,-0.010634,0,8827.5,57.586,0,0,0,0,0.044946,2
8789.7,54.233,19.063,0,-0.010634,0,8827.5,57.586,0,0,0,0,0.044946,2
8789.7,54.233,19.063,0,-0.010634,0,8827.5,57.586,0,0,0,0,0.044946,2
8789.7,54.233,19.063,0,-0.010634,0,8827.5,57.586,0,0,0,0,0.044946,2
8790.1,54.233,19.063,0,-0.010553,0,8827.5,57.586,0,0,0,0,0.0454,2
8790.1,54.233,19.063,0,-0.010553,0,8827.5,57.586,0,0,0,0,0.0454,2
8790.1,54.233,19.063,0,-0.010553,0,8827.5,57.586,0,0,0,0,0.0454,2
8790.1,54.233,19.063,0,-0.010553,0,8827.5,57.586,0,0,0,0,0.0454,2
8790.1,54.233,19.063,0,-0.010553,0,8827.5,57.586,0,0,0,0,0.0454,2
8790.5,54.233,19.062,0,-0.010472,0,8827.5,57.586,0,0,0,0,0.045864,2
8791.6,54.233,19.062,0,-0.010234,0,8827.7,57.586,2.1,0.014277,9.9991,0.17127,0.052213,2
8791.6,54.233,19.062,0,-0.010234,0,8827.7,57.586,2.1,0.014277,9.9991,0.17127,0.052213,2
8791.6,54.233,19.062,0,-0.010234,0,8827.7,57.586,2.1,0.014277,9.9991,0.17127,0.052213,2
8791.6,54.233,19.062,0,-0.010234,0,8827.9,57.588,2.8998,0.032819,9.9977,0.27159,0.054038,2
8791.6,54.233,19.062,0,-0.010234,0,8827.9,57.588,2.8998,0.032819,9.9977,0.27159,0.054038,2
8791.6,54.233,19.062,0,-0.010234,0,8828,57.59,3.2997,0.044747,9.9968,0.31234,0.054939,2
8791.6,54.233,19.062,0,-0.010234,0,8828.1,57.591,3.4996,0.051222,9.9964,0.3289,0.055387,2
8791.6,54.233,19.062,0,-0.010234,0,8828.1,57.591,3.4996,0.051222,9.9964,0.3289,0.055387,2
8791.6,54.233,19.062,0,-0.010234,0,8828.1,57.591,3.4996,0.051222,9.9964,0.3289,0.055387,2
8791.6,54.233,19.062,0,-0.010234,0,8828.1,57.591,3.4996,0.051222,9.9964,0.3289,0.055387,2
8791.6,54.233,19.062,0,-0.010234,0,8828.2,57.592,3.6995,0.057962,9.996,0.34249,0.055832,2
8791.6,54.233,19.062,0,-0.010234,0,8828.2,57.592,3.6995,0.057962,9.996,0.34249,0.055832,2
8791.6,54.233,19.062,0,-0.010234,0,8828.2,57.592,3.6995,0.057962,9.996,0.34249,0.055832,2
8791.6,54.233,19.062,0,-0.010234,0,8828.2,57.593,3.8995,0.064902,9.9956,0.35289,0.056275,2
8791.6,54.233,19.062,0,-0.010234,0,8828.2,57.593,3.8995,0.064902,9.9956,0.35289,0.056275,2
8795,54.233,19.06,0,-0.0095081,0,8828.2,57.593,3.8995,0.064902,9.9956,0.35289,0.062022,2
8795.4,54.233,19.06,0,-0.0094274,0,8828.2,57.593,3.8995,0.064902,9.9956,0.35289,0.062733,2
8796.2,54.233,19.059,0,-0.0092672,0,8828.5,57.598,4.4992,0.086253,9.9949,0.36357,0.065641,2
8796.2,54.233,19.059,0,-0.0092672,0,8828.5,57.598,4.4992,0.086253,9.9949,0.36357,0.065641,2
8796.2,54.233,19.059,0,-0.0092672,0,8828.7,57.601,4.899,0.10024,9.9949,0.35337,0.066576,2
8796.2,54.233,19.059,0,-0.0092672,0,8828.7,57.601,4.899,0.10024,9.9949,0.35337,0.066576,2
8796.2,54.233,19.059,0,-0.0092672,0,8828.7,57.601,4.899,0.10024,9.9949,0.35337,0.066576,2
8796.2,54.233,19.059,0,-0.0092672,0,8828.8,57.604,5.0989,0.10697,9.995,0.34332,0.067038,2
8796.2,54.233,19.059,0,-0.0092672,0,8828.8,57.604,5.0989,0.10697,9.995,0.34332,0.067038,2
8796.2,54.233,19.059,0,-0.0092672,0,8828.8,57.604,5.0989,0.10697,9.995,0.34332,0.067038,2
8796.2,54.233,19.059,0,-0.0092672,0,8828.8,57.604,5.0989,0.10697,9.995,0.34332,0.067038,2
8796.2,54.233,19.059,0,-0.0092672,0,8828.8,57.604,5.0989,0.10697,9.995,0.34332,0.067038,2
8796.2,54.233,19.059,0,-0.0092672,0,8828.8,57.604,5.0989,0.10697,9.995,0.34332,0.067038,2
8796.2,54.233,19.059,0,-0.0092672,0,8828.8,57.604,5.0989,0.10697,9.995,0.34332,0.067038,2
8796.2,54.233,19.059,0,-0.0092672,0,8828.8,57.604,5.0989,0.10697,9.995,0.34332,0.067038,2
8797.3,54.233,19.059,0,-0.0090242,0,8828.8,57.604,5.0989,0.10697,9.995,0.34332,0.069441,2
8797.3,54.233,19.059,0,-0.0090242,0,8828.8,57.604,5.0989,0.10697,9.995,0.34332,0.069441,2
8797.3,54.233,19.059,0,-0.0090242,0,8828.8,57.604,5.0989,0.10697,9.995,0.34332,0.069441,2
8797.7,54.233,19.059,0,-0.0089431,0,8828.8,57.604,5.0989,0.10697,9.995,0.34332,0.07028,2
8797.7,54.233,19.059,0,-0.0089431,0,8829.1,57.611,5.6986,0.12534,9.9959,0.29554,0.07167,2
8797.7,54.233,19.059,0,-0.0089431,0,8829.1,57.611,5.6986,0.12534,9.9959,0.29554,0.07167,2
8799.6,54.233,19.058,0,-0.0085381,0,8829.2,57.613,5.8986,0.13069,9.9964,0.27457,0.07669,2
8799.6,54.233,19.058,0,-0.0085381,0,8829.7,57.624,6.6984,0.14724,9.9986,0.1733,0.078484,2
8799.6,54.233,19.058,0,-0.0085381,0,8829.7,57.624,6.6984,0.14724,9.9986,0.1733,0.078484,2
8800.4,54.233,19.058,0,-0.0083756,0,8829.7,57.624,6.6984,0.14724,9.9986,0.1733,0.080487,2
8800.4,54.233,19.058,0,-0.0083756,0,8829.7,57.624,6.6984,0.14724,9.9986,0.1733,0.080487,2
8800.7,54.233,19.057,0,-0.0082949,0,8829.7,57.624,6.6984,0.14724,9.9986,0.1733,0.081527,2
8800.7,54.233,19.057,0,-0.0082949,0,8829.7,57.624,6.6984,0.14724,9.9986,0.1733,0.081527,2
8800.7,54.233,19.057,0,-0.0082949,0,8829.7,57.624,6.6984,0.14724,9.9986,0.1733,0.081527,2
8800.7,54.233,19.057,0,-0.0082949,0,8829.7,57.624,6.6984,0.14724,9.9986,0.1733,0.081527,2
8800.7,54.233,19.057,0,-0.0082949,0,8829.7,57.624,6.6984,0.14724,9.9986,0.1733,0.081527,2
8800.7,54.233,19.057,0,-0.0082949,0,8829.7,57.624,6.6984,0.14724,9.9986,0.1733,0.081527,2
8800.7,54.233,19.057,0,-0.0082949,0,8829.7,57.624,6.6984,0.14724,9.9986,0.1733,0.081527,2
8800.7,54.233,19.057,0,-0.0082949,0,8829.7,57.624,6.6984,0.14724,9.9986,0.1733,0.081527,2
8800.7,54.233,19.057,0,-0.0082949,0,8829.7,57.624,6.6984,0.14724,9.9986,0.1733,0.081527,2
8800.7,54.233,19.057,0,-0.0082949,0,8829.7,57.624,6.6984,0.14724,9.9986,0.1733,0.081527,2
8800.7,54.233,19.057,0,-0.0082949,0,8830.1,57.633,7.2984,0.15394,10,0.087754,0.082811,2
8800.7,54.233,19.057,0,-0.0082949,0,8830.1,57.633,7.2984,0.15394,10,0.087754,0.082811,2
8800.7,54.233,19.057,0,-0.0082949,0,8830.1,57.633,7.2984,0.15394,10,0.087754,0.082811,2
8800.7,54.233,19.057,0,-0.0082949,0,8830.1,57.633,7.2984,0.15394,10,0.087754,0.082811,2
8800.7,54.233,19.057,0,-0.0082949,0,8830.3,57.636,7.4984,0.15504,10.001,0.058994,0.083226,2
8800.7,54.233,19.057,0,-0.0082949,0,8830.3,57.636,7.4984,0.15504,10.001,0.058994,0.083226,2
8800.7,54.233,19.057,0,-0.0082949,0,8830.3,57.636,7.4984,0.15504,10.001,0.058994,0.083226,2
8800.7,54.233,19.057,0,-0.0082949,0,8830.3,57.636,7.4984,0.15504,10.001,0.058994,0.083226,2
8800.7,54.233,19.057,0,-0.0082949,0,8830.3,57.636,7.4984,0.15504,10.001,0.058994,0.083226,2
8803,54.233,19.056,0,-0.007808,0,8830.4,57.639,7.6984,0.15559,10.001,0.030554,0.090472,2
8804.2,54.233,19.056,0,-0.0075672,0,8831.1,57.652,8.4986,0.15202,10.003,-0.089127,0.095826,2
8804.2,54.233,19.056,0,-0.0075672,0,8831.1,57.652,8.4986,0.15202,10.003,-0.089127,0.095826,2
8804.6,54.233,19.056,0,-0.0074849,0,8831.1,57.652,8.4986,0.15202,10.003,-0.089127,0.097172,2
8804.6,54.233,19.056,0,-0.0074849,0,8831.1,57.652,8.4986,0.15202,10.003,-0.089127,0.097172,2
8804.6,54.233,19.056,0,-0.0074849,0,8832,57.666,9.499,0.13652,10.004,-0.18928,0.098833,2
8804.6,54.233,19.056,0,-0.0074849,0,8832,57.666,9.499,0.13652,10.004,-0.18928,0.098833,2
8804.6,54.233,19.056,0,-0.0074849,0,8832,57.666,9.499,0.13652,10.004,-0.18928,0.098833,2
8804.6,54.233,19.056,0,-0.0074849,0,8832,57.666,9.499,0.13652,10.004,-0.18928,0.098833,2
8804.6,54.233,19.056,0,-0.0074849,0,8832,57.666,9.499,0.13652,10.004,-0.18928,0.098833,2
8804.6,54.233,19.056,0,-0.0074849,0,8832,57.666,9.499,0.13652,10.004,-0.18928,0.098833,2
8804.6,54.233,19.056,0,-0.0074849,0,8832,57.666,9.499,0.13652,10.004,-0.18928,0.098833,2
8804.6,54.233,19.056,0,-0.0074849,0,8832,57.666,9.499,0.13652,10.004,-0.18928,0.098833,2
8804.6,54.233,19.056,0,-0.0074849,0,8832,57.666,9.499,0.13652,10.004,-0.18928,0.098833,2
8805.7,54.233,19.055,0,-0.0072404,0,8832,57.666,9.499,0.13652,10.004,-0.18928,0.10303,2
8805.7,54.233,19.055,0,-0.0072404,0,8832,57.666,9.499,0.13652,10.004,-0.18928,0.10303,2
8805.7,54.233,19.055,0,-0.0072404,0,8832,57.666,9.499,0.13652,10.004,-0.18928,0.10303,2
8805.7,54.233,19.055,0,-0.0072404,0,8832,57.666,9.499,0.13652,10.004,-0.18928,0.10303,2
8805.7,54.233,19.055,0,-0.0072404,0,8832,57.666,9.499,0.13652,10.004,-0.18928,0.10303,2
8805.7,54.233,19.055,0,-0.0072404,0,8832,57.666,9.499,0.13652,10.004,-0.18928,0.10303,2
8805.7,54.233,19.055,0,-0.0072404,0,8832,57.666,9.499,0.13652,10.004,-0.18928,0.10303,2
8805.7,54.233,19.055,0,-0.0072404,0,8832,57.666,9.499,0.13652,10.004,-0.18928,0.10303,2
8805.7,54.233,19.055,0,-0.0072404,0,8832.4,57.671,9.8992,0.12843,10.004,-0.21005,0.1036,2
8805.7,54.233,19.055,0,-0.0072404,0,8832.4,57.671,9.8992,0.12843,10.004,-0.21005,0.1036,2
8806.5,54.233,19.055,0,-0.0070794,0,8832.4,57.671,9.8992,0.12843,10.004,-0.21005,0.10657,2
8806.5,54.233,19.055,0,-0.0070794,0,8833.4,57.683,10.899,0.10629,10.003,-0.23168,0.10777,2
8806.5,54.233,19.055,0,-0.0070794,0,8833.4,57.683,10.899,0.10629,10.003,-0.23168,0.10777,2
8809.5,54.233,19.054,0,-0.0064285,0,8833.6,57.685,11.1,0.10174,10.003,-0.23212,0.12123,2
8809.5,54.233,19.054,0,-0.0064285,0,8833.6,57.685,11.1,0.10174,10.003,-0.23212,0.12123,2
8809.5,54.233,19.054,0,-0.0064285,0,8834.5,57.692,11.111,0.078485,0.0020158,-0.27568,0.11711,2
8809.5,54.233,19.054,0,-0.0064285,0,8834.5,57.692,11.111,0.078485,0.0020158,-0.27568,0.11711,2
8809.5,54.233,19.054,0,-0.0064285,0,8834.5,57.692,11.111,0.078485,0.0020158,-0.27568,0.11711,2
8809.5,54.233,19.054,0,-0.0064285,0,8834.5,57.692,11.111,0.078485,0.0020158,-0.27568,0.11711,2
8809.5,54.233,19.054,0,-0.0064285,0,8834.5,57.692,11.111,0.078485,0.0020158,-0.27568,0.11711,2
8809.5,54.233,19.054,0,-0.0064285,0,8834.5,57.692,11.111,0.078485,0.0020158,-0.27568,0.11711,2
8809.5,54.233,19.054,0,-0.0064285,0,8834.5,57.692,11.111,0.078485,0.0020158,-0.27568,0.11711,2
8810.3,54.233,19.054,0,-0.0062641,0,8834.5,57.692,11.111,0.078485,0.0020158,-0.27568,0.12068,2
8810.3,54.233,19.054,0,-0.0062641,0,8834.5,57.692,11.111,0.078485,0.0020158,-0.27568,0.12068,2
8810.3,54.233,19.054,0,-0.0062641,0,8834.5,57.692,11.111,0.078485,0.0020158,-0.27568,0.12068,2
8810.3,54.233,19.054,0,-0.0062641,0,8834.5,57.692,11.111,0.078485,0.0020158,-0.27568,0.12068,2
8810.3,54.233,19.054,0,-0.0062641,0,8834.5,57.692,11.111,0.078485,0.0020158,-0.27568,0.12068,2
8810.3,54.233,19.054,0,-0.0062641,0,8834.5,57.692,11.111,0.078485,0.0020158,-0.27568,0.12068,2
8810.3,54.233,19.054,0,-0.0062641,0,8834.5,57.692,11.111,0.078485,0.0020158,-0.27568,0.12068,2
8810.3,54.233,19.054,0,-0.0062641,0,8834.5,57.692,11.111,0.078485,0.0020158,-0.27568,0.12068,2
8810.3,54.233,19.054,0,-0.0062641,0,8835,57.695,11.111,0.068334,0.0015985,-0.25071,0.11857,2
8810.3,54.233,19.054,0,-0.0062641,0,8835,57.695,11.111,0.068334,0.0015985,-0.25071,0.11857,2
8812.2,54.233,19.053,0,-0.0058572,0,8835.2,57.696,11.111,0.063623,0.0014176,-0.23862,0.12695,2
8812.2,54.233,19.053,0,-0.0058572,0,8835.2,57.696,11.111,0.063623,0.0014176,-0.23862,0.12695,2
8812.6,54.233,19.053,0,-0.0057747,0,8835.2,57.696,11.111,0.063623,0.0014176,-0.23862,0.12902,2
8813.7,54.233,19.053,0,-0.0055296,0,8836.5,57.702,11.111,0.040055,0.00064928,-0.17266,0.12797,2
8813.7,54.233,19.053,0,-0.0055296,0,8836.5,57.702,11.111,0.040055,0.00064928,-0.17266,0.12797,2
8813.7,54.233,19.053,0,-0.0055296,0,8837,57.704,11.111,0.033825,0.00048835,-0.15345,0.12561,2
8813.7,54.233,19.053,0,-0.0055296,0,8837,57.704,11.111,0.033825,0.00048835,-0.15345,0.12561,2
8813.7,54.233,19.053,0,-0.0055296,0,8837,57.704,11.111,0.033825,0.00048835,-0.15345,0.12561,2
8813.7,54.233,19.053,0,-0.0055296,0,8837,57.704,11.111,0.033825,0.00048835,-0.15345,0.12561,2
8813.7,54.233,19.053,0,-0.0055296,0,8837,57.704,11.111,0.033825,0.00048835,-0.15345,0.12561,2
8813.7,54.233,19.053,0,-0.0055296,0,8837,57.704,11.111,0.033825,0.00048835,-0.15345,0.12561,2
8814.5,54.233,19.052,0,-0.0053682,0,8837,57.704,11.111,0.033825,0.00048835,-0.15345,0.12971,2
8814.5,54.233,19.052,0,-0.0053682,0,8837,57.704,11.111,0.033825,0.00048835,-0.15345,0.12971,2
8814.5,54.233,19.052,0,-0.0053682,0,8837,57.704,11.111,0.033825,0.00048835,-0.15345,0.12971,2
8814.5,54.233,19.052,0,-0.0053682,0,8837,57.704,11.111,0.033825,0.00048835,-0.15345,0.12971,2
8814.5,54.233,19.052,0,-0.0053682,0,8837,57.704,11.111,0.033825,0.00048835,-0.15345,0.12971,2
8814.5,54.233,19.052,0,-0.0053682,0,8837,57.704,11.111,0.033825,0.00048835,-0.15345,0.12971,2
8814.5,54.233,19.052,0,-0.0053682,0,8837,57.704,11.111,0.033825,0.00048835,-0.15345,0.12971,2
8814.5,54.233,19.052,0,-0.0053682,0,8837,57.704,11.111,0.033825,0.00048835,-0.15345,0.12971,2
8814.5,54.233,19.052,0,-0.0053682,0,8837,57.704,11.111,0.033825,0.00048835,-0.15345,0.12971,2
8814.5,54.233,19.052,0,-0.0053682,0,8837,57.704,11.111,0.033825,0.00048835,-0.15345,0.12971,2
8814.5,54.233,19.052,0,-0.0053682,0,8837.4,57.705,11.111,0.028313,0.00036233,-0.13569,0.12729,2
8814.5,54.233,19.052,0,-0.0053682,0,8837.4,57.705,11.111,0.028313,0.00036233,-0.13569,0.12729,2
8814.5,54.233,19.052,0,-0.0053682,0,8837.4,57.705,11.111,0.028313,0.00036233,-0.13569,0.12729,2
8814.5,54.233,19.052,0,-0.0053682,0,8837.4,57.705,11.111,0.028313,0.00036233,-0.13569,0.12729,2
8816,54.233,19.052,0,-0.0050387,0,8837.6,57.705,11.111,0.025809,0.00031038,-0.12734,0.13466,2
8817.5,54.233,19.052,0,-0.0047127,0,8838.3,57.707,11.111,0.019215,0.00019038,-0.10442,0.13998,2
8817.5,54.233,19.052,0,-0.0047127,0,8839.2,57.708,11.111,0.012318,9.2639e-05,-0.078552,0.13446,2
8818.3,54.233,19.051,0,-0.0045477,0,8839.2,57.708,11.111,0.012318,9.2639e-05,-0.078552,0.13916,2
8818.3,54.233,19.051,0,-0.0045477,0,8839.6,57.708,11.111,0.0095667,6.2216e-05,-0.067498,0.13638,2
8818.3,54.233,19.051,0,-0.0045477,0,8839.6,57.708,11.111,0.0095667,6.2216e-05,-0.067498,0.13638,2
8818.3,54.233,19.051,0,-0.0045477,0,8839.9,57.708,11.111,0.0083443,5.0374e-05,-0.062409,0.13503,2
8818.3,54.233,19.051,0,-0.0045477,0,8839.9,57.708,11.111,0.0083443,5.0374e-05,-0.062409,0.13503,2
8818.3,54.233,19.051,0,-0.0045477,0,8839.9,57.708,11.111,0.0083443,5.0374e-05,-0.062409,0.13503,2
8818.3,54.233,19.051,0,-0.0045477,0,8839.9,57.708,11.111,0.0083443,5.0374e-05,-0.062409,0.13503,2
8818.3,54.233,19.051,0,-0.0045477,0,8839.9,57.708,11.111,0.0083443,5.0374e-05,-0.062409,0.13503,2
8818.3,54.233,19.051,0,-0.0045477,0,8839.9,57.708,11.111,0.0083443,5.0374e-05,-0.062409,0.13503,2
8818.3,54.233,19.051,0,-0.0045477,0,8839.9,57.708,11.111,0.0083443,5.0374e-05,-0.062409,0.13503,2
8818.3,54.233,19.051,0,-0.0045477,0,8839.9,57.708,11.111,0.0083443,5.0374e-05,-0.062409,0.13503,2
8818.3,54.233,19.051,0,-0.0045477,0,8839.9,57.708,11.111,0.0083443,5.0374e-05,-0.062409,0.13503,2
8819.4,54.233,19.051,0,-0.0043033,0,8839.9,57.708,11.111,0.0083443,5.0374e-05,-0.062409,0.14227,2
8819.4,54.233,19.051,0,-0.0043033,0,8839.9,57.708,11.111,0.0083443,5.0374e-05,-0.062409,0.14227,2
8819.4,54.233,19.051,0,-0.0043033,0,8839.9,57.708,11.111,0.0083443,5.0374e-05,-0.062409,0.14227,2
8819.4,54.233,19.051,0,-0.0043033,0,8839.9,57.708,11.111,0.0083443,5.0374e-05,-0.062409,0.14227,2
8819.4,54.233,19.051,0,-0.0043033,0,8839.9,57.708,11.111,0.0083443,5.0374e-05,-0.062409,0.14227,2
8819.4,54.233,19.051,0,-0.0043033,0,8839.9,57.708,11.111,0.0083443,5.0374e-05,-0.062409,0.14227,2
8819.4,54.233,19.051,0,-0.0043033,0,8839.9,57.708,11.111,0.0083443,5.0374e-05,-0.062409,0.14227,2
8819.4,54.233,19.051,0,-0.0043033,0,8839.9,57.708,11.111,0.0083443,5.0374e-05,-0.062409,0.14227,2
8819.8,54.233,19.051,0,-0.0042226,0,8839.9,57.708,11.111,0.0083443,5.0374e-05,-0.062409,0.14485,2
8820.2,54.233,19.051,0,-0.0041394,0,8839.9,57.708,11.111,0.0083443,5.0374e-05,-0.062409,0.14753,2
8820.2,54.233,19.051,0,-0.0041394,0,8841.2,57.709,11.111,0.0028197,1.0753e-05,-0.03741,0.13856,2
8821.7,54.233,19.051,0,-0.0038107,0,8841.2,57.709,11.111,0.0028197,1.0753e-05,-0.03741,0.1489,2
8821.7,54.233,19.051,0,-0.0038107,0,8841.6,57.709,11.111,0.001552,5.1854e-06,-0.030951,0.14573,2
8823.2,54.233,19.05,0,-0.0034825,0,8841.6,57.709,11.111,0.001552,5.1854e-06,-0.030951,0.15719,2
8823.2,54.233,19.05,0,-0.0034825,0,8841.6,57.709,11.111,0.001552,5.1854e-06,-0.030951,0.15719,2
8823.2,54.233,19.05,0,-0.0034825,0,8841.6,57.709,11.111,0.001552,5.1854e-06,-0.030951,0.15719,2
8823.2,54.233,19.05,0,-0.0034825,0,8841.6,57.709,11.111,0.001552,5.1854e-06,-0.030951,0.15719,2
8823.2,54.233,19.05,0,-0.0034825,0,8841.6,57.709,11.111,0.001552,5.1854e-06,-0.030951,0.15719,2
8823.2,54.233,19.05,0,-0.0034825,0,8841.6,57.709,11.111,0.001552,5.1854e-06,-0.030951,0.15719,2
8823.6,54.233,19.05,0,-0.0034,0,8841.6,57.709,11.111,0.001552,5.1854e-06,-0.030951,0.16033,2
8823.6,54.233,19.05,0,-0.0034,0,8841.6,57.709,11.111,0.001552,5.1854e-06,-0.030951,0.16033,2
8823.6,54.233,19.05,0,-0.0034,0,8841.6,57.709,11.111,0.001552,5.1854e-06,-0.030951,0.16033,2
8823.6,54.233,19.05,0,-0.0034,0,8841.6,57.709,11.111,0.001552,5.1854e-06,-0.030951,0.16033,2
8824,54.233,19.05,0,-0.0033179,0,8841.6,57.709,11.111,0.001552,5.1854e-06,-0.030951,0.16359,2
8824,54.233,19.05,0,-0.0033179,0,8841.6,57.709,11.111,0.001552,5.1854e-06,-0.030951,0.16359,2
8824,54.233,19.05,0,-0.0033179,0,8841.6,57.709,11.111,0.001552,5.1854e-06,-0.030951,0.16359,2
8824,54.233,19.05,0,-0.0033179,0,8841.6,57.709,11.111,0.001552,5.1854e-06,-0.030951,0.16359,2
8824,54.233,19.05,0,-0.0033179,0,8841.6,57.709,11.111,0.001552,5.1854e-06,-0.030951,0.16359,2
8824,54.233,19.05,0,-0.0033179,0,8841.6,57.709,11.111,0.001552,5.1854e-06,-0.030951,0.16359,2
8824,54.233,19.05,0,-0.0033179,0,8841.6,57.709,11.111,0.001552,5.1854e-06,-0.030951,0.16359,2
8824,54.233,19.05,0,-0.0033179,0,8841.6,57.709,11.111,0.001552,5.1854e-06,-0.030951,0.16359,2
8825.1,54.233,19.05,0,-0.003074,0,8843,57.709,11.111,-0.00098843,-1.2012e-06,-0.016137,0.16195,2
8825.9,54.233,19.05,0,-0.0029076,0,8843.6,57.709,11.111,-0.0017134,-1.5693e-06,-0.010866,0.16277,2
8825.9,54.233,19.05,0,-0.0029076,0,8843.6,57.709,11.111,-0.0017134,-1.5693e-06,-0.010866,0.16277,2
8827,54.233,19.05,0,-0.0026609,0,8844.1,57.709,11.111,-0.0020461,-1.4151e-06,-0.0079967,0.16904,2
8827,54.233,19.05,0,-0.0026609,0,8844.7,57.709,11.111,-0.002365,-9.4369e-07,-0.00452,0.16305,2
8827,54.233,19.05,0,-0.0026609,0,8845,57.709,11.111,-0.0024312,-7.6662e-07,-0.0035557,0.16114,2
8827,54.233,19.05,0,-0.0026609,0,8845,57.709,11.111,-0.0024312,-7.6662e-07,-0.0035557,0.16114,2
8827,54.233,19.05,0,-0.0026609,0,8845,57.709,11.111,-0.0024312,-7.6662e-07,-0.0035557,0.16114,2
8827,54.233,19.05,0,-0.0026609,0,8845.2,57.709,11.111,-0.0024803,-5.9149e-07,-0.0026787,0.15927,2
8827,54.233,19.05,0,-0.0026609,0,8845.2,57.709,11.111,-0.0024803,-5.9149e-07,-0.0026787,0.15927,2
8827,54.233,19.05,0,-0.0026609,0,8845.2,57.709,11.111,-0.0024803,-5.9149e-07,-0.0026787,0.15927,2
8827,54.233,19.05,0,-0.0026609,0,8845.2,57.709,11.111,-0.0024803,-5.9149e-07,-0.0026787,0.15927,2
8827,54.233,19.05,0,-0.0026609,0,8845.2,57.709,11.111,-0.0024803,-5.9149e-07,-0.0026787,0.15927,2
8827,54.233,19.05,0,-0.0026609,0,8845.2,57.709,11.111,-0.0024803,-5.9149e-07,-0.0026787,0.15927,2
8827,54.233,19.05,0,-0.0026609,0,8845.2,57.709,11.111,-0.0024803,-5.9149e-07,-0.0026787,0.15927,2
8827,54.233,19.05,0,-0.0026609,0,8845.2,57.709,11.111,-0.0024803,-5.9149e-07,-0.0026787,0.15927,2
8827,54.233,19.05,0,-0.0026609,0,8845.2,57.709,11.111,-0.0024803,-5.9149e-07,-0.0026787,0.15927,2
8828.6,54.233,19.05,0,-0.0023347,0,8845.2,57.709,11.111,-0.0024803,-5.9149e-07,-0.0026787,0.17297,2
8828.6,54.233,19.05,0,-0.0023347,0,8845.2,57.709,11.111,-0.0024803,-5.9149e-07,-0.0026787,0.17297,2
8828.6,54.233,19.05,0,-0.0023347,0,8845.2,57.709,11.111,-0.0024803,-5.9149e-07,-0.0026787,0.17297,2
8828.6,54.233,19.05,0,-0.0023347,0,8845.2,57.709,11.111,-0.0024803,-5.9149e-07,-0.0026787,0.17297,2
8828.6,54.233,19.05,0,-0.0023347,0,8845.2,57.709,11.111,-0.0024803,-5.9149e-07,-0.0026787,0.17297,2
8828.6,54.233,19.05,0,-0.0023347,0,8845.2,57.709,11.111,-0.0024803,-5.9149e-07,-0.0026787,0.17297,2
8828.6,54.233,19.05,0,-0.0023347,0,8845.2,57.709,11.111,-0.0024803,-5.9149e-07,-0.0026787,0.17297,2
8828.9,54.233,19.05,0,-0.002252,0,8845.2,57.709,11.111,-0.0024803,-5.9149e-07,-0.0026787,0.17676,2
8828.9,54.233,19.05,0,-0.002252,0,8845.2,57.709,11.111,-0.0024803,-5.9149e-07,-0.0026787,0.17676,2
8828.9,54.233,19.05,0,-0.002252,0,8845.2,57.709,11.111,-0.0024803,-5.9149e-07,-0.0026787,0.17676,2
8830.5,54.233,19.049,0,-0.001925,0,8845.9,57.709,11.111,-0.0025405,-1.1795e-07,-0.00051691,0.18589,2
8830.5,54.233,19.049,0,-0.001925,0,8845.9,57.709,11.111,-0.0025405,-1.1795e-07,-0.00051691,0.18589,2
8832,54.233,19.049,0,-0.0015957,0,8846.7,57.708,11.111,-0.0024674,3.2489e-07,0.0014545,0.19326,2
8832,54.233,19.049,0,-0.0015957,0,8846.7,57.708,11.111,-0.0024674,3.2489e-07,0.0014545,0.19326,2
8832,54.233,19.049,0,-0.0015957,0,8846.7,57.708,11.111,-0.0024674,3.2489e-07,0.0014545,0.19326,2
8832.8,54.233,19.049,0,-0.001432,0,8847.6,57.708,11.111,-0.0022818,5.4689e-07,0.0026327,0.19175,2
8832.8,54.233,19.049,0,-0.001432,0,8847.6,57.708,11.111,-0.0022818,5.4689e-07,0.0026327,0.19175,2
8833.1,54.233,19.049,0,-0.0013508,0,8847.6,57.708,11.111,-0.0022818,5.4689e-07,0.0026327,0.19637,2
8833.1,54.233,19.049,0,-0.0013508,0,8847.6,57.708,11.111,-0.0022818,5.4689e-07,0.0026327,0.19637,2
8833.1,54.233,19.049,0,-0.0013508,0,8847.6,57.708,11.111,-0.0022818,5.4689e-07,0.0026327,0.19637,2
8833.1,54.233,19.049,0,-0.0013508,0,8847.6,57.708,11.111,-0.0022818,5.4689e-07,0.0026327,0.19637,2
8833.5,54.233,19.049,0,-0.0012699,0,8847.6,57.708,11.111,-0.0022818,5.4689e-07,0.0026327,0.20121,2
8833.5,54.233,19.049,0,-0.0012699,0,8847.6,57.708,11.111,-0.0022818,5.4689e-07,0.0026327,0.20121,2
8833.5,54.233,19.049,0,-0.0012699,0,8847.6,57.708,11.111,-0.0022818,5.4689e-07,0.0026327,0.20121,2
8833.5,54.233,19.049,0,-0.0012699,0,8847.6,57.708,11.111,-0.0022818,5.4689e-07,0.0026327,0.20121,2
8833.5,54.233,19.049,0,-0.0012699,0,8847.6,57.708,11.111,-0.0022818,5.4689e-07,0.0026327,0.20121,2
8833.5,54.233,19.049,0,-0.0012699,0,8847.6,57.708,11.111,-0.0022818,5.4689e-07,0.0026327,0.20121,2
8833.5,54.233,19.049,0,-0.0012699,0,8847.6,57.708,11.111,-0.0022818,5.4689e-07,0.0026327,0.20121,2
8833.5,54.233,19.049,0,-0.0012699,0,8847.6,57.708,11.111,-0.0022818,5.4689e-07,0.0026327,0.20121,2
8833.5,54.233,19.049,0,-0.0012699,0,8847.6,57.708,11.111,-0.0022818,5.4689e-07,0.0026327,0.20121,2
8833.9,54.233,19.049,0,-0.0011866,0,8847.6,57.708,11.111,-0.0022818,5.4689e-07,0.0026327,0.20628,2
8834.3,54.233,19.049,0,-0.0011036,0,8847.6,57.708,11.111,-0.0022818,5.4689e-07,0.0026327,0.2116,2
8835,54.233,19.049,0,-0.00093891,0,8849,57.708,11.111,-0.0019,5.8838e-07,0.0033807,0.20372,2
8835,54.233,19.049,0,-0.00093891,0,8849,57.708,11.111,-0.0019,5.8838e-07,0.0033807,0.20372,2
8835,54.233,19.049,0,-0.00093891,0,8849.6,57.708,11.111,-0.0016934,5.3602e-07,0.003447,0.1952,2
8836.6,54.233,19.049,0,-0.00061136,0,8849.6,57.708,11.111,-0.0016934,5.3602e-07,0.003447,0.21577,2
8836.6,54.233,19.049,0,-0.00061136,0,8849.6,57.708,11.111,-0.0016934,5.3602e-07,0.003447,0.21577,2
8836.6,54.233,19.049,0,-0.00061136,0,8849.6,57.708,11.111,-0.0016934,5.3602e-07,0.003447,0.21577,2
8836.6,54.233,19.049,0,-0.00061136,0,8849.6,57.708,11.111,-0.0016934,5.3602e-07,0.003447,0.21577,2
8836.6,54.233,19.049,0,-0.00061136,0,8849.6,57.708,11.111,-0.0016934,5.3602e-07,0.003447,0.21577,2
8836.6,54.233,19.049,0,-0.00061136,0,8849.6,57.708,11.111,-0.0016934,5.3602e-07,0.003447,0.21577,2
8836.9,54.233,19.049,0,-0.00052832,0,8849.6,57.708,11.111,-0.0016934,5.3602e-07,0.003447,0.22157,2
8836.9,54.233,19.049,0,-0.00052832,0,8849.6,57.708,11.111,-0.0016934,5.3602e-07,0.003447,0.22157,2
8836.9,54.233,19.049,0,-0.00052832,0,8849.6,57.708,11.111,-0.0016934,5.3602e-07,0.003447,0.22157,2
8836.9,54.233,19.049,0,-0.00052832,0,8849.6,57.708,11.111,-0.0016934,5.3602e-07,0.003447,0.22157,2
8836.9,54.233,19.049,0,-0.00052832,0,8850.5,57.708,11.111,-0.0014226,4.3685e-07,0.0033339,0.20847,2
8836.9,54.233,19.049,0,-0.00052832,0,8850.5,57.708,11.111,-0.0014226,4.3685e-07,0.0033339,0.20847,2
8836.9,54.233,19.049,0,-0.00052832,0,8850.5,57.708,11.111,-0.0014226,4.3685e-07,0.0033339,0.20847,2
8836.9,54.233,19.049,0,-0.00052832,0,8850.5,57.708,11.111,-0.0014226,4.3685e-07,0.0033339,0.20847,2
8836.9,54.233,19.049,0,-0.00052832,0,8850.5,57.708,11.111,-0.0014226,4.3685e-07,0.0033339,0.20847,2
8836.9,54.233,19.049,0,-0.00052832,0,8850.5,57.708,11.111,-0.0014226,4.3685e-07,0.0033339,0.20847,2
8837.7,54.233,19.049,0,-0.00036342,0,8850.5,57.708,11.111,-0.0014226,4.3685e-07,0.0033339,0.2196,2
8837.7,54.233,19.049,0,-0.00036342,0,8851.2,57.708,11.111,-0.0012306,3.5764e-07,0.0031486,0.20981,2
8837.7,54.233,19.049,0,-0.00036342,0,8851.2,57.708,11.111,-0.0012306,3.5764e-07,0.0031486,0.20981,2
8837.7,54.233,19.049,0,-0.00036342,0,8851.4,57.708,11.111,-0.0011695,3.3205e-07,0.0030739,0.20672,2
8839.2,54.233,19.049,0,-3.5497e-05,0,8851.4,57.708,11.111,-0.0011695,3.3205e-07,0.0030739,0.22977,2
8840.4,54.233,19.049,0,9.5173e-05,0,8851.9,57.708,11.111,-0.0010522,2.8328e-07,0.0029109,0.242,2
8840.4,54.233,19.049,0,9.5173e-05,0,8851.9,57.708,11.111,-0.0010522,2.8328e-07,0.0029109,0.242,2
8840.4,54.233,19.049,0,9.5173e-05,0,8852.5,57.708,11.111,-0.00088945,2.1791e-07,0.0026436,0.2303,2
8840.4,54.233,19.049,0,9.5173e-05,0,8852.7,57.708,11.111,-0.00083889,1.9847e-07,0.0025511,0.22663,2
8840.4,54.233,19.049,0,9.5173e-05,0,8852.7,57.708,11.111,-0.00083889,1.9847e-07,0.0025511,0.22663,2
8840.4,54.233,19.049,0,9.5173e-05,0,8852.7,57.708,11.111,-0.00083889,1.9847e-07,0.0025511,0.22663,2
8840.4,54.233,19.049,0,9.5173e-05,0,8852.7,57.708,11.111,-0.00083889,1.9847e-07,0.0025511,0.22663,2
8840.4,54.233,19.049,0,9.5173e-05,0,8853,57.708,11.111,-0.0007902,1.8023e-07,0.0024578,0.22307,2
8840.4,54.233,19.049,0,9.5173e-05,0,8853,57.708,11.111,-0.0007902,1.8023e-07,0.0024578,0.22307,2
8841.9,54.233,19.049,0,0.00024841,0,8853,57.708,11.111,-0.0007902,1.8023e-07,0.0024578,0.24981,2
8841.9,54.233,19.049,0,0.00024841,0,8853,57.708,11.111,-0.0007902,1.8023e-07,0.0024578,0.24981,2
8841.9,54.233,19.049,0,0.00024841,0,8853,57.708,11.111,-0.0007902,1.8023e-07,0.0024578,0.24981,2
8841.9,54.233,19.049,0,0.00024841,0,8853,57.708,11.111,-0.0007902,1.8023e-07,0.0024578,0.24981,2
8841.9,54.233,19.049,0,0.00024841,0,8853,57.708,11.111,-0.0007902,1.8023e-07,0.0024578,0.24981,2
8841.9,54.233,19.049,0,0.00024841,0,8853,57.708,11.111,-0.0007902,1.8023e-07,0.0024578,0.24981,2
8841.9,54.233,19.049,0,0.00024841,0,8853,57.708,11.111,-0.0007902,1.8023e-07,0.0024578,0.24981,2
8841.9,54.233,19.049,0,0.00024841,0,8853,57.708,11.111,-0.0007902,1.8023e-07,0.0024578,0.24981,2
8841.9,54.233,19.049,0,0.00024841,0,8853.4,57.707,11.111,-0.00069844,1.4737e-07,0.0022706,0.24142,2
8842.7,54.233,19.049,0,0.00032906,0,8853.4,57.707,11.111,-0.00069844,1.4737e-07,0.0022706,0.25614,2
8842.7,54.233,19.049,0,0.00032906,0,8853.9,57.707,11.111,-0.00061411,1.1917e-07,0.0020853,0.24736,2
8842.7,54.233,19.049,0,0.00032906,0,8853.9,57.707,11.111,-0.00061411,1.1917e-07,0.0020853,0.24736,2
8842.7,54.233,19.049,0,0.00032906,0,8853.9,57.707,11.111,-0.00061411,1.1917e-07,0.0020853,0.24736,2
8842.7,54.233,19.049,0,0.00032906,0,8853.9,57.707,11.111,-0.00061411,1.1917e-07,0.0020853,0.24736,2
8842.7,54.233,19.049,0,0.00032906,0,8853.9,57.707,11.111,-0.00061411,1.1917e-07,0.0020853,0.24736,2
8844.6,54.233,19.049,0,0.0005384,0,8854.1,57.707,11.111,-0.00057468,1.0672e-07,0.0019942,0.28383,2
8844.6,54.233,19.049,0,0.0005384,0,8854.1,57.707,11.111,-0.00057468,1.0672e-07,0.0019942,0.28383,2
8844.6,54.233,19.049,0,0.0005384,0,8855,57.707,11.111,-0.00043451,6.6786e-08,0.0016455,0.26345,2
8844.6,54.233,19.049,0,0.0005384,0,8855,57.707,11.111,-0.00043451,6.6786e-08,0.0016455,0.26345,2
8844.6,54.233,19.049,0,0.0005384,0,8855,57.707,11.111,-0.00043451,6.6786e-08,0.0016455,0.26345,2
8844.6,54.233,19.049,0,0.0005384,0,8855,57.707,11.111,-0.00043451,6.6786e-08,0.0016455,0.26345,2
8844.6,54.233,19.049,0,0.0005384,0,8855,57.707,11.111,-0.00043451,6.6786e-08,0.0016455,0.26345,2
8845.3,54.233,19.049,0,0.00062674,0,8855,57.707,11.111,-0.00043451,6.6786e-08,0.0016455,0.28076,2
8846.1,54.233,19.049,0,0.00071692,0,8855.4,57.707,11.111,-0.0003744,5.1956e-08,0.0014831,0.28857,2
8846.1,54.233,19.049,0,0.00071692,0,8855.4,57.707,11.111,-0.0003744,5.1956e-08,0.0014831,0.28857,2
8846.5,54.233,19.049,0,0.00076237,0,8855.4,57.707,11.111,-0.0003744,5.1956e-08,0.0014831,0.29847,2
8846.5,54.233,19.049,0,0.00076237,0,8855.4,57.707,11.111,-0.0003744,5.1956e-08,0.0014831,0.29847,2
8846.9,54.233,19.049,0,0.00080893,0,8855.4,57.707,11.111,-0.0003744,5.1956e-08,0.0014831,0.30897,2
8847.6,54.233,19.049,0,0.00090276,0,8856.3,57.707,11.111,-0.00027231,3.0352e-08,0.0011867,0.3054,2
8847.6,54.233,19.049,0,0.00090276,0,8856.3,57.707,11.111,-0.00027231,3.0352e-08,0.0011867,0.3054,2
8847.6,54.233,19.049,0,0.00090276,0,8856.3,57.707,11.111,-0.00027231,3.0352e-08,0.0011867,0.3054,2
8848,54.233,19.049,0,0.00095004,0,8856.3,57.707,11.111,-0.00027231,3.0352e-08,0.0011867,0.31632,2
8848.4,54.233,19.049,0,0.00099842,0,8856.3,57.707,11.111,-0.00027231,3.0352e-08,0.0011867,0.3279,2
8848.4,54.233,19.049,0,0.00099842,0,8856.3,57.707,11.111,-0.00027231,3.0352e-08,0.0011867,0.3279,2
8848.4,54.233,19.049,0,0.00099842,0,8856.3,57.707,11.111,-0.00027231,3.0352e-08,0.0011867,0.3279,2
8848.4,54.233,19.049,0,0.00099842,0,8856.3,57.707,11.111,-0.00027231,3.0352e-08,0.0011867,0.3279,2
8848.4,54.233,19.049,0,0.00099842,0,8856.3,57.707,11.111,-0.00027231,3.0352e-08,0.0011867,0.3279,2
8848.4,54.233,19.049,0,0.00099842,0,8856.3,57.707,11.111,-0.00027231,3.0352e-08,0.0011867,0.3279,2
8848.4,54.233,19.049,0,0.00099842,0,8856.3,57.707,11.111,-0.00027231,3.0352e-08,0.0011867,0.3279,2
8848.4,54.233,19.049,0,0.00099842,0,8856.3,57.707,11.111,-0.00027231,3.0352e-08,0.0011867,0.3279,2
8848.4,54.233,19.049,0,0.00099842,0,8856.3,57.707,11.111,-0.00027231,3.0352e-08,0.0011867,0.3279,2
8848.8,54.233,19.049,0,0.0010466,0,8856.3,57.707,11.111,-0.00027231,3.0352e-08,0.0011867,0.3402,2
8849.1,54.233,19.049,0,0.0010959,0,8856.3,57.707,11.111,-0.00027231,3.0352e-08,0.0011867,0.35324,2
8849.1,54.233,19.049,0,0.0010959,0,8856.3,57.707,11.111,-0.00027231,3.0352e-08,0.0011867,0.35324,2
8849.1,54.233,19.049,0,0.0010959,0,8856.3,57.707,11.111,-0.00027231,3.0352e-08,0.0011867,0.35324,2
8849.1,54.233,19.049,0,0.0010959,0,8856.3,57.707,11.111,-0.00027231,3.0352e-08,0.0011867,0.35324,2
8849.1,54.233,19.049,0,0.0010959,0,8856.3,57.707,11.111,-0.00027231,3.0352e-08,0.0011867,0.35324,2
8849.1,54.233,19.049,0,0.0010959,0,8856.3,57.707,11.111,-0.00027231,3.0352e-08,0.0011867,0.35324,2
8849.1,54.233,19.049,0,0.0010959,0,8856.3,57.707,11.111,-0.00027231,3.0352e-08,0.0011867,0.35324,2
8850.3,54.233,19.049,0,0.0012452,0,8857.6,57.707,11.111,-0.0001585,1.2263e-08,0.00081751,0.34663,2
8850.3,54.233,19.049,0,0.0012452,0,8858.5,57.707,11.111,-0.00010417,6.1656e-09,0.00062065,0.31821,2
8850.3,54.233,19.049,0,0.0012452,0,8858.5,57.707,11.111,-0.00010417,6.1656e-09,0.00062065,0.31821,2
8850.3,54.233,19.049,0,0.0012452,0,8858.5,57.707,11.111,-0.00010417,6.1656e-09,0.00062065,0.31821,2
8850.3,54.233,19.049,0,0.0012452,0,8858.5,57.707,11.111,-0.00010417,6.1656e-09,0.00062065,0.31821,2
8850.3,54.233,19.049,0,0.0012452,0,8858.5,57.707,11.111,-0.00010417,6.1656e-09,0.00062065,0.31821,2
8850.3,54.233,19.049,0,0.0012452,0,8858.5,57.707,11.111,-0.00010417,6.1656e-09,0.00062065,0.31821,2
8851.4,54.233,19.049,0,0.0013993,0,8858.5,57.707,11.111,-0.00010417,6.1656e-09,0.00062065,0.35549,2
8851.4,54.233,19.049,0,0.0013993,0,8858.5,57.707,11.111,-0.00010417,6.1656e-09,0.00062065,0.35549,2
8852.6,54.233,19.049,0,0.0015568,0,8859.2,57.707,11.111,-7.2597e-05,3.4689e-09,0.00049691,0.37306,2
8852.6,54.233,19.049,0,0.0015568,0,8859.2,57.707,11.111,-7.2597e-05,3.4689e-09,0.00049691,0.37306,2
8852.6,54.233,19.049,0,0.0015568,0,8859.2,57.707,11.111,-7.2597e-05,3.4689e-09,0.00049691,0.37306,2
8852.6,54.233,19.049,0,0.0015568,0,8859.2,57.707,11.111,-7.2597e-05,3.4689e-09,0.00049691,0.37306,2
8852.6,54.233,19.049,0,0.0015568,0,8859.2,57.707,11.111,-7.2597e-05,3.4689e-09,0.00049691,0.37306,2
8853.3,54.233,19.05,0,0.0016642,0,8859.6,57.707,11.111,-5.5267e-05,2.2759e-09,0.00042489,0.38547,2
8853.3,54.233,19.05,0,0.0016642,0,8859.6,57.707,11.111,-5.5267e-05,2.2759e-09,0.00042489,0.38547,2
8853.3,54.233,19.05,0,0.0016642,0,8860.1,57.707,11.111,-4.0543e-05,1.433e-09,0.00036064,0.36826,2
8854.1,54.233,19.05,0,0.0017723,0,8860.1,57.707,11.111,-4.0543e-05,1.433e-09,0.00036064,0.39845,2
8854.1,54.233,19.05,0,0.0017723,0,8860.1,57.707,11.111,-4.0543e-05,1.433e-09,0.00036064,0.39845,2
8854.5,54.233,19.05,0,0.0018266,0,8860.1,57.707,11.111,-4.0543e-05,1.433e-09,0.00036064,0.41474,2
8854.5,54.233,19.05,0,0.0018266,0,8861,57.707,11.111,-1.7774e-05,4.6283e-10,0.00025325,0.37797,2
8854.5,54.233,19.05,0,0.0018266,0,8861,57.707,11.111,-1.7774e-05,4.6283e-10,0.00025325,0.37797,2
8854.5,54.233,19.05,0,0.0018266,0,8861.2,57.707,11.111,-1.3282e-05,3.2318e-10,0.0002304,0.36946,2
8854.5,54.233,19.05,0,0.0018266,0,8861.2,57.707,11.111,-1.3282e-05,3.2318e-10,0.0002304,0.36946,2
8854.5,54.233,19.05,0,0.0018266,0,8861.2,57.707,11.111,-1.3282e-05,3.2318e-10,0.0002304,0.36946,2
8854.5,54.233,19.05,0,0.0018266,0,8861.2,57.707,11.111,-1.3282e-05,3.2318e-10,0.0002304,0.36946,2
8854.5,54.233,19.05,0,0.0018266,0,8861.2,57.707,11.111,-1.3282e-05,3.2318e-10,0.0002304,0.36946,2
8856,54.233,19.05,0,0.0020499,0,8861.2,57.707,11.111,-1.3282e-05,3.2318e-10,0.0002304,0.43322,2
8856,54.233,19.05,0,0.0020499,0,8861.2,57.707,11.111,-1.3282e-05,3.2318e-10,0.0002304,0.43322,2
8856,54.233,19.05,0,0.0020499,0,8861.2,57.707,11.111,-1.3282e-05,3.2318e-10,0.0002304,0.43322,2
8856,54.233,19.05,0,0.0020499,0,8861.2,57.707,11.111,-1.3282e-05,3.2318e-10,0.0002304,0.43322,2
8856,54.233,19.05,0,0.0020499,0,8861.6,57.707,11.111,-5.5316e-06,1.2626e-10,0.00018902,0.41336,2
8856,54.233,19.05,0,0.0020499,0,8861.9,57.707,11.111,-2.2194e-06,6.0147e-11,0.00017036,0.4038,2
8856,54.233,19.05,0,0.0020499,0,8861.9,57.707,11.111,-2.2194e-06,6.0147e-11,0.00017036,0.4038,2
8856,54.233,19.05,0,0.0020499,0,8862.3,57.707,11.111,3.4046e-06,-2.5073e-11,0.00013678,0.38549,2
8857.9,54.233,19.05,0,0.0023356,0,8862.3,57.707,11.111,3.4046e-06,-2.5073e-11,0.00013678,0.47058,2
8857.9,54.233,19.05,0,0.0023356,0,8862.7,57.707,11.111,7.8474e-06,-6.5669e-11,0.00010779,0.44944,2
8857.9,54.233,19.05,0,0.0023356,0,8862.7,57.707,11.111,7.8474e-06,-6.5669e-11,0.00010779,0.44944,2
8857.9,54.233,19.05,0,0.0023356,0,8862.7,57.707,11.111,7.8474e-06,-6.5669e-11,0.00010779,0.44944,2
8857.9,54.233,19.05,0,0.0023356,0,8862.7,57.707,11.111,7.8474e-06,-6.5669e-11,0.00010779,0.44944,2
8857.9,54.233,19.05,0,0.0023356,0,8863,57.707,11.111,9.6787e-06,-7.4534e-11,9.4862e-05,0.43907,2
8857.9,54.233,19.05,0,0.0023356,0,8863,57.707,11.111,9.6787e-06,-7.4534e-11,9.4862e-05,0.43907,2
8857.9,54.233,19.05,0,0.0023356,0,8863.2,57.707,11.111,1.1276e-05,-7.7957e-11,8.2913e-05,0.4289,2
8857.9,54.233,19.05,0,0.0023356,0,8863.2,57.707,11.111,1.1276e-05,-7.7957e-11,8.2913e-05,0.4289,2
8857.9,54.233,19.05,0,0.0023356,0,8863.2,57.707,11.111,1.1276e-05,-7.7957e-11,8.2913e-05,0.4289,2
8857.9,54.233,19.05,0,0.0023356,0,8863.2,57.707,11.111,1.1276e-05,-7.7957e-11,8.2913e-05,0.4289,2
8857.9,54.233,19.05,0,0.0023356,0,8863.2,57.707,11.111,1.1276e-05,-7.7957e-11,8.2913e-05,0.4289,2
8857.9,54.233,19.05,0,0.0023356,0,8863.2,57.707,11.111,1.1276e-05,-7.7957e-11,8.2913e-05,0.4289,2
8857.9,54.233,19.05,0,0.0023356,0,8863.2,57.707,11.111,1.1276e-05,-7.7957e-11,8.2913e-05,0.4289,2
8857.9,54.233,19.05,0,0.0023356,0,8863.4,57.707,11.111,1.2658e-05,-7.7239e-11,7.1885e-05,0.41895,2
8860.2,54.233,19.05,0,0.0026885,0,8863.6,57.707,11.111,1.384e-05,-7.3458e-11,6.1726e-05,0.51542,2
8860.2,54.233,19.05,0,0.0026885,0,8864.1,57.707,11.111,1.5673e-05,-6.0079e-11,4.3818e-05,0.49489,2
8860.2,54.233,19.05,0,0.0026885,0,8864.1,57.707,11.111,1.5673e-05,-6.0079e-11,4.3818e-05,0.49489,2
8860.2,54.233,19.05,0,0.0026885,0,8864.7,57.707,11.111,1.7304e-05,-3.4264e-11,2.2288e-05,0.463,2
8860.2,54.233,19.05,0,0.0026885,0,8864.7,57.707,11.111,1.7304e-05,-3.4264e-11,2.2288e-05,0.463,2
8860.2,54.233,19.05,0,0.0026885,0,8864.7,57.707,11.111,1.7304e-05,-3.4264e-11,2.2288e-05,0.463,2
8860.2,54.233,19.05,0,0.0026885,0,8864.7,57.707,11.111,1.7304e-05,-3.4264e-11,2.2288e-05,0.463,2
8860.2,54.233,19.05,0,0.0026885,0,8865,57.707,11.111,1.7601e-05,-2.5679e-11,1.6363e-05,0.45244,2
8860.2,54.233,19.05,0,0.0026885,0,8865,57.707,11.111,1.7601e-05,-2.5679e-11,1.6363e-05,0.45244,2
8860.2,54.233,19.05,0,0.0026885,0,8865,57.707,11.111,1.7601e-05,-2.5679e-11,1.6363e-05,0.45244,2
8860.2,54.233,19.05,0,0.0026885,0,8865,57.707,11.111,1.7601e-05,-2.5679e-11,1.6363e-05,0.45244,2
8860.2,54.233,19.05,0,0.0026885,0,8865,57.707,11.111,1.7601e-05,-2.5679e-11,1.6363e-05,0.45244,2
8860.2,54.233,19.05,0,0.0026885,0,8865,57.707,11.111,1.7601e-05,-2.5679e-11,1.6363e-05,0.45244,2
8860.2,54.233,19.05,0,0.0026885,0,8865,57.707,11.111,1.7601e-05,-2.5679e-11,1.6363e-05,0.45244,2
8860.2,54.233,19.05,0,0.0026885,0,8865,57.707,11.111,1.7601e-05,-2.5679e-11,1.6363e-05,0.45244,2
8860.2,54.233,19.05,0,0.0026885,0,8865,57.707,11.111,1.7601e-05,-2.5679e-11,1.6363e-05,0.45244,2
8860.2,54.233,19.05,0,0.0026885,0,8865.2,57.707,11.111,1.7794e-05,-1.7501e-11,1.0997e-05,0.44203,2
8860.2,54.233,19.05,0,0.0026885,0,8865.2,57.707,11.111,1.7794e-05,-1.7501e-11,1.0997e-05,0.44203,2
8863.2,54.233,19.051,0,0.0031756,0,8865.4,57.707,11.111,1.7892e-05,-9.8737e-12,6.1529e-06,0.55862,2
8863.2,54.233,19.051,0,0.0031756,0,8865.4,57.707,11.111,1.7892e-05,-9.8737e-12,6.1529e-06,0.55862,2
8863.6,54.233,19.051,0,0.0032382,0,8865.4,57.707,11.111,1.7892e-05,-9.8737e-12,6.1529e-06,0.56265,2
8863.6,54.233,19.051,0,0.0032382,0,8865.4,57.707,11.111,1.7892e-05,-9.8737e-12,6.1529e-06,0.56265,2
8863.6,54.233,19.051,0,0.0032382,0,8866.7,57.707,11.111,1.6994e-05,2.1267e-11,-1.3793e-05,0.52907,2
8863.6,54.233,19.051,0,0.0032382,0,8867,57.707,11.111,1.6665e-05,2.4035e-11,-1.5873e-05,0.51965,2
8863.6,54.233,19.051,0,0.0032382,0,8867,57.707,11.111,1.6665e-05,2.4035e-11,-1.5873e-05,0.51965,2
8863.6,54.233,19.051,0,0.0032382,0,8867,57.707,11.111,1.6665e-05,2.4035e-11,-1.5873e-05,0.51965,2
8863.6,54.233,19.051,0,0.0032382,0,8867,57.707,11.111,1.6665e-05,2.4035e-11,-1.5873e-05,0.51965,2
8863.6,54.233,19.051,0,0.0032382,0,8867,57.707,11.111,1.6665e-05,2.4035e-11,-1.5873e-05,0.51965,2
8863.6,54.233,19.051,0,0.0032382,0,8867,57.707,11.111,1.6665e-05,2.4035e-11,-1.5873e-05,0.51965,2
8863.6,54.233,19.051,0,0.0032382,0,8867,57.707,11.111,1.6665e-05,2.4035e-11,-1.5873e-05,0.51965,2
8865.9,54.233,19.051,0,0.003616,0,8867,57.707,11.111,1.6665e-05,2.4035e-11,-1.5873e-05,0.55201,2
8866.3,54.233,19.051,0,0.0036797,0,8867,57.707,11.111,1.6665e-05,2.4035e-11,-1.5873e-05,0.5358,2
8866.3,54.233,19.051,0,0.0036797,0,8867,57.707,11.111,1.6665e-05,2.4035e-11,-1.5873e-05,0.5358,2
8866.3,54.233,19.051,0,0.0036797,0,8867,57.707,11.111,1.6665e-05,2.4035e-11,-1.5873e-05,0.5358,2
8866.3,54.233,19.051,0,0.0036797,0,8867,57.707,11.111,1.6665e-05,2.4035e-11,-1.5873e-05,0.5358,2
8866.3,54.233,19.051,0,0.0036797,0,8867,57.707,11.111,1.6665e-05,2.4035e-11,-1.5873e-05,0.5358,2
8866.3,54.233,19.051,0,0.0036797,0,8867,57.707,11.111,1.6665e-05,2.4035e-11,-1.5873e-05,0.5358,2
8866.3,54.233,19.051,0,0.0036797,0,8867,57.707,11.111,1.6665e-05,2.4035e-11,-1.5873e-05,0.5358,2
8866.7,54.233,19.051,0,0.0037433,0,8867,57.707,11.111,1.6665e-05,2.4035e-11,-1.5873e-05,0.51274,2
8867.8,54.233,19.052,0,0.0039366,0,8868.1,57.707,11.111,1.4605e-05,2.9921e-11,-2.2419e-05,0.51053,2
8867.8,54.233,19.052,0,0.0039366,0,8868.1,57.707,11.111,1.4605e-05,2.9921e-11,-2.2419e-05,0.51053,2
8867.8,54.233,19.052,0,0.0039366,0,8868.1,57.707,11.111,1.4605e-05,2.9921e-11,-2.2419e-05,0.51053,2
8867.8,54.233,19.052,0,0.0039366,0,8868.1,57.707,11.111,1.4605e-05,2.9921e-11,-2.2419e-05,0.51053,2
8868.6,54.233,19.052,0,0.0040671,0,8868.5,57.707,11.111,1.3664e-05,2.9539e-11,-2.3612e-05,0.49474,2
8868.6,54.233,19.052,0,0.0040671,0,8869.2,57.707,11.111,1.2211e-05,2.723e-11,-2.4294e-05,0.53238,2
8868.6,54.233,19.052,0,0.0040671,0,8869.2,57.707,11.111,1.2211e-05,2.723e-11,-2.4294e-05,0.53238,2
8868.6,54.233,19.052,0,0.0040671,0,8869.2,57.707,11.111,1.2211e-05,2.723e-11,-2.4294e-05,0.53238,2
8868.6,54.233,19.052,0,0.0040671,0,8869.2,57.707,11.111,1.2211e-05,2.723e-11,-2.4294e-05,0.53238,2
8868.6,54.233,19.052,0,0.0040671,0,8869.2,57.707,11.111,1.2211e-05,2.723e-11,-2.4294e-05,0.53238,2
8868.6,54.233,19.052,0,0.0040671,0,8869.2,57.707,11.111,1.2211e-05,2.723e-11,-2.4294e-05,0.53238,2
8868.6,54.233,19.052,0,0.0040671,0,8869.2,57.707,11.111,1.2211e-05,2.723e-11,-2.4294e-05,0.53238,2
8870.1,54.233,19.052,0,0.0043294,0,8869.4,57.707,11.111,1.1725e-05,2.6154e-11,-2.4281e-05,0.53618,2
8870.1,54.233,19.052,0,0.0043294,0,8869.4,57.707,11.111,1.1725e-05,2.6154e-11,-2.4281e-05,0.53618,2
8870.1,54.233,19.052,0,0.0043294,0,8869.4,57.707,11.111,1.1725e-05,2.6154e-11,-2.4281e-05,0.53618,2
8870.1,54.233,19.052,0,0.0043294,0,8869.4,57.707,11.111,1.1725e-05,2.6154e-11,-2.4281e-05,0.53618,2
8870.1,54.233,19.052,0,0.0043294,0,8869.4,57.707,11.111,1.1725e-05,2.6154e-11,-2.4281e-05,0.53618,2
8870.1,54.233,19.052,0,0.0043294,0,8869.9,57.707,11.111,1.0764e-05,2.3737e-11,-2.3969e-05,0.50884,2
8871.6,54.233,19.052,0,0.0045962,0,8870.1,57.707,11.111,1.0291e-05,2.2447e-11,-2.369e-05,0.56196,2
8871.6,54.233,19.052,0,0.0045962,0,8870.1,57.707,11.111,1.0291e-05,2.2447e-11,-2.369e-05,0.56196,2
8871.6,54.233,19.052,0,0.0045962,0,8870.1,57.707,11.111,1.0291e-05,2.2447e-11,-2.369e-05,0.56196,2
8871.6,54.233,19.052,0,0.0045962,0,8870.1,57.707,11.111,1.0291e-05,2.2447e-11,-2.369e-05,0.56196,2
8872.8,54.233,19.053,0,0.0047971,0,8870.7,57.707,11.111,8.9222e-06,1.8502e-11,-2.2475e-05,0.5609,2
8872.8,54.233,19.053,0,0.0047971,0,8870.7,57.707,11.111,8.9222e-06,1.8502e-11,-2.2475e-05,0.5609,2
8872.8,54.233,19.053,0,0.0047971,0,8870.7,57.707,11.111,8.9222e-06,1.8502e-11,-2.2475e-05,0.5609,2
8872.8,54.233,19.053,0,0.0047971,0,8870.7,57.707,11.111,8.9222e-06,1.8502e-11,-2.2475e-05,0.5609,2
8872.8,54.233,19.053,0,0.0047971,0,8870.7,57.707,11.111,8.9222e-06,1.8502e-11,-2.2475e-05,0.5609,2
8872.8,54.233,19.053,0,0.0047971,0,8870.7,57.707,11.111,8.9222e-06,1.8502e-11,-2.2475e-05,0.5609,2
8872.8,54.233,19.053,0,0.0047971,0,8870.7,57.707,11.111,8.9222e-06,1.8502e-11,-2.2475e-05,0.5609,2
8872.8,54.233,19.053,0,0.0047971,0,8870.7,57.707,11.111,8.9222e-06,1.8502e-11,-2.2475e-05,0.5609,2
8872.8,54.233,19.053,0,0.0047971,0,8870.7,57.707,11.111,8.9222e-06,1.8502e-11,-2.2475e-05,0.5609,2
8872.8,54.233,19.053,0,0.0047971,0,8870.7,57.707,11.111,8.9222e-06,1.8502e-11,-2.2475e-05,0.5609,2
8872.8,54.233,19.053,0,0.0047971,0,8871.4,57.707,11.111,7.6451e-06,1.4741e-11,-2.0855e-05,0.55945,2
8872.8,54.233,19.053,0,0.0047971,0,8871.6,57.707,11.111,7.243e-06,1.3573e-11,-2.0255e-05,0.55422,2
8872.8,54.233,19.053,0,0.0047971,0,8871.6,57.707,11.111,7.243e-06,1.3573e-11,-2.0255e-05,0.55422,2
8872.8,54.233,19.053,0,0.0047971,0,8871.6,57.707,11.111,7.243e-06,1.3573e-11,-2.0255e-05,0.55422,2
8872.8,54.233,19.053,0,0.0047971,0,8871.6,57.707,11.111,7.243e-06,1.3573e-11,-2.0255e-05,0.55422,2
8872.8,54.233,19.053,0,0.0047971,0,8871.6,57.707,11.111,7.243e-06,1.3573e-11,-2.0255e-05,0.55422,2
8872.8,54.233,19.053,0,0.0047971,0,8871.6,57.707,11.111,7.243e-06,1.3573e-11,-2.0255e-05,0.55422,2
8873.9,54.233,19.053,0,0.0049999,0,8871.6,57.707,11.111,7.243e-06,1.3573e-11,-2.0255e-05,0.55661,2
8875.4,54.233,19.053,0,0.0052726,0,8872.3,57.707,11.111,6.1127e-06,1.0399e-11,-1.8352e-05,0.52872,2
8875.4,54.233,19.053,0,0.0052726,0,8872.3,57.707,11.111,6.1127e-06,1.0399e-11,-1.8352e-05,0.52872,2
8875.8,54.233,19.054,0,0.0053416,0,8872.3,57.707,11.111,6.1127e-06,1.0399e-11,-1.8352e-05,0.51221,2
8875.8,54.233,19.054,0,0.0053416,0,8872.3,57.707,11.111,6.1127e-06,1.0399e-11,-1.8352e-05,0.51221,2
8876.2,54.233,19.054,0,0.0054103,0,8872.3,57.707,11.111,6.1127e-06,1.0399e-11,-1.8352e-05,0.49451,2
8877,54.233,19.054,0,0.0055484,0,8872.3,57.707,11.111,6.1127e-06,1.0399e-11,-1.8352e-05,0.45806,2
8877,54.233,19.054,0,0.0055484,0,8872.3,57.707,11.111,6.1127e-06,1.0399e-11,-1.8352e-05,0.45806,2
8877,54.233,19.054,0,0.0055484,0,8872.3,57.707,11.111,6.1127e-06,1.0399e-11,-1.8352e-05,0.45806,2
8877,54.233,19.054,0,0.0055484,0,8872.3,57.707,11.111,6.1127e-06,1.0399e-11,-1.8352e-05,0.45806,2
8877,54.233,19.054,0,0.0055484,0,8872.3,57.707,11.111,6.1127e-06,1.0399e-11,-1.8352e-05,0.45806,2
8877,54.233,19.054,0,0.0055484,0,8872.3,57.707,11.111,6.1127e-06,1.0399e-11,-1.8352e-05,0.45806,2
8877,54.233,19.054,0,0.0055484,0,8872.3,57.707,11.111,6.1127e-06,1.0399e-11,-1.8352e-05,0.45806,2
8877,54.233,19.054,0,0.0055484,0,8873.9,57.707,11.111,3.9337e-06,5.0495e-12,-1.378e-05,0.53,2
8877,54.233,19.054,0,0.0055484,0,8873.9,57.707,11.111,3.9337e-06,5.0495e-12,-1.378e-05,0.53,2
8877,54.233,19.054,0,0.0055484,0,8873.9,57.707,11.111,3.9337e-06,5.0495e-12,-1.378e-05,0.53,2
8877,54.233,19.054,0,0.0055484,0,8874.1,57.707,11.111,3.6738e-06,4.5043e-12,-1.3152e-05,0.53862,2
8877,54.233,19.054,0,0.0055484,0,8874.3,57.707,11.111,3.4261e-06,4.007e-12,-1.2536e-05,0.5463,2
8877,54.233,19.054,0,0.0055484,0,8874.3,57.707,11.111,3.4261e-06,4.007e-12,-1.2536e-05,0.5463,2
8879.2,54.233,19.055,0,0.0059654,0,8874.5,57.707,11.111,3.1905e-06,3.5547e-12,-1.1933e-05,0.45501,2
8880,54.233,19.055,0,0.0061065,0,8875.2,57.707,11.111,2.5526e-06,2.4403e-12,-1.0214e-05,0.4505,2
8880,54.233,19.055,0,0.0061065,0,8875.2,57.707,11.111,2.5526e-06,2.4403e-12,-1.0214e-05,0.4505,2
8880,54.233,19.055,0,0.0061065,0,8875.2,57.707,11.111,2.5526e-06,2.4403e-12,-1.0214e-05,0.4505,2
8880,54.233,19.055,0,0.0061065,0,8875.2,57.707,11.111,2.5526e-06,2.4403e-12,-1.0214e-05,0.4505,2
8880,54.233,19.055,0,0.0061065,0,8875.2,57.707,11.111,2.5526e-06,2.4403e-12,-1.0214e-05,0.4505,2
8880,54.233,19.055,0,0.0061065,0,8875.2,57.707,11.111,2.5526e-06,2.4403e-12,-1.0214e-05,0.4505,2
8880,54.233,19.055,0,0.0061065,0,8875.2,57.707,11.111,2.5526e-06,2.4403e-12,-1.0214e-05,0.4505,2
8880,54.233,19.055,0,0.0061065,0,8875.6,57.707,11.111,2.1815e-06,1.8717e-12,-9.1492e-06,0.47167,2
8880,54.233,19.055,0,0.0061065,0,8875.6,57.707,11.111,2.1815e-06,1.8717e-12,-9.1492e-06,0.47167,2
8880,54.233,19.055,0,0.0061065,0,8875.6,57.707,11.111,2.1815e-06,1.8717e-12,-9.1492e-06,0.47167,2
8880,54.233,19.055,0,0.0061065,0,8875.6,57.707,11.111,2.1815e-06,1.8717e-12,-9.1492e-06,0.47167,2
8880,54.233,19.055,0,0.0061065,0,8875.6,57.707,11.111,2.1815e-06,1.8717e-12,-9.1492e-06,0.47167,2
8880,54.233,19.055,0,0.0061065,0,8875.6,57.707,11.111,2.1815e-06,1.8717e-12,-9.1492e-06,0.47167,2
8880.8,54.233,19.055,0,0.0062468,0,8875.6,57.707,11.111,2.1815e-06,1.8717e-12,-9.1492e-06,0.43571,2
8880.8,54.233,19.055,0,0.0062468,0,8875.6,57.707,11.111,2.1815e-06,1.8717e-12,-9.1492e-06,0.43571,2
8880.8,54.233,19.055,0,0.0062468,0,8875.6,57.707,11.111,2.1815e-06,1.8717e-12,-9.1492e-06,0.43571,2
8880.8,54.233,19.055,0,0.0062468,0,8875.6,57.707,11.111,2.1815e-06,1.8717e-12,-9.1492e-06,0.43571,2
8880.8,54.233,19.055,0,0.0062468,0,8875.6,57.707,11.111,2.1815e-06,1.8717e-12,-9.1492e-06,0.43571,2
8880.8,54.233,19.055,0,0.0062468,0,8875.6,57.707,11.111,2.1815e-06,1.8717e-12,-9.1492e-06,0.43571,2
8880.8,54.233,19.055,0,0.0062468,0,8875.6,57.707,11.111,2.1815e-06,1.8717e-12,-9.1492e-06,0.43571,2
8880.8,54.233,19.055,0,0.0062468,0,8875.6,57.707,11.111,2.1815e-06,1.8717e-12,-9.1492e-06,0.43571,2
8881.9,54.233,19.055,0,0.0064594,0,8876.1,57.707,11.111,1.8506e-06,1.418e-12,-8.1545e-06,0.40474,2
8881.9,54.233,19.055,0,0.0064594,0,8876.1,57.707,11.111,1.8506e-06,1.418e-12,-8.1545e-06,0.40474,2
8883.1,54.233,19.056,0,0.0066727,0,8876.7,57.707,11.111,1.4232e-06,9.1211e-13,-6.7963e-06,0.38508,2
8884.6,54.233,19.056,0,0.0069582,0,8877.4,57.707,11.111,1.0701e-06,5.6738e-13,-5.5982e-06,0.35288,2
8884.6,54.233,19.056,0,0.0069582,0,8877.4,57.707,11.111,1.0701e-06,5.6738e-13,-5.5982e-06,0.35288,2
8884.6,54.233,19.056,0,0.0069582,0,8877.4,57.707,11.111,1.0701e-06,5.6738e-13,-5.5982e-06,0.35288,2
8884.6,54.233,19.056,0,0.0069582,0,8877.4,57.707,11.111,1.0701e-06,5.6738e-13,-5.5982e-06,0.35288,2
8884.6,54.233,19.056,0,0.0069582,0,8877.4,57.707,11.111,1.0701e-06,5.6738e-13,-5.5982e-06,0.35288,2
8884.6,54.233,19.056,0,0.0069582,0,8877.4,57.707,11.111,1.0701e-06,5.6738e-13,-5.5982e-06,0.35288,2
8884.6,54.233,19.056,0,0.0069582,0,8877.4,57.707,11.111,1.0701e-06,5.6738e-13,-5.5982e-06,0.35288,2
8884.6,54.233,19.056,0,0.0069582,0,8877.4,57.707,11.111,1.0701e-06,5.6738e-13,-5.5982e-06,0.35288,2
8885,54.233,19.057,0,0.0070297,0,8877.4,57.707,11.111,1.0701e-06,5.6738e-13,-5.5982e-06,0.33986,2
8885,54.233,19.057,0,0.0070297,0,8877.4,57.707,11.111,1.0701e-06,5.6738e-13,-5.5982e-06,0.33986,2
8885,54.233,19.057,0,0.0070297,0,8877.4,57.707,11.111,1.0701e-06,5.6738e-13,-5.5982e-06,0.33986,2
8885,54.233,19.057,0,0.0070297,0,8878.5,57.707,11.111,6.2144e-07,2.3434e-13,-3.9401e-06,0.38002,2
8885,54.233,19.057,0,0.0070297,0,8878.5,57.707,11.111,6.2144e-07,2.3434e-13,-3.9401e-06,0.38002,2
8885,54.233,19.057,0,0.0070297,0,8878.5,57.707,11.111,6.2144e-07,2.3434e-13,-3.9401e-06,0.38002,2
8885,54.233,19.057,0,0.0070297,0,8878.5,57.707,11.111,6.2144e-07,2.3434e-13,-3.9401e-06,0.38002,2
8885,54.233,19.057,0,0.0070297,0,8878.5,57.707,11.111,6.2144e-07,2.3434e-13,-3.9401e-06,0.38002,2
8885,54.233,19.057,0,0.0070297,0,8878.5,57.707,11.111,6.2144e-07,2.3434e-13,-3.9401e-06,0.38002,2
8885,54.233,19.057,0,0.0070297,0,8878.5,57.707,11.111,6.2144e-07,2.3434e-13,-3.9401e-06,0.38002,2
8885,54.233,19.057,0,0.0070297,0,8878.5,57.707,11.111,6.2144e-07,2.3434e-13,-3.9401e-06,0.38002,2
8885.7,54.233,19.057,0,0.0071733,0,8878.5,57.707,11.111,6.2144e-07,2.3434e-13,-3.9401e-06,0.35175,2
8885.7,54.233,19.057,0,0.0071733,0,8879.4,57.707,11.111,3.6541e-07,1.0262e-13,-2.8917e-06,0.38503,2
8885.7,54.233,19.057,0,0.0071733,0,8879.6,57.707,11.111,3.1328e-07,8.1513e-14,-2.6645e-06,0.39404,2
8888.8,54.233,19.058,0,0.0077515,0,8880.1,57.707,11.111,2.2141e-07,4.9356e-14,-2.2485e-06,0.30507,2
8889.1,54.233,19.058,0,0.0078244,0,8880.1,57.707,11.111,2.2141e-07,4.9356e-14,-2.2485e-06,0.29479,2
8889.1,54.233,19.058,0,0.0078244,0,8880.1,57.707,11.111,2.2141e-07,4.9356e-14,-2.2485e-06,0.29479,2
8889.1,54.233,19.058,0,0.0078244,0,8880.1,57.707,11.111,2.2141e-07,4.9356e-14,-2.2485e-06,0.29479,2
8889.1,54.233,19.058,0,0.0078244,0,8880.1,57.707,11.111,2.2141e-07,4.9356e-14,-2.2485e-06,0.29479,2
8889.1,54.233,19.058,0,0.0078244,0,8880.1,57.707,11.111,2.2141e-07,4.9356e-14,-2.2485e-06,0.29479,2
8889.1,54.233,19.058,0,0.0078244,0,8880.1,57.707,11.111,2.2141e-07,4.9356e-14,-2.2485e-06,0.29479,2
8889.1,54.233,19.058,0,0.0078244,0,8880.1,57.707,11.111,2.2141e-07,4.9356e-14,-2.2485e-06,0.29479,2
8889.1,54.233,19.058,0,0.0078244,0,8880.1,57.707,11.111,2.2141e-07,4.9356e-14,-2.2485e-06,0.29479,2
8889.1,54.233,19.058,0,0.0078244,0,8880.1,57.707,11.111,2.2141e-07,4.9356e-14,-2.2485e-06,0.29479,2
8889.1,54.233,19.058,0,0.0078244,0,8880.1,57.707,11.111,2.2141e-07,4.9356e-14,-2.2485e-06,0.29479,2
8889.1,54.233,19.058,0,0.0078244,0,8881,57.707,11.111,8.0724e-08,1.3494e-14,-1.557e-06,0.31973,2
8889.1,54.233,19.058,0,0.0078244,0,8881,57.707,11.111,8.0724e-08,1.3494e-14,-1.557e-06,0.31973,2
8889.1,54.233,19.058,0,0.0078244,0,8881,57.707,11.111,8.0724e-08,1.3494e-14,-1.557e-06,0.31973,2
8889.1,54.233,19.058,0,0.0078244,0,8881,57.707,11.111,8.0724e-08,1.3494e-14,-1.557e-06,0.31973,2
8889.1,54.233,19.058,0,0.0078244,0,8881,57.707,11.111,8.0724e-08,1.3494e-14,-1.557e-06,0.31973,2
8889.1,54.233,19.058,0,0.0078244,0,8881,57.707,11.111,8.0724e-08,1.3494e-14,-1.557e-06,0.31973,2
8889.1,54.233,19.058,0,0.0078244,0,8881,57.707,11.111,8.0724e-08,1.3494e-14,-1.557e-06,0.31973,2
8889.1,54.233,19.058,0,0.0078244,0,8881,57.707,11.111,8.0724e-08,1.3494e-14,-1.557e-06,0.31973,2
8889.1,54.233,19.058,0,0.0078244,0,8881,57.707,11.111,8.0724e-08,1.3494e-14,-1.557e-06,0.31973,2
8889.9,54.233,19.058,0,0.0079695,0,8881,57.707,11.111,8.0724e-08,1.3494e-14,-1.557e-06,0.29813,2
8889.9,54.233,19.058,0,0.0079695,0,8881,57.707,11.111,8.0724e-08,1.3494e-14,-1.557e-06,0.29813,2
8889.9,54.233,19.058,0,0.0079695,0,8881,57.707,11.111,8.0724e-08,1.3494e-14,-1.557e-06,0.29813,2
8891.4,54.233,19.059,0,0.008262,0,8881.4,57.707,11.111,2.8476e-08,4.7249e-15,-1.2738e-06,0.27155,2
8891.4,54.233,19.059,0,0.008262,0,8881.4,57.707,11.111,2.8476e-08,4.7249e-15,-1.2738e-06,0.27155,2
8891.4,54.233,19.059,0,0.008262,0,8881.4,57.707,11.111,2.8476e-08,4.7249e-15,-1.2738e-06,0.27155,2
8893.3,54.233,19.06,0,0.0086288,0,8882.7,57.707,10.991,-7.2763e-08,-4,-6.0836e-07,0.25761,2
8893.3,54.233,19.06,0,0.0086288,0,8883.4,57.707,10.751,-9.9115e-08,-4,-3.8391e-07,0.26873,2
8893.3,54.233,19.06,0,0.0086288,0,8883.4,57.707,10.751,-9.9115e-08,-4,-3.8391e-07,0.26873,2
8893.3,54.233,19.06,0,0.0086288,0,8883.4,57.707,10.751,-9.9115e-08,-4,-3.8391e-07,0.26873,2
8893.3,54.233,19.06,0,0.0086288,0,8883.4,57.707,10.751,-9.9115e-08,-4,-3.8391e-07,0.26873,2
8893.3,54.233,19.06,0,0.0086288,0,8883.4,57.707,10.751,-9.9115e-08,-4,-3.8391e-07,0.26873,2
8893.3,54.233,19.06,0,0.0086288,0,8883.4,57.707,10.751,-9.9115e-08,-4,-3.8391e-07,0.26873,2
8893.3,54.233,19.06,0,0.0086288,0,8883.4,57.707,10.751,-9.9115e-08,-4,-3.8391e-07,0.26873,2
8893.3,54.233,19.06,0,0.0086288,0,8883.4,57.707,10.751,-9.9115e-08,-4,-3.8391e-07,0.26873,2
8894.1,54.233,19.06,0,0.0087765,0,8883.4,57.707,10.751,-9.9115e-08,-4,-3.8391e-07,0.25245,2
8894.1,54.233,19.06,0,0.0087765,0,8883.8,57.707,10.591,-1.1029e-07,-4,-2.634e-07,0.25936,2
8894.1,54.233,19.06,0,0.0087765,0,8883.8,57.707,10.591,-1.1029e-07,-4,-2.634e-07,0.25936,2
8894.1,54.233,19.06,0,0.0087765,0,8883.8,57.707,10.591,-1.1029e-07,-4,-2.634e-07,0.25936,2
8894.1,54.233,19.06,0,0.0087765,0,8883.8,57.707,10.591,-1.1029e-07,-4,-2.634e-07,0.25936,2
8894.1,54.233,19.06,0,0.0087765,0,8883.8,57.707,10.591,-1.1029e-07,-4,-2.634e-07,0.25936,2
8894.1,54.233,19.06,0,0.0087765,0,8883.8,57.707,10.591,-1.1029e-07,-4,-2.634e-07,0.25936,2
8894.1,54.233,19.06,0,0.0087765,0,8883.8,57.707,10.591,-1.1029e-07,-4,-2.634e-07,0.25936,2
8894.9,54.233,19.061,0,0.0089233,0,8883.8,57.707,10.591,-1.1029e-07,-4,-2.634e-07,0.24397,2
8894.9,54.233,19.061,0,0.0089233,0,8884.4,57.707,10.351,-1.1953e-07,-4,-1.1986e-07,0.25362,2
8896,54.233,19.061,0,0.0091454,0,8884.4,57.707,10.351,-1.1953e-07,-4,-1.1986e-07,0.2318,2
8896.8,54.233,19.062,0,0.0092924,0,8884.9,57.707,10.191,-1.2172e-07,-4,-4.5558e-08,0.22405,2
8896.8,54.233,19.062,0,0.0092924,0,8885.5,57.707,9.9511,-1.2051e-07,-4,3.9161e-08,0.23185,2
8896.8,54.233,19.062,0,0.0092924,0,8885.5,57.707,9.9511,-1.2051e-07,-4,3.9161e-08,0.23185,2
8896.8,54.233,19.062,0,0.0092924,0,8885.7,57.707,9.8711,-1.1917e-07,-4,6.1238e-08,0.23455,2
8896.8,54.233,19.062,0,0.0092924,0,8885.7,57.707,9.8711,-1.1917e-07,-4,6.1238e-08,0.23455,2
8896.8,54.233,19.062,0,0.0092924,0,8885.7,57.707,9.8711,-1.1917e-07,-4,6.1238e-08,0.23455,2
8896.8,54.233,19.062,0,0.0092924,0,8885.7,57.707,9.8711,-1.1917e-07,-4,6.1238e-08,0.23455,2
8896.8,54.233,19.062,0,0.0092924,0,8885.7,57.707,9.8711,-1.1917e-07,-4,6.1238e-08,0.23455,2
8896.8,54.233,19.062,0,0.0092924,0,8885.7,57.707,9.8711,-1.1917e-07,-4,6.1238e-08,0.23455,2
8896.8,54.233,19.062,0,0.0092924,0,8885.7,57.707,9.8711,-1.1917e-07,-4,6.1238e-08,0.23455,2
8898.3,54.233,19.062,0,0.0095885,0,8885.7,57.707,9.8711,-1.1917e-07,-4,6.1238e-08,0.20937,2
8898.3,54.233,19.062,0,0.0095885,0,8885.7,57.707,9.8711,-1.1917e-07,-4,6.1238e-08,0.20937,2
8898.3,54.233,19.062,0,0.0095885,0,8885.7,57.707,9.8711,-1.1917e-07,-4,6.1238e-08,0.20937,2
8898.3,54.233,19.062,0,0.0095885,0,8885.7,57.707,9.8711,-1.1917e-07,-4,6.1238e-08,0.20937,2
8898.3,54.233,19.062,0,0.0095885,0,8885.7,57.707,9.8711,-1.1917e-07,-4,6.1238e-08,0.20937,2
8898.3,54.233,19.062,0,0.0095885,0,8885.7,57.707,9.8711,-1.1917e-07,-4,6.1238e-08,0.20937,2
8898.3,54.233,19.062,0,0.0095885,0,8885.7,57.707,9.8711,-1.1917e-07,-4,6.1238e-08,0.20937,2
8898.3,54.233,19.062,0,0.0095885,0,8885.7,57.707,9.8711,-1.1917e-07,-4,6.1238e-08,0.20937,2
8898.3,54.233,19.062,0,0.0095885,0,8885.7,57.707,9.8711,-1.1917e-07,-4,6.1238e-08,0.20937,2
8898.3,54.233,19.062,0,0.0095885,0,8886.1,57.707,9.7111,-1.1541e-07,-4,9.7463e-08,0.21369,2
8898.3,54.233,19.062,0,0.0095885,0,8886.1,57.707,9.7111,-1.1541e-07,-4,9.7463e-08,0.21369,2
8898.3,54.233,19.062,0,0.0095885,0,8886.1,57.707,9.7111,-1.1541e-07,-4,9.7463e-08,0.21369,2
8898.3,54.233,19.062,0,0.0095885,0,8886.1,57.707,9.7111,-1.1541e-07,-4,9.7463e-08,0.21369,2
8900.2,54.233,19.063,0,0.0099609,0,8886.2,57.707,9.6311,-1.1309e-07,-4,1.1201e-07,0.18913,2
8900.2,54.233,19.063,0,0.0099609,0,8886.2,57.707,9.6311,-1.1309e-07,-4,1.1201e-07,0.18913,2
8900.2,54.233,19.063,0,0.0099609,0,8886.2,57.707,9.6311,-1.1309e-07,-4,1.1201e-07,0.18913,2
8900.2,54.233,19.063,0,0.0099609,0,8886.2,57.707,9.6311,-1.1309e-07,-4,1.1201e-07,0.18913,2
8901.3,54.233,19.064,0,0.010185,0,8886.2,57.707,9.6311,-1.1309e-07,-4,1.1201e-07,0.1759,2
8901.3,54.233,19.064,0,0.010185,0,8886.2,57.707,9.6311,-1.1309e-07,-4,1.1201e-07,0.1759,2
8901.3,54.233,19.064,0,0.010185,0,8887.6,57.707,9.0711,-9.2017e-08,-4,1.6349e-07,0.18608,2
8902.5,54.233,19.065,0,0.010408,0,8887.6,57.707,9.0711,-9.2017e-08,-4,1.6349e-07,0.17292,2
8902.5,54.233,19.065,0,0.010408,0,8887.6,57.707,9.0711,-9.2017e-08,-4,1.6349e-07,0.17292,2
8902.5,54.233,19.065,0,0.010408,0,8887.6,57.707,9.0711,-9.2017e-08,-4,1.6349e-07,0.17292,2
8902.5,54.233,19.065,0,0.010408,0,8887.6,57.707,9.0711,-9.2017e-08,-4,1.6349e-07,0.17292,2
8902.5,54.233,19.065,0,0.010408,0,8887.6,57.707,9.0711,-9.2017e-08,-4,1.6349e-07,0.17292,2
8902.5,54.233,19.065,0,0.010408,0,8887.6,57.707,9.0711,-9.2017e-08,-4,1.6349e-07,0.17292,2
8903.3,54.233,19.065,0,0.010557,0,8888.1,57.707,8.8311,-8.1968e-08,-4,1.664e-07,0.16856,2
8903.6,54.233,19.065,0,0.010631,0,8888.1,57.707,8.8311,-8.1968e-08,-4,1.664e-07,0.16471,2
8903.6,54.233,19.065,0,0.010631,0,8888.6,57.707,8.5911,-7.2073e-08,-4,1.6222e-07,0.16805,2
8903.6,54.233,19.065,0,0.010631,0,8888.6,57.707,8.5911,-7.2073e-08,-4,1.6222e-07,0.16805,2
8903.6,54.233,19.065,0,0.010631,0,8888.6,57.707,8.5911,-7.2073e-08,-4,1.6222e-07,0.16805,2
8903.6,54.233,19.065,0,0.010631,0,8888.6,57.707,8.5911,-7.2073e-08,-4,1.6222e-07,0.16805,2
8903.6,54.233,19.065,0,0.010631,0,8889.1,57.707,8.3511,-6.2654e-08,-4,1.5324e-07,0.17148,2
8903.6,54.233,19.065,0,0.010631,0,8889.1,57.707,8.3511,-6.2654e-08,-4,1.5324e-07,0.17148,2
8903.6,54.233,19.065,0,0.010631,0,8889.1,57.707,8.3511,-6.2654e-08,-4,1.5324e-07,0.17148,2
8903.6,54.233,19.065,0,0.010631,0,8889.1,57.707,8.3511,-6.2654e-08,-4,1.5324e-07,0.17148,2
8903.6,54.233,19.065,0,0.010631,0,8889.1,57.707,8.3511,-6.2654e-08,-4,1.5324e-07,0.17148,2
8903.6,54.233,19.065,0,0.010631,0,8889.1,57.707,8.3511,-6.2654e-08,-4,1.5324e-07,0.17148,2
8903.6,54.233,19.065,0,0.010631,0,8889.1,57.707,8.3511,-6.2654e-08,-4,1.5324e-07,0.17148,2
8903.6,54.233,19.065,0,0.010631,0,8889.1,57.707,8.3511,-6.2654e-08,-4,1.5324e-07,0.17148,2
8903.6,54.233,19.065,0,0.010631,0,8889.1,57.707,8.3511,-6.2654e-08,-4,1.5324e-07,0.17148,2
8903.6,54.233,19.065,0,0.010631,0,8889.1,57.707,8.3511,-6.2654e-08,-4,1.5324e-07,0.17148,2
8905.5,54.233,19.066,0,0.011006,0,8889.1,57.707,8.3511,-6.2654e-08,-4,1.5324e-07,0.15285,2
8905.5,54.233,19.066,0,0.011006,0,8889.1,57.707,8.3511,-6.2654e-08,-4,1.5324e-07,0.15285,2
8905.5,54.233,19.066,0,0.011006,0,8889.1,57.707,8.3511,-6.2654e-08,-4,1.5324e-07,0.15285,2
8905.5,54.233,19.066,0,0.011006,0,8889.1,57.707,8.3511,-6.2654e-08,-4,1.5324e-07,0.15285,2
8906.3,54.233,19.067,0,0.011156,0,8889.5,57.707,8.1911,-5.6746e-08,-4,1.4548e-07,0.14799,2
8906.3,54.233,19.067,0,0.011156,0,8889.5,57.707,8.1911,-5.6746e-08,-4,1.4548e-07,0.14799,2
8907.1,54.233,19.067,0,0.011305,0,8889.5,57.707,8.1911,-5.6746e-08,-4,1.4548e-07,0.14193,2
8907.1,54.233,19.067,0,0.011305,0,8890.4,57.707,7.7111,-4.1123e-08,-4,1.187e-07,0.14612,2
8907.1,54.233,19.067,0,0.011305,0,8890.4,57.707,7.7111,-4.1123e-08,-4,1.187e-07,0.14612,2
8907.1,54.233,19.067,0,0.011305,0,8890.7,57.707,7.5511,-3.6686e-08,-4,1.0871e-07,0.14753,2
8907.1,54.233,19.067,0,0.011305,0,8890.7,57.707,7.5511,-3.6686e-08,-4,1.0871e-07,0.14753,2
8907.1,54.233,19.067,0,0.011305,0,8890.7,57.707,7.5511,-3.6686e-08,-4,1.0871e-07,0.14753,2
8907.1,54.233,19.067,0,0.011305,0,8890.7,57.707,7.5511,-3.6686e-08,-4,1.0871e-07,0.14753,2
8907.1,54.233,19.067,0,0.011305,0,8890.7,57.707,7.5511,-3.6686e-08,-4,1.0871e-07,0.14753,2
8907.1,54.233,19.067,0,0.011305,0,8890.7,57.707,7.5511,-3.6686e-08,-4,1.0871e-07,0.14753,2
8907.1,54.233,19.067,0,0.011305,0,8890.7,57.707,7.5511,-3.6686e-08,-4,1.0871e-07,0.14753,2
8909.4,54.233,19.069,0,0.011754,0,8890.7,57.707,7.5511,-3.6686e-08,-4,1.0871e-07,0.13031,2
8909.4,54.233,19.069,0,0.011754,0,8890.7,57.707,7.5511,-3.6686e-08,-4,1.0871e-07,0.13031,2
8909.4,54.233,19.069,0,0.011754,0,8890.7,57.707,7.5511,-3.6686e-08,-4,1.0871e-07,0.13031,2
8909.4,54.233,19.069,0,0.011754,0,8890.7,57.707,7.5511,-3.6686e-08,-4,1.0871e-07,0.13031,2
8909.4,54.233,19.069,0,0.011754,0,8890.7,57.707,7.5511,-3.6686e-08,-4,1.0871e-07,0.13031,2
8909.4,54.233,19.069,0,0.011754,0,8890.7,57.707,7.5511,-3.6686e-08,-4,1.0871e-07,0.13031,2
8909.4,54.233,19.069,0,0.011754,0,8890.7,57.707,7.5511,-3.6686e-08,-4,1.0871e-07,0.13031,2
8909.4,54.233,19.069,0,0.011754,0,8890.7,57.707,7.5511,-3.6686e-08,-4,1.0871e-07,0.13031,2
8909.4,54.233,19.069,0,0.011754,0,8890.7,57.707,7.5511,-3.6686e-08,-4,1.0871e-07,0.13031,2
8909.4,54.233,19.069,0,0.011754,0,8891,57.707,7.3911,-3.2651e-08,-4,9.8746e-08,0.1313,2
8909.4,54.233,19.069,0,0.011754,0,8891,57.707,7.3911,-3.2651e-08,-4,9.8746e-08,0.1313,2
8909.4,54.233,19.069,0,0.011754,0,8891,57.707,7.3911,-3.2651e-08,-4,9.8746e-08,0.1313,2
8909.4,54.233,19.069,0,0.011754,0,8891,57.707,7.3911,-3.2651e-08,-4,9.8746e-08,0.1313,2
8909.4,54.233,19.069,0,0.011754,0,8891.2,57.707,7.3111,-3.0781e-08,-4,9.387e-08,0.13179,2
8911.3,54.233,19.07,0,0.01213,0,8891.2,57.707,7.3111,-3.0781e-08,-4,9.387e-08,0.11981,2
8912,54.233,19.07,0,0.01228,0,8891.2,57.707,7.3111,-3.0781e-08,-4,9.387e-08,0.11559,2
8912,54.233,19.07,0,0.01228,0,8892.1,57.707,6.7511,-2.02e-08,-4,6.3621e-08,0.11779,2
8913.6,54.233,19.071,0,0.01258,0,8892.3,57.707,6.6711,-1.9008e-08,-4,5.9966e-08,0.10993,2
8913.6,54.233,19.071,0,0.01258,0,8892.5,57.707,6.5111,-1.6827e-08,-4,5.3174e-08,0.11039,2
8913.6,54.233,19.071,0,0.01258,0,8892.5,57.707,6.5111,-1.6827e-08,-4,5.3174e-08,0.11039,2
8913.6,54.233,19.071,0,0.01258,0,8892.5,57.707,6.5111,-1.6827e-08,-4,5.3174e-08,0.11039,2
8913.6,54.233,19.071,0,0.01258,0,8892.7,57.707,6.4311,-1.5832e-08,-4,5.0033e-08,0.11061,2
8913.6,54.233,19.071,0,0.01258,0,8892.7,57.707,6.4311,-1.5832e-08,-4,5.0033e-08,0.11061,2
8913.6,54.233,19.071,0,0.01258,0,8892.7,57.707,6.4311,-1.5832e-08,-4,5.0033e-08,0.11061,2
8913.6,54.233,19.071,0,0.01258,0,8892.7,57.707,6.4311,-1.5832e-08,-4,5.0033e-08,0.11061,2
8913.6,54.233,19.071,0,0.01258,0,8892.7,57.707,6.4311,-1.5832e-08,-4,5.0033e-08,0.11061,2
8913.6,54.233,19.071,0,0.01258,0,8892.7,57.707,6.4311,-1.5832e-08,-4,5.0033e-08,0.11061,2
8913.6,54.233,19.071,0,0.01258,0,8892.7,57.707,6.4311,-1.5832e-08,-4,5.0033e-08,0.11061,2
8913.6,54.233,19.071,0,0.01258,0,8892.7,57.707,6.4311,-1.5832e-08,-4,5.0033e-08,0.11061,2
8913.6,54.233,19.071,0,0.01258,0,8892.7,57.707,6.4311,-1.5832e-08,-4,5.0033e-08,0.11061,2
8914.7,54.233,19.072,0,0.012805,0,8892.7,57.707,6.4311,-1.5832e-08,-4,5.0033e-08,0.10505,2
8914.7,54.233,19.072,0,0.012805,0,8892.7,57.707,6.4311,-1.5832e-08,-4,5.0033e-08,0.10505,2
8914.7,54.233,19.072,0,0.012805,0,8892.7,57.707,6.4311,-1.5832e-08,-4,5.0033e-08,0.10505,2
8914.7,54.233,19.072,0,0.012805,0,8892.7,57.707,6.4311,-1.5832e-08,-4,5.0033e-08,0.10505,2
8914.7,54.233,19.072,0,0.012805,0,8892.7,57.707,6.4311,-1.5832e-08,-4,5.0033e-08,0.10505,2
8915.1,54.233,19.072,0,0.01288,0,8892.7,57.707,6.4311,-1.5832e-08,-4,5.0033e-08,0.10332,2
8915.1,54.233,19.072,0,0.01288,0,8892.7,57.707,6.4311,-1.5832e-08,-4,5.0033e-08,0.10332,2
8915.1,54.233,19.072,0,0.01288,0,8892.7,57.707,6.4311,-1.5832e-08,-4,5.0033e-08,0.10332,2
8916.2,54.233,19.073,0,0.013105,0,8893,57.707,6.1911,-1.3191e-08,-4,4.1575e-08,0.098826,2
8916.2,54.233,19.073,0,0.013105,0,8893,57.707,6.1911,-1.3191e-08,-4,4.1575e-08,0.098826,2
8916.2,54.233,19.073,0,0.013105,0,8893.5,57.707,5.8711,-1.0356e-08,-4,3.2352e-08,0.099283,2
8917.4,54.233,19.074,0,0.013331,0,8893.5,57.707,5.8711,-1.0356e-08,-4,3.2352e-08,0.094647,2
8918.1,54.233,19.074,0,0.013481,0,8893.8,57.707,5.7111,-9.1851e-09,-4,2.8512e-08,0.091906,2
8918.1,54.233,19.074,0,0.013481,0,8894,57.707,5.5511,-8.1531e-09,-4,2.5122e-08,0.09201,2
8918.1,54.233,19.074,0,0.013481,0,8894,57.707,5.5511,-8.1531e-09,-4,2.5122e-08,0.09201,2
8918.1,54.233,19.074,0,0.013481,0,8894.1,57.707,5.4711,-7.684e-09,-4,2.3581e-08,0.092056,2
8918.1,54.233,19.074,0,0.013481,0,8894.1,57.707,5.4711,-7.684e-09,-4,2.3581e-08,0.092056,2
8918.1,54.233,19.074,0,0.013481,0,8894.1,57.707,5.4711,-7.684e-09,-4,2.3581e-08,0.092056,2
8918.1,54.233,19.074,0,0.013481,0,8894.1,57.707,5.4711,-7.684e-09,-4,2.3581e-08,0.092056,2
8918.1,54.233,19.074,0,0.013481,0,8894.1,57.707,5.4711,-7.684e-09,-4,2.3581e-08,0.092056,2
8918.1,54.233,19.074,0,0.013481,0,8894.1,57.707,5.4711,-7.684e-09,-4,2.3581e-08,0.092056,2
8919.3,54.233,19.075,0,0.013706,0,8894.1,57.707,5.4711,-7.684e-09,-4,2.3581e-08,0.087973,2
8919.3,54.233,19.075,0,0.013706,0,8894.1,57.707,5.4711,-7.684e-09,-4,2.3581e-08,0.087973,2
8919.3,54.233,19.075,0,0.013706,0,8894.1,57.707,5.4711,-7.684e-09,-4,2.3581e-08,0.087973,2
8919.3,54.233,19.075,0,0.013706,0,8894.1,57.707,5.4711,-7.684e-09,-4,2.3581e-08,0.087973,2
8919.3,54.233,19.075,0,0.013706,0,8894.1,57.707,5.4711,-7.684e-09,-4,2.3581e-08,0.087973,2
8919.3,54.233,19.075,0,0.013706,0,8894.1,57.707,5.4711,-7.684e-09,-4,2.3581e-08,0.087973,2
8919.3,54.233,19.075,0,0.013706,0,8894.1,57.707,5.4711,-7.684e-09,-4,2.3581e-08,0.087973,2
8919.3,54.233,19.075,0,0.013706,0,8894.1,57.707,5.4711,-7.684e-09,-4,2.3581e-08,0.087973,2
8919.3,54.233,19.075,0,0.013706,0,8894.1,57.707,5.4711,-7.684e-09,-4,2.3581e-08,0.087973,2
8919.3,54.233,19.075,0,0.013706,0,8894.1,57.707,5.4711,-7.684e-09,-4,2.3581e-08,0.087973,2
8919.3,54.233,19.075,0,0.013706,0,8894.3,57.707,5.3111,-6.8302e-09,-4,2.0779e-08,0.088014,2
8919.3,54.233,19.075,0,0.013706,0,8894.3,57.707,5.3111,-6.8302e-09,-4,2.0779e-08,0.088014,2
8920,54.233,19.076,0,0.013856,0,8894.3,57.707,5.3111,-6.8302e-09,-4,2.0779e-08,0.085463,2
8920,54.233,19.076,0,0.013856,0,8894.6,57.707,5.0711,-5.7351e-09,-4,1.72e-08,0.085465,2
8921.2,54.233,19.077,0,0.01408,0,8894.6,57.707,5.0711,-5.7351e-09,-4,1.72e-08,0.08186,2
8922.7,54.233,19.078,0,0.014381,0,8895,57.707,4.7511,-4.5607e-09,-4,1.3398e-08,0.077339,2
8922.7,54.233,19.078,0,0.014381,0,8895.2,57.707,4.5911,-4.0739e-09,-4,1.1841e-08,0.077238,2
8922.7,54.233,19.078,0,0.014381,0,8895.3,57.707,4.5111,-3.852e-09,-4,1.1136e-08,0.077183,2
8922.7,54.233,19.078,0,0.014381,0,8895.3,57.707,4.5111,-3.852e-09,-4,1.1136e-08,0.077183,2
8922.7,54.233,19.078,0,0.014381,0,8895.3,57.707,4.5111,-3.852e-09,-4,1.1136e-08,0.077183,2
8922.7,54.233,19.078,0,0.014381,0,8895.3,57.707,4.5111,-3.852e-09,-4,1.1136e-08,0.077183,2
8922.7,54.233,19.078,0,0.014381,0,8895.4,57.707,4.4311,-3.6433e-09,-4,1.0476e-08,0.077124,2
8922.7,54.233,19.078,0,0.014381,0,8895.4,57.707,4.4311,-3.6433e-09,-4,1.0476e-08,0.077124,2
8922.7,54.233,19.078,0,0.014381,0,8895.4,57.707,4.4311,-3.6433e-09,-4,1.0476e-08,0.077124,2
8922.7,54.233,19.078,0,0.014381,0,8895.4,57.707,4.4311,-3.6433e-09,-4,1.0476e-08,0.077124,2
