2.6207,-1.0997,0.1071,0.206,-0.6799,0.1088,0.662,0.621,-0.8786,-0.9337,-0.5695,0.0292,-0.7956,1.0716,-0.6039,0.0186
2.5934,-1.1147,0.1064,0.2004,-0.5587,0.0567,0.6871,0.6229,-0.8817,-0.9293,-0.5659,0.0295,-0.7872,1.0594,-0.5985,0.0271
2.5934,-1.1147,0.1064,0.2004,-0.5587,0.0567,0.6871,0.6229,-0.8817,-0.9293,-0.5659,0.0295,-0.7872,1.0594,-0.5985,0.0271
2.4939,-1.0795,0.1075,0.197,-0.4908,0.0327,0.7195,0.6312,-0.8904,-0.9362,-0.5603,0.0281,-0.7943,1.0481,-0.5982,0.0374
2.4939,-1.0795,0.1075,0.197,-0.4908,0.0327,0.7195,0.6312,-0.8904,-0.9362,-0.5603,0.0281,-0.7943,1.0481,-0.5982,0.0374
2.4939,-1.0795,0.1158,0.1935,-0.4939,0.0618,0.7498,0.6385,-0.8901,-0.9497,-0.5536,0.0267,-0.8098,1.0489,-0.5928,0.0459
2.4939,-1.0795,0.1158,0.1935,-0.4939,0.0618,0.7498,0.6385,-0.8901,-0.9497,-0.5536,0.0267,-0.8098,1.0489,-0.5928,0.0459
2.5708,-1.0821,0.124,0.1918,-0.5595,0.1318,0.7746,0.6495,-0.8782,-0.9539,-0.5458,0.0277,-0.7999,1.0455,-0.5756,0.0481
2.5708,-1.0821,0.124,0.1918,-0.5595,0.1318,0.7746,0.6495,-0.8782,-0.9539,-0.5458,0.0277,-0.7999,1.0455,-0.5756,0.0481
2.7712,-1.1529,0.1331,0.1921,-0.5854,0.1691,0.8099,0.6496,-0.8574,-0.9579,-0.5388,0.0326,-0.7985,1.0542,-0.5503,0.0496
2.7712,-1.1529,0.1331,0.1921,-0.5854,0.1691,0.8099,0.6496,-0.8574,-0.9579,-0.5388,0.0326,-0.7985,1.0542,-0.5503,0.0496
2.7712,-1.1529,0.1331,0.1921,-0.5854,0.1691,0.8099,0.6496,-0.8574,-0.9579,-0.5388,0.0326,-0.7985,1.0542,-0.5503,0.0496
2.8039,-1.0903,0.1422,0.1924,-0.6027,0.1941,0.8493,0.6484,-0.8457,-0.9487,-0.5318,0.0365,-0.7829,1.0533,-0.5261,0.0473
2.8039,-1.0903,0.1422,0.1924,-0.6027,0.1941,0.8493,0.6484,-0.8457,-0.9487,-0.5318,0.0365,-0.7829,1.0533,-0.5261,0.0473
2.8039,-1.0903,0.1422,0.1924,-0.6027,0.1941,0.8493,0.6484,-0.8457,-0.9487,-0.5318,0.0365,-0.7829,1.0533,-0.5261,0.0473
2.6389,-0.9073,0.1493,0.194,-0.6393,0.1976,0.8822,0.6567,-0.8134,-0.9301,-0.5186,0.0418,-0.7276,1.0384,-0.4995,0.0526
2.6389,-0.9073,0.1493,0.194,-0.6393,0.1976,0.8822,0.6567,-0.8134,-0.9301,-0.5186,0.0418,-0.7276,1.0384,-0.4995,0.0526
2.6116,-0.9227,0.155,0.1908,-0.622,0.1727,0.8817,0.6659,-0.8046,-0.9232,-0.5138,0.0433,-0.7219,1.041,-0.4964,0.0536
2.6116,-0.9227,0.155,0.1908,-0.622,0.1727,0.8817,0.6659,-0.8046,-0.9232,-0.5138,0.0433,-0.7219,1.041,-0.4964,0.0536
2.6116,-0.9227,0.155,0.1908,-0.622,0.1727,0.8817,0.6659,-0.8046,-0.9232,-0.5138,0.0433,-0.7219,1.041,-0.4964,0.0536
2.6574,-0.9888,0.1597,0.1874,-0.636,0.1682,0.8801,0.6683,-0.7868,-0.9228,-0.5101,0.0436,-0.7319,1.0445,-0.4964,0.0536
2.6574,-0.9888,0.1597,0.1874,-0.636,0.1682,0.8801,0.6683,-0.7868,-0.9228,-0.5101,0.0436,-0.7319,1.0445,-0.4964,0.0536
2.6574,-0.9888,0.1597,0.1874,-0.636,0.1682,0.8801,0.6683,-0.7868,-0.9228,-0.5101,0.0436,-0.7319,1.0445,-0.4964,0.0536
2.7306,-1.0396,0.1596,0.1892,-0.6134,0.1602,0.8778,0.6673,-0.7539,-0.9244,-0.508,0.0434,-0.7772,1.0559,-0.4957,0.047
2.7306,-1.0396,0.1596,0.1892,-0.6134,0.1602,0.8778,0.6673,-0.7539,-0.9244,-0.508,0.0434,-0.7772,1.0559,-0.4957,0.047
2.6849,-0.9736,0.1585,0.1908,-0.622,0.1727,0.8755,0.6663,-0.7602,-0.9087,-0.5081,0.0445,-0.7985,1.0542,-0.4849,0.037
2.6849,-0.9736,0.1585,0.1908,-0.622,0.1727,0.8755,0.6663,-0.7602,-0.9087,-0.5081,0.0445,-0.7985,1.0542,-0.4849,0.037
2.6619,-0.9405,0.1564,0.1921,-0.5854,0.1691,0.8749,0.6628,-0.7696,-0.8886,-0.507,0.0457,-0.814,1.0551,-0.4861,0.0332
2.6619,-0.9405,0.1554,0.1919,-0.5173,0.1451,0.8727,0.6618,-0.7788,-0.8753,-0.5046,0.0469,-0.8056,1.0428,-0.498,0.0395
2.6619,-0.9405,0.1554,0.1919,-0.5173,0.1451,0.8727,0.6618,-0.7788,-0.8753,-0.5046,0.0469,-0.8056,1.0428,-0.498,0.0395
2.6619,-0.9405,0.1554,0.1919,-0.5173,0.1451,0.8727,0.6618,-0.7788,-0.8753,-0.5046,0.0469,-0.8056,1.0428,-0.498,0.0395
2.6116,-0.9227,0.1534,0.1914,-0.5032,0.1495,0.872,0.6584,-0.7849,-0.8732,-0.5025,0.0467,-0.8183,1.0289,-0.5123,0.0383
2.6116,-0.9227,0.1534,0.1914,-0.5032,0.1495,0.872,0.6584,-0.7849,-0.8732,-0.5025,0.0467,-0.8183,1.0289,-0.5123,0.0383
2.6116,-0.9227,0.1534,0.1914,-0.5032,0.1495,0.872,0.6584,-0.7849,-0.8732,-0.5025,0.0467,-0.8183,1.0289,-0.5123,0.0383
2.6849,-0.9736,0.1519,0.1919,-0.5433,0.1825,0.8658,0.6588,-0.7818,-0.8776,-0.5011,0.0457,-0.8239,1.0263,-0.5284,0.0398
2.6849,-0.9736,0.1519,0.1919,-0.5433,0.1825,0.8658,0.6588,-0.7818,-0.8776,-0.5011,0.0457,-0.8239,1.0263,-0.5284,0.0398
2.6849,-0.9736,0.1519,0.1919,-0.5433,0.1825,0.8658,0.6588,-0.7818,-0.8776,-0.5011,0.0457,-0.8239,1.0263,-0.5284,0.0398
2.8595,-1.0603,0.1522,0.1965,-0.552,0.195,0.8708,0.6516,-0.7636,-0.8908,-0.5068,0.0482,-0.8493,1.0307,-0.5526,0.0421
2.8595,-1.0603,0.1522,0.1965,-0.552,0.195,0.8708,0.6516,-0.7636,-0.8908,-0.5068,0.0482,-0.8493,1.0307,-0.5526,0.0421
2.8137,-0.9941,0.15,0.1997,-0.566,0.1905,0.8758,0.6445,-0.7575,-0.8929,-0.5111,0.0498,-0.8451,1.0246,-0.5518,0.0356
2.7124,-0.9583,0.1479,0.201,-0.5714,0.1736,0.8673,0.6438,-0.7575,-0.8929,-0.5132,0.05,-0.8212,1.0115,-0.5599,0.0364
2.7124,-0.9583,0.1479,0.201,-0.5714,0.1736,0.8673,0.6438,-0.7575,-0.8929,-0.5132,0.05,-0.8212,1.0115,-0.5599,0.0364
2.5027,-0.9839,0.1439,0.2,-0.6413,0.1513,0.8425,0.6454,-0.7606,-0.8884,-0.5153,0.0502,-0.8212,1.0115,-0.5729,0.0389
2.5027,-0.9839,0.1439,0.2,-0.6413,0.1513,0.8425,0.6454,-0.7606,-0.8884,-0.5153,0.0502,-0.8212,1.0115,-0.5729,0.0389
2.4486,-1.0143,0.143,0.198,-0.6778,0.1548,0.8279,0.6451,-0.7456,-0.8904,-0.5169,0.0497,-0.8395,1.0272,-0.584,0.0386
2.4486,-1.0143,0.143,0.198,-0.6778,0.1548,0.8279,0.6451,-0.7456,-0.8904,-0.5169,0.0497,-0.8395,1.0272,-0.584,0.0386
2.4486,-1.0143,0.143,0.198,-0.6778,0.1548,0.8279,0.6451,-0.7456,-0.8904,-0.5169,0.0497,-0.8395,1.0272,-0.584,0.0386
2.4939,-1.0795,0.1394,0.1981,-0.6917,0.1504,0.8133,0.6449,-0.7277,-0.89,-0.5186,0.0503,-0.8536,1.0368,-0.5852,0.0349
2.4939,-1.0795,0.1394,0.1981,-0.6917,0.1504,0.8133,0.6449,-0.7277,-0.89,-0.5186,0.0503,-0.8536,1.0368,-0.5852,0.0349
2.4939,-1.0795,0.1394,0.1981,-0.6917,0.1504,0.8133,0.6449,-0.7277,-0.89,-0.5186,0.0503,-0.8536,1.0368,-0.5852,0.0349
2.539,-1.1445,0.1333,0.1985,-0.7142,0.1583,0.7986,0.6446,-0.7157,-0.8875,-0.5211,0.0501,-0.8789,1.0411,-0.5794,0.0266
2.539,-1.1445,0.1333,0.1985,-0.7142,0.1583,0.7986,0.6446,-0.7157,-0.8875,-0.5211,0.0501,-0.8789,1.0411,-0.5794,0.0266
2.539,-1.1445,0.1333,0.1985,-0.7142,0.1583,0.7986,0.6446,-0.7157,-0.8875,-0.5211,0.0501,-0.8789,1.0411,-0.5794,0.0266
2.5662,-1.1296,0.1222,0.1977,-0.6155,0.1141,0.7717,0.6451,-0.7312,-0.8652,-0.5279,0.0478,-0.9112,1.0342,-0.6024,0.0326
2.5662,-1.1296,0.1222,0.1977,-0.6155,0.1141,0.7717,0.6451,-0.7312,-0.8652,-0.5279,0.0478,-0.9112,1.0342,-0.6024,0.0326
2.5165,-1.1121,0.1172,0.1966,-0.6467,0.1345,0.7549,0.6439,-0.74,-0.8722,-0.5317,0.0438,-0.9336,1.0237,-0.6314,0.0366
2.5165,-1.1121,0.1172,0.1966,-0.6467,0.1345,0.7549,0.6439,-0.74,-0.8722,-0.5317,0.0438,-0.9336,1.0237,-0.6314,0.0366
2.6434,-1.1323,0.1141,0.1959,-0.6639,0.1593,0.7403,0.6436,-0.7459,-0.8768,-0.5376,0.0412,-0.9588,1.0281,-0.6474,0.0382
2.6434,-1.1323,0.1141,0.1959,-0.6639,0.1593,0.7403,0.6436,-0.7459,-0.8768,-0.5376,0.0412,-0.9588,1.0281,-0.6474,0.0382
2.7938,-1.1855,0.108,0.1962,-0.7089,0.1752,0.7252,0.64,-0.7489,-0.8792,-0.5464,0.0416,-0.9644,1.0255,-0.6634,0.0397
2.7938,-1.1855,0.108,0.1962,-0.7089,0.1752,0.7252,0.64,-0.7489,-0.8792,-0.5464,0.0416,-0.9644,1.0255,-0.6634,0.0397
2.8494,-1.1558,0.1049,0.1973,-0.7539,0.1911,0.7201,0.6346,-0.7518,-0.8815,-0.5546,0.0414,-0.9798,1.0263,-0.6745,0.0394
2.8494,-1.1558,0.1049,0.1973,-0.7539,0.1911,0.7201,0.6346,-0.7518,-0.8815,-0.5546,0.0414,-0.9798,1.0263,-0.6745,0.0394
2.8494,-1.1558,0.1049,0.1973,-0.7539,0.1911,0.7201,0.6346,-0.7518,-0.8815,-0.5546,0.0414,-0.9798,1.0263,-0.6745,0.0394
2.8494,-1.1558,0.1049,0.1973,-0.7539,0.1911,0.7201,0.6346,-0.7518,-0.8815,-0.5546,0.0414,-0.9798,1.0263,-0.6745,0.0394
2.6345,-0.9558,0.0989,0.1977,-0.7644,0.1573,0.6983,0.6279,-0.767,-0.8728,-0.5684,0.0389,-0.9406,1.0125,-0.6866,0.0354
2.5027,-0.9839,0.0969,0.1955,-0.811,0.1272,0.6732,0.626,-0.7699,-0.8751,-0.5748,0.0358,-0.9462,1.0099,-0.7007,0.0341
2.5027,-0.9839,0.0969,0.1955,-0.811,0.1272,0.6732,0.626,-0.7699,-0.8751,-0.5748,0.0358,-0.9462,1.0099,-0.7007,0.0341
2.5027,-0.9839,0.0969,0.1955,-0.811,0.1272,0.6732,0.626,-0.7699,-0.8751,-0.5748,0.0358,-0.9462,1.0099,-0.7007,0.0341
2.4486,-1.0143,0.095,0.1932,-0.8385,0.1183,0.6526,0.6261,-0.7668,-0.8796,-0.5796,0.0344,-0.9742,1.0289,-0.7147,0.0329
2.4486,-1.0143,0.095,0.1932,-0.8385,0.1183,0.6526,0.6261,-0.7668,-0.8796,-0.5796,0.0344,-0.9742,1.0289,-0.7147,0.0329
2.4217,-1.0294,0.0905,0.1931,-0.8385,0.1183,0.6337,0.6238,-0.7517,-0.8883,-0.585,0.0347,-0.9938,1.0358,-0.7287,0.0316
2.4217,-1.0294,0.0905,0.1931,-0.8385,0.1183,0.6337,0.6238,-0.7517,-0.8883,-0.585,0.0347,-0.9938,1.0358,-0.7287,0.0316
2.4174,-1.0771,0.0817,0.1956,-0.8608,0.1262,0.6115,0.6263,-0.7456,-0.8904,-0.5883,0.0348,-1.0189,1.0401,-0.7298,0.0279
2.4174,-1.0771,0.0817,0.1956,-0.8608,0.1262,0.6115,0.6263,-0.7456,-0.8904,-0.5883,0.0348,-1.0189,1.0401,-0.7298,0.0279
2.4174,-1.0771,0.0817,0.1956,-0.8608,0.1262,0.6115,0.6263,-0.7456,-0.8904,-0.5883,0.0348,-1.0189,1.0401,-0.7298,0.0279
2.4894,-1.127,0.0746,0.1975,-0.8162,0.1105,0.6131,0.6239,-0.7487,-0.8859,-0.5909,0.0357,-1.0189,1.0401,-0.72,0.0244
2.4894,-1.127,0.0746,0.1975,-0.8162,0.1105,0.6131,0.6239,-0.7487,-0.8859,-0.5909,0.0357,-1.0189,1.0401,-0.72,0.0244
2.4894,-1.127,0.0716,0.195,-0.7578,0.0991,0.6276,0.6242,-0.7549,-0.877,-0.5896,0.0358,-1.0049,1.0306,-0.709,0.0246
2.4894,-1.127,0.0716,0.195,-0.7578,0.0991,0.6276,0.6242,-0.7549,-0.877,-0.5896,0.0358,-1.0049,1.0306,-0.709,0.0246
2.4624,-1.1419,0.0708,0.1912,-0.6906,0.0754,0.6587,0.6257,-0.7668,-0.8796,-0.5866,0.0342,-1.0119,1.0193,-0.7098,0.0311
2.4624,-1.1419,0.073,0.1863,-0.6799,0.1088,0.6927,0.6317,-0.7787,-0.8821,-0.5797,0.0318,-1.0174,1.0167,-0.6976,0.0351
2.6112,-1.1945,0.0762,0.1817,-0.6831,0.138,0.7346,0.6348,-0.7667,-0.8863,-0.5744,0.0325,-0.9923,1.0124,-0.6733,0.0431
2.6112,-1.1945,0.0762,0.1817,-0.6831,0.138,0.7346,0.6348,-0.7667,-0.8863,-0.5744,0.0325,-0.9923,1.0124,-0.6733,0.0431
2.6112,-1.1945,0.0762,0.1817,-0.6831,0.138,0.7346,0.6348,-0.7667,-0.8863,-0.5744,0.0325,-0.9923,1.0124,-0.6733,0.0431
2.7159,-1.1825,0.082,0.1785,-0.6864,0.1673,0.7868,0.6362,-0.7546,-0.8906,-0.5692,0.0344,-0.9714,1.0142,-0.6432,0.0429
2.7159,-1.1825,0.082,0.1785,-0.6864,0.1673,0.7868,0.6362,-0.7546,-0.8906,-0.5692,0.0344,-0.9714,1.0142,-0.6432,0.0429
2.7485,-1.1202,0.0897,0.174,-0.6811,0.1842,0.8329,0.6379,-0.7367,-0.8902,-0.562,0.036,-0.9406,1.0125,-0.6199,0.0472
2.7485,-1.1202,0.0897,0.174,-0.6811,0.1842,0.8329,0.6379,-0.7367,-0.8902,-0.562,0.036,-0.9406,1.0125,-0.6199,0.0472
2.6574,-0.9888,0.0954,0.1708,-0.6811,0.1842,0.8651,0.6428,-0.7249,-0.8809,-0.5547,0.0377,-0.8986,1.0159,-0.5966,0.0514
2.6574,-0.9888,0.0954,0.1708,-0.6811,0.1842,0.8651,0.6428,-0.7249,-0.8809,-0.5547,0.0377,-0.8986,1.0159,-0.5966,0.0514
2.5341,-0.9203,0.1006,0.1684,-0.6864,0.1673,0.8776,0.6546,-0.7131,-0.8716,-0.5482,0.0396,-0.8677,1.0142,-0.5763,0.0547
2.5341,-0.9203,0.1006,0.1684,-0.6864,0.1673,0.8776,0.6546,-0.7131,-0.8716,-0.5482,0.0396,-0.8677,1.0142,-0.5763,0.0547
2.4799,-0.951,0.1088,0.1649,-0.6831,0.138,0.8834,0.6635,-0.698,-0.8736,-0.5429,0.0404,-0.8564,1.0194,-0.5672,0.0577
2.4799,-0.951,0.1088,0.1649,-0.6831,0.138,0.8834,0.6635,-0.698,-0.8736,-0.5429,0.0404,-0.8564,1.0194,-0.5672,0.0577
2.4756,-0.9991,0.1165,0.1621,-0.697,0.1336,0.8886,0.6689,-0.68,-0.8732,-0.5363,0.0402,-0.8536,1.0368,-0.551,0.0562
2.4756,-0.9991,0.1165,0.1621,-0.697,0.1336,0.8886,0.6689,-0.68,-0.8732,-0.5363,0.0402,-0.8536,1.0368,-0.551,0.0562
2.5754,-1.0343,0.1242,0.1612,-0.6606,0.1301,0.9016,0.6715,-0.6589,-0.8773,-0.5291,0.0392,-0.862,1.049,-0.5449,0.0582
2.5754,-1.0343,0.1242,0.1612,-0.6606,0.1301,0.9016,0.6715,-0.6589,-0.8773,-0.5291,0.0392,-0.862,1.049,-0.5449,0.0582
2.5754,-1.0343,0.1242,0.1612,-0.6606,0.1301,0.9016,0.6715,-0.6589,-0.8773,-0.5291,0.0392,-0.862,1.049,-0.5449,0.0582
2.5754,-1.0343,0.1277,0.1629,-0.6467,0.1345,0.9101,0.6722,-0.6346,-0.8859,-0.525,0.0399,-0.8662,1.0551,-0.5418,0.0592
2.5754,-1.0343,0.1277,0.1629,-0.6467,0.1345,0.9101,0.6722,-0.6346,-0.8859,-0.525,0.0399,-0.8662,1.0551,-0.5418,0.0592
2.63,-1.004,0.13,0.1679,-0.636,0.1682,0.9226,0.6714,-0.6379,-0.8746,-0.5195,0.0421,-0.8831,1.0472,-0.5188,0.0531
2.63,-1.004,0.13,0.1679,-0.636,0.1682,0.9226,0.6714,-0.6379,-0.8746,-0.5195,0.0421,-0.8831,1.0472,-0.5188,0.0531
2.63,-1.004,0.13,0.1679,-0.636,0.1682,0.9226,0.6714,-0.6379,-0.8746,-0.5195,0.0421,-0.8831,1.0472,-0.5188,0.0531
2.6574,-0.9888,0.1305,0.1689,-0.5768,0.1567,0.9282,0.6676,-0.6563,-0.8546,-0.5188,0.044,-0.8845,1.0385,-0.5119,0.0486
2.7078,-1.0066,0.1289,0.1695,-0.5087,0.1326,0.9299,0.6652,-0.6716,-0.8458,-0.5168,0.0449,-0.8916,1.0272,-0.5219,0.0521
2.7078,-1.0066,0.1289,0.1695,-0.5087,0.1326,0.9299,0.6652,-0.6716,-0.8458,-0.5168,0.0449,-0.8916,1.0272,-0.5219,0.0521
2.7078,-1.0066,0.1289,0.1695,-0.5087,0.1326,0.9299,0.6652,-0.6716,-0.8458,-0.5168,0.0449,-0.8916,1.0272,-0.5219,0.0521
2.6574,-0.9888,0.1279,0.1693,-0.4632,0.1165,0.9253,0.6632,-0.6927,-0.8417,-0.5147,0.0447,-0.8944,1.0099,-0.5399,0.0564
2.6574,-0.9888,0.1279,0.1693,-0.4632,0.1165,0.9253,0.6632,-0.6927,-0.8417,-0.5147,0.0447,-0.8944,1.0099,-0.5399,0.0564
2.6803,-1.0218,0.129,0.1677,-0.4491,0.1209,0.9191,0.6636,-0.7107,-0.8421,-0.5127,0.0445,-0.9014,0.9986,-0.556,0.0579
2.6803,-1.0218,0.129,0.1677,-0.4491,0.1209,0.9191,0.6636,-0.7107,-0.8421,-0.5127,0.0445,-0.9014,0.9986,-0.556,0.0579
2.7811,-1.0574,0.1275,0.1682,-0.4892,0.1539,0.9128,0.6639,-0.7166,-0.8468,-0.5128,0.0456,-0.9168,0.9995,-0.5721,0.0594
2.7811,-1.0574,0.1275,0.1682,-0.4892,0.1539,0.9128,0.6639,-0.7166,-0.8468,-0.5128,0.0456,-0.9168,0.9995,-0.5721,0.0594
2.8317,-1.0753,0.1264,0.1698,-0.5433,0.1825,0.9106,0.6629,-0.7106,-0.8489,-0.5156,0.0487,-0.9168,0.9995,-0.5821,0.063
2.8317,-1.0753,0.1264,0.1698,-0.5433,0.1825,0.9106,0.6629,-0.7106,-0.8489,-0.5156,0.0487,-0.9168,0.9995,-0.5821,0.063
2.8088,-1.0423,0.1253,0.1714,-0.566,0.1905,0.9139,0.6581,-0.7045,-0.851,-0.5169,0.0497,-0.9112,1.0021,-0.5802,0.0602
2.8088,-1.0423,0.1253,0.1714,-0.566,0.1905,0.9139,0.6581,-0.7045,-0.851,-0.5169,0.0497,-0.9112,1.0021,-0.5802,0.0602
2.6803,-1.0218,0.1227,0.1717,-0.5768,0.1567,0.9071,0.6551,-0.6985,-0.8532,-0.5191,0.051,-0.8859,0.9977,-0.5783,0.0574
2.6803,-1.0218,0.1227,0.1717,-0.5768,0.1567,0.9071,0.6551,-0.6985,-0.8532,-0.5191,0.051,-0.8859,0.9977,-0.5783,0.0574
2.5482,-1.0494,0.1207,0.1712,-0.6413,0.1513,0.8845,0.6577,-0.6985,-0.8532,-0.5204,0.0509,-0.8901,1.0038,-0.5882,0.061
2.5482,-1.0494,0.1207,0.1712,-0.6413,0.1513,0.8845,0.6577,-0.6985,-0.8532,-0.5204,0.0509,-0.8901,1.0038,-0.5882,0.061
2.5482,-1.0494,0.1207,0.1712,-0.6413,0.1513,0.8845,0.6577,-0.6985,-0.8532,-0.5204,0.0509,-0.8901,1.0038,-0.5882,0.061
2.4399,-1.1095,0.1203,0.1702,-0.6831,0.138,0.8658,0.6588,-0.6955,-0.8509,-0.5211,0.0501,-0.8986,1.0159,-0.5963,0.0617
2.4624,-1.1419,0.1183,0.1697,-0.697,0.1336,0.8495,0.661,-0.6654,-0.8547,-0.5228,0.0507,-0.921,1.0376,-0.6043,0.0625
2.4624,-1.1419,0.1183,0.1697,-0.697,0.1336,0.8495,0.661,-0.6654,-0.8547,-0.5228,0.0507,-0.921,1.0376,-0.6043,0.0625
2.5119,-1.1594,0.1136,0.1714,-0.697,0.1336,0.8427,0.6579,-0.6411,-0.8633,-0.5241,0.0506,-0.9505,1.048,-0.6104,0.0605
2.5119,-1.1594,0.1136,0.1714,-0.697,0.1336,0.8427,0.6579,-0.6411,-0.8633,-0.5241,0.0506,-0.9505,1.048,-0.6104,0.0605
2.5119,-1.1594,0.1136,0.1714,-0.697,0.1336,0.8427,0.6579,-0.6411,-0.8633,-0.5241,0.0506,-0.9505,1.048,-0.6104,0.0605
2.5343,-1.1917,0.1075,0.1736,-0.7056,0.1459,0.8359,0.6549,-0.6321,-0.8631,-0.5258,0.0512,-0.9603,1.0515,-0.6016,0.0532
2.5839,-1.2093,0.1018,0.175,-0.7056,0.1459,0.8268,0.6509,-0.6443,-0.852,-0.5274,0.0508,-0.9813,1.0497,-0.5928,0.0459
2.5839,-1.2093,0.1018,0.175,-0.7056,0.1459,0.8268,0.6509,-0.6443,-0.852,-0.5274,0.0508,-0.9813,1.0497,-0.5928,0.0459
2.5839,-1.2093,0.1018,0.175,-0.7056,0.1459,0.8268,0.6509,-0.6443,-0.852,-0.5274,0.0508,-0.9813,1.0497,-0.5928,0.0459
2.5887,-1.1621,0.0967,0.1756,-0.7056,0.1459,0.8178,0.6469,-0.6628,-0.832,-0.5295,0.051,-0.9826,1.0411,-0.584,0.0386
2.5887,-1.1621,0.0967,0.1756,-0.7056,0.1459,0.8178,0.6469,-0.6628,-0.832,-0.5295,0.051,-0.9826,1.0411,-0.584,0.0386
2.5887,-1.1621,0.0967,0.1756,-0.7056,0.1459,0.8178,0.6469,-0.6628,-0.832,-0.5295,0.051,-0.9826,1.0411,-0.584,0.0386
2.5482,-1.0494,0.0906,0.176,-0.593,0.1061,0.7925,0.645,-0.7022,-0.8215,-0.5365,0.0508,-0.9979,1.0098,-0.6268,0.0517
2.5482,-1.0494,0.0906,0.176,-0.593,0.1061,0.7925,0.645,-0.7022,-0.8215,-0.5365,0.0508,-0.9979,1.0098,-0.6268,0.0517
2.5482,-1.0494,0.0906,0.176,-0.593,0.1061,0.7925,0.645,-0.7022,-0.8215,-0.5365,0.0508,-0.9979,1.0098,-0.6268,0.0517
2.521,-1.0645,0.0892,0.1747,-0.6381,0.1221,0.7717,0.6451,-0.7079,-0.833,-0.5384,0.0488,-1.0104,0.996,-0.6608,0.0574
2.6434,-1.1323,0.0887,0.1737,-0.6864,0.1673,0.751,0.6452,-0.7078,-0.8398,-0.5412,0.0482,-1.0257,0.9968,-0.6817,0.0607
2.7938,-1.1855,0.0873,0.1725,-0.7262,0.2001,0.7358,0.6416,-0.7047,-0.8442,-0.5458,0.0483,-1.0355,1.0003,-0.7057,0.0629
2.7938,-1.1855,0.0873,0.1725,-0.7262,0.2001,0.7358,0.6416,-0.7047,-0.8442,-0.5458,0.0483,-1.0355,1.0003,-0.7057,0.0629
2.7938,-1.1855,0.0873,0.1725,-0.7262,0.2001,0.7358,0.6416,-0.7047,-0.8442,-0.5458,0.0483,-1.0355,1.0003,-0.7057,0.0629
2.9678,-1.2715,0.0822,0.1731,-0.7625,0.2035,0.719,0.6403,-0.6957,-0.844,-0.5511,0.0512,-1.0397,1.0063,-0.7137,0.0636
2.9678,-1.2715,0.0822,0.1731,-0.7625,0.2035,0.719,0.6403,-0.6957,-0.844,-0.5511,0.0512,-1.0397,1.0063,-0.7137,0.0636
2.9959,-1.2569,0.0781,0.174,-0.7901,0.1945,0.7156,0.6326,-0.6988,-0.8396,-0.5562,0.053,-1.0494,1.0098,-0.7228,0.0606
2.8999,-1.1737,0.0725,0.1754,-0.8177,0.1856,0.7144,0.6258,-0.696,-0.8304,-0.5593,0.0546,-1.0536,1.0158,-0.7208,0.0579
2.8999,-1.1737,0.0725,0.1754,-0.8177,0.1856,0.7144,0.6258,-0.696,-0.8304,-0.5593,0.0546,-1.0536,1.0158,-0.7208,0.0579
2.8999,-1.1737,0.0725,0.1754,-0.8177,0.1856,0.7144,0.6258,-0.696,-0.8304,-0.5593,0.0546,-1.0536,1.0158,-0.7208,0.0579
2.7078,-1.0066,0.0669,0.1768,-0.8367,0.1642,0.7071,0.6194,-0.7022,-0.8215,-0.5623,0.0562,-1.0341,1.0089,-0.7269,0.0559
2.7078,-1.0066,0.0669,0.1768,-0.8367,0.1642,0.7071,0.6194,-0.7022,-0.8215,-0.5623,0.0562,-1.0341,1.0089,-0.7269,0.0559
2.7078,-1.0066,0.0669,0.1768,-0.8367,0.1642,0.7071,0.6194,-0.7022,-0.8215,-0.5623,0.0562,-1.0341,1.0089,-0.7269,0.0559
2.5341,-0.9203,0.0618,0.1774,-0.7972,0.1316,0.6871,0.6229,-0.7053,-0.817,-0.5633,0.0576,-1.0104,0.996,-0.7398,0.0583
2.4301,-0.9334,0.0582,0.1775,-0.8077,0.0982,0.6609,0.6267,-0.7112,-0.8217,-0.5654,0.0578,-1.0118,0.9874,-0.7538,0.0571
2.4301,-0.9334,0.0582,0.1775,-0.8077,0.0982,0.6609,0.6267,-0.7112,-0.8217,-0.5654,0.0578,-1.0118,0.9874,-0.7538,0.0571
2.3228,-0.9945,0.0573,0.1755,-0.8267,0.077,0.6409,0.6302,-0.7202,-0.8219,-0.567,0.0573,-1.0313,0.9942,-0.7648,0.0568
2.3228,-0.9945,0.0573,0.1755,-0.8267,0.077,0.6409,0.6302,-0.7202,-0.8219,-0.567,0.0573,-1.0313,0.9942,-0.7648,0.0568
2.3228,-0.9945,0.0573,0.1755,-0.8267,0.077,0.6409,0.6302,-0.7202,-0.8219,-0.567,0.0573,-1.0313,0.9942,-0.7648,0.0568
2.2696,-1.0248,0.0574,0.1737,-0.8489,0.0849,0.6393,0.6326,-0.7079,-0.833,-0.567,0.0573,-1.0591,1.0132,-0.7697,0.0585
2.2696,-1.0248,0.0574,0.1737,-0.8489,0.0849,0.6393,0.6326,-0.7079,-0.833,-0.567,0.0573,-1.0591,1.0132,-0.7697,0.0585
2.2696,-1.0248,0.0574,0.1737,-0.8489,0.0849,0.6393,0.6326,-0.7079,-0.833,-0.567,0.0573,-1.0591,1.0132,-0.7697,0.0585
2.2696,-1.0248,0.0574,0.1737,-0.8489,0.0849,0.6393,0.6326,-0.7079,-0.833,-0.567,0.0573,-1.0591,1.0132,-0.7697,0.0585
2.4399,-1.1095,0.0584,0.1739,-0.8248,0.1228,0.6889,0.6456,-0.6776,-0.8437,-0.5593,0.0583,-1.0327,1.0176,-0.7148,0.0599
2.4399,-1.1095,0.0584,0.1739,-0.8248,0.1228,0.6889,0.6456,-0.6776,-0.8437,-0.5593,0.0583,-1.0327,1.0176,-0.7148,0.0599
2.4894,-1.127,0.064,0.1725,-0.7749,0.1237,0.7331,0.6498,-0.6778,-0.8368,-0.5538,0.058,-1.0021,1.0159,-0.6787,0.0617
2.5165,-1.1121,0.0686,0.1709,-0.6713,0.0965,0.783,0.6502,-0.6871,-0.8234,-0.5472,0.0577,-0.9812,1.0176,-0.6425,0.0635
2.5165,-1.1121,0.0686,0.1709,-0.6713,0.0965,0.783,0.6502,-0.6871,-0.8234,-0.5472,0.0577,-0.9812,1.0176,-0.6425,0.0635
2.539,-1.1445,0.0738,0.1685,-0.5727,0.0523,0.8145,0.6517,-0.6842,-0.8211,-0.5401,0.0579,-0.9616,1.0107,-0.6261,0.0722
2.539,-1.1445,0.0738,0.1685,-0.5727,0.0523,0.8145,0.6517,-0.6842,-0.8211,-0.5401,0.0579,-0.9616,1.0107,-0.6261,0.0722
2.5165,-1.1121,0.0794,0.1671,-0.5361,0.0487,0.8427,0.6579,-0.687,-0.8302,-0.5322,0.0578,-0.963,1.0021,-0.6227,0.0836
2.5165,-1.1121,0.0794,0.1671,-0.5361,0.0487,0.8427,0.6579,-0.687,-0.8302,-0.5322,0.0578,-0.963,1.0021,-0.6227,0.0836
2.4894,-1.127,0.0871,0.1643,-0.5275,0.0364,0.8602,0.6626,-0.6988,-0.8396,-0.5235,0.0573,-0.9742,0.9969,-0.6235,0.0901
2.4894,-1.127,0.0871,0.1643,-0.5275,0.0364,0.8602,0.6626,-0.6988,-0.8396,-0.5235,0.0573,-0.9742,0.9969,-0.6235,0.0901
2.5165,-1.1121,0.0957,0.1636,-0.5618,0.0858,0.8762,0.6697,-0.7047,-0.8442,-0.516,0.0568,-0.9839,1.0003,-0.6124,0.0904
2.5165,-1.1121,0.0957,0.1636,-0.5618,0.0858,0.8762,0.6697,-0.7047,-0.8442,-0.516,0.0568,-0.9839,1.0003,-0.6124,0.0904
2.5165,-1.1121,0.1034,0.1627,-0.6188,0.1433,0.8909,0.6699,-0.7106,-0.8489,-0.5084,0.0562,-0.9839,1.0003,-0.6043,0.0896
2.5165,-1.1121,0.1034,0.1627,-0.6188,0.1433,0.8909,0.6699,-0.7106,-0.8489,-0.5084,0.0562,-0.9839,1.0003,-0.6043,0.0896
2.6934,-1.15,0.1105,0.1625,-0.6619,0.2056,0.9039,0.6725,-0.7016,-0.8487,-0.5023,0.0578,-0.9574,1.0047,-0.5852,0.0891
2.6934,-1.15,0.1105,0.1625,-0.6619,0.2056,0.9039,0.6725,-0.7016,-0.8487,-0.5023,0.0578,-0.9574,1.0047,-0.5852,0.0891
2.8946,-1.2211,0.117,0.1631,-0.6566,0.2225,0.9203,0.6704,-0.6926,-0.8485,-0.4986,0.0617,-0.9462,1.0099,-0.5641,0.0859
2.8946,-1.2211,0.117,0.1631,-0.6566,0.2225,0.9203,0.6704,-0.6926,-0.8485,-0.4986,0.0617,-0.9462,1.0099,-0.5641,0.0859
2.8946,-1.2211,0.117,0.1631,-0.6566,0.2225,0.9203,0.6704,-0.6926,-0.8485,-0.4986,0.0617,-0.9462,1.0099,-0.5641,0.0859
2.8824,-1.0932,0.1225,0.1653,-0.6393,0.1976,0.9502,0.6616,-0.6806,-0.846,-0.4935,0.0684,-0.9154,1.0081,-0.543,0.0826
2.8824,-1.0932,0.1225,0.1653,-0.6393,0.1976,0.9502,0.6616,-0.6806,-0.846,-0.4935,0.0684,-0.9154,1.0081,-0.543,0.0826
2.8824,-1.0932,0.1225,0.1653,-0.6393,0.1976,0.9502,0.6616,-0.6806,-0.846,-0.4935,0.0684,-0.9154,1.0081,-0.543,0.0826
2.7582,-1.0245,0.1235,0.1655,-0.622,0.1727,0.9446,0.6654,-0.6747,-0.8413,-0.4908,0.0712,-0.8803,1.0003,-0.5418,0.0863
2.7582,-1.0245,0.1235,0.1655,-0.622,0.1727,0.9446,0.6654,-0.6747,-0.8413,-0.4908,0.0712,-0.8803,1.0003,-0.5418,0.0863
2.6254,-1.052,0.1231,0.1645,-0.6381,0.1221,0.9249,0.6724,-0.6748,-0.8345,-0.4869,0.0741,-0.8705,0.9968,-0.5437,0.0891
2.5165,-1.1121,0.1267,0.1609,-0.6713,0.0965,0.9045,0.676,-0.675,-0.8277,-0.4833,0.0754,-0.8845,1.0064,-0.5468,0.0881
2.5165,-1.1121,0.1267,0.1609,-0.6713,0.0965,0.9045,0.676,-0.675,-0.8277,-0.4833,0.0754,-0.8845,1.0064,-0.5468,0.0881
2.4354,-1.1568,0.1283,0.1586,-0.6906,0.0754,0.8937,0.6743,-0.672,-0.8254,-0.4805,0.076,-0.9084,1.0194,-0.5518,0.0899
2.4354,-1.1568,0.1283,0.1586,-0.6906,0.0754,0.8937,0.6743,-0.672,-0.8254,-0.4805,0.076,-0.9084,1.0194,-0.5518,0.0899
2.4354,-1.1568,0.1283,0.1586,-0.6906,0.0754,0.8937,0.6743,-0.672,-0.8254,-0.4805,0.076,-0.9084,1.0194,-0.5518,0.0899
2.5343,-1.1917,0.1304,0.159,-0.6991,0.0877,0.8892,0.6723,-0.6538,-0.8318,-0.4791,0.075,-0.9421,1.0359,-0.5599,0.0906
2.5343,-1.1917,0.1304,0.159,-0.6991,0.0877,0.8892,0.6723,-0.6538,-0.8318,-0.4791,0.075,-0.9421,1.0359,-0.5599,0.0906
2.5839,-1.2093,0.1287,0.1631,-0.6852,0.0921,0.8846,0.6703,-0.6234,-0.8425,-0.479,0.0739,-0.9519,1.0394,-0.5649,0.0924
2.5839,-1.2093,0.1287,0.1631,-0.6852,0.0921,0.8846,0.6703,-0.6234,-0.8425,-0.479,0.0739,-0.9519,1.0394,-0.5649,0.0924
2.661,-1.2121,0.1264,0.1698,-0.6799,0.1088,0.884,0.6669,-0.6083,-0.8445,-0.4798,0.0731,-0.9617,1.0428,-0.5599,0.0906
2.6659,-1.1649,0.1236,0.1755,-0.666,0.1132,0.8817,0.6659,-0.6023,-0.8398,-0.4823,0.0729,-0.9631,1.0341,-0.553,0.0861
2.6659,-1.1649,0.1236,0.1755,-0.666,0.1132,0.8817,0.6659,-0.6023,-0.8398,-0.4823,0.0729,-0.9631,1.0341,-0.553,0.0861
2.6659,-1.1649,0.1236,0.1755,-0.666,0.1132,0.8817,0.6659,-0.6023,-0.8398,-0.4823,0.0729,-0.9631,1.0341,-0.553,0.0861
2.6983,-1.1025,0.1225,0.1788,-0.6155,0.1141,0.8795,0.6649,-0.6148,-0.8219,-0.4847,0.0728,-0.9742,1.0289,-0.5491,0.0806
2.6983,-1.1025,0.1225,0.1788,-0.6155,0.1141,0.8795,0.6649,-0.6148,-0.8219,-0.4847,0.0728,-0.9742,1.0289,-0.5491,0.0806
2.6983,-1.1025,0.1225,0.1788,-0.6155,0.1141,0.8795,0.6649,-0.6148,-0.8219,-0.4847,0.0728,-0.9742,1.0289,-0.5491,0.0806
2.7031,-1.0547,0.1229,0.1798,-0.5423,0.107,0.8772,0.6639,-0.6241,-0.8084,-0.4872,0.0726,-0.9658,1.0168,-0.5591,0.0841
2.7258,-1.0875,0.1219,0.1796,-0.511,0.0865,0.8704,0.6608,-0.6454,-0.8043,-0.4875,0.0711,-0.9784,1.0029,-0.5821,0.0901
2.7258,-1.0875,0.1219,0.1796,-0.511,0.0865,0.8704,0.6608,-0.6454,-0.8043,-0.4875,0.0711,-0.9784,1.0029,-0.5821,0.0901
2.6481,-1.0847,0.1194,0.1781,-0.5337,0.0946,0.8557,0.6606,-0.6603,-0.8092,-0.4864,0.0686,-0.9965,0.9865,-0.6043,0.0896
2.6481,-1.0847,0.1194,0.1781,-0.5337,0.0946,0.8557,0.6606,-0.6603,-0.8092,-0.4864,0.0686,-0.9965,0.9865,-0.6043,0.0896
2.6481,-1.0847,0.1194,0.1781,-0.5337,0.0946,0.8557,0.6606,-0.6603,-0.8092,-0.4864,0.0686,-0.9965,0.9865,-0.6043,0.0896
2.7989,-1.138,0.1133,0.1785,-0.636,0.1682,0.8342,0.6573,-0.6692,-0.8162,-0.489,0.0695,-1.0229,0.9822,-0.6426,0.0906
2.7989,-1.138,0.1133,0.1785,-0.636,0.1682,0.8342,0.6573,-0.6692,-0.8162,-0.489,0.0695,-1.0229,0.9822,-0.6426,0.0906
2.7989,-1.138,0.1133,0.1785,-0.636,0.1682,0.8342,0.6573,-0.6692,-0.8162,-0.489,0.0695,-1.0229,0.9822,-0.6426,0.0906
2.9507,-1.1916,0.1113,0.1798,-0.6446,0.1806,0.8258,0.6567,-0.6631,-0.8183,-0.4944,0.0735,-1.0327,0.9856,-0.6536,0.0903
2.9507,-1.1916,0.1113,0.1798,-0.6446,0.1806,0.8258,0.6567,-0.6631,-0.8183,-0.4944,0.0735,-1.0327,0.9856,-0.6536,0.0903
2.9507,-1.1916,0.1113,0.1798,-0.6446,0.1806,0.8258,0.6567,-0.6631,-0.8183,-0.4944,0.0735,-1.0327,0.9856,-0.6536,0.0903
2.9279,-1.1589,0.1072,0.1807,-0.6898,0.1966,0.8246,0.6499,-0.6661,-0.8207,-0.4988,0.0761,-1.0327,0.9856,-0.6597,0.0883
2.9279,-1.1589,0.1072,0.1807,-0.6898,0.1966,0.8246,0.6499,-0.6661,-0.8207,-0.4988,0.0761,-1.0327,0.9856,-0.6597,0.0883
2.8317,-1.0753,0.1031,0.1816,-0.6725,0.1717,0.8194,0.6445,-0.66,-0.8228,-0.5031,0.0777,-1.0229,0.9822,-0.6578,0.0855
2.8317,-1.0753,0.1031,0.1816,-0.6725,0.1717,0.8194,0.6445,-0.66,-0.8228,-0.5031,0.0777,-1.0229,0.9822,-0.6578,0.0855
2.8317,-1.0753,0.1031,0.1816,-0.6725,0.1717,0.8194,0.6445,-0.66,-0.8228,-0.5031,0.0777,-1.0229,0.9822,-0.6578,0.0855
2.8317,-1.0753,0.1031,0.1816,-0.6725,0.1717,0.8194,0.6445,-0.66,-0.8228,-0.5031,0.0777,-1.0229,0.9822,-0.6578,0.0855
2.5383,-0.8718,0.0954,0.1825,-0.6467,0.1345,0.788,0.643,-0.6722,-0.8185,-0.5114,0.0774,-0.9797,0.9624,-0.6711,0.0777
2.5383,-0.8718,0.0954,0.1825,-0.6467,0.1345,0.788,0.643,-0.6722,-0.8185,-0.5114,0.0774,-0.9797,0.9624,-0.6711,0.0777
2.5383,-0.8718,0.0954,0.1825,-0.6467,0.1345,0.788,0.643,-0.6722,-0.8185,-0.5114,0.0774,-0.9797,0.9624,-0.6711,0.0777
2.2735,-0.9771,0.087,0.1778,-0.7439,0.1035,0.727,0.6501,-0.6902,-0.8189,-0.5191,0.0753,-0.9811,0.9538,-0.708,0.0824
2.1677,-1.0378,0.0851,0.1756,-0.8162,0.1105,0.7018,0.6482,-0.6873,-0.8166,-0.5231,0.0736,-1.0187,0.9761,-0.7191,0.0822
2.1677,-1.0378,0.0851,0.1756,-0.8162,0.1105,0.7018,0.6482,-0.6873,-0.8166,-0.5231,0.0736,-1.0187,0.9761,-0.7191,0.0822
2.2125,-1.1024,0.083,0.1769,-0.83,0.106,0.6828,0.6459,-0.6661,-0.8207,-0.5274,0.0714,-1.0508,1.0011,-0.732,0.0847
2.2125,-1.1024,0.083,0.1769,-0.83,0.106,0.6828,0.6459,-0.6661,-0.8207,-0.5274,0.0714,-1.0508,1.0011,-0.732,0.0847
2.3103,-1.1369,0.0788,0.1813,-0.8522,0.1139,0.6755,0.6395,-0.6419,-0.8224,-0.5322,0.0699,-1.08,1.0114,-0.7361,0.0799
2.3103,-1.1369,0.0788,0.1813,-0.8522,0.1139,0.6755,0.6395,-0.6419,-0.8224,-0.5322,0.0699,-1.08,1.0114,-0.7361,0.0799
2.3103,-1.1369,0.0788,0.1813,-0.8522,0.1139,0.6755,0.6395,-0.6419,-0.8224,-0.5322,0.0699,-1.08,1.0114,-0.7361,0.0799
2.3593,-1.1543,0.074,0.1865,-0.8522,0.1139,0.6705,0.6341,-0.6209,-0.8197,-0.5371,0.0685,-1.1104,1.0131,-0.7274,0.0726
2.3593,-1.1543,0.074,0.1865,-0.8522,0.1139,0.6705,0.6341,-0.6209,-0.8197,-0.5371,0.0685,-1.1104,1.0131,-0.7274,0.0726
2.3593,-1.1543,0.074,0.1865,-0.8522,0.1139,0.6705,0.6341,-0.6209,-0.8197,-0.5371,0.0685,-1.1104,1.0131,-0.7274,0.0726
2.4624,-1.1419,0.0677,0.1923,-0.8162,0.1105,0.6599,0.6325,-0.6182,-0.8037,-0.5421,0.0692,-1.1215,1.0079,-0.7304,0.0716
2.5119,-1.1594,0.0625,0.1965,-0.7407,0.0745,0.6515,0.6319,-0.6304,-0.7994,-0.5467,0.0692,-1.138,1.0001,-0.7471,0.0796
2.5119,-1.1594,0.0625,0.1965,-0.7407,0.0745,0.6515,0.6319,-0.6304,-0.7994,-0.5467,0.0692,-1.138,1.0001,-0.7471,0.0796
2.4894,-1.127,0.0609,0.197,-0.7045,0.071,0.646,0.6356,-0.6546,-0.7976,-0.5482,0.0676,-1.1407,0.9829,-0.7589,0.0859
2.4894,-1.127,0.0609,0.197,-0.7045,0.071,0.646,0.6356,-0.6546,-0.7976,-0.5482,0.0676,-1.1407,0.9829,-0.7589,0.0859
2.4894,-1.127,0.0609,0.197,-0.7045,0.071,0.646,0.6356,-0.6546,-0.7976,-0.5482,0.0676,-1.1407,0.9829,-0.7589,0.0859
2.6385,-1.1797,0.0621,0.1937,-0.7162,0.1123,0.661,0.6393,-0.6574,-0.8068,-0.5468,0.0666,-1.1365,0.9769,-0.7578,0.0896
2.7109,-1.2297,0.0628,0.1893,-0.7472,0.1326,0.6845,0.6436,-0.6633,-0.8115,-0.5461,0.0674,-1.1116,0.9726,-0.7426,0.0947
2.7109,-1.2297,0.0628,0.1893,-0.7472,0.1326,0.6845,0.6436,-0.6633,-0.8115,-0.5461,0.0674,-1.1116,0.9726,-0.7426,0.0947
2.7886,-1.2327,0.066,0.1847,-0.7782,0.1529,0.7303,0.6454,-0.6603,-0.8092,-0.5424,0.0677,-1.0701,0.9761,-0.7115,0.0983
2.7886,-1.2327,0.066,0.1847,-0.7782,0.1529,0.7303,0.6454,-0.6603,-0.8092,-0.5424,0.0677,-1.0701,0.9761,-0.7115,0.0983
2.7886,-1.2327,0.066,0.1847,-0.7782,0.1529,0.7303,0.6454,-0.6603,-0.8092,-0.5424,0.0677,-1.0701,0.9761,-0.7115,0.0983
2.6983,-1.1025,0.0697,0.181,-0.7868,0.1653,0.7785,0.6481,-0.6602,-0.816,-0.5382,0.0673,-1.0243,0.9736,-0.6804,0.1019
2.6983,-1.1025,0.0697,0.181,-0.7868,0.1653,0.7785,0.6481,-0.6602,-0.816,-0.5382,0.0673,-1.0243,0.9736,-0.6804,0.1019
2.6983,-1.1025,0.0697,0.181,-0.7868,0.1653,0.7785,0.6481,-0.6602,-0.816,-0.5382,0.0673,-1.0243,0.9736,-0.6804,0.1019
2.521,-1.0645,0.0827,0.1723,-0.7525,0.1158,0.8332,0.6631,-0.6602,-0.816,-0.5224,0.067,-0.935,0.9831,-0.6078,0.1055
2.521,-1.0645,0.0827,0.1723,-0.7525,0.1158,0.8332,0.6631,-0.6602,-0.816,-0.5224,0.067,-0.935,0.9831,-0.6078,0.1055
2.521,-1.0645,0.0827,0.1723,-0.7525,0.1158,0.8332,0.6631,-0.6602,-0.816,-0.5224,0.067,-0.935,0.9831,-0.6078,0.1055
2.4443,-1.062,0.0925,0.1683,-0.7439,0.1035,0.8507,0.6678,-0.6539,-0.825,-0.5155,0.0682,-0.9322,1.0003,-0.5887,0.105
2.4443,-1.062,0.0925,0.1683,-0.7439,0.1035,0.8507,0.6678,-0.6539,-0.825,-0.5155,0.0682,-0.9322,1.0003,-0.5887,0.105
2.4939,-1.0795,0.1011,0.1676,-0.7077,0.1,0.8677,0.669,-0.6387,-0.8337,-0.5087,0.0706,-0.935,1.0151,-0.5664,0.1055
2.4939,-1.0795,0.1011,0.1676,-0.7077,0.1,0.8677,0.669,-0.6387,-0.8337,-0.5087,0.0706,-0.935,1.0151,-0.5664,0.1055
2.539,-1.1445,0.1056,0.1695,-0.6938,0.1044,0.8801,0.6683,-0.6356,-0.8382,-0.5022,0.0725,-0.9238,1.0203,-0.5422,0.1033
2.616,-1.1472,0.1091,0.1712,-0.6349,0.0929,0.8981,0.6637,-0.6448,-0.8316,-0.4974,0.074,-0.9098,1.0107,-0.518,0.101
2.616,-1.1472,0.1091,0.1712,-0.6349,0.0929,0.8981,0.6637,-0.6448,-0.8316,-0.4974,0.074,-0.9098,1.0107,-0.518,0.101
2.5887,-1.1621,0.1101,0.1715,-0.5812,0.0647,0.9054,0.6575,-0.6571,-0.8205,-0.4919,0.0737,-0.8901,1.0038,-0.5068,0.1012
2.5887,-1.1621,0.1101,0.1715,-0.5812,0.0647,0.9054,0.6575,-0.6571,-0.8205,-0.4919,0.0737,-0.8901,1.0038,-0.5068,0.1012
2.5887,-1.1621,0.1121,0.1719,-0.5049,0.0284,0.9093,0.6561,-0.6691,-0.823,-0.4881,0.0729,-0.893,0.9865,-0.5157,0.1085
2.5887,-1.1621,0.1121,0.1719,-0.5049,0.0284,0.9093,0.6561,-0.6691,-0.823,-0.4881,0.0729,-0.893,0.9865,-0.5157,0.1085
2.5662,-1.1296,0.1147,0.1716,-0.5135,0.0407,0.9071,0.6551,-0.693,-0.8281,-0.4859,0.0716,-0.9098,0.9787,-0.5307,0.1139
2.5662,-1.1296,0.1147,0.1716,-0.5135,0.0407,0.9071,0.6551,-0.693,-0.8281,-0.4859,0.0716,-0.9098,0.9787,-0.5307,0.1139
2.5662,-1.1296,0.1147,0.1716,-0.5135,0.0407,0.9071,0.6551,-0.693,-0.8281,-0.4859,0.0716,-0.9098,0.9787,-0.5307,0.1139
2.6659,-1.1649,0.1182,0.1715,-0.5532,0.0734,0.8986,0.6545,-0.7019,-0.8351,-0.4829,0.071,-0.921,0.9735,-0.5388,0.1146
2.6659,-1.1649,0.1182,0.1715,-0.5532,0.0734,0.8986,0.6545,-0.7019,-0.8351,-0.4829,0.071,-0.921,0.9735,-0.5388,0.1146
2.9452,-1.239,0.1242,0.1747,-0.6327,0.1389,0.8996,0.6487,-0.6895,-0.853,-0.4825,0.0751,-0.9308,0.977,-0.5418,0.1136
2.9452,-1.239,0.1242,0.1747,-0.6327,0.1389,0.8996,0.6487,-0.6895,-0.853,-0.4825,0.0751,-0.9308,0.977,-0.5418,0.1136
2.9452,-1.239,0.1242,0.1747,-0.6327,0.1389,0.8996,0.6487,-0.6895,-0.853,-0.4825,0.0751,-0.9308,0.977,-0.5418,0.1136
2.8772,-1.141,0.1261,0.177,-0.6553,0.1469,0.9091,0.6435,-0.6865,-0.8507,-0.4831,0.0769,-0.9308,0.977,-0.5399,0.1108
2.8772,-1.141,0.1261,0.177,-0.6553,0.1469,0.9091,0.6435,-0.6865,-0.8507,-0.4831,0.0769,-0.9308,0.977,-0.5399,0.1108
2.8772,-1.141,0.1261,0.177,-0.6553,0.1469,0.9091,0.6435,-0.6865,-0.8507,-0.4831,0.0769,-0.9308,0.977,-0.5399,0.1108
2.8772,-1.141,0.1261,0.177,-0.6553,0.1469,0.9091,0.6435,-0.6865,-0.8507,-0.4831,0.0769,-0.9308,0.977,-0.5399,0.1108
2.8772,-1.141,0.1261,0.177,-0.6553,0.1469,0.9091,0.6435,-0.6865,-0.8507,-0.4831,0.0769,-0.9308,0.977,-0.5399,0.1108
2.7306,-1.0396,0.1285,0.1802,-0.6295,0.1097,0.8895,0.6505,-0.6776,-0.8437,-0.4869,0.0778,-0.8762,0.9623,-0.5438,0.1164
2.7306,-1.0396,0.1285,0.1802,-0.6295,0.1097,0.8895,0.6505,-0.6776,-0.8437,-0.4869,0.0778,-0.8762,0.9623,-0.5438,0.1164
2.5934,-1.1147,0.1372,0.1795,-0.7077,0.1,0.8568,0.6548,-0.6745,-0.8481,-0.4866,0.0745,-0.9,0.9752,-0.548,0.1116
2.5934,-1.1147,0.1372,0.1795,-0.7077,0.1,0.8568,0.6548,-0.6745,-0.8481,-0.4866,0.0745,-0.9,0.9752,-0.548,0.1116
2.5934,-1.1147,0.1372,0.1795,-0.7077,0.1,0.8568,0.6548,-0.6745,-0.8481,-0.4866,0.0745,-0.9,0.9752,-0.548,0.1116
2.616,-1.1472,0.1391,0.1818,-0.7077,0.1,0.8499,0.6518,-0.6654,-0.8547,-0.4877,0.0733,-0.9336,0.9917,-0.5591,0.1113
2.616,-1.1472,0.1391,0.1818,-0.7077,0.1,0.8499,0.6518,-0.6654,-0.8547,-0.4877,0.0733,-0.9336,0.9917,-0.5591,0.1113
2.6659,-1.1649,0.1368,0.1885,-0.6938,0.1044,0.8409,0.6477,-0.6562,-0.8614,-0.4889,0.0732,-0.9616,1.0107,-0.5591,0.1113
2.6659,-1.1649,0.1368,0.1885,-0.6938,0.1044,0.8409,0.6477,-0.6562,-0.8614,-0.4889,0.0732,-0.9616,1.0107,-0.5591,0.1113
2.6708,-1.1174,0.134,0.1941,-0.7162,0.1123,0.8318,0.6437,-0.6531,-0.8658,-0.4925,0.0755,-0.9672,1.0081,-0.5572,0.1085
2.6708,-1.1174,0.134,0.1941,-0.7162,0.1123,0.8318,0.6437,-0.6531,-0.8658,-0.4925,0.0755,-0.9672,1.0081,-0.5572,0.1085
2.6983,-1.1025,0.1303,0.1978,-0.7024,0.1168,0.825,0.6407,-0.6654,-0.8547,-0.495,0.0753,-0.9686,0.9995,-0.5534,0.103
2.6983,-1.1025,0.1303,0.1978,-0.7024,0.1168,0.825,0.6407,-0.6654,-0.8547,-0.495,0.0753,-0.9686,0.9995,-0.5534,0.103
2.7031,-1.0547,0.1282,0.1991,-0.607,0.1017,0.8221,0.6363,-0.6867,-0.8439,-0.4975,0.0751,-0.97,0.9908,-0.5614,0.1037
2.7031,-1.0547,0.1282,0.1991,-0.607,0.1017,0.8221,0.6363,-0.6867,-0.8439,-0.4975,0.0751,-0.97,0.9908,-0.5614,0.1037
2.7031,-1.0547,0.1282,0.1991,-0.607,0.1017,0.8221,0.6363,-0.6867,-0.8439,-0.4975,0.0751,-0.97,0.9908,-0.5614,0.1037
2.7031,-1.0547,0.1282,0.1991,-0.607,0.1017,0.8221,0.6363,-0.6867,-0.8439,-0.4975,0.0751,-0.97,0.9908,-0.5614,0.1037
2.6574,-0.9888,0.1237,0.1972,-0.5079,0.0574,0.8008,0.6331,-0.7407,-0.845,-0.5028,0.0707,-0.9964,0.9546,-0.6067,0.1093
2.6574,-0.9888,0.1237,0.1972,-0.5079,0.0574,0.8008,0.6331,-0.7407,-0.845,-0.5028,0.0707,-0.9964,0.9546,-0.6067,0.1093
2.6803,-1.0218,0.1197,0.1962,-0.5564,0.1026,0.7878,0.6304,-0.7555,-0.8499,-0.5051,0.0683,-1.0215,0.9589,-0.6258,0.1097
2.6803,-1.0218,0.1197,0.1962,-0.5564,0.1026,0.7878,0.6304,-0.7555,-0.8499,-0.5051,0.0683,-1.0215,0.9589,-0.6258,0.1097
2.6803,-1.0218,0.1197,0.1962,-0.5564,0.1026,0.7878,0.6304,-0.7555,-0.8499,-0.5051,0.0683,-1.0215,0.9589,-0.6258,0.1097
2.6803,-1.0218,0.1197,0.1962,-0.5564,0.1026,0.7878,0.6304,-0.7555,-0.8499,-0.5051,0.0683,-1.0215,0.9589,-0.6258,0.1097
2.8267,-1.1231,0.11,0.1967,-0.6639,0.1593,0.7642,0.6262,-0.7523,-0.8611,-0.5161,0.07,-1.0312,0.9624,-0.6461,0.1064
2.8267,-1.1231,0.11,0.1967,-0.6639,0.1593,0.7642,0.6262,-0.7523,-0.8611,-0.5161,0.07,-1.0312,0.9624,-0.6461,0.1064
2.8267,-1.1231,0.11,0.1967,-0.6639,0.1593,0.7642,0.6262,-0.7523,-0.8611,-0.5161,0.07,-1.0312,0.9624,-0.6461,0.1064
2.6803,-1.0218,0.1023,0.1994,-0.7056,0.1459,0.7495,0.6134,-0.7464,-0.8565,-0.5281,0.0695,-1.0118,0.9555,-0.6483,0.0989
2.6803,-1.0218,0.1023,0.1994,-0.7056,0.1459,0.7495,0.6134,-0.7464,-0.8565,-0.5281,0.0695,-1.0118,0.9555,-0.6483,0.0989
2.5754,-1.0343,0.0982,0.2003,-0.7248,0.1247,0.7272,0.6159,-0.7493,-0.8588,-0.5362,0.0682,-0.9937,0.94,-0.6594,0.0986
2.5754,-1.0343,0.0982,0.2003,-0.7248,0.1247,0.7272,0.6159,-0.7493,-0.8588,-0.5362,0.0682,-0.9937,0.94,-0.6594,0.0986
2.3948,-1.0445,0.0962,0.1998,-0.8025,0.1149,0.6965,0.6178,-0.7583,-0.859,-0.5399,0.0642,-1.0173,0.9529,-0.6704,0.0983
2.3948,-1.0445,0.0962,0.1998,-0.8025,0.1149,0.6965,0.6178,-0.7583,-0.859,-0.5399,0.0642,-1.0173,0.9529,-0.6704,0.0983
2.3948,-1.0445,0.0962,0.1998,-0.8025,0.1149,0.6965,0.6178,-0.7583,-0.859,-0.5399,0.0642,-1.0173,0.9529,-0.6704,0.0983
2.3145,-1.0897,0.0927,0.1999,-0.8162,0.1105,0.672,0.6193,-0.7552,-0.8635,-0.5452,0.0623,-1.0354,0.9684,-0.6864,0.0998
2.3145,-1.0897,0.0927,0.1999,-0.8162,0.1105,0.672,0.6193,-0.7552,-0.8635,-0.5452,0.0623,-1.0354,0.9684,-0.6864,0.0998
2.3861,-1.1394,0.0886,0.2008,-0.8162,0.1105,0.6592,0.6166,-0.74,-0.8722,-0.5479,0.0606,-1.0549,0.9753,-0.6956,0.0968
2.3861,-1.1394,0.0886,0.2008,-0.8162,0.1105,0.6592,0.6166,-0.74,-0.8722,-0.5479,0.0606,-1.0549,0.9753,-0.6956,0.0968
2.4578,-1.1891,0.082,0.2019,-0.8162,0.1105,0.6525,0.6136,-0.7311,-0.872,-0.5505,0.0615,-1.0743,0.9821,-0.6936,0.094
2.4578,-1.1891,0.082,0.2019,-0.8162,0.1105,0.6525,0.6136,-0.7311,-0.872,-0.5505,0.0615,-1.0743,0.9821,-0.6936,0.094
2.4578,-1.1891,0.082,0.2019,-0.8162,0.1105,0.6525,0.6136,-0.7311,-0.872,-0.5505,0.0615,-1.0743,0.9821,-0.6936,0.094
2.5072,-1.2065,0.0753,0.2031,-0.8162,0.1105,0.6397,0.611,-0.7342,-0.8675,-0.5535,0.0632,-1.0895,0.983,-0.683,0.084
2.5343,-1.1917,0.0692,0.2035,-0.7939,0.1026,0.6352,0.609,-0.7434,-0.8542,-0.5557,0.0645,-1.1006,0.9778,-0.681,0.0812
2.5343,-1.1917,0.0692,0.2035,-0.7939,0.1026,0.6352,0.609,-0.7434,-0.8542,-0.5557,0.0645,-1.1006,0.9778,-0.681,0.0812
2.5343,-1.1917,0.0692,0.2035,-0.7939,0.1026,0.6352,0.609,-0.7434,-0.8542,-0.5557,0.0645,-1.1006,0.9778,-0.681,0.0812
2.5119,-1.1594,0.0642,0.2023,-0.7578,0.0991,0.6419,0.612,-0.7527,-0.8408,-0.5557,0.0645,-1.0964,0.9718,-0.6849,0.0868
2.539,-1.1445,0.0629,0.1993,-0.6991,0.0877,0.6614,0.6176,-0.7527,-0.8408,-0.5523,0.0633,-1.0922,0.9658,-0.6895,0.0988
2.539,-1.1445,0.0629,0.1993,-0.6991,0.0877,0.6614,0.6176,-0.7527,-0.8408,-0.5523,0.0633,-1.0922,0.9658,-0.6895,0.0988
2.5662,-1.1296,0.0681,0.1951,-0.6799,0.1088,0.6915,0.6249,-0.7496,-0.8452,-0.548,0.0617,-1.0728,0.9589,-0.6811,0.1084
2.5662,-1.1296,0.0681,0.1951,-0.6799,0.1088,0.6915,0.6249,-0.7496,-0.8452,-0.548,0.0617,-1.0728,0.9589,-0.6811,0.1084
2.7159,-1.1825,0.0728,0.1917,-0.7056,0.1459,0.7217,0.6322,-0.7374,-0.8563,-0.5442,0.0609,-1.0437,0.9486,-0.664,0.1107
2.7159,-1.1825,0.0728,0.1917,-0.7056,0.1459,0.7217,0.6322,-0.7374,-0.8563,-0.5442,0.0609,-1.0437,0.9486,-0.664,0.1107
2.8164,-1.218,0.0784,0.1903,-0.7195,0.1415,0.7592,0.6333,-0.7193,-0.8627,-0.5407,0.0634,-1.0215,0.9589,-0.6407,0.115
2.8494,-1.1558,0.086,0.1893,-0.7056,0.1459,0.8069,0.6327,-0.7194,-0.8559,-0.5351,0.0657,-1.0006,0.9607,-0.6136,0.1138
2.8494,-1.1558,0.086,0.1893,-0.7056,0.1459,0.8069,0.6327,-0.7194,-0.8559,-0.5351,0.0657,-1.0006,0.9607,-0.6136,0.1138
2.8494,-1.1558,0.086,0.1893,-0.7056,0.1459,0.8069,0.6327,-0.7194,-0.8559,-0.5351,0.0657,-1.0006,0.9607,-0.6136,0.1138
2.7811,-1.0574,0.0911,0.1887,-0.7056,0.1459,0.8384,0.6342,-0.7075,-0.8534,-0.5274,0.0677,-0.9602,0.9555,-0.5864,0.1126
2.7811,-1.0574,0.0911,0.1887,-0.7056,0.1459,0.8384,0.6342,-0.7075,-0.8534,-0.5274,0.0677,-0.9602,0.9555,-0.5864,0.1126
2.7811,-1.0574,0.0911,0.1887,-0.7056,0.1459,0.8384,0.6342,-0.7075,-0.8534,-0.5274,0.0677,-0.9602,0.9555,-0.5864,0.1126
2.63,-1.004,0.0958,0.1871,-0.7109,0.1291,0.8554,0.6354,-0.6895,-0.853,-0.5193,0.0691,-0.9099,0.9468,-0.5641,0.1131
2.4983,-1.0318,0.1015,0.1839,-0.7215,0.0956,0.8527,0.6436,-0.6867,-0.8439,-0.5114,0.0689,-0.8986,0.9519,-0.548,0.1116
2.4983,-1.0318,0.1015,0.1839,-0.7215,0.0956,0.8527,0.6436,-0.6867,-0.8439,-0.5114,0.0689,-0.8986,0.9519,-0.548,0.1116
2.4669,-1.0945,0.1087,0.1802,-0.7492,0.0868,0.8549,0.6446,-0.6717,-0.839,-0.5051,0.0683,-0.9056,0.9727,-0.5349,0.1091
2.4669,-1.0945,0.1087,0.1802,-0.7492,0.0868,0.8549,0.6446,-0.6717,-0.839,-0.5051,0.0683,-0.9056,0.9727,-0.5349,0.1091
2.4669,-1.0945,0.1087,0.1802,-0.7492,0.0868,0.8549,0.6446,-0.6717,-0.839,-0.5051,0.0683,-0.9056,0.9727,-0.5349,0.1091
2.4624,-1.1419,0.1123,0.1783,-0.7801,0.107,0.8555,0.648,-0.6385,-0.8406,-0.5015,0.0696,-0.9182,0.9908,-0.5338,0.1128
2.5614,-1.1769,0.1128,0.1793,-0.7663,0.1114,0.8578,0.649,-0.6112,-0.8468,-0.4964,0.0689,-0.9336,0.9917,-0.5218,0.1065
2.5839,-1.2093,0.1117,0.1809,-0.7439,0.1035,0.8634,0.6452,-0.5995,-0.8307,-0.494,0.0702,-0.9294,0.9856,-0.5037,0.1022
2.5839,-1.2093,0.1117,0.1809,-0.7439,0.1035,0.8634,0.6452,-0.5995,-0.8307,-0.494,0.0702,-0.9294,0.9856,-0.5037,0.1022
2.5839,-1.2093,0.1117,0.1809,-0.7439,0.1035,0.8634,0.6452,-0.5995,-0.8307,-0.494,0.0702,-0.9294,0.9856,-0.5037,0.1022
2.6385,-1.1797,0.1122,0.1819,-0.6628,0.0841,0.8729,0.64,-0.6029,-0.8125,-0.4924,0.0707,-0.9252,0.9796,-0.5018,0.0995
2.6385,-1.1797,0.1122,0.1819,-0.6628,0.0841,0.8729,0.64,-0.6029,-0.8125,-0.4924,0.0707,-0.9252,0.9796,-0.5018,0.0995
2.6385,-1.1797,0.1122,0.1819,-0.6628,0.0841,0.8729,0.64,-0.6029,-0.8125,-0.4924,0.0707,-0.9252,0.9796,-0.5018,0.0995
2.6385,-1.1797,0.1081,0.1827,-0.5867,0.048,0.8717,0.6333,-0.6061,-0.8011,-0.4908,0.0712,-0.9168,0.9675,-0.5118,0.103
2.6385,-1.1797,0.1081,0.1827,-0.5867,0.048,0.8717,0.6333,-0.6061,-0.8011,-0.4908,0.0712,-0.9168,0.9675,-0.5118,0.103
2.6385,-1.1797,0.1081,0.1827,-0.5867,0.048,0.8717,0.6333,-0.6061,-0.8011,-0.4908,0.0712,-0.9168,0.9675,-0.5118,0.103
2.5614,-1.1769,0.1036,0.1808,-0.5781,0.0356,0.857,0.633,-0.6332,-0.8086,-0.4878,0.0696,-0.9714,0.9503,-0.5668,0.1224
2.5614,-1.1769,0.1036,0.1808,-0.5781,0.0356,0.857,0.633,-0.6332,-0.8086,-0.4878,0.0696,-0.9714,0.9503,-0.5668,0.1224
2.5614,-1.1769,0.1036,0.1808,-0.5781,0.0356,0.857,0.633,-0.6332,-0.8086,-0.4878,0.0696,-0.9714,0.9503,-0.5668,0.1224
2.4624,-1.1419,0.1016,0.1803,-0.6092,0.0559,0.8453,0.6372,-0.6511,-0.8158,-0.4855,0.0683,-1.0076,0.9495,-0.588,0.1257
2.4894,-1.127,0.1037,0.179,-0.666,0.1132,0.8397,0.641,-0.6631,-0.8183,-0.4838,0.0676,-1.0229,0.9503,-0.5972,0.1227
2.4894,-1.127,0.1037,0.179,-0.666,0.1132,0.8397,0.641,-0.6631,-0.8183,-0.4838,0.0676,-1.0229,0.9503,-0.5972,0.1227
2.6385,-1.1797,0.1037,0.179,-0.7003,0.1628,0.8374,0.64,-0.66,-0.8228,-0.4843,0.0684,-1.0271,0.9564,-0.5983,0.1189
2.6385,-1.1797,0.1037,0.179,-0.7003,0.1628,0.8374,0.64,-0.66,-0.8228,-0.4843,0.0684,-1.0271,0.9564,-0.5983,0.1189
2.8389,-1.2505,0.1027,0.1788,-0.7539,0.1911,0.8329,0.6379,-0.6449,-0.8248,-0.4854,0.0709,-1.0215,0.9589,-0.5914,0.1143
2.8389,-1.2505,0.1027,0.1788,-0.7539,0.1911,0.8329,0.6379,-0.6449,-0.8248,-0.4854,0.0709,-1.0215,0.9589,-0.5914,0.1143
2.9903,-1.304,0.1006,0.1801,-0.7453,0.1787,0.8401,0.6318,-0.6359,-0.8246,-0.4879,0.0755,-1.0201,0.9675,-0.5833,0.1136
2.9903,-1.304,0.1006,0.1801,-0.7453,0.1787,0.8401,0.6318,-0.6359,-0.8246,-0.4879,0.0755,-1.0201,0.9675,-0.5833,0.1136
2.9733,-1.2243,0.0991,0.1806,-0.7453,0.1787,0.8434,0.627,-0.6268,-0.8244,-0.4903,0.0779,-1.0104,0.9641,-0.5795,0.108
2.9733,-1.2243,0.0991,0.1806,-0.7453,0.1787,0.8434,0.627,-0.6268,-0.8244,-0.4903,0.0779,-1.0104,0.9641,-0.5795,0.108
2.8595,-1.0603,0.0965,0.1809,-0.7367,0.1663,0.8411,0.626,-0.624,-0.8152,-0.4912,0.0793,-0.9909,0.9572,-0.5814,0.1108
2.8595,-1.0603,0.0965,0.1809,-0.7367,0.1663,0.8411,0.626,-0.624,-0.8152,-0.4912,0.0793,-0.9909,0.9572,-0.5814,0.1108
2.8595,-1.0603,0.0965,0.1809,-0.7367,0.1663,0.8411,0.626,-0.624,-0.8152,-0.4912,0.0793,-0.9909,0.9572,-0.5814,0.1108
2.7353,-0.9914,0.091,0.1806,-0.7334,0.1371,0.8232,0.6305,-0.6212,-0.806,-0.4933,0.0795,-0.9518,0.9434,-0.5883,0.1153
2.7353,-0.9914,0.091,0.1806,-0.7334,0.1371,0.8232,0.6305,-0.6212,-0.806,-0.4933,0.0795,-0.9518,0.9434,-0.5883,0.1153
2.6027,-1.0192,0.0865,0.1786,-0.7439,0.1035,0.7974,0.6378,-0.6243,-0.8015,-0.4958,0.0793,-0.9574,0.9408,-0.5975,0.1123
2.6027,-1.0192,0.0865,0.1786,-0.7439,0.1035,0.7974,0.6378,-0.6243,-0.8015,-0.4958,0.0793,-0.9574,0.9408,-0.5975,0.1123
2.4983,-1.0318,0.0872,0.1743,-0.7769,0.078,0.775,0.6404,-0.6274,-0.797,-0.4973,0.0777,-0.9714,0.9503,-0.6136,0.1138
2.5165,-1.1121,0.0852,0.172,-0.7821,0.0613,0.7598,0.6367,-0.6152,-0.8013,-0.4984,0.0765,-0.9992,0.9693,-0.6277,0.1125
2.5165,-1.1121,0.0852,0.172,-0.7821,0.0613,0.7598,0.6367,-0.6152,-0.8013,-0.4984,0.0765,-0.9992,0.9693,-0.6277,0.1125
2.5165,-1.1121,0.0852,0.172,-0.7821,0.0613,0.7598,0.6367,-0.6152,-0.8013,-0.4984,0.0765,-0.9992,0.9693,-0.6277,0.1125
2.5662,-1.1296,0.0812,0.1729,-0.7598,0.0534,0.7453,0.6365,-0.5969,-0.8078,-0.5004,0.0756,-1.0424,0.9891,-0.635,0.1067
2.5662,-1.1296,0.0812,0.1729,-0.7598,0.0534,0.7453,0.6365,-0.5969,-0.8078,-0.5004,0.0756,-1.0424,0.9891,-0.635,0.1067
2.616,-1.1472,0.0739,0.1766,-0.7683,0.0657,0.734,0.6314,-0.5938,-0.8123,-0.5041,0.0754,-1.0729,0.9908,-0.6422,0.1009
2.5934,-1.1147,0.0688,0.179,-0.7854,0.0903,0.7267,0.6251,-0.6031,-0.7988,-0.5084,0.0769,-1.0882,0.9916,-0.6384,0.0954
2.5934,-1.1147,0.0688,0.179,-0.7854,0.0903,0.7267,0.6251,-0.6031,-0.7988,-0.5084,0.0769,-1.0882,0.9916,-0.6384,0.0954
2.5934,-1.1147,0.0688,0.179,-0.7854,0.0903,0.7267,0.6251,-0.6031,-0.7988,-0.5084,0.0769,-1.0882,0.9916,-0.6384,0.0954
2.6708,-1.1174,0.0636,0.1814,-0.7045,0.071,0.72,0.622,-0.6186,-0.7831,-0.5118,0.077,-1.0951,0.9804,-0.6495,0.0951
2.6708,-1.1174,0.0636,0.1814,-0.7045,0.071,0.72,0.622,-0.6186,-0.7831,-0.5118,0.077,-1.0951,0.9804,-0.6495,0.0951
2.6708,-1.1174,0.0636,0.1814,-0.7045,0.071,0.72,0.622,-0.6186,-0.7831,-0.5118,0.077,-1.0951,0.9804,-0.6495,0.0951
2.6708,-1.1174,0.0636,0.1814,-0.7045,0.071,0.72,0.622,-0.6186,-0.7831,-0.5118,0.077,-1.0951,0.9804,-0.6495,0.0951
2.5981,-1.0671,0.0561,0.1806,-0.6457,0.0595,0.6981,0.6154,-0.6546,-0.7976,-0.5176,0.0732,-1.1461,0.9485,-0.7055,0.1003
2.5981,-1.0671,0.0561,0.1806,-0.6457,0.0595,0.6981,0.6154,-0.6546,-0.7976,-0.5176,0.0732,-1.1461,0.9485,-0.7055,0.1003
2.6434,-1.1323,0.0455,0.1808,-0.7782,0.1529,0.6624,0.6119,-0.6695,-0.8025,-0.5247,0.0731,-1.1777,0.9416,-0.7465,0.1002
2.6434,-1.1323,0.0455,0.1808,-0.7782,0.1529,0.6624,0.6119,-0.6695,-0.8025,-0.5247,0.0731,-1.1777,0.9416,-0.7465,0.1002
2.6434,-1.1323,0.0455,0.1808,-0.7782,0.1529,0.6624,0.6119,-0.6695,-0.8025,-0.5247,0.0731,-1.1777,0.9416,-0.7465,0.1002
2.7938,-1.1855,0.0383,0.1827,-0.7868,0.1653,0.6541,0.6112,-0.6695,-0.8025,-0.5296,0.0764,-1.1736,0.9356,-0.7624,0.1017
2.7938,-1.1855,0.0383,0.1827,-0.7868,0.1653,0.6541,0.6112,-0.6695,-0.8025,-0.5296,0.0764,-1.1736,0.9356,-0.7624,0.1017
2.7661,-1.2003,0.0328,0.1824,-0.8281,0.1519,0.6507,0.6035,-0.6666,-0.8002,-0.5349,0.0793,-1.1694,0.9297,-0.7665,0.0969
2.7661,-1.2003,0.0328,0.1824,-0.8281,0.1519,0.6507,0.6035,-0.6666,-0.8002,-0.5349,0.0793,-1.1694,0.9297,-0.7665,0.0969
2.7661,-1.2003,0.0328,0.1824,-0.8281,0.1519,0.6507,0.6035,-0.6666,-0.8002,-0.5349,0.0793,-1.1694,0.9297,-0.7665,0.0969
2.6708,-1.1174,0.0262,0.1835,-0.8419,0.1474,0.6479,0.5991,-0.6606,-0.7955,-0.5383,0.0805,-1.1446,0.9254,-0.7696,0.0959
2.6708,-1.1174,0.0262,0.1835,-0.8419,0.1474,0.6479,0.5991,-0.6606,-0.7955,-0.5383,0.0805,-1.1446,0.9254,-0.7696,0.0959
2.6708,-1.1174,0.0262,0.1835,-0.8419,0.1474,0.6479,0.5991,-0.6606,-0.7955,-0.5383,0.0805,-1.1446,0.9254,-0.7696,0.0959
2.3905,-1.0921,0.0178,0.1806,-0.8797,0.105,0.6397,0.611,-0.6666,-0.8002,-0.5415,0.0796,-1.0963,0.9083,-0.7676,0.0931
2.3905,-1.0921,0.0178,0.1806,-0.8797,0.105,0.6397,0.611,-0.6666,-0.8002,-0.5415,0.0796,-1.0963,0.9083,-0.7676,0.0931
2.2613,-1.1196,0.019,0.1755,-0.8849,0.0883,0.6536,0.6204,-0.6605,-0.8023,-0.5381,0.0783,-1.1074,0.9349,-0.7476,0.0964
2.2613,-1.1196,0.019,0.1755,-0.8849,0.0883,0.6536,0.6204,-0.6605,-0.8023,-0.5381,0.0783,-1.1074,0.9349,-0.7476,0.0964
2.2836,-1.1518,0.0227,0.1719,-0.8712,0.0928,0.686,0.6287,-0.6393,-0.8064,-0.533,0.0776,-1.0894,0.9512,-0.7165,0.1
2.2836,-1.1518,0.0227,0.1719,-0.8712,0.0928,0.686,0.6287,-0.6393,-0.8064,-0.533,0.0776,-1.0894,0.9512,-0.7165,0.1
2.3771,-1.2333,0.0268,0.1693,-0.8712,0.0928,0.7363,0.6324,-0.6179,-0.8174,-0.5275,0.0762,-1.0825,0.9623,-0.6754,0.1001
2.3771,-1.2333,0.0268,0.1693,-0.8712,0.0928,0.7363,0.6324,-0.6179,-0.8174,-0.5275,0.0762,-1.0825,0.9623,-0.6754,0.1001
2.4531,-1.236,0.0319,0.1686,-0.83,0.106,0.7795,0.6424,-0.6119,-0.8127,-0.522,0.0748,-1.0715,0.9675,-0.6292,0.0984
2.4531,-1.236,0.0319,0.1686,-0.83,0.106,0.7795,0.6424,-0.6119,-0.8127,-0.522,0.0748,-1.0715,0.9675,-0.6292,0.0984
2.4531,-1.236,0.0319,0.1686,-0.83,0.106,0.7795,0.6424,-0.6119,-0.8127,-0.522,0.0748,-1.0715,0.9675,-0.6292,0.0984
2.5072,-1.2065,0.038,0.1665,-0.7354,0.0912,0.8161,0.6493,-0.6093,-0.7966,-0.5149,0.0749,-1.0451,0.9718,-0.5898,0.1012
2.5072,-1.2065,0.038,0.1665,-0.7354,0.0912,0.8161,0.6493,-0.6093,-0.7966,-0.5149,0.0749,-1.0451,0.9718,-0.5898,0.1012
2.5839,-1.2093,0.0508,0.1631,-0.6038,0.0726,0.872,0.6584,-0.6093,-0.7966,-0.5006,0.0731,-1.0076,0.9495,-0.568,0.1186
2.5839,-1.2093,0.0508,0.1631,-0.6038,0.0726,0.872,0.6584,-0.6093,-0.7966,-0.5006,0.0731,-1.0076,0.9495,-0.568,0.1186
2.5839,-1.2093,0.0508,0.1631,-0.6038,0.0726,0.872,0.6584,-0.6093,-0.7966,-0.5006,0.0731,-1.0076,0.9495,-0.568,0.1186
2.6336,-1.2268,0.06,0.1599,-0.6349,0.0929,0.8845,0.6577,-0.6091,-0.8035,-0.4924,0.0707,-0.9978,0.946,-0.5638,0.1234
2.6336,-1.2268,0.06,0.1599,-0.6349,0.0929,0.8845,0.6577,-0.6091,-0.8035,-0.4924,0.0707,-0.9978,0.946,-0.5638,0.1234
2.6336,-1.2268,0.06,0.1599,-0.6349,0.0929,0.8845,0.6577,-0.6091,-0.8035,-0.4924,0.0707,-0.9978,0.946,-0.5638,0.1234
2.8613,-1.2829,0.0707,0.1579,-0.6606,0.1301,0.9008,0.6555,-0.5969,-0.8078,-0.4876,0.0722,-0.9769,0.9477,-0.5546,0.1265
2.9117,-1.3007,0.0742,0.1578,-0.697,0.1336,0.9143,0.6489,-0.5939,-0.8054,-0.485,0.0749,-0.9658,0.9529,-0.5415,0.124
2.7989,-1.138,0.0798,0.1564,-0.7281,0.1539,0.9324,0.6444,-0.5941,-0.7986,-0.482,0.0781,-0.9448,0.9546,-0.5284,0.1214
2.7989,-1.138,0.0798,0.1564,-0.7281,0.1539,0.9324,0.6444,-0.5941,-0.7986,-0.482,0.0781,-0.9448,0.9546,-0.5284,0.1214
2.7989,-1.138,0.0798,0.1564,-0.7281,0.1539,0.9324,0.6444,-0.5941,-0.7986,-0.482,0.0781,-0.9448,0.9546,-0.5284,0.1214
2.7078,-1.0066,0.0798,0.1564,-0.7195,0.1415,0.9397,0.6382,-0.5973,-0.7872,-0.478,0.0799,-0.9197,0.9503,-0.5164,0.1151
2.7078,-1.0066,0.0798,0.1564,-0.7195,0.1415,0.9397,0.6382,-0.5973,-0.7872,-0.478,0.0799,-0.9197,0.9503,-0.5164,0.1151
2.7078,-1.0066,0.0798,0.1564,-0.7195,0.1415,0.9397,0.6382,-0.5973,-0.7872,-0.478,0.0799,-0.9197,0.9503,-0.5164,0.1151
2.6116,-0.9227,0.0804,0.1556,-0.7024,0.1168,0.9357,0.6396,-0.5944,-0.7849,-0.474,0.0817,-0.8805,0.9364,-0.5114,0.1134
2.6116,-0.9227,0.0804,0.1556,-0.7024,0.1168,0.9357,0.6396,-0.5944,-0.7849,-0.474,0.0817,-0.8805,0.9364,-0.5114,0.1134
2.4529,-0.9663,0.0815,0.1523,-0.713,0.0833,0.917,0.6407,-0.6035,-0.7851,-0.4688,0.0836,-0.8665,0.9269,-0.5195,0.1141
2.4529,-0.9663,0.0815,0.1523,-0.713,0.0833,0.917,0.6407,-0.6035,-0.7851,-0.4688,0.0836,-0.8665,0.9269,-0.5195,0.1141
2.3187,-1.0422,0.0822,0.1479,-0.7513,0.0412,0.8961,0.6409,-0.6124,-0.7921,-0.465,0.0838,-0.8819,0.9278,-0.5268,0.1083
2.2613,-1.1196,0.0839,0.1438,-0.8012,0.0403,0.8814,0.6407,-0.6153,-0.7945,-0.461,0.0856,-0.9099,0.9468,-0.533,0.1063
2.2613,-1.1196,0.0839,0.1438,-0.8012,0.0403,0.8814,0.6407,-0.6153,-0.7945,-0.461,0.0856,-0.9099,0.9468,-0.533,0.1063
2.2836,-1.1518,0.085,0.1423,-0.7959,0.0569,0.8769,0.6387,-0.6061,-0.8011,-0.4599,0.0868,-0.9476,0.9692,-0.5441,0.106
2.2836,-1.1518,0.085,0.1423,-0.7959,0.0569,0.8769,0.6387,-0.6061,-0.8011,-0.4599,0.0868,-0.9476,0.9692,-0.5441,0.106
2.3816,-1.1865,0.0818,0.1451,-0.7907,0.0736,0.8706,0.639,-0.5908,-0.8099,-0.4595,0.0872,-0.9713,0.9822,-0.5472,0.105
2.3816,-1.1865,0.0818,0.1451,-0.7907,0.0736,0.8706,0.639,-0.5908,-0.8099,-0.4595,0.0872,-0.9713,0.9822,-0.5472,0.105
2.3816,-1.1865,0.0818,0.1451,-0.7907,0.0736,0.8706,0.639,-0.5908,-0.8099,-0.4595,0.0872,-0.9713,0.9822,-0.5472,0.105
2.4578,-1.1891,0.0786,0.1498,-0.7939,0.1026,0.8762,0.6353,-0.5817,-0.8098,-0.4609,0.0882,-0.9867,0.9831,-0.5403,0.1005
2.4578,-1.1891,0.0786,0.1498,-0.7939,0.1026,0.8762,0.6353,-0.5817,-0.8098,-0.4609,0.0882,-0.9867,0.9831,-0.5403,0.1005
2.4578,-1.1891,0.0786,0.1498,-0.7939,0.1026,0.8762,0.6353,-0.5817,-0.8098,-0.4609,0.0882,-0.9867,0.9831,-0.5403,0.1005
2.539,-1.1445,0.0758,0.1555,-0.7215,0.0956,0.8891,0.6253,-0.6036,-0.7782,-0.4639,0.0887,-0.9686,0.9675,-0.5214,0.0896
2.539,-1.1445,0.0758,0.1555,-0.7215,0.0956,0.8891,0.6253,-0.6036,-0.7782,-0.4639,0.0887,-0.9686,0.9675,-0.5214,0.0896
2.539,-1.1445,0.0758,0.1555,-0.7215,0.0956,0.8891,0.6253,-0.6036,-0.7782,-0.4639,0.0887,-0.9686,0.9675,-0.5214,0.0896
2.539,-1.1445,0.0758,0.1555,-0.7215,0.0956,0.8891,0.6253,-0.6036,-0.7782,-0.4639,0.0887,-0.9686,0.9675,-0.5214,0.0896
2.539,-1.1445,0.0758,0.1555,-0.7215,0.0956,0.8891,0.6253,-0.6036,-0.7782,-0.4639,0.0887,-0.9686,0.9675,-0.5214,0.0896
2.5934,-1.1147,0.0727,0.1583,-0.5781,0.0356,0.8833,0.6165,-0.6316,-0.7444,-0.4681,0.0891,-0.9406,0.9486,-0.5326,0.0894
2.5934,-1.1147,0.0727,0.1583,-0.5781,0.0356,0.8833,0.6165,-0.6316,-0.7444,-0.4681,0.0891,-0.9406,0.9486,-0.5326,0.0894
2.5934,-1.1147,0.0727,0.1583,-0.5781,0.0356,0.8833,0.6165,-0.6316,-0.7444,-0.4681,0.0891,-0.9406,0.9486,-0.5326,0.0894
2.4894,-1.127,0.0635,0.1598,-0.5385,0.003,0.854,0.6161,-0.6524,-0.761,-0.471,0.0849,-0.9951,0.9314,-0.5867,0.1022
2.4894,-1.127,0.0635,0.1598,-0.5385,0.003,0.854,0.6161,-0.6524,-0.761,-0.471,0.0849,-0.9951,0.9314,-0.5867,0.1022
2.4354,-1.1568,0.0595,0.1589,-0.6146,0.0392,0.8354,0.6172,-0.655,-0.7771,-0.472,0.0826,-1.0506,0.9375,-0.617,0.1024
2.4354,-1.1568,0.0595,0.1589,-0.6146,0.0392,0.8354,0.6172,-0.655,-0.7771,-0.472,0.0826,-1.0506,0.9375,-0.617,0.1024
2.4578,-1.1891,0.0576,0.1566,-0.7077,0.1,0.8208,0.617,-0.6517,-0.7884,-0.4745,0.0824,-1.0659,0.9383,-0.6331,0.1039
2.4578,-1.1891,0.0576,0.1566,-0.7077,0.1,0.8208,0.617,-0.6517,-0.7884,-0.4745,0.0824,-1.0659,0.9383,-0.6331,0.1039
2.4578,-1.1891,0.0576,0.1566,-0.7077,0.1,0.8208,0.617,-0.6517,-0.7884,-0.4745,0.0824,-1.0659,0.9383,-0.6331,0.1039
2.6336,-1.2268,0.0546,0.1559,-0.7782,0.1529,0.8084,0.6177,-0.6364,-0.7972,-0.4779,0.0836,-1.0756,0.9417,-0.6422,0.1009
2.6336,-1.2268,0.0546,0.1559,-0.7782,0.1529,0.8084,0.6177,-0.6364,-0.7972,-0.4779,0.0836,-1.0756,0.9417,-0.6422,0.1009
2.8838,-1.3152,0.0521,0.1562,-0.8006,0.1608,0.7961,0.6185,-0.6272,-0.8039,-0.4827,0.0858,-1.0811,0.9392,-0.6464,0.0961
3.007,-1.3831,0.0495,0.1565,-0.8367,0.1642,0.7854,0.6169,-0.6151,-0.8082,-0.4894,0.0898,-1.0853,0.9452,-0.6426,0.0906
3.007,-1.3831,0.0495,0.1565,-0.8367,0.1642,0.7854,0.6169,-0.6151,-0.8082,-0.4894,0.0898,-1.0853,0.9452,-0.6426,0.0906
3.1083,-1.4189,0.0469,0.1586,-0.8196,0.1395,0.7741,0.6119,-0.609,-0.8103,-0.4943,0.0931,-1.0756,0.9417,-0.6407,0.0878
3.1083,-1.4189,0.0469,0.1586,-0.8196,0.1395,0.7741,0.6119,-0.609,-0.8103,-0.4943,0.0931,-1.0756,0.9417,-0.6407,0.0878
3.1367,-1.4046,0.0433,0.1605,-0.8196,0.1395,0.7712,0.6075,-0.6151,-0.8082,-0.4978,0.0943,-1.0811,0.9392,-0.6418,0.0841
3.1367,-1.4046,0.0433,0.1605,-0.8196,0.1395,0.7712,0.6075,-0.6151,-0.8082,-0.4978,0.0943,-1.0811,0.9392,-0.6418,0.0841
3.0128,-1.3364,0.0392,0.1614,-0.8248,0.1228,0.7701,0.6008,-0.6241,-0.8084,-0.5011,0.0944,-1.0963,0.94,-0.654,0.08
3.0128,-1.3364,0.0392,0.1614,-0.8248,0.1228,0.7701,0.6008,-0.6241,-0.8084,-0.5011,0.0944,-1.0963,0.94,-0.654,0.08
3.0128,-1.3364,0.0392,0.1614,-0.8248,0.1228,0.7701,0.6008,-0.6241,-0.8084,-0.5011,0.0944,-1.0963,0.94,-0.654,0.08
2.8215,-1.1707,0.0332,0.1617,-0.8385,0.1183,0.7649,0.5954,-0.6364,-0.7972,-0.5034,0.0931,-1.0867,0.9366,-0.6669,0.0825
2.8215,-1.1707,0.0332,0.1617,-0.8385,0.1183,0.7649,0.5954,-0.6364,-0.7972,-0.5034,0.0931,-1.0867,0.9366,-0.6669,0.0825
2.8215,-1.1707,0.0332,0.1617,-0.8385,0.1183,0.7649,0.5954,-0.6364,-0.7972,-0.5034,0.0931,-1.0867,0.9366,-0.6669,0.0825
2.4713,-1.0469,0.0231,0.1612,-0.8267,0.077,0.7125,0.6032,-0.6608,-0.7886,-0.5093,0.0894,-1.0839,0.922,-0.7039,0.0872
2.4713,-1.0469,0.0231,0.1612,-0.8267,0.077,0.7125,0.6032,-0.6608,-0.7886,-0.5093,0.0894,-1.0839,0.922,-0.7039,0.0872
2.4713,-1.0469,0.0231,0.1612,-0.8267,0.077,0.7125,0.6032,-0.6608,-0.7886,-0.5093,0.0894,-1.0839,0.922,-0.7039,0.0872
2.3905,-1.0921,0.0202,0.1587,-0.8764,0.0761,0.6802,0.6074,-0.6608,-0.7886,-0.5113,0.0885,-1.1074,0.9349,-0.7229,0.0877
2.4578,-1.1891,0.0172,0.158,-0.8901,0.0717,0.6574,0.6065,-0.6577,-0.7931,-0.5124,0.0873,-1.1364,0.9451,-0.7449,0.0871
2.4578,-1.1891,0.0172,0.158,-0.8901,0.0717,0.6574,0.6065,-0.6577,-0.7931,-0.5124,0.0873,-1.1364,0.9451,-0.7449,0.0871
2.5072,-1.2065,0.0136,0.1599,-0.8764,0.0761,0.6391,0.6076,-0.6332,-0.8086,-0.5153,0.0867,-1.1612,0.9494,-0.76,0.0821
2.5566,-1.224,0.0089,0.1633,-0.8627,0.0805,0.633,0.608,-0.6179,-0.8174,-0.517,0.0873,-1.1805,0.9562,-0.763,0.0811
2.5566,-1.224,0.0089,0.1633,-0.8627,0.0805,0.633,0.608,-0.6179,-0.8174,-0.517,0.0873,-1.1805,0.9562,-0.763,0.0811
2.5566,-1.224,0.0089,0.1633,-0.8627,0.0805,0.633,0.608,-0.6179,-0.8174,-0.517,0.0873,-1.1805,0.9562,-0.763,0.0811
2.5343,-1.1917,0.0069,0.1646,-0.8797,0.105,0.6435,0.6096,-0.6149,-0.815,-0.5171,0.0884,-1.1764,0.9502,-0.7433,0.0741
2.5343,-1.1917,0.0069,0.1646,-0.8797,0.105,0.6435,0.6096,-0.6149,-0.815,-0.5171,0.0884,-1.1764,0.9502,-0.7433,0.0741
2.539,-1.1445,0.0069,0.1646,-0.8437,0.1016,0.6769,0.6121,-0.6305,-0.7925,-0.5139,0.0894,-1.1654,0.9553,-0.7133,0.0739
2.539,-1.1445,0.0069,0.1646,-0.8437,0.1016,0.6769,0.6121,-0.6305,-0.7925,-0.5139,0.0894,-1.1654,0.9553,-0.7133,0.0739
2.521,-1.0645,0.0119,0.164,-0.7578,0.0991,0.7255,0.6183,-0.634,-0.7743,-0.5093,0.0894,-1.1212,0.9443,-0.6803,0.0747
2.521,-1.0645,0.0119,0.164,-0.7578,0.0991,0.7255,0.6183,-0.634,-0.7743,-0.5093,0.0894,-1.1212,0.9443,-0.6803,0.0747
2.5482,-1.0494,0.0216,0.1617,-0.6317,0.0639,0.772,0.6234,-0.64,-0.7721,-0.5054,0.0875,-1.0922,0.934,-0.6559,0.0828
2.5482,-1.0494,0.0216,0.1617,-0.6317,0.0639,0.772,0.6234,-0.64,-0.7721,-0.5054,0.0875,-1.0922,0.934,-0.6559,0.0828
2.5482,-1.0494,0.0313,0.1595,-0.5641,0.04,0.8108,0.6313,-0.6428,-0.7814,-0.5013,0.0844,-1.07,0.9126,-0.6475,0.0923
2.5482,-1.0494,0.0313,0.1595,-0.5641,0.04,0.8108,0.6313,-0.6428,-0.7814,-0.5013,0.0844,-1.07,0.9126,-0.6475,0.0923
2.5482,-1.0494,0.0313,0.1595,-0.5641,0.04,0.8108,0.6313,-0.6428,-0.7814,-0.5013,0.0844,-1.07,0.9126,-0.6475,0.0923
2.5482,-1.0494,0.0313,0.1595,-0.5641,0.04,0.8108,0.6313,-0.6428,-0.7814,-0.5013,0.0844,-1.07,0.9126,-0.6475,0.0923
2.4939,-1.0795,0.0522,0.1545,-0.5952,0.0603,0.8706,0.639,-0.6364,-0.7972,-0.4829,0.0795,-1.0423,0.8938,-0.6289,0.1087
2.4939,-1.0795,0.0522,0.1545,-0.5952,0.0603,0.8706,0.639,-0.6364,-0.7972,-0.4829,0.0795,-1.0423,0.8938,-0.6289,0.1087
2.4669,-1.0945,0.0582,0.1541,-0.652,0.1177,0.8899,0.6413,-0.6333,-0.8017,-0.4745,0.0787,-1.0368,0.8964,-0.6178,0.109
2.4669,-1.0945,0.0582,0.1541,-0.652,0.1177,0.8899,0.6413,-0.6333,-0.8017,-0.4745,0.0787,-1.0368,0.8964,-0.6178,0.109
2.4669,-1.0945,0.0582,0.1541,-0.652,0.1177,0.8899,0.6413,-0.6333,-0.8017,-0.4745,0.0787,-1.0368,0.8964,-0.6178,0.109
2.5887,-1.1621,0.0653,0.1539,-0.695,0.1797,0.9029,0.6439,-0.6152,-0.8013,-0.4679,0.0795,-1.0284,0.916,-0.5956,0.1095
2.5887,-1.1621,0.0653,0.1539,-0.695,0.1797,0.9029,0.6439,-0.6152,-0.8013,-0.4679,0.0795,-1.0284,0.916,-0.5956,0.1095
2.5887,-1.1621,0.0653,0.1539,-0.695,0.1797,0.9029,0.6439,-0.6152,-0.8013,-0.4679,0.0795,-1.0284,0.916,-0.5956,0.1095
2.8946,-1.2211,0.0789,0.1561,-0.7417,0.2714,0.9262,0.6447,-0.588,-0.8008,-0.4617,0.0837,-0.9937,0.94,-0.5634,0.1065
2.8946,-1.2211,0.0789,0.1561,-0.7417,0.2714,0.9262,0.6447,-0.588,-0.8008,-0.4617,0.0837,-0.9937,0.94,-0.5634,0.1065
3.0693,-1.3074,0.0844,0.1565,-0.7244,0.2465,0.9363,0.643,-0.582,-0.7961,-0.4609,0.0882,-0.9728,0.9417,-0.5522,0.1068
3.0693,-1.3074,0.0844,0.1565,-0.7244,0.2465,0.9363,0.643,-0.582,-0.7961,-0.4609,0.0882,-0.9728,0.9417,-0.5522,0.1068
3.0241,-1.2422,0.0894,0.1577,-0.7157,0.234,0.9561,0.636,-0.5759,-0.7982,-0.4605,0.0923,-0.9672,0.9443,-0.5372,0.1015
3.0241,-1.2422,0.0894,0.1577,-0.7157,0.234,0.9561,0.636,-0.5759,-0.7982,-0.4605,0.0923,-0.9672,0.9443,-0.5372,0.1015
3.0241,-1.2422,0.0894,0.1577,-0.7157,0.234,0.9561,0.636,-0.5759,-0.7982,-0.4605,0.0923,-0.9672,0.9443,-0.5372,0.1015
2.9507,-1.1916,0.0924,0.1584,-0.6898,0.1966,0.9712,0.627,-0.5729,-0.7959,-0.4586,0.0943,-0.9477,0.9374,-0.5253,0.0952
2.8039,-1.0903,0.0929,0.1594,-0.6639,0.1593,0.9729,0.6246,-0.576,-0.7914,-0.4566,0.0952,-0.9239,0.9245,-0.5164,0.0879
2.8039,-1.0903,0.0929,0.1594,-0.6639,0.1593,0.9729,0.6246,-0.576,-0.7914,-0.4566,0.0952,-0.9239,0.9245,-0.5164,0.0879
2.6528,-1.0369,0.0939,0.1578,-0.6606,0.1301,0.9588,0.6278,-0.5822,-0.7892,-0.455,0.0957,-0.9058,0.909,-0.5207,0.0831
2.6528,-1.0369,0.0939,0.1578,-0.6606,0.1301,0.9588,0.6278,-0.5822,-0.7892,-0.455,0.0957,-0.9058,0.909,-0.5207,0.0831
2.6528,-1.0369,0.0939,0.1578,-0.6606,0.1301,0.9588,0.6278,-0.5822,-0.7892,-0.455,0.0957,-0.9058,0.909,-0.5207,0.0831
2.4669,-1.0945,0.0905,0.1561,-0.7301,0.1079,0.9328,0.6352,-0.5853,-0.7847,-0.453,0.0966,-0.8918,0.8995,-0.5307,0.0866
2.4669,-1.0945,0.0905,0.1561,-0.7301,0.1079,0.9328,0.6352,-0.5853,-0.7847,-0.453,0.0966,-0.8918,0.8995,-0.5307,0.0866
2.337,-1.122,0.0916,0.1546,-0.7887,0.1193,0.9125,0.6387,-0.5762,-0.7845,-0.45,0.096,-0.9141,0.921,-0.5357,0.0884
2.337,-1.122,0.0916,0.1546,-0.7887,0.1193,0.9125,0.6387,-0.5762,-0.7845,-0.45,0.096,-0.9141,0.921,-0.5357,0.0884
2.337,-1.122,0.0916,0.1546,-0.7887,0.1193,0.9125,0.6387,-0.5762,-0.7845,-0.45,0.096,-0.9141,0.921,-0.5357,0.0884
2.3816,-1.1865,0.0914,0.1581,-0.8025,0.1149,0.8978,0.6385,-0.5395,-0.7975,-0.4491,0.0957,-0.9574,0.9408,-0.5368,0.0846
2.4531,-1.236,0.0902,0.1615,-0.7887,0.1193,0.8988,0.6327,-0.5457,-0.7884,-0.4507,0.0953,-0.9769,0.9477,-0.5199,0.0765
2.4531,-1.236,0.0902,0.1615,-0.7887,0.1193,0.8988,0.6327,-0.5457,-0.7884,-0.4507,0.0953,-0.9769,0.9477,-0.5199,0.0765
2.4531,-1.236,0.0902,0.1615,-0.7887,0.1193,0.8988,0.6327,-0.5457,-0.7884,-0.4507,0.0953,-0.9769,0.9477,-0.5199,0.0765
2.5072,-1.2065,0.0901,0.165,-0.7525,0.1158,0.8926,0.6331,-0.5553,-0.768,-0.4524,0.0948,-0.9825,0.9452,-0.5099,0.073
2.5072,-1.2065,0.0901,0.165,-0.7525,0.1158,0.8926,0.6331,-0.5553,-0.768,-0.4524,0.0948,-0.9825,0.9452,-0.5099,0.073
2.5614,-1.1769,0.0895,0.1676,-0.6713,0.0965,0.8886,0.6345,-0.5708,-0.7523,-0.4545,0.095,-0.9881,0.9426,-0.5149,0.0747
2.5614,-1.1769,0.0895,0.1676,-0.6713,0.0965,0.8886,0.6345,-0.5708,-0.7523,-0.4545,0.095,-0.9881,0.9426,-0.5149,0.0747
2.5662,-1.1296,0.0874,0.1689,-0.6038,0.0726,0.8824,0.6349,-0.5832,-0.741,-0.4566,0.0952,-0.9937,0.94,-0.5337,0.0856
2.5662,-1.1296,0.0874,0.1689,-0.6038,0.0726,0.8824,0.6349,-0.5832,-0.741,-0.4566,0.0952,-0.9937,0.94,-0.5337,0.0856
2.5662,-1.1296,0.0874,0.1689,-0.6038,0.0726,0.8824,0.6349,-0.5832,-0.741,-0.4566,0.0952,-0.9937,0.94,-0.5337,0.0856
2.5662,-1.1296,0.0849,0.1692,-0.5672,0.069,0.8762,0.6353,-0.5831,-0.7479,-0.4582,0.0947,-1.0062,0.9263,-0.5656,0.099
2.539,-1.1445,0.0814,0.1675,-0.5727,0.0523,0.8649,0.6302,-0.589,-0.7527,-0.4567,0.0926,-1.009,0.9092,-0.5956,0.1095
2.539,-1.1445,0.0814,0.1675,-0.5727,0.0523,0.8649,0.6302,-0.589,-0.7527,-0.4567,0.0926,-1.009,0.9092,-0.5956,0.1095
2.5119,-1.1594,0.0789,0.166,-0.6263,0.0806,0.8558,0.6262,-0.595,-0.7574,-0.4561,0.0908,-1.0354,0.9049,-0.6178,0.109
2.5119,-1.1594,0.0789,0.166,-0.6263,0.0806,0.8558,0.6262,-0.595,-0.7574,-0.4561,0.0908,-1.0354,0.9049,-0.6178,0.109
2.6112,-1.1945,0.0775,0.163,-0.6885,0.1212,0.8467,0.6222,-0.5766,-0.7639,-0.4574,0.0907,-1.0354,0.9049,-0.622,0.1042
2.6112,-1.1945,0.0775,0.163,-0.6885,0.1212,0.8467,0.6222,-0.5766,-0.7639,-0.4574,0.0907,-1.0354,0.9049,-0.622,0.1042
2.8335,-1.2974,0.0745,0.1623,-0.7419,0.1494,0.8354,0.6172,-0.5766,-0.7639,-0.4612,0.0915,-1.0409,0.9023,-0.6372,0.0992
2.8335,-1.2974,0.0745,0.1623,-0.7419,0.1494,0.8354,0.6172,-0.5766,-0.7639,-0.4612,0.0915,-1.0409,0.9023,-0.6372,0.0992
2.9117,-1.3007,0.0715,0.1634,-0.7782,0.1529,0.8303,0.6118,-0.5737,-0.7615,-0.4669,0.094,-1.0548,0.9118,-0.6395,0.0916
2.9117,-1.3007,0.0715,0.1634,-0.7782,0.1529,0.8303,0.6118,-0.5737,-0.7615,-0.4669,0.094,-1.0548,0.9118,-0.6395,0.0916
2.8946,-1.2211,0.0688,0.1655,-0.8006,0.1608,0.829,0.6051,-0.5798,-0.7593,-0.4728,0.0951,-1.0548,0.9118,-0.6418,0.0841
2.8946,-1.2211,0.0688,0.1655,-0.8006,0.1608,0.829,0.6051,-0.5798,-0.7593,-0.4728,0.0951,-1.0548,0.9118,-0.6418,0.0841
2.8267,-1.1231,0.0652,0.1674,-0.8058,0.144,0.8177,0.6001,-0.5769,-0.7501,-0.4762,0.0952,-1.034,0.9135,-0.6399,0.0813
2.8267,-1.1231,0.0652,0.1674,-0.8058,0.144,0.8177,0.6001,-0.5769,-0.7501,-0.4762,0.0952,-1.034,0.9135,-0.6399,0.0813
2.6803,-1.0218,0.0612,0.1682,-0.7887,0.1193,0.7992,0.6012,-0.5769,-0.7501,-0.4804,0.0956,-1.0049,0.9032,-0.6441,0.0765
2.6803,-1.0218,0.0612,0.1682,-0.7887,0.1193,0.7992,0.6012,-0.5769,-0.7501,-0.4804,0.0956,-1.0049,0.9032,-0.6441,0.0765
2.4983,-1.0318,0.0567,0.1663,-0.8215,0.0937,0.7645,0.6045,-0.586,-0.7503,-0.4838,0.0958,-1.0007,0.8972,-0.6582,0.0752
2.4983,-1.0318,0.0567,0.1663,-0.8215,0.0937,0.7645,0.6045,-0.586,-0.7503,-0.4838,0.0958,-1.0007,0.8972,-0.6582,0.0752
2.337,-1.122,0.0548,0.1623,-0.8816,0.0594,0.7354,0.604,-0.592,-0.755,-0.4861,0.0945,-1.016,0.898,-0.6703,0.0712
2.337,-1.122,0.0548,0.1623,-0.8816,0.0594,0.7354,0.604,-0.592,-0.755,-0.4861,0.0945,-1.016,0.898,-0.6703,0.0712
2.2836,-1.1518,0.0529,0.16,-0.9174,0.0629,0.7125,0.6032,-0.592,-0.755,-0.489,0.0939,-1.0437,0.9169,-0.6844,0.0699
2.2836,-1.1518,0.0529,0.16,-0.9174,0.0629,0.7125,0.6032,-0.592,-0.755,-0.489,0.0939,-1.0437,0.9169,-0.6844,0.0699
2.2836,-1.1518,0.0529,0.16,-0.9174,0.0629,0.7125,0.6032,-0.592,-0.755,-0.489,0.0939,-1.0437,0.9169,-0.6844,0.0699
2.3281,-1.216,0.0395,0.1659,-0.9174,0.0629,0.6846,0.5969,-0.5644,-0.7682,-0.4974,0.0947,-1.1019,0.9374,-0.7076,0.0656
2.3281,-1.216,0.0395,0.1659,-0.9174,0.0629,0.6846,0.5969,-0.5644,-0.7682,-0.4974,0.0947,-1.1019,0.9374,-0.7076,0.0656
2.3281,-1.216,0.0395,0.1659,-0.9174,0.0629,0.6846,0.5969,-0.5644,-0.7682,-0.4974,0.0947,-1.1019,0.9374,-0.7076,0.0656
2.3281,-1.216,0.0395,0.1659,-0.9174,0.0629,0.6846,0.5969,-0.5644,-0.7682,-0.4974,0.0947,-1.1019,0.9374,-0.7076,0.0656
2.3771,-1.2333,0.0308,0.1702,-0.9174,0.0629,0.6734,0.5919,-0.5675,-0.7637,-0.5003,0.0952,-1.1171,0.9383,-0.7019,0.0574
2.3771,-1.2333,0.0308,0.1702,-0.9174,0.0629,0.6734,0.5919,-0.5675,-0.7637,-0.5003,0.0952,-1.1171,0.9383,-0.7019,0.0574
2.4801,-1.2212,0.0184,0.1763,-0.8457,0.056,0.6638,0.5846,-0.5831,-0.7479,-0.5063,0.0963,-1.1143,0.9237,-0.6942,0.0464
2.4801,-1.2212,0.0184,0.1763,-0.8457,0.056,0.6638,0.5846,-0.5831,-0.7479,-0.5063,0.0963,-1.1143,0.9237,-0.6942,0.0464
2.5343,-1.1917,0.0159,0.1766,-0.7651,0.0368,0.6677,0.5832,-0.6016,-0.7346,-0.5083,0.0954,-1.0963,0.9083,-0.6992,0.0481
2.5343,-1.1917,0.0159,0.1766,-0.7651,0.0368,0.6677,0.5832,-0.6016,-0.7346,-0.5083,0.0954,-1.0963,0.9083,-0.6992,0.0481
2.5343,-1.1917,0.0159,0.1766,-0.7651,0.0368,0.6677,0.5832,-0.6016,-0.7346,-0.5083,0.0954,-1.0963,0.9083,-0.6992,0.0481
2.5343,-1.1917,0.0161,0.173,-0.6534,-0.0027,0.6867,0.5854,-0.6107,-0.7348,-0.5069,0.0944,-1.0922,0.9024,-0.7019,0.0574
2.5343,-1.1917,0.0161,0.173,-0.6534,-0.0027,0.6867,0.5854,-0.6107,-0.7348,-0.5069,0.0944,-1.0922,0.9024,-0.7019,0.0574
2.5343,-1.1917,0.0178,0.1689,-0.5721,-0.0222,0.7152,0.595,-0.6135,-0.744,-0.5038,0.0928,-1.0839,0.8904,-0.7034,0.0704
2.5343,-1.1917,0.0178,0.1689,-0.5721,-0.0222,0.7152,0.595,-0.6135,-0.744,-0.5038,0.0928,-1.0839,0.8904,-0.7034,0.0704
2.5072,-1.2065,0.022,0.1645,-0.5806,-0.0099,0.7477,0.6033,-0.6191,-0.7625,-0.4981,0.0891,-1.0894,0.8879,-0.6981,0.079
2.5072,-1.2065,0.022,0.1645,-0.5806,-0.0099,0.7477,0.6033,-0.6191,-0.7625,-0.4981,0.0891,-1.0894,0.8879,-0.6981,0.079
2.4848,-1.1742,0.0318,0.1587,-0.6146,0.0392,0.7848,0.6135,-0.6221,-0.7649,-0.4908,0.0871,-1.0728,0.8955,-0.6749,0.0833
2.4848,-1.1742,0.0318,0.1587,-0.6146,0.0392,0.7848,0.6135,-0.6221,-0.7649,-0.4908,0.0871,-1.0728,0.8955,-0.6749,0.0833
2.4848,-1.1742,0.0318,0.1587,-0.6146,0.0392,0.7848,0.6135,-0.6221,-0.7649,-0.4908,0.0871,-1.0728,0.8955,-0.6749,0.0833
2.661,-1.2121,0.04,0.1552,-0.6746,0.1256,0.8197,0.6228,-0.6099,-0.7692,-0.4846,0.0876,-1.0562,0.9032,-0.6517,0.0876
2.8613,-1.2829,0.0482,0.1518,-0.7228,0.1707,0.8535,0.6252,-0.5886,-0.7733,-0.4777,0.0899,-1.0437,0.9169,-0.6215,0.0873
2.8613,-1.2829,0.0482,0.1518,-0.7228,0.1707,0.8535,0.6252,-0.5886,-0.7733,-0.4777,0.0899,-1.0437,0.9169,-0.6215,0.0873
3.0918,-1.3399,0.0558,0.1508,-0.7539,0.1911,0.8835,0.6291,-0.5672,-0.7774,-0.4727,0.094,-1.0173,0.9212,-0.5944,0.0861
3.0918,-1.3399,0.0558,0.1508,-0.7539,0.1911,0.8835,0.6291,-0.5672,-0.7774,-0.4727,0.094,-1.0173,0.9212,-0.5944,0.0861
3.0918,-1.3399,0.0629,0.1507,-0.7453,0.1787,0.9162,0.6248,-0.549,-0.777,-0.4677,0.0981,-1.0006,0.9289,-0.5622,0.0831
3.0918,-1.3399,0.0629,0.1507,-0.7453,0.1787,0.9162,0.6248,-0.549,-0.777,-0.4677,0.0981,-1.0006,0.9289,-0.5622,0.0831
3.0693,-1.3074,0.0684,0.151,-0.7591,0.1742,0.9467,0.6194,-0.5368,-0.7814,-0.463,0.1006,-0.9895,0.934,-0.543,0.0826
3.0693,-1.3074,0.0684,0.151,-0.7591,0.1742,0.9467,0.6194,-0.5368,-0.7814,-0.463,0.1006,-0.9895,0.934,-0.543,0.0826
2.8999,-1.1737,0.0734,0.1522,-0.7505,0.1618,0.9766,0.6106,-0.543,-0.7723,-0.4594,0.102,-0.9742,0.9331,-0.5268,0.081
2.8999,-1.1737,0.0734,0.1522,-0.7505,0.1618,0.9766,0.6106,-0.543,-0.7723,-0.4594,0.102,-0.9742,0.9331,-0.5268,0.081
2.7859,-1.0093,0.079,0.1526,-0.7195,0.1415,0.9947,0.606,-0.5432,-0.7654,-0.4551,0.1016,-0.9393,0.9253,-0.5137,0.0785
2.7859,-1.0093,0.079,0.1526,-0.7195,0.1415,0.9947,0.606,-0.5432,-0.7654,-0.4551,0.1016,-0.9393,0.9253,-0.5137,0.0785
2.6389,-0.9073,0.0815,0.1523,-0.6885,0.1212,0.9931,0.6084,-0.5463,-0.7609,-0.4513,0.1008,-0.8946,0.9141,-0.5095,0.0833
2.6389,-0.9073,0.0815,0.1523,-0.6885,0.1212,0.9931,0.6084,-0.5463,-0.7609,-0.4513,0.1008,-0.8946,0.9141,-0.5095,0.0833
2.557,-0.9534,0.0852,0.1504,-0.6852,0.0921,0.9717,0.6178,-0.5556,-0.7542,-0.4491,0.0995,-0.8806,0.9046,-0.5145,0.0851
2.557,-0.9534,0.0852,0.1504,-0.6852,0.0921,0.9717,0.6178,-0.5556,-0.7542,-0.4491,0.0995,-0.8806,0.9046,-0.5145,0.0851
2.4486,-1.0143,0.0908,0.1472,-0.7045,0.071,0.9513,0.6214,-0.5677,-0.7568,-0.4467,0.097,-0.896,0.9055,-0.5187,0.0803
2.4486,-1.0143,0.0908,0.1472,-0.7045,0.071,0.9513,0.6214,-0.5677,-0.7568,-0.4467,0.097,-0.896,0.9055,-0.5187,0.0803
2.4399,-1.1095,0.095,0.1446,-0.7545,0.0701,0.9365,0.6212,-0.5677,-0.7568,-0.445,0.0964,-0.9239,0.9245,-0.5268,0.081
2.4399,-1.1095,0.095,0.1446,-0.7545,0.0701,0.9365,0.6212,-0.5677,-0.7568,-0.445,0.0964,-0.9239,0.9245,-0.5268,0.081
2.5614,-1.1769,0.0975,0.1443,-0.7407,0.0745,0.9264,0.623,-0.5463,-0.7609,-0.4433,0.0958,-0.9574,0.9408,-0.5411,0.0798
2.5614,-1.1769,0.0975,0.1443,-0.7407,0.0745,0.9264,0.623,-0.5463,-0.7609,-0.4433,0.0958,-0.9574,0.9408,-0.5411,0.0798
2.5614,-1.1769,0.0949,0.1464,-0.7492,0.0868,0.9218,0.621,-0.5248,-0.7719,-0.442,0.0959,-0.9769,0.9477,-0.5422,0.076
2.5614,-1.1769,0.0949,0.1464,-0.7492,0.0868,0.9218,0.621,-0.5248,-0.7719,-0.442,0.0959,-0.9769,0.9477,-0.5422,0.076
2.6112,-1.1945,0.0922,0.1502,-0.7354,0.0912,0.9212,0.6176,-0.5157,-0.7718,-0.4433,0.0958,-0.9881,0.9426,-0.5384,0.0705
2.6112,-1.1945,0.0922,0.1502,-0.7354,0.0912,0.9212,0.6176,-0.5157,-0.7718,-0.4433,0.0958,-0.9881,0.9426,-0.5384,0.0705
2.6434,-1.1323,0.0905,0.1543,-0.7301,0.1079,0.9228,0.6152,-0.5188,-0.7672,-0.4474,0.0951,-0.9992,0.9374,-0.5315,0.066
2.6434,-1.1323,0.0905,0.1543,-0.7301,0.1079,0.9228,0.6152,-0.5188,-0.7672,-0.4474,0.0951,-0.9992,0.9374,-0.5315,0.066
2.6434,-1.1323,0.0899,0.1569,-0.6628,0.0841,0.9262,0.6104,-0.5375,-0.7469,-0.4506,0.0941,-0.9909,0.9254,-0.5245,0.0614
2.6434,-1.1323,0.0899,0.1569,-0.6628,0.0841,0.9262,0.6104,-0.5375,-0.7469,-0.4506,0.0941,-0.9909,0.9254,-0.5245,0.0614
2.6983,-1.1025,0.0918,0.1592,-0.5672,0.069,0.9278,0.608,-0.5498,-0.7426,-0.455,0.092,-0.9784,0.9074,-0.5395,0.0667
2.6983,-1.1025,0.0918,0.1592,-0.5672,0.069,0.9278,0.608,-0.5498,-0.7426,-0.455,0.092,-0.9784,0.9074,-0.5395,0.0667
2.7258,-1.0875,0.0949,0.1598,-0.4994,0.0451,0.9216,0.6084,-0.5649,-0.7475,-0.4585,0.0895,-0.9812,0.8903,-0.5576,0.071
2.7258,-1.0875,0.0949,0.1598,-0.4994,0.0451,0.9216,0.6084,-0.5649,-0.7475,-0.4585,0.0895,-0.9812,0.8903,-0.5576,0.071
2.7258,-1.0875,0.0949,0.1598,-0.4994,0.0451,0.9216,0.6084,-0.5649,-0.7475,-0.4585,0.0895,-0.9812,0.8903,-0.5576,0.071
2.6708,-1.1174,0.0944,0.1588,-0.5135,0.0407,0.9108,0.6068,-0.5829,-0.7548,-0.4603,0.0864,-1.0049,0.8715,-0.5867,0.075
2.6708,-1.1174,0.0944,0.1588,-0.5135,0.0407,0.9108,0.6068,-0.5829,-0.7548,-0.4603,0.0864,-1.0049,0.8715,-0.5867,0.075
2.6708,-1.1174,0.0944,0.1588,-0.5135,0.0407,0.9108,0.6068,-0.5829,-0.7548,-0.4603,0.0864,-1.0049,0.8715,-0.5867,0.075
2.6884,-1.1973,0.0874,0.1572,-0.6831,0.138,0.887,0.6026,-0.595,-0.7574,-0.4623,0.0818,-1.0243,0.8784,-0.6139,0.0763
2.6884,-1.1973,0.0874,0.1572,-0.6831,0.138,0.887,0.6026,-0.595,-0.7574,-0.4623,0.0818,-1.0243,0.8784,-0.6139,0.0763
2.8389,-1.2505,0.0813,0.1576,-0.7228,0.1707,0.8724,0.6024,-0.5828,-0.7617,-0.466,0.0815,-1.0423,0.8938,-0.6162,0.0687
2.8389,-1.2505,0.0813,0.1576,-0.7228,0.1707,0.8724,0.6024,-0.5828,-0.7617,-0.466,0.0815,-1.0423,0.8938,-0.6162,0.0687
2.8389,-1.2505,0.0813,0.1576,-0.7228,0.1707,0.8724,0.6024,-0.5828,-0.7617,-0.466,0.0815,-1.0423,0.8938,-0.6162,0.0687
3.0128,-1.3364,0.0758,0.1572,-0.7677,0.1866,0.8554,0.6011,-0.5768,-0.757,-0.4721,0.0837,-1.0368,0.8964,-0.6223,0.0667
3.0128,-1.3364,0.0758,0.1572,-0.7677,0.1866,0.8554,0.6011,-0.5768,-0.757,-0.4721,0.0837,-1.0368,0.8964,-0.6223,0.0667
3.1652,-1.3902,0.0657,0.1567,-0.773,0.1697,0.8356,0.5955,-0.5584,-0.7635,-0.4847,0.0886,-1.0451,0.9083,-0.6375,0.0617
3.1652,-1.3902,0.0657,0.1567,-0.773,0.1697,0.8356,0.5955,-0.5584,-0.7635,-0.4847,0.0886,-1.0451,0.9083,-0.6375,0.0617
3.1652,-1.3902,0.0657,0.1567,-0.773,0.1697,0.8356,0.5955,-0.5584,-0.7635,-0.4847,0.0886,-1.0451,0.9083,-0.6375,0.0617
3.0635,-1.3543,0.0617,0.1558,-0.7782,0.1529,0.8361,0.5864,-0.5614,-0.7658,-0.4923,0.0903,-1.0562,0.9032,-0.6448,0.0559
3.0635,-1.3543,0.0617,0.1558,-0.7782,0.1529,0.8361,0.5864,-0.5614,-0.7658,-0.4923,0.0903,-1.0562,0.9032,-0.6448,0.0559
2.9172,-1.2536,0.0571,0.1556,-0.7611,0.1282,0.8365,0.5773,-0.5675,-0.7637,-0.4968,0.0892,-1.0617,0.9006,-0.6478,0.0549
2.9172,-1.2536,0.0571,0.1556,-0.7611,0.1282,0.8365,0.5773,-0.5675,-0.7637,-0.4968,0.0892,-1.0617,0.9006,-0.6478,0.0549
2.9172,-1.2536,0.0571,0.1556,-0.7611,0.1282,0.8365,0.5773,-0.5675,-0.7637,-0.4968,0.0892,-1.0617,0.9006,-0.6478,0.0549
2.7534,-1.0725,0.0556,0.1562,-0.7301,0.1079,0.8346,0.5672,-0.5766,-0.7639,-0.5012,0.087,-1.0673,0.8981,-0.647,0.0484
2.7534,-1.0725,0.0556,0.1562,-0.7301,0.1079,0.8346,0.5672,-0.5766,-0.7639,-0.5012,0.087,-1.0673,0.8981,-0.647,0.0484
2.7534,-1.0725,0.0556,0.1562,-0.7301,0.1079,0.8346,0.5672,-0.5766,-0.7639,-0.5012,0.087,-1.0673,0.8981,-0.647,0.0484
2.4611,-0.8696,0.0485,0.1581,-0.6906,0.0754,0.7986,0.5638,-0.6039,-0.7645,-0.5114,0.0811,-1.0161,0.8665,-0.6714,0.0404
2.4611,-0.8696,0.0485,0.1581,-0.6906,0.0754,0.7986,0.5638,-0.6039,-0.7645,-0.5114,0.0811,-1.0161,0.8665,-0.6714,0.0404
2.4611,-0.8696,0.0485,0.1581,-0.6906,0.0754,0.7986,0.5638,-0.6039,-0.7645,-0.5114,0.0811,-1.0161,0.8665,-0.6714,0.0404
2.4301,-0.9334,0.0438,0.1597,-0.7098,0.0543,0.7646,0.5704,-0.6189,-0.7694,-0.5186,0.0783,-0.9981,0.8511,-0.6904,0.0409
2.4301,-0.9334,0.0438,0.1597,-0.7098,0.0543,0.7646,0.5704,-0.6189,-0.7694,-0.5186,0.0783,-0.9981,0.8511,-0.6904,0.0409
2.4301,-0.9334,0.0438,0.1597,-0.7098,0.0543,0.7646,0.5704,-0.6189,-0.7694,-0.5186,0.0783,-0.9981,0.8511,-0.6904,0.0409
2.4301,-0.9334,0.0438,0.1597,-0.7098,0.0543,0.7646,0.5704,-0.6189,-0.7694,-0.5186,0.0783,-0.9981,0.8511,-0.6904,0.0409
2.3103,-1.1369,0.0316,0.1623,-0.8457,0.056,0.6989,0.5847,-0.6428,-0.7814,-0.5317,0.0729,-1.012,0.829,-0.7303,0.0446
2.3103,-1.1369,0.0316,0.1623,-0.8457,0.056,0.6989,0.5847,-0.6428,-0.7814,-0.5317,0.0729,-1.012,0.829,-0.7303,0.0446
2.1427,-1.3185,0.0272,0.1603,-0.9939,0.0531,0.6372,0.585,-0.661,-0.7818,-0.5409,0.0693,-1.0798,0.8529,-0.761,0.0513
2.1427,-1.3185,0.0272,0.1603,-0.9939,0.0531,0.6372,0.585,-0.661,-0.7818,-0.5409,0.0693,-1.0798,0.8529,-0.761,0.0513
2.1427,-1.3185,0.0272,0.1603,-0.9939,0.0531,0.6372,0.585,-0.661,-0.7818,-0.5409,0.0693,-1.0798,0.8529,-0.761,0.0513
2.1164,-1.333,0.0272,0.1603,-1.0159,0.0608,0.6199,0.5804,-0.6519,-0.7816,-0.543,0.0695,-1.1156,0.8836,-0.764,0.0503
2.1164,-1.333,0.0272,0.1603,-1.0159,0.0608,0.6199,0.5804,-0.6519,-0.7816,-0.543,0.0695,-1.1156,0.8836,-0.764,0.0503
2.2173,-1.321,0.0236,0.1622,-1.0108,0.0774,0.611,0.5764,-0.6336,-0.788,-0.5458,0.0689,-1.1473,0.9083,-0.772,0.051
2.2173,-1.321,0.0236,0.1622,-1.0108,0.0774,0.611,0.5764,-0.6336,-0.788,-0.5458,0.0689,-1.1473,0.9083,-0.772,0.051
2.2173,-1.321,0.0236,0.1622,-1.0108,0.0774,0.611,0.5764,-0.6336,-0.788,-0.5458,0.0689,-1.1473,0.9083,-0.772,0.051
2.2924,-1.3236,0.017,0.1634,-1.0057,0.0941,0.6243,0.57,-0.6183,-0.7968,-0.5488,0.0694,-1.1611,0.9177,-0.7651,0.0465
2.2924,-1.3236,0.017,0.1634,-1.0057,0.0941,0.6243,0.57,-0.6183,-0.7968,-0.5488,0.0694,-1.1611,0.9177,-0.7651,0.0465
2.2924,-1.3236,0.017,0.1634,-1.0057,0.0941,0.6243,0.57,-0.6183,-0.7968,-0.5488,0.0694,-1.1611,0.9177,-0.7651,0.0465
2.3771,-1.2333,0.0107,0.1574,-0.9377,0.1163,0.6981,0.5689,-0.6307,-0.7857,-0.5518,0.071,-1.1598,0.9262,-0.6995,0.0379
2.4085,-1.1716,0.0109,0.1521,-0.8437,0.1016,0.7406,0.5753,-0.643,-0.7745,-0.55,0.0693,-1.135,0.922,-0.6684,0.0414
2.4085,-1.1716,0.0109,0.1521,-0.8437,0.1016,0.7406,0.5753,-0.643,-0.7745,-0.55,0.0693,-1.135,0.922,-0.6684,0.0414
2.4624,-1.1419,0.0152,0.1459,-0.7492,0.0868,0.7822,0.5875,-0.6672,-0.7728,-0.5486,0.0672,-1.106,0.9118,-0.647,0.0484
2.4624,-1.1419,0.0152,0.1459,-0.7492,0.0868,0.7822,0.5875,-0.6672,-0.7728,-0.5486,0.0672,-1.106,0.9118,-0.647,0.0484
2.4624,-1.1419,0.0152,0.1459,-0.7492,0.0868,0.7822,0.5875,-0.6672,-0.7728,-0.5486,0.0672,-1.106,0.9118,-0.647,0.0484
2.4894,-1.127,0.0215,0.1402,-0.6767,0.0797,0.821,0.5953,-0.6912,-0.7779,-0.5433,0.0643,-1.0977,0.8998,-0.6425,0.0635
2.4894,-1.127,0.0215,0.1402,-0.6767,0.0797,0.821,0.5953,-0.6912,-0.7779,-0.5433,0.0643,-1.0977,0.8998,-0.6425,0.0635
2.5119,-1.1594,0.0282,0.1355,-0.6628,0.0841,0.8532,0.6001,-0.6969,-0.7894,-0.5361,0.0634,-1.0839,0.8904,-0.6322,0.0702
2.5119,-1.1594,0.0282,0.1355,-0.6628,0.0841,0.8532,0.6001,-0.6969,-0.7894,-0.5361,0.0634,-1.0839,0.8904,-0.6322,0.0702
2.5614,-1.1769,0.0364,0.1338,-0.697,0.1336,0.873,0.6057,-0.6968,-0.7963,-0.5286,0.0628,-1.0742,0.887,-0.62,0.0743
2.5614,-1.1769,0.0364,0.1338,-0.697,0.1336,0.873,0.6057,-0.6968,-0.7963,-0.5286,0.0628,-1.0742,0.887,-0.62,0.0743
2.7609,-1.2474,0.046,0.1333,-0.7314,0.1831,0.8916,0.6046,-0.6785,-0.8027,-0.5224,0.0633,-1.0576,0.8947,-0.6028,0.0765
2.7609,-1.2474,0.046,0.1333,-0.7314,0.1831,0.8916,0.6046,-0.6785,-0.8027,-0.5224,0.0633,-1.0576,0.8947,-0.6028,0.0765
2.9846,-1.3508,0.0545,0.1344,-0.7763,0.199,0.9017,0.6028,-0.6544,-0.8045,-0.5181,0.0655,-1.0229,0.8869,-0.5867,0.075
2.9846,-1.3508,0.0545,0.1344,-0.7763,0.199,0.9017,0.6028,-0.6544,-0.8045,-0.5181,0.0655,-1.0229,0.8869,-0.5867,0.075
3.1876,-1.4226,0.0604,0.1375,-0.7677,0.1866,0.9175,0.5972,-0.6363,-0.8041,-0.5164,0.0696,-1.0063,0.8946,-0.5675,0.0745
3.1876,-1.4226,0.0604,0.1375,-0.7677,0.1866,0.9175,0.5972,-0.6363,-0.8041,-0.5164,0.0696,-1.0063,0.8946,-0.5675,0.0745
3.1652,-1.3902,0.0643,0.1402,-0.7815,0.1821,0.9293,0.5931,-0.6243,-0.8015,-0.5168,0.0729,-1.0007,0.8972,-0.5576,0.071
3.1652,-1.3902,0.0643,0.1402,-0.7815,0.1821,0.9293,0.5931,-0.6243,-0.8015,-0.5168,0.0729,-1.0007,0.8972,-0.5576,0.071
3.1261,-1.2783,0.0688,0.1421,-0.7505,0.1618,0.945,0.5875,-0.6215,-0.7923,-0.5169,0.074,-0.9798,0.8988,-0.5495,0.0702
3.1261,-1.2783,0.0688,0.1421,-0.7505,0.1618,0.945,0.5875,-0.6215,-0.7923,-0.5169,0.074,-0.9798,0.8988,-0.5495,0.0702
2.9103,-1.0782,0.0723,0.1438,-0.7334,0.1371,0.9483,0.5827,-0.6336,-0.788,-0.5163,0.0722,-0.9548,0.8945,-0.5457,0.0647
2.9103,-1.0782,0.0723,0.1438,-0.7334,0.1371,0.9483,0.5827,-0.6336,-0.788,-0.5163,0.0722,-0.9548,0.8945,-0.5457,0.0647
2.7353,-0.9914,0.0753,0.1445,-0.7301,0.1079,0.9398,0.5821,-0.6457,-0.7906,-0.5178,0.0706,-0.9311,0.8816,-0.5468,0.0609
2.7353,-0.9914,0.0753,0.1445,-0.7301,0.1079,0.9398,0.5821,-0.6457,-0.7906,-0.5178,0.0706,-0.9311,0.8816,-0.5468,0.0609
2.7353,-0.9914,0.0753,0.1445,-0.7301,0.1079,0.9398,0.5821,-0.6457,-0.7906,-0.5178,0.0706,-0.9311,0.8816,-0.5468,0.0609
2.6027,-1.0192,0.0777,0.146,-0.7407,0.0745,0.9195,0.5857,-0.6546,-0.7976,-0.5167,0.0681,-0.9172,0.8722,-0.5449,0.0582
2.6027,-1.0192,0.0777,0.146,-0.7407,0.0745,0.9195,0.5857,-0.6546,-0.7976,-0.5167,0.0681,-0.9172,0.8722,-0.5449,0.0582
2.4443,-1.062,0.0834,0.1446,-0.7821,0.0613,0.8986,0.5859,-0.6664,-0.807,-0.5157,0.0667,-0.9408,0.8851,-0.5491,0.0534
2.3905,-1.0921,0.0858,0.1461,-0.7959,0.0569,0.8879,0.5843,-0.6723,-0.8117,-0.5145,0.0668,-0.9589,0.9005,-0.5572,0.0542
2.3905,-1.0921,0.0858,0.1461,-0.7959,0.0569,0.8879,0.5843,-0.6723,-0.8117,-0.5145,0.0668,-0.9589,0.9005,-0.5572,0.0542
2.413,-1.1245,0.0867,0.1499,-0.7907,0.0736,0.8794,0.5837,-0.6692,-0.8162,-0.5137,0.0676,-0.9867,0.9194,-0.5553,0.0514
2.413,-1.1245,0.0867,0.1499,-0.7907,0.0736,0.8794,0.5837,-0.6692,-0.8162,-0.5137,0.0676,-0.9867,0.9194,-0.5553,0.0514
2.4848,-1.1742,0.086,0.1542,-0.7992,0.0859,0.8788,0.5803,-0.6662,-0.8138,-0.5126,0.0688,-0.9867,0.9194,-0.5472,0.0506
2.4848,-1.1742,0.086,0.1542,-0.7992,0.0859,0.8788,0.5803,-0.6662,-0.8138,-0.5126,0.0688,-0.9867,0.9194,-0.5472,0.0506
2.5839,-1.2093,0.0858,0.1578,-0.7545,0.0701,0.8837,0.5732,-0.6725,-0.8049,-0.5114,0.0689,-0.9965,0.9228,-0.5353,0.0443
2.5839,-1.2093,0.0842,0.1619,-0.6874,0.0464,0.8785,0.5678,-0.6879,-0.7892,-0.5103,0.0701,-0.9923,0.9168,-0.5422,0.0489
2.5839,-1.2093,0.0842,0.1619,-0.6874,0.0464,0.8785,0.5678,-0.6879,-0.7892,-0.5103,0.0701,-0.9923,0.9168,-0.5422,0.0489
2.5839,-1.2093,0.0842,0.1619,-0.6874,0.0464,0.8785,0.5678,-0.6879,-0.7892,-0.5103,0.0701,-0.9923,0.9168,-0.5422,0.0489
2.5566,-1.224,0.0836,0.1644,-0.6201,0.0226,0.8757,0.5634,-0.6938,-0.7939,-0.5108,0.0719,-1.0146,0.9066,-0.5672,0.0577
2.5566,-1.224,0.0836,0.1644,-0.6201,0.0226,0.8757,0.5634,-0.6938,-0.7939,-0.5108,0.0719,-1.0146,0.9066,-0.5672,0.0577
2.5566,-1.224,0.0836,0.1644,-0.6201,0.0226,0.8757,0.5634,-0.6938,-0.7939,-0.5108,0.0719,-1.0146,0.9066,-0.5672,0.0577
2.5072,-1.2065,0.0819,0.1668,-0.634,0.0182,0.861,0.5632,-0.7148,-0.7967,-0.5089,0.0728,-1.0312,0.8989,-0.5882,0.061
2.5343,-1.1917,0.0854,0.1685,-0.6681,0.0674,0.8509,0.565,-0.7207,-0.8014,-0.5053,0.0742,-1.052,0.8972,-0.6043,0.0625
2.5343,-1.1917,0.0854,0.1685,-0.6681,0.0674,0.8509,0.565,-0.7207,-0.8014,-0.5053,0.0742,-1.052,0.8972,-0.6043,0.0625
2.6336,-1.2268,0.0863,0.1705,-0.7301,0.1079,0.8346,0.5672,-0.7146,-0.8035,-0.5035,0.0773,-1.0576,0.8947,-0.6154,0.0622
2.6336,-1.2268,0.0863,0.1705,-0.7301,0.1079,0.8346,0.5672,-0.7146,-0.8035,-0.5035,0.0773,-1.0576,0.8947,-0.6154,0.0622
2.6336,-1.2268,0.0863,0.1705,-0.7301,0.1079,0.8346,0.5672,-0.7146,-0.8035,-0.5035,0.0773,-1.0576,0.8947,-0.6154,0.0622
2.8111,-1.2651,0.0883,0.1727,-0.7696,0.1405,0.8301,0.5652,-0.6996,-0.8055,-0.5035,0.0809,-1.0576,0.8947,-0.6135,0.0594
2.8111,-1.2651,0.0883,0.1727,-0.7696,0.1405,0.8301,0.5652,-0.6996,-0.8055,-0.5035,0.0809,-1.0576,0.8947,-0.6135,0.0594
2.8111,-1.2651,0.0883,0.1727,-0.7696,0.1405,0.8301,0.5652,-0.6996,-0.8055,-0.5035,0.0809,-1.0576,0.8947,-0.6135,0.0594
2.8494,-1.1558,0.0846,0.1764,-0.8144,0.1563,0.8344,0.5547,-0.6756,-0.8004,-0.5042,0.0886,-1.0576,0.8947,-0.6207,0.0537
2.8494,-1.1558,0.0846,0.1764,-0.8144,0.1563,0.8344,0.5547,-0.6756,-0.8004,-0.5042,0.0886,-1.0576,0.8947,-0.6207,0.0537
2.7811,-1.0574,0.083,0.1769,-0.8058,0.144,0.8276,0.5517,-0.6698,-0.7888,-0.5041,0.0913,-1.0382,0.8878,-0.6287,0.0544
2.7811,-1.0574,0.083,0.1769,-0.8058,0.144,0.8276,0.5517,-0.6698,-0.7888,-0.5041,0.0913,-1.0382,0.8878,-0.6287,0.0544
2.7811,-1.0574,0.083,0.1769,-0.8058,0.144,0.8276,0.5517,-0.6698,-0.7888,-0.5041,0.0913,-1.0382,0.8878,-0.6287,0.0544
2.6803,-1.0218,0.0779,0.1793,-0.7887,0.1193,0.8075,0.5553,-0.661,-0.7818,-0.5047,0.0931,-1.0049,0.8715,-0.6436,0.0597
2.6803,-1.0218,0.0779,0.1793,-0.7887,0.1193,0.8075,0.5553,-0.661,-0.7818,-0.5047,0.0931,-1.0049,0.8715,-0.6436,0.0597
2.6803,-1.0218,0.0779,0.1793,-0.7887,0.1193,0.8075,0.5553,-0.661,-0.7818,-0.5047,0.0931,-1.0049,0.8715,-0.6436,0.0597
2.4939,-1.0795,0.0722,0.1807,-0.8182,0.0648,0.7488,0.5635,-0.6549,-0.7839,-0.5104,0.0919,-0.9925,0.8536,-0.6756,0.0627
2.4939,-1.0795,0.0722,0.1807,-0.8182,0.0648,0.7488,0.5635,-0.6549,-0.7839,-0.5104,0.0919,-0.9925,0.8536,-0.6756,0.0627
2.4939,-1.0795,0.0722,0.1807,-0.8182,0.0648,0.7488,0.5635,-0.6549,-0.7839,-0.5104,0.0919,-0.9925,0.8536,-0.6756,0.0627
2.4578,-1.1891,0.0713,0.1805,-0.8509,0.0394,0.722,0.564,-0.6549,-0.7839,-0.5126,0.0895,-1.0258,0.8699,-0.6897,0.0614
2.4578,-1.1891,0.0713,0.1805,-0.8509,0.0394,0.722,0.564,-0.6549,-0.7839,-0.5126,0.0895,-1.0258,0.8699,-0.6897,0.0614
2.5024,-1.2534,0.0707,0.1813,-0.8731,0.0472,0.7047,0.5594,-0.6457,-0.7906,-0.5149,0.0871,-1.0728,0.8955,-0.7068,0.0591
2.6012,-1.2883,0.0692,0.1818,-0.8816,0.0594,0.6919,0.5568,-0.6244,-0.7947,-0.5169,0.0862,-1.1198,0.9212,-0.7189,0.0551
2.6012,-1.2883,0.0692,0.1818,-0.8816,0.0594,0.6919,0.5568,-0.6244,-0.7947,-0.5169,0.0862,-1.1198,0.9212,-0.7189,0.0551
2.7058,-1.2767,0.064,0.1842,-0.8849,0.0883,0.6852,0.5538,-0.6031,-0.7988,-0.5197,0.0856,-1.1584,0.9348,-0.7292,0.0483
2.7058,-1.2767,0.064,0.1842,-0.8849,0.0883,0.6852,0.5538,-0.6031,-0.7988,-0.5197,0.0856,-1.1584,0.9348,-0.7292,0.0483
2.7058,-1.2767,0.064,0.1842,-0.8849,0.0883,0.6852,0.5538,-0.6031,-0.7988,-0.5197,0.0856,-1.1584,0.9348,-0.7292,0.0483
2.7557,-1.2943,0.0538,0.1873,-0.8934,0.1006,0.6762,0.5498,-0.5819,-0.8029,-0.5223,0.0865,-1.1832,0.939,-0.7382,0.0453
2.7557,-1.2943,0.0538,0.1873,-0.8934,0.1006,0.6762,0.5498,-0.5819,-0.8029,-0.5223,0.0865,-1.1832,0.939,-0.7382,0.0453
2.6934,-1.15,0.0416,0.1898,-0.9104,0.1252,0.674,0.5489,-0.5915,-0.7757,-0.5271,0.0888,-1.2106,0.9262,-0.7219,0.0271
2.6934,-1.15,0.0416,0.1898,-0.9104,0.1252,0.674,0.5489,-0.5915,-0.7757,-0.5271,0.0888,-1.2106,0.9262,-0.7219,0.0271
2.6934,-1.15,0.0416,0.1898,-0.9104,0.1252,0.674,0.5489,-0.5915,-0.7757,-0.5271,0.0888,-1.2106,0.9262,-0.7219,0.0271
2.6481,-1.0847,0.0392,0.1866,-0.8745,0.1218,0.6868,0.5515,-0.6011,-0.7552,-0.5264,0.0896,-1.1969,0.9168,-0.709,0.0246
2.6481,-1.0847,0.0392,0.1866,-0.8745,0.1218,0.6868,0.5515,-0.6011,-0.7552,-0.5264,0.0896,-1.1969,0.9168,-0.709,0.0246
2.6528,-1.0369,0.0383,0.1827,-0.7492,0.0868,0.7163,0.5553,-0.6105,-0.7417,-0.5244,0.0905,-1.1638,0.9006,-0.6968,0.0286
2.6528,-1.0369,0.0383,0.1827,-0.7492,0.0868,0.7163,0.5553,-0.6105,-0.7417,-0.5244,0.0905,-1.1638,0.9006,-0.6968,0.0286
2.5754,-1.0343,0.0401,0.1769,-0.6735,0.0507,0.7427,0.5638,-0.6165,-0.7464,-0.5204,0.0885,-1.1459,0.8853,-0.6965,0.0389
2.5754,-1.0343,0.0401,0.1769,-0.6735,0.0507,0.7427,0.5638,-0.6165,-0.7464,-0.5204,0.0885,-1.1459,0.8853,-0.6965,0.0389
2.5255,-1.0167,0.0469,0.1703,-0.6767,0.0797,0.7791,0.5706,-0.6161,-0.7602,-0.5138,0.0846,-1.1266,0.8785,-0.6882,0.0484
2.5708,-1.0821,0.0522,0.1661,-0.7024,0.1168,0.8118,0.5788,-0.613,-0.7647,-0.5083,0.0832,-1.1101,0.8862,-0.6749,0.0562
2.5708,-1.0821,0.0522,0.1661,-0.7024,0.1168,0.8118,0.5788,-0.613,-0.7647,-0.5083,0.0832,-1.1101,0.8862,-0.6749,0.0562
2.5708,-1.0821,0.0522,0.1661,-0.7024,0.1168,0.8118,0.5788,-0.613,-0.7647,-0.5083,0.0832,-1.1101,0.8862,-0.6749,0.0562
2.6934,-1.15,0.0562,0.1653,-0.7644,0.1573,0.8383,0.5874,-0.6008,-0.769,-0.5038,0.0842,-1.0935,0.8938,-0.6528,0.0567
2.6934,-1.15,0.0562,0.1653,-0.7644,0.1573,0.8383,0.5874,-0.6008,-0.769,-0.5038,0.0842,-1.0935,0.8938,-0.6528,0.0567
2.6934,-1.15,0.0562,0.1653,-0.7644,0.1573,0.8383,0.5874,-0.6008,-0.769,-0.5038,0.0842,-1.0935,0.8938,-0.6528,0.0567
2.6934,-1.15,0.0562,0.1653,-0.7644,0.1573,0.8383,0.5874,-0.6008,-0.769,-0.5038,0.0842,-1.0935,0.8938,-0.6528,0.0567
2.8441,-1.2033,0.0694,0.1648,-0.7281,0.1539,0.9094,0.5875,-0.5674,-0.7706,-0.4929,0.0921,-1.0506,0.9058,-0.6104,0.0605
2.8441,-1.2033,0.0694,0.1648,-0.7281,0.1539,0.9094,0.5875,-0.5674,-0.7706,-0.4929,0.0921,-1.0506,0.9058,-0.6104,0.0605
2.7989,-1.138,0.0739,0.1649,-0.697,0.1336,0.9382,0.5845,-0.5492,-0.7702,-0.4873,0.0944,-1.0354,0.9049,-0.5875,0.0544
2.7989,-1.138,0.0739,0.1649,-0.697,0.1336,0.9382,0.5845,-0.5492,-0.7702,-0.4873,0.0944,-1.0354,0.9049,-0.5875,0.0544
2.7031,-1.0547,0.077,0.1638,-0.666,0.1132,0.9568,0.5833,-0.5402,-0.7631,-0.4812,0.0959,-0.9951,0.8997,-0.5714,0.0529
2.7031,-1.0547,0.077,0.1638,-0.666,0.1132,0.9568,0.5833,-0.5402,-0.7631,-0.4812,0.0959,-0.9951,0.8997,-0.5714,0.0529
2.7031,-1.0547,0.077,0.1638,-0.666,0.1132,0.9568,0.5833,-0.5402,-0.7631,-0.4812,0.0959,-0.9951,0.8997,-0.5714,0.0529
2.6027,-1.0192,0.0786,0.1615,-0.6488,0.0885,0.9598,0.5877,-0.5372,-0.7607,-0.4775,0.0962,-0.9618,0.8834,-0.5714,0.0529
2.6027,-1.0192,0.0786,0.1615,-0.6488,0.0885,0.9598,0.5877,-0.5372,-0.7607,-0.4775,0.0962,-0.9618,0.8834,-0.5714,0.0529
2.6027,-1.0192,0.0786,0.1615,-0.6488,0.0885,0.9598,0.5877,-0.5372,-0.7607,-0.4775,0.0962,-0.9618,0.8834,-0.5714,0.0529
2.6027,-1.0192,0.0786,0.1615,-0.6488,0.0885,0.9598,0.5877,-0.5372,-0.7607,-0.4775,0.0962,-0.9618,0.8834,-0.5714,0.0529
2.337,-1.122,0.0815,0.1523,-0.7631,0.0824,0.9345,0.5984,-0.5343,-0.7515,-0.4687,0.0958,-0.9757,0.8928,-0.5783,0.0574
2.337,-1.122,0.0815,0.1523,-0.7631,0.0824,0.9345,0.5984,-0.5343,-0.7515,-0.4687,0.0958,-0.9757,0.8928,-0.5783,0.0574
2.337,-1.122,0.0815,0.1523,-0.7631,0.0824,0.9345,0.5984,-0.5343,-0.7515,-0.4687,0.0958,-0.9757,0.8928,-0.5783,0.0574
2.4308,-1.2038,0.0801,0.151,-0.7716,0.0947,0.926,0.5978,-0.5006,-0.76,-0.4645,0.0953,-1.0215,0.9272,-0.5894,0.0572
2.4308,-1.2038,0.0801,0.151,-0.7716,0.0947,0.926,0.5978,-0.5006,-0.76,-0.4645,0.0953,-1.0215,0.9272,-0.5894,0.0572
2.4308,-1.2038,0.0801,0.151,-0.7716,0.0947,0.926,0.5978,-0.5006,-0.76,-0.4645,0.0953,-1.0215,0.9272,-0.5894,0.0572
2.5566,-1.224,0.0795,0.1518,-0.7354,0.0912,0.9299,0.5965,-0.4791,-0.771,-0.4654,0.0956,-1.0326,0.922,-0.5955,0.0552
2.5566,-1.224,0.0795,0.1518,-0.7354,0.0912,0.9299,0.5965,-0.4791,-0.771,-0.4654,0.0956,-1.0326,0.922,-0.5955,0.0552
2.5566,-1.224,0.0795,0.1518,-0.7354,0.0912,0.9299,0.5965,-0.4791,-0.771,-0.4654,0.0956,-1.0326,0.922,-0.5955,0.0552
2.7333,-1.2621,0.0712,0.1571,-0.7301,0.1079,0.9388,0.5879,-0.4729,-0.7732,-0.467,0.0952,-1.0492,0.9143,-0.5748,0.0416
2.7333,-1.2621,0.0712,0.1571,-0.7301,0.1079,0.9388,0.5879,-0.4729,-0.7732,-0.467,0.0952,-1.0492,0.9143,-0.5748,0.0416
2.6884,-1.1973,0.0722,0.1573,-0.6938,0.1044,0.9349,0.5893,-0.4976,-0.7576,-0.4702,0.0942,-1.0506,0.9058,-0.5679,0.0371
2.6884,-1.1973,0.0722,0.1573,-0.6938,0.1044,0.9349,0.5893,-0.4976,-0.7576,-0.4702,0.0942,-1.0506,0.9058,-0.5679,0.0371
2.6884,-1.1973,0.0722,0.1573,-0.6938,0.1044,0.9349,0.5893,-0.4976,-0.7576,-0.4702,0.0942,-1.0506,0.9058,-0.5679,0.0371
2.7159,-1.1825,0.0737,0.1585,-0.6178,0.0682,0.9309,0.5907,-0.5164,-0.7373,-0.4735,0.0932,-1.0506,0.9058,-0.5698,0.0399
2.6884,-1.1973,0.0751,0.1598,-0.6178,0.0682,0.9201,0.5891,-0.5255,-0.7375,-0.4766,0.0911,-1.0562,0.9032,-0.5836,0.0489
2.6884,-1.1973,0.0751,0.1598,-0.6178,0.0682,0.9201,0.5891,-0.5255,-0.7375,-0.4766,0.0911,-1.0562,0.9032,-0.5836,0.0489
2.7385,-1.215,0.0796,0.1617,-0.6574,0.1009,0.9094,0.5875,-0.5406,-0.7424,-0.4789,0.0887,-1.0673,0.8981,-0.6085,0.0577
2.7385,-1.215,0.0796,0.1617,-0.6574,0.1009,0.9094,0.5875,-0.5406,-0.7424,-0.4789,0.0887,-1.0673,0.8981,-0.6085,0.0577
2.7385,-1.215,0.0796,0.1617,-0.6574,0.1009,0.9094,0.5875,-0.5406,-0.7424,-0.4789,0.0887,-1.0673,0.8981,-0.6085,0.0577
2.9117,-1.3007,0.0836,0.1644,-0.7109,0.1291,0.8947,0.5873,-0.5403,-0.7562,-0.4807,0.0867,-1.0728,0.8955,-0.6245,0.0592
2.9117,-1.3007,0.0836,0.1644,-0.7109,0.1291,0.8947,0.5873,-0.5403,-0.7562,-0.4807,0.0867,-1.0728,0.8955,-0.6245,0.0592
2.9846,-1.3508,0.0834,0.168,-0.7696,0.1405,0.8817,0.5847,-0.5402,-0.7631,-0.4841,0.0868,-1.0728,0.8955,-0.6375,0.0617
2.9846,-1.3508,0.0834,0.168,-0.7696,0.1405,0.8817,0.5847,-0.5402,-0.7631,-0.4841,0.0868,-1.0728,0.8955,-0.6375,0.0617
2.9846,-1.3508,0.0834,0.168,-0.7696,0.1405,0.8817,0.5847,-0.5402,-0.7631,-0.4841,0.0868,-1.0728,0.8955,-0.6375,0.0617
2.8999,-1.1737,0.0806,0.1754,-0.8196,0.1395,0.8814,0.5722,-0.5342,-0.7584,-0.4945,0.0916,-1.0866,0.9049,-0.6486,0.0614
2.8999,-1.1737,0.0806,0.1754,-0.8196,0.1395,0.8814,0.5722,-0.5342,-0.7584,-0.4945,0.0916,-1.0866,0.9049,-0.6486,0.0614
2.7811,-1.0574,0.0785,0.1768,-0.8162,0.1105,0.8724,0.5682,-0.5405,-0.7493,-0.4979,0.0917,-1.0922,0.9024,-0.6528,0.0567
2.7811,-1.0574,0.0785,0.1768,-0.8162,0.1105,0.8724,0.5682,-0.5405,-0.7493,-0.4979,0.0917,-1.0922,0.9024,-0.6528,0.0567
2.63,-1.004,0.076,0.1753,-0.7907,0.0736,0.8554,0.567,-0.5406,-0.7424,-0.5009,0.0922,-1.0769,0.9015,-0.6528,0.0567
2.63,-1.004,0.076,0.1753,-0.7907,0.0736,0.8554,0.567,-0.5406,-0.7424,-0.5009,0.0922,-1.0769,0.9015,-0.6528,0.0567
2.4217,-1.0294,0.0716,0.1716,-0.8287,0.0315,0.8245,0.5689,-0.5438,-0.7379,-0.5021,0.0922,-1.0437,0.8853,-0.6619,0.0537
2.4217,-1.0294,0.0716,0.1716,-0.8287,0.0315,0.8245,0.5689,-0.5438,-0.7379,-0.5021,0.0922,-1.0437,0.8853,-0.6619,0.0537
2.3145,-1.0897,0.0719,0.1662,-0.8699,0.0184,0.7976,0.5695,-0.5438,-0.7379,-0.5033,0.0921,-1.0396,0.8793,-0.671,0.0507
2.3145,-1.0897,0.0719,0.1662,-0.8699,0.0184,0.7976,0.5695,-0.5438,-0.7379,-0.5033,0.0921,-1.0396,0.8793,-0.671,0.0507
2.3103,-1.1369,0.0679,0.1653,-0.9004,0.0384,0.7785,0.5673,-0.5468,-0.7402,-0.5045,0.0909,-1.0631,0.8921,-0.6802,0.0476
2.3103,-1.1369,0.0679,0.1653,-0.9004,0.0384,0.7785,0.5673,-0.5468,-0.7402,-0.5045,0.0909,-1.0631,0.8921,-0.6802,0.0476
2.3816,-1.1865,0.0627,0.1677,-0.8868,0.0428,0.7617,0.5661,-0.5436,-0.7448,-0.5073,0.0903,-1.0908,0.9109,-0.6961,0.0491
2.3816,-1.1865,0.0627,0.1677,-0.8868,0.0428,0.7617,0.5661,-0.5436,-0.7448,-0.5073,0.0903,-1.0908,0.9109,-0.6961,0.0491
2.4531,-1.236,0.0555,0.1714,-0.8953,0.055,0.7505,0.5611,-0.5343,-0.7515,-0.511,0.09,-1.1198,0.9212,-0.7102,0.0479
2.4531,-1.236,0.0555,0.1714,-0.8953,0.055,0.7505,0.5611,-0.5343,-0.7515,-0.511,0.09,-1.1198,0.9212,-0.7102,0.0479
2.5024,-1.2534,0.0508,0.1748,-0.8731,0.0472,0.7431,0.5548,-0.5373,-0.7538,-0.5155,0.0889,-1.1405,0.9194,-0.7045,0.0396
2.5024,-1.2534,0.0508,0.1748,-0.8731,0.0472,0.7431,0.5548,-0.5373,-0.7538,-0.5155,0.0889,-1.1405,0.9194,-0.7045,0.0396
2.5024,-1.2534,0.0508,0.1748,-0.8731,0.0472,0.7431,0.5548,-0.5373,-0.7538,-0.5155,0.0889,-1.1405,0.9194,-0.7045,0.0396
