5750.7,54.3,19.744,0,-0.045109,0,5860.1,70.622,0,0,0,0,0.015411,2
5750.7,54.3,19.744,0,-0.045109,0,5860.1,70.622,0,0,0,0,0.015411,2
5750.7,54.3,19.744,0,-0.045109,0,5860.1,70.622,0,0,0,0,0.015411,2
5752.3,54.3,19.74,0,-0.045204,0,5860.1,70.622,0,0,0,0,0.015631,2
5752.3,54.3,19.74,0,-0.045204,0,5860.1,70.622,0,0,0,0,0.015631,2
5752.7,54.3,19.739,0,-0.045226,0,5860.1,70.622,0,0,0,0,0.015687,2
5752.7,54.3,19.739,0,-0.045226,0,5860.1,70.622,0,0,0,0,0.015687,2
5753.1,54.3,19.738,0,-0.045249,0,5860.1,70.622,0,0,0,0,0.015744,2
5753.1,54.3,19.738,0,-0.045249,0,5860.1,70.622,0,0,0,0,0.015744,2
5753.1,54.3,19.738,0,-0.045249,0,5860.1,70.622,0,0,0,0,0.015744,2
5754.2,54.3,19.736,0,-0.045317,0,5860.1,70.622,0,0,0,0,0.015916,2
5754.2,54.3,19.736,0,-0.045317,0,5860.1,70.622,0,0,0,0,0.015916,2
5754.2,54.3,19.736,0,-0.045317,0,5860.1,70.622,0,0,0,0,0.015916,2
5754.2,54.3,19.736,0,-0.045317,0,5860.1,70.622,0,0,0,0,0.015916,2
5754.2,54.3,19.736,0,-0.045317,0,5860.1,70.622,0,0,0,0,0.015916,2
5754.2,54.3,19.736,0,-0.045317,0,5860.1,70.622,0,0,0,0,0.015916,2
5754.2,54.3,19.736,0,-0.045317,0,5860.1,70.622,0,0,0,0,0.015916,2
5754.2,54.3,19.736,0,-0.045317,0,5860.1,70.622,0,0,0,0,0.015916,2
5755.8,54.3,19.732,0,-0.045406,0,5860.1,70.622,0,0,0,0,0.016151,2
5755.8,54.3,19.732,0,-0.045406,0,5860.1,70.622,0,0,0,0,0.016151,2
5755.8,54.3,19.732,0,-0.045406,0,5860.1,70.622,0,0,0,0,0.016151,2
5755.8,54.3,19.732,0,-0.045406,0,5860.1,70.622,0,0,0,0,0.016151,2
5755.8,54.3,19.732,0,-0.045406,0,5860.1,70.622,0,0,0,0,0.016151,2
5755.8,54.3,19.732,0,-0.045406,0,5860.1,70.622,0,0,0,0,0.016151,2
5755.8,54.3,19.732,0,-0.045406,0,5860.1,70.622,0,0,0,0,0.016151,2
5757.4,54.3,19.728,0,-0.045495,0,5860.1,70.622,0,0,0,0,0.016393,2
5757.4,54.3,19.728,0,-0.045495,0,5860.1,70.622,0,0,0,0,0.016393,2
5757.4,54.3,19.728,0,-0.045495,0,5860.1,70.622,0,0,0,0,0.016393,2
5757.4,54.3,19.728,0,-0.045495,0,5860.1,70.622,0,0,0,0,0.016393,2
5757.4,54.3,19.728,0,-0.045495,0,5860.1,70.622,0,0,0,0,0.016393,2
5757.4,54.3,19.728,0,-0.045495,0,5860.1,70.622,0,0,0,0,0.016393,2
5757.4,54.3,19.728,0,-0.045495,0,5860.1,70.622,0,0,0,0,0.016393,2
5757.4,54.3,19.728,0,-0.045495,0,5860.1,70.622,0,0,0,0,0.016393,2
5757.4,54.3,19.728,0,-0.045495,0,5860.1,70.622,0,0,0,0,0.016393,2
5757.4,54.3,19.728,0,-0.045495,0,5860.1,70.622,0,0,0,0,0.016393,2
5757.4,54.3,19.728,0,-0.045495,0,5860.1,70.622,0,0,0,0,0.016393,2
5757.4,54.3,19.728,0,-0.045495,0,5860.1,70.622,0,0,0,0,0.016393,2
5759,54.3,19.725,0,-0.04558,0,5860.1,70.622,0,0,0,0,0.016643,2
5759.4,54.3,19.724,0,-0.0456,0,5860.1,70.622,0,0,0,0,0.016706,2
5759.4,54.3,19.724,0,-0.0456,0,5860.1,70.622,0,0,0,0,0.016706,2
5759.8,54.3,19.723,0,-0.04562,0,5860.1,70.622,0,0,0,0,0.01677,2
5759.8,54.3,19.723,0,-0.04562,0,5860.1,70.622,0,0,0,0,0.01677,2
5759.8,54.3,19.723,0,-0.04562,0,5860.1,70.622,0,0,0,0,0.01677,2
5759.8,54.3,19.723,0,-0.04562,0,5860.1,70.622,0,0,0,0,0.01677,2
5761,54.3,19.72,0,-0.045684,0,5860.1,70.622,0,0,0,0,0.016965,2
5761,54.3,19.72,0,-0.045684,0,5860.1,70.622,0,0,0,0,0.016965,2
5761,54.3,19.72,0,-0.045684,0,5860.1,70.622,0,0,0,0,0.016965,2
5761,54.3,19.72,0,-0.045684,0,5860.1,70.622,0,0,0,0,0.016965,2
5761,54.3,19.72,0,-0.045684,0,5860.1,70.622,0,0,0,0,0.016965,2
5761,54.3,19.72,0,-0.045684,0,5860.1,70.622,0,0,0,0,0.016965,2
5761,54.3,19.72,0,-0.045684,0,5860.1,70.622,0,0,0,0,0.016965,2
5761,54.3,19.72,0,-0.045684,0,5860.1,70.622,0,0,0,0,0.016965,2
5761,54.3,19.72,0,-0.045684,0,5860.1,70.622,0,0,0,0,0.016965,2
5761,54.3,19.72,0,-0.045684,0,5860.1,70.622,0,0,0,0,0.016965,2
5762.9,54.3,19.716,0,-0.045783,0,5860.1,70.622,0,0,0,0,0.0173,2
5762.9,54.3,19.716,0,-0.045783,0,5860.1,70.622,0,0,0,0,0.0173,2
5762.9,54.3,19.716,0,-0.045783,0,5860.1,70.622,0,0,0,0,0.0173,2
5763.7,54.3,19.714,0,-0.045821,0,5860.1,70.622,0,0,0,0,0.017437,2
5763.7,54.3,19.714,0,-0.045821,0,5860.1,70.622,0,0,0,0,0.017437,2
5764.1,54.3,19.713,0,-0.04584,0,5860.1,70.622,0,0,0,0,0.017507,2
5764.1,54.3,19.713,0,-0.04584,0,5860.1,70.622,0,0,0,0,0.017507,2
5764.1,54.3,19.713,0,-0.04584,0,5860.1,70.622,0,0,0,0,0.017507,2
5764.1,54.3,19.713,0,-0.04584,0,5860.1,70.622,0,0,0,0,0.017507,2
5764.1,54.3,19.713,0,-0.04584,0,5860.1,70.622,0,0,0,0,0.017507,2
5764.1,54.3,19.713,0,-0.04584,0,5860.1,70.622,0,0,0,0,0.017507,2
5764.1,54.3,19.713,0,-0.04584,0,5860.1,70.622,0,0,0,0,0.017507,2
5764.1,54.3,19.713,0,-0.04584,0,5860.1,70.622,0,0,0,0,0.017507,2
5764.9,54.3,19.711,0,-0.045878,0,5860.1,70.622,0,0,0,0,0.017648,2
5764.9,54.3,19.711,0,-0.045878,0,5860.1,70.622,0,0,0,0,0.017648,2
5765.3,54.3,19.71,0,-0.045896,0,5860.1,70.622,0,0,0,0,0.017719,2
5765.7,54.3,19.709,0,-0.045915,0,5860.1,70.622,0,0,0,0,0.017791,2
5765.7,54.3,19.709,0,-0.045915,0,5860.1,70.622,0,0,0,0,0.017791,2
5765.7,54.3,19.709,0,-0.045915,0,5860.1,70.622,0,0,0,0,0.017791,2
5765.7,54.3,19.709,0,-0.045915,0,5860.1,70.622,0,0,0,0,0.017791,2
5766.9,54.3,19.706,0,-0.04597,0,5860.1,70.622,0,0,0,0,0.01801,2
5766.9,54.3,19.706,0,-0.04597,0,5860.1,70.622,0,0,0,0,0.01801,2
5767.7,54.3,19.705,0,-0.046005,0,5860.1,70.622,0,0,0,0,0.018159,2
5767.7,54.3,19.705,0,-0.046005,0,5860.1,70.622,0,0,0,0,0.018159,2
5768.1,54.3,19.704,0,-0.046024,0,5860.1,70.622,0,0,0,0,0.018234,2
5768.1,54.3,19.704,0,-0.046024,0,5860.1,70.622,0,0,0,0,0.018234,2
5768.1,54.3,19.704,0,-0.046024,0,5860.1,70.622,0,0,0,0,0.018234,2
5768.1,54.3,19.704,0,-0.046024,0,5860.1,70.622,0,0,0,0,0.018234,2
5768.8,54.3,19.702,0,-0.046061,0,5860.1,70.622,0,0,0,0,0.018387,2
5768.8,54.3,19.702,0,-0.046061,0,5860.1,70.622,0,0,0,0,0.018387,2
5768.8,54.3,19.702,0,-0.046061,0,5860.1,70.622,0,0,0,0,0.018387,2
5768.8,54.3,19.702,0,-0.046061,0,5860.1,70.622,0,0,0,0,0.018387,2
5768.8,54.3,19.702,0,-0.046061,0,5860.1,70.622,0,0,0,0,0.018387,2
5768.8,54.3,19.702,0,-0.046061,0,5860.1,70.622,0,0,0,0,0.018387,2
5768.8,54.3,19.702,0,-0.046061,0,5860.1,70.622,0,0,0,0,0.018387,2
5768.8,54.3,19.702,0,-0.046061,0,5860.1,70.622,0,0,0,0,0.018387,2
5768.8,54.3,19.702,0,-0.046061,0,5860.1,70.622,0,0,0,0,0.018387,2
5768.8,54.3,19.702,0,-0.046061,0,5860.1,70.622,0,0,0,0,0.018387,2
5768.8,54.3,19.702,0,-0.046061,0,5860.1,70.622,0,0,0,0,0.018387,2
5768.8,54.3,19.702,0,-0.046061,0,5860.1,70.622,0,0,0,0,0.018387,2
5768.8,54.3,19.702,0,-0.046061,0,5860.1,70.622,0,0,0,0,0.018387,2
5768.8,54.3,19.702,0,-0.046061,0,5860.1,70.622,0,0,0,0,0.018387,2
5768.8,54.3,19.702,0,-0.046061,0,5860.1,70.622,0,0,0,0,0.018387,2
5768.8,54.3,19.702,0,-0.046061,0,5860.1,70.622,0,0,0,0,0.018387,2
5768.8,54.3,19.702,0,-0.046061,0,5860.1,70.622,0,0,0,0,0.018387,2
5772,54.3,19.694,0,-0.046195,0,5860.1,70.622,0,0,0,0,0.019023,2
5772.4,54.3,19.693,0,-0.046212,0,5860.1,70.622,0,0,0,0,0.019105,2
5772.4,54.3,19.693,0,-0.046212,0,5860.1,70.622,0,0,0,0,0.019105,2
5772.4,54.3,19.693,0,-0.046212,0,5860.1,70.622,0,0,0,0,0.019105,2
5772.8,54.3,19.693,0,-0.046229,0,5860.1,70.622,0,0,0,0,0.019189,2
5772.8,54.3,19.693,0,-0.046229,0,5860.1,70.622,0,0,0,0,0.019189,2
5773.2,54.3,19.692,0,-0.046246,0,5860.1,70.622,0,0,0,0,0.019272,2
5773.2,54.3,19.692,0,-0.046246,0,5860.1,70.622,0,0,0,0,0.019272,2
5773.2,54.3,19.692,0,-0.046246,0,5860.1,70.622,0,0,0,0,0.019272,2
5773.2,54.3,19.692,0,-0.046246,0,5860.1,70.622,0,0,0,0,0.019272,2
5773.2,54.3,19.692,0,-0.046246,0,5860.1,70.622,0,0,0,0,0.019272,2
5773.2,54.3,19.692,0,-0.046246,0,5860.1,70.622,0,0,0,0,0.019272,2
5773.2,54.3,19.692,0,-0.046246,0,5860.1,70.622,0,0,0,0,0.019272,2
5773.2,54.3,19.692,0,-0.046246,0,5860.1,70.622,0,0,0,0,0.019272,2
5773.2,54.3,19.692,0,-0.046246,0,5860.1,70.622,0,0,0,0,0.019272,2
5773.2,54.3,19.692,0,-0.046246,0,5860.1,70.622,0,0,0,0,0.019272,2
5774.7,54.3,19.688,0,-0.046307,0,5860.1,70.622,0,0,0,0,0.019616,2
5774.7,54.3,19.688,0,-0.046307,0,5860.1,70.622,0,0,0,0,0.019616,2
5775.5,54.3,19.686,0,-0.04634,0,5860.1,70.622,0,0,0,0,0.019792,2
5776.3,54.3,19.684,0,-0.046368,0,5860.1,70.622,0,0,0,0,0.019971,2
5776.3,54.3,19.684,0,-0.046368,0,5860.1,70.622,0,0,0,0,0.019971,2
5776.3,54.3,19.684,0,-0.046368,0,5860.1,70.622,0,0,0,0,0.019971,2
5776.3,54.3,19.684,0,-0.046368,0,5860.1,70.622,0,0,0,0,0.019971,2
5776.3,54.3,19.684,0,-0.046368,0,5860.1,70.622,0,0,0,0,0.019971,2
5776.3,54.3,19.684,0,-0.046368,0,5860.1,70.622,0,0,0,0,0.019971,2
5776.3,54.3,19.684,0,-0.046368,0,5860.1,70.622,0,0,0,0,0.019971,2
5776.3,54.3,19.684,0,-0.046368,0,5860.1,70.622,0,0,0,0,0.019971,2
5776.3,54.3,19.684,0,-0.046368,0,5860.1,70.622,0,0,0,0,0.019971,2
5776.3,54.3,19.684,0,-0.046368,0,5860.1,70.622,0,0,0,0,0.019971,2
5776.3,54.3,19.684,0,-0.046368,0,5860.1,70.622,0,0,0,0,0.019971,2
5776.3,54.3,19.684,0,-0.046368,0,5860.1,70.622,0,0,0,0,0.019971,2
5776.3,54.3,19.684,0,-0.046368,0,5860.1,70.622,0,0,0,0,0.019971,2
5776.3,54.3,19.684,0,-0.046368,0,5860.1,70.622,0,0,0,0,0.019971,2
5777.1,54.3,19.682,0,-0.046397,0,5860.1,70.622,0,0,0,0,0.020153,2
5777.1,54.3,19.682,0,-0.046397,0,5860.1,70.622,0,0,0,0,0.020153,2
5777.1,54.3,19.682,0,-0.046397,0,5860.1,70.622,0,0,0,0,0.020153,2
5777.1,54.3,19.682,0,-0.046397,0,5860.1,70.622,0,0,0,0,0.020153,2
5777.1,54.3,19.682,0,-0.046397,0,5860.1,70.622,0,0,0,0,0.020153,2
5777.1,54.3,19.682,0,-0.046397,0,5860.1,70.622,0,0,0,0,0.020153,2
5777.1,54.3,19.682,0,-0.046397,0,5860.1,70.622,0,0,0,0,0.020153,2
5777.5,54.3,19.681,0,-0.046412,0,5860.1,70.622,0,0,0,0,0.020246,2
5777.5,54.3,19.681,0,-0.046412,0,5860.1,70.622,0,0,0,0,0.020246,2
5777.5,54.3,19.681,0,-0.046412,0,5860.1,70.622,0,0,0,0,0.020246,2
5777.5,54.3,19.681,0,-0.046412,0,5860.1,70.622,0,0,0,0,0.020246,2
5777.5,54.3,19.681,0,-0.046412,0,5860.1,70.622,0,0,0,0,0.020246,2
5777.5,54.3,19.681,0,-0.046412,0,5860.1,70.622,0,0,0,0,0.020246,2
5777.5,54.3,19.681,0,-0.046412,0,5860.1,70.622,0,0,0,0,0.020246,2
5777.5,54.3,19.681,0,-0.046412,0,5860.1,70.622,0,0,0,0,0.020246,2
5777.5,54.3,19.681,0,-0.046412,0,5860.1,70.622,0,0,0,0,0.020246,2
5781,54.3,19.673,0,-0.046536,0,5860.1,70.622,0,0,0,0,0.021116,2
5781.4,54.3,19.672,0,-0.046548,0,5860.1,70.622,0,0,0,0,0.021218,2
5781.4,54.3,19.672,0,-0.046548,0,5860.1,70.622,0,0,0,0,0.021218,2
5781.4,54.3,19.672,0,-0.046548,0,5860.1,70.622,0,0,0,0,0.021218,2
5782.2,54.3,19.67,0,-0.046573,0,5860.1,70.622,0,0,0,0,0.021423,2
5782.2,54.3,19.67,0,-0.046573,0,5860.1,70.622,0,0,0,0,0.021423,2
5783,54.3,19.668,0,-0.046599,0,5860.1,70.622,0,0,0,0,0.021632,2
5783,54.3,19.668,0,-0.046599,0,5860.1,70.622,0,0,0,0,0.021632,2
5783,54.3,19.668,0,-0.046599,0,5860.1,70.622,0,0,0,0,0.021632,2
5783,54.3,19.668,0,-0.046599,0,5860.1,70.622,0,0,0,0,0.021632,2
5783,54.3,19.668,0,-0.046599,0,5860.1,70.622,0,0,0,0,0.021632,2
5783,54.3,19.668,0,-0.046599,0,5860.1,70.622,0,0,0,0,0.021632,2
5783.4,54.3,19.667,0,-0.046612,0,5860.1,70.622,0,0,0,0,0.021738,2
5783.4,54.3,19.667,0,-0.046612,0,5860.1,70.622,0,0,0,0,0.021738,2
5783.8,54.3,19.667,0,-0.046623,0,5860.1,70.622,0,0,0,0,0.021845,2
5783.8,54.3,19.667,0,-0.046623,0,5860.1,70.622,0,0,0,0,0.021845,2
5783.8,54.3,19.667,0,-0.046623,0,5860.1,70.622,0,0,0,0,0.021845,2
5784.2,54.3,19.666,0,-0.046634,0,5860.1,70.622,0,0,0,0,0.021954,2
5784.2,54.3,19.666,0,-0.046634,0,5860.1,70.622,0,0,0,0,0.021954,2
5784.2,54.3,19.666,0,-0.046634,0,5860.1,70.622,0,0,0,0,0.021954,2
5784.2,54.3,19.666,0,-0.046634,0,5860.1,70.622,0,0,0,0,0.021954,2
5784.2,54.3,19.666,0,-0.046634,0,5860.1,70.622,0,0,0,0,0.021954,2
5784.2,54.3,19.666,0,-0.046634,0,5860.1,70.622,0,0,0,0,0.021954,2
5784.2,54.3,19.666,0,-0.046634,0,5860.1,70.622,0,0,0,0,0.021954,2
5784.2,54.3,19.666,0,-0.046634,0,5860.1,70.622,0,0,0,0,0.021954,2
5784.2,54.3,19.666,0,-0.046634,0,5860.1,70.622,0,0,0,0,0.021954,2
5784.2,54.3,19.666,0,-0.046634,0,5860.1,70.622,0,0,0,0,0.021954,2
5786.6,54.3,19.66,0,-0.046704,0,5860.1,70.622,0,0,0,0,0.022625,2
5786.6,54.3,19.66,0,-0.046704,0,5860.1,70.622,0,0,0,0,0.022625,2
5786.6,54.3,19.66,0,-0.046704,0,5860.1,70.622,0,0,0,0,0.022625,2
5786.6,54.3,19.66,0,-0.046704,0,5860.1,70.622,0,0,0,0,0.022625,2
5786.6,54.3,19.66,0,-0.046704,0,5860.1,70.622,0,0,0,0,0.022625,2
5786.6,54.3,19.66,0,-0.046704,0,5860.1,70.622,0,0,0,0,0.022625,2
5786.6,54.3,19.66,0,-0.046704,0,5860.1,70.622,0,0,0,0,0.022625,2
5786.6,54.3,19.66,0,-0.046704,0,5860.1,70.622,0,0,0,0,0.022625,2
5786.6,54.3,19.66,0,-0.046704,0,5860.1,70.622,0,0,0,0,0.022625,2
5786.6,54.3,19.66,0,-0.046704,0,5860.1,70.622,0,0,0,0,0.022625,2
5786.6,54.3,19.66,0,-0.046704,0,5860.1,70.622,0,0,0,0,0.022625,2
5788.5,54.3,19.655,0,-0.046755,0,5860.1,70.622,0,0,0,0,0.023216,2
5788.5,54.3,19.655,0,-0.046755,0,5860.1,70.622,0,0,0,0,0.023216,2
5788.5,54.3,19.655,0,-0.046755,0,5860.1,70.622,0,0,0,0,0.023216,2
5788.5,54.3,19.655,0,-0.046755,0,5860.1,70.622,0,0,0,0,0.023216,2
5788.5,54.3,19.655,0,-0.046755,0,5860.1,70.622,0,0,0,0,0.023216,2
5788.5,54.3,19.655,0,-0.046755,0,5860.1,70.622,0,0,0,0,0.023216,2
5788.5,54.3,19.655,0,-0.046755,0,5860.1,70.622,0,0,0,0,0.023216,2
5788.5,54.3,19.655,0,-0.046755,0,5860.1,70.622,0,0,0,0,0.023216,2
5788.5,54.3,19.655,0,-0.046755,0,5860.1,70.622,0,0,0,0,0.023216,2
5788.5,54.3,19.655,0,-0.046755,0,5860.1,70.622,0,0,0,0,0.023216,2
5788.5,54.3,19.655,0,-0.046755,0,5860.1,70.622,0,0,0,0,0.023216,2
5791.3,54.3,19.649,0,-0.046823,0,5860.1,70.622,0,0,0,0,0.024095,2
5791.3,54.3,19.649,0,-0.046823,0,5860.1,70.622,0,0,0,0,0.024095,2
5791.3,54.3,19.649,0,-0.046823,0,5860.1,70.622,0,0,0,0,0.024095,2
5791.3,54.3,19.649,0,-0.046823,0,5860.1,70.622,0,0,0,0,0.024095,2
5791.3,54.3,19.649,0,-0.046823,0,5860.1,70.622,0,0,0,0,0.024095,2
5791.3,54.3,19.649,0,-0.046823,0,5860.1,70.622,0,0,0,0,0.024095,2
5791.3,54.3,19.649,0,-0.046823,0,5860.1,70.622,0,0,0,0,0.024095,2
5791.3,54.3,19.649,0,-0.046823,0,5860.1,70.622,0,0,0,0,0.024095,2
5791.3,54.3,19.649,0,-0.046823,0,5860.1,70.622,0,0,0,0,0.024095,2
5791.3,54.3,19.649,0,-0.046823,0,5860.1,70.622,0,0,0,0,0.024095,2
5791.3,54.3,19.649,0,-0.046823,0,5860.1,70.622,0,0,0,0,0.024095,2
5791.3,54.3,19.649,0,-0.046823,0,5860.1,70.622,0,0,0,0,0.024095,2
5792.8,54.3,19.645,0,-0.046859,0,5860.1,70.622,0,0,0,0,0.024627,2
5792.8,54.3,19.645,0,-0.046859,0,5860.1,70.622,0,0,0,0,0.024627,2
5793.2,54.3,19.644,0,-0.046868,0,5860.1,70.622,0,0,0,0,0.024764,2
5793.6,54.3,19.643,0,-0.046878,0,5860.1,70.622,0,0,0,0,0.024902,2
5793.6,54.3,19.643,0,-0.046878,0,5860.1,70.622,0,0,0,0,0.024902,2
5793.6,54.3,19.643,0,-0.046878,0,5860.1,70.622,0,0,0,0,0.024902,2
5793.6,54.3,19.643,0,-0.046878,0,5860.1,70.622,0,0,0,0,0.024902,2
5793.6,54.3,19.643,0,-0.046878,0,5860.1,70.622,0,0,0,0,0.024902,2
5794.8,54.3,19.64,0,-0.046904,0,5860.1,70.622,0,0,0,0,0.025325,2
5794.8,54.3,19.64,0,-0.046904,0,5860.1,70.622,0,0,0,0,0.025325,2
5794.8,54.3,19.64,0,-0.046904,0,5860.1,70.622,0,0,0,0,0.025325,2
5794.8,54.3,19.64,0,-0.046904,0,5860.1,70.622,0,0,0,0,0.025325,2
5794.8,54.3,19.64,0,-0.046904,0,5860.1,70.622,0,0,0,0,0.025325,2
5794.8,54.3,19.64,0,-0.046904,0,5860.1,70.622,0,0,0,0,0.025325,2
5796.4,54.3,19.637,0,-0.046932,0,5860.1,70.622,0,0,0,0,0.025911,2
5796.4,54.3,19.637,0,-0.046932,0,5860.1,70.622,0,0,0,0,0.025911,2
5796.4,54.3,19.637,0,-0.046932,0,5860.1,70.622,0,0,0,0,0.025911,2
5796.4,54.3,19.637,0,-0.046932,0,5860.1,70.622,0,0,0,0,0.025911,2
5796.4,54.3,19.637,0,-0.046932,0,5860.1,70.622,0,0,0,0,0.025911,2
5796.4,54.3,19.637,0,-0.046932,0,5860.1,70.622,0,0,0,0,0.025911,2
5796.4,54.3,19.637,0,-0.046932,0,5860.1,70.622,0,0,0,0,0.025911,2
5796.4,54.3,19.637,0,-0.046932,0,5860.1,70.622,0,0,0,0,0.025911,2
5796.4,54.3,19.637,0,-0.046932,0,5860.1,70.622,0,0,0,0,0.025911,2
5796.4,54.3,19.637,0,-0.046932,0,5860.1,70.622,0,0,0,0,0.025911,2
5796.4,54.3,19.637,0,-0.046932,0,5860.1,70.622,0,0,0,0,0.025911,2
5796.4,54.3,19.637,0,-0.046932,0,5860.1,70.622,0,0,0,0,0.025911,2
5797.9,54.3,19.633,0,-0.046962,0,5860.1,70.622,0,0,0,0,0.026524,2
5797.9,54.3,19.633,0,-0.046962,0,5860.1,70.622,0,0,0,0,0.026524,2
5798.3,54.3,19.632,0,-0.04697,0,5860.1,70.622,0,0,0,0,0.026682,2
5798.3,54.3,19.632,0,-0.04697,0,5860.1,70.622,0,0,0,0,0.026682,2
5798.7,54.3,19.631,0,-0.046978,0,5860.1,70.622,0,0,0,0,0.026841,2
5798.7,54.3,19.631,0,-0.046978,0,5860.1,70.622,0,0,0,0,0.026841,2
5799.5,54.3,19.629,0,-0.046991,0,5860.1,70.622,0,0,0,0,0.027165,2
5799.5,54.3,19.629,0,-0.046991,0,5860.1,70.622,0,0,0,0,0.027165,2
5800.3,54.3,19.627,0,-0.047001,0,5860.1,70.622,0,0,0,0,0.027497,2
5800.3,54.3,19.627,0,-0.047001,0,5860.1,70.622,0,0,0,0,0.027497,2
5800.3,54.3,19.627,0,-0.047001,0,5860.1,70.622,0,0,0,0,0.027497,2
5801.1,54.3,19.625,0,-0.047011,0,5860.1,70.622,0,0,0,0,0.027837,2
5801.1,54.3,19.625,0,-0.047011,0,5860.1,70.622,0,0,0,0,0.027837,2
5801.5,54.3,19.624,0,-0.047017,0,5860.1,70.622,0,0,0,0,0.02801,2
5801.5,54.3,19.624,0,-0.047017,0,5860.1,70.622,0,0,0,0,0.02801,2
5801.5,54.3,19.624,0,-0.047017,0,5860.1,70.622,0,0,0,0,0.02801,2
5801.5,54.3,19.624,0,-0.047017,0,5860.1,70.622,0,0,0,0,0.02801,2
5801.5,54.3,19.624,0,-0.047017,0,5860.1,70.622,0,0,0,0,0.02801,2
5801.5,54.3,19.624,0,-0.047017,0,5860.1,70.622,0,0,0,0,0.02801,2
5801.5,54.3,19.624,0,-0.047017,0,5860.1,70.622,0,0,0,0,0.02801,2
5801.9,54.3,19.623,0,-0.047022,0,5860.1,70.622,0,0,0,0,0.028185,2
5801.9,54.3,19.623,0,-0.047022,0,5860.1,70.622,0,0,0,0,0.028185,2
5802.3,54.3,19.623,0,-0.047027,0,5860.1,70.622,0,0,0,0,0.028362,2
5802.3,54.3,19.623,0,-0.047027,0,5860.1,70.622,0,0,0,0,0.028362,2
5802.7,54.3,19.622,0,-0.047033,0,5860.1,70.622,0,0,0,0,0.028542,2
5802.7,54.3,19.622,0,-0.047033,0,5860.1,70.622,0,0,0,0,0.028542,2
5802.7,54.3,19.622,0,-0.047033,0,5860.1,70.622,0,0,0,0,0.028542,2
5802.7,54.3,19.622,0,-0.047033,0,5860.1,70.622,0,0,0,0,0.028542,2
5803.8,54.3,19.619,0,-0.047049,0,5860.1,70.622,0,0,0,0,0.029093,2
5803.8,54.3,19.619,0,-0.047049,0,5860.1,70.622,0,0,0,0,0.029093,2
5803.8,54.3,19.619,0,-0.047049,0,5860.1,70.622,0,0,0,0,0.029093,2
5803.8,54.3,19.619,0,-0.047049,0,5860.1,70.622,0,0,0,0,0.029093,2
5803.8,54.3,19.619,0,-0.047049,0,5860.1,70.622,0,0,0,0,0.029093,2
5803.8,54.3,19.619,0,-0.047049,0,5860.1,70.622,0,0,0,0,0.029093,2
5803.8,54.3,19.619,0,-0.047049,0,5860.1,70.622,0,0,0,0,0.029093,2
5805.4,54.3,19.615,0,-0.04707,0,5860.1,70.622,0,0,0,0,0.02986,2
5805.4,54.3,19.615,0,-0.04707,0,5860.1,70.622,0,0,0,0,0.02986,2
5805.4,54.3,19.615,0,-0.04707,0,5860.1,70.622,0,0,0,0,0.02986,2
5805.4,54.3,19.615,0,-0.04707,0,5860.1,70.622,0,0,0,0,0.02986,2
5805.4,54.3,19.615,0,-0.04707,0,5860.1,70.622,0,0,0,0,0.02986,2
5805.4,54.3,19.615,0,-0.04707,0,5860.1,70.622,0,0,0,0,0.02986,2
5805.4,54.3,19.615,0,-0.04707,0,5860.1,70.622,0,0,0,0,0.02986,2
5807,54.3,19.611,0,-0.047083,0,5860.1,70.622,0,0,0,0,0.030666,2
5807,54.3,19.611,0,-0.047083,0,5860.1,70.622,0,0,0,0,0.030666,2
5807,54.3,19.611,0,-0.047083,0,5860.1,70.622,0,0,0,0,0.030666,2
5807.8,54.3,19.609,0,-0.047088,0,5860.1,70.622,0,0,0,0,0.031085,2
5807.8,54.3,19.609,0,-0.047088,0,5860.1,70.622,0,0,0,0,0.031085,2
5807.8,54.3,19.609,0,-0.047088,0,5860.1,70.622,0,0,0,0,0.031085,2
5808.1,54.3,19.608,0,-0.04709,0,5860.1,70.622,0,0,0,0,0.031299,2
5808.1,54.3,19.608,0,-0.04709,0,5860.1,70.622,0,0,0,0,0.031299,2
5808.1,54.3,19.608,0,-0.04709,0,5860.1,70.622,0,0,0,0,0.031299,2
5808.1,54.3,19.608,0,-0.04709,0,5860.1,70.622,0,0,0,0,0.031299,2
5808.5,54.3,19.607,0,-0.047093,0,5860.1,70.622,0,0,0,0,0.031515,2
5808.5,54.3,19.607,0,-0.047093,0,5860.1,70.622,0,0,0,0,0.031515,2
5808.9,54.3,19.607,0,-0.047095,0,5860.1,70.622,0,0,0,0,0.031734,2
5808.9,54.3,19.607,0,-0.047095,0,5860.1,70.622,0,0,0,0,0.031734,2
5809.3,54.3,19.606,0,-0.047097,0,5860.1,70.622,0,0,0,0,0.031957,2
5809.3,54.3,19.606,0,-0.047097,0,5860.1,70.622,0,0,0,0,0.031957,2
5809.7,54.3,19.605,0,-0.047099,0,5860.1,70.622,0,0,0,0,0.032182,2
5809.7,54.3,19.605,0,-0.047099,0,5860.1,70.622,0,0,0,0,0.032182,2
5810.5,54.3,19.603,0,-0.047103,0,5860.1,70.622,0,0,0,0,0.032641,2
5810.5,54.3,19.603,0,-0.047103,0,5860.1,70.622,0,0,0,0,0.032641,2
5810.5,54.3,19.603,0,-0.047103,0,5860.1,70.622,0,0,0,0,0.032641,2
5810.5,54.3,19.603,0,-0.047103,0,5860.1,70.622,0,0,0,0,0.032641,2
5810.5,54.3,19.603,0,-0.047103,0,5860.1,70.622,0,0,0,0,0.032641,2
5810.5,54.3,19.603,0,-0.047103,0,5860.1,70.622,0,0,0,0,0.032641,2
5810.5,54.3,19.603,0,-0.047103,0,5860.1,70.622,0,0,0,0,0.032641,2
5810.5,54.3,19.603,0,-0.047103,0,5860.1,70.622,0,0,0,0,0.032641,2
5810.5,54.3,19.603,0,-0.047103,0,5860.1,70.622,0,0,0,0,0.032641,2
5810.5,54.3,19.603,0,-0.047103,0,5860.1,70.622,0,0,0,0,0.032641,2
5810.5,54.3,19.603,0,-0.047103,0,5860.1,70.622,0,0,0,0,0.032641,2
5810.5,54.3,19.603,0,-0.047103,0,5860.1,70.622,0,0,0,0,0.032641,2
5812.1,54.3,19.599,0,-0.047111,0,5860.1,70.622,0,0,0,0,0.033597,2
5812.1,54.3,19.599,0,-0.047111,0,5860.1,70.622,0,0,0,0,0.033597,2
5812.5,54.3,19.598,0,-0.047113,0,5860.1,70.622,0,0,0,0,0.033845,2
5812.9,54.3,19.597,0,-0.047114,0,5860.1,70.622,0,0,0,0,0.034096,2
5812.9,54.3,19.597,0,-0.047114,0,5860.1,70.622,0,0,0,0,0.034096,2
5812.9,54.3,19.597,0,-0.047114,0,5860.1,70.622,0,0,0,0,0.034096,2
5812.9,54.3,19.597,0,-0.047114,0,5860.1,70.622,0,0,0,0,0.034096,2
5812.9,54.3,19.597,0,-0.047114,0,5860.1,70.622,0,0,0,0,0.034096,2
5814,54.3,19.594,0,-0.047118,0,5860.1,70.622,0,0,0,0,0.03487,2
5814,54.3,19.594,0,-0.047118,0,5860.1,70.622,0,0,0,0,0.03487,2
5814,54.3,19.594,0,-0.047118,0,5860.1,70.622,0,0,0,0,0.03487,2
5814,54.3,19.594,0,-0.047118,0,5860.1,70.622,0,0,0,0,0.03487,2
5814,54.3,19.594,0,-0.047118,0,5860.1,70.622,0,0,0,0,0.03487,2
5814,54.3,19.594,0,-0.047118,0,5860.1,70.622,0,0,0,0,0.03487,2
5814,54.3,19.594,0,-0.047118,0,5860.1,70.622,0,0,0,0,0.03487,2
5814,54.3,19.594,0,-0.047118,0,5860.1,70.622,0,0,0,0,0.03487,2
5814,54.3,19.594,0,-0.047118,0,5860.1,70.622,0,0,0,0,0.03487,2
5815.6,54.3,19.59,0,-0.047122,0,5860.1,70.622,0,0,0,0,0.035954,2
5815.6,54.3,19.59,0,-0.047122,0,5860.1,70.622,0,0,0,0,0.035954,2
5815.6,54.3,19.59,0,-0.047122,0,5860.1,70.622,0,0,0,0,0.035954,2
5816.4,54.3,19.589,0,-0.047123,0,5860.1,70.622,0,0,0,0,0.03652,2
5816.4,54.3,19.589,0,-0.047123,0,5860.1,70.622,0,0,0,0,0.03652,2
5816.4,54.3,19.589,0,-0.047123,0,5860.1,70.622,0,0,0,0,0.03652,2
5817.2,54.3,19.587,0,-0.047124,0,5860.1,70.622,0,0,0,0,0.037103,2
5817.2,54.3,19.587,0,-0.047124,0,5860.1,70.622,0,0,0,0,0.037103,2
5817.9,54.3,19.585,0,-0.047124,0,5860.1,70.622,0,0,0,0,0.037703,2
5817.9,54.3,19.585,0,-0.047124,0,5860.1,70.622,0,0,0,0,0.037703,2
5817.9,54.3,19.585,0,-0.047124,0,5860.1,70.622,0,0,0,0,0.037703,2
5817.9,54.3,19.585,0,-0.047124,0,5860.1,70.622,0,0,0,0,0.037703,2
5817.9,54.3,19.585,0,-0.047124,0,5860.1,70.622,0,0,0,0,0.037703,2
5817.9,54.3,19.585,0,-0.047124,0,5860.1,70.622,0,0,0,0,0.037703,2
5819.1,54.3,19.582,0,-0.047123,0,5860.1,70.622,0,0,0,0,0.038637,2
5819.1,54.3,19.582,0,-0.047123,0,5860.1,70.622,0,0,0,0,0.038637,2
5819.1,54.3,19.582,0,-0.047123,0,5860.1,70.622,0,0,0,0,0.038637,2
5819.1,54.3,19.582,0,-0.047123,0,5860.1,70.622,0,0,0,0,0.038637,2
5819.1,54.3,19.582,0,-0.047123,0,5860.1,70.622,0,0,0,0,0.038637,2
5819.1,54.3,19.582,0,-0.047123,0,5860.1,70.622,0,0,0,0,0.038637,2
5819.1,54.3,19.582,0,-0.047123,0,5860.1,70.622,0,0,0,0,0.038637,2
5819.5,54.3,19.581,0,-0.047123,0,5860.1,70.622,0,0,0,0,0.038958,2
5819.5,54.3,19.581,0,-0.047123,0,5860.1,70.622,0,0,0,0,0.038958,2
5819.5,54.3,19.581,0,-0.047123,0,5860.1,70.622,0,0,0,0,0.038958,2
5819.5,54.3,19.581,0,-0.047123,0,5860.1,70.622,0,0,0,0,0.038958,2
5819.5,54.3,19.581,0,-0.047123,0,5860.1,70.622,0,0,0,0,0.038958,2
5819.5,54.3,19.581,0,-0.047123,0,5860.1,70.622,0,0,0,0,0.038958,2
5819.5,54.3,19.581,0,-0.047123,0,5860.1,70.622,0,0,0,0,0.038958,2
5819.5,54.3,19.581,0,-0.047123,0,5860.1,70.622,0,0,0,0,0.038958,2
5819.5,54.3,19.581,0,-0.047123,0,5860.1,70.622,0,0,0,0,0.038958,2
5821.5,54.3,19.576,0,-0.047117,0,5860.1,70.622,0,0,0,0,0.040639,2
5821.5,54.3,19.576,0,-0.047117,0,5860.1,70.622,0,0,0,0,0.040639,2
5821.5,54.3,19.576,0,-0.047117,0,5860.1,70.622,0,0,0,0,0.040639,2
5821.5,54.3,19.576,0,-0.047117,0,5860.1,70.622,0,0,0,0,0.040639,2
5822.6,54.3,19.574,0,-0.047111,0,5860.1,70.622,0,0,0,0,0.041712,2
5822.6,54.3,19.574,0,-0.047111,0,5860.1,70.622,0,0,0,0,0.041712,2
5823,54.3,19.573,0,-0.047109,0,5860.1,70.622,0,0,0,0,0.042082,2
5823,54.3,19.573,0,-0.047109,0,5860.1,70.622,0,0,0,0,0.042082,2
5823,54.3,19.573,0,-0.047109,0,5860.1,70.622,0,0,0,0,0.042082,2
5823,54.3,19.573,0,-0.047109,0,5860.1,70.622,0,0,0,0,0.042082,2
5824.2,54.3,19.57,0,-0.047101,0,5860.1,70.622,0,0,0,0,0.043225,2
5824.2,54.3,19.57,0,-0.047101,0,5860.1,70.622,0,0,0,0,0.043225,2
5824.6,54.3,19.569,0,-0.047098,0,5860.1,70.622,0,0,0,0,0.043619,2
5824.6,54.3,19.569,0,-0.047098,0,5860.1,70.622,0,0,0,0,0.043619,2
5825,54.3,19.568,0,-0.047095,0,5860.1,70.622,0,0,0,0,0.044019,2
5825,54.3,19.568,0,-0.047095,0,5860.1,70.622,0,0,0,0,0.044019,2
5825,54.3,19.568,0,-0.047095,0,5860.1,70.622,0,0,0,0,0.044019,2
5825,54.3,19.568,0,-0.047095,0,5860.1,70.622,0,0,0,0,0.044019,2
5825,54.3,19.568,0,-0.047095,0,5860.1,70.622,0,0,0,0,0.044019,2
5825,54.3,19.568,0,-0.047095,0,5860.1,70.622,0,0,0,0,0.044019,2
5825,54.3,19.568,0,-0.047095,0,5860.1,70.622,0,0,0,0,0.044019,2
5825,54.3,19.568,0,-0.047095,0,5860.1,70.622,0,0,0,0,0.044019,2
5825,54.3,19.568,0,-0.047095,0,5860.1,70.622,0,0,0,0,0.044019,2
5825,54.3,19.568,0,-0.047095,0,5860.1,70.622,0,0,0,0,0.044019,2
5825,54.3,19.568,0,-0.047095,0,5860.1,70.622,0,0,0,0,0.044019,2
5825,54.3,19.568,0,-0.047095,0,5860.1,70.622,0,0,0,0,0.044019,2
5825,54.3,19.568,0,-0.047095,0,5860.1,70.622,0,0,0,0,0.044019,2
5825,54.3,19.568,0,-0.047095,0,5860.1,70.622,0,0,0,0,0.044019,2
5827.3,54.3,19.562,0,-0.04707,0,5860.1,70.622,0,0,0,0,0.046562,2
5827.3,54.3,19.562,0,-0.04707,0,5860.1,70.622,0,0,0,0,0.046562,2
5827.3,54.3,19.562,0,-0.04707,0,5860.1,70.622,0,0,0,0,0.046562,2
5827.3,54.3,19.562,0,-0.04707,0,5860.1,70.622,0,0,0,0,0.046562,2
5827.3,54.3,19.562,0,-0.04707,0,5860.1,70.622,0,0,0,0,0.046562,2
5827.3,54.3,19.562,0,-0.04707,0,5860.1,70.622,0,0,0,0,0.046562,2
5827.3,54.3,19.562,0,-0.04707,0,5860.1,70.622,0,0,0,0,0.046562,2
5827.3,54.3,19.562,0,-0.04707,0,5860.1,70.622,0,0,0,0,0.046562,2
5827.3,54.3,19.562,0,-0.04707,0,5860.1,70.622,0,0,0,0,0.046562,2
5827.3,54.3,19.562,0,-0.04707,0,5860.1,70.622,0,0,0,0,0.046562,2
5827.3,54.3,19.562,0,-0.04707,0,5860.1,70.622,0,0,0,0,0.046562,2
5827.3,54.3,19.562,0,-0.04707,0,5860.1,70.622,0,0,0,0,0.046562,2
5827.3,54.3,19.562,0,-0.04707,0,5860.1,70.622,0,0,0,0,0.046562,2
5829.3,54.3,19.558,0,-0.047048,0,5860.1,70.622,0,0,0,0,0.048885,2
5829.3,54.3,19.558,0,-0.047048,0,5860.1,70.622,0,0,0,0,0.048885,2
5829.7,54.3,19.557,0,-0.047044,0,5860.1,70.622,0,0,0,0,0.049374,2
5830.1,54.3,19.556,0,-0.047041,0,5860.1,70.622,0,0,0,0,0.049871,2
5830.1,54.3,19.556,0,-0.047041,0,5860.1,70.622,0,0,0,0,0.049871,2
5830.5,54.3,19.555,0,-0.047036,0,5860.1,70.622,0,0,0,0,0.050377,2
5830.5,54.3,19.555,0,-0.047036,0,5860.1,70.622,0,0,0,0,0.050377,2
5830.5,54.3,19.555,0,-0.047036,0,5860.1,70.622,0,0,0,0,0.050377,2
5831.6,54.3,19.552,0,-0.047022,0,5860.1,70.622,0,0,0,0,0.051947,2
5831.6,54.3,19.552,0,-0.047022,0,5860.1,70.622,0,0,0,0,0.051947,2
5831.6,54.3,19.552,0,-0.047022,0,5860.1,70.622,0,0,0,0,0.051947,2
5831.6,54.3,19.552,0,-0.047022,0,5860.1,70.622,0,0,0,0,0.051947,2
5831.6,54.3,19.552,0,-0.047022,0,5860.1,70.622,0,0,0,0,0.051947,2
5831.6,54.3,19.552,0,-0.047022,0,5860.1,70.622,0,0,0,0,0.051947,2
5831.6,54.3,19.552,0,-0.047022,0,5860.1,70.622,0,0,0,0,0.051947,2
5831.6,54.3,19.552,0,-0.047022,0,5860.1,70.622,0,0,0,0,0.051947,2
5831.6,54.3,19.552,0,-0.047022,0,5860.1,70.622,0,0,0,0,0.051947,2
5831.6,54.3,19.552,0,-0.047022,0,5860.1,70.622,0,0,0,0,0.051947,2
5831.6,54.3,19.552,0,-0.047022,0,5860.1,70.622,0,0,0,0,0.051947,2
5831.6,54.3,19.552,0,-0.047022,0,5860.1,70.622,0,0,0,0,0.051947,2
5833.2,54.3,19.548,0,-0.047,0,5860.1,70.622,0,0,0,0,0.05417,2
5833.6,54.3,19.547,0,-0.046993,0,5860.1,70.622,0,0,0,0,0.054751,2
5833.6,54.3,19.547,0,-0.046993,0,5860.1,70.622,0,0,0,0,0.054751,2
5833.6,54.3,19.547,0,-0.046993,0,5860.1,70.622,0,0,0,0,0.054751,2
5833.6,54.3,19.547,0,-0.046993,0,5860.1,70.622,0,0,0,0,0.054751,2
5833.6,54.3,19.547,0,-0.046993,0,5860.1,70.622,0,0,0,0,0.054751,2
5834,54.3,19.546,0,-0.046986,0,5860.1,70.622,0,0,0,0,0.055341,2
5834.8,54.3,19.544,0,-0.046972,0,5860.1,70.622,0,0,0,0,0.056553,2
5834.8,54.3,19.544,0,-0.046972,0,5860.1,70.622,0,0,0,0,0.056553,2
5834.8,54.3,19.544,0,-0.046972,0,5860.1,70.622,0,0,0,0,0.056553,2
5835.6,54.3,19.542,0,-0.046956,0,5860.1,70.622,0,0,0,0,0.057808,2
5835.6,54.3,19.542,0,-0.046956,0,5860.1,70.622,0,0,0,0,0.057808,2
5835.6,54.3,19.542,0,-0.046956,0,5860.1,70.622,0,0,0,0,0.057808,2
5835.6,54.3,19.542,0,-0.046956,0,5860.1,70.622,0,0,0,0,0.057808,2
5835.6,54.3,19.542,0,-0.046956,0,5860.1,70.622,0,0,0,0,0.057808,2
5837.1,54.3,19.539,0,-0.046931,0,5860.1,70.622,0,0,0,0,0.060449,2
5837.1,54.3,19.539,0,-0.046931,0,5860.1,70.622,0,0,0,0,0.060449,2
5837.1,54.3,19.539,0,-0.046931,0,5860.1,70.622,0,0,0,0,0.060449,2
5837.1,54.3,19.539,0,-0.046931,0,5860.1,70.622,0,0,0,0,0.060449,2
5837.1,54.3,19.539,0,-0.046931,0,5860.1,70.622,0,0,0,0,0.060449,2
5837.1,54.3,19.539,0,-0.046931,0,5860.1,70.622,0,0,0,0,0.060449,2
5837.1,54.3,19.539,0,-0.046931,0,5860.1,70.622,0,0,0,0,0.060449,2
5837.9,54.3,19.537,0,-0.046917,0,5860.1,70.622,0,0,0,0,0.061838,2
5837.9,54.3,19.537,0,-0.046917,0,5860.1,70.622,0,0,0,0,0.061838,2
5837.9,54.3,19.537,0,-0.046917,0,5860.1,70.622,0,0,0,0,0.061838,2
5837.9,54.3,19.537,0,-0.046917,0,5860.1,70.622,0,0,0,0,0.061838,2
5837.9,54.3,19.537,0,-0.046917,0,5860.1,70.622,0,0,0,0,0.061838,2
5837.9,54.3,19.537,0,-0.046917,0,5860.1,70.622,0,0,0,0,0.061838,2
5837.9,54.3,19.537,0,-0.046917,0,5860.1,70.622,0,0,0,0,0.061838,2
5837.9,54.3,19.537,0,-0.046917,0,5860.1,70.622,0,0,0,0,0.061838,2
5839.1,54.3,19.534,0,-0.046893,0,5860.1,70.622,0,0,0,0,0.06401,2
5839.1,54.3,19.534,0,-0.046893,0,5860.1,70.622,0,0,0,0,0.06401,2
5839.9,54.3,19.532,0,-0.046874,0,5860.1,70.622,0,0,0,0,0.065518,2
5839.9,54.3,19.532,0,-0.046874,0,5860.1,70.622,0,0,0,0,0.065518,2
5839.9,54.3,19.532,0,-0.046874,0,5860.1,70.622,0,0,0,0,0.065518,2
5841,54.3,19.529,0,-0.046847,0,5860.1,70.622,0,0,0,0,0.067871,2
5841,54.3,19.529,0,-0.046847,0,5860.1,70.622,0,0,0,0,0.067871,2
5841,54.3,19.529,0,-0.046847,0,5860.1,70.622,0,0,0,0,0.067871,2
5841,54.3,19.529,0,-0.046847,0,5860.1,70.622,0,0,0,0,0.067871,2
5841,54.3,19.529,0,-0.046847,0,5860.1,70.622,0,0,0,0,0.067871,2
5841,54.3,19.529,0,-0.046847,0,5860.1,70.622,0,0,0,0,0.067871,2
5841,54.3,19.529,0,-0.046847,0,5860.1,70.622,0,0,0,0,0.067871,2
5841,54.3,19.529,0,-0.046847,0,5860.1,70.622,0,0,0,0,0.067871,2
5841,54.3,19.529,0,-0.046847,0,5860.1,70.622,0,0,0,0,0.067871,2
5841,54.3,19.529,0,-0.046847,0,5860.1,70.622,0,0,0,0,0.067871,2
5841,54.3,19.529,0,-0.046847,0,5860.1,70.622,0,0,0,0,0.067871,2
5841,54.3,19.529,0,-0.046847,0,5860.1,70.622,0,0,0,0,0.067871,2
5841,54.3,19.529,0,-0.046847,0,5860.1,70.622,0,0,0,0,0.067871,2
5841.8,54.3,19.527,0,-0.046831,0,5860.1,70.622,0,0,0,0,0.069499,2
5841.8,54.3,19.527,0,-0.046831,0,5860.1,70.622,0,0,0,0,0.069499,2
5841.8,54.3,19.527,0,-0.046831,0,5860.1,70.622,0,0,0,0,0.069499,2
5841.8,54.3,19.527,0,-0.046831,0,5860.1,70.622,0,0,0,0,0.069499,2
5843,54.3,19.525,0,-0.046803,0,5860.1,70.622,0,0,0,0,0.072029,2
5843,54.3,19.525,0,-0.046803,0,5860.1,70.622,0,0,0,0,0.072029,2
5843,54.3,19.525,0,-0.046803,0,5860.1,70.622,0,0,0,0,0.072029,2
5844.5,54.3,19.521,0,-0.04676,0,5860.1,70.622,0,0,0,0,0.075558,2
5844.9,54.3,19.52,0,-0.046751,0,5860.1,70.622,0,0,0,0,0.076465,2
5844.9,54.3,19.52,0,-0.046751,0,5860.1,70.622,0,0,0,0,0.076465,2
5844.9,54.3,19.52,0,-0.046751,0,5860.1,70.622,0,0,0,0,0.076465,2
5845.3,54.3,19.519,0,-0.046741,0,5860.1,70.622,0,0,0,0,0.077382,2
5845.7,54.3,19.518,0,-0.046732,0,5860.1,70.622,0,0,0,0,0.078307,2
5845.7,54.3,19.518,0,-0.046732,0,5860.1,70.622,0,0,0,0,0.078307,2
5845.7,54.3,19.518,0,-0.046732,0,5860.1,70.622,0,0,0,0,0.078307,2
5845.7,54.3,19.518,0,-0.046732,0,5860.1,70.622,0,0,0,0,0.078307,2
5845.7,54.3,19.518,0,-0.046732,0,5860.1,70.622,0,0,0,0,0.078307,2
5845.7,54.3,19.518,0,-0.046732,0,5860.1,70.622,0,0,0,0,0.078307,2
5845.7,54.3,19.518,0,-0.046732,0,5860.1,70.622,0,0,0,0,0.078307,2
5845.7,54.3,19.518,0,-0.046732,0,5860.1,70.622,0,0,0,0,0.078307,2
5845.7,54.3,19.518,0,-0.046732,0,5860.1,70.622,0,0,0,0,0.078307,2
5846.5,54.3,19.516,0,-0.04671,0,5860.1,70.622,0,0,0,0,0.08018,2
5846.9,54.3,19.515,0,-0.046699,0,5860.1,70.622,0,0,0,0,0.081127,2
5846.9,54.3,19.515,0,-0.046699,0,5860.1,70.622,0,0,0,0,0.081127,2
5846.9,54.3,19.515,0,-0.046699,0,5860.1,70.622,0,0,0,0,0.081127,2
5847.3,54.3,19.514,0,-0.046687,0,5860.1,70.622,0,0,0,0,0.082078,2
5847.7,54.3,19.513,0,-0.046675,0,5860.1,70.622,0,0,0,0,0.083034,2
5848.8,54.3,19.511,0,-0.046641,0,5860.1,70.622,0,0,0,0,0.085915,2
5848.8,54.3,19.511,0,-0.046641,0,5860.1,70.622,0,0,0,0,0.085915,2
5848.8,54.3,19.511,0,-0.046641,0,5860.1,70.622,0,0,0,0,0.085915,2
5848.8,54.3,19.511,0,-0.046641,0,5860.1,70.622,0,0,0,0,0.085915,2
5848.8,54.3,19.511,0,-0.046641,0,5860.1,70.622,0,0,0,0,0.085915,2
5849.2,54.3,19.51,0,-0.04663,0,5860.1,70.622,0,0,0,0,0.086875,2
5849.2,54.3,19.51,0,-0.04663,0,5860.1,70.622,0,0,0,0,0.086875,2
5849.2,54.3,19.51,0,-0.04663,0,5860.1,70.622,0,0,0,0,0.086875,2
5849.2,54.3,19.51,0,-0.04663,0,5860.1,70.622,0,0,0,0,0.086875,2
5849.2,54.3,19.51,0,-0.04663,0,5860.1,70.622,0,0,0,0,0.086875,2
5849.2,54.3,19.51,0,-0.04663,0,5860.1,70.622,0,0,0,0,0.086875,2
5849.2,54.3,19.51,0,-0.04663,0,5860.1,70.622,0,0,0,0,0.086875,2
5849.2,54.3,19.51,0,-0.04663,0,5860.1,70.622,0,0,0,0,0.086875,2
5849.2,54.3,19.51,0,-0.04663,0,5860.1,70.622,0,0,0,0,0.086875,2
5849.2,54.3,19.51,0,-0.04663,0,5860.1,70.622,0,0,0,0,0.086875,2
5849.2,54.3,19.51,0,-0.04663,0,5860.1,70.622,0,0,0,0,0.086875,2
5850.8,54.3,19.506,0,-0.04658,0,5860.1,70.622,0,0,0,0,0.090672,2
5851.2,54.3,19.505,0,-0.046566,0,5860.1,70.622,0,0,0,0,0.091601,2
5851.2,54.3,19.505,0,-0.046566,0,5860.1,70.622,0,0,0,0,0.091601,2
5851.2,54.3,19.505,0,-0.046566,0,5860.1,70.622,0,0,0,0,0.091601,2
5851.2,54.3,19.505,0,-0.046566,0,5860.1,70.622,0,0,0,0,0.091601,2
5851.2,54.3,19.505,0,-0.046566,0,5860.1,70.622,0,0,0,0,0.091601,2
5852.7,54.3,19.501,0,-0.046518,0,5860.1,70.622,0,0,0,0,0.095168,2
5852.7,54.3,19.501,0,-0.046518,0,5860.1,70.622,0,0,0,0,0.095168,2
5853.1,54.3,19.5,0,-0.046504,0,5860.1,70.622,0,0,0,0,0.096011,2
5853.1,54.3,19.5,0,-0.046504,0,5860.1,70.622,0,0,0,0,0.096011,2
5853.1,54.3,19.5,0,-0.046504,0,5860.1,70.622,0,0,0,0,0.096011,2
5853.1,54.3,19.5,0,-0.046504,0,5860.1,70.622,0,0,0,0,0.096011,2
5853.1,54.3,19.5,0,-0.046504,0,5860.1,70.622,0,0,0,0,0.096011,2
5853.1,54.3,19.5,0,-0.046504,0,5860.1,70.622,0,0,0,0,0.096011,2
5853.1,54.3,19.5,0,-0.046504,0,5860.1,70.622,0,0,0,0,0.096011,2
5853.1,54.3,19.5,0,-0.046504,0,5860.1,70.622,0,0,0,0,0.096011,2
5853.9,54.3,19.499,0,-0.046475,0,5860.1,70.622,0,0,0,0,0.097619,2
5853.9,54.3,19.499,0,-0.046475,0,5860.1,70.622,0,0,0,0,0.097619,2
5853.9,54.3,19.499,0,-0.046475,0,5860.1,70.622,0,0,0,0,0.097619,2
5854.7,54.3,19.497,0,-0.046447,0,5860.1,70.622,0,0,0,0,0.099107,2
5854.7,54.3,19.497,0,-0.046447,0,5860.1,70.622,0,0,0,0,0.099107,2
5855.9,54.3,19.494,0,-0.046406,0,5860.1,70.622,0,0,0,0,0.10106,2
5855.9,54.3,19.494,0,-0.046406,0,5860.1,70.622,0,0,0,0,0.10106,2
5856.2,54.3,19.493,0,-0.046391,0,5860.1,70.622,0,0,0,0,0.10163,2
5856.2,54.3,19.493,0,-0.046391,0,5860.1,70.622,0,0,0,0,0.10163,2
5856.2,54.3,19.493,0,-0.046391,0,5860.1,70.622,0,0,0,0,0.10163,2
5856.2,54.3,19.493,0,-0.046391,0,5860.1,70.622,0,0,0,0,0.10163,2
5856.2,54.3,19.493,0,-0.046391,0,5860.1,70.622,0,0,0,0,0.10163,2
5856.2,54.3,19.493,0,-0.046391,0,5860.1,70.622,0,0,0,0,0.10163,2
5856.2,54.3,19.493,0,-0.046391,0,5860.1,70.622,0,0,0,0,0.10163,2
5857,54.3,19.491,0,-0.046359,0,5860.1,70.622,0,0,0,0,0.10263,2
5857,54.3,19.491,0,-0.046359,0,5860.1,70.622,0,0,0,0,0.10263,2
5857,54.3,19.491,0,-0.046359,0,5860.1,70.622,0,0,0,0,0.10263,2
5857.4,54.3,19.49,0,-0.046345,0,5860.1,70.622,0,0,0,0,0.10305,2
5857.4,54.3,19.49,0,-0.046345,0,5860.1,70.622,0,0,0,0,0.10305,2
5857.8,54.3,19.489,0,-0.04633,0,5860.1,70.622,0,0,0,0,0.10342,2
5857.8,54.3,19.489,0,-0.04633,0,5860.1,70.622,0,0,0,0,0.10342,2
5857.8,54.3,19.489,0,-0.04633,0,5860.1,70.622,0,0,0,0,0.10342,2
5859,54.3,19.486,0,-0.046283,0,5860.1,70.622,0,0,0,0,0.1042,2
5859,54.3,19.486,0,-0.046283,0,5860.1,70.622,0,0,0,0,0.1042,2
5859.8,54.3,19.485,0,-0.046252,0,5860.1,70.622,0,0,0,0,0.10444,2
5859.8,54.3,19.485,0,-0.046252,0,5860.1,70.622,0,0,0,0,0.10444,2
5859.8,54.3,19.485,0,-0.046252,0,5860.1,70.622,0,0,0,0,0.10444,2
5860.1,54.3,19.484,0,-0.046236,0,5860.1,70.622,0,0,0,0,0.10446,2
5860.1,54.3,19.484,0,-0.046236,0,5860.1,70.622,0,0,0,0,0.10446,2
5860.5,54.3,19.483,0,-0.046221,0,5860.1,70.622,0,0,0,0,0.10443,2
5860.5,54.3,19.483,0,-0.046221,0,5860.1,70.622,0,0,0,0,0.10443,2
5860.5,54.3,19.483,0,-0.046221,0,5860.1,70.622,0,0,0,0,0.10443,2
5860.5,54.3,19.483,0,-0.046221,0,5860.1,70.622,0,0,0,0,0.10443,2
5860.5,54.3,19.483,0,-0.046221,0,5860.1,70.622,0,0,0,0,0.10443,2
5860.5,54.3,19.483,0,-0.046221,0,5860.1,70.622,0,0,0,0,0.10443,2
5860.5,54.3,19.483,0,-0.046221,0,5860.1,70.622,0,0,0,0,0.10443,2
5860.5,54.3,19.483,0,-0.046221,0,5860.1,70.622,0,0,0,0,0.10443,2
5861.3,54.3,19.481,0,-0.046187,0,5860.1,70.622,0,0,0,0,0.10419,2
5861.3,54.3,19.481,0,-0.046187,0,5860.1,70.622,0,0,0,0,0.10419,2
5861.7,54.3,19.48,0,-0.046169,0,5860.1,70.622,0,0,0,0,0.10398,2
5861.7,54.3,19.48,0,-0.046169,0,5860.1,70.622,0,0,0,0,0.10398,2
5861.7,54.3,19.48,0,-0.046169,0,5860.1,70.622,0,0,0,0,0.10398,2
5861.7,54.3,19.48,0,-0.046169,0,5860.1,70.622,0,0,0,0,0.10398,2
5861.7,54.3,19.48,0,-0.046169,0,5860.1,70.622,0,0,0,0,0.10398,2
5862.9,54.3,19.477,0,-0.046121,0,5860.1,70.622,0,0,0,0,0.10301,2
5862.9,54.3,19.477,0,-0.046121,0,5860.1,70.622,0,0,0,0,0.10301,2
5863.6,54.3,19.475,0,-0.046086,0,5860.1,70.622,0,0,0,0,0.10211,2
5863.6,54.3,19.475,0,-0.046086,0,5860.1,70.622,0,0,0,0,0.10211,2
5863.6,54.3,19.475,0,-0.046086,0,5860.1,70.622,0,0,0,0,0.10211,2
5863.6,54.3,19.475,0,-0.046086,0,5860.1,70.622,0,0,0,0,0.10211,2
5864.8,54.3,19.473,0,-0.046033,0,5860.1,70.622,0,0,0,0,0.10039,2
5864.8,54.3,19.473,0,-0.046033,0,5860.1,70.622,0,0,0,0,0.10039,2
5864.8,54.3,19.473,0,-0.046033,0,5860.1,70.622,0,0,0,0,0.10039,2
5864.8,54.3,19.473,0,-0.046033,0,5860.1,70.622,0,0,0,0,0.10039,2
5864.8,54.3,19.473,0,-0.046033,0,5860.1,70.622,0,0,0,0,0.10039,2
5864.8,54.3,19.473,0,-0.046033,0,5860.1,70.622,0,0,0,0,0.10039,2
5864.8,54.3,19.473,0,-0.046033,0,5860.1,70.622,0,0,0,0,0.10039,2
5864.8,54.3,19.473,0,-0.046033,0,5860.1,70.622,0,0,0,0,0.10039,2
5864.8,54.3,19.473,0,-0.046033,0,5860.1,70.622,0,0,0,0,0.10039,2
5864.8,54.3,19.473,0,-0.046033,0,5860.1,70.622,0,0,0,0,0.10039,2
5864.8,54.3,19.473,0,-0.046033,0,5860.1,70.622,0,0,0,0,0.10039,2
5864.8,54.3,19.473,0,-0.046033,0,5860.1,70.622,0,0,0,0,0.10039,2
5864.8,54.3,19.473,0,-0.046033,0,5860.1,70.622,0,0,0,0,0.10039,2
5864.8,54.3,19.473,0,-0.046033,0,5860.1,70.622,0,0,0,0,0.10039,2
5864.8,54.3,19.473,0,-0.046033,0,5860.1,70.622,0,0,0,0,0.10039,2
5864.8,54.3,19.473,0,-0.046033,0,5860.1,70.622,0,0,0,0,0.10039,2
5867.5,54.3,19.466,0,-0.045906,0,5860.1,70.622,0,0,0,0,0.095096,2
5867.5,54.3,19.466,0,-0.045906,0,5860.1,70.622,0,0,0,0,0.095096,2
5867.5,54.3,19.466,0,-0.045906,0,5860.1,70.622,0,0,0,0,0.095096,2
5867.9,54.3,19.465,0,-0.045887,0,5860.1,70.622,0,0,0,0,0.094231,2
5867.9,54.3,19.465,0,-0.045887,0,5860.1,70.622,0,0,0,0,0.094231,2
5868.3,54.3,19.464,0,-0.045869,0,5860.1,70.622,0,0,0,0,0.093347,2
5868.3,54.3,19.464,0,-0.045869,0,5860.1,70.622,0,0,0,0,0.093347,2
5868.3,54.3,19.464,0,-0.045869,0,5860.1,70.622,0,0,0,0,0.093347,2
5869.1,54.3,19.463,0,-0.045832,0,5860.1,70.622,0,0,0,0,0.091531,2
5869.5,54.3,19.462,0,-0.045812,0,5860.1,70.622,0,0,0,0,0.090603,2
5869.5,54.3,19.462,0,-0.045812,0,5860.1,70.622,0,0,0,0,0.090603,2
5869.9,54.3,19.461,0,-0.045792,0,5860.1,70.622,0,0,0,0,0.089666,2
5869.9,54.3,19.461,0,-0.045792,0,5860.1,70.622,0,0,0,0,0.089666,2
5870.3,54.3,19.46,0,-0.045774,0,5860.1,70.622,0,0,0,0,0.08872,2
5870.3,54.3,19.46,0,-0.045774,0,5860.1,70.622,0,0,0,0,0.08872,2
5870.3,54.3,19.46,0,-0.045774,0,5860.1,70.622,0,0,0,0,0.08872,2
5870.3,54.3,19.46,0,-0.045774,0,5860.1,70.622,0,0,0,0,0.08872,2
5870.3,54.3,19.46,0,-0.045774,0,5860.1,70.622,0,0,0,0,0.08872,2
5870.3,54.3,19.46,0,-0.045774,0,5860.1,70.622,0,0,0,0,0.08872,2
5870.3,54.3,19.46,0,-0.045774,0,5860.1,70.622,0,0,0,0,0.08872,2
5870.3,54.3,19.46,0,-0.045774,0,5860.1,70.622,0,0,0,0,0.08872,2
5871,54.3,19.458,0,-0.045735,0,5860.1,70.622,0,0,0,0,0.086814,2
5871.4,54.3,19.457,0,-0.045715,0,5860.1,70.622,0,0,0,0,0.085856,2
5871.4,54.3,19.457,0,-0.045715,0,5860.1,70.622,0,0,0,0,0.085856,2
5871.8,54.3,19.456,0,-0.045694,0,5860.1,70.622,0,0,0,0,0.084898,2
5871.8,54.3,19.456,0,-0.045694,0,5860.1,70.622,0,0,0,0,0.084898,2
5871.8,54.3,19.456,0,-0.045694,0,5860.1,70.622,0,0,0,0,0.084898,2
5871.8,54.3,19.456,0,-0.045694,0,5860.1,70.622,0,0,0,0,0.084898,2
5871.8,54.3,19.456,0,-0.045694,0,5860.1,70.622,0,0,0,0,0.084898,2
5873,54.3,19.453,0,-0.045635,0,5860.1,70.622,0,0,0,0,0.082031,2
5873,54.3,19.453,0,-0.045635,0,5860.1,70.622,0,0,0,0,0.082031,2
5873,54.3,19.453,0,-0.045635,0,5860.1,70.622,0,0,0,0,0.082031,2
5873,54.3,19.453,0,-0.045635,0,5860.1,70.622,0,0,0,0,0.082031,2
5873,54.3,19.453,0,-0.045635,0,5860.1,70.622,0,0,0,0,0.082031,2
5873,54.3,19.453,0,-0.045635,0,5860.1,70.622,0,0,0,0,0.082031,2
5873,54.3,19.453,0,-0.045635,0,5860.1,70.622,0,0,0,0,0.082031,2
5873,54.3,19.453,0,-0.045635,0,5860.1,70.622,0,0,0,0,0.082031,2
5873,54.3,19.453,0,-0.045635,0,5860.1,70.622,0,0,0,0,0.082031,2
5873,54.3,19.453,0,-0.045635,0,5860.1,70.622,0,0,0,0,0.082031,2
5874.5,54.3,19.45,0,-0.045551,0,5860.1,70.622,0,0,0,0,0.078274,2
5874.5,54.3,19.45,0,-0.045551,0,5860.1,70.622,0,0,0,0,0.078274,2
5875.3,54.3,19.448,0,-0.045508,0,5860.1,70.622,0,0,0,0,0.076439,2
5875.3,54.3,19.448,0,-0.045508,0,5860.1,70.622,0,0,0,0,0.076439,2
5875.3,54.3,19.448,0,-0.045508,0,5860.1,70.622,0,0,0,0,0.076439,2
5876.5,54.3,19.445,0,-0.045442,0,5860.1,70.622,0,0,0,0,0.073757,2
5876.5,54.3,19.445,0,-0.045442,0,5860.1,70.622,0,0,0,0,0.073757,2
5876.5,54.3,19.445,0,-0.045442,0,5860.1,70.622,0,0,0,0,0.073757,2
5876.5,54.3,19.445,0,-0.045442,0,5860.1,70.622,0,0,0,0,0.073757,2
5876.5,54.3,19.445,0,-0.045442,0,5860.1,70.622,0,0,0,0,0.073757,2
5876.5,54.3,19.445,0,-0.045442,0,5860.1,70.622,0,0,0,0,0.073757,2
5876.5,54.3,19.445,0,-0.045442,0,5860.1,70.622,0,0,0,0,0.073757,2
5876.5,54.3,19.445,0,-0.045442,0,5860.1,70.622,0,0,0,0,0.073757,2
5876.5,54.3,19.445,0,-0.045442,0,5860.1,70.622,0,0,0,0,0.073757,2
5876.5,54.3,19.445,0,-0.045442,0,5860.1,70.622,0,0,0,0,0.073757,2
5876.5,54.3,19.445,0,-0.045442,0,5860.1,70.622,0,0,0,0,0.073757,2
5876.5,54.3,19.445,0,-0.045442,0,5860.1,70.622,0,0,0,0,0.073757,2
5876.5,54.3,19.445,0,-0.045442,0,5860.1,70.622,0,0,0,0,0.073757,2
5877.3,54.3,19.443,0,-0.045397,0,5860.1,70.622,0,0,0,0,0.072021,2
5877.3,54.3,19.443,0,-0.045397,0,5860.1,70.622,0,0,0,0,0.072021,2
5877.3,54.3,19.443,0,-0.045397,0,5860.1,70.622,0,0,0,0,0.072021,2
5877.3,54.3,19.443,0,-0.045397,0,5860.1,70.622,0,0,0,0,0.072021,2
5877.3,54.3,19.443,0,-0.045397,0,5860.1,70.622,0,0,0,0,0.072021,2
5877.3,54.3,19.443,0,-0.045397,0,5860.1,70.622,0,0,0,0,0.072021,2
5877.3,54.3,19.443,0,-0.045397,0,5860.1,70.622,0,0,0,0,0.072021,2
5877.3,54.3,19.443,0,-0.045397,0,5860.1,70.622,0,0,0,0,0.072021,2
5877.3,54.3,19.443,0,-0.045397,0,5860.1,70.622,0,0,0,0,0.072021,2
5880,54.3,19.437,0,-0.04524,0,5860.1,70.622,0,0,0,0,0.066308,2
5880,54.3,19.437,0,-0.04524,0,5860.1,70.622,0,0,0,0,0.066308,2
5880.8,54.3,19.435,0,-0.045192,0,5860.1,70.622,0,0,0,0,0.064782,2
5880.8,54.3,19.435,0,-0.045192,0,5860.1,70.622,0,0,0,0,0.064782,2
5880.8,54.3,19.435,0,-0.045192,0,5860.1,70.622,0,0,0,0,0.064782,2
5881.5,54.3,19.433,0,-0.045145,0,5860.1,70.622,0,0,0,0,0.063305,2
5881.5,54.3,19.433,0,-0.045145,0,5860.1,70.622,0,0,0,0,0.063305,2
5881.5,54.3,19.433,0,-0.045145,0,5860.1,70.622,0,0,0,0,0.063305,2
5881.5,54.3,19.433,0,-0.045145,0,5860.1,70.622,0,0,0,0,0.063305,2
5881.5,54.3,19.433,0,-0.045145,0,5860.1,70.622,0,0,0,0,0.063305,2
5881.5,54.3,19.433,0,-0.045145,0,5860.1,70.622,0,0,0,0,0.063305,2
5881.5,54.3,19.433,0,-0.045145,0,5860.1,70.622,0,0,0,0,0.063305,2
5881.5,54.3,19.433,0,-0.045145,0,5860.1,70.622,0,0,0,0,0.063305,2
5881.5,54.3,19.433,0,-0.045145,0,5860.1,70.622,0,0,0,0,0.063305,2
5881.5,54.3,19.433,0,-0.045145,0,5860.1,70.622,0,0,0,0,0.063305,2
5881.5,54.3,19.433,0,-0.045145,0,5860.1,70.622,0,0,0,0,0.063305,2
5883.5,54.3,19.429,0,-0.045023,0,5860.1,70.622,0,0,0,0,0.059818,2
5883.5,54.3,19.429,0,-0.045023,0,5860.1,70.622,0,0,0,0,0.059818,2
5883.5,54.3,19.429,0,-0.045023,0,5860.1,70.622,0,0,0,0,0.059818,2
5884.3,54.3,19.427,0,-0.044977,0,5860.1,70.622,0,0,0,0,0.058504,2
5884.7,54.3,19.426,0,-0.044952,0,5860.1,70.622,0,0,0,0,0.057863,2
5884.7,54.3,19.426,0,-0.044952,0,5860.1,70.622,0,0,0,0,0.057863,2
5884.7,54.3,19.426,0,-0.044952,0,5860.1,70.622,0,0,0,0,0.057863,2
5884.7,54.3,19.426,0,-0.044952,0,5860.1,70.622,0,0,0,0,0.057863,2
5884.7,54.3,19.426,0,-0.044952,0,5860.1,70.622,0,0,0,0,0.057863,2
5884.7,54.3,19.426,0,-0.044952,0,5860.1,70.622,0,0,0,0,0.057863,2
5884.7,54.3,19.426,0,-0.044952,0,5860.1,70.622,0,0,0,0,0.057863,2
5884.7,54.3,19.426,0,-0.044952,0,5860.1,70.622,0,0,0,0,0.057863,2
5884.7,54.3,19.426,0,-0.044952,0,5860.1,70.622,0,0,0,0,0.057863,2
5884.7,54.3,19.426,0,-0.044952,0,5860.1,70.622,0,0,0,0,0.057863,2
5884.7,54.3,19.426,0,-0.044952,0,5860.1,70.622,0,0,0,0,0.057863,2
5885.8,54.3,19.424,0,-0.044878,0,5860.1,70.622,0,0,0,0,0.056006,2
5886.2,54.3,19.423,0,-0.044853,0,5860.1,70.622,0,0,0,0,0.055408,2
5886.2,54.3,19.423,0,-0.044853,0,5860.1,70.622,0,0,0,0,0.055408,2
5886.2,54.3,19.423,0,-0.044853,0,5860.1,70.622,0,0,0,0,0.055408,2
5886.2,54.3,19.423,0,-0.044853,0,5860.1,70.622,0,0,0,0,0.055408,2
5886.2,54.3,19.423,0,-0.044853,0,5860.1,70.622,0,0,0,0,0.055408,2
5886.2,54.3,19.423,0,-0.044853,0,5860.1,70.622,0,0,0,0,0.055408,2
5886.2,54.3,19.423,0,-0.044853,0,5860.1,70.622,0,0,0,0,0.055408,2
5886.2,54.3,19.423,0,-0.044853,0,5860.1,70.622,0,0,0,0,0.055408,2
5886.2,54.3,19.423,0,-0.044853,0,5860.1,70.622,0,0,0,0,0.055408,2
5886.2,54.3,19.423,0,-0.044853,0,5860.1,70.622,0,0,0,0,0.055408,2
5886.2,54.3,19.423,0,-0.044853,0,5860.1,70.622,0,0,0,0,0.055408,2
5886.2,54.3,19.423,0,-0.044853,0,5860.1,70.622,0,0,0,0,0.055408,2
5889.3,54.3,19.415,0,-0.044647,0,5860.1,70.622,0,0,0,0,0.050977,2
5889.7,54.3,19.415,0,-0.044619,0,5860.1,70.622,0,0,0,0,0.050465,2
5889.7,54.3,19.415,0,-0.044619,0,5860.1,70.622,0,0,0,0,0.050465,2
5890.1,54.3,19.414,0,-0.044593,0,5860.1,70.622,0,0,0,0,0.049961,2
5890.1,54.3,19.414,0,-0.044593,0,5860.1,70.622,0,0,0,0,0.049961,2
5890.5,54.3,19.413,0,-0.044566,0,5860.1,70.622,0,0,0,0,0.049466,2
5890.5,54.3,19.413,0,-0.044566,0,5860.1,70.622,0,0,0,0,0.049466,2
5890.5,54.3,19.413,0,-0.044566,0,5860.1,70.622,0,0,0,0,0.049466,2
5890.5,54.3,19.413,0,-0.044566,0,5860.1,70.622,0,0,0,0,0.049466,2
5890.5,54.3,19.413,0,-0.044566,0,5860.1,70.622,0,0,0,0,0.049466,2
5890.5,54.3,19.413,0,-0.044566,0,5860.1,70.622,0,0,0,0,0.049466,2
5890.5,54.3,19.413,0,-0.044566,0,5860.1,70.622,0,0,0,0,0.049466,2
5890.5,54.3,19.413,0,-0.044566,0,5860.1,70.622,0,0,0,0,0.049466,2
5890.5,54.3,19.413,0,-0.044566,0,5860.1,70.622,0,0,0,0,0.049466,2
5890.5,54.3,19.413,0,-0.044566,0,5860.1,70.622,0,0,0,0,0.049466,2
5890.5,54.3,19.413,0,-0.044566,0,5860.1,70.622,0,0,0,0,0.049466,2
5890.5,54.3,19.413,0,-0.044566,0,5860.1,70.622,0,0,0,0,0.049466,2
5890.5,54.3,19.413,0,-0.044566,0,5860.1,70.622,0,0,0,0,0.049466,2
5890.5,54.3,19.413,0,-0.044566,0,5860.1,70.622,0,0,0,0,0.049466,2
5890.5,54.3,19.413,0,-0.044566,0,5860.1,70.622,0,0,0,0,0.049466,2
5890.5,54.3,19.413,0,-0.044566,0,5860.1,70.622,0,0,0,0,0.049466,2
5890.5,54.3,19.413,0,-0.044566,0,5860.1,70.622,0,0,0,0,0.049466,2
5890.5,54.3,19.413,0,-0.044566,0,5860.1,70.622,0,0,0,0,0.049466,2
5890.5,54.3,19.413,0,-0.044566,0,5860.1,70.622,0,0,0,0,0.049466,2
5890.5,54.3,19.413,0,-0.044566,0,5860.1,70.622,0,0,0,0,0.049466,2
5890.5,54.3,19.413,0,-0.044566,0,5860.1,70.622,0,0,0,0,0.049466,2
5892.8,54.3,19.407,0,-0.044403,0,5860.1,70.622,0,0,0,0,0.046666,2
5892.8,54.3,19.407,0,-0.044403,0,5860.1,70.622,0,0,0,0,0.046666,2
5894.4,54.3,19.404,0,-0.044293,0,5860.1,70.622,0,0,0,0,0.04495,2
5894.8,54.3,19.403,0,-0.044264,0,5860.1,70.622,0,0,0,0,0.044538,2
5894.8,54.3,19.403,0,-0.044264,0,5860.1,70.622,0,0,0,0,0.044538,2
5894.8,54.3,19.403,0,-0.044264,0,5860.1,70.622,0,0,0,0,0.044538,2
5895.5,54.3,19.401,0,-0.044207,0,5860.1,70.622,0,0,0,0,0.043734,2
5895.9,54.3,19.4,0,-0.044178,0,5860.1,70.622,0,0,0,0,0.043342,2
5895.9,54.3,19.4,0,-0.044178,0,5860.1,70.622,0,0,0,0,0.043342,2
5895.9,54.3,19.4,0,-0.044178,0,5860.1,70.622,0,0,0,0,0.043342,2
5895.9,54.3,19.4,0,-0.044178,0,5860.1,70.622,0,0,0,0,0.043342,2
5895.9,54.3,19.4,0,-0.044178,0,5860.1,70.622,0,0,0,0,0.043342,2
5895.9,54.3,19.4,0,-0.044178,0,5860.1,70.622,0,0,0,0,0.043342,2
5895.9,54.3,19.4,0,-0.044178,0,5860.1,70.622,0,0,0,0,0.043342,2
5895.9,54.3,19.4,0,-0.044178,0,5860.1,70.622,0,0,0,0,0.043342,2
5895.9,54.3,19.4,0,-0.044178,0,5860.1,70.622,0,0,0,0,0.043342,2
5896.3,54.3,19.399,0,-0.044148,0,5860.1,70.622,0,0,0,0,0.042956,2
5896.3,54.3,19.399,0,-0.044148,0,5860.1,70.622,0,0,0,0,0.042956,2
5896.3,54.3,19.399,0,-0.044148,0,5860.1,70.622,0,0,0,0,0.042956,2
5896.3,54.3,19.399,0,-0.044148,0,5860.1,70.622,0,0,0,0,0.042956,2
5896.3,54.3,19.399,0,-0.044148,0,5860.1,70.622,0,0,0,0,0.042956,2
5896.3,54.3,19.399,0,-0.044148,0,5860.1,70.622,0,0,0,0,0.042956,2
5896.3,54.3,19.399,0,-0.044148,0,5860.1,70.622,0,0,0,0,0.042956,2
5896.3,54.3,19.399,0,-0.044148,0,5860.1,70.622,0,0,0,0,0.042956,2
5896.3,54.3,19.399,0,-0.044148,0,5860.1,70.622,0,0,0,0,0.042956,2
5896.3,54.3,19.399,0,-0.044148,0,5860.1,70.622,0,0,0,0,0.042956,2
5896.3,54.3,19.399,0,-0.044148,0,5860.1,70.622,0,0,0,0,0.042956,2
5897.1,54.3,19.398,0,-0.044092,0,5860.1,70.622,0,0,0,0,0.042203,2
5897.1,54.3,19.398,0,-0.044092,0,5860.1,70.622,0,0,0,0,0.042203,2
5898.6,54.3,19.394,0,-0.043975,0,5860.1,70.622,0,0,0,0,0.040766,2
5898.6,54.3,19.394,0,-0.043975,0,5860.1,70.622,0,0,0,0,0.040766,2
5898.6,54.3,19.394,0,-0.043975,0,5860.1,70.622,0,0,0,0,0.040766,2
5898.6,54.3,19.394,0,-0.043975,0,5860.1,70.622,0,0,0,0,0.040766,2
5900.6,54.3,19.39,0,-0.043824,0,5860.1,70.622,0,0,0,0,0.039091,2
5900.6,54.3,19.39,0,-0.043824,0,5860.1,70.622,0,0,0,0,0.039091,2
5900.6,54.3,19.39,0,-0.043824,0,5860.1,70.622,0,0,0,0,0.039091,2
5900.6,54.3,19.39,0,-0.043824,0,5860.1,70.622,0,0,0,0,0.039091,2
5900.6,54.3,19.39,0,-0.043824,0,5860.1,70.622,0,0,0,0,0.039091,2
5900.6,54.3,19.39,0,-0.043824,0,5860.1,70.622,0,0,0,0,0.039091,2
5900.6,54.3,19.39,0,-0.043824,0,5860.1,70.622,0,0,0,0,0.039091,2
5900.6,54.3,19.39,0,-0.043824,0,5860.1,70.622,0,0,0,0,0.039091,2
5900.6,54.3,19.39,0,-0.043824,0,5860.1,70.622,0,0,0,0,0.039091,2
5900.6,54.3,19.39,0,-0.043824,0,5860.1,70.622,0,0,0,0,0.039091,2
5900.6,54.3,19.39,0,-0.043824,0,5860.1,70.622,0,0,0,0,0.039091,2
5902.1,54.3,19.386,0,-0.043702,0,5860.1,70.622,0,0,0,0,0.03784,2
5902.1,54.3,19.386,0,-0.043702,0,5860.1,70.622,0,0,0,0,0.03784,2
5902.1,54.3,19.386,0,-0.043702,0,5860.1,70.622,0,0,0,0,0.03784,2
5902.5,54.3,19.385,0,-0.04367,0,5860.1,70.622,0,0,0,0,0.037539,2
5902.5,54.3,19.385,0,-0.04367,0,5860.1,70.622,0,0,0,0,0.037539,2
5902.9,54.3,19.385,0,-0.04364,0,5860.1,70.622,0,0,0,0,0.037242,2
5902.9,54.3,19.385,0,-0.04364,0,5860.1,70.622,0,0,0,0,0.037242,2
5902.9,54.3,19.385,0,-0.04364,0,5860.1,70.622,0,0,0,0,0.037242,2
5902.9,54.3,19.385,0,-0.04364,0,5860.1,70.622,0,0,0,0,0.037242,2
5904.1,54.3,19.382,0,-0.043547,0,5860.1,70.622,0,0,0,0,0.036377,2
5904.1,54.3,19.382,0,-0.043547,0,5860.1,70.622,0,0,0,0,0.036377,2
5904.1,54.3,19.382,0,-0.043547,0,5860.1,70.622,0,0,0,0,0.036377,2
5904.1,54.3,19.382,0,-0.043547,0,5860.1,70.622,0,0,0,0,0.036377,2
5904.1,54.3,19.382,0,-0.043547,0,5860.1,70.622,0,0,0,0,0.036377,2
5904.1,54.3,19.382,0,-0.043547,0,5860.1,70.622,0,0,0,0,0.036377,2
5904.1,54.3,19.382,0,-0.043547,0,5860.1,70.622,0,0,0,0,0.036377,2
5905.2,54.3,19.379,0,-0.043452,0,5860.1,70.622,0,0,0,0,0.035549,2
5905.2,54.3,19.379,0,-0.043452,0,5860.1,70.622,0,0,0,0,0.035549,2
5905.2,54.3,19.379,0,-0.043452,0,5860.1,70.622,0,0,0,0,0.035549,2
5906,54.3,19.378,0,-0.043388,0,5860.1,70.622,0,0,0,0,0.035016,2
5906,54.3,19.378,0,-0.043388,0,5860.1,70.622,0,0,0,0,0.035016,2
5906,54.3,19.378,0,-0.043388,0,5860.1,70.622,0,0,0,0,0.035016,2
5907.2,54.3,19.375,0,-0.043291,0,5860.1,70.622,0,0,0,0,0.034245,2
5907.5,54.3,19.374,0,-0.04326,0,5860.1,70.622,0,0,0,0,0.033995,2
5907.5,54.3,19.374,0,-0.04326,0,5860.1,70.622,0,0,0,0,0.033995,2
5907.9,54.3,19.373,0,-0.043227,0,5860.1,70.622,0,0,0,0,0.033748,2
5907.9,54.3,19.373,0,-0.043227,0,5860.1,70.622,0,0,0,0,0.033748,2
5907.9,54.3,19.373,0,-0.043227,0,5860.1,70.622,0,0,0,0,0.033748,2
5908.3,54.3,19.372,0,-0.043194,0,5860.1,70.622,0,0,0,0,0.033505,2
5908.3,54.3,19.372,0,-0.043194,0,5860.1,70.622,0,0,0,0,0.033505,2
5908.3,54.3,19.372,0,-0.043194,0,5860.1,70.622,0,0,0,0,0.033505,2
5908.3,54.3,19.372,0,-0.043194,0,5860.1,70.622,0,0,0,0,0.033505,2
