1469.1,54.3,20.102,0,-0.01404,0,1660.9,57.57,0,0,0,0,0.0088905,1
1471.1,54.3,20.101,0,-0.014444,0,1660.9,57.57,0,0,0,0,0.0089847,1
1471.5,54.3,20.101,0,-0.014525,0,1660.9,57.57,0,0,0,0,0.0090038,1
1471.5,54.3,20.101,0,-0.014525,0,1660.9,57.57,0,0,0,0,0.0090038,1
1471.5,54.3,20.101,0,-0.014525,0,1660.9,57.57,0,0,0,0,0.0090038,1
1471.5,54.3,20.101,0,-0.014525,0,1660.9,57.57,0,0,0,0,0.0090038,1
1471.5,54.3,20.101,0,-0.014525,0,1660.9,57.57,0,0,0,0,0.0090038,1
1471.5,54.3,20.101,0,-0.014525,0,1660.9,57.57,0,0,0,0,0.0090038,1
1471.5,54.3,20.101,0,-0.014525,0,1660.9,57.57,0,0,0,0,0.0090038,1
1471.5,54.3,20.101,0,-0.014525,0,1660.9,57.57,0,0,0,0,0.0090038,1
1471.5,54.3,20.101,0,-0.014525,0,1660.9,57.57,0,0,0,0,0.0090038,1
1471.5,54.3,20.101,0,-0.014525,0,1660.9,57.57,0,0,0,0,0.0090038,1
1471.5,54.3,20.101,0,-0.014525,0,1660.9,57.57,0,0,0,0,0.0090038,1
1471.5,54.3,20.101,0,-0.014525,0,1660.9,57.57,0,0,0,0,0.0090038,1
1471.5,54.3,20.101,0,-0.014525,0,1660.9,57.57,0,0,0,0,0.0090038,1
1471.5,54.3,20.101,0,-0.014525,0,1660.9,57.57,0,0,0,0,0.0090038,1
1471.5,54.3,20.101,0,-0.014525,0,1660.9,57.57,0,0,0,0,0.0090038,1
1473.2,54.3,20.099,0,-0.014843,0,1660.9,57.57,0,0,0,0,0.0090809,1
1473.2,54.3,20.099,0,-0.014843,0,1660.9,57.57,0,0,0,0,0.0090809,1
1473.2,54.3,20.099,0,-0.014843,0,1660.9,57.57,0,0,0,0,0.0090809,1
1473.2,54.3,20.099,0,-0.014843,0,1660.9,57.57,0,0,0,0,0.0090809,1
1473.2,54.3,20.099,0,-0.014843,0,1660.9,57.57,0,0,0,0,0.0090809,1
1475.6,54.3,20.098,0,-0.01532,0,1660.9,57.57,0,0,0,0,0.009199,1
1475.6,54.3,20.098,0,-0.01532,0,1660.9,57.57,0,0,0,0,0.009199,1
1475.6,54.3,20.098,0,-0.01532,0,1660.9,57.57,0,0,0,0,0.009199,1
1475.6,54.3,20.098,0,-0.01532,0,1660.9,57.57,0,0,0,0,0.009199,1
1475.6,54.3,20.098,0,-0.01532,0,1660.9,57.57,0,0,0,0,0.009199,1
1475.6,54.3,20.098,0,-0.01532,0,1660.9,57.57,0,0,0,0,0.009199,1
1475.6,54.3,20.098,0,-0.01532,0,1660.9,57.57,0,0,0,0,0.009199,1
1475.6,54.3,20.098,0,-0.01532,0,1660.9,57.57,0,0,0,0,0.009199,1
1475.6,54.3,20.098,0,-0.01532,0,1660.9,57.57,0,0,0,0,0.009199,1
1475.6,54.3,20.098,0,-0.01532,0,1660.9,57.57,0,0,0,0,0.009199,1
1475.6,54.3,20.098,0,-0.01532,0,1660.9,57.57,0,0,0,0,0.009199,1
1475.6,54.3,20.098,0,-0.01532,0,1660.9,57.57,0,0,0,0,0.009199,1
1475.6,54.3,20.098,0,-0.01532,0,1660.9,57.57,0,0,0,0,0.009199,1
1475.6,54.3,20.098,0,-0.01532,0,1660.9,57.57,0,0,0,0,0.009199,1
1477.2,54.3,20.096,0,-0.015638,0,1660.9,57.57,0,0,0,0,0.0092795,1
1477.2,54.3,20.096,0,-0.015638,0,1660.9,57.57,0,0,0,0,0.0092795,1
1477.2,54.3,20.096,0,-0.015638,0,1660.9,57.57,0,0,0,0,0.0092795,1
1477.2,54.3,20.096,0,-0.015638,0,1660.9,57.57,0,0,0,0,0.0092795,1
1477.2,54.3,20.096,0,-0.015638,0,1660.9,57.57,0,0,0,0,0.0092795,1
1477.2,54.3,20.096,0,-0.015638,0,1660.9,57.57,0,0,0,0,0.0092795,1
1477.2,54.3,20.096,0,-0.015638,0,1660.9,57.57,0,0,0,0,0.0092795,1
1477.6,54.3,20.096,0,-0.015717,0,1660.9,57.57,0,0,0,0,0.0092998,1
1478.4,54.3,20.095,0,-0.015874,0,1660.9,57.57,0,0,0,0,0.0093408,1
1479.6,54.3,20.094,0,-0.01611,0,1660.9,57.57,0,0,0,0,0.0094029,1
1479.6,54.3,20.094,0,-0.01611,0,1660.9,57.57,0,0,0,0,0.0094029,1
1480.8,54.3,20.093,0,-0.016344,0,1660.9,57.57,0,0,0,0,0.0094658,1
1480.8,54.3,20.093,0,-0.016344,0,1660.9,57.57,0,0,0,0,0.0094658,1
1480.8,54.3,20.093,0,-0.016344,0,1660.9,57.57,0,0,0,0,0.0094658,1
1480.8,54.3,20.093,0,-0.016344,0,1660.9,57.57,0,0,0,0,0.0094658,1
1480.8,54.3,20.093,0,-0.016344,0,1660.9,57.57,0,0,0,0,0.0094658,1
1480.8,54.3,20.093,0,-0.016344,0,1660.9,57.57,0,0,0,0,0.0094658,1
1480.8,54.3,20.093,0,-0.016344,0,1660.9,57.57,0,0,0,0,0.0094658,1
1480.8,54.3,20.093,0,-0.016344,0,1660.9,57.57,0,0,0,0,0.0094658,1
1480.8,54.3,20.093,0,-0.016344,0,1660.9,57.57,0,0,0,0,0.0094658,1
1480.8,54.3,20.093,0,-0.016344,0,1660.9,57.57,0,0,0,0,0.0094658,1
1481.6,54.3,20.093,0,-0.0165,0,1660.9,57.57,0,0,0,0,0.0095082,1
1481.6,54.3,20.093,0,-0.0165,0,1660.9,57.57,0,0,0,0,0.0095082,1
1481.6,54.3,20.093,0,-0.0165,0,1660.9,57.57,0,0,0,0,0.0095082,1
1481.6,54.3,20.093,0,-0.0165,0,1660.9,57.57,0,0,0,0,0.0095082,1
1481.6,54.3,20.093,0,-0.0165,0,1660.9,57.57,0,0,0,0,0.0095082,1
1481.6,54.3,20.093,0,-0.0165,0,1660.9,57.57,0,0,0,0,0.0095082,1
1481.6,54.3,20.093,0,-0.0165,0,1660.9,57.57,0,0,0,0,0.0095082,1
1481.6,54.3,20.093,0,-0.0165,0,1660.9,57.57,0,0,0,0,0.0095082,1
1481.6,54.3,20.093,0,-0.0165,0,1660.9,57.57,0,0,0,0,0.0095082,1
1481.6,54.3,20.093,0,-0.0165,0,1660.9,57.57,0,0,0,0,0.0095082,1
1481.6,54.3,20.093,0,-0.0165,0,1660.9,57.57,0,0,0,0,0.0095082,1
1481.6,54.3,20.093,0,-0.0165,0,1660.9,57.57,0,0,0,0,0.0095082,1
1481.6,54.3,20.093,0,-0.0165,0,1660.9,57.57,0,0,0,0,0.0095082,1
1481.6,54.3,20.093,0,-0.0165,0,1660.9,57.57,0,0,0,0,0.0095082,1
1484.4,54.3,20.09,0,-0.017043,0,1660.9,57.57,0,0,0,0,0.0096597,1
1484.4,54.3,20.09,0,-0.017043,0,1660.9,57.57,0,0,0,0,0.0096597,1
1485.6,54.3,20.089,0,-0.017275,0,1660.9,57.57,0,0,0,0,0.0097262,1
1486.4,54.3,20.089,0,-0.017429,0,1660.9,57.57,0,0,0,0,0.0097709,1
1486.4,54.3,20.089,0,-0.017429,0,1660.9,57.57,0,0,0,0,0.0097709,1
1486.4,54.3,20.089,0,-0.017429,0,1660.9,57.57,0,0,0,0,0.0097709,1
1486.4,54.3,20.089,0,-0.017429,0,1660.9,57.57,0,0,0,0,0.0097709,1
1486.4,54.3,20.089,0,-0.017429,0,1660.9,57.57,0,0,0,0,0.0097709,1
1486.4,54.3,20.089,0,-0.017429,0,1660.9,57.57,0,0,0,0,0.0097709,1
1486.4,54.3,20.089,0,-0.017429,0,1660.9,57.57,0,0,0,0,0.0097709,1
1486.4,54.3,20.089,0,-0.017429,0,1660.9,57.57,0,0,0,0,0.0097709,1
1486.4,54.3,20.089,0,-0.017429,0,1660.9,57.57,0,0,0,0,0.0097709,1
1486.4,54.3,20.089,0,-0.017429,0,1660.9,57.57,0,0,0,0,0.0097709,1
1486.4,54.3,20.089,0,-0.017429,0,1660.9,57.57,0,0,0,0,0.0097709,1
1486.4,54.3,20.089,0,-0.017429,0,1660.9,57.57,0,0,0,0,0.0097709,1
1486.4,54.3,20.089,0,-0.017429,0,1660.9,57.57,0,0,0,0,0.0097709,1
1487.2,54.3,20.088,0,-0.017583,0,1660.9,57.57,0,0,0,0,0.0098161,1
1487.2,54.3,20.088,0,-0.017583,0,1660.9,57.57,0,0,0,0,0.0098161,1
1487.2,54.3,20.088,0,-0.017583,0,1660.9,57.57,0,0,0,0,0.0098161,1
1487.2,54.3,20.088,0,-0.017583,0,1660.9,57.57,0,0,0,0,0.0098161,1
1487.2,54.3,20.088,0,-0.017583,0,1660.9,57.57,0,0,0,0,0.0098161,1
1488.4,54.3,20.087,0,-0.017813,0,1660.9,57.57,0,0,0,0,0.0098847,1
1489.2,54.3,20.086,0,-0.017966,0,1660.9,57.57,0,0,0,0,0.009931,1
1490,54.3,20.086,0,-0.01812,0,1660.9,57.57,0,0,0,0,0.0099776,1
1490,54.3,20.086,0,-0.01812,0,1660.9,57.57,0,0,0,0,0.0099776,1
1490,54.3,20.086,0,-0.01812,0,1660.9,57.57,0,0,0,0,0.0099776,1
1490,54.3,20.086,0,-0.01812,0,1660.9,57.57,0,0,0,0,0.0099776,1
1490,54.3,20.086,0,-0.01812,0,1660.9,57.57,0,0,0,0,0.0099776,1
1490,54.3,20.086,0,-0.01812,0,1660.9,57.57,0,0,0,0,0.0099776,1
1490,54.3,20.086,0,-0.01812,0,1660.9,57.57,0,0,0,0,0.0099776,1
1490,54.3,20.086,0,-0.01812,0,1660.9,57.57,0,0,0,0,0.0099776,1
1490,54.3,20.086,0,-0.01812,0,1660.9,57.57,0,0,0,0,0.0099776,1
1490,54.3,20.086,0,-0.01812,0,1660.9,57.57,0,0,0,0,0.0099776,1
1491.2,54.3,20.084,0,-0.018349,0,1660.9,57.57,0,0,0,0,0.010048,1
1491.2,54.3,20.084,0,-0.018349,0,1660.9,57.57,0,0,0,0,0.010048,1
1491.2,54.3,20.084,0,-0.018349,0,1660.9,57.57,0,0,0,0,0.010048,1
1491.2,54.3,20.084,0,-0.018349,0,1660.9,57.57,0,0,0,0,0.010048,1
1491.2,54.3,20.084,0,-0.018349,0,1660.9,57.57,0,0,0,0,0.010048,1
1491.2,54.3,20.084,0,-0.018349,0,1660.9,57.57,0,0,0,0,0.010048,1
1491.2,54.3,20.084,0,-0.018349,0,1660.9,57.57,0,0,0,0,0.010048,1
1491.2,54.3,20.084,0,-0.018349,0,1660.9,57.57,0,0,0,0,0.010048,1
1491.2,54.3,20.084,0,-0.018349,0,1660.9,57.57,0,0,0,0,0.010048,1
1491.2,54.3,20.084,0,-0.018349,0,1660.9,57.57,0,0,0,0,0.010048,1
1491.2,54.3,20.084,0,-0.018349,0,1660.9,57.57,0,0,0,0,0.010048,1
1491.2,54.3,20.084,0,-0.018349,0,1660.9,57.57,0,0,0,0,0.010048,1
1493.2,54.3,20.083,0,-0.018729,0,1660.9,57.57,0,0,0,0,0.010169,1
1493.2,54.3,20.083,0,-0.018729,0,1660.9,57.57,0,0,0,0,0.010169,1
1493.2,54.3,20.083,0,-0.018729,0,1660.9,57.57,0,0,0,0,0.010169,1
1494.5,54.3,20.081,0,-0.018957,0,1660.9,57.57,0,0,0,0,0.010242,1
1494.5,54.3,20.081,0,-0.018957,0,1660.9,57.57,0,0,0,0,0.010242,1
1494.5,54.3,20.081,0,-0.018957,0,1660.9,57.57,0,0,0,0,0.010242,1
1494.5,54.3,20.081,0,-0.018957,0,1660.9,57.57,0,0,0,0,0.010242,1
1494.5,54.3,20.081,0,-0.018957,0,1660.9,57.57,0,0,0,0,0.010242,1
1494.5,54.3,20.081,0,-0.018957,0,1660.9,57.57,0,0,0,0,0.010242,1
1494.5,54.3,20.081,0,-0.018957,0,1660.9,57.57,0,0,0,0,0.010242,1
1494.5,54.3,20.081,0,-0.018957,0,1660.9,57.57,0,0,0,0,0.010242,1
1495.7,54.3,20.08,0,-0.019184,0,1660.9,57.57,0,0,0,0,0.010317,1
1495.7,54.3,20.08,0,-0.019184,0,1660.9,57.57,0,0,0,0,0.010317,1
1496.1,54.3,20.08,0,-0.019259,0,1660.9,57.57,0,0,0,0,0.010342,1
1496.5,54.3,20.08,0,-0.019334,0,1660.9,57.57,0,0,0,0,0.010367,1
1497.7,54.3,20.078,0,-0.01956,0,1660.9,57.57,0,0,0,0,0.010444,1
1498.1,54.3,20.078,0,-0.019634,0,1660.9,57.57,0,0,0,0,0.01047,1
1498.5,54.3,20.078,0,-0.019709,0,1660.9,57.57,0,0,0,0,0.010496,1
1498.5,54.3,20.078,0,-0.019709,0,1660.9,57.57,0,0,0,0,0.010496,1
1498.5,54.3,20.078,0,-0.019709,0,1660.9,57.57,0,0,0,0,0.010496,1
1498.5,54.3,20.078,0,-0.019709,0,1660.9,57.57,0,0,0,0,0.010496,1
1498.5,54.3,20.078,0,-0.019709,0,1660.9,57.57,0,0,0,0,0.010496,1
1498.5,54.3,20.078,0,-0.019709,0,1660.9,57.57,0,0,0,0,0.010496,1
1498.5,54.3,20.078,0,-0.019709,0,1660.9,57.57,0,0,0,0,0.010496,1
1498.5,54.3,20.078,0,-0.019709,0,1660.9,57.57,0,0,0,0,0.010496,1
1498.5,54.3,20.078,0,-0.019709,0,1660.9,57.57,0,0,0,0,0.010496,1
1498.5,54.3,20.078,0,-0.019709,0,1660.9,57.57,0,0,0,0,0.010496,1
1498.5,54.3,20.078,0,-0.019709,0,1660.9,57.57,0,0,0,0,0.010496,1
1498.5,54.3,20.078,0,-0.019709,0,1660.9,57.57,0,0,0,0,0.010496,1
1498.5,54.3,20.078,0,-0.019709,0,1660.9,57.57,0,0,0,0,0.010496,1
1498.5,54.3,20.078,0,-0.019709,0,1660.9,57.57,0,0,0,0,0.010496,1
1498.5,54.3,20.078,0,-0.019709,0,1660.9,57.57,0,0,0,0,0.010496,1
1498.5,54.3,20.078,0,-0.019709,0,1660.9,57.57,0,0,0,0,0.010496,1
1498.5,54.3,20.078,0,-0.019709,0,1660.9,57.57,0,0,0,0,0.010496,1
1498.5,54.3,20.078,0,-0.019709,0,1660.9,57.57,0,0,0,0,0.010496,1
1498.5,54.3,20.078,0,-0.019709,0,1660.9,57.57,0,0,0,0,0.010496,1
1498.5,54.3,20.078,0,-0.019709,0,1660.9,57.57,0,0,0,0,0.010496,1
1499.3,54.3,20.077,0,-0.019861,0,1660.9,57.57,0,0,0,0,0.010548,1
1499.7,54.3,20.076,0,-0.019936,0,1660.9,57.57,0,0,0,0,0.010574,1
1501.3,54.3,20.075,0,-0.020235,0,1660.9,57.57,0,0,0,0,0.01068,1
1501.3,54.3,20.075,0,-0.020235,0,1660.9,57.57,0,0,0,0,0.01068,1
1502.9,54.3,20.073,0,-0.020531,0,1660.9,57.57,0,0,0,0,0.010789,1
1502.9,54.3,20.073,0,-0.020531,0,1660.9,57.57,0,0,0,0,0.010789,1
1502.9,54.3,20.073,0,-0.020531,0,1660.9,57.57,0,0,0,0,0.010789,1
1502.9,54.3,20.073,0,-0.020531,0,1660.9,57.57,0,0,0,0,0.010789,1
1502.9,54.3,20.073,0,-0.020531,0,1660.9,57.57,0,0,0,0,0.010789,1
1502.9,54.3,20.073,0,-0.020531,0,1660.9,57.57,0,0,0,0,0.010789,1
1502.9,54.3,20.073,0,-0.020531,0,1660.9,57.57,0,0,0,0,0.010789,1
1502.9,54.3,20.073,0,-0.020531,0,1660.9,57.57,0,0,0,0,0.010789,1
1502.9,54.3,20.073,0,-0.020531,0,1660.9,57.57,0,0,0,0,0.010789,1
1502.9,54.3,20.073,0,-0.020531,0,1660.9,57.57,0,0,0,0,0.010789,1
1503.7,54.3,20.072,0,-0.02068,0,1660.9,57.57,0,0,0,0,0.010844,1
1503.7,54.3,20.072,0,-0.02068,0,1660.9,57.57,0,0,0,0,0.010844,1
1503.7,54.3,20.072,0,-0.02068,0,1660.9,57.57,0,0,0,0,0.010844,1
1503.7,54.3,20.072,0,-0.02068,0,1660.9,57.57,0,0,0,0,0.010844,1
1503.7,54.3,20.072,0,-0.02068,0,1660.9,57.57,0,0,0,0,0.010844,1
1503.7,54.3,20.072,0,-0.02068,0,1660.9,57.57,0,0,0,0,0.010844,1
1503.7,54.3,20.072,0,-0.02068,0,1660.9,57.57,0,0,0,0,0.010844,1
1503.7,54.3,20.072,0,-0.02068,0,1660.9,57.57,0,0,0,0,0.010844,1
1503.7,54.3,20.072,0,-0.02068,0,1660.9,57.57,0,0,0,0,0.010844,1
1503.7,54.3,20.072,0,-0.02068,0,1660.9,57.57,0,0,0,0,0.010844,1
1505.7,54.3,20.07,0,-0.02105,0,1660.9,57.57,0,0,0,0,0.010984,1
1506.5,54.3,20.069,0,-0.021197,0,1660.9,57.57,0,0,0,0,0.011041,1
1506.5,54.3,20.069,0,-0.021197,0,1660.9,57.57,0,0,0,0,0.011041,1
1506.5,54.3,20.069,0,-0.021197,0,1660.9,57.57,0,0,0,0,0.011041,1
1506.5,54.3,20.069,0,-0.021197,0,1660.9,57.57,0,0,0,0,0.011041,1
1506.5,54.3,20.069,0,-0.021197,0,1660.9,57.57,0,0,0,0,0.011041,1
1506.5,54.3,20.069,0,-0.021197,0,1660.9,57.57,0,0,0,0,0.011041,1
1506.5,54.3,20.069,0,-0.021197,0,1660.9,57.57,0,0,0,0,0.011041,1
1506.5,54.3,20.069,0,-0.021197,0,1660.9,57.57,0,0,0,0,0.011041,1
1506.5,54.3,20.069,0,-0.021197,0,1660.9,57.57,0,0,0,0,0.011041,1
1508.1,54.3,20.068,0,-0.021491,0,1660.9,57.57,0,0,0,0,0.011157,1
1508.1,54.3,20.068,0,-0.021491,0,1660.9,57.57,0,0,0,0,0.011157,1
1508.1,54.3,20.068,0,-0.021491,0,1660.9,57.57,0,0,0,0,0.011157,1
1508.1,54.3,20.068,0,-0.021491,0,1660.9,57.57,0,0,0,0,0.011157,1
1508.1,54.3,20.068,0,-0.021491,0,1660.9,57.57,0,0,0,0,0.011157,1
1508.1,54.3,20.068,0,-0.021491,0,1660.9,57.57,0,0,0,0,0.011157,1
1508.1,54.3,20.068,0,-0.021491,0,1660.9,57.57,0,0,0,0,0.011157,1
1508.1,54.3,20.068,0,-0.021491,0,1660.9,57.57,0,0,0,0,0.011157,1
1508.1,54.3,20.068,0,-0.021491,0,1660.9,57.57,0,0,0,0,0.011157,1
1508.1,54.3,20.068,0,-0.021491,0,1660.9,57.57,0,0,0,0,0.011157,1
1508.1,54.3,20.068,0,-0.021491,0,1660.9,57.57,0,0,0,0,0.011157,1
1509.7,54.3,20.066,0,-0.021782,0,1660.9,57.57,0,0,0,0,0.011276,1
1509.7,54.3,20.066,0,-0.021782,0,1660.9,57.57,0,0,0,0,0.011276,1
1509.7,54.3,20.066,0,-0.021782,0,1660.9,57.57,0,0,0,0,0.011276,1
1510.9,54.3,20.065,0,-0.022001,0,1660.9,57.57,0,0,0,0,0.011366,1
1510.9,54.3,20.065,0,-0.022001,0,1660.9,57.57,0,0,0,0,0.011366,1
1512.1,54.3,20.063,0,-0.022219,0,1660.9,57.57,0,0,0,0,0.011458,1
1512.1,54.3,20.063,0,-0.022219,0,1660.9,57.57,0,0,0,0,0.011458,1
1512.1,54.3,20.063,0,-0.022219,0,1660.9,57.57,0,0,0,0,0.011458,1
1512.1,54.3,20.063,0,-0.022219,0,1660.9,57.57,0,0,0,0,0.011458,1
1512.5,54.3,20.063,0,-0.022291,0,1660.9,57.57,0,0,0,0,0.011489,1
1512.5,54.3,20.063,0,-0.022291,0,1660.9,57.57,0,0,0,0,0.011489,1
1512.5,54.3,20.063,0,-0.022291,0,1660.9,57.57,0,0,0,0,0.011489,1
1512.5,54.3,20.063,0,-0.022291,0,1660.9,57.57,0,0,0,0,0.011489,1
1512.5,54.3,20.063,0,-0.022291,0,1660.9,57.57,0,0,0,0,0.011489,1
1512.5,54.3,20.063,0,-0.022291,0,1660.9,57.57,0,0,0,0,0.011489,1
1512.5,54.3,20.063,0,-0.022291,0,1660.9,57.57,0,0,0,0,0.011489,1
1512.5,54.3,20.063,0,-0.022291,0,1660.9,57.57,0,0,0,0,0.011489,1
1512.5,54.3,20.063,0,-0.022291,0,1660.9,57.57,0,0,0,0,0.011489,1
1512.5,54.3,20.063,0,-0.022291,0,1660.9,57.57,0,0,0,0,0.011489,1
1512.5,54.3,20.063,0,-0.022291,0,1660.9,57.57,0,0,0,0,0.011489,1
1512.5,54.3,20.063,0,-0.022291,0,1660.9,57.57,0,0,0,0,0.011489,1
1513.7,54.3,20.062,0,-0.022509,0,1660.9,57.57,0,0,0,0,0.011583,1
1514.1,54.3,20.061,0,-0.022581,0,1660.9,57.57,0,0,0,0,0.011615,1
1514.1,54.3,20.061,0,-0.022581,0,1660.9,57.57,0,0,0,0,0.011615,1
1514.1,54.3,20.061,0,-0.022581,0,1660.9,57.57,0,0,0,0,0.011615,1
1516.1,54.3,20.059,0,-0.022941,0,1660.9,57.57,0,0,0,0,0.011775,1
1516.5,54.3,20.058,0,-0.023014,0,1660.9,57.57,0,0,0,0,0.011808,1
1516.5,54.3,20.058,0,-0.023014,0,1660.9,57.57,0,0,0,0,0.011808,1
1516.5,54.3,20.058,0,-0.023014,0,1660.9,57.57,0,0,0,0,0.011808,1
1516.5,54.3,20.058,0,-0.023014,0,1660.9,57.57,0,0,0,0,0.011808,1
1516.5,54.3,20.058,0,-0.023014,0,1660.9,57.57,0,0,0,0,0.011808,1
1516.5,54.3,20.058,0,-0.023014,0,1660.9,57.57,0,0,0,0,0.011808,1
1516.5,54.3,20.058,0,-0.023014,0,1660.9,57.57,0,0,0,0,0.011808,1
1516.5,54.3,20.058,0,-0.023014,0,1660.9,57.57,0,0,0,0,0.011808,1
1516.5,54.3,20.058,0,-0.023014,0,1660.9,57.57,0,0,0,0,0.011808,1
1516.5,54.3,20.058,0,-0.023014,0,1660.9,57.57,0,0,0,0,0.011808,1
1516.5,54.3,20.058,0,-0.023014,0,1660.9,57.57,0,0,0,0,0.011808,1
1516.5,54.3,20.058,0,-0.023014,0,1660.9,57.57,0,0,0,0,0.011808,1
1516.5,54.3,20.058,0,-0.023014,0,1660.9,57.57,0,0,0,0,0.011808,1
1516.5,54.3,20.058,0,-0.023014,0,1660.9,57.57,0,0,0,0,0.011808,1
1517.3,54.3,20.057,0,-0.023158,0,1660.9,57.57,0,0,0,0,0.011874,1
1517.3,54.3,20.057,0,-0.023158,0,1660.9,57.57,0,0,0,0,0.011874,1
1517.3,54.3,20.057,0,-0.023158,0,1660.9,57.57,0,0,0,0,0.011874,1
1518.5,54.3,20.056,0,-0.023374,0,1660.9,57.57,0,0,0,0,0.011974,1
1519.3,54.3,20.055,0,-0.023516,0,1660.9,57.57,0,0,0,0,0.012042,1
1520.5,54.3,20.054,0,-0.023731,0,1660.9,57.57,0,0,0,0,0.012145,1
1520.5,54.3,20.054,0,-0.023731,0,1660.9,57.57,0,0,0,0,0.012145,1
1520.5,54.3,20.054,0,-0.023731,0,1660.9,57.57,0,0,0,0,0.012145,1
1520.5,54.3,20.054,0,-0.023731,0,1660.9,57.57,0,0,0,0,0.012145,1
1520.5,54.3,20.054,0,-0.023731,0,1660.9,57.57,0,0,0,0,0.012145,1
1520.5,54.3,20.054,0,-0.023731,0,1660.9,57.57,0,0,0,0,0.012145,1
1520.5,54.3,20.054,0,-0.023731,0,1660.9,57.57,0,0,0,0,0.012145,1
1520.9,54.3,20.053,0,-0.023802,0,1660.9,57.57,0,0,0,0,0.01218,1
1520.9,54.3,20.053,0,-0.023802,0,1660.9,57.57,0,0,0,0,0.01218,1
1520.9,54.3,20.053,0,-0.023802,0,1660.9,57.57,0,0,0,0,0.01218,1
1520.9,54.3,20.053,0,-0.023802,0,1660.9,57.57,0,0,0,0,0.01218,1
1520.9,54.3,20.053,0,-0.023802,0,1660.9,57.57,0,0,0,0,0.01218,1
1520.9,54.3,20.053,0,-0.023802,0,1660.9,57.57,0,0,0,0,0.01218,1
1520.9,54.3,20.053,0,-0.023802,0,1660.9,57.57,0,0,0,0,0.01218,1
1520.9,54.3,20.053,0,-0.023802,0,1660.9,57.57,0,0,0,0,0.01218,1
1520.9,54.3,20.053,0,-0.023802,0,1660.9,57.57,0,0,0,0,0.01218,1
1520.9,54.3,20.053,0,-0.023802,0,1660.9,57.57,0,0,0,0,0.01218,1
1520.9,54.3,20.053,0,-0.023802,0,1660.9,57.57,0,0,0,0,0.01218,1
1520.9,54.3,20.053,0,-0.023802,0,1660.9,57.57,0,0,0,0,0.01218,1
1520.9,54.3,20.053,0,-0.023802,0,1660.9,57.57,0,0,0,0,0.01218,1
1520.9,54.3,20.053,0,-0.023802,0,1660.9,57.57,0,0,0,0,0.01218,1
1520.9,54.3,20.053,0,-0.023802,0,1660.9,57.57,0,0,0,0,0.01218,1
1522.5,54.3,20.051,0,-0.024086,0,1660.9,57.57,0,0,0,0,0.012321,1
1522.5,54.3,20.051,0,-0.024086,0,1660.9,57.57,0,0,0,0,0.012321,1
1524.5,54.3,20.049,0,-0.02444,0,1660.9,57.57,0,0,0,0,0.012502,1
1524.5,54.3,20.049,0,-0.02444,0,1660.9,57.57,0,0,0,0,0.012502,1
1525,54.3,20.048,0,-0.024511,0,1660.9,57.57,0,0,0,0,0.012539,1
1525,54.3,20.048,0,-0.024511,0,1660.9,57.57,0,0,0,0,0.012539,1
1525,54.3,20.048,0,-0.024511,0,1660.9,57.57,0,0,0,0,0.012539,1
1525,54.3,20.048,0,-0.024511,0,1660.9,57.57,0,0,0,0,0.012539,1
1525.8,54.3,20.047,0,-0.02465,0,1660.9,57.57,0,0,0,0,0.012614,1
1525.8,54.3,20.047,0,-0.02465,0,1660.9,57.57,0,0,0,0,0.012614,1
1525.8,54.3,20.047,0,-0.02465,0,1660.9,57.57,0,0,0,0,0.012614,1
1525.8,54.3,20.047,0,-0.02465,0,1660.9,57.57,0,0,0,0,0.012614,1
1525.8,54.3,20.047,0,-0.02465,0,1660.9,57.57,0,0,0,0,0.012614,1
1525.8,54.3,20.047,0,-0.02465,0,1660.9,57.57,0,0,0,0,0.012614,1
1525.8,54.3,20.047,0,-0.02465,0,1660.9,57.57,0,0,0,0,0.012614,1
1525.8,54.3,20.047,0,-0.02465,0,1660.9,57.57,0,0,0,0,0.012614,1
1525.8,54.3,20.047,0,-0.02465,0,1660.9,57.57,0,0,0,0,0.012614,1
1525.8,54.3,20.047,0,-0.02465,0,1660.9,57.57,0,0,0,0,0.012614,1
1525.8,54.3,20.047,0,-0.02465,0,1660.9,57.57,0,0,0,0,0.012614,1
1527.4,54.3,20.045,0,-0.02493,0,1660.9,57.57,0,0,0,0,0.012765,1
1527.4,54.3,20.045,0,-0.02493,0,1660.9,57.57,0,0,0,0,0.012765,1
1527.4,54.3,20.045,0,-0.02493,0,1660.9,57.57,0,0,0,0,0.012765,1
1527.4,54.3,20.045,0,-0.02493,0,1660.9,57.57,0,0,0,0,0.012765,1
1527.4,54.3,20.045,0,-0.02493,0,1660.9,57.57,0,0,0,0,0.012765,1
1527.4,54.3,20.045,0,-0.02493,0,1660.9,57.57,0,0,0,0,0.012765,1
1527.4,54.3,20.045,0,-0.02493,0,1660.9,57.57,0,0,0,0,0.012765,1
1527.4,54.3,20.045,0,-0.02493,0,1660.9,57.57,0,0,0,0,0.012765,1
1527.4,54.3,20.045,0,-0.02493,0,1660.9,57.57,0,0,0,0,0.012765,1
1527.4,54.3,20.045,0,-0.02493,0,1660.9,57.57,0,0,0,0,0.012765,1
1527.4,54.3,20.045,0,-0.02493,0,1660.9,57.57,0,0,0,0,0.012765,1
1527.4,54.3,20.045,0,-0.02493,0,1660.9,57.57,0,0,0,0,0.012765,1
1527.4,54.3,20.045,0,-0.02493,0,1660.9,57.57,0,0,0,0,0.012765,1
1527.4,54.3,20.045,0,-0.02493,0,1660.9,57.57,0,0,0,0,0.012765,1
1529.8,54.3,20.042,0,-0.025346,0,1660.9,57.57,0,0,0,0,0.012999,1
1529.8,54.3,20.042,0,-0.025346,0,1660.9,57.57,0,0,0,0,0.012999,1
1529.8,54.3,20.042,0,-0.025346,0,1660.9,57.57,0,0,0,0,0.012999,1
1529.8,54.3,20.042,0,-0.025346,0,1660.9,57.57,0,0,0,0,0.012999,1
1529.8,54.3,20.042,0,-0.025346,0,1660.9,57.57,0,0,0,0,0.012999,1
1529.8,54.3,20.042,0,-0.025346,0,1660.9,57.57,0,0,0,0,0.012999,1
1529.8,54.3,20.042,0,-0.025346,0,1660.9,57.57,0,0,0,0,0.012999,1
1530.2,54.3,20.042,0,-0.025415,0,1660.9,57.57,0,0,0,0,0.013039,1
1530.2,54.3,20.042,0,-0.025415,0,1660.9,57.57,0,0,0,0,0.013039,1
1530.6,54.3,20.041,0,-0.025485,0,1660.9,57.57,0,0,0,0,0.013079,1
1530.6,54.3,20.041,0,-0.025485,0,1660.9,57.57,0,0,0,0,0.013079,1
1532.2,54.3,20.039,0,-0.025761,0,1660.9,57.57,0,0,0,0,0.013242,1
1532.2,54.3,20.039,0,-0.025761,0,1660.9,57.57,0,0,0,0,0.013242,1
1533.4,54.3,20.038,0,-0.025968,0,1660.9,57.57,0,0,0,0,0.013367,1
1533.4,54.3,20.038,0,-0.025968,0,1660.9,57.57,0,0,0,0,0.013367,1
1533.4,54.3,20.038,0,-0.025968,0,1660.9,57.57,0,0,0,0,0.013367,1
1533.4,54.3,20.038,0,-0.025968,0,1660.9,57.57,0,0,0,0,0.013367,1
1533.4,54.3,20.038,0,-0.025968,0,1660.9,57.57,0,0,0,0,0.013367,1
1533.4,54.3,20.038,0,-0.025968,0,1660.9,57.57,0,0,0,0,0.013367,1
1533.4,54.3,20.038,0,-0.025968,0,1660.9,57.57,0,0,0,0,0.013367,1
1533.4,54.3,20.038,0,-0.025968,0,1660.9,57.57,0,0,0,0,0.013367,1
1533.4,54.3,20.038,0,-0.025968,0,1660.9,57.57,0,0,0,0,0.013367,1
1535,54.3,20.036,0,-0.026243,0,1660.9,57.57,0,0,0,0,0.013537,1
1535,54.3,20.036,0,-0.026243,0,1660.9,57.57,0,0,0,0,0.013537,1
1535,54.3,20.036,0,-0.026243,0,1660.9,57.57,0,0,0,0,0.013537,1
1535,54.3,20.036,0,-0.026243,0,1660.9,57.57,0,0,0,0,0.013537,1
1535,54.3,20.036,0,-0.026243,0,1660.9,57.57,0,0,0,0,0.013537,1
1535,54.3,20.036,0,-0.026243,0,1660.9,57.57,0,0,0,0,0.013537,1
1535.4,54.3,20.035,0,-0.026311,0,1660.9,57.57,0,0,0,0,0.01358,1
1535.4,54.3,20.035,0,-0.026311,0,1660.9,57.57,0.04,0,4,0,0.013607,1
1535.4,54.3,20.035,0,-0.026311,0,1660.9,57.57,0.04,0,4,0,0.013607,1
1535.4,54.3,20.035,0,-0.026311,0,1660.9,57.57,0.04,0,4,0,0.013607,1
1535.4,54.3,20.035,0,-0.026311,0,1660.9,57.57,0.04,0,4,0,0.013607,1
1535.4,54.3,20.035,0,-0.026311,0,1660.9,57.57,0.2,4.0241e-05,4,0.0017632,0.013716,1
1537,54.3,20.033,0,-0.026582,0,1660.9,57.57,0.2,4.0241e-05,4,0.0017632,0.013893,1
1537,54.3,20.033,0,-0.026582,0,1660.9,57.57,0.2,4.0241e-05,4,0.0017632,0.013893,1
1537,54.3,20.033,0,-0.026582,0,1660.9,57.57,0.44,0.00044805,4,0.010286,0.014059,1
1538.6,54.3,20.031,0,-0.026853,0,1660.9,57.57,0.52,0.0007254,4,0.014302,0.014299,1
1538.6,54.3,20.031,0,-0.026853,0,1660.9,57.57,0.52,0.0007254,4,0.014302,0.014299,1
1539,54.3,20.03,0,-0.026919,0,1660.9,57.57,0.52,0.0007254,4,0.014302,0.014345,1
1539.4,54.3,20.03,0,-0.026988,0,1660.9,57.57,0.52,0.0007254,4,0.014302,0.014393,1
1539.4,54.3,20.03,0,-0.026988,0,1660.9,57.57,0.52,0.0007254,4,0.014302,0.014393,1
1539.4,54.3,20.03,0,-0.026988,0,1660.9,57.57,0.52,0.0007254,4,0.014302,0.014393,1
1539.4,54.3,20.03,0,-0.026988,0,1660.9,57.57,0.52,0.0007254,4,0.014302,0.014393,1
1539.4,54.3,20.03,0,-0.026988,0,1660.9,57.57,0.52,0.0007254,4,0.014302,0.014393,1
1539.4,54.3,20.03,0,-0.026988,0,1660.9,57.57,0.52,0.0007254,4,0.014302,0.014393,1
1539.4,54.3,20.03,0,-0.026988,0,1660.9,57.57,0.52,0.0007254,4,0.014302,0.014393,1
1539.4,54.3,20.03,0,-0.026988,0,1660.9,57.57,0.52,0.0007254,4,0.014302,0.014393,1
1539.4,54.3,20.03,0,-0.026988,0,1660.9,57.57,0.52,0.0007254,4,0.014302,0.014393,1
1539.4,54.3,20.03,0,-0.026988,0,1660.9,57.57,0.52,0.0007254,4,0.014302,0.014393,1
1539.4,54.3,20.03,0,-0.026988,0,1661,57.57,0.84,0.0028426,3.9999,0.035682,0.014618,1
1539.4,54.3,20.03,0,-0.026988,0,1661,57.57,0.84,0.0028426,3.9999,0.035682,0.014618,1
1539.4,54.3,20.03,0,-0.026988,0,1661,57.57,0.84,0.0028426,3.9999,0.035682,0.014618,1
1539.4,54.3,20.03,0,-0.026988,0,1661,57.57,0.84,0.0028426,3.9999,0.035682,0.014618,1
1539.4,54.3,20.03,0,-0.026988,0,1661,57.57,0.91999,0.0036702,3.9999,0.042129,0.014675,1
1539.4,54.3,20.03,0,-0.026988,0,1661,57.57,0.91999,0.0036702,3.9999,0.042129,0.014675,1
1539.4,54.3,20.03,0,-0.026988,0,1661,57.57,0.91999,0.0036702,3.9999,0.042129,0.014675,1
1539.4,54.3,20.03,0,-0.026988,0,1661,57.57,0.91999,0.0036702,3.9999,0.042129,0.014675,1
1539.4,54.3,20.03,0,-0.026988,0,1661,57.57,0.91999,0.0036702,3.9999,0.042129,0.014675,1
1539.4,54.3,20.03,0,-0.026988,0,1661,57.57,0.91999,0.0036702,3.9999,0.042129,0.014675,1
1539.4,54.3,20.03,0,-0.026988,0,1661,57.57,0.91999,0.0036702,3.9999,0.042129,0.014675,1
1540.6,54.3,20.028,0,-0.027189,0,1661,57.57,0.91999,0.0036702,3.9999,0.042129,0.014821,1
1540.6,54.3,20.028,0,-0.027189,0,1661.1,57.571,1.32,0.0099157,3.9995,0.078236,0.015106,1
1540.6,54.3,20.028,0,-0.027189,0,1661.1,57.571,1.32,0.0099157,3.9995,0.078236,0.015106,1
1540.6,54.3,20.028,0,-0.027189,0,1661.1,57.571,1.32,0.0099157,3.9995,0.078236,0.015106,1
1540.6,54.3,20.028,0,-0.027189,0,1661.1,57.571,1.32,0.0099157,3.9995,0.078236,0.015106,1
1540.6,54.3,20.028,0,-0.027189,0,1661.2,57.571,1.4799,0.01345,3.9993,0.093345,0.01522,1
1540.6,54.3,20.028,0,-0.027189,0,1661.2,57.571,1.4799,0.01345,3.9993,0.093345,0.01522,1
1544.2,54.3,20.023,0,-0.02779,0,1661.2,57.571,1.5599,0.015439,3.9992,0.10079,0.015748,1
1544.2,54.3,20.023,0,-0.02779,0,1661.3,57.573,1.7999,0.022254,3.9988,0.12198,0.015924,1
1545,54.3,20.022,0,-0.027924,0,1661.3,57.573,1.7999,0.022254,3.9988,0.12198,0.016034,1
1545,54.3,20.022,0,-0.027924,0,1661.3,57.573,1.7999,0.022254,3.9988,0.12198,0.016034,1
1545,54.3,20.022,0,-0.027924,0,1661.4,57.574,1.9598,0.027447,3.9985,0.13457,0.016152,1
1545,54.3,20.022,0,-0.027924,0,1661.4,57.574,2.0398,0.030216,3.9984,0.14026,0.016211,1
1545,54.3,20.022,0,-0.027924,0,1661.4,57.574,2.0398,0.030216,3.9984,0.14026,0.016211,1
1545,54.3,20.022,0,-0.027924,0,1661.4,57.574,2.0398,0.030216,3.9984,0.14026,0.016211,1
1545,54.3,20.022,0,-0.027924,0,1661.4,57.574,2.0398,0.030216,3.9984,0.14026,0.016211,1
1545,54.3,20.022,0,-0.027924,0,1661.4,57.574,2.0398,0.030216,3.9984,0.14026,0.016211,1
1545,54.3,20.022,0,-0.027924,0,1661.4,57.574,2.0398,0.030216,3.9984,0.14026,0.016211,1
1545,54.3,20.022,0,-0.027924,0,1661.4,57.574,2.0398,0.030216,3.9984,0.14026,0.016211,1
1545,54.3,20.022,0,-0.027924,0,1661.4,57.574,2.0398,0.030216,3.9984,0.14026,0.016211,1
1545,54.3,20.022,0,-0.027924,0,1661.4,57.575,2.1197,0.033088,3.9983,0.14547,0.01627,1
1545,54.3,20.022,0,-0.027924,0,1661.4,57.575,2.1197,0.033088,3.9983,0.14547,0.01627,1
1545,54.3,20.022,0,-0.027924,0,1661.5,57.575,2.1997,0.036053,3.9981,0.15017,0.016329,1
1545,54.3,20.022,0,-0.027924,0,1661.5,57.575,2.1997,0.036053,3.9981,0.15017,0.016329,1
1545,54.3,20.022,0,-0.027924,0,1661.5,57.575,2.1997,0.036053,3.9981,0.15017,0.016329,1
1545,54.3,20.022,0,-0.027924,0,1661.5,57.575,2.1997,0.036053,3.9981,0.15017,0.016329,1
1545,54.3,20.022,0,-0.027924,0,1661.5,57.575,2.1997,0.036053,3.9981,0.15017,0.016329,1
1545,54.3,20.022,0,-0.027924,0,1661.5,57.576,2.2797,0.039099,3.998,0.15433,0.016388,1
1545,54.3,20.022,0,-0.027924,0,1661.7,57.579,2.5195,0.048612,3.9976,0.16322,0.016566,1
1545,54.3,20.022,0,-0.027924,0,1661.7,57.579,2.5195,0.048612,3.9976,0.16322,0.016566,1
1545,54.3,20.022,0,-0.027924,0,1661.7,57.58,2.5995,0.051866,3.9975,0.16492,0.016625,1
1545,54.3,20.022,0,-0.027924,0,1661.7,57.58,2.5995,0.051866,3.9975,0.16492,0.016625,1
1549.8,54.3,20.015,0,-0.028713,0,1661.8,57.581,2.6794,0.05514,3.9975,0.16597,0.017399,1
1549.8,54.3,20.015,0,-0.028713,0,1661.8,57.581,2.6794,0.05514,3.9975,0.16597,0.017399,1
1549.8,54.3,20.015,0,-0.028713,0,1661.8,57.581,2.6794,0.05514,3.9975,0.16597,0.017399,1
1549.8,54.3,20.015,0,-0.028713,0,1661.8,57.581,2.6794,0.05514,3.9975,0.16597,0.017399,1
1549.8,54.3,20.015,0,-0.028713,0,1661.8,57.581,2.6794,0.05514,3.9975,0.16597,0.017399,1
1549.8,54.3,20.015,0,-0.028713,0,1661.8,57.581,2.6794,0.05514,3.9975,0.16597,0.017399,1
1549.8,54.3,20.015,0,-0.028713,0,1661.8,57.581,2.6794,0.05514,3.9975,0.16597,0.017399,1
1550.2,54.3,20.015,0,-0.028778,0,1661.8,57.581,2.6794,0.05514,3.9975,0.16597,0.017461,1
1550.2,54.3,20.015,0,-0.028778,0,1661.8,57.581,2.6794,0.05514,3.9975,0.16597,0.017461,1
1550.6,54.3,20.014,0,-0.028843,0,1661.8,57.581,2.6794,0.05514,3.9975,0.16597,0.017524,1
1550.6,54.3,20.014,0,-0.028843,0,1661.8,57.581,2.6794,0.05514,3.9975,0.16597,0.017524,1
1550.6,54.3,20.014,0,-0.028843,0,1661.8,57.581,2.6794,0.05514,3.9975,0.16597,0.017524,1
1550.6,54.3,20.014,0,-0.028843,0,1661.8,57.581,2.6794,0.05514,3.9975,0.16597,0.017524,1
1550.6,54.3,20.014,0,-0.028843,0,1661.8,57.581,2.6794,0.05514,3.9975,0.16597,0.017524,1
1550.6,54.3,20.014,0,-0.028843,0,1661.8,57.581,2.6794,0.05514,3.9975,0.16597,0.017524,1
1551,54.3,20.014,0,-0.028909,0,1661.8,57.581,2.6794,0.05514,3.9975,0.16597,0.017587,1
1552.2,54.3,20.012,0,-0.029105,0,1662.1,57.589,3.1591,0.074469,3.9974,0.15833,0.018153,1
1552.2,54.3,20.012,0,-0.029105,0,1662.3,57.594,3.399,0.083361,3.9976,0.14605,0.018339,1
1552.2,54.3,20.012,0,-0.029105,0,1662.3,57.594,3.399,0.083361,3.9976,0.14605,0.018339,1
1552.2,54.3,20.012,0,-0.029105,0,1662.3,57.594,3.399,0.083361,3.9976,0.14605,0.018339,1
1552.2,54.3,20.012,0,-0.029105,0,1662.3,57.594,3.399,0.083361,3.9976,0.14605,0.018339,1
1553.8,54.3,20.01,0,-0.029362,0,1662.4,57.595,3.4789,0.086132,3.9977,0.14085,0.018672,1
1553.8,54.3,20.01,0,-0.029362,0,1662.4,57.595,3.4789,0.086132,3.9977,0.14085,0.018672,1
1553.8,54.3,20.01,0,-0.029362,0,1662.4,57.595,3.4789,0.086132,3.9977,0.14085,0.018672,1
1553.8,54.3,20.01,0,-0.029362,0,1662.4,57.595,3.4789,0.086132,3.9977,0.14085,0.018672,1
1553.8,54.3,20.01,0,-0.029362,0,1662.4,57.595,3.4789,0.086132,3.9977,0.14085,0.018672,1
1553.8,54.3,20.01,0,-0.029362,0,1662.4,57.595,3.4789,0.086132,3.9977,0.14085,0.018672,1
1553.8,54.3,20.01,0,-0.029362,0,1662.4,57.595,3.4789,0.086132,3.9977,0.14085,0.018672,1
1553.8,54.3,20.01,0,-0.029362,0,1662.4,57.595,3.4789,0.086132,3.9977,0.14085,0.018672,1
1554.2,54.3,20.009,0,-0.029426,0,1662.4,57.595,3.4789,0.086132,3.9977,0.14085,0.018741,1
1554.2,54.3,20.009,0,-0.029426,0,1662.4,57.595,3.4789,0.086132,3.9977,0.14085,0.018741,1
1555,54.3,20.008,0,-0.029554,0,1662.4,57.595,3.4789,0.086132,3.9977,0.14085,0.01888,1
1555,54.3,20.008,0,-0.029554,0,1662.4,57.595,3.4789,0.086132,3.9977,0.14085,0.01888,1
1555,54.3,20.008,0,-0.029554,0,1662.4,57.595,3.4789,0.086132,3.9977,0.14085,0.01888,1
1555,54.3,20.008,0,-0.029554,0,1662.4,57.595,3.4789,0.086132,3.9977,0.14085,0.01888,1
1555,54.3,20.008,0,-0.029554,0,1662.4,57.595,3.4789,0.086132,3.9977,0.14085,0.01888,1
1555,54.3,20.008,0,-0.029554,0,1662.4,57.595,3.4789,0.086132,3.9977,0.14085,0.01888,1
1555,54.3,20.008,0,-0.029554,0,1662.4,57.595,3.4789,0.086132,3.9977,0.14085,0.01888,1
1555.4,54.3,20.007,0,-0.029617,0,1662.4,57.595,3.4789,0.086132,3.9977,0.14085,0.018951,1
1555.4,54.3,20.007,0,-0.029617,0,1663.1,57.613,4.1987,0.10502,3.9994,0.075698,0.019519,1
1555.4,54.3,20.007,0,-0.029617,0,1663.1,57.613,4.1987,0.10502,3.9994,0.075698,0.019519,1
1555.4,54.3,20.007,0,-0.029617,0,1663.1,57.613,4.1987,0.10502,3.9994,0.075698,0.019519,1
1555.4,54.3,20.007,0,-0.029617,0,1663.2,57.615,4.2787,0.10633,3.9996,0.067143,0.019582,1
1558.2,54.3,20.003,0,-0.030061,0,1663.3,57.617,4.3587,0.10747,3.9998,0.058474,0.020168,1
1558.2,54.3,20.003,0,-0.030061,0,1663.3,57.617,4.3587,0.10747,3.9998,0.058474,0.020168,1
1558.2,54.3,20.003,0,-0.030061,0,1663.5,57.623,4.5987,0.10985,4.0004,0.032182,0.020359,1
1558.2,54.3,20.003,0,-0.030061,0,1663.5,57.623,4.5987,0.10985,4.0004,0.032182,0.020359,1
1558.2,54.3,20.003,0,-0.030061,0,1663.5,57.623,4.5987,0.10985,4.0004,0.032182,0.020359,1
1558.2,54.3,20.003,0,-0.030061,0,1663.6,57.626,4.6787,0.1103,4.0006,0.023448,0.020422,1
1558.2,54.3,20.003,0,-0.030061,0,1663.7,57.628,4.7587,0.11058,4.0007,0.014789,0.020486,1
1558.2,54.3,20.003,0,-0.030061,0,1663.7,57.628,4.7587,0.11058,4.0007,0.014789,0.020486,1
1558.2,54.3,20.003,0,-0.030061,0,1663.7,57.628,4.7587,0.11058,4.0007,0.014789,0.020486,1
1558.2,54.3,20.003,0,-0.030061,0,1663.8,57.63,4.8387,0.11069,4.0009,0.0062378,0.020549,1
1558.2,54.3,20.003,0,-0.030061,0,1663.8,57.63,4.8387,0.11069,4.0009,0.0062378,0.020549,1
1558.2,54.3,20.003,0,-0.030061,0,1663.9,57.632,4.9188,0.11063,4.0011,-0.0021737,0.020613,1
1558.2,54.3,20.003,0,-0.030061,0,1663.9,57.632,4.9188,0.11063,4.0011,-0.0021737,0.020613,1
1558.2,54.3,20.003,0,-0.030061,0,1663.9,57.632,4.9188,0.11063,4.0011,-0.0021737,0.020613,1
1558.2,54.3,20.003,0,-0.030061,0,1663.9,57.632,4.9188,0.11063,4.0011,-0.0021737,0.020613,1
1558.2,54.3,20.003,0,-0.030061,0,1664,57.634,4.9988,0.11042,4.0012,-0.010416,0.020676,1
1558.2,54.3,20.003,0,-0.030061,0,1664,57.634,4.9988,0.11042,4.0012,-0.010416,0.020676,1
1558.2,54.3,20.003,0,-0.030061,0,1664.1,57.637,5.0788,0.11004,4.0014,-0.018462,0.020739,1
1558.2,54.3,20.003,0,-0.030061,0,1664.2,57.639,5.1588,0.10951,4.0015,-0.026285,0.020802,1
1558.2,54.3,20.003,0,-0.030061,0,1664.2,57.639,5.1588,0.10951,4.0015,-0.026285,0.020802,1
1558.2,54.3,20.003,0,-0.030061,0,1664.2,57.639,5.1588,0.10951,4.0015,-0.026285,0.020802,1
1558.2,54.3,20.003,0,-0.030061,0,1664.2,57.639,5.1588,0.10951,4.0015,-0.026285,0.020802,1
1562.2,54.3,19.997,0,-0.030691,0,1664.3,57.641,5.2389,0.10883,4.0016,-0.033862,0.021681,1
1562.2,54.3,19.997,0,-0.030691,0,1664.5,57.645,5.3989,0.10704,4.0018,-0.048197,0.02181,1
1562.2,54.3,19.997,0,-0.030691,0,1664.5,57.645,5.3989,0.10704,4.0018,-0.048197,0.02181,1
1562.2,54.3,19.997,0,-0.030691,0,1664.5,57.645,5.3989,0.10704,4.0018,-0.048197,0.02181,1
1563,54.3,19.996,0,-0.030816,0,1664.5,57.645,5.3989,0.10704,4.0018,-0.048197,0.021981,1
1563.4,54.3,19.995,0,-0.030879,0,1664.5,57.645,5.3989,0.10704,4.0018,-0.048197,0.022068,1
1563.4,54.3,19.995,0,-0.030879,0,1664.9,57.652,5.6391,0.10339,4.0019,-0.067396,0.022262,1
1563.4,54.3,19.995,0,-0.030879,0,1664.9,57.652,5.6391,0.10339,4.0019,-0.067396,0.022262,1
1563.4,54.3,19.995,0,-0.030879,0,1664.9,57.652,5.6391,0.10339,4.0019,-0.067396,0.022262,1
1563.4,54.3,19.995,0,-0.030879,0,1664.9,57.652,5.6391,0.10339,4.0019,-0.067396,0.022262,1
1563.4,54.3,19.995,0,-0.030879,0,1664.9,57.652,5.6391,0.10339,4.0019,-0.067396,0.022262,1
1563.4,54.3,19.995,0,-0.030879,0,1664.9,57.652,5.6391,0.10339,4.0019,-0.067396,0.022262,1
1564.2,54.3,19.994,0,-0.031004,0,1664.9,57.652,5.6391,0.10339,4.0019,-0.067396,0.022438,1
1564.2,54.3,19.994,0,-0.031004,0,1664.9,57.652,5.6391,0.10339,4.0019,-0.067396,0.022438,1
1564.2,54.3,19.994,0,-0.031004,0,1665.1,57.656,5.7991,0.10038,4.002,-0.078512,0.022567,1
1564.2,54.3,19.994,0,-0.031004,0,1665.1,57.656,5.7991,0.10038,4.002,-0.078512,0.022567,1
1564.2,54.3,19.994,0,-0.031004,0,1665.1,57.656,5.7991,0.10038,4.002,-0.078512,0.022567,1
1564.2,54.3,19.994,0,-0.031004,0,1665.1,57.656,5.7991,0.10038,4.002,-0.078512,0.022567,1
1564.2,54.3,19.994,0,-0.031004,0,1665.1,57.656,5.7991,0.10038,4.002,-0.078512,0.022567,1
1565,54.3,19.993,0,-0.031127,0,1665.1,57.656,5.7991,0.10038,4.002,-0.078512,0.022747,1
1565,54.3,19.993,0,-0.031127,0,1665.1,57.656,5.7991,0.10038,4.002,-0.078512,0.022747,1
1565,54.3,19.993,0,-0.031127,0,1665.1,57.656,5.7991,0.10038,4.002,-0.078512,0.022747,1
1566.2,54.3,19.991,0,-0.031313,0,1665.3,57.659,5.9592,0.096983,4.002,-0.088207,0.023153,1
1566.2,54.3,19.991,0,-0.031313,0,1665.7,57.665,6.1993,0.091267,4.0019,-0.10003,0.023346,1
1566.2,54.3,19.991,0,-0.031313,0,1665.7,57.665,6.1993,0.091267,4.0019,-0.10003,0.023346,1
1567.8,54.3,19.988,0,-0.031559,0,1665.9,57.669,6.3594,0.087131,4.0019,-0.1061,0.023857,1
1567.8,54.3,19.988,0,-0.031559,0,1666.2,57.672,6.5195,0.0828,4.0018,-0.11077,0.023985,1
1567.8,54.3,19.988,0,-0.031559,0,1666.2,57.672,6.5195,0.0828,4.0018,-0.11077,0.023985,1
1567.8,54.3,19.988,0,-0.031559,0,1666.2,57.672,6.5195,0.0828,4.0018,-0.11077,0.023985,1
1567.8,54.3,19.988,0,-0.031559,0,1666.2,57.672,6.5195,0.0828,4.0018,-0.11077,0.023985,1
1567.8,54.3,19.988,0,-0.031559,0,1666.2,57.672,6.5195,0.0828,4.0018,-0.11077,0.023985,1
1567.8,54.3,19.988,0,-0.031559,0,1666.2,57.672,6.5195,0.0828,4.0018,-0.11077,0.023985,1
1567.8,54.3,19.988,0,-0.031559,0,1666.2,57.672,6.5195,0.0828,4.0018,-0.11077,0.023985,1
1567.8,54.3,19.988,0,-0.031559,0,1666.2,57.672,6.5195,0.0828,4.0018,-0.11077,0.023985,1
1568.6,54.3,19.987,0,-0.03168,0,1666.2,57.672,6.5195,0.0828,4.0018,-0.11077,0.024181,1
1568.6,54.3,19.987,0,-0.03168,0,1666.2,57.672,6.5195,0.0828,4.0018,-0.11077,0.024181,1
1568.6,54.3,19.987,0,-0.03168,0,1666.2,57.672,6.5195,0.0828,4.0018,-0.11077,0.024181,1
1568.6,54.3,19.987,0,-0.03168,0,1666.2,57.672,6.5195,0.0828,4.0018,-0.11077,0.024181,1
1568.6,54.3,19.987,0,-0.03168,0,1666.2,57.672,6.5195,0.0828,4.0018,-0.11077,0.024181,1
1568.6,54.3,19.987,0,-0.03168,0,1666.2,57.672,6.5195,0.0828,4.0018,-0.11077,0.024181,1
1568.6,54.3,19.987,0,-0.03168,0,1666.2,57.672,6.5195,0.0828,4.0018,-0.11077,0.024181,1
1568.6,54.3,19.987,0,-0.03168,0,1666.5,57.675,6.6795,0.078327,4.0017,-0.11408,0.02431,1
1568.6,54.3,19.987,0,-0.03168,0,1666.5,57.675,6.6795,0.078327,4.0017,-0.11408,0.02431,1
1570.6,54.3,19.984,0,-0.031982,0,1666.6,57.677,6.7596,0.076054,4.0016,-0.11525,0.024881,1
1570.6,54.3,19.984,0,-0.031982,0,1666.6,57.677,6.7596,0.076054,4.0016,-0.11525,0.024881,1
1570.6,54.3,19.984,0,-0.031982,0,1666.6,57.677,6.7596,0.076054,4.0016,-0.11525,0.024881,1
1570.6,54.3,19.984,0,-0.031982,0,1667.1,57.682,7.0797,0.066857,4.0013,-0.11694,0.025137,1
1571.8,54.3,19.982,0,-0.032164,0,1667.1,57.682,7.0797,0.066857,4.0013,-0.11694,0.025452,1
1572.2,54.3,19.981,0,-0.032225,0,1667.1,57.682,7.0797,0.066857,4.0013,-0.11694,0.025559,1
1572.2,54.3,19.981,0,-0.032225,0,1667.1,57.682,7.0797,0.066857,4.0013,-0.11694,0.025559,1
1572.2,54.3,19.981,0,-0.032225,0,1667.1,57.682,7.0797,0.066857,4.0013,-0.11694,0.025559,1
1572.6,54.3,19.981,0,-0.032285,0,1667.1,57.682,7.0797,0.066857,4.0013,-0.11694,0.025667,1
1572.6,54.3,19.981,0,-0.032285,0,1667.9,57.688,7.4798,0.05552,4.001,-0.11325,0.025986,1
1572.6,54.3,19.981,0,-0.032285,0,1667.9,57.688,7.4798,0.05552,4.001,-0.11325,0.025986,1
1573.4,54.3,19.979,0,-0.032404,0,1667.9,57.688,7.4798,0.05552,4.001,-0.11325,0.026205,1
1573.4,54.3,19.979,0,-0.032404,0,1667.9,57.688,7.4798,0.05552,4.001,-0.11325,0.026205,1
1573.4,54.3,19.979,0,-0.032404,0,1667.9,57.688,7.4798,0.05552,4.001,-0.11325,0.026205,1
1573.4,54.3,19.979,0,-0.032404,0,1667.9,57.688,7.4798,0.05552,4.001,-0.11325,0.026205,1
1573.4,54.3,19.979,0,-0.032404,0,1667.9,57.688,7.4798,0.05552,4.001,-0.11325,0.026205,1
1573.4,54.3,19.979,0,-0.032404,0,1667.9,57.688,7.4798,0.05552,4.001,-0.11325,0.026205,1
1573.8,54.3,19.979,0,-0.032463,0,1667.9,57.688,7.4798,0.05552,4.001,-0.11325,0.026316,1
1574.2,54.3,19.978,0,-0.032524,0,1667.9,57.688,7.4798,0.05552,4.001,-0.11325,0.026428,1
1574.2,54.3,19.978,0,-0.032524,0,1667.9,57.688,7.4798,0.05552,4.001,-0.11325,0.026428,1
1574.6,54.3,19.977,0,-0.032584,0,1667.9,57.688,7.4798,0.05552,4.001,-0.11325,0.026541,1
1575,54.3,19.977,0,-0.032643,0,1667.9,57.688,7.4798,0.05552,4.001,-0.11325,0.026655,1
1575,54.3,19.977,0,-0.032643,0,1669,57.695,8.0399,0.040874,4.0006,-0.10028,0.027095,1
1575,54.3,19.977,0,-0.032643,0,1669,57.695,8.0399,0.040874,4.0006,-0.10028,0.027095,1
1575,54.3,19.977,0,-0.032643,0,1669,57.695,8.0399,0.040874,4.0006,-0.10028,0.027095,1
1575,54.3,19.977,0,-0.032643,0,1669,57.695,8.0399,0.040874,4.0006,-0.10028,0.027095,1
1575,54.3,19.977,0,-0.032643,0,1669,57.695,8.0399,0.040874,4.0006,-0.10028,0.027095,1
1575,54.3,19.977,0,-0.032643,0,1669.1,57.696,8.1199,0.038951,4.0005,-0.097879,0.027157,1
1575,54.3,19.977,0,-0.032643,0,1669.1,57.696,8.1199,0.038951,4.0005,-0.097879,0.027157,1
1575,54.3,19.977,0,-0.032643,0,1669.1,57.696,8.1199,0.038951,4.0005,-0.097879,0.027157,1
1575,54.3,19.977,0,-0.032643,0,1669.3,57.697,8.1999,0.037087,4.0005,-0.095063,0.027219,1
1575,54.3,19.977,0,-0.032643,0,1669.3,57.697,8.1999,0.037087,4.0005,-0.095063,0.027219,1
1575,54.3,19.977,0,-0.032643,0,1669.3,57.697,8.1999,0.037087,4.0005,-0.095063,0.027219,1
1575,54.3,19.977,0,-0.032643,0,1669.3,57.697,8.1999,0.037087,4.0005,-0.095063,0.027219,1
1575,54.3,19.977,0,-0.032643,0,1669.3,57.697,8.1999,0.037087,4.0005,-0.095063,0.027219,1
1575,54.3,19.977,0,-0.032643,0,1669.3,57.697,8.1999,0.037087,4.0005,-0.095063,0.027219,1
1575,54.3,19.977,0,-0.032643,0,1669.3,57.697,8.1999,0.037087,4.0005,-0.095063,0.027219,1
1575,54.3,19.977,0,-0.032643,0,1669.3,57.697,8.1999,0.037087,4.0005,-0.095063,0.027219,1
1577,54.3,19.973,0,-0.032938,0,1669.3,57.697,8.1999,0.037087,4.0005,-0.095063,0.027807,1
1577,54.3,19.973,0,-0.032938,0,1669.8,57.699,8.4399,0.031833,4.0004,-0.086406,0.027991,1
1577,54.3,19.973,0,-0.032938,0,1669.8,57.699,8.4399,0.031833,4.0004,-0.086406,0.027991,1
1577,54.3,19.973,0,-0.032938,0,1669.8,57.699,8.4399,0.031833,4.0004,-0.086406,0.027991,1
1577,54.3,19.973,0,-0.032938,0,1670,57.699,8.5199,0.030196,4.0003,-0.083495,0.028052,1
1579.8,54.3,19.969,0,-0.033348,0,1670.1,57.7,8.6,0.028617,4.0003,-0.080591,0.028981,1
1579.8,54.3,19.969,0,-0.033348,0,1670.8,57.702,8.92,0.022862,4.0002,-0.069208,0.029222,1
1579.8,54.3,19.969,0,-0.033348,0,1670.8,57.702,8.92,0.022862,4.0002,-0.069208,0.029222,1
1579.8,54.3,19.969,0,-0.033348,0,1670.8,57.702,8.92,0.022862,4.0002,-0.069208,0.029222,1
1579.8,54.3,19.969,0,-0.033348,0,1671,57.702,9,0.02156,4.0002,-0.066454,0.029282,1
1579.8,54.3,19.969,0,-0.033348,0,1671.2,57.703,9.08,0.020312,4.0002,-0.063747,0.029341,1
1579.8,54.3,19.969,0,-0.033348,0,1671.2,57.703,9.08,0.020312,4.0002,-0.063747,0.029341,1
1579.8,54.3,19.969,0,-0.033348,0,1671.2,57.703,9.08,0.020312,4.0002,-0.063747,0.029341,1
1579.8,54.3,19.969,0,-0.033348,0,1671.2,57.703,9.08,0.020312,4.0002,-0.063747,0.029341,1
1579.8,54.3,19.969,0,-0.033348,0,1671.2,57.703,9.08,0.020312,4.0002,-0.063747,0.029341,1
1579.8,54.3,19.969,0,-0.033348,0,1671.2,57.703,9.08,0.020312,4.0002,-0.063747,0.029341,1
1579.8,54.3,19.969,0,-0.033348,0,1671.2,57.703,9.08,0.020312,4.0002,-0.063747,0.029341,1
1579.8,54.3,19.969,0,-0.033348,0,1671.2,57.703,9.08,0.020312,4.0002,-0.063747,0.029341,1
1579.8,54.3,19.969,0,-0.033348,0,1671.2,57.703,9.08,0.020312,4.0002,-0.063747,0.029341,1
1581.4,54.3,19.966,0,-0.033579,0,1671.2,57.703,9.08,0.020312,4.0002,-0.063747,0.029862,1
1581.4,54.3,19.966,0,-0.033579,0,1671.2,57.703,9.08,0.020312,4.0002,-0.063747,0.029862,1
1581.4,54.3,19.966,0,-0.033579,0,1671.6,57.703,9.24,0.017971,4.0001,-0.058491,0.029979,1
1581.4,54.3,19.966,0,-0.033579,0,1671.6,57.703,9.24,0.017971,4.0001,-0.058491,0.029979,1
1581.4,54.3,19.966,0,-0.033579,0,1671.6,57.703,9.24,0.017971,4.0001,-0.058491,0.029979,1
1581.4,54.3,19.966,0,-0.033579,0,1671.6,57.703,9.24,0.017971,4.0001,-0.058491,0.029979,1
1581.4,54.3,19.966,0,-0.033579,0,1671.6,57.703,9.24,0.017971,4.0001,-0.058491,0.029979,1
1581.4,54.3,19.966,0,-0.033579,0,1671.6,57.703,9.24,0.017971,4.0001,-0.058491,0.029979,1
1581.4,54.3,19.966,0,-0.033579,0,1671.6,57.703,9.24,0.017971,4.0001,-0.058491,0.029979,1
1581.4,54.3,19.966,0,-0.033579,0,1671.6,57.703,9.24,0.017971,4.0001,-0.058491,0.029979,1
1581.4,54.3,19.966,0,-0.033579,0,1671.6,57.703,9.24,0.017971,4.0001,-0.058491,0.029979,1
1582.2,54.3,19.965,0,-0.033695,0,1671.6,57.703,9.24,0.017971,4.0001,-0.058491,0.030247,1
1583.8,54.3,19.962,0,-0.033925,0,1672.1,57.704,9.48,0.01483,4.0001,-0.051046,0.030969,1
1583.8,54.3,19.962,0,-0.033925,0,1672.1,57.704,9.48,0.01483,4.0001,-0.051046,0.030969,1
1583.8,54.3,19.962,0,-0.033925,0,1672.7,57.705,9.72,0.012106,4.0001,-0.044176,0.03114,1
1585.8,54.3,19.959,0,-0.03421,0,1673.1,57.706,9.88,0.010503,4,-0.039931,0.031966,1
1585.8,54.3,19.959,0,-0.03421,0,1673.1,57.706,9.88,0.010503,4,-0.039931,0.031966,1
1585.8,54.3,19.959,0,-0.03421,0,1673.7,57.706,10.12,0.0083933,4,-0.034073,0.032131,1
1586.6,54.3,19.957,0,-0.034323,0,1673.7,57.706,10.12,0.0083933,4,-0.034073,0.032425,1
1586.6,54.3,19.957,0,-0.034323,0,1673.7,57.706,10.12,0.0083933,4,-0.034073,0.032425,1
1586.6,54.3,19.957,0,-0.034323,0,1673.7,57.706,10.12,0.0083933,4,-0.034073,0.032425,1
1586.6,54.3,19.957,0,-0.034323,0,1673.7,57.706,10.12,0.0083933,4,-0.034073,0.032425,1
1586.6,54.3,19.957,0,-0.034323,0,1673.7,57.706,10.12,0.0083933,4,-0.034073,0.032425,1
1586.6,54.3,19.957,0,-0.034323,0,1673.7,57.706,10.12,0.0083933,4,-0.034073,0.032425,1
1586.6,54.3,19.957,0,-0.034323,0,1673.7,57.706,10.12,0.0083933,4,-0.034073,0.032425,1
1586.6,54.3,19.957,0,-0.034323,0,1673.7,57.706,10.12,0.0083933,4,-0.034073,0.032425,1
1586.6,54.3,19.957,0,-0.034323,0,1673.7,57.706,10.12,0.0083933,4,-0.034073,0.032425,1
1586.6,54.3,19.957,0,-0.034323,0,1673.7,57.706,10.12,0.0083933,4,-0.034073,0.032425,1
1586.6,54.3,19.957,0,-0.034323,0,1674.1,57.706,10.28,0.007167,4,-0.030504,0.032533,1
1586.6,54.3,19.957,0,-0.034323,0,1674.1,57.706,10.28,0.007167,4,-0.030504,0.032533,1
1586.6,54.3,19.957,0,-0.034323,0,1674.1,57.706,10.28,0.007167,4,-0.030504,0.032533,1
1586.6,54.3,19.957,0,-0.034323,0,1674.1,57.706,10.28,0.007167,4,-0.030504,0.032533,1
1586.6,54.3,19.957,0,-0.034323,0,1674.1,57.706,10.28,0.007167,4,-0.030504,0.032533,1
1586.6,54.3,19.957,0,-0.034323,0,1674.1,57.706,10.28,0.007167,4,-0.030504,0.032533,1
1586.6,54.3,19.957,0,-0.034323,0,1674.1,57.706,10.28,0.007167,4,-0.030504,0.032533,1
1586.6,54.3,19.957,0,-0.034323,0,1674.3,57.707,10.36,0.0066041,4,-0.028819,0.032587,1
1586.6,54.3,19.957,0,-0.034323,0,1674.3,57.707,10.36,0.0066041,4,-0.028819,0.032587,1
1588.6,54.3,19.954,0,-0.034604,0,1674.5,57.707,10.44,0.0060729,4,-0.027199,0.033396,1
1589.8,54.3,19.952,0,-0.03477,0,1675.4,57.707,10.76,0.0042408,4,-0.021351,0.034072,1
1589.8,54.3,19.952,0,-0.03477,0,1675.4,57.707,10.76,0.0042408,4,-0.021351,0.034072,1
1589.8,54.3,19.952,0,-0.03477,0,1676,57.707,11,0.0031404,4,-0.017592,0.034223,1
1589.8,54.3,19.952,0,-0.03477,0,1676.2,57.707,11.08,0.0028197,4,-0.016451,0.034272,1
1589.8,54.3,19.952,0,-0.03477,0,1676.2,57.707,11.08,0.0028197,4,-0.016451,0.034272,1
1589.8,54.3,19.952,0,-0.03477,0,1676.2,57.707,11.08,0.0028197,4,-0.016451,0.034272,1
1589.8,54.3,19.952,0,-0.03477,0,1676.4,57.707,11.111,0.0025088,3.9205e-06,-0.016304,0.034238,1
1589.8,54.3,19.952,0,-0.03477,0,1676.4,57.707,11.111,0.0025088,3.9205e-06,-0.016304,0.034238,1
1589.8,54.3,19.952,0,-0.03477,0,1676.4,57.707,11.111,0.0025088,3.9205e-06,-0.016304,0.034238,1
1589.8,54.3,19.952,0,-0.03477,0,1676.4,57.707,11.111,0.0025088,3.9205e-06,-0.016304,0.034238,1
1589.8,54.3,19.952,0,-0.03477,0,1676.7,57.707,11.111,0.0022141,3.2055e-06,-0.015062,0.034151,1
1589.8,54.3,19.952,0,-0.03477,0,1676.7,57.707,11.111,0.0022141,3.2055e-06,-0.015062,0.034151,1
1589.8,54.3,19.952,0,-0.03477,0,1676.7,57.707,11.111,0.0022141,3.2055e-06,-0.015062,0.034151,1
1589.8,54.3,19.952,0,-0.03477,0,1676.7,57.707,11.111,0.0022141,3.2055e-06,-0.015062,0.034151,1
1589.8,54.3,19.952,0,-0.03477,0,1676.7,57.707,11.111,0.0022141,3.2055e-06,-0.015062,0.034151,1
1589.8,54.3,19.952,0,-0.03477,0,1676.7,57.707,11.111,0.0022141,3.2055e-06,-0.015062,0.034151,1
1589.8,54.3,19.952,0,-0.03477,0,1676.7,57.707,11.111,0.0022141,3.2055e-06,-0.015062,0.034151,1
1589.8,54.3,19.952,0,-0.03477,0,1676.7,57.707,11.111,0.0022141,3.2055e-06,-0.015062,0.034151,1
1589.8,54.3,19.952,0,-0.03477,0,1676.7,57.707,11.111,0.0022141,3.2055e-06,-0.015062,0.034151,1
1589.8,54.3,19.952,0,-0.03477,0,1676.7,57.707,11.111,0.0022141,3.2055e-06,-0.015062,0.034151,1
1592.2,54.3,19.948,0,-0.035102,0,1676.7,57.707,11.111,0.0022141,3.2055e-06,-0.015062,0.035116,1
1592.2,54.3,19.948,0,-0.035102,0,1676.7,57.707,11.111,0.0022141,3.2055e-06,-0.015062,0.035116,1
1592.2,54.3,19.948,0,-0.035102,0,1677.1,57.708,11.111,0.0016886,2.1075e-06,-0.012884,0.034932,1
1592.2,54.3,19.948,0,-0.035102,0,1677.6,57.708,11.111,0.001242,1.3307e-06,-0.010941,0.034751,1
1594.5,54.3,19.943,0,-0.035429,0,1677.8,57.708,11.111,0.0010454,1.0367e-06,-0.010052,0.035655,1
1595.7,54.3,19.941,0,-0.03559,0,1678.7,57.708,11.111,0.00041424,3.0505e-07,-0.0069996,0.035787,1
1595.7,54.3,19.941,0,-0.03559,0,1678.7,57.708,11.111,0.00041424,3.0505e-07,-0.0069996,0.035787,1
1595.7,54.3,19.941,0,-0.03559,0,1678.7,57.708,11.111,0.00041424,3.0505e-07,-0.0069996,0.035787,1
1595.7,54.3,19.941,0,-0.03559,0,1678.7,57.708,11.111,0.00041424,3.0505e-07,-0.0069996,0.035787,1
1595.7,54.3,19.941,0,-0.03559,0,1678.7,57.708,11.111,0.00041424,3.0505e-07,-0.0069996,0.035787,1
1595.7,54.3,19.941,0,-0.03559,0,1678.7,57.708,11.111,0.00041424,3.0505e-07,-0.0069996,0.035787,1
1595.7,54.3,19.941,0,-0.03559,0,1678.7,57.708,11.111,0.00041424,3.0505e-07,-0.0069996,0.035787,1
1596.1,54.3,19.94,0,-0.035645,0,1678.7,57.708,11.111,0.00041424,3.0505e-07,-0.0069996,0.03596,1
1596.1,54.3,19.94,0,-0.035645,0,1678.7,57.708,11.111,0.00041424,3.0505e-07,-0.0069996,0.03596,1
1596.1,54.3,19.94,0,-0.035645,0,1678.7,57.708,11.111,0.00041424,3.0505e-07,-0.0069996,0.03596,1
1596.1,54.3,19.94,0,-0.035645,0,1678.7,57.708,11.111,0.00041424,3.0505e-07,-0.0069996,0.03596,1
1596.1,54.3,19.94,0,-0.035645,0,1678.7,57.708,11.111,0.00041424,3.0505e-07,-0.0069996,0.03596,1
1596.1,54.3,19.94,0,-0.035645,0,1678.7,57.708,11.111,0.00041424,3.0505e-07,-0.0069996,0.03596,1
1596.1,54.3,19.94,0,-0.035645,0,1678.7,57.708,11.111,0.00041424,3.0505e-07,-0.0069996,0.03596,1
1596.1,54.3,19.94,0,-0.035645,0,1678.7,57.708,11.111,0.00041424,3.0505e-07,-0.0069996,0.03596,1
1596.1,54.3,19.94,0,-0.035645,0,1678.7,57.708,11.111,0.00041424,3.0505e-07,-0.0069996,0.03596,1
1596.1,54.3,19.94,0,-0.035645,0,1678.7,57.708,11.111,0.00041424,3.0505e-07,-0.0069996,0.03596,1
1596.1,54.3,19.94,0,-0.035645,0,1679.3,57.708,11.111,7.7882e-05,6.0481e-08,-0.0051814,0.035672,1
1596.1,54.3,19.94,0,-0.035645,0,1679.3,57.708,11.111,7.7882e-05,6.0481e-08,-0.0051814,0.035672,1
1596.1,54.3,19.94,0,-0.035645,0,1679.3,57.708,11.111,7.7882e-05,6.0481e-08,-0.0051814,0.035672,1
1596.9,54.3,19.939,0,-0.035754,0,1679.3,57.708,11.111,7.7882e-05,6.0481e-08,-0.0051814,0.036016,1
1598.1,54.3,19.937,0,-0.035914,0,1680,57.708,11.111,-0.00016517,-4.2749e-08,-0.0037085,0.036249,1
1599.7,54.3,19.934,0,-0.036127,0,1680.7,57.708,11.111,-0.00033339,-7.019e-08,-0.0025315,0.036663,1
1599.7,54.3,19.934,0,-0.036127,0,1680.7,57.708,11.111,-0.00033339,-7.019e-08,-0.0025315,0.036663,1
1600.1,54.3,19.933,0,-0.03618,0,1680.7,57.708,11.111,-0.00033339,-7.019e-08,-0.0025315,0.036844,1
1600.1,54.3,19.933,0,-0.03618,0,1681.6,57.708,11.111,-0.00046807,-5.5051e-08,-0.0013455,0.036443,1
1600.1,54.3,19.933,0,-0.03618,0,1681.6,57.708,11.111,-0.00046807,-5.5051e-08,-0.0013455,0.036443,1
1600.1,54.3,19.933,0,-0.03618,0,1681.6,57.708,11.111,-0.00046807,-5.5051e-08,-0.0013455,0.036443,1
1600.1,54.3,19.933,0,-0.03618,0,1681.6,57.708,11.111,-0.00046807,-5.5051e-08,-0.0013455,0.036443,1
1600.1,54.3,19.933,0,-0.03618,0,1681.6,57.708,11.111,-0.00046807,-5.5051e-08,-0.0013455,0.036443,1
1600.1,54.3,19.933,0,-0.03618,0,1681.6,57.708,11.111,-0.00046807,-5.5051e-08,-0.0013455,0.036443,1
1600.1,54.3,19.933,0,-0.03618,0,1681.6,57.708,11.111,-0.00046807,-5.5051e-08,-0.0013455,0.036443,1
1600.1,54.3,19.933,0,-0.03618,0,1681.6,57.708,11.111,-0.00046807,-5.5051e-08,-0.0013455,0.036443,1
1600.1,54.3,19.933,0,-0.03618,0,1681.6,57.708,11.111,-0.00046807,-5.5051e-08,-0.0013455,0.036443,1
1600.9,54.3,19.932,0,-0.036284,0,1681.6,57.708,11.111,-0.00046807,-5.5051e-08,-0.0013455,0.036803,1
1600.9,54.3,19.932,0,-0.036284,0,1681.6,57.708,11.111,-0.00046807,-5.5051e-08,-0.0013455,0.036803,1
1600.9,54.3,19.932,0,-0.036284,0,1681.6,57.708,11.111,-0.00046807,-5.5051e-08,-0.0013455,0.036803,1
1600.9,54.3,19.932,0,-0.036284,0,1681.6,57.708,11.111,-0.00046807,-5.5051e-08,-0.0013455,0.036803,1
1600.9,54.3,19.932,0,-0.036284,0,1681.6,57.708,11.111,-0.00046807,-5.5051e-08,-0.0013455,0.036803,1
1600.9,54.3,19.932,0,-0.036284,0,1681.6,57.708,11.111,-0.00046807,-5.5051e-08,-0.0013455,0.036803,1
1600.9,54.3,19.932,0,-0.036284,0,1681.6,57.708,11.111,-0.00046807,-5.5051e-08,-0.0013455,0.036803,1
1600.9,54.3,19.932,0,-0.036284,0,1681.6,57.708,11.111,-0.00046807,-5.5051e-08,-0.0013455,0.036803,1
1600.9,54.3,19.932,0,-0.036284,0,1681.6,57.708,11.111,-0.00046807,-5.5051e-08,-0.0013455,0.036803,1
1600.9,54.3,19.932,0,-0.036284,0,1682,57.708,11.111,-0.00050569,-3.9787e-08,-0.00088988,0.036601,1
1602.9,54.3,19.928,0,-0.036545,0,1682.2,57.708,11.111,-0.00051851,-3.1849e-08,-0.00069171,0.037416,1
1602.9,54.3,19.928,0,-0.036545,0,1683.1,57.708,11.111,-0.00053792,-3.3219e-09,-6.8704e-05,0.037003,1
1604.1,54.3,19.926,0,-0.036702,0,1683.1,57.708,11.111,-0.00053792,-3.3219e-09,-6.8704e-05,0.037561,1
1604.1,54.3,19.926,0,-0.036702,0,1684,57.708,11.111,-0.00052005,1.5704e-08,0.00033338,0.037144,1
1604.1,54.3,19.926,0,-0.036702,0,1684,57.708,11.111,-0.00052005,1.5704e-08,0.00033338,0.037144,1
1604.1,54.3,19.926,0,-0.036702,0,1684,57.708,11.111,-0.00052005,1.5704e-08,0.00033338,0.037144,1
1604.1,54.3,19.926,0,-0.036702,0,1684,57.708,11.111,-0.00052005,1.5704e-08,0.00033338,0.037144,1
1604.1,54.3,19.926,0,-0.036702,0,1684,57.708,11.111,-0.00052005,1.5704e-08,0.00033338,0.037144,1
1604.1,54.3,19.926,0,-0.036702,0,1684,57.708,11.111,-0.00052005,1.5704e-08,0.00033338,0.037144,1
1604.1,54.3,19.926,0,-0.036702,0,1684,57.708,11.111,-0.00052005,1.5704e-08,0.00033338,0.037144,1
1604.1,54.3,19.926,0,-0.036702,0,1684,57.708,11.111,-0.00052005,1.5704e-08,0.00033338,0.037144,1
1604.1,54.3,19.926,0,-0.036702,0,1684,57.708,11.111,-0.00052005,1.5704e-08,0.00033338,0.037144,1
1605.3,54.3,19.924,0,-0.036856,0,1684,57.708,11.111,-0.00052005,1.5704e-08,0.00033338,0.037707,1
1605.3,54.3,19.924,0,-0.036856,0,1684,57.708,11.111,-0.00052005,1.5704e-08,0.00033338,0.037707,1
1605.3,54.3,19.924,0,-0.036856,0,1684,57.708,11.111,-0.00052005,1.5704e-08,0.00033338,0.037707,1
1605.3,54.3,19.924,0,-0.036856,0,1684,57.708,11.111,-0.00052005,1.5704e-08,0.00033338,0.037707,1
1605.3,54.3,19.924,0,-0.036856,0,1684,57.708,11.111,-0.00052005,1.5704e-08,0.00033338,0.037707,1
1605.3,54.3,19.924,0,-0.036856,0,1684,57.708,11.111,-0.00052005,1.5704e-08,0.00033338,0.037707,1
1605.3,54.3,19.924,0,-0.036856,0,1684,57.708,11.111,-0.00052005,1.5704e-08,0.00033338,0.037707,1
1605.3,54.3,19.924,0,-0.036856,0,1684,57.708,11.111,-0.00052005,1.5704e-08,0.00033338,0.037707,1
1605.3,54.3,19.924,0,-0.036856,0,1684.4,57.708,11.111,-0.00050182,2.142e-08,0.00046987,0.037496,1
1605.3,54.3,19.924,0,-0.036856,0,1684.4,57.708,11.111,-0.00050182,2.142e-08,0.00046987,0.037496,1
1607.3,54.3,19.92,0,-0.03711,0,1684.7,57.708,11.111,-0.00049104,2.3438e-08,0.00052474,0.038351,1
1607.3,54.3,19.92,0,-0.03711,0,1684.7,57.708,11.111,-0.00049104,2.3438e-08,0.00052474,0.038351,1
1608.5,54.3,19.918,0,-0.037264,0,1685.6,57.707,11.111,-0.00044033,2.6983e-08,0.00067066,0.038503,1
1608.5,54.3,19.918,0,-0.037264,0,1686.2,57.707,11.111,-0.0003977,2.6202e-08,0.00071903,0.038174,1
1609.3,54.3,19.916,0,-0.037365,0,1686.2,57.707,11.111,-0.0003977,2.6202e-08,0.00071903,0.038568,1
1609.3,54.3,19.916,0,-0.037365,0,1686.2,57.707,11.111,-0.0003977,2.6202e-08,0.00071903,0.038568,1
1609.3,54.3,19.916,0,-0.037365,0,1686.2,57.707,11.111,-0.0003977,2.6202e-08,0.00071903,0.038568,1
1609.3,54.3,19.916,0,-0.037365,0,1686.2,57.707,11.111,-0.0003977,2.6202e-08,0.00071903,0.038568,1
1609.7,54.3,19.916,0,-0.037415,0,1686.2,57.707,11.111,-0.0003977,2.6202e-08,0.00071903,0.038768,1
1609.7,54.3,19.916,0,-0.037415,0,1686.2,57.707,11.111,-0.0003977,2.6202e-08,0.00071903,0.038768,1
1609.7,54.3,19.916,0,-0.037415,0,1686.2,57.707,11.111,-0.0003977,2.6202e-08,0.00071903,0.038768,1
1609.7,54.3,19.916,0,-0.037415,0,1686.2,57.707,11.111,-0.0003977,2.6202e-08,0.00071903,0.038768,1
1609.7,54.3,19.916,0,-0.037415,0,1686.2,57.707,11.111,-0.0003977,2.6202e-08,0.00071903,0.038768,1
1609.7,54.3,19.916,0,-0.037415,0,1686.2,57.707,11.111,-0.0003977,2.6202e-08,0.00071903,0.038768,1
1609.7,54.3,19.916,0,-0.037415,0,1686.2,57.707,11.111,-0.0003977,2.6202e-08,0.00071903,0.038768,1
1609.7,54.3,19.916,0,-0.037415,0,1686.9,57.707,11.111,-0.00035393,2.3718e-08,0.00072956,0.038434,1
1609.7,54.3,19.916,0,-0.037415,0,1686.9,57.707,11.111,-0.00035393,2.3718e-08,0.00072956,0.038434,1
1609.7,54.3,19.916,0,-0.037415,0,1686.9,57.707,11.111,-0.00035393,2.3718e-08,0.00072956,0.038434,1
1609.7,54.3,19.916,0,-0.037415,0,1686.9,57.707,11.111,-0.00035393,2.3718e-08,0.00072956,0.038434,1
1609.7,54.3,19.916,0,-0.037415,0,1686.9,57.707,11.111,-0.00035393,2.3718e-08,0.00072956,0.038434,1
1609.7,54.3,19.916,0,-0.037415,0,1687.1,57.707,11.111,-0.00033941,2.2668e-08,0.00072653,0.038324,1
1610.9,54.3,19.913,0,-0.037563,0,1687.1,57.707,11.111,-0.00033941,2.2668e-08,0.00072653,0.038923,1
1612.1,54.3,19.911,0,-0.037711,0,1687.6,57.707,11.111,-0.0003108,2.0393e-08,0.0007127,0.039309,1
1612.1,54.3,19.911,0,-0.037711,0,1687.6,57.707,11.111,-0.0003108,2.0393e-08,0.0007127,0.039309,1
1612.9,54.3,19.91,0,-0.037809,0,1688.2,57.707,11.111,-0.00026958,1.6833e-08,0.00067681,0.039376,1
1612.9,54.3,19.91,0,-0.037809,0,1688.2,57.707,11.111,-0.00026958,1.6833e-08,0.00067681,0.039376,1
1612.9,54.3,19.91,0,-0.037809,0,1688.2,57.707,11.111,-0.00026958,1.6833e-08,0.00067681,0.039376,1
1612.9,54.3,19.91,0,-0.037809,0,1688.9,57.707,11.111,-0.0002311,1.3428e-08,0.00062852,0.039032,1
1612.9,54.3,19.91,0,-0.037809,0,1688.9,57.707,11.111,-0.0002311,1.3428e-08,0.00062852,0.039032,1
1612.9,54.3,19.91,0,-0.037809,0,1688.9,57.707,11.111,-0.0002311,1.3428e-08,0.00062852,0.039032,1
1612.9,54.3,19.91,0,-0.037809,0,1688.9,57.707,11.111,-0.0002311,1.3428e-08,0.00062852,0.039032,1
1612.9,54.3,19.91,0,-0.037809,0,1688.9,57.707,11.111,-0.0002311,1.3428e-08,0.00062852,0.039032,1
1612.9,54.3,19.91,0,-0.037809,0,1688.9,57.707,11.111,-0.0002311,1.3428e-08,0.00062852,0.039032,1
1612.9,54.3,19.91,0,-0.037809,0,1688.9,57.707,11.111,-0.0002311,1.3428e-08,0.00062852,0.039032,1
1612.9,54.3,19.91,0,-0.037809,0,1688.9,57.707,11.111,-0.0002311,1.3428e-08,0.00062852,0.039032,1
1614.1,54.3,19.907,0,-0.037955,0,1688.9,57.707,11.111,-0.0002311,1.3428e-08,0.00062852,0.039653,1
1614.1,54.3,19.907,0,-0.037955,0,1688.9,57.707,11.111,-0.0002311,1.3428e-08,0.00062852,0.039653,1
1614.1,54.3,19.907,0,-0.037955,0,1688.9,57.707,11.111,-0.0002311,1.3428e-08,0.00062852,0.039653,1
1614.1,54.3,19.907,0,-0.037955,0,1688.9,57.707,11.111,-0.0002311,1.3428e-08,0.00062852,0.039653,1
1614.1,54.3,19.907,0,-0.037955,0,1688.9,57.707,11.111,-0.0002311,1.3428e-08,0.00062852,0.039653,1
1614.1,54.3,19.907,0,-0.037955,0,1688.9,57.707,11.111,-0.0002311,1.3428e-08,0.00062852,0.039653,1
1614.1,54.3,19.907,0,-0.037955,0,1688.9,57.707,11.111,-0.0002311,1.3428e-08,0.00062852,0.039653,1
1614.5,54.3,19.907,0,-0.038004,0,1688.9,57.707,11.111,-0.0002311,1.3428e-08,0.00062852,0.039865,1
1614.5,54.3,19.907,0,-0.038004,0,1689.6,57.707,11.111,-0.00019586,1.0396e-08,0.00057299,0.039512,1
1614.5,54.3,19.907,0,-0.038004,0,1689.6,57.707,11.111,-0.00019586,1.0396e-08,0.00057299,0.039512,1
1615.7,54.3,19.904,0,-0.038149,0,1689.6,57.707,11.111,-0.00019586,1.0396e-08,0.00057299,0.040149,1
1615.7,54.3,19.904,0,-0.038149,0,1690.4,57.707,11.111,-0.00015433,7.0857e-09,0.0004943,0.039673,1
1617.7,54.3,19.9,0,-0.038391,0,1690.9,57.707,11.111,-0.00013594,5.7514e-09,0.00045486,0.040507,1
1617.7,54.3,19.9,0,-0.038391,0,1691.3,57.707,11.111,-0.00011911,4.6172e-09,0.00041618,0.040264,1
1618.5,54.3,19.899,0,-0.038486,0,1691.3,57.707,11.111,-0.00011911,4.6172e-09,0.00041618,0.040702,1
1618.5,54.3,19.899,0,-0.038486,0,1691.3,57.707,11.111,-0.00011911,4.6172e-09,0.00041618,0.040702,1
1618.5,54.3,19.899,0,-0.038486,0,1691.3,57.707,11.111,-0.00011911,4.6172e-09,0.00041618,0.040702,1
1618.5,54.3,19.899,0,-0.038486,0,1691.3,57.707,11.111,-0.00011911,4.6172e-09,0.00041618,0.040702,1
1618.5,54.3,19.899,0,-0.038486,0,1691.3,57.707,11.111,-0.00011911,4.6172e-09,0.00041618,0.040702,1
1618.5,54.3,19.899,0,-0.038486,0,1691.3,57.707,11.111,-0.00011911,4.6172e-09,0.00041618,0.040702,1
1618.5,54.3,19.899,0,-0.038486,0,1691.3,57.707,11.111,-0.00011911,4.6172e-09,0.00041618,0.040702,1
1618.9,54.3,19.898,0,-0.038533,0,1691.3,57.707,11.111,-0.00011911,4.6172e-09,0.00041618,0.040925,1
1618.9,54.3,19.898,0,-0.038533,0,1691.3,57.707,11.111,-0.00011911,4.6172e-09,0.00041618,0.040925,1
1618.9,54.3,19.898,0,-0.038533,0,1691.3,57.707,11.111,-0.00011911,4.6172e-09,0.00041618,0.040925,1
1618.9,54.3,19.898,0,-0.038533,0,1691.3,57.707,11.111,-0.00011911,4.6172e-09,0.00041618,0.040925,1
1618.9,54.3,19.898,0,-0.038533,0,1691.3,57.707,11.111,-0.00011911,4.6172e-09,0.00041618,0.040925,1
1618.9,54.3,19.898,0,-0.038533,0,1691.3,57.707,11.111,-0.00011911,4.6172e-09,0.00041618,0.040925,1
1618.9,54.3,19.898,0,-0.038533,0,1691.3,57.707,11.111,-0.00011911,4.6172e-09,0.00041618,0.040925,1
1618.9,54.3,19.898,0,-0.038533,0,1691.3,57.707,11.111,-0.00011911,4.6172e-09,0.00041618,0.040925,1
1618.9,54.3,19.898,0,-0.038533,0,1691.3,57.707,11.111,-0.00011911,4.6172e-09,0.00041618,0.040925,1
1618.9,54.3,19.898,0,-0.038533,0,1692,57.707,11.111,-9.6655e-05,3.2536e-09,0.00036057,0.040553,1
1618.9,54.3,19.898,0,-0.038533,0,1692,57.707,11.111,-9.6655e-05,3.2536e-09,0.00036057,0.040553,1
1618.9,54.3,19.898,0,-0.038533,0,1692,57.707,11.111,-9.6655e-05,3.2536e-09,0.00036057,0.040553,1
1618.9,54.3,19.898,0,-0.038533,0,1692,57.707,11.111,-9.6655e-05,3.2536e-09,0.00036057,0.040553,1
1620,54.3,19.896,0,-0.038676,0,1692,57.707,11.111,-9.6655e-05,3.2536e-09,0.00036057,0.041224,1
1620.8,54.3,19.894,0,-0.03877,0,1692.7,57.707,11.111,-7.7374e-05,2.2358e-09,0.00030875,0.041297,1
1622.4,54.3,19.891,0,-0.038957,0,1693.3,57.707,11.111,-6.1002e-05,1.4966e-09,0.00026139,0.041834,1
1622.4,54.3,19.891,0,-0.038957,0,1693.3,57.707,11.111,-6.1002e-05,1.4966e-09,0.00026139,0.041834,1
1623.2,54.3,19.89,0,-0.03905,0,1694,57.707,11.111,-4.726e-05,9.7367e-10,0.00021879,0.04191,1
1623.2,54.3,19.89,0,-0.03905,0,1694,57.707,11.111,-4.726e-05,9.7367e-10,0.00021879,0.04191,1
1623.2,54.3,19.89,0,-0.03905,0,1694,57.707,11.111,-4.726e-05,9.7367e-10,0.00021879,0.04191,1
1623.2,54.3,19.89,0,-0.03905,0,1694,57.707,11.111,-4.726e-05,9.7367e-10,0.00021879,0.04191,1
1623.2,54.3,19.89,0,-0.03905,0,1694,57.707,11.111,-4.726e-05,9.7367e-10,0.00021879,0.04191,1
1623.2,54.3,19.89,0,-0.03905,0,1694,57.707,11.111,-4.726e-05,9.7367e-10,0.00021879,0.04191,1
1623.2,54.3,19.89,0,-0.03905,0,1694,57.707,11.111,-4.726e-05,9.7367e-10,0.00021879,0.04191,1
1623.2,54.3,19.89,0,-0.03905,0,1694.4,57.707,11.111,-3.9415e-05,7.1846e-10,0.00019308,0.04165,1
1623.2,54.3,19.89,0,-0.03905,0,1694.4,57.707,11.111,-3.9415e-05,7.1846e-10,0.00019308,0.04165,1
1623.2,54.3,19.89,0,-0.03905,0,1694.4,57.707,11.111,-3.9415e-05,7.1846e-10,0.00019308,0.04165,1
1623.2,54.3,19.89,0,-0.03905,0,1694.4,57.707,11.111,-3.9415e-05,7.1846e-10,0.00019308,0.04165,1
1623.2,54.3,19.89,0,-0.03905,0,1694.4,57.707,11.111,-3.9415e-05,7.1846e-10,0.00019308,0.04165,1
1623.2,54.3,19.89,0,-0.03905,0,1694.4,57.707,11.111,-3.9415e-05,7.1846e-10,0.00019308,0.04165,1
1624,54.3,19.888,0,-0.039141,0,1694.4,57.707,11.111,-3.9415e-05,7.1846e-10,0.00019308,0.042118,1
1624,54.3,19.888,0,-0.039141,0,1694.4,57.707,11.111,-3.9415e-05,7.1846e-10,0.00019308,0.042118,1
1624,54.3,19.888,0,-0.039141,0,1694.4,57.707,11.111,-3.9415e-05,7.1846e-10,0.00019308,0.042118,1
1624,54.3,19.888,0,-0.039141,0,1694.4,57.707,11.111,-3.9415e-05,7.1846e-10,0.00019308,0.042118,1
1624,54.3,19.888,0,-0.039141,0,1694.4,57.707,11.111,-3.9415e-05,7.1846e-10,0.00019308,0.042118,1
1624,54.3,19.888,0,-0.039141,0,1694.4,57.707,11.111,-3.9415e-05,7.1846e-10,0.00019308,0.042118,1
1624,54.3,19.888,0,-0.039141,0,1694.4,57.707,11.111,-3.9415e-05,7.1846e-10,0.00019308,0.042118,1
1624.4,54.3,19.887,0,-0.039186,0,1694.4,57.707,11.111,-3.9415e-05,7.1846e-10,0.00019308,0.042357,1
1625.6,54.3,19.885,0,-0.039323,0,1695.3,57.707,11.111,-2.6504e-05,3.7266e-10,0.00014797,0.042541,1
1626.8,54.3,19.883,0,-0.039457,0,1696,57.707,11.111,-1.8933e-05,2.1627e-10,0.00011939,0.042863,1
1628,54.3,19.88,0,-0.03959,0,1696.4,57.707,11.111,-1.4748e-05,1.4577e-10,0.00010267,0.04333,1
1628,54.3,19.88,0,-0.03959,0,1696.4,57.707,11.111,-1.4748e-05,1.4577e-10,0.00010267,0.04333,1
1628,54.3,19.88,0,-0.03959,0,1696.4,57.707,11.111,-1.4748e-05,1.4577e-10,0.00010267,0.04333,1
1628,54.3,19.88,0,-0.03959,0,1696.4,57.707,11.111,-1.4748e-05,1.4577e-10,0.00010267,0.04333,1
1628,54.3,19.88,0,-0.03959,0,1696.4,57.707,11.111,-1.4748e-05,1.4577e-10,0.00010267,0.04333,1
1628,54.3,19.88,0,-0.03959,0,1696.4,57.707,11.111,-1.4748e-05,1.4577e-10,0.00010267,0.04333,1
1628,54.3,19.88,0,-0.03959,0,1696.4,57.707,11.111,-1.4748e-05,1.4577e-10,0.00010267,0.04333,1
1628.4,54.3,19.879,0,-0.039636,0,1696.4,57.707,11.111,-1.4748e-05,1.4577e-10,0.00010267,0.043582,1
1628.4,54.3,19.879,0,-0.039636,0,1696.4,57.707,11.111,-1.4748e-05,1.4577e-10,0.00010267,0.043582,1
1628.4,54.3,19.879,0,-0.039636,0,1696.4,57.707,11.111,-1.4748e-05,1.4577e-10,0.00010267,0.043582,1
1628.4,54.3,19.879,0,-0.039636,0,1696.4,57.707,11.111,-1.4748e-05,1.4577e-10,0.00010267,0.043582,1
1628.4,54.3,19.879,0,-0.039636,0,1696.4,57.707,11.111,-1.4748e-05,1.4577e-10,0.00010267,0.043582,1
1628.4,54.3,19.879,0,-0.039636,0,1696.4,57.707,11.111,-1.4748e-05,1.4577e-10,0.00010267,0.043582,1
1628.4,54.3,19.879,0,-0.039636,0,1696.4,57.707,11.111,-1.4748e-05,1.4577e-10,0.00010267,0.043582,1
1628.4,54.3,19.879,0,-0.039636,0,1696.4,57.707,11.111,-1.4748e-05,1.4577e-10,0.00010267,0.043582,1
1628.4,54.3,19.879,0,-0.039636,0,1696.4,57.707,11.111,-1.4748e-05,1.4577e-10,0.00010267,0.043582,1
1628.4,54.3,19.879,0,-0.039636,0,1696.4,57.707,11.111,-1.4748e-05,1.4577e-10,0.00010267,0.043582,1
1628.4,54.3,19.879,0,-0.039636,0,1697.3,57.707,11.111,-8.1347e-06,5.9401e-11,7.4341e-05,0.043022,1
1628.4,54.3,19.879,0,-0.039636,0,1697.3,57.707,11.111,-8.1347e-06,5.9401e-11,7.4341e-05,0.043022,1
1628.4,54.3,19.879,0,-0.039636,0,1697.3,57.707,11.111,-8.1347e-06,5.9401e-11,7.4341e-05,0.043022,1
1629.2,54.3,19.878,0,-0.039726,0,1697.3,57.707,11.111,-8.1347e-06,5.9401e-11,7.4341e-05,0.043523,1
1630.4,54.3,19.875,0,-0.039858,0,1698,57.707,11.111,-4.4653e-06,2.5885e-11,5.7106e-05,0.04386,1
1630.4,54.3,19.875,0,-0.039858,0,1698.7,57.707,11.111,-1.693e-06,8.1875e-12,4.2876e-05,0.043433,1
1632,54.3,19.872,0,-0.040032,0,1698.7,57.707,11.111,-1.693e-06,8.1875e-12,4.2876e-05,0.044464,1
1632,54.3,19.872,0,-0.040032,0,1699.3,57.707,11.111,3.4547e-07,-9.2213e-14,3.127e-05,0.044026,1
1632,54.3,19.872,0,-0.040032,0,1699.6,57.707,11.111,8.8685e-07,-1.5269e-12,2.7921e-05,0.043882,1
1632,54.3,19.872,0,-0.040032,0,1699.6,57.707,11.111,8.8685e-07,-1.5269e-12,2.7921e-05,0.043882,1
1632,54.3,19.872,0,-0.040032,0,1699.6,57.707,11.111,8.8685e-07,-1.5269e-12,2.7921e-05,0.043882,1
1632,54.3,19.872,0,-0.040032,0,1699.6,57.707,11.111,8.8685e-07,-1.5269e-12,2.7921e-05,0.043882,1
1632,54.3,19.872,0,-0.040032,0,1699.6,57.707,11.111,8.8685e-07,-1.5269e-12,2.7921e-05,0.043882,1
1632,54.3,19.872,0,-0.040032,0,1699.6,57.707,11.111,8.8685e-07,-1.5269e-12,2.7921e-05,0.043882,1
1632,54.3,19.872,0,-0.040032,0,1699.6,57.707,11.111,8.8685e-07,-1.5269e-12,2.7921e-05,0.043882,1
1633.2,54.3,19.87,0,-0.040161,0,1699.6,57.707,11.111,8.8685e-07,-1.5269e-12,2.7921e-05,0.044667,1
1633.2,54.3,19.87,0,-0.040161,0,1699.6,57.707,11.111,8.8685e-07,-1.5269e-12,2.7921e-05,0.044667,1
1633.2,54.3,19.87,0,-0.040161,0,1699.6,57.707,11.111,8.8685e-07,-1.5269e-12,2.7921e-05,0.044667,1
1633.2,54.3,19.87,0,-0.040161,0,1699.6,57.707,11.111,8.8685e-07,-1.5269e-12,2.7921e-05,0.044667,1
1633.2,54.3,19.87,0,-0.040161,0,1699.6,57.707,11.111,8.8685e-07,-1.5269e-12,2.7921e-05,0.044667,1
1633.2,54.3,19.87,0,-0.040161,0,1699.6,57.707,11.111,8.8685e-07,-1.5269e-12,2.7921e-05,0.044667,1
1633.2,54.3,19.87,0,-0.040161,0,1699.6,57.707,11.111,8.8685e-07,-1.5269e-12,2.7921e-05,0.044667,1
1633.2,54.3,19.87,0,-0.040161,0,1699.6,57.707,11.111,8.8685e-07,-1.5269e-12,2.7921e-05,0.044667,1
1633.2,54.3,19.87,0,-0.040161,0,1700,57.707,11.111,1.7911e-06,-3.102e-12,2.1928e-05,0.044371,1
1633.2,54.3,19.87,0,-0.040161,0,1700,57.707,11.111,1.7911e-06,-3.102e-12,2.1928e-05,0.044371,1
1633.2,54.3,19.87,0,-0.040161,0,1700.2,57.707,11.111,2.1626e-06,-3.4146e-12,1.9258e-05,0.044224,1
1634.8,54.3,19.867,0,-0.040334,0,1700.2,57.707,11.111,2.1626e-06,-3.4146e-12,1.9258e-05,0.045294,1
1635.9,54.3,19.864,0,-0.040462,0,1700.9,57.707,11.111,3.0023e-06,-3.2175e-12,1.2421e-05,0.045658,1
1635.9,54.3,19.864,0,-0.040462,0,1701.6,57.707,11.111,3.5022e-06,-2.1981e-12,7.1185e-06,0.045196,1
1636.7,54.3,19.863,0,-0.040545,0,1701.6,57.707,11.111,3.5022e-06,-2.1981e-12,7.1185e-06,0.045748,1
1637.1,54.3,19.862,0,-0.040589,0,1701.6,57.707,11.111,3.5022e-06,-2.1981e-12,7.1185e-06,0.046029,1
1637.1,54.3,19.862,0,-0.040589,0,1701.6,57.707,11.111,3.5022e-06,-2.1981e-12,7.1185e-06,0.046029,1
1637.1,54.3,19.862,0,-0.040589,0,1701.6,57.707,11.111,3.5022e-06,-2.1981e-12,7.1185e-06,0.046029,1
1637.1,54.3,19.862,0,-0.040589,0,1701.6,57.707,11.111,3.5022e-06,-2.1981e-12,7.1185e-06,0.046029,1
1637.1,54.3,19.862,0,-0.040589,0,1701.6,57.707,11.111,3.5022e-06,-2.1981e-12,7.1185e-06,0.046029,1
1637.1,54.3,19.862,0,-0.040589,0,1701.6,57.707,11.111,3.5022e-06,-2.1981e-12,7.1185e-06,0.046029,1
1637.1,54.3,19.862,0,-0.040589,0,1701.6,57.707,11.111,3.5022e-06,-2.1981e-12,7.1185e-06,0.046029,1
1637.1,54.3,19.862,0,-0.040589,0,1701.6,57.707,11.111,3.5022e-06,-2.1981e-12,7.1185e-06,0.046029,1
1637.1,54.3,19.862,0,-0.040589,0,1702.2,57.707,11.111,3.7424e-06,-1.0321e-12,3.0898e-06,0.04556,1
1637.1,54.3,19.862,0,-0.040589,0,1702.2,57.707,11.111,3.7424e-06,-1.0321e-12,3.0898e-06,0.04556,1
1637.1,54.3,19.862,0,-0.040589,0,1702.2,57.707,11.111,3.7424e-06,-1.0321e-12,3.0898e-06,0.04556,1
1637.1,54.3,19.862,0,-0.040589,0,1702.2,57.707,11.111,3.7424e-06,-1.0321e-12,3.0898e-06,0.04556,1
1637.1,54.3,19.862,0,-0.040589,0,1702.2,57.707,11.111,3.7424e-06,-1.0321e-12,3.0898e-06,0.04556,1
1637.1,54.3,19.862,0,-0.040589,0,1702.2,57.707,11.111,3.7424e-06,-1.0321e-12,3.0898e-06,0.04556,1
1637.9,54.3,19.86,0,-0.040673,0,1702.2,57.707,11.111,3.7424e-06,-1.0321e-12,3.0898e-06,0.04612,1
1637.9,54.3,19.86,0,-0.040673,0,1702.2,57.707,11.111,3.7424e-06,-1.0321e-12,3.0898e-06,0.04612,1
1638.3,54.3,19.859,0,-0.040714,0,1702.2,57.707,11.111,3.7424e-06,-1.0321e-12,3.0898e-06,0.046405,1
1639.5,54.3,19.857,0,-0.040838,0,1703.1,57.707,11.111,3.7711e-06,2.3483e-13,-6.9065e-07,0.046625,1
1639.5,54.3,19.857,0,-0.040838,0,1703.1,57.707,11.111,3.7711e-06,2.3483e-13,-6.9065e-07,0.046625,1
1640.7,54.3,19.854,0,-0.040961,0,1703.6,57.707,11.111,3.6956e-06,6.7875e-13,-2.0296e-06,0.047177,1
1640.7,54.3,19.854,0,-0.040961,0,1703.6,57.707,11.111,3.6956e-06,6.7875e-13,-2.0296e-06,0.047177,1
1641.1,54.3,19.854,0,-0.041001,0,1703.6,57.707,11.111,3.6956e-06,6.7875e-13,-2.0296e-06,0.047475,1
1641.1,54.3,19.854,0,-0.041001,0,1703.6,57.707,11.111,3.6956e-06,6.7875e-13,-2.0296e-06,0.047475,1
1641.1,54.3,19.854,0,-0.041001,0,1703.6,57.707,11.111,3.6956e-06,6.7875e-13,-2.0296e-06,0.047475,1
1641.1,54.3,19.854,0,-0.041001,0,1703.6,57.707,11.111,3.6956e-06,6.7875e-13,-2.0296e-06,0.047475,1
1641.1,54.3,19.854,0,-0.041001,0,1703.6,57.707,11.111,3.6956e-06,6.7875e-13,-2.0296e-06,0.047475,1
1641.1,54.3,19.854,0,-0.041001,0,1703.6,57.707,11.111,3.6956e-06,6.7875e-13,-2.0296e-06,0.047475,1
1641.1,54.3,19.854,0,-0.041001,0,1703.6,57.707,11.111,3.6956e-06,6.7875e-13,-2.0296e-06,0.047475,1
1641.1,54.3,19.854,0,-0.041001,0,1704.4,57.707,11.111,3.4263e-06,1.2007e-12,-3.8503e-06,0.046812,1
1641.1,54.3,19.854,0,-0.041001,0,1704.4,57.707,11.111,3.4263e-06,1.2007e-12,-3.8503e-06,0.046812,1
1641.1,54.3,19.854,0,-0.041001,0,1704.4,57.707,11.111,3.4263e-06,1.2007e-12,-3.8503e-06,0.046812,1
1641.1,54.3,19.854,0,-0.041001,0,1704.4,57.707,11.111,3.4263e-06,1.2007e-12,-3.8503e-06,0.046812,1
1641.1,54.3,19.854,0,-0.041001,0,1704.4,57.707,11.111,3.4263e-06,1.2007e-12,-3.8503e-06,0.046812,1
1641.1,54.3,19.854,0,-0.041001,0,1704.4,57.707,11.111,3.4263e-06,1.2007e-12,-3.8503e-06,0.046812,1
1641.9,54.3,19.852,0,-0.041082,0,1704.4,57.707,11.111,3.4263e-06,1.2007e-12,-3.8503e-06,0.047404,1
1641.9,54.3,19.852,0,-0.041082,0,1704.4,57.707,11.111,3.4263e-06,1.2007e-12,-3.8503e-06,0.047404,1
1641.9,54.3,19.852,0,-0.041082,0,1704.4,57.707,11.111,3.4263e-06,1.2007e-12,-3.8503e-06,0.047404,1
1643.1,54.3,19.849,0,-0.041202,0,1704.9,57.707,11.111,3.2519e-06,1.3097e-12,-4.4152e-06,0.047974,1
1643.9,54.3,19.848,0,-0.041282,0,1705.6,57.707,11.111,2.9621e-06,1.3361e-12,-4.9298e-06,0.048072,1
1643.9,54.3,19.848,0,-0.041282,0,1705.6,57.707,11.111,2.9621e-06,1.3361e-12,-4.9298e-06,0.048072,1
1643.9,54.3,19.848,0,-0.041282,0,1706.2,57.707,11.111,2.6559e-06,1.2506e-12,-5.1328e-06,0.047561,1
1645.1,54.3,19.845,0,-0.041401,0,1706.2,57.707,11.111,2.6559e-06,1.2506e-12,-5.1328e-06,0.048483,1
1645.1,54.3,19.845,0,-0.041401,0,1706.2,57.707,11.111,2.6559e-06,1.2506e-12,-5.1328e-06,0.048483,1
1645.1,54.3,19.845,0,-0.041401,0,1706.2,57.707,11.111,2.6559e-06,1.2506e-12,-5.1328e-06,0.048483,1
1645.1,54.3,19.845,0,-0.041401,0,1706.2,57.707,11.111,2.6559e-06,1.2506e-12,-5.1328e-06,0.048483,1
1645.1,54.3,19.845,0,-0.041401,0,1706.2,57.707,11.111,2.6559e-06,1.2506e-12,-5.1328e-06,0.048483,1
1645.1,54.3,19.845,0,-0.041401,0,1706.2,57.707,11.111,2.6559e-06,1.2506e-12,-5.1328e-06,0.048483,1
1645.1,54.3,19.845,0,-0.041401,0,1706.7,57.707,11.111,2.4502e-06,1.1564e-12,-5.1362e-06,0.048134,1
1645.1,54.3,19.845,0,-0.041401,0,1706.7,57.707,11.111,2.4502e-06,1.1564e-12,-5.1362e-06,0.048134,1
1645.1,54.3,19.845,0,-0.041401,0,1706.7,57.707,11.111,2.4502e-06,1.1564e-12,-5.1362e-06,0.048134,1
1645.1,54.3,19.845,0,-0.041401,0,1706.7,57.707,11.111,2.4502e-06,1.1564e-12,-5.1362e-06,0.048134,1
1645.1,54.3,19.845,0,-0.041401,0,1706.7,57.707,11.111,2.4502e-06,1.1564e-12,-5.1362e-06,0.048134,1
1645.1,54.3,19.845,0,-0.041401,0,1706.7,57.707,11.111,2.4502e-06,1.1564e-12,-5.1362e-06,0.048134,1
1645.9,54.3,19.844,0,-0.041478,0,1706.7,57.707,11.111,2.4502e-06,1.1564e-12,-5.1362e-06,0.04876,1
1645.9,54.3,19.844,0,-0.041478,0,1706.7,57.707,11.111,2.4502e-06,1.1564e-12,-5.1362e-06,0.04876,1
1645.9,54.3,19.844,0,-0.041478,0,1706.7,57.707,11.111,2.4502e-06,1.1564e-12,-5.1362e-06,0.04876,1
1645.9,54.3,19.844,0,-0.041478,0,1706.7,57.707,11.111,2.4502e-06,1.1564e-12,-5.1362e-06,0.04876,1
1645.9,54.3,19.844,0,-0.041478,0,1706.7,57.707,11.111,2.4502e-06,1.1564e-12,-5.1362e-06,0.04876,1
1645.9,54.3,19.844,0,-0.041478,0,1706.7,57.707,11.111,2.4502e-06,1.1564e-12,-5.1362e-06,0.04876,1
1647.1,54.3,19.841,0,-0.041595,0,1707.1,57.707,11.111,2.2472e-06,1.0461e-12,-5.0583e-06,0.049363,1
1647.9,54.3,19.84,0,-0.041671,0,1707.8,57.707,11.111,1.9536e-06,8.6958e-13,-4.8266e-06,0.049467,1
1648.7,54.3,19.838,0,-0.041748,0,1708.2,57.707,11.111,1.7678e-06,7.5367e-13,-4.6166e-06,0.049755,1
1648.7,54.3,19.838,0,-0.041748,0,1708.9,57.707,11.111,1.5071e-06,5.924e-13,-4.2477e-06,0.049207,1
1648.7,54.3,19.838,0,-0.041748,0,1709.1,57.707,11.111,-0.00018056,-7.2549e-08,-0.0080799,0.049027,1
1648.7,54.3,19.838,0,-0.041748,0,1709.1,57.707,11.111,-0.00018056,-7.2549e-08,-0.0080799,0.049027,1
1648.7,54.3,19.838,0,-0.041748,0,1709.1,57.707,11.111,-0.00018056,-7.2549e-08,-0.0080799,0.049027,1
1648.7,54.3,19.838,0,-0.041748,0,1709.1,57.707,11.111,-0.00018056,-7.2549e-08,-0.0080799,0.049027,1
1648.7,54.3,19.838,0,-0.041748,0,1709.1,57.707,11.111,-0.00018056,-7.2549e-08,-0.0080799,0.049027,1
1648.7,54.3,19.838,0,-0.041748,0,1709.1,57.707,11.111,-0.00018056,-7.2549e-08,-0.0080799,0.049027,1
1648.7,54.3,19.838,0,-0.041748,0,1709.1,57.707,11.111,-0.00018056,-7.2549e-08,-0.0080799,0.049027,1
1648.7,54.3,19.838,0,-0.041748,0,1709.1,57.707,11.111,-0.00018056,-7.2549e-08,-0.0080799,0.049027,1
1648.7,54.3,19.838,0,-0.041748,0,1709.1,57.707,11.111,-0.00018056,-7.2549e-08,-0.0080799,0.049027,1
1650.2,54.3,19.834,0,-0.0419,0,1709.1,57.707,11.111,-0.00018056,-7.2549e-08,-0.0080799,0.050342,1
1650.2,54.3,19.834,0,-0.0419,0,1709.1,57.707,11.111,-0.00018056,-7.2549e-08,-0.0080799,0.050342,1
1650.2,54.3,19.834,0,-0.0419,0,1709.1,57.707,11.111,-0.00018056,-7.2549e-08,-0.0080799,0.050342,1
1650.2,54.3,19.834,0,-0.0419,0,1709.1,57.707,11.111,-0.00018056,-7.2549e-08,-0.0080799,0.050342,1
1650.2,54.3,19.834,0,-0.0419,0,1709.1,57.707,11.111,-0.00018056,-7.2549e-08,-0.0080799,0.050342,1
1650.2,54.3,19.834,0,-0.0419,0,1709.1,57.707,11.111,-0.00018056,-7.2549e-08,-0.0080799,0.050342,1
1650.2,54.3,19.834,0,-0.0419,0,1709.1,57.707,11.111,-0.00018056,-7.2549e-08,-0.0080799,0.050342,1
1650.2,54.3,19.834,0,-0.0419,0,1709.1,57.707,11.111,-0.00018056,-7.2549e-08,-0.0080799,0.050342,1
1650.2,54.3,19.834,0,-0.0419,0,1709.1,57.707,11.111,-0.00018056,-7.2549e-08,-0.0080799,0.050342,1
1650.2,54.3,19.834,0,-0.0419,0,1709.1,57.707,11.111,-0.00018056,-7.2549e-08,-0.0080799,0.050342,1
1650.2,54.3,19.834,0,-0.0419,0,1709.6,57.707,11.111,-0.0024217,-1.0625e-05,-0.067644,0.049967,1
1650.2,54.3,19.834,0,-0.0419,0,1709.6,57.707,11.111,-0.0024217,-1.0625e-05,-0.067644,0.049967,1
1651.4,54.3,19.832,0,-0.042011,0,1709.6,57.707,11.111,-0.0024217,-1.0625e-05,-0.067644,0.050984,1
1651.4,54.3,19.832,0,-0.042011,0,1710.4,57.706,11.111,-0.020599,-0.00049705,-0.31684,0.05022,1
1651.4,54.3,19.832,0,-0.042011,0,1710.4,57.706,11.111,-0.020599,-0.00049705,-0.31684,0.05022,1
1653.4,54.3,19.828,0,-0.042196,0,1710.7,57.706,11.111,-0.028968,-0.00089583,-0.39841,0.051756,1
1654.6,54.3,19.825,0,-0.042305,0,1711.6,57.701,11.111,-0.08086,-0.0050648,-0.76911,0.052028,1
1654.6,54.3,19.825,0,-0.042305,0,1711.6,57.701,11.111,-0.08086,-0.0050648,-0.76911,0.052028,1
1654.6,54.3,19.825,0,-0.042305,0,1711.6,57.701,11.111,-0.08086,-0.0050648,-0.76911,0.052028,1
1654.6,54.3,19.825,0,-0.042305,0,1711.6,57.701,11.111,-0.08086,-0.0050648,-0.76911,0.052028,1
1654.6,54.3,19.825,0,-0.042305,0,1711.6,57.701,11.111,-0.08086,-0.0050648,-0.76911,0.052028,1
1654.6,54.3,19.825,0,-0.042305,0,1711.6,57.701,11.111,-0.08086,-0.0050648,-0.76911,0.052028,1
1655,54.3,19.824,0,-0.042341,0,1711.6,57.701,11.111,-0.08086,-0.0050648,-0.76911,0.05239,1
1655,54.3,19.824,0,-0.042341,0,1711.6,57.701,11.111,-0.08086,-0.0050648,-0.76911,0.05239,1
1655,54.3,19.824,0,-0.042341,0,1711.6,57.701,11.111,-0.08086,-0.0050648,-0.76911,0.05239,1
1655,54.3,19.824,0,-0.042341,0,1711.6,57.701,11.111,-0.08086,-0.0050648,-0.76911,0.05239,1
1655,54.3,19.824,0,-0.042341,0,1711.6,57.701,11.111,-0.08086,-0.0050648,-0.76911,0.05239,1
1655,54.3,19.824,0,-0.042341,0,1711.6,57.701,11.111,-0.08086,-0.0050648,-0.76911,0.05239,1
1655,54.3,19.824,0,-0.042341,0,1711.6,57.701,11.111,-0.08086,-0.0050648,-0.76911,0.05239,1
1655.4,54.3,19.824,0,-0.042378,0,1711.6,57.701,11.111,-0.08086,-0.0050648,-0.76911,0.052758,1
1655.4,54.3,19.824,0,-0.042378,0,1711.6,57.701,11.111,-0.08086,-0.0050648,-0.76911,0.052758,1
1655.4,54.3,19.824,0,-0.042378,0,1711.6,57.701,11.111,-0.08086,-0.0050648,-0.76911,0.052758,1
1655.8,54.3,19.823,0,-0.042414,0,1711.6,57.701,11.111,-0.08086,-0.0050648,-0.76911,0.053131,1
1655.8,54.3,19.823,0,-0.042414,0,1711.6,57.701,11.111,-0.08086,-0.0050648,-0.76911,0.053131,1
1655.8,54.3,19.823,0,-0.042414,0,1712.9,57.683,11.109,-0.21827,-0.025234,-1.3704,0.051894,1
1655.8,54.3,19.823,0,-0.042414,0,1712.9,57.683,11.109,-0.21827,-0.025234,-1.3704,0.051894,1
1655.8,54.3,19.823,0,-0.042414,0,1713.3,57.673,11.108,-0.27987,-0.037197,-1.5637,0.051493,1
1657.8,54.3,19.818,0,-0.042591,0,1713.3,57.673,11.108,-0.27987,-0.037197,-1.5637,0.053319,1
1657.8,54.3,19.818,0,-0.042591,0,1713.3,57.673,11.108,-0.27987,-0.037197,-1.5637,0.053319,1
1657.8,54.3,19.818,0,-0.042591,0,1713.3,57.673,11.108,-0.27987,-0.037197,-1.5637,0.053319,1
1657.8,54.3,19.818,0,-0.042591,0,1714,57.653,11.104,-0.38605,-0.060778,-1.8356,0.052685,1
1657.8,54.3,19.818,0,-0.042591,0,1714.2,57.645,11.103,-0.42489,-0.07016,-1.9203,0.052475,1
1657.8,54.3,19.818,0,-0.042591,0,1714.4,57.635,11.101,-0.46533,-0.080287,-2.0016,0.052267,1
1657.8,54.3,19.818,0,-0.042591,0,1714.4,57.635,11.101,-0.46533,-0.080287,-2.0016,0.052267,1
1659.8,54.3,19.814,0,-0.042766,0,1714.4,57.635,11.101,-0.46533,-0.080287,-2.0016,0.054151,1
1659.8,54.3,19.814,0,-0.042766,0,1714.9,57.615,11.097,-0.55076,-0.10269,-2.1535,0.053708,1
1659.8,54.3,19.814,0,-0.042766,0,1714.9,57.615,11.097,-0.55076,-0.10269,-2.1535,0.053708,1
1659.8,54.3,19.814,0,-0.042766,0,1714.9,57.615,11.097,-0.55076,-0.10269,-2.1535,0.053708,1
1659.8,54.3,19.814,0,-0.042766,0,1714.9,57.615,11.097,-0.55076,-0.10269,-2.1535,0.053708,1
1659.8,54.3,19.814,0,-0.042766,0,1714.9,57.615,11.097,-0.55076,-0.10269,-2.1535,0.053708,1
1659.8,54.3,19.814,0,-0.042766,0,1714.9,57.615,11.097,-0.55076,-0.10269,-2.1535,0.053708,1
1659.8,54.3,19.814,0,-0.042766,0,1714.9,57.615,11.097,-0.55076,-0.10269,-2.1535,0.053708,1
1659.8,54.3,19.814,0,-0.042766,0,1715.1,57.603,11.095,-0.5956,-0.11491,-2.2238,0.053489,1
1659.8,54.3,19.814,0,-0.042766,0,1715.1,57.603,11.095,-0.5956,-0.11491,-2.2238,0.053489,1
1659.8,54.3,19.814,0,-0.042766,0,1715.3,57.59,11.093,-0.64174,-0.12775,-2.2901,0.053271,1
1659.8,54.3,19.814,0,-0.042766,0,1715.3,57.59,11.093,-0.64174,-0.12775,-2.2901,0.053271,1
1659.8,54.3,19.814,0,-0.042766,0,1715.3,57.59,11.093,-0.64174,-0.12775,-2.2901,0.053271,1
1659.8,54.3,19.814,0,-0.042766,0,1715.3,57.59,11.093,-0.64174,-0.12775,-2.2901,0.053271,1
1659.8,54.3,19.814,0,-0.042766,0,1715.3,57.59,11.093,-0.64174,-0.12775,-2.2901,0.053271,1
1659.8,54.3,19.814,0,-0.042766,0,1715.3,57.59,11.093,-0.64174,-0.12775,-2.2901,0.053271,1
1659.8,54.3,19.814,0,-0.042766,0,1715.3,57.59,11.093,-0.64174,-0.12775,-2.2901,0.053271,1
1661.3,54.3,19.811,0,-0.042903,0,1715.3,57.59,11.093,-0.64174,-0.12775,-2.2901,0.054826,1
1661.3,54.3,19.811,0,-0.042903,0,1716.2,57.53,11.08,-0.83776,-0.18443,-2.515,0.053915,1
1661.3,54.3,19.811,0,-0.042903,0,1716.2,57.53,11.08,-0.83776,-0.18443,-2.515,0.053915,1
1661.3,54.3,19.811,0,-0.042903,0,1716.2,57.53,11.08,-0.83776,-0.18443,-2.515,0.053915,1
1661.3,54.3,19.811,0,-0.042903,0,1716.2,57.53,11.08,-0.83776,-0.18443,-2.515,0.053915,1
1661.3,54.3,19.811,0,-0.042903,0,1716.4,57.513,11.076,-0.88922,-0.19965,-2.5609,0.05369,1
1661.3,54.3,19.811,0,-0.042903,0,1716.4,57.513,11.076,-0.88922,-0.19965,-2.5609,0.05369,1
1663.3,54.3,19.806,0,-0.043073,0,1716.4,57.513,11.076,-0.88922,-0.19965,-2.5609,0.055681,1
1664.5,54.3,19.804,0,-0.043174,0,1717.1,57.454,11.062,-1.0481,-0.24684,-2.6739,0.0562,1
1664.5,54.3,19.804,0,-0.043174,0,1717.1,57.454,11.062,-1.0481,-0.24684,-2.6739,0.0562,1
1664.9,54.3,19.803,0,-0.043208,0,1717.1,57.454,11.062,-1.0481,-0.24684,-2.6739,0.056624,1
1664.9,54.3,19.803,0,-0.043208,0,1717.8,57.385,11.045,-1.2122,-0.29497,-2.7507,0.055877,1
1665.7,54.3,19.801,0,-0.043272,0,1717.8,57.385,11.045,-1.2122,-0.29497,-2.7507,0.056723,1
1665.7,54.3,19.801,0,-0.043272,0,1717.8,57.385,11.045,-1.2122,-0.29497,-2.7507,0.056723,1
1665.7,54.3,19.801,0,-0.043272,0,1717.8,57.385,11.045,-1.2122,-0.29497,-2.7507,0.056723,1
1665.7,54.3,19.801,0,-0.043272,0,1717.8,57.385,11.045,-1.2122,-0.29497,-2.7507,0.056723,1
1665.7,54.3,19.801,0,-0.043272,0,1717.8,57.385,11.045,-1.2122,-0.29497,-2.7507,0.056723,1
1665.7,54.3,19.801,0,-0.043272,0,1717.8,57.385,11.045,-1.2122,-0.29497,-2.7507,0.056723,1
1665.7,54.3,19.801,0,-0.043272,0,1717.8,57.385,11.045,-1.2122,-0.29497,-2.7507,0.056723,1
1665.7,54.3,19.801,0,-0.043272,0,1717.8,57.385,11.045,-1.2122,-0.29497,-2.7507,0.056723,1
1665.7,54.3,19.801,0,-0.043272,0,1717.8,57.385,11.045,-1.2122,-0.29497,-2.7507,0.056723,1
1665.7,54.3,19.801,0,-0.043272,0,1718.2,57.334,11.032,-1.3234,-0.3267,-2.7827,0.056218,1
1665.7,54.3,19.801,0,-0.043272,0,1718.2,57.334,11.032,-1.3234,-0.3267,-2.7827,0.056218,1
1665.7,54.3,19.801,0,-0.043272,0,1718.2,57.334,11.032,-1.3234,-0.3267,-2.7827,0.056218,1
1665.7,54.3,19.801,0,-0.043272,0,1718.2,57.334,11.032,-1.3234,-0.3267,-2.7827,0.056218,1
1665.7,54.3,19.801,0,-0.043272,0,1718.4,57.307,11.025,-1.3794,-0.34226,-2.7931,0.055967,1
1665.7,54.3,19.801,0,-0.043272,0,1718.4,57.307,11.025,-1.3794,-0.34226,-2.7931,0.055967,1
1665.7,54.3,19.801,0,-0.043272,0,1718.4,57.307,11.025,-1.3794,-0.34226,-2.7931,0.055967,1
1665.7,54.3,19.801,0,-0.043272,0,1718.4,57.307,11.025,-1.3794,-0.34226,-2.7931,0.055967,1
1667.7,54.3,19.797,0,-0.043432,0,1718.7,57.278,11.018,-1.4354,-0.35755,-2.8,0.057871,1
1668.9,54.3,19.794,0,-0.043527,0,1719.5,57.153,10.987,-1.6595,-0.41474,-2.7939,0.058142,1
1669.7,54.3,19.793,0,-0.043591,0,1720,57.084,10.969,-1.7705,-0.44025,-2.7721,0.058504,1
1669.7,54.3,19.793,0,-0.043591,0,1720.4,57.011,10.951,-1.8803,-0.46324,-2.739,0.057955,1
1669.7,54.3,19.793,0,-0.043591,0,1720.4,57.011,10.951,-1.8803,-0.46324,-2.739,0.057955,1
1669.7,54.3,19.793,0,-0.043591,0,1720.4,57.011,10.951,-1.8803,-0.46324,-2.739,0.057955,1
1669.7,54.3,19.793,0,-0.043591,0,1720.4,57.011,10.951,-1.8803,-0.46324,-2.739,0.057955,1
1669.7,54.3,19.793,0,-0.043591,0,1720.4,57.011,10.951,-1.8803,-0.46324,-2.739,0.057955,1
1669.7,54.3,19.793,0,-0.043591,0,1720.4,57.011,10.951,-1.8803,-0.46324,-2.739,0.057955,1
1669.7,54.3,19.793,0,-0.043591,0,1720.4,57.011,10.951,-1.8803,-0.46324,-2.739,0.057955,1
1669.7,54.3,19.793,0,-0.043591,0,1720.4,57.011,10.951,-1.8803,-0.46324,-2.739,0.057955,1
1669.7,54.3,19.793,0,-0.043591,0,1720.4,57.011,10.951,-1.8803,-0.46324,-2.739,0.057955,1
1669.7,54.3,19.793,0,-0.043591,0,1720.4,57.011,10.951,-1.8803,-0.46324,-2.739,0.057955,1
1670.4,54.3,19.791,0,-0.043652,0,1720.4,57.011,10.951,-1.8803,-0.46324,-2.739,0.058869,1
1670.4,54.3,19.791,0,-0.043652,0,1720.4,57.011,10.951,-1.8803,-0.46324,-2.739,0.058869,1
1670.4,54.3,19.791,0,-0.043652,0,1720.4,57.011,10.951,-1.8803,-0.46324,-2.739,0.058869,1
1670.4,54.3,19.791,0,-0.043652,0,1720.4,57.011,10.951,-1.8803,-0.46324,-2.739,0.058869,1
1670.4,54.3,19.791,0,-0.043652,0,1720.4,57.011,10.951,-1.8803,-0.46324,-2.739,0.058869,1
1670.4,54.3,19.791,0,-0.043652,0,1720.4,57.011,10.951,-1.8803,-0.46324,-2.739,0.058869,1
1670.4,54.3,19.791,0,-0.043652,0,1720.4,57.011,10.951,-1.8803,-0.46324,-2.739,0.058869,1
1670.4,54.3,19.791,0,-0.043652,0,1720.4,57.011,10.951,-1.8803,-0.46324,-2.739,0.058869,1
1670.4,54.3,19.791,0,-0.043652,0,1720.4,57.011,10.951,-1.8803,-0.46324,-2.739,0.058869,1
1670.4,54.3,19.791,0,-0.043652,0,1720.8,56.933,10.932,-1.9884,-0.4834,-2.6954,0.058312,1
1670.4,54.3,19.791,0,-0.043652,0,1720.8,56.933,10.932,-1.9884,-0.4834,-2.6954,0.058312,1
1671.6,54.3,19.788,0,-0.043744,0,1720.8,56.933,10.932,-1.9884,-0.4834,-2.6954,0.059713,1
1671.6,54.3,19.788,0,-0.043744,0,1720.8,56.933,10.932,-1.9884,-0.4834,-2.6954,0.059713,1
1672.8,54.3,19.786,0,-0.043834,0,1721.7,56.764,10.892,-2.198,-0.51434,-2.5802,0.059991,1
1672.8,54.3,19.786,0,-0.043834,0,1722.4,56.627,10.86,-2.348,-0.52867,-2.4724,0.059124,1
1674.4,54.3,19.782,0,-0.043956,0,1722.4,56.627,10.86,-2.348,-0.52867,-2.4724,0.061067,1
1674.4,54.3,19.782,0,-0.043956,0,1723,56.481,10.828,-2.4909,-0.53503,-2.3491,0.06017,1
1674.4,54.3,19.782,0,-0.043956,0,1723.2,56.431,10.818,-2.5368,-0.53535,-2.3049,0.059877,1
1674.4,54.3,19.782,0,-0.043956,0,1723.2,56.431,10.818,-2.5368,-0.53535,-2.3049,0.059877,1
1674.4,54.3,19.782,0,-0.043956,0,1723.2,56.431,10.818,-2.5368,-0.53535,-2.3049,0.059877,1
1674.4,54.3,19.782,0,-0.043956,0,1723.2,56.431,10.818,-2.5368,-0.53535,-2.3049,0.059877,1
1674.4,54.3,19.782,0,-0.043956,0,1723.2,56.431,10.818,-2.5368,-0.53535,-2.3049,0.059877,1
1674.4,54.3,19.782,0,-0.043956,0,1723.2,56.431,10.818,-2.5368,-0.53535,-2.3049,0.059877,1
1674.4,54.3,19.782,0,-0.043956,0,1723.2,56.431,10.818,-2.5368,-0.53535,-2.3049,0.059877,1
1675.6,54.3,19.579,0,-6.8012,0,1723.2,56.431,10.818,-2.5368,-0.53535,-2.3049,0.06136,1
1675.6,54.3,19.579,0,-6.8012,0,1723.2,56.431,10.818,-2.5368,-0.53535,-2.3049,0.06136,1
1675.6,54.3,19.579,0,-6.8012,0,1723.2,56.431,10.818,-2.5368,-0.53535,-2.3049,0.06136,1
1675.6,54.3,19.579,0,-6.8012,0,1723.2,56.431,10.818,-2.5368,-0.53535,-2.3049,0.06136,1
1675.6,54.3,19.579,0,-6.8012,0,1723.2,56.431,10.818,-2.5368,-0.53535,-2.3049,0.06136,1
1675.6,54.3,19.579,0,-6.8012,0,1723.2,56.431,10.818,-2.5368,-0.53535,-2.3049,0.06136,1
1675.6,54.3,19.579,0,-6.8012,0,1723.2,56.431,10.818,-2.5368,-0.53535,-2.3049,0.06136,1
1675.6,54.3,19.579,0,-6.8012,0,1723.2,56.431,10.818,-2.5368,-0.53535,-2.3049,0.06136,1
1675.6,54.3,19.579,0,-6.8012,0,1723.7,56.327,10.796,-2.6258,-0.53329,-2.2124,0.060754,1
1675.6,54.3,19.579,0,-6.8012,0,1723.7,56.327,10.796,-2.6258,-0.53329,-2.2124,0.060754,1
1675.6,54.3,19.579,0,-6.8012,0,1723.9,56.274,10.786,-2.6689,-0.53092,-2.1642,0.060456,1
1677.1,54.3,19.075,0,-5.6292,0,1723.9,56.274,10.786,-2.6689,-0.53092,-2.1642,0.062449,1
1677.5,54.3,18.966,0,-5.3072,0,1723.9,56.274,10.786,-2.6689,-0.53092,-2.1642,0.06296,1
1677.5,54.3,18.966,0,-5.3072,0,1725.2,55.938,10.724,-2.9056,-0.49831,-1.8519,0.061097,1
1677.5,54.3,18.966,0,-5.3072,0,1725.4,55.879,10.715,-2.9413,-0.48991,-1.7965,0.060799,1
1677.5,54.3,18.966,0,-5.3072,0,1725.4,55.879,10.715,-2.9413,-0.48991,-1.7965,0.060799,1
1677.5,54.3,18.966,0,-5.3072,0,1725.6,55.82,10.705,-2.9758,-0.4807,-1.7403,0.060503,1
1677.5,54.3,18.966,0,-5.3072,0,1725.6,55.82,10.705,-2.9758,-0.4807,-1.7403,0.060503,1
1677.5,54.3,18.966,0,-5.3072,0,1725.6,55.82,10.705,-2.9758,-0.4807,-1.7403,0.060503,1
1677.5,54.3,18.966,0,-5.3072,0,1725.6,55.82,10.705,-2.9758,-0.4807,-1.7403,0.060503,1
1677.5,54.3,18.966,0,-5.3072,0,1725.6,55.82,10.705,-2.9758,-0.4807,-1.7403,0.060503,1
1677.5,54.3,18.966,0,-5.3072,0,1725.6,55.82,10.705,-2.9758,-0.4807,-1.7403,0.060503,1
1677.5,54.3,18.966,0,-5.3072,0,1725.6,55.82,10.705,-2.9758,-0.4807,-1.7403,0.060503,1
1677.5,54.3,18.966,0,-5.3072,0,1725.8,55.76,10.696,-3.0092,-0.4707,-1.6832,0.060211,1
1677.5,54.3,18.966,0,-5.3072,0,1725.8,55.76,10.696,-3.0092,-0.4707,-1.6832,0.060211,1
1677.5,54.3,18.966,0,-5.3072,0,1725.8,55.76,10.696,-3.0092,-0.4707,-1.6832,0.060211,1
1677.5,54.3,18.966,0,-5.3072,0,1725.8,55.76,10.696,-3.0092,-0.4707,-1.6832,0.060211,1
1677.5,54.3,18.966,0,-5.3072,0,1725.8,55.76,10.696,-3.0092,-0.4707,-1.6832,0.060211,1
1677.5,54.3,18.966,0,-5.3072,0,1725.8,55.76,10.696,-3.0092,-0.4707,-1.6832,0.060211,1
1677.5,54.3,18.966,0,-5.3072,0,1725.8,55.76,10.696,-3.0092,-0.4707,-1.6832,0.060211,1
1677.5,54.3,18.966,0,-5.3072,0,1725.8,55.76,10.696,-3.0092,-0.4707,-1.6832,0.060211,1
1677.5,54.3,18.966,0,-5.3072,0,1725.8,55.76,10.696,-3.0092,-0.4707,-1.6832,0.060211,1
1680.1,54.3,18.339,0,-3.7471,0,1725.8,55.76,10.696,-3.0092,-0.4707,-1.6832,0.063643,1
1680.1,54.3,18.339,0,-3.7471,0,1725.8,55.76,10.696,-3.0092,-0.4707,-1.6832,0.063643,1
1681.6,54.3,18.064,0,-3.1546,0,1726.2,55.638,10.678,-3.0725,-0.44837,-1.5669,0.065056,1
1681.6,54.3,18.064,0,-3.1546,0,1726.2,55.638,10.678,-3.0725,-0.44837,-1.5669,0.065056,1
1681.6,54.3,18.064,0,-3.1546,0,1726.2,55.638,10.678,-3.0725,-0.44837,-1.5669,0.065056,1
1681.6,54.3,18.064,0,-3.1546,0,1727.3,55.323,10.637,-3.2096,-0.3799,-1.2645,0.063431,1
1683,54.3,17.83,0,-2.7172,0,1727.3,55.323,10.637,-3.2096,-0.3799,-1.2645,0.065485,1
1683,54.3,17.83,0,-2.7172,0,1728,55.128,10.617,-3.2771,-0.331,-1.0762,0.064499,1
1683,54.3,17.83,0,-2.7172,0,1728,55.128,10.617,-3.2771,-0.331,-1.0762,0.064499,1
1683,54.3,17.83,0,-2.7172,0,1728,55.128,10.617,-3.2771,-0.331,-1.0762,0.064499,1
1683,54.3,17.83,0,-2.7172,0,1728,55.128,10.617,-3.2771,-0.331,-1.0762,0.064499,1
1683,54.3,17.83,0,-2.7172,0,1728,55.128,10.617,-3.2771,-0.331,-1.0762,0.064499,1
1683,54.3,17.83,0,-2.7172,0,1728,55.128,10.617,-3.2771,-0.331,-1.0762,0.064499,1
1683,54.3,17.83,0,-2.7172,0,1728,55.128,10.617,-3.2771,-0.331,-1.0762,0.064499,1
1684.1,54.3,17.675,0,-2.4601,0,1728.2,55.062,10.611,-3.297,-0.31353,-1.0124,0.065729,1
1684.1,54.3,17.675,0,-2.4601,0,1728.2,55.062,10.611,-3.297,-0.31353,-1.0124,0.065729,1
1684.1,54.3,17.675,0,-2.4601,0,1728.2,55.062,10.611,-3.297,-0.31353,-1.0124,0.065729,1
1684.1,54.3,17.675,0,-2.4601,0,1728.6,54.929,10.599,-3.333,-0.27698,-0.88341,0.065071,1
1684.1,54.3,17.675,0,-2.4601,0,1728.6,54.929,10.599,-3.333,-0.27698,-0.88341,0.065071,1
1684.1,54.3,17.675,0,-2.4601,0,1728.8,54.862,10.594,-3.349,-0.25796,-0.81822,0.064748,1
1685.5,54.3,17.49,0,-2.1855,0,1728.8,54.862,10.594,-3.349,-0.25796,-0.81822,0.06685,1
1685.5,54.3,17.49,0,-2.1855,0,1728.8,54.862,10.594,-3.349,-0.25796,-0.81822,0.06685,1
1685.8,54.3,17.446,0,-2.1267,0,1728.8,54.862,10.594,-3.349,-0.25796,-0.81822,0.067394,1
1685.8,54.3,17.446,0,-2.1267,0,1728.8,54.862,10.594,-3.349,-0.25796,-0.81822,0.067394,1
1685.8,54.3,17.446,0,-2.1267,0,1729.6,54.592,10.578,-3.4,-0.17748,-0.55317,0.066044,1
1685.8,54.3,17.446,0,-2.1267,0,1729.6,54.592,10.578,-3.4,-0.17748,-0.55317,0.066044,1
1685.8,54.3,17.446,0,-2.1267,0,1729.9,54.524,10.575,-3.4094,-0.1564,-0.48589,0.065717,1
1685.8,54.3,17.446,0,-2.1267,0,1729.9,54.524,10.575,-3.4094,-0.1564,-0.48589,0.065717,1
1686.9,54.3,17.323,0,-1.9941,0,1729.9,54.524,10.575,-3.4094,-0.1564,-0.48589,0.067312,1
1686.9,54.3,17.323,0,-1.9941,0,1729.9,54.524,10.575,-3.4094,-0.1564,-0.48589,0.067312,1
1687.2,54.3,17.284,0,-1.9571,0,1729.9,54.524,10.575,-3.4094,-0.1564,-0.48589,0.067859,1
1687.6,54.3,17.245,0,-1.9219,0,1729.9,54.524,10.575,-3.4094,-0.1564,-0.48589,0.068413,1
1687.6,54.3,17.245,0,-1.9219,0,1729.9,54.524,10.575,-3.4094,-0.1564,-0.48589,0.068413,1
1687.9,54.3,17.207,0,-1.8884,0,1729.9,54.524,10.575,-3.4094,-0.1564,-0.48589,0.068975,1
1687.9,54.3,17.207,0,-1.8884,0,1729.9,54.524,10.575,-3.4094,-0.1564,-0.48589,0.068975,1
1688.3,54.3,17.169,0,-1.8564,0,1729.9,54.524,10.575,-3.4094,-0.1564,-0.48589,0.069544,1
1688.3,54.3,17.169,0,-1.8564,0,1729.9,54.524,10.575,-3.4094,-0.1564,-0.48589,0.069544,1
1688.6,54.3,17.132,0,-1.8259,0,1729.9,54.524,10.575,-3.4094,-0.1564,-0.48589,0.070123,1
1688.6,54.3,17.132,0,-1.8259,0,1729.9,54.524,10.575,-3.4094,-0.1564,-0.48589,0.070123,1
1688.9,54.3,17.096,0,-1.7967,0,1729.9,54.524,10.575,-3.4094,-0.1564,-0.48589,0.070709,1
1688.9,54.3,17.096,0,-1.7967,0,1729.9,54.524,10.575,-3.4094,-0.1564,-0.48589,0.070709,1
1689.3,54.3,17.061,0,-1.7689,0,1729.9,54.524,10.575,-3.4094,-0.1564,-0.48589,0.071304,1
1689.3,54.3,17.061,0,-1.7689,0,1729.9,54.524,10.575,-3.4094,-0.1564,-0.48589,0.071304,1
1689.6,54.3,17.025,0,-1.7423,0,1729.9,54.524,10.575,-3.4094,-0.1564,-0.48589,0.071909,1
1689.6,54.3,17.025,0,-1.7423,0,1729.9,54.524,10.575,-3.4094,-0.1564,-0.48589,0.071909,1
1689.6,54.3,17.025,0,-1.7423,0,1729.9,54.524,10.575,-3.4094,-0.1564,-0.48589,0.071909,1
1690,54.3,16.991,0,-1.7169,0,1729.9,54.524,10.575,-3.4094,-0.1564,-0.48589,0.072522,1
1690.3,54.3,16.957,0,-1.6925,0,1729.9,54.524,10.575,-3.4094,-0.1564,-0.48589,0.073144,1
1690.3,54.3,16.957,0,-1.6925,0,1729.9,54.524,10.575,-3.4094,-0.1564,-0.48589,0.073144,1
1690.6,54.3,16.923,0,-1.6692,0,1729.9,54.524,10.575,-3.4094,-0.1564,-0.48589,0.073776,1
1690.6,54.3,16.923,0,-1.6692,0,1729.9,54.524,10.575,-3.4094,-0.1564,-0.48589,0.073776,1
1691,54.3,16.89,0,-1.6469,0,1729.9,54.524,10.575,-3.4094,-0.1564,-0.48589,0.074418,1
1691,54.3,16.89,0,-1.6469,0,1729.9,54.524,10.575,-3.4094,-0.1564,-0.48589,0.074418,1
1691.3,54.3,16.857,0,-1.6255,0,1729.9,54.524,10.575,-3.4094,-0.1564,-0.48589,0.075069,1
1691.3,54.3,16.857,0,-1.6255,0,1729.9,54.524,10.575,-3.4094,-0.1564,-0.48589,0.075069,1
1691.3,54.3,16.857,0,-1.6255,0,1729.9,54.524,10.575,-3.4094,-0.1564,-0.48589,0.075069,1
1691.3,54.3,16.857,0,-1.6255,0,1729.9,54.524,10.575,-3.4094,-0.1564,-0.48589,0.075069,1
1691.7,54.3,16.825,0,-1.605,0,1729.9,54.524,10.575,-3.4094,-0.1564,-0.48589,0.075731,1
1691.7,54.3,16.825,0,-1.605,0,1729.9,54.524,10.575,-3.4094,-0.1564,-0.48589,0.075731,1
1691.7,54.3,16.825,0,-1.605,0,1729.9,54.524,10.575,-3.4094,-0.1564,-0.48589,0.075731,1
1692,54.3,16.793,0,-1.5852,0,1729.9,54.524,10.575,-3.4094,-0.1564,-0.48589,0.076404,1
1692,54.3,16.793,0,-1.5852,0,1729.9,54.524,10.575,-3.4094,-0.1564,-0.48589,0.076404,1
1692,54.3,16.793,0,-1.5852,0,1733.5,53.362,10.592,-3.356,0.2251,0.70881,0.069813,1
1692,54.3,16.793,0,-1.5852,0,1733.5,53.362,10.592,-3.356,0.2251,0.70881,0.069813,1
1692,54.3,16.793,0,-1.5852,0,1733.5,53.362,10.592,-3.356,0.2251,0.70881,0.069813,1
1692,54.3,16.793,0,-1.5852,0,1733.5,53.362,10.592,-3.356,0.2251,0.70881,0.069813,1
1692,54.3,16.793,0,-1.5852,0,1733.9,53.229,10.603,-3.3226,0.26841,0.85412,0.069135,1
1692,54.3,16.793,0,-1.5852,0,1733.9,53.229,10.603,-3.3226,0.26841,0.85412,0.069135,1
1692,54.3,16.793,0,-1.5852,0,1734.1,53.163,10.609,-3.3037,0.28956,0.92697,0.068803,1
1692,54.3,16.793,0,-1.5852,0,1734.3,53.097,10.615,-3.2833,0.31032,0.99993,0.068475,1
1692,54.3,16.793,0,-1.5852,0,1734.3,53.097,10.615,-3.2833,0.31032,0.99993,0.068475,1
1694,54.3,16.609,0,-1.4818,0,1734.3,53.097,10.615,-3.2833,0.31032,0.99993,0.071876,1
1694,54.3,16.609,0,-1.4818,0,1734.3,53.097,10.615,-3.2833,0.31032,0.99993,0.071876,1
1694,54.3,16.609,0,-1.4818,0,1734.7,52.967,10.629,-3.2382,0.3505,1.146,0.071165,1
1694,54.3,16.609,0,-1.4818,0,1734.9,52.902,10.636,-3.2134,0.36985,1.2191,0.070817,1
1694,54.3,16.609,0,-1.4818,0,1734.9,52.902,10.636,-3.2134,0.36985,1.2191,0.070817,1
1695,54.3,16.522,0,-1.438,0,1734.9,52.902,10.636,-3.2134,0.36985,1.2191,0.072576,1
1695,54.3,16.522,0,-1.438,0,1735.4,52.775,10.652,-3.1596,0.40684,1.3652,0.071857,1
1695,54.3,16.522,0,-1.438,0,1735.4,52.775,10.652,-3.1596,0.40684,1.3652,0.071857,1
1695.7,54.3,16.465,0,-1.4112,0,1735.4,52.775,10.652,-3.1596,0.40684,1.3652,0.073048,1
1695.7,54.3,16.465,0,-1.4112,0,1735.4,52.775,10.652,-3.1596,0.40684,1.3652,0.073048,1
1695.7,54.3,16.465,0,-1.4112,0,1735.4,52.775,10.652,-3.1596,0.40684,1.3652,0.073048,1
1695.7,54.3,16.465,0,-1.4112,0,1735.4,52.775,10.652,-3.1596,0.40684,1.3652,0.073048,1
1695.7,54.3,16.465,0,-1.4112,0,1735.4,52.775,10.652,-3.1596,0.40684,1.3652,0.073048,1
1695.7,54.3,16.465,0,-1.4112,0,1735.4,52.775,10.652,-3.1596,0.40684,1.3652,0.073048,1
1695.7,54.3,16.465,0,-1.4112,0,1735.8,52.65,10.67,-3.0999,0.44129,1.5109,0.072323,1
1696.3,54.3,16.409,0,-1.3859,0,1735.8,52.65,10.67,-3.0999,0.44129,1.5109,0.073524,1
1696.3,54.3,16.409,0,-1.3859,0,1735.8,52.65,10.67,-3.0999,0.44129,1.5109,0.073524,1
1696.3,54.3,16.409,0,-1.3859,0,1735.8,52.65,10.67,-3.0999,0.44129,1.5109,0.073524,1
1696.6,54.3,16.381,0,-1.3739,0,1735.8,52.65,10.67,-3.0999,0.44129,1.5109,0.074138,1
1697,54.3,16.354,0,-1.3622,0,1735.8,52.65,10.67,-3.0999,0.44129,1.5109,0.074762,1
1697,54.3,16.354,0,-1.3622,0,1736.9,52.349,10.719,-2.9253,0.51425,1.8714,0.072904,1
1697,54.3,16.354,0,-1.3622,0,1736.9,52.349,10.719,-2.9253,0.51425,1.8714,0.072904,1
1697,54.3,16.354,0,-1.3622,0,1736.9,52.349,10.719,-2.9253,0.51425,1.8714,0.072904,1
1697,54.3,16.354,0,-1.3622,0,1736.9,52.349,10.719,-2.9253,0.51425,1.8714,0.072904,1
1697,54.3,16.354,0,-1.3622,0,1736.9,52.349,10.719,-2.9253,0.51425,1.8714,0.072904,1
1697,54.3,16.354,0,-1.3622,0,1736.9,52.349,10.719,-2.9253,0.51425,1.8714,0.072904,1
1697,54.3,16.354,0,-1.3622,0,1736.9,52.349,10.719,-2.9253,0.51425,1.8714,0.072904,1
1698.3,54.3,16.403,0,1.809,0,1737.1,52.292,10.73,-2.8861,0.52628,1.9425,0.074981,1
1698.3,54.3,16.403,0,1.809,0,1737.1,52.292,10.73,-2.8861,0.52628,1.9425,0.074981,1
1698.3,54.3,16.403,0,1.809,0,1737.1,52.292,10.73,-2.8861,0.52628,1.9425,0.074981,1
1698.3,54.3,16.403,0,1.809,0,1737.5,52.178,10.752,-2.8035,0.54752,2.0832,0.074227,1
1698.3,54.3,16.403,0,1.809,0,1737.5,52.178,10.752,-2.8035,0.54752,2.0832,0.074227,1
1698.3,54.3,16.403,0,1.809,0,1737.5,52.178,10.752,-2.8035,0.54752,2.0832,0.074227,1
1698.3,54.3,16.403,0,1.809,0,1737.5,52.178,10.752,-2.8035,0.54752,2.0832,0.074227,1
1698.3,54.3,16.403,0,1.809,0,1737.5,52.178,10.752,-2.8035,0.54752,2.0832,0.074227,1
1698.3,54.3,16.403,0,1.809,0,1737.5,52.178,10.752,-2.8035,0.54752,2.0832,0.074227,1
1698.3,54.3,16.403,0,1.809,0,1738.2,52.015,10.786,-2.6692,0.57183,2.2898,0.073128,1
1698.3,54.3,16.403,0,1.809,0,1738.2,52.015,10.786,-2.6692,0.57183,2.2898,0.073128,1
1698.3,54.3,16.403,0,1.809,0,1738.2,52.015,10.786,-2.6692,0.57183,2.2898,0.073128,1
1698.3,54.3,16.403,0,1.809,0,1738.2,52.015,10.786,-2.6692,0.57183,2.2898,0.073128,1
1698.3,54.3,16.403,0,1.809,0,1738.2,52.015,10.786,-2.6692,0.57183,2.2898,0.073128,1
1699.9,54.3,16.581,0,1.7328,0,1738.2,52.015,10.786,-2.6692,0.57183,2.2898,0.076266,1
1699.9,54.3,16.581,0,1.7328,0,1738.2,52.015,10.786,-2.6692,0.57183,2.2898,0.076266,1
1699.9,54.3,16.581,0,1.7328,0,1738.6,51.91,10.809,-2.573,0.5827,2.4238,0.075488,1
1701.3,54.3,16.717,0,1.6724,0,1738.8,51.86,10.821,-2.5229,0.58646,2.4895,0.077752,1
1701.3,54.3,16.717,0,1.6724,0,1738.8,51.86,10.821,-2.5229,0.58646,2.4895,0.077752,1
1701.9,54.3,16.783,0,1.6424,0,1738.8,51.86,10.821,-2.5229,0.58646,2.4895,0.079155,1
1701.9,54.3,16.783,0,1.6424,0,1738.8,51.86,10.821,-2.5229,0.58646,2.4895,0.079155,1
1701.9,54.3,16.783,0,1.6424,0,1739.9,51.622,10.88,-2.2534,0.58792,2.8023,0.077085,1
1701.9,54.3,16.783,0,1.6424,0,1740.1,51.578,10.892,-2.1959,0.58468,2.8612,0.076684,1
1701.9,54.3,16.783,0,1.6424,0,1740.1,51.578,10.892,-2.1959,0.58468,2.8612,0.076684,1
1701.9,54.3,16.783,0,1.6424,0,1740.1,51.578,10.892,-2.1959,0.58468,2.8612,0.076684,1
1701.9,54.3,16.783,0,1.6424,0,1740.1,51.578,10.892,-2.1959,0.58468,2.8612,0.076684,1
1701.9,54.3,16.783,0,1.6424,0,1740.1,51.578,10.892,-2.1959,0.58468,2.8612,0.076684,1
1701.9,54.3,16.783,0,1.6424,0,1740.3,51.535,10.904,-2.1373,0.58025,2.9188,0.076287,1
1701.9,54.3,16.783,0,1.6424,0,1740.3,51.535,10.904,-2.1373,0.58025,2.9188,0.076287,1
1701.9,54.3,16.783,0,1.6424,0,1740.5,51.493,10.915,-2.0775,0.57465,2.975,0.075894,1
1701.9,54.3,16.783,0,1.6424,0,1740.5,51.493,10.915,-2.0775,0.57465,2.975,0.075894,1
1701.9,54.3,16.783,0,1.6424,0,1740.5,51.493,10.915,-2.0775,0.57465,2.975,0.075894,1
1701.9,54.3,16.783,0,1.6424,0,1740.5,51.493,10.915,-2.0775,0.57465,2.975,0.075894,1
1701.9,54.3,16.783,0,1.6424,0,1740.5,51.493,10.915,-2.0775,0.57465,2.975,0.075894,1
1701.9,54.3,16.783,0,1.6424,0,1740.5,51.493,10.915,-2.0775,0.57465,2.975,0.075894,1
1701.9,54.3,16.783,0,1.6424,0,1740.5,51.493,10.915,-2.0775,0.57465,2.975,0.075894,1
1703.6,54.3,16.944,0,1.5682,0,1740.5,51.493,10.915,-2.0775,0.57465,2.975,0.079329,1
1703.6,54.3,16.944,0,1.5682,0,1741.2,51.374,10.949,-1.8918,0.55082,3.1343,0.078059,1
1703.6,54.3,16.944,0,1.5682,0,1741.2,51.374,10.949,-1.8918,0.55082,3.1343,0.078059,1
1703.6,54.3,16.944,0,1.5682,0,1741.2,51.374,10.949,-1.8918,0.55082,3.1343,0.078059,1
1703.6,54.3,16.944,0,1.5682,0,1741.4,51.338,10.96,-1.8279,0.54058,3.1842,0.077643,1
1705.7,54.3,17.127,0,1.4811,0,1741.6,51.302,10.97,-1.7632,0.52797,3.2244,0.081574,1
1705.7,54.3,17.127,0,1.4811,0,1742.3,51.203,11,-1.5679,0.47334,3.2519,0.080212,1
1705.7,54.3,17.127,0,1.4811,0,1742.3,51.203,11,-1.5679,0.47334,3.2519,0.080212,1
1705.7,54.3,17.127,0,1.4811,0,1742.3,51.203,11,-1.5679,0.47334,3.2519,0.080212,1
1706.3,54.3,17.185,0,1.4526,0,1742.3,51.203,11,-1.5679,0.47334,3.2519,0.081726,1
1706.3,54.3,17.185,0,1.4526,0,1742.3,51.203,11,-1.5679,0.47334,3.2519,0.081726,1
1706.7,54.3,17.214,0,1.4384,0,1742.3,51.203,11,-1.5679,0.47334,3.2519,0.082506,1
1706.7,54.3,17.214,0,1.4384,0,1742.3,51.203,11,-1.5679,0.47334,3.2519,0.082506,1
1706.7,54.3,17.214,0,1.4384,0,1742.3,51.203,11,-1.5679,0.47334,3.2519,0.082506,1
1706.7,54.3,17.214,0,1.4384,0,1742.3,51.203,11,-1.5679,0.47334,3.2519,0.082506,1
1706.7,54.3,17.214,0,1.4384,0,1742.3,51.203,11,-1.5679,0.47334,3.2519,0.082506,1
1706.7,54.3,17.214,0,1.4384,0,1742.3,51.203,11,-1.5679,0.47334,3.2519,0.082506,1
1706.7,54.3,17.214,0,1.4384,0,1742.3,51.203,11,-1.5679,0.47334,3.2519,0.082506,1
1706.7,54.3,17.214,0,1.4384,0,1742.3,51.203,11,-1.5679,0.47334,3.2519,0.082506,1
1706.7,54.3,17.214,0,1.4384,0,1743,51.116,11.026,-1.3761,0.40469,3.1682,0.081098,1
1707.4,54.3,17.271,0,1.4102,0,1743,51.116,11.026,-1.3761,0.40469,3.1682,0.08265,1
1707.4,54.3,17.271,0,1.4102,0,1743,51.116,11.026,-1.3761,0.40469,3.1682,0.08265,1
1707.7,54.3,17.299,0,1.3963,0,1743,51.116,11.026,-1.3761,0.40469,3.1682,0.083451,1
1708.1,54.3,17.327,0,1.3824,0,1743,51.116,11.026,-1.3761,0.40469,3.1682,0.084269,1
1708.1,54.3,17.327,0,1.3824,0,1743,51.116,11.026,-1.3761,0.40469,3.1682,0.084269,1
1708.1,54.3,17.327,0,1.3824,0,1744.3,50.974,11.064,-1.0223,0.26486,2.7897,0.081333,1
1708.1,54.3,17.327,0,1.3824,0,1744.3,50.974,11.064,-1.0223,0.26486,2.7897,0.081333,1
1708.1,54.3,17.327,0,1.3824,0,1744.3,50.974,11.064,-1.0223,0.26486,2.7897,0.081333,1
1708.1,54.3,17.327,0,1.3824,0,1744.3,50.974,11.064,-1.0223,0.26486,2.7897,0.081333,1
1708.1,54.3,17.327,0,1.3824,0,1744.3,50.974,11.064,-1.0223,0.26486,2.7897,0.081333,1
1708.1,54.3,17.327,0,1.3824,0,1744.5,50.954,11.069,-0.96851,0.2438,2.7099,0.080858,1
1708.1,54.3,17.327,0,1.3824,0,1744.7,50.936,11.073,-0.91638,0.22371,2.6273,0.080388,1
1708.1,54.3,17.327,0,1.3824,0,1744.7,50.936,11.073,-0.91638,0.22371,2.6273,0.080388,1
1710.2,54.3,17.488,0,1.3005,0,1744.7,50.936,11.073,-0.91638,0.22371,2.6273,0.085177,1
1710.2,54.3,17.488,0,1.3005,0,1744.7,50.936,11.073,-0.91638,0.22371,2.6273,0.085177,1
1710.2,54.3,17.488,0,1.3005,0,1744.7,50.936,11.073,-0.91638,0.22371,2.6273,0.085177,1
1710.2,54.3,17.488,0,1.3005,0,1744.7,50.936,11.073,-0.91638,0.22371,2.6273,0.085177,1
1710.2,54.3,17.488,0,1.3005,0,1744.7,50.936,11.073,-0.91638,0.22371,2.6273,0.085177,1
1710.9,54.3,17.539,0,1.2738,0,1744.7,50.936,11.073,-0.91638,0.22371,2.6273,0.086913,1
1711.2,54.3,17.565,0,1.2598,0,1744.7,50.936,11.073,-0.91638,0.22371,2.6273,0.087809,1
1711.2,54.3,17.565,0,1.2598,0,1744.7,50.936,11.073,-0.91638,0.22371,2.6273,0.087809,1
1711.2,54.3,17.565,0,1.2598,0,1745.8,50.857,11.09,-0.68174,0.13915,2.1927,0.085082,1
1711.2,54.3,17.565,0,1.2598,0,1745.8,50.857,11.09,-0.68174,0.13915,2.1927,0.085082,1
1711.2,54.3,17.565,0,1.2598,0,1746.1,50.844,11.093,-0.64008,0.12546,2.1048,0.084555,1
1712.3,54.3,17.639,0,1.2152,0,1746.1,50.844,11.093,-0.64008,0.12546,2.1048,0.087155,1
1712.3,54.3,17.639,0,1.2152,0,1746.5,50.821,11.097,-0.562,0.10115,1.9308,0.086052,1
1712.3,54.3,17.639,0,1.2152,0,1746.5,50.821,11.097,-0.562,0.10115,1.9308,0.086052,1
1713,54.3,17.687,0,1.1862,0,1746.5,50.821,11.097,-0.562,0.10115,1.9308,0.087836,1
1713,54.3,17.687,0,1.1862,0,1746.5,50.821,11.097,-0.562,0.10115,1.9308,0.087836,1
1713.3,54.3,17.711,0,1.172,0,1746.5,50.821,11.097,-0.562,0.10115,1.9308,0.088757,1
1713.3,54.3,17.711,0,1.172,0,1746.5,50.821,11.097,-0.562,0.10115,1.9308,0.088757,1
1713.3,54.3,17.711,0,1.172,0,1746.5,50.821,11.097,-0.562,0.10115,1.9308,0.088757,1
1713.3,54.3,17.711,0,1.172,0,1746.5,50.821,11.097,-0.562,0.10115,1.9308,0.088757,1
1713.3,54.3,17.711,0,1.172,0,1746.5,50.821,11.097,-0.562,0.10115,1.9308,0.088757,1
1713.3,54.3,17.711,0,1.172,0,1746.5,50.821,11.097,-0.562,0.10115,1.9308,0.088757,1
1713.3,54.3,17.711,0,1.172,0,1746.5,50.821,11.097,-0.562,0.10115,1.9308,0.088757,1
1713.3,54.3,17.711,0,1.172,0,1747.2,50.791,11.102,-0.45756,0.07173,1.6787,0.087048,1
1713.3,54.3,17.711,0,1.172,0,1747.2,50.791,11.102,-0.45756,0.07173,1.6787,0.087048,1
1713.3,54.3,17.711,0,1.172,0,1747.2,50.791,11.102,-0.45756,0.07173,1.6787,0.087048,1
1713.3,54.3,17.711,0,1.172,0,1747.4,50.782,11.103,-0.42601,0.063612,1.5979,0.086491,1
1714.7,54.3,17.802,0,1.1166,0,1747.6,50.774,11.104,-0.39603,0.056255,1.519,0.089592,1
1714.7,54.3,17.802,0,1.1166,0,1747.6,50.774,11.104,-0.39603,0.056255,1.519,0.089592,1
1715.8,54.3,17.868,0,1.0767,0,1748.3,50.753,11.107,-0.31508,0.038243,1.2948,0.090689,1
1715.8,54.3,17.868,0,1.0767,0,1748.7,50.742,11.108,-0.26815,0.029128,1.1567,0.089487,1
1715.8,54.3,17.868,0,1.0767,0,1748.7,50.742,11.108,-0.26815,0.029128,1.1567,0.089487,1
1715.8,54.3,17.868,0,1.0767,0,1748.7,50.742,11.108,-0.26815,0.029128,1.1567,0.089487,1
1715.8,54.3,17.868,0,1.0767,0,1748.7,50.742,11.108,-0.26815,0.029128,1.1567,0.089487,1
1715.8,54.3,17.868,0,1.0767,0,1748.7,50.742,11.108,-0.26815,0.029128,1.1567,0.089487,1
1715.8,54.3,17.868,0,1.0767,0,1748.7,50.742,11.108,-0.26815,0.029128,1.1567,0.089487,1
1715.8,54.3,17.868,0,1.0767,0,1748.7,50.742,11.108,-0.26815,0.029128,1.1567,0.089487,1
1715.8,54.3,17.868,0,1.0767,0,1748.7,50.742,11.108,-0.26815,0.029128,1.1567,0.089487,1
1715.8,54.3,17.868,0,1.0767,0,1748.7,50.742,11.108,-0.26815,0.029128,1.1567,0.089487,1
1716.5,54.3,17.91,0,1.0509,0,1748.7,50.742,11.108,-0.26815,0.029128,1.1567,0.091439,1
1716.5,54.3,17.91,0,1.0509,0,1748.7,50.742,11.108,-0.26815,0.029128,1.1567,0.091439,1
1716.5,54.3,17.91,0,1.0509,0,1748.7,50.742,11.108,-0.26815,0.029128,1.1567,0.091439,1
1716.5,54.3,17.91,0,1.0509,0,1748.7,50.742,11.108,-0.26815,0.029128,1.1567,0.091439,1
1716.5,54.3,17.91,0,1.0509,0,1748.7,50.742,11.108,-0.26815,0.029128,1.1567,0.091439,1
1716.5,54.3,17.91,0,1.0509,0,1748.7,50.742,11.108,-0.26815,0.029128,1.1567,0.091439,1
1716.5,54.3,17.91,0,1.0509,0,1748.7,50.742,11.108,-0.26815,0.029128,1.1567,0.091439,1
1716.5,54.3,17.91,0,1.0509,0,1748.7,50.742,11.108,-0.26815,0.029128,1.1567,0.091439,1
1716.5,54.3,17.91,0,1.0509,0,1749.2,50.732,11.109,-0.22642,0.021905,1.028,0.090216,1
1716.5,54.3,17.91,0,1.0509,0,1749.2,50.732,11.109,-0.22642,0.021905,1.028,0.090216,1
1716.5,54.3,17.91,0,1.0509,0,1749.2,50.732,11.109,-0.22642,0.021905,1.028,0.090216,1
1716.5,54.3,17.91,0,1.0509,0,1749.2,50.732,11.109,-0.22642,0.021905,1.028,0.090216,1
1718.3,54.3,18.012,0,0.98884,0,1749.8,50.721,11.11,-0.17271,0.013917,0.8531,0.093387,1
1718.3,54.3,18.012,0,0.98884,0,1749.8,50.721,11.11,-0.17271,0.013917,0.8531,0.093387,1
1719.8,54.3,18.09,0,0.94171,0,1750.3,50.714,11.11,-0.14228,0.010088,0.74836,0.096383,1
1719.8,54.3,18.09,0,0.94171,0,1750.3,50.714,11.11,-0.14228,0.010088,0.74836,0.096383,1
1719.8,54.3,18.09,0,0.94171,0,1750.3,50.714,11.11,-0.14228,0.010088,0.74836,0.096383,1
1720.5,54.3,18.127,0,0.91895,0,1751.2,50.705,11.111,-0.092664,0.005011,0.56623,0.095874,1
1720.5,54.3,18.127,0,0.91895,0,1751.2,50.705,11.111,-0.092664,0.005011,0.56623,0.095874,1
1720.5,54.3,18.127,0,0.91895,0,1751.2,50.705,11.111,-0.092664,0.005011,0.56623,0.095874,1
1720.5,54.3,18.127,0,0.91895,0,1751.2,50.705,11.111,-0.092664,0.005011,0.56623,0.095874,1
1720.5,54.3,18.127,0,0.91895,0,1751.6,50.702,11.111,-0.072777,0.0034113,0.48807,0.094532,1
1720.5,54.3,18.127,0,0.91895,0,1751.6,50.702,11.111,-0.072777,0.0034113,0.48807,0.094532,1
1720.5,54.3,18.127,0,0.91895,0,1751.6,50.702,11.111,-0.072777,0.0034113,0.48807,0.094532,1
1720.5,54.3,18.127,0,0.91895,0,1751.6,50.702,11.111,-0.072777,0.0034113,0.48807,0.094532,1
1721.6,54.3,18.181,0,0.8858,0,1751.8,50.701,11.111,-0.063919,0.0027843,0.45203,0.097183,1
1721.6,54.3,18.181,0,0.8858,0,1751.8,50.701,11.111,-0.063919,0.0027843,0.45203,0.097183,1
1721.6,54.3,18.181,0,0.8858,0,1751.8,50.701,11.111,-0.063919,0.0027843,0.45203,0.097183,1
1721.6,54.3,18.181,0,0.8858,0,1751.8,50.701,11.111,-0.063919,0.0027843,0.45203,0.097183,1
1721.9,54.3,18.199,0,0.875,0,1751.8,50.701,11.111,-0.063919,0.0027843,0.45203,0.098341,1
1721.9,54.3,18.199,0,0.875,0,1752.5,50.698,11.111,-0.041232,0.001432,0.35527,0.096239,1
1721.9,54.3,18.199,0,0.875,0,1752.5,50.698,11.111,-0.041232,0.001432,0.35527,0.096239,1
1721.9,54.3,18.199,0,0.875,0,1752.9,50.696,11.111,-0.02899,0.00086249,0.2996,0.094887,1
1721.9,54.3,18.199,0,0.875,0,1752.9,50.696,11.111,-0.02899,0.00086249,0.2996,0.094887,1
1723.4,54.3,18.267,0,0.83304,0,1752.9,50.696,11.111,-0.02899,0.00086249,0.2996,0.09947,1
1723.4,54.3,18.267,0,0.83304,0,1753.4,50.696,11.111,-0.018748,0.00047891,0.25039,0.098027,1
1723.4,54.3,18.267,0,0.83304,0,1753.4,50.696,11.111,-0.018748,0.00047891,0.25039,0.098027,1
1724.1,54.3,18.3,0,0.81279,0,1753.4,50.696,11.111,-0.018748,0.00047891,0.25039,0.10042,1
1724.1,54.3,18.3,0,0.81279,0,1753.4,50.696,11.111,-0.018748,0.00047891,0.25039,0.10042,1
1724.1,54.3,18.3,0,0.81279,0,1753.4,50.696,11.111,-0.018748,0.00047891,0.25039,0.10042,1
1724.1,54.3,18.3,0,0.81279,0,1753.8,50.695,11.111,-0.010265,0.00022995,0.20711,0.098953,1
1724.1,54.3,18.3,0,0.81279,0,1753.8,50.695,11.111,-0.010265,0.00022995,0.20711,0.098953,1
1724.1,54.3,18.3,0,0.81279,0,1754.1,50.695,11.111,-0.0066143,0.00014329,0.18753,0.098234,1
1725.2,54.3,18.348,0,0.78329,0,1754.1,50.695,11.111,-0.0066143,0.00014329,0.18753,0.10189,1
1725.2,54.3,18.348,0,0.78329,0,1754.1,50.695,11.111,-0.0066143,0.00014329,0.18753,0.10189,1
1725.2,54.3,18.348,0,0.78329,0,1754.1,50.695,11.111,-0.0066143,0.00014329,0.18753,0.10189,1
1725.2,54.3,18.348,0,0.78329,0,1754.5,50.695,11.111,-0.00036482,2.5847e-05,0.15221,0.10038,1
1725.2,54.3,18.348,0,0.78329,0,1754.5,50.695,11.111,-0.00036482,2.5847e-05,0.15221,0.10038,1
1725.2,54.3,18.348,0,0.78329,0,1754.7,50.695,11.111,0.002281,-1.126e-05,0.13633,0.099643,1
1725.2,54.3,18.348,0,0.78329,0,1754.7,50.695,11.111,0.002281,-1.126e-05,0.13633,0.099643,1
1725.2,54.3,18.348,0,0.78329,0,1754.9,50.695,11.111,0.0046373,-3.7437e-05,0.12157,0.098915,1
1725.2,54.3,18.348,0,0.78329,0,1754.9,50.695,11.111,0.0046373,-3.7437e-05,0.12157,0.098915,1
1726.7,54.3,18.409,0,0.74555,0,1754.9,50.695,11.111,0.0046373,-3.7437e-05,0.12157,0.10394,1
1726.7,54.3,18.409,0,0.74555,0,1754.9,50.695,11.111,0.0046373,-3.7437e-05,0.12157,0.10394,1
1726.7,54.3,18.409,0,0.74555,0,1755.4,50.695,11.111,0.0085635,-6.5198e-05,0.09517,0.10237,1
1726.7,54.3,18.409,0,0.74555,0,1755.4,50.695,11.111,0.0085635,-6.5198e-05,0.09517,0.10237,1
1726.7,54.3,18.409,0,0.74555,0,1755.4,50.695,11.111,0.0085635,-6.5198e-05,0.09517,0.10237,1
1727.4,54.3,18.438,0,0.72734,0,1755.4,50.695,11.111,0.0085635,-6.5198e-05,0.09517,0.105,1
1727.4,54.3,18.438,0,0.72734,0,1755.4,50.695,11.111,0.0085635,-6.5198e-05,0.09517,0.105,1
1727.4,54.3,18.438,0,0.72734,0,1755.4,50.695,11.111,0.0085635,-6.5198e-05,0.09517,0.105,1
1728.2,54.3,18.467,0,0.70955,0,1755.8,50.696,11.111,0.011568,-7.0813e-05,0.072568,0.10609,1
1728.2,54.3,18.467,0,0.70955,0,1755.8,50.696,11.111,0.011568,-7.0813e-05,0.072568,0.10609,1
1728.2,54.3,18.467,0,0.70955,0,1755.8,50.696,11.111,0.011568,-7.0813e-05,0.072568,0.10609,1
1728.9,54.3,18.495,0,0.69218,0,1755.8,50.696,11.111,0.011568,-7.0813e-05,0.072568,0.10892,1
1728.9,54.3,18.495,0,0.69218,0,1755.8,50.696,11.111,0.011568,-7.0813e-05,0.072568,0.10892,1
1728.9,54.3,18.495,0,0.69218,0,1755.8,50.696,11.111,0.011568,-7.0813e-05,0.072568,0.10892,1
1728.9,54.3,18.495,0,0.69218,0,1756.7,50.697,11.111,0.015347,-5.0087e-05,0.037162,0.10553,1
1728.9,54.3,18.495,0,0.69218,0,1756.7,50.697,11.111,0.015347,-5.0087e-05,0.037162,0.10553,1
1728.9,54.3,18.495,0,0.69218,0,1756.7,50.697,11.111,0.015347,-5.0087e-05,0.037162,0.10553,1
1728.9,54.3,18.495,0,0.69218,0,1756.7,50.697,11.111,0.015347,-5.0087e-05,0.037162,0.10553,1
1728.9,54.3,18.495,0,0.69218,0,1756.7,50.697,11.111,0.015347,-5.0087e-05,0.037162,0.10553,1
1728.9,54.3,18.495,0,0.69218,0,1756.7,50.697,11.111,0.015347,-5.0087e-05,0.037162,0.10553,1
1728.9,54.3,18.495,0,0.69218,0,1756.7,50.697,11.111,0.015347,-5.0087e-05,0.037162,0.10553,1
1728.9,54.3,18.495,0,0.69218,0,1756.9,50.697,11.111,0.015913,-4.227e-05,0.030084,0.10472,1
1730,54.3,18.536,0,0.66689,0,1756.9,50.697,11.111,0.015913,-4.227e-05,0.030084,0.10893,1
1730,54.3,18.536,0,0.66689,0,1756.9,50.697,11.111,0.015913,-4.227e-05,0.030084,0.10893,1
1730,54.3,18.536,0,0.66689,0,1757.4,50.698,11.111,0.016677,-2.6376e-05,0.017762,0.1072,1
1731.1,54.3,18.575,0,0.64249,0,1757.6,50.698,11.111,0.016899,-1.8782e-05,0.012441,0.11071,1
1731.1,54.3,18.575,0,0.64249,0,1757.6,50.698,11.111,0.016899,-1.8782e-05,0.012441,0.11071,1
1731.1,54.3,18.575,0,0.64249,0,1758.3,50.699,11.111,0.017039,9.0196e-07,-0.00058797,0.10807,1
1731.1,54.3,18.575,0,0.64249,0,1758.5,50.699,11.111,0.01694,6.2064e-06,-0.0040611,0.10721,1
1731.1,54.3,18.575,0,0.64249,0,1758.5,50.699,11.111,0.01694,6.2064e-06,-0.0040611,0.10721,1
1731.1,54.3,18.575,0,0.64249,0,1758.7,50.7,11.111,0.016781,1.0844e-05,-0.0071498,0.10637,1
1731.1,54.3,18.575,0,0.64249,0,1758.7,50.7,11.111,0.016781,1.0844e-05,-0.0071498,0.10637,1
1731.1,54.3,18.575,0,0.64249,0,1758.7,50.7,11.111,0.016781,1.0844e-05,-0.0071498,0.10637,1
1731.1,54.3,18.575,0,0.64249,0,1758.7,50.7,11.111,0.016781,1.0844e-05,-0.0071498,0.10637,1
1731.1,54.3,18.575,0,0.64249,0,1758.7,50.7,11.111,0.016781,1.0844e-05,-0.0071498,0.10637,1
1731.1,54.3,18.575,0,0.64249,0,1758.9,50.7,11.111,0.016569,1.4824e-05,-0.0098818,0.10554,1
1731.1,54.3,18.575,0,0.64249,0,1758.9,50.7,11.111,0.016569,1.4824e-05,-0.0098818,0.10554,1
1731.1,54.3,18.575,0,0.64249,0,1758.9,50.7,11.111,0.016569,1.4824e-05,-0.0098818,0.10554,1
1731.1,54.3,18.575,0,0.64249,0,1758.9,50.7,11.111,0.016569,1.4824e-05,-0.0098818,0.10554,1
1731.1,54.3,18.575,0,0.64249,0,1758.9,50.7,11.111,0.016569,1.4824e-05,-0.0098818,0.10554,1
1731.1,54.3,18.575,0,0.64249,0,1758.9,50.7,11.111,0.016569,1.4824e-05,-0.0098818,0.10554,1
1731.1,54.3,18.575,0,0.64249,0,1758.9,50.7,11.111,0.016569,1.4824e-05,-0.0098818,0.10554,1
1733.4,54.3,18.649,0,0.59624,0,1758.9,50.7,11.111,0.016569,1.4824e-05,-0.0098818,0.1145,1
1733.4,54.3,18.649,0,0.59624,0,1758.9,50.7,11.111,0.016569,1.4824e-05,-0.0098818,0.1145,1
1733.4,54.3,18.649,0,0.59624,0,1758.9,50.7,11.111,0.016569,1.4824e-05,-0.0098818,0.1145,1
1733.4,54.3,18.649,0,0.59624,0,1758.9,50.7,11.111,0.016569,1.4824e-05,-0.0098818,0.1145,1
1734.5,54.3,18.684,0,0.57433,0,1759.6,50.701,11.111,0.015679,2.3089e-05,-0.016195,0.1165,1
1734.5,54.3,18.684,0,0.57433,0,1759.6,50.701,11.111,0.015679,2.3089e-05,-0.016195,0.1165,1
1734.5,54.3,18.684,0,0.57433,0,1760.1,50.702,11.111,0.014928,2.5945e-05,-0.019068,0.11454,1
1735.6,54.3,18.718,0,0.55321,0,1760.1,50.702,11.111,0.014928,2.5945e-05,-0.019068,0.11963,1
1735.6,54.3,18.718,0,0.55321,0,1760.1,50.702,11.111,0.014928,2.5945e-05,-0.019068,0.11963,1
1736.4,54.3,18.74,0,0.53954,0,1760.7,50.702,11.111,0.013653,2.7192e-05,-0.021781,0.12002,1
1736.4,54.3,18.74,0,0.53954,0,1760.7,50.702,11.111,0.013653,2.7192e-05,-0.021781,0.12002,1
1736.4,54.3,18.74,0,0.53954,0,1760.7,50.702,11.111,0.013653,2.7192e-05,-0.021781,0.12002,1
1736.4,54.3,18.74,0,0.53954,0,1761.2,50.703,11.111,0.012747,2.6542e-05,-0.02273,0.11794,1
1737.1,54.3,18.761,0,0.5262,0,1761.2,50.703,11.111,0.012747,2.6542e-05,-0.02273,0.1215,1
1737.1,54.3,18.761,0,0.5262,0,1761.2,50.703,11.111,0.012747,2.6542e-05,-0.02273,0.1215,1
1737.1,54.3,18.761,0,0.5262,0,1761.2,50.703,11.111,0.012747,2.6542e-05,-0.02273,0.1215,1
1737.5,54.3,18.772,0,0.51965,0,1761.2,50.703,11.111,0.012747,2.6542e-05,-0.02273,0.12336,1
1737.5,54.3,18.772,0,0.51965,0,1761.2,50.703,11.111,0.012747,2.6542e-05,-0.02273,0.12336,1
1737.5,54.3,18.772,0,0.51965,0,1761.2,50.703,11.111,0.012747,2.6542e-05,-0.02273,0.12336,1
1737.5,54.3,18.772,0,0.51965,0,1761.2,50.703,11.111,0.012747,2.6542e-05,-0.02273,0.12336,1
1737.5,54.3,18.772,0,0.51965,0,1761.2,50.703,11.111,0.012747,2.6542e-05,-0.02273,0.12336,1
1737.5,54.3,18.772,0,0.51965,0,1761.2,50.703,11.111,0.012747,2.6542e-05,-0.02273,0.12336,1
1737.5,54.3,18.772,0,0.51965,0,1761.8,50.704,11.111,0.011359,2.4159e-05,-0.02316,0.12009,1
1737.5,54.3,18.772,0,0.51965,0,1761.8,50.704,11.111,0.011359,2.4159e-05,-0.02316,0.12009,1
1737.5,54.3,18.772,0,0.51965,0,1762.1,50.704,11.111,0.010897,2.3125e-05,-0.02309,0.11904,1
1737.5,54.3,18.772,0,0.51965,0,1762.1,50.704,11.111,0.010897,2.3125e-05,-0.02309,0.11904,1
1739,54.3,18.812,0,0.49424,0,1762.3,50.704,11.111,0.010439,2.2017e-05,-0.022931,0.12536,1
1739,54.3,18.812,0,0.49424,0,1762.3,50.704,11.111,0.010439,2.2017e-05,-0.022931,0.12536,1
1739,54.3,18.812,0,0.49424,0,1762.9,50.705,11.111,0.0091016,1.8474e-05,-0.02202,0.12199,1
1740.1,54.3,18.842,0,0.47597,0,1762.9,50.705,11.111,0.0091016,1.8474e-05,-0.02202,0.12781,1
1740.1,54.3,18.842,0,0.47597,0,1762.9,50.705,11.111,0.0091016,1.8474e-05,-0.02202,0.12781,1
1740.5,54.3,18.851,0,0.47003,0,1762.9,50.705,11.111,0.0091016,1.8474e-05,-0.02202,0.12988,1
1740.5,54.3,18.851,0,0.47003,0,1762.9,50.705,11.111,0.0091016,1.8474e-05,-0.02202,0.12988,1
1740.5,54.3,18.851,0,0.47003,0,1762.9,50.705,11.111,0.0091016,1.8474e-05,-0.02202,0.12988,1
1740.5,54.3,18.851,0,0.47003,0,1762.9,50.705,11.111,0.0091016,1.8474e-05,-0.02202,0.12988,1
1740.5,54.3,18.851,0,0.47003,0,1762.9,50.705,11.111,0.0091016,1.8474e-05,-0.02202,0.12988,1
1740.5,54.3,18.851,0,0.47003,0,1762.9,50.705,11.111,0.0091016,1.8474e-05,-0.02202,0.12988,1
1740.5,54.3,18.851,0,0.47003,0,1762.9,50.705,11.111,0.0091016,1.8474e-05,-0.02202,0.12988,1
1740.9,54.3,18.86,0,0.46416,0,1762.9,50.705,11.111,0.0091016,1.8474e-05,-0.02202,0.13201,1
1740.9,54.3,18.86,0,0.46416,0,1763.8,50.705,11.031,0.0073893,-4,-0.02264,0.12659,1
1740.9,54.3,18.86,0,0.46416,0,1763.8,50.705,11.031,0.0073893,-4,-0.02264,0.12659,1
1740.9,54.3,18.86,0,0.46416,0,1763.8,50.705,11.031,0.0073893,-4,-0.02264,0.12659,1
1740.9,54.3,18.86,0,0.46416,0,1763.8,50.705,11.031,0.0073893,-4,-0.02264,0.12659,1
1740.9,54.3,18.86,0,0.46416,0,1764,50.706,10.951,0.0069565,-4,-0.02173,0.12494,1
1740.9,54.3,18.86,0,0.46416,0,1764,50.706,10.951,0.0069565,-4,-0.02173,0.12494,1
1742.4,54.3,18.897,0,0.44138,0,1764,50.706,10.951,0.0069565,-4,-0.02173,0.13331,1
1742.4,54.3,18.897,0,0.44138,0,1764,50.706,10.951,0.0069565,-4,-0.02173,0.13331,1
1742.4,54.3,18.897,0,0.44138,0,1764.7,50.706,10.711,0.005766,-4,-0.019046,0.12805,1
1743.1,54.3,18.914,0,0.43041,0,1764.7,50.706,10.711,0.005766,-4,-0.019046,0.13236,1
1743.1,54.3,18.914,0,0.43041,0,1764.7,50.706,10.711,0.005766,-4,-0.019046,0.13236,1
1743.1,54.3,18.914,0,0.43041,0,1765.3,50.706,10.471,0.0047322,-4,-0.016486,0.12721,1
1743.1,54.3,18.914,0,0.43041,0,1765.3,50.706,10.471,0.0047322,-4,-0.016486,0.12721,1
1743.1,54.3,18.914,0,0.43041,0,1765.3,50.706,10.471,0.0047322,-4,-0.016486,0.12721,1
1743.1,54.3,18.914,0,0.43041,0,1765.5,50.706,10.391,0.0044207,-4,-0.01567,0.12557,1
1743.1,54.3,18.914,0,0.43041,0,1765.7,50.706,10.311,0.0041251,-4,-0.014875,0.12397,1
1743.1,54.3,18.914,0,0.43041,0,1765.7,50.706,10.311,0.0041251,-4,-0.014875,0.12397,1
1743.1,54.3,18.914,0,0.43041,0,1766,50.706,10.231,0.003845,-4,-0.014103,0.12241,1
1743.1,54.3,18.914,0,0.43041,0,1766,50.706,10.231,0.003845,-4,-0.014103,0.12241,1
1745.4,54.3,18.964,0,0.39905,0,1766,50.706,10.231,0.003845,-4,-0.014103,0.13538,1
1745.4,54.3,18.964,0,0.39905,0,1766,50.706,10.231,0.003845,-4,-0.014103,0.13538,1
