9027.8,54.3,19.946,0,0.034457,0,9220.2,50.741,0,0,0,0,0.0088612,0
9028.2,54.3,19.947,0,0.034403,0,9220.2,50.741,0,0,0,0,0.0088796,0
9028.2,54.3,19.947,0,0.034403,0,9220.2,50.741,0,0,0,0,0.0088796,0
9028.2,54.3,19.947,0,0.034403,0,9220.2,50.741,0,0,0,0,0.0088796,0
9029.8,54.3,19.949,0,0.034187,0,9220.2,50.741,0,0,0,0,0.008954,0
9029.8,54.3,19.949,0,0.034187,0,9220.2,50.741,0,0,0,0,0.008954,0
9030.6,54.3,19.951,0,0.034079,0,9220.2,50.741,0,0,0,0,0.0089917,0
9030.6,54.3,19.951,0,0.034079,0,9220.2,50.741,0,0,0,0,0.0089917,0
9030.6,54.3,19.951,0,0.034079,0,9220.2,50.741,0,0,0,0,0.0089917,0
9030.6,54.3,19.951,0,0.034079,0,9220.2,50.741,0,0,0,0,0.0089917,0
9030.6,54.3,19.951,0,0.034079,0,9220.2,50.741,0,0,0,0,0.0089917,0
9030.6,54.3,19.951,0,0.034079,0,9220.2,50.741,0,0,0,0,0.0089917,0
9030.6,54.3,19.951,0,0.034079,0,9220.2,50.741,0,0,0,0,0.0089917,0
9030.6,54.3,19.951,0,0.034079,0,9220.2,50.741,0,0,0,0,0.0089917,0
9030.6,54.3,19.951,0,0.034079,0,9220.2,50.741,0,0,0,0,0.0089917,0
9030.6,54.3,19.951,0,0.034079,0,9220.2,50.741,0,0,0,0,0.0089917,0
9031.4,54.3,19.952,0,0.033969,0,9220.2,50.741,0,0,0,0,0.0090297,0
9031.4,54.3,19.952,0,0.033969,0,9220.2,50.741,0,0,0,0,0.0090297,0
9031.4,54.3,19.952,0,0.033969,0,9220.2,50.741,0,0,0,0,0.0090297,0
9031.4,54.3,19.952,0,0.033969,0,9220.2,50.741,0,0,0,0,0.0090297,0
9031.4,54.3,19.952,0,0.033969,0,9220.2,50.741,0,0,0,0,0.0090297,0
9031.4,54.3,19.952,0,0.033969,0,9220.2,50.741,0,0,0,0,0.0090297,0
9031.4,54.3,19.952,0,0.033969,0,9220.2,50.741,0,0,0,0,0.0090297,0
9031.8,54.3,19.953,0,0.033915,0,9220.2,50.741,0,0,0,0,0.0090488,0
9031.8,54.3,19.953,0,0.033915,0,9220.2,50.741,0,0,0,0,0.0090488,0
9031.8,54.3,19.953,0,0.033915,0,9220.2,50.741,0,0,0,0,0.0090488,0
9031.8,54.3,19.953,0,0.033915,0,9220.2,50.741,0,0,0,0,0.0090488,0
9031.8,54.3,19.953,0,0.033915,0,9220.2,50.741,0,0,0,0,0.0090488,0
9033,54.3,19.955,0,0.033751,0,9220.2,50.741,0,0,0,0,0.0091066,0
9033,54.3,19.955,0,0.033751,0,9220.2,50.741,0,0,0,0,0.0091066,0
9035,54.3,19.958,0,0.033475,0,9220.2,50.741,0,0,0,0,0.0092047,0
9035,54.3,19.958,0,0.033475,0,9220.2,50.741,0,0,0,0,0.0092047,0
9035.8,54.3,19.96,0,0.033364,0,9220.2,50.741,0,0,0,0,0.0092446,0
9035.8,54.3,19.96,0,0.033364,0,9220.2,50.741,0,0,0,0,0.0092446,0
9035.8,54.3,19.96,0,0.033364,0,9220.2,50.741,0,0,0,0,0.0092446,0
9035.8,54.3,19.96,0,0.033364,0,9220.2,50.741,0,0,0,0,0.0092446,0
9036.2,54.3,19.96,0,0.033308,0,9220.2,50.741,0,0,0,0,0.0092646,0
9036.2,54.3,19.96,0,0.033308,0,9220.2,50.741,0,0,0,0,0.0092646,0
9036.2,54.3,19.96,0,0.033308,0,9220.2,50.741,0,0,0,0,0.0092646,0
9036.2,54.3,19.96,0,0.033308,0,9220.2,50.741,0,0,0,0,0.0092646,0
9036.2,54.3,19.96,0,0.033308,0,9220.2,50.741,0,0,0,0,0.0092646,0
9036.2,54.3,19.96,0,0.033308,0,9220.2,50.741,0,0,0,0,0.0092646,0
9036.2,54.3,19.96,0,0.033308,0,9220.2,50.741,0,0,0,0,0.0092646,0
9036.2,54.3,19.96,0,0.033308,0,9220.2,50.741,0,0,0,0,0.0092646,0
9036.6,54.3,19.961,0,0.033252,0,9220.2,50.741,0,0,0,0,0.0092848,0
9037,54.3,19.962,0,0.033195,0,9220.2,50.741,0,0,0,0,0.009305,0
9037,54.3,19.962,0,0.033195,0,9220.2,50.741,0,0,0,0,0.009305,0
9037.8,54.3,19.963,0,0.033083,0,9220.2,50.741,0,0,0,0,0.0093457,0
9037.8,54.3,19.963,0,0.033083,0,9220.2,50.741,0,0,0,0,0.0093457,0
9037.8,54.3,19.963,0,0.033083,0,9220.2,50.741,0,0,0,0,0.0093457,0
9037.8,54.3,19.963,0,0.033083,0,9220.2,50.741,0,0,0,0,0.0093457,0
9037.8,54.3,19.963,0,0.033083,0,9220.2,50.741,0,0,0,0,0.0093457,0
9037.8,54.3,19.963,0,0.033083,0,9220.2,50.741,0,0,0,0,0.0093457,0
9037.8,54.3,19.963,0,0.033083,0,9220.2,50.741,0,0,0,0,0.0093457,0
9037.8,54.3,19.963,0,0.033083,0,9220.2,50.741,0,0,0,0,0.0093457,0
9037.8,54.3,19.963,0,0.033083,0,9220.2,50.741,0,0,0,0,0.0093457,0
9037.8,54.3,19.963,0,0.033083,0,9220.2,50.741,0,0,0,0,0.0093457,0
9037.8,54.3,19.963,0,0.033083,0,9220.2,50.741,0,0,0,0,0.0093457,0
9037.8,54.3,19.963,0,0.033083,0,9220.2,50.741,0,0,0,0,0.0093457,0
9037.8,54.3,19.963,0,0.033083,0,9220.2,50.741,0,0,0,0,0.0093457,0
9037.8,54.3,19.963,0,0.033083,0,9220.2,50.741,0,0,0,0,0.0093457,0
9037.8,54.3,19.963,0,0.033083,0,9220.2,50.741,0,0,0,0,0.0093457,0
9037.8,54.3,19.963,0,0.033083,0,9220.2,50.741,0,0,0,0,0.0093457,0
9037.8,54.3,19.963,0,0.033083,0,9220.2,50.741,0,0,0,0,0.0093457,0
9037.8,54.3,19.963,0,0.033083,0,9220.2,50.741,0,0,0,0,0.0093457,0
9041,54.3,19.968,0,0.03263,0,9220.2,50.741,0,0,0,0,0.0095122,0
9041,54.3,19.968,0,0.03263,0,9220.2,50.741,0,0,0,0,0.0095122,0
9041.4,54.3,19.969,0,0.032573,0,9220.2,50.741,0,0,0,0,0.0095335,0
9041.8,54.3,19.969,0,0.032516,0,9220.2,50.741,0,0,0,0,0.0095548,0
9041.8,54.3,19.969,0,0.032516,0,9220.2,50.741,0,0,0,0,0.0095548,0
9041.8,54.3,19.969,0,0.032516,0,9220.2,50.741,0,0,0,0,0.0095548,0
9043.4,54.3,19.972,0,0.032287,0,9220.2,50.741,0,0,0,0,0.0096411,0
9043.4,54.3,19.972,0,0.032287,0,9220.2,50.741,0,0,0,0,0.0096411,0
9043.4,54.3,19.972,0,0.032287,0,9220.2,50.741,0,0,0,0,0.0096411,0
9043.4,54.3,19.972,0,0.032287,0,9220.2,50.741,0,0,0,0,0.0096411,0
9043.4,54.3,19.972,0,0.032287,0,9220.2,50.741,0,0,0,0,0.0096411,0
9043.4,54.3,19.972,0,0.032287,0,9220.2,50.741,0,0,0,0,0.0096411,0
9043.4,54.3,19.972,0,0.032287,0,9220.2,50.741,0,0,0,0,0.0096411,0
9043.4,54.3,19.972,0,0.032287,0,9220.2,50.741,0,0,0,0,0.0096411,0
9043.4,54.3,19.972,0,0.032287,0,9220.2,50.741,0,0,0,0,0.0096411,0
9043.4,54.3,19.972,0,0.032287,0,9220.2,50.741,0,0,0,0,0.0096411,0
9043.4,54.3,19.972,0,0.032287,0,9220.2,50.741,0,0,0,0,0.0096411,0
9043.4,54.3,19.972,0,0.032287,0,9220.2,50.741,0,0,0,0,0.0096411,0
9043.4,54.3,19.972,0,0.032287,0,9220.2,50.741,0,0,0,0,0.0096411,0
9043.4,54.3,19.972,0,0.032287,0,9220.2,50.741,0,0,0,0,0.0096411,0
9046.6,54.3,19.977,0,0.031823,0,9220.2,50.741,0,0,0,0,0.0098185,0
9047,54.3,19.978,0,0.031764,0,9220.2,50.741,0,0,0,0,0.0098412,0
9047,54.3,19.978,0,0.031764,0,9220.2,50.741,0,0,0,0,0.0098412,0
9047,54.3,19.978,0,0.031764,0,9220.2,50.741,0,0,0,0,0.0098412,0
9047,54.3,19.978,0,0.031764,0,9220.2,50.741,0,0,0,0,0.0098412,0
9047,54.3,19.978,0,0.031764,0,9220.2,50.741,0,0,0,0,0.0098412,0
9047,54.3,19.978,0,0.031764,0,9220.2,50.741,0,0,0,0,0.0098412,0
9047,54.3,19.978,0,0.031764,0,9220.2,50.741,0,0,0,0,0.0098412,0
9047,54.3,19.978,0,0.031764,0,9220.2,50.741,0,0,0,0,0.0098412,0
9047,54.3,19.978,0,0.031764,0,9220.2,50.741,0,0,0,0,0.0098412,0
9047,54.3,19.978,0,0.031764,0,9220.2,50.741,0,0,0,0,0.0098412,0
9047,54.3,19.978,0,0.031764,0,9220.2,50.741,0,0,0,0,0.0098412,0
9047,54.3,19.978,0,0.031764,0,9220.2,50.741,0,0,0,0,0.0098412,0
9047,54.3,19.978,0,0.031764,0,9220.2,50.741,0,0,0,0,0.0098412,0
9047,54.3,19.978,0,0.031764,0,9220.2,50.741,0,0,0,0,0.0098412,0
9047,54.3,19.978,0,0.031764,0,9220.2,50.741,0,0,0,0,0.0098412,0
9047,54.3,19.978,0,0.031764,0,9220.2,50.741,0,0,0,0,0.0098412,0
9047,54.3,19.978,0,0.031764,0,9220.2,50.741,0,0,0,0,0.0098412,0
9047,54.3,19.978,0,0.031764,0,9220.2,50.741,0,0,0,0,0.0098412,0
9047.8,54.3,19.979,0,0.031648,0,9220.2,50.741,0,0,0,0,0.0098867,0
9047.8,54.3,19.979,0,0.031648,0,9220.2,50.741,0,0,0,0,0.0098867,0
9048.2,54.3,19.98,0,0.031589,0,9220.2,50.741,0,0,0,0,0.0099097,0
9048.2,54.3,19.98,0,0.031589,0,9220.2,50.741,0,0,0,0,0.0099097,0
9048.2,54.3,19.98,0,0.031589,0,9220.2,50.741,0,0,0,0,0.0099097,0
9048.2,54.3,19.98,0,0.031589,0,9220.2,50.741,0,0,0,0,0.0099097,0
9048.2,54.3,19.98,0,0.031589,0,9220.2,50.741,0,0,0,0,0.0099097,0
9051,54.3,19.984,0,0.031175,0,9220.2,50.741,0,0,0,0,0.010073,0
9051,54.3,19.984,0,0.031175,0,9220.2,50.741,0,0,0,0,0.010073,0
9051,54.3,19.984,0,0.031175,0,9220.2,50.741,0,0,0,0,0.010073,0
9051,54.3,19.984,0,0.031175,0,9220.2,50.741,0,0,0,0,0.010073,0
9051,54.3,19.984,0,0.031175,0,9220.2,50.741,0,0,0,0,0.010073,0
9051,54.3,19.984,0,0.031175,0,9220.2,50.741,0,0,0,0,0.010073,0
9051,54.3,19.984,0,0.031175,0,9220.2,50.741,0,0,0,0,0.010073,0
9051,54.3,19.984,0,0.031175,0,9220.2,50.741,0,0,0,0,0.010073,0
9051,54.3,19.984,0,0.031175,0,9220.2,50.741,0,0,0,0,0.010073,0
9051,54.3,19.984,0,0.031175,0,9220.2,50.741,0,0,0,0,0.010073,0
9051,54.3,19.984,0,0.031175,0,9220.2,50.741,0,0,0,0,0.010073,0
9051,54.3,19.984,0,0.031175,0,9220.2,50.741,0,0,0,0,0.010073,0
9051,54.3,19.984,0,0.031175,0,9220.2,50.741,0,0,0,0,0.010073,0
9051,54.3,19.984,0,0.031175,0,9220.2,50.741,0,0,0,0,0.010073,0
9051,54.3,19.984,0,0.031175,0,9220.2,50.741,0,0,0,0,0.010073,0
9051,54.3,19.984,0,0.031175,0,9220.2,50.741,0,0,0,0,0.010073,0
9051,54.3,19.984,0,0.031175,0,9220.2,50.741,0,0,0,0,0.010073,0
9051,54.3,19.984,0,0.031175,0,9220.2,50.741,0,0,0,0,0.010073,0
9051,54.3,19.984,0,0.031175,0,9220.2,50.741,0,0,0,0,0.010073,0
9053.4,54.3,19.988,0,0.030816,0,9220.2,50.741,0,0,0,0,0.010218,0
9053.4,54.3,19.988,0,0.030816,0,9220.2,50.741,0,0,0,0,0.010218,0
9053.4,54.3,19.988,0,0.030816,0,9220.2,50.741,0,0,0,0,0.010218,0
9055,54.3,19.99,0,0.030576,0,9220.2,50.741,0,0,0,0,0.010317,0
9055.4,54.3,19.991,0,0.030515,0,9220.2,50.741,0,0,0,0,0.010342,0
9055.4,54.3,19.991,0,0.030515,0,9220.2,50.741,0,0,0,0,0.010342,0
9056.6,54.3,19.993,0,0.030333,0,9220.2,50.741,0,0,0,0,0.010418,0
9056.6,54.3,19.993,0,0.030333,0,9220.2,50.741,0,0,0,0,0.010418,0
9056.6,54.3,19.993,0,0.030333,0,9220.2,50.741,0,0,0,0,0.010418,0
9056.6,54.3,19.993,0,0.030333,0,9220.2,50.741,0,0,0,0,0.010418,0
9056.6,54.3,19.993,0,0.030333,0,9220.2,50.741,0,0,0,0,0.010418,0
9056.6,54.3,19.993,0,0.030333,0,9220.2,50.741,0,0,0,0,0.010418,0
9056.6,54.3,19.993,0,0.030333,0,9220.2,50.741,0,0,0,0,0.010418,0
9056.6,54.3,19.993,0,0.030333,0,9220.2,50.741,0,0,0,0,0.010418,0
9056.6,54.3,19.993,0,0.030333,0,9220.2,50.741,0,0,0,0,0.010418,0
9056.6,54.3,19.993,0,0.030333,0,9220.2,50.741,0,0,0,0,0.010418,0
9057.4,54.3,19.994,0,0.030212,0,9220.2,50.741,0,0,0,0,0.010469,0
9057.4,54.3,19.994,0,0.030212,0,9220.2,50.741,0,0,0,0,0.010469,0
9057.4,54.3,19.994,0,0.030212,0,9220.2,50.741,0,0,0,0,0.010469,0
9057.4,54.3,19.994,0,0.030212,0,9220.2,50.741,0,0,0,0,0.010469,0
9057.4,54.3,19.994,0,0.030212,0,9220.2,50.741,0,0,0,0,0.010469,0
9057.4,54.3,19.994,0,0.030212,0,9220.2,50.741,0,0,0,0,0.010469,0
9057.4,54.3,19.994,0,0.030212,0,9220.2,50.741,0,0,0,0,0.010469,0
9057.8,54.3,19.995,0,0.03015,0,9220.2,50.741,0,0,0,0,0.010495,0
9057.8,54.3,19.995,0,0.03015,0,9220.2,50.741,0,0,0,0,0.010495,0
9058.2,54.3,19.995,0,0.03009,0,9220.2,50.741,0,0,0,0,0.010521,0
9059.4,54.3,19.997,0,0.029906,0,9220.2,50.741,0,0,0,0,0.010599,0
9059.4,54.3,19.997,0,0.029906,0,9220.2,50.741,0,0,0,0,0.010599,0
9061,54.3,19.999,0,0.029659,0,9220.2,50.741,0,0,0,0,0.010706,0
9061,54.3,19.999,0,0.029659,0,9220.2,50.741,0,0,0,0,0.010706,0
9061.4,54.3,20,0,0.029597,0,9220.2,50.741,0,0,0,0,0.010733,0
9061.4,54.3,20,0,0.029597,0,9220.2,50.741,0,0,0,0,0.010733,0
9061.4,54.3,20,0,0.029597,0,9220.2,50.741,0,0,0,0,0.010733,0
9061.4,54.3,20,0,0.029597,0,9220.2,50.741,0,0,0,0,0.010733,0
9061.4,54.3,20,0,0.029597,0,9220.2,50.741,0,0,0,0,0.010733,0
9061.4,54.3,20,0,0.029597,0,9220.2,50.741,0,0,0,0,0.010733,0
9061.4,54.3,20,0,0.029597,0,9220.2,50.741,0,0,0,0,0.010733,0
9061.4,54.3,20,0,0.029597,0,9220.2,50.741,0,0,0,0,0.010733,0
9061.4,54.3,20,0,0.029597,0,9220.2,50.741,0,0,0,0,0.010733,0
9061.4,54.3,20,0,0.029597,0,9220.2,50.741,0,0,0,0,0.010733,0
9061.4,54.3,20,0,0.029597,0,9220.2,50.741,0,0,0,0,0.010733,0
9061.4,54.3,20,0,0.029597,0,9220.2,50.741,0,0,0,0,0.010733,0
9061.4,54.3,20,0,0.029597,0,9220.2,50.741,0,0,0,0,0.010733,0
9063.4,54.3,20.003,0,0.029287,0,9220.2,50.741,0,0,0,0,0.010869,0
9063.4,54.3,20.003,0,0.029287,0,9220.2,50.741,0,0,0,0,0.010869,0
9064.2,54.3,20.004,0,0.029163,0,9220.2,50.741,0,0,0,0,0.010925,0
9064.2,54.3,20.004,0,0.029163,0,9220.2,50.741,0,0,0,0,0.010925,0
9064.2,54.3,20.004,0,0.029163,0,9220.2,50.741,0,0,0,0,0.010925,0
9064.2,54.3,20.004,0,0.029163,0,9220.2,50.741,0,0,0,0,0.010925,0
9064.2,54.3,20.004,0,0.029163,0,9220.2,50.741,0,0,0,0,0.010925,0
9064.2,54.3,20.004,0,0.029163,0,9220.2,50.741,0,0,0,0,0.010925,0
9064.2,54.3,20.004,0,0.029163,0,9220.2,50.741,0,0,0,0,0.010925,0
9064.2,54.3,20.004,0,0.029163,0,9220.2,50.741,0,0,0,0,0.010925,0
9064.2,54.3,20.004,0,0.029163,0,9220.2,50.741,0,0,0,0,0.010925,0
9064.2,54.3,20.004,0,0.029163,0,9220.2,50.741,0,0,0,0,0.010925,0
9064.2,54.3,20.004,0,0.029163,0,9220.2,50.741,0,0,0,0,0.010925,0
9064.2,54.3,20.004,0,0.029163,0,9220.2,50.741,0,0,0,0,0.010925,0
9064.2,54.3,20.004,0,0.029163,0,9220.2,50.741,0,0,0,0,0.010925,0
9067,54.3,20.008,0,0.028723,0,9220.2,50.741,0,0,0,0,0.011125,0
9067.4,54.3,20.009,0,0.02866,0,9220.2,50.741,0,0,0,0,0.011154,0
9067.8,54.3,20.009,0,0.028596,0,9220.2,50.741,0,0,0,0,0.011183,0
9067.8,54.3,20.009,0,0.028596,0,9220.2,50.741,0,0,0,0,0.011183,0
9067.8,54.3,20.009,0,0.028596,0,9220.2,50.741,0,0,0,0,0.011183,0
9067.8,54.3,20.009,0,0.028596,0,9220.2,50.741,0,0,0,0,0.011183,0
9067.8,54.3,20.009,0,0.028596,0,9220.2,50.741,0,0,0,0,0.011183,0
9067.8,54.3,20.009,0,0.028596,0,9220.2,50.741,0,0,0,0,0.011183,0
9067.8,54.3,20.009,0,0.028596,0,9220.2,50.741,0,0,0,0,0.011183,0
9067.8,54.3,20.009,0,0.028596,0,9220.2,50.741,0,0,0,0,0.011183,0
9067.8,54.3,20.009,0,0.028596,0,9220.2,50.741,0,0,0,0,0.011183,0
9067.8,54.3,20.009,0,0.028596,0,9220.2,50.741,0,0,0,0,0.011183,0
9067.8,54.3,20.009,0,0.028596,0,9220.2,50.741,0,0,0,0,0.011183,0
9067.8,54.3,20.009,0,0.028596,0,9220.2,50.741,0,0,0,0,0.011183,0
9067.8,54.3,20.009,0,0.028596,0,9220.2,50.741,0,0,0,0,0.011183,0
9067.8,54.3,20.009,0,0.028596,0,9220.2,50.741,0,0,0,0,0.011183,0
9067.8,54.3,20.009,0,0.028596,0,9220.2,50.741,0,0,0,0,0.011183,0
9067.8,54.3,20.009,0,0.028596,0,9220.2,50.741,0,0,0,0,0.011183,0
9067.8,54.3,20.009,0,0.028596,0,9220.2,50.741,0,0,0,0,0.011183,0
9067.8,54.3,20.009,0,0.028596,0,9220.2,50.741,0,0,0,0,0.011183,0
9067.8,54.3,20.009,0,0.028596,0,9220.2,50.741,0,0,0,0,0.011183,0
9068.6,54.3,20.01,0,0.02847,0,9220.2,50.741,0,0,0,0,0.011242,0
9068.6,54.3,20.01,0,0.02847,0,9220.2,50.741,0,0,0,0,0.011242,0
9068.6,54.3,20.01,0,0.02847,0,9220.2,50.741,0,0,0,0,0.011242,0
9069.8,54.3,20.012,0,0.028279,0,9220.2,50.741,0,0,0,0,0.011332,0
9070.6,54.3,20.013,0,0.02815,0,9220.2,50.741,0,0,0,0,0.011392,0
9072.2,54.3,20.015,0,0.027894,0,9220.2,50.741,0,0,0,0,0.011515,0
9072.2,54.3,20.015,0,0.027894,0,9220.2,50.741,0,0,0,0,0.011515,0
9072.2,54.3,20.015,0,0.027894,0,9220.2,50.741,0,0,0,0,0.011515,0
9072.2,54.3,20.015,0,0.027894,0,9220.2,50.741,0,0,0,0,0.011515,0
9072.2,54.3,20.015,0,0.027894,0,9220.2,50.741,0,0,0,0,0.011515,0
9072.2,54.3,20.015,0,0.027894,0,9220.2,50.741,0,0,0,0,0.011515,0
9072.2,54.3,20.015,0,0.027894,0,9220.2,50.741,0,0,0,0,0.011515,0
9072.2,54.3,20.015,0,0.027894,0,9220.2,50.741,0,0,0,0,0.011515,0
9072.2,54.3,20.015,0,0.027894,0,9220.2,50.741,0,0,0,0,0.011515,0
9072.2,54.3,20.015,0,0.027894,0,9220.2,50.741,0,0,0,0,0.011515,0
9072.2,54.3,20.015,0,0.027894,0,9220.2,50.741,0,0,0,0,0.011515,0
9072.2,54.3,20.015,0,0.027894,0,9220.2,50.741,0,0,0,0,0.011515,0
9073.4,54.3,20.017,0,0.027701,0,9220.2,50.741,0,0,0,0,0.01161,0
9073.4,54.3,20.017,0,0.027701,0,9220.2,50.741,0,0,0,0,0.01161,0
9073.4,54.3,20.017,0,0.027701,0,9220.2,50.741,0,0,0,0,0.01161,0
9073.4,54.3,20.017,0,0.027701,0,9220.2,50.741,0,0,0,0,0.01161,0
9073.4,54.3,20.017,0,0.027701,0,9220.2,50.741,0,0,0,0,0.01161,0
9073.4,54.3,20.017,0,0.027701,0,9220.2,50.741,0,0,0,0,0.01161,0
9073.4,54.3,20.017,0,0.027701,0,9220.2,50.741,0,0,0,0,0.01161,0
9073.8,54.3,20.018,0,0.027637,0,9220.2,50.741,0,0,0,0,0.011641,0
9073.8,54.3,20.018,0,0.027637,0,9220.2,50.741,0,0,0,0,0.011641,0
9074.2,54.3,20.018,0,0.027573,0,9220.2,50.741,0,0,0,0,0.011673,0
9074.2,54.3,20.018,0,0.027573,0,9220.2,50.741,0,0,0,0,0.011673,0
9075.8,54.3,20.02,0,0.027314,0,9220.2,50.741,0,0,0,0,0.011803,0
9077,54.3,20.022,0,0.027119,0,9220.2,50.741,0,0,0,0,0.011902,0
9077.4,54.3,20.023,0,0.027054,0,9220.2,50.741,0,0,0,0,0.011935,0
9077.4,54.3,20.023,0,0.027054,0,9220.2,50.741,0,0,0,0,0.011935,0
9077.4,54.3,20.023,0,0.027054,0,9220.2,50.741,0,0,0,0,0.011935,0
9077.4,54.3,20.023,0,0.027054,0,9220.2,50.741,0,0,0,0,0.011935,0
9077.4,54.3,20.023,0,0.027054,0,9220.2,50.741,0,0,0,0,0.011935,0
9077.4,54.3,20.023,0,0.027054,0,9220.2,50.741,0,0,0,0,0.011935,0
9077.4,54.3,20.023,0,0.027054,0,9220.2,50.741,0,0,0,0,0.011935,0
9077.4,54.3,20.023,0,0.027054,0,9220.2,50.741,0,0,0,0,0.011935,0
9077.4,54.3,20.023,0,0.027054,0,9220.2,50.741,0,0,0,0,0.011935,0
9077.4,54.3,20.023,0,0.027054,0,9220.2,50.741,0,0,0,0,0.011935,0
9078.2,54.3,20.024,0,0.026923,0,9220.2,50.741,0,0,0,0,0.012002,0
9078.2,54.3,20.024,0,0.026923,0,9220.2,50.741,0,0,0,0,0.012002,0
9078.2,54.3,20.024,0,0.026923,0,9220.2,50.741,0,0,0,0,0.012002,0
9078.2,54.3,20.024,0,0.026923,0,9220.2,50.741,0,0,0,0,0.012002,0
9078.2,54.3,20.024,0,0.026923,0,9220.2,50.741,0,0,0,0,0.012002,0
9078.2,54.3,20.024,0,0.026923,0,9220.2,50.741,0,0,0,0,0.012002,0
9078.2,54.3,20.024,0,0.026923,0,9220.2,50.741,0,0,0,0,0.012002,0
9078.2,54.3,20.024,0,0.026923,0,9220.2,50.741,0,0,0,0,0.012002,0
9078.2,54.3,20.024,0,0.026923,0,9220.2,50.741,0,0,0,0,0.012002,0
9078.2,54.3,20.024,0,0.026923,0,9220.2,50.741,0,0,0,0,0.012002,0
9078.2,54.3,20.024,0,0.026923,0,9220.2,50.741,0,0,0,0,0.012002,0
9078.2,54.3,20.024,0,0.026923,0,9220.2,50.741,0,0,0,0,0.012002,0
9078.2,54.3,20.024,0,0.026923,0,9220.2,50.741,0,0,0,0,0.012002,0
9080.2,54.3,20.026,0,0.026594,0,9220.2,50.741,0,0,0,0,0.012174,0
9080.2,54.3,20.026,0,0.026594,0,9220.2,50.741,0,0,0,0,0.012174,0
9081.4,54.3,20.028,0,0.026396,0,9220.2,50.741,0,0,0,0,0.012279,0
9081.4,54.3,20.028,0,0.026396,0,9220.2,50.741,0,0,0,0,0.012279,0
9081.4,54.3,20.028,0,0.026396,0,9220.2,50.741,0,0,0,0,0.012279,0
9081.4,54.3,20.028,0,0.026396,0,9220.2,50.741,0,0,0,0,0.012279,0
9081.4,54.3,20.028,0,0.026396,0,9220.2,50.741,0,0,0,0,0.012279,0
9081.4,54.3,20.028,0,0.026396,0,9220.2,50.741,0,0,0,0,0.012279,0
9081.4,54.3,20.028,0,0.026396,0,9220.2,50.741,0,0,0,0,0.012279,0
9081.4,54.3,20.028,0,0.026396,0,9220.2,50.741,0,0,0,0,0.012279,0
9081.4,54.3,20.028,0,0.026396,0,9220.2,50.741,0,0,0,0,0.012279,0
9083.8,54.3,20.031,0,0.025998,0,9220.2,50.741,0,0,0,0,0.012495,0
9083.8,54.3,20.031,0,0.025998,0,9220.2,50.741,0,0,0,0,0.012495,0
9084.2,54.3,20.032,0,0.025931,0,9220.2,50.741,0,0,0,0,0.012532,0
9084.2,54.3,20.032,0,0.025931,0,9220.2,50.741,0,0,0,0,0.012532,0
9084.2,54.3,20.032,0,0.025931,0,9220.2,50.741,0,0,0,0,0.012532,0
9084.6,54.3,20.032,0,0.025865,0,9220.2,50.741,0,0,0,0,0.012569,0
9084.6,54.3,20.032,0,0.025865,0,9220.2,50.741,0,0,0,0,0.012569,0
9084.6,54.3,20.032,0,0.025865,0,9220.2,50.741,0,0,0,0,0.012569,0
9084.6,54.3,20.032,0,0.025865,0,9220.2,50.741,0,0,0,0,0.012569,0
9084.6,54.3,20.032,0,0.025865,0,9220.2,50.741,0,0,0,0,0.012569,0
9084.6,54.3,20.032,0,0.025865,0,9220.2,50.741,0,0,0,0,0.012569,0
9084.6,54.3,20.032,0,0.025865,0,9220.2,50.741,0,0,0,0,0.012569,0
9085.4,54.3,20.033,0,0.025731,0,9220.2,50.741,0,0,0,0,0.012644,0
9085.4,54.3,20.033,0,0.025731,0,9220.2,50.741,0,0,0,0,0.012644,0
9085.8,54.3,20.034,0,0.025664,0,9220.2,50.741,0,0,0,0,0.012681,0
9085.8,54.3,20.034,0,0.025664,0,9220.2,50.741,0,0,0,0,0.012681,0
9086.2,54.3,20.034,0,0.025597,0,9220.2,50.741,0,0,0,0,0.012719,0
9087,54.3,20.035,0,0.025463,0,9220.2,50.741,0,0,0,0,0.012796,0
9087.8,54.3,20.036,0,0.025328,0,9220.2,50.741,0,0,0,0,0.012873,0
9087.8,54.3,20.036,0,0.025328,0,9220.2,50.741,0,0,0,0,0.012873,0
9088.2,54.3,20.037,0,0.025261,0,9220.2,50.741,0,0,0,0,0.012912,0
9088.2,54.3,20.037,0,0.025261,0,9220.2,50.741,0,0,0,0,0.012912,0
9088.2,54.3,20.037,0,0.025261,0,9220.2,50.741,0,0,0,0,0.012912,0
9088.2,54.3,20.037,0,0.025261,0,9220.2,50.741,0,0,0,0,0.012912,0
9088.2,54.3,20.037,0,0.025261,0,9220.2,50.741,0,0,0,0,0.012912,0
9088.2,54.3,20.037,0,0.025261,0,9220.2,50.741,0,0,0,0,0.012912,0
9088.2,54.3,20.037,0,0.025261,0,9220.2,50.741,0,0,0,0,0.012912,0
9088.2,54.3,20.037,0,0.025261,0,9220.2,50.741,0,0,0,0,0.012912,0
9088.2,54.3,20.037,0,0.025261,0,9220.2,50.741,0,0,0,0,0.012912,0
9088.2,54.3,20.037,0,0.025261,0,9220.2,50.741,0,0,0,0,0.012912,0
9088.2,54.3,20.037,0,0.025261,0,9220.2,50.741,0,0,0,0,0.012912,0
9088.2,54.3,20.037,0,0.025261,0,9220.2,50.741,0,0,0,0,0.012912,0
9088.2,54.3,20.037,0,0.025261,0,9220.2,50.741,0,0,0,0,0.012912,0
9088.2,54.3,20.037,0,0.025261,0,9220.2,50.741,0,0,0,0,0.012912,0
9088.2,54.3,20.037,0,0.025261,0,9220.2,50.741,0,0,0,0,0.012912,0
9088.2,54.3,20.037,0,0.025261,0,9220.2,50.741,0,0,0,0,0.012912,0
9088.2,54.3,20.037,0,0.025261,0,9220.2,50.741,0,0,0,0,0.012912,0
9088.2,54.3,20.037,0,0.025261,0,9220.2,50.741,0,0,0,0,0.012912,0
9090.6,54.3,20.04,0,0.024854,0,9220.2,50.741,0,0,0,0,0.013152,0
9090.6,54.3,20.04,0,0.024854,0,9220.2,50.741,0,0,0,0,0.013152,0
9091,54.3,20.04,0,0.024786,0,9220.2,50.741,0,0,0,0,0.013192,0
9091,54.3,20.04,0,0.024786,0,9220.2,50.741,0,0,0,0,0.013192,0
9091,54.3,20.04,0,0.024786,0,9220.2,50.741,0,0,0,0,0.013192,0
9092.6,54.3,20.042,0,0.024513,0,9220.2,50.741,0,0,0,0,0.013358,0
9093,54.3,20.043,0,0.024445,0,9220.2,50.741,0,0,0,0,0.0134,0
9093.4,54.3,20.043,0,0.024377,0,9220.2,50.741,0,0,0,0,0.013442,0
9093.4,54.3,20.043,0,0.024377,0,9220.2,50.741,0,0,0,0,0.013442,0
9093.4,54.3,20.043,0,0.024377,0,9220.2,50.741,0,0,0,0,0.013442,0
9093.4,54.3,20.043,0,0.024377,0,9220.2,50.741,0,0,0,0,0.013442,0
9093.4,54.3,20.043,0,0.024377,0,9220.2,50.741,0,0,0,0,0.013442,0
9093.4,54.3,20.043,0,0.024377,0,9220.2,50.741,0,0,0,0,0.013442,0
9093.4,54.3,20.043,0,0.024377,0,9220.2,50.741,0,0,0,0,0.013442,0
9093.4,54.3,20.043,0,0.024377,0,9220.2,50.741,0,0,0,0,0.013442,0
9093.4,54.3,20.043,0,0.024377,0,9220.2,50.741,0,0,0,0,0.013442,0
9093.4,54.3,20.043,0,0.024377,0,9220.2,50.741,0,0,0,0,0.013442,0
9093.4,54.3,20.043,0,0.024377,0,9220.2,50.741,0,0,0,0,0.013442,0
9093.4,54.3,20.043,0,0.024377,0,9220.2,50.741,0,0,0,0,0.013442,0
9093.4,54.3,20.043,0,0.024377,0,9220.2,50.741,0,0,0,0,0.013442,0
9093.4,54.3,20.043,0,0.024377,0,9220.2,50.741,0,0,0,0,0.013442,0
9093.4,54.3,20.043,0,0.024377,0,9220.2,50.741,0,0,0,0,0.013442,0
9093.4,54.3,20.043,0,0.024377,0,9220.2,50.741,0,0,0,0,0.013442,0
9093.4,54.3,20.043,0,0.024377,0,9220.2,50.741,0,0,0,0,0.013442,0
9093.4,54.3,20.043,0,0.024377,0,9220.2,50.741,0,0,0,0,0.013442,0
9093.4,54.3,20.043,0,0.024377,0,9220.2,50.741,0,0,0,0,0.013442,0
9093.4,54.3,20.043,0,0.024377,0,9220.2,50.741,0,0,0,0,0.013442,0
9094.2,54.3,20.044,0,0.024239,0,9220.2,50.741,0,0,0,0,0.013528,0
9095,54.3,20.045,0,0.024102,0,9220.2,50.741,0,0,0,0,0.013614,0
9095,54.3,20.045,0,0.024102,0,9220.2,50.741,0,0,0,0,0.013614,0
9095,54.3,20.045,0,0.024102,0,9220.2,50.741,0,0,0,0,0.013614,0
9095,54.3,20.045,0,0.024102,0,9220.2,50.741,0.04,0,4,0,0.013642,0
9097.4,54.3,20.048,0,0.023688,0,9220.2,50.741,0.04,0,4,0,0.013909,0
9098.2,54.3,20.049,0,0.023549,0,9220.2,50.741,0.28,-3.3341e-05,4,-0.0010685,0.014168,0
9098.2,54.3,20.049,0,0.023549,0,9220.2,50.741,0.28,-3.3341e-05,4,-0.0010685,0.014168,0
9098.2,54.3,20.049,0,0.023549,0,9220.2,50.741,0.28,-3.3341e-05,4,-0.0010685,0.014168,0
9098.2,54.3,20.049,0,0.023549,0,9220.2,50.741,0.44,-0.00011674,4,-0.0025892,0.01428,0
9098.2,54.3,20.049,0,0.023549,0,9220.2,50.741,0.52,-0.00018614,4,-0.0035769,0.014336,0
9098.2,54.3,20.049,0,0.023549,0,9220.2,50.741,0.52,-0.00018614,4,-0.0035769,0.014336,0
9098.2,54.3,20.049,0,0.023549,0,9220.2,50.741,0.52,-0.00018614,4,-0.0035769,0.014336,0
9098.2,54.3,20.049,0,0.023549,0,9220.2,50.741,0.52,-0.00018614,4,-0.0035769,0.014336,0
9098.2,54.3,20.049,0,0.023549,0,9220.2,50.741,0.52,-0.00018614,4,-0.0035769,0.014336,0
9098.2,54.3,20.049,0,0.023549,0,9220.2,50.741,0.52,-0.00018614,4,-0.0035769,0.014336,0
9098.2,54.3,20.049,0,0.023549,0,9220.2,50.741,0.52,-0.00018614,4,-0.0035769,0.014336,0
9098.2,54.3,20.049,0,0.023549,0,9220.2,50.741,0.52,-0.00018614,4,-0.0035769,0.014336,0
9099.4,54.3,20.05,0,0.023341,0,9220.2,50.741,0.52,-0.00018614,4,-0.0035769,0.014479,0
9099.4,54.3,20.05,0,0.023341,0,9220.3,50.741,0.68,-0.00039437,4,-0.0059648,0.014592,0
9099.4,54.3,20.05,0,0.023341,0,9220.3,50.741,0.68,-0.00039437,4,-0.0059648,0.014592,0
9099.4,54.3,20.05,0,0.023341,0,9220.3,50.741,0.68,-0.00039437,4,-0.0059648,0.014592,0
9099.4,54.3,20.05,0,0.023341,0,9220.3,50.741,0.68,-0.00039437,4,-0.0059648,0.014592,0
9099.4,54.3,20.05,0,0.023341,0,9220.3,50.741,0.68,-0.00039437,4,-0.0059648,0.014592,0
9099.4,54.3,20.05,0,0.023341,0,9220.3,50.741,0.68,-0.00039437,4,-0.0059648,0.014592,0
9099.4,54.3,20.05,0,0.023341,0,9220.3,50.741,0.68,-0.00039437,4,-0.0059648,0.014592,0
9099.4,54.3,20.05,0,0.023341,0,9220.3,50.741,0.68,-0.00039437,4,-0.0059648,0.014592,0
9099.4,54.3,20.05,0,0.023341,0,9220.3,50.741,0.68,-0.00039437,4,-0.0059648,0.014592,0
9099.4,54.3,20.05,0,0.023341,0,9220.3,50.741,0.68,-0.00039437,4,-0.0059648,0.014592,0
9101,54.3,20.052,0,0.023062,0,9220.3,50.741,0.76,-0.00053822,4,-0.0073448,0.014846,0
9101,54.3,20.052,0,0.023062,0,9220.3,50.741,1,-0.0011539,4,-0.012085,0.015018,0
9101.8,54.3,20.053,0,0.022922,0,9220.3,50.741,1,-0.0011539,4,-0.012085,0.01512,0
9101.8,54.3,20.053,0,0.022922,0,9220.3,50.741,1,-0.0011539,4,-0.012085,0.01512,0
9101.8,54.3,20.053,0,0.022922,0,9220.4,50.741,1.32,-0.0024573,4,-0.019287,0.015351,0
9103.8,54.3,20.055,0,0.022571,0,9220.4,50.741,1.32,-0.0024573,4,-0.019287,0.015615,0
9103.8,54.3,20.055,0,0.022571,0,9220.4,50.741,1.32,-0.0024573,4,-0.019287,0.015615,0
9103.8,54.3,20.055,0,0.022571,0,9220.4,50.741,1.32,-0.0024573,4,-0.019287,0.015615,0
9103.8,54.3,20.055,0,0.022571,0,9220.4,50.741,1.32,-0.0024573,4,-0.019287,0.015615,0
9103.8,54.3,20.055,0,0.022571,0,9220.4,50.741,1.32,-0.0024573,4,-0.019287,0.015615,0
9103.8,54.3,20.055,0,0.022571,0,9220.4,50.741,1.32,-0.0024573,4,-0.019287,0.015615,0
9104.3,54.3,20.054,0,-0.12909,0,9220.4,50.741,1.32,-0.0024573,4,-0.019287,0.015669,0
9104.3,54.3,20.054,0,-0.12909,0,9220.4,50.741,1.32,-0.0024573,4,-0.019287,0.015669,0
9104.3,54.3,20.054,0,-0.12909,0,9220.4,50.741,1.32,-0.0024573,4,-0.019287,0.015669,0
9104.3,54.3,20.054,0,-0.12909,0,9220.4,50.741,1.32,-0.0024573,4,-0.019287,0.015669,0
9104.3,54.3,20.054,0,-0.12909,0,9220.5,50.741,1.64,-0.0043433,3.9999,-0.026613,0.015906,0
9104.3,54.3,20.054,0,-0.12909,0,9220.5,50.741,1.64,-0.0043433,3.9999,-0.026613,0.015906,0
9105.9,54.3,20.044,0,-0.13131,0,9220.6,50.741,1.72,-0.0049029,3.9999,-0.02835,0.016188,0
9106.3,54.3,20.041,0,-0.13068,0,9220.6,50.741,1.72,-0.0049029,3.9999,-0.02835,0.016244,0
9106.3,54.3,20.041,0,-0.13068,0,9220.7,50.74,2.04,-0.0074544,3.9999,-0.034498,0.016484,0
9106.3,54.3,20.041,0,-0.13068,0,9220.8,50.74,2.12,-0.0081607,3.9999,-0.035774,0.016545,0
9106.3,54.3,20.041,0,-0.13068,0,9220.8,50.74,2.12,-0.0081607,3.9999,-0.035774,0.016545,0
9106.3,54.3,20.041,0,-0.13068,0,9220.8,50.74,2.12,-0.0081607,3.9999,-0.035774,0.016545,0
9106.3,54.3,20.041,0,-0.13068,0,9220.8,50.74,2.12,-0.0081607,3.9999,-0.035774,0.016545,0
9106.3,54.3,20.041,0,-0.13068,0,9220.8,50.74,2.12,-0.0081607,3.9999,-0.035774,0.016545,0
9106.3,54.3,20.041,0,-0.13068,0,9220.8,50.74,2.12,-0.0081607,3.9999,-0.035774,0.016545,0
9107.5,54.3,20.033,0,-0.12863,0,9220.8,50.74,2.12,-0.0081607,3.9999,-0.035774,0.01672,0
9107.5,54.3,20.033,0,-0.12863,0,9220.8,50.74,2.12,-0.0081607,3.9999,-0.035774,0.01672,0
9107.5,54.3,20.033,0,-0.12863,0,9220.8,50.74,2.12,-0.0081607,3.9999,-0.035774,0.01672,0
9107.5,54.3,20.033,0,-0.12863,0,9220.8,50.74,2.12,-0.0081607,3.9999,-0.035774,0.01672,0
9107.5,54.3,20.033,0,-0.12863,0,9220.8,50.74,2.12,-0.0081607,3.9999,-0.035774,0.01672,0
9107.5,54.3,20.033,0,-0.12863,0,9220.8,50.74,2.12,-0.0081607,3.9999,-0.035774,0.01672,0
9107.5,54.3,20.033,0,-0.12863,0,9220.8,50.74,2.12,-0.0081607,3.9999,-0.035774,0.01672,0
9107.5,54.3,20.033,0,-0.12863,0,9220.8,50.74,2.12,-0.0081607,3.9999,-0.035774,0.01672,0
9107.5,54.3,20.033,0,-0.12863,0,9220.8,50.74,2.12,-0.0081607,3.9999,-0.035774,0.01672,0
9107.5,54.3,20.033,0,-0.12863,0,9220.8,50.74,2.12,-0.0081607,3.9999,-0.035774,0.01672,0
9107.5,54.3,20.033,0,-0.12863,0,9220.8,50.74,2.12,-0.0081607,3.9999,-0.035774,0.01672,0
9107.5,54.3,20.033,0,-0.12863,0,9220.9,50.74,2.28,-0.0096386,3.9999,-0.037941,0.016841,0
9107.5,54.3,20.033,0,-0.12863,0,9220.9,50.74,2.28,-0.0096386,3.9999,-0.037941,0.016841,0
9109.1,54.3,20.023,0,-0.12553,0,9220.9,50.739,2.36,-0.010405,3.9999,-0.038814,0.017143,0
9110.3,54.3,20.016,0,-0.12292,0,9221.1,50.739,2.6,-0.012776,3.9999,-0.040522,0.017515,0
9110.3,54.3,20.016,0,-0.12292,0,9221.3,50.737,2.92,-0.01599,3.9998,-0.040543,0.017762,0
9110.3,54.3,20.016,0,-0.12292,0,9221.3,50.737,2.92,-0.01599,3.9998,-0.040543,0.017762,0
9110.3,54.3,20.016,0,-0.12292,0,9221.3,50.737,3,-0.016781,3.9998,-0.040141,0.017824,0
9110.3,54.3,20.016,0,-0.12292,0,9221.3,50.737,3,-0.016781,3.9998,-0.040141,0.017824,0
9110.3,54.3,20.016,0,-0.12292,0,9221.3,50.737,3,-0.016781,3.9998,-0.040141,0.017824,0
9110.3,54.3,20.016,0,-0.12292,0,9221.4,50.737,3.0799,-0.017561,3.9998,-0.03958,0.017885,0
9110.3,54.3,20.016,0,-0.12292,0,9221.4,50.737,3.0799,-0.017561,3.9998,-0.03958,0.017885,0
9110.3,54.3,20.016,0,-0.12292,0,9221.4,50.737,3.0799,-0.017561,3.9998,-0.03958,0.017885,0
9110.3,54.3,20.016,0,-0.12292,0,9221.4,50.737,3.0799,-0.017561,3.9998,-0.03958,0.017885,0
9110.3,54.3,20.016,0,-0.12292,0,9221.4,50.737,3.0799,-0.017561,3.9998,-0.03958,0.017885,0
9110.3,54.3,20.016,0,-0.12292,0,9221.4,50.737,3.0799,-0.017561,3.9998,-0.03958,0.017885,0
9110.3,54.3,20.016,0,-0.12292,0,9221.4,50.737,3.0799,-0.017561,3.9998,-0.03958,0.017885,0
9110.3,54.3,20.016,0,-0.12292,0,9221.4,50.737,3.0799,-0.017561,3.9998,-0.03958,0.017885,0
9110.3,54.3,20.016,0,-0.12292,0,9221.4,50.737,3.0799,-0.017561,3.9998,-0.03958,0.017885,0
9112.3,54.3,20.004,0,-0.11806,0,9221.4,50.737,3.0799,-0.017561,3.9998,-0.03958,0.018213,0
9112.3,54.3,20.004,0,-0.11806,0,9221.4,50.737,3.0799,-0.017561,3.9998,-0.03958,0.018213,0
9112.3,54.3,20.004,0,-0.11806,0,9221.4,50.737,3.0799,-0.017561,3.9998,-0.03958,0.018213,0
9113.1,54.3,19.999,0,-0.11592,0,9221.5,50.736,3.2399,-0.019075,3.9998,-0.037996,0.018473,0
9113.5,54.3,19.997,0,-0.11481,0,9221.5,50.736,3.2399,-0.019075,3.9998,-0.037996,0.018541,0
9115.1,54.3,19.988,0,-0.11011,0,9221.9,50.734,3.6399,-0.022462,3.9999,-0.031622,0.019137,0
9115.1,54.3,19.988,0,-0.11011,0,9222,50.733,3.7999,-0.023606,3.9999,-0.028268,0.019264,0
9115.1,54.3,19.988,0,-0.11011,0,9222,50.733,3.7999,-0.023606,3.9999,-0.028268,0.019264,0
9115.1,54.3,19.988,0,-0.11011,0,9222,50.733,3.7999,-0.023606,3.9999,-0.028268,0.019264,0
9115.1,54.3,19.988,0,-0.11011,0,9222,50.733,3.7999,-0.023606,3.9999,-0.028268,0.019264,0
9115.1,54.3,19.988,0,-0.11011,0,9222,50.733,3.7999,-0.023606,3.9999,-0.028268,0.019264,0
9115.1,54.3,19.988,0,-0.11011,0,9222,50.733,3.7999,-0.023606,3.9999,-0.028268,0.019264,0
9115.1,54.3,19.988,0,-0.11011,0,9222,50.733,3.7999,-0.023606,3.9999,-0.028268,0.019264,0
9115.1,54.3,19.988,0,-0.11011,0,9222,50.733,3.7999,-0.023606,3.9999,-0.028268,0.019264,0
9115.1,54.3,19.988,0,-0.11011,0,9222,50.733,3.7999,-0.023606,3.9999,-0.028268,0.019264,0
9115.9,54.3,19.983,0,-0.1076,0,9222,50.733,3.7999,-0.023606,3.9999,-0.028268,0.019409,0
9115.9,54.3,19.983,0,-0.1076,0,9222,50.733,3.7999,-0.023606,3.9999,-0.028268,0.019409,0
9115.9,54.3,19.983,0,-0.1076,0,9222,50.733,3.7999,-0.023606,3.9999,-0.028268,0.019409,0
9115.9,54.3,19.983,0,-0.1076,0,9222,50.733,3.7999,-0.023606,3.9999,-0.028268,0.019409,0
9115.9,54.3,19.983,0,-0.1076,0,9222,50.733,3.7999,-0.023606,3.9999,-0.028268,0.019409,0
9115.9,54.3,19.983,0,-0.1076,0,9222,50.733,3.7999,-0.023606,3.9999,-0.028268,0.019409,0
9115.9,54.3,19.983,0,-0.1076,0,9222,50.733,3.7999,-0.023606,3.9999,-0.028268,0.019409,0
9115.9,54.3,19.983,0,-0.1076,0,9222,50.733,3.7999,-0.023606,3.9999,-0.028268,0.019409,0
9115.9,54.3,19.983,0,-0.1076,0,9222,50.733,3.7999,-0.023606,3.9999,-0.028268,0.019409,0
9115.9,54.3,19.983,0,-0.1076,0,9222,50.733,3.7999,-0.023606,3.9999,-0.028268,0.019409,0
9115.9,54.3,19.983,0,-0.1076,0,9222.2,50.732,3.9599,-0.024607,3.9999,-0.024562,0.019536,0
9115.9,54.3,19.983,0,-0.1076,0,9222.2,50.732,3.9599,-0.024607,3.9999,-0.024562,0.019536,0
9115.9,54.3,19.983,0,-0.1076,0,9222.2,50.732,3.9599,-0.024607,3.9999,-0.024562,0.019536,0
9115.9,54.3,19.983,0,-0.1076,0,9222.2,50.732,3.9599,-0.024607,3.9999,-0.024562,0.019536,0
9115.9,54.3,19.983,0,-0.1076,0,9222.3,50.731,4.1199,-0.025454,3.9999,-0.020585,0.019663,0
9117.9,54.3,19.973,0,-0.10085,0,9222.3,50.731,4.1199,-0.025454,3.9999,-0.020585,0.020039,0
9119.1,54.3,19.967,0,-0.096485,0,9222.6,50.73,4.3599,-0.026415,4,-0.014287,0.020465,0
9119.1,54.3,19.967,0,-0.096485,0,9222.9,50.727,4.6799,-0.027105,4,-0.005683,0.020723,0
9120.3,54.3,19.961,0,-0.091878,0,9222.9,50.727,4.6799,-0.027105,4,-0.005683,0.020964,0
9120.3,54.3,19.961,0,-0.091878,0,9223.1,50.726,4.8399,-0.027197,4.0001,-0.0014576,0.021093,0
9120.3,54.3,19.961,0,-0.091878,0,9223.2,50.726,4.9199,-0.027182,4.0001,0.00060706,0.021158,0
9120.3,54.3,19.961,0,-0.091878,0,9223.2,50.726,4.9199,-0.027182,4.0001,0.00060706,0.021158,0
9120.3,54.3,19.961,0,-0.091878,0,9223.2,50.726,4.9199,-0.027182,4.0001,0.00060706,0.021158,0
9120.3,54.3,19.961,0,-0.091878,0,9223.2,50.726,4.9199,-0.027182,4.0001,0.00060706,0.021158,0
9120.3,54.3,19.961,0,-0.091878,0,9223.2,50.726,4.9199,-0.027182,4.0001,0.00060706,0.021158,0
9120.3,54.3,19.961,0,-0.091878,0,9223.2,50.726,4.9199,-0.027182,4.0001,0.00060706,0.021158,0
9120.3,54.3,19.961,0,-0.091878,0,9223.2,50.726,4.9199,-0.027182,4.0001,0.00060706,0.021158,0
9121.5,54.3,19.956,0,-0.087033,0,9223.2,50.726,4.9199,-0.027182,4.0001,0.00060706,0.021406,0
9121.5,54.3,19.956,0,-0.087033,0,9223.2,50.726,4.9199,-0.027182,4.0001,0.00060706,0.021406,0
9121.5,54.3,19.956,0,-0.087033,0,9223.2,50.726,4.9199,-0.027182,4.0001,0.00060706,0.021406,0
9121.5,54.3,19.956,0,-0.087033,0,9223.2,50.726,4.9199,-0.027182,4.0001,0.00060706,0.021406,0
9121.5,54.3,19.956,0,-0.087033,0,9223.2,50.726,4.9199,-0.027182,4.0001,0.00060706,0.021406,0
9121.5,54.3,19.956,0,-0.087033,0,9223.2,50.726,4.9199,-0.027182,4.0001,0.00060706,0.021406,0
9121.5,54.3,19.956,0,-0.087033,0,9223.2,50.726,4.9199,-0.027182,4.0001,0.00060706,0.021406,0
9121.5,54.3,19.956,0,-0.087033,0,9223.2,50.726,4.9199,-0.027182,4.0001,0.00060706,0.021406,0
9121.5,54.3,19.956,0,-0.087033,0,9223.4,50.725,5.0799,-0.027033,4.0001,0.0046042,0.021536,0
9121.5,54.3,19.956,0,-0.087033,0,9223.4,50.725,5.0799,-0.027033,4.0001,0.0046042,0.021536,0
9122.6,54.3,19.951,0,-0.081956,0,9223.4,50.725,5.0799,-0.027033,4.0001,0.0046042,0.021791,0
9122.6,54.3,19.951,0,-0.081956,0,9223.4,50.725,5.0799,-0.027033,4.0001,0.0046042,0.021791,0
9123.4,54.3,19.948,0,-0.078443,0,9223.7,50.723,5.3199,-0.02653,4.0001,0.010175,0.022161,0
9123.4,54.3,19.948,0,-0.078443,0,9224.2,50.721,5.6399,-0.025392,4.0001,0.016605,0.02242,0
9123.4,54.3,19.948,0,-0.078443,0,9224.2,50.721,5.6399,-0.025392,4.0001,0.016605,0.02242,0
9123.4,54.3,19.948,0,-0.078443,0,9224.3,50.721,5.7199,-0.025035,4.0001,0.018009,0.022485,0
9123.4,54.3,19.948,0,-0.078443,0,9224.3,50.721,5.7199,-0.025035,4.0001,0.018009,0.022485,0
9123.4,54.3,19.948,0,-0.078443,0,9224.3,50.721,5.7199,-0.025035,4.0001,0.018009,0.022485,0
9123.4,54.3,19.948,0,-0.078443,0,9224.4,50.72,5.7999,-0.024652,4.0001,0.019328,0.022549,0
9123.4,54.3,19.948,0,-0.078443,0,9224.4,50.72,5.7999,-0.024652,4.0001,0.019328,0.022549,0
9123.4,54.3,19.948,0,-0.078443,0,9224.5,50.72,5.88,-0.024245,4.0001,0.02056,0.022613,0
9123.4,54.3,19.948,0,-0.078443,0,9224.5,50.72,5.88,-0.024245,4.0001,0.02056,0.022613,0
9123.4,54.3,19.948,0,-0.078443,0,9224.7,50.719,5.96,-0.023815,4.0001,0.021703,0.022677,0
9123.4,54.3,19.948,0,-0.078443,0,9224.7,50.719,5.96,-0.023815,4.0001,0.021703,0.022677,0
9123.4,54.3,19.948,0,-0.078443,0,9224.8,50.719,6.04,-0.023365,4.0001,0.022757,0.022741,0
9123.4,54.3,19.948,0,-0.078443,0,9224.9,50.718,6.12,-0.022895,4.0001,0.023722,0.022805,0
9123.4,54.3,19.948,0,-0.078443,0,9224.9,50.718,6.12,-0.022895,4.0001,0.023722,0.022805,0
9123.4,54.3,19.948,0,-0.078443,0,9224.9,50.718,6.12,-0.022895,4.0001,0.023722,0.022805,0
9123.4,54.3,19.948,0,-0.078443,0,9225,50.718,6.2,-0.022409,4.0001,0.024597,0.022869,0
9123.4,54.3,19.948,0,-0.078443,0,9225.1,50.717,6.28,-0.021907,4.0001,0.025384,0.022932,0
9123.4,54.3,19.948,0,-0.078443,0,9225.1,50.717,6.28,-0.021907,4.0001,0.025384,0.022932,0
9123.4,54.3,19.948,0,-0.078443,0,9225.3,50.717,6.36,-0.021392,4.0001,0.026083,0.022995,0
9123.4,54.3,19.948,0,-0.078443,0,9225.3,50.717,6.36,-0.021392,4.0001,0.026083,0.022995,0
9123.4,54.3,19.948,0,-0.078443,0,9225.4,50.716,6.44,-0.020865,4.0001,0.026695,0.023059,0
9123.4,54.3,19.948,0,-0.078443,0,9225.4,50.716,6.44,-0.020865,4.0001,0.026695,0.023059,0
9123.4,54.3,19.948,0,-0.078443,0,9225.5,50.716,6.52,-0.020328,4.0001,0.027223,0.023122,0
9123.4,54.3,19.948,0,-0.078443,0,9225.5,50.716,6.52,-0.020328,4.0001,0.027223,0.023122,0
9123.4,54.3,19.948,0,-0.078443,0,9225.7,50.716,6.6,-0.019782,4.0001,0.027668,0.023184,0
9123.4,54.3,19.948,0,-0.078443,0,9225.7,50.716,6.6,-0.019782,4.0001,0.027668,0.023184,0
9123.4,54.3,19.948,0,-0.078443,0,9225.8,50.715,6.68,-0.019229,4.0001,0.028031,0.023247,0
9123.4,54.3,19.948,0,-0.078443,0,9225.8,50.715,6.68,-0.019229,4.0001,0.028031,0.023247,0
9123.4,54.3,19.948,0,-0.078443,0,9225.8,50.715,6.68,-0.019229,4.0001,0.028031,0.023247,0
9123.4,54.3,19.948,0,-0.078443,0,9225.9,50.715,6.76,-0.01867,4.0001,0.028316,0.02331,0
9123.4,54.3,19.948,0,-0.078443,0,9225.9,50.715,6.76,-0.01867,4.0001,0.028316,0.02331,0
9123.4,54.3,19.948,0,-0.078443,0,9226.1,50.714,6.84,-0.018108,4.0001,0.028525,0.023372,0
9123.4,54.3,19.948,0,-0.078443,0,9226.2,50.714,6.92,-0.017543,4.0001,0.02866,0.023434,0
9123.4,54.3,19.948,0,-0.078443,0,9226.2,50.714,6.92,-0.017543,4.0001,0.02866,0.023434,0
9123.4,54.3,19.948,0,-0.078443,0,9226.2,50.714,6.92,-0.017543,4.0001,0.02866,0.023434,0
9123.4,54.3,19.948,0,-0.078443,0,9226.3,50.714,7,-0.016977,4.0001,0.028725,0.023496,0
9123.4,54.3,19.948,0,-0.078443,0,9226.5,50.713,7.08,-0.016411,4.0001,0.028723,0.023558,0
9123.4,54.3,19.948,0,-0.078443,0,9226.5,50.713,7.08,-0.016411,4.0001,0.028723,0.023558,0
9123.4,54.3,19.948,0,-0.078443,0,9226.6,50.713,7.16,-0.015847,4.0001,0.028656,0.02362,0
9123.4,54.3,19.948,0,-0.078443,0,9226.6,50.713,7.16,-0.015847,4.0001,0.028656,0.02362,0
9123.4,54.3,19.948,0,-0.078443,0,9226.8,50.713,7.24,-0.015285,4.0001,0.028528,0.023682,0
9123.4,54.3,19.948,0,-0.078443,0,9226.8,50.713,7.24,-0.015285,4.0001,0.028528,0.023682,0
9123.4,54.3,19.948,0,-0.078443,0,9226.8,50.713,7.24,-0.015285,4.0001,0.028528,0.023682,0
9123.4,54.3,19.948,0,-0.078443,0,9226.9,50.713,7.32,-0.014727,4.0001,0.028342,0.023743,0
9123.4,54.3,19.948,0,-0.078443,0,9227.1,50.712,7.4,-0.014174,4.0001,0.028101,0.023805,0
9123.4,54.3,19.948,0,-0.078443,0,9227.1,50.712,7.4,-0.014174,4.0001,0.028101,0.023805,0
9123.4,54.3,19.948,0,-0.078443,0,9227.1,50.712,7.4,-0.014174,4.0001,0.028101,0.023805,0
9123.4,54.3,19.948,0,-0.078443,0,9227.1,50.712,7.4,-0.014174,4.0001,0.028101,0.023805,0
9123.4,54.3,19.948,0,-0.078443,0,9227.2,50.712,7.48,-0.013627,4.0001,0.027809,0.023866,0
9123.4,54.3,19.948,0,-0.078443,0,9227.4,50.712,7.56,-0.013087,4.0001,0.02747,0.023927,0
9123.4,54.3,19.948,0,-0.078443,0,9227.4,50.712,7.56,-0.013087,4.0001,0.02747,0.023927,0
9123.4,54.3,19.948,0,-0.078443,0,9227.4,50.712,7.56,-0.013087,4.0001,0.02747,0.023927,0
9123.4,54.3,19.948,0,-0.078443,0,9227.4,50.712,7.56,-0.013087,4.0001,0.02747,0.023927,0
9123.4,54.3,19.948,0,-0.078443,0,9227.4,50.712,7.56,-0.013087,4.0001,0.02747,0.023927,0
9123.4,54.3,19.948,0,-0.078443,0,9227.5,50.711,7.64,-0.012554,4.0001,0.027086,0.023987,0
9135,54.3,19.919,0,-0.016766,0,9227.5,50.711,7.64,-0.012554,4.0001,0.027086,0.026979,0
9135,54.3,19.919,0,-0.016766,0,9227.8,50.711,7.8,-0.011515,4,0.026199,0.027105,0
9135,54.3,19.919,0,-0.016766,0,9227.8,50.711,7.8,-0.011515,4,0.026199,0.027105,0
9135.8,54.3,19.919,0,-0.011847,0,9227.8,50.711,7.8,-0.011515,4,0.026199,0.02734,0
9136.6,54.3,19.918,0,-0.0068544,0,9228.1,50.711,7.96,-0.010515,4,0.025174,0.027704,0
9137,54.3,19.918,0,-0.0043317,0,9228.1,50.711,7.96,-0.010515,4,0.025174,0.027825,0
9137,54.3,19.918,0,-0.0043317,0,9228.1,50.711,7.96,-0.010515,4,0.025174,0.027825,0
9137.4,54.3,19.918,0,-0.0017913,0,9228.1,50.711,7.96,-0.010515,4,0.025174,0.027947,0
9137.4,54.3,19.918,0,-0.0017913,0,9228.1,50.711,7.96,-0.010515,4,0.025174,0.027947,0
9137.4,54.3,19.918,0,-0.0017913,0,9228.1,50.711,7.96,-0.010515,4,0.025174,0.027947,0
9137.4,54.3,19.918,0,-0.0017913,0,9228.1,50.711,7.96,-0.010515,4,0.025174,0.027947,0
9137.4,54.3,19.918,0,-0.0017913,0,9228.1,50.711,7.96,-0.010515,4,0.025174,0.027947,0
9137.4,54.3,19.918,0,-0.0017913,0,9228.1,50.711,7.96,-0.010515,4,0.025174,0.027947,0
9137.4,54.3,19.918,0,-0.0017913,0,9228.1,50.711,7.96,-0.010515,4,0.025174,0.027947,0
9137.4,54.3,19.918,0,-0.0017913,0,9228.1,50.711,7.96,-0.010515,4,0.025174,0.027947,0
9137.4,54.3,19.918,0,-0.0017913,0,9228.1,50.711,7.96,-0.010515,4,0.025174,0.027947,0
9137.4,54.3,19.918,0,-0.0017913,0,9228.1,50.711,7.96,-0.010515,4,0.025174,0.027947,0
9137.4,54.3,19.918,0,-0.0017913,0,9228.8,50.71,8.28,-0.0086575,4,0.022633,0.028195,0
9137.4,54.3,19.918,0,-0.0017913,0,9228.8,50.71,8.28,-0.0086575,4,0.022633,0.028195,0
9137.4,54.3,19.918,0,-0.0017913,0,9228.8,50.71,8.28,-0.0086575,4,0.022633,0.028195,0
9137.4,54.3,19.918,0,-0.0017913,0,9228.8,50.71,8.28,-0.0086575,4,0.022633,0.028195,0
9137.4,54.3,19.918,0,-0.0017913,0,9228.8,50.71,8.28,-0.0086575,4,0.022633,0.028195,0
9137.4,54.3,19.918,0,-0.0017913,0,9228.8,50.71,8.28,-0.0086575,4,0.022633,0.028195,0
9137.4,54.3,19.918,0,-0.0017913,0,9228.8,50.71,8.28,-0.0086575,4,0.022633,0.028195,0
9137.4,54.3,19.918,0,-0.0017913,0,9228.9,50.71,8.36,-0.0082276,4,0.021923,0.028257,0
9137.4,54.3,19.918,0,-0.0017913,0,9228.9,50.71,8.36,-0.0082276,4,0.021923,0.028257,0
9139.8,54.3,19.919,0,0.013793,0,9229.1,50.709,8.44,-0.0078118,4,0.021209,0.029074,0
9140.6,54.3,19.919,0,0.01911,0,9229.8,50.709,8.76,-0.0062888,4,0.018368,0.029579,0
9140.6,54.3,19.919,0,0.01911,0,9229.8,50.709,8.76,-0.0062888,4,0.018368,0.029579,0
9140.6,54.3,19.919,0,0.01911,0,9230.3,50.709,9,-0.0052905,4,0.016309,0.029758,0
9140.6,54.3,19.919,0,0.01911,0,9230.5,50.708,9.08,-0.0049841,4,0.015645,0.029818,0
9140.6,54.3,19.919,0,0.01911,0,9230.5,50.708,9.08,-0.0049841,4,0.015645,0.029818,0
9140.6,54.3,19.919,0,0.01911,0,9230.7,50.708,9.16,-0.0046906,4,0.014993,0.029877,0
9140.6,54.3,19.919,0,0.01911,0,9230.7,50.708,9.16,-0.0046906,4,0.014993,0.029877,0
9140.6,54.3,19.919,0,0.01911,0,9230.7,50.708,9.16,-0.0046906,4,0.014993,0.029877,0
9140.6,54.3,19.919,0,0.01911,0,9230.9,50.708,9.24,-0.0044096,4,0.014354,0.029935,0
9140.6,54.3,19.919,0,0.01911,0,9230.9,50.708,9.24,-0.0044096,4,0.014354,0.029935,0
9140.6,54.3,19.919,0,0.01911,0,9230.9,50.708,9.24,-0.0044096,4,0.014354,0.029935,0
9140.6,54.3,19.919,0,0.01911,0,9230.9,50.708,9.24,-0.0044096,4,0.014354,0.029935,0
9140.6,54.3,19.919,0,0.01911,0,9230.9,50.708,9.24,-0.0044096,4,0.014354,0.029935,0
9140.6,54.3,19.919,0,0.01911,0,9230.9,50.708,9.24,-0.0044096,4,0.014354,0.029935,0
9140.6,54.3,19.919,0,0.01911,0,9230.9,50.708,9.24,-0.0044096,4,0.014354,0.029935,0
9140.6,54.3,19.919,0,0.01911,0,9230.9,50.708,9.24,-0.0044096,4,0.014354,0.029935,0
9140.6,54.3,19.919,0,0.01911,0,9230.9,50.708,9.24,-0.0044096,4,0.014354,0.029935,0
9143,54.3,19.923,0,0.03538,0,9230.9,50.708,9.24,-0.0044096,4,0.014354,0.030747,0
9143,54.3,19.923,0,0.03538,0,9230.9,50.708,9.24,-0.0044096,4,0.014354,0.030747,0
9143,54.3,19.923,0,0.03538,0,9230.9,50.708,9.24,-0.0044096,4,0.014354,0.030747,0
9143,54.3,19.923,0,0.03538,0,9230.9,50.708,9.24,-0.0044096,4,0.014354,0.030747,0
9143,54.3,19.923,0,0.03538,0,9230.9,50.708,9.24,-0.0044096,4,0.014354,0.030747,0
9143,54.3,19.923,0,0.03538,0,9231.3,50.708,9.4,-0.003884,4,0.013121,0.030864,0
9143.8,54.3,19.924,0,0.040896,0,9231.3,50.708,9.4,-0.003884,4,0.013121,0.031144,0
9145.4,54.3,19.928,0,0.052048,0,9231.6,50.708,9.56,-0.0034051,4,0.011949,0.031835,0
9145.4,54.3,19.928,0,0.052048,0,9232.4,50.708,9.88,-0.0025771,4,0.0097989,0.03206,0
9146.2,54.3,19.93,0,0.057673,0,9232.4,50.708,9.88,-0.0025771,4,0.0097989,0.032355,0
9146.2,54.3,19.93,0,0.057673,0,9232.8,50.708,10.04,-0.0022227,4,0.0088237,0.032465,0
9146.2,54.3,19.93,0,0.057673,0,9233,50.708,10.12,-0.0020593,4,0.008361,0.03252,0
9146.2,54.3,19.93,0,0.057673,0,9233,50.708,10.12,-0.0020593,4,0.008361,0.03252,0
9146.2,54.3,19.93,0,0.057673,0,9233,50.708,10.12,-0.0020593,4,0.008361,0.03252,0
9146.2,54.3,19.93,0,0.057673,0,9233,50.708,10.12,-0.0020593,4,0.008361,0.03252,0
9146.2,54.3,19.93,0,0.057673,0,9233,50.708,10.12,-0.0020593,4,0.008361,0.03252,0
9146.2,54.3,19.93,0,0.057673,0,9233,50.708,10.12,-0.0020593,4,0.008361,0.03252,0
9146.2,54.3,19.93,0,0.057673,0,9233,50.708,10.12,-0.0020593,4,0.008361,0.03252,0
9147.4,54.3,19.934,0,0.066162,0,9233,50.708,10.12,-0.0020593,4,0.008361,0.032973,0
9147.4,54.3,19.934,0,0.066162,0,9233,50.708,10.12,-0.0020593,4,0.008361,0.032973,0
9147.4,54.3,19.934,0,0.066162,0,9233,50.708,10.12,-0.0020593,4,0.008361,0.032973,0
9147.4,54.3,19.934,0,0.066162,0,9233,50.708,10.12,-0.0020593,4,0.008361,0.032973,0
9147.4,54.3,19.934,0,0.066162,0,9233,50.708,10.12,-0.0020593,4,0.008361,0.032973,0
9147.4,54.3,19.934,0,0.066162,0,9233,50.708,10.12,-0.0020593,4,0.008361,0.032973,0
9147.4,54.3,19.934,0,0.066162,0,9233,50.708,10.12,-0.0020593,4,0.008361,0.032973,0
9147.4,54.3,19.934,0,0.066162,0,9233,50.708,10.12,-0.0020593,4,0.008361,0.032973,0
9147.4,54.3,19.934,0,0.066162,0,9233.4,50.708,10.28,-0.0017584,4,0.0074852,0.03308,0
9147.4,54.3,19.934,0,0.066162,0,9233.4,50.708,10.28,-0.0017584,4,0.0074852,0.03308,0
9149,54.3,19.94,0,0.077552,0,9233.6,50.707,10.36,-0.0016203,4,0.0070716,0.033756,0
9149,54.3,19.94,0,0.077552,0,9234.3,50.707,10.6,-0.0012514,4,0.005926,0.033912,0
9150.5,54.3,19.946,0,0.088989,0,9234.3,50.707,10.6,-0.0012514,4,0.005926,0.034556,0
9150.5,54.3,19.946,0,0.088989,0,9234.3,50.707,10.6,-0.0012514,4,0.005926,0.034556,0
9150.5,54.3,19.946,0,0.088989,0,9234.3,50.707,10.6,-0.0012514,4,0.005926,0.034556,0
9150.9,54.3,19.948,0,0.091851,0,9234.3,50.707,10.6,-0.0012514,4,0.005926,0.034721,0
9150.9,54.3,19.948,0,0.091851,0,9234.3,50.707,10.6,-0.0012514,4,0.005926,0.034721,0
9150.9,54.3,19.948,0,0.091851,0,9234.3,50.707,10.6,-0.0012514,4,0.005926,0.034721,0
9150.9,54.3,19.948,0,0.091851,0,9234.3,50.707,10.6,-0.0012514,4,0.005926,0.034721,0
9150.9,54.3,19.948,0,0.091851,0,9234.3,50.707,10.6,-0.0012514,4,0.005926,0.034721,0
9150.9,54.3,19.948,0,0.091851,0,9234.3,50.707,10.6,-0.0012514,4,0.005926,0.034721,0
9150.9,54.3,19.948,0,0.091851,0,9235.3,50.707,11,-0.00077037,4,0.0043165,0.03497,0
9150.9,54.3,19.948,0,0.091851,0,9235.3,50.707,11,-0.00077037,4,0.0043165,0.03497,0
9150.9,54.3,19.948,0,0.091851,0,9235.3,50.707,11,-0.00077037,4,0.0043165,0.03497,0
9150.9,54.3,19.948,0,0.091851,0,9235.3,50.707,11,-0.00077037,4,0.0043165,0.03497,0
9150.9,54.3,19.948,0,0.091851,0,9235.3,50.707,11,-0.00077037,4,0.0043165,0.03497,0
9150.9,54.3,19.948,0,0.091851,0,9235.3,50.707,11,-0.00077037,4,0.0043165,0.03497,0
9151.7,54.3,19.952,0,0.097572,0,9235.3,50.707,11,-0.00077037,4,0.0043165,0.035303,0
9151.7,54.3,19.952,0,0.097572,0,9235.8,50.707,11.111,-0.00061539,2.3596e-07,0.0040003,0.035313,0
9153.3,54.3,19.96,0,0.086923,0,9236,50.707,11.111,-0.0005431,1.9292e-07,0.0036954,0.035898,0
9153.3,54.3,19.96,0,0.086923,0,9236,50.707,11.111,-0.0005431,1.9292e-07,0.0036954,0.035898,0
9154.5,54.3,19.964,0,0.063866,0,9236,50.707,11.111,-0.0005431,1.9292e-07,0.0036954,0.036424,0
9154.5,54.3,19.964,0,0.063866,0,9236,50.707,11.111,-0.0005431,1.9292e-07,0.0036954,0.036424,0
9154.5,54.3,19.964,0,0.063866,0,9236,50.707,11.111,-0.0005431,1.9292e-07,0.0036954,0.036424,0
9154.5,54.3,19.964,0,0.063866,0,9236,50.707,11.111,-0.0005431,1.9292e-07,0.0036954,0.036424,0
9154.5,54.3,19.964,0,0.063866,0,9236,50.707,11.111,-0.0005431,1.9292e-07,0.0036954,0.036424,0
9154.5,54.3,19.964,0,0.063866,0,9236,50.707,11.111,-0.0005431,1.9292e-07,0.0036954,0.036424,0
9154.5,54.3,19.964,0,0.063866,0,9236,50.707,11.111,-0.0005431,1.9292e-07,0.0036954,0.036424,0
9154.5,54.3,19.964,0,0.063866,0,9236,50.707,11.111,-0.0005431,1.9292e-07,0.0036954,0.036424,0
9154.5,54.3,19.964,0,0.063866,0,9236,50.707,11.111,-0.0005431,1.9292e-07,0.0036954,0.036424,0
9154.5,54.3,19.964,0,0.063866,0,9237.3,50.707,11.111,-0.00021219,4.7779e-08,0.0022609,0.03584,0
9154.5,54.3,19.964,0,0.063866,0,9237.3,50.707,11.111,-0.00021219,4.7779e-08,0.0022609,0.03584,0
9154.5,54.3,19.964,0,0.063866,0,9237.6,50.707,11.111,-0.00017181,3.5827e-08,0.002068,0.035744,0
9154.5,54.3,19.964,0,0.063866,0,9237.6,50.707,11.111,-0.00017181,3.5827e-08,0.002068,0.035744,0
9156.5,54.3,19.969,0,0.026235,0,9237.8,50.707,11.111,-0.00013499,2.613e-08,0.0018869,0.036522,0
9156.5,54.3,19.969,0,0.026235,0,9238.4,50.707,11.111,-4.3713e-05,7.335e-09,0.0014098,0.036226,0
9156.5,54.3,19.969,0,0.026235,0,9238.4,50.707,11.111,-4.3713e-05,7.335e-09,0.0014098,0.036226,0
9157.3,54.3,19.969,0,0.011465,0,9238.4,50.707,11.111,-4.3713e-05,7.335e-09,0.0014098,0.036582,0
9157.3,54.3,19.969,0,0.011465,0,9238.4,50.707,11.111,-4.3713e-05,7.335e-09,0.0014098,0.036582,0
9157.7,54.3,19.97,0,0.0041398,0,9238.4,50.707,11.111,-4.3713e-05,7.335e-09,0.0014098,0.036762,0
9157.7,54.3,19.97,0,0.0041398,0,9238.4,50.707,11.111,-4.3713e-05,7.335e-09,0.0014098,0.036762,0
9157.7,54.3,19.97,0,0.0041398,0,9238.4,50.707,11.111,-4.3713e-05,7.335e-09,0.0014098,0.036762,0
9157.7,54.3,19.97,0,0.0041398,0,9238.4,50.707,11.111,-4.3713e-05,7.335e-09,0.0014098,0.036762,0
9157.7,54.3,19.97,0,0.0041398,0,9238.4,50.707,11.111,-4.3713e-05,7.335e-09,0.0014098,0.036762,0
9157.7,54.3,19.97,0,0.0041398,0,9238.4,50.707,11.111,-4.3713e-05,7.335e-09,0.0014098,0.036762,0
9157.7,54.3,19.97,0,0.0041398,0,9239.1,50.707,11.111,2.3e-05,-1.1754e-09,0.0010215,0.036462,0
9157.7,54.3,19.97,0,0.0041398,0,9239.1,50.707,11.111,2.3e-05,-1.1754e-09,0.0010215,0.036462,0
9157.7,54.3,19.97,0,0.0041398,0,9239.3,50.707,11.111,4.0625e-05,-2.5813e-09,0.0009097,0.036363,0
9157.7,54.3,19.97,0,0.0041398,0,9239.6,50.707,11.111,5.6215e-05,-3.4929e-09,0.00080594,0.036264,0
9160.1,54.3,19.967,0,-0.039007,0,9239.8,50.707,11.111,6.9921e-05,-4.0134e-09,0.00070982,0.037251,0
9160.1,54.3,19.967,0,-0.039007,0,9239.8,50.707,11.111,6.9921e-05,-4.0134e-09,0.00070982,0.037251,0
9160.5,54.3,19.967,0,-0.046065,0,9239.8,50.707,11.111,6.9921e-05,-4.0134e-09,0.00070982,0.037438,0
9160.5,54.3,19.967,0,-0.046065,0,9239.8,50.707,11.111,6.9921e-05,-4.0134e-09,0.00070982,0.037438,0
9160.5,54.3,19.967,0,-0.046065,0,9239.8,50.707,11.111,6.9921e-05,-4.0134e-09,0.00070982,0.037438,0
9160.5,54.3,19.967,0,-0.046065,0,9239.8,50.707,11.111,6.9921e-05,-4.0134e-09,0.00070982,0.037438,0
9160.5,54.3,19.967,0,-0.046065,0,9239.8,50.707,11.111,6.9921e-05,-4.0134e-09,0.00070982,0.037438,0
9160.5,54.3,19.967,0,-0.046065,0,9239.8,50.707,11.111,6.9921e-05,-4.0134e-09,0.00070982,0.037438,0
9160.5,54.3,19.967,0,-0.046065,0,9239.8,50.707,11.111,6.9921e-05,-4.0134e-09,0.00070982,0.037438,0
9160.5,54.3,19.967,0,-0.046065,0,9239.8,50.707,11.111,6.9921e-05,-4.0134e-09,0.00070982,0.037438,0
9160.5,54.3,19.967,0,-0.046065,0,9240.7,50.707,11.111,0.00010864,-3.7104e-09,0.00039374,0.037024,0
9160.5,54.3,19.967,0,-0.046065,0,9240.7,50.707,11.111,0.00010864,-3.7104e-09,0.00039374,0.037024,0
9160.5,54.3,19.967,0,-0.046065,0,9240.7,50.707,11.111,0.00010864,-3.7104e-09,0.00039374,0.037024,0
9160.5,54.3,19.967,0,-0.046065,0,9240.7,50.707,11.111,0.00010864,-3.7104e-09,0.00039374,0.037024,0
9160.5,54.3,19.967,0,-0.046065,0,9240.9,50.707,11.111,0.00011492,-3.3144e-09,0.00032994,0.036922,0
9162.5,54.3,19.96,0,-0.080805,0,9241.1,50.707,11.111,0.00012005,-2.8673e-09,0.00027152,0.037753,0
9162.5,54.3,19.96,0,-0.080805,0,9241.8,50.707,11.111,0.00012956,-1.4478e-09,0.00012537,0.037436,0
9163.7,54.3,19.955,0,-0.10122,0,9242,50.707,11.111,0.00013106,-1.0003e-09,8.5356e-05,0.037901,0
9163.7,54.3,19.955,0,-0.10122,0,9242,50.707,11.111,0.00013106,-1.0003e-09,8.5356e-05,0.037901,0
9163.7,54.3,19.955,0,-0.10122,0,9242,50.707,11.111,0.00013106,-1.0003e-09,8.5356e-05,0.037901,0
9163.7,54.3,19.955,0,-0.10122,0,9242,50.707,11.111,0.00013106,-1.0003e-09,8.5356e-05,0.037901,0
9163.7,54.3,19.955,0,-0.10122,0,9242,50.707,11.111,0.00013106,-1.0003e-09,8.5356e-05,0.037901,0
9163.7,54.3,19.955,0,-0.10122,0,9242,50.707,11.111,0.00013106,-1.0003e-09,8.5356e-05,0.037901,0
9163.7,54.3,19.955,0,-0.10122,0,9242,50.707,11.111,0.00013106,-1.0003e-09,8.5356e-05,0.037901,0
9163.7,54.3,19.955,0,-0.10122,0,9242,50.707,11.111,0.00013106,-1.0003e-09,8.5356e-05,0.037901,0
9163.7,54.3,19.955,0,-0.10122,0,9242,50.707,11.111,0.00013106,-1.0003e-09,8.5356e-05,0.037901,0
9163.7,54.3,19.955,0,-0.10122,0,9242.4,50.707,11.111,0.00013203,-1.9827e-10,1.6707e-05,0.037688,0
9163.7,54.3,19.955,0,-0.10122,0,9242.4,50.707,11.111,0.00013203,-1.9827e-10,1.6707e-05,0.037688,0
9163.7,54.3,19.955,0,-0.10122,0,9242.4,50.707,11.111,0.00013203,-1.9827e-10,1.6707e-05,0.037688,0
9163.7,54.3,19.955,0,-0.10122,0,9242.4,50.707,11.111,0.00013203,-1.9827e-10,1.6707e-05,0.037688,0
9163.7,54.3,19.955,0,-0.10122,0,9242.4,50.707,11.111,0.00013203,-1.9827e-10,1.6707e-05,0.037688,0
9163.7,54.3,19.955,0,-0.10122,0,9242.4,50.707,11.111,0.00013203,-1.9827e-10,1.6707e-05,0.037688,0
9163.7,54.3,19.955,0,-0.10122,0,9242.4,50.707,11.111,0.00013203,-1.9827e-10,1.6707e-05,0.037688,0
9163.7,54.3,19.955,0,-0.10122,0,9242.4,50.707,11.111,0.00013203,-1.9827e-10,1.6707e-05,0.037688,0
9163.7,54.3,19.955,0,-0.10122,0,9242.4,50.707,11.111,0.00013203,-1.9827e-10,1.6707e-05,0.037688,0
9164.5,54.3,19.95,0,-0.11465,0,9242.4,50.707,11.111,0.00013203,-1.9827e-10,1.6707e-05,0.038073,0
9164.5,54.3,19.95,0,-0.11465,0,9242.4,50.707,11.111,0.00013203,-1.9827e-10,1.6707e-05,0.038073,0
9165.7,54.3,19.943,0,-0.13453,0,9242.9,50.707,11.111,0.00013073,4.536e-10,-3.844e-05,0.038443,0
9165.7,54.3,19.943,0,-0.13453,0,9242.9,50.707,11.111,0.00013073,4.536e-10,-3.844e-05,0.038443,0
9165.7,54.3,19.943,0,-0.13453,0,9243.6,50.707,11.111,0.00012555,1.1368e-09,-9.9818e-05,0.038115,0
9166.5,54.3,19.937,0,-0.14762,0,9243.6,50.707,11.111,0.00012555,1.1368e-09,-9.9818e-05,0.038508,0
9166.5,54.3,19.937,0,-0.14762,0,9244.4,50.707,11.111,0.00011459,1.5678e-09,-0.00015005,0.03807,0
9168.1,54.3,19.925,0,-0.17339,0,9244.4,50.707,11.111,0.00011459,1.5678e-09,-0.00015005,0.038863,0
9168.1,54.3,19.925,0,-0.17339,0,9244.4,50.707,11.111,0.00011459,1.5678e-09,-0.00015005,0.038863,0
9168.5,54.3,19.921,0,-0.17975,0,9244.4,50.707,11.111,0.00011459,1.5678e-09,-0.00015005,0.039066,0
9168.5,54.3,19.921,0,-0.17975,0,9244.4,50.707,11.111,0.00011459,1.5678e-09,-0.00015005,0.039066,0
9168.9,54.3,19.917,0,-0.18608,0,9244.4,50.707,11.111,0.00011459,1.5678e-09,-0.00015005,0.039271,0
9169.3,54.3,19.914,0,-0.19238,0,9244.4,50.707,11.111,0.00011459,1.5678e-09,-0.00015005,0.039479,0
9169.3,54.3,19.914,0,-0.19238,0,9244.4,50.707,11.111,0.00011459,1.5678e-09,-0.00015005,0.039479,0
9169.3,54.3,19.914,0,-0.19238,0,9244.4,50.707,11.111,0.00011459,1.5678e-09,-0.00015005,0.039479,0
9169.3,54.3,19.914,0,-0.19238,0,9245.6,50.707,11.111,9.7597e-05,1.5783e-09,-0.0001765,0.038905,0
9169.3,54.3,19.914,0,-0.19238,0,9245.6,50.707,11.111,9.7597e-05,1.5783e-09,-0.0001765,0.038905,0
9169.3,54.3,19.914,0,-0.19238,0,9245.6,50.707,11.111,9.7597e-05,1.5783e-09,-0.0001765,0.038905,0
9169.3,54.3,19.914,0,-0.19238,0,9245.8,50.707,11.111,9.4022e-05,1.5369e-09,-0.00017825,0.038793,0
9169.3,54.3,19.914,0,-0.19238,0,9245.8,50.707,11.111,9.4022e-05,1.5369e-09,-0.00017825,0.038793,0
9169.3,54.3,19.914,0,-0.19238,0,9245.8,50.707,11.111,9.4022e-05,1.5369e-09,-0.00017825,0.038793,0
9169.3,54.3,19.914,0,-0.19238,0,9245.8,50.707,11.111,9.4022e-05,1.5369e-09,-0.00017825,0.038793,0
9169.3,54.3,19.914,0,-0.19238,0,9245.8,50.707,11.111,9.4022e-05,1.5369e-09,-0.00017825,0.038793,0
9169.3,54.3,19.914,0,-0.19238,0,9245.8,50.707,11.111,9.4022e-05,1.5369e-09,-0.00017825,0.038793,0
9170.5,54.3,19.901,0,-0.21107,0,9245.8,50.707,11.111,9.4022e-05,1.5369e-09,-0.00017825,0.039406,0
9170.5,54.3,19.901,0,-0.21107,0,9245.8,50.707,11.111,9.4022e-05,1.5369e-09,-0.00017825,0.039406,0
9170.5,54.3,19.901,0,-0.21107,0,9246.2,50.707,11.111,8.6853e-05,1.4286e-09,-0.00017907,0.039176,0
9170.5,54.3,19.901,0,-0.21107,0,9246.2,50.707,11.111,8.6853e-05,1.4286e-09,-0.00017907,0.039176,0
9170.5,54.3,19.901,0,-0.21107,0,9246.4,50.707,11.111,8.329e-05,1.3653e-09,-0.00017832,0.039061,0
9170.5,54.3,19.901,0,-0.21107,0,9246.7,50.707,11.111,7.9758e-05,1.2981e-09,-0.00017691,0.038948,0
9172.5,54.3,19.879,0,-0.2416,0,9246.7,50.707,11.111,7.9758e-05,1.2981e-09,-0.00017691,0.039988,0
9172.5,54.3,19.879,0,-0.2416,0,9247.3,50.707,11.111,6.9458e-05,1.0851e-09,-0.00016945,0.039633,0
9172.5,54.3,19.879,0,-0.2416,0,9247.3,50.707,11.111,6.9458e-05,1.0851e-09,-0.00016945,0.039633,0
9172.5,54.3,19.879,0,-0.2416,0,9247.6,50.707,11.111,6.6152e-05,1.0138e-09,-0.00016611,0.039517,0
9172.5,54.3,19.879,0,-0.2416,0,9247.8,50.707,11.111,6.2921e-05,9.4353e-10,-0.00016242,0.0394,0
9172.5,54.3,19.879,0,-0.2416,0,9247.8,50.707,11.111,6.2921e-05,9.4353e-10,-0.00016242,0.0394,0
9172.5,54.3,19.879,0,-0.2416,0,9247.8,50.707,11.111,6.2921e-05,9.4353e-10,-0.00016242,0.0394,0
9172.5,54.3,19.879,0,-0.2416,0,9248,50.707,11.111,5.9772e-05,8.75e-10,-0.00015845,0.039285,0
9172.5,54.3,19.879,0,-0.2416,0,9248,50.707,11.111,5.9772e-05,8.75e-10,-0.00015845,0.039285,0
9172.5,54.3,19.879,0,-0.2416,0,9248.2,50.707,11.111,5.6708e-05,8.0865e-10,-0.00015425,0.03917,0
9172.5,54.3,19.879,0,-0.2416,0,9248.2,50.707,11.111,5.6708e-05,8.0865e-10,-0.00015425,0.03917,0
9172.5,54.3,19.879,0,-0.2416,0,9248.2,50.707,11.111,5.6708e-05,8.0865e-10,-0.00015425,0.03917,0
9172.5,54.3,19.879,0,-0.2416,0,9248.2,50.707,11.111,5.6708e-05,8.0865e-10,-0.00015425,0.03917,0
9172.5,54.3,19.879,0,-0.2416,0,9248.2,50.707,11.111,5.6708e-05,8.0865e-10,-0.00015425,0.03917,0
9172.5,54.3,19.879,0,-0.2416,0,9248.2,50.707,11.111,5.6708e-05,8.0865e-10,-0.00015425,0.03917,0
9172.5,54.3,19.879,0,-0.2416,0,9248.2,50.707,11.111,5.6708e-05,8.0865e-10,-0.00015425,0.03917,0
9172.5,54.3,19.879,0,-0.2416,0,9248.2,50.707,11.111,5.6708e-05,8.0865e-10,-0.00015425,0.03917,0
9172.5,54.3,19.879,0,-0.2416,0,9248.2,50.707,11.111,5.6708e-05,8.0865e-10,-0.00015425,0.03917,0
9174.9,54.3,19.848,0,-0.27723,0,9248.2,50.707,11.111,5.6708e-05,8.0865e-10,-0.00015425,0.040438,0
9174.9,54.3,19.848,0,-0.27723,0,9248.7,50.707,11.111,5.0849e-05,6.8392e-10,-0.00014529,0.040195,0
9174.9,54.3,19.848,0,-0.27723,0,9248.9,50.707,11.111,4.806e-05,6.2601e-10,-0.00014062,0.040075,0
9174.9,54.3,19.848,0,-0.27723,0,9248.9,50.707,11.111,4.806e-05,6.2601e-10,-0.00014062,0.040075,0
9174.9,54.3,19.848,0,-0.27723,0,9249.1,50.707,11.111,4.5367e-05,5.7129e-10,-0.00013585,0.039956,0
9177.3,54.3,19.812,0,-0.3118,0,9249.1,50.707,11.111,4.5367e-05,5.7129e-10,-0.00013585,0.041274,0
9177.3,54.3,19.812,0,-0.3118,0,9250,50.707,11.111,3.5565e-05,3.8493e-10,-0.00011644,0.040771,0
9177.3,54.3,19.812,0,-0.3118,0,9250,50.707,11.111,3.5565e-05,3.8493e-10,-0.00011644,0.040771,0
9177.3,54.3,19.812,0,-0.3118,0,9250,50.707,11.111,3.5565e-05,3.8493e-10,-0.00011644,0.040771,0
9177.3,54.3,19.812,0,-0.3118,0,9250,50.707,11.111,3.5565e-05,3.8493e-10,-0.00011644,0.040771,0
9177.3,54.3,19.812,0,-0.3118,0,9250,50.707,11.111,3.5565e-05,3.8493e-10,-0.00011644,0.040771,0
9177.3,54.3,19.812,0,-0.3118,0,9250,50.707,11.111,3.5565e-05,3.8493e-10,-0.00011644,0.040771,0
9177.3,54.3,19.812,0,-0.3118,0,9250,50.707,11.111,3.5565e-05,3.8493e-10,-0.00011644,0.040771,0
9177.3,54.3,19.812,0,-0.3118,0,9250.2,50.707,11.111,3.3357e-05,3.4631e-10,-0.00011162,0.040648,0
9177.3,54.3,19.812,0,-0.3118,0,9250.2,50.707,11.111,3.3357e-05,3.4631e-10,-0.00011162,0.040648,0
9177.3,54.3,19.812,0,-0.3118,0,9250.4,50.707,11.111,3.1244e-05,3.1071e-10,-0.00010684,0.040525,0
9177.3,54.3,19.812,0,-0.3118,0,9250.4,50.707,11.111,3.1244e-05,3.1071e-10,-0.00010684,0.040525,0
9177.3,54.3,19.812,0,-0.3118,0,9250.4,50.707,11.111,3.1244e-05,3.1071e-10,-0.00010684,0.040525,0
9177.3,54.3,19.812,0,-0.3118,0,9250.4,50.707,11.111,3.1244e-05,3.1071e-10,-0.00010684,0.040525,0
9177.3,54.3,19.812,0,-0.3118,0,9250.4,50.707,11.111,3.1244e-05,3.1071e-10,-0.00010684,0.040525,0
9177.3,54.3,19.812,0,-0.3118,0,9250.4,50.707,11.111,3.1244e-05,3.1071e-10,-0.00010684,0.040525,0
9177.3,54.3,19.812,0,-0.3118,0,9250.4,50.707,11.111,3.1244e-05,3.1071e-10,-0.00010684,0.040525,0
9177.3,54.3,19.812,0,-0.3118,0,9250.4,50.707,11.111,3.1244e-05,3.1071e-10,-0.00010684,0.040525,0
9180,54.3,19.766,0,-0.35082,0,9250.7,50.707,11.111,2.9225e-05,2.7801e-10,-0.00010213,0.041981,0
9180,54.3,19.766,0,-0.35082,0,9250.7,50.707,11.111,2.9225e-05,2.7801e-10,-0.00010213,0.041981,0
9180.4,54.3,19.759,0,-0.35628,0,9250.7,50.707,11.111,2.9225e-05,2.7801e-10,-0.00010213,0.042216,0
9180.4,54.3,19.759,0,-0.35628,0,9250.7,50.707,11.111,2.9225e-05,2.7801e-10,-0.00010213,0.042216,0
9180.4,54.3,19.759,0,-0.35628,0,9250.7,50.707,11.111,2.9225e-05,2.7801e-10,-0.00010213,0.042216,0
9180.4,54.3,19.759,0,-0.35628,0,9250.7,50.707,11.111,2.9225e-05,2.7801e-10,-0.00010213,0.042216,0
9181.6,54.3,19.737,0,-0.37251,0,9250.7,50.707,11.111,2.9225e-05,2.7801e-10,-0.00010213,0.042937,0
9181.6,54.3,19.737,0,-0.37251,0,9252.4,50.707,11.111,1.6231e-05,1.0331e-10,-6.7886e-05,0.041864,0
9181.6,54.3,19.737,0,-0.37251,0,9252.4,50.707,11.111,1.6231e-05,1.0331e-10,-6.7886e-05,0.041864,0
9181.6,54.3,19.737,0,-0.37251,0,9252.4,50.707,11.111,1.6231e-05,1.0331e-10,-6.7886e-05,0.041864,0
9181.6,54.3,19.737,0,-0.37251,0,9252.4,50.707,11.111,1.6231e-05,1.0331e-10,-6.7886e-05,0.041864,0
9181.6,54.3,19.737,0,-0.37251,0,9252.4,50.707,11.111,1.6231e-05,1.0331e-10,-6.7886e-05,0.041864,0
9181.6,54.3,19.737,0,-0.37251,0,9252.7,50.707,11.111,1.4967e-05,9.0099e-11,-6.4139e-05,0.041734,0
9181.6,54.3,19.737,0,-0.37251,0,9252.7,50.707,11.111,1.4967e-05,9.0099e-11,-6.4139e-05,0.041734,0
9181.6,54.3,19.737,0,-0.37251,0,9253.1,50.707,11.111,1.2651e-05,6.7873e-11,-5.7038e-05,0.041475,0
9181.6,54.3,19.737,0,-0.37251,0,9253.1,50.707,11.111,1.2651e-05,6.7873e-11,-5.7038e-05,0.041475,0
9181.6,54.3,19.737,0,-0.37251,0,9253.1,50.707,11.111,1.2651e-05,6.7873e-11,-5.7038e-05,0.041475,0
9181.6,54.3,19.737,0,-0.37251,0,9253.1,50.707,11.111,1.2651e-05,6.7873e-11,-5.7038e-05,0.041475,0
9181.6,54.3,19.737,0,-0.37251,0,9253.1,50.707,11.111,1.2651e-05,6.7873e-11,-5.7038e-05,0.041475,0
9181.6,54.3,19.737,0,-0.37251,0,9253.1,50.707,11.111,1.2651e-05,6.7873e-11,-5.7038e-05,0.041475,0
9181.6,54.3,19.737,0,-0.37251,0,9253.1,50.707,11.111,1.2651e-05,6.7873e-11,-5.7038e-05,0.041475,0
9181.6,54.3,19.737,0,-0.37251,0,9253.1,50.707,11.111,1.2651e-05,6.7873e-11,-5.7038e-05,0.041475,0
9181.6,54.3,19.737,0,-0.37251,0,9253.1,50.707,11.111,1.2651e-05,6.7873e-11,-5.7038e-05,0.041475,0
9183.6,54.3,19.698,0,-0.399,0,9253.1,50.707,11.111,1.2651e-05,6.7873e-11,-5.7038e-05,0.042647,0
9183.6,54.3,19.698,0,-0.399,0,9253.8,50.707,11.111,9.6697e-06,4.325e-11,-4.7375e-05,0.042243,0
9183.6,54.3,19.698,0,-0.399,0,9254,50.707,11.111,8.7964e-06,3.6939e-11,-4.4417e-05,0.042111,0
9185.9,54.3,19.649,0,-0.42992,0,9254.2,50.707,11.111,7.9789e-06,3.142e-11,-4.1587e-05,0.043424,0
9186.7,54.3,19.631,0,-0.44002,0,9254.9,50.707,11.111,5.8373e-06,1.8815e-11,-3.385e-05,0.043499,0
9186.7,54.3,19.631,0,-0.44002,0,9254.9,50.707,11.111,5.8373e-06,1.8815e-11,-3.385e-05,0.043499,0
9186.7,54.3,19.631,0,-0.44002,0,9254.9,50.707,11.111,5.8373e-06,1.8815e-11,-3.385e-05,0.043499,0
9186.7,54.3,19.631,0,-0.44002,0,9254.9,50.707,11.111,5.8373e-06,1.8815e-11,-3.385e-05,0.043499,0
9186.7,54.3,19.631,0,-0.44002,0,9254.9,50.707,11.111,5.8373e-06,1.8815e-11,-3.385e-05,0.043499,0
9186.7,54.3,19.631,0,-0.44002,0,9254.9,50.707,11.111,5.8373e-06,1.8815e-11,-3.385e-05,0.043499,0
9186.7,54.3,19.631,0,-0.44002,0,9254.9,50.707,11.111,5.8373e-06,1.8815e-11,-3.385e-05,0.043499,0
9187.1,54.3,19.622,0,-0.44503,0,9254.9,50.707,11.111,5.8373e-06,1.8815e-11,-3.385e-05,0.04375,0
9187.1,54.3,19.622,0,-0.44503,0,9254.9,50.707,11.111,5.8373e-06,1.8815e-11,-3.385e-05,0.04375,0
9187.1,54.3,19.622,0,-0.44503,0,9254.9,50.707,11.111,5.8373e-06,1.8815e-11,-3.385e-05,0.04375,0
9187.1,54.3,19.622,0,-0.44503,0,9254.9,50.707,11.111,5.8373e-06,1.8815e-11,-3.385e-05,0.04375,0
9187.1,54.3,19.622,0,-0.44503,0,9254.9,50.707,11.111,5.8373e-06,1.8815e-11,-3.385e-05,0.04375,0
9187.1,54.3,19.622,0,-0.44503,0,9254.9,50.707,11.111,5.8373e-06,1.8815e-11,-3.385e-05,0.04375,0
9187.1,54.3,19.622,0,-0.44503,0,9254.9,50.707,11.111,5.8373e-06,1.8815e-11,-3.385e-05,0.04375,0
9187.1,54.3,19.622,0,-0.44503,0,9254.9,50.707,11.111,5.8373e-06,1.8815e-11,-3.385e-05,0.04375,0
9187.1,54.3,19.622,0,-0.44503,0,9254.9,50.707,11.111,5.8373e-06,1.8815e-11,-3.385e-05,0.04375,0
9187.1,54.3,19.622,0,-0.44503,0,9254.9,50.707,11.111,5.8373e-06,1.8815e-11,-3.385e-05,0.04375,0
9187.1,54.3,19.622,0,-0.44503,0,9254.9,50.707,11.111,5.8373e-06,1.8815e-11,-3.385e-05,0.04375,0
9187.1,54.3,19.622,0,-0.44503,0,9255.6,50.707,11.111,4.1111e-06,1.0725e-11,-2.7188e-05,0.043326,0
9187.9,54.3,19.604,0,-0.45497,0,9255.6,50.707,11.111,4.1111e-06,1.0725e-11,-2.7188e-05,0.043826,0
9187.9,54.3,19.604,0,-0.45497,0,9256.2,50.707,11.111,2.7397e-06,5.7218e-12,-2.1516e-05,0.0434,0
9190.6,54.3,19.538,0,-0.48897,0,9256.4,50.707,11.111,2.3516e-06,4.5507e-12,-1.9829e-05,0.045053,0
9190.6,54.3,19.538,0,-0.48897,0,9256.4,50.707,11.111,2.3516e-06,4.5507e-12,-1.9829e-05,0.045053,0
9190.6,54.3,19.538,0,-0.48897,0,9256.4,50.707,11.111,2.3516e-06,4.5507e-12,-1.9829e-05,0.045053,0
9191,54.3,19.528,0,-0.49372,0,9256.4,50.707,11.111,2.3516e-06,4.5507e-12,-1.9829e-05,0.045321,0
9191,54.3,19.528,0,-0.49372,0,9256.4,50.707,11.111,2.3516e-06,4.5507e-12,-1.9829e-05,0.045321,0
9191,54.3,19.528,0,-0.49372,0,9256.4,50.707,11.111,2.3516e-06,4.5507e-12,-1.9829e-05,0.045321,0
9191,54.3,19.528,0,-0.49372,0,9256.4,50.707,11.111,2.3516e-06,4.5507e-12,-1.9829e-05,0.045321,0
9191,54.3,19.528,0,-0.49372,0,9256.4,50.707,11.111,2.3516e-06,4.5507e-12,-1.9829e-05,0.045321,0
9191,54.3,19.528,0,-0.49372,0,9256.4,50.707,11.111,2.3516e-06,4.5507e-12,-1.9829e-05,0.045321,0
9191,54.3,19.528,0,-0.49372,0,9256.4,50.707,11.111,2.3516e-06,4.5507e-12,-1.9829e-05,0.045321,0
9191,54.3,19.528,0,-0.49372,0,9257.8,50.707,11.111,6.1939e-07,7.6824e-13,-1.1606e-05,0.04442,0
9191,54.3,19.528,0,-0.49372,0,9257.8,50.707,11.111,6.1939e-07,7.6824e-13,-1.1606e-05,0.04442,0
9191,54.3,19.528,0,-0.49372,0,9257.8,50.707,11.111,6.1939e-07,7.6824e-13,-1.1606e-05,0.04442,0
9191,54.3,19.528,0,-0.49372,0,9257.8,50.707,11.111,6.1939e-07,7.6824e-13,-1.1606e-05,0.04442,0
9191,54.3,19.528,0,-0.49372,0,9257.8,50.707,11.111,6.1939e-07,7.6824e-13,-1.1606e-05,0.04442,0
9191,54.3,19.528,0,-0.49372,0,9257.8,50.707,11.111,6.1939e-07,7.6824e-13,-1.1606e-05,0.04442,0
9191,54.3,19.528,0,-0.49372,0,9257.8,50.707,11.111,6.1939e-07,7.6824e-13,-1.1606e-05,0.04442,0
9191,54.3,19.528,0,-0.49372,0,9258,50.707,11.111,4.1455e-07,4.9202e-13,-1.0519e-05,0.044273,0
9193,54.3,19.478,0,-0.51713,0,9258.2,50.707,11.111,2.2967e-07,2.7768e-13,-9.5023e-06,0.04544,0
9193,54.3,19.478,0,-0.51713,0,9258.9,50.707,11.111,-2.1831e-07,-9.2355e-14,-6.8493e-06,0.044983,0
9193,54.3,19.478,0,-0.51713,0,9259.6,50.707,11.111,-5.3126e-07,-2.0577e-13,-4.7237e-06,0.044534,0
9193,54.3,19.478,0,-0.51713,0,9259.6,50.707,11.111,-5.3126e-07,-2.0577e-13,-4.7237e-06,0.044534,0
9194.9,54.3,19.425,0,-0.53992,0,9259.6,50.707,11.111,-5.3126e-07,-2.0577e-13,-4.7237e-06,0.045868,0
9194.9,54.3,19.425,0,-0.53992,0,9259.6,50.707,11.111,-5.3126e-07,-2.0577e-13,-4.7237e-06,0.045868,0
9194.9,54.3,19.425,0,-0.53992,0,9259.6,50.707,11.111,-5.3126e-07,-2.0577e-13,-4.7237e-06,0.045868,0
9194.9,54.3,19.425,0,-0.53992,0,9259.6,50.707,11.111,-5.3126e-07,-2.0577e-13,-4.7237e-06,0.045868,0
9194.9,54.3,19.425,0,-0.53992,0,9259.6,50.707,11.111,-5.3126e-07,-2.0577e-13,-4.7237e-06,0.045868,0
9194.9,54.3,19.425,0,-0.53992,0,9259.6,50.707,11.111,-5.3126e-07,-2.0577e-13,-4.7237e-06,0.045868,0
9194.9,54.3,19.425,0,-0.53992,0,9259.6,50.707,11.111,-5.3126e-07,-2.0577e-13,-4.7237e-06,0.045868,0
9194.9,54.3,19.425,0,-0.53992,0,9259.6,50.707,11.111,-5.3126e-07,-2.0577e-13,-4.7237e-06,0.045868,0
9194.9,54.3,19.425,0,-0.53992,0,9259.6,50.707,11.111,-5.3126e-07,-2.0577e-13,-4.7237e-06,0.045868,0
9194.9,54.3,19.425,0,-0.53992,0,9259.6,50.707,11.111,-5.3126e-07,-2.0577e-13,-4.7237e-06,0.045868,0
9194.9,54.3,19.425,0,-0.53992,0,9259.6,50.707,11.111,-5.3126e-07,-2.0577e-13,-4.7237e-06,0.045868,0
9194.9,54.3,19.425,0,-0.53992,0,9260,50.707,11.111,-6.789e-07,-2.0612e-13,-3.5602e-06,0.045557,0
9194.9,54.3,19.425,0,-0.53992,0,9260,50.707,11.111,-6.789e-07,-2.0612e-13,-3.5602e-06,0.045557,0
9194.9,54.3,19.425,0,-0.53992,0,9260,50.707,11.111,-6.789e-07,-2.0612e-13,-3.5602e-06,0.045557,0
9194.9,54.3,19.425,0,-0.53992,0,9260,50.707,11.111,-6.789e-07,-2.0612e-13,-3.5602e-06,0.045557,0
9194.9,54.3,19.425,0,-0.53992,0,9260,50.707,11.111,-6.789e-07,-2.0612e-13,-3.5602e-06,0.045557,0
9194.9,54.3,19.425,0,-0.53992,0,9260,50.707,11.111,-6.789e-07,-2.0612e-13,-3.5602e-06,0.045557,0
9194.9,54.3,19.425,0,-0.53992,0,9260.2,50.707,11.111,-7.372e-07,-1.9376e-13,-3.0463e-06,0.045402,0
9196.9,54.3,19.37,0,-0.56211,0,9260.4,50.707,11.111,-7.8627e-07,-1.7619e-13,-2.5741e-06,0.046623,0
9196.9,54.3,19.37,0,-0.56211,0,9261.3,50.707,11.111,-9.0502e-07,-8.4953e-14,-1.0553e-06,0.045983,0
9196.9,54.3,19.37,0,-0.56211,0,9262,50.707,11.111,-9.3061e-07,-2.0358e-14,-2.437e-07,0.045515,0
9196.9,54.3,19.37,0,-0.56211,0,9262,50.707,11.111,-9.3061e-07,-2.0358e-14,-2.437e-07,0.045515,0
9199.2,54.3,19.301,0,-0.58794,0,9262,50.707,11.111,-9.3061e-07,-2.0358e-14,-2.437e-07,0.047188,0
9199.2,54.3,19.301,0,-0.58794,0,9262,50.707,11.111,-9.3061e-07,-2.0358e-14,-2.437e-07,0.047188,0
9199.2,54.3,19.301,0,-0.58794,0,9262,50.707,11.111,-9.3061e-07,-2.0358e-14,-2.437e-07,0.047188,0
9199.2,54.3,19.301,0,-0.58794,0,9262,50.707,11.111,-9.3061e-07,-2.0358e-14,-2.437e-07,0.047188,0
9199.2,54.3,19.301,0,-0.58794,0,9262,50.707,11.111,-9.3061e-07,-2.0358e-14,-2.437e-07,0.047188,0
9199.2,54.3,19.301,0,-0.58794,0,9262,50.707,11.111,-9.3061e-07,-2.0358e-14,-2.437e-07,0.047188,0
9199.2,54.3,19.301,0,-0.58794,0,9262,50.707,11.111,-9.3061e-07,-2.0358e-14,-2.437e-07,0.047188,0
9199.2,54.3,19.301,0,-0.58794,0,9262,50.707,11.111,-9.3061e-07,-2.0358e-14,-2.437e-07,0.047188,0
9199.2,54.3,19.301,0,-0.58794,0,9262,50.707,11.111,-9.3061e-07,-2.0358e-14,-2.437e-07,0.047188,0
9199.2,54.3,19.301,0,-0.58794,0,9262,50.707,11.111,-9.3061e-07,-2.0358e-14,-2.437e-07,0.047188,0
9199.2,54.3,19.301,0,-0.58794,0,9262.4,50.707,11.111,-9.2558e-07,1.4226e-14,1.7046e-07,0.046858,0
9199.2,54.3,19.301,0,-0.58794,0,9262.4,50.707,11.111,-9.2558e-07,1.4226e-14,1.7046e-07,0.046858,0
9199.2,54.3,19.301,0,-0.58794,0,9262.4,50.707,11.111,-9.2558e-07,1.4226e-14,1.7046e-07,0.046858,0
9199.2,54.3,19.301,0,-0.58794,0,9262.4,50.707,11.111,-9.2558e-07,1.4226e-14,1.7046e-07,0.046858,0
9199.2,54.3,19.301,0,-0.58794,0,9262.4,50.707,11.111,-9.2558e-07,1.4226e-14,1.7046e-07,0.046858,0
9199.2,54.3,19.301,0,-0.58794,0,9262.4,50.707,11.111,-9.2558e-07,1.4226e-14,1.7046e-07,0.046858,0
9199.2,54.3,19.301,0,-0.58794,0,9262.4,50.707,11.111,-9.2558e-07,1.4226e-14,1.7046e-07,0.046858,0
9199.2,54.3,19.301,0,-0.58794,0,9262.7,50.707,11.111,-9.1779e-07,2.8572e-14,3.4461e-07,0.046695,0
9200.3,54.3,19.265,0,-0.60054,0,9262.7,50.707,11.111,-9.1779e-07,2.8572e-14,3.4461e-07,0.047557,0
9201.9,54.3,19.217,0,-0.617,0,9263.3,50.707,11.111,-8.7793e-07,6.006e-14,7.5365e-07,0.048229,0
9201.9,54.3,19.217,0,-0.617,0,9263.3,50.707,11.111,-8.7793e-07,6.006e-14,7.5365e-07,0.048229,0
9201.9,54.3,19.217,0,-0.617,0,9263.3,50.707,11.111,-8.7793e-07,6.006e-14,7.5365e-07,0.048229,0
9201.9,54.3,19.217,0,-0.617,0,9264.4,50.707,11.111,-7.7508e-07,8.0403e-14,1.136e-06,0.047377,0
9201.9,54.3,19.217,0,-0.617,0,9264.7,50.707,11.111,-7.513e-07,8.0882e-14,1.1777e-06,0.04721,0
9201.9,54.3,19.217,0,-0.617,0,9264.7,50.707,11.111,-7.513e-07,8.0882e-14,1.1777e-06,0.04721,0
9201.9,54.3,19.217,0,-0.617,0,9264.7,50.707,11.111,-7.513e-07,8.0882e-14,1.1777e-06,0.04721,0
9201.9,54.3,19.217,0,-0.617,0,9264.7,50.707,11.111,-7.513e-07,8.0882e-14,1.1777e-06,0.04721,0
9201.9,54.3,19.217,0,-0.617,0,9264.7,50.707,11.111,-7.513e-07,8.0882e-14,1.1777e-06,0.04721,0
9201.9,54.3,19.217,0,-0.617,0,9264.7,50.707,11.111,-7.513e-07,8.0882e-14,1.1777e-06,0.04721,0
9201.9,54.3,19.217,0,-0.617,0,9264.7,50.707,11.111,-7.513e-07,8.0882e-14,1.1777e-06,0.04721,0
9201.9,54.3,19.217,0,-0.617,0,9264.7,50.707,11.111,-7.513e-07,8.0882e-14,1.1777e-06,0.04721,0
9203.8,54.3,19.154,0,-0.63704,0,9264.7,50.707,11.111,-7.513e-07,8.0882e-14,1.1777e-06,0.04869,0
9203.8,54.3,19.154,0,-0.63704,0,9265.1,50.707,11.111,-7.0211e-07,7.9356e-14,1.2341e-06,0.048339,0
9203.8,54.3,19.154,0,-0.63704,0,9265.1,50.707,11.111,-7.0211e-07,7.9356e-14,1.2341e-06,0.048339,0
9203.8,54.3,19.154,0,-0.63704,0,9265.1,50.707,11.111,-7.0211e-07,7.9356e-14,1.2341e-06,0.048339,0
9203.8,54.3,19.154,0,-0.63704,0,9265.1,50.707,11.111,-7.0211e-07,7.9356e-14,1.2341e-06,0.048339,0
9203.8,54.3,19.154,0,-0.63704,0,9265.1,50.707,11.111,-7.0211e-07,7.9356e-14,1.2341e-06,0.048339,0
9203.8,54.3,19.154,0,-0.63704,0,9265.1,50.707,11.111,-7.0211e-07,7.9356e-14,1.2341e-06,0.048339,0
9203.8,54.3,19.154,0,-0.63704,0,9265.1,50.707,11.111,-7.0211e-07,7.9356e-14,1.2341e-06,0.048339,0
9204.6,54.3,19.128,0,-0.6449,0,9265.1,50.707,11.111,-7.0211e-07,7.9356e-14,1.2341e-06,0.048947,0
9204.6,54.3,19.128,0,-0.6449,0,9265.1,50.707,11.111,-7.0211e-07,7.9356e-14,1.2341e-06,0.048947,0
9205.7,54.3,19.089,0,-0.6565,0,9265.8,50.707,11.111,-6.2647e-07,7.265e-14,1.2631e-06,0.049336,0
9206.5,54.3,19.063,0,-0.66412,0,9266.2,50.707,11.111,-5.7623e-07,6.641e-14,1.2533e-06,0.049597,0
9206.5,54.3,19.063,0,-0.66412,0,9266.9,50.707,11.111,-5.0297e-07,5.5933e-14,1.2067e-06,0.049053,0
9206.5,54.3,19.063,0,-0.66412,0,9266.9,50.707,11.111,-5.0297e-07,5.5933e-14,1.2067e-06,0.049053,0
9206.5,54.3,19.063,0,-0.66412,0,9267.1,50.707,11.111,-4.7939e-07,5.2371e-14,1.1846e-06,0.048874,0
9206.5,54.3,19.063,0,-0.66412,0,9267.1,50.707,11.111,-4.7939e-07,5.2371e-14,1.1846e-06,0.048874,0
9206.5,54.3,19.063,0,-0.66412,0,9267.1,50.707,11.111,-4.7939e-07,5.2371e-14,1.1846e-06,0.048874,0
9206.5,54.3,19.063,0,-0.66412,0,9267.1,50.707,11.111,-4.7939e-07,5.2371e-14,1.1846e-06,0.048874,0
9208,54.3,19.006,0,-0.971,0,9267.1,50.707,11.111,-4.7939e-07,5.2371e-14,1.1846e-06,0.050126,0
9208,54.3,19.006,0,-0.971,0,9267.1,50.707,11.111,-4.7939e-07,5.2371e-14,1.1846e-06,0.050126,0
9208,54.3,19.006,0,-0.971,0,9267.1,50.707,11.111,-4.7939e-07,5.2371e-14,1.1846e-06,0.050126,0
9208,54.3,19.006,0,-0.971,0,9267.1,50.707,11.111,-4.7939e-07,5.2371e-14,1.1846e-06,0.050126,0
9208,54.3,19.006,0,-0.971,0,9267.1,50.707,11.111,-4.7939e-07,5.2371e-14,1.1846e-06,0.050126,0
9208,54.3,19.006,0,-0.971,0,9267.1,50.707,11.111,-4.7939e-07,5.2371e-14,1.1846e-06,0.050126,0
9208,54.3,19.006,0,-0.971,0,9267.1,50.707,11.111,-4.7939e-07,5.2371e-14,1.1846e-06,0.050126,0
9208,54.3,19.006,0,-0.971,0,9267.1,50.707,11.111,-4.7939e-07,5.2371e-14,1.1846e-06,0.050126,0
9208,54.3,19.006,0,-0.971,0,9267.1,50.707,11.111,-4.7939e-07,5.2371e-14,1.1846e-06,0.050126,0
9208,54.3,19.006,0,-0.971,0,9267.1,50.707,11.111,-4.7939e-07,5.2371e-14,1.1846e-06,0.050126,0
9208,54.3,19.006,0,-0.971,0,9267.6,50.707,11.111,0.00090318,-1.6598e-06,0.03119,0.049754,0
9208,54.3,19.006,0,-0.971,0,9267.6,50.707,11.111,0.00090318,-1.6598e-06,0.03119,0.049754,0
9208,54.3,19.006,0,-0.971,0,9267.6,50.707,11.111,0.00090318,-1.6598e-06,0.03119,0.049754,0
9208,54.3,19.006,0,-0.971,0,9267.6,50.707,11.111,0.00090318,-1.6598e-06,0.03119,0.049754,0
9209.1,54.3,18.948,0,-0.96614,0,9267.8,50.707,11.111,0.0024226,-1.063e-05,0.067641,0.050527,0
9210.7,54.3,18.872,0,-0.94222,0,9268.2,50.708,11.111,0.0087343,-0.00010969,0.17435,0.051459,0
9211.4,54.3,18.834,0,-0.93166,0,9269.1,50.71,11.111,0.039104,-0.0014962,0.48537,0.05134,0
9211.4,54.3,18.834,0,-0.93166,0,9269.6,50.712,11.111,0.064994,-0.0035226,0.67161,0.05095,0
9211.4,54.3,18.834,0,-0.93166,0,9269.6,50.712,11.111,0.064994,-0.0035226,0.67161,0.05095,0
9211.4,54.3,18.834,0,-0.93166,0,9269.6,50.712,11.111,0.064994,-0.0035226,0.67161,0.05095,0
9211.4,54.3,18.834,0,-0.93166,0,9269.6,50.712,11.111,0.064994,-0.0035226,0.67161,0.05095,0
9211.4,54.3,18.834,0,-0.93166,0,9269.6,50.712,11.111,0.064994,-0.0035226,0.67161,0.05095,0
9211.4,54.3,18.834,0,-0.93166,0,9269.8,50.713,11.111,0.080861,-0.0050649,0.7691,0.050757,0
9211.4,54.3,18.834,0,-0.93166,0,9269.8,50.713,11.111,0.080861,-0.0050649,0.7691,0.050757,0
9211.4,54.3,18.834,0,-0.93166,0,9269.8,50.713,11.111,0.080861,-0.0050649,0.7691,0.050757,0
9211.4,54.3,18.834,0,-0.93166,0,9269.8,50.713,11.111,0.080861,-0.0050649,0.7691,0.050757,0
9211.4,54.3,18.834,0,-0.93166,0,9269.8,50.713,11.111,0.080861,-0.0050649,0.7691,0.050757,0
9211.4,54.3,18.834,0,-0.93166,0,9269.8,50.713,11.111,0.080861,-0.0050649,0.7691,0.050757,0
9211.4,54.3,18.834,0,-0.93166,0,9269.8,50.713,11.111,0.080861,-0.0050649,0.7691,0.050757,0
9211.4,54.3,18.834,0,-0.93166,0,9269.8,50.713,11.111,0.080861,-0.0050649,0.7691,0.050757,0
9212.5,54.3,18.779,0,-0.91752,0,9269.8,50.713,11.111,0.080861,-0.0050649,0.7691,0.051751,0
9212.5,54.3,18.779,0,-0.91752,0,9269.8,50.713,11.111,0.080861,-0.0050649,0.7691,0.051751,0
9212.5,54.3,18.779,0,-0.91752,0,9269.8,50.713,11.111,0.080861,-0.0050649,0.7691,0.051751,0
9213.3,54.3,18.742,0,-0.90918,0,9270.2,50.717,11.11,0.11861,-0.0094988,0.96898,0.052027,0
9213.3,54.3,18.742,0,-0.90918,0,9270.2,50.717,11.11,0.11861,-0.0094988,0.96898,0.052027,0
9214.4,54.3,18.688,0,-0.8982,0,9270.7,50.723,11.11,0.16443,-0.016096,1.1709,0.052649,0
9215.2,54.3,18.652,0,-0.89184,0,9271.3,50.736,11.108,0.24812,-0.030849,1.468,0.052721,0
9215.2,54.3,18.652,0,-0.89184,0,9271.8,50.747,11.107,0.31348,-0.044295,1.657,0.052307,0
9215.2,54.3,18.652,0,-0.89184,0,9271.8,50.747,11.107,0.31348,-0.044295,1.657,0.052307,0
9215.2,54.3,18.652,0,-0.89184,0,9271.8,50.747,11.107,0.31348,-0.044295,1.657,0.052307,0
9215.2,54.3,18.652,0,-0.89184,0,9272,50.754,11.106,0.3489,-0.052155,1.7478,0.052102,0
9215.2,54.3,18.652,0,-0.89184,0,9272,50.754,11.106,0.3489,-0.052155,1.7478,0.052102,0
9215.2,54.3,18.652,0,-0.89184,0,9272,50.754,11.106,0.3489,-0.052155,1.7478,0.052102,0
9215.2,54.3,18.652,0,-0.89184,0,9272,50.754,11.106,0.3489,-0.052155,1.7478,0.052102,0
9215.2,54.3,18.652,0,-0.89184,0,9272,50.754,11.106,0.3489,-0.052155,1.7478,0.052102,0
9215.2,54.3,18.652,0,-0.89184,0,9272,50.754,11.106,0.3489,-0.052155,1.7478,0.052102,0
9215.2,54.3,18.652,0,-0.89184,0,9272,50.754,11.106,0.3489,-0.052155,1.7478,0.052102,0
9215.2,54.3,18.652,0,-0.89184,0,9272,50.754,11.106,0.3489,-0.052155,1.7478,0.052102,0
9216.3,54.3,18.599,0,-0.88364,0,9272,50.754,11.106,0.3489,-0.052155,1.7478,0.05314,0
9216.3,54.3,18.599,0,-0.88364,0,9272,50.754,11.106,0.3489,-0.052155,1.7478,0.05314,0
9216.3,54.3,18.599,0,-0.88364,0,9272,50.754,11.106,0.3489,-0.052155,1.7478,0.05314,0
9216.3,54.3,18.599,0,-0.88364,0,9272,50.754,11.106,0.3489,-0.052155,1.7478,0.05314,0
9216.3,54.3,18.599,0,-0.88364,0,9272,50.754,11.106,0.3489,-0.052155,1.7478,0.05314,0
9216.3,54.3,18.599,0,-0.88364,0,9272,50.754,11.106,0.3489,-0.052155,1.7478,0.05314,0
9216.3,54.3,18.599,0,-0.88364,0,9272,50.754,11.106,0.3489,-0.052155,1.7478,0.05314,0
9216.3,54.3,18.599,0,-0.88364,0,9272,50.754,11.106,0.3489,-0.052155,1.7478,0.05314,0
9216.6,54.3,18.581,0,-0.88124,0,9272,50.754,11.106,0.3489,-0.052155,1.7478,0.053495,0
9217,54.3,18.564,0,-0.87901,0,9272,50.754,11.106,0.3489,-0.052155,1.7478,0.053854,0
9218.1,54.3,18.511,0,-0.87323,0,9273.1,50.8,11.097,0.55076,-0.10269,2.1535,0.053838,0
9219.6,54.3,18.441,0,-0.86753,0,9273.6,50.824,11.093,0.64174,-0.12775,2.2901,0.054853,0
9219.6,54.3,18.441,0,-0.86753,0,9274.4,50.884,11.08,0.83776,-0.18443,2.515,0.053942,0
9219.6,54.3,18.441,0,-0.86753,0,9274.4,50.884,11.08,0.83776,-0.18443,2.515,0.053942,0
9219.6,54.3,18.441,0,-0.86753,0,9274.4,50.884,11.08,0.83776,-0.18443,2.515,0.053942,0
9219.6,54.3,18.441,0,-0.86753,0,9274.4,50.884,11.08,0.83776,-0.18443,2.515,0.053942,0
9219.6,54.3,18.441,0,-0.86753,0,9274.4,50.884,11.08,0.83776,-0.18443,2.515,0.053942,0
9219.6,54.3,18.441,0,-0.86753,0,9274.4,50.884,11.08,0.83776,-0.18443,2.515,0.053942,0
9219.6,54.3,18.441,0,-0.86753,0,9274.4,50.884,11.08,0.83776,-0.18443,2.515,0.053942,0
9219.6,54.3,18.441,0,-0.86753,0,9274.4,50.884,11.08,0.83776,-0.18443,2.515,0.053942,0
9219.6,54.3,18.441,0,-0.86753,0,9274.4,50.884,11.08,0.83776,-0.18443,2.515,0.053942,0
9220.3,54.3,18.407,0,-0.86546,0,9274.4,50.884,11.08,0.83776,-0.18443,2.515,0.054672,0
9220.3,54.3,18.407,0,-0.86546,0,9274.4,50.884,11.08,0.83776,-0.18443,2.515,0.054672,0
9220.3,54.3,18.407,0,-0.86546,0,9274.4,50.884,11.08,0.83776,-0.18443,2.515,0.054672,0
9220.3,54.3,18.407,0,-0.86546,0,9274.4,50.884,11.08,0.83776,-0.18443,2.515,0.054672,0
9220.3,54.3,18.407,0,-0.86546,0,9274.4,50.884,11.08,0.83776,-0.18443,2.515,0.054672,0
9220.3,54.3,18.407,0,-0.86546,0,9274.4,50.884,11.08,0.83776,-0.18443,2.515,0.054672,0
9220.3,54.3,18.407,0,-0.86546,0,9274.4,50.884,11.08,0.83776,-0.18443,2.515,0.054672,0
9220.3,54.3,18.407,0,-0.86546,0,9274.4,50.884,11.08,0.83776,-0.18443,2.515,0.054672,0
9220.3,54.3,18.407,0,-0.86546,0,9274.4,50.884,11.08,0.83776,-0.18443,2.515,0.054672,0
9220.3,54.3,18.407,0,-0.86546,0,9274.4,50.884,11.08,0.83776,-0.18443,2.515,0.054672,0
9220.3,54.3,18.407,0,-0.86546,0,9274.9,50.92,11.071,0.94149,-0.21517,2.6026,0.054212,0
9220.3,54.3,18.407,0,-0.86546,0,9274.9,50.92,11.071,0.94149,-0.21517,2.6026,0.054212,0
9220.3,54.3,18.407,0,-0.86546,0,9274.9,50.92,11.071,0.94149,-0.21517,2.6026,0.054212,0
9221.4,54.3,18.355,0,-0.86326,0,9274.9,50.92,11.071,0.94149,-0.21517,2.6026,0.055324,0
9221.4,54.3,18.355,0,-0.86326,0,9274.9,50.92,11.071,0.94149,-0.21517,2.6026,0.055324,0
9221.4,54.3,18.355,0,-0.86326,0,9275.8,51.005,11.051,1.1571,-0.27894,2.729,0.05438,0
9222.5,54.3,18.303,0,-0.86207,0,9275.8,51.005,11.051,1.1571,-0.27894,2.729,0.055497,0
9222.5,54.3,18.303,0,-0.86207,0,9276.9,51.136,11.018,1.4354,-0.35755,2.8,0.0543,0
9222.5,54.3,18.303,0,-0.86207,0,9277.1,51.166,11.011,1.4915,-0.37249,2.8034,0.054065,0
9222.5,54.3,18.303,0,-0.86207,0,9277.1,51.166,11.011,1.4915,-0.37249,2.8034,0.054065,0
9225.1,54.3,18.182,0,-0.86274,0,9277.3,51.197,11.003,1.5476,-0.38704,2.8035,0.056449,0
9225.1,54.3,18.182,0,-0.86274,0,9277.3,51.197,11.003,1.5476,-0.38704,2.8035,0.056449,0
9225.1,54.3,18.182,0,-0.86274,0,9277.3,51.197,11.003,1.5476,-0.38704,2.8035,0.056449,0
9225.1,54.3,18.182,0,-0.86274,0,9277.3,51.197,11.003,1.5476,-0.38704,2.8035,0.056449,0
9225.1,54.3,18.182,0,-0.86274,0,9277.3,51.197,11.003,1.5476,-0.38704,2.8035,0.056449,0
9225.1,54.3,18.182,0,-0.86274,0,9277.3,51.197,11.003,1.5476,-0.38704,2.8035,0.056449,0
9225.1,54.3,18.182,0,-0.86274,0,9277.3,51.197,11.003,1.5476,-0.38704,2.8035,0.056449,0
9225.1,54.3,18.182,0,-0.86274,0,9277.3,51.197,11.003,1.5476,-0.38704,2.8035,0.056449,0
9225.1,54.3,18.182,0,-0.86274,0,9277.8,51.261,10.987,1.6595,-0.41474,2.7939,0.055941,0
9225.1,54.3,18.182,0,-0.86274,0,9277.8,51.261,10.987,1.6595,-0.41474,2.7939,0.055941,0
9225.1,54.3,18.182,0,-0.86274,0,9278,51.295,10.978,1.7151,-0.42779,2.7845,0.055689,0
9225.1,54.3,18.182,0,-0.86274,0,9278,51.295,10.978,1.7151,-0.42779,2.7845,0.055689,0
9225.1,54.3,18.182,0,-0.86274,0,9278,51.295,10.978,1.7151,-0.42779,2.7845,0.055689,0
9225.1,54.3,18.182,0,-0.86274,0,9278,51.295,10.978,1.7151,-0.42779,2.7845,0.055689,0
9225.1,54.3,18.182,0,-0.86274,0,9278,51.295,10.978,1.7151,-0.42779,2.7845,0.055689,0
9225.1,54.3,18.182,0,-0.86274,0,9278,51.295,10.978,1.7151,-0.42779,2.7845,0.055689,0
9225.1,54.3,18.182,0,-0.86274,0,9278,51.295,10.978,1.7151,-0.42779,2.7845,0.055689,0
9226.9,54.3,18.096,0,-0.86583,0,9278.2,51.33,10.969,1.7705,-0.44025,2.7721,0.05739,0
9227.6,54.3,18.061,0,-0.86761,0,9278.8,51.442,10.941,1.9346,-0.47369,2.7184,0.057395,0
9227.6,54.3,18.061,0,-0.86761,0,9278.8,51.442,10.941,1.9346,-0.47369,2.7184,0.057395,0
9228,54.3,18.044,0,-0.86861,0,9278.8,51.442,10.941,1.9346,-0.47369,2.7184,0.057801,0
9228,54.3,18.044,0,-0.86861,0,9279.7,51.607,10.902,2.1465,-0.50784,2.6122,0.056732,0
9228,54.3,18.044,0,-0.86861,0,9279.7,51.607,10.902,2.1465,-0.50784,2.6122,0.056732,0
9228,54.3,18.044,0,-0.86861,0,9279.9,51.65,10.892,2.198,-0.51434,2.5802,0.05647,0
9228,54.3,18.044,0,-0.86861,0,9279.9,51.65,10.892,2.198,-0.51434,2.5802,0.05647,0
9228,54.3,18.044,0,-0.86861,0,9279.9,51.65,10.892,2.198,-0.51434,2.5802,0.05647,0
9228,54.3,18.044,0,-0.86861,0,9279.9,51.65,10.892,2.198,-0.51434,2.5802,0.05647,0
9228,54.3,18.044,0,-0.86861,0,9279.9,51.65,10.892,2.198,-0.51434,2.5802,0.05647,0
9228,54.3,18.044,0,-0.86861,0,9279.9,51.65,10.892,2.198,-0.51434,2.5802,0.05647,0
9228,54.3,18.044,0,-0.86861,0,9279.9,51.65,10.892,2.198,-0.51434,2.5802,0.05647,0
9228,54.3,18.044,0,-0.86861,0,9279.9,51.65,10.892,2.198,-0.51434,2.5802,0.05647,0
9228,54.3,18.044,0,-0.86861,0,9280.2,51.695,10.881,2.2487,-0.51999,2.5462,0.05621,0
9228,54.3,18.044,0,-0.86861,0,9280.2,51.695,10.881,2.2487,-0.51999,2.5462,0.05621,0
9228,54.3,18.044,0,-0.86861,0,9280.2,51.695,10.881,2.2487,-0.51999,2.5462,0.05621,0
9228,54.3,18.044,0,-0.86861,0,9280.2,51.695,10.881,2.2487,-0.51999,2.5462,0.05621,0
9228,54.3,18.044,0,-0.86861,0,9280.2,51.695,10.881,2.2487,-0.51999,2.5462,0.05621,0
9228,54.3,18.044,0,-0.86861,0,9280.2,51.695,10.881,2.2487,-0.51999,2.5462,0.05621,0
9229.8,54.3,17.957,0,-0.8746,0,9280.2,51.695,10.881,2.2487,-0.51999,2.5462,0.05821,0
9229.8,54.3,17.957,0,-0.8746,0,9280.2,51.695,10.881,2.2487,-0.51999,2.5462,0.05821,0
9230.2,54.3,17.939,0,-0.87599,0,9280.2,51.695,10.881,2.2487,-0.51999,2.5462,0.058627,0
9230.2,54.3,17.939,0,-0.87599,0,9281.2,51.934,10.828,2.4909,-0.53503,2.3491,0.057255,0
9230.2,54.3,17.939,0,-0.87599,0,9281.2,51.934,10.828,2.4909,-0.53503,2.3491,0.057255,0
9230.2,54.3,17.939,0,-0.87599,0,9281.2,51.934,10.828,2.4909,-0.53503,2.3491,0.057255,0
9230.2,54.3,17.939,0,-0.87599,0,9281.2,51.934,10.828,2.4909,-0.53503,2.3491,0.057255,0
9230.2,54.3,17.939,0,-0.87599,0,9281.9,52.088,10.796,2.6258,-0.53329,2.2124,0.056461,0
9230.2,54.3,17.939,0,-0.87599,0,9282.1,52.141,10.786,2.6689,-0.53092,2.1642,0.056201,0
9230.2,54.3,17.939,0,-0.87599,0,9282.3,52.195,10.775,2.7109,-0.52766,2.1148,0.055944,0
9230.2,54.3,17.939,0,-0.87599,0,9282.3,52.195,10.775,2.7109,-0.52766,2.1148,0.055944,0
9233.7,54.3,17.763,0,-0.89276,0,9282.5,52.25,10.765,2.752,-0.52352,2.0643,0.059751,0
9233.7,54.3,17.763,0,-0.89276,0,9282.5,52.25,10.765,2.752,-0.52352,2.0643,0.059751,0
9233.7,54.3,17.763,0,-0.89276,0,9282.5,52.25,10.765,2.752,-0.52352,2.0643,0.059751,0
9233.7,54.3,17.763,0,-0.89276,0,9282.5,52.25,10.765,2.752,-0.52352,2.0643,0.059751,0
9233.7,54.3,17.763,0,-0.89276,0,9282.5,52.25,10.765,2.752,-0.52352,2.0643,0.059751,0
9233.7,54.3,17.763,0,-0.89276,0,9282.5,52.25,10.765,2.752,-0.52352,2.0643,0.059751,0
9233.7,54.3,17.763,0,-0.89276,0,9282.5,52.25,10.765,2.752,-0.52352,2.0643,0.059751,0
9233.7,54.3,17.763,0,-0.89276,0,9282.5,52.25,10.765,2.752,-0.52352,2.0643,0.059751,0
9233.7,54.3,17.763,0,-0.89276,0,9283,52.362,10.744,2.8309,-0.51262,1.9601,0.059179,0
9233.7,54.3,17.763,0,-0.89276,0,9283,52.362,10.744,2.8309,-0.51262,1.9601,0.059179,0
9233.7,54.3,17.763,0,-0.89276,0,9283,52.362,10.744,2.8309,-0.51262,1.9601,0.059179,0
9233.7,54.3,17.763,0,-0.89276,0,9283,52.362,10.744,2.8309,-0.51262,1.9601,0.059179,0
9233.7,54.3,17.763,0,-0.89276,0,9283.2,52.419,10.734,2.8688,-0.50589,1.9065,0.058897,0
9233.7,54.3,17.763,0,-0.89276,0,9283.2,52.419,10.734,2.8688,-0.50589,1.9065,0.058897,0
9233.7,54.3,17.763,0,-0.89276,0,9283.2,52.419,10.734,2.8688,-0.50589,1.9065,0.058897,0
9233.7,54.3,17.763,0,-0.89276,0,9283.2,52.419,10.734,2.8688,-0.50589,1.9065,0.058897,0
9233.7,54.3,17.763,0,-0.89276,0,9283.2,52.419,10.734,2.8688,-0.50589,1.9065,0.058897,0
9233.7,54.3,17.763,0,-0.89276,0,9283.2,52.419,10.734,2.8688,-0.50589,1.9065,0.058897,0
9235.5,54.3,17.673,0,-0.90274,0,9283.4,52.477,10.724,2.9056,-0.49831,1.8519,0.060781,0
9236.2,54.3,17.637,0,-0.90695,0,9284,52.655,10.696,3.0092,-0.4707,1.6832,0.060788,0
9236.2,54.3,17.637,0,-0.90695,0,9284.5,52.777,10.678,3.0725,-0.44837,1.5669,0.060204,0
9236.2,54.3,17.637,0,-0.90695,0,9285.1,52.964,10.653,3.1584,-0.40936,1.3873,0.059353,0
9236.2,54.3,17.637,0,-0.90695,0,9285.1,52.964,10.653,3.1584,-0.40936,1.3873,0.059353,0
9236.2,54.3,17.637,0,-0.90695,0,9285.1,52.964,10.653,3.1584,-0.40936,1.3873,0.059353,0
9236.2,54.3,17.637,0,-0.90695,0,9285.1,52.964,10.653,3.1584,-0.40936,1.3873,0.059353,0
9236.2,54.3,17.637,0,-0.90695,0,9285.1,52.964,10.653,3.1584,-0.40936,1.3873,0.059353,0
9236.2,54.3,17.637,0,-0.90695,0,9285.1,52.964,10.653,3.1584,-0.40936,1.3873,0.059353,0
9236.2,54.3,17.637,0,-0.90695,0,9285.1,52.964,10.653,3.1584,-0.40936,1.3873,0.059353,0
9236.2,54.3,17.637,0,-0.90695,0,9285.1,52.964,10.653,3.1584,-0.40936,1.3873,0.059353,0
9236.2,54.3,17.637,0,-0.90695,0,9285.1,52.964,10.653,3.1584,-0.40936,1.3873,0.059353,0
9236.2,54.3,17.637,0,-0.90695,0,9285.1,52.964,10.653,3.1584,-0.40936,1.3873,0.059353,0
9238,54.3,17.545,0,-0.91783,0,9285.1,52.964,10.653,3.1584,-0.40936,1.3873,0.061565,0
9238,54.3,17.545,0,-0.91783,0,9285.1,52.964,10.653,3.1584,-0.40936,1.3873,0.061565,0
9238,54.3,17.545,0,-0.91783,0,9285.1,52.964,10.653,3.1584,-0.40936,1.3873,0.061565,0
9238,54.3,17.545,0,-0.91783,0,9285.1,52.964,10.653,3.1584,-0.40936,1.3873,0.061565,0
9238,54.3,17.545,0,-0.91783,0,9285.1,52.964,10.653,3.1584,-0.40936,1.3873,0.061565,0
9238,54.3,17.545,0,-0.91783,0,9285.1,52.964,10.653,3.1584,-0.40936,1.3873,0.061565,0
9238,54.3,17.545,0,-0.91783,0,9285.1,52.964,10.653,3.1584,-0.40936,1.3873,0.061565,0
9238,54.3,17.545,0,-0.91783,0,9285.1,52.964,10.653,3.1584,-0.40936,1.3873,0.061565,0
9238,54.3,17.545,0,-0.91783,0,9285.1,52.964,10.653,3.1584,-0.40936,1.3873,0.061565,0
9238,54.3,17.545,0,-0.91783,0,9285.5,53.092,10.637,3.2096,-0.3799,1.2645,0.060975,0
9238,54.3,17.545,0,-0.91783,0,9285.5,53.092,10.637,3.2096,-0.3799,1.2645,0.060975,0
9239.7,54.3,17.453,0,-0.9317,0,9285.7,53.157,10.63,3.2334,-0.36421,1.2023,0.06299,0
9240.8,54.3,17.397,0,-0.94948,0,9286.6,53.419,10.605,3.3157,-0.29551,0.94815,0.063191,0
9240.8,54.3,17.397,0,-0.94948,0,9287.4,53.687,10.585,3.3772,-0.21854,0.68653,0.061993,0
9240.8,54.3,17.397,0,-0.94948,0,9287.7,53.755,10.582,3.3892,-0.1982,0.62005,0.061703,0
9240.8,54.3,17.397,0,-0.94948,0,9287.7,53.755,10.582,3.3892,-0.1982,0.62005,0.061703,0
9240.8,54.3,17.397,0,-0.94948,0,9287.7,53.755,10.582,3.3892,-0.1982,0.62005,0.061703,0
9240.8,54.3,17.397,0,-0.94948,0,9287.7,53.755,10.582,3.3892,-0.1982,0.62005,0.061703,0
9240.8,54.3,17.397,0,-0.94948,0,9287.7,53.755,10.582,3.3892,-0.1982,0.62005,0.061703,0
9240.8,54.3,17.397,0,-0.94948,0,9287.7,53.755,10.582,3.3892,-0.1982,0.62005,0.061703,0
9240.8,54.3,17.397,0,-0.94948,0,9287.7,53.755,10.582,3.3892,-0.1982,0.62005,0.061703,0
9240.8,54.3,17.397,0,-0.94948,0,9287.7,53.755,10.582,3.3892,-0.1982,0.62005,0.061703,0
9240.8,54.3,17.397,0,-0.94948,0,9287.7,53.755,10.582,3.3892,-0.1982,0.62005,0.061703,0
9242.1,54.3,17.32,0,-0.97191,0,9287.7,53.755,10.582,3.3892,-0.1982,0.62005,0.063586,0
9242.1,54.3,17.32,0,-0.97191,0,9287.7,53.755,10.582,3.3892,-0.1982,0.62005,0.063586,0
9242.1,54.3,17.32,0,-0.97191,0,9287.7,53.755,10.582,3.3892,-0.1982,0.62005,0.063586,0
9242.1,54.3,17.32,0,-0.97191,0,9287.7,53.755,10.582,3.3892,-0.1982,0.62005,0.063586,0
9242.1,54.3,17.32,0,-0.97191,0,9287.7,53.755,10.582,3.3892,-0.1982,0.62005,0.063586,0
9242.1,54.3,17.32,0,-0.97191,0,9287.7,53.755,10.582,3.3892,-0.1982,0.62005,0.063586,0
9242.1,54.3,17.32,0,-0.97191,0,9287.7,53.755,10.582,3.3892,-0.1982,0.62005,0.063586,0
9242.1,54.3,17.32,0,-0.97191,0,9287.7,53.755,10.582,3.3892,-0.1982,0.62005,0.063586,0
9242.1,54.3,17.32,0,-0.97191,0,9287.7,53.755,10.582,3.3892,-0.1982,0.62005,0.063586,0
9242.1,54.3,17.32,0,-0.97191,0,9287.7,53.755,10.582,3.3892,-0.1982,0.62005,0.063586,0
9242.1,54.3,17.32,0,-0.97191,0,9288.1,53.891,10.575,3.4094,-0.1564,0.48589,0.062983,0
9242.1,54.3,17.32,0,-0.97191,0,9288.1,53.891,10.575,3.4094,-0.1564,0.48589,0.062983,0
9242.1,54.3,17.32,0,-0.97191,0,9288.1,53.891,10.575,3.4094,-0.1564,0.48589,0.062983,0
9242.1,54.3,17.32,0,-0.97191,0,9288.5,54.028,10.57,3.424,-0.1133,0.35018,0.062395,0
9243.9,54.3,17.221,0,-0.99741,0,9288.5,54.028,10.57,3.424,-0.1133,0.35018,0.06481,0
9244.9,54.3,17.161,0,-1.0113,0,9289.1,54.234,10.567,3.4358,-0.046763,0.14388,0.065381,0
9244.9,54.3,17.161,0,-1.0113,0,9290,54.509,10.568,3.4319,0.044149,-0.13589,0.064158,0
9246.3,54.3,17.079,0,-1.028,0,9290.2,54.577,10.569,3.4275,0.067042,-0.2066,0.065854,0
9246.3,54.3,17.079,0,-1.028,0,9290.2,54.577,10.569,3.4275,0.067042,-0.2066,0.065854,0
9246.3,54.3,17.079,0,-1.028,0,9290.2,54.577,10.569,3.4275,0.067042,-0.2066,0.065854,0
9246.3,54.3,17.079,0,-1.028,0,9290.2,54.577,10.569,3.4275,0.067042,-0.2066,0.065854,0
9246.3,54.3,17.079,0,-1.028,0,9290.2,54.577,10.569,3.4275,0.067042,-0.2066,0.065854,0
9246.3,54.3,17.079,0,-1.028,0,9290.2,54.577,10.569,3.4275,0.067042,-0.2066,0.065854,0
9246.3,54.3,17.079,0,-1.028,0,9290.2,54.577,10.569,3.4275,0.067042,-0.2066,0.065854,0
9246.3,54.3,17.079,0,-1.028,0,9290.2,54.577,10.569,3.4275,0.067042,-0.2066,0.065854,0
9246.3,54.3,17.079,0,-1.028,0,9290.2,54.577,10.569,3.4275,0.067042,-0.2066,0.065854,0
9246.3,54.3,17.079,0,-1.028,0,9290.6,54.714,10.574,3.4142,0.11278,-0.34887,0.065238,0
9246.3,54.3,17.079,0,-1.028,0,9290.6,54.714,10.574,3.4142,0.11278,-0.34887,0.065238,0
9246.3,54.3,17.079,0,-1.028,0,9290.6,54.714,10.574,3.4142,0.11278,-0.34887,0.065238,0
9246.3,54.3,17.079,0,-1.028,0,9290.6,54.714,10.574,3.4142,0.11278,-0.34887,0.065238,0
9246.3,54.3,17.079,0,-1.028,0,9290.6,54.714,10.574,3.4142,0.11278,-0.34887,0.065238,0
9246.3,54.3,17.079,0,-1.028,0,9290.6,54.714,10.574,3.4142,0.11278,-0.34887,0.065238,0
9246.3,54.3,17.079,0,-1.028,0,9290.6,54.714,10.574,3.4142,0.11278,-0.34887,0.065238,0
9246.3,54.3,17.079,0,-1.028,0,9290.6,54.714,10.574,3.4142,0.11278,-0.34887,0.065238,0
9246.3,54.3,17.079,0,-1.028,0,9290.6,54.714,10.574,3.4142,0.11278,-0.34887,0.065238,0
9246.3,54.3,17.079,0,-1.028,0,9290.6,54.714,10.574,3.4142,0.11278,-0.34887,0.065238,0
9246.3,54.3,17.079,0,-1.028,0,9290.8,54.782,10.576,3.4055,0.13555,-0.42041,0.064936,0
9247.3,54.3,17.017,0,-1.0392,0,9290.8,54.782,10.576,3.4055,0.13555,-0.42041,0.066461,0
9247.3,54.3,17.017,0,-1.0392,0,9291.7,55.052,10.592,3.356,0.2251,-0.70881,0.065237,0
9249.3,54.3,16.891,0,-1.0578,0,9291.9,55.119,10.597,3.34,0.24691,-0.78139,0.068044,0
9249.3,54.3,16.891,0,-1.0578,0,9292.7,55.383,10.622,3.2615,0.33065,-1.073,0.066782,0
9249.3,54.3,16.891,0,-1.0578,0,9292.7,55.383,10.622,3.2615,0.33065,-1.073,0.066782,0
9250.3,54.3,16.828,0,-1.0651,0,9292.7,55.383,10.622,3.2615,0.33065,-1.073,0.068374,0
9250.3,54.3,16.828,0,-1.0651,0,9292.7,55.383,10.622,3.2615,0.33065,-1.073,0.068374,0
9250.3,54.3,16.828,0,-1.0651,0,9292.7,55.383,10.622,3.2615,0.33065,-1.073,0.068374,0
9250.3,54.3,16.828,0,-1.0651,0,9292.7,55.383,10.622,3.2615,0.33065,-1.073,0.068374,0
9250.3,54.3,16.828,0,-1.0651,0,9292.7,55.383,10.622,3.2615,0.33065,-1.073,0.068374,0
9250.3,54.3,16.828,0,-1.0651,0,9292.7,55.383,10.622,3.2615,0.33065,-1.073,0.068374,0
9250.3,54.3,16.828,0,-1.0651,0,9292.7,55.383,10.622,3.2615,0.33065,-1.073,0.068374,0
9250.3,54.3,16.828,0,-1.0651,0,9292.7,55.383,10.622,3.2615,0.33065,-1.073,0.068374,0
9250.3,54.3,16.828,0,-1.0651,0,9292.7,55.383,10.622,3.2615,0.33065,-1.073,0.068374,0
9250.3,54.3,16.828,0,-1.0651,0,9292.7,55.383,10.622,3.2615,0.33065,-1.073,0.068374,0
9250.3,54.3,16.828,0,-1.0651,0,9293.2,55.512,10.636,3.2134,0.36985,-1.2191,0.067736,0
9250.3,54.3,16.828,0,-1.0651,0,9293.2,55.512,10.636,3.2134,0.36985,-1.2191,0.067736,0
9250.3,54.3,16.828,0,-1.0651,0,9293.2,55.512,10.636,3.2134,0.36985,-1.2191,0.067736,0
9250.3,54.3,16.828,0,-1.0651,0,9293.2,55.512,10.636,3.2134,0.36985,-1.2191,0.067736,0
9250.3,54.3,16.828,0,-1.0651,0,9293.2,55.512,10.636,3.2134,0.36985,-1.2191,0.067736,0
9250.3,54.3,16.828,0,-1.0651,0,9293.2,55.512,10.636,3.2134,0.36985,-1.2191,0.067736,0
9250.3,54.3,16.828,0,-1.0651,0,9293.2,55.512,10.636,3.2134,0.36985,-1.2191,0.067736,0
9250.3,54.3,16.828,0,-1.0651,0,9293.4,55.576,10.644,3.1872,0.38864,-1.2922,0.067424,0
9252,54.3,16.721,0,-1.0743,0,9293.6,55.64,10.652,3.1596,0.40684,-1.3652,0.06982,0
9252,54.3,16.721,0,-1.0743,0,9294.4,55.887,10.689,3.0344,0.47288,-1.656,0.06852,0
9252,54.3,16.721,0,-1.0743,0,9295.1,56.065,10.719,2.9253,0.51425,-1.8714,0.067585,0
9252,54.3,16.721,0,-1.0743,0,9295.1,56.065,10.719,2.9253,0.51425,-1.8714,0.067585,0
9254,54.3,16.591,0,-1.0802,0,9295.1,56.065,10.719,2.9253,0.51425,-1.8714,0.070866,0
9254,54.3,16.591,0,-1.0802,0,9295.1,56.065,10.719,2.9253,0.51425,-1.8714,0.070866,0
9254,54.3,16.591,0,-1.0802,0,9295.1,56.065,10.719,2.9253,0.51425,-1.8714,0.070866,0
9254,54.3,16.591,0,-1.0802,0,9295.1,56.065,10.719,2.9253,0.51425,-1.8714,0.070866,0
9254,54.3,16.591,0,-1.0802,0,9295.1,56.065,10.719,2.9253,0.51425,-1.8714,0.070866,0
9254,54.3,16.591,0,-1.0802,0,9295.1,56.065,10.719,2.9253,0.51425,-1.8714,0.070866,0
9254,54.3,16.591,0,-1.0802,0,9295.1,56.065,10.719,2.9253,0.51425,-1.8714,0.070866,0
9254,54.3,16.591,0,-1.0802,0,9295.1,56.065,10.719,2.9253,0.51425,-1.8714,0.070866,0
9254,54.3,16.591,0,-1.0802,0,9295.1,56.065,10.719,2.9253,0.51425,-1.8714,0.070866,0
9254,54.3,16.591,0,-1.0802,0,9295.1,56.065,10.719,2.9253,0.51425,-1.8714,0.070866,0
9254,54.3,16.591,0,-1.0802,0,9295.5,56.18,10.741,2.8455,0.53738,-2.0131,0.070197,0
9254,54.3,16.591,0,-1.0802,0,9295.5,56.18,10.741,2.8455,0.53738,-2.0131,0.070197,0
9254,54.3,16.591,0,-1.0802,0,9295.5,56.18,10.741,2.8455,0.53738,-2.0131,0.070197,0
9254,54.3,16.591,0,-1.0802,0,9295.5,56.18,10.741,2.8455,0.53738,-2.0131,0.070197,0
9254,54.3,16.591,0,-1.0802,0,9295.5,56.18,10.741,2.8455,0.53738,-2.0131,0.070197,0
9254,54.3,16.591,0,-1.0802,0,9295.5,56.18,10.741,2.8455,0.53738,-2.0131,0.070197,0
9254,54.3,16.591,0,-1.0802,0,9295.5,56.18,10.741,2.8455,0.53738,-2.0131,0.070197,0
9254,54.3,16.591,0,-1.0802,0,9295.7,56.236,10.752,2.8035,0.54752,-2.0832,0.069868,0
9254,54.3,16.591,0,-1.0802,0,9295.7,56.236,10.752,2.8035,0.54752,-2.0832,0.069868,0
9254,54.3,16.591,0,-1.0802,0,9295.9,56.292,10.763,2.7601,0.55666,-2.1527,0.069543,0
9254,54.3,16.591,0,-1.0802,0,9295.9,56.292,10.763,2.7601,0.55666,-2.1527,0.069543,0
9256.3,54.3,16.44,0,-1.08,0,9295.9,56.292,10.763,2.7601,0.55666,-2.1527,0.073587,0
9256.7,54.3,16.418,0,-1.0794,0,9295.9,56.292,10.763,2.7601,0.55666,-2.1527,0.074201,0
9256.7,54.3,16.418,0,-1.0794,0,9297.5,56.653,10.845,2.4188,0.59055,-2.6179,0.0717,0
9258,54.3,16.332,0,-1.0754,0,9297.7,56.701,10.857,2.3649,0.59085,-2.6805,0.073699,0
9258.3,54.3,16.311,0,-1.074,0,9297.7,56.701,10.857,2.3649,0.59085,-2.6805,0.074306,0
9258.3,54.3,16.311,0,-1.074,0,9297.7,56.701,10.857,2.3649,0.59085,-2.6805,0.074306,0
9258.3,54.3,16.311,0,-1.074,0,9297.7,56.701,10.857,2.3649,0.59085,-2.6805,0.074306,0
9258.3,54.3,16.311,0,-1.074,0,9297.7,56.701,10.857,2.3649,0.59085,-2.6805,0.074306,0
9258.3,54.3,16.311,0,-1.074,0,9297.7,56.701,10.857,2.3649,0.59085,-2.6805,0.074306,0
9258.3,54.3,16.311,0,-1.074,0,9297.7,56.701,10.857,2.3649,0.59085,-2.6805,0.074306,0
9258.3,54.3,16.311,0,-1.074,0,9297.7,56.701,10.857,2.3649,0.59085,-2.6805,0.074306,0
9258.3,54.3,16.311,0,-1.074,0,9297.7,56.701,10.857,2.3649,0.59085,-2.6805,0.074306,0
9258.3,54.3,16.311,0,-1.074,0,9297.7,56.701,10.857,2.3649,0.59085,-2.6805,0.074306,0
9258.3,54.3,16.311,0,-1.074,0,9298.3,56.837,10.892,2.1959,0.58468,-2.8612,0.073207,0
9258.3,54.3,16.311,0,-1.074,0,9298.3,56.837,10.892,2.1959,0.58468,-2.8612,0.073207,0
9258.3,54.3,16.311,0,-1.074,0,9298.3,56.837,10.892,2.1959,0.58468,-2.8612,0.073207,0
9258.3,54.3,16.311,0,-1.074,0,9298.3,56.837,10.892,2.1959,0.58468,-2.8612,0.073207,0
9258.3,54.3,16.311,0,-1.074,0,9298.3,56.837,10.892,2.1959,0.58468,-2.8612,0.073207,0
9258.3,54.3,16.311,0,-1.074,0,9298.3,56.837,10.892,2.1959,0.58468,-2.8612,0.073207,0
9258.3,54.3,16.311,0,-1.074,0,9298.3,56.837,10.892,2.1959,0.58468,-2.8612,0.073207,0
9258.3,54.3,16.311,0,-1.074,0,9298.3,56.837,10.892,2.1959,0.58468,-2.8612,0.073207,0
9258.3,54.3,16.311,0,-1.074,0,9298.3,56.837,10.892,2.1959,0.58468,-2.8612,0.073207,0
9258.9,54.3,16.268,0,-1.0709,0,9298.3,56.837,10.892,2.1959,0.58468,-2.8612,0.074411,0
9258.9,54.3,16.268,0,-1.0709,0,9298.3,56.837,10.892,2.1959,0.58468,-2.8612,0.074411,0
9259.3,54.3,16.246,0,-1.0692,0,9298.3,56.837,10.892,2.1959,0.58468,-2.8612,0.075026,0
9260.2,54.3,16.183,0,-1.0632,0,9298.3,56.837,10.892,2.1959,0.58468,-2.8612,0.07693,0
9260.6,54.3,16.161,0,-1.061,0,9298.3,56.837,10.892,2.1959,0.58468,-2.8612,0.077585,0
9260.6,54.3,16.161,0,-1.061,0,9300.1,57.147,10.981,1.6981,0.51216,-3.2481,0.074437,0
9261.9,54.3,16.077,0,-1.0512,0,9300.1,57.147,10.981,1.6981,0.51216,-3.2481,0.076928,0
9261.9,54.3,16.077,0,-1.0512,0,9300.1,57.147,10.981,1.6981,0.51216,-3.2481,0.076928,0
9262.2,54.3,16.056,0,-1.0485,0,9300.1,57.147,10.981,1.6981,0.51216,-3.2481,0.077574,0
9262.2,54.3,16.056,0,-1.0485,0,9300.1,57.147,10.981,1.6981,0.51216,-3.2481,0.077574,0
9262.2,54.3,16.056,0,-1.0485,0,9300.1,57.147,10.981,1.6981,0.51216,-3.2481,0.077574,0
9262.2,54.3,16.056,0,-1.0485,0,9300.1,57.147,10.981,1.6981,0.51216,-3.2481,0.077574,0
9262.2,54.3,16.056,0,-1.0485,0,9300.1,57.147,10.981,1.6981,0.51216,-3.2481,0.077574,0
9262.2,54.3,16.056,0,-1.0485,0,9300.1,57.147,10.981,1.6981,0.51216,-3.2481,0.077574,0
9262.2,54.3,16.056,0,-1.0485,0,9300.1,57.147,10.981,1.6981,0.51216,-3.2481,0.077574,0
9262.5,54.3,16.035,0,-1.0458,0,9300.1,57.147,10.981,1.6981,0.51216,-3.2481,0.078231,0
9262.5,54.3,16.035,0,-1.0458,0,9300.1,57.147,10.981,1.6981,0.51216,-3.2481,0.078231,0
9262.5,54.3,16.035,0,-1.0458,0,9300.1,57.147,10.981,1.6981,0.51216,-3.2481,0.078231,0
9262.8,54.3,16.014,0,-1.0431,0,9300.1,57.147,10.981,1.6981,0.51216,-3.2481,0.078898,0
9262.8,54.3,16.014,0,-1.0431,0,9300.1,57.147,10.981,1.6981,0.51216,-3.2481,0.078898,0
9263.1,54.3,15.993,0,-1.0403,0,9300.1,57.147,10.981,1.6981,0.51216,-3.2481,0.079576,0
9264.1,54.3,15.931,0,-1.032,0,9301.6,57.351,11.04,1.2529,0.35666,-3.0667,0.078529,0
9264.4,54.3,15.91,0,-1.0293,0,9301.6,57.351,11.04,1.2529,0.35666,-3.0667,0.079194,0
9264.4,54.3,15.91,0,-1.0293,0,9301.6,57.351,11.04,1.2529,0.35666,-3.0667,0.079194,0
9264.4,54.3,15.91,0,-1.0293,0,9301.6,57.351,11.04,1.2529,0.35666,-3.0667,0.079194,0
9264.4,54.3,15.91,0,-1.0293,0,9302.5,57.441,11.064,1.0223,0.26486,-2.7897,0.077442,0
9264.4,54.3,15.91,0,-1.0293,0,9302.7,57.46,11.069,0.96851,0.2438,-2.7099,0.077013,0
9264.4,54.3,15.91,0,-1.0293,0,9302.7,57.46,11.069,0.96851,0.2438,-2.7099,0.077013,0
9264.4,54.3,15.91,0,-1.0293,0,9302.7,57.46,11.069,0.96851,0.2438,-2.7099,0.077013,0
9264.4,54.3,15.91,0,-1.0293,0,9302.7,57.46,11.069,0.96851,0.2438,-2.7099,0.077013,0
9264.4,54.3,15.91,0,-1.0293,0,9302.7,57.46,11.069,0.96851,0.2438,-2.7099,0.077013,0
9264.4,54.3,15.91,0,-1.0293,0,9302.7,57.46,11.069,0.96851,0.2438,-2.7099,0.077013,0
9264.4,54.3,15.91,0,-1.0293,0,9302.7,57.46,11.069,0.96851,0.2438,-2.7099,0.077013,0
9264.4,54.3,15.91,0,-1.0293,0,9302.7,57.46,11.069,0.96851,0.2438,-2.7099,0.077013,0
9264.4,54.3,15.91,0,-1.0293,0,9302.7,57.46,11.069,0.96851,0.2438,-2.7099,0.077013,0
9265.4,54.3,15.849,0,-1.0213,0,9302.7,57.46,11.069,0.96851,0.2438,-2.7099,0.078956,0
9265.4,54.3,15.849,0,-1.0213,0,9302.7,57.46,11.069,0.96851,0.2438,-2.7099,0.078956,0
9265.4,54.3,15.849,0,-1.0213,0,9303.2,57.496,11.077,0.86595,0.20464,-2.5426,0.078064,0
9265.4,54.3,15.849,0,-1.0213,0,9303.2,57.496,11.077,0.86595,0.20464,-2.5426,0.078064,0
9265.4,54.3,15.849,0,-1.0213,0,9303.2,57.496,11.077,0.86595,0.20464,-2.5426,0.078064,0
9265.4,54.3,15.849,0,-1.0213,0,9303.2,57.496,11.077,0.86595,0.20464,-2.5426,0.078064,0
9265.4,54.3,15.849,0,-1.0213,0,9303.2,57.496,11.077,0.86595,0.20464,-2.5426,0.078064,0
9265.4,54.3,15.849,0,-1.0213,0,9303.2,57.496,11.077,0.86595,0.20464,-2.5426,0.078064,0
9265.4,54.3,15.849,0,-1.0213,0,9303.2,57.496,11.077,0.86595,0.20464,-2.5426,0.078064,0
9265.4,54.3,15.849,0,-1.0213,0,9303.2,57.496,11.077,0.86595,0.20464,-2.5426,0.078064,0
9266,54.3,15.808,0,-1.0161,0,9303.2,57.496,11.077,0.86595,0.20464,-2.5426,0.079379,0
9267.3,54.3,15.727,0,-1.0065,0,9303.8,57.543,11.087,0.72515,0.15389,-2.2809,0.080685,0
9267.6,54.3,15.707,0,-1.0042,0,9303.8,57.543,11.087,0.72515,0.15389,-2.2809,0.081376,0
9267.9,54.3,15.687,0,-1.002,0,9303.8,57.543,11.087,0.72515,0.15389,-2.2809,0.082078,0
9268.8,54.3,15.627,0,-0.99574,0,9305.2,57.614,11.1,0.49072,0.080659,-1.7612,0.081233,0
9268.8,54.3,15.627,0,-0.99574,0,9305.2,57.614,11.1,0.49072,0.080659,-1.7612,0.081233,0
9268.8,54.3,15.627,0,-0.99574,0,9305.2,57.614,11.1,0.49072,0.080659,-1.7612,0.081233,0
9268.8,54.3,15.627,0,-0.99574,0,9305.2,57.614,11.1,0.49072,0.080659,-1.7612,0.081233,0
9268.8,54.3,15.627,0,-0.99574,0,9305.2,57.614,11.1,0.49072,0.080659,-1.7612,0.081233,0
9268.8,54.3,15.627,0,-0.99574,0,9305.2,57.614,11.1,0.49072,0.080659,-1.7612,0.081233,0
9268.8,54.3,15.627,0,-0.99574,0,9305.2,57.614,11.1,0.49072,0.080659,-1.7612,0.081233,0
9268.8,54.3,15.627,0,-0.99574,0,9305.6,57.632,11.103,0.42601,0.063612,-1.5979,0.08027,0
9268.8,54.3,15.627,0,-0.99574,0,9305.6,57.632,11.103,0.42601,0.063612,-1.5979,0.08027,0
9268.8,54.3,15.627,0,-0.99574,0,9305.6,57.632,11.103,0.42601,0.063612,-1.5979,0.08027,0
9268.8,54.3,15.627,0,-0.99574,0,9305.6,57.632,11.103,0.42601,0.063612,-1.5979,0.08027,0
9269.5,54.3,15.618,0,2.0848,0,9305.6,57.632,11.103,0.42601,0.063612,-1.5979,0.081639,0
9269.5,54.3,15.618,0,2.0848,0,9305.6,57.632,11.103,0.42601,0.063612,-1.5979,0.081639,0
9269.5,54.3,15.618,0,2.0848,0,9305.6,57.632,11.103,0.42601,0.063612,-1.5979,0.081639,0
9269.5,54.3,15.618,0,2.0848,0,9305.6,57.632,11.103,0.42601,0.063612,-1.5979,0.081639,0
9269.5,54.3,15.618,0,2.0848,0,9305.6,57.632,11.103,0.42601,0.063612,-1.5979,0.081639,0
9269.5,54.3,15.618,0,2.0848,0,9305.6,57.632,11.103,0.42601,0.063612,-1.5979,0.081639,0
9269.5,54.3,15.618,0,2.0848,0,9305.6,57.632,11.103,0.42601,0.063612,-1.5979,0.081639,0
9269.8,54.3,15.66,0,2.0921,0,9305.6,57.632,11.103,0.42601,0.063612,-1.5979,0.082342,0
9269.8,54.3,15.66,0,2.0921,0,9305.6,57.632,11.103,0.42601,0.063612,-1.5979,0.082342,0
9270.7,54.3,15.785,0,2.0573,0,9306.5,57.661,11.107,0.31508,0.038243,-1.2948,0.082472,0
9270.7,54.3,15.785,0,2.0573,0,9306.9,57.673,11.108,0.26815,0.029128,-1.1567,0.081475,0
9271.3,54.3,15.866,0,2.0262,0,9306.9,57.673,11.108,0.26815,0.029128,-1.1567,0.082905,0
9271.3,54.3,15.866,0,2.0262,0,9306.9,57.673,11.108,0.26815,0.029128,-1.1567,0.082905,0
9271.3,54.3,15.866,0,2.0262,0,9307.8,57.691,11.109,0.18949,0.016249,-0.90902,0.080913,0
9271.3,54.3,15.866,0,2.0262,0,9308,57.694,11.11,0.17271,0.013917,-0.8531,0.080429,0
9271.3,54.3,15.866,0,2.0262,0,9308,57.694,11.11,0.17271,0.013917,-0.8531,0.080429,0
9271.3,54.3,15.866,0,2.0262,0,9308,57.694,11.11,0.17271,0.013917,-0.8531,0.080429,0
9271.3,54.3,15.866,0,2.0262,0,9308,57.694,11.11,0.17271,0.013917,-0.8531,0.080429,0
9271.3,54.3,15.866,0,2.0262,0,9308,57.694,11.11,0.17271,0.013917,-0.8531,0.080429,0
9271.3,54.3,15.866,0,2.0262,0,9308,57.694,11.11,0.17271,0.013917,-0.8531,0.080429,0
9271.3,54.3,15.866,0,2.0262,0,9308,57.694,11.11,0.17271,0.013917,-0.8531,0.080429,0
9272.9,54.3,16.065,0,1.9485,0,9308,57.694,11.11,0.17271,0.013917,-0.8531,0.084036,0
9273.3,54.3,16.104,0,1.933,0,9308,57.694,11.11,0.17271,0.013917,-0.8531,0.084802,0
9273.3,54.3,16.104,0,1.933,0,9308,57.694,11.11,0.17271,0.013917,-0.8531,0.084802,0
9273.3,54.3,16.104,0,1.933,0,9308,57.694,11.11,0.17271,0.013917,-0.8531,0.084802,0
9273.3,54.3,16.104,0,1.933,0,9308,57.694,11.11,0.17271,0.013917,-0.8531,0.084802,0
9273.3,54.3,16.104,0,1.933,0,9308,57.694,11.11,0.17271,0.013917,-0.8531,0.084802,0
9273.3,54.3,16.104,0,1.933,0,9308,57.694,11.11,0.17271,0.013917,-0.8531,0.084802,0
9273.3,54.3,16.104,0,1.933,0,9308,57.694,11.11,0.17271,0.013917,-0.8531,0.084802,0
9273.3,54.3,16.104,0,1.933,0,9308,57.694,11.11,0.17271,0.013917,-0.8531,0.084802,0
9273.6,54.3,16.142,0,1.9175,0,9308,57.694,11.11,0.17271,0.013917,-0.8531,0.085584,0
9273.6,54.3,16.142,0,1.9175,0,9309.4,57.709,11.111,0.092664,0.005011,-0.56623,0.08244,0
9273.6,54.3,16.142,0,1.9175,0,9309.4,57.709,11.111,0.092664,0.005011,-0.56623,0.08244,0
9273.6,54.3,16.142,0,1.9175,0,9309.4,57.709,11.111,0.092664,0.005011,-0.56623,0.08244,0
9273.6,54.3,16.142,0,1.9175,0,9309.4,57.709,11.111,0.092664,0.005011,-0.56623,0.08244,0
9273.6,54.3,16.142,0,1.9175,0,9309.4,57.709,11.111,0.092664,0.005011,-0.56623,0.08244,0
9273.6,54.3,16.142,0,1.9175,0,9309.4,57.709,11.111,0.092664,0.005011,-0.56623,0.08244,0
9273.6,54.3,16.142,0,1.9175,0,9309.4,57.709,11.111,0.092664,0.005011,-0.56623,0.08244,0
9274.9,54.3,16.293,0,1.8556,0,9309.4,57.709,11.111,0.092664,0.005011,-0.56623,0.085495,0
9274.9,54.3,16.293,0,1.8556,0,9310,57.714,11.111,0.063919,0.0027843,-0.45203,0.083897,0
9275.9,54.3,16.403,0,1.8094,0,9310,57.714,11.111,0.063919,0.0027843,-0.45203,0.086268,0
9275.9,54.3,16.403,0,1.8094,0,9310.5,57.716,11.111,0.048183,0.0018064,-0.38569,0.085177,0
9277.2,54.3,16.545,0,1.7482,0,9310.9,57.718,11.111,0.034845,0.0011202,-0.3266,0.087346,0
9277.2,54.3,16.545,0,1.7482,0,9311.4,57.719,11.111,0.023635,0.00065098,-0.27422,0.086228,0
9277.2,54.3,16.545,0,1.7482,0,9311.4,57.719,11.111,0.023635,0.00065098,-0.27422,0.086228,0
9277.2,54.3,16.545,0,1.7482,0,9311.4,57.719,11.111,0.023635,0.00065098,-0.27422,0.086228,0
9277.2,54.3,16.545,0,1.7482,0,9311.4,57.719,11.111,0.023635,0.00065098,-0.27422,0.086228,0
9277.2,54.3,16.545,0,1.7482,0,9311.6,57.719,11.111,0.018748,0.00047891,-0.25039,0.08568,0
9277.2,54.3,16.545,0,1.7482,0,9311.6,57.719,11.111,0.018748,0.00047891,-0.25039,0.08568,0
9277.2,54.3,16.545,0,1.7482,0,9311.6,57.719,11.111,0.018748,0.00047891,-0.25039,0.08568,0
9277.2,54.3,16.545,0,1.7482,0,9311.6,57.719,11.111,0.018748,0.00047891,-0.25039,0.08568,0
9277.2,54.3,16.545,0,1.7482,0,9311.6,57.719,11.111,0.018748,0.00047891,-0.25039,0.08568,0
9277.2,54.3,16.545,0,1.7482,0,9311.6,57.719,11.111,0.018748,0.00047891,-0.25039,0.08568,0
9277.2,54.3,16.545,0,1.7482,0,9311.6,57.719,11.111,0.018748,0.00047891,-0.25039,0.08568,0
9277.2,54.3,16.545,0,1.7482,0,9311.6,57.719,11.111,0.018748,0.00047891,-0.25039,0.08568,0
9277.2,54.3,16.545,0,1.7482,0,9311.6,57.719,11.111,0.018748,0.00047891,-0.25039,0.08568,0
9277.2,54.3,16.545,0,1.7482,0,9311.6,57.719,11.111,0.018748,0.00047891,-0.25039,0.08568,0
9278.2,54.3,16.649,0,1.7026,0,9311.6,57.719,11.111,0.018748,0.00047891,-0.25039,0.088192,0
9278.2,54.3,16.649,0,1.7026,0,9311.6,57.719,11.111,0.018748,0.00047891,-0.25039,0.088192,0
9278.8,54.3,16.716,0,1.6725,0,9312,57.72,11.111,0.010265,0.00022995,-0.20711,0.088775,0
9279.2,54.3,16.75,0,1.6575,0,9312,57.72,11.111,0.010265,0.00022995,-0.20711,0.089664,0
9279.2,54.3,16.75,0,1.6575,0,9312,57.72,11.111,0.010265,0.00022995,-0.20711,0.089664,0
9279.2,54.3,16.75,0,1.6575,0,9313.4,57.72,11.111,-0.0067248,-5.4814e-05,-0.10787,0.086223,0
9280.9,54.3,16.912,0,1.5831,0,9313.4,57.72,11.111,-0.0067248,-5.4814e-05,-0.10787,0.090612,0
9280.9,54.3,16.912,0,1.5831,0,9313.4,57.72,11.111,-0.0067248,-5.4814e-05,-0.10787,0.090612,0
9280.9,54.3,16.912,0,1.5831,0,9313.4,57.72,11.111,-0.0067248,-5.4814e-05,-0.10787,0.090612,0
9280.9,54.3,16.912,0,1.5831,0,9313.4,57.72,11.111,-0.0067248,-5.4814e-05,-0.10787,0.090612,0
9280.9,54.3,16.912,0,1.5831,0,9313.4,57.72,11.111,-0.0067248,-5.4814e-05,-0.10787,0.090612,0
9280.9,54.3,16.912,0,1.5831,0,9313.4,57.72,11.111,-0.0067248,-5.4814e-05,-0.10787,0.090612,0
9280.9,54.3,16.912,0,1.5831,0,9313.4,57.72,11.111,-0.0067248,-5.4814e-05,-0.10787,0.090612,0
9280.9,54.3,16.912,0,1.5831,0,9313.4,57.72,11.111,-0.0067248,-5.4814e-05,-0.10787,0.090612,0
9280.9,54.3,16.912,0,1.5831,0,9313.4,57.72,11.111,-0.0067248,-5.4814e-05,-0.10787,0.090612,0
9280.9,54.3,16.912,0,1.5831,0,9313.4,57.72,11.111,-0.0067248,-5.4814e-05,-0.10787,0.090612,0
9280.9,54.3,16.912,0,1.5831,0,9313.8,57.719,11.111,-0.010172,-7.0107e-05,-0.08342,0.089411,0
9280.9,54.3,16.912,0,1.5831,0,9313.8,57.719,11.111,-0.010172,-7.0107e-05,-0.08342,0.089411,0
9280.9,54.3,16.912,0,1.5831,0,9313.8,57.719,11.111,-0.010172,-7.0107e-05,-0.08342,0.089411,0
9280.9,54.3,16.912,0,1.5831,0,9313.8,57.719,11.111,-0.010172,-7.0107e-05,-0.08342,0.089411,0
9280.9,54.3,16.912,0,1.5831,0,9313.8,57.719,11.111,-0.010172,-7.0107e-05,-0.08342,0.089411,0
9280.9,54.3,16.912,0,1.5831,0,9313.8,57.719,11.111,-0.010172,-7.0107e-05,-0.08342,0.089411,0
9280.9,54.3,16.912,0,1.5831,0,9313.8,57.719,11.111,-0.010172,-7.0107e-05,-0.08342,0.089411,0
9280.9,54.3,16.912,0,1.5831,0,9314,57.719,11.111,-0.011568,-7.0813e-05,-0.072568,0.088822,0
9280.9,54.3,16.912,0,1.5831,0,9314,57.719,11.111,-0.011568,-7.0813e-05,-0.072568,0.088822,0
9281.9,54.3,17.005,0,1.5391,0,9314,57.719,11.111,-0.011568,-7.0813e-05,-0.072568,0.091583,0
9281.9,54.3,17.005,0,1.5391,0,9315.2,57.718,11.111,-0.015913,-4.227e-05,-0.030084,0.088577,0
9281.9,54.3,17.005,0,1.5391,0,9315.2,57.718,11.111,-0.015913,-4.227e-05,-0.030084,0.088577,0
9284.3,54.3,17.214,0,1.4385,0,9315.4,57.717,11.111,-0.016352,-3.4274e-05,-0.02363,0.094655,0
9284.3,54.3,17.214,0,1.4385,0,9316,57.716,11.111,-0.017027,-1.1642e-05,-0.0076311,0.092705,0
9284.3,54.3,17.214,0,1.4385,0,9316,57.716,11.111,-0.017027,-1.1642e-05,-0.0076311,0.092705,0
9284.3,54.3,17.214,0,1.4385,0,9316,57.716,11.111,-0.017027,-1.1642e-05,-0.0076311,0.092705,0
9284.3,54.3,17.214,0,1.4385,0,9316,57.716,11.111,-0.017027,-1.1642e-05,-0.0076311,0.092705,0
9284.3,54.3,17.214,0,1.4385,0,9316,57.716,11.111,-0.017027,-1.1642e-05,-0.0076311,0.092705,0
9284.3,54.3,17.214,0,1.4385,0,9316.3,57.716,11.111,-0.017071,-5.0588e-06,-0.0032991,0.092072,0
9284.3,54.3,17.214,0,1.4385,0,9316.5,57.716,11.111,-0.017039,9.0196e-07,0.00058797,0.091448,0
9284.3,54.3,17.214,0,1.4385,0,9316.5,57.716,11.111,-0.017039,9.0196e-07,0.00058797,0.091448,0
9284.3,54.3,17.214,0,1.4385,0,9316.5,57.716,11.111,-0.017039,9.0196e-07,0.00058797,0.091448,0
9284.3,54.3,17.214,0,1.4385,0,9316.5,57.716,11.111,-0.017039,9.0196e-07,0.00058797,0.091448,0
9284.3,54.3,17.214,0,1.4385,0,9316.5,57.716,11.111,-0.017039,9.0196e-07,0.00058797,0.091448,0
9284.3,54.3,17.214,0,1.4385,0,9316.5,57.716,11.111,-0.017039,9.0196e-07,0.00058797,0.091448,0
9284.3,54.3,17.214,0,1.4385,0,9316.5,57.716,11.111,-0.017039,9.0196e-07,0.00058797,0.091448,0
9284.3,54.3,17.214,0,1.4385,0,9316.7,57.715,11.111,-0.01694,6.2064e-06,0.0040611,0.090833,0
9286,54.3,17.354,0,1.3686,0,9316.7,57.715,11.111,-0.01694,6.2064e-06,0.0040611,0.095851,0
9286,54.3,17.354,0,1.3686,0,9317.2,57.715,11.111,-0.016569,1.4824e-05,0.0098818,0.094509,0
9286,54.3,17.354,0,1.3686,0,9317.2,57.715,11.111,-0.016569,1.4824e-05,0.0098818,0.094509,0
9286,54.3,17.354,0,1.3686,0,9317.2,57.715,11.111,-0.016569,1.4824e-05,0.0098818,0.094509,0
9286,54.3,17.354,0,1.3686,0,9317.2,57.715,11.111,-0.016569,1.4824e-05,0.0098818,0.094509,0
9286,54.3,17.354,0,1.3686,0,9317.2,57.715,11.111,-0.016569,1.4824e-05,0.0098818,0.094509,0
9286,54.3,17.354,0,1.3686,0,9317.2,57.715,11.111,-0.016569,1.4824e-05,0.0098818,0.094509,0
9286.7,54.3,17.408,0,1.3412,0,9317.2,57.715,11.111,-0.016569,1.4824e-05,0.0098818,0.096625,0
9286.7,54.3,17.408,0,1.3412,0,9318,57.713,11.111,-0.015316,2.4752e-05,0.017751,0.093937,0
9286.7,54.3,17.408,0,1.3412,0,9318,57.713,11.111,-0.015316,2.4752e-05,0.017751,0.093937,0
9286.7,54.3,17.408,0,1.3412,0,9318,57.713,11.111,-0.015316,2.4752e-05,0.017751,0.093937,0
9286.7,54.3,17.408,0,1.3412,0,9318,57.713,11.111,-0.015316,2.4752e-05,0.017751,0.093937,0
9286.7,54.3,17.408,0,1.3412,0,9318,57.713,11.111,-0.015316,2.4752e-05,0.017751,0.093937,0
9288.1,54.3,17.514,0,1.2872,0,9318,57.713,11.111,-0.015316,2.4752e-05,0.017751,0.098233,0
9288.4,54.3,17.539,0,1.2739,0,9318,57.713,11.111,-0.015316,2.4752e-05,0.017751,0.099373,0
9289.2,54.3,17.59,0,1.2449,0,9318,57.713,11.111,-0.015316,2.4752e-05,0.017751,0.10174,0
9289.2,54.3,17.59,0,1.2449,0,9318,57.713,11.111,-0.015316,2.4752e-05,0.017751,0.10174,0
9289.2,54.3,17.59,0,1.2449,0,9318,57.713,11.111,-0.015316,2.4752e-05,0.017751,0.10174,0
9289.2,54.3,17.59,0,1.2449,0,9318,57.713,11.111,-0.015316,2.4752e-05,0.017751,0.10174,0
9289.5,54.3,17.614,0,1.23,0,9318,57.713,11.111,-0.015316,2.4752e-05,0.017751,0.10297,0
9289.5,54.3,17.614,0,1.23,0,9319.6,57.711,11.111,-0.012286,2.5899e-05,0.022993,0.097753,0
9289.5,54.3,17.614,0,1.23,0,9319.6,57.711,11.111,-0.012286,2.5899e-05,0.022993,0.097753,0
9289.5,54.3,17.614,0,1.23,0,9319.6,57.711,11.111,-0.012286,2.5899e-05,0.022993,0.097753,0
9289.5,54.3,17.614,0,1.23,0,9319.6,57.711,11.111,-0.012286,2.5899e-05,0.022993,0.097753,0
9289.5,54.3,17.614,0,1.23,0,9319.6,57.711,11.111,-0.012286,2.5899e-05,0.022993,0.097753,0
9289.5,54.3,17.614,0,1.23,0,9319.6,57.711,11.111,-0.012286,2.5899e-05,0.022993,0.097753,0
9290.6,54.3,17.687,0,1.1863,0,9319.6,57.711,11.111,-0.012286,2.5899e-05,0.022993,0.10124,0
9290.6,54.3,17.687,0,1.1863,0,9319.6,57.711,11.111,-0.012286,2.5899e-05,0.022993,0.10124,0
9290.9,54.3,17.71,0,1.1721,0,9319.6,57.711,11.111,-0.012286,2.5899e-05,0.022993,0.10247,0
9290.9,54.3,17.71,0,1.1721,0,9319.6,57.711,11.111,-0.012286,2.5899e-05,0.022993,0.10247,0
9290.9,54.3,17.71,0,1.1721,0,9320.3,57.711,11.111,-0.010897,2.3125e-05,0.02309,0.10019,0
9291.6,54.3,17.757,0,1.1441,0,9320.3,57.711,11.111,-0.010897,2.3125e-05,0.02309,0.10262,0
9292.7,54.3,17.824,0,1.1033,0,9320.9,57.71,11.111,-0.0095402,1.9673e-05,0.022387,0.10404,0
9293.1,54.3,17.846,0,1.09,0,9320.9,57.71,11.111,-0.0095402,1.9673e-05,0.022387,0.10534,0
9293.1,54.3,17.846,0,1.09,0,9320.9,57.71,11.111,-0.0095402,1.9673e-05,0.022387,0.10534,0
9293.4,54.3,17.868,0,1.0768,0,9320.9,57.71,11.111,-0.0095402,1.9673e-05,0.022387,0.10668,0
9293.4,54.3,17.868,0,1.0768,0,9320.9,57.71,11.111,-0.0095402,1.9673e-05,0.022387,0.10668,0
9293.4,54.3,17.868,0,1.0768,0,9320.9,57.71,11.111,-0.0095402,1.9673e-05,0.022387,0.10668,0
9293.4,54.3,17.868,0,1.0768,0,9320.9,57.71,11.111,-0.0095402,1.9673e-05,0.022387,0.10668,0
9293.4,54.3,17.868,0,1.0768,0,9320.9,57.71,11.111,-0.0095402,1.9673e-05,0.022387,0.10668,0
9293.4,54.3,17.868,0,1.0768,0,9320.9,57.71,11.111,-0.0095402,1.9673e-05,0.022387,0.10668,0
9293.4,54.3,17.868,0,1.0768,0,9320.9,57.71,11.111,-0.0095402,1.9673e-05,0.022387,0.10668,0
9293.4,54.3,17.868,0,1.0768,0,9320.9,57.71,11.111,-0.0095402,1.9673e-05,0.022387,0.10668,0
9293.4,54.3,17.868,0,1.0768,0,9320.9,57.71,11.111,-0.0095402,1.9673e-05,0.022387,0.10668,0
9293.4,54.3,17.868,0,1.0768,0,9320.9,57.71,11.111,-0.0095402,1.9673e-05,0.022387,0.10668,0
9293.4,54.3,17.868,0,1.0768,0,9321.8,57.709,11.111,-0.0078409,1.4943e-05,0.020633,0.10341,0
9293.4,54.3,17.868,0,1.0768,0,9321.8,57.709,11.111,-0.0078409,1.4943e-05,0.020633,0.10341,0
9293.4,54.3,17.868,0,1.0768,0,9321.8,57.709,11.111,-0.0078409,1.4943e-05,0.020633,0.10341,0
9293.4,54.3,17.868,0,1.0768,0,9321.8,57.709,11.111,-0.0078409,1.4943e-05,0.020633,0.10341,0
9293.4,54.3,17.868,0,1.0768,0,9321.8,57.709,11.111,-0.0078409,1.4943e-05,0.020633,0.10341,0
9293.4,54.3,17.868,0,1.0768,0,9321.8,57.709,11.111,-0.0078409,1.4943e-05,0.020633,0.10341,0
9293.4,54.3,17.868,0,1.0768,0,9321.8,57.709,11.111,-0.0078409,1.4943e-05,0.020633,0.10341,0
9293.4,54.3,17.868,0,1.0768,0,9322,57.709,11.031,-0.0073893,-4,0.02264,0.10222,0
9293.4,54.3,17.868,0,1.0768,0,9322,57.709,11.031,-0.0073893,-4,0.02264,0.10222,0
9293.4,54.3,17.868,0,1.0768,0,9322,57.709,11.031,-0.0073893,-4,0.02264,0.10222,0
9293.4,54.3,17.868,0,1.0768,0,9322,57.709,11.031,-0.0073893,-4,0.02264,0.10222,0
9295.9,54.3,18.012,0,0.98893,0,9322.5,57.709,10.871,-0.0065418,-4,0.020826,0.10914,0
9295.9,54.3,18.012,0,0.98893,0,9322.5,57.709,10.871,-0.0065418,-4,0.020826,0.10914,0
9295.9,54.3,18.012,0,0.98893,0,9322.5,57.709,10.871,-0.0065418,-4,0.020826,0.10914,0
9295.9,54.3,18.012,0,0.98893,0,9322.5,57.709,10.871,-0.0065418,-4,0.020826,0.10914,0
9297,54.3,18.07,0,0.95338,0,9322.5,57.709,10.871,-0.0065418,-4,0.020826,0.11365,0
9297.4,54.3,18.089,0,0.9418,0,9322.5,57.709,10.871,-0.0065418,-4,0.020826,0.11525,0
9297.4,54.3,18.089,0,0.9418,0,9324.2,57.708,10.231,-0.003845,-4,0.014103,0.10479,0
9297.4,54.3,18.089,0,0.9418,0,9324.2,57.708,10.231,-0.003845,-4,0.014103,0.10479,0
9298.5,54.3,18.145,0,0.90786,0,9324.4,57.708,10.151,-0.0035798,-4,0.013354,0.10784,0
9298.8,54.3,18.163,0,0.89681,0,9324.4,57.708,10.151,-0.0035798,-4,0.013354,0.10934,0
9298.8,54.3,18.163,0,0.89681,0,9324.4,57.708,10.151,-0.0035798,-4,0.013354,0.10934,0
9298.8,54.3,18.163,0,0.89681,0,9324.4,57.708,10.151,-0.0035798,-4,0.013354,0.10934,0
9298.8,54.3,18.163,0,0.89681,0,9324.4,57.708,10.151,-0.0035798,-4,0.013354,0.10934,0
9298.8,54.3,18.163,0,0.89681,0,9324.4,57.708,10.151,-0.0035798,-4,0.013354,0.10934,0
9298.8,54.3,18.163,0,0.89681,0,9324.4,57.708,10.151,-0.0035798,-4,0.013354,0.10934,0
9298.8,54.3,18.163,0,0.89681,0,9324.4,57.708,10.151,-0.0035798,-4,0.013354,0.10934,0
9298.8,54.3,18.163,0,0.89681,0,9324.4,57.708,10.151,-0.0035798,-4,0.013354,0.10934,0
9298.8,54.3,18.163,0,0.89681,0,9325,57.708,9.9111,-0.002869,-4,0.011253,0.10562,0
9298.8,54.3,18.163,0,0.89681,0,9325,57.708,9.9111,-0.002869,-4,0.011253,0.10562,0
9298.8,54.3,18.163,0,0.89681,0,9325,57.708,9.9111,-0.002869,-4,0.011253,0.10562,0
9298.8,54.3,18.163,0,0.89681,0,9325.2,57.708,9.8311,-0.0026587,-4,0.010602,0.10443,0
