-18.648,71.518,-20.987,53.64,-45.838,47.654,-61.571,86.946,-4.4603,72.723,-38.164,56.991,-38.894,22.585,-47.003,55.602
-19.047,71.403,-21.381,53.43,-46.122,47.382,-62.32,86.931,-4.8899,72.084,-38.484,56.937,-39.118,22.133,-47.626,55.651
-19.047,71.403,-21.381,53.43,-46.122,47.382,-62.32,86.931,-4.8899,72.084,-38.484,56.937,-39.118,22.133,-47.626,55.651
-19.244,71.343,-21.576,53.324,-46.261,47.246,-62.692,86.921,-5.1029,71.763,-38.641,56.907,-39.227,21.905,-47.936,55.675
-19.244,71.343,-21.576,53.324,-46.261,47.246,-62.692,86.921,-5.1029,71.763,-38.641,56.907,-39.227,21.905,-47.936,55.675
-19.44,71.282,-21.77,53.217,-46.398,47.108,-63.062,86.91,-5.3146,71.442,-38.797,56.877,-39.334,21.675,-48.244,55.697
-19.44,71.282,-21.77,53.217,-46.398,47.108,-63.062,86.91,-5.3146,71.442,-38.797,56.877,-39.334,21.675,-48.244,55.697
-19.635,71.219,-21.962,53.108,-46.534,46.971,-63.43,86.898,-5.525,71.119,-38.95,56.845,-39.44,21.445,-48.55,55.718
-19.635,71.219,-21.962,53.108,-46.534,46.971,-63.43,86.898,-5.525,71.119,-38.95,56.845,-39.44,21.445,-48.55,55.718
-19.635,71.219,-21.962,53.108,-46.534,46.971,-63.43,86.898,-5.525,71.119,-38.95,56.845,-39.44,21.445,-48.55,55.718
-19.829,71.154,-22.152,52.998,-46.667,46.832,-63.796,86.884,-5.7342,70.796,-39.102,56.811,-39.543,21.213,-48.854,55.739
-19.829,71.154,-22.152,52.998,-46.667,46.832,-63.796,86.884,-5.7342,70.796,-39.102,56.811,-39.543,21.213,-48.854,55.739
-20.021,71.088,-22.341,52.888,-46.799,46.694,-64.16,86.868,-5.9421,70.471,-39.251,56.776,-39.645,20.981,-49.157,55.758
-20.021,71.088,-22.341,52.888,-46.799,46.694,-64.16,86.868,-5.9421,70.471,-39.251,56.776,-39.645,20.981,-49.157,55.758
-20.212,71.021,-22.529,52.776,-46.929,46.554,-64.521,86.852,-6.1486,70.146,-39.399,56.74,-39.745,20.747,-49.458,55.776
-20.402,70.952,-22.714,52.663,-47.057,46.415,-64.881,86.834,-6.3539,69.821,-39.545,56.702,-39.843,20.512,-49.757,55.793
-20.402,70.952,-22.714,52.663,-47.057,46.415,-64.881,86.834,-6.3539,69.821,-39.545,56.702,-39.843,20.512,-49.757,55.793
-20.59,70.882,-22.898,52.549,-47.183,46.275,-65.239,86.814,-6.5578,69.494,-39.69,56.663,-39.939,20.276,-50.055,55.81
-20.59,70.882,-22.898,52.549,-47.183,46.275,-65.239,86.814,-6.5578,69.494,-39.69,56.663,-39.939,20.276,-50.055,55.81
-20.778,70.81,-23.081,52.435,-47.307,46.134,-65.595,86.793,-6.7604,69.167,-39.832,56.622,-40.033,20.039,-50.35,55.825
-20.778,70.81,-23.081,52.435,-47.307,46.134,-65.595,86.793,-6.7604,69.167,-39.832,56.622,-40.033,20.039,-50.35,55.825
-20.964,70.737,-23.262,52.319,-47.429,45.994,-65.949,86.77,-6.9616,68.839,-39.973,56.58,-40.126,19.801,-50.645,55.839
-20.964,70.737,-23.262,52.319,-47.429,45.994,-65.949,86.77,-6.9616,68.839,-39.973,56.58,-40.126,19.801,-50.645,55.839
-21.149,70.663,-23.441,52.202,-47.549,45.852,-66.301,86.747,-7.1614,68.511,-40.111,56.536,-40.216,19.562,-50.937,55.853
-21.149,70.663,-23.441,52.202,-47.549,45.852,-66.301,86.747,-7.1614,68.511,-40.111,56.536,-40.216,19.562,-50.937,55.853
-21.332,70.587,-23.619,52.084,-47.668,45.711,-66.651,86.721,-7.3598,68.182,-40.248,56.491,-40.305,19.322,-51.228,55.865
-21.332,70.587,-23.619,52.084,-47.668,45.711,-66.651,86.721,-7.3598,68.182,-40.248,56.491,-40.305,19.322,-51.228,55.865
-21.515,70.509,-23.795,51.965,-47.784,45.569,-66.999,86.695,-7.5569,67.852,-40.383,56.445,-40.392,19.081,-51.517,55.877
-21.696,70.431,-23.97,51.846,-47.899,45.427,-67.345,86.667,-7.7525,67.522,-40.517,56.397,-40.477,18.839,-51.804,55.887
-21.696,70.431,-23.97,51.846,-47.899,45.427,-67.345,86.667,-7.7525,67.522,-40.517,56.397,-40.477,18.839,-51.804,55.887
-21.696,70.431,-23.97,51.846,-47.899,45.427,-67.345,86.667,-7.7525,67.522,-40.517,56.397,-40.477,18.839,-51.804,55.887
-21.875,70.351,-24.143,51.725,-48.012,45.284,-67.688,86.637,-7.9467,67.192,-40.648,56.348,-40.56,18.596,-52.089,55.897
-21.875,70.351,-24.143,51.725,-48.012,45.284,-67.688,86.637,-7.9467,67.192,-40.648,56.348,-40.56,18.596,-52.089,55.897
-22.054,70.269,-24.314,51.603,-48.122,45.141,-68.03,86.606,-8.1394,66.86,-40.778,56.298,-40.641,18.352,-52.373,55.906
-22.054,70.269,-24.314,51.603,-48.122,45.141,-68.03,86.606,-8.1394,66.86,-40.778,56.298,-40.641,18.352,-52.373,55.906
-22.231,70.187,-24.484,51.48,-48.231,44.998,-68.369,86.574,-8.3307,66.529,-40.905,56.246,-40.72,18.107,-52.655,55.913
-22.231,70.187,-24.484,51.48,-48.231,44.998,-68.369,86.574,-8.3307,66.529,-40.905,56.246,-40.72,18.107,-52.655,55.913
-22.407,70.103,-24.652,51.357,-48.338,44.855,-68.707,86.541,-8.5205,66.197,-41.031,56.192,-40.797,17.862,-52.936,55.92
-22.407,70.103,-24.652,51.357,-48.338,44.855,-68.707,86.541,-8.5205,66.197,-41.031,56.192,-40.797,17.862,-52.936,55.92
-22.582,70.018,-24.819,51.232,-48.443,44.711,-69.042,86.506,-8.7088,65.864,-41.155,56.138,-40.873,17.615,-53.214,55.926
-22.582,70.018,-24.819,51.232,-48.443,44.711,-69.042,86.506,-8.7088,65.864,-41.155,56.138,-40.873,17.615,-53.214,55.926
-22.755,69.931,-24.984,51.106,-48.546,44.568,-69.375,86.469,-8.8956,65.531,-41.278,56.081,-40.946,17.367,-53.491,55.931
-22.755,69.931,-24.984,51.106,-48.546,44.568,-69.375,86.469,-8.8956,65.531,-41.278,56.081,-40.946,17.367,-53.491,55.931
-22.927,69.843,-25.147,50.98,-48.647,44.423,-69.707,86.431,-9.0809,65.198,-41.398,56.024,-41.018,17.119,-53.766,55.935
-22.927,69.843,-25.147,50.98,-48.647,44.423,-69.707,86.431,-9.0809,65.198,-41.398,56.024,-41.018,17.119,-53.766,55.935
-23.098,69.754,-25.309,50.852,-48.746,44.279,-70.036,86.392,-9.2647,64.864,-41.517,55.965,-41.088,16.869,-54.04,55.939
-23.098,69.754,-25.309,50.852,-48.746,44.279,-70.036,86.392,-9.2647,64.864,-41.517,55.965,-41.088,16.869,-54.04,55.939
-23.267,69.664,-25.469,50.724,-48.844,44.135,-70.362,86.352,-9.4469,64.531,-41.634,55.905,-41.156,16.619,-54.311,55.941
-23.436,69.572,-25.627,50.595,-48.939,43.99,-70.687,86.31,-9.6276,64.196,-41.749,55.843,-41.221,16.368,-54.581,55.942
-23.436,69.572,-25.627,50.595,-48.939,43.99,-70.687,86.31,-9.6276,64.196,-41.749,55.843,-41.221,16.368,-54.581,55.942
-23.436,69.572,-25.627,50.595,-48.939,43.99,-70.687,86.31,-9.6276,64.196,-41.749,55.843,-41.221,16.368,-54.581,55.942
-23.603,69.48,-25.784,50.465,-49.032,43.845,-71.01,86.267,-9.8067,63.862,-41.862,55.78,-41.285,16.116,-54.85,55.943
-23.603,69.48,-25.784,50.465,-49.032,43.845,-71.01,86.267,-9.8067,63.862,-41.862,55.78,-41.285,16.116,-54.85,55.943
-23.768,69.386,-25.939,50.334,-49.123,43.7,-71.33,86.222,-9.9842,63.527,-41.973,55.716,-41.348,15.863,-55.116,55.943
-23.768,69.386,-25.939,50.334,-49.123,43.7,-71.33,86.222,-9.9842,63.527,-41.973,55.716,-41.348,15.863,-55.116,55.943
-23.933,69.29,-26.093,50.202,-49.213,43.555,-71.648,86.176,-10.16,63.192,-42.083,55.65,-41.408,15.61,-55.381,55.942
-23.933,69.29,-26.093,50.202,-49.213,43.555,-71.648,86.176,-10.16,63.192,-42.083,55.65,-41.408,15.61,-55.381,55.942
-24.096,69.194,-26.245,50.069,-49.3,43.41,-71.964,86.129,-10.334,62.857,-42.19,55.583,-41.466,15.356,-55.644,55.94
-24.096,69.194,-26.245,50.069,-49.3,43.41,-71.964,86.129,-10.334,62.857,-42.19,55.583,-41.466,15.356,-55.644,55.94
-24.257,69.097,-26.395,49.935,-49.386,43.265,-72.278,86.08,-10.507,62.522,-42.296,55.515,-41.522,15.1,-55.905,55.937
-24.257,69.097,-26.395,49.935,-49.386,43.265,-72.278,86.08,-10.507,62.522,-42.296,55.515,-41.522,15.1,-55.905,55.937
-24.418,68.998,-26.543,49.8,-49.469,43.12,-72.59,86.03,-10.678,62.187,-42.4,55.446,-41.577,14.845,-56.164,55.933
-24.418,68.998,-26.543,49.8,-49.469,43.12,-72.59,86.03,-10.678,62.187,-42.4,55.446,-41.577,14.845,-56.164,55.933
-24.577,68.898,-26.69,49.665,-49.551,42.974,-72.899,85.979,-10.847,61.851,-42.503,55.375,-41.629,14.588,-56.422,55.928
-24.577,68.898,-26.69,49.665,-49.551,42.974,-72.899,85.979,-10.847,61.851,-42.503,55.375,-41.629,14.588,-56.422,55.928
-24.735,68.797,-26.836,49.529,-49.63,42.829,-73.207,85.927,-11.015,61.515,-42.603,55.302,-41.679,14.331,-56.678,55.923
-24.735,68.797,-26.836,49.529,-49.63,42.829,-73.207,85.927,-11.015,61.515,-42.603,55.302,-41.679,14.331,-56.678,55.923
-24.891,68.695,-26.979,49.392,-49.708,42.683,-73.512,85.873,-11.181,61.18,-42.702,55.229,-41.728,14.073,-56.932,55.917
-24.891,68.695,-26.979,49.392,-49.708,42.683,-73.512,85.873,-11.181,61.18,-42.702,55.229,-41.728,14.073,-56.932,55.917
-24.891,68.695,-26.979,49.392,-49.708,42.683,-73.512,85.873,-11.181,61.18,-42.702,55.229,-41.728,14.073,-56.932,55.917
-25.047,68.592,-27.121,49.254,-49.784,42.538,-73.815,85.817,-11.345,60.844,-42.799,55.154,-41.775,13.814,-57.184,55.91
-25.047,68.592,-27.121,49.254,-49.784,42.538,-73.815,85.817,-11.345,60.844,-42.799,55.154,-41.775,13.814,-57.184,55.91
-25.047,68.592,-27.121,49.254,-49.784,42.538,-73.815,85.817,-11.345,60.844,-42.799,55.154,-41.775,13.814,-57.184,55.91
-25.353,68.382,-27.4,48.975,-49.929,42.247,-74.414,85.703,-11.669,60.173,-42.987,55,-41.862,13.295,-57.684,55.893
-25.353,68.382,-27.4,48.975,-49.929,42.247,-74.414,85.703,-11.669,60.173,-42.987,55,-41.862,13.295,-57.684,55.893
-25.353,68.382,-27.4,48.975,-49.929,42.247,-74.414,85.703,-11.669,60.173,-42.987,55,-41.862,13.295,-57.684,55.893
-25.505,68.276,-27.537,48.835,-49.999,42.101,-74.71,85.643,-11.828,59.837,-43.078,54.921,-41.903,13.034,-57.931,55.883
-25.505,68.276,-27.537,48.835,-49.999,42.101,-74.71,85.643,-11.828,59.837,-43.078,54.921,-41.903,13.034,-57.931,55.883
-25.803,68.059,-27.806,48.552,-50.132,41.81,-75.295,85.521,-12.141,59.166,-43.256,54.759,-41.978,12.511,-58.419,55.862
-25.803,68.059,-27.806,48.552,-50.132,41.81,-75.295,85.521,-12.141,59.166,-43.256,54.759,-41.978,12.511,-58.419,55.862
-25.951,67.95,-27.939,48.409,-50.196,41.665,-75.584,85.458,-12.295,58.831,-43.342,54.677,-42.013,12.249,-58.661,55.85
-25.951,67.95,-27.939,48.409,-50.196,41.665,-75.584,85.458,-12.295,58.831,-43.342,54.677,-42.013,12.249,-58.661,55.85
-25.951,67.95,-27.939,48.409,-50.196,41.665,-75.584,85.458,-12.295,58.831,-43.342,54.677,-42.013,12.249,-58.661,55.85
-26.097,67.839,-28.069,48.265,-50.258,41.52,-75.871,85.393,-12.447,58.496,-43.426,54.593,-42.046,11.985,-58.901,55.837
-26.097,67.839,-28.069,48.265,-50.258,41.52,-75.871,85.393,-12.447,58.496,-43.426,54.593,-42.046,11.985,-58.901,55.837
-26.242,67.728,-28.198,48.121,-50.318,41.375,-76.156,85.328,-12.598,58.161,-43.509,54.507,-42.077,11.722,-59.139,55.824
-26.242,67.728,-28.198,48.121,-50.318,41.375,-76.156,85.328,-12.598,58.161,-43.509,54.507,-42.077,11.722,-59.139,55.824
-26.385,67.615,-28.325,47.975,-50.376,41.229,-76.439,85.26,-12.746,57.826,-43.589,54.421,-42.107,11.458,-59.375,55.809
-26.385,67.615,-28.325,47.975,-50.376,41.229,-76.439,85.26,-12.746,57.826,-43.589,54.421,-42.107,11.458,-59.375,55.809
-26.385,67.615,-28.325,47.975,-50.376,41.229,-76.439,85.26,-12.746,57.826,-43.589,54.421,-42.107,11.458,-59.375,55.809
-26.527,67.501,-28.45,47.83,-50.431,41.085,-76.719,85.192,-12.893,57.491,-43.668,54.333,-42.134,11.193,-59.61,55.794
-26.527,67.501,-28.45,47.83,-50.431,41.085,-76.719,85.192,-12.893,57.491,-43.668,54.333,-42.134,11.193,-59.61,55.794
-26.527,67.501,-28.45,47.83,-50.431,41.085,-76.719,85.192,-12.893,57.491,-43.668,54.333,-42.134,11.193,-59.61,55.794
-26.807,67.271,-28.696,47.535,-50.537,40.795,-77.272,85.051,-13.181,56.823,-43.821,54.153,-42.182,10.662,-60.073,55.762
-26.807,67.271,-28.696,47.535,-50.537,40.795,-77.272,85.051,-13.181,56.823,-43.821,54.153,-42.182,10.662,-60.073,55.762
-26.946,67.155,-28.816,47.387,-50.587,40.651,-77.545,84.979,-13.322,56.489,-43.894,54.062,-42.203,10.395,-60.303,55.744
-26.946,67.155,-28.816,47.387,-50.587,40.651,-77.545,84.979,-13.322,56.489,-43.894,54.062,-42.203,10.395,-60.303,55.744
-27.082,67.037,-28.935,47.238,-50.635,40.506,-77.816,84.906,-13.461,56.155,-43.966,53.969,-42.223,10.129,-60.53,55.726
-27.082,67.037,-28.935,47.238,-50.635,40.506,-77.816,84.906,-13.461,56.155,-43.966,53.969,-42.223,10.129,-60.53,55.726
-27.218,66.919,-29.052,47.089,-50.681,40.362,-78.085,84.831,-13.598,55.822,-44.036,53.875,-42.24,9.8615,-60.755,55.707
-27.218,66.919,-29.052,47.089,-50.681,40.362,-78.085,84.831,-13.598,55.822,-44.036,53.875,-42.24,9.8615,-60.755,55.707
-27.352,66.8,-29.168,46.938,-50.725,40.218,-78.351,84.755,-13.734,55.489,-44.105,53.779,-42.255,9.5938,-60.979,55.687
-27.352,66.8,-29.168,46.938,-50.725,40.218,-78.351,84.755,-13.734,55.489,-44.105,53.779,-42.255,9.5938,-60.979,55.687
-27.485,66.68,-29.281,46.787,-50.766,40.074,-78.615,84.678,-13.868,55.157,-44.171,53.683,-42.269,9.3258,-61.201,55.667
-27.485,66.68,-29.281,46.787,-50.766,40.074,-78.615,84.678,-13.868,55.157,-44.171,53.683,-42.269,9.3258,-61.201,55.667
-27.616,66.559,-29.393,46.635,-50.806,39.931,-78.876,84.599,-13.999,54.825,-44.236,53.585,-42.28,9.0572,-61.421,55.646
-27.616,66.559,-29.393,46.635,-50.806,39.931,-78.876,84.599,-13.999,54.825,-44.236,53.585,-42.28,9.0572,-61.421,55.646
-27.747,66.437,-29.504,46.483,-50.844,39.788,-79.135,84.519,-14.129,54.493,-44.299,53.486,-42.29,8.7883,-61.639,55.624
-27.747,66.437,-29.504,46.483,-50.844,39.788,-79.135,84.519,-14.129,54.493,-44.299,53.486,-42.29,8.7883,-61.639,55.624
-27.876,66.314,-29.612,46.33,-50.88,39.645,-79.392,84.438,-14.257,54.162,-44.36,53.385,-42.297,8.519,-61.856,55.601
-27.876,66.314,-29.612,46.33,-50.88,39.645,-79.392,84.438,-14.257,54.162,-44.36,53.385,-42.297,8.519,-61.856,55.601
-28.003,66.191,-29.719,46.176,-50.914,39.502,-79.647,84.356,-14.383,53.831,-44.419,53.284,-42.303,8.2494,-62.07,55.578
-28.003,66.191,-29.719,46.176,-50.914,39.502,-79.647,84.356,-14.383,53.831,-44.419,53.284,-42.303,8.2494,-62.07,55.578
-28.003,66.191,-29.719,46.176,-50.914,39.502,-79.647,84.356,-14.383,53.831,-44.419,53.284,-42.303,8.2494,-62.07,55.578
-28.129,66.066,-29.825,46.021,-50.946,39.359,-79.899,84.272,-14.507,53.501,-44.477,53.181,-42.306,7.9794,-62.283,55.554
-28.129,66.066,-29.825,46.021,-50.946,39.359,-79.899,84.272,-14.507,53.501,-44.477,53.181,-42.306,7.9794,-62.283,55.554
-28.129,66.066,-29.825,46.021,-50.946,39.359,-79.899,84.272,-14.507,53.501,-44.477,53.181,-42.306,7.9794,-62.283,55.554
-28.129,66.066,-29.825,46.021,-50.946,39.359,-79.899,84.272,-14.507,53.501,-44.477,53.181,-42.306,7.9794,-62.283,55.554
-28.378,65.815,-30.031,45.71,-51.003,39.076,-80.396,84.101,-14.748,52.842,-44.587,52.972,-42.308,7.4383,-62.703,55.503
-28.378,65.815,-30.031,45.71,-51.003,39.076,-80.396,84.101,-14.748,52.842,-44.587,52.972,-42.308,7.4383,-62.703,55.503
-28.378,65.815,-30.031,45.71,-51.003,39.076,-80.396,84.101,-14.748,52.842,-44.587,52.972,-42.308,7.4383,-62.703,55.503
-28.621,65.561,-30.23,45.397,-51.053,38.793,-80.883,83.925,-14.982,52.186,-44.69,52.758,-42.301,6.896,-63.116,55.45
-28.621,65.561,-30.23,45.397,-51.053,38.793,-80.883,83.925,-14.982,52.186,-44.69,52.758,-42.301,6.896,-63.116,55.45
-28.741,65.432,-30.327,45.239,-51.075,38.652,-81.123,83.836,-15.096,51.858,-44.739,52.649,-42.295,6.6245,-63.32,55.422
-28.741,65.432,-30.327,45.239,-51.075,38.652,-81.123,83.836,-15.096,51.858,-44.739,52.649,-42.295,6.6245,-63.32,55.422
-28.741,65.432,-30.327,45.239,-51.075,38.652,-81.123,83.836,-15.096,51.858,-44.739,52.649,-42.295,6.6245,-63.32,55.422
-28.859,65.303,-30.422,45.08,-51.095,38.512,-81.36,83.745,-15.208,51.532,-44.786,52.539,-42.287,6.3527,-63.522,55.394
-28.976,65.173,-30.516,44.921,-51.113,38.372,-81.596,83.653,-15.318,51.206,-44.832,52.428,-42.277,6.0806,-63.722,55.365
-29.091,65.043,-30.608,44.762,-51.128,38.232,-81.828,83.559,-15.426,50.88,-44.876,52.316,-42.265,5.8083,-63.92,55.335
-29.091,65.043,-30.608,44.762,-51.128,38.232,-81.828,83.559,-15.426,50.88,-44.876,52.316,-42.265,5.8083,-63.92,55.335
-29.091,65.043,-30.608,44.762,-51.128,38.232,-81.828,83.559,-15.426,50.88,-44.876,52.316,-42.265,5.8083,-63.92,55.335
-29.205,64.911,-30.698,44.601,-51.142,38.093,-82.059,83.465,-15.531,50.555,-44.918,52.202,-42.251,5.5358,-64.116,55.305
-29.205,64.911,-30.698,44.601,-51.142,38.093,-82.059,83.465,-15.531,50.555,-44.918,52.202,-42.251,5.5358,-64.116,55.305
-29.205,64.911,-30.698,44.601,-51.142,38.093,-82.059,83.465,-15.531,50.555,-44.918,52.202,-42.251,5.5358,-64.116,55.305
-29.318,64.779,-30.787,44.441,-51.154,37.954,-82.287,83.369,-15.635,50.231,-44.958,52.087,-42.235,5.2632,-64.311,55.273
-29.318,64.779,-30.787,44.441,-51.154,37.954,-82.287,83.369,-15.635,50.231,-44.958,52.087,-42.235,5.2632,-64.311,55.273
-29.43,64.647,-30.874,44.279,-51.164,37.815,-82.512,83.272,-15.736,49.908,-44.996,51.972,-42.217,4.9903,-64.503,55.242
-29.54,64.513,-30.959,44.117,-51.172,37.677,-82.735,83.174,-15.836,49.586,-45.033,51.855,-42.197,4.7172,-64.694,55.209
-29.54,64.513,-30.959,44.117,-51.172,37.677,-82.735,83.174,-15.836,49.586,-45.033,51.855,-42.197,4.7172,-64.694,55.209
-29.649,64.379,-31.043,43.954,-51.178,37.54,-82.956,83.074,-15.933,49.264,-45.068,51.736,-42.175,4.4441,-64.883,55.176
-29.649,64.379,-31.043,43.954,-51.178,37.54,-82.956,83.074,-15.933,49.264,-45.068,51.736,-42.175,4.4441,-64.883,55.176
-29.757,64.245,-31.125,43.791,-51.181,37.403,-83.174,82.974,-16.029,48.943,-45.101,51.617,-42.151,4.1707,-65.07,55.142
-29.757,64.245,-31.125,43.791,-51.181,37.403,-83.174,82.974,-16.029,48.943,-45.101,51.617,-42.151,4.1707,-65.07,55.142
-29.863,64.11,-31.205,43.627,-51.183,37.266,-83.389,82.872,-16.122,48.623,-45.133,51.497,-42.125,3.8973,-65.255,55.107
-29.863,64.11,-31.205,43.627,-51.183,37.266,-83.389,82.872,-16.122,48.623,-45.133,51.497,-42.125,3.8973,-65.255,55.107
-29.863,64.11,-31.205,43.627,-51.183,37.266,-83.389,82.872,-16.122,48.623,-45.133,51.497,-42.125,3.8973,-65.255,55.107
-29.968,63.974,-31.284,43.463,-51.183,37.13,-83.603,82.769,-16.213,48.304,-45.163,51.375,-42.098,3.6238,-65.438,55.072
-29.968,63.974,-31.284,43.463,-51.183,37.13,-83.603,82.769,-16.213,48.304,-45.163,51.375,-42.098,3.6238,-65.438,55.072
-29.968,63.974,-31.284,43.463,-51.183,37.13,-83.603,82.769,-16.213,48.304,-45.163,51.375,-42.098,3.6238,-65.438,55.072
-30.173,63.7,-31.436,43.133,-51.176,36.859,-84.021,82.56,-16.388,47.668,-45.218,51.128,-42.036,3.0764,-65.799,55
-30.173,63.7,-31.436,43.133,-51.176,36.859,-84.021,82.56,-16.388,47.668,-45.218,51.128,-42.036,3.0764,-65.799,55
-30.173,63.7,-31.436,43.133,-51.176,36.859,-84.021,82.56,-16.388,47.668,-45.218,51.128,-42.036,3.0764,-65.799,55
-30.173,63.7,-31.436,43.133,-51.176,36.859,-84.021,82.56,-16.388,47.668,-45.218,51.128,-42.036,3.0764,-65.799,55
-30.374,63.424,-31.582,42.8,-51.162,36.591,-84.43,82.346,-16.555,47.035,-45.265,50.877,-41.967,2.5289,-66.153,54.925
-30.374,63.424,-31.582,42.8,-51.162,36.591,-84.43,82.346,-16.555,47.035,-45.265,50.877,-41.967,2.5289,-66.153,54.925
-30.472,63.285,-31.652,42.633,-51.152,36.457,-84.631,82.238,-16.635,46.721,-45.287,50.75,-41.93,2.2551,-66.327,54.886
-30.569,63.146,-31.721,42.466,-51.14,36.324,-84.829,82.128,-16.713,46.407,-45.306,50.622,-41.891,1.9813,-66.499,54.847
-30.569,63.146,-31.721,42.466,-51.14,36.324,-84.829,82.128,-16.713,46.407,-45.306,50.622,-41.891,1.9813,-66.499,54.847
-30.569,63.146,-31.721,42.466,-51.14,36.324,-84.829,82.128,-16.713,46.407,-45.306,50.622,-41.891,1.9813,-66.499,54.847
-30.569,63.146,-31.721,42.466,-51.14,36.324,-84.829,82.128,-16.713,46.407,-45.306,50.622,-41.891,1.9813,-66.499,54.847
-30.664,63.006,-31.788,42.298,-51.125,36.192,-85.025,82.017,-16.789,46.094,-45.324,50.492,-41.849,1.7075,-66.669,54.807
-30.664,63.006,-31.788,42.298,-51.125,36.192,-85.025,82.017,-16.789,46.094,-45.324,50.492,-41.849,1.7075,-66.669,54.807
-30.664,63.006,-31.788,42.298,-51.125,36.192,-85.025,82.017,-16.789,46.094,-45.324,50.492,-41.849,1.7075,-66.669,54.807
-30.851,62.724,-31.917,41.96,-51.091,35.929,-85.409,81.792,-16.934,45.471,-45.355,50.23,-41.761,1.16,-67.003,54.726
-30.851,62.724,-31.917,41.96,-51.091,35.929,-85.409,81.792,-16.934,45.471,-45.355,50.23,-41.761,1.16,-67.003,54.726
-30.943,62.583,-31.979,41.791,-51.071,35.798,-85.597,81.678,-17.003,45.162,-45.368,50.097,-41.714,0.88636,-67.168,54.684
-30.943,62.583,-31.979,41.791,-51.071,35.798,-85.597,81.678,-17.003,45.162,-45.368,50.097,-41.714,0.88636,-67.168,54.684
-30.943,62.583,-31.979,41.791,-51.071,35.798,-85.597,81.678,-17.003,45.162,-45.368,50.097,-41.714,0.88636,-67.168,54.684
-31.033,62.441,-32.04,41.621,-51.049,35.668,-85.783,81.562,-17.07,44.853,-45.379,49.963,-41.665,0.61277,-67.331,54.642
-31.122,62.298,-32.099,41.45,-51.024,35.539,-85.966,81.446,-17.135,44.545,-45.388,49.828,-41.614,0.33927,-67.491,54.599
-31.122,62.298,-32.099,41.45,-51.024,35.539,-85.966,81.446,-17.135,44.545,-45.388,49.828,-41.614,0.33927,-67.491,54.599
-31.209,62.156,-32.156,41.28,-50.998,35.41,-86.147,81.328,-17.197,44.239,-45.396,49.692,-41.561,0.065886,-67.65,54.555
-31.209,62.156,-32.156,41.28,-50.998,35.41,-86.147,81.328,-17.197,44.239,-45.396,49.692,-41.561,0.065886,-67.65,54.555
-31.296,62.012,-32.212,41.108,-50.97,35.282,-86.325,81.209,-17.258,43.934,-45.402,49.555,-41.506,-0.20738,-67.807,54.511
-31.296,62.012,-32.212,41.108,-50.97,35.282,-86.325,81.209,-17.258,43.934,-45.402,49.555,-41.506,-0.20738,-67.807,54.511
-31.38,61.868,-32.265,40.936,-50.94,35.155,-86.5,81.09,-17.316,43.629,-45.407,49.417,-41.45,-0.4805,-67.962,54.466
-31.38,61.868,-32.265,40.936,-50.94,35.155,-86.5,81.09,-17.316,43.629,-45.407,49.417,-41.45,-0.4805,-67.962,54.466
-31.38,61.868,-32.265,40.936,-50.94,35.155,-86.5,81.09,-17.316,43.629,-45.407,49.417,-41.45,-0.4805,-67.962,54.466
-31.464,61.724,-32.318,40.764,-50.908,35.028,-86.673,80.969,-17.371,43.326,-45.409,49.278,-41.391,-0.75347,-68.115,54.421
-31.464,61.724,-32.318,40.764,-50.908,35.028,-86.673,80.969,-17.371,43.326,-45.409,49.278,-41.391,-0.75347,-68.115,54.421
-31.464,61.724,-32.318,40.764,-50.908,35.028,-86.673,80.969,-17.371,43.326,-45.409,49.278,-41.391,-0.75347,-68.115,54.421
-31.627,61.435,-32.417,40.419,-50.837,34.777,-87.011,80.724,-17.476,42.724,-45.41,48.996,-41.268,-1.2989,-68.415,54.328
-31.627,61.435,-32.417,40.419,-50.837,34.777,-87.011,80.724,-17.476,42.724,-45.41,48.996,-41.268,-1.2989,-68.415,54.328
-31.627,61.435,-32.417,40.419,-50.837,34.777,-87.011,80.724,-17.476,42.724,-45.41,48.996,-41.268,-1.2989,-68.415,54.328
-31.706,61.289,-32.465,40.245,-50.799,34.652,-87.177,80.6,-17.525,42.424,-45.408,48.854,-41.204,-1.5713,-68.563,54.281
-31.706,61.289,-32.465,40.245,-50.799,34.652,-87.177,80.6,-17.525,42.424,-45.408,48.854,-41.204,-1.5713,-68.563,54.281
-31.706,61.289,-32.465,40.245,-50.799,34.652,-87.177,80.6,-17.525,42.424,-45.408,48.854,-41.204,-1.5713,-68.563,54.281
-31.861,60.997,-32.554,39.897,-50.717,34.405,-87.5,80.348,-17.616,41.829,-45.398,48.566,-41.069,-2.1154,-68.852,54.185
-31.861,60.997,-32.554,39.897,-50.717,34.405,-87.5,80.348,-17.616,41.829,-45.398,48.566,-41.069,-2.1154,-68.852,54.185
-31.937,60.851,-32.597,39.723,-50.673,34.283,-87.657,80.221,-17.658,41.533,-45.391,48.42,-40.999,-2.3871,-68.993,54.136
-31.937,60.851,-32.597,39.723,-50.673,34.283,-87.657,80.221,-17.658,41.533,-45.391,48.42,-40.999,-2.3871,-68.993,54.136
-32.011,60.704,-32.638,39.548,-50.627,34.161,-87.812,80.093,-17.697,41.238,-45.382,48.274,-40.927,-2.6585,-69.133,54.086
-32.011,60.704,-32.638,39.548,-50.627,34.161,-87.812,80.093,-17.697,41.238,-45.382,48.274,-40.927,-2.6585,-69.133,54.086
-32.084,60.557,-32.677,39.372,-50.579,34.04,-87.965,79.963,-17.734,40.945,-45.371,48.126,-40.853,-2.9296,-69.27,54.036
-32.084,60.557,-32.677,39.372,-50.579,34.04,-87.965,79.963,-17.734,40.945,-45.371,48.126,-40.853,-2.9296,-69.27,54.036
-32.155,60.409,-32.714,39.197,-50.529,33.92,-88.115,79.833,-17.769,40.653,-45.359,47.978,-40.778,-3.2004,-69.406,53.985
-32.155,60.409,-32.714,39.197,-50.529,33.92,-88.115,79.833,-17.769,40.653,-45.359,47.978,-40.778,-3.2004,-69.406,53.985
-32.225,60.261,-32.75,39.02,-50.477,33.801,-88.262,79.702,-17.802,40.363,-45.345,47.828,-40.7,-3.4709,-69.54,53.934
-32.225,60.261,-32.75,39.02,-50.477,33.801,-88.262,79.702,-17.802,40.363,-45.345,47.828,-40.7,-3.4709,-69.54,53.934
-32.294,60.113,-32.785,38.844,-50.423,33.682,-88.407,79.569,-17.832,40.073,-45.329,47.677,-40.621,-3.7411,-69.672,53.882
-32.361,59.965,-32.817,38.667,-50.367,33.564,-88.549,79.436,-17.86,39.786,-45.312,47.526,-40.539,-4.0109,-69.802,53.829
-32.361,59.965,-32.817,38.667,-50.367,33.564,-88.549,79.436,-17.86,39.786,-45.312,47.526,-40.539,-4.0109,-69.802,53.829
-32.361,59.965,-32.817,38.667,-50.367,33.564,-88.549,79.436,-17.86,39.786,-45.312,47.526,-40.539,-4.0109,-69.802,53.829
-32.427,59.816,-32.848,38.49,-50.31,33.447,-88.688,79.302,-17.886,39.499,-45.293,47.373,-40.456,-4.2803,-69.93,53.776
-32.427,59.816,-32.848,38.49,-50.31,33.447,-88.688,79.302,-17.886,39.499,-45.293,47.373,-40.456,-4.2803,-69.93,53.776
-32.427,59.816,-32.848,38.49,-50.31,33.447,-88.688,79.302,-17.886,39.499,-45.293,47.373,-40.456,-4.2803,-69.93,53.776
-32.492,59.667,-32.878,38.313,-50.25,33.331,-88.825,79.166,-17.909,39.214,-45.273,47.22,-40.371,-4.5494,-70.056,53.722
-32.556,59.518,-32.906,38.135,-50.188,33.216,-88.96,79.03,-17.93,38.93,-45.251,47.065,-40.284,-4.818,-70.18,53.668
-32.556,59.518,-32.906,38.135,-50.188,33.216,-88.96,79.03,-17.93,38.93,-45.251,47.065,-40.284,-4.818,-70.18,53.668
-32.618,59.369,-32.932,37.957,-50.124,33.102,-89.091,78.892,-17.949,38.648,-45.227,46.909,-40.195,-5.0862,-70.302,53.613
-32.618,59.369,-32.932,37.957,-50.124,33.102,-89.091,78.892,-17.949,38.648,-45.227,46.909,-40.195,-5.0862,-70.302,53.613
-32.678,59.219,-32.957,37.779,-50.059,32.988,-89.221,78.754,-17.965,38.367,-45.202,46.753,-40.105,-5.354,-70.422,53.558
-32.678,59.219,-32.957,37.779,-50.059,32.988,-89.221,78.754,-17.965,38.367,-45.202,46.753,-40.105,-5.354,-70.422,53.558
-32.738,59.07,-32.98,37.6,-49.991,32.875,-89.347,78.615,-17.979,38.088,-45.174,46.595,-40.012,-5.6214,-70.54,53.502
-32.796,58.92,-33.001,37.422,-49.922,32.763,-89.471,78.474,-17.99,37.81,-45.146,46.437,-39.918,-5.8883,-70.656,53.445
-32.796,58.92,-33.001,37.422,-49.922,32.763,-89.471,78.474,-17.99,37.81,-45.146,46.437,-39.918,-5.8883,-70.656,53.445
-32.796,58.92,-33.001,37.422,-49.922,32.763,-89.471,78.474,-17.99,37.81,-45.146,46.437,-39.918,-5.8883,-70.656,53.445
-32.796,58.92,-33.001,37.422,-49.922,32.763,-89.471,78.474,-17.99,37.81,-45.146,46.437,-39.918,-5.8883,-70.656,53.445
-32.853,58.77,-33.021,37.243,-49.85,32.652,-89.592,78.333,-17.999,37.533,-45.116,46.278,-39.822,-6.1546,-70.771,53.388
-32.853,58.77,-33.021,37.243,-49.85,32.652,-89.592,78.333,-17.999,37.533,-45.116,46.278,-39.822,-6.1546,-70.771,53.388
-32.962,58.469,-33.056,36.884,-49.701,32.433,-89.827,78.048,-18.01,36.985,-45.05,45.956,-39.624,-6.6859,-70.993,53.272
-32.962,58.469,-33.056,36.884,-49.701,32.433,-89.827,78.048,-18.01,36.985,-45.05,45.956,-39.624,-6.6859,-70.993,53.272
-33.015,58.318,-33.071,36.704,-49.624,32.325,-89.94,77.904,-18.012,36.713,-45.015,45.794,-39.522,-6.9507,-71.102,53.214
-33.015,58.318,-33.071,36.704,-49.624,32.325,-89.94,77.904,-18.012,36.713,-45.015,45.794,-39.522,-6.9507,-71.102,53.214
-33.015,58.318,-33.071,36.704,-49.624,32.325,-89.94,77.904,-18.012,36.713,-45.015,45.794,-39.522,-6.9507,-71.102,53.214
-33.066,58.168,-33.084,36.524,-49.545,32.217,-90.051,77.759,-18.011,36.443,-44.978,45.63,-39.419,-7.215,-71.208,53.154
-33.066,58.168,-33.084,36.524,-49.545,32.217,-90.051,77.759,-18.011,36.443,-44.978,45.63,-39.419,-7.215,-71.208,53.154
-33.066,58.168,-33.084,36.524,-49.545,32.217,-90.051,77.759,-18.011,36.443,-44.978,45.63,-39.419,-7.215,-71.208,53.154
-33.117,58.017,-33.096,36.343,-49.464,32.111,-90.159,77.613,-18.008,36.174,-44.94,45.466,-39.314,-7.4787,-71.312,53.095
-33.117,58.017,-33.096,36.343,-49.464,32.111,-90.159,77.613,-18.008,36.174,-44.94,45.466,-39.314,-7.4787,-71.312,53.095
-33.117,58.017,-33.096,36.343,-49.464,32.111,-90.159,77.613,-18.008,36.174,-44.94,45.466,-39.314,-7.4787,-71.312,53.095
-33.213,57.715,-33.115,35.982,-49.296,31.901,-90.368,77.319,-17.995,35.641,-44.858,45.135,-39.098,-8.0044,-71.515,52.973
-33.213,57.715,-33.115,35.982,-49.296,31.901,-90.368,77.319,-17.995,35.641,-44.858,45.135,-39.098,-8.0044,-71.515,52.973
-33.213,57.715,-33.115,35.982,-49.296,31.901,-90.368,77.319,-17.995,35.641,-44.858,45.135,-39.098,-8.0044,-71.515,52.973
-33.259,57.563,-33.122,35.801,-49.209,31.797,-90.468,77.17,-17.985,35.377,-44.815,44.968,-38.987,-8.2663,-71.613,52.912
-33.259,57.563,-33.122,35.801,-49.209,31.797,-90.468,77.17,-17.985,35.377,-44.815,44.968,-38.987,-8.2663,-71.613,52.912
-33.259,57.563,-33.122,35.801,-49.209,31.797,-90.468,77.17,-17.985,35.377,-44.815,44.968,-38.987,-8.2663,-71.613,52.912
-33.347,57.261,-33.132,35.439,-49.029,31.593,-90.66,76.87,-17.957,34.854,-44.724,44.632,-38.76,-8.7881,-71.804,52.787
-33.347,57.261,-33.132,35.439,-49.029,31.593,-90.66,76.87,-17.957,34.854,-44.724,44.632,-38.76,-8.7881,-71.804,52.787
-33.389,57.11,-33.134,35.258,-48.937,31.492,-90.753,76.719,-17.939,34.595,-44.676,44.463,-38.644,-9.0481,-71.896,52.724
-33.43,56.958,-33.135,35.076,-48.842,31.392,-90.842,76.567,-17.919,34.338,-44.626,44.292,-38.526,-9.3074,-71.987,52.661
-33.43,56.958,-33.135,35.076,-48.842,31.392,-90.842,76.567,-17.919,34.338,-44.626,44.292,-38.526,-9.3074,-71.987,52.661
-33.469,56.807,-33.134,34.894,-48.746,31.294,-90.929,76.414,-17.897,34.082,-44.575,44.121,-38.407,-9.5659,-72.075,52.596
-33.469,56.807,-33.134,34.894,-48.746,31.294,-90.929,76.414,-17.897,34.082,-44.575,44.121,-38.407,-9.5659,-72.075,52.596
-33.469,56.807,-33.134,34.894,-48.746,31.294,-90.929,76.414,-17.897,34.082,-44.575,44.121,-38.407,-9.5659,-72.075,52.596
-33.508,56.655,-33.132,34.712,-48.648,31.196,-91.013,76.26,-17.872,33.828,-44.522,43.949,-38.285,-9.8238,-72.161,52.532
-33.508,56.655,-33.132,34.712,-48.648,31.196,-91.013,76.26,-17.872,33.828,-44.522,43.949,-38.285,-9.8238,-72.161,52.532
-33.544,56.504,-33.128,34.531,-48.548,31.099,-91.095,76.106,-17.845,33.575,-44.467,43.776,-38.162,-10.081,-72.246,52.467
-33.544,56.504,-33.128,34.531,-48.548,31.099,-91.095,76.106,-17.845,33.575,-44.467,43.776,-38.162,-10.081,-72.246,52.467
-33.58,56.352,-33.123,34.348,-48.446,31.004,-91.174,75.95,-17.815,33.324,-44.411,43.602,-38.037,-10.337,-72.328,52.401
-33.614,56.201,-33.116,34.166,-48.342,30.909,-91.25,75.794,-17.783,33.075,-44.354,43.427,-37.911,-10.593,-72.408,52.335
-33.614,56.201,-33.116,34.166,-48.342,30.909,-91.25,75.794,-17.783,33.075,-44.354,43.427,-37.911,-10.593,-72.408,52.335
-33.614,56.201,-33.116,34.166,-48.342,30.909,-91.25,75.794,-17.783,33.075,-44.354,43.427,-37.911,-10.593,-72.408,52.335
-33.647,56.05,-33.107,33.984,-48.236,30.815,-91.324,75.637,-17.749,32.828,-44.295,43.251,-37.782,-10.848,-72.487,52.268
-33.647,56.05,-33.107,33.984,-48.236,30.815,-91.324,75.637,-17.749,32.828,-44.295,43.251,-37.782,-10.848,-72.487,52.268
-33.678,55.898,-33.097,33.801,-48.128,30.723,-91.395,75.479,-17.712,32.583,-44.234,43.075,-37.652,-11.102,-72.563,52.201
-33.678,55.898,-33.097,33.801,-48.128,30.723,-91.395,75.479,-17.712,32.583,-44.234,43.075,-37.652,-11.102,-72.563,52.201
-33.709,55.747,-33.085,33.619,-48.019,30.631,-91.463,75.321,-17.672,32.339,-44.172,42.898,-37.521,-11.355,-72.637,52.133
-33.709,55.747,-33.085,33.619,-48.019,30.631,-91.463,75.321,-17.672,32.339,-44.172,42.898,-37.521,-11.355,-72.637,52.133
-33.709,55.747,-33.085,33.619,-48.019,30.631,-91.463,75.321,-17.672,32.339,-44.172,42.898,-37.521,-11.355,-72.637,52.133
-33.738,55.596,-33.072,33.436,-47.907,30.541,-91.529,75.161,-17.63,32.097,-44.108,42.719,-37.387,-11.607,-72.709,52.065
-33.738,55.596,-33.072,33.436,-47.907,30.541,-91.529,75.161,-17.63,32.097,-44.108,42.719,-37.387,-11.607,-72.709,52.065
-33.791,55.294,-33.041,33.071,-47.679,30.363,-91.652,74.84,-17.539,31.618,-43.975,42.361,-37.115,-12.109,-72.847,51.927
-33.791,55.294,-33.041,33.071,-47.679,30.363,-91.652,74.84,-17.539,31.618,-43.975,42.361,-37.115,-12.109,-72.847,51.927
-33.791,55.294,-33.041,33.071,-47.679,30.363,-91.652,74.84,-17.539,31.618,-43.975,42.361,-37.115,-12.109,-72.847,51.927
-33.791,55.294,-33.041,33.071,-47.679,30.363,-91.652,74.84,-17.539,31.618,-43.975,42.361,-37.115,-12.109,-72.847,51.927
-33.816,55.143,-33.024,32.888,-47.562,30.276,-91.71,74.678,-17.49,31.381,-43.906,42.18,-36.976,-12.359,-72.913,51.857
-33.816,55.143,-33.024,32.888,-47.562,30.276,-91.71,74.678,-17.49,31.381,-43.906,42.18,-36.976,-12.359,-72.913,51.857
-33.816,55.143,-33.024,32.888,-47.562,30.276,-91.71,74.678,-17.49,31.381,-43.906,42.18,-36.976,-12.359,-72.913,51.857
-33.862,54.841,-32.983,32.523,-47.323,30.105,-91.817,74.353,-17.384,30.914,-43.764,41.817,-36.694,-12.856,-73.039,51.716
-33.862,54.841,-32.983,32.523,-47.323,30.105,-91.817,74.353,-17.384,30.914,-43.764,41.817,-36.694,-12.856,-73.039,51.716
-33.883,54.69,-32.961,32.34,-47.2,30.021,-91.867,74.189,-17.328,30.682,-43.691,41.634,-36.55,-13.103,-73.099,51.645
-33.883,54.69,-32.961,32.34,-47.2,30.021,-91.867,74.189,-17.328,30.682,-43.691,41.634,-36.55,-13.103,-73.099,51.645
-33.903,54.54,-32.937,32.157,-47.076,29.938,-91.914,74.024,-17.268,30.453,-43.616,41.45,-36.405,-13.349,-73.157,51.573
-33.903,54.54,-32.937,32.157,-47.076,29.938,-91.914,74.024,-17.268,30.453,-43.616,41.45,-36.405,-13.349,-73.157,51.573
-33.921,54.39,-32.912,31.975,-46.95,29.857,-91.958,73.859,-17.207,30.226,-43.54,41.266,-36.258,-13.594,-73.213,51.501
-33.921,54.39,-32.912,31.975,-46.95,29.857,-91.958,73.859,-17.207,30.226,-43.54,41.266,-36.258,-13.594,-73.213,51.501
-33.938,54.239,-32.885,31.792,-46.822,29.776,-91.999,73.693,-17.143,30,-43.462,41.08,-36.109,-13.838,-73.267,51.428
-33.938,54.239,-32.885,31.792,-46.822,29.776,-91.999,73.693,-17.143,30,-43.462,41.08,-36.109,-13.838,-73.267,51.428
-33.954,54.089,-32.856,31.609,-46.692,29.697,-92.038,73.526,-17.077,29.776,-43.382,40.894,-35.959,-14.081,-73.318,51.355
-33.954,54.089,-32.856,31.609,-46.692,29.697,-92.038,73.526,-17.077,29.776,-43.382,40.894,-35.959,-14.081,-73.318,51.355
-33.968,53.94,-32.826,31.427,-46.561,29.619,-92.074,73.359,-17.008,29.554,-43.301,40.708,-35.807,-14.323,-73.368,51.281
-33.968,53.94,-32.826,31.427,-46.561,29.619,-92.074,73.359,-17.008,29.554,-43.301,40.708,-35.807,-14.323,-73.368,51.281
-33.981,53.79,-32.795,31.244,-46.428,29.541,-92.108,73.191,-16.937,29.334,-43.218,40.52,-35.653,-14.564,-73.415,51.207
-33.981,53.79,-32.795,31.244,-46.428,29.541,-92.108,73.191,-16.937,29.334,-43.218,40.52,-35.653,-14.564,-73.415,51.207
-33.993,53.641,-32.762,31.061,-46.293,29.466,-92.139,73.022,-16.863,29.116,-43.134,40.332,-35.498,-14.804,-73.461,51.133
-33.993,53.641,-32.762,31.061,-46.293,29.466,-92.139,73.022,-16.863,29.116,-43.134,40.332,-35.498,-14.804,-73.461,51.133
-34.003,53.491,-32.727,30.879,-46.156,29.391,-92.167,72.852,-16.787,28.9,-43.048,40.143,-35.341,-15.043,-73.504,51.058
-34.02,53.194,-32.654,30.514,-45.877,29.245,-92.215,72.512,-16.627,28.473,-42.872,39.763,-35.022,-15.517,-73.585,50.906
-34.02,53.194,-32.654,30.514,-45.877,29.245,-92.215,72.512,-16.627,28.473,-42.872,39.763,-35.022,-15.517,-73.585,50.906
-34.02,53.194,-32.654,30.514,-45.877,29.245,-92.215,72.512,-16.627,28.473,-42.872,39.763,-35.022,-15.517,-73.585,50.906
-34.02,53.194,-32.654,30.514,-45.877,29.245,-92.215,72.512,-16.627,28.473,-42.872,39.763,-35.022,-15.517,-73.585,50.906
-34.02,53.194,-32.654,30.514,-45.877,29.245,-92.215,72.512,-16.627,28.473,-42.872,39.763,-35.022,-15.517,-73.585,50.906
-34.027,53.045,-32.615,30.332,-45.734,29.174,-92.235,72.34,-16.544,28.263,-42.781,39.572,-34.861,-15.753,-73.622,50.83
-34.027,53.045,-32.615,30.332,-45.734,29.174,-92.235,72.34,-16.544,28.263,-42.781,39.572,-34.861,-15.753,-73.622,50.83
-34.032,52.897,-32.574,30.15,-45.59,29.103,-92.252,72.168,-16.458,28.054,-42.689,39.38,-34.697,-15.987,-73.657,50.753
-34.032,52.897,-32.574,30.15,-45.59,29.103,-92.252,72.168,-16.458,28.054,-42.689,39.38,-34.697,-15.987,-73.657,50.753
-34.032,52.897,-32.574,30.15,-45.59,29.103,-92.252,72.168,-16.458,28.054,-42.689,39.38,-34.697,-15.987,-73.657,50.753
-34.036,52.749,-32.532,29.968,-45.445,29.035,-92.267,71.996,-16.37,27.848,-42.596,39.187,-34.533,-16.221,-73.69,50.675
-34.039,52.601,-32.489,29.786,-45.297,28.967,-92.278,71.823,-16.279,27.643,-42.501,38.994,-34.366,-16.453,-73.72,50.598
-34.039,52.601,-32.489,29.786,-45.297,28.967,-92.278,71.823,-16.279,27.643,-42.501,38.994,-34.366,-16.453,-73.72,50.598
-34.039,52.601,-32.489,29.786,-45.297,28.967,-92.278,71.823,-16.279,27.643,-42.501,38.994,-34.366,-16.453,-73.72,50.598
-34.04,52.454,-32.444,29.604,-45.148,28.901,-92.288,71.649,-16.186,27.441,-42.404,38.8,-34.198,-16.684,-73.749,50.519
-34.04,52.454,-32.444,29.604,-45.148,28.901,-92.288,71.649,-16.186,27.441,-42.404,38.8,-34.198,-16.684,-73.749,50.519
-34.04,52.307,-32.397,29.423,-44.997,28.835,-92.294,71.475,-16.09,27.24,-42.306,38.606,-34.029,-16.913,-73.776,50.441
-34.039,52.16,-32.349,29.241,-44.845,28.771,-92.298,71.3,-15.992,27.042,-42.206,38.411,-33.857,-17.142,-73.8,50.361
-34.039,52.16,-32.349,29.241,-44.845,28.771,-92.298,71.3,-15.992,27.042,-42.206,38.411,-33.857,-17.142,-73.8,50.361
-34.036,52.014,-32.3,29.06,-44.69,28.709,-92.299,71.124,-15.892,26.845,-42.105,38.215,-33.685,-17.369,-73.823,50.282
-34.036,52.014,-32.3,29.06,-44.69,28.709,-92.299,71.124,-15.892,26.845,-42.105,38.215,-33.685,-17.369,-73.823,50.282
-34.036,52.014,-32.3,29.06,-44.69,28.709,-92.299,71.124,-15.892,26.845,-42.105,38.215,-33.685,-17.369,-73.823,50.282
-34.027,51.722,-32.197,28.698,-44.376,28.587,-92.293,70.772,-15.684,26.458,-41.898,37.821,-33.335,-17.82,-73.861,50.121
-34.027,51.722,-32.197,28.698,-44.376,28.587,-92.293,70.772,-15.684,26.458,-41.898,37.821,-33.335,-17.82,-73.861,50.121
-34.02,51.577,-32.143,28.518,-44.217,28.528,-92.286,70.595,-15.576,26.267,-41.793,37.623,-33.158,-18.043,-73.877,50.04
-34.012,51.432,-32.088,28.337,-44.056,28.47,-92.276,70.418,-15.466,26.078,-41.685,37.425,-32.979,-18.265,-73.891,49.959
-34.012,51.432,-32.088,28.337,-44.056,28.47,-92.276,70.418,-15.466,26.078,-41.685,37.425,-32.979,-18.265,-73.891,49.959
-34.012,51.432,-32.088,28.337,-44.056,28.47,-92.276,70.418,-15.466,26.078,-41.685,37.425,-32.979,-18.265,-73.891,49.959
-34.012,51.432,-32.088,28.337,-44.056,28.47,-92.276,70.418,-15.466,26.078,-41.685,37.425,-32.979,-18.265,-73.891,49.959
-34.003,51.287,-32.031,28.157,-43.893,28.413,-92.264,70.24,-15.353,25.892,-41.576,37.226,-32.799,-18.486,-73.903,49.877
-34.003,51.287,-32.031,28.157,-43.893,28.413,-92.264,70.24,-15.353,25.892,-41.576,37.226,-32.799,-18.486,-73.903,49.877
-34.003,51.287,-32.031,28.157,-43.893,28.413,-92.264,70.24,-15.353,25.892,-41.576,37.226,-32.799,-18.486,-73.903,49.877
-33.993,51.143,-31.973,27.977,-43.728,28.358,-92.248,70.061,-15.239,25.707,-41.466,37.026,-32.617,-18.706,-73.913,49.795
-33.968,50.855,-31.853,27.618,-43.394,28.251,-92.21,69.703,-15.002,25.344,-41.241,36.625,-32.249,-19.141,-73.926,49.629
-33.968,50.855,-31.853,27.618,-43.394,28.251,-92.21,69.703,-15.002,25.344,-41.241,36.625,-32.249,-19.141,-73.926,49.629
-33.968,50.855,-31.853,27.618,-43.394,28.251,-92.21,69.703,-15.002,25.344,-41.241,36.625,-32.249,-19.141,-73.926,49.629
-33.954,50.712,-31.79,27.439,-43.225,28.2,-92.187,69.523,-14.88,25.166,-41.126,36.424,-32.063,-19.356,-73.929,49.545
-33.954,50.712,-31.79,27.439,-43.225,28.2,-92.187,69.523,-14.88,25.166,-41.126,36.424,-32.063,-19.356,-73.929,49.545
-33.954,50.712,-31.79,27.439,-43.225,28.2,-92.187,69.523,-14.88,25.166,-41.126,36.424,-32.063,-19.356,-73.929,49.545
-33.938,50.57,-31.726,27.26,-43.053,28.15,-92.161,69.343,-14.756,24.99,-41.01,36.222,-31.876,-19.57,-73.93,49.461
-33.938,50.57,-31.726,27.26,-43.053,28.15,-92.161,69.343,-14.756,24.99,-41.01,36.222,-31.876,-19.57,-73.93,49.461
-33.921,50.427,-31.661,27.082,-42.88,28.101,-92.132,69.162,-14.629,24.815,-40.892,36.02,-31.687,-19.782,-73.929,49.377
-33.921,50.427,-31.661,27.082,-42.88,28.101,-92.132,69.162,-14.629,24.815,-40.892,36.02,-31.687,-19.782,-73.929,49.377
-33.903,50.286,-31.594,26.904,-42.706,28.053,-92.1,68.981,-14.5,24.643,-40.772,35.817,-31.496,-19.993,-73.926,49.292
-33.883,50.144,-31.526,26.726,-42.53,28.007,-92.066,68.799,-14.368,24.473,-40.651,35.613,-31.304,-20.203,-73.921,49.207
-33.883,50.144,-31.526,26.726,-42.53,28.007,-92.066,68.799,-14.368,24.473,-40.651,35.613,-31.304,-20.203,-73.921,49.207
-33.863,50.004,-31.456,26.548,-42.352,27.962,-92.029,68.617,-14.235,24.305,-40.529,35.409,-31.111,-20.411,-73.914,49.122
-33.841,49.863,-31.385,26.371,-42.173,27.918,-91.99,68.435,-14.098,24.139,-40.405,35.204,-30.917,-20.618,-73.904,49.036
-33.841,49.863,-31.385,26.371,-42.173,27.918,-91.99,68.435,-14.098,24.139,-40.405,35.204,-30.917,-20.618,-73.904,49.036
-33.841,49.863,-31.385,26.371,-42.173,27.918,-91.99,68.435,-14.098,24.139,-40.405,35.204,-30.917,-20.618,-73.904,49.036
-33.817,49.723,-31.313,26.194,-41.992,27.876,-91.948,68.252,-13.96,23.975,-40.28,34.999,-30.721,-20.823,-73.892,48.949
-33.817,49.723,-31.313,26.194,-41.992,27.876,-91.948,68.252,-13.96,23.975,-40.28,34.999,-30.721,-20.823,-73.892,48.949
-33.792,49.584,-31.239,26.018,-41.809,27.835,-91.903,68.069,-13.819,23.813,-40.153,34.794,-30.523,-21.027,-73.879,48.862
-33.792,49.584,-31.239,26.018,-41.809,27.835,-91.903,68.069,-13.819,23.813,-40.153,34.794,-30.523,-21.027,-73.879,48.862
-33.767,49.445,-31.164,25.842,-41.625,27.795,-91.855,67.886,-13.676,23.654,-40.024,34.587,-30.324,-21.229,-73.863,48.775
-33.767,49.445,-31.164,25.842,-41.625,27.795,-91.855,67.886,-13.676,23.654,-40.024,34.587,-30.324,-21.229,-73.863,48.775
-33.767,49.445,-31.164,25.842,-41.625,27.795,-91.855,67.886,-13.676,23.654,-40.024,34.587,-30.324,-21.229,-73.863,48.775
-33.767,49.445,-31.164,25.842,-41.625,27.795,-91.855,67.886,-13.676,23.654,-40.024,34.587,-30.324,-21.229,-73.863,48.775
-33.711,49.169,-31.009,25.491,-41.252,27.72,-91.752,67.518,-13.383,23.34,-39.763,34.174,-29.923,-21.629,-73.824,48.6
-33.711,49.169,-31.009,25.491,-41.252,27.72,-91.752,67.518,-13.383,23.34,-39.763,34.174,-29.923,-21.629,-73.824,48.6
-33.681,49.032,-30.93,25.316,-41.063,27.684,-91.696,67.333,-13.233,23.187,-39.63,33.966,-29.72,-21.826,-73.802,48.511
-33.681,49.032,-30.93,25.316,-41.063,27.684,-91.696,67.333,-13.233,23.187,-39.63,33.966,-29.72,-21.826,-73.802,48.511
-33.681,49.032,-30.93,25.316,-41.063,27.684,-91.696,67.333,-13.233,23.187,-39.63,33.966,-29.72,-21.826,-73.802,48.511
-33.65,48.895,-30.849,25.142,-40.873,27.649,-91.637,67.149,-13.081,23.036,-39.496,33.758,-29.516,-22.022,-73.777,48.423
-33.65,48.895,-30.849,25.142,-40.873,27.649,-91.637,67.149,-13.081,23.036,-39.496,33.758,-29.516,-22.022,-73.777,48.423
-33.65,48.895,-30.849,25.142,-40.873,27.649,-91.637,67.149,-13.081,23.036,-39.496,33.758,-29.516,-22.022,-73.777,48.423
-33.584,48.623,-30.683,24.795,-40.487,27.585,-91.512,66.778,-12.769,22.74,-39.222,33.341,-29.103,-22.409,-73.721,48.244
-33.584,48.623,-30.683,24.795,-40.487,27.585,-91.512,66.778,-12.769,22.74,-39.222,33.341,-29.103,-22.409,-73.721,48.244
-33.584,48.623,-30.683,24.795,-40.487,27.585,-91.512,66.778,-12.769,22.74,-39.222,33.341,-29.103,-22.409,-73.721,48.244
-33.549,48.488,-30.598,24.622,-40.292,27.554,-91.446,66.593,-12.61,22.595,-39.084,33.131,-28.895,-22.6,-73.69,48.154
-33.549,48.488,-30.598,24.622,-40.292,27.554,-91.446,66.593,-12.61,22.595,-39.084,33.131,-28.895,-22.6,-73.69,48.154
-33.513,48.353,-30.512,24.449,-40.096,27.525,-91.376,66.407,-12.449,22.452,-38.943,32.922,-28.686,-22.789,-73.657,48.064
-33.475,48.219,-30.424,24.277,-39.898,27.497,-91.304,66.221,-12.285,22.312,-38.801,32.711,-28.475,-22.976,-73.622,47.974
-33.475,48.219,-30.424,24.277,-39.898,27.497,-91.304,66.221,-12.285,22.312,-38.801,32.711,-28.475,-22.976,-73.622,47.974
-33.475,48.219,-30.424,24.277,-39.898,27.497,-91.304,66.221,-12.285,22.312,-38.801,32.711,-28.475,-22.976,-73.622,47.974
-33.436,48.086,-30.335,24.106,-39.698,27.471,-91.23,66.035,-12.119,22.173,-38.658,32.501,-28.263,-23.162,-73.584,47.883
-33.436,48.086,-30.335,24.106,-39.698,27.471,-91.23,66.035,-12.119,22.173,-38.658,32.501,-28.263,-23.162,-73.584,47.883
-33.396,47.953,-30.244,23.935,-39.497,27.446,-91.152,65.848,-11.951,22.037,-38.513,32.29,-28.05,-23.346,-73.544,47.791
-33.355,47.821,-30.153,23.764,-39.295,27.423,-91.072,65.662,-11.781,21.903,-38.367,32.078,-27.836,-23.529,-73.502,47.7
-33.355,47.821,-30.153,23.764,-39.295,27.423,-91.072,65.662,-11.781,21.903,-38.367,32.078,-27.836,-23.529,-73.502,47.7
-33.355,47.821,-30.153,23.764,-39.295,27.423,-91.072,65.662,-11.781,21.903,-38.367,32.078,-27.836,-23.529,-73.502,47.7
-33.312,47.689,-30.059,23.595,-39.091,27.4,-90.989,65.475,-11.609,21.771,-38.219,31.867,-27.62,-23.709,-73.458,47.608
-33.312,47.689,-30.059,23.595,-39.091,27.4,-90.989,65.475,-11.609,21.771,-38.219,31.867,-27.62,-23.709,-73.458,47.608
-33.312,47.689,-30.059,23.595,-39.091,27.4,-90.989,65.475,-11.609,21.771,-38.219,31.867,-27.62,-23.709,-73.458,47.608
-33.223,47.428,-29.869,23.257,-38.678,27.36,-90.816,65.1,-11.257,21.513,-37.919,31.442,-27.185,-24.065,-73.363,47.423
-33.129,47.17,-29.673,22.921,-38.26,27.325,-90.631,64.725,-10.897,21.264,-37.614,31.016,-26.745,-24.414,-73.26,47.237
-33.129,47.17,-29.673,22.921,-38.26,27.325,-90.631,64.725,-10.897,21.264,-37.614,31.016,-26.745,-24.414,-73.26,47.237
-33.129,47.17,-29.673,22.921,-38.26,27.325,-90.631,64.725,-10.897,21.264,-37.614,31.016,-26.745,-24.414,-73.26,47.237
-33.129,47.17,-29.673,22.921,-38.26,27.325,-90.631,64.725,-10.897,21.264,-37.614,31.016,-26.745,-24.414,-73.26,47.237
-33.129,47.17,-29.673,22.921,-38.26,27.325,-90.631,64.725,-10.897,21.264,-37.614,31.016,-26.745,-24.414,-73.26,47.237
-33.08,47.041,-29.573,22.754,-38.049,27.31,-90.535,64.538,-10.713,21.143,-37.459,30.803,-26.524,-24.586,-73.204,47.143
-33.08,47.041,-29.573,22.754,-38.049,27.31,-90.535,64.538,-10.713,21.143,-37.459,30.803,-26.524,-24.586,-73.204,47.143
-33.03,46.914,-29.472,22.588,-37.836,27.296,-90.436,64.35,-10.528,21.024,-37.302,30.589,-26.301,-24.756,-73.147,47.049
-33.03,46.914,-29.472,22.588,-37.836,27.296,-90.436,64.35,-10.528,21.024,-37.302,30.589,-26.301,-24.756,-73.147,47.049
-33.03,46.914,-29.472,22.588,-37.836,27.296,-90.436,64.35,-10.528,21.024,-37.302,30.589,-26.301,-24.756,-73.147,47.049
-32.978,46.787,-29.37,22.422,-37.622,27.283,-90.334,64.162,-10.34,20.907,-37.144,30.375,-26.077,-24.924,-73.088,46.955
-32.978,46.787,-29.37,22.422,-37.622,27.283,-90.334,64.162,-10.34,20.907,-37.144,30.375,-26.077,-24.924,-73.088,46.955
-32.926,46.66,-29.266,22.257,-37.407,27.272,-90.23,63.974,-10.15,20.792,-36.985,30.161,-25.852,-25.09,-73.026,46.86
-32.926,46.66,-29.266,22.257,-37.407,27.272,-90.23,63.974,-10.15,20.792,-36.985,30.161,-25.852,-25.09,-73.026,46.86
-32.872,46.535,-29.161,22.093,-37.19,27.262,-90.123,63.786,-9.9584,20.679,-36.824,29.946,-25.626,-25.254,-72.962,46.765
-32.872,46.535,-29.161,22.093,-37.19,27.262,-90.123,63.786,-9.9584,20.679,-36.824,29.946,-25.626,-25.254,-72.962,46.765
-32.816,46.41,-29.054,21.929,-36.971,27.254,-90.014,63.598,-9.7644,20.569,-36.661,29.731,-25.398,-25.416,-72.896,46.67
-32.816,46.41,-29.054,21.929,-36.971,27.254,-90.014,63.598,-9.7644,20.569,-36.661,29.731,-25.398,-25.416,-72.896,46.67
-32.816,46.41,-29.054,21.929,-36.971,27.254,-90.014,63.598,-9.7644,20.569,-36.661,29.731,-25.398,-25.416,-72.896,46.67
-32.76,46.286,-28.946,21.766,-36.752,27.247,-89.901,63.409,-9.5683,20.461,-36.497,29.516,-25.17,-25.577,-72.828,46.574
-32.76,46.286,-28.946,21.766,-36.752,27.247,-89.901,63.409,-9.5683,20.461,-36.497,29.516,-25.17,-25.577,-72.828,46.574
-32.702,46.162,-28.837,21.604,-36.531,27.242,-89.786,63.221,-9.3702,20.355,-36.332,29.301,-24.94,-25.735,-72.758,46.478
-32.702,46.162,-28.837,21.604,-36.531,27.242,-89.786,63.221,-9.3702,20.355,-36.332,29.301,-24.94,-25.735,-72.758,46.478
-32.643,46.039,-28.727,21.442,-36.309,27.237,-89.669,63.033,-9.17,20.251,-36.165,29.085,-24.71,-25.892,-72.685,46.382
-32.643,46.039,-28.727,21.442,-36.309,27.237,-89.669,63.033,-9.17,20.251,-36.165,29.085,-24.71,-25.892,-72.685,46.382
-32.583,45.917,-28.615,21.281,-36.085,27.235,-89.548,62.844,-8.9677,20.149,-35.997,28.869,-24.478,-26.046,-72.61,46.286
-32.521,45.796,-28.502,21.121,-35.86,27.233,-89.425,62.656,-8.7634,20.049,-35.828,28.653,-24.245,-26.199,-72.533,46.189
-32.458,45.676,-28.388,20.962,-35.634,27.233,-89.3,62.468,-8.5571,19.952,-35.656,28.437,-24.011,-26.349,-72.454,46.092
-32.394,45.556,-28.272,20.804,-35.406,27.235,-89.171,62.279,-8.3488,19.857,-35.484,28.221,-23.776,-26.498,-72.372,45.995
-32.394,45.556,-28.272,20.804,-35.406,27.235,-89.171,62.279,-8.3488,19.857,-35.484,28.221,-23.776,-26.498,-72.372,45.995
-32.329,45.437,-28.156,20.646,-35.177,27.238,-89.04,62.091,-8.1384,19.763,-35.31,28.004,-23.54,-26.644,-72.289,45.897
-32.329,45.437,-28.156,20.646,-35.177,27.238,-89.04,62.091,-8.1384,19.763,-35.31,28.004,-23.54,-26.644,-72.289,45.897
-32.329,45.437,-28.156,20.646,-35.177,27.238,-89.04,62.091,-8.1384,19.763,-35.31,28.004,-23.54,-26.644,-72.289,45.897
-32.262,45.318,-28.037,20.489,-34.947,27.242,-88.907,61.903,-7.9262,19.673,-35.135,27.787,-23.304,-26.789,-72.203,45.799
-32.262,45.318,-28.037,20.489,-34.947,27.242,-88.907,61.903,-7.9262,19.673,-35.135,27.787,-23.304,-26.789,-72.203,45.799
-32.262,45.318,-28.037,20.489,-34.947,27.242,-88.907,61.903,-7.9262,19.673,-35.135,27.787,-23.304,-26.789,-72.203,45.799
-32.125,45.084,-27.798,20.178,-34.483,27.255,-88.632,61.526,-7.4957,19.497,-34.779,27.353,-22.827,-27.071,-72.025,45.603
-32.125,45.084,-27.798,20.178,-34.483,27.255,-88.632,61.526,-7.4957,19.497,-34.779,27.353,-22.827,-27.071,-72.025,45.603
-32.125,45.084,-27.798,20.178,-34.483,27.255,-88.632,61.526,-7.4957,19.497,-34.779,27.353,-22.827,-27.071,-72.025,45.603
-32.055,44.968,-27.676,20.023,-34.249,27.263,-88.49,61.338,-7.2775,19.413,-34.6,27.136,-22.587,-27.209,-71.932,45.504
-32.055,44.968,-27.676,20.023,-34.249,27.263,-88.49,61.338,-7.2775,19.413,-34.6,27.136,-22.587,-27.209,-71.932,45.504
-32.055,44.968,-27.676,20.023,-34.249,27.263,-88.49,61.338,-7.2775,19.413,-34.6,27.136,-22.587,-27.209,-71.932,45.504
-31.983,44.853,-27.553,19.87,-34.014,27.273,-88.346,61.15,-7.0575,19.331,-34.419,26.919,-22.346,-27.345,-71.838,45.405
-31.983,44.853,-27.553,19.87,-34.014,27.273,-88.346,61.15,-7.0575,19.331,-34.419,26.919,-22.346,-27.345,-71.838,45.405
-31.983,44.853,-27.553,19.87,-34.014,27.273,-88.346,61.15,-7.0575,19.331,-34.419,26.919,-22.346,-27.345,-71.838,45.405
-31.836,44.625,-27.303,19.565,-33.54,27.297,-88.049,60.775,-6.6116,19.173,-34.052,26.484,-21.862,-27.611,-71.642,45.207
-31.836,44.625,-27.303,19.565,-33.54,27.297,-88.049,60.775,-6.6116,19.173,-34.052,26.484,-21.862,-27.611,-71.642,45.207
-31.761,44.513,-27.176,19.414,-33.301,27.312,-87.897,60.587,-6.3859,19.097,-33.867,26.266,-21.618,-27.741,-71.541,45.107
-31.684,44.401,-27.048,19.264,-33.061,27.327,-87.743,60.4,-6.1583,19.023,-33.68,26.049,-21.374,-27.868,-71.437,45.007
-31.684,44.401,-27.048,19.264,-33.061,27.327,-87.743,60.4,-6.1583,19.023,-33.68,26.049,-21.374,-27.868,-71.437,45.007
-31.684,44.401,-27.048,19.264,-33.061,27.327,-87.743,60.4,-6.1583,19.023,-33.68,26.049,-21.374,-27.868,-71.437,45.007
-31.606,44.29,-26.919,19.115,-32.82,27.344,-87.585,60.212,-5.9289,18.952,-33.492,25.831,-21.128,-27.994,-71.332,44.907
-31.606,44.29,-26.919,19.115,-32.82,27.344,-87.585,60.212,-5.9289,18.952,-33.492,25.831,-21.128,-27.994,-71.332,44.907
-31.527,44.18,-26.788,18.967,-32.577,27.363,-87.425,60.025,-5.6976,18.883,-33.302,25.613,-20.882,-28.117,-71.224,44.807
-31.527,44.18,-26.788,18.967,-32.577,27.363,-87.425,60.025,-5.6976,18.883,-33.302,25.613,-20.882,-28.117,-71.224,44.807
-31.527,44.18,-26.788,18.967,-32.577,27.363,-87.425,60.025,-5.6976,18.883,-33.302,25.613,-20.882,-28.117,-71.224,44.807
-31.447,44.07,-26.657,18.82,-32.334,27.383,-87.263,59.838,-5.4645,18.815,-33.111,25.396,-20.635,-28.238,-71.114,44.706
-31.447,44.07,-26.657,18.82,-32.334,27.383,-87.263,59.838,-5.4645,18.815,-33.111,25.396,-20.635,-28.238,-71.114,44.706
-31.366,43.962,-26.524,18.673,-32.089,27.404,-87.097,59.651,-5.2297,18.751,-32.918,25.178,-20.387,-28.357,-71.002,44.606
-31.283,43.854,-26.39,18.528,-31.843,27.427,-86.93,59.465,-4.993,18.688,-32.724,24.96,-20.138,-28.473,-70.887,44.505
-31.283,43.854,-26.39,18.528,-31.843,27.427,-86.93,59.465,-4.993,18.688,-32.724,24.96,-20.138,-28.473,-70.887,44.505
-31.199,43.747,-26.254,18.384,-31.597,27.451,-86.759,59.278,-4.7546,18.627,-32.529,24.742,-19.888,-28.587,-70.77,44.403
-31.199,43.747,-26.254,18.384,-31.597,27.451,-86.759,59.278,-4.7546,18.627,-32.529,24.742,-19.888,-28.587,-70.77,44.403
-31.199,43.747,-26.254,18.384,-31.597,27.451,-86.759,59.278,-4.7546,18.627,-32.529,24.742,-19.888,-28.587,-70.77,44.403
-31.199,43.747,-26.254,18.384,-31.597,27.451,-86.759,59.278,-4.7546,18.627,-32.529,24.742,-19.888,-28.587,-70.77,44.403
-31.027,43.536,-25.98,18.099,-31.099,27.503,-86.411,58.906,-4.2726,18.512,-32.134,24.307,-19.386,-28.809,-70.531,44.2
-31.027,43.536,-25.98,18.099,-31.099,27.503,-86.411,58.906,-4.2726,18.512,-32.134,24.307,-19.386,-28.809,-70.531,44.2
-31.027,43.536,-25.98,18.099,-31.099,27.503,-86.411,58.906,-4.2726,18.512,-32.134,24.307,-19.386,-28.809,-70.531,44.2
-30.939,43.432,-25.842,17.957,-30.849,27.532,-86.232,58.721,-4.0291,18.458,-31.935,24.089,-19.134,-28.916,-70.407,44.099
-30.85,43.329,-25.702,17.817,-30.598,27.562,-86.051,58.535,-3.7838,18.406,-31.734,23.872,-18.881,-29.021,-70.282,43.997
-30.85,43.329,-25.702,17.817,-30.598,27.562,-86.051,58.535,-3.7838,18.406,-31.734,23.872,-18.881,-29.021,-70.282,43.997
-30.76,43.226,-25.561,17.678,-30.345,27.593,-85.868,58.35,-3.5369,18.356,-31.532,23.654,-18.628,-29.124,-70.154,43.895
-30.76,43.226,-25.561,17.678,-30.345,27.593,-85.868,58.35,-3.5369,18.356,-31.532,23.654,-18.628,-29.124,-70.154,43.895
-30.76,43.226,-25.561,17.678,-30.345,27.593,-85.868,58.35,-3.5369,18.356,-31.532,23.654,-18.628,-29.124,-70.154,43.895
-30.669,43.125,-25.418,17.54,-30.092,27.626,-85.682,58.165,-3.2883,18.308,-31.328,23.437,-18.373,-29.224,-70.024,43.792
-30.576,43.024,-25.275,17.403,-29.837,27.66,-85.494,57.981,-3.0381,18.263,-31.123,23.219,-18.118,-29.323,-69.892,43.69
-30.576,43.024,-25.275,17.403,-29.837,27.66,-85.494,57.981,-3.0381,18.263,-31.123,23.219,-18.118,-29.323,-69.892,43.69
-30.576,43.024,-25.275,17.403,-29.837,27.66,-85.494,57.981,-3.0381,18.263,-31.123,23.219,-18.118,-29.323,-69.892,43.69
-30.482,42.924,-25.13,17.267,-29.582,27.695,-85.302,57.796,-2.7863,18.219,-30.917,23.002,-17.863,-29.418,-69.758,43.587
-30.482,42.924,-25.13,17.267,-29.582,27.695,-85.302,57.796,-2.7863,18.219,-30.917,23.002,-17.863,-29.418,-69.758,43.587
-30.482,42.924,-25.13,17.267,-29.582,27.695,-85.302,57.796,-2.7863,18.219,-30.917,23.002,-17.863,-29.418,-69.758,43.587
-30.291,42.728,-24.838,16.999,-29.068,27.771,-84.912,57.429,-2.2779,18.139,-30.5,22.568,-17.349,-29.603,-69.483,43.381
-30.291,42.728,-24.838,16.999,-29.068,27.771,-84.912,57.429,-2.2779,18.139,-30.5,22.568,-17.349,-29.603,-69.483,43.381
-30.291,42.728,-24.838,16.999,-29.068,27.771,-84.912,57.429,-2.2779,18.139,-30.5,22.568,-17.349,-29.603,-69.483,43.381
-30.194,42.631,-24.69,16.867,-28.809,27.811,-84.714,57.246,-2.0214,18.101,-30.289,22.351,-17.091,-29.691,-69.343,43.278
-30.194,42.631,-24.69,16.867,-28.809,27.811,-84.714,57.246,-2.0214,18.101,-30.289,22.351,-17.091,-29.691,-69.343,43.278
-30.095,42.535,-24.541,16.736,-28.55,27.852,-84.512,57.063,-1.7633,18.066,-30.077,22.134,-16.832,-29.777,-69.2,43.175
-30.095,42.535,-24.541,16.736,-28.55,27.852,-84.512,57.063,-1.7633,18.066,-30.077,22.134,-16.832,-29.777,-69.2,43.175
-29.995,42.44,-24.391,16.606,-28.289,27.894,-84.308,56.88,-1.5037,18.033,-29.864,21.918,-16.573,-29.861,-69.054,43.071
-29.894,42.345,-24.239,16.477,-28.028,27.939,-84.102,56.698,-1.2427,18.003,-29.65,21.702,-16.313,-29.942,-68.907,42.968
-29.894,42.345,-24.239,16.477,-28.028,27.939,-84.102,56.698,-1.2427,18.003,-29.65,21.702,-16.313,-29.942,-68.907,42.968
-29.894,42.345,-24.239,16.477,-28.028,27.939,-84.102,56.698,-1.2427,18.003,-29.65,21.702,-16.313,-29.942,-68.907,42.968
-29.792,42.252,-24.087,16.349,-27.766,27.984,-83.893,56.517,-0.9801,17.974,-29.434,21.485,-16.053,-30.021,-68.758,42.864
-29.792,42.252,-24.087,16.349,-27.766,27.984,-83.893,56.517,-0.9801,17.974,-29.434,21.485,-16.053,-30.021,-68.758,42.864
-29.792,42.252,-24.087,16.349,-27.766,27.984,-83.893,56.517,-0.9801,17.974,-29.434,21.485,-16.053,-30.021,-68.758,42.864
-29.583,42.068,-23.779,16.097,-27.238,28.079,-83.467,56.154,-0.45065,17.923,-28.998,21.054,-15.53,-30.171,-68.452,42.656
-29.583,42.068,-23.779,16.097,-27.238,28.079,-83.467,56.154,-0.45065,17.923,-28.998,21.054,-15.53,-30.171,-68.452,42.656
-29.477,41.978,-23.623,15.974,-26.973,28.129,-83.251,55.974,-0.18379,17.9,-28.778,20.839,-15.268,-30.243,-68.296,42.552
-29.477,41.978,-23.623,15.974,-26.973,28.129,-83.251,55.974,-0.18379,17.9,-28.778,20.839,-15.268,-30.243,-68.296,42.552
-29.37,41.889,-23.467,15.851,-26.707,28.18,-83.032,55.794,0.084452,17.88,-28.556,20.623,-15.005,-30.311,-68.138,42.448
-29.37,41.889,-23.467,15.851,-26.707,28.18,-83.032,55.794,0.084452,17.88,-28.556,20.623,-15.005,-30.311,-68.138,42.448
-29.262,41.8,-23.309,15.729,-26.44,28.233,-82.81,55.614,0.35407,17.862,-28.334,20.409,-14.742,-30.378,-67.978,42.344
-29.262,41.8,-23.309,15.729,-26.44,28.233,-82.81,55.614,0.35407,17.862,-28.334,20.409,-14.742,-30.378,-67.978,42.344
-29.152,41.713,-23.15,15.609,-26.173,28.287,-82.586,55.435,0.62503,17.846,-28.11,20.194,-14.478,-30.442,-67.815,42.239
-29.152,41.713,-23.15,15.609,-26.173,28.287,-82.586,55.435,0.62503,17.846,-28.11,20.194,-14.478,-30.442,-67.815,42.239
-29.152,41.713,-23.15,15.609,-26.173,28.287,-82.586,55.435,0.62503,17.846,-28.11,20.194,-14.478,-30.442,-67.815,42.239
-29.042,41.626,-22.99,15.49,-25.904,28.342,-82.36,55.257,0.89732,17.831,-27.885,19.98,-14.213,-30.503,-67.65,42.135
-29.042,41.626,-22.99,15.49,-25.904,28.342,-82.36,55.257,0.89732,17.831,-27.885,19.98,-14.213,-30.503,-67.65,42.135
-28.93,41.54,-22.829,15.373,-25.635,28.399,-82.131,55.078,1.1709,17.819,-27.658,19.766,-13.948,-30.562,-67.484,42.03
-28.93,41.54,-22.829,15.373,-25.635,28.399,-82.131,55.078,1.1709,17.819,-27.658,19.766,-13.948,-30.562,-67.484,42.03
-28.817,41.456,-22.668,15.257,-25.364,28.457,-81.899,54.901,1.4458,17.809,-27.43,19.552,-13.683,-30.618,-67.315,41.926
-28.817,41.456,-22.668,15.257,-25.364,28.457,-81.899,54.901,1.4458,17.809,-27.43,19.552,-13.683,-30.618,-67.315,41.926
-28.587,41.289,-22.341,15.028,-24.822,28.577,-81.428,54.547,1.9993,17.795,-26.97,19.126,-13.151,-30.723,-66.97,41.716
-28.587,41.289,-22.341,15.028,-24.822,28.577,-81.428,54.547,1.9993,17.795,-26.97,19.126,-13.151,-30.723,-66.97,41.716
-28.587,41.289,-22.341,15.028,-24.822,28.577,-81.428,54.547,1.9993,17.795,-26.97,19.126,-13.151,-30.723,-66.97,41.716
-28.47,41.208,-22.176,14.916,-24.549,28.639,-81.19,54.371,2.2779,17.792,-26.738,18.913,-12.884,-30.771,-66.795,41.611
-28.47,41.208,-22.176,14.916,-24.549,28.639,-81.19,54.371,2.2779,17.792,-26.738,18.913,-12.884,-30.771,-66.795,41.611
-28.47,41.208,-22.176,14.916,-24.549,28.639,-81.19,54.371,2.2779,17.792,-26.738,18.913,-12.884,-30.771,-66.795,41.611
-28.352,41.127,-22.01,14.806,-24.276,28.703,-80.948,54.196,2.5577,17.79,-26.505,18.701,-12.617,-30.817,-66.617,41.506
-28.233,41.047,-21.843,14.696,-24.001,28.768,-80.704,54.021,2.8387,17.79,-26.271,18.489,-12.349,-30.86,-66.438,41.402
-28.233,41.047,-21.843,14.696,-24.001,28.768,-80.704,54.021,2.8387,17.79,-26.271,18.489,-12.349,-30.86,-66.438,41.402
-28.113,40.969,-21.675,14.588,-23.727,28.835,-80.458,53.846,3.1208,17.792,-26.035,18.278,-12.081,-30.901,-66.256,41.297
-27.991,40.891,-21.506,14.482,-23.451,28.903,-80.209,53.672,3.404,17.796,-25.798,18.067,-11.812,-30.939,-66.072,41.192
-27.991,40.891,-21.506,14.482,-23.451,28.903,-80.209,53.672,3.404,17.796,-25.798,18.067,-11.812,-30.939,-66.072,41.192
-27.991,40.891,-21.506,14.482,-23.451,28.903,-80.209,53.672,3.404,17.796,-25.798,18.067,-11.812,-30.939,-66.072,41.192
-27.869,40.814,-21.336,14.377,-23.175,28.972,-79.958,53.499,3.6883,17.803,-25.56,17.856,-11.544,-30.974,-65.886,41.086
-27.869,40.814,-21.336,14.377,-23.175,28.972,-79.958,53.499,3.6883,17.803,-25.56,17.856,-11.544,-30.974,-65.886,41.086
-27.869,40.814,-21.336,14.377,-23.175,28.972,-79.958,53.499,3.6883,17.803,-25.56,17.856,-11.544,-30.974,-65.886,41.086
-27.745,40.739,-21.165,14.273,-22.898,29.042,-79.704,53.326,3.9737,17.811,-25.32,17.646,-11.274,-31.007,-65.698,40.981
-27.745,40.739,-21.165,14.273,-22.898,29.042,-79.704,53.326,3.9737,17.811,-25.32,17.646,-11.274,-31.007,-65.698,40.981
-27.62,40.664,-20.993,14.171,-22.62,29.114,-79.448,53.154,4.2602,17.821,-25.079,17.437,-11.005,-31.037,-65.507,40.876
-27.494,40.59,-20.82,14.07,-22.342,29.188,-79.19,52.983,4.5477,17.833,-24.837,17.228,-10.735,-31.064,-65.315,40.771
-27.494,40.59,-20.82,14.07,-22.342,29.188,-79.19,52.983,4.5477,17.833,-24.837,17.228,-10.735,-31.064,-65.315,40.771
-27.367,40.517,-20.647,13.971,-22.062,29.262,-78.929,52.812,4.8362,17.847,-24.594,17.019,-10.465,-31.089,-65.12,40.666
-27.367,40.517,-20.647,13.971,-22.062,29.262,-78.929,52.812,4.8362,17.847,-24.594,17.019,-10.465,-31.089,-65.12,40.666
-27.238,40.446,-20.472,13.874,-21.783,29.338,-78.666,52.642,5.1256,17.863,-24.349,16.811,-10.194,-31.111,-64.924,40.561
-27.238,40.446,-20.472,13.874,-21.783,29.338,-78.666,52.642,5.1256,17.863,-24.349,16.811,-10.194,-31.111,-64.924,40.561
-27.238,40.446,-20.472,13.874,-21.783,29.338,-78.666,52.642,5.1256,17.863,-24.349,16.811,-10.194,-31.111,-64.924,40.561
-27.108,40.375,-20.296,13.777,-21.502,29.416,-78.4,52.472,5.4161,17.882,-24.103,16.603,-9.9234,-31.13,-64.725,40.456
-27.108,40.375,-20.296,13.777,-21.502,29.416,-78.4,52.472,5.4161,17.882,-24.103,16.603,-9.9234,-31.13,-64.725,40.456
-26.978,40.305,-20.12,13.683,-21.221,29.494,-78.132,52.303,5.7074,17.902,-23.856,16.396,-9.6523,-31.146,-64.524,40.35
-26.846,40.237,-19.942,13.59,-20.94,29.574,-77.862,52.135,5.9997,17.924,-23.608,16.19,-9.381,-31.16,-64.321,40.245
-26.846,40.237,-19.942,13.59,-20.94,29.574,-77.862,52.135,5.9997,17.924,-23.608,16.19,-9.381,-31.16,-64.321,40.245
-26.713,40.169,-19.764,13.498,-20.658,29.656,-77.589,51.968,6.2928,17.948,-23.358,15.984,-9.1094,-31.171,-64.116,40.14
-26.713,40.169,-19.764,13.498,-20.658,29.656,-77.589,51.968,6.2928,17.948,-23.358,15.984,-9.1094,-31.171,-64.116,40.14
-26.578,40.102,-19.585,13.408,-20.375,29.739,-77.314,51.801,6.5869,17.973,-23.107,15.779,-8.8376,-31.18,-63.909,40.035
-26.578,40.102,-19.585,13.408,-20.375,29.739,-77.314,51.801,6.5869,17.973,-23.107,15.779,-8.8376,-31.18,-63.909,40.035
-26.443,40.037,-19.405,13.32,-20.092,29.823,-77.036,51.634,6.8817,18.001,-22.856,15.574,-8.5655,-31.185,-63.7,39.93
-26.443,40.037,-19.405,13.32,-20.092,29.823,-77.036,51.634,6.8817,18.001,-22.856,15.574,-8.5655,-31.185,-63.7,39.93
-26.443,40.037,-19.405,13.32,-20.092,29.823,-77.036,51.634,6.8817,18.001,-22.856,15.574,-8.5655,-31.185,-63.7,39.93
-26.307,39.972,-19.224,13.233,-19.808,29.908,-76.757,51.469,7.1773,18.031,-22.602,15.37,-8.2933,-31.188,-63.489,39.825
-26.307,39.972,-19.224,13.233,-19.808,29.908,-76.757,51.469,7.1773,18.031,-22.602,15.37,-8.2933,-31.188,-63.489,39.825
-26.307,39.972,-19.224,13.233,-19.808,29.908,-76.757,51.469,7.1773,18.031,-22.602,15.37,-8.2933,-31.188,-63.489,39.825
-26.03,39.846,-18.859,13.064,-19.239,30.083,-76.19,51.14,7.771,18.096,-22.092,14.964,-7.7483,-31.185,-63.061,39.615
-26.03,39.846,-18.859,13.064,-19.239,30.083,-76.19,51.14,7.771,18.096,-22.092,14.964,-7.7483,-31.185,-63.061,39.615
-25.89,39.785,-18.676,12.982,-18.953,30.172,-75.903,50.977,8.0689,18.131,-21.836,14.762,-7.4756,-31.18,-62.843,39.51
-25.89,39.785,-18.676,12.982,-18.953,30.172,-75.903,50.977,8.0689,18.131,-21.836,14.762,-7.4756,-31.18,-62.843,39.51
-25.749,39.724,-18.491,12.902,-18.667,30.263,-75.614,50.814,8.3675,18.169,-21.578,14.56,-7.2027,-31.172,-62.624,39.405
-25.749,39.724,-18.491,12.902,-18.667,30.263,-75.614,50.814,8.3675,18.169,-21.578,14.56,-7.2027,-31.172,-62.624,39.405
-25.607,39.665,-18.306,12.824,-18.381,30.355,-75.323,50.652,8.6668,18.208,-21.318,14.359,-6.9297,-31.161,-62.403,39.301
-25.607,39.665,-18.306,12.824,-18.381,30.355,-75.323,50.652,8.6668,18.208,-21.318,14.359,-6.9297,-31.161,-62.403,39.301
-25.607,39.665,-18.306,12.824,-18.381,30.355,-75.323,50.652,8.6668,18.208,-21.318,14.359,-6.9297,-31.161,-62.403,39.301
-25.607,39.665,-18.306,12.824,-18.381,30.355,-75.323,50.652,8.6668,18.208,-21.318,14.359,-6.9297,-31.161,-62.403,39.301
-25.319,39.549,-17.933,12.671,-17.807,30.543,-74.733,50.33,9.2674,18.291,-20.797,13.96,-6.3834,-31.13,-61.954,39.091
-25.319,39.549,-17.933,12.671,-17.807,30.543,-74.733,50.33,9.2674,18.291,-20.797,13.96,-6.3834,-31.13,-61.954,39.091
-25.173,39.492,-17.746,12.598,-17.519,30.639,-74.435,50.171,9.5686,18.336,-20.534,13.761,-6.1101,-31.111,-61.726,38.987
-25.173,39.492,-17.746,12.598,-17.519,30.639,-74.435,50.171,9.5686,18.336,-20.534,13.761,-6.1101,-31.111,-61.726,38.987
-25.027,39.437,-17.557,12.526,-17.231,30.736,-74.134,50.012,9.8703,18.383,-20.27,13.563,-5.8367,-31.088,-61.497,38.882
-25.027,39.437,-17.557,12.526,-17.231,30.736,-74.134,50.012,9.8703,18.383,-20.27,13.563,-5.8367,-31.088,-61.497,38.882
-24.879,39.383,-17.368,12.456,-16.942,30.834,-73.832,49.854,10.173,18.431,-20.005,13.366,-5.5633,-31.063,-61.266,38.778
-24.879,39.383,-17.368,12.456,-16.942,30.834,-73.832,49.854,10.173,18.431,-20.005,13.366,-5.5633,-31.063,-61.266,38.778
-24.73,39.329,-17.178,12.387,-16.653,30.934,-73.527,49.696,10.475,18.481,-19.739,13.17,-5.2899,-31.035,-61.032,38.674
-24.73,39.329,-17.178,12.387,-16.653,30.934,-73.527,49.696,10.475,18.481,-19.739,13.17,-5.2899,-31.035,-61.032,38.674
-24.58,39.277,-16.987,12.32,-16.364,31.035,-73.219,49.54,10.779,18.533,-19.472,12.974,-5.0164,-31.005,-60.797,38.569
-24.58,39.277,-16.987,12.32,-16.364,31.035,-73.219,49.54,10.779,18.533,-19.472,12.974,-5.0164,-31.005,-60.797,38.569
-24.429,39.226,-16.796,12.255,-16.074,31.137,-72.91,49.384,11.083,18.587,-19.204,12.779,-4.743,-30.971,-60.56,38.465
-24.429,39.226,-16.796,12.255,-16.074,31.137,-72.91,49.384,11.083,18.587,-19.204,12.779,-4.743,-30.971,-60.56,38.465
-24.429,39.226,-16.796,12.255,-16.074,31.137,-72.91,49.384,11.083,18.587,-19.204,12.779,-4.743,-30.971,-60.56,38.465
-24.276,39.175,-16.604,12.192,-15.784,31.24,-72.598,49.229,11.387,18.642,-18.934,12.585,-4.4695,-30.934,-60.32,38.362
-24.276,39.175,-16.604,12.192,-15.784,31.24,-72.598,49.229,11.387,18.642,-18.934,12.585,-4.4695,-30.934,-60.32,38.362
-24.276,39.175,-16.604,12.192,-15.784,31.24,-72.598,49.229,11.387,18.642,-18.934,12.585,-4.4695,-30.934,-60.32,38.362
-24.276,39.175,-16.604,12.192,-15.784,31.24,-72.598,49.229,11.387,18.642,-18.934,12.585,-4.4695,-30.934,-60.32,38.362
-23.969,39.078,-16.217,12.071,-15.202,31.451,-71.968,48.921,11.997,18.758,-18.392,12.199,-3.9227,-30.853,-59.836,38.154
-23.969,39.078,-16.217,12.071,-15.202,31.451,-71.968,48.921,11.997,18.758,-18.392,12.199,-3.9227,-30.853,-59.836,38.154
-23.969,39.078,-16.217,12.071,-15.202,31.451,-71.968,48.921,11.997,18.758,-18.392,12.199,-3.9227,-30.853,-59.836,38.154
-23.813,39.031,-16.023,12.013,-14.911,31.558,-71.65,48.769,12.302,18.819,-18.12,12.008,-3.6494,-30.808,-59.591,38.051
-23.813,39.031,-16.023,12.013,-14.911,31.558,-71.65,48.769,12.302,18.819,-18.12,12.008,-3.6494,-30.808,-59.591,38.051
-23.656,38.985,-15.827,11.957,-14.62,31.666,-71.329,48.617,12.608,18.882,-17.846,11.817,-3.3761,-30.76,-59.344,37.947
-23.656,38.985,-15.827,11.957,-14.62,31.666,-71.329,48.617,12.608,18.882,-17.846,11.817,-3.3761,-30.76,-59.344,37.947
-23.34,38.895,-15.435,11.85,-14.036,31.887,-70.682,48.316,13.22,19.012,-17.295,11.439,-2.8298,-30.656,-58.844,37.741
-23.34,38.895,-15.435,11.85,-14.036,31.887,-70.682,48.316,13.22,19.012,-17.295,11.439,-2.8298,-30.656,-58.844,37.741
-23.18,38.852,-15.238,11.799,-13.744,31.999,-70.355,48.167,13.527,19.079,-17.018,11.251,-2.5569,-30.599,-58.591,37.638
-23.18,38.852,-15.238,11.799,-13.744,31.999,-70.355,48.167,13.527,19.079,-17.018,11.251,-2.5569,-30.599,-58.591,37.638
-23.18,38.852,-15.238,11.799,-13.744,31.999,-70.355,48.167,13.527,19.079,-17.018,11.251,-2.5569,-30.599,-58.591,37.638
-23.019,38.81,-15.04,11.75,-13.452,32.112,-70.026,48.019,13.834,19.149,-16.74,11.064,-2.2841,-30.54,-58.337,37.535
-23.019,38.81,-15.04,11.75,-13.452,32.112,-70.026,48.019,13.834,19.149,-16.74,11.064,-2.2841,-30.54,-58.337,37.535
-22.857,38.769,-14.841,11.703,-13.159,32.226,-69.695,47.871,14.141,19.22,-16.461,10.878,-2.0114,-30.478,-58.08,37.433
-22.694,38.729,-14.642,11.658,-12.866,32.342,-69.361,47.725,14.448,19.292,-16.181,10.692,-1.7389,-30.412,-57.822,37.33
-22.694,38.729,-14.642,11.658,-12.866,32.342,-69.361,47.725,14.448,19.292,-16.181,10.692,-1.7389,-30.412,-57.822,37.33
-22.694,38.729,-14.642,11.658,-12.866,32.342,-69.361,47.725,14.448,19.292,-16.181,10.692,-1.7389,-30.412,-57.822,37.33
-22.53,38.69,-14.442,11.615,-12.573,32.458,-69.026,47.579,14.755,19.366,-15.9,10.508,-1.4665,-30.344,-57.562,37.228
-22.53,38.69,-14.442,11.615,-12.573,32.458,-69.026,47.579,14.755,19.366,-15.9,10.508,-1.4665,-30.344,-57.562,37.228
-22.53,38.69,-14.442,11.615,-12.573,32.458,-69.026,47.579,14.755,19.366,-15.9,10.508,-1.4665,-30.344,-57.562,37.228
-22.198,38.614,-14.041,11.534,-11.986,32.695,-68.348,47.29,15.37,19.52,-15.335,10.143,-0.92244,-30.2,-57.036,37.024
-22.198,38.614,-14.041,11.534,-11.986,32.695,-68.348,47.29,15.37,19.52,-15.335,10.143,-0.92244,-30.2,-57.036,37.024
-22.198,38.614,-14.041,11.534,-11.986,32.695,-68.348,47.29,15.37,19.52,-15.335,10.143,-0.92244,-30.2,-57.036,37.024
-22.031,38.578,-13.839,11.496,-11.692,32.815,-68.007,47.146,15.678,19.599,-15.05,9.9614,-0.65072,-30.123,-56.77,36.922
-22.031,38.578,-13.839,11.496,-11.692,32.815,-68.007,47.146,15.678,19.599,-15.05,9.9614,-0.65072,-30.123,-56.77,36.922
-21.863,38.543,-13.637,11.46,-11.399,32.937,-67.663,47.004,15.985,19.68,-14.765,9.7812,-0.37924,-30.043,-56.502,36.821
-21.863,38.543,-13.637,11.46,-11.399,32.937,-67.663,47.004,15.985,19.68,-14.765,9.7812,-0.37924,-30.043,-56.502,36.821
-21.863,38.543,-13.637,11.46,-11.399,32.937,-67.663,47.004,15.985,19.68,-14.765,9.7812,-0.37924,-30.043,-56.502,36.821
-21.523,38.476,-13.23,11.394,-10.811,33.183,-66.969,46.722,16.601,19.846,-14.192,9.4238,0.16294,-29.875,-55.962,36.619
-21.523,38.476,-13.23,11.394,-10.811,33.183,-66.969,46.722,16.601,19.846,-14.192,9.4238,0.16294,-29.875,-55.962,36.619
-21.351,38.444,-13.026,11.364,-10.516,33.307,-66.619,46.582,16.908,19.932,-13.904,9.2467,0.43362,-29.787,-55.689,36.518
-21.351,38.444,-13.026,11.364,-10.516,33.307,-66.619,46.582,16.908,19.932,-13.904,9.2467,0.43362,-29.787,-55.689,36.518
-21.179,38.413,-12.821,11.336,-10.222,33.433,-66.267,46.444,17.216,20.019,-13.615,9.0706,0.704,-29.696,-55.414,36.417
-21.179,38.413,-12.821,11.336,-10.222,33.433,-66.267,46.444,17.216,20.019,-13.615,9.0706,0.704,-29.696,-55.414,36.417
-21.005,38.382,-12.616,11.31,-9.9278,33.56,-65.913,46.306,17.523,20.107,-13.325,8.8956,0.97407,-29.602,-55.138,36.317
-21.005,38.382,-12.616,11.31,-9.9278,33.56,-65.913,46.306,17.523,20.107,-13.325,8.8956,0.97407,-29.602,-55.138,36.317
-21.005,38.382,-12.616,11.31,-9.9278,33.56,-65.913,46.306,17.523,20.107,-13.325,8.8956,0.97407,-29.602,-55.138,36.317
-20.831,38.353,-12.41,11.286,-9.6334,33.688,-65.557,46.169,17.83,20.198,-13.035,8.7217,1.2438,-29.505,-54.86,36.217
-20.831,38.353,-12.41,11.286,-9.6334,33.688,-65.557,46.169,17.83,20.198,-13.035,8.7217,1.2438,-29.505,-54.86,36.217
-20.831,38.353,-12.41,11.286,-9.6334,33.688,-65.557,46.169,17.83,20.198,-13.035,8.7217,1.2438,-29.505,-54.86,36.217
-20.479,38.297,-11.997,11.243,-9.0444,33.946,-64.839,45.897,18.444,20.382,-12.45,8.3771,1.7822,-29.302,-54.298,36.018
-20.479,38.297,-11.997,11.243,-9.0444,33.946,-64.839,45.897,18.444,20.382,-12.45,8.3771,1.7822,-29.302,-54.298,36.018
-20.479,38.297,-11.997,11.243,-9.0444,33.946,-64.839,45.897,18.444,20.382,-12.45,8.3771,1.7822,-29.302,-54.298,36.018
-20.301,38.271,-11.79,11.225,-8.7499,34.077,-64.477,45.763,18.751,20.477,-12.157,8.2065,2.0509,-29.196,-54.015,35.918
-20.301,38.271,-11.79,11.225,-8.7499,34.077,-64.477,45.763,18.751,20.477,-12.157,8.2065,2.0509,-29.196,-54.015,35.918
-20.301,38.271,-11.79,11.225,-8.7499,34.077,-64.477,45.763,18.751,20.477,-12.157,8.2065,2.0509,-29.196,-54.015,35.918
-20.122,38.246,-11.582,11.208,-8.4553,34.21,-64.113,45.629,19.058,20.573,-11.862,8.0371,2.3192,-29.088,-53.73,35.819
-19.762,38.198,-11.165,11.181,-7.8662,34.477,-63.379,45.365,19.67,20.77,-11.271,7.7016,2.8545,-28.862,-53.155,35.622
-19.762,38.198,-11.165,11.181,-7.8662,34.477,-63.379,45.365,19.67,20.77,-11.271,7.7016,2.8545,-28.862,-53.155,35.622
-19.762,38.198,-11.165,11.181,-7.8662,34.477,-63.379,45.365,19.67,20.77,-11.271,7.7016,2.8545,-28.862,-53.155,35.622
-19.581,38.175,-10.955,11.17,-7.5717,34.612,-63.009,45.234,19.975,20.87,-10.974,7.5356,3.1215,-28.744,-52.865,35.523
-19.581,38.175,-10.955,11.17,-7.5717,34.612,-63.009,45.234,19.975,20.87,-10.974,7.5356,3.1215,-28.744,-52.865,35.523
-19.398,38.154,-10.746,11.162,-7.2773,34.748,-62.638,45.104,20.28,20.972,-10.676,7.3707,3.3881,-28.624,-52.573,35.425
-19.398,38.154,-10.746,11.162,-7.2773,34.748,-62.638,45.104,20.28,20.972,-10.676,7.3707,3.3881,-28.624,-52.573,35.425
-19.398,38.154,-10.746,11.162,-7.2773,34.748,-62.638,45.104,20.28,20.972,-10.676,7.3707,3.3881,-28.624,-52.573,35.425
-19.215,38.133,-10.535,11.155,-6.9829,34.885,-62.264,44.975,20.585,21.075,-10.377,7.2071,3.6542,-28.501,-52.28,35.328
-19.215,38.133,-10.535,11.155,-6.9829,34.885,-62.264,44.975,20.585,21.075,-10.377,7.2071,3.6542,-28.501,-52.28,35.328
-19.215,38.133,-10.535,11.155,-6.9829,34.885,-62.264,44.975,20.585,21.075,-10.377,7.2071,3.6542,-28.501,-52.28,35.328
-18.845,38.094,-10.114,11.148,-6.3942,35.162,-61.511,44.72,21.194,21.286,-9.7769,6.8834,4.185,-28.246,-51.688,35.133
-18.845,38.094,-10.114,11.148,-6.3942,35.162,-61.511,44.72,21.194,21.286,-9.7769,6.8834,4.185,-28.246,-51.688,35.133
-18.658,38.076,-9.9019,11.147,-6.1,35.302,-61.132,44.594,21.497,21.393,-9.4757,6.7234,4.4496,-28.115,-51.39,35.036
-18.658,38.076,-9.9019,11.147,-6.1,35.302,-61.132,44.594,21.497,21.393,-9.4757,6.7234,4.4496,-28.115,-51.39,35.036
-18.471,38.059,-9.6899,11.148,-5.806,35.443,-60.751,44.468,21.8,21.502,-9.1737,6.5646,4.7137,-27.98,-51.091,34.94
-18.471,38.059,-9.6899,11.148,-5.806,35.443,-60.751,44.468,21.8,21.502,-9.1737,6.5646,4.7137,-27.98,-51.091,34.94
-18.283,38.043,-9.4775,11.152,-5.512,35.585,-60.368,44.344,22.103,21.612,-8.8709,6.407,4.9773,-27.842,-50.789,34.843
-18.283,38.043,-9.4775,11.152,-5.512,35.585,-60.368,44.344,22.103,21.612,-8.8709,6.407,4.9773,-27.842,-50.789,34.843
-18.283,38.043,-9.4775,11.152,-5.512,35.585,-60.368,44.344,22.103,21.612,-8.8709,6.407,4.9773,-27.842,-50.789,34.843
-18.283,38.043,-9.4775,11.152,-5.512,35.585,-60.368,44.344,22.103,21.612,-8.8709,6.407,4.9773,-27.842,-50.789,34.843
-17.904,38.014,-9.0515,11.164,-4.9245,35.871,-59.597,44.097,22.706,21.836,-8.2629,6.0956,5.5027,-27.559,-50.182,34.652
-17.712,38,-8.8379,11.173,-4.631,36.015,-59.209,43.976,23.007,21.95,-7.9578,5.9418,5.7646,-27.413,-49.877,34.557
-17.712,38,-8.8379,11.173,-4.631,36.015,-59.209,43.976,23.007,21.95,-7.9578,5.9418,5.7646,-27.413,-49.877,34.557
-17.712,38,-8.8379,11.173,-4.631,36.015,-59.209,43.976,23.007,21.95,-7.9578,5.9418,5.7646,-27.413,-49.877,34.557
-17.52,37.988,-8.6239,11.185,-4.3376,36.161,-58.819,43.855,23.307,22.065,-7.652,5.7893,6.0258,-27.264,-49.569,34.462
-17.52,37.988,-8.6239,11.185,-4.3376,36.161,-58.819,43.855,23.307,22.065,-7.652,5.7893,6.0258,-27.264,-49.569,34.462
-17.52,37.988,-8.6239,11.185,-4.3376,36.161,-58.819,43.855,23.307,22.065,-7.652,5.7893,6.0258,-27.264,-49.569,34.462
-17.328,37.976,-8.4096,11.198,-4.0444,36.307,-58.427,43.735,23.606,22.181,-7.3454,5.6381,6.2865,-27.112,-49.26,34.367
-17.328,37.976,-8.4096,11.198,-4.0444,36.307,-58.427,43.735,23.606,22.181,-7.3454,5.6381,6.2865,-27.112,-49.26,34.367
-17.328,37.976,-8.4096,11.198,-4.0444,36.307,-58.427,43.735,23.606,22.181,-7.3454,5.6381,6.2865,-27.112,-49.26,34.367
-17.134,37.965,-8.1949,11.213,-3.7514,36.454,-58.033,43.616,23.905,22.299,-7.038,5.4881,6.5465,-26.957,-48.95,34.273
-16.939,37.955,-7.9799,11.231,-3.4587,36.602,-57.638,43.497,24.203,22.418,-6.73,5.3395,6.8059,-26.8,-48.639,34.179
-16.743,37.946,-7.7645,11.25,-3.1661,36.75,-57.241,43.38,24.5,22.538,-6.4212,5.1922,7.0647,-26.64,-48.325,34.085
-16.743,37.946,-7.7645,11.25,-3.1661,36.75,-57.241,43.38,24.5,22.538,-6.4212,5.1922,7.0647,-26.64,-48.325,34.085
-16.547,37.937,-7.5489,11.271,-2.8738,36.9,-56.842,43.263,24.797,22.659,-6.1118,5.0462,7.3227,-26.476,-48.011,33.992
-16.349,37.93,-7.3329,11.294,-2.5817,37.05,-56.441,43.148,25.092,22.781,-5.8017,4.9015,7.5801,-26.31,-47.695,33.899
-16.349,37.93,-7.3329,11.294,-2.5817,37.05,-56.441,43.148,25.092,22.781,-5.8017,4.9015,7.5801,-26.31,-47.695,33.899
-16.349,37.93,-7.3329,11.294,-2.5817,37.05,-56.441,43.148,25.092,22.781,-5.8017,4.9015,7.5801,-26.31,-47.695,33.899
-16.151,37.923,-7.1166,11.32,-2.2898,37.201,-56.039,43.033,25.387,22.905,-5.4909,4.7581,7.8368,-26.142,-47.378,33.806
-16.151,37.923,-7.1166,11.32,-2.2898,37.201,-56.039,43.033,25.387,22.905,-5.4909,4.7581,7.8368,-26.142,-47.378,33.806
-16.151,37.923,-7.1166,11.32,-2.2898,37.201,-56.039,43.033,25.387,22.905,-5.4909,4.7581,7.8368,-26.142,-47.378,33.806
-16.151,37.923,-7.1166,11.32,-2.2898,37.201,-56.039,43.033,25.387,22.905,-5.4909,4.7581,7.8368,-26.142,-47.378,33.806
-15.752,37.912,-6.6831,11.376,-1.707,37.505,-55.229,42.806,25.975,23.156,-4.8674,4.4754,8.348,-25.796,-46.739,33.622
-15.752,37.912,-6.6831,11.376,-1.707,37.505,-55.229,42.806,25.975,23.156,-4.8674,4.4754,8.348,-25.796,-46.739,33.622
-15.551,37.908,-6.4659,11.408,-1.416,37.658,-54.822,42.694,26.267,23.282,-4.5546,4.3361,8.6025,-25.618,-46.417,33.531
-15.551,37.908,-6.4659,11.408,-1.416,37.658,-54.822,42.694,26.267,23.282,-4.5546,4.3361,8.6025,-25.618,-46.417,33.531
-15.349,37.905,-6.2484,11.441,-1.1253,37.812,-54.413,42.582,26.558,23.411,-4.2413,4.1982,8.8562,-25.438,-46.095,33.44
-15.349,37.905,-6.2484,11.441,-1.1253,37.812,-54.413,42.582,26.558,23.411,-4.2413,4.1982,8.8562,-25.438,-46.095,33.44
-15.147,37.902,-6.0307,11.476,-0.83495,37.967,-54.003,42.472,26.848,23.54,-3.9273,4.0616,9.1092,-25.256,-45.771,33.349
-14.943,37.9,-5.8128,11.514,-0.54491,38.122,-53.591,42.362,27.138,23.67,-3.6128,3.9264,9.3614,-25.07,-45.445,33.259
-14.943,37.9,-5.8128,11.514,-0.54491,38.122,-53.591,42.362,27.138,23.67,-3.6128,3.9264,9.3614,-25.07,-45.445,33.259
-14.943,37.9,-5.8128,11.514,-0.54491,38.122,-53.591,42.362,27.138,23.67,-3.6128,3.9264,9.3614,-25.07,-45.445,33.259
-14.739,37.899,-5.5946,11.553,-0.2552,38.278,-53.177,42.253,27.426,23.801,-3.2976,3.7926,9.6127,-24.882,-45.119,33.169
-14.739,37.899,-5.5946,11.553,-0.2552,38.278,-53.177,42.253,27.426,23.801,-3.2976,3.7926,9.6127,-24.882,-45.119,33.169
-14.739,37.899,-5.5946,11.553,-0.2552,38.278,-53.177,42.253,27.426,23.801,-3.2976,3.7926,9.6127,-24.882,-45.119,33.169
-14.534,37.899,-5.3762,11.594,0.034147,38.434,-52.762,42.146,27.713,23.933,-2.9819,3.6602,9.8633,-24.691,-44.791,33.079
-14.534,37.899,-5.3762,11.594,0.034147,38.434,-52.762,42.146,27.713,23.933,-2.9819,3.6602,9.8633,-24.691,-44.791,33.079
-14.328,37.899,-5.1575,11.637,0.32313,38.592,-52.345,42.038,28,24.066,-2.6656,3.5292,10.113,-24.497,-44.462,32.99
-14.121,37.9,-4.9387,11.683,0.61175,38.75,-51.926,41.932,28.285,24.201,-2.3487,3.3995,10.362,-24.3,-44.132,32.901
-14.121,37.9,-4.9387,11.683,0.61175,38.75,-51.926,41.932,28.285,24.201,-2.3487,3.3995,10.362,-24.3,-44.132,32.901
-14.121,37.9,-4.9387,11.683,0.61175,38.75,-51.926,41.932,28.285,24.201,-2.3487,3.3995,10.362,-24.3,-44.132,32.901
-13.914,37.902,-4.7196,11.73,0.89997,38.908,-51.506,41.827,28.569,24.336,-2.0314,3.2713,10.61,-24.101,-43.8,32.813
-13.914,37.902,-4.7196,11.73,0.89997,38.908,-51.506,41.827,28.569,24.336,-2.0314,3.2713,10.61,-24.101,-43.8,32.813
-13.914,37.902,-4.7196,11.73,0.89997,38.908,-51.506,41.827,28.569,24.336,-2.0314,3.2713,10.61,-24.101,-43.8,32.813
-13.497,37.908,-4.2809,11.83,1.4752,39.227,-50.662,41.618,29.133,24.609,-1.395,3.0191,11.103,-23.694,-43.134,32.637
-13.497,37.908,-4.2809,11.83,1.4752,39.227,-50.662,41.618,29.133,24.609,-1.395,3.0191,11.103,-23.694,-43.134,32.637
-13.497,37.908,-4.2809,11.83,1.4752,39.227,-50.662,41.618,29.133,24.609,-1.395,3.0191,11.103,-23.694,-43.134,32.637
-13.287,37.912,-4.0613,11.883,1.7622,39.387,-50.237,41.515,29.413,24.747,-1.0761,2.8952,11.349,-23.487,-42.799,32.55
-13.076,37.916,-3.8415,11.938,2.0488,39.547,-49.812,41.413,29.693,24.886,-0.75668,2.7727,11.593,-23.277,-42.463,32.463
-13.076,37.916,-3.8415,11.938,2.0488,39.547,-49.812,41.413,29.693,24.886,-0.75668,2.7727,11.593,-23.277,-42.463,32.463
-12.865,37.922,-3.6215,11.995,2.3349,39.709,-49.384,41.311,29.971,25.026,-0.43679,2.6516,11.837,-23.064,-42.126,32.377
-12.865,37.922,-3.6215,11.995,2.3349,39.709,-49.384,41.311,29.971,25.026,-0.43679,2.6516,11.837,-23.064,-42.126,32.377
-12.653,37.928,-3.4014,12.054,2.6205,39.87,-48.955,41.211,30.247,25.166,-0.11642,2.5319,12.079,-22.848,-41.788,32.291
-12.653,37.928,-3.4014,12.054,2.6205,39.87,-48.955,41.211,30.247,25.166,-0.11642,2.5319,12.079,-22.848,-41.788,32.291
-12.653,37.928,-3.4014,12.054,2.6205,39.87,-48.955,41.211,30.247,25.166,-0.11642,2.5319,12.079,-22.848,-41.788,32.291
-12.44,37.934,-3.1812,12.115,2.9057,40.032,-48.525,41.111,30.523,25.308,0.20439,2.4137,12.321,-22.63,-41.449,32.205
-12.44,37.934,-3.1812,12.115,2.9057,40.032,-48.525,41.111,30.523,25.308,0.20439,2.4137,12.321,-22.63,-41.449,32.205
-12.226,37.942,-2.9608,12.178,3.1905,40.195,-48.093,41.012,30.797,25.45,0.52565,2.2969,12.562,-22.409,-41.108,32.12
-12.012,37.95,-2.7403,12.242,3.4747,40.358,-47.66,40.913,31.069,25.593,0.84733,2.1816,12.801,-22.186,-40.767,32.035
-12.012,37.95,-2.7403,12.242,3.4747,40.358,-47.66,40.913,31.069,25.593,0.84733,2.1816,12.801,-22.186,-40.767,32.035
-11.796,37.958,-2.5197,12.309,3.7584,40.522,-47.226,40.816,31.34,25.737,1.1694,2.0677,13.04,-21.96,-40.425,31.951
-11.796,37.958,-2.5197,12.309,3.7584,40.522,-47.226,40.816,31.34,25.737,1.1694,2.0677,13.04,-21.96,-40.425,31.951
-11.581,37.968,-2.2989,12.378,4.0416,40.685,-46.79,40.719,31.61,25.882,1.4919,1.9553,13.278,-21.731,-40.082,31.867
-11.581,37.968,-2.2989,12.378,4.0416,40.685,-46.79,40.719,31.61,25.882,1.4919,1.9553,13.278,-21.731,-40.082,31.867
-11.581,37.968,-2.2989,12.378,4.0416,40.685,-46.79,40.719,31.61,25.882,1.4919,1.9553,13.278,-21.731,-40.082,31.867
-11.364,37.977,-2.0781,12.448,4.3243,40.85,-46.353,40.623,31.879,26.028,1.8148,1.8444,13.515,-21.5,-39.737,31.784
-11.364,37.977,-2.0781,12.448,4.3243,40.85,-46.353,40.623,31.879,26.028,1.8148,1.8444,13.515,-21.5,-39.737,31.784
-11.364,37.977,-2.0781,12.448,4.3243,40.85,-46.353,40.623,31.879,26.028,1.8148,1.8444,13.515,-21.5,-39.737,31.784
-10.929,37.999,-1.6362,12.595,4.8881,41.18,-45.474,40.433,32.411,26.321,2.4617,1.6269,13.985,-21.03,-39.046,31.618
-10.929,37.999,-1.6362,12.595,4.8881,41.18,-45.474,40.433,32.411,26.321,2.4617,1.6269,13.985,-21.03,-39.046,31.618
-10.71,38.01,-1.4152,12.671,5.1692,41.345,-45.033,40.339,32.675,26.468,2.7857,1.5204,14.218,-20.791,-38.699,31.536
-10.71,38.01,-1.4152,12.671,5.1692,41.345,-45.033,40.339,32.675,26.468,2.7857,1.5204,14.218,-20.791,-38.699,31.536
-10.491,38.022,-1.1941,12.749,5.4497,41.511,-44.591,40.245,32.937,26.617,3.11,1.4154,14.451,-20.55,-38.351,31.454
-10.491,38.022,-1.1941,12.749,5.4497,41.511,-44.591,40.245,32.937,26.617,3.11,1.4154,14.451,-20.55,-38.351,31.454
-10.271,38.035,-0.9729,12.828,5.7296,41.677,-44.147,40.153,33.198,26.766,3.4346,1.3118,14.682,-20.306,-38.003,31.373
-10.271,38.035,-0.9729,12.828,5.7296,41.677,-44.147,40.153,33.198,26.766,3.4346,1.3118,14.682,-20.306,-38.003,31.373
-10.271,38.035,-0.9729,12.828,5.7296,41.677,-44.147,40.153,33.198,26.766,3.4346,1.3118,14.682,-20.306,-38.003,31.373
-10.05,38.048,-0.75168,12.91,6.0089,41.843,-43.702,40.061,33.457,26.916,3.7596,1.2097,14.912,-20.059,-37.653,31.292
-10.05,38.048,-0.75168,12.91,6.0089,41.843,-43.702,40.061,33.457,26.916,3.7596,1.2097,14.912,-20.059,-37.653,31.292
-9.829,38.062,-0.53043,12.993,6.2877,42.01,-43.256,39.97,33.714,27.066,4.0848,1.1091,15.142,-19.81,-37.303,31.212
-9.6071,38.076,-0.30916,13.079,6.5658,42.176,-42.808,39.879,33.97,27.217,4.4103,1.0099,15.37,-19.558,-36.952,31.132
-9.6071,38.076,-0.30916,13.079,6.5658,42.176,-42.808,39.879,33.97,27.217,4.4103,1.0099,15.37,-19.558,-36.952,31.132
-9.3845,38.091,-0.087863,13.166,6.8433,42.344,-42.36,39.789,34.225,27.368,4.7361,0.91227,15.596,-19.304,-36.6,31.052
-9.3845,38.091,-0.087863,13.166,6.8433,42.344,-42.36,39.789,34.225,27.368,4.7361,0.91227,15.596,-19.304,-36.6,31.052
-9.1613,38.106,0.13344,13.255,7.1202,42.511,-41.91,39.7,34.477,27.521,5.0622,0.81611,15.822,-19.048,-36.247,30.973
-9.1613,38.106,0.13344,13.255,7.1202,42.511,-41.91,39.7,34.477,27.521,5.0622,0.81611,15.822,-19.048,-36.247,30.973
-9.1613,38.106,0.13344,13.255,7.1202,42.511,-41.91,39.7,34.477,27.521,5.0622,0.81611,15.822,-19.048,-36.247,30.973
-9.1613,38.106,0.13344,13.255,7.1202,42.511,-41.91,39.7,34.477,27.521,5.0622,0.81611,15.822,-19.048,-36.247,30.973
-8.7131,38.138,0.57605,13.438,7.6721,42.846,-41.007,39.524,34.977,27.827,5.715,0.62826,16.27,-18.528,-35.54,30.816
-8.7131,38.138,0.57605,13.438,7.6721,42.846,-41.007,39.524,34.977,27.827,5.715,0.62826,16.27,-18.528,-35.54,30.816
-8.4881,38.155,0.79733,13.532,7.947,43.014,-40.553,39.436,35.224,27.98,6.0417,0.53657,16.492,-18.264,-35.185,30.739
-8.4881,38.155,0.79733,13.532,7.947,43.014,-40.553,39.436,35.224,27.98,6.0417,0.53657,16.492,-18.264,-35.185,30.739
-8.4881,38.155,0.79733,13.532,7.947,43.014,-40.553,39.436,35.224,27.98,6.0417,0.53657,16.492,-18.264,-35.185,30.739
-8.2625,38.172,1.0186,13.628,8.2213,43.182,-40.099,39.35,35.47,28.135,6.3686,0.44637,16.713,-17.998,-34.83,30.661
-8.0363,38.189,1.2398,13.726,8.4949,43.35,-39.644,39.264,35.713,28.289,6.6957,0.35766,16.933,-17.73,-34.474,30.585
-8.0363,38.189,1.2398,13.726,8.4949,43.35,-39.644,39.264,35.713,28.289,6.6957,0.35766,16.933,-17.73,-34.474,30.585
-7.8095,38.207,1.461,13.825,8.7678,43.518,-39.187,39.178,35.955,28.445,7.023,0.27045,17.152,-17.459,-34.117,30.508
-7.8095,38.207,1.461,13.825,8.7678,43.518,-39.187,39.178,35.955,28.445,7.023,0.27045,17.152,-17.459,-34.117,30.508
-7.8095,38.207,1.461,13.825,8.7678,43.518,-39.187,39.178,35.955,28.445,7.023,0.27045,17.152,-17.459,-34.117,30.508
-7.3543,38.244,1.9032,14.029,9.3115,43.855,-38.271,39.009,36.433,28.757,7.678,0.1005,17.585,-16.91,-33.402,30.357
-7.3543,38.244,1.9032,14.029,9.3115,43.855,-38.271,39.009,36.433,28.757,7.678,0.1005,17.585,-16.91,-33.402,30.357
-7.1259,38.263,2.1242,14.134,9.5823,44.023,-37.811,38.925,36.669,28.913,8.0057,0.017773,17.8,-16.632,-33.044,30.282
-7.1259,38.263,2.1242,14.134,9.5823,44.023,-37.811,38.925,36.669,28.913,8.0057,0.017773,17.8,-16.632,-33.044,30.282
-7.1259,38.263,2.1242,14.134,9.5823,44.023,-37.811,38.925,36.669,28.913,8.0057,0.017773,17.8,-16.632,-33.044,30.282
-6.897,38.283,2.3452,14.24,9.8524,44.191,-37.35,38.842,36.904,29.07,8.3335,-0.063465,18.013,-16.352,-32.685,30.207
-6.897,38.283,2.3452,14.24,9.8524,44.191,-37.35,38.842,36.904,29.07,8.3335,-0.063465,18.013,-16.352,-32.685,30.207
-6.6675,38.302,2.566,14.348,10.122,44.36,-36.888,38.759,37.136,29.228,8.6614,-0.14321,18.226,-16.07,-32.325,30.133
-6.6675,38.302,2.566,14.348,10.122,44.36,-36.888,38.759,37.136,29.228,8.6614,-0.14321,18.226,-16.07,-32.325,30.133
-6.4375,38.322,2.7868,14.457,10.39,44.528,-36.426,38.677,37.366,29.385,8.9894,-0.22146,18.437,-15.785,-31.966,30.06
-6.4375,38.322,2.7868,14.457,10.39,44.528,-36.426,38.677,37.366,29.385,8.9894,-0.22146,18.437,-15.785,-31.966,30.06
-6.4375,38.322,2.7868,14.457,10.39,44.528,-36.426,38.677,37.366,29.385,8.9894,-0.22146,18.437,-15.785,-31.966,30.06
-6.4375,38.322,2.7868,14.457,10.39,44.528,-36.426,38.677,37.366,29.385,8.9894,-0.22146,18.437,-15.785,-31.966,30.06
-5.976,38.364,3.228,14.681,10.925,44.865,-35.498,38.514,37.821,29.702,9.6455,-0.37349,18.854,-15.209,-31.245,29.914
-5.976,38.364,3.228,14.681,10.925,44.865,-35.498,38.514,37.821,29.702,9.6455,-0.37349,18.854,-15.209,-31.245,29.914
-5.976,38.364,3.228,14.681,10.925,44.865,-35.498,38.514,37.821,29.702,9.6455,-0.37349,18.854,-15.209,-31.245,29.914
-5.976,38.364,3.228,14.681,10.925,44.865,-35.498,38.514,37.821,29.702,9.6455,-0.37349,18.854,-15.209,-31.245,29.914
-5.7446,38.385,3.4484,14.796,11.191,45.033,-35.032,38.434,38.045,29.861,9.9737,-0.44727,19.061,-14.918,-30.884,29.842
-5.5126,38.406,3.6688,14.912,11.457,45.201,-34.566,38.353,38.267,30.02,10.302,-0.51955,19.267,-14.624,-30.522,29.77
-5.5126,38.406,3.6688,14.912,11.457,45.201,-34.566,38.353,38.267,30.02,10.302,-0.51955,19.267,-14.624,-30.522,29.77
-5.2802,38.428,3.8889,15.029,11.722,45.369,-34.098,38.274,38.487,30.179,10.63,-0.59035,19.471,-14.329,-30.16,29.699
-5.2802,38.428,3.8889,15.029,11.722,45.369,-34.098,38.274,38.487,30.179,10.63,-0.59035,19.471,-14.329,-30.16,29.699
-5.2802,38.428,3.8889,15.029,11.722,45.369,-34.098,38.274,38.487,30.179,10.63,-0.59035,19.471,-14.329,-30.16,29.699
-5.0473,38.449,4.109,15.148,11.986,45.537,-33.63,38.194,38.705,30.339,10.958,-0.65967,19.674,-14.031,-29.798,29.628
-5.0473,38.449,4.109,15.148,11.986,45.537,-33.63,38.194,38.705,30.339,10.958,-0.65967,19.674,-14.031,-29.798,29.628
-5.0473,38.449,4.109,15.148,11.986,45.537,-33.63,38.194,38.705,30.339,10.958,-0.65967,19.674,-14.031,-29.798,29.628
-4.5803,38.494,4.5486,15.391,12.511,45.873,-32.692,38.037,39.134,30.658,11.614,-0.79384,20.076,-13.429,-29.073,29.488
-4.5803,38.494,4.5486,15.391,12.511,45.873,-32.692,38.037,39.134,30.658,11.614,-0.79384,20.076,-13.429,-29.073,29.488
-4.5803,38.494,4.5486,15.391,12.511,45.873,-32.692,38.037,39.134,30.658,11.614,-0.79384,20.076,-13.429,-29.073,29.488
-4.1115,38.539,4.9876,15.64,13.033,46.207,-31.75,37.882,39.555,30.979,12.271,-0.9221,20.472,-12.819,-28.347,29.349
-3.8765,38.562,5.2068,15.766,13.293,46.374,-31.277,37.804,39.762,31.14,12.598,-0.98401,20.668,-12.511,-27.983,29.281
-3.8765,38.562,5.2068,15.766,13.293,46.374,-31.277,37.804,39.762,31.14,12.598,-0.98401,20.668,-12.511,-27.983,29.281
-3.8765,38.562,5.2068,15.766,13.293,46.374,-31.277,37.804,39.762,31.14,12.598,-0.98401,20.668,-12.511,-27.983,29.281
-3.6411,38.585,5.4259,15.894,13.552,46.541,-30.804,37.727,39.967,31.301,12.926,-1.0444,20.862,-12.201,-27.62,29.213
-3.6411,38.585,5.4259,15.894,13.552,46.541,-30.804,37.727,39.967,31.301,12.926,-1.0444,20.862,-12.201,-27.62,29.213
-3.4053,38.608,5.6447,16.024,13.81,46.708,-30.331,37.651,40.169,31.462,13.254,-1.1034,21.055,-11.888,-27.256,29.145
-3.4053,38.608,5.6447,16.024,13.81,46.708,-30.331,37.651,40.169,31.462,13.254,-1.1034,21.055,-11.888,-27.256,29.145
-3.4053,38.608,5.6447,16.024,13.81,46.708,-30.331,37.651,40.169,31.462,13.254,-1.1034,21.055,-11.888,-27.256,29.145
-3.4053,38.608,5.6447,16.024,13.81,46.708,-30.331,37.651,40.169,31.462,13.254,-1.1034,21.055,-11.888,-27.256,29.145
-2.9327,38.655,6.0818,16.287,14.323,47.04,-29.381,37.499,40.567,31.784,13.909,-1.2169,21.437,-11.258,-26.528,29.011
-2.9327,38.655,6.0818,16.287,14.323,47.04,-29.381,37.499,40.567,31.784,13.909,-1.2169,21.437,-11.258,-26.528,29.011
-2.6958,38.678,6.3,16.421,14.579,47.205,-28.906,37.424,40.763,31.945,14.236,-1.2715,21.625,-10.94,-26.164,28.945
-2.6958,38.678,6.3,16.421,14.579,47.205,-28.906,37.424,40.763,31.945,14.236,-1.2715,21.625,-10.94,-26.164,28.945
-2.4586,38.702,6.5179,16.556,14.833,47.37,-28.429,37.349,40.956,32.106,14.563,-1.3246,21.813,-10.62,-25.8,28.879
-2.4586,38.702,6.5179,16.556,14.833,47.37,-28.429,37.349,40.956,32.106,14.563,-1.3246,21.813,-10.62,-25.8,28.879
-2.221,38.726,6.7357,16.692,15.087,47.535,-27.952,37.274,41.147,32.268,14.89,-1.3763,21.998,-10.298,-25.436,28.814
-2.221,38.726,6.7357,16.692,15.087,47.535,-27.952,37.274,41.147,32.268,14.89,-1.3763,21.998,-10.298,-25.436,28.814
-2.221,38.726,6.7357,16.692,15.087,47.535,-27.952,37.274,41.147,32.268,14.89,-1.3763,21.998,-10.298,-25.436,28.814
-1.9832,38.749,6.9532,16.83,15.339,47.7,-27.475,37.199,41.336,32.429,15.217,-1.4265,22.182,-9.9745,-25.072,28.749
-1.745,38.773,7.1704,16.969,15.591,47.864,-26.997,37.125,41.522,32.59,15.543,-1.4753,22.365,-9.649,-24.707,28.685
-1.745,38.773,7.1704,16.969,15.591,47.864,-26.997,37.125,41.522,32.59,15.543,-1.4753,22.365,-9.649,-24.707,28.685
-1.5065,38.797,7.3874,17.109,15.842,48.027,-26.518,37.051,41.705,32.752,15.869,-1.5226,22.546,-9.3216,-24.343,28.621
-1.5065,38.797,7.3874,17.109,15.842,48.027,-26.518,37.051,41.705,32.752,15.869,-1.5226,22.546,-9.3216,-24.343,28.621
-1.5065,38.797,7.3874,17.109,15.842,48.027,-26.518,37.051,41.705,32.752,15.869,-1.5226,22.546,-9.3216,-24.343,28.621
-1.2677,38.821,7.6041,17.251,16.092,48.191,-26.039,36.977,41.887,32.913,16.195,-1.5685,22.725,-8.9924,-23.979,28.558
-1.2677,38.821,7.6041,17.251,16.092,48.191,-26.039,36.977,41.887,32.913,16.195,-1.5685,22.725,-8.9924,-23.979,28.558
-1.2677,38.821,7.6041,17.251,16.092,48.191,-26.039,36.977,41.887,32.913,16.195,-1.5685,22.725,-8.9924,-23.979,28.558
-1.2677,38.821,7.6041,17.251,16.092,48.191,-26.039,36.977,41.887,32.913,16.195,-1.5685,22.725,-8.9924,-23.979,28.558
-0.78937,38.869,8.0367,17.538,16.589,48.516,-25.079,36.83,42.242,33.235,16.846,-1.6559,23.08,-8.3288,-23.251,28.432
-0.78937,38.869,8.0367,17.538,16.589,48.516,-25.079,36.83,42.242,33.235,16.846,-1.6559,23.08,-8.3288,-23.251,28.432
-0.78937,38.869,8.0367,17.538,16.589,48.516,-25.079,36.83,42.242,33.235,16.846,-1.6559,23.08,-8.3288,-23.251,28.432
-0.30997,38.916,8.4681,17.829,17.082,48.839,-24.116,36.684,42.587,33.558,17.496,-1.7377,23.428,-7.6583,-22.524,28.309
-0.30997,38.916,8.4681,17.829,17.082,48.839,-24.116,36.684,42.587,33.558,17.496,-1.7377,23.428,-7.6583,-22.524,28.309
-0.069916,38.94,8.6834,17.977,17.327,48.999,-23.635,36.611,42.756,33.718,17.821,-1.7764,23.6,-7.3205,-22.161,28.247
-0.069916,38.94,8.6834,17.977,17.327,48.999,-23.635,36.611,42.756,33.718,17.821,-1.7764,23.6,-7.3205,-22.161,28.247
-0.069916,38.94,8.6834,17.977,17.327,48.999,-23.635,36.611,42.756,33.718,17.821,-1.7764,23.6,-7.3205,-22.161,28.247
0.17037,38.964,8.8984,18.126,17.571,49.159,-23.153,36.538,42.922,33.879,18.145,-1.8138,23.77,-6.9811,-21.798,28.187
0.41087,38.987,9.113,18.276,17.814,49.319,-22.67,36.466,43.086,34.04,18.468,-1.8497,23.938,-6.64,-21.435,28.126
0.41087,38.987,9.113,18.276,17.814,49.319,-22.67,36.466,43.086,34.04,18.468,-1.8497,23.938,-6.64,-21.435,28.126
0.65157,39.011,9.3273,18.426,18.056,49.478,-22.187,36.393,43.247,34.2,18.792,-1.8843,24.105,-6.2974,-21.072,28.066
0.65157,39.011,9.3273,18.426,18.056,49.478,-22.187,36.393,43.247,34.2,18.792,-1.8843,24.105,-6.2974,-21.072,28.066
0.89246,39.034,9.5413,18.578,18.297,49.636,-21.704,36.321,43.405,34.361,19.114,-1.9174,24.271,-5.9531,-20.71,28.007
0.89246,39.034,9.5413,18.578,18.297,49.636,-21.704,36.321,43.405,34.361,19.114,-1.9174,24.271,-5.9531,-20.71,28.007
1.1335,39.058,9.7549,18.732,18.537,49.794,-21.22,36.249,43.561,34.521,19.437,-1.9492,24.434,-5.6074,-20.348,27.948
1.1335,39.058,9.7549,18.732,18.537,49.794,-21.22,36.249,43.561,34.521,19.437,-1.9492,24.434,-5.6074,-20.348,27.948
1.1335,39.058,9.7549,18.732,18.537,49.794,-21.22,36.249,43.561,34.521,19.437,-1.9492,24.434,-5.6074,-20.348,27.948
1.1335,39.058,9.7549,18.732,18.537,49.794,-21.22,36.249,43.561,34.521,19.437,-1.9492,24.434,-5.6074,-20.348,27.948
1.3748,39.081,9.9682,18.886,18.776,49.951,-20.736,36.176,43.714,34.68,19.759,-1.9796,24.596,-5.26,-19.986,27.89
1.6162,39.104,10.181,19.041,19.014,50.107,-20.252,36.104,43.865,34.84,20.08,-2.0086,24.757,-4.9112,-19.625,27.831
1.6162,39.104,10.181,19.041,19.014,50.107,-20.252,36.104,43.865,34.84,20.08,-2.0086,24.757,-4.9112,-19.625,27.831
1.8577,39.126,10.394,19.197,19.251,50.263,-19.767,36.032,44.013,34.999,20.401,-2.0362,24.916,-4.561,-19.264,27.774
1.8577,39.126,10.394,19.197,19.251,50.263,-19.767,36.032,44.013,34.999,20.401,-2.0362,24.916,-4.561,-19.264,27.774
1.8577,39.126,10.394,19.197,19.251,50.263,-19.767,36.032,44.013,34.999,20.401,-2.0362,24.916,-4.561,-19.264,27.774
2.3412,39.171,10.818,19.512,19.722,50.572,-18.797,35.888,44.301,35.317,21.042,-2.0874,25.228,-3.8561,-18.544,27.66
2.3412,39.171,10.818,19.512,19.722,50.572,-18.797,35.888,44.301,35.317,21.042,-2.0874,25.228,-3.8561,-18.544,27.66
2.5832,39.193,11.029,19.671,19.956,50.725,-18.312,35.816,44.44,35.476,21.362,-2.111,25.382,-3.5015,-18.185,27.603
2.5832,39.193,11.029,19.671,19.956,50.725,-18.312,35.816,44.44,35.476,21.362,-2.111,25.382,-3.5015,-18.185,27.603
2.5832,39.193,11.029,19.671,19.956,50.725,-18.312,35.816,44.44,35.476,21.362,-2.111,25.382,-3.5015,-18.185,27.603
2.8252,39.215,11.24,19.83,20.189,50.878,-17.826,35.744,44.578,35.634,21.681,-2.1332,25.534,-3.1456,-17.826,27.547
2.8252,39.215,11.24,19.83,20.189,50.878,-17.826,35.744,44.578,35.634,21.681,-2.1332,25.534,-3.1456,-17.826,27.547
3.0673,39.237,11.451,19.991,20.42,51.029,-17.341,35.672,44.712,35.792,21.999,-2.1541,25.684,-2.7883,-17.467,27.492
3.0673,39.237,11.451,19.991,20.42,51.029,-17.341,35.672,44.712,35.792,21.999,-2.1541,25.684,-2.7883,-17.467,27.492
3.5518,39.279,11.871,20.315,20.88,51.33,-16.369,35.527,44.972,36.106,22.634,-2.1919,25.98,-2.0699,-16.752,27.382
3.5518,39.279,11.871,20.315,20.88,51.33,-16.369,35.527,44.972,36.106,22.634,-2.1919,25.98,-2.0699,-16.752,27.382
3.5518,39.279,11.871,20.315,20.88,51.33,-16.369,35.527,44.972,36.106,22.634,-2.1919,25.98,-2.0699,-16.752,27.382
3.5518,39.279,11.871,20.315,20.88,51.33,-16.369,35.527,44.972,36.106,22.634,-2.1919,25.98,-2.0699,-16.752,27.382
3.7941,39.3,12.08,20.478,21.109,51.48,-15.883,35.455,45.098,36.263,22.951,-2.2088,26.125,-1.7088,-16.395,27.328
3.7941,39.3,12.08,20.478,21.109,51.48,-15.883,35.455,45.098,36.263,22.951,-2.2088,26.125,-1.7088,-16.395,27.328
4.0365,39.32,12.289,20.642,21.336,51.628,-15.397,35.383,45.222,36.419,23.267,-2.2244,26.269,-1.3464,-16.039,27.274
4.0365,39.32,12.289,20.642,21.336,51.628,-15.397,35.383,45.222,36.419,23.267,-2.2244,26.269,-1.3464,-16.039,27.274
4.0365,39.32,12.289,20.642,21.336,51.628,-15.397,35.383,45.222,36.419,23.267,-2.2244,26.269,-1.3464,-16.039,27.274
4.5213,39.36,12.706,20.972,21.788,51.922,-14.424,35.237,45.46,36.73,23.897,-2.2517,26.55,-0.61817,-15.329,27.167
4.5213,39.36,12.706,20.972,21.788,51.922,-14.424,35.237,45.46,36.73,23.897,-2.2517,26.55,-0.61817,-15.329,27.167
4.7638,39.379,12.913,21.138,22.012,52.068,-13.938,35.164,45.574,36.885,24.211,-2.2635,26.689,-0.25229,-14.975,27.115
4.7638,39.379,12.913,21.138,22.012,52.068,-13.938,35.164,45.574,36.885,24.211,-2.2635,26.689,-0.25229,-14.975,27.115
5.0062,39.398,13.12,21.305,22.235,52.212,-13.452,35.091,45.686,37.039,24.525,-2.274,26.825,0.1147,-14.622,27.062
5.0062,39.398,13.12,21.305,22.235,52.212,-13.452,35.091,45.686,37.039,24.525,-2.274,26.825,0.1147,-14.622,27.062
5.2487,39.416,13.327,21.472,22.456,52.356,-12.965,35.018,45.795,37.193,24.837,-2.2832,26.96,0.48278,-14.269,27.01
5.2487,39.416,13.327,21.472,22.456,52.356,-12.965,35.018,45.795,37.193,24.837,-2.2832,26.96,0.48278,-14.269,27.01
5.4911,39.434,13.533,21.64,22.677,52.499,-12.479,34.945,45.902,37.346,25.149,-2.2911,27.093,0.85193,-13.917,26.959
5.4911,39.434,13.533,21.64,22.677,52.499,-12.479,34.945,45.902,37.346,25.149,-2.2911,27.093,0.85193,-13.917,26.959
5.7335,39.452,13.739,21.809,22.896,52.64,-11.993,34.871,46.005,37.499,25.46,-2.2978,27.225,1.2221,-13.567,26.908
5.7335,39.452,13.739,21.809,22.896,52.64,-11.993,34.871,46.005,37.499,25.46,-2.2978,27.225,1.2221,-13.567,26.908
5.9758,39.469,13.944,21.978,23.115,52.781,-11.507,34.797,46.105,37.651,25.771,-2.3033,27.354,1.5933,-13.216,26.857
5.9758,39.469,13.944,21.978,23.115,52.781,-11.507,34.797,46.105,37.651,25.771,-2.3033,27.354,1.5933,-13.216,26.857
6.2181,39.486,14.149,22.147,23.332,52.921,-11.02,34.723,46.203,37.803,26.08,-2.3075,27.482,1.9654,-12.867,26.807
6.2181,39.486,14.149,22.147,23.332,52.921,-11.02,34.723,46.203,37.803,26.08,-2.3075,27.482,1.9654,-12.867,26.807
6.2181,39.486,14.149,22.147,23.332,52.921,-11.02,34.723,46.203,37.803,26.08,-2.3075,27.482,1.9654,-12.867,26.807
6.4603,39.502,14.353,22.318,23.548,53.059,-10.535,34.649,46.297,37.954,26.389,-2.3105,27.608,2.3385,-12.519,26.757
6.7025,39.518,14.557,22.488,23.763,53.197,-10.049,34.574,46.389,38.104,26.697,-2.3123,27.732,2.7126,-12.172,26.707
6.7025,39.518,14.557,22.488,23.763,53.197,-10.049,34.574,46.389,38.104,26.697,-2.3123,27.732,2.7126,-12.172,26.707
6.9445,39.533,14.76,22.66,23.977,53.333,-9.5631,34.499,46.478,38.254,27.004,-2.3129,27.854,3.0875,-11.825,26.658
6.9445,39.533,14.76,22.66,23.977,53.333,-9.5631,34.499,46.478,38.254,27.004,-2.3129,27.854,3.0875,-11.825,26.658
7.1864,39.548,14.963,22.831,24.189,53.468,-9.0776,34.424,46.563,38.403,27.311,-2.3123,27.975,3.4632,-11.48,26.609
7.1864,39.548,14.963,22.831,24.189,53.468,-9.0776,34.424,46.563,38.403,27.311,-2.3123,27.975,3.4632,-11.48,26.609
7.4283,39.562,15.165,23.003,24.401,53.602,-8.5924,34.348,46.646,38.551,27.616,-2.3105,28.094,3.8398,-11.135,26.56
7.4283,39.562,15.165,23.003,24.401,53.602,-8.5924,34.348,46.646,38.551,27.616,-2.3105,28.094,3.8398,-11.135,26.56
7.67,39.575,15.367,23.176,24.611,53.735,-8.1073,34.272,46.726,38.699,27.921,-2.3076,28.211,4.2172,-10.792,26.512
7.67,39.575,15.367,23.176,24.611,53.735,-8.1073,34.272,46.726,38.699,27.921,-2.3076,28.211,4.2172,-10.792,26.512
7.67,39.575,15.367,23.176,24.611,53.735,-8.1073,34.272,46.726,38.699,27.921,-2.3076,28.211,4.2172,-10.792,26.512
7.9116,39.588,15.568,23.349,24.82,53.866,-7.6225,34.196,46.803,38.846,28.224,-2.3034,28.326,4.5954,-10.449,26.464
7.9116,39.588,15.568,23.349,24.82,53.866,-7.6225,34.196,46.803,38.846,28.224,-2.3034,28.326,4.5954,-10.449,26.464
7.9116,39.588,15.568,23.349,24.82,53.866,-7.6225,34.196,46.803,38.846,28.224,-2.3034,28.326,4.5954,-10.449,26.464
8.3943,39.612,15.969,23.695,25.235,54.126,-6.6538,34.042,46.948,39.138,28.829,-2.2917,28.551,5.3538,-9.7674,26.369
8.3943,39.612,15.969,23.695,25.235,54.126,-6.6538,34.042,46.948,39.138,28.829,-2.2917,28.551,5.3538,-9.7674,26.369
8.3943,39.612,15.969,23.695,25.235,54.126,-6.6538,34.042,46.948,39.138,28.829,-2.2917,28.551,5.3538,-9.7674,26.369
8.3943,39.612,15.969,23.695,25.235,54.126,-6.6538,34.042,46.948,39.138,28.829,-2.2917,28.551,5.3538,-9.7674,26.369
8.8763,39.634,16.367,24.043,25.645,54.381,-5.6863,33.886,47.08,39.427,29.43,-2.2755,28.768,6.115,-9.0902,26.276
8.8763,39.634,16.367,24.043,25.645,54.381,-5.6863,33.886,47.08,39.427,29.43,-2.2755,28.768,6.115,-9.0902,26.276
9.117,39.644,16.565,24.217,25.848,54.506,-5.2031,33.807,47.142,39.57,29.729,-2.2657,28.874,6.4966,-8.7533,26.23
9.117,39.644,16.565,24.217,25.848,54.506,-5.2031,33.807,47.142,39.57,29.729,-2.2657,28.874,6.4966,-8.7533,26.23
9.3575,39.653,16.763,24.391,26.05,54.63,-4.7202,33.728,47.201,39.713,30.027,-2.2548,28.978,6.8787,-8.4176,26.184
9.3575,39.653,16.763,24.391,26.05,54.63,-4.7202,33.728,47.201,39.713,30.027,-2.2548,28.978,6.8787,-8.4176,26.184
9.5978,39.661,16.96,24.566,26.25,54.753,-4.2378,33.649,47.256,39.855,30.323,-2.2428,29.081,7.2613,-8.0831,26.138
9.5978,39.661,16.96,24.566,26.25,54.753,-4.2378,33.649,47.256,39.855,30.323,-2.2428,29.081,7.2613,-8.0831,26.138
9.8379,39.669,17.157,24.741,26.45,54.875,-3.7557,33.569,47.309,39.995,30.619,-2.2297,29.181,7.6445,-7.7499,26.093
9.8379,39.669,17.157,24.741,26.45,54.875,-3.7557,33.569,47.309,39.995,30.619,-2.2297,29.181,7.6445,-7.7499,26.093
10.078,39.676,17.353,24.916,26.648,54.995,-3.2741,33.488,47.358,40.135,30.914,-2.2156,29.28,8.0282,-7.4179,26.048
10.078,39.676,17.353,24.916,26.648,54.995,-3.2741,33.488,47.358,40.135,30.914,-2.2156,29.28,8.0282,-7.4179,26.048
10.078,39.676,17.353,24.916,26.648,54.995,-3.2741,33.488,47.358,40.135,30.914,-2.2156,29.28,8.0282,-7.4179,26.048
10.317,39.682,17.548,25.09,26.845,55.113,-2.7929,33.407,47.405,40.274,31.208,-2.2004,29.377,8.4123,-7.0872,26.003
10.317,39.682,17.548,25.09,26.845,55.113,-2.7929,33.407,47.405,40.274,31.208,-2.2004,29.377,8.4123,-7.0872,26.003
10.557,39.688,17.743,25.265,27.041,55.231,-2.3123,33.326,47.448,40.413,31.501,-2.1841,29.471,8.7969,-6.7578,25.959
10.796,39.692,17.937,25.44,27.235,55.347,-1.8321,33.243,47.489,40.55,31.792,-2.1669,29.565,9.1819,-6.4298,25.915
10.796,39.692,17.937,25.44,27.235,55.347,-1.8321,33.243,47.489,40.55,31.792,-2.1669,29.565,9.1819,-6.4298,25.915
11.035,39.696,18.131,25.615,27.429,55.461,-1.3524,33.16,47.526,40.686,32.082,-2.1485,29.656,9.5672,-6.1031,25.871
11.035,39.696,18.131,25.615,27.429,55.461,-1.3524,33.16,47.526,40.686,32.082,-2.1485,29.656,9.5672,-6.1031,25.871
11.273,39.699,18.324,25.79,27.621,55.574,-0.87333,33.077,47.56,40.821,32.372,-2.1292,29.745,9.9528,-5.7777,25.827
11.273,39.699,18.324,25.79,27.621,55.574,-0.87333,33.077,47.56,40.821,32.372,-2.1292,29.745,9.9528,-5.7777,25.827
11.511,39.701,18.516,25.965,27.811,55.686,-0.39478,32.993,47.591,40.956,32.66,-2.1089,29.832,10.339,-5.4538,25.784
11.511,39.701,18.516,25.965,27.811,55.686,-0.39478,32.993,47.591,40.956,32.66,-2.1089,29.832,10.339,-5.4538,25.784
11.749,39.703,18.708,26.14,28.001,55.796,0.083188,32.908,47.619,41.089,32.947,-2.0876,29.918,10.725,-5.1313,25.741
11.749,39.703,18.708,26.14,28.001,55.796,0.083188,32.908,47.619,41.089,32.947,-2.0876,29.918,10.725,-5.1313,25.741
11.749,39.703,18.708,26.14,28.001,55.796,0.083188,32.908,47.619,41.089,32.947,-2.0876,29.918,10.725,-5.1313,25.741
11.749,39.703,18.708,26.14,28.001,55.796,0.083188,32.908,47.619,41.089,32.947,-2.0876,29.918,10.725,-5.1313,25.741
12.224,39.703,19.089,26.49,28.377,56.012,1.0373,32.737,47.666,41.353,33.517,-2.042,30.083,11.498,-4.4907,25.656
12.224,39.703,19.089,26.49,28.377,56.012,1.0373,32.737,47.666,41.353,33.517,-2.042,30.083,11.498,-4.4907,25.656
12.461,39.702,19.279,26.664,28.562,56.117,1.5134,32.65,47.685,41.484,33.8,-2.0178,30.163,11.885,-4.1726,25.613
12.461,39.702,19.279,26.664,28.562,56.117,1.5134,32.65,47.685,41.484,33.8,-2.0178,30.163,11.885,-4.1726,25.613
12.697,39.7,19.468,26.838,28.747,56.221,1.9888,32.562,47.7,41.613,34.083,-1.9926,30.241,12.272,-3.8561,25.571
12.697,39.7,19.468,26.838,28.747,56.221,1.9888,32.562,47.7,41.613,34.083,-1.9926,30.241,12.272,-3.8561,25.571
12.933,39.697,19.656,27.012,28.93,56.323,2.4636,32.474,47.713,41.741,34.363,-1.9665,30.318,12.659,-3.541,25.529
12.933,39.697,19.656,27.012,28.93,56.323,2.4636,32.474,47.713,41.741,34.363,-1.9665,30.318,12.659,-3.541,25.529
13.169,39.693,19.844,27.186,29.112,56.424,2.9376,32.385,47.722,41.868,34.643,-1.9395,30.392,13.046,-3.2276,25.488
13.169,39.693,19.844,27.186,29.112,56.424,2.9376,32.385,47.722,41.868,34.643,-1.9395,30.392,13.046,-3.2276,25.488
13.405,39.688,20.031,27.36,29.293,56.523,3.4109,32.295,47.728,41.995,34.921,-1.9116,30.464,13.433,-2.9157,25.446
13.405,39.688,20.031,27.36,29.293,56.523,3.4109,32.295,47.728,41.995,34.921,-1.9116,30.464,13.433,-2.9157,25.446
13.64,39.682,20.218,27.533,29.473,56.621,3.8835,32.204,47.731,42.12,35.198,-1.8828,30.535,13.821,-2.6054,25.405
13.64,39.682,20.218,27.533,29.473,56.621,3.8835,32.204,47.731,42.12,35.198,-1.8828,30.535,13.821,-2.6054,25.405
13.64,39.682,20.218,27.533,29.473,56.621,3.8835,32.204,47.731,42.12,35.198,-1.8828,30.535,13.821,-2.6054,25.405
13.874,39.675,20.403,27.706,29.651,56.717,4.3553,32.113,47.731,42.243,35.474,-1.8531,30.603,14.208,-2.2968,25.364
13.874,39.675,20.403,27.706,29.651,56.717,4.3553,32.113,47.731,42.243,35.474,-1.8531,30.603,14.208,-2.2968,25.364
13.874,39.675,20.403,27.706,29.651,56.717,4.3553,32.113,47.731,42.243,35.474,-1.8531,30.603,14.208,-2.2968,25.364
14.342,39.658,20.773,28.05,30.004,56.904,5.2965,31.928,47.721,42.488,36.021,-1.7911,30.735,14.982,-1.6845,25.283
14.575,39.649,20.956,28.222,30.178,56.995,5.7658,31.834,47.712,42.608,36.293,-1.7589,30.798,15.369,-1.3808,25.242
14.575,39.649,20.956,28.222,30.178,56.995,5.7658,31.834,47.712,42.608,36.293,-1.7589,30.798,15.369,-1.3808,25.242
14.575,39.649,20.956,28.222,30.178,56.995,5.7658,31.834,47.712,42.608,36.293,-1.7589,30.798,15.369,-1.3808,25.242
14.808,39.638,21.139,28.393,30.352,57.084,6.2344,31.739,47.699,42.727,36.563,-1.7258,30.859,15.756,-1.0789,25.202
14.808,39.638,21.139,28.393,30.352,57.084,6.2344,31.739,47.699,42.727,36.563,-1.7258,30.859,15.756,-1.0789,25.202
15.04,39.626,21.322,28.564,30.523,57.171,6.702,31.643,47.683,42.845,36.832,-1.6919,30.918,16.143,-0.77871,25.162
15.04,39.626,21.322,28.564,30.523,57.171,6.702,31.643,47.683,42.845,36.832,-1.6919,30.918,16.143,-0.77871,25.162
15.272,39.613,21.503,28.735,30.694,57.257,7.1688,31.547,47.664,42.962,37.099,-1.6572,30.975,16.529,-0.48028,25.122
15.272,39.613,21.503,28.735,30.694,57.257,7.1688,31.547,47.664,42.962,37.099,-1.6572,30.975,16.529,-0.48028,25.122
15.272,39.613,21.503,28.735,30.694,57.257,7.1688,31.547,47.664,42.962,37.099,-1.6572,30.975,16.529,-0.48028,25.122
15.504,39.598,21.684,28.904,30.864,57.341,7.6346,31.449,47.642,43.077,37.365,-1.6217,31.03,16.915,-0.18362,25.082
15.504,39.598,21.684,28.904,30.864,57.341,7.6346,31.449,47.642,43.077,37.365,-1.6217,31.03,16.915,-0.18362,25.082
15.504,39.598,21.684,28.904,30.864,57.341,7.6346,31.449,47.642,43.077,37.365,-1.6217,31.03,16.915,-0.18362,25.082
15.965,39.567,22.043,29.242,31.198,57.503,8.5636,31.251,47.589,43.304,37.893,-1.5484,31.135,17.687,0.40429,25.003
15.965,39.567,22.043,29.242,31.198,57.503,8.5636,31.251,47.589,43.304,37.893,-1.5484,31.135,17.687,0.40429,25.003
15.965,39.567,22.043,29.242,31.198,57.503,8.5636,31.251,47.589,43.304,37.893,-1.5484,31.135,17.687,0.40429,25.003
16.195,39.549,22.222,29.41,31.364,57.582,9.0266,31.151,47.557,43.416,38.155,-1.5106,31.185,18.072,0.69551,24.964
16.195,39.549,22.222,29.41,31.364,57.582,9.0266,31.151,47.557,43.416,38.155,-1.5106,31.185,18.072,0.69551,24.964
16.195,39.549,22.222,29.41,31.364,57.582,9.0266,31.151,47.557,43.416,38.155,-1.5106,31.185,18.072,0.69551,24.964
16.653,39.511,22.577,29.744,31.691,57.734,9.9497,30.947,47.485,43.635,38.673,-1.4329,31.279,18.841,1.2723,24.885
16.653,39.511,22.577,29.744,31.691,57.734,9.9497,30.947,47.485,43.635,38.673,-1.4329,31.279,18.841,1.2723,24.885
16.881,39.49,22.754,29.91,31.853,57.807,10.41,30.843,47.444,43.742,38.931,-1.3929,31.323,19.225,1.5579,24.846
16.881,39.49,22.754,29.91,31.853,57.807,10.41,30.843,47.444,43.742,38.931,-1.3929,31.323,19.225,1.5579,24.846
17.109,39.467,22.929,30.075,32.013,57.878,10.869,30.739,47.399,43.849,39.186,-1.3523,31.365,19.609,1.8416,24.807
17.109,39.467,22.929,30.075,32.013,57.878,10.869,30.739,47.399,43.849,39.186,-1.3523,31.365,19.609,1.8416,24.807
17.109,39.467,22.929,30.075,32.013,57.878,10.869,30.739,47.399,43.849,39.186,-1.3523,31.365,19.609,1.8416,24.807
17.336,39.444,23.104,30.239,32.172,57.947,11.327,30.633,47.352,43.954,39.44,-1.311,31.405,19.992,2.1234,24.768
17.563,39.419,23.279,30.403,32.33,58.014,11.783,30.527,47.302,44.057,39.693,-1.269,31.443,20.374,2.4032,24.73
17.789,39.393,23.452,30.566,32.487,58.08,12.239,30.419,47.248,44.159,39.943,-1.2263,31.48,20.756,2.681,24.691
17.789,39.393,23.452,30.566,32.487,58.08,12.239,30.419,47.248,44.159,39.943,-1.2263,31.48,20.756,2.681,24.691
17.789,39.393,23.452,30.566,32.487,58.08,12.239,30.419,47.248,44.159,39.943,-1.2263,31.48,20.756,2.681,24.691
18.014,39.366,23.625,30.728,32.642,58.143,12.694,30.31,47.191,44.26,40.193,-1.1831,31.514,21.137,2.9568,24.652
18.014,39.366,23.625,30.728,32.642,58.143,12.694,30.31,47.191,44.26,40.193,-1.1831,31.514,21.137,2.9568,24.652
18.014,39.366,23.625,30.728,32.642,58.143,12.694,30.31,47.191,44.26,40.193,-1.1831,31.514,21.137,2.9568,24.652
18.239,39.338,23.797,30.889,32.796,58.205,13.147,30.2,47.132,44.359,40.44,-1.1392,31.547,21.518,3.2307,24.614
18.463,39.308,23.968,31.049,32.949,58.264,13.6,30.089,47.069,44.456,40.687,-1.0947,31.578,21.898,3.5025,24.575
18.463,39.308,23.968,31.049,32.949,58.264,13.6,30.089,47.069,44.456,40.687,-1.0947,31.578,21.898,3.5025,24.575
18.687,39.277,24.138,31.208,33.1,58.322,14.051,29.977,47.003,44.553,40.931,-1.0495,31.606,22.277,3.7722,24.537
18.687,39.277,24.138,31.208,33.1,58.322,14.051,29.977,47.003,44.553,40.931,-1.0495,31.606,22.277,3.7722,24.537
18.91,39.245,24.308,31.367,33.25,58.378,14.501,29.864,46.933,44.647,41.174,-1.0039,31.633,22.656,4.04,24.499
18.91,39.245,24.308,31.367,33.25,58.378,14.501,29.864,46.933,44.647,41.174,-1.0039,31.633,22.656,4.04,24.499
19.132,39.211,24.477,31.524,33.399,58.431,14.949,29.749,46.861,44.74,41.415,-0.95761,31.658,23.034,4.3056,24.46
19.132,39.211,24.477,31.524,33.399,58.431,14.949,29.749,46.861,44.74,41.415,-0.95761,31.658,23.034,4.3056,24.46
19.353,39.176,24.645,31.68,33.546,58.483,15.397,29.633,46.785,44.832,41.654,-0.9108,31.682,23.411,4.5691,24.422
19.353,39.176,24.645,31.68,33.546,58.483,15.397,29.633,46.785,44.832,41.654,-0.9108,31.682,23.411,4.5691,24.422
19.353,39.176,24.645,31.68,33.546,58.483,15.397,29.633,46.785,44.832,41.654,-0.9108,31.682,23.411,4.5691,24.422
19.574,39.14,24.812,31.835,33.693,58.532,15.843,29.516,46.707,44.922,41.892,-0.86346,31.703,23.787,4.8306,24.384
19.574,39.14,24.812,31.835,33.693,58.532,15.843,29.516,46.707,44.922,41.892,-0.86346,31.703,23.787,4.8306,24.384
19.795,39.102,24.978,31.99,33.837,58.58,16.288,29.398,46.625,45.011,42.128,-0.81559,31.723,24.162,5.0899,24.345
20.014,39.063,25.144,32.143,33.981,58.625,16.732,29.279,46.54,45.098,42.363,-0.76722,31.74,24.537,5.3471,24.307
20.014,39.063,25.144,32.143,33.981,58.625,16.732,29.279,46.54,45.098,42.363,-0.76722,31.74,24.537,5.3471,24.307
20.233,39.023,25.309,32.294,34.124,58.668,17.174,29.158,46.453,45.183,42.595,-0.71835,31.756,24.91,5.6021,24.269
20.233,39.023,25.309,32.294,34.124,58.668,17.174,29.158,46.453,45.183,42.595,-0.71835,31.756,24.91,5.6021,24.269
20.233,39.023,25.309,32.294,34.124,58.668,17.174,29.158,46.453,45.183,42.595,-0.71835,31.756,24.91,5.6021,24.269
20.452,38.981,25.473,32.445,34.265,58.709,17.616,29.036,46.362,45.267,42.826,-0.669,31.77,25.283,5.8549,24.23
20.452,38.981,25.473,32.445,34.265,58.709,17.616,29.036,46.362,45.267,42.826,-0.669,31.77,25.283,5.8549,24.23
20.669,38.938,25.636,32.595,34.404,58.749,18.055,28.913,46.267,45.349,43.055,-0.61919,31.782,25.654,6.1056,24.192
20.886,38.893,25.799,32.743,34.543,58.785,18.494,28.788,46.17,45.43,43.283,-0.56893,31.792,26.025,6.3541,24.153
20.886,38.893,25.799,32.743,34.543,58.785,18.494,28.788,46.17,45.43,43.283,-0.56893,31.792,26.025,6.3541,24.153
21.102,38.847,25.961,32.89,34.68,58.82,18.931,28.662,46.07,45.509,43.508,-0.51824,31.8,26.394,6.6003,24.115
21.102,38.847,25.961,32.89,34.68,58.82,18.931,28.662,46.07,45.509,43.508,-0.51824,31.8,26.394,6.6003,24.115
21.318,38.799,26.121,33.036,34.816,58.853,19.367,28.535,45.967,45.586,43.732,-0.46712,31.807,26.762,6.8443,24.076
21.533,38.75,26.282,33.18,34.951,58.883,19.801,28.406,45.86,45.661,43.954,-0.4156,31.811,27.13,7.0861,24.038
21.533,38.75,26.282,33.18,34.951,58.883,19.801,28.406,45.86,45.661,43.954,-0.4156,31.811,27.13,7.0861,24.038
21.533,38.75,26.282,33.18,34.951,58.883,19.801,28.406,45.86,45.661,43.954,-0.4156,31.811,27.13,7.0861,24.038
21.747,38.7,26.441,33.324,35.084,58.912,20.234,28.276,45.751,45.735,44.174,-0.36369,31.814,27.496,7.3256,23.999
21.747,38.7,26.441,33.324,35.084,58.912,20.234,28.276,45.751,45.735,44.174,-0.36369,31.814,27.496,7.3256,23.999
21.747,38.7,26.441,33.324,35.084,58.912,20.234,28.276,45.751,45.735,44.174,-0.36369,31.814,27.496,7.3256,23.999
22.172,38.594,26.757,33.606,35.347,58.962,21.095,28.012,45.523,45.878,44.609,-0.25876,31.814,28.224,7.7977,23.922
22.172,38.594,26.757,33.606,35.347,58.962,21.095,28.012,45.523,45.878,44.609,-0.25876,31.814,28.224,7.7977,23.922
22.172,38.594,26.757,33.606,35.347,58.962,21.095,28.012,45.523,45.878,44.609,-0.25876,31.814,28.224,7.7977,23.922
22.384,38.539,26.914,33.745,35.477,58.983,21.524,27.878,45.404,45.947,44.824,-0.20578,31.811,28.587,8.0304,23.883
22.384,38.539,26.914,33.745,35.477,58.983,21.524,27.878,45.404,45.947,44.824,-0.20578,31.811,28.587,8.0304,23.883
22.595,38.482,27.07,33.883,35.605,59.003,21.951,27.743,45.283,46.013,45.037,-0.15246,31.807,28.948,8.2607,23.844
22.595,38.482,27.07,33.883,35.605,59.003,21.951,27.743,45.283,46.013,45.037,-0.15246,31.807,28.948,8.2607,23.844
22.595,38.482,27.07,33.883,35.605,59.003,21.951,27.743,45.283,46.013,45.037,-0.15246,31.807,28.948,8.2607,23.844
22.805,38.424,27.225,34.019,35.732,59.02,22.377,27.606,45.158,46.079,45.247,-0.098829,31.8,29.308,8.4887,23.804
22.805,38.424,27.225,34.019,35.732,59.02,22.377,27.606,45.158,46.079,45.247,-0.098829,31.8,29.308,8.4887,23.804
23.014,38.364,27.379,34.153,35.858,59.035,22.801,27.467,45.03,46.142,45.457,-0.044899,31.792,29.666,8.7144,23.765
23.223,38.303,27.533,34.286,35.982,59.047,23.223,27.328,44.9,46.204,45.664,0.009314,31.782,30.024,8.9377,23.726
23.431,38.24,27.686,34.418,36.106,59.057,23.644,27.186,44.766,46.263,45.869,0.063795,31.77,30.379,9.1586,23.686
23.431,38.24,27.686,34.418,36.106,59.057,23.644,27.186,44.766,46.263,45.869,0.063795,31.77,30.379,9.1586,23.686
23.431,38.24,27.686,34.418,36.106,59.057,23.644,27.186,44.766,46.263,45.869,0.063795,31.77,30.379,9.1586,23.686
23.638,38.175,27.838,34.548,36.228,59.065,24.064,27.043,44.63,46.321,46.072,0.11853,31.757,30.734,9.3772,23.646
23.638,38.175,27.838,34.548,36.228,59.065,24.064,27.043,44.63,46.321,46.072,0.11853,31.757,30.734,9.3772,23.646
23.844,38.109,27.989,34.677,36.348,59.071,24.482,26.899,44.49,46.378,46.274,0.1735,31.741,31.087,9.5934,23.607
23.844,38.109,27.989,34.677,36.348,59.071,24.482,26.899,44.49,46.378,46.274,0.1735,31.741,31.087,9.5934,23.607
23.844,38.109,27.989,34.677,36.348,59.071,24.482,26.899,44.49,46.378,46.274,0.1735,31.741,31.087,9.5934,23.607
24.049,38.041,28.139,34.803,36.468,59.075,24.898,26.753,44.347,46.432,46.473,0.2287,31.724,31.438,9.8071,23.566
24.049,38.041,28.139,34.803,36.468,59.075,24.898,26.753,44.347,46.432,46.473,0.2287,31.724,31.438,9.8071,23.566
24.049,38.041,28.139,34.803,36.468,59.075,24.898,26.753,44.347,46.432,46.473,0.2287,31.724,31.438,9.8071,23.566
24.457,37.901,28.437,35.052,36.703,59.074,25.726,26.457,44.053,46.535,46.866,0.33969,31.684,32.136,10.227,23.486
24.457,37.901,28.437,35.052,36.703,59.074,25.726,26.457,44.053,46.535,46.866,0.33969,31.684,32.136,10.227,23.486
24.66,37.828,28.585,35.174,36.819,59.071,26.137,26.307,43.902,46.583,47.06,0.39546,31.661,32.483,10.434,23.445
24.862,37.754,28.731,35.294,36.933,59.065,26.547,26.155,43.748,46.63,47.252,0.45139,31.637,32.828,10.638,23.404
24.862,37.754,28.731,35.294,36.933,59.065,26.547,26.155,43.748,46.63,47.252,0.45139,31.637,32.828,10.638,23.404
25.063,37.678,28.877,35.412,37.046,59.056,26.955,26.001,43.59,46.675,47.441,0.50746,31.611,33.172,10.84,23.363
25.063,37.678,28.877,35.412,37.046,59.056,26.955,26.001,43.59,46.675,47.441,0.50746,31.611,33.172,10.84,23.363
25.063,37.678,28.877,35.412,37.046,59.056,26.955,26.001,43.59,46.675,47.441,0.50746,31.611,33.172,10.84,23.363
25.263,37.6,29.023,35.529,37.158,59.045,27.361,25.846,43.43,46.718,47.629,0.56367,31.583,33.513,11.039,23.322
25.463,37.521,29.167,35.643,37.269,59.032,27.766,25.69,43.267,46.759,47.815,0.61998,31.553,33.854,11.236,23.28
25.463,37.521,29.167,35.643,37.269,59.032,27.766,25.69,43.267,46.759,47.815,0.61998,31.553,33.854,11.236,23.28
25.463,37.521,29.167,35.643,37.269,59.032,27.766,25.69,43.267,46.759,47.815,0.61998,31.553,33.854,11.236,23.28
25.661,37.439,29.311,35.756,37.379,59.016,28.169,25.531,43.101,46.798,47.998,0.6764,31.522,34.192,11.43,23.239
25.661,37.439,29.311,35.756,37.379,59.016,28.169,25.531,43.101,46.798,47.998,0.6764,31.522,34.192,11.43,23.239
25.661,37.439,29.311,35.756,37.379,59.016,28.169,25.531,43.101,46.798,47.998,0.6764,31.522,34.192,11.43,23.239
25.859,37.356,29.453,35.867,37.487,58.998,28.571,25.372,42.933,46.835,48.18,0.7329,31.489,34.529,11.622,23.197
26.056,37.272,29.595,35.976,37.594,58.978,28.97,25.21,42.761,46.87,48.36,0.78947,31.454,34.863,11.811,23.154
26.251,37.185,29.736,36.084,37.7,58.955,29.368,25.047,42.586,46.903,48.537,0.84609,31.417,35.196,11.998,23.112
26.251,37.185,29.736,36.084,37.7,58.955,29.368,25.047,42.586,46.903,48.537,0.84609,31.417,35.196,11.998,23.112
26.251,37.185,29.736,36.084,37.7,58.955,29.368,25.047,42.586,46.903,48.537,0.84609,31.417,35.196,11.998,23.112
26.446,37.097,29.876,36.189,37.804,58.929,29.764,24.882,42.409,46.934,48.713,0.90274,31.379,35.528,12.182,23.069
26.446,37.097,29.876,36.189,37.804,58.929,29.764,24.882,42.409,46.934,48.713,0.90274,31.379,35.528,12.182,23.069
26.446,37.097,29.876,36.189,37.804,58.929,29.764,24.882,42.409,46.934,48.713,0.90274,31.379,35.528,12.182,23.069
26.64,37.007,30.016,36.292,37.908,58.901,30.159,24.716,42.229,46.963,48.887,0.95942,31.339,35.857,12.364,23.026
26.64,37.007,30.016,36.292,37.908,58.901,30.159,24.716,42.229,46.963,48.887,0.95942,31.339,35.857,12.364,23.026
26.833,36.916,30.154,36.394,38.01,58.871,30.551,24.548,42.046,46.99,49.058,1.0161,31.297,36.184,12.543,22.982
27.026,36.822,30.292,36.493,38.111,58.838,30.942,24.378,41.86,47.015,49.227,1.0728,31.254,36.51,12.719,22.939
27.026,36.822,30.292,36.493,38.111,58.838,30.942,24.378,41.86,47.015,49.227,1.0728,31.254,36.51,12.719,22.939
