0.3808,-0.1345,-0.2559,-0.3438,1.0407,0.5018,1.491,0.374,1.4329,-0.0417,0.6049,-0.2464,2.6727,1.1951,1.6776,-0.1292
0.3905,-0.1485,-0.2806,-0.3409,1.0322,0.5141,1.4525,0.3876,1.5125,-0.0826,0.5741,-0.2494,2.5958,1.2526,1.6415,-0.1333
0.3905,-0.1485,-0.2806,-0.3409,1.0322,0.5141,1.4525,0.3876,1.5125,-0.0826,0.5741,-0.2494,2.5958,1.2526,1.6415,-0.1333
0.3905,-0.1485,-0.2806,-0.3409,1.0322,0.5141,1.4525,0.3876,1.5125,-0.0826,0.5741,-0.2494,2.5958,1.2526,1.6415,-0.1333
0.4103,-0.1449,-0.3213,-0.3148,1.0151,0.5388,1.4796,0.3905,1.5805,-0.1066,0.5306,-0.2341,2.533,1.2899,1.6157,-0.1242
0.4103,-0.1449,-0.3213,-0.3148,1.0151,0.5388,1.4796,0.3905,1.5805,-0.1066,0.5306,-0.2341,2.533,1.2899,1.6157,-0.1242
0.4103,-0.1449,-0.3213,-0.3148,1.0151,0.5388,1.4796,0.3905,1.5805,-0.1066,0.5306,-0.2341,2.533,1.2899,1.6157,-0.1242
0.4991,-0.1763,-0.4147,-0.2291,1.0363,0.5685,1.5454,0.3797,1.6605,-0.1477,0.4914,-0.2249,2.505,1.2241,1.6312,-0.1465
0.4991,-0.1763,-0.4147,-0.2291,1.0363,0.5685,1.5454,0.3797,1.6605,-0.1477,0.4914,-0.2249,2.505,1.2241,1.6312,-0.1465
0.5288,-0.1868,-0.4322,-0.1876,1.0469,0.5835,1.6114,0.3689,1.6712,-0.1259,0.5076,-0.2166,2.5676,1.1869,1.7629,-0.1678
0.5288,-0.1868,-0.4322,-0.1876,1.0469,0.5835,1.6114,0.3689,1.6712,-0.1259,0.5076,-0.2166,2.5676,1.1869,1.7629,-0.1678
0.5288,-0.1868,-0.4334,-0.1695,1.1131,0.5787,1.6892,0.3414,1.6241,-0.058,0.5485,-0.2125,2.6653,1.1523,1.9294,-0.2098
0.5288,-0.1868,-0.4334,-0.1695,1.1131,0.5787,1.6892,0.3414,1.6241,-0.058,0.5485,-0.2125,2.6653,1.1523,1.9294,-0.2098
0.539,-0.1692,-0.3993,-0.1697,1.227,0.5666,1.834,0.3027,1.5649,0.0273,0.6143,-0.2124,2.7987,1.1203,2.0292,-0.2112
0.539,-0.1692,-0.3993,-0.1697,1.227,0.5666,1.834,0.3027,1.5649,0.0273,0.6143,-0.2124,2.7987,1.1203,2.0292,-0.2112
0.559,-0.1656,-0.3542,-0.1857,1.3503,0.5418,1.8617,0.3054,1.4951,0.0907,0.6702,-0.2135,2.8835,1.1055,2.0351,-0.1624
0.559,-0.1656,-0.3542,-0.1857,1.3503,0.5418,1.8617,0.3054,1.4951,0.0907,0.6702,-0.2135,2.8835,1.1055,2.0351,-0.1624
0.5991,-0.1585,-0.3145,-0.1938,1.4373,0.5393,1.9173,0.3108,1.4166,0.0926,0.7097,-0.2228,2.848,1.1029,1.9591,-0.1101
0.5991,-0.1585,-0.3145,-0.1938,1.4373,0.5393,1.9173,0.3108,1.4166,0.0926,0.7097,-0.2228,2.848,1.1029,1.9591,-0.1101
0.5991,-0.1585,-0.3145,-0.1938,1.4373,0.5393,1.9173,0.3108,1.4166,0.0926,0.7097,-0.2228,2.848,1.1029,1.9591,-0.1101
0.6093,-0.1408,-0.2843,-0.2045,1.4593,0.5692,1.9337,0.3301,1.3165,0.0893,0.758,-0.2445,2.7495,1.1377,1.8883,-0.0936
0.6893,-0.1584,-0.2638,-0.2176,1.4246,0.6193,1.9221,0.3468,1.3401,0.0552,0.783,-0.2487,2.6866,1.175,1.8544,-0.0731
0.8299,-0.1974,-0.239,-0.2205,1.4269,0.6469,1.9385,0.3662,1.374,0.0432,0.7891,-0.2415,2.7356,1.1577,1.8178,-0.0772
0.8299,-0.1974,-0.239,-0.2205,1.4269,0.6469,1.9385,0.3662,1.374,0.0432,0.7891,-0.2415,2.7356,1.1577,1.8178,-0.0772
0.8299,-0.1974,-0.239,-0.2205,1.4269,0.6469,1.9385,0.3662,1.374,0.0432,0.7891,-0.2415,2.7356,1.1577,1.8178,-0.0772
0.9206,-0.2294,-0.2336,-0.2283,1.3985,0.6569,1.978,0.3522,1.4418,0.0193,0.7719,-0.2167,2.7848,1.1403,1.8439,-0.0864
0.9206,-0.2294,-0.2336,-0.2283,1.3985,0.6569,1.978,0.3522,1.4418,0.0193,0.7719,-0.2167,2.7848,1.1403,1.8439,-0.0864
0.9206,-0.2294,-0.2336,-0.2283,1.3985,0.6569,1.978,0.3522,1.4418,0.0193,0.7719,-0.2167,2.7848,1.1403,1.8439,-0.0864
0.941,-0.2259,-0.239,-0.2205,1.3788,0.6544,2.0854,0.3269,1.5099,-0.0048,0.759,-0.1981,2.8202,1.1429,1.8961,-0.1049
0.941,-0.2259,-0.239,-0.2205,1.3788,0.6544,2.0854,0.3269,1.5099,-0.0048,0.759,-0.1981,2.8202,1.1429,1.8961,-0.1049
0.8805,-0.2045,-0.2638,-0.2176,1.3288,0.6342,2.2281,0.2513,1.5439,-0.0168,0.715,-0.1825,2.8341,1.1229,1.9039,-0.1161
0.8109,-0.1371,-0.2789,-0.2123,1.281,0.6416,2.3482,0.2088,1.5203,0.0173,0.69,-0.1784,2.8835,1.1055,1.8778,-0.1069
0.8109,-0.1371,-0.2789,-0.2123,1.281,0.6416,2.3482,0.2088,1.5203,0.0173,0.69,-0.1784,2.8835,1.1055,1.8778,-0.1069
0.6904,-0.0945,-0.2982,-0.2173,1.2507,0.624,2.2797,0.2205,1.5426,0.0223,0.6986,-0.1908,3.082,1.0353,1.8883,-0.0936
0.6904,-0.0945,-0.2982,-0.2173,1.2507,0.624,2.2797,0.2205,1.5426,0.0223,0.6986,-0.1908,3.082,1.0353,1.8883,-0.0936
0.6904,-0.0945,-0.2982,-0.2173,1.2507,0.624,2.2797,0.2205,1.5426,0.0223,0.6986,-0.1908,3.082,1.0353,1.8883,-0.0936
0.5901,-0.0805,-0.3121,-0.23,1.2011,0.6039,2.1086,0.2935,1.5085,0.0343,0.6822,-0.199,3.1319,1.0177,1.8361,-0.0751
0.5901,-0.0805,-0.3121,-0.23,1.2011,0.6039,2.1086,0.2935,1.5085,0.0343,0.6822,-0.199,3.1319,1.0177,1.8361,-0.0751
0.5395,-0.1374,-0.2797,-0.2768,1.1689,0.559,1.8434,0.3746,1.5663,-0.0118,0.7037,-0.23,2.9766,1.1332,1.7996,-0.0792
0.5395,-0.1374,-0.2797,-0.2768,1.1689,0.559,1.8434,0.3746,1.5663,-0.0118,0.7037,-0.23,2.9766,1.1332,1.7996,-0.0792
0.5395,-0.1374,-0.2797,-0.2768,1.1689,0.559,1.8434,0.3746,1.5663,-0.0118,0.7037,-0.23,2.9766,1.1332,1.7996,-0.0792
0.5693,-0.1479,-0.27,-0.2743,1.1603,0.5714,1.7649,0.4023,1.7033,-0.0603,0.7019,-0.2434,2.8633,1.1884,1.7891,-0.0925
0.5693,-0.1479,-0.27,-0.2743,1.1603,0.5714,1.7649,0.4023,1.7033,-0.0603,0.7019,-0.2434,2.8633,1.1884,1.7891,-0.0925
0.5693,-0.1479,-0.27,-0.2743,1.1603,0.5714,1.7649,0.4023,1.7033,-0.0603,0.7019,-0.2434,2.8633,1.1884,1.7891,-0.0925
0.6088,-0.1726,-0.2959,-0.2534,1.1796,0.574,1.7257,0.4162,1.8302,-0.1308,0.6812,-0.2454,2.7291,1.2206,1.7605,-0.1078
0.6088,-0.1726,-0.2959,-0.2534,1.1796,0.574,1.7257,0.4162,1.8302,-0.1308,0.6812,-0.2454,2.7291,1.2206,1.7605,-0.1078
0.6088,-0.1726,-0.2959,-0.2534,1.1796,0.574,1.7257,0.4162,1.8302,-0.1308,0.6812,-0.2454,2.7291,1.2206,1.7605,-0.1078
0.6093,-0.1408,-0.3843,-0.1751,1.1624,0.5988,1.7373,0.3995,1.7957,-0.1186,0.6272,-0.231,2.6587,1.2152,1.8358,-0.1598
0.6093,-0.1408,-0.3843,-0.1751,1.1624,0.5988,1.7373,0.3995,1.7957,-0.1186,0.6272,-0.231,2.6587,1.2152,1.8358,-0.1598
0.6093,-0.1408,-0.3843,-0.1751,1.1624,0.5988,1.7373,0.3995,1.7957,-0.1186,0.6272,-0.231,2.6587,1.2152,1.8358,-0.1598
0.5897,-0.1125,-0.4143,-0.1644,1.1624,0.5988,1.788,0.3691,1.6347,-0.036,0.6066,-0.233,2.6376,1.1924,1.8773,-0.1913
0.5599,-0.102,-0.4334,-0.1695,1.199,0.5765,1.8387,0.3386,1.4848,0.0685,0.5716,-0.2299,2.5676,1.1869,1.8851,-0.2025
0.5599,-0.102,-0.4334,-0.1695,1.199,0.5765,1.8387,0.3386,1.4848,0.0685,0.5716,-0.2299,2.5676,1.1869,1.8851,-0.2025
0.5202,-0.0773,-0.4471,-0.1823,1.2831,0.5468,1.878,0.3247,1.381,0.144,0.5656,-0.2371,2.6441,1.1297,1.8408,-0.1953
0.5202,-0.0773,-0.4471,-0.1823,1.2831,0.5468,1.878,0.3247,1.381,0.144,0.5656,-0.2371,2.6441,1.1297,1.8408,-0.1953
0.4803,-0.0845,-0.4554,-0.2029,1.3651,0.4897,1.8895,0.3081,1.2471,0.1525,0.523,-0.2546,2.6018,1.0846,1.6931,-0.1515
0.4803,-0.0845,-0.4554,-0.2029,1.3651,0.4897,1.8895,0.3081,1.2471,0.1525,0.523,-0.2546,2.6018,1.0846,1.6931,-0.1515
0.4109,-0.0813,-0.4583,-0.2313,1.3347,0.4724,1.7833,0.3331,1.061,0.1281,0.4991,-0.2832,2.4419,1.0515,1.5028,-0.1011
0.4109,-0.0813,-0.4583,-0.2313,1.3347,0.4724,1.7833,0.3331,1.061,0.1281,0.4991,-0.2832,2.4419,1.0515,1.5028,-0.1011
0.3515,-0.0923,-0.4517,-0.2571,1.2591,0.4898,1.7282,0.3276,0.9767,0.0684,0.5246,-0.3199,2.3523,1.0238,1.3804,-0.0915
0.3515,-0.0923,-0.4517,-0.2571,1.2591,0.4898,1.7282,0.3276,0.9767,0.0684,0.5246,-0.3199,2.3523,1.0238,1.3804,-0.0915
0.3515,-0.0923,-0.4517,-0.2571,1.2591,0.4898,1.7282,0.3276,0.9767,0.0684,0.5246,-0.3199,2.3523,1.0238,1.3804,-0.0915
0.371,-0.1205,-0.4708,-0.262,1.1582,0.5441,1.6892,0.3414,0.9571,0.0245,0.5415,-0.3443,2.318,1.0212,1.3196,-0.0867
0.371,-0.1205,-0.4708,-0.262,1.1582,0.5441,1.6892,0.3414,0.9571,0.0245,0.5415,-0.3443,2.318,1.0212,1.3196,-0.0867
0.371,-0.1205,-0.4708,-0.262,1.1582,0.5441,1.6892,0.3414,0.9571,0.0245,0.5415,-0.3443,2.318,1.0212,1.3196,-0.0867
0.4987,-0.2079,-0.5344,-0.2512,0.9656,0.6402,1.5841,0.366,1.0152,-0.0593,0.5025,-0.3351,2.2431,1.0773,1.2743,-0.1042
0.4987,-0.2079,-0.5344,-0.2512,0.9656,0.6402,1.5841,0.366,1.0152,-0.0593,0.5025,-0.3351,2.2431,1.0773,1.2743,-0.1042
0.5774,-0.2569,-0.579,-0.2355,0.8998,0.6447,1.5568,0.3632,1.0815,-0.0828,0.4652,-0.3127,2.2636,1.0997,1.2896,-0.1263
0.5774,-0.2569,-0.579,-0.2355,0.8998,0.6447,1.5568,0.3632,1.0815,-0.0828,0.4652,-0.3127,2.2636,1.0997,1.2896,-0.1263
0.5774,-0.2569,-0.579,-0.2355,0.8998,0.6447,1.5568,0.3632,1.0815,-0.0828,0.4652,-0.3127,2.2636,1.0997,1.2896,-0.1263
0.5871,-0.2709,-0.6033,-0.2328,0.8618,0.6395,1.607,0.333,1.1031,-0.0778,0.4093,-0.2792,2.2499,1.1194,1.2973,-0.1373
0.4885,-0.2255,-0.6369,-0.2325,0.8496,0.5972,1.735,0.2753,1.1148,-0.0945,0.3662,-0.2639,2.2499,1.1194,1.3126,-0.1594
0.3805,-0.1662,-0.6652,-0.24,0.9027,0.5506,1.7854,0.2451,1.1364,-0.0895,0.3275,-0.2548,2.3594,1.0658,1.3455,-0.1794
0.3805,-0.1662,-0.6652,-0.24,0.9027,0.5506,1.7854,0.2451,1.1364,-0.0895,0.3275,-0.2548,2.3594,1.0658,1.3455,-0.1794
0.2628,-0.1246,-0.684,-0.2451,0.9197,0.526,1.735,0.2753,1.1031,-0.0778,0.3073,-0.2569,2.4828,0.9925,1.3785,-0.1993
0.2628,-0.1246,-0.684,-0.2451,0.9197,0.526,1.735,0.2753,1.1031,-0.0778,0.3073,-0.2569,2.4828,0.9925,1.3785,-0.1993
0.2628,-0.1246,-0.684,-0.2451,0.9197,0.526,1.735,0.2753,1.1031,-0.0778,0.3073,-0.2569,2.4828,0.9925,1.3785,-0.1993
0.1456,-0.1149,-0.6585,-0.2657,0.8733,0.5332,1.6299,0.3001,1.0815,-0.0828,0.2972,-0.258,2.5311,0.9755,1.3709,-0.1883
0.1456,-0.1149,-0.6585,-0.2657,0.8733,0.5332,1.6299,0.3001,1.0815,-0.0828,0.2972,-0.258,2.5311,0.9755,1.3709,-0.1883
0.0873,-0.1259,-0.6089,-0.289,0.9112,0.5383,1.6184,0.3165,1.1248,-0.0728,0.346,-0.266,2.5248,1.0371,1.4241,-0.1821
0.0873,-0.1259,-0.6089,-0.289,0.9112,0.5383,1.6184,0.3165,1.1248,-0.0728,0.346,-0.266,2.5248,1.0371,1.4241,-0.1821
0.1261,-0.1501,-0.5658,-0.2868,0.9513,0.5706,1.5956,0.3495,1.2569,-0.0814,0.3966,-0.2608,2.5046,1.1189,1.4877,-0.1629
0.1261,-0.1501,-0.5658,-0.2868,0.9513,0.5706,1.5956,0.3495,1.2569,-0.0814,0.3966,-0.2608,2.5046,1.1189,1.4877,-0.1629
0.1747,-0.1568,-0.5332,-0.2692,0.9809,0.5881,1.6618,0.3386,1.4238,-0.1023,0.4575,-0.2546,2.5466,1.1642,1.5336,-0.1456
0.1747,-0.1568,-0.5332,-0.2692,0.9809,0.5881,1.6618,0.3386,1.4238,-0.1023,0.4575,-0.2546,2.5466,1.1642,1.5336,-0.1456
0.1747,-0.1568,-0.5332,-0.2692,0.9809,0.5881,1.6618,0.3386,1.4238,-0.1023,0.4575,-0.2546,2.5466,1.1642,1.5336,-0.1456
0.282,-0.1842,-0.5208,-0.2385,1.0575,0.5984,1.7442,0.3469,1.4902,-0.0875,0.5085,-0.2494,2.5676,1.1869,1.6312,-0.1465
0.282,-0.1842,-0.5208,-0.2385,1.0575,0.5984,1.7442,0.3469,1.4902,-0.0875,0.5085,-0.2494,2.5676,1.1869,1.6312,-0.1465
0.41,-0.1766,-0.5085,-0.2077,1.1904,0.5889,1.8549,0.358,1.4625,0.0635,0.5613,-0.231,2.6727,1.1951,1.833,-0.1841
0.41,-0.1766,-0.5085,-0.2077,1.1904,0.5889,1.8549,0.358,1.4625,0.0635,0.5613,-0.231,2.6727,1.1951,1.833,-0.1841
0.41,-0.1766,-0.5085,-0.2077,1.1904,0.5889,1.8549,0.358,1.4625,0.0635,0.5613,-0.231,2.6727,1.1951,1.833,-0.1841
0.3905,-0.1485,-0.5234,-0.2024,1.2831,0.5468,1.8318,0.3913,1.4269,0.1148,0.5716,-0.2299,2.6866,1.175,1.8253,-0.173
0.3905,-0.1485,-0.5234,-0.2024,1.2831,0.5468,1.8318,0.3913,1.4269,0.1148,0.5716,-0.2299,2.6866,1.175,1.8253,-0.173
0.3905,-0.1485,-0.5234,-0.2024,1.2831,0.5468,1.8318,0.3913,1.4269,0.1148,0.5716,-0.2299,2.6866,1.175,1.8253,-0.173
0.4103,-0.1449,-0.5275,-0.2127,1.3112,0.5369,1.7926,0.4052,1.3487,0.1166,0.5656,-0.2371,2.6792,1.1324,1.7397,-0.1343
0.4103,-0.1449,-0.5275,-0.2127,1.3112,0.5369,1.7926,0.4052,1.3487,0.1166,0.5656,-0.2371,2.6792,1.1324,1.7397,-0.1343
0.4103,-0.1449,-0.5275,-0.2127,1.3112,0.5369,1.7926,0.4052,1.3487,0.1166,0.5656,-0.2371,2.6792,1.1324,1.7397,-0.1343
0.3808,-0.1345,-0.5059,-0.2437,1.227,0.5666,1.6982,0.4133,1.264,0.018,0.6142,-0.2914,2.4974,1.0766,1.5154,-0.0635
0.3808,-0.1345,-0.5059,-0.2437,1.227,0.5666,1.6982,0.4133,1.264,0.018,0.6142,-0.2914,2.4974,1.0766,1.5154,-0.0635
0.3808,-0.1345,-0.4952,-0.2592,1.1538,0.6112,1.6707,0.4105,1.2875,-0.0159,0.6475,-0.3078,2.4491,1.0937,1.4974,-0.0656
0.3808,-0.1345,-0.4952,-0.2592,1.1538,0.6112,1.6707,0.4105,1.2875,-0.0159,0.6475,-0.3078,2.4491,1.0937,1.4974,-0.0656
0.4792,-0.1799,-0.4845,-0.2747,1.0615,0.6533,1.6432,0.4077,1.3329,-0.0447,0.6287,-0.2966,2.4491,1.0937,1.4796,-0.0677
0.4792,-0.1799,-0.4845,-0.2747,1.0615,0.6533,1.6432,0.4077,1.3329,-0.0447,0.6287,-0.2966,2.4491,1.0937,1.4796,-0.0677
0.578,-0.2254,-0.494,-0.2772,1.0144,0.6605,1.6547,0.3911,1.3549,-0.0397,0.6117,-0.272,2.4837,1.0964,1.5052,-0.0767
0.578,-0.2254,-0.494,-0.2772,1.0144,0.6605,1.6547,0.3911,1.3549,-0.0397,0.6117,-0.272,2.4837,1.0964,1.5052,-0.0767
0.6278,-0.2324,-0.4898,-0.267,0.9866,0.6703,1.7718,0.3497,1.3314,-0.0059,0.5758,-0.2361,2.5046,1.1189,1.5488,-0.0837
0.6278,-0.2324,-0.4898,-0.267,0.9866,0.6703,1.7718,0.3497,1.3314,-0.0059,0.5758,-0.2361,2.5046,1.1189,1.5488,-0.0837
0.5488,-0.1833,-0.5101,-0.254,0.957,0.6526,1.811,0.3359,1.3417,0.0161,0.5673,-0.2238,2.6229,1.1071,1.5925,-0.0907
0.5488,-0.1833,-0.5101,-0.254,0.957,0.6526,1.811,0.3359,1.3417,0.0161,0.5673,-0.2238,2.6229,1.1071,1.5925,-0.0907
0.4996,-0.1446,-0.5303,-0.241,0.9742,0.6278,1.8387,0.3386,1.2961,0.0451,0.557,-0.2248,2.8187,1.038,1.6182,-0.0998
0.4996,-0.1446,-0.5303,-0.241,0.9742,0.6278,1.8387,0.3386,1.2961,0.0451,0.557,-0.2248,2.8187,1.038,1.6182,-0.0998
0.361,-0.1381,-0.5629,-0.2587,0.9513,0.5706,1.6547,0.3911,1.2742,0.04,0.5553,-0.2381,2.9172,1.0032,1.6182,-0.0998
0.361,-0.1381,-0.5629,-0.2587,0.9513,0.5706,1.6547,0.3911,1.2742,0.04,0.5553,-0.2381,2.9172,1.0032,1.6182,-0.0998
0.2628,-0.1246,-0.532,-0.2871,0.9302,0.5409,1.5497,0.4157,1.264,0.018,0.5391,-0.2464,2.8896,1.043,1.5925,-0.0907
0.2628,-0.1246,-0.532,-0.2871,0.9302,0.5409,1.5497,0.4157,1.264,0.018,0.5391,-0.2464,2.8896,1.043,1.5925,-0.0907
0.2628,-0.1246,-0.532,-0.2871,0.9302,0.5409,1.5497,0.4157,1.264,0.018,0.5391,-0.2464,2.8896,1.043,1.5925,-0.0907
0.2236,-0.1319,-0.5361,-0.2973,0.8837,0.548,1.4838,0.4264,1.3095,-0.0109,0.523,-0.2546,2.7987,1.1203,1.5925,-0.0907
0.2333,-0.1459,-0.5563,-0.2843,0.9112,0.5383,1.4452,0.4401,1.4004,-0.0685,0.4881,-0.2515,2.6727,1.1951,1.541,-0.0725
0.2333,-0.1459,-0.5563,-0.2843,0.9112,0.5383,1.4452,0.4401,1.4004,-0.0685,0.4881,-0.2515,2.6727,1.1951,1.541,-0.0725
0.2333,-0.1459,-0.5563,-0.2843,0.9112,0.5383,1.4452,0.4401,1.4004,-0.0685,0.4881,-0.2515,2.6727,1.1951,1.541,-0.0725
0.2527,-0.1738,-0.5913,-0.2662,0.8562,0.5577,1.3911,0.4342,1.4576,-0.1142,0.472,-0.2597,2.6376,1.1924,1.5745,-0.0928
0.2527,-0.1738,-0.5913,-0.2662,0.8562,0.5577,1.3911,0.4342,1.4576,-0.1142,0.472,-0.2597,2.6376,1.1924,1.5745,-0.0928
0.2527,-0.1738,-0.5913,-0.2662,0.8562,0.5577,1.3911,0.4342,1.4576,-0.1142,0.472,-0.2597,2.6376,1.1924,1.5745,-0.0928
0.243,-0.1599,-0.6611,-0.2298,0.8837,0.548,1.5296,0.3604,1.3446,-0.0616,0.4152,-0.272,2.5604,1.1442,1.7525,-0.1809
0.243,-0.1599,-0.6611,-0.2298,0.8837,0.548,1.5296,0.3604,1.3446,-0.0616,0.4152,-0.272,2.5604,1.1442,1.7525,-0.1809
0.243,-0.1599,-0.6611,-0.2298,0.8837,0.548,1.5296,0.3604,1.3446,-0.0616,0.4152,-0.272,2.5604,1.1442,1.7525,-0.1809
0.1942,-0.1532,-0.6947,-0.2296,0.9283,0.5137,1.5253,0.3246,1.232,-0.009,0.3891,-0.2812,2.6018,1.0846,1.7602,-0.1921
0.1942,-0.1532,-0.6947,-0.2296,0.9283,0.5137,1.5253,0.3246,1.232,-0.009,0.3891,-0.2812,2.6018,1.0846,1.7602,-0.1921
0.1942,-0.1532,-0.6947,-0.2296,0.9283,0.5137,1.5253,0.3246,1.232,-0.009,0.3891,-0.2812,2.6018,1.0846,1.7602,-0.1921
0.097,-0.1399,-0.7509,-0.2447,0.9537,0.477,1.4326,0.3325,0.9259,-0.0025,0.3294,-0.3199,2.318,1.0212,1.4926,-0.1143
0.097,-0.1399,-0.7509,-0.2447,0.9537,0.477,1.4326,0.3325,0.9259,-0.0025,0.3294,-0.3199,2.318,1.0212,1.4926,-0.1143
0.097,-0.1399,-0.7509,-0.2447,0.9537,0.477,1.4326,0.3325,0.9259,-0.0025,0.3294,-0.3199,2.318,1.0212,1.4926,-0.1143
0.1357,-0.1641,-0.7442,-0.2703,0.9093,0.5112,1.3942,0.3461,0.8734,-0.0344,0.3135,-0.328,2.2021,1.0326,1.3982,-0.0894
0.194,-0.1847,-0.7536,-0.2728,0.8458,0.5429,1.4212,0.349,0.8752,-0.0728,0.2749,-0.319,2.1682,1.0298,1.3627,-0.0936
0.2039,-0.1671,-0.7483,-0.2804,0.7825,0.5745,1.4596,0.3354,0.8752,-0.0728,0.2464,-0.3089,2.1817,1.0103,1.345,-0.0957
0.2039,-0.1671,-0.7483,-0.2804,0.7825,0.5745,1.4596,0.3354,0.8752,-0.0728,0.2464,-0.3089,2.1817,1.0103,1.345,-0.0957
0.1747,-0.1568,-0.767,-0.2854,0.7449,0.5693,1.4212,0.349,0.8424,-0.0612,0.2121,-0.306,2.2768,0.9767,1.3273,-0.0978
0.1747,-0.1568,-0.767,-0.2854,0.7449,0.5693,1.4212,0.349,0.8424,-0.0612,0.2121,-0.306,2.2768,0.9767,1.3273,-0.0978
0.1747,-0.1568,-0.767,-0.2854,0.7449,0.5693,1.4212,0.349,0.8424,-0.0612,0.2121,-0.306,2.2768,0.9767,1.3273,-0.0978
0.0873,-0.1574,-0.7603,-0.3109,0.6783,0.5466,1.3828,0.3625,0.8752,-0.0728,0.2064,-0.3131,2.3452,0.982,1.3273,-0.0978
0.0873,-0.1574,-0.7603,-0.3109,0.6783,0.5466,1.3828,0.3625,0.8752,-0.0728,0.2064,-0.3131,2.3452,0.982,1.3273,-0.0978
0.0873,-0.1574,-0.7603,-0.3109,0.6783,0.5466,1.3828,0.3625,0.8752,-0.0728,0.2064,-0.3131,2.3452,0.982,1.3273,-0.0978
0.0679,-0.1611,-0.775,-0.3057,0.6409,0.5414,1.3177,0.3731,0.9855,-0.1243,0.1864,-0.3152,2.2838,1.0185,1.3096,-0.0999
0.0679,-0.1611,-0.775,-0.3057,0.6409,0.5414,1.3177,0.3731,0.9855,-0.1243,0.1864,-0.3152,2.2838,1.0185,1.3096,-0.0999
0.0679,-0.1611,-0.775,-0.3057,0.6409,0.5414,1.3177,0.3731,0.9855,-0.1243,0.1864,-0.3152,2.2838,1.0185,1.3096,-0.0999
0.0389,-0.1509,-0.7776,-0.2701,0.714,0.5248,1.3331,0.3925,1.05,-0.1094,0.1822,-0.3091,2.2361,1.0353,1.4112,-0.1358
0.0389,-0.1509,-0.7776,-0.2701,0.714,0.5248,1.3331,0.3925,1.05,-0.1094,0.1822,-0.3091,2.2361,1.0353,1.4112,-0.1358
0.0389,-0.1509,-0.7496,-0.2626,0.825,0.5132,1.3714,0.379,1.0268,-0.076,0.2121,-0.306,2.2497,1.0158,1.4391,-0.1206
0.0389,-0.1509,-0.7496,-0.2626,0.825,0.5132,1.3714,0.379,1.0268,-0.076,0.2121,-0.306,2.2497,1.0158,1.4391,-0.1206
0.0389,-0.1509,-0.7496,-0.2626,0.825,0.5132,1.3714,0.379,1.0268,-0.076,0.2121,-0.306,2.2497,1.0158,1.4391,-0.1206
0.0776,-0.1435,-0.7175,-0.2449,0.9217,0.5532,1.4525,0.3876,0.9937,-0.0643,0.2807,-0.3119,2.2497,1.0158,1.4237,-0.0984
0.0776,-0.1435,-0.7175,-0.2449,0.9217,0.5532,1.4525,0.3876,0.9937,-0.0643,0.2807,-0.3119,2.2497,1.0158,1.4237,-0.0984
0.0776,-0.1435,-0.7175,-0.2449,0.9217,0.5532,1.4525,0.3876,0.9937,-0.0643,0.2807,-0.3119,2.2497,1.0158,1.4237,-0.0984
0.2527,-0.1738,-0.6476,-0.2171,1.0297,0.6082,1.6777,0.3579,1.0915,-0.061,0.3705,-0.27,2.3387,1.0435,1.4873,-0.0788
0.2822,-0.1526,-0.6194,-0.2095,1.0681,0.6134,1.811,0.3359,1.1132,-0.056,0.3924,-0.2547,2.4556,1.0318,1.5386,-0.0969
0.2822,-0.1526,-0.6194,-0.2095,1.0681,0.6134,1.811,0.3359,1.1132,-0.056,0.3924,-0.2547,2.4556,1.0318,1.5386,-0.0969
0.2822,-0.1526,-0.6194,-0.2095,1.0681,0.6134,1.811,0.3359,1.1132,-0.056,0.3924,-0.2547,2.4556,1.0318,1.5386,-0.0969
0.2236,-0.1319,-0.5844,-0.2277,1.0403,0.6232,1.7603,0.3663,1.1465,-0.0678,0.4025,-0.2537,2.5595,1.0398,1.5386,-0.0969
0.2236,-0.1319,-0.5844,-0.2277,1.0403,0.6232,1.7603,0.3663,1.1465,-0.0678,0.4025,-0.2537,2.5595,1.0398,1.5386,-0.0969
0.2236,-0.1319,-0.5695,-0.233,1.0211,0.6206,1.7488,0.3829,1.2351,-0.0864,0.427,-0.2577,2.588,1.1045,1.5463,-0.1081
0.2236,-0.1319,-0.5695,-0.233,1.0211,0.6206,1.7488,0.3829,1.2351,-0.0864,0.427,-0.2577,2.588,1.1045,1.5463,-0.1081
0.2139,-0.1179,-0.5654,-0.2227,1.0019,0.618,1.7373,0.3995,1.2685,-0.0982,0.4169,-0.2587,2.5742,1.1243,1.5695,-0.1415
0.2139,-0.1179,-0.5654,-0.2227,1.0019,0.618,1.7373,0.3995,1.2685,-0.0982,0.4169,-0.2587,2.5742,1.1243,1.5695,-0.1415
0.2628,-0.1246,-0.5613,-0.2125,1.0297,0.6082,1.7649,0.4023,1.2336,-0.0478,0.4169,-0.2587,2.5604,1.1442,1.6106,-0.1728
0.2628,-0.1246,-0.5613,-0.2125,1.0297,0.6082,1.7649,0.4023,1.2336,-0.0478,0.4169,-0.2587,2.5604,1.1442,1.6106,-0.1728
0.2531,-0.1106,-0.5667,-0.2047,1.1025,0.5638,1.7533,0.419,1.1549,-0.0073,0.4355,-0.2699,2.5256,1.1415,1.5772,-0.1526
0.2531,-0.1106,-0.5667,-0.2047,1.1025,0.5638,1.7533,0.419,1.1549,-0.0073,0.4355,-0.2699,2.5256,1.1415,1.5772,-0.1526
0.2531,-0.1106,-0.5667,-0.2047,1.1025,0.5638,1.7533,0.419,1.1549,-0.0073,0.4355,-0.2699,2.5256,1.1415,1.5772,-0.1526
0.2531,-0.1106,-0.5667,-0.2047,1.1025,0.5638,1.7533,0.419,1.1549,-0.0073,0.4355,-0.2699,2.5256,1.1415,1.5772,-0.1526
0.3021,-0.1173,-0.537,-0.2152,1.0767,0.601,1.7533,0.419,1.1132,-0.056,0.4584,-0.2873,2.4491,1.0937,1.4569,-0.1185
0.3021,-0.1173,-0.537,-0.2152,1.0767,0.601,1.7533,0.419,1.1132,-0.056,0.4584,-0.2873,2.4491,1.0937,1.4569,-0.1185
0.3021,-0.1173,-0.537,-0.2152,1.0767,0.601,1.7533,0.419,1.1132,-0.056,0.4584,-0.2873,2.4491,1.0937,1.4569,-0.1185
0.3413,-0.1417,-0.537,-0.2152,1.0211,0.6206,1.7533,0.419,1.0799,-0.0442,0.4601,-0.274,2.4974,1.0766,1.4492,-0.1074
0.3413,-0.1417,-0.537,-0.2152,1.0211,0.6206,1.7533,0.419,1.0799,-0.0442,0.4601,-0.274,2.4974,1.0766,1.4492,-0.1074
0.2727,-0.1069,-0.5559,-0.2202,0.9532,0.5979,1.7142,0.4328,1.0351,-0.0157,0.4762,-0.2658,2.7267,1.0105,1.4849,-0.1032
0.2727,-0.1069,-0.5559,-0.2202,0.9532,0.5979,1.7142,0.4328,1.0351,-0.0157,0.4762,-0.2658,2.7267,1.0105,1.4849,-0.1032
0.1944,-0.1216,-0.5398,-0.2435,0.8771,0.5875,1.5813,0.4547,0.9804,-0.0091,0.4762,-0.2658,2.713,1.0303,1.5105,-0.1122
0.1944,-0.1216,-0.5398,-0.2435,0.8771,0.5875,1.5813,0.4547,0.9804,-0.0091,0.4762,-0.2658,2.713,1.0303,1.5105,-0.1122
0.1944,-0.1216,-0.5398,-0.2435,0.8771,0.5875,1.5813,0.4547,0.9804,-0.0091,0.4762,-0.2658,2.713,1.0303,1.5105,-0.1122
0.1651,-0.1112,-0.5101,-0.254,0.8771,0.5875,1.5697,0.4713,1.0915,-0.061,0.466,-0.2669,2.7068,1.0925,1.5284,-0.1102
0.1651,-0.1112,-0.5101,-0.254,0.8771,0.5875,1.5697,0.4713,1.0915,-0.061,0.466,-0.2669,2.7068,1.0925,1.5284,-0.1102
0.1651,-0.1112,-0.5101,-0.254,0.8771,0.5875,1.5697,0.4713,1.0915,-0.061,0.466,-0.2669,2.7068,1.0925,1.5284,-0.1102
0.1748,-0.1252,-0.5357,-0.2332,0.8496,0.5972,1.5036,0.4821,1.148,-0.1062,0.4372,-0.2567,2.6303,1.1497,1.5361,-0.1213
0.1748,-0.1252,-0.5357,-0.2332,0.8496,0.5972,1.5036,0.4821,1.148,-0.1062,0.4372,-0.2567,2.6303,1.1497,1.5361,-0.1213
0.1748,-0.1252,-0.5357,-0.2332,0.8496,0.5972,1.5036,0.4821,1.148,-0.1062,0.4372,-0.2567,2.6303,1.1497,1.5361,-0.1213
0.1944,-0.1216,-0.5518,-0.21,0.9046,0.5778,1.5539,0.4518,1.1248,-0.0728,0.3738,-0.2435,2.693,1.1124,1.6234,-0.1353
0.1944,-0.1216,-0.5518,-0.21,0.9046,0.5778,1.5539,0.4518,1.1248,-0.0728,0.3738,-0.2435,2.693,1.1124,1.6234,-0.1353
0.1944,-0.1216,-0.5518,-0.21,0.9046,0.5778,1.5539,0.4518,1.1248,-0.0728,0.3738,-0.2435,2.693,1.1124,1.6234,-0.1353
0.1456,-0.1149,-0.6005,-0.2045,0.9493,0.5434,1.5382,0.4322,0.9821,-0.0476,0.3376,-0.2538,2.588,1.1045,1.5463,-0.1081
0.1067,-0.1223,-0.6342,-0.2043,0.9302,0.5409,1.4723,0.443,0.8521,-0.0395,0.32,-0.2752,2.4491,1.0937,1.4516,-0.083
0.1067,-0.1223,-0.6342,-0.2043,0.9302,0.5409,1.4723,0.443,0.8521,-0.0395,0.32,-0.2752,2.4491,1.0937,1.4516,-0.083
0.1553,-0.1289,-0.6288,-0.212,0.8856,0.5752,1.4723,0.443,0.7884,-0.0547,0.3184,-0.2885,2.3457,1.0855,1.3905,-0.0782
0.1553,-0.1289,-0.6288,-0.212,0.8856,0.5752,1.4723,0.443,0.7884,-0.0547,0.3184,-0.2885,2.3457,1.0855,1.3905,-0.0782
0.2041,-0.1355,-0.6436,-0.2068,0.8581,0.5849,1.5382,0.4322,0.7902,-0.0929,0.2755,-0.2733,2.2636,1.0997,1.4059,-0.1005
0.2041,-0.1355,-0.6436,-0.2068,0.8581,0.5849,1.5382,0.4322,0.7902,-0.0929,0.2755,-0.2733,2.2636,1.0997,1.4059,-0.1005
0.2042,-0.1039,-0.6436,-0.2068,0.8307,0.5946,1.6158,0.4048,0.8229,-0.1045,0.2612,-0.2683,2.3251,1.0631,1.4136,-0.1116
0.2042,-0.1039,-0.6436,-0.2068,0.8307,0.5946,1.6158,0.4048,0.8229,-0.1045,0.2612,-0.2683,2.3251,1.0631,1.4136,-0.1116
0.1847,-0.0758,-0.6584,-0.2016,0.8118,0.592,1.6432,0.4077,0.7902,-0.0929,0.2412,-0.2704,2.4828,0.9925,1.3958,-0.1137
0.1847,-0.0758,-0.6584,-0.2016,0.8118,0.592,1.6432,0.4077,0.7902,-0.0929,0.2412,-0.2704,2.4828,0.9925,1.3958,-0.1137
0.1555,-0.0655,-0.6678,-0.2041,0.8014,0.5771,1.6086,0.4575,0.7902,-0.0929,0.2069,-0.2675,2.6414,0.9217,1.3704,-0.1047
0.1555,-0.0655,-0.6678,-0.2041,0.8014,0.5771,1.6086,0.4575,0.7902,-0.0929,0.2069,-0.2675,2.6414,0.9217,1.3704,-0.1047
0.0486,-0.0701,-0.6705,-0.2323,0.7346,0.5544,1.4418,0.5291,0.7364,-0.0864,0.1953,-0.2817,2.655,0.9021,1.3019,-0.0889
0.0486,-0.0701,-0.6705,-0.2323,0.7346,0.5544,1.4418,0.5291,0.7364,-0.0864,0.1953,-0.2817,2.655,0.9021,1.3019,-0.0889
0.0003,-0.0952,-0.6545,-0.2555,0.6511,0.5562,1.299,0.5669,0.7268,-0.108,0.1979,-0.301,2.593,0.9388,1.249,-0.0953
-0.0093,-0.1128,-0.6491,-0.2632,0.6325,0.5536,1.2453,0.5608,0.8034,-0.1476,0.178,-0.3031,2.4692,1.0122,1.2138,-0.0995
-0.0093,-0.1128,-0.6491,-0.2632,0.6325,0.5536,1.2453,0.5608,0.8034,-0.1476,0.178,-0.3031,2.4692,1.0122,1.2138,-0.0995
0.0003,-0.1267,-0.6746,-0.2426,0.6054,0.5632,1.2568,0.5442,0.8475,-0.1756,0.1722,-0.3102,2.3114,1.0828,1.1864,-0.1148
0.0003,-0.1267,-0.6746,-0.2426,0.6054,0.5632,1.2568,0.5442,0.8475,-0.1756,0.1722,-0.3102,2.3114,1.0828,1.1864,-0.1148
0.0003,-0.1267,-0.6746,-0.2426,0.6054,0.5632,1.2568,0.5442,0.8475,-0.1756,0.1722,-0.3102,2.3114,1.0828,1.1864,-0.1148
0.0486,-0.1333,-0.7067,-0.1962,0.6155,0.578,1.3336,0.517,0.8917,-0.2036,0.148,-0.3062,2.1342,1.1305,1.2093,-0.1479
0.0486,-0.1333,-0.7067,-0.1962,0.6155,0.578,1.3336,0.517,0.8917,-0.2036,0.148,-0.3062,2.1342,1.1305,1.2093,-0.1479
0.0679,-0.1296,-0.739,-0.1497,0.6257,0.5929,1.4107,0.4898,0.9031,-0.2201,0.1155,-0.2902,2.0665,1.1248,1.2674,-0.1767
0.0679,-0.1296,-0.739,-0.1497,0.6257,0.5929,1.4107,0.4898,0.9031,-0.2201,0.1155,-0.2902,2.0665,1.1248,1.2674,-0.1767
0.0971,-0.1083,-0.731,-0.1291,0.6461,0.6227,1.5539,0.4518,0.8901,-0.1657,0.1412,-0.2809,2.0665,1.1248,1.4115,-0.2193
0.0971,-0.1083,-0.731,-0.1291,0.6461,0.6227,1.5539,0.4518,0.8901,-0.1657,0.1412,-0.2809,2.0665,1.1248,1.4115,-0.2193
0.1262,-0.0869,-0.688,-0.1266,0.7673,0.6263,1.6476,0.4438,0.8326,-0.0829,0.1585,-0.2595,2.1478,1.1109,1.5158,-0.2312
0.1262,-0.0869,-0.688,-0.1266,0.7673,0.6263,1.6476,0.4438,0.8326,-0.0829,0.1585,-0.2595,2.1478,1.1109,1.5158,-0.2312
0.136,-0.0692,-0.6396,-0.132,0.9532,0.5979,1.7026,0.4495,0.8308,-0.0446,0.2085,-0.2542,2.1954,1.0941,1.5541,-0.2031
0.136,-0.0692,-0.6396,-0.132,0.9532,0.5979,1.7026,0.4495,0.8308,-0.0446,0.2085,-0.2542,2.1954,1.0941,1.5541,-0.2031
0.136,-0.0692,-0.6396,-0.132,0.9532,0.5979,1.7026,0.4495,0.8308,-0.0446,0.2085,-0.2542,2.1954,1.0941,1.5541,-0.2031
0.1263,-0.0552,-0.576,-0.1427,1.0661,0.586,1.7462,0.472,0.7769,-0.0381,0.2713,-0.2672,2.2226,1.0549,1.4978,-0.1497
0.1263,-0.0552,-0.576,-0.1427,1.0661,0.586,1.7462,0.472,0.7769,-0.0381,0.2713,-0.2672,2.2226,1.0549,1.4978,-0.1497
0.1555,-0.0655,-0.5368,-0.1507,1.0787,0.6284,1.7346,0.4887,0.7557,-0.0431,0.3301,-0.2742,2.209,1.0745,1.4492,-0.1074
0.263,-0.0929,-0.5178,-0.1456,1.072,0.6683,1.7113,0.5223,0.7884,-0.0547,0.3662,-0.2639,2.2636,1.0997,1.4516,-0.083
0.263,-0.0929,-0.5178,-0.1456,1.072,0.6683,1.7113,0.5223,0.7884,-0.0547,0.3662,-0.2639,2.2636,1.0997,1.4516,-0.083
0.263,-0.0929,-0.5178,-0.1456,1.072,0.6683,1.7113,0.5223,0.7884,-0.0547,0.3662,-0.2639,2.2636,1.0997,1.4516,-0.083
0.3413,-0.1417,-0.5028,-0.1509,1.0163,0.688,1.7506,0.5084,0.9081,-0.0844,0.3839,-0.2425,2.4146,1.091,1.4796,-0.0677
0.3413,-0.1417,-0.5028,-0.1509,1.0163,0.688,1.7506,0.5084,0.9081,-0.0844,0.3839,-0.2425,2.4146,1.091,1.4796,-0.0677
0.3413,-0.1417,-0.5028,-0.1509,1.0163,0.688,1.7506,0.5084,0.9081,-0.0844,0.3839,-0.2425,2.4146,1.091,1.4796,-0.0677
0.3218,-0.1137,-0.5123,-0.1534,1.0509,0.6382,1.8967,0.4694,0.9838,-0.086,0.3754,-0.2302,2.6292,1.045,1.541,-0.0725
0.3218,-0.1137,-0.5123,-0.1534,1.0509,0.6382,1.8967,0.4694,0.9838,-0.086,0.3754,-0.2302,2.6292,1.045,1.541,-0.0725
0.3218,-0.1137,-0.5123,-0.1534,1.0509,0.6382,1.8967,0.4694,0.9838,-0.086,0.3754,-0.2302,2.6292,1.045,1.541,-0.0725
0.0971,-0.1083,-0.5775,-0.1892,0.8875,0.6024,1.6605,0.5529,0.941,-0.0961,0.3148,-0.2365,2.6005,0.9806,1.5154,-0.0635
0.0971,-0.1083,-0.5775,-0.1892,0.8875,0.6024,1.6605,0.5529,0.941,-0.0961,0.3148,-0.2365,2.6005,0.9806,1.5154,-0.0635
-0.0286,-0.1165,-0.5803,-0.2175,0.7758,0.614,1.5275,0.5745,0.9196,-0.101,0.2946,-0.2386,2.4901,1.0345,1.5076,-0.0523
-0.0286,-0.1165,-0.5803,-0.2175,0.7758,0.614,1.5275,0.5745,0.9196,-0.101,0.2946,-0.2386,2.4901,1.0345,1.5076,-0.0523
-0.0671,-0.1239,-0.56,-0.2305,0.7484,0.6237,1.5118,0.5548,0.9525,-0.1127,0.293,-0.2519,2.3184,1.125,1.4999,-0.0411
-0.0671,-0.1239,-0.56,-0.2305,0.7484,0.6237,1.5118,0.5548,0.9525,-0.1127,0.293,-0.2519,2.3184,1.125,1.4999,-0.0411
-0.0671,-0.1239,-0.56,-0.2305,0.7484,0.6237,1.5118,0.5548,0.9525,-0.1127,0.293,-0.2519,2.3184,1.125,1.4999,-0.0411
-0.0479,-0.1202,-0.5506,-0.228,0.7587,0.6386,1.5391,0.5578,1.0731,-0.1427,0.2972,-0.258,2.2293,1.2012,1.51,-0.0278
-0.0479,-0.1202,-0.5506,-0.228,0.7587,0.6386,1.5391,0.5578,1.0731,-0.1427,0.2972,-0.258,2.2293,1.2012,1.51,-0.0278
-0.0479,-0.1202,-0.5506,-0.228,0.7587,0.6386,1.5391,0.5578,1.0731,-0.1427,0.2972,-0.258,2.2293,1.2012,1.51,-0.0278
0.0099,-0.1406,-0.5464,-0.2177,0.8325,0.6219,1.5781,0.544,1.2276,-0.1848,0.2914,-0.2651,2.1677,1.238,1.5022,-0.0166
0.0776,-0.1435,-0.5626,-0.1944,0.8514,0.6245,1.6446,0.5332,1.3833,-0.2272,0.3057,-0.2702,2.1814,1.2182,1.5124,-0.0032
0.0776,-0.1435,-0.5626,-0.1944,0.8514,0.6245,1.6446,0.5332,1.3833,-0.2272,0.3057,-0.2702,2.1814,1.2182,1.5124,-0.0032
0.1552,-0.1604,-0.5842,-0.1633,0.8894,0.6297,1.7623,0.4916,1.44,-0.2724,0.2898,-0.2784,2.1408,1.1728,1.5459,-0.0235
0.1552,-0.1604,-0.5842,-0.1633,0.8894,0.6297,1.7623,0.4916,1.44,-0.2724,0.2898,-0.2784,2.1408,1.1728,1.5459,-0.0235
0.1552,-0.1604,-0.6247,-0.1372,0.8894,0.6297,1.8132,0.4609,1.4169,-0.239,0.2898,-0.2784,2.2158,1.1166,1.6672,-0.0579
0.1552,-0.1604,-0.6247,-0.1372,0.8894,0.6297,1.8132,0.4609,1.4169,-0.239,0.2898,-0.2784,2.2158,1.1166,1.6672,-0.0579
0.1552,-0.1604,-0.6692,-0.1215,0.8618,0.6395,1.7855,0.4581,1.315,-0.1653,0.2554,-0.2754,2.1954,1.0941,1.7709,-0.0946
0.1552,-0.1604,-0.6692,-0.1215,0.8618,0.6395,1.7855,0.4581,1.315,-0.1653,0.2554,-0.2754,2.1954,1.0941,1.7709,-0.0946
0.1359,-0.1325,-0.6786,-0.1241,0.917,0.62,1.7739,0.4748,1.2016,-0.0746,0.2496,-0.2825,2.2226,1.0549,1.8229,-0.1129
0.1359,-0.1325,-0.6786,-0.1241,0.917,0.62,1.7739,0.4748,1.2016,-0.0746,0.2496,-0.2825,2.2226,1.0549,1.8229,-0.1129
0.0971,-0.1083,-0.692,-0.137,0.9532,0.5979,1.7346,0.4887,1.0999,-0.0005,0.2295,-0.2846,2.2703,1.038,1.7813,-0.0813
0.0971,-0.1083,-0.6907,-0.1551,1.0448,0.5562,1.7113,0.5223,1.0117,0.0179,0.1853,-0.2828,2.2157,1.013,1.6878,-0.0312
0.0971,-0.1083,-0.6907,-0.1551,1.0448,0.5562,1.7113,0.5223,1.0117,0.0179,0.1853,-0.2828,2.2157,1.013,1.6878,-0.0312
0.0486,-0.1017,-0.7081,-0.1782,1.0705,0.5192,1.6446,0.5332,0.9259,-0.0025,0.1496,-0.293,2.1748,0.9687,1.5507,0.0257
0.0486,-0.1017,-0.7081,-0.1782,1.0705,0.5192,1.6446,0.5332,0.9259,-0.0025,0.1496,-0.293,2.1748,0.9687,1.5507,0.0257
0.0486,-0.1017,-0.7081,-0.1782,1.0705,0.5192,1.6446,0.5332,0.9259,-0.0025,0.1496,-0.293,2.1748,0.9687,1.5507,0.0257
-0.0094,-0.0812,-0.7014,-0.2039,1.0598,0.5044,1.6287,0.5135,0.8405,-0.0228,0.1606,-0.3244,2.0869,0.9412,1.422,0.0712
-0.0094,-0.0812,-0.7014,-0.2039,1.0598,0.5044,1.6287,0.5135,0.8405,-0.0228,0.1606,-0.3244,2.0869,0.9412,1.422,0.0712
-0.0094,-0.0812,-0.7014,-0.2039,1.0598,0.5044,1.6287,0.5135,0.8405,-0.0228,0.1606,-0.3244,2.0869,0.9412,1.422,0.0712
0.0003,-0.0952,-0.6853,-0.2271,0.9683,0.546,1.5623,0.5243,0.8211,-0.0663,0.1575,-0.3506,1.9394,0.9496,1.3252,0.0714
0.0003,-0.0952,-0.6853,-0.2271,0.9683,0.546,1.5623,0.5243,0.8211,-0.0663,0.1575,-0.3506,1.9394,0.9496,1.3252,0.0714
0.0003,-0.0952,-0.6853,-0.2271,0.9683,0.546,1.5623,0.5243,0.8211,-0.0663,0.1575,-0.3506,1.9394,0.9496,1.3252,0.0714
0.1454,-0.178,-0.7134,-0.2346,0.7399,0.636,1.4921,0.4987,0.8654,-0.0945,0.1151,-0.3356,1.8794,0.9854,1.3386,0.0243
0.1357,-0.1641,-0.7522,-0.2268,0.6665,0.6526,1.5655,0.4351,0.9081,-0.0844,0.0967,-0.3246,1.8993,1.0075,1.3974,-0.0049
0.1357,-0.1641,-0.7522,-0.2268,0.6665,0.6526,1.5655,0.4351,0.9081,-0.0844,0.0967,-0.3246,1.8993,1.0075,1.3974,-0.0049
0.1357,-0.1641,-0.7522,-0.2268,0.6665,0.6526,1.5655,0.4351,0.9081,-0.0844,0.0967,-0.3246,1.8993,1.0075,1.3974,-0.0049
0.0776,-0.112,-0.7763,-0.2241,0.6018,0.6569,1.6273,0.3882,0.9179,-0.0627,0.0727,-0.3207,2.0264,0.9772,1.4385,-0.0363
0.0776,-0.112,-0.7763,-0.2241,0.6018,0.6569,1.6273,0.3882,0.9179,-0.0627,0.0727,-0.3207,2.0264,0.9772,1.4385,-0.0363
0.0776,-0.112,-0.7763,-0.2241,0.6018,0.6569,1.6273,0.3882,0.9179,-0.0627,0.0727,-0.3207,2.0264,0.9772,1.4385,-0.0363
0.0002,-0.0635,-0.8096,-0.2239,0.6002,0.6296,1.6114,0.3689,0.9393,-0.0577,0.0388,-0.3178,2.2491,0.9131,1.4897,-0.0544
-0.0961,-0.0506,-0.8322,-0.2392,0.624,0.5658,1.4796,0.3905,0.9063,-0.0461,0.0232,-0.3259,2.3576,0.8602,1.5154,-0.0635
-0.2491,-0.0491,-0.8295,-0.2749,0.558,0.5431,1.272,0.4389,0.8308,-0.0446,0.0217,-0.339,2.3502,0.819,1.4974,-0.0656
-0.2491,-0.0491,-0.8295,-0.2749,0.558,0.5431,1.272,0.4389,0.8308,-0.0446,0.0217,-0.339,2.3502,0.819,1.4974,-0.0656
-0.3342,-0.0818,-0.7843,-0.3082,0.5479,0.5283,1.1311,0.4763,0.8308,-0.0446,0.0259,-0.345,2.2419,0.8719,1.4819,-0.0432
-0.3342,-0.0818,-0.7843,-0.3082,0.5479,0.5283,1.1311,0.4763,0.8308,-0.0446,0.0259,-0.345,2.2419,0.8719,1.4819,-0.0432
-0.3342,-0.0818,-0.7843,-0.3082,0.5479,0.5283,1.1311,0.4763,0.8308,-0.0446,0.0259,-0.345,2.2419,0.8719,1.4819,-0.0432
-0.3342,-0.0818,-0.7843,-0.3082,0.5479,0.5283,1.1311,0.4763,0.8308,-0.0446,0.0259,-0.345,2.2419,0.8719,1.4819,-0.0432
-0.353,-0.0856,-0.6923,-0.3291,0.6036,0.5362,1.0702,0.5227,0.8308,-0.0446,0.0457,-0.3429,2.1544,0.9466,1.4921,-0.0299
-0.353,-0.0856,-0.6923,-0.3291,0.6036,0.5362,1.0702,0.5227,0.8308,-0.0446,0.0457,-0.3429,2.1544,0.9466,1.4921,-0.0299
-0.3153,-0.0781,-0.6306,-0.322,0.6801,0.5737,1.1233,0.5288,0.9277,-0.041,0.1051,-0.3367,2.1208,1.0466,1.5561,-0.0102
-0.2012,-0.087,-0.5847,-0.2918,0.7399,0.636,1.2033,0.538,1.0915,-0.061,0.1465,-0.3194,2.0867,1.1473,1.6023,0.0075
-0.096,-0.0822,-0.5736,-0.2432,0.8257,0.6616,1.3067,0.514,1.2788,-0.0765,0.1837,-0.296,2.1748,1.1757,1.6746,0.016
-0.096,-0.0822,-0.5736,-0.2432,0.8257,0.6616,1.3067,0.514,1.2788,-0.0765,0.1837,-0.296,2.1748,1.1757,1.6746,0.016
-0.096,-0.0822,-0.5736,-0.2432,0.8257,0.6616,1.3067,0.514,1.2788,-0.0765,0.1837,-0.296,2.1748,1.1757,1.6746,0.016
0.0196,-0.0915,-0.5869,-0.1917,0.8931,0.6846,1.3992,0.5064,1.3666,-0.0566,0.2053,-0.2807,2.243,1.1814,1.8152,-0.0166
0.0196,-0.0915,-0.5869,-0.1917,0.8931,0.6846,1.3992,0.5064,1.3666,-0.0566,0.2053,-0.2807,2.243,1.1814,1.8152,-0.0166
0.0874,-0.0943,-0.5788,-0.1711,0.9312,0.6899,1.5152,0.4655,1.3652,-0.0178,0.2253,-0.2786,2.3047,1.1447,1.9462,-0.0629
0.0874,-0.0943,-0.5788,-0.1711,0.9312,0.6899,1.5152,0.4655,1.3652,-0.0178,0.2253,-0.2786,2.3047,1.1447,1.9462,-0.0629
0.1651,-0.1112,-0.5896,-0.1555,0.978,0.6827,1.6317,0.4243,1.3299,0.0331,0.2295,-0.2846,2.4146,1.091,2.0857,-0.1207
0.1651,-0.1112,-0.5896,-0.1555,0.978,0.6827,1.6317,0.4243,1.3299,0.0331,0.2295,-0.2846,2.4146,1.091,2.0857,-0.1207
0.1554,-0.0972,-0.5842,-0.1633,1.0422,0.6506,1.7097,0.3967,1.2945,0.0842,0.2438,-0.2897,2.5248,1.0371,2.1386,-0.1394
0.1555,-0.0655,-0.5788,-0.1711,1.1259,0.6211,1.7212,0.3801,1.2033,0.1422,0.238,-0.2968,2.5869,1.0003,2.1014,-0.1433
0.1555,-0.0655,-0.5788,-0.1711,1.1259,0.6211,1.7212,0.3801,1.2033,0.1422,0.238,-0.2968,2.5869,1.0003,2.1014,-0.1433
0.136,-0.0692,-0.6072,-0.1787,1.199,0.5765,1.6662,0.3745,1.0807,0.1726,0.2079,-0.2999,2.5658,0.9781,1.996,-0.1061
0.136,-0.0692,-0.6072,-0.1787,1.199,0.5765,1.6662,0.3745,1.0807,0.1726,0.2079,-0.2999,2.5658,0.9781,1.996,-0.1061
0.136,-0.0692,-0.6072,-0.1787,1.199,0.5765,1.6662,0.3745,1.0807,0.1726,0.2079,-0.2999,2.5658,0.9781,1.996,-0.1061
0.0776,-0.0486,-0.6261,-0.1837,1.1882,0.5616,1.5885,0.402,0.9395,0.1582,0.1722,-0.3102,2.3452,0.982,1.8204,-0.0526
0.0776,-0.0486,-0.6261,-0.1837,1.1882,0.5616,1.5885,0.402,0.9395,0.1582,0.1722,-0.3102,2.3452,0.982,1.8204,-0.0526
0.0292,-0.0421,-0.6503,-0.181,1.1603,0.5714,1.5224,0.4128,0.8017,0.1048,0.1606,-0.3244,2.114,1.0048,1.6282,-0.0017
0.0292,-0.0421,-0.6503,-0.181,1.1603,0.5714,1.5224,0.4128,0.8017,0.1048,0.1606,-0.3244,2.114,1.0048,1.6282,-0.0017
0.0194,-0.028,-0.6261,-0.1837,1.098,0.631,1.5382,0.4322,0.7401,0.0505,0.1974,-0.3465,1.9861,1.0354,1.5405,0.0123
0.0194,-0.028,-0.6261,-0.1837,1.098,0.631,1.5382,0.4322,0.7401,0.0505,0.1974,-0.3465,1.9861,1.0354,1.5405,0.0123
0.0194,-0.028,-0.6261,-0.1837,1.098,0.631,1.5382,0.4322,0.7401,0.0505,0.1974,-0.3465,1.9861,1.0354,1.5405,0.0123
0.0679,-0.0346,-0.6072,-0.1787,1.0547,0.6933,1.5655,0.4351,0.721,0.0068,0.2399,-0.3615,1.9122,1.0909,1.4867,0.0059
0.0679,-0.0346,-0.6072,-0.1787,1.0547,0.6933,1.5655,0.4351,0.721,0.0068,0.2399,-0.3615,1.9122,1.0909,1.4867,0.0059
0.0679,-0.0346,-0.6072,-0.1787,1.0547,0.6933,1.5655,0.4351,0.721,0.0068,0.2399,-0.3615,1.9122,1.0909,1.4867,0.0059
0.2924,-0.1033,-0.549,-0.1816,0.9748,0.7782,1.5539,0.4518,0.8308,-0.0446,0.2474,-0.3413,2.0735,1.0633,1.4819,-0.0432
0.2924,-0.1033,-0.549,-0.1816,0.9748,0.7782,1.5539,0.4518,0.8308,-0.0446,0.2474,-0.3413,2.0735,1.0633,1.4819,-0.0432
0.371,-0.1205,-0.5449,-0.1713,0.9748,0.7782,1.6591,0.4271,0.9294,-0.0794,0.2121,-0.306,2.0937,1.0857,1.5231,-0.0746
0.371,-0.1205,-0.5449,-0.1713,0.9748,0.7782,1.6591,0.4271,0.9294,-0.0794,0.2121,-0.306,2.0937,1.0857,1.5231,-0.0746
0.371,-0.1205,-0.5449,-0.1713,0.9748,0.7782,1.6591,0.4271,0.9294,-0.0794,0.2121,-0.306,2.0937,1.0857,1.5231,-0.0746
0.3911,-0.085,-0.5355,-0.1688,1.0027,0.7683,1.7764,0.3857,0.9624,-0.0911,0.1611,-0.2788,2.1139,1.1081,1.5565,-0.0949
0.3911,-0.085,-0.5355,-0.1688,1.0027,0.7683,1.7764,0.3857,0.9624,-0.0911,0.1611,-0.2788,2.1139,1.1081,1.5565,-0.0949
0.3911,-0.085,-0.5355,-0.1688,1.0027,0.7683,1.7764,0.3857,0.9624,-0.0911,0.1611,-0.2788,2.1139,1.1081,1.5565,-0.0949
0.2731,0.0208,-0.5842,-0.1633,0.9799,0.7103,1.6866,0.43,0.9937,-0.0643,0.1186,-0.2638,2.4619,0.9703,1.5488,-0.0837
0.2731,0.0208,-0.5842,-0.1633,0.9799,0.7103,1.6866,0.43,0.9937,-0.0643,0.1186,-0.2638,2.4619,0.9703,1.5488,-0.0837
0.2731,0.0208,-0.5842,-0.1633,0.9799,0.7103,1.6866,0.43,0.9937,-0.0643,0.1186,-0.2638,2.4619,0.9703,1.5488,-0.0837
0.2338,0.0133,-0.568,-0.1867,0.9398,0.6775,1.5193,0.5017,0.9723,-0.0694,0.0888,-0.267,2.4754,0.9508,1.5231,-0.0746
0.175,0.002,-0.5572,-0.2022,0.8551,0.6793,1.3876,0.5231,0.9838,-0.086,0.0972,-0.2791,2.3659,1.0043,1.4974,-0.0656
0.175,0.002,-0.5572,-0.2022,0.8551,0.6793,1.3876,0.5231,0.9838,-0.086,0.0972,-0.2791,2.3659,1.0043,1.4974,-0.0656
0.1555,-0.0017,-0.5424,-0.2075,0.8447,0.6642,1.3221,0.5337,1.0615,-0.1261,0.0915,-0.2862,2.2567,1.0576,1.454,-0.0586
0.1555,-0.0017,-0.5424,-0.2075,0.8447,0.6642,1.3221,0.5337,1.0615,-0.1261,0.0915,-0.2862,2.2567,1.0576,1.454,-0.0586
0.1555,-0.0017,-0.5424,-0.2075,0.8447,0.6642,1.3221,0.5337,1.0615,-0.1261,0.0915,-0.2862,2.2567,1.0576,1.454,-0.0586
0.1555,-0.0017,-0.5639,-0.1764,0.8171,0.674,1.3221,0.5337,1.0731,-0.1427,0.0815,-0.2873,2.1139,1.1081,1.4617,-0.0698
0.1555,-0.0017,-0.5639,-0.1764,0.8171,0.674,1.3221,0.5337,1.0731,-0.1427,0.0815,-0.2873,2.1139,1.1081,1.4617,-0.0698
0.1555,-0.0017,-0.5639,-0.1764,0.8171,0.674,1.3221,0.5337,1.0731,-0.1427,0.0815,-0.2873,2.1139,1.1081,1.4617,-0.0698
0.1066,0.0368,-0.6072,-0.114,0.8447,0.6642,1.4764,0.4791,1.0169,-0.0977,0.0491,-0.2713,1.9991,1.1191,1.5874,-0.1394
0.1066,0.0368,-0.6072,-0.114,0.8447,0.6642,1.4764,0.4791,1.0169,-0.0977,0.0491,-0.2713,1.9991,1.1191,1.5874,-0.1394
0.1066,0.0368,-0.6072,-0.114,0.8447,0.6642,1.4764,0.4791,1.0169,-0.0977,0.0491,-0.2713,1.9991,1.1191,1.5874,-0.1394
0.1066,0.0368,-0.622,-0.1087,0.8998,0.6447,1.5152,0.4655,0.9277,-0.041,0.0392,-0.2723,1.9791,1.0966,1.6029,-0.1617
0.0968,0.051,-0.6274,-0.1009,1.0575,0.5984,1.5424,0.4684,0.8502,-0.001,0.0434,-0.2784,2.0062,1.0576,1.5592,-0.1547
0.1066,0.0368,-0.622,-0.1087,1.1775,0.5466,1.5309,0.485,0.7749,0.0004,0.0278,-0.2866,2.0331,1.0187,1.4569,-0.1185
0.1066,0.0368,-0.622,-0.1087,1.1775,0.5466,1.5309,0.485,0.7749,0.0004,0.0278,-0.2866,2.0331,1.0187,1.4569,-0.1185
0.0385,0.0396,-0.6207,-0.1269,1.1947,0.5219,1.4649,0.4958,0.6159,-0.0188,0.0065,-0.3018,1.9728,0.9524,1.3019,-0.0889
0.0385,0.0396,-0.6207,-0.1269,1.1947,0.5219,1.4649,0.4958,0.6159,-0.0188,0.0065,-0.3018,1.9728,0.9524,1.3019,-0.0889
0.0289,0.0217,-0.6207,-0.1269,1.1496,0.5565,1.3992,0.5064,0.5761,-0.0672,0.0388,-0.3178,1.9194,0.9276,1.181,-0.0796
0.0289,0.0217,-0.6207,-0.1269,1.1496,0.5565,1.3992,0.5064,0.5761,-0.0672,0.0388,-0.3178,1.9194,0.9276,1.181,-0.0796
0.0289,0.0217,-0.6207,-0.1269,1.1496,0.5565,1.3992,0.5064,0.5761,-0.0672,0.0388,-0.3178,1.9194,0.9276,1.181,-0.0796
0.0678,-0.0027,-0.5963,-0.1296,1.0787,0.6284,1.3992,0.5064,0.5761,-0.0672,0.0826,-0.3196,1.8927,0.9661,1.1459,-0.0839
0.0678,-0.0027,-0.5963,-0.1296,1.0787,0.6284,1.3992,0.5064,0.5761,-0.0672,0.0826,-0.3196,1.8927,0.9661,1.1459,-0.0839
0.2141,-0.0544,-0.5788,-0.1063,1.0547,0.6933,1.4262,0.5094,0.6503,-0.0685,0.1255,-0.2891,1.9192,1.0297,1.1459,-0.0839
0.2141,-0.0544,-0.5788,-0.1063,1.0547,0.6933,1.4262,0.5094,0.6503,-0.0685,0.1255,-0.2891,1.9192,1.0297,1.1459,-0.0839
0.3122,-0.0678,-0.5422,-0.0779,1.0585,0.7486,1.5971,0.4742,0.7672,-0.0598,0.1658,-0.2392,2.0262,1.08,1.2314,-0.0974
0.3122,-0.0678,-0.5422,-0.0779,1.0585,0.7486,1.5971,0.4742,0.7672,-0.0598,0.1658,-0.2392,2.0262,1.08,1.2314,-0.0974
0.3617,-0.0426,-0.4796,-0.0703,1.1077,0.7692,1.8364,0.4275,0.9063,-0.0461,0.229,-0.2062,2.1818,1.1137,1.3349,-0.1089
0.3617,-0.0426,-0.4796,-0.0703,1.1077,0.7692,1.8364,0.4275,0.9063,-0.0461,0.229,-0.2062,2.1818,1.1137,1.3349,-0.1089
0.3817,0.0253,-0.4071,-0.0603,1.1852,0.7798,2.0788,0.3798,0.992,-0.0258,0.2808,-0.1875,2.3047,1.1447,1.4646,-0.1296
0.3817,0.0253,-0.4071,-0.0603,1.1852,0.7798,2.0788,0.3798,0.992,-0.0258,0.2808,-0.1875,2.3047,1.1447,1.4646,-0.1296
0.362,0.0861,-0.3687,-0.05,1.2328,0.7725,2.1636,0.3879,1.0782,-0.0056,0.327,-0.176,2.588,1.1045,1.5874,-0.1394
0.362,0.0861,-0.3687,-0.05,1.2328,0.7725,2.1636,0.3879,1.0782,-0.0056,0.327,-0.176,2.588,1.1045,1.5874,-0.1394
0.3322,0.129,-0.3549,-0.0369,1.2806,0.7652,2.1285,0.4384,1.0882,0.0163,0.3616,-0.179,2.8187,1.038,1.6234,-0.1353
0.3322,0.129,-0.3549,-0.0369,1.2806,0.7652,2.1285,0.4384,1.0882,0.0163,0.3616,-0.179,2.8187,1.038,1.6234,-0.1353
0.2335,0.1423,-0.3343,-0.0502,1.2309,0.7447,1.9573,0.5116,1.0882,0.0163,0.3717,-0.1779,2.9666,0.9857,1.6337,-0.1221
0.2335,0.1423,-0.3343,-0.0502,1.2309,0.7447,1.9573,0.5116,1.0882,0.0163,0.3717,-0.1779,2.9666,0.9857,1.6337,-0.1221
0.2335,0.1423,-0.3343,-0.0502,1.2309,0.7447,1.9573,0.5116,1.0882,0.0163,0.3717,-0.1779,2.9666,0.9857,1.6337,-0.1221
0.1844,0.1165,-0.3082,-0.0714,1.1638,0.7493,1.7988,0.5676,1.0549,0.0281,0.376,-0.1841,2.9034,1.0231,1.644,-0.1089
0.1844,0.1165,-0.3082,-0.0714,1.1638,0.7493,1.7988,0.5676,1.0549,0.0281,0.376,-0.1841,2.9034,1.0231,1.644,-0.1089
0.1844,0.1165,-0.3082,-0.0714,1.1638,0.7493,1.7988,0.5676,1.0549,0.0281,0.376,-0.1841,2.9034,1.0231,1.644,-0.1089
0.2043,0.0558,-0.2724,-0.09,1.0971,0.754,1.6805,0.6094,1.2001,-0.036,0.3802,-0.1902,2.5748,1.2297,1.6027,-0.0774
0.2043,0.0558,-0.2724,-0.09,1.0971,0.754,1.6805,0.6094,1.2001,-0.036,0.3802,-0.1902,2.5748,1.2297,1.6027,-0.0774
0.2731,0.0208,-0.2943,-0.0583,1.0971,0.754,1.7476,0.5985,1.3343,-0.0834,0.4048,-0.1942,2.5748,1.2297,1.6207,-0.0754
0.2731,0.0208,-0.2943,-0.0583,1.0971,0.754,1.7476,0.5985,1.3343,-0.0834,0.4048,-0.1942,2.5748,1.2297,1.6207,-0.0754
0.3224,0.0141,-0.3108,-0.0346,1.0971,0.754,1.8266,0.5706,1.4017,-0.1072,0.4048,-0.1942,2.4912,1.2441,1.706,-0.1139
0.3718,0.0073,-0.3273,-0.0108,1.1164,0.7566,1.8824,0.5764,1.3549,-0.0397,0.4251,-0.1921,2.505,1.2241,1.828,-0.1486
0.3718,0.0073,-0.3273,-0.0108,1.1164,0.7566,1.8824,0.5764,1.3549,-0.0397,0.4251,-0.1921,2.505,1.2241,1.828,-0.1486
0.4016,0.029,-0.3232,-0.0003,1.2007,0.7268,1.9103,0.5793,1.3079,0.0281,0.431,-0.1849,2.4703,1.2212,1.8723,-0.1558
0.4016,0.029,-0.3232,-0.0003,1.2007,0.7268,1.9103,0.5793,1.3079,0.0281,0.431,-0.1849,2.4703,1.2212,1.8723,-0.1558
0.4016,0.029,-0.3232,-0.0003,1.2007,0.7268,1.9103,0.5793,1.3079,0.0281,0.431,-0.1849,2.4703,1.2212,1.8723,-0.1558
0.3719,0.0718,-0.308,-0.0056,1.3048,0.6995,1.9148,0.6162,1.2388,0.091,0.4267,-0.1788,2.5466,1.1642,1.849,-0.1221
0.3719,0.0718,-0.308,-0.0056,1.3048,0.6995,1.9148,0.6162,1.2388,0.091,0.4267,-0.1788,2.5466,1.1642,1.849,-0.1221
0.362,0.0861,-0.308,-0.0056,1.3048,0.6995,1.903,0.6333,1.1497,0.1096,0.4454,-0.19,2.4909,1.1388,1.7813,-0.0813
0.3918,0.0756,-0.2721,-0.0243,1.2873,0.7247,1.903,0.6333,1.1063,0.0993,0.4642,-0.2013,2.47,1.1162,1.7215,-0.0517
0.3918,0.0756,-0.2721,-0.0243,1.2873,0.7247,1.903,0.6333,1.1063,0.0993,0.4642,-0.2013,2.47,1.1162,1.7215,-0.0517
0.4514,0.0545,-0.2569,-0.0297,1.1939,0.7672,1.903,0.6333,1.1298,0.0654,0.4744,-0.2002,2.4837,1.0964,1.6619,-0.0221
0.4514,0.0545,-0.2569,-0.0297,1.1939,0.7672,1.903,0.6333,1.1298,0.0654,0.4744,-0.2002,2.4837,1.0964,1.6619,-0.0221
0.4514,0.0545,-0.2569,-0.0297,1.1939,0.7672,1.903,0.6333,1.1298,0.0654,0.4744,-0.2002,2.4837,1.0964,1.6619,-0.0221
0.521,0.0191,-0.2417,-0.0351,1.1464,0.7745,1.9428,0.6192,1.175,0.0366,0.4573,-0.1756,2.5184,1.0991,1.6541,-0.0108
0.521,0.0191,-0.2417,-0.0351,1.1464,0.7745,1.9428,0.6192,1.175,0.0366,0.4573,-0.1756,2.5184,1.0991,1.6541,-0.0108
0.521,0.0191,-0.2417,-0.0351,1.1464,0.7745,1.9428,0.6192,1.175,0.0366,0.4573,-0.1756,2.5184,1.0991,1.6541,-0.0108
0.521,0.0191,-0.2472,-0.0271,1.0709,0.7917,1.9945,0.5881,1.1868,0.0197,0.4257,-0.1458,2.5184,1.0991,1.68,-0.02
0.521,0.0191,-0.2472,-0.0271,1.0709,0.7917,1.9945,0.5881,1.1868,0.0197,0.4257,-0.1458,2.5184,1.0991,1.68,-0.02
0.4415,0.1012,-0.2679,-0.0138,1.0585,0.7486,2.1029,0.5626,1.175,0.0366,0.4069,-0.1345,2.7344,1.0527,1.7319,-0.0383
0.4415,0.1012,-0.2679,-0.0138,1.0585,0.7486,2.1029,0.5626,1.175,0.0366,0.4069,-0.1345,2.7344,1.0527,1.7319,-0.0383
0.4117,0.1118,-0.2679,-0.0138,1.0566,0.7209,1.9991,0.625,1.165,0.0146,0.4053,-0.1479,2.8462,0.9982,1.7137,-0.0404
0.4117,0.1118,-0.2679,-0.0138,1.0566,0.7209,1.9991,0.625,1.165,0.0146,0.4053,-0.1479,2.8462,0.9982,1.7137,-0.0404
0.4117,0.1118,-0.2679,-0.0138,1.0566,0.7209,1.9991,0.625,1.165,0.0146,0.4053,-0.1479,2.8462,0.9982,1.7137,-0.0404
0.3026,0.1071,-0.2763,-0.0348,1.0163,0.688,1.788,0.7125,1.1433,0.0096,0.4037,-0.1613,2.9092,0.961,1.7059,-0.0291
0.3026,0.1071,-0.2763,-0.0348,1.0163,0.688,1.788,0.7125,1.1433,0.0096,0.4037,-0.1613,2.9092,0.961,1.7059,-0.0291
0.3026,0.1071,-0.2763,-0.0348,1.0163,0.688,1.788,0.7125,1.1433,0.0096,0.4037,-0.1613,2.9092,0.961,1.7059,-0.0291
0.1943,0.1022,-0.2598,-0.0586,0.9675,0.6677,1.6416,0.7514,1.045,0.0061,0.3776,-0.1707,2.7756,0.9932,1.6697,-0.0333
0.1943,0.1022,-0.2598,-0.0586,0.9675,0.6677,1.6416,0.7514,1.045,0.0061,0.3776,-0.1707,2.7756,0.9932,1.6697,-0.0333
0.1943,0.1022,-0.2598,-0.0586,0.9675,0.6677,1.6416,0.7514,1.045,0.0061,0.3776,-0.1707,2.7756,0.9932,1.6697,-0.0333
0.1455,0.0766,-0.2998,-0.0504,0.9017,0.6722,1.5315,0.7388,1.1581,-0.0845,0.3371,-0.175,2.4909,1.1388,1.5999,-0.0172
0.1455,0.0766,-0.2998,-0.0504,0.9017,0.6722,1.5315,0.7388,1.1581,-0.0845,0.3371,-0.175,2.4909,1.1388,1.5999,-0.0172
0.1651,0.0482,-0.3617,-0.0106,0.874,0.6819,1.4886,0.7156,1.2365,-0.1249,0.3083,-0.1648,2.4424,1.1559,1.5999,-0.0172
0.1651,0.0482,-0.3617,-0.0106,0.874,0.6819,1.4886,0.7156,1.2365,-0.1249,0.3083,-0.1648,2.4424,1.1559,1.5999,-0.0172
0.175,0.034,-0.3934,0.0185,0.874,0.6819,1.5394,0.6848,1.2031,-0.1131,0.2839,-0.1608,2.3734,1.1503,1.6516,-0.0354
0.175,0.034,-0.3934,0.0185,0.874,0.6819,1.5394,0.6848,1.2031,-0.1131,0.2839,-0.1608,2.3734,1.1503,1.6516,-0.0354
0.2044,0.0237,-0.414,0.0318,0.8931,0.6846,1.6178,0.6571,1.1349,-0.051,0.2839,-0.1608,2.3871,1.1305,1.7891,-0.0925
0.2044,0.0237,-0.414,0.0318,0.8931,0.6846,1.6178,0.6571,1.1349,-0.051,0.2839,-0.1608,2.3871,1.1305,1.7891,-0.0925
0.2534,0.017,-0.4099,0.0424,0.9416,0.705,1.7636,0.6184,1.0882,0.0163,0.2998,-0.1525,2.4837,1.0964,1.8856,-0.1181
0.2534,0.017,-0.4099,0.0424,0.9416,0.705,1.7636,0.6184,1.0882,0.0163,0.2998,-0.1525,2.4837,1.0964,1.8856,-0.1181
0.283,0.0387,-0.3755,0.0422,1.1019,0.686,1.8868,0.6133,1.0512,0.106,0.3503,-0.1471,2.6505,1.0674,1.9591,-0.1101
0.283,0.0387,-0.3755,0.0422,1.1019,0.686,1.8868,0.6133,1.0512,0.106,0.3503,-0.1471,2.6505,1.0674,1.9591,-0.1101
0.3224,0.0462,-0.3259,0.0367,1.2442,0.6641,1.9428,0.6192,1.0493,0.1451,0.3968,-0.1356,2.7206,1.0726,1.9568,-0.0496
0.3224,0.0462,-0.3259,0.0367,1.2442,0.6641,1.9428,0.6192,1.0493,0.1451,0.3968,-0.1356,2.7206,1.0726,1.9568,-0.0496
0.3521,0.068,-0.272,0.0418,1.3331,0.6895,1.9754,0.6592,1.0276,0.1399,0.4707,-0.1477,2.6855,1.07,1.8728,0.0144
0.3521,0.068,-0.272,0.0418,1.3331,0.6895,1.9754,0.6592,1.0276,0.1399,0.4707,-0.1477,2.6855,1.07,1.8728,0.0144
0.4415,0.0688,-0.1873,0.036,1.3766,0.7504,2.0482,0.6852,1.0512,0.106,0.5655,-0.1578,2.6441,1.1297,1.8675,0.0506
0.4415,0.0688,-0.1873,0.036,1.3766,0.7504,2.0482,0.6852,1.0512,0.106,0.5655,-0.1578,2.6441,1.1297,1.8675,0.0506
0.6013,0.0339,-0.1371,0.0303,1.3611,0.8037,2.0526,0.7226,1.1515,0.0705,0.6229,-0.1453,2.6514,1.1723,1.8701,0.0755
0.6013,0.0339,-0.1371,0.0303,1.3611,0.8037,2.0526,0.7226,1.1515,0.0705,0.6229,-0.1453,2.6514,1.1723,1.8701,0.0755
0.7524,0.013,-0.0924,0.0326,1.3542,0.8446,2.1498,0.7143,1.286,0.023,0.6468,-0.1162,2.6237,1.2124,1.9332,0.0704
0.8235,0.0096,-0.0531,0.043,1.3828,0.8345,2.2883,0.6914,1.399,-0.0297,0.6502,-0.0891,2.6237,1.2124,2.031,0.0445
0.8235,0.0096,-0.0531,0.043,1.3828,0.8345,2.2883,0.6914,1.399,-0.0297,0.6502,-0.0891,2.6237,1.2124,2.031,0.0445
0.7935,0.0528,-0.0432,0.0456,1.3631,0.8318,2.4398,0.651,1.4432,-0.0197,0.6519,-0.0756,2.7078,1.1978,2.1027,0.0278
0.7935,0.0528,-0.0432,0.0456,1.3631,0.8318,2.4398,0.651,1.4432,-0.0197,0.6519,-0.0756,2.7078,1.1978,2.1027,0.0278
0.7534,0.1106,-0.0488,0.0536,1.3522,0.8164,2.4688,0.6538,1.4536,0.0022,0.6329,-0.0641,2.8557,1.1456,2.0948,0.0392
0.7534,0.1106,-0.0488,0.0536,1.3522,0.8164,2.4688,0.6538,1.4536,0.0022,0.6329,-0.0641,2.8557,1.1456,2.0948,0.0392
0.7534,0.1106,-0.0488,0.0536,1.3522,0.8164,2.4688,0.6538,1.4536,0.0022,0.6329,-0.0641,2.8557,1.1456,2.0948,0.0392
0.7534,0.1106,-0.0488,0.0536,1.3522,0.8164,2.4688,0.6538,1.4536,0.0022,0.6329,-0.0641,2.8557,1.1456,2.0948,0.0392
0.6422,0.139,-0.0629,0.0404,1.3022,0.7958,2.3868,0.6828,1.4758,0.0073,0.6225,-0.0652,3.0184,1.0729,2.0789,0.0622
0.6422,0.139,-0.0629,0.0404,1.3022,0.7958,2.3868,0.6828,1.4758,0.0073,0.6225,-0.0652,3.0184,1.0729,2.0789,0.0622
0.5115,0.1307,-0.0098,-0.0026,1.2309,0.7447,2.1424,0.7691,1.4418,0.0193,0.6339,-0.0975,2.9687,1.0905,1.9993,0.0903
0.5115,0.1307,-0.0098,-0.0026,1.2309,0.7447,2.1424,0.7691,1.4418,0.0193,0.6339,-0.0975,2.9687,1.0905,1.9993,0.0903
0.5515,0.1057,0.0155,-0.0055,1.2027,0.7546,2.1019,0.7835,1.5099,-0.0048,0.6572,-0.1151,2.8278,1.1858,1.9728,0.0996
0.5515,0.1057,0.0155,-0.0055,1.2027,0.7546,2.1019,0.7835,1.5099,-0.0048,0.6572,-0.1151,2.8278,1.1858,1.9728,0.0996
0.5515,0.1057,0.0155,-0.0055,1.2027,0.7546,2.1019,0.7835,1.5099,-0.0048,0.6572,-0.1151,2.8278,1.1858,1.9728,0.0996
0.5816,0.0951,0.0087,0.0212,1.2221,0.7573,2.1019,0.7835,1.6123,-0.041,0.6762,-0.1265,2.7291,1.2206,1.9993,0.0903
0.5816,0.0951,0.0087,0.0212,1.2221,0.7573,2.1019,0.7835,1.6123,-0.041,0.6762,-0.1265,2.7291,1.2206,1.9993,0.0903
0.5917,0.1133,-0.0038,0.0559,1.2611,0.7625,2.1709,0.7721,1.6229,-0.019,0.6718,-0.1203,2.6309,1.2554,2.0868,0.0507
0.6019,0.1315,-0.0051,0.0746,1.3657,0.7351,2.2402,0.7608,1.5873,0.0323,0.6718,-0.1203,2.5608,1.2497,2.14,0.0319
0.6019,0.1315,-0.0051,0.0746,1.3657,0.7351,2.2402,0.7608,1.5873,0.0323,0.6718,-0.1203,2.5608,1.2497,2.14,0.0319
0.5918,0.1459,-0.0107,0.0827,1.4511,0.705,2.281,0.7464,1.5516,0.0837,0.6718,-0.1203,2.5748,1.2297,2.1587,0.0339
0.5918,0.1459,-0.0107,0.0827,1.4511,0.705,2.281,0.7464,1.5516,0.0837,0.6718,-0.1203,2.5748,1.2297,2.1587,0.0339
0.602,0.1642,0.0203,0.0718,1.5565,0.6772,2.2977,0.7667,1.4729,0.0857,0.6555,-0.1286,2.5466,1.1642,2.0709,0.0736
0.602,0.1642,0.0203,0.0718,1.5565,0.6772,2.2977,0.7667,1.4729,0.0857,0.6555,-0.1286,2.5466,1.1642,2.0709,0.0736
0.602,0.1642,0.0203,0.0718,1.5565,0.6772,2.2977,0.7667,1.4729,0.0857,0.6555,-0.1286,2.5466,1.1642,2.0709,0.0736
0.612,0.1497,0.0104,0.0692,1.5478,0.6899,2.2977,0.7667,1.3283,0.0722,0.6581,-0.1484,2.4216,1.1333,1.9543,0.0975
0.612,0.1497,0.0104,0.0692,1.5478,0.6899,2.2977,0.7667,1.3283,0.0722,0.6581,-0.1484,2.4216,1.1333,1.9543,0.0975
0.612,0.1497,0.0216,0.053,1.473,0.7354,2.3098,0.7493,1.2624,0.057,0.671,-0.167,2.4009,1.1107,1.891,0.1026
0.612,0.1497,0.0216,0.053,1.473,0.7354,2.3098,0.7493,1.2624,0.057,0.671,-0.167,2.4009,1.1107,1.891,0.1026
0.612,0.1497,0.0216,0.053,1.473,0.7354,2.3098,0.7493,1.2624,0.057,0.671,-0.167,2.4009,1.1107,1.891,0.1026
0.6623,0.1101,-0.0248,0.0694,1.3787,0.7783,2.2523,0.7434,1.2523,0.0349,0.6521,-0.1556,2.4146,1.091,1.8542,0.0983
0.6623,0.1101,-0.0248,0.0694,1.3787,0.7783,2.2523,0.7434,1.2523,0.0349,0.6521,-0.1556,2.4146,1.091,1.8542,0.0983
0.6623,0.1101,-0.0248,0.0694,1.3787,0.7783,2.2523,0.7434,1.2523,0.0349,0.6521,-0.1556,2.4146,1.091,1.8542,0.0983
0.7225,0.0562,-0.0599,0.0697,1.2914,0.7805,2.3579,0.6799,1.2977,0.0061,0.5927,-0.1017,2.4354,1.1135,1.7992,0.0919
0.7225,0.0562,-0.0599,0.0697,1.2914,0.7805,2.3579,0.6799,1.2977,0.0061,0.5927,-0.1017,2.4354,1.1135,1.7992,0.0919
0.7025,0.085,-0.0754,0.0751,1.3002,0.7678,2.4808,0.6365,1.2977,0.0061,0.5824,-0.1028,2.4837,1.0964,1.815,0.0691
0.7025,0.085,-0.0754,0.0751,1.3002,0.7678,2.4808,0.6365,1.2977,0.0061,0.5824,-0.1028,2.4837,1.0964,1.815,0.0691
0.7025,0.085,-0.0754,0.0751,1.3002,0.7678,2.4808,0.6365,1.2977,0.0061,0.5824,-0.1028,2.4837,1.0964,1.815,0.0691
0.622,0.1352,-0.0796,0.0645,1.2981,0.7399,2.4808,0.6365,1.2758,0.001,0.5515,-0.106,2.643,1.0252,1.8125,0.0442
0.622,0.1352,-0.0796,0.0645,1.2981,0.7399,2.4808,0.6365,1.2758,0.001,0.5515,-0.106,2.643,1.0252,1.8125,0.0442
0.622,0.1352,-0.0796,0.0645,1.2981,0.7399,2.4808,0.6365,1.2758,0.001,0.5515,-0.106,2.643,1.0252,1.8125,0.0442
0.4116,0.1769,-0.1231,0.0435,1.2268,0.6892,2.207,0.7202,1.2102,-0.0141,0.4944,-0.1186,2.8794,0.897,1.7473,0.0244
0.4116,0.1769,-0.1231,0.0435,1.2268,0.6892,2.207,0.7202,1.2102,-0.0141,0.4944,-0.1186,2.8794,0.897,1.7473,0.0244
0.2926,0.1538,-0.1358,0.0117,1.0653,0.7084,2.0004,0.754,1.1549,-0.0073,0.4637,-0.1219,2.8168,0.934,1.7031,0.0315
0.2926,0.1538,-0.1358,0.0117,1.0653,0.7084,2.0004,0.754,1.1549,-0.0073,0.4637,-0.1219,2.8168,0.934,1.7031,0.0315
0.2138,0.1384,-0.1137,-0.0202,0.9799,0.7103,1.904,0.7621,1.1433,0.0096,0.4723,-0.1342,2.7267,1.0105,1.6771,0.0407
0.2138,0.1384,-0.1137,-0.0202,0.9799,0.7103,1.904,0.7621,1.1433,0.0096,0.4723,-0.1342,2.7267,1.0105,1.6771,0.0407
0.2336,0.1099,-0.1137,-0.0202,0.9521,0.7201,1.876,0.759,1.2773,-0.0378,0.4825,-0.1332,2.6229,1.1071,1.6952,0.0428
0.2336,0.1099,-0.1137,-0.0202,0.9521,0.7201,1.876,0.759,1.2773,-0.0378,0.4825,-0.1332,2.6229,1.1071,1.6952,0.0428
0.3027,0.0747,-0.1205,0.0063,1.0095,0.7281,1.9441,0.748,1.4004,-0.0685,0.5132,-0.13,2.5466,1.1642,1.7395,0.0358
0.3818,0.0575,-0.1231,0.0435,1.0672,0.7361,2.0407,0.7398,1.5347,-0.0777,0.5747,-0.1236,2.6025,1.1896,1.8833,0.0278
0.3818,0.0575,-0.1231,0.0435,1.0672,0.7361,2.0407,0.7398,1.5347,-0.0777,0.5747,-0.1236,2.6025,1.1896,1.8833,0.0278
0.4415,0.0688,-0.1104,0.0754,1.192,0.7394,2.1379,0.7316,1.6005,-0.0239,0.6425,-0.11,2.6727,1.1951,2.0441,-0.0032
0.4415,0.0688,-0.1104,0.0754,1.192,0.7394,2.1379,0.7316,1.6005,-0.0239,0.6425,-0.11,2.6727,1.1951,2.0441,-0.0032
0.5414,0.0876,-0.0669,0.0965,1.3744,0.7225,2.293,0.729,1.6546,0.0473,0.7003,-0.0974,2.7431,1.2005,2.1372,0.007
0.5414,0.0876,-0.0669,0.0965,1.3744,0.7225,2.293,0.729,1.6546,0.0473,0.7003,-0.0974,2.7431,1.2005,2.1372,0.007
0.5414,0.0876,-0.0669,0.0965,1.3744,0.7225,2.293,0.729,1.6546,0.0473,0.7003,-0.0974,2.7431,1.2005,2.1372,0.007
0.5917,0.1133,-0.0373,0.1043,1.539,0.7026,2.3386,0.7523,1.6427,0.0645,0.7374,-0.0869,2.8418,1.1657,2.1348,0.0684
0.5917,0.1133,-0.0373,0.1043,1.539,0.7026,2.3386,0.7523,1.6427,0.0645,0.7374,-0.0869,2.8418,1.1657,2.1348,0.0684
0.6623,0.1101,0.0078,0.1067,1.5987,0.7102,2.3844,0.7756,1.5516,0.0837,0.7921,-0.1015,2.8341,1.1229,2.0656,0.1102
0.6925,0.0994,0.0543,0.0902,1.5523,0.7457,2.3554,0.7726,1.5859,0.0716,0.8722,-0.1203,2.8341,1.1229,2.0576,0.1217
0.6925,0.0994,0.0543,0.0902,1.5523,0.7457,2.3554,0.7726,1.5859,0.0716,0.8722,-0.1203,2.8341,1.1229,2.0576,0.1217
0.8039,0.071,0.0953,0.0818,1.4773,0.7914,2.3554,0.7726,1.6322,0.0423,0.8975,-0.1245,2.7848,1.1403,2.0311,0.1311
0.8039,0.071,0.0953,0.0818,1.4773,0.7914,2.3554,0.7726,1.6322,0.0423,0.8975,-0.1245,2.7848,1.1403,2.0311,0.1311
0.8039,0.071,0.0953,0.0818,1.4773,0.7914,2.3554,0.7726,1.6322,0.0423,0.8975,-0.1245,2.7848,1.1403,2.0311,0.1311
0.8954,0.0387,0.1109,0.0763,1.4201,0.8117,2.3965,0.7581,1.6665,0.0302,0.8906,-0.0984,2.8202,1.1429,2.0311,0.1311
0.8954,0.0387,0.1109,0.0763,1.4201,0.8117,2.3965,0.7581,1.6665,0.0302,0.8906,-0.0984,2.8202,1.1429,2.0311,0.1311
0.9259,0.0279,0.0798,0.0873,1.3326,0.8138,2.4206,0.7233,1.6771,0.0524,0.8731,-0.0732,2.8063,1.163,2.0576,0.1217
0.9264,0.0605,0.0841,0.098,1.2934,0.8085,2.5441,0.6796,1.7103,0.0796,0.8793,-0.0659,2.8418,1.1657,2.0843,0.1123
0.9264,0.0605,0.0841,0.098,1.2934,0.8085,2.5441,0.6796,1.7103,0.0796,0.8793,-0.0659,2.8418,1.1657,2.0843,0.1123
0.825,0.1401,0.0586,0.1009,1.2914,0.7805,2.5855,0.665,1.6984,0.0969,0.8644,-0.0606,2.9905,1.1131,2.1189,0.0914
0.825,0.1401,0.0586,0.1009,1.2914,0.7805,2.5855,0.665,1.6984,0.0969,0.8644,-0.0606,2.9905,1.1131,2.1189,0.0914
0.7539,0.1762,0.0487,0.0983,1.309,0.7552,2.5321,0.697,1.6984,0.0969,0.8688,-0.0669,3.1402,1.0602,2.1456,0.0819
0.7539,0.1762,0.0487,0.0983,1.309,0.7552,2.5321,0.697,1.6984,0.0969,0.8688,-0.0669,3.1402,1.0602,2.1456,0.0819
0.7539,0.1762,0.0487,0.0983,1.309,0.7552,2.5321,0.697,1.6984,0.0969,0.8688,-0.0669,3.1402,1.0602,2.1456,0.0819
0.6423,0.1718,0.0457,0.0689,1.2961,0.7121,2.3386,0.7523,1.6758,0.0918,0.8775,-0.0795,3.2683,0.9846,2.1456,0.0819
0.6423,0.1718,0.0457,0.0689,1.2961,0.7121,2.3386,0.7523,1.6758,0.0918,0.8775,-0.0795,3.2683,0.9846,2.1456,0.0819
0.5717,0.1421,0.0737,0.0286,1.2355,0.6766,2.1303,0.7865,1.6533,0.0868,0.9054,-0.1036,3.2181,1.0024,2.1269,0.0799
0.5717,0.1421,0.0737,0.0286,1.2355,0.6766,2.1303,0.7865,1.6533,0.0868,0.9054,-0.1036,3.2181,1.0024,2.1269,0.0799
0.4815,0.1413,0.1214,-0.0065,1.2161,0.674,2.0331,0.7947,1.6427,0.0645,0.9036,-0.1172,3.0264,1.1156,2.0816,0.0872
0.4815,0.1413,0.1214,-0.0065,1.2161,0.674,2.0331,0.7947,1.6427,0.0645,0.9036,-0.1172,3.0264,1.1156,2.0816,0.0872
0.4915,0.1269,0.1525,-0.0175,1.1987,0.6991,2.0451,0.7774,1.6997,0.0574,0.908,-0.1235,2.9564,1.2166,2.1002,0.0893
0.4915,0.1269,0.1525,-0.0175,1.1987,0.6991,2.0451,0.7774,1.6997,0.0574,0.908,-0.1235,2.9564,1.2166,2.1002,0.0893
0.5314,0.102,0.1525,-0.0175,1.19,0.7116,2.0571,0.7601,1.8153,0.0035,0.887,-0.1256,2.8147,1.3126,2.055,0.0966
0.5314,0.102,0.1525,-0.0175,1.19,0.7116,2.0571,0.7601,1.8153,0.0035,0.887,-0.1256,2.8147,1.3126,2.055,0.0966
0.5915,0.0807,0.1103,0.0095,1.1813,0.7242,2.069,0.7428,1.8966,-0.0381,0.8574,-0.1151,2.7297,1.3272,2.0629,0.0851
0.5915,0.0807,0.1103,0.0095,1.1813,0.7242,2.069,0.7428,1.8966,-0.0381,0.8574,-0.1151,2.7297,1.3272,2.0629,0.0851
0.672,0.0631,0.0513,0.0608,1.2007,0.7268,2.1214,0.7113,1.9085,-0.0553,0.8364,-0.1171,2.624,1.3187,2.1054,0.0528
0.672,0.0631,0.0513,0.0608,1.2007,0.7268,2.1214,0.7113,1.9085,-0.0553,0.8364,-0.1171,2.624,1.3187,2.1054,0.0528
0.6923,0.0669,0.0246,0.0824,1.2288,0.7169,2.1903,0.7,1.85,-0.0087,0.8112,-0.113,2.666,1.2581,2.2121,0.0151
0.6923,0.0669,0.0246,0.0824,1.2288,0.7169,2.1903,0.7,1.85,-0.0087,0.8112,-0.113,2.666,1.2581,2.2121,0.0151
0.6823,0.0813,0.0048,0.0772,1.294,0.6844,2.2429,0.6684,1.7795,0.0552,0.7904,-0.115,2.8063,1.163,2.2468,-0.0058
0.6823,0.0813,0.0048,0.0772,1.294,0.6844,2.2429,0.6684,1.7795,0.0552,0.7904,-0.115,2.8063,1.163,2.2468,-0.0058
0.6319,0.0882,-0.0347,0.0668,1.3483,0.6368,2.1976,0.6454,1.6997,0.0574,0.7635,-0.1244,2.7772,1.0977,2.1667,0.0225
0.6319,0.0882,-0.0347,0.0668,1.3483,0.6368,2.1976,0.6454,1.6997,0.0574,0.7635,-0.1244,2.7772,1.0977,2.1667,0.0225
0.6319,0.0882,-0.0347,0.0668,1.3483,0.6368,2.1976,0.6454,1.6997,0.0574,0.7635,-0.1244,2.7772,1.0977,2.1667,0.0225
0.5816,0.0951,-0.0531,0.043,1.3374,0.6217,2.1003,0.6539,1.5189,0.0565,0.7496,-0.1525,2.6155,1.0648,1.9966,0.0653
0.5816,0.0951,-0.0531,0.043,1.3374,0.6217,2.1003,0.6539,1.5189,0.0565,0.7496,-0.1525,2.6155,1.0648,1.9966,0.0653
0.5816,0.0951,-0.0531,0.043,1.3374,0.6217,2.1003,0.6539,1.5189,0.0565,0.7496,-0.1525,2.6155,1.0648,1.9966,0.0653
0.6015,0.0663,-0.0911,0.014,1.2181,0.7017,2.0036,0.6622,1.3858,0.0262,0.734,-0.1939,2.4765,1.0542,1.8517,0.0734
0.7119,0.0057,-0.1149,-0.0017,1.1251,0.744,1.9472,0.6562,1.4315,-0.0028,0.7132,-0.196,2.4419,1.0515,1.8071,0.0805
0.7119,0.0057,-0.1149,-0.0017,1.1251,0.744,1.9472,0.6562,1.4315,-0.0028,0.7132,-0.196,2.4419,1.0515,1.8071,0.0805
0.7922,-0.0443,-0.1345,-0.0068,1.1145,0.7288,1.8912,0.6503,1.4654,-0.0148,0.6693,-0.1804,2.4419,1.0515,1.8229,0.0577
0.7922,-0.0443,-0.1345,-0.0068,1.1145,0.7288,1.8912,0.6503,1.4654,-0.0148,0.6693,-0.1804,2.4419,1.0515,1.8229,0.0577
0.762,-0.0336,-0.1596,-0.004,1.0952,0.7262,1.9827,0.6051,1.4994,-0.0268,0.6212,-0.1588,2.4556,1.0318,1.8308,0.0464
0.762,-0.0336,-0.1596,-0.004,1.0952,0.7262,1.9827,0.6051,1.4994,-0.0268,0.6212,-0.1588,2.4556,1.0318,1.8308,0.0464
0.762,-0.0336,-0.1596,-0.004,1.0952,0.7262,1.9827,0.6051,1.4994,-0.0268,0.6212,-0.1588,2.4556,1.0318,1.8308,0.0464
0.7019,0.02,-0.1694,-0.0065,1.0759,0.7236,2.1147,0.5456,1.4772,-0.0317,0.5714,-0.1505,2.4211,1.0292,1.8204,0.0329
0.7019,0.02,-0.1694,-0.0065,1.0759,0.7236,2.1147,0.5456,1.4772,-0.0317,0.5714,-0.1505,2.4211,1.0292,1.8204,0.0329
0.7019,0.02,-0.1694,-0.0065,1.0759,0.7236,2.1147,0.5456,1.4772,-0.0317,0.5714,-0.1505,2.4211,1.0292,1.8204,0.0329
0.6017,0.0989,-0.1694,-0.0065,1.0846,0.711,2.1951,0.5172,1.5217,-0.0218,0.5817,-0.1495,2.5521,0.9977,1.857,0.0371
0.6017,0.0989,-0.1694,-0.0065,1.0846,0.711,2.1951,0.5172,1.5217,-0.0218,0.5817,-0.1495,2.5521,0.9977,1.857,0.0371
0.5115,0.1307,-0.1694,-0.0065,1.1212,0.6886,2.0792,0.5967,1.5992,0.0152,0.6375,-0.1505,2.9503,0.9017,1.9148,0.0683
0.5115,0.1307,-0.1694,-0.0065,1.1212,0.6886,2.0792,0.5967,1.5992,0.0152,0.6375,-0.1505,2.9503,0.9017,1.9148,0.0683
0.5115,0.1307,-0.1694,-0.0065,1.1212,0.6886,2.0792,0.5967,1.5992,0.0152,0.6375,-0.1505,2.9503,0.9017,1.9148,0.0683
0.4515,0.1193,-0.1235,-0.0228,1.1106,0.6735,1.9472,0.6562,1.6322,0.0423,0.7081,-0.1566,3.0573,0.9087,1.9702,0.0746
0.4515,0.1193,-0.1235,-0.0228,1.1106,0.6735,1.9472,0.6562,1.6322,0.0423,0.7081,-0.1566,3.0573,0.9087,1.9702,0.0746
0.4515,0.1193,-0.1235,-0.0228,1.1106,0.6735,1.9472,0.6562,1.6322,0.0423,0.7081,-0.1566,3.0573,0.9087,1.9702,0.0746
0.4615,0.105,-0.0468,-0.0499,1.1299,0.6762,1.8675,0.6844,1.7116,0.0402,0.779,-0.1629,3.038,0.9905,2.0258,0.0809
0.5714,0.077,0.0345,-0.0665,1.1686,0.6814,1.9354,0.6733,1.7568,0.0502,0.8293,-0.1713,2.933,1.088,2.0099,0.1039
0.672,0.0631,0.0698,-0.0669,1.1987,0.6991,1.9472,0.6562,1.8717,0.0356,0.865,-0.1744,2.8278,1.1858,2.0284,0.106
0.672,0.0631,0.0698,-0.0669,1.1987,0.6991,1.9472,0.6562,1.8717,0.0356,0.865,-0.1744,2.8278,1.1858,2.0284,0.106
0.672,0.0631,0.0698,-0.0669,1.1987,0.6991,1.9472,0.6562,1.8717,0.0356,0.865,-0.1744,2.8278,1.1858,2.0284,0.106
0.7731,0.0492,0.0587,-0.051,1.2463,0.6917,1.9872,0.6421,2.0462,-0.026,0.8946,-0.1849,2.7012,1.2609,2.0364,0.0945
0.7731,0.0492,0.0587,-0.051,1.2463,0.6917,1.9872,0.6421,2.0462,-0.026,0.8946,-0.1849,2.7012,1.2609,2.0364,0.0945
0.8444,0.0458,0.0254,-0.0029,1.257,0.7069,2.0273,0.628,2.1515,-0.0632,0.8903,-0.1787,2.666,1.2581,2.0364,0.0945
0.8444,0.0458,0.0254,-0.0029,1.257,0.7069,2.0273,0.628,2.1515,-0.0632,0.8903,-0.1787,2.666,1.2581,2.0364,0.0945
0.8243,0.0747,-0.0179,0.0427,1.257,0.7069,2.0391,0.6109,2.2106,-0.1102,0.8859,-0.1724,2.5958,1.2526,2.0789,0.0622
0.8243,0.0747,-0.0179,0.0427,1.257,0.7069,2.0391,0.6109,2.2106,-0.1102,0.8859,-0.1724,2.5958,1.2526,2.0789,0.0622
0.8548,0.0639,-0.0711,0.0858,1.257,0.7069,2.0792,0.5967,2.1874,-0.1149,0.8564,-0.162,2.5748,1.2297,2.14,0.0319
0.8548,0.0639,-0.0711,0.0858,1.257,0.7069,2.0792,0.5967,2.1874,-0.1149,0.8564,-0.162,2.5748,1.2297,2.14,0.0319
0.8043,0.1036,-0.0921,0.0993,1.2288,0.7169,2.0792,0.5967,2.1052,-0.0729,0.8416,-0.1567,2.5815,1.1669,2.2013,0.0016
0.8043,0.1036,-0.0921,0.0993,1.2288,0.7169,2.0792,0.5967,2.1052,-0.0729,0.8416,-0.1567,2.5815,1.1669,2.2013,0.0016
0.7942,0.1181,-0.1019,0.0967,1.2007,0.7268,2.1596,0.5683,1.9643,0.016,0.8311,-0.1578,2.5742,1.1243,2.2359,-0.0193
0.7942,0.1181,-0.1019,0.0967,1.2007,0.7268,2.1596,0.5683,1.9643,0.016,0.8311,-0.1578,2.5742,1.1243,2.2359,-0.0193
0.8046,0.1364,-0.0852,0.0725,1.257,0.7069,2.1999,0.5541,1.9042,0.1026,0.8311,-0.1578,2.588,1.1045,2.2547,-0.0173
0.8046,0.1364,-0.0852,0.0725,1.257,0.7069,2.1999,0.5541,1.9042,0.1026,0.8311,-0.1578,2.588,1.1045,2.2547,-0.0173
0.764,0.1617,-0.0783,0.0458,1.3505,0.6644,2.2118,0.537,1.8089,0.2019,0.812,-0.1463,2.6018,1.0846,2.2815,-0.0267
0.764,0.1617,-0.0783,0.0458,1.3505,0.6644,2.2118,0.537,1.8089,0.2019,0.812,-0.1463,2.6018,1.0846,2.2815,-0.0267
0.7436,0.1579,-0.077,0.0272,1.4356,0.6344,2.2118,0.537,1.7377,0.2667,0.8016,-0.1473,2.6155,1.0648,2.2468,-0.0058
0.7436,0.1579,-0.077,0.0272,1.4356,0.6344,2.2118,0.537,1.7377,0.2667,0.8016,-0.1473,2.6155,1.0648,2.2468,-0.0058
0.7741,0.1471,-0.0659,0.0112,1.5867,0.5715,2.1715,0.5513,1.7029,0.279,0.7955,-0.1546,2.6779,1.0278,2.2229,0.0286
0.7741,0.1471,-0.0659,0.0112,1.5867,0.5715,2.1715,0.5513,1.7029,0.279,0.7955,-0.1546,2.6779,1.0278,2.2229,0.0286
0.7333,0.1396,-0.0535,-0.0234,1.5954,0.5589,2.1999,0.5541,1.6143,0.2181,0.7712,-0.1836,2.6627,0.9438,2.0843,0.1123
0.7333,0.1396,-0.0535,-0.0234,1.5954,0.5589,2.1999,0.5541,1.6143,0.2181,0.7712,-0.1836,2.6627,0.9438,2.0843,0.1123
0.7331,0.1069,-0.0707,-0.0655,1.5644,0.5415,2.1881,0.5712,1.5159,0.1353,0.7347,-0.227,2.5507,0.8947,1.9991,0.1772
0.7331,0.1069,-0.0707,-0.0655,1.5644,0.5415,2.1881,0.5712,1.5159,0.1353,0.7347,-0.227,2.5507,0.8947,1.9991,0.1772
0.6723,0.0957,-0.0977,-0.1099,1.468,0.5567,2.1359,0.6025,1.396,0.0483,0.7026,-0.2762,2.3784,0.8821,1.8978,0.2654
0.6723,0.0957,-0.0977,-0.1099,1.468,0.5567,2.1359,0.6025,1.396,0.0483,0.7026,-0.2762,2.3784,0.8821,1.8978,0.2654
0.662,0.0775,-0.1551,-0.1433,1.3374,0.6217,2.1644,0.6054,1.3652,-0.0178,0.6724,-0.312,2.3307,0.899,1.913,0.3302
0.7425,0.0274,-0.2244,-0.1426,1.2637,0.6667,2.181,0.6253,1.4004,-0.0685,0.6355,-0.3221,2.3722,0.943,1.9444,0.3721
0.7425,0.0274,-0.2244,-0.1426,1.2637,0.6667,2.181,0.6253,1.4004,-0.0685,0.6355,-0.3221,2.3722,0.943,1.9444,0.3721
0.7624,-0.0013,-0.2686,-0.1448,1.2074,0.6866,2.2333,0.5939,1.5137,-0.1213,0.5714,-0.3087,2.3659,1.0043,1.9815,0.3766
0.7624,-0.0013,-0.2686,-0.1448,1.2074,0.6866,2.2333,0.5939,1.5137,-0.1213,0.5714,-0.3087,2.3659,1.0043,1.9815,0.3766
0.7624,-0.0013,-0.2686,-0.1448,1.2074,0.6866,2.2333,0.5939,1.5137,-0.1213,0.5714,-0.3087,2.3659,1.0043,1.9815,0.3766
0.7421,-0.005,-0.2934,-0.142,1.1512,0.7064,2.3669,0.5338,1.5699,-0.1284,0.5425,-0.2985,2.373,1.0462,2.0619,0.3482
0.7421,-0.005,-0.2934,-0.142,1.1512,0.7064,2.3669,0.5338,1.5699,-0.1284,0.5425,-0.2985,2.373,1.0462,2.0619,0.3482
0.6416,0.0414,-0.3236,-0.1314,1.1405,0.6913,2.4025,0.4825,1.5582,-0.1115,0.4889,-0.2842,2.5038,1.0148,2.1025,0.2897
0.5714,0.077,-0.3291,-0.1235,1.1859,0.6564,2.4143,0.4655,1.5125,-0.0826,0.4542,-0.2812,2.7113,0.9266,2.0787,0.2365
0.5714,0.077,-0.3291,-0.1235,1.1859,0.6564,2.4143,0.4655,1.5125,-0.0826,0.4542,-0.2812,2.7113,0.9266,2.0787,0.2365
0.4714,0.0906,-0.3593,-0.1128,1.1365,0.6361,2.2118,0.537,1.4681,-0.0924,0.4093,-0.2792,2.7872,0.8702,2.0096,0.1909
0.4714,0.0906,-0.3593,-0.1128,1.1365,0.6361,2.2118,0.537,1.4681,-0.0924,0.4093,-0.2792,2.7872,0.8702,2.0096,0.1909
0.3422,0.0823,-0.373,-0.1258,1.0489,0.6108,1.9945,0.5881,1.39,-0.0903,0.3747,-0.2762,2.828,0.8115,1.9065,0.1664
0.3422,0.0823,-0.373,-0.1258,1.0489,0.6108,1.9945,0.5881,1.39,-0.0903,0.3747,-0.2762,2.828,0.8115,1.9065,0.1664
0.3422,0.0823,-0.373,-0.1258,1.0489,0.6108,1.9945,0.5881,1.39,-0.0903,0.3747,-0.2762,2.828,0.8115,1.9065,0.1664
0.2338,0.0454,-0.3868,-0.1387,0.9341,0.5953,1.7124,0.6493,1.324,-0.1051,0.3688,-0.2833,2.7442,0.8263,1.7962,0.1534
0.2338,0.0454,-0.3868,-0.1387,0.9341,0.5953,1.7124,0.6493,1.324,-0.1051,0.3688,-0.2833,2.7442,0.8263,1.7962,0.1534
0.2338,0.0454,-0.3868,-0.1387,0.9341,0.5953,1.7124,0.6493,1.324,-0.1051,0.3688,-0.2833,2.7442,0.8263,1.7962,0.1534
0.1554,0.0303,-0.3555,-0.1675,0.8307,0.5946,1.5746,0.6341,1.3357,-0.1219,0.3832,-0.2884,2.655,0.9021,1.731,0.1332
0.1555,-0.0017,-0.3458,-0.165,0.7843,0.6017,1.5042,0.6081,1.403,-0.1457,0.4119,-0.2985,2.5521,0.9977,1.7001,0.0925
0.2239,-0.0366,-0.3567,-0.1493,0.7843,0.6017,1.5002,0.5715,1.5498,-0.2103,0.4322,-0.2965,2.4765,1.0542,1.6795,0.0655
0.2239,-0.0366,-0.3567,-0.1493,0.7843,0.6017,1.5002,0.5715,1.5498,-0.2103,0.4322,-0.2965,2.4765,1.0542,1.6795,0.0655
0.3025,-0.0537,-0.3647,-0.105,0.8496,0.5972,1.5897,0.5273,1.7081,-0.2535,0.4788,-0.2852,2.5321,1.0793,1.7056,0.0563
0.3025,-0.0537,-0.3647,-0.105,0.8496,0.5972,1.5897,0.5273,1.7081,-0.2535,0.4788,-0.2852,2.5321,1.0793,1.7056,0.0563
0.3025,-0.0537,-0.3647,-0.105,0.8496,0.5972,1.5897,0.5273,1.7081,-0.2535,0.4788,-0.2852,2.5321,1.0793,1.7056,0.0563
0.4209,-0.0635,-0.3728,-0.0605,0.898,0.6174,1.707,0.4858,1.799,-0.273,0.5255,-0.274,2.5669,1.082,1.7656,0.0266
0.4209,-0.0635,-0.3728,-0.0605,0.898,0.6174,1.707,0.4858,1.799,-0.273,0.5255,-0.274,2.5669,1.082,1.7656,0.0266
0.4806,-0.0526,-0.3562,-0.0185,0.9933,0.6304,1.8016,0.4777,1.8209,-0.2299,0.6074,-0.2658,2.6717,1.0899,1.9332,-0.0155
0.4806,-0.0526,-0.3562,-0.0185,0.9933,0.6304,1.8016,0.4777,1.8209,-0.2299,0.6074,-0.2658,2.6717,1.0899,1.9332,-0.0155
0.5405,-0.0416,-0.3328,-0.0029,1.0701,0.6408,1.8688,0.4666,1.7849,-0.1404,0.6606,-0.2474,2.7558,1.0752,2.0307,-0.0414
0.5405,-0.0416,-0.3328,-0.0029,1.0701,0.6408,1.8688,0.4666,1.7849,-0.1404,0.6606,-0.2474,2.7558,1.0752,2.0307,-0.0414
0.5908,-0.0163,-0.2983,-0.0031,1.1838,0.6288,1.9246,0.4723,1.7258,-0.0553,0.708,-0.2362,2.7911,1.0778,2.0678,-0.0374
0.5908,-0.0163,-0.2983,-0.0031,1.1838,0.6288,1.9246,0.4723,1.7258,-0.0553,0.708,-0.2362,2.7911,1.0778,2.0678,-0.0374
0.5908,-0.0163,-0.2983,-0.0031,1.1838,0.6288,1.9246,0.4723,1.7258,-0.0553,0.708,-0.2362,2.7911,1.0778,2.0678,-0.0374
0.6413,0.009,-0.2582,-0.0112,1.3352,0.5942,1.8896,0.5228,1.6559,0.0081,0.739,-0.2331,2.7911,1.0778,1.9992,0.0041
0.6413,0.009,-0.2582,-0.0112,1.3352,0.5942,1.8896,0.5228,1.6559,0.0081,0.739,-0.2331,2.7911,1.0778,1.9992,0.0041
0.6413,0.009,-0.2582,-0.0112,1.3352,0.5942,1.8896,0.5228,1.6559,0.0081,0.739,-0.2331,2.7911,1.0778,1.9992,0.0041
0.6618,0.0451,-0.207,-0.0353,1.3548,0.5967,1.8896,0.5228,1.4654,-0.0148,0.7959,-0.2673,2.6917,1.008,1.7523,0.0741
0.6618,0.0451,-0.207,-0.0353,1.3548,0.5967,1.8896,0.5228,1.4654,-0.0148,0.7959,-0.2673,2.6917,1.008,1.7523,0.0741
0.6518,0.0594,-0.1863,-0.0486,1.307,0.6041,1.8734,0.5031,1.4107,-0.0467,0.8633,-0.3004,2.6217,1.0029,1.6717,0.0769
0.6518,0.0594,-0.1863,-0.0486,1.307,0.6041,1.8734,0.5031,1.4107,-0.0467,0.8633,-0.3004,2.6217,1.0029,1.6717,0.0769
0.6518,0.0594,-0.16,-0.0699,1.214,0.6464,1.8572,0.4834,1.4004,-0.0685,0.8865,-0.3179,2.5869,1.0003,1.5655,0.0887
0.6518,0.0594,-0.16,-0.0699,1.214,0.6464,1.8572,0.4834,1.4004,-0.0685,0.8865,-0.3179,2.5869,1.0003,1.5655,0.0887
0.692,0.0344,-0.1545,-0.0778,1.1212,0.6886,1.8132,0.4609,1.502,-0.1044,0.8927,-0.3108,2.6081,1.0226,1.5812,0.066
0.692,0.0344,-0.1545,-0.0778,1.1212,0.6886,1.8132,0.4609,1.502,-0.1044,0.8927,-0.3108,2.6081,1.0226,1.5812,0.066
0.7927,-0.012,-0.1588,-0.0883,1.0461,0.7058,1.7694,0.4385,1.5582,-0.1115,0.8713,-0.2799,2.6917,1.008,1.571,0.0526
0.7927,-0.012,-0.1588,-0.0883,1.0461,0.7058,1.7694,0.4385,1.5582,-0.1115,0.8713,-0.2799,2.6917,1.008,1.571,0.0526
0.8633,-0.0478,-0.174,-0.0829,1.0269,0.7031,1.781,0.4218,1.5805,-0.1066,0.8412,-0.2365,2.7619,1.0131,1.6125,0.0209
0.8633,-0.0478,-0.174,-0.0829,1.0269,0.7031,1.781,0.4218,1.5805,-0.1066,0.8412,-0.2365,2.7619,1.0131,1.6125,0.0209
0.8534,-0.0335,-0.1948,-0.0696,0.9885,0.6978,1.8827,0.3607,1.5793,-0.0678,0.8049,-0.2002,2.7834,1.0354,1.6463,0.0004
0.8031,0.006,-0.21,-0.0642,0.9866,0.6703,1.9732,0.3162,1.5781,-0.0289,0.8067,-0.1868,2.9034,1.0231,1.6722,-0.0087
0.8031,0.006,-0.21,-0.0642,0.9866,0.6703,1.9732,0.3162,1.5781,-0.0289,0.8067,-0.1868,2.9034,1.0231,1.6722,-0.0087
0.7025,0.085,-0.2197,-0.0668,0.9761,0.6552,1.9452,0.3135,1.5886,-0.0069,0.8024,-0.1805,3.1098,0.9953,1.7319,-0.0383
0.7025,0.085,-0.2197,-0.0668,0.9761,0.6552,1.9452,0.3135,1.5886,-0.0069,0.8024,-0.1805,3.1098,0.9953,1.7319,-0.0383
0.7025,0.085,-0.2197,-0.0668,0.9761,0.6552,1.9452,0.3135,1.5886,-0.0069,0.8024,-0.1805,3.1098,0.9953,1.7319,-0.0383
0.632,0.1208,-0.2294,-0.0693,0.9933,0.6304,1.9058,0.3274,1.5886,-0.0069,0.811,-0.193,3.3602,0.9068,1.7397,-0.0496
0.632,0.1208,-0.2294,-0.0693,0.9933,0.6304,1.9058,0.3274,1.5886,-0.0069,0.811,-0.193,3.3602,0.9068,1.7397,-0.0496
0.5415,0.1201,-0.2433,-0.0823,1,0.5907,1.7097,0.3967,1.5886,-0.0069,0.8301,-0.2044,3.4978,0.8733,1.7215,-0.0517
0.5415,0.1201,-0.2433,-0.0823,1,0.5907,1.7097,0.3967,1.5886,-0.0069,0.8301,-0.2044,3.4978,0.8733,1.7215,-0.0517
0.4117,0.1118,-0.256,-0.1136,0.9493,0.5434,1.511,0.4293,1.5217,-0.0218,0.8326,-0.2241,3.4245,0.869,1.6672,-0.0579
0.3224,0.0785,-0.2438,-0.1477,0.8733,0.5332,1.3143,0.4614,1.4668,-0.0537,0.8246,-0.2447,3.1735,0.9577,1.613,-0.0642
0.3224,0.0785,-0.2438,-0.1477,0.8733,0.5332,1.3143,0.4614,1.4668,-0.0537,0.8246,-0.2447,3.1735,0.9577,1.613,-0.0642
0.3323,0.0642,-0.2287,-0.153,0.8648,0.5454,1.276,0.4749,1.4563,-0.0755,0.7891,-0.2415,2.9469,1.068,1.5512,-0.0593
0.3323,0.0642,-0.2287,-0.153,0.8648,0.5454,1.276,0.4749,1.4563,-0.0755,0.7891,-0.2415,2.9469,1.068,1.5512,-0.0593
0.3323,0.0642,-0.2287,-0.153,0.8648,0.5454,1.276,0.4749,1.4563,-0.0755,0.7891,-0.2415,2.9469,1.068,1.5512,-0.0593
0.3719,0.0395,-0.2493,-0.1398,0.8648,0.5454,1.2224,0.4689,1.5254,-0.1382,0.7537,-0.2383,2.8126,1.1003,1.5154,-0.0635
0.3719,0.0395,-0.2493,-0.1398,0.8648,0.5454,1.2224,0.4689,1.5254,-0.1382,0.7537,-0.2383,2.8126,1.1003,1.5154,-0.0635
0.3719,0.0395,-0.2493,-0.1398,0.8648,0.5454,1.2224,0.4689,1.5254,-0.1382,0.7537,-0.2383,2.8126,1.1003,1.5154,-0.0635
0.4115,0.0148,-0.2959,-0.1055,0.8288,0.5674,1.2453,0.4359,1.571,-0.167,0.7244,-0.228,2.6792,1.1324,1.5308,-0.0858
0.4115,0.0148,-0.2959,-0.1055,0.8288,0.5674,1.2453,0.4359,1.571,-0.167,0.7244,-0.228,2.6792,1.1324,1.5308,-0.0858
0.471,-0.0063,-0.3275,-0.0765,0.8203,0.5797,1.3331,0.3925,1.5476,-0.1333,0.6951,-0.2176,2.693,1.1124,1.6234,-0.1353
0.5008,-0.0168,-0.3728,-0.0605,0.8477,0.57,1.3942,0.3461,1.4785,-0.0706,0.6744,-0.2197,2.7558,1.0752,1.6646,-0.1667
0.471,-0.0063,-0.4016,-0.0681,0.9197,0.526,1.4283,0.2969,1.3769,-0.0347,0.6435,-0.2227,2.8462,0.9982,1.6131,-0.1485
0.471,-0.0063,-0.4016,-0.0681,0.9197,0.526,1.4283,0.2969,1.3769,-0.0347,0.6435,-0.2227,2.8462,0.9982,1.6131,-0.1485
0.471,-0.0063,-0.4016,-0.0681,0.9197,0.526,1.4283,0.2969,1.3769,-0.0347,0.6435,-0.2227,2.8462,0.9982,1.6131,-0.1485
0.4511,-0.01,-0.4208,-0.0733,0.9368,0.5015,1.39,0.3105,1.2554,-0.0428,0.6297,-0.2505,2.6917,1.008,1.4824,-0.1275
0.4511,-0.01,-0.4208,-0.0733,0.9368,0.5015,1.39,0.3105,1.2554,-0.0428,0.6297,-0.2505,2.6917,1.008,1.4824,-0.1275
0.4015,-0.0032,-0.4195,-0.0916,0.9007,0.5235,1.3631,0.3076,1.1465,-0.0678,0.6408,-0.2823,2.5732,1.02,1.3526,-0.1068
0.4015,-0.0032,-0.4195,-0.0916,0.9007,0.5235,1.3631,0.3076,1.1465,-0.0678,0.6408,-0.2823,2.5732,1.02,1.3526,-0.1068
0.4708,-0.0384,-0.4386,-0.0967,0.8288,0.5674,1.2981,0.3183,1.1148,-0.0945,0.639,-0.2956,2.5248,1.0371,1.2919,-0.1021
0.4708,-0.0384,-0.4386,-0.0967,0.8288,0.5674,1.2981,0.3183,1.1148,-0.0945,0.639,-0.2956,2.5248,1.0371,1.2919,-0.1021
0.4708,-0.0384,-0.4386,-0.0967,0.8288,0.5674,1.2981,0.3183,1.1148,-0.0945,0.639,-0.2956,2.5248,1.0371,1.2919,-0.1021
0.5104,-0.0631,-0.4428,-0.1071,0.7467,0.5964,1.2333,0.3288,1.1712,-0.1397,0.6348,-0.2894,2.4901,1.0345,1.282,-0.1153
0.5104,-0.0631,-0.4428,-0.1071,0.7467,0.5964,1.2333,0.3288,1.1712,-0.1397,0.6348,-0.2894,2.4901,1.0345,1.282,-0.1153
0.5104,-0.0631,-0.4428,-0.1071,0.7467,0.5964,1.2333,0.3288,1.1712,-0.1397,0.6348,-0.2894,2.4901,1.0345,1.282,-0.1153
0.5405,-0.0416,-0.4236,-0.102,0.7296,0.621,1.478,0.267,1.2931,-0.1701,0.6066,-0.233,2.5385,1.0174,1.3326,-0.1331
0.5405,-0.0416,-0.4236,-0.102,0.7296,0.621,1.478,0.267,1.2931,-0.1701,0.6066,-0.233,2.5385,1.0174,1.3326,-0.1331
0.5408,-0.0094,-0.4099,-0.089,0.7947,0.6166,1.5594,0.2753,1.3137,-0.1269,0.6392,-0.2166,2.7678,0.9513,1.3781,-0.1158
0.5408,-0.0094,-0.4099,-0.089,0.7947,0.6166,1.5594,0.2753,1.3137,-0.1269,0.6392,-0.2166,2.7678,0.9513,1.3781,-0.1158
0.5408,-0.0094,-0.4099,-0.089,0.7947,0.6166,1.5594,0.2753,1.3137,-0.1269,0.6392,-0.2166,2.7678,0.9513,1.3781,-0.1158
0.4811,0.0117,-0.3852,-0.0918,0.8496,0.5972,1.4867,0.3382,1.3797,-0.1121,0.6822,-0.199,2.9859,0.904,1.4415,-0.0963
0.4412,0.0043,-0.3496,-0.1103,0.8581,0.5849,1.3984,0.3818,1.39,-0.0903,0.7426,-0.2063,3.0573,0.9087,1.4516,-0.083
0.5109,0.0011,-0.3001,-0.1159,0.8875,0.6024,1.387,0.3983,1.502,-0.1044,0.7988,-0.2075,2.9884,1.008,1.4873,-0.0788
0.5109,0.0011,-0.3001,-0.1159,0.8875,0.6024,1.387,0.3983,1.502,-0.1044,0.7988,-0.2075,2.9884,1.008,1.4873,-0.0788
0.551,0.0085,-0.2821,-0.0925,0.9446,0.6102,1.3755,0.4148,1.6263,-0.1356,0.8301,-0.2044,2.8974,1.0854,1.5052,-0.0767
0.551,0.0085,-0.2821,-0.0925,0.9446,0.6102,1.3755,0.4148,1.6263,-0.1356,0.8301,-0.2044,2.8974,1.0854,1.5052,-0.0767
0.551,0.0085,-0.2821,-0.0925,0.9446,0.6102,1.3755,0.4148,1.6263,-0.1356,0.8301,-0.2044,2.8974,1.0854,1.5052,-0.0767
0.6112,0.0196,-0.2792,-0.0637,0.9742,0.6278,1.4796,0.3905,1.6819,-0.1041,0.8571,-0.1952,2.8835,1.1055,1.608,-0.113
0.6112,0.0196,-0.2792,-0.0637,0.9742,0.6278,1.4796,0.3905,1.6819,-0.1041,0.8571,-0.1952,2.8835,1.1055,1.608,-0.113
0.6115,0.052,-0.2653,-0.0507,1.0489,0.6108,1.5454,0.3797,1.6465,-0.0531,0.8528,-0.1889,2.848,1.1029,1.6337,-0.1221
0.6316,0.0557,-0.2556,-0.0481,1.1324,0.5813,1.5841,0.366,1.5558,-0.0338,0.8466,-0.1962,2.7911,1.0778,1.572,-0.1172
0.6316,0.0557,-0.2556,-0.0481,1.1324,0.5813,1.5841,0.366,1.5558,-0.0338,0.8466,-0.1962,2.7911,1.0778,1.572,-0.1172
0.6115,0.052,-0.2349,-0.0614,1.141,0.5689,1.5568,0.3632,1.455,-0.0367,0.8682,-0.2273,2.713,1.0303,1.4338,-0.0851
0.6115,0.052,-0.2349,-0.0614,1.141,0.5689,1.5568,0.3632,1.455,-0.0367,0.8682,-0.2273,2.713,1.0303,1.4338,-0.0851
0.6115,0.052,-0.2349,-0.0614,1.141,0.5689,1.5568,0.3632,1.455,-0.0367,0.8682,-0.2273,2.713,1.0303,1.4338,-0.0851
0.5613,0.0589,-0.2543,-0.0665,1.0767,0.601,1.541,0.3439,1.3887,-0.0516,0.8664,-0.2407,2.6081,1.0226,1.355,-0.0825
0.5613,0.0589,-0.2543,-0.0665,1.0767,0.601,1.541,0.3439,1.3887,-0.0516,0.8664,-0.2407,2.6081,1.0226,1.355,-0.0825
0.6013,0.0339,-0.2792,-0.0637,1.0403,0.6232,1.4753,0.3547,1.4342,-0.0805,0.8725,-0.2335,2.643,1.0252,1.3373,-0.0846
0.6013,0.0339,-0.2792,-0.0637,1.0403,0.6232,1.4753,0.3547,1.4342,-0.0805,0.8725,-0.2335,2.643,1.0252,1.3373,-0.0846
0.6813,-0.016,-0.2889,-0.0663,0.9933,0.6304,1.4867,0.3382,1.4681,-0.0924,0.8553,-0.2086,2.6292,1.045,1.3196,-0.0867
0.6813,-0.016,-0.2889,-0.0663,0.9933,0.6304,1.4867,0.3382,1.4681,-0.0924,0.8553,-0.2086,2.6292,1.045,1.3196,-0.0867
0.6512,-0.0053,-0.3137,-0.0635,0.9742,0.6278,1.5753,0.2945,1.502,-0.1044,0.8276,-0.1847,2.6292,1.045,1.3273,-0.0978
0.6314,0.0233,-0.3082,-0.0714,1.0019,0.618,1.6914,0.2535,1.5242,-0.0995,0.8276,-0.1847,2.7619,1.0131,1.3526,-0.1068
0.6314,0.0233,-0.3082,-0.0714,1.0019,0.618,1.6914,0.2535,1.5242,-0.0995,0.8276,-0.1847,2.7619,1.0131,1.3526,-0.1068
0.5514,0.0732,-0.3178,-0.0739,1.0191,0.5933,1.7028,0.2371,1.502,-0.1044,0.8171,-0.1858,2.9229,0.9412,1.368,-0.1289
0.5514,0.0732,-0.3178,-0.0739,1.0191,0.5933,1.7028,0.2371,1.502,-0.1044,0.8171,-0.1858,2.9229,0.9412,1.368,-0.1289
0.5514,0.0732,-0.3178,-0.0739,1.0191,0.5933,1.7028,0.2371,1.502,-0.1044,0.8171,-0.1858,2.9229,0.9412,1.368,-0.1289
0.4713,0.0582,-0.3358,-0.0973,0.9341,0.5953,1.5367,0.3082,1.502,-0.1044,0.811,-0.193,3.0353,0.8866,1.368,-0.1289
0.4713,0.0582,-0.3358,-0.0973,0.9341,0.5953,1.5367,0.3082,1.502,-0.1044,0.811,-0.193,3.0353,0.8866,1.368,-0.1289
0.3818,0.0575,-0.3291,-0.1235,0.8771,0.5875,1.4326,0.3325,1.5242,-0.0995,0.8301,-0.2044,2.9803,0.9658,1.3603,-0.1179
0.3422,0.05,-0.3483,-0.1286,0.8392,0.5823,1.3404,0.3404,1.6263,-0.1356,0.8092,-0.2064,2.9034,1.0231,1.3426,-0.12
0.3422,0.05,-0.3483,-0.1286,0.8392,0.5823,1.3404,0.3404,1.6263,-0.1356,0.8092,-0.2064,2.9034,1.0231,1.3426,-0.12
0.3817,0.0253,-0.3743,-0.1075,0.8203,0.5797,1.3404,0.3404,1.7406,-0.1887,0.8135,-0.2127,2.8403,1.0604,1.3934,-0.1379
0.3817,0.0253,-0.3743,-0.1075,0.8203,0.5797,1.3404,0.3404,1.7406,-0.1887,0.8135,-0.2127,2.8403,1.0604,1.3934,-0.1379
0.3817,0.0253,-0.3743,-0.1075,0.8203,0.5797,1.3404,0.3404,1.7406,-0.1887,0.8135,-0.2127,2.8403,1.0604,1.3934,-0.1379
0.4312,-0.0137,-0.4099,-0.089,0.8014,0.5771,1.39,0.3105,1.7406,-0.1887,0.7927,-0.2147,2.8049,1.0579,1.4597,-0.178
0.4312,-0.0137,-0.4099,-0.089,0.8014,0.5771,1.39,0.3105,1.7406,-0.1887,0.7927,-0.2147,2.8049,1.0579,1.4597,-0.178
0.4312,-0.0137,-0.44,-0.0784,0.8099,0.5648,1.4013,0.2941,1.637,-0.1138,0.7866,-0.2219,2.7344,1.0527,1.526,-0.2182
0.4312,-0.0137,-0.44,-0.0784,0.8099,0.5648,1.4013,0.2941,1.637,-0.1138,0.7866,-0.2219,2.7344,1.0527,1.526,-0.2182
0.4213,0.0006,-0.4646,-0.0756,0.8733,0.5332,1.39,0.3105,1.5452,-0.0558,0.7572,-0.2115,2.7482,1.0329,1.5184,-0.2071
0.4015,-0.0032,-0.4877,-0.0912,0.9177,0.499,1.3631,0.3076,1.4772,-0.0317,0.7555,-0.2249,2.7756,0.9932,1.452,-0.167
0.4015,-0.0032,-0.4877,-0.0912,0.9177,0.499,1.3631,0.3076,1.4772,-0.0317,0.7555,-0.2249,2.7756,0.9932,1.452,-0.167
0.3421,0.0178,-0.5163,-0.0988,0.9347,0.4745,1.3362,0.3048,1.3666,-0.0566,0.7329,-0.2403,2.6491,0.9635,1.2996,-0.1131
0.3421,0.0178,-0.5163,-0.0988,0.9347,0.4745,1.3362,0.3048,1.3666,-0.0566,0.7329,-0.2403,2.6491,0.9635,1.2996,-0.1131
0.3421,0.0178,-0.5163,-0.0988,0.9347,0.4745,1.3362,0.3048,1.3666,-0.0566,0.7329,-0.2403,2.6491,0.9635,1.2996,-0.1131
0.3224,0.0141,-0.5299,-0.1118,0.8798,0.4939,1.2826,0.2991,1.3124,-0.0883,0.7501,-0.2651,2.5582,0.9363,1.181,-0.0796
0.3224,0.0141,-0.5299,-0.1118,0.8798,0.4939,1.2826,0.2991,1.3124,-0.0883,0.7501,-0.2651,2.5582,0.9363,1.181,-0.0796
0.3815,-0.0389,-0.5381,-0.1325,0.7977,0.5229,1.1914,0.3068,1.2802,-0.115,0.7337,-0.2732,2.5372,0.9142,1.1034,-0.0772
0.3815,-0.0389,-0.5381,-0.1325,0.7977,0.5229,1.1914,0.3068,1.2802,-0.115,0.7337,-0.2732,2.5372,0.9142,1.1034,-0.0772
0.4803,-0.0845,-0.5422,-0.1429,0.6886,0.5615,1.1383,0.301,1.2699,-0.1367,0.6898,-0.2577,2.489,0.9312,1.0762,-0.0925
0.4803,-0.0845,-0.5422,-0.1429,0.6886,0.5615,1.1383,0.301,1.2699,-0.1367,0.6898,-0.2577,2.489,0.9312,1.0762,-0.0925
0.5697,-0.1161,-0.5422,-0.1429,0.6342,0.5807,1.1873,0.2714,1.2481,-0.1416,0.6624,-0.2341,2.489,0.9312,1.0414,-0.0968
0.5697,-0.1161,-0.5422,-0.1429,0.6342,0.5807,1.1873,0.2714,1.2481,-0.1416,0.6624,-0.2341,2.489,0.9312,1.0414,-0.0968
0.5399,-0.1056,-0.572,-0.1323,0.5698,0.585,1.1986,0.2552,1.2583,-0.1199,0.6306,-0.2042,2.5236,0.9338,1.0566,-0.1188
0.5399,-0.1056,-0.572,-0.1323,0.5698,0.585,1.1986,0.2552,1.2583,-0.1199,0.6306,-0.2042,2.5236,0.9338,1.0566,-0.1188
0.4607,-0.0562,-0.5963,-0.1296,0.5056,0.5892,1.2967,0.1961,1.2685,-0.0982,0.6118,-0.1929,2.593,0.9388,1.0893,-0.1386
0.4607,-0.0562,-0.5963,-0.1296,0.5056,0.5892,1.2967,0.1961,1.2685,-0.0982,0.6118,-0.1929,2.593,0.9388,1.0893,-0.1386
0.3817,0.0253,-0.5963,-0.1296,0.5141,0.577,1.3727,0.1692,1.2788,-0.0765,0.6221,-0.1918,2.7249,0.907,1.1393,-0.1563
0.3817,0.0253,-0.5963,-0.1296,0.5141,0.577,1.3727,0.1692,1.2788,-0.0765,0.6221,-0.1918,2.7249,0.907,1.1393,-0.1563
0.2928,0.089,-0.5963,-0.1296,0.5766,0.5457,1.3727,0.1692,1.3226,-0.0665,0.6719,-0.2001,3.027,0.8448,1.2246,-0.1699
0.2533,0.1137,-0.5923,-0.1193,0.6681,0.5318,1.3771,0.2044,1.3666,-0.0566,0.7279,-0.2011,3.3474,0.7614,1.2949,-0.1615
0.2533,0.1137,-0.5923,-0.1193,0.6681,0.5318,1.3771,0.2044,1.3666,-0.0566,0.7279,-0.2011,3.3474,0.7614,1.2949,-0.1615
0.2336,0.1099,-0.5476,-0.135,0.7497,0.503,1.3165,0.2503,1.4107,-0.0467,0.8092,-0.2064,3.4706,0.7477,1.3656,-0.1532
0.2336,0.1099,-0.5476,-0.135,0.7497,0.503,1.3165,0.2503,1.4107,-0.0467,0.8092,-0.2064,3.4706,0.7477,1.3656,-0.1532
0.2336,0.1099,-0.5476,-0.135,0.7497,0.503,1.3165,0.2503,1.4107,-0.0467,0.8092,-0.2064,3.4706,0.7477,1.3656,-0.1532
0.1749,0.0662,-0.5069,-0.1612,0.7393,0.4882,1.127,0.3172,1.4563,-0.0755,0.87,-0.2138,3.4203,0.7655,1.368,-0.1289
0.1749,0.0662,-0.5069,-0.1612,0.7393,0.4882,1.127,0.3172,1.4563,-0.0755,0.87,-0.2138,3.4203,0.7655,1.368,-0.1289
0.1749,0.0662,-0.5069,-0.1612,0.7393,0.4882,1.127,0.3172,1.4563,-0.0755,0.87,-0.2138,3.4203,0.7655,1.368,-0.1289
0.1651,0.0482,-0.4226,-0.1851,0.7581,0.4908,1.029,0.3764,1.4785,-0.0706,0.9162,-0.2161,3.315,0.8626,1.4035,-0.1248
0.2141,0.0416,-0.3788,-0.1829,0.7515,0.53,1.0178,0.3927,1.6028,-0.1017,0.9434,-0.2068,3.1958,0.98,1.4314,-0.1095
0.2829,0.0066,-0.3759,-0.1544,0.7619,0.5448,1.029,0.3764,1.7279,-0.1331,0.9409,-0.1871,3.1041,1.0578,1.4747,-0.1164
0.2829,0.0066,-0.3759,-0.1544,0.7619,0.5448,1.029,0.3764,1.7279,-0.1331,0.9409,-0.1871,3.1041,1.0578,1.4747,-0.1164
0.352,0.0036,-0.3785,-0.1179,0.791,0.5622,1.1044,0.3498,1.7849,-0.1404,0.9471,-0.1799,3.0403,1.0955,1.5438,-0.1324
0.352,0.0036,-0.3785,-0.1179,0.791,0.5622,1.1044,0.3498,1.7849,-0.1404,0.9471,-0.1799,3.0403,1.0955,1.5438,-0.1324
0.4213,0.0006,-0.3907,-0.0839,0.8562,0.5577,1.2067,0.3259,1.7387,-0.1113,0.9366,-0.1809,2.9687,1.0905,1.6363,-0.1819
0.4213,0.0006,-0.3907,-0.0839,0.8562,0.5577,1.2067,0.3259,1.7387,-0.1113,0.9366,-0.1809,2.9687,1.0905,1.6363,-0.1819
0.4213,0.0006,-0.3907,-0.0839,0.8562,0.5577,1.2067,0.3259,1.7387,-0.1113,0.9366,-0.1809,2.9687,1.0905,1.6363,-0.1819
0.4213,0.0006,-0.3907,-0.0839,0.8562,0.5577,1.2067,0.3259,1.7387,-0.1113,0.9366,-0.1809,2.9687,1.0905,1.6363,-0.1819
0.471,-0.0063,-0.4058,-0.0786,0.9302,0.5409,1.2939,0.2828,1.669,-0.0481,0.9261,-0.1819,3.0323,1.0529,1.662,-0.191
0.471,-0.0063,-0.4058,-0.0786,0.9302,0.5409,1.2939,0.2828,1.669,-0.0481,0.9261,-0.1819,3.0323,1.0529,1.662,-0.191
0.471,-0.0063,-0.4058,-0.0786,0.9302,0.5409,1.2939,0.2828,1.669,-0.0481,0.9261,-0.1819,3.0323,1.0529,1.662,-0.191
0.5008,-0.0168,-0.4345,-0.0862,1.1601,0.4504,1.3165,0.2503,1.5085,0.0343,0.8946,-0.1849,3.038,0.9905,1.5515,-0.1435
0.5008,-0.0168,-0.4345,-0.0862,1.1601,0.4504,1.3165,0.2503,1.5085,0.0343,0.8946,-0.1849,3.038,0.9905,1.5515,-0.1435
0.471,-0.0063,-0.4632,-0.0939,1.2328,0.4061,1.2743,0.2284,1.43,0.0363,0.878,-0.1931,2.9803,0.9658,1.4415,-0.0963
0.471,-0.0063,-0.4632,-0.0939,1.2328,0.4061,1.2743,0.2284,1.43,0.0363,0.878,-0.1931,2.9803,0.9658,1.4415,-0.0963
0.4015,-0.0032,-0.5014,-0.1041,1.1749,0.3989,1.1832,0.2362,1.3314,-0.0059,0.8553,-0.2086,2.8031,0.9537,1.3141,-0.0513
0.4015,-0.0032,-0.5014,-0.1041,1.1749,0.3989,1.1832,0.2362,1.3314,-0.0059,0.8553,-0.2086,2.8031,0.9537,1.3141,-0.0513
0.4312,-0.0137,-0.4864,-0.1094,1.1386,0.4209,1.2364,0.2418,1.2336,-0.0478,0.843,-0.2231,2.5521,0.9977,1.1776,-0.0198
0.4312,-0.0137,-0.4864,-0.1094,1.1386,0.4209,1.2364,0.2418,1.2336,-0.0478,0.843,-0.2231,2.5521,0.9977,1.1776,-0.0198
0.4213,0.0006,-0.4864,-0.1094,1.0577,0.4773,1.263,0.2447,1.1798,-0.0796,0.8707,-0.2469,2.4211,1.0292,1.1426,-0.0242
0.4213,0.0006,-0.4864,-0.1094,1.0577,0.4773,1.263,0.2447,1.1798,-0.0796,0.8707,-0.2469,2.4211,1.0292,1.1426,-0.0242
0.471,-0.0063,-0.4714,-0.1147,0.9598,0.5583,1.2897,0.2475,1.1798,-0.0796,0.915,-0.2626,2.4419,1.0515,1.1579,-0.0464
0.471,-0.0063,-0.4714,-0.1147,0.9598,0.5583,1.2897,0.2475,1.1798,-0.0796,0.915,-0.2626,2.4419,1.0515,1.1579,-0.0464
0.5806,-0.0342,-0.4714,-0.1147,0.8704,0.6271,1.3165,0.2503,1.2467,-0.1032,0.9211,-0.2554,2.5248,1.0371,1.1908,-0.0664
0.5806,-0.0342,-0.4714,-0.1147,0.8704,0.6271,1.3165,0.2503,1.2467,-0.1032,0.9211,-0.2554,2.5248,1.0371,1.1908,-0.0664
0.7007,-0.0767,-0.4714,-0.1147,0.8343,0.6492,1.3052,0.2665,1.3137,-0.1269,0.9125,-0.2429,2.6081,1.0226,1.249,-0.0953
0.7007,-0.0767,-0.4714,-0.1147,0.8343,0.6492,1.3052,0.2665,1.3137,-0.1269,0.9125,-0.2429,2.6081,1.0226,1.249,-0.0953
0.7708,-0.1122,-0.4864,-0.1094,0.8154,0.6466,1.3433,0.2531,1.3913,-0.1289,0.8953,-0.2181,2.6917,1.008,1.3426,-0.12
0.7708,-0.1122,-0.4864,-0.1094,0.8154,0.6466,1.3433,0.2531,1.3913,-0.1289,0.8953,-0.2181,2.6917,1.008,1.3426,-0.12
0.761,-0.098,-0.4864,-0.1094,0.8136,0.6192,1.5345,0.1855,1.4251,-0.1408,0.8528,-0.1889,2.7267,1.0105,1.368,-0.1289
0.761,-0.098,-0.4864,-0.1094,0.8136,0.6192,1.5345,0.1855,1.4251,-0.1408,0.8528,-0.1889,2.7267,1.0105,1.368,-0.1289
0.671,-0.0339,-0.4905,-0.1198,0.7843,0.6017,1.573,0.1719,1.4693,-0.1311,0.8276,-0.1847,2.8384,0.9562,1.368,-0.1289
0.671,-0.0339,-0.4905,-0.1198,0.7843,0.6017,1.573,0.1719,1.4693,-0.1311,0.8276,-0.1847,2.8384,0.9562,1.368,-0.1289
0.5611,0.0265,-0.515,-0.117,0.7825,0.5745,1.5617,0.1882,1.5137,-0.1213,0.7981,-0.1743,3.0216,0.9063,1.3857,-0.1268
0.5611,0.0265,-0.515,-0.117,0.7825,0.5745,1.5617,0.1882,1.5137,-0.1213,0.7981,-0.1743,3.0216,0.9063,1.3857,-0.1268
0.4613,0.0402,-0.5435,-0.1247,0.743,0.5422,1.397,0.2587,1.4915,-0.1262,0.7712,-0.1836,3.0848,0.8691,1.3349,-0.1089
0.4613,0.0402,-0.5435,-0.1247,0.743,0.5422,1.397,0.2587,1.4915,-0.1262,0.7712,-0.1836,3.0848,0.8691,1.3349,-0.1089
0.3323,0.032,-0.5612,-0.1479,0.6663,0.5049,1.2067,0.3259,1.4355,-0.1191,0.734,-0.1939,3.0764,0.8274,1.2996,-0.1131
0.3323,0.032,-0.5612,-0.1479,0.6663,0.5049,1.2067,0.3259,1.4355,-0.1191,0.734,-0.1939,3.0764,0.8274,1.2996,-0.1131
0.3323,0.032,-0.5612,-0.1479,0.6663,0.5049,1.2067,0.3259,1.4355,-0.1191,0.734,-0.1939,3.0764,0.8274,1.2996,-0.1131
0.224,0.0274,-0.549,-0.1816,0.6187,0.485,1.078,0.3468,1.4134,-0.124,0.7322,-0.2073,3.0133,0.8645,1.2567,-0.1063
0.224,-0.0046,-0.5329,-0.2049,0.5629,0.4772,0.999,0.338,1.481,-0.1479,0.7598,-0.2311,2.86,0.9784,1.2567,-0.1063
0.2338,-0.0188,-0.5477,-0.1997,0.5629,0.4772,1.0102,0.3217,1.5827,-0.1838,0.758,-0.2445,2.7619,1.0131,1.2391,-0.1084
0.2338,-0.0188,-0.5477,-0.1997,0.5629,0.4772,1.0102,0.3217,1.5827,-0.1838,0.758,-0.2445,2.7619,1.0131,1.2391,-0.1084
0.2829,-0.0254,-0.5693,-0.1686,0.6001,0.4824,1.0478,0.3085,1.6624,-0.2247,0.7372,-0.2465,2.6642,1.0476,1.2544,-0.1305
0.2829,-0.0254,-0.5693,-0.1686,0.6001,0.4824,1.0478,0.3085,1.6624,-0.2247,0.7372,-0.2465,2.6642,1.0476,1.2544,-0.1305
0.3125,-0.0039,-0.5963,-0.1296,0.6103,0.4971,1.1118,0.2981,1.6507,-0.2079,0.7226,-0.2414,2.6292,1.045,1.3302,-0.1573
0.3125,-0.0039,-0.5963,-0.1296,0.6103,0.4971,1.1118,0.2981,1.6507,-0.2079,0.7226,-0.2414,2.6292,1.045,1.3302,-0.1573
0.3125,-0.0039,-0.5963,-0.1296,0.6103,0.4971,1.1118,0.2981,1.6507,-0.2079,0.7226,-0.2414,2.6292,1.045,1.3302,-0.1573
0.3322,-0.0001,-0.622,-0.1087,0.656,0.4901,1.1873,0.2714,1.5476,-0.1333,0.683,-0.232,2.5732,1.02,1.3455,-0.1794
0.3322,-0.0001,-0.622,-0.1087,0.656,0.4901,1.1873,0.2714,1.5476,-0.1333,0.683,-0.232,2.5732,1.02,1.3455,-0.1794
0.3421,0.0178,-0.6369,-0.1035,0.7562,0.4639,1.2364,0.2418,1.4681,-0.0924,0.6624,-0.2341,2.6005,0.9806,1.3532,-0.1904
0.3421,0.0178,-0.6369,-0.1035,0.7562,0.4639,1.2364,0.2418,1.4681,-0.0924,0.6624,-0.2341,2.6005,0.9806,1.3532,-0.1904
0.3125,0.0283,-0.6409,-0.1139,0.8737,0.4132,1.2476,0.2256,1.3446,-0.0616,0.6357,-0.2433,2.655,0.9021,1.2521,-0.1547
0.3125,0.0283,-0.6409,-0.1139,0.8737,0.4132,1.2476,0.2256,1.3446,-0.0616,0.6357,-0.2433,2.655,0.9021,1.2521,-0.1547
0.2731,0.0208,-0.6396,-0.132,0.8822,0.4011,1.1832,0.2362,1.2016,-0.0746,0.6177,-0.2648,2.5431,0.8532,1.1165,-0.1234
0.2731,0.0208,-0.6396,-0.132,0.8822,0.4011,1.1832,0.2362,1.2016,-0.0746,0.6177,-0.2648,2.5431,0.8532,1.1165,-0.1234
0.2142,0.0095,-0.6624,-0.1474,0.7899,0.4153,1.0926,0.2438,1.0715,-0.1044,0.6142,-0.2914,2.4187,0.824,0.9721,-0.1055
0.2142,0.0095,-0.6624,-0.1474,0.7899,0.4153,1.0926,0.2438,1.0715,-0.1044,0.6142,-0.2914,2.4187,0.824,0.9721,-0.1055
0.1848,-0.0121,-0.6812,-0.1525,0.7187,0.4588,1.0176,0.2703,0.9739,-0.1077,0.656,-0.3201,2.3502,0.819,0.8955,-0.1033
0.1848,-0.0121,-0.6812,-0.1525,0.7187,0.4588,1.0176,0.2703,0.9739,-0.1077,0.656,-0.3201,2.3502,0.819,0.8955,-0.1033
0.1946,-0.0262,-0.6812,-0.1525,0.6409,0.5414,1.0176,0.2703,1.0069,-0.1194,0.6827,-0.311,2.371,0.8408,0.93,-0.0989
0.322,-0.0819,-0.6772,-0.1422,0.6613,0.5711,1.0064,0.2864,1.0831,-0.1211,0.7215,-0.2876,2.4471,0.8872,0.9818,-0.0924
0.322,-0.0819,-0.6772,-0.1422,0.6613,0.5711,1.0064,0.2864,1.0831,-0.1211,0.7215,-0.2876,2.4471,0.8872,0.9818,-0.0924
0.322,-0.0819,-0.6772,-0.1422,0.6613,0.5711,1.0064,0.2864,1.0831,-0.1211,0.7215,-0.2876,2.4471,0.8872,0.9818,-0.0924
0.4503,-0.1059,-0.645,-0.1242,0.7193,0.6061,1.1608,0.2685,1.2147,-0.1298,0.7433,-0.2393,2.5236,0.9338,1.0936,-0.0904
0.4803,-0.0845,-0.6072,-0.114,0.7758,0.614,1.3771,0.2044,1.3577,-0.117,0.7841,-0.2023,2.6491,0.9635,1.2391,-0.1084
0.4803,-0.0845,-0.6072,-0.114,0.7758,0.614,1.3771,0.2044,1.3577,-0.117,0.7841,-0.2023,2.6491,0.9635,1.2391,-0.1084
0.4803,-0.0845,-0.6072,-0.114,0.7758,0.614,1.3771,0.2044,1.3577,-0.117,0.7841,-0.2023,2.6491,0.9635,1.2391,-0.1084
0.5107,-0.031,-0.5693,-0.1038,0.9151,0.5927,1.573,0.1719,1.4459,-0.0974,0.8276,-0.1847,2.8875,0.9388,1.3426,-0.12
0.5107,-0.031,-0.5693,-0.1038,0.9151,0.5927,1.573,0.1719,1.4459,-0.0974,0.8276,-0.1847,2.8875,0.9388,1.3426,-0.12
0.4613,0.0402,-0.5503,-0.0987,0.9894,0.5757,1.6274,0.1773,1.5125,-0.0826,0.8546,-0.1755,3.1566,0.8736,1.4468,-0.1317
0.4613,0.0402,-0.5503,-0.0987,0.9894,0.5757,1.6274,0.1773,1.5125,-0.0826,0.8546,-0.1755,3.1566,0.8736,1.4468,-0.1317
0.3818,0.0899,-0.5258,-0.1014,0.9894,0.5757,1.5821,0.2426,1.5125,-0.0826,0.8607,-0.1682,3.2563,0.8384,1.4824,-0.1275
0.3818,0.0899,-0.5258,-0.1014,0.9894,0.5757,1.5821,0.2426,1.5125,-0.0826,0.8607,-0.1682,3.2563,0.8384,1.4824,-0.1275
0.3323,0.0642,-0.5096,-0.1249,0.9407,0.5557,1.4283,0.2969,1.4668,-0.0537,0.8711,-0.1672,3.3063,0.8207,1.4849,-0.1032
0.3323,0.0642,-0.5096,-0.1249,0.9407,0.5557,1.4283,0.2969,1.4668,-0.0537,0.8711,-0.1672,3.3063,0.8207,1.4849,-0.1032
0.283,0.0387,-0.4688,-0.1511,0.8837,0.548,1.3136,0.3375,1.4211,-0.0247,0.8859,-0.1724,3.2425,0.8582,1.495,-0.09
0.283,0.0387,-0.4688,-0.1511,0.8837,0.548,1.3136,0.3375,1.4211,-0.0247,0.8859,-0.1724,3.2425,0.8582,1.495,-0.09
0.2731,0.0208,-0.4334,-0.1695,0.8562,0.5577,1.2754,0.351,1.4772,-0.0317,0.9261,-0.1819,3.1874,0.9378,1.4974,-0.0656
0.2731,0.0208,-0.4334,-0.1695,0.8562,0.5577,1.2754,0.351,1.4772,-0.0317,0.9261,-0.1819,3.1874,0.9378,1.4974,-0.0656
0.3026,0.0103,-0.4239,-0.167,0.8477,0.57,1.2754,0.351,1.5452,-0.0558,0.9304,-0.1881,3.0323,1.0529,1.4974,-0.0656
0.3026,0.0103,-0.4239,-0.167,0.8477,0.57,1.2754,0.351,1.5452,-0.0558,0.9304,-0.1881,3.0323,1.0529,1.4974,-0.0656
0.3816,-0.0069,-0.4347,-0.1513,0.8752,0.5603,1.39,0.3105,1.7505,-0.1283,0.9452,-0.1934,3.0184,1.0729,1.4974,-0.0656
0.3816,-0.0069,-0.4347,-0.1513,0.8752,0.5603,1.39,0.3105,1.7505,-0.1283,0.9452,-0.1934,3.0184,1.0729,1.4974,-0.0656
0.4609,-0.0242,-0.4619,-0.1122,0.9027,0.5506,1.4283,0.2969,1.8193,-0.1526,0.9452,-0.1934,2.9826,1.0705,1.5565,-0.0949
0.4609,-0.0242,-0.4619,-0.1122,0.9027,0.5506,1.4283,0.2969,1.8193,-0.1526,0.9452,-0.1934,2.9826,1.0705,1.5565,-0.0949
0.5405,-0.0416,-0.4782,-0.0886,0.9217,0.5532,1.4938,0.2862,1.8075,-0.1356,0.9514,-0.1861,2.9965,1.0504,1.6776,-0.1292
0.5405,-0.0416,-0.4782,-0.0886,0.9217,0.5532,1.4938,0.2862,1.8075,-0.1356,0.9514,-0.1861,2.9965,1.0504,1.6776,-0.1292
0.5405,-0.0416,-0.4782,-0.0886,0.9217,0.5532,1.4938,0.2862,1.8075,-0.1356,0.9514,-0.1861,2.9965,1.0504,1.6776,-0.1292
0.5606,-0.0379,-0.4836,-0.0808,0.9683,0.546,1.5209,0.289,1.7377,-0.0724,0.9557,-0.1924,2.9607,1.048,1.737,-0.1586
0.5707,-0.02,-0.4986,-0.0755,1.0428,0.529,1.5481,0.2917,1.6903,-0.0041,0.9471,-0.1799,3.0242,1.0105,1.7734,-0.1546
0.5608,-0.0057,-0.5027,-0.0859,1.0982,0.5094,1.4981,0.3218,1.5992,0.0152,0.9261,-0.1819,2.9666,0.9857,1.6879,-0.116
0.5608,-0.0057,-0.5027,-0.0859,1.0982,0.5094,1.4981,0.3218,1.5992,0.0152,0.9261,-0.1819,2.9666,0.9857,1.6879,-0.116
0.5608,-0.0057,-0.5027,-0.0859,1.0982,0.5094,1.4981,0.3218,1.5992,0.0152,0.9261,-0.1819,2.9666,0.9857,1.6879,-0.116
0.551,0.0085,-0.4918,-0.1016,1.1068,0.4971,1.4596,0.3354,1.5203,0.0173,0.939,-0.2006,2.9585,0.9436,1.5847,-0.0795
0.551,0.0085,-0.4918,-0.1016,1.1068,0.4971,1.4596,0.3354,1.5203,0.0173,0.939,-0.2006,2.9585,0.9436,1.5847,-0.0795
0.551,0.0085,-0.481,-0.1172,1.0619,0.5315,1.471,0.319,1.5558,-0.0338,0.9774,-0.2236,2.9366,0.9214,1.5154,-0.0635
0.551,0.0085,-0.481,-0.1172,1.0619,0.5315,1.471,0.319,1.5558,-0.0338,0.9774,-0.2236,2.9366,0.9214,1.5154,-0.0635
0.6109,-0.0127,-0.4606,-0.1304,0.9894,0.5757,1.4326,0.3325,1.5452,-0.0558,0.986,-0.236,2.9366,0.9214,1.4796,-0.0677
0.6109,-0.0127,-0.4606,-0.1304,0.9894,0.5757,1.4326,0.3325,1.5452,-0.0558,0.986,-0.236,2.9366,0.9214,1.4796,-0.0677
0.711,-0.0588,-0.4701,-0.1329,0.9703,0.5732,1.4056,0.3297,1.5793,-0.0678,0.9774,-0.2236,2.9722,0.9238,1.4873,-0.0788
0.711,-0.0588,-0.4755,-0.1251,0.9322,0.568,1.4938,0.2862,1.6359,-0.075,0.9452,-0.1934,3.0079,0.9262,1.5129,-0.0879
0.711,-0.0588,-0.4755,-0.1251,0.9322,0.568,1.4938,0.2862,1.6359,-0.075,0.9452,-0.1934,3.0079,0.9262,1.5129,-0.0879
0.711,-0.0588,-0.4905,-0.1198,0.8942,0.5629,1.6207,0.229,1.5781,-0.0289,0.9069,-0.1704,2.9941,0.946,1.5129,-0.0879
0.711,-0.0588,-0.4905,-0.1198,0.8942,0.5629,1.6207,0.229,1.5781,-0.0289,0.9069,-0.1704,2.9941,0.946,1.5129,-0.0879
0.711,-0.0588,-0.4905,-0.1198,0.8942,0.5629,1.6207,0.229,1.5781,-0.0289,0.9069,-0.1704,2.9941,0.946,1.5129,-0.0879
0.6211,0.0053,-0.515,-0.117,0.8922,0.5357,1.7208,0.1689,1.5886,-0.0069,0.8877,-0.1589,3.016,0.9682,1.5386,-0.0969
0.6211,0.0053,-0.515,-0.117,0.8922,0.5357,1.7208,0.1689,1.5886,-0.0069,0.8877,-0.1589,3.016,0.9682,1.5386,-0.0969
0.6211,0.0053,-0.515,-0.117,0.8922,0.5357,1.7208,0.1689,1.5886,-0.0069,0.8877,-0.1589,3.016,0.9682,1.5386,-0.0969
0.5613,0.0589,-0.5299,-0.1118,0.8818,0.5209,1.7596,0.1552,1.5545,0.0052,0.8773,-0.1599,3.1153,0.9332,1.5643,-0.106
0.4714,0.0906,-0.5489,-0.1169,0.8798,0.4939,1.6708,0.1989,1.5321,0.0002,0.8607,-0.1682,3.2788,0.8604,1.5207,-0.099
0.4714,0.0906,-0.5489,-0.1169,0.8798,0.4939,1.6708,0.1989,1.5321,0.0002,0.8607,-0.1682,3.2788,0.8604,1.5207,-0.099
0.4714,0.0906,-0.5489,-0.1169,0.8798,0.4939,1.6708,0.1989,1.5321,0.0002,0.8607,-0.1682,3.2788,0.8604,1.5207,-0.099
0.4215,0.065,-0.5476,-0.135,0.8589,0.4644,1.4667,0.2834,1.4994,-0.0268,0.8337,-0.1775,3.2563,0.8384,1.4849,-0.1032
0.4215,0.065,-0.5476,-0.135,0.8589,0.4644,1.4667,0.2834,1.4994,-0.0268,0.8337,-0.1775,3.2563,0.8384,1.4849,-0.1032
0.4215,0.065,-0.5476,-0.135,0.8589,0.4644,1.4667,0.2834,1.4994,-0.0268,0.8337,-0.1775,3.2563,0.8384,1.4849,-0.1032
0.2534,0.017,-0.549,-0.1816,0.7271,0.4467,1.0667,0.3631,1.4563,-0.0755,0.8092,-0.2064,3.0436,0.9285,1.4059,-0.1005
0.2534,0.017,-0.549,-0.1816,0.7271,0.4467,1.0667,0.3631,1.4563,-0.0755,0.8092,-0.2064,3.0436,0.9285,1.4059,-0.1005
0.2534,0.017,-0.549,-0.1816,0.7271,0.4467,1.0667,0.3631,1.4563,-0.0755,0.8092,-0.2064,3.0436,0.9285,1.4059,-0.1005
0.2633,0.0028,-0.5693,-0.1686,0.7187,0.4588,1.029,0.3764,1.5476,-0.1333,0.7841,-0.2023,2.9172,1.0032,1.355,-0.0825
0.2633,0.0028,-0.5693,-0.1686,0.7187,0.4588,1.029,0.3764,1.5476,-0.1333,0.7841,-0.2023,2.9172,1.0032,1.355,-0.0825
0.2633,0.0028,-0.5693,-0.1686,0.7187,0.4588,1.029,0.3764,1.5476,-0.1333,0.7841,-0.2023,2.9172,1.0032,1.355,-0.0825
0.3321,-0.0322,-0.6423,-0.0957,0.7206,0.4857,1.0629,0.3276,1.7306,-0.2488,0.7297,-0.1877,2.8462,0.9982,1.3196,-0.0867
0.3321,-0.0322,-0.6423,-0.0957,0.7206,0.4857,1.0629,0.3276,1.7306,-0.2488,0.7297,-0.1877,2.8462,0.9982,1.3196,-0.0867
0.3715,-0.0568,-0.6734,-0.067,0.7206,0.4857,1.0854,0.2952,1.6965,-0.2367,0.69,-0.1784,2.7756,0.9932,1.3857,-0.1268
0.3715,-0.0568,-0.6734,-0.067,0.7206,0.4857,1.0854,0.2952,1.6965,-0.2367,0.69,-0.1784,2.7756,0.9932,1.3857,-0.1268
0.3813,-0.0709,-0.7085,-0.0487,0.685,0.5075,1.172,0.2524,1.6167,-0.1958,0.6693,-0.1804,2.7405,0.9907,1.4698,-0.1649
0.3813,-0.0709,-0.7085,-0.0487,0.685,0.5075,1.172,0.2524,1.6167,-0.1958,0.6693,-0.1804,2.7405,0.9907,1.4698,-0.1649
0.3813,-0.0709,-0.7085,-0.0487,0.685,0.5075,1.172,0.2524,1.6167,-0.1958,0.6693,-0.1804,2.7405,0.9907,1.4698,-0.1649
0.4011,-0.0672,-0.7234,-0.0434,0.685,0.5075,1.2588,0.2095,1.5137,-0.1213,0.6487,-0.1825,2.7542,0.971,1.5797,-0.2121
0.3715,-0.0568,-0.7313,-0.0642,0.7206,0.4857,1.2701,0.1933,1.4107,-0.0467,0.6281,-0.1846,2.8521,0.9364,1.613,-0.2322
0.3715,-0.0568,-0.7313,-0.0642,0.7206,0.4857,1.2701,0.1933,1.4107,-0.0467,0.6281,-0.1846,2.8521,0.9364,1.613,-0.2322
0.3419,-0.0463,-0.7446,-0.0772,0.7919,0.4421,1.2812,0.1771,1.286,0.023,0.6118,-0.1929,2.9148,0.8993,1.5695,-0.2252
0.3419,-0.0463,-0.7446,-0.0772,0.7919,0.4421,1.2812,0.1771,1.286,0.023,0.6118,-0.1929,2.9148,0.8993,1.5695,-0.2252
0.2829,-0.0254,-0.7619,-0.1005,0.8906,0.3889,1.2546,0.1744,1.1533,0.0315,0.5895,-0.2083,2.8088,0.8922,1.4495,-0.1911
0.2829,-0.0254,-0.7619,-0.1005,0.8906,0.3889,1.2546,0.1744,1.1533,0.0315,0.5895,-0.2083,2.8088,0.8922,1.4495,-0.1911
0.2142,-0.0225,-0.7699,-0.1212,0.899,0.3768,1.1679,0.2172,0.9902,0.0128,0.5818,-0.2289,2.6686,0.8825,1.2873,-0.1505
0.2142,-0.0225,-0.7699,-0.1212,0.899,0.3768,1.1679,0.2172,0.9902,0.0128,0.5818,-0.2289,2.6686,0.8825,1.2873,-0.1505
0.2142,-0.0225,-0.7699,-0.1212,0.899,0.3768,1.1679,0.2172,0.9902,0.0128,0.5818,-0.2289,2.6686,0.8825,1.2873,-0.1505
0.2142,-0.0225,-0.7551,-0.1264,0.8653,0.4254,1.1455,0.2495,0.9491,-0.036,0.6255,-0.2443,2.5372,0.9142,1.2116,-0.1237
0.2142,-0.0225,-0.7551,-0.1264,0.8653,0.4254,1.1455,0.2495,0.9491,-0.036,0.6255,-0.2443,2.5372,0.9142,1.2116,-0.1237
0.2829,-0.0254,-0.6826,-0.1344,0.8165,0.5255,1.2139,0.2743,0.9393,-0.0577,0.6812,-0.2454,2.51,0.9533,1.1963,-0.1017
0.2829,-0.0254,-0.6826,-0.1344,0.8165,0.5255,1.2139,0.2743,0.9393,-0.0577,0.6812,-0.2454,2.51,0.9533,1.1963,-0.1017
0.5901,-0.0805,-0.553,-0.1272,0.8361,0.6766,1.3136,0.3375,1.1697,-0.1013,0.824,-0.2117,2.6292,1.045,1.3296,-0.0735
0.5901,-0.0805,-0.553,-0.1272,0.8361,0.6766,1.3136,0.3375,1.1697,-0.1013,0.824,-0.2117,2.6292,1.045,1.3296,-0.0735
0.5901,-0.0805,-0.553,-0.1272,0.8361,0.6766,1.3136,0.3375,1.1697,-0.1013,0.824,-0.2117,2.6292,1.045,1.3296,-0.0735
0.7708,-0.1122,-0.5055,-0.1145,0.8845,0.697,1.4326,0.3325,1.3021,-0.1101,0.8589,-0.1817,2.7482,1.0329,1.426,-0.074
0.7708,-0.1122,-0.5055,-0.1145,0.8845,0.697,1.4326,0.3325,1.3021,-0.1101,0.8589,-0.1817,2.7482,1.0329,1.426,-0.074
0.7708,-0.1122,-0.5055,-0.1145,0.8845,0.697,1.4326,0.3325,1.3021,-0.1101,0.8589,-0.1817,2.7482,1.0329,1.426,-0.074
0.8621,-0.1122,-0.4728,-0.0965,0.9503,0.6925,1.5525,0.3274,1.4471,-0.1359,0.8747,-0.1401,2.8679,1.0206,1.5565,-0.0949
0.8628,-0.0801,-0.4441,-0.0888,0.9866,0.6703,1.7236,0.2918,1.5593,-0.1502,0.8783,-0.113,2.9528,1.0056,1.6621,-0.1069
0.823,-0.0228,-0.4304,-0.0758,1.0595,0.6258,1.919,0.2228,1.604,-0.1405,0.8906,-0.0984,3.0877,0.973,1.6983,-0.1027
0.823,-0.0228,-0.4304,-0.0758,1.0595,0.6258,1.919,0.2228,1.604,-0.1405,0.8906,-0.0984,3.0877,0.973,1.6983,-0.1027
0.7325,0.0418,-0.4359,-0.0679,1.0767,0.601,1.9076,0.2393,1.637,-0.1138,0.9011,-0.0974,3.3238,0.9046,1.7008,-0.0783
0.7325,0.0418,-0.4359,-0.0679,1.0767,0.601,1.9076,0.2393,1.637,-0.1138,0.9011,-0.0974,3.3238,0.9046,1.7008,-0.0783
0.7325,0.0418,-0.4359,-0.0679,1.0767,0.601,1.9076,0.2393,1.637,-0.1138,0.9011,-0.0974,3.3238,0.9046,1.7008,-0.0783
0.6518,0.0594,-0.4454,-0.0705,1.0832,0.5613,1.7557,0.3304,1.6252,-0.0969,0.8801,-0.0994,3.3879,0.8669,1.6594,-0.0467
0.6518,0.0594,-0.4454,-0.0705,1.0832,0.5613,1.7557,0.3304,1.6252,-0.0969,0.8801,-0.0994,3.3879,0.8669,1.6594,-0.0467
0.5913,0.0483,-0.4236,-0.102,1.0342,0.5413,1.6,0.3854,1.5793,-0.0678,0.8888,-0.112,3.4245,0.869,1.6594,-0.0467
0.5812,0.0302,-0.3826,-0.1283,1.0151,0.5388,1.5224,0.4128,1.6241,-0.058,0.908,-0.1235,3.369,0.9491,1.6516,-0.0354
0.5812,0.0302,-0.3826,-0.1283,1.0151,0.5388,1.5224,0.4128,1.6241,-0.058,0.908,-0.1235,3.369,0.9491,1.6516,-0.0354
0.6211,0.0053,-0.3676,-0.1336,1.0151,0.5388,1.4952,0.4099,1.7044,-0.0992,0.9105,-0.1433,3.2042,1.0224,1.6413,-0.0488
0.6211,0.0053,-0.3676,-0.1336,1.0151,0.5388,1.4952,0.4099,1.7044,-0.0992,0.9105,-0.1433,3.2042,1.0224,1.6413,-0.0488
0.6211,0.0053,-0.3676,-0.1336,1.0151,0.5388,1.4952,0.4099,1.7044,-0.0992,0.9105,-0.1433,3.2042,1.0224,1.6413,-0.0488
0.6211,0.0053,-0.3676,-0.1336,1.0151,0.5388,1.4952,0.4099,1.7044,-0.0992,0.9105,-0.1433,3.2042,1.0224,1.6413,-0.0488
0.6413,0.009,-0.3743,-0.1075,1.0619,0.5315,1.4952,0.4099,1.7731,-0.1235,0.9105,-0.1433,3.1041,1.0578,1.6672,-0.0579
0.6413,0.009,-0.3743,-0.1075,1.0619,0.5315,1.4952,0.4099,1.7731,-0.1235,0.9105,-0.1433,3.1041,1.0578,1.6672,-0.0579
0.6413,0.009,-0.3743,-0.1075,1.0619,0.5315,1.4952,0.4099,1.7731,-0.1235,0.9105,-0.1433,3.1041,1.0578,1.6672,-0.0579
0.672,0.0631,-0.3824,-0.063,1.1496,0.5565,1.5885,0.402,1.7603,-0.0675,0.9149,-0.1496,2.9826,1.0705,1.8307,-0.1242
0.672,0.0631,-0.3824,-0.063,1.1496,0.5565,1.5885,0.402,1.7603,-0.0675,0.9149,-0.1496,2.9826,1.0705,1.8307,-0.1242
0.6923,0.0669,-0.3879,-0.0551,1.2808,0.5195,1.6662,0.3745,1.6903,-0.0041,0.9149,-0.1496,2.9469,1.068,1.8229,-0.1129
0.6923,0.0669,-0.3879,-0.0551,1.2808,0.5195,1.6662,0.3745,1.6903,-0.0041,0.9149,-0.1496,2.9469,1.068,1.8229,-0.1129
0.6923,0.0669,-0.3879,-0.0551,1.2808,0.5195,1.6662,0.3745,1.6903,-0.0041,0.9149,-0.1496,2.9469,1.068,1.8229,-0.1129
0.7125,0.0706,-0.3632,-0.0579,1.4043,0.4946,1.7327,0.3635,1.6203,0.0595,0.9105,-0.1433,3.06,1.0129,1.8074,-0.0905
0.7125,0.0706,-0.3632,-0.0579,1.4043,0.4946,1.7327,0.3635,1.6203,0.0595,0.9105,-0.1433,3.06,1.0129,1.8074,-0.0905
0.7125,0.0706,-0.3632,-0.0579,1.4043,0.4946,1.7327,0.3635,1.6203,0.0595,0.9105,-0.1433,3.06,1.0129,1.8074,-0.0905
0.6923,0.0669,-0.3522,-0.0737,1.5346,0.4298,1.7833,0.3331,1.5085,0.0343,0.8877,-0.1589,3.0436,0.9285,1.6282,-0.0017
0.6923,0.0669,-0.3522,-0.0737,1.5346,0.4298,1.7833,0.3331,1.5085,0.0343,0.8877,-0.1589,3.0436,0.9285,1.6282,-0.0017
0.672,0.0631,-0.366,-0.0867,1.4411,0.4722,1.7167,0.3442,1.4315,-0.0028,0.8903,-0.1787,2.8875,0.9388,1.4968,0.0193
0.672,0.0631,-0.366,-0.0867,1.4411,0.4722,1.7167,0.3442,1.4315,-0.0028,0.8903,-0.1787,2.8875,0.9388,1.4968,0.0193
0.7122,0.0381,-0.3605,-0.0946,1.3307,0.5393,1.7167,0.3442,1.3652,-0.0178,0.9033,-0.1974,2.8031,0.9537,1.4353,0.024
0.7122,0.0381,-0.3605,-0.0946,1.3307,0.5393,1.7167,0.3442,1.3652,-0.0178,0.9033,-0.1974,2.8031,0.9537,1.4353,0.024
0.7624,-0.0013,-0.3798,-0.0996,1.2098,0.5915,1.6892,0.3414,1.3769,-0.0347,0.8928,-0.1984,2.8384,0.9562,1.4253,0.0106
0.7624,-0.0013,-0.3798,-0.0996,1.2098,0.5915,1.6892,0.3414,1.3769,-0.0347,0.8928,-0.1984,2.8384,0.9562,1.4253,0.0106
0.8534,-0.0335,-0.4003,-0.0864,1.1452,0.6237,1.6777,0.3579,1.4225,-0.0636,0.865,-0.1744,2.8246,0.9759,1.4152,-0.0027
0.8534,-0.0335,-0.4003,-0.0864,1.1452,0.6237,1.6777,0.3579,1.4225,-0.0636,0.865,-0.1744,2.8246,0.9759,1.4152,-0.0027
0.8733,-0.0622,-0.4345,-0.0862,1.0787,0.6284,1.7282,0.3276,1.4459,-0.0974,0.812,-0.1463,2.7894,0.9735,1.4052,-0.0161
0.8733,-0.0622,-0.4345,-0.0862,1.0787,0.6284,1.7282,0.3276,1.4459,-0.0974,0.812,-0.1463,2.7894,0.9735,1.4052,-0.0161
0.8733,-0.0622,-0.4345,-0.0862,1.0787,0.6284,1.7282,0.3276,1.4459,-0.0974,0.812,-0.1463,2.7894,0.9735,1.4052,-0.0161
0.8131,-0.0084,-0.44,-0.0784,1.0767,0.601,1.8847,0.2723,1.4459,-0.0974,0.7782,-0.1296,2.7894,0.9735,1.4718,-0.0565
0.7325,0.0418,-0.4646,-0.0756,1.0746,0.5736,1.924,0.2584,1.4681,-0.0924,0.7531,-0.1255,2.8875,0.9388,1.5052,-0.0767
0.7325,0.0418,-0.4646,-0.0756,1.0746,0.5736,1.924,0.2584,1.4681,-0.0924,0.7531,-0.1255,2.8875,0.9388,1.5052,-0.0767
0.7325,0.0418,-0.4646,-0.0756,1.0746,0.5736,1.924,0.2584,1.4681,-0.0924,0.7531,-0.1255,2.8875,0.9388,1.5052,-0.0767
0.6418,0.0738,-0.4782,-0.0886,1.0726,0.5464,1.8569,0.2696,1.4121,-0.0854,0.7072,-0.1234,2.9777,0.8622,1.4772,-0.0921
0.6418,0.0738,-0.4782,-0.0886,1.0726,0.5464,1.8569,0.2696,1.4121,-0.0854,0.7072,-0.1234,2.9777,0.8622,1.4772,-0.0921
0.6418,0.0738,-0.4782,-0.0886,1.0726,0.5464,1.8569,0.2696,1.4121,-0.0854,0.7072,-0.1234,2.9777,0.8622,1.4772,-0.0921
0.4116,0.0793,-0.4946,-0.1302,0.9388,0.5286,1.5182,0.3769,1.346,-0.1002,0.6727,-0.1535,2.9285,0.8796,1.3905,-0.0782
0.4116,0.0793,-0.4946,-0.1302,0.9388,0.5286,1.5182,0.3769,1.346,-0.1002,0.6727,-0.1535,2.9285,0.8796,1.3905,-0.0782
0.362,0.0538,-0.4987,-0.1405,0.8922,0.5357,1.4525,0.3876,1.3797,-0.1121,0.671,-0.167,2.8521,0.9364,1.365,-0.0692
0.4313,0.0185,-0.5245,-0.1196,0.8648,0.5454,1.414,0.4012,1.5148,-0.1599,0.665,-0.1742,2.7756,0.9932,1.365,-0.0692
0.4313,0.0185,-0.5245,-0.1196,0.8648,0.5454,1.414,0.4012,1.5148,-0.1599,0.665,-0.1742,2.7756,0.9932,1.365,-0.0692
0.4511,-0.01,-0.5557,-0.0908,0.8733,0.5332,1.5024,0.3575,1.5487,-0.1718,0.6504,-0.1691,2.713,1.0303,1.416,-0.0872
0.4511,-0.01,-0.5557,-0.0908,0.8733,0.5332,1.5024,0.3575,1.5487,-0.1718,0.6504,-0.1691,2.713,1.0303,1.416,-0.0872
0.4511,-0.01,-0.5557,-0.0908,0.8733,0.5332,1.5024,0.3575,1.5487,-0.1718,0.6504,-0.1691,2.713,1.0303,1.416,-0.0872
0.4511,-0.01,-0.5557,-0.0908,0.8733,0.5332,1.5024,0.3575,1.5487,-0.1718,0.6504,-0.1691,2.713,1.0303,1.416,-0.0872
0.4907,-0.0347,-0.591,-0.0725,0.9007,0.5235,1.5139,0.341,1.5699,-0.1284,0.6461,-0.1629,2.713,1.0303,1.5182,-0.1234
0.4907,-0.0347,-0.591,-0.0725,0.9007,0.5235,1.5139,0.341,1.5699,-0.1284,0.6461,-0.1629,2.713,1.0303,1.5182,-0.1234
0.4907,-0.0347,-0.591,-0.0725,0.9007,0.5235,1.5139,0.341,1.5699,-0.1284,0.6461,-0.1629,2.713,1.0303,1.5182,-0.1234
0.5208,-0.0131,-0.6248,-0.0723,1.0471,0.4625,1.5067,0.3934,1.3976,0.0092,0.5963,-0.1546,2.7894,0.9735,1.554,-0.1192
0.5208,-0.0131,-0.6248,-0.0723,1.0471,0.4625,1.5067,0.3934,1.3976,0.0092,0.5963,-0.1546,2.7894,0.9735,1.554,-0.1192
0.4811,0.0117,-0.6437,-0.0775,1.1109,0.4307,1.4838,0.4264,1.264,0.018,0.5449,-0.1599,2.7464,0.9291,1.4439,-0.0719
0.4811,0.0117,-0.6437,-0.0775,1.1109,0.4307,1.4838,0.4264,1.264,0.018,0.5449,-0.1599,2.7464,0.9291,1.4439,-0.0719
0.4811,0.0117,-0.6437,-0.0775,1.1109,0.4307,1.4838,0.4264,1.264,0.018,0.5449,-0.1599,2.7464,0.9291,1.4439,-0.0719
0.4115,0.0148,-0.676,-0.0956,1.081,0.4136,1.4566,0.4235,1.1666,-0.0241,0.5228,-0.1754,2.6686,0.8825,1.3087,-0.0157
0.4115,0.0148,-0.676,-0.0956,1.081,0.4136,1.4566,0.4235,1.1666,-0.0241,0.5228,-0.1754,2.6686,0.8825,1.3087,-0.0157
0.4115,0.0148,-0.676,-0.0956,1.081,0.4136,1.4566,0.4235,1.1666,-0.0241,0.5228,-0.1754,2.6686,0.8825,1.3087,-0.0157
0.352,0.0036,-0.6301,-0.1295,1.0109,0.4845,1.441,0.4041,1.1364,-0.0895,0.6041,-0.2135,2.5777,0.8557,1.217,0.0335
0.352,0.0036,-0.6301,-0.1295,1.0109,0.4845,1.441,0.4041,1.1364,-0.0895,0.6041,-0.2135,2.5777,0.8557,1.217,0.0335
0.441,-0.0279,-0.5909,-0.1374,0.9683,0.546,1.4796,0.3905,1.2583,-0.1199,0.6616,-0.2011,2.6201,0.8996,1.2954,0.0311
0.441,-0.0279,-0.5909,-0.1374,0.9683,0.546,1.4796,0.3905,1.2583,-0.1199,0.6616,-0.2011,2.6201,0.8996,1.2954,0.0311
0.6102,-0.0769,-0.5435,-0.1247,1,0.5907,1.5612,0.3991,1.346,-0.1002,0.7021,-0.1639,2.7464,0.9291,1.3997,0.0197
0.6706,-0.066,-0.4959,-0.112,1.0211,0.6206,1.7327,0.3635,1.4563,-0.0755,0.7427,-0.1265,2.8246,0.9759,1.5225,0.0102
0.6706,-0.066,-0.4959,-0.112,1.0211,0.6206,1.7327,0.3635,1.4563,-0.0755,0.7427,-0.1265,2.8246,0.9759,1.5225,0.0102
0.6813,-0.016,-0.4728,-0.0965,1.0873,0.616,1.8272,0.3552,1.5217,-0.0218,0.7713,-0.1036,3.0022,0.9881,1.6282,-0.0017
0.6813,-0.016,-0.4728,-0.0965,1.0873,0.616,1.8272,0.3552,1.5217,-0.0218,0.7713,-0.1036,3.0022,0.9881,1.6282,-0.0017
0.6813,-0.016,-0.4728,-0.0965,1.0873,0.616,1.8272,0.3552,1.5217,-0.0218,0.7713,-0.1036,3.0022,0.9881,1.6282,-0.0017
0.682,0.0488,-0.4495,-0.0809,1.1538,0.6112,1.8827,0.3607,1.5545,0.0052,0.8025,-0.1004,3.3238,0.9046,1.7163,-0.0158
0.682,0.0488,-0.4495,-0.0809,1.1538,0.6112,1.8827,0.3607,1.5545,0.0052,0.8025,-0.1004,3.3238,0.9046,1.7163,-0.0158
0.6418,0.0738,-0.4495,-0.0809,1.199,0.5765,1.8318,0.3913,1.5992,0.0152,0.853,-0.1088,3.5624,0.8354,1.7527,-0.0116
0.6418,0.0738,-0.4495,-0.0809,1.199,0.5765,1.8318,0.3913,1.5992,0.0152,0.853,-0.1088,3.5624,0.8354,1.7527,-0.0116
0.5714,0.077,-0.414,-0.0994,1.1882,0.5616,1.7026,0.4495,1.5873,0.0323,0.8827,-0.1193,3.5993,0.8374,1.7709,-0.0095
0.5714,0.077,-0.414,-0.0994,1.1882,0.5616,1.7026,0.4495,1.5873,0.0323,0.8827,-0.1193,3.5993,0.8374,1.7709,-0.0095
0.5113,0.0657,-0.373,-0.1258,1.1496,0.5565,1.5582,0.488,1.5992,0.0152,0.887,-0.1256,3.4701,0.9134,1.7448,-0.0003
0.5113,0.0657,-0.373,-0.1258,1.1496,0.5565,1.5582,0.488,1.5992,0.0152,0.887,-0.1256,3.4701,0.9134,1.7448,-0.0003
0.5512,0.0408,-0.3429,-0.1364,1.1496,0.5565,1.5193,0.5017,1.6229,-0.019,0.866,-0.1276,3.3272,1.0093,1.7266,-0.0024
0.5512,0.0408,-0.3429,-0.1364,1.1496,0.5565,1.5193,0.5017,1.6229,-0.019,0.866,-0.1276,3.3272,1.0093,1.7266,-0.0024
0.5713,0.0445,-0.3387,-0.126,1.1603,0.5714,1.5193,0.5017,1.7258,-0.0553,0.8321,-0.1109,3.2125,1.0651,1.7266,-0.0024
0.5713,0.0445,-0.3387,-0.126,1.1603,0.5714,1.5193,0.5017,1.7258,-0.0553,0.8321,-0.1109,3.2125,1.0651,1.7266,-0.0024
0.5713,0.0445,-0.3387,-0.126,1.1603,0.5714,1.5193,0.5017,1.7258,-0.0553,0.8321,-0.1109,3.2125,1.0651,1.7266,-0.0024
0.6615,0.0127,-0.3605,-0.0946,1.1517,0.5838,1.5193,0.5017,1.8174,-0.0748,0.8278,-0.1046,3.1763,1.0626,1.7527,-0.0116
0.7218,-0.0086,-0.3824,-0.063,1.1796,0.574,1.5582,0.488,1.7603,-0.0675,0.8069,-0.1067,3.118,1.0377,1.8387,-0.0505
0.7421,-0.005,-0.3879,-0.0551,1.199,0.5765,1.6751,0.4467,1.7366,-0.0334,0.8069,-0.1067,3.1319,1.0177,1.9619,-0.0855
0.7421,-0.005,-0.3879,-0.0551,1.199,0.5765,1.6751,0.4467,1.7366,-0.0334,0.8069,-0.1067,3.1319,1.0177,1.9619,-0.0855
0.7421,-0.005,-0.3879,-0.0551,1.199,0.5765,1.6751,0.4467,1.7366,-0.0334,0.8069,-0.1067,3.1319,1.0177,1.9619,-0.0855
0.7624,-0.0013,-0.3879,-0.0551,1.2464,0.5691,1.7533,0.419,1.6784,0.013,0.7921,-0.1015,3.2097,0.96,1.9881,-0.0948
0.7624,-0.0013,-0.3879,-0.0551,1.2464,0.5691,1.7533,0.419,1.6784,0.013,0.7921,-0.1015,3.2097,0.96,1.9881,-0.0948
0.7321,0.0094,-0.392,-0.0656,1.3112,0.5369,1.7649,0.4023,1.6322,0.0423,0.7817,-0.1025,3.2736,0.9224,1.9803,-0.0835
0.7321,0.0094,-0.392,-0.0656,1.3112,0.5369,1.7649,0.4023,1.6322,0.0423,0.7817,-0.1025,3.2736,0.9224,1.9803,-0.0835
0.7321,0.0094,-0.3811,-0.0814,1.3675,0.517,1.7533,0.419,1.4966,0.0514,0.7843,-0.1223,3.1153,0.9332,1.8414,-0.0259
0.7321,0.0094,-0.3811,-0.0814,1.3675,0.517,1.7533,0.419,1.4966,0.0514,0.7843,-0.1223,3.1153,0.9332,1.8414,-0.0259
0.7321,0.0094,-0.3756,-0.0892,1.3221,0.5518,1.7026,0.4495,1.4418,0.0193,0.8016,-0.1473,3.0298,0.9483,1.7448,-0.0003
0.7321,0.0094,-0.3756,-0.0892,1.3221,0.5518,1.7026,0.4495,1.4418,0.0193,0.8016,-0.1473,3.0298,0.9483,1.7448,-0.0003
0.7321,0.0094,-0.3756,-0.0892,1.3221,0.5518,1.7026,0.4495,1.4418,0.0193,0.8016,-0.1473,3.0298,0.9483,1.7448,-0.0003
0.823,-0.0228,-0.3798,-0.0996,1.2681,0.5991,1.6635,0.4633,1.4315,-0.0028,0.7912,-0.1484,2.9666,0.9857,1.7006,0.0068
0.823,-0.0228,-0.3798,-0.0996,1.2681,0.5991,1.6635,0.4633,1.4315,-0.0028,0.7912,-0.1484,2.9666,0.9857,1.7006,0.0068
0.823,-0.0228,-0.3798,-0.0996,1.2681,0.5991,1.6635,0.4633,1.4315,-0.0028,0.7912,-0.1484,2.9666,0.9857,1.7006,0.0068
0.9951,-0.1052,-0.3839,-0.1101,1.1559,0.6387,1.6751,0.4467,1.523,-0.0607,0.7487,-0.1192,2.9034,1.0231,1.7085,-0.0045
0.9951,-0.1052,-0.3839,-0.1101,1.1559,0.6387,1.6751,0.4467,1.523,-0.0607,0.7487,-0.1192,2.9034,1.0231,1.7085,-0.0045
0.9852,-0.0909,-0.3743,-0.1075,1.1645,0.6262,1.8203,0.4079,1.5465,-0.0946,0.6899,-0.0984,2.8187,1.038,1.7241,-0.0271
0.9852,-0.0909,-0.3743,-0.1075,1.1645,0.6262,1.8203,0.4079,1.5465,-0.0946,0.6899,-0.0984,2.8187,1.038,1.7241,-0.0271
0.9852,-0.0909,-0.3743,-0.1075,1.1645,0.6262,1.8203,0.4079,1.5465,-0.0946,0.6899,-0.0984,2.8187,1.038,1.7241,-0.0271
0.8844,-0.0119,-0.3894,-0.1022,1.1538,0.6112,2.0176,0.3382,1.5465,-0.0946,0.6649,-0.0943,2.8187,1.038,1.7579,-0.0475
0.8844,-0.0119,-0.3894,-0.1022,1.1538,0.6112,2.0176,0.3382,1.5465,-0.0946,0.6649,-0.0943,2.8187,1.038,1.7579,-0.0475
0.8844,-0.0119,-0.3894,-0.1022,1.1538,0.6112,2.0176,0.3382,1.5465,-0.0946,0.6649,-0.0943,2.8187,1.038,1.7579,-0.0475
0.7028,0.1176,-0.4345,-0.0862,1.1517,0.5838,2.006,0.3549,1.5112,-0.0438,0.6132,-0.0996,3.0794,0.9308,1.6981,-0.0179
0.7028,0.1176,-0.4345,-0.0862,1.1517,0.5838,2.006,0.3549,1.5112,-0.0438,0.6132,-0.0996,3.0794,0.9308,1.6981,-0.0179
0.6119,0.117,-0.4428,-0.1071,1.1025,0.5638,1.8364,0.4275,1.5112,-0.0438,0.6073,-0.1069,3.1926,0.8758,1.6644,0.0026
0.6119,0.117,-0.4428,-0.1071,1.1025,0.5638,1.8364,0.4275,1.5112,-0.0438,0.6073,-0.1069,3.1926,0.8758,1.6644,0.0026
0.6119,0.117,-0.4428,-0.1071,1.1025,0.5638,1.8364,0.4275,1.5112,-0.0438,0.6073,-0.1069,3.1926,0.8758,1.6644,0.0026
0.5414,0.0876,-0.436,-0.1331,1.0619,0.5315,1.6129,0.4938,1.4668,-0.0537,0.5996,-0.1277,3.1069,0.8912,1.6282,-0.0017
0.5012,0.0477,-0.3993,-0.1697,1.0045,0.5239,1.4418,0.5291,1.4446,-0.0586,0.6125,-0.1463,3.0436,0.9285,1.5843,0.0053
0.551,0.0085,-0.3843,-0.1751,0.996,0.5362,1.3645,0.5564,1.5582,-0.1115,0.6109,-0.1598,2.8679,1.0206,1.5483,0.0011
0.551,0.0085,-0.3843,-0.1751,0.996,0.5362,1.3645,0.5564,1.5582,-0.1115,0.6109,-0.1598,2.8679,1.0206,1.5483,0.0011
0.5908,-0.0163,-0.4047,-0.1619,0.9683,0.546,1.3375,0.5533,1.6498,-0.1694,0.5989,-0.1743,2.6717,1.0899,1.4945,-0.0054
0.5908,-0.0163,-0.4047,-0.1619,0.9683,0.546,1.3375,0.5533,1.6498,-0.1694,0.5989,-0.1743,2.6717,1.0899,1.4945,-0.0054
0.5908,-0.0163,-0.4047,-0.1619,0.9683,0.546,1.3375,0.5533,1.6498,-0.1694,0.5989,-0.1743,2.6717,1.0899,1.4945,-0.0054
0.641,-0.0233,-0.4319,-0.1228,0.9874,0.5485,1.3761,0.5397,1.764,-0.2225,0.574,-0.1702,2.588,1.1045,1.4765,-0.0075
0.641,-0.0233,-0.4319,-0.1228,0.9874,0.5485,1.3761,0.5397,1.764,-0.2225,0.574,-0.1702,2.588,1.1045,1.4765,-0.0075
0.641,-0.0233,-0.4319,-0.1228,0.9874,0.5485,1.3761,0.5397,1.764,-0.2225,0.574,-0.1702,2.588,1.1045,1.4765,-0.0075
0.641,-0.0233,-0.4741,-0.0782,1.0065,0.5511,1.4147,0.5261,1.7415,-0.2272,0.5347,-0.161,2.5669,1.082,1.5178,-0.039
0.641,-0.0233,-0.4741,-0.0782,1.0065,0.5511,1.4147,0.5261,1.7415,-0.2272,0.5347,-0.161,2.5669,1.082,1.5178,-0.039
0.641,-0.0233,-0.4741,-0.0782,1.0065,0.5511,1.4147,0.5261,1.7415,-0.2272,0.5347,-0.161,2.5669,1.082,1.5178,-0.039
0.6112,0.0196,-0.5,-0.0572,1.0257,0.5536,1.4534,0.5124,1.6722,-0.1646,0.5159,-0.1496,2.5321,1.0793,1.6027,-0.0774
0.6112,0.0196,-0.5,-0.0572,1.0257,0.5536,1.4534,0.5124,1.6722,-0.1646,0.5159,-0.1496,2.5321,1.0793,1.6027,-0.0774
0.5713,0.0445,-0.5436,-0.0596,1.201,0.4824,1.5539,0.4518,1.455,-0.0367,0.4519,-0.1364,2.5521,0.9977,1.5925,-0.0907
0.5713,0.0445,-0.5436,-0.0596,1.201,0.4824,1.5539,0.4518,1.455,-0.0367,0.4519,-0.1364,2.5521,0.9977,1.5925,-0.0907
0.5212,0.0514,-0.5517,-0.0804,1.2654,0.4503,1.5267,0.4488,1.2875,-0.0159,0.4198,-0.153,2.5236,0.9338,1.4462,-0.0475
0.5212,0.0514,-0.5517,-0.0804,1.2654,0.4503,1.5267,0.4488,1.2875,-0.0159,0.4198,-0.153,2.5236,0.9338,1.4462,-0.0475
0.5212,0.0514,-0.5517,-0.0804,1.2654,0.4503,1.5267,0.4488,1.2875,-0.0159,0.4198,-0.153,2.5236,0.9338,1.4462,-0.0475
0.4911,0.0297,-0.5598,-0.1012,1.2181,0.4577,1.4723,0.443,1.0999,-0.0005,0.4123,-0.1737,2.3992,0.9041,1.3087,-0.0157
0.4911,0.0297,-0.5598,-0.1012,1.2181,0.4577,1.4723,0.443,1.0999,-0.0005,0.4123,-0.1737,2.3992,0.9041,1.3087,-0.0157
0.4811,0.0117,-0.5638,-0.1116,1.1367,0.5144,1.4452,0.4401,1.0467,-0.0325,0.4251,-0.1921,2.3307,0.899,1.1973,0.0068
0.4811,0.0117,-0.5638,-0.1116,1.1367,0.5144,1.4452,0.4401,1.0467,-0.0325,0.4251,-0.1921,2.3307,0.899,1.1973,0.0068
0.5307,-0.0273,-0.5788,-0.1063,1.0832,0.5613,1.4452,0.4401,1.0583,-0.0493,0.4326,-0.1715,2.3649,0.9015,1.1973,0.0068
0.5307,-0.0273,-0.5788,-0.1063,1.0832,0.5613,1.4452,0.4401,1.0583,-0.0493,0.4326,-0.1715,2.3649,0.9015,1.1973,0.0068
0.5307,-0.0273,-0.5788,-0.1063,1.0832,0.5613,1.4452,0.4401,1.0583,-0.0493,0.4326,-0.1715,2.3649,0.9015,1.1973,0.0068
0.6509,-0.0375,-0.5068,-0.0963,1.1345,0.6087,1.788,0.3691,1.2351,-0.0864,0.496,-0.1052,2.5582,0.9363,1.3618,-0.0092
0.6509,-0.0375,-0.5068,-0.0963,1.1345,0.6087,1.788,0.3691,1.2351,-0.0864,0.496,-0.1052,2.5582,0.9363,1.3618,-0.0092
0.6615,0.0127,-0.4632,-0.0939,1.1838,0.6288,2.0011,0.3189,1.3007,-0.0715,0.5343,-0.0811,2.7464,0.9291,1.4664,-0.0208
0.6615,0.0127,-0.4632,-0.0939,1.1838,0.6288,2.0011,0.3189,1.3007,-0.0715,0.5343,-0.0811,2.7464,0.9291,1.4664,-0.0208
0.6615,0.0127,-0.4632,-0.0939,1.1838,0.6288,2.0011,0.3189,1.3007,-0.0715,0.5343,-0.0811,2.7464,0.9291,1.4664,-0.0208
0.672,0.0631,-0.4099,-0.089,1.2897,0.6291,2.0738,0.3436,1.3666,-0.0566,0.5857,-0.0757,2.9859,0.904,1.5716,-0.0326
0.672,0.0631,-0.4099,-0.089,1.2897,0.6291,2.0738,0.3436,1.3666,-0.0566,0.5857,-0.0757,2.9859,0.904,1.5716,-0.0326
0.6219,0.1026,-0.3811,-0.0814,1.2897,0.6291,1.8851,0.4863,1.4107,-0.0467,0.6019,-0.0673,3.4203,0.7655,1.6335,-0.0375
0.6219,0.1026,-0.3811,-0.0814,1.2897,0.6291,1.8851,0.4863,1.4107,-0.0467,0.6019,-0.0673,3.4203,0.7655,1.6335,-0.0375
0.6219,0.1026,-0.3811,-0.0814,1.2897,0.6291,1.8851,0.4863,1.4107,-0.0467,0.6019,-0.0673,3.4203,0.7655,1.6335,-0.0375
0.5615,0.0913,-0.3702,-0.0971,1.1946,0.6439,1.704,0.5757,1.4446,-0.0586,0.6166,-0.0725,3.4568,0.7675,1.6438,-0.0242
0.5615,0.0913,-0.3702,-0.0971,1.1946,0.6439,1.704,0.5757,1.4446,-0.0586,0.6166,-0.0725,3.4568,0.7675,1.6438,-0.0242
0.4614,0.0726,-0.3333,-0.1339,1.1086,0.646,1.5706,0.5974,1.489,-0.0487,0.6269,-0.0714,3.379,0.825,1.6541,-0.0108
0.4614,0.0726,-0.3333,-0.1339,1.1086,0.646,1.5706,0.5974,1.489,-0.0487,0.6269,-0.0714,3.379,0.825,1.6541,-0.0108
0.4315,0.0508,-0.3073,-0.1549,1.0336,0.6631,1.4886,0.5883,1.5112,-0.0438,0.6415,-0.0766,3.2097,0.96,1.6722,-0.0087
0.4712,0.026,-0.2825,-0.1577,1.0615,0.6533,1.4886,0.5883,1.6017,-0.0629,0.6562,-0.0818,3.0403,1.0955,1.6903,-0.0066
0.4712,0.026,-0.2825,-0.1577,1.0615,0.6533,1.4886,0.5883,1.6017,-0.0629,0.6562,-0.0818,3.0403,1.0955,1.6903,-0.0066
0.501,0.0154,-0.288,-0.1499,1.0701,0.6408,1.5275,0.5745,1.7613,-0.1065,0.6709,-0.087,2.9486,1.1735,1.6903,-0.0066
0.501,0.0154,-0.288,-0.1499,1.0701,0.6408,1.5275,0.5745,1.7613,-0.1065,0.6709,-0.087,2.9486,1.1735,1.6903,-0.0066
