-36.778,-25.798,-79.104,-70.717,-25.15,-6.0942,7.6884,-3.3442,-10.402,-6.2803,-45.784,-4.6241,-11.528,-9.8671,-33.315,-20.606
-36.834,-25.56,-79.615,-70.588,-25.19,-5.9014,7.7796,-3.1194,-10.437,-6.289,-45.626,-4.5555,-11.537,-9.8603,-33.037,-20.38
-36.834,-25.56,-79.615,-70.588,-25.19,-5.9014,7.7796,-3.1194,-10.437,-6.289,-45.626,-4.5555,-11.537,-9.8603,-33.037,-20.38
-36.834,-25.56,-79.615,-70.588,-25.19,-5.9014,7.7796,-3.1194,-10.437,-6.289,-45.626,-4.5555,-11.537,-9.8603,-33.037,-20.38
-36.891,-25.324,-80.123,-70.459,-25.231,-5.7104,7.8705,-2.8956,-10.472,-6.2985,-45.467,-4.4884,-11.545,-9.8536,-32.759,-20.154
-36.891,-25.324,-80.123,-70.459,-25.231,-5.7104,7.8705,-2.8956,-10.472,-6.2985,-45.467,-4.4884,-11.545,-9.8536,-32.759,-20.154
-36.947,-25.089,-80.63,-70.33,-25.272,-5.5212,7.9611,-2.673,-10.507,-6.3088,-45.309,-4.4228,-11.554,-9.8471,-32.479,-19.929
-36.947,-25.089,-80.63,-70.33,-25.272,-5.5212,7.9611,-2.673,-10.507,-6.3088,-45.309,-4.4228,-11.554,-9.8471,-32.479,-19.929
-37.003,-24.856,-81.135,-70.202,-25.312,-5.3337,8.0514,-2.4514,-10.542,-6.3197,-45.149,-4.3586,-11.562,-9.8406,-32.199,-19.703
-37.06,-24.626,-81.638,-70.073,-25.353,-5.1481,8.1414,-2.2309,-10.577,-6.3314,-44.989,-4.2958,-11.57,-9.8343,-31.918,-19.477
-37.06,-24.626,-81.638,-70.073,-25.353,-5.1481,8.1414,-2.2309,-10.577,-6.3314,-44.989,-4.2958,-11.57,-9.8343,-31.918,-19.477
-37.115,-24.397,-82.139,-69.945,-25.393,-4.9642,8.2311,-2.0116,-10.613,-6.3438,-44.829,-4.2344,-11.577,-9.8281,-31.635,-19.252
-37.115,-24.397,-82.139,-69.945,-25.393,-4.9642,8.2311,-2.0116,-10.613,-6.3438,-44.829,-4.2344,-11.577,-9.8281,-31.635,-19.252
-37.115,-24.397,-82.139,-69.945,-25.393,-4.9642,8.2311,-2.0116,-10.613,-6.3438,-44.829,-4.2344,-11.577,-9.8281,-31.635,-19.252
-37.171,-24.17,-82.638,-69.817,-25.434,-4.7821,8.3206,-1.7932,-10.648,-6.3569,-44.667,-4.1744,-11.585,-9.822,-31.352,-19.026
-37.171,-24.17,-82.638,-69.817,-25.434,-4.7821,8.3206,-1.7932,-10.648,-6.3569,-44.667,-4.1744,-11.585,-9.822,-31.352,-19.026
-37.171,-24.17,-82.638,-69.817,-25.434,-4.7821,8.3206,-1.7932,-10.648,-6.3569,-44.667,-4.1744,-11.585,-9.822,-31.352,-19.026
-37.227,-23.945,-83.136,-69.688,-25.474,-4.6017,8.4098,-1.576,-10.683,-6.3708,-44.506,-4.1158,-11.592,-9.816,-31.068,-18.801
-37.227,-23.945,-83.136,-69.688,-25.474,-4.6017,8.4098,-1.576,-10.683,-6.3708,-44.506,-4.1158,-11.592,-9.816,-31.068,-18.801
-37.227,-23.945,-83.136,-69.688,-25.474,-4.6017,8.4098,-1.576,-10.683,-6.3708,-44.506,-4.1158,-11.592,-9.816,-31.068,-18.801
-37.338,-23.501,-84.125,-69.433,-25.555,-4.2464,8.5874,-1.1448,-10.754,-6.4004,-44.181,-4.0028,-11.607,-9.8042,-30.497,-18.351
-37.338,-23.501,-84.125,-69.433,-25.555,-4.2464,8.5874,-1.1448,-10.754,-6.4004,-44.181,-4.0028,-11.607,-9.8042,-30.497,-18.351
-37.338,-23.501,-84.125,-69.433,-25.555,-4.2464,8.5874,-1.1448,-10.754,-6.4004,-44.181,-4.0028,-11.607,-9.8042,-30.497,-18.351
-37.393,-23.282,-84.617,-69.305,-25.596,-4.0713,8.6758,-0.93087,-10.79,-6.4163,-44.018,-3.9484,-11.614,-9.7984,-30.211,-18.126
-37.448,-23.064,-85.108,-69.178,-25.636,-3.898,8.764,-0.71799,-10.825,-6.4328,-43.854,-3.8953,-11.62,-9.7926,-29.923,-17.901
-37.448,-23.064,-85.108,-69.178,-25.636,-3.898,8.764,-0.71799,-10.825,-6.4328,-43.854,-3.8953,-11.62,-9.7926,-29.923,-17.901
-37.502,-22.849,-85.596,-69.051,-25.676,-3.7265,8.8519,-0.50619,-10.861,-6.4499,-43.69,-3.8436,-11.627,-9.787,-29.635,-17.676
-37.502,-22.849,-85.596,-69.051,-25.676,-3.7265,8.8519,-0.50619,-10.861,-6.4499,-43.69,-3.8436,-11.627,-9.787,-29.635,-17.676
-37.557,-22.635,-86.083,-68.924,-25.717,-3.5567,8.9396,-0.29547,-10.896,-6.4677,-43.526,-3.7932,-11.633,-9.7813,-29.345,-17.451
-37.557,-22.635,-86.083,-68.924,-25.717,-3.5567,8.9396,-0.29547,-10.896,-6.4677,-43.526,-3.7932,-11.633,-9.7813,-29.345,-17.451
-37.611,-22.424,-86.568,-68.798,-25.757,-3.3887,9.0271,-0.085838,-10.932,-6.4861,-43.361,-3.7441,-11.64,-9.7758,-29.055,-17.227
-37.611,-22.424,-86.568,-68.798,-25.757,-3.3887,9.0271,-0.085838,-10.932,-6.4861,-43.361,-3.7441,-11.64,-9.7758,-29.055,-17.227
-37.665,-22.214,-87.052,-68.671,-25.797,-3.2225,9.1143,0.12271,-10.968,-6.5052,-43.195,-3.6964,-11.646,-9.7702,-28.764,-17.002
-37.665,-22.214,-87.052,-68.671,-25.797,-3.2225,9.1143,0.12271,-10.968,-6.5052,-43.195,-3.6964,-11.646,-9.7702,-28.764,-17.002
-37.719,-22.006,-87.533,-68.546,-25.837,-3.0579,9.2013,0.33019,-11.003,-6.5248,-43.029,-3.6499,-11.651,-9.7647,-28.473,-16.778
-37.719,-22.006,-87.533,-68.546,-25.837,-3.0579,9.2013,0.33019,-11.003,-6.5248,-43.029,-3.6499,-11.651,-9.7647,-28.473,-16.778
-37.773,-21.8,-88.013,-68.42,-25.877,-2.8951,9.2881,0.53658,-11.039,-6.545,-42.863,-3.6048,-11.657,-9.7591,-28.18,-16.554
-37.773,-21.8,-88.013,-68.42,-25.877,-2.8951,9.2881,0.53658,-11.039,-6.545,-42.863,-3.6048,-11.657,-9.7591,-28.18,-16.554
-37.827,-21.596,-88.492,-68.295,-25.917,-2.7341,9.3746,0.74189,-11.075,-6.5659,-42.696,-3.561,-11.663,-9.7536,-27.887,-16.33
-37.88,-21.394,-88.968,-68.17,-25.957,-2.5747,9.4609,0.94612,-11.111,-6.5873,-42.528,-3.5185,-11.668,-9.7481,-27.593,-16.106
-37.88,-21.394,-88.968,-68.17,-25.957,-2.5747,9.4609,0.94612,-11.111,-6.5873,-42.528,-3.5185,-11.668,-9.7481,-27.593,-16.106
-37.933,-21.194,-89.443,-68.045,-25.997,-2.4171,9.5471,1.1493,-11.147,-6.6092,-42.36,-3.4772,-11.673,-9.7426,-27.298,-15.882
-37.933,-21.194,-89.443,-68.045,-25.997,-2.4171,9.5471,1.1493,-11.147,-6.6092,-42.36,-3.4772,-11.673,-9.7426,-27.298,-15.882
-37.933,-21.194,-89.443,-68.045,-25.997,-2.4171,9.5471,1.1493,-11.147,-6.6092,-42.36,-3.4772,-11.673,-9.7426,-27.298,-15.882
-37.986,-20.995,-89.917,-67.921,-26.037,-2.2612,9.633,1.3513,-11.183,-6.6317,-42.192,-3.4372,-11.678,-9.737,-27.002,-15.658
-37.986,-20.995,-89.917,-67.921,-26.037,-2.2612,9.633,1.3513,-11.183,-6.6317,-42.192,-3.4372,-11.678,-9.737,-27.002,-15.658
-38.038,-20.799,-90.388,-67.797,-26.077,-2.1071,9.7187,1.5523,-11.219,-6.6548,-42.023,-3.3984,-11.683,-9.7315,-26.706,-15.434
-38.091,-20.604,-90.858,-67.674,-26.116,-1.9546,9.8043,1.7523,-11.255,-6.6784,-41.854,-3.3609,-11.687,-9.7259,-26.409,-15.211
-38.091,-20.604,-90.858,-67.674,-26.116,-1.9546,9.8043,1.7523,-11.255,-6.6784,-41.854,-3.3609,-11.687,-9.7259,-26.409,-15.211
-38.143,-20.412,-91.327,-67.551,-26.156,-1.8039,9.8896,1.9511,-11.291,-6.7025,-41.684,-3.3246,-11.692,-9.7203,-26.111,-14.987
-38.143,-20.412,-91.327,-67.551,-26.156,-1.8039,9.8896,1.9511,-11.291,-6.7025,-41.684,-3.3246,-11.692,-9.7203,-26.111,-14.987
-38.143,-20.412,-91.327,-67.551,-26.156,-1.8039,9.8896,1.9511,-11.291,-6.7025,-41.684,-3.3246,-11.692,-9.7203,-26.111,-14.987
-38.194,-20.221,-91.794,-67.428,-26.196,-1.6548,9.9748,2.1489,-11.327,-6.7271,-41.514,-3.2896,-11.696,-9.7146,-25.812,-14.764
-38.194,-20.221,-91.794,-67.428,-26.196,-1.6548,9.9748,2.1489,-11.327,-6.7271,-41.514,-3.2896,-11.696,-9.7146,-25.812,-14.764
-38.246,-20.032,-92.259,-67.306,-26.235,-1.5075,10.06,2.3456,-11.363,-6.7523,-41.344,-3.2557,-11.7,-9.7089,-25.513,-14.541
-38.246,-20.032,-92.259,-67.306,-26.235,-1.5075,10.06,2.3456,-11.363,-6.7523,-41.344,-3.2557,-11.7,-9.7089,-25.513,-14.541
-38.297,-19.844,-92.723,-67.184,-26.274,-1.3618,10.145,2.5412,-11.399,-6.7779,-41.173,-3.2231,-11.704,-9.7031,-25.213,-14.317
-38.297,-19.844,-92.723,-67.184,-26.274,-1.3618,10.145,2.5412,-11.399,-6.7779,-41.173,-3.2231,-11.704,-9.7031,-25.213,-14.317
-38.297,-19.844,-92.723,-67.184,-26.274,-1.3618,10.145,2.5412,-11.399,-6.7779,-41.173,-3.2231,-11.704,-9.7031,-25.213,-14.317
-38.348,-19.659,-93.185,-67.063,-26.314,-1.2178,10.229,2.7358,-11.435,-6.804,-41.002,-3.1916,-11.708,-9.6973,-24.912,-14.094
-38.348,-19.659,-93.185,-67.063,-26.314,-1.2178,10.229,2.7358,-11.435,-6.804,-41.002,-3.1916,-11.708,-9.6973,-24.912,-14.094
-38.348,-19.659,-93.185,-67.063,-26.314,-1.2178,10.229,2.7358,-11.435,-6.804,-41.002,-3.1916,-11.708,-9.6973,-24.912,-14.094
-38.449,-19.294,-94.105,-66.822,-26.392,-0.93493,10.398,3.1217,-11.507,-6.8576,-40.658,-3.1322,-11.715,-9.6853,-24.309,-13.649
-38.449,-19.294,-94.105,-66.822,-26.392,-0.93493,10.398,3.1217,-11.507,-6.8576,-40.658,-3.1322,-11.715,-9.6853,-24.309,-13.649
-38.499,-19.114,-94.563,-66.702,-26.431,-0.79599,10.482,3.3131,-11.543,-6.885,-40.485,-3.1043,-11.718,-9.6792,-24.006,-13.426
-38.499,-19.114,-94.563,-66.702,-26.431,-0.79599,10.482,3.3131,-11.543,-6.885,-40.485,-3.1043,-11.718,-9.6792,-24.006,-13.426
-38.549,-18.936,-95.019,-66.583,-26.469,-0.6587,10.566,3.5034,-11.579,-6.9129,-40.312,-3.0774,-11.721,-9.6731,-23.703,-13.204
-38.549,-18.936,-95.019,-66.583,-26.469,-0.6587,10.566,3.5034,-11.579,-6.9129,-40.312,-3.0774,-11.721,-9.6731,-23.703,-13.204
-38.599,-18.76,-95.474,-66.464,-26.508,-0.52308,10.65,3.6926,-11.615,-6.9413,-40.139,-3.0518,-11.724,-9.6668,-23.399,-12.981
-38.648,-18.586,-95.927,-66.346,-26.547,-0.3891,10.733,3.8808,-11.651,-6.97,-39.965,-3.0272,-11.726,-9.6604,-23.094,-12.759
-38.648,-18.586,-95.927,-66.346,-26.547,-0.3891,10.733,3.8808,-11.651,-6.97,-39.965,-3.0272,-11.726,-9.6604,-23.094,-12.759
-38.648,-18.586,-95.927,-66.346,-26.547,-0.3891,10.733,3.8808,-11.651,-6.97,-39.965,-3.0272,-11.726,-9.6604,-23.094,-12.759
-38.697,-18.413,-96.379,-66.229,-26.585,-0.25678,10.817,4.0679,-11.687,-6.9992,-39.791,-3.0037,-11.729,-9.6539,-22.789,-12.537
-38.697,-18.413,-96.379,-66.229,-26.585,-0.25678,10.817,4.0679,-11.687,-6.9992,-39.791,-3.0037,-11.729,-9.6539,-22.789,-12.537
-38.745,-18.242,-96.829,-66.112,-26.623,-0.12609,10.9,4.2539,-11.723,-7.0287,-39.617,-2.9814,-11.731,-9.6473,-22.483,-12.315
-38.745,-18.242,-96.829,-66.112,-26.623,-0.12609,10.9,4.2539,-11.723,-7.0287,-39.617,-2.9814,-11.731,-9.6473,-22.483,-12.315
-38.793,-18.073,-97.278,-65.995,-26.662,0.002969,10.984,4.4389,-11.759,-7.0586,-39.442,-2.9601,-11.733,-9.6405,-22.177,-12.093
-38.793,-18.073,-97.278,-65.995,-26.662,0.002969,10.984,4.4389,-11.759,-7.0586,-39.442,-2.9601,-11.733,-9.6405,-22.177,-12.093
-38.841,-17.906,-97.726,-65.88,-26.7,0.1304,11.067,4.6229,-11.795,-7.0889,-39.267,-2.9399,-11.735,-9.6336,-21.87,-11.871
-38.841,-17.906,-97.726,-65.88,-26.7,0.1304,11.067,4.6229,-11.795,-7.0889,-39.267,-2.9399,-11.735,-9.6336,-21.87,-11.871
-38.889,-17.741,-98.172,-65.765,-26.738,0.25621,11.15,4.8058,-11.831,-7.1195,-39.091,-2.9208,-11.737,-9.6266,-21.562,-11.649
-38.889,-17.741,-98.172,-65.765,-26.738,0.25621,11.15,4.8058,-11.831,-7.1195,-39.091,-2.9208,-11.737,-9.6266,-21.562,-11.649
-38.936,-17.577,-98.617,-65.65,-26.775,0.38041,11.232,4.9876,-11.867,-7.1505,-38.915,-2.9027,-11.738,-9.6194,-21.254,-11.428
-38.936,-17.577,-98.617,-65.65,-26.775,0.38041,11.232,4.9876,-11.867,-7.1505,-38.915,-2.9027,-11.738,-9.6194,-21.254,-11.428
-38.982,-17.415,-99.06,-65.536,-26.813,0.503,11.315,5.1684,-11.903,-7.1819,-38.739,-2.8856,-11.74,-9.6121,-20.946,-11.206
-38.982,-17.415,-99.06,-65.536,-26.813,0.503,11.315,5.1684,-11.903,-7.1819,-38.739,-2.8856,-11.74,-9.6121,-20.946,-11.206
-39.029,-17.255,-99.502,-65.423,-26.85,0.62399,11.398,5.3481,-11.939,-7.2135,-38.563,-2.8696,-11.741,-9.6046,-20.636,-10.985
-39.029,-17.255,-99.502,-65.423,-26.85,0.62399,11.398,5.3481,-11.939,-7.2135,-38.563,-2.8696,-11.741,-9.6046,-20.636,-10.985
-39.075,-17.097,-99.943,-65.31,-26.888,0.74339,11.48,5.5268,-11.975,-7.2455,-38.386,-2.8546,-11.742,-9.5969,-20.327,-10.764
-39.12,-16.941,-100.38,-65.199,-26.925,0.86121,11.563,5.7044,-12.011,-7.2777,-38.209,-2.8406,-11.743,-9.589,-20.017,-10.543
-39.12,-16.941,-100.38,-65.199,-26.925,0.86121,11.563,5.7044,-12.011,-7.2777,-38.209,-2.8406,-11.743,-9.589,-20.017,-10.543
-39.166,-16.786,-100.82,-65.087,-26.962,0.97745,11.645,5.8811,-12.047,-7.3103,-38.031,-2.8276,-11.743,-9.581,-19.706,-10.322
-39.166,-16.786,-100.82,-65.087,-26.962,0.97745,11.645,5.8811,-12.047,-7.3103,-38.031,-2.8276,-11.743,-9.581,-19.706,-10.322
-39.166,-16.786,-100.82,-65.087,-26.962,0.97745,11.645,5.8811,-12.047,-7.3103,-38.031,-2.8276,-11.743,-9.581,-19.706,-10.322
-39.21,-16.633,-101.26,-64.977,-26.999,1.0921,11.727,6.0566,-12.082,-7.3431,-37.853,-2.8155,-11.744,-9.5728,-19.395,-10.101
-39.21,-16.633,-101.26,-64.977,-26.999,1.0921,11.727,6.0566,-12.082,-7.3431,-37.853,-2.8155,-11.744,-9.5728,-19.395,-10.101
-39.21,-16.633,-101.26,-64.977,-26.999,1.0921,11.727,6.0566,-12.082,-7.3431,-37.853,-2.8155,-11.744,-9.5728,-19.395,-10.101
-39.255,-16.481,-101.69,-64.867,-27.035,1.2052,11.809,6.2311,-12.118,-7.3762,-37.675,-2.8044,-11.744,-9.5644,-19.084,-9.8802
-39.255,-16.481,-101.69,-64.867,-27.035,1.2052,11.809,6.2311,-12.118,-7.3762,-37.675,-2.8044,-11.744,-9.5644,-19.084,-9.8802
-39.299,-16.332,-102.13,-64.758,-27.072,1.3168,11.891,6.4046,-12.154,-7.4096,-37.497,-2.7943,-11.744,-9.5558,-18.772,-9.6597
-39.299,-16.332,-102.13,-64.758,-27.072,1.3168,11.891,6.4046,-12.154,-7.4096,-37.497,-2.7943,-11.744,-9.5558,-18.772,-9.6597
-39.342,-16.184,-102.56,-64.65,-27.108,1.4268,11.973,6.5771,-12.189,-7.4432,-37.318,-2.7851,-11.744,-9.547,-18.459,-9.4394
-39.342,-16.184,-102.56,-64.65,-27.108,1.4268,11.973,6.5771,-12.189,-7.4432,-37.318,-2.7851,-11.744,-9.547,-18.459,-9.4394
-39.385,-16.038,-102.99,-64.542,-27.144,1.5352,12.054,6.7485,-12.225,-7.477,-37.139,-2.7769,-11.744,-9.5379,-18.146,-9.2192
-39.428,-15.893,-103.42,-64.435,-27.18,1.6422,12.136,6.9189,-12.26,-7.511,-36.96,-2.7695,-11.743,-9.5287,-17.833,-8.9991
-39.428,-15.893,-103.42,-64.435,-27.18,1.6422,12.136,6.9189,-12.26,-7.511,-36.96,-2.7695,-11.743,-9.5287,-17.833,-8.9991
-39.47,-15.75,-103.85,-64.329,-27.216,1.7476,12.218,7.0883,-12.296,-7.5453,-36.78,-2.7631,-11.742,-9.5192,-17.519,-8.7792
-39.47,-15.75,-103.85,-64.329,-27.216,1.7476,12.218,7.0883,-12.296,-7.5453,-36.78,-2.7631,-11.742,-9.5192,-17.519,-8.7792
-39.47,-15.75,-103.85,-64.329,-27.216,1.7476,12.218,7.0883,-12.296,-7.5453,-36.78,-2.7631,-11.742,-9.5192,-17.519,-8.7792
-39.512,-15.609,-104.28,-64.224,-27.251,1.8515,12.299,7.2566,-12.331,-7.5798,-36.601,-2.7575,-11.742,-9.5095,-17.206,-8.5594
-39.512,-15.609,-104.28,-64.224,-27.251,1.8515,12.299,7.2566,-12.331,-7.5798,-36.601,-2.7575,-11.742,-9.5095,-17.206,-8.5594
-39.553,-15.47,-104.71,-64.12,-27.286,1.9539,12.38,7.4239,-12.366,-7.6144,-36.42,-2.7528,-11.741,-9.4996,-16.891,-8.3398
-39.553,-15.47,-104.71,-64.12,-27.286,1.9539,12.38,7.4239,-12.366,-7.6144,-36.42,-2.7528,-11.741,-9.4996,-16.891,-8.3398
-39.634,-15.196,-105.56,-63.913,-27.356,2.1542,12.543,7.7555,-12.437,-7.6842,-36.059,-2.746,-11.738,-9.4789,-16.261,-7.9011
-39.634,-15.196,-105.56,-63.913,-27.356,2.1542,12.543,7.7555,-12.437,-7.6842,-36.059,-2.746,-11.738,-9.4789,-16.261,-7.9011
-39.634,-15.196,-105.56,-63.913,-27.356,2.1542,12.543,7.7555,-12.437,-7.6842,-36.059,-2.746,-11.738,-9.4789,-16.261,-7.9011
-39.674,-15.061,-105.98,-63.811,-27.391,2.2521,12.624,7.9198,-12.472,-7.7193,-35.878,-2.7439,-11.736,-9.4682,-15.946,-7.682
-39.674,-15.061,-105.98,-63.811,-27.391,2.2521,12.624,7.9198,-12.472,-7.7193,-35.878,-2.7439,-11.736,-9.4682,-15.946,-7.682
-39.714,-14.928,-106.41,-63.71,-27.425,2.3486,12.705,8.083,-12.507,-7.7546,-35.697,-2.7425,-11.735,-9.4573,-15.63,-7.463
-39.753,-14.797,-106.83,-63.61,-27.46,2.4436,12.786,8.2453,-12.542,-7.79,-35.516,-2.742,-11.733,-9.4461,-15.314,-7.2442
-39.753,-14.797,-106.83,-63.61,-27.46,2.4436,12.786,8.2453,-12.542,-7.79,-35.516,-2.742,-11.733,-9.4461,-15.314,-7.2442
-39.753,-14.797,-106.83,-63.61,-27.46,2.4436,12.786,8.2453,-12.542,-7.79,-35.516,-2.742,-11.733,-9.4461,-15.314,-7.2442
-39.791,-14.667,-107.25,-63.51,-27.494,2.5371,12.867,8.4065,-12.577,-7.8255,-35.334,-2.7423,-11.73,-9.4346,-14.998,-7.0255
-39.791,-14.667,-107.25,-63.51,-27.494,2.5371,12.867,8.4065,-12.577,-7.8255,-35.334,-2.7423,-11.73,-9.4346,-14.998,-7.0255
-39.791,-14.667,-107.25,-63.51,-27.494,2.5371,12.867,8.4065,-12.577,-7.8255,-35.334,-2.7423,-11.73,-9.4346,-14.998,-7.0255
-39.791,-14.667,-107.25,-63.51,-27.494,2.5371,12.867,8.4065,-12.577,-7.8255,-35.334,-2.7423,-11.73,-9.4346,-14.998,-7.0255
-39.866,-14.413,-108.09,-63.314,-27.561,2.7199,13.028,8.7259,-12.646,-7.8969,-34.97,-2.7452,-11.726,-9.4108,-14.365,-6.5888
-39.866,-14.413,-108.09,-63.314,-27.561,2.7199,13.028,8.7259,-12.646,-7.8969,-34.97,-2.7452,-11.726,-9.4108,-14.365,-6.5888
-39.866,-14.413,-108.09,-63.314,-27.561,2.7199,13.028,8.7259,-12.646,-7.8969,-34.97,-2.7452,-11.726,-9.4108,-14.365,-6.5888
-39.939,-14.165,-108.92,-63.121,-27.627,2.8969,13.19,9.0414,-12.715,-7.9685,-34.606,-2.7511,-11.72,-9.3858,-13.731,-6.1527
-39.939,-14.165,-108.92,-63.121,-27.627,2.8969,13.19,9.0414,-12.715,-7.9685,-34.606,-2.7511,-11.72,-9.3858,-13.731,-6.1527
-39.939,-14.165,-108.92,-63.121,-27.627,2.8969,13.19,9.0414,-12.715,-7.9685,-34.606,-2.7511,-11.72,-9.3858,-13.731,-6.1527
-39.975,-14.043,-109.34,-63.026,-27.66,2.9833,13.27,9.1976,-12.749,-8.0044,-34.423,-2.7551,-11.717,-9.3728,-13.413,-5.935
-39.975,-14.043,-109.34,-63.026,-27.66,2.9833,13.27,9.1976,-12.749,-8.0044,-34.423,-2.7551,-11.717,-9.3728,-13.413,-5.935
-39.975,-14.043,-109.34,-63.026,-27.66,2.9833,13.27,9.1976,-12.749,-8.0044,-34.423,-2.7551,-11.717,-9.3728,-13.413,-5.935
-40.01,-13.923,-109.75,-62.932,-27.692,3.0683,13.351,9.3528,-12.783,-8.0404,-34.24,-2.7599,-11.714,-9.3596,-13.096,-5.7174
-40.01,-13.923,-109.75,-62.932,-27.692,3.0683,13.351,9.3528,-12.783,-8.0404,-34.24,-2.7599,-11.714,-9.3596,-13.096,-5.7174
-40.045,-13.804,-110.17,-62.838,-27.724,3.152,13.431,9.5071,-12.817,-8.0764,-34.057,-2.7654,-11.71,-9.346,-12.778,-5.5
-40.045,-13.804,-110.17,-62.838,-27.724,3.152,13.431,9.5071,-12.817,-8.0764,-34.057,-2.7654,-11.71,-9.346,-12.778,-5.5
-40.079,-13.687,-110.58,-62.746,-27.756,3.2342,13.512,9.6603,-12.851,-8.1124,-33.873,-2.7715,-11.707,-9.3322,-12.46,-5.2829
-40.113,-13.571,-110.99,-62.654,-27.788,3.3151,13.592,9.8126,-12.884,-8.1485,-33.69,-2.7783,-11.703,-9.318,-12.142,-5.0659
-40.113,-13.571,-110.99,-62.654,-27.788,3.3151,13.592,9.8126,-12.884,-8.1485,-33.69,-2.7783,-11.703,-9.318,-12.142,-5.0659
-40.145,-13.457,-111.4,-62.564,-27.819,3.3946,13.672,9.9639,-12.918,-8.1845,-33.506,-2.7858,-11.699,-9.3034,-11.824,-4.8491
-40.145,-13.457,-111.4,-62.564,-27.819,3.3946,13.672,9.9639,-12.918,-8.1845,-33.506,-2.7858,-11.699,-9.3034,-11.824,-4.8491
-40.178,-13.345,-111.81,-62.474,-27.85,3.4728,13.753,10.114,-12.951,-8.2205,-33.322,-2.7939,-11.695,-9.2886,-11.505,-4.6325
-40.178,-13.345,-111.81,-62.474,-27.85,3.4728,13.753,10.114,-12.951,-8.2205,-33.322,-2.7939,-11.695,-9.2886,-11.505,-4.6325
-40.209,-13.234,-112.22,-62.386,-27.881,3.5496,13.833,10.264,-12.985,-8.2565,-33.138,-2.8027,-11.691,-9.2734,-11.187,-4.4161
-40.209,-13.234,-112.22,-62.386,-27.881,3.5496,13.833,10.264,-12.985,-8.2565,-33.138,-2.8027,-11.691,-9.2734,-11.187,-4.4161
-40.209,-13.234,-112.22,-62.386,-27.881,3.5496,13.833,10.264,-12.985,-8.2565,-33.138,-2.8027,-11.691,-9.2734,-11.187,-4.4161
-40.241,-13.124,-112.63,-62.298,-27.911,3.6251,13.913,10.412,-13.018,-8.2925,-32.954,-2.8121,-11.686,-9.2579,-10.868,-4.1999
-40.271,-13.016,-113.04,-62.211,-27.941,3.6993,13.993,10.559,-13.051,-8.3284,-32.77,-2.822,-11.682,-9.242,-10.55,-3.984
-40.301,-12.909,-113.44,-62.126,-27.971,3.7722,14.073,10.706,-13.084,-8.3643,-32.585,-2.8326,-11.677,-9.2258,-10.231,-3.7682
-40.301,-12.909,-113.44,-62.126,-27.971,3.7722,14.073,10.706,-13.084,-8.3643,-32.585,-2.8326,-11.677,-9.2258,-10.231,-3.7682
-40.33,-12.804,-113.85,-62.041,-28.001,3.8438,14.153,10.851,-13.116,-8.4001,-32.4,-2.8437,-11.672,-9.2092,-9.9124,-3.5527
-40.33,-12.804,-113.85,-62.041,-28.001,3.8438,14.153,10.851,-13.116,-8.4001,-32.4,-2.8437,-11.672,-9.2092,-9.9124,-3.5527
-40.33,-12.804,-113.85,-62.041,-28.001,3.8438,14.153,10.851,-13.116,-8.4001,-32.4,-2.8437,-11.672,-9.2092,-9.9124,-3.5527
-40.359,-12.7,-114.26,-61.957,-28.03,3.9141,14.233,10.996,-13.149,-8.4358,-32.215,-2.8554,-11.666,-9.1922,-9.5936,-3.3374
-40.359,-12.7,-114.26,-61.957,-28.03,3.9141,14.233,10.996,-13.149,-8.4358,-32.215,-2.8554,-11.666,-9.1922,-9.5936,-3.3374
-40.359,-12.7,-114.26,-61.957,-28.03,3.9141,14.233,10.996,-13.149,-8.4358,-32.215,-2.8554,-11.666,-9.1922,-9.5936,-3.3374
-40.387,-12.597,-114.66,-61.875,-28.059,3.9831,14.313,11.139,-13.181,-8.4714,-32.03,-2.8677,-11.661,-9.1749,-9.2749,-3.1224
-40.387,-12.597,-114.66,-61.875,-28.059,3.9831,14.313,11.139,-13.181,-8.4714,-32.03,-2.8677,-11.661,-9.1749,-9.2749,-3.1224
-40.441,-12.397,-115.47,-61.712,-28.116,4.1173,14.473,11.423,-13.245,-8.5422,-31.66,-2.8937,-11.65,-9.1391,-8.6374,-2.6929
-40.441,-12.397,-115.47,-61.712,-28.116,4.1173,14.473,11.423,-13.245,-8.5422,-31.66,-2.8937,-11.65,-9.1391,-8.6374,-2.6929
-40.467,-12.299,-115.87,-61.633,-28.144,4.1826,14.553,11.564,-13.276,-8.5775,-31.475,-2.9075,-11.644,-9.1207,-8.3187,-2.4786
-40.467,-12.299,-115.87,-61.633,-28.144,4.1826,14.553,11.564,-13.276,-8.5775,-31.475,-2.9075,-11.644,-9.1207,-8.3187,-2.4786
-40.467,-12.299,-115.87,-61.633,-28.144,4.1826,14.553,11.564,-13.276,-8.5775,-31.475,-2.9075,-11.644,-9.1207,-8.3187,-2.4786
-40.492,-12.202,-116.27,-61.554,-28.171,4.2466,14.633,11.704,-13.308,-8.6126,-31.289,-2.9218,-11.638,-9.1019,-8,-2.2645
-40.492,-12.202,-116.27,-61.554,-28.171,4.2466,14.633,11.704,-13.308,-8.6126,-31.289,-2.9218,-11.638,-9.1019,-8,-2.2645
-40.517,-12.106,-116.67,-61.476,-28.199,4.3094,14.712,11.843,-13.339,-8.6476,-31.104,-2.9366,-11.631,-9.0827,-7.6814,-2.0506
-40.517,-12.106,-116.67,-61.476,-28.199,4.3094,14.712,11.843,-13.339,-8.6476,-31.104,-2.9366,-11.631,-9.0827,-7.6814,-2.0506
-40.541,-12.012,-117.07,-61.4,-28.225,4.371,14.792,11.98,-13.37,-8.6824,-30.918,-2.9518,-11.625,-9.063,-7.3629,-1.837
-40.564,-11.919,-117.47,-61.324,-28.252,4.4314,14.872,12.117,-13.401,-8.717,-30.732,-2.9675,-11.618,-9.043,-7.0444,-1.6237
-40.564,-11.919,-117.47,-61.324,-28.252,4.4314,14.872,12.117,-13.401,-8.717,-30.732,-2.9675,-11.618,-9.043,-7.0444,-1.6237
-40.564,-11.919,-117.47,-61.324,-28.252,4.4314,14.872,12.117,-13.401,-8.717,-30.732,-2.9675,-11.618,-9.043,-7.0444,-1.6237
-40.587,-11.828,-117.87,-61.25,-28.278,4.4906,14.951,12.253,-13.431,-8.7514,-30.546,-2.9836,-11.611,-9.0226,-6.7261,-1.4106
-40.587,-11.828,-117.87,-61.25,-28.278,4.4906,14.951,12.253,-13.431,-8.7514,-30.546,-2.9836,-11.611,-9.0226,-6.7261,-1.4106
-40.587,-11.828,-117.87,-61.25,-28.278,4.4906,14.951,12.253,-13.431,-8.7514,-30.546,-2.9836,-11.611,-9.0226,-6.7261,-1.4106
-40.609,-11.737,-118.27,-61.176,-28.304,4.5487,15.031,12.388,-13.462,-8.7857,-30.36,-3.0001,-11.604,-9.0018,-6.4079,-1.1978
-40.609,-11.737,-118.27,-61.176,-28.304,4.5487,15.031,12.388,-13.462,-8.7857,-30.36,-3.0001,-11.604,-9.0018,-6.4079,-1.1978
-40.63,-11.649,-118.66,-61.104,-28.329,4.6055,15.111,12.522,-13.492,-8.8197,-30.174,-3.0171,-11.597,-8.9806,-6.0899,-0.98528
-40.65,-11.561,-119.06,-61.033,-28.355,4.6612,15.19,12.656,-13.522,-8.8535,-29.988,-3.0344,-11.59,-8.9589,-5.7719,-0.77303
-40.65,-11.561,-119.06,-61.033,-28.355,4.6612,15.19,12.656,-13.522,-8.8535,-29.988,-3.0344,-11.59,-8.9589,-5.7719,-0.77303
-40.67,-11.475,-119.46,-60.962,-28.379,4.7158,15.27,12.788,-13.551,-8.8871,-29.801,-3.0521,-11.582,-8.9369,-5.4542,-0.56106
-40.67,-11.475,-119.46,-60.962,-28.379,4.7158,15.27,12.788,-13.551,-8.8871,-29.801,-3.0521,-11.582,-8.9369,-5.4542,-0.56106
-40.689,-11.389,-119.85,-60.893,-28.403,4.7693,15.349,12.919,-13.581,-8.9204,-29.615,-3.0702,-11.575,-8.9144,-5.1366,-0.34939
-40.689,-11.389,-119.85,-60.893,-28.403,4.7693,15.349,12.919,-13.581,-8.9204,-29.615,-3.0702,-11.575,-8.9144,-5.1366,-0.34939
-40.707,-11.306,-120.25,-60.825,-28.427,4.8216,15.429,13.05,-13.61,-8.9534,-29.428,-3.0886,-11.567,-8.8915,-4.8193,-0.13801
-40.707,-11.306,-120.25,-60.825,-28.427,4.8216,15.429,13.05,-13.61,-8.9534,-29.428,-3.0886,-11.567,-8.8915,-4.8193,-0.13801
-40.724,-11.223,-120.64,-60.758,-28.451,4.8728,15.508,13.179,-13.639,-8.9862,-29.242,-3.1073,-11.559,-8.8681,-4.5021,0.073075
-40.724,-11.223,-120.64,-60.758,-28.451,4.8728,15.508,13.179,-13.639,-8.9862,-29.242,-3.1073,-11.559,-8.8681,-4.5021,0.073075
-40.741,-11.142,-121.03,-60.692,-28.474,4.9229,15.588,13.308,-13.667,-9.0188,-29.055,-3.1264,-11.551,-8.8444,-4.1852,0.28385
-40.741,-11.142,-121.03,-60.692,-28.474,4.9229,15.588,13.308,-13.667,-9.0188,-29.055,-3.1264,-11.551,-8.8444,-4.1852,0.28385
-40.757,-11.061,-121.43,-60.627,-28.497,4.972,15.667,13.435,-13.695,-9.051,-28.869,-3.1458,-11.542,-8.8202,-3.8685,0.49432
-40.757,-11.061,-121.43,-60.627,-28.497,4.972,15.667,13.435,-13.695,-9.051,-28.869,-3.1458,-11.542,-8.8202,-3.8685,0.49432
-40.772,-10.982,-121.82,-60.564,-28.519,5.02,15.746,13.562,-13.723,-9.0829,-28.682,-3.1654,-11.534,-8.7955,-3.5521,0.70447
-40.772,-10.982,-121.82,-60.564,-28.519,5.02,15.746,13.562,-13.723,-9.0829,-28.682,-3.1654,-11.534,-8.7955,-3.5521,0.70447
-40.786,-10.904,-122.21,-60.501,-28.541,5.0669,15.826,13.688,-13.751,-9.1145,-28.495,-3.1854,-11.525,-8.7704,-3.236,0.9143
-40.786,-10.904,-122.21,-60.501,-28.541,5.0669,15.826,13.688,-13.751,-9.1145,-28.495,-3.1854,-11.525,-8.7704,-3.236,0.9143
-40.786,-10.904,-122.21,-60.501,-28.541,5.0669,15.826,13.688,-13.751,-9.1145,-28.495,-3.1854,-11.525,-8.7704,-3.236,0.9143
-40.8,-10.828,-122.6,-60.439,-28.562,5.1127,15.905,13.813,-13.779,-9.1458,-28.308,-3.2056,-11.516,-8.7449,-2.9201,1.1238
-40.812,-10.752,-122.99,-60.379,-28.584,5.1576,15.984,13.937,-13.806,-9.1768,-28.121,-3.226,-11.507,-8.7189,-2.6046,1.333
-40.824,-10.678,-123.38,-60.32,-28.604,5.2014,16.064,14.06,-13.832,-9.2074,-27.935,-3.2467,-11.498,-8.6924,-2.2893,1.5418
-40.824,-10.678,-123.38,-60.32,-28.604,5.2014,16.064,14.06,-13.832,-9.2074,-27.935,-3.2467,-11.498,-8.6924,-2.2893,1.5418
-40.835,-10.604,-123.77,-60.262,-28.624,5.2442,16.143,14.183,-13.859,-9.2376,-27.748,-3.2676,-11.488,-8.6655,-1.9744,1.7503
-40.835,-10.604,-123.77,-60.262,-28.624,5.2442,16.143,14.183,-13.859,-9.2376,-27.748,-3.2676,-11.488,-8.6655,-1.9744,1.7503
-40.835,-10.604,-123.77,-60.262,-28.624,5.2442,16.143,14.183,-13.859,-9.2376,-27.748,-3.2676,-11.488,-8.6655,-1.9744,1.7503
-40.846,-10.532,-124.16,-60.205,-28.644,5.286,16.222,14.304,-13.885,-9.2675,-27.561,-3.2887,-11.479,-8.6381,-1.6599,1.9584
-40.846,-10.532,-124.16,-60.205,-28.644,5.286,16.222,14.304,-13.885,-9.2675,-27.561,-3.2887,-11.479,-8.6381,-1.6599,1.9584
-40.855,-10.461,-124.55,-60.149,-28.663,5.3268,16.301,14.425,-13.911,-9.297,-27.374,-3.31,-11.469,-8.6103,-1.3457,2.1662
-40.855,-10.461,-124.55,-60.149,-28.663,5.3268,16.301,14.425,-13.911,-9.297,-27.374,-3.31,-11.469,-8.6103,-1.3457,2.1662
-40.863,-10.391,-124.94,-60.094,-28.682,5.3667,16.38,14.544,-13.936,-9.3261,-27.187,-3.3315,-11.459,-8.582,-1.0319,2.3736
-40.863,-10.391,-124.94,-60.094,-28.682,5.3667,16.38,14.544,-13.936,-9.3261,-27.187,-3.3315,-11.459,-8.582,-1.0319,2.3736
-40.871,-10.322,-125.33,-60.04,-28.701,5.4056,16.459,14.663,-13.962,-9.3548,-27,-3.3531,-11.449,-8.5532,-0.71844,2.5807
-40.878,-10.254,-125.72,-59.988,-28.719,5.4435,16.538,14.781,-13.986,-9.3831,-26.813,-3.3749,-11.439,-8.524,-0.40542,2.7874
-40.878,-10.254,-125.72,-59.988,-28.719,5.4435,16.538,14.781,-13.986,-9.3831,-26.813,-3.3749,-11.439,-8.524,-0.40542,2.7874
-40.878,-10.254,-125.72,-59.988,-28.719,5.4435,16.538,14.781,-13.986,-9.3831,-26.813,-3.3749,-11.439,-8.524,-0.40542,2.7874
-40.878,-10.254,-125.72,-59.988,-28.719,5.4435,16.538,14.781,-13.986,-9.3831,-26.813,-3.3749,-11.439,-8.524,-0.40542,2.7874
-40.884,-10.187,-126.1,-59.936,-28.736,5.4806,16.618,14.898,-14.011,-9.4109,-26.626,-3.3969,-11.428,-8.4943,-0.092827,2.9937
-40.884,-10.187,-126.1,-59.936,-28.736,5.4806,16.618,14.898,-14.011,-9.4109,-26.626,-3.3969,-11.428,-8.4943,-0.092827,2.9937
-40.889,-10.121,-126.49,-59.886,-28.753,5.5167,16.697,15.014,-14.035,-9.4383,-26.439,-3.4189,-11.418,-8.4641,0.21933,3.1996
-40.889,-10.121,-126.49,-59.886,-28.753,5.5167,16.697,15.014,-14.035,-9.4383,-26.439,-3.4189,-11.418,-8.4641,0.21933,3.1996
-40.893,-10.057,-126.88,-59.837,-28.77,5.5519,16.776,15.13,-14.059,-9.4653,-26.252,-3.441,-11.407,-8.4334,0.53104,3.4051
-40.897,-9.9927,-127.26,-59.789,-28.786,5.5862,16.854,15.244,-14.082,-9.4918,-26.065,-3.4633,-11.396,-8.4022,0.84228,3.6102
-40.897,-9.9927,-127.26,-59.789,-28.786,5.5862,16.854,15.244,-14.082,-9.4918,-26.065,-3.4633,-11.396,-8.4022,0.84228,3.6102
-40.899,-9.9298,-127.65,-59.742,-28.801,5.6196,16.933,15.358,-14.105,-9.5178,-25.878,-3.4856,-11.385,-8.3706,1.153,3.815
-40.899,-9.9298,-127.65,-59.742,-28.801,5.6196,16.933,15.358,-14.105,-9.5178,-25.878,-3.4856,-11.385,-8.3706,1.153,3.815
-40.901,-9.8678,-128.03,-59.696,-28.816,5.6521,17.012,15.47,-14.128,-9.5434,-25.691,-3.508,-11.373,-8.3384,1.4633,4.0193
-40.901,-9.8678,-128.03,-59.696,-28.816,5.6521,17.012,15.47,-14.128,-9.5434,-25.691,-3.508,-11.373,-8.3384,1.4633,4.0193
-40.901,-9.8068,-128.42,-59.652,-28.831,5.6838,17.091,15.582,-14.15,-9.5685,-25.504,-3.5304,-11.362,-8.3058,1.7731,4.2232
-40.901,-9.8068,-128.42,-59.652,-28.831,5.6838,17.091,15.582,-14.15,-9.5685,-25.504,-3.5304,-11.362,-8.3058,1.7731,4.2232
-40.901,-9.7468,-128.8,-59.608,-28.845,5.7147,17.17,15.693,-14.172,-9.593,-25.318,-3.5529,-11.35,-8.2726,2.0823,4.4266
-40.901,-9.7468,-128.8,-59.608,-28.845,5.7147,17.17,15.693,-14.172,-9.593,-25.318,-3.5529,-11.35,-8.2726,2.0823,4.4266
-40.9,-9.6876,-129.19,-59.566,-28.859,5.7447,17.249,15.804,-14.193,-9.6171,-25.131,-3.5754,-11.339,-8.239,2.391,4.6297
-40.898,-9.6294,-129.57,-59.525,-28.872,5.7739,17.328,15.913,-14.214,-9.6406,-24.944,-3.5979,-11.327,-8.2049,2.6992,4.8323
-40.898,-9.6294,-129.57,-59.525,-28.872,5.7739,17.328,15.913,-14.214,-9.6406,-24.944,-3.5979,-11.327,-8.2049,2.6992,4.8323
-40.898,-9.6294,-129.57,-59.525,-28.872,5.7739,17.328,15.913,-14.214,-9.6406,-24.944,-3.5979,-11.327,-8.2049,2.6992,4.8323
-40.895,-9.572,-129.96,-59.485,-28.884,5.8023,17.406,16.022,-14.235,-9.6636,-24.757,-3.6204,-11.315,-8.1702,3.0067,5.0344
-40.895,-9.572,-129.96,-59.485,-28.884,5.8023,17.406,16.022,-14.235,-9.6636,-24.757,-3.6204,-11.315,-8.1702,3.0067,5.0344
-40.891,-9.5155,-130.34,-59.446,-28.896,5.8299,17.485,16.129,-14.255,-9.6861,-24.571,-3.6428,-11.302,-8.1351,3.3137,5.2361
-40.891,-9.5155,-130.34,-59.446,-28.896,5.8299,17.485,16.129,-14.255,-9.6861,-24.571,-3.6428,-11.302,-8.1351,3.3137,5.2361
-40.886,-9.4599,-130.72,-59.408,-28.908,5.8567,17.564,16.236,-14.275,-9.7079,-24.384,-3.6653,-11.29,-8.0995,3.6202,5.4374
-40.88,-9.4051,-131.1,-59.372,-28.919,5.8828,17.642,16.342,-14.294,-9.7293,-24.197,-3.6877,-11.277,-8.0633,3.926,5.6381
-40.88,-9.4051,-131.1,-59.372,-28.919,5.8828,17.642,16.342,-14.294,-9.7293,-24.197,-3.6877,-11.277,-8.0633,3.926,5.6381
-40.88,-9.4051,-131.1,-59.372,-28.919,5.8828,17.642,16.342,-14.294,-9.7293,-24.197,-3.6877,-11.277,-8.0633,3.926,5.6381
-40.873,-9.3512,-131.49,-59.337,-28.93,5.9081,17.721,16.448,-14.313,-9.75,-24.011,-3.71,-11.265,-8.0267,4.2311,5.8384
-40.873,-9.3512,-131.49,-59.337,-28.93,5.9081,17.721,16.448,-14.313,-9.75,-24.011,-3.71,-11.265,-8.0267,4.2311,5.8384
-40.865,-9.298,-131.87,-59.302,-28.939,5.9327,17.799,16.552,-14.332,-9.7702,-23.824,-3.7323,-11.252,-7.9895,4.5357,6.0383
-40.865,-9.298,-131.87,-59.302,-28.939,5.9327,17.799,16.552,-14.332,-9.7702,-23.824,-3.7323,-11.252,-7.9895,4.5357,6.0383
-40.856,-9.2456,-132.25,-59.269,-28.949,5.9565,17.878,16.656,-14.35,-9.7897,-23.638,-3.7544,-11.239,-7.9518,4.8396,6.2376
-40.856,-9.2456,-132.25,-59.269,-28.949,5.9565,17.878,16.656,-14.35,-9.7897,-23.638,-3.7544,-11.239,-7.9518,4.8396,6.2376
-40.847,-9.1941,-132.63,-59.237,-28.958,5.9797,17.956,16.759,-14.367,-9.8087,-23.452,-3.7765,-11.225,-7.9136,5.1429,6.4365
-40.836,-9.1432,-133.01,-59.207,-28.966,6.0021,18.035,16.861,-14.384,-9.827,-23.265,-3.7984,-11.212,-7.8749,5.4454,6.6348
-40.836,-9.1432,-133.01,-59.207,-28.966,6.0021,18.035,16.861,-14.384,-9.827,-23.265,-3.7984,-11.212,-7.8749,5.4454,6.6348
-40.824,-9.0932,-133.39,-59.177,-28.974,6.0239,18.113,16.962,-14.401,-9.8447,-23.079,-3.8202,-11.198,-7.8356,5.7473,6.8327
-40.824,-9.0932,-133.39,-59.177,-28.974,6.0239,18.113,16.962,-14.401,-9.8447,-23.079,-3.8202,-11.198,-7.8356,5.7473,6.8327
-40.824,-9.0932,-133.39,-59.177,-28.974,6.0239,18.113,16.962,-14.401,-9.8447,-23.079,-3.8202,-11.198,-7.8356,5.7473,6.8327
-40.824,-9.0932,-133.39,-59.177,-28.974,6.0239,18.113,16.962,-14.401,-9.8447,-23.079,-3.8202,-11.198,-7.8356,5.7473,6.8327
-40.811,-9.0438,-133.77,-59.148,-28.981,6.045,18.191,17.062,-14.417,-9.8618,-22.893,-3.8419,-11.185,-7.7959,6.0485,7.03
-40.811,-9.0438,-133.77,-59.148,-28.981,6.045,18.191,17.062,-14.417,-9.8618,-22.893,-3.8419,-11.185,-7.7959,6.0485,7.03
-40.798,-8.9952,-134.16,-59.121,-28.988,6.0654,18.27,17.162,-14.433,-9.8782,-22.707,-3.8634,-11.171,-7.7556,6.349,7.2268
-40.783,-8.9473,-134.54,-59.095,-28.994,6.0852,18.348,17.261,-14.448,-9.894,-22.521,-3.8848,-11.157,-7.7148,6.6487,7.4231
-40.767,-8.9001,-134.92,-59.07,-28.999,6.1044,18.426,17.359,-14.462,-9.9091,-22.336,-3.906,-11.143,-7.6734,6.9477,7.6189
-40.767,-8.9001,-134.92,-59.07,-28.999,6.1044,18.426,17.359,-14.462,-9.9091,-22.336,-3.906,-11.143,-7.6734,6.9477,7.6189
-40.75,-8.8535,-135.3,-59.046,-29.004,6.1229,18.504,17.456,-14.477,-9.9235,-22.15,-3.9269,-11.128,-7.6316,7.246,7.8141
-40.75,-8.8535,-135.3,-59.046,-29.004,6.1229,18.504,17.456,-14.477,-9.9235,-22.15,-3.9269,-11.128,-7.6316,7.246,7.8141
-40.732,-8.8076,-135.67,-59.023,-29.008,6.1409,18.582,17.553,-14.49,-9.9372,-21.964,-3.9477,-11.114,-7.5892,7.5434,8.0087
-40.732,-8.8076,-135.67,-59.023,-29.008,6.1409,18.582,17.553,-14.49,-9.9372,-21.964,-3.9477,-11.114,-7.5892,7.5434,8.0087
-40.732,-8.8076,-135.67,-59.023,-29.008,6.1409,18.582,17.553,-14.49,-9.9372,-21.964,-3.9477,-11.114,-7.5892,7.5434,8.0087
-40.713,-8.7624,-136.05,-59.002,-29.012,6.1582,18.66,17.649,-14.503,-9.9502,-21.779,-3.9682,-11.099,-7.5463,7.8402,8.2029
-40.713,-8.7624,-136.05,-59.002,-29.012,6.1582,18.66,17.649,-14.503,-9.9502,-21.779,-3.9682,-11.099,-7.5463,7.8402,8.2029
-40.693,-8.7178,-136.43,-58.981,-29.015,6.175,18.738,17.743,-14.516,-9.9625,-21.593,-3.9885,-11.084,-7.5028,8.1361,8.3964
-40.672,-8.6737,-136.81,-58.962,-29.018,6.1912,18.816,17.838,-14.528,-9.9741,-21.408,-4.0086,-11.069,-7.4588,8.4312,8.5894
-40.672,-8.6737,-136.81,-58.962,-29.018,6.1912,18.816,17.838,-14.528,-9.9741,-21.408,-4.0086,-11.069,-7.4588,8.4312,8.5894
-40.672,-8.6737,-136.81,-58.962,-29.018,6.1912,18.816,17.838,-14.528,-9.9741,-21.408,-4.0086,-11.069,-7.4588,8.4312,8.5894
-40.65,-8.6303,-137.19,-58.944,-29.02,6.2069,18.894,17.931,-14.54,-9.985,-21.223,-4.0284,-11.054,-7.4143,8.7255,8.7818
-40.65,-8.6303,-137.19,-58.944,-29.02,6.2069,18.894,17.931,-14.54,-9.985,-21.223,-4.0284,-11.054,-7.4143,8.7255,8.7818
-40.627,-8.5875,-137.57,-58.926,-29.021,6.222,18.972,18.024,-14.551,-9.9951,-21.038,-4.0479,-11.039,-7.3693,9.019,8.9736
-40.627,-8.5875,-137.57,-58.926,-29.021,6.222,18.972,18.024,-14.551,-9.9951,-21.038,-4.0479,-11.039,-7.3693,9.019,8.9736
-40.603,-8.5452,-137.95,-58.911,-29.022,6.2366,19.05,18.116,-14.561,-10.005,-20.853,-4.0671,-11.023,-7.3237,9.3116,9.1648
-40.603,-8.5452,-137.95,-58.911,-29.022,6.2366,19.05,18.116,-14.561,-10.005,-20.853,-4.0671,-11.023,-7.3237,9.3116,9.1648
-40.603,-8.5452,-137.95,-58.911,-29.022,6.2366,19.05,18.116,-14.561,-10.005,-20.853,-4.0671,-11.023,-7.3237,9.3116,9.1648
-40.578,-8.5034,-138.33,-58.896,-29.022,6.2507,19.127,18.207,-14.571,-10.013,-20.668,-4.086,-11.008,-7.2776,9.6034,9.3554
-40.578,-8.5034,-138.33,-58.896,-29.022,6.2507,19.127,18.207,-14.571,-10.013,-20.668,-4.086,-11.008,-7.2776,9.6034,9.3554
-40.524,-8.4215,-139.08,-58.869,-29.02,6.2774,19.283,18.387,-14.589,-10.028,-20.299,-4.123,-10.976,-7.1838,10.184,9.7349
-40.524,-8.4215,-139.08,-58.869,-29.02,6.2774,19.283,18.387,-14.589,-10.028,-20.299,-4.123,-10.976,-7.1838,10.184,9.7349
-40.524,-8.4215,-139.08,-58.869,-29.02,6.2774,19.283,18.387,-14.589,-10.028,-20.299,-4.123,-10.976,-7.1838,10.184,9.7349
-40.495,-8.3813,-139.46,-58.858,-29.019,6.2901,19.36,18.476,-14.597,-10.034,-20.115,-4.1409,-10.96,-7.136,10.474,9.9237
-40.495,-8.3813,-139.46,-58.858,-29.019,6.2901,19.36,18.476,-14.597,-10.034,-20.115,-4.1409,-10.96,-7.136,10.474,9.9237
-40.466,-8.3416,-139.84,-58.848,-29.016,6.3023,19.437,18.564,-14.605,-10.04,-19.931,-4.1585,-10.943,-7.0878,10.762,10.112
-40.466,-8.3416,-139.84,-58.848,-29.016,6.3023,19.437,18.564,-14.605,-10.04,-19.931,-4.1585,-10.943,-7.0878,10.762,10.112
-40.435,-8.3024,-140.21,-58.838,-29.013,6.3141,19.515,18.652,-14.612,-10.045,-19.747,-4.1757,-10.927,-7.039,11.049,10.299
-40.435,-8.3024,-140.21,-58.838,-29.013,6.3141,19.515,18.652,-14.612,-10.045,-19.747,-4.1757,-10.927,-7.039,11.049,10.299
-40.403,-8.2636,-140.59,-58.83,-29.009,6.3254,19.592,18.738,-14.619,-10.049,-19.563,-4.1926,-10.91,-6.9896,11.336,10.486
-40.403,-8.2636,-140.59,-58.83,-29.009,6.3254,19.592,18.738,-14.619,-10.049,-19.563,-4.1926,-10.91,-6.9896,11.336,10.486
-40.37,-8.2253,-140.97,-58.823,-29.005,6.3363,19.669,18.824,-14.624,-10.052,-19.379,-4.2091,-10.894,-6.9397,11.621,10.673
-40.37,-8.2253,-140.97,-58.823,-29.005,6.3363,19.669,18.824,-14.624,-10.052,-19.379,-4.2091,-10.894,-6.9397,11.621,10.673
-40.37,-8.2253,-140.97,-58.823,-29.005,6.3363,19.669,18.824,-14.624,-10.052,-19.379,-4.2091,-10.894,-6.9397,11.621,10.673
-40.336,-8.1873,-141.35,-58.817,-29,6.3468,19.746,18.91,-14.63,-10.054,-19.196,-4.2251,-10.877,-6.8893,11.906,10.858
-40.336,-8.1873,-141.35,-58.817,-29,6.3468,19.746,18.91,-14.63,-10.054,-19.196,-4.2251,-10.877,-6.8893,11.906,10.858
-40.265,-8.1127,-142.1,-58.808,-28.988,6.3667,19.9,19.078,-14.638,-10.056,-18.829,-4.256,-10.842,-6.7868,12.472,11.227
-40.265,-8.1127,-142.1,-58.808,-28.988,6.3667,19.9,19.078,-14.638,-10.056,-18.829,-4.256,-10.842,-6.7868,12.472,11.227
-40.265,-8.1127,-142.1,-58.808,-28.988,6.3667,19.9,19.078,-14.638,-10.056,-18.829,-4.256,-10.842,-6.7868,12.472,11.227
-40.265,-8.1127,-142.1,-58.808,-28.988,6.3667,19.9,19.078,-14.638,-10.056,-18.829,-4.256,-10.842,-6.7868,12.472,11.227
-40.228,-8.0759,-142.48,-58.806,-28.981,6.3761,19.977,19.161,-14.642,-10.056,-18.646,-4.2708,-10.825,-6.7348,12.754,11.411
-40.228,-8.0759,-142.48,-58.806,-28.981,6.3761,19.977,19.161,-14.642,-10.056,-18.646,-4.2708,-10.825,-6.7348,12.754,11.411
-40.15,-8.0034,-143.23,-58.804,-28.965,6.3939,20.131,19.325,-14.647,-10.053,-18.28,-4.299,-10.79,-6.6291,13.314,11.776
-40.15,-8.0034,-143.23,-58.804,-28.965,6.3939,20.131,19.325,-14.647,-10.053,-18.28,-4.299,-10.79,-6.6291,13.314,11.776
-40.15,-8.0034,-143.23,-58.804,-28.965,6.3939,20.131,19.325,-14.647,-10.053,-18.28,-4.299,-10.79,-6.6291,13.314,11.776
-40.109,-7.9677,-143.6,-58.804,-28.957,6.4023,20.208,19.406,-14.648,-10.05,-18.098,-4.3124,-10.772,-6.5754,13.593,11.958
-40.109,-7.9677,-143.6,-58.804,-28.957,6.4023,20.208,19.406,-14.648,-10.05,-18.098,-4.3124,-10.772,-6.5754,13.593,11.958
-40.109,-7.9677,-143.6,-58.804,-28.957,6.4023,20.208,19.406,-14.648,-10.05,-18.098,-4.3124,-10.772,-6.5754,13.593,11.958
-40.067,-7.9323,-143.98,-58.806,-28.947,6.4104,20.284,19.487,-14.649,-10.046,-17.915,-4.3253,-10.754,-6.5212,13.87,12.138
-40.024,-7.8971,-144.35,-58.808,-28.937,6.4182,20.361,19.566,-14.65,-10.041,-17.733,-4.3378,-10.736,-6.4665,14.147,12.319
-39.98,-7.8623,-144.73,-58.812,-28.926,6.4258,20.437,19.645,-14.649,-10.036,-17.551,-4.3497,-10.717,-6.4112,14.423,12.498
-39.98,-7.8623,-144.73,-58.812,-28.926,6.4258,20.437,19.645,-14.649,-10.036,-17.551,-4.3497,-10.717,-6.4112,14.423,12.498
-39.98,-7.8623,-144.73,-58.812,-28.926,6.4258,20.437,19.645,-14.649,-10.036,-17.551,-4.3497,-10.717,-6.4112,14.423,12.498
-39.934,-7.8277,-145.11,-58.817,-28.914,6.433,20.513,19.724,-14.648,-10.029,-17.369,-4.3611,-10.699,-6.3553,14.697,12.677
-39.934,-7.8277,-145.11,-58.817,-28.914,6.433,20.513,19.724,-14.648,-10.029,-17.369,-4.3611,-10.699,-6.3553,14.697,12.677
-39.934,-7.8277,-145.11,-58.817,-28.914,6.433,20.513,19.724,-14.648,-10.029,-17.369,-4.3611,-10.699,-6.3553,14.697,12.677
-39.888,-7.7933,-145.48,-58.823,-28.902,6.4401,20.589,19.801,-14.646,-10.022,-17.188,-4.3719,-10.68,-6.299,14.971,12.855
-39.84,-7.7592,-145.86,-58.829,-28.889,6.4468,20.666,19.878,-14.644,-10.013,-17.006,-4.3823,-10.661,-6.2421,15.243,13.032
-39.791,-7.7253,-146.23,-58.837,-28.875,6.4534,20.742,19.955,-14.641,-10.004,-16.825,-4.392,-10.642,-6.1846,15.515,13.208
-39.791,-7.7253,-146.23,-58.837,-28.875,6.4534,20.742,19.955,-14.641,-10.004,-16.825,-4.392,-10.642,-6.1846,15.515,13.208
-39.791,-7.7253,-146.23,-58.837,-28.875,6.4534,20.742,19.955,-14.641,-10.004,-16.825,-4.392,-10.642,-6.1846,15.515,13.208
-39.741,-7.6916,-146.6,-58.846,-28.86,6.4597,20.817,20.03,-14.637,-9.9941,-16.644,-4.4012,-10.623,-6.1266,15.785,13.384
-39.741,-7.6916,-146.6,-58.846,-28.86,6.4597,20.817,20.03,-14.637,-9.9941,-16.644,-4.4012,-10.623,-6.1266,15.785,13.384
-39.741,-7.6916,-146.6,-58.846,-28.86,6.4597,20.817,20.03,-14.637,-9.9941,-16.644,-4.4012,-10.623,-6.1266,15.785,13.384
-39.69,-7.6581,-146.98,-58.856,-28.845,6.4658,20.893,20.105,-14.633,-9.9829,-16.463,-4.4099,-10.604,-6.0681,16.054,13.559
-39.69,-7.6581,-146.98,-58.856,-28.845,6.4658,20.893,20.105,-14.633,-9.9829,-16.463,-4.4099,-10.604,-6.0681,16.054,13.559
-39.638,-7.6248,-147.35,-58.867,-28.829,6.4718,20.969,20.18,-14.628,-9.9709,-16.283,-4.4179,-10.584,-6.009,16.322,13.733
-39.584,-7.5916,-147.73,-58.879,-28.813,6.4776,21.045,20.253,-14.622,-9.9578,-16.102,-4.4253,-10.565,-5.9494,16.589,13.907
-39.584,-7.5916,-147.73,-58.879,-28.813,6.4776,21.045,20.253,-14.622,-9.9578,-16.102,-4.4253,-10.565,-5.9494,16.589,13.907
-39.529,-7.5585,-148.1,-58.891,-28.795,6.4832,21.12,20.326,-14.615,-9.9438,-15.922,-4.4322,-10.545,-5.8893,16.855,14.08
-39.529,-7.5585,-148.1,-58.891,-28.795,6.4832,21.12,20.326,-14.615,-9.9438,-15.922,-4.4322,-10.545,-5.8893,16.855,14.08
-39.473,-7.5256,-148.48,-58.905,-28.777,6.4886,21.195,20.399,-14.608,-9.9289,-15.742,-4.4384,-10.525,-5.8286,17.12,14.252
-39.473,-7.5256,-148.48,-58.905,-28.777,6.4886,21.195,20.399,-14.608,-9.9289,-15.742,-4.4384,-10.525,-5.8286,17.12,14.252
-39.416,-7.4928,-148.85,-58.92,-28.759,6.494,21.271,20.47,-14.6,-9.9129,-15.562,-4.444,-10.505,-5.7674,17.384,14.423
-39.416,-7.4928,-148.85,-58.92,-28.759,6.494,21.271,20.47,-14.6,-9.9129,-15.562,-4.444,-10.505,-5.7674,17.384,14.423
-39.358,-7.4601,-149.22,-58.936,-28.739,6.4992,21.346,20.541,-14.591,-9.896,-15.383,-4.4489,-10.485,-5.7056,17.646,14.593
-39.358,-7.4601,-149.22,-58.936,-28.739,6.4992,21.346,20.541,-14.591,-9.896,-15.383,-4.4489,-10.485,-5.7056,17.646,14.593
-39.299,-7.4274,-149.6,-58.953,-28.719,6.5043,21.421,20.612,-14.582,-9.878,-15.204,-4.4532,-10.464,-5.6433,17.907,14.763
-39.299,-7.4274,-149.6,-58.953,-28.719,6.5043,21.421,20.612,-14.582,-9.878,-15.204,-4.4532,-10.464,-5.6433,17.907,14.763
-39.238,-7.3948,-149.97,-58.97,-28.698,6.5093,21.496,20.682,-14.572,-9.8591,-15.025,-4.4568,-10.444,-5.5805,18.167,14.932
-39.238,-7.3948,-149.97,-58.97,-28.698,6.5093,21.496,20.682,-14.572,-9.8591,-15.025,-4.4568,-10.444,-5.5805,18.167,14.932
-39.176,-7.3623,-150.34,-58.989,-28.676,6.5142,21.571,20.751,-14.561,-9.8392,-14.846,-4.4598,-10.423,-5.5172,18.426,15.1
-39.176,-7.3623,-150.34,-58.989,-28.676,6.5142,21.571,20.751,-14.561,-9.8392,-14.846,-4.4598,-10.423,-5.5172,18.426,15.1
-39.113,-7.3298,-150.71,-59.009,-28.654,6.5191,21.645,20.82,-14.55,-9.8183,-14.667,-4.462,-10.402,-5.4533,18.684,15.267
-39.113,-7.3298,-150.71,-59.009,-28.654,6.5191,21.645,20.82,-14.55,-9.8183,-14.667,-4.462,-10.402,-5.4533,18.684,15.267
-39.113,-7.3298,-150.71,-59.009,-28.654,6.5191,21.645,20.82,-14.55,-9.8183,-14.667,-4.462,-10.402,-5.4533,18.684,15.267
-39.049,-7.2973,-151.09,-59.029,-28.631,6.5238,21.72,20.888,-14.537,-9.7963,-14.489,-4.4636,-10.381,-5.3889,18.941,15.434
-39.049,-7.2973,-151.09,-59.029,-28.631,6.5238,21.72,20.888,-14.537,-9.7963,-14.489,-4.4636,-10.381,-5.3889,18.941,15.434
-38.984,-7.2648,-151.46,-59.051,-28.607,6.5286,21.794,20.955,-14.524,-9.7733,-14.311,-4.4645,-10.359,-5.3239,19.196,15.6
-38.984,-7.2648,-151.46,-59.051,-28.607,6.5286,21.794,20.955,-14.524,-9.7733,-14.311,-4.4645,-10.359,-5.3239,19.196,15.6
-38.849,-7.1998,-152.2,-59.096,-28.557,6.538,21.943,21.088,-14.496,-9.7243,-13.955,-4.4641,-10.316,-5.1925,19.704,15.928
-38.849,-7.1998,-152.2,-59.096,-28.557,6.538,21.943,21.088,-14.496,-9.7243,-13.955,-4.4641,-10.316,-5.1925,19.704,15.928
-38.849,-7.1998,-152.2,-59.096,-28.557,6.538,21.943,21.088,-14.496,-9.7243,-13.955,-4.4641,-10.316,-5.1925,19.704,15.928
-38.78,-7.1672,-152.58,-59.121,-28.53,6.5427,22.017,21.154,-14.48,-9.6982,-13.778,-4.4628,-10.295,-5.126,19.955,16.092
-38.78,-7.1672,-152.58,-59.121,-28.53,6.5427,22.017,21.154,-14.48,-9.6982,-13.778,-4.4628,-10.295,-5.126,19.955,16.092
-38.71,-7.1345,-152.95,-59.146,-28.504,6.5473,22.091,21.219,-14.464,-9.6711,-13.601,-4.4608,-10.273,-5.0589,20.206,16.254
-38.71,-7.1345,-152.95,-59.146,-28.504,6.5473,22.091,21.219,-14.464,-9.6711,-13.601,-4.4608,-10.273,-5.0589,20.206,16.254
-38.639,-7.1018,-153.32,-59.172,-28.476,6.552,22.165,21.283,-14.447,-9.643,-13.424,-4.458,-10.251,-4.9914,20.455,16.416
-38.639,-7.1018,-153.32,-59.172,-28.476,6.552,22.165,21.283,-14.447,-9.643,-13.424,-4.458,-10.251,-4.9914,20.455,16.416
-38.566,-7.069,-153.69,-59.199,-28.447,6.5568,22.238,21.347,-14.43,-9.6138,-13.247,-4.4545,-10.228,-4.9233,20.703,16.577
-38.492,-7.0361,-154.06,-59.226,-28.418,6.5615,22.312,21.41,-14.411,-9.5835,-13.071,-4.4502,-10.206,-4.8547,20.95,16.737
-38.492,-7.0361,-154.06,-59.226,-28.418,6.5615,22.312,21.41,-14.411,-9.5835,-13.071,-4.4502,-10.206,-4.8547,20.95,16.737
-38.492,-7.0361,-154.06,-59.226,-28.418,6.5615,22.312,21.41,-14.411,-9.5835,-13.071,-4.4502,-10.206,-4.8547,20.95,16.737
-38.417,-7.0031,-154.43,-59.255,-28.388,6.5663,22.385,21.473,-14.392,-9.5522,-12.895,-4.4451,-10.183,-4.7856,21.196,16.896
-38.417,-7.0031,-154.43,-59.255,-28.388,6.5663,22.385,21.473,-14.392,-9.5522,-12.895,-4.4451,-10.183,-4.7856,21.196,16.896
-38.417,-7.0031,-154.43,-59.255,-28.388,6.5663,22.385,21.473,-14.392,-9.5522,-12.895,-4.4451,-10.183,-4.7856,21.196,16.896
-38.341,-6.9699,-154.8,-59.284,-28.357,6.5712,22.459,21.535,-14.372,-9.5198,-12.719,-4.4392,-10.16,-4.7159,21.44,17.054
-38.264,-6.9366,-155.17,-59.315,-28.326,6.5761,22.532,21.597,-14.351,-9.4864,-12.544,-4.4326,-10.137,-4.6458,21.683,17.212
-38.264,-6.9366,-155.17,-59.315,-28.326,6.5761,22.532,21.597,-14.351,-9.4864,-12.544,-4.4326,-10.137,-4.6458,21.683,17.212
-38.185,-6.9032,-155.54,-59.346,-28.294,6.5812,22.605,21.658,-14.329,-9.4518,-12.368,-4.4251,-10.114,-4.5751,21.925,17.368
-38.185,-6.9032,-155.54,-59.346,-28.294,6.5812,22.605,21.658,-14.329,-9.4518,-12.368,-4.4251,-10.114,-4.5751,21.925,17.368
-38.105,-6.8695,-155.91,-59.378,-28.261,6.5863,22.677,21.719,-14.307,-9.4162,-12.193,-4.4168,-10.091,-4.5039,22.166,17.524
-38.105,-6.8695,-155.91,-59.378,-28.261,6.5863,22.677,21.719,-14.307,-9.4162,-12.193,-4.4168,-10.091,-4.5039,22.166,17.524
-38.024,-6.8357,-156.28,-59.41,-28.227,6.5915,22.75,21.779,-14.284,-9.3796,-12.019,-4.4077,-10.067,-4.4323,22.405,17.679
-38.024,-6.8357,-156.28,-59.41,-28.227,6.5915,22.75,21.779,-14.284,-9.3796,-12.019,-4.4077,-10.067,-4.4323,22.405,17.679
-37.942,-6.8017,-156.65,-59.444,-28.192,6.5969,22.823,21.838,-14.26,-9.3418,-11.844,-4.3978,-10.044,-4.3601,22.643,17.833
-37.942,-6.8017,-156.65,-59.444,-28.192,6.5969,22.823,21.838,-14.26,-9.3418,-11.844,-4.3978,-10.044,-4.3601,22.643,17.833
-37.859,-6.7674,-157.02,-59.478,-28.157,6.6024,22.895,21.897,-14.235,-9.303,-11.67,-4.387,-10.02,-4.2874,22.879,17.987
-37.859,-6.7674,-157.02,-59.478,-28.157,6.6024,22.895,21.897,-14.235,-9.303,-11.67,-4.387,-10.02,-4.2874,22.879,17.987
-37.859,-6.7674,-157.02,-59.478,-28.157,6.6024,22.895,21.897,-14.235,-9.303,-11.67,-4.387,-10.02,-4.2874,22.879,17.987
-37.774,-6.7329,-157.39,-59.513,-28.121,6.608,22.967,21.956,-14.209,-9.263,-11.496,-4.3754,-9.9958,-4.2142,23.115,18.139
-37.774,-6.7329,-157.39,-59.513,-28.121,6.608,22.967,21.956,-14.209,-9.263,-11.496,-4.3754,-9.9958,-4.2142,23.115,18.139
-37.774,-6.7329,-157.39,-59.513,-28.121,6.608,22.967,21.956,-14.209,-9.263,-11.496,-4.3754,-9.9958,-4.2142,23.115,18.139
-37.602,-6.6631,-158.12,-59.585,-28.046,6.6198,23.111,22.071,-14.155,-9.1798,-11.149,-4.3496,-9.9472,-4.0663,23.582,18.441
-37.602,-6.6631,-158.12,-59.585,-28.046,6.6198,23.111,22.071,-14.155,-9.1798,-11.149,-4.3496,-9.9472,-4.0663,23.582,18.441
-37.513,-6.6279,-158.49,-59.623,-28.007,6.6259,23.183,22.128,-14.127,-9.1366,-10.976,-4.3353,-9.9226,-3.9915,23.813,18.591
-37.513,-6.6279,-158.49,-59.623,-28.007,6.6259,23.183,22.128,-14.127,-9.1366,-10.976,-4.3353,-9.9226,-3.9915,23.813,18.591
-37.424,-6.5923,-158.86,-59.661,-27.968,6.6322,23.255,22.185,-14.098,-9.0923,-10.804,-4.3202,-9.8979,-3.9164,24.043,18.741
-37.424,-6.5923,-158.86,-59.661,-27.968,6.6322,23.255,22.185,-14.098,-9.0923,-10.804,-4.3202,-9.8979,-3.9164,24.043,18.741
-37.334,-6.5564,-159.23,-59.7,-27.928,6.6387,23.326,22.241,-14.068,-9.0468,-10.631,-4.3043,-9.8729,-3.8407,24.272,18.889
-37.242,-6.5202,-159.59,-59.739,-27.887,6.6454,23.397,22.296,-14.038,-9.0003,-10.459,-4.2874,-9.8478,-3.7645,24.499,19.036
-37.242,-6.5202,-159.59,-59.739,-27.887,6.6454,23.397,22.296,-14.038,-9.0003,-10.459,-4.2874,-9.8478,-3.7645,24.499,19.036
-37.242,-6.5202,-159.59,-59.739,-27.887,6.6454,23.397,22.296,-14.038,-9.0003,-10.459,-4.2874,-9.8478,-3.7645,24.499,19.036
-37.149,-6.4836,-159.96,-59.779,-27.845,6.6524,23.469,22.351,-14.006,-8.9526,-10.287,-4.2696,-9.8225,-3.6878,24.725,19.183
-37.149,-6.4836,-159.96,-59.779,-27.845,6.6524,23.469,22.351,-14.006,-8.9526,-10.287,-4.2696,-9.8225,-3.6878,24.725,19.183
-37.055,-6.4468,-160.33,-59.82,-27.803,6.6595,23.54,22.406,-13.974,-8.9039,-10.116,-4.2509,-9.797,-3.6106,24.95,19.329
-37.055,-6.4468,-160.33,-59.82,-27.803,6.6595,23.54,22.406,-13.974,-8.9039,-10.116,-4.2509,-9.797,-3.6106,24.95,19.329
-37.055,-6.4468,-160.33,-59.82,-27.803,6.6595,23.54,22.406,-13.974,-8.9039,-10.116,-4.2509,-9.797,-3.6106,24.95,19.329
-36.96,-6.4095,-160.69,-59.862,-27.759,6.6669,23.61,22.46,-13.941,-8.854,-9.9444,-4.2313,-9.7713,-3.533,25.173,19.474
-36.96,-6.4095,-160.69,-59.862,-27.759,6.6669,23.61,22.46,-13.941,-8.854,-9.9444,-4.2313,-9.7713,-3.533,25.173,19.474
-36.96,-6.4095,-160.69,-59.862,-27.759,6.6669,23.61,22.46,-13.941,-8.854,-9.9444,-4.2313,-9.7713,-3.533,25.173,19.474
-36.766,-6.3339,-161.42,-59.947,-27.67,6.6825,23.751,22.566,-13.872,-8.7509,-9.6028,-4.1893,-9.7193,-3.3763,25.616,19.761
-36.766,-6.3339,-161.42,-59.947,-27.67,6.6825,23.751,22.566,-13.872,-8.7509,-9.6028,-4.1893,-9.7193,-3.3763,25.616,19.761
-36.766,-6.3339,-161.42,-59.947,-27.67,6.6825,23.751,22.566,-13.872,-8.7509,-9.6028,-4.1893,-9.7193,-3.3763,25.616,19.761
-36.667,-6.2955,-161.79,-59.99,-27.625,6.6907,23.822,22.619,-13.836,-8.6976,-9.4325,-4.1669,-9.6931,-3.2972,25.835,19.903
-36.667,-6.2955,-161.79,-59.99,-27.625,6.6907,23.822,22.619,-13.836,-8.6976,-9.4325,-4.1669,-9.6931,-3.2972,25.835,19.903
-36.567,-6.2566,-162.15,-60.034,-27.578,6.6991,23.892,22.671,-13.799,-8.6433,-9.2625,-4.1435,-9.6666,-3.2176,26.053,20.045
-36.466,-6.2174,-162.51,-60.079,-27.531,6.7079,23.962,22.723,-13.762,-8.5878,-9.0928,-4.1192,-9.6399,-3.1376,26.27,20.186
-36.363,-6.1777,-162.88,-60.125,-27.483,6.7169,24.032,22.775,-13.723,-8.5312,-8.9234,-4.094,-9.6131,-3.0571,26.485,20.326
-36.363,-6.1777,-162.88,-60.125,-27.483,6.7169,24.032,22.775,-13.723,-8.5312,-8.9234,-4.094,-9.6131,-3.0571,26.485,20.326
-36.363,-6.1777,-162.88,-60.125,-27.483,6.7169,24.032,22.775,-13.723,-8.5312,-8.9234,-4.094,-9.6131,-3.0571,26.485,20.326
-36.26,-6.1375,-163.24,-60.171,-27.434,6.7263,24.101,22.826,-13.684,-8.4735,-8.7543,-4.0677,-9.586,-2.9762,26.699,20.465
-36.26,-6.1375,-163.24,-60.171,-27.434,6.7263,24.101,22.826,-13.684,-8.4735,-8.7543,-4.0677,-9.586,-2.9762,26.699,20.465
-36.155,-6.0969,-163.6,-60.217,-27.384,6.7359,24.171,22.876,-13.644,-8.4146,-8.5856,-4.0405,-9.5588,-2.8947,26.911,20.603
-36.05,-6.0558,-163.96,-60.264,-27.333,6.7459,24.24,22.926,-13.603,-8.3546,-8.4171,-4.0123,-9.5313,-2.8128,27.122,20.741
-36.05,-6.0558,-163.96,-60.264,-27.333,6.7459,24.24,22.926,-13.603,-8.3546,-8.4171,-4.0123,-9.5313,-2.8128,27.122,20.741
-35.943,-6.0142,-164.33,-60.312,-27.282,6.7563,24.309,22.976,-13.561,-8.2935,-8.249,-3.9832,-9.5036,-2.7305,27.332,20.877
-35.943,-6.0142,-164.33,-60.312,-27.282,6.7563,24.309,22.976,-13.561,-8.2935,-8.249,-3.9832,-9.5036,-2.7305,27.332,20.877
-35.943,-6.0142,-164.33,-60.312,-27.282,6.7563,24.309,22.976,-13.561,-8.2935,-8.249,-3.9832,-9.5036,-2.7305,27.332,20.877
-35.835,-5.972,-164.69,-60.36,-27.23,6.767,24.378,23.025,-13.518,-8.2313,-8.0812,-3.953,-9.4758,-2.6477,27.54,21.013
-35.835,-5.972,-164.69,-60.36,-27.23,6.767,24.378,23.025,-13.518,-8.2313,-8.0812,-3.953,-9.4758,-2.6477,27.54,21.013
-35.725,-5.9294,-165.05,-60.409,-27.177,6.778,24.446,23.074,-13.475,-8.1679,-7.9137,-3.9219,-9.4477,-2.5644,27.747,21.148
-35.725,-5.9294,-165.05,-60.409,-27.177,6.778,24.446,23.074,-13.475,-8.1679,-7.9137,-3.9219,-9.4477,-2.5644,27.747,21.148
-35.615,-5.8862,-165.41,-60.458,-27.123,6.7894,24.515,23.123,-13.43,-8.1034,-7.7466,-3.8897,-9.4194,-2.4807,27.952,21.282
-35.615,-5.8862,-165.41,-60.458,-27.123,6.7894,24.515,23.123,-13.43,-8.1034,-7.7466,-3.8897,-9.4194,-2.4807,27.952,21.282
-35.504,-5.8425,-165.77,-60.508,-27.069,6.8012,24.583,23.171,-13.385,-8.0378,-7.5798,-3.8565,-9.3909,-2.3966,28.156,21.416
-35.504,-5.8425,-165.77,-60.508,-27.069,6.8012,24.583,23.171,-13.385,-8.0378,-7.5798,-3.8565,-9.3909,-2.3966,28.156,21.416
-35.391,-5.7982,-166.12,-60.558,-27.013,6.8133,24.651,23.219,-13.339,-7.9711,-7.4133,-3.8223,-9.3622,-2.312,28.359,21.549
-35.391,-5.7982,-166.12,-60.558,-27.013,6.8133,24.651,23.219,-13.339,-7.9711,-7.4133,-3.8223,-9.3622,-2.312,28.359,21.549
-35.277,-5.7534,-166.48,-60.609,-26.957,6.8259,24.719,23.266,-13.291,-7.9032,-7.2471,-3.7871,-9.3333,-2.227,28.56,21.68
-35.162,-5.708,-166.84,-60.66,-26.9,6.8388,24.787,23.313,-13.243,-7.8342,-7.0813,-3.7509,-9.3042,-2.1415,28.76,21.811
-35.162,-5.708,-166.84,-60.66,-26.9,6.8388,24.787,23.313,-13.243,-7.8342,-7.0813,-3.7509,-9.3042,-2.1415,28.76,21.811
-35.162,-5.708,-166.84,-60.66,-26.9,6.8388,24.787,23.313,-13.243,-7.8342,-7.0813,-3.7509,-9.3042,-2.1415,28.76,21.811
-35.046,-5.6619,-167.2,-60.712,-26.842,6.8522,24.855,23.36,-13.194,-7.7641,-6.9158,-3.7137,-9.2748,-2.0556,28.958,21.942
-35.046,-5.6619,-167.2,-60.712,-26.842,6.8522,24.855,23.36,-13.194,-7.7641,-6.9158,-3.7137,-9.2748,-2.0556,28.958,21.942
-35.046,-5.6619,-167.2,-60.712,-26.842,6.8522,24.855,23.36,-13.194,-7.7641,-6.9158,-3.7137,-9.2748,-2.0556,28.958,21.942
-34.929,-5.6153,-167.55,-60.764,-26.784,6.8659,24.922,23.406,-13.144,-7.6928,-6.7506,-3.6754,-9.2453,-1.9693,29.155,22.071
-34.929,-5.6153,-167.55,-60.764,-26.784,6.8659,24.922,23.406,-13.144,-7.6928,-6.7506,-3.6754,-9.2453,-1.9693,29.155,22.071
-34.811,-5.568,-167.91,-60.816,-26.724,6.8801,24.989,23.452,-13.094,-7.6204,-6.5858,-3.636,-9.2155,-1.8825,29.351,22.2
-34.692,-5.5201,-168.27,-60.869,-26.664,6.8947,25.056,23.498,-13.042,-7.5469,-6.4213,-3.5956,-9.1855,-1.7954,29.545,22.328
-34.692,-5.5201,-168.27,-60.869,-26.664,6.8947,25.056,23.498,-13.042,-7.5469,-6.4213,-3.5956,-9.1855,-1.7954,29.545,22.328
-34.572,-5.4716,-168.62,-60.922,-26.603,6.9098,25.123,23.543,-12.989,-7.4723,-6.2571,-3.5542,-9.1553,-1.7078,29.737,22.455
-34.572,-5.4716,-168.62,-60.922,-26.603,6.9098,25.123,23.543,-12.989,-7.4723,-6.2571,-3.5542,-9.1553,-1.7078,29.737,22.455
-34.45,-5.4224,-168.97,-60.976,-26.541,6.9253,25.19,23.588,-12.936,-7.3965,-6.0933,-3.5117,-9.1248,-1.6198,29.929,22.581
-34.45,-5.4224,-168.97,-60.976,-26.541,6.9253,25.19,23.588,-12.936,-7.3965,-6.0933,-3.5117,-9.1248,-1.6198,29.929,22.581
-34.328,-5.3725,-169.33,-61.03,-26.478,6.9412,25.256,23.633,-12.881,-7.3197,-5.9298,-3.4682,-9.0941,-1.5313,30.118,22.707
-34.328,-5.3725,-169.33,-61.03,-26.478,6.9412,25.256,23.633,-12.881,-7.3197,-5.9298,-3.4682,-9.0941,-1.5313,30.118,22.707
-34.328,-5.3725,-169.33,-61.03,-26.478,6.9412,25.256,23.633,-12.881,-7.3197,-5.9298,-3.4682,-9.0941,-1.5313,30.118,22.707
-34.204,-5.322,-169.68,-61.085,-26.415,6.9577,25.322,23.677,-12.826,-7.2417,-5.7667,-3.4236,-9.0632,-1.4425,30.307,22.832
-34.079,-5.2708,-170.03,-61.139,-26.351,6.9745,25.388,23.721,-12.77,-7.1625,-5.6039,-3.3779,-9.0321,-1.3533,30.494,22.956
-33.954,-5.2188,-170.38,-61.194,-26.286,6.9919,25.454,23.765,-12.713,-7.0823,-5.4414,-3.3311,-9.0007,-1.2636,30.679,23.079
-33.954,-5.2188,-170.38,-61.194,-26.286,6.9919,25.454,23.765,-12.713,-7.0823,-5.4414,-3.3311,-9.0007,-1.2636,30.679,23.079
-33.827,-5.1661,-170.74,-61.25,-26.22,7.0098,25.52,23.809,-12.655,-7.001,-5.2793,-3.2833,-8.9691,-1.1736,30.863,23.202
-33.827,-5.1661,-170.74,-61.25,-26.22,7.0098,25.52,23.809,-12.655,-7.001,-5.2793,-3.2833,-8.9691,-1.1736,30.863,23.202
-33.827,-5.1661,-170.74,-61.25,-26.22,7.0098,25.52,23.809,-12.655,-7.001,-5.2793,-3.2833,-8.9691,-1.1736,30.863,23.202
-33.699,-5.1128,-171.08,-61.306,-26.153,7.0281,25.585,23.852,-12.596,-6.9185,-5.1176,-3.2344,-8.9373,-1.0832,31.046,23.324
-33.699,-5.1128,-171.08,-61.306,-26.153,7.0281,25.585,23.852,-12.596,-6.9185,-5.1176,-3.2344,-8.9373,-1.0832,31.046,23.324
-33.699,-5.1128,-171.08,-61.306,-26.153,7.0281,25.585,23.852,-12.596,-6.9185,-5.1176,-3.2344,-8.9373,-1.0832,31.046,23.324
-33.57,-5.0586,-171.43,-61.361,-26.086,7.0469,25.65,23.895,-12.536,-6.8349,-4.9561,-3.1844,-8.9052,-0.99235,31.227,23.445
-33.44,-5.0037,-171.78,-61.418,-26.018,7.0663,25.715,23.937,-12.475,-6.7502,-4.7951,-3.1333,-8.8729,-0.90114,31.407,23.565
-33.309,-4.9481,-172.13,-61.474,-25.948,7.0861,25.78,23.98,-12.413,-6.6644,-4.6343,-3.0811,-8.8404,-0.80955,31.586,23.685
-33.309,-4.9481,-172.13,-61.474,-25.948,7.0861,25.78,23.98,-12.413,-6.6644,-4.6343,-3.0811,-8.8404,-0.80955,31.586,23.685
-33.309,-4.9481,-172.13,-61.474,-25.948,7.0861,25.78,23.98,-12.413,-6.6644,-4.6343,-3.0811,-8.8404,-0.80955,31.586,23.685
-33.177,-4.8917,-172.48,-61.531,-25.879,7.1065,25.845,24.022,-12.351,-6.5775,-4.474,-3.0278,-8.8076,-0.71758,31.763,23.804
-33.177,-4.8917,-172.48,-61.531,-25.879,7.1065,25.845,24.022,-12.351,-6.5775,-4.474,-3.0278,-8.8076,-0.71758,31.763,23.804
-33.177,-4.8917,-172.48,-61.531,-25.879,7.1065,25.845,24.022,-12.351,-6.5775,-4.474,-3.0278,-8.8076,-0.71758,31.763,23.804
-33.044,-4.8345,-172.82,-61.588,-25.808,7.1274,25.909,24.064,-12.287,-6.4895,-4.3139,-2.9735,-8.7745,-0.62524,31.938,23.922
-33.044,-4.8345,-172.82,-61.588,-25.808,7.1274,25.909,24.064,-12.287,-6.4895,-4.3139,-2.9735,-8.7745,-0.62524,31.938,23.922
-32.91,-4.7765,-173.17,-61.645,-25.737,7.1489,25.974,24.105,-12.223,-6.4004,-4.1543,-2.918,-8.7412,-0.53252,32.112,24.039
-32.91,-4.7765,-173.17,-61.645,-25.737,7.1489,25.974,24.105,-12.223,-6.4004,-4.1543,-2.918,-8.7412,-0.53252,32.112,24.039
-32.639,-4.658,-173.86,-61.76,-25.591,7.1934,26.101,24.188,-12.091,-6.2189,-3.836,-2.8037,-8.6739,-0.346,32.456,24.272
-32.639,-4.658,-173.86,-61.76,-25.591,7.1934,26.101,24.188,-12.091,-6.2189,-3.836,-2.8037,-8.6739,-0.346,32.456,24.272
-32.639,-4.658,-173.86,-61.76,-25.591,7.1934,26.101,24.188,-12.091,-6.2189,-3.836,-2.8037,-8.6739,-0.346,32.456,24.272
-32.502,-4.5976,-174.2,-61.817,-25.518,7.2164,26.165,24.229,-12.024,-6.1265,-3.6773,-2.7449,-8.6399,-0.25219,32.626,24.388
-32.502,-4.5976,-174.2,-61.817,-25.518,7.2164,26.165,24.229,-12.024,-6.1265,-3.6773,-2.7449,-8.6399,-0.25219,32.626,24.388
-32.364,-4.5363,-174.54,-61.875,-25.443,7.2401,26.228,24.269,-11.955,-6.033,-3.5191,-2.685,-8.6056,-0.15803,32.794,24.503
-32.364,-4.5363,-174.54,-61.875,-25.443,7.2401,26.228,24.269,-11.955,-6.033,-3.5191,-2.685,-8.6056,-0.15803,32.794,24.503
-32.225,-4.4742,-174.88,-61.933,-25.368,7.2642,26.291,24.31,-11.886,-5.9384,-3.3611,-2.6239,-8.571,-0.063524,32.961,24.617
-32.225,-4.4742,-174.88,-61.933,-25.368,7.2642,26.291,24.31,-11.886,-5.9384,-3.3611,-2.6239,-8.571,-0.063524,32.961,24.617
-32.085,-4.4112,-175.22,-61.991,-25.292,7.289,26.354,24.35,-11.816,-5.8427,-3.2036,-2.5618,-8.5362,0.031331,33.127,24.73
-32.085,-4.4112,-175.22,-61.991,-25.292,7.289,26.354,24.35,-11.816,-5.8427,-3.2036,-2.5618,-8.5362,0.031331,33.127,24.73
-31.944,-4.3473,-175.56,-62.049,-25.215,7.3143,26.417,24.39,-11.745,-5.746,-3.0463,-2.4985,-8.5011,0.12653,33.291,24.843
-31.944,-4.3473,-175.56,-62.049,-25.215,7.3143,26.417,24.39,-11.745,-5.746,-3.0463,-2.4985,-8.5011,0.12653,33.291,24.843
-31.803,-4.2825,-175.9,-62.107,-25.137,7.3403,26.48,24.43,-11.673,-5.6481,-2.8895,-2.4341,-8.4658,0.22206,33.454,24.955
-31.803,-4.2825,-175.9,-62.107,-25.137,7.3403,26.48,24.43,-11.673,-5.6481,-2.8895,-2.4341,-8.4658,0.22206,33.454,24.955
-31.66,-4.2169,-176.23,-62.165,-25.059,7.3668,26.542,24.469,-11.601,-5.5492,-2.7329,-2.3685,-8.4302,0.31793,33.615,25.067
-31.66,-4.2169,-176.23,-62.165,-25.059,7.3668,26.542,24.469,-11.601,-5.5492,-2.7329,-2.3685,-8.4302,0.31793,33.615,25.067
-31.516,-4.1503,-176.57,-62.224,-24.979,7.3939,26.604,24.509,-11.527,-5.4493,-2.5768,-2.3019,-8.3943,0.41413,33.775,25.178
-31.516,-4.1503,-176.57,-62.224,-24.979,7.3939,26.604,24.509,-11.527,-5.4493,-2.5768,-2.3019,-8.3943,0.41413,33.775,25.178
-31.371,-4.0829,-176.9,-62.282,-24.9,7.4216,26.666,24.548,-11.452,-5.3482,-2.421,-2.2341,-8.3581,0.51065,33.933,25.288
-31.371,-4.0829,-176.9,-62.282,-24.9,7.4216,26.666,24.548,-11.452,-5.3482,-2.421,-2.2341,-8.3581,0.51065,33.933,25.288
-31.226,-4.0145,-177.24,-62.34,-24.819,7.4498,26.728,24.587,-11.377,-5.2461,-2.2655,-2.1652,-8.3217,0.60749,34.09,25.397
-31.226,-4.0145,-177.24,-62.34,-24.819,7.4498,26.728,24.587,-11.377,-5.2461,-2.2655,-2.1652,-8.3217,0.60749,34.09,25.397
-31.079,-3.9452,-177.57,-62.399,-24.737,7.4788,26.789,24.626,-11.3,-5.1429,-2.1104,-2.0951,-8.285,0.70465,34.246,25.506
-31.079,-3.9452,-177.57,-62.399,-24.737,7.4788,26.789,24.626,-11.3,-5.1429,-2.1104,-2.0951,-8.285,0.70465,34.246,25.506
-31.079,-3.9452,-177.57,-62.399,-24.737,7.4788,26.789,24.626,-11.3,-5.1429,-2.1104,-2.0951,-8.285,0.70465,34.246,25.506
-30.932,-3.875,-177.9,-62.457,-24.655,7.5083,26.85,24.665,-11.223,-5.0387,-1.9556,-2.0239,-8.2481,0.80212,34.4,25.615
-30.932,-3.875,-177.9,-62.457,-24.655,7.5083,26.85,24.665,-11.223,-5.0387,-1.9556,-2.0239,-8.2481,0.80212,34.4,25.615
-30.784,-3.8038,-178.23,-62.515,-24.572,7.5384,26.911,24.703,-11.144,-4.9334,-1.8012,-1.9516,-8.2108,0.8999,34.553,25.722
-30.784,-3.8038,-178.23,-62.515,-24.572,7.5384,26.911,24.703,-11.144,-4.9334,-1.8012,-1.9516,-8.2108,0.8999,34.553,25.722
-30.635,-3.7316,-178.56,-62.573,-24.488,7.5692,26.972,24.742,-11.065,-4.8271,-1.6472,-1.8781,-8.1733,0.99798,34.704,25.83
-30.635,-3.7316,-178.56,-62.573,-24.488,7.5692,26.972,24.742,-11.065,-4.8271,-1.6472,-1.8781,-8.1733,0.99798,34.704,25.83
-30.485,-3.6585,-178.89,-62.631,-24.404,7.6005,27.033,24.78,-10.985,-4.7197,-1.4935,-1.8035,-8.1355,1.0964,34.854,25.936
-30.485,-3.6585,-178.89,-62.631,-24.404,7.6005,27.033,24.78,-10.985,-4.7197,-1.4935,-1.8035,-8.1355,1.0964,34.854,25.936
-30.485,-3.6585,-178.89,-62.631,-24.404,7.6005,27.033,24.78,-10.985,-4.7197,-1.4935,-1.8035,-8.1355,1.0964,34.854,25.936
-30.182,-3.5093,-179.54,-62.747,-24.232,7.6652,27.154,24.856,-10.821,-4.5018,-1.1871,-1.6508,-8.059,1.294,35.15,26.148
-30.182,-3.5093,-179.54,-62.747,-24.232,7.6652,27.154,24.856,-10.821,-4.5018,-1.1871,-1.6508,-8.059,1.294,35.15,26.148
-30.182,-3.5093,-179.54,-62.747,-24.232,7.6652,27.154,24.856,-10.821,-4.5018,-1.1871,-1.6508,-8.059,1.294,35.15,26.148
-30.029,-3.4332,-179.87,-62.805,-24.146,7.6985,27.213,24.894,-10.738,-4.3913,-1.0345,-1.5727,-8.0203,1.3932,35.296,26.252
-29.876,-3.3561,-180.19,-62.862,-24.058,7.7324,27.273,24.931,-10.654,-4.2798,-0.8822,-1.4935,-7.9814,1.4927,35.441,26.357
-29.722,-3.278,-180.51,-62.92,-23.97,7.767,27.333,24.969,-10.57,-4.1673,-0.73025,-1.4132,-7.9421,1.5925,35.584,26.46
-29.722,-3.278,-180.51,-62.92,-23.97,7.767,27.333,24.969,-10.57,-4.1673,-0.73025,-1.4132,-7.9421,1.5925,35.584,26.46
-29.567,-3.1989,-180.83,-62.977,-23.881,7.8022,27.392,25.006,-10.484,-4.0537,-0.57865,-1.3317,-7.9026,1.6926,35.725,26.564
-29.567,-3.1989,-180.83,-62.977,-23.881,7.8022,27.392,25.006,-10.484,-4.0537,-0.57865,-1.3317,-7.9026,1.6926,35.725,26.564
-29.567,-3.1989,-180.83,-62.977,-23.881,7.8022,27.392,25.006,-10.484,-4.0537,-0.57865,-1.3317,-7.9026,1.6926,35.725,26.564
-29.411,-3.1187,-181.15,-63.034,-23.791,7.8381,27.451,25.044,-10.397,-3.9392,-0.4274,-1.2491,-7.8627,1.7929,35.866,26.666
-29.411,-3.1187,-181.15,-63.034,-23.791,7.8381,27.451,25.044,-10.397,-3.9392,-0.4274,-1.2491,-7.8627,1.7929,35.866,26.666
-29.411,-3.1187,-181.15,-63.034,-23.791,7.8381,27.451,25.044,-10.397,-3.9392,-0.4274,-1.2491,-7.8627,1.7929,35.866,26.666
-29.254,-3.0375,-181.47,-63.091,-23.701,7.8747,27.51,25.081,-10.309,-3.8236,-0.27649,-1.1653,-7.8226,1.8935,36.005,26.768
-29.096,-2.9553,-181.79,-63.148,-23.61,7.9119,27.569,25.118,-10.221,-3.707,-0.12594,-1.0804,-7.7821,1.9943,36.142,26.87
-29.096,-2.9553,-181.79,-63.148,-23.61,7.9119,27.569,25.118,-10.221,-3.707,-0.12594,-1.0804,-7.7821,1.9943,36.142,26.87
-28.938,-2.872,-182.1,-63.204,-23.518,7.9498,27.627,25.155,-10.131,-3.5894,0.024272,-0.99434,-7.7414,2.0954,36.278,26.971
-28.938,-2.872,-182.1,-63.204,-23.518,7.9498,27.627,25.155,-10.131,-3.5894,0.024272,-0.99434,-7.7414,2.0954,36.278,26.971
-28.779,-2.7876,-182.42,-63.26,-23.425,7.9883,27.685,25.192,-10.041,-3.4708,0.17414,-0.90713,-7.7003,2.1968,36.413,27.072
-28.779,-2.7876,-182.42,-63.26,-23.425,7.9883,27.685,25.192,-10.041,-3.4708,0.17414,-0.90713,-7.7003,2.1968,36.413,27.072
-28.619,-2.7022,-182.73,-63.316,-23.332,8.0276,27.743,25.229,-9.9497,-3.3513,0.32366,-0.81877,-7.659,2.2983,36.547,27.172
-28.619,-2.7022,-182.73,-63.316,-23.332,8.0276,27.743,25.229,-9.9497,-3.3513,0.32366,-0.81877,-7.659,2.2983,36.547,27.172
-28.459,-2.6156,-183.04,-63.372,-23.238,8.0675,27.801,25.266,-9.8575,-3.2307,0.47283,-0.72927,-7.6173,2.4001,36.679,27.271
-28.459,-2.6156,-183.04,-63.372,-23.238,8.0675,27.801,25.266,-9.8575,-3.2307,0.47283,-0.72927,-7.6173,2.4001,36.679,27.271
-28.297,-2.528,-183.35,-63.427,-23.144,8.1081,27.859,25.303,-9.7644,-3.1092,0.62167,-0.63862,-7.5753,2.5022,36.81,27.37
-28.297,-2.528,-183.35,-63.427,-23.144,8.1081,27.859,25.303,-9.7644,-3.1092,0.62167,-0.63862,-7.5753,2.5022,36.81,27.37
-28.297,-2.528,-183.35,-63.427,-23.144,8.1081,27.859,25.303,-9.7644,-3.1092,0.62167,-0.63862,-7.5753,2.5022,36.81,27.37
-28.135,-2.4393,-183.66,-63.482,-23.048,8.1493,27.916,25.34,-9.6703,-2.9867,0.77016,-0.54683,-7.533,2.6044,36.939,27.469
-28.135,-2.4393,-183.66,-63.482,-23.048,8.1493,27.916,25.34,-9.6703,-2.9867,0.77016,-0.54683,-7.533,2.6044,36.939,27.469
-28.135,-2.4393,-183.66,-63.482,-23.048,8.1493,27.916,25.34,-9.6703,-2.9867,0.77016,-0.54683,-7.533,2.6044,36.939,27.469
-27.809,-2.2586,-184.27,-63.59,-22.855,8.2339,28.03,25.413,-9.4795,-2.7388,1.0661,-0.35982,-7.4474,2.8096,37.194,27.665
-27.809,-2.2586,-184.27,-63.59,-22.855,8.2339,28.03,25.413,-9.4795,-2.7388,1.0661,-0.35982,-7.4474,2.8096,37.194,27.665
-27.809,-2.2586,-184.27,-63.59,-22.855,8.2339,28.03,25.413,-9.4795,-2.7388,1.0661,-0.35982,-7.4474,2.8096,37.194,27.665
-27.645,-2.1666,-184.57,-63.644,-22.758,8.2773,28.087,25.449,-9.3827,-2.6134,1.2136,-0.2646,-7.4042,2.9125,37.32,27.762
-27.48,-2.0734,-184.87,-63.697,-22.66,8.3213,28.143,25.486,-9.285,-2.4871,1.3607,-0.16824,-7.3606,3.0156,37.444,27.859
-27.314,-1.9791,-185.18,-63.75,-22.561,8.366,28.2,25.522,-9.1864,-2.3598,1.5075,-0.070743,-7.3167,3.1189,37.567,27.955
-27.314,-1.9791,-185.18,-63.75,-22.561,8.366,28.2,25.522,-9.1864,-2.3598,1.5075,-0.070743,-7.3167,3.1189,37.567,27.955
-27.314,-1.9791,-185.18,-63.75,-22.561,8.366,28.2,25.522,-9.1864,-2.3598,1.5075,-0.070743,-7.3167,3.1189,37.567,27.955
-27.148,-1.8837,-185.47,-63.803,-22.462,8.4115,28.256,25.559,-9.0869,-2.2316,1.654,0.027894,-7.2724,3.2224,37.689,28.051
-27.148,-1.8837,-185.47,-63.803,-22.462,8.4115,28.256,25.559,-9.0869,-2.2316,1.654,0.027894,-7.2724,3.2224,37.689,28.051
-26.981,-1.7871,-185.77,-63.855,-22.362,8.4576,28.311,25.595,-8.9865,-2.1025,1.8001,0.12767,-7.2279,3.3261,37.809,28.146
-26.981,-1.7871,-185.77,-63.855,-22.362,8.4576,28.311,25.595,-8.9865,-2.1025,1.8001,0.12767,-7.2279,3.3261,37.809,28.146
-26.813,-1.6894,-186.07,-63.906,-22.261,8.5044,28.367,25.631,-8.8851,-1.9724,1.9459,0.22858,-7.183,3.43,37.928,28.242
-26.813,-1.6894,-186.07,-63.906,-22.261,8.5044,28.367,25.631,-8.8851,-1.9724,1.9459,0.22858,-7.183,3.43,37.928,28.242
-26.645,-1.5905,-186.36,-63.957,-22.159,8.552,28.422,25.668,-8.7829,-1.8414,2.0914,0.33062,-7.1377,3.534,38.046,28.336
-26.476,-1.4904,-186.65,-64.008,-22.057,8.6002,28.477,25.704,-8.6798,-1.7095,2.2366,0.43379,-7.0922,3.6383,38.162,28.431
-26.476,-1.4904,-186.65,-64.008,-22.057,8.6002,28.477,25.704,-8.6798,-1.7095,2.2366,0.43379,-7.0922,3.6383,38.162,28.431
-26.307,-1.3892,-186.94,-64.058,-21.955,8.6492,28.532,25.74,-8.5758,-1.5767,2.3814,0.53809,-7.0463,3.7427,38.278,28.524
-26.307,-1.3892,-186.94,-64.058,-21.955,8.6492,28.532,25.74,-8.5758,-1.5767,2.3814,0.53809,-7.0463,3.7427,38.278,28.524
-26.307,-1.3892,-186.94,-64.058,-21.955,8.6492,28.532,25.74,-8.5758,-1.5767,2.3814,0.53809,-7.0463,3.7427,38.278,28.524
-26.137,-1.2868,-187.23,-64.107,-21.851,8.6989,28.587,25.777,-8.4709,-1.443,2.5259,0.64352,-7,3.8472,38.391,28.618
-26.137,-1.2868,-187.23,-64.107,-21.851,8.6989,28.587,25.777,-8.4709,-1.443,2.5259,0.64352,-7,3.8472,38.391,28.618
-26.137,-1.2868,-187.23,-64.107,-21.851,8.6989,28.587,25.777,-8.4709,-1.443,2.5259,0.64352,-7,3.8472,38.391,28.618
-25.966,-1.1832,-187.52,-64.156,-21.747,8.7493,28.641,25.813,-8.3651,-1.3084,2.67,0.75008,-6.9534,3.9519,38.504,28.711
-25.966,-1.1832,-187.52,-64.156,-21.747,8.7493,28.641,25.813,-8.3651,-1.3084,2.67,0.75008,-6.9534,3.9519,38.504,28.711
-25.623,-0.97243,-188.09,-64.252,-21.537,8.8522,28.75,25.886,-8.1509,-1.0365,2.9574,0.96656,-6.8592,4.1618,38.726,28.896
-25.623,-0.97243,-188.09,-64.252,-21.537,8.8522,28.75,25.886,-8.1509,-1.0365,2.9574,0.96656,-6.8592,4.1618,38.726,28.896
-25.623,-0.97243,-188.09,-64.252,-21.537,8.8522,28.75,25.886,-8.1509,-1.0365,2.9574,0.96656,-6.8592,4.1618,38.726,28.896
-25.45,-0.86524,-188.37,-64.299,-21.432,8.9048,28.803,25.922,-8.0424,-0.89927,3.1006,1.0765,-6.8116,4.267,38.835,28.988
-25.45,-0.86524,-188.37,-64.299,-21.432,8.9048,28.803,25.922,-8.0424,-0.89927,3.1006,1.0765,-6.8116,4.267,38.835,28.988
-25.45,-0.86524,-188.37,-64.299,-21.432,8.9048,28.803,25.922,-8.0424,-0.89927,3.1006,1.0765,-6.8116,4.267,38.835,28.988
-25.277,-0.75684,-188.65,-64.345,-21.325,8.9581,28.857,25.958,-7.9331,-0.76115,3.2435,1.1875,-6.7636,4.3723,38.943,29.08
-25.277,-0.75684,-188.65,-64.345,-21.325,8.9581,28.857,25.958,-7.9331,-0.76115,3.2435,1.1875,-6.7636,4.3723,38.943,29.08
-25.104,-0.64722,-188.93,-64.391,-21.218,9.0121,28.91,25.995,-7.8229,-0.62216,3.3861,1.2997,-6.7152,4.4777,39.049,29.171
-25.104,-0.64722,-188.93,-64.391,-21.218,9.0121,28.91,25.995,-7.8229,-0.62216,3.3861,1.2997,-6.7152,4.4777,39.049,29.171
-24.929,-0.53639,-189.2,-64.436,-21.11,9.0668,28.963,26.031,-7.7118,-0.48233,3.5284,1.4129,-6.6665,4.5832,39.154,29.262
-24.929,-0.53639,-189.2,-64.436,-21.11,9.0668,28.963,26.031,-7.7118,-0.48233,3.5284,1.4129,-6.6665,4.5832,39.154,29.262
-24.755,-0.42432,-189.48,-64.48,-21.002,9.1222,29.016,26.068,-7.5998,-0.34164,3.6703,1.5273,-6.6175,4.6889,39.259,29.353
-24.755,-0.42432,-189.48,-64.48,-21.002,9.1222,29.016,26.068,-7.5998,-0.34164,3.6703,1.5273,-6.6175,4.6889,39.259,29.353
-24.755,-0.42432,-189.48,-64.48,-21.002,9.1222,29.016,26.068,-7.5998,-0.34164,3.6703,1.5273,-6.6175,4.6889,39.259,29.353
-24.404,-0.1965,-190.02,-64.566,-20.784,9.2353,29.121,26.141,-7.3733,-0.057749,3.9533,1.7593,-6.5183,4.9006,39.463,29.534
-24.404,-0.1965,-190.02,-64.566,-20.784,9.2353,29.121,26.141,-7.3733,-0.057749,3.9533,1.7593,-6.5183,4.9006,39.463,29.534
-24.228,-0.080728,-190.29,-64.608,-20.674,9.293,29.173,26.177,-7.2587,0.085441,4.0943,1.877,-6.4681,5.0066,39.564,29.624
-24.228,-0.080728,-190.29,-64.608,-20.674,9.293,29.173,26.177,-7.2587,0.085441,4.0943,1.877,-6.4681,5.0066,39.564,29.624
-24.051,0.03629,-190.55,-64.649,-20.563,9.3513,29.225,26.214,-7.1433,0.22945,4.2351,1.9957,-6.4176,5.1127,39.663,29.713
-24.051,0.03629,-190.55,-64.649,-20.563,9.3513,29.225,26.214,-7.1433,0.22945,4.2351,1.9957,-6.4176,5.1127,39.663,29.713
-23.874,0.15456,-190.82,-64.69,-20.452,9.4104,29.277,26.251,-7.027,0.37428,4.3755,2.1156,-6.3667,5.2189,39.761,29.803
-23.874,0.15456,-190.82,-64.69,-20.452,9.4104,29.277,26.251,-7.027,0.37428,4.3755,2.1156,-6.3667,5.2189,39.761,29.803
-23.697,0.27408,-191.08,-64.729,-20.34,9.4702,29.329,26.287,-6.9098,0.51991,4.5156,2.2365,-6.3155,5.3252,39.858,29.892
-23.697,0.27408,-191.08,-64.729,-20.34,9.4702,29.329,26.287,-6.9098,0.51991,4.5156,2.2365,-6.3155,5.3252,39.858,29.892
-23.519,0.39487,-191.34,-64.768,-20.228,9.5308,29.38,26.324,-6.7918,0.66634,4.6555,2.3585,-6.2639,5.4315,39.954,29.98
-23.519,0.39487,-191.34,-64.768,-20.228,9.5308,29.38,26.324,-6.7918,0.66634,4.6555,2.3585,-6.2639,5.4315,39.954,29.98
-23.34,0.51692,-191.6,-64.806,-20.115,9.5921,29.431,26.361,-6.6729,0.81356,4.795,2.4816,-6.2119,5.538,40.049,30.069
-23.34,0.51692,-191.6,-64.806,-20.115,9.5921,29.431,26.361,-6.6729,0.81356,4.795,2.4816,-6.2119,5.538,40.049,30.069
-23.161,0.64023,-191.85,-64.843,-20.001,9.6541,29.482,26.398,-6.5532,0.96156,4.9343,2.6058,-6.1595,5.6445,40.143,30.157
-23.161,0.64023,-191.85,-64.843,-20.001,9.6541,29.482,26.398,-6.5532,0.96156,4.9343,2.6058,-6.1595,5.6445,40.143,30.157
-22.982,0.76482,-192.1,-64.88,-19.887,9.7168,29.532,26.435,-6.4327,1.1103,5.0733,2.7311,-6.1067,5.7511,40.235,30.245
-22.982,0.76482,-192.1,-64.88,-19.887,9.7168,29.532,26.435,-6.4327,1.1103,5.0733,2.7311,-6.1067,5.7511,40.235,30.245
-22.802,0.89069,-192.36,-64.915,-19.773,9.7803,29.583,26.472,-6.3113,1.2599,5.2119,2.8574,-6.0536,5.8578,40.327,30.333
-22.802,0.89069,-192.36,-64.915,-19.773,9.7803,29.583,26.472,-6.3113,1.2599,5.2119,2.8574,-6.0536,5.8578,40.327,30.333
-22.802,0.89069,-192.36,-64.915,-19.773,9.7803,29.583,26.472,-6.3113,1.2599,5.2119,2.8574,-6.0536,5.8578,40.327,30.333
-22.622,1.0178,-192.6,-64.949,-19.658,9.8446,29.633,26.51,-6.189,1.4102,5.3503,2.9847,-6.0001,5.9645,40.417,30.42
-22.622,1.0178,-192.6,-64.949,-19.658,9.8446,29.633,26.51,-6.189,1.4102,5.3503,2.9847,-6.0001,5.9645,40.417,30.42
-22.442,1.1463,-192.85,-64.983,-19.542,9.9095,29.683,26.547,-6.066,1.5613,5.4885,3.1132,-5.9462,6.0712,40.506,30.508
-22.442,1.1463,-192.85,-64.983,-19.542,9.9095,29.683,26.547,-6.066,1.5613,5.4885,3.1132,-5.9462,6.0712,40.506,30.508
-22.079,1.407,-193.34,-65.046,-19.31,10.042,29.782,26.622,-5.8173,1.8656,5.7639,3.3732,-5.8372,6.2849,40.682,30.682
-22.079,1.407,-193.34,-65.046,-19.31,10.042,29.782,26.622,-5.8173,1.8656,5.7639,3.3732,-5.8372,6.2849,40.682,30.682
-21.898,1.5393,-193.58,-65.077,-19.193,10.109,29.831,26.66,-5.6918,2.0189,5.9012,3.5047,-5.7821,6.3918,40.767,30.769
-21.898,1.5393,-193.58,-65.077,-19.193,10.109,29.831,26.66,-5.6918,2.0189,5.9012,3.5047,-5.7821,6.3918,40.767,30.769
-21.898,1.5393,-193.58,-65.077,-19.193,10.109,29.831,26.66,-5.6918,2.0189,5.9012,3.5047,-5.7821,6.3918,40.767,30.769
-21.716,1.6729,-193.81,-65.106,-19.075,10.177,29.88,26.697,-5.5654,2.1729,6.0382,3.6373,-5.7266,6.4987,40.852,30.855
-21.716,1.6729,-193.81,-65.106,-19.075,10.177,29.88,26.697,-5.5654,2.1729,6.0382,3.6373,-5.7266,6.4987,40.852,30.855
-21.716,1.6729,-193.81,-65.106,-19.075,10.177,29.88,26.697,-5.5654,2.1729,6.0382,3.6373,-5.7266,6.4987,40.852,30.855
-21.534,1.8078,-194.05,-65.135,-18.957,10.245,29.928,26.735,-5.4382,2.3277,6.1749,3.771,-5.6708,6.6056,40.936,30.942
-21.351,1.944,-194.28,-65.162,-18.838,10.315,29.977,26.773,-5.3102,2.4831,6.3114,3.9057,-5.6145,6.7126,41.019,31.028
-21.168,2.0815,-194.51,-65.188,-18.719,10.385,30.025,26.811,-5.1813,2.6392,6.4477,4.0413,-5.5578,6.8195,41.101,31.114
-21.168,2.0815,-194.51,-65.188,-18.719,10.385,30.025,26.811,-5.1813,2.6392,6.4477,4.0413,-5.5578,6.8195,41.101,31.114
-20.985,2.2203,-194.74,-65.214,-18.6,10.455,30.073,26.85,-5.0517,2.7961,6.5836,4.1781,-5.5008,6.9265,41.182,31.2
-20.985,2.2203,-194.74,-65.214,-18.6,10.455,30.073,26.85,-5.0517,2.7961,6.5836,4.1781,-5.5008,6.9265,41.182,31.2
-20.985,2.2203,-194.74,-65.214,-18.6,10.455,30.073,26.85,-5.0517,2.7961,6.5836,4.1781,-5.5008,6.9265,41.182,31.2
-20.802,2.3604,-194.96,-65.238,-18.48,10.527,30.121,26.888,-4.9213,2.9536,6.7193,4.3158,-5.4433,7.0335,41.261,31.285
-20.802,2.3604,-194.96,-65.238,-18.48,10.527,30.121,26.888,-4.9213,2.9536,6.7193,4.3158,-5.4433,7.0335,41.261,31.285
-20.802,2.3604,-194.96,-65.238,-18.48,10.527,30.121,26.888,-4.9213,2.9536,6.7193,4.3158,-5.4433,7.0335,41.261,31.285
-20.618,2.5019,-195.19,-65.261,-18.359,10.599,30.168,26.926,-4.79,3.1118,6.8548,4.4545,-5.3854,7.1405,41.34,31.371
-20.434,2.6446,-195.41,-65.282,-18.239,10.672,30.215,26.965,-4.658,3.2706,6.99,4.5942,-5.3271,7.2475,41.418,31.457
-20.25,2.7887,-195.62,-65.303,-18.117,10.746,30.262,27.004,-4.5252,3.4301,7.125,4.7349,-5.2684,7.3544,41.495,31.542
-20.25,2.7887,-195.62,-65.303,-18.117,10.746,30.262,27.004,-4.5252,3.4301,7.125,4.7349,-5.2684,7.3544,41.495,31.542
-20.065,2.9341,-195.84,-65.322,-17.995,10.82,30.309,27.043,-4.3916,3.5903,7.2597,4.8766,-5.2093,7.4614,41.571,31.627
-20.065,2.9341,-195.84,-65.322,-17.995,10.82,30.309,27.043,-4.3916,3.5903,7.2597,4.8766,-5.2093,7.4614,41.571,31.627
-20.065,2.9341,-195.84,-65.322,-17.995,10.82,30.309,27.043,-4.3916,3.5903,7.2597,4.8766,-5.2093,7.4614,41.571,31.627
-19.881,3.0808,-196.05,-65.341,-17.873,10.896,30.355,27.082,-4.2572,3.7511,7.3942,5.0193,-5.1498,7.5683,41.645,31.712
-19.881,3.0808,-196.05,-65.341,-17.873,10.896,30.355,27.082,-4.2572,3.7511,7.3942,5.0193,-5.1498,7.5683,41.645,31.712
-19.696,3.2288,-196.26,-65.358,-17.751,10.972,30.402,27.121,-4.122,3.9125,7.5284,5.163,-5.0899,7.6752,41.719,31.797
-19.696,3.2288,-196.26,-65.358,-17.751,10.972,30.402,27.121,-4.122,3.9125,7.5284,5.163,-5.0899,7.6752,41.719,31.797
-19.511,3.3782,-196.47,-65.373,-17.627,11.048,30.448,27.16,-3.986,4.0746,7.6624,5.3076,-5.0295,7.7821,41.792,31.882
-19.511,3.3782,-196.47,-65.373,-17.627,11.048,30.448,27.16,-3.986,4.0746,7.6624,5.3076,-5.0295,7.7821,41.792,31.882
-19.325,3.5289,-196.67,-65.388,-17.504,11.125,30.493,27.2,-3.8493,4.2373,7.7962,5.4532,-4.9688,7.8889,41.864,31.967
-19.325,3.5289,-196.67,-65.388,-17.504,11.125,30.493,27.2,-3.8493,4.2373,7.7962,5.4532,-4.9688,7.8889,41.864,31.967
-19.14,3.6809,-196.87,-65.401,-17.38,11.204,30.539,27.239,-3.7118,4.4006,7.9297,5.5997,-4.9076,7.9957,41.935,32.052
-19.14,3.6809,-196.87,-65.401,-17.38,11.204,30.539,27.239,-3.7118,4.4006,7.9297,5.5997,-4.9076,7.9957,41.935,32.052
-18.954,3.8342,-197.07,-65.413,-17.256,11.282,30.584,27.279,-3.5736,4.5645,8.063,5.7472,-4.846,8.1024,42.005,32.137
-18.954,3.8342,-197.07,-65.413,-17.256,11.282,30.584,27.279,-3.5736,4.5645,8.063,5.7472,-4.846,8.1024,42.005,32.137
-18.769,3.9889,-197.27,-65.424,-17.131,11.362,30.629,27.319,-3.4346,4.729,8.1961,5.8957,-4.7839,8.2091,42.075,32.221
-18.769,3.9889,-197.27,-65.424,-17.131,11.362,30.629,27.319,-3.4346,4.729,8.1961,5.8957,-4.7839,8.2091,42.075,32.221
-18.583,4.1449,-197.46,-65.433,-17.006,11.442,30.674,27.359,-3.2948,4.8941,8.329,6.0451,-4.7215,8.3158,42.143,32.306
-18.583,4.1449,-197.46,-65.433,-17.006,11.442,30.674,27.359,-3.2948,4.8941,8.329,6.0451,-4.7215,8.3158,42.143,32.306
-18.396,4.3022,-197.65,-65.441,-16.881,11.523,30.718,27.4,-3.1543,5.0598,8.4617,6.1954,-4.6586,8.4223,42.21,32.39
-18.396,4.3022,-197.65,-65.441,-16.881,11.523,30.718,27.4,-3.1543,5.0598,8.4617,6.1954,-4.6586,8.4223,42.21,32.39
-18.21,4.4608,-197.84,-65.448,-16.755,11.605,30.762,27.44,-3.0131,5.226,8.5941,6.3466,-4.5953,8.5288,42.277,32.475
-18.21,4.4608,-197.84,-65.448,-16.755,11.605,30.762,27.44,-3.0131,5.226,8.5941,6.3466,-4.5953,8.5288,42.277,32.475
-18.21,4.4608,-197.84,-65.448,-16.755,11.605,30.762,27.44,-3.0131,5.226,8.5941,6.3466,-4.5953,8.5288,42.277,32.475
-18.024,4.6208,-198.03,-65.453,-16.629,11.687,30.806,27.481,-2.8711,5.3928,8.7263,6.4987,-4.5315,8.6353,42.342,32.559
-18.024,4.6208,-198.03,-65.453,-16.629,11.687,30.806,27.481,-2.8711,5.3928,8.7263,6.4987,-4.5315,8.6353,42.342,32.559
-17.837,4.7821,-198.21,-65.457,-16.502,11.77,30.85,27.522,-2.7283,5.5601,8.8584,6.6518,-4.4673,8.7416,42.407,32.643
-17.837,4.7821,-198.21,-65.457,-16.502,11.77,30.85,27.522,-2.7283,5.5601,8.8584,6.6518,-4.4673,8.7416,42.407,32.643
-17.651,4.9448,-198.39,-65.46,-16.375,11.854,30.893,27.563,-2.5849,5.728,8.9902,6.8057,-4.4027,8.8479,42.471,32.728
-17.651,4.9448,-198.39,-65.46,-16.375,11.854,30.893,27.563,-2.5849,5.728,8.9902,6.8057,-4.4027,8.8479,42.471,32.728
-17.464,5.1087,-198.56,-65.461,-16.248,11.938,30.937,27.604,-2.4407,5.8964,9.1218,6.9606,-4.3377,8.9541,42.534,32.812
-17.278,5.274,-198.74,-65.46,-16.12,12.023,30.98,27.646,-2.2958,6.0654,9.2532,7.1163,-4.2722,9.0602,42.597,32.896
-17.278,5.274,-198.74,-65.46,-16.12,12.023,30.98,27.646,-2.2958,6.0654,9.2532,7.1163,-4.2722,9.0602,42.597,32.896
-17.091,5.4407,-198.91,-65.458,-15.992,12.109,31.022,27.687,-2.1502,6.2349,9.3845,7.2729,-4.2062,9.1662,42.658,32.981
-17.091,5.4407,-198.91,-65.458,-15.992,12.109,31.022,27.687,-2.1502,6.2349,9.3845,7.2729,-4.2062,9.1662,42.658,32.981
-16.904,5.6086,-199.08,-65.455,-15.864,12.196,31.065,27.729,-2.0038,6.4048,9.5155,7.4304,-4.1399,9.2721,42.719,33.065
-16.904,5.6086,-199.08,-65.455,-15.864,12.196,31.065,27.729,-2.0038,6.4048,9.5155,7.4304,-4.1399,9.2721,42.719,33.065
-16.717,5.7779,-199.24,-65.45,-15.736,12.283,31.107,27.771,-1.8568,6.5753,9.6464,7.5887,-4.073,9.3779,42.779,33.149
-16.717,5.7779,-199.24,-65.45,-15.736,12.283,31.107,27.771,-1.8568,6.5753,9.6464,7.5887,-4.073,9.3779,42.779,33.149
-16.531,5.9485,-199.4,-65.444,-15.607,12.371,31.149,27.814,-1.709,6.7463,9.777,7.7479,-4.0058,9.4835,42.838,33.234
-16.531,5.9485,-199.4,-65.444,-15.607,12.371,31.149,27.814,-1.709,6.7463,9.777,7.7479,-4.0058,9.4835,42.838,33.234
-16.344,6.1205,-199.56,-65.436,-15.478,12.46,31.19,27.856,-1.5606,6.9177,9.9075,7.9079,-3.9381,9.5891,42.896,33.318
-16.344,6.1205,-199.56,-65.436,-15.478,12.46,31.19,27.856,-1.5606,6.9177,9.9075,7.9079,-3.9381,9.5891,42.896,33.318
-16.157,6.2937,-199.72,-65.426,-15.348,12.549,31.231,27.899,-1.4115,7.0897,10.038,8.0688,-3.8699,9.6946,42.953,33.402
-16.157,6.2937,-199.72,-65.426,-15.348,12.549,31.231,27.899,-1.4115,7.0897,10.038,8.0688,-3.8699,9.6946,42.953,33.402
-16.157,6.2937,-199.72,-65.426,-15.348,12.549,31.231,27.899,-1.4115,7.0897,10.038,8.0688,-3.8699,9.6946,42.953,33.402
-15.97,6.4683,-199.87,-65.415,-15.218,12.639,31.272,27.942,-1.2617,7.262,10.168,8.2305,-3.8013,9.7999,43.01,33.487
-15.783,6.6442,-200.02,-65.403,-15.088,12.73,31.313,27.985,-1.1112,7.4349,10.298,8.393,-3.7322,9.9051,43.066,33.571
-15.783,6.6442,-200.02,-65.403,-15.088,12.73,31.313,27.985,-1.1112,7.4349,10.298,8.393,-3.7322,9.9051,43.066,33.571
-15.596,6.8215,-200.16,-65.389,-14.958,12.821,31.354,28.028,-0.95997,7.6082,10.428,8.5563,-3.6627,10.01,43.121,33.655
-15.596,6.8215,-200.16,-65.389,-14.958,12.821,31.354,28.028,-0.95997,7.6082,10.428,8.5563,-3.6627,10.01,43.121,33.655
-15.409,7,-200.31,-65.373,-14.827,12.913,31.394,28.072,-0.80812,7.7819,10.557,8.7205,-3.5927,10.115,43.176,33.74
-15.409,7,-200.31,-65.373,-14.827,12.913,31.394,28.072,-0.80812,7.7819,10.557,8.7205,-3.5927,10.115,43.176,33.74
-15.223,7.1799,-200.45,-65.356,-14.696,13.006,31.434,28.115,-0.65561,7.9561,10.687,8.8854,-3.5223,10.22,43.23,33.824
-15.223,7.1799,-200.45,-65.356,-14.696,13.006,31.434,28.115,-0.65561,7.9561,10.687,8.8854,-3.5223,10.22,43.23,33.824
-15.223,7.1799,-200.45,-65.356,-14.696,13.006,31.434,28.115,-0.65561,7.9561,10.687,8.8854,-3.5223,10.22,43.23,33.824
-15.036,7.3611,-200.58,-65.336,-14.565,13.099,31.473,28.159,-0.50243,8.1307,10.816,9.0511,-3.4514,10.324,43.283,33.909
-15.036,7.3611,-200.58,-65.336,-14.565,13.099,31.473,28.159,-0.50243,8.1307,10.816,9.0511,-3.4514,10.324,43.283,33.909
-15.036,7.3611,-200.58,-65.336,-14.565,13.099,31.473,28.159,-0.50243,8.1307,10.816,9.0511,-3.4514,10.324,43.283,33.909
-14.663,7.7274,-200.85,-65.293,-14.302,13.288,31.552,28.248,-0.19411,8.4811,11.075,9.3849,-3.3083,10.533,43.387,34.078
-14.663,7.7274,-200.85,-65.293,-14.302,13.288,31.552,28.248,-0.19411,8.4811,11.075,9.3849,-3.3083,10.533,43.387,34.078
-14.476,7.9125,-200.97,-65.269,-14.17,13.384,31.59,28.293,-0.038984,8.6568,11.203,9.5529,-3.236,10.637,43.438,34.163
-14.476,7.9125,-200.97,-65.269,-14.17,13.384,31.59,28.293,-0.038984,8.6568,11.203,9.5529,-3.236,10.637,43.438,34.163
-14.29,8.0989,-201.1,-65.244,-14.038,13.48,31.629,28.338,0.11678,8.833,11.332,9.7217,-3.1633,10.741,43.488,34.248
-14.29,8.0989,-201.1,-65.244,-14.038,13.48,31.629,28.338,0.11678,8.833,11.332,9.7217,-3.1633,10.741,43.488,34.248
-14.104,8.2866,-201.22,-65.216,-13.906,13.577,31.667,28.383,0.27319,9.0096,11.461,9.8912,-3.0901,10.845,43.538,34.333
-14.104,8.2866,-201.22,-65.216,-13.906,13.577,31.667,28.383,0.27319,9.0096,11.461,9.8912,-3.0901,10.845,43.538,34.333
-13.918,8.4756,-201.33,-65.187,-13.773,13.674,31.705,28.428,0.43022,9.1865,11.589,10.061,-3.0164,10.949,43.587,34.418
-13.918,8.4756,-201.33,-65.187,-13.773,13.674,31.705,28.428,0.43022,9.1865,11.589,10.061,-3.0164,10.949,43.587,34.418
-13.732,8.666,-201.45,-65.156,-13.641,13.772,31.742,28.474,0.58787,9.3638,11.718,10.232,-2.9423,11.053,43.635,34.503
-13.732,8.666,-201.45,-65.156,-13.641,13.772,31.742,28.474,0.58787,9.3638,11.718,10.232,-2.9423,11.053,43.635,34.503
-13.546,8.8576,-201.56,-65.123,-13.508,13.871,31.78,28.52,0.74615,9.5414,11.846,10.404,-2.8677,11.156,43.683,34.589
-13.546,8.8576,-201.56,-65.123,-13.508,13.871,31.78,28.52,0.74615,9.5414,11.846,10.404,-2.8677,11.156,43.683,34.589
-13.36,9.0505,-201.67,-65.089,-13.375,13.97,31.817,28.566,0.90503,9.7194,11.974,10.576,-2.7926,11.259,43.73,34.674
-13.36,9.0505,-201.67,-65.089,-13.375,13.97,31.817,28.566,0.90503,9.7194,11.974,10.576,-2.7926,11.259,43.73,34.674
-13.175,9.2446,-201.77,-65.052,-13.241,14.07,31.853,28.612,1.0645,9.8977,12.102,10.75,-2.7171,11.362,43.776,34.759
-13.175,9.2446,-201.77,-65.052,-13.241,14.07,31.853,28.612,1.0645,9.8977,12.102,10.75,-2.7171,11.362,43.776,34.759
-12.99,9.4401,-201.87,-65.014,-13.108,14.17,31.89,28.659,1.2246,10.076,12.23,10.923,-2.641,11.465,43.822,34.845
-12.99,9.4401,-201.87,-65.014,-13.108,14.17,31.89,28.659,1.2246,10.076,12.23,10.923,-2.641,11.465,43.822,34.845
-12.804,9.6369,-201.97,-64.974,-12.974,14.272,31.926,28.706,1.3853,10.255,12.358,11.098,-2.5645,11.567,43.867,34.931
-12.804,9.6369,-201.97,-64.974,-12.974,14.272,31.926,28.706,1.3853,10.255,12.358,11.098,-2.5645,11.567,43.867,34.931
-12.619,9.8349,-202.06,-64.932,-12.84,14.374,31.962,28.753,1.5466,10.434,12.485,11.273,-2.4876,11.67,43.912,35.016
-12.619,9.8349,-202.06,-64.932,-12.84,14.374,31.962,28.753,1.5466,10.434,12.485,11.273,-2.4876,11.67,43.912,35.016
-12.619,9.8349,-202.06,-64.932,-12.84,14.374,31.962,28.753,1.5466,10.434,12.485,11.273,-2.4876,11.67,43.912,35.016
-12.435,10.034,-202.15,-64.889,-12.706,14.476,31.997,28.8,1.7084,10.614,12.613,11.449,-2.4101,11.772,43.956,35.102
-12.435,10.034,-202.15,-64.889,-12.706,14.476,31.997,28.8,1.7084,10.614,12.613,11.449,-2.4101,11.772,43.956,35.102
-12.25,10.235,-202.23,-64.843,-12.572,14.579,32.032,28.848,1.8709,10.794,12.74,11.625,-2.3322,11.874,44,35.188
-12.066,10.437,-202.32,-64.796,-12.438,14.683,32.067,28.895,2.0339,10.974,12.868,11.802,-2.2538,11.975,44.042,35.275
-11.882,10.64,-202.4,-64.747,-12.303,14.787,32.102,28.944,2.1974,11.154,12.995,11.98,-2.1749,12.077,44.085,35.361
-11.882,10.64,-202.4,-64.747,-12.303,14.787,32.102,28.944,2.1974,11.154,12.995,11.98,-2.1749,12.077,44.085,35.361
-11.698,10.844,-202.47,-64.695,-12.169,14.892,32.136,28.992,2.3616,11.335,13.122,12.158,-2.0956,12.178,44.127,35.447
-11.698,10.844,-202.47,-64.695,-12.169,14.892,32.136,28.992,2.3616,11.335,13.122,12.158,-2.0956,12.178,44.127,35.447
-11.698,10.844,-202.47,-64.695,-12.169,14.892,32.136,28.992,2.3616,11.335,13.122,12.158,-2.0956,12.178,44.127,35.447
-11.514,11.049,-202.54,-64.642,-12.034,14.998,32.17,29.041,2.5262,11.516,13.249,12.337,-2.0157,12.279,44.168,35.534
-11.514,11.049,-202.54,-64.642,-12.034,14.998,32.17,29.041,2.5262,11.516,13.249,12.337,-2.0157,12.279,44.168,35.534
-11.514,11.049,-202.54,-64.642,-12.034,14.998,32.17,29.041,2.5262,11.516,13.249,12.337,-2.0157,12.279,44.168,35.534
-11.331,11.256,-202.61,-64.587,-11.899,15.104,32.203,29.09,2.6915,11.697,13.376,12.516,-1.9354,12.38,44.209,35.621
-11.148,11.464,-202.68,-64.53,-11.764,15.211,32.236,29.139,2.8572,11.878,13.503,12.696,-1.8546,12.481,44.249,35.708
-11.148,11.464,-202.68,-64.53,-11.764,15.211,32.236,29.139,2.8572,11.878,13.503,12.696,-1.8546,12.481,44.249,35.708
-10.965,11.674,-202.74,-64.471,-11.629,15.318,32.269,29.188,3.0235,12.06,13.63,12.877,-1.7733,12.581,44.289,35.795
-10.965,11.674,-202.74,-64.471,-11.629,15.318,32.269,29.188,3.0235,12.06,13.63,12.877,-1.7733,12.581,44.289,35.795
-10.783,11.884,-202.79,-64.41,-11.494,15.426,32.302,29.238,3.1904,12.241,13.757,13.058,-1.6915,12.681,44.328,35.882
-10.783,11.884,-202.79,-64.41,-11.494,15.426,32.302,29.238,3.1904,12.241,13.757,13.058,-1.6915,12.681,44.328,35.882
-10.6,12.096,-202.85,-64.347,-11.359,15.534,32.334,29.288,3.3577,12.423,13.884,13.24,-1.6092,12.781,44.367,35.97
-10.6,12.096,-202.85,-64.347,-11.359,15.534,32.334,29.288,3.3577,12.423,13.884,13.24,-1.6092,12.781,44.367,35.97
-10.6,12.096,-202.85,-64.347,-11.359,15.534,32.334,29.288,3.3577,12.423,13.884,13.24,-1.6092,12.781,44.367,35.97
-10.418,12.309,-202.9,-64.282,-11.224,15.643,32.366,29.338,3.5256,12.605,14.01,13.422,-1.5264,12.881,44.405,36.057
-10.418,12.309,-202.9,-64.282,-11.224,15.643,32.366,29.338,3.5256,12.605,14.01,13.422,-1.5264,12.881,44.405,36.057
-10.237,12.523,-202.94,-64.215,-11.088,15.753,32.397,29.389,3.694,12.788,14.137,13.605,-1.4432,12.98,44.443,36.145
-10.056,12.738,-202.99,-64.147,-10.953,15.863,32.428,29.439,3.8628,12.97,14.263,13.788,-1.3595,13.079,44.48,36.233
-10.056,12.738,-202.99,-64.147,-10.953,15.863,32.428,29.439,3.8628,12.97,14.263,13.788,-1.3595,13.079,44.48,36.233
-9.8747,12.955,-203.03,-64.075,-10.817,15.974,32.459,29.49,4.0322,13.153,14.39,13.972,-1.2752,13.178,44.517,36.321
-9.6941,13.172,-203.06,-64.002,-10.682,16.085,32.49,29.542,4.2021,13.336,14.516,14.156,-1.1905,13.277,44.554,36.409
-9.6941,13.172,-203.06,-64.002,-10.682,16.085,32.49,29.542,4.2021,13.336,14.516,14.156,-1.1905,13.277,44.554,36.409
-9.6941,13.172,-203.06,-64.002,-10.682,16.085,32.49,29.542,4.2021,13.336,14.516,14.156,-1.1905,13.277,44.554,36.409
-9.5139,13.391,-203.09,-63.927,-10.546,16.197,32.52,29.593,4.3724,13.519,14.643,14.341,-1.1053,13.375,44.59,36.498
-9.5139,13.391,-203.09,-63.927,-10.546,16.197,32.52,29.593,4.3724,13.519,14.643,14.341,-1.1053,13.375,44.59,36.498
-9.5139,13.391,-203.09,-63.927,-10.546,16.197,32.52,29.593,4.3724,13.519,14.643,14.341,-1.1053,13.375,44.59,36.498
-9.334,13.611,-203.12,-63.85,-10.41,16.31,32.55,29.645,4.5432,13.702,14.769,14.526,-1.0196,13.473,44.625,36.586
-9.1545,13.833,-203.14,-63.771,-10.275,16.423,32.579,29.697,4.7145,13.885,14.895,14.712,-0.9334,13.571,44.66,36.675
-8.9754,14.055,-203.16,-63.689,-10.139,16.536,32.608,29.75,4.8863,14.068,15.021,14.898,-0.84671,13.668,44.695,36.764
-8.9754,14.055,-203.16,-63.689,-10.139,16.536,32.608,29.75,4.8863,14.068,15.021,14.898,-0.84671,13.668,44.695,36.764
-8.7967,14.278,-203.18,-63.606,-10.003,16.65,32.637,29.803,5.0585,14.252,15.148,15.085,-0.75953,13.766,44.73,36.854
-8.7967,14.278,-203.18,-63.606,-10.003,16.65,32.637,29.803,5.0585,14.252,15.148,15.085,-0.75953,13.766,44.73,36.854
-8.7967,14.278,-203.18,-63.606,-10.003,16.65,32.637,29.803,5.0585,14.252,15.148,15.085,-0.75953,13.766,44.73,36.854
-8.6183,14.503,-203.19,-63.52,-9.8674,16.765,32.665,29.856,5.2312,14.435,15.274,15.272,-0.67186,13.863,44.764,36.943
-8.6183,14.503,-203.19,-63.52,-9.8674,16.765,32.665,29.856,5.2312,14.435,15.274,15.272,-0.67186,13.863,44.764,36.943
-8.4404,14.729,-203.2,-63.433,-9.7315,16.88,32.693,29.909,5.4043,14.619,15.4,15.459,-0.58369,13.959,44.797,37.033
-8.2629,14.956,-203.2,-63.343,-9.5957,16.996,32.721,29.962,5.5778,14.803,15.526,15.647,-0.49503,14.056,44.83,37.123
-8.2629,14.956,-203.2,-63.343,-9.5957,16.996,32.721,29.962,5.5778,14.803,15.526,15.647,-0.49503,14.056,44.83,37.123
-8.0858,15.184,-203.2,-63.251,-9.4598,17.112,32.748,30.016,5.7518,14.986,15.652,15.836,-0.40588,14.152,44.863,37.213
-8.0858,15.184,-203.2,-63.251,-9.4598,17.112,32.748,30.016,5.7518,14.986,15.652,15.836,-0.40588,14.152,44.863,37.213
-8.0858,15.184,-203.2,-63.251,-9.4598,17.112,32.748,30.016,5.7518,14.986,15.652,15.836,-0.40588,14.152,44.863,37.213
-7.9091,15.413,-203.2,-63.156,-9.324,17.229,32.775,30.07,5.9262,15.17,15.778,16.024,-0.31623,14.248,44.896,37.303
-7.9091,15.413,-203.2,-63.156,-9.324,17.229,32.775,30.07,5.9262,15.17,15.778,16.024,-0.31623,14.248,44.896,37.303
-7.9091,15.413,-203.2,-63.156,-9.324,17.229,32.775,30.07,5.9262,15.17,15.778,16.024,-0.31623,14.248,44.896,37.303
-7.7329,15.643,-203.19,-63.06,-9.1882,17.346,32.801,30.125,6.101,15.354,15.904,16.213,-0.22608,14.343,44.928,37.393
-7.7329,15.643,-203.19,-63.06,-9.1882,17.346,32.801,30.125,6.101,15.354,15.904,16.213,-0.22608,14.343,44.928,37.393
-7.5571,15.875,-203.18,-62.961,-9.0524,17.463,32.828,30.179,6.2762,15.538,16.031,16.402,-0.13544,14.439,44.959,37.484
-7.5571,15.875,-203.18,-62.961,-9.0524,17.463,32.828,30.179,6.2762,15.538,16.031,16.402,-0.13544,14.439,44.959,37.484
-7.3817,16.107,-203.17,-62.861,-8.9166,17.582,32.853,30.234,6.4518,15.722,16.157,16.592,-0.04431,14.534,44.991,37.575
-7.3817,16.107,-203.17,-62.861,-8.9166,17.582,32.853,30.234,6.4518,15.722,16.157,16.592,-0.04431,14.534,44.991,37.575
-7.0324,16.575,-203.12,-62.653,-8.645,17.819,32.903,30.345,6.8042,16.09,16.409,16.972,0.13944,14.723,45.053,37.757
-7.0324,16.575,-203.12,-62.653,-8.645,17.819,32.903,30.345,6.8042,16.09,16.409,16.972,0.13944,14.723,45.053,37.757
-7.0324,16.575,-203.12,-62.653,-8.645,17.819,32.903,30.345,6.8042,16.09,16.409,16.972,0.13944,14.723,45.053,37.757
-6.8585,16.811,-203.1,-62.545,-8.5093,17.939,32.928,30.401,6.9809,16.274,16.535,17.163,0.23206,14.817,45.083,37.849
-6.8585,16.811,-203.1,-62.545,-8.5093,17.939,32.928,30.401,6.9809,16.274,16.535,17.163,0.23206,14.817,45.083,37.849
-6.685,17.048,-203.06,-62.435,-8.3737,18.059,32.952,30.457,7.1581,16.458,16.661,17.354,0.32517,14.91,45.113,37.941
-6.685,17.048,-203.06,-62.435,-8.3737,18.059,32.952,30.457,7.1581,16.458,16.661,17.354,0.32517,14.91,45.113,37.941
-6.5121,17.286,-203.03,-62.324,-8.2381,18.18,32.976,30.513,7.3356,16.642,16.787,17.545,0.41877,15.004,45.143,38.033
-6.3396,17.524,-202.99,-62.209,-8.1025,18.301,32.999,30.57,7.5134,16.826,16.913,17.736,0.51287,15.097,45.173,38.125
-6.3396,17.524,-202.99,-62.209,-8.1025,18.301,32.999,30.57,7.5134,16.826,16.913,17.736,0.51287,15.097,45.173,38.125
-6.3396,17.524,-202.99,-62.209,-8.1025,18.301,32.999,30.57,7.5134,16.826,16.913,17.736,0.51287,15.097,45.173,38.125
-6.1676,17.764,-202.94,-62.093,-7.967,18.422,33.022,30.627,7.6917,17.009,17.039,17.928,0.60746,15.19,45.202,38.217
-6.1676,17.764,-202.94,-62.093,-7.967,18.422,33.022,30.627,7.6917,17.009,17.039,17.928,0.60746,15.19,45.202,38.217
-5.9962,18.005,-202.9,-61.974,-7.8316,18.544,33.045,30.684,7.8702,17.193,17.165,18.12,0.70255,15.282,45.231,38.31
-5.9962,18.005,-202.9,-61.974,-7.8316,18.544,33.045,30.684,7.8702,17.193,17.165,18.12,0.70255,15.282,45.231,38.31
-5.8253,18.247,-202.85,-61.853,-7.6963,18.666,33.067,30.741,8.0491,17.377,17.291,18.312,0.79812,15.374,45.26,38.403
-5.8253,18.247,-202.85,-61.853,-7.6963,18.666,33.067,30.741,8.0491,17.377,17.291,18.312,0.79812,15.374,45.26,38.403
-5.6549,18.49,-202.79,-61.73,-7.561,18.789,33.088,30.799,8.2283,17.561,17.418,18.505,0.89419,15.466,45.288,38.496
-5.6549,18.49,-202.79,-61.73,-7.561,18.789,33.088,30.799,8.2283,17.561,17.418,18.505,0.89419,15.466,45.288,38.496
-5.485,18.733,-202.73,-61.605,-7.4258,18.912,33.11,30.857,8.4079,17.744,17.544,18.697,0.99075,15.557,45.316,38.589
-5.485,18.733,-202.73,-61.605,-7.4258,18.912,33.11,30.857,8.4079,17.744,17.544,18.697,0.99075,15.557,45.316,38.589
-5.3157,18.978,-202.66,-61.477,-7.2908,19.036,33.131,30.915,8.5877,17.928,17.67,18.89,1.0878,15.649,45.344,38.682
-5.3157,18.978,-202.66,-61.477,-7.2908,19.036,33.131,30.915,8.5877,17.928,17.67,18.89,1.0878,15.649,45.344,38.682
-5.1469,19.224,-202.6,-61.346,-7.1558,19.16,33.151,30.974,8.7679,18.111,17.796,19.083,1.1853,15.739,45.372,38.776
-5.1469,19.224,-202.6,-61.346,-7.1558,19.16,33.151,30.974,8.7679,18.111,17.796,19.083,1.1853,15.739,45.372,38.776
-4.9787,19.47,-202.52,-61.214,-7.0209,19.284,33.171,31.032,8.9483,18.295,17.923,19.276,1.2834,15.83,45.399,38.87
-4.9787,19.47,-202.52,-61.214,-7.0209,19.284,33.171,31.032,8.9483,18.295,17.923,19.276,1.2834,15.83,45.399,38.87
-4.811,19.718,-202.45,-61.079,-6.8861,19.409,33.191,31.091,9.1291,18.478,18.049,19.469,1.3819,15.92,45.427,38.964
-4.811,19.718,-202.45,-61.079,-6.8861,19.409,33.191,31.091,9.1291,18.478,18.049,19.469,1.3819,15.92,45.427,38.964
-4.644,19.966,-202.37,-60.942,-6.7514,19.534,33.21,31.151,9.3101,18.661,18.175,19.662,1.4809,16.01,45.454,39.059
-4.4774,20.216,-202.28,-60.802,-6.6169,19.66,33.228,31.21,9.4915,18.844,18.302,19.856,1.5804,16.099,45.48,39.153
-4.4774,20.216,-202.28,-60.802,-6.6169,19.66,33.228,31.21,9.4915,18.844,18.302,19.856,1.5804,16.099,45.48,39.153
-4.4774,20.216,-202.28,-60.802,-6.6169,19.66,33.228,31.21,9.4915,18.844,18.302,19.856,1.5804,16.099,45.48,39.153
-4.3115,20.466,-202.19,-60.661,-6.4824,19.786,33.247,31.27,9.673,19.027,18.428,20.049,1.6804,16.188,45.507,39.248
-4.3115,20.466,-202.19,-60.661,-6.4824,19.786,33.247,31.27,9.673,19.027,18.428,20.049,1.6804,16.188,45.507,39.248
-4.3115,20.466,-202.19,-60.661,-6.4824,19.786,33.247,31.27,9.673,19.027,18.428,20.049,1.6804,16.188,45.507,39.248
-4.1462,20.717,-202.1,-60.516,-6.3481,19.912,33.264,31.33,9.8549,19.209,18.555,20.243,1.7809,16.277,45.533,39.343
-3.9814,20.969,-202,-60.37,-6.214,20.039,33.282,31.391,10.037,19.392,18.681,20.437,1.8818,16.365,45.559,39.438
-3.8173,21.222,-201.9,-60.221,-6.0799,20.166,33.299,31.451,10.219,19.574,18.808,20.631,1.9832,16.453,45.585,39.534
-3.8173,21.222,-201.9,-60.221,-6.0799,20.166,33.299,31.451,10.219,19.574,18.808,20.631,1.9832,16.453,45.585,39.534
-3.8173,21.222,-201.9,-60.221,-6.0799,20.166,33.299,31.451,10.219,19.574,18.808,20.631,1.9832,16.453,45.585,39.534
-3.6537,21.476,-201.79,-60.069,-5.946,20.293,33.315,31.512,10.402,19.756,18.934,20.824,2.0852,16.541,45.611,39.629
-3.6537,21.476,-201.79,-60.069,-5.946,20.293,33.315,31.512,10.402,19.756,18.934,20.824,2.0852,16.541,45.611,39.629
-3.6537,21.476,-201.79,-60.069,-5.946,20.293,33.315,31.512,10.402,19.756,18.934,20.824,2.0852,16.541,45.611,39.629
-3.4908,21.731,-201.68,-59.916,-5.8123,20.421,33.331,31.574,10.585,19.938,19.061,21.018,2.1876,16.628,45.637,39.725
-3.4908,21.731,-201.68,-59.916,-5.8123,20.421,33.331,31.574,10.585,19.938,19.061,21.018,2.1876,16.628,45.637,39.725
-3.4908,21.731,-201.68,-59.916,-5.8123,20.421,33.331,31.574,10.585,19.938,19.061,21.018,2.1876,16.628,45.637,39.725
-3.1668,22.242,-201.45,-59.601,-5.5453,20.678,33.362,31.697,10.951,20.301,19.315,21.406,2.3938,16.802,45.687,39.918
-3.1668,22.242,-201.45,-59.601,-5.5453,20.678,33.362,31.697,10.951,20.301,19.315,21.406,2.3938,16.802,45.687,39.918
-3.1668,22.242,-201.45,-59.601,-5.5453,20.678,33.362,31.697,10.951,20.301,19.315,21.406,2.3938,16.802,45.687,39.918
-3.0057,22.5,-201.32,-59.44,-5.412,20.807,33.376,31.759,11.134,20.482,19.442,21.6,2.4976,16.888,45.713,40.014
-3.0057,22.5,-201.32,-59.44,-5.412,20.807,33.376,31.759,11.134,20.482,19.442,21.6,2.4976,16.888,45.713,40.014
-3.0057,22.5,-201.32,-59.44,-5.412,20.807,33.376,31.759,11.134,20.482,19.442,21.6,2.4976,16.888,45.713,40.014
-2.6855,23.016,-201.07,-59.111,-5.146,21.065,33.404,31.884,11.502,20.844,19.696,21.988,2.7067,17.059,45.762,40.208
-2.6855,23.016,-201.07,-59.111,-5.146,21.065,33.404,31.884,11.502,20.844,19.696,21.988,2.7067,17.059,45.762,40.208
-2.5264,23.275,-200.93,-58.943,-5.0133,21.195,33.417,31.946,11.686,21.025,19.823,22.182,2.812,17.144,45.787,40.305
-2.5264,23.275,-200.93,-58.943,-5.0133,21.195,33.417,31.946,11.686,21.025,19.823,22.182,2.812,17.144,45.787,40.305
-2.3679,23.536,-200.79,-58.772,-4.8807,21.325,33.43,32.009,11.87,21.205,19.95,22.375,2.9177,17.229,45.811,40.402
-2.3679,23.536,-200.79,-58.772,-4.8807,21.325,33.43,32.009,11.87,21.205,19.95,22.375,2.9177,17.229,45.811,40.402
-2.2101,23.796,-200.64,-58.599,-4.7484,21.455,33.442,32.072,12.055,21.385,20.077,22.569,3.024,17.314,45.836,40.5
-2.2101,23.796,-200.64,-58.599,-4.7484,21.455,33.442,32.072,12.055,21.385,20.077,22.569,3.024,17.314,45.836,40.5
-2.0529,24.058,-200.49,-58.424,-4.6162,21.586,33.454,32.136,12.239,21.565,20.204,22.763,3.1306,17.398,45.86,40.597
-2.0529,24.058,-200.49,-58.424,-4.6162,21.586,33.454,32.136,12.239,21.565,20.204,22.763,3.1306,17.398,45.86,40.597
-1.8964,24.32,-200.34,-58.246,-4.4842,21.717,33.465,32.2,12.424,21.744,20.332,22.956,3.2378,17.481,45.884,40.695
-1.8964,24.32,-200.34,-58.246,-4.4842,21.717,33.465,32.2,12.424,21.744,20.332,22.956,3.2378,17.481,45.884,40.695
-1.7406,24.583,-200.18,-58.066,-4.3525,21.848,33.475,32.264,12.609,21.923,20.459,23.15,3.3454,17.564,45.908,40.793
-1.7406,24.583,-200.18,-58.066,-4.3525,21.848,33.475,32.264,12.609,21.923,20.459,23.15,3.3454,17.564,45.908,40.793
-1.5854,24.847,-200.02,-57.883,-4.2209,21.979,33.486,32.328,12.794,22.102,20.587,23.343,3.4535,17.647,45.931,40.892
-1.5854,24.847,-200.02,-57.883,-4.2209,21.979,33.486,32.328,12.794,22.102,20.587,23.343,3.4535,17.647,45.931,40.892
-1.4309,25.111,-199.85,-57.698,-4.0896,22.111,33.495,32.392,12.979,22.28,20.715,23.536,3.562,17.73,45.955,40.99
-1.4309,25.111,-199.85,-57.698,-4.0896,22.111,33.495,32.392,12.979,22.28,20.715,23.536,3.562,17.73,45.955,40.99
-1.2772,25.376,-199.68,-57.51,-3.9584,22.243,33.505,32.457,13.164,22.458,20.842,23.729,3.671,17.812,45.979,41.089
-1.2772,25.376,-199.68,-57.51,-3.9584,22.243,33.505,32.457,13.164,22.458,20.842,23.729,3.671,17.812,45.979,41.089
-1.1241,25.642,-199.51,-57.32,-3.8275,22.375,33.513,32.522,13.35,22.636,20.97,23.921,3.7805,17.894,46.002,41.188
-1.1241,25.642,-199.51,-57.32,-3.8275,22.375,33.513,32.522,13.35,22.636,20.97,23.921,3.7805,17.894,46.002,41.188
-0.97168,25.908,-199.33,-57.127,-3.6968,22.507,33.521,32.587,13.535,22.814,21.098,24.114,3.8904,17.975,46.026,41.287
-0.97168,25.908,-199.33,-57.127,-3.6968,22.507,33.521,32.587,13.535,22.814,21.098,24.114,3.8904,17.975,46.026,41.287
-0.81999,26.175,-199.14,-56.932,-3.5664,22.639,33.529,32.652,13.721,22.991,21.226,24.306,4.0007,18.056,46.049,41.386
-0.81999,26.175,-199.14,-56.932,-3.5664,22.639,33.529,32.652,13.721,22.991,21.226,24.306,4.0007,18.056,46.049,41.386
-0.669,26.442,-198.96,-56.734,-3.4361,22.772,33.536,32.718,13.906,23.167,21.354,24.498,4.1116,18.136,46.072,41.485
-0.669,26.442,-198.96,-56.734,-3.4361,22.772,33.536,32.718,13.906,23.167,21.354,24.498,4.1116,18.136,46.072,41.485
-0.51873,26.71,-198.76,-56.534,-3.3061,22.905,33.543,32.784,14.092,23.344,21.482,24.69,4.2228,18.217,46.095,41.585
-0.51873,26.71,-198.76,-56.534,-3.3061,22.905,33.543,32.784,14.092,23.344,21.482,24.69,4.2228,18.217,46.095,41.585
-0.36916,26.979,-198.56,-56.332,-3.1764,23.038,33.549,32.85,14.278,23.52,21.611,24.882,4.3345,18.296,46.118,41.684
-0.36916,26.979,-198.56,-56.332,-3.1764,23.038,33.549,32.85,14.278,23.52,21.611,24.882,4.3345,18.296,46.118,41.684
-0.22031,27.248,-198.36,-56.127,-3.0469,23.172,33.554,32.916,14.464,23.695,21.739,25.073,4.4467,18.376,46.141,41.784
-0.22031,27.248,-198.36,-56.127,-3.0469,23.172,33.554,32.916,14.464,23.695,21.739,25.073,4.4467,18.376,46.141,41.784
-0.072189,27.517,-198.16,-55.919,-2.9176,23.305,33.559,32.982,14.65,23.87,21.867,25.264,4.5593,18.455,46.164,41.884
0.07521,27.787,-197.95,-55.709,-2.7887,23.439,33.564,33.049,14.836,24.045,21.996,25.455,4.6724,18.533,46.187,41.984
0.07521,27.787,-197.95,-55.709,-2.7887,23.439,33.564,33.049,14.836,24.045,21.996,25.455,4.6724,18.533,46.187,41.984
0.07521,27.787,-197.95,-55.709,-2.7887,23.439,33.564,33.049,14.836,24.045,21.996,25.455,4.6724,18.533,46.187,41.984
0.22188,28.058,-197.73,-55.497,-2.6599,23.573,33.568,33.116,15.022,24.219,22.125,25.646,4.7859,18.612,46.209,42.085
0.22188,28.058,-197.73,-55.497,-2.6599,23.573,33.568,33.116,15.022,24.219,22.125,25.646,4.7859,18.612,46.209,42.085
0.36782,28.329,-197.51,-55.282,-2.5314,23.707,33.571,33.183,15.208,24.393,22.253,25.836,4.8998,18.689,46.232,42.185
0.36782,28.329,-197.51,-55.282,-2.5314,23.707,33.571,33.183,15.208,24.393,22.253,25.836,4.8998,18.689,46.232,42.185
0.51302,28.601,-197.29,-55.065,-2.4032,23.841,33.574,33.25,15.394,24.566,22.382,26.025,5.0141,18.767,46.254,42.285
0.51302,28.601,-197.29,-55.065,-2.4032,23.841,33.574,33.25,15.394,24.566,22.382,26.025,5.0141,18.767,46.254,42.285
0.65747,28.872,-197.06,-54.845,-2.2753,23.975,33.576,33.317,15.581,24.739,22.511,26.215,5.1289,18.844,46.277,42.386
0.80119,29.145,-196.83,-54.623,-2.1476,24.109,33.578,33.385,15.767,24.912,22.64,26.404,5.2441,18.92,46.299,42.487
0.80119,29.145,-196.83,-54.623,-2.1476,24.109,33.578,33.385,15.767,24.912,22.64,26.404,5.2441,18.92,46.299,42.487
0.80119,29.145,-196.83,-54.623,-2.1476,24.109,33.578,33.385,15.767,24.912,22.64,26.404,5.2441,18.92,46.299,42.487
0.94415,29.418,-196.59,-54.398,-2.0203,24.244,33.579,33.453,15.953,25.084,22.77,26.593,5.3598,18.996,46.321,42.588
0.94415,29.418,-196.59,-54.398,-2.0203,24.244,33.579,33.453,15.953,25.084,22.77,26.593,5.3598,18.996,46.321,42.588
0.94415,29.418,-196.59,-54.398,-2.0203,24.244,33.579,33.453,15.953,25.084,22.77,26.593,5.3598,18.996,46.321,42.588
1.0864,29.691,-196.35,-54.17,-1.8932,24.378,33.579,33.52,16.139,25.255,22.899,26.781,5.4758,19.072,46.344,42.689
1.2278,29.964,-196.1,-53.941,-1.7663,24.513,33.579,33.589,16.326,25.426,23.028,26.969,5.5923,19.148,46.366,42.79
1.2278,29.964,-196.1,-53.941,-1.7663,24.513,33.579,33.589,16.326,25.426,23.028,26.969,5.5923,19.148,46.366,42.79
1.3685,30.238,-195.85,-53.708,-1.6398,24.648,33.579,33.657,16.512,25.596,23.158,27.156,5.7092,19.223,46.388,42.891
1.3685,30.238,-195.85,-53.708,-1.6398,24.648,33.579,33.657,16.512,25.596,23.158,27.156,5.7092,19.223,46.388,42.891
1.5085,30.513,-195.6,-53.473,-1.5136,24.783,33.577,33.725,16.698,25.766,23.287,27.343,5.8265,19.297,46.41,42.993
1.5085,30.513,-195.6,-53.473,-1.5136,24.783,33.577,33.725,16.698,25.766,23.287,27.343,5.8265,19.297,46.41,42.993
1.6477,30.787,-195.34,-53.236,-1.3876,24.918,33.576,33.794,16.884,25.936,23.417,27.53,5.9443,19.371,46.432,43.094
1.6477,30.787,-195.34,-53.236,-1.3876,24.918,33.576,33.794,16.884,25.936,23.417,27.53,5.9443,19.371,46.432,43.094
1.7861,31.062,-195.07,-52.996,-1.262,25.053,33.573,33.863,17.07,26.104,23.547,27.716,6.0624,19.445,46.454,43.196
1.7861,31.062,-195.07,-52.996,-1.262,25.053,33.573,33.863,17.07,26.104,23.547,27.716,6.0624,19.445,46.454,43.196
1.9237,31.337,-194.8,-52.754,-1.1367,25.188,33.57,33.932,17.256,26.273,23.677,27.901,6.1809,19.518,46.476,43.297
1.9237,31.337,-194.8,-52.754,-1.1367,25.188,33.57,33.932,17.256,26.273,23.677,27.901,6.1809,19.518,46.476,43.297
2.0606,31.613,-194.53,-52.509,-1.0116,25.323,33.567,34.001,17.442,26.44,23.807,28.086,6.2999,19.591,46.498,43.399
2.1967,31.888,-194.25,-52.262,-0.88693,25.458,33.563,34.07,17.628,26.607,23.937,28.271,6.4192,19.664,46.52,43.501
2.1967,31.888,-194.25,-52.262,-0.88693,25.458,33.563,34.07,17.628,26.607,23.937,28.271,6.4192,19.664,46.52,43.501
2.332,32.164,-193.97,-52.012,-0.76252,25.593,33.558,34.139,17.814,26.774,24.067,28.455,6.5389,19.736,46.542,43.603
2.332,32.164,-193.97,-52.012,-0.76252,25.593,33.558,34.139,17.814,26.774,24.067,28.455,6.5389,19.736,46.542,43.603
2.332,32.164,-193.97,-52.012,-0.76252,25.593,33.558,34.139,17.814,26.774,24.067,28.455,6.5389,19.736,46.542,43.603
2.4666,32.44,-193.69,-51.76,-0.63843,25.728,33.553,34.209,18,26.94,24.198,28.638,6.659,19.807,46.564,43.705
2.4666,32.44,-193.69,-51.76,-0.63843,25.728,33.553,34.209,18,26.94,24.198,28.638,6.659,19.807,46.564,43.705
2.4666,32.44,-193.69,-51.76,-0.63843,25.728,33.553,34.209,18,26.94,24.198,28.638,6.659,19.807,46.564,43.705
2.6003,32.717,-193.4,-51.505,-0.51466,25.863,33.547,34.278,18.186,27.105,24.328,28.821,6.7795,19.879,46.586,43.807
2.6003,32.717,-193.4,-51.505,-0.51466,25.863,33.547,34.278,18.186,27.105,24.328,28.821,6.7795,19.879,46.586,43.807
2.8655,33.27,-192.8,-50.988,-0.26808,26.133,33.533,34.418,18.557,27.434,24.59,29.185,7.0217,20.02,46.629,44.011
2.8655,33.27,-192.8,-50.988,-0.26808,26.133,33.533,34.418,18.557,27.434,24.59,29.185,7.0217,20.02,46.629,44.011
2.9969,33.547,-192.5,-50.726,-0.14528,26.269,33.525,34.488,18.743,27.598,24.721,29.366,7.1433,20.09,46.651,44.113
2.9969,33.547,-192.5,-50.726,-0.14528,26.269,33.525,34.488,18.743,27.598,24.721,29.366,7.1433,20.09,46.651,44.113
2.9969,33.547,-192.5,-50.726,-0.14528,26.269,33.525,34.488,18.743,27.598,24.721,29.366,7.1433,20.09,46.651,44.113
3.1276,33.824,-192.19,-50.462,-0.022817,26.404,33.517,34.558,18.928,27.76,24.852,29.546,7.2653,20.159,46.673,44.215
3.1276,33.824,-192.19,-50.462,-0.022817,26.404,33.517,34.558,18.928,27.76,24.852,29.546,7.2653,20.159,46.673,44.215
3.1276,33.824,-192.19,-50.462,-0.022817,26.404,33.517,34.558,18.928,27.76,24.852,29.546,7.2653,20.159,46.673,44.215
3.2574,34.101,-191.87,-50.195,0.099316,26.539,33.508,34.628,19.113,27.923,24.983,29.726,7.3877,20.228,46.694,44.317
3.3864,34.378,-191.56,-49.925,0.22111,26.674,33.498,34.698,19.298,28.084,25.114,29.905,7.5104,20.297,46.716,44.419
3.5147,34.655,-191.23,-49.653,0.34257,26.809,33.488,34.769,19.483,28.245,25.245,30.083,7.6335,20.365,46.738,44.522
3.5147,34.655,-191.23,-49.653,0.34257,26.809,33.488,34.769,19.483,28.245,25.245,30.083,7.6335,20.365,46.738,44.522
3.5147,34.655,-191.23,-49.653,0.34257,26.809,33.488,34.769,19.483,28.245,25.245,30.083,7.6335,20.365,46.738,44.522
3.6421,34.932,-190.91,-49.379,0.46369,26.943,33.477,34.839,19.668,28.405,25.376,30.261,7.757,20.433,46.759,44.624
3.6421,34.932,-190.91,-49.379,0.46369,26.943,33.477,34.839,19.668,28.405,25.376,30.261,7.757,20.433,46.759,44.624
3.6421,34.932,-190.91,-49.379,0.46369,26.943,33.477,34.839,19.668,28.405,25.376,30.261,7.757,20.433,46.759,44.624
3.7688,35.209,-190.58,-49.102,0.58446,27.078,33.465,34.91,19.853,28.565,25.508,30.438,7.8808,20.5,46.781,44.726
3.8946,35.487,-190.24,-48.822,0.70489,27.213,33.453,34.98,20.037,28.723,25.64,30.614,8.0049,20.567,46.802,44.828
4.0197,35.764,-189.9,-48.54,0.82496,27.347,33.44,35.051,20.222,28.881,25.771,30.789,8.1294,20.634,46.824,44.93
4.0197,35.764,-189.9,-48.54,0.82496,27.347,33.44,35.051,20.222,28.881,25.771,30.789,8.1294,20.634,46.824,44.93
4.1439,36.041,-189.56,-48.256,0.94469,27.482,33.427,35.122,20.406,29.039,25.903,30.964,8.2542,20.7,46.845,45.032
4.1439,36.041,-189.56,-48.256,0.94469,27.482,33.427,35.122,20.406,29.039,25.903,30.964,8.2542,20.7,46.845,45.032
4.1439,36.041,-189.56,-48.256,0.94469,27.482,33.427,35.122,20.406,29.039,25.903,30.964,8.2542,20.7,46.845,45.032
4.2674,36.318,-189.21,-47.969,1.0641,27.616,33.413,35.193,20.59,29.195,26.035,31.138,8.3794,20.765,46.867,45.134
4.2674,36.318,-189.21,-47.969,1.0641,27.616,33.413,35.193,20.59,29.195,26.035,31.138,8.3794,20.765,46.867,45.134
4.2674,36.318,-189.21,-47.969,1.0641,27.616,33.413,35.193,20.59,29.195,26.035,31.138,8.3794,20.765,46.867,45.134
4.39,36.595,-188.86,-47.68,1.1831,27.75,33.398,35.263,20.774,29.351,26.167,31.311,8.5048,20.831,46.888,45.236
4.5119,36.872,-188.5,-47.389,1.3017,27.884,33.383,35.334,20.957,29.506,26.299,31.483,8.6306,20.895,46.91,45.338
4.5119,36.872,-188.5,-47.389,1.3017,27.884,33.383,35.334,20.957,29.506,26.299,31.483,8.6306,20.895,46.91,45.338
4.6329,37.149,-188.14,-47.094,1.42,28.018,33.366,35.405,21.141,29.661,26.432,31.655,8.7568,20.96,46.931,45.44
4.7532,37.426,-187.77,-46.798,1.538,28.152,33.35,35.476,21.324,29.814,26.564,31.826,8.8832,21.023,46.953,45.542
4.7532,37.426,-187.77,-46.798,1.538,28.152,33.35,35.476,21.324,29.814,26.564,31.826,8.8832,21.023,46.953,45.542
4.8726,37.703,-187.4,-46.499,1.6555,28.286,33.332,35.547,21.507,29.967,26.696,31.995,9.0099,21.087,46.974,45.644
4.8726,37.703,-187.4,-46.499,1.6555,28.286,33.332,35.547,21.507,29.967,26.696,31.995,9.0099,21.087,46.974,45.644
4.8726,37.703,-187.4,-46.499,1.6555,28.286,33.332,35.547,21.507,29.967,26.696,31.995,9.0099,21.087,46.974,45.644
4.9912,37.979,-187.02,-46.198,1.7727,28.419,33.314,35.618,21.69,30.119,26.829,32.164,9.1369,21.15,46.995,45.745
4.9912,37.979,-187.02,-46.198,1.7727,28.419,33.314,35.618,21.69,30.119,26.829,32.164,9.1369,21.15,46.995,45.745
5.109,38.255,-186.64,-45.894,1.8896,28.552,33.295,35.689,21.872,30.27,26.962,32.332,9.2643,21.212,47.017,45.847
5.109,38.255,-186.64,-45.894,1.8896,28.552,33.295,35.689,21.872,30.27,26.962,32.332,9.2643,21.212,47.017,45.847
5.226,38.531,-186.26,-45.588,2.006,28.685,33.276,35.761,22.055,30.42,27.094,32.499,9.3919,21.274,47.038,45.948
5.226,38.531,-186.26,-45.588,2.006,28.685,33.276,35.761,22.055,30.42,27.094,32.499,9.3919,21.274,47.038,45.948
5.3422,38.807,-185.87,-45.28,2.1221,28.818,33.256,35.832,22.237,30.57,27.227,32.666,9.5198,21.336,47.059,46.05
5.3422,38.807,-185.87,-45.28,2.1221,28.818,33.256,35.832,22.237,30.57,27.227,32.666,9.5198,21.336,47.059,46.05
5.4576,39.083,-185.48,-44.969,2.2378,28.95,33.235,35.903,22.419,30.719,27.36,32.831,9.648,21.397,47.08,46.151
5.4576,39.083,-185.48,-44.969,2.2378,28.95,33.235,35.903,22.419,30.719,27.36,32.831,9.648,21.397,47.08,46.151
5.5722,39.358,-185.08,-44.655,2.3532,29.083,33.213,35.974,22.6,30.867,27.493,32.995,9.7765,21.458,47.102,46.252
5.5722,39.358,-185.08,-44.655,2.3532,29.083,33.213,35.974,22.6,30.867,27.493,32.995,9.7765,21.458,47.102,46.252
5.686,39.633,-184.68,-44.34,2.4681,29.215,33.191,36.045,22.782,31.014,27.627,33.159,9.9052,21.518,47.123,46.353
5.686,39.633,-184.68,-44.34,2.4681,29.215,33.191,36.045,22.782,31.014,27.627,33.159,9.9052,21.518,47.123,46.353
5.799,39.907,-184.27,-44.022,2.5827,29.346,33.168,36.116,22.963,31.16,27.76,33.321,10.034,21.578,47.144,46.454
5.799,39.907,-184.27,-44.022,2.5827,29.346,33.168,36.116,22.963,31.16,27.76,33.321,10.034,21.578,47.144,46.454
5.9111,40.182,-183.86,-43.702,2.6969,29.478,33.145,36.187,23.143,31.305,27.893,33.483,10.163,21.637,47.165,46.554
5.9111,40.182,-183.86,-43.702,2.6969,29.478,33.145,36.187,23.143,31.305,27.893,33.483,10.163,21.637,47.165,46.554
6.0225,40.455,-183.44,-43.379,2.8107,29.609,33.12,36.258,23.324,31.45,28.027,33.643,10.293,21.696,47.186,46.655
6.0225,40.455,-183.44,-43.379,2.8107,29.609,33.12,36.258,23.324,31.45,28.027,33.643,10.293,21.696,47.186,46.655
6.0225,40.455,-183.44,-43.379,2.8107,29.609,33.12,36.258,23.324,31.45,28.027,33.643,10.293,21.696,47.186,46.655
6.1331,40.729,-183.02,-43.054,2.9241,29.74,33.095,36.329,23.504,31.593,28.16,33.802,10.423,21.755,47.207,46.755
6.1331,40.729,-183.02,-43.054,2.9241,29.74,33.095,36.329,23.504,31.593,28.16,33.802,10.423,21.755,47.207,46.755
6.2428,41.002,-182.6,-42.726,3.0372,29.87,33.07,36.4,23.684,31.736,28.294,33.961,10.553,21.813,47.228,46.855
6.2428,41.002,-182.6,-42.726,3.0372,29.87,33.07,36.4,23.684,31.736,28.294,33.961,10.553,21.813,47.228,46.855
6.3517,41.275,-182.17,-42.397,3.1499,30.001,33.043,36.47,23.863,31.877,28.428,34.118,10.683,21.87,47.249,46.955
6.4599,41.547,-181.74,-42.065,3.2621,30.131,33.016,36.541,24.042,32.018,28.561,34.274,10.813,21.927,47.27,47.055
6.4599,41.547,-181.74,-42.065,3.2621,30.131,33.016,36.541,24.042,32.018,28.561,34.274,10.813,21.927,47.27,47.055
6.5672,41.819,-181.3,-41.731,3.374,30.26,32.989,36.612,24.221,32.158,28.695,34.429,10.944,21.984,47.291,47.154
6.5672,41.819,-181.3,-41.731,3.374,30.26,32.989,36.612,24.221,32.158,28.695,34.429,10.944,21.984,47.291,47.154
6.6737,42.09,-180.86,-41.394,3.4855,30.39,32.96,36.682,24.4,32.297,28.829,34.583,11.075,22.04,47.312,47.253
6.6737,42.09,-180.86,-41.394,3.4855,30.39,32.96,36.682,24.4,32.297,28.829,34.583,11.075,22.04,47.312,47.253
6.7795,42.361,-180.41,-41.055,3.5966,30.518,32.931,36.753,24.578,32.435,28.963,34.736,11.206,22.095,47.333,47.352
6.7795,42.361,-180.41,-41.055,3.5966,30.518,32.931,36.753,24.578,32.435,28.963,34.736,11.206,22.095,47.333,47.352
6.7795,42.361,-180.41,-41.055,3.5966,30.518,32.931,36.753,24.578,32.435,28.963,34.736,11.206,22.095,47.333,47.352
6.8844,42.631,-179.96,-40.714,3.7073,30.647,32.901,36.823,24.756,32.572,29.097,34.888,11.337,22.15,47.353,47.451
6.8844,42.631,-179.96,-40.714,3.7073,30.647,32.901,36.823,24.756,32.572,29.097,34.888,11.337,22.15,47.353,47.451
6.8844,42.631,-179.96,-40.714,3.7073,30.647,32.901,36.823,24.756,32.572,29.097,34.888,11.337,22.15,47.353,47.451
7.0919,43.17,-179.05,-40.025,3.9276,30.903,32.839,36.964,25.11,32.843,29.366,35.188,11.601,22.259,47.395,47.648
7.0919,43.17,-179.05,-40.025,3.9276,30.903,32.839,36.964,25.11,32.843,29.366,35.188,11.601,22.259,47.395,47.648
7.1944,43.439,-178.59,-39.677,4.0371,31.03,32.807,37.034,25.287,32.977,29.5,35.336,11.732,22.313,47.415,47.746
7.1944,43.439,-178.59,-39.677,4.0371,31.03,32.807,37.034,25.287,32.977,29.5,35.336,11.732,22.313,47.415,47.746
7.2961,43.707,-178.12,-39.327,4.1462,31.157,32.774,37.104,25.463,33.111,29.634,35.483,11.864,22.366,47.436,47.843
7.2961,43.707,-178.12,-39.327,4.1462,31.157,32.774,37.104,25.463,33.111,29.634,35.483,11.864,22.366,47.436,47.843
7.3971,43.974,-177.65,-38.974,4.255,31.284,32.74,37.173,25.639,33.243,29.769,35.629,11.997,22.419,47.457,47.941
7.4972,44.24,-177.17,-38.62,4.3633,31.41,32.706,37.243,25.815,33.374,29.903,35.773,12.129,22.471,47.477,48.038
7.4972,44.24,-177.17,-38.62,4.3633,31.41,32.706,37.243,25.815,33.374,29.903,35.773,12.129,22.471,47.477,48.038
7.5966,44.506,-176.69,-38.263,4.4713,31.535,32.671,37.313,25.99,33.504,30.038,35.917,12.262,22.523,47.497,48.135
7.5966,44.506,-176.69,-38.263,4.4713,31.535,32.671,37.313,25.99,33.504,30.038,35.917,12.262,22.523,47.497,48.135
7.5966,44.506,-176.69,-38.263,4.4713,31.535,32.671,37.313,25.99,33.504,30.038,35.917,12.262,22.523,47.497,48.135
7.6952,44.772,-176.2,-37.904,4.5788,31.66,32.635,37.382,26.165,33.633,30.173,36.059,12.394,22.575,47.518,48.231
7.6952,44.772,-176.2,-37.904,4.5788,31.66,32.635,37.382,26.165,33.633,30.173,36.059,12.394,22.575,47.518,48.231
7.793,45.036,-175.72,-37.543,4.686,31.785,32.598,37.451,26.339,33.761,30.307,36.199,12.527,22.625,47.538,48.327
7.793,45.036,-175.72,-37.543,4.686,31.785,32.598,37.451,26.339,33.761,30.307,36.199,12.527,22.625,47.538,48.327
7.89,45.3,-175.22,-37.179,4.7927,31.909,32.561,37.52,26.513,33.888,30.442,36.339,12.66,22.676,47.558,48.423
7.89,45.3,-175.22,-37.179,4.7927,31.909,32.561,37.52,26.513,33.888,30.442,36.339,12.66,22.676,47.558,48.423
7.9862,45.563,-174.72,-36.814,4.8991,32.033,32.523,37.589,26.687,34.014,30.577,36.477,12.793,22.726,47.578,48.518
7.9862,45.563,-174.72,-36.814,4.8991,32.033,32.523,37.589,26.687,34.014,30.577,36.477,12.793,22.726,47.578,48.518
8.0817,45.825,-174.22,-36.446,5.0051,32.156,32.484,37.658,26.86,34.139,30.712,36.614,12.926,22.775,47.598,48.613
8.0817,45.825,-174.22,-36.446,5.0051,32.156,32.484,37.658,26.86,34.139,30.712,36.614,12.926,22.775,47.598,48.613
8.1763,46.086,-173.72,-36.076,5.1106,32.279,32.445,37.726,27.033,34.263,30.847,36.75,13.06,22.824,47.618,48.708
8.1763,46.086,-173.72,-36.076,5.1106,32.279,32.445,37.726,27.033,34.263,30.847,36.75,13.06,22.824,47.618,48.708
8.2702,46.347,-173.21,-35.705,5.2158,32.401,32.404,37.794,27.205,34.385,30.981,36.884,13.193,22.872,47.638,48.802
8.2702,46.347,-173.21,-35.705,5.2158,32.401,32.404,37.794,27.205,34.385,30.981,36.884,13.193,22.872,47.638,48.802
8.3633,46.606,-172.69,-35.331,5.3205,32.523,32.363,37.863,27.377,34.507,31.116,37.017,13.327,22.92,47.658,48.896
8.3633,46.606,-172.69,-35.331,5.3205,32.523,32.363,37.863,27.377,34.507,31.116,37.017,13.327,22.92,47.658,48.896
8.4557,46.865,-172.17,-34.954,5.4249,32.644,32.322,37.93,27.548,34.627,31.251,37.148,13.46,22.968,47.678,48.989
8.5473,47.123,-171.65,-34.576,5.5289,32.764,32.279,37.998,27.719,34.747,31.386,37.278,13.594,23.015,47.697,49.082
8.5473,47.123,-171.65,-34.576,5.5289,32.764,32.279,37.998,27.719,34.747,31.386,37.278,13.594,23.015,47.697,49.082
8.5473,47.123,-171.65,-34.576,5.5289,32.764,32.279,37.998,27.719,34.747,31.386,37.278,13.594,23.015,47.697,49.082
8.6381,47.38,-171.12,-34.196,5.6324,32.884,32.236,38.065,27.889,34.865,31.521,37.407,13.728,23.061,47.717,49.175
8.6381,47.38,-171.12,-34.196,5.6324,32.884,32.236,38.065,27.889,34.865,31.521,37.407,13.728,23.061,47.717,49.175
8.7282,47.636,-170.59,-33.814,5.7356,33.003,32.192,38.132,28.059,34.982,31.656,37.534,13.862,23.107,47.736,49.267
8.7282,47.636,-170.59,-33.814,5.7356,33.003,32.192,38.132,28.059,34.982,31.656,37.534,13.862,23.107,47.736,49.267
8.8175,47.891,-170.06,-33.43,5.8384,33.122,32.147,38.199,28.228,35.098,31.792,37.66,13.995,23.152,47.755,49.358
8.8175,47.891,-170.06,-33.43,5.8384,33.122,32.147,38.199,28.228,35.098,31.792,37.66,13.995,23.152,47.755,49.358
8.906,48.145,-169.52,-33.043,5.9408,33.24,32.101,38.266,28.397,35.213,31.927,37.784,14.129,23.197,47.775,49.449
