-68.174,-79.044,-45.051,24.951,7.0596,-7.128,57.437,77.821,23.038,-128.74,88.823,-214.48,-198.09,-73.871,44.045,-110.7
-68.174,-79.044,-45.051,24.951,7.0596,-7.128,57.437,77.821,23.038,-128.74,88.823,-214.48,-198.09,-73.871,44.045,-110.7
-68.174,-79.044,-45.051,24.951,7.0596,-7.128,57.437,77.821,23.038,-128.74,88.823,-214.48,-198.09,-73.871,44.045,-110.7
-67.877,-79.285,-45.649,24.304,6.6556,-7.9544,57.226,77.124,23.795,-127.67,89.699,-216.51,-197.9,-75.072,44.27,-111.57
-67.877,-79.285,-45.649,24.304,6.6556,-7.9544,57.226,77.124,23.795,-127.67,89.699,-216.51,-197.9,-75.072,44.27,-111.57
-67.877,-79.285,-45.649,24.304,6.6556,-7.9544,57.226,77.124,23.795,-127.67,89.699,-216.51,-197.9,-75.072,44.27,-111.57
-67.578,-79.518,-46.245,23.655,6.2509,-8.7818,57.014,76.421,24.549,-126.6,90.567,-218.52,-197.7,-76.272,44.493,-112.43
-67.578,-79.518,-46.245,23.655,6.2509,-8.7818,57.014,76.421,24.549,-126.6,90.567,-218.52,-197.7,-76.272,44.493,-112.43
-67.277,-79.745,-46.839,23.004,5.8456,-9.6103,56.801,75.714,25.3,-125.52,91.426,-220.52,-197.5,-77.47,44.714,-113.28
-66.973,-79.964,-47.43,22.352,5.4396,-10.44,56.586,75,26.047,-124.43,92.277,-222.5,-197.3,-78.666,44.932,-114.13
-66.973,-79.964,-47.43,22.352,5.4396,-10.44,56.586,75,26.047,-124.43,92.277,-222.5,-197.3,-78.666,44.932,-114.13
-66.667,-80.177,-48.019,21.699,5.0331,-11.27,56.371,74.282,26.792,-123.33,93.12,-224.47,-197.1,-79.861,45.147,-114.98
-66.667,-80.177,-48.019,21.699,5.0331,-11.27,56.371,74.282,26.792,-123.33,93.12,-224.47,-197.1,-79.861,45.147,-114.98
-66.359,-80.382,-48.606,21.044,4.6259,-12.102,56.154,73.558,27.534,-122.23,93.954,-226.43,-196.9,-81.053,45.36,-115.83
-66.359,-80.382,-48.606,21.044,4.6259,-12.102,56.154,73.558,27.534,-122.23,93.954,-226.43,-196.9,-81.053,45.36,-115.83
-66.049,-80.581,-49.191,20.387,4.2181,-12.934,55.936,72.828,28.273,-121.12,94.779,-228.37,-196.69,-82.244,45.571,-116.67
-66.049,-80.581,-49.191,20.387,4.2181,-12.934,55.936,72.828,28.273,-121.12,94.779,-228.37,-196.69,-82.244,45.571,-116.67
-66.049,-80.581,-49.191,20.387,4.2181,-12.934,55.936,72.828,28.273,-121.12,94.779,-228.37,-196.69,-82.244,45.571,-116.67
-65.736,-80.773,-49.773,19.729,3.8098,-13.768,55.717,72.094,29.01,-120,95.596,-230.3,-196.49,-83.433,45.779,-117.5
-65.736,-80.773,-49.773,19.729,3.8098,-13.768,55.717,72.094,29.01,-120,95.596,-230.3,-196.49,-83.433,45.779,-117.5
-65.736,-80.773,-49.773,19.729,3.8098,-13.768,55.717,72.094,29.01,-120,95.596,-230.3,-196.49,-83.433,45.779,-117.5
-65.104,-81.136,-50.931,18.409,2.9914,-15.437,55.276,70.609,30.473,-117.75,97.202,-234.11,-196.07,-85.804,46.187,-119.16
-65.104,-81.136,-50.931,18.409,2.9914,-15.437,55.276,70.609,30.473,-117.75,97.202,-234.11,-196.07,-85.804,46.187,-119.16
-65.104,-81.136,-50.931,18.409,2.9914,-15.437,55.276,70.609,30.473,-117.75,97.202,-234.11,-196.07,-85.804,46.187,-119.16
-64.785,-81.306,-51.506,17.747,2.5813,-16.273,55.053,69.858,31.201,-116.62,97.992,-235.99,-195.86,-86.986,46.387,-119.99
-64.785,-81.306,-51.506,17.747,2.5813,-16.273,55.053,69.858,31.201,-116.62,97.992,-235.99,-195.86,-86.986,46.387,-119.99
-64.463,-81.47,-52.079,17.084,2.1707,-17.11,54.83,69.102,31.925,-115.47,98.772,-237.86,-195.65,-88.166,46.585,-120.81
-64.463,-81.47,-52.079,17.084,2.1707,-17.11,54.83,69.102,31.925,-115.47,98.772,-237.86,-195.65,-88.166,46.585,-120.81
-64.139,-81.627,-52.649,16.42,1.7596,-17.947,54.605,68.341,32.647,-114.32,99.543,-239.71,-195.43,-89.343,46.78,-121.62
-63.813,-81.777,-53.217,15.754,1.3479,-18.785,54.379,67.575,33.366,-113.17,100.3,-241.55,-195.22,-90.518,46.972,-122.43
-63.813,-81.777,-53.217,15.754,1.3479,-18.785,54.379,67.575,33.366,-113.17,100.3,-241.55,-195.22,-90.518,46.972,-122.43
-63.485,-81.921,-53.782,15.088,0.93567,-19.624,54.152,66.804,34.081,-112.01,101.06,-243.38,-195,-91.689,47.162,-123.24
-63.155,-82.057,-54.345,14.42,0.52292,-20.463,53.924,66.028,34.794,-110.84,101.8,-245.18,-194.78,-92.859,47.349,-124.04
-63.155,-82.057,-54.345,14.42,0.52292,-20.463,53.924,66.028,34.794,-110.84,101.8,-245.18,-194.78,-92.859,47.349,-124.04
-63.155,-82.057,-54.345,14.42,0.52292,-20.463,53.924,66.028,34.794,-110.84,101.8,-245.18,-194.78,-92.859,47.349,-124.04
-62.822,-82.186,-54.905,13.751,0.10965,-21.303,53.694,65.247,35.505,-109.67,102.53,-246.97,-194.56,-94.025,47.534,-124.84
-62.822,-82.186,-54.905,13.751,0.10965,-21.303,53.694,65.247,35.505,-109.67,102.53,-246.97,-194.56,-94.025,47.534,-124.84
-62.488,-82.309,-55.463,13.082,-0.30413,-22.143,53.464,64.461,36.212,-108.49,103.26,-248.75,-194.34,-95.188,47.716,-125.63
-62.488,-82.309,-55.463,13.082,-0.30413,-22.143,53.464,64.461,36.212,-108.49,103.26,-248.75,-194.34,-95.188,47.716,-125.63
-62.151,-82.424,-56.018,12.411,-0.71842,-22.984,53.232,63.67,36.916,-107.31,103.97,-250.51,-194.11,-96.348,47.895,-126.42
-62.151,-82.424,-56.018,12.411,-0.71842,-22.984,53.232,63.67,36.916,-107.31,103.97,-250.51,-194.11,-96.348,47.895,-126.42
-61.812,-82.533,-56.57,11.739,-1.1332,-23.825,52.999,62.874,37.618,-106.12,104.67,-252.25,-193.89,-97.505,48.071,-127.2
-61.471,-82.635,-57.12,11.067,-1.5485,-24.667,52.765,62.074,38.317,-104.92,105.37,-253.98,-193.66,-98.659,48.245,-127.98
-61.471,-82.635,-57.12,11.067,-1.5485,-24.667,52.765,62.074,38.317,-104.92,105.37,-253.98,-193.66,-98.659,48.245,-127.98
-61.471,-82.635,-57.12,11.067,-1.5485,-24.667,52.765,62.074,38.317,-104.92,105.37,-253.98,-193.66,-98.659,48.245,-127.98
-61.128,-82.73,-57.667,10.394,-1.9643,-25.509,52.53,61.268,39.013,-103.72,106.05,-255.69,-193.43,-99.809,48.416,-128.76
-61.128,-82.73,-57.667,10.394,-1.9643,-25.509,52.53,61.268,39.013,-103.72,106.05,-255.69,-193.43,-99.809,48.416,-128.76
-61.128,-82.73,-57.667,10.394,-1.9643,-25.509,52.53,61.268,39.013,-103.72,106.05,-255.69,-193.43,-99.809,48.416,-128.76
-60.783,-82.818,-58.211,9.7198,-2.3805,-26.351,52.294,60.458,39.707,-102.52,106.73,-257.39,-193.2,-100.96,48.584,-129.53
-60.436,-82.899,-58.753,9.0451,-2.7973,-27.193,52.056,59.644,40.397,-101.31,107.39,-259.07,-192.97,-102.1,48.749,-130.29
-60.087,-82.974,-59.292,8.3698,-3.2145,-28.036,51.818,58.824,41.085,-100.09,108.04,-260.73,-192.74,-103.24,48.912,-131.05
-60.087,-82.974,-59.292,8.3698,-3.2145,-28.036,51.818,58.824,41.085,-100.09,108.04,-260.73,-192.74,-103.24,48.912,-131.05
-60.087,-82.974,-59.292,8.3698,-3.2145,-28.036,51.818,58.824,41.085,-100.09,108.04,-260.73,-192.74,-103.24,48.912,-131.05
-59.735,-83.042,-59.828,7.6939,-3.6322,-28.878,51.578,58.001,41.77,-98.871,108.69,-262.37,-192.5,-104.38,49.072,-131.81
-59.735,-83.042,-59.828,7.6939,-3.6322,-28.878,51.578,58.001,41.77,-98.871,108.69,-262.37,-192.5,-104.38,49.072,-131.81
-59.382,-83.103,-60.361,7.0174,-4.0503,-29.721,51.337,57.173,42.453,-97.646,109.32,-264,-192.27,-105.51,49.229,-132.56
-59.382,-83.103,-60.361,7.0174,-4.0503,-29.721,51.337,57.173,42.453,-97.646,109.32,-264,-192.27,-105.51,49.229,-132.56
-59.027,-83.157,-60.891,6.3405,-4.4689,-30.563,51.094,56.34,43.132,-96.416,109.94,-265.61,-192.03,-106.64,49.383,-133.3
-59.027,-83.157,-60.891,6.3405,-4.4689,-30.563,51.094,56.34,43.132,-96.416,109.94,-265.61,-192.03,-106.64,49.383,-133.3
-58.669,-83.204,-61.419,5.6631,-4.888,-31.406,50.851,55.503,43.809,-95.181,110.55,-267.21,-191.79,-107.76,49.535,-134.04
-58.669,-83.204,-61.419,5.6631,-4.888,-31.406,50.851,55.503,43.809,-95.181,110.55,-267.21,-191.79,-107.76,49.535,-134.04
-58.31,-83.245,-61.944,4.9853,-5.3075,-32.248,50.606,54.662,44.484,-93.941,111.16,-268.79,-191.55,-108.88,49.683,-134.78
-58.31,-83.245,-61.944,4.9853,-5.3075,-32.248,50.606,54.662,44.484,-93.941,111.16,-268.79,-191.55,-108.88,49.683,-134.78
-57.948,-83.279,-62.466,4.3071,-5.7274,-33.09,50.36,53.817,45.155,-92.697,111.75,-270.35,-191.31,-110,49.829,-135.51
-57.948,-83.279,-62.466,4.3071,-5.7274,-33.09,50.36,53.817,45.155,-92.697,111.75,-270.35,-191.31,-110,49.829,-135.51
-57.585,-83.306,-62.985,3.6287,-6.1478,-33.932,50.112,52.967,45.825,-91.449,112.33,-271.89,-191.07,-111.11,49.972,-136.24
-57.585,-83.306,-62.985,3.6287,-6.1478,-33.932,50.112,52.967,45.825,-91.449,112.33,-271.89,-191.07,-111.11,49.972,-136.24
-57.22,-83.327,-63.501,2.95,-6.5686,-34.774,49.864,52.114,46.491,-90.197,112.9,-273.42,-190.82,-112.22,50.113,-136.96
-57.22,-83.327,-63.501,2.95,-6.5686,-34.774,49.864,52.114,46.491,-90.197,112.9,-273.42,-190.82,-112.22,50.113,-136.96
-56.852,-83.341,-64.014,2.2712,-6.9899,-35.615,49.614,51.256,47.155,-88.94,113.46,-274.92,-190.58,-113.32,50.25,-137.67
-56.852,-83.341,-64.014,2.2712,-6.9899,-35.615,49.614,51.256,47.155,-88.94,113.46,-274.92,-190.58,-113.32,50.25,-137.67
-56.483,-83.348,-64.525,1.5922,-7.4115,-36.456,49.363,50.395,47.816,-87.68,114,-276.41,-190.33,-114.42,50.385,-138.38
-56.483,-83.348,-64.525,1.5922,-7.4115,-36.456,49.363,50.395,47.816,-87.68,114,-276.41,-190.33,-114.42,50.385,-138.38
-56.112,-83.349,-65.032,0.91314,-7.8336,-37.296,49.111,49.529,48.475,-86.416,114.54,-277.89,-190.08,-115.52,50.516,-139.08
-56.112,-83.349,-65.032,0.91314,-7.8336,-37.296,49.111,49.529,48.475,-86.416,114.54,-277.89,-190.08,-115.52,50.516,-139.08
-55.738,-83.343,-65.536,0.23406,-8.2561,-38.136,48.857,48.66,49.131,-85.148,115.07,-279.34,-189.83,-116.61,50.645,-139.78
-55.738,-83.343,-65.536,0.23406,-8.2561,-38.136,48.857,48.66,49.131,-85.148,115.07,-279.34,-189.83,-116.61,50.645,-139.78
-55.363,-83.331,-66.038,-0.44498,-8.679,-38.975,48.602,47.788,49.785,-83.876,115.58,-280.78,-189.58,-117.69,50.771,-140.48
-55.363,-83.331,-66.038,-0.44498,-8.679,-38.975,48.602,47.788,49.785,-83.876,115.58,-280.78,-189.58,-117.69,50.771,-140.48
-54.986,-83.312,-66.536,-1.1239,-9.1023,-39.814,48.346,46.911,50.436,-82.6,116.09,-282.2,-189.32,-118.77,50.894,-141.16
-54.986,-83.312,-66.536,-1.1239,-9.1023,-39.814,48.346,46.911,50.436,-82.6,116.09,-282.2,-189.32,-118.77,50.894,-141.16
-54.607,-83.287,-67.032,-1.8027,-9.526,-40.651,48.089,46.032,51.085,-81.322,116.58,-283.6,-189.07,-119.85,51.014,-141.85
-54.226,-83.255,-67.524,-2.4813,-9.9501,-41.488,47.83,45.148,51.731,-80.04,117.06,-284.98,-188.81,-120.92,51.131,-142.52
-54.226,-83.255,-67.524,-2.4813,-9.9501,-41.488,47.83,45.148,51.731,-80.04,117.06,-284.98,-188.81,-120.92,51.131,-142.52
-54.226,-83.255,-67.524,-2.4813,-9.9501,-41.488,47.83,45.148,51.731,-80.04,117.06,-284.98,-188.81,-120.92,51.131,-142.52
-53.843,-83.216,-68.013,-3.1597,-10.375,-42.324,47.57,44.262,52.375,-78.754,117.53,-286.35,-188.55,-121.99,51.245,-143.2
-53.843,-83.216,-68.013,-3.1597,-10.375,-42.324,47.57,44.262,52.375,-78.754,117.53,-286.35,-188.55,-121.99,51.245,-143.2
-53.843,-83.216,-68.013,-3.1597,-10.375,-42.324,47.57,44.262,52.375,-78.754,117.53,-286.35,-188.55,-121.99,51.245,-143.2
-53.459,-83.171,-68.499,-3.8377,-10.799,-43.16,47.308,43.372,53.017,-77.466,117.99,-287.7,-188.29,-123.05,51.357,-143.86
-53.072,-83.12,-68.982,-4.5154,-11.225,-43.994,47.046,42.479,53.656,-76.174,118.44,-289.02,-188.03,-124.1,51.465,-144.52
-53.072,-83.12,-68.982,-4.5154,-11.225,-43.994,47.046,42.479,53.656,-76.174,118.44,-289.02,-188.03,-124.1,51.465,-144.52
-52.684,-83.063,-69.462,-5.1926,-11.65,-44.827,46.781,41.582,54.292,-74.88,118.88,-290.33,-187.77,-125.15,51.571,-145.18
-52.684,-83.063,-69.462,-5.1926,-11.65,-44.827,46.781,41.582,54.292,-74.88,118.88,-290.33,-187.77,-125.15,51.571,-145.18
-52.294,-82.999,-69.939,-5.8694,-12.076,-45.659,46.516,40.683,54.926,-73.583,119.3,-291.63,-187.51,-126.2,51.674,-145.83
-52.294,-82.999,-69.939,-5.8694,-12.076,-45.659,46.516,40.683,54.926,-73.583,119.3,-291.63,-187.51,-126.2,51.674,-145.83
-52.294,-82.999,-69.939,-5.8694,-12.076,-45.659,46.516,40.683,54.926,-73.583,119.3,-291.63,-187.51,-126.2,51.674,-145.83
-51.902,-82.928,-70.413,-6.5456,-12.502,-46.489,46.249,39.78,55.558,-72.283,119.72,-292.9,-187.24,-127.24,51.773,-146.47
-51.902,-82.928,-70.413,-6.5456,-12.502,-46.489,46.249,39.78,55.558,-72.283,119.72,-292.9,-187.24,-127.24,51.773,-146.47
-51.508,-82.852,-70.883,-7.2212,-12.929,-47.319,45.981,38.875,56.188,-70.98,120.12,-294.15,-186.97,-128.27,51.87,-147.11
-51.508,-82.852,-70.883,-7.2212,-12.929,-47.319,45.981,38.875,56.188,-70.98,120.12,-294.15,-186.97,-128.27,51.87,-147.11
-51.112,-82.769,-71.351,-7.8962,-13.356,-48.147,45.711,37.967,56.815,-69.675,120.51,-295.39,-186.7,-129.3,51.964,-147.74
-50.715,-82.68,-71.815,-8.5705,-13.783,-48.974,45.441,37.056,57.44,-68.368,120.89,-296.61,-186.44,-130.33,52.055,-148.37
-50.715,-82.68,-71.815,-8.5705,-13.783,-48.974,45.441,37.056,57.44,-68.368,120.89,-296.61,-186.44,-130.33,52.055,-148.37
-50.315,-82.584,-72.276,-9.244,-14.211,-49.799,45.168,36.143,58.063,-67.059,121.26,-297.81,-186.16,-131.35,52.143,-148.99
-50.315,-82.584,-72.276,-9.244,-14.211,-49.799,45.168,36.143,58.063,-67.059,121.26,-297.81,-186.16,-131.35,52.143,-148.99
-49.914,-82.483,-72.734,-9.9167,-14.639,-50.623,44.895,35.227,58.683,-65.747,121.62,-298.99,-185.89,-132.36,52.228,-149.6
-49.914,-82.483,-72.734,-9.9167,-14.639,-50.623,44.895,35.227,58.683,-65.747,121.62,-298.99,-185.89,-132.36,52.228,-149.6
-49.511,-82.375,-73.188,-10.589,-15.067,-51.445,44.62,34.309,59.301,-64.433,121.97,-300.15,-185.62,-133.37,52.31,-150.21
-49.511,-82.375,-73.188,-10.589,-15.067,-51.445,44.62,34.309,59.301,-64.433,121.97,-300.15,-185.62,-133.37,52.31,-150.21
-49.107,-82.261,-73.64,-11.259,-15.495,-52.266,44.343,33.388,59.917,-63.118,122.3,-301.29,-185.34,-134.37,52.389,-150.81
-49.107,-82.261,-73.64,-11.259,-15.495,-52.266,44.343,33.388,59.917,-63.118,122.3,-301.29,-185.34,-134.37,52.389,-150.81
-48.7,-82.141,-74.088,-11.929,-15.924,-53.084,44.065,32.465,60.531,-61.8,122.62,-302.42,-185.06,-135.36,52.465,-151.41
-48.7,-82.141,-74.088,-11.929,-15.924,-53.084,44.065,32.465,60.531,-61.8,122.62,-302.42,-185.06,-135.36,52.465,-151.41
-48.292,-82.015,-74.532,-12.598,-16.353,-53.901,43.786,31.54,61.143,-60.481,122.94,-303.52,-184.78,-136.35,52.538,-152
-48.292,-82.015,-74.532,-12.598,-16.353,-53.901,43.786,31.54,61.143,-60.481,122.94,-303.52,-184.78,-136.35,52.538,-152
-47.882,-81.883,-74.974,-13.266,-16.782,-54.716,43.506,30.612,61.752,-59.16,123.23,-304.61,-184.5,-137.34,52.609,-152.59
-47.882,-81.883,-74.974,-13.266,-16.782,-54.716,43.506,30.612,61.752,-59.16,123.23,-304.61,-184.5,-137.34,52.609,-152.59
-47.47,-81.745,-75.412,-13.932,-17.212,-55.53,43.224,29.683,62.359,-57.838,123.52,-305.67,-184.22,-138.31,52.676,-153.17
-47.47,-81.745,-75.412,-13.932,-17.212,-55.53,43.224,29.683,62.359,-57.838,123.52,-305.67,-184.22,-138.31,52.676,-153.17
-47.057,-81.601,-75.847,-14.598,-17.641,-56.341,42.94,28.751,62.964,-56.514,123.8,-306.72,-183.94,-139.29,52.74,-153.74
-47.057,-81.601,-75.847,-14.598,-17.641,-56.341,42.94,28.751,62.964,-56.514,123.8,-306.72,-183.94,-139.29,52.74,-153.74
-46.642,-81.451,-76.279,-15.262,-18.071,-57.15,42.655,27.818,63.567,-55.19,124.06,-307.75,-183.65,-140.25,52.802,-154.31
-46.225,-81.295,-76.707,-15.925,-18.501,-57.957,42.369,26.883,64.168,-53.864,124.32,-308.76,-183.37,-141.21,52.86,-154.87
-46.225,-81.295,-76.707,-15.925,-18.501,-57.957,42.369,26.883,64.168,-53.864,124.32,-308.76,-183.37,-141.21,52.86,-154.87
-46.225,-81.295,-76.707,-15.925,-18.501,-57.957,42.369,26.883,64.168,-53.864,124.32,-308.76,-183.37,-141.21,52.86,-154.87
-45.807,-81.134,-77.132,-16.586,-18.932,-58.762,42.081,25.947,64.767,-52.536,124.56,-309.75,-183.08,-142.16,52.916,-155.42
-45.807,-81.134,-77.132,-16.586,-18.932,-58.762,42.081,25.947,64.767,-52.536,124.56,-309.75,-183.08,-142.16,52.916,-155.42
-45.387,-80.966,-77.553,-17.246,-19.362,-59.565,41.792,25.008,65.364,-51.208,124.79,-310.72,-182.79,-143.11,52.969,-155.97
-45.387,-80.966,-77.553,-17.246,-19.362,-59.565,41.792,25.008,65.364,-51.208,124.79,-310.72,-182.79,-143.11,52.969,-155.97
-44.965,-80.793,-77.971,-17.905,-19.793,-60.365,41.502,24.069,65.958,-49.879,125.01,-311.68,-182.5,-144.05,53.018,-156.51
-44.542,-80.614,-78.386,-18.562,-20.224,-61.163,41.21,23.127,66.551,-48.55,125.21,-312.61,-182.21,-144.99,53.065,-157.05
-44.542,-80.614,-78.386,-18.562,-20.224,-61.163,41.21,23.127,66.551,-48.55,125.21,-312.61,-182.21,-144.99,53.065,-157.05
-44.542,-80.614,-78.386,-18.562,-20.224,-61.163,41.21,23.127,66.551,-48.55,125.21,-312.61,-182.21,-144.99,53.065,-157.05
-44.117,-80.429,-78.797,-19.217,-20.655,-61.958,40.916,22.185,67.142,-47.219,125.41,-313.52,-181.91,-145.91,53.109,-157.58
-44.117,-80.429,-78.797,-19.217,-20.655,-61.958,40.916,22.185,67.142,-47.219,125.41,-313.52,-181.91,-145.91,53.109,-157.58
-43.69,-80.238,-79.205,-19.871,-21.086,-62.751,40.621,21.241,67.73,-45.889,125.59,-314.42,-181.62,-146.84,53.15,-158.1
-43.69,-80.238,-79.205,-19.871,-21.086,-62.751,40.621,21.241,67.73,-45.889,125.59,-314.42,-181.62,-146.84,53.15,-158.1
-43.69,-80.238,-79.205,-19.871,-21.086,-62.751,40.621,21.241,67.73,-45.889,125.59,-314.42,-181.62,-146.84,53.15,-158.1
-43.262,-80.042,-79.61,-20.522,-21.517,-63.542,40.325,20.297,68.317,-44.557,125.76,-315.29,-181.32,-147.75,53.188,-158.62
-43.262,-80.042,-79.61,-20.522,-21.517,-63.542,40.325,20.297,68.317,-44.557,125.76,-315.29,-181.32,-147.75,53.188,-158.62
-42.832,-79.84,-80.011,-21.173,-21.949,-64.329,40.027,19.351,68.902,-43.226,125.92,-316.15,-181.02,-148.66,53.223,-159.13
-42.832,-79.84,-80.011,-21.173,-21.949,-64.329,40.027,19.351,68.902,-43.226,125.92,-316.15,-181.02,-148.66,53.223,-159.13
-42.401,-79.633,-80.408,-21.821,-22.38,-65.114,39.728,18.404,69.485,-41.894,126.07,-316.99,-180.72,-149.56,53.255,-159.63
-42.401,-79.633,-80.408,-21.821,-22.38,-65.114,39.728,18.404,69.485,-41.894,126.07,-316.99,-180.72,-149.56,53.255,-159.63
-41.534,-79.202,-81.193,-23.112,-23.244,-66.676,39.126,16.508,70.644,-39.23,126.33,-318.6,-180.12,-151.34,53.311,-160.62
-41.534,-79.202,-81.193,-23.112,-23.244,-66.676,39.126,16.508,70.644,-39.23,126.33,-318.6,-180.12,-151.34,53.311,-160.62
-41.534,-79.202,-81.193,-23.112,-23.244,-66.676,39.126,16.508,70.644,-39.23,126.33,-318.6,-180.12,-151.34,53.311,-160.62
-41.098,-78.978,-81.58,-23.755,-23.675,-67.453,38.822,15.559,71.221,-37.898,126.45,-319.38,-179.81,-152.23,53.334,-161.11
-41.098,-78.978,-81.58,-23.755,-23.675,-67.453,38.822,15.559,71.221,-37.898,126.45,-319.38,-179.81,-152.23,53.334,-161.11
-41.098,-78.978,-81.58,-23.755,-23.675,-67.453,38.822,15.559,71.221,-37.898,126.45,-319.38,-179.81,-152.23,53.334,-161.11
-40.66,-78.748,-81.964,-24.395,-24.107,-68.226,38.518,14.609,71.797,-36.566,126.55,-320.14,-179.5,-153.1,53.355,-161.59
-40.221,-78.514,-82.344,-25.034,-24.539,-68.997,38.211,13.659,72.37,-35.235,126.64,-320.89,-179.19,-153.97,53.372,-162.06
-40.221,-78.514,-82.344,-25.034,-24.539,-68.997,38.211,13.659,72.37,-35.235,126.64,-320.89,-179.19,-153.97,53.372,-162.06
-39.78,-78.274,-82.72,-25.67,-24.97,-69.764,37.904,12.709,72.941,-33.904,126.72,-321.61,-178.88,-154.83,53.387,-162.53
-39.78,-78.274,-82.72,-25.67,-24.97,-69.764,37.904,12.709,72.941,-33.904,126.72,-321.61,-178.88,-154.83,53.387,-162.53
-39.338,-78.028,-83.093,-26.305,-25.402,-70.528,37.595,11.758,73.511,-32.573,126.78,-322.31,-178.57,-155.69,53.399,-162.99
-39.338,-78.028,-83.093,-26.305,-25.402,-70.528,37.595,11.758,73.511,-32.573,126.78,-322.31,-178.57,-155.69,53.399,-162.99
-38.895,-77.778,-83.463,-26.937,-25.834,-71.29,37.284,10.807,74.079,-31.243,126.84,-322.99,-178.26,-156.53,53.408,-163.44
-38.895,-77.778,-83.463,-26.937,-25.834,-71.29,37.284,10.807,74.079,-31.243,126.84,-322.99,-178.26,-156.53,53.408,-163.44
-38.895,-77.778,-83.463,-26.937,-25.834,-71.29,37.284,10.807,74.079,-31.243,126.84,-322.99,-178.26,-156.53,53.408,-163.44
-38.45,-77.522,-83.829,-27.566,-26.265,-72.047,36.972,9.8554,74.645,-29.914,126.88,-323.66,-177.94,-157.38,53.414,-163.89
-38.003,-77.26,-84.191,-28.194,-26.697,-72.802,36.659,8.9041,75.209,-28.585,126.91,-324.3,-177.63,-158.21,53.418,-164.33
-37.555,-76.994,-84.55,-28.819,-27.128,-73.553,36.344,7.9528,75.771,-27.258,126.93,-324.93,-177.31,-159.04,53.418,-164.76
-37.555,-76.994,-84.55,-28.819,-27.128,-73.553,36.344,7.9528,75.771,-27.258,126.93,-324.93,-177.31,-159.04,53.418,-164.76
-37.555,-76.994,-84.55,-28.819,-27.128,-73.553,36.344,7.9528,75.771,-27.258,126.93,-324.93,-177.31,-159.04,53.418,-164.76
-37.106,-76.723,-84.905,-29.441,-27.559,-74.301,36.028,7.0016,76.332,-25.931,126.94,-325.54,-176.99,-159.86,53.416,-165.19
-37.106,-76.723,-84.905,-29.441,-27.559,-74.301,36.028,7.0016,76.332,-25.931,126.94,-325.54,-176.99,-159.86,53.416,-165.19
-36.655,-76.446,-85.256,-30.061,-27.991,-75.045,35.711,6.0507,76.891,-24.605,126.94,-326.12,-176.67,-160.67,53.411,-165.61
-36.655,-76.446,-85.256,-30.061,-27.991,-75.045,35.711,6.0507,76.891,-24.605,126.94,-326.12,-176.67,-160.67,53.411,-165.61
-36.203,-76.164,-85.604,-30.679,-28.422,-75.786,35.392,5.1001,77.448,-23.281,126.93,-326.69,-176.34,-161.48,53.403,-166.02
-36.203,-76.164,-85.604,-30.679,-28.422,-75.786,35.392,5.1001,77.448,-23.281,126.93,-326.69,-176.34,-161.48,53.403,-166.02
-35.75,-75.878,-85.949,-31.294,-28.853,-76.523,35.072,4.1498,78.003,-21.958,126.9,-327.24,-176.02,-162.27,53.392,-166.43
-35.75,-75.878,-85.949,-31.294,-28.853,-76.523,35.072,4.1498,78.003,-21.958,126.9,-327.24,-176.02,-162.27,53.392,-166.43
-35.295,-75.586,-86.289,-31.906,-29.283,-77.256,34.75,3.2001,78.557,-20.636,126.86,-327.77,-175.69,-163.07,53.378,-166.83
-35.295,-75.586,-86.289,-31.906,-29.283,-77.256,34.75,3.2001,78.557,-20.636,126.86,-327.77,-175.69,-163.07,53.378,-166.83
-35.295,-75.586,-86.289,-31.906,-29.283,-77.256,34.75,3.2001,78.557,-20.636,126.86,-327.77,-175.69,-163.07,53.378,-166.83
-34.838,-75.29,-86.626,-32.516,-29.714,-77.986,34.427,2.2509,79.108,-19.315,126.81,-328.28,-175.36,-163.85,53.362,-167.23
-34.838,-75.29,-86.626,-32.516,-29.714,-77.986,34.427,2.2509,79.108,-19.315,126.81,-328.28,-175.36,-163.85,53.362,-167.23
-34.381,-74.988,-86.959,-33.123,-30.144,-78.711,34.103,1.3023,79.659,-17.996,126.75,-328.77,-175.03,-164.63,53.343,-167.61
-34.381,-74.988,-86.959,-33.123,-30.144,-78.711,34.103,1.3023,79.659,-17.996,126.75,-328.77,-175.03,-164.63,53.343,-167.61
-33.922,-74.682,-87.289,-33.727,-30.574,-79.433,33.778,0.35451,80.207,-16.679,126.68,-329.25,-174.7,-165.4,53.321,-167.99
-33.462,-74.371,-87.615,-34.328,-31.004,-80.152,33.451,-0.59248,80.754,-15.364,126.6,-329.7,-174.37,-166.16,53.296,-168.37
-33.462,-74.371,-87.615,-34.328,-31.004,-80.152,33.451,-0.59248,80.754,-15.364,126.6,-329.7,-174.37,-166.16,53.296,-168.37
-33,-74.055,-87.937,-34.927,-31.433,-80.866,33.123,-1.5386,81.299,-14.05,126.51,-330.14,-174.03,-166.92,53.269,-168.74
-33,-74.055,-87.937,-34.927,-31.433,-80.866,33.123,-1.5386,81.299,-14.05,126.51,-330.14,-174.03,-166.92,53.269,-168.74
-32.538,-73.735,-88.256,-35.522,-31.862,-81.576,32.793,-2.4836,81.843,-12.738,126.4,-330.55,-173.7,-167.67,53.238,-169.1
-32.538,-73.735,-88.256,-35.522,-31.862,-81.576,32.793,-2.4836,81.843,-12.738,126.4,-330.55,-173.7,-167.67,53.238,-169.1
-32.074,-73.409,-88.57,-36.115,-32.291,-82.282,32.462,-3.4277,82.384,-11.428,126.28,-330.95,-173.36,-168.41,53.205,-169.45
-32.074,-73.409,-88.57,-36.115,-32.291,-82.282,32.462,-3.4277,82.384,-11.428,126.28,-330.95,-173.36,-168.41,53.205,-169.45
-32.074,-73.409,-88.57,-36.115,-32.291,-82.282,32.462,-3.4277,82.384,-11.428,126.28,-330.95,-173.36,-168.41,53.205,-169.45
-31.608,-73.08,-88.881,-36.705,-32.719,-82.984,32.13,-4.3705,82.925,-10.12,126.16,-331.33,-173.02,-169.14,53.17,-169.8
-31.142,-72.745,-89.189,-37.291,-33.147,-83.682,31.797,-5.3121,83.463,-8.8146,126.02,-331.69,-172.67,-169.87,53.131,-170.14
-31.142,-72.745,-89.189,-37.291,-33.147,-83.682,31.797,-5.3121,83.463,-8.8146,126.02,-331.69,-172.67,-169.87,53.131,-170.14
-30.674,-72.406,-89.492,-37.875,-33.575,-84.375,31.463,-6.2524,84,-7.5111,125.87,-332.03,-172.33,-170.59,53.09,-170.48
-30.205,-72.062,-89.792,-38.455,-34.002,-85.065,31.127,-7.1912,84.535,-6.21,125.71,-332.35,-171.98,-171.3,53.047,-170.81
-30.205,-72.062,-89.792,-38.455,-34.002,-85.065,31.127,-7.1912,84.535,-6.21,125.71,-332.35,-171.98,-171.3,53.047,-170.81
-30.205,-72.062,-89.792,-38.455,-34.002,-85.065,31.127,-7.1912,84.535,-6.21,125.71,-332.35,-171.98,-171.3,53.047,-170.81
-29.735,-71.714,-90.088,-39.033,-34.428,-85.75,30.79,-8.1286,85.069,-4.9113,125.53,-332.66,-171.64,-172,53,-171.13
-29.735,-71.714,-90.088,-39.033,-34.428,-85.75,30.79,-8.1286,85.069,-4.9113,125.53,-332.66,-171.64,-172,53,-171.13
-29.264,-71.362,-90.38,-39.607,-34.855,-86.43,30.452,-9.0643,85.601,-3.6152,125.35,-332.94,-171.29,-172.7,52.951,-171.45
-29.264,-71.362,-90.38,-39.607,-34.855,-86.43,30.452,-9.0643,85.601,-3.6152,125.35,-332.94,-171.29,-172.7,52.951,-171.45
-28.792,-71.005,-90.668,-40.178,-35.28,-87.107,30.112,-9.9984,86.132,-2.3215,125.16,-333.21,-170.94,-173.39,52.899,-171.75
-28.318,-70.644,-90.953,-40.745,-35.706,-87.778,29.771,-10.931,86.661,-1.0306,124.95,-333.46,-170.58,-174.07,52.845,-172.06
-28.318,-70.644,-90.953,-40.745,-35.706,-87.778,29.771,-10.931,86.661,-1.0306,124.95,-333.46,-170.58,-174.07,52.845,-172.06
-27.844,-70.278,-91.234,-41.309,-36.13,-88.446,29.43,-11.861,87.188,0.25762,124.73,-333.69,-170.23,-174.75,52.788,-172.35
-27.844,-70.278,-91.234,-41.309,-36.13,-88.446,29.43,-11.861,87.188,0.25762,124.73,-333.69,-170.23,-174.75,52.788,-172.35
-27.844,-70.278,-91.234,-41.309,-36.13,-88.446,29.43,-11.861,87.188,0.25762,124.73,-333.69,-170.23,-174.75,52.788,-172.35
-27.368,-69.908,-91.511,-41.87,-36.554,-89.108,29.087,-12.79,87.714,1.543,124.51,-333.9,-169.87,-175.41,52.729,-172.64
-27.368,-69.908,-91.511,-41.87,-36.554,-89.108,29.087,-12.79,87.714,1.543,124.51,-333.9,-169.87,-175.41,52.729,-172.64
-26.891,-69.534,-91.784,-42.428,-36.978,-89.767,28.743,-13.717,88.238,2.8255,124.27,-334.09,-169.51,-176.07,52.666,-172.92
-26.891,-69.534,-91.784,-42.428,-36.978,-89.767,28.743,-13.717,88.238,2.8255,124.27,-334.09,-169.51,-176.07,52.666,-172.92
-26.414,-69.156,-92.053,-42.982,-37.401,-90.42,28.398,-14.641,88.761,4.105,124.02,-334.27,-169.15,-176.73,52.602,-173.2
-25.935,-68.773,-92.319,-43.532,-37.823,-91.069,28.051,-15.564,89.282,5.3814,123.76,-334.43,-168.79,-177.37,52.534,-173.47
-25.935,-68.773,-92.319,-43.532,-37.823,-91.069,28.051,-15.564,89.282,5.3814,123.76,-334.43,-168.79,-177.37,52.534,-173.47
-25.935,-68.773,-92.319,-43.532,-37.823,-91.069,28.051,-15.564,89.282,5.3814,123.76,-334.43,-168.79,-177.37,52.534,-173.47
-25.455,-68.387,-92.58,-44.079,-38.244,-91.713,27.704,-16.484,89.801,6.6547,123.49,-334.57,-168.42,-178.01,52.464,-173.73
-25.455,-68.387,-92.58,-44.079,-38.244,-91.713,27.704,-16.484,89.801,6.6547,123.49,-334.57,-168.42,-178.01,52.464,-173.73
-25.455,-68.387,-92.58,-44.079,-38.244,-91.713,27.704,-16.484,89.801,6.6547,123.49,-334.57,-168.42,-178.01,52.464,-173.73
-24.974,-67.996,-92.838,-44.623,-38.665,-92.352,27.355,-17.402,90.319,7.9248,123.21,-334.69,-168.06,-178.64,52.392,-173.99
-24.974,-67.996,-92.838,-44.623,-38.665,-92.352,27.355,-17.402,90.319,7.9248,123.21,-334.69,-168.06,-178.64,52.392,-173.99
-24.492,-67.602,-93.091,-45.163,-39.085,-92.987,27.006,-18.318,90.836,9.1916,122.92,-334.79,-167.69,-179.26,52.317,-174.24
-24.009,-67.203,-93.341,-45.699,-39.504,-93.616,26.655,-19.231,91.351,10.455,122.62,-334.87,-167.32,-179.88,52.24,-174.48
-24.009,-67.203,-93.341,-45.699,-39.504,-93.616,26.655,-19.231,91.351,10.455,122.62,-334.87,-167.32,-179.88,52.24,-174.48
-23.526,-66.801,-93.587,-46.232,-39.923,-94.241,26.304,-20.141,91.864,11.715,122.31,-334.94,-166.95,-180.49,52.16,-174.72
-23.526,-66.801,-93.587,-46.232,-39.923,-94.241,26.304,-20.141,91.864,11.715,122.31,-334.94,-166.95,-180.49,52.16,-174.72
-23.526,-66.801,-93.587,-46.232,-39.923,-94.241,26.304,-20.141,91.864,11.715,122.31,-334.94,-166.95,-180.49,52.16,-174.72
-23.526,-66.801,-93.587,-46.232,-39.923,-94.241,26.304,-20.141,91.864,11.715,122.31,-334.94,-166.95,-180.49,52.16,-174.72
-22.555,-65.984,-94.068,-47.286,-40.758,-95.476,25.598,-21.955,92.887,14.224,121.65,-335.02,-166.2,-181.68,51.992,-175.17
-22.555,-65.984,-94.068,-47.286,-40.758,-95.476,25.598,-21.955,92.887,14.224,121.65,-335.02,-166.2,-181.68,51.992,-175.17
-22.555,-65.984,-94.068,-47.286,-40.758,-95.476,25.598,-21.955,92.887,14.224,121.65,-335.02,-166.2,-181.68,51.992,-175.17
-22.069,-65.57,-94.302,-47.807,-41.174,-96.085,25.244,-22.858,93.396,15.474,121.31,-335.04,-165.82,-182.26,51.905,-175.39
-22.069,-65.57,-94.302,-47.807,-41.174,-96.085,25.244,-22.858,93.396,15.474,121.31,-335.04,-165.82,-182.26,51.905,-175.39
-21.581,-65.152,-94.532,-48.325,-41.589,-96.69,24.888,-23.757,93.903,16.719,120.96,-335.03,-165.44,-182.84,51.815,-175.6
-21.581,-65.152,-94.532,-48.325,-41.589,-96.69,24.888,-23.757,93.903,16.719,120.96,-335.03,-165.44,-182.84,51.815,-175.6
-21.581,-65.152,-94.532,-48.325,-41.589,-96.69,24.888,-23.757,93.903,16.719,120.96,-335.03,-165.44,-182.84,51.815,-175.6
-20.604,-64.305,-94.981,-49.349,-42.416,-97.884,24.175,-25.548,94.913,19.199,120.22,-334.97,-164.68,-183.98,51.628,-176
-20.604,-64.305,-94.981,-49.349,-42.416,-97.884,24.175,-25.548,94.913,19.199,120.22,-334.97,-164.68,-183.98,51.628,-176
-20.114,-63.876,-95.199,-49.855,-42.829,-98.473,23.817,-26.439,95.416,20.433,119.84,-334.91,-164.29,-184.53,51.531,-176.19
-20.114,-63.876,-95.199,-49.855,-42.829,-98.473,23.817,-26.439,95.416,20.433,119.84,-334.91,-164.29,-184.53,51.531,-176.19
-20.114,-63.876,-95.199,-49.855,-42.829,-98.473,23.817,-26.439,95.416,20.433,119.84,-334.91,-164.29,-184.53,51.531,-176.19
-19.624,-63.443,-95.413,-50.357,-43.24,-99.058,23.458,-27.327,95.917,21.663,119.44,-334.84,-163.9,-185.08,51.431,-176.37
-19.132,-63.007,-95.624,-50.856,-43.65,-99.636,23.098,-28.212,96.417,22.889,119.04,-334.75,-163.52,-185.62,51.329,-176.55
-18.64,-62.568,-95.83,-51.35,-44.06,-100.21,22.737,-29.093,96.916,24.11,118.63,-334.64,-163.12,-186.15,51.225,-176.72
-18.64,-62.568,-95.83,-51.35,-44.06,-100.21,22.737,-29.093,96.916,24.11,118.63,-334.64,-163.12,-186.15,51.225,-176.72
-18.147,-62.124,-96.033,-51.84,-44.468,-100.78,22.376,-29.972,97.412,25.328,118.2,-334.52,-162.73,-186.68,51.118,-176.88
-18.147,-62.124,-96.033,-51.84,-44.468,-100.78,22.376,-29.972,97.412,25.328,118.2,-334.52,-162.73,-186.68,51.118,-176.88
-18.147,-62.124,-96.033,-51.84,-44.468,-100.78,22.376,-29.972,97.412,25.328,118.2,-334.52,-162.73,-186.68,51.118,-176.88
-17.653,-61.678,-96.231,-52.327,-44.875,-101.34,22.014,-30.846,97.908,26.541,117.77,-334.38,-162.34,-187.2,51.009,-177.04
-17.653,-61.678,-96.231,-52.327,-44.875,-101.34,22.014,-30.846,97.908,26.541,117.77,-334.38,-162.34,-187.2,51.009,-177.04
-17.653,-61.678,-96.231,-52.327,-44.875,-101.34,22.014,-30.846,97.908,26.541,117.77,-334.38,-162.34,-187.2,51.009,-177.04
-17.159,-61.228,-96.426,-52.809,-45.281,-101.9,21.651,-31.718,98.402,27.75,117.33,-334.22,-161.94,-187.71,50.898,-177.19
-16.664,-60.775,-96.616,-53.287,-45.686,-102.45,21.287,-32.586,98.894,28.955,116.88,-334.04,-161.54,-188.21,50.785,-177.34
-16.664,-60.775,-96.616,-53.287,-45.686,-102.45,21.287,-32.586,98.894,28.955,116.88,-334.04,-161.54,-188.21,50.785,-177.34
-16.168,-60.318,-96.803,-53.761,-46.09,-103,20.923,-33.45,99.385,30.155,116.41,-333.85,-161.14,-188.71,50.669,-177.48
-16.168,-60.318,-96.803,-53.761,-46.09,-103,20.923,-33.45,99.385,30.155,116.41,-333.85,-161.14,-188.71,50.669,-177.48
-15.672,-59.858,-96.985,-54.231,-46.492,-103.54,20.558,-34.311,99.874,31.35,115.94,-333.64,-160.74,-189.2,50.55,-177.61
-15.672,-59.858,-96.985,-54.231,-46.492,-103.54,20.558,-34.311,99.874,31.35,115.94,-333.64,-160.74,-189.2,50.55,-177.61
-15.672,-59.858,-96.985,-54.231,-46.492,-103.54,20.558,-34.311,99.874,31.35,115.94,-333.64,-160.74,-189.2,50.55,-177.61
-15.175,-59.395,-97.163,-54.697,-46.893,-104.07,20.193,-35.168,100.36,32.542,115.46,-333.42,-160.33,-189.68,50.43,-177.74
-15.175,-59.395,-97.163,-54.697,-46.893,-104.07,20.193,-35.168,100.36,32.542,115.46,-333.42,-160.33,-189.68,50.43,-177.74
-14.677,-58.928,-97.338,-55.158,-47.293,-104.6,19.826,-36.021,100.85,33.728,114.97,-333.18,-159.93,-190.15,50.307,-177.86
-14.179,-58.459,-97.508,-55.615,-47.692,-105.13,19.46,-36.871,101.33,34.91,114.48,-332.92,-159.52,-190.62,50.182,-177.97
-14.179,-58.459,-97.508,-55.615,-47.692,-105.13,19.46,-36.871,101.33,34.91,114.48,-332.92,-159.52,-190.62,50.182,-177.97
-13.68,-57.986,-97.674,-56.069,-48.09,-105.65,19.092,-37.716,101.82,36.087,113.97,-332.64,-159.11,-191.08,50.055,-178.08
-13.68,-57.986,-97.674,-56.069,-48.09,-105.65,19.092,-37.716,101.82,36.087,113.97,-332.64,-159.11,-191.08,50.055,-178.08
-13.181,-57.511,-97.836,-56.517,-48.486,-106.16,18.724,-38.558,102.3,37.259,113.45,-332.35,-158.7,-191.53,49.926,-178.18
-13.181,-57.511,-97.836,-56.517,-48.486,-106.16,18.724,-38.558,102.3,37.259,113.45,-332.35,-158.7,-191.53,49.926,-178.18
-12.681,-57.032,-97.994,-56.962,-48.88,-106.67,18.356,-39.396,102.78,38.427,112.92,-332.05,-158.28,-191.97,49.794,-178.27
-12.681,-57.032,-97.994,-56.962,-48.88,-106.67,18.356,-39.396,102.78,38.427,112.92,-332.05,-158.28,-191.97,49.794,-178.27
-12.181,-56.55,-98.148,-57.402,-49.274,-107.17,17.987,-40.229,103.26,39.589,112.39,-331.73,-157.86,-192.41,49.661,-178.36
-12.181,-56.55,-98.148,-57.402,-49.274,-107.17,17.987,-40.229,103.26,39.589,112.39,-331.73,-157.86,-192.41,49.661,-178.36
-11.68,-56.066,-98.298,-57.838,-49.666,-107.67,17.617,-41.059,103.74,40.747,111.84,-331.39,-157.45,-192.84,49.525,-178.44
-11.68,-56.066,-98.298,-57.838,-49.666,-107.67,17.617,-41.059,103.74,40.747,111.84,-331.39,-157.45,-192.84,49.525,-178.44
-11.179,-55.578,-98.444,-58.27,-50.056,-108.16,17.248,-41.884,104.21,41.899,111.29,-331.03,-157.03,-193.26,49.387,-178.52
-11.179,-55.578,-98.444,-58.27,-50.056,-108.16,17.248,-41.884,104.21,41.899,111.29,-331.03,-157.03,-193.26,49.387,-178.52
-10.677,-55.088,-98.586,-58.697,-50.445,-108.64,16.877,-42.705,104.69,43.047,110.73,-330.66,-156.6,-193.68,49.247,-178.59
-10.677,-55.088,-98.586,-58.697,-50.445,-108.64,16.877,-42.705,104.69,43.047,110.73,-330.66,-156.6,-193.68,49.247,-178.59
-10.175,-54.595,-98.723,-59.12,-50.833,-109.12,16.507,-43.522,105.16,44.189,110.16,-330.28,-156.18,-194.09,49.104,-178.65
-10.175,-54.595,-98.723,-59.12,-50.833,-109.12,16.507,-43.522,105.16,44.189,110.16,-330.28,-156.18,-194.09,49.104,-178.65
-10.175,-54.595,-98.723,-59.12,-50.833,-109.12,16.507,-43.522,105.16,44.189,110.16,-330.28,-156.18,-194.09,49.104,-178.65
-9.673,-54.099,-98.857,-59.539,-51.219,-109.6,16.135,-44.335,105.63,45.326,109.58,-329.88,-155.75,-194.49,48.96,-178.71
-9.1702,-53.6,-98.986,-59.953,-51.603,-110.07,15.764,-45.143,106.1,46.459,108.99,-329.46,-155.33,-194.88,48.814,-178.76
-8.667,-53.099,-99.112,-60.362,-51.986,-110.53,15.392,-45.946,106.57,47.585,108.4,-329.03,-154.89,-195.27,48.665,-178.8
-8.667,-53.099,-99.112,-60.362,-51.986,-110.53,15.392,-45.946,106.57,47.585,108.4,-329.03,-154.89,-195.27,48.665,-178.8
-8.667,-53.099,-99.112,-60.362,-51.986,-110.53,15.392,-45.946,106.57,47.585,108.4,-329.03,-154.89,-195.27,48.665,-178.8
-8.1635,-52.594,-99.233,-60.767,-52.367,-110.98,15.02,-46.746,107.04,48.707,107.79,-328.59,-154.46,-195.65,48.514,-178.84
-8.1635,-52.594,-99.233,-60.767,-52.367,-110.98,15.02,-46.746,107.04,48.707,107.79,-328.59,-154.46,-195.65,48.514,-178.84
-7.6597,-52.088,-99.35,-61.168,-52.747,-111.43,14.648,-47.54,107.5,49.823,107.18,-328.13,-154.03,-196.02,48.362,-178.87
-7.6597,-52.088,-99.35,-61.168,-52.747,-111.43,14.648,-47.54,107.5,49.823,107.18,-328.13,-154.03,-196.02,48.362,-178.87
-7.6597,-52.088,-99.35,-61.168,-52.747,-111.43,14.648,-47.54,107.5,49.823,107.18,-328.13,-154.03,-196.02,48.362,-178.87
-7.1557,-51.578,-99.463,-61.564,-53.125,-111.88,14.275,-48.33,107.97,50.934,106.56,-327.65,-153.59,-196.39,48.207,-178.9
-6.6513,-51.067,-99.572,-61.956,-53.501,-112.32,13.902,-49.116,108.43,52.039,105.93,-327.16,-153.15,-196.74,48.05,-178.92
-6.6513,-51.067,-99.572,-61.956,-53.501,-112.32,13.902,-49.116,108.43,52.039,105.93,-327.16,-153.15,-196.74,48.05,-178.92
-6.1468,-50.552,-99.677,-62.343,-53.876,-112.75,13.529,-49.897,108.89,53.139,105.29,-326.65,-152.71,-197.09,47.891,-178.94
-6.1468,-50.552,-99.677,-62.343,-53.876,-112.75,13.529,-49.897,108.89,53.139,105.29,-326.65,-152.71,-197.09,47.891,-178.94
-5.642,-50.035,-99.777,-62.726,-54.249,-113.18,13.156,-50.673,109.35,54.234,104.65,-326.13,-152.27,-197.44,47.731,-178.94
-5.642,-50.035,-99.777,-62.726,-54.249,-113.18,13.156,-50.673,109.35,54.234,104.65,-326.13,-152.27,-197.44,47.731,-178.94
-5.137,-49.516,-99.874,-63.104,-54.62,-113.6,12.783,-51.444,109.81,55.323,104,-325.6,-151.83,-197.78,47.568,-178.95
-5.137,-49.516,-99.874,-63.104,-54.62,-113.6,12.783,-51.444,109.81,55.323,104,-325.6,-151.83,-197.78,47.568,-178.95
-5.137,-49.516,-99.874,-63.104,-54.62,-113.6,12.783,-51.444,109.81,55.323,104,-325.6,-151.83,-197.78,47.568,-178.95
-4.6318,-48.995,-99.966,-63.478,-54.989,-114.01,12.409,-52.21,110.26,56.406,103.33,-325.05,-151.38,-198.11,47.403,-178.94
-4.1265,-48.471,-100.05,-63.847,-55.357,-114.42,12.036,-52.972,110.72,57.483,102.67,-324.49,-150.93,-198.43,47.237,-178.93
-4.1265,-48.471,-100.05,-63.847,-55.357,-114.42,12.036,-52.972,110.72,57.483,102.67,-324.49,-150.93,-198.43,47.237,-178.93
-3.6211,-47.944,-100.14,-64.212,-55.723,-114.82,11.662,-53.729,111.17,58.555,101.99,-323.91,-150.48,-198.74,47.068,-178.92
-3.6211,-47.944,-100.14,-64.212,-55.723,-114.82,11.662,-53.729,111.17,58.555,101.99,-323.91,-150.48,-198.74,47.068,-178.92
-3.6211,-47.944,-100.14,-64.212,-55.723,-114.82,11.662,-53.729,111.17,58.555,101.99,-323.91,-150.48,-198.74,47.068,-178.92
-3.6211,-47.944,-100.14,-64.212,-55.723,-114.82,11.662,-53.729,111.17,58.555,101.99,-323.91,-150.48,-198.74,47.068,-178.92
-2.6098,-46.885,-100.29,-64.927,-56.449,-115.61,10.915,-55.227,112.07,60.682,100.62,-322.71,-149.58,-199.36,46.725,-178.87
-2.6098,-46.885,-100.29,-64.927,-56.449,-115.61,10.915,-55.227,112.07,60.682,100.62,-322.71,-149.58,-199.36,46.725,-178.87
-2.1041,-46.352,-100.37,-65.277,-56.809,-116,10.541,-55.968,112.52,61.737,99.917,-322.09,-149.12,-199.65,46.551,-178.84
-2.1041,-46.352,-100.37,-65.277,-56.809,-116,10.541,-55.968,112.52,61.737,99.917,-322.09,-149.12,-199.65,46.551,-178.84
-1.5984,-45.817,-100.43,-65.623,-57.167,-116.38,10.168,-56.705,112.97,62.786,99.212,-321.46,-148.66,-199.94,46.374,-178.8
-1.5984,-45.817,-100.43,-65.623,-57.167,-116.38,10.168,-56.705,112.97,62.786,99.212,-321.46,-148.66,-199.94,46.374,-178.8
-1.0926,-45.28,-100.5,-65.965,-57.524,-116.75,9.7944,-57.436,113.41,63.829,98.499,-320.81,-148.2,-200.22,46.196,-178.76
-1.0926,-45.28,-100.5,-65.965,-57.524,-116.75,9.7944,-57.436,113.41,63.829,98.499,-320.81,-148.2,-200.22,46.196,-178.76
-0.58681,-44.74,-100.56,-66.302,-57.878,-117.12,9.421,-58.162,113.86,64.866,97.779,-320.15,-147.74,-200.49,46.016,-178.71
-0.58681,-44.74,-100.56,-66.302,-57.878,-117.12,9.421,-58.162,113.86,64.866,97.779,-320.15,-147.74,-200.49,46.016,-178.71
-0.081056,-44.199,-100.61,-66.634,-58.23,-117.48,9.0477,-58.883,114.3,65.897,97.051,-319.48,-147.28,-200.76,45.834,-178.65
-0.081056,-44.199,-100.61,-66.634,-58.23,-117.48,9.0477,-58.883,114.3,65.897,97.051,-319.48,-147.28,-200.76,45.834,-178.65
0.42466,-43.656,-100.66,-66.961,-58.581,-117.83,8.6746,-59.599,114.74,66.922,96.317,-318.8,-146.81,-201.02,45.651,-178.59
0.42466,-43.656,-100.66,-66.961,-58.581,-117.83,8.6746,-59.599,114.74,66.922,96.317,-318.8,-146.81,-201.02,45.651,-178.59
0.9303,-43.11,-100.71,-67.284,-58.929,-118.18,8.3017,-60.31,115.18,67.942,95.576,-318.1,-146.35,-201.28,45.465,-178.52
0.9303,-43.11,-100.71,-67.284,-58.929,-118.18,8.3017,-60.31,115.18,67.942,95.576,-318.1,-146.35,-201.28,45.465,-178.52
1.4359,-42.563,-100.75,-67.602,-59.275,-118.52,7.9289,-61.015,115.62,68.955,94.828,-317.38,-145.88,-201.53,45.278,-178.45
1.4359,-42.563,-100.75,-67.602,-59.275,-118.52,7.9289,-61.015,115.62,68.955,94.828,-317.38,-145.88,-201.53,45.278,-178.45
1.9413,-42.014,-100.79,-67.916,-59.619,-118.86,7.5564,-61.714,116.05,69.962,94.074,-316.66,-145.41,-201.77,45.089,-178.37
1.9413,-42.014,-100.79,-67.916,-59.619,-118.86,7.5564,-61.714,116.05,69.962,94.074,-316.66,-145.41,-201.77,45.089,-178.37
2.4466,-41.463,-100.82,-68.225,-59.962,-119.19,7.1842,-62.409,116.49,70.964,93.312,-315.92,-144.93,-202,44.898,-178.29
2.4466,-41.463,-100.82,-68.225,-59.962,-119.19,7.1842,-62.409,116.49,70.964,93.312,-315.92,-144.93,-202,44.898,-178.29
2.4466,-41.463,-100.82,-68.225,-59.962,-119.19,7.1842,-62.409,116.49,70.964,93.312,-315.92,-144.93,-202,44.898,-178.29
2.9518,-40.91,-100.85,-68.529,-60.302,-119.52,6.8122,-63.098,116.92,71.959,92.545,-315.17,-144.46,-202.23,44.705,-178.2
2.9518,-40.91,-100.85,-68.529,-60.302,-119.52,6.8122,-63.098,116.92,71.959,92.545,-315.17,-144.46,-202.23,44.705,-178.2
2.9518,-40.91,-100.85,-68.529,-60.302,-119.52,6.8122,-63.098,116.92,71.959,92.545,-315.17,-144.46,-202.23,44.705,-178.2
3.9615,-39.799,-100.9,-69.123,-60.975,-120.15,6.0693,-64.459,117.78,73.93,90.99,-313.63,-143.5,-202.67,44.314,-178
3.9615,-39.799,-100.9,-69.123,-60.975,-120.15,6.0693,-64.459,117.78,73.93,90.99,-313.63,-143.5,-202.67,44.314,-178
4.4661,-39.241,-100.92,-69.413,-61.309,-120.45,5.6983,-65.131,118.21,74.907,90.203,-312.84,-143.02,-202.87,44.117,-177.9
4.4661,-39.241,-100.92,-69.413,-61.309,-120.45,5.6983,-65.131,118.21,74.907,90.203,-312.84,-143.02,-202.87,44.117,-177.9
4.4661,-39.241,-100.92,-69.413,-61.309,-120.45,5.6983,-65.131,118.21,74.907,90.203,-312.84,-143.02,-202.87,44.117,-177.9
4.4661,-39.241,-100.92,-69.413,-61.309,-120.45,5.6983,-65.131,118.21,74.907,90.203,-312.84,-143.02,-202.87,44.117,-177.9
5.4745,-38.12,-100.94,-69.979,-61.969,-121.05,4.9576,-66.459,119.06,76.842,88.61,-311.23,-142.05,-203.27,43.715,-177.67
5.4745,-38.12,-100.94,-69.979,-61.969,-121.05,4.9576,-66.459,119.06,76.842,88.61,-311.23,-142.05,-203.27,43.715,-177.67
5.9782,-37.557,-100.95,-70.254,-62.296,-121.34,4.5879,-67.115,119.48,77.8,87.805,-310.41,-141.57,-203.46,43.512,-177.55
5.9782,-37.557,-100.95,-70.254,-62.296,-121.34,4.5879,-67.115,119.48,77.8,87.805,-310.41,-141.57,-203.46,43.512,-177.55
5.9782,-37.557,-100.95,-70.254,-62.296,-121.34,4.5879,-67.115,119.48,77.8,87.805,-310.41,-141.57,-203.46,43.512,-177.55
6.4817,-36.993,-100.95,-70.526,-62.621,-121.62,4.2187,-67.765,119.9,78.751,86.994,-309.57,-141.08,-203.64,43.308,-177.42
6.4817,-36.993,-100.95,-70.526,-62.621,-121.62,4.2187,-67.765,119.9,78.751,86.994,-309.57,-141.08,-203.64,43.308,-177.42
6.4817,-36.993,-100.95,-70.526,-62.621,-121.62,4.2187,-67.765,119.9,78.751,86.994,-309.57,-141.08,-203.64,43.308,-177.42
7.4875,-35.859,-100.94,-71.054,-63.263,-122.16,3.4817,-69.048,120.74,80.636,85.354,-307.86,-140.09,-203.99,42.893,-177.15
7.4875,-35.859,-100.94,-71.054,-63.263,-122.16,3.4817,-69.048,120.74,80.636,85.354,-307.86,-140.09,-203.99,42.893,-177.15
7.9899,-35.29,-100.93,-71.311,-63.581,-122.43,3.114,-69.681,121.16,81.569,84.526,-306.99,-139.6,-204.15,42.683,-177.01
7.9899,-35.29,-100.93,-71.311,-63.581,-122.43,3.114,-69.681,121.16,81.569,84.526,-306.99,-139.6,-204.15,42.683,-177.01
8.4919,-34.72,-100.92,-71.563,-63.896,-122.68,2.7469,-70.308,121.57,82.495,83.691,-306.11,-139.1,-204.31,42.472,-176.86
8.4919,-34.72,-100.92,-71.563,-63.896,-122.68,2.7469,-70.308,121.57,82.495,83.691,-306.11,-139.1,-204.31,42.472,-176.86
8.9934,-34.148,-100.9,-71.811,-64.209,-122.94,2.3804,-70.929,121.98,83.415,82.852,-305.22,-138.61,-204.46,42.259,-176.71
8.9934,-34.148,-100.9,-71.811,-64.209,-122.94,2.3804,-70.929,121.98,83.415,82.852,-305.22,-138.61,-204.46,42.259,-176.71
9.4945,-33.575,-100.87,-72.054,-64.52,-123.18,2.0144,-71.545,122.39,84.329,82.007,-304.31,-138.11,-204.61,42.044,-176.55
9.4945,-33.575,-100.87,-72.054,-64.52,-123.18,2.0144,-71.545,122.39,84.329,82.007,-304.31,-138.11,-204.61,42.044,-176.55
9.9952,-33.001,-100.85,-72.292,-64.828,-123.42,1.6492,-72.154,122.8,85.236,81.157,-303.4,-137.61,-204.75,41.828,-176.38
9.9952,-33.001,-100.85,-72.292,-64.828,-123.42,1.6492,-72.154,122.8,85.236,81.157,-303.4,-137.61,-204.75,41.828,-176.38
9.9952,-33.001,-100.85,-72.292,-64.828,-123.42,1.6492,-72.154,122.8,85.236,81.157,-303.4,-137.61,-204.75,41.828,-176.38
10.495,-32.425,-100.81,-72.525,-65.134,-123.65,1.2846,-72.758,123.21,86.137,80.301,-302.47,-137.1,-204.88,41.61,-176.22
10.495,-32.425,-100.81,-72.525,-65.134,-123.65,1.2846,-72.758,123.21,86.137,80.301,-302.47,-137.1,-204.88,41.61,-176.22
10.995,-31.848,-100.78,-72.754,-65.438,-123.88,0.9207,-73.356,123.62,87.031,79.44,-301.54,-136.6,-205.01,41.39,-176.04
11.494,-31.27,-100.74,-72.978,-65.739,-124.1,0.55752,-73.948,124.02,87.919,78.575,-300.59,-136.09,-205.13,41.169,-175.86
11.494,-31.27,-100.74,-72.978,-65.739,-124.1,0.55752,-73.948,124.02,87.919,78.575,-300.59,-136.09,-205.13,41.169,-175.86
11.993,-30.69,-100.7,-73.197,-66.037,-124.32,0.19509,-74.534,124.43,88.801,77.704,-299.63,-135.58,-205.24,40.946,-175.68
11.993,-30.69,-100.7,-73.197,-66.037,-124.32,0.19509,-74.534,124.43,88.801,77.704,-299.63,-135.58,-205.24,40.946,-175.68
12.491,-30.11,-100.65,-73.412,-66.334,-124.53,-0.16658,-75.114,124.83,89.676,76.829,-298.67,-135.07,-205.35,40.722,-175.49
12.491,-30.11,-100.65,-73.412,-66.334,-124.53,-0.16658,-75.114,124.83,89.676,76.829,-298.67,-135.07,-205.35,40.722,-175.49
12.491,-30.11,-100.65,-73.412,-66.334,-124.53,-0.16658,-75.114,124.83,89.676,76.829,-298.67,-135.07,-205.35,40.722,-175.49
12.988,-29.528,-100.6,-73.622,-66.627,-124.73,-0.52746,-75.688,125.23,90.544,75.948,-297.69,-134.56,-205.46,40.496,-175.3
12.988,-29.528,-100.6,-73.622,-66.627,-124.73,-0.52746,-75.688,125.23,90.544,75.948,-297.69,-134.56,-205.46,40.496,-175.3
13.981,-28.362,-100.48,-74.027,-67.207,-125.12,-1.2467,-76.819,126.02,92.262,74.174,-295.7,-133.53,-205.64,40.04,-174.9
13.981,-28.362,-100.48,-74.027,-67.207,-125.12,-1.2467,-76.819,126.02,92.262,74.174,-295.7,-133.53,-205.64,40.04,-174.9
14.476,-27.777,-100.42,-74.223,-67.493,-125.3,-1.6051,-77.375,126.41,93.111,73.28,-294.69,-133.01,-205.73,39.81,-174.69
14.476,-27.777,-100.42,-74.223,-67.493,-125.3,-1.6051,-77.375,126.41,93.111,73.28,-294.69,-133.01,-205.73,39.81,-174.69
14.476,-27.777,-100.42,-74.223,-67.493,-125.3,-1.6051,-77.375,126.41,93.111,73.28,-294.69,-133.01,-205.73,39.81,-174.69
14.476,-27.777,-100.42,-74.223,-67.493,-125.3,-1.6051,-77.375,126.41,93.111,73.28,-294.69,-133.01,-205.73,39.81,-174.69
14.971,-27.191,-100.35,-74.414,-67.777,-125.48,-1.9626,-77.925,126.8,93.953,72.381,-293.68,-132.49,-205.81,39.578,-174.47
14.971,-27.191,-100.35,-74.414,-67.777,-125.48,-1.9626,-77.925,126.8,93.953,72.381,-293.68,-132.49,-205.81,39.578,-174.47
14.971,-27.191,-100.35,-74.414,-67.777,-125.48,-1.9626,-77.925,126.8,93.953,72.381,-293.68,-132.49,-205.81,39.578,-174.47
15.958,-26.017,-100.2,-74.783,-68.337,-125.82,-2.6748,-79.008,127.58,95.618,70.571,-291.61,-131.45,-205.95,39.11,-174.03
15.958,-26.017,-100.2,-74.783,-68.337,-125.82,-2.6748,-79.008,127.58,95.618,70.571,-291.61,-131.45,-205.95,39.11,-174.03
16.451,-25.428,-100.12,-74.96,-68.613,-125.98,-3.0295,-79.54,127.97,96.441,69.66,-290.57,-130.93,-206.02,38.873,-173.81
16.943,-24.839,-100.04,-75.132,-68.886,-126.14,-3.3832,-80.066,128.36,97.258,68.744,-289.51,-130.4,-206.07,38.635,-173.58
16.943,-24.839,-100.04,-75.132,-68.886,-126.14,-3.3832,-80.066,128.36,97.258,68.744,-289.51,-130.4,-206.07,38.635,-173.58
16.943,-24.839,-100.04,-75.132,-68.886,-126.14,-3.3832,-80.066,128.36,97.258,68.744,-289.51,-130.4,-206.07,38.635,-173.58
17.434,-24.248,-99.949,-75.3,-69.157,-126.29,-3.7359,-80.586,128.74,98.067,67.825,-288.45,-129.87,-206.13,38.396,-173.34
17.434,-24.248,-99.949,-75.3,-69.157,-126.29,-3.7359,-80.586,128.74,98.067,67.825,-288.45,-129.87,-206.13,38.396,-173.34
17.434,-24.248,-99.949,-75.3,-69.157,-126.29,-3.7359,-80.586,128.74,98.067,67.825,-288.45,-129.87,-206.13,38.396,-173.34
17.924,-23.657,-99.857,-75.463,-69.425,-126.43,-4.0876,-81.099,129.12,98.87,66.902,-287.38,-129.34,-206.17,38.155,-173.1
18.413,-23.065,-99.761,-75.622,-69.691,-126.57,-4.4382,-81.607,129.5,99.667,65.975,-286.29,-128.81,-206.21,37.913,-172.85
18.413,-23.065,-99.761,-75.622,-69.691,-126.57,-4.4382,-81.607,129.5,99.667,65.975,-286.29,-128.81,-206.21,37.913,-172.85
18.902,-22.473,-99.661,-75.775,-69.954,-126.7,-4.7878,-82.108,129.88,100.46,65.044,-285.2,-128.28,-206.25,37.669,-172.6
18.902,-22.473,-99.661,-75.775,-69.954,-126.7,-4.7878,-82.108,129.88,100.46,65.044,-285.2,-128.28,-206.25,37.669,-172.6
19.389,-21.88,-99.558,-75.925,-70.214,-126.83,-5.1362,-82.604,130.25,101.24,64.11,-284.1,-127.74,-206.28,37.424,-172.35
19.389,-21.88,-99.558,-75.925,-70.214,-126.83,-5.1362,-82.604,130.25,101.24,64.11,-284.1,-127.74,-206.28,37.424,-172.35
19.876,-21.286,-99.45,-76.069,-70.472,-126.95,-5.4836,-83.093,130.63,102.02,63.172,-283,-127.21,-206.3,37.178,-172.09
19.876,-21.286,-99.45,-76.069,-70.472,-126.95,-5.4836,-83.093,130.63,102.02,63.172,-283,-127.21,-206.3,37.178,-172.09
20.362,-20.691,-99.339,-76.209,-70.727,-127.06,-5.8299,-83.576,131,102.79,62.231,-281.88,-126.67,-206.32,36.93,-171.83
20.362,-20.691,-99.339,-76.209,-70.727,-127.06,-5.8299,-83.576,131,102.79,62.231,-281.88,-126.67,-206.32,36.93,-171.83
20.362,-20.691,-99.339,-76.209,-70.727,-127.06,-5.8299,-83.576,131,102.79,62.231,-281.88,-126.67,-206.32,36.93,-171.83
20.847,-20.096,-99.223,-76.345,-70.979,-127.17,-6.175,-84.053,131.37,103.55,61.286,-280.76,-126.13,-206.34,36.681,-171.56
21.33,-19.5,-99.104,-76.476,-71.229,-127.27,-6.5189,-84.524,131.74,104.31,60.338,-279.63,-125.59,-206.34,36.43,-171.29
21.813,-18.904,-98.981,-76.602,-71.476,-127.37,-6.8616,-84.989,132.11,105.06,59.387,-278.49,-125.05,-206.35,36.178,-171.01
21.813,-18.904,-98.981,-76.602,-71.476,-127.37,-6.8616,-84.989,132.11,105.06,59.387,-278.49,-125.05,-206.35,36.178,-171.01
21.813,-18.904,-98.981,-76.602,-71.476,-127.37,-6.8616,-84.989,132.11,105.06,59.387,-278.49,-125.05,-206.35,36.178,-171.01
22.295,-18.307,-98.854,-76.724,-71.72,-127.46,-7.2031,-85.447,132.47,105.8,58.433,-277.34,-124.5,-206.35,35.925,-170.73
22.295,-18.307,-98.854,-76.724,-71.72,-127.46,-7.2031,-85.447,132.47,105.8,58.433,-277.34,-124.5,-206.35,35.925,-170.73
22.295,-18.307,-98.854,-76.724,-71.72,-127.46,-7.2031,-85.447,132.47,105.8,58.433,-277.34,-124.5,-206.35,35.925,-170.73
22.776,-17.709,-98.723,-76.841,-71.961,-127.54,-7.5434,-85.899,132.83,106.54,57.476,-276.18,-123.96,-206.34,35.67,-170.45
23.256,-17.112,-98.588,-76.953,-72.2,-127.62,-7.8824,-86.345,133.19,107.27,56.516,-275.02,-123.41,-206.33,35.414,-170.16
23.256,-17.112,-98.588,-76.953,-72.2,-127.62,-7.8824,-86.345,133.19,107.27,56.516,-275.02,-123.41,-206.33,35.414,-170.16
23.735,-16.513,-98.45,-77.061,-72.436,-127.7,-8.2202,-86.785,133.55,107.99,55.553,-273.85,-122.86,-206.31,35.157,-169.87
23.735,-16.513,-98.45,-77.061,-72.436,-127.7,-8.2202,-86.785,133.55,107.99,55.553,-273.85,-122.86,-206.31,35.157,-169.87
24.212,-15.915,-98.308,-77.165,-72.67,-127.76,-8.5566,-87.219,133.91,108.71,54.587,-272.67,-122.31,-206.29,34.898,-169.57
24.212,-15.915,-98.308,-77.165,-72.67,-127.76,-8.5566,-87.219,133.91,108.71,54.587,-272.67,-122.31,-206.29,34.898,-169.57
24.212,-15.915,-98.308,-77.165,-72.67,-127.76,-8.5566,-87.219,133.91,108.71,54.587,-272.67,-122.31,-206.29,34.898,-169.57
24.689,-15.315,-98.161,-77.264,-72.901,-127.83,-8.8918,-87.647,134.27,109.42,53.619,-271.49,-121.76,-206.26,34.638,-169.27
24.689,-15.315,-98.161,-77.264,-72.901,-127.83,-8.8918,-87.647,134.27,109.42,53.619,-271.49,-121.76,-206.26,34.638,-169.27
24.689,-15.315,-98.161,-77.264,-72.901,-127.83,-8.8918,-87.647,134.27,109.42,53.619,-271.49,-121.76,-206.26,34.638,-169.27
25.639,-14.116,-97.858,-77.449,-73.354,-127.93,-9.558,-88.483,134.97,110.82,51.675,-269.1,-120.65,-206.2,34.114,-168.65
25.639,-14.116,-97.858,-77.449,-73.354,-127.93,-9.558,-88.483,134.97,110.82,51.675,-269.1,-120.65,-206.2,34.114,-168.65
26.112,-13.516,-97.701,-77.534,-73.576,-127.98,-9.8891,-88.892,135.32,111.51,50.699,-267.89,-120.1,-206.15,33.85,-168.34
26.112,-13.516,-97.701,-77.534,-73.576,-127.98,-9.8891,-88.892,135.32,111.51,50.699,-267.89,-120.1,-206.15,33.85,-168.34
26.584,-12.916,-97.539,-77.615,-73.796,-128.02,-10.219,-89.295,135.67,112.2,49.721,-266.68,-119.54,-206.11,33.584,-168.02
27.054,-12.315,-97.375,-77.692,-74.013,-128.05,-10.547,-89.691,136.02,112.88,48.741,-265.46,-118.98,-206.06,33.318,-167.7
27.054,-12.315,-97.375,-77.692,-74.013,-128.05,-10.547,-89.691,136.02,112.88,48.741,-265.46,-118.98,-206.06,33.318,-167.7
27.054,-12.315,-97.375,-77.692,-74.013,-128.05,-10.547,-89.691,136.02,112.88,48.741,-265.46,-118.98,-206.06,33.318,-167.7
27.524,-11.714,-97.206,-77.764,-74.227,-128.08,-10.874,-90.082,136.36,113.55,47.758,-264.23,-118.42,-206,33.05,-167.38
27.524,-11.714,-97.206,-77.764,-74.227,-128.08,-10.874,-90.082,136.36,113.55,47.758,-264.23,-118.42,-206,33.05,-167.38
27.524,-11.714,-97.206,-77.764,-74.227,-128.08,-10.874,-90.082,136.36,113.55,47.758,-264.23,-118.42,-206,33.05,-167.38
27.992,-11.113,-97.034,-77.832,-74.438,-128.1,-11.2,-90.466,136.7,114.21,46.774,-263,-117.86,-205.94,32.781,-167.05
28.459,-10.512,-96.858,-77.896,-74.647,-128.12,-11.523,-90.844,137.04,114.87,45.788,-261.76,-117.3,-205.88,32.511,-166.72
28.459,-10.512,-96.858,-77.896,-74.647,-128.12,-11.523,-90.844,137.04,114.87,45.788,-261.76,-117.3,-205.88,32.511,-166.72
28.459,-10.512,-96.858,-77.896,-74.647,-128.12,-11.523,-90.844,137.04,114.87,45.788,-261.76,-117.3,-205.88,32.511,-166.72
28.925,-9.9109,-96.678,-77.955,-74.853,-128.13,-11.846,-91.216,137.38,115.52,44.8,-260.52,-116.73,-205.81,32.239,-166.38
28.925,-9.9109,-96.678,-77.955,-74.853,-128.13,-11.846,-91.216,137.38,115.52,44.8,-260.52,-116.73,-205.81,32.239,-166.38
28.925,-9.9109,-96.678,-77.955,-74.853,-128.13,-11.846,-91.216,137.38,115.52,44.8,-260.52,-116.73,-205.81,32.239,-166.38
29.852,-8.708,-96.308,-78.059,-75.256,-128.14,-12.487,-91.941,138.05,116.81,42.818,-258.01,-115.6,-205.66,31.692,-165.7
29.852,-8.708,-96.308,-78.059,-75.256,-128.14,-12.487,-91.941,138.05,116.81,42.818,-258.01,-115.6,-205.66,31.692,-165.7
30.314,-8.1064,-96.118,-78.105,-75.453,-128.13,-12.805,-92.295,138.38,117.44,41.825,-256.75,-115.03,-205.57,31.417,-165.35
30.314,-8.1064,-96.118,-78.105,-75.453,-128.13,-12.805,-92.295,138.38,117.44,41.825,-256.75,-115.03,-205.57,31.417,-165.35
30.774,-7.5048,-95.924,-78.147,-75.648,-128.12,-13.121,-92.642,138.71,118.06,40.83,-255.49,-114.46,-205.49,31.141,-165
30.774,-7.5048,-95.924,-78.147,-75.648,-128.12,-13.121,-92.642,138.71,118.06,40.83,-255.49,-114.46,-205.49,31.141,-165
30.774,-7.5048,-95.924,-78.147,-75.648,-128.12,-13.121,-92.642,138.71,118.06,40.83,-255.49,-114.46,-205.49,31.141,-165
30.774,-7.5048,-95.924,-78.147,-75.648,-128.12,-13.121,-92.642,138.71,118.06,40.83,-255.49,-114.46,-205.49,31.141,-165
31.691,-6.3016,-95.525,-78.217,-76.029,-128.09,-13.749,-93.318,139.37,119.3,38.836,-252.93,-113.32,-205.3,30.584,-164.29
31.691,-6.3016,-95.525,-78.217,-76.029,-128.09,-13.749,-93.318,139.37,119.3,38.836,-252.93,-113.32,-205.3,30.584,-164.29
31.691,-6.3016,-95.525,-78.217,-76.029,-128.09,-13.749,-93.318,139.37,119.3,38.836,-252.93,-113.32,-205.3,30.584,-164.29
32.147,-5.7,-95.321,-78.246,-76.215,-128.06,-14.061,-93.647,139.69,119.9,37.837,-251.65,-112.74,-205.2,30.304,-163.93
32.147,-5.7,-95.321,-78.246,-76.215,-128.06,-14.061,-93.647,139.69,119.9,37.837,-251.65,-112.74,-205.2,30.304,-163.93
32.147,-5.7,-95.321,-78.246,-76.215,-128.06,-14.061,-93.647,139.69,119.9,37.837,-251.65,-112.74,-205.2,30.304,-163.93
33.055,-4.4971,-94.901,-78.29,-76.579,-127.99,-14.68,-94.286,140.33,121.09,35.836,-249.07,-111.59,-204.99,29.741,-163.19
33.055,-4.4971,-94.901,-78.29,-76.579,-127.99,-14.68,-94.286,140.33,121.09,35.836,-249.07,-111.59,-204.99,29.741,-163.19
33.507,-3.8958,-94.686,-78.306,-76.757,-127.95,-14.987,-94.597,140.65,121.68,34.834,-247.77,-111.01,-204.87,29.457,-162.82
33.507,-3.8958,-94.686,-78.306,-76.757,-127.95,-14.987,-94.597,140.65,121.68,34.834,-247.77,-111.01,-204.87,29.457,-162.82
33.958,-3.2946,-94.467,-78.318,-76.932,-127.9,-15.292,-94.901,140.97,122.26,33.831,-246.47,-110.43,-204.76,29.173,-162.45
33.958,-3.2946,-94.467,-78.318,-76.932,-127.9,-15.292,-94.901,140.97,122.26,33.831,-246.47,-110.43,-204.76,29.173,-162.45
34.407,-2.6936,-94.245,-78.325,-77.104,-127.85,-15.595,-95.2,141.28,122.84,32.827,-245.16,-109.85,-204.63,28.887,-162.07
34.407,-2.6936,-94.245,-78.325,-77.104,-127.85,-15.595,-95.2,141.28,122.84,32.827,-245.16,-109.85,-204.63,28.887,-162.07
34.854,-2.0927,-94.02,-78.329,-77.274,-127.79,-15.897,-95.492,141.59,123.4,31.822,-243.85,-109.27,-204.51,28.6,-161.69
34.854,-2.0927,-94.02,-78.329,-77.274,-127.79,-15.897,-95.492,141.59,123.4,31.822,-243.85,-109.27,-204.51,28.6,-161.69
34.854,-2.0927,-94.02,-78.329,-77.274,-127.79,-15.897,-95.492,141.59,123.4,31.822,-243.85,-109.27,-204.51,28.6,-161.69
35.3,-1.4921,-93.791,-78.328,-77.44,-127.73,-16.198,-95.778,141.9,123.96,30.817,-242.53,-108.69,-204.38,28.312,-161.3
35.3,-1.4921,-93.791,-78.328,-77.44,-127.73,-16.198,-95.778,141.9,123.96,30.817,-242.53,-108.69,-204.38,28.312,-161.3
36.187,-0.29159,-93.324,-78.314,-77.765,-127.59,-16.793,-96.333,142.52,125.07,28.804,-239.88,-107.52,-204.11,27.732,-160.52
36.187,-0.29159,-93.324,-78.314,-77.765,-127.59,-16.793,-96.333,142.52,125.07,28.804,-239.88,-107.52,-204.11,27.732,-160.52
36.187,-0.29159,-93.324,-78.314,-77.765,-127.59,-16.793,-96.333,142.52,125.07,28.804,-239.88,-107.52,-204.11,27.732,-160.52
36.628,0.30827,-93.085,-78.3,-77.923,-127.51,-17.088,-96.601,142.82,125.61,27.797,-238.56,-106.93,-203.97,27.441,-160.13
36.628,0.30827,-93.085,-78.3,-77.923,-127.51,-17.088,-96.601,142.82,125.61,27.797,-238.56,-106.93,-203.97,27.441,-160.13
37.067,0.90784,-92.843,-78.283,-78.078,-127.43,-17.382,-96.863,143.12,126.15,26.79,-237.22,-106.35,-203.83,27.149,-159.73
37.067,0.90784,-92.843,-78.283,-78.078,-127.43,-17.382,-96.863,143.12,126.15,26.79,-237.22,-106.35,-203.83,27.149,-159.73
37.505,1.5071,-92.597,-78.261,-78.231,-127.34,-17.673,-97.119,143.42,126.68,25.782,-235.88,-105.76,-203.68,26.855,-159.33
37.505,1.5071,-92.597,-78.261,-78.231,-127.34,-17.673,-97.119,143.42,126.68,25.782,-235.88,-105.76,-203.68,26.855,-159.33
37.942,2.106,-92.349,-78.236,-78.381,-127.25,-17.963,-97.37,143.72,127.2,24.774,-234.54,-105.17,-203.53,26.561,-158.93
38.376,2.7045,-92.097,-78.206,-78.528,-127.15,-18.251,-97.614,144.02,127.72,23.766,-233.2,-104.58,-203.37,26.265,-158.52
38.376,2.7045,-92.097,-78.206,-78.528,-127.15,-18.251,-97.614,144.02,127.72,23.766,-233.2,-104.58,-203.37,26.265,-158.52
38.376,2.7045,-92.097,-78.206,-78.528,-127.15,-18.251,-97.614,144.02,127.72,23.766,-233.2,-104.58,-203.37,26.265,-158.52
38.809,3.3027,-91.842,-78.173,-78.672,-127.04,-18.538,-97.852,144.31,128.23,22.758,-231.85,-103.99,-203.21,25.968,-158.11
38.809,3.3027,-91.842,-78.173,-78.672,-127.04,-18.538,-97.852,144.31,128.23,22.758,-231.85,-103.99,-203.21,25.968,-158.11
38.809,3.3027,-91.842,-78.173,-78.672,-127.04,-18.538,-97.852,144.31,128.23,22.758,-231.85,-103.99,-203.21,25.968,-158.11
39.24,3.9004,-91.583,-78.135,-78.813,-126.94,-18.822,-98.085,144.6,128.73,21.75,-230.5,-103.39,-203.05,25.67,-157.7
39.67,4.4977,-91.322,-78.093,-78.952,-126.82,-19.105,-98.312,144.89,129.23,20.742,-229.14,-102.8,-202.88,25.372,-157.29
39.67,4.4977,-91.322,-78.093,-78.952,-126.82,-19.105,-98.312,144.89,129.23,20.742,-229.14,-102.8,-202.88,25.372,-157.29
39.67,4.4977,-91.322,-78.093,-78.952,-126.82,-19.105,-98.312,144.89,129.23,20.742,-229.14,-102.8,-202.88,25.372,-157.29
40.098,5.0946,-91.057,-78.048,-79.088,-126.71,-19.386,-98.532,145.18,129.72,19.734,-227.79,-102.21,-202.71,25.072,-156.87
40.098,5.0946,-91.057,-78.048,-79.088,-126.71,-19.386,-98.532,145.18,129.72,19.734,-227.79,-102.21,-202.71,25.072,-156.87
40.098,5.0946,-91.057,-78.048,-79.088,-126.71,-19.386,-98.532,145.18,129.72,19.734,-227.79,-102.21,-202.71,25.072,-156.87
40.098,5.0946,-91.057,-78.048,-79.088,-126.71,-19.386,-98.532,145.18,129.72,19.734,-227.79,-102.21,-202.71,25.072,-156.87
40.949,6.2869,-90.518,-77.945,-79.351,-126.46,-19.943,-98.956,145.75,130.69,17.72,-225.06,-101.01,-202.36,24.469,-156.03
40.949,6.2869,-90.518,-77.945,-79.351,-126.46,-19.943,-98.956,145.75,130.69,17.72,-225.06,-101.01,-202.36,24.469,-156.03
40.949,6.2869,-90.518,-77.945,-79.351,-126.46,-19.943,-98.956,145.75,130.69,17.72,-225.06,-101.01,-202.36,24.469,-156.03
41.792,7.4771,-89.967,-77.826,-79.603,-126.19,-20.492,-99.357,146.31,131.63,15.706,-222.33,-99.817,-202,23.862,-155.17
41.792,7.4771,-89.967,-77.826,-79.603,-126.19,-20.492,-99.357,146.31,131.63,15.706,-222.33,-99.817,-202,23.862,-155.17
42.211,8.0714,-89.687,-77.761,-79.725,-126.05,-20.763,-99.549,146.58,132.09,14.701,-220.95,-99.217,-201.81,23.558,-154.74
42.211,8.0714,-89.687,-77.761,-79.725,-126.05,-20.763,-99.549,146.58,132.09,14.701,-220.95,-99.217,-201.81,23.558,-154.74
42.629,8.6651,-89.404,-77.692,-79.844,-125.9,-21.033,-99.735,146.86,132.55,13.696,-219.58,-98.617,-201.62,23.252,-154.31
42.629,8.6651,-89.404,-77.692,-79.844,-125.9,-21.033,-99.735,146.86,132.55,13.696,-219.58,-98.617,-201.62,23.252,-154.31
43.044,9.2582,-89.118,-77.619,-79.961,-125.75,-21.301,-99.915,147.13,133,12.691,-218.2,-98.015,-201.42,22.945,-153.87
43.044,9.2582,-89.118,-77.619,-79.961,-125.75,-21.301,-99.915,147.13,133,12.691,-218.2,-98.015,-201.42,22.945,-153.87
43.044,9.2582,-89.118,-77.619,-79.961,-125.75,-21.301,-99.915,147.13,133,12.691,-218.2,-98.015,-201.42,22.945,-153.87
43.458,9.8507,-88.829,-77.542,-80.074,-125.6,-21.568,-100.09,147.4,133.44,11.688,-216.82,-97.413,-201.23,22.637,-153.43
43.87,10.443,-88.537,-77.462,-80.185,-125.44,-21.832,-100.26,147.67,133.88,10.685,-215.44,-96.809,-201.03,22.329,-152.99
43.87,10.443,-88.537,-77.462,-80.185,-125.44,-21.832,-100.26,147.67,133.88,10.685,-215.44,-96.809,-201.03,22.329,-152.99
44.28,11.034,-88.242,-77.377,-80.294,-125.28,-22.094,-100.42,147.93,134.31,9.6832,-214.06,-96.205,-200.82,22.019,-152.54
44.28,11.034,-88.242,-77.377,-80.294,-125.28,-22.094,-100.42,147.93,134.31,9.6832,-214.06,-96.205,-200.82,22.019,-152.54
44.688,11.624,-87.945,-77.289,-80.399,-125.11,-22.355,-100.58,148.2,134.73,8.6824,-212.67,-95.6,-200.62,21.708,-152.1
44.688,11.624,-87.945,-77.289,-80.399,-125.11,-22.355,-100.58,148.2,134.73,8.6824,-212.67,-95.6,-200.62,21.708,-152.1
45.094,12.214,-87.644,-77.198,-80.502,-124.93,-22.613,-100.73,148.46,135.15,7.6827,-211.28,-94.994,-200.41,21.397,-151.65
45.094,12.214,-87.644,-77.198,-80.502,-124.93,-22.613,-100.73,148.46,135.15,7.6827,-211.28,-94.994,-200.41,21.397,-151.65
45.498,12.803,-87.341,-77.102,-80.602,-124.76,-22.87,-100.88,148.72,135.57,6.6842,-209.89,-94.387,-200.2,21.084,-151.2
45.498,12.803,-87.341,-77.102,-80.602,-124.76,-22.87,-100.88,148.72,135.57,6.6842,-209.89,-94.387,-200.2,21.084,-151.2
45.901,13.392,-87.034,-77.003,-80.699,-124.58,-23.125,-101.02,148.98,135.97,5.6868,-208.5,-93.78,-199.98,20.771,-150.74
45.901,13.392,-87.034,-77.003,-80.699,-124.58,-23.125,-101.02,148.98,135.97,5.6868,-208.5,-93.78,-199.98,20.771,-150.74
46.301,13.979,-86.725,-76.9,-80.794,-124.39,-23.378,-101.15,149.23,136.38,4.6908,-207.11,-93.172,-199.76,20.457,-150.29
46.301,13.979,-86.725,-76.9,-80.794,-124.39,-23.378,-101.15,149.23,136.38,4.6908,-207.11,-93.172,-199.76,20.457,-150.29
46.7,14.566,-86.413,-76.794,-80.886,-124.2,-23.629,-101.28,149.49,136.77,3.6961,-205.71,-92.562,-199.54,20.142,-149.83
46.7,14.566,-86.413,-76.794,-80.886,-124.2,-23.629,-101.28,149.49,136.77,3.6961,-205.71,-92.562,-199.54,20.142,-149.83
47.097,15.152,-86.099,-76.683,-80.975,-124.01,-23.878,-101.41,149.74,137.16,2.7029,-204.32,-91.953,-199.32,19.826,-149.37
47.097,15.152,-86.099,-76.683,-80.975,-124.01,-23.878,-101.41,149.74,137.16,2.7029,-204.32,-91.953,-199.32,19.826,-149.37
47.097,15.152,-86.099,-76.683,-80.975,-124.01,-23.878,-101.41,149.74,137.16,2.7029,-204.32,-91.953,-199.32,19.826,-149.37
47.491,15.738,-85.782,-76.57,-81.061,-123.81,-24.125,-101.53,149.99,137.55,1.7111,-202.92,-91.342,-199.09,19.509,-148.91
47.884,16.322,-85.462,-76.452,-81.145,-123.61,-24.37,-101.64,150.23,137.93,0.72096,-201.52,-90.731,-198.86,19.191,-148.44
47.884,16.322,-85.462,-76.452,-81.145,-123.61,-24.37,-101.64,150.23,137.93,0.72096,-201.52,-90.731,-198.86,19.191,-148.44
48.275,16.906,-85.139,-76.331,-81.226,-123.4,-24.613,-101.75,150.48,138.3,-0.26756,-200.12,-90.118,-198.63,18.872,-147.98
48.275,16.906,-85.139,-76.331,-81.226,-123.4,-24.613,-101.75,150.48,138.3,-0.26756,-200.12,-90.118,-198.63,18.872,-147.98
48.664,17.489,-84.814,-76.207,-81.305,-123.19,-24.854,-101.85,150.72,138.67,-1.2544,-198.72,-89.506,-198.39,18.553,-147.51
48.664,17.489,-84.814,-76.207,-81.305,-123.19,-24.854,-101.85,150.72,138.67,-1.2544,-198.72,-89.506,-198.39,18.553,-147.51
48.664,17.489,-84.814,-76.207,-81.305,-123.19,-24.854,-101.85,150.72,138.67,-1.2544,-198.72,-89.506,-198.39,18.553,-147.51
49.051,18.071,-84.486,-76.079,-81.381,-122.98,-25.094,-101.95,150.96,139.03,-2.2394,-197.32,-88.892,-198.16,18.233,-147.04
49.051,18.071,-84.486,-76.079,-81.381,-122.98,-25.094,-101.95,150.96,139.03,-2.2394,-197.32,-88.892,-198.16,18.233,-147.04
49.436,18.652,-84.156,-75.948,-81.454,-122.76,-25.331,-102.04,151.2,139.38,-3.2226,-195.92,-88.278,-197.92,17.911,-146.57
49.818,19.232,-83.823,-75.813,-81.525,-122.53,-25.566,-102.12,151.43,139.73,-4.2039,-194.52,-87.663,-197.67,17.589,-146.09
49.818,19.232,-83.823,-75.813,-81.525,-122.53,-25.566,-102.12,151.43,139.73,-4.2039,-194.52,-87.663,-197.67,17.589,-146.09
50.199,19.811,-83.488,-75.674,-81.593,-122.31,-25.8,-102.21,151.67,140.08,-5.1832,-193.12,-87.048,-197.43,17.267,-145.61
50.199,19.811,-83.488,-75.674,-81.593,-122.31,-25.8,-102.21,151.67,140.08,-5.1832,-193.12,-87.048,-197.43,17.267,-145.61
50.578,20.389,-83.15,-75.532,-81.658,-122.08,-26.031,-102.28,151.9,140.42,-6.1605,-191.71,-86.432,-197.18,16.943,-145.14
50.578,20.389,-83.15,-75.532,-81.658,-122.08,-26.031,-102.28,151.9,140.42,-6.1605,-191.71,-86.432,-197.18,16.943,-145.14
50.955,20.966,-82.81,-75.387,-81.721,-121.84,-26.261,-102.35,152.13,140.75,-7.1356,-190.31,-85.815,-196.93,16.619,-144.66
50.955,20.966,-82.81,-75.387,-81.721,-121.84,-26.261,-102.35,152.13,140.75,-7.1356,-190.31,-85.815,-196.93,16.619,-144.66
51.329,21.543,-82.467,-75.238,-81.781,-121.61,-26.488,-102.42,152.35,141.08,-8.1086,-188.9,-85.198,-196.68,16.293,-144.17
51.329,21.543,-82.467,-75.238,-81.781,-121.61,-26.488,-102.42,152.35,141.08,-8.1086,-188.9,-85.198,-196.68,16.293,-144.17
51.329,21.543,-82.467,-75.238,-81.781,-121.61,-26.488,-102.42,152.35,141.08,-8.1086,-188.9,-85.198,-196.68,16.293,-144.17
51.702,22.118,-82.122,-75.086,-81.839,-121.36,-26.714,-102.48,152.58,141.4,-9.0793,-187.5,-84.58,-196.42,15.968,-143.69
51.702,22.118,-82.122,-75.086,-81.839,-121.36,-26.714,-102.48,152.58,141.4,-9.0793,-187.5,-84.58,-196.42,15.968,-143.69
52.073,22.692,-81.774,-74.931,-81.894,-121.12,-26.938,-102.53,152.8,141.72,-10.048,-186.09,-83.961,-196.16,15.641,-143.21
52.073,22.692,-81.774,-74.931,-81.894,-121.12,-26.938,-102.53,152.8,141.72,-10.048,-186.09,-83.961,-196.16,15.641,-143.21
52.073,22.692,-81.774,-74.931,-81.894,-121.12,-26.938,-102.53,152.8,141.72,-10.048,-186.09,-83.961,-196.16,15.641,-143.21
52.807,23.838,-81.072,-74.61,-81.996,-120.62,-27.379,-102.63,153.24,142.34,-11.977,-183.28,-82.723,-195.64,14.985,-142.23
52.807,23.838,-81.072,-74.61,-81.996,-120.62,-27.379,-102.63,153.24,142.34,-11.977,-183.28,-82.723,-195.64,14.985,-142.23
52.807,23.838,-81.072,-74.61,-81.996,-120.62,-27.379,-102.63,153.24,142.34,-11.977,-183.28,-82.723,-195.64,14.985,-142.23
53.172,24.409,-80.718,-74.445,-82.044,-120.36,-27.597,-102.67,153.46,142.64,-12.939,-181.88,-82.102,-195.38,14.656,-141.74
53.172,24.409,-80.718,-74.445,-82.044,-120.36,-27.597,-102.67,153.46,142.64,-12.939,-181.88,-82.102,-195.38,14.656,-141.74
53.894,25.548,-80.002,-74.104,-82.131,-119.84,-28.026,-102.73,153.88,143.22,-14.853,-179.07,-80.861,-194.84,13.996,-140.75
53.894,25.548,-80.002,-74.104,-82.131,-119.84,-28.026,-102.73,153.88,143.22,-14.853,-179.07,-80.861,-194.84,13.996,-140.75
54.252,26.116,-79.641,-73.929,-82.171,-119.57,-28.238,-102.76,154.09,143.51,-15.807,-177.67,-80.239,-194.57,13.665,-140.26
54.252,26.116,-79.641,-73.929,-82.171,-119.57,-28.238,-102.76,154.09,143.51,-15.807,-177.67,-80.239,-194.57,13.665,-140.26
54.252,26.116,-79.641,-73.929,-82.171,-119.57,-28.238,-102.76,154.09,143.51,-15.807,-177.67,-80.239,-194.57,13.665,-140.26
54.608,26.683,-79.277,-73.751,-82.209,-119.3,-28.448,-102.78,154.3,143.79,-16.757,-176.27,-79.617,-194.3,13.333,-139.76
54.608,26.683,-79.277,-73.751,-82.209,-119.3,-28.448,-102.78,154.3,143.79,-16.757,-176.27,-79.617,-194.3,13.333,-139.76
54.608,26.683,-79.277,-73.751,-82.209,-119.3,-28.448,-102.78,154.3,143.79,-16.757,-176.27,-79.617,-194.3,13.333,-139.76
54.962,27.249,-78.912,-73.569,-82.244,-119.03,-28.656,-102.79,154.5,144.06,-17.705,-174.86,-78.995,-194.02,13,-139.27
55.313,27.814,-78.544,-73.385,-82.276,-118.75,-28.862,-102.8,154.71,144.33,-18.65,-173.46,-78.372,-193.74,12.667,-138.77
55.313,27.814,-78.544,-73.385,-82.276,-118.75,-28.862,-102.8,154.71,144.33,-18.65,-173.46,-78.372,-193.74,12.667,-138.77
55.662,28.377,-78.175,-73.197,-82.306,-118.47,-29.066,-102.81,154.91,144.59,-19.592,-172.06,-77.748,-193.46,12.333,-138.27
55.662,28.377,-78.175,-73.197,-82.306,-118.47,-29.066,-102.81,154.91,144.59,-19.592,-172.06,-77.748,-193.46,12.333,-138.27
56.01,28.939,-77.803,-73.006,-82.334,-118.18,-29.268,-102.81,155.1,144.85,-20.531,-170.66,-77.124,-193.18,11.999,-137.76
56.01,28.939,-77.803,-73.006,-82.334,-118.18,-29.268,-102.81,155.1,144.85,-20.531,-170.66,-77.124,-193.18,11.999,-137.76
56.01,28.939,-77.803,-73.006,-82.334,-118.18,-29.268,-102.81,155.1,144.85,-20.531,-170.66,-77.124,-193.18,11.999,-137.76
56.355,29.5,-77.429,-72.812,-82.359,-117.9,-29.468,-102.81,155.3,145.11,-21.467,-169.26,-76.5,-192.9,11.663,-137.26
56.355,29.5,-77.429,-72.812,-82.359,-117.9,-29.468,-102.81,155.3,145.11,-21.467,-169.26,-76.5,-192.9,11.663,-137.26
56.698,30.06,-77.053,-72.615,-82.382,-117.61,-29.666,-102.8,155.49,145.35,-22.4,-167.86,-75.876,-192.61,11.328,-136.76
57.038,30.619,-76.676,-72.415,-82.402,-117.31,-29.862,-102.79,155.69,145.6,-23.33,-166.47,-75.251,-192.33,10.991,-136.25
57.038,30.619,-76.676,-72.415,-82.402,-117.31,-29.862,-102.79,155.69,145.6,-23.33,-166.47,-75.251,-192.33,10.991,-136.25
57.377,31.176,-76.296,-72.212,-82.42,-117.02,-30.056,-102.77,155.88,145.83,-24.256,-165.07,-74.625,-192.04,10.654,-135.74
57.377,31.176,-76.296,-72.212,-82.42,-117.02,-30.056,-102.77,155.88,145.83,-24.256,-165.07,-74.625,-192.04,10.654,-135.74
57.713,31.733,-75.914,-72.006,-82.436,-116.72,-30.249,-102.75,156.06,146.07,-25.179,-163.68,-74,-191.75,10.316,-135.23
57.713,31.733,-75.914,-72.006,-82.436,-116.72,-30.249,-102.75,156.06,146.07,-25.179,-163.68,-74,-191.75,10.316,-135.23
57.713,31.733,-75.914,-72.006,-82.436,-116.72,-30.249,-102.75,156.06,146.07,-25.179,-163.68,-74,-191.75,10.316,-135.23
58.048,32.288,-75.531,-71.797,-82.449,-116.41,-30.439,-102.72,156.25,146.3,-26.1,-162.28,-73.374,-191.46,9.9777,-134.73
58.048,32.288,-75.531,-71.797,-82.449,-116.41,-30.439,-102.72,156.25,146.3,-26.1,-162.28,-73.374,-191.46,9.9777,-134.73
58.38,32.841,-75.146,-71.585,-82.46,-116.11,-30.627,-102.69,156.43,146.52,-27.016,-160.89,-72.748,-191.16,9.6388,-134.22
58.38,32.841,-75.146,-71.585,-82.46,-116.11,-30.627,-102.69,156.43,146.52,-27.016,-160.89,-72.748,-191.16,9.6388,-134.22
58.71,33.394,-74.758,-71.37,-82.468,-115.8,-30.814,-102.65,156.61,146.74,-27.929,-159.5,-72.121,-190.87,9.2992,-133.7
58.71,33.394,-74.758,-71.37,-82.468,-115.8,-30.814,-102.65,156.61,146.74,-27.929,-159.5,-72.121,-190.87,9.2992,-133.7
59.037,33.945,-74.37,-71.152,-82.475,-115.49,-30.998,-102.61,156.79,146.95,-28.839,-158.11,-71.494,-190.57,8.959,-133.19
59.037,33.945,-74.37,-71.152,-82.475,-115.49,-30.998,-102.61,156.79,146.95,-28.839,-158.11,-71.494,-190.57,8.959,-133.19
59.037,33.945,-74.37,-71.152,-82.475,-115.49,-30.998,-102.61,156.79,146.95,-28.839,-158.11,-71.494,-190.57,8.959,-133.19
59.686,35.043,-73.586,-70.707,-82.48,-114.86,-31.362,-102.52,157.14,147.36,-30.648,-155.34,-70.24,-189.97,8.277,-132.16
59.686,35.043,-73.586,-70.707,-82.48,-114.86,-31.362,-102.52,157.14,147.36,-30.648,-155.34,-70.24,-189.97,8.277,-132.16
60.007,35.59,-73.192,-70.481,-82.48,-114.54,-31.541,-102.46,157.31,147.56,-31.547,-153.96,-69.612,-189.67,7.9352,-131.65
60.007,35.59,-73.192,-70.481,-82.48,-114.54,-31.541,-102.46,157.31,147.56,-31.547,-153.96,-69.612,-189.67,7.9352,-131.65
60.325,36.136,-72.797,-70.251,-82.477,-114.21,-31.718,-102.41,157.48,147.76,-32.442,-152.58,-68.984,-189.36,7.5928,-131.13
60.325,36.136,-72.797,-70.251,-82.477,-114.21,-31.718,-102.41,157.48,147.76,-32.442,-152.58,-68.984,-189.36,7.5928,-131.13
60.642,36.681,-72.399,-70.019,-82.472,-113.89,-31.893,-102.34,157.65,147.95,-33.334,-151.2,-68.356,-189.06,7.2499,-130.62
60.642,36.681,-72.399,-70.019,-82.472,-113.89,-31.893,-102.34,157.65,147.95,-33.334,-151.2,-68.356,-189.06,7.2499,-130.62
60.956,37.224,-72,-69.784,-82.465,-113.56,-32.066,-102.28,157.82,148.13,-34.222,-149.82,-67.728,-188.75,6.9065,-130.1
60.956,37.224,-72,-69.784,-82.465,-113.56,-32.066,-102.28,157.82,148.13,-34.222,-149.82,-67.728,-188.75,6.9065,-130.1
61.268,37.766,-71.6,-69.547,-82.455,-113.23,-32.237,-102.21,157.98,148.31,-35.106,-148.45,-67.1,-188.44,6.5625,-129.58
61.268,37.766,-71.6,-69.547,-82.455,-113.23,-32.237,-102.21,157.98,148.31,-35.106,-148.45,-67.1,-188.44,6.5625,-129.58
61.268,37.766,-71.6,-69.547,-82.455,-113.23,-32.237,-102.21,157.98,148.31,-35.106,-148.45,-67.1,-188.44,6.5625,-129.58
61.578,38.306,-71.198,-69.306,-82.443,-112.89,-32.406,-102.13,158.14,148.49,-35.986,-147.07,-66.471,-188.13,6.2181,-129.06
61.886,38.845,-70.794,-69.063,-82.43,-112.56,-32.574,-102.05,158.3,148.66,-36.862,-145.7,-65.842,-187.82,5.8731,-128.54
62.191,39.383,-70.389,-68.817,-82.414,-112.22,-32.74,-101.97,158.45,148.82,-37.734,-144.34,-65.213,-187.51,5.5277,-128.02
62.191,39.383,-70.389,-68.817,-82.414,-112.22,-32.74,-101.97,158.45,148.82,-37.734,-144.34,-65.213,-187.51,5.5277,-128.02
62.191,39.383,-70.389,-68.817,-82.414,-112.22,-32.74,-101.97,158.45,148.82,-37.734,-144.34,-65.213,-187.51,5.5277,-128.02
62.494,39.919,-69.982,-68.569,-82.395,-111.88,-32.903,-101.88,158.61,148.98,-38.602,-142.97,-64.584,-187.2,5.1818,-127.5
62.494,39.919,-69.982,-68.569,-82.395,-111.88,-32.903,-101.88,158.61,148.98,-38.602,-142.97,-64.584,-187.2,5.1818,-127.5
62.795,40.453,-69.574,-68.318,-82.375,-111.53,-33.065,-101.79,158.76,149.14,-39.467,-141.61,-63.955,-186.88,4.8355,-126.98
62.795,40.453,-69.574,-68.318,-82.375,-111.53,-33.065,-101.79,158.76,149.14,-39.467,-141.61,-63.955,-186.88,4.8355,-126.98
62.795,40.453,-69.574,-68.318,-82.375,-111.53,-33.065,-101.79,158.76,149.14,-39.467,-141.61,-63.955,-186.88,4.8355,-126.98
63.094,40.987,-69.165,-68.064,-82.353,-111.19,-33.226,-101.7,158.91,149.29,-40.327,-140.25,-63.326,-186.57,4.4887,-126.45
63.39,41.519,-68.754,-67.808,-82.328,-110.84,-33.384,-101.6,159.06,149.44,-41.182,-138.89,-62.696,-186.25,4.1415,-125.93
63.39,41.519,-68.754,-67.808,-82.328,-110.84,-33.384,-101.6,159.06,149.44,-41.182,-138.89,-62.696,-186.25,4.1415,-125.93
63.684,42.049,-68.342,-67.549,-82.302,-110.49,-33.54,-101.5,159.21,149.58,-42.034,-137.53,-62.067,-185.93,3.7938,-125.41
63.684,42.049,-68.342,-67.549,-82.302,-110.49,-33.54,-101.5,159.21,149.58,-42.034,-137.53,-62.067,-185.93,3.7938,-125.41
63.976,42.578,-67.929,-67.288,-82.273,-110.14,-33.695,-101.39,159.35,149.72,-42.881,-136.18,-61.437,-185.61,3.4457,-124.88
64.266,43.105,-67.514,-67.024,-82.242,-109.78,-33.848,-101.28,159.49,149.86,-43.724,-134.83,-60.808,-185.29,3.0973,-124.36
64.266,43.105,-67.514,-67.024,-82.242,-109.78,-33.848,-101.28,159.49,149.86,-43.724,-134.83,-60.808,-185.29,3.0973,-124.36
64.266,43.105,-67.514,-67.024,-82.242,-109.78,-33.848,-101.28,159.49,149.86,-43.724,-134.83,-60.808,-185.29,3.0973,-124.36
64.553,43.631,-67.098,-66.757,-82.209,-109.42,-33.999,-101.16,159.63,149.99,-44.563,-133.49,-60.178,-184.97,2.7484,-123.83
64.553,43.631,-67.098,-66.757,-82.209,-109.42,-33.999,-101.16,159.63,149.99,-44.563,-133.49,-60.178,-184.97,2.7484,-123.83
64.839,44.155,-66.681,-66.488,-82.175,-109.07,-34.148,-101.05,159.77,150.11,-45.397,-132.14,-59.548,-184.65,2.3991,-123.31
64.839,44.155,-66.681,-66.488,-82.175,-109.07,-34.148,-101.05,159.77,150.11,-45.397,-132.14,-59.548,-184.65,2.3991,-123.31
65.122,44.678,-66.263,-66.217,-82.138,-108.7,-34.296,-100.92,159.9,150.23,-46.227,-130.8,-58.918,-184.33,2.0495,-122.78
65.402,45.199,-65.843,-65.943,-82.099,-108.34,-34.442,-100.8,160.03,150.35,-47.053,-129.46,-58.289,-184,1.6995,-122.26
65.402,45.199,-65.843,-65.943,-82.099,-108.34,-34.442,-100.8,160.03,150.35,-47.053,-129.46,-58.289,-184,1.6995,-122.26
65.402,45.199,-65.843,-65.943,-82.099,-108.34,-34.442,-100.8,160.03,150.35,-47.053,-129.46,-58.289,-184,1.6995,-122.26
65.681,45.719,-65.422,-65.666,-82.059,-107.98,-34.586,-100.67,160.16,150.47,-47.873,-128.13,-57.659,-183.68,1.3491,-121.73
65.681,45.719,-65.422,-65.666,-82.059,-107.98,-34.586,-100.67,160.16,150.47,-47.873,-128.13,-57.659,-183.68,1.3491,-121.73
65.957,46.237,-65.001,-65.388,-82.016,-107.61,-34.728,-100.54,160.29,150.57,-48.69,-126.8,-57.029,-183.35,0.99842,-121.2
65.957,46.237,-65.001,-65.388,-82.016,-107.61,-34.728,-100.54,160.29,150.57,-48.69,-126.8,-57.029,-183.35,0.99842,-121.2
66.231,46.754,-64.578,-65.107,-81.971,-107.24,-34.869,-100.4,160.42,150.68,-49.501,-125.47,-56.399,-183.02,0.64739,-120.68
66.231,46.754,-64.578,-65.107,-81.971,-107.24,-34.869,-100.4,160.42,150.68,-49.501,-125.47,-56.399,-183.02,0.64739,-120.68
66.502,47.269,-64.154,-64.823,-81.925,-106.87,-35.007,-100.26,160.54,150.78,-50.308,-124.15,-55.77,-182.69,0.29604,-120.15
66.502,47.269,-64.154,-64.823,-81.925,-106.87,-35.007,-100.26,160.54,150.78,-50.308,-124.15,-55.77,-182.69,0.29604,-120.15
66.772,47.783,-63.729,-64.537,-81.877,-106.49,-35.145,-100.12,160.67,150.88,-51.111,-122.83,-55.14,-182.37,-0.055623,-119.62
66.772,47.783,-63.729,-64.537,-81.877,-106.49,-35.145,-100.12,160.67,150.88,-51.111,-122.83,-55.14,-182.37,-0.055623,-119.62
67.039,48.295,-63.303,-64.249,-81.826,-106.12,-35.28,-99.969,160.79,150.97,-51.909,-121.51,-54.511,-182.04,-0.40758,-119.1
67.039,48.295,-63.303,-64.249,-81.826,-106.12,-35.28,-99.969,160.79,150.97,-51.909,-121.51,-54.511,-182.04,-0.40758,-119.1
67.304,48.805,-62.877,-63.959,-81.774,-105.74,-35.414,-99.819,160.9,151.06,-52.701,-120.2,-53.881,-181.71,-0.75983,-118.57
67.304,48.805,-62.877,-63.959,-81.774,-105.74,-35.414,-99.819,160.9,151.06,-52.701,-120.2,-53.881,-181.71,-0.75983,-118.57
67.567,49.314,-62.449,-63.666,-81.72,-105.36,-35.546,-99.666,161.02,151.14,-53.49,-118.89,-53.252,-181.37,-1.1124,-118.04
67.567,49.314,-62.449,-63.666,-81.72,-105.36,-35.546,-99.666,161.02,151.14,-53.49,-118.89,-53.252,-181.37,-1.1124,-118.04
67.827,49.821,-62.02,-63.371,-81.665,-104.98,-35.676,-99.509,161.13,151.22,-54.273,-117.58,-52.622,-181.04,-1.4651,-117.51
67.827,49.821,-62.02,-63.371,-81.665,-104.98,-35.676,-99.509,161.13,151.22,-54.273,-117.58,-52.622,-181.04,-1.4651,-117.51
68.085,50.326,-61.591,-63.074,-81.607,-104.6,-35.805,-99.349,161.24,151.3,-55.051,-116.28,-51.993,-180.71,-1.8182,-116.99
68.085,50.326,-61.591,-63.074,-81.607,-104.6,-35.805,-99.349,161.24,151.3,-55.051,-116.28,-51.993,-180.71,-1.8182,-116.99
68.085,50.326,-61.591,-63.074,-81.607,-104.6,-35.805,-99.349,161.24,151.3,-55.051,-116.28,-51.993,-180.71,-1.8182,-116.99
68.341,50.83,-61.161,-62.775,-81.548,-104.22,-35.932,-99.185,161.35,151.37,-55.825,-114.98,-51.364,-180.38,-2.1715,-116.46
68.341,50.83,-61.161,-62.775,-81.548,-104.22,-35.932,-99.185,161.35,151.37,-55.825,-114.98,-51.364,-180.38,-2.1715,-116.46
68.595,51.332,-60.73,-62.473,-81.487,-103.83,-36.058,-99.019,161.46,151.44,-56.593,-113.69,-50.735,-180.04,-2.525,-115.93
68.846,51.833,-60.298,-62.17,-81.424,-103.45,-36.182,-98.849,161.57,151.5,-57.357,-112.4,-50.106,-179.71,-2.8787,-115.41
68.846,51.833,-60.298,-62.17,-81.424,-103.45,-36.182,-98.849,161.57,151.5,-57.357,-112.4,-50.106,-179.71,-2.8787,-115.41
68.846,51.833,-60.298,-62.17,-81.424,-103.45,-36.182,-98.849,161.57,151.5,-57.357,-112.4,-50.106,-179.71,-2.8787,-115.41
69.095,52.332,-59.865,-61.864,-81.359,-103.06,-36.304,-98.676,161.67,151.56,-58.115,-111.11,-49.477,-179.37,-3.2326,-114.88
69.342,52.829,-59.432,-61.556,-81.293,-102.67,-36.425,-98.5,161.77,151.62,-58.869,-109.83,-48.848,-179.04,-3.5868,-114.35
69.342,52.829,-59.432,-61.556,-81.293,-102.67,-36.425,-98.5,161.77,151.62,-58.869,-109.83,-48.848,-179.04,-3.5868,-114.35
69.587,53.324,-58.998,-61.246,-81.225,-102.28,-36.544,-98.321,161.87,151.67,-59.617,-108.55,-48.22,-178.7,-3.9411,-113.83
69.587,53.324,-58.998,-61.246,-81.225,-102.28,-36.544,-98.321,161.87,151.67,-59.617,-108.55,-48.22,-178.7,-3.9411,-113.83
69.83,53.818,-58.563,-60.934,-81.155,-101.89,-36.661,-98.139,161.97,151.72,-60.361,-107.27,-47.591,-178.36,-4.2956,-113.3
69.83,53.818,-58.563,-60.934,-81.155,-101.89,-36.661,-98.139,161.97,151.72,-60.361,-107.27,-47.591,-178.36,-4.2956,-113.3
70.07,54.31,-58.128,-60.62,-81.084,-101.5,-36.777,-97.954,162.06,151.77,-61.099,-106,-46.963,-178.03,-4.6503,-112.77
70.07,54.31,-58.128,-60.62,-81.084,-101.5,-36.777,-97.954,162.06,151.77,-61.099,-106,-46.963,-178.03,-4.6503,-112.77
70.308,54.801,-57.692,-60.304,-81.011,-101.1,-36.892,-97.766,162.15,151.81,-61.832,-104.74,-46.335,-177.69,-5.0051,-112.25
70.544,55.289,-57.256,-59.986,-80.937,-100.71,-37.005,-97.575,162.24,151.85,-62.56,-103.48,-45.708,-177.35,-5.36,-111.72
70.544,55.289,-57.256,-59.986,-80.937,-100.71,-37.005,-97.575,162.24,151.85,-62.56,-103.48,-45.708,-177.35,-5.36,-111.72
70.544,55.289,-57.256,-59.986,-80.937,-100.71,-37.005,-97.575,162.24,151.85,-62.56,-103.48,-45.708,-177.35,-5.36,-111.72
70.778,55.776,-56.819,-59.666,-80.86,-100.31,-37.116,-97.381,162.33,151.88,-63.282,-102.22,-45.08,-177.01,-5.7151,-111.2
70.778,55.776,-56.819,-59.666,-80.86,-100.31,-37.116,-97.381,162.33,151.88,-63.282,-102.22,-45.08,-177.01,-5.7151,-111.2
71.009,56.261,-56.381,-59.344,-80.783,-99.911,-37.226,-97.185,162.42,151.91,-63.999,-100.97,-44.453,-176.67,-6.0703,-110.67
71.009,56.261,-56.381,-59.344,-80.783,-99.911,-37.226,-97.185,162.42,151.91,-63.999,-100.97,-44.453,-176.67,-6.0703,-110.67
71.238,56.745,-55.943,-59.02,-80.703,-99.512,-37.335,-96.986,162.5,151.94,-64.711,-99.719,-43.826,-176.33,-6.4256,-110.15
71.238,56.745,-55.943,-59.02,-80.703,-99.512,-37.335,-96.986,162.5,151.94,-64.711,-99.719,-43.826,-176.33,-6.4256,-110.15
71.465,57.227,-55.505,-58.694,-80.623,-99.111,-37.442,-96.784,162.59,151.96,-65.418,-98.475,-43.199,-175.99,-6.7809,-109.62
71.465,57.227,-55.505,-58.694,-80.623,-99.111,-37.442,-96.784,162.59,151.96,-65.418,-98.475,-43.199,-175.99,-6.7809,-109.62
71.465,57.227,-55.505,-58.694,-80.623,-99.111,-37.442,-96.784,162.59,151.96,-65.418,-98.475,-43.199,-175.99,-6.7809,-109.62
71.69,57.707,-55.066,-58.366,-80.54,-98.71,-37.548,-96.579,162.67,151.98,-66.119,-97.236,-42.572,-175.65,-7.1364,-109.1
71.69,57.707,-55.066,-58.366,-80.54,-98.71,-37.548,-96.579,162.67,151.98,-66.119,-97.236,-42.572,-175.65,-7.1364,-109.1
71.913,58.185,-54.626,-58.037,-80.456,-98.308,-37.652,-96.372,162.75,152,-66.815,-96.002,-41.946,-175.31,-7.4919,-108.58
71.913,58.185,-54.626,-58.037,-80.456,-98.308,-37.652,-96.372,162.75,152,-66.815,-96.002,-41.946,-175.31,-7.4919,-108.58
72.133,58.661,-54.186,-57.705,-80.371,-97.905,-37.755,-96.162,162.82,152.01,-67.506,-94.772,-41.319,-174.97,-7.8475,-108.05
72.351,59.136,-53.746,-57.372,-80.284,-97.501,-37.856,-95.949,162.9,152.02,-68.191,-93.547,-40.694,-174.63,-8.2031,-107.53
72.567,59.609,-53.306,-57.037,-80.196,-97.096,-37.956,-95.734,162.97,152.03,-68.87,-92.326,-40.068,-174.29,-8.5588,-107.01
72.567,59.609,-53.306,-57.037,-80.196,-97.096,-37.956,-95.734,162.97,152.03,-68.87,-92.326,-40.068,-174.29,-8.5588,-107.01
72.567,59.609,-53.306,-57.037,-80.196,-97.096,-37.956,-95.734,162.97,152.03,-68.87,-92.326,-40.068,-174.29,-8.5588,-107.01
72.781,60.08,-52.865,-56.7,-80.106,-96.691,-38.055,-95.517,163.04,152.03,-69.544,-91.111,-39.443,-173.95,-8.9145,-106.49
72.781,60.08,-52.865,-56.7,-80.106,-96.691,-38.055,-95.517,163.04,152.03,-69.544,-91.111,-39.443,-173.95,-8.9145,-106.49
72.993,60.549,-52.424,-56.361,-80.015,-96.284,-38.152,-95.297,163.11,152.03,-70.213,-89.9,-38.818,-173.61,-9.2702,-105.97
72.993,60.549,-52.424,-56.361,-80.015,-96.284,-38.152,-95.297,163.11,152.03,-70.213,-89.9,-38.818,-173.61,-9.2702,-105.97
73.202,61.017,-51.983,-56.021,-79.923,-95.877,-38.248,-95.074,163.18,152.03,-70.876,-88.695,-38.193,-173.27,-9.6258,-105.45
73.202,61.017,-51.983,-56.021,-79.923,-95.877,-38.248,-95.074,163.18,152.03,-70.876,-88.695,-38.193,-173.27,-9.6258,-105.45
73.41,61.482,-51.541,-55.679,-79.829,-95.47,-38.343,-94.849,163.24,152.02,-71.533,-87.494,-37.569,-172.93,-9.9815,-104.93
73.41,61.482,-51.541,-55.679,-79.829,-95.47,-38.343,-94.849,163.24,152.02,-71.533,-87.494,-37.569,-172.93,-9.9815,-104.93
73.615,61.946,-51.1,-55.335,-79.733,-95.061,-38.436,-94.622,163.3,152.01,-72.185,-86.298,-36.944,-172.58,-10.337,-104.41
73.615,61.946,-51.1,-55.335,-79.733,-95.061,-38.436,-94.622,163.3,152.01,-72.185,-86.298,-36.944,-172.58,-10.337,-104.41
73.818,62.408,-50.658,-54.99,-79.637,-94.652,-38.528,-94.393,163.36,152,-72.831,-85.107,-36.321,-172.24,-10.693,-103.89
73.818,62.408,-50.658,-54.99,-79.637,-94.652,-38.528,-94.393,163.36,152,-72.831,-85.107,-36.321,-172.24,-10.693,-103.89
74.019,62.868,-50.216,-54.643,-79.539,-94.242,-38.619,-94.161,163.42,151.98,-73.471,-83.922,-35.697,-171.9,-11.048,-103.38
74.019,62.868,-50.216,-54.643,-79.539,-94.242,-38.619,-94.161,163.42,151.98,-73.471,-83.922,-35.697,-171.9,-11.048,-103.38
74.217,63.326,-49.774,-54.294,-79.44,-93.832,-38.709,-93.927,163.48,151.96,-74.106,-82.741,-35.074,-171.56,-11.404,-102.86
74.217,63.326,-49.774,-54.294,-79.44,-93.832,-38.709,-93.927,163.48,151.96,-74.106,-82.741,-35.074,-171.56,-11.404,-102.86
74.414,63.783,-49.331,-53.944,-79.339,-93.422,-38.797,-93.691,163.54,151.94,-74.735,-81.566,-34.451,-171.22,-11.759,-102.35
74.414,63.783,-49.331,-53.944,-79.339,-93.422,-38.797,-93.691,163.54,151.94,-74.735,-81.566,-34.451,-171.22,-11.759,-102.35
74.608,64.237,-48.889,-53.592,-79.238,-93.01,-38.884,-93.453,163.59,151.91,-75.359,-80.396,-33.829,-170.87,-12.114,-101.83
74.608,64.237,-48.889,-53.592,-79.238,-93.01,-38.884,-93.453,163.59,151.91,-75.359,-80.396,-33.829,-170.87,-12.114,-101.83
74.801,64.69,-48.447,-53.238,-79.135,-92.599,-38.97,-93.213,163.64,151.88,-75.976,-79.231,-33.207,-170.53,-12.47,-101.32
74.801,64.69,-48.447,-53.238,-79.135,-92.599,-38.97,-93.213,163.64,151.88,-75.976,-79.231,-33.207,-170.53,-12.47,-101.32
74.991,65.141,-48.004,-52.883,-79.03,-92.187,-39.055,-92.971,163.69,151.85,-76.588,-78.071,-32.585,-170.19,-12.825,-100.81
74.991,65.141,-48.004,-52.883,-79.03,-92.187,-39.055,-92.971,163.69,151.85,-76.588,-78.071,-32.585,-170.19,-12.825,-100.81
75.179,65.59,-47.562,-52.527,-78.925,-91.775,-39.139,-92.726,163.74,151.81,-77.194,-76.917,-31.964,-169.85,-13.18,-100.3
75.179,65.59,-47.562,-52.527,-78.925,-91.775,-39.139,-92.726,163.74,151.81,-77.194,-76.917,-31.964,-169.85,-13.18,-100.3
75.365,66.037,-47.12,-52.169,-78.818,-91.362,-39.221,-92.48,163.78,151.78,-77.795,-75.768,-31.343,-169.51,-13.534,-99.785
75.365,66.037,-47.12,-52.169,-78.818,-91.362,-39.221,-92.48,163.78,151.78,-77.795,-75.768,-31.343,-169.51,-13.534,-99.785
75.549,66.482,-46.677,-51.809,-78.711,-90.949,-39.302,-92.232,163.83,151.73,-78.389,-74.624,-30.723,-169.17,-13.889,-99.275
75.73,66.925,-46.235,-51.448,-78.602,-90.536,-39.383,-91.982,163.87,151.69,-78.978,-73.486,-30.102,-168.83,-14.244,-98.767
75.73,66.925,-46.235,-51.448,-78.602,-90.536,-39.383,-91.982,163.87,151.69,-78.978,-73.486,-30.102,-168.83,-14.244,-98.767
75.73,66.925,-46.235,-51.448,-78.602,-90.536,-39.383,-91.982,163.87,151.69,-78.978,-73.486,-30.102,-168.83,-14.244,-98.767
75.91,67.366,-45.793,-51.086,-78.492,-90.123,-39.462,-91.73,163.91,151.64,-79.561,-72.353,-29.483,-168.49,-14.598,-98.26
75.91,67.366,-45.793,-51.086,-78.492,-90.123,-39.462,-91.73,163.91,151.64,-79.561,-72.353,-29.483,-168.49,-14.598,-98.26
76.088,67.806,-45.351,-50.722,-78.381,-89.71,-39.54,-91.476,163.95,151.59,-80.138,-71.226,-28.863,-168.14,-14.952,-97.753
76.088,67.806,-45.351,-50.722,-78.381,-89.71,-39.54,-91.476,163.95,151.59,-80.138,-71.226,-28.863,-168.14,-14.952,-97.753
76.263,68.243,-44.909,-50.357,-78.269,-89.296,-39.617,-91.221,163.98,151.54,-80.709,-70.105,-28.244,-167.8,-15.306,-97.248
76.263,68.243,-44.909,-50.357,-78.269,-89.296,-39.617,-91.221,163.98,151.54,-80.709,-70.105,-28.244,-167.8,-15.306,-97.248
76.436,68.678,-44.467,-49.99,-78.155,-88.883,-39.693,-90.963,164.02,151.48,-81.274,-68.989,-27.626,-167.46,-15.66,-96.744
76.436,68.678,-44.467,-49.99,-78.155,-88.883,-39.693,-90.963,164.02,151.48,-81.274,-68.989,-27.626,-167.46,-15.66,-96.744
76.608,69.112,-44.026,-49.623,-78.041,-88.469,-39.767,-90.704,164.05,151.42,-81.833,-67.878,-27.008,-167.12,-16.013,-96.241
76.608,69.112,-44.026,-49.623,-78.041,-88.469,-39.767,-90.704,164.05,151.42,-81.833,-67.878,-27.008,-167.12,-16.013,-96.241
76.608,69.112,-44.026,-49.623,-78.041,-88.469,-39.767,-90.704,164.05,151.42,-81.833,-67.878,-27.008,-167.12,-16.013,-96.241
76.777,69.543,-43.584,-49.253,-77.926,-88.056,-39.841,-90.444,164.08,151.36,-82.386,-66.774,-26.39,-166.78,-16.366,-95.739
76.944,69.973,-43.143,-48.883,-77.809,-87.642,-39.914,-90.182,164.11,151.29,-82.934,-65.674,-25.773,-166.44,-16.719,-95.238
76.944,69.973,-43.143,-48.883,-77.809,-87.642,-39.914,-90.182,164.11,151.29,-82.934,-65.674,-25.773,-166.44,-16.719,-95.238
77.109,70.401,-42.702,-48.511,-77.692,-87.229,-39.986,-89.918,164.14,151.23,-83.475,-64.581,-25.156,-166.11,-17.072,-94.739
77.109,70.401,-42.702,-48.511,-77.692,-87.229,-39.986,-89.918,164.14,151.23,-83.475,-64.581,-25.156,-166.11,-17.072,-94.739
77.109,70.401,-42.702,-48.511,-77.692,-87.229,-39.986,-89.918,164.14,151.23,-83.475,-64.581,-25.156,-166.11,-17.072,-94.739
77.272,70.826,-42.262,-48.138,-77.574,-86.815,-40.057,-89.652,164.16,151.16,-84.01,-63.493,-24.54,-165.77,-17.425,-94.241
77.433,71.25,-41.822,-47.764,-77.455,-86.402,-40.127,-89.386,164.18,151.08,-84.54,-62.412,-23.924,-165.43,-17.777,-93.744
77.433,71.25,-41.822,-47.764,-77.455,-86.402,-40.127,-89.386,164.18,151.08,-84.54,-62.412,-23.924,-165.43,-17.777,-93.744
77.593,71.672,-41.382,-47.388,-77.334,-85.989,-40.196,-89.117,164.21,151.01,-85.063,-61.336,-23.309,-165.09,-18.129,-93.248
77.593,71.672,-41.382,-47.388,-77.334,-85.989,-40.196,-89.117,164.21,151.01,-85.063,-61.336,-23.309,-165.09,-18.129,-93.248
77.75,72.091,-40.942,-47.012,-77.213,-85.576,-40.265,-88.847,164.23,150.93,-85.58,-60.265,-22.694,-164.75,-18.48,-92.754
77.75,72.091,-40.942,-47.012,-77.213,-85.576,-40.265,-88.847,164.23,150.93,-85.58,-60.265,-22.694,-164.75,-18.48,-92.754
77.75,72.091,-40.942,-47.012,-77.213,-85.576,-40.265,-88.847,164.23,150.93,-85.58,-60.265,-22.694,-164.75,-18.48,-92.754
77.905,72.509,-40.503,-46.634,-77.091,-85.164,-40.332,-88.576,164.25,150.85,-86.092,-59.201,-22.079,-164.41,-18.831,-92.261
78.058,72.925,-40.064,-46.255,-76.968,-84.751,-40.398,-88.304,164.26,150.76,-86.597,-58.142,-21.465,-164.08,-19.182,-91.77
78.058,72.925,-40.064,-46.255,-76.968,-84.751,-40.398,-88.304,164.26,150.76,-86.597,-58.142,-21.465,-164.08,-19.182,-91.77
78.209,73.338,-39.626,-45.875,-76.845,-84.339,-40.464,-88.03,164.28,150.68,-87.096,-57.09,-20.851,-163.74,-19.533,-91.279
78.209,73.338,-39.626,-45.875,-76.845,-84.339,-40.464,-88.03,164.28,150.68,-87.096,-57.09,-20.851,-163.74,-19.533,-91.279
78.358,73.75,-39.188,-45.494,-76.72,-83.928,-40.529,-87.755,164.29,150.59,-87.589,-56.043,-20.238,-163.41,-19.883,-90.791
78.358,73.75,-39.188,-45.494,-76.72,-83.928,-40.529,-87.755,164.29,150.59,-87.589,-56.043,-20.238,-163.41,-19.883,-90.791
78.505,74.16,-38.75,-45.111,-76.595,-83.517,-40.593,-87.479,164.3,150.49,-88.076,-55.003,-19.626,-163.07,-20.232,-90.303
78.505,74.16,-38.75,-45.111,-76.595,-83.517,-40.593,-87.479,164.3,150.49,-88.076,-55.003,-19.626,-163.07,-20.232,-90.303
78.65,74.567,-38.313,-44.728,-76.469,-83.106,-40.656,-87.201,164.31,150.4,-88.557,-53.968,-19.014,-162.73,-20.582,-89.818
78.65,74.567,-38.313,-44.728,-76.469,-83.106,-40.656,-87.201,164.31,150.4,-88.557,-53.968,-19.014,-162.73,-20.582,-89.818
78.793,74.973,-37.876,-44.343,-76.342,-82.696,-40.719,-86.922,164.32,150.3,-89.032,-52.939,-18.402,-162.4,-20.931,-89.333
78.793,74.973,-37.876,-44.343,-76.342,-82.696,-40.719,-86.922,164.32,150.3,-89.032,-52.939,-18.402,-162.4,-20.931,-89.333
78.934,75.376,-37.44,-43.958,-76.214,-82.286,-40.78,-86.643,164.33,150.2,-89.501,-51.917,-17.791,-162.07,-21.279,-88.851
78.934,75.376,-37.44,-43.958,-76.214,-82.286,-40.78,-86.643,164.33,150.2,-89.501,-51.917,-17.791,-162.07,-21.279,-88.851
79.073,75.778,-37.005,-43.572,-76.085,-81.877,-40.841,-86.362,164.33,150.1,-89.964,-50.9,-17.18,-161.73,-21.627,-88.369
79.073,75.778,-37.005,-43.572,-76.085,-81.877,-40.841,-86.362,164.33,150.1,-89.964,-50.9,-17.18,-161.73,-21.627,-88.369
79.21,76.177,-36.57,-43.184,-75.956,-81.468,-40.902,-86.08,164.34,150,-90.42,-49.89,-16.57,-161.4,-21.975,-87.89
79.21,76.177,-36.57,-43.184,-75.956,-81.468,-40.902,-86.08,164.34,150,-90.42,-49.89,-16.57,-161.4,-21.975,-87.89
79.345,76.574,-36.135,-42.796,-75.826,-81.06,-40.961,-85.797,164.34,149.89,-90.871,-48.886,-15.96,-161.07,-22.322,-87.411
79.345,76.574,-36.135,-42.796,-75.826,-81.06,-40.961,-85.797,164.34,149.89,-90.871,-48.886,-15.96,-161.07,-22.322,-87.411
79.479,76.97,-35.701,-42.407,-75.696,-80.652,-41.02,-85.513,164.34,149.78,-91.315,-47.887,-15.351,-160.74,-22.669,-86.935
79.479,76.97,-35.701,-42.407,-75.696,-80.652,-41.02,-85.513,164.34,149.78,-91.315,-47.887,-15.351,-160.74,-22.669,-86.935
79.61,77.363,-35.268,-42.016,-75.564,-80.246,-41.078,-85.228,164.34,149.67,-91.753,-46.895,-14.743,-160.4,-23.015,-86.46
79.61,77.363,-35.268,-42.016,-75.564,-80.246,-41.078,-85.228,164.34,149.67,-91.753,-46.895,-14.743,-160.4,-23.015,-86.46
79.61,77.363,-35.268,-42.016,-75.564,-80.246,-41.078,-85.228,164.34,149.67,-91.753,-46.895,-14.743,-160.4,-23.015,-86.46
79.74,77.754,-34.835,-41.625,-75.432,-79.84,-41.136,-84.943,164.33,149.55,-92.185,-45.91,-14.134,-160.07,-23.361,-85.987
79.74,77.754,-34.835,-41.625,-75.432,-79.84,-41.136,-84.943,164.33,149.55,-92.185,-45.91,-14.134,-160.07,-23.361,-85.987
79.867,78.143,-34.403,-41.233,-75.3,-79.434,-41.193,-84.656,164.33,149.44,-92.611,-44.93,-13.527,-159.74,-23.706,-85.515
79.867,78.143,-34.403,-41.233,-75.3,-79.434,-41.193,-84.656,164.33,149.44,-92.611,-44.93,-13.527,-159.74,-23.706,-85.515
79.993,78.53,-33.972,-40.841,-75.167,-79.03,-41.25,-84.369,164.32,149.32,-93.031,-43.957,-12.92,-159.42,-24.051,-85.046
80.117,78.914,-33.541,-40.447,-75.033,-78.626,-41.305,-84.08,164.31,149.2,-93.444,-42.99,-12.313,-159.09,-24.395,-84.577
80.117,78.914,-33.541,-40.447,-75.033,-78.626,-41.305,-84.08,164.31,149.2,-93.444,-42.99,-12.313,-159.09,-24.395,-84.577
80.239,79.297,-33.111,-40.052,-74.899,-78.223,-41.361,-83.791,164.3,149.07,-93.851,-42.029,-11.707,-158.76,-24.739,-84.111
80.359,79.677,-32.681,-39.657,-74.764,-77.821,-41.416,-83.502,164.29,148.95,-94.253,-41.074,-11.102,-158.43,-25.082,-83.647
80.359,79.677,-32.681,-39.657,-74.764,-77.821,-41.416,-83.502,164.29,148.95,-94.253,-41.074,-11.102,-158.43,-25.082,-83.647
80.359,79.677,-32.681,-39.657,-74.764,-77.821,-41.416,-83.502,164.29,148.95,-94.253,-41.074,-11.102,-158.43,-25.082,-83.647
80.477,80.056,-32.253,-39.261,-74.628,-77.42,-41.47,-83.212,164.28,148.82,-94.647,-40.126,-10.497,-158.11,-25.424,-83.184
80.477,80.056,-32.253,-39.261,-74.628,-77.42,-41.47,-83.212,164.28,148.82,-94.647,-40.126,-10.497,-158.11,-25.424,-83.184
80.593,80.432,-31.825,-38.864,-74.492,-77.02,-41.524,-82.921,164.27,148.69,-95.036,-39.184,-9.8923,-157.78,-25.766,-82.723
80.593,80.432,-31.825,-38.864,-74.492,-77.02,-41.524,-82.921,164.27,148.69,-95.036,-39.184,-9.8923,-157.78,-25.766,-82.723
80.708,80.806,-31.398,-38.467,-74.356,-76.62,-41.577,-82.629,164.25,148.56,-95.419,-38.248,-9.2884,-157.46,-26.107,-82.264
80.708,80.806,-31.398,-38.467,-74.356,-76.62,-41.577,-82.629,164.25,148.56,-95.419,-38.248,-9.2884,-157.46,-26.107,-82.264
80.82,81.178,-30.971,-38.069,-74.219,-76.222,-41.63,-82.337,164.23,148.42,-95.795,-37.319,-8.685,-157.13,-26.448,-81.806
80.82,81.178,-30.971,-38.069,-74.219,-76.222,-41.63,-82.337,164.23,148.42,-95.795,-37.319,-8.685,-157.13,-26.448,-81.806
80.931,81.548,-30.546,-37.67,-74.081,-75.825,-41.682,-82.044,164.22,148.28,-96.166,-36.396,-8.0822,-156.81,-26.788,-81.351
80.931,81.548,-30.546,-37.67,-74.081,-75.825,-41.682,-82.044,164.22,148.28,-96.166,-36.396,-8.0822,-156.81,-26.788,-81.351
81.04,81.915,-30.121,-37.271,-73.943,-75.429,-41.734,-81.751,164.2,148.14,-96.53,-35.48,-7.4799,-156.49,-27.127,-80.897
81.04,81.915,-30.121,-37.271,-73.943,-75.429,-41.734,-81.751,164.2,148.14,-96.53,-35.48,-7.4799,-156.49,-27.127,-80.897
81.147,82.281,-29.697,-36.87,-73.805,-75.034,-41.785,-81.458,164.17,148,-96.887,-34.57,-6.8782,-156.16,-27.466,-80.445
81.147,82.281,-29.697,-36.87,-73.805,-75.034,-41.785,-81.458,164.17,148,-96.887,-34.57,-6.8782,-156.16,-27.466,-80.445
81.252,82.644,-29.274,-36.47,-73.666,-74.64,-41.837,-81.163,164.15,147.86,-97.239,-33.666,-6.277,-155.84,-27.804,-79.996
81.252,82.644,-29.274,-36.47,-73.666,-74.64,-41.837,-81.163,164.15,147.86,-97.239,-33.666,-6.277,-155.84,-27.804,-79.996
81.356,83.005,-28.852,-36.068,-73.527,-74.247,-41.887,-80.869,164.13,147.71,-97.585,-32.769,-5.6763,-155.52,-28.142,-79.548
81.458,83.364,-28.43,-35.666,-73.388,-73.855,-41.938,-80.574,164.1,147.57,-97.924,-31.878,-5.0762,-155.2,-28.478,-79.102
81.458,83.364,-28.43,-35.666,-73.388,-73.855,-41.938,-80.574,164.1,147.57,-97.924,-31.878,-5.0762,-155.2,-28.478,-79.102
