-0.85351,-0.18009,-16.961,56.01,-36.088,-1.6118,-57.978,29.584,13.567,54.448,65.72,18.083,70.435,29.958,61.385,-20.635
-0.7746,-0.25383,-17.054,56.108,-36.352,-1.6581,-58.4,29.751,13.616,54.488,65.987,17.963,70.514,30.141,61.511,-20.736
-0.69647,-0.32832,-17.148,56.204,-36.615,-1.7042,-58.82,29.917,13.664,54.526,66.251,17.842,70.593,30.322,61.635,-20.838
-0.69647,-0.32832,-17.148,56.204,-36.615,-1.7042,-58.82,29.917,13.664,54.526,66.251,17.842,70.593,30.322,61.635,-20.838
-0.69647,-0.32832,-17.148,56.204,-36.615,-1.7042,-58.82,29.917,13.664,54.526,66.251,17.842,70.593,30.322,61.635,-20.838
-0.61912,-0.40354,-17.242,56.298,-36.877,-1.7501,-59.24,30.081,13.711,54.563,66.514,17.72,70.67,30.501,61.757,-20.94
-0.61912,-0.40354,-17.242,56.298,-36.877,-1.7501,-59.24,30.081,13.711,54.563,66.514,17.72,70.67,30.501,61.757,-20.94
-0.54254,-0.47951,-17.336,56.39,-37.137,-1.7959,-59.658,30.244,13.758,54.597,66.774,17.597,70.746,30.679,61.876,-21.043
-0.54254,-0.47951,-17.336,56.39,-37.137,-1.7959,-59.658,30.244,13.758,54.597,66.774,17.597,70.746,30.679,61.876,-21.043
-0.46675,-0.55622,-17.43,56.48,-37.397,-1.8415,-60.075,30.406,13.804,54.628,67.032,17.472,70.821,30.855,61.994,-21.145
-0.46675,-0.55622,-17.43,56.48,-37.397,-1.8415,-60.075,30.406,13.804,54.628,67.032,17.472,70.821,30.855,61.994,-21.145
-0.39175,-0.63369,-17.524,56.569,-37.655,-1.8869,-60.491,30.566,13.85,54.658,67.287,17.346,70.895,31.029,62.109,-21.247
-0.31754,-0.71191,-17.618,56.655,-37.912,-1.9322,-60.905,30.724,13.896,54.686,67.541,17.219,70.967,31.201,62.222,-21.35
-0.31754,-0.71191,-17.618,56.655,-37.912,-1.9322,-60.905,30.724,13.896,54.686,67.541,17.219,70.967,31.201,62.222,-21.35
-0.31754,-0.71191,-17.618,56.655,-37.912,-1.9322,-60.905,30.724,13.896,54.686,67.541,17.219,70.967,31.201,62.222,-21.35
-0.24413,-0.79089,-17.713,56.74,-38.167,-1.9773,-61.319,30.881,13.941,54.712,67.792,17.091,71.038,31.372,62.333,-21.453
-0.24413,-0.79089,-17.713,56.74,-38.167,-1.9773,-61.319,30.881,13.941,54.712,67.792,17.091,71.038,31.372,62.333,-21.453
-0.17152,-0.87063,-17.807,56.822,-38.421,-2.0222,-61.731,31.037,13.985,54.736,68.041,16.962,71.108,31.541,62.442,-21.556
-0.17152,-0.87063,-17.807,56.822,-38.421,-2.0222,-61.731,31.037,13.985,54.736,68.041,16.962,71.108,31.541,62.442,-21.556
-0.17152,-0.87063,-17.807,56.822,-38.421,-2.0222,-61.731,31.037,13.985,54.736,68.041,16.962,71.108,31.541,62.442,-21.556
-0.17152,-0.87063,-17.807,56.822,-38.421,-2.0222,-61.731,31.037,13.985,54.736,68.041,16.962,71.108,31.541,62.442,-21.556
-0.028712,-1.0324,-17.997,56.982,-38.926,-2.1117,-62.551,31.344,14.072,54.777,68.532,16.7,71.245,31.875,62.653,-21.762
0.041482,-1.1144,-18.092,57.059,-39.176,-2.1562,-62.959,31.495,14.116,54.795,68.774,16.568,71.312,32.039,62.755,-21.865
0.041482,-1.1144,-18.092,57.059,-39.176,-2.1562,-62.959,31.495,14.116,54.795,68.774,16.568,71.312,32.039,62.755,-21.865
0.11086,-1.1973,-18.187,57.134,-39.426,-2.2005,-63.367,31.645,14.158,54.811,69.014,16.434,71.377,32.201,62.856,-21.968
0.11086,-1.1973,-18.187,57.134,-39.426,-2.2005,-63.367,31.645,14.158,54.811,69.014,16.434,71.377,32.201,62.856,-21.968
0.11086,-1.1973,-18.187,57.134,-39.426,-2.2005,-63.367,31.645,14.158,54.811,69.014,16.434,71.377,32.201,62.856,-21.968
0.17943,-1.2808,-18.282,57.208,-39.674,-2.2447,-63.772,31.793,14.2,54.825,69.251,16.3,71.441,32.362,62.954,-22.071
0.17943,-1.2808,-18.282,57.208,-39.674,-2.2447,-63.772,31.793,14.2,54.825,69.251,16.3,71.441,32.362,62.954,-22.071
0.24718,-1.3652,-18.378,57.279,-39.92,-2.2888,-64.177,31.94,14.242,54.836,69.487,16.164,71.505,32.521,63.05,-22.175
0.24718,-1.3652,-18.378,57.279,-39.92,-2.2888,-64.177,31.94,14.242,54.836,69.487,16.164,71.505,32.521,63.05,-22.175
0.31412,-1.4504,-18.473,57.349,-40.166,-2.3327,-64.58,32.085,14.284,54.846,69.72,16.027,71.567,32.679,63.145,-22.278
0.31412,-1.4504,-18.473,57.349,-40.166,-2.3327,-64.58,32.085,14.284,54.846,69.72,16.027,71.567,32.679,63.145,-22.278
0.31412,-1.4504,-18.473,57.349,-40.166,-2.3327,-64.58,32.085,14.284,54.846,69.72,16.027,71.567,32.679,63.145,-22.278
0.38023,-1.5363,-18.569,57.416,-40.41,-2.3765,-64.982,32.229,14.325,54.854,69.951,15.889,71.628,32.835,63.237,-22.382
0.38023,-1.5363,-18.569,57.416,-40.41,-2.3765,-64.982,32.229,14.325,54.854,69.951,15.889,71.628,32.835,63.237,-22.382
0.38023,-1.5363,-18.569,57.416,-40.41,-2.3765,-64.982,32.229,14.325,54.854,69.951,15.889,71.628,32.835,63.237,-22.382
0.51,-1.7105,-18.76,57.546,-40.895,-2.4637,-65.781,32.511,14.405,54.864,70.406,15.611,71.748,33.142,63.416,-22.589
0.51,-1.7105,-18.76,57.546,-40.895,-2.4637,-65.781,32.511,14.405,54.864,70.406,15.611,71.748,33.142,63.416,-22.589
0.51,-1.7105,-18.76,57.546,-40.895,-2.4637,-65.781,32.511,14.405,54.864,70.406,15.611,71.748,33.142,63.416,-22.589
0.57365,-1.7988,-18.856,57.608,-41.136,-2.5071,-66.179,32.651,14.445,54.866,70.63,15.47,71.806,33.292,63.502,-22.693
0.63647,-1.8878,-18.952,57.668,-41.375,-2.5504,-66.575,32.788,14.485,54.866,70.852,15.329,71.863,33.442,63.586,-22.797
0.69847,-1.9777,-19.047,57.727,-41.613,-2.5936,-66.97,32.924,14.524,54.864,71.072,15.186,71.919,33.589,63.669,-22.901
0.69847,-1.9777,-19.047,57.727,-41.613,-2.5936,-66.97,32.924,14.524,54.864,71.072,15.186,71.919,33.589,63.669,-22.901
0.75964,-2.0684,-19.143,57.783,-41.85,-2.6366,-67.363,33.058,14.563,54.861,71.29,15.043,71.974,33.735,63.749,-23.005
0.75964,-2.0684,-19.143,57.783,-41.85,-2.6366,-67.363,33.058,14.563,54.861,71.29,15.043,71.974,33.735,63.749,-23.005
0.75964,-2.0684,-19.143,57.783,-41.85,-2.6366,-67.363,33.058,14.563,54.861,71.29,15.043,71.974,33.735,63.749,-23.005
0.81998,-2.1598,-19.239,57.838,-42.085,-2.6795,-67.756,33.191,14.601,54.855,71.505,14.899,72.028,33.879,63.828,-23.109
0.81998,-2.1598,-19.239,57.838,-42.085,-2.6795,-67.756,33.191,14.601,54.855,71.505,14.899,72.028,33.879,63.828,-23.109
0.81998,-2.1598,-19.239,57.838,-42.085,-2.6795,-67.756,33.191,14.601,54.855,71.505,14.899,72.028,33.879,63.828,-23.109
0.8795,-2.2521,-19.335,57.891,-42.32,-2.7223,-68.146,33.323,14.639,54.848,71.718,14.754,72.082,34.022,63.905,-23.213
0.93819,-2.3451,-19.432,57.942,-42.553,-2.765,-68.535,33.452,14.677,54.839,71.929,14.608,72.134,34.163,63.979,-23.317
0.99606,-2.439,-19.528,57.991,-42.785,-2.8076,-68.923,33.58,14.715,54.827,72.137,14.461,72.186,34.303,64.052,-23.422
0.99606,-2.439,-19.528,57.991,-42.785,-2.8076,-68.923,33.58,14.715,54.827,72.137,14.461,72.186,34.303,64.052,-23.422
0.99606,-2.439,-19.528,57.991,-42.785,-2.8076,-68.923,33.58,14.715,54.827,72.137,14.461,72.186,34.303,64.052,-23.422
1.0531,-2.5336,-19.624,58.038,-43.016,-2.8501,-69.309,33.707,14.752,54.814,72.344,14.314,72.237,34.44,64.124,-23.526
1.0531,-2.5336,-19.624,58.038,-43.016,-2.8501,-69.309,33.707,14.752,54.814,72.344,14.314,72.237,34.44,64.124,-23.526
1.0531,-2.5336,-19.624,58.038,-43.016,-2.8501,-69.309,33.707,14.752,54.814,72.344,14.314,72.237,34.44,64.124,-23.526
1.1093,-2.6291,-19.72,58.084,-43.245,-2.8924,-69.694,33.832,14.789,54.8,72.548,14.165,72.286,34.577,64.193,-23.63
1.1093,-2.6291,-19.72,58.084,-43.245,-2.8924,-69.694,33.832,14.789,54.8,72.548,14.165,72.286,34.577,64.193,-23.63
1.2192,-2.8223,-19.912,58.169,-43.701,-2.9768,-70.459,34.077,14.862,54.764,72.949,13.866,72.383,34.844,64.326,-23.839
1.2192,-2.8223,-19.912,58.169,-43.701,-2.9768,-70.459,34.077,14.862,54.764,72.949,13.866,72.383,34.844,64.326,-23.839
1.2192,-2.8223,-19.912,58.169,-43.701,-2.9768,-70.459,34.077,14.862,54.764,72.949,13.866,72.383,34.844,64.326,-23.839
1.273,-2.9202,-20.008,58.21,-43.927,-3.0189,-70.839,34.197,14.898,54.744,73.147,13.716,72.431,34.975,64.39,-23.943
1.273,-2.9202,-20.008,58.21,-43.927,-3.0189,-70.839,34.197,14.898,54.744,73.147,13.716,72.431,34.975,64.39,-23.943
1.273,-2.9202,-20.008,58.21,-43.927,-3.0189,-70.839,34.197,14.898,54.744,73.147,13.716,72.431,34.975,64.39,-23.943
1.378,-3.1183,-20.201,58.285,-44.375,-3.1027,-71.594,34.432,14.97,54.698,73.535,13.412,72.523,35.233,64.512,-24.152
1.378,-3.1183,-20.201,58.285,-44.375,-3.1027,-71.594,34.432,14.97,54.698,73.535,13.412,72.523,35.233,64.512,-24.152
1.378,-3.1183,-20.201,58.285,-44.375,-3.1027,-71.594,34.432,14.97,54.698,73.535,13.412,72.523,35.233,64.512,-24.152
1.4293,-3.2185,-20.297,58.319,-44.598,-3.1444,-71.97,34.547,15.005,54.673,73.726,13.26,72.568,35.36,64.571,-24.257
1.4293,-3.2185,-20.297,58.319,-44.598,-3.1444,-71.97,34.547,15.005,54.673,73.726,13.26,72.568,35.36,64.571,-24.257
1.4293,-3.2185,-20.297,58.319,-44.598,-3.1444,-71.97,34.547,15.005,54.673,73.726,13.26,72.568,35.36,64.571,-24.257
1.4797,-3.3196,-20.393,58.352,-44.819,-3.1861,-72.344,34.661,15.041,54.645,73.915,13.106,72.612,35.485,64.628,-24.361
1.4797,-3.3196,-20.393,58.352,-44.819,-3.1861,-72.344,34.661,15.041,54.645,73.915,13.106,72.612,35.485,64.628,-24.361
1.5294,-3.4214,-20.489,58.384,-45.039,-3.2276,-72.716,34.773,15.076,54.616,74.101,12.952,72.656,35.608,64.683,-24.466
1.5294,-3.4214,-20.489,58.384,-45.039,-3.2276,-72.716,34.773,15.076,54.616,74.101,12.952,72.656,35.608,64.683,-24.466
1.5294,-3.4214,-20.489,58.384,-45.039,-3.2276,-72.716,34.773,15.076,54.616,74.101,12.952,72.656,35.608,64.683,-24.466
1.6262,-3.6276,-20.681,58.441,-45.475,-3.3105,-73.456,34.992,15.145,54.553,74.467,12.642,72.741,35.85,64.788,-24.675
1.6262,-3.6276,-20.681,58.441,-45.475,-3.3105,-73.456,34.992,15.145,54.553,74.467,12.642,72.741,35.85,64.788,-24.675
1.6262,-3.6276,-20.681,58.441,-45.475,-3.3105,-73.456,34.992,15.145,54.553,74.467,12.642,72.741,35.85,64.788,-24.675
1.6734,-3.7318,-20.777,58.467,-45.692,-3.3517,-73.823,35.099,15.18,54.518,74.647,12.486,72.782,35.968,64.838,-24.779
1.7198,-3.8369,-20.873,58.491,-45.907,-3.3929,-74.189,35.204,15.214,54.482,74.825,12.33,72.823,36.085,64.887,-24.884
1.7654,-3.9427,-20.968,58.514,-46.121,-3.4341,-74.553,35.308,15.248,54.445,75,12.173,72.863,36.201,64.934,-24.989
1.7654,-3.9427,-20.968,58.514,-46.121,-3.4341,-74.553,35.308,15.248,54.445,75,12.173,72.863,36.201,64.934,-24.989
1.8101,-4.0494,-21.064,58.535,-46.334,-3.4751,-74.915,35.41,15.282,54.405,75.174,12.016,72.902,36.315,64.979,-25.093
1.8101,-4.0494,-21.064,58.535,-46.334,-3.4751,-74.915,35.41,15.282,54.405,75.174,12.016,72.902,36.315,64.979,-25.093
1.8101,-4.0494,-21.064,58.535,-46.334,-3.4751,-74.915,35.41,15.282,54.405,75.174,12.016,72.902,36.315,64.979,-25.093
1.8541,-4.1568,-21.16,58.554,-46.546,-3.516,-75.276,35.51,15.316,54.364,75.345,11.858,72.941,36.427,65.023,-25.198
1.8541,-4.1568,-21.16,58.554,-46.546,-3.516,-75.276,35.51,15.316,54.364,75.345,11.858,72.941,36.427,65.023,-25.198
1.8541,-4.1568,-21.16,58.554,-46.546,-3.516,-75.276,35.51,15.316,54.364,75.345,11.858,72.941,36.427,65.023,-25.198
1.8973,-4.2651,-21.255,58.571,-46.756,-3.5569,-75.635,35.609,15.35,54.321,75.514,11.699,72.979,36.538,65.065,-25.302
1.9397,-4.3741,-21.351,58.587,-46.966,-3.5977,-75.992,35.706,15.383,54.277,75.68,11.54,73.016,36.647,65.105,-25.407
1.9813,-4.484,-21.446,58.601,-47.174,-3.6384,-76.348,35.801,15.417,54.231,75.845,11.38,73.053,36.755,65.144,-25.511
1.9813,-4.484,-21.446,58.601,-47.174,-3.6384,-76.348,35.801,15.417,54.231,75.845,11.38,73.053,36.755,65.144,-25.511
1.9813,-4.484,-21.446,58.601,-47.174,-3.6384,-76.348,35.801,15.417,54.231,75.845,11.38,73.053,36.755,65.144,-25.511
2.0221,-4.5946,-21.541,58.613,-47.381,-3.679,-76.702,35.895,15.45,54.183,76.007,11.22,73.09,36.861,65.181,-25.615
2.0221,-4.5946,-21.541,58.613,-47.381,-3.679,-76.702,35.895,15.45,54.183,76.007,11.22,73.09,36.861,65.181,-25.615
2.0221,-4.5946,-21.541,58.613,-47.381,-3.679,-76.702,35.895,15.45,54.183,76.007,11.22,73.09,36.861,65.181,-25.615
2.0621,-4.706,-21.636,58.624,-47.587,-3.7195,-77.054,35.987,15.483,54.134,76.168,11.06,73.125,36.965,65.217,-25.72
2.1014,-4.8182,-21.731,58.633,-47.792,-3.76,-77.405,36.077,15.517,54.083,76.326,10.899,73.161,37.068,65.252,-25.824
2.1014,-4.8182,-21.731,58.633,-47.792,-3.76,-77.405,36.077,15.517,54.083,76.326,10.899,73.161,37.068,65.252,-25.824
2.1399,-4.9312,-21.826,58.64,-47.996,-3.8004,-77.753,36.166,15.55,54.031,76.482,10.738,73.195,37.17,65.284,-25.928
2.1776,-5.0449,-21.921,58.646,-48.198,-3.8407,-78.1,36.253,15.583,53.977,76.636,10.576,73.229,37.27,65.316,-26.033
2.1776,-5.0449,-21.921,58.646,-48.198,-3.8407,-78.1,36.253,15.583,53.977,76.636,10.576,73.229,37.27,65.316,-26.033
2.2145,-5.1595,-22.015,58.65,-48.4,-3.8809,-78.445,36.338,15.616,53.921,76.787,10.415,73.263,37.368,65.346,-26.137
2.2145,-5.1595,-22.015,58.65,-48.4,-3.8809,-78.445,36.338,15.616,53.921,76.787,10.415,73.263,37.368,65.346,-26.137
2.2507,-5.2748,-22.11,58.652,-48.6,-3.9211,-78.788,36.422,15.649,53.864,76.937,10.252,73.296,37.465,65.374,-26.241
2.2507,-5.2748,-22.11,58.652,-48.6,-3.9211,-78.788,36.422,15.649,53.864,76.937,10.252,73.296,37.465,65.374,-26.241
2.2507,-5.2748,-22.11,58.652,-48.6,-3.9211,-78.788,36.422,15.649,53.864,76.937,10.252,73.296,37.465,65.374,-26.241
2.2861,-5.3909,-22.204,58.653,-48.799,-3.9612,-79.13,36.503,15.681,53.805,77.084,10.09,73.329,37.561,65.401,-26.345
2.2861,-5.3909,-22.204,58.653,-48.799,-3.9612,-79.13,36.503,15.681,53.805,77.084,10.09,73.329,37.561,65.401,-26.345
2.2861,-5.3909,-22.204,58.653,-48.799,-3.9612,-79.13,36.503,15.681,53.805,77.084,10.09,73.329,37.561,65.401,-26.345
2.3207,-5.5078,-22.298,58.652,-48.997,-4.0012,-79.469,36.584,15.714,53.745,77.23,9.9267,73.361,37.655,65.427,-26.449
2.3207,-5.5078,-22.298,58.652,-48.997,-4.0012,-79.469,36.584,15.714,53.745,77.23,9.9267,73.361,37.655,65.427,-26.449
2.3207,-5.5078,-22.298,58.652,-48.997,-4.0012,-79.469,36.584,15.714,53.745,77.23,9.9267,73.361,37.655,65.427,-26.449
2.3878,-5.7438,-22.485,58.645,-49.39,-4.081,-80.143,36.739,15.78,53.62,77.514,9.6,73.424,37.838,65.474,-26.657
2.3878,-5.7438,-22.485,58.645,-49.39,-4.081,-80.143,36.739,15.78,53.62,77.514,9.6,73.424,37.838,65.474,-26.657
2.4202,-5.863,-22.579,58.64,-49.584,-4.1208,-80.477,36.814,15.812,53.555,77.653,9.4362,73.455,37.928,65.495,-26.761
2.4202,-5.863,-22.579,58.64,-49.584,-4.1208,-80.477,36.814,15.812,53.555,77.653,9.4362,73.455,37.928,65.495,-26.761
2.4202,-5.863,-22.579,58.64,-49.584,-4.1208,-80.477,36.814,15.812,53.555,77.653,9.4362,73.455,37.928,65.495,-26.761
2.4519,-5.9829,-22.672,58.632,-49.778,-4.1605,-80.81,36.887,15.845,53.489,77.79,9.2722,73.486,38.016,65.515,-26.865
2.4519,-5.9829,-22.672,58.632,-49.778,-4.1605,-80.81,36.887,15.845,53.489,77.79,9.2722,73.486,38.016,65.515,-26.865
2.4519,-5.9829,-22.672,58.632,-49.778,-4.1605,-80.81,36.887,15.845,53.489,77.79,9.2722,73.486,38.016,65.515,-26.865
2.513,-6.225,-22.858,58.613,-50.161,-4.2398,-81.468,37.029,15.91,53.353,78.058,8.9436,73.545,38.188,65.551,-27.072
2.513,-6.225,-22.858,58.613,-50.161,-4.2398,-81.468,37.029,15.91,53.353,78.058,8.9436,73.545,38.188,65.551,-27.072
2.5425,-6.3472,-22.951,58.601,-50.352,-4.2793,-81.795,37.097,15.943,53.282,78.188,8.779,73.575,38.272,65.567,-27.176
2.5425,-6.3472,-22.951,58.601,-50.352,-4.2793,-81.795,37.097,15.943,53.282,78.188,8.779,73.575,38.272,65.567,-27.176
2.5713,-6.4701,-23.044,58.588,-50.541,-4.3187,-82.12,37.164,15.976,53.21,78.317,8.6143,73.604,38.354,65.582,-27.279
2.5713,-6.4701,-23.044,58.588,-50.541,-4.3187,-82.12,37.164,15.976,53.21,78.317,8.6143,73.604,38.354,65.582,-27.279
2.5713,-6.4701,-23.044,58.588,-50.541,-4.3187,-82.12,37.164,15.976,53.21,78.317,8.6143,73.604,38.354,65.582,-27.279
2.5994,-6.5938,-23.136,58.573,-50.729,-4.3581,-82.443,37.229,16.009,53.137,78.444,8.4494,73.632,38.435,65.596,-27.382
2.6267,-6.7182,-23.228,58.556,-50.915,-4.3974,-82.763,37.292,16.041,53.062,78.568,8.2844,73.66,38.514,65.608,-27.485
2.6534,-6.8433,-23.32,58.538,-51.101,-4.4366,-83.082,37.354,16.074,52.986,78.69,8.1192,73.688,38.592,65.619,-27.589
2.6534,-6.8433,-23.32,58.538,-51.101,-4.4366,-83.082,37.354,16.074,52.986,78.69,8.1192,73.688,38.592,65.619,-27.589
2.6794,-6.9692,-23.411,58.519,-51.286,-4.4758,-83.399,37.413,16.107,52.909,78.811,7.954,73.716,38.669,65.629,-27.692
2.6794,-6.9692,-23.411,58.519,-51.286,-4.4758,-83.399,37.413,16.107,52.909,78.811,7.954,73.716,38.669,65.629,-27.692
2.6794,-6.9692,-23.411,58.519,-51.286,-4.4758,-83.399,37.413,16.107,52.909,78.811,7.954,73.716,38.669,65.629,-27.692
2.7046,-7.0958,-23.502,58.498,-51.469,-4.5149,-83.714,37.471,16.14,52.83,78.929,7.7887,73.743,38.744,65.637,-27.794
2.7046,-7.0958,-23.502,58.498,-51.469,-4.5149,-83.714,37.471,16.14,52.83,78.929,7.7887,73.743,38.744,65.637,-27.794
2.7046,-7.0958,-23.502,58.498,-51.469,-4.5149,-83.714,37.471,16.14,52.83,78.929,7.7887,73.743,38.744,65.637,-27.794
2.7292,-7.2231,-23.593,58.475,-51.652,-4.5539,-84.027,37.528,16.173,52.75,79.045,7.6233,73.77,38.818,65.644,-27.897
2.7292,-7.2231,-23.593,58.475,-51.652,-4.5539,-84.027,37.528,16.173,52.75,79.045,7.6233,73.77,38.818,65.644,-27.897
2.7532,-7.3511,-23.684,58.451,-51.833,-4.5929,-84.338,37.582,16.206,52.668,79.16,7.4579,73.797,38.89,65.651,-28
2.7532,-7.3511,-23.684,58.451,-51.833,-4.5929,-84.338,37.582,16.206,52.668,79.16,7.4579,73.797,38.89,65.651,-28
2.7532,-7.3511,-23.684,58.451,-51.833,-4.5929,-84.338,37.582,16.206,52.668,79.16,7.4579,73.797,38.89,65.651,-28
2.799,-7.6093,-23.864,58.399,-52.193,-4.6706,-84.954,37.687,16.272,52.501,79.382,7.127,73.849,39.031,65.659,-28.205
2.799,-7.6093,-23.864,58.399,-52.193,-4.6706,-84.954,37.687,16.272,52.501,79.382,7.127,73.849,39.031,65.659,-28.205
2.8209,-7.7394,-23.954,58.37,-52.371,-4.7093,-85.259,37.736,16.306,52.416,79.49,6.9616,73.875,39.099,65.662,-28.307
2.8209,-7.7394,-23.954,58.37,-52.371,-4.7093,-85.259,37.736,16.306,52.416,79.49,6.9616,73.875,39.099,65.662,-28.307
2.8422,-7.8702,-24.044,58.341,-52.548,-4.748,-85.562,37.784,16.339,52.329,79.596,6.7962,73.901,39.166,65.663,-28.409
2.8422,-7.8702,-24.044,58.341,-52.548,-4.748,-85.562,37.784,16.339,52.329,79.596,6.7962,73.901,39.166,65.663,-28.409
2.8422,-7.8702,-24.044,58.341,-52.548,-4.748,-85.562,37.784,16.339,52.329,79.596,6.7962,73.901,39.166,65.663,-28.409
2.8628,-8.0017,-24.133,58.309,-52.724,-4.7866,-85.863,37.83,16.373,52.242,79.701,6.6308,73.926,39.232,65.664,-28.511
2.8828,-8.1339,-24.222,58.277,-52.899,-4.8251,-86.162,37.875,16.406,52.153,79.803,6.4655,73.951,39.296,65.663,-28.613
2.8828,-8.1339,-24.222,58.277,-52.899,-4.8251,-86.162,37.875,16.406,52.153,79.803,6.4655,73.951,39.296,65.663,-28.613
2.9021,-8.2668,-24.311,58.243,-53.073,-4.8635,-86.459,37.918,16.44,52.062,79.903,6.3003,73.976,39.359,65.661,-28.715
2.9021,-8.2668,-24.311,58.243,-53.073,-4.8635,-86.459,37.918,16.44,52.062,79.903,6.3003,73.976,39.359,65.661,-28.715
2.9208,-8.4003,-24.399,58.207,-53.246,-4.9019,-86.754,37.959,16.474,51.971,80.001,6.1352,74.001,39.42,65.658,-28.816
2.9208,-8.4003,-24.399,58.207,-53.246,-4.9019,-86.754,37.959,16.474,51.971,80.001,6.1352,74.001,39.42,65.658,-28.816
2.9389,-8.5345,-24.487,58.171,-53.418,-4.9402,-87.047,37.998,16.508,51.878,80.097,5.9703,74.026,39.481,65.654,-28.917
2.9389,-8.5345,-24.487,58.171,-53.418,-4.9402,-87.047,37.998,16.508,51.878,80.097,5.9703,74.026,39.481,65.654,-28.917
2.9564,-8.6693,-24.574,58.133,-53.589,-4.9784,-87.337,38.036,16.542,51.784,80.192,5.8054,74.05,39.54,65.649,-29.018
2.9564,-8.6693,-24.574,58.133,-53.589,-4.9784,-87.337,38.036,16.542,51.784,80.192,5.8054,74.05,39.54,65.649,-29.018
2.9733,-8.8048,-24.662,58.093,-53.759,-5.0165,-87.626,38.072,16.576,51.689,80.284,5.6407,74.074,39.597,65.643,-29.119
2.9733,-8.8048,-24.662,58.093,-53.759,-5.0165,-87.626,38.072,16.576,51.689,80.284,5.6407,74.074,39.597,65.643,-29.119
2.9895,-8.941,-24.748,58.052,-53.927,-5.0546,-87.912,38.107,16.61,51.593,80.374,5.4762,74.099,39.653,65.636,-29.22
2.9895,-8.941,-24.748,58.052,-53.927,-5.0546,-87.912,38.107,16.61,51.593,80.374,5.4762,74.099,39.653,65.636,-29.22
3.0052,-9.0777,-24.835,58.01,-54.095,-5.0926,-88.197,38.139,16.645,51.496,80.463,5.3119,74.122,39.708,65.628,-29.321
3.0052,-9.0777,-24.835,58.01,-54.095,-5.0926,-88.197,38.139,16.645,51.496,80.463,5.3119,74.122,39.708,65.628,-29.321
3.0203,-9.2151,-24.921,57.967,-54.262,-5.1305,-88.479,38.17,16.679,51.397,80.549,5.1478,74.146,39.762,65.619,-29.421
3.0203,-9.2151,-24.921,57.967,-54.262,-5.1305,-88.479,38.17,16.679,51.397,80.549,5.1478,74.146,39.762,65.619,-29.421
3.0348,-9.3532,-25.007,57.922,-54.427,-5.1683,-88.759,38.2,16.714,51.298,80.634,4.9839,74.17,39.815,65.609,-29.521
3.0487,-9.4918,-25.092,57.876,-54.592,-5.206,-89.037,38.227,16.749,51.197,80.716,4.8203,74.193,39.866,65.597,-29.621
3.0487,-9.4918,-25.092,57.876,-54.592,-5.206,-89.037,38.227,16.749,51.197,80.716,4.8203,74.193,39.866,65.597,-29.621
3.0487,-9.4918,-25.092,57.876,-54.592,-5.206,-89.037,38.227,16.749,51.197,80.716,4.8203,74.193,39.866,65.597,-29.621
3.0621,-9.6311,-25.177,57.829,-54.756,-5.2437,-89.313,38.254,16.784,51.095,80.797,4.6569,74.217,39.916,65.585,-29.721
3.0621,-9.6311,-25.177,57.829,-54.756,-5.2437,-89.313,38.254,16.784,51.095,80.797,4.6569,74.217,39.916,65.585,-29.721
3.0749,-9.7709,-25.262,57.78,-54.918,-5.2812,-89.587,38.278,16.819,50.992,80.876,4.4938,74.24,39.965,65.572,-29.821
3.0749,-9.7709,-25.262,57.78,-54.918,-5.2812,-89.587,38.278,16.819,50.992,80.876,4.4938,74.24,39.965,65.572,-29.821
3.0871,-9.9113,-25.346,57.73,-55.08,-5.3187,-89.858,38.301,16.854,50.889,80.953,4.331,74.263,40.012,65.559,-29.92
3.0871,-9.9113,-25.346,57.73,-55.08,-5.3187,-89.858,38.301,16.854,50.889,80.953,4.331,74.263,40.012,65.559,-29.92
3.0988,-10.052,-25.43,57.679,-55.24,-5.3561,-90.127,38.322,16.89,50.784,81.028,4.1685,74.286,40.058,65.544,-30.019
3.0988,-10.052,-25.43,57.679,-55.24,-5.3561,-90.127,38.322,16.89,50.784,81.028,4.1685,74.286,40.058,65.544,-30.019
3.11,-10.194,-25.513,57.627,-55.4,-5.3934,-90.395,38.341,16.926,50.678,81.101,4.0063,74.309,40.103,65.528,-30.118
3.11,-10.194,-25.513,57.627,-55.4,-5.3934,-90.395,38.341,16.926,50.678,81.101,4.0063,74.309,40.103,65.528,-30.118
3.1206,-10.336,-25.596,57.574,-55.559,-5.4306,-90.66,38.359,16.962,50.571,81.172,3.8445,74.332,40.147,65.511,-30.217
3.1206,-10.336,-25.596,57.574,-55.559,-5.4306,-90.66,38.359,16.962,50.571,81.172,3.8445,74.332,40.147,65.511,-30.217
3.1307,-10.479,-25.678,57.519,-55.716,-5.4677,-90.922,38.375,16.998,50.463,81.241,3.6831,74.355,40.19,65.494,-30.315
3.1307,-10.479,-25.678,57.519,-55.716,-5.4677,-90.922,38.375,16.998,50.463,81.241,3.6831,74.355,40.19,65.494,-30.315
3.1402,-10.622,-25.76,57.463,-55.873,-5.5047,-91.183,38.389,17.034,50.355,81.309,3.522,74.378,40.231,65.475,-30.413
3.1402,-10.622,-25.76,57.463,-55.873,-5.5047,-91.183,38.389,17.034,50.355,81.309,3.522,74.378,40.231,65.475,-30.413
3.1402,-10.622,-25.76,57.463,-55.873,-5.5047,-91.183,38.389,17.034,50.355,81.309,3.522,74.378,40.231,65.475,-30.413
3.1493,-10.766,-25.842,57.406,-56.028,-5.5416,-91.442,38.402,17.07,50.245,81.375,3.3614,74.401,40.272,65.456,-30.511
3.1493,-10.766,-25.842,57.406,-56.028,-5.5416,-91.442,38.402,17.07,50.245,81.375,3.3614,74.401,40.272,65.456,-30.511
3.1578,-10.91,-25.923,57.348,-56.183,-5.5784,-91.698,38.413,17.107,50.134,81.438,3.2012,74.424,40.311,65.436,-30.609
3.1578,-10.91,-25.923,57.348,-56.183,-5.5784,-91.698,38.413,17.107,50.134,81.438,3.2012,74.424,40.311,65.436,-30.609
3.1734,-11.201,-26.084,57.228,-56.489,-5.6517,-92.203,38.431,17.181,49.91,81.56,2.882,74.469,40.386,65.393,-30.803
3.1734,-11.201,-26.084,57.228,-56.489,-5.6517,-92.203,38.431,17.181,49.91,81.56,2.882,74.469,40.386,65.393,-30.803
3.1734,-11.201,-26.084,57.228,-56.489,-5.6517,-92.203,38.431,17.181,49.91,81.56,2.882,74.469,40.386,65.393,-30.803
3.1805,-11.347,-26.163,57.166,-56.641,-5.6882,-92.453,38.437,17.218,49.797,81.618,2.7232,74.491,40.421,65.371,-30.9
3.1805,-11.347,-26.163,57.166,-56.641,-5.6882,-92.453,38.437,17.218,49.797,81.618,2.7232,74.491,40.421,65.371,-30.9
3.1871,-11.493,-26.243,57.104,-56.792,-5.7246,-92.7,38.442,17.256,49.683,81.675,2.5648,74.514,40.456,65.348,-30.996
3.1932,-11.64,-26.321,57.04,-56.942,-5.7609,-92.945,38.445,17.293,49.568,81.729,2.407,74.537,40.489,65.323,-31.093
3.1932,-11.64,-26.321,57.04,-56.942,-5.7609,-92.945,38.445,17.293,49.568,81.729,2.407,74.537,40.489,65.323,-31.093
3.1932,-11.64,-26.321,57.04,-56.942,-5.7609,-92.945,38.445,17.293,49.568,81.729,2.407,74.537,40.489,65.323,-31.093
3.1989,-11.787,-26.4,56.975,-57.09,-5.7971,-93.188,38.446,17.331,49.452,81.782,2.2497,74.559,40.522,65.299,-31.188
3.1989,-11.787,-26.4,56.975,-57.09,-5.7971,-93.188,38.446,17.331,49.452,81.782,2.2497,74.559,40.522,65.299,-31.188
3.2041,-11.935,-26.477,56.909,-57.238,-5.8332,-93.428,38.446,17.369,49.335,81.833,2.0929,74.582,40.553,65.273,-31.284
3.2041,-11.935,-26.477,56.909,-57.238,-5.8332,-93.428,38.446,17.369,49.335,81.833,2.0929,74.582,40.553,65.273,-31.284
3.2088,-12.084,-26.555,56.842,-57.385,-5.8691,-93.667,38.444,17.407,49.218,81.882,1.9367,74.604,40.583,65.246,-31.379
3.2088,-12.084,-26.555,56.842,-57.385,-5.8691,-93.667,38.444,17.407,49.218,81.882,1.9367,74.604,40.583,65.246,-31.379
3.2131,-12.232,-26.631,56.774,-57.531,-5.9049,-93.902,38.441,17.446,49.1,81.93,1.781,74.627,40.612,65.219,-31.474
3.217,-12.382,-26.707,56.705,-57.676,-5.9406,-94.136,38.436,17.485,48.981,81.975,1.626,74.649,40.64,65.192,-31.569
3.217,-12.382,-26.707,56.705,-57.676,-5.9406,-94.136,38.436,17.485,48.981,81.975,1.626,74.649,40.64,65.192,-31.569
3.217,-12.382,-26.707,56.705,-57.676,-5.9406,-94.136,38.436,17.485,48.981,81.975,1.626,74.649,40.64,65.192,-31.569
3.2204,-12.531,-26.783,56.635,-57.82,-5.9762,-94.367,38.429,17.524,48.861,82.019,1.4716,74.672,40.668,65.163,-31.663
3.2204,-12.531,-26.783,56.635,-57.82,-5.9762,-94.367,38.429,17.524,48.861,82.019,1.4716,74.672,40.668,65.163,-31.663
3.2234,-12.681,-26.858,56.564,-57.964,-6.0117,-94.596,38.421,17.563,48.74,82.061,1.3178,74.695,40.693,65.134,-31.757
3.2234,-12.681,-26.858,56.564,-57.964,-6.0117,-94.596,38.421,17.563,48.74,82.061,1.3178,74.695,40.693,65.134,-31.757
3.2234,-12.681,-26.858,56.564,-57.964,-6.0117,-94.596,38.421,17.563,48.74,82.061,1.3178,74.695,40.693,65.134,-31.757
3.226,-12.832,-26.933,56.491,-58.106,-6.047,-94.823,38.411,17.602,48.619,82.101,1.1647,74.717,40.718,65.104,-31.851
3.226,-12.832,-26.933,56.491,-58.106,-6.047,-94.823,38.411,17.602,48.619,82.101,1.1647,74.717,40.718,65.104,-31.851
3.2282,-12.983,-27.007,56.418,-58.247,-6.0822,-95.047,38.4,17.642,48.497,82.14,1.0122,74.74,40.742,65.073,-31.944
3.2282,-12.983,-27.007,56.418,-58.247,-6.0822,-95.047,38.4,17.642,48.497,82.14,1.0122,74.74,40.742,65.073,-31.944
3.23,-13.134,-27.08,56.344,-58.388,-6.1173,-95.269,38.387,17.681,48.375,82.177,0.86045,74.763,40.765,65.042,-32.037
3.2314,-13.286,-27.153,56.269,-58.527,-6.1522,-95.489,38.373,17.721,48.252,82.212,0.70937,74.785,40.787,65.01,-32.13
3.2314,-13.286,-27.153,56.269,-58.527,-6.1522,-95.489,38.373,17.721,48.252,82.212,0.70937,74.785,40.787,65.01,-32.13
3.2324,-13.438,-27.225,56.193,-58.666,-6.187,-95.707,38.357,17.762,48.128,82.245,0.55902,74.808,40.808,64.977,-32.222
3.2324,-13.438,-27.225,56.193,-58.666,-6.187,-95.707,38.357,17.762,48.128,82.245,0.55902,74.808,40.808,64.977,-32.222
3.233,-13.59,-27.297,56.117,-58.803,-6.2216,-95.922,38.34,17.802,48.003,82.277,0.40941,74.831,40.828,64.944,-32.314
3.233,-13.59,-27.297,56.117,-58.803,-6.2216,-95.922,38.34,17.802,48.003,82.277,0.40941,74.831,40.828,64.944,-32.314
3.2332,-13.743,-27.368,56.039,-58.94,-6.2561,-96.134,38.321,17.843,47.878,82.307,0.26056,74.854,40.847,64.91,-32.405
3.2332,-13.743,-27.368,56.039,-58.94,-6.2561,-96.134,38.321,17.843,47.878,82.307,0.26056,74.854,40.847,64.91,-32.405
3.2331,-13.896,-27.439,55.96,-59.076,-6.2905,-96.345,38.3,17.884,47.752,82.335,0.11248,74.877,40.865,64.876,-32.496
3.2326,-14.05,-27.509,55.881,-59.211,-6.3247,-96.553,38.278,17.925,47.626,82.361,-0.034813,74.9,40.882,64.841,-32.586
3.2326,-14.05,-27.509,55.881,-59.211,-6.3247,-96.553,38.278,17.925,47.626,82.361,-0.034813,74.9,40.882,64.841,-32.586
3.2317,-14.204,-27.578,55.8,-59.345,-6.3587,-96.758,38.254,17.966,47.499,82.386,-0.18129,74.923,40.899,64.805,-32.677
3.2317,-14.204,-27.578,55.8,-59.345,-6.3587,-96.758,38.254,17.966,47.499,82.386,-0.18129,74.923,40.899,64.805,-32.677
3.2317,-14.204,-27.578,55.8,-59.345,-6.3587,-96.758,38.254,17.966,47.499,82.386,-0.18129,74.923,40.899,64.805,-32.677
3.2305,-14.358,-27.647,55.719,-59.479,-6.3926,-96.961,38.229,18.008,47.372,82.409,-0.32695,74.946,40.914,64.769,-32.766
3.2305,-14.358,-27.647,55.719,-59.479,-6.3926,-96.961,38.229,18.008,47.372,82.409,-0.32695,74.946,40.914,64.769,-32.766
3.2305,-14.358,-27.647,55.719,-59.479,-6.3926,-96.961,38.229,18.008,47.372,82.409,-0.32695,74.946,40.914,64.769,-32.766
3.229,-14.512,-27.715,55.637,-59.611,-6.4264,-97.162,38.203,18.05,47.244,82.43,-0.47176,74.969,40.928,64.732,-32.856
3.2271,-14.667,-27.783,55.554,-59.742,-6.4599,-97.361,38.175,18.092,47.116,82.45,-0.61571,74.993,40.942,64.694,-32.945
3.2249,-14.822,-27.85,55.47,-59.873,-6.4933,-97.557,38.145,18.134,46.987,82.468,-0.75878,75.016,40.954,64.656,-33.033
3.2249,-14.822,-27.85,55.47,-59.873,-6.4933,-97.557,38.145,18.134,46.987,82.468,-0.75878,75.016,40.954,64.656,-33.033
3.2224,-14.977,-27.916,55.386,-60.003,-6.5266,-97.75,38.114,18.176,46.858,82.485,-0.90096,75.039,40.966,64.618,-33.121
3.2224,-14.977,-27.916,55.386,-60.003,-6.5266,-97.75,38.114,18.176,46.858,82.485,-0.90096,75.039,40.966,64.618,-33.121
3.2224,-14.977,-27.916,55.386,-60.003,-6.5266,-97.75,38.114,18.176,46.858,82.485,-0.90096,75.039,40.966,64.618,-33.121
3.2195,-15.132,-27.982,55.301,-60.132,-6.5596,-97.942,38.081,18.219,46.728,82.499,-1.0422,75.063,40.977,64.579,-33.208
3.2195,-15.132,-27.982,55.301,-60.132,-6.5596,-97.942,38.081,18.219,46.728,82.499,-1.0422,75.063,40.977,64.579,-33.208
3.2163,-15.288,-28.047,55.215,-60.26,-6.5925,-98.131,38.047,18.262,46.598,82.512,-1.1826,75.086,40.987,64.539,-33.296
3.2129,-15.444,-28.111,55.128,-60.387,-6.6252,-98.317,38.012,18.305,46.467,82.524,-1.3219,75.11,40.996,64.499,-33.382
3.2129,-15.444,-28.111,55.128,-60.387,-6.6252,-98.317,38.012,18.305,46.467,82.524,-1.3219,75.11,40.996,64.499,-33.382
3.2129,-15.444,-28.111,55.128,-60.387,-6.6252,-98.317,38.012,18.305,46.467,82.524,-1.3219,75.11,40.996,64.499,-33.382
3.2091,-15.6,-28.175,55.04,-60.514,-6.6577,-98.501,37.975,18.348,46.336,82.534,-1.4604,75.134,41.005,64.458,-33.468
3.2091,-15.6,-28.175,55.04,-60.514,-6.6577,-98.501,37.975,18.348,46.336,82.534,-1.4604,75.134,41.005,64.458,-33.468
3.205,-15.756,-28.238,54.952,-60.639,-6.6901,-98.683,37.937,18.392,46.205,82.542,-1.5978,75.158,41.012,64.417,-33.554
3.205,-15.756,-28.238,54.952,-60.639,-6.6901,-98.683,37.937,18.392,46.205,82.542,-1.5978,75.158,41.012,64.417,-33.554
3.2007,-15.913,-28.301,54.863,-60.764,-6.7222,-98.862,37.897,18.436,46.073,82.548,-1.7343,75.182,41.019,64.376,-33.639
3.2007,-15.913,-28.301,54.863,-60.764,-6.7222,-98.862,37.897,18.436,46.073,82.548,-1.7343,75.182,41.019,64.376,-33.639
3.196,-16.07,-28.363,54.773,-60.888,-6.7542,-99.039,37.856,18.48,45.941,82.553,-1.8697,75.206,41.025,64.334,-33.723
3.196,-16.07,-28.363,54.773,-60.888,-6.7542,-99.039,37.856,18.48,45.941,82.553,-1.8697,75.206,41.025,64.334,-33.723
3.196,-16.07,-28.363,54.773,-60.888,-6.7542,-99.039,37.856,18.48,45.941,82.553,-1.8697,75.206,41.025,64.334,-33.723
3.196,-16.07,-28.363,54.773,-60.888,-6.7542,-99.039,37.856,18.48,45.941,82.553,-1.8697,75.206,41.025,64.334,-33.723
3.186,-16.384,-28.484,54.592,-61.133,-6.8175,-99.385,37.769,18.568,45.676,82.558,-2.1374,75.254,41.035,64.248,-33.891
3.186,-16.384,-28.484,54.592,-61.133,-6.8175,-99.385,37.769,18.568,45.676,82.558,-2.1374,75.254,41.035,64.248,-33.891
3.1805,-16.541,-28.544,54.5,-61.255,-6.8489,-99.554,37.723,18.613,45.543,82.559,-2.2697,75.278,41.039,64.204,-33.974
3.1805,-16.541,-28.544,54.5,-61.255,-6.8489,-99.554,37.723,18.613,45.543,82.559,-2.2697,75.278,41.039,64.204,-33.974
3.1748,-16.698,-28.603,54.408,-61.375,-6.88,-99.721,37.676,18.657,45.409,82.557,-2.4009,75.303,41.042,64.161,-34.057
3.1748,-16.698,-28.603,54.408,-61.375,-6.88,-99.721,37.676,18.657,45.409,82.557,-2.4009,75.303,41.042,64.161,-34.057
3.1688,-16.855,-28.661,54.315,-61.495,-6.911,-99.886,37.628,18.702,45.276,82.554,-2.531,75.327,41.045,64.116,-34.138
3.1688,-16.855,-28.661,54.315,-61.495,-6.911,-99.886,37.628,18.702,45.276,82.554,-2.531,75.327,41.045,64.116,-34.138
3.1626,-17.013,-28.719,54.222,-61.614,-6.9417,-100.05,37.578,18.748,45.142,82.55,-2.66,75.352,41.046,64.071,-34.22
3.1626,-17.013,-28.719,54.222,-61.614,-6.9417,-100.05,37.578,18.748,45.142,82.55,-2.66,75.352,41.046,64.071,-34.22
3.1562,-17.17,-28.776,54.128,-61.733,-6.9722,-100.21,37.527,18.793,45.008,82.543,-2.7878,75.376,41.047,64.026,-34.301
3.1562,-17.17,-28.776,54.128,-61.733,-6.9722,-100.21,37.527,18.793,45.008,82.543,-2.7878,75.376,41.047,64.026,-34.301
3.1495,-17.328,-28.832,54.033,-61.85,-7.0025,-100.36,37.475,18.839,44.874,82.536,-2.9145,75.401,41.048,63.98,-34.381
3.1495,-17.328,-28.832,54.033,-61.85,-7.0025,-100.36,37.475,18.839,44.874,82.536,-2.9145,75.401,41.048,63.98,-34.381
3.1495,-17.328,-28.832,54.033,-61.85,-7.0025,-100.36,37.475,18.839,44.874,82.536,-2.9145,75.401,41.048,63.98,-34.381
3.1426,-17.486,-28.888,53.938,-61.967,-7.0325,-100.52,37.421,18.884,44.739,82.526,-3.0401,75.426,41.047,63.934,-34.46
3.1426,-17.486,-28.888,53.938,-61.967,-7.0325,-100.52,37.421,18.884,44.739,82.526,-3.0401,75.426,41.047,63.934,-34.46
3.1354,-17.644,-28.942,53.842,-62.083,-7.0624,-100.67,37.366,18.93,44.605,82.516,-3.1644,75.451,41.046,63.888,-34.539
3.1281,-17.801,-28.997,53.746,-62.198,-7.092,-100.82,37.309,18.976,44.47,82.503,-3.2876,75.476,41.045,63.841,-34.618
3.1205,-17.959,-29.05,53.649,-62.312,-7.1213,-100.97,37.252,19.023,44.335,82.489,-3.4095,75.501,41.042,63.794,-34.695
3.1205,-17.959,-29.05,53.649,-62.312,-7.1213,-100.97,37.252,19.023,44.335,82.489,-3.4095,75.501,41.042,63.794,-34.695
3.1127,-18.117,-29.103,53.551,-62.426,-7.1505,-101.11,37.193,19.069,44.2,82.474,-3.5302,75.526,41.04,63.746,-34.773
3.1127,-18.117,-29.103,53.551,-62.426,-7.1505,-101.11,37.193,19.069,44.2,82.474,-3.5302,75.526,41.04,63.746,-34.773
3.1127,-18.117,-29.103,53.551,-62.426,-7.1505,-101.11,37.193,19.069,44.2,82.474,-3.5302,75.526,41.04,63.746,-34.773
3.1046,-18.275,-29.154,53.454,-62.539,-7.1793,-101.26,37.132,19.116,44.065,82.457,-3.6496,75.551,41.036,63.698,-34.849
3.1046,-18.275,-29.154,53.454,-62.539,-7.1793,-101.26,37.132,19.116,44.065,82.457,-3.6496,75.551,41.036,63.698,-34.849
3.0964,-18.433,-29.206,53.355,-62.651,-7.208,-101.4,37.07,19.162,43.93,82.439,-3.7678,75.577,41.032,63.649,-34.925
3.088,-18.591,-29.256,53.257,-62.763,-7.2364,-101.53,37.007,19.209,43.795,82.419,-3.8847,75.602,41.028,63.601,-35
3.088,-18.591,-29.256,53.257,-62.763,-7.2364,-101.53,37.007,19.209,43.795,82.419,-3.8847,75.602,41.028,63.601,-35
3.0794,-18.748,-29.306,53.157,-62.873,-7.2645,-101.67,36.943,19.257,43.66,82.397,-4.0003,75.628,41.022,63.552,-35.075
3.0794,-18.748,-29.306,53.157,-62.873,-7.2645,-101.67,36.943,19.257,43.66,82.397,-4.0003,75.628,41.022,63.552,-35.075
3.0706,-18.906,-29.355,53.058,-62.983,-7.2923,-101.8,36.877,19.304,43.525,82.374,-4.1146,75.653,41.017,63.502,-35.149
3.0706,-18.906,-29.355,53.058,-62.983,-7.2923,-101.8,36.877,19.304,43.525,82.374,-4.1146,75.653,41.017,63.502,-35.149
3.0706,-18.906,-29.355,53.058,-62.983,-7.2923,-101.8,36.877,19.304,43.525,82.374,-4.1146,75.653,41.017,63.502,-35.149
3.0616,-19.064,-29.403,52.958,-63.093,-7.3199,-101.93,36.81,19.351,43.39,82.35,-4.2275,75.679,41.011,63.452,-35.222
3.0616,-19.064,-29.403,52.958,-63.093,-7.3199,-101.93,36.81,19.351,43.39,82.35,-4.2275,75.679,41.011,63.452,-35.222
3.0616,-19.064,-29.403,52.958,-63.093,-7.3199,-101.93,36.81,19.351,43.39,82.35,-4.2275,75.679,41.011,63.452,-35.222
3.0524,-19.221,-29.45,52.857,-63.201,-7.3473,-102.06,36.742,19.399,43.254,82.324,-4.3391,75.705,41.004,63.402,-35.294
3.0524,-19.221,-29.45,52.857,-63.201,-7.3473,-102.06,36.742,19.399,43.254,82.324,-4.3391,75.705,41.004,63.402,-35.294
3.0431,-19.379,-29.497,52.756,-63.309,-7.3743,-102.18,36.673,19.447,43.119,82.297,-4.4494,75.731,40.997,63.351,-35.366
3.0336,-19.536,-29.543,52.655,-63.416,-7.4011,-102.3,36.602,19.494,42.984,82.268,-4.5582,75.757,40.989,63.301,-35.437
3.0336,-19.536,-29.543,52.655,-63.416,-7.4011,-102.3,36.602,19.494,42.984,82.268,-4.5582,75.757,40.989,63.301,-35.437
3.0239,-19.693,-29.588,52.553,-63.522,-7.4276,-102.42,36.53,19.542,42.849,82.238,-4.6657,75.782,40.981,63.249,-35.508
3.0239,-19.693,-29.588,52.553,-63.522,-7.4276,-102.42,36.53,19.542,42.849,82.238,-4.6657,75.782,40.981,63.249,-35.508
3.0239,-19.693,-29.588,52.553,-63.522,-7.4276,-102.42,36.53,19.542,42.849,82.238,-4.6657,75.782,40.981,63.249,-35.508
3.014,-19.85,-29.632,52.451,-63.628,-7.4538,-102.54,36.457,19.59,42.714,82.206,-4.7717,75.809,40.972,63.198,-35.577
3.014,-19.85,-29.632,52.451,-63.628,-7.4538,-102.54,36.457,19.59,42.714,82.206,-4.7717,75.809,40.972,63.198,-35.577
3.004,-20.007,-29.675,52.349,-63.733,-7.4798,-102.66,36.383,19.639,42.579,82.173,-4.8763,75.835,40.963,63.146,-35.646
2.9938,-20.164,-29.718,52.246,-63.837,-7.5054,-102.77,36.307,19.687,42.445,82.138,-4.9795,75.861,40.954,63.094,-35.714
2.9938,-20.164,-29.718,52.246,-63.837,-7.5054,-102.77,36.307,19.687,42.445,82.138,-4.9795,75.861,40.954,63.094,-35.714
2.9834,-20.321,-29.76,52.143,-63.941,-7.5307,-102.88,36.23,19.735,42.31,82.102,-5.0813,75.887,40.944,63.042,-35.782
2.9834,-20.321,-29.76,52.143,-63.941,-7.5307,-102.88,36.23,19.735,42.31,82.102,-5.0813,75.887,40.944,63.042,-35.782
2.9729,-20.477,-29.801,52.04,-64.044,-7.5558,-102.98,36.153,19.784,42.176,82.065,-5.1815,75.913,40.934,62.989,-35.848
2.9729,-20.477,-29.801,52.04,-64.044,-7.5558,-102.98,36.153,19.784,42.176,82.065,-5.1815,75.913,40.934,62.989,-35.848
2.9623,-20.633,-29.841,51.937,-64.146,-7.5805,-103.09,36.073,19.833,42.042,82.026,-5.2803,75.94,40.923,62.936,-35.914
2.9623,-20.633,-29.841,51.937,-64.146,-7.5805,-103.09,36.073,19.833,42.042,82.026,-5.2803,75.94,40.923,62.936,-35.914
2.9515,-20.789,-29.881,51.833,-64.248,-7.605,-103.19,35.993,19.881,41.908,81.985,-5.3775,75.966,40.912,62.883,-35.979
2.9515,-20.789,-29.881,51.833,-64.248,-7.605,-103.19,35.993,19.881,41.908,81.985,-5.3775,75.966,40.912,62.883,-35.979
2.9406,-20.945,-29.92,51.729,-64.349,-7.6291,-103.29,35.912,19.93,41.774,81.944,-5.4732,75.992,40.901,62.829,-36.044
2.9295,-21.1,-29.958,51.624,-64.449,-7.6529,-103.39,35.829,19.979,41.64,81.901,-5.5674,76.019,40.889,62.775,-36.107
2.9295,-21.1,-29.958,51.624,-64.449,-7.6529,-103.39,35.829,19.979,41.64,81.901,-5.5674,76.019,40.889,62.775,-36.107
2.9295,-21.1,-29.958,51.624,-64.449,-7.6529,-103.39,35.829,19.979,41.64,81.901,-5.5674,76.019,40.889,62.775,-36.107
2.9182,-21.255,-29.995,51.52,-64.549,-7.6764,-103.48,35.745,20.028,41.507,81.856,-5.6601,76.045,40.877,62.721,-36.17
2.9182,-21.255,-29.995,51.52,-64.549,-7.6764,-103.48,35.745,20.028,41.507,81.856,-5.6601,76.045,40.877,62.721,-36.17
2.9069,-21.41,-30.031,51.415,-64.648,-7.6995,-103.58,35.66,20.077,41.374,81.81,-5.7512,76.072,40.865,62.667,-36.231
2.9069,-21.41,-30.031,51.415,-64.648,-7.6995,-103.58,35.66,20.077,41.374,81.81,-5.7512,76.072,40.865,62.667,-36.231
2.8954,-21.565,-30.066,51.31,-64.746,-7.7224,-103.66,35.574,20.126,41.241,81.763,-5.8407,76.099,40.852,62.612,-36.292
2.8954,-21.565,-30.066,51.31,-64.746,-7.7224,-103.66,35.574,20.126,41.241,81.763,-5.8407,76.099,40.852,62.612,-36.292
2.8837,-21.719,-30.101,51.205,-64.844,-7.7449,-103.75,35.487,20.176,41.109,81.714,-5.9286,76.125,40.839,62.557,-36.352
2.8837,-21.719,-30.101,51.205,-64.844,-7.7449,-103.75,35.487,20.176,41.109,81.714,-5.9286,76.125,40.839,62.557,-36.352
2.872,-21.873,-30.135,51.1,-64.941,-7.7671,-103.84,35.399,20.225,40.977,81.664,-6.0149,76.152,40.826,62.502,-36.412
2.872,-21.873,-30.135,51.1,-64.941,-7.7671,-103.84,35.399,20.225,40.977,81.664,-6.0149,76.152,40.826,62.502,-36.412
2.872,-21.873,-30.135,51.1,-64.941,-7.7671,-103.84,35.399,20.225,40.977,81.664,-6.0149,76.152,40.826,62.502,-36.412
2.8601,-22.027,-30.168,50.995,-65.038,-7.7889,-103.92,35.31,20.274,40.845,81.613,-6.0996,76.178,40.812,62.447,-36.47
2.8601,-22.027,-30.168,50.995,-65.038,-7.7889,-103.92,35.31,20.274,40.845,81.613,-6.0996,76.178,40.812,62.447,-36.47
2.8481,-22.18,-30.2,50.889,-65.134,-7.8104,-104,35.219,20.324,40.713,81.56,-6.1826,76.205,40.799,62.391,-36.528
2.8481,-22.18,-30.2,50.889,-65.134,-7.8104,-104,35.219,20.324,40.713,81.56,-6.1826,76.205,40.799,62.391,-36.528
2.8359,-22.333,-30.231,50.783,-65.229,-7.8315,-104.07,35.128,20.373,40.582,81.506,-6.264,76.232,40.785,62.335,-36.584
2.8359,-22.333,-30.231,50.783,-65.229,-7.8315,-104.07,35.128,20.373,40.582,81.506,-6.264,76.232,40.785,62.335,-36.584
2.8236,-22.486,-30.262,50.677,-65.324,-7.8523,-104.15,35.036,20.422,40.452,81.45,-6.3437,76.258,40.771,62.279,-36.64
2.8236,-22.486,-30.262,50.677,-65.324,-7.8523,-104.15,35.036,20.422,40.452,81.45,-6.3437,76.258,40.771,62.279,-36.64
2.8113,-22.638,-30.291,50.571,-65.418,-7.8728,-104.22,34.942,20.472,40.321,81.393,-6.4217,76.285,40.756,62.223,-36.695
2.8113,-22.638,-30.291,50.571,-65.418,-7.8728,-104.22,34.942,20.472,40.321,81.393,-6.4217,76.285,40.756,62.223,-36.695
2.8113,-22.638,-30.291,50.571,-65.418,-7.8728,-104.22,34.942,20.472,40.321,81.393,-6.4217,76.285,40.756,62.223,-36.695
2.7861,-22.941,-30.348,50.359,-65.605,-7.9126,-104.36,34.752,20.571,40.062,81.275,-6.5726,76.338,40.727,62.109,-36.801
2.7861,-22.941,-30.348,50.359,-65.605,-7.9126,-104.36,34.752,20.571,40.062,81.275,-6.5726,76.338,40.727,62.109,-36.801
2.7861,-22.941,-30.348,50.359,-65.605,-7.9126,-104.36,34.752,20.571,40.062,81.275,-6.5726,76.338,40.727,62.109,-36.801
2.7734,-23.092,-30.375,50.253,-65.697,-7.9319,-104.42,34.655,20.62,39.933,81.215,-6.6455,76.365,40.712,62.052,-36.853
2.7605,-23.242,-30.402,50.147,-65.789,-7.9509,-104.48,34.557,20.669,39.805,81.152,-6.7167,76.391,40.697,61.995,-36.904
2.7605,-23.242,-30.402,50.147,-65.789,-7.9509,-104.48,34.557,20.669,39.805,81.152,-6.7167,76.391,40.697,61.995,-36.904
2.7475,-23.392,-30.427,50.041,-65.88,-7.9696,-104.54,34.459,20.719,39.677,81.089,-6.7861,76.418,40.682,61.937,-36.954
2.7475,-23.392,-30.427,50.041,-65.88,-7.9696,-104.54,34.459,20.719,39.677,81.089,-6.7861,76.418,40.682,61.937,-36.954
2.7344,-23.542,-30.451,49.934,-65.971,-7.9878,-104.6,34.359,20.768,39.55,81.024,-6.8537,76.444,40.667,61.879,-37.003
2.7344,-23.542,-30.451,49.934,-65.971,-7.9878,-104.6,34.359,20.768,39.55,81.024,-6.8537,76.444,40.667,61.879,-37.003
2.7212,-23.691,-30.475,49.828,-66.061,-8.0057,-104.65,34.258,20.818,39.423,80.958,-6.9196,76.471,40.651,61.821,-37.051
2.7212,-23.691,-30.475,49.828,-66.061,-8.0057,-104.65,34.258,20.818,39.423,80.958,-6.9196,76.471,40.651,61.821,-37.051
2.7079,-23.839,-30.498,49.722,-66.15,-8.0231,-104.7,34.157,20.867,39.296,80.89,-6.9836,76.497,40.636,61.763,-37.099
2.7079,-23.839,-30.498,49.722,-66.15,-8.0231,-104.7,34.157,20.867,39.296,80.89,-6.9836,76.497,40.636,61.763,-37.099
2.6944,-23.987,-30.52,49.616,-66.24,-8.0402,-104.75,34.054,20.916,39.171,80.822,-7.0459,76.523,40.62,61.705,-37.145
2.6944,-23.987,-30.52,49.616,-66.24,-8.0402,-104.75,34.054,20.916,39.171,80.822,-7.0459,76.523,40.62,61.705,-37.145
2.6809,-24.135,-30.541,49.509,-66.328,-8.0569,-104.8,33.951,20.965,39.045,80.752,-7.1063,76.55,40.605,61.646,-37.19
2.6809,-24.135,-30.541,49.509,-66.328,-8.0569,-104.8,33.951,20.965,39.045,80.752,-7.1063,76.55,40.605,61.646,-37.19
2.6809,-24.135,-30.541,49.509,-66.328,-8.0569,-104.8,33.951,20.965,39.045,80.752,-7.1063,76.55,40.605,61.646,-37.19
2.6672,-24.282,-30.561,49.403,-66.416,-8.0732,-104.84,33.846,21.015,38.921,80.68,-7.1649,76.576,40.589,61.587,-37.234
2.6672,-24.282,-30.561,49.403,-66.416,-8.0732,-104.84,33.846,21.015,38.921,80.68,-7.1649,76.576,40.589,61.587,-37.234
2.6534,-24.428,-30.581,49.297,-66.504,-8.0892,-104.89,33.741,21.064,38.797,80.608,-7.2217,76.602,40.573,61.528,-37.277
2.6395,-24.574,-30.599,49.191,-66.59,-8.1047,-104.92,33.634,21.113,38.673,80.534,-7.2766,76.628,40.558,61.469,-37.319
2.6255,-24.719,-30.617,49.085,-66.677,-8.1198,-104.96,33.527,21.162,38.551,80.459,-7.3296,76.654,40.542,61.409,-37.36
2.6255,-24.719,-30.617,49.085,-66.677,-8.1198,-104.96,33.527,21.162,38.551,80.459,-7.3296,76.654,40.542,61.409,-37.36
2.6114,-24.864,-30.634,48.979,-66.763,-8.1345,-104.99,33.419,21.211,38.429,80.382,-7.3807,76.68,40.526,61.35,-37.399
2.6114,-24.864,-30.634,48.979,-66.763,-8.1345,-104.99,33.419,21.211,38.429,80.382,-7.3807,76.68,40.526,61.35,-37.399
2.6114,-24.864,-30.634,48.979,-66.763,-8.1345,-104.99,33.419,21.211,38.429,80.382,-7.3807,76.68,40.526,61.35,-37.399
2.5971,-25.007,-30.65,48.873,-66.848,-8.1488,-105.03,33.31,21.259,38.307,80.305,-7.4299,76.705,40.511,61.29,-37.438
2.5971,-25.007,-30.65,48.873,-66.848,-8.1488,-105.03,33.31,21.259,38.307,80.305,-7.4299,76.705,40.511,61.29,-37.438
2.5971,-25.007,-30.65,48.873,-66.848,-8.1488,-105.03,33.31,21.259,38.307,80.305,-7.4299,76.705,40.511,61.29,-37.438
2.5827,-25.151,-30.665,48.767,-66.933,-8.1627,-105.06,33.2,21.308,38.187,80.226,-7.4773,76.731,40.495,61.23,-37.476
2.5827,-25.151,-30.665,48.767,-66.933,-8.1627,-105.06,33.2,21.308,38.187,80.226,-7.4773,76.731,40.495,61.23,-37.476
2.5683,-25.293,-30.679,48.661,-67.018,-8.1761,-105.08,33.089,21.357,38.067,80.146,-7.5227,76.757,40.48,61.169,-37.512
2.5683,-25.293,-30.679,48.661,-67.018,-8.1761,-105.08,33.089,21.357,38.067,80.146,-7.5227,76.757,40.48,61.169,-37.512
2.539,-25.577,-30.704,48.45,-67.185,-8.2018,-105.13,32.865,21.453,37.829,79.981,-7.6077,76.807,40.449,61.048,-37.582
2.539,-25.577,-30.704,48.45,-67.185,-8.2018,-105.13,32.865,21.453,37.829,79.981,-7.6077,76.807,40.449,61.048,-37.582
2.5241,-25.718,-30.716,48.345,-67.268,-8.214,-105.15,32.752,21.501,37.711,79.898,-7.6473,76.832,40.433,60.987,-37.615
2.5241,-25.718,-30.716,48.345,-67.268,-8.214,-105.15,32.752,21.501,37.711,79.898,-7.6473,76.832,40.433,60.987,-37.615
2.5241,-25.718,-30.716,48.345,-67.268,-8.214,-105.15,32.752,21.501,37.711,79.898,-7.6473,76.832,40.433,60.987,-37.615
2.5092,-25.858,-30.726,48.24,-67.351,-8.2258,-105.16,32.638,21.549,37.594,79.812,-7.6849,76.857,40.418,60.926,-37.647
2.5092,-25.858,-30.726,48.24,-67.351,-8.2258,-105.16,32.638,21.549,37.594,79.812,-7.6849,76.857,40.418,60.926,-37.647
2.5092,-25.858,-30.726,48.24,-67.351,-8.2258,-105.16,32.638,21.549,37.594,79.812,-7.6849,76.857,40.418,60.926,-37.647
2.4941,-25.997,-30.736,48.135,-67.433,-8.2371,-105.18,32.523,21.597,37.478,79.726,-7.7205,76.882,40.403,60.865,-37.678
2.4941,-25.997,-30.736,48.135,-67.433,-8.2371,-105.18,32.523,21.597,37.478,79.726,-7.7205,76.882,40.403,60.865,-37.678
2.4636,-26.273,-30.753,47.926,-67.596,-8.2585,-105.2,32.29,21.692,37.248,79.55,-7.7857,76.931,40.373,60.742,-37.736
2.4636,-26.273,-30.753,47.926,-67.596,-8.2585,-105.2,32.29,21.692,37.248,79.55,-7.7857,76.931,40.373,60.742,-37.736
2.4481,-26.41,-30.76,47.821,-67.677,-8.2685,-105.2,32.173,21.74,37.134,79.46,-7.8153,76.956,40.359,60.68,-37.764
2.4481,-26.41,-30.76,47.821,-67.677,-8.2685,-105.2,32.173,21.74,37.134,79.46,-7.8153,76.956,40.359,60.68,-37.764
2.4481,-26.41,-30.76,47.821,-67.677,-8.2685,-105.2,32.173,21.74,37.134,79.46,-7.8153,76.956,40.359,60.68,-37.764
2.4325,-26.547,-30.766,47.717,-67.757,-8.2781,-105.21,32.055,21.787,37.021,79.369,-7.8429,76.98,40.344,60.618,-37.79
2.4325,-26.547,-30.766,47.717,-67.757,-8.2781,-105.21,32.055,21.787,37.021,79.369,-7.8429,76.98,40.344,60.618,-37.79
2.4325,-26.547,-30.766,47.717,-67.757,-8.2781,-105.21,32.055,21.787,37.021,79.369,-7.8429,76.98,40.344,60.618,-37.79
2.4168,-26.682,-30.772,47.613,-67.837,-8.2872,-105.21,31.936,21.834,36.909,79.276,-7.8685,77.004,40.33,60.555,-37.815
2.401,-26.817,-30.776,47.51,-67.916,-8.2959,-105.21,31.816,21.881,36.798,79.183,-7.892,77.027,40.316,60.493,-37.839
2.401,-26.817,-30.776,47.51,-67.916,-8.2959,-105.21,31.816,21.881,36.798,79.183,-7.892,77.027,40.316,60.493,-37.839
2.385,-26.951,-30.78,47.406,-67.995,-8.3042,-105.2,31.696,21.927,36.688,79.088,-7.9134,77.051,40.302,60.43,-37.861
2.3689,-27.084,-30.783,47.303,-68.074,-8.312,-105.2,31.574,21.973,36.578,78.992,-7.9328,77.074,40.289,60.367,-37.882
2.3689,-27.084,-30.783,47.303,-68.074,-8.312,-105.2,31.574,21.973,36.578,78.992,-7.9328,77.074,40.289,60.367,-37.882
2.3689,-27.084,-30.783,47.303,-68.074,-8.312,-105.2,31.574,21.973,36.578,78.992,-7.9328,77.074,40.289,60.367,-37.882
2.3526,-27.216,-30.784,47.2,-68.152,-8.3193,-105.19,31.452,22.02,36.47,78.895,-7.9501,77.097,40.275,60.304,-37.902
2.3526,-27.216,-30.784,47.2,-68.152,-8.3193,-105.19,31.452,22.02,36.47,78.895,-7.9501,77.097,40.275,60.304,-37.902
2.3526,-27.216,-30.784,47.2,-68.152,-8.3193,-105.19,31.452,22.02,36.47,78.895,-7.9501,77.097,40.275,60.304,-37.902
2.3362,-27.348,-30.785,47.098,-68.23,-8.3262,-105.18,31.33,22.065,36.363,78.796,-7.9653,77.12,40.262,60.241,-37.921
2.3362,-27.348,-30.785,47.098,-68.23,-8.3262,-105.18,31.33,22.065,36.363,78.796,-7.9653,77.12,40.262,60.241,-37.921
2.3362,-27.348,-30.785,47.098,-68.23,-8.3262,-105.18,31.33,22.065,36.363,78.796,-7.9653,77.12,40.262,60.241,-37.921
2.303,-27.608,-30.784,46.894,-68.385,-8.3386,-105.15,31.082,22.156,36.15,78.596,-7.9895,77.165,40.237,60.114,-37.955
2.303,-27.608,-30.784,46.894,-68.385,-8.3386,-105.15,31.082,22.156,36.15,78.596,-7.9895,77.165,40.237,60.114,-37.955
2.2862,-27.737,-30.783,46.792,-68.461,-8.3441,-105.13,30.958,22.201,36.046,78.494,-7.9984,77.187,40.224,60.05,-37.97
2.2862,-27.737,-30.783,46.792,-68.461,-8.3441,-105.13,30.958,22.201,36.046,78.494,-7.9984,77.187,40.224,60.05,-37.97
2.2692,-27.865,-30.78,46.69,-68.538,-8.3492,-105.11,30.832,22.246,35.942,78.391,-8.0051,77.209,40.212,59.986,-37.984
2.2692,-27.865,-30.78,46.69,-68.538,-8.3492,-105.11,30.832,22.246,35.942,78.391,-8.0051,77.209,40.212,59.986,-37.984
2.252,-27.992,-30.777,46.589,-68.614,-8.3538,-105.09,30.706,22.291,35.839,78.287,-8.0098,77.23,40.201,59.921,-37.996
2.252,-27.992,-30.777,46.589,-68.614,-8.3538,-105.09,30.706,22.291,35.839,78.287,-8.0098,77.23,40.201,59.921,-37.996
2.2347,-28.118,-30.772,46.489,-68.689,-8.3579,-105.06,30.579,22.335,35.738,78.182,-8.0123,77.252,40.189,59.857,-38.007
2.2347,-28.118,-30.772,46.489,-68.689,-8.3579,-105.06,30.579,22.335,35.738,78.182,-8.0123,77.252,40.189,59.857,-38.007
2.2173,-28.243,-30.767,46.388,-68.765,-8.3615,-105.03,30.452,22.379,35.637,78.075,-8.0126,77.273,40.178,59.792,-38.017
2.2173,-28.243,-30.767,46.388,-68.765,-8.3615,-105.03,30.452,22.379,35.637,78.075,-8.0126,77.273,40.178,59.792,-38.017
2.1996,-28.368,-30.761,46.288,-68.839,-8.3647,-105,30.324,22.422,35.538,77.968,-8.0108,77.293,40.168,59.727,-38.025
2.1996,-28.368,-30.761,46.288,-68.839,-8.3647,-105,30.324,22.422,35.538,77.968,-8.0108,77.293,40.168,59.727,-38.025
2.1818,-28.491,-30.754,46.189,-68.914,-8.3674,-104.97,30.195,22.466,35.439,77.859,-8.0068,77.313,40.157,59.662,-38.032
2.1818,-28.491,-30.754,46.189,-68.914,-8.3674,-104.97,30.195,22.466,35.439,77.859,-8.0068,77.313,40.157,59.662,-38.032
2.1638,-28.613,-30.746,46.089,-68.988,-8.3696,-104.93,30.065,22.509,35.342,77.749,-8.0006,77.333,40.148,59.597,-38.038
2.1638,-28.613,-30.746,46.089,-68.988,-8.3696,-104.93,30.065,22.509,35.342,77.749,-8.0006,77.333,40.148,59.597,-38.038
2.1638,-28.613,-30.746,46.089,-68.988,-8.3696,-104.93,30.065,22.509,35.342,77.749,-8.0006,77.333,40.148,59.597,-38.038
2.1457,-28.735,-30.737,45.99,-69.062,-8.3714,-104.9,29.936,22.551,35.245,77.638,-7.9923,77.353,40.138,59.531,-38.042
2.1273,-28.855,-30.727,45.892,-69.135,-8.3727,-104.85,29.805,22.593,35.15,77.526,-7.9817,77.373,40.129,59.465,-38.045
2.1088,-28.975,-30.717,45.794,-69.209,-8.3735,-104.81,29.674,22.635,35.056,77.413,-7.969,77.392,40.12,59.399,-38.047
2.1088,-28.975,-30.717,45.794,-69.209,-8.3735,-104.81,29.674,22.635,35.056,77.413,-7.969,77.392,40.12,59.399,-38.047
2.1088,-28.975,-30.717,45.794,-69.209,-8.3735,-104.81,29.674,22.635,35.056,77.413,-7.969,77.392,40.12,59.399,-38.047
2.0901,-29.093,-30.705,45.696,-69.282,-8.3738,-104.77,29.542,22.677,34.963,77.299,-7.9541,77.41,40.112,59.333,-38.047
2.0901,-29.093,-30.705,45.696,-69.282,-8.3738,-104.77,29.542,22.677,34.963,77.299,-7.9541,77.41,40.112,59.333,-38.047
2.0901,-29.093,-30.705,45.696,-69.282,-8.3738,-104.77,29.542,22.677,34.963,77.299,-7.9541,77.41,40.112,59.333,-38.047
2.0712,-29.211,-30.693,45.599,-69.354,-8.3737,-104.72,29.41,22.718,34.871,77.183,-7.9369,77.428,40.104,59.266,-38.046
2.0521,-29.327,-30.679,45.502,-69.426,-8.3731,-104.67,29.277,22.759,34.78,77.067,-7.9175,77.446,40.097,59.2,-38.043
2.0328,-29.442,-30.665,45.405,-69.498,-8.3719,-104.62,29.143,22.799,34.691,76.949,-7.8959,77.464,40.09,59.133,-38.039
2.0328,-29.442,-30.665,45.405,-69.498,-8.3719,-104.62,29.143,22.799,34.691,76.949,-7.8959,77.464,40.09,59.133,-38.039
2.0328,-29.442,-30.665,45.405,-69.498,-8.3719,-104.62,29.143,22.799,34.691,76.949,-7.8959,77.464,40.09,59.133,-38.039
2.0133,-29.557,-30.65,45.309,-69.57,-8.3704,-104.56,29.009,22.839,34.602,76.831,-7.872,77.481,40.084,59.066,-38.034
2.0133,-29.557,-30.65,45.309,-69.57,-8.3704,-104.56,29.009,22.839,34.602,76.831,-7.872,77.481,40.084,59.066,-38.034
2.0133,-29.557,-30.65,45.309,-69.57,-8.3704,-104.56,29.009,22.839,34.602,76.831,-7.872,77.481,40.084,59.066,-38.034
1.9936,-29.67,-30.635,45.214,-69.641,-8.3683,-104.51,28.874,22.879,34.515,76.711,-7.8459,77.498,40.078,58.998,-38.027
1.9936,-29.67,-30.635,45.214,-69.641,-8.3683,-104.51,28.874,22.879,34.515,76.711,-7.8459,77.498,40.078,58.998,-38.027
1.9737,-29.782,-30.618,45.119,-69.712,-8.3658,-104.45,28.739,22.918,34.429,76.59,-7.8176,77.514,40.072,58.931,-38.018
1.9737,-29.782,-30.618,45.119,-69.712,-8.3658,-104.45,28.739,22.918,34.429,76.59,-7.8176,77.514,40.072,58.931,-38.018
1.9737,-29.782,-30.618,45.119,-69.712,-8.3658,-104.45,28.739,22.918,34.429,76.59,-7.8176,77.514,40.072,58.931,-38.018
1.9332,-30.003,-30.582,44.93,-69.854,-8.3592,-104.32,28.467,22.995,34.26,76.345,-7.7541,77.545,40.063,58.795,-37.997
1.9332,-30.003,-30.582,44.93,-69.854,-8.3592,-104.32,28.467,22.995,34.26,76.345,-7.7541,77.545,40.063,58.795,-37.997
1.9332,-30.003,-30.582,44.93,-69.854,-8.3592,-104.32,28.467,22.995,34.26,76.345,-7.7541,77.545,40.063,58.795,-37.997
1.9126,-30.112,-30.562,44.836,-69.924,-8.3552,-104.25,28.331,23.033,34.178,76.221,-7.719,77.56,40.059,58.727,-37.985
1.9126,-30.112,-30.562,44.836,-69.924,-8.3552,-104.25,28.331,23.033,34.178,76.221,-7.719,77.56,40.059,58.727,-37.985
1.9126,-30.112,-30.562,44.836,-69.924,-8.3552,-104.25,28.331,23.033,34.178,76.221,-7.719,77.56,40.059,58.727,-37.985
1.8707,-30.327,-30.521,44.65,-70.064,-8.3458,-104.11,28.056,23.108,34.016,75.969,-7.6419,77.589,40.053,58.589,-37.955
1.8707,-30.327,-30.521,44.65,-70.064,-8.3458,-104.11,28.056,23.108,34.016,75.969,-7.6419,77.589,40.053,58.589,-37.955
1.8494,-30.433,-30.499,44.557,-70.133,-8.3404,-104.04,27.918,23.144,33.938,75.842,-7.5999,77.602,40.051,58.52,-37.938
1.8494,-30.433,-30.499,44.557,-70.133,-8.3404,-104.04,27.918,23.144,33.938,75.842,-7.5999,77.602,40.051,58.52,-37.938
1.8279,-30.537,-30.476,44.466,-70.202,-8.3345,-103.96,27.779,23.18,33.86,75.714,-7.5557,77.616,40.049,58.451,-37.919
1.8279,-30.537,-30.476,44.466,-70.202,-8.3345,-103.96,27.779,23.18,33.86,75.714,-7.5557,77.616,40.049,58.451,-37.919
1.8061,-30.64,-30.453,44.374,-70.271,-8.3281,-103.89,27.64,23.216,33.784,75.584,-7.5091,77.628,40.048,58.381,-37.899
1.8061,-30.64,-30.453,44.374,-70.271,-8.3281,-103.89,27.64,23.216,33.784,75.584,-7.5091,77.628,40.048,58.381,-37.899
1.784,-30.743,-30.428,44.284,-70.34,-8.3212,-103.81,27.5,23.251,33.709,75.454,-7.4603,77.64,40.048,58.311,-37.877
1.784,-30.743,-30.428,44.284,-70.34,-8.3212,-103.81,27.5,23.251,33.709,75.454,-7.4603,77.64,40.048,58.311,-37.877
1.7617,-30.844,-30.403,44.193,-70.408,-8.3138,-103.72,27.36,23.285,33.635,75.323,-7.4091,77.652,40.048,58.241,-37.854
1.7617,-30.844,-30.403,44.193,-70.408,-8.3138,-103.72,27.36,23.285,33.635,75.323,-7.4091,77.652,40.048,58.241,-37.854
1.7391,-30.944,-30.376,44.103,-70.477,-8.306,-103.64,27.22,23.319,33.563,75.19,-7.3557,77.663,40.049,58.171,-37.83
1.7391,-30.944,-30.376,44.103,-70.477,-8.306,-103.64,27.22,23.319,33.563,75.19,-7.3557,77.663,40.049,58.171,-37.83
1.7163,-31.042,-30.349,44.014,-70.545,-8.2977,-103.55,27.079,23.353,33.492,75.057,-7.2999,77.674,40.05,58.1,-37.803
1.7163,-31.042,-30.349,44.014,-70.545,-8.2977,-103.55,27.079,23.353,33.492,75.057,-7.2999,77.674,40.05,58.1,-37.803
1.6932,-31.14,-30.321,43.926,-70.612,-8.2889,-103.46,26.937,23.386,33.422,74.922,-7.2419,77.684,40.052,58.03,-37.776
1.6932,-31.14,-30.321,43.926,-70.612,-8.2889,-103.46,26.937,23.386,33.422,74.922,-7.2419,77.684,40.052,58.03,-37.776
1.6697,-31.236,-30.292,43.837,-70.68,-8.2796,-103.37,26.796,23.419,33.353,74.787,-7.1815,77.693,40.055,57.958,-37.746
1.6697,-31.236,-30.292,43.837,-70.68,-8.2796,-103.37,26.796,23.419,33.353,74.787,-7.1815,77.693,40.055,57.958,-37.746
1.646,-31.331,-30.263,43.75,-70.747,-8.2699,-103.27,26.653,23.451,33.286,74.65,-7.1188,77.702,40.058,57.887,-37.715
1.646,-31.331,-30.263,43.75,-70.747,-8.2699,-103.27,26.653,23.451,33.286,74.65,-7.1188,77.702,40.058,57.887,-37.715
1.646,-31.331,-30.263,43.75,-70.747,-8.2699,-103.27,26.653,23.451,33.286,74.65,-7.1188,77.702,40.058,57.887,-37.715
1.622,-31.425,-30.232,43.663,-70.814,-8.2597,-103.18,26.511,23.482,33.22,74.512,-7.0537,77.711,40.062,57.815,-37.683
1.622,-31.425,-30.232,43.663,-70.814,-8.2597,-103.18,26.511,23.482,33.22,74.512,-7.0537,77.711,40.062,57.815,-37.683
1.5731,-31.609,-30.169,43.49,-70.948,-8.2378,-102.98,26.224,23.543,33.093,74.234,-6.9167,77.726,40.072,57.671,-37.613
1.5731,-31.609,-30.169,43.49,-70.948,-8.2378,-102.98,26.224,23.543,33.093,74.234,-6.9167,77.726,40.072,57.671,-37.613
1.5731,-31.609,-30.169,43.49,-70.948,-8.2378,-102.98,26.224,23.543,33.093,74.234,-6.9167,77.726,40.072,57.671,-37.613
1.5482,-31.7,-30.135,43.405,-71.015,-8.2262,-102.87,26.081,23.573,33.031,74.094,-6.8447,77.733,40.078,57.598,-37.576
1.5482,-31.7,-30.135,43.405,-71.015,-8.2262,-102.87,26.081,23.573,33.031,74.094,-6.8447,77.733,40.078,57.598,-37.576
1.5482,-31.7,-30.135,43.405,-71.015,-8.2262,-102.87,26.081,23.573,33.031,74.094,-6.8447,77.733,40.078,57.598,-37.576
1.523,-31.789,-30.102,43.32,-71.081,-8.2141,-102.77,25.937,23.602,32.97,73.952,-6.7704,77.739,40.085,57.526,-37.537
1.4975,-31.877,-30.067,43.236,-71.147,-8.2016,-102.66,25.792,23.63,32.911,73.81,-6.6937,77.744,40.092,57.452,-37.497
1.4716,-31.963,-30.031,43.152,-71.213,-8.1885,-102.55,25.647,23.658,32.854,73.666,-6.6147,77.749,40.1,57.379,-37.455
1.4716,-31.963,-30.031,43.152,-71.213,-8.1885,-102.55,25.647,23.658,32.854,73.666,-6.6147,77.749,40.1,57.379,-37.455
1.4454,-32.048,-29.995,43.069,-71.279,-8.175,-102.44,25.502,23.686,32.797,73.522,-6.5333,77.753,40.109,57.305,-37.411
1.4454,-32.048,-29.995,43.069,-71.279,-8.175,-102.44,25.502,23.686,32.797,73.522,-6.5333,77.753,40.109,57.305,-37.411
1.4454,-32.048,-29.995,43.069,-71.279,-8.175,-102.44,25.502,23.686,32.797,73.522,-6.5333,77.753,40.109,57.305,-37.411
1.4188,-32.132,-29.958,42.986,-71.345,-8.1611,-102.32,25.356,23.712,32.742,73.376,-6.4497,77.757,40.119,57.231,-37.366
1.4188,-32.132,-29.958,42.986,-71.345,-8.1611,-102.32,25.356,23.712,32.742,73.376,-6.4497,77.757,40.119,57.231,-37.366
1.3919,-32.215,-29.92,42.904,-71.41,-8.1467,-102.21,25.211,23.739,32.689,73.23,-6.3636,77.76,40.129,57.157,-37.319
1.3919,-32.215,-29.92,42.904,-71.41,-8.1467,-102.21,25.211,23.739,32.689,73.23,-6.3636,77.76,40.129,57.157,-37.319
1.3647,-32.297,-29.881,42.823,-71.475,-8.1319,-102.09,25.064,23.764,32.637,73.083,-6.2753,77.762,40.14,57.082,-37.271
1.3647,-32.297,-29.881,42.823,-71.475,-8.1319,-102.09,25.064,23.764,32.637,73.083,-6.2753,77.762,40.14,57.082,-37.271
1.3371,-32.377,-29.841,42.742,-71.541,-8.1165,-101.97,24.918,23.789,32.586,72.934,-6.1846,77.764,40.152,57.007,-37.221
1.3371,-32.377,-29.841,42.742,-71.541,-8.1165,-101.97,24.918,23.789,32.586,72.934,-6.1846,77.764,40.152,57.007,-37.221
1.3091,-32.456,-29.8,42.662,-71.606,-8.1008,-101.84,24.771,23.813,32.537,72.785,-6.0915,77.765,40.165,56.932,-37.169
1.3091,-32.456,-29.8,42.662,-71.606,-8.1008,-101.84,24.771,23.813,32.537,72.785,-6.0915,77.765,40.165,56.932,-37.169
1.2808,-32.534,-29.759,42.582,-71.67,-8.0846,-101.72,24.624,23.837,32.489,72.635,-5.9961,77.765,40.178,56.856,-37.116
1.2808,-32.534,-29.759,42.582,-71.67,-8.0846,-101.72,24.624,23.837,32.489,72.635,-5.9961,77.765,40.178,56.856,-37.116
1.2521,-32.61,-29.717,42.503,-71.735,-8.0679,-101.59,24.476,23.86,32.442,72.484,-5.8984,77.764,40.192,56.78,-37.061
1.2521,-32.61,-29.717,42.503,-71.735,-8.0679,-101.59,24.476,23.86,32.442,72.484,-5.8984,77.764,40.192,56.78,-37.061
1.223,-32.685,-29.674,42.425,-71.8,-8.0508,-101.46,24.328,23.882,32.397,72.331,-5.7984,77.763,40.207,56.704,-37.004
1.223,-32.685,-29.674,42.425,-71.8,-8.0508,-101.46,24.328,23.882,32.397,72.331,-5.7984,77.763,40.207,56.704,-37.004
1.1936,-32.759,-29.63,42.347,-71.864,-8.0333,-101.33,24.18,23.903,32.354,72.178,-5.696,77.761,40.223,56.627,-36.946
1.1936,-32.759,-29.63,42.347,-71.864,-8.0333,-101.33,24.18,23.903,32.354,72.178,-5.696,77.761,40.223,56.627,-36.946
1.1637,-32.831,-29.586,42.27,-71.928,-8.0154,-101.2,24.032,23.924,32.311,72.024,-5.5912,77.759,40.24,56.55,-36.886
1.1637,-32.831,-29.586,42.27,-71.928,-8.0154,-101.2,24.032,23.924,32.311,72.024,-5.5912,77.759,40.24,56.55,-36.886
1.1335,-32.902,-29.54,42.193,-71.992,-7.997,-101.06,23.883,23.945,32.271,71.87,-5.4841,77.756,40.257,56.472,-36.824
1.1335,-32.902,-29.54,42.193,-71.992,-7.997,-101.06,23.883,23.945,32.271,71.87,-5.4841,77.756,40.257,56.472,-36.824
1.1028,-32.972,-29.494,42.117,-72.056,-7.9782,-100.92,23.735,23.964,32.231,71.714,-5.3747,77.752,40.275,56.395,-36.761
1.1028,-32.972,-29.494,42.117,-72.056,-7.9782,-100.92,23.735,23.964,32.231,71.714,-5.3747,77.752,40.275,56.395,-36.761
1.0717,-33.041,-29.447,42.042,-72.12,-7.9589,-100.78,23.585,23.983,32.193,71.557,-5.263,77.747,40.294,56.317,-36.695
1.0717,-33.041,-29.447,42.042,-72.12,-7.9589,-100.78,23.585,23.983,32.193,71.557,-5.263,77.747,40.294,56.317,-36.695
1.0402,-33.108,-29.399,41.967,-72.184,-7.9392,-100.64,23.436,24.001,32.157,71.4,-5.1489,77.741,40.314,56.238,-36.629
1.0083,-33.174,-29.351,41.893,-72.247,-7.9192,-100.5,23.286,24.018,32.122,71.241,-5.0325,77.735,40.335,56.159,-36.56
1.0083,-33.174,-29.351,41.893,-72.247,-7.9192,-100.5,23.286,24.018,32.122,71.241,-5.0325,77.735,40.335,56.159,-36.56
1.0083,-33.174,-29.351,41.893,-72.247,-7.9192,-100.5,23.286,24.018,32.122,71.241,-5.0325,77.735,40.335,56.159,-36.56
0.97601,-33.238,-29.301,41.819,-72.311,-7.8987,-100.35,23.136,24.035,32.088,71.082,-4.9138,77.728,40.356,56.08,-36.49
0.97601,-33.238,-29.301,41.819,-72.311,-7.8987,-100.35,23.136,24.035,32.088,71.082,-4.9138,77.728,40.356,56.08,-36.49
0.97601,-33.238,-29.301,41.819,-72.311,-7.8987,-100.35,23.136,24.035,32.088,71.082,-4.9138,77.728,40.356,56.08,-36.49
0.94325,-33.302,-29.251,41.746,-72.374,-7.8778,-100.2,22.986,24.051,32.056,70.922,-4.7927,77.72,40.379,56.001,-36.418
0.91005,-33.364,-29.2,41.674,-72.438,-7.8565,-100.05,22.836,24.066,32.026,70.76,-4.6693,77.712,40.402,55.921,-36.345
0.8764,-33.424,-29.148,41.602,-72.501,-7.8347,-99.897,22.685,24.081,31.996,70.598,-4.5436,77.702,40.426,55.84,-36.27
0.8764,-33.424,-29.148,41.602,-72.501,-7.8347,-99.897,22.685,24.081,31.996,70.598,-4.5436,77.702,40.426,55.84,-36.27
0.84231,-33.483,-29.096,41.531,-72.564,-7.8126,-99.743,22.534,24.095,31.969,70.435,-4.4156,77.692,40.451,55.76,-36.193
0.84231,-33.483,-29.096,41.531,-72.564,-7.8126,-99.743,22.534,24.095,31.969,70.435,-4.4156,77.692,40.451,55.76,-36.193
0.80776,-33.541,-29.043,41.461,-72.627,-7.7901,-99.586,22.383,24.108,31.943,70.272,-4.2852,77.681,40.476,55.679,-36.114
0.80776,-33.541,-29.043,41.461,-72.627,-7.7901,-99.586,22.383,24.108,31.943,70.272,-4.2852,77.681,40.476,55.679,-36.114
0.77274,-33.598,-28.989,41.391,-72.69,-7.7673,-99.427,22.232,24.12,31.918,70.107,-4.1526,77.669,40.503,55.597,-36.034
0.77274,-33.598,-28.989,41.391,-72.69,-7.7673,-99.427,22.232,24.12,31.918,70.107,-4.1526,77.669,40.503,55.597,-36.034
0.77274,-33.598,-28.989,41.391,-72.69,-7.7673,-99.427,22.232,24.12,31.918,70.107,-4.1526,77.669,40.503,55.597,-36.034
0.73726,-33.653,-28.934,41.322,-72.752,-7.744,-99.267,22.081,24.132,31.894,69.942,-4.0176,77.657,40.531,55.515,-35.952
0.73726,-33.653,-28.934,41.322,-72.752,-7.744,-99.267,22.081,24.132,31.894,69.942,-4.0176,77.657,40.531,55.515,-35.952
0.70131,-33.707,-28.878,41.254,-72.815,-7.7204,-99.104,21.929,24.143,31.873,69.775,-3.8804,77.643,40.559,55.433,-35.868
0.66487,-33.759,-28.822,41.186,-72.877,-7.6963,-98.939,21.777,24.153,31.852,69.608,-3.7408,77.629,40.588,55.35,-35.783
0.66487,-33.759,-28.822,41.186,-72.877,-7.6963,-98.939,21.777,24.153,31.852,69.608,-3.7408,77.629,40.588,55.35,-35.783
0.62796,-33.81,-28.765,41.118,-72.94,-7.672,-98.773,21.625,24.162,31.833,69.44,-3.599,77.614,40.619,55.267,-35.695
0.62796,-33.81,-28.765,41.118,-72.94,-7.672,-98.773,21.625,24.162,31.833,69.44,-3.599,77.614,40.619,55.267,-35.695
0.62796,-33.81,-28.765,41.118,-72.94,-7.672,-98.773,21.625,24.162,31.833,69.44,-3.599,77.614,40.619,55.267,-35.695
0.59055,-33.86,-28.707,41.052,-73.002,-7.6472,-98.604,21.473,24.17,31.816,69.271,-3.4548,77.597,40.65,55.184,-35.606
0.59055,-33.86,-28.707,41.052,-73.002,-7.6472,-98.604,21.473,24.17,31.816,69.271,-3.4548,77.597,40.65,55.184,-35.606
0.59055,-33.86,-28.707,41.052,-73.002,-7.6472,-98.604,21.473,24.17,31.816,69.271,-3.4548,77.597,40.65,55.184,-35.606
0.55264,-33.909,-28.648,40.986,-73.064,-7.6221,-98.433,21.32,24.178,31.8,69.102,-3.3084,77.581,40.682,55.1,-35.516
0.51424,-33.956,-28.589,40.92,-73.127,-7.5967,-98.261,21.168,24.185,31.785,68.931,-3.1597,77.563,40.715,55.015,-35.423
0.47532,-34.002,-28.529,40.855,-73.189,-7.5709,-98.087,21.015,24.191,31.772,68.76,-3.0088,77.544,40.748,54.931,-35.329
0.47532,-34.002,-28.529,40.855,-73.189,-7.5709,-98.087,21.015,24.191,31.772,68.76,-3.0088,77.544,40.748,54.931,-35.329
0.47532,-34.002,-28.529,40.855,-73.189,-7.5709,-98.087,21.015,24.191,31.772,68.76,-3.0088,77.544,40.748,54.931,-35.329
0.4359,-34.046,-28.468,40.791,-73.251,-7.5447,-97.91,20.862,24.197,31.761,68.588,-2.8555,77.525,40.783,54.845,-35.233
0.4359,-34.046,-28.468,40.791,-73.251,-7.5447,-97.91,20.862,24.197,31.761,68.588,-2.8555,77.525,40.783,54.845,-35.233
0.39596,-34.089,-28.407,40.728,-73.313,-7.5183,-97.732,20.709,24.201,31.75,68.415,-2.7001,77.504,40.819,54.76,-35.136
0.39596,-34.089,-28.407,40.728,-73.313,-7.5183,-97.732,20.709,24.201,31.75,68.415,-2.7001,77.504,40.819,54.76,-35.136
0.35549,-34.131,-28.344,40.665,-73.374,-7.4915,-97.552,20.556,24.205,31.742,68.242,-2.5423,77.483,40.855,54.674,-35.036
0.35549,-34.131,-28.344,40.665,-73.374,-7.4915,-97.552,20.556,24.205,31.742,68.242,-2.5423,77.483,40.855,54.674,-35.036
0.3145,-34.171,-28.281,40.602,-73.436,-7.4643,-97.37,20.403,24.208,31.734,68.067,-2.3823,77.461,40.893,54.587,-34.935
0.3145,-34.171,-28.281,40.602,-73.436,-7.4643,-97.37,20.403,24.208,31.734,68.067,-2.3823,77.461,40.893,54.587,-34.935
0.27297,-34.21,-28.218,40.541,-73.498,-7.4369,-97.186,20.249,24.21,31.729,67.892,-2.2201,77.438,40.931,54.5,-34.833
0.27297,-34.21,-28.218,40.541,-73.498,-7.4369,-97.186,20.249,24.21,31.729,67.892,-2.2201,77.438,40.931,54.5,-34.833
0.2309,-34.248,-28.153,40.48,-73.559,-7.4092,-97,20.095,24.211,31.724,67.716,-2.0556,77.413,40.97,54.413,-34.728
0.2309,-34.248,-28.153,40.48,-73.559,-7.4092,-97,20.095,24.211,31.724,67.716,-2.0556,77.413,40.97,54.413,-34.728
0.2309,-34.248,-28.153,40.48,-73.559,-7.4092,-97,20.095,24.211,31.724,67.716,-2.0556,77.413,40.97,54.413,-34.728
0.18829,-34.284,-28.088,40.419,-73.621,-7.3811,-96.812,19.942,24.212,31.722,67.539,-1.8889,77.388,41.011,54.325,-34.622
0.18829,-34.284,-28.088,40.419,-73.621,-7.3811,-96.812,19.942,24.212,31.722,67.539,-1.8889,77.388,41.011,54.325,-34.622
0.18829,-34.284,-28.088,40.419,-73.621,-7.3811,-96.812,19.942,24.212,31.722,67.539,-1.8889,77.388,41.011,54.325,-34.622
0.10142,-34.353,-27.955,40.3,-73.744,-7.3241,-96.431,19.634,24.21,31.72,67.183,-1.5489,77.336,41.094,54.148,-34.404
0.10142,-34.353,-27.955,40.3,-73.744,-7.3241,-96.431,19.634,24.21,31.72,67.183,-1.5489,77.336,41.094,54.148,-34.404
0.057145,-34.385,-27.888,40.242,-73.805,-7.2952,-96.238,19.48,24.209,31.722,67.004,-1.3756,77.308,41.137,54.059,-34.292
0.057145,-34.385,-27.888,40.242,-73.805,-7.2952,-96.238,19.48,24.209,31.722,67.004,-1.3756,77.308,41.137,54.059,-34.292
0.012309,-34.416,-27.82,40.184,-73.866,-7.266,-96.043,19.325,24.206,31.725,66.825,-1.2,77.279,41.181,53.969,-34.179
0.012309,-34.416,-27.82,40.184,-73.866,-7.266,-96.043,19.325,24.206,31.725,66.825,-1.2,77.279,41.181,53.969,-34.179
-0.033096,-34.446,-27.751,40.126,-73.927,-7.2365,-95.846,19.171,24.202,31.729,66.644,-1.0223,77.249,41.226,53.879,-34.064
-0.033096,-34.446,-27.751,40.126,-73.927,-7.2365,-95.846,19.171,24.202,31.729,66.644,-1.0223,77.249,41.226,53.879,-34.064
-0.033096,-34.446,-27.751,40.126,-73.927,-7.2365,-95.846,19.171,24.202,31.729,66.644,-1.0223,77.249,41.226,53.879,-34.064
-0.079074,-34.474,-27.682,40.069,-73.989,-7.2068,-95.647,19.016,24.198,31.735,66.463,-0.84244,77.219,41.272,53.788,-33.947
-0.12563,-34.501,-27.612,40.013,-74.05,-7.1768,-95.447,18.862,24.193,31.742,66.281,-0.66038,77.187,41.318,53.697,-33.829
-0.17277,-34.527,-27.541,39.958,-74.111,-7.1466,-95.245,18.707,24.186,31.751,66.098,-0.47617,77.154,41.366,53.606,-33.709
-0.17277,-34.527,-27.541,39.958,-74.111,-7.1466,-95.245,18.707,24.186,31.751,66.098,-0.47617,77.154,41.366,53.606,-33.709
-0.22049,-34.551,-27.469,39.903,-74.171,-7.1161,-95.041,18.552,24.179,31.761,65.915,-0.2898,77.121,41.415,53.514,-33.587
-0.22049,-34.551,-27.469,39.903,-74.171,-7.1161,-95.041,18.552,24.179,31.761,65.915,-0.2898,77.121,41.415,53.514,-33.587
-0.22049,-34.551,-27.469,39.903,-74.171,-7.1161,-95.041,18.552,24.179,31.761,65.915,-0.2898,77.121,41.415,53.514,-33.587
-0.26881,-34.574,-27.397,39.848,-74.232,-7.0854,-94.835,18.397,24.172,31.772,65.731,-0.10128,77.086,41.464,53.421,-33.463
-0.26881,-34.574,-27.397,39.848,-74.232,-7.0854,-94.835,18.397,24.172,31.772,65.731,-0.10128,77.086,41.464,53.421,-33.463
-0.26881,-34.574,-27.397,39.848,-74.232,-7.0854,-94.835,18.397,24.172,31.772,65.731,-0.10128,77.086,41.464,53.421,-33.463
-0.31772,-34.596,-27.324,39.794,-74.293,-7.0545,-94.628,18.242,24.163,31.785,65.546,0.089362,77.051,41.515,53.328,-33.337
-0.36723,-34.616,-27.251,39.741,-74.354,-7.0233,-94.418,18.087,24.154,31.799,65.361,0.28213,77.014,41.566,53.234,-33.21
-0.41735,-34.635,-27.177,39.688,-74.414,-6.9919,-94.207,17.932,24.143,31.815,65.174,0.47701,76.976,41.619,53.14,-33.081
-0.41735,-34.635,-27.177,39.688,-74.414,-6.9919,-94.207,17.932,24.143,31.815,65.174,0.47701,76.976,41.619,53.14,-33.081
-0.46807,-34.653,-27.102,39.636,-74.475,-6.9604,-93.995,17.777,24.132,31.832,64.988,0.67399,76.938,41.672,53.046,-32.95
-0.46807,-34.653,-27.102,39.636,-74.475,-6.9604,-93.995,17.777,24.132,31.832,64.988,0.67399,76.938,41.672,53.046,-32.95
-0.46807,-34.653,-27.102,39.636,-74.475,-6.9604,-93.995,17.777,24.132,31.832,64.988,0.67399,76.938,41.672,53.046,-32.95
-0.51941,-34.669,-27.026,39.585,-74.535,-6.9286,-93.78,17.621,24.12,31.851,64.8,0.87306,76.898,41.726,52.951,-32.818
-0.51941,-34.669,-27.026,39.585,-74.535,-6.9286,-93.78,17.621,24.12,31.851,64.8,0.87306,76.898,41.726,52.951,-32.818
-0.51941,-34.669,-27.026,39.585,-74.535,-6.9286,-93.78,17.621,24.12,31.851,64.8,0.87306,76.898,41.726,52.951,-32.818
-0.57136,-34.684,-26.95,39.534,-74.596,-6.8967,-93.564,17.466,24.107,31.871,64.612,1.0742,76.858,41.782,52.855,-32.684
-0.62393,-34.698,-26.873,39.484,-74.656,-6.8645,-93.347,17.31,24.094,31.892,64.423,1.2774,76.816,41.838,52.759,-32.548
-0.62393,-34.698,-26.873,39.484,-74.656,-6.8645,-93.347,17.31,24.094,31.892,64.423,1.2774,76.816,41.838,52.759,-32.548
-0.67712,-34.711,-26.795,39.434,-74.716,-6.8322,-93.127,17.155,24.079,31.915,64.234,1.4827,76.773,41.895,52.662,-32.41
-0.67712,-34.711,-26.795,39.434,-74.716,-6.8322,-93.127,17.155,24.079,31.915,64.234,1.4827,76.773,41.895,52.662,-32.41
-0.73094,-34.722,-26.717,39.385,-74.777,-6.7998,-92.906,16.999,24.064,31.939,64.044,1.6901,76.73,41.953,52.565,-32.271
-0.73094,-34.722,-26.717,39.385,-74.777,-6.7998,-92.906,16.999,24.064,31.939,64.044,1.6901,76.73,41.953,52.565,-32.271
-0.78539,-34.732,-26.638,39.336,-74.837,-6.7672,-92.684,16.844,24.048,31.964,63.853,1.8994,76.685,42.012,52.468,-32.13
-0.78539,-34.732,-26.638,39.336,-74.837,-6.7672,-92.684,16.844,24.048,31.964,63.853,1.8994,76.685,42.012,52.468,-32.13
-0.84048,-34.741,-26.559,39.288,-74.897,-6.7344,-92.46,16.688,24.03,31.991,63.662,2.1108,76.639,42.072,52.37,-31.987
-0.84048,-34.741,-26.559,39.288,-74.897,-6.7344,-92.46,16.688,24.03,31.991,63.662,2.1108,76.639,42.072,52.37,-31.987
-0.8962,-34.749,-26.479,39.24,-74.957,-6.7015,-92.234,16.532,24.012,32.019,63.47,2.3242,76.592,42.133,52.271,-31.843
-0.8962,-34.749,-26.479,39.24,-74.957,-6.7015,-92.234,16.532,24.012,32.019,63.47,2.3242,76.592,42.133,52.271,-31.843
-0.95256,-34.755,-26.398,39.193,-75.017,-6.6685,-92.006,16.376,23.994,32.048,63.277,2.5396,76.544,42.195,52.172,-31.696
-0.95256,-34.755,-26.398,39.193,-75.017,-6.6685,-92.006,16.376,23.994,32.048,63.277,2.5396,76.544,42.195,52.172,-31.696
-1.0096,-34.76,-26.317,39.147,-75.077,-6.6353,-91.777,16.22,23.974,32.079,63.084,2.757,76.496,42.258,52.072,-31.549
-1.0096,-34.76,-26.317,39.147,-75.077,-6.6353,-91.777,16.22,23.974,32.079,63.084,2.757,76.496,42.258,52.072,-31.549
-1.0672,-34.764,-26.235,39.101,-75.136,-6.6021,-91.546,16.064,23.954,32.111,62.89,2.9764,76.446,42.322,51.972,-31.399
-1.0672,-34.764,-26.235,39.101,-75.136,-6.6021,-91.546,16.064,23.954,32.111,62.89,2.9764,76.446,42.322,51.972,-31.399
-1.0672,-34.764,-26.235,39.101,-75.136,-6.6021,-91.546,16.064,23.954,32.111,62.89,2.9764,76.446,42.322,51.972,-31.399
-1.1255,-34.766,-26.152,39.056,-75.196,-6.5687,-91.314,15.908,23.932,32.145,62.696,3.1977,76.395,42.386,51.871,-31.247
-1.1255,-34.766,-26.152,39.056,-75.196,-6.5687,-91.314,15.908,23.932,32.145,62.696,3.1977,76.395,42.386,51.871,-31.247
-1.1255,-34.766,-26.152,39.056,-75.196,-6.5687,-91.314,15.908,23.932,32.145,62.696,3.1977,76.395,42.386,51.871,-31.247
-1.2441,-34.768,-25.985,38.967,-75.315,-6.5017,-90.845,15.596,23.887,32.215,62.305,3.6462,76.289,42.518,51.668,-30.94
-1.2441,-34.768,-25.985,38.967,-75.315,-6.5017,-90.845,15.596,23.887,32.215,62.305,3.6462,76.289,42.518,51.668,-30.94
-1.3043,-34.767,-25.9,38.923,-75.375,-6.4681,-90.608,15.44,23.863,32.253,62.109,3.8733,76.235,42.586,51.565,-30.783
-1.3043,-34.767,-25.9,38.923,-75.375,-6.4681,-90.608,15.44,23.863,32.253,62.109,3.8733,76.235,42.586,51.565,-30.783
-1.3652,-34.764,-25.815,38.88,-75.434,-6.4345,-90.37,15.284,23.838,32.291,61.913,4.1023,76.18,42.654,51.462,-30.625
-1.3652,-34.764,-25.815,38.88,-75.434,-6.4345,-90.37,15.284,23.838,32.291,61.913,4.1023,76.18,42.654,51.462,-30.625
-1.3652,-34.764,-25.815,38.88,-75.434,-6.4345,-90.37,15.284,23.838,32.291,61.913,4.1023,76.18,42.654,51.462,-30.625
-1.4268,-34.761,-25.729,38.837,-75.493,-6.4007,-90.13,15.127,23.813,32.331,61.716,4.3332,76.124,42.724,51.359,-30.465
-1.4268,-34.761,-25.729,38.837,-75.493,-6.4007,-90.13,15.127,23.813,32.331,61.716,4.3332,76.124,42.724,51.359,-30.465
-1.552,-34.75,-25.556,38.753,-75.611,-6.3332,-89.646,14.815,23.759,32.414,61.32,4.8007,76.008,42.865,51.15,-30.14
-1.552,-34.75,-25.556,38.753,-75.611,-6.3332,-89.646,14.815,23.759,32.414,61.32,4.8007,76.008,42.865,51.15,-30.14
-1.6155,-34.743,-25.469,38.711,-75.67,-6.2993,-89.401,14.659,23.731,32.458,61.121,5.0372,75.948,42.937,51.045,-29.976
-1.6155,-34.743,-25.469,38.711,-75.67,-6.2993,-89.401,14.659,23.731,32.458,61.121,5.0372,75.948,42.937,51.045,-29.976
-1.6155,-34.743,-25.469,38.711,-75.67,-6.2993,-89.401,14.659,23.731,32.458,61.121,5.0372,75.948,42.937,51.045,-29.976
-1.6798,-34.735,-25.38,38.671,-75.729,-6.2655,-89.155,14.502,23.702,32.503,60.922,5.2756,75.887,43.01,50.94,-29.809
-1.6798,-34.735,-25.38,38.671,-75.729,-6.2655,-89.155,14.502,23.702,32.503,60.922,5.2756,75.887,43.01,50.94,-29.809
-1.6798,-34.735,-25.38,38.671,-75.729,-6.2655,-89.155,14.502,23.702,32.503,60.922,5.2756,75.887,43.01,50.94,-29.809
-1.7447,-34.725,-25.292,38.63,-75.788,-6.2316,-88.908,14.346,23.673,32.549,60.722,5.5158,75.826,43.084,50.833,-29.641
-1.8103,-34.715,-25.202,38.591,-75.847,-6.1978,-88.659,14.189,23.642,32.596,60.522,5.7578,75.763,43.159,50.727,-29.471
-1.8765,-34.703,-25.112,38.551,-75.905,-6.1639,-88.409,14.033,23.611,32.645,60.321,6.0015,75.699,43.235,50.619,-29.299
-1.8765,-34.703,-25.112,38.551,-75.905,-6.1639,-88.409,14.033,23.611,32.645,60.321,6.0015,75.699,43.235,50.619,-29.299
-1.8765,-34.703,-25.112,38.551,-75.905,-6.1639,-88.409,14.033,23.611,32.645,60.321,6.0015,75.699,43.235,50.619,-29.299
-1.9434,-34.691,-25.022,38.512,-75.964,-6.1301,-88.157,13.877,23.579,32.694,60.12,6.2471,75.634,43.311,50.511,-29.126
-1.9434,-34.691,-25.022,38.512,-75.964,-6.1301,-88.157,13.877,23.579,32.694,60.12,6.2471,75.634,43.311,50.511,-29.126
-1.9434,-34.691,-25.022,38.512,-75.964,-6.1301,-88.157,13.877,23.579,32.694,60.12,6.2471,75.634,43.311,50.511,-29.126
-2.011,-34.677,-24.931,38.474,-76.022,-6.0963,-87.904,13.72,23.546,32.745,59.918,6.4944,75.568,43.389,50.403,-28.951
-2.011,-34.677,-24.931,38.474,-76.022,-6.0963,-87.904,13.72,23.546,32.745,59.918,6.4944,75.568,43.389,50.403,-28.951
-2.0793,-34.662,-24.839,38.436,-76.081,-6.0626,-87.65,13.564,23.512,32.797,59.716,6.7435,75.501,43.467,50.294,-28.775
-2.1483,-34.645,-24.747,38.398,-76.139,-6.0289,-87.394,13.407,23.477,32.85,59.514,6.9943,75.433,43.546,50.184,-28.597
-2.2179,-34.628,-24.654,38.361,-76.197,-5.9953,-87.137,13.251,23.442,32.904,59.31,7.2468,75.363,43.626,50.074,-28.417
-2.2179,-34.628,-24.654,38.361,-76.197,-5.9953,-87.137,13.251,23.442,32.904,59.31,7.2468,75.363,43.626,50.074,-28.417
-2.2179,-34.628,-24.654,38.361,-76.197,-5.9953,-87.137,13.251,23.442,32.904,59.31,7.2468,75.363,43.626,50.074,-28.417
-2.2882,-34.61,-24.561,38.325,-76.255,-5.9618,-86.879,13.094,23.405,32.96,59.107,7.501,75.293,43.708,49.963,-28.236
-2.2882,-34.61,-24.561,38.325,-76.255,-5.9618,-86.879,13.094,23.405,32.96,59.107,7.501,75.293,43.708,49.963,-28.236
-2.2882,-34.61,-24.561,38.325,-76.255,-5.9618,-86.879,13.094,23.405,32.96,59.107,7.501,75.293,43.708,49.963,-28.236
-2.3592,-34.591,-24.467,38.289,-76.312,-5.9283,-86.619,12.938,23.368,33.016,58.903,7.7568,75.222,43.789,49.852,-28.053
-2.3592,-34.591,-24.467,38.289,-76.312,-5.9283,-86.619,12.938,23.368,33.016,58.903,7.7568,75.222,43.789,49.852,-28.053
-2.4308,-34.57,-24.372,38.253,-76.37,-5.8949,-86.358,12.781,23.331,33.074,58.699,8.0144,75.149,43.872,49.74,-27.868
-2.5032,-34.549,-24.277,38.217,-76.428,-5.8617,-86.095,12.624,23.292,33.133,58.494,8.2735,75.075,43.956,49.628,-27.682
-2.5032,-34.549,-24.277,38.217,-76.428,-5.8617,-86.095,12.624,23.292,33.133,58.494,8.2735,75.075,43.956,49.628,-27.682
-2.5762,-34.526,-24.182,38.183,-76.485,-5.8285,-85.831,12.468,23.253,33.193,58.289,8.5344,75.001,44.04,49.515,-27.494
-2.5762,-34.526,-24.182,38.183,-76.485,-5.8285,-85.831,12.468,23.253,33.193,58.289,8.5344,75.001,44.04,49.515,-27.494
-2.6499,-34.503,-24.085,38.148,-76.542,-5.7955,-85.566,12.311,23.212,33.254,58.083,8.7968,74.925,44.126,49.401,-27.305
-2.6499,-34.503,-24.085,38.148,-76.542,-5.7955,-85.566,12.311,23.212,33.254,58.083,8.7968,74.925,44.126,49.401,-27.305
-2.7243,-34.478,-23.989,38.114,-76.599,-5.7626,-85.3,12.155,23.171,33.315,57.878,9.0608,74.848,44.212,49.287,-27.114
-2.7243,-34.478,-23.989,38.114,-76.599,-5.7626,-85.3,12.155,23.171,33.315,57.878,9.0608,74.848,44.212,49.287,-27.114
-2.7993,-34.453,-23.891,38.08,-76.656,-5.7299,-85.032,11.998,23.13,33.378,57.671,9.3264,74.77,44.299,49.173,-26.922
-2.7993,-34.453,-23.891,38.08,-76.656,-5.7299,-85.032,11.998,23.13,33.378,57.671,9.3264,74.77,44.299,49.173,-26.922
-2.8751,-34.426,-23.794,38.047,-76.713,-5.6974,-84.763,11.842,23.087,33.443,57.465,9.5935,74.691,44.387,49.057,-26.728
-2.9515,-34.399,-23.695,38.014,-76.77,-5.665,-84.493,11.685,23.044,33.508,57.258,9.8622,74.611,44.476,48.941,-26.532
-2.9515,-34.399,-23.695,38.014,-76.77,-5.665,-84.493,11.685,23.044,33.508,57.258,9.8622,74.611,44.476,48.941,-26.532
-3.0285,-34.37,-23.596,37.981,-76.826,-5.6327,-84.221,11.528,23,33.574,57.05,10.132,74.529,44.565,48.825,-26.335
-3.0285,-34.37,-23.596,37.981,-76.826,-5.6327,-84.221,11.528,23,33.574,57.05,10.132,74.529,44.565,48.825,-26.335
-3.0285,-34.37,-23.596,37.981,-76.826,-5.6327,-84.221,11.528,23,33.574,57.05,10.132,74.529,44.565,48.825,-26.335
-3.1063,-34.341,-23.497,37.949,-76.883,-5.6007,-83.948,11.372,22.955,33.641,56.843,10.404,74.447,44.655,48.708,-26.136
-3.1063,-34.341,-23.497,37.949,-76.883,-5.6007,-83.948,11.372,22.955,33.641,56.843,10.404,74.447,44.655,48.708,-26.136
-3.1063,-34.341,-23.497,37.949,-76.883,-5.6007,-83.948,11.372,22.955,33.641,56.843,10.404,74.447,44.655,48.708,-26.136
-3.1847,-34.31,-23.397,37.917,-76.939,-5.5689,-83.675,11.215,22.91,33.709,56.635,10.677,74.363,44.747,48.591,-25.936
-3.2638,-34.279,-23.297,37.886,-76.995,-5.5373,-83.399,11.059,22.864,33.778,56.426,10.952,74.279,44.839,48.473,-25.734
-3.2638,-34.279,-23.297,37.886,-76.995,-5.5373,-83.399,11.059,22.864,33.778,56.426,10.952,74.279,44.839,48.473,-25.734
-3.2638,-34.279,-23.297,37.886,-76.995,-5.5373,-83.399,11.059,22.864,33.778,56.426,10.952,74.279,44.839,48.473,-25.734
-3.3436,-34.247,-23.196,37.854,-77.05,-5.5059,-83.123,10.902,22.817,33.848,56.218,11.228,74.193,44.931,48.354,-25.531
-3.3436,-34.247,-23.196,37.854,-77.05,-5.5059,-83.123,10.902,22.817,33.848,56.218,11.228,74.193,44.931,48.354,-25.531
-3.3436,-34.247,-23.196,37.854,-77.05,-5.5059,-83.123,10.902,22.817,33.848,56.218,11.228,74.193,44.931,48.354,-25.531
-3.5051,-34.18,-22.992,37.793,-77.161,-5.4439,-82.567,10.589,22.721,33.99,55.8,11.785,74.019,45.119,48.115,-25.12
-3.5051,-34.18,-22.992,37.793,-77.161,-5.4439,-82.567,10.589,22.721,33.99,55.8,11.785,74.019,45.119,48.115,-25.12
-3.5051,-34.18,-22.992,37.793,-77.161,-5.4439,-82.567,10.589,22.721,33.99,55.8,11.785,74.019,45.119,48.115,-25.12
-3.5868,-34.145,-22.89,37.763,-77.217,-5.4133,-82.287,10.432,22.672,34.063,55.59,12.065,73.93,45.215,47.995,-24.912
-3.6693,-34.109,-22.787,37.733,-77.272,-5.3829,-82.006,10.276,22.622,34.137,55.38,12.347,73.84,45.311,47.874,-24.703
-3.7523,-34.073,-22.683,37.703,-77.327,-5.3529,-81.724,10.119,22.572,34.211,55.17,12.63,73.749,45.407,47.752,-24.492
-3.7523,-34.073,-22.683,37.703,-77.327,-5.3529,-81.724,10.119,22.572,34.211,55.17,12.63,73.749,45.407,47.752,-24.492
-3.8361,-34.035,-22.579,37.674,-77.381,-5.3231,-81.441,9.9623,22.521,34.287,54.96,12.914,73.657,45.505,47.63,-24.28
-3.8361,-34.035,-22.579,37.674,-77.381,-5.3231,-81.441,9.9623,22.521,34.287,54.96,12.914,73.657,45.505,47.63,-24.28
-3.8361,-34.035,-22.579,37.674,-77.381,-5.3231,-81.441,9.9623,22.521,34.287,54.96,12.914,73.657,45.505,47.63,-24.28
-3.9205,-33.997,-22.474,37.645,-77.436,-5.2936,-81.156,9.8057,22.469,34.363,54.749,13.2,73.564,45.603,47.508,-24.066
-3.9205,-33.997,-22.474,37.645,-77.436,-5.2936,-81.156,9.8057,22.469,34.363,54.749,13.2,73.564,45.603,47.508,-24.066
-3.9205,-33.997,-22.474,37.645,-77.436,-5.2936,-81.156,9.8057,22.469,34.363,54.749,13.2,73.564,45.603,47.508,-24.066
-4.0055,-33.958,-22.369,37.617,-77.49,-5.2644,-80.871,9.6491,22.416,34.44,54.539,13.487,73.47,45.702,47.385,-23.851
-4.0055,-33.958,-22.369,37.617,-77.49,-5.2644,-80.871,9.6491,22.416,34.44,54.539,13.487,73.47,45.702,47.385,-23.851
-4.0055,-33.958,-22.369,37.617,-77.49,-5.2644,-80.871,9.6491,22.416,34.44,54.539,13.487,73.47,45.702,47.385,-23.851
-4.1775,-33.877,-22.158,37.56,-77.597,-5.2071,-80.297,9.336,22.31,34.596,54.117,14.065,73.278,45.902,47.137,-23.417
-4.1775,-33.877,-22.158,37.56,-77.597,-5.2071,-80.297,9.336,22.31,34.596,54.117,14.065,73.278,45.902,47.137,-23.417
-4.2645,-33.836,-22.051,37.532,-77.651,-5.179,-80.008,9.1794,22.255,34.676,53.905,14.356,73.181,46.003,47.012,-23.198
-4.2645,-33.836,-22.051,37.532,-77.651,-5.179,-80.008,9.1794,22.255,34.676,53.905,14.356,73.181,46.003,47.012,-23.198
-4.3521,-33.794,-21.944,37.505,-77.704,-5.1512,-79.718,9.0228,22.2,34.756,53.694,14.648,73.083,46.105,46.887,-22.977
-4.3521,-33.794,-21.944,37.505,-77.704,-5.1512,-79.718,9.0228,22.2,34.756,53.694,14.648,73.083,46.105,46.887,-22.977
-4.3521,-33.794,-21.944,37.505,-77.704,-5.1512,-79.718,9.0228,22.2,34.756,53.694,14.648,73.083,46.105,46.887,-22.977
-4.4404,-33.751,-21.837,37.477,-77.757,-5.1238,-79.427,8.8663,22.144,34.837,53.482,14.941,72.983,46.208,46.761,-22.755
-4.5292,-33.707,-21.729,37.45,-77.81,-5.0968,-79.136,8.7097,22.088,34.919,53.27,15.236,72.883,46.311,46.635,-22.531
-4.6188,-33.663,-21.62,37.423,-77.862,-5.0702,-78.843,8.5531,22.031,35.001,53.058,15.531,72.781,46.415,46.508,-22.306
-4.6188,-33.663,-21.62,37.423,-77.862,-5.0702,-78.843,8.5531,22.031,35.001,53.058,15.531,72.781,46.415,46.508,-22.306
-4.7089,-33.618,-21.511,37.397,-77.914,-5.044,-78.549,8.3966,21.974,35.084,52.846,15.828,72.679,46.52,46.38,-22.08
-4.7089,-33.618,-21.511,37.397,-77.914,-5.044,-78.549,8.3966,21.974,35.084,52.846,15.828,72.679,46.52,46.38,-22.08
-4.7089,-33.618,-21.511,37.397,-77.914,-5.044,-78.549,8.3966,21.974,35.084,52.846,15.828,72.679,46.52,46.38,-22.08
-4.7996,-33.572,-21.402,37.37,-77.966,-5.0182,-78.254,8.2401,21.916,35.168,52.633,16.126,72.575,46.625,46.252,-21.852
-4.7996,-33.572,-21.402,37.37,-77.966,-5.0182,-78.254,8.2401,21.916,35.168,52.633,16.126,72.575,46.625,46.252,-21.852
-4.891,-33.526,-21.292,37.344,-78.018,-4.9928,-77.958,8.0835,21.857,35.253,52.421,16.425,72.47,46.731,46.124,-21.623
-4.891,-33.526,-21.292,37.344,-78.018,-4.9928,-77.958,8.0835,21.857,35.253,52.421,16.425,72.47,46.731,46.124,-21.623
-4.983,-33.479,-21.182,37.318,-78.069,-4.9679,-77.661,7.927,21.798,35.338,52.208,16.725,72.365,46.838,45.995,-21.393
-4.983,-33.479,-21.182,37.318,-78.069,-4.9679,-77.661,7.927,21.798,35.338,52.208,16.725,72.365,46.838,45.995,-21.393
-5.0756,-33.431,-21.071,37.293,-78.12,-4.9435,-77.364,7.7704,21.738,35.424,51.995,17.026,72.258,46.946,45.865,-21.161
-5.0756,-33.431,-21.071,37.293,-78.12,-4.9435,-77.364,7.7704,21.738,35.424,51.995,17.026,72.258,46.946,45.865,-21.161
-5.1688,-33.383,-20.959,37.267,-78.171,-4.9195,-77.065,7.6139,21.678,35.51,51.782,17.328,72.151,47.054,45.735,-20.929
-5.1688,-33.383,-20.959,37.267,-78.171,-4.9195,-77.065,7.6139,21.678,35.51,51.782,17.328,72.151,47.054,45.735,-20.929
-5.2625,-33.334,-20.848,37.242,-78.222,-4.896,-76.765,7.4574,21.617,35.597,51.57,17.631,72.042,47.162,45.604,-20.694
-5.2625,-33.334,-20.848,37.242,-78.222,-4.896,-76.765,7.4574,21.617,35.597,51.57,17.631,72.042,47.162,45.604,-20.694
-5.3569,-33.284,-20.735,37.216,-78.272,-4.873,-76.465,7.3009,21.556,35.685,51.357,17.935,71.932,47.272,45.473,-20.459
-5.4519,-33.234,-20.623,37.191,-78.322,-4.8505,-76.163,7.1444,21.494,35.773,51.143,18.24,71.822,47.382,45.342,-20.222
-5.4519,-33.234,-20.623,37.191,-78.322,-4.8505,-76.163,7.1444,21.494,35.773,51.143,18.24,71.822,47.382,45.342,-20.222
-5.5474,-33.183,-20.51,37.166,-78.371,-4.8285,-75.861,6.9879,21.432,35.862,50.93,18.546,71.71,47.492,45.209,-19.984
-5.5474,-33.183,-20.51,37.166,-78.371,-4.8285,-75.861,6.9879,21.432,35.862,50.93,18.546,71.71,47.492,45.209,-19.984
-5.5474,-33.183,-20.51,37.166,-78.371,-4.8285,-75.861,6.9879,21.432,35.862,50.93,18.546,71.71,47.492,45.209,-19.984
-5.6435,-33.132,-20.396,37.142,-78.42,-4.807,-75.557,6.8314,21.369,35.951,50.717,18.853,71.598,47.603,45.077,-19.745
-5.6435,-33.132,-20.396,37.142,-78.42,-4.807,-75.557,6.8314,21.369,35.951,50.717,18.853,71.598,47.603,45.077,-19.745
-5.6435,-33.132,-20.396,37.142,-78.42,-4.807,-75.557,6.8314,21.369,35.951,50.717,18.853,71.598,47.603,45.077,-19.745
-5.7402,-33.08,-20.282,37.117,-78.469,-4.7861,-75.253,6.6749,21.306,36.041,50.504,19.161,71.484,47.715,44.943,-19.504
-5.7402,-33.08,-20.282,37.117,-78.469,-4.7861,-75.253,6.6749,21.306,36.041,50.504,19.161,71.484,47.715,44.943,-19.504
-5.8375,-33.028,-20.168,37.093,-78.517,-4.7657,-74.948,6.5184,21.242,36.131,50.291,19.47,71.369,47.827,44.81,-19.262
-5.8375,-33.028,-20.168,37.093,-78.517,-4.7657,-74.948,6.5184,21.242,36.131,50.291,19.47,71.369,47.827,44.81,-19.262
-5.9353,-32.975,-20.053,37.068,-78.566,-4.7459,-74.642,6.3619,21.178,36.222,50.077,19.779,71.254,47.94,44.676,-19.019
-5.9353,-32.975,-20.053,37.068,-78.566,-4.7459,-74.642,6.3619,21.178,36.222,50.077,19.779,71.254,47.94,44.676,-19.019
-5.9353,-32.975,-20.053,37.068,-78.566,-4.7459,-74.642,6.3619,21.178,36.222,50.077,19.779,71.254,47.94,44.676,-19.019
-6.1326,-32.868,-19.822,37.02,-78.661,-4.708,-74.028,6.049,21.048,36.406,49.651,20.401,71.02,48.168,44.406,-18.53
-6.1326,-32.868,-19.822,37.02,-78.661,-4.708,-74.028,6.049,21.048,36.406,49.651,20.401,71.02,48.168,44.406,-18.53
-6.1326,-32.868,-19.822,37.02,-78.661,-4.708,-74.028,6.049,21.048,36.406,49.651,20.401,71.02,48.168,44.406,-18.53
-6.232,-32.814,-19.705,36.996,-78.708,-4.6899,-73.719,5.8925,20.982,36.498,49.437,20.713,70.902,48.283,44.27,-18.283
-6.232,-32.814,-19.705,36.996,-78.708,-4.6899,-73.719,5.8925,20.982,36.498,49.437,20.713,70.902,48.283,44.27,-18.283
-6.332,-32.76,-19.589,36.972,-78.754,-4.6724,-73.41,5.7361,20.916,36.59,49.224,21.026,70.782,48.398,44.134,-18.035
-6.4325,-32.705,-19.472,36.949,-78.801,-4.6556,-73.1,5.5796,20.85,36.684,49.011,21.34,70.662,48.514,43.997,-17.786
-6.4325,-32.705,-19.472,36.949,-78.801,-4.6556,-73.1,5.5796,20.85,36.684,49.011,21.34,70.662,48.514,43.997,-17.786
-6.5336,-32.649,-19.354,36.925,-78.846,-4.6394,-72.789,5.4231,20.783,36.777,48.798,21.654,70.541,48.63,43.86,-17.536
-6.5336,-32.649,-19.354,36.925,-78.846,-4.6394,-72.789,5.4231,20.783,36.777,48.798,21.654,70.541,48.63,43.86,-17.536
-6.6351,-32.593,-19.236,36.901,-78.892,-4.6238,-72.477,5.2667,20.716,36.871,48.585,21.969,70.419,48.747,43.723,-17.285
-6.6351,-32.593,-19.236,36.901,-78.892,-4.6238,-72.477,5.2667,20.716,36.871,48.585,21.969,70.419,48.747,43.723,-17.285
-6.7372,-32.537,-19.118,36.878,-78.937,-4.6089,-72.165,5.1102,20.649,36.965,48.372,22.285,70.296,48.864,43.585,-17.033
-6.7372,-32.537,-19.118,36.878,-78.937,-4.6089,-72.165,5.1102,20.649,36.965,48.372,22.285,70.296,48.864,43.585,-17.033
-6.8397,-32.481,-18.999,36.854,-78.981,-4.5947,-71.852,4.9538,20.581,37.06,48.159,22.601,70.172,48.982,43.446,-16.779
-6.8397,-32.481,-18.999,36.854,-78.981,-4.5947,-71.852,4.9538,20.581,37.06,48.159,22.601,70.172,48.982,43.446,-16.779
-6.9428,-32.424,-18.88,36.831,-79.025,-4.5811,-71.538,4.7973,20.512,37.155,47.946,22.918,70.047,49.1,43.307,-16.525
-6.9428,-32.424,-18.88,36.831,-79.025,-4.5811,-71.538,4.7973,20.512,37.155,47.946,22.918,70.047,49.1,43.307,-16.525
-7.0463,-32.367,-18.76,36.808,-79.069,-4.5683,-71.223,4.6409,20.444,37.25,47.733,23.236,69.922,49.219,43.168,-16.269
-7.0463,-32.367,-18.76,36.808,-79.069,-4.5683,-71.223,4.6409,20.444,37.25,47.733,23.236,69.922,49.219,43.168,-16.269
-7.1503,-32.309,-18.64,36.784,-79.112,-4.5561,-70.908,4.4845,20.375,37.345,47.52,23.554,69.795,49.338,43.028,-16.013
-7.1503,-32.309,-18.64,36.784,-79.112,-4.5561,-70.908,4.4845,20.375,37.345,47.52,23.554,69.795,49.338,43.028,-16.013
-7.2548,-32.252,-18.52,36.761,-79.155,-4.5446,-70.592,4.328,20.306,37.441,47.308,23.873,69.668,49.458,42.888,-15.755
-7.2548,-32.252,-18.52,36.761,-79.155,-4.5446,-70.592,4.328,20.306,37.441,47.308,23.873,69.668,49.458,42.888,-15.755
-7.3597,-32.193,-18.399,36.738,-79.198,-4.5339,-70.275,4.1716,20.237,37.537,47.095,24.192,69.539,49.578,42.747,-15.496
-7.3597,-32.193,-18.399,36.738,-79.198,-4.5339,-70.275,4.1716,20.237,37.537,47.095,24.192,69.539,49.578,42.747,-15.496
-7.3597,-32.193,-18.399,36.738,-79.198,-4.5339,-70.275,4.1716,20.237,37.537,47.095,24.192,69.539,49.578,42.747,-15.496
-7.4651,-32.135,-18.277,36.715,-79.239,-4.5239,-69.957,4.0151,20.167,37.633,46.883,24.512,69.41,49.699,42.606,-15.237
-7.4651,-32.135,-18.277,36.715,-79.239,-4.5239,-69.957,4.0151,20.167,37.633,46.883,24.512,69.41,49.699,42.606,-15.237
-7.4651,-32.135,-18.277,36.715,-79.239,-4.5239,-69.957,4.0151,20.167,37.633,46.883,24.512,69.41,49.699,42.606,-15.237
-7.6772,-32.018,-18.034,36.668,-79.322,-4.5061,-69.32,3.7023,20.027,37.826,46.459,25.154,69.15,49.941,42.323,-14.714
-7.6772,-32.018,-18.034,36.668,-79.322,-4.5061,-69.32,3.7023,20.027,37.826,46.459,25.154,69.15,49.941,42.323,-14.714
-7.7839,-31.959,-17.911,36.645,-79.362,-4.4984,-69.001,3.5458,19.956,37.923,46.247,25.475,69.018,50.063,42.181,-14.451
-7.7839,-31.959,-17.911,36.645,-79.362,-4.4984,-69.001,3.5458,19.956,37.923,46.247,25.475,69.018,50.063,42.181,-14.451
-7.7839,-31.959,-17.911,36.645,-79.362,-4.4984,-69.001,3.5458,19.956,37.923,46.247,25.475,69.018,50.063,42.181,-14.451
-7.891,-31.9,-17.788,36.622,-79.402,-4.4915,-68.681,3.3894,19.886,38.02,46.036,25.797,68.885,50.185,42.038,-14.187
-7.9986,-31.841,-17.665,36.599,-79.441,-4.4853,-68.36,3.233,19.815,38.117,45.824,26.119,68.752,50.308,41.895,-13.923
-7.9986,-31.841,-17.665,36.599,-79.441,-4.4853,-68.36,3.233,19.815,38.117,45.824,26.119,68.752,50.308,41.895,-13.923
-8.1065,-31.781,-17.541,36.575,-79.48,-4.48,-68.038,3.0765,19.744,38.214,45.613,26.442,68.618,50.431,41.751,-13.657
-8.1065,-31.781,-17.541,36.575,-79.48,-4.48,-68.038,3.0765,19.744,38.214,45.613,26.442,68.618,50.431,41.751,-13.657
-8.2148,-31.722,-17.417,36.552,-79.519,-4.4754,-67.716,2.9201,19.673,38.312,45.402,26.765,68.483,50.555,41.608,-13.391
-8.2148,-31.722,-17.417,36.552,-79.519,-4.4754,-67.716,2.9201,19.673,38.312,45.402,26.765,68.483,50.555,41.608,-13.391
-8.3235,-31.662,-17.293,36.529,-79.556,-4.4717,-67.394,2.7637,19.601,38.409,45.191,27.089,68.348,50.678,41.463,-13.123
-8.3235,-31.662,-17.293,36.529,-79.556,-4.4717,-67.394,2.7637,19.601,38.409,45.191,27.089,68.348,50.678,41.463,-13.123
-8.4326,-31.602,-17.168,36.506,-79.594,-4.4688,-67.07,2.6072,19.53,38.507,44.981,27.412,68.211,50.803,41.319,-12.855
-8.4326,-31.602,-17.168,36.506,-79.594,-4.4688,-67.07,2.6072,19.53,38.507,44.981,27.412,68.211,50.803,41.319,-12.855
-8.5421,-31.542,-17.043,36.482,-79.63,-4.4668,-66.746,2.4508,19.458,38.604,44.77,27.736,68.074,50.927,41.174,-12.585
-8.6519,-31.482,-16.917,36.459,-79.667,-4.4656,-66.422,2.2944,19.386,38.702,44.56,28.061,67.936,51.052,41.029,-12.315
-8.6519,-31.482,-16.917,36.459,-79.667,-4.4656,-66.422,2.2944,19.386,38.702,44.56,28.061,67.936,51.052,41.029,-12.315
-8.762,-31.422,-16.791,36.435,-79.702,-4.4653,-66.097,2.1379,19.314,38.8,44.351,28.385,67.797,51.177,40.883,-12.044
-8.762,-31.422,-16.791,36.435,-79.702,-4.4653,-66.097,2.1379,19.314,38.8,44.351,28.385,67.797,51.177,40.883,-12.044
-8.8725,-31.362,-16.665,36.412,-79.737,-4.4659,-65.771,1.9815,19.242,38.898,44.141,28.71,67.658,51.303,40.737,-11.772
-8.8725,-31.362,-16.665,36.412,-79.737,-4.4659,-65.771,1.9815,19.242,38.898,44.141,28.71,67.658,51.303,40.737,-11.772
-8.8725,-31.362,-16.665,36.412,-79.737,-4.4659,-65.771,1.9815,19.242,38.898,44.141,28.71,67.658,51.303,40.737,-11.772
-8.9834,-31.302,-16.538,36.388,-79.772,-4.4674,-65.445,1.825,19.17,38.995,43.932,29.035,67.518,51.429,40.591,-11.5
-8.9834,-31.302,-16.538,36.388,-79.772,-4.4674,-65.445,1.825,19.17,38.995,43.932,29.035,67.518,51.429,40.591,-11.5
-9.0945,-31.242,-16.411,36.364,-79.805,-4.4698,-65.119,1.6686,19.098,39.093,43.723,29.361,67.377,51.555,40.444,-11.226
-9.0945,-31.242,-16.411,36.364,-79.805,-4.4698,-65.119,1.6686,19.098,39.093,43.723,29.361,67.377,51.555,40.444,-11.226
-9.206,-31.182,-16.283,36.34,-79.839,-4.473,-64.791,1.5121,19.026,39.19,43.514,29.686,67.235,51.681,40.297,-10.952
-9.206,-31.182,-16.283,36.34,-79.839,-4.473,-64.791,1.5121,19.026,39.19,43.514,29.686,67.235,51.681,40.297,-10.952
-9.3177,-31.122,-16.156,36.316,-79.871,-4.4772,-64.464,1.3557,18.953,39.288,43.306,30.012,67.093,51.808,40.15,-10.677
-9.3177,-31.122,-16.156,36.316,-79.871,-4.4772,-64.464,1.3557,18.953,39.288,43.306,30.012,67.093,51.808,40.15,-10.677
-9.4298,-31.062,-16.027,36.292,-79.903,-4.4824,-64.135,1.1992,18.881,39.386,43.098,30.338,66.95,51.935,40.002,-10.401
-9.4298,-31.062,-16.027,36.292,-79.903,-4.4824,-64.135,1.1992,18.881,39.386,43.098,30.338,66.95,51.935,40.002,-10.401
-9.5421,-31.002,-15.899,36.268,-79.935,-4.4885,-63.807,1.0428,18.809,39.483,42.891,30.664,66.806,52.063,39.855,-10.124
-9.5421,-31.002,-15.899,36.268,-79.935,-4.4885,-63.807,1.0428,18.809,39.483,42.891,30.664,66.806,52.063,39.855,-10.124
-9.5421,-31.002,-15.899,36.268,-79.935,-4.4885,-63.807,1.0428,18.809,39.483,42.891,30.664,66.806,52.063,39.855,-10.124
-9.6547,-30.942,-15.77,36.244,-79.965,-4.4955,-63.478,0.88634,18.737,39.58,42.683,30.99,66.662,52.19,39.707,-9.8466
-9.6547,-30.942,-15.77,36.244,-79.965,-4.4955,-63.478,0.88634,18.737,39.58,42.683,30.99,66.662,52.19,39.707,-9.8466
-9.6547,-30.942,-15.77,36.244,-79.965,-4.4955,-63.478,0.88634,18.737,39.58,42.683,30.99,66.662,52.19,39.707,-9.8466
-9.6547,-30.942,-15.77,36.244,-79.965,-4.4955,-63.478,0.88634,18.737,39.58,42.683,30.99,66.662,52.19,39.707,-9.8466
-9.8806,-30.823,-15.511,36.195,-80.025,-4.5125,-62.818,0.57343,18.592,39.774,42.27,31.642,66.371,52.446,39.41,-9.2896
-9.8806,-30.823,-15.511,36.195,-80.025,-4.5125,-62.818,0.57343,18.592,39.774,42.27,31.642,66.371,52.446,39.41,-9.2896
-9.8806,-30.823,-15.511,36.195,-80.025,-4.5125,-62.818,0.57343,18.592,39.774,42.27,31.642,66.371,52.446,39.41,-9.2896
-10.107,-30.704,-15.25,36.146,-80.082,-4.5334,-62.156,0.26051,18.448,39.968,41.858,32.294,66.078,52.703,39.112,-8.7298
-10.107,-30.704,-15.25,36.146,-80.082,-4.5334,-62.156,0.26051,18.448,39.968,41.858,32.294,66.078,52.703,39.112,-8.7298
-10.107,-30.704,-15.25,36.146,-80.082,-4.5334,-62.156,0.26051,18.448,39.968,41.858,32.294,66.078,52.703,39.112,-8.7298
-10.221,-30.645,-15.12,36.121,-80.109,-4.5453,-61.825,0.10405,18.376,40.064,41.653,32.62,65.931,52.831,38.962,-8.4489
-10.335,-30.586,-14.988,36.096,-80.136,-4.5583,-61.493,-0.052413,18.304,40.161,41.448,32.946,65.783,52.96,38.813,-8.1673
-10.449,-30.527,-14.857,36.07,-80.162,-4.5723,-61.161,-0.20888,18.232,40.257,41.244,33.272,65.634,53.089,38.663,-7.885
-10.449,-30.527,-14.857,36.07,-80.162,-4.5723,-61.161,-0.20888,18.232,40.257,41.244,33.272,65.634,53.089,38.663,-7.885
-10.449,-30.527,-14.857,36.07,-80.162,-4.5723,-61.161,-0.20888,18.232,40.257,41.244,33.272,65.634,53.089,38.663,-7.885
-10.564,-30.468,-14.725,36.045,-80.187,-4.5873,-60.828,-0.36534,18.16,40.352,41.04,33.598,65.485,53.219,38.513,-7.6022
-10.564,-30.468,-14.725,36.045,-80.187,-4.5873,-60.828,-0.36534,18.16,40.352,41.04,33.598,65.485,53.219,38.513,-7.6022
-10.564,-30.468,-14.725,36.045,-80.187,-4.5873,-60.828,-0.36534,18.16,40.352,41.04,33.598,65.485,53.219,38.513,-7.6022
-10.678,-30.41,-14.593,36.019,-80.211,-4.6034,-60.495,-0.5218,18.089,40.448,40.836,33.924,65.335,53.348,38.363,-7.3187
-10.793,-30.352,-14.461,35.994,-80.235,-4.6205,-60.161,-0.67827,18.017,40.543,40.633,34.25,65.184,53.478,38.212,-7.0346
-10.908,-30.294,-14.328,35.968,-80.258,-4.6387,-59.827,-0.83473,17.946,40.638,40.43,34.576,65.034,53.608,38.062,-6.75
-10.908,-30.294,-14.328,35.968,-80.258,-4.6387,-59.827,-0.83473,17.946,40.638,40.43,34.576,65.034,53.608,38.062,-6.75
-11.023,-30.236,-14.195,35.941,-80.281,-4.6579,-59.493,-0.99119,17.875,40.733,40.228,34.901,64.882,53.737,37.911,-6.4647
-11.023,-30.236,-14.195,35.941,-80.281,-4.6579,-59.493,-0.99119,17.875,40.733,40.228,34.901,64.882,53.737,37.911,-6.4647
-11.138,-30.179,-14.061,35.915,-80.302,-4.6783,-59.159,-1.1477,17.804,40.827,40.027,35.226,64.73,53.867,37.76,-6.1789
-11.138,-30.179,-14.061,35.915,-80.302,-4.6783,-59.159,-1.1477,17.804,40.827,40.027,35.226,64.73,53.867,37.76,-6.1789
-11.138,-30.179,-14.061,35.915,-80.302,-4.6783,-59.159,-1.1477,17.804,40.827,40.027,35.226,64.73,53.867,37.76,-6.1789
-11.253,-30.122,-13.927,35.889,-80.323,-4.6997,-58.824,-1.3041,17.733,40.921,39.825,35.551,64.578,53.998,37.609,-5.8926
-11.253,-30.122,-13.927,35.889,-80.323,-4.6997,-58.824,-1.3041,17.733,40.921,39.825,35.551,64.578,53.998,37.609,-5.8926
-11.253,-30.122,-13.927,35.889,-80.323,-4.6997,-58.824,-1.3041,17.733,40.921,39.825,35.551,64.578,53.998,37.609,-5.8926
-11.368,-30.066,-13.793,35.862,-80.343,-4.7222,-58.488,-1.4606,17.663,41.015,39.625,35.876,64.425,54.128,37.458,-5.6057
-11.368,-30.066,-13.793,35.862,-80.343,-4.7222,-58.488,-1.4606,17.663,41.015,39.625,35.876,64.425,54.128,37.458,-5.6057
-11.484,-30.009,-13.659,35.835,-80.363,-4.7459,-58.153,-1.617,17.593,41.108,39.425,36.201,64.271,54.258,37.306,-5.3183
-11.484,-30.009,-13.659,35.835,-80.363,-4.7459,-58.153,-1.617,17.593,41.108,39.425,36.201,64.271,54.258,37.306,-5.3183
-11.599,-29.953,-13.524,35.808,-80.381,-4.7706,-57.817,-1.7735,17.523,41.201,39.225,36.525,64.117,54.389,37.155,-5.0304
-11.599,-29.953,-13.524,35.808,-80.381,-4.7706,-57.817,-1.7735,17.523,41.201,39.225,36.525,64.117,54.389,37.155,-5.0304
-11.715,-29.898,-13.389,35.78,-80.399,-4.7965,-57.481,-1.9299,17.453,41.294,39.026,36.849,63.963,54.519,37.003,-4.7421
-11.715,-29.898,-13.389,35.78,-80.399,-4.7965,-57.481,-1.9299,17.453,41.294,39.026,36.849,63.963,54.519,37.003,-4.7421
-11.83,-29.843,-13.253,35.753,-80.416,-4.8235,-57.144,-2.0864,17.384,41.386,38.827,37.173,63.808,54.65,36.852,-4.4533
-11.946,-29.788,-13.117,35.725,-80.432,-4.8517,-56.807,-2.2428,17.315,41.477,38.63,37.496,63.652,54.781,36.7,-4.164
-11.946,-29.788,-13.117,35.725,-80.432,-4.8517,-56.807,-2.2428,17.315,41.477,38.63,37.496,63.652,54.781,36.7,-4.164
-11.946,-29.788,-13.117,35.725,-80.432,-4.8517,-56.807,-2.2428,17.315,41.477,38.63,37.496,63.652,54.781,36.7,-4.164
-12.062,-29.734,-12.981,35.697,-80.447,-4.881,-56.47,-2.3993,17.246,41.569,38.432,37.819,63.497,54.912,36.548,-3.8742
-12.062,-29.734,-12.981,35.697,-80.447,-4.881,-56.47,-2.3993,17.246,41.569,38.432,37.819,63.497,54.912,36.548,-3.8742
-12.062,-29.734,-12.981,35.697,-80.447,-4.881,-56.47,-2.3993,17.246,41.569,38.432,37.819,63.497,54.912,36.548,-3.8742
-12.293,-29.626,-12.708,35.64,-80.476,-4.9431,-55.795,-2.7121,17.109,41.75,38.039,38.464,63.184,55.174,36.244,-3.2935
-12.293,-29.626,-12.708,35.64,-80.476,-4.9431,-55.795,-2.7121,17.109,41.75,38.039,38.464,63.184,55.174,36.244,-3.2935
-12.409,-29.573,-12.571,35.611,-80.488,-4.9759,-55.457,-2.8685,17.042,41.84,37.844,38.786,63.027,55.304,36.092,-3.0026
-12.409,-29.573,-12.571,35.611,-80.488,-4.9759,-55.457,-2.8685,17.042,41.84,37.844,38.786,63.027,55.304,36.092,-3.0026
-12.524,-29.521,-12.434,35.582,-80.5,-5.0099,-55.119,-3.0249,16.974,41.929,37.649,39.108,62.87,55.435,35.94,-2.7113
-12.64,-29.469,-12.296,35.553,-80.511,-5.0451,-54.781,-3.1813,16.907,42.018,37.454,39.429,62.712,55.567,35.788,-2.4196
-12.64,-29.469,-12.296,35.553,-80.511,-5.0451,-54.781,-3.1813,16.907,42.018,37.454,39.429,62.712,55.567,35.788,-2.4196
-12.756,-29.417,-12.158,35.523,-80.522,-5.0815,-54.442,-3.3377,16.841,42.106,37.26,39.749,62.554,55.698,35.636,-2.1275
-12.756,-29.417,-12.158,35.523,-80.522,-5.0815,-54.442,-3.3377,16.841,42.106,37.26,39.749,62.554,55.698,35.636,-2.1275
-12.756,-29.417,-12.158,35.523,-80.522,-5.0815,-54.442,-3.3377,16.841,42.106,37.26,39.749,62.554,55.698,35.636,-2.1275
-12.871,-29.366,-12.02,35.493,-80.531,-5.1191,-54.103,-3.4941,16.775,42.194,37.067,40.069,62.395,55.829,35.483,-1.8351
-12.871,-29.366,-12.02,35.493,-80.531,-5.1191,-54.103,-3.4941,16.775,42.194,37.067,40.069,62.395,55.829,35.483,-1.8351
-12.871,-29.366,-12.02,35.493,-80.531,-5.1191,-54.103,-3.4941,16.775,42.194,37.067,40.069,62.395,55.829,35.483,-1.8351
-12.987,-29.316,-11.881,35.463,-80.539,-5.1579,-53.764,-3.6505,16.709,42.281,36.875,40.389,62.237,55.96,35.331,-1.5424
-12.987,-29.316,-11.881,35.463,-80.539,-5.1579,-53.764,-3.6505,16.709,42.281,36.875,40.389,62.237,55.96,35.331,-1.5424
-12.987,-29.316,-11.881,35.463,-80.539,-5.1579,-53.764,-3.6505,16.709,42.281,36.875,40.389,62.237,55.96,35.331,-1.5424
-13.102,-29.266,-11.742,35.433,-80.547,-5.1979,-53.425,-3.8068,16.644,42.367,36.683,40.708,62.077,56.091,35.179,-1.2494
-13.102,-29.266,-11.742,35.433,-80.547,-5.1979,-53.425,-3.8068,16.644,42.367,36.683,40.708,62.077,56.091,35.179,-1.2494
-13.333,-29.168,-11.464,35.371,-80.559,-5.2817,-52.746,-4.1195,16.515,42.539,36.302,41.345,61.758,56.353,34.875,-0.66252
-13.333,-29.168,-11.464,35.371,-80.559,-5.2817,-52.746,-4.1195,16.515,42.539,36.302,41.345,61.758,56.353,34.875,-0.66252
-13.448,-29.12,-11.324,35.34,-80.564,-5.3255,-52.406,-4.2758,16.451,42.624,36.112,41.662,61.598,56.484,34.723,-0.36868
-13.448,-29.12,-11.324,35.34,-80.564,-5.3255,-52.406,-4.2758,16.451,42.624,36.112,41.662,61.598,56.484,34.723,-0.36868
-13.563,-29.072,-11.184,35.308,-80.568,-5.3705,-52.066,-4.432,16.388,42.708,35.923,41.979,61.438,56.615,34.571,-0.074587
-13.563,-29.072,-11.184,35.308,-80.568,-5.3705,-52.066,-4.432,16.388,42.708,35.923,41.979,61.438,56.615,34.571,-0.074587
-13.678,-29.025,-11.044,35.277,-80.571,-5.4167,-51.726,-4.5883,16.325,42.791,35.734,42.295,61.278,56.745,34.419,0.21974
-13.678,-29.025,-11.044,35.277,-80.571,-5.4167,-51.726,-4.5883,16.325,42.791,35.734,42.295,61.278,56.745,34.419,0.21974
-13.792,-28.979,-10.903,35.244,-80.573,-5.4643,-51.386,-4.7446,16.263,42.874,35.547,42.61,61.117,56.876,34.267,0.51429
-13.907,-28.933,-10.762,35.212,-80.574,-5.5131,-51.046,-4.9008,16.201,42.957,35.36,42.925,60.956,57.007,34.115,0.80904
-13.907,-28.933,-10.762,35.212,-80.574,-5.5131,-51.046,-4.9008,16.201,42.957,35.36,42.925,60.956,57.007,34.115,0.80904
-13.907,-28.933,-10.762,35.212,-80.574,-5.5131,-51.046,-4.9008,16.201,42.957,35.36,42.925,60.956,57.007,34.115,0.80904
-14.021,-28.889,-10.621,35.179,-80.574,-5.5632,-50.705,-5.057,16.14,43.038,35.174,43.239,60.795,57.138,33.964,1.104
-14.021,-28.889,-10.621,35.179,-80.574,-5.5632,-50.705,-5.057,16.14,43.038,35.174,43.239,60.795,57.138,33.964,1.104
-14.021,-28.889,-10.621,35.179,-80.574,-5.5632,-50.705,-5.057,16.14,43.038,35.174,43.239,60.795,57.138,33.964,1.104
-14.135,-28.844,-10.479,35.146,-80.573,-5.6146,-50.365,-5.2131,16.08,43.119,34.988,43.553,60.633,57.268,33.812,1.3991
-14.135,-28.844,-10.479,35.146,-80.573,-5.6146,-50.365,-5.2131,16.08,43.119,34.988,43.553,60.633,57.268,33.812,1.3991
-14.249,-28.801,-10.338,35.113,-80.571,-5.6672,-50.024,-5.3693,16.02,43.199,34.803,43.866,60.472,57.399,33.661,1.6944
-14.363,-28.758,-10.196,35.079,-80.569,-5.7212,-49.683,-5.5254,15.96,43.279,34.619,44.178,60.31,57.529,33.509,1.9898
-14.363,-28.758,-10.196,35.079,-80.569,-5.7212,-49.683,-5.5254,15.96,43.279,34.619,44.178,60.31,57.529,33.509,1.9898
-14.363,-28.758,-10.196,35.079,-80.569,-5.7212,-49.683,-5.5254,15.96,43.279,34.619,44.178,60.31,57.529,33.509,1.9898
-14.476,-28.716,-10.053,35.045,-80.565,-5.7765,-49.342,-5.6815,15.902,43.357,34.436,44.489,60.148,57.66,33.358,2.2854
-14.476,-28.716,-10.053,35.045,-80.565,-5.7765,-49.342,-5.6815,15.902,43.357,34.436,44.489,60.148,57.66,33.358,2.2854
-14.476,-28.716,-10.053,35.045,-80.565,-5.7765,-49.342,-5.6815,15.902,43.357,34.436,44.489,60.148,57.66,33.358,2.2854
-14.703,-28.634,-9.7682,34.976,-80.554,-5.8909,-48.66,-5.9936,15.786,43.513,34.072,45.11,59.823,57.92,33.056,2.8768
-14.703,-28.634,-9.7682,34.976,-80.554,-5.8909,-48.66,-5.9936,15.786,43.513,34.072,45.11,59.823,57.92,33.056,2.8768
-14.815,-28.594,-9.6251,34.941,-80.547,-5.9502,-48.319,-6.1496,15.73,43.589,33.892,45.419,59.661,58.05,32.906,3.1727
-14.815,-28.594,-9.6251,34.941,-80.547,-5.9502,-48.319,-6.1496,15.73,43.589,33.892,45.419,59.661,58.05,32.906,3.1727
-14.928,-28.555,-9.4818,34.906,-80.539,-6.0107,-47.978,-6.3055,15.674,43.665,33.712,45.727,59.498,58.18,32.755,3.4687
-15.04,-28.516,-9.3382,34.87,-80.531,-6.0726,-47.636,-6.4614,15.618,43.74,33.532,46.034,59.336,58.31,32.605,3.7647
-15.04,-28.516,-9.3382,34.87,-80.531,-6.0726,-47.636,-6.4614,15.618,43.74,33.532,46.034,59.336,58.31,32.605,3.7647
-15.04,-28.516,-9.3382,34.87,-80.531,-6.0726,-47.636,-6.4614,15.618,43.74,33.532,46.034,59.336,58.31,32.605,3.7647
-15.152,-28.479,-9.1944,34.834,-80.521,-6.1358,-47.295,-6.6173,15.564,43.814,33.354,46.341,59.173,58.439,32.455,4.0608
-15.152,-28.479,-9.1944,34.834,-80.521,-6.1358,-47.295,-6.6173,15.564,43.814,33.354,46.341,59.173,58.439,32.455,4.0608
-15.263,-28.442,-9.0504,34.798,-80.51,-6.2004,-46.954,-6.7731,15.51,43.888,33.176,46.647,59.01,58.569,32.305,4.3569
-15.263,-28.442,-9.0504,34.798,-80.51,-6.2004,-46.954,-6.7731,15.51,43.888,33.176,46.647,59.01,58.569,32.305,4.3569
-15.375,-28.406,-8.9061,34.761,-80.498,-6.2663,-46.612,-6.9289,15.457,43.96,33,46.952,58.847,58.698,32.156,4.653
-15.375,-28.406,-8.9061,34.761,-80.498,-6.2663,-46.612,-6.9289,15.457,43.96,33,46.952,58.847,58.698,32.156,4.653
-15.485,-28.371,-8.7615,34.724,-80.485,-6.3335,-46.271,-7.0846,15.404,44.032,32.824,47.256,58.684,58.827,32.007,4.9492
-15.485,-28.371,-8.7615,34.724,-80.485,-6.3335,-46.271,-7.0846,15.404,44.032,32.824,47.256,58.684,58.827,32.007,4.9492
-15.596,-28.337,-8.6167,34.687,-80.47,-6.4022,-45.93,-7.2403,15.353,44.103,32.649,47.559,58.521,58.956,31.858,5.2453
-15.596,-28.337,-8.6167,34.687,-80.47,-6.4022,-45.93,-7.2403,15.353,44.103,32.649,47.559,58.521,58.956,31.858,5.2453
-15.706,-28.304,-8.4717,34.649,-80.455,-6.4722,-45.588,-7.3959,15.302,44.173,32.475,47.861,58.358,59.085,31.709,5.5414
-15.706,-28.304,-8.4717,34.649,-80.455,-6.4722,-45.588,-7.3959,15.302,44.173,32.475,47.861,58.358,59.085,31.709,5.5414
-15.816,-28.271,-8.3264,34.611,-80.439,-6.5435,-45.247,-7.5515,15.252,44.242,32.301,48.162,58.195,59.213,31.561,5.8375
-15.816,-28.271,-8.3264,34.611,-80.439,-6.5435,-45.247,-7.5515,15.252,44.242,32.301,48.162,58.195,59.213,31.561,5.8375
-15.925,-28.239,-8.1809,34.573,-80.422,-6.6162,-44.905,-7.7071,15.202,44.311,32.129,48.462,58.032,59.342,31.413,6.1335
-15.925,-28.239,-8.1809,34.573,-80.422,-6.6162,-44.905,-7.7071,15.202,44.311,32.129,48.462,58.032,59.342,31.413,6.1335
-16.034,-28.209,-8.0352,34.534,-80.403,-6.6903,-44.564,-7.8625,15.154,44.378,31.957,48.762,57.868,59.47,31.265,6.4295
-16.034,-28.209,-8.0352,34.534,-80.403,-6.6903,-44.564,-7.8625,15.154,44.378,31.957,48.762,57.868,59.47,31.265,6.4295
-16.143,-28.179,-7.8892,34.495,-80.384,-6.7658,-44.223,-8.0179,15.106,44.445,31.787,49.06,57.705,59.598,31.117,6.7254
-16.143,-28.179,-7.8892,34.495,-80.384,-6.7658,-44.223,-8.0179,15.106,44.445,31.787,49.06,57.705,59.598,31.117,6.7254
-16.251,-28.15,-7.7431,34.456,-80.363,-6.8427,-43.881,-8.1733,15.059,44.511,31.617,49.357,57.542,59.726,30.97,7.0213
-16.251,-28.15,-7.7431,34.456,-80.363,-6.8427,-43.881,-8.1733,15.059,44.511,31.617,49.357,57.542,59.726,30.97,7.0213
-16.358,-28.122,-7.5967,34.416,-80.341,-6.9209,-43.54,-8.3285,15.013,44.576,31.448,49.654,57.379,59.854,30.824,7.317
-16.358,-28.122,-7.5967,34.416,-80.341,-6.9209,-43.54,-8.3285,15.013,44.576,31.448,49.654,57.379,59.854,30.824,7.317
-16.466,-28.095,-7.45,34.376,-80.318,-7.0006,-43.199,-8.4837,14.968,44.64,31.28,49.949,57.216,59.981,30.677,7.6126
-16.466,-28.095,-7.45,34.376,-80.318,-7.0006,-43.199,-8.4837,14.968,44.64,31.28,49.949,57.216,59.981,30.677,7.6126
-16.572,-28.069,-7.3032,34.335,-80.294,-7.0816,-42.858,-8.6389,14.924,44.703,31.113,50.244,57.053,60.108,30.531,7.9081
-16.679,-28.043,-7.1562,34.294,-80.269,-7.164,-42.516,-8.7939,14.881,44.765,30.947,50.537,56.89,60.235,30.386,8.2035
-16.679,-28.043,-7.1562,34.294,-80.269,-7.164,-42.516,-8.7939,14.881,44.765,30.947,50.537,56.89,60.235,30.386,8.2035
-16.679,-28.043,-7.1562,34.294,-80.269,-7.164,-42.516,-8.7939,14.881,44.765,30.947,50.537,56.89,60.235,30.386,8.2035
-16.784,-28.019,-7.0089,34.253,-80.243,-7.2479,-42.175,-8.9489,14.838,44.827,30.782,50.829,56.727,60.362,30.24,8.4987
-16.784,-28.019,-7.0089,34.253,-80.243,-7.2479,-42.175,-8.9489,14.838,44.827,30.782,50.829,56.727,60.362,30.24,8.4987
-16.89,-27.996,-6.8615,34.211,-80.215,-7.3331,-41.834,-9.1038,14.797,44.887,30.618,51.12,56.564,60.489,30.096,8.7937
-16.89,-27.996,-6.8615,34.211,-80.215,-7.3331,-41.834,-9.1038,14.797,44.887,30.618,51.12,56.564,60.489,30.096,8.7937
-16.89,-27.996,-6.8615,34.211,-80.215,-7.3331,-41.834,-9.1038,14.797,44.887,30.618,51.12,56.564,60.489,30.096,8.7937
-16.995,-27.974,-6.7138,34.169,-80.187,-7.4198,-41.494,-9.2587,14.756,44.946,30.454,51.411,56.402,60.615,29.951,9.0886
-16.995,-27.974,-6.7138,34.169,-80.187,-7.4198,-41.494,-9.2587,14.756,44.946,30.454,51.411,56.402,60.615,29.951,9.0886
-17.202,-27.932,-6.4179,34.084,-80.126,-7.5973,-40.812,-9.5681,14.678,45.063,30.131,51.988,56.077,60.867,29.664,9.6778
-17.202,-27.932,-6.4179,34.084,-80.126,-7.5973,-40.812,-9.5681,14.678,45.063,30.131,51.988,56.077,60.867,29.664,9.6778
-17.202,-27.932,-6.4179,34.084,-80.126,-7.5973,-40.812,-9.5681,14.678,45.063,30.131,51.988,56.077,60.867,29.664,9.6778
-17.306,-27.913,-6.2697,34.041,-80.094,-7.6882,-40.472,-9.7226,14.64,45.119,29.97,52.274,55.914,60.993,29.521,9.972
-17.306,-27.913,-6.2697,34.041,-80.094,-7.6882,-40.472,-9.7226,14.64,45.119,29.97,52.274,55.914,60.993,29.521,9.972
-17.306,-27.913,-6.2697,34.041,-80.094,-7.6882,-40.472,-9.7226,14.64,45.119,29.97,52.274,55.914,60.993,29.521,9.972
-17.408,-27.894,-6.1213,33.998,-80.061,-7.7805,-40.131,-9.8771,14.603,45.175,29.811,52.56,55.752,61.118,29.379,10.266
-17.408,-27.894,-6.1213,33.998,-80.061,-7.7805,-40.131,-9.8771,14.603,45.175,29.811,52.56,55.752,61.118,29.379,10.266
-17.51,-27.877,-5.9727,33.954,-80.027,-7.8742,-39.791,-10.031,14.568,45.23,29.653,52.845,55.59,61.243,29.237,10.56
-17.51,-27.877,-5.9727,33.954,-80.027,-7.8742,-39.791,-10.031,14.568,45.23,29.653,52.845,55.59,61.243,29.237,10.56
-17.51,-27.877,-5.9727,33.954,-80.027,-7.8742,-39.791,-10.031,14.568,45.23,29.653,52.845,55.59,61.243,29.237,10.56
-17.51,-27.877,-5.9727,33.954,-80.027,-7.8742,-39.791,-10.031,14.568,45.23,29.653,52.845,55.59,61.243,29.237,10.56
-17.712,-27.846,-5.6749,33.866,-79.954,-8.0659,-39.111,-10.34,14.499,45.336,29.339,53.41,55.267,61.493,28.954,11.147
-17.712,-27.846,-5.6749,33.866,-79.954,-8.0659,-39.111,-10.34,14.499,45.336,29.339,53.41,55.267,61.493,28.954,11.147
-17.712,-27.846,-5.6749,33.866,-79.954,-8.0659,-39.111,-10.34,14.499,45.336,29.339,53.41,55.267,61.493,28.954,11.147
-17.712,-27.846,-5.6749,33.866,-79.954,-8.0659,-39.111,-10.34,14.499,45.336,29.339,53.41,55.267,61.493,28.954,11.147
-17.912,-27.819,-5.3764,33.776,-79.877,-8.2633,-38.431,-10.648,14.435,45.439,29.029,53.971,54.944,61.741,28.674,11.732
-17.912,-27.819,-5.3764,33.776,-79.877,-8.2633,-38.431,-10.648,14.435,45.439,29.029,53.971,54.944,61.741,28.674,11.732
-18.011,-27.807,-5.227,33.73,-79.837,-8.3641,-38.091,-10.802,14.404,45.489,28.875,54.25,54.783,61.865,28.535,12.025
-18.109,-27.796,-5.0773,33.684,-79.795,-8.4664,-37.752,-10.956,14.374,45.538,28.723,54.528,54.622,61.989,28.396,12.317
-18.109,-27.796,-5.0773,33.684,-79.795,-8.4664,-37.752,-10.956,14.374,45.538,28.723,54.528,54.622,61.989,28.396,12.317
-18.207,-27.786,-4.9275,33.638,-79.753,-8.5701,-37.413,-11.109,14.345,45.585,28.571,54.804,54.461,62.112,28.258,12.609
-18.207,-27.786,-4.9275,33.638,-79.753,-8.5701,-37.413,-11.109,14.345,45.585,28.571,54.804,54.461,62.112,28.258,12.609
-18.304,-27.777,-4.7776,33.591,-79.709,-8.6752,-37.074,-11.263,14.318,45.632,28.421,55.079,54.301,62.235,28.12,12.9
-18.304,-27.777,-4.7776,33.591,-79.709,-8.6752,-37.074,-11.263,14.318,45.632,28.421,55.079,54.301,62.235,28.12,12.9
-18.4,-27.769,-4.6274,33.544,-79.663,-8.7818,-36.735,-11.416,14.291,45.678,28.272,55.353,54.141,62.357,27.983,13.192
-18.4,-27.769,-4.6274,33.544,-79.663,-8.7818,-36.735,-11.416,14.291,45.678,28.272,55.353,54.141,62.357,27.983,13.192
-18.4,-27.769,-4.6274,33.544,-79.663,-8.7818,-36.735,-11.416,14.291,45.678,28.272,55.353,54.141,62.357,27.983,13.192
-18.496,-27.763,-4.4772,33.497,-79.617,-8.8898,-36.396,-11.569,14.266,45.723,28.123,55.626,53.981,62.48,27.847,13.482
-18.591,-27.757,-4.3268,33.449,-79.569,-8.9992,-36.058,-11.722,14.242,45.767,27.976,55.897,53.822,62.602,27.711,13.773
-18.685,-27.753,-4.1762,33.401,-79.52,-9.11,-35.72,-11.875,14.218,45.81,27.83,56.167,53.662,62.724,27.576,14.063
-18.685,-27.753,-4.1762,33.401,-79.52,-9.11,-35.72,-11.875,14.218,45.81,27.83,56.167,53.662,62.724,27.576,14.063
-18.685,-27.753,-4.1762,33.401,-79.52,-9.11,-35.72,-11.875,14.218,45.81,27.83,56.167,53.662,62.724,27.576,14.063
-18.779,-27.749,-4.0256,33.352,-79.47,-9.2223,-35.382,-12.028,14.196,45.851,27.685,56.436,53.503,62.845,27.442,14.352
-18.779,-27.749,-4.0256,33.352,-79.47,-9.2223,-35.382,-12.028,14.196,45.851,27.685,56.436,53.503,62.845,27.442,14.352
-18.871,-27.747,-3.8747,33.303,-79.419,-9.3361,-35.044,-12.181,14.175,45.892,27.541,56.704,53.345,62.967,27.308,14.642
-18.871,-27.747,-3.8747,33.303,-79.419,-9.3361,-35.044,-12.181,14.175,45.892,27.541,56.704,53.345,62.967,27.308,14.642
-18.964,-27.746,-3.7238,33.254,-79.366,-9.4512,-34.706,-12.333,14.155,45.932,27.397,56.97,53.186,63.088,27.175,14.931
-18.964,-27.746,-3.7238,33.254,-79.366,-9.4512,-34.706,-12.333,14.155,45.932,27.397,56.97,53.186,63.088,27.175,14.931
-19.055,-27.746,-3.5727,33.205,-79.313,-9.5678,-34.369,-12.486,14.137,45.971,27.255,57.235,53.028,63.208,27.043,15.219
-19.145,-27.748,-3.4215,33.155,-79.257,-9.6858,-34.032,-12.638,14.119,46.008,27.115,57.499,52.87,63.328,26.911,15.507
-19.145,-27.748,-3.4215,33.155,-79.257,-9.6858,-34.032,-12.638,14.119,46.008,27.115,57.499,52.87,63.328,26.911,15.507
-19.145,-27.748,-3.4215,33.155,-79.257,-9.6858,-34.032,-12.638,14.119,46.008,27.115,57.499,52.87,63.328,26.911,15.507
-19.235,-27.75,-3.2702,33.104,-79.201,-9.8053,-33.695,-12.79,14.102,46.045,26.975,57.762,52.713,63.449,26.78,15.795
-19.235,-27.75,-3.2702,33.104,-79.201,-9.8053,-33.695,-12.79,14.102,46.045,26.975,57.762,52.713,63.449,26.78,15.795
-19.235,-27.75,-3.2702,33.104,-79.201,-9.8053,-33.695,-12.79,14.102,46.045,26.975,57.762,52.713,63.449,26.78,15.795
-19.324,-27.754,-3.1188,33.054,-79.143,-9.9262,-33.358,-12.942,14.087,46.081,26.836,58.023,52.556,63.568,26.65,16.082
-19.324,-27.754,-3.1188,33.054,-79.143,-9.9262,-33.358,-12.942,14.087,46.081,26.836,58.023,52.556,63.568,26.65,16.082
-19.412,-27.758,-2.9673,33.003,-79.084,-10.049,-33.022,-13.094,14.073,46.116,26.698,58.283,52.399,63.688,26.521,16.368
-19.5,-27.764,-2.8157,32.951,-79.024,-10.172,-32.686,-13.245,14.06,46.149,26.562,58.541,52.243,63.807,26.392,16.655
-19.586,-27.771,-2.6639,32.9,-78.963,-10.297,-32.35,-13.397,14.048,46.182,26.426,58.798,52.087,63.926,26.264,16.94
-19.586,-27.771,-2.6639,32.9,-78.963,-10.297,-32.35,-13.397,14.048,46.182,26.426,58.798,52.087,63.926,26.264,16.94
-19.672,-27.779,-2.5121,32.848,-78.9,-10.424,-32.015,-13.548,14.038,46.213,26.292,59.054,51.931,64.044,26.137,17.225
-19.672,-27.779,-2.5121,32.848,-78.9,-10.424,-32.015,-13.548,14.038,46.213,26.292,59.054,51.931,64.044,26.137,17.225
-19.672,-27.779,-2.5121,32.848,-78.9,-10.424,-32.015,-13.548,14.038,46.213,26.292,59.054,51.931,64.044,26.137,17.225
-19.672,-27.779,-2.5121,32.848,-78.9,-10.424,-32.015,-13.548,14.038,46.213,26.292,59.054,51.931,64.044,26.137,17.225
-19.757,-27.789,-2.3602,32.795,-78.836,-10.552,-31.679,-13.699,14.028,46.244,26.158,59.309,51.776,64.162,26.011,17.51
-19.757,-27.789,-2.3602,32.795,-78.836,-10.552,-31.679,-13.699,14.028,46.244,26.158,59.309,51.776,64.162,26.011,17.51
-19.757,-27.789,-2.3602,32.795,-78.836,-10.552,-31.679,-13.699,14.028,46.244,26.158,59.309,51.776,64.162,26.011,17.51
-19.757,-27.789,-2.3602,32.795,-78.836,-10.552,-31.679,-13.699,14.028,46.244,26.158,59.309,51.776,64.162,26.011,17.51
-19.924,-27.811,-2.0561,32.69,-78.704,-10.812,-31.01,-14,14.013,46.302,25.895,59.814,51.467,64.398,25.76,18.078
-19.924,-27.811,-2.0561,32.69,-78.704,-10.812,-31.01,-14,14.013,46.302,25.895,59.814,51.467,64.398,25.76,18.078
-20.088,-27.838,-1.7517,32.582,-78.568,-11.078,-30.342,-14.301,14.003,46.356,25.636,60.313,51.16,64.632,25.514,18.644
-20.088,-27.838,-1.7517,32.582,-78.568,-11.078,-30.342,-14.301,14.003,46.356,25.636,60.313,51.16,64.632,25.514,18.644
-20.088,-27.838,-1.7517,32.582,-78.568,-11.078,-30.342,-14.301,14.003,46.356,25.636,60.313,51.16,64.632,25.514,18.644
-20.169,-27.853,-1.5994,32.528,-78.497,-11.214,-30.008,-14.451,13.999,46.381,25.508,60.561,51.007,64.748,25.391,18.926
-20.169,-27.853,-1.5994,32.528,-78.497,-11.214,-30.008,-14.451,13.999,46.381,25.508,60.561,51.007,64.748,25.391,18.926
-20.169,-27.853,-1.5994,32.528,-78.497,-11.214,-30.008,-14.451,13.999,46.381,25.508,60.561,51.007,64.748,25.391,18.926
-20.248,-27.869,-1.447,32.474,-78.425,-11.35,-29.674,-14.601,13.997,46.405,25.381,60.808,50.854,64.865,25.27,19.207
-20.248,-27.869,-1.447,32.474,-78.425,-11.35,-29.674,-14.601,13.997,46.405,25.381,60.808,50.854,64.865,25.27,19.207
-20.327,-27.887,-1.2945,32.419,-78.353,-11.488,-29.341,-14.75,13.996,46.429,25.256,61.053,50.702,64.981,25.15,19.488
-20.405,-27.906,-1.142,32.364,-78.278,-11.627,-29.009,-14.9,13.997,46.451,25.131,61.296,50.55,65.096,25.03,19.769
-20.482,-27.926,-0.98949,32.309,-78.203,-11.768,-28.676,-15.049,13.998,46.472,25.008,61.539,50.399,65.212,24.911,20.049
-20.482,-27.926,-0.98949,32.309,-78.203,-11.768,-28.676,-15.049,13.998,46.472,25.008,61.539,50.399,65.212,24.911,20.049
