3985.4,54.3,19.987,0,0.070433,0,4378.3,54.076,0,0,0,0,0.0043393,1
3985.4,54.3,19.987,0,0.070433,0,4378.3,54.076,0,0,0,0,0.0043393,1
3985.4,54.3,19.987,0,0.070433,0,4378.3,54.076,0,0,0,0,0.0043393,1
3985.4,54.3,19.987,0,0.070433,0,4378.3,54.076,0,0,0,0,0.0043393,1
3988.2,54.3,19.996,0,0.065815,0,4378.3,54.076,0,0,0,0,0.0043705,1
3988.2,54.3,19.996,0,0.065815,0,4378.3,54.076,0,0,0,0,0.0043705,1
3988.2,54.3,19.996,0,0.065815,0,4378.3,54.076,0,0,0,0,0.0043705,1
3988.2,54.3,19.996,0,0.065815,0,4378.3,54.076,0,0,0,0,0.0043705,1
3988.2,54.3,19.996,0,0.065815,0,4378.3,54.076,0,0,0,0,0.0043705,1
3988.2,54.3,19.996,0,0.065815,0,4378.3,54.076,0,0,0,0,0.0043705,1
3988.2,54.3,19.996,0,0.065815,0,4378.3,54.076,0,0,0,0,0.0043705,1
3988.6,54.3,19.998,0,0.065183,0,4378.3,54.076,0,0,0,0,0.004375,1
3988.6,54.3,19.998,0,0.065183,0,4378.3,54.076,0,0,0,0,0.004375,1
3988.6,54.3,19.998,0,0.065183,0,4378.3,54.076,0,0,0,0,0.004375,1
3988.6,54.3,19.998,0,0.065183,0,4378.3,54.076,0,0,0,0,0.004375,1
3988.6,54.3,19.998,0,0.065183,0,4378.3,54.076,0,0,0,0,0.004375,1
3988.6,54.3,19.998,0,0.065183,0,4378.3,54.076,0,0,0,0,0.004375,1
3988.6,54.3,19.998,0,0.065183,0,4378.3,54.076,0,0,0,0,0.004375,1
3988.6,54.3,19.998,0,0.065183,0,4378.3,54.076,0,0,0,0,0.004375,1
3988.6,54.3,19.998,0,0.065183,0,4378.3,54.076,0,0,0,0,0.004375,1
3988.6,54.3,19.998,0,0.065183,0,4378.3,54.076,0,0,0,0,0.004375,1
3989.4,54.3,20,0,0.06394,0,4378.3,54.076,0,0,0,0,0.004384,1
3989.4,54.3,20,0,0.06394,0,4378.3,54.076,0,0,0,0,0.004384,1
3989.4,54.3,20,0,0.06394,0,4378.3,54.076,0,0,0,0,0.004384,1
3989.4,54.3,20,0,0.06394,0,4378.3,54.076,0,0,0,0,0.004384,1
3989.4,54.3,20,0,0.06394,0,4378.3,54.076,0,0,0,0,0.004384,1
3989.4,54.3,20,0,0.06394,0,4378.3,54.076,0,0,0,0,0.004384,1
3992.6,54.3,20.01,0,0.059222,0,4378.3,54.076,0,0,0,0,0.0044203,1
3992.6,54.3,20.01,0,0.059222,0,4378.3,54.076,0,0,0,0,0.0044203,1
3992.6,54.3,20.01,0,0.059222,0,4378.3,54.076,0,0,0,0,0.0044203,1
3992.6,54.3,20.01,0,0.059222,0,4378.3,54.076,0,0,0,0,0.0044203,1
3992.6,54.3,20.01,0,0.059222,0,4378.3,54.076,0,0,0,0,0.0044203,1
3993.8,54.3,20.014,0,0.057553,0,4378.3,54.076,0,0,0,0,0.0044341,1
3993.8,54.3,20.014,0,0.057553,0,4378.3,54.076,0,0,0,0,0.0044341,1
3993.8,54.3,20.014,0,0.057553,0,4378.3,54.076,0,0,0,0,0.0044341,1
3993.8,54.3,20.014,0,0.057553,0,4378.3,54.076,0,0,0,0,0.0044341,1
3993.8,54.3,20.014,0,0.057553,0,4378.3,54.076,0,0,0,0,0.0044341,1
3993.8,54.3,20.014,0,0.057553,0,4378.3,54.076,0,0,0,0,0.0044341,1
3993.8,54.3,20.014,0,0.057553,0,4378.3,54.076,0,0,0,0,0.0044341,1
3993.8,54.3,20.014,0,0.057553,0,4378.3,54.076,0,0,0,0,0.0044341,1
3993.8,54.3,20.014,0,0.057553,0,4378.3,54.076,0,0,0,0,0.0044341,1
3993.8,54.3,20.014,0,0.057553,0,4378.3,54.076,0,0,0,0,0.0044341,1
3993.8,54.3,20.014,0,0.057553,0,4378.3,54.076,0,0,0,0,0.0044341,1
3993.8,54.3,20.014,0,0.057553,0,4378.3,54.076,0,0,0,0,0.0044341,1
3995,54.3,20.017,0,0.055936,0,4378.3,54.076,0,0,0,0,0.004448,1
3996.2,54.3,20.02,0,0.054368,0,4378.3,54.076,0,0,0,0,0.004462,1
3996.2,54.3,20.02,0,0.054368,0,4378.3,54.076,0,0,0,0,0.004462,1
3997,54.3,20.023,0,0.053349,0,4378.3,54.076,0,0,0,0,0.0044714,1
3997,54.3,20.023,0,0.053349,0,4378.3,54.076,0,0,0,0,0.0044714,1
3997,54.3,20.023,0,0.053349,0,4378.3,54.076,0,0,0,0,0.0044714,1
3997,54.3,20.023,0,0.053349,0,4378.3,54.076,0,0,0,0,0.0044714,1
3997,54.3,20.023,0,0.053349,0,4378.3,54.076,0,0,0,0,0.0044714,1
3997,54.3,20.023,0,0.053349,0,4378.3,54.076,0,0,0,0,0.0044714,1
3997,54.3,20.023,0,0.053349,0,4378.3,54.076,0,0,0,0,0.0044714,1
3997.4,54.3,20.024,0,0.052848,0,4378.3,54.076,0,0,0,0,0.0044761,1
3997.4,54.3,20.024,0,0.052848,0,4378.3,54.076,0,0,0,0,0.0044761,1
3997.4,54.3,20.024,0,0.052848,0,4378.3,54.076,0,0,0,0,0.0044761,1
3997.4,54.3,20.024,0,0.052848,0,4378.3,54.076,0,0,0,0,0.0044761,1
3997.4,54.3,20.024,0,0.052848,0,4378.3,54.076,0,0,0,0,0.0044761,1
3997.4,54.3,20.024,0,0.052848,0,4378.3,54.076,0,0,0,0,0.0044761,1
3997.4,54.3,20.024,0,0.052848,0,4378.3,54.076,0,0,0,0,0.0044761,1
3997.4,54.3,20.024,0,0.052848,0,4378.3,54.076,0,0,0,0,0.0044761,1
3997.4,54.3,20.024,0,0.052848,0,4378.3,54.076,0,0,0,0,0.0044761,1
3997.4,54.3,20.024,0,0.052848,0,4378.3,54.076,0,0,0,0,0.0044761,1
3997.4,54.3,20.024,0,0.052848,0,4378.3,54.076,0,0,0,0,0.0044761,1
3997.4,54.3,20.024,0,0.052848,0,4378.3,54.076,0,0,0,0,0.0044761,1
3997.4,54.3,20.024,0,0.052848,0,4378.3,54.076,0,0,0,0,0.0044761,1
3999,54.3,20.028,0,0.050893,0,4378.3,54.076,0,0,0,0,0.004495,1
3999,54.3,20.028,0,0.050893,0,4378.3,54.076,0,0,0,0,0.004495,1
4000.2,54.3,20.031,0,0.049479,0,4378.3,54.076,0,0,0,0,0.0045093,1
4000.2,54.3,20.031,0,0.049479,0,4378.3,54.076,0,0,0,0,0.0045093,1
4001.4,54.3,20.034,0,0.048107,0,4378.3,54.076,0,0,0,0,0.0045237,1
4001.4,54.3,20.034,0,0.048107,0,4378.3,54.076,0,0,0,0,0.0045237,1
4001.4,54.3,20.034,0,0.048107,0,4378.3,54.076,0,0,0,0,0.0045237,1
4001.4,54.3,20.034,0,0.048107,0,4378.3,54.076,0,0,0,0,0.0045237,1
4001.4,54.3,20.034,0,0.048107,0,4378.3,54.076,0,0,0,0,0.0045237,1
4001.4,54.3,20.034,0,0.048107,0,4378.3,54.076,0,0,0,0,0.0045237,1
4001.4,54.3,20.034,0,0.048107,0,4378.3,54.076,0,0,0,0,0.0045237,1
4001.4,54.3,20.034,0,0.048107,0,4378.3,54.076,0,0,0,0,0.0045237,1
4001.4,54.3,20.034,0,0.048107,0,4378.3,54.076,0,0,0,0,0.0045237,1
4001.4,54.3,20.034,0,0.048107,0,4378.3,54.076,0,0,0,0,0.0045237,1
4001.4,54.3,20.034,0,0.048107,0,4378.3,54.076,0,0,0,0,0.0045237,1
4001.4,54.3,20.034,0,0.048107,0,4378.3,54.076,0,0,0,0,0.0045237,1
4001.4,54.3,20.034,0,0.048107,0,4378.3,54.076,0,0,0,0,0.0045237,1
4001.4,54.3,20.034,0,0.048107,0,4378.3,54.076,0,0,0,0,0.0045237,1
4003,54.3,20.038,0,0.046341,0,4378.3,54.076,0,0,0,0,0.004543,1
4003,54.3,20.038,0,0.046341,0,4378.3,54.076,0,0,0,0,0.004543,1
4003,54.3,20.038,0,0.046341,0,4378.3,54.076,0,0,0,0,0.004543,1
4003.4,54.3,20.038,0,0.04591,0,4378.3,54.076,0,0,0,0,0.0045478,1
4003.8,54.3,20.039,0,0.045483,0,4378.3,54.076,0,0,0,0,0.0045527,1
4005,54.3,20.042,0,0.044228,0,4378.3,54.076,0,0,0,0,0.0045674,1
4005.8,54.3,20.044,0,0.043413,0,4378.3,54.076,0,0,0,0,0.0045772,1
4005.8,54.3,20.044,0,0.043413,0,4378.3,54.076,0,0,0,0,0.0045772,1
4005.8,54.3,20.044,0,0.043413,0,4378.3,54.076,0,0,0,0,0.0045772,1
4006.3,54.3,20.045,0,0.043011,0,4378.3,54.076,0,0,0,0,0.0045821,1
4006.3,54.3,20.045,0,0.043011,0,4378.3,54.076,0,0,0,0,0.0045821,1
4006.3,54.3,20.045,0,0.043011,0,4378.3,54.076,0,0,0,0,0.0045821,1
4006.3,54.3,20.045,0,0.043011,0,4378.3,54.076,0,0,0,0,0.0045821,1
4006.3,54.3,20.045,0,0.043011,0,4378.3,54.076,0,0,0,0,0.0045821,1
4006.3,54.3,20.045,0,0.043011,0,4378.3,54.076,0,0,0,0,0.0045821,1
4006.3,54.3,20.045,0,0.043011,0,4378.3,54.076,0,0,0,0,0.0045821,1
4006.3,54.3,20.045,0,0.043011,0,4378.3,54.076,0,0,0,0,0.0045821,1
4006.3,54.3,20.045,0,0.043011,0,4378.3,54.076,0,0,0,0,0.0045821,1
4006.3,54.3,20.045,0,0.043011,0,4378.3,54.076,0,0,0,0,0.0045821,1
4006.3,54.3,20.045,0,0.043011,0,4378.3,54.076,0,0,0,0,0.0045821,1
4006.3,54.3,20.045,0,0.043011,0,4378.3,54.076,0,0,0,0,0.0045821,1
4006.3,54.3,20.045,0,0.043011,0,4378.3,54.076,0,0,0,0,0.0045821,1
4007.1,54.3,20.046,0,0.042219,0,4378.3,54.076,0,0,0,0,0.004592,1
4007.1,54.3,20.046,0,0.042219,0,4378.3,54.076,0,0,0,0,0.004592,1
4007.1,54.3,20.046,0,0.042219,0,4378.3,54.076,0,0,0,0,0.004592,1
4007.1,54.3,20.046,0,0.042219,0,4378.3,54.076,0,0,0,0,0.004592,1
4007.5,54.3,20.047,0,0.041828,0,4378.3,54.076,0,0,0,0,0.004597,1
4007.5,54.3,20.047,0,0.041828,0,4378.3,54.076,0,0,0,0,0.004597,1
4007.5,54.3,20.047,0,0.041828,0,4378.3,54.076,0,0,0,0,0.004597,1
4007.5,54.3,20.047,0,0.041828,0,4378.3,54.076,0,0,0,0,0.004597,1
4007.5,54.3,20.047,0,0.041828,0,4378.3,54.076,0,0,0,0,0.004597,1
4007.5,54.3,20.047,0,0.041828,0,4378.3,54.076,0,0,0,0,0.004597,1
4007.5,54.3,20.047,0,0.041828,0,4378.3,54.076,0,0,0,0,0.004597,1
4007.5,54.3,20.047,0,0.041828,0,4378.3,54.076,0,0,0,0,0.004597,1
4010.7,54.3,20.054,0,0.038834,0,4378.3,54.076,0,0,0,0,0.0046371,1
4011.5,54.3,20.055,0,0.038121,0,4378.3,54.076,0,0,0,0,0.0046472,1
4011.5,54.3,20.055,0,0.038121,0,4378.3,54.076,0,0,0,0,0.0046472,1
4011.5,54.3,20.055,0,0.038121,0,4378.3,54.076,0,0,0,0,0.0046472,1
4011.5,54.3,20.055,0,0.038121,0,4378.3,54.076,0,0,0,0,0.0046472,1
4011.5,54.3,20.055,0,0.038121,0,4378.3,54.076,0,0,0,0,0.0046472,1
4011.5,54.3,20.055,0,0.038121,0,4378.3,54.076,0,0,0,0,0.0046472,1
4011.5,54.3,20.055,0,0.038121,0,4378.3,54.076,0,0,0,0,0.0046472,1
4012.3,54.3,20.057,0,0.037422,0,4378.3,54.076,0,0,0,0,0.0046574,1
4012.3,54.3,20.057,0,0.037422,0,4378.3,54.076,0,0,0,0,0.0046574,1
4012.3,54.3,20.057,0,0.037422,0,4378.3,54.076,0,0,0,0,0.0046574,1
4012.3,54.3,20.057,0,0.037422,0,4378.3,54.076,0,0,0,0,0.0046574,1
4012.3,54.3,20.057,0,0.037422,0,4378.3,54.076,0,0,0,0,0.0046574,1
4012.3,54.3,20.057,0,0.037422,0,4378.3,54.076,0,0,0,0,0.0046574,1
4012.3,54.3,20.057,0,0.037422,0,4378.3,54.076,0,0,0,0,0.0046574,1
4012.3,54.3,20.057,0,0.037422,0,4378.3,54.076,0,0,0,0,0.0046574,1
4012.3,54.3,20.057,0,0.037422,0,4378.3,54.076,0,0,0,0,0.0046574,1
4012.3,54.3,20.057,0,0.037422,0,4378.3,54.076,0,0,0,0,0.0046574,1
4012.3,54.3,20.057,0,0.037422,0,4378.3,54.076,0,0,0,0,0.0046574,1
4012.3,54.3,20.057,0,0.037422,0,4378.3,54.076,0,0,0,0,0.0046574,1
4012.3,54.3,20.057,0,0.037422,0,4378.3,54.076,0,0,0,0,0.0046574,1
4013.9,54.3,20.06,0,0.036062,0,4378.3,54.076,0,0,0,0,0.0046779,1
4013.9,54.3,20.06,0,0.036062,0,4378.3,54.076,0,0,0,0,0.0046779,1
4015.1,54.3,20.062,0,0.035075,0,4378.3,54.076,0,0,0,0,0.0046934,1
4015.1,54.3,20.062,0,0.035075,0,4378.3,54.076,0,0,0,0,0.0046934,1
4015.1,54.3,20.062,0,0.035075,0,4378.3,54.076,0,0,0,0,0.0046934,1
4015.1,54.3,20.062,0,0.035075,0,4378.3,54.076,0,0,0,0,0.0046934,1
4015.1,54.3,20.062,0,0.035075,0,4378.3,54.076,0,0,0,0,0.0046934,1
4015.1,54.3,20.062,0,0.035075,0,4378.3,54.076,0,0,0,0,0.0046934,1
4016.7,54.3,20.065,0,0.033801,0,4378.3,54.076,0,0,0,0,0.0047143,1
4017.1,54.3,20.065,0,0.03349,0,4378.3,54.076,0,0,0,0,0.0047195,1
4017.1,54.3,20.065,0,0.03349,0,4378.3,54.076,0,0,0,0,0.0047195,1
4017.5,54.3,20.066,0,0.033181,0,4378.3,54.076,0,0,0,0,0.0047247,1
4017.5,54.3,20.066,0,0.033181,0,4378.3,54.076,0,0,0,0,0.0047247,1
4017.5,54.3,20.066,0,0.033181,0,4378.3,54.076,0,0,0,0,0.0047247,1
4017.5,54.3,20.066,0,0.033181,0,4378.3,54.076,0,0,0,0,0.0047247,1
4018.3,54.3,20.067,0,0.032571,0,4378.3,54.076,0,0,0,0,0.0047353,1
4018.3,54.3,20.067,0,0.032571,0,4378.3,54.076,0,0,0,0,0.0047353,1
4018.3,54.3,20.067,0,0.032571,0,4378.3,54.076,0,0,0,0,0.0047353,1
4018.3,54.3,20.067,0,0.032571,0,4378.3,54.076,0,0,0,0,0.0047353,1
4018.3,54.3,20.067,0,0.032571,0,4378.3,54.076,0,0,0,0,0.0047353,1
4018.7,54.3,20.068,0,0.032271,0,4378.3,54.076,0,0,0,0,0.0047406,1
4018.7,54.3,20.068,0,0.032271,0,4378.3,54.076,0,0,0,0,0.0047406,1
4018.7,54.3,20.068,0,0.032271,0,4378.3,54.076,0,0,0,0,0.0047406,1
4018.7,54.3,20.068,0,0.032271,0,4378.3,54.076,0,0,0,0,0.0047406,1
4018.7,54.3,20.068,0,0.032271,0,4378.3,54.076,0,0,0,0,0.0047406,1
4019.9,54.3,20.07,0,0.031385,0,4378.3,54.076,0,0,0,0,0.0047565,1
4020.7,54.3,20.071,0,0.030807,0,4378.3,54.076,0,0,0,0,0.0047672,1
4020.7,54.3,20.071,0,0.030807,0,4378.3,54.076,0,0,0,0,0.0047672,1
4020.7,54.3,20.071,0,0.030807,0,4378.3,54.076,0,0,0,0,0.0047672,1
4020.7,54.3,20.071,0,0.030807,0,4378.3,54.076,0,0,0,0,0.0047672,1
4020.7,54.3,20.071,0,0.030807,0,4378.3,54.076,0,0,0,0,0.0047672,1
4020.7,54.3,20.071,0,0.030807,0,4378.3,54.076,0,0,0,0,0.0047672,1
4020.7,54.3,20.071,0,0.030807,0,4378.3,54.076,0,0,0,0,0.0047672,1
4020.7,54.3,20.071,0,0.030807,0,4378.3,54.076,0,0,0,0,0.0047672,1
4020.7,54.3,20.071,0,0.030807,0,4378.3,54.076,0,0,0,0,0.0047672,1
4020.7,54.3,20.071,0,0.030807,0,4378.3,54.076,0,0,0,0,0.0047672,1
4020.7,54.3,20.071,0,0.030807,0,4378.3,54.076,0,0,0,0,0.0047672,1
4020.7,54.3,20.071,0,0.030807,0,4378.3,54.076,0,0,0,0,0.0047672,1
4020.7,54.3,20.071,0,0.030807,0,4378.3,54.076,0,0,0,0,0.0047672,1
4021.9,54.3,20.073,0,0.029958,0,4378.3,54.076,0,0,0,0,0.0047833,1
4021.9,54.3,20.073,0,0.029958,0,4378.3,54.076,0,0,0,0,0.0047833,1
4021.9,54.3,20.073,0,0.029958,0,4378.3,54.076,0,0,0,0,0.0047833,1
4021.9,54.3,20.073,0,0.029958,0,4378.3,54.076,0,0,0,0,0.0047833,1
4021.9,54.3,20.073,0,0.029958,0,4378.3,54.076,0,0,0,0,0.0047833,1
4021.9,54.3,20.073,0,0.029958,0,4378.3,54.076,0,0,0,0,0.0047833,1
4021.9,54.3,20.073,0,0.029958,0,4378.3,54.076,0,0,0,0,0.0047833,1
4021.9,54.3,20.073,0,0.029958,0,4378.3,54.076,0,0,0,0,0.0047833,1
4021.9,54.3,20.073,0,0.029958,0,4378.3,54.076,0,0,0,0,0.0047833,1
4024.3,54.3,20.076,0,0.028326,0,4378.3,54.076,0,0,0,0,0.0048158,1
4024.3,54.3,20.076,0,0.028326,0,4378.3,54.076,0,0,0,0,0.0048158,1
4024.3,54.3,20.076,0,0.028326,0,4378.3,54.076,0,0,0,0,0.0048158,1
4025.5,54.3,20.078,0,0.027542,0,4378.3,54.076,0,0,0,0,0.0048323,1
4025.5,54.3,20.078,0,0.027542,0,4378.3,54.076,0,0,0,0,0.0048323,1
4025.5,54.3,20.078,0,0.027542,0,4378.3,54.076,0,0,0,0,0.0048323,1
4025.5,54.3,20.078,0,0.027542,0,4378.3,54.076,0,0,0,0,0.0048323,1
4025.5,54.3,20.078,0,0.027542,0,4378.3,54.076,0,0,0,0,0.0048323,1
4025.5,54.3,20.078,0,0.027542,0,4378.3,54.076,0,0,0,0,0.0048323,1
4025.5,54.3,20.078,0,0.027542,0,4378.3,54.076,0,0,0,0,0.0048323,1
4025.5,54.3,20.078,0,0.027542,0,4378.3,54.076,0,0,0,0,0.0048323,1
4026.7,54.3,20.08,0,0.026777,0,4378.3,54.076,0,0,0,0,0.0048488,1
4026.7,54.3,20.08,0,0.026777,0,4378.3,54.076,0,0,0,0,0.0048488,1
4026.7,54.3,20.08,0,0.026777,0,4378.3,54.076,0,0,0,0,0.0048488,1
4026.7,54.3,20.08,0,0.026777,0,4378.3,54.076,0,0,0,0,0.0048488,1
4026.7,54.3,20.08,0,0.026777,0,4378.3,54.076,0,0,0,0,0.0048488,1
4026.7,54.3,20.08,0,0.026777,0,4378.3,54.076,0,0,0,0,0.0048488,1
4026.7,54.3,20.08,0,0.026777,0,4378.3,54.076,0,0,0,0,0.0048488,1
4026.7,54.3,20.08,0,0.026777,0,4378.3,54.076,0,0,0,0,0.0048488,1
4026.7,54.3,20.08,0,0.026777,0,4378.3,54.076,0,0,0,0,0.0048488,1
4026.7,54.3,20.08,0,0.026777,0,4378.3,54.076,0,0,0,0,0.0048488,1
4026.7,54.3,20.08,0,0.026777,0,4378.3,54.076,0,0,0,0,0.0048488,1
4026.7,54.3,20.08,0,0.026777,0,4378.3,54.076,0,0,0,0,0.0048488,1
4026.7,54.3,20.08,0,0.026777,0,4378.3,54.076,0,0,0,0,0.0048488,1
4027.9,54.3,20.081,0,0.026031,0,4378.3,54.076,0,0,0,0,0.0048655,1
4027.9,54.3,20.081,0,0.026031,0,4378.3,54.076,0,0,0,0,0.0048655,1
4027.9,54.3,20.081,0,0.026031,0,4378.3,54.076,0,0,0,0,0.0048655,1
4027.9,54.3,20.081,0,0.026031,0,4378.3,54.076,0,0,0,0,0.0048655,1
4030.3,54.3,20.084,0,0.024592,0,4378.3,54.076,0,0,0,0,0.0048992,1
4030.3,54.3,20.084,0,0.024592,0,4378.3,54.076,0,0,0,0,0.0048992,1
4030.3,54.3,20.084,0,0.024592,0,4378.3,54.076,0,0,0,0,0.0048992,1
4030.3,54.3,20.084,0,0.024592,0,4378.3,54.076,0,0,0,0,0.0048992,1
4030.3,54.3,20.084,0,0.024592,0,4378.3,54.076,0,0,0,0,0.0048992,1
4030.3,54.3,20.084,0,0.024592,0,4378.3,54.076,0,0,0,0,0.0048992,1
4030.3,54.3,20.084,0,0.024592,0,4378.3,54.076,0,0,0,0,0.0048992,1
4030.3,54.3,20.084,0,0.024592,0,4378.3,54.076,0,0,0,0,0.0048992,1
4030.3,54.3,20.084,0,0.024592,0,4378.3,54.076,0,0,0,0,0.0048992,1
4030.3,54.3,20.084,0,0.024592,0,4378.3,54.076,0,0,0,0,0.0048992,1
4030.3,54.3,20.084,0,0.024592,0,4378.3,54.076,0,0,0,0,0.0048992,1
4031.9,54.3,20.086,0,0.023669,0,4378.3,54.076,0,0,0,0,0.0049219,1
4031.9,54.3,20.086,0,0.023669,0,4378.3,54.076,0,0,0,0,0.0049219,1
4031.9,54.3,20.086,0,0.023669,0,4378.3,54.076,0,0,0,0,0.0049219,1
4031.9,54.3,20.086,0,0.023669,0,4378.3,54.076,0,0,0,0,0.0049219,1
4031.9,54.3,20.086,0,0.023669,0,4378.3,54.076,0,0,0,0,0.0049219,1
4031.9,54.3,20.086,0,0.023669,0,4378.3,54.076,0,0,0,0,0.0049219,1
4031.9,54.3,20.086,0,0.023669,0,4378.3,54.076,0,0,0,0,0.0049219,1
4031.9,54.3,20.086,0,0.023669,0,4378.3,54.076,0,0,0,0,0.0049219,1
4033.9,54.3,20.089,0,0.022557,0,4378.3,54.076,0,0,0,0,0.0049506,1
4033.9,54.3,20.089,0,0.022557,0,4378.3,54.076,0,0,0,0,0.0049506,1
4033.9,54.3,20.089,0,0.022557,0,4378.3,54.076,0,0,0,0,0.0049506,1
4033.9,54.3,20.089,0,0.022557,0,4378.3,54.076,0,0,0,0,0.0049506,1
4033.9,54.3,20.089,0,0.022557,0,4378.3,54.076,0,0,0,0,0.0049506,1
4033.9,54.3,20.089,0,0.022557,0,4378.3,54.076,0,0,0,0,0.0049506,1
4033.9,54.3,20.089,0,0.022557,0,4378.3,54.076,0,0,0,0,0.0049506,1
4033.9,54.3,20.089,0,0.022557,0,4378.3,54.076,0,0,0,0,0.0049506,1
4035.6,54.3,20.09,0,0.021698,0,4378.3,54.076,0,0,0,0,0.0049738,1
4035.6,54.3,20.09,0,0.021698,0,4378.3,54.076,0,0,0,0,0.0049738,1
4035.6,54.3,20.09,0,0.021698,0,4378.3,54.076,0,0,0,0,0.0049738,1
4035.6,54.3,20.09,0,0.021698,0,4378.3,54.076,0,0,0,0,0.0049738,1
4035.6,54.3,20.09,0,0.021698,0,4378.3,54.076,0,0,0,0,0.0049738,1
4035.6,54.3,20.09,0,0.021698,0,4378.3,54.076,0,0,0,0,0.0049738,1
4035.6,54.3,20.09,0,0.021698,0,4378.3,54.076,0,0,0,0,0.0049738,1
4035.6,54.3,20.09,0,0.021698,0,4378.3,54.076,0,0,0,0,0.0049738,1
4035.6,54.3,20.09,0,0.021698,0,4378.3,54.076,0,0,0,0,0.0049738,1
4035.6,54.3,20.09,0,0.021698,0,4378.3,54.076,0,0,0,0,0.0049738,1
4035.6,54.3,20.09,0,0.021698,0,4378.3,54.076,0,0,0,0,0.0049738,1
4036.4,54.3,20.091,0,0.021277,0,4378.3,54.076,0,0,0,0,0.0049855,1
4036.4,54.3,20.091,0,0.021277,0,4378.3,54.076,0,0,0,0,0.0049855,1
4036.4,54.3,20.091,0,0.021277,0,4378.3,54.076,0,0,0,0,0.0049855,1
4038.4,54.3,20.093,0,0.020253,0,4378.3,54.076,0,0,0,0,0.005015,1
4038.4,54.3,20.093,0,0.020253,0,4378.3,54.076,0,0,0,0,0.005015,1
4038.4,54.3,20.093,0,0.020253,0,4378.3,54.076,0,0,0,0,0.005015,1
4038.4,54.3,20.093,0,0.020253,0,4378.3,54.076,0,0,0,0,0.005015,1
4038.4,54.3,20.093,0,0.020253,0,4378.3,54.076,0,0,0,0,0.005015,1
4038.4,54.3,20.093,0,0.020253,0,4378.3,54.076,0,0,0,0,0.005015,1
4038.4,54.3,20.093,0,0.020253,0,4378.3,54.076,0,0,0,0,0.005015,1
4038.4,54.3,20.093,0,0.020253,0,4378.3,54.076,0,0,0,0,0.005015,1
4038.4,54.3,20.093,0,0.020253,0,4378.3,54.076,0,0,0,0,0.005015,1
4038.4,54.3,20.093,0,0.020253,0,4378.3,54.076,0,0,0,0,0.005015,1
4038.4,54.3,20.093,0,0.020253,0,4378.3,54.076,0,0,0,0,0.005015,1
4038.4,54.3,20.093,0,0.020253,0,4378.3,54.076,0,0,0,0,0.005015,1
4038.4,54.3,20.093,0,0.020253,0,4378.3,54.076,0,0,0,0,0.005015,1
4038.4,54.3,20.093,0,0.020253,0,4378.3,54.076,0,0,0,0,0.005015,1
4038.4,54.3,20.093,0,0.020253,0,4378.3,54.076,0,0,0,0,0.005015,1
4040.4,54.3,20.095,0,0.019266,0,4378.3,54.076,0,0,0,0,0.0050448,1
4040.4,54.3,20.095,0,0.019266,0,4378.3,54.076,0,0,0,0,0.0050448,1
4040.4,54.3,20.095,0,0.019266,0,4378.3,54.076,0,0,0,0,0.0050448,1
4040.4,54.3,20.095,0,0.019266,0,4378.3,54.076,0,0,0,0,0.0050448,1
4040.4,54.3,20.095,0,0.019266,0,4378.3,54.076,0,0,0,0,0.0050448,1
4040.4,54.3,20.095,0,0.019266,0,4378.3,54.076,0,0,0,0,0.0050448,1
4040.4,54.3,20.095,0,0.019266,0,4378.3,54.076,0,0,0,0,0.0050448,1
4040.4,54.3,20.095,0,0.019266,0,4378.3,54.076,0,0,0,0,0.0050448,1
4041.2,54.3,20.096,0,0.018881,0,4378.3,54.076,0,0,0,0,0.0050568,1
4042.8,54.3,20.097,0,0.018127,0,4378.3,54.076,0,0,0,0,0.005081,1
4042.8,54.3,20.097,0,0.018127,0,4378.3,54.076,0,0,0,0,0.005081,1
4042.8,54.3,20.097,0,0.018127,0,4378.3,54.076,0,0,0,0,0.005081,1
4043.6,54.3,20.098,0,0.017757,0,4378.3,54.076,0,0,0,0,0.0050932,1
4043.6,54.3,20.098,0,0.017757,0,4378.3,54.076,0,0,0,0,0.0050932,1
4043.6,54.3,20.098,0,0.017757,0,4378.3,54.076,0,0,0,0,0.0050932,1
4043.6,54.3,20.098,0,0.017757,0,4378.3,54.076,0,0,0,0,0.0050932,1
4043.6,54.3,20.098,0,0.017757,0,4378.3,54.076,0,0,0,0,0.0050932,1
4043.6,54.3,20.098,0,0.017757,0,4378.3,54.076,0,0,0,0,0.0050932,1
4043.6,54.3,20.098,0,0.017757,0,4378.3,54.076,0,0,0,0,0.0050932,1
4043.6,54.3,20.098,0,0.017757,0,4378.3,54.076,0,0,0,0,0.0050932,1
4043.6,54.3,20.098,0,0.017757,0,4378.3,54.076,0,0,0,0,0.0050932,1
4043.6,54.3,20.098,0,0.017757,0,4378.3,54.076,0,0,0,0,0.0050932,1
4043.6,54.3,20.098,0,0.017757,0,4378.3,54.076,0,0,0,0,0.0050932,1
4046,54.3,20.1,0,0.016678,0,4378.3,54.076,0,0,0,0,0.0051302,1
4046,54.3,20.1,0,0.016678,0,4378.3,54.076,0,0,0,0,0.0051302,1
4046,54.3,20.1,0,0.016678,0,4378.3,54.076,0,0,0,0,0.0051302,1
4046,54.3,20.1,0,0.016678,0,4378.3,54.076,0,0,0,0,0.0051302,1
4046,54.3,20.1,0,0.016678,0,4378.3,54.076,0,0,0,0,0.0051302,1
4046,54.3,20.1,0,0.016678,0,4378.3,54.076,0,0,0,0,0.0051302,1
4046,54.3,20.1,0,0.016678,0,4378.3,54.076,0,0,0,0,0.0051302,1
4046,54.3,20.1,0,0.016678,0,4378.3,54.076,0,0,0,0,0.0051302,1
4046.4,54.3,20.101,0,0.016502,0,4378.3,54.076,0,0,0,0,0.0051364,1
4046.4,54.3,20.101,0,0.016502,0,4378.3,54.076,0,0,0,0,0.0051364,1
4047.6,54.3,20.102,0,0.015981,0,4378.3,54.076,0,0,0,0,0.0051551,1
4047.6,54.3,20.102,0,0.015981,0,4378.3,54.076,0,0,0,0,0.0051551,1
4047.6,54.3,20.102,0,0.015981,0,4378.3,54.076,0,0,0,0,0.0051551,1
4047.6,54.3,20.102,0,0.015981,0,4378.3,54.076,0,0,0,0,0.0051551,1
4047.6,54.3,20.102,0,0.015981,0,4378.3,54.076,0,0,0,0,0.0051551,1
4048,54.3,20.102,0,0.01581,0,4378.3,54.076,0,0,0,0,0.0051614,1
4048,54.3,20.102,0,0.01581,0,4378.3,54.076,0,0,0,0,0.0051614,1
4048,54.3,20.102,0,0.01581,0,4378.3,54.076,0,0,0,0,0.0051614,1
4048,54.3,20.102,0,0.01581,0,4378.3,54.076,0,0,0,0,0.0051614,1
4048,54.3,20.102,0,0.01581,0,4378.3,54.076,0,0,0,0,0.0051614,1
4048,54.3,20.102,0,0.01581,0,4378.3,54.076,0,0,0,0,0.0051614,1
4048,54.3,20.102,0,0.01581,0,4378.3,54.076,0,0,0,0,0.0051614,1
4048,54.3,20.102,0,0.01581,0,4378.3,54.076,0,0,0,0,0.0051614,1
4048,54.3,20.102,0,0.01581,0,4378.3,54.076,0,0,0,0,0.0051614,1
4050.8,54.3,20.104,0,0.01464,0,4378.3,54.076,0,0,0,0,0.0052058,1
4050.8,54.3,20.104,0,0.01464,0,4378.3,54.076,0,0,0,0,0.0052058,1
4050.8,54.3,20.104,0,0.01464,0,4378.3,54.076,0,0,0,0,0.0052058,1
4050.8,54.3,20.104,0,0.01464,0,4378.3,54.076,0,0,0,0,0.0052058,1
4050.8,54.3,20.104,0,0.01464,0,4378.3,54.076,0,0,0,0,0.0052058,1
4050.8,54.3,20.104,0,0.01464,0,4378.3,54.076,0,0,0,0,0.0052058,1
4050.8,54.3,20.104,0,0.01464,0,4378.3,54.076,0,0,0,0,0.0052058,1
4051.6,54.3,20.105,0,0.014315,0,4378.3,54.076,0,0,0,0,0.0052186,1
4052.4,54.3,20.105,0,0.013994,0,4378.3,54.076,0,0,0,0,0.0052315,1
4052.4,54.3,20.105,0,0.013994,0,4378.3,54.076,0,0,0,0,0.0052315,1
4052.4,54.3,20.105,0,0.013994,0,4378.3,54.076,0,0,0,0,0.0052315,1
4053.6,54.3,20.106,0,0.013519,0,4378.3,54.076,0,0,0,0,0.0052509,1
4053.6,54.3,20.106,0,0.013519,0,4378.3,54.076,0,0,0,0,0.0052509,1
4053.6,54.3,20.106,0,0.013519,0,4378.3,54.076,0,0,0,0,0.0052509,1
4054,54.3,20.106,0,0.013362,0,4378.3,54.076,0,0,0,0,0.0052574,1
4054,54.3,20.106,0,0.013362,0,4378.3,54.076,0,0,0,0,0.0052574,1
4054,54.3,20.106,0,0.013362,0,4378.3,54.076,0,0,0,0,0.0052574,1
4054,54.3,20.106,0,0.013362,0,4378.3,54.076,0,0,0,0,0.0052574,1
4054,54.3,20.106,0,0.013362,0,4378.3,54.076,0,0,0,0,0.0052574,1
4054,54.3,20.106,0,0.013362,0,4378.3,54.076,0,0,0,0,0.0052574,1
4054,54.3,20.106,0,0.013362,0,4378.3,54.076,0,0,0,0,0.0052574,1
4054,54.3,20.106,0,0.013362,0,4378.3,54.076,0,0,0,0,0.0052574,1
4054,54.3,20.106,0,0.013362,0,4378.3,54.076,0,0,0,0,0.0052574,1
4054,54.3,20.106,0,0.013362,0,4378.3,54.076,0,0,0,0,0.0052574,1
4054,54.3,20.106,0,0.013362,0,4378.3,54.076,0,0,0,0,0.0052574,1
4054,54.3,20.106,0,0.013362,0,4378.3,54.076,0,0,0,0,0.0052574,1
4054.8,54.3,20.107,0,0.013052,0,4378.3,54.076,0,0,0,0,0.0052705,1
4054.8,54.3,20.107,0,0.013052,0,4378.3,54.076,0,0,0,0,0.0052705,1
4054.8,54.3,20.107,0,0.013052,0,4378.3,54.076,0,0,0,0,0.0052705,1
4056.5,54.3,20.108,0,0.012442,0,4378.3,54.076,0,0,0,0,0.0052968,1
4057.7,54.3,20.108,0,0.011994,0,4378.3,54.076,0,0,0,0,0.0053167,1
4057.7,54.3,20.108,0,0.011994,0,4378.3,54.076,0,0,0,0,0.0053167,1
4057.7,54.3,20.108,0,0.011994,0,4378.3,54.076,0,0,0,0,0.0053167,1
4057.7,54.3,20.108,0,0.011994,0,4378.3,54.076,0,0,0,0,0.0053167,1
4057.7,54.3,20.108,0,0.011994,0,4378.3,54.076,0,0,0,0,0.0053167,1
4057.7,54.3,20.108,0,0.011994,0,4378.3,54.076,0,0,0,0,0.0053167,1
4057.7,54.3,20.108,0,0.011994,0,4378.3,54.076,0,0,0,0,0.0053167,1
4057.7,54.3,20.108,0,0.011994,0,4378.3,54.076,0,0,0,0,0.0053167,1
4057.7,54.3,20.108,0,0.011994,0,4378.3,54.076,0,0,0,0,0.0053167,1
4057.7,54.3,20.108,0,0.011994,0,4378.3,54.076,0,0,0,0,0.0053167,1
4057.7,54.3,20.108,0,0.011994,0,4378.3,54.076,0,0,0,0,0.0053167,1
4057.7,54.3,20.108,0,0.011994,0,4378.3,54.076,0,0,0,0,0.0053167,1
4057.7,54.3,20.108,0,0.011994,0,4378.3,54.076,0,0,0,0,0.0053167,1
4058.5,54.3,20.109,0,0.011698,0,4378.3,54.076,0,0,0,0,0.0053301,1
4058.5,54.3,20.109,0,0.011698,0,4378.3,54.076,0,0,0,0,0.0053301,1
4058.5,54.3,20.109,0,0.011698,0,4378.3,54.076,0,0,0,0,0.0053301,1
4058.5,54.3,20.109,0,0.011698,0,4378.3,54.076,0,0,0,0,0.0053301,1
4058.5,54.3,20.109,0,0.011698,0,4378.3,54.076,0,0,0,0,0.0053301,1
4058.5,54.3,20.109,0,0.011698,0,4378.3,54.076,0,0,0,0,0.0053301,1
4058.5,54.3,20.109,0,0.011698,0,4378.3,54.076,0,0,0,0,0.0053301,1
4058.5,54.3,20.109,0,0.011698,0,4378.3,54.076,0,0,0,0,0.0053301,1
4058.9,54.3,20.109,0,0.011552,0,4378.3,54.076,0,0,0,0,0.0053368,1
4058.9,54.3,20.109,0,0.011552,0,4378.3,54.076,0,0,0,0,0.0053368,1
4060.1,54.3,20.11,0,0.011118,0,4378.3,54.076,0,0,0,0,0.0053571,1
4060.1,54.3,20.11,0,0.011118,0,4378.3,54.076,0,0,0,0,0.0053571,1
4060.1,54.3,20.11,0,0.011118,0,4378.3,54.076,0,0,0,0,0.0053571,1
4061.3,54.3,20.111,0,0.010691,0,4378.3,54.076,0,0,0,0,0.0053774,1
4062.9,54.3,20.111,0,0.010131,0,4378.3,54.076,0,0,0,0,0.0054049,1
4062.9,54.3,20.111,0,0.010131,0,4378.3,54.076,0,0,0,0,0.0054049,1
4062.9,54.3,20.111,0,0.010131,0,4378.3,54.076,0,0,0,0,0.0054049,1
4062.9,54.3,20.111,0,0.010131,0,4378.3,54.076,0,0,0,0,0.0054049,1
4062.9,54.3,20.111,0,0.010131,0,4378.3,54.076,0,0,0,0,0.0054049,1
4063.3,54.3,20.112,0,0.0099934,0,4378.3,54.076,0,0,0,0,0.0054118,1
4063.3,54.3,20.112,0,0.0099934,0,4378.3,54.076,0,0,0,0,0.0054118,1
4063.3,54.3,20.112,0,0.0099934,0,4378.3,54.076,0,0,0,0,0.0054118,1
4063.3,54.3,20.112,0,0.0099934,0,4378.3,54.076,0,0,0,0,0.0054118,1
4063.3,54.3,20.112,0,0.0099934,0,4378.3,54.076,0,0,0,0,0.0054118,1
4063.3,54.3,20.112,0,0.0099934,0,4378.3,54.076,0,0,0,0,0.0054118,1
4063.3,54.3,20.112,0,0.0099934,0,4378.3,54.076,0,0,0,0,0.0054118,1
4063.3,54.3,20.112,0,0.0099934,0,4378.3,54.076,0,0,0,0,0.0054118,1
4063.3,54.3,20.112,0,0.0099934,0,4378.3,54.076,0,0,0,0,0.0054118,1
4063.3,54.3,20.112,0,0.0099934,0,4378.3,54.076,0,0,0,0,0.0054118,1
4064.1,54.3,20.112,0,0.0097182,0,4378.3,54.076,0,0,0,0,0.0054256,1
4064.1,54.3,20.112,0,0.0097182,0,4378.3,54.076,0,0,0,0,0.0054256,1
4064.5,54.3,20.112,0,0.009582,0,4378.3,54.076,0,0,0,0,0.0054326,1
4064.5,54.3,20.112,0,0.009582,0,4378.3,54.076,0,0,0,0,0.0054326,1
4065.3,54.3,20.113,0,0.0093113,0,4378.3,54.076,0,0,0,0,0.0054465,1
4065.3,54.3,20.113,0,0.0093113,0,4378.3,54.076,0,0,0,0,0.0054465,1
4066.9,54.3,20.113,0,0.0087772,0,4378.3,54.076,0,0,0,0,0.0054747,1
4066.9,54.3,20.113,0,0.0087772,0,4378.3,54.076,0,0,0,0,0.0054747,1
4066.9,54.3,20.113,0,0.0087772,0,4378.3,54.076,0,0,0,0,0.0054747,1
4066.9,54.3,20.113,0,0.0087772,0,4378.3,54.076,0,0,0,0,0.0054747,1
4066.9,54.3,20.113,0,0.0087772,0,4378.3,54.076,0,0,0,0,0.0054747,1
4066.9,54.3,20.113,0,0.0087772,0,4378.3,54.076,0,0,0,0,0.0054747,1
4066.9,54.3,20.113,0,0.0087772,0,4378.3,54.076,0,0,0,0,0.0054747,1
4066.9,54.3,20.113,0,0.0087772,0,4378.3,54.076,0,0,0,0,0.0054747,1
4068.1,54.3,20.114,0,0.0083838,0,4378.3,54.076,0,0,0,0,0.005496,1
4068.1,54.3,20.114,0,0.0083838,0,4378.3,54.076,0,0,0,0,0.005496,1
4068.1,54.3,20.114,0,0.0083838,0,4378.3,54.076,0,0,0,0,0.005496,1
4068.1,54.3,20.114,0,0.0083838,0,4378.3,54.076,0,0,0,0,0.005496,1
4068.1,54.3,20.114,0,0.0083838,0,4378.3,54.076,0,0,0,0,0.005496,1
4068.1,54.3,20.114,0,0.0083838,0,4378.3,54.076,0,0,0,0,0.005496,1
4068.1,54.3,20.114,0,0.0083838,0,4378.3,54.076,0,0,0,0,0.005496,1
4068.1,54.3,20.114,0,0.0083838,0,4378.3,54.076,0,0,0,0,0.005496,1
4068.1,54.3,20.114,0,0.0083838,0,4378.3,54.076,0,0,0,0,0.005496,1
4068.1,54.3,20.114,0,0.0083838,0,4378.3,54.076,0,0,0,0,0.005496,1
4068.1,54.3,20.114,0,0.0083838,0,4378.3,54.076,0,0,0,0,0.005496,1
4068.1,54.3,20.114,0,0.0083838,0,4378.3,54.076,0,0,0,0,0.005496,1
4068.1,54.3,20.114,0,0.0083838,0,4378.3,54.076,0,0,0,0,0.005496,1
4068.1,54.3,20.114,0,0.0083838,0,4378.3,54.076,0,0,0,0,0.005496,1
4068.1,54.3,20.114,0,0.0083838,0,4378.3,54.076,0,0,0,0,0.005496,1
4069.7,54.3,20.114,0,0.0078666,0,4378.3,54.076,0,0,0,0,0.0055246,1
4069.7,54.3,20.114,0,0.0078666,0,4378.3,54.076,0,0,0,0,0.0055246,1
4069.7,54.3,20.114,0,0.0078666,0,4378.3,54.076,0,0,0,0,0.0055246,1
4071.7,54.3,20.115,0,0.0072334,0,4378.3,54.076,0,0,0,0,0.0055609,1
4071.7,54.3,20.115,0,0.0072334,0,4378.3,54.076,0,0,0,0,0.0055609,1
4072.1,54.3,20.115,0,0.0071081,0,4378.3,54.076,0,0,0,0,0.0055682,1
4072.1,54.3,20.115,0,0.0071081,0,4378.3,54.076,0,0,0,0,0.0055682,1
4072.1,54.3,20.115,0,0.0071081,0,4378.3,54.076,0,0,0,0,0.0055682,1
4072.1,54.3,20.115,0,0.0071081,0,4378.3,54.076,0,0,0,0,0.0055682,1
4072.1,54.3,20.115,0,0.0071081,0,4378.3,54.076,0,0,0,0,0.0055682,1
4073.4,54.3,20.116,0,0.0067355,0,4378.3,54.076,0,0,0,0,0.0055902,1
4073.8,54.3,20.116,0,0.006612,0,4378.3,54.076,0,0,0,0,0.0055976,1
4073.8,54.3,20.116,0,0.006612,0,4378.3,54.076,0,0,0,0,0.0055976,1
4073.8,54.3,20.116,0,0.006612,0,4378.3,54.076,0,0,0,0,0.0055976,1
4074.2,54.3,20.116,0,0.0064898,0,4378.3,54.076,0,0,0,0,0.005605,1
4074.2,54.3,20.116,0,0.0064898,0,4378.3,54.076,0,0,0,0,0.005605,1
4074.2,54.3,20.116,0,0.0064898,0,4378.3,54.076,0,0,0,0,0.005605,1
4074.2,54.3,20.116,0,0.0064898,0,4378.3,54.076,0,0,0,0,0.005605,1
4075,54.3,20.116,0,0.0062459,0,4378.3,54.076,0,0,0,0,0.0056199,1
4075.4,54.3,20.116,0,0.0061253,0,4378.3,54.076,0,0,0,0,0.0056273,1
4075.4,54.3,20.116,0,0.0061253,0,4378.3,54.076,0,0,0,0,0.0056273,1
4075.8,54.3,20.116,0,0.0060048,0,4378.3,54.076,0,0,0,0,0.0056348,1
4075.8,54.3,20.116,0,0.0060048,0,4378.3,54.076,0,0,0,0,0.0056348,1
4076.2,54.3,20.117,0,0.0058845,0,4378.3,54.076,0,0,0,0,0.0056423,1
4076.2,54.3,20.117,0,0.0058845,0,4378.3,54.076,0,0,0,0,0.0056423,1
4076.2,54.3,20.117,0,0.0058845,0,4378.3,54.076,0,0,0,0,0.0056423,1
4076.6,54.3,20.117,0,0.0057644,0,4378.3,54.076,0,0,0,0,0.0056498,1
4076.6,54.3,20.117,0,0.0057644,0,4378.3,54.076,0,0,0,0,0.0056498,1
4076.6,54.3,20.117,0,0.0057644,0,4378.3,54.076,0,0,0,0,0.0056498,1
4076.6,54.3,20.117,0,0.0057644,0,4378.3,54.076,0,0,0,0,0.0056498,1
4077,54.3,20.117,0,0.0056456,0,4378.3,54.076,0,0,0,0,0.0056574,1
4077,54.3,20.117,0,0.0056456,0,4378.3,54.076,0,0,0,0,0.0056574,1
4077.4,54.3,20.117,0,0.0055269,0,4378.3,54.076,0,0,0,0,0.0056649,1
4077.4,54.3,20.117,0,0.0055269,0,4378.3,54.076,0,0,0,0,0.0056649,1
4077.8,54.3,20.117,0,0.0054084,0,4378.3,54.076,0,0,0,0,0.0056725,1
4078.6,54.3,20.117,0,0.0051729,0,4378.3,54.076,0,0,0,0,0.0056878,1
4078.6,54.3,20.117,0,0.0051729,0,4378.3,54.076,0,0,0,0,0.0056878,1
4078.6,54.3,20.117,0,0.0051729,0,4378.3,54.076,0,0,0,0,0.0056878,1
4078.6,54.3,20.117,0,0.0051729,0,4378.3,54.076,0,0,0,0,0.0056878,1
4078.6,54.3,20.117,0,0.0051729,0,4378.3,54.076,0,0,0,0,0.0056878,1
4078.6,54.3,20.117,0,0.0051729,0,4378.3,54.076,0,0,0,0,0.0056878,1
4078.6,54.3,20.117,0,0.0051729,0,4378.3,54.076,0,0,0,0,0.0056878,1
4078.6,54.3,20.117,0,0.0051729,0,4378.3,54.076,0,0,0,0,0.0056878,1
4078.6,54.3,20.117,0,0.0051729,0,4378.3,54.076,0,0,0,0,0.0056878,1
4080.2,54.3,20.118,0,0.0047074,0,4378.3,54.076,0,0,0,0,0.0057185,1
4080.2,54.3,20.118,0,0.0047074,0,4378.3,54.076,0,0,0,0,0.0057185,1
4080.2,54.3,20.118,0,0.0047074,0,4378.3,54.076,0,0,0,0,0.0057185,1
4080.2,54.3,20.118,0,0.0047074,0,4378.3,54.076,0,0,0,0,0.0057185,1
4080.2,54.3,20.118,0,0.0047074,0,4378.3,54.076,0,0,0,0,0.0057185,1
4080.2,54.3,20.118,0,0.0047074,0,4378.3,54.076,0,0,0,0,0.0057185,1
4080.2,54.3,20.118,0,0.0047074,0,4378.3,54.076,0,0,0,0,0.0057185,1
4080.6,54.3,20.118,0,0.0045922,0,4378.3,54.076,0,0,0,0,0.0057262,1
4080.6,54.3,20.118,0,0.0045922,0,4378.3,54.076,0,0,0,0,0.0057262,1
4080.6,54.3,20.118,0,0.0045922,0,4378.3,54.076,0,0,0,0,0.0057262,1
4080.6,54.3,20.118,0,0.0045922,0,4378.3,54.076,0,0,0,0,0.0057262,1
4081.8,54.3,20.118,0,0.0042478,0,4378.3,54.076,0,0,0,0,0.0057495,1
4081.8,54.3,20.118,0,0.0042478,0,4378.3,54.076,0,0,0,0,0.0057495,1
4083,54.3,20.118,0,0.0039082,0,4378.3,54.076,0,0,0,0,0.005773,1
4083,54.3,20.118,0,0.0039082,0,4378.3,54.076,0,0,0,0,0.005773,1
4083,54.3,20.118,0,0.0039082,0,4378.3,54.076,0,0,0,0,0.005773,1
4083,54.3,20.118,0,0.0039082,0,4378.3,54.076,0,0,0,0,0.005773,1
4083,54.3,20.118,0,0.0039082,0,4378.3,54.076,0,0,0,0,0.005773,1
4083,54.3,20.118,0,0.0039082,0,4378.3,54.076,0,0,0,0,0.005773,1
4083,54.3,20.118,0,0.0039082,0,4378.3,54.076,0,0,0,0,0.005773,1
4083,54.3,20.118,0,0.0039082,0,4378.3,54.076,0,0,0,0,0.005773,1
4083,54.3,20.118,0,0.0039082,0,4378.3,54.076,0,0,0,0,0.005773,1
4083,54.3,20.118,0,0.0039082,0,4378.3,54.076,0,0,0,0,0.005773,1
4083,54.3,20.118,0,0.0039082,0,4378.3,54.076,0,0,0,0,0.005773,1
4083,54.3,20.118,0,0.0039082,0,4378.3,54.076,0,0,0,0,0.005773,1
4083,54.3,20.118,0,0.0039082,0,4378.3,54.076,0,0,0,0,0.005773,1
4085,54.3,20.119,0,0.0033488,0,4378.3,54.076,0,0,0,0,0.0058126,1
4085,54.3,20.119,0,0.0033488,0,4378.3,54.076,0,0,0,0,0.0058126,1
4085,54.3,20.119,0,0.0033488,0,4378.3,54.076,0,0,0,0,0.0058126,1
4085,54.3,20.119,0,0.0033488,0,4378.3,54.076,0,0,0,0,0.0058126,1
4085,54.3,20.119,0,0.0033488,0,4378.3,54.076,0,0,0,0,0.0058126,1
4085,54.3,20.119,0,0.0033488,0,4378.3,54.076,0,0,0,0,0.0058126,1
4085,54.3,20.119,0,0.0033488,0,4378.3,54.076,0,0,0,0,0.0058126,1
4085.4,54.3,20.119,0,0.0032378,0,4378.3,54.076,0,0,0,0,0.0058206,1
4085.4,54.3,20.119,0,0.0032378,0,4378.3,54.076,0,0,0,0,0.0058206,1
4085.4,54.3,20.119,0,0.0032378,0,4378.3,54.076,0,0,0,0,0.0058206,1
4085.4,54.3,20.119,0,0.0032378,0,4378.3,54.076,0,0,0,0,0.0058206,1
4087,54.3,20.119,0,0.0027979,0,4378.3,54.076,0,0,0,0,0.0058527,1
4088.2,54.3,20.119,0,0.0024714,0,4378.3,54.076,0,0,0,0,0.0058771,1
4088.2,54.3,20.119,0,0.0024714,0,4378.3,54.076,0,0,0,0,0.0058771,1
4088.2,54.3,20.119,0,0.0024714,0,4378.3,54.076,0,0,0,0,0.0058771,1
4088.2,54.3,20.119,0,0.0024714,0,4378.3,54.076,0,0,0,0,0.0058771,1
4088.2,54.3,20.119,0,0.0024714,0,4378.3,54.076,0,0,0,0,0.0058771,1
4088.2,54.3,20.119,0,0.0024714,0,4378.3,54.076,0,0,0,0,0.0058771,1
4088.2,54.3,20.119,0,0.0024714,0,4378.3,54.076,0,0,0,0,0.0058771,1
4089,54.3,20.119,0,0.0022557,0,4378.3,54.076,0,0,0,0,0.0058934,1
4089,54.3,20.119,0,0.0022557,0,4378.3,54.076,0,0,0,0,0.0058934,1
4089,54.3,20.119,0,0.0022557,0,4378.3,54.076,0,0,0,0,0.0058934,1
4089,54.3,20.119,0,0.0022557,0,4378.3,54.076,0,0,0,0,0.0058934,1
4089,54.3,20.119,0,0.0022557,0,4378.3,54.076,0,0,0,0,0.0058934,1
4089,54.3,20.119,0,0.0022557,0,4378.3,54.076,0,0,0,0,0.0058934,1
4089,54.3,20.119,0,0.0022557,0,4378.3,54.076,0,0,0,0,0.0058934,1
4089,54.3,20.119,0,0.0022557,0,4378.3,54.076,0,0,0,0,0.0058934,1
4089,54.3,20.119,0,0.0022557,0,4378.3,54.076,0,0,0,0,0.0058934,1
4089,54.3,20.119,0,0.0022557,0,4378.3,54.076,0,0,0,0,0.0058934,1
4089,54.3,20.119,0,0.0022557,0,4378.3,54.076,0,0,0,0,0.0058934,1
4089,54.3,20.119,0,0.0022557,0,4378.3,54.076,0,0,0,0,0.0058934,1
4089,54.3,20.119,0,0.0022557,0,4378.3,54.076,0,0,0,0,0.0058934,1
4089,54.3,20.119,0,0.0022557,0,4378.3,54.076,0,0,0,0,0.0058934,1
4089,54.3,20.119,0,0.0022557,0,4378.3,54.076,0,0,0,0,0.0058934,1
4089,54.3,20.119,0,0.0022557,0,4378.3,54.076,0,0,0,0,0.0058934,1
4090.7,54.3,20.119,0,0.0018284,0,4378.3,54.076,0,0,0,0,0.0059264,1
4091.9,54.3,20.119,0,0.0015097,0,4378.3,54.076,0,0,0,0,0.0059514,1
4093.1,54.3,20.12,0,0.0011959,0,4378.3,54.076,0,0,0,0,0.0059766,1
4093.1,54.3,20.12,0,0.0011959,0,4378.3,54.076,0,0,0,0,0.0059766,1
4093.1,54.3,20.12,0,0.0011959,0,4378.3,54.076,0,0,0,0,0.0059766,1
4093.1,54.3,20.12,0,0.0011959,0,4378.3,54.076,0,0,0,0,0.0059766,1
4093.1,54.3,20.12,0,0.0011959,0,4378.3,54.076,0,0,0,0,0.0059766,1
4093.1,54.3,20.12,0,0.0011959,0,4378.3,54.076,0,0,0,0,0.0059766,1
4093.1,54.3,20.12,0,0.0011959,0,4378.3,54.076,0,0,0,0,0.0059766,1
4093.1,54.3,20.12,0,0.0011959,0,4378.3,54.076,0,0,0,0,0.0059766,1
4093.1,54.3,20.12,0,0.0011959,0,4378.3,54.076,0,0,0,0,0.0059766,1
4093.1,54.3,20.12,0,0.0011959,0,4378.3,54.076,0,0,0,0,0.0059766,1
4093.1,54.3,20.12,0,0.0011959,0,4378.3,54.076,0,0,0,0,0.0059766,1
4093.1,54.3,20.12,0,0.0011959,0,4378.3,54.076,0,0,0,0,0.0059766,1
4093.1,54.3,20.12,0,0.0011959,0,4378.3,54.076,0,0,0,0,0.0059766,1
4093.1,54.3,20.12,0,0.0011959,0,4378.3,54.076,0,0,0,0,0.0059766,1
4093.1,54.3,20.12,0,0.0011959,0,4378.3,54.076,0,0,0,0,0.0059766,1
4093.1,54.3,20.12,0,0.0011959,0,4378.3,54.076,0,0,0,0,0.0059766,1
4093.1,54.3,20.12,0,0.0011959,0,4378.3,54.076,0,0,0,0,0.0059766,1
4093.1,54.3,20.12,0,0.0011959,0,4378.3,54.076,0,0,0,0,0.0059766,1
4093.1,54.3,20.12,0,0.0011959,0,4378.3,54.076,0,0,0,0,0.0059766,1
4093.1,54.3,20.12,0,0.0011959,0,4378.3,54.076,0,0,0,0,0.0059766,1
4093.1,54.3,20.12,0,0.0011959,0,4378.3,54.076,0,0,0,0,0.0059766,1
4093.1,54.3,20.12,0,0.0011959,0,4378.3,54.076,0,0,0,0,0.0059766,1
4093.1,54.3,20.12,0,0.0011959,0,4378.3,54.076,0,0,0,0,0.0059766,1
4093.1,54.3,20.12,0,0.0011959,0,4378.3,54.076,0,0,0,0,0.0059766,1
4096.3,54.3,20.12,0,0.0003663,0,4378.3,54.076,0,0,0,0,0.0060448,1
4096.3,54.3,20.12,0,0.0003663,0,4378.3,54.076,0,0,0,0,0.0060448,1
4097.5,54.3,20.12,0,6.1355e-05,0,4378.3,54.076,0,0,0,0,0.0060707,1
4097.5,54.3,20.12,0,6.1355e-05,0,4378.3,54.076,0,0,0,0,0.0060707,1
4098.7,54.3,20.12,0,-0.00057462,0,4378.3,54.076,0,0,0,0,0.0060969,1
4098.7,54.3,20.12,0,-0.00057462,0,4378.3,54.076,0,0,0,0,0.0060969,1
4098.7,54.3,20.12,0,-0.00057462,0,4378.3,54.076,0,0,0,0,0.0060969,1
4098.7,54.3,20.12,0,-0.00057462,0,4378.3,54.076,0,0,0,0,0.0060969,1
4098.7,54.3,20.12,0,-0.00057462,0,4378.3,54.076,0,0,0,0,0.0060969,1
4098.7,54.3,20.12,0,-0.00057462,0,4378.3,54.076,0,0,0,0,0.0060969,1
4098.7,54.3,20.12,0,-0.00057462,0,4378.3,54.076,0,0,0,0,0.0060969,1
4098.7,54.3,20.12,0,-0.00057462,0,4378.3,54.076,0,0,0,0,0.0060969,1
4098.7,54.3,20.12,0,-0.00057462,0,4378.3,54.076,0,0,0,0,0.0060969,1
4098.7,54.3,20.12,0,-0.00057462,0,4378.3,54.076,0,0,0,0,0.0060969,1
4098.7,54.3,20.12,0,-0.00057462,0,4378.3,54.076,0,0,0,0,0.0060969,1
4099.9,54.3,20.12,0,-0.0012695,0,4378.3,54.076,0,0,0,0,0.0061234,1
4099.9,54.3,20.12,0,-0.0012695,0,4378.3,54.076,0,0,0,0,0.0061234,1
4099.9,54.3,20.12,0,-0.0012695,0,4378.3,54.076,0,0,0,0,0.0061234,1
4099.9,54.3,20.12,0,-0.0012695,0,4378.3,54.076,0,0,0,0,0.0061234,1
4099.9,54.3,20.12,0,-0.0012695,0,4378.3,54.076,0,0,0,0,0.0061234,1
4099.9,54.3,20.12,0,-0.0012695,0,4378.3,54.076,0,0,0,0,0.0061234,1
4099.9,54.3,20.12,0,-0.0012695,0,4378.3,54.076,0,0,0,0,0.0061234,1
4099.9,54.3,20.12,0,-0.0012695,0,4378.3,54.076,0,0,0,0,0.0061234,1
4100.7,54.3,20.12,0,-0.0017101,0,4378.3,54.076,0,0,0,0,0.0061411,1
4101.9,54.3,20.119,0,-0.002342,0,4378.3,54.076,0,0,0,0,0.006168,1
4101.9,54.3,20.119,0,-0.002342,0,4378.3,54.076,0,0,0,0,0.006168,1
4102.3,54.3,20.119,0,-0.0025456,0,4378.3,54.076,0,0,0,0,0.0061769,1
4103.5,54.3,20.119,0,-0.003132,0,4378.3,54.076,0,0,0,0,0.0062041,1
4103.9,54.3,20.119,0,-0.0033204,0,4378.3,54.076,0,0,0,0,0.0062132,1
4104.3,54.3,20.119,0,-0.0035056,0,4378.3,54.076,0,0,0,0,0.0062223,1
4104.3,54.3,20.119,0,-0.0035056,0,4378.3,54.076,0,0,0,0,0.0062223,1
4104.3,54.3,20.119,0,-0.0035056,0,4378.3,54.076,0,0,0,0,0.0062223,1
4104.3,54.3,20.119,0,-0.0035056,0,4378.3,54.076,0,0,0,0,0.0062223,1
4104.3,54.3,20.119,0,-0.0035056,0,4378.3,54.076,0,0,0,0,0.0062223,1
4104.3,54.3,20.119,0,-0.0035056,0,4378.3,54.076,0,0,0,0,0.0062223,1
4104.3,54.3,20.119,0,-0.0035056,0,4378.3,54.076,0,0,0,0,0.0062223,1
4104.3,54.3,20.119,0,-0.0035056,0,4378.3,54.076,0,0,0,0,0.0062223,1
4104.3,54.3,20.119,0,-0.0035056,0,4378.3,54.076,0,0,0,0,0.0062223,1
4104.3,54.3,20.119,0,-0.0035056,0,4378.3,54.076,0,0,0,0,0.0062223,1
4104.3,54.3,20.119,0,-0.0035056,0,4378.3,54.076,0,0,0,0,0.0062223,1
4104.3,54.3,20.119,0,-0.0035056,0,4378.3,54.076,0,0,0,0,0.0062223,1
4104.3,54.3,20.119,0,-0.0035056,0,4378.3,54.076,0,0,0,0,0.0062223,1
4104.3,54.3,20.119,0,-0.0035056,0,4378.3,54.076,0,0,0,0,0.0062223,1
4104.3,54.3,20.119,0,-0.0035056,0,4378.3,54.076,0,0,0,0,0.0062223,1
4104.3,54.3,20.119,0,-0.0035056,0,4378.3,54.076,0,0,0,0,0.0062223,1
4104.3,54.3,20.119,0,-0.0035056,0,4378.3,54.076,0,0,0,0,0.0062223,1
4104.3,54.3,20.119,0,-0.0035056,0,4378.3,54.076,0,0,0,0,0.0062223,1
4104.3,54.3,20.119,0,-0.0035056,0,4378.3,54.076,0,0,0,0,0.0062223,1
4104.3,54.3,20.119,0,-0.0035056,0,4378.3,54.076,0,0,0,0,0.0062223,1
4105.1,54.3,20.119,0,-0.0038667,0,4378.3,54.076,0,0,0,0,0.0062406,1
4105.5,54.3,20.119,0,-0.0040426,0,4378.3,54.076,0,0,0,0,0.0062498,1
4105.5,54.3,20.119,0,-0.0040426,0,4378.3,54.076,0,0,0,0,0.0062498,1
4105.5,54.3,20.119,0,-0.0040426,0,4378.3,54.076,0,0,0,0,0.0062498,1
4105.5,54.3,20.119,0,-0.0040426,0,4378.3,54.076,0,0,0,0,0.0062498,1
4108,54.3,20.118,0,-0.0050456,0,4378.3,54.076,0,0,0,0,0.0063056,1
4109.2,54.3,20.118,0,-0.0055144,0,4378.3,54.076,0,0,0,0,0.0063339,1
4109.2,54.3,20.118,0,-0.0055144,0,4378.3,54.076,0,0,0,0,0.0063339,1
4109.6,54.3,20.118,0,-0.0056671,0,4378.3,54.076,0,0,0,0,0.0063434,1
4110,54.3,20.118,0,-0.0058167,0,4378.3,54.076,0,0,0,0,0.0063529,1
4110,54.3,20.118,0,-0.0058167,0,4378.3,54.076,0,0,0,0,0.0063529,1
4110,54.3,20.118,0,-0.0058167,0,4378.3,54.076,0,0,0,0,0.0063529,1
4110,54.3,20.118,0,-0.0058167,0,4378.3,54.076,0,0,0,0,0.0063529,1
4110,54.3,20.118,0,-0.0058167,0,4378.3,54.076,0,0,0,0,0.0063529,1
4110,54.3,20.118,0,-0.0058167,0,4378.3,54.076,0,0,0,0,0.0063529,1
4110,54.3,20.118,0,-0.0058167,0,4378.3,54.076,0,0,0,0,0.0063529,1
4110,54.3,20.118,0,-0.0058167,0,4378.3,54.076,0,0,0,0,0.0063529,1
4110,54.3,20.118,0,-0.0058167,0,4378.3,54.076,0,0,0,0,0.0063529,1
4110,54.3,20.118,0,-0.0058167,0,4378.3,54.076,0,0,0,0,0.0063529,1
4110,54.3,20.118,0,-0.0058167,0,4378.3,54.076,0,0,0,0,0.0063529,1
4110,54.3,20.118,0,-0.0058167,0,4378.3,54.076,0,0,0,0,0.0063529,1
4110,54.3,20.118,0,-0.0058167,0,4378.3,54.076,0,0,0,0,0.0063529,1
4110,54.3,20.118,0,-0.0058167,0,4378.3,54.076,0,0,0,0,0.0063529,1
4110,54.3,20.118,0,-0.0058167,0,4378.3,54.076,0,0,0,0,0.0063529,1
4110,54.3,20.118,0,-0.0058167,0,4378.3,54.076,0,0,0,0,0.0063529,1
4110,54.3,20.118,0,-0.0058167,0,4378.3,54.076,0,0,0,0,0.0063529,1
4111.2,54.3,20.117,0,-0.006252,0,4378.3,54.076,0,0,0,0,0.0063816,1
4112.8,54.3,20.117,0,-0.0068083,0,4378.3,54.076,0,0,0,0,0.0064203,1
4113.6,54.3,20.117,0,-0.0070758,0,4378.3,54.076,0,0,0,0,0.0064398,1
4113.6,54.3,20.117,0,-0.0070758,0,4378.3,54.076,0,0,0,0,0.0064398,1
4113.6,54.3,20.117,0,-0.0070758,0,4378.3,54.076,0,0,0,0,0.0064398,1
4113.6,54.3,20.117,0,-0.0070758,0,4378.3,54.076,0,0,0,0,0.0064398,1
4113.6,54.3,20.117,0,-0.0070758,0,4378.3,54.076,0,0,0,0,0.0064398,1
4113.6,54.3,20.117,0,-0.0070758,0,4378.3,54.076,0,0,0,0,0.0064398,1
4113.6,54.3,20.117,0,-0.0070758,0,4378.3,54.076,0,0,0,0,0.0064398,1
4113.6,54.3,20.117,0,-0.0070758,0,4378.3,54.076,0,0,0,0,0.0064398,1
4113.6,54.3,20.117,0,-0.0070758,0,4378.3,54.076,0,0,0,0,0.0064398,1
4113.6,54.3,20.117,0,-0.0070758,0,4378.3,54.076,0,0,0,0,0.0064398,1
4113.6,54.3,20.117,0,-0.0070758,0,4378.3,54.076,0,0,0,0,0.0064398,1
4113.6,54.3,20.117,0,-0.0070758,0,4378.3,54.076,0,0,0,0,0.0064398,1
4113.6,54.3,20.117,0,-0.0070758,0,4378.3,54.076,0,0,0,0,0.0064398,1
4113.6,54.3,20.117,0,-0.0070758,0,4378.3,54.076,0,0,0,0,0.0064398,1
4114.8,54.3,20.116,0,-0.0074642,0,4378.3,54.076,0,0,0,0,0.0064693,1
4114.8,54.3,20.116,0,-0.0074642,0,4378.3,54.076,0,0,0,0,0.0064693,1
4114.8,54.3,20.116,0,-0.0074642,0,4378.3,54.076,0,0,0,0,0.0064693,1
4114.8,54.3,20.116,0,-0.0074642,0,4378.3,54.076,0,0,0,0,0.0064693,1
4114.8,54.3,20.116,0,-0.0074642,0,4378.3,54.076,0,0,0,0,0.0064693,1
4114.8,54.3,20.116,0,-0.0074642,0,4378.3,54.076,0,0,0,0,0.0064693,1
4114.8,54.3,20.116,0,-0.0074642,0,4378.3,54.076,0,0,0,0,0.0064693,1
4114.8,54.3,20.116,0,-0.0074642,0,4378.3,54.076,0,0,0,0,0.0064693,1
4116,54.3,20.116,0,-0.0078405,0,4378.3,54.076,0,0,0,0,0.006499,1
4116,54.3,20.116,0,-0.0078405,0,4378.3,54.076,0,0,0,0,0.006499,1
4117.6,54.3,20.115,0,-0.0083243,0,4378.3,54.076,0,0,0,0,0.0065392,1
4117.6,54.3,20.115,0,-0.0083243,0,4378.3,54.076,0,0,0,0,0.0065392,1
4118,54.3,20.115,0,-0.0084435,0,4378.3,54.076,0,0,0,0,0.0065493,1
4118,54.3,20.115,0,-0.0084435,0,4378.3,54.076,0,0,0,0,0.0065493,1
4118,54.3,20.115,0,-0.0084435,0,4378.3,54.076,0,0,0,0,0.0065493,1
4118,54.3,20.115,0,-0.0084435,0,4378.3,54.076,0,0,0,0,0.0065493,1
4118,54.3,20.115,0,-0.0084435,0,4378.3,54.076,0,0,0,0,0.0065493,1
4119.6,54.3,20.114,0,-0.0089048,0,4378.3,54.076,0,0,0,0,0.00659,1
4119.6,54.3,20.114,0,-0.0089048,0,4378.3,54.076,0,0,0,0,0.00659,1
4120,54.3,20.114,0,-0.0090163,0,4378.3,54.076,0,0,0,0,0.0066003,1
4120,54.3,20.114,0,-0.0090163,0,4378.3,54.076,0,0,0,0,0.0066003,1
4120.4,54.3,20.114,0,-0.0091274,0,4378.3,54.076,0,0,0,0,0.0066105,1
4120.4,54.3,20.114,0,-0.0091274,0,4378.3,54.076,0,0,0,0,0.0066105,1
4120.8,54.3,20.114,0,-0.009238,0,4378.3,54.076,0,0,0,0,0.0066209,1
4120.8,54.3,20.114,0,-0.009238,0,4378.3,54.076,0,0,0,0,0.0066209,1
4120.8,54.3,20.114,0,-0.009238,0,4378.3,54.076,0,0,0,0,0.0066209,1
4120.8,54.3,20.114,0,-0.009238,0,4378.3,54.076,0,0,0,0,0.0066209,1
4120.8,54.3,20.114,0,-0.009238,0,4378.3,54.076,0,0,0,0,0.0066209,1
4120.8,54.3,20.114,0,-0.009238,0,4378.3,54.076,0,0,0,0,0.0066209,1
4120.8,54.3,20.114,0,-0.009238,0,4378.3,54.076,0,0,0,0,0.0066209,1
4120.8,54.3,20.114,0,-0.009238,0,4378.3,54.076,0,0,0,0,0.0066209,1
4120.8,54.3,20.114,0,-0.009238,0,4378.3,54.076,0,0,0,0,0.0066209,1
4120.8,54.3,20.114,0,-0.009238,0,4378.3,54.076,0,0,0,0,0.0066209,1
4122.8,54.3,20.113,0,-0.0097786,0,4378.3,54.076,0,0,0,0,0.006673,1
4122.8,54.3,20.113,0,-0.0097786,0,4378.3,54.076,0,0,0,0,0.006673,1
4122.8,54.3,20.113,0,-0.0097786,0,4378.3,54.076,0,0,0,0,0.006673,1
4122.8,54.3,20.113,0,-0.0097786,0,4378.3,54.076,0,0,0,0,0.006673,1
4122.8,54.3,20.113,0,-0.0097786,0,4378.3,54.076,0,0,0,0,0.006673,1
4122.8,54.3,20.113,0,-0.0097786,0,4378.3,54.076,0,0,0,0,0.006673,1
4122.8,54.3,20.113,0,-0.0097786,0,4378.3,54.076,0,0,0,0,0.006673,1
4122.8,54.3,20.113,0,-0.0097786,0,4378.3,54.076,0,0,0,0,0.006673,1
4122.8,54.3,20.113,0,-0.0097786,0,4378.3,54.076,0,0,0,0,0.006673,1
4122.8,54.3,20.113,0,-0.0097786,0,4378.3,54.076,0,0,0,0,0.006673,1
4122.8,54.3,20.113,0,-0.0097786,0,4378.3,54.076,0,0,0,0,0.006673,1
4122.8,54.3,20.113,0,-0.0097786,0,4378.3,54.076,0,0,0,0,0.006673,1
4122.8,54.3,20.113,0,-0.0097786,0,4378.3,54.076,0,0,0,0,0.006673,1
4122.8,54.3,20.113,0,-0.0097786,0,4378.3,54.076,0,0,0,0,0.006673,1
4122.8,54.3,20.113,0,-0.0097786,0,4378.3,54.076,0,0,0,0,0.006673,1
4122.8,54.3,20.113,0,-0.0097786,0,4378.3,54.076,0,0,0,0,0.006673,1
4122.8,54.3,20.113,0,-0.0097786,0,4378.3,54.076,0,0,0,0,0.006673,1
4122.8,54.3,20.113,0,-0.0097786,0,4378.3,54.076,0,0,0,0,0.006673,1
4122.8,54.3,20.113,0,-0.0097786,0,4378.3,54.076,0,0,0,0,0.006673,1
4122.8,54.3,20.113,0,-0.0097786,0,4378.3,54.076,0,0,0,0,0.006673,1
4122.8,54.3,20.113,0,-0.0097786,0,4378.3,54.076,0,0,0,0,0.006673,1
4122.8,54.3,20.113,0,-0.0097786,0,4378.3,54.076,0,0,0,0,0.006673,1
4122.8,54.3,20.113,0,-0.0097786,0,4378.3,54.076,0,0,0,0,0.006673,1
4127.3,54.3,20.11,0,-0.010898,0,4378.3,54.076,0,0,0,0,0.0067906,1
4127.3,54.3,20.11,0,-0.010898,0,4378.3,54.076,0,0,0,0,0.0067906,1
4127.7,54.3,20.11,0,-0.010996,0,4378.3,54.076,0,0,0,0,0.0068015,1
4127.7,54.3,20.11,0,-0.010996,0,4378.3,54.076,0,0,0,0,0.0068015,1
4127.7,54.3,20.11,0,-0.010996,0,4378.3,54.076,0,0,0,0,0.0068015,1
4127.7,54.3,20.11,0,-0.010996,0,4378.3,54.076,0,0,0,0,0.0068015,1
4127.7,54.3,20.11,0,-0.010996,0,4378.3,54.076,0,0,0,0,0.0068015,1
4128.1,54.3,20.11,0,-0.011092,0,4378.3,54.076,0,0,0,0,0.0068124,1
4128.1,54.3,20.11,0,-0.011092,0,4378.3,54.076,0,0,0,0,0.0068124,1
4128.1,54.3,20.11,0,-0.011092,0,4378.3,54.076,0,0,0,0,0.0068124,1
4128.1,54.3,20.11,0,-0.011092,0,4378.3,54.076,0,0,0,0,0.0068124,1
4128.9,54.3,20.11,0,-0.011284,0,4378.3,54.076,0,0,0,0,0.0068344,1
4128.9,54.3,20.11,0,-0.011284,0,4378.3,54.076,0,0,0,0,0.0068344,1
4129.3,54.3,20.109,0,-0.01138,0,4378.3,54.076,0,0,0,0,0.0068454,1
4129.3,54.3,20.109,0,-0.01138,0,4378.3,54.076,0,0,0,0,0.0068454,1
4129.3,54.3,20.109,0,-0.01138,0,4378.3,54.076,0,0,0,0,0.0068454,1
4130.5,54.3,20.109,0,-0.011663,0,4378.3,54.076,0,0,0,0,0.0068787,1
4130.5,54.3,20.109,0,-0.011663,0,4378.3,54.076,0,0,0,0,0.0068787,1
4130.5,54.3,20.109,0,-0.011663,0,4378.3,54.076,0,0,0,0,0.0068787,1
4130.5,54.3,20.109,0,-0.011663,0,4378.3,54.076,0,0,0,0,0.0068787,1
4130.5,54.3,20.109,0,-0.011663,0,4378.3,54.076,0,0,0,0,0.0068787,1
4130.5,54.3,20.109,0,-0.011663,0,4378.3,54.076,0,0,0,0,0.0068787,1
4130.5,54.3,20.109,0,-0.011663,0,4378.3,54.076,0,0,0,0,0.0068787,1
4130.5,54.3,20.109,0,-0.011663,0,4378.3,54.076,0,0,0,0,0.0068787,1
4130.5,54.3,20.109,0,-0.011663,0,4378.3,54.076,0,0,0,0,0.0068787,1
4130.5,54.3,20.109,0,-0.011663,0,4378.3,54.076,0,0,0,0,0.0068787,1
4131.7,54.3,20.108,0,-0.011941,0,4378.3,54.076,0,0,0,0,0.0069124,1
4131.7,54.3,20.108,0,-0.011941,0,4378.3,54.076,0,0,0,0,0.0069124,1
4131.7,54.3,20.108,0,-0.011941,0,4378.3,54.076,0,0,0,0,0.0069124,1
4131.7,54.3,20.108,0,-0.011941,0,4378.3,54.076,0,0,0,0,0.0069124,1
4132.9,54.3,20.107,0,-0.012216,0,4378.3,54.076,0,0,0,0,0.0069464,1
4132.9,54.3,20.107,0,-0.012216,0,4378.3,54.076,0,0,0,0,0.0069464,1
4134.1,54.3,20.106,0,-0.012486,0,4378.3,54.076,0,0,0,0,0.0069807,1
4134.1,54.3,20.106,0,-0.012486,0,4378.3,54.076,0,0,0,0,0.0069807,1
4134.5,54.3,20.106,0,-0.012575,0,4378.3,54.076,0,0,0,0,0.0069922,1
4134.5,54.3,20.106,0,-0.012575,0,4378.3,54.076,0,0,0,0,0.0069922,1
4134.5,54.3,20.106,0,-0.012575,0,4378.3,54.076,0,0,0,0,0.0069922,1
4134.5,54.3,20.106,0,-0.012575,0,4378.3,54.076,0,0,0,0,0.0069922,1
4134.5,54.3,20.106,0,-0.012575,0,4378.3,54.076,0,0,0,0,0.0069922,1
4134.5,54.3,20.106,0,-0.012575,0,4378.3,54.076,0,0,0,0,0.0069922,1
4134.5,54.3,20.106,0,-0.012575,0,4378.3,54.076,0,0,0,0,0.0069922,1
4134.9,54.3,20.106,0,-0.012666,0,4378.3,54.076,0,0,0,0,0.0070037,1
4134.9,54.3,20.106,0,-0.012666,0,4378.3,54.076,0,0,0,0,0.0070037,1
4134.9,54.3,20.106,0,-0.012666,0,4378.3,54.076,0,0,0,0,0.0070037,1
4134.9,54.3,20.106,0,-0.012666,0,4378.3,54.076,0,0,0,0,0.0070037,1
4134.9,54.3,20.106,0,-0.012666,0,4378.3,54.076,0,0,0,0,0.0070037,1
4134.9,54.3,20.106,0,-0.012666,0,4378.3,54.076,0,0,0,0,0.0070037,1
4135.3,54.3,20.106,0,-0.012756,0,4378.3,54.076,0,0,0,0,0.0070153,1
4135.3,54.3,20.106,0,-0.012756,0,4378.3,54.076,0,0,0,0,0.0070153,1
4135.3,54.3,20.106,0,-0.012756,0,4378.3,54.076,0,0,0,0,0.0070153,1
4135.3,54.3,20.106,0,-0.012756,0,4378.3,54.076,0,0,0,0,0.0070153,1
4136.9,54.3,20.105,0,-0.013114,0,4378.3,54.076,0,0,0,0,0.007062,1
4136.9,54.3,20.105,0,-0.013114,0,4378.3,54.076,0,0,0,0,0.007062,1
4136.9,54.3,20.105,0,-0.013114,0,4378.3,54.076,0,0,0,0,0.007062,1
4137.7,54.3,20.104,0,-0.01329,0,4378.3,54.076,0,0,0,0,0.0070856,1
4138.1,54.3,20.104,0,-0.013377,0,4378.3,54.076,0,0,0,0,0.0070975,1
4138.9,54.3,20.103,0,-0.013549,0,4378.3,54.076,0,0,0,0,0.0071213,1
4138.9,54.3,20.103,0,-0.013549,0,4378.3,54.076,0,0,0,0,0.0071213,1
4138.9,54.3,20.103,0,-0.013549,0,4378.3,54.076,0,0,0,0,0.0071213,1
4138.9,54.3,20.103,0,-0.013549,0,4378.3,54.076,0,0,0,0,0.0071213,1
4139.3,54.3,20.103,0,-0.013635,0,4378.3,54.076,0,0,0,0,0.0071333,1
4139.3,54.3,20.103,0,-0.013635,0,4378.3,54.076,0,0,0,0,0.0071333,1
4139.3,54.3,20.103,0,-0.013635,0,4378.3,54.076,0,0,0,0,0.0071333,1
4139.7,54.3,20.103,0,-0.01372,0,4378.3,54.076,0,0,0,0,0.0071453,1
4139.7,54.3,20.103,0,-0.01372,0,4378.3,54.076,0,0,0,0,0.0071453,1
4139.7,54.3,20.103,0,-0.01372,0,4378.3,54.076,0,0,0,0,0.0071453,1
4139.7,54.3,20.103,0,-0.01372,0,4378.3,54.076,0,0,0,0,0.0071453,1
4139.7,54.3,20.103,0,-0.01372,0,4378.3,54.076,0,0,0,0,0.0071453,1
4139.7,54.3,20.103,0,-0.01372,0,4378.3,54.076,0,0,0,0,0.0071453,1
4139.7,54.3,20.103,0,-0.01372,0,4378.3,54.076,0,0,0,0,0.0071453,1
4139.7,54.3,20.103,0,-0.01372,0,4378.3,54.076,0,0,0,0,0.0071453,1
4140.5,54.3,20.102,0,-0.013891,0,4378.3,54.076,0,0,0,0,0.0071695,1
4141.3,54.3,20.102,0,-0.014063,0,4378.3,54.076,0,0,0,0,0.0071938,1
4141.3,54.3,20.102,0,-0.014063,0,4378.3,54.076,0,0,0,0,0.0071938,1
4142.1,54.3,20.101,0,-0.014233,0,4378.3,54.076,0,0,0,0,0.0072183,1
4142.1,54.3,20.101,0,-0.014233,0,4378.3,54.076,0,0,0,0,0.0072183,1
4142.9,54.3,20.101,0,-0.0144,0,4378.3,54.076,0,0,0,0,0.007243,1
4142.9,54.3,20.101,0,-0.0144,0,4378.3,54.076,0,0,0,0,0.007243,1
4142.9,54.3,20.101,0,-0.0144,0,4378.3,54.076,0,0,0,0,0.007243,1
4142.9,54.3,20.101,0,-0.0144,0,4378.3,54.076,0,0,0,0,0.007243,1
4142.9,54.3,20.101,0,-0.0144,0,4378.3,54.076,0,0,0,0,0.007243,1
4142.9,54.3,20.101,0,-0.0144,0,4378.3,54.076,0,0,0,0,0.007243,1
4142.9,54.3,20.101,0,-0.0144,0,4378.3,54.076,0,0,0,0,0.007243,1
4142.9,54.3,20.101,0,-0.0144,0,4378.3,54.076,0,0,0,0,0.007243,1
4142.9,54.3,20.101,0,-0.0144,0,4378.3,54.076,0,0,0,0,0.007243,1
4143.8,54.3,20.1,0,-0.014566,0,4378.3,54.076,0,0,0,0,0.0072678,1
4143.8,54.3,20.1,0,-0.014566,0,4378.3,54.076,0,0,0,0,0.0072678,1
4143.8,54.3,20.1,0,-0.014566,0,4378.3,54.076,0,0,0,0,0.0072678,1
4143.8,54.3,20.1,0,-0.014566,0,4378.3,54.076,0,0,0,0,0.0072678,1
4144.2,54.3,20.1,0,-0.014651,0,4378.3,54.076,0,0,0,0,0.0072803,1
4145.4,54.3,20.099,0,-0.014902,0,4378.3,54.076,0,0,0,0,0.007318,1
4145.4,54.3,20.099,0,-0.014902,0,4378.3,54.076,0,0,0,0,0.007318,1
4145.4,54.3,20.099,0,-0.014902,0,4378.3,54.076,0,0,0,0,0.007318,1
4146.6,54.3,20.098,0,-0.015147,0,4378.3,54.076,0,0,0,0,0.007356,1
4146.6,54.3,20.098,0,-0.015147,0,4378.3,54.076,0,0,0,0,0.007356,1
4146.6,54.3,20.098,0,-0.015147,0,4378.3,54.076,0,0,0,0,0.007356,1
4146.6,54.3,20.098,0,-0.015147,0,4378.3,54.076,0,0,0,0,0.007356,1
4146.6,54.3,20.098,0,-0.015147,0,4378.3,54.076,0,0,0,0,0.007356,1
4146.6,54.3,20.098,0,-0.015147,0,4378.3,54.076,0,0,0,0,0.007356,1
4146.6,54.3,20.098,0,-0.015147,0,4378.3,54.076,0,0,0,0,0.007356,1
4146.6,54.3,20.098,0,-0.015147,0,4378.3,54.076,0,0,0,0,0.007356,1
4146.6,54.3,20.098,0,-0.015147,0,4378.3,54.076,0,0,0,0,0.007356,1
4146.6,54.3,20.098,0,-0.015147,0,4378.3,54.076,0,0,0,0,0.007356,1
4146.6,54.3,20.098,0,-0.015147,0,4378.3,54.076,0,0,0,0,0.007356,1
4146.6,54.3,20.098,0,-0.015147,0,4378.3,54.076,0,0,0,0,0.007356,1
4146.6,54.3,20.098,0,-0.015147,0,4378.3,54.076,0,0,0,0,0.007356,1
4146.6,54.3,20.098,0,-0.015147,0,4378.3,54.076,0,0,0,0,0.007356,1
4146.6,54.3,20.098,0,-0.015147,0,4378.3,54.076,0,0,0,0,0.007356,1
4146.6,54.3,20.098,0,-0.015147,0,4378.3,54.076,0,0,0,0,0.007356,1
4147.8,54.3,20.097,0,-0.015394,0,4378.3,54.076,0,0,0,0,0.0073945,1
4147.8,54.3,20.097,0,-0.015394,0,4378.3,54.076,0,0,0,0,0.0073945,1
4149,54.3,20.096,0,-0.015638,0,4378.3,54.076,0,0,0,0,0.0074334,1
4149,54.3,20.096,0,-0.015638,0,4378.3,54.076,0,0,0,0,0.0074334,1
4149,54.3,20.096,0,-0.015638,0,4378.3,54.076,0,0,0,0,0.0074334,1
4150.6,54.3,20.095,0,-0.015962,0,4378.3,54.076,0,0,0,0,0.0074858,1
4150.6,54.3,20.095,0,-0.015962,0,4378.3,54.076,0,0,0,0,0.0074858,1
4150.6,54.3,20.095,0,-0.015962,0,4378.3,54.076,0,0,0,0,0.0074858,1
4150.6,54.3,20.095,0,-0.015962,0,4378.3,54.076,0,0,0,0,0.0074858,1
4150.6,54.3,20.095,0,-0.015962,0,4378.3,54.076,0,0,0,0,0.0074858,1
4150.6,54.3,20.095,0,-0.015962,0,4378.3,54.076,0,0,0,0,0.0074858,1
4150.6,54.3,20.095,0,-0.015962,0,4378.3,54.076,0,0,0,0,0.0074858,1
4150.6,54.3,20.095,0,-0.015962,0,4378.3,54.076,0,0,0,0,0.0074858,1
4150.6,54.3,20.095,0,-0.015962,0,4378.3,54.076,0,0,0,0,0.0074858,1
4150.6,54.3,20.095,0,-0.015962,0,4378.3,54.076,0,0,0,0,0.0074858,1
4150.6,54.3,20.095,0,-0.015962,0,4378.3,54.076,0,0,0,0,0.0074858,1
4150.6,54.3,20.095,0,-0.015962,0,4378.3,54.076,0,0,0,0,0.0074858,1
4151.8,54.3,20.094,0,-0.016202,0,4378.3,54.076,0,0,0,0,0.0075257,1
4151.8,54.3,20.094,0,-0.016202,0,4378.3,54.076,0,0,0,0,0.0075257,1
4151.8,54.3,20.094,0,-0.016202,0,4378.3,54.076,0,0,0,0,0.0075257,1
4152.6,54.3,20.093,0,-0.016363,0,4378.3,54.076,0,0,0,0,0.0075525,1
4152.6,54.3,20.093,0,-0.016363,0,4378.3,54.076,0,0,0,0,0.0075525,1
4152.6,54.3,20.093,0,-0.016363,0,4378.3,54.076,0,0,0,0,0.0075525,1
4152.6,54.3,20.093,0,-0.016363,0,4378.3,54.076,0,0,0,0,0.0075525,1
4152.6,54.3,20.093,0,-0.016363,0,4378.3,54.076,0,0,0,0,0.0075525,1
4153.8,54.3,20.092,0,-0.016603,0,4378.3,54.076,0,0,0,0,0.007593,1
4154.2,54.3,20.092,0,-0.016682,0,4378.3,54.076,0,0,0,0,0.0076066,1
4154.2,54.3,20.092,0,-0.016682,0,4378.3,54.076,0,0,0,0,0.0076066,1
4154.2,54.3,20.092,0,-0.016682,0,4378.3,54.076,0,0,0,0,0.0076066,1
4154.2,54.3,20.092,0,-0.016682,0,4378.3,54.076,0,0,0,0,0.0076066,1
4154.2,54.3,20.092,0,-0.016682,0,4378.3,54.076,0,0,0,0,0.0076066,1
4154.2,54.3,20.092,0,-0.016682,0,4378.3,54.076,0,0,0,0,0.0076066,1
4154.2,54.3,20.092,0,-0.016682,0,4378.3,54.076,0,0,0,0,0.0076066,1
4154.2,54.3,20.092,0,-0.016682,0,4378.3,54.076,0,0,0,0,0.0076066,1
4154.2,54.3,20.092,0,-0.016682,0,4378.3,54.076,0,0,0,0,0.0076066,1
4155.8,54.3,20.09,0,-0.016998,0,4378.3,54.076,0,0,0,0,0.0076616,1
4156.2,54.3,20.09,0,-0.017076,0,4378.3,54.076,0,0,0,0,0.0076754,1
4156.2,54.3,20.09,0,-0.017076,0,4378.3,54.076,0,0,0,0,0.0076754,1
4156.2,54.3,20.09,0,-0.017076,0,4378.3,54.076,0,0,0,0,0.0076754,1
4156.2,54.3,20.09,0,-0.017076,0,4378.3,54.076,0,0,0,0,0.0076754,1
4157.4,54.3,20.089,0,-0.017312,0,4378.3,54.076,0,0,0,0,0.0077173,1
4157.4,54.3,20.089,0,-0.017312,0,4378.3,54.076,0,0,0,0,0.0077173,1
4157.4,54.3,20.089,0,-0.017312,0,4378.3,54.076,0,0,0,0,0.0077173,1
4157.4,54.3,20.089,0,-0.017312,0,4378.3,54.076,0,0,0,0,0.0077173,1
4157.4,54.3,20.089,0,-0.017312,0,4378.3,54.076,0,0,0,0,0.0077173,1
4158.6,54.3,20.088,0,-0.017548,0,4378.3,54.076,0,0,0,0,0.0077596,1
4158.6,54.3,20.088,0,-0.017548,0,4378.3,54.076,0,0,0,0,0.0077596,1
4158.6,54.3,20.088,0,-0.017548,0,4378.3,54.076,0,0,0,0,0.0077596,1
4158.6,54.3,20.088,0,-0.017548,0,4378.3,54.076,0,0,0,0,0.0077596,1
4158.6,54.3,20.088,0,-0.017548,0,4378.3,54.076,0,0,0,0,0.0077596,1
4158.6,54.3,20.088,0,-0.017548,0,4378.3,54.076,0,0,0,0,0.0077596,1
4158.6,54.3,20.088,0,-0.017548,0,4378.3,54.076,0,0,0,0,0.0077596,1
4158.6,54.3,20.088,0,-0.017548,0,4378.3,54.076,0,0,0,0,0.0077596,1
4158.6,54.3,20.088,0,-0.017548,0,4378.3,54.076,0,0,0,0,0.0077596,1
4158.6,54.3,20.088,0,-0.017548,0,4378.3,54.076,0,0,0,0,0.0077596,1
4159.4,54.3,20.087,0,-0.017702,0,4378.3,54.076,0,0,0,0,0.0077881,1
4159.4,54.3,20.087,0,-0.017702,0,4378.3,54.076,0,0,0,0,0.0077881,1
4159.4,54.3,20.087,0,-0.017702,0,4378.3,54.076,0,0,0,0,0.0077881,1
4159.4,54.3,20.087,0,-0.017702,0,4378.3,54.076,0,0,0,0,0.0077881,1
4161,54.3,20.086,0,-0.018014,0,4378.3,54.076,0,0,0,0,0.0078457,1
4161.4,54.3,20.086,0,-0.01809,0,4378.3,54.076,0,0,0,0,0.0078602,1
4161.4,54.3,20.086,0,-0.01809,0,4378.3,54.076,0,0,0,0,0.0078602,1
4161.4,54.3,20.086,0,-0.01809,0,4378.3,54.076,0,0,0,0,0.0078602,1
4161.8,54.3,20.085,0,-0.018169,0,4378.3,54.076,0,0,0,0,0.0078748,1
4161.8,54.3,20.085,0,-0.018169,0,4378.3,54.076,0,0,0,0,0.0078748,1
4161.8,54.3,20.085,0,-0.018169,0,4378.3,54.076,0,0,0,0,0.0078748,1
4162.6,54.3,20.084,0,-0.018324,0,4378.3,54.076,0,0,0,0,0.0079041,1
4162.6,54.3,20.084,0,-0.018324,0,4378.3,54.076,0,0,0,0,0.0079041,1
4162.6,54.3,20.084,0,-0.018324,0,4378.3,54.076,0,0,0,0,0.0079041,1
4162.6,54.3,20.084,0,-0.018324,0,4378.3,54.076,0,0,0,0,0.0079041,1
4162.6,54.3,20.084,0,-0.018324,0,4378.3,54.076,0,0,0,0,0.0079041,1
4163.4,54.3,20.084,0,-0.018477,0,4378.3,54.076,0,0,0,0,0.0079337,1
4163.4,54.3,20.084,0,-0.018477,0,4378.3,54.076,0,0,0,0,0.0079337,1
4163.8,54.3,20.083,0,-0.018553,0,4378.3,54.076,0,0,0,0,0.0079485,1
4163.8,54.3,20.083,0,-0.018553,0,4378.3,54.076,0,0,0,0,0.0079485,1
4163.8,54.3,20.083,0,-0.018553,0,4378.3,54.076,0,0,0,0,0.0079485,1
4163.8,54.3,20.083,0,-0.018553,0,4378.3,54.076,0,0,0,0,0.0079485,1
4164.6,54.3,20.083,0,-0.018708,0,4378.3,54.076,0,0,0,0,0.0079784,1
4165,54.3,20.082,0,-0.018784,0,4378.3,54.076,0,0,0,0,0.0079934,1
4165,54.3,20.082,0,-0.018784,0,4378.3,54.076,0,0,0,0,0.0079934,1
4165,54.3,20.082,0,-0.018784,0,4378.3,54.076,0,0,0,0,0.0079934,1
4165.5,54.3,20.082,0,-0.01886,0,4378.3,54.076,0,0,0,0,0.0080085,1
4165.9,54.3,20.081,0,-0.018935,0,4378.3,54.076,0,0,0,0,0.0080237,1
4165.9,54.3,20.081,0,-0.018935,0,4378.3,54.076,0,0,0,0,0.0080237,1
4166.3,54.3,20.081,0,-0.019012,0,4378.3,54.076,0,0,0,0,0.0080389,1
4166.3,54.3,20.081,0,-0.019012,0,4378.3,54.076,0,0,0,0,0.0080389,1
4166.7,54.3,20.081,0,-0.019089,0,4378.3,54.076,0,0,0,0,0.0080541,1
4166.7,54.3,20.081,0,-0.019089,0,4378.3,54.076,0,0,0,0,0.0080541,1
4167.1,54.3,20.08,0,-0.019165,0,4378.3,54.076,0,0,0,0,0.0080694,1
4167.1,54.3,20.08,0,-0.019165,0,4378.3,54.076,0,0,0,0,0.0080694,1
4167.5,54.3,20.08,0,-0.01924,0,4378.3,54.076,0,0,0,0,0.0080848,1
4167.5,54.3,20.08,0,-0.01924,0,4378.3,54.076,0,0,0,0,0.0080848,1
4167.9,54.3,20.08,0,-0.019315,0,4378.3,54.076,0,0,0,0,0.0081002,1
4167.9,54.3,20.08,0,-0.019315,0,4378.3,54.076,0,0,0,0,0.0081002,1
4168.3,54.3,20.079,0,-0.019392,0,4378.3,54.076,0,0,0,0,0.0081157,1
4168.3,54.3,20.079,0,-0.019392,0,4378.3,54.076,0,0,0,0,0.0081157,1
4168.7,54.3,20.079,0,-0.019468,0,4378.3,54.076,0,0,0,0,0.0081312,1
4168.7,54.3,20.079,0,-0.019468,0,4378.3,54.076,0,0,0,0,0.0081312,1
4169.1,54.3,20.078,0,-0.019543,0,4378.3,54.076,0,0,0,0,0.0081468,1
4169.1,54.3,20.078,0,-0.019543,0,4378.3,54.076,0,0,0,0,0.0081468,1
4169.5,54.3,20.078,0,-0.019618,0,4378.3,54.076,0,0,0,0,0.0081625,1
4169.5,54.3,20.078,0,-0.019618,0,4378.3,54.076,0,0,0,0,0.0081625,1
4169.5,54.3,20.078,0,-0.019618,0,4378.3,54.076,0,0,0,0,0.0081625,1
4169.5,54.3,20.078,0,-0.019618,0,4378.3,54.076,0,0,0,0,0.0081625,1
4169.5,54.3,20.078,0,-0.019618,0,4378.3,54.076,0,0,0,0,0.0081625,1
4169.5,54.3,20.078,0,-0.019618,0,4378.3,54.076,0,0,0,0,0.0081625,1
4170.3,54.3,20.077,0,-0.019769,0,4378.3,54.076,0,0,0,0,0.008194,1
4170.3,54.3,20.077,0,-0.019769,0,4378.3,54.076,0,0,0,0,0.008194,1
4170.3,54.3,20.077,0,-0.019769,0,4378.3,54.076,0,0,0,0,0.008194,1
4170.3,54.3,20.077,0,-0.019769,0,4378.3,54.076,0,0,0,0,0.008194,1
4171.1,54.3,20.076,0,-0.019919,0,4378.3,54.076,0,0,0,0,0.0082258,1
4171.1,54.3,20.076,0,-0.019919,0,4378.3,54.076,0,0,0,0,0.0082258,1
4171.5,54.3,20.076,0,-0.019994,0,4378.3,54.076,0,0,0,0,0.0082417,1
4171.5,54.3,20.076,0,-0.019994,0,4378.3,54.076,0,0,0,0,0.0082417,1
4171.5,54.3,20.076,0,-0.019994,0,4378.3,54.076,0,0,0,0,0.0082417,1
4172.7,54.3,20.075,0,-0.020221,0,4378.3,54.076,0,0,0,0,0.00829,1
4172.7,54.3,20.075,0,-0.020221,0,4378.3,54.076,0,0,0,0,0.00829,1
4172.7,54.3,20.075,0,-0.020221,0,4378.3,54.076,0,0,0,0,0.00829,1
4172.7,54.3,20.075,0,-0.020221,0,4378.3,54.076,0,0,0,0,0.00829,1
4172.7,54.3,20.075,0,-0.020221,0,4378.3,54.076,0,0,0,0,0.00829,1
4172.7,54.3,20.075,0,-0.020221,0,4378.3,54.076,0,0,0,0,0.00829,1
4172.7,54.3,20.075,0,-0.020221,0,4378.3,54.076,0,0,0,0,0.00829,1
4172.7,54.3,20.075,0,-0.020221,0,4378.3,54.076,0,0,0,0,0.00829,1
4172.7,54.3,20.075,0,-0.020221,0,4378.3,54.076,0,0,0,0,0.00829,1
4172.7,54.3,20.075,0,-0.020221,0,4378.3,54.076,0,0,0,0,0.00829,1
4173.5,54.3,20.074,0,-0.020369,0,4378.3,54.076,0,0,0,0,0.0083225,1
4173.5,54.3,20.074,0,-0.020369,0,4378.3,54.076,0,0,0,0,0.0083225,1
4173.5,54.3,20.074,0,-0.020369,0,4378.3,54.076,0,0,0,0,0.0083225,1
4173.5,54.3,20.074,0,-0.020369,0,4378.3,54.076,0,0,0,0,0.0083225,1
4173.5,54.3,20.074,0,-0.020369,0,4378.3,54.076,0,0,0,0,0.0083225,1
4173.5,54.3,20.074,0,-0.020369,0,4378.3,54.076,0,0,0,0,0.0083225,1
4173.5,54.3,20.074,0,-0.020369,0,4378.3,54.076,0,0,0,0,0.0083225,1
4173.5,54.3,20.074,0,-0.020369,0,4378.3,54.076,0,0,0,0,0.0083225,1
4173.5,54.3,20.074,0,-0.020369,0,4378.3,54.076,0,0,0,0,0.0083225,1
4174.3,54.3,20.073,0,-0.02052,0,4378.3,54.076,0,0,0,0,0.0083552,1
4175.5,54.3,20.072,0,-0.020742,0,4378.3,54.076,0,0,0,0,0.0084048,1
4175.9,54.3,20.072,0,-0.020817,0,4378.3,54.076,0,0,0,0,0.0084215,1
4175.9,54.3,20.072,0,-0.020817,0,4378.3,54.076,0,0,0,0,0.0084215,1
4177.5,54.3,20.07,0,-0.021114,0,4378.3,54.076,0,0,0,0,0.0084888,1
4177.5,54.3,20.07,0,-0.021114,0,4378.3,54.076,0,0,0,0,0.0084888,1
4177.5,54.3,20.07,0,-0.021114,0,4378.3,54.076,0,0,0,0,0.0084888,1
4177.5,54.3,20.07,0,-0.021114,0,4378.3,54.076,0,0,0,0,0.0084888,1
4177.5,54.3,20.07,0,-0.021114,0,4378.3,54.076,0,0,0,0,0.0084888,1
4177.5,54.3,20.07,0,-0.021114,0,4378.3,54.076,0,0,0,0,0.0084888,1
4177.5,54.3,20.07,0,-0.021114,0,4378.3,54.076,0,0,0,0,0.0084888,1
4177.5,54.3,20.07,0,-0.021114,0,4378.3,54.076,0,0,0,0,0.0084888,1
4177.5,54.3,20.07,0,-0.021114,0,4378.3,54.076,0,0,0,0,0.0084888,1
4177.5,54.3,20.07,0,-0.021114,0,4378.3,54.076,0,0,0,0,0.0084888,1
4177.5,54.3,20.07,0,-0.021114,0,4378.3,54.076,0,0,0,0,0.0084888,1
4177.5,54.3,20.07,0,-0.021114,0,4378.3,54.076,0,0,0,0,0.0084888,1
4177.5,54.3,20.07,0,-0.021114,0,4378.3,54.076,0,0,0,0,0.0084888,1
4177.5,54.3,20.07,0,-0.021114,0,4378.3,54.076,0,0,0,0,0.0084888,1
4177.5,54.3,20.07,0,-0.021114,0,4378.3,54.076,0,0,0,0,0.0084888,1
4177.5,54.3,20.07,0,-0.021114,0,4378.3,54.076,0,0,0,0,0.0084888,1
4178.3,54.3,20.069,0,-0.021262,0,4378.3,54.076,0,0,0,0,0.0085229,1
4178.3,54.3,20.069,0,-0.021262,0,4378.3,54.076,0,0,0,0,0.0085229,1
4178.3,54.3,20.069,0,-0.021262,0,4378.3,54.076,0,0,0,0,0.0085229,1
4178.3,54.3,20.069,0,-0.021262,0,4378.3,54.076,0,0,0,0,0.0085229,1
4179.9,54.3,20.067,0,-0.021556,0,4378.3,54.076,0,0,0,0,0.0085918,1
4181.1,54.3,20.066,0,-0.021776,0,4378.3,54.076,0,0,0,0,0.0086443,1
4181.9,54.3,20.065,0,-0.021923,0,4378.3,54.076,0,0,0,0,0.0086796,1
4181.9,54.3,20.065,0,-0.021923,0,4378.3,54.076,0,0,0,0,0.0086796,1
4182.3,54.3,20.065,0,-0.021995,0,4378.3,54.076,0,0,0,0,0.0086974,1
4182.3,54.3,20.065,0,-0.021995,0,4378.3,54.076,0,0,0,0,0.0086974,1
4182.3,54.3,20.065,0,-0.021995,0,4378.3,54.076,0,0,0,0,0.0086974,1
4182.3,54.3,20.065,0,-0.021995,0,4378.3,54.076,0,0,0,0,0.0086974,1
4182.3,54.3,20.065,0,-0.021995,0,4378.3,54.076,0,0,0,0,0.0086974,1
4182.3,54.3,20.065,0,-0.021995,0,4378.3,54.076,0,0,0,0,0.0086974,1
4182.3,54.3,20.065,0,-0.021995,0,4378.3,54.076,0,0,0,0,0.0086974,1
4182.3,54.3,20.065,0,-0.021995,0,4378.3,54.076,0,0,0,0,0.0086974,1
4182.3,54.3,20.065,0,-0.021995,0,4378.3,54.076,0,0,0,0,0.0086974,1
4182.3,54.3,20.065,0,-0.021995,0,4378.3,54.076,0,0,0,0,0.0086974,1
4182.3,54.3,20.065,0,-0.021995,0,4378.3,54.076,0,0,0,0,0.0086974,1
4182.3,54.3,20.065,0,-0.021995,0,4378.3,54.076,0,0,0,0,0.0086974,1
4182.3,54.3,20.065,0,-0.021995,0,4378.3,54.076,0,0,0,0,0.0086974,1
4182.3,54.3,20.065,0,-0.021995,0,4378.3,54.076,0,0,0,0,0.0086974,1
4183.1,54.3,20.064,0,-0.022143,0,4378.3,54.076,0,0,0,0,0.0087331,1
4183.1,54.3,20.064,0,-0.022143,0,4378.3,54.076,0,0,0,0,0.0087331,1
4183.5,54.3,20.063,0,-0.022216,0,4378.3,54.076,0,0,0,0,0.0087511,1
4184.7,54.3,20.062,0,-0.022433,0,4378.3,54.076,0,0,0,0,0.0088055,1
4185.9,54.3,20.061,0,-0.02265,0,4378.3,54.076,0,0,0,0,0.0088606,1
4185.9,54.3,20.061,0,-0.02265,0,4378.3,54.076,0,0,0,0,0.0088606,1
4186.3,54.3,20.06,0,-0.022723,0,4378.3,54.076,0,0,0,0,0.0088791,1
4186.3,54.3,20.06,0,-0.022723,0,4378.3,54.076,0,0,0,0,0.0088791,1
4186.3,54.3,20.06,0,-0.022723,0,4378.3,54.076,0,0,0,0,0.0088791,1
4186.3,54.3,20.06,0,-0.022723,0,4378.3,54.076,0,0,0,0,0.0088791,1
4186.3,54.3,20.06,0,-0.022723,0,4378.3,54.076,0,0,0,0,0.0088791,1
4186.3,54.3,20.06,0,-0.022723,0,4378.3,54.076,0,0,0,0,0.0088791,1
4186.3,54.3,20.06,0,-0.022723,0,4378.3,54.076,0,0,0,0,0.0088791,1
4186.3,54.3,20.06,0,-0.022723,0,4378.3,54.076,0,0,0,0,0.0088791,1
4186.3,54.3,20.06,0,-0.022723,0,4378.3,54.076,0,0,0,0,0.0088791,1
4186.3,54.3,20.06,0,-0.022723,0,4378.3,54.076,0,0,0,0,0.0088791,1
4186.3,54.3,20.06,0,-0.022723,0,4378.3,54.076,0,0,0,0,0.0088791,1
4186.3,54.3,20.06,0,-0.022723,0,4378.3,54.076,0,0,0,0,0.0088791,1
4186.3,54.3,20.06,0,-0.022723,0,4378.3,54.076,0,0,0,0,0.0088791,1
4186.3,54.3,20.06,0,-0.022723,0,4378.3,54.076,0,0,0,0,0.0088791,1
4186.3,54.3,20.06,0,-0.022723,0,4378.3,54.076,0,0,0,0,0.0088791,1
4186.3,54.3,20.06,0,-0.022723,0,4378.3,54.076,0,0,0,0,0.0088791,1
4187.1,54.3,20.059,0,-0.022867,0,4378.3,54.076,0,0,0,0,0.0089164,1
4187.1,54.3,20.059,0,-0.022867,0,4378.3,54.076,0,0,0,0,0.0089164,1
4187.1,54.3,20.059,0,-0.022867,0,4378.3,54.076,0,0,0,0,0.0089164,1
4187.1,54.3,20.059,0,-0.022867,0,4378.3,54.076,0,0,0,0,0.0089164,1
4189.1,54.3,20.057,0,-0.023226,0,4378.3,54.076,0,0,0,0,0.0090109,1
4189.1,54.3,20.057,0,-0.023226,0,4378.3,54.076,0,0,0,0,0.0090109,1
4189.1,54.3,20.057,0,-0.023226,0,4378.3,54.076,0,0,0,0,0.0090109,1
4190.3,54.3,20.056,0,-0.023443,0,4378.3,54.076,0,0,0,0,0.0090686,1
4190.3,54.3,20.056,0,-0.023443,0,4378.3,54.076,0,0,0,0,0.0090686,1
4191.1,54.3,20.055,0,-0.023586,0,4378.3,54.076,0,0,0,0,0.0091074,1
4191.1,54.3,20.055,0,-0.023586,0,4378.3,54.076,0,0,0,0,0.0091074,1
4191.1,54.3,20.055,0,-0.023586,0,4378.3,54.076,0,0,0,0,0.0091074,1
4191.1,54.3,20.055,0,-0.023586,0,4378.3,54.076,0,0,0,0,0.0091074,1
4191.1,54.3,20.055,0,-0.023586,0,4378.3,54.076,0,0,0,0,0.0091074,1
4191.1,54.3,20.055,0,-0.023586,0,4378.3,54.076,0,0,0,0,0.0091074,1
4191.1,54.3,20.055,0,-0.023586,0,4378.3,54.076,0,0,0,0,0.0091074,1
4191.1,54.3,20.055,0,-0.023586,0,4378.3,54.076,0,0,0,0,0.0091074,1
4191.1,54.3,20.055,0,-0.023586,0,4378.3,54.076,0,0,0,0,0.0091074,1
4191.1,54.3,20.055,0,-0.023586,0,4378.3,54.076,0,0,0,0,0.0091074,1
4191.1,54.3,20.055,0,-0.023586,0,4378.3,54.076,0,0,0,0,0.0091074,1
4191.1,54.3,20.055,0,-0.023586,0,4378.3,54.076,0,0,0,0,0.0091074,1
4191.1,54.3,20.055,0,-0.023586,0,4378.3,54.076,0,0,0,0,0.0091074,1
4192.7,54.3,20.053,0,-0.023871,0,4378.3,54.076,0,0,0,0,0.0091861,1
4192.7,54.3,20.053,0,-0.023871,0,4378.3,54.076,0,0,0,0,0.0091861,1
4192.7,54.3,20.053,0,-0.023871,0,4378.3,54.076,0,0,0,0,0.0091861,1
4193.5,54.3,20.052,0,-0.024013,0,4378.3,54.076,0,0,0,0,0.009226,1
4194.3,54.3,20.051,0,-0.024155,0,4378.3,54.076,0,0,0,0,0.0092662,1
4194.3,54.3,20.051,0,-0.024155,0,4378.3,54.076,0,0,0,0,0.0092662,1
4194.3,54.3,20.051,0,-0.024155,0,4378.3,54.076,0,0,0,0,0.0092662,1
4194.3,54.3,20.051,0,-0.024155,0,4378.3,54.076,0,0,0,0,0.0092662,1
4194.3,54.3,20.051,0,-0.024155,0,4378.3,54.076,0,0,0,0,0.0092662,1
4194.3,54.3,20.051,0,-0.024155,0,4378.3,54.076,0,0,0,0,0.0092662,1
4194.3,54.3,20.051,0,-0.024155,0,4378.3,54.076,0,0,0,0,0.0092662,1
4194.3,54.3,20.051,0,-0.024155,0,4378.3,54.076,0,0,0,0,0.0092662,1
4194.3,54.3,20.051,0,-0.024155,0,4378.3,54.076,0,0,0,0,0.0092662,1
4194.3,54.3,20.051,0,-0.024155,0,4378.3,54.076,0,0,0,0,0.0092662,1
4194.3,54.3,20.051,0,-0.024155,0,4378.3,54.076,0,0,0,0,0.0092662,1
4194.3,54.3,20.051,0,-0.024155,0,4378.3,54.076,0,0,0,0,0.0092662,1
4194.3,54.3,20.051,0,-0.024155,0,4378.3,54.076,0,0,0,0,0.0092662,1
4194.3,54.3,20.051,0,-0.024155,0,4378.3,54.076,0,0,0,0,0.0092662,1
4196,54.3,20.049,0,-0.024438,0,4378.3,54.076,0,0,0,0,0.0093477,1
4196,54.3,20.049,0,-0.024438,0,4378.3,54.076,0,0,0,0,0.0093477,1
4196,54.3,20.049,0,-0.024438,0,4378.3,54.076,0,0,0,0,0.0093477,1
4196,54.3,20.049,0,-0.024438,0,4378.3,54.076,0,0,0,0,0.0093477,1
4196,54.3,20.049,0,-0.024438,0,4378.3,54.076,0,0,0,0,0.0093477,1
4196,54.3,20.049,0,-0.024438,0,4378.3,54.076,0,0,0,0,0.0093477,1
4196,54.3,20.049,0,-0.024438,0,4378.3,54.076,0,0,0,0,0.0093477,1
4196.4,54.3,20.048,0,-0.024508,0,4378.3,54.076,0,0,0,0,0.0093683,1
4196.4,54.3,20.048,0,-0.024508,0,4378.3,54.076,0,0,0,0,0.0093683,1
4197.2,54.3,20.047,0,-0.024647,0,4378.3,54.076,0,0,0,0,0.0094098,1
4198.8,54.3,20.045,0,-0.024927,0,4378.3,54.076,0,0,0,0,0.0094938,1
4198.8,54.3,20.045,0,-0.024927,0,4378.3,54.076,0,0,0,0,0.0094938,1
4198.8,54.3,20.045,0,-0.024927,0,4378.3,54.076,0,0,0,0,0.0094938,1
4198.8,54.3,20.045,0,-0.024927,0,4378.3,54.076,0,0,0,0,0.0094938,1
4198.8,54.3,20.045,0,-0.024927,0,4378.3,54.076,0,0,0,0,0.0094938,1
4198.8,54.3,20.045,0,-0.024927,0,4378.3,54.076,0,0,0,0,0.0094938,1
4198.8,54.3,20.045,0,-0.024927,0,4378.3,54.076,0,0,0,0,0.0094938,1
4198.8,54.3,20.045,0,-0.024927,0,4378.3,54.076,0,0,0,0,0.0094938,1
4198.8,54.3,20.045,0,-0.024927,0,4378.3,54.076,0,0,0,0,0.0094938,1
4198.8,54.3,20.045,0,-0.024927,0,4378.3,54.076,0,0,0,0,0.0094938,1
4198.8,54.3,20.045,0,-0.024927,0,4378.3,54.076,0,0,0,0,0.0094938,1
4198.8,54.3,20.045,0,-0.024927,0,4378.3,54.076,0,0,0,0,0.0094938,1
4201.2,54.3,20.042,0,-0.025346,0,4378.3,54.076,0,0,0,0,0.0096227,1
4201.2,54.3,20.042,0,-0.025346,0,4378.3,54.076,0,0,0,0,0.0096227,1
4201.2,54.3,20.042,0,-0.025346,0,4378.3,54.076,0,0,0,0,0.0096227,1
4201.2,54.3,20.042,0,-0.025346,0,4378.3,54.076,0,0,0,0,0.0096227,1
4201.2,54.3,20.042,0,-0.025346,0,4378.3,54.076,0,0,0,0,0.0096227,1
4201.2,54.3,20.042,0,-0.025346,0,4378.3,54.076,0,0,0,0,0.0096227,1
4201.2,54.3,20.042,0,-0.025346,0,4378.3,54.076,0,0,0,0,0.0096227,1
4201.6,54.3,20.042,0,-0.025415,0,4378.3,54.076,0,0,0,0,0.0096445,1
4201.6,54.3,20.042,0,-0.025415,0,4378.3,54.076,0,0,0,0,0.0096445,1
4201.6,54.3,20.042,0,-0.025415,0,4378.3,54.076,0,0,0,0,0.0096445,1
4201.6,54.3,20.042,0,-0.025415,0,4378.3,54.076,0,0,0,0,0.0096445,1
4201.6,54.3,20.042,0,-0.025415,0,4378.3,54.076,0,0,0,0,0.0096445,1
4201.6,54.3,20.042,0,-0.025415,0,4378.3,54.076,0,0,0,0,0.0096445,1
4204,54.3,20.039,0,-0.02583,0,4378.3,54.076,0,0,0,0,0.0097775,1
4204.4,54.3,20.038,0,-0.025898,0,4378.3,54.076,0,0,0,0,0.0098,1
4204.4,54.3,20.038,0,-0.025898,0,4378.3,54.076,0,0,0,0,0.0098,1
4204.4,54.3,20.038,0,-0.025898,0,4378.3,54.076,0,0,0,0,0.0098,1
4204.4,54.3,20.038,0,-0.025898,0,4378.3,54.076,0,0,0,0,0.0098,1
4204.4,54.3,20.038,0,-0.025898,0,4378.3,54.076,0,0,0,0,0.0098,1
4204.4,54.3,20.038,0,-0.025898,0,4378.3,54.076,0,0,0,0,0.0098,1
4204.4,54.3,20.038,0,-0.025898,0,4378.3,54.076,0,0,0,0,0.0098,1
4204.4,54.3,20.038,0,-0.025898,0,4378.3,54.076,0,0,0,0,0.0098,1
4204.4,54.3,20.038,0,-0.025898,0,4378.3,54.076,0,0,0,0,0.0098,1
4204.4,54.3,20.038,0,-0.025898,0,4378.3,54.076,0,0,0,0,0.0098,1
4204.4,54.3,20.038,0,-0.025898,0,4378.3,54.076,0,0,0,0,0.0098,1
4204.4,54.3,20.038,0,-0.025898,0,4378.3,54.076,0,0,0,0,0.0098,1
4204.4,54.3,20.038,0,-0.025898,0,4378.3,54.076,0,0,0,0,0.0098,1
4204.4,54.3,20.038,0,-0.025898,0,4378.3,54.076,0,0,0,0,0.0098,1
4204.4,54.3,20.038,0,-0.025898,0,4378.3,54.076,0,0,0,0,0.0098,1
4204.4,54.3,20.038,0,-0.025898,0,4378.3,54.076,0,0,0,0,0.0098,1
4204.4,54.3,20.038,0,-0.025898,0,4378.3,54.076,0,0,0,0,0.0098,1
4206.4,54.3,20.036,0,-0.026243,0,4378.3,54.076,0,0,0,0,0.0099142,1
4207.6,54.3,20.034,0,-0.026446,0,4378.3,54.076,0,0,0,0,0.009984,1
4207.6,54.3,20.034,0,-0.026446,0,4378.3,54.076,0,0,0,0,0.009984,1
4207.6,54.3,20.034,0,-0.026446,0,4378.3,54.076,0,0,0,0,0.009984,1
4208.4,54.3,20.033,0,-0.026582,0,4378.3,54.076,0,0,0,0,0.010031,1
4208.4,54.3,20.033,0,-0.026582,0,4378.3,54.076,0,0,0,0,0.010031,1
4208.4,54.3,20.033,0,-0.026582,0,4378.3,54.076,0,0,0,0,0.010031,1
4208.4,54.3,20.033,0,-0.026582,0,4378.3,54.076,0,0,0,0,0.010031,1
4208.4,54.3,20.033,0,-0.026582,0,4378.3,54.076,0,0,0,0,0.010031,1
4208.4,54.3,20.033,0,-0.026582,0,4378.3,54.076,0,0,0,0,0.010031,1
4208.4,54.3,20.033,0,-0.026582,0,4378.3,54.076,0,0,0,0,0.010031,1
4208.4,54.3,20.033,0,-0.026582,0,4378.3,54.076,0,0,0,0,0.010031,1
4208.4,54.3,20.033,0,-0.026582,0,4378.3,54.076,0,0,0,0,0.010031,1
4209.6,54.3,20.031,0,-0.026786,0,4378.3,54.076,0,0,0,0,0.010102,1
4209.6,54.3,20.031,0,-0.026786,0,4378.3,54.076,0,0,0,0,0.010102,1
4209.6,54.3,20.031,0,-0.026786,0,4378.3,54.076,0,0,0,0,0.010102,1
4209.6,54.3,20.031,0,-0.026786,0,4378.3,54.076,0,0,0,0,0.010102,1
4209.6,54.3,20.031,0,-0.026786,0,4378.3,54.076,0,0,0,0,0.010102,1
4210.4,54.3,20.03,0,-0.026919,0,4378.3,54.076,0,0,0,0,0.010151,1
4210.4,54.3,20.03,0,-0.026919,0,4378.3,54.076,0,0,0,0,0.010151,1
4210.4,54.3,20.03,0,-0.026919,0,4378.3,54.076,0,0,0,0,0.010151,1
4211.6,54.3,20.029,0,-0.027121,0,4378.3,54.076,0,0,0,0,0.010224,1
4211.6,54.3,20.029,0,-0.027121,0,4378.3,54.076,0,0,0,0,0.010224,1
4212,54.3,20.028,0,-0.027189,0,4378.3,54.076,0,0,0,0,0.010248,1
4212,54.3,20.028,0,-0.027189,0,4378.3,54.076,0,0,0,0,0.010248,1
4212,54.3,20.028,0,-0.027189,0,4378.3,54.076,0,0,0,0,0.010248,1
4212,54.3,20.028,0,-0.027189,0,4378.3,54.076,0,0,0,0,0.010248,1
4212,54.3,20.028,0,-0.027189,0,4378.3,54.076,0,0,0,0,0.010248,1
4213.2,54.3,20.027,0,-0.027391,0,4378.3,54.076,0,0,0,0,0.010323,1
4213.2,54.3,20.027,0,-0.027391,0,4378.3,54.076,0,0,0,0,0.010323,1
4213.2,54.3,20.027,0,-0.027391,0,4378.3,54.076,0,0,0,0,0.010323,1
4213.2,54.3,20.027,0,-0.027391,0,4378.3,54.076,0,0,0,0,0.010323,1
4213.2,54.3,20.027,0,-0.027391,0,4378.3,54.076,0,0,0,0,0.010323,1
4213.2,54.3,20.027,0,-0.027391,0,4378.3,54.076,0,0,0,0,0.010323,1
4213.2,54.3,20.027,0,-0.027391,0,4378.3,54.076,0,0,0,0,0.010323,1
4213.2,54.3,20.027,0,-0.027391,0,4378.3,54.076,0,0,0,0,0.010323,1
4213.2,54.3,20.027,0,-0.027391,0,4378.3,54.076,0,0,0,0,0.010323,1
4213.2,54.3,20.027,0,-0.027391,0,4378.3,54.076,0,0,0,0,0.010323,1
4213.2,54.3,20.027,0,-0.027391,0,4378.3,54.076,0,0,0,0,0.010323,1
4214,54.3,20.025,0,-0.027525,0,4378.3,54.076,0,0,0,0,0.010373,1
4214,54.3,20.025,0,-0.027525,0,4378.3,54.076,0,0,0,0,0.010373,1
4214,54.3,20.025,0,-0.027525,0,4378.3,54.076,0,0,0,0,0.010373,1
4214,54.3,20.025,0,-0.027525,0,4378.3,54.076,0,0,0,0,0.010373,1
4214,54.3,20.025,0,-0.027525,0,4378.3,54.076,0,0,0,0,0.010373,1
4216,54.3,20.023,0,-0.027858,0,4378.3,54.076,0,0,0,0,0.010501,1
4217.2,54.3,20.021,0,-0.028057,0,4378.3,54.076,0,0,0,0,0.01058,1
4217.2,54.3,20.021,0,-0.028057,0,4378.3,54.076,0,0,0,0,0.01058,1
4217.2,54.3,20.021,0,-0.028057,0,4378.3,54.076,0,0,0,0,0.01058,1
4217.2,54.3,20.021,0,-0.028057,0,4378.3,54.076,0,0,0,0,0.01058,1
4217.2,54.3,20.021,0,-0.028057,0,4378.3,54.076,0,0,0,0,0.01058,1
4217.2,54.3,20.021,0,-0.028057,0,4378.3,54.076,0,0,0,0,0.01058,1
4217.2,54.3,20.021,0,-0.028057,0,4378.3,54.076,0,0,0,0,0.01058,1
4217.2,54.3,20.021,0,-0.028057,0,4378.3,54.076,0,0,0,0,0.01058,1
4217.2,54.3,20.021,0,-0.028057,0,4378.3,54.076,0,0,0,0,0.01058,1
4217.2,54.3,20.021,0,-0.028057,0,4378.3,54.076,0,0,0,0,0.01058,1
4217.2,54.3,20.021,0,-0.028057,0,4378.3,54.076,0,0,0,0,0.01058,1
4217.2,54.3,20.021,0,-0.028057,0,4378.3,54.076,0,0,0,0,0.01058,1
4217.2,54.3,20.021,0,-0.028057,0,4378.3,54.076,0,0,0,0,0.01058,1
4217.2,54.3,20.021,0,-0.028057,0,4378.3,54.076,0,0,0,0,0.01058,1
4218,54.3,20.02,0,-0.028189,0,4378.3,54.076,0,0,0,0,0.010632,1
4218,54.3,20.02,0,-0.028189,0,4378.3,54.076,0,0,0,0,0.010632,1
4218,54.3,20.02,0,-0.028189,0,4378.3,54.076,0,0,0,0,0.010632,1
4218,54.3,20.02,0,-0.028189,0,4378.3,54.076,0,0,0,0,0.010632,1
4219.2,54.3,20.018,0,-0.028386,0,4378.3,54.076,0,0,0,0,0.010713,1
4219.6,54.3,20.018,0,-0.028451,0,4378.3,54.076,0,0,0,0,0.01074,1
4219.6,54.3,20.018,0,-0.028451,0,4378.3,54.076,0,0,0,0,0.01074,1
4219.6,54.3,20.018,0,-0.028451,0,4378.3,54.076,0,0,0,0,0.01074,1
4219.6,54.3,20.018,0,-0.028451,0,4378.3,54.076,0,0,0,0,0.01074,1
4219.6,54.3,20.018,0,-0.028451,0,4378.3,54.076,0,0,0,0,0.01074,1
4219.6,54.3,20.018,0,-0.028451,0,4378.3,54.076,0,0,0,0,0.01074,1
4219.6,54.3,20.018,0,-0.028451,0,4378.3,54.076,0,0,0,0,0.01074,1
4219.6,54.3,20.018,0,-0.028451,0,4378.3,54.076,0,0,0,0,0.01074,1
4219.6,54.3,20.018,0,-0.028451,0,4378.3,54.076,0,0,0,0,0.01074,1
4219.6,54.3,20.018,0,-0.028451,0,4378.3,54.076,0,0,0,0,0.01074,1
4219.6,54.3,20.018,0,-0.028451,0,4378.3,54.076,0,0,0,0,0.01074,1
4219.6,54.3,20.018,0,-0.028451,0,4378.3,54.076,0,0,0,0,0.01074,1
4219.6,54.3,20.018,0,-0.028451,0,4378.3,54.076,0,0,0,0,0.01074,1
4219.6,54.3,20.018,0,-0.028451,0,4378.3,54.076,0,0,0,0,0.01074,1
4219.6,54.3,20.018,0,-0.028451,0,4378.3,54.076,0,0,0,0,0.01074,1
4222,54.3,20.014,0,-0.028843,0,4378.3,54.076,0,0,0,0,0.010905,1
4222,54.3,20.014,0,-0.028843,0,4378.3,54.076,0,0,0,0,0.010905,1
4222.8,54.3,20.013,0,-0.028975,0,4378.3,54.076,0,0,0,0,0.010961,1
4222.8,54.3,20.013,0,-0.028975,0,4378.3,54.076,0,0,0,0,0.010961,1
4222.8,54.3,20.013,0,-0.028975,0,4378.3,54.076,0,0,0,0,0.010961,1
4222.8,54.3,20.013,0,-0.028975,0,4378.3,54.076,0,0,0,0,0.010961,1
4222.8,54.3,20.013,0,-0.028975,0,4378.3,54.076,0,0,0,0,0.010961,1
4224.8,54.3,20.01,0,-0.029298,0,4378.3,54.076,0,0,0,0,0.011104,1
4225.2,54.3,20.01,0,-0.029363,0,4378.3,54.076,0,0,0,0,0.011133,1
4225.2,54.3,20.01,0,-0.029363,0,4378.3,54.076,0,0,0,0,0.011133,1
4225.6,54.3,20.009,0,-0.029427,0,4378.3,54.076,0,0,0,0,0.011162,1
4225.6,54.3,20.009,0,-0.029427,0,4378.3,54.076,0,0,0,0,0.011162,1
4225.6,54.3,20.009,0,-0.029427,0,4378.3,54.076,0,0,0,0,0.011162,1
4225.6,54.3,20.009,0,-0.029427,0,4378.3,54.076,0,0,0,0,0.011162,1
4225.6,54.3,20.009,0,-0.029427,0,4378.3,54.076,0,0,0,0,0.011162,1
4225.6,54.3,20.009,0,-0.029427,0,4378.3,54.076,0,0,0,0,0.011162,1
4225.6,54.3,20.009,0,-0.029427,0,4378.3,54.076,0,0,0,0,0.011162,1
4225.6,54.3,20.009,0,-0.029427,0,4378.3,54.076,0,0,0,0,0.011162,1
4225.6,54.3,20.009,0,-0.029427,0,4378.3,54.076,0,0,0,0,0.011162,1
4225.6,54.3,20.009,0,-0.029427,0,4378.3,54.076,0,0,0,0,0.011162,1
4225.6,54.3,20.009,0,-0.029427,0,4378.3,54.076,0,0,0,0,0.011162,1
4225.6,54.3,20.009,0,-0.029427,0,4378.3,54.076,0,0,0,0,0.011162,1
4226.8,54.3,20.007,0,-0.029618,0,4378.3,54.076,0,0,0,0,0.01125,1
4226.8,54.3,20.007,0,-0.029618,0,4378.3,54.076,0,0,0,0,0.01125,1
4226.8,54.3,20.007,0,-0.029618,0,4378.3,54.076,0,0,0,0,0.01125,1
4226.8,54.3,20.007,0,-0.029618,0,4378.3,54.076,0,0,0,0,0.01125,1
4226.8,54.3,20.007,0,-0.029618,0,4378.3,54.076,0,0,0,0,0.01125,1
4226.8,54.3,20.007,0,-0.029618,0,4378.3,54.076,0,0,0,0,0.01125,1
4226.8,54.3,20.007,0,-0.029618,0,4378.3,54.076,0,0,0,0,0.01125,1
4226.8,54.3,20.007,0,-0.029618,0,4378.3,54.076,0,0,0,0,0.01125,1
4228,54.3,20.005,0,-0.029809,0,4378.3,54.076,0,0,0,0,0.01134,1
4229.2,54.3,20.004,0,-0.03,0,4378.3,54.076,0,0,0,0,0.011431,1
4230.4,54.3,20.002,0,-0.030189,0,4378.3,54.076,0,0,0,0,0.011524,1
4230.4,54.3,20.002,0,-0.030189,0,4378.3,54.076,0,0,0,0,0.011524,1
4230.4,54.3,20.002,0,-0.030189,0,4378.3,54.076,0,0,0,0,0.011524,1
4230.4,54.3,20.002,0,-0.030189,0,4378.3,54.076,0,0,0,0,0.011524,1
4230.4,54.3,20.002,0,-0.030189,0,4378.3,54.076,0,0,0,0,0.011524,1
4230.4,54.3,20.002,0,-0.030189,0,4378.3,54.076,0,0,0,0,0.011524,1
4230.4,54.3,20.002,0,-0.030189,0,4378.3,54.076,0,0,0,0,0.011524,1
4230.4,54.3,20.002,0,-0.030189,0,4378.3,54.076,0,0,0,0,0.011524,1
4230.4,54.3,20.002,0,-0.030189,0,4378.3,54.076,0,0,0,0,0.011524,1
4230.4,54.3,20.002,0,-0.030189,0,4378.3,54.076,0,0,0,0,0.011524,1
4231.2,54.3,20.001,0,-0.030315,0,4378.3,54.076,0,0,0,0,0.011587,1
4231.2,54.3,20.001,0,-0.030315,0,4378.3,54.076,0,0,0,0,0.011587,1
4231.2,54.3,20.001,0,-0.030315,0,4378.3,54.076,0,0,0,0,0.011587,1
4231.2,54.3,20.001,0,-0.030315,0,4378.3,54.076,0,0,0,0,0.011587,1
4231.2,54.3,20.001,0,-0.030315,0,4378.3,54.076,0,0,0,0,0.011587,1
4231.2,54.3,20.001,0,-0.030315,0,4378.3,54.076,0,0,0,0,0.011587,1
4231.2,54.3,20.001,0,-0.030315,0,4378.3,54.076,0,0,0,0,0.011587,1
4231.2,54.3,20.001,0,-0.030315,0,4378.3,54.076,0,0,0,0,0.011587,1
4231.2,54.3,20.001,0,-0.030315,0,4378.3,54.076,0,0,0,0,0.011587,1
4231.2,54.3,20.001,0,-0.030315,0,4378.3,54.076,0,0,0,0,0.011587,1
4231.2,54.3,20.001,0,-0.030315,0,4378.3,54.076,0,0,0,0,0.011587,1
4231.2,54.3,20.001,0,-0.030315,0,4378.3,54.076,0,0,0,0,0.011587,1
4231.2,54.3,20.001,0,-0.030315,0,4378.3,54.076,0,0,0,0,0.011587,1
4231.2,54.3,20.001,0,-0.030315,0,4378.3,54.076,0,0,0,0,0.011587,1
4233.2,54.3,19.998,0,-0.030628,0,4378.3,54.076,0,0,0,0,0.011746,1
4234.4,54.3,19.996,0,-0.030817,0,4378.3,54.076,0,0,0,0,0.011844,1
4235.2,54.3,19.994,0,-0.030942,0,4378.3,54.076,0,0,0,0,0.01191,1
4235.2,54.3,19.994,0,-0.030942,0,4378.3,54.076,0,0,0,0,0.01191,1
4235.2,54.3,19.994,0,-0.030942,0,4378.3,54.076,0.04,0,4,0,0.011934,1
4236,54.3,19.993,0,-0.031068,0,4378.3,54.076,0.04,0,4,0,0.012001,1
4236,54.3,19.993,0,-0.031068,0,4378.3,54.076,0.04,0,4,0,0.012001,1
4236,54.3,19.993,0,-0.031068,0,4378.3,54.076,0.04,0,4,0,0.012001,1
4236,54.3,19.993,0,-0.031068,0,4378.3,54.076,0.04,0,4,0,0.012001,1
4236,54.3,19.993,0,-0.031068,0,4378.3,54.076,0.04,0,4,0,0.012001,1
4236,54.3,19.993,0,-0.031068,0,4378.3,54.076,0.04,0,4,0,0.012001,1
4236,54.3,19.993,0,-0.031068,0,4378.3,54.076,0.04,0,4,0,0.012001,1
4236,54.3,19.993,0,-0.031068,0,4378.3,54.076,0.04,0,4,0,0.012001,1
4236,54.3,19.993,0,-0.031068,0,4378.3,54.076,0.04,0,4,0,0.012001,1
4236,54.3,19.993,0,-0.031068,0,4378.4,54.076,0.2,3.9318e-05,4,0.0017253,0.012097,1
4236,54.3,19.993,0,-0.031068,0,4378.4,54.076,0.2,3.9318e-05,4,0.0017253,0.012097,1
4236,54.3,19.993,0,-0.031068,0,4378.4,54.076,0.28,0.00011475,4,0.0039383,0.012145,1
4236,54.3,19.993,0,-0.031068,0,4378.4,54.076,0.28,0.00011475,4,0.0039383,0.012145,1
4236,54.3,19.993,0,-0.031068,0,4378.4,54.076,0.28,0.00011475,4,0.0039383,0.012145,1
4236,54.3,19.993,0,-0.031068,0,4378.4,54.076,0.28,0.00011475,4,0.0039383,0.012145,1
4237.2,54.3,19.991,0,-0.031254,0,4378.4,54.076,0.28,0.00011475,4,0.0039383,0.012248,1
4237.2,54.3,19.991,0,-0.031254,0,4378.4,54.076,0.52,0.00069536,4,0.013677,0.012394,1
4238.8,54.3,19.989,0,-0.031499,0,4378.4,54.076,0.52,0.00069536,4,0.013677,0.012536,1
4239.2,54.3,19.988,0,-0.031561,0,4378.4,54.076,0.52,0.00069536,4,0.013677,0.012572,1
4239.2,54.3,19.988,0,-0.031561,0,4378.4,54.076,0.52,0.00069536,4,0.013677,0.012572,1
4239.2,54.3,19.988,0,-0.031561,0,4378.4,54.076,0.52,0.00069536,4,0.013677,0.012572,1
4239.2,54.3,19.988,0,-0.031561,0,4378.5,54.076,0.91999,0.0035093,3.9999,0.040247,0.01282,1
4239.2,54.3,19.988,0,-0.031561,0,4378.5,54.076,0.91999,0.0035093,3.9999,0.040247,0.01282,1
4239.2,54.3,19.988,0,-0.031561,0,4378.5,54.076,0.91999,0.0035093,3.9999,0.040247,0.01282,1
4240.4,54.3,19.986,0,-0.031743,0,4378.5,54.076,0.91999,0.0035093,3.9999,0.040247,0.012931,1
4240.4,54.3,19.986,0,-0.031743,0,4378.5,54.076,0.91999,0.0035093,3.9999,0.040247,0.012931,1
4240.4,54.3,19.986,0,-0.031743,0,4378.5,54.076,0.91999,0.0035093,3.9999,0.040247,0.012931,1
4240.4,54.3,19.986,0,-0.031743,0,4378.5,54.076,0.91999,0.0035093,3.9999,0.040247,0.012931,1
4240.4,54.3,19.986,0,-0.031743,0,4378.5,54.076,0.91999,0.0035093,3.9999,0.040247,0.012931,1
4240.4,54.3,19.986,0,-0.031743,0,4378.5,54.076,0.91999,0.0035093,3.9999,0.040247,0.012931,1
4240.4,54.3,19.986,0,-0.031743,0,4378.5,54.076,0.91999,0.0035093,3.9999,0.040247,0.012931,1
4240.4,54.3,19.986,0,-0.031743,0,4378.5,54.076,0.91999,0.0035093,3.9999,0.040247,0.012931,1
4241.2,54.3,19.985,0,-0.031863,0,4378.5,54.076,1.08,0.0054805,3.9998,0.053468,0.013107,1
4241.6,54.3,19.984,0,-0.031924,0,4378.5,54.076,1.08,0.0054805,3.9998,0.053468,0.013145,1
4242,54.3,19.984,0,-0.031984,0,4378.5,54.076,1.08,0.0054805,3.9998,0.053468,0.013184,1
4242,54.3,19.984,0,-0.031984,0,4378.7,54.078,1.5599,0.014749,3.9993,0.096254,0.013488,1
4242,54.3,19.984,0,-0.031984,0,4378.7,54.078,1.5599,0.014749,3.9993,0.096254,0.013488,1
4242,54.3,19.984,0,-0.031984,0,4378.7,54.078,1.5599,0.014749,3.9993,0.096254,0.013488,1
4242,54.3,19.984,0,-0.031984,0,4378.7,54.078,1.5599,0.014749,3.9993,0.096254,0.013488,1
4242,54.3,19.984,0,-0.031984,0,4378.7,54.078,1.5599,0.014749,3.9993,0.096254,0.013488,1
4242,54.3,19.984,0,-0.031984,0,4378.7,54.078,1.5599,0.014749,3.9993,0.096254,0.013488,1
4242,54.3,19.984,0,-0.031984,0,4378.7,54.078,1.5599,0.014749,3.9993,0.096254,0.013488,1
4243.6,54.3,19.981,0,-0.032227,0,4378.7,54.078,1.5599,0.014749,3.9993,0.096254,0.013648,1
4243.6,54.3,19.981,0,-0.032227,0,4378.7,54.078,1.5599,0.014749,3.9993,0.096254,0.013648,1
4243.6,54.3,19.981,0,-0.032227,0,4378.7,54.078,1.5599,0.014749,3.9993,0.096254,0.013648,1
4243.6,54.3,19.981,0,-0.032227,0,4378.7,54.078,1.5599,0.014749,3.9993,0.096254,0.013648,1
4243.6,54.3,19.981,0,-0.032227,0,4378.7,54.078,1.5599,0.014749,3.9993,0.096254,0.013648,1
4243.6,54.3,19.981,0,-0.032227,0,4378.7,54.078,1.5599,0.014749,3.9993,0.096254,0.013648,1
4243.6,54.3,19.981,0,-0.032227,0,4378.7,54.078,1.5599,0.014749,3.9993,0.096254,0.013648,1
4243.6,54.3,19.981,0,-0.032227,0,4378.7,54.078,1.5599,0.014749,3.9993,0.096254,0.013648,1
4243.6,54.3,19.981,0,-0.032227,0,4378.7,54.078,1.5599,0.014749,3.9993,0.096254,0.013648,1
4244,54.3,19.981,0,-0.032287,0,4378.7,54.078,1.5599,0.014749,3.9993,0.096254,0.013688,1
4244,54.3,19.981,0,-0.032287,0,4378.7,54.078,1.5599,0.014749,3.9993,0.096254,0.013688,1
4244,54.3,19.981,0,-0.032287,0,4378.7,54.078,1.5599,0.014749,3.9993,0.096254,0.013688,1
4244.4,54.3,19.98,0,-0.032345,0,4378.7,54.078,1.5599,0.014749,3.9993,0.096254,0.013729,1
4244.4,54.3,19.98,0,-0.032345,0,4378.8,54.08,1.9598,0.026216,3.9987,0.1285,0.013988,1
4245.6,54.3,19.978,0,-0.032526,0,4378.8,54.08,1.9598,0.026216,3.9987,0.1285,0.014114,1
4245.6,54.3,19.978,0,-0.032526,0,4378.8,54.08,1.9598,0.026216,3.9987,0.1285,0.014114,1
4247.2,54.3,19.975,0,-0.032764,0,4379,54.082,2.2797,0.037342,3.9982,0.14736,0.014497,1
4247.2,54.3,19.975,0,-0.032764,0,4379,54.082,2.2797,0.037342,3.9982,0.14736,0.014497,1
4247.2,54.3,19.975,0,-0.032764,0,4379.1,54.084,2.4396,0.043349,3.9979,0.15361,0.014603,1
4247.2,54.3,19.975,0,-0.032764,0,4379.1,54.085,2.5196,0.046425,3.9978,0.15584,0.014656,1
4247.2,54.3,19.975,0,-0.032764,0,4379.1,54.085,2.5196,0.046425,3.9978,0.15584,0.014656,1
4247.2,54.3,19.975,0,-0.032764,0,4379.1,54.085,2.5196,0.046425,3.9978,0.15584,0.014656,1
4248.4,54.3,19.973,0,-0.03294,0,4379.1,54.085,2.5196,0.046425,3.9978,0.15584,0.01479,1
4248.4,54.3,19.973,0,-0.03294,0,4379.1,54.085,2.5196,0.046425,3.9978,0.15584,0.01479,1
4248.4,54.3,19.973,0,-0.03294,0,4379.1,54.085,2.5196,0.046425,3.9978,0.15584,0.01479,1
4248.4,54.3,19.973,0,-0.03294,0,4379.1,54.085,2.5196,0.046425,3.9978,0.15584,0.01479,1
4248.4,54.3,19.973,0,-0.03294,0,4379.1,54.085,2.5196,0.046425,3.9978,0.15584,0.01479,1
4248.4,54.3,19.973,0,-0.03294,0,4379.1,54.085,2.5196,0.046425,3.9978,0.15584,0.01479,1
4248.4,54.3,19.973,0,-0.03294,0,4379.1,54.085,2.5196,0.046425,3.9978,0.15584,0.01479,1
4248.4,54.3,19.973,0,-0.03294,0,4379.2,54.087,2.6795,0.052657,3.9977,0.15846,0.014897,1
4249.2,54.3,19.972,0,-0.033059,0,4379.2,54.087,2.6795,0.052657,3.9977,0.15846,0.014988,1
4249.2,54.3,19.972,0,-0.033059,0,4379.2,54.087,2.6795,0.052657,3.9977,0.15846,0.014988,1
4249.2,54.3,19.972,0,-0.033059,0,4379.2,54.087,2.6795,0.052657,3.9977,0.15846,0.014988,1
4249.2,54.3,19.972,0,-0.033059,0,4379.4,54.089,2.8394,0.058916,3.9976,0.15854,0.015096,1
4250,54.3,19.971,0,-0.033176,0,4379.4,54.089,2.8394,0.058916,3.9976,0.15854,0.015189,1
4251.2,54.3,19.969,0,-0.03335,0,4379.5,54.093,3.0792,0.068133,3.9976,0.15392,0.015495,1
4251.2,54.3,19.969,0,-0.03335,0,4379.5,54.093,3.0792,0.068133,3.9976,0.15392,0.015495,1
4251.6,54.3,19.968,0,-0.033407,0,4379.5,54.093,3.0792,0.068133,3.9976,0.15392,0.015543,1
4251.6,54.3,19.968,0,-0.033407,0,4379.7,54.097,3.3191,0.076855,3.9977,0.14389,0.015707,1
4251.6,54.3,19.968,0,-0.033407,0,4379.7,54.097,3.3191,0.076855,3.9977,0.14389,0.015707,1
4251.6,54.3,19.968,0,-0.033407,0,4379.8,54.099,3.3991,0.079599,3.9978,0.13943,0.015762,1
4251.6,54.3,19.968,0,-0.033407,0,4379.8,54.099,3.3991,0.079599,3.9978,0.13943,0.015762,1
4251.6,54.3,19.968,0,-0.033407,0,4379.8,54.099,3.3991,0.079599,3.9978,0.13943,0.015762,1
4251.6,54.3,19.968,0,-0.033407,0,4379.8,54.099,3.3991,0.079599,3.9978,0.13943,0.015762,1
4251.6,54.3,19.968,0,-0.033407,0,4379.8,54.099,3.3991,0.079599,3.9978,0.13943,0.015762,1
4251.6,54.3,19.968,0,-0.033407,0,4379.8,54.099,3.3991,0.079599,3.9978,0.13943,0.015762,1
4251.6,54.3,19.968,0,-0.033407,0,4379.8,54.099,3.3991,0.079599,3.9978,0.13943,0.015762,1
4251.6,54.3,19.968,0,-0.033407,0,4379.9,54.1,3.479,0.082245,3.9979,0.13446,0.015816,1
4251.6,54.3,19.968,0,-0.033407,0,4379.9,54.1,3.479,0.082245,3.9979,0.13446,0.015816,1
4251.6,54.3,19.968,0,-0.033407,0,4379.9,54.1,3.479,0.082245,3.9979,0.13446,0.015816,1
4251.6,54.3,19.968,0,-0.033407,0,4379.9,54.1,3.479,0.082245,3.9979,0.13446,0.015816,1
4251.6,54.3,19.968,0,-0.033407,0,4379.9,54.1,3.479,0.082245,3.9979,0.13446,0.015816,1
4251.6,54.3,19.968,0,-0.033407,0,4379.9,54.1,3.479,0.082245,3.9979,0.13446,0.015816,1
4251.6,54.3,19.968,0,-0.033407,0,4379.9,54.1,3.479,0.082245,3.9979,0.13446,0.015816,1
4251.6,54.3,19.968,0,-0.033407,0,4379.9,54.102,3.559,0.084782,3.9981,0.12901,0.015871,1
4251.6,54.3,19.968,0,-0.033407,0,4380,54.104,3.639,0.087203,3.9982,0.12311,0.015926,1
4251.6,54.3,19.968,0,-0.033407,0,4380.2,54.109,3.8789,0.093683,3.9987,0.10305,0.01609,1
4256,54.3,19.961,0,-0.034041,0,4380.3,54.111,3.9588,0.09556,3.9989,0.095709,0.016715,1
4256,54.3,19.961,0,-0.034041,0,4380.3,54.111,3.9588,0.09556,3.9989,0.095709,0.016715,1
4256.4,54.3,19.96,0,-0.034098,0,4380.3,54.111,3.9588,0.09556,3.9989,0.095709,0.016768,1
4256.4,54.3,19.96,0,-0.034098,0,4380.3,54.111,3.9588,0.09556,3.9989,0.095709,0.016768,1
4256.4,54.3,19.96,0,-0.034098,0,4380.3,54.111,3.9588,0.09556,3.9989,0.095709,0.016768,1
4256.4,54.3,19.96,0,-0.034098,0,4380.3,54.111,3.9588,0.09556,3.9989,0.095709,0.016768,1
4256.4,54.3,19.96,0,-0.034098,0,4380.3,54.111,3.9588,0.09556,3.9989,0.095709,0.016768,1
4256.4,54.3,19.96,0,-0.034098,0,4380.3,54.111,3.9588,0.09556,3.9989,0.095709,0.016768,1
4256.4,54.3,19.96,0,-0.034098,0,4380.3,54.111,3.9588,0.09556,3.9989,0.095709,0.016768,1
4256.4,54.3,19.96,0,-0.034098,0,4380.3,54.111,3.9588,0.09556,3.9989,0.095709,0.016768,1
4256.4,54.3,19.96,0,-0.034098,0,4380.3,54.111,3.9588,0.09556,3.9989,0.095709,0.016768,1
4256.4,54.3,19.96,0,-0.034098,0,4380.6,54.119,4.2788,0.10152,3.9996,0.064077,0.016994,1
4256.4,54.3,19.96,0,-0.034098,0,4380.6,54.119,4.2788,0.10152,3.9996,0.064077,0.016994,1
4256.4,54.3,19.96,0,-0.034098,0,4380.6,54.119,4.2788,0.10152,3.9996,0.064077,0.016994,1
4256.4,54.3,19.96,0,-0.034098,0,4380.6,54.119,4.2788,0.10152,3.9996,0.064077,0.016994,1
4256.4,54.3,19.96,0,-0.034098,0,4380.6,54.119,4.2788,0.10152,3.9996,0.064077,0.016994,1
4256.4,54.3,19.96,0,-0.034098,0,4380.6,54.119,4.2788,0.10152,3.9996,0.064077,0.016994,1
4257.2,54.3,19.959,0,-0.034211,0,4380.6,54.119,4.2788,0.10152,3.9996,0.064077,0.017103,1
4257.6,54.3,19.958,0,-0.034267,0,4380.6,54.119,4.2788,0.10152,3.9996,0.064077,0.017159,1
4258.8,54.3,19.956,0,-0.034436,0,4381,54.127,4.5988,0.10489,4.0003,0.030698,0.017556,1
4258.8,54.3,19.956,0,-0.034436,0,4381,54.127,4.5988,0.10489,4.0003,0.030698,0.017556,1
4258.8,54.3,19.956,0,-0.034436,0,4381,54.127,4.5988,0.10489,4.0003,0.030698,0.017556,1
4260,54.3,19.954,0,-0.034605,0,4381.2,54.131,4.7588,0.10558,4.0007,0.014092,0.017844,1
4260,54.3,19.954,0,-0.034605,0,4381.5,54.138,4.9989,0.10542,4.0011,-0.0099704,0.018016,1
4260,54.3,19.954,0,-0.034605,0,4381.5,54.138,4.9989,0.10542,4.0011,-0.0099704,0.018016,1
4260,54.3,19.954,0,-0.034605,0,4381.5,54.138,4.9989,0.10542,4.0011,-0.0099704,0.018016,1
4260,54.3,19.954,0,-0.034605,0,4381.5,54.138,4.9989,0.10542,4.0011,-0.0099704,0.018016,1
4260,54.3,19.954,0,-0.034605,0,4381.5,54.138,4.9989,0.10542,4.0011,-0.0099704,0.018016,1
4260,54.3,19.954,0,-0.034605,0,4381.5,54.138,4.9989,0.10542,4.0011,-0.0099704,0.018016,1
4260,54.3,19.954,0,-0.034605,0,4381.5,54.138,4.9989,0.10542,4.0011,-0.0099704,0.018016,1
4260,54.3,19.954,0,-0.034605,0,4381.5,54.138,4.9989,0.10542,4.0011,-0.0099704,0.018016,1
4260,54.3,19.954,0,-0.034605,0,4381.5,54.138,4.9989,0.10542,4.0011,-0.0099704,0.018016,1
4260.8,54.3,19.952,0,-0.034715,0,4381.5,54.138,4.9989,0.10542,4.0011,-0.0099704,0.018135,1
4260.8,54.3,19.952,0,-0.034715,0,4381.5,54.138,4.9989,0.10542,4.0011,-0.0099704,0.018135,1
4260.8,54.3,19.952,0,-0.034715,0,4381.7,54.142,5.1589,0.10455,4.0014,-0.025119,0.01825,1
4260.8,54.3,19.952,0,-0.034715,0,4381.7,54.142,5.1589,0.10455,4.0014,-0.025119,0.01825,1
4260.8,54.3,19.952,0,-0.034715,0,4381.7,54.142,5.1589,0.10455,4.0014,-0.025119,0.01825,1
4260.8,54.3,19.952,0,-0.034715,0,4381.7,54.142,5.1589,0.10455,4.0014,-0.025119,0.01825,1
4260.8,54.3,19.952,0,-0.034715,0,4381.7,54.142,5.1589,0.10455,4.0014,-0.025119,0.01825,1
4260.8,54.3,19.952,0,-0.034715,0,4381.7,54.142,5.1589,0.10455,4.0014,-0.025119,0.01825,1
4261.6,54.3,19.951,0,-0.034826,0,4381.7,54.142,5.1589,0.10455,4.0014,-0.025119,0.018372,1
4263.2,54.3,19.948,0,-0.035048,0,4381.9,54.146,5.319,0.10312,4.0015,-0.039332,0.018736,1
4263.2,54.3,19.948,0,-0.035048,0,4381.9,54.146,5.319,0.10312,4.0015,-0.039332,0.018736,1
4263.2,54.3,19.948,0,-0.035048,0,4382.3,54.154,5.6391,0.098712,4.0018,-0.064364,0.018968,1
4264.4,54.3,19.946,0,-0.035212,0,4382.3,54.154,5.6391,0.098712,4.0018,-0.064364,0.01916,1
4264.4,54.3,19.946,0,-0.035212,0,4382.7,54.16,5.8792,0.094259,4.0018,-0.079773,0.019335,1
4264.4,54.3,19.946,0,-0.035212,0,4382.7,54.16,5.8792,0.094259,4.0018,-0.079773,0.019335,1
4264.4,54.3,19.946,0,-0.035212,0,4382.7,54.16,5.8792,0.094259,4.0018,-0.079773,0.019335,1
4264.4,54.3,19.946,0,-0.035212,0,4382.7,54.16,5.8792,0.094259,4.0018,-0.079773,0.019335,1
4264.4,54.3,19.946,0,-0.035212,0,4382.7,54.16,5.8792,0.094259,4.0018,-0.079773,0.019335,1
4264.4,54.3,19.946,0,-0.035212,0,4382.7,54.16,5.8792,0.094259,4.0018,-0.079773,0.019335,1
4264.4,54.3,19.946,0,-0.035212,0,4382.7,54.16,5.8792,0.094259,4.0018,-0.079773,0.019335,1
4264.4,54.3,19.946,0,-0.035212,0,4382.7,54.16,5.8792,0.094259,4.0018,-0.079773,0.019335,1
4264.4,54.3,19.946,0,-0.035212,0,4382.8,54.162,5.9593,0.092591,4.0018,-0.084228,0.019393,1
4264.4,54.3,19.946,0,-0.035212,0,4382.9,54.163,6.0393,0.090843,4.0018,-0.088336,0.019451,1
4264.4,54.3,19.946,0,-0.035212,0,4382.9,54.163,6.0393,0.090843,4.0018,-0.088336,0.019451,1
4264.4,54.3,19.946,0,-0.035212,0,4382.9,54.163,6.0393,0.090843,4.0018,-0.088336,0.019451,1
4264.4,54.3,19.946,0,-0.035212,0,4382.9,54.163,6.0393,0.090843,4.0018,-0.088336,0.019451,1
4264.4,54.3,19.946,0,-0.035212,0,4382.9,54.163,6.0393,0.090843,4.0018,-0.088336,0.019451,1
4264.4,54.3,19.946,0,-0.035212,0,4382.9,54.163,6.0393,0.090843,4.0018,-0.088336,0.019451,1
4264.4,54.3,19.946,0,-0.035212,0,4382.9,54.163,6.0393,0.090843,4.0018,-0.088336,0.019451,1
4265.9,54.3,19.943,0,-0.035429,0,4382.9,54.163,6.0393,0.090843,4.0018,-0.088336,0.019717,1
4265.9,54.3,19.943,0,-0.035429,0,4383.4,54.17,6.3595,0.083184,4.0017,-0.10131,0.01995,1
4265.9,54.3,19.943,0,-0.035429,0,4383.4,54.17,6.3595,0.083184,4.0017,-0.10131,0.01995,1
4267.5,54.3,19.94,0,-0.035645,0,4383.4,54.17,6.3595,0.083184,4.0017,-0.10131,0.020225,1
4267.9,54.3,19.94,0,-0.035699,0,4383.4,54.17,6.3595,0.083184,4.0017,-0.10131,0.020295,1
4267.9,54.3,19.94,0,-0.035699,0,4383.9,54.177,6.6796,0.074778,4.0015,-0.10892,0.020529,1
4269.1,54.3,19.938,0,-0.03586,0,4383.9,54.177,6.6796,0.074778,4.0015,-0.10892,0.020743,1
4269.1,54.3,19.938,0,-0.03586,0,4383.9,54.177,6.6796,0.074778,4.0015,-0.10892,0.020743,1
4269.1,54.3,19.938,0,-0.03586,0,4383.9,54.177,6.6796,0.074778,4.0015,-0.10892,0.020743,1
4269.1,54.3,19.938,0,-0.03586,0,4383.9,54.177,6.6796,0.074778,4.0015,-0.10892,0.020743,1
4269.1,54.3,19.938,0,-0.03586,0,4383.9,54.177,6.6796,0.074778,4.0015,-0.10892,0.020743,1
4269.1,54.3,19.938,0,-0.03586,0,4384.2,54.18,6.8396,0.070423,4.0014,-0.11086,0.020861,1
4269.1,54.3,19.938,0,-0.03586,0,4384.2,54.18,6.8396,0.070423,4.0014,-0.11086,0.020861,1
4269.1,54.3,19.938,0,-0.03586,0,4384.2,54.18,6.8396,0.070423,4.0014,-0.11086,0.020861,1
4269.1,54.3,19.938,0,-0.03586,0,4384.2,54.18,6.8396,0.070423,4.0014,-0.11086,0.020861,1
4269.1,54.3,19.938,0,-0.03586,0,4384.2,54.18,6.8396,0.070423,4.0014,-0.11086,0.020861,1
4269.1,54.3,19.938,0,-0.03586,0,4384.2,54.18,6.8396,0.070423,4.0014,-0.11086,0.020861,1
4269.1,54.3,19.938,0,-0.03586,0,4384.2,54.18,6.8396,0.070423,4.0014,-0.11086,0.020861,1
4269.1,54.3,19.938,0,-0.03586,0,4384.3,54.181,6.9197,0.068227,4.0013,-0.11139,0.02092,1
4269.1,54.3,19.938,0,-0.03586,0,4384.3,54.181,6.9197,0.068227,4.0013,-0.11139,0.02092,1
4269.1,54.3,19.938,0,-0.03586,0,4384.3,54.181,6.9197,0.068227,4.0013,-0.11139,0.02092,1
4269.1,54.3,19.938,0,-0.03586,0,4384.3,54.181,6.9197,0.068227,4.0013,-0.11139,0.02092,1
4270.7,54.3,19.935,0,-0.036073,0,4384.5,54.182,6.9997,0.066027,4.0013,-0.11165,0.021272,1
4270.7,54.3,19.935,0,-0.036073,0,4384.5,54.182,6.9997,0.066027,4.0013,-0.11165,0.021272,1
4271.9,54.3,19.933,0,-0.036231,0,4384.8,54.185,7.1597,0.061634,4.0011,-0.11139,0.021617,1
4272.7,54.3,19.931,0,-0.036335,0,4385.2,54.188,7.3998,0.055131,4.001,-0.10925,0.021948,1
4272.7,54.3,19.931,0,-0.036335,0,4385.2,54.188,7.3998,0.055131,4.001,-0.10925,0.021948,1
4272.7,54.3,19.931,0,-0.036335,0,4385.5,54.19,7.5598,0.050902,4.0008,-0.10681,0.022065,1
4272.7,54.3,19.931,0,-0.036335,0,4385.6,54.191,7.6398,0.048831,4.0008,-0.10532,0.022124,1
4272.7,54.3,19.931,0,-0.036335,0,4385.6,54.191,7.6398,0.048831,4.0008,-0.10532,0.022124,1
4273.9,54.3,19.929,0,-0.036492,0,4385.6,54.191,7.6398,0.048831,4.0008,-0.10532,0.022361,1
4273.9,54.3,19.929,0,-0.036492,0,4385.6,54.191,7.6398,0.048831,4.0008,-0.10532,0.022361,1
4273.9,54.3,19.929,0,-0.036492,0,4385.6,54.191,7.6398,0.048831,4.0008,-0.10532,0.022361,1
4273.9,54.3,19.929,0,-0.036492,0,4386,54.193,7.7999,0.04479,4.0007,-0.10187,0.022478,1
4273.9,54.3,19.929,0,-0.036492,0,4386,54.193,7.7999,0.04479,4.0007,-0.10187,0.022478,1
4273.9,54.3,19.929,0,-0.036492,0,4386,54.193,7.7999,0.04479,4.0007,-0.10187,0.022478,1
4273.9,54.3,19.929,0,-0.036492,0,4386,54.193,7.7999,0.04479,4.0007,-0.10187,0.022478,1
4273.9,54.3,19.929,0,-0.036492,0,4386,54.193,7.7999,0.04479,4.0007,-0.10187,0.022478,1
4273.9,54.3,19.929,0,-0.036492,0,4386,54.193,7.7999,0.04479,4.0007,-0.10187,0.022478,1
4273.9,54.3,19.929,0,-0.036492,0,4386,54.193,7.7999,0.04479,4.0007,-0.10187,0.022478,1
4274.7,54.3,19.927,0,-0.036597,0,4386,54.193,7.7999,0.04479,4.0007,-0.10187,0.022639,1
4274.7,54.3,19.927,0,-0.036597,0,4386,54.193,7.7999,0.04479,4.0007,-0.10187,0.022639,1
4275.1,54.3,19.927,0,-0.036649,0,4386,54.193,7.7999,0.04479,4.0007,-0.10187,0.022721,1
4275.1,54.3,19.927,0,-0.036649,0,4386,54.193,7.7999,0.04479,4.0007,-0.10187,0.022721,1
4275.1,54.3,19.927,0,-0.036649,0,4386.4,54.196,8.0399,0.039021,4.0005,-0.095735,0.022897,1
4275.1,54.3,19.927,0,-0.036649,0,4386.4,54.196,8.0399,0.039021,4.0005,-0.095735,0.022897,1
4276.7,54.3,19.924,0,-0.036855,0,4386.6,54.196,8.1199,0.037185,4.0005,-0.093444,0.023289,1
4276.7,54.3,19.924,0,-0.036855,0,4387.1,54.198,8.3599,0.032007,4.0004,-0.085265,0.023464,1
4276.7,54.3,19.924,0,-0.036855,0,4387.1,54.198,8.3599,0.032007,4.0004,-0.085265,0.023464,1
4276.7,54.3,19.924,0,-0.036855,0,4387.3,54.199,8.4399,0.03039,4.0003,-0.08249,0.023522,1
4276.7,54.3,19.924,0,-0.036855,0,4387.4,54.2,8.52,0.028827,4.0003,-0.079711,0.02358,1
4276.7,54.3,19.924,0,-0.036855,0,4387.4,54.2,8.52,0.028827,4.0003,-0.079711,0.02358,1
4276.7,54.3,19.924,0,-0.036855,0,4387.4,54.2,8.52,0.028827,4.0003,-0.079711,0.02358,1
4276.7,54.3,19.924,0,-0.036855,0,4387.4,54.2,8.52,0.028827,4.0003,-0.079711,0.02358,1
4276.7,54.3,19.924,0,-0.036855,0,4387.4,54.2,8.52,0.028827,4.0003,-0.079711,0.02358,1
4276.7,54.3,19.924,0,-0.036855,0,4387.6,54.2,8.6,0.027319,4.0003,-0.076938,0.023638,1
4276.7,54.3,19.924,0,-0.036855,0,4387.6,54.2,8.6,0.027319,4.0003,-0.076938,0.023638,1
4276.7,54.3,19.924,0,-0.036855,0,4387.6,54.2,8.6,0.027319,4.0003,-0.076938,0.023638,1
4276.7,54.3,19.924,0,-0.036855,0,4387.6,54.2,8.6,0.027319,4.0003,-0.076938,0.023638,1
4276.7,54.3,19.924,0,-0.036855,0,4387.8,54.201,8.68,0.025865,4.0002,-0.074181,0.023696,1
4276.7,54.3,19.924,0,-0.036855,0,4387.8,54.201,8.68,0.025865,4.0002,-0.074181,0.023696,1
4276.7,54.3,19.924,0,-0.036855,0,4387.8,54.201,8.68,0.025865,4.0002,-0.074181,0.023696,1
4276.7,54.3,19.924,0,-0.036855,0,4387.8,54.201,8.68,0.025865,4.0002,-0.074181,0.023696,1
4276.7,54.3,19.924,0,-0.036855,0,4387.8,54.201,8.68,0.025865,4.0002,-0.074181,0.023696,1
4276.7,54.3,19.924,0,-0.036855,0,4387.8,54.201,8.68,0.025865,4.0002,-0.074181,0.023696,1
4279.1,54.3,19.919,0,-0.03716,0,4387.8,54.201,8.68,0.025865,4.0002,-0.074181,0.024218,1
4279.9,54.3,19.918,0,-0.037262,0,4387.8,54.201,8.68,0.025865,4.0002,-0.074181,0.024396,1
4280.7,54.3,19.916,0,-0.037364,0,4388.5,54.202,9,0.020582,4.0002,-0.063441,0.024811,1
4280.7,54.3,19.916,0,-0.037364,0,4388.5,54.202,9,0.020582,4.0002,-0.063441,0.024811,1
4280.7,54.3,19.916,0,-0.037364,0,4388.5,54.202,9,0.020582,4.0002,-0.063441,0.024811,1
4280.7,54.3,19.916,0,-0.037364,0,4388.5,54.202,9,0.020582,4.0002,-0.063441,0.024811,1
4281.9,54.3,19.914,0,-0.037512,0,4389,54.204,9.24,0.017156,4.0001,-0.055839,0.025262,1
4281.9,54.3,19.914,0,-0.037512,0,4389,54.204,9.24,0.017156,4.0001,-0.055839,0.025262,1
4281.9,54.3,19.914,0,-0.037512,0,4389,54.204,9.24,0.017156,4.0001,-0.055839,0.025262,1
4281.9,54.3,19.914,0,-0.037512,0,4389.4,54.204,9.4,0.015111,4.0001,-0.051041,0.025376,1
4281.9,54.3,19.914,0,-0.037512,0,4389.4,54.204,9.4,0.015111,4.0001,-0.051041,0.025376,1
4281.9,54.3,19.914,0,-0.037512,0,4389.4,54.204,9.4,0.015111,4.0001,-0.051041,0.025376,1
4281.9,54.3,19.914,0,-0.037512,0,4389.4,54.204,9.4,0.015111,4.0001,-0.051041,0.025376,1
4281.9,54.3,19.914,0,-0.037512,0,4389.4,54.204,9.4,0.015111,4.0001,-0.051041,0.025376,1
4283.1,54.3,19.912,0,-0.037659,0,4389.6,54.205,9.48,0.014158,4.0001,-0.048731,0.025719,1
4283.1,54.3,19.912,0,-0.037659,0,4389.6,54.205,9.48,0.014158,4.0001,-0.048731,0.025719,1
4283.1,54.3,19.912,0,-0.037659,0,4389.6,54.205,9.48,0.014158,4.0001,-0.048731,0.025719,1
4283.1,54.3,19.912,0,-0.037659,0,4390,54.205,9.64,0.012382,4.0001,-0.044296,0.025833,1
4283.1,54.3,19.912,0,-0.037659,0,4390.2,54.205,9.72,0.011557,4.0001,-0.042173,0.025889,1
4284.7,54.3,19.909,0,-0.037855,0,4390.2,54.205,9.72,0.011557,4.0001,-0.042173,0.02628,1
4284.7,54.3,19.909,0,-0.037855,0,4390.2,54.205,9.72,0.011557,4.0001,-0.042173,0.02628,1
4284.7,54.3,19.909,0,-0.037855,0,4390.2,54.205,9.72,0.011557,4.0001,-0.042173,0.02628,1
4284.7,54.3,19.909,0,-0.037855,0,4390.2,54.205,9.72,0.011557,4.0001,-0.042173,0.02628,1
4284.7,54.3,19.909,0,-0.037855,0,4390.2,54.205,9.72,0.011557,4.0001,-0.042173,0.02628,1
4284.7,54.3,19.909,0,-0.037855,0,4390.2,54.205,9.72,0.011557,4.0001,-0.042173,0.02628,1
4285.1,54.3,19.908,0,-0.037905,0,4390.2,54.205,9.72,0.011557,4.0001,-0.042173,0.02638,1
4285.1,54.3,19.908,0,-0.037905,0,4390.2,54.205,9.72,0.011557,4.0001,-0.042173,0.02638,1
4285.1,54.3,19.908,0,-0.037905,0,4390.2,54.205,9.72,0.011557,4.0001,-0.042173,0.02638,1
4285.1,54.3,19.908,0,-0.037905,0,4390.2,54.205,9.72,0.011557,4.0001,-0.042173,0.02638,1
4285.1,54.3,19.908,0,-0.037905,0,4390.9,54.206,10.04,0.0086483,4,-0.034327,0.026605,1
4285.1,54.3,19.908,0,-0.037905,0,4390.9,54.206,10.04,0.0086483,4,-0.034327,0.026605,1
4285.1,54.3,19.908,0,-0.037905,0,4390.9,54.206,10.04,0.0086483,4,-0.034327,0.026605,1
4285.1,54.3,19.908,0,-0.037905,0,4390.9,54.206,10.04,0.0086483,4,-0.034327,0.026605,1
4285.1,54.3,19.908,0,-0.037905,0,4390.9,54.206,10.04,0.0086483,4,-0.034327,0.026605,1
4285.1,54.3,19.908,0,-0.037905,0,4390.9,54.206,10.04,0.0086483,4,-0.034327,0.026605,1
4285.1,54.3,19.908,0,-0.037905,0,4391.1,54.206,10.12,0.0080125,4,-0.032528,0.026661,1
4286.7,54.3,19.905,0,-0.038099,0,4391.1,54.206,10.12,0.0080125,4,-0.032528,0.027067,1
4287.1,54.3,19.904,0,-0.038147,0,4391.1,54.206,10.12,0.0080125,4,-0.032528,0.027171,1
4287.1,54.3,19.904,0,-0.038147,0,4391.1,54.206,10.12,0.0080125,4,-0.032528,0.027171,1
4287.9,54.3,19.903,0,-0.038244,0,4392,54.207,10.44,0.0057974,4,-0.025966,0.027602,1
4287.9,54.3,19.903,0,-0.038244,0,4392,54.207,10.44,0.0057974,4,-0.025966,0.027602,1
4289.1,54.3,19.9,0,-0.038389,0,4392.6,54.207,10.68,0.0044461,4,-0.02169,0.028087,1
4289.1,54.3,19.9,0,-0.038389,0,4392.6,54.207,10.68,0.0044461,4,-0.02169,0.028087,1
4289.1,54.3,19.9,0,-0.038389,0,4392.6,54.207,10.68,0.0044461,4,-0.02169,0.028087,1
4289.1,54.3,19.9,0,-0.038389,0,4392.6,54.207,10.68,0.0044461,4,-0.02169,0.028087,1
4289.5,54.3,19.9,0,-0.038436,0,4392.6,54.207,10.68,0.0044461,4,-0.02169,0.028195,1
4289.5,54.3,19.9,0,-0.038436,0,4392.6,54.207,10.68,0.0044461,4,-0.02169,0.028195,1
4289.5,54.3,19.9,0,-0.038436,0,4392.6,54.207,10.68,0.0044461,4,-0.02169,0.028195,1
4289.5,54.3,19.9,0,-0.038436,0,4392.6,54.207,10.68,0.0044461,4,-0.02169,0.028195,1
4289.5,54.3,19.9,0,-0.038436,0,4392.6,54.207,10.68,0.0044461,4,-0.02169,0.028195,1
4289.5,54.3,19.9,0,-0.038436,0,4392.6,54.207,10.68,0.0044461,4,-0.02169,0.028195,1
4289.5,54.3,19.9,0,-0.038436,0,4392.6,54.207,10.68,0.0044461,4,-0.02169,0.028195,1
4289.5,54.3,19.9,0,-0.038436,0,4393.3,54.207,10.92,0.0033253,4,-0.017936,0.028357,1
4289.5,54.3,19.9,0,-0.038436,0,4393.3,54.207,10.92,0.0033253,4,-0.017936,0.028357,1
4289.5,54.3,19.9,0,-0.038436,0,4393.3,54.207,10.92,0.0033253,4,-0.017936,0.028357,1
4289.5,54.3,19.9,0,-0.038436,0,4393.3,54.207,10.92,0.0033253,4,-0.017936,0.028357,1
4289.5,54.3,19.9,0,-0.038436,0,4393.3,54.207,10.92,0.0033253,4,-0.017936,0.028357,1
4290.6,54.3,19.897,0,-0.038579,0,4393.5,54.207,11,0.0029979,4,-0.016794,0.028741,1
4290.6,54.3,19.897,0,-0.038579,0,4393.5,54.207,11,0.0029979,4,-0.016794,0.028741,1
4290.6,54.3,19.897,0,-0.038579,0,4393.9,54.207,11.16,0.0024059,4,-0.014668,0.028847,1
4292.2,54.3,19.894,0,-0.038768,0,4393.9,54.207,11.16,0.0024059,4,-0.014668,0.029299,1
4292.2,54.3,19.894,0,-0.038768,0,4393.9,54.207,11.16,0.0024059,4,-0.014668,0.029299,1
4292.2,54.3,19.894,0,-0.038768,0,4393.9,54.207,11.16,0.0024059,4,-0.014668,0.029299,1
4292.6,54.3,19.893,0,-0.038814,0,4393.9,54.207,11.16,0.0024059,4,-0.014668,0.029414,1
4292.6,54.3,19.893,0,-0.038814,0,4395.1,54.208,11.56,0.0012483,4,-0.010196,0.029675,1
4293.4,54.3,19.892,0,-0.038908,0,4395.1,54.208,11.56,0.0012483,4,-0.010196,0.029908,1
4293.8,54.3,19.891,0,-0.038955,0,4395.1,54.208,11.56,0.0012483,4,-0.010196,0.030025,1
4293.8,54.3,19.891,0,-0.038955,0,4395.8,54.208,11.8,0.00073947,4,-0.0080325,0.030179,1
4293.8,54.3,19.891,0,-0.038955,0,4395.8,54.208,11.8,0.00073947,4,-0.0080325,0.030179,1
4293.8,54.3,19.891,0,-0.038955,0,4395.8,54.208,11.8,0.00073947,4,-0.0080325,0.030179,1
4293.8,54.3,19.891,0,-0.038955,0,4395.8,54.208,11.8,0.00073947,4,-0.0080325,0.030179,1
4293.8,54.3,19.891,0,-0.038955,0,4396,54.208,11.88,0.00059601,4,-0.007389,0.03023,1
4293.8,54.3,19.891,0,-0.038955,0,4396,54.208,11.88,0.00059601,4,-0.007389,0.03023,1
4295,54.3,19.889,0,-0.039092,0,4396,54.208,11.88,0.00059601,4,-0.007389,0.030587,1
4295,54.3,19.889,0,-0.039092,0,4396,54.208,11.88,0.00059601,4,-0.007389,0.030587,1
4295,54.3,19.889,0,-0.039092,0,4396,54.208,11.88,0.00059601,4,-0.007389,0.030587,1
4295,54.3,19.889,0,-0.039092,0,4396,54.208,11.88,0.00059601,4,-0.007389,0.030587,1
4295,54.3,19.889,0,-0.039092,0,4396,54.208,11.88,0.00059601,4,-0.007389,0.030587,1
4295,54.3,19.889,0,-0.039092,0,4396,54.208,11.88,0.00059601,4,-0.007389,0.030587,1
4295,54.3,19.889,0,-0.039092,0,4396,54.208,11.88,0.00059601,4,-0.007389,0.030587,1
4295,54.3,19.889,0,-0.039092,0,4396,54.208,11.88,0.00059601,4,-0.007389,0.030587,1
4295.4,54.3,19.888,0,-0.039139,0,4396,54.208,11.88,0.00059601,4,-0.007389,0.030708,1
4295.4,54.3,19.888,0,-0.039139,0,4396.7,54.208,12.12,0.00023408,4,-0.0056709,0.030858,1
4296.2,54.3,19.886,0,-0.03923,0,4396.7,54.208,12.12,0.00023408,4,-0.0056709,0.031102,1
4296.2,54.3,19.886,0,-0.03923,0,4396.7,54.208,12.12,0.00023408,4,-0.0056709,0.031102,1
4296.6,54.3,19.886,0,-0.039275,0,4396.7,54.208,12.12,0.00023408,4,-0.0056709,0.031226,1
4297.8,54.3,19.883,0,-0.03941,0,4397.7,54.208,12.44,-0.00011253,4,-0.0038243,0.031796,1
4297.8,54.3,19.883,0,-0.03941,0,4397.7,54.208,12.44,-0.00011253,4,-0.0038243,0.031796,1
4297.8,54.3,19.883,0,-0.03941,0,4398.2,54.208,12.6,-0.00023786,4,-0.0030675,0.031892,1
4297.8,54.3,19.883,0,-0.03941,0,4398.4,54.208,12.68,-0.0002903,4,-0.0027263,0.031939,1
4297.8,54.3,19.883,0,-0.03941,0,4398.4,54.208,12.68,-0.0002903,4,-0.0027263,0.031939,1
4297.8,54.3,19.883,0,-0.03941,0,4398.7,54.208,12.76,-0.00033655,4,-0.0024085,0.031986,1
4297.8,54.3,19.883,0,-0.03941,0,4398.7,54.208,12.76,-0.00033655,4,-0.0024085,0.031986,1
4297.8,54.3,19.883,0,-0.03941,0,4398.7,54.208,12.76,-0.00033655,4,-0.0024085,0.031986,1
4297.8,54.3,19.883,0,-0.03941,0,4398.7,54.208,12.76,-0.00033655,4,-0.0024085,0.031986,1
4297.8,54.3,19.883,0,-0.03941,0,4398.7,54.208,12.76,-0.00033655,4,-0.0024085,0.031986,1
4297.8,54.3,19.883,0,-0.03941,0,4399,54.208,12.84,-0.00037704,4,-0.0021127,0.032033,1
4297.8,54.3,19.883,0,-0.03941,0,4399,54.208,12.84,-0.00037704,4,-0.0021127,0.032033,1
4297.8,54.3,19.883,0,-0.03941,0,4399,54.208,12.84,-0.00037704,4,-0.0021127,0.032033,1
4297.8,54.3,19.883,0,-0.03941,0,4399,54.208,12.84,-0.00037704,4,-0.0021127,0.032033,1
4297.8,54.3,19.883,0,-0.03941,0,4399,54.208,12.84,-0.00037704,4,-0.0021127,0.032033,1
4297.8,54.3,19.883,0,-0.03941,0,4399,54.208,12.84,-0.00037704,4,-0.0021127,0.032033,1
4297.8,54.3,19.883,0,-0.03941,0,4399,54.208,12.84,-0.00037704,4,-0.0021127,0.032033,1
4299.8,54.3,19.879,0,-0.039636,0,4399,54.208,12.84,-0.00037704,4,-0.0021127,0.032675,1
4299.8,54.3,19.879,0,-0.039636,0,4399,54.208,12.84,-0.00037704,4,-0.0021127,0.032675,1
4299.8,54.3,19.879,0,-0.039636,0,4399,54.208,12.84,-0.00037704,4,-0.0021127,0.032675,1
4300.2,54.3,19.879,0,-0.03968,0,4399,54.208,12.84,-0.00037704,4,-0.0021127,0.032807,1
4300.2,54.3,19.879,0,-0.03968,0,4400,54.208,13.16,-0.0004893,4,-0.0011294,0.032989,1
4300.2,54.3,19.879,0,-0.03968,0,4400,54.208,13.16,-0.0004893,4,-0.0011294,0.032989,1
4302.2,54.3,19.875,0,-0.039903,0,4400.3,54.208,13.24,-0.00050674,4,-0.00092843,0.033703,1
4302.2,54.3,19.875,0,-0.039903,0,4400.3,54.208,13.24,-0.00050674,4,-0.00092843,0.033703,1
4302.2,54.3,19.875,0,-0.039903,0,4401.1,54.208,13.48,-0.00053867,4,-0.00041816,0.033833,1
4303,54.3,19.873,0,-0.03999,0,4401.1,54.208,13.48,-0.00053867,4,-0.00041816,0.034107,1
4303,54.3,19.873,0,-0.03999,0,4401.1,54.208,13.48,-0.00053867,4,-0.00041816,0.034107,1
4303.4,54.3,19.872,0,-0.040032,0,4401.1,54.208,13.48,-0.00053867,4,-0.00041816,0.034246,1
4303.4,54.3,19.872,0,-0.040032,0,4401.1,54.208,13.48,-0.00053867,4,-0.00041816,0.034246,1
4303.4,54.3,19.872,0,-0.040032,0,4401.1,54.208,13.48,-0.00053867,4,-0.00041816,0.034246,1
4303.4,54.3,19.872,0,-0.040032,0,4401.1,54.208,13.48,-0.00053867,4,-0.00041816,0.034246,1
4303.4,54.3,19.872,0,-0.040032,0,4401.1,54.208,13.48,-0.00053867,4,-0.00041816,0.034246,1
4303.4,54.3,19.872,0,-0.040032,0,4401.1,54.208,13.48,-0.00053867,4,-0.00041816,0.034246,1
4303.4,54.3,19.872,0,-0.040032,0,4401.1,54.208,13.48,-0.00053867,4,-0.00041816,0.034246,1
4303.8,54.3,19.871,0,-0.040076,0,4401.1,54.208,13.48,-0.00053867,4,-0.00041816,0.034386,1
4303.8,54.3,19.871,0,-0.040076,0,4402.2,54.208,13.8,-0.00054365,4,7.7213e-05,0.034553,1
4303.8,54.3,19.871,0,-0.040076,0,4402.2,54.208,13.8,-0.00054365,4,7.7213e-05,0.034553,1
4304.6,54.3,19.87,0,-0.040161,0,4402.2,54.208,13.8,-0.00054365,4,7.7213e-05,0.034835,1
4304.6,54.3,19.87,0,-0.040161,0,4402.2,54.208,13.8,-0.00054365,4,7.7213e-05,0.034835,1
4304.6,54.3,19.87,0,-0.040161,0,4402.2,54.208,13.8,-0.00054365,4,7.7213e-05,0.034835,1
4305.4,54.3,19.868,0,-0.040248,0,4402.2,54.208,13.8,-0.00054365,4,7.7213e-05,0.035121,1
4305.4,54.3,19.868,0,-0.040248,0,4402.2,54.208,13.8,-0.00054365,4,7.7213e-05,0.035121,1
4306.2,54.3,19.867,0,-0.040334,0,4403.3,54.208,13.889,-0.00051115,1.9375e-08,0.00052115,0.035162,1
4306.2,54.3,19.867,0,-0.040334,0,4403.8,54.208,13.889,-0.00048721,2.1571e-08,0.00060735,0.034962,1
4306.2,54.3,19.867,0,-0.040334,0,4403.8,54.208,13.889,-0.00048721,2.1571e-08,0.00060735,0.034962,1
4306.2,54.3,19.867,0,-0.040334,0,4404.1,54.207,13.889,-0.00047421,2.2185e-08,0.0006411,0.034863,1
4306.2,54.3,19.867,0,-0.040334,0,4404.1,54.207,13.889,-0.00047421,2.2185e-08,0.0006411,0.034863,1
4306.2,54.3,19.867,0,-0.040334,0,4404.4,54.207,13.889,-0.00046068,2.252e-08,0.00066923,0.034765,1
4306.2,54.3,19.867,0,-0.040334,0,4404.4,54.207,13.889,-0.00046068,2.252e-08,0.00066923,0.034765,1
4306.2,54.3,19.867,0,-0.040334,0,4404.4,54.207,13.889,-0.00046068,2.252e-08,0.00066923,0.034765,1
4306.2,54.3,19.867,0,-0.040334,0,4404.4,54.207,13.889,-0.00046068,2.252e-08,0.00066923,0.034765,1
4306.2,54.3,19.867,0,-0.040334,0,4404.7,54.207,13.889,-0.00044671,2.2607e-08,0.00069217,0.034667,1
4306.2,54.3,19.867,0,-0.040334,0,4404.7,54.207,13.889,-0.00044671,2.2607e-08,0.00069217,0.034667,1
4306.2,54.3,19.867,0,-0.040334,0,4404.9,54.207,13.889,-0.00043241,2.2478e-08,0.00071033,0.034569,1
4306.2,54.3,19.867,0,-0.040334,0,4404.9,54.207,13.889,-0.00043241,2.2478e-08,0.00071033,0.034569,1
4306.2,54.3,19.867,0,-0.040334,0,4405.2,54.207,13.889,-0.00041785,2.2162e-08,0.0007241,0.034472,1
4306.2,54.3,19.867,0,-0.040334,0,4405.2,54.207,13.889,-0.00041785,2.2162e-08,0.0007241,0.034472,1
4306.2,54.3,19.867,0,-0.040334,0,4405.2,54.207,13.889,-0.00041785,2.2162e-08,0.0007241,0.034472,1
4309.3,54.3,19.86,0,-0.040673,0,4405.2,54.207,13.889,-0.00041785,2.2162e-08,0.0007241,0.035615,1
4309.7,54.3,19.859,0,-0.040714,0,4405.2,54.207,13.889,-0.00041785,2.2162e-08,0.0007241,0.035763,1
4309.7,54.3,19.859,0,-0.040714,0,4405.2,54.207,13.889,-0.00041785,2.2162e-08,0.0007241,0.035763,1
4310.1,54.3,19.858,0,-0.040756,0,4405.2,54.207,13.889,-0.00041785,2.2162e-08,0.0007241,0.035912,1
4310.1,54.3,19.858,0,-0.040756,0,4405.2,54.207,13.889,-0.00041785,2.2162e-08,0.0007241,0.035912,1
4310.5,54.3,19.858,0,-0.040797,0,4405.2,54.207,13.889,-0.00041785,2.2162e-08,0.0007241,0.036063,1
4310.5,54.3,19.858,0,-0.040797,0,4405.2,54.207,13.889,-0.00041785,2.2162e-08,0.0007241,0.036063,1
4310.5,54.3,19.858,0,-0.040797,0,4405.2,54.207,13.889,-0.00041785,2.2162e-08,0.0007241,0.036063,1
4310.9,54.3,19.857,0,-0.040838,0,4405.2,54.207,13.889,-0.00041785,2.2162e-08,0.0007241,0.036215,1
4310.9,54.3,19.857,0,-0.040838,0,4405.2,54.207,13.889,-0.00041785,2.2162e-08,0.0007241,0.036215,1
4310.9,54.3,19.857,0,-0.040838,0,4405.2,54.207,13.889,-0.00041785,2.2162e-08,0.0007241,0.036215,1
4310.9,54.3,19.857,0,-0.040838,0,4405.2,54.207,13.889,-0.00041785,2.2162e-08,0.0007241,0.036215,1
4311.3,54.3,19.856,0,-0.040878,0,4405.2,54.207,13.889,-0.00041785,2.2162e-08,0.0007241,0.036368,1
4311.3,54.3,19.856,0,-0.040878,0,4405.2,54.207,13.889,-0.00041785,2.2162e-08,0.0007241,0.036368,1
4311.3,54.3,19.856,0,-0.040878,0,4405.2,54.207,13.889,-0.00041785,2.2162e-08,0.0007241,0.036368,1
4311.7,54.3,19.855,0,-0.040919,0,4405.2,54.207,13.889,-0.00041785,2.2162e-08,0.0007241,0.036523,1
4312.1,54.3,19.854,0,-0.040961,0,4405.2,54.207,13.889,-0.00041785,2.2162e-08,0.0007241,0.036678,1
4312.1,54.3,19.854,0,-0.040961,0,4405.2,54.207,13.889,-0.00041785,2.2162e-08,0.0007241,0.036678,1
4312.1,54.3,19.854,0,-0.040961,0,4408,54.207,13.889,-0.00027258,1.392e-08,0.0006917,0.035616,1
4312.9,54.3,19.853,0,-0.041042,0,4408,54.207,13.889,-0.00027258,1.392e-08,0.0006917,0.035913,1
4312.9,54.3,19.853,0,-0.041042,0,4408,54.207,13.889,-0.00027258,1.392e-08,0.0006917,0.035913,1
4313.7,54.3,19.851,0,-0.041123,0,4408.5,54.207,13.889,-0.00024594,1.2034e-08,0.0006618,0.036004,1
4313.7,54.3,19.851,0,-0.041123,0,4408.5,54.207,13.889,-0.00024594,1.2034e-08,0.0006618,0.036004,1
4313.7,54.3,19.851,0,-0.041123,0,4408.5,54.207,13.889,-0.00024594,1.2034e-08,0.0006618,0.036004,1
4313.7,54.3,19.851,0,-0.041123,0,4408.5,54.207,13.889,-0.00024594,1.2034e-08,0.0006618,0.036004,1
4314.5,54.3,19.849,0,-0.041202,0,4409.1,54.207,13.889,-0.00022064,1.0259e-08,0.00062791,0.036094,1
4314.9,54.3,19.849,0,-0.041243,0,4409.1,54.207,13.889,-0.00022064,1.0259e-08,0.00062791,0.036246,1
4314.9,54.3,19.849,0,-0.041243,0,4409.1,54.207,13.889,-0.00022064,1.0259e-08,0.00062791,0.036246,1
4314.9,54.3,19.849,0,-0.041243,0,4409.1,54.207,13.889,-0.00022064,1.0259e-08,0.00062791,0.036246,1
4314.9,54.3,19.849,0,-0.041243,0,4409.9,54.207,13.889,-0.00018546,7.876e-09,0.00057218,0.035929,1
4314.9,54.3,19.849,0,-0.041243,0,4410.2,54.207,13.889,-0.0001745,7.1653e-09,0.00055281,0.035824,1
4314.9,54.3,19.849,0,-0.041243,0,4410.2,54.207,13.889,-0.0001745,7.1653e-09,0.00055281,0.035824,1
4314.9,54.3,19.849,0,-0.041243,0,4410.2,54.207,13.889,-0.0001745,7.1653e-09,0.00055281,0.035824,1
4314.9,54.3,19.849,0,-0.041243,0,4410.2,54.207,13.889,-0.0001745,7.1653e-09,0.00055281,0.035824,1
4314.9,54.3,19.849,0,-0.041243,0,4410.2,54.207,13.889,-0.0001745,7.1653e-09,0.00055281,0.035824,1
4314.9,54.3,19.849,0,-0.041243,0,4410.2,54.207,13.889,-0.0001745,7.1653e-09,0.00055281,0.035824,1
4314.9,54.3,19.849,0,-0.041243,0,4410.2,54.207,13.889,-0.0001745,7.1653e-09,0.00055281,0.035824,1
4314.9,54.3,19.849,0,-0.041243,0,4410.2,54.207,13.889,-0.0001745,7.1653e-09,0.00055281,0.035824,1
4314.9,54.3,19.849,0,-0.041243,0,4410.2,54.207,13.889,-0.0001745,7.1653e-09,0.00055281,0.035824,1
4314.9,54.3,19.849,0,-0.041243,0,4410.5,54.207,13.889,-0.00016393,6.4982e-09,0.00053321,0.03572,1
4314.9,54.3,19.849,0,-0.041243,0,4410.5,54.207,13.889,-0.00016393,6.4982e-09,0.00053321,0.03572,1
4314.9,54.3,19.849,0,-0.041243,0,4410.5,54.207,13.889,-0.00016393,6.4982e-09,0.00053321,0.03572,1
4314.9,54.3,19.849,0,-0.041243,0,4410.5,54.207,13.889,-0.00016393,6.4982e-09,0.00053321,0.03572,1
4314.9,54.3,19.849,0,-0.041243,0,4410.5,54.207,13.889,-0.00016393,6.4982e-09,0.00053321,0.03572,1
4314.9,54.3,19.849,0,-0.041243,0,4410.8,54.207,13.889,-0.00015376,5.8745e-09,0.00051349,0.035616,1
4317.7,54.3,19.843,0,-0.041518,0,4411,54.207,13.889,-0.00014398,5.2939e-09,0.00049373,0.03657,1
4318.9,54.3,19.84,0,-0.041632,0,4412.2,54.207,13.889,-0.00010879,3.381e-09,0.00041575,0.036601,1
4318.9,54.3,19.84,0,-0.041632,0,4412.7,54.207,13.889,-9.348e-05,2.6485e-09,0.0003782,0.036385,1
4318.9,54.3,19.84,0,-0.041632,0,4412.7,54.207,13.889,-9.348e-05,2.6485e-09,0.0003782,0.036385,1
4318.9,54.3,19.84,0,-0.041632,0,4412.7,54.207,13.889,-9.348e-05,2.6485e-09,0.0003782,0.036385,1
4318.9,54.3,19.84,0,-0.041632,0,4412.7,54.207,13.889,-9.348e-05,2.6485e-09,0.0003782,0.036385,1
4318.9,54.3,19.84,0,-0.041632,0,4412.7,54.207,13.889,-9.348e-05,2.6485e-09,0.0003782,0.036385,1
4318.9,54.3,19.84,0,-0.041632,0,4413,54.207,13.889,-8.6372e-05,2.3318e-09,0.00035995,0.036277,1
4318.9,54.3,19.84,0,-0.041632,0,4413,54.207,13.889,-8.6372e-05,2.3318e-09,0.00035995,0.036277,1
4318.9,54.3,19.84,0,-0.041632,0,4413,54.207,13.889,-8.6372e-05,2.3318e-09,0.00035995,0.036277,1
4318.9,54.3,19.84,0,-0.041632,0,4413,54.207,13.889,-8.6372e-05,2.3318e-09,0.00035995,0.036277,1
4318.9,54.3,19.84,0,-0.041632,0,4413,54.207,13.889,-8.6372e-05,2.3318e-09,0.00035995,0.036277,1
4318.9,54.3,19.84,0,-0.041632,0,4413,54.207,13.889,-8.6372e-05,2.3318e-09,0.00035995,0.036277,1
4318.9,54.3,19.84,0,-0.041632,0,4413,54.207,13.889,-8.6372e-05,2.3318e-09,0.00035995,0.036277,1
