15426,54.3,19.189,0,-0.031632,0,15635,57.579,0,0,0,0,0.0081652,0
15426,54.3,19.189,0,-0.031632,0,15635,57.579,0,0,0,0,0.0081652,0
15426,54.3,19.189,0,-0.031632,0,15635,57.579,0,0,0,0,0.0081652,0
15426,54.3,19.189,0,-0.031632,0,15635,57.579,0,0,0,0,0.0081652,0
15426,54.3,19.189,0,-0.031632,0,15635,57.579,0,0,0,0,0.0081652,0
15426,54.3,19.189,0,-0.031632,0,15635,57.579,0,0,0,0,0.0081652,0
15426,54.3,19.189,0,-0.031632,0,15635,57.579,0,0,0,0,0.0081652,0
15428,54.3,19.185,0,-0.031325,0,15635,57.579,0,0,0,0,0.0082409,0
15429,54.3,19.184,0,-0.031142,0,15635,57.579,0,0,0,0,0.008287,0
15429,54.3,19.184,0,-0.031142,0,15635,57.579,0,0,0,0,0.008287,0
15429,54.3,19.184,0,-0.031142,0,15635,57.579,0,0,0,0,0.008287,0
15429,54.3,19.184,0,-0.031142,0,15635,57.579,0,0,0,0,0.008287,0
15429,54.3,19.184,0,-0.031142,0,15635,57.579,0,0,0,0,0.008287,0
15429,54.3,19.184,0,-0.031142,0,15635,57.579,0,0,0,0,0.008287,0
15429,54.3,19.184,0,-0.031142,0,15635,57.579,0,0,0,0,0.008287,0
15429,54.3,19.184,0,-0.031142,0,15635,57.579,0,0,0,0,0.008287,0
15429,54.3,19.184,0,-0.031142,0,15635,57.579,0,0,0,0,0.008287,0
15429,54.3,19.184,0,-0.031142,0,15635,57.579,0,0,0,0,0.008287,0
15431,54.3,19.181,0,-0.030891,0,15635,57.579,0,0,0,0,0.0083492,0
15431,54.3,19.181,0,-0.030891,0,15635,57.579,0,0,0,0,0.0083492,0
15431,54.3,19.181,0,-0.030891,0,15635,57.579,0,0,0,0,0.0083492,0
15431,54.3,19.181,0,-0.030891,0,15635,57.579,0,0,0,0,0.0083492,0
15431,54.3,19.181,0,-0.030891,0,15635,57.579,0,0,0,0,0.0083492,0
15431,54.3,19.181,0,-0.030891,0,15635,57.579,0,0,0,0,0.0083492,0
15431,54.3,19.181,0,-0.030891,0,15635,57.579,0,0,0,0,0.0083492,0
15431,54.3,19.181,0,-0.030891,0,15635,57.579,0,0,0,0,0.0083492,0
15431,54.3,19.181,0,-0.030891,0,15635,57.579,0,0,0,0,0.0083492,0
15431,54.3,19.181,0,-0.030891,0,15635,57.579,0,0,0,0,0.0083492,0
15431,54.3,19.181,0,-0.030891,0,15635,57.579,0,0,0,0,0.0083492,0
15431,54.3,19.181,0,-0.030891,0,15635,57.579,0,0,0,0,0.0083492,0
15431,54.3,19.181,0,-0.030891,0,15635,57.579,0,0,0,0,0.0083492,0
15432,54.3,19.179,0,-0.030704,0,15635,57.579,0,0,0,0,0.0083965,0
15432,54.3,19.179,0,-0.030704,0,15635,57.579,0,0,0,0,0.0083965,0
15432,54.3,19.179,0,-0.030704,0,15635,57.579,0,0,0,0,0.0083965,0
15434,54.3,19.175,0,-0.030264,0,15635,57.579,0,0,0,0,0.008509,0
15435,54.3,19.174,0,-0.030202,0,15635,57.579,0,0,0,0,0.0085253,0
15435,54.3,19.174,0,-0.030138,0,15635,57.579,0,0,0,0,0.0085417,0
15435,54.3,19.174,0,-0.030138,0,15635,57.579,0,0,0,0,0.0085417,0
15435,54.3,19.174,0,-0.030138,0,15635,57.579,0,0,0,0,0.0085417,0
15435,54.3,19.174,0,-0.030138,0,15635,57.579,0,0,0,0,0.0085417,0
15435,54.3,19.174,0,-0.030138,0,15635,57.579,0,0,0,0,0.0085417,0
15436,54.3,19.173,0,-0.030074,0,15635,57.579,0,0,0,0,0.0085582,0
15436,54.3,19.173,0,-0.030074,0,15635,57.579,0,0,0,0,0.0085582,0
15436,54.3,19.173,0,-0.030074,0,15635,57.579,0,0,0,0,0.0085582,0
15436,54.3,19.173,0,-0.030074,0,15635,57.579,0,0,0,0,0.0085582,0
15436,54.3,19.173,0,-0.030074,0,15635,57.579,0,0,0,0,0.0085582,0
15436,54.3,19.173,0,-0.030074,0,15635,57.579,0,0,0,0,0.0085582,0
15436,54.3,19.173,0,-0.030074,0,15635,57.579,0,0,0,0,0.0085582,0
15436,54.3,19.173,0,-0.030074,0,15635,57.579,0,0,0,0,0.0085582,0
15436,54.3,19.173,0,-0.030074,0,15635,57.579,0,0,0,0,0.0085582,0
15436,54.3,19.173,0,-0.030012,0,15635,57.579,0,0,0,0,0.0085747,0
15436,54.3,19.173,0,-0.030012,0,15635,57.579,0,0,0,0,0.0085747,0
15436,54.3,19.173,0,-0.030012,0,15635,57.579,0,0,0,0,0.0085747,0
15436,54.3,19.173,0,-0.030012,0,15635,57.579,0,0,0,0,0.0085747,0
15436,54.3,19.173,0,-0.030012,0,15635,57.579,0,0,0,0,0.0085747,0
15436,54.3,19.173,0,-0.030012,0,15635,57.579,0,0,0,0,0.0085747,0
15437,54.3,19.171,0,-0.029884,0,15635,57.579,0,0,0,0,0.0086079,0
15437,54.3,19.171,0,-0.029884,0,15635,57.579,0,0,0,0,0.0086079,0
15439,54.3,19.168,0,-0.029565,0,15635,57.579,0,0,0,0,0.008692,0
15439,54.3,19.168,0,-0.029565,0,15635,57.579,0,0,0,0,0.008692,0
15439,54.3,19.168,0,-0.029565,0,15635,57.579,0,0,0,0,0.008692,0
15439,54.3,19.168,0,-0.029565,0,15635,57.579,0,0,0,0,0.008692,0
15440,54.3,19.167,0,-0.029373,0,15635,57.579,0,0,0,0,0.0087432,0
15440,54.3,19.167,0,-0.029373,0,15635,57.579,0,0,0,0,0.0087432,0
15440,54.3,19.167,0,-0.029373,0,15635,57.579,0,0,0,0,0.0087432,0
15440,54.3,19.167,0,-0.029373,0,15635,57.579,0,0,0,0,0.0087432,0
15440,54.3,19.167,0,-0.029373,0,15635,57.579,0,0,0,0,0.0087432,0
15440,54.3,19.167,0,-0.029373,0,15635,57.579,0,0,0,0,0.0087432,0
15440,54.3,19.166,0,-0.029308,0,15635,57.579,0,0,0,0,0.0087604,0
15440,54.3,19.166,0,-0.029308,0,15635,57.579,0,0,0,0,0.0087604,0
15441,54.3,19.165,0,-0.029245,0,15635,57.579,0,0,0,0,0.0087777,0
15441,54.3,19.165,0,-0.029245,0,15635,57.579,0,0,0,0,0.0087777,0
15441,54.3,19.165,0,-0.029245,0,15635,57.579,0,0,0,0,0.0087777,0
15441,54.3,19.164,0,-0.029114,0,15635,57.579,0,0,0,0,0.0088125,0
15441,54.3,19.164,0,-0.029114,0,15635,57.579,0,0,0,0,0.0088125,0
15441,54.3,19.164,0,-0.029114,0,15635,57.579,0,0,0,0,0.0088125,0
15441,54.3,19.164,0,-0.029114,0,15635,57.579,0,0,0,0,0.0088125,0
15443,54.3,19.162,0,-0.028855,0,15635,57.579,0,0,0,0,0.0088829,0
15443,54.3,19.162,0,-0.028855,0,15635,57.579,0,0,0,0,0.0088829,0
15443,54.3,19.162,0,-0.028855,0,15635,57.579,0,0,0,0,0.0088829,0
15443,54.3,19.162,0,-0.028855,0,15635,57.579,0,0,0,0,0.0088829,0
15443,54.3,19.162,0,-0.028855,0,15635,57.579,0,0,0,0,0.0088829,0
15443,54.3,19.162,0,-0.028855,0,15635,57.579,0,0,0,0,0.0088829,0
15443,54.3,19.162,0,-0.028855,0,15635,57.579,0,0,0,0,0.0088829,0
15443,54.3,19.161,0,-0.028789,0,15635,57.579,0,0,0,0,0.0089006,0
15443,54.3,19.161,0,-0.028789,0,15635,57.579,0,0,0,0,0.0089006,0
15443,54.3,19.161,0,-0.028789,0,15635,57.579,0,0,0,0,0.0089006,0
15444,54.3,19.161,0,-0.028723,0,15635,57.579,0,0,0,0,0.0089185,0
15444,54.3,19.161,0,-0.028723,0,15635,57.579,0,0,0,0,0.0089185,0
15444,54.3,19.161,0,-0.028723,0,15635,57.579,0,0,0,0,0.0089185,0
15444,54.3,19.161,0,-0.028723,0,15635,57.579,0,0,0,0,0.0089185,0
15444,54.3,19.161,0,-0.028723,0,15635,57.579,0,0,0,0,0.0089185,0
15444,54.3,19.16,0,-0.028659,0,15635,57.579,0,0,0,0,0.0089364,0
15444,54.3,19.16,0,-0.028659,0,15635,57.579,0,0,0,0,0.0089364,0
15444,54.3,19.16,0,-0.028659,0,15635,57.579,0,0,0,0,0.0089364,0
15444,54.3,19.16,0,-0.028659,0,15635,57.579,0,0,0,0,0.0089364,0
15444,54.3,19.16,0,-0.028659,0,15635,57.579,0,0,0,0,0.0089364,0
15444,54.3,19.16,0,-0.028659,0,15635,57.579,0,0,0,0,0.0089364,0
15444,54.3,19.16,0,-0.028659,0,15635,57.579,0,0,0,0,0.0089364,0
15444,54.3,19.16,0,-0.028659,0,15635,57.579,0,0,0,0,0.0089364,0
15444,54.3,19.16,0,-0.028659,0,15635,57.579,0,0,0,0,0.0089364,0
15447,54.3,19.156,0,-0.0282,0,15635,57.579,0,0,0,0,0.0090638,0
15447,54.3,19.156,0,-0.0282,0,15635,57.579,0,0,0,0,0.0090638,0
15447,54.3,19.156,0,-0.0282,0,15635,57.579,0,0,0,0,0.0090638,0
15447,54.3,19.156,0,-0.0282,0,15635,57.579,0,0,0,0,0.0090638,0
15447,54.3,19.156,0,-0.0282,0,15635,57.579,0,0,0,0,0.0090638,0
15447,54.3,19.156,0,-0.0282,0,15635,57.579,0,0,0,0,0.0090638,0
15447,54.3,19.156,0,-0.0282,0,15635,57.579,0,0,0,0,0.0090638,0
15447,54.3,19.156,0,-0.0282,0,15635,57.579,0,0,0,0,0.0090638,0
15447,54.3,19.156,0,-0.0282,0,15635,57.579,0,0,0,0,0.0090638,0
15447,54.3,19.156,0,-0.0282,0,15635,57.579,0,0,0,0,0.0090638,0
15447,54.3,19.156,0,-0.0282,0,15635,57.579,0,0,0,0,0.0090638,0
15447,54.3,19.156,0,-0.0282,0,15635,57.579,0,0,0,0,0.0090638,0
15447,54.3,19.156,0,-0.0282,0,15635,57.579,0,0,0,0,0.0090638,0
15447,54.3,19.156,0,-0.0282,0,15635,57.579,0,0,0,0,0.0090638,0
15447,54.3,19.156,0,-0.0282,0,15635,57.579,0,0,0,0,0.0090638,0
15447,54.3,19.156,0,-0.0282,0,15635,57.579,0,0,0,0,0.0090638,0
15447,54.3,19.156,0,-0.0282,0,15635,57.579,0,0,0,0,0.0090638,0
15447,54.3,19.156,0,-0.0282,0,15635,57.579,0,0,0,0,0.0090638,0
15449,54.3,19.153,0,-0.027803,0,15635,57.579,0,0,0,0,0.0091759,0
15449,54.3,19.153,0,-0.027803,0,15635,57.579,0,0,0,0,0.0091759,0
15450,54.3,19.151,0,-0.027602,0,15635,57.579,0,0,0,0,0.009233,0
15450,54.3,19.151,0,-0.027602,0,15635,57.579,0,0,0,0,0.009233,0
15452,54.3,19.149,0,-0.027336,0,15635,57.579,0,0,0,0,0.0093102,0
15452,54.3,19.149,0,-0.027336,0,15635,57.579,0,0,0,0,0.0093102,0
15452,54.3,19.149,0,-0.027336,0,15635,57.579,0,0,0,0,0.0093102,0
15452,54.3,19.149,0,-0.027336,0,15635,57.579,0,0,0,0,0.0093102,0
15452,54.3,19.149,0,-0.027336,0,15635,57.579,0,0,0,0,0.0093102,0
15452,54.3,19.149,0,-0.027336,0,15635,57.579,0,0,0,0,0.0093102,0
15452,54.3,19.149,0,-0.027336,0,15635,57.579,0,0,0,0,0.0093102,0
15452,54.3,19.149,0,-0.027336,0,15635,57.579,0,0,0,0,0.0093102,0
15452,54.3,19.149,0,-0.027336,0,15635,57.579,0,0,0,0,0.0093102,0
15452,54.3,19.149,0,-0.027336,0,15635,57.579,0,0,0,0,0.0093102,0
15452,54.3,19.148,0,-0.027201,0,15635,57.579,0,0,0,0,0.0093493,0
15452,54.3,19.148,0,-0.027201,0,15635,57.579,0,0,0,0,0.0093493,0
15452,54.3,19.148,0,-0.027201,0,15635,57.579,0,0,0,0,0.0093493,0
15452,54.3,19.148,0,-0.027201,0,15635,57.579,0,0,0,0,0.0093493,0
15452,54.3,19.148,0,-0.027201,0,15635,57.579,0,0,0,0,0.0093493,0
15452,54.3,19.148,0,-0.027201,0,15635,57.579,0,0,0,0,0.0093493,0
15452,54.3,19.148,0,-0.027201,0,15635,57.579,0,0,0,0,0.0093493,0
15452,54.3,19.148,0,-0.027201,0,15635,57.579,0,0,0,0,0.0093493,0
15452,54.3,19.148,0,-0.027201,0,15635,57.579,0,0,0,0,0.0093493,0
15452,54.3,19.148,0,-0.027201,0,15635,57.579,0,0,0,0,0.0093493,0
15454,54.3,19.145,0,-0.026865,0,15635,57.579,0,0,0,0,0.0094485,0
15454,54.3,19.145,0,-0.026865,0,15635,57.579,0,0,0,0,0.0094485,0
15456,54.3,19.144,0,-0.026662,0,15635,57.579,0,0,0,0,0.009509,0
15456,54.3,19.144,0,-0.026662,0,15635,57.579,0,0,0,0,0.009509,0
15456,54.3,19.143,0,-0.026524,0,15635,57.579,0,0,0,0,0.0095498,0
15456,54.3,19.143,0,-0.026524,0,15635,57.579,0,0,0,0,0.0095498,0
15456,54.3,19.143,0,-0.026524,0,15635,57.579,0,0,0,0,0.0095498,0
15456,54.3,19.143,0,-0.026524,0,15635,57.579,0,0,0,0,0.0095498,0
15457,54.3,19.142,0,-0.026457,0,15635,57.579,0,0,0,0,0.0095703,0
15457,54.3,19.142,0,-0.026457,0,15635,57.579,0,0,0,0,0.0095703,0
15457,54.3,19.142,0,-0.026457,0,15635,57.579,0,0,0,0,0.0095703,0
15457,54.3,19.142,0,-0.026457,0,15635,57.579,0,0,0,0,0.0095703,0
15457,54.3,19.142,0,-0.026457,0,15635,57.579,0,0,0,0,0.0095703,0
15457,54.3,19.142,0,-0.026457,0,15635,57.579,0,0,0,0,0.0095703,0
15457,54.3,19.142,0,-0.026457,0,15635,57.579,0,0,0,0,0.0095703,0
15457,54.3,19.142,0,-0.026457,0,15635,57.579,0,0,0,0,0.0095703,0
15457,54.3,19.142,0,-0.026457,0,15635,57.579,0,0,0,0,0.0095703,0
15457,54.3,19.142,0,-0.026457,0,15635,57.579,0,0,0,0,0.0095703,0
15457,54.3,19.142,0,-0.026457,0,15635,57.579,0,0,0,0,0.0095703,0
15457,54.3,19.142,0,-0.026457,0,15635,57.579,0,0,0,0,0.0095703,0
15458,54.3,19.14,0,-0.026253,0,15635,57.579,0,0,0,0,0.0096324,0
15458,54.3,19.14,0,-0.026253,0,15635,57.579,0,0,0,0,0.0096324,0
15458,54.3,19.14,0,-0.026185,0,15635,57.579,0,0,0,0,0.0096533,0
15458,54.3,19.14,0,-0.026185,0,15635,57.579,0,0,0,0,0.0096533,0
15460,54.3,19.137,0,-0.025842,0,15635,57.579,0,0,0,0,0.009759,0
15460,54.3,19.137,0,-0.025773,0,15635,57.579,0,0,0,0,0.0097804,0
15460,54.3,19.137,0,-0.025773,0,15635,57.579,0,0,0,0,0.0097804,0
15461,54.3,19.136,0,-0.025705,0,15635,57.579,0,0,0,0,0.0098019,0
15461,54.3,19.136,0,-0.025705,0,15635,57.579,0,0,0,0,0.0098019,0
15461,54.3,19.136,0,-0.025705,0,15635,57.579,0,0,0,0,0.0098019,0
15461,54.3,19.136,0,-0.025705,0,15635,57.579,0,0,0,0,0.0098019,0
15461,54.3,19.136,0,-0.025705,0,15635,57.579,0,0,0,0,0.0098019,0
15461,54.3,19.136,0,-0.025705,0,15635,57.579,0,0,0,0,0.0098019,0
15461,54.3,19.136,0,-0.025705,0,15635,57.579,0,0,0,0,0.0098019,0
15461,54.3,19.136,0,-0.025705,0,15635,57.579,0,0,0,0,0.0098019,0
15461,54.3,19.136,0,-0.025705,0,15635,57.579,0,0,0,0,0.0098019,0
15461,54.3,19.136,0,-0.025705,0,15635,57.579,0,0,0,0,0.0098019,0
15461,54.3,19.136,0,-0.025705,0,15635,57.579,0,0,0,0,0.0098019,0
15461,54.3,19.136,0,-0.025705,0,15635,57.579,0,0,0,0,0.0098019,0
15461,54.3,19.136,0,-0.025705,0,15635,57.579,0,0,0,0,0.0098019,0
15461,54.3,19.136,0,-0.025705,0,15635,57.579,0,0,0,0,0.0098019,0
15461,54.3,19.136,0,-0.025705,0,15635,57.579,0,0,0,0,0.0098019,0
15461,54.3,19.136,0,-0.025705,0,15635,57.579,0,0,0,0,0.0098019,0
15462,54.3,19.135,0,-0.025565,0,15635,57.579,0,0,0,0,0.0098452,0
15462,54.3,19.135,0,-0.025565,0,15635,57.579,0,0,0,0,0.0098452,0
15462,54.3,19.135,0,-0.025496,0,15635,57.579,0,0,0,0,0.009867,0
15462,54.3,19.135,0,-0.025496,0,15635,57.579,0,0,0,0,0.009867,0
15462,54.3,19.135,0,-0.025496,0,15635,57.579,0,0,0,0,0.009867,0
15464,54.3,19.133,0,-0.02522,0,15635,57.579,0,0,0,0,0.0099552,0
15464,54.3,19.133,0,-0.02522,0,15635,57.579,0,0,0,0,0.0099552,0
15464,54.3,19.133,0,-0.02522,0,15635,57.579,0,0,0,0,0.0099552,0
15464,54.3,19.133,0,-0.02522,0,15635,57.579,0,0,0,0,0.0099552,0
15464,54.3,19.133,0,-0.02522,0,15635,57.579,0,0,0,0,0.0099552,0
15464,54.3,19.133,0,-0.02522,0,15635,57.579,0,0,0,0,0.0099552,0
15464,54.3,19.133,0,-0.02522,0,15635,57.579,0,0,0,0,0.0099552,0
15464,54.3,19.133,0,-0.02522,0,15635,57.579,0,0,0,0,0.0099552,0
15464,54.3,19.133,0,-0.02522,0,15635,57.579,0,0,0,0,0.0099552,0
15464,54.3,19.133,0,-0.02522,0,15635,57.579,0,0,0,0,0.0099552,0
15464,54.3,19.133,0,-0.02522,0,15635,57.579,0,0,0,0,0.0099552,0
15464,54.3,19.133,0,-0.02522,0,15635,57.579,0,0,0,0,0.0099552,0
15464,54.3,19.133,0,-0.02522,0,15635,57.579,0,0,0,0,0.0099552,0
15467,54.3,19.128,0,-0.024588,0,15635,57.579,0,0,0,0,0.010159,0
15467,54.3,19.128,0,-0.024588,0,15635,57.579,0,0,0,0,0.010159,0
15468,54.3,19.127,0,-0.024448,0,15635,57.579,0,0,0,0,0.010206,0
15468,54.3,19.127,0,-0.024448,0,15635,57.579,0,0,0,0,0.010206,0
15468,54.3,19.127,0,-0.024448,0,15635,57.579,0,0,0,0,0.010206,0
15468,54.3,19.127,0,-0.024448,0,15635,57.579,0,0,0,0,0.010206,0
15468,54.3,19.127,0,-0.024448,0,15635,57.579,0,0,0,0,0.010206,0
15468,54.3,19.127,0,-0.024448,0,15635,57.579,0,0,0,0,0.010206,0
15468,54.3,19.127,0,-0.024448,0,15635,57.579,0,0,0,0,0.010206,0
15468,54.3,19.127,0,-0.024448,0,15635,57.579,0,0,0,0,0.010206,0
15468,54.3,19.127,0,-0.024448,0,15635,57.579,0,0,0,0,0.010206,0
15468,54.3,19.127,0,-0.024448,0,15635,57.579,0,0,0,0,0.010206,0
15468,54.3,19.127,0,-0.024448,0,15635,57.579,0,0,0,0,0.010206,0
15468,54.3,19.127,0,-0.024448,0,15635,57.579,0,0,0,0,0.010206,0
15468,54.3,19.127,0,-0.024448,0,15635,57.579,0,0,0,0,0.010206,0
15468,54.3,19.127,0,-0.024448,0,15635,57.579,0,0,0,0,0.010206,0
15468,54.3,19.127,0,-0.024448,0,15635,57.579,0,0,0,0,0.010206,0
15468,54.3,19.127,0,-0.024448,0,15635,57.579,0,0,0,0,0.010206,0
15469,54.3,19.126,0,-0.024307,0,15635,57.579,0,0,0,0,0.010253,0
15469,54.3,19.126,0,-0.024307,0,15635,57.579,0,0,0,0,0.010253,0
15469,54.3,19.126,0,-0.024307,0,15635,57.579,0,0,0,0,0.010253,0
15469,54.3,19.126,0,-0.024307,0,15635,57.579,0,0,0,0,0.010253,0
15470,54.3,19.125,0,-0.024095,0,15635,57.579,0,0,0,0,0.010324,0
15470,54.3,19.124,0,-0.023952,0,15635,57.579,0,0,0,0,0.010372,0
15470,54.3,19.124,0,-0.023952,0,15635,57.579,0,0,0,0,0.010372,0
15472,54.3,19.122,0,-0.023667,0,15635,57.579,0,0,0,0,0.01047,0
15472,54.3,19.121,0,-0.023597,0,15635,57.579,0,0,0,0,0.010494,0
15472,54.3,19.121,0,-0.023597,0,15635,57.579,0,0,0,0,0.010494,0
15472,54.3,19.121,0,-0.023597,0,15635,57.579,0,0,0,0,0.010494,0
15472,54.3,19.121,0,-0.023597,0,15635,57.579,0,0,0,0,0.010494,0
15472,54.3,19.121,0,-0.023597,0,15635,57.579,0,0,0,0,0.010494,0
15472,54.3,19.121,0,-0.023597,0,15635,57.579,0,0,0,0,0.010494,0
15472,54.3,19.121,0,-0.023597,0,15635,57.579,0,0,0,0,0.010494,0
15472,54.3,19.121,0,-0.023597,0,15635,57.579,0,0,0,0,0.010494,0
15472,54.3,19.121,0,-0.023597,0,15635,57.579,0,0,0,0,0.010494,0
15472,54.3,19.121,0,-0.023597,0,15635,57.579,0,0,0,0,0.010494,0
15472,54.3,19.121,0,-0.023597,0,15635,57.579,0,0,0,0,0.010494,0
15472,54.3,19.121,0,-0.023597,0,15635,57.579,0,0,0,0,0.010494,0
15472,54.3,19.121,0,-0.023597,0,15635,57.579,0,0,0,0,0.010494,0
15472,54.3,19.121,0,-0.023597,0,15635,57.579,0,0,0,0,0.010494,0
15473,54.3,19.121,0,-0.023452,0,15635,57.579,0,0,0,0,0.010544,0
15473,54.3,19.121,0,-0.023452,0,15635,57.579,0,0,0,0,0.010544,0
15473,54.3,19.121,0,-0.023452,0,15635,57.579,0,0,0,0,0.010544,0
15473,54.3,19.121,0,-0.023452,0,15635,57.579,0,0,0,0,0.010544,0
15474,54.3,19.12,0,-0.023381,0,15635,57.579,0,0,0,0,0.010569,0
15474,54.3,19.12,0,-0.023381,0,15635,57.579,0,0,0,0,0.010569,0
15474,54.3,19.12,0,-0.023381,0,15635,57.579,0,0,0,0,0.010569,0
15474,54.3,19.12,0,-0.023381,0,15635,57.579,0,0,0,0,0.010569,0
15476,54.3,19.117,0,-0.022949,0,15635,57.579,0,0,0,0,0.010721,0
15477,54.3,19.116,0,-0.022805,0,15635,57.579,0,0,0,0,0.010773,0
15477,54.3,19.116,0,-0.022805,0,15635,57.579,0,0,0,0,0.010773,0
15477,54.3,19.116,0,-0.022805,0,15635,57.579,0,0,0,0,0.010773,0
15477,54.3,19.116,0,-0.022805,0,15635,57.579,0,0,0,0,0.010773,0
15477,54.3,19.116,0,-0.022805,0,15635,57.579,0,0,0,0,0.010773,0
15477,54.3,19.116,0,-0.022805,0,15635,57.579,0,0,0,0,0.010773,0
15477,54.3,19.116,0,-0.022805,0,15635,57.579,0,0,0,0,0.010773,0
15477,54.3,19.115,0,-0.02266,0,15635,57.579,0,0,0,0,0.010825,0
15477,54.3,19.115,0,-0.02266,0,15635,57.579,0,0,0,0,0.010825,0
15477,54.3,19.115,0,-0.02266,0,15635,57.579,0,0,0,0,0.010825,0
15477,54.3,19.115,0,-0.02266,0,15635,57.579,0,0,0,0,0.010825,0
15477,54.3,19.115,0,-0.02266,0,15635,57.579,0,0,0,0,0.010825,0
15477,54.3,19.115,0,-0.02266,0,15635,57.579,0,0,0,0,0.010825,0
15477,54.3,19.115,0,-0.02266,0,15635,57.579,0,0,0,0,0.010825,0
15477,54.3,19.115,0,-0.02266,0,15635,57.579,0,0,0,0,0.010825,0
15477,54.3,19.115,0,-0.02266,0,15635,57.579,0,0,0,0,0.010825,0
15477,54.3,19.115,0,-0.02266,0,15635,57.579,0,0,0,0,0.010825,0
15477,54.3,19.115,0,-0.02266,0,15635,57.579,0,0,0,0,0.010825,0
15477,54.3,19.115,0,-0.02266,0,15635,57.579,0,0,0,0,0.010825,0
15477,54.3,19.115,0,-0.02266,0,15635,57.579,0,0,0,0,0.010825,0
15477,54.3,19.115,0,-0.02266,0,15635,57.579,0,0,0,0,0.010825,0
15479,54.3,19.114,0,-0.022373,0,15635,57.579,0,0,0,0,0.010931,0
15479,54.3,19.114,0,-0.022373,0,15635,57.579,0,0,0,0,0.010931,0
15480,54.3,19.112,0,-0.022155,0,15635,57.579,0,0,0,0,0.011012,0
15480,54.3,19.112,0,-0.022155,0,15635,57.579,0,0,0,0,0.011012,0
15482,54.3,19.111,0,-0.021865,0,15635,57.579,0,0,0,0,0.011122,0
15482,54.3,19.111,0,-0.021865,0,15635,57.579,0,0,0,0,0.011122,0
15482,54.3,19.111,0,-0.021865,0,15635,57.579,0,0,0,0,0.011122,0
15482,54.3,19.111,0,-0.021865,0,15635,57.579,0,0,0,0,0.011122,0
15482,54.3,19.11,0,-0.021793,0,15635,57.579,0,0,0,0,0.01115,0
15482,54.3,19.11,0,-0.021793,0,15635,57.579,0,0,0,0,0.01115,0
15482,54.3,19.11,0,-0.021793,0,15635,57.579,0,0,0,0,0.01115,0
15482,54.3,19.11,0,-0.021793,0,15635,57.579,0,0,0,0,0.01115,0
15482,54.3,19.11,0,-0.021793,0,15635,57.579,0,0,0,0,0.01115,0
15482,54.3,19.11,0,-0.021793,0,15635,57.579,0,0,0,0,0.01115,0
15482,54.3,19.11,0,-0.021793,0,15635,57.579,0,0,0,0,0.01115,0
15482,54.3,19.11,0,-0.021793,0,15635,57.579,0,0,0,0,0.01115,0
15482,54.3,19.11,0,-0.021793,0,15635,57.579,0,0,0,0,0.01115,0
15482,54.3,19.11,0,-0.021793,0,15635,57.579,0,0,0,0,0.01115,0
15482,54.3,19.11,0,-0.021793,0,15635,57.579,0,0,0,0,0.01115,0
15482,54.3,19.11,0,-0.021793,0,15635,57.579,0,0,0,0,0.01115,0
15483,54.3,19.109,0,-0.021573,0,15635,57.579,0,0,0,0,0.011234,0
15483,54.3,19.108,0,-0.021501,0,15635,57.579,0,0,0,0,0.011263,0
15483,54.3,19.108,0,-0.021501,0,15635,57.579,0,0,0,0,0.011263,0
15483,54.3,19.108,0,-0.021501,0,15635,57.579,0,0,0,0,0.011263,0
15483,54.3,19.108,0,-0.021501,0,15635,57.579,0,0,0,0,0.011263,0
15483,54.3,19.108,0,-0.021501,0,15635,57.579,0,0,0,0,0.011263,0
15483,54.3,19.108,0,-0.021501,0,15635,57.579,0,0,0,0,0.011263,0
15483,54.3,19.108,0,-0.021501,0,15635,57.579,0,0,0,0,0.011263,0
15483,54.3,19.108,0,-0.021501,0,15635,57.579,0,0,0,0,0.011263,0
15483,54.3,19.108,0,-0.021501,0,15635,57.579,0,0,0,0,0.011263,0
15483,54.3,19.108,0,-0.021501,0,15635,57.579,0,0,0,0,0.011263,0
15483,54.3,19.108,0,-0.021501,0,15635,57.579,0,0,0,0,0.011263,0
15483,54.3,19.108,0,-0.021501,0,15635,57.579,0,0,0,0,0.011263,0
15483,54.3,19.108,0,-0.021501,0,15635,57.579,0,0,0,0,0.011263,0
15486,54.3,19.106,0,-0.021057,0,15635,57.579,0,0,0,0,0.011436,0
15486,54.3,19.106,0,-0.021057,0,15635,57.579,0,0,0,0,0.011436,0
15486,54.3,19.106,0,-0.021057,0,15635,57.579,0,0,0,0,0.011436,0
15486,54.3,19.106,0,-0.021057,0,15635,57.579,0,0,0,0,0.011436,0
15486,54.3,19.106,0,-0.021057,0,15635,57.579,0,0,0,0,0.011436,0
15486,54.3,19.106,0,-0.021057,0,15635,57.579,0,0,0,0,0.011436,0
15486,54.3,19.106,0,-0.021057,0,15635,57.579,0,0,0,0,0.011436,0
15486,54.3,19.105,0,-0.020983,0,15635,57.579,0,0,0,0,0.011465,0
15486,54.3,19.105,0,-0.020983,0,15635,57.579,0,0,0,0,0.011465,0
15486,54.3,19.105,0,-0.02091,0,15635,57.579,0,0,0,0,0.011495,0
15486,54.3,19.105,0,-0.02091,0,15635,57.579,0,0,0,0,0.011495,0
15486,54.3,19.105,0,-0.02091,0,15635,57.579,0,0,0,0,0.011495,0
15486,54.3,19.105,0,-0.02091,0,15635,57.579,0,0,0,0,0.011495,0
15489,54.3,19.102,0,-0.020392,0,15635,57.579,0,0,0,0,0.011706,0
15489,54.3,19.102,0,-0.020392,0,15635,57.579,0,0,0,0,0.011706,0
15489,54.3,19.102,0,-0.020392,0,15635,57.579,0,0,0,0,0.011706,0
15489,54.3,19.102,0,-0.020392,0,15635,57.579,0,0,0,0,0.011706,0
15489,54.3,19.102,0,-0.020392,0,15635,57.579,0,0,0,0,0.011706,0
15489,54.3,19.102,0,-0.020392,0,15635,57.579,0,0,0,0,0.011706,0
15489,54.3,19.102,0,-0.020392,0,15635,57.579,0,0,0,0,0.011706,0
15489,54.3,19.102,0,-0.020392,0,15635,57.579,0,0,0,0,0.011706,0
15489,54.3,19.102,0,-0.020392,0,15635,57.579,0,0,0,0,0.011706,0
15489,54.3,19.102,0,-0.020392,0,15635,57.579,0,0,0,0,0.011706,0
15489,54.3,19.102,0,-0.020392,0,15635,57.579,0,0,0,0,0.011706,0
15489,54.3,19.102,0,-0.020392,0,15635,57.579,0,0,0,0,0.011706,0
15489,54.3,19.102,0,-0.020392,0,15635,57.579,0,0,0,0,0.011706,0
15489,54.3,19.102,0,-0.020392,0,15635,57.579,0,0,0,0,0.011706,0
15489,54.3,19.102,0,-0.020392,0,15635,57.579,0,0,0,0,0.011706,0
15489,54.3,19.102,0,-0.020392,0,15635,57.579,0,0,0,0,0.011706,0
15489,54.3,19.102,0,-0.020392,0,15635,57.579,0,0,0,0,0.011706,0
15489,54.3,19.102,0,-0.020392,0,15635,57.579,0,0,0,0,0.011706,0
15491,54.3,19.1,0,-0.020021,0,15635,57.579,0,0,0,0,0.011861,0
15491,54.3,19.1,0,-0.019947,0,15635,57.579,0,0,0,0,0.011893,0
15491,54.3,19.1,0,-0.019947,0,15635,57.579,0,0,0,0,0.011893,0
15491,54.3,19.1,0,-0.019947,0,15635,57.579,0,0,0,0,0.011893,0
15493,54.3,19.098,0,-0.019573,0,15635,57.579,0,0,0,0,0.012053,0
15493,54.3,19.098,0,-0.019573,0,15635,57.579,0,0,0,0,0.012053,0
15494,54.3,19.097,0,-0.019423,0,15635,57.579,0,0,0,0,0.012119,0
15494,54.3,19.097,0,-0.019423,0,15635,57.579,0,0,0,0,0.012119,0
15494,54.3,19.097,0,-0.019423,0,15635,57.579,0,0,0,0,0.012119,0
15494,54.3,19.097,0,-0.019423,0,15635,57.579,0,0,0,0,0.012119,0
15494,54.3,19.097,0,-0.019423,0,15635,57.579,0,0,0,0,0.012119,0
15494,54.3,19.097,0,-0.019423,0,15635,57.579,0,0,0,0,0.012119,0
15494,54.3,19.097,0,-0.019423,0,15635,57.579,0,0,0,0,0.012119,0
15494,54.3,19.097,0,-0.019423,0,15635,57.579,0,0,0,0,0.012119,0
15494,54.3,19.097,0,-0.019423,0,15635,57.579,0,0,0,0,0.012119,0
15494,54.3,19.097,0,-0.019423,0,15635,57.579,0,0,0,0,0.012119,0
15495,54.3,19.096,0,-0.019273,0,15635,57.579,0,0,0,0,0.012185,0
15495,54.3,19.096,0,-0.019273,0,15635,57.579,0,0,0,0,0.012185,0
15495,54.3,19.096,0,-0.019273,0,15635,57.579,0,0,0,0,0.012185,0
15495,54.3,19.096,0,-0.019273,0,15635,57.579,0,0,0,0,0.012185,0
15495,54.3,19.096,0,-0.019273,0,15635,57.579,0,0,0,0,0.012185,0
15495,54.3,19.096,0,-0.019273,0,15635,57.579,0,0,0,0,0.012185,0
15495,54.3,19.096,0,-0.019273,0,15635,57.579,0,0,0,0,0.012185,0
15495,54.3,19.096,0,-0.019273,0,15635,57.579,0,0,0,0,0.012185,0
15495,54.3,19.096,0,-0.019273,0,15635,57.579,0,0,0,0,0.012185,0
15495,54.3,19.096,0,-0.019273,0,15635,57.579,0,0,0,0,0.012185,0
15497,54.3,19.094,0,-0.018898,0,15635,57.579,0,0,0,0,0.012353,0
15498,54.3,19.094,0,-0.018747,0,15635,57.579,0,0,0,0,0.012422,0
15498,54.3,19.094,0,-0.018747,0,15635,57.579,0,0,0,0,0.012422,0
15498,54.3,19.094,0,-0.018747,0,15635,57.579,0,0,0,0,0.012422,0
15498,54.3,19.094,0,-0.018747,0,15635,57.579,0,0,0,0,0.012422,0
15499,54.3,19.092,0,-0.018445,0,15635,57.579,0,0,0,0,0.012562,0
15499,54.3,19.092,0,-0.018445,0,15635,57.579,0,0,0,0,0.012562,0
15499,54.3,19.092,0,-0.018445,0,15635,57.579,0,0,0,0,0.012562,0
15499,54.3,19.092,0,-0.018445,0,15635,57.579,0,0,0,0,0.012562,0
15499,54.3,19.092,0,-0.018445,0,15635,57.579,0,0,0,0,0.012562,0
15499,54.3,19.092,0,-0.018445,0,15635,57.579,0,0,0,0,0.012562,0
15499,54.3,19.092,0,-0.018445,0,15635,57.579,0,0,0,0,0.012562,0
15499,54.3,19.092,0,-0.018445,0,15635,57.579,0,0,0,0,0.012562,0
15499,54.3,19.092,0,-0.018445,0,15635,57.579,0,0,0,0,0.012562,0
15499,54.3,19.092,0,-0.018445,0,15635,57.579,0,0,0,0,0.012562,0
15499,54.3,19.092,0,-0.018445,0,15635,57.579,0,0,0,0,0.012562,0
15499,54.3,19.092,0,-0.018445,0,15635,57.579,0,0,0,0,0.012562,0
15499,54.3,19.092,0,-0.018445,0,15635,57.579,0,0,0,0,0.012562,0
15499,54.3,19.092,0,-0.018445,0,15635,57.579,0,0,0,0,0.012562,0
15499,54.3,19.092,0,-0.018445,0,15635,57.579,0,0,0,0,0.012562,0
15499,54.3,19.092,0,-0.018445,0,15635,57.579,0,0,0,0,0.012562,0
15499,54.3,19.092,0,-0.018445,0,15635,57.579,0,0,0,0,0.012562,0
15499,54.3,19.092,0,-0.018445,0,15635,57.579,0,0,0,0,0.012562,0
15501,54.3,19.09,0,-0.018066,0,15635,57.579,0,0,0,0,0.012741,0
15501,54.3,19.09,0,-0.018066,0,15635,57.579,0,0,0,0,0.012741,0
15501,54.3,19.09,0,-0.018066,0,15635,57.579,0,0,0,0,0.012741,0
15501,54.3,19.09,0,-0.018066,0,15635,57.579,0,0,0,0,0.012741,0
15501,54.3,19.09,0,-0.018066,0,15635,57.579,0,0,0,0,0.012741,0
15503,54.3,19.088,0,-0.017608,0,15635,57.579,0,0,0,0,0.012963,0
15503,54.3,19.088,0,-0.017608,0,15635,57.579,0,0,0,0,0.012963,0
15503,54.3,19.088,0,-0.017608,0,15635,57.579,0,0,0,0,0.012963,0
15503,54.3,19.088,0,-0.017608,0,15635,57.579,0,0,0,0,0.012963,0
15503,54.3,19.088,0,-0.017608,0,15635,57.579,0,0,0,0,0.012963,0
15503,54.3,19.088,0,-0.017608,0,15635,57.579,0,0,0,0,0.012963,0
15503,54.3,19.088,0,-0.017608,0,15635,57.579,0,0,0,0,0.012963,0
15503,54.3,19.088,0,-0.017608,0,15635,57.579,0,0,0,0,0.012963,0
15503,54.3,19.088,0,-0.017608,0,15635,57.579,0,0,0,0,0.012963,0
15503,54.3,19.088,0,-0.017608,0,15635,57.579,0,0,0,0,0.012963,0
15503,54.3,19.088,0,-0.017608,0,15635,57.579,0,0,0,0,0.012963,0
15503,54.3,19.088,0,-0.017608,0,15635,57.579,0,0,0,0,0.012963,0
15503,54.3,19.088,0,-0.017608,0,15635,57.579,0,0,0,0,0.012963,0
15503,54.3,19.088,0,-0.017608,0,15635,57.579,0,0,0,0,0.012963,0
15503,54.3,19.088,0,-0.017608,0,15635,57.579,0,0,0,0,0.012963,0
15505,54.3,19.086,0,-0.017226,0,15635,57.579,0,0,0,0,0.013154,0
15505,54.3,19.086,0,-0.017226,0,15635,57.579,0,0,0,0,0.013154,0
15505,54.3,19.086,0,-0.017226,0,15635,57.579,0,0,0,0,0.013154,0
15507,54.3,19.085,0,-0.016921,0,15635,57.579,0,0,0,0,0.01331,0
15507,54.3,19.085,0,-0.016921,0,15635,57.579,0,0,0,0,0.01331,0
15507,54.3,19.085,0,-0.016921,0,15635,57.579,0,0,0,0,0.01331,0
15507,54.3,19.085,0,-0.016921,0,15635,57.579,0,0,0,0,0.01331,0
15507,54.3,19.085,0,-0.016921,0,15635,57.579,0,0,0,0,0.01331,0
15507,54.3,19.085,0,-0.016921,0,15635,57.579,0,0,0,0,0.01331,0
15507,54.3,19.085,0,-0.016921,0,15635,57.579,0,0,0,0,0.01331,0
15507,54.3,19.085,0,-0.016921,0,15635,57.579,0,0,0,0,0.01331,0
15507,54.3,19.085,0,-0.016921,0,15635,57.579,0,0,0,0,0.01331,0
15507,54.3,19.085,0,-0.016921,0,15635,57.579,0,0,0,0,0.01331,0
15508,54.3,19.084,0,-0.016765,0,15635,57.579,0,0,0,0,0.01339,0
15508,54.3,19.084,0,-0.016765,0,15635,57.579,0,0,0,0,0.01339,0
15508,54.3,19.084,0,-0.016765,0,15635,57.579,0,0,0,0,0.01339,0
15508,54.3,19.084,0,-0.016765,0,15635,57.579,0,0,0,0,0.01339,0
15508,54.3,19.084,0,-0.016765,0,15635,57.579,0,0,0,0,0.01339,0
15508,54.3,19.084,0,-0.016765,0,15635,57.579,0,0,0,0,0.01339,0
15508,54.3,19.084,0,-0.016765,0,15635,57.579,0,0,0,0,0.01339,0
15508,54.3,19.084,0,-0.016765,0,15635,57.579,0,0,0,0,0.01339,0
15508,54.3,19.084,0,-0.016765,0,15635,57.579,0,0,0,0,0.01339,0
15508,54.3,19.084,0,-0.016765,0,15635,57.579,0,0,0,0,0.01339,0
15508,54.3,19.084,0,-0.016765,0,15635,57.579,0,0,0,0,0.01339,0
15509,54.3,19.083,0,-0.01638,0,15635,57.579,0,0,0,0,0.013594,0
15511,54.3,19.082,0,-0.01615,0,15635,57.579,0,0,0,0,0.013719,0
15511,54.3,19.082,0,-0.01615,0,15635,57.579,0,0,0,0,0.013719,0
15511,54.3,19.081,0,-0.015993,0,15635,57.579,0,0,0,0,0.013804,0
15511,54.3,19.081,0,-0.015993,0,15635,57.579,0,0,0,0,0.013804,0
15511,54.3,19.081,0,-0.015993,0,15635,57.579,0,0,0,0,0.013804,0
15511,54.3,19.081,0,-0.015993,0,15635,57.579,0,0,0,0,0.013804,0
15511,54.3,19.081,0,-0.015993,0,15635,57.579,0,0,0,0,0.013804,0
15511,54.3,19.081,0,-0.015993,0,15635,57.579,0,0,0,0,0.013804,0
15511,54.3,19.081,0,-0.015993,0,15635,57.579,0,0,0,0,0.013804,0
15511,54.3,19.081,0,-0.015993,0,15635,57.579,0,0,0,0,0.013804,0
15511,54.3,19.081,0,-0.015993,0,15635,57.579,0,0,0,0,0.013804,0
15511,54.3,19.081,0,-0.015993,0,15635,57.579,0,0,0,0,0.013804,0
15511,54.3,19.081,0,-0.015993,0,15635,57.579,0,0,0,0,0.013804,0
15512,54.3,19.08,0,-0.015838,0,15635,57.579,0,0,0,0,0.01389,0
15512,54.3,19.08,0,-0.015838,0,15635,57.579,0,0,0,0,0.01389,0
15512,54.3,19.08,0,-0.015838,0,15635,57.579,0,0,0,0,0.01389,0
15512,54.3,19.08,0,-0.015838,0,15635,57.579,0,0,0,0,0.01389,0
15512,54.3,19.08,0,-0.015838,0,15635,57.579,0,0,0,0,0.01389,0
15512,54.3,19.08,0,-0.015838,0,15635,57.579,0,0,0,0,0.01389,0
15512,54.3,19.08,0,-0.015838,0,15635,57.579,0,0,0,0,0.01389,0
15512,54.3,19.08,0,-0.015761,0,15635,57.579,0,0,0,0,0.013933,0
15512,54.3,19.08,0,-0.015761,0,15635,57.579,0,0,0,0,0.013933,0
15512,54.3,19.08,0,-0.015761,0,15635,57.579,0,0,0,0,0.013933,0
15512,54.3,19.08,0,-0.015761,0,15635,57.579,0,0,0,0,0.013933,0
15513,54.3,19.08,0,-0.015685,0,15635,57.579,0,0,0,0,0.013976,0
15513,54.3,19.08,0,-0.015685,0,15635,57.579,0,0,0,0,0.013976,0
15513,54.3,19.08,0,-0.015685,0,15635,57.579,0,0,0,0,0.013976,0
15516,54.3,19.078,0,-0.01514,0,15635,57.579,0,0,0,0,0.014289,0
15516,54.3,19.078,0,-0.01514,0,15635,57.579,0,0,0,0,0.014289,0
15516,54.3,19.078,0,-0.01514,0,15635,57.579,0,0,0,0,0.014289,0
15516,54.3,19.078,0,-0.01514,0,15635,57.579,0,0,0,0,0.014289,0
15516,54.3,19.078,0,-0.01514,0,15635,57.579,0,0,0,0,0.014289,0
15516,54.3,19.078,0,-0.01514,0,15635,57.579,0,0,0,0,0.014289,0
15516,54.3,19.078,0,-0.01514,0,15635,57.579,0,0,0,0,0.014289,0
15516,54.3,19.078,0,-0.01514,0,15635,57.579,0,0,0,0,0.014289,0
15516,54.3,19.078,0,-0.01514,0,15635,57.579,0,0,0,0,0.014289,0
15516,54.3,19.078,0,-0.01514,0,15635,57.579,0,0,0,0,0.014289,0
15516,54.3,19.078,0,-0.01514,0,15635,57.579,0,0,0,0,0.014289,0
15516,54.3,19.078,0,-0.01514,0,15635,57.579,0,0,0,0,0.014289,0
15516,54.3,19.078,0,-0.01514,0,15635,57.579,0,0,0,0,0.014289,0
15516,54.3,19.078,0,-0.01514,0,15635,57.579,0,0,0,0,0.014289,0
15516,54.3,19.078,0,-0.01514,0,15635,57.579,0,0,0,0,0.014289,0
15516,54.3,19.078,0,-0.01514,0,15635,57.579,0,0,0,0,0.014289,0
15516,54.3,19.078,0,-0.01514,0,15635,57.579,0,0,0,0,0.014289,0
15516,54.3,19.078,0,-0.01514,0,15635,57.579,0,0,0,0,0.014289,0
15516,54.3,19.078,0,-0.01514,0,15635,57.579,0,0,0,0,0.014289,0
15516,54.3,19.078,0,-0.01514,0,15635,57.579,0,0,0,0,0.014289,0
15518,54.3,19.076,0,-0.01467,0,15635,57.579,0,0,0,0,0.014569,0
15518,54.3,19.076,0,-0.01467,0,15635,57.579,0,0,0,0,0.014569,0
15518,54.3,19.076,0,-0.01467,0,15635,57.579,0,0,0,0,0.014569,0
15518,54.3,19.076,0,-0.01467,0,15635,57.579,0,0,0,0,0.014569,0
15518,54.3,19.076,0,-0.01467,0,15635,57.579,0,0,0,0,0.014569,0
15518,54.3,19.076,0,-0.01467,0,15635,57.579,0,0,0,0,0.014569,0
15521,54.3,19.073,0,-0.014045,0,15635,57.579,0,0,0,0,0.014959,0
15521,54.3,19.073,0,-0.014045,0,15635,57.579,0,0,0,0,0.014959,0
15521,54.3,19.073,0,-0.014045,0,15635,57.579,0,0,0,0,0.014959,0
15521,54.3,19.073,0,-0.014045,0,15635,57.579,0,0,0,0,0.014959,0
15521,54.3,19.073,0,-0.014045,0,15635,57.579,0,0,0,0,0.014959,0
15521,54.3,19.073,0,-0.014045,0,15635,57.579,0,0,0,0,0.014959,0
15521,54.3,19.073,0,-0.014045,0,15635,57.579,0,0,0,0,0.014959,0
15521,54.3,19.073,0,-0.014045,0,15635,57.579,0,0,0,0,0.014959,0
15521,54.3,19.073,0,-0.014045,0,15635,57.579,0,0,0,0,0.014959,0
15521,54.3,19.073,0,-0.014045,0,15635,57.579,0,0,0,0,0.014959,0
15521,54.3,19.073,0,-0.014045,0,15635,57.579,0,0,0,0,0.014959,0
15521,54.3,19.073,0,-0.014045,0,15635,57.579,0,0,0,0,0.014959,0
15521,54.3,19.073,0,-0.014045,0,15635,57.579,0,0,0,0,0.014959,0
15521,54.3,19.073,0,-0.014045,0,15635,57.579,0,0,0,0,0.014959,0
15522,54.3,19.072,0,-0.01373,0,15635,57.579,0,0,0,0,0.015161,0
15522,54.3,19.072,0,-0.01373,0,15635,57.579,0,0,0,0,0.015161,0
15523,54.3,19.072,0,-0.013652,0,15635,57.579,0,0,0,0,0.015213,0
15523,54.3,19.072,0,-0.013652,0,15635,57.579,0,0,0,0,0.015213,0
15523,54.3,19.072,0,-0.013652,0,15635,57.579,0,0,0,0,0.015213,0
15523,54.3,19.072,0,-0.013652,0,15635,57.579,0,0,0,0,0.015213,0
15523,54.3,19.072,0,-0.013652,0,15635,57.579,0,0,0,0,0.015213,0
15523,54.3,19.072,0,-0.013652,0,15635,57.579,0,0,0,0,0.015213,0
15523,54.3,19.072,0,-0.013652,0,15635,57.579,0,0,0,0,0.015213,0
15524,54.3,19.071,0,-0.013336,0,15635,57.579,0,0,0,0,0.015423,0
15524,54.3,19.071,0,-0.013336,0,15635,57.579,0,0,0,0,0.015423,0
15525,54.3,19.07,0,-0.013179,0,15635,57.579,0,0,0,0,0.01553,0
15525,54.3,19.07,0,-0.013179,0,15635,57.579,0,0,0,0,0.01553,0
15525,54.3,19.07,0,-0.013179,0,15635,57.579,0,0,0,0,0.01553,0
15525,54.3,19.07,0,-0.013179,0,15635,57.579,0,0,0,0,0.01553,0
15525,54.3,19.07,0,-0.013179,0,15635,57.579,0,0,0,0,0.01553,0
15526,54.3,19.07,0,-0.012941,0,15635,57.579,0,0,0,0,0.015693,0
15526,54.3,19.07,0,-0.012941,0,15635,57.579,0,0,0,0,0.015693,0
15526,54.3,19.07,0,-0.012941,0,15635,57.579,0,0,0,0,0.015693,0
15526,54.3,19.07,0,-0.012941,0,15635,57.579,0,0,0,0,0.015693,0
15526,54.3,19.07,0,-0.012941,0,15635,57.579,0,0,0,0,0.015693,0
15526,54.3,19.07,0,-0.012941,0,15635,57.579,0,0,0,0,0.015693,0
15526,54.3,19.07,0,-0.012941,0,15635,57.579,0,0,0,0,0.015693,0
15526,54.3,19.07,0,-0.012941,0,15635,57.579,0,0,0,0,0.015693,0
15526,54.3,19.07,0,-0.012941,0,15635,57.579,0,0,0,0,0.015693,0
15526,54.3,19.07,0,-0.012941,0,15635,57.579,0,0,0,0,0.015693,0
15526,54.3,19.07,0,-0.012941,0,15635,57.579,0,0,0,0,0.015693,0
15527,54.3,19.069,0,-0.012704,0,15635,57.579,0,0,0,0,0.01586,0
15527,54.3,19.069,0,-0.012704,0,15635,57.579,0,0,0,0,0.01586,0
15528,54.3,19.068,0,-0.012466,0,15635,57.579,0,0,0,0,0.016031,0
15528,54.3,19.068,0,-0.012466,0,15635,57.579,0,0,0,0,0.016031,0
15529,54.3,19.068,0,-0.012307,0,15635,57.579,0,0,0,0,0.016147,0
15529,54.3,19.068,0,-0.012307,0,15635,57.579,0,0,0,0,0.016147,0
15529,54.3,19.068,0,-0.012307,0,15635,57.579,0,0,0,0,0.016147,0
15529,54.3,19.068,0,-0.012307,0,15635,57.579,0,0,0,0,0.016147,0
15529,54.3,19.068,0,-0.012307,0,15635,57.579,0,0,0,0,0.016147,0
15529,54.3,19.068,0,-0.012307,0,15635,57.579,0,0,0,0,0.016147,0
15529,54.3,19.068,0,-0.012307,0,15635,57.579,0,0,0,0,0.016147,0
15529,54.3,19.068,0,-0.012307,0,15635,57.579,0,0,0,0,0.016147,0
15529,54.3,19.068,0,-0.012307,0,15635,57.579,0,0,0,0,0.016147,0
15529,54.3,19.068,0,-0.012307,0,15635,57.579,0,0,0,0,0.016147,0
15529,54.3,19.068,0,-0.012307,0,15635,57.579,0,0,0,0,0.016147,0
15529,54.3,19.068,0,-0.012307,0,15635,57.579,0,0,0,0,0.016147,0
15529,54.3,19.068,0,-0.012307,0,15635,57.579,0,0,0,0,0.016147,0
15529,54.3,19.068,0,-0.012307,0,15635,57.579,0,0,0,0,0.016147,0
15529,54.3,19.068,0,-0.012307,0,15635,57.579,0,0,0,0,0.016147,0
15529,54.3,19.068,0,-0.012307,0,15635,57.579,0,0,0,0,0.016147,0
15529,54.3,19.068,0,-0.012307,0,15635,57.579,0,0,0,0,0.016147,0
15529,54.3,19.068,0,-0.012307,0,15635,57.579,0,0,0,0,0.016147,0
15529,54.3,19.068,0,-0.012307,0,15635,57.579,0,0,0,0,0.016147,0
15529,54.3,19.068,0,-0.012307,0,15635,57.579,0,0,0,0,0.016147,0
15529,54.3,19.068,0,-0.012307,0,15635,57.579,0,0,0,0,0.016147,0
15529,54.3,19.068,0,-0.012307,0,15635,57.579,0,0,0,0,0.016147,0
15532,54.3,19.066,0,-0.011831,0,15635,57.579,0,0,0,0,0.016504,0
15532,54.3,19.066,0,-0.011831,0,15635,57.579,0,0,0,0,0.016504,0
15533,54.3,19.066,0,-0.011593,0,15635,57.579,0,0,0,0,0.016689,0
15533,54.3,19.066,0,-0.011593,0,15635,57.579,0,0,0,0,0.016689,0
15533,54.3,19.066,0,-0.011593,0,15635,57.579,0,0,0,0,0.016689,0
15533,54.3,19.065,0,-0.011432,0,15635,57.579,0,0,0,0,0.016814,0
15535,54.3,19.064,0,-0.011114,0,15635,57.579,0,0,0,0,0.017071,0
15535,54.3,19.064,0,-0.011114,0,15635,57.579,0,0,0,0,0.017071,0
15535,54.3,19.064,0,-0.011114,0,15635,57.579,0,0,0,0,0.017071,0
15535,54.3,19.064,0,-0.011114,0,15635,57.579,0,0,0,0,0.017071,0
15535,54.3,19.064,0,-0.011034,0,15635,57.579,0,0,0,0,0.017136,0
15535,54.3,19.064,0,-0.011034,0,15635,57.579,0,0,0,0,0.017136,0
15535,54.3,19.064,0,-0.011034,0,15635,57.579,0,0,0,0,0.017136,0
15535,54.3,19.064,0,-0.011034,0,15635,57.579,0,0,0,0,0.017136,0
15535,54.3,19.064,0,-0.011034,0,15635,57.579,0,0,0,0,0.017136,0
15535,54.3,19.064,0,-0.011034,0,15635,57.579,0,0,0,0,0.017136,0
15535,54.3,19.064,0,-0.011034,0,15635,57.579,0,0,0,0,0.017136,0
15535,54.3,19.064,0,-0.011034,0,15635,57.579,0,0,0,0,0.017136,0
15535,54.3,19.064,0,-0.011034,0,15635,57.579,0,0,0,0,0.017136,0
15535,54.3,19.064,0,-0.011034,0,15635,57.579,0,0,0,0,0.017136,0
15535,54.3,19.064,0,-0.011034,0,15635,57.579,0,0,0,0,0.017136,0
15535,54.3,19.064,0,-0.011034,0,15635,57.579,0,0,0,0,0.017136,0
15536,54.3,19.064,0,-0.010874,0,15635,57.579,0,0,0,0,0.017269,0
15536,54.3,19.063,0,-0.010794,0,15635,57.579,0,0,0,0,0.017335,0
15536,54.3,19.063,0,-0.010794,0,15635,57.579,0,0,0,0,0.017335,0
15536,54.3,19.063,0,-0.010794,0,15635,57.579,0,0,0,0,0.017335,0
15536,54.3,19.063,0,-0.010794,0,15635,57.579,0,0,0,0,0.017335,0
15536,54.3,19.063,0,-0.010794,0,15635,57.579,0,0,0,0,0.017335,0
15536,54.3,19.063,0,-0.010794,0,15635,57.579,0,0,0,0,0.017335,0
15536,54.3,19.063,0,-0.010794,0,15635,57.579,0,0,0,0,0.017335,0
15536,54.3,19.063,0,-0.010794,0,15635,57.579,0,0,0,0,0.017335,0
15536,54.3,19.063,0,-0.010794,0,15635,57.579,0,0,0,0,0.017335,0
15536,54.3,19.063,0,-0.010794,0,15635,57.579,0,0,0,0,0.017335,0
15536,54.3,19.063,0,-0.010794,0,15635,57.579,0,0,0,0,0.017335,0
15536,54.3,19.063,0,-0.010794,0,15635,57.579,0,0,0,0,0.017335,0
15536,54.3,19.063,0,-0.010794,0,15635,57.579,0,0,0,0,0.017335,0
15536,54.3,19.063,0,-0.010794,0,15635,57.579,0,0,0,0,0.017335,0
15536,54.3,19.063,0,-0.010794,0,15635,57.579,0,0,0,0,0.017335,0
15536,54.3,19.063,0,-0.010794,0,15635,57.579,0,0,0,0,0.017335,0
15536,54.3,19.063,0,-0.010794,0,15635,57.579,0,0,0,0,0.017335,0
15536,54.3,19.063,0,-0.010794,0,15635,57.579,0,0,0,0,0.017335,0
15536,54.3,19.063,0,-0.010794,0,15635,57.579,0,0,0,0,0.017335,0
15536,54.3,19.063,0,-0.010794,0,15635,57.579,0,0,0,0,0.017335,0
15536,54.3,19.063,0,-0.010794,0,15635,57.579,0,0,0,0,0.017335,0
15536,54.3,19.063,0,-0.010794,0,15635,57.579,0,0,0,0,0.017335,0
15536,54.3,19.063,0,-0.010794,0,15635,57.579,0,0,0,0,0.017335,0
15540,54.3,19.061,0,-0.0099899,0,15635,57.579,0,0,0,0,0.018034,0
15540,54.3,19.061,0,-0.0099899,0,15635,57.579,0,0,0,0,0.018034,0
15540,54.3,19.061,0,-0.0099899,0,15635,57.579,0,0,0,0,0.018034,0
15541,54.3,19.061,0,-0.0099096,0,15635,57.579,0,0,0,0,0.018107,0
15541,54.3,19.061,0,-0.0099096,0,15635,57.579,0,0,0,0,0.018107,0
15543,54.3,19.06,0,-0.0093471,0,15635,57.579,0,0,0,0,0.018635,0
15544,54.3,19.059,0,-0.0091877,0,15635,57.579,0,0,0,0,0.018791,0
15544,54.3,19.059,0,-0.0091877,0,15635,57.579,0,0,0,0,0.018791,0
15544,54.3,19.059,0,-0.0091877,0,15635,57.579,0,0,0,0,0.018791,0
15544,54.3,19.059,0,-0.0091877,0,15635,57.579,0,0,0,0,0.018791,0
15544,54.3,19.059,0,-0.0091877,0,15635,57.579,0,0,0,0,0.018791,0
15544,54.3,19.059,0,-0.0091877,0,15635,57.579,0,0,0,0,0.018791,0
15544,54.3,19.059,0,-0.0091877,0,15635,57.579,0,0,0,0,0.018791,0
15544,54.3,19.059,0,-0.0091877,0,15635,57.579,0,0,0,0,0.018791,0
15544,54.3,19.059,0,-0.0091877,0,15635,57.579,0,0,0,0,0.018791,0
15544,54.3,19.059,0,-0.0091877,0,15635,57.579,0,0,0,0,0.018791,0
15544,54.3,19.059,0,-0.0091877,0,15635,57.579,0,0,0,0,0.018791,0
15544,54.3,19.059,0,-0.0091877,0,15635,57.579,0,0,0,0,0.018791,0
15544,54.3,19.059,0,-0.0091877,0,15635,57.579,0,0,0,0,0.018791,0
15544,54.3,19.059,0,-0.0091877,0,15635,57.579,0,0,0,0,0.018791,0
15544,54.3,19.059,0,-0.0091877,0,15635,57.579,0,0,0,0,0.018791,0
15544,54.3,19.059,0,-0.0091877,0,15635,57.579,0,0,0,0,0.018791,0
15544,54.3,19.059,0,-0.0091877,0,15635,57.579,0,0,0,0,0.018791,0
15544,54.3,19.059,0,-0.0091877,0,15635,57.579,0,0,0,0,0.018791,0
15544,54.3,19.059,0,-0.0091877,0,15635,57.579,0,0,0,0,0.018791,0
15545,54.3,19.059,0,-0.0090243,0,15635,57.579,0,0,0,0,0.01895,0
15545,54.3,19.059,0,-0.0090243,0,15635,57.579,0,0,0,0,0.01895,0
15545,54.3,19.059,0,-0.0089432,0,15635,57.579,0,0,0,0,0.019031,0
15545,54.3,19.059,0,-0.0089432,0,15635,57.579,0,0,0,0,0.019031,0
15547,54.3,19.058,0,-0.0086201,0,15635,57.579,0,0,0,0,0.01936,0
15548,54.3,19.057,0,-0.008295,0,15635,57.579,0,0,0,0,0.019701,0
15549,54.3,19.057,0,-0.0082147,0,15635,57.579,0,0,0,0,0.019788,0
15549,54.3,19.057,0,-0.0082147,0,15635,57.579,0,0,0,0,0.019788,0
15549,54.3,19.057,0,-0.0082147,0,15635,57.579,0,0,0,0,0.019788,0
15549,54.3,19.057,0,-0.0082147,0,15635,57.579,0,0,0,0,0.019788,0
15549,54.3,19.057,0,-0.0082147,0,15635,57.579,0,0,0,0,0.019788,0
15549,54.3,19.057,0,-0.0082147,0,15635,57.579,0,0,0,0,0.019788,0
15549,54.3,19.057,0,-0.0082147,0,15635,57.579,0,0,0,0,0.019788,0
15549,54.3,19.057,0,-0.0082147,0,15635,57.579,0,0,0,0,0.019788,0
15549,54.3,19.057,0,-0.0082147,0,15635,57.579,0,0,0,0,0.019788,0
15549,54.3,19.057,0,-0.0082147,0,15635,57.579,0,0,0,0,0.019788,0
15549,54.3,19.057,0,-0.0082147,0,15635,57.579,0,0,0,0,0.019788,0
15549,54.3,19.057,0,-0.0082147,0,15635,57.579,0,0,0,0,0.019788,0
15549,54.3,19.057,0,-0.0080525,0,15635,57.579,0,0,0,0,0.019965,0
15549,54.3,19.057,0,-0.0080525,0,15635,57.579,0,0,0,0,0.019965,0
15549,54.3,19.057,0,-0.0080525,0,15635,57.579,0,0,0,0,0.019965,0
15550,54.3,19.057,0,-0.0078892,0,15635,57.579,0,0,0,0,0.020144,0
15550,54.3,19.057,0,-0.0078892,0,15635,57.579,0,0,0,0,0.020144,0
15551,54.3,19.056,0,-0.0078081,0,15635,57.579,0,0,0,0,0.020235,0
15551,54.3,19.056,0,-0.0078081,0,15635,57.579,0,0,0,0,0.020235,0
15551,54.3,19.056,0,-0.0078081,0,15635,57.579,0,0,0,0,0.020235,0
15551,54.3,19.056,0,-0.0078081,0,15635,57.579,0,0,0,0,0.020235,0
15551,54.3,19.056,0,-0.0078081,0,15635,57.579,0,0,0,0,0.020235,0
15551,54.3,19.056,0,-0.0078081,0,15635,57.579,0,0,0,0,0.020235,0
15551,54.3,19.056,0,-0.0078081,0,15635,57.579,0,0,0,0,0.020235,0
15551,54.3,19.056,0,-0.0078081,0,15635,57.579,0,0,0,0,0.020235,0
15551,54.3,19.056,0,-0.0078081,0,15635,57.579,0,0,0,0,0.020235,0
15551,54.3,19.056,0,-0.0078081,0,15635,57.579,0,0,0,0,0.020235,0
15551,54.3,19.056,0,-0.0078081,0,15635,57.579,0,0,0,0,0.020235,0
15551,54.3,19.056,0,-0.0078081,0,15635,57.579,0,0,0,0,0.020235,0
15551,54.3,19.056,0,-0.0078081,0,15635,57.579,0,0,0,0,0.020235,0
15551,54.3,19.056,0,-0.0078081,0,15635,57.579,0,0,0,0,0.020235,0
15551,54.3,19.056,0,-0.0078081,0,15635,57.579,0,0,0,0,0.020235,0
15551,54.3,19.056,0,-0.0078081,0,15635,57.579,0,0,0,0,0.020235,0
15554,54.3,19.055,0,-0.0069995,0,15635,57.579,0,0,0,0,0.021193,0
15555,54.3,19.055,0,-0.0069172,0,15635,57.579,0,0,0,0,0.021294,0
15555,54.3,19.055,0,-0.0069172,0,15635,57.579,0,0,0,0,0.021294,0
15555,54.3,19.055,0,-0.0069172,0,15635,57.579,0,0,0,0,0.021294,0
15555,54.3,19.055,0,-0.0069172,0,15635,57.579,0,0,0,0,0.021294,0
15555,54.3,19.055,0,-0.0069172,0,15635,57.579,0,0,0,0,0.021294,0
15555,54.3,19.055,0,-0.0069172,0,15635,57.579,0,0,0,0,0.021294,0
15555,54.3,19.055,0,-0.0069172,0,15635,57.579,0,0,0,0,0.021294,0
15555,54.3,19.055,0,-0.0069172,0,15635,57.579,0,0,0,0,0.021294,0
15555,54.3,19.055,0,-0.0069172,0,15635,57.579,0,0,0,0,0.021294,0
15555,54.3,19.055,0,-0.0069172,0,15635,57.579,0,0,0,0,0.021294,0
15555,54.3,19.055,0,-0.0069172,0,15635,57.579,0,0,0,0,0.021294,0
15555,54.3,19.055,0,-0.0069172,0,15635,57.579,0,0,0,0,0.021294,0
15555,54.3,19.055,0,-0.0069172,0,15635,57.579,0,0,0,0,0.021294,0
15555,54.3,19.055,0,-0.0069172,0,15635,57.579,0,0,0,0,0.021294,0
15557,54.3,19.054,0,-0.0065114,0,15635,57.579,0,0,0,0,0.021813,0
15557,54.3,19.054,0,-0.0065114,0,15635,57.579,0,0,0,0,0.021813,0
15557,54.3,19.054,0,-0.0063462,0,15635,57.579,0,0,0,0,0.022027,0
15558,54.3,19.054,0,-0.0062642,0,15635,57.579,0,0,0,0,0.022136,0
15558,54.3,19.054,0,-0.0062642,0,15635,57.579,0,0,0,0,0.022136,0
15559,54.3,19.053,0,-0.0061013,0,15635,57.579,0,0,0,0,0.022357,0
15559,54.3,19.053,0,-0.0061013,0,15635,57.579,0,0,0,0,0.022357,0
15559,54.3,19.053,0,-0.0061013,0,15635,57.579,0,0,0,0,0.022357,0
15559,54.3,19.053,0,-0.0060205,0,15635,57.579,0,0,0,0,0.022469,0
15559,54.3,19.053,0,-0.0060205,0,15635,57.579,0,0,0,0,0.022469,0
15559,54.3,19.053,0,-0.0060205,0,15635,57.579,0,0,0,0,0.022469,0
15559,54.3,19.053,0,-0.0060205,0,15635,57.579,0,0,0,0,0.022469,0
15559,54.3,19.053,0,-0.0060205,0,15635,57.579,0,0,0,0,0.022469,0
15559,54.3,19.053,0,-0.0060205,0,15635,57.579,0,0,0,0,0.022469,0
15559,54.3,19.053,0,-0.0060205,0,15635,57.579,0,0,0,0,0.022469,0
15559,54.3,19.053,0,-0.0059401,0,15635,57.579,0,0,0,0,0.022583,0
15559,54.3,19.053,0,-0.0059401,0,15635,57.579,0,0,0,0,0.022583,0
15559,54.3,19.053,0,-0.0059401,0,15635,57.579,0,0,0,0,0.022583,0
15559,54.3,19.053,0,-0.0059401,0,15635,57.579,0,0,0,0,0.022583,0
15559,54.3,19.053,0,-0.0059401,0,15635,57.579,0,0,0,0,0.022583,0
15560,54.3,19.053,0,-0.0057747,0,15635,57.579,0,0,0,0,0.022813,0
15561,54.3,19.053,0,-0.0056926,0,15635,57.579,0,0,0,0,0.022929,0
15561,54.3,19.053,0,-0.0056926,0,15635,57.579,0,0,0,0,0.022929,0
15562,54.3,19.053,0,-0.0054487,0,15635,57.579,0,0,0,0,0.023287,0
15562,54.3,19.053,0,-0.0054487,0,15635,57.579,0,0,0,0,0.023287,0
15562,54.3,19.053,0,-0.0054487,0,15635,57.579,0,0,0,0,0.023287,0
15562,54.3,19.053,0,-0.0054487,0,15635,57.579,0,0,0,0,0.023287,0
15562,54.3,19.053,0,-0.0054487,0,15635,57.579,0,0,0,0,0.023287,0
15562,54.3,19.053,0,-0.0054487,0,15635,57.579,0,0,0,0,0.023287,0
15562,54.3,19.053,0,-0.0054487,0,15635,57.579,0,0,0,0,0.023287,0
15562,54.3,19.053,0,-0.0054487,0,15635,57.579,0,0,0,0,0.023287,0
15562,54.3,19.053,0,-0.0054487,0,15635,57.579,0,0,0,0,0.023287,0
15562,54.3,19.053,0,-0.0054487,0,15635,57.579,0,0,0,0,0.023287,0
15563,54.3,19.052,0,-0.0052027,0,15635,57.579,0,0,0,0,0.023656,0
15563,54.3,19.052,0,-0.0052027,0,15635,57.579,0,0,0,0,0.023656,0
15563,54.3,19.052,0,-0.0052027,0,15635,57.579,0,0,0,0,0.023656,0
15563,54.3,19.052,0,-0.0052027,0,15635,57.579,0,0,0,0,0.023656,0
15563,54.3,19.052,0,-0.0052027,0,15635,57.579,0,0,0,0,0.023656,0
15563,54.3,19.052,0,-0.0052027,0,15635,57.579,0,0,0,0,0.023656,0
15563,54.3,19.052,0,-0.0052027,0,15635,57.579,0,0,0,0,0.023656,0
15563,54.3,19.052,0,-0.0052027,0,15635,57.579,0,0,0,0,0.023656,0
15563,54.3,19.052,0,-0.0052027,0,15635,57.579,0,0,0,0,0.023656,0
15563,54.3,19.052,0,-0.0052027,0,15635,57.579,0,0,0,0,0.023656,0
15563,54.3,19.052,0,-0.0052027,0,15635,57.579,0,0,0,0,0.023656,0
15565,54.3,19.052,0,-0.0047958,0,15635,57.579,0,0,0,0,0.024298,0
15565,54.3,19.052,0,-0.0047958,0,15635,57.579,0,0,0,0,0.024298,0
15565,54.3,19.052,0,-0.0047958,0,15635,57.579,0,0,0,0,0.024298,0
15566,54.3,19.051,0,-0.0044659,0,15635,57.579,0,0,0,0,0.024836,0
15566,54.3,19.051,0,-0.0044659,0,15635,57.579,0,0,0,0,0.024836,0
15566,54.3,19.051,0,-0.0044659,0,15635,57.579,0,0,0,0,0.024836,0
15567,54.3,19.051,0,-0.0043033,0,15635,57.579,0,0,0,0,0.025115,0
15567,54.3,19.051,0,-0.0043033,0,15635,57.579,0,0,0,0,0.025115,0
15567,54.3,19.051,0,-0.0043033,0,15635,57.579,0,0,0,0,0.025115,0
15567,54.3,19.051,0,-0.0043033,0,15635,57.579,0,0,0,0,0.025115,0
15567,54.3,19.051,0,-0.0043033,0,15635,57.579,0,0,0,0,0.025115,0
15567,54.3,19.051,0,-0.0043033,0,15635,57.579,0,0,0,0,0.025115,0
15567,54.3,19.051,0,-0.0042226,0,15635,57.579,0,0,0,0,0.025257,0
15568,54.3,19.051,0,-0.0041394,0,15635,57.579,0,0,0,0,0.0254,0
15568,54.3,19.051,0,-0.0041394,0,15635,57.579,0,0,0,0,0.0254,0
15568,54.3,19.051,0,-0.0041394,0,15635,57.579,0,0,0,0,0.0254,0
15568,54.3,19.051,0,-0.0041394,0,15635,57.579,0,0,0,0,0.0254,0
15568,54.3,19.051,0,-0.0041394,0,15635,57.579,0,0,0,0,0.0254,0
15568,54.3,19.051,0,-0.0041394,0,15635,57.579,0,0,0,0,0.0254,0
15569,54.3,19.051,0,-0.0038107,0,15635,57.579,0,0,0,0,0.025989,0
15569,54.3,19.051,0,-0.0038107,0,15635,57.579,0,0,0,0,0.025989,0
15569,54.3,19.051,0,-0.0038107,0,15635,57.579,0,0,0,0,0.025989,0
15569,54.3,19.051,0,-0.0038107,0,15635,57.579,0,0,0,0,0.025989,0
15569,54.3,19.051,0,-0.0038107,0,15635,57.579,0,0,0,0,0.025989,0
15569,54.3,19.051,0,-0.0038107,0,15635,57.579,0,0,0,0,0.025989,0
15569,54.3,19.051,0,-0.0038107,0,15635,57.579,0,0,0,0,0.025989,0
15569,54.3,19.051,0,-0.0038107,0,15635,57.579,0,0,0,0,0.025989,0
15569,54.3,19.051,0,-0.0038107,0,15635,57.579,0,0,0,0,0.025989,0
15569,54.3,19.051,0,-0.0038107,0,15635,57.579,0,0,0,0,0.025989,0
15569,54.3,19.051,0,-0.0038107,0,15635,57.579,0,0,0,0,0.025989,0
15569,54.3,19.051,0,-0.0038107,0,15635,57.579,0,0,0,0,0.025989,0
15569,54.3,19.051,0,-0.0038107,0,15635,57.579,0,0,0,0,0.025989,0
15569,54.3,19.051,0,-0.0038107,0,15635,57.579,0,0,0,0,0.025989,0
15569,54.3,19.051,0,-0.0038107,0,15635,57.579,0,0,0,0,0.025989,0
15572,54.3,19.05,0,-0.0032362,0,15635,57.579,0,0,0,0,0.027089,0
15572,54.3,19.05,0,-0.0031549,0,15635,57.579,0,0,0,0,0.027254,0
15572,54.3,19.05,0,-0.0031549,0,15635,57.579,0,0,0,0,0.027254,0
15572,54.3,19.05,0,-0.0031549,0,15635,57.579,0,0,0,0,0.027254,0
15573,54.3,19.05,0,-0.003074,0,15635,57.579,0,0,0,0,0.02742,0
15573,54.3,19.05,0,-0.0029076,0,15635,57.579,0,0,0,0,0.02776,0
15573,54.3,19.05,0,-0.0029076,0,15635,57.579,0,0,0,0,0.02776,0
15573,54.3,19.05,0,-0.0029076,0,15635,57.579,0,0,0,0,0.02776,0
15573,54.3,19.05,0,-0.0029076,0,15635,57.579,0,0,0,0,0.02776,0
15573,54.3,19.05,0,-0.0029076,0,15635,57.579,0,0,0,0,0.02776,0
15573,54.3,19.05,0,-0.0029076,0,15635,57.579,0,0,0,0,0.02776,0
15573,54.3,19.05,0,-0.0029076,0,15635,57.579,0,0,0,0,0.02776,0
15573,54.3,19.05,0,-0.0029076,0,15635,57.579,0,0,0,0,0.02776,0
15574,54.3,19.05,0,-0.002825,0,15635,57.579,0,0,0,0,0.027933,0
15574,54.3,19.05,0,-0.002825,0,15635,57.579,0,0,0,0,0.027933,0
15574,54.3,19.05,0,-0.002825,0,15635,57.579,0,0,0,0,0.027933,0
15574,54.3,19.05,0,-0.002825,0,15635,57.579,0,0,0,0,0.027933,0
15574,54.3,19.05,0,-0.002825,0,15635,57.579,0,0,0,0,0.027933,0
15574,54.3,19.05,0,-0.002825,0,15635,57.579,0,0,0,0,0.027933,0
15574,54.3,19.05,0,-0.002825,0,15635,57.579,0,0,0,0,0.027933,0
15574,54.3,19.05,0,-0.002825,0,15635,57.579,0,0,0,0,0.027933,0
15575,54.3,19.05,0,-0.0026609,0,15635,57.579,0,0,0,0,0.028286,0
15576,54.3,19.05,0,-0.0024178,0,15635,57.579,0,0,0,0,0.028832,0
15576,54.3,19.05,0,-0.0024178,0,15635,57.579,0,0,0,0,0.028832,0
15576,54.3,19.05,0,-0.0024178,0,15635,57.579,0,0,0,0,0.028832,0
15576,54.3,19.05,0,-0.0024178,0,15635,57.579,0,0,0,0,0.028832,0
15576,54.3,19.05,0,-0.0024178,0,15635,57.579,0,0,0,0,0.028832,0
15576,54.3,19.05,0,-0.0024178,0,15635,57.579,0,0,0,0,0.028832,0
15576,54.3,19.05,0,-0.0024178,0,15635,57.579,0,0,0,0,0.028832,0
15576,54.3,19.05,0,-0.0024178,0,15635,57.579,0,0,0,0,0.028832,0
15576,54.3,19.05,0,-0.0024178,0,15635,57.579,0,0,0,0,0.028832,0
15576,54.3,19.05,0,-0.0024178,0,15635,57.579,0,0,0,0,0.028832,0
15576,54.3,19.05,0,-0.0024178,0,15635,57.579,0,0,0,0,0.028832,0
15576,54.3,19.05,0,-0.0024178,0,15635,57.579,0,0,0,0,0.028832,0
15576,54.3,19.05,0,-0.0024178,0,15635,57.579,0,0,0,0,0.028832,0
15576,54.3,19.05,0,-0.0024178,0,15635,57.579,0,0,0,0,0.028832,0
15576,54.3,19.05,0,-0.0024178,0,15635,57.579,0,0,0,0,0.028832,0
15576,54.3,19.05,0,-0.0024178,0,15635,57.579,0,0,0,0,0.028832,0
15578,54.3,19.049,0,-0.001925,0,15635,57.579,0,0,0,0,0.029989,0
15578,54.3,19.049,0,-0.001925,0,15635,57.579,0,0,0,0,0.029989,0
15578,54.3,19.049,0,-0.001925,0,15635,57.579,0,0,0,0,0.029989,0
15578,54.3,19.049,0,-0.001925,0,15635,57.579,0,0,0,0,0.029989,0
15580,54.3,19.049,0,-0.0015137,0,15635,57.579,0,0,0,0,0.031027,0
15580,54.3,19.049,0,-0.0015137,0,15635,57.579,0,0,0,0,0.031027,0
15580,54.3,19.049,0,-0.0015137,0,15635,57.579,0,0,0,0,0.031027,0
15580,54.3,19.049,0,-0.0015137,0,15635,57.579,0,0,0,0,0.031027,0
15580,54.3,19.049,0,-0.0015137,0,15635,57.579,0,0,0,0,0.031027,0
15580,54.3,19.049,0,-0.0015137,0,15635,57.579,0,0,0,0,0.031027,0
15580,54.3,19.049,0,-0.0015137,0,15635,57.579,0,0,0,0,0.031027,0
15580,54.3,19.049,0,-0.0015137,0,15635,57.579,0,0,0,0,0.031027,0
15581,54.3,19.049,0,-0.0011865,0,15635,57.579,0,0,0,0,0.03191,0
15581,54.3,19.049,0,-0.0011865,0,15635,57.579,0,0,0,0,0.03191,0
15581,54.3,19.049,0,-0.0011865,0,15635,57.579,0,0,0,0,0.03191,0
15581,54.3,19.049,0,-0.0011865,0,15635,57.579,0,0,0,0,0.03191,0
15581,54.3,19.049,0,-0.0011865,0,15635,57.579,0,0,0,0,0.03191,0
15581,54.3,19.049,0,-0.0011865,0,15635,57.579,0,0,0,0,0.03191,0
15581,54.3,19.049,0,-0.0011865,0,15635,57.579,0,0,0,0,0.03191,0
15581,54.3,19.049,0,-0.0011865,0,15635,57.579,0,0,0,0,0.03191,0
15581,54.3,19.049,0,-0.0011865,0,15635,57.579,0,0,0,0,0.03191,0
15581,54.3,19.049,0,-0.0011865,0,15635,57.579,0,0,0,0,0.03191,0
15581,54.3,19.049,0,-0.0011865,0,15635,57.579,0,0,0,0,0.03191,0
15583,54.3,19.049,0,-0.00085713,0,15635,57.579,0,0,0,0,0.032845,0
15583,54.3,19.049,0,-0.00085713,0,15635,57.579,0,0,0,0,0.032845,0
15583,54.3,19.049,0,-0.00077575,0,15635,57.579,0,0,0,0,0.033087,0
15585,54.3,19.049,0,-0.00044565,0,15635,57.579,0,0,0,0,0.034094,0
15585,54.3,19.049,0,-0.00044565,0,15635,57.579,0,0,0,0,0.034094,0
15585,54.3,19.049,0,-0.00044565,0,15635,57.579,0,0,0,0,0.034094,0
15585,54.3,19.049,0,-0.00044565,0,15635,57.579,0,0,0,0,0.034094,0
15585,54.3,19.049,0,-0.00044565,0,15635,57.579,0,0,0,0,0.034094,0
15585,54.3,19.049,0,-0.00044565,0,15635,57.579,0,0,0,0,0.034094,0
15585,54.3,19.049,0,-0.00044565,0,15635,57.579,0,0,0,0,0.034094,0
15585,54.3,19.049,0,-0.00044565,0,15635,57.579,0,0,0,0,0.034094,0
15585,54.3,19.049,0,-0.00044565,0,15635,57.579,0.04,0,4,0,0.034162,0
15585,54.3,19.049,0,-0.00044565,0,15635,57.579,0.04,0,4,0,0.034162,0
15585,54.3,19.049,0,-0.00044565,0,15635,57.579,0.04,0,4,0,0.034162,0
15585,54.3,19.049,0,-0.00044565,0,15635,57.579,0.12,7.5998e-06,4,0.00045323,0.034297,0
15585,54.3,19.049,0,-0.00044565,0,15635,57.579,0.12,7.5998e-06,4,0.00045323,0.034297,0
15585,54.3,19.049,0,-0.00044565,0,15635,57.579,0.12,7.5998e-06,4,0.00045323,0.034297,0
15585,54.3,19.049,0,-0.00044565,0,15635,57.579,0.12,7.5998e-06,4,0.00045323,0.034297,0
15585,54.3,19.049,0,-0.00044565,0,15635,57.579,0.12,7.5998e-06,4,0.00045323,0.034297,0
15586,54.3,19.049,0,-0.00020007,0,15635,57.579,0.12,7.5998e-06,4,0.00045323,0.035098,0
15586,54.3,19.049,0,-0.00020007,0,15635,57.579,0.36,0.00023632,4,0.00646,0.03551,0
15586,54.3,19.049,0,-0.00020007,0,15635,57.579,0.44,0.00042226,4,0.009648,0.035646,0
15586,54.3,19.049,0,-0.00020007,0,15635,57.579,0.44,0.00042226,4,0.009648,0.035646,0
15586,54.3,19.049,0,-0.00020007,0,15635,57.579,0.52,0.00068221,4,0.013403,0.035782,0
15586,54.3,19.049,0,-0.00020007,0,15635,57.579,0.52,0.00068221,4,0.013403,0.035782,0
15586,54.3,19.049,0,-0.00020007,0,15635,57.579,0.76,0.0020092,3.9999,0.027733,0.036184,0
15586,54.3,19.049,0,-0.00020007,0,15635,57.579,0.76,0.0020092,3.9999,0.027733,0.036184,0
15586,54.3,19.049,0,-0.00020007,0,15635,57.579,0.76,0.0020092,3.9999,0.027733,0.036184,0
15586,54.3,19.049,0,-0.00020007,0,15635,57.579,0.76,0.0020092,3.9999,0.027733,0.036184,0
15586,54.3,19.049,0,-0.00020007,0,15635,57.579,0.84,0.0026643,3.9999,0.033395,0.036317,0
15586,54.3,19.049,0,-0.00020007,0,15635,57.579,0.84,0.0026643,3.9999,0.033395,0.036317,0
15586,54.3,19.049,0,-0.00020007,0,15635,57.579,0.91999,0.0034388,3.9999,0.039423,0.036449,0
15586,54.3,19.049,0,-0.00020007,0,15635,57.579,0.91999,0.0034388,3.9999,0.039423,0.036449,0
15590,54.3,19.049,0,0.0002882,0,15635,57.579,0.91999,0.0034388,3.9999,0.039423,0.039515,0
15590,54.3,19.049,0,0.0002882,0,15635,57.579,0.91999,0.0034388,3.9999,0.039423,0.039515,0
15590,54.3,19.049,0,0.0002882,0,15635,57.579,0.91999,0.0034388,3.9999,0.039423,0.039515,0
15591,54.3,19.049,0,0.00036977,0,15635,57.579,0.91999,0.0034388,3.9999,0.039423,0.040191,0
15591,54.3,19.049,0,0.00041157,0,15635,57.579,0.91999,0.0034388,3.9999,0.039423,0.040538,0
15591,54.3,19.049,0,0.00041157,0,15635,57.579,0.91999,0.0034388,3.9999,0.039423,0.040538,0
15591,54.3,19.049,0,0.00045318,0,15635,57.579,0.91999,0.0034388,3.9999,0.039423,0.04089,0
15592,54.3,19.049,0,0.00049589,0,15635,57.579,0.91999,0.0034388,3.9999,0.039423,0.041249,0
15592,54.3,19.049,0,0.00053842,0,15635,57.579,0.91999,0.0034388,3.9999,0.039423,0.041614,0
15592,54.3,19.049,0,0.00053842,0,15635,57.579,0.91999,0.0034388,3.9999,0.039423,0.041614,0
15592,54.3,19.049,0,0.00053842,0,15635,57.579,0.91999,0.0034388,3.9999,0.039423,0.041614,0
15592,54.3,19.049,0,0.00053842,0,15635,57.579,0.91999,0.0034388,3.9999,0.039423,0.041614,0
15592,54.3,19.049,0,0.00053842,0,15635,57.579,0.91999,0.0034388,3.9999,0.039423,0.041614,0
15593,54.3,19.049,0,0.00058204,0,15635,57.579,0.91999,0.0034388,3.9999,0.039423,0.041986,0
15593,54.3,19.049,0,0.00058204,0,15635,57.579,0.91999,0.0034388,3.9999,0.039423,0.041986,0
15593,54.3,19.049,0,0.00058204,0,15635,57.579,0.91999,0.0034388,3.9999,0.039423,0.041986,0
15593,54.3,19.049,0,0.00058204,0,15635,57.579,0.91999,0.0034388,3.9999,0.039423,0.041986,0
15593,54.3,19.049,0,0.00058204,0,15635,57.579,0.91999,0.0034388,3.9999,0.039423,0.041986,0
15593,54.3,19.049,0,0.00058204,0,15635,57.579,0.91999,0.0034388,3.9999,0.039423,0.041986,0
15593,54.3,19.049,0,0.00058204,0,15635,57.579,0.91999,0.0034388,3.9999,0.039423,0.041986,0
15593,54.3,19.049,0,0.00058204,0,15635,57.579,0.91999,0.0034388,3.9999,0.039423,0.041986,0
15593,54.3,19.049,0,0.00062676,0,15635,57.579,0.91999,0.0034388,3.9999,0.039423,0.042364,0
15593,54.3,19.049,0,0.00062676,0,15635,57.579,0.91999,0.0034388,3.9999,0.039423,0.042364,0
15593,54.3,19.049,0,0.00062676,0,15635,57.579,0.91999,0.0034388,3.9999,0.039423,0.042364,0
15593,54.3,19.049,0,0.00062676,0,15635,57.579,0.91999,0.0034388,3.9999,0.039423,0.042364,0
15593,54.3,19.049,0,0.00062676,0,15635,57.579,0.91999,0.0034388,3.9999,0.039423,0.042364,0
15593,54.3,19.049,0,0.00062676,0,15635,57.579,0.91999,0.0034388,3.9999,0.039423,0.042364,0
15593,54.3,19.049,0,0.00062676,0,15635,57.579,0.91999,0.0034388,3.9999,0.039423,0.042364,0
15594,54.3,19.049,0,0.00071694,0,15635,57.581,1.7199,0.018569,3.9991,0.1077,0.044613,0
15595,54.3,19.049,0,0.00090278,0,15635,57.582,1.9598,0.025677,3.9987,0.12584,0.04673,0
15596,54.3,19.049,0,0.00095006,0,15635,57.582,1.9598,0.025677,3.9987,0.12584,0.047175,0
15596,54.3,19.049,0,0.00095006,0,15635,57.582,1.9598,0.025677,3.9987,0.12584,0.047175,0
15596,54.3,19.049,0,0.00095006,0,15636,57.586,2.4396,0.042455,3.998,0.15042,0.047999,0
15596,54.3,19.049,0,0.00095006,0,15636,57.586,2.4396,0.042455,3.998,0.15042,0.047999,0
15596,54.3,19.049,0,0.00095006,0,15636,57.586,2.4396,0.042455,3.998,0.15042,0.047999,0
15596,54.3,19.049,0,0.00095006,0,15636,57.586,2.4396,0.042455,3.998,0.15042,0.047999,0
15596,54.3,19.049,0,0.00095006,0,15636,57.586,2.4396,0.042455,3.998,0.15042,0.047999,0
15596,54.3,19.049,0,0.00095006,0,15636,57.586,2.4396,0.042455,3.998,0.15042,0.047999,0
15596,54.3,19.049,0,0.00095006,0,15636,57.586,2.4396,0.042455,3.998,0.15042,0.047999,0
15596,54.3,19.049,0,0.00095006,0,15636,57.586,2.4396,0.042455,3.998,0.15042,0.047999,0
15597,54.3,19.049,0,0.001145,0,15636,57.586,2.4396,0.042455,3.998,0.15042,0.049886,0
15597,54.3,19.049,0,0.001145,0,15636,57.586,2.4396,0.042455,3.998,0.15042,0.049886,0
15597,54.3,19.049,0,0.001145,0,15636,57.586,2.4396,0.042455,3.998,0.15042,0.049886,0
15597,54.3,19.049,0,0.001145,0,15636,57.586,2.4396,0.042455,3.998,0.15042,0.049886,0
15597,54.3,19.049,0,0.001145,0,15636,57.586,2.4396,0.042455,3.998,0.15042,0.049886,0
15597,54.3,19.049,0,0.001145,0,15636,57.586,2.4396,0.042455,3.998,0.15042,0.049886,0
15597,54.3,19.049,0,0.001145,0,15636,57.586,2.4396,0.042455,3.998,0.15042,0.049886,0
15597,54.3,19.049,0,0.001145,0,15636,57.586,2.4396,0.042455,3.998,0.15042,0.049886,0
15597,54.3,19.049,0,0.001145,0,15636,57.586,2.4396,0.042455,3.998,0.15042,0.049886,0
15597,54.3,19.049,0,0.001145,0,15636,57.586,2.4396,0.042455,3.998,0.15042,0.049886,0
15597,54.3,19.049,0,0.001145,0,15636,57.588,2.5995,0.048509,3.9978,0.1542,0.050155,0
15599,54.3,19.049,0,0.0013473,0,15636,57.589,2.6795,0.05157,3.9978,0.15517,0.052335,0
15599,54.3,19.049,0,0.0013473,0,15636,57.589,2.6795,0.05157,3.9978,0.15517,0.052335,0
15600,54.3,19.049,0,0.0015568,0,15636,57.593,2.9194,0.060742,3.9977,0.15435,0.054955,0
15600,54.3,19.049,0,0.0015568,0,15636,57.593,2.9194,0.060742,3.9977,0.15435,0.054955,0
15600,54.3,19.049,0,0.0015568,0,15636,57.599,3.3191,0.075265,3.9978,0.14089,0.055578,0
15600,54.3,19.049,0,0.0015568,0,15636,57.599,3.3191,0.075265,3.9978,0.14089,0.055578,0
15600,54.3,19.049,0,0.0015568,0,15636,57.599,3.3191,0.075265,3.9978,0.14089,0.055578,0
15600,54.3,19.049,0,0.0015568,0,15636,57.599,3.3191,0.075265,3.9978,0.14089,0.055578,0
15600,54.3,19.049,0,0.0015568,0,15636,57.599,3.3191,0.075265,3.9978,0.14089,0.055578,0
15600,54.3,19.049,0,0.0015568,0,15636,57.599,3.3191,0.075265,3.9978,0.14089,0.055578,0
15600,54.3,19.049,0,0.0015568,0,15636,57.599,3.3191,0.075265,3.9978,0.14089,0.055578,0
15600,54.3,19.049,0,0.0015568,0,15636,57.599,3.3191,0.075265,3.9978,0.14089,0.055578,0
15601,54.3,19.05,0,0.0017177,0,15636,57.599,3.3191,0.075265,3.9978,0.14089,0.05738,0
15601,54.3,19.05,0,0.0017177,0,15636,57.599,3.3191,0.075265,3.9978,0.14089,0.05738,0
15601,54.3,19.05,0,0.0017177,0,15636,57.599,3.3191,0.075265,3.9978,0.14089,0.05738,0
15601,54.3,19.05,0,0.0017177,0,15636,57.599,3.3191,0.075265,3.9978,0.14089,0.05738,0
15601,54.3,19.05,0,0.0017177,0,15636,57.599,3.3191,0.075265,3.9978,0.14089,0.05738,0
15601,54.3,19.05,0,0.0017177,0,15636,57.599,3.3191,0.075265,3.9978,0.14089,0.05738,0
15601,54.3,19.05,0,0.0017177,0,15636,57.599,3.3191,0.075265,3.9978,0.14089,0.05738,0
15601,54.3,19.05,0,0.0017177,0,15636,57.599,3.3191,0.075265,3.9978,0.14089,0.05738,0
15601,54.3,19.05,0,0.0017177,0,15636,57.603,3.4791,0.080543,3.998,0.13166,0.057616,0
15601,54.3,19.05,0,0.0017177,0,15636,57.603,3.4791,0.080543,3.998,0.13166,0.057616,0
15603,54.3,19.05,0,0.0019937,0,15636,57.604,3.559,0.083028,3.9981,0.12632,0.061006,0
15604,54.3,19.05,0,0.0021059,0,15637,57.611,3.879,0.089977,3.9997,0.057544,0.062852,0
15604,54.3,19.05,0,0.0021059,0,15637,57.611,3.879,0.089977,3.9997,0.057544,0.062852,0
15604,54.3,19.05,0,0.0021059,0,15637,57.617,4.119,0.088523,4.0023,-0.060439,0.063149,0
15604,54.3,19.05,0,0.0021059,0,15637,57.618,4.1991,0.086079,4.0032,-0.11301,0.063243,0
15604,54.3,19.05,0,0.0021059,0,15637,57.618,4.1991,0.086079,4.0032,-0.11301,0.063243,0
15604,54.3,19.05,0,0.0021059,0,15637,57.618,4.1991,0.086079,4.0032,-0.11301,0.063243,0
15604,54.3,19.05,0,0.0021059,0,15637,57.618,4.1991,0.086079,4.0032,-0.11301,0.063243,0
15604,54.3,19.05,0,0.0021059,0,15637,57.618,4.1991,0.086079,4.0032,-0.11301,0.063243,0
15605,54.3,19.05,0,0.0023356,0,15637,57.618,4.1991,0.086079,4.0032,-0.11301,0.06626,0
15605,54.3,19.05,0,0.0023356,0,15637,57.618,4.1991,0.086079,4.0032,-0.11301,0.06626,0
15605,54.3,19.05,0,0.0023356,0,15637,57.618,4.1991,0.086079,4.0032,-0.11301,0.06626,0
15605,54.3,19.05,0,0.0023356,0,15637,57.618,4.1991,0.086079,4.0032,-0.11301,0.06626,0
15605,54.3,19.05,0,0.0023356,0,15637,57.618,4.1991,0.086079,4.0032,-0.11301,0.06626,0
15605,54.3,19.05,0,0.0023356,0,15637,57.618,4.1991,0.086079,4.0032,-0.11301,0.06626,0
15605,54.3,19.05,0,0.0023356,0,15637,57.618,4.1991,0.086079,4.0032,-0.11301,0.06626,0
15605,54.3,19.05,0,0.0023356,0,15637,57.621,4.3593,0.077469,4.0051,-0.23786,0.066433,0
15605,54.3,19.05,0,0.0023356,0,15637,57.621,4.3593,0.077469,4.0051,-0.23786,0.066433,0
15605,54.3,19.05,0,0.0023356,0,15637,57.621,4.3593,0.077469,4.0051,-0.23786,0.066433,0
15605,54.3,19.05,0,0.0023356,0,15637,57.621,4.3593,0.077469,4.0051,-0.23786,0.066433,0
15605,54.3,19.05,0,0.0023356,0,15637,57.621,4.3593,0.077469,4.0051,-0.23786,0.066433,0
15605,54.3,19.05,0,0.0023356,0,15637,57.621,4.3593,0.077469,4.0051,-0.23786,0.066433,0
15605,54.3,19.05,0,0.0023356,0,15637,57.621,4.3593,0.077469,4.0051,-0.23786,0.066433,0
15606,54.3,19.05,0,0.0024519,0,15637,57.621,4.3593,0.077469,4.0051,-0.23786,0.068046,0
15606,54.3,19.05,0,0.0024519,0,15637,57.621,4.3593,0.077469,4.0051,-0.23786,0.068046,0
15607,54.3,19.05,0,0.0026294,0,15637,57.625,4.5997,0.053373,4.0063,-0.47227,0.070836,0
15607,54.3,19.05,0,0.0026294,0,15638,57.627,4.84,0.013117,4.0033,-0.75713,0.071028,0
15610,54.3,19.051,0,0.0029906,0,15638,57.627,4.92,-0.0043585,4.0008,-0.86164,0.076761,0
15610,54.3,19.051,0,0.0029906,0,15638,57.623,5.2391,-0.096575,3.9794,-1.3155,0.076898,0
15610,54.3,19.051,0,0.0029906,0,15638,57.623,5.2391,-0.096575,3.9794,-1.3155,0.076898,0
15610,54.3,19.051,0,0.0029906,0,15638,57.623,5.2391,-0.096575,3.9794,-1.3155,0.076898,0
15610,54.3,19.051,0,0.0029906,0,15638,57.623,5.2391,-0.096575,3.9794,-1.3155,0.076898,0
15610,54.3,19.051,0,0.0029906,0,15638,57.623,5.2391,-0.096575,3.9794,-1.3155,0.076898,0
15610,54.3,19.051,0,0.0029906,0,15638,57.623,5.2391,-0.096575,3.9794,-1.3155,0.076898,0
15610,54.3,19.051,0,0.0029906,0,15638,57.623,5.2391,-0.096575,3.9794,-1.3155,0.076898,0
15610,54.3,19.051,0,0.0029906,0,15638,57.623,5.2391,-0.096575,3.9794,-1.3155,0.076898,0
15610,54.3,19.051,0,0.0029906,0,15638,57.623,5.2391,-0.096575,3.9794,-1.3155,0.076898,0
15610,54.3,19.051,0,0.0031142,0,15638,57.623,5.2391,-0.096575,3.9794,-1.3155,0.078968,0
15610,54.3,19.051,0,0.0031142,0,15638,57.623,5.2391,-0.096575,3.9794,-1.3155,0.078968,0
15610,54.3,19.051,0,0.0031142,0,15638,57.623,5.2391,-0.096575,3.9794,-1.3155,0.078968,0
15610,54.3,19.051,0,0.0031142,0,15638,57.623,5.2391,-0.096575,3.9794,-1.3155,0.078968,0
15610,54.3,19.051,0,0.0031142,0,15638,57.623,5.2391,-0.096575,3.9794,-1.3155,0.078968,0
15610,54.3,19.051,0,0.0031142,0,15638,57.623,5.2391,-0.096575,3.9794,-1.3155,0.078968,0
15610,54.3,19.051,0,0.0031142,0,15638,57.623,5.2391,-0.096575,3.9794,-1.3155,0.078968,0
15610,54.3,19.051,0,0.0031142,0,15638,57.623,5.2391,-0.096575,3.9794,-1.3155,0.078968,0
15610,54.3,19.051,0,0.0031142,0,15638,57.623,5.2391,-0.096575,3.9794,-1.3155,0.078968,0
15610,54.3,19.051,0,0.0031142,0,15638,57.623,5.2391,-0.096575,3.9794,-1.3155,0.078968,0
15610,54.3,19.051,0,0.0031142,0,15638,57.618,5.3977,-0.15679,3.9604,-1.5567,0.079001,0
15612,54.3,19.051,0,0.0033628,0,15639,57.614,5.4767,-0.19054,3.9484,-1.679,0.083452,0
15613,54.3,19.051,0,0.0034892,0,15639,57.599,5.7118,-0.30634,3.902,-2.0458,0.085787,0
15613,54.3,19.051,0,0.0034892,0,15639,57.555,6.0956,-0.54635,3.7893,-2.6258,0.085567,0
15613,54.3,19.051,0,0.0034892,0,15639,57.555,6.0956,-0.54635,3.7893,-2.6258,0.085567,0
15613,54.3,19.051,0,0.0034892,0,15639,57.555,6.0956,-0.54635,3.7893,-2.6258,0.085567,0
15613,54.3,19.051,0,0.0034892,0,15639,57.555,6.0956,-0.54635,3.7893,-2.6258,0.085567,0
15613,54.3,19.051,0,0.0034892,0,15639,57.555,6.0956,-0.54635,3.7893,-2.6258,0.085567,0
15613,54.3,19.051,0,0.0034892,0,15639,57.555,6.0956,-0.54635,3.7893,-2.6258,0.085567,0
15613,54.3,19.051,0,0.0034892,0,15639,57.555,6.0956,-0.54635,3.7893,-2.6258,0.085567,0
15613,54.3,19.051,0,0.0034892,0,15639,57.555,6.0956,-0.54635,3.7893,-2.6258,0.085567,0
15613,54.3,19.051,0,0.0034892,0,15639,57.555,6.0956,-0.54635,3.7893,-2.6258,0.085567,0
15615,54.3,19.051,0,0.003808,0,15639,57.555,6.0956,-0.54635,3.7893,-2.6258,0.091985,0
15615,54.3,19.051,0,0.003808,0,15639,57.555,6.0956,-0.54635,3.7893,-2.6258,0.091985,0
15615,54.3,19.051,0,0.003808,0,15639,57.555,6.0956,-0.54635,3.7893,-2.6258,0.091985,0
15615,54.3,19.051,0,0.003808,0,15639,57.555,6.0956,-0.54635,3.7893,-2.6258,0.091985,0
15615,54.3,19.051,0,0.003808,0,15639,57.555,6.0956,-0.54635,3.7893,-2.6258,0.091985,0
15615,54.3,19.051,0,0.003808,0,15639,57.555,6.0956,-0.54635,3.7893,-2.6258,0.091985,0
15615,54.3,19.051,0,0.003808,0,15639,57.555,6.0956,-0.54635,3.7893,-2.6258,0.091985,0
15615,54.3,19.051,0,0.003808,0,15639,57.555,6.0956,-0.54635,3.7893,-2.6258,0.091985,0
15615,54.3,19.051,0,0.003808,0,15639,57.555,6.0956,-0.54635,3.7893,-2.6258,0.091985,0
15615,54.3,19.051,0,0.003808,0,15639,57.555,6.0956,-0.54635,3.7893,-2.6258,0.091985,0
15615,54.3,19.051,0,0.003808,0,15640,57.531,6.2455,-0.65757,3.7331,-2.8358,0.091795,0
15615,54.3,19.051,0,0.003808,0,15640,57.531,6.2455,-0.65757,3.7331,-2.8358,0.091795,0
15616,54.3,19.052,0,0.004002,0,15640,57.531,6.2455,-0.65757,3.7331,-2.8358,0.096073,0
15616,54.3,19.052,0,0.004002,0,15640,57.468,6.5381,-0.90255,3.6071,-3.2013,0.095529,0
15618,54.3,19.052,0,0.0044627,0,15640,57.449,6.6096,-0.96791,3.5737,-3.2798,0.10668,0
15618,54.3,19.052,0,0.0044627,0,15640,57.449,6.6096,-0.96791,3.5737,-3.2798,0.10668,0
15618,54.3,19.052,0,0.0044627,0,15640,57.449,6.6096,-0.96791,3.5737,-3.2798,0.10668,0
15618,54.3,19.052,0,0.0044627,0,15640,57.449,6.6096,-0.96791,3.5737,-3.2798,0.10668,0
15619,54.3,19.052,0,0.0045289,0,15640,57.449,6.6096,-0.96791,3.5737,-3.2798,0.10851,0
15619,54.3,19.052,0,0.0045289,0,15640,57.449,6.6096,-0.96791,3.5737,-3.2798,0.10851,0
15619,54.3,19.052,0,0.0045289,0,15640,57.449,6.6096,-0.96791,3.5737,-3.2798,0.10851,0
15619,54.3,19.052,0,0.0045289,0,15640,57.449,6.6096,-0.96791,3.5737,-3.2798,0.10851,0
15619,54.3,19.052,0,0.0045289,0,15640,57.449,6.6096,-0.96791,3.5737,-3.2798,0.10851,0
15619,54.3,19.052,0,0.0045289,0,15640,57.449,6.6096,-0.96791,3.5737,-3.2798,0.10851,0
15619,54.3,19.052,0,0.0045289,0,15640,57.449,6.6096,-0.96791,3.5737,-3.2798,0.10851,0
15619,54.3,19.052,0,0.0045289,0,15640,57.449,6.6096,-0.96791,3.5737,-3.2798,0.10851,0
15619,54.3,19.052,0,0.0045963,0,15640,57.449,6.6096,-0.96791,3.5737,-3.2798,0.11041,0
15619,54.3,19.052,0,0.0045963,0,15640,57.449,6.6096,-0.96791,3.5737,-3.2798,0.11041,0
15619,54.3,19.052,0,0.0045963,0,15640,57.449,6.6096,-0.96791,3.5737,-3.2798,0.11041,0
15619,54.3,19.052,0,0.0045963,0,15640,57.449,6.6096,-0.96791,3.5737,-3.2798,0.11041,0
15619,54.3,19.052,0,0.0045963,0,15640,57.449,6.6096,-0.96791,3.5737,-3.2798,0.11041,0
15620,54.3,19.053,0,0.0047304,0,15641,57.277,7.0915,-1.459,3.3412,-3.6681,0.11223,0
15621,54.3,19.053,0,0.0049326,0,15642,57.216,7.2235,-1.6066,3.2809,-3.7262,0.11762,0
15621,54.3,19.053,0,0.0049326,0,15642,57.112,7.4175,-1.8307,3.2008,-3.7705,0.11644,0
15621,54.3,19.053,0,0.0049326,0,15642,57.035,7.5444,-1.9806,3.1559,-3.7729,0.11564,0
15621,54.3,19.053,0,0.0049326,0,15642,57.035,7.5444,-1.9806,3.1559,-3.7729,0.11564,0
15623,54.3,19.053,0,0.0052048,0,15642,57.035,7.5444,-1.9806,3.1559,-3.7729,0.12435,0
15623,54.3,19.053,0,0.0052048,0,15642,57.035,7.5444,-1.9806,3.1559,-3.7729,0.12435,0
15623,54.3,19.053,0,0.0052048,0,15642,57.035,7.5444,-1.9806,3.1559,-3.7729,0.12435,0
15623,54.3,19.053,0,0.0052048,0,15642,57.035,7.5444,-1.9806,3.1559,-3.7729,0.12435,0
15623,54.3,19.053,0,0.0052048,0,15642,57.035,7.5444,-1.9806,3.1559,-3.7729,0.12435,0
15623,54.3,19.053,0,0.0052048,0,15642,57.035,7.5444,-1.9806,3.1559,-3.7729,0.12435,0
15623,54.3,19.053,0,0.0052048,0,15642,57.035,7.5444,-1.9806,3.1559,-3.7729,0.12435,0
15623,54.3,19.053,0,0.0052048,0,15642,57.035,7.5444,-1.9806,3.1559,-3.7729,0.12435,0
15623,54.3,19.053,0,0.0052048,0,15642,57.035,7.5444,-1.9806,3.1559,-3.7729,0.12435,0
15623,54.3,19.053,0,0.0052048,0,15642,57.035,7.5444,-1.9806,3.1559,-3.7729,0.12435,0
15623,54.3,19.053,0,0.0052048,0,15643,56.952,7.6698,-2.1299,3.1189,-3.7548,0.12337,0
15623,54.3,19.053,0,0.0052048,0,15643,56.952,7.6698,-2.1299,3.1189,-3.7548,0.12337,0
15623,54.3,19.053,0,0.0052048,0,15643,56.952,7.6698,-2.1299,3.1189,-3.7548,0.12337,0
15623,54.3,19.053,0,0.0052048,0,15643,56.952,7.6698,-2.1299,3.1189,-3.7548,0.12337,0
15623,54.3,19.053,0,0.0052048,0,15643,56.952,7.6698,-2.1299,3.1189,-3.7548,0.12337,0
15623,54.3,19.053,0,0.0052048,0,15643,56.952,7.6698,-2.1299,3.1189,-3.7548,0.12337,0
15623,54.3,19.053,0,0.0052048,0,15643,56.952,7.6698,-2.1299,3.1189,-3.7548,0.12337,0
15623,54.3,19.053,0,0.0052048,0,15643,56.908,7.732,-2.2041,3.1035,-3.7383,0.12287,0
15623,54.3,19.053,0,0.0052048,0,15643,56.908,7.732,-2.2041,3.1035,-3.7383,0.12287,0
15623,54.3,19.053,0,0.0052048,0,15643,56.908,7.732,-2.2041,3.1035,-3.7383,0.12287,0
15623,54.3,19.053,0,0.0052048,0,15643,56.908,7.732,-2.2041,3.1035,-3.7383,0.12287,0
15624,54.3,19.054,0,0.0054103,0,15643,56.908,7.732,-2.2041,3.1035,-3.7383,0.13007,0
15625,54.3,19.054,0,0.005687,0,15643,56.908,7.732,-2.2041,3.1035,-3.7383,0.14105,0
15625,54.3,19.054,0,0.005687,0,15643,56.908,7.732,-2.2041,3.1035,-3.7383,0.14105,0
15625,54.3,19.054,0,0.005687,0,15643,56.908,7.732,-2.2041,3.1035,-3.7383,0.14105,0
15625,54.3,19.054,0,0.005687,0,15643,56.908,7.732,-2.2041,3.1035,-3.7383,0.14105,0
15625,54.3,19.054,0,0.005687,0,15643,56.908,7.732,-2.2041,3.1035,-3.7383,0.14105,0
15625,54.3,19.054,0,0.005687,0,15644,56.512,8.2514,-2.6939,3.3548,-2.6204,0.13567,0
15627,54.3,18.154,0,-10,0,15644,56.458,8.3194,-2.7433,3.3866,-2.5092,0.14943,0
15627,54.3,18.154,0,-10,0,15645,56.346,8.4571,-2.8361,3.4467,-2.307,0.14779,0
15628,54.3,17.754,0,-10,0,15645,56.346,8.4571,-2.8361,3.4467,-2.307,0.154,0
15628,54.3,17.754,0,-10,0,15645,56.231,8.5971,-2.9217,3.5029,-2.1267,0.15221,0
15628,54.3,17.754,0,-10,0,15645,56.231,8.5971,-2.9217,3.5029,-2.1267,0.15221,0
15628,54.3,17.754,0,-10,0,15645,56.172,8.6679,-2.962,3.5297,-2.0431,0.15132,0
15628,54.3,17.754,0,-10,0,15645,56.172,8.6679,-2.962,3.5297,-2.0431,0.15132,0
15628,54.3,17.754,0,-10,0,15645,56.172,8.6679,-2.962,3.5297,-2.0431,0.15132,0
15628,54.3,17.754,0,-10,0,15645,56.172,8.6679,-2.962,3.5297,-2.0431,0.15132,0
15628,54.3,17.754,0,-10,0,15645,56.172,8.6679,-2.962,3.5297,-2.0431,0.15132,0
15628,54.3,17.754,0,-10,0,15645,56.172,8.6679,-2.962,3.5297,-2.0431,0.15132,0
15628,54.3,17.754,0,-10,0,15645,56.172,8.6679,-2.962,3.5297,-2.0431,0.15132,0
15628,54.3,17.754,0,-10,0,15645,56.172,8.6679,-2.962,3.5297,-2.0431,0.15132,0
15628,54.3,17.754,0,-10,0,15645,56.172,8.6679,-2.962,3.5297,-2.0431,0.15132,0
15629,54.3,17.154,0,-10,0,15645,56.172,8.6679,-2.962,3.5297,-2.0431,0.16093,0
15629,54.3,17.154,0,-10,0,15645,56.172,8.6679,-2.962,3.5297,-2.0431,0.16093,0
15629,54.3,17.154,0,-10,0,15645,56.172,8.6679,-2.962,3.5297,-2.0431,0.16093,0
15629,54.3,17.154,0,-10,0,15645,56.172,8.6679,-2.962,3.5297,-2.0431,0.16093,0
15629,54.3,17.154,0,-10,0,15645,56.172,8.6679,-2.962,3.5297,-2.0431,0.16093,0
15629,54.3,17.154,0,-10,0,15645,56.172,8.6679,-2.962,3.5297,-2.0431,0.16093,0
15629,54.3,17.154,0,-10,0,15645,56.172,8.6679,-2.962,3.5297,-2.0431,0.16093,0
15629,54.3,17.154,0,-10,0,15645,56.172,8.6679,-2.962,3.5297,-2.0431,0.16093,0
15629,54.3,17.154,0,-10,0,15645,56.052,8.811,-3.038,3.5812,-1.8862,0.1589,0
15629,54.3,17.154,0,-10,0,15645,56.052,8.811,-3.038,3.5812,-1.8862,0.1589,0
15629,54.3,17.154,0,-10,0,15645,56.052,8.811,-3.038,3.5812,-1.8862,0.1589,0
15631,54.3,16.154,0,-10,0,15646,55.991,8.8833,-3.0737,3.606,-1.8121,0.17507,0
15631,54.3,16.154,0,-10,0,15646,55.991,8.8833,-3.0737,3.606,-1.8121,0.17507,0
15632,54.3,15.554,0,-10,0,15646,55.739,9.1771,-3.2031,3.7007,-1.5356,0.1808,0
15632,54.3,15.554,0,-10,0,15646,55.739,9.1771,-3.2031,3.7007,-1.5356,0.1808,0
15632,54.3,15.554,0,-10,0,15647,55.479,9.4781,-3.3117,3.7905,-1.2782,0.17521,0
15632,54.3,14.954,0,-10,0,15647,55.479,9.4781,-3.3117,3.7905,-1.2782,0.18605,0
15632,54.3,14.954,0,-10,0,15647,55.479,9.4781,-3.3117,3.7905,-1.2782,0.18605,0
15632,54.3,14.954,0,-10,0,15647,55.479,9.4781,-3.3117,3.7905,-1.2782,0.18605,0
15633,54.3,14.754,0,-10,0,15647,55.479,9.4781,-3.3117,3.7905,-1.2782,0.18987,0
15633,54.3,14.754,0,-10,0,15647,55.479,9.4781,-3.3117,3.7905,-1.2782,0.18987,0
15633,54.3,14.754,0,-10,0,15647,55.479,9.4781,-3.3117,3.7905,-1.2782,0.18987,0
15633,54.3,14.754,0,-10,0,15647,55.479,9.4781,-3.3117,3.7905,-1.2782,0.18987,0
15633,54.3,14.754,0,-10,0,15647,55.479,9.4781,-3.3117,3.7905,-1.2782,0.18987,0
15633,54.3,14.754,0,-10,0,15647,55.479,9.4781,-3.3117,3.7905,-1.2782,0.18987,0
15633,54.3,14.754,0,-10,0,15647,55.479,9.4781,-3.3117,3.7905,-1.2782,0.18987,0
15633,54.3,14.754,0,-10,0,15648,55.278,9.7085,-3.38,3.856,-1.0903,0.18499,0
15633,54.3,14.754,0,-10,0,15648,55.278,9.7085,-3.38,3.856,-1.0903,0.18499,0
15634,54.3,14.154,0,-10,0,15648,55.21,9.7861,-3.4002,3.8775,-1.0278,0.19449,0
15634,54.3,14.154,0,-10,0,15648,55.21,9.7861,-3.4002,3.8775,-1.0278,0.19449,0
15634,54.3,13.954,0,-10,0,15648,55.21,9.7861,-3.4002,3.8775,-1.0278,0.19838,0
15634,54.3,13.954,0,-10,0,15648,55.21,9.7861,-3.4002,3.8775,-1.0278,0.19838,0
15634,54.3,13.954,0,-10,0,15649,54.866,10.181,-3.483,3.984,-0.71312,0.18924,0
15634,54.3,13.954,0,-10,0,15649,54.796,10.261,-3.4957,4.005,-0.6492,0.18749,0
15634,54.3,13.954,0,-10,0,15649,54.796,10.261,-3.4957,4.005,-0.6492,0.18749,0
15634,54.3,13.954,0,-10,0,15649,54.796,10.261,-3.4957,4.005,-0.6492,0.18749,0
15634,54.3,13.954,0,-10,0,15649,54.796,10.261,-3.4957,4.005,-0.6492,0.18749,0
15634,54.3,13.954,0,-10,0,15649,54.796,10.261,-3.4957,4.005,-0.6492,0.18749,0
15634,54.3,13.954,0,-10,0,15649,54.726,10.341,-3.5072,4.026,-0.58483,0.18576,0
15634,54.3,13.954,0,-10,0,15649,54.726,10.341,-3.5072,4.026,-0.58483,0.18576,0
15634,54.3,13.954,0,-10,0,15649,54.726,10.341,-3.5072,4.026,-0.58483,0.18576,0
15634,54.3,13.954,0,-10,0,15649,54.656,10.422,-3.5174,4.0468,-0.51998,0.18407,0
15634,54.3,13.954,0,-10,0,15649,54.656,10.422,-3.5174,4.0468,-0.51998,0.18407,0
15634,54.3,13.954,0,-10,0,15649,54.656,10.422,-3.5174,4.0468,-0.51998,0.18407,0
15634,54.3,13.954,0,-10,0,15649,54.656,10.422,-3.5174,4.0468,-0.51998,0.18407,0
15634,54.3,13.954,0,-10,0,15649,54.656,10.422,-3.5174,4.0468,-0.51998,0.18407,0
15634,54.3,13.954,0,-10,0,15649,54.656,10.422,-3.5174,4.0468,-0.51998,0.18407,0
15634,54.3,13.954,0,-10,0,15649,54.656,10.422,-3.5174,4.0468,-0.51998,0.18407,0
15634,54.3,13.954,0,-10,0,15649,54.656,10.422,-3.5174,4.0468,-0.51998,0.18407,0
15636,54.3,12.554,0,-10,0,15649,54.656,10.422,-3.5174,4.0468,-0.51998,0.20891,0
15636,54.3,12.554,0,-10,0,15650,54.445,10.545,-3.5027,0.26971,0.80985,0.20105,0
15636,54.3,12.554,0,-10,0,15650,54.445,10.545,-3.5027,0.26971,0.80985,0.20105,0
15636,54.3,12.554,0,-10,0,15650,54.375,10.55,-3.4877,0.2531,0.76371,0.1982,0
15636,54.3,12.554,0,-10,0,15650,54.375,10.55,-3.4877,0.2531,0.76371,0.1982,0
15637,54.3,11.354,0,-10,0,15651,54.306,10.554,-3.4734,0.23932,0.72551,0.21641,0
15637,54.3,11.154,0,-10,0,15651,54.306,10.554,-3.4734,0.23932,0.72551,0.22012,0
15637,54.3,11.154,0,-10,0,15651,54.03,10.572,-3.4205,0.20884,0.6441,0.20693,0
15638,54.3,10.574,0,-8.9819,0,15652,53.962,10.576,-3.4078,0.20656,0.63971,0.21366,0
15638,54.3,10.574,0,-8.9819,0,15652,53.962,10.576,-3.4078,0.20656,0.63971,0.21366,0
15638,54.3,10.574,0,-8.9819,0,15652,53.962,10.576,-3.4078,0.20656,0.63971,0.21366,0
15638,54.3,10.574,0,-8.9819,0,15652,53.962,10.576,-3.4078,0.20656,0.63971,0.21366,0
15638,54.3,10.574,0,-8.9819,0,15652,53.962,10.576,-3.4078,0.20656,0.63971,0.21366,0
15638,54.3,10.574,0,-8.9819,0,15652,53.962,10.576,-3.4078,0.20656,0.63971,0.21366,0
15638,54.3,10.574,0,-8.9819,0,15652,53.962,10.576,-3.4078,0.20656,0.63971,0.21366,0
15638,54.3,10.574,0,-8.9819,0,15652,53.962,10.576,-3.4078,0.20656,0.63971,0.21366,0
15638,54.3,10.574,0,-8.9819,0,15652,53.962,10.576,-3.4078,0.20656,0.63971,0.21366,0
15638,54.3,10.574,0,-8.9819,0,15652,53.962,10.576,-3.4078,0.20656,0.63971,0.21366,0
15638,54.3,10.574,0,-8.9819,0,15652,53.826,10.584,-3.382,0.20739,0.64768,0.20718,0
15638,54.3,10.574,0,-8.9819,0,15652,53.826,10.584,-3.382,0.20739,0.64768,0.20718,0
15638,54.3,10.574,0,-8.9819,0,15652,53.826,10.584,-3.382,0.20739,0.64768,0.20718,0
15638,54.3,10.574,0,-8.9819,0,15652,53.826,10.584,-3.382,0.20739,0.64768,0.20718,0
15638,54.3,10.574,0,-8.9819,0,15652,53.826,10.584,-3.382,0.20739,0.64768,0.20718,0
15638,54.3,10.574,0,-8.9819,0,15652,53.826,10.584,-3.382,0.20739,0.64768,0.20718,0
15638,54.3,10.574,0,-8.9819,0,15652,53.826,10.584,-3.382,0.20739,0.64768,0.20718,0
15638,54.3,10.574,0,-8.9819,0,15652,53.826,10.584,-3.382,0.20739,0.64768,0.20718,0
15638,54.3,10.574,0,-8.9819,0,15652,53.826,10.584,-3.382,0.20739,0.64768,0.20718,0
15638,54.3,10.574,0,-8.9819,0,15652,53.826,10.584,-3.382,0.20739,0.64768,0.20718,0
15638,54.3,10.574,0,-8.9819,0,15652,53.759,10.588,-3.3687,0.21024,0.65939,0.20408,0
15638,54.3,10.574,0,-8.9819,0,15652,53.759,10.588,-3.3687,0.21024,0.65939,0.20408,0
15639,54.3,9.662,0,-6.395,0,15653,53.625,10.597,-3.3411,0.22018,0.69675,0.216,0
15639,54.3,9.662,0,-6.395,0,15653,53.625,10.597,-3.3411,0.22018,0.69675,0.216,0
15640,54.3,9.4195,0,-5.7421,0,15653,53.625,10.597,-3.3411,0.22018,0.69675,0.22232,0
15640,54.3,9.0052,0,-4.6559,0,15654,53.165,10.633,-3.2242,0.28786,0.94626,0.20992,0
15640,54.3,9.0052,0,-4.6559,0,15654,53.165,10.633,-3.2242,0.28786,0.94626,0.20992,0
15640,54.3,9.0052,0,-4.6559,0,15654,53.165,10.633,-3.2242,0.28786,0.94626,0.20992,0
15640,54.3,9.0052,0,-4.6559,0,15654,53.165,10.633,-3.2242,0.28786,0.94626,0.20992,0
15640,54.3,9.0052,0,-4.6559,0,15654,53.165,10.633,-3.2242,0.28786,0.94626,0.20992,0
15640,54.3,9.0052,0,-4.6559,0,15654,53.165,10.633,-3.2242,0.28786,0.94626,0.20992,0
15640,54.3,9.0052,0,-4.6559,0,15654,53.165,10.633,-3.2242,0.28786,0.94626,0.20992,0
15640,54.3,9.0052,0,-4.6559,0,15654,53.165,10.633,-3.2242,0.28786,0.94626,0.20992,0
15640,54.3,9.0052,0,-4.6559,0,15654,53.165,10.633,-3.2242,0.28786,0.94626,0.20992,0
15640,54.3,9.0052,0,-4.6559,0,15655,53.037,10.645,-3.183,0.31324,1.0439,0.20356,0
15640,54.3,9.0052,0,-4.6559,0,15655,52.974,10.652,-3.1608,0.32646,1.096,0.20053,0
15640,54.3,9.0052,0,-4.6559,0,15655,52.974,10.652,-3.1608,0.32646,1.096,0.20053,0
15640,54.3,9.0052,0,-4.6559,0,15655,52.974,10.652,-3.1608,0.32646,1.096,0.20053,0
15640,54.3,9.0052,0,-4.6559,0,15655,52.974,10.652,-3.1608,0.32646,1.096,0.20053,0
15640,54.3,9.0052,0,-4.6559,0,15655,52.974,10.652,-3.1608,0.32646,1.096,0.20053,0
15640,54.3,9.0052,0,-4.6559,0,15655,52.974,10.652,-3.1608,0.32646,1.096,0.20053,0
15640,54.3,9.0052,0,-4.6559,0,15655,52.974,10.652,-3.1608,0.32646,1.096,0.20053,0
15640,54.3,9.0052,0,-4.6559,0,15655,52.911,10.659,-3.1376,0.33994,1.1502,0.19759,0
15641,54.3,8.5297,0,-3.069,0,15655,52.911,10.659,-3.1376,0.33994,1.1502,0.21267,0
15641,54.3,8.5297,0,-3.069,0,15655,52.911,10.659,-3.1376,0.33994,1.1502,0.21267,0
15641,54.3,8.5297,0,-3.069,0,15655,52.911,10.659,-3.1376,0.33994,1.1502,0.21267,0
15642,54.3,8.473,0,-2.604,0,15655,52.911,10.659,-3.1376,0.33994,1.1502,0.21533,0
15642,54.3,8.4254,0,-2.1612,0,15655,52.911,10.659,-3.1376,0.33994,1.1502,0.21804,0
15642,54.3,8.4254,0,-2.1612,0,15655,52.911,10.659,-3.1376,0.33994,1.1502,0.21804,0
15642,54.3,8.3285,0,-1.1385,0,15656,52.486,10.715,-2.9414,0.43416,1.5725,0.20254,0
15642,54.3,8.3285,0,-1.1385,0,15656,52.486,10.715,-2.9414,0.43416,1.5725,0.20254,0
15642,54.3,8.3082,0,-0.8914,0,15656,52.486,10.715,-2.9414,0.43416,1.5725,0.20488,0
15643,54.3,8.2925,0,-0.6794,0,15656,52.486,10.715,-2.9414,0.43416,1.5725,0.20727,0
15643,54.3,8.2925,0,-0.6794,0,15656,52.486,10.715,-2.9414,0.43416,1.5725,0.20727,0
15643,54.3,8.2925,0,-0.6794,0,15656,52.486,10.715,-2.9414,0.43416,1.5725,0.20727,0
15643,54.3,8.2925,0,-0.6794,0,15657,52.257,10.752,-2.8013,0.48137,1.8348,0.19523,0
15643,54.3,8.2925,0,-0.6794,0,15657,52.257,10.752,-2.8013,0.48137,1.8348,0.19523,0
15643,54.3,8.2925,0,-0.6794,0,15657,52.257,10.752,-2.8013,0.48137,1.8348,0.19523,0
15643,54.3,8.2925,0,-0.6794,0,15657,52.257,10.752,-2.8013,0.48137,1.8348,0.19523,0
15643,54.3,8.2925,0,-0.6794,0,15657,52.257,10.752,-2.8013,0.48137,1.8348,0.19523,0
15643,54.3,8.2925,0,-0.6794,0,15657,52.257,10.752,-2.8013,0.48137,1.8348,0.19523,0
15643,54.3,8.2925,0,-0.6794,0,15658,52.201,10.762,-2.7629,0.49174,1.9015,0.19245,0
15643,54.3,8.2925,0,-0.6794,0,15658,52.201,10.762,-2.7629,0.49174,1.9015,0.19245,0
15643,54.3,8.2925,0,-0.6794,0,15658,52.201,10.762,-2.7629,0.49174,1.9015,0.19245,0
15643,54.3,8.2925,0,-0.6794,0,15658,52.201,10.762,-2.7629,0.49174,1.9015,0.19245,0
15643,54.3,8.2925,0,-0.6794,0,15658,52.201,10.762,-2.7629,0.49174,1.9015,0.19245,0
15643,54.3,8.2925,0,-0.6794,0,15658,52.201,10.762,-2.7629,0.49174,1.9015,0.19245,0
15643,54.3,8.2925,0,-0.6794,0,15658,52.201,10.762,-2.7629,0.49174,1.9015,0.19245,0
15643,54.3,8.267,0,-0.19644,0,15658,52.201,10.762,-2.7629,0.49174,1.9015,0.19886,0
15643,54.3,8.267,0,-0.19644,0,15658,52.093,10.783,-2.6822,0.51036,2.0352,0.19316,0
15644,54.3,8.2693,0,0.22295,0,15658,51.988,10.804,-2.5961,0.52581,2.1689,0.19596,0
15644,54.3,8.2894,0,0.43804,0,15659,51.886,10.825,-2.5048,0.5377,2.3015,0.19667,0
15644,54.3,8.2894,0,0.43804,0,15659,51.741,10.858,-2.3579,0.5482,2.4967,0.18846,0
15644,54.3,8.2894,0,0.43804,0,15659,51.741,10.858,-2.3579,0.5482,2.4967,0.18846,0
15644,54.3,8.2894,0,0.43804,0,15659,51.741,10.858,-2.3579,0.5482,2.4967,0.18846,0
15644,54.3,8.2894,0,0.43804,0,15659,51.741,10.858,-2.3579,0.5482,2.4967,0.18846,0
15644,54.3,8.2894,0,0.43804,0,15659,51.741,10.858,-2.3579,0.5482,2.4967,0.18846,0
15644,54.3,8.2894,0,0.43804,0,15659,51.741,10.858,-2.3579,0.5482,2.4967,0.18846,0
15644,54.3,8.2894,0,0.43804,0,15659,51.741,10.858,-2.3579,0.5482,2.4967,0.18846,0
15644,54.3,8.2894,0,0.43804,0,15659,51.741,10.858,-2.3579,0.5482,2.4967,0.18846,0
15644,54.3,8.2894,0,0.43804,0,15659,51.741,10.858,-2.3579,0.5482,2.4967,0.18846,0
15644,54.3,8.2894,0,0.43804,0,15659,51.741,10.858,-2.3579,0.5482,2.4967,0.18846,0
15644,54.3,8.2894,0,0.43804,0,15660,51.695,10.869,-2.3064,0.54961,2.5604,0.18588,0
15644,54.3,8.2894,0,0.43804,0,15660,51.695,10.869,-2.3064,0.54961,2.5604,0.18588,0
15644,54.3,8.2894,0,0.43804,0,15660,51.695,10.869,-2.3064,0.54961,2.5604,0.18588,0
15644,54.3,8.2894,0,0.43804,0,15660,51.695,10.869,-2.3064,0.54961,2.5604,0.18588,0
15644,54.3,8.2894,0,0.43804,0,15660,51.695,10.869,-2.3064,0.54961,2.5604,0.18588,0
15644,54.3,8.2894,0,0.43804,0,15660,51.695,10.869,-2.3064,0.54961,2.5604,0.18588,0
15644,54.3,8.2894,0,0.43804,0,15660,51.695,10.869,-2.3064,0.54961,2.5604,0.18588,0
15644,54.3,8.2894,0,0.43804,0,15660,51.695,10.869,-2.3064,0.54961,2.5604,0.18588,0
15644,54.3,8.2894,0,0.43804,0,15660,51.695,10.869,-2.3064,0.54961,2.5604,0.18588,0
15644,54.3,8.2894,0,0.43804,0,15660,51.649,10.88,-2.2536,0.54993,2.6231,0.18338,0
15644,54.3,8.2894,0,0.43804,0,15660,51.649,10.88,-2.2536,0.54993,2.6231,0.18338,0
15644,54.3,8.2894,0,0.43804,0,15660,51.649,10.88,-2.2536,0.54993,2.6231,0.18338,0
15645,54.3,8.3464,0,0.68382,0,15660,51.649,10.88,-2.2536,0.54993,2.6231,0.19318,0
15646,54.3,8.4066,0,0.81486,0,15661,51.479,10.924,-2.0305,0.54004,2.8636,0.19053,0
15646,54.3,8.4066,0,0.81486,0,15661,51.479,10.924,-2.0305,0.54004,2.8636,0.19053,0
15646,54.3,8.4578,0,0.88721,0,15661,51.363,10.956,-1.8511,0.52065,3.0304,0.18863,0
15646,54.3,8.4578,0,0.88721,0,15662,51.259,10.986,-1.6633,0.48655,3.1525,0.18113,0
15646,54.3,8.4578,0,0.88721,0,15662,51.226,10.995,-1.5999,0.46971,3.1641,0.17877,0
15646,54.3,8.4578,0,0.88721,0,15662,51.226,10.995,-1.5999,0.46971,3.1641,0.17877,0
15647,54.3,8.5128,0,0.94272,0,15662,51.226,10.995,-1.5999,0.46971,3.1641,0.18429,0
15647,54.3,8.5128,0,0.94272,0,15662,51.226,10.995,-1.5999,0.46971,3.1641,0.18429,0
15647,54.3,8.5128,0,0.94272,0,15662,51.226,10.995,-1.5999,0.46971,3.1641,0.18429,0
15647,54.3,8.5128,0,0.94272,0,15662,51.226,10.995,-1.5999,0.46971,3.1641,0.18429,0
15647,54.3,8.5128,0,0.94272,0,15662,51.226,10.995,-1.5999,0.46971,3.1641,0.18429,0
15647,54.3,8.5128,0,0.94272,0,15662,51.226,10.995,-1.5999,0.46971,3.1641,0.18429,0
15647,54.3,8.5128,0,0.94272,0,15662,51.226,10.995,-1.5999,0.46971,3.1641,0.18429,0
15647,54.3,8.5128,0,0.94272,0,15662,51.226,10.995,-1.5999,0.46971,3.1641,0.18429,0
15647,54.3,8.5128,0,0.94272,0,15662,51.226,10.995,-1.5999,0.46971,3.1641,0.18429,0
15647,54.3,8.5128,0,0.94272,0,15662,51.226,10.995,-1.5999,0.46971,3.1641,0.18429,0
15647,54.3,8.5128,0,0.94272,0,15662,51.226,10.995,-1.5999,0.46971,3.1641,0.18429,0
15647,54.3,8.5128,0,0.94272,0,15663,51.166,11.013,-1.4738,0.43042,3.1478,0.17946,0
15647,54.3,8.5128,0,0.94272,0,15663,51.166,11.013,-1.4738,0.43042,3.1478,0.17946,0
15647,54.3,8.5128,0,0.94272,0,15663,51.166,11.013,-1.4738,0.43042,3.1478,0.17946,0
15647,54.3,8.5128,0,0.94272,0,15663,51.166,11.013,-1.4738,0.43042,3.1478,0.17946,0
15647,54.3,8.5128,0,0.94272,0,15663,51.166,11.013,-1.4738,0.43042,3.1478,0.17946,0
15647,54.3,8.5128,0,0.94272,0,15663,51.166,11.013,-1.4738,0.43042,3.1478,0.17946,0
15647,54.3,8.5128,0,0.94272,0,15663,51.137,11.021,-1.4115,0.4089,3.1225,0.17714,0
15647,54.3,8.5128,0,0.94272,0,15663,51.137,11.021,-1.4115,0.4089,3.1225,0.17714,0
15647,54.3,8.5128,0,0.94272,0,15663,51.137,11.021,-1.4115,0.4089,3.1225,0.17714,0
15647,54.3,8.5128,0,0.94272,0,15663,51.137,11.021,-1.4115,0.4089,3.1225,0.17714,0
15647,54.3,8.5128,0,0.94272,0,15663,51.11,11.029,-1.3499,0.38667,3.0873,0.17488,0
15648,54.3,8.651,0,1.0216,0,15663,51.11,11.029,-1.3499,0.38667,3.0873,0.1878,0
15648,54.3,8.651,0,1.0216,0,15663,51.11,11.029,-1.3499,0.38667,3.0873,0.1878,0
15648,54.3,8.651,0,1.0216,0,15663,51.11,11.029,-1.3499,0.38667,3.0873,0.1878,0
15648,54.3,8.7128,0,1.038,0,15663,51.11,11.029,-1.3499,0.38667,3.0873,0.19399,0
15648,54.3,8.7128,0,1.038,0,15663,51.11,11.029,-1.3499,0.38667,3.0873,0.19399,0
15649,54.3,8.7336,0,1.0416,0,15663,51.11,11.029,-1.3499,0.38667,3.0873,0.19615,0
15649,54.3,8.7545,0,1.0443,0,15663,51.11,11.029,-1.3499,0.38667,3.0873,0.19837,0
15649,54.3,8.7545,0,1.0443,0,15665,50.899,11.082,-0.80383,0.17964,2.4043,0.17328,0
15649,54.3,8.7545,0,1.0443,0,15666,50.884,11.085,-0.75787,0.16346,2.3196,0.17112,0
15649,54.3,8.7545,0,1.0443,0,15666,50.884,11.085,-0.75787,0.16346,2.3196,0.17112,0
15649,54.3,8.8172,0,1.0476,0,15666,50.884,11.085,-0.75787,0.16346,2.3196,0.1763,0
15650,54.3,8.8382,0,1.0472,0,15666,50.884,11.085,-0.75787,0.16346,2.3196,0.17811,0
15650,54.3,8.8382,0,1.0472,0,15666,50.884,11.085,-0.75787,0.16346,2.3196,0.17811,0
15650,54.3,8.8382,0,1.0472,0,15666,50.884,11.085,-0.75787,0.16346,2.3196,0.17811,0
15650,54.3,8.8382,0,1.0472,0,15666,50.884,11.085,-0.75787,0.16346,2.3196,0.17811,0
15650,54.3,8.8382,0,1.0472,0,15666,50.884,11.085,-0.75787,0.16346,2.3196,0.17811,0
15650,54.3,8.8382,0,1.0472,0,15666,50.884,11.085,-0.75787,0.16346,2.3196,0.17811,0
15650,54.3,8.8382,0,1.0472,0,15666,50.884,11.085,-0.75787,0.16346,2.3196,0.17811,0
15650,54.3,8.8591,0,1.0461,0,15666,50.884,11.085,-0.75787,0.16346,2.3196,0.17995,0
15650,54.3,8.88,0,1.0444,0,15666,50.884,11.085,-0.75787,0.16346,2.3196,0.18184,0
15650,54.3,8.88,0,1.0444,0,15666,50.884,11.085,-0.75787,0.16346,2.3196,0.18184,0
15650,54.3,8.88,0,1.0444,0,15666,50.884,11.085,-0.75787,0.16346,2.3196,0.18184,0
15650,54.3,8.88,0,1.0444,0,15666,50.884,11.085,-0.75787,0.16346,2.3196,0.18184,0
15650,54.3,8.88,0,1.0444,0,15666,50.884,11.085,-0.75787,0.16346,2.3196,0.18184,0
15650,54.3,8.88,0,1.0444,0,15666,50.884,11.085,-0.75787,0.16346,2.3196,0.18184,0
15650,54.3,8.88,0,1.0444,0,15666,50.884,11.085,-0.75787,0.16346,2.3196,0.18184,0
15650,54.3,8.9009,0,1.0421,0,15666,50.884,11.085,-0.75787,0.16346,2.3196,0.18377,0
15651,54.3,8.9631,0,1.032,0,15667,50.8,11.101,-0.48375,0.078005,1.7281,0.17309,0
15651,54.3,8.9631,0,1.032,0,15667,50.8,11.101,-0.48375,0.078005,1.7281,0.17309,0
15651,54.3,8.9631,0,1.032,0,15667,50.8,11.101,-0.48375,0.078005,1.7281,0.17309,0
15651,54.3,9.0042,0,1.0228,0,15668,50.782,11.103,-0.42022,0.061591,1.5687,0.17223,0
15651,54.3,9.0042,0,1.0228,0,15668,50.76,11.106,-0.33632,0.042312,1.3435,0.16598,0
15651,54.3,9.0042,0,1.0228,0,15668,50.76,11.106,-0.33632,0.042312,1.3435,0.16598,0
15651,54.3,9.0042,0,1.0228,0,15668,50.76,11.106,-0.33632,0.042312,1.3435,0.16598,0
15651,54.3,9.0042,0,1.0228,0,15668,50.76,11.106,-0.33632,0.042312,1.3435,0.16598,0
15651,54.3,9.0042,0,1.0228,0,15668,50.76,11.106,-0.33632,0.042312,1.3435,0.16598,0
15651,54.3,9.0042,0,1.0228,0,15668,50.76,11.106,-0.33632,0.042312,1.3435,0.16598,0
15651,54.3,9.0042,0,1.0228,0,15668,50.76,11.106,-0.33632,0.042312,1.3435,0.16598,0
15652,54.3,9.0852,0,0.99976,0,15669,50.753,11.107,-0.31123,0.037119,1.2726,0.17059,0
15652,54.3,9.0852,0,0.99976,0,15669,50.753,11.107,-0.31123,0.037119,1.2726,0.17059,0
15652,54.3,9.0852,0,0.99976,0,15669,50.753,11.107,-0.31123,0.037119,1.2726,0.17059,0
15652,54.3,9.0852,0,0.99976,0,15669,50.753,11.107,-0.31123,0.037119,1.2726,0.17059,0
15652,54.3,9.0852,0,0.99976,0,15669,50.753,11.107,-0.31123,0.037119,1.2726,0.17059,0
15652,54.3,9.0852,0,0.99976,0,15669,50.753,11.107,-0.31123,0.037119,1.2726,0.17059,0
15652,54.3,9.0852,0,0.99976,0,15669,50.753,11.107,-0.31123,0.037119,1.2726,0.17059,0
15652,54.3,9.0852,0,0.99976,0,15669,50.753,11.107,-0.31123,0.037119,1.2726,0.17059,0
15652,54.3,9.0852,0,0.99976,0,15669,50.753,11.107,-0.31123,0.037119,1.2726,0.17059,0
15652,54.3,9.0852,0,0.99976,0,15669,50.753,11.107,-0.31123,0.037119,1.2726,0.17059,0
15652,54.3,9.0852,0,0.99976,0,15669,50.753,11.107,-0.31123,0.037119,1.2726,0.17059,0
15652,54.3,9.1249,0,0.98629,0,15669,50.742,11.108,-0.26509,0.02831,1.1374,0.16981,0
15652,54.3,9.1249,0,0.98629,0,15669,50.742,11.108,-0.26509,0.02831,1.1374,0.16981,0
15652,54.3,9.1249,0,0.98629,0,15670,50.728,11.109,-0.20529,0.018408,0.95199,0.16375,0
15652,54.3,9.1249,0,0.98629,0,15670,50.728,11.109,-0.20529,0.018408,0.95199,0.16375,0
15652,54.3,9.1249,0,0.98629,0,15670,50.724,11.11,-0.18768,0.015838,0.89485,0.16182,0
15653,54.3,9.2593,0,0.93204,0,15670,50.718,11.11,-0.15567,0.011593,0.78754,0.16932,0
15653,54.3,9.2593,0,0.93204,0,15670,50.718,11.11,-0.15567,0.011593,0.78754,0.16932,0
15653,54.3,9.2593,0,0.93204,0,15670,50.718,11.11,-0.15567,0.011593,0.78754,0.16932,0
15653,54.3,9.2593,0,0.93204,0,15671,50.71,11.111,-0.11499,0.0070342,0.64361,0.1633,0
15653,54.3,9.2593,0,0.93204,0,15671,50.71,11.111,-0.11499,0.0070342,0.64361,0.1633,0
15653,54.3,9.2593,0,0.93204,0,15671,50.71,11.111,-0.11499,0.0070342,0.64361,0.1633,0
15653,54.3,9.2593,0,0.93204,0,15671,50.71,11.111,-0.11499,0.0070342,0.64361,0.1633,0
15653,54.3,9.2593,0,0.93204,0,15671,50.708,11.111,-0.10321,0.0058981,0.60003,0.16139,0
15654,54.3,9.3145,0,0.90655,0,15671,50.708,11.111,-0.10321,0.0058981,0.60003,0.16626,0
15654,54.3,9.3145,0,0.90655,0,15671,50.708,11.111,-0.10321,0.0058981,0.60003,0.16626,0
15654,54.3,9.3145,0,0.90655,0,15671,50.708,11.111,-0.10321,0.0058981,0.60003,0.16626,0
15654,54.3,9.3145,0,0.90655,0,15671,50.708,11.111,-0.10321,0.0058981,0.60003,0.16626,0
15654,54.3,9.3145,0,0.90655,0,15671,50.708,11.111,-0.10321,0.0058981,0.60003,0.16626,0
15654,54.3,9.3145,0,0.90655,0,15671,50.708,11.111,-0.10321,0.0058981,0.60003,0.16626,0
15654,54.3,9.3145,0,0.90655,0,15672,50.704,11.111,-0.082067,0.0040774,0.51918,0.16234,0
15654,54.3,9.3145,0,0.90655,0,15672,50.703,11.111,-0.07262,0.003358,0.48181,0.16045,0
15654,54.3,9.3681,0,0.88034,0,15672,50.703,11.111,-0.07262,0.003358,0.48181,0.1653,0
15654,54.3,9.3681,0,0.88034,0,15672,50.7,11.111,-0.055784,0.0022262,0.41286,0.16143,0
15654,54.3,9.3681,0,0.88034,0,15672,50.7,11.111,-0.055784,0.0022262,0.41286,0.16143,0
15655,54.3,9.4371,0,0.84486,0,15673,50.699,11.111,-0.048322,0.0017885,0.38117,0.16605,0
15655,54.3,9.4371,0,0.84486,0,15673,50.699,11.111,-0.048322,0.0017885,0.38117,0.16605,0
15655,54.3,9.4371,0,0.84486,0,15673,50.699,11.111,-0.048322,0.0017885,0.38117,0.16605,0
15655,54.3,9.4371,0,0.84486,0,15673,50.697,11.111,-0.029336,0.00086189,0.29648,0.16027,0
15655,54.3,9.4371,0,0.84486,0,15673,50.697,11.111,-0.029336,0.00086189,0.29648,0.16027,0
15655,54.3,9.4371,0,0.84486,0,15673,50.697,11.111,-0.029336,0.00086189,0.29648,0.16027,0
15655,54.3,9.4371,0,0.84486,0,15673,50.697,11.111,-0.029336,0.00086189,0.29648,0.16027,0
15655,54.3,9.4371,0,0.84486,0,15673,50.697,11.111,-0.029336,0.00086189,0.29648,0.16027,0
15655,54.3,9.4371,0,0.84486,0,15673,50.697,11.111,-0.029336,0.00086189,0.29648,0.16027,0
15656,54.3,9.4705,0,0.82707,0,15673,50.697,11.111,-0.029336,0.00086189,0.29648,0.1635,0
15656,54.3,9.4705,0,0.82707,0,15673,50.697,11.111,-0.029336,0.00086189,0.29648,0.1635,0
15656,54.3,9.4705,0,0.82707,0,15673,50.697,11.111,-0.029336,0.00086189,0.29648,0.1635,0
15656,54.3,9.4705,0,0.82707,0,15673,50.697,11.111,-0.029336,0.00086189,0.29648,0.1635,0
15656,54.3,9.4705,0,0.82707,0,15673,50.697,11.111,-0.029336,0.00086189,0.29648,0.1635,0
15656,54.3,9.4705,0,0.82707,0,15673,50.697,11.111,-0.029336,0.00086189,0.29648,0.1635,0
15656,54.3,9.4705,0,0.82707,0,15673,50.697,11.111,-0.029336,0.00086189,0.29648,0.1635,0
15656,54.3,9.4705,0,0.82707,0,15673,50.697,11.111,-0.029336,0.00086189,0.29648,0.1635,0
15656,54.3,9.4705,0,0.82707,0,15674,50.696,11.111,-0.019191,0.00048378,0.24803,0.15971,0
15656,54.3,9.5032,0,0.80935,0,15674,50.696,11.111,-0.019191,0.00048378,0.24803,0.16293,0
15657,54.3,9.551,0,0.78301,0,15674,50.695,11.111,-0.01078,0.00023725,0.2054,0.16404,0
15657,54.3,9.5666,0,0.77432,0,15674,50.695,11.111,-0.01078,0.00023725,0.2054,0.16573,0
15657,54.3,9.5666,0,0.77432,0,15675,50.695,11.111,0.0061169,-4.8795e-05,0.10754,0.15458,0
15657,54.3,9.5666,0,0.77432,0,15675,50.695,11.111,0.0061169,-4.8795e-05,0.10754,0.15458,0
15658,54.3,9.6271,0,0.73949,0,15675,50.695,11.111,0.0061169,-4.8795e-05,0.10754,0.16082,0
15658,54.3,9.6271,0,0.73949,0,15675,50.695,11.111,0.0061169,-4.8795e-05,0.10754,0.16082,0
15658,54.3,9.6271,0,0.73949,0,15675,50.695,11.111,0.0061169,-4.8795e-05,0.10754,0.16082,0
15658,54.3,9.6271,0,0.73949,0,15675,50.695,11.111,0.0061169,-4.8795e-05,0.10754,0.16082,0
15658,54.3,9.6271,0,0.73949,0,15675,50.695,11.111,0.0061169,-4.8795e-05,0.10754,0.16082,0
15658,54.3,9.6271,0,0.73949,0,15675,50.695,11.111,0.0061169,-4.8795e-05,0.10754,0.16082,0
15658,54.3,9.6271,0,0.73949,0,15675,50.695,11.111,0.0061169,-4.8795e-05,0.10754,0.16082,0
15658,54.3,9.6271,0,0.73949,0,15675,50.695,11.111,0.0061169,-4.8795e-05,0.10754,0.16082,0
15658,54.3,9.6271,0,0.73949,0,15675,50.695,11.111,0.0061169,-4.8795e-05,0.10754,0.16082,0
15658,54.3,9.6271,0,0.73949,0,15675,50.695,11.111,0.0061169,-4.8795e-05,0.10754,0.16082,0
15658,54.3,9.6271,0,0.73949,0,15675,50.695,11.111,0.0061169,-4.8795e-05,0.10754,0.16082,0
15658,54.3,9.6271,0,0.73949,0,15676,50.696,11.111,0.0095618,-6.5509e-05,0.083396,0.15715,0
15658,54.3,9.6271,0,0.73949,0,15676,50.696,11.111,0.0095618,-6.5509e-05,0.083396,0.15715,0
15658,54.3,9.6271,0,0.73949,0,15676,50.696,11.111,0.0095618,-6.5509e-05,0.083396,0.15715,0
15658,54.3,9.6271,0,0.73949,0,15676,50.696,11.111,0.0095618,-6.5509e-05,0.083396,0.15715,0
15658,54.3,9.6271,0,0.73949,0,15676,50.696,11.111,0.0095618,-6.5509e-05,0.083396,0.15715,0
15658,54.3,9.6271,0,0.73949,0,15676,50.696,11.111,0.0095618,-6.5509e-05,0.083396,0.15715,0
15658,54.3,9.6271,0,0.73949,0,15676,50.696,11.111,0.010961,-6.6936e-05,0.072673,0.15538,0
15658,54.3,9.699,0,0.69723,0,15676,50.696,11.111,0.012166,-6.5196e-05,0.062784,0.16147,0
15658,54.3,9.699,0,0.69723,0,15677,50.697,11.111,0.015348,-4.1481e-05,0.030643,0.15425,0
15659,54.3,9.7401,0,0.67337,0,15677,50.697,11.111,0.015348,-4.1481e-05,0.030643,0.15892,0
15659,54.3,9.7401,0,0.67337,0,15678,50.698,11.111,0.016374,-1.9223e-05,0.01315,0.1536,0
15659,54.3,9.7401,0,0.67337,0,15678,50.699,11.111,0.016517,-1.2387e-05,0.0083747,0.15191,0
15659,54.3,9.7401,0,0.67337,0,15678,50.699,11.111,0.016517,-1.2387e-05,0.0083747,0.15191,0
15659,54.3,9.7401,0,0.67337,0,15678,50.699,11.111,0.016517,-1.2387e-05,0.0083747,0.15191,0
15659,54.3,9.7401,0,0.67337,0,15678,50.699,11.111,0.016517,-1.2387e-05,0.0083747,0.15191,0
15659,54.3,9.7401,0,0.67337,0,15678,50.699,11.111,0.016517,-1.2387e-05,0.0083747,0.15191,0
15659,54.3,9.7401,0,0.67337,0,15678,50.699,11.111,0.016517,-1.2387e-05,0.0083747,0.15191,0
15659,54.3,9.7401,0,0.67337,0,15678,50.699,11.111,0.016517,-1.2387e-05,0.0083747,0.15191,0
15660,54.3,9.7927,0,0.64314,0,15678,50.699,11.111,0.016517,-1.2387e-05,0.0083747,0.15804,0
15660,54.3,9.7927,0,0.64314,0,15678,50.699,11.111,0.016517,-1.2387e-05,0.0083747,0.15804,0
15660,54.3,9.7927,0,0.64314,0,15678,50.699,11.111,0.016517,-1.2387e-05,0.0083747,0.15804,0
15660,54.3,9.7927,0,0.64314,0,15678,50.699,11.111,0.016517,-1.2387e-05,0.0083747,0.15804,0
15660,54.3,9.7927,0,0.64314,0,15678,50.699,11.111,0.016517,-1.2387e-05,0.0083747,0.15804,0
15660,54.3,9.7927,0,0.64314,0,15678,50.699,11.111,0.016517,-1.2387e-05,0.0083747,0.15804,0
15660,54.3,9.7927,0,0.64314,0,15678,50.699,11.111,0.016517,-1.2387e-05,0.0083747,0.15804,0
15660,54.3,9.7927,0,0.64314,0,15678,50.699,11.111,0.016517,-1.2387e-05,0.0083747,0.15804,0
15660,54.3,9.7927,0,0.64314,0,15679,50.699,11.111,0.016561,-3.0544e-07,0.00020495,0.15449,0
15660,54.3,9.7927,0,0.64314,0,15679,50.699,11.111,0.016561,-3.0544e-07,0.00020495,0.15449,0
15660,54.3,9.7927,0,0.64314,0,15679,50.699,11.111,0.016561,-3.0544e-07,0.00020495,0.15449,0
15660,54.3,9.7927,0,0.64314,0,15679,50.7,11.111,0.016478,4.8327e-06,-0.0032522,0.15278,0
15661,54.3,9.843,0,0.61458,0,15679,50.7,11.111,0.016478,4.8327e-06,-0.0032522,0.15902,0
15661,54.3,9.8911,0,0.58754,0,15679,50.7,11.111,0.015899,1.6509e-05,-0.011455,0.16004,0
15661,54.3,9.8911,0,0.58754,0,15679,50.7,11.111,0.015899,1.6509e-05,-0.011455,0.16004,0
15661,54.3,9.8911,0,0.58754,0,15679,50.7,11.111,0.015899,1.6509e-05,-0.011455,0.16004,0
15662,54.3,9.9143,0,0.57457,0,15680,50.702,11.111,0.014581,2.4267e-05,-0.018263,0.15602,0
15662,54.3,9.9258,0,0.56821,0,15680,50.702,11.111,0.014581,2.4267e-05,-0.018263,0.15762,0
15662,54.3,9.9258,0,0.56821,0,15680,50.702,11.111,0.014581,2.4267e-05,-0.018263,0.15762,0
15662,54.3,9.9258,0,0.56821,0,15680,50.702,11.111,0.014581,2.4267e-05,-0.018263,0.15762,0
15662,54.3,9.9258,0,0.56821,0,15680,50.702,11.111,0.014581,2.4267e-05,-0.018263,0.15762,0
15662,54.3,9.9258,0,0.56821,0,15680,50.702,11.111,0.014581,2.4267e-05,-0.018263,0.15762,0
15662,54.3,9.9258,0,0.56821,0,15680,50.702,11.111,0.014581,2.4267e-05,-0.018263,0.15762,0
15662,54.3,9.9258,0,0.56821,0,15680,50.702,11.111,0.014581,2.4267e-05,-0.018263,0.15762,0
15662,54.3,9.9258,0,0.56821,0,15680,50.702,11.111,0.014581,2.4267e-05,-0.018263,0.15762,0
15662,54.3,9.9371,0,0.56193,0,15680,50.702,11.111,0.014581,2.4267e-05,-0.018263,0.15925,0
15662,54.3,9.9371,0,0.56193,0,15680,50.702,11.111,0.014581,2.4267e-05,-0.018263,0.15925,0
15662,54.3,9.9371,0,0.56193,0,15680,50.702,11.111,0.014581,2.4267e-05,-0.018263,0.15925,0
15662,54.3,9.9371,0,0.56193,0,15680,50.702,11.111,0.014581,2.4267e-05,-0.018263,0.15925,0
15662,54.3,9.9371,0,0.56193,0,15680,50.702,11.111,0.014581,2.4267e-05,-0.018263,0.15925,0
15662,54.3,9.9371,0,0.56193,0,15680,50.702,11.111,0.014581,2.4267e-05,-0.018263,0.15925,0
15662,54.3,9.9482,0,0.55574,0,15680,50.702,11.111,0.014581,2.4267e-05,-0.018263,0.16091,0
15662,54.3,9.9482,0,0.55574,0,15680,50.702,11.111,0.014581,2.4267e-05,-0.018263,0.16091,0
15662,54.3,9.9482,0,0.55574,0,15680,50.702,11.111,0.014581,2.4267e-05,-0.018263,0.16091,0
15662,54.3,9.9482,0,0.55574,0,15680,50.702,11.111,0.014581,2.4267e-05,-0.018263,0.16091,0
15663,54.3,9.9702,0,0.5436,0,15680,50.702,11.111,0.014581,2.4267e-05,-0.018263,0.16434,0
15663,54.3,9.9702,0,0.5436,0,15680,50.702,11.111,0.014581,2.4267e-05,-0.018263,0.16434,0
15663,54.3,9.9702,0,0.5436,0,15682,50.704,11.111,0.011129,2.2988e-05,-0.022497,0.15003,0
15663,54.3,9.9702,0,0.5436,0,15682,50.704,11.111,0.011129,2.2988e-05,-0.022497,0.15003,0
15664,54.3,10.013,0,0.52024,0,15682,50.704,11.111,0.011129,2.2988e-05,-0.022497,0.15615,0
15664,54.3,10.043,0,0.50351,0,15683,50.704,11.111,0.0097932,1.9915e-05,-0.022096,0.15564,0
15664,54.3,10.043,0,0.50351,0,15683,50.704,11.111,0.0097932,1.9915e-05,-0.022096,0.15564,0
15664,54.3,10.043,0,0.50351,0,15683,50.704,11.111,0.0097932,1.9915e-05,-0.022096,0.15564,0
15664,54.3,10.043,0,0.50351,0,15683,50.704,11.111,0.0097932,1.9915e-05,-0.022096,0.15564,0
15664,54.3,10.053,0,0.49808,0,15683,50.704,11.111,0.0097932,1.9915e-05,-0.022096,0.15725,0
15664,54.3,10.053,0,0.49808,0,15683,50.704,11.111,0.0097932,1.9915e-05,-0.022096,0.15725,0
15665,54.3,10.063,0,0.49271,0,15683,50.704,11.111,0.0097932,1.9915e-05,-0.022096,0.15889,0
15665,54.3,10.063,0,0.49271,0,15683,50.704,11.111,0.0097932,1.9915e-05,-0.022096,0.15889,0
15665,54.3,10.063,0,0.49271,0,15683,50.704,11.111,0.0097932,1.9915e-05,-0.022096,0.15889,0
15665,54.3,10.063,0,0.49271,0,15683,50.704,11.111,0.0097932,1.9915e-05,-0.022096,0.15889,0
15665,54.3,10.063,0,0.49271,0,15683,50.704,11.111,0.0097932,1.9915e-05,-0.022096,0.15889,0
15665,54.3,10.063,0,0.49271,0,15683,50.704,11.111,0.0097932,1.9915e-05,-0.022096,0.15889,0
15665,54.3,10.063,0,0.49271,0,15683,50.704,11.111,0.0097932,1.9915e-05,-0.022096,0.15889,0
15665,54.3,10.063,0,0.49271,0,15683,50.704,11.111,0.0097932,1.9915e-05,-0.022096,0.15889,0
15665,54.3,10.073,0,0.48741,0,15683,50.704,11.111,0.0097932,1.9915e-05,-0.022096,0.16057,0
15665,54.3,10.073,0,0.48741,0,15684,50.705,11.031,0.0072586,-4,-0.022131,0.14948,0
15665,54.3,10.073,0,0.48741,0,15684,50.706,10.951,0.0068353,-4,-0.021249,0.1473,0
15665,54.3,10.073,0,0.48741,0,15684,50.706,10.951,0.0068353,-4,-0.021249,0.1473,0
15666,54.3,10.108,0,0.098566,0,15685,50.706,10.871,0.0064296,-4,-0.020371,0.15259,0
15666,54.3,10.108,0,0.098566,0,15685,50.706,10.871,0.0064296,-4,-0.020371,0.15259,0
15666,54.3,10.108,0,0.098566,0,15685,50.706,10.551,0.0049788,-4,-0.016965,0.14397,0
15666,54.3,10.108,0,0.098566,0,15685,50.706,10.551,0.0049788,-4,-0.016965,0.14397,0
15666,54.3,10.108,0,0.098566,0,15685,50.706,10.551,0.0049788,-4,-0.016965,0.14397,0
15666,54.3,10.108,0,0.098566,0,15685,50.706,10.551,0.0049788,-4,-0.016965,0.14397,0
15666,54.3,10.108,0,0.098566,0,15685,50.706,10.551,0.0049788,-4,-0.016965,0.14397,0
15666,54.3,10.108,0,0.098566,0,15685,50.706,10.551,0.0049788,-4,-0.016965,0.14397,0
15666,54.3,10.108,0,0.098566,0,15685,50.706,10.551,0.0049788,-4,-0.016965,0.14397,0
15666,54.3,10.108,0,0.098566,0,15685,50.706,10.551,0.0049788,-4,-0.016965,0.14397,0
15666,54.3,10.108,0,0.098566,0,15685,50.706,10.551,0.0049788,-4,-0.016965,0.14397,0
15666,54.3,10.108,0,0.098566,0,15685,50.706,10.551,0.0049788,-4,-0.016965,0.14397,0
15666,54.3,10.104,0,-0.21843,0,15685,50.706,10.551,0.0049788,-4,-0.016965,0.14834,0
15666,54.3,10.104,0,-0.21843,0,15685,50.706,10.551,0.0049788,-4,-0.016965,0.14834,0
15666,54.3,10.104,0,-0.21843,0,15685,50.706,10.551,0.0049788,-4,-0.016965,0.14834,0
15666,54.3,10.104,0,-0.21843,0,15685,50.706,10.551,0.0049788,-4,-0.016965,0.14834,0
15666,54.3,10.104,0,-0.21843,0,15685,50.706,10.551,0.0049788,-4,-0.016965,0.14834,0
15666,54.3,10.104,0,-0.21843,0,15685,50.706,10.551,0.0049788,-4,-0.016965,0.14834,0
15667,54.3,10.099,0,-0.31846,0,15685,50.706,10.551,0.0049788,-4,-0.016965,0.14985,0
15667,54.3,10.099,0,-0.31846,0,15685,50.706,10.551,0.0049788,-4,-0.016965,0.14985,0
15667,54.3,10.091,0,-0.41536,0,15685,50.706,10.551,0.0049788,-4,-0.016965,0.15139,0
15668,54.3,10.044,0,-0.76957,0,15687,50.707,10.071,0.0032817,-4,-0.012391,0.14468,0
15668,54.3,10.044,0,-0.76957,0,15687,50.707,10.071,0.0032817,-4,-0.012391,0.14468,0
15668,54.3,9.9905,0,-0.99881,0,15687,50.707,9.8311,0.0026236,-4,-0.010412,0.14301,0
15668,54.3,9.9905,0,-0.99881,0,15687,50.707,9.8311,0.0026236,-4,-0.010412,0.14301,0
15668,54.3,9.9905,0,-0.99881,0,15688,50.707,9.6711,0.0022465,-4,-0.0092149,0.13918,0
15668,54.3,9.9905,0,-0.99881,0,15688,50.707,9.6711,0.0022465,-4,-0.0092149,0.13918,0
15668,54.3,9.9905,0,-0.99881,0,15688,50.707,9.5911,0.0020749,-4,-0.0086533,0.13733,0
15668,54.3,9.9905,0,-0.99881,0,15688,50.707,9.5111,0.0019141,-4,-0.0081161,0.13553,0
15668,54.3,9.9905,0,-0.99881,0,15688,50.707,9.5111,0.0019141,-4,-0.0081161,0.13553,0
15668,54.3,9.9905,0,-0.99881,0,15688,50.707,9.5111,0.0019141,-4,-0.0081161,0.13553,0
15668,54.3,9.9905,0,-0.99881,0,15688,50.707,9.5111,0.0019141,-4,-0.0081161,0.13553,0
15668,54.3,9.9905,0,-0.99881,0,15688,50.707,9.5111,0.0019141,-4,-0.0081161,0.13553,0
15668,54.3,9.9905,0,-0.99881,0,15688,50.707,9.4311,0.0017634,-4,-0.0076029,0.13378,0
15668,54.3,9.9905,0,-0.99881,0,15688,50.707,9.4311,0.0017634,-4,-0.0076029,0.13378,0
15668,54.3,9.9905,0,-0.99881,0,15688,50.707,9.3511,0.0016225,-4,-0.0071135,0.13207,0
15668,54.3,9.9905,0,-0.99881,0,15688,50.707,9.3511,0.0016225,-4,-0.0071135,0.13207,0
15668,54.3,9.9905,0,-0.99881,0,15688,50.707,9.3511,0.0016225,-4,-0.0071135,0.13207,0
15668,54.3,9.9905,0,-0.99881,0,15688,50.707,9.3511,0.0016225,-4,-0.0071135,0.13207,0
15668,54.3,9.9905,0,-0.99881,0,15688,50.707,9.3511,0.0016225,-4,-0.0071135,0.13207,0
15668,54.3,9.9905,0,-0.99881,0,15688,50.707,9.3511,0.0016225,-4,-0.0071135,0.13207,0
15668,54.3,9.9905,0,-0.99881,0,15688,50.707,9.3511,0.0016225,-4,-0.0071135,0.13207,0
15668,54.3,9.9905,0,-0.99881,0,15688,50.707,9.3511,0.0016225,-4,-0.0071135,0.13207,0
15668,54.3,9.9905,0,-0.99881,0,15688,50.707,9.3511,0.0016225,-4,-0.0071135,0.13207,0
15669,54.3,9.8474,0,-1.3674,0,15688,50.707,9.3511,0.0016225,-4,-0.0071135,0.13996,0
15669,54.3,9.8474,0,-1.3674,0,15689,50.707,9.1111,0.0012536,-4,-0.0057832,0.13458,0
15669,54.3,9.8474,0,-1.3674,0,15689,50.707,9.1111,0.0012536,-4,-0.0057832,0.13458,0
15669,54.3,9.8474,0,-1.3674,0,15689,50.707,9.0311,0.0011471,-4,-0.005384,0.13287,0
15669,54.3,9.8474,0,-1.3674,0,15689,50.707,9.0311,0.0011471,-4,-0.005384,0.13287,0
15671,54.3,9.6334,0,-1.6712,0,15689,50.707,8.9511,0.0010481,-4,-0.0050059,0.14039,0
15671,54.3,9.6334,0,-1.6712,0,15689,50.707,8.9511,0.0010481,-4,-0.0050059,0.14039,0
15671,54.3,9.6334,0,-1.6712,0,15690,50.707,8.6311,0.00071906,-4,-0.0036922,0.13339,0
15671,54.3,9.6334,0,-1.6712,0,15690,50.707,8.6311,0.00071906,-4,-0.0036922,0.13339,0
15671,54.3,9.6334,0,-1.6712,0,15690,50.707,8.5511,0.0006517,-4,-0.00341,0.13175,0
15671,54.3,9.6334,0,-1.6712,0,15690,50.707,8.4711,0.0005896,-4,-0.003145,0.13014,0
15671,54.3,9.6334,0,-1.6712,0,15690,50.707,8.4711,0.0005896,-4,-0.003145,0.13014,0
15671,54.3,9.6334,0,-1.6712,0,15690,50.707,8.4711,0.0005896,-4,-0.003145,0.13014,0
15671,54.3,9.6334,0,-1.6712,0,15690,50.707,8.4711,0.0005896,-4,-0.003145,0.13014,0
15671,54.3,9.6334,0,-1.6712,0,15690,50.707,8.4711,0.0005896,-4,-0.003145,0.13014,0
15671,54.3,9.6334,0,-1.6712,0,15691,50.707,8.3911,0.00053243,-4,-0.0028963,0.12857,0
15671,54.3,9.6334,0,-1.6712,0,15691,50.707,8.3911,0.00053243,-4,-0.0028963,0.12857,0
15671,54.3,9.6334,0,-1.6712,0,15691,50.707,8.3911,0.00053243,-4,-0.0028963,0.12857,0
15671,54.3,9.6334,0,-1.6712,0,15691,50.707,8.3111,0.00047987,-4,-0.0026633,0.12704,0
15671,54.3,9.6334,0,-1.6712,0,15691,50.707,8.3111,0.00047987,-4,-0.0026633,0.12704,0
15671,54.3,9.6334,0,-1.6712,0,15691,50.707,8.3111,0.00047987,-4,-0.0026633,0.12704,0
15671,54.3,9.6334,0,-1.6712,0,15691,50.707,8.3111,0.00047987,-4,-0.0026633,0.12704,0
15671,54.3,9.6334,0,-1.6712,0,15691,50.707,8.3111,0.00047987,-4,-0.0026633,0.12704,0
15671,54.3,9.6334,0,-1.6712,0,15691,50.707,8.3111,0.00047987,-4,-0.0026633,0.12704,0
15671,54.3,9.6334,0,-1.6712,0,15691,50.707,8.3111,0.00047987,-4,-0.0026633,0.12704,0
15671,54.3,9.6334,0,-1.6712,0,15691,50.707,8.3111,0.00047987,-4,-0.0026633,0.12704,0
15671,54.3,9.6334,0,-1.6712,0,15691,50.707,8.3111,0.00047987,-4,-0.0026633,0.12704,0
15672,54.3,9.4213,0,-1.8538,0,15691,50.707,8.3111,0.00047987,-4,-0.0026633,0.13442,0
15672,54.3,9.4213,0,-1.8538,0,15691,50.707,8.0711,0.00034698,-4,-0.0020516,0.12961,0
15672,54.3,9.4213,0,-1.8538,0,15691,50.707,7.9911,0.00031028,-4,-0.0018629,0.12808,0
15672,54.3,9.4213,0,-1.8538,0,15691,50.707,7.9911,0.00031028,-4,-0.0018629,0.12808,0
15673,54.3,9.11,0,-2.0267,0,15691,50.707,7.9111,0.0002773,-4,-0.0016801,0.13645,0
15673,54.3,9.11,0,-2.0267,0,15691,50.707,7.9111,0.0002773,-4,-0.0016801,0.13645,0
15673,54.3,9.11,0,-2.0267,0,15691,50.707,7.9111,0.0002773,-4,-0.0016801,0.13645,0
15673,54.3,9.11,0,-2.0267,0,15691,50.707,7.9111,0.0002773,-4,-0.0016801,0.13645,0
15673,54.3,9.11,0,-2.0267,0,15691,50.707,7.9111,0.0002773,-4,-0.0016801,0.13645,0
15673,54.3,9.11,0,-2.0267,0,15691,50.707,7.9111,0.0002773,-4,-0.0016801,0.13645,0
15673,54.3,9.11,0,-2.0267,0,15691,50.707,7.9111,0.0002773,-4,-0.0016801,0.13645,0
15673,54.3,9.11,0,-2.0267,0,15691,50.707,7.9111,0.0002773,-4,-0.0016801,0.13645,0
15673,54.3,9.11,0,-2.0267,0,15692,50.707,7.5111,0.00015557,-4,-0.00099246,0.12859,0
15673,54.3,9.11,0,-2.0267,0,15692,50.707,7.5111,0.00015557,-4,-0.00099246,0.12859,0
15673,54.3,9.11,0,-2.0267,0,15692,50.707,7.4311,0.00013808,-4,-0.00089151,0.12712,0
15673,54.3,9.11,0,-2.0267,0,15692,50.707,7.4311,0.00013808,-4,-0.00089151,0.12712,0
15673,54.3,9.11,0,-2.0267,0,15692,50.707,7.4311,0.00013808,-4,-0.00089151,0.12712,0
15673,54.3,9.11,0,-2.0267,0,15692,50.707,7.4311,0.00013808,-4,-0.00089151,0.12712,0
15673,54.3,9.11,0,-2.0267,0,15692,50.707,7.4311,0.00013808,-4,-0.00089151,0.12712,0
15673,54.3,9.11,0,-2.0267,0,15692,50.707,7.4311,0.00013808,-4,-0.00089151,0.12712,0
15673,54.3,9.11,0,-2.0267,0,15692,50.707,7.4311,0.00013808,-4,-0.00089151,0.12712,0
15674,54.3,8.9031,0,-2.1089,0,15693,50.707,7.3511,0.00012238,-4,-0.00080029,0.13159,0
15675,54.3,8.8182,0,-2.138,0,15693,50.707,7.1111,8.4364e-05,-4,-0.00057651,0.12952,0
15675,54.3,8.8182,0,-2.138,0,15693,50.707,7.1111,8.4364e-05,-4,-0.00057651,0.12952,0
15675,54.3,8.8182,0,-2.138,0,15693,50.707,7.1111,8.4364e-05,-4,-0.00057651,0.12952,0
15675,54.3,8.7753,0,-2.1519,0,15693,50.707,7.1111,8.4364e-05,-4,-0.00057651,0.13071,0
15675,54.3,8.7753,0,-2.1519,0,15694,50.707,6.7911,4.9875e-05,-4,-0.00036846,0.12503,0
15675,54.3,8.7753,0,-2.1519,0,15694,50.707,6.7911,4.9875e-05,-4,-0.00036846,0.12503,0
15675,54.3,8.7753,0,-2.1519,0,15694,50.707,6.7111,4.343e-05,-4,-0.00032878,0.12369,0
15675,54.3,8.7753,0,-2.1519,0,15694,50.707,6.7111,4.343e-05,-4,-0.00032878,0.12369,0
15675,54.3,8.7753,0,-2.1519,0,15694,50.707,6.7111,4.343e-05,-4,-0.00032878,0.12369,0
15675,54.3,8.7753,0,-2.1519,0,15694,50.707,6.7111,4.343e-05,-4,-0.00032878,0.12369,0
15675,54.3,8.7753,0,-2.1519,0,15694,50.707,6.7111,4.343e-05,-4,-0.00032878,0.12369,0
15675,54.3,8.7753,0,-2.1519,0,15694,50.707,6.7111,4.343e-05,-4,-0.00032878,0.12369,0
15675,54.3,8.7753,0,-2.1519,0,15694,50.707,6.6311,3.7684e-05,-4,-0.00029311,0.12238,0
15675,54.3,8.7753,0,-2.1519,0,15694,50.707,6.5511,3.2568e-05,-4,-0.00026106,0.12109,0
15675,54.3,8.7753,0,-2.1519,0,15694,50.707,6.5511,3.2568e-05,-4,-0.00026106,0.12109,0
15675,54.3,8.7753,0,-2.1519,0,15694,50.707,6.5511,3.2568e-05,-4,-0.00026106,0.12109,0
15675,54.3,8.7753,0,-2.1519,0,15694,50.707,6.5511,3.2568e-05,-4,-0.00026106,0.12109,0
15675,54.3,8.7753,0,-2.1519,0,15694,50.707,6.4711,2.8015e-05,-4,-0.00023228,0.11984,0
15676,54.3,8.3777,0,-2.2619,0,15694,50.707,6.3111,2.0379e-05,-4,-0.0001833,0.12702,0
15676,54.3,8.3777,0,-2.2619,0,15694,50.707,6.3111,2.0379e-05,-4,-0.0001833,0.12702,0
15676,54.3,8.3777,0,-2.2619,0,15694,50.707,6.3111,2.0379e-05,-4,-0.0001833,0.12702,0
15676,54.3,8.3777,0,-2.2619,0,15694,50.707,6.3111,2.0379e-05,-4,-0.0001833,0.12702,0
15677,54.3,8.3324,0,-2.2728,0,15694,50.707,6.3111,2.0379e-05,-4,-0.0001833,0.12816,0
15677,54.3,8.3324,0,-2.2728,0,15695,50.707,6.0711,1.1884e-05,-4,-0.00012727,0.12419,0
15677,54.3,8.3324,0,-2.2728,0,15695,50.707,6.0711,1.1884e-05,-4,-0.00012727,0.12419,0
15677,54.3,8.241,0,-2.294,0,15695,50.707,6.0711,1.1884e-05,-4,-0.00012727,0.12639,0
15677,54.3,8.241,0,-2.294,0,15695,50.707,6.0711,1.1884e-05,-4,-0.00012727,0.12639,0
15677,54.3,8.195,0,-2.3044,0,15695,50.707,6.0711,1.1884e-05,-4,-0.00012727,0.12751,0
15677,54.3,8.195,0,-2.3044,0,15695,50.707,5.8311,6.042e-06,-4,-8.7126e-05,0.12364,0
15677,54.3,8.195,0,-2.3044,0,15695,50.707,5.8311,6.042e-06,-4,-8.7126e-05,0.12364,0
15677,54.3,8.195,0,-2.3044,0,15695,50.707,5.8311,6.042e-06,-4,-8.7126e-05,0.12364,0
15677,54.3,8.195,0,-2.3044,0,15695,50.707,5.7511,4.5462e-06,-4,-7.6485e-05,0.12241,0
15678,54.3,8.0559,0,-2.3345,0,15695,50.707,5.7511,4.5462e-06,-4,-7.6485e-05,0.12562,0
15678,54.3,8.0559,0,-2.3345,0,15695,50.707,5.7511,4.5462e-06,-4,-7.6485e-05,0.12562,0
15678,54.3,8.0559,0,-2.3345,0,15695,50.707,5.7511,4.5462e-06,-4,-7.6485e-05,0.12562,0
15678,54.3,8.0559,0,-2.3345,0,15695,50.707,5.7511,4.5462e-06,-4,-7.6485e-05,0.12562,0
15678,54.3,8.0559,0,-2.3345,0,15695,50.707,5.7511,4.5462e-06,-4,-7.6485e-05,0.12562,0
15678,54.3,8.0091,0,-2.3443,0,15695,50.707,5.7511,4.5462e-06,-4,-7.6485e-05,0.12672,0
15678,54.3,8.0091,0,-2.3443,0,15695,50.707,5.7511,4.5462e-06,-4,-7.6485e-05,0.12672,0
15678,54.3,8.0091,0,-2.3443,0,15696,50.707,5.5111,1.0978e-06,-4,-5.0969e-05,0.12298,0
15678,54.3,8.0091,0,-2.3443,0,15696,50.707,5.5111,1.0978e-06,-4,-5.0969e-05,0.12298,0
15678,54.3,8.0091,0,-2.3443,0,15696,50.707,5.4311,2.3417e-07,-4,-4.4246e-05,0.12179,0
15678,54.3,7.8676,0,-2.3728,0,15696,50.707,5.4311,2.3417e-07,-4,-4.4246e-05,0.12494,0
15678,54.3,7.7723,0,-2.3912,0,15696,50.707,5.2711,-1.1542e-06,-4,-3.2948e-05,0.12464,0
15678,54.3,7.7723,0,-2.3912,0,15696,50.707,5.2711,-1.1542e-06,-4,-3.2948e-05,0.12464,0
15678,54.3,7.7723,0,-2.3912,0,15696,50.707,5.2711,-1.1542e-06,-4,-3.2948e-05,0.12464,0
15679,54.3,7.7244,0,-2.4003,0,15696,50.707,5.2711,-1.1542e-06,-4,-3.2948e-05,0.1257,0
15679,54.3,7.6763,0,-2.4092,0,15696,50.707,5.2711,-1.1542e-06,-4,-3.2948e-05,0.12678,0
15679,54.3,7.6763,0,-2.4092,0,15696,50.707,5.2711,-1.1542e-06,-4,-3.2948e-05,0.12678,0
15679,54.3,7.6763,0,-2.4092,0,15696,50.707,5.2711,-1.1542e-06,-4,-3.2948e-05,0.12678,0
15679,54.3,7.6763,0,-2.4092,0,15696,50.707,5.2711,-1.1542e-06,-4,-3.2948e-05,0.12678,0
15679,54.3,7.6763,0,-2.4092,0,15696,50.707,5.2711,-1.1542e-06,-4,-3.2948e-05,0.12678,0
15679,54.3,7.6763,0,-2.4092,0,15696,50.707,5.2711,-1.1542e-06,-4,-3.2948e-05,0.12678,0
15679,54.3,7.6763,0,-2.4092,0,15696,50.707,5.2711,-1.1542e-06,-4,-3.2948e-05,0.12678,0
15679,54.3,7.6763,0,-2.4092,0,15696,50.707,5.2711,-1.1542e-06,-4,-3.2948e-05,0.12678,0
15679,54.3,7.6763,0,-2.4092,0,15696,50.707,5.2711,-1.1542e-06,-4,-3.2948e-05,0.12678,0
15679,54.3,7.6763,0,-2.4092,0,15696,50.707,5.2711,-1.1542e-06,-4,-3.2948e-05,0.12678,0
15679,54.3,7.5795,0,-2.4269,0,15696,50.707,4.9511,-2.896e-06,-4,-1.7037e-05,0.12409,0
15679,54.3,7.5795,0,-2.4269,0,15696,50.707,4.9511,-2.896e-06,-4,-1.7037e-05,0.12409,0
15679,54.3,7.5795,0,-2.4269,0,15696,50.707,4.9511,-2.896e-06,-4,-1.7037e-05,0.12409,0
15679,54.3,7.5795,0,-2.4269,0,15696,50.707,4.9511,-2.896e-06,-4,-1.7037e-05,0.12409,0
15679,54.3,7.5795,0,-2.4269,0,15696,50.707,4.9511,-2.896e-06,-4,-1.7037e-05,0.12409,0
15679,54.3,7.5795,0,-2.4269,0,15696,50.707,4.9511,-2.896e-06,-4,-1.7037e-05,0.12409,0
15679,54.3,7.5795,0,-2.4269,0,15696,50.707,4.9511,-2.896e-06,-4,-1.7037e-05,0.12409,0
15679,54.3,7.5795,0,-2.4269,0,15696,50.707,4.9511,-2.896e-06,-4,-1.7037e-05,0.12409,0
15679,54.3,7.5795,0,-2.4269,0,15696,50.707,4.9511,-2.896e-06,-4,-1.7037e-05,0.12409,0
15680,54.3,7.384,0,-2.4612,0,15696,50.707,4.7911,-3.3923e-06,-4,-1.1567e-05,0.12594,0
15680,54.3,7.384,0,-2.4612,0,15696,50.707,4.7911,-3.3923e-06,-4,-1.1567e-05,0.12594,0
15680,54.3,7.384,0,-2.4612,0,15697,50.707,4.4711,-3.8922e-06,-4,-4.0391e-06,0.12144,0
15680,54.3,7.384,0,-2.4612,0,15697,50.707,4.4711,-3.8922e-06,-4,-4.0391e-06,0.12144,0
15680,54.3,7.384,0,-2.4612,0,15697,50.707,4.4711,-3.8922e-06,-4,-4.0391e-06,0.12144,0
15680,54.3,7.384,0,-2.4612,0,15697,50.707,4.3911,-3.9416e-06,-4,-2.6999e-06,0.12037,0
15680,54.3,7.1358,0,-2.5025,0,15697,50.707,4.3911,-3.9416e-06,-4,-2.6999e-06,0.12539,0
15680,54.3,7.1358,0,-2.5025,0,15697,50.707,4.0711,-3.9391e-06,-4,1.1264e-06,0.12109,0
15680,54.3,7.1358,0,-2.5025,0,15697,50.707,3.9911,-3.901e-06,-4,1.7811e-06,0.12007,0
15680,54.3,7.1358,0,-2.5025,0,15697,50.707,3.9111,-3.852e-06,-4,2.3416e-06,0.11907,0
15680,54.3,7.1358,0,-2.5025,0,15697,50.707,3.8311,-3.7936e-06,-4,2.8188e-06,0.1181,0
15680,54.3,7.1358,0,-2.5025,0,15697,50.707,3.8311,-3.7936e-06,-4,2.8188e-06,0.1181,0
15680,54.3,7.1358,0,-2.5025,0,15697,50.707,3.8311,-3.7936e-06,-4,2.8188e-06,0.1181,0
15680,54.3,7.1358,0,-2.5025,0,15697,50.707,3.8311,-3.7936e-06,-4,2.8188e-06,0.1181,0
15680,54.3,7.1358,0,-2.5025,0,15697,50.707,3.8311,-3.7936e-06,-4,2.8188e-06,0.1181,0
15680,54.3,7.1358,0,-2.5025,0,15697,50.707,3.8311,-3.7936e-06,-4,2.8188e-06,0.1181,0
15680,54.3,7.1358,0,-2.5025,0,15697,50.707,3.8311,-3.7936e-06,-4,2.8188e-06,0.1181,0
15680,54.3,7.1358,0,-2.5025,0,15697,50.707,3.8311,-3.7936e-06,-4,2.8188e-06,0.1181,0
15680,54.3,7.1358,0,-2.5025,0,15698,50.707,3.7511,-3.7274e-06,-4,3.2224e-06,0.11714,0
15680,54.3,7.1358,0,-2.5025,0,15698,50.707,3.7511,-3.7274e-06,-4,3.2224e-06,0.11714,0
15680,54.3,7.1358,0,-2.5025,0,15698,50.707,3.7511,-3.7274e-06,-4,3.2224e-06,0.11714,0
15680,54.3,7.1358,0,-2.5025,0,15698,50.707,3.7511,-3.7274e-06,-4,3.2224e-06,0.11714,0
15680,54.3,7.1358,0,-2.5025,0,15698,50.707,3.7511,-3.7274e-06,-4,3.2224e-06,0.11714,0
15680,54.3,7.1358,0,-2.5025,0,15698,50.707,3.7511,-3.7274e-06,-4,3.2224e-06,0.11714,0
15680,54.3,7.1358,0,-2.5025,0,15698,50.707,3.7511,-3.7274e-06,-4,3.2224e-06,0.11714,0
15680,54.3,7.1358,0,-2.5025,0,15698,50.707,3.7511,-3.7274e-06,-4,3.2224e-06,0.11714,0
15680,54.3,7.1358,0,-2.5025,0,15698,50.707,3.7511,-3.7274e-06,-4,3.2224e-06,0.11714,0
15681,54.3,6.8326,0,-2.55,0,15698,50.707,3.7511,-3.7274e-06,-4,3.2224e-06,0.12285,0
15681,54.3,6.8326,0,-2.55,0,15698,50.707,3.7511,-3.7274e-06,-4,3.2224e-06,0.12285,0
15682,54.3,6.6274,0,-2.5805,0,15698,50.707,3.5911,-3.5764e-06,-4,3.8423e-06,0.12473,0
15682,54.3,6.6274,0,-2.5805,0,15698,50.707,3.5911,-3.5764e-06,-4,3.8423e-06,0.12473,0
15682,54.3,6.6274,0,-2.5805,0,15698,50.707,3.5911,-3.5764e-06,-4,3.8423e-06,0.12473,0
