184.05,-185.9,92.019,-101.69,140.06,-188.31,116.16,-100.27,106.96,-161.22,76.634,-114.99,105.58,-135.08,41.771,-162.58
184.05,-185.9,92.019,-101.69,140.06,-188.31,116.16,-100.27,106.96,-161.22,76.634,-114.99,105.58,-135.08,41.771,-162.58
184.51,-186.37,92.386,-101.87,140.48,-188.53,116.52,-100.05,107.16,-161.4,76.972,-115.24,105.69,-135.03,41.899,-162.77
184.51,-186.37,92.386,-101.87,140.48,-188.53,116.52,-100.05,107.16,-161.4,76.972,-115.24,105.69,-135.03,41.899,-162.77
184.96,-186.83,92.752,-102.04,140.9,-188.74,116.88,-99.825,107.36,-161.58,77.31,-115.49,105.8,-134.98,42.025,-162.96
184.96,-186.83,92.752,-102.04,140.9,-188.74,116.88,-99.825,107.36,-161.58,77.31,-115.49,105.8,-134.98,42.025,-162.96
185.41,-187.29,93.116,-102.21,141.32,-188.94,117.24,-99.595,107.55,-161.75,77.646,-115.74,105.9,-134.93,42.15,-163.14
185.41,-187.29,93.116,-102.21,141.32,-188.94,117.24,-99.595,107.55,-161.75,77.646,-115.74,105.9,-134.93,42.15,-163.14
185.86,-187.75,93.478,-102.37,141.73,-189.13,117.6,-99.362,107.75,-161.92,77.982,-115.98,106,-134.88,42.273,-163.31
185.86,-187.75,93.478,-102.37,141.73,-189.13,117.6,-99.362,107.75,-161.92,77.982,-115.98,106,-134.88,42.273,-163.31
186.3,-188.2,93.837,-102.54,142.14,-189.32,117.95,-99.127,107.94,-162.08,78.316,-116.22,106.1,-134.82,42.394,-163.49
186.3,-188.2,93.837,-102.54,142.14,-189.32,117.95,-99.127,107.94,-162.08,78.316,-116.22,106.1,-134.82,42.394,-163.49
186.74,-188.64,94.195,-102.7,142.55,-189.51,118.31,-98.888,108.13,-162.25,78.65,-116.45,106.2,-134.76,42.513,-163.65
186.74,-188.64,94.195,-102.7,142.55,-189.51,118.31,-98.888,108.13,-162.25,78.65,-116.45,106.2,-134.76,42.513,-163.65
187.17,-189.08,94.551,-102.86,142.95,-189.69,118.66,-98.646,108.32,-162.4,78.982,-116.69,106.29,-134.7,42.63,-163.81
187.59,-189.51,94.904,-103.01,143.35,-189.86,119,-98.401,108.51,-162.56,79.314,-116.92,106.38,-134.63,42.746,-163.97
187.59,-189.51,94.904,-103.01,143.35,-189.86,119,-98.401,108.51,-162.56,79.314,-116.92,106.38,-134.63,42.746,-163.97
188.01,-189.94,95.256,-103.17,143.74,-190.02,119.35,-98.153,108.69,-162.71,79.644,-117.15,106.47,-134.57,42.859,-164.12
188.01,-189.94,95.256,-103.17,143.74,-190.02,119.35,-98.153,108.69,-162.71,79.644,-117.15,106.47,-134.57,42.859,-164.12
188.43,-190.36,95.606,-103.32,144.13,-190.19,119.69,-97.902,108.88,-162.86,79.973,-117.37,106.55,-134.49,42.971,-164.26
188.43,-190.36,95.606,-103.32,144.13,-190.19,119.69,-97.902,108.88,-162.86,79.973,-117.37,106.55,-134.49,42.971,-164.26
188.43,-190.36,95.606,-103.32,144.13,-190.19,119.69,-97.902,108.88,-162.86,79.973,-117.37,106.55,-134.49,42.971,-164.26
188.84,-190.78,95.953,-103.47,144.52,-190.34,120.04,-97.648,109.06,-163,80.301,-117.6,106.63,-134.42,43.081,-164.4
188.84,-190.78,95.953,-103.47,144.52,-190.34,120.04,-97.648,109.06,-163,80.301,-117.6,106.63,-134.42,43.081,-164.4
189.24,-191.19,96.298,-103.61,144.9,-190.49,120.38,-97.391,109.24,-163.14,80.629,-117.82,106.71,-134.34,43.19,-164.54
189.24,-191.19,96.298,-103.61,144.9,-190.49,120.38,-97.391,109.24,-163.14,80.629,-117.82,106.71,-134.34,43.19,-164.54
189.64,-191.59,96.641,-103.75,145.28,-190.63,120.72,-97.131,109.41,-163.28,80.954,-118.03,106.79,-134.26,43.296,-164.66
190.04,-191.99,96.982,-103.89,145.66,-190.77,121.05,-96.868,109.59,-163.41,81.279,-118.25,106.87,-134.18,43.401,-164.79
190.04,-191.99,96.982,-103.89,145.66,-190.77,121.05,-96.868,109.59,-163.41,81.279,-118.25,106.87,-134.18,43.401,-164.79
190.04,-191.99,96.982,-103.89,145.66,-190.77,121.05,-96.868,109.59,-163.41,81.279,-118.25,106.87,-134.18,43.401,-164.79
190.43,-192.39,97.321,-104.03,146.03,-190.9,121.39,-96.603,109.76,-163.54,81.603,-118.46,106.94,-134.09,43.504,-164.91
190.43,-192.39,97.321,-104.03,146.03,-190.9,121.39,-96.603,109.76,-163.54,81.603,-118.46,106.94,-134.09,43.504,-164.91
190.81,-192.77,97.658,-104.16,146.39,-191.02,121.72,-96.335,109.93,-163.67,81.926,-118.67,107.01,-134,43.605,-165.02
190.81,-192.77,97.658,-104.16,146.39,-191.02,121.72,-96.335,109.93,-163.67,81.926,-118.67,107.01,-134,43.605,-165.02
191.2,-193.16,97.992,-104.29,146.75,-191.14,122.05,-96.064,110.1,-163.79,82.247,-118.87,107.08,-133.91,43.704,-165.12
191.2,-193.16,97.992,-104.29,146.75,-191.14,122.05,-96.064,110.1,-163.79,82.247,-118.87,107.08,-133.91,43.704,-165.12
191.57,-193.53,98.325,-104.42,147.11,-191.25,122.38,-95.79,110.27,-163.91,82.567,-119.07,107.14,-133.82,43.802,-165.23
191.57,-193.53,98.325,-104.42,147.11,-191.25,122.38,-95.79,110.27,-163.91,82.567,-119.07,107.14,-133.82,43.802,-165.23
191.94,-193.91,98.655,-104.55,147.47,-191.35,122.7,-95.513,110.44,-164.03,82.886,-119.27,107.2,-133.72,43.897,-165.32
191.94,-193.91,98.655,-104.55,147.47,-191.35,122.7,-95.513,110.44,-164.03,82.886,-119.27,107.2,-133.72,43.897,-165.32
192.31,-194.27,98.983,-104.67,147.82,-191.45,123.03,-95.234,110.6,-164.14,83.204,-119.47,107.26,-133.62,43.991,-165.41
192.31,-194.27,98.983,-104.67,147.82,-191.45,123.03,-95.234,110.6,-164.14,83.204,-119.47,107.26,-133.62,43.991,-165.41
192.67,-194.63,99.308,-104.79,148.16,-191.55,123.35,-94.953,110.76,-164.25,83.521,-119.67,107.32,-133.52,44.084,-165.49
192.67,-194.63,99.308,-104.79,148.16,-191.55,123.35,-94.953,110.76,-164.25,83.521,-119.67,107.32,-133.52,44.084,-165.49
192.67,-194.63,99.308,-104.79,148.16,-191.55,123.35,-94.953,110.76,-164.25,83.521,-119.67,107.32,-133.52,44.084,-165.49
193.03,-194.99,99.631,-104.91,148.51,-191.63,123.67,-94.668,110.92,-164.35,83.837,-119.86,107.37,-133.41,44.174,-165.57
193.38,-195.34,99.952,-105.02,148.85,-191.71,123.98,-94.381,111.08,-164.46,84.151,-120.04,107.43,-133.3,44.263,-165.65
193.38,-195.34,99.952,-105.02,148.85,-191.71,123.98,-94.381,111.08,-164.46,84.151,-120.04,107.43,-133.3,44.263,-165.65
193.73,-195.68,100.27,-105.13,149.18,-191.79,124.3,-94.092,111.24,-164.55,84.464,-120.23,107.48,-133.19,44.35,-165.71
193.73,-195.68,100.27,-105.13,149.18,-191.79,124.3,-94.092,111.24,-164.55,84.464,-120.23,107.48,-133.19,44.35,-165.71
194.07,-196.02,100.59,-105.24,149.51,-191.86,124.61,-93.8,111.39,-164.65,84.776,-120.41,107.52,-133.07,44.435,-165.77
194.07,-196.02,100.59,-105.24,149.51,-191.86,124.61,-93.8,111.39,-164.65,84.776,-120.41,107.52,-133.07,44.435,-165.77
194.4,-196.36,100.9,-105.35,149.84,-191.92,124.92,-93.506,111.55,-164.74,85.087,-120.59,107.57,-132.96,44.518,-165.83
194.4,-196.36,100.9,-105.35,149.84,-191.92,124.92,-93.506,111.55,-164.74,85.087,-120.59,107.57,-132.96,44.518,-165.83
194.4,-196.36,100.9,-105.35,149.84,-191.92,124.92,-93.506,111.55,-164.74,85.087,-120.59,107.57,-132.96,44.518,-165.83
194.74,-196.68,101.21,-105.45,150.16,-191.97,125.23,-93.209,111.7,-164.83,85.396,-120.77,107.61,-132.84,44.6,-165.88
195.06,-197,101.52,-105.55,150.47,-192.02,125.54,-92.909,111.85,-164.91,85.704,-120.94,107.65,-132.71,44.68,-165.92
195.06,-197,101.52,-105.55,150.47,-192.02,125.54,-92.909,111.85,-164.91,85.704,-120.94,107.65,-132.71,44.68,-165.92
195.39,-197.32,101.83,-105.64,150.79,-192.06,125.84,-92.608,112,-164.99,86.011,-121.11,107.69,-132.59,44.758,-165.96
195.39,-197.32,101.83,-105.64,150.79,-192.06,125.84,-92.608,112,-164.99,86.011,-121.11,107.69,-132.59,44.758,-165.96
195.71,-197.63,102.13,-105.74,151.1,-192.1,126.14,-92.304,112.14,-165.07,86.317,-121.28,107.72,-132.46,44.835,-166
195.71,-197.63,102.13,-105.74,151.1,-192.1,126.14,-92.304,112.14,-165.07,86.317,-121.28,107.72,-132.46,44.835,-166
196.02,-197.94,102.44,-105.83,151.4,-192.13,126.44,-91.998,112.29,-165.14,86.621,-121.44,107.76,-132.33,44.909,-166.02
196.02,-197.94,102.44,-105.83,151.4,-192.13,126.44,-91.998,112.29,-165.14,86.621,-121.44,107.76,-132.33,44.909,-166.02
196.02,-197.94,102.44,-105.83,151.4,-192.13,126.44,-91.998,112.29,-165.14,86.621,-121.44,107.76,-132.33,44.909,-166.02
196.33,-198.24,102.74,-105.92,151.7,-192.15,126.74,-91.689,112.43,-165.21,86.924,-121.61,107.79,-132.19,44.982,-166.04
196.33,-198.24,102.74,-105.92,151.7,-192.15,126.74,-91.689,112.43,-165.21,86.924,-121.61,107.79,-132.19,44.982,-166.04
196.63,-198.53,103.03,-106,152,-192.17,127.04,-91.378,112.57,-165.28,87.226,-121.77,107.82,-132.05,45.054,-166.06
196.63,-198.53,103.03,-106,152,-192.17,127.04,-91.378,112.57,-165.28,87.226,-121.77,107.82,-132.05,45.054,-166.06
197.22,-199.1,103.62,-106.17,152.58,-192.18,127.62,-90.75,112.85,-165.4,87.825,-122.07,107.87,-131.77,45.191,-166.07
197.22,-199.1,103.62,-106.17,152.58,-192.18,127.62,-90.75,112.85,-165.4,87.825,-122.07,107.87,-131.77,45.191,-166.07
197.22,-199.1,103.62,-106.17,152.58,-192.18,127.62,-90.75,112.85,-165.4,87.825,-122.07,107.87,-131.77,45.191,-166.07
197.51,-199.38,103.91,-106.24,152.87,-192.18,127.91,-90.433,112.98,-165.46,88.123,-122.22,107.89,-131.62,45.257,-166.07
197.51,-199.38,103.91,-106.24,152.87,-192.18,127.91,-90.433,112.98,-165.46,88.123,-122.22,107.89,-131.62,45.257,-166.07
197.51,-199.38,103.91,-106.24,152.87,-192.18,127.91,-90.433,112.98,-165.46,88.123,-122.22,107.89,-131.62,45.257,-166.07
197.8,-199.65,104.2,-106.32,153.15,-192.17,128.19,-90.113,113.12,-165.51,88.419,-122.37,107.91,-131.47,45.322,-166.06
198.08,-199.92,104.48,-106.39,153.42,-192.15,128.48,-89.792,113.25,-165.56,88.714,-122.51,107.93,-131.32,45.384,-166.04
198.35,-200.18,104.77,-106.46,153.69,-192.13,128.76,-89.468,113.38,-165.61,89.008,-122.66,107.94,-131.16,45.446,-166.02
198.35,-200.18,104.77,-106.46,153.69,-192.13,128.76,-89.468,113.38,-165.61,89.008,-122.66,107.94,-131.16,45.446,-166.02
198.35,-200.18,104.77,-106.46,153.69,-192.13,128.76,-89.468,113.38,-165.61,89.008,-122.66,107.94,-131.16,45.446,-166.02
198.63,-200.43,105.05,-106.52,153.96,-192.1,129.04,-89.143,113.51,-165.65,89.3,-122.79,107.96,-131.01,45.505,-166
198.63,-200.43,105.05,-106.52,153.96,-192.1,129.04,-89.143,113.51,-165.65,89.3,-122.79,107.96,-131.01,45.505,-166
198.89,-200.68,105.32,-106.59,154.22,-192.07,129.32,-88.815,113.64,-165.69,89.591,-122.93,107.97,-130.85,45.563,-165.96
198.89,-200.68,105.32,-106.59,154.22,-192.07,129.32,-88.815,113.64,-165.69,89.591,-122.93,107.97,-130.85,45.563,-165.96
198.89,-200.68,105.32,-106.59,154.22,-192.07,129.32,-88.815,113.64,-165.69,89.591,-122.93,107.97,-130.85,45.563,-165.96
199.15,-200.93,105.6,-106.65,154.48,-192.03,129.59,-88.486,113.76,-165.72,89.88,-123.06,107.98,-130.68,45.619,-165.92
199.15,-200.93,105.6,-106.65,154.48,-192.03,129.59,-88.486,113.76,-165.72,89.88,-123.06,107.98,-130.68,45.619,-165.92
199.15,-200.93,105.6,-106.65,154.48,-192.03,129.59,-88.486,113.76,-165.72,89.88,-123.06,107.98,-130.68,45.619,-165.92
199.66,-201.4,106.14,-106.76,154.99,-191.92,130.13,-87.822,114.01,-165.78,90.455,-123.31,107.99,-130.35,45.725,-165.83
199.66,-201.4,106.14,-106.76,154.99,-191.92,130.13,-87.822,114.01,-165.78,90.455,-123.31,107.99,-130.35,45.725,-165.83
199.91,-201.62,106.41,-106.81,155.23,-191.86,130.4,-87.487,114.13,-165.8,90.74,-123.44,107.99,-130.18,45.776,-165.77
199.91,-201.62,106.41,-106.81,155.23,-191.86,130.4,-87.487,114.13,-165.8,90.74,-123.44,107.99,-130.18,45.776,-165.77
200.15,-201.85,106.67,-106.86,155.48,-191.79,130.66,-87.15,114.25,-165.82,91.024,-123.56,107.99,-130,45.826,-165.71
200.15,-201.85,106.67,-106.86,155.48,-191.79,130.66,-87.15,114.25,-165.82,91.024,-123.56,107.99,-130,45.826,-165.71
200.39,-202.06,106.93,-106.9,155.71,-191.71,130.93,-86.811,114.37,-165.84,91.307,-123.67,107.99,-129.82,45.873,-165.64
200.39,-202.06,106.93,-106.9,155.71,-191.71,130.93,-86.811,114.37,-165.84,91.307,-123.67,107.99,-129.82,45.873,-165.64
200.63,-202.27,107.19,-106.94,155.95,-191.63,131.19,-86.471,114.48,-165.86,91.587,-123.79,107.98,-129.64,45.919,-165.56
200.63,-202.27,107.19,-106.94,155.95,-191.63,131.19,-86.471,114.48,-165.86,91.587,-123.79,107.98,-129.64,45.919,-165.56
200.63,-202.27,107.19,-106.94,155.95,-191.63,131.19,-86.471,114.48,-165.86,91.587,-123.79,107.98,-129.64,45.919,-165.56
200.85,-202.48,107.45,-106.98,156.17,-191.54,131.45,-86.129,114.6,-165.87,91.867,-123.9,107.98,-129.46,45.964,-165.48
200.85,-202.48,107.45,-106.98,156.17,-191.54,131.45,-86.129,114.6,-165.87,91.867,-123.9,107.98,-129.46,45.964,-165.48
200.85,-202.48,107.45,-106.98,156.17,-191.54,131.45,-86.129,114.6,-165.87,91.867,-123.9,107.98,-129.46,45.964,-165.48
201.3,-202.87,107.95,-107.06,156.62,-191.35,131.96,-85.44,114.82,-165.87,92.421,-124.11,107.96,-129.08,46.047,-165.3
201.3,-202.87,107.95,-107.06,156.62,-191.35,131.96,-85.44,114.82,-165.87,92.421,-124.11,107.96,-129.08,46.047,-165.3
201.3,-202.87,107.95,-107.06,156.62,-191.35,131.96,-85.44,114.82,-165.87,92.421,-124.11,107.96,-129.08,46.047,-165.3
201.52,-203.06,108.2,-107.09,156.83,-191.24,132.21,-85.094,114.93,-165.87,92.696,-124.21,107.95,-128.89,46.087,-165.19
201.73,-203.24,108.45,-107.11,157.05,-191.12,132.46,-84.745,115.04,-165.87,92.97,-124.31,107.94,-128.7,46.124,-165.09
201.93,-203.42,108.69,-107.14,157.25,-191,132.7,-84.395,115.15,-165.86,93.241,-124.4,107.92,-128.5,46.16,-164.97
201.93,-203.42,108.69,-107.14,157.25,-191,132.7,-84.395,115.15,-165.86,93.241,-124.4,107.92,-128.5,46.16,-164.97
201.93,-203.42,108.69,-107.14,157.25,-191,132.7,-84.395,115.15,-165.86,93.241,-124.4,107.92,-128.5,46.16,-164.97
202.14,-203.59,108.93,-107.16,157.46,-190.87,132.95,-84.044,115.26,-165.85,93.512,-124.5,107.9,-128.3,46.195,-164.85
202.14,-203.59,108.93,-107.16,157.46,-190.87,132.95,-84.044,115.26,-165.85,93.512,-124.5,107.9,-128.3,46.195,-164.85
202.33,-203.75,109.17,-107.18,157.65,-190.73,133.19,-83.691,115.36,-165.84,93.781,-124.58,107.88,-128.1,46.228,-164.73
202.33,-203.75,109.17,-107.18,157.65,-190.73,133.19,-83.691,115.36,-165.84,93.781,-124.58,107.88,-128.1,46.228,-164.73
202.53,-203.92,109.41,-107.2,157.85,-190.59,133.43,-83.337,115.46,-165.82,94.048,-124.67,107.86,-127.89,46.259,-164.6
202.53,-203.92,109.41,-107.2,157.85,-190.59,133.43,-83.337,115.46,-165.82,94.048,-124.67,107.86,-127.89,46.259,-164.6
202.72,-204.07,109.64,-107.21,158.04,-190.44,133.66,-82.981,115.57,-165.79,94.314,-124.75,107.84,-127.68,46.289,-164.46
202.9,-204.22,109.87,-107.22,158.22,-190.29,133.9,-82.625,115.67,-165.77,94.578,-124.83,107.81,-127.47,46.317,-164.31
202.9,-204.22,109.87,-107.22,158.22,-190.29,133.9,-82.625,115.67,-165.77,94.578,-124.83,107.81,-127.47,46.317,-164.31
203.08,-204.36,110.09,-107.23,158.4,-190.12,134.13,-82.266,115.76,-165.74,94.84,-124.91,107.79,-127.26,46.343,-164.16
203.08,-204.36,110.09,-107.23,158.4,-190.12,134.13,-82.266,115.76,-165.74,94.84,-124.91,107.79,-127.26,46.343,-164.16
203.08,-204.36,110.09,-107.23,158.4,-190.12,134.13,-82.266,115.76,-165.74,94.84,-124.91,107.79,-127.26,46.343,-164.16
203.26,-204.5,110.32,-107.24,158.58,-189.95,134.36,-81.907,115.86,-165.71,95.101,-124.98,107.76,-127.04,46.368,-164
203.26,-204.5,110.32,-107.24,158.58,-189.95,134.36,-81.907,115.86,-165.71,95.101,-124.98,107.76,-127.04,46.368,-164
203.26,-204.5,110.32,-107.24,158.58,-189.95,134.36,-81.907,115.86,-165.71,95.101,-124.98,107.76,-127.04,46.368,-164
203.43,-204.63,110.54,-107.24,158.75,-189.78,134.58,-81.546,115.96,-165.67,95.361,-125.05,107.73,-126.82,46.391,-163.84
203.59,-204.76,110.76,-107.24,158.92,-189.59,134.81,-81.184,116.05,-165.63,95.619,-125.12,107.69,-126.6,46.413,-163.67
203.76,-204.88,110.97,-107.23,159.08,-189.4,135.03,-80.821,116.15,-165.59,95.875,-125.19,107.66,-126.37,46.433,-163.49
203.76,-204.88,110.97,-107.23,159.08,-189.4,135.03,-80.821,116.15,-165.59,95.875,-125.19,107.66,-126.37,46.433,-163.49
203.76,-204.88,110.97,-107.23,159.08,-189.4,135.03,-80.821,116.15,-165.59,95.875,-125.19,107.66,-126.37,46.433,-163.49
203.92,-205,111.19,-107.23,159.24,-189.21,135.25,-80.456,116.24,-165.54,96.129,-125.25,107.62,-126.14,46.451,-163.31
203.92,-205,111.19,-107.23,159.24,-189.21,135.25,-80.456,116.24,-165.54,96.129,-125.25,107.62,-126.14,46.451,-163.31
204.07,-205.11,111.4,-107.22,159.39,-189,135.47,-80.091,116.33,-165.49,96.382,-125.3,107.59,-125.91,46.468,-163.12
204.07,-205.11,111.4,-107.22,159.39,-189,135.47,-80.091,116.33,-165.49,96.382,-125.3,107.59,-125.91,46.468,-163.12
204.07,-205.11,111.4,-107.22,159.39,-189,135.47,-80.091,116.33,-165.49,96.382,-125.3,107.59,-125.91,46.468,-163.12
204.22,-205.21,111.6,-107.21,159.54,-188.79,135.68,-79.724,116.42,-165.44,96.633,-125.36,107.55,-125.68,46.483,-162.92
204.22,-205.21,111.6,-107.21,159.54,-188.79,135.68,-79.724,116.42,-165.44,96.633,-125.36,107.55,-125.68,46.483,-162.92
204.22,-205.21,111.6,-107.21,159.54,-188.79,135.68,-79.724,116.42,-165.44,96.633,-125.36,107.55,-125.68,46.483,-162.92
204.51,-205.41,112.01,-107.17,159.83,-188.35,136.1,-78.988,116.59,-165.32,97.131,-125.46,107.46,-125.2,46.509,-162.51
204.51,-205.41,112.01,-107.17,159.83,-188.35,136.1,-78.988,116.59,-165.32,97.131,-125.46,107.46,-125.2,46.509,-162.51
204.64,-205.49,112.21,-107.15,159.97,-188.12,136.31,-78.618,116.68,-165.25,97.377,-125.51,107.42,-124.96,46.52,-162.3
204.64,-205.49,112.21,-107.15,159.97,-188.12,136.31,-78.618,116.68,-165.25,97.377,-125.51,107.42,-124.96,46.52,-162.3
204.64,-205.49,112.21,-107.15,159.97,-188.12,136.31,-78.618,116.68,-165.25,97.377,-125.51,107.42,-124.96,46.52,-162.3
204.78,-205.58,112.4,-107.13,160.1,-187.88,136.51,-78.248,116.76,-165.19,97.621,-125.55,107.37,-124.72,46.529,-162.08
204.78,-205.58,112.4,-107.13,160.1,-187.88,136.51,-78.248,116.76,-165.19,97.621,-125.55,107.37,-124.72,46.529,-162.08
204.9,-205.65,112.6,-107.1,160.23,-187.64,136.72,-77.876,116.84,-165.11,97.864,-125.59,107.32,-124.47,46.536,-161.85
205.03,-205.73,112.79,-107.07,160.35,-187.38,136.92,-77.504,116.92,-165.04,98.105,-125.62,107.27,-124.22,46.542,-161.61
205.03,-205.73,112.79,-107.07,160.35,-187.38,136.92,-77.504,116.92,-165.04,98.105,-125.62,107.27,-124.22,46.542,-161.61
205.15,-205.79,112.97,-107.04,160.47,-187.12,137.11,-77.131,117,-164.96,98.344,-125.66,107.22,-123.97,46.547,-161.37
205.15,-205.79,112.97,-107.04,160.47,-187.12,137.11,-77.131,117,-164.96,98.344,-125.66,107.22,-123.97,46.547,-161.37
205.26,-205.85,113.16,-107.01,160.58,-186.86,137.31,-76.757,117.08,-164.88,98.582,-125.69,107.17,-123.71,46.549,-161.12
205.26,-205.85,113.16,-107.01,160.58,-186.86,137.31,-76.757,117.08,-164.88,98.582,-125.69,107.17,-123.71,46.549,-161.12
205.38,-205.91,113.34,-106.97,160.69,-186.59,137.5,-76.382,117.16,-164.79,98.818,-125.71,107.11,-123.45,46.551,-160.87
205.38,-205.91,113.34,-106.97,160.69,-186.59,137.5,-76.382,117.16,-164.79,98.818,-125.71,107.11,-123.45,46.551,-160.87
205.38,-205.91,113.34,-106.97,160.69,-186.59,137.5,-76.382,117.16,-164.79,98.818,-125.71,107.11,-123.45,46.551,-160.87
205.48,-205.96,113.52,-106.93,160.8,-186.31,137.69,-76.006,117.24,-164.7,99.052,-125.74,107.06,-123.19,46.551,-160.61
205.59,-206,113.69,-106.88,160.9,-186.02,137.88,-75.629,117.31,-164.61,99.284,-125.76,107,-122.93,46.549,-160.34
205.59,-206,113.69,-106.88,160.9,-186.02,137.88,-75.629,117.31,-164.61,99.284,-125.76,107,-122.93,46.549,-160.34
205.69,-206.04,113.86,-106.84,161,-185.73,138.06,-75.252,117.39,-164.52,99.514,-125.77,106.94,-122.66,46.546,-160.07
205.69,-206.04,113.86,-106.84,161,-185.73,138.06,-75.252,117.39,-164.52,99.514,-125.77,106.94,-122.66,46.546,-160.07
205.78,-206.07,114.03,-106.79,161.09,-185.43,138.24,-74.874,117.46,-164.42,99.743,-125.79,106.88,-122.39,46.541,-159.79
205.78,-206.07,114.03,-106.79,161.09,-185.43,138.24,-74.874,117.46,-164.42,99.743,-125.79,106.88,-122.39,46.541,-159.79
205.78,-206.07,114.03,-106.79,161.09,-185.43,138.24,-74.874,117.46,-164.42,99.743,-125.79,106.88,-122.39,46.541,-159.79
205.87,-206.1,114.2,-106.73,161.18,-185.12,138.42,-74.496,117.53,-164.31,99.97,-125.8,106.82,-122.12,46.535,-159.5
205.87,-206.1,114.2,-106.73,161.18,-185.12,138.42,-74.496,117.53,-164.31,99.97,-125.8,106.82,-122.12,46.535,-159.5
205.96,-206.13,114.36,-106.68,161.26,-184.81,138.6,-74.117,117.6,-164.21,100.2,-125.81,106.76,-121.84,46.527,-159.21
206.04,-206.14,114.53,-106.62,161.34,-184.49,138.78,-73.737,117.67,-164.1,100.42,-125.81,106.69,-121.57,46.518,-158.91
206.04,-206.14,114.53,-106.62,161.34,-184.49,138.78,-73.737,117.67,-164.1,100.42,-125.81,106.69,-121.57,46.518,-158.91
206.12,-206.15,114.68,-106.56,161.41,-184.16,138.95,-73.356,117.74,-163.98,100.64,-125.81,106.62,-121.29,46.508,-158.6
206.12,-206.15,114.68,-106.56,161.41,-184.16,138.95,-73.356,117.74,-163.98,100.64,-125.81,106.62,-121.29,46.508,-158.6
206.2,-206.16,114.84,-106.5,161.48,-183.83,139.12,-72.975,117.81,-163.87,100.86,-125.81,106.56,-121.01,46.496,-158.29
206.2,-206.16,114.84,-106.5,161.48,-183.83,139.12,-72.975,117.81,-163.87,100.86,-125.81,106.56,-121.01,46.496,-158.29
206.27,-206.16,114.99,-106.43,161.55,-183.49,139.28,-72.594,117.88,-163.75,101.08,-125.81,106.49,-120.72,46.482,-157.97
206.27,-206.16,114.99,-106.43,161.55,-183.49,139.28,-72.594,117.88,-163.75,101.08,-125.81,106.49,-120.72,46.482,-157.97
206.27,-206.16,114.99,-106.43,161.55,-183.49,139.28,-72.594,117.88,-163.75,101.08,-125.81,106.49,-120.72,46.482,-157.97
206.34,-206.16,115.14,-106.36,161.61,-183.14,139.45,-72.212,117.94,-163.62,101.29,-125.8,106.42,-120.43,46.467,-157.64
206.4,-206.15,115.28,-106.29,161.67,-182.78,139.61,-71.829,118,-163.5,101.51,-125.79,106.34,-120.14,46.451,-157.31
206.46,-206.13,115.43,-106.21,161.72,-182.42,139.77,-71.446,118.07,-163.37,101.72,-125.77,106.27,-119.85,46.433,-156.97
206.46,-206.13,115.43,-106.21,161.72,-182.42,139.77,-71.446,118.07,-163.37,101.72,-125.77,106.27,-119.85,46.433,-156.97
206.46,-206.13,115.43,-106.21,161.72,-182.42,139.77,-71.446,118.07,-163.37,101.72,-125.77,106.27,-119.85,46.433,-156.97
206.52,-206.11,115.57,-106.14,161.76,-182.06,139.93,-71.063,118.13,-163.23,101.93,-125.76,106.2,-119.55,46.414,-156.62
206.52,-206.11,115.57,-106.14,161.76,-182.06,139.93,-71.063,118.13,-163.23,101.93,-125.76,106.2,-119.55,46.414,-156.62
206.57,-206.09,115.7,-106.06,161.81,-181.68,140.08,-70.679,118.19,-163.09,102.14,-125.73,106.12,-119.25,46.393,-156.27
206.57,-206.09,115.7,-106.06,161.81,-181.68,140.08,-70.679,118.19,-163.09,102.14,-125.73,106.12,-119.25,46.393,-156.27
206.57,-206.09,115.7,-106.06,161.81,-181.68,140.08,-70.679,118.19,-163.09,102.14,-125.73,106.12,-119.25,46.393,-156.27
206.62,-206.06,115.84,-105.97,161.85,-181.3,140.23,-70.295,118.25,-162.95,102.34,-125.71,106.04,-118.95,46.371,-155.91
206.66,-206.02,115.97,-105.89,161.88,-180.91,140.38,-69.91,118.31,-162.81,102.55,-125.68,105.96,-118.65,46.347,-155.55
206.66,-206.02,115.97,-105.89,161.88,-180.91,140.38,-69.91,118.31,-162.81,102.55,-125.68,105.96,-118.65,46.347,-155.55
206.7,-205.98,116.1,-105.8,161.91,-180.52,140.53,-69.525,118.37,-162.66,102.75,-125.65,105.88,-118.34,46.322,-155.18
206.7,-205.98,116.1,-105.8,161.91,-180.52,140.53,-69.525,118.37,-162.66,102.75,-125.65,105.88,-118.34,46.322,-155.18
206.74,-205.93,116.22,-105.71,161.94,-180.11,140.67,-69.14,118.42,-162.51,102.95,-125.62,105.8,-118.03,46.296,-154.8
206.74,-205.93,116.22,-105.71,161.94,-180.11,140.67,-69.14,118.42,-162.51,102.95,-125.62,105.8,-118.03,46.296,-154.8
206.77,-205.88,116.34,-105.61,161.96,-179.71,140.81,-68.754,118.48,-162.36,103.15,-125.58,105.72,-117.72,46.268,-154.41
206.77,-205.88,116.34,-105.61,161.96,-179.71,140.81,-68.754,118.48,-162.36,103.15,-125.58,105.72,-117.72,46.268,-154.41
206.77,-205.88,116.34,-105.61,161.96,-179.71,140.81,-68.754,118.48,-162.36,103.15,-125.58,105.72,-117.72,46.268,-154.41
206.8,-205.82,116.46,-105.51,161.97,-179.29,140.95,-68.369,118.54,-162.2,103.35,-125.54,105.64,-117.41,46.239,-154.02
206.8,-205.82,116.46,-105.51,161.97,-179.29,140.95,-68.369,118.54,-162.2,103.35,-125.54,105.64,-117.41,46.239,-154.02
206.8,-205.82,116.46,-105.51,161.97,-179.29,140.95,-68.369,118.54,-162.2,103.35,-125.54,105.64,-117.41,46.239,-154.02
206.84,-205.69,116.69,-105.31,161.99,-178.44,141.22,-67.596,118.64,-161.87,103.73,-125.46,105.46,-116.77,46.177,-153.22
206.84,-205.69,116.69,-105.31,161.99,-178.44,141.22,-67.596,118.64,-161.87,103.73,-125.46,105.46,-116.77,46.177,-153.22
206.86,-205.62,116.8,-105.21,162,-178,141.35,-67.209,118.7,-161.7,103.92,-125.41,105.38,-116.45,46.144,-152.81
206.86,-205.62,116.8,-105.21,162,-178,141.35,-67.209,118.7,-161.7,103.92,-125.41,105.38,-116.45,46.144,-152.81
206.87,-205.54,116.9,-105.1,162,-177.56,141.48,-66.823,118.75,-161.53,104.11,-125.35,105.29,-116.13,46.109,-152.39
206.87,-205.54,116.9,-105.1,162,-177.56,141.48,-66.823,118.75,-161.53,104.11,-125.35,105.29,-116.13,46.109,-152.39
206.88,-205.45,117.01,-104.99,161.99,-177.11,141.6,-66.436,118.8,-161.36,104.3,-125.3,105.2,-115.8,46.073,-151.97
206.88,-205.45,117.01,-104.99,161.99,-177.11,141.6,-66.436,118.8,-161.36,104.3,-125.3,105.2,-115.8,46.073,-151.97
206.89,-205.37,117.11,-104.87,161.98,-176.66,141.72,-66.048,118.85,-161.18,104.48,-125.24,105.11,-115.47,46.036,-151.54
206.89,-205.37,117.11,-104.87,161.98,-176.66,141.72,-66.048,118.85,-161.18,104.48,-125.24,105.11,-115.47,46.036,-151.54
206.89,-205.27,117.2,-104.75,161.97,-176.2,141.84,-65.661,118.9,-161,104.67,-125.18,105.01,-115.14,45.998,-151.1
206.89,-205.27,117.2,-104.75,161.97,-176.2,141.84,-65.661,118.9,-161,104.67,-125.18,105.01,-115.14,45.998,-151.1
206.89,-205.17,117.3,-104.63,161.95,-175.73,141.96,-65.273,118.94,-160.81,104.85,-125.11,104.92,-114.8,45.958,-150.66
206.89,-205.17,117.3,-104.63,161.95,-175.73,141.96,-65.273,118.94,-160.81,104.85,-125.11,104.92,-114.8,45.958,-150.66
206.89,-205.07,117.39,-104.51,161.93,-175.25,142.08,-64.886,118.99,-160.63,105.03,-125.04,104.83,-114.46,45.917,-150.21
206.89,-205.07,117.39,-104.51,161.93,-175.25,142.08,-64.886,118.99,-160.63,105.03,-125.04,104.83,-114.46,45.917,-150.21
206.89,-205.07,117.39,-104.51,161.93,-175.25,142.08,-64.886,118.99,-160.63,105.03,-125.04,104.83,-114.46,45.917,-150.21
206.88,-204.96,117.48,-104.39,161.9,-174.77,142.19,-64.498,119.04,-160.44,105.2,-124.97,104.73,-114.12,45.874,-149.76
206.87,-204.84,117.56,-104.26,161.87,-174.28,142.3,-64.11,119.08,-160.24,105.38,-124.9,104.63,-113.78,45.831,-149.29
206.87,-204.84,117.56,-104.26,161.87,-174.28,142.3,-64.11,119.08,-160.24,105.38,-124.9,104.63,-113.78,45.831,-149.29
206.85,-204.72,117.64,-104.13,161.83,-173.79,142.4,-63.722,119.13,-160.04,105.55,-124.82,104.54,-113.44,45.786,-148.83
206.83,-204.6,117.72,-103.99,161.79,-173.29,142.51,-63.334,119.17,-159.84,105.72,-124.74,104.44,-113.09,45.74,-148.35
206.83,-204.6,117.72,-103.99,161.79,-173.29,142.51,-63.334,119.17,-159.84,105.72,-124.74,104.44,-113.09,45.74,-148.35
206.83,-204.6,117.72,-103.99,161.79,-173.29,142.51,-63.334,119.17,-159.84,105.72,-124.74,104.44,-113.09,45.74,-148.35
206.81,-204.47,117.8,-103.86,161.75,-172.78,142.61,-62.945,119.21,-159.64,105.89,-124.66,104.34,-112.74,45.692,-147.87
206.81,-204.47,117.8,-103.86,161.75,-172.78,142.61,-62.945,119.21,-159.64,105.89,-124.66,104.34,-112.74,45.692,-147.87
206.81,-204.47,117.8,-103.86,161.75,-172.78,142.61,-62.945,119.21,-159.64,105.89,-124.66,104.34,-112.74,45.692,-147.87
206.78,-204.33,117.87,-103.72,161.7,-172.27,142.7,-62.557,119.26,-159.43,106.05,-124.57,104.24,-112.39,45.644,-147.38
206.75,-204.19,117.94,-103.58,161.64,-171.75,142.8,-62.169,119.3,-159.22,106.21,-124.48,104.14,-112.03,45.594,-146.89
206.72,-204.04,118,-103.43,161.59,-171.22,142.89,-61.78,119.34,-159.01,106.38,-124.38,104.03,-111.68,45.543,-146.39
206.72,-204.04,118,-103.43,161.59,-171.22,142.89,-61.78,119.34,-159.01,106.38,-124.38,104.03,-111.68,45.543,-146.39
206.72,-204.04,118,-103.43,161.59,-171.22,142.89,-61.78,119.34,-159.01,106.38,-124.38,104.03,-111.68,45.543,-146.39
206.69,-203.89,118.07,-103.29,161.53,-170.69,142.98,-61.392,119.38,-158.79,106.54,-124.29,103.93,-111.32,45.491,-145.89
206.69,-203.89,118.07,-103.29,161.53,-170.69,142.98,-61.392,119.38,-158.79,106.54,-124.29,103.93,-111.32,45.491,-145.89
206.65,-203.74,118.13,-103.14,161.46,-170.15,143.07,-61.004,119.42,-158.57,106.69,-124.19,103.82,-110.96,45.437,-145.37
206.65,-203.74,118.13,-103.14,161.46,-170.15,143.07,-61.004,119.42,-158.57,106.69,-124.19,103.82,-110.96,45.437,-145.37
206.65,-203.74,118.13,-103.14,161.46,-170.15,143.07,-61.004,119.42,-158.57,106.69,-124.19,103.82,-110.96,45.437,-145.37
206.6,-203.58,118.18,-102.98,161.39,-169.6,143.15,-60.615,119.46,-158.35,106.85,-124.09,103.72,-110.59,45.383,-144.86
206.55,-203.41,118.24,-102.83,161.31,-169.05,143.23,-60.227,119.49,-158.12,107,-123.98,103.61,-110.22,45.327,-144.33
206.55,-203.41,118.24,-102.83,161.31,-169.05,143.23,-60.227,119.49,-158.12,107,-123.98,103.61,-110.22,45.327,-144.33
206.5,-203.24,118.29,-102.67,161.24,-168.49,143.31,-59.838,119.53,-157.89,107.15,-123.87,103.5,-109.86,45.27,-143.8
206.5,-203.24,118.29,-102.67,161.24,-168.49,143.31,-59.838,119.53,-157.89,107.15,-123.87,103.5,-109.86,45.27,-143.8
206.5,-203.24,118.29,-102.67,161.24,-168.49,143.31,-59.838,119.53,-157.89,107.15,-123.87,103.5,-109.86,45.27,-143.8
206.45,-203.06,118.33,-102.51,161.15,-167.93,143.39,-59.45,119.57,-157.66,107.3,-123.76,103.4,-109.48,45.212,-143.26
206.45,-203.06,118.33,-102.51,161.15,-167.93,143.39,-59.45,119.57,-157.66,107.3,-123.76,103.4,-109.48,45.212,-143.26
206.45,-203.06,118.33,-102.51,161.15,-167.93,143.39,-59.45,119.57,-157.66,107.3,-123.76,103.4,-109.48,45.212,-143.26
206.33,-202.7,118.42,-102.18,160.97,-166.78,143.53,-58.673,119.64,-157.19,107.59,-123.52,103.18,-108.73,45.092,-142.17
206.33,-202.7,118.42,-102.18,160.97,-166.78,143.53,-58.673,119.64,-157.19,107.59,-123.52,103.18,-108.73,45.092,-142.17
206.33,-202.7,118.42,-102.18,160.97,-166.78,143.53,-58.673,119.64,-157.19,107.59,-123.52,103.18,-108.73,45.092,-142.17
206.27,-202.51,118.46,-102.01,160.88,-166.2,143.6,-58.284,119.67,-156.94,107.73,-123.4,103.07,-108.36,45.031,-141.62
206.27,-202.51,118.46,-102.01,160.88,-166.2,143.6,-58.284,119.67,-156.94,107.73,-123.4,103.07,-108.36,45.031,-141.62
206.2,-202.31,118.49,-101.84,160.78,-165.61,143.66,-57.896,119.71,-156.7,107.87,-123.27,102.95,-107.97,44.968,-141.06
206.13,-202.11,118.52,-101.66,160.67,-165.01,143.72,-57.507,119.74,-156.45,108.01,-123.15,102.84,-107.59,44.905,-140.49
206.13,-202.11,118.52,-101.66,160.67,-165.01,143.72,-57.507,119.74,-156.45,108.01,-123.15,102.84,-107.59,44.905,-140.49
206.06,-201.91,118.55,-101.49,160.57,-164.41,143.78,-57.119,119.77,-156.2,108.14,-123.01,102.73,-107.21,44.84,-139.92
206.06,-201.91,118.55,-101.49,160.57,-164.41,143.78,-57.119,119.77,-156.2,108.14,-123.01,102.73,-107.21,44.84,-139.92
205.98,-201.69,118.58,-101.31,160.45,-163.8,143.84,-56.731,119.81,-155.95,108.27,-122.88,102.61,-106.82,44.774,-139.34
205.98,-201.69,118.58,-101.31,160.45,-163.8,143.84,-56.731,119.81,-155.95,108.27,-122.88,102.61,-106.82,44.774,-139.34
205.98,-201.69,118.58,-101.31,160.45,-163.8,143.84,-56.731,119.81,-155.95,108.27,-122.88,102.61,-106.82,44.774,-139.34
205.9,-201.48,118.6,-101.13,160.34,-163.19,143.89,-56.342,119.84,-155.69,108.4,-122.74,102.5,-106.43,44.708,-138.76
205.82,-201.26,118.62,-100.94,160.22,-162.57,143.94,-55.954,119.87,-155.43,108.53,-122.6,102.38,-106.03,44.64,-138.16
205.82,-201.26,118.62,-100.94,160.22,-162.57,143.94,-55.954,119.87,-155.43,108.53,-122.6,102.38,-106.03,44.64,-138.16
205.73,-201.03,118.64,-100.75,160.09,-161.94,143.99,-55.566,119.9,-155.17,108.66,-122.46,102.26,-105.64,44.571,-137.57
205.73,-201.03,118.64,-100.75,160.09,-161.94,143.99,-55.566,119.9,-155.17,108.66,-122.46,102.26,-105.64,44.571,-137.57
205.64,-200.8,118.65,-100.56,159.96,-161.31,144.03,-55.178,119.93,-154.9,108.78,-122.31,102.15,-105.24,44.501,-136.97
205.64,-200.8,118.65,-100.56,159.96,-161.31,144.03,-55.178,119.93,-154.9,108.78,-122.31,102.15,-105.24,44.501,-136.97
205.55,-200.57,118.66,-100.37,159.83,-160.68,144.07,-54.79,119.96,-154.63,108.9,-122.16,102.03,-104.84,44.43,-136.36
205.55,-200.57,118.66,-100.37,159.83,-160.68,144.07,-54.79,119.96,-154.63,108.9,-122.16,102.03,-104.84,44.43,-136.36
205.45,-200.33,118.66,-100.17,159.69,-160.03,144.11,-54.401,119.99,-154.36,109.02,-122.01,101.91,-104.44,44.359,-135.74
205.45,-200.33,118.66,-100.17,159.69,-160.03,144.11,-54.401,119.99,-154.36,109.02,-122.01,101.91,-104.44,44.359,-135.74
205.45,-200.33,118.66,-100.17,159.69,-160.03,144.11,-54.401,119.99,-154.36,109.02,-122.01,101.91,-104.44,44.359,-135.74
205.35,-200.09,118.67,-99.975,159.55,-159.38,144.14,-54.013,120.02,-154.09,109.14,-121.85,101.79,-104.04,44.286,-135.13
205.35,-200.09,118.67,-99.975,159.55,-159.38,144.14,-54.013,120.02,-154.09,109.14,-121.85,101.79,-104.04,44.286,-135.13
205.35,-200.09,118.67,-99.975,159.55,-159.38,144.14,-54.013,120.02,-154.09,109.14,-121.85,101.79,-104.04,44.286,-135.13
205.14,-199.58,118.67,-99.571,159.26,-158.07,144.2,-53.238,120.07,-153.53,109.36,-121.53,101.55,-103.22,44.138,-133.87
205.14,-199.58,118.67,-99.571,159.26,-158.07,144.2,-53.238,120.07,-153.53,109.36,-121.53,101.55,-103.22,44.138,-133.87
205.04,-199.33,118.66,-99.365,159.1,-157.4,144.23,-52.85,120.1,-153.25,109.47,-121.36,101.43,-102.81,44.062,-133.23
205.04,-199.33,118.66,-99.365,159.1,-157.4,144.23,-52.85,120.1,-153.25,109.47,-121.36,101.43,-102.81,44.062,-133.23
204.92,-199.06,118.65,-99.156,158.95,-156.73,144.25,-52.462,120.13,-152.96,109.58,-121.19,101.3,-102.4,43.986,-132.59
204.92,-199.06,118.65,-99.156,158.95,-156.73,144.25,-52.462,120.13,-152.96,109.58,-121.19,101.3,-102.4,43.986,-132.59
204.92,-199.06,118.65,-99.156,158.95,-156.73,144.25,-52.462,120.13,-152.96,109.58,-121.19,101.3,-102.4,43.986,-132.59
204.81,-198.79,118.64,-98.944,158.79,-156.05,144.27,-52.074,120.15,-152.67,109.68,-121.02,101.18,-101.99,43.908,-131.94
204.69,-198.52,118.62,-98.73,158.62,-155.37,144.29,-51.687,120.18,-152.38,109.78,-120.84,101.06,-101.57,43.83,-131.29
204.69,-198.52,118.62,-98.73,158.62,-155.37,144.29,-51.687,120.18,-152.38,109.78,-120.84,101.06,-101.57,43.83,-131.29
204.57,-198.24,118.6,-98.514,158.45,-154.68,144.3,-51.299,120.2,-152.09,109.88,-120.66,100.93,-101.15,43.751,-130.63
204.57,-198.24,118.6,-98.514,158.45,-154.68,144.3,-51.299,120.2,-152.09,109.88,-120.66,100.93,-101.15,43.751,-130.63
204.44,-197.96,118.58,-98.295,158.28,-153.99,144.31,-50.912,120.23,-151.79,109.98,-120.48,100.81,-100.73,43.671,-129.97
204.44,-197.96,118.58,-98.295,158.28,-153.99,144.31,-50.912,120.23,-151.79,109.98,-120.48,100.81,-100.73,43.671,-129.97
204.44,-197.96,118.58,-98.295,158.28,-153.99,144.31,-50.912,120.23,-151.79,109.98,-120.48,100.81,-100.73,43.671,-129.97
204.32,-197.68,118.56,-98.073,158.1,-153.29,144.32,-50.524,120.25,-151.49,110.07,-120.3,100.68,-100.31,43.59,-129.3
204.19,-197.39,118.53,-97.849,157.92,-152.59,144.32,-50.137,120.28,-151.19,110.16,-120.11,100.55,-99.882,43.508,-128.63
204.19,-197.39,118.53,-97.849,157.92,-152.59,144.32,-50.137,120.28,-151.19,110.16,-120.11,100.55,-99.882,43.508,-128.63
204.05,-197.09,118.5,-97.622,157.74,-151.88,144.32,-49.749,120.3,-150.89,110.25,-119.92,100.43,-99.454,43.426,-127.95
204.05,-197.09,118.5,-97.622,157.74,-151.88,144.32,-49.749,120.3,-150.89,110.25,-119.92,100.43,-99.454,43.426,-127.95
203.92,-196.79,118.47,-97.392,157.55,-151.16,144.32,-49.362,120.33,-150.58,110.34,-119.72,100.3,-99.025,43.342,-127.26
203.92,-196.79,118.47,-97.392,157.55,-151.16,144.32,-49.362,120.33,-150.58,110.34,-119.72,100.3,-99.025,43.342,-127.26
203.78,-196.49,118.43,-97.16,157.36,-150.44,144.32,-48.975,120.35,-150.27,110.42,-119.53,100.17,-98.594,43.258,-126.57
203.78,-196.49,118.43,-97.16,157.36,-150.44,144.32,-48.975,120.35,-150.27,110.42,-119.53,100.17,-98.594,43.258,-126.57
203.78,-196.49,118.43,-97.16,157.36,-150.44,144.32,-48.975,120.35,-150.27,110.42,-119.53,100.17,-98.594,43.258,-126.57
203.64,-196.18,118.39,-96.926,157.16,-149.71,144.31,-48.588,120.37,-149.96,110.51,-119.33,100.04,-98.16,43.173,-125.87
203.49,-195.86,118.35,-96.688,156.96,-148.98,144.3,-48.2,120.39,-149.64,110.59,-119.12,99.913,-97.725,43.088,-125.17
203.49,-195.86,118.35,-96.688,156.96,-148.98,144.3,-48.2,120.39,-149.64,110.59,-119.12,99.913,-97.725,43.088,-125.17
203.34,-195.54,118.3,-96.449,156.76,-148.25,144.28,-47.813,120.42,-149.32,110.66,-118.92,99.783,-97.287,43.001,-124.47
203.34,-195.54,118.3,-96.449,156.76,-148.25,144.28,-47.813,120.42,-149.32,110.66,-118.92,99.783,-97.287,43.001,-124.47
203.19,-195.22,118.25,-96.206,156.55,-147.51,144.27,-47.426,120.44,-149,110.74,-118.71,99.653,-96.848,42.914,-123.75
203.19,-195.22,118.25,-96.206,156.55,-147.51,144.27,-47.426,120.44,-149,110.74,-118.71,99.653,-96.848,42.914,-123.75
203.04,-194.89,118.2,-95.962,156.34,-146.76,144.24,-47.039,120.46,-148.68,110.81,-118.49,99.522,-96.407,42.826,-123.04
203.04,-194.89,118.2,-95.962,156.34,-146.76,144.24,-47.039,120.46,-148.68,110.81,-118.49,99.522,-96.407,42.826,-123.04
203.04,-194.89,118.2,-95.962,156.34,-146.76,144.24,-47.039,120.46,-148.68,110.81,-118.49,99.522,-96.407,42.826,-123.04
202.88,-194.56,118.14,-95.714,156.12,-146.01,144.22,-46.652,120.48,-148.35,110.88,-118.28,99.39,-95.963,42.737,-122.32
202.72,-194.23,118.08,-95.465,155.9,-145.25,144.19,-46.266,120.5,-148.02,110.95,-118.06,99.258,-95.518,42.648,-121.59
202.72,-194.23,118.08,-95.465,155.9,-145.25,144.19,-46.266,120.5,-148.02,110.95,-118.06,99.258,-95.518,42.648,-121.59
202.56,-193.89,118.02,-95.212,155.68,-144.49,144.16,-45.879,120.52,-147.69,111.01,-117.84,99.126,-95.071,42.558,-120.86
202.56,-193.89,118.02,-95.212,155.68,-144.49,144.16,-45.879,120.52,-147.69,111.01,-117.84,99.126,-95.071,42.558,-120.86
202.4,-193.54,117.96,-94.958,155.45,-143.72,144.13,-45.492,120.54,-147.36,111.07,-117.61,98.993,-94.621,42.467,-120.12
202.4,-193.54,117.96,-94.958,155.45,-143.72,144.13,-45.492,120.54,-147.36,111.07,-117.61,98.993,-94.621,42.467,-120.12
202.23,-193.19,117.89,-94.7,155.22,-142.95,144.09,-45.105,120.57,-147.02,111.13,-117.38,98.859,-94.17,42.376,-119.38
202.23,-193.19,117.89,-94.7,155.22,-142.95,144.09,-45.105,120.57,-147.02,111.13,-117.38,98.859,-94.17,42.376,-119.38
202.06,-192.84,117.82,-94.441,154.99,-142.18,144.05,-44.718,120.59,-146.69,111.19,-117.15,98.725,-93.717,42.283,-118.64
202.06,-192.84,117.82,-94.441,154.99,-142.18,144.05,-44.718,120.59,-146.69,111.19,-117.15,98.725,-93.717,42.283,-118.64
202.06,-192.84,117.82,-94.441,154.99,-142.18,144.05,-44.718,120.59,-146.69,111.19,-117.15,98.725,-93.717,42.283,-118.64
201.89,-192.48,117.74,-94.178,154.75,-141.4,144.01,-44.332,120.61,-146.35,111.24,-116.92,98.591,-93.263,42.191,-117.89
201.71,-192.12,117.66,-93.914,154.51,-140.61,143.96,-43.945,120.62,-146,111.29,-116.68,98.456,-92.806,42.097,-117.13
201.53,-191.75,117.58,-93.647,154.27,-139.82,143.91,-43.558,120.64,-145.66,111.34,-116.44,98.32,-92.347,42.003,-116.37
201.53,-191.75,117.58,-93.647,154.27,-139.82,143.91,-43.558,120.64,-145.66,111.34,-116.44,98.32,-92.347,42.003,-116.37
201.53,-191.75,117.58,-93.647,154.27,-139.82,143.91,-43.558,120.64,-145.66,111.34,-116.44,98.32,-92.347,42.003,-116.37
201.35,-191.38,117.5,-93.377,154.02,-139.03,143.86,-43.172,120.66,-145.31,111.39,-116.2,98.185,-91.887,41.908,-115.61
201.35,-191.38,117.5,-93.377,154.02,-139.03,143.86,-43.172,120.66,-145.31,111.39,-116.2,98.185,-91.887,41.908,-115.61
201.35,-191.38,117.5,-93.377,154.02,-139.03,143.86,-43.172,120.66,-145.31,111.39,-116.2,98.185,-91.887,41.908,-115.61
201.17,-191.01,117.42,-93.105,153.77,-138.23,143.8,-42.785,120.68,-144.96,111.43,-115.95,98.048,-91.425,41.813,-114.84
200.98,-190.63,117.33,-92.831,153.51,-137.42,143.74,-42.399,120.7,-144.61,111.47,-115.7,97.911,-90.961,41.717,-114.06
200.98,-190.63,117.33,-92.831,153.51,-137.42,143.74,-42.399,120.7,-144.61,111.47,-115.7,97.911,-90.961,41.717,-114.06
200.79,-190.25,117.23,-92.554,153.25,-136.61,143.68,-42.012,120.72,-144.25,111.51,-115.45,97.774,-90.495,41.621,-113.28
200.79,-190.25,117.23,-92.554,153.25,-136.61,143.68,-42.012,120.72,-144.25,111.51,-115.45,97.774,-90.495,41.621,-113.28
200.6,-189.86,117.14,-92.275,152.99,-135.8,143.61,-41.625,120.74,-143.9,111.54,-115.19,97.637,-90.028,41.524,-112.5
200.6,-189.86,117.14,-92.275,152.99,-135.8,143.61,-41.625,120.74,-143.9,111.54,-115.19,97.637,-90.028,41.524,-112.5
200.4,-189.47,117.04,-91.993,152.73,-134.98,143.54,-41.239,120.76,-143.54,111.58,-114.93,97.499,-89.559,41.426,-111.71
200.4,-189.47,117.04,-91.993,152.73,-134.98,143.54,-41.239,120.76,-143.54,111.58,-114.93,97.499,-89.559,41.426,-111.71
200.4,-189.47,117.04,-91.993,152.73,-134.98,143.54,-41.239,120.76,-143.54,111.58,-114.93,97.499,-89.559,41.426,-111.71
200.2,-189.07,116.94,-91.709,152.46,-134.16,143.47,-40.852,120.78,-143.18,111.61,-114.67,97.36,-89.088,41.328,-110.92
200.2,-189.07,116.94,-91.709,152.46,-134.16,143.47,-40.852,120.78,-143.18,111.61,-114.67,97.36,-89.088,41.328,-110.92
200.2,-189.07,116.94,-91.709,152.46,-134.16,143.47,-40.852,120.78,-143.18,111.61,-114.67,97.36,-89.088,41.328,-110.92
199.8,-188.27,116.73,-91.134,151.91,-132.51,143.32,-40.079,120.81,-142.45,111.66,-114.14,97.082,-88.141,41.13,-109.33
199.8,-188.27,116.73,-91.134,151.91,-132.51,143.32,-40.079,120.81,-142.45,111.66,-114.14,97.082,-88.141,41.13,-109.33
199.59,-187.86,116.62,-90.843,151.63,-131.67,143.23,-39.693,120.83,-142.08,111.68,-113.87,96.942,-87.665,41.03,-108.52
199.59,-187.86,116.62,-90.843,151.63,-131.67,143.23,-39.693,120.83,-142.08,111.68,-113.87,96.942,-87.665,41.03,-108.52
199.39,-187.45,116.5,-90.549,151.34,-130.83,143.15,-39.306,120.85,-141.71,111.7,-113.6,96.802,-87.187,40.93,-107.71
199.39,-187.45,116.5,-90.549,151.34,-130.83,143.15,-39.306,120.85,-141.71,111.7,-113.6,96.802,-87.187,40.93,-107.71
199.18,-187.04,116.39,-90.253,151.06,-129.99,143.06,-38.92,120.86,-141.34,111.72,-113.32,96.662,-86.708,40.829,-106.9
199.18,-187.04,116.39,-90.253,151.06,-129.99,143.06,-38.92,120.86,-141.34,111.72,-113.32,96.662,-86.708,40.829,-106.9
198.96,-186.62,116.27,-89.955,150.77,-129.14,142.97,-38.533,120.88,-140.96,111.73,-113.04,96.521,-86.227,40.727,-106.08
198.96,-186.62,116.27,-89.955,150.77,-129.14,142.97,-38.533,120.88,-140.96,111.73,-113.04,96.521,-86.227,40.727,-106.08
198.75,-186.19,116.14,-89.654,150.47,-128.29,142.87,-38.147,120.9,-140.59,111.74,-112.76,96.38,-85.744,40.626,-105.26
198.75,-186.19,116.14,-89.654,150.47,-128.29,142.87,-38.147,120.9,-140.59,111.74,-112.76,96.38,-85.744,40.626,-105.26
198.53,-185.77,116.02,-89.352,150.18,-127.44,142.77,-37.76,120.92,-140.21,111.75,-112.47,96.238,-85.26,40.523,-104.44
198.53,-185.77,116.02,-89.352,150.18,-127.44,142.77,-37.76,120.92,-140.21,111.75,-112.47,96.238,-85.26,40.523,-104.44
198.31,-185.34,115.89,-89.046,149.88,-126.58,142.67,-37.374,120.93,-139.83,111.76,-112.19,96.096,-84.774,40.421,-103.61
198.31,-185.34,115.89,-89.046,149.88,-126.58,142.67,-37.374,120.93,-139.83,111.76,-112.19,96.096,-84.774,40.421,-103.61
198.31,-185.34,115.89,-89.046,149.88,-126.58,142.67,-37.374,120.93,-139.83,111.76,-112.19,96.096,-84.774,40.421,-103.61
198.08,-184.9,115.76,-88.739,149.57,-125.71,142.56,-36.987,120.95,-139.44,111.76,-111.9,95.954,-84.287,40.317,-102.77
197.86,-184.46,115.63,-88.429,149.27,-124.85,142.45,-36.6,120.97,-139.06,111.76,-111.6,95.811,-83.798,40.214,-101.94
197.86,-184.46,115.63,-88.429,149.27,-124.85,142.45,-36.6,120.97,-139.06,111.76,-111.6,95.811,-83.798,40.214,-101.94
197.86,-184.46,115.63,-88.429,149.27,-124.85,142.45,-36.6,120.97,-139.06,111.76,-111.6,95.811,-83.798,40.214,-101.94
197.63,-184.02,115.49,-88.117,148.96,-123.98,142.34,-36.214,120.98,-138.67,111.76,-111.3,95.668,-83.308,40.11,-101.1
197.63,-184.02,115.49,-88.117,148.96,-123.98,142.34,-36.214,120.98,-138.67,111.76,-111.3,95.668,-83.308,40.11,-101.1
197.63,-184.02,115.49,-88.117,148.96,-123.98,142.34,-36.214,120.98,-138.67,111.76,-111.3,95.668,-83.308,40.11,-101.1
197.16,-183.12,115.21,-87.487,148.33,-122.23,142.1,-35.44,121.02,-137.89,111.74,-110.7,95.381,-82.322,39.9,-99.405
197.16,-183.12,115.21,-87.487,148.33,-122.23,142.1,-35.44,121.02,-137.89,111.74,-110.7,95.381,-82.322,39.9,-99.405
196.93,-182.67,115.06,-87.168,148.01,-121.34,141.98,-35.054,121.03,-137.5,111.73,-110.4,95.236,-81.827,39.795,-98.553
196.93,-182.67,115.06,-87.168,148.01,-121.34,141.98,-35.054,121.03,-137.5,111.73,-110.4,95.236,-81.827,39.795,-98.553
196.69,-182.21,114.91,-86.847,147.68,-120.46,141.85,-34.667,121.05,-137.11,111.72,-110.09,95.092,-81.331,39.689,-97.698
196.45,-181.75,114.76,-86.524,147.36,-119.57,141.72,-34.28,121.07,-136.71,111.7,-109.78,94.947,-80.833,39.583,-96.839
196.45,-181.75,114.76,-86.524,147.36,-119.57,141.72,-34.28,121.07,-136.71,111.7,-109.78,94.947,-80.833,39.583,-96.839
196.45,-181.75,114.76,-86.524,147.36,-119.57,141.72,-34.28,121.07,-136.71,111.7,-109.78,94.947,-80.833,39.583,-96.839
196.21,-181.28,114.61,-86.199,147.03,-118.68,141.59,-33.893,121.08,-136.31,111.68,-109.46,94.802,-80.334,39.476,-95.976
196.21,-181.28,114.61,-86.199,147.03,-118.68,141.59,-33.893,121.08,-136.31,111.68,-109.46,94.802,-80.334,39.476,-95.976
195.96,-180.81,114.45,-85.871,146.7,-117.78,141.45,-33.506,121.1,-135.91,111.66,-109.15,94.656,-79.833,39.369,-95.111
195.96,-180.81,114.45,-85.871,146.7,-117.78,141.45,-33.506,121.1,-135.91,111.66,-109.15,94.656,-79.833,39.369,-95.111
195.71,-180.34,114.29,-85.541,146.36,-116.88,141.31,-33.119,121.12,-135.51,111.63,-108.83,94.511,-79.331,39.262,-94.241
195.71,-180.34,114.29,-85.541,146.36,-116.88,141.31,-33.119,121.12,-135.51,111.63,-108.83,94.511,-79.331,39.262,-94.241
195.46,-179.86,114.12,-85.209,146.02,-115.98,141.17,-32.732,121.13,-135.11,111.61,-108.5,94.364,-78.828,39.154,-93.368
195.46,-179.86,114.12,-85.209,146.02,-115.98,141.17,-32.732,121.13,-135.11,111.61,-108.5,94.364,-78.828,39.154,-93.368
195.21,-179.38,113.96,-84.875,145.68,-115.08,141.03,-32.345,121.15,-134.7,111.58,-108.18,94.218,-78.323,39.046,-92.492
194.95,-178.9,113.79,-84.539,145.33,-114.17,140.88,-31.958,121.16,-134.29,111.54,-107.85,94.071,-77.817,38.937,-91.613
194.95,-178.9,113.79,-84.539,145.33,-114.17,140.88,-31.958,121.16,-134.29,111.54,-107.85,94.071,-77.817,38.937,-91.613
194.95,-178.9,113.79,-84.539,145.33,-114.17,140.88,-31.958,121.16,-134.29,111.54,-107.85,94.071,-77.817,38.937,-91.613
194.7,-178.41,113.62,-84.201,144.99,-113.25,140.72,-31.571,121.18,-133.88,111.51,-107.52,93.924,-77.309,38.828,-90.73
194.7,-178.41,113.62,-84.201,144.99,-113.25,140.72,-31.571,121.18,-133.88,111.51,-107.52,93.924,-77.309,38.828,-90.73
194.7,-178.41,113.62,-84.201,144.99,-113.25,140.72,-31.571,121.18,-133.88,111.51,-107.52,93.924,-77.309,38.828,-90.73
194.44,-177.92,113.44,-83.86,144.63,-112.34,140.56,-31.184,121.2,-133.47,111.47,-107.19,93.776,-76.8,38.719,-89.845
194.44,-177.92,113.44,-83.86,144.63,-112.34,140.56,-31.184,121.2,-133.47,111.47,-107.19,93.776,-76.8,38.719,-89.845
194.17,-177.43,113.27,-83.518,144.28,-111.42,140.4,-30.797,121.21,-133.06,111.42,-106.85,93.629,-76.29,38.61,-88.956
194.17,-177.43,113.27,-83.518,144.28,-111.42,140.4,-30.797,121.21,-133.06,111.42,-106.85,93.629,-76.29,38.61,-88.956
194.17,-177.43,113.27,-83.518,144.28,-111.42,140.4,-30.797,121.21,-133.06,111.42,-106.85,93.629,-76.29,38.61,-88.956
193.64,-176.43,112.91,-82.826,143.56,-109.57,140.07,-30.022,121.24,-132.23,111.33,-106.17,93.332,-75.266,38.39,-87.169
193.64,-176.43,112.91,-82.826,143.56,-109.57,140.07,-30.022,121.24,-132.23,111.33,-106.17,93.332,-75.266,38.39,-87.169
193.64,-176.43,112.91,-82.826,143.56,-109.57,140.07,-30.022,121.24,-132.23,111.33,-106.17,93.332,-75.266,38.39,-87.169
193.37,-175.92,112.72,-82.478,143.2,-108.65,139.9,-29.635,121.26,-131.81,111.28,-105.82,93.183,-74.752,38.279,-86.271
193.37,-175.92,112.72,-82.478,143.2,-108.65,139.9,-29.635,121.26,-131.81,111.28,-105.82,93.183,-74.752,38.279,-86.271
193.1,-175.42,112.53,-82.127,142.83,-107.72,139.73,-29.247,121.28,-131.39,111.23,-105.47,93.034,-74.237,38.168,-85.37
193.1,-175.42,112.53,-82.127,142.83,-107.72,139.73,-29.247,121.28,-131.39,111.23,-105.47,93.034,-74.237,38.168,-85.37
192.83,-174.91,112.34,-81.774,142.46,-106.78,139.55,-28.86,121.29,-130.97,111.17,-105.12,92.885,-73.721,38.057,-84.466
192.55,-174.39,112.15,-81.419,142.09,-105.85,139.37,-28.472,121.31,-130.55,111.11,-104.77,92.735,-73.203,37.946,-83.559
192.55,-174.39,112.15,-81.419,142.09,-105.85,139.37,-28.472,121.31,-130.55,111.11,-104.77,92.735,-73.203,37.946,-83.559
192.27,-173.87,111.95,-81.062,141.71,-104.91,139.19,-28.084,121.32,-130.13,111.05,-104.42,92.585,-72.684,37.834,-82.65
192.27,-173.87,111.95,-81.062,141.71,-104.91,139.19,-28.084,121.32,-130.13,111.05,-104.42,92.585,-72.684,37.834,-82.65
191.99,-173.35,111.75,-80.703,141.34,-103.97,139,-27.697,121.34,-129.7,110.98,-104.06,92.434,-72.165,37.722,-81.738
191.99,-173.35,111.75,-80.703,141.34,-103.97,139,-27.697,121.34,-129.7,110.98,-104.06,92.434,-72.165,37.722,-81.738
191.71,-172.83,111.55,-80.342,140.96,-103.02,138.81,-27.309,121.35,-129.28,110.91,-103.7,92.283,-71.644,37.61,-80.823
191.71,-172.83,111.55,-80.342,140.96,-103.02,138.81,-27.309,121.35,-129.28,110.91,-103.7,92.283,-71.644,37.61,-80.823
191.43,-172.3,111.35,-79.979,140.57,-102.08,138.62,-26.921,121.37,-128.85,110.84,-103.33,92.132,-71.121,37.497,-79.906
191.14,-171.77,111.14,-79.614,140.18,-101.13,138.42,-26.533,121.38,-128.42,110.77,-102.97,91.981,-70.598,37.384,-78.986
191.14,-171.77,111.14,-79.614,140.18,-101.13,138.42,-26.533,121.38,-128.42,110.77,-102.97,91.981,-70.598,37.384,-78.986
190.85,-171.23,110.93,-79.248,139.79,-100.17,138.22,-26.145,121.4,-127.99,110.69,-102.6,91.829,-70.074,37.271,-78.063
190.85,-171.23,110.93,-79.248,139.79,-100.17,138.22,-26.145,121.4,-127.99,110.69,-102.6,91.829,-70.074,37.271,-78.063
190.85,-171.23,110.93,-79.248,139.79,-100.17,138.22,-26.145,121.4,-127.99,110.69,-102.6,91.829,-70.074,37.271,-78.063
190.56,-170.7,110.72,-78.879,139.4,-99.22,138.01,-25.757,121.42,-127.55,110.61,-102.22,91.677,-69.549,37.158,-77.138
190.56,-170.7,110.72,-78.879,139.4,-99.22,138.01,-25.757,121.42,-127.55,110.61,-102.22,91.677,-69.549,37.158,-77.138
190.26,-170.15,110.5,-78.508,139.01,-98.263,137.81,-25.369,121.43,-127.12,110.53,-101.85,91.525,-69.022,37.044,-76.211
190.26,-170.15,110.5,-78.508,139.01,-98.263,137.81,-25.369,121.43,-127.12,110.53,-101.85,91.525,-69.022,37.044,-76.211
189.97,-169.61,110.29,-78.136,138.61,-97.304,137.6,-24.981,121.45,-126.68,110.44,-101.47,91.372,-68.495,36.93,-75.281
189.97,-169.61,110.29,-78.136,138.61,-97.304,137.6,-24.981,121.45,-126.68,110.44,-101.47,91.372,-68.495,36.93,-75.281
189.67,-169.06,110.06,-77.761,138.21,-96.343,137.38,-24.593,121.46,-126.25,110.36,-101.09,91.219,-67.966,36.816,-74.349
189.67,-169.06,110.06,-77.761,138.21,-96.343,137.38,-24.593,121.46,-126.25,110.36,-101.09,91.219,-67.966,36.816,-74.349
189.37,-168.51,109.84,-77.385,137.8,-95.379,137.16,-24.205,121.48,-125.81,110.26,-100.71,91.065,-67.437,36.701,-73.415
189.37,-168.51,109.84,-77.385,137.8,-95.379,137.16,-24.205,121.48,-125.81,110.26,-100.71,91.065,-67.437,36.701,-73.415
189.07,-167.96,109.62,-77.007,137.4,-94.413,136.94,-23.816,121.49,-125.37,110.17,-100.33,90.911,-66.906,36.586,-72.478
189.07,-167.96,109.62,-77.007,137.4,-94.413,136.94,-23.816,121.49,-125.37,110.17,-100.33,90.911,-66.906,36.586,-72.478
189.07,-167.96,109.62,-77.007,137.4,-94.413,136.94,-23.816,121.49,-125.37,110.17,-100.33,90.911,-66.906,36.586,-72.478
188.76,-167.4,109.39,-76.627,136.99,-93.444,136.72,-23.428,121.51,-124.93,110.07,-99.939,90.757,-66.375,36.471,-71.539
188.45,-166.85,109.16,-76.245,136.57,-92.474,136.49,-23.039,121.52,-124.48,109.97,-99.549,90.603,-65.842,36.356,-70.599
188.45,-166.85,109.16,-76.245,136.57,-92.474,136.49,-23.039,121.52,-124.48,109.97,-99.549,90.603,-65.842,36.356,-70.599
188.15,-166.28,108.93,-75.862,136.16,-91.502,136.26,-22.651,121.54,-124.04,109.87,-99.157,90.448,-65.309,36.241,-69.656
188.15,-166.28,108.93,-75.862,136.16,-91.502,136.26,-22.651,121.54,-124.04,109.87,-99.157,90.448,-65.309,36.241,-69.656
187.83,-165.72,108.69,-75.476,135.74,-90.527,136.03,-22.262,121.55,-123.59,109.76,-98.762,90.293,-64.775,36.125,-68.711
187.83,-165.72,108.69,-75.476,135.74,-90.527,136.03,-22.262,121.55,-123.59,109.76,-98.762,90.293,-64.775,36.125,-68.711
187.52,-165.15,108.45,-75.089,135.32,-89.551,135.79,-21.874,121.57,-123.15,109.65,-98.365,90.137,-64.24,36.009,-67.764
187.52,-165.15,108.45,-75.089,135.32,-89.551,135.79,-21.874,121.57,-123.15,109.65,-98.365,90.137,-64.24,36.009,-67.764
187.52,-165.15,108.45,-75.089,135.32,-89.551,135.79,-21.874,121.57,-123.15,109.65,-98.365,90.137,-64.24,36.009,-67.764
187.21,-164.58,108.21,-74.7,134.9,-88.572,135.55,-21.485,121.58,-122.7,109.54,-97.965,89.981,-63.704,35.892,-66.815
186.89,-164.01,107.97,-74.309,134.47,-87.592,135.3,-21.096,121.6,-122.25,109.43,-97.562,89.825,-63.167,35.776,-65.864
186.89,-164.01,107.97,-74.309,134.47,-87.592,135.3,-21.096,121.6,-122.25,109.43,-97.562,89.825,-63.167,35.776,-65.864
186.57,-163.43,107.72,-73.917,134.04,-86.61,135.05,-20.707,121.61,-121.8,109.31,-97.157,89.668,-62.629,35.659,-64.912
186.57,-163.43,107.72,-73.917,134.04,-86.61,135.05,-20.707,121.61,-121.8,109.31,-97.157,89.668,-62.629,35.659,-64.912
186.57,-163.43,107.72,-73.917,134.04,-86.61,135.05,-20.707,121.61,-121.8,109.31,-97.157,89.668,-62.629,35.659,-64.912
186.57,-163.43,107.72,-73.917,134.04,-86.61,135.05,-20.707,121.61,-121.8,109.31,-97.157,89.668,-62.629,35.659,-64.912
185.92,-162.27,107.22,-73.127,133.18,-84.64,134.55,-19.929,121.64,-120.9,109.06,-96.34,89.354,-61.551,35.425,-63.002
185.92,-162.27,107.22,-73.127,133.18,-84.64,134.55,-19.929,121.64,-120.9,109.06,-96.34,89.354,-61.551,35.425,-63.002
185.6,-161.68,106.97,-72.729,132.74,-83.653,134.29,-19.54,121.66,-120.44,108.94,-95.928,89.196,-61.011,35.307,-62.044
185.6,-161.68,106.97,-72.729,132.74,-83.653,134.29,-19.54,121.66,-120.44,108.94,-95.928,89.196,-61.011,35.307,-62.044
185.27,-161.09,106.72,-72.33,132.31,-82.664,134.03,-19.151,121.67,-119.99,108.81,-95.514,89.038,-60.47,35.189,-61.085
185.27,-161.09,106.72,-72.33,132.31,-82.664,134.03,-19.151,121.67,-119.99,108.81,-95.514,89.038,-60.47,35.189,-61.085
184.94,-160.5,106.46,-71.929,131.86,-81.673,133.77,-18.762,121.69,-119.53,108.67,-95.097,88.879,-59.929,35.071,-60.124
184.94,-160.5,106.46,-71.929,131.86,-81.673,133.77,-18.762,121.69,-119.53,108.67,-95.097,88.879,-59.929,35.071,-60.124
184.61,-159.91,106.2,-71.527,131.42,-80.681,133.5,-18.373,121.7,-119.08,108.54,-94.677,88.721,-59.386,34.953,-59.162
184.61,-159.91,106.2,-71.527,131.42,-80.681,133.5,-18.373,121.7,-119.08,108.54,-94.677,88.721,-59.386,34.953,-59.162
184.28,-159.32,105.94,-71.123,130.97,-79.687,133.23,-17.984,121.72,-118.62,108.4,-94.255,88.561,-58.843,34.835,-58.198
184.28,-159.32,105.94,-71.123,130.97,-79.687,133.23,-17.984,121.72,-118.62,108.4,-94.255,88.561,-58.843,34.835,-58.198
184.28,-159.32,105.94,-71.123,130.97,-79.687,133.23,-17.984,121.72,-118.62,108.4,-94.255,88.561,-58.843,34.835,-58.198
183.94,-158.72,105.67,-70.717,130.53,-78.692,132.95,-17.595,121.73,-118.16,108.26,-93.831,88.401,-58.3,34.716,-57.233
183.6,-158.12,105.4,-70.31,130.07,-77.696,132.68,-17.206,121.74,-117.7,108.11,-93.405,88.241,-57.755,34.597,-56.267
183.26,-157.51,105.13,-69.901,129.62,-76.698,132.4,-16.817,121.76,-117.24,107.97,-92.976,88.081,-57.21,34.478,-55.299
183.26,-157.51,105.13,-69.901,129.62,-76.698,132.4,-16.817,121.76,-117.24,107.97,-92.976,88.081,-57.21,34.478,-55.299
183.26,-157.51,105.13,-69.901,129.62,-76.698,132.4,-16.817,121.76,-117.24,107.97,-92.976,88.081,-57.21,34.478,-55.299
182.92,-156.91,104.86,-69.491,129.16,-75.699,132.11,-16.427,121.77,-116.78,107.81,-92.545,87.92,-56.664,34.358,-54.33
182.92,-156.91,104.86,-69.491,129.16,-75.699,132.11,-16.427,121.77,-116.78,107.81,-92.545,87.92,-56.664,34.358,-54.33
182.58,-156.3,104.59,-69.079,128.7,-74.698,131.82,-16.038,121.79,-116.31,107.66,-92.112,87.758,-56.118,34.239,-53.36
182.58,-156.3,104.59,-69.079,128.7,-74.698,131.82,-16.038,121.79,-116.31,107.66,-92.112,87.758,-56.118,34.239,-53.36
182.58,-156.3,104.59,-69.079,128.7,-74.698,131.82,-16.038,121.79,-116.31,107.66,-92.112,87.758,-56.118,34.239,-53.36
182.23,-155.69,104.31,-68.666,128.24,-73.696,131.53,-15.649,121.8,-115.85,107.5,-91.676,87.597,-55.571,34.119,-52.388
181.88,-155.07,104.03,-68.251,127.78,-72.694,131.24,-15.259,121.81,-115.38,107.35,-91.238,87.434,-55.024,33.998,-51.416
181.88,-155.07,104.03,-68.251,127.78,-72.694,131.24,-15.259,121.81,-115.38,107.35,-91.238,87.434,-55.024,33.998,-51.416
181.53,-154.46,103.75,-67.834,127.31,-71.69,130.94,-14.87,121.83,-114.92,107.18,-90.798,87.272,-54.476,33.878,-50.442
181.53,-154.46,103.75,-67.834,127.31,-71.69,130.94,-14.87,121.83,-114.92,107.18,-90.798,87.272,-54.476,33.878,-50.442
181.18,-153.84,103.47,-67.417,126.84,-70.684,130.64,-14.481,121.84,-114.45,107.02,-90.356,87.108,-53.927,33.757,-49.468
181.18,-153.84,103.47,-67.417,126.84,-70.684,130.64,-14.481,121.84,-114.45,107.02,-90.356,87.108,-53.927,33.757,-49.468
181.18,-153.84,103.47,-67.417,126.84,-70.684,130.64,-14.481,121.84,-114.45,107.02,-90.356,87.108,-53.927,33.757,-49.468
180.83,-153.22,103.18,-66.997,126.37,-69.678,130.34,-14.091,121.85,-113.98,106.85,-89.912,86.945,-53.378,33.636,-48.492
180.83,-153.22,103.18,-66.997,126.37,-69.678,130.34,-14.091,121.85,-113.98,106.85,-89.912,86.945,-53.378,33.636,-48.492
180.83,-153.22,103.18,-66.997,126.37,-69.678,130.34,-14.091,121.85,-113.98,106.85,-89.912,86.945,-53.378,33.636,-48.492
180.83,-153.22,103.18,-66.997,126.37,-69.678,130.34,-14.091,121.85,-113.98,106.85,-89.912,86.945,-53.378,33.636,-48.492
180.12,-151.97,102.61,-66.155,125.42,-67.663,129.73,-13.313,121.88,-113.05,106.5,-89.016,86.616,-52.278,33.394,-46.539
180.12,-151.97,102.61,-66.155,125.42,-67.663,129.73,-13.313,121.88,-113.05,106.5,-89.016,86.616,-52.278,33.394,-46.539
180.12,-151.97,102.61,-66.155,125.42,-67.663,129.73,-13.313,121.88,-113.05,106.5,-89.016,86.616,-52.278,33.394,-46.539
179.76,-151.34,102.31,-65.731,124.95,-66.654,129.41,-12.924,121.89,-112.58,106.33,-88.565,86.451,-51.727,33.272,-45.56
179.76,-151.34,102.31,-65.731,124.95,-66.654,129.41,-12.924,121.89,-112.58,106.33,-88.565,86.451,-51.727,33.272,-45.56
179.03,-150.08,101.72,-64.88,123.98,-64.634,128.78,-12.145,121.91,-111.63,105.96,-87.657,86.12,-50.624,33.028,-43.602
179.03,-150.08,101.72,-64.88,123.98,-64.634,128.78,-12.145,121.91,-111.63,105.96,-87.657,86.12,-50.624,33.028,-43.602
178.67,-149.44,101.42,-64.453,123.5,-63.622,128.46,-11.756,121.93,-111.16,105.78,-87.2,85.954,-50.072,32.905,-42.622
178.67,-149.44,101.42,-64.453,123.5,-63.622,128.46,-11.756,121.93,-111.16,105.78,-87.2,85.954,-50.072,32.905,-42.622
178.3,-148.81,101.12,-64.024,123.01,-62.61,128.13,-11.367,121.94,-110.69,105.59,-86.74,85.787,-49.52,32.782,-41.641
177.93,-148.17,100.82,-63.594,122.52,-61.597,127.8,-10.977,121.95,-110.21,105.4,-86.279,85.619,-48.967,32.659,-40.66
177.93,-148.17,100.82,-63.594,122.52,-61.597,127.8,-10.977,121.95,-110.21,105.4,-86.279,85.619,-48.967,32.659,-40.66
177.93,-148.17,100.82,-63.594,122.52,-61.597,127.8,-10.977,121.95,-110.21,105.4,-86.279,85.619,-48.967,32.659,-40.66
177.56,-147.53,100.52,-63.163,122.03,-60.584,127.47,-10.588,121.96,-109.74,105.2,-85.815,85.451,-48.414,32.536,-39.678
177.56,-147.53,100.52,-63.163,122.03,-60.584,127.47,-10.588,121.96,-109.74,105.2,-85.815,85.451,-48.414,32.536,-39.678
177.19,-146.88,100.21,-62.73,121.53,-59.57,127.14,-10.199,121.97,-109.26,105,-85.35,85.283,-47.861,32.412,-38.696
177.19,-146.88,100.21,-62.73,121.53,-59.57,127.14,-10.199,121.97,-109.26,105,-85.35,85.283,-47.861,32.412,-38.696
177.19,-146.88,100.21,-62.73,121.53,-59.57,127.14,-10.199,121.97,-109.26,105,-85.35,85.283,-47.861,32.412,-38.696
176.82,-146.24,99.901,-62.296,121.04,-58.556,126.8,-9.8104,121.98,-108.79,104.8,-84.882,85.114,-47.307,32.288,-37.713
176.82,-146.24,99.901,-62.296,121.04,-58.556,126.8,-9.8104,121.98,-108.79,104.8,-84.882,85.114,-47.307,32.288,-37.713
176.44,-145.59,99.59,-61.861,120.54,-57.541,126.46,-9.4215,121.99,-108.31,104.6,-84.413,84.944,-46.753,32.164,-36.73
176.44,-145.59,99.59,-61.861,120.54,-57.541,126.46,-9.4215,121.99,-108.31,104.6,-84.413,84.944,-46.753,32.164,-36.73
176.06,-144.94,99.277,-61.425,120.04,-56.525,126.11,-9.0326,122,-107.83,104.39,-83.941,84.774,-46.198,32.04,-35.746
176.06,-144.94,99.277,-61.425,120.04,-56.525,126.11,-9.0326,122,-107.83,104.39,-83.941,84.774,-46.198,32.04,-35.746
176.06,-144.94,99.277,-61.425,120.04,-56.525,126.11,-9.0326,122,-107.83,104.39,-83.941,84.774,-46.198,32.04,-35.746
175.3,-143.63,98.645,-60.549,119.03,-54.493,125.42,-8.2552,122.02,-106.87,103.97,-82.993,84.433,-45.089,31.79,-33.779
175.3,-143.63,98.645,-60.549,119.03,-54.493,125.42,-8.2552,122.02,-106.87,103.97,-82.993,84.433,-45.089,31.79,-33.779
175.3,-143.63,98.645,-60.549,119.03,-54.493,125.42,-8.2552,122.02,-106.87,103.97,-82.993,84.433,-45.089,31.79,-33.779
174.92,-142.98,98.326,-60.11,118.52,-53.476,125.06,-7.8666,122.03,-106.39,103.75,-82.515,84.261,-44.533,31.664,-32.795
174.54,-142.32,98.005,-59.669,118.01,-52.46,124.71,-7.4781,122.04,-105.91,103.54,-82.036,84.089,-43.978,31.539,-31.81
174.54,-142.32,98.005,-59.669,118.01,-52.46,124.71,-7.4781,122.04,-105.91,103.54,-82.036,84.089,-43.978,31.539,-31.81
174.15,-141.66,97.682,-59.227,117.5,-51.443,124.35,-7.0897,122.05,-105.43,103.32,-81.555,83.916,-43.422,31.413,-30.826
174.15,-141.66,97.682,-59.227,117.5,-51.443,124.35,-7.0897,122.05,-105.43,103.32,-81.555,83.916,-43.422,31.413,-30.826
174.15,-141.66,97.682,-59.227,117.5,-51.443,124.35,-7.0897,122.05,-105.43,103.32,-81.555,83.916,-43.422,31.413,-30.826
173.76,-141,97.358,-58.784,116.98,-50.425,123.99,-6.7015,122.06,-104.95,103.09,-81.072,83.743,-42.866,31.286,-29.842
173.76,-141,97.358,-58.784,116.98,-50.425,123.99,-6.7015,122.06,-104.95,103.09,-81.072,83.743,-42.866,31.286,-29.842
173.76,-141,97.358,-58.784,116.98,-50.425,123.99,-6.7015,122.06,-104.95,103.09,-81.072,83.743,-42.866,31.286,-29.842
172.98,-139.67,96.703,-57.895,115.95,-48.39,123.25,-5.9253,122.08,-103.99,102.63,-80.101,83.394,-41.754,31.033,-27.873
172.98,-139.67,96.703,-57.895,115.95,-48.39,123.25,-5.9253,122.08,-103.99,102.63,-80.101,83.394,-41.754,31.033,-27.873
172.98,-139.67,96.703,-57.895,115.95,-48.39,123.25,-5.9253,122.08,-103.99,102.63,-80.101,83.394,-41.754,31.033,-27.873
172.59,-139.01,96.372,-57.449,115.43,-47.373,122.88,-5.5375,122.09,-103.5,102.4,-79.613,83.219,-41.198,30.905,-26.889
172.19,-138.34,96.04,-57.002,114.9,-46.355,122.51,-5.1497,122.09,-103.02,102.17,-79.123,83.043,-40.642,30.778,-25.905
172.19,-138.34,96.04,-57.002,114.9,-46.355,122.51,-5.1497,122.09,-103.02,102.17,-79.123,83.043,-40.642,30.778,-25.905
171.79,-137.67,95.706,-56.555,114.38,-45.338,122.13,-4.7622,122.1,-102.54,101.93,-78.631,82.867,-40.085,30.65,-24.921
171.79,-137.67,95.706,-56.555,114.38,-45.338,122.13,-4.7622,122.1,-102.54,101.93,-78.631,82.867,-40.085,30.65,-24.921
171.39,-137,95.37,-56.106,113.85,-44.32,121.75,-4.3748,122.11,-102.05,101.69,-78.138,82.69,-39.529,30.521,-23.938
171.39,-137,95.37,-56.106,113.85,-44.32,121.75,-4.3748,122.11,-102.05,101.69,-78.138,82.69,-39.529,30.521,-23.938
170.99,-136.33,95.033,-55.656,113.32,-43.303,121.37,-3.9876,122.11,-101.57,101.44,-77.643,82.512,-38.972,30.393,-22.955
170.99,-136.33,95.033,-55.656,113.32,-43.303,121.37,-3.9876,122.11,-101.57,101.44,-77.643,82.512,-38.972,30.393,-22.955
170.99,-136.33,95.033,-55.656,113.32,-43.303,121.37,-3.9876,122.11,-101.57,101.44,-77.643,82.512,-38.972,30.393,-22.955
170.59,-135.65,94.693,-55.205,112.79,-42.286,120.99,-3.6005,122.12,-101.08,101.2,-77.146,82.334,-38.415,30.264,-21.972
170.59,-135.65,94.693,-55.205,112.79,-42.286,120.99,-3.6005,122.12,-101.08,101.2,-77.146,82.334,-38.415,30.264,-21.972
170.59,-135.65,94.693,-55.205,112.79,-42.286,120.99,-3.6005,122.12,-101.08,101.2,-77.146,82.334,-38.415,30.264,-21.972
169.78,-134.3,94.009,-54.301,111.72,-40.252,120.21,-2.827,122.13,-100.11,100.69,-76.147,81.976,-37.302,30.004,-20.007
169.78,-134.3,94.009,-54.301,111.72,-40.252,120.21,-2.827,122.13,-100.11,100.69,-76.147,81.976,-37.302,30.004,-20.007
169.37,-133.62,93.664,-53.848,111.19,-39.236,119.81,-2.4406,122.13,-99.626,100.44,-75.645,81.795,-36.746,29.874,-19.026
169.37,-133.62,93.664,-53.848,111.19,-39.236,119.81,-2.4406,122.13,-99.626,100.44,-75.645,81.795,-36.746,29.874,-19.026
168.97,-132.94,93.318,-53.394,110.65,-38.219,119.42,-2.0544,122.14,-99.139,100.18,-75.142,81.614,-36.189,29.744,-18.045
168.97,-132.94,93.318,-53.394,110.65,-38.219,119.42,-2.0544,122.14,-99.139,100.18,-75.142,81.614,-36.189,29.744,-18.045
168.97,-132.94,93.318,-53.394,110.65,-38.219,119.42,-2.0544,122.14,-99.139,100.18,-75.142,81.614,-36.189,29.744,-18.045
168.56,-132.25,92.97,-52.939,110.11,-37.204,119.02,-1.6684,122.14,-98.652,99.918,-74.637,81.433,-35.632,29.613,-17.064
168.14,-131.57,92.62,-52.484,109.56,-36.188,118.61,-1.2826,122.15,-98.165,99.654,-74.131,81.251,-35.076,29.481,-16.084
168.14,-131.57,92.62,-52.484,109.56,-36.188,118.61,-1.2826,122.15,-98.165,99.654,-74.131,81.251,-35.076,29.481,-16.084
167.73,-130.88,92.269,-52.027,109.02,-35.173,118.21,-0.89714,122.15,-97.677,99.388,-73.623,81.068,-34.519,29.35,-15.105
167.73,-130.88,92.269,-52.027,109.02,-35.173,118.21,-0.89714,122.15,-97.677,99.388,-73.623,81.068,-34.519,29.35,-15.105
167.31,-130.2,91.916,-51.57,108.47,-34.159,117.8,-0.5119,122.15,-97.189,99.118,-73.113,80.884,-33.963,29.218,-14.127
167.31,-130.2,91.916,-51.57,108.47,-34.159,117.8,-0.5119,122.15,-97.189,99.118,-73.113,80.884,-33.963,29.218,-14.127
167.31,-130.2,91.916,-51.57,108.47,-34.159,117.8,-0.5119,122.15,-97.189,99.118,-73.113,80.884,-33.963,29.218,-14.127
166.9,-129.51,91.561,-51.113,107.92,-33.145,117.39,-0.12693,122.15,-96.701,98.846,-72.602,80.7,-33.407,29.085,-13.149
166.48,-128.82,91.205,-50.654,107.37,-32.131,116.98,0.25776,122.15,-96.213,98.571,-72.09,80.514,-32.851,28.952,-12.172
166.48,-128.82,91.205,-50.654,107.37,-32.131,116.98,0.25776,122.15,-96.213,98.571,-72.09,80.514,-32.851,28.952,-12.172
166.06,-128.13,90.847,-50.195,106.82,-31.119,116.56,0.64215,122.15,-95.724,98.293,-71.576,80.329,-32.295,28.819,-11.196
166.06,-128.13,90.847,-50.195,106.82,-31.119,116.56,0.64215,122.15,-95.724,98.293,-71.576,80.329,-32.295,28.819,-11.196
165.64,-127.44,90.488,-49.735,106.26,-30.106,116.14,1.0262,122.15,-95.235,98.012,-71.061,80.142,-31.74,28.685,-10.22
165.64,-127.44,90.488,-49.735,106.26,-30.106,116.14,1.0262,122.15,-95.235,98.012,-71.061,80.142,-31.74,28.685,-10.22
165.21,-126.74,90.127,-49.275,105.7,-29.095,115.72,1.41,122.15,-94.746,97.729,-70.544,79.955,-31.184,28.551,-9.2462
165.21,-126.74,90.127,-49.275,105.7,-29.095,115.72,1.41,122.15,-94.746,97.729,-70.544,79.955,-31.184,28.551,-9.2462
165.21,-126.74,90.127,-49.275,105.7,-29.095,115.72,1.41,122.15,-94.746,97.729,-70.544,79.955,-31.184,28.551,-9.2462
164.79,-126.05,89.765,-48.814,105.15,-28.084,115.3,1.7935,122.15,-94.256,97.443,-70.026,79.767,-30.629,28.416,-8.2729
164.79,-126.05,89.765,-48.814,105.15,-28.084,115.3,1.7935,122.15,-94.256,97.443,-70.026,79.767,-30.629,28.416,-8.2729
164.36,-125.35,89.401,-48.353,104.59,-27.074,114.87,2.1766,122.15,-93.767,97.154,-69.507,79.578,-30.074,28.281,-7.3006
164.36,-125.35,89.401,-48.353,104.59,-27.074,114.87,2.1766,122.15,-93.767,97.154,-69.507,79.578,-30.074,28.281,-7.3006
163.93,-124.66,89.036,-47.891,104.02,-26.065,114.44,2.5594,122.15,-93.277,96.863,-68.986,79.388,-29.519,28.145,-6.3293
163.93,-124.66,89.036,-47.891,104.02,-26.065,114.44,2.5594,122.15,-93.277,96.863,-68.986,79.388,-29.519,28.145,-6.3293
163.07,-123.26,88.3,-46.965,102.89,-24.049,113.58,3.3238,122.14,-92.297,96.272,-67.941,79.007,-28.41,27.872,-4.3902
163.07,-123.26,88.3,-46.965,102.89,-24.049,113.58,3.3238,122.14,-92.297,96.272,-67.941,79.007,-28.41,27.872,-4.3902
163.07,-123.26,88.3,-46.965,102.89,-24.049,113.58,3.3238,122.14,-92.297,96.272,-67.941,79.007,-28.41,27.872,-4.3902
162.64,-122.56,87.931,-46.502,102.33,-23.043,113.14,3.7055,122.14,-91.807,95.972,-67.416,78.815,-27.856,27.735,-3.4223
162.64,-122.56,87.931,-46.502,102.33,-23.043,113.14,3.7055,122.14,-91.807,95.972,-67.416,78.815,-27.856,27.735,-3.4223
162.2,-121.86,87.56,-46.038,101.76,-22.037,112.7,4.0868,122.14,-91.317,95.67,-66.891,78.622,-27.303,27.598,-2.4558
162.2,-121.86,87.56,-46.038,101.76,-22.037,112.7,4.0868,122.14,-91.317,95.67,-66.891,78.622,-27.303,27.598,-2.4558
161.77,-121.16,87.187,-45.573,101.18,-21.032,112.26,4.4676,122.13,-90.827,95.365,-66.364,78.428,-26.75,27.46,-1.4904
161.77,-121.16,87.187,-45.573,101.18,-21.032,112.26,4.4676,122.13,-90.827,95.365,-66.364,78.428,-26.75,27.46,-1.4904
161.33,-120.45,86.813,-45.108,100.61,-20.029,111.81,4.8481,122.13,-90.336,95.058,-65.836,78.234,-26.197,27.321,-0.52643
160.89,-119.75,86.438,-44.643,100.04,-19.026,111.36,5.2281,122.12,-89.846,94.748,-65.306,78.039,-25.644,27.182,0.43622
160.89,-119.75,86.438,-44.643,100.04,-19.026,111.36,5.2281,122.12,-89.846,94.748,-65.306,78.039,-25.644,27.182,0.43622
160.89,-119.75,86.438,-44.643,100.04,-19.026,111.36,5.2281,122.12,-89.846,94.748,-65.306,78.039,-25.644,27.182,0.43622
160.45,-119.04,86.062,-44.178,99.46,-18.025,110.92,5.6076,122.11,-89.355,94.435,-64.776,77.843,-25.092,27.042,1.3975
160.45,-119.04,86.062,-44.178,99.46,-18.025,110.92,5.6076,122.11,-89.355,94.435,-64.776,77.843,-25.092,27.042,1.3975
160.01,-118.34,85.684,-43.712,98.881,-17.024,110.46,5.9867,122.1,-88.864,94.12,-64.244,77.646,-24.541,26.902,2.3573
160.01,-118.34,85.684,-43.712,98.881,-17.024,110.46,5.9867,122.1,-88.864,94.12,-64.244,77.646,-24.541,26.902,2.3573
159.57,-117.63,85.305,-43.246,98.301,-16.025,110.01,6.3654,122.1,-88.374,93.802,-63.712,77.448,-23.989,26.762,3.3156
159.12,-116.92,84.924,-42.779,97.719,-15.027,109.55,6.7435,122.09,-87.883,93.481,-63.178,77.249,-23.439,26.62,4.2724
159.12,-116.92,84.924,-42.779,97.719,-15.027,109.55,6.7435,122.09,-87.883,93.481,-63.178,77.249,-23.439,26.62,4.2724
159.12,-116.92,84.924,-42.779,97.719,-15.027,109.55,6.7435,122.09,-87.883,93.481,-63.178,77.249,-23.439,26.62,4.2724
158.68,-116.22,84.543,-42.313,97.136,-14.031,109.09,7.1212,122.08,-87.393,93.158,-62.644,77.05,-22.888,26.479,5.2277
158.68,-116.22,84.543,-42.313,97.136,-14.031,109.09,7.1212,122.08,-87.393,93.158,-62.644,77.05,-22.888,26.479,5.2277
158.68,-116.22,84.543,-42.313,97.136,-14.031,109.09,7.1212,122.08,-87.393,93.158,-62.644,77.05,-22.888,26.479,5.2277
158.23,-115.51,84.16,-41.846,96.55,-13.035,108.63,7.4983,122.07,-86.902,92.833,-62.108,76.85,-22.339,26.336,6.1813
158.23,-115.51,84.16,-41.846,96.55,-13.035,108.63,7.4983,122.07,-86.902,92.833,-62.108,76.85,-22.339,26.336,6.1813
157.78,-114.8,83.776,-41.378,95.963,-12.041,108.17,7.875,122.05,-86.412,92.504,-61.572,76.648,-21.789,26.193,7.1333
157.78,-114.8,83.776,-41.378,95.963,-12.041,108.17,7.875,122.05,-86.412,92.504,-61.572,76.648,-21.789,26.193,7.1333
156.88,-113.38,83.004,-40.444,94.784,-10.057,107.23,8.6266,122.03,-85.431,91.841,-60.496,76.243,-20.692,25.906,9.0322
156.88,-113.38,83.004,-40.444,94.784,-10.057,107.23,8.6266,122.03,-85.431,91.841,-60.496,76.243,-20.692,25.906,9.0322
156.88,-113.38,83.004,-40.444,94.784,-10.057,107.23,8.6266,122.03,-85.431,91.841,-60.496,76.243,-20.692,25.906,9.0322
156.42,-112.66,82.616,-39.976,94.193,-9.0671,106.76,9.0016,122.02,-84.94,91.505,-59.956,76.039,-20.145,25.761,9.9791
156.42,-112.66,82.616,-39.976,94.193,-9.0671,106.76,9.0016,122.02,-84.94,91.505,-59.956,76.039,-20.145,25.761,9.9791
155.97,-111.95,82.227,-39.508,93.599,-8.0787,106.29,9.3759,122,-84.45,91.167,-59.416,75.835,-19.598,25.616,10.924
155.97,-111.95,82.227,-39.508,93.599,-8.0787,106.29,9.3759,122,-84.45,91.167,-59.416,75.835,-19.598,25.616,10.924
155.51,-111.24,81.838,-39.04,93.004,-7.0917,105.81,9.7498,121.99,-83.96,90.826,-58.875,75.629,-19.051,25.47,11.867
155.51,-111.24,81.838,-39.04,93.004,-7.0917,105.81,9.7498,121.99,-83.96,90.826,-58.875,75.629,-19.051,25.47,11.867
155.51,-111.24,81.838,-39.04,93.004,-7.0917,105.81,9.7498,121.99,-83.96,90.826,-58.875,75.629,-19.051,25.47,11.867
155.05,-110.52,81.447,-38.572,92.407,-6.1063,105.33,10.123,121.97,-83.47,90.483,-58.333,75.422,-18.505,25.324,12.809
155.05,-110.52,81.447,-38.572,92.407,-6.1063,105.33,10.123,121.97,-83.47,90.483,-58.333,75.422,-18.505,25.324,12.809
155.05,-110.52,81.447,-38.572,92.407,-6.1063,105.33,10.123,121.97,-83.47,90.483,-58.333,75.422,-18.505,25.324,12.809
154.14,-109.1,80.661,-37.636,91.209,-4.1402,104.37,10.867,121.93,-82.491,89.789,-57.247,75.006,-17.415,25.029,14.685
154.14,-109.1,80.661,-37.636,91.209,-4.1402,104.37,10.867,121.93,-82.491,89.789,-57.247,75.006,-17.415,25.029,14.685
153.67,-108.38,80.267,-37.168,90.607,-3.1596,103.88,11.239,121.91,-82.001,89.439,-56.703,74.796,-16.872,24.881,15.621
153.67,-108.38,80.267,-37.168,90.607,-3.1596,103.88,11.239,121.91,-82.001,89.439,-56.703,74.796,-16.872,24.881,15.621
153.67,-108.38,80.267,-37.168,90.607,-3.1596,103.88,11.239,121.91,-82.001,89.439,-56.703,74.796,-16.872,24.881,15.621
153.21,-107.67,79.872,-36.7,90.004,-2.1807,103.4,11.609,121.89,-81.512,89.086,-56.158,74.586,-16.328,24.732,16.554
152.75,-106.95,79.476,-36.232,89.4,-1.2034,102.91,11.979,121.87,-81.023,88.731,-55.612,74.375,-15.786,24.582,17.486
152.75,-106.95,79.476,-36.232,89.4,-1.2034,102.91,11.979,121.87,-81.023,88.731,-55.612,74.375,-15.786,24.582,17.486
152.28,-106.23,79.079,-35.765,88.794,-0.22794,102.42,12.349,121.85,-80.534,88.373,-55.066,74.162,-15.244,24.432,18.415
152.28,-106.23,79.079,-35.765,88.794,-0.22794,102.42,12.349,121.85,-80.534,88.373,-55.066,74.162,-15.244,24.432,18.415
151.81,-105.52,78.681,-35.297,88.186,0.74578,101.92,12.717,121.83,-80.045,88.013,-54.519,73.949,-14.703,24.281,19.342
151.81,-105.52,78.681,-35.297,88.186,0.74578,101.92,12.717,121.83,-80.045,88.013,-54.519,73.949,-14.703,24.281,19.342
151.35,-104.8,78.282,-34.829,87.577,1.7177,101.43,13.085,121.81,-79.557,87.651,-53.971,73.734,-14.163,24.129,20.267
151.35,-104.8,78.282,-34.829,87.577,1.7177,101.43,13.085,121.81,-79.557,87.651,-53.971,73.734,-14.163,24.129,20.267
151.35,-104.8,78.282,-34.829,87.577,1.7177,101.43,13.085,121.81,-79.557,87.651,-53.971,73.734,-14.163,24.129,20.267
150.88,-104.08,77.882,-34.362,86.966,2.6878,100.93,13.452,121.78,-79.069,87.286,-53.423,73.519,-13.623,23.977,21.189
150.41,-103.36,77.481,-33.894,86.354,3.656,100.43,13.818,121.76,-78.581,86.919,-52.875,73.303,-13.084,23.824,22.11
149.94,-102.65,77.08,-33.427,85.741,4.6223,99.929,14.184,121.73,-78.093,86.55,-52.325,73.085,-12.547,23.67,23.028
149.94,-102.65,77.08,-33.427,85.741,4.6223,99.929,14.184,121.73,-78.093,86.55,-52.325,73.085,-12.547,23.67,23.028
149.94,-102.65,77.08,-33.427,85.741,4.6223,99.929,14.184,121.73,-78.093,86.55,-52.325,73.085,-12.547,23.67,23.028
149.46,-101.93,76.677,-32.961,85.126,5.5867,99.426,14.549,121.7,-77.606,86.178,-51.776,72.867,-12.01,23.516,23.944
149.46,-101.93,76.677,-32.961,85.126,5.5867,99.426,14.549,121.7,-77.606,86.178,-51.776,72.867,-12.01,23.516,23.944
148.99,-101.21,76.274,-32.494,84.51,6.5491,98.92,14.913,121.67,-77.119,85.805,-51.226,72.647,-11.473,23.36,24.857
148.99,-101.21,76.274,-32.494,84.51,6.5491,98.92,14.913,121.67,-77.119,85.805,-51.226,72.647,-11.473,23.36,24.857
148.99,-101.21,76.274,-32.494,84.51,6.5491,98.92,14.913,121.67,-77.119,85.805,-51.226,72.647,-11.473,23.36,24.857
148.51,-100.49,75.87,-32.028,83.892,7.5095,98.412,15.276,121.64,-76.632,85.429,-50.675,72.427,-10.938,23.205,25.768
148.51,-100.49,75.87,-32.028,83.892,7.5095,98.412,15.276,121.64,-76.632,85.429,-50.675,72.427,-10.938,23.205,25.768
148.51,-100.49,75.87,-32.028,83.892,7.5095,98.412,15.276,121.64,-76.632,85.429,-50.675,72.427,-10.938,23.205,25.768
148.51,-100.49,75.87,-32.028,83.892,7.5095,98.412,15.276,121.64,-76.632,85.429,-50.675,72.427,-10.938,23.205,25.768
147.56,-99.055,75.059,-31.096,82.652,9.4241,97.391,16,121.58,-75.66,84.67,-49.573,71.983,-9.8699,22.891,27.582
147.56,-99.055,75.059,-31.096,82.652,9.4241,97.391,16,121.58,-75.66,84.67,-49.573,71.983,-9.8699,22.891,27.582
147.56,-99.055,75.059,-31.096,82.652,9.4241,97.391,16,121.58,-75.66,84.67,-49.573,71.983,-9.8699,22.891,27.582
146.6,-97.618,74.245,-30.165,81.407,11.33,96.362,16.72,121.51,-74.689,83.903,-48.469,71.534,-8.8055,22.574,29.387
146.6,-97.618,74.245,-30.165,81.407,11.33,96.362,16.72,121.51,-74.689,83.903,-48.469,71.534,-8.8055,22.574,29.387
146.12,-96.899,73.838,-29.701,80.782,12.28,95.845,17.079,121.48,-74.204,83.516,-47.916,71.309,-8.2747,22.414,30.285
146.12,-96.899,73.838,-29.701,80.782,12.28,95.845,17.079,121.48,-74.204,83.516,-47.916,71.309,-8.2747,22.414,30.285
145.63,-96.18,73.429,-29.237,80.156,13.228,95.326,17.437,121.44,-73.719,83.127,-47.363,71.082,-7.7449,22.254,31.181
145.63,-96.18,73.429,-29.237,80.156,13.228,95.326,17.437,121.44,-73.719,83.127,-47.363,71.082,-7.7449,22.254,31.181
145.15,-95.462,73.02,-28.773,79.529,14.174,94.805,17.794,121.4,-73.235,82.735,-46.81,70.854,-7.2161,22.093,32.074
145.15,-95.462,73.02,-28.773,79.529,14.174,94.805,17.794,121.4,-73.235,82.735,-46.81,70.854,-7.2161,22.093,32.074
144.66,-94.743,72.61,-28.31,78.901,15.117,94.282,18.15,121.37,-72.752,82.342,-46.257,70.625,-6.6883,21.931,32.965
144.66,-94.743,72.61,-28.31,78.901,15.117,94.282,18.15,121.37,-72.752,82.342,-46.257,70.625,-6.6883,21.931,32.965
144.18,-94.025,72.199,-27.847,78.271,16.058,93.758,18.505,121.33,-72.269,81.947,-45.704,70.395,-6.1615,21.768,33.853
144.18,-94.025,72.199,-27.847,78.271,16.058,93.758,18.505,121.33,-72.269,81.947,-45.704,70.395,-6.1615,21.768,33.853
144.18,-94.025,72.199,-27.847,78.271,16.058,93.758,18.505,121.33,-72.269,81.947,-45.704,70.395,-6.1615,21.768,33.853
143.69,-93.307,71.788,-27.385,77.64,16.996,93.231,18.859,121.29,-71.786,81.549,-45.15,70.164,-5.6358,21.605,34.738
143.2,-92.589,71.376,-26.923,77.007,17.933,92.703,19.212,121.24,-71.304,81.15,-44.596,69.932,-5.1111,21.44,35.62
143.2,-92.589,71.376,-26.923,77.007,17.933,92.703,19.212,121.24,-71.304,81.15,-44.596,69.932,-5.1111,21.44,35.62
142.71,-91.871,70.964,-26.462,76.374,18.867,92.173,19.564,121.2,-70.822,80.748,-44.043,69.698,-4.5874,21.275,36.499
142.71,-91.871,70.964,-26.462,76.374,18.867,92.173,19.564,121.2,-70.822,80.748,-44.043,69.698,-4.5874,21.275,36.499
142.22,-91.153,70.551,-26.002,75.739,19.798,91.642,19.915,121.16,-70.34,80.345,-43.489,69.464,-4.0649,21.109,37.376
142.22,-91.153,70.551,-26.002,75.739,19.798,91.642,19.915,121.16,-70.34,80.345,-43.489,69.464,-4.0649,21.109,37.376
141.73,-90.436,70.138,-25.542,75.103,20.727,91.109,20.265,121.11,-69.86,79.939,-42.935,69.228,-3.5435,20.942,38.249
141.73,-90.436,70.138,-25.542,75.103,20.727,91.109,20.265,121.11,-69.86,79.939,-42.935,69.228,-3.5435,20.942,38.249
141.73,-90.436,70.138,-25.542,75.103,20.727,91.109,20.265,121.11,-69.86,79.939,-42.935,69.228,-3.5435,20.942,38.249
141.24,-89.719,69.724,-25.082,74.466,21.654,90.574,20.614,121.06,-69.379,79.532,-42.381,68.992,-3.0231,20.775,39.12
141.24,-89.719,69.724,-25.082,74.466,21.654,90.574,20.614,121.06,-69.379,79.532,-42.381,68.992,-3.0231,20.775,39.12
140.74,-89.002,69.31,-24.624,73.827,22.578,90.038,20.962,121.01,-68.9,79.122,-41.826,68.754,-2.504,20.606,39.988
140.74,-89.002,69.31,-24.624,73.827,22.578,90.038,20.962,121.01,-68.9,79.122,-41.826,68.754,-2.504,20.606,39.988
140.74,-89.002,69.31,-24.624,73.827,22.578,90.038,20.962,121.01,-68.9,79.122,-41.826,68.754,-2.504,20.606,39.988
139.75,-87.57,68.48,-23.709,72.547,24.419,88.96,21.655,120.91,-67.942,78.298,-40.718,68.275,-1.4691,20.267,41.714
139.75,-87.57,68.48,-23.709,72.547,24.419,88.96,21.655,120.91,-67.942,78.298,-40.718,68.275,-1.4691,20.267,41.714
139.26,-86.855,68.064,-23.252,71.905,25.335,88.419,21.999,120.86,-67.464,77.883,-40.164,68.033,-0.95347,20.096,42.573
139.26,-86.855,68.064,-23.252,71.905,25.335,88.419,21.999,120.86,-67.464,77.883,-40.164,68.033,-0.95347,20.096,42.573
139.26,-86.855,68.064,-23.252,71.905,25.335,88.419,21.999,120.86,-67.464,77.883,-40.164,68.033,-0.95347,20.096,42.573
138.76,-86.139,67.648,-22.797,71.262,26.249,87.876,22.342,120.81,-66.986,77.466,-39.611,67.791,-0.43903,19.924,43.429
138.26,-85.425,67.231,-22.342,70.618,27.16,87.332,22.685,120.75,-66.509,77.047,-39.057,67.547,0.07419,19.752,44.281
138.26,-85.425,67.231,-22.342,70.618,27.16,87.332,22.685,120.75,-66.509,77.047,-39.057,67.547,0.07419,19.752,44.281
137.76,-84.711,66.815,-21.888,69.973,28.069,86.786,23.026,120.7,-66.033,76.626,-38.503,67.303,0.58617,19.578,45.131
137.76,-84.711,66.815,-21.888,69.973,28.069,86.786,23.026,120.7,-66.033,76.626,-38.503,67.303,0.58617,19.578,45.131
137.26,-83.997,66.398,-21.435,69.327,28.975,86.239,23.366,120.64,-65.557,76.204,-37.95,67.057,1.0969,19.403,45.977
137.26,-83.997,66.398,-21.435,69.327,28.975,86.239,23.366,120.64,-65.557,76.204,-37.95,67.057,1.0969,19.403,45.977
136.76,-83.284,65.98,-20.983,68.679,29.878,85.69,23.704,120.58,-65.082,75.78,-37.397,66.81,1.6064,19.228,46.82
136.76,-83.284,65.98,-20.983,68.679,29.878,85.69,23.704,120.58,-65.082,75.78,-37.397,66.81,1.6064,19.228,46.82
136.76,-83.284,65.98,-20.983,68.679,29.878,85.69,23.704,120.58,-65.082,75.78,-37.397,66.81,1.6064,19.228,46.82
136.25,-82.571,65.562,-20.531,68.031,30.778,85.14,24.042,120.52,-64.608,75.354,-36.844,66.561,2.1145,19.052,47.66
135.75,-81.859,65.144,-20.081,67.382,31.676,84.588,24.378,120.46,-64.134,74.926,-36.291,66.312,2.6214,18.875,48.496
135.75,-81.859,65.144,-20.081,67.382,31.676,84.588,24.378,120.46,-64.134,74.926,-36.291,66.312,2.6214,18.875,48.496
135.25,-81.148,64.726,-19.631,66.731,32.571,84.035,24.713,120.4,-63.661,74.496,-35.739,66.061,3.1269,18.697,49.329
135.25,-81.148,64.726,-19.631,66.731,32.571,84.035,24.713,120.4,-63.661,74.496,-35.739,66.061,3.1269,18.697,49.329
134.74,-80.437,64.307,-19.183,66.08,33.463,83.481,25.046,120.33,-63.189,74.065,-35.187,65.81,3.6311,18.518,50.159
134.74,-80.437,64.307,-19.183,66.08,33.463,83.481,25.046,120.33,-63.189,74.065,-35.187,65.81,3.6311,18.518,50.159
134.23,-79.728,63.889,-18.735,65.428,34.352,82.925,25.379,120.27,-62.717,73.632,-34.635,65.557,4.134,18.338,50.986
134.23,-79.728,63.889,-18.735,65.428,34.352,82.925,25.379,120.27,-62.717,73.632,-34.635,65.557,4.134,18.338,50.986
134.23,-79.728,63.889,-18.735,65.428,34.352,82.925,25.379,120.27,-62.717,73.632,-34.635,65.557,4.134,18.338,50.986
133.73,-79.018,63.47,-18.288,64.774,35.238,82.368,25.71,120.2,-62.246,73.198,-34.084,65.303,4.6354,18.157,51.809
133.22,-78.31,63.051,-17.843,64.12,36.122,81.81,26.039,120.13,-61.775,72.762,-33.533,65.047,5.1355,17.975,52.629
132.71,-77.602,62.631,-17.399,63.465,37.002,81.251,26.368,120.06,-61.306,72.324,-32.983,64.791,5.6342,17.793,53.445
132.71,-77.602,62.631,-17.399,63.465,37.002,81.251,26.368,120.06,-61.306,72.324,-32.983,64.791,5.6342,17.793,53.445
132.71,-77.602,62.631,-17.399,63.465,37.002,81.251,26.368,120.06,-61.306,72.324,-32.983,64.791,5.6342,17.793,53.445
132.2,-76.895,62.212,-16.955,62.809,37.88,80.69,26.695,119.99,-60.837,71.885,-32.433,64.533,6.1315,17.609,54.258
132.2,-76.895,62.212,-16.955,62.809,37.88,80.69,26.695,119.99,-60.837,71.885,-32.433,64.533,6.1315,17.609,54.258
131.69,-76.189,61.792,-16.513,62.152,38.754,80.128,27.02,119.91,-60.369,71.444,-31.883,64.274,6.6274,17.424,55.068
131.69,-76.189,61.792,-16.513,62.152,38.754,80.128,27.02,119.91,-60.369,71.444,-31.883,64.274,6.6274,17.424,55.068
131.69,-76.189,61.792,-16.513,62.152,38.754,80.128,27.02,119.91,-60.369,71.444,-31.883,64.274,6.6274,17.424,55.068
131.18,-75.484,61.373,-16.072,61.494,39.626,79.565,27.344,119.84,-59.901,71.001,-31.334,64.014,7.1218,17.239,55.874
130.67,-74.78,60.953,-15.632,60.835,40.494,79,27.667,119.76,-59.435,70.558,-30.786,63.752,7.6147,17.053,56.676
130.67,-74.78,60.953,-15.632,60.835,40.494,79,27.667,119.76,-59.435,70.558,-30.786,63.752,7.6147,17.053,56.676
130.15,-74.076,60.533,-15.193,60.176,41.359,78.435,27.988,119.68,-58.969,70.112,-30.238,63.49,8.1062,16.865,57.475
130.15,-74.076,60.533,-15.193,60.176,41.359,78.435,27.988,119.68,-58.969,70.112,-30.238,63.49,8.1062,16.865,57.475
129.64,-73.374,60.114,-14.756,59.516,42.222,77.868,28.308,119.6,-58.504,69.665,-29.69,63.226,8.5961,16.677,58.27
129.64,-73.374,60.114,-14.756,59.516,42.222,77.868,28.308,119.6,-58.504,69.665,-29.69,63.226,8.5961,16.677,58.27
129.12,-72.672,59.694,-14.319,58.854,43.081,77.3,28.627,119.52,-58.04,69.217,-29.144,62.961,9.0846,16.487,59.062
129.12,-72.672,59.694,-14.319,58.854,43.081,77.3,28.627,119.52,-58.04,69.217,-29.144,62.961,9.0846,16.487,59.062
128.61,-71.972,59.274,-13.884,58.192,43.937,76.731,28.944,119.44,-57.576,68.767,-28.598,62.694,9.5715,16.297,59.85
128.61,-71.972,59.274,-13.884,58.192,43.937,76.731,28.944,119.44,-57.576,68.767,-28.598,62.694,9.5715,16.297,59.85
128.09,-71.272,58.854,-13.45,57.53,44.79,76.161,29.259,119.36,-57.114,68.316,-28.053,62.427,10.057,16.106,60.634
128.09,-71.272,58.854,-13.45,57.53,44.79,76.161,29.259,119.36,-57.114,68.316,-28.053,62.427,10.057,16.106,60.634
127.57,-70.574,58.435,-13.018,56.866,45.64,75.59,29.573,119.27,-56.652,67.863,-27.508,62.158,10.541,15.914,61.414
127.06,-69.876,58.015,-12.587,56.202,46.486,75.018,29.885,119.18,-56.191,67.409,-26.964,61.888,11.023,15.72,62.191
127.06,-69.876,58.015,-12.587,56.202,46.486,75.018,29.885,119.18,-56.191,67.409,-26.964,61.888,11.023,15.72,62.191
127.06,-69.876,58.015,-12.587,56.202,46.486,75.018,29.885,119.18,-56.191,67.409,-26.964,61.888,11.023,15.72,62.191
126.54,-69.18,57.596,-12.157,55.537,47.329,74.445,30.196,119.09,-55.731,66.954,-26.421,61.617,11.504,15.526,62.964
126.54,-69.18,57.596,-12.157,55.537,47.329,74.445,30.196,119.09,-55.731,66.954,-26.421,61.617,11.504,15.526,62.964
126.54,-69.18,57.596,-12.157,55.537,47.329,74.445,30.196,119.09,-55.731,66.954,-26.421,61.617,11.504,15.526,62.964
126.02,-68.485,57.176,-11.729,54.871,48.169,73.871,30.505,119,-55.272,66.497,-25.879,61.344,11.983,15.331,63.734
126.02,-68.485,57.176,-11.729,54.871,48.169,73.871,30.505,119,-55.272,66.497,-25.879,61.344,11.983,15.331,63.734
125.5,-67.791,56.757,-11.302,54.205,49.006,73.296,30.813,118.91,-54.813,66.039,-25.337,61.071,12.46,15.135,64.499
125.5,-67.791,56.757,-11.302,54.205,49.006,73.296,30.813,118.91,-54.813,66.039,-25.337,61.071,12.46,15.135,64.499
124.98,-67.098,56.338,-10.876,53.538,49.839,72.721,31.119,118.82,-54.356,65.58,-24.796,60.796,12.936,14.938,65.261
124.98,-67.098,56.338,-10.876,53.538,49.839,72.721,31.119,118.82,-54.356,65.58,-24.796,60.796,12.936,14.938,65.261
124.98,-67.098,56.338,-10.876,53.538,49.839,72.721,31.119,118.82,-54.356,65.58,-24.796,60.796,12.936,14.938,65.261
123.94,-65.715,55.5,-10.029,52.202,51.496,71.566,31.726,118.62,-53.443,64.658,-23.718,60.242,13.883,14.541,66.773
123.94,-65.715,55.5,-10.029,52.202,51.496,71.566,31.726,118.62,-53.443,64.658,-23.718,60.242,13.883,14.541,66.773
123.94,-65.715,55.5,-10.029,52.202,51.496,71.566,31.726,118.62,-53.443,64.658,-23.718,60.242,13.883,14.541,66.773
123.41,-65.026,55.082,-9.6082,51.533,52.319,70.988,32.027,118.52,-52.988,64.195,-23.18,59.963,14.354,14.34,67.523
122.89,-64.338,54.663,-9.1885,50.864,53.139,70.408,32.326,118.42,-52.535,63.731,-22.643,59.684,14.823,14.139,68.269
122.37,-63.652,54.245,-8.7704,50.194,53.956,69.828,32.624,118.32,-52.082,63.266,-22.107,59.402,15.29,13.937,69.011
122.37,-63.652,54.245,-8.7704,50.194,53.956,69.828,32.624,118.32,-52.082,63.266,-22.107,59.402,15.29,13.937,69.011
121.84,-62.966,53.828,-8.3539,49.523,54.769,69.247,32.92,118.22,-51.63,62.799,-21.572,59.12,15.756,13.734,69.749
121.84,-62.966,53.828,-8.3539,49.523,54.769,69.247,32.92,118.22,-51.63,62.799,-21.572,59.12,15.756,13.734,69.749
121.84,-62.966,53.828,-8.3539,49.523,54.769,69.247,32.92,118.22,-51.63,62.799,-21.572,59.12,15.756,13.734,69.749
121.32,-62.282,53.41,-7.9389,48.852,55.578,68.666,33.214,118.11,-51.179,62.332,-21.038,58.836,16.22,13.53,70.483
121.32,-62.282,53.41,-7.9389,48.852,55.578,68.666,33.214,118.11,-51.179,62.332,-21.038,58.836,16.22,13.53,70.483
120.79,-61.6,52.993,-7.5255,48.18,56.384,68.083,33.507,118,-50.728,61.863,-20.505,58.551,16.682,13.325,71.214
120.79,-61.6,52.993,-7.5255,48.18,56.384,68.083,33.507,118,-50.728,61.863,-20.505,58.551,16.682,13.325,71.214
120.27,-60.919,52.576,-7.1138,47.508,57.187,67.5,33.797,117.89,-50.279,61.394,-19.973,58.265,17.143,13.118,71.94
120.27,-60.919,52.576,-7.1138,47.508,57.187,67.5,33.797,117.89,-50.279,61.394,-19.973,58.265,17.143,13.118,71.94
119.74,-60.239,52.16,-6.7038,46.836,57.986,66.916,34.086,117.78,-49.831,60.923,-19.442,57.978,17.602,12.911,72.662
119.21,-59.56,51.744,-6.2954,46.162,58.781,66.332,34.374,117.67,-49.384,60.451,-18.913,57.689,18.059,12.703,73.38
119.21,-59.56,51.744,-6.2954,46.162,58.781,66.332,34.374,117.67,-49.384,60.451,-18.913,57.689,18.059,12.703,73.38
119.21,-59.56,51.744,-6.2954,46.162,58.781,66.332,34.374,117.67,-49.384,60.451,-18.913,57.689,18.059,12.703,73.38
118.69,-58.884,51.328,-5.8887,45.489,59.573,65.746,34.659,117.55,-48.938,59.979,-18.384,57.399,18.514,12.494,74.094
118.69,-58.884,51.328,-5.8887,45.489,59.573,65.746,34.659,117.55,-48.938,59.979,-18.384,57.399,18.514,12.494,74.094
118.69,-58.884,51.328,-5.8887,45.489,59.573,65.746,34.659,117.55,-48.938,59.979,-18.384,57.399,18.514,12.494,74.094
118.16,-58.208,50.913,-5.4837,44.815,60.361,65.161,34.943,117.44,-48.492,59.505,-17.857,57.108,18.967,12.284,74.804
117.63,-57.534,50.498,-5.0804,44.141,61.146,64.574,35.224,117.32,-48.048,59.031,-17.331,56.815,19.419,12.072,75.51
117.63,-57.534,50.498,-5.0804,44.141,61.146,64.574,35.224,117.32,-48.048,59.031,-17.331,56.815,19.419,12.072,75.51
117.1,-56.862,50.083,-4.679,43.466,61.927,63.987,35.504,117.2,-47.605,58.555,-16.806,56.522,19.869,11.86,76.211
117.1,-56.862,50.083,-4.679,43.466,61.927,63.987,35.504,117.2,-47.605,58.555,-16.806,56.522,19.869,11.86,76.211
117.1,-56.862,50.083,-4.679,43.466,61.927,63.987,35.504,117.2,-47.605,58.555,-16.806,56.522,19.869,11.86,76.211
117.1,-56.862,50.083,-4.679,43.466,61.927,63.987,35.504,117.2,-47.605,58.555,-16.806,56.522,19.869,11.86,76.211
116.04,-55.522,49.256,-3.8814,42.115,63.478,62.812,36.058,116.95,-46.722,57.602,-15.76,55.93,20.763,11.433,77.602
116.04,-55.522,49.256,-3.8814,42.115,63.478,62.812,36.058,116.95,-46.722,57.602,-15.76,55.93,20.763,11.433,77.602
116.04,-55.522,49.256,-3.8814,42.115,63.478,62.812,36.058,116.95,-46.722,57.602,-15.76,55.93,20.763,11.433,77.602
115.51,-54.855,48.843,-3.4853,41.44,64.248,62.223,36.333,116.83,-46.282,57.124,-15.239,55.633,21.207,11.217,78.291
115.51,-54.855,48.843,-3.4853,41.44,64.248,62.223,36.333,116.83,-46.282,57.124,-15.239,55.633,21.207,11.217,78.291
114.98,-54.189,48.431,-3.0911,40.764,65.014,61.634,36.605,116.7,-45.843,56.645,-14.72,55.334,21.649,11.001,78.975
114.98,-54.189,48.431,-3.0911,40.764,65.014,61.634,36.605,116.7,-45.843,56.645,-14.72,55.334,21.649,11.001,78.975
114.45,-53.525,48.019,-2.6988,40.087,65.777,61.045,36.875,116.57,-45.405,56.165,-14.201,55.034,22.089,10.784,79.656
114.45,-53.525,48.019,-2.6988,40.087,65.777,61.045,36.875,116.57,-45.405,56.165,-14.201,55.034,22.089,10.784,79.656
114.45,-53.525,48.019,-2.6988,40.087,65.777,61.045,36.875,116.57,-45.405,56.165,-14.201,55.034,22.089,10.784,79.656
113.39,-52.201,47.197,-1.9198,38.734,67.291,59.864,37.41,116.3,-44.532,55.204,-13.169,54.431,22.964,10.346,81.004
113.39,-52.201,47.197,-1.9198,38.734,67.291,59.864,37.41,116.3,-44.532,55.204,-13.169,54.431,22.964,10.346,81.004
113.39,-52.201,47.197,-1.9198,38.734,67.291,59.864,37.41,116.3,-44.532,55.204,-13.169,54.431,22.964,10.346,81.004
112.86,-51.542,46.787,-1.5332,38.057,68.042,59.273,37.675,116.17,-44.097,54.722,-12.655,54.127,23.399,10.126,81.671
112.32,-50.885,46.377,-1.1485,37.379,68.789,58.682,37.937,116.03,-43.664,54.239,-12.143,53.822,23.832,9.9041,82.335
112.32,-50.885,46.377,-1.1485,37.379,68.789,58.682,37.937,116.03,-43.664,54.239,-12.143,53.822,23.832,9.9041,82.335
111.79,-50.23,45.969,-0.76588,36.702,69.533,58.091,38.198,115.89,-43.231,53.756,-11.632,53.516,24.262,9.6817,82.993
111.26,-49.576,45.561,-0.3852,36.024,70.272,57.499,38.456,115.75,-42.8,53.272,-11.122,53.208,24.691,9.4583,83.648
111.26,-49.576,45.561,-0.3852,36.024,70.272,57.499,38.456,115.75,-42.8,53.272,-11.122,53.208,24.691,9.4583,83.648
111.26,-49.576,45.561,-0.3852,36.024,70.272,57.499,38.456,115.75,-42.8,53.272,-11.122,53.208,24.691,9.4583,83.648
110.72,-48.924,45.153,-0.0065376,35.347,71.008,56.907,38.712,115.61,-42.369,52.788,-10.614,52.899,25.118,9.2339,84.298
110.72,-48.924,45.153,-0.0065376,35.347,71.008,56.907,38.712,115.61,-42.369,52.788,-10.614,52.899,25.118,9.2339,84.298
110.72,-48.924,45.153,-0.0065376,35.347,71.008,56.907,38.712,115.61,-42.369,52.788,-10.614,52.899,25.118,9.2339,84.298
110.19,-48.274,44.746,0.37009,34.669,71.74,56.314,38.967,115.46,-41.94,52.303,-10.108,52.59,25.543,9.0085,84.944
109.66,-47.626,44.34,0.74466,33.991,72.468,55.722,39.219,115.32,-41.512,51.817,-9.603,52.278,25.965,8.7821,85.585
109.12,-46.979,43.935,1.1172,33.313,73.192,55.129,39.469,115.17,-41.085,51.331,-9.0997,51.966,26.386,8.5546,86.222
109.12,-46.979,43.935,1.1172,33.313,73.192,55.129,39.469,115.17,-41.085,51.331,-9.0997,51.966,26.386,8.5546,86.222
109.12,-46.979,43.935,1.1172,33.313,73.192,55.129,39.469,115.17,-41.085,51.331,-9.0997,51.966,26.386,8.5546,86.222
108.59,-46.335,43.531,1.4876,32.635,73.912,54.536,39.717,115.02,-40.659,50.844,-8.5982,51.652,26.805,8.3262,86.854
108.59,-46.335,43.531,1.4876,32.635,73.912,54.536,39.717,115.02,-40.659,50.844,-8.5982,51.652,26.805,8.3262,86.854
108.05,-45.692,43.127,1.8558,31.957,74.628,53.942,39.963,114.86,-40.234,50.357,-8.0983,51.337,27.221,8.0968,87.482
108.05,-45.692,43.127,1.8558,31.957,74.628,53.942,39.963,114.86,-40.234,50.357,-8.0983,51.337,27.221,8.0968,87.482
107.52,-45.052,42.724,2.222,31.279,75.34,53.349,40.207,114.71,-39.811,49.869,-7.6,51.021,27.636,7.8664,88.106
107.52,-45.052,42.724,2.222,31.279,75.34,53.349,40.207,114.71,-39.811,49.869,-7.6,51.021,27.636,7.8664,88.106
107.52,-45.052,42.724,2.222,31.279,75.34,53.349,40.207,114.71,-39.811,49.869,-7.6,51.021,27.636,7.8664,88.106
106.98,-44.413,42.322,2.586,30.6,76.048,52.755,40.449,114.55,-39.388,49.381,-7.1035,50.704,28.049,7.635,88.725
106.98,-44.413,42.322,2.586,30.6,76.048,52.755,40.449,114.55,-39.388,49.381,-7.1035,50.704,28.049,7.635,88.725
106.45,-43.777,41.921,2.9478,29.922,76.752,52.161,40.689,114.39,-38.967,48.893,-6.6087,50.386,28.459,7.4026,89.339
105.91,-43.142,41.52,3.3074,29.244,77.452,51.567,40.926,114.23,-38.547,48.404,-6.1156,50.066,28.867,7.1692,89.949
105.91,-43.142,41.52,3.3074,29.244,77.452,51.567,40.926,114.23,-38.547,48.404,-6.1156,50.066,28.867,7.1692,89.949
105.91,-43.142,41.52,3.3074,29.244,77.452,51.567,40.926,114.23,-38.547,48.404,-6.1156,50.066,28.867,7.1692,89.949
105.38,-42.509,41.121,3.6649,28.566,78.148,50.974,41.161,114.07,-38.128,47.914,-5.6244,49.745,29.274,6.9349,90.554
105.38,-42.509,41.121,3.6649,28.566,78.148,50.974,41.161,114.07,-38.128,47.914,-5.6244,49.745,29.274,6.9349,90.554
104.84,-41.879,40.722,4.02,27.889,78.84,50.38,41.395,113.9,-37.71,47.425,-5.1349,49.423,29.678,6.6995,91.155
104.84,-41.879,40.722,4.02,27.889,78.84,50.38,41.395,113.9,-37.71,47.425,-5.1349,49.423,29.678,6.6995,91.155
104.3,-41.251,40.324,4.373,27.211,79.528,49.785,41.625,113.74,-37.294,46.935,-4.6472,49.099,30.08,6.4632,91.752
103.77,-40.624,39.928,4.7237,26.533,80.212,49.191,41.854,113.57,-36.878,46.444,-4.1614,48.775,30.48,6.226,92.343
103.77,-40.624,39.928,4.7237,26.533,80.212,49.191,41.854,113.57,-36.878,46.444,-4.1614,48.775,30.48,6.226,92.343
103.23,-40,39.532,5.072,25.856,80.891,48.597,42.081,113.4,-36.464,45.954,-3.6775,48.449,30.878,5.9877,92.93
103.23,-40,39.532,5.072,25.856,80.891,48.597,42.081,113.4,-36.464,45.954,-3.6775,48.449,30.878,5.9877,92.93
102.7,-39.378,39.137,5.4181,25.179,81.567,48.003,42.305,113.22,-36.051,45.463,-3.1954,48.122,31.274,5.7486,93.513
102.7,-39.378,39.137,5.4181,25.179,81.567,48.003,42.305,113.22,-36.051,45.463,-3.1954,48.122,31.274,5.7486,93.513
102.16,-38.758,38.743,5.7619,24.502,82.238,47.409,42.527,113.05,-35.64,44.972,-2.7152,47.794,31.667,5.5084,94.091
102.16,-38.758,38.743,5.7619,24.502,82.238,47.409,42.527,113.05,-35.64,44.972,-2.7152,47.794,31.667,5.5084,94.091
101.62,-38.14,38.35,6.1033,23.825,82.905,46.815,42.746,112.87,-35.229,44.481,-2.237,47.464,32.059,5.2673,94.664
101.62,-38.14,38.35,6.1033,23.825,82.905,46.815,42.746,112.87,-35.229,44.481,-2.237,47.464,32.059,5.2673,94.664
101.09,-37.524,37.958,6.4424,23.149,83.568,46.222,42.964,112.69,-34.82,43.989,-1.7607,47.134,32.448,5.0253,95.232
101.09,-37.524,37.958,6.4424,23.149,83.568,46.222,42.964,112.69,-34.82,43.989,-1.7607,47.134,32.448,5.0253,95.232
100.55,-36.911,37.567,6.7791,22.472,84.227,45.628,43.179,112.51,-34.412,43.498,-1.2864,46.802,32.835,4.7823,95.796
100.55,-36.911,37.567,6.7791,22.472,84.227,45.628,43.179,112.51,-34.412,43.498,-1.2864,46.802,32.835,4.7823,95.796
100.01,-36.3,37.178,7.1134,21.796,84.882,45.034,43.392,112.33,-34.005,43.006,-0.81411,46.469,33.22,4.5384,96.355
100.01,-36.3,37.178,7.1134,21.796,84.882,45.034,43.392,112.33,-34.005,43.006,-0.81411,46.469,33.22,4.5384,96.355
99.477,-35.691,36.789,7.4453,21.121,85.532,44.441,43.602,112.14,-33.599,42.514,-0.34381,46.135,33.602,4.2935,96.91
99.477,-35.691,36.789,7.4453,21.121,85.532,44.441,43.602,112.14,-33.599,42.514,-0.34381,46.135,33.602,4.2935,96.91
98.94,-35.084,36.401,7.7748,20.446,86.178,43.848,43.81,111.96,-33.195,42.023,0.12445,45.8,33.983,4.0478,97.46
98.94,-35.084,36.401,7.7748,20.446,86.178,43.848,43.81,111.96,-33.195,42.023,0.12445,45.8,33.983,4.0478,97.46
98.403,-34.48,36.015,8.1018,19.771,86.82,43.255,44.016,111.77,-32.792,41.531,0.59065,45.463,34.361,3.8011,98.005
97.867,-33.878,35.629,8.4264,19.096,87.458,42.662,44.22,111.57,-32.39,41.039,1.0548,45.126,34.737,3.5535,98.545
97.867,-33.878,35.629,8.4264,19.096,87.458,42.662,44.22,111.57,-32.39,41.039,1.0548,45.126,34.737,3.5535,98.545
97.867,-33.878,35.629,8.4264,19.096,87.458,42.662,44.22,111.57,-32.39,41.039,1.0548,45.126,34.737,3.5535,98.545
97.33,-33.278,35.245,8.7485,18.422,88.091,42.069,44.421,111.38,-31.989,40.547,1.5168,44.787,35.111,3.305,99.081
97.33,-33.278,35.245,8.7485,18.422,88.091,42.069,44.421,111.38,-31.989,40.547,1.5168,44.787,35.111,3.305,99.081
96.794,-32.681,34.862,9.0681,17.749,88.72,41.477,44.62,111.18,-31.589,40.055,1.9767,44.447,35.483,3.0556,99.612
96.794,-32.681,34.862,9.0681,17.749,88.72,41.477,44.62,111.18,-31.589,40.055,1.9767,44.447,35.483,3.0556,99.612
96.258,-32.085,34.48,9.3853,17.075,89.345,40.885,44.816,110.99,-31.191,39.563,2.4345,44.106,35.852,2.8053,100.14
96.258,-32.085,34.48,9.3853,17.075,89.345,40.885,44.816,110.99,-31.191,39.563,2.4345,44.106,35.852,2.8053,100.14
95.721,-31.493,34.1,9.6999,16.403,89.965,40.293,45.01,110.79,-30.794,39.071,2.8901,43.764,36.219,2.5541,100.66
95.721,-31.493,34.1,9.6999,16.403,89.965,40.293,45.01,110.79,-30.794,39.071,2.8901,43.764,36.219,2.5541,100.66
95.721,-31.493,34.1,9.6999,16.403,89.965,40.293,45.01,110.79,-30.794,39.071,2.8901,43.764,36.219,2.5541,100.66
95.185,-30.902,33.72,10.012,15.731,90.581,39.702,45.202,110.58,-30.399,38.58,3.3436,43.42,36.584,2.3021,101.18
95.185,-30.902,33.72,10.012,15.731,90.581,39.702,45.202,110.58,-30.399,38.58,3.3436,43.42,36.584,2.3021,101.18
95.185,-30.902,33.72,10.012,15.731,90.581,39.702,45.202,110.58,-30.399,38.58,3.3436,43.42,36.584,2.3021,101.18
94.113,-29.729,32.965,10.628,14.388,91.8,38.52,45.578,110.17,-29.611,37.597,4.2438,42.73,37.307,1.7954,102.2
94.113,-29.729,32.965,10.628,14.388,91.8,38.52,45.578,110.17,-29.611,37.597,4.2438,42.73,37.307,1.7954,102.2
93.577,-29.146,32.589,10.933,13.717,92.403,37.93,45.762,109.96,-29.219,37.105,4.6906,42.384,37.665,1.5408,102.7
93.577,-29.146,32.589,10.933,13.717,92.403,37.93,45.762,109.96,-29.219,37.105,4.6906,42.384,37.665,1.5408,102.7
93.042,-28.565,32.214,11.234,13.048,93.001,37.34,45.944,109.75,-28.829,36.614,5.1352,42.036,38.021,1.2853,103.19
93.042,-28.565,32.214,11.234,13.048,93.001,37.34,45.944,109.75,-28.829,36.614,5.1352,42.036,38.021,1.2853,103.19
93.042,-28.565,32.214,11.234,13.048,93.001,37.34,45.944,109.75,-28.829,36.614,5.1352,42.036,38.021,1.2853,103.19
93.042,-28.565,32.214,11.234,13.048,93.001,37.34,45.944,109.75,-28.829,36.614,5.1352,42.036,38.021,1.2853,103.19
91.971,-27.411,31.469,11.83,11.71,94.185,36.162,46.301,109.32,-28.051,35.633,6.0174,41.337,38.725,0.77179,104.18
91.971,-27.411,31.469,11.83,11.71,94.185,36.162,46.301,109.32,-28.051,35.633,6.0174,41.337,38.725,0.77179,104.18
91.436,-26.837,31.099,12.124,11.042,94.771,35.573,46.475,109.11,-27.664,35.143,6.4551,40.986,39.074,0.51381,104.66
91.436,-26.837,31.099,12.124,11.042,94.771,35.573,46.475,109.11,-27.664,35.143,6.4551,40.986,39.074,0.51381,104.66
90.901,-26.267,30.73,12.415,10.375,95.352,34.985,46.648,108.89,-27.279,34.653,6.8904,40.634,39.42,0.25502,105.14
90.366,-25.698,30.362,12.704,9.7082,95.928,34.398,46.817,108.67,-26.895,34.163,7.3234,40.281,39.765,-0.0045847,105.61
90.366,-25.698,30.362,12.704,9.7082,95.928,34.398,46.817,108.67,-26.895,34.163,7.3234,40.281,39.765,-0.0045847,105.61
90.366,-25.698,30.362,12.704,9.7082,95.928,34.398,46.817,108.67,-26.895,34.163,7.3234,40.281,39.765,-0.0045847,105.61
89.832,-25.133,29.995,12.99,9.0425,96.5,33.811,46.984,108.44,-26.512,33.674,7.754,39.926,40.107,-0.26498,106.08
89.298,-24.569,29.63,13.273,8.3776,97.067,33.224,47.149,108.22,-26.13,33.184,8.1823,39.571,40.446,-0.52617,106.54
89.298,-24.569,29.63,13.273,8.3776,97.067,33.224,47.149,108.22,-26.13,33.184,8.1823,39.571,40.446,-0.52617,106.54
89.298,-24.569,29.63,13.273,8.3776,97.067,33.224,47.149,108.22,-26.13,33.184,8.1823,39.571,40.446,-0.52617,106.54
88.764,-24.009,29.267,13.553,7.7134,97.63,32.639,47.311,107.99,-25.75,32.696,8.6081,39.215,40.783,-0.78813,107
88.764,-24.009,29.267,13.553,7.7134,97.63,32.639,47.311,107.99,-25.75,32.696,8.6081,39.215,40.783,-0.78813,107
88.23,-23.451,28.904,13.831,7.0501,98.189,32.053,47.471,107.76,-25.371,32.208,9.0316,38.857,41.118,-1.0509,107.45
88.23,-23.451,28.904,13.831,7.0501,98.189,32.053,47.471,107.76,-25.371,32.208,9.0316,38.857,41.118,-1.0509,107.45
87.697,-22.895,28.543,14.106,6.3876,98.743,31.469,47.628,107.52,-24.993,31.72,9.4526,38.499,41.451,-1.3144,107.9
87.697,-22.895,28.543,14.106,6.3876,98.743,31.469,47.628,107.52,-24.993,31.72,9.4526,38.499,41.451,-1.3144,107.9
87.163,-22.342,28.184,14.378,5.7259,99.293,30.885,47.783,107.29,-24.616,31.232,9.8711,38.139,41.781,-1.5786,108.35
87.163,-22.342,28.184,14.378,5.7259,99.293,30.885,47.783,107.29,-24.616,31.232,9.8711,38.139,41.781,-1.5786,108.35
87.163,-22.342,28.184,14.378,5.7259,99.293,30.885,47.783,107.29,-24.616,31.232,9.8711,38.139,41.781,-1.5786,108.35
86.631,-21.792,27.826,14.648,5.0652,99.838,30.301,47.935,107.05,-24.241,30.746,10.287,37.779,42.109,-1.8436,108.79
86.631,-21.792,27.826,14.648,5.0652,99.838,30.301,47.935,107.05,-24.241,30.746,10.287,37.779,42.109,-1.8436,108.79
86.098,-21.244,27.47,14.915,4.4054,100.38,29.719,48.084,106.81,-23.867,30.259,10.701,37.417,42.434,-2.1093,109.22
85.566,-20.699,27.115,15.179,3.7466,100.91,29.137,48.231,106.57,-23.495,29.773,11.112,37.054,42.758,-2.3758,109.65
85.566,-20.699,27.115,15.179,3.7466,100.91,29.137,48.231,106.57,-23.495,29.773,11.112,37.054,42.758,-2.3758,109.65
85.034,-20.157,26.761,15.44,3.0887,101.45,28.555,48.376,106.33,-23.123,29.288,11.521,36.691,43.078,-2.6429,110.08
85.034,-20.157,26.761,15.44,3.0887,101.45,28.555,48.376,106.33,-23.123,29.288,11.521,36.691,43.078,-2.6429,110.08
85.034,-20.157,26.761,15.44,3.0887,101.45,28.555,48.376,106.33,-23.123,29.288,11.521,36.691,43.078,-2.6429,110.08
84.503,-19.617,26.41,15.698,2.4318,101.97,27.975,48.518,106.08,-22.753,28.803,11.927,36.326,43.397,-2.9108,110.5
84.503,-19.617,26.41,15.698,2.4318,101.97,27.975,48.518,106.08,-22.753,28.803,11.927,36.326,43.397,-2.9108,110.5
84.503,-19.617,26.41,15.698,2.4318,101.97,27.975,48.518,106.08,-22.753,28.803,11.927,36.326,43.397,-2.9108,110.5
83.441,-18.546,25.71,16.206,1.121,103.01,26.816,48.794,105.58,-22.017,27.836,12.731,35.594,44.026,-3.4485,111.32
83.441,-18.546,25.71,16.206,1.121,103.01,26.816,48.794,105.58,-22.017,27.836,12.731,35.594,44.026,-3.4485,111.32
82.911,-18.014,25.363,16.456,0.46724,103.53,26.238,48.928,105.33,-21.651,27.353,13.129,35.226,44.338,-3.7184,111.73
82.911,-18.014,25.363,16.456,0.46724,103.53,26.238,48.928,105.33,-21.651,27.353,13.129,35.226,44.338,-3.7184,111.73
82.381,-17.485,25.018,16.703,-0.18546,104.03,25.66,49.06,105.08,-21.286,26.87,13.525,34.858,44.647,-3.9889,112.13
82.381,-17.485,25.018,16.703,-0.18546,104.03,25.66,49.06,105.08,-21.286,26.87,13.525,34.858,44.647,-3.9889,112.13
81.852,-16.959,24.674,16.947,-0.83704,104.54,25.083,49.189,104.82,-20.923,26.389,13.918,34.488,44.953,-4.2601,112.52
81.852,-16.959,24.674,16.947,-0.83704,104.54,25.083,49.189,104.82,-20.923,26.389,13.918,34.488,44.953,-4.2601,112.52
81.323,-16.436,24.331,17.189,-1.4875,105.04,24.508,49.316,104.56,-20.561,25.908,14.309,34.118,45.257,-4.5319,112.91
81.323,-16.436,24.331,17.189,-1.4875,105.04,24.508,49.316,104.56,-20.561,25.908,14.309,34.118,45.257,-4.5319,112.91
80.794,-15.915,23.99,17.427,-2.1368,105.53,23.933,49.44,104.3,-20.2,25.428,14.697,33.746,45.559,-4.8044,113.3
80.794,-15.915,23.99,17.427,-2.1368,105.53,23.933,49.44,104.3,-20.2,25.428,14.697,33.746,45.559,-4.8044,113.3
80.266,-15.397,23.651,17.663,-2.7848,106.02,23.359,49.561,104.03,-19.84,24.949,15.082,33.374,45.858,-5.0775,113.68
80.266,-15.397,23.651,17.663,-2.7848,106.02,23.359,49.561,104.03,-19.84,24.949,15.082,33.374,45.858,-5.0775,113.68
79.738,-14.882,23.314,17.895,-3.4317,106.51,22.785,49.68,103.77,-19.482,24.47,15.465,33.001,46.155,-5.3511,114.05
79.738,-14.882,23.314,17.895,-3.4317,106.51,22.785,49.68,103.77,-19.482,24.47,15.465,33.001,46.155,-5.3511,114.05
79.211,-14.369,22.978,18.125,-4.0774,106.99,22.213,49.796,103.5,-19.125,23.992,15.845,32.627,46.45,-5.6253,114.42
79.211,-14.369,22.978,18.125,-4.0774,106.99,22.213,49.796,103.5,-19.125,23.992,15.845,32.627,46.45,-5.6253,114.42
78.685,-13.859,22.644,18.352,-4.7217,107.46,21.642,49.909,103.23,-18.769,23.515,16.222,32.252,46.742,-5.9002,114.79
78.685,-13.859,22.644,18.352,-4.7217,107.46,21.642,49.909,103.23,-18.769,23.515,16.222,32.252,46.742,-5.9002,114.79
78.159,-13.352,22.312,18.576,-5.3648,107.94,21.071,50.02,102.96,-18.414,23.039,16.597,31.876,47.031,-6.1755,115.15
78.159,-13.352,22.312,18.576,-5.3648,107.94,21.071,50.02,102.96,-18.414,23.039,16.597,31.876,47.031,-6.1755,115.15
77.633,-12.848,21.981,18.797,-6.0066,108.4,20.502,50.129,102.68,-18.061,22.564,16.969,31.499,47.319,-6.4515,115.51
77.633,-12.848,21.981,18.797,-6.0066,108.4,20.502,50.129,102.68,-18.061,22.564,16.969,31.499,47.319,-6.4515,115.51
77.108,-12.347,21.652,19.015,-6.6471,108.86,19.934,50.234,102.4,-17.709,22.09,17.338,31.121,47.604,-6.7279,115.86
77.108,-12.347,21.652,19.015,-6.6471,108.86,19.934,50.234,102.4,-17.709,22.09,17.338,31.121,47.604,-6.7279,115.86
76.584,-11.849,21.325,19.23,-7.2861,109.32,19.366,50.338,102.12,-17.359,21.616,17.704,30.742,47.886,-7.0049,116.2
76.584,-11.849,21.325,19.23,-7.2861,109.32,19.366,50.338,102.12,-17.359,21.616,17.704,30.742,47.886,-7.0049,116.2
76.06,-11.353,20.999,19.442,-7.9238,109.77,18.8,50.438,101.84,-17.009,21.144,18.068,30.363,48.166,-7.2824,116.54
76.06,-11.353,20.999,19.442,-7.9238,109.77,18.8,50.438,101.84,-17.009,21.144,18.068,30.363,48.166,-7.2824,116.54
76.06,-11.353,20.999,19.442,-7.9238,109.77,18.8,50.438,101.84,-17.009,21.144,18.068,30.363,48.166,-7.2824,116.54
75.536,-10.86,20.675,19.651,-8.5601,110.22,18.234,50.536,101.56,-16.661,20.672,18.429,29.983,48.444,-7.5604,116.88
75.013,-10.37,20.354,19.857,-9.195,110.67,17.67,50.631,101.27,-16.315,20.202,18.787,29.601,48.719,-7.8389,117.21
74.491,-9.8829,20.033,20.06,-9.8284,111.11,17.107,50.724,100.98,-15.969,19.732,19.142,29.219,48.992,-8.1179,117.54
74.491,-9.8829,20.033,20.06,-9.8284,111.11,17.107,50.724,100.98,-15.969,19.732,19.142,29.219,48.992,-8.1179,117.54
74.491,-9.8829,20.033,20.06,-9.8284,111.11,17.107,50.724,100.98,-15.969,19.732,19.142,29.219,48.992,-8.1179,117.54
73.97,-9.3986,19.715,20.26,-10.46,111.54,16.545,50.814,100.69,-15.625,19.263,19.495,28.837,49.262,-8.3973,117.86
73.97,-9.3986,19.715,20.26,-10.46,111.54,16.545,50.814,100.69,-15.625,19.263,19.495,28.837,49.262,-8.3973,117.86
73.449,-8.9172,19.398,20.457,-11.091,111.97,15.984,50.902,100.4,-15.282,18.796,19.844,28.453,49.53,-8.6772,118.18
73.449,-8.9172,19.398,20.457,-11.091,111.97,15.984,50.902,100.4,-15.282,18.796,19.844,28.453,49.53,-8.6772,118.18
72.928,-8.4386,19.084,20.652,-11.72,112.39,15.424,50.986,100.11,-14.94,18.33,20.191,28.069,49.796,-8.9575,118.49
72.928,-8.4386,19.084,20.652,-11.72,112.39,15.424,50.986,100.11,-14.94,18.33,20.191,28.069,49.796,-8.9575,118.49
72.928,-8.4386,19.084,20.652,-11.72,112.39,15.424,50.986,100.11,-14.94,18.33,20.191,28.069,49.796,-8.9575,118.49
72.409,-7.9629,18.771,20.843,-12.347,112.81,14.865,51.069,99.808,-14.6,17.864,20.535,27.683,50.059,-9.2382,118.79
71.89,-7.4901,18.46,21.031,-12.973,113.23,14.307,51.148,99.509,-14.261,17.4,20.876,27.297,50.32,-9.5193,119.1
71.89,-7.4901,18.46,21.031,-12.973,113.23,14.307,51.148,99.509,-14.261,17.4,20.876,27.297,50.32,-9.5193,119.1
71.371,-7.0202,18.151,21.216,-13.597,113.64,13.751,51.225,99.207,-13.923,16.937,21.215,26.91,50.578,-9.8008,119.39
71.371,-7.0202,18.151,21.216,-13.597,113.64,13.751,51.225,99.207,-13.923,16.937,21.215,26.91,50.578,-9.8008,119.39
70.854,-6.5532,17.843,21.398,-14.219,114.04,13.195,51.3,98.903,-13.586,16.475,21.55,26.523,50.834,-10.083,119.69
70.854,-6.5532,17.843,21.398,-14.219,114.04,13.195,51.3,98.903,-13.586,16.475,21.55,26.523,50.834,-10.083,119.69
70.336,-6.0891,17.538,21.577,-14.84,114.45,12.641,51.371,98.597,-13.251,16.014,21.883,26.135,51.088,-10.365,119.97
70.336,-6.0891,17.538,21.577,-14.84,114.45,12.641,51.371,98.597,-13.251,16.014,21.883,26.135,51.088,-10.365,119.97
69.82,-5.6279,17.235,21.753,-15.459,114.84,12.088,51.44,98.288,-12.917,15.554,22.213,25.745,51.339,-10.648,120.25
69.82,-5.6279,17.235,21.753,-15.459,114.84,12.088,51.44,98.288,-12.917,15.554,22.213,25.745,51.339,-10.648,120.25
69.304,-5.1696,16.933,21.926,-16.077,115.23,11.537,51.507,97.977,-12.584,15.096,22.539,25.356,51.587,-10.931,120.53
69.304,-5.1696,16.933,21.926,-16.077,115.23,11.537,51.507,97.977,-12.584,15.096,22.539,25.356,51.587,-10.931,120.53
68.79,-4.7142,16.633,22.096,-16.693,115.62,10.986,51.571,97.664,-12.253,14.639,22.863,24.965,51.834,-11.214,120.8
68.79,-4.7142,16.633,22.096,-16.693,115.62,10.986,51.571,97.664,-12.253,14.639,22.863,24.965,51.834,-11.214,120.8
68.275,-4.2617,16.336,22.263,-17.307,116,10.437,51.632,97.349,-11.922,14.183,23.184,24.574,52.078,-11.497,121.07
68.275,-4.2617,16.336,22.263,-17.307,116,10.437,51.632,97.349,-11.922,14.183,23.184,24.574,52.078,-11.497,121.07
67.762,-3.8122,16.04,22.427,-17.919,116.38,9.8892,51.691,97.031,-11.593,13.728,23.502,24.182,52.319,-11.781,121.33
67.762,-3.8122,16.04,22.427,-17.919,116.38,9.8892,51.691,97.031,-11.593,13.728,23.502,24.182,52.319,-11.781,121.33
67.762,-3.8122,16.04,22.427,-17.919,116.38,9.8892,51.691,97.031,-11.593,13.728,23.502,24.182,52.319,-11.781,121.33
67.249,-3.3656,15.746,22.588,-18.529,116.75,9.3426,51.747,96.711,-11.265,13.274,23.818,23.789,52.558,-12.065,121.59
66.737,-2.9219,15.454,22.745,-19.138,117.12,8.7973,51.8,96.389,-10.939,12.822,24.13,23.396,52.795,-12.35,121.84
66.737,-2.9219,15.454,22.745,-19.138,117.12,8.7973,51.8,96.389,-10.939,12.822,24.13,23.396,52.795,-12.35,121.84
66.226,-2.4812,15.164,22.9,-19.745,117.48,8.2534,51.851,96.065,-10.613,12.372,24.439,23.002,53.029,-12.634,122.09
66.226,-2.4812,15.164,22.9,-19.745,117.48,8.2534,51.851,96.065,-10.613,12.372,24.439,23.002,53.029,-12.634,122.09
65.716,-2.0434,14.876,23.051,-20.349,117.84,7.7108,51.9,95.738,-10.289,11.922,24.746,22.607,53.261,-12.919,122.34
65.716,-2.0434,14.876,23.051,-20.349,117.84,7.7108,51.9,95.738,-10.289,11.922,24.746,22.607,53.261,-12.919,122.34
65.716,-2.0434,14.876,23.051,-20.349,117.84,7.7108,51.9,95.738,-10.289,11.922,24.746,22.607,53.261,-12.919,122.34
65.206,-1.6086,14.59,23.2,-20.952,118.2,7.1695,51.945,95.41,-9.9661,11.474,25.049,22.212,53.49,-13.204,122.57
65.206,-1.6086,14.59,23.2,-20.952,118.2,7.1695,51.945,95.41,-9.9661,11.474,25.049,22.212,53.49,-13.204,122.57
65.206,-1.6086,14.59,23.2,-20.952,118.2,7.1695,51.945,95.41,-9.9661,11.474,25.049,22.212,53.49,-13.204,122.57
64.697,-1.1767,14.306,23.345,-21.554,118.54,6.6297,51.988,95.079,-9.6443,11.027,25.349,21.816,53.717,-13.489,122.81
64.697,-1.1767,14.306,23.345,-21.554,118.54,6.6297,51.988,95.079,-9.6443,11.027,25.349,21.816,53.717,-13.489,122.81
64.697,-1.1767,14.306,23.345,-21.554,118.54,6.6297,51.988,95.079,-9.6443,11.027,25.349,21.816,53.717,-13.489,122.81
63.682,-0.32173,13.745,23.627,-22.75,119.23,5.5541,52.067,94.41,-9.0045,10.138,25.941,21.022,54.164,-14.061,123.26
63.682,-0.32173,13.745,23.627,-22.75,119.23,5.5541,52.067,94.41,-9.0045,10.138,25.941,21.022,54.164,-14.061,123.26
62.67,0.52137,13.191,23.896,-23.938,119.89,4.4841,52.135,93.732,-8.3694,9.255,26.521,20.225,54.602,-14.632,123.69
62.67,0.52137,13.191,23.896,-23.938,119.89,4.4841,52.135,93.732,-8.3694,9.255,26.521,20.225,54.602,-14.632,123.69
62.67,0.52137,13.191,23.896,-23.938,119.89,4.4841,52.135,93.732,-8.3694,9.255,26.521,20.225,54.602,-14.632,123.69
62.165,0.93848,12.917,24.026,-24.529,120.22,3.9513,52.165,93.39,-8.0536,8.8155,26.807,19.826,54.817,-14.918,123.9
62.165,0.93848,12.917,24.026,-24.529,120.22,3.9513,52.165,93.39,-8.0536,8.8155,26.807,19.826,54.817,-14.918,123.9
62.165,0.93848,12.917,24.026,-24.529,120.22,3.9513,52.165,93.39,-8.0536,8.8155,26.807,19.826,54.817,-14.918,123.9
61.661,1.3526,12.646,24.153,-25.118,120.54,3.4199,52.193,93.046,-7.7391,8.3776,27.089,19.427,55.03,-15.204,124.11
61.661,1.3526,12.646,24.153,-25.118,120.54,3.4199,52.193,93.046,-7.7391,8.3776,27.089,19.427,55.03,-15.204,124.11
60.656,2.172,12.108,24.397,-26.29,121.16,2.3616,52.24,92.351,-7.1135,7.5063,27.645,18.626,55.448,-15.777,124.5
60.656,2.172,12.108,24.397,-26.29,121.16,2.3616,52.24,92.351,-7.1135,7.5063,27.645,18.626,55.448,-15.777,124.5
60.656,2.172,12.108,24.397,-26.29,121.16,2.3616,52.24,92.351,-7.1135,7.5063,27.645,18.626,55.448,-15.777,124.5
60.155,2.5773,11.843,24.515,-26.873,121.47,1.8347,52.26,91.999,-6.8024,7.073,27.918,18.224,55.654,-16.063,124.69
60.155,2.5773,11.843,24.515,-26.873,121.47,1.8347,52.26,91.999,-6.8024,7.073,27.918,18.224,55.654,-16.063,124.69
60.155,2.5773,11.843,24.515,-26.873,121.47,1.8347,52.26,91.999,-6.8024,7.073,27.918,18.224,55.654,-16.063,124.69
59.654,2.9796,11.58,24.629,-27.454,121.77,1.3093,52.277,91.646,-6.4925,6.6412,28.189,17.823,55.857,-16.35,124.88
59.155,3.3789,11.318,24.741,-28.032,122.07,0.78537,52.292,91.291,-6.1838,6.2111,28.456,17.42,56.058,-16.636,125.06
58.656,3.7752,11.059,24.849,-28.608,122.36,0.26301,52.305,90.933,-5.8762,5.7826,28.72,17.017,56.257,-16.922,125.23
58.656,3.7752,11.059,24.849,-28.608,122.36,0.26301,52.305,90.933,-5.8762,5.7826,28.72,17.017,56.257,-16.922,125.23
58.656,3.7752,11.059,24.849,-28.608,122.36,0.26301,52.305,90.933,-5.8762,5.7826,28.72,17.017,56.257,-16.922,125.23
58.159,4.1686,10.802,24.954,-29.182,122.65,-0.25781,52.314,90.573,-5.5698,5.3557,28.982,16.614,56.453,-17.209,125.41
58.159,4.1686,10.802,24.954,-29.182,122.65,-0.25781,52.314,90.573,-5.5698,5.3557,28.982,16.614,56.453,-17.209,125.41
57.662,4.559,10.547,25.057,-29.754,122.93,-0.77707,52.322,90.211,-5.2645,4.9305,29.24,16.21,56.647,-17.495,125.57
57.662,4.559,10.547,25.057,-29.754,122.93,-0.77707,52.322,90.211,-5.2645,4.9305,29.24,16.21,56.647,-17.495,125.57
57.166,4.9465,10.295,25.156,-30.324,123.21,-1.2948,52.326,89.847,-4.9603,4.5069,29.495,15.806,56.838,-17.782,125.73
57.166,4.9465,10.295,25.156,-30.324,123.21,-1.2948,52.326,89.847,-4.9603,4.5069,29.495,15.806,56.838,-17.782,125.73
56.671,5.3309,10.044,25.252,-30.891,123.48,-1.8109,52.329,89.48,-4.6572,4.085,29.747,15.401,57.028,-18.068,125.89
56.177,5.7124,9.7957,25.344,-31.456,123.75,-2.3254,52.328,89.112,-4.3553,3.6648,29.996,14.996,57.215,-18.354,126.04
56.177,5.7124,9.7957,25.344,-31.456,123.75,-2.3254,52.328,89.112,-4.3553,3.6648,29.996,14.996,57.215,-18.354,126.04
56.177,5.7124,9.7957,25.344,-31.456,123.75,-2.3254,52.328,89.112,-4.3553,3.6648,29.996,14.996,57.215,-18.354,126.04
55.684,6.091,9.5494,25.434,-32.018,124.01,-2.8383,52.326,88.741,-4.0545,3.2464,30.242,14.59,57.399,-18.64,126.19
55.684,6.091,9.5494,25.434,-32.018,124.01,-2.8383,52.326,88.741,-4.0545,3.2464,30.242,14.59,57.399,-18.64,126.19
55.684,6.091,9.5494,25.434,-32.018,124.01,-2.8383,52.326,88.741,-4.0545,3.2464,30.242,14.59,57.399,-18.64,126.19
55.192,6.4666,9.3054,25.521,-32.578,124.27,-3.3496,52.32,88.368,-3.7547,2.8297,30.485,14.184,57.581,-18.926,126.33
55.192,6.4666,9.3054,25.521,-32.578,124.27,-3.3496,52.32,88.368,-3.7547,2.8297,30.485,14.184,57.581,-18.926,126.33
55.192,6.4666,9.3054,25.521,-32.578,124.27,-3.3496,52.32,88.368,-3.7547,2.8297,30.485,14.184,57.581,-18.926,126.33
54.211,7.2088,8.8237,25.685,-33.692,124.78,-4.3672,52.302,87.615,-3.1586,2.0015,30.962,13.37,57.939,-19.498,126.61
54.211,7.2088,8.8237,25.685,-33.692,124.78,-4.3672,52.302,87.615,-3.1586,2.0015,30.962,13.37,57.939,-19.498,126.61
53.722,7.5755,8.5862,25.762,-34.245,125.02,-4.8736,52.29,87.236,-2.8621,1.5901,31.195,12.963,58.114,-19.783,126.73
53.722,7.5755,8.5862,25.762,-34.245,125.02,-4.8736,52.29,87.236,-2.8621,1.5901,31.195,12.963,58.114,-19.783,126.73
53.234,7.9392,8.3509,25.837,-34.795,125.26,-5.3783,52.275,86.854,-2.5667,1.1806,31.426,12.555,58.288,-20.069,126.86
53.234,7.9392,8.3509,25.837,-34.795,125.26,-5.3783,52.275,86.854,-2.5667,1.1806,31.426,12.555,58.288,-20.069,126.86
52.747,8.3,8.1177,25.908,-35.343,125.49,-5.8813,52.257,86.47,-2.2724,0.77279,31.654,12.147,58.458,-20.354,126.98
52.747,8.3,8.1177,25.908,-35.343,125.49,-5.8813,52.257,86.47,-2.2724,0.77279,31.654,12.147,58.458,-20.354,126.98
52.26,8.6579,7.8868,25.976,-35.889,125.73,-6.3826,52.237,86.084,-1.9791,0.36688,31.878,11.739,58.627,-20.639,127.09
52.26,8.6579,7.8868,25.976,-35.889,125.73,-6.3826,52.237,86.084,-1.9791,0.36688,31.878,11.739,58.627,-20.639,127.09
52.26,8.6579,7.8868,25.976,-35.889,125.73,-6.3826,52.237,86.084,-1.9791,0.36688,31.878,11.739,58.627,-20.639,127.09
51.775,9.0127,7.6581,26.041,-36.432,125.95,-6.8822,52.215,85.696,-1.6869,-0.037177,32.099,11.33,58.793,-20.924,127.2
51.775,9.0127,7.6581,26.041,-36.432,125.95,-6.8822,52.215,85.696,-1.6869,-0.037177,32.099,11.33,58.793,-20.924,127.2
51.291,9.3647,7.4317,26.103,-36.973,126.17,-7.3801,52.19,85.305,-1.3957,-0.43936,32.318,10.921,58.957,-21.208,127.31
51.291,9.3647,7.4317,26.103,-36.973,126.17,-7.3801,52.19,85.305,-1.3957,-0.43936,32.318,10.921,58.957,-21.208,127.31
51.291,9.3647,7.4317,26.103,-36.973,126.17,-7.3801,52.19,85.305,-1.3957,-0.43936,32.318,10.921,58.957,-21.208,127.31
50.326,10.06,6.9854,26.218,-38.046,126.6,-8.3708,52.133,84.518,-0.81651,-1.238,32.745,10.101,59.278,-21.776,127.51
50.326,10.06,6.9854,26.218,-38.046,126.6,-8.3708,52.133,84.518,-0.81651,-1.238,32.745,10.101,59.278,-21.776,127.51
49.845,10.403,6.7657,26.271,-38.579,126.81,-8.8635,52.101,84.121,-0.52843,-1.6345,32.954,9.691,59.436,-22.06,127.6
49.845,10.403,6.7657,26.271,-38.579,126.81,-8.8635,52.101,84.121,-0.52843,-1.6345,32.954,9.691,59.436,-22.06,127.6
49.365,10.743,6.5481,26.321,-39.11,127.01,-9.3545,52.067,83.722,-0.24135,-2.029,33.16,9.2806,59.591,-22.343,127.69
48.886,11.08,6.3329,26.368,-39.637,127.21,-9.8437,52.03,83.321,0.044715,-2.4216,33.363,8.8699,59.743,-22.626,127.77
48.886,11.08,6.3329,26.368,-39.637,127.21,-9.8437,52.03,83.321,0.044715,-2.4216,33.363,8.8699,59.743,-22.626,127.77
48.409,11.415,6.1199,26.411,-40.162,127.4,-10.331,51.991,82.917,0.32979,-2.8122,33.563,8.4589,59.894,-22.909,127.85
48.409,11.415,6.1199,26.411,-40.162,127.4,-10.331,51.991,82.917,0.32979,-2.8122,33.563,8.4589,59.894,-22.909,127.85
48.409,11.415,6.1199,26.411,-40.162,127.4,-10.331,51.991,82.917,0.32979,-2.8122,33.563,8.4589,59.894,-22.909,127.85
47.932,11.746,5.9092,26.452,-40.685,127.59,-10.817,51.95,82.512,0.61388,-3.2008,33.759,8.0476,60.042,-23.191,127.92
47.932,11.746,5.9092,26.452,-40.685,127.59,-10.817,51.95,82.512,0.61388,-3.2008,33.759,8.0476,60.042,-23.191,127.92
47.932,11.746,5.9092,26.452,-40.685,127.59,-10.817,51.95,82.512,0.61388,-3.2008,33.759,8.0476,60.042,-23.191,127.92
47.456,12.075,5.7007,26.49,-41.204,127.77,-11.301,51.906,82.105,0.89699,-3.5874,33.953,7.6361,60.189,-23.473,127.99
46.982,12.4,5.4945,26.524,-41.721,127.95,-11.783,51.86,81.695,1.1791,-3.972,34.143,7.2244,60.333,-23.754,128.06
46.508,12.723,5.2906,26.556,-42.235,128.13,-12.263,51.812,81.283,1.4603,-4.3545,34.331,6.8124,60.474,-24.035,128.12
46.508,12.723,5.2906,26.556,-42.235,128.13,-12.263,51.812,81.283,1.4603,-4.3545,34.331,6.8124,60.474,-24.035,128.12
46.508,12.723,5.2906,26.556,-42.235,128.13,-12.263,51.812,81.283,1.4603,-4.3545,34.331,6.8124,60.474,-24.035,128.12
46.036,13.043,5.089,26.585,-42.747,128.3,-12.741,51.761,80.869,1.7405,-4.735,34.515,6.4003,60.614,-24.316,128.17
46.036,13.043,5.089,26.585,-42.747,128.3,-12.741,51.761,80.869,1.7405,-4.735,34.515,6.4003,60.614,-24.316,128.17
45.564,13.36,4.8896,26.61,-43.256,128.46,-13.218,51.708,80.453,2.0198,-5.1135,34.696,5.9879,60.752,-24.596,128.23
45.564,13.36,4.8896,26.61,-43.256,128.46,-13.218,51.708,80.453,2.0198,-5.1135,34.696,5.9879,60.752,-24.596,128.23
