7123.1,54.424,19.507,-2.0855e-07,-0.046593,4.981e-10,7564.1,54.414,0,0,0,0,0.0038659,0
7123.1,54.424,19.507,-2.0855e-07,-0.046593,4.981e-10,7564.1,54.414,0,0,0,0,0.0038659,0
7123.1,54.424,19.507,-2.0855e-07,-0.046593,4.981e-10,7564.1,54.414,0,0,0,0,0.0038659,0
7123.1,54.424,19.507,-2.0855e-07,-0.046593,4.981e-10,7564.1,54.414,0,0,0,0,0.0038659,0
7123.1,54.424,19.507,-2.0855e-07,-0.046593,4.981e-10,7564.1,54.414,0,0,0,0,0.0038659,0
7123.1,54.424,19.507,-2.0855e-07,-0.046593,4.981e-10,7564.1,54.414,0,0,0,0,0.0038659,0
7123.1,54.424,19.507,-2.0855e-07,-0.046593,4.981e-10,7564.1,54.414,0,0,0,0,0.0038659,0
7123.1,54.424,19.507,-2.0855e-07,-0.046593,4.981e-10,7564.1,54.414,0,0,0,0,0.0038659,0
7123.1,54.424,19.507,-2.0855e-07,-0.046593,4.981e-10,7564.1,54.414,0,0,0,0,0.0038659,0
7123.1,54.424,19.507,-2.0855e-07,-0.046593,4.981e-10,7564.1,54.414,0,0,0,0,0.0038659,0
7123.1,54.424,19.507,-2.0855e-07,-0.046593,4.981e-10,7564.1,54.414,0,0,0,0,0.0038659,0
7123.9,54.424,19.505,-2.0853e-07,-0.046566,4.9784e-10,7564.1,54.414,0,0,0,0,0.0038727,0
7123.9,54.424,19.505,-2.0853e-07,-0.046566,4.9784e-10,7564.1,54.414,0,0,0,0,0.0038727,0
7123.9,54.424,19.505,-2.0853e-07,-0.046566,4.9784e-10,7564.1,54.414,0,0,0,0,0.0038727,0
7123.9,54.424,19.505,-2.0853e-07,-0.046566,4.9784e-10,7564.1,54.414,0,0,0,0,0.0038727,0
7123.9,54.424,19.505,-2.0853e-07,-0.046566,4.9784e-10,7564.1,54.414,0,0,0,0,0.0038727,0
7123.9,54.424,19.505,-2.0853e-07,-0.046566,4.9784e-10,7564.1,54.414,0,0,0,0,0.0038727,0
7123.9,54.424,19.505,-2.0853e-07,-0.046566,4.9784e-10,7564.1,54.414,0,0,0,0,0.0038727,0
7123.9,54.424,19.505,-2.0853e-07,-0.046566,4.9784e-10,7564.1,54.414,0,0,0,0,0.0038727,0
7125.4,54.424,19.501,-2.0849e-07,-0.046517,4.9731e-10,7564.1,54.414,0,0,0,0,0.0038865,0
7125.4,54.424,19.501,-2.0849e-07,-0.046517,4.9731e-10,7564.1,54.414,0,0,0,0,0.0038865,0
7125.8,54.424,19.5,-2.0848e-07,-0.046504,4.9719e-10,7564.1,54.414,0,0,0,0,0.00389,0
7127,54.424,19.498,-2.0845e-07,-0.04646,4.9673e-10,7564.1,54.414,0,0,0,0,0.0039004,0
7127,54.424,19.498,-2.0845e-07,-0.04646,4.9673e-10,7564.1,54.414,0,0,0,0,0.0039004,0
7127,54.424,19.498,-2.0845e-07,-0.04646,4.9673e-10,7564.1,54.414,0,0,0,0,0.0039004,0
7127,54.424,19.498,-2.0845e-07,-0.04646,4.9673e-10,7564.1,54.414,0,0,0,0,0.0039004,0
7127,54.424,19.498,-2.0845e-07,-0.04646,4.9673e-10,7564.1,54.414,0,0,0,0,0.0039004,0
7127,54.424,19.498,-2.0845e-07,-0.04646,4.9673e-10,7564.1,54.414,0,0,0,0,0.0039004,0
7127,54.424,19.498,-2.0845e-07,-0.04646,4.9673e-10,7564.1,54.414,0,0,0,0,0.0039004,0
7127,54.424,19.498,-2.0845e-07,-0.04646,4.9673e-10,7564.1,54.414,0,0,0,0,0.0039004,0
7128.6,54.424,19.494,-2.0841e-07,-0.046405,4.9612e-10,7564.1,54.414,0,0,0,0,0.0039143,0
7128.6,54.424,19.494,-2.0841e-07,-0.046405,4.9612e-10,7564.1,54.414,0,0,0,0,0.0039143,0
7128.6,54.424,19.494,-2.0841e-07,-0.046405,4.9612e-10,7564.1,54.414,0,0,0,0,0.0039143,0
7128.6,54.424,19.494,-2.0841e-07,-0.046405,4.9612e-10,7564.1,54.414,0,0,0,0,0.0039143,0
7128.6,54.424,19.494,-2.0841e-07,-0.046405,4.9612e-10,7564.1,54.414,0,0,0,0,0.0039143,0
7128.6,54.424,19.494,-2.0841e-07,-0.046405,4.9612e-10,7564.1,54.414,0,0,0,0,0.0039143,0
7128.6,54.424,19.494,-2.0841e-07,-0.046405,4.9612e-10,7564.1,54.414,0,0,0,0,0.0039143,0
7128.6,54.424,19.494,-2.0841e-07,-0.046405,4.9612e-10,7564.1,54.414,0,0,0,0,0.0039143,0
7128.6,54.424,19.494,-2.0841e-07,-0.046405,4.9612e-10,7564.1,54.414,0,0,0,0,0.0039143,0
7128.6,54.424,19.494,-2.0841e-07,-0.046405,4.9612e-10,7564.1,54.414,0,0,0,0,0.0039143,0
7128.6,54.424,19.494,-2.0841e-07,-0.046405,4.9612e-10,7564.1,54.414,0,0,0,0,0.0039143,0
7128.6,54.424,19.494,-2.0841e-07,-0.046405,4.9612e-10,7564.1,54.414,0,0,0,0,0.0039143,0
7128.6,54.424,19.494,-2.0841e-07,-0.046405,4.9612e-10,7564.1,54.414,0,0,0,0,0.0039143,0
7128.6,54.424,19.494,-2.0841e-07,-0.046405,4.9612e-10,7564.1,54.414,0,0,0,0,0.0039143,0
7128.6,54.424,19.494,-2.0841e-07,-0.046405,4.9612e-10,7564.1,54.414,0,0,0,0,0.0039143,0
7128.6,54.424,19.494,-2.0841e-07,-0.046405,4.9612e-10,7564.1,54.414,0,0,0,0,0.0039143,0
7128.6,54.424,19.494,-2.0841e-07,-0.046405,4.9612e-10,7564.1,54.414,0,0,0,0,0.0039143,0
7130.1,54.424,19.49,-2.0837e-07,-0.046345,4.9544e-10,7564.1,54.414,0,0,0,0,0.0039284,0
7131.7,54.424,19.486,-2.0833e-07,-0.046283,4.9478e-10,7564.1,54.414,0,0,0,0,0.0039426,0
7132.5,54.424,19.485,-2.0831e-07,-0.046252,4.9447e-10,7564.1,54.414,0,0,0,0,0.0039497,0
7132.5,54.424,19.485,-2.0831e-07,-0.046252,4.9447e-10,7564.1,54.414,0,0,0,0,0.0039497,0
7132.5,54.424,19.485,-2.0831e-07,-0.046252,4.9447e-10,7564.1,54.414,0,0,0,0,0.0039497,0
7132.5,54.424,19.485,-2.0831e-07,-0.046252,4.9447e-10,7564.1,54.414,0,0,0,0,0.0039497,0
7132.5,54.424,19.485,-2.0831e-07,-0.046252,4.9447e-10,7564.1,54.414,0,0,0,0,0.0039497,0
7132.5,54.424,19.485,-2.0831e-07,-0.046252,4.9447e-10,7564.1,54.414,0,0,0,0,0.0039497,0
7132.5,54.424,19.485,-2.0831e-07,-0.046252,4.9447e-10,7564.1,54.414,0,0,0,0,0.0039497,0
7132.5,54.424,19.485,-2.0831e-07,-0.046252,4.9447e-10,7564.1,54.414,0,0,0,0,0.0039497,0
7132.5,54.424,19.485,-2.0831e-07,-0.046252,4.9447e-10,7564.1,54.414,0,0,0,0,0.0039497,0
7132.5,54.424,19.485,-2.0831e-07,-0.046252,4.9447e-10,7564.1,54.414,0,0,0,0,0.0039497,0
7134,54.424,19.481,-2.0827e-07,-0.046187,4.9376e-10,7564.1,54.414,0,0,0,0,0.003964,0
7134,54.424,19.481,-2.0827e-07,-0.046187,4.9376e-10,7564.1,54.414,0,0,0,0,0.003964,0
7134,54.424,19.481,-2.0827e-07,-0.046187,4.9376e-10,7564.1,54.414,0,0,0,0,0.003964,0
7134,54.424,19.481,-2.0827e-07,-0.046187,4.9376e-10,7564.1,54.414,0,0,0,0,0.003964,0
7134,54.424,19.481,-2.0827e-07,-0.046187,4.9376e-10,7564.1,54.414,0,0,0,0,0.003964,0
7134,54.424,19.481,-2.0827e-07,-0.046187,4.9376e-10,7564.1,54.414,0,0,0,0,0.003964,0
7134,54.424,19.481,-2.0827e-07,-0.046187,4.9376e-10,7564.1,54.414,0,0,0,0,0.003964,0
7134,54.424,19.481,-2.0827e-07,-0.046187,4.9376e-10,7564.1,54.414,0,0,0,0,0.003964,0
7134,54.424,19.481,-2.0827e-07,-0.046187,4.9376e-10,7564.1,54.414,0,0,0,0,0.003964,0
7134,54.424,19.481,-2.0827e-07,-0.046187,4.9376e-10,7564.1,54.414,0,0,0,0,0.003964,0
7134,54.424,19.481,-2.0827e-07,-0.046187,4.9376e-10,7564.1,54.414,0,0,0,0,0.003964,0
7134,54.424,19.481,-2.0827e-07,-0.046187,4.9376e-10,7564.1,54.414,0,0,0,0,0.003964,0
7134,54.424,19.481,-2.0827e-07,-0.046187,4.9376e-10,7564.1,54.414,0,0,0,0,0.003964,0
7134,54.424,19.481,-2.0827e-07,-0.046187,4.9376e-10,7564.1,54.414,0,0,0,0,0.003964,0
7134,54.424,19.481,-2.0827e-07,-0.046187,4.9376e-10,7564.1,54.414,0,0,0,0,0.003964,0
7134,54.424,19.481,-2.0827e-07,-0.046187,4.9376e-10,7564.1,54.414,0,0,0,0,0.003964,0
7134,54.424,19.481,-2.0827e-07,-0.046187,4.9376e-10,7564.1,54.414,0,0,0,0,0.003964,0
7136,54.424,19.476,-2.0822e-07,-0.046104,4.9289e-10,7564.1,54.414,0,0,0,0,0.003982,0
7136.4,54.424,19.475,-2.0821e-07,-0.046086,4.9267e-10,7564.1,54.414,0,0,0,0,0.0039857,0
7136.4,54.424,19.475,-2.0821e-07,-0.046086,4.9267e-10,7564.1,54.414,0,0,0,0,0.0039857,0
7136.4,54.424,19.475,-2.0821e-07,-0.046086,4.9267e-10,7564.1,54.414,0,0,0,0,0.0039857,0
7136.4,54.424,19.475,-2.0821e-07,-0.046086,4.9267e-10,7564.1,54.414,0,0,0,0,0.0039857,0
7139.1,54.424,19.469,-2.0814e-07,-0.045961,4.9134e-10,7564.1,54.414,0,0,0,0,0.0040112,0
7139.5,54.424,19.468,-2.0813e-07,-0.045943,4.9116e-10,7564.1,54.414,0,0,0,0,0.0040149,0
7139.9,54.424,19.467,-2.0812e-07,-0.045925,4.9096e-10,7564.1,54.414,0,0,0,0,0.0040186,0
7139.9,54.424,19.467,-2.0812e-07,-0.045925,4.9096e-10,7564.1,54.414,0,0,0,0,0.0040186,0
7139.9,54.424,19.467,-2.0812e-07,-0.045925,4.9096e-10,7564.1,54.414,0,0,0,0,0.0040186,0
7139.9,54.424,19.467,-2.0812e-07,-0.045925,4.9096e-10,7564.1,54.414,0,0,0,0,0.0040186,0
7139.9,54.424,19.467,-2.0812e-07,-0.045925,4.9096e-10,7564.1,54.414,0,0,0,0,0.0040186,0
7139.9,54.424,19.467,-2.0812e-07,-0.045925,4.9096e-10,7564.1,54.414,0,0,0,0,0.0040186,0
7139.9,54.424,19.467,-2.0812e-07,-0.045925,4.9096e-10,7564.1,54.414,0,0,0,0,0.0040186,0
7139.9,54.424,19.467,-2.0812e-07,-0.045925,4.9096e-10,7564.1,54.414,0,0,0,0,0.0040186,0
7139.9,54.424,19.467,-2.0812e-07,-0.045925,4.9096e-10,7564.1,54.414,0,0,0,0,0.0040186,0
7139.9,54.424,19.467,-2.0812e-07,-0.045925,4.9096e-10,7564.1,54.414,0,0,0,0,0.0040186,0
7139.9,54.424,19.467,-2.0812e-07,-0.045925,4.9096e-10,7564.1,54.414,0,0,0,0,0.0040186,0
7139.9,54.424,19.467,-2.0812e-07,-0.045925,4.9096e-10,7564.1,54.414,0,0,0,0,0.0040186,0
7139.9,54.424,19.467,-2.0812e-07,-0.045925,4.9096e-10,7564.1,54.414,0,0,0,0,0.0040186,0
7139.9,54.424,19.467,-2.0812e-07,-0.045925,4.9096e-10,7564.1,54.414,0,0,0,0,0.0040186,0
7139.9,54.424,19.467,-2.0812e-07,-0.045925,4.9096e-10,7564.1,54.414,0,0,0,0,0.0040186,0
7139.9,54.424,19.467,-2.0812e-07,-0.045925,4.9096e-10,7564.1,54.414,0,0,0,0,0.0040186,0
7139.9,54.424,19.467,-2.0812e-07,-0.045925,4.9096e-10,7564.1,54.414,0,0,0,0,0.0040186,0
7139.9,54.424,19.467,-2.0812e-07,-0.045925,4.9096e-10,7564.1,54.414,0,0,0,0,0.0040186,0
7139.9,54.424,19.467,-2.0812e-07,-0.045925,4.9096e-10,7564.1,54.414,0,0,0,0,0.0040186,0
7141.8,54.424,19.463,-2.0807e-07,-0.045832,4.8996e-10,7564.1,54.414,0,0,0,0,0.0040371,0
7141.8,54.424,19.463,-2.0807e-07,-0.045832,4.8996e-10,7564.1,54.414,0,0,0,0,0.0040371,0
7143,54.424,19.46,-2.0804e-07,-0.045774,4.8933e-10,7564.1,54.414,0,0,0,0,0.0040483,0
7143,54.424,19.46,-2.0804e-07,-0.045774,4.8933e-10,7564.1,54.414,0,0,0,0,0.0040483,0
7143,54.424,19.46,-2.0804e-07,-0.045774,4.8933e-10,7564.1,54.414,0,0,0,0,0.0040483,0
7143,54.424,19.46,-2.0804e-07,-0.045774,4.8933e-10,7564.1,54.414,0,0,0,0,0.0040483,0
7143,54.424,19.46,-2.0804e-07,-0.045774,4.8933e-10,7564.1,54.414,0,0,0,0,0.0040483,0
7143,54.424,19.46,-2.0804e-07,-0.045774,4.8933e-10,7564.1,54.414,0,0,0,0,0.0040483,0
7143,54.424,19.46,-2.0804e-07,-0.045774,4.8933e-10,7564.1,54.414,0,0,0,0,0.0040483,0
7143,54.424,19.46,-2.0804e-07,-0.045774,4.8933e-10,7564.1,54.414,0,0,0,0,0.0040483,0
7143,54.424,19.46,-2.0804e-07,-0.045774,4.8933e-10,7564.1,54.414,0,0,0,0,0.0040483,0
7143,54.424,19.46,-2.0804e-07,-0.045774,4.8933e-10,7564.1,54.414,0,0,0,0,0.0040483,0
7143,54.424,19.46,-2.0804e-07,-0.045774,4.8933e-10,7564.1,54.414,0,0,0,0,0.0040483,0
7143,54.424,19.46,-2.0804e-07,-0.045774,4.8933e-10,7564.1,54.414,0,0,0,0,0.0040483,0
7143,54.424,19.46,-2.0804e-07,-0.045774,4.8933e-10,7564.1,54.414,0,0,0,0,0.0040483,0
7143,54.424,19.46,-2.0804e-07,-0.045774,4.8933e-10,7564.1,54.414,0,0,0,0,0.0040483,0
7143,54.424,19.46,-2.0804e-07,-0.045774,4.8933e-10,7564.1,54.414,0,0,0,0,0.0040483,0
7143,54.424,19.46,-2.0804e-07,-0.045774,4.8933e-10,7564.1,54.414,0,0,0,0,0.0040483,0
7143,54.424,19.46,-2.0804e-07,-0.045774,4.8933e-10,7564.1,54.414,0,0,0,0,0.0040483,0
7143,54.424,19.46,-2.0804e-07,-0.045774,4.8933e-10,7564.1,54.414,0,0,0,0,0.0040483,0
7143,54.424,19.46,-2.0804e-07,-0.045774,4.8933e-10,7564.1,54.414,0,0,0,0,0.0040483,0
7143,54.424,19.46,-2.0804e-07,-0.045774,4.8933e-10,7564.1,54.414,0,0,0,0,0.0040483,0
7143,54.424,19.46,-2.0804e-07,-0.045774,4.8933e-10,7564.1,54.414,0,0,0,0,0.0040483,0
7145.3,54.424,19.454,-2.0798e-07,-0.045655,4.8806e-10,7564.1,54.414,0,0,0,0,0.0040709,0
7145.3,54.424,19.454,-2.0798e-07,-0.045655,4.8806e-10,7564.1,54.414,0,0,0,0,0.0040709,0
7146.9,54.424,19.451,-2.0794e-07,-0.045572,4.8716e-10,7564.1,54.414,0,0,0,0,0.004086,0
7148.4,54.424,19.447,-2.079e-07,-0.045485,4.863e-10,7564.1,54.414,0,0,0,0,0.0041013,0
7148.4,54.424,19.447,-2.079e-07,-0.045485,4.863e-10,7564.1,54.414,0,0,0,0,0.0041013,0
7148.4,54.424,19.447,-2.079e-07,-0.045485,4.863e-10,7564.1,54.414,0,0,0,0,0.0041013,0
7148.4,54.424,19.447,-2.079e-07,-0.045485,4.863e-10,7564.1,54.414,0,0,0,0,0.0041013,0
7148.4,54.424,19.447,-2.079e-07,-0.045485,4.863e-10,7564.1,54.414,0,0,0,0,0.0041013,0
7148.4,54.424,19.447,-2.079e-07,-0.045485,4.863e-10,7564.1,54.414,0,0,0,0,0.0041013,0
7148.4,54.424,19.447,-2.079e-07,-0.045485,4.863e-10,7564.1,54.414,0,0,0,0,0.0041013,0
7148.4,54.424,19.447,-2.079e-07,-0.045485,4.863e-10,7564.1,54.414,0,0,0,0,0.0041013,0
7148.4,54.424,19.447,-2.079e-07,-0.045485,4.863e-10,7564.1,54.414,0,0,0,0,0.0041013,0
7148.4,54.424,19.447,-2.079e-07,-0.045485,4.863e-10,7564.1,54.414,0,0,0,0,0.0041013,0
7148.4,54.424,19.447,-2.079e-07,-0.045485,4.863e-10,7564.1,54.414,0,0,0,0,0.0041013,0
7148.4,54.424,19.447,-2.079e-07,-0.045485,4.863e-10,7564.1,54.414,0,0,0,0,0.0041013,0
7149.6,54.424,19.444,-2.0788e-07,-0.04542,4.8554e-10,7564.1,54.414,0,0,0,0,0.0041129,0
7149.6,54.424,19.444,-2.0788e-07,-0.04542,4.8554e-10,7564.1,54.414,0,0,0,0,0.0041129,0
7149.6,54.424,19.444,-2.0788e-07,-0.04542,4.8554e-10,7564.1,54.414,0,0,0,0,0.0041129,0
7149.6,54.424,19.444,-2.0788e-07,-0.04542,4.8554e-10,7564.1,54.414,0,0,0,0,0.0041129,0
7149.6,54.424,19.444,-2.0788e-07,-0.04542,4.8554e-10,7564.1,54.414,0,0,0,0,0.0041129,0
7149.6,54.424,19.444,-2.0788e-07,-0.04542,4.8554e-10,7564.1,54.414,0,0,0,0,0.0041129,0
7149.6,54.424,19.444,-2.0788e-07,-0.04542,4.8554e-10,7564.1,54.414,0,0,0,0,0.0041129,0
7149.6,54.424,19.444,-2.0788e-07,-0.04542,4.8554e-10,7564.1,54.414,0,0,0,0,0.0041129,0
7149.6,54.424,19.444,-2.0788e-07,-0.04542,4.8554e-10,7564.1,54.414,0,0,0,0,0.0041129,0
7149.6,54.424,19.444,-2.0788e-07,-0.04542,4.8554e-10,7564.1,54.414,0,0,0,0,0.0041129,0
7149.6,54.424,19.444,-2.0788e-07,-0.04542,4.8554e-10,7564.1,54.414,0,0,0,0,0.0041129,0
7149.6,54.424,19.444,-2.0788e-07,-0.04542,4.8554e-10,7564.1,54.414,0,0,0,0,0.0041129,0
7149.6,54.424,19.444,-2.0788e-07,-0.04542,4.8554e-10,7564.1,54.414,0,0,0,0,0.0041129,0
7149.6,54.424,19.444,-2.0788e-07,-0.04542,4.8554e-10,7564.1,54.414,0,0,0,0,0.0041129,0
7149.6,54.424,19.444,-2.0788e-07,-0.04542,4.8554e-10,7564.1,54.414,0,0,0,0,0.0041129,0
7149.6,54.424,19.444,-2.0788e-07,-0.04542,4.8554e-10,7564.1,54.414,0,0,0,0,0.0041129,0
7149.6,54.424,19.444,-2.0788e-07,-0.04542,4.8554e-10,7564.1,54.414,0,0,0,0,0.0041129,0
7150.8,54.424,19.442,-2.0785e-07,-0.045353,4.849e-10,7564.1,54.414,0,0,0,0,0.0041245,0
7151.9,54.424,19.439,-2.0782e-07,-0.045286,4.8413e-10,7564.1,54.414,0,0,0,0,0.0041362,0
7153.9,54.424,19.434,-2.0777e-07,-0.045172,4.8289e-10,7564.1,54.414,0,0,0,0,0.0041558,0
7155,54.424,19.432,-2.0774e-07,-0.045098,4.8222e-10,7564.1,54.414,0,0,0,0,0.0041676,0
7155,54.424,19.432,-2.0774e-07,-0.045098,4.8222e-10,7564.1,54.414,0,0,0,0,0.0041676,0
7155,54.424,19.432,-2.0774e-07,-0.045098,4.8222e-10,7564.1,54.414,0,0,0,0,0.0041676,0
7155,54.424,19.432,-2.0774e-07,-0.045098,4.8222e-10,7564.1,54.414,0,0,0,0,0.0041676,0
7155,54.424,19.432,-2.0774e-07,-0.045098,4.8222e-10,7564.1,54.414,0,0,0,0,0.0041676,0
7155,54.424,19.432,-2.0774e-07,-0.045098,4.8222e-10,7564.1,54.414,0,0,0,0,0.0041676,0
7155,54.424,19.432,-2.0774e-07,-0.045098,4.8222e-10,7564.1,54.414,0,0,0,0,0.0041676,0
7155,54.424,19.432,-2.0774e-07,-0.045098,4.8222e-10,7564.1,54.414,0,0,0,0,0.0041676,0
7155,54.424,19.432,-2.0774e-07,-0.045098,4.8222e-10,7564.1,54.414,0,0,0,0,0.0041676,0
7155,54.424,19.432,-2.0774e-07,-0.045098,4.8222e-10,7564.1,54.414,0,0,0,0,0.0041676,0
7155,54.424,19.432,-2.0774e-07,-0.045098,4.8222e-10,7564.1,54.414,0,0,0,0,0.0041676,0
7155,54.424,19.432,-2.0774e-07,-0.045098,4.8222e-10,7564.1,54.414,0,0,0,0,0.0041676,0
7155,54.424,19.432,-2.0774e-07,-0.045098,4.8222e-10,7564.1,54.414,0,0,0,0,0.0041676,0
7155,54.424,19.432,-2.0774e-07,-0.045098,4.8222e-10,7564.1,54.414,0,0,0,0,0.0041676,0
7155,54.424,19.432,-2.0774e-07,-0.045098,4.8222e-10,7564.1,54.414,0,0,0,0,0.0041676,0
7155,54.424,19.432,-2.0774e-07,-0.045098,4.8222e-10,7564.1,54.414,0,0,0,0,0.0041676,0
7155,54.424,19.432,-2.0774e-07,-0.045098,4.8222e-10,7564.1,54.414,0,0,0,0,0.0041676,0
7155,54.424,19.432,-2.0774e-07,-0.045098,4.8222e-10,7564.1,54.414,0,0,0,0,0.0041676,0
7155,54.424,19.432,-2.0774e-07,-0.045098,4.8222e-10,7564.1,54.414,0,0,0,0,0.0041676,0
7155.8,54.424,19.43,-2.0772e-07,-0.045051,4.8163e-10,7564.1,54.414,0,0,0,0,0.0041755,0
7155.8,54.424,19.43,-2.0772e-07,-0.045051,4.8163e-10,7564.1,54.414,0,0,0,0,0.0041755,0
7155.8,54.424,19.43,-2.0772e-07,-0.045051,4.8163e-10,7564.1,54.414,0,0,0,0,0.0041755,0
7155.8,54.424,19.43,-2.0772e-07,-0.045051,4.8163e-10,7564.1,54.414,0,0,0,0,0.0041755,0
7155.8,54.424,19.43,-2.0772e-07,-0.045051,4.8163e-10,7564.1,54.414,0,0,0,0,0.0041755,0
7155.8,54.424,19.43,-2.0772e-07,-0.045051,4.8163e-10,7564.1,54.414,0,0,0,0,0.0041755,0
7155.8,54.424,19.43,-2.0772e-07,-0.045051,4.8163e-10,7564.1,54.414,0,0,0,0,0.0041755,0
7156.6,54.424,19.428,-2.077e-07,-0.045,4.811e-10,7564.1,54.414,0,0,0,0,0.0041835,0
7156.6,54.424,19.428,-2.077e-07,-0.045,4.811e-10,7564.1,54.414,0,0,0,0,0.0041835,0
7159.3,54.424,19.422,-2.0763e-07,-0.044827,4.7931e-10,7564.1,54.414,0,0,0,0,0.0042116,0
7159.7,54.424,19.421,-2.0762e-07,-0.044802,4.7904e-10,7564.1,54.414,0,0,0,0,0.0042156,0
7160.9,54.424,19.418,-2.076e-07,-0.044724,4.7822e-10,7564.1,54.414,0,0,0,0,0.0042278,0
7160.9,54.424,19.418,-2.076e-07,-0.044724,4.7822e-10,7564.1,54.414,0,0,0,0,0.0042278,0
7160.9,54.424,19.418,-2.076e-07,-0.044724,4.7822e-10,7564.1,54.414,0,0,0,0,0.0042278,0
7160.9,54.424,19.418,-2.076e-07,-0.044724,4.7822e-10,7564.1,54.414,0,0,0,0,0.0042278,0
7160.9,54.424,19.418,-2.076e-07,-0.044724,4.7822e-10,7564.1,54.414,0,0,0,0,0.0042278,0
7160.9,54.424,19.418,-2.076e-07,-0.044724,4.7822e-10,7564.1,54.414,0,0,0,0,0.0042278,0
7160.9,54.424,19.418,-2.076e-07,-0.044724,4.7822e-10,7564.1,54.414,0,0,0,0,0.0042278,0
7160.9,54.424,19.418,-2.076e-07,-0.044724,4.7822e-10,7564.1,54.414,0,0,0,0,0.0042278,0
7160.9,54.424,19.418,-2.076e-07,-0.044724,4.7822e-10,7564.1,54.414,0,0,0,0,0.0042278,0
7160.9,54.424,19.418,-2.076e-07,-0.044724,4.7822e-10,7564.1,54.414,0,0,0,0,0.0042278,0
7160.9,54.424,19.418,-2.076e-07,-0.044724,4.7822e-10,7564.1,54.414,0,0,0,0,0.0042278,0
7160.9,54.424,19.418,-2.076e-07,-0.044724,4.7822e-10,7564.1,54.414,0,0,0,0,0.0042278,0
7160.9,54.424,19.418,-2.076e-07,-0.044724,4.7822e-10,7564.1,54.414,0,0,0,0,0.0042278,0
7160.9,54.424,19.418,-2.076e-07,-0.044724,4.7822e-10,7564.1,54.414,0,0,0,0,0.0042278,0
7160.9,54.424,19.418,-2.076e-07,-0.044724,4.7822e-10,7564.1,54.414,0,0,0,0,0.0042278,0
7160.9,54.424,19.418,-2.076e-07,-0.044724,4.7822e-10,7564.1,54.414,0,0,0,0,0.0042278,0
7160.9,54.424,19.418,-2.076e-07,-0.044724,4.7822e-10,7564.1,54.414,0,0,0,0,0.0042278,0
7160.9,54.424,19.418,-2.076e-07,-0.044724,4.7822e-10,7564.1,54.414,0,0,0,0,0.0042278,0
7160.9,54.424,19.418,-2.076e-07,-0.044724,4.7822e-10,7564.1,54.414,0,0,0,0,0.0042278,0
7161.6,54.424,19.416,-2.0758e-07,-0.044673,4.7773e-10,7564.1,54.414,0,0,0,0,0.004236,0
7161.6,54.424,19.416,-2.0758e-07,-0.044673,4.7773e-10,7564.1,54.414,0,0,0,0,0.004236,0
7161.6,54.424,19.416,-2.0758e-07,-0.044673,4.7773e-10,7564.1,54.414,0,0,0,0,0.004236,0
7161.6,54.424,19.416,-2.0758e-07,-0.044673,4.7773e-10,7564.1,54.414,0,0,0,0,0.004236,0
7161.6,54.424,19.416,-2.0758e-07,-0.044673,4.7773e-10,7564.1,54.414,0,0,0,0,0.004236,0
7161.6,54.424,19.416,-2.0758e-07,-0.044673,4.7773e-10,7564.1,54.414,0,0,0,0,0.004236,0
7161.6,54.424,19.416,-2.0758e-07,-0.044673,4.7773e-10,7564.1,54.414,0,0,0,0,0.004236,0
7161.6,54.424,19.416,-2.0758e-07,-0.044673,4.7773e-10,7564.1,54.414,0,0,0,0,0.004236,0
7162.8,54.424,19.414,-2.0755e-07,-0.044593,4.7681e-10,7564.1,54.414,0,0,0,0,0.0042483,0
7164,54.424,19.411,-2.0752e-07,-0.044513,4.7594e-10,7564.1,54.414,0,0,0,0,0.0042606,0
7164,54.424,19.411,-2.0752e-07,-0.044513,4.7594e-10,7564.1,54.414,0,0,0,0,0.0042606,0
7164,54.424,19.411,-2.0752e-07,-0.044513,4.7594e-10,7564.1,54.414,0,0,0,0,0.0042606,0
7164,54.424,19.411,-2.0752e-07,-0.044513,4.7594e-10,7564.1,54.414,0,0,0,0,0.0042606,0
7164,54.424,19.411,-2.0752e-07,-0.044513,4.7594e-10,7564.1,54.414,0,0,0,0,0.0042606,0
7166.7,54.424,19.405,-2.0745e-07,-0.04432,4.7382e-10,7564.1,54.414,0,0,0,0,0.0042898,0
7166.7,54.424,19.405,-2.0745e-07,-0.04432,4.7382e-10,7564.1,54.414,0,0,0,0,0.0042898,0
7166.7,54.424,19.405,-2.0745e-07,-0.04432,4.7382e-10,7564.1,54.414,0,0,0,0,0.0042898,0
7166.7,54.424,19.405,-2.0745e-07,-0.04432,4.7382e-10,7564.1,54.414,0,0,0,0,0.0042898,0
7166.7,54.424,19.405,-2.0745e-07,-0.04432,4.7382e-10,7564.1,54.414,0,0,0,0,0.0042898,0
7166.7,54.424,19.405,-2.0745e-07,-0.04432,4.7382e-10,7564.1,54.414,0,0,0,0,0.0042898,0
7166.7,54.424,19.405,-2.0745e-07,-0.04432,4.7382e-10,7564.1,54.414,0,0,0,0,0.0042898,0
7166.7,54.424,19.405,-2.0745e-07,-0.04432,4.7382e-10,7564.1,54.414,0,0,0,0,0.0042898,0
7166.7,54.424,19.405,-2.0745e-07,-0.04432,4.7382e-10,7564.1,54.414,0,0,0,0,0.0042898,0
7166.7,54.424,19.405,-2.0745e-07,-0.04432,4.7382e-10,7564.1,54.414,0,0,0,0,0.0042898,0
7166.7,54.424,19.405,-2.0745e-07,-0.04432,4.7382e-10,7564.1,54.414,0,0,0,0,0.0042898,0
7167.8,54.424,19.402,-2.0742e-07,-0.044234,4.7289e-10,7564.1,54.414,0,0,0,0,0.0043024,0
7167.8,54.424,19.402,-2.0742e-07,-0.044234,4.7289e-10,7564.1,54.414,0,0,0,0,0.0043024,0
7167.8,54.424,19.402,-2.0742e-07,-0.044234,4.7289e-10,7564.1,54.414,0,0,0,0,0.0043024,0
7167.8,54.424,19.402,-2.0742e-07,-0.044234,4.7289e-10,7564.1,54.414,0,0,0,0,0.0043024,0
7167.8,54.424,19.402,-2.0742e-07,-0.044234,4.7289e-10,7564.1,54.414,0,0,0,0,0.0043024,0
7168.2,54.424,19.401,-2.0742e-07,-0.044207,4.726e-10,7564.1,54.414,0,0,0,0,0.0043066,0
7169.8,54.424,19.398,-2.0738e-07,-0.044092,4.7139e-10,7564.1,54.414,0,0,0,0,0.0043235,0
7169.8,54.424,19.398,-2.0738e-07,-0.044092,4.7139e-10,7564.1,54.414,0,0,0,0,0.0043235,0
7169.8,54.424,19.398,-2.0738e-07,-0.044092,4.7139e-10,7564.1,54.414,0,0,0,0,0.0043235,0
7169.8,54.424,19.398,-2.0738e-07,-0.044092,4.7139e-10,7564.1,54.414,0,0,0,0,0.0043235,0
7169.8,54.424,19.398,-2.0738e-07,-0.044092,4.7139e-10,7564.1,54.414,0,0,0,0,0.0043235,0
7169.8,54.424,19.398,-2.0738e-07,-0.044092,4.7139e-10,7564.1,54.414,0,0,0,0,0.0043235,0
7169.8,54.424,19.398,-2.0738e-07,-0.044092,4.7139e-10,7564.1,54.414,0,0,0,0,0.0043235,0
7169.8,54.424,19.398,-2.0738e-07,-0.044092,4.7139e-10,7564.1,54.414,0,0,0,0,0.0043235,0
7169.8,54.424,19.398,-2.0738e-07,-0.044092,4.7139e-10,7564.1,54.414,0,0,0,0,0.0043235,0
7170.2,54.424,19.397,-2.0737e-07,-0.044062,4.7107e-10,7564.1,54.414,0,0,0,0,0.0043278,0
7170.2,54.424,19.397,-2.0737e-07,-0.044062,4.7107e-10,7564.1,54.414,0,0,0,0,0.0043278,0
7170.2,54.424,19.397,-2.0737e-07,-0.044062,4.7107e-10,7564.1,54.414,0,0,0,0,0.0043278,0
7170.2,54.424,19.397,-2.0737e-07,-0.044062,4.7107e-10,7564.1,54.414,0,0,0,0,0.0043278,0
7170.2,54.424,19.397,-2.0737e-07,-0.044062,4.7107e-10,7564.1,54.414,0,0,0,0,0.0043278,0
7170.2,54.424,19.397,-2.0737e-07,-0.044062,4.7107e-10,7564.1,54.414,0,0,0,0,0.0043278,0
7170.2,54.424,19.397,-2.0737e-07,-0.044062,4.7107e-10,7564.1,54.414,0,0,0,0,0.0043278,0
7170.2,54.424,19.397,-2.0737e-07,-0.044062,4.7107e-10,7564.1,54.414,0,0,0,0,0.0043278,0
7170.2,54.424,19.397,-2.0737e-07,-0.044062,4.7107e-10,7564.1,54.414,0,0,0,0,0.0043278,0
7170.2,54.424,19.397,-2.0737e-07,-0.044062,4.7107e-10,7564.1,54.414,0,0,0,0,0.0043278,0
7171.3,54.424,19.394,-2.0734e-07,-0.043975,4.7014e-10,7564.1,54.414,0,0,0,0,0.0043406,0
7172.5,54.424,19.392,-2.0731e-07,-0.043884,4.6919e-10,7564.1,54.414,0,0,0,0,0.0043535,0
7173.3,54.424,19.39,-2.0729e-07,-0.043824,4.6853e-10,7564.1,54.414,0,0,0,0,0.0043621,0
7174.1,54.424,19.388,-2.0727e-07,-0.043762,4.6785e-10,7564.1,54.414,0,0,0,0,0.0043708,0
7174.1,54.424,19.388,-2.0727e-07,-0.043762,4.6785e-10,7564.1,54.414,0,0,0,0,0.0043708,0
7174.1,54.424,19.388,-2.0727e-07,-0.043762,4.6785e-10,7564.1,54.414,0,0,0,0,0.0043708,0
7174.1,54.424,19.388,-2.0727e-07,-0.043762,4.6785e-10,7564.1,54.414,0,0,0,0,0.0043708,0
7174.1,54.424,19.388,-2.0727e-07,-0.043762,4.6785e-10,7564.1,54.414,0,0,0,0,0.0043708,0
7174.1,54.424,19.388,-2.0727e-07,-0.043762,4.6785e-10,7564.1,54.414,0,0,0,0,0.0043708,0
7174.1,54.424,19.388,-2.0727e-07,-0.043762,4.6785e-10,7564.1,54.414,0,0,0,0,0.0043708,0
7175.2,54.424,19.385,-2.0725e-07,-0.04367,4.6686e-10,7564.1,54.414,0,0,0,0,0.0043839,0
7175.2,54.424,19.385,-2.0725e-07,-0.04367,4.6686e-10,7564.1,54.414,0,0,0,0,0.0043839,0
7175.2,54.424,19.385,-2.0725e-07,-0.04367,4.6686e-10,7564.1,54.414,0,0,0,0,0.0043839,0
7175.2,54.424,19.385,-2.0725e-07,-0.04367,4.6686e-10,7564.1,54.414,0,0,0,0,0.0043839,0
7175.2,54.424,19.385,-2.0725e-07,-0.04367,4.6686e-10,7564.1,54.414,0,0,0,0,0.0043839,0
7175.2,54.424,19.385,-2.0725e-07,-0.04367,4.6686e-10,7564.1,54.414,0,0,0,0,0.0043839,0
7175.2,54.424,19.385,-2.0725e-07,-0.04367,4.6686e-10,7564.1,54.414,0,0,0,0,0.0043839,0
7175.2,54.424,19.385,-2.0725e-07,-0.04367,4.6686e-10,7564.1,54.414,0,0,0,0,0.0043839,0
7175.2,54.424,19.385,-2.0725e-07,-0.04367,4.6686e-10,7564.1,54.414,0,0,0,0,0.0043839,0
7175.2,54.424,19.385,-2.0725e-07,-0.04367,4.6686e-10,7564.1,54.414,0,0,0,0,0.0043839,0
7175.2,54.424,19.385,-2.0725e-07,-0.04367,4.6686e-10,7564.1,54.414,0,0,0,0,0.0043839,0
7175.2,54.424,19.385,-2.0725e-07,-0.04367,4.6686e-10,7564.1,54.414,0,0,0,0,0.0043839,0
7175.2,54.424,19.385,-2.0725e-07,-0.04367,4.6686e-10,7564.1,54.414,0,0,0,0,0.0043839,0
7175.2,54.424,19.385,-2.0725e-07,-0.04367,4.6686e-10,7564.1,54.414,0,0,0,0,0.0043839,0
7175.2,54.424,19.385,-2.0725e-07,-0.04367,4.6686e-10,7564.1,54.414,0,0,0,0,0.0043839,0
7175.2,54.424,19.385,-2.0725e-07,-0.04367,4.6686e-10,7564.1,54.414,0,0,0,0,0.0043839,0
7175.2,54.424,19.385,-2.0725e-07,-0.04367,4.6686e-10,7564.1,54.414,0,0,0,0,0.0043839,0
7175.2,54.424,19.385,-2.0725e-07,-0.04367,4.6686e-10,7564.1,54.414,0,0,0,0,0.0043839,0
7175.2,54.424,19.385,-2.0725e-07,-0.04367,4.6686e-10,7564.1,54.414,0,0,0,0,0.0043839,0
7176.8,54.424,19.382,-2.0721e-07,-0.043547,4.6554e-10,7564.1,54.414,0,0,0,0,0.0044014,0
7176.8,54.424,19.382,-2.0721e-07,-0.043547,4.6554e-10,7564.1,54.414,0,0,0,0,0.0044014,0
7178.7,54.424,19.378,-2.0716e-07,-0.043388,4.6383e-10,7564.1,54.414,0,0,0,0,0.0044236,0
7179.5,54.424,19.376,-2.0714e-07,-0.043324,4.6313e-10,7564.1,54.414,0,0,0,0,0.0044325,0
7179.5,54.424,19.376,-2.0714e-07,-0.043324,4.6313e-10,7564.1,54.414,0,0,0,0,0.0044325,0
7179.5,54.424,19.376,-2.0714e-07,-0.043324,4.6313e-10,7564.1,54.414,0,0,0,0,0.0044325,0
7179.5,54.424,19.376,-2.0714e-07,-0.043324,4.6313e-10,7564.1,54.414,0,0,0,0,0.0044325,0
7179.5,54.424,19.376,-2.0714e-07,-0.043324,4.6313e-10,7564.1,54.414,0,0,0,0,0.0044325,0
7179.5,54.424,19.376,-2.0714e-07,-0.043324,4.6313e-10,7564.1,54.414,0,0,0,0,0.0044325,0
7179.5,54.424,19.376,-2.0714e-07,-0.043324,4.6313e-10,7564.1,54.414,0,0,0,0,0.0044325,0
7179.5,54.424,19.376,-2.0714e-07,-0.043324,4.6313e-10,7564.1,54.414,0,0,0,0,0.0044325,0
7179.5,54.424,19.376,-2.0714e-07,-0.043324,4.6313e-10,7564.1,54.414,0,0,0,0,0.0044325,0
7179.5,54.424,19.376,-2.0714e-07,-0.043324,4.6313e-10,7564.1,54.414,0,0,0,0,0.0044325,0
7179.5,54.424,19.376,-2.0714e-07,-0.043324,4.6313e-10,7564.1,54.414,0,0,0,0,0.0044325,0
7179.5,54.424,19.376,-2.0714e-07,-0.043324,4.6313e-10,7564.1,54.414,0,0,0,0,0.0044325,0
7179.5,54.424,19.376,-2.0714e-07,-0.043324,4.6313e-10,7564.1,54.414,0,0,0,0,0.0044325,0
7179.5,54.424,19.376,-2.0714e-07,-0.043324,4.6313e-10,7564.1,54.414,0,0,0,0,0.0044325,0
7179.5,54.424,19.376,-2.0714e-07,-0.043324,4.6313e-10,7564.1,54.414,0,0,0,0,0.0044325,0
7179.5,54.424,19.376,-2.0714e-07,-0.043324,4.6313e-10,7564.1,54.414,0,0,0,0,0.0044325,0
7179.5,54.424,19.376,-2.0714e-07,-0.043324,4.6313e-10,7564.1,54.414,0,0,0,0,0.0044325,0
7179.5,54.424,19.376,-2.0714e-07,-0.043324,4.6313e-10,7564.1,54.414,0,0,0,0,0.0044325,0
7179.5,54.424,19.376,-2.0714e-07,-0.043324,4.6313e-10,7564.1,54.414,0,0,0,0,0.0044325,0
7179.5,54.424,19.376,-2.0714e-07,-0.043324,4.6313e-10,7564.1,54.414,0,0,0,0,0.0044325,0
7181.4,54.424,19.372,-2.071e-07,-0.043161,4.6144e-10,7564.1,54.414,0,0,0,0,0.0044549,0
7181.4,54.424,19.372,-2.071e-07,-0.043161,4.6144e-10,7564.1,54.414,0,0,0,0,0.0044549,0
7183,54.424,19.368,-2.0706e-07,-0.043028,4.6009e-10,7564.1,54.414,0,0,0,0,0.004473,0
7183,54.424,19.368,-2.0706e-07,-0.043028,4.6009e-10,7564.1,54.414,0,0,0,0,0.004473,0
7184.9,54.424,19.364,-2.0702e-07,-0.042858,4.5826e-10,7564.1,54.414,0,0,0,0,0.0044959,0
7184.9,54.424,19.364,-2.0702e-07,-0.042858,4.5826e-10,7564.1,54.414,0,0,0,0,0.0044959,0
7184.9,54.424,19.364,-2.0702e-07,-0.042858,4.5826e-10,7564.1,54.414,0,0,0,0,0.0044959,0
7184.9,54.424,19.364,-2.0702e-07,-0.042858,4.5826e-10,7564.1,54.414,0,0,0,0,0.0044959,0
7184.9,54.424,19.364,-2.0702e-07,-0.042858,4.5826e-10,7564.1,54.414,0,0,0,0,0.0044959,0
7184.9,54.424,19.364,-2.0702e-07,-0.042858,4.5826e-10,7564.1,54.414,0,0,0,0,0.0044959,0
7184.9,54.424,19.364,-2.0702e-07,-0.042858,4.5826e-10,7564.1,54.414,0,0,0,0,0.0044959,0
7184.9,54.424,19.364,-2.0702e-07,-0.042858,4.5826e-10,7564.1,54.414,0,0,0,0,0.0044959,0
7184.9,54.424,19.364,-2.0702e-07,-0.042858,4.5826e-10,7564.1,54.414,0,0,0,0,0.0044959,0
7184.9,54.424,19.364,-2.0702e-07,-0.042858,4.5826e-10,7564.1,54.414,0,0,0,0,0.0044959,0
7184.9,54.424,19.364,-2.0702e-07,-0.042858,4.5826e-10,7564.1,54.414,0,0,0,0,0.0044959,0
7184.9,54.424,19.364,-2.0702e-07,-0.042858,4.5826e-10,7564.1,54.414,0,0,0,0,0.0044959,0
7184.9,54.424,19.364,-2.0702e-07,-0.042858,4.5826e-10,7564.1,54.414,0,0,0,0,0.0044959,0
7184.9,54.424,19.364,-2.0702e-07,-0.042858,4.5826e-10,7564.1,54.414,0,0,0,0,0.0044959,0
7184.9,54.424,19.364,-2.0702e-07,-0.042858,4.5826e-10,7564.1,54.414,0,0,0,0,0.0044959,0
7184.9,54.424,19.364,-2.0702e-07,-0.042858,4.5826e-10,7564.1,54.414,0,0,0,0,0.0044959,0
7184.9,54.424,19.364,-2.0702e-07,-0.042858,4.5826e-10,7564.1,54.414,0,0,0,0,0.0044959,0
7184.9,54.424,19.364,-2.0702e-07,-0.042858,4.5826e-10,7564.1,54.414,0,0,0,0,0.0044959,0
7185.7,54.424,19.362,-2.07e-07,-0.042787,4.5752e-10,7564.1,54.414,0,0,0,0,0.0045051,0
7185.7,54.424,19.362,-2.07e-07,-0.042787,4.5752e-10,7564.1,54.414,0,0,0,0,0.0045051,0
7185.7,54.424,19.362,-2.07e-07,-0.042787,4.5752e-10,7564.1,54.414,0,0,0,0,0.0045051,0
7185.7,54.424,19.362,-2.07e-07,-0.042787,4.5752e-10,7564.1,54.414,0,0,0,0,0.0045051,0
7186.8,54.424,19.36,-2.0697e-07,-0.042684,4.5635e-10,7564.1,54.414,0,0,0,0,0.0045189,0
7188.4,54.424,19.356,-2.0693e-07,-0.042543,4.5479e-10,7564.1,54.414,0,0,0,0,0.0045376,0
7188.4,54.424,19.356,-2.0693e-07,-0.042543,4.5479e-10,7564.1,54.414,0,0,0,0,0.0045376,0
7189.9,54.424,19.353,-2.069e-07,-0.042398,4.5324e-10,7564.1,54.414,0,0,0,0,0.0045563,0
7189.9,54.424,19.353,-2.069e-07,-0.042398,4.5324e-10,7564.1,54.414,0,0,0,0,0.0045563,0
7189.9,54.424,19.353,-2.069e-07,-0.042398,4.5324e-10,7564.1,54.414,0,0,0,0,0.0045563,0
7189.9,54.424,19.353,-2.069e-07,-0.042398,4.5324e-10,7564.1,54.414,0,0,0,0,0.0045563,0
7189.9,54.424,19.353,-2.069e-07,-0.042398,4.5324e-10,7564.1,54.414,0,0,0,0,0.0045563,0
7189.9,54.424,19.353,-2.069e-07,-0.042398,4.5324e-10,7564.1,54.414,0,0,0,0,0.0045563,0
7189.9,54.424,19.353,-2.069e-07,-0.042398,4.5324e-10,7564.1,54.414,0,0,0,0,0.0045563,0
7189.9,54.424,19.353,-2.069e-07,-0.042398,4.5324e-10,7564.1,54.414,0,0,0,0,0.0045563,0
7189.9,54.424,19.353,-2.069e-07,-0.042398,4.5324e-10,7564.1,54.414,0,0,0,0,0.0045563,0
7189.9,54.424,19.353,-2.069e-07,-0.042398,4.5324e-10,7564.1,54.414,0,0,0,0,0.0045563,0
7189.9,54.424,19.353,-2.069e-07,-0.042398,4.5324e-10,7564.1,54.414,0,0,0,0,0.0045563,0
7189.9,54.424,19.353,-2.069e-07,-0.042398,4.5324e-10,7564.1,54.414,0,0,0,0,0.0045563,0
7189.9,54.424,19.353,-2.069e-07,-0.042398,4.5324e-10,7564.1,54.414,0,0,0,0,0.0045563,0
7189.9,54.424,19.353,-2.069e-07,-0.042398,4.5324e-10,7564.1,54.414,0,0,0,0,0.0045563,0
7189.9,54.424,19.353,-2.069e-07,-0.042398,4.5324e-10,7564.1,54.414,0,0,0,0,0.0045563,0
7189.9,54.424,19.353,-2.069e-07,-0.042398,4.5324e-10,7564.1,54.414,0,0,0,0,0.0045563,0
7189.9,54.424,19.353,-2.069e-07,-0.042398,4.5324e-10,7564.1,54.414,0,0,0,0,0.0045563,0
7189.9,54.424,19.353,-2.069e-07,-0.042398,4.5324e-10,7564.1,54.414,0,0,0,0,0.0045563,0
7189.9,54.424,19.353,-2.069e-07,-0.042398,4.5324e-10,7564.1,54.414,0,0,0,0,0.0045563,0
7190.7,54.424,19.351,-2.0688e-07,-0.042326,4.5248e-10,7564.1,54.414,0,0,0,0,0.0045658,0
7190.7,54.424,19.351,-2.0688e-07,-0.042326,4.5248e-10,7564.1,54.414,0,0,0,0,0.0045658,0
7190.7,54.424,19.351,-2.0688e-07,-0.042326,4.5248e-10,7564.1,54.414,0,0,0,0,0.0045658,0
7190.7,54.424,19.351,-2.0688e-07,-0.042326,4.5248e-10,7564.1,54.414,0,0,0,0,0.0045658,0
7190.7,54.424,19.351,-2.0688e-07,-0.042326,4.5248e-10,7564.1,54.414,0,0,0,0,0.0045658,0
7190.7,54.424,19.351,-2.0688e-07,-0.042326,4.5248e-10,7564.1,54.414,0,0,0,0,0.0045658,0
7190.7,54.424,19.351,-2.0688e-07,-0.042326,4.5248e-10,7564.1,54.414,0,0,0,0,0.0045658,0
7191.5,54.424,19.349,-2.0686e-07,-0.042254,4.5167e-10,7564.1,54.414,0,0,0,0,0.0045753,0
7191.5,54.424,19.349,-2.0686e-07,-0.042254,4.5167e-10,7564.1,54.414,0,0,0,0,0.0045753,0
7191.5,54.424,19.349,-2.0686e-07,-0.042254,4.5167e-10,7564.1,54.414,0,0,0,0,0.0045753,0
7194.2,54.424,19.343,-2.068e-07,-0.041995,4.4892e-10,7564.1,54.414,0,0,0,0,0.0046088,0
7194.2,54.424,19.343,-2.068e-07,-0.041995,4.4892e-10,7564.1,54.414,0,0,0,0,0.0046088,0
7195.4,54.424,19.341,-2.0677e-07,-0.041881,4.4767e-10,7564.1,54.414,0,0,0,0,0.0046233,0
7195.7,54.424,19.34,-2.0676e-07,-0.041843,4.4728e-10,7564.1,54.414,0,0,0,0,0.0046281,0
7195.7,54.424,19.34,-2.0676e-07,-0.041843,4.4728e-10,7564.1,54.414,0,0,0,0,0.0046281,0
7196.1,54.424,19.339,-2.0675e-07,-0.041806,4.469e-10,7564.1,54.414,0,0,0,0,0.004633,0
7196.1,54.424,19.339,-2.0675e-07,-0.041806,4.469e-10,7564.1,54.414,0,0,0,0,0.004633,0
7196.1,54.424,19.339,-2.0675e-07,-0.041806,4.469e-10,7564.1,54.414,0,0,0,0,0.004633,0
7196.1,54.424,19.339,-2.0675e-07,-0.041806,4.469e-10,7564.1,54.414,0,0,0,0,0.004633,0
7196.1,54.424,19.339,-2.0675e-07,-0.041806,4.469e-10,7564.1,54.414,0,0,0,0,0.004633,0
7196.1,54.424,19.339,-2.0675e-07,-0.041806,4.469e-10,7564.1,54.414,0,0,0,0,0.004633,0
7196.1,54.424,19.339,-2.0675e-07,-0.041806,4.469e-10,7564.1,54.414,0,0,0,0,0.004633,0
7196.1,54.424,19.339,-2.0675e-07,-0.041806,4.469e-10,7564.1,54.414,0,0,0,0,0.004633,0
7196.1,54.424,19.339,-2.0675e-07,-0.041806,4.469e-10,7564.1,54.414,0,0,0,0,0.004633,0
7196.1,54.424,19.339,-2.0675e-07,-0.041806,4.469e-10,7564.1,54.414,0,0,0,0,0.004633,0
7196.1,54.424,19.339,-2.0675e-07,-0.041806,4.469e-10,7564.1,54.414,0,0,0,0,0.004633,0
7196.1,54.424,19.339,-2.0675e-07,-0.041806,4.469e-10,7564.1,54.414,0,0,0,0,0.004633,0
7196.1,54.424,19.339,-2.0675e-07,-0.041806,4.469e-10,7564.1,54.414,0,0,0,0,0.004633,0
7196.1,54.424,19.339,-2.0675e-07,-0.041806,4.469e-10,7564.1,54.414,0,0,0,0,0.004633,0
7196.1,54.424,19.339,-2.0675e-07,-0.041806,4.469e-10,7564.1,54.414,0,0,0,0,0.004633,0
7196.1,54.424,19.339,-2.0675e-07,-0.041806,4.469e-10,7564.1,54.414,0,0,0,0,0.004633,0
7196.1,54.424,19.339,-2.0675e-07,-0.041806,4.469e-10,7564.1,54.414,0,0,0,0,0.004633,0
7196.1,54.424,19.339,-2.0675e-07,-0.041806,4.469e-10,7564.1,54.414,0,0,0,0,0.004633,0
7197.3,54.424,19.337,-2.0673e-07,-0.04169,4.456e-10,7564.1,54.414,0,0,0,0,0.0046476,0
7198.4,54.424,19.334,-2.067e-07,-0.041574,4.4449e-10,7564.1,54.414,0,0,0,0,0.0046624,0
7200,54.424,19.331,-2.0666e-07,-0.041417,4.4284e-10,7564.1,54.414,0,0,0,0,0.0046822,0
7200,54.424,19.331,-2.0666e-07,-0.041417,4.4284e-10,7564.1,54.414,0,0,0,0,0.0046822,0
7200,54.424,19.331,-2.0666e-07,-0.041417,4.4284e-10,7564.1,54.414,0,0,0,0,0.0046822,0
7200,54.424,19.331,-2.0666e-07,-0.041417,4.4284e-10,7564.1,54.414,0,0,0,0,0.0046822,0
7200,54.424,19.331,-2.0666e-07,-0.041417,4.4284e-10,7564.1,54.414,0,0,0,0,0.0046822,0
7200,54.424,19.331,-2.0666e-07,-0.041417,4.4284e-10,7564.1,54.414,0,0,0,0,0.0046822,0
7200,54.424,19.331,-2.0666e-07,-0.041417,4.4284e-10,7564.1,54.414,0,0,0,0,0.0046822,0
7200,54.424,19.331,-2.0666e-07,-0.041417,4.4284e-10,7564.1,54.414,0,0,0,0,0.0046822,0
7200,54.424,19.331,-2.0666e-07,-0.041417,4.4284e-10,7564.1,54.414,0,0,0,0,0.0046822,0
7200,54.424,19.331,-2.0666e-07,-0.041417,4.4284e-10,7564.1,54.414,0,0,0,0,0.0046822,0
7200,54.424,19.331,-2.0666e-07,-0.041417,4.4284e-10,7564.1,54.414,0,0,0,0,0.0046822,0
7200,54.424,19.331,-2.0666e-07,-0.041417,4.4284e-10,7564.1,54.414,0,0,0,0,0.0046822,0
7201.2,54.424,19.328,-2.0664e-07,-0.0413,4.4154e-10,7564.1,54.414,0,0,0,0,0.0046971,0
7201.2,54.424,19.328,-2.0664e-07,-0.0413,4.4154e-10,7564.1,54.414,0,0,0,0,0.0046971,0
7201.2,54.424,19.328,-2.0664e-07,-0.0413,4.4154e-10,7564.1,54.414,0,0,0,0,0.0046971,0
7201.2,54.424,19.328,-2.0664e-07,-0.0413,4.4154e-10,7564.1,54.414,0,0,0,0,0.0046971,0
7201.2,54.424,19.328,-2.0664e-07,-0.0413,4.4154e-10,7564.1,54.414,0,0,0,0,0.0046971,0
7201.2,54.424,19.328,-2.0664e-07,-0.0413,4.4154e-10,7564.1,54.414,0,0,0,0,0.0046971,0
7201.2,54.424,19.328,-2.0664e-07,-0.0413,4.4154e-10,7564.1,54.414,0,0,0,0,0.0046971,0
7201.2,54.424,19.328,-2.0664e-07,-0.0413,4.4154e-10,7564.1,54.414,0,0,0,0,0.0046971,0
7201.2,54.424,19.328,-2.0664e-07,-0.0413,4.4154e-10,7564.1,54.414,0,0,0,0,0.0046971,0
7201.2,54.424,19.328,-2.0664e-07,-0.0413,4.4154e-10,7564.1,54.414,0,0,0,0,0.0046971,0
7201.2,54.424,19.328,-2.0664e-07,-0.0413,4.4154e-10,7564.1,54.414,0,0,0,0,0.0046971,0
7201.2,54.424,19.328,-2.0664e-07,-0.0413,4.4154e-10,7564.1,54.414,0,0,0,0,0.0046971,0
7201.2,54.424,19.328,-2.0664e-07,-0.0413,4.4154e-10,7564.1,54.414,0,0,0,0,0.0046971,0
7201.2,54.424,19.328,-2.0664e-07,-0.0413,4.4154e-10,7564.1,54.414,0,0,0,0,0.0046971,0
7201.2,54.424,19.328,-2.0664e-07,-0.0413,4.4154e-10,7564.1,54.414,0,0,0,0,0.0046971,0
7201.2,54.424,19.328,-2.0664e-07,-0.0413,4.4154e-10,7564.1,54.414,0,0,0,0,0.0046971,0
7201.9,54.424,19.327,-2.0662e-07,-0.04122,4.4068e-10,7564.1,54.414,0,0,0,0,0.0047072,0
7201.9,54.424,19.327,-2.0662e-07,-0.04122,4.4068e-10,7564.1,54.414,0,0,0,0,0.0047072,0
7203.5,54.424,19.323,-2.0658e-07,-0.041058,4.3896e-10,7564.1,54.414,0,0,0,0,0.0047274,0
7205.4,54.424,19.319,-2.0654e-07,-0.040856,4.3675e-10,7564.1,54.414,0,0,0,0,0.0047528,0
7206.2,54.424,19.318,-2.0652e-07,-0.040772,4.3589e-10,7564.1,54.414,0,0,0,0,0.0047631,0
7206.2,54.424,19.318,-2.0652e-07,-0.040772,4.3589e-10,7564.1,54.414,0,0,0,0,0.0047631,0
7206.2,54.424,19.318,-2.0652e-07,-0.040772,4.3589e-10,7564.1,54.414,0,0,0,0,0.0047631,0
7206.2,54.424,19.318,-2.0652e-07,-0.040772,4.3589e-10,7564.1,54.414,0,0,0,0,0.0047631,0
7206.2,54.424,19.318,-2.0652e-07,-0.040772,4.3589e-10,7564.1,54.414,0,0,0,0,0.0047631,0
7206.2,54.424,19.318,-2.0652e-07,-0.040772,4.3589e-10,7564.1,54.414,0,0,0,0,0.0047631,0
7206.2,54.424,19.318,-2.0652e-07,-0.040772,4.3589e-10,7564.1,54.414,0,0,0,0,0.0047631,0
7207,54.424,19.316,-2.0651e-07,-0.040689,4.3499e-10,7564.1,54.414,0,0,0,0,0.0047734,0
7207,54.424,19.316,-2.0651e-07,-0.040689,4.3499e-10,7564.1,54.414,0,0,0,0,0.0047734,0
7207,54.424,19.316,-2.0651e-07,-0.040689,4.3499e-10,7564.1,54.414,0,0,0,0,0.0047734,0
7207,54.424,19.316,-2.0651e-07,-0.040689,4.3499e-10,7564.1,54.414,0,0,0,0,0.0047734,0
7207,54.424,19.316,-2.0651e-07,-0.040689,4.3499e-10,7564.1,54.414,0,0,0,0,0.0047734,0
7207,54.424,19.316,-2.0651e-07,-0.040689,4.3499e-10,7564.1,54.414,0,0,0,0,0.0047734,0
7207,54.424,19.316,-2.0651e-07,-0.040689,4.3499e-10,7564.1,54.414,0,0,0,0,0.0047734,0
7207,54.424,19.316,-2.0651e-07,-0.040689,4.3499e-10,7564.1,54.414,0,0,0,0,0.0047734,0
7207,54.424,19.316,-2.0651e-07,-0.040689,4.3499e-10,7564.1,54.414,0,0,0,0,0.0047734,0
7207,54.424,19.316,-2.0651e-07,-0.040689,4.3499e-10,7564.1,54.414,0,0,0,0,0.0047734,0
7207,54.424,19.316,-2.0651e-07,-0.040689,4.3499e-10,7564.1,54.414,0,0,0,0,0.0047734,0
7207,54.424,19.316,-2.0651e-07,-0.040689,4.3499e-10,7564.1,54.414,0,0,0,0,0.0047734,0
7207,54.424,19.316,-2.0651e-07,-0.040689,4.3499e-10,7564.1,54.414,0,0,0,0,0.0047734,0
7207,54.424,19.316,-2.0651e-07,-0.040689,4.3499e-10,7564.1,54.414,0,0,0,0,0.0047734,0
7207,54.424,19.316,-2.0651e-07,-0.040689,4.3499e-10,7564.1,54.414,0,0,0,0,0.0047734,0
7207,54.424,19.316,-2.0651e-07,-0.040689,4.3499e-10,7564.1,54.414,0,0,0,0,0.0047734,0
7207,54.424,19.316,-2.0651e-07,-0.040689,4.3499e-10,7564.1,54.414,0,0,0,0,0.0047734,0
7207,54.424,19.316,-2.0651e-07,-0.040689,4.3499e-10,7564.1,54.414,0,0,0,0,0.0047734,0
7208.5,54.424,19.313,-2.0647e-07,-0.040523,4.332e-10,7564.1,54.414,0,0,0,0,0.0047941,0
7210.4,54.424,19.309,-2.0643e-07,-0.040309,4.3092e-10,7564.1,54.414,0,0,0,0,0.0048203,0
7210.4,54.424,19.309,-2.0643e-07,-0.040309,4.3092e-10,7564.1,54.414,0,0,0,0,0.0048203,0
7210.4,54.424,19.309,-2.0643e-07,-0.040309,4.3092e-10,7564.1,54.414,0,0,0,0,0.0048203,0
7210.4,54.424,19.309,-2.0643e-07,-0.040309,4.3092e-10,7564.1,54.414,0,0,0,0,0.0048203,0
7212,54.424,19.306,-2.0639e-07,-0.040139,4.291e-10,7564.1,54.414,0,0,0,0,0.0048414,0
7212,54.424,19.306,-2.0639e-07,-0.040139,4.291e-10,7564.1,54.414,0,0,0,0,0.0048414,0
7212,54.424,19.306,-2.0639e-07,-0.040139,4.291e-10,7564.1,54.414,0,0,0,0,0.0048414,0
7212,54.424,19.306,-2.0639e-07,-0.040139,4.291e-10,7564.1,54.414,0,0,0,0,0.0048414,0
7212,54.424,19.306,-2.0639e-07,-0.040139,4.291e-10,7564.1,54.414,0,0,0,0,0.0048414,0
7212,54.424,19.306,-2.0639e-07,-0.040139,4.291e-10,7564.1,54.414,0,0,0,0,0.0048414,0
7212,54.424,19.306,-2.0639e-07,-0.040139,4.291e-10,7564.1,54.414,0,0,0,0,0.0048414,0
7212,54.424,19.306,-2.0639e-07,-0.040139,4.291e-10,7564.1,54.414,0,0,0,0,0.0048414,0
7212,54.424,19.306,-2.0639e-07,-0.040139,4.291e-10,7564.1,54.414,0,0,0,0,0.0048414,0
7212,54.424,19.306,-2.0639e-07,-0.040139,4.291e-10,7564.1,54.414,0,0,0,0,0.0048414,0
7212,54.424,19.306,-2.0639e-07,-0.040139,4.291e-10,7564.1,54.414,0,0,0,0,0.0048414,0
7212,54.424,19.306,-2.0639e-07,-0.040139,4.291e-10,7564.1,54.414,0,0,0,0,0.0048414,0
7212,54.424,19.306,-2.0639e-07,-0.040139,4.291e-10,7564.1,54.414,0,0,0,0,0.0048414,0
7212,54.424,19.306,-2.0639e-07,-0.040139,4.291e-10,7564.1,54.414,0,0,0,0,0.0048414,0
7212,54.424,19.306,-2.0639e-07,-0.040139,4.291e-10,7564.1,54.414,0,0,0,0,0.0048414,0
7212,54.424,19.306,-2.0639e-07,-0.040139,4.291e-10,7564.1,54.414,0,0,0,0,0.0048414,0
7212,54.424,19.306,-2.0639e-07,-0.040139,4.291e-10,7564.1,54.414,0,0,0,0,0.0048414,0
7212,54.424,19.306,-2.0639e-07,-0.040139,4.291e-10,7564.1,54.414,0,0,0,0,0.0048414,0
7212,54.424,19.306,-2.0639e-07,-0.040139,4.291e-10,7564.1,54.414,0,0,0,0,0.0048414,0
7212,54.424,19.306,-2.0639e-07,-0.040139,4.291e-10,7564.1,54.414,0,0,0,0,0.0048414,0
7212,54.424,19.306,-2.0639e-07,-0.040139,4.291e-10,7564.1,54.414,0,0,0,0,0.0048414,0
7213.9,54.424,19.302,-2.0635e-07,-0.03992,4.2675e-10,7564.1,54.414,0,0,0,0,0.0048681,0
7215.1,54.424,19.299,-2.0632e-07,-0.039789,4.2535e-10,7564.1,54.414,0,0,0,0,0.0048843,0
7215.1,54.424,19.299,-2.0632e-07,-0.039789,4.2535e-10,7564.1,54.414,0,0,0,0,0.0048843,0
7216.6,54.424,19.296,-2.0629e-07,-0.039611,4.2348e-10,7564.1,54.414,0,0,0,0,0.004906,0
7216.6,54.424,19.296,-2.0629e-07,-0.039611,4.2348e-10,7564.1,54.414,0,0,0,0,0.004906,0
7216.6,54.424,19.296,-2.0629e-07,-0.039611,4.2348e-10,7564.1,54.414,0,0,0,0,0.004906,0
7216.6,54.424,19.296,-2.0629e-07,-0.039611,4.2348e-10,7564.1,54.414,0,0,0,0,0.004906,0
7216.6,54.424,19.296,-2.0629e-07,-0.039611,4.2348e-10,7564.1,54.414,0,0,0,0,0.004906,0
7216.6,54.424,19.296,-2.0629e-07,-0.039611,4.2348e-10,7564.1,54.414,0,0,0,0,0.004906,0
7216.6,54.424,19.296,-2.0629e-07,-0.039611,4.2348e-10,7564.1,54.414,0,0,0,0,0.004906,0
7216.6,54.424,19.296,-2.0629e-07,-0.039611,4.2348e-10,7564.1,54.414,0,0,0,0,0.004906,0
7216.6,54.424,19.296,-2.0629e-07,-0.039611,4.2348e-10,7564.1,54.414,0,0,0,0,0.004906,0
7216.6,54.424,19.296,-2.0629e-07,-0.039611,4.2348e-10,7564.1,54.414,0,0,0,0,0.004906,0
7217.4,54.424,19.294,-2.0627e-07,-0.03952,4.2247e-10,7564.1,54.414,0,0,0,0,0.0049169,0
7217.4,54.424,19.294,-2.0627e-07,-0.03952,4.2247e-10,7564.1,54.414,0,0,0,0,0.0049169,0
7217.4,54.424,19.294,-2.0627e-07,-0.03952,4.2247e-10,7564.1,54.414,0,0,0,0,0.0049169,0
7217.4,54.424,19.294,-2.0627e-07,-0.03952,4.2247e-10,7564.1,54.414,0,0,0,0,0.0049169,0
7217.4,54.424,19.294,-2.0627e-07,-0.03952,4.2247e-10,7564.1,54.414,0,0,0,0,0.0049169,0
7217.4,54.424,19.294,-2.0627e-07,-0.03952,4.2247e-10,7564.1,54.414,0,0,0,0,0.0049169,0
7217.4,54.424,19.294,-2.0627e-07,-0.03952,4.2247e-10,7564.1,54.414,0,0,0,0,0.0049169,0
7217.4,54.424,19.294,-2.0627e-07,-0.03952,4.2247e-10,7564.1,54.414,0,0,0,0,0.0049169,0
7217.4,54.424,19.294,-2.0627e-07,-0.03952,4.2247e-10,7564.1,54.414,0,0,0,0,0.0049169,0
7217.4,54.424,19.294,-2.0627e-07,-0.03952,4.2247e-10,7564.1,54.414,0,0,0,0,0.0049169,0
7217.4,54.424,19.294,-2.0627e-07,-0.03952,4.2247e-10,7564.1,54.414,0,0,0,0,0.0049169,0
7217.4,54.424,19.294,-2.0627e-07,-0.03952,4.2247e-10,7564.1,54.414,0,0,0,0,0.0049169,0
7217.4,54.424,19.294,-2.0627e-07,-0.03952,4.2247e-10,7564.1,54.414,0,0,0,0,0.0049169,0
7217.4,54.424,19.294,-2.0627e-07,-0.03952,4.2247e-10,7564.1,54.414,0,0,0,0,0.0049169,0
7217.4,54.424,19.294,-2.0627e-07,-0.03952,4.2247e-10,7564.1,54.414,0,0,0,0,0.0049169,0
7217.4,54.424,19.294,-2.0627e-07,-0.03952,4.2247e-10,7564.1,54.414,0,0,0,0,0.0049169,0
7217.4,54.424,19.294,-2.0627e-07,-0.03952,4.2247e-10,7564.1,54.414,0,0,0,0,0.0049169,0
7218.5,54.424,19.292,-2.0625e-07,-0.039385,4.2106e-10,7564.1,54.414,0,0,0,0,0.0049333,0
7219.7,54.424,19.29,-2.0622e-07,-0.039247,4.1956e-10,7564.1,54.414,0,0,0,0,0.0049499,0
7221.2,54.424,19.287,-2.0619e-07,-0.039064,4.1762e-10,7564.1,54.414,0,0,0,0,0.0049722,0
7221.2,54.424,19.287,-2.0619e-07,-0.039064,4.1762e-10,7564.1,54.414,0,0,0,0,0.0049722,0
7222.8,54.424,19.283,-2.0616e-07,-0.03888,4.1573e-10,7564.1,54.414,0,0,0,0,0.0049947,0
7222.8,54.424,19.283,-2.0616e-07,-0.03888,4.1573e-10,7564.1,54.414,0,0,0,0,0.0049947,0
7222.8,54.424,19.283,-2.0616e-07,-0.03888,4.1573e-10,7564.1,54.414,0,0,0,0,0.0049947,0
7222.8,54.424,19.283,-2.0616e-07,-0.03888,4.1573e-10,7564.1,54.414,0,0,0,0,0.0049947,0
7222.8,54.424,19.283,-2.0616e-07,-0.03888,4.1573e-10,7564.1,54.414,0,0,0,0,0.0049947,0
7222.8,54.424,19.283,-2.0616e-07,-0.03888,4.1573e-10,7564.1,54.414,0,0,0,0,0.0049947,0
7222.8,54.424,19.283,-2.0616e-07,-0.03888,4.1573e-10,7564.1,54.414,0,0,0,0,0.0049947,0
7222.8,54.424,19.283,-2.0616e-07,-0.03888,4.1573e-10,7564.1,54.414,0,0,0,0,0.0049947,0
7222.8,54.424,19.283,-2.0616e-07,-0.03888,4.1573e-10,7564.1,54.414,0,0,0,0,0.0049947,0
7222.8,54.424,19.283,-2.0616e-07,-0.03888,4.1573e-10,7564.1,54.414,0,0,0,0,0.0049947,0
7222.8,54.424,19.283,-2.0616e-07,-0.03888,4.1573e-10,7564.1,54.414,0,0,0,0,0.0049947,0
7222.8,54.424,19.283,-2.0616e-07,-0.03888,4.1573e-10,7564.1,54.414,0,0,0,0,0.0049947,0
7222.8,54.424,19.283,-2.0616e-07,-0.03888,4.1573e-10,7564.1,54.414,0,0,0,0,0.0049947,0
7222.8,54.424,19.283,-2.0616e-07,-0.03888,4.1573e-10,7564.1,54.414,0,0,0,0,0.0049947,0
7222.8,54.424,19.283,-2.0616e-07,-0.03888,4.1573e-10,7564.1,54.414,0,0,0,0,0.0049947,0
7222.8,54.424,19.283,-2.0616e-07,-0.03888,4.1573e-10,7564.1,54.414,0,0,0,0,0.0049947,0
7222.8,54.424,19.283,-2.0616e-07,-0.03888,4.1573e-10,7564.1,54.414,0,0,0,0,0.0049947,0
7222.8,54.424,19.283,-2.0616e-07,-0.03888,4.1573e-10,7564.1,54.414,0,0,0,0,0.0049947,0
7223.5,54.424,19.282,-2.0614e-07,-0.038788,4.1462e-10,7564.1,54.414,0,0,0,0,0.005006,0
7223.5,54.424,19.282,-2.0614e-07,-0.038788,4.1462e-10,7564.1,54.414,0,0,0,0,0.005006,0
7223.5,54.424,19.282,-2.0614e-07,-0.038788,4.1462e-10,7564.1,54.414,0,0,0,0,0.005006,0
7223.5,54.424,19.282,-2.0614e-07,-0.038788,4.1462e-10,7564.1,54.414,0,0,0,0,0.005006,0
7223.5,54.424,19.282,-2.0614e-07,-0.038788,4.1462e-10,7564.1,54.414,0,0,0,0,0.005006,0
7223.5,54.424,19.282,-2.0614e-07,-0.038788,4.1462e-10,7564.1,54.414,0,0,0,0,0.005006,0
7223.5,54.424,19.282,-2.0614e-07,-0.038788,4.1462e-10,7564.1,54.414,0,0,0,0,0.005006,0
7224.3,54.424,19.28,-2.0612e-07,-0.038695,4.1369e-10,7564.1,54.414,0,0,0,0,0.0050173,0
7224.3,54.424,19.28,-2.0612e-07,-0.038695,4.1369e-10,7564.1,54.414,0,0,0,0,0.0050173,0
7227,54.424,19.275,-2.0607e-07,-0.03836,4.1008e-10,7564.1,54.414,0,0,0,0,0.0050575,0
7227.4,54.424,19.274,-2.0606e-07,-0.038312,4.0947e-10,7564.1,54.414,0,0,0,0,0.0050633,0
7228.6,54.424,19.272,-2.0603e-07,-0.03817,4.0803e-10,7564.1,54.414,0,0,0,0,0.0050807,0
7228.6,54.424,19.272,-2.0603e-07,-0.03817,4.0803e-10,7564.1,54.414,0,0,0,0,0.0050807,0
7228.6,54.424,19.272,-2.0603e-07,-0.03817,4.0803e-10,7564.1,54.414,0,0,0,0,0.0050807,0
7228.6,54.424,19.272,-2.0603e-07,-0.03817,4.0803e-10,7564.1,54.414,0,0,0,0,0.0050807,0
7228.6,54.424,19.272,-2.0603e-07,-0.03817,4.0803e-10,7564.1,54.414,0,0,0,0,0.0050807,0
7228.6,54.424,19.272,-2.0603e-07,-0.03817,4.0803e-10,7564.1,54.414,0,0,0,0,0.0050807,0
7228.6,54.424,19.272,-2.0603e-07,-0.03817,4.0803e-10,7564.1,54.414,0,0,0,0,0.0050807,0
7228.6,54.424,19.272,-2.0603e-07,-0.03817,4.0803e-10,7564.1,54.414,0,0,0,0,0.0050807,0
7228.6,54.424,19.272,-2.0603e-07,-0.03817,4.0803e-10,7564.1,54.414,0,0,0,0,0.0050807,0
7228.6,54.424,19.272,-2.0603e-07,-0.03817,4.0803e-10,7564.1,54.414,0,0,0,0,0.0050807,0
7228.6,54.424,19.272,-2.0603e-07,-0.03817,4.0803e-10,7564.1,54.414,0,0,0,0,0.0050807,0
7228.6,54.424,19.272,-2.0603e-07,-0.03817,4.0803e-10,7564.1,54.414,0,0,0,0,0.0050807,0
7228.6,54.424,19.272,-2.0603e-07,-0.03817,4.0803e-10,7564.1,54.414,0,0,0,0,0.0050807,0
7228.6,54.424,19.272,-2.0603e-07,-0.03817,4.0803e-10,7564.1,54.414,0,0,0,0,0.0050807,0
7228.6,54.424,19.272,-2.0603e-07,-0.03817,4.0803e-10,7564.1,54.414,0,0,0,0,0.0050807,0
7228.6,54.424,19.272,-2.0603e-07,-0.03817,4.0803e-10,7564.1,54.414,0,0,0,0,0.0050807,0
7228.6,54.424,19.272,-2.0603e-07,-0.03817,4.0803e-10,7564.1,54.414,0,0,0,0,0.0050807,0
7228.6,54.424,19.272,-2.0603e-07,-0.03817,4.0803e-10,7564.1,54.414,0,0,0,0,0.0050807,0
7228.6,54.424,19.272,-2.0603e-07,-0.03817,4.0803e-10,7564.1,54.414,0,0,0,0,0.0050807,0
7229.3,54.424,19.27,-2.0602e-07,-0.038074,4.07e-10,7564.1,54.414,0,0,0,0,0.0050924,0
7229.3,54.424,19.27,-2.0602e-07,-0.038074,4.07e-10,7564.1,54.414,0,0,0,0,0.0050924,0
7229.3,54.424,19.27,-2.0602e-07,-0.038074,4.07e-10,7564.1,54.414,0,0,0,0,0.0050924,0
7229.3,54.424,19.27,-2.0602e-07,-0.038074,4.07e-10,7564.1,54.414,0,0,0,0,0.0050924,0
7229.3,54.424,19.27,-2.0602e-07,-0.038074,4.07e-10,7564.1,54.414,0,0,0,0,0.0050924,0
7229.3,54.424,19.27,-2.0602e-07,-0.038074,4.07e-10,7564.1,54.414,0,0,0,0,0.0050924,0
7229.3,54.424,19.27,-2.0602e-07,-0.038074,4.07e-10,7564.1,54.414,0,0,0,0,0.0050924,0
7230.1,54.424,19.269,-2.06e-07,-0.037978,4.0595e-10,7564.1,54.414,0,0,0,0,0.0051042,0
7230.1,54.424,19.269,-2.06e-07,-0.037978,4.0595e-10,7564.1,54.414,0,0,0,0,0.0051042,0
7230.1,54.424,19.269,-2.06e-07,-0.037978,4.0595e-10,7564.1,54.414,0,0,0,0,0.0051042,0
7232.8,54.424,19.264,-2.0594e-07,-0.037636,4.0233e-10,7564.1,54.414,0,0,0,0,0.0051457,0
7232.8,54.424,19.264,-2.0594e-07,-0.037636,4.0233e-10,7564.1,54.414,0,0,0,0,0.0051457,0
7232.8,54.424,19.264,-2.0594e-07,-0.037636,4.0233e-10,7564.1,54.414,0,0,0,0,0.0051457,0
7234,54.424,19.261,-2.0592e-07,-0.037488,4.0077e-10,7564.1,54.414,0,0,0,0,0.0051638,0
7234,54.424,19.261,-2.0592e-07,-0.037488,4.0077e-10,7564.1,54.414,0,0,0,0,0.0051638,0
7234,54.424,19.261,-2.0592e-07,-0.037488,4.0077e-10,7564.1,54.414,0,0,0,0,0.0051638,0
7234,54.424,19.261,-2.0592e-07,-0.037488,4.0077e-10,7564.1,54.414,0,0,0,0,0.0051638,0
7234,54.424,19.261,-2.0592e-07,-0.037488,4.0077e-10,7564.1,54.414,0,0,0,0,0.0051638,0
7234,54.424,19.261,-2.0592e-07,-0.037488,4.0077e-10,7564.1,54.414,0,0,0,0,0.0051638,0
7234,54.424,19.261,-2.0592e-07,-0.037488,4.0077e-10,7564.1,54.414,0,0,0,0,0.0051638,0
7234,54.424,19.261,-2.0592e-07,-0.037488,4.0077e-10,7564.1,54.414,0,0,0,0,0.0051638,0
7234,54.424,19.261,-2.0592e-07,-0.037488,4.0077e-10,7564.1,54.414,0,0,0,0,0.0051638,0
7234,54.424,19.261,-2.0592e-07,-0.037488,4.0077e-10,7564.1,54.414,0,0,0,0,0.0051638,0
7234,54.424,19.261,-2.0592e-07,-0.037488,4.0077e-10,7564.1,54.414,0,0,0,0,0.0051638,0
7234,54.424,19.261,-2.0592e-07,-0.037488,4.0077e-10,7564.1,54.414,0,0,0,0,0.0051638,0
7234,54.424,19.261,-2.0592e-07,-0.037488,4.0077e-10,7564.1,54.414,0,0,0,0,0.0051638,0
7234,54.424,19.261,-2.0592e-07,-0.037488,4.0077e-10,7564.1,54.414,0,0,0,0,0.0051638,0
7234,54.424,19.261,-2.0592e-07,-0.037488,4.0077e-10,7564.1,54.414,0,0,0,0,0.0051638,0
7234,54.424,19.261,-2.0592e-07,-0.037488,4.0077e-10,7564.1,54.414,0,0,0,0,0.0051638,0
7234,54.424,19.261,-2.0592e-07,-0.037488,4.0077e-10,7564.1,54.414,0,0,0,0,0.0051638,0
7234,54.424,19.261,-2.0592e-07,-0.037488,4.0077e-10,7564.1,54.414,0,0,0,0,0.0051638,0
7234,54.424,19.261,-2.0592e-07,-0.037488,4.0077e-10,7564.1,54.414,0,0,0,0,0.0051638,0
7234,54.424,19.261,-2.0592e-07,-0.037488,4.0077e-10,7564.1,54.414,0,0,0,0,0.0051638,0
7235.9,54.424,19.258,-2.0588e-07,-0.037236,3.9807e-10,7564.1,54.414,0,0,0,0,0.0051941,0
7236.7,54.424,19.256,-2.0586e-07,-0.037134,3.9698e-10,7564.1,54.414,0,0,0,0,0.0052063,0
7237.8,54.424,19.254,-2.0584e-07,-0.03698,3.9533e-10,7564.1,54.414,0,0,0,0,0.0052247,0
7237.8,54.424,19.254,-2.0584e-07,-0.03698,3.9533e-10,7564.1,54.414,0,0,0,0,0.0052247,0
7237.8,54.424,19.254,-2.0584e-07,-0.03698,3.9533e-10,7564.1,54.414,0,0,0,0,0.0052247,0
7237.8,54.424,19.254,-2.0584e-07,-0.03698,3.9533e-10,7564.1,54.414,0,0,0,0,0.0052247,0
7237.8,54.424,19.254,-2.0584e-07,-0.03698,3.9533e-10,7564.1,54.414,0,0,0,0,0.0052247,0
7237.8,54.424,19.254,-2.0584e-07,-0.03698,3.9533e-10,7564.1,54.414,0,0,0,0,0.0052247,0
7237.8,54.424,19.254,-2.0584e-07,-0.03698,3.9533e-10,7564.1,54.414,0,0,0,0,0.0052247,0
7237.8,54.424,19.254,-2.0584e-07,-0.03698,3.9533e-10,7564.1,54.414,0,0,0,0,0.0052247,0
7237.8,54.424,19.254,-2.0584e-07,-0.03698,3.9533e-10,7564.1,54.414,0,0,0,0,0.0052247,0
7237.8,54.424,19.254,-2.0584e-07,-0.03698,3.9533e-10,7564.1,54.414,0,0,0,0,0.0052247,0
7237.8,54.424,19.254,-2.0584e-07,-0.03698,3.9533e-10,7564.1,54.414,0,0,0,0,0.0052247,0
7237.8,54.424,19.254,-2.0584e-07,-0.03698,3.9533e-10,7564.1,54.414,0,0,0,0,0.0052247,0
7237.8,54.424,19.254,-2.0584e-07,-0.03698,3.9533e-10,7564.1,54.414,0,0,0,0,0.0052247,0
7239.7,54.424,19.25,-2.058e-07,-0.036724,3.926e-10,7564.1,54.414,0,0,0,0,0.0052557,0
7239.7,54.424,19.25,-2.058e-07,-0.036724,3.926e-10,7564.1,54.414,0,0,0,0,0.0052557,0
7239.7,54.424,19.25,-2.058e-07,-0.036724,3.926e-10,7564.1,54.414,0,0,0,0,0.0052557,0
7239.7,54.424,19.25,-2.058e-07,-0.036724,3.926e-10,7564.1,54.414,0,0,0,0,0.0052557,0
7239.7,54.424,19.25,-2.058e-07,-0.036724,3.926e-10,7564.1,54.414,0,0,0,0,0.0052557,0
7239.7,54.424,19.25,-2.058e-07,-0.036724,3.926e-10,7564.1,54.414,0,0,0,0,0.0052557,0
7239.7,54.424,19.25,-2.058e-07,-0.036724,3.926e-10,7564.1,54.414,0,0,0,0,0.0052557,0
7239.7,54.424,19.25,-2.058e-07,-0.036724,3.926e-10,7564.1,54.414,0,0,0,0,0.0052557,0
7239.7,54.424,19.25,-2.058e-07,-0.036724,3.926e-10,7564.1,54.414,0,0,0,0,0.0052557,0
7239.7,54.424,19.25,-2.058e-07,-0.036724,3.926e-10,7564.1,54.414,0,0,0,0,0.0052557,0
7239.7,54.424,19.25,-2.058e-07,-0.036724,3.926e-10,7564.1,54.414,0,0,0,0,0.0052557,0
7239.7,54.424,19.25,-2.058e-07,-0.036724,3.926e-10,7564.1,54.414,0,0,0,0,0.0052557,0
7239.7,54.424,19.25,-2.058e-07,-0.036724,3.926e-10,7564.1,54.414,0,0,0,0,0.0052557,0
7239.7,54.424,19.25,-2.058e-07,-0.036724,3.926e-10,7564.1,54.414,0,0,0,0,0.0052557,0
7239.7,54.424,19.25,-2.058e-07,-0.036724,3.926e-10,7564.1,54.414,0,0,0,0,0.0052557,0
7240.5,54.424,19.249,-2.0579e-07,-0.036621,3.9148e-10,7564.1,54.414,0,0,0,0,0.0052682,0
7240.5,54.424,19.249,-2.0579e-07,-0.036621,3.9148e-10,7564.1,54.414,0,0,0,0,0.0052682,0
7240.5,54.424,19.249,-2.0579e-07,-0.036621,3.9148e-10,7564.1,54.414,0,0,0,0,0.0052682,0
7244,54.424,19.242,-2.0572e-07,-0.036146,3.864e-10,7564.1,54.414,0,0,0,0,0.0053252,0
7244,54.424,19.242,-2.0572e-07,-0.036146,3.864e-10,7564.1,54.414,0,0,0,0,0.0053252,0
7244.7,54.424,19.241,-2.057e-07,-0.03604,3.8529e-10,7564.1,54.414,0,0,0,0,0.005338,0
7245.1,54.424,19.24,-2.0569e-07,-0.035986,3.8471e-10,7564.1,54.414,0,0,0,0,0.0053445,0
7245.5,54.424,19.239,-2.0568e-07,-0.035934,3.8415e-10,7564.1,54.414,0,0,0,0,0.0053509,0
7245.5,54.424,19.239,-2.0568e-07,-0.035934,3.8415e-10,7564.1,54.414,0,0,0,0,0.0053509,0
7245.5,54.424,19.239,-2.0568e-07,-0.035934,3.8415e-10,7564.1,54.414,0,0,0,0,0.0053509,0
7245.5,54.424,19.239,-2.0568e-07,-0.035934,3.8415e-10,7564.1,54.414,0,0,0,0,0.0053509,0
7245.5,54.424,19.239,-2.0568e-07,-0.035934,3.8415e-10,7564.1,54.414,0,0,0,0,0.0053509,0
7245.5,54.424,19.239,-2.0568e-07,-0.035934,3.8415e-10,7564.1,54.414,0,0,0,0,0.0053509,0
7245.5,54.424,19.239,-2.0568e-07,-0.035934,3.8415e-10,7564.1,54.414,0,0,0,0,0.0053509,0
7245.5,54.424,19.239,-2.0568e-07,-0.035934,3.8415e-10,7564.1,54.414,0,0,0,0,0.0053509,0
7245.9,54.424,19.239,-2.0568e-07,-0.035879,3.8357e-10,7564.1,54.414,0,0,0,0,0.0053574,0
7245.9,54.424,19.239,-2.0568e-07,-0.035879,3.8357e-10,7564.1,54.414,0,0,0,0,0.0053574,0
7245.9,54.424,19.239,-2.0568e-07,-0.035879,3.8357e-10,7564.1,54.414,0,0,0,0,0.0053574,0
7245.9,54.424,19.239,-2.0568e-07,-0.035879,3.8357e-10,7564.1,54.414,0,0,0,0,0.0053574,0
7245.9,54.424,19.239,-2.0568e-07,-0.035879,3.8357e-10,7564.1,54.414,0,0,0,0,0.0053574,0
7245.9,54.424,19.239,-2.0568e-07,-0.035879,3.8357e-10,7564.1,54.414,0,0,0,0,0.0053574,0
7245.9,54.424,19.239,-2.0568e-07,-0.035879,3.8357e-10,7564.1,54.414,0,0,0,0,0.0053574,0
7245.9,54.424,19.239,-2.0568e-07,-0.035879,3.8357e-10,7564.1,54.414,0,0,0,0,0.0053574,0
7245.9,54.424,19.239,-2.0568e-07,-0.035879,3.8357e-10,7564.1,54.414,0,0,0,0,0.0053574,0
7245.9,54.424,19.239,-2.0568e-07,-0.035879,3.8357e-10,7564.1,54.414,0,0,0,0,0.0053574,0
7245.9,54.424,19.239,-2.0568e-07,-0.035879,3.8357e-10,7564.1,54.414,0,0,0,0,0.0053574,0
7247.4,54.424,19.236,-2.0565e-07,-0.035664,3.8128e-10,7564.1,54.414,0,0,0,0,0.0053834,0
7248.2,54.424,19.234,-2.0563e-07,-0.035556,3.8014e-10,7564.1,54.414,0,0,0,0,0.0053966,0
7248.2,54.424,19.234,-2.0563e-07,-0.035556,3.8014e-10,7564.1,54.414,0,0,0,0,0.0053966,0
7248.2,54.424,19.234,-2.0563e-07,-0.035556,3.8014e-10,7564.1,54.414,0,0,0,0,0.0053966,0
7249.7,54.424,19.231,-2.056e-07,-0.035336,3.778e-10,7564.1,54.414,0,0,0,0,0.005423,0
7249.7,54.424,19.231,-2.056e-07,-0.035336,3.778e-10,7564.1,54.414,0,0,0,0,0.005423,0
7249.7,54.424,19.231,-2.056e-07,-0.035336,3.778e-10,7564.1,54.414,0,0,0,0,0.005423,0
7249.7,54.424,19.231,-2.056e-07,-0.035336,3.778e-10,7564.1,54.414,0,0,0,0,0.005423,0
7249.7,54.424,19.231,-2.056e-07,-0.035336,3.778e-10,7564.1,54.414,0,0,0,0,0.005423,0
7249.7,54.424,19.231,-2.056e-07,-0.035336,3.778e-10,7564.1,54.414,0,0,0,0,0.005423,0
7249.7,54.424,19.231,-2.056e-07,-0.035336,3.778e-10,7564.1,54.414,0,0,0,0,0.005423,0
7249.7,54.424,19.231,-2.056e-07,-0.035336,3.778e-10,7564.1,54.414,0,0,0,0,0.005423,0
7249.7,54.424,19.231,-2.056e-07,-0.035336,3.778e-10,7564.1,54.414,0,0,0,0,0.005423,0
7249.7,54.424,19.231,-2.056e-07,-0.035336,3.778e-10,7564.1,54.414,0,0,0,0,0.005423,0
7249.7,54.424,19.231,-2.056e-07,-0.035336,3.778e-10,7564.1,54.414,0,0,0,0,0.005423,0
7249.7,54.424,19.231,-2.056e-07,-0.035336,3.778e-10,7564.1,54.414,0,0,0,0,0.005423,0
7249.7,54.424,19.231,-2.056e-07,-0.035336,3.778e-10,7564.1,54.414,0,0,0,0,0.005423,0
7249.7,54.424,19.231,-2.056e-07,-0.035336,3.778e-10,7564.1,54.414,0,0,0,0,0.005423,0
7249.7,54.424,19.231,-2.056e-07,-0.035336,3.778e-10,7564.1,54.414,0,0,0,0,0.005423,0
7249.7,54.424,19.231,-2.056e-07,-0.035336,3.778e-10,7564.1,54.414,0,0,0,0,0.005423,0
7250.5,54.424,19.23,-2.0559e-07,-0.035228,3.7662e-10,7564.1,54.414,0,0,0,0,0.0054363,0
7250.5,54.424,19.23,-2.0559e-07,-0.035228,3.7662e-10,7564.1,54.414,0,0,0,0,0.0054363,0
7250.9,54.424,19.229,-2.0558e-07,-0.035174,3.7609e-10,7564.1,54.414,0,0,0,0,0.0054429,0
7252,54.424,19.227,-2.0556e-07,-0.035007,3.7428e-10,7564.1,54.414,0,0,0,0,0.0054631,0
7253.6,54.424,19.224,-2.0553e-07,-0.034786,3.7198e-10,7564.1,54.414,0,0,0,0,0.0054901,0
7253.6,54.424,19.224,-2.0553e-07,-0.034786,3.7198e-10,7564.1,54.414,0,0,0,0,0.0054901,0
7253.6,54.424,19.224,-2.0553e-07,-0.034786,3.7198e-10,7564.1,54.414,0,0,0,0,0.0054901,0
7253.6,54.424,19.224,-2.0553e-07,-0.034786,3.7198e-10,7564.1,54.414,0,0,0,0,0.0054901,0
7253.6,54.424,19.224,-2.0553e-07,-0.034786,3.7198e-10,7564.1,54.414,0,0,0,0,0.0054901,0
7253.6,54.424,19.224,-2.0553e-07,-0.034786,3.7198e-10,7564.1,54.414,0,0,0,0,0.0054901,0
7253.6,54.424,19.224,-2.0553e-07,-0.034786,3.7198e-10,7564.1,54.414,0,0,0,0,0.0054901,0
7253.6,54.424,19.224,-2.0553e-07,-0.034786,3.7198e-10,7564.1,54.414,0,0,0,0,0.0054901,0
7253.6,54.424,19.224,-2.0553e-07,-0.034786,3.7198e-10,7564.1,54.414,0,0,0,0,0.0054901,0
7253.6,54.424,19.224,-2.0553e-07,-0.034786,3.7198e-10,7564.1,54.414,0,0,0,0,0.0054901,0
7253.6,54.424,19.224,-2.0553e-07,-0.034786,3.7198e-10,7564.1,54.414,0,0,0,0,0.0054901,0
7253.6,54.424,19.224,-2.0553e-07,-0.034786,3.7198e-10,7564.1,54.414,0,0,0,0,0.0054901,0
7254.7,54.424,19.222,-2.055e-07,-0.034619,3.7023e-10,7564.1,54.414,0,0,0,0,0.0055106,0
7254.7,54.424,19.222,-2.055e-07,-0.034619,3.7023e-10,7564.1,54.414,0,0,0,0,0.0055106,0
7254.7,54.424,19.222,-2.055e-07,-0.034619,3.7023e-10,7564.1,54.414,0,0,0,0,0.0055106,0
7254.7,54.424,19.222,-2.055e-07,-0.034619,3.7023e-10,7564.1,54.414,0,0,0,0,0.0055106,0
7254.7,54.424,19.222,-2.055e-07,-0.034619,3.7023e-10,7564.1,54.414,0,0,0,0,0.0055106,0
7254.7,54.424,19.222,-2.055e-07,-0.034619,3.7023e-10,7564.1,54.414,0,0,0,0,0.0055106,0
7254.7,54.424,19.222,-2.055e-07,-0.034619,3.7023e-10,7564.1,54.414,0,0,0,0,0.0055106,0
7254.7,54.424,19.222,-2.055e-07,-0.034619,3.7023e-10,7564.1,54.414,0,0,0,0,0.0055106,0
7254.7,54.424,19.222,-2.055e-07,-0.034619,3.7023e-10,7564.1,54.414,0,0,0,0,0.0055106,0
7254.7,54.424,19.222,-2.055e-07,-0.034619,3.7023e-10,7564.1,54.414,0,0,0,0,0.0055106,0
7254.7,54.424,19.222,-2.055e-07,-0.034619,3.7023e-10,7564.1,54.414,0,0,0,0,0.0055106,0
7254.7,54.424,19.222,-2.055e-07,-0.034619,3.7023e-10,7564.1,54.414,0,0,0,0,0.0055106,0
7254.7,54.424,19.222,-2.055e-07,-0.034619,3.7023e-10,7564.1,54.414,0,0,0,0,0.0055106,0
7255.5,54.424,19.221,-2.0549e-07,-0.034508,3.6904e-10,7564.1,54.414,0,0,0,0,0.0055243,0
7257,54.424,19.218,-2.0546e-07,-0.03428,3.6658e-10,7564.1,54.414,0,0,0,0,0.005552,0
7258.6,54.424,19.216,-2.0543e-07,-0.034053,3.6407e-10,7564.1,54.414,0,0,0,0,0.0055799,0
7259.3,54.424,19.214,-2.0542e-07,-0.03394,3.6281e-10,7564.1,54.414,0,0,0,0,0.005594,0
7259.3,54.424,19.214,-2.0542e-07,-0.03394,3.6281e-10,7564.1,54.414,0,0,0,0,0.005594,0
7259.3,54.424,19.214,-2.0542e-07,-0.03394,3.6281e-10,7564.1,54.414,0,0,0,0,0.005594,0
7259.3,54.424,19.214,-2.0542e-07,-0.03394,3.6281e-10,7564.1,54.414,0,0,0,0,0.005594,0
7259.3,54.424,19.214,-2.0542e-07,-0.03394,3.6281e-10,7564.1,54.414,0,0,0,0,0.005594,0
7259.3,54.424,19.214,-2.0542e-07,-0.03394,3.6281e-10,7564.1,54.414,0,0,0,0,0.005594,0
7259.3,54.424,19.214,-2.0542e-07,-0.03394,3.6281e-10,7564.1,54.414,0,0,0,0,0.005594,0
7259.3,54.424,19.214,-2.0542e-07,-0.03394,3.6281e-10,7564.1,54.414,0,0,0,0,0.005594,0
7259.7,54.424,19.213,-2.0541e-07,-0.033882,3.6219e-10,7564.1,54.414,0,0,0,0,0.005601,0
7259.7,54.424,19.213,-2.0541e-07,-0.033882,3.6219e-10,7564.1,54.414,0,0,0,0,0.005601,0
7259.7,54.424,19.213,-2.0541e-07,-0.033882,3.6219e-10,7564.1,54.414,0,0,0,0,0.005601,0
7259.7,54.424,19.213,-2.0541e-07,-0.033882,3.6219e-10,7564.1,54.414,0,0,0,0,0.005601,0
7259.7,54.424,19.213,-2.0541e-07,-0.033882,3.6219e-10,7564.1,54.414,0,0,0,0,0.005601,0
7259.7,54.424,19.213,-2.0541e-07,-0.033882,3.6219e-10,7564.1,54.414,0,0,0,0,0.005601,0
7259.7,54.424,19.213,-2.0541e-07,-0.033882,3.6219e-10,7564.1,54.414,0,0,0,0,0.005601,0
7259.7,54.424,19.213,-2.0541e-07,-0.033882,3.6219e-10,7564.1,54.414,0,0,0,0,0.005601,0
7259.7,54.424,19.213,-2.0541e-07,-0.033882,3.6219e-10,7564.1,54.414,0,0,0,0,0.005601,0
7259.7,54.424,19.213,-2.0541e-07,-0.033882,3.6219e-10,7564.1,54.414,0,0,0,0,0.005601,0
7259.7,54.424,19.213,-2.0541e-07,-0.033882,3.6219e-10,7564.1,54.414,0,0,0,0,0.005601,0
7259.7,54.424,19.213,-2.0541e-07,-0.033882,3.6219e-10,7564.1,54.414,0,0,0,0,0.005601,0
7259.7,54.424,19.213,-2.0541e-07,-0.033882,3.6219e-10,7564.1,54.414,0,0,0,0,0.005601,0
7259.7,54.424,19.213,-2.0541e-07,-0.033882,3.6219e-10,7564.1,54.414,0,0,0,0,0.005601,0
7259.7,54.424,19.213,-2.0541e-07,-0.033882,3.6219e-10,7564.1,54.414,0,0,0,0,0.005601,0
7259.7,54.424,19.213,-2.0541e-07,-0.033882,3.6219e-10,7564.1,54.414,0,0,0,0,0.005601,0
7259.7,54.424,19.213,-2.0541e-07,-0.033882,3.6219e-10,7564.1,54.414,0,0,0,0,0.005601,0
7261.3,54.424,19.211,-2.0538e-07,-0.033653,3.5976e-10,7564.1,54.414,0,0,0,0,0.0056295,0
7262.8,54.424,19.208,-2.0535e-07,-0.03342,3.5734e-10,7564.1,54.414,0,0,0,0,0.0056582,0
7263.6,54.424,19.207,-2.0534e-07,-0.033304,3.5602e-10,7564.1,54.414,0,0,0,0,0.0056726,0
7263.6,54.424,19.207,-2.0534e-07,-0.033304,3.5602e-10,7564.1,54.414,0,0,0,0,0.0056726,0
7263.6,54.424,19.207,-2.0534e-07,-0.033304,3.5602e-10,7564.1,54.414,0,0,0,0,0.0056726,0
7263.6,54.424,19.207,-2.0534e-07,-0.033304,3.5602e-10,7564.1,54.414,0,0,0,0,0.0056726,0
7263.6,54.424,19.207,-2.0534e-07,-0.033304,3.5602e-10,7564.1,54.414,0,0,0,0,0.0056726,0
7263.6,54.424,19.207,-2.0534e-07,-0.033304,3.5602e-10,7564.1,54.414,0,0,0,0,0.0056726,0
7263.6,54.424,19.207,-2.0534e-07,-0.033304,3.5602e-10,7564.1,54.414,0,0,0,0,0.0056726,0
7263.6,54.424,19.207,-2.0534e-07,-0.033304,3.5602e-10,7564.1,54.414,0,0,0,0,0.0056726,0
7263.6,54.424,19.207,-2.0534e-07,-0.033304,3.5602e-10,7564.1,54.414,0,0,0,0,0.0056726,0
7263.6,54.424,19.207,-2.0534e-07,-0.033304,3.5602e-10,7564.1,54.414,0,0,0,0,0.0056726,0
7265.1,54.424,19.204,-2.0531e-07,-0.033069,3.5348e-10,7564.1,54.414,0,0,0,0,0.0057018,0
7265.1,54.424,19.204,-2.0531e-07,-0.033069,3.5348e-10,7564.1,54.414,0,0,0,0,0.0057018,0
7265.1,54.424,19.204,-2.0531e-07,-0.033069,3.5348e-10,7564.1,54.414,0,0,0,0,0.0057018,0
7265.1,54.424,19.204,-2.0531e-07,-0.033069,3.5348e-10,7564.1,54.414,0,0,0,0,0.0057018,0
7265.1,54.424,19.204,-2.0531e-07,-0.033069,3.5348e-10,7564.1,54.414,0,0,0,0,0.0057018,0
7265.1,54.424,19.204,-2.0531e-07,-0.033069,3.5348e-10,7564.1,54.414,0,0,0,0,0.0057018,0
7265.1,54.424,19.204,-2.0531e-07,-0.033069,3.5348e-10,7564.1,54.414,0,0,0,0,0.0057018,0
7265.1,54.424,19.204,-2.0531e-07,-0.033069,3.5348e-10,7564.1,54.414,0,0,0,0,0.0057018,0
7265.1,54.424,19.204,-2.0531e-07,-0.033069,3.5348e-10,7564.1,54.414,0,0,0,0,0.0057018,0
7265.1,54.424,19.204,-2.0531e-07,-0.033069,3.5348e-10,7564.1,54.414,0,0,0,0,0.0057018,0
7265.1,54.424,19.204,-2.0531e-07,-0.033069,3.5348e-10,7564.1,54.414,0,0,0,0,0.0057018,0
7265.1,54.424,19.204,-2.0531e-07,-0.033069,3.5348e-10,7564.1,54.414,0,0,0,0,0.0057018,0
7265.1,54.424,19.204,-2.0531e-07,-0.033069,3.5348e-10,7564.1,54.414,0,0,0,0,0.0057018,0
7265.1,54.424,19.204,-2.0531e-07,-0.033069,3.5348e-10,7564.1,54.414,0,0,0,0,0.0057018,0
7265.1,54.424,19.204,-2.0531e-07,-0.033069,3.5348e-10,7564.1,54.414,0,0,0,0,0.0057018,0
7265.1,54.424,19.204,-2.0531e-07,-0.033069,3.5348e-10,7564.1,54.414,0,0,0,0,0.0057018,0
7265.1,54.424,19.204,-2.0531e-07,-0.033069,3.5348e-10,7564.1,54.414,0,0,0,0,0.0057018,0
7265.1,54.424,19.204,-2.0531e-07,-0.033069,3.5348e-10,7564.1,54.414,0,0,0,0,0.0057018,0
7267,54.424,19.201,-2.0527e-07,-0.032775,3.5041e-10,7564.1,54.414,0,0,0,0,0.0057386,0
7267,54.424,19.201,-2.0527e-07,-0.032775,3.5041e-10,7564.1,54.414,0,0,0,0,0.0057386,0
7267,54.424,19.201,-2.0527e-07,-0.032775,3.5041e-10,7564.1,54.414,0,0,0,0,0.0057386,0
7267,54.424,19.201,-2.0527e-07,-0.032775,3.5041e-10,7564.1,54.414,0,0,0,0,0.0057386,0
7270.1,54.424,19.196,-2.0522e-07,-0.0323,3.4529e-10,7564.1,54.414,0,0,0,0,0.0057986,0
7270.1,54.424,19.196,-2.0522e-07,-0.0323,3.4529e-10,7564.1,54.414,0,0,0,0,0.0057986,0
7270.1,54.424,19.196,-2.0522e-07,-0.0323,3.4529e-10,7564.1,54.414,0,0,0,0,0.0057986,0
7270.1,54.424,19.196,-2.0522e-07,-0.0323,3.4529e-10,7564.1,54.414,0,0,0,0,0.0057986,0
7270.1,54.424,19.196,-2.0522e-07,-0.0323,3.4529e-10,7564.1,54.414,0,0,0,0,0.0057986,0
7270.1,54.424,19.196,-2.0522e-07,-0.0323,3.4529e-10,7564.1,54.414,0,0,0,0,0.0057986,0
7270.1,54.424,19.196,-2.0522e-07,-0.0323,3.4529e-10,7564.1,54.414,0,0,0,0,0.0057986,0
7270.1,54.424,19.196,-2.0522e-07,-0.0323,3.4529e-10,7564.1,54.414,0,0,0,0,0.0057986,0
7270.1,54.424,19.196,-2.0522e-07,-0.0323,3.4529e-10,7564.1,54.414,0,0,0,0,0.0057986,0
7270.1,54.424,19.196,-2.0522e-07,-0.0323,3.4529e-10,7564.1,54.414,0,0,0,0,0.0057986,0
7270.1,54.424,19.196,-2.0522e-07,-0.0323,3.4529e-10,7564.1,54.414,0,0,0,0,0.0057986,0
7270.1,54.424,19.196,-2.0522e-07,-0.0323,3.4529e-10,7564.1,54.414,0,0,0,0,0.0057986,0
7270.1,54.424,19.196,-2.0522e-07,-0.0323,3.4529e-10,7564.1,54.414,0,0,0,0,0.0057986,0
7270.1,54.424,19.196,-2.0522e-07,-0.0323,3.4529e-10,7564.1,54.414,0,0,0,0,0.0057986,0
7270.1,54.424,19.196,-2.0522e-07,-0.0323,3.4529e-10,7564.1,54.414,0,0,0,0,0.0057986,0
7270.1,54.424,19.196,-2.0522e-07,-0.0323,3.4529e-10,7564.1,54.414,0,0,0,0,0.0057986,0
7271.6,54.424,19.193,-2.0519e-07,-0.032059,3.4265e-10,7564.1,54.414,0,0,0,0,0.005829,0
7272,54.424,19.192,-2.0518e-07,-0.031999,3.4204e-10,7564.1,54.414,0,0,0,0,0.0058367,0
7272.4,54.424,19.192,-2.0518e-07,-0.031939,3.4139e-10,7564.1,54.414,0,0,0,0,0.0058444,0
7272.4,54.424,19.192,-2.0518e-07,-0.031939,3.4139e-10,7564.1,54.414,0,0,0,0,0.0058444,0
7272.8,54.424,19.191,-2.0517e-07,-0.031878,3.4076e-10,7564.1,54.414,0,0,0,0,0.0058521,0
7272.8,54.424,19.191,-2.0517e-07,-0.031878,3.4076e-10,7564.1,54.414,0,0,0,0,0.0058521,0
7272.8,54.424,19.191,-2.0517e-07,-0.031878,3.4076e-10,7564.1,54.414,0,0,0,0,0.0058521,0
7272.8,54.424,19.191,-2.0517e-07,-0.031878,3.4076e-10,7564.1,54.414,0,0,0,0,0.0058521,0
7272.8,54.424,19.191,-2.0517e-07,-0.031878,3.4076e-10,7564.1,54.414,0,0,0,0,0.0058521,0
7272.8,54.424,19.191,-2.0517e-07,-0.031878,3.4076e-10,7564.1,54.414,0,0,0,0,0.0058521,0
7272.8,54.424,19.191,-2.0517e-07,-0.031878,3.4076e-10,7564.1,54.414,0,0,0,0,0.0058521,0
7272.8,54.424,19.191,-2.0517e-07,-0.031878,3.4076e-10,7564.1,54.414,0,0,0,0,0.0058521,0
7274.7,54.424,19.188,-2.0514e-07,-0.031573,3.3753e-10,7564.1,54.414,0,0,0,0,0.0058909,0
7274.7,54.424,19.188,-2.0514e-07,-0.031573,3.3753e-10,7564.1,54.414,0,0,0,0,0.0058909,0
7274.7,54.424,19.188,-2.0514e-07,-0.031573,3.3753e-10,7564.1,54.414,0,0,0,0,0.0058909,0
7275.1,54.424,19.187,-2.0513e-07,-0.031512,3.3688e-10,7564.1,54.414,0,0,0,0,0.0058987,0
7275.1,54.424,19.187,-2.0513e-07,-0.031512,3.3688e-10,7564.1,54.414,0,0,0,0,0.0058987,0
7275.1,54.424,19.187,-2.0513e-07,-0.031512,3.3688e-10,7564.1,54.414,0,0,0,0,0.0058987,0
7275.1,54.424,19.187,-2.0513e-07,-0.031512,3.3688e-10,7564.1,54.414,0,0,0,0,0.0058987,0
7275.1,54.424,19.187,-2.0513e-07,-0.031512,3.3688e-10,7564.1,54.414,0,0,0,0,0.0058987,0
7275.1,54.424,19.187,-2.0513e-07,-0.031512,3.3688e-10,7564.1,54.414,0,0,0,0,0.0058987,0
7275.1,54.424,19.187,-2.0513e-07,-0.031512,3.3688e-10,7564.1,54.414,0,0,0,0,0.0058987,0
7275.1,54.424,19.187,-2.0513e-07,-0.031512,3.3688e-10,7564.1,54.414,0,0,0,0,0.0058987,0
7275.1,54.424,19.187,-2.0513e-07,-0.031512,3.3688e-10,7564.1,54.414,0,0,0,0,0.0058987,0
7275.1,54.424,19.187,-2.0513e-07,-0.031512,3.3688e-10,7564.1,54.414,0,0,0,0,0.0058987,0
7276.6,54.424,19.185,-2.051e-07,-0.031268,3.3427e-10,7564.1,54.414,0,0,0,0,0.0059302,0
7276.6,54.424,19.185,-2.051e-07,-0.031268,3.3427e-10,7564.1,54.414,0,0,0,0,0.0059302,0
7276.6,54.424,19.185,-2.051e-07,-0.031268,3.3427e-10,7564.1,54.414,0,0,0,0,0.0059302,0
7277,54.424,19.184,-2.0509e-07,-0.031205,3.336e-10,7564.1,54.414,0,0,0,0,0.0059381,0
7277.4,54.424,19.184,-2.0509e-07,-0.031144,3.3297e-10,7564.1,54.414,0,0,0,0,0.005946,0
7278.9,54.424,19.181,-2.0506e-07,-0.030894,3.3032e-10,7564.1,54.414,0,0,0,0,0.005978,0
7279.3,54.424,19.18,-2.0506e-07,-0.030831,3.2963e-10,7564.1,54.414,0,0,0,0,0.0059861,0
7279.3,54.424,19.18,-2.0506e-07,-0.030831,3.2963e-10,7564.1,54.414,0,0,0,0,0.0059861,0
7279.3,54.424,19.18,-2.0506e-07,-0.030831,3.2963e-10,7564.1,54.414,0,0,0,0,0.0059861,0
7279.3,54.424,19.18,-2.0506e-07,-0.030831,3.2963e-10,7564.1,54.414,0,0,0,0,0.0059861,0
7279.3,54.424,19.18,-2.0506e-07,-0.030831,3.2963e-10,7564.1,54.414,0,0,0,0,0.0059861,0
7279.3,54.424,19.18,-2.0506e-07,-0.030831,3.2963e-10,7564.1,54.414,0,0,0,0,0.0059861,0
7279.3,54.424,19.18,-2.0506e-07,-0.030831,3.2963e-10,7564.1,54.414,0,0,0,0,0.0059861,0
7280.1,54.424,19.179,-2.0504e-07,-0.030706,3.2827e-10,7564.1,54.414,0,0,0,0,0.0060022,0
7280.1,54.424,19.179,-2.0504e-07,-0.030706,3.2827e-10,7564.1,54.414,0,0,0,0,0.0060022,0
7280.1,54.424,19.179,-2.0504e-07,-0.030706,3.2827e-10,7564.1,54.414,0,0,0,0,0.0060022,0
7280.1,54.424,19.179,-2.0504e-07,-0.030706,3.2827e-10,7564.1,54.414,0,0,0,0,0.0060022,0
7280.1,54.424,19.179,-2.0504e-07,-0.030706,3.2827e-10,7564.1,54.414,0,0,0,0,0.0060022,0
7280.1,54.424,19.179,-2.0504e-07,-0.030706,3.2827e-10,7564.1,54.414,0,0,0,0,0.0060022,0
7280.1,54.424,19.179,-2.0504e-07,-0.030706,3.2827e-10,7564.1,54.414,0,0,0,0,0.0060022,0
7280.1,54.424,19.179,-2.0504e-07,-0.030706,3.2827e-10,7564.1,54.414,0,0,0,0,0.0060022,0
7280.1,54.424,19.179,-2.0504e-07,-0.030706,3.2827e-10,7564.1,54.414,0,0,0,0,0.0060022,0
7280.1,54.424,19.179,-2.0504e-07,-0.030706,3.2827e-10,7564.1,54.414,0,0,0,0,0.0060022,0
7280.1,54.424,19.179,-2.0504e-07,-0.030706,3.2827e-10,7564.1,54.414,0,0,0,0,0.0060022,0
7280.1,54.424,19.179,-2.0504e-07,-0.030706,3.2827e-10,7564.1,54.414,0,0,0,0,0.0060022,0
7280.1,54.424,19.179,-2.0504e-07,-0.030706,3.2827e-10,7564.1,54.414,0,0,0,0,0.0060022,0
7280.1,54.424,19.179,-2.0504e-07,-0.030706,3.2827e-10,7564.1,54.414,0,0,0,0,0.0060022,0
7280.1,54.424,19.179,-2.0504e-07,-0.030706,3.2827e-10,7564.1,54.414,0,0,0,0,0.0060022,0
7280.1,54.424,19.179,-2.0504e-07,-0.030706,3.2827e-10,7564.1,54.414,0,0,0,0,0.0060022,0
7280.1,54.424,19.179,-2.0504e-07,-0.030706,3.2827e-10,7564.1,54.414,0,0,0,0,0.0060022,0
7280.1,54.424,19.179,-2.0504e-07,-0.030706,3.2827e-10,7564.1,54.414,0,0,0,0,0.0060022,0
7281.6,54.424,19.177,-2.0502e-07,-0.030455,3.2557e-10,7564.1,54.414,0,0,0,0,0.0060348,0
7281.6,54.424,19.177,-2.0502e-07,-0.030455,3.2557e-10,7564.1,54.414,0,0,0,0,0.0060348,0
7281.6,54.424,19.177,-2.0502e-07,-0.030455,3.2557e-10,7564.1,54.414,0,0,0,0,0.0060348,0
7281.6,54.424,19.177,-2.0502e-07,-0.030455,3.2557e-10,7564.1,54.414,0,0,0,0,0.0060348,0
7284.7,54.424,19.172,-2.0496e-07,-0.02995,3.202e-10,7564.1,54.414,0,0,0,0,0.0061011,0
7284.7,54.424,19.172,-2.0496e-07,-0.02995,3.202e-10,7564.1,54.414,0,0,0,0,0.0061011,0
7284.7,54.424,19.172,-2.0496e-07,-0.02995,3.202e-10,7564.1,54.414,0,0,0,0,0.0061011,0
7284.7,54.424,19.172,-2.0496e-07,-0.02995,3.202e-10,7564.1,54.414,0,0,0,0,0.0061011,0
7284.7,54.424,19.172,-2.0496e-07,-0.02995,3.202e-10,7564.1,54.414,0,0,0,0,0.0061011,0
7284.7,54.424,19.172,-2.0496e-07,-0.02995,3.202e-10,7564.1,54.414,0,0,0,0,0.0061011,0
7284.7,54.424,19.172,-2.0496e-07,-0.02995,3.202e-10,7564.1,54.414,0,0,0,0,0.0061011,0
7284.7,54.424,19.172,-2.0496e-07,-0.02995,3.202e-10,7564.1,54.414,0,0,0,0,0.0061011,0
7284.7,54.424,19.172,-2.0496e-07,-0.02995,3.202e-10,7564.1,54.414,0,0,0,0,0.0061011,0
7284.7,54.424,19.172,-2.0496e-07,-0.02995,3.202e-10,7564.1,54.414,0,0,0,0,0.0061011,0
7284.7,54.424,19.172,-2.0496e-07,-0.02995,3.202e-10,7564.1,54.414,0,0,0,0,0.0061011,0
7284.7,54.424,19.172,-2.0496e-07,-0.02995,3.202e-10,7564.1,54.414,0,0,0,0,0.0061011,0
7284.7,54.424,19.172,-2.0496e-07,-0.02995,3.202e-10,7564.1,54.414,0,0,0,0,0.0061011,0
7284.7,54.424,19.172,-2.0496e-07,-0.02995,3.202e-10,7564.1,54.414,0,0,0,0,0.0061011,0
7284.7,54.424,19.172,-2.0496e-07,-0.02995,3.202e-10,7564.1,54.414,0,0,0,0,0.0061011,0
7286.2,54.424,19.17,-2.0494e-07,-0.029696,3.1756e-10,7564.1,54.414,0,0,0,0,0.0061348,0
7286.6,54.424,19.169,-2.0493e-07,-0.029633,3.1684e-10,7564.1,54.414,0,0,0,0,0.0061432,0
7286.6,54.424,19.169,-2.0493e-07,-0.029633,3.1684e-10,7564.1,54.414,0,0,0,0,0.0061432,0
7287,54.424,19.168,-2.0493e-07,-0.029568,3.1615e-10,7564.1,54.414,0,0,0,0,0.0061517,0
7287.4,54.424,19.168,-2.0492e-07,-0.029504,3.155e-10,7564.1,54.414,0,0,0,0,0.0061603,0
7288.9,54.424,19.165,-2.0489e-07,-0.029247,3.1272e-10,7564.1,54.414,0,0,0,0,0.0061946,0
7288.9,54.424,19.165,-2.0489e-07,-0.029247,3.1272e-10,7564.1,54.414,0,0,0,0,0.0061946,0
7288.9,54.424,19.165,-2.0489e-07,-0.029247,3.1272e-10,7564.1,54.414,0,0,0,0,0.0061946,0
7289.3,54.424,19.165,-2.0489e-07,-0.029182,3.12e-10,7564.1,54.414,0,0,0,0,0.0062032,0
7289.3,54.424,19.165,-2.0489e-07,-0.029182,3.12e-10,7564.1,54.414,0,0,0,0,0.0062032,0
7289.3,54.424,19.165,-2.0489e-07,-0.029182,3.12e-10,7564.1,54.414,0,0,0,0,0.0062032,0
7289.3,54.424,19.165,-2.0489e-07,-0.029182,3.12e-10,7564.1,54.414,0,0,0,0,0.0062032,0
7289.3,54.424,19.165,-2.0489e-07,-0.029182,3.12e-10,7564.1,54.414,0,0,0,0,0.0062032,0
7289.3,54.424,19.165,-2.0489e-07,-0.029182,3.12e-10,7564.1,54.414,0,0,0,0,0.0062032,0
7289.3,54.424,19.165,-2.0489e-07,-0.029182,3.12e-10,7564.1,54.414,0,0,0,0,0.0062032,0
7289.3,54.424,19.165,-2.0489e-07,-0.029182,3.12e-10,7564.1,54.414,0,0,0,0,0.0062032,0
7289.3,54.424,19.165,-2.0489e-07,-0.029182,3.12e-10,7564.1,54.414,0,0,0,0,0.0062032,0
7289.3,54.424,19.165,-2.0489e-07,-0.029182,3.12e-10,7564.1,54.414,0,0,0,0,0.0062032,0
7289.3,54.424,19.165,-2.0489e-07,-0.029182,3.12e-10,7564.1,54.414,0,0,0,0,0.0062032,0
7289.3,54.424,19.165,-2.0489e-07,-0.029182,3.12e-10,7564.1,54.414,0,0,0,0,0.0062032,0
7289.3,54.424,19.165,-2.0489e-07,-0.029182,3.12e-10,7564.1,54.414,0,0,0,0,0.0062032,0
7289.3,54.424,19.165,-2.0489e-07,-0.029182,3.12e-10,7564.1,54.414,0,0,0,0,0.0062032,0
7289.3,54.424,19.165,-2.0489e-07,-0.029182,3.12e-10,7564.1,54.414,0,0,0,0,0.0062032,0
7289.3,54.424,19.165,-2.0489e-07,-0.029182,3.12e-10,7564.1,54.414,0,0,0,0,0.0062032,0
7289.3,54.424,19.165,-2.0489e-07,-0.029182,3.12e-10,7564.1,54.414,0,0,0,0,0.0062032,0
7289.3,54.424,19.165,-2.0489e-07,-0.029182,3.12e-10,7564.1,54.414,0,0,0,0,0.0062032,0
7289.3,54.424,19.165,-2.0489e-07,-0.029182,3.12e-10,7564.1,54.414,0,0,0,0,0.0062032,0
7291.2,54.424,19.162,-2.0486e-07,-0.028858,3.0853e-10,7564.1,54.414,0,0,0,0,0.0062468,0
7292,54.424,19.161,-2.0484e-07,-0.028726,3.0714e-10,7564.1,54.414,0,0,0,0,0.0062644,0
7293.5,54.424,19.158,-2.0482e-07,-0.028464,3.0432e-10,7564.1,54.414,0,0,0,0,0.0062998,0
7293.5,54.424,19.158,-2.0482e-07,-0.028464,3.0432e-10,7564.1,54.414,0,0,0,0,0.0062998,0
7293.5,54.424,19.158,-2.0482e-07,-0.028464,3.0432e-10,7564.1,54.414,0,0,0,0,0.0062998,0
7293.5,54.424,19.158,-2.0482e-07,-0.028464,3.0432e-10,7564.1,54.414,0,0,0,0,0.0062998,0
7293.5,54.424,19.158,-2.0482e-07,-0.028464,3.0432e-10,7564.1,54.414,0,0,0,0,0.0062998,0
7293.5,54.424,19.158,-2.0482e-07,-0.028464,3.0432e-10,7564.1,54.414,0,0,0,0,0.0062998,0
7293.5,54.424,19.158,-2.0482e-07,-0.028464,3.0432e-10,7564.1,54.414,0,0,0,0,0.0062998,0
7293.5,54.424,19.158,-2.0482e-07,-0.028464,3.0432e-10,7564.1,54.414,0,0,0,0,0.0062998,0
7293.5,54.424,19.158,-2.0482e-07,-0.028464,3.0432e-10,7564.1,54.414,0,0,0,0,0.0062998,0
7293.5,54.424,19.158,-2.0482e-07,-0.028464,3.0432e-10,7564.1,54.414,0,0,0,0,0.0062998,0
7293.5,54.424,19.158,-2.0482e-07,-0.028464,3.0432e-10,7564.1,54.414,0,0,0,0,0.0062998,0
7293.5,54.424,19.158,-2.0482e-07,-0.028464,3.0432e-10,7564.1,54.414,0,0,0,0,0.0062998,0
7294.3,54.424,19.157,-2.0481e-07,-0.028333,3.0294e-10,7564.1,54.414,0,0,0,0,0.0063177,0
7294.3,54.424,19.157,-2.0481e-07,-0.028333,3.0294e-10,7564.1,54.414,0,0,0,0,0.0063177,0
7294.3,54.424,19.157,-2.0481e-07,-0.028333,3.0294e-10,7564.1,54.414,0,0,0,0,0.0063177,0
7294.3,54.424,19.157,-2.0481e-07,-0.028333,3.0294e-10,7564.1,54.414,0,0,0,0,0.0063177,0
7294.3,54.424,19.157,-2.0481e-07,-0.028333,3.0294e-10,7564.1,54.414,0,0,0,0,0.0063177,0
7294.3,54.424,19.157,-2.0481e-07,-0.028333,3.0294e-10,7564.1,54.414,0,0,0,0,0.0063177,0
7294.3,54.424,19.157,-2.0481e-07,-0.028333,3.0294e-10,7564.1,54.414,0,0,0,0,0.0063177,0
7294.3,54.424,19.157,-2.0481e-07,-0.028333,3.0294e-10,7564.1,54.414,0,0,0,0,0.0063177,0
7295,54.424,19.156,-2.048e-07,-0.028203,3.0145e-10,7564.1,54.414,0,0,0,0,0.0063357,0
7295.8,54.424,19.155,-2.0478e-07,-0.02807,3.0012e-10,7564.1,54.414,0,0,0,0,0.0063538,0
7295.8,54.424,19.155,-2.0478e-07,-0.02807,3.0012e-10,7564.1,54.414,0,0,0,0,0.0063538,0
7295.8,54.424,19.155,-2.0478e-07,-0.02807,3.0012e-10,7564.1,54.414,0,0,0,0,0.0063538,0
7298.1,54.424,19.152,-2.0475e-07,-0.027671,2.9578e-10,7564.1,54.414,0,0,0,0,0.0064087,0
7298.1,54.424,19.152,-2.0475e-07,-0.027671,2.9578e-10,7564.1,54.414,0,0,0,0,0.0064087,0
7298.1,54.424,19.152,-2.0475e-07,-0.027671,2.9578e-10,7564.1,54.414,0,0,0,0,0.0064087,0
7298.1,54.424,19.152,-2.0475e-07,-0.027671,2.9578e-10,7564.1,54.414,0,0,0,0,0.0064087,0
7298.1,54.424,19.152,-2.0475e-07,-0.027671,2.9578e-10,7564.1,54.414,0,0,0,0,0.0064087,0
7298.1,54.424,19.152,-2.0475e-07,-0.027671,2.9578e-10,7564.1,54.414,0,0,0,0,0.0064087,0
7298.1,54.424,19.152,-2.0475e-07,-0.027671,2.9578e-10,7564.1,54.414,0,0,0,0,0.0064087,0
7298.1,54.424,19.152,-2.0475e-07,-0.027671,2.9578e-10,7564.1,54.414,0,0,0,0,0.0064087,0
7298.1,54.424,19.152,-2.0475e-07,-0.027671,2.9578e-10,7564.1,54.414,0,0,0,0,0.0064087,0
7298.1,54.424,19.152,-2.0475e-07,-0.027671,2.9578e-10,7564.1,54.414,0,0,0,0,0.0064087,0
7298.1,54.424,19.152,-2.0475e-07,-0.027671,2.9578e-10,7564.1,54.414,0,0,0,0,0.0064087,0
7298.1,54.424,19.152,-2.0475e-07,-0.027671,2.9578e-10,7564.1,54.414,0,0,0,0,0.0064087,0
7298.1,54.424,19.152,-2.0475e-07,-0.027671,2.9578e-10,7564.1,54.414,0,0,0,0,0.0064087,0
7298.1,54.424,19.152,-2.0475e-07,-0.027671,2.9578e-10,7564.1,54.414,0,0,0,0,0.0064087,0
7298.1,54.424,19.152,-2.0475e-07,-0.027671,2.9578e-10,7564.1,54.414,0,0,0,0,0.0064087,0
7298.1,54.424,19.152,-2.0475e-07,-0.027671,2.9578e-10,7564.1,54.414,0,0,0,0,0.0064087,0
7298.1,54.424,19.152,-2.0475e-07,-0.027671,2.9578e-10,7564.1,54.414,0,0,0,0,0.0064087,0
7298.1,54.424,19.152,-2.0475e-07,-0.027671,2.9578e-10,7564.1,54.414,0,0,0,0,0.0064087,0
7298.9,54.424,19.151,-2.0474e-07,-0.027539,2.9445e-10,7564.1,54.414,0,0,0,0,0.0064272,0
7298.9,54.424,19.151,-2.0474e-07,-0.027539,2.9445e-10,7564.1,54.414,0,0,0,0,0.0064272,0
7298.9,54.424,19.151,-2.0474e-07,-0.027539,2.9445e-10,7564.1,54.414,0,0,0,0,0.0064272,0
7298.9,54.424,19.151,-2.0474e-07,-0.027539,2.9445e-10,7564.1,54.414,0,0,0,0,0.0064272,0
7298.9,54.424,19.151,-2.0474e-07,-0.027539,2.9445e-10,7564.1,54.414,0,0,0,0,0.0064272,0
7298.9,54.424,19.151,-2.0474e-07,-0.027539,2.9445e-10,7564.1,54.414,0,0,0,0,0.0064272,0
7298.9,54.424,19.151,-2.0474e-07,-0.027539,2.9445e-10,7564.1,54.414,0,0,0,0,0.0064272,0
7299.6,54.424,19.15,-2.0472e-07,-0.027405,2.9294e-10,7564.1,54.414,0,0,0,0,0.0064458,0
7299.6,54.424,19.15,-2.0472e-07,-0.027405,2.9294e-10,7564.1,54.414,0,0,0,0,0.0064458,0
7299.6,54.424,19.15,-2.0472e-07,-0.027405,2.9294e-10,7564.1,54.414,0,0,0,0,0.0064458,0
7302.3,54.424,19.146,-2.0468e-07,-0.026934,2.8787e-10,7564.1,54.414,0,0,0,0,0.0065118,0
7303.1,54.424,19.145,-2.0467e-07,-0.026799,2.8652e-10,7564.1,54.414,0,0,0,0,0.0065309,0
7303.8,54.424,19.144,-2.0466e-07,-0.026664,2.8507e-10,7564.1,54.414,0,0,0,0,0.0065501,0
7303.8,54.424,19.144,-2.0466e-07,-0.026664,2.8507e-10,7564.1,54.414,0,0,0,0,0.0065501,0
7303.8,54.424,19.144,-2.0466e-07,-0.026664,2.8507e-10,7564.1,54.414,0,0,0,0,0.0065501,0
7304.2,54.424,19.143,-2.0466e-07,-0.026595,2.8432e-10,7564.1,54.414,0,0,0,0,0.0065598,0
7304.2,54.424,19.143,-2.0466e-07,-0.026595,2.8432e-10,7564.1,54.414,0,0,0,0,0.0065598,0
7304.2,54.424,19.143,-2.0466e-07,-0.026595,2.8432e-10,7564.1,54.414,0,0,0,0,0.0065598,0
7304.2,54.424,19.143,-2.0466e-07,-0.026595,2.8432e-10,7564.1,54.414,0,0,0,0,0.0065598,0
7304.2,54.424,19.143,-2.0466e-07,-0.026595,2.8432e-10,7564.1,54.414,0,0,0,0,0.0065598,0
7304.2,54.424,19.143,-2.0466e-07,-0.026595,2.8432e-10,7564.1,54.414,0,0,0,0,0.0065598,0
7304.2,54.424,19.143,-2.0466e-07,-0.026595,2.8432e-10,7564.1,54.414,0,0,0,0,0.0065598,0
7304.2,54.424,19.143,-2.0466e-07,-0.026595,2.8432e-10,7564.1,54.414,0,0,0,0,0.0065598,0
7304.2,54.424,19.143,-2.0466e-07,-0.026595,2.8432e-10,7564.1,54.414,0,0,0,0,0.0065598,0
7304.2,54.424,19.143,-2.0466e-07,-0.026595,2.8432e-10,7564.1,54.414,0,0,0,0,0.0065598,0
7304.2,54.424,19.143,-2.0466e-07,-0.026595,2.8432e-10,7564.1,54.414,0,0,0,0,0.0065598,0
7304.2,54.424,19.143,-2.0466e-07,-0.026595,2.8432e-10,7564.1,54.414,0,0,0,0,0.0065598,0
7304.2,54.424,19.143,-2.0466e-07,-0.026595,2.8432e-10,7564.1,54.414,0,0,0,0,0.0065598,0
7304.2,54.424,19.143,-2.0466e-07,-0.026595,2.8432e-10,7564.1,54.414,0,0,0,0,0.0065598,0
7304.2,54.424,19.143,-2.0466e-07,-0.026595,2.8432e-10,7564.1,54.414,0,0,0,0,0.0065598,0
7304.2,54.424,19.143,-2.0466e-07,-0.026595,2.8432e-10,7564.1,54.414,0,0,0,0,0.0065598,0
7304.2,54.424,19.143,-2.0466e-07,-0.026595,2.8432e-10,7564.1,54.414,0,0,0,0,0.0065598,0
7304.2,54.424,19.143,-2.0466e-07,-0.026595,2.8432e-10,7564.1,54.414,0,0,0,0,0.0065598,0
7304.2,54.424,19.143,-2.0466e-07,-0.026595,2.8432e-10,7564.1,54.414,0,0,0,0,0.0065598,0
7306.1,54.424,19.14,-2.0463e-07,-0.026253,2.806e-10,7564.1,54.414,0,0,0,0,0.0066084,0
7307.3,54.424,19.139,-2.0461e-07,-0.026047,2.7838e-10,7564.1,54.414,0,0,0,0,0.006638,0
7307.3,54.424,19.139,-2.0461e-07,-0.026047,2.7838e-10,7564.1,54.414,0,0,0,0,0.006638,0
7307.3,54.424,19.139,-2.0461e-07,-0.026047,2.7838e-10,7564.1,54.414,0,0,0,0,0.006638,0
7307.3,54.424,19.139,-2.0461e-07,-0.026047,2.7838e-10,7564.1,54.414,0,0,0,0,0.006638,0
7307.3,54.424,19.139,-2.0461e-07,-0.026047,2.7838e-10,7564.1,54.414,0,0,0,0,0.006638,0
7307.3,54.424,19.139,-2.0461e-07,-0.026047,2.7838e-10,7564.1,54.414,0,0,0,0,0.006638,0
7307.3,54.424,19.139,-2.0461e-07,-0.026047,2.7838e-10,7564.1,54.414,0,0,0,0,0.006638,0
7307.3,54.424,19.139,-2.0461e-07,-0.026047,2.7838e-10,7564.1,54.414,0,0,0,0,0.006638,0
7307.3,54.424,19.139,-2.0461e-07,-0.026047,2.7838e-10,7564.1,54.414,0,0,0,0,0.006638,0
7307.3,54.424,19.139,-2.0461e-07,-0.026047,2.7838e-10,7564.1,54.414,0,0,0,0,0.006638,0
7307.3,54.424,19.139,-2.0461e-07,-0.026047,2.7838e-10,7564.1,54.414,0,0,0,0,0.006638,0
7307.3,54.424,19.139,-2.0461e-07,-0.026047,2.7838e-10,7564.1,54.414,0,0,0,0,0.006638,0
7309.2,54.424,19.136,-2.0458e-07,-0.025705,2.747e-10,7564.1,54.414,0,0,0,0,0.0066878,0
7309.2,54.424,19.136,-2.0458e-07,-0.025705,2.747e-10,7564.1,54.414,0,0,0,0,0.0066878,0
7309.2,54.424,19.136,-2.0458e-07,-0.025705,2.747e-10,7564.1,54.414,0,0,0,0,0.0066878,0
7309.2,54.424,19.136,-2.0458e-07,-0.025705,2.747e-10,7564.1,54.414,0,0,0,0,0.0066878,0
7309.2,54.424,19.136,-2.0458e-07,-0.025705,2.747e-10,7564.1,54.414,0,0,0,0,0.0066878,0
7309.2,54.424,19.136,-2.0458e-07,-0.025705,2.747e-10,7564.1,54.414,0,0,0,0,0.0066878,0
7309.2,54.424,19.136,-2.0458e-07,-0.025705,2.747e-10,7564.1,54.414,0,0,0,0,0.0066878,0
7309.2,54.424,19.136,-2.0458e-07,-0.025705,2.747e-10,7564.1,54.414,0,0,0,0,0.0066878,0
7309.2,54.424,19.136,-2.0458e-07,-0.025705,2.747e-10,7564.1,54.414,0,0,0,0,0.0066878,0
7309.2,54.424,19.136,-2.0458e-07,-0.025705,2.747e-10,7564.1,54.414,0,0,0,0,0.0066878,0
7309.2,54.424,19.136,-2.0458e-07,-0.025705,2.747e-10,7564.1,54.414,0,0,0,0,0.0066878,0
7309.2,54.424,19.136,-2.0458e-07,-0.025705,2.747e-10,7564.1,54.414,0,0,0,0,0.0066878,0
7309.2,54.424,19.136,-2.0458e-07,-0.025705,2.747e-10,7564.1,54.414,0,0,0,0,0.0066878,0
7309.2,54.424,19.136,-2.0458e-07,-0.025705,2.747e-10,7564.1,54.414,0,0,0,0,0.0066878,0
7309.2,54.424,19.136,-2.0458e-07,-0.025705,2.747e-10,7564.1,54.414,0,0,0,0,0.0066878,0
7309.2,54.424,19.136,-2.0458e-07,-0.025705,2.747e-10,7564.1,54.414,0,0,0,0,0.0066878,0
7310,54.424,19.135,-2.0457e-07,-0.025565,2.7327e-10,7564.1,54.414,0,0,0,0,0.0067079,0
7311.5,54.424,19.133,-2.0455e-07,-0.025288,2.7033e-10,7564.1,54.414,0,0,0,0,0.0067486,0
7311.5,54.424,19.133,-2.0455e-07,-0.025288,2.7033e-10,7564.1,54.414,0,0,0,0,0.0067486,0
7313,54.424,19.131,-2.0453e-07,-0.025008,2.6736e-10,7564.1,54.414,0,0,0,0,0.0067897,0
7314.2,54.424,19.13,-2.0451e-07,-0.024798,2.6517e-10,7564.1,54.414,0,0,0,0,0.0068209,0
7314.2,54.424,19.13,-2.0451e-07,-0.024798,2.6517e-10,7564.1,54.414,0,0,0,0,0.0068209,0
7314.2,54.424,19.13,-2.0451e-07,-0.024798,2.6517e-10,7564.1,54.414,0,0,0,0,0.0068209,0
7314.2,54.424,19.13,-2.0451e-07,-0.024798,2.6517e-10,7564.1,54.414,0,0,0,0,0.0068209,0
7314.2,54.424,19.13,-2.0451e-07,-0.024798,2.6517e-10,7564.1,54.414,0,0,0,0,0.0068209,0
7314.2,54.424,19.13,-2.0451e-07,-0.024798,2.6517e-10,7564.1,54.414,0,0,0,0,0.0068209,0
7314.2,54.424,19.13,-2.0451e-07,-0.024798,2.6517e-10,7564.1,54.414,0,0,0,0,0.0068209,0
7314.2,54.424,19.13,-2.0451e-07,-0.024798,2.6517e-10,7564.1,54.414,0,0,0,0,0.0068209,0
7314.9,54.424,19.129,-2.045e-07,-0.024659,2.6369e-10,7564.1,54.414,0,0,0,0,0.0068418,0
7314.9,54.424,19.129,-2.045e-07,-0.024659,2.6369e-10,7564.1,54.414,0,0,0,0,0.0068418,0
7314.9,54.424,19.129,-2.045e-07,-0.024659,2.6369e-10,7564.1,54.414,0,0,0,0,0.0068418,0
7314.9,54.424,19.129,-2.045e-07,-0.024659,2.6369e-10,7564.1,54.414,0,0,0,0,0.0068418,0
7314.9,54.424,19.129,-2.045e-07,-0.024659,2.6369e-10,7564.1,54.414,0,0,0,0,0.0068418,0
7314.9,54.424,19.129,-2.045e-07,-0.024659,2.6369e-10,7564.1,54.414,0,0,0,0,0.0068418,0
7314.9,54.424,19.129,-2.045e-07,-0.024659,2.6369e-10,7564.1,54.414,0,0,0,0,0.0068418,0
7314.9,54.424,19.129,-2.045e-07,-0.024659,2.6369e-10,7564.1,54.414,0,0,0,0,0.0068418,0
7314.9,54.424,19.129,-2.045e-07,-0.024659,2.6369e-10,7564.1,54.414,0,0,0,0,0.0068418,0
7314.9,54.424,19.129,-2.045e-07,-0.024659,2.6369e-10,7564.1,54.414,0,0,0,0,0.0068418,0
7314.9,54.424,19.129,-2.045e-07,-0.024659,2.6369e-10,7564.1,54.414,0,0,0,0,0.0068418,0
7314.9,54.424,19.129,-2.045e-07,-0.024659,2.6369e-10,7564.1,54.414,0,0,0,0,0.0068418,0
7314.9,54.424,19.129,-2.045e-07,-0.024659,2.6369e-10,7564.1,54.414,0,0,0,0,0.0068418,0
7314.9,54.424,19.129,-2.045e-07,-0.024659,2.6369e-10,7564.1,54.414,0,0,0,0,0.0068418,0
7314.9,54.424,19.129,-2.045e-07,-0.024659,2.6369e-10,7564.1,54.414,0,0,0,0,0.0068418,0
7314.9,54.424,19.129,-2.045e-07,-0.024659,2.6369e-10,7564.1,54.414,0,0,0,0,0.0068418,0
7314.9,54.424,19.129,-2.045e-07,-0.024659,2.6369e-10,7564.1,54.414,0,0,0,0,0.0068418,0
7316.5,54.424,19.127,-2.0448e-07,-0.024379,2.607e-10,7564.1,54.414,0,0,0,0,0.0068841,0
7318,54.424,19.125,-2.0446e-07,-0.024094,2.5764e-10,7564.1,54.414,0,0,0,0,0.0069269,0
7318.8,54.424,19.124,-2.0445e-07,-0.023952,2.561e-10,7564.1,54.414,0,0,0,0,0.0069485,0
7318.8,54.424,19.124,-2.0445e-07,-0.023952,2.561e-10,7564.1,54.414,0,0,0,0,0.0069485,0
7318.8,54.424,19.124,-2.0445e-07,-0.023952,2.561e-10,7564.1,54.414,0,0,0,0,0.0069485,0
7318.8,54.424,19.124,-2.0445e-07,-0.023952,2.561e-10,7564.1,54.414,0,0,0,0,0.0069485,0
7318.8,54.424,19.124,-2.0445e-07,-0.023952,2.561e-10,7564.1,54.414,0,0,0,0,0.0069485,0
7318.8,54.424,19.124,-2.0445e-07,-0.023952,2.561e-10,7564.1,54.414,0,0,0,0,0.0069485,0
7318.8,54.424,19.124,-2.0445e-07,-0.023952,2.561e-10,7564.1,54.414,0,0,0,0,0.0069485,0
7318.8,54.424,19.124,-2.0445e-07,-0.023952,2.561e-10,7564.1,54.414,0,0,0,0,0.0069485,0
7318.8,54.424,19.124,-2.0445e-07,-0.023952,2.561e-10,7564.1,54.414,0,0,0,0,0.0069485,0
7318.8,54.424,19.124,-2.0445e-07,-0.023952,2.561e-10,7564.1,54.414,0,0,0,0,0.0069485,0
7320.3,54.424,19.122,-2.0443e-07,-0.023667,2.5307e-10,7564.1,54.414,0,0,0,0,0.0069921,0
7320.3,54.424,19.122,-2.0443e-07,-0.023667,2.5307e-10,7564.1,54.414,0,0,0,0,0.0069921,0
7320.3,54.424,19.122,-2.0443e-07,-0.023667,2.5307e-10,7564.1,54.414,0,0,0,0,0.0069921,0
7320.3,54.424,19.122,-2.0443e-07,-0.023667,2.5307e-10,7564.1,54.414,0,0,0,0,0.0069921,0
7320.3,54.424,19.122,-2.0443e-07,-0.023667,2.5307e-10,7564.1,54.414,0,0,0,0,0.0069921,0
7320.3,54.424,19.122,-2.0443e-07,-0.023667,2.5307e-10,7564.1,54.414,0,0,0,0,0.0069921,0
7320.3,54.424,19.122,-2.0443e-07,-0.023667,2.5307e-10,7564.1,54.414,0,0,0,0,0.0069921,0
7320.3,54.424,19.122,-2.0443e-07,-0.023667,2.5307e-10,7564.1,54.414,0,0,0,0,0.0069921,0
7320.3,54.424,19.122,-2.0443e-07,-0.023667,2.5307e-10,7564.1,54.414,0,0,0,0,0.0069921,0
7320.3,54.424,19.122,-2.0443e-07,-0.023667,2.5307e-10,7564.1,54.414,0,0,0,0,0.0069921,0
7320.3,54.424,19.122,-2.0443e-07,-0.023667,2.5307e-10,7564.1,54.414,0,0,0,0,0.0069921,0
7320.3,54.424,19.122,-2.0443e-07,-0.023667,2.5307e-10,7564.1,54.414,0,0,0,0,0.0069921,0
7320.3,54.424,19.122,-2.0443e-07,-0.023667,2.5307e-10,7564.1,54.414,0,0,0,0,0.0069921,0
7320.3,54.424,19.122,-2.0443e-07,-0.023667,2.5307e-10,7564.1,54.414,0,0,0,0,0.0069921,0
7320.3,54.424,19.122,-2.0443e-07,-0.023667,2.5307e-10,7564.1,54.414,0,0,0,0,0.0069921,0
7320.3,54.424,19.122,-2.0443e-07,-0.023667,2.5307e-10,7564.1,54.414,0,0,0,0,0.0069921,0
7320.3,54.424,19.122,-2.0443e-07,-0.023667,2.5307e-10,7564.1,54.414,0,0,0,0,0.0069921,0
7322.2,54.424,19.12,-2.044e-07,-0.02331,2.4923e-10,7564.1,54.414,0,0,0,0,0.0070474,0
7322.6,54.424,19.119,-2.044e-07,-0.023237,2.4836e-10,7564.1,54.414,0,0,0,0,0.0070585,0
7322.6,54.424,19.119,-2.044e-07,-0.023237,2.4836e-10,7564.1,54.414,0,0,0,0,0.0070585,0
7322.6,54.424,19.119,-2.044e-07,-0.023237,2.4836e-10,7564.1,54.414,0,0,0,0,0.0070585,0
7325.3,54.424,19.116,-2.0437e-07,-0.022733,2.4306e-10,7564.1,54.414,0,0,0,0,0.0071376,0
7325.3,54.424,19.116,-2.0437e-07,-0.022733,2.4306e-10,7564.1,54.414,0,0,0,0,0.0071376,0
7325.6,54.424,19.115,-2.0436e-07,-0.02266,2.4225e-10,7564.1,54.414,0,0,0,0,0.007149,0
7325.6,54.424,19.115,-2.0436e-07,-0.02266,2.4225e-10,7564.1,54.414,0,0,0,0,0.007149,0
7325.6,54.424,19.115,-2.0436e-07,-0.02266,2.4225e-10,7564.1,54.414,0,0,0,0,0.007149,0
7325.6,54.424,19.115,-2.0436e-07,-0.02266,2.4225e-10,7564.1,54.414,0,0,0,0,0.007149,0
7325.6,54.424,19.115,-2.0436e-07,-0.02266,2.4225e-10,7564.1,54.414,0,0,0,0,0.007149,0
7325.6,54.424,19.115,-2.0436e-07,-0.02266,2.4225e-10,7564.1,54.414,0,0,0,0,0.007149,0
7325.6,54.424,19.115,-2.0436e-07,-0.02266,2.4225e-10,7564.1,54.414,0,0,0,0,0.007149,0
7325.6,54.424,19.115,-2.0436e-07,-0.02266,2.4225e-10,7564.1,54.414,0,0,0,0,0.007149,0
7325.6,54.424,19.115,-2.0436e-07,-0.02266,2.4225e-10,7564.1,54.414,0,0,0,0,0.007149,0
7325.6,54.424,19.115,-2.0436e-07,-0.02266,2.4225e-10,7564.1,54.414,0,0,0,0,0.007149,0
7325.6,54.424,19.115,-2.0436e-07,-0.02266,2.4225e-10,7564.1,54.414,0,0,0,0,0.007149,0
7325.6,54.424,19.115,-2.0436e-07,-0.02266,2.4225e-10,7564.1,54.414,0,0,0,0,0.007149,0
7325.6,54.424,19.115,-2.0436e-07,-0.02266,2.4225e-10,7564.1,54.414,0,0,0,0,0.007149,0
7325.6,54.424,19.115,-2.0436e-07,-0.02266,2.4225e-10,7564.1,54.414,0,0,0,0,0.007149,0
7325.6,54.424,19.115,-2.0436e-07,-0.02266,2.4225e-10,7564.1,54.414,0,0,0,0,0.007149,0
7325.6,54.424,19.115,-2.0436e-07,-0.02266,2.4225e-10,7564.1,54.414,0,0,0,0,0.007149,0
7326.4,54.424,19.115,-2.0435e-07,-0.022515,2.4063e-10,7564.1,54.414,0,0,0,0,0.007172,0
7326.4,54.424,19.115,-2.0435e-07,-0.022515,2.4063e-10,7564.1,54.414,0,0,0,0,0.007172,0
7326.8,54.424,19.114,-2.0435e-07,-0.022443,2.3996e-10,7564.1,54.414,0,0,0,0,0.0071836,0
7328.3,54.424,19.112,-2.0433e-07,-0.022155,2.3682e-10,7564.1,54.414,0,0,0,0,0.0072302,0
7328.3,54.424,19.112,-2.0433e-07,-0.022155,2.3682e-10,7564.1,54.414,0,0,0,0,0.0072302,0
7329.5,54.424,19.111,-2.0431e-07,-0.021937,2.3449e-10,7564.1,54.414,0,0,0,0,0.0072655,0
7329.5,54.424,19.111,-2.0431e-07,-0.021937,2.3449e-10,7564.1,54.414,0,0,0,0,0.0072655,0
7329.9,54.424,19.111,-2.0431e-07,-0.021864,2.3374e-10,7564.1,54.414,0,0,0,0,0.0072773,0
7329.9,54.424,19.111,-2.0431e-07,-0.021864,2.3374e-10,7564.1,54.414,0,0,0,0,0.0072773,0
7330.2,54.424,19.11,-2.043e-07,-0.021793,2.3294e-10,7564.1,54.414,0,0,0,0,0.0072892,0
7330.2,54.424,19.11,-2.043e-07,-0.021793,2.3294e-10,7564.1,54.414,0,0,0,0,0.0072892,0
7330.2,54.424,19.11,-2.043e-07,-0.021793,2.3294e-10,7564.1,54.414,0,0,0,0,0.0072892,0
7330.2,54.424,19.11,-2.043e-07,-0.021793,2.3294e-10,7564.1,54.414,0,0,0,0,0.0072892,0
7330.2,54.424,19.11,-2.043e-07,-0.021793,2.3294e-10,7564.1,54.414,0,0,0,0,0.0072892,0
7330.2,54.424,19.11,-2.043e-07,-0.021793,2.3294e-10,7564.1,54.414,0,0,0,0,0.0072892,0
7330.6,54.424,19.11,-2.043e-07,-0.021719,2.3217e-10,7564.1,54.414,0,0,0,0,0.0073012,0
7330.6,54.424,19.11,-2.043e-07,-0.021719,2.3217e-10,7564.1,54.414,0,0,0,0,0.0073012,0
7331,54.424,19.109,-2.0429e-07,-0.021645,2.3139e-10,7564.1,54.414,0,0,0,0,0.0073131,0
7331,54.424,19.109,-2.0429e-07,-0.021645,2.3139e-10,7564.1,54.414,0,0,0,0,0.0073131,0
7331.4,54.424,19.109,-2.0429e-07,-0.021573,2.3058e-10,7564.1,54.414,0,0,0,0,0.0073251,0
7331.4,54.424,19.109,-2.0429e-07,-0.021573,2.3058e-10,7564.1,54.414,0,0,0,0,0.0073251,0
7331.8,54.424,19.108,-2.0428e-07,-0.0215,2.2981e-10,7564.1,54.414,0,0,0,0,0.0073372,0
7332.9,54.424,19.107,-2.0427e-07,-0.021279,2.274e-10,7564.1,54.414,0,0,0,0,0.0073736,0
7332.9,54.424,19.107,-2.0427e-07,-0.021279,2.274e-10,7564.1,54.414,0,0,0,0,0.0073736,0
7332.9,54.424,19.107,-2.0427e-07,-0.021279,2.274e-10,7564.1,54.414,0,0,0,0,0.0073736,0
7333.3,54.424,19.107,-2.0427e-07,-0.021206,2.2661e-10,7564.1,54.414,0,0,0,0,0.0073858,0
7333.7,54.424,19.106,-2.0426e-07,-0.021131,2.258e-10,7564.1,54.414,0,0,0,0,0.007398,0
7333.7,54.424,19.106,-2.0426e-07,-0.021131,2.258e-10,7564.1,54.414,0,0,0,0,0.007398,0
7333.7,54.424,19.106,-2.0426e-07,-0.021131,2.258e-10,7564.1,54.414,0,0,0,0,0.007398,0
7333.7,54.424,19.106,-2.0426e-07,-0.021131,2.258e-10,7564.1,54.414,0,0,0,0,0.007398,0
7333.7,54.424,19.106,-2.0426e-07,-0.021131,2.258e-10,7564.1,54.414,0,0,0,0,0.007398,0
7333.7,54.424,19.106,-2.0426e-07,-0.021131,2.258e-10,7564.1,54.414,0,0,0,0,0.007398,0
7333.7,54.424,19.106,-2.0426e-07,-0.021131,2.258e-10,7564.1,54.414,0,0,0,0,0.007398,0
7333.7,54.424,19.106,-2.0426e-07,-0.021131,2.258e-10,7564.1,54.414,0,0,0,0,0.007398,0
7333.7,54.424,19.106,-2.0426e-07,-0.021131,2.258e-10,7564.1,54.414,0,0,0,0,0.007398,0
7333.7,54.424,19.106,-2.0426e-07,-0.021131,2.258e-10,7564.1,54.414,0,0,0,0,0.007398,0
7333.7,54.424,19.106,-2.0426e-07,-0.021131,2.258e-10,7564.1,54.414,0,0,0,0,0.007398,0
7333.7,54.424,19.106,-2.0426e-07,-0.021131,2.258e-10,7564.1,54.414,0,0,0,0,0.007398,0
7333.7,54.424,19.106,-2.0426e-07,-0.021131,2.258e-10,7564.1,54.414,0,0,0,0,0.007398,0
7333.7,54.424,19.106,-2.0426e-07,-0.021131,2.258e-10,7564.1,54.414,0,0,0,0,0.007398,0
7333.7,54.424,19.106,-2.0426e-07,-0.021131,2.258e-10,7564.1,54.414,0,0,0,0,0.007398,0
7333.7,54.424,19.106,-2.0426e-07,-0.021131,2.258e-10,7564.1,54.414,0,0,0,0,0.007398,0
7333.7,54.424,19.106,-2.0426e-07,-0.021131,2.258e-10,7564.1,54.414,0,0,0,0,0.007398,0
7333.7,54.424,19.106,-2.0426e-07,-0.021131,2.258e-10,7564.1,54.414,0,0,0,0,0.007398,0
7334.8,54.424,19.105,-2.0425e-07,-0.02091,2.2345e-10,7564.1,54.414,0,0,0,0,0.007435,0
7336.3,54.424,19.103,-2.0423e-07,-0.020615,2.2035e-10,7564.1,54.414,0,0,0,0,0.0074849,0
7336.3,54.424,19.103,-2.0423e-07,-0.020615,2.2035e-10,7564.1,54.414,0,0,0,0,0.0074849,0
7336.3,54.424,19.103,-2.0423e-07,-0.020615,2.2035e-10,7564.1,54.414,0,0,0,0,0.0074849,0
7336.3,54.424,19.103,-2.0423e-07,-0.020615,2.2035e-10,7564.1,54.414,0,0,0,0,0.0074849,0
7337.9,54.424,19.102,-2.0421e-07,-0.020317,2.1715e-10,7564.1,54.414,0,0,0,0,0.0075354,0
7337.9,54.424,19.102,-2.0421e-07,-0.020317,2.1715e-10,7564.1,54.414,0,0,0,0,0.0075354,0
7337.9,54.424,19.102,-2.0421e-07,-0.020317,2.1715e-10,7564.1,54.414,0,0,0,0,0.0075354,0
7337.9,54.424,19.102,-2.0421e-07,-0.020317,2.1715e-10,7564.1,54.414,0,0,0,0,0.0075354,0
7337.9,54.424,19.102,-2.0421e-07,-0.020317,2.1715e-10,7564.1,54.414,0,0,0,0,0.0075354,0
7337.9,54.424,19.102,-2.0421e-07,-0.020317,2.1715e-10,7564.1,54.414,0,0,0,0,0.0075354,0
7337.9,54.424,19.102,-2.0421e-07,-0.020317,2.1715e-10,7564.1,54.414,0,0,0,0,0.0075354,0
7337.9,54.424,19.102,-2.0421e-07,-0.020317,2.1715e-10,7564.1,54.414,0,0,0,0,0.0075354,0
7337.9,54.424,19.102,-2.0421e-07,-0.020317,2.1715e-10,7564.1,54.414,0,0,0,0,0.0075354,0
7337.9,54.424,19.102,-2.0421e-07,-0.020317,2.1715e-10,7564.1,54.414,0,0,0,0,0.0075354,0
7337.9,54.424,19.102,-2.0421e-07,-0.020317,2.1715e-10,7564.1,54.414,0,0,0,0,0.0075354,0
7337.9,54.424,19.102,-2.0421e-07,-0.020317,2.1715e-10,7564.1,54.414,0,0,0,0,0.0075354,0
7337.9,54.424,19.102,-2.0421e-07,-0.020317,2.1715e-10,7564.1,54.414,0,0,0,0,0.0075354,0
7337.9,54.424,19.102,-2.0421e-07,-0.020317,2.1715e-10,7564.1,54.414,0,0,0,0,0.0075354,0
7337.9,54.424,19.102,-2.0421e-07,-0.020317,2.1715e-10,7564.1,54.414,0,0,0,0,0.0075354,0
7339.4,54.424,19.1,-2.042e-07,-0.020021,2.1399e-10,7564.1,54.414,0,0,0,0,0.0075867,0
7339.4,54.424,19.1,-2.042e-07,-0.020021,2.1399e-10,7564.1,54.414,0,0,0,0,0.0075867,0
7339.8,54.424,19.1,-2.0419e-07,-0.019946,2.1321e-10,7564.1,54.414,0,0,0,0,0.0075996,0
7340.2,54.424,19.099,-2.0419e-07,-0.019873,2.1243e-10,7564.1,54.414,0,0,0,0,0.0076126,0
7340.2,54.424,19.099,-2.0419e-07,-0.019873,2.1243e-10,7564.1,54.414,0,0,0,0,0.0076126,0
7340.6,54.424,19.099,-2.0418e-07,-0.019797,2.1163e-10,7564.1,54.414,0,0,0,0,0.0076256,0
7342.1,54.424,19.097,-2.0417e-07,-0.019499,2.0844e-10,7564.1,54.414,0,0,0,0,0.007678,0
7342.1,54.424,19.097,-2.0417e-07,-0.019499,2.0844e-10,7564.1,54.414,0,0,0,0,0.007678,0
7342.5,54.424,19.097,-2.0416e-07,-0.019423,2.0762e-10,7564.1,54.414,0,0,0,0,0.0076913,0
7342.5,54.424,19.097,-2.0416e-07,-0.019423,2.0762e-10,7564.1,54.414,0,0,0,0,0.0076913,0
7342.8,54.424,19.097,-2.0416e-07,-0.019347,2.068e-10,7564.1,54.414,0,0,0,0,0.0077045,0
7342.8,54.424,19.097,-2.0416e-07,-0.019347,2.068e-10,7564.1,54.414,0,0,0,0,0.0077045,0
7342.8,54.424,19.097,-2.0416e-07,-0.019347,2.068e-10,7564.1,54.414,0,0,0,0,0.0077045,0
7342.8,54.424,19.097,-2.0416e-07,-0.019347,2.068e-10,7564.1,54.414,0,0,0,0,0.0077045,0
7342.8,54.424,19.097,-2.0416e-07,-0.019347,2.068e-10,7564.1,54.414,0,0,0,0,0.0077045,0
7342.8,54.424,19.097,-2.0416e-07,-0.019347,2.068e-10,7564.1,54.414,0,0,0,0,0.0077045,0
7342.8,54.424,19.097,-2.0416e-07,-0.019347,2.068e-10,7564.1,54.414,0,0,0,0,0.0077045,0
7342.8,54.424,19.097,-2.0416e-07,-0.019347,2.068e-10,7564.1,54.414,0,0,0,0,0.0077045,0
7342.8,54.424,19.097,-2.0416e-07,-0.019347,2.068e-10,7564.1,54.414,0,0,0,0,0.0077045,0
7342.8,54.424,19.097,-2.0416e-07,-0.019347,2.068e-10,7564.1,54.414,0,0,0,0,0.0077045,0
7342.8,54.424,19.097,-2.0416e-07,-0.019347,2.068e-10,7564.1,54.414,0,0,0,0,0.0077045,0
7342.8,54.424,19.097,-2.0416e-07,-0.019347,2.068e-10,7564.1,54.414,0,0,0,0,0.0077045,0
7342.8,54.424,19.097,-2.0416e-07,-0.019347,2.068e-10,7564.1,54.414,0,0,0,0,0.0077045,0
7342.8,54.424,19.097,-2.0416e-07,-0.019347,2.068e-10,7564.1,54.414,0,0,0,0,0.0077045,0
7342.8,54.424,19.097,-2.0416e-07,-0.019347,2.068e-10,7564.1,54.414,0,0,0,0,0.0077045,0
7342.8,54.424,19.097,-2.0416e-07,-0.019347,2.068e-10,7564.1,54.414,0,0,0,0,0.0077045,0
7342.8,54.424,19.097,-2.0416e-07,-0.019347,2.068e-10,7564.1,54.414,0,0,0,0,0.0077045,0
7342.8,54.424,19.097,-2.0416e-07,-0.019347,2.068e-10,7564.1,54.414,0,0,0,0,0.0077045,0
7342.8,54.424,19.097,-2.0416e-07,-0.019347,2.068e-10,7564.1,54.414,0,0,0,0,0.0077045,0
7342.8,54.424,19.097,-2.0416e-07,-0.019347,2.068e-10,7564.1,54.414,0,0,0,0,0.0077045,0
7342.8,54.424,19.097,-2.0416e-07,-0.019347,2.068e-10,7564.1,54.414,0,0,0,0,0.0077045,0
7345.1,54.424,19.094,-2.0413e-07,-0.018898,2.0205e-10,7564.1,54.414,0,0,0,0,0.0077851,0
7345.5,54.424,19.094,-2.0413e-07,-0.018823,2.0122e-10,7564.1,54.414,0,0,0,0,0.0077987,0
7345.5,54.424,19.094,-2.0413e-07,-0.018823,2.0122e-10,7564.1,54.414,0,0,0,0,0.0077987,0
7347,54.424,19.092,-2.0411e-07,-0.01852,1.98e-10,7564.1,54.414,0,0,0,0,0.0078536,0
7347.8,54.424,19.092,-2.0411e-07,-0.018368,1.9643e-10,7564.1,54.414,0,0,0,0,0.0078813,0
7347.8,54.424,19.092,-2.0411e-07,-0.018368,1.9643e-10,7564.1,54.414,0,0,0,0,0.0078813,0
7347.8,54.424,19.092,-2.0411e-07,-0.018368,1.9643e-10,7564.1,54.414,0,0,0,0,0.0078813,0
7347.8,54.424,19.092,-2.0411e-07,-0.018368,1.9643e-10,7564.1,54.414,0,0,0,0,0.0078813,0
7347.8,54.424,19.092,-2.0411e-07,-0.018368,1.9643e-10,7564.1,54.414,0,0,0,0,0.0078813,0
7347.8,54.424,19.092,-2.0411e-07,-0.018368,1.9643e-10,7564.1,54.414,0,0,0,0,0.0078813,0
7347.8,54.424,19.092,-2.0411e-07,-0.018368,1.9643e-10,7564.1,54.414,0,0,0,0,0.0078813,0
7347.8,54.424,19.092,-2.0411e-07,-0.018368,1.9643e-10,7564.1,54.414,0,0,0,0,0.0078813,0
7347.8,54.424,19.092,-2.0411e-07,-0.018368,1.9643e-10,7564.1,54.414,0,0,0,0,0.0078813,0
7347.8,54.424,19.092,-2.0411e-07,-0.018368,1.9643e-10,7564.1,54.414,0,0,0,0,0.0078813,0
7347.8,54.424,19.092,-2.0411e-07,-0.018368,1.9643e-10,7564.1,54.414,0,0,0,0,0.0078813,0
7347.8,54.424,19.092,-2.0411e-07,-0.018368,1.9643e-10,7564.1,54.414,0,0,0,0,0.0078813,0
7347.8,54.424,19.092,-2.0411e-07,-0.018368,1.9643e-10,7564.1,54.414,0,0,0,0,0.0078813,0
7347.8,54.424,19.092,-2.0411e-07,-0.018368,1.9643e-10,7564.1,54.414,0,0,0,0,0.0078813,0
7348.6,54.424,19.091,-2.041e-07,-0.018216,1.9476e-10,7564.1,54.414,0,0,0,0,0.0079093,0
7348.6,54.424,19.091,-2.041e-07,-0.018216,1.9476e-10,7564.1,54.414,0,0,0,0,0.0079093,0
7348.6,54.424,19.091,-2.041e-07,-0.018216,1.9476e-10,7564.1,54.414,0,0,0,0,0.0079093,0
7348.6,54.424,19.091,-2.041e-07,-0.018216,1.9476e-10,7564.1,54.414,0,0,0,0,0.0079093,0
7348.6,54.424,19.091,-2.041e-07,-0.018216,1.9476e-10,7564.1,54.414,0,0,0,0,0.0079093,0
7348.6,54.424,19.091,-2.041e-07,-0.018216,1.9476e-10,7564.1,54.414,0,0,0,0,0.0079093,0
7348.6,54.424,19.091,-2.041e-07,-0.018216,1.9476e-10,7564.1,54.414,0,0,0,0,0.0079093,0
7348.6,54.424,19.091,-2.041e-07,-0.018216,1.9476e-10,7564.1,54.414,0,0,0,0,0.0079093,0
7350.1,54.424,19.089,-2.0408e-07,-0.017912,1.9147e-10,7564.1,54.414,0,0,0,0,0.0079657,0
7350.1,54.424,19.089,-2.0408e-07,-0.017912,1.9147e-10,7564.1,54.414,0,0,0,0,0.0079657,0
7350.1,54.424,19.089,-2.0408e-07,-0.017912,1.9147e-10,7564.1,54.414,0,0,0,0,0.0079657,0
7350.9,54.424,19.089,-2.0407e-07,-0.01776,1.8985e-10,7564.1,54.414,0,0,0,0,0.0079942,0
7350.9,54.424,19.089,-2.0407e-07,-0.01776,1.8985e-10,7564.1,54.414,0,0,0,0,0.0079942,0
7350.9,54.424,19.089,-2.0407e-07,-0.01776,1.8985e-10,7564.1,54.414,0,0,0,0,0.0079942,0
7352.4,54.424,19.087,-2.0406e-07,-0.017455,1.8658e-10,7564.1,54.414,0,0,0,0,0.0080519,0
7352.4,54.424,19.087,-2.0406e-07,-0.017455,1.8658e-10,7564.1,54.414,0,0,0,0,0.0080519,0
7352.4,54.424,19.087,-2.0406e-07,-0.017455,1.8658e-10,7564.1,54.414,0,0,0,0,0.0080519,0
7352.4,54.424,19.087,-2.0406e-07,-0.017455,1.8658e-10,7564.1,54.414,0,0,0,0,0.0080519,0
7352.4,54.424,19.087,-2.0406e-07,-0.017455,1.8658e-10,7564.1,54.414,0,0,0,0,0.0080519,0
7352.4,54.424,19.087,-2.0406e-07,-0.017455,1.8658e-10,7564.1,54.414,0,0,0,0,0.0080519,0
7353.9,54.424,19.086,-2.0405e-07,-0.017149,1.8333e-10,7564.1,54.414,0,0,0,0,0.0081103,0
7353.9,54.424,19.086,-2.0405e-07,-0.017149,1.8333e-10,7564.1,54.414,0,0,0,0,0.0081103,0
7353.9,54.424,19.086,-2.0405e-07,-0.017149,1.8333e-10,7564.1,54.414,0,0,0,0,0.0081103,0
7353.9,54.424,19.086,-2.0405e-07,-0.017149,1.8333e-10,7564.1,54.414,0,0,0,0,0.0081103,0
7353.9,54.424,19.086,-2.0405e-07,-0.017149,1.8333e-10,7564.1,54.414,0,0,0,0,0.0081103,0
7353.9,54.424,19.086,-2.0405e-07,-0.017149,1.8333e-10,7564.1,54.414,0,0,0,0,0.0081103,0
7353.9,54.424,19.086,-2.0405e-07,-0.017149,1.8333e-10,7564.1,54.414,0,0,0,0,0.0081103,0
7354.3,54.424,19.086,-2.0404e-07,-0.017072,1.8252e-10,7564.1,54.414,0,0,0,0,0.0081251,0
7354.3,54.424,19.086,-2.0404e-07,-0.017072,1.8252e-10,7564.1,54.414,0,0,0,0,0.0081251,0
7354.3,54.424,19.086,-2.0404e-07,-0.017072,1.8252e-10,7564.1,54.414,0,0,0,0,0.0081251,0
7354.3,54.424,19.086,-2.0404e-07,-0.017072,1.8252e-10,7564.1,54.414,0,0,0,0,0.0081251,0
7354.3,54.424,19.086,-2.0404e-07,-0.017072,1.8252e-10,7564.1,54.414,0,0,0,0,0.0081251,0
7354.3,54.424,19.086,-2.0404e-07,-0.017072,1.8252e-10,7564.1,54.414,0,0,0,0,0.0081251,0
7354.3,54.424,19.086,-2.0404e-07,-0.017072,1.8252e-10,7564.1,54.414,0,0,0,0,0.0081251,0
7354.3,54.424,19.086,-2.0404e-07,-0.017072,1.8252e-10,7564.1,54.414,0,0,0,0,0.0081251,0
7354.3,54.424,19.086,-2.0404e-07,-0.017072,1.8252e-10,7564.1,54.414,0,0,0,0,0.0081251,0
7356.2,54.424,19.084,-2.0402e-07,-0.016688,1.784e-10,7564.1,54.414,0,0,0,0,0.0081997,0
7356.2,54.424,19.084,-2.0402e-07,-0.016688,1.784e-10,7564.1,54.414,0,0,0,0,0.0081997,0
7356.2,54.424,19.084,-2.0402e-07,-0.016688,1.784e-10,7564.1,54.414,0,0,0,0,0.0081997,0
7356.2,54.424,19.084,-2.0402e-07,-0.016688,1.784e-10,7564.1,54.414,0,0,0,0,0.0081997,0
7356.2,54.424,19.084,-2.0402e-07,-0.016688,1.784e-10,7564.1,54.414,0,0,0,0,0.0081997,0
7356.2,54.424,19.084,-2.0402e-07,-0.016688,1.784e-10,7564.1,54.414,0,0,0,0,0.0081997,0
7356.2,54.424,19.084,-2.0402e-07,-0.016688,1.784e-10,7564.1,54.414,0,0,0,0,0.0081997,0
7356.2,54.424,19.084,-2.0402e-07,-0.016688,1.784e-10,7564.1,54.414,0,0,0,0,0.0081997,0
7356.2,54.424,19.084,-2.0402e-07,-0.016688,1.784e-10,7564.1,54.414,0,0,0,0,0.0081997,0
7356.2,54.424,19.084,-2.0402e-07,-0.016688,1.784e-10,7564.1,54.414,0,0,0,0,0.0081997,0
7357,54.424,19.083,-2.0402e-07,-0.016536,1.7682e-10,7564.1,54.414,0,0,0,0,0.0082299,0
7357,54.424,19.083,-2.0402e-07,-0.016536,1.7682e-10,7564.1,54.414,0,0,0,0,0.0082299,0
7357,54.424,19.083,-2.0402e-07,-0.016536,1.7682e-10,7564.1,54.414,0,0,0,0,0.0082299,0
7357,54.424,19.083,-2.0402e-07,-0.016536,1.7682e-10,7564.1,54.414,0,0,0,0,0.0082299,0
7357,54.424,19.083,-2.0402e-07,-0.016536,1.7682e-10,7564.1,54.414,0,0,0,0,0.0082299,0
7357,54.424,19.083,-2.0402e-07,-0.016536,1.7682e-10,7564.1,54.414,0,0,0,0,0.0082299,0
7357,54.424,19.083,-2.0402e-07,-0.016536,1.7682e-10,7564.1,54.414,0,0,0,0,0.0082299,0
7357,54.424,19.083,-2.0402e-07,-0.016536,1.7682e-10,7564.1,54.414,0,0,0,0,0.0082299,0
7357,54.424,19.083,-2.0402e-07,-0.016536,1.7682e-10,7564.1,54.414,0,0,0,0,0.0082299,0
7357,54.424,19.083,-2.0402e-07,-0.016536,1.7682e-10,7564.1,54.414,0,0,0,0,0.0082299,0
7358.5,54.424,19.082,-2.04e-07,-0.016226,1.7356e-10,7564.1,54.414,0,0,0,0,0.008291,0
7359.3,54.424,19.081,-2.04e-07,-0.016071,1.7187e-10,7564.1,54.414,0,0,0,0,0.0083219,0
7359.3,54.424,19.081,-2.04e-07,-0.016071,1.7187e-10,7564.1,54.414,0,0,0,0,0.0083219,0
7359.3,54.424,19.081,-2.04e-07,-0.016071,1.7187e-10,7564.1,54.414,0,0,0,0,0.0083219,0
7359.3,54.424,19.081,-2.04e-07,-0.016071,1.7187e-10,7564.1,54.414,0,0,0,0,0.0083219,0
7359.3,54.424,19.081,-2.04e-07,-0.016071,1.7187e-10,7564.1,54.414,0,0,0,0,0.0083219,0
7359.3,54.424,19.081,-2.04e-07,-0.016071,1.7187e-10,7564.1,54.414,0,0,0,0,0.0083219,0
7361.5,54.424,19.079,-2.0397e-07,-0.015606,1.6688e-10,7564.1,54.414,0,0,0,0,0.0084159,0
7361.5,54.424,19.079,-2.0397e-07,-0.015606,1.6688e-10,7564.1,54.414,0,0,0,0,0.0084159,0
7361.5,54.424,19.079,-2.0397e-07,-0.015606,1.6688e-10,7564.1,54.414,0,0,0,0,0.0084159,0
7361.5,54.424,19.079,-2.0397e-07,-0.015606,1.6688e-10,7564.1,54.414,0,0,0,0,0.0084159,0
7361.5,54.424,19.079,-2.0397e-07,-0.015606,1.6688e-10,7564.1,54.414,0,0,0,0,0.0084159,0
7363.1,54.424,19.078,-2.0396e-07,-0.015297,1.6359e-10,7564.1,54.414,0,0,0,0,0.0084798,0
7363.1,54.424,19.078,-2.0396e-07,-0.015297,1.6359e-10,7564.1,54.414,0,0,0,0,0.0084798,0
7363.1,54.424,19.078,-2.0396e-07,-0.015297,1.6359e-10,7564.1,54.414,0,0,0,0,0.0084798,0
7363.1,54.424,19.078,-2.0396e-07,-0.015297,1.6359e-10,7564.1,54.414,0,0,0,0,0.0084798,0
7363.1,54.424,19.078,-2.0396e-07,-0.015297,1.6359e-10,7564.1,54.414,0,0,0,0,0.0084798,0
7363.1,54.424,19.078,-2.0396e-07,-0.015297,1.6359e-10,7564.1,54.414,0,0,0,0,0.0084798,0
7363.1,54.424,19.078,-2.0396e-07,-0.015297,1.6359e-10,7564.1,54.414,0,0,0,0,0.0084798,0
7363.1,54.424,19.078,-2.0396e-07,-0.015297,1.6359e-10,7564.1,54.414,0,0,0,0,0.0084798,0
7363.1,54.424,19.078,-2.0396e-07,-0.015297,1.6359e-10,7564.1,54.414,0,0,0,0,0.0084798,0
7363.1,54.424,19.078,-2.0396e-07,-0.015297,1.6359e-10,7564.1,54.414,0,0,0,0,0.0084798,0
7363.1,54.424,19.078,-2.0396e-07,-0.015297,1.6359e-10,7564.1,54.414,0,0,0,0,0.0084798,0
7363.1,54.424,19.078,-2.0396e-07,-0.015297,1.6359e-10,7564.1,54.414,0,0,0,0,0.0084798,0
7363.1,54.424,19.078,-2.0396e-07,-0.015297,1.6359e-10,7564.1,54.414,0,0,0,0,0.0084798,0
7363.1,54.424,19.078,-2.0396e-07,-0.015297,1.6359e-10,7564.1,54.414,0,0,0,0,0.0084798,0
7363.1,54.424,19.078,-2.0396e-07,-0.015297,1.6359e-10,7564.1,54.414,0,0,0,0,0.0084798,0
7363.1,54.424,19.078,-2.0396e-07,-0.015297,1.6359e-10,7564.1,54.414,0,0,0,0,0.0084798,0
7363.1,54.424,19.078,-2.0396e-07,-0.015297,1.6359e-10,7564.1,54.414,0,0,0,0,0.0084798,0
7363.1,54.424,19.078,-2.0396e-07,-0.015297,1.6359e-10,7564.1,54.414,0,0,0,0,0.0084798,0
7363.1,54.424,19.078,-2.0396e-07,-0.015297,1.6359e-10,7564.1,54.414,0,0,0,0,0.0084798,0
7363.1,54.424,19.078,-2.0396e-07,-0.015297,1.6359e-10,7564.1,54.414,0,0,0,0,0.0084798,0
7363.1,54.424,19.078,-2.0396e-07,-0.015297,1.6359e-10,7564.1,54.414,0,0,0,0,0.0084798,0
7363.1,54.424,19.078,-2.0396e-07,-0.015297,1.6359e-10,7564.1,54.414,0,0,0,0,0.0084798,0
7366.9,54.424,19.075,-2.0393e-07,-0.014514,1.5515e-10,7564.1,54.414,0,0,0,0,0.0086438,0
7366.9,54.424,19.075,-2.0393e-07,-0.014514,1.5515e-10,7564.1,54.414,0,0,0,0,0.0086438,0
7366.9,54.424,19.075,-2.0393e-07,-0.014514,1.5515e-10,7564.1,54.414,0,0,0,0,0.0086438,0
7366.9,54.424,19.075,-2.0393e-07,-0.014514,1.5515e-10,7564.1,54.414,0,0,0,0,0.0086438,0
7366.9,54.424,19.075,-2.0393e-07,-0.014514,1.5515e-10,7564.1,54.414,0,0,0,0,0.0086438,0
7366.9,54.424,19.075,-2.0393e-07,-0.014514,1.5515e-10,7564.1,54.414,0,0,0,0,0.0086438,0
7366.9,54.424,19.075,-2.0393e-07,-0.014514,1.5515e-10,7564.1,54.414,0,0,0,0,0.0086438,0
7366.9,54.424,19.075,-2.0393e-07,-0.014514,1.5515e-10,7564.1,54.414,0,0,0,0,0.0086438,0
7368,54.424,19.074,-2.0392e-07,-0.014279,1.5261e-10,7564.1,54.414,0,0,0,0,0.0086943,0
7368.4,54.424,19.074,-2.0392e-07,-0.0142,1.5181e-10,7564.1,54.414,0,0,0,0,0.0087112,0
7368.4,54.424,19.074,-2.0392e-07,-0.0142,1.5181e-10,7564.1,54.414,0,0,0,0,0.0087112,0
7368.4,54.424,19.074,-2.0392e-07,-0.0142,1.5181e-10,7564.1,54.414,0,0,0,0,0.0087112,0
7368.4,54.424,19.074,-2.0392e-07,-0.0142,1.5181e-10,7564.1,54.414,0,0,0,0,0.0087112,0
7368.4,54.424,19.074,-2.0392e-07,-0.0142,1.5181e-10,7564.1,54.414,0,0,0,0,0.0087112,0
7369.9,54.424,19.073,-2.0391e-07,-0.013888,1.4844e-10,7564.1,54.414,0,0,0,0,0.0087797,0
7369.9,54.424,19.073,-2.0391e-07,-0.013888,1.4844e-10,7564.1,54.414,0,0,0,0,0.0087797,0
7369.9,54.424,19.073,-2.0391e-07,-0.013888,1.4844e-10,7564.1,54.414,0,0,0,0,0.0087797,0
7369.9,54.424,19.073,-2.0391e-07,-0.013888,1.4844e-10,7564.1,54.414,0,0,0,0,0.0087797,0
7369.9,54.424,19.073,-2.0391e-07,-0.013888,1.4844e-10,7564.1,54.414,0,0,0,0,0.0087797,0
7369.9,54.424,19.073,-2.0391e-07,-0.013888,1.4844e-10,7564.1,54.414,0,0,0,0,0.0087797,0
7369.9,54.424,19.073,-2.0391e-07,-0.013888,1.4844e-10,7564.1,54.414,0,0,0,0,0.0087797,0
7369.9,54.424,19.073,-2.0391e-07,-0.013888,1.4844e-10,7564.1,54.414,0,0,0,0,0.0087797,0
7369.9,54.424,19.073,-2.0391e-07,-0.013888,1.4844e-10,7564.1,54.414,0,0,0,0,0.0087797,0
7369.9,54.424,19.073,-2.0391e-07,-0.013888,1.4844e-10,7564.1,54.414,0,0,0,0,0.0087797,0
7369.9,54.424,19.073,-2.0391e-07,-0.013888,1.4844e-10,7564.1,54.414,0,0,0,0,0.0087797,0
7371.1,54.424,19.072,-2.039e-07,-0.013652,1.4589e-10,7564.1,54.414,0,0,0,0,0.0088317,0
7371.1,54.424,19.072,-2.039e-07,-0.013652,1.4589e-10,7564.1,54.414,0,0,0,0,0.0088317,0
7371.1,54.424,19.072,-2.039e-07,-0.013652,1.4589e-10,7564.1,54.414,0,0,0,0,0.0088317,0
7371.1,54.424,19.072,-2.039e-07,-0.013652,1.4589e-10,7564.1,54.414,0,0,0,0,0.0088317,0
7371.1,54.424,19.072,-2.039e-07,-0.013652,1.4589e-10,7564.1,54.414,0,0,0,0,0.0088317,0
7371.5,54.424,19.072,-2.0389e-07,-0.013574,1.4507e-10,7564.1,54.414,0,0,0,0,0.0088492,0
7373,54.424,19.071,-2.0388e-07,-0.013257,1.4169e-10,7564.1,54.414,0,0,0,0,0.0089198,0
7373,54.424,19.071,-2.0388e-07,-0.013257,1.4169e-10,7564.1,54.414,0,0,0,0,0.0089198,0
7373,54.424,19.071,-2.0388e-07,-0.013257,1.4169e-10,7564.1,54.414,0,0,0,0,0.0089198,0
7373,54.424,19.071,-2.0388e-07,-0.013257,1.4169e-10,7564.1,54.414,0,0,0,0,0.0089198,0
7373,54.424,19.071,-2.0388e-07,-0.013257,1.4169e-10,7564.1,54.414,0,0,0,0,0.0089198,0
7373,54.424,19.071,-2.0388e-07,-0.013257,1.4169e-10,7564.1,54.414,0,0,0,0,0.0089198,0
7373,54.424,19.071,-2.0388e-07,-0.013257,1.4169e-10,7564.1,54.414,0,0,0,0,0.0089198,0
7373,54.424,19.071,-2.0388e-07,-0.013257,1.4169e-10,7564.1,54.414,0,0,0,0,0.0089198,0
7373,54.424,19.071,-2.0388e-07,-0.013257,1.4169e-10,7564.1,54.414,0,0,0,0,0.0089198,0
7373,54.424,19.071,-2.0388e-07,-0.013257,1.4169e-10,7564.1,54.414,0,0,0,0,0.0089198,0
7373.4,54.424,19.07,-2.0388e-07,-0.013178,1.4085e-10,7564.1,54.414,0,0,0,0,0.0089377,0
7373.4,54.424,19.07,-2.0388e-07,-0.013178,1.4085e-10,7564.1,54.414,0,0,0,0,0.0089377,0
7373.4,54.424,19.07,-2.0388e-07,-0.013178,1.4085e-10,7564.1,54.414,0,0,0,0,0.0089377,0
7373.4,54.424,19.07,-2.0388e-07,-0.013178,1.4085e-10,7564.1,54.414,0,0,0,0,0.0089377,0
7373.4,54.424,19.07,-2.0388e-07,-0.013178,1.4085e-10,7564.1,54.414,0,0,0,0,0.0089377,0
7373.4,54.424,19.07,-2.0388e-07,-0.013178,1.4085e-10,7564.1,54.414,0,0,0,0,0.0089377,0
7373.4,54.424,19.07,-2.0388e-07,-0.013178,1.4085e-10,7564.1,54.414,0,0,0,0,0.0089377,0
7373.4,54.424,19.07,-2.0388e-07,-0.013178,1.4085e-10,7564.1,54.414,0,0,0,0,0.0089377,0
7373.4,54.424,19.07,-2.0388e-07,-0.013178,1.4085e-10,7564.1,54.414,0,0,0,0,0.0089377,0
7373.4,54.424,19.07,-2.0388e-07,-0.013178,1.4085e-10,7564.1,54.414,0,0,0,0,0.0089377,0
7374.5,54.424,19.07,-2.0387e-07,-0.012941,1.3831e-10,7564.1,54.414,0,0,0,0,0.0089916,0
7376,54.424,19.069,-2.0386e-07,-0.012626,1.3501e-10,7564.1,54.414,0,0,0,0,0.0090645,0
7376,54.424,19.069,-2.0386e-07,-0.012626,1.3501e-10,7564.1,54.414,0,0,0,0,0.0090645,0
7376,54.424,19.069,-2.0386e-07,-0.012626,1.3501e-10,7564.1,54.414,0,0,0,0,0.0090645,0
7378,54.424,19.067,-2.0385e-07,-0.012229,1.3072e-10,7564.1,54.414,0,0,0,0,0.0091573,0
7378,54.424,19.067,-2.0385e-07,-0.012229,1.3072e-10,7564.1,54.414,0,0,0,0,0.0091573,0
7378,54.424,19.067,-2.0385e-07,-0.012229,1.3072e-10,7564.1,54.414,0,0,0,0,0.0091573,0
7378,54.424,19.067,-2.0385e-07,-0.012229,1.3072e-10,7564.1,54.414,0,0,0,0,0.0091573,0
7378,54.424,19.067,-2.0385e-07,-0.012229,1.3072e-10,7564.1,54.414,0,0,0,0,0.0091573,0
7378,54.424,19.067,-2.0385e-07,-0.012229,1.3072e-10,7564.1,54.414,0,0,0,0,0.0091573,0
7378,54.424,19.067,-2.0385e-07,-0.012229,1.3072e-10,7564.1,54.414,0,0,0,0,0.0091573,0
7378,54.424,19.067,-2.0385e-07,-0.012229,1.3072e-10,7564.1,54.414,0,0,0,0,0.0091573,0
7378,54.424,19.067,-2.0385e-07,-0.012229,1.3072e-10,7564.1,54.414,0,0,0,0,0.0091573,0
7378,54.424,19.067,-2.0385e-07,-0.012229,1.3072e-10,7564.1,54.414,0,0,0,0,0.0091573,0
7378.7,54.424,19.067,-2.0384e-07,-0.01207,1.2899e-10,7564.1,54.414,0,0,0,0,0.009195,0
7378.7,54.424,19.067,-2.0384e-07,-0.01207,1.2899e-10,7564.1,54.414,0,0,0,0,0.009195,0
7378.7,54.424,19.067,-2.0384e-07,-0.01207,1.2899e-10,7564.1,54.414,0,0,0,0,0.009195,0
7378.7,54.424,19.067,-2.0384e-07,-0.01207,1.2899e-10,7564.1,54.414,0,0,0,0,0.009195,0
7378.7,54.424,19.067,-2.0384e-07,-0.01207,1.2899e-10,7564.1,54.414,0,0,0,0,0.009195,0
7378.7,54.424,19.067,-2.0384e-07,-0.01207,1.2899e-10,7564.1,54.414,0,0,0,0,0.009195,0
7378.7,54.424,19.067,-2.0384e-07,-0.01207,1.2899e-10,7564.1,54.414,0,0,0,0,0.009195,0
7378.7,54.424,19.067,-2.0384e-07,-0.01207,1.2899e-10,7564.1,54.414,0,0,0,0,0.009195,0
7378.7,54.424,19.067,-2.0384e-07,-0.01207,1.2899e-10,7564.1,54.414,0,0,0,0,0.009195,0
7378.7,54.424,19.067,-2.0384e-07,-0.01207,1.2899e-10,7564.1,54.414,0,0,0,0,0.009195,0
7378.7,54.424,19.067,-2.0384e-07,-0.01207,1.2899e-10,7564.1,54.414,0,0,0,0,0.009195,0
7378.7,54.424,19.067,-2.0384e-07,-0.01207,1.2899e-10,7564.1,54.414,0,0,0,0,0.009195,0
7378.7,54.424,19.067,-2.0384e-07,-0.01207,1.2899e-10,7564.1,54.414,0,0,0,0,0.009195,0
7378.7,54.424,19.067,-2.0384e-07,-0.01207,1.2899e-10,7564.1,54.414,0,0,0,0,0.009195,0
7378.7,54.424,19.067,-2.0384e-07,-0.01207,1.2899e-10,7564.1,54.414,0,0,0,0,0.009195,0
7378.7,54.424,19.067,-2.0384e-07,-0.01207,1.2899e-10,7564.1,54.414,0,0,0,0,0.009195,0
7378.7,54.424,19.067,-2.0384e-07,-0.01207,1.2899e-10,7564.1,54.414,0,0,0,0,0.009195,0
7379.9,54.424,19.066,-2.0383e-07,-0.011831,1.2645e-10,7564.1,54.414,0,0,0,0,0.0092521,0
7381,54.424,19.066,-2.0383e-07,-0.011593,1.2397e-10,7564.1,54.414,0,0,0,0,0.0093099,0
7382.5,54.424,19.065,-2.0382e-07,-0.011274,1.2054e-10,7564.1,54.414,0,0,0,0,0.0093881,0
7384.1,54.424,19.064,-2.0381e-07,-0.010953,1.1712e-10,7564.1,54.414,0,0,0,0,0.0094676,0
7384.1,54.424,19.064,-2.0381e-07,-0.010953,1.1712e-10,7564.1,54.414,0,0,0,0,0.0094676,0
7384.1,54.424,19.064,-2.0381e-07,-0.010953,1.1712e-10,7564.1,54.414,0,0,0,0,0.0094676,0
7384.1,54.424,19.064,-2.0381e-07,-0.010953,1.1712e-10,7564.1,54.414,0,0,0,0,0.0094676,0
7384.1,54.424,19.064,-2.0381e-07,-0.010953,1.1712e-10,7564.1,54.414,0,0,0,0,0.0094676,0
7384.1,54.424,19.064,-2.0381e-07,-0.010953,1.1712e-10,7564.1,54.414,0,0,0,0,0.0094676,0
7384.1,54.424,19.064,-2.0381e-07,-0.010953,1.1712e-10,7564.1,54.414,0,0,0,0,0.0094676,0
7384.1,54.424,19.064,-2.0381e-07,-0.010953,1.1712e-10,7564.1,54.414,0,0,0,0,0.0094676,0
7384.4,54.424,19.064,-2.0381e-07,-0.010873,1.1627e-10,7564.1,54.414,0,0,0,0,0.0094877,0
7384.4,54.424,19.064,-2.0381e-07,-0.010873,1.1627e-10,7564.1,54.414,0,0,0,0,0.0094877,0
7384.4,54.424,19.064,-2.0381e-07,-0.010873,1.1627e-10,7564.1,54.414,0,0,0,0,0.0094877,0
7384.4,54.424,19.064,-2.0381e-07,-0.010873,1.1627e-10,7564.1,54.414,0,0,0,0,0.0094877,0
7384.4,54.424,19.064,-2.0381e-07,-0.010873,1.1627e-10,7564.1,54.414,0,0,0,0,0.0094877,0
7384.4,54.424,19.064,-2.0381e-07,-0.010873,1.1627e-10,7564.1,54.414,0,0,0,0,0.0094877,0
7384.4,54.424,19.064,-2.0381e-07,-0.010873,1.1627e-10,7564.1,54.414,0,0,0,0,0.0094877,0
7384.4,54.424,19.064,-2.0381e-07,-0.010873,1.1627e-10,7564.1,54.414,0,0,0,0,0.0094877,0
7384.4,54.424,19.064,-2.0381e-07,-0.010873,1.1627e-10,7564.1,54.414,0,0,0,0,0.0094877,0
7384.4,54.424,19.064,-2.0381e-07,-0.010873,1.1627e-10,7564.1,54.414,0,0,0,0,0.0094877,0
7384.4,54.424,19.064,-2.0381e-07,-0.010873,1.1627e-10,7564.1,54.414,0,0,0,0,0.0094877,0
7384.4,54.424,19.064,-2.0381e-07,-0.010873,1.1627e-10,7564.1,54.414,0,0,0,0,0.0094877,0
7384.4,54.424,19.064,-2.0381e-07,-0.010873,1.1627e-10,7564.1,54.414,0,0,0,0,0.0094877,0
7384.4,54.424,19.064,-2.0381e-07,-0.010873,1.1627e-10,7564.1,54.414,0,0,0,0,0.0094877,0
7384.4,54.424,19.064,-2.0381e-07,-0.010873,1.1627e-10,7564.1,54.414,0,0,0,0,0.0094877,0
7384.4,54.424,19.064,-2.0381e-07,-0.010873,1.1627e-10,7564.1,54.414,0,0,0,0,0.0094877,0
7384.4,54.424,19.064,-2.0381e-07,-0.010873,1.1627e-10,7564.1,54.414,0,0,0,0,0.0094877,0
7386,54.424,19.063,-2.038e-07,-0.010553,1.1282e-10,7564.1,54.414,0,0,0,0,0.0095689,0
7387.5,54.424,19.062,-2.0379e-07,-0.010234,1.0944e-10,7564.1,54.414,0,0,0,0,0.0096515,0
