-1.6574,14.574,-25.562,23.454,-5.7914,-14.293,18.197,-13.813,81.467,-28.845,19.961,-33.019,31.874,-5.3956,15.715,-40.73
-1.6574,14.574,-25.562,23.454,-5.7914,-14.293,18.197,-13.813,81.467,-28.845,19.961,-33.019,31.874,-5.3956,15.715,-40.73
-1.7182,14.536,-25.33,23.269,-5.4897,-14.406,18.407,-13.945,81.727,-29.101,19.998,-33.055,31.959,-5.47,15.88,-40.737
-1.7182,14.536,-25.33,23.269,-5.4897,-14.406,18.407,-13.945,81.727,-29.101,19.998,-33.055,31.959,-5.47,15.88,-40.737
-1.841,14.459,-24.865,22.898,-4.8871,-14.633,18.822,-14.209,82.238,-29.612,20.07,-33.129,32.127,-5.6196,16.208,-40.751
-1.841,14.459,-24.865,22.898,-4.8871,-14.633,18.822,-14.209,82.238,-29.612,20.07,-33.129,32.127,-5.6196,16.208,-40.751
-1.841,14.459,-24.865,22.898,-4.8871,-14.633,18.822,-14.209,82.238,-29.612,20.07,-33.129,32.127,-5.6196,16.208,-40.751
-1.9031,14.42,-24.633,22.712,-4.5863,-14.748,19.028,-14.341,82.49,-29.866,20.106,-33.166,32.209,-5.6948,16.372,-40.758
-1.9031,14.42,-24.633,22.712,-4.5863,-14.748,19.028,-14.341,82.49,-29.866,20.106,-33.166,32.209,-5.6948,16.372,-40.758
-1.9655,14.381,-24.4,22.524,-4.2859,-14.864,19.232,-14.473,82.739,-30.119,20.142,-33.203,32.291,-5.7701,16.535,-40.765
-1.9655,14.381,-24.4,22.524,-4.2859,-14.864,19.232,-14.473,82.739,-30.119,20.142,-33.203,32.291,-5.7701,16.535,-40.765
-2.0284,14.342,-24.168,22.336,-3.9858,-14.981,19.434,-14.605,82.985,-30.371,20.177,-33.241,32.371,-5.8457,16.698,-40.771
-2.0284,14.342,-24.168,22.336,-3.9858,-14.981,19.434,-14.605,82.985,-30.371,20.177,-33.241,32.371,-5.8457,16.698,-40.771
-2.0917,14.302,-23.936,22.147,-3.6862,-15.099,19.634,-14.736,83.228,-30.622,20.212,-33.278,32.451,-5.9214,16.86,-40.778
-2.1554,14.262,-23.704,21.957,-3.3869,-15.218,19.833,-14.867,83.469,-30.871,20.248,-33.316,32.529,-5.9972,17.022,-40.784
-2.1554,14.262,-23.704,21.957,-3.3869,-15.218,19.833,-14.867,83.469,-30.871,20.248,-33.316,32.529,-5.9972,17.022,-40.784
-2.1554,14.262,-23.704,21.957,-3.3869,-15.218,19.833,-14.867,83.469,-30.871,20.248,-33.316,32.529,-5.9972,17.022,-40.784
-2.2195,14.222,-23.472,21.766,-3.0881,-15.338,20.03,-14.998,83.707,-31.12,20.283,-33.355,32.607,-6.0733,17.184,-40.79
-2.2195,14.222,-23.472,21.766,-3.0881,-15.338,20.03,-14.998,83.707,-31.12,20.283,-33.355,32.607,-6.0733,17.184,-40.79
-2.2195,14.222,-23.472,21.766,-3.0881,-15.338,20.03,-14.998,83.707,-31.12,20.283,-33.355,32.607,-6.0733,17.184,-40.79
-2.2841,14.182,-23.24,21.575,-2.7898,-15.458,20.226,-15.129,83.943,-31.368,20.317,-33.393,32.683,-6.1494,17.345,-40.795
-2.349,14.141,-23.009,21.382,-2.492,-15.58,20.42,-15.26,84.175,-31.615,20.352,-33.431,32.759,-6.2257,17.506,-40.801
-2.4144,14.1,-22.777,21.19,-2.1947,-15.702,20.612,-15.39,84.405,-31.86,20.386,-33.47,32.833,-6.302,17.666,-40.806
-2.4144,14.1,-22.777,21.19,-2.1947,-15.702,20.612,-15.39,84.405,-31.86,20.386,-33.47,32.833,-6.302,17.666,-40.806
-2.4802,14.059,-22.546,20.996,-1.8979,-15.826,20.803,-15.52,84.632,-32.105,20.42,-33.509,32.906,-6.3784,17.826,-40.811
-2.4802,14.059,-22.546,20.996,-1.8979,-15.826,20.803,-15.52,84.632,-32.105,20.42,-33.509,32.906,-6.3784,17.826,-40.811
-2.4802,14.059,-22.546,20.996,-1.8979,-15.826,20.803,-15.52,84.632,-32.105,20.42,-33.509,32.906,-6.3784,17.826,-40.811
-2.5464,14.018,-22.315,20.802,-1.6017,-15.95,20.992,-15.65,84.856,-32.348,20.453,-33.547,32.979,-6.4549,17.986,-40.815
-2.5464,14.018,-22.315,20.802,-1.6017,-15.95,20.992,-15.65,84.856,-32.348,20.453,-33.547,32.979,-6.4549,17.986,-40.815
-2.613,13.977,-22.085,20.607,-1.306,-16.075,21.179,-15.779,85.078,-32.59,20.487,-33.586,33.05,-6.5314,18.145,-40.82
-2.613,13.977,-22.085,20.607,-1.306,-16.075,21.179,-15.779,85.078,-32.59,20.487,-33.586,33.05,-6.5314,18.145,-40.82
-2.6801,13.935,-21.854,20.412,-1.011,-16.201,21.365,-15.908,85.296,-32.831,20.52,-33.625,33.12,-6.608,18.304,-40.824
-2.7476,13.893,-21.624,20.215,-0.7166,-16.327,21.549,-16.037,85.512,-33.071,20.553,-33.664,33.19,-6.6845,18.462,-40.827
-2.7476,13.893,-21.624,20.215,-0.7166,-16.327,21.549,-16.037,85.512,-33.071,20.553,-33.664,33.19,-6.6845,18.462,-40.827
-2.7476,13.893,-21.624,20.215,-0.7166,-16.327,21.549,-16.037,85.512,-33.071,20.553,-33.664,33.19,-6.6845,18.462,-40.827
-2.8155,13.851,-21.394,20.019,-0.42286,-16.455,21.731,-16.166,85.725,-33.31,20.585,-33.703,33.258,-6.7611,18.62,-40.83
-2.8155,13.851,-21.394,20.019,-0.42286,-16.455,21.731,-16.166,85.725,-33.31,20.585,-33.703,33.258,-6.7611,18.62,-40.83
-2.8838,13.809,-21.164,19.822,-0.1298,-16.583,21.911,-16.294,85.935,-33.547,20.617,-33.742,33.325,-6.8376,18.777,-40.833
-2.8838,13.809,-21.164,19.822,-0.1298,-16.583,21.911,-16.294,85.935,-33.547,20.617,-33.742,33.325,-6.8376,18.777,-40.833
-2.8838,13.809,-21.164,19.822,-0.1298,-16.583,21.911,-16.294,85.935,-33.547,20.617,-33.742,33.325,-6.8376,18.777,-40.833
-2.9525,13.766,-20.935,19.624,0.16256,-16.712,22.089,-16.422,86.142,-33.783,20.649,-33.781,33.391,-6.9141,18.934,-40.835
-3.0217,13.724,-20.706,19.425,0.4542,-16.842,22.266,-16.55,86.346,-34.018,20.68,-33.82,33.457,-6.9905,19.09,-40.837
-3.0217,13.724,-20.706,19.425,0.4542,-16.842,22.266,-16.55,86.346,-34.018,20.68,-33.82,33.457,-6.9905,19.09,-40.837
-3.0913,13.681,-20.477,19.227,0.74509,-16.972,22.441,-16.677,86.547,-34.252,20.711,-33.859,33.521,-7.0669,19.246,-40.839
-3.0913,13.681,-20.477,19.227,0.74509,-16.972,22.441,-16.677,86.547,-34.252,20.711,-33.859,33.521,-7.0669,19.246,-40.839
-3.0913,13.681,-20.477,19.227,0.74509,-16.972,22.441,-16.677,86.547,-34.252,20.711,-33.859,33.521,-7.0669,19.246,-40.839
-3.1613,13.638,-20.249,19.027,1.0352,-17.103,22.614,-16.804,86.746,-34.484,20.742,-33.898,33.584,-7.1432,19.402,-40.84
-3.1613,13.638,-20.249,19.027,1.0352,-17.103,22.614,-16.804,86.746,-34.484,20.742,-33.898,33.584,-7.1432,19.402,-40.84
-3.2317,13.595,-20.021,18.828,1.3245,-17.235,22.786,-16.93,86.941,-34.715,20.772,-33.936,33.646,-7.2193,19.557,-40.84
-3.3026,13.552,-19.794,18.627,1.6131,-17.368,22.955,-17.057,87.133,-34.945,20.802,-33.975,33.707,-7.2954,19.711,-40.84
-3.3026,13.552,-19.794,18.627,1.6131,-17.368,22.955,-17.057,87.133,-34.945,20.802,-33.975,33.707,-7.2954,19.711,-40.84
-3.3739,13.509,-19.567,18.427,1.9007,-17.501,23.123,-17.182,87.323,-35.173,20.831,-34.013,33.766,-7.3712,19.866,-40.84
-3.3739,13.509,-19.567,18.427,1.9007,-17.501,23.123,-17.182,87.323,-35.173,20.831,-34.013,33.766,-7.3712,19.866,-40.84
-3.4456,13.465,-19.34,18.225,2.1875,-17.635,23.289,-17.308,87.51,-35.401,20.86,-34.052,33.825,-7.447,20.019,-40.839
-3.4456,13.465,-19.34,18.225,2.1875,-17.635,23.289,-17.308,87.51,-35.401,20.86,-34.052,33.825,-7.447,20.019,-40.839
-3.4456,13.465,-19.34,18.225,2.1875,-17.635,23.289,-17.308,87.51,-35.401,20.86,-34.052,33.825,-7.447,20.019,-40.839
-3.4456,13.465,-19.34,18.225,2.1875,-17.635,23.289,-17.308,87.51,-35.401,20.86,-34.052,33.825,-7.447,20.019,-40.839
-3.5902,13.378,-18.888,17.822,2.7585,-17.904,23.615,-17.557,87.874,-35.851,20.917,-34.128,33.94,-7.5979,20.325,-40.835
-3.5902,13.378,-18.888,17.822,2.7585,-17.904,23.615,-17.557,87.874,-35.851,20.917,-34.128,33.94,-7.5979,20.325,-40.835
-3.6632,13.334,-18.663,17.62,3.0426,-18.04,23.776,-17.681,88.051,-36.073,20.944,-34.166,33.995,-7.6731,20.477,-40.832
-3.6632,13.334,-18.663,17.62,3.0426,-18.04,23.776,-17.681,88.051,-36.073,20.944,-34.166,33.995,-7.6731,20.477,-40.832
-3.7366,13.29,-18.439,17.417,3.3258,-18.176,23.934,-17.805,88.226,-36.295,20.971,-34.203,34.05,-7.748,20.629,-40.829
-3.8105,13.246,-18.214,17.214,3.6079,-18.313,24.091,-17.929,88.398,-36.515,20.998,-34.241,34.103,-7.8227,20.78,-40.825
-3.8105,13.246,-18.214,17.214,3.6079,-18.313,24.091,-17.929,88.398,-36.515,20.998,-34.241,34.103,-7.8227,20.78,-40.825
-3.8105,13.246,-18.214,17.214,3.6079,-18.313,24.091,-17.929,88.398,-36.515,20.998,-34.241,34.103,-7.8227,20.78,-40.825
-3.8847,13.202,-17.991,17.011,3.8891,-18.45,24.245,-18.051,88.566,-36.734,21.024,-34.278,34.156,-7.8971,20.931,-40.82
-3.8847,13.202,-17.991,17.011,3.8891,-18.45,24.245,-18.051,88.566,-36.734,21.024,-34.278,34.156,-7.8971,20.931,-40.82
-3.9594,13.158,-17.768,16.807,4.1693,-18.588,24.398,-18.174,88.732,-36.951,21.049,-34.315,34.207,-7.9713,21.081,-40.815
-3.9594,13.158,-17.768,16.807,4.1693,-18.588,24.398,-18.174,88.732,-36.951,21.049,-34.315,34.207,-7.9713,21.081,-40.815
-4.0346,13.113,-17.545,16.603,4.4484,-18.727,24.549,-18.296,88.894,-37.166,21.074,-34.351,34.257,-8.0451,21.23,-40.809
-4.0346,13.113,-17.545,16.603,4.4484,-18.727,24.549,-18.296,88.894,-37.166,21.074,-34.351,34.257,-8.0451,21.23,-40.809
-4.1101,13.069,-17.324,16.399,4.7265,-18.866,24.698,-18.417,89.053,-37.381,21.099,-34.388,34.306,-8.1187,21.379,-40.802
-4.1861,13.024,-17.102,16.195,5.0034,-19.005,24.845,-18.538,89.21,-37.593,21.122,-34.424,34.354,-8.1919,21.528,-40.795
-4.1861,13.024,-17.102,16.195,5.0034,-19.005,24.845,-18.538,89.21,-37.593,21.122,-34.424,34.354,-8.1919,21.528,-40.795
-4.1861,13.024,-17.102,16.195,5.0034,-19.005,24.845,-18.538,89.21,-37.593,21.122,-34.424,34.354,-8.1919,21.528,-40.795
-4.2625,12.98,-16.882,15.99,5.2793,-19.145,24.99,-18.659,89.363,-37.804,21.146,-34.459,34.401,-8.2648,21.676,-40.787
-4.2625,12.98,-16.882,15.99,5.2793,-19.145,24.99,-18.659,89.363,-37.804,21.146,-34.459,34.401,-8.2648,21.676,-40.787
-4.3393,12.935,-16.662,15.786,5.5541,-19.286,25.133,-18.779,89.513,-38.014,21.168,-34.494,34.447,-8.3374,21.823,-40.778
-4.3393,12.935,-16.662,15.786,5.5541,-19.286,25.133,-18.779,89.513,-38.014,21.168,-34.494,34.447,-8.3374,21.823,-40.778
-4.4166,12.89,-16.443,15.581,5.8277,-19.427,25.274,-18.898,89.66,-38.222,21.191,-34.529,34.492,-8.4095,21.97,-40.769
-4.4166,12.89,-16.443,15.581,5.8277,-19.427,25.274,-18.898,89.66,-38.222,21.191,-34.529,34.492,-8.4095,21.97,-40.769
-4.4943,12.846,-16.224,15.376,6.1001,-19.568,25.413,-19.017,89.804,-38.428,21.212,-34.564,34.536,-8.4813,22.117,-40.758
-4.5724,12.801,-16.006,15.171,6.3714,-19.71,25.551,-19.135,89.945,-38.633,21.233,-34.598,34.578,-8.5527,22.262,-40.747
-4.5724,12.801,-16.006,15.171,6.3714,-19.71,25.551,-19.135,89.945,-38.633,21.233,-34.598,34.578,-8.5527,22.262,-40.747
-4.651,12.756,-15.789,14.965,6.6414,-19.852,25.686,-19.253,90.083,-38.837,21.253,-34.632,34.62,-8.6236,22.408,-40.735
-4.651,12.756,-15.789,14.965,6.6414,-19.852,25.686,-19.253,90.083,-38.837,21.253,-34.632,34.62,-8.6236,22.408,-40.735
-4.651,12.756,-15.789,14.965,6.6414,-19.852,25.686,-19.253,90.083,-38.837,21.253,-34.632,34.62,-8.6236,22.408,-40.735
-4.73,12.711,-15.573,14.76,6.9102,-19.995,25.819,-19.371,90.218,-39.038,21.273,-34.665,34.66,-8.6941,22.552,-40.723
-4.73,12.711,-15.573,14.76,6.9102,-19.995,25.819,-19.371,90.218,-39.038,21.273,-34.665,34.66,-8.6941,22.552,-40.723
-4.8094,12.666,-15.357,14.554,7.1777,-20.138,25.95,-19.487,90.349,-39.238,21.292,-34.698,34.699,-8.7642,22.696,-40.709
-4.8094,12.666,-15.357,14.554,7.1777,-20.138,25.95,-19.487,90.349,-39.238,21.292,-34.698,34.699,-8.7642,22.696,-40.709
-4.8893,12.621,-15.143,14.349,7.444,-20.281,26.079,-19.604,90.477,-39.436,21.31,-34.73,34.738,-8.8338,22.84,-40.694
-4.8893,12.621,-15.143,14.349,7.444,-20.281,26.079,-19.604,90.477,-39.436,21.31,-34.73,34.738,-8.8338,22.84,-40.694
-4.9696,12.576,-14.929,14.143,7.709,-20.424,26.207,-19.719,90.603,-39.633,21.327,-34.762,34.775,-8.9029,22.983,-40.679
-4.9696,12.576,-14.929,14.143,7.709,-20.424,26.207,-19.719,90.603,-39.633,21.327,-34.762,34.775,-8.9029,22.983,-40.679
-5.0503,12.531,-14.716,13.937,7.9727,-20.568,26.332,-19.834,90.725,-39.828,21.344,-34.793,34.811,-8.9715,23.125,-40.663
-5.0503,12.531,-14.716,13.937,7.9727,-20.568,26.332,-19.834,90.725,-39.828,21.344,-34.793,34.811,-8.9715,23.125,-40.663
-5.1315,12.486,-14.503,13.732,8.235,-20.713,26.455,-19.949,90.844,-40.021,21.36,-34.824,34.845,-9.0396,23.267,-40.646
-5.1315,12.486,-14.503,13.732,8.235,-20.713,26.455,-19.949,90.844,-40.021,21.36,-34.824,34.845,-9.0396,23.267,-40.646
-5.2131,12.441,-14.292,13.526,8.4959,-20.857,26.576,-20.063,90.959,-40.213,21.376,-34.854,34.879,-9.1072,23.408,-40.628
-5.2131,12.441,-14.292,13.526,8.4959,-20.857,26.576,-20.063,90.959,-40.213,21.376,-34.854,34.879,-9.1072,23.408,-40.628
-5.2131,12.441,-14.292,13.526,8.4959,-20.857,26.576,-20.063,90.959,-40.213,21.376,-34.854,34.879,-9.1072,23.408,-40.628
-5.2952,12.395,-14.081,13.32,8.7555,-21.002,26.695,-20.176,91.072,-40.403,21.39,-34.884,34.912,-9.1742,23.548,-40.609
-5.2952,12.395,-14.081,13.32,8.7555,-21.002,26.695,-20.176,91.072,-40.403,21.39,-34.884,34.912,-9.1742,23.548,-40.609
-5.4606,12.305,-13.663,12.909,9.2705,-21.292,26.926,-20.401,91.287,-40.777,21.417,-34.942,34.974,-9.3066,23.827,-40.568
-5.4606,12.305,-13.663,12.909,9.2705,-21.292,26.926,-20.401,91.287,-40.777,21.417,-34.942,34.974,-9.3066,23.827,-40.568
-5.4606,12.305,-13.663,12.909,9.2705,-21.292,26.926,-20.401,91.287,-40.777,21.417,-34.942,34.974,-9.3066,23.827,-40.568
-5.5439,12.26,-13.455,12.703,9.5258,-21.438,27.039,-20.512,91.39,-40.962,21.43,-34.97,35.003,-9.3719,23.966,-40.546
-5.5439,12.26,-13.455,12.703,9.5258,-21.438,27.039,-20.512,91.39,-40.962,21.43,-34.97,35.003,-9.3719,23.966,-40.546
-5.6277,12.215,-13.248,12.498,9.7797,-21.583,27.149,-20.623,91.49,-41.144,21.441,-34.997,35.031,-9.4366,24.103,-40.524
-5.6277,12.215,-13.248,12.498,9.7797,-21.583,27.149,-20.623,91.49,-41.144,21.441,-34.997,35.031,-9.4366,24.103,-40.524
-5.7119,12.17,-13.042,12.293,10.032,-21.729,27.258,-20.733,91.586,-41.325,21.452,-35.024,35.058,-9.5006,24.241,-40.5
-5.7966,12.125,-12.837,12.088,10.283,-21.875,27.364,-20.842,91.68,-41.505,21.462,-35.05,35.084,-9.5641,24.377,-40.475
-5.7966,12.125,-12.837,12.088,10.283,-21.875,27.364,-20.842,91.68,-41.505,21.462,-35.05,35.084,-9.5641,24.377,-40.475
-5.8817,12.08,-12.633,11.883,10.532,-22.021,27.469,-20.951,91.77,-41.682,21.471,-35.075,35.109,-9.6269,24.513,-40.449
-5.8817,12.08,-12.633,11.883,10.532,-22.021,27.469,-20.951,91.77,-41.682,21.471,-35.075,35.109,-9.6269,24.513,-40.449
-5.8817,12.08,-12.633,11.883,10.532,-22.021,27.469,-20.951,91.77,-41.682,21.471,-35.075,35.109,-9.6269,24.513,-40.449
-5.9672,12.035,-12.431,11.678,10.78,-22.168,27.571,-21.059,91.857,-41.857,21.479,-35.099,35.133,-9.689,24.648,-40.422
-5.9672,12.035,-12.431,11.678,10.78,-22.168,27.571,-21.059,91.857,-41.857,21.479,-35.099,35.133,-9.689,24.648,-40.422
-5.9672,12.035,-12.431,11.678,10.78,-22.168,27.571,-21.059,91.857,-41.857,21.479,-35.099,35.133,-9.689,24.648,-40.422
-6.0532,11.99,-12.229,11.473,11.027,-22.314,27.671,-21.167,91.94,-42.031,21.487,-35.123,35.155,-9.7504,24.783,-40.394
-6.0532,11.99,-12.229,11.473,11.027,-22.314,27.671,-21.167,91.94,-42.031,21.487,-35.123,35.155,-9.7504,24.783,-40.394
-6.2265,11.9,-11.828,11.064,11.514,-22.607,27.864,-21.379,92.098,-42.373,21.499,-35.169,35.197,-9.8713,25.05,-40.335
-6.2265,11.9,-11.828,11.064,11.514,-22.607,27.864,-21.379,92.098,-42.373,21.499,-35.169,35.197,-9.8713,25.05,-40.335
-6.2265,11.9,-11.828,11.064,11.514,-22.607,27.864,-21.379,92.098,-42.373,21.499,-35.169,35.197,-9.8713,25.05,-40.335
-6.3138,11.855,-11.63,10.86,11.756,-22.754,27.958,-21.485,92.171,-42.541,21.504,-35.191,35.216,-9.9306,25.183,-40.304
-6.3138,11.855,-11.63,10.86,11.756,-22.754,27.958,-21.485,92.171,-42.541,21.504,-35.191,35.216,-9.9306,25.183,-40.304
-6.4015,11.81,-11.432,10.657,11.996,-22.901,28.049,-21.59,92.242,-42.707,21.507,-35.212,35.234,-9.9892,25.314,-40.271
-6.4015,11.81,-11.432,10.657,11.996,-22.901,28.049,-21.59,92.242,-42.707,21.507,-35.212,35.234,-9.9892,25.314,-40.271
-6.4897,11.765,-11.236,10.453,12.234,-23.048,28.138,-21.694,92.309,-42.871,21.51,-35.232,35.251,-10.047,25.445,-40.238
-6.4897,11.765,-11.236,10.453,12.234,-23.048,28.138,-21.694,92.309,-42.871,21.51,-35.232,35.251,-10.047,25.445,-40.238
-6.5783,11.721,-11.041,10.25,12.471,-23.194,28.225,-21.797,92.374,-43.033,21.513,-35.251,35.267,-10.104,25.576,-40.203
-6.5783,11.721,-11.041,10.25,12.471,-23.194,28.225,-21.797,92.374,-43.033,21.513,-35.251,35.267,-10.104,25.576,-40.203
-6.5783,11.721,-11.041,10.25,12.471,-23.194,28.225,-21.797,92.374,-43.033,21.513,-35.251,35.267,-10.104,25.576,-40.203
-6.6673,11.676,-10.847,10.047,12.706,-23.341,28.31,-21.899,92.434,-43.194,21.514,-35.27,35.281,-10.161,25.705,-40.167
-6.6673,11.676,-10.847,10.047,12.706,-23.341,28.31,-21.899,92.434,-43.194,21.514,-35.27,35.281,-10.161,25.705,-40.167
-6.6673,11.676,-10.847,10.047,12.706,-23.341,28.31,-21.899,92.434,-43.194,21.514,-35.27,35.281,-10.161,25.705,-40.167
-6.8468,11.587,-10.463,9.642,13.17,-23.635,28.473,-22.102,92.546,-43.509,21.513,-35.304,35.307,-10.271,25.962,-40.092
-6.8468,11.587,-10.463,9.642,13.17,-23.635,28.473,-22.102,92.546,-43.509,21.513,-35.304,35.307,-10.271,25.962,-40.092
-6.9372,11.542,-10.272,9.44,13.4,-23.782,28.552,-22.203,92.597,-43.663,21.511,-35.32,35.319,-10.325,26.09,-40.053
-6.9372,11.542,-10.272,9.44,13.4,-23.782,28.552,-22.203,92.597,-43.663,21.511,-35.32,35.319,-10.325,26.09,-40.053
-7.028,11.498,-10.083,9.2385,13.628,-23.928,28.628,-22.302,92.645,-43.816,21.509,-35.336,35.329,-10.378,26.216,-40.012
-7.1192,11.454,-9.8954,9.0373,13.854,-24.075,28.701,-22.401,92.689,-43.966,21.505,-35.35,35.338,-10.43,26.342,-39.97
-7.1192,11.454,-9.8954,9.0373,13.854,-24.075,28.701,-22.401,92.689,-43.966,21.505,-35.35,35.338,-10.43,26.342,-39.97
-7.2109,11.409,-9.7089,8.8365,14.079,-24.221,28.773,-22.499,92.73,-44.114,21.5,-35.363,35.346,-10.482,26.467,-39.927
-7.2109,11.409,-9.7089,8.8365,14.079,-24.221,28.773,-22.499,92.73,-44.114,21.5,-35.363,35.346,-10.482,26.467,-39.927
-7.2109,11.409,-9.7089,8.8365,14.079,-24.221,28.773,-22.499,92.73,-44.114,21.5,-35.363,35.346,-10.482,26.467,-39.927
-7.3031,11.365,-9.5237,8.6361,14.302,-24.368,28.842,-22.596,92.768,-44.261,21.494,-35.376,35.352,-10.532,26.592,-39.883
-7.3031,11.365,-9.5237,8.6361,14.302,-24.368,28.842,-22.596,92.768,-44.261,21.494,-35.376,35.352,-10.532,26.592,-39.883
-7.3031,11.365,-9.5237,8.6361,14.302,-24.368,28.842,-22.596,92.768,-44.261,21.494,-35.376,35.352,-10.532,26.592,-39.883
-7.3957,11.321,-9.3398,8.4362,14.522,-24.514,28.91,-22.693,92.803,-44.405,21.488,-35.387,35.358,-10.582,26.715,-39.837
-7.4887,11.277,-9.1572,8.2367,14.741,-24.66,28.975,-22.789,92.834,-44.548,21.48,-35.398,35.363,-10.631,26.838,-39.791
-7.5822,11.233,-8.976,8.0377,14.959,-24.806,29.037,-22.884,92.862,-44.688,21.471,-35.407,35.366,-10.679,26.96,-39.743
-7.5822,11.233,-8.976,8.0377,14.959,-24.806,29.037,-22.884,92.862,-44.688,21.471,-35.407,35.366,-10.679,26.96,-39.743
-7.5822,11.233,-8.976,8.0377,14.959,-24.806,29.037,-22.884,92.862,-44.688,21.471,-35.407,35.366,-10.679,26.96,-39.743
-7.6761,11.19,-8.7961,7.8391,15.174,-24.952,29.098,-22.978,92.886,-44.826,21.461,-35.416,35.368,-10.726,27.081,-39.693
-7.6761,11.19,-8.7961,7.8391,15.174,-24.952,29.098,-22.978,92.886,-44.826,21.461,-35.416,35.368,-10.726,27.081,-39.693
-7.7704,11.146,-8.6177,7.641,15.387,-25.097,29.156,-23.071,92.908,-44.963,21.45,-35.424,35.369,-10.772,27.201,-39.643
-7.7704,11.146,-8.6177,7.641,15.387,-25.097,29.156,-23.071,92.908,-44.963,21.45,-35.424,35.369,-10.772,27.201,-39.643
-7.7704,11.146,-8.6177,7.641,15.387,-25.097,29.156,-23.071,92.908,-44.963,21.45,-35.424,35.369,-10.772,27.201,-39.643
-7.8652,11.103,-8.4406,7.4435,15.599,-25.243,29.212,-23.164,92.926,-45.097,21.438,-35.43,35.369,-10.817,27.321,-39.591
-7.9604,11.059,-8.265,7.2464,15.808,-25.388,29.265,-23.256,92.94,-45.229,21.425,-35.436,35.368,-10.862,27.439,-39.537
-8.0561,11.016,-8.0909,7.0499,16.016,-25.533,29.317,-23.347,92.952,-45.359,21.41,-35.441,35.366,-10.905,27.557,-39.483
-8.0561,11.016,-8.0909,7.0499,16.016,-25.533,29.317,-23.347,92.952,-45.359,21.41,-35.441,35.366,-10.905,27.557,-39.483
-8.1522,10.973,-7.9181,6.854,16.222,-25.677,29.366,-23.437,92.96,-45.486,21.395,-35.444,35.363,-10.947,27.674,-39.427
-8.1522,10.973,-7.9181,6.854,16.222,-25.677,29.366,-23.437,92.96,-45.486,21.395,-35.444,35.363,-10.947,27.674,-39.427
-8.1522,10.973,-7.9181,6.854,16.222,-25.677,29.366,-23.437,92.96,-45.486,21.395,-35.444,35.363,-10.947,27.674,-39.427
-8.2488,10.93,-7.7469,6.6586,16.426,-25.822,29.413,-23.526,92.965,-45.612,21.378,-35.447,35.358,-10.989,27.79,-39.37
-8.2488,10.93,-7.7469,6.6586,16.426,-25.822,29.413,-23.526,92.965,-45.612,21.378,-35.447,35.358,-10.989,27.79,-39.37
-8.3458,10.887,-7.5771,6.4638,16.628,-25.966,29.457,-23.615,92.966,-45.736,21.361,-35.448,35.352,-11.029,27.905,-39.311
-8.3458,10.887,-7.5771,6.4638,16.628,-25.966,29.457,-23.615,92.966,-45.736,21.361,-35.448,35.352,-11.029,27.905,-39.311
-8.4432,10.844,-7.4089,6.2695,16.827,-26.11,29.5,-23.703,92.964,-45.857,21.342,-35.449,35.346,-11.069,28.02,-39.251
-8.4432,10.844,-7.4089,6.2695,16.827,-26.11,29.5,-23.703,92.964,-45.857,21.342,-35.449,35.346,-11.069,28.02,-39.251
-8.4432,10.844,-7.4089,6.2695,16.827,-26.11,29.5,-23.703,92.964,-45.857,21.342,-35.449,35.346,-11.069,28.02,-39.251
-8.5411,10.801,-7.2422,6.0759,17.025,-26.253,29.54,-23.79,92.959,-45.976,21.322,-35.448,35.338,-11.107,28.133,-39.19
-8.5411,10.801,-7.2422,6.0759,17.025,-26.253,29.54,-23.79,92.959,-45.976,21.322,-35.448,35.338,-11.107,28.133,-39.19
-8.5411,10.801,-7.2422,6.0759,17.025,-26.253,29.54,-23.79,92.959,-45.976,21.322,-35.448,35.338,-11.107,28.133,-39.19
-8.7382,10.716,-6.9134,5.6906,17.415,-26.539,29.613,-23.961,92.939,-46.209,21.278,-35.444,35.319,-11.181,28.357,-39.063
-8.7382,10.716,-6.9134,5.6906,17.415,-26.539,29.613,-23.961,92.939,-46.209,21.278,-35.444,35.319,-11.181,28.357,-39.063
-8.8374,10.674,-6.7514,5.4989,17.607,-26.681,29.646,-24.046,92.924,-46.322,21.255,-35.44,35.307,-11.217,28.468,-38.997
-8.8374,10.674,-6.7514,5.4989,17.607,-26.681,29.646,-24.046,92.924,-46.322,21.255,-35.44,35.307,-11.217,28.468,-38.997
-8.937,10.632,-6.591,5.3078,17.796,-26.823,29.677,-24.129,92.906,-46.432,21.23,-35.435,35.295,-11.251,28.578,-38.93
-8.937,10.632,-6.591,5.3078,17.796,-26.823,29.677,-24.129,92.906,-46.432,21.23,-35.435,35.295,-11.251,28.578,-38.93
-9.0371,10.59,-6.4321,5.1175,17.984,-26.965,29.705,-24.212,92.884,-46.541,21.204,-35.429,35.282,-11.285,28.687,-38.862
-9.1376,10.548,-6.2749,4.9278,18.17,-27.106,29.731,-24.294,92.859,-46.647,21.177,-35.421,35.267,-11.317,28.795,-38.792
-9.1376,10.548,-6.2749,4.9278,18.17,-27.106,29.731,-24.294,92.859,-46.647,21.177,-35.421,35.267,-11.317,28.795,-38.792
-9.2386,10.506,-6.1194,4.7388,18.353,-27.247,29.755,-24.375,92.831,-46.751,21.149,-35.413,35.251,-11.349,28.902,-38.721
-9.2386,10.506,-6.1194,4.7388,18.353,-27.247,29.755,-24.375,92.831,-46.751,21.149,-35.413,35.251,-11.349,28.902,-38.721
-9.2386,10.506,-6.1194,4.7388,18.353,-27.247,29.755,-24.375,92.831,-46.751,21.149,-35.413,35.251,-11.349,28.902,-38.721
-9.3399,10.465,-5.9654,4.5505,18.535,-27.387,29.777,-24.455,92.799,-46.853,21.119,-35.403,35.235,-11.379,29.008,-38.648
-9.3399,10.465,-5.9654,4.5505,18.535,-27.387,29.777,-24.455,92.799,-46.853,21.119,-35.403,35.235,-11.379,29.008,-38.648
-9.4418,10.423,-5.8132,4.363,18.714,-27.527,29.796,-24.535,92.764,-46.953,21.088,-35.392,35.217,-11.408,29.113,-38.574
-9.4418,10.423,-5.8132,4.363,18.714,-27.527,29.796,-24.535,92.764,-46.953,21.088,-35.392,35.217,-11.408,29.113,-38.574
-9.544,10.382,-5.6626,4.1762,18.891,-27.666,29.813,-24.613,92.726,-47.05,21.056,-35.38,35.198,-11.436,29.217,-38.499
-9.544,10.382,-5.6626,4.1762,18.891,-27.666,29.813,-24.613,92.726,-47.05,21.056,-35.38,35.198,-11.436,29.217,-38.499
-9.6467,10.341,-5.5138,3.9902,19.066,-27.805,29.828,-24.691,92.684,-47.146,21.023,-35.367,35.178,-11.464,29.32,-38.422
-9.6467,10.341,-5.5138,3.9902,19.066,-27.805,29.828,-24.691,92.684,-47.146,21.023,-35.367,35.178,-11.464,29.32,-38.422
-9.7499,10.3,-5.3667,3.8049,19.239,-27.944,29.84,-24.768,92.64,-47.239,20.988,-35.353,35.157,-11.49,29.422,-38.344
-9.7499,10.3,-5.3667,3.8049,19.239,-27.944,29.84,-24.768,92.64,-47.239,20.988,-35.353,35.157,-11.49,29.422,-38.344
-9.7499,10.3,-5.3667,3.8049,19.239,-27.944,29.84,-24.768,92.64,-47.239,20.988,-35.353,35.157,-11.49,29.422,-38.344
-9.8534,10.259,-5.2213,3.6204,19.41,-28.081,29.85,-24.844,92.591,-47.33,20.952,-35.337,35.134,-11.515,29.524,-38.264
-9.8534,10.259,-5.2213,3.6204,19.41,-28.081,29.85,-24.844,92.591,-47.33,20.952,-35.337,35.134,-11.515,29.524,-38.264
-9.8534,10.259,-5.2213,3.6204,19.41,-28.081,29.85,-24.844,92.591,-47.33,20.952,-35.337,35.134,-11.515,29.524,-38.264
-10.062,10.178,-4.9357,3.2537,19.745,-28.355,29.864,-24.993,92.485,-47.505,20.876,-35.302,35.086,-11.561,29.723,-38.1
-10.167,10.138,-4.7956,3.0716,19.909,-28.492,29.867,-25.067,92.427,-47.589,20.836,-35.283,35.061,-11.583,29.821,-38.015
-10.167,10.138,-4.7956,3.0716,19.909,-28.492,29.867,-25.067,92.427,-47.589,20.836,-35.283,35.061,-11.583,29.821,-38.015
-10.272,10.098,-4.6573,2.8903,20.071,-28.627,29.867,-25.139,92.366,-47.671,20.795,-35.263,35.034,-11.603,29.918,-37.929
-10.272,10.098,-4.6573,2.8903,20.071,-28.627,29.867,-25.139,92.366,-47.671,20.795,-35.263,35.034,-11.603,29.918,-37.929
-10.378,10.058,-4.5207,2.7098,20.231,-28.762,29.866,-25.211,92.302,-47.75,20.753,-35.241,35.007,-11.623,30.014,-37.842
-10.378,10.058,-4.5207,2.7098,20.231,-28.762,29.866,-25.211,92.302,-47.75,20.753,-35.241,35.007,-11.623,30.014,-37.842
-10.378,10.058,-4.5207,2.7098,20.231,-28.762,29.866,-25.211,92.302,-47.75,20.753,-35.241,35.007,-11.623,30.014,-37.842
-10.484,10.018,-4.386,2.5302,20.389,-28.897,29.862,-25.282,92.234,-47.828,20.709,-35.218,34.978,-11.641,30.109,-37.753
-10.484,10.018,-4.386,2.5302,20.389,-28.897,29.862,-25.282,92.234,-47.828,20.709,-35.218,34.978,-11.641,30.109,-37.753
-10.484,10.018,-4.386,2.5302,20.389,-28.897,29.862,-25.282,92.234,-47.828,20.709,-35.218,34.978,-11.641,30.109,-37.753
-10.59,9.9786,-4.2532,2.3514,20.544,-29.031,29.856,-25.352,92.163,-47.903,20.664,-35.194,34.948,-11.658,30.203,-37.663
-10.59,9.9786,-4.2532,2.3514,20.544,-29.031,29.856,-25.352,92.163,-47.903,20.664,-35.194,34.948,-11.658,30.203,-37.663
-10.59,9.9786,-4.2532,2.3514,20.544,-29.031,29.856,-25.352,92.163,-47.903,20.664,-35.194,34.948,-11.658,30.203,-37.663
-10.805,9.8998,-3.993,1.9965,20.848,-29.296,29.837,-25.489,92.011,-48.046,20.569,-35.141,34.885,-11.69,30.388,-37.478
-10.805,9.8998,-3.993,1.9965,20.848,-29.296,29.837,-25.489,92.011,-48.046,20.569,-35.141,34.885,-11.69,30.388,-37.478
-10.913,9.8608,-3.8657,1.8203,20.997,-29.428,29.824,-25.556,91.93,-48.115,20.52,-35.113,34.852,-11.703,30.479,-37.384
-10.913,9.8608,-3.8657,1.8203,20.997,-29.428,29.824,-25.556,91.93,-48.115,20.52,-35.113,34.852,-11.703,30.479,-37.384
-11.021,9.8218,-3.7403,1.6451,21.143,-29.559,29.808,-25.623,91.846,-48.181,20.47,-35.084,34.818,-11.716,30.568,-37.287
-11.021,9.8218,-3.7403,1.6451,21.143,-29.559,29.808,-25.623,91.846,-48.181,20.47,-35.084,34.818,-11.716,30.568,-37.287
-11.13,9.7831,-3.6168,1.4707,21.288,-29.69,29.791,-25.688,91.759,-48.245,20.418,-35.053,34.782,-11.728,30.657,-37.19
-11.13,9.7831,-3.6168,1.4707,21.288,-29.69,29.791,-25.688,91.759,-48.245,20.418,-35.053,34.782,-11.728,30.657,-37.19
-11.239,9.7445,-3.4952,1.2973,21.429,-29.82,29.771,-25.753,91.668,-48.306,20.364,-35.021,34.746,-11.738,30.744,-37.09
-11.239,9.7445,-3.4952,1.2973,21.429,-29.82,29.771,-25.753,91.668,-48.306,20.364,-35.021,34.746,-11.738,30.744,-37.09
-11.348,9.7061,-3.3755,1.1248,21.569,-29.949,29.748,-25.817,91.574,-48.365,20.309,-34.988,34.709,-11.748,30.831,-36.99
-11.348,9.7061,-3.3755,1.1248,21.569,-29.949,29.748,-25.817,91.574,-48.365,20.309,-34.988,34.709,-11.748,30.831,-36.99
-11.458,9.6679,-3.2578,0.95318,21.706,-30.077,29.724,-25.88,91.477,-48.422,20.253,-34.954,34.67,-11.756,30.916,-36.887
-11.458,9.6679,-3.2578,0.95318,21.706,-30.077,29.724,-25.88,91.477,-48.422,20.253,-34.954,34.67,-11.756,30.916,-36.887
-11.569,9.6298,-3.142,0.78252,21.841,-30.205,29.697,-25.942,91.377,-48.477,20.196,-34.918,34.631,-11.763,31,-36.784
-11.569,9.6298,-3.142,0.78252,21.841,-30.205,29.697,-25.942,91.377,-48.477,20.196,-34.918,34.631,-11.763,31,-36.784
-11.68,9.592,-3.0282,0.61282,21.974,-30.331,29.667,-26.004,91.273,-48.53,20.137,-34.881,34.591,-11.769,31.083,-36.678
-11.68,9.592,-3.0282,0.61282,21.974,-30.331,29.667,-26.004,91.273,-48.53,20.137,-34.881,34.591,-11.769,31.083,-36.678
-11.791,9.5543,-2.9163,0.44407,22.105,-30.458,29.636,-26.064,91.167,-48.58,20.076,-34.842,34.549,-11.774,31.165,-36.572
-11.791,9.5543,-2.9163,0.44407,22.105,-30.458,29.636,-26.064,91.167,-48.58,20.076,-34.842,34.549,-11.774,31.165,-36.572
-11.902,9.5168,-2.8064,0.27628,22.233,-30.583,29.602,-26.124,91.057,-48.628,20.015,-34.802,34.507,-11.777,31.246,-36.463
-11.902,9.5168,-2.8064,0.27628,22.233,-30.583,29.602,-26.124,91.057,-48.628,20.015,-34.802,34.507,-11.777,31.246,-36.463
-11.902,9.5168,-2.8064,0.27628,22.233,-30.583,29.602,-26.124,91.057,-48.628,20.015,-34.802,34.507,-11.777,31.246,-36.463
-12.015,9.4794,-2.6986,0.10947,22.359,-30.707,29.566,-26.183,90.944,-48.673,19.951,-34.761,34.463,-11.78,31.325,-36.353
-12.015,9.4794,-2.6986,0.10947,22.359,-30.707,29.566,-26.183,90.944,-48.673,19.951,-34.761,34.463,-11.78,31.325,-36.353
-12.24,9.4053,-2.4888,-0.22121,22.603,-30.954,29.487,-26.298,90.708,-48.758,19.821,-34.675,34.373,-11.782,31.48,-36.129
-12.24,9.4053,-2.4888,-0.22121,22.603,-30.954,29.487,-26.298,90.708,-48.758,19.821,-34.675,34.373,-11.782,31.48,-36.129
-12.24,9.4053,-2.4888,-0.22121,22.603,-30.954,29.487,-26.298,90.708,-48.758,19.821,-34.675,34.373,-11.782,31.48,-36.129
-12.353,9.3685,-2.387,-0.38507,22.722,-31.076,29.444,-26.354,90.585,-48.797,19.753,-34.63,34.326,-11.781,31.556,-36.015
-12.353,9.3685,-2.387,-0.38507,22.722,-31.076,29.444,-26.354,90.585,-48.797,19.753,-34.63,34.326,-11.781,31.556,-36.015
-12.353,9.3685,-2.387,-0.38507,22.722,-31.076,29.444,-26.354,90.585,-48.797,19.753,-34.63,34.326,-11.781,31.556,-36.015
-12.467,9.3319,-2.2872,-0.54792,22.839,-31.197,29.399,-26.409,90.459,-48.833,19.684,-34.584,34.279,-11.779,31.631,-35.899
-12.467,9.3319,-2.2872,-0.54792,22.839,-31.197,29.399,-26.409,90.459,-48.833,19.684,-34.584,34.279,-11.779,31.631,-35.899
-12.581,9.2954,-2.1895,-0.70976,22.953,-31.318,29.351,-26.464,90.33,-48.867,19.614,-34.536,34.23,-11.775,31.705,-35.782
-12.581,9.2954,-2.1895,-0.70976,22.953,-31.318,29.351,-26.464,90.33,-48.867,19.614,-34.536,34.23,-11.775,31.705,-35.782
-12.695,9.2591,-2.0938,-0.87059,23.065,-31.437,29.301,-26.518,90.198,-48.899,19.542,-34.487,34.18,-11.771,31.777,-35.663
-12.695,9.2591,-2.0938,-0.87059,23.065,-31.437,29.301,-26.518,90.198,-48.899,19.542,-34.487,34.18,-11.771,31.777,-35.663
-12.81,9.223,-2.0002,-1.0304,23.174,-31.556,29.249,-26.57,90.063,-48.929,19.468,-34.436,34.13,-11.766,31.848,-35.543
-12.81,9.223,-2.0002,-1.0304,23.174,-31.556,29.249,-26.57,90.063,-48.929,19.468,-34.436,34.13,-11.766,31.848,-35.543
-13.041,9.1514,-1.8192,-1.3469,23.386,-31.79,29.138,-26.674,89.783,-48.982,19.317,-34.331,34.025,-11.751,31.987,-35.298
-13.041,9.1514,-1.8192,-1.3469,23.386,-31.79,29.138,-26.674,89.783,-48.982,19.317,-34.331,34.025,-11.751,31.987,-35.298
-13.041,9.1514,-1.8192,-1.3469,23.386,-31.79,29.138,-26.674,89.783,-48.982,19.317,-34.331,34.025,-11.751,31.987,-35.298
-13.157,9.1158,-1.7319,-1.5036,23.489,-31.906,29.08,-26.724,89.638,-49.005,19.239,-34.277,33.972,-11.743,32.054,-35.173
-13.157,9.1158,-1.7319,-1.5036,23.489,-31.906,29.08,-26.724,89.638,-49.005,19.239,-34.277,33.972,-11.743,32.054,-35.173
-13.157,9.1158,-1.7319,-1.5036,23.489,-31.906,29.08,-26.724,89.638,-49.005,19.239,-34.277,33.972,-11.743,32.054,-35.173
-13.274,9.0804,-1.6466,-1.6593,23.589,-32.021,29.019,-26.774,89.491,-49.026,19.16,-34.221,33.917,-11.733,32.12,-35.046
-13.391,9.0452,-1.5635,-1.8139,23.686,-32.136,28.955,-26.823,89.34,-49.044,19.079,-34.164,33.862,-11.722,32.185,-34.919
-13.391,9.0452,-1.5635,-1.8139,23.686,-32.136,28.955,-26.823,89.34,-49.044,19.079,-34.164,33.862,-11.722,32.185,-34.919
-13.508,9.0101,-1.4825,-1.9674,23.782,-32.249,28.89,-26.871,89.186,-49.06,18.997,-34.106,33.805,-11.709,32.248,-34.789
-13.508,9.0101,-1.4825,-1.9674,23.782,-32.249,28.89,-26.871,89.186,-49.06,18.997,-34.106,33.805,-11.709,32.248,-34.789
-13.625,8.9752,-1.4036,-2.1199,23.875,-32.361,28.822,-26.918,89.029,-49.074,18.913,-34.046,33.748,-11.696,32.311,-34.659
-13.625,8.9752,-1.4036,-2.1199,23.875,-32.361,28.822,-26.918,89.029,-49.074,18.913,-34.046,33.748,-11.696,32.311,-34.659
-13.743,8.9405,-1.3269,-2.2714,23.965,-32.472,28.752,-26.964,88.869,-49.086,18.828,-33.985,33.689,-11.682,32.372,-34.527
-13.743,8.9405,-1.3269,-2.2714,23.965,-32.472,28.752,-26.964,88.869,-49.086,18.828,-33.985,33.689,-11.682,32.372,-34.527
-13.862,8.906,-1.2523,-2.4217,24.054,-32.583,28.68,-27.01,88.706,-49.095,18.741,-33.922,33.63,-11.666,32.431,-34.393
-13.862,8.906,-1.2523,-2.4217,24.054,-32.583,28.68,-27.01,88.706,-49.095,18.741,-33.922,33.63,-11.666,32.431,-34.393
-13.981,8.8716,-1.1799,-2.571,24.139,-32.692,28.605,-27.055,88.539,-49.103,18.653,-33.859,33.57,-11.65,32.49,-34.258
-13.981,8.8716,-1.1799,-2.571,24.139,-32.692,28.605,-27.055,88.539,-49.103,18.653,-33.859,33.57,-11.65,32.49,-34.258
-14.1,8.8374,-1.1096,-2.7192,24.223,-32.8,28.529,-27.099,88.37,-49.108,18.563,-33.793,33.508,-11.632,32.547,-34.121
-14.1,8.8374,-1.1096,-2.7192,24.223,-32.8,28.529,-27.099,88.37,-49.108,18.563,-33.793,33.508,-11.632,32.547,-34.121
-14.219,8.8033,-1.0415,-2.8663,24.304,-32.908,28.45,-27.142,88.198,-49.11,18.472,-33.727,33.446,-11.613,32.602,-33.983
-14.219,8.8033,-1.0415,-2.8663,24.304,-32.908,28.45,-27.142,88.198,-49.11,18.472,-33.727,33.446,-11.613,32.602,-33.983
-14.219,8.8033,-1.0415,-2.8663,24.304,-32.908,28.45,-27.142,88.198,-49.11,18.472,-33.727,33.446,-11.613,32.602,-33.983
-14.339,8.7694,-0.97558,-3.0123,24.383,-33.014,28.369,-27.184,88.023,-49.111,18.379,-33.659,33.383,-11.593,32.657,-33.844
-14.339,8.7694,-0.97558,-3.0123,24.383,-33.014,28.369,-27.184,88.023,-49.111,18.379,-33.659,33.383,-11.593,32.657,-33.844
-14.339,8.7694,-0.97558,-3.0123,24.383,-33.014,28.369,-27.184,88.023,-49.111,18.379,-33.659,33.383,-11.593,32.657,-33.844
-14.58,8.7022,-0.85027,-3.3011,24.533,-33.223,28.201,-27.267,87.663,-49.106,18.189,-33.52,33.254,-11.551,32.762,-33.561
-14.58,8.7022,-0.85027,-3.3011,24.533,-33.223,28.201,-27.267,87.663,-49.106,18.189,-33.52,33.254,-11.551,32.762,-33.561
-14.701,8.6687,-0.7909,-3.4439,24.605,-33.327,28.114,-27.307,87.479,-49.1,18.092,-33.448,33.189,-11.527,32.812,-33.417
-14.701,8.6687,-0.7909,-3.4439,24.605,-33.327,28.114,-27.307,87.479,-49.1,18.092,-33.448,33.189,-11.527,32.812,-33.417
-14.701,8.6687,-0.7909,-3.4439,24.605,-33.327,28.114,-27.307,87.479,-49.1,18.092,-33.448,33.189,-11.527,32.812,-33.417
-14.701,8.6687,-0.7909,-3.4439,24.605,-33.327,28.114,-27.307,87.479,-49.1,18.092,-33.448,33.189,-11.527,32.812,-33.417
-14.944,8.6024,-0.67876,-3.7261,24.741,-33.53,27.932,-27.385,87.102,-49.081,17.892,-33.301,33.054,-11.478,32.909,-33.126
-14.944,8.6024,-0.67876,-3.7261,24.741,-33.53,27.932,-27.385,87.102,-49.081,17.892,-33.301,33.054,-11.478,32.909,-33.126
-15.066,8.5695,-0.62601,-3.8655,24.805,-33.63,27.838,-27.423,86.909,-49.068,17.79,-33.225,32.986,-11.452,32.955,-32.978
-15.066,8.5695,-0.62601,-3.8655,24.805,-33.63,27.838,-27.423,86.909,-49.068,17.79,-33.225,32.986,-11.452,32.955,-32.978
-15.066,8.5695,-0.62601,-3.8655,24.805,-33.63,27.838,-27.423,86.909,-49.068,17.79,-33.225,32.986,-11.452,32.955,-32.978
-15.188,8.5367,-0.57547,-4.0038,24.868,-33.729,27.742,-27.46,86.713,-49.054,17.687,-33.148,32.917,-11.425,33,-32.828
-15.188,8.5367,-0.57547,-4.0038,24.868,-33.729,27.742,-27.46,86.713,-49.054,17.687,-33.148,32.917,-11.425,33,-32.828
-15.434,8.4715,-0.48105,-4.2772,24.985,-33.924,27.544,-27.533,86.312,-49.018,17.476,-32.991,32.775,-11.367,33.085,-32.526
-15.434,8.4715,-0.48105,-4.2772,24.985,-33.924,27.544,-27.533,86.312,-49.018,17.476,-32.991,32.775,-11.367,33.085,-32.526
-15.434,8.4715,-0.48105,-4.2772,24.985,-33.924,27.544,-27.533,86.312,-49.018,17.476,-32.991,32.775,-11.367,33.085,-32.526
-15.558,8.4391,-0.43717,-4.4122,25.04,-34.02,27.442,-27.568,86.107,-48.996,17.368,-32.91,32.703,-11.337,33.126,-32.372
-15.558,8.4391,-0.43717,-4.4122,25.04,-34.02,27.442,-27.568,86.107,-48.996,17.368,-32.91,32.703,-11.337,33.126,-32.372
-15.681,8.4069,-0.39554,-4.5461,25.092,-34.114,27.338,-27.602,85.9,-48.973,17.258,-32.828,32.631,-11.306,33.165,-32.218
-15.681,8.4069,-0.39554,-4.5461,25.092,-34.114,27.338,-27.602,85.9,-48.973,17.258,-32.828,32.631,-11.306,33.165,-32.218
-15.806,8.3749,-0.35613,-4.6789,25.143,-34.208,27.231,-27.636,85.689,-48.948,17.147,-32.745,32.557,-11.273,33.203,-32.062
-15.93,8.3429,-0.31897,-4.8105,25.191,-34.3,27.123,-27.669,85.476,-48.92,17.035,-32.66,32.483,-11.24,33.24,-31.904
-15.93,8.3429,-0.31897,-4.8105,25.191,-34.3,27.123,-27.669,85.476,-48.92,17.035,-32.66,32.483,-11.24,33.24,-31.904
-16.055,8.3111,-0.28404,-4.9411,25.236,-34.392,27.013,-27.701,85.26,-48.89,16.921,-32.574,32.407,-11.206,33.275,-31.746
-16.055,8.3111,-0.28404,-4.9411,25.236,-34.392,27.013,-27.701,85.26,-48.89,16.921,-32.574,32.407,-11.206,33.275,-31.746
-16.055,8.3111,-0.28404,-4.9411,25.236,-34.392,27.013,-27.701,85.26,-48.89,16.921,-32.574,32.407,-11.206,33.275,-31.746
-16.18,8.2794,-0.25136,-5.0705,25.279,-34.482,26.9,-27.733,85.041,-48.859,16.805,-32.487,32.331,-11.171,33.308,-31.586
-16.18,8.2794,-0.25136,-5.0705,25.279,-34.482,26.9,-27.733,85.041,-48.859,16.805,-32.487,32.331,-11.171,33.308,-31.586
-16.305,8.2479,-0.22093,-5.1989,25.32,-34.571,26.785,-27.764,84.82,-48.825,16.688,-32.399,32.255,-11.135,33.34,-31.425
-16.305,8.2479,-0.22093,-5.1989,25.32,-34.571,26.785,-27.764,84.82,-48.825,16.688,-32.399,32.255,-11.135,33.34,-31.425
-16.431,8.2164,-0.19275,-5.3261,25.359,-34.659,26.669,-27.794,84.595,-48.789,16.57,-32.309,32.177,-11.098,33.371,-31.262
-16.557,8.1851,-0.16681,-5.4522,25.395,-34.746,26.55,-27.824,84.368,-48.751,16.45,-32.219,32.099,-11.06,33.4,-31.098
-16.557,8.1851,-0.16681,-5.4522,25.395,-34.746,26.55,-27.824,84.368,-48.751,16.45,-32.219,32.099,-11.06,33.4,-31.098
-16.557,8.1851,-0.16681,-5.4522,25.395,-34.746,26.55,-27.824,84.368,-48.751,16.45,-32.219,32.099,-11.06,33.4,-31.098
-16.683,8.154,-0.14313,-5.5771,25.429,-34.832,26.43,-27.853,84.138,-48.711,16.328,-32.127,32.019,-11.021,33.428,-30.933
-16.683,8.154,-0.14313,-5.5771,25.429,-34.832,26.43,-27.853,84.138,-48.711,16.328,-32.127,32.019,-11.021,33.428,-30.933
-16.683,8.154,-0.14313,-5.5771,25.429,-34.832,26.43,-27.853,84.138,-48.711,16.328,-32.127,32.019,-11.021,33.428,-30.933
-16.81,8.1229,-0.12171,-5.701,25.46,-34.916,26.307,-27.882,83.905,-48.669,16.205,-32.033,31.939,-10.981,33.454,-30.767
-16.81,8.1229,-0.12171,-5.701,25.46,-34.916,26.307,-27.882,83.905,-48.669,16.205,-32.033,31.939,-10.981,33.454,-30.767
-16.81,8.1229,-0.12171,-5.701,25.46,-34.916,26.307,-27.882,83.905,-48.669,16.205,-32.033,31.939,-10.981,33.454,-30.767
-17.064,8.0611,-0.085627,-5.9454,25.516,-35.082,26.057,-27.937,83.432,-48.579,15.954,-31.844,31.777,-10.899,33.502,-30.431
-17.064,8.0611,-0.085627,-5.9454,25.516,-35.082,26.057,-27.937,83.432,-48.579,15.954,-31.844,31.777,-10.899,33.502,-30.431
-17.064,8.0611,-0.085627,-5.9454,25.516,-35.082,26.057,-27.937,83.432,-48.579,15.954,-31.844,31.777,-10.899,33.502,-30.431
-17.192,8.0303,-0.070971,-6.0659,25.541,-35.163,25.928,-27.964,83.191,-48.53,15.827,-31.747,31.695,-10.856,33.524,-30.261
-17.192,8.0303,-0.070971,-6.0659,25.541,-35.163,25.928,-27.964,83.191,-48.53,15.827,-31.747,31.695,-10.856,33.524,-30.261
-17.192,8.0303,-0.070971,-6.0659,25.541,-35.163,25.928,-27.964,83.191,-48.53,15.827,-31.747,31.695,-10.856,33.524,-30.261
-17.448,7.9692,-0.048433,-6.3036,25.583,-35.321,25.666,-28.015,82.701,-48.428,15.567,-31.55,31.528,-10.769,33.563,-29.917
-17.448,7.9692,-0.048433,-6.3036,25.583,-35.321,25.666,-28.015,82.701,-48.428,15.567,-31.55,31.528,-10.769,33.563,-29.917
-17.576,7.9387,-0.04055,-6.4208,25.601,-35.398,25.532,-28.04,82.453,-48.374,15.435,-31.45,31.444,-10.724,33.58,-29.744
-17.576,7.9387,-0.04055,-6.4208,25.601,-35.398,25.532,-28.04,82.453,-48.374,15.435,-31.45,31.444,-10.724,33.58,-29.744
-17.576,7.9387,-0.04055,-6.4208,25.601,-35.398,25.532,-28.04,82.453,-48.374,15.435,-31.45,31.444,-10.724,33.58,-29.744
-17.705,7.9084,-0.034924,-6.5369,25.616,-35.475,25.396,-28.065,82.201,-48.318,15.301,-31.348,31.359,-10.678,33.596,-29.569
-17.705,7.9084,-0.034924,-6.5369,25.616,-35.475,25.396,-28.065,82.201,-48.318,15.301,-31.348,31.359,-10.678,33.596,-29.569
-17.705,7.9084,-0.034924,-6.5369,25.616,-35.475,25.396,-28.065,82.201,-48.318,15.301,-31.348,31.359,-10.678,33.596,-29.569
-17.963,7.8479,-0.03044,-6.7659,25.64,-35.624,25.119,-28.112,81.691,-48.2,15.03,-31.142,31.187,-10.584,33.623,-29.217
-17.963,7.8479,-0.03044,-6.7659,25.64,-35.624,25.119,-28.112,81.691,-48.2,15.03,-31.142,31.187,-10.584,33.623,-29.217
-18.092,7.8178,-0.031579,-6.8787,25.648,-35.696,24.977,-28.135,81.432,-48.138,14.892,-31.038,31.1,-10.536,33.634,-29.039
-18.092,7.8178,-0.031579,-6.8787,25.648,-35.696,24.977,-28.135,81.432,-48.138,14.892,-31.038,31.1,-10.536,33.634,-29.039
-18.092,7.8178,-0.031579,-6.8787,25.648,-35.696,24.977,-28.135,81.432,-48.138,14.892,-31.038,31.1,-10.536,33.634,-29.039
-18.222,7.7878,-0.034971,-6.9904,25.654,-35.768,24.834,-28.157,81.17,-48.075,14.752,-30.932,31.012,-10.487,33.644,-28.86
-18.352,7.7579,-0.040614,-7.101,25.658,-35.838,24.689,-28.179,80.906,-48.009,14.611,-30.825,30.923,-10.438,33.652,-28.68
-18.482,7.728,-0.048505,-7.2106,25.66,-35.907,24.542,-28.2,80.639,-47.942,14.469,-30.717,30.834,-10.388,33.659,-28.499
-18.482,7.728,-0.048505,-7.2106,25.66,-35.907,24.542,-28.2,80.639,-47.942,14.469,-30.717,30.834,-10.388,33.659,-28.499
-18.613,7.6982,-0.058642,-7.319,25.659,-35.975,24.393,-28.221,80.37,-47.872,14.325,-30.608,30.744,-10.336,33.664,-28.316
-18.613,7.6982,-0.058642,-7.319,25.659,-35.975,24.393,-28.221,80.37,-47.872,14.325,-30.608,30.744,-10.336,33.664,-28.316
-18.613,7.6982,-0.058642,-7.319,25.659,-35.975,24.393,-28.221,80.37,-47.872,14.325,-30.608,30.744,-10.336,33.664,-28.316
-18.744,7.6684,-0.071022,-7.4264,25.657,-36.041,24.243,-28.241,80.099,-47.801,14.18,-30.498,30.654,-10.285,33.667,-28.133
-18.744,7.6684,-0.071022,-7.4264,25.657,-36.041,24.243,-28.241,80.099,-47.801,14.18,-30.498,30.654,-10.285,33.667,-28.133
-18.744,7.6684,-0.071022,-7.4264,25.657,-36.041,24.243,-28.241,80.099,-47.801,14.18,-30.498,30.654,-10.285,33.667,-28.133
-18.875,7.6387,-0.085643,-7.5328,25.651,-36.107,24.091,-28.261,79.825,-47.728,14.033,-30.387,30.563,-10.232,33.669,-27.949
-19.006,7.6091,-0.1025,-7.638,25.644,-36.171,23.937,-28.281,79.548,-47.654,13.885,-30.275,30.471,-10.179,33.67,-27.764
-19.137,7.5795,-0.12159,-7.7422,25.635,-36.234,23.781,-28.3,79.269,-47.577,13.735,-30.162,30.379,-10.126,33.669,-27.578
-19.137,7.5795,-0.12159,-7.7422,25.635,-36.234,23.781,-28.3,79.269,-47.577,13.735,-30.162,30.379,-10.126,33.669,-27.578
-19.269,7.55,-0.14292,-7.8453,25.623,-36.295,23.624,-28.319,78.988,-47.499,13.584,-30.048,30.287,-10.071,33.666,-27.391
-19.269,7.55,-0.14292,-7.8453,25.623,-36.295,23.624,-28.319,78.988,-47.499,13.584,-30.048,30.287,-10.071,33.666,-27.391
-19.269,7.55,-0.14292,-7.8453,25.623,-36.295,23.624,-28.319,78.988,-47.499,13.584,-30.048,30.287,-10.071,33.666,-27.391
-19.401,7.5205,-0.16646,-7.9474,25.609,-36.356,23.465,-28.337,78.705,-47.419,13.431,-29.933,30.193,-10.016,33.661,-27.203
-19.401,7.5205,-0.16646,-7.9474,25.609,-36.356,23.465,-28.337,78.705,-47.419,13.431,-29.933,30.193,-10.016,33.661,-27.203
-19.401,7.5205,-0.16646,-7.9474,25.609,-36.356,23.465,-28.337,78.705,-47.419,13.431,-29.933,30.193,-10.016,33.661,-27.203
-19.533,7.491,-0.19223,-8.0484,25.593,-36.415,23.305,-28.355,78.419,-47.337,13.277,-29.817,30.099,-9.9607,33.656,-27.014
-19.665,7.4616,-0.22022,-8.1484,25.575,-36.473,23.143,-28.372,78.13,-47.253,13.122,-29.701,30.005,-9.9045,33.648,-26.824
-19.798,7.4322,-0.25042,-8.2474,25.554,-36.529,22.979,-28.389,77.84,-47.168,12.965,-29.583,29.91,-9.8478,33.639,-26.633
-19.798,7.4322,-0.25042,-8.2474,25.554,-36.529,22.979,-28.389,77.84,-47.168,12.965,-29.583,29.91,-9.8478,33.639,-26.633
-19.798,7.4322,-0.25042,-8.2474,25.554,-36.529,22.979,-28.389,77.84,-47.168,12.965,-29.583,29.91,-9.8478,33.639,-26.633
-19.931,7.4028,-0.28283,-8.3453,25.531,-36.585,22.813,-28.406,77.547,-47.081,12.807,-29.464,29.814,-9.7906,33.628,-26.442
-19.931,7.4028,-0.28283,-8.3453,25.531,-36.585,22.813,-28.406,77.547,-47.081,12.807,-29.464,29.814,-9.7906,33.628,-26.442
-20.064,7.3734,-0.31743,-8.4422,25.507,-36.639,22.646,-28.422,77.252,-46.993,12.648,-29.345,29.718,-9.7328,33.616,-26.249
-20.064,7.3734,-0.31743,-8.4422,25.507,-36.639,22.646,-28.422,77.252,-46.993,12.648,-29.345,29.718,-9.7328,33.616,-26.249
-20.064,7.3734,-0.31743,-8.4422,25.507,-36.639,22.646,-28.422,77.252,-46.993,12.648,-29.345,29.718,-9.7328,33.616,-26.249
-20.197,7.3441,-0.35424,-8.5381,25.48,-36.692,22.478,-28.439,76.954,-46.902,12.487,-29.224,29.622,-9.6746,33.602,-26.056
-20.33,7.3147,-0.39323,-8.633,25.451,-36.744,22.308,-28.454,76.655,-46.81,12.324,-29.103,29.525,-9.6158,33.587,-25.862
-20.463,7.2854,-0.43441,-8.7268,25.419,-36.794,22.136,-28.47,76.353,-46.717,12.161,-28.981,29.427,-9.5566,33.57,-25.668
-20.463,7.2854,-0.43441,-8.7268,25.419,-36.794,22.136,-28.47,76.353,-46.717,12.161,-28.981,29.427,-9.5566,33.57,-25.668
-20.463,7.2854,-0.43441,-8.7268,25.419,-36.794,22.136,-28.47,76.353,-46.717,12.161,-28.981,29.427,-9.5566,33.57,-25.668
-20.597,7.256,-0.47776,-8.8197,25.386,-36.843,21.963,-28.485,76.049,-46.622,11.996,-28.858,29.329,-9.4969,33.551,-25.472
-20.597,7.256,-0.47776,-8.8197,25.386,-36.843,21.963,-28.485,76.049,-46.622,11.996,-28.858,29.329,-9.4969,33.551,-25.472
-20.731,7.2267,-0.52329,-8.9116,25.35,-36.891,21.788,-28.5,75.743,-46.525,11.829,-28.734,29.231,-9.4369,33.531,-25.276
-20.731,7.2267,-0.52329,-8.9116,25.35,-36.891,21.788,-28.5,75.743,-46.525,11.829,-28.734,29.231,-9.4369,33.531,-25.276
-20.865,7.1973,-0.57098,-9.0025,25.313,-36.938,21.612,-28.515,75.435,-46.427,11.662,-28.609,29.132,-9.3763,33.509,-25.079
-20.865,7.1973,-0.57098,-9.0025,25.313,-36.938,21.612,-28.515,75.435,-46.427,11.662,-28.609,29.132,-9.3763,33.509,-25.079
-20.999,7.1679,-0.62082,-9.0924,25.273,-36.984,21.435,-28.529,75.125,-46.327,11.493,-28.484,29.032,-9.3155,33.486,-24.881
-20.999,7.1679,-0.62082,-9.0924,25.273,-36.984,21.435,-28.529,75.125,-46.327,11.493,-28.484,29.032,-9.3155,33.486,-24.881
-21.133,7.1385,-0.67282,-9.1813,25.232,-37.028,21.256,-28.543,74.812,-46.226,11.322,-28.358,28.933,-9.2542,33.461,-24.683
-21.133,7.1385,-0.67282,-9.1813,25.232,-37.028,21.256,-28.543,74.812,-46.226,11.322,-28.358,28.933,-9.2542,33.461,-24.683
-21.268,7.1091,-0.72695,-9.2693,25.188,-37.071,21.075,-28.557,74.498,-46.123,11.151,-28.231,28.832,-9.1926,33.434,-24.484
-21.268,7.1091,-0.72695,-9.2693,25.188,-37.071,21.075,-28.557,74.498,-46.123,11.151,-28.231,28.832,-9.1926,33.434,-24.484
-21.402,7.0796,-0.78322,-9.3563,25.142,-37.113,20.894,-28.571,74.181,-46.019,10.978,-28.104,28.732,-9.1307,33.406,-24.284
-21.402,7.0796,-0.78322,-9.3563,25.142,-37.113,20.894,-28.571,74.181,-46.019,10.978,-28.104,28.732,-9.1307,33.406,-24.284
-21.402,7.0796,-0.78322,-9.3563,25.142,-37.113,20.894,-28.571,74.181,-46.019,10.978,-28.104,28.732,-9.1307,33.406,-24.284
-21.537,7.0501,-0.84161,-9.4424,25.094,-37.153,20.711,-28.584,73.863,-45.914,10.804,-27.975,28.631,-9.0684,33.376,-24.084
-21.672,7.0206,-0.90212,-9.5276,25.044,-37.193,20.526,-28.598,73.542,-45.807,10.628,-27.846,28.53,-9.0059,33.345,-23.883
-21.807,6.991,-0.96473,-9.6118,24.992,-37.231,20.34,-28.611,73.22,-45.698,10.451,-27.717,28.428,-8.9431,33.312,-23.682
-21.807,6.991,-0.96473,-9.6118,24.992,-37.231,20.34,-28.611,73.22,-45.698,10.451,-27.717,28.428,-8.9431,33.312,-23.682
-21.942,6.9613,-1.0294,-9.6951,24.938,-37.267,20.153,-28.624,72.895,-45.588,10.273,-27.587,28.326,-8.88,33.277,-23.48
-21.942,6.9613,-1.0294,-9.6951,24.938,-37.267,20.153,-28.624,72.895,-45.588,10.273,-27.587,28.326,-8.88,33.277,-23.48
-21.942,6.9613,-1.0294,-9.6951,24.938,-37.267,20.153,-28.624,72.895,-45.588,10.273,-27.587,28.326,-8.88,33.277,-23.48
-22.077,6.9316,-1.0962,-9.7775,24.882,-37.303,19.965,-28.637,72.569,-45.477,10.094,-27.456,28.223,-8.8168,33.241,-23.278
-22.077,6.9316,-1.0962,-9.7775,24.882,-37.303,19.965,-28.637,72.569,-45.477,10.094,-27.456,28.223,-8.8168,33.241,-23.278
-22.077,6.9316,-1.0962,-9.7775,24.882,-37.303,19.965,-28.637,72.569,-45.477,10.094,-27.456,28.223,-8.8168,33.241,-23.278
-22.212,6.9019,-1.1651,-9.859,24.825,-37.337,19.775,-28.65,72.241,-45.364,9.9132,-27.324,28.121,-8.7533,33.203,-23.075
-22.348,6.872,-1.2361,-9.9396,24.765,-37.37,19.584,-28.662,71.911,-45.251,9.7314,-27.192,28.018,-8.6897,33.163,-22.871
-22.348,6.872,-1.2361,-9.9396,24.765,-37.37,19.584,-28.662,71.911,-45.251,9.7314,-27.192,28.018,-8.6897,33.163,-22.871
-22.348,6.872,-1.2361,-9.9396,24.765,-37.37,19.584,-28.662,71.911,-45.251,9.7314,-27.192,28.018,-8.6897,33.163,-22.871
-22.483,6.8421,-1.3091,-10.019,24.703,-37.402,19.392,-28.675,71.579,-45.135,9.5484,-27.06,27.914,-8.6259,33.122,-22.667
-22.483,6.8421,-1.3091,-10.019,24.703,-37.402,19.392,-28.675,71.579,-45.135,9.5484,-27.06,27.914,-8.6259,33.122,-22.667
-22.483,6.8421,-1.3091,-10.019,24.703,-37.402,19.392,-28.675,71.579,-45.135,9.5484,-27.06,27.914,-8.6259,33.122,-22.667
-22.755,6.782,-1.4612,-10.176,24.573,-37.462,19.004,-28.7,70.91,-44.901,9.1788,-26.793,27.707,-8.4979,33.035,-22.259
-22.755,6.782,-1.4612,-10.176,24.573,-37.462,19.004,-28.7,70.91,-44.901,9.1788,-26.793,27.707,-8.4979,33.035,-22.259
-22.755,6.782,-1.4612,-10.176,24.573,-37.462,19.004,-28.7,70.91,-44.901,9.1788,-26.793,27.707,-8.4979,33.035,-22.259
-22.89,6.7518,-1.5403,-10.253,24.506,-37.49,18.809,-28.712,70.572,-44.782,8.9922,-26.659,27.603,-8.4337,32.989,-22.053
-23.026,6.7216,-1.6215,-10.33,24.436,-37.517,18.612,-28.725,70.233,-44.662,8.8044,-26.524,27.498,-8.3695,32.942,-21.848
-23.026,6.7216,-1.6215,-10.33,24.436,-37.517,18.612,-28.725,70.233,-44.662,8.8044,-26.524,27.498,-8.3695,32.942,-21.848
-23.162,6.6912,-1.7046,-10.405,24.365,-37.543,18.414,-28.737,69.893,-44.541,8.6155,-26.389,27.394,-8.3053,32.892,-21.642
-23.162,6.6912,-1.7046,-10.405,24.365,-37.543,18.414,-28.737,69.893,-44.541,8.6155,-26.389,27.394,-8.3053,32.892,-21.642
-23.162,6.6912,-1.7046,-10.405,24.365,-37.543,18.414,-28.737,69.893,-44.541,8.6155,-26.389,27.394,-8.3053,32.892,-21.642
-23.162,6.6912,-1.7046,-10.405,24.365,-37.543,18.414,-28.737,69.893,-44.541,8.6155,-26.389,27.394,-8.3053,32.892,-21.642
-23.434,6.6301,-1.8768,-10.554,24.216,-37.591,18.015,-28.762,69.206,-44.295,8.2342,-26.117,27.184,-8.1767,32.789,-21.23
-23.434,6.6301,-1.8768,-10.554,24.216,-37.591,18.015,-28.762,69.206,-44.295,8.2342,-26.117,27.184,-8.1767,32.789,-21.23
-23.57,6.5994,-1.9659,-10.627,24.139,-37.613,17.814,-28.774,68.861,-44.17,8.0418,-25.981,27.079,-8.1124,32.735,-21.023
-23.57,6.5994,-1.9659,-10.627,24.139,-37.613,17.814,-28.774,68.861,-44.17,8.0418,-25.981,27.079,-8.1124,32.735,-21.023
-23.706,6.5685,-2.0569,-10.699,24.061,-37.634,17.612,-28.787,68.513,-44.044,7.8484,-25.844,26.973,-8.0482,32.679,-20.817
-23.842,6.5375,-2.1499,-10.77,23.98,-37.654,17.409,-28.799,68.164,-43.917,7.6538,-25.707,26.868,-7.9841,32.622,-20.61
-23.842,6.5375,-2.1499,-10.77,23.98,-37.654,17.409,-28.799,68.164,-43.917,7.6538,-25.707,26.868,-7.9841,32.622,-20.61
-23.978,6.5064,-2.2448,-10.841,23.897,-37.672,17.205,-28.812,67.814,-43.79,7.4582,-25.57,26.762,-7.9201,32.563,-20.402
-23.978,6.5064,-2.2448,-10.841,23.897,-37.672,17.205,-28.812,67.814,-43.79,7.4582,-25.57,26.762,-7.9201,32.563,-20.402
-23.978,6.5064,-2.2448,-10.841,23.897,-37.672,17.205,-28.812,67.814,-43.79,7.4582,-25.57,26.762,-7.9201,32.563,-20.402
-24.114,6.4752,-2.3416,-10.911,23.813,-37.689,17,-28.825,67.462,-43.661,7.2615,-25.432,26.656,-7.8562,32.503,-20.195
-24.114,6.4752,-2.3416,-10.911,23.813,-37.689,17,-28.825,67.462,-43.661,7.2615,-25.432,26.656,-7.8562,32.503,-20.195
-24.114,6.4752,-2.3416,-10.911,23.813,-37.689,17,-28.825,67.462,-43.661,7.2615,-25.432,26.656,-7.8562,32.503,-20.195
-24.25,6.4437,-2.4403,-10.98,23.727,-37.706,16.794,-28.837,67.108,-43.531,7.0637,-25.294,26.55,-7.7924,32.441,-19.988
-24.25,6.4437,-2.4403,-10.98,23.727,-37.706,16.794,-28.837,67.108,-43.531,7.0637,-25.294,26.55,-7.7924,32.441,-19.988
-24.25,6.4437,-2.4403,-10.98,23.727,-37.706,16.794,-28.837,67.108,-43.531,7.0637,-25.294,26.55,-7.7924,32.441,-19.988
-24.523,6.3804,-2.6433,-11.116,23.55,-37.734,16.379,-28.863,66.397,-43.268,6.6651,-25.017,26.338,-7.6654,32.312,-19.572
-24.523,6.3804,-2.6433,-11.116,23.55,-37.734,16.379,-28.863,66.397,-43.268,6.6651,-25.017,26.338,-7.6654,32.312,-19.572
-24.659,6.3485,-2.7477,-11.183,23.458,-37.747,16.171,-28.877,66.039,-43.136,6.4642,-24.879,26.232,-7.6022,32.245,-19.365
-24.659,6.3485,-2.7477,-11.183,23.458,-37.747,16.171,-28.877,66.039,-43.136,6.4642,-24.879,26.232,-7.6022,32.245,-19.365
-24.795,6.3165,-2.8538,-11.25,23.365,-37.758,15.961,-28.89,65.68,-43.002,6.2624,-24.74,26.125,-7.5392,32.177,-19.157
-24.795,6.3165,-2.8538,-11.25,23.365,-37.758,15.961,-28.89,65.68,-43.002,6.2624,-24.74,26.125,-7.5392,32.177,-19.157
-24.931,6.2842,-2.9618,-11.315,23.271,-37.768,15.751,-28.904,65.319,-42.868,6.0596,-24.601,26.019,-7.4765,32.107,-18.949
-24.931,6.2842,-2.9618,-11.315,23.271,-37.768,15.751,-28.904,65.319,-42.868,6.0596,-24.601,26.019,-7.4765,32.107,-18.949
-25.067,6.2518,-3.0716,-11.38,23.174,-37.777,15.54,-28.917,64.957,-42.732,5.8558,-24.462,25.912,-7.4141,32.035,-18.741
-25.067,6.2518,-3.0716,-11.38,23.174,-37.777,15.54,-28.917,64.957,-42.732,5.8558,-24.462,25.912,-7.4141,32.035,-18.741
-25.203,6.2191,-3.1832,-11.445,23.076,-37.785,15.328,-28.931,64.594,-42.596,5.651,-24.322,25.806,-7.352,31.962,-18.534
-25.339,6.1863,-3.2966,-11.508,22.976,-37.792,15.116,-28.946,64.229,-42.46,5.4453,-24.183,25.7,-7.2903,31.887,-18.326
-25.339,6.1863,-3.2966,-11.508,22.976,-37.792,15.116,-28.946,64.229,-42.46,5.4453,-24.183,25.7,-7.2903,31.887,-18.326
-25.475,6.1532,-3.4118,-11.571,22.875,-37.798,14.903,-28.96,63.863,-42.322,5.2387,-24.043,25.593,-7.2289,31.811,-18.119
-25.475,6.1532,-3.4118,-11.571,22.875,-37.798,14.903,-28.96,63.863,-42.322,5.2387,-24.043,25.593,-7.2289,31.811,-18.119
-25.475,6.1532,-3.4118,-11.571,22.875,-37.798,14.903,-28.96,63.863,-42.322,5.2387,-24.043,25.593,-7.2289,31.811,-18.119
-25.611,6.12,-3.5287,-11.634,22.772,-37.802,14.689,-28.975,63.496,-42.184,5.0312,-23.904,25.487,-7.1679,31.733,-17.911
-25.611,6.12,-3.5287,-11.634,22.772,-37.802,14.689,-28.975,63.496,-42.184,5.0312,-23.904,25.487,-7.1679,31.733,-17.911
-25.747,6.0865,-3.6474,-11.696,22.667,-37.805,14.474,-28.99,63.128,-42.045,4.8228,-23.764,25.38,-7.1073,31.654,-17.704
-25.883,6.0528,-3.7677,-11.757,22.561,-37.807,14.259,-29.005,62.759,-41.905,4.6135,-23.625,25.274,-7.0471,31.573,-17.497
-25.883,6.0528,-3.7677,-11.757,22.561,-37.807,14.259,-29.005,62.759,-41.905,4.6135,-23.625,25.274,-7.0471,31.573,-17.497
-26.019,6.0189,-3.8898,-11.818,22.453,-37.809,14.044,-29.021,62.388,-41.765,4.4033,-23.485,25.168,-6.9875,31.49,-17.29
-26.019,6.0189,-3.8898,-11.818,22.453,-37.809,14.044,-29.021,62.388,-41.765,4.4033,-23.485,25.168,-6.9875,31.49,-17.29
-26.019,6.0189,-3.8898,-11.818,22.453,-37.809,14.044,-29.021,62.388,-41.765,4.4033,-23.485,25.168,-6.9875,31.49,-17.29
-26.154,5.9847,-4.0136,-11.878,22.343,-37.808,13.827,-29.037,62.016,-41.624,4.1923,-23.346,25.062,-6.9283,31.406,-17.084
-26.154,5.9847,-4.0136,-11.878,22.343,-37.808,13.827,-29.037,62.016,-41.624,4.1923,-23.346,25.062,-6.9283,31.406,-17.084
-26.29,5.9503,-4.139,-11.937,22.233,-37.807,13.61,-29.053,61.644,-41.483,3.9805,-23.206,24.956,-6.8696,31.321,-16.877
-26.29,5.9503,-4.139,-11.937,22.233,-37.807,13.61,-29.053,61.644,-41.483,3.9805,-23.206,24.956,-6.8696,31.321,-16.877
-26.425,5.9157,-4.2661,-11.996,22.12,-37.805,13.393,-29.07,61.27,-41.341,3.7679,-23.067,24.85,-6.8115,31.234,-16.671
-26.561,5.8808,-4.3948,-12.055,22.006,-37.802,13.175,-29.087,60.895,-41.198,3.5544,-22.928,24.744,-6.7539,31.145,-16.466
-26.561,5.8808,-4.3948,-12.055,22.006,-37.802,13.175,-29.087,60.895,-41.198,3.5544,-22.928,24.744,-6.7539,31.145,-16.466
-26.696,5.8456,-4.5251,-12.112,21.89,-37.797,12.957,-29.104,60.519,-41.055,3.3402,-22.789,24.638,-6.6969,31.055,-16.26
-26.696,5.8456,-4.5251,-12.112,21.89,-37.797,12.957,-29.104,60.519,-41.055,3.3402,-22.789,24.638,-6.6969,31.055,-16.26
-26.696,5.8456,-4.5251,-12.112,21.89,-37.797,12.957,-29.104,60.519,-41.055,3.3402,-22.789,24.638,-6.6969,31.055,-16.26
-26.831,5.8102,-4.657,-12.17,21.773,-37.792,12.738,-29.122,60.142,-40.912,3.1252,-22.65,24.532,-6.6406,30.963,-16.055
-26.831,5.8102,-4.657,-12.17,21.773,-37.792,12.738,-29.122,60.142,-40.912,3.1252,-22.65,24.532,-6.6406,30.963,-16.055
-26.966,5.7745,-4.7905,-12.227,21.655,-37.785,12.519,-29.14,59.765,-40.768,2.9095,-22.511,24.427,-6.5849,30.87,-15.851
-26.966,5.7745,-4.7905,-12.227,21.655,-37.785,12.519,-29.14,59.765,-40.768,2.9095,-22.511,24.427,-6.5849,30.87,-15.851
-27.101,5.7385,-4.9256,-12.283,21.535,-37.777,12.299,-29.159,59.386,-40.623,2.6931,-22.373,24.322,-6.5298,30.775,-15.646
-27.101,5.7385,-4.9256,-12.283,21.535,-37.777,12.299,-29.159,59.386,-40.623,2.6931,-22.373,24.322,-6.5298,30.775,-15.646
-27.236,5.7023,-5.0622,-12.339,21.414,-37.769,12.079,-29.178,59.006,-40.478,2.4759,-22.235,24.217,-6.4755,30.679,-15.443
-27.236,5.7023,-5.0622,-12.339,21.414,-37.769,12.079,-29.178,59.006,-40.478,2.4759,-22.235,24.217,-6.4755,30.679,-15.443
-27.37,5.6657,-5.2003,-12.395,21.291,-37.759,11.859,-29.198,58.626,-40.333,2.2581,-22.097,24.112,-6.4219,30.581,-15.239
-27.37,5.6657,-5.2003,-12.395,21.291,-37.759,11.859,-29.198,58.626,-40.333,2.2581,-22.097,24.112,-6.4219,30.581,-15.239
-27.505,5.6289,-5.3399,-12.45,21.167,-37.748,11.638,-29.218,58.245,-40.188,2.0396,-21.959,24.008,-6.369,30.482,-15.037
-27.505,5.6289,-5.3399,-12.45,21.167,-37.748,11.638,-29.218,58.245,-40.188,2.0396,-21.959,24.008,-6.369,30.482,-15.037
-27.505,5.6289,-5.3399,-12.45,21.167,-37.748,11.638,-29.218,58.245,-40.188,2.0396,-21.959,24.008,-6.369,30.482,-15.037
-27.639,5.5917,-5.481,-12.505,21.041,-37.736,11.417,-29.239,57.863,-40.042,1.8204,-21.822,23.903,-6.3169,30.382,-14.834
-27.639,5.5917,-5.481,-12.505,21.041,-37.736,11.417,-29.239,57.863,-40.042,1.8204,-21.822,23.903,-6.3169,30.382,-14.834
-27.773,5.5543,-5.6236,-12.559,20.914,-37.723,11.196,-29.26,57.48,-39.896,1.6006,-21.685,23.799,-6.2656,30.28,-14.633
-27.907,5.5165,-5.7676,-12.613,20.786,-37.709,10.975,-29.282,57.096,-39.75,1.3802,-21.548,23.696,-6.2151,30.176,-14.432
-27.907,5.5165,-5.7676,-12.613,20.786,-37.709,10.975,-29.282,57.096,-39.75,1.3802,-21.548,23.696,-6.2151,30.176,-14.432
-28.041,5.4784,-5.913,-12.666,20.656,-37.694,10.753,-29.304,56.712,-39.603,1.1592,-21.412,23.592,-6.1655,30.071,-14.231
-28.041,5.4784,-5.913,-12.666,20.656,-37.694,10.753,-29.304,56.712,-39.603,1.1592,-21.412,23.592,-6.1655,30.071,-14.231
-28.174,5.44,-6.0598,-12.72,20.525,-37.678,10.531,-29.327,56.327,-39.457,0.93758,-21.277,23.489,-6.1168,29.965,-14.031
-28.174,5.44,-6.0598,-12.72,20.525,-37.678,10.531,-29.327,56.327,-39.457,0.93758,-21.277,23.489,-6.1168,29.965,-14.031
-28.308,5.4012,-6.2081,-12.772,20.393,-37.661,10.309,-29.35,55.942,-39.31,0.71541,-21.141,23.386,-6.0689,29.857,-13.832
-28.308,5.4012,-6.2081,-12.772,20.393,-37.661,10.309,-29.35,55.942,-39.31,0.71541,-21.141,23.386,-6.0689,29.857,-13.832
-28.308,5.4012,-6.2081,-12.772,20.393,-37.661,10.309,-29.35,55.942,-39.31,0.71541,-21.141,23.386,-6.0689,29.857,-13.832
-28.441,5.3622,-6.3577,-12.825,20.259,-37.643,10.087,-29.374,55.556,-39.163,0.49271,-21.007,23.284,-6.022,29.747,-13.634
-28.574,5.3227,-6.5086,-12.877,20.124,-37.624,9.865,-29.399,55.169,-39.016,0.26948,-20.872,23.182,-5.976,29.637,-13.436
-28.707,5.2829,-6.6608,-12.929,19.988,-37.604,9.6427,-29.424,54.782,-38.869,0.045743,-20.739,23.08,-5.9311,29.524,-13.239
-28.707,5.2829,-6.6608,-12.929,19.988,-37.604,9.6427,-29.424,54.782,-38.869,0.045743,-20.739,23.08,-5.9311,29.524,-13.239
-28.707,5.2829,-6.6608,-12.929,19.988,-37.604,9.6427,-29.424,54.782,-38.869,0.045743,-20.739,23.08,-5.9311,29.524,-13.239
-28.839,5.2428,-6.8144,-12.98,19.851,-37.583,9.4204,-29.45,54.394,-38.722,-0.17848,-20.606,22.979,-5.8871,29.411,-13.043
-28.839,5.2428,-6.8144,-12.98,19.851,-37.583,9.4204,-29.45,54.394,-38.722,-0.17848,-20.606,22.979,-5.8871,29.411,-13.043
-28.839,5.2428,-6.8144,-12.98,19.851,-37.583,9.4204,-29.45,54.394,-38.722,-0.17848,-20.606,22.979,-5.8871,29.411,-13.043
-28.972,5.2023,-6.9692,-13.032,19.713,-37.561,9.1981,-29.476,54.006,-38.575,-0.40316,-20.473,22.878,-5.8442,29.296,-12.848
-28.972,5.2023,-6.9692,-13.032,19.713,-37.561,9.1981,-29.476,54.006,-38.575,-0.40316,-20.473,22.878,-5.8442,29.296,-12.848
-29.104,5.1614,-7.1253,-13.083,19.573,-37.538,8.9758,-29.503,53.617,-38.427,-0.6283,-20.341,22.777,-5.8023,29.18,-12.653
-29.104,5.1614,-7.1253,-13.083,19.573,-37.538,8.9758,-29.503,53.617,-38.427,-0.6283,-20.341,22.777,-5.8023,29.18,-12.653
-29.367,5.0785,-7.4411,-13.184,19.29,-37.49,8.5313,-29.56,52.839,-38.133,-1.0798,-20.079,22.578,-5.7218,28.943,-12.267
-29.367,5.0785,-7.4411,-13.184,19.29,-37.49,8.5313,-29.56,52.839,-38.133,-1.0798,-20.079,22.578,-5.7218,28.943,-12.267
-29.367,5.0785,-7.4411,-13.184,19.29,-37.49,8.5313,-29.56,52.839,-38.133,-1.0798,-20.079,22.578,-5.7218,28.943,-12.267
-29.498,5.0365,-7.6008,-13.234,19.147,-37.464,8.3092,-29.589,52.449,-37.987,-1.3062,-19.949,22.478,-5.6832,28.822,-12.075
-29.498,5.0365,-7.6008,-13.234,19.147,-37.464,8.3092,-29.589,52.449,-37.987,-1.3062,-19.949,22.478,-5.6832,28.822,-12.075
-29.498,5.0365,-7.6008,-13.234,19.147,-37.464,8.3092,-29.589,52.449,-37.987,-1.3062,-19.949,22.478,-5.6832,28.822,-12.075
-29.629,4.9941,-7.7617,-13.285,19.002,-37.437,8.0872,-29.619,52.058,-37.84,-1.5329,-19.82,22.38,-5.6459,28.701,-11.884
-29.76,4.9513,-7.9237,-13.335,18.857,-37.41,7.8653,-29.65,51.668,-37.693,-1.76,-19.691,22.282,-5.6097,28.578,-11.694
-29.76,4.9513,-7.9237,-13.335,18.857,-37.41,7.8653,-29.65,51.668,-37.693,-1.76,-19.691,22.282,-5.6097,28.578,-11.694
-29.89,4.9081,-8.0869,-13.384,18.711,-37.382,7.6436,-29.682,51.277,-37.547,-1.9873,-19.564,22.184,-5.5747,28.453,-11.506
-29.89,4.9081,-8.0869,-13.384,18.711,-37.382,7.6436,-29.682,51.277,-37.547,-1.9873,-19.564,22.184,-5.5747,28.453,-11.506
-30.021,4.8645,-8.2511,-13.434,18.563,-37.352,7.4222,-29.714,50.886,-37.401,-2.215,-19.437,22.087,-5.5409,28.328,-11.318
-30.021,4.8645,-8.2511,-13.434,18.563,-37.352,7.4222,-29.714,50.886,-37.401,-2.215,-19.437,22.087,-5.5409,28.328,-11.318
-30.151,4.8205,-8.4164,-13.483,18.414,-37.322,7.201,-29.747,50.495,-37.255,-2.443,-19.311,21.99,-5.5084,28.2,-11.131
-30.151,4.8205,-8.4164,-13.483,18.414,-37.322,7.201,-29.747,50.495,-37.255,-2.443,-19.311,21.99,-5.5084,28.2,-11.131
-30.28,4.776,-8.5828,-13.533,18.265,-37.291,6.98,-29.781,50.104,-37.109,-2.6713,-19.185,21.894,-5.4772,28.072,-10.945
-30.28,4.776,-8.5828,-13.533,18.265,-37.291,6.98,-29.781,50.104,-37.109,-2.6713,-19.185,21.894,-5.4772,28.072,-10.945
-30.409,4.7312,-8.7502,-13.582,18.114,-37.259,6.7593,-29.816,49.712,-36.964,-2.8998,-19.061,21.799,-5.4473,27.943,-10.761
-30.409,4.7312,-8.7502,-13.582,18.114,-37.259,6.7593,-29.816,49.712,-36.964,-2.8998,-19.061,21.799,-5.4473,27.943,-10.761
-30.538,4.6859,-8.9186,-13.631,17.962,-37.226,6.5389,-29.851,49.321,-36.819,-3.1285,-18.938,21.704,-5.4188,27.812,-10.577
-30.538,4.6859,-8.9186,-13.631,17.962,-37.226,6.5389,-29.851,49.321,-36.819,-3.1285,-18.938,21.704,-5.4188,27.812,-10.577
-30.667,4.6401,-9.088,-13.68,17.81,-37.193,6.3189,-29.888,48.929,-36.675,-3.3574,-18.815,21.61,-5.3916,27.68,-10.395
-30.667,4.6401,-9.088,-13.68,17.81,-37.193,6.3189,-29.888,48.929,-36.675,-3.3574,-18.815,21.61,-5.3916,27.68,-10.395
-30.795,4.594,-9.2584,-13.729,17.656,-37.158,6.0993,-29.925,48.537,-36.531,-3.5865,-18.693,21.517,-5.3658,27.546,-10.214
-30.795,4.594,-9.2584,-13.729,17.656,-37.158,6.0993,-29.925,48.537,-36.531,-3.5865,-18.693,21.517,-5.3658,27.546,-10.214
-30.923,4.5473,-9.4296,-13.778,17.502,-37.123,5.88,-29.963,48.146,-36.387,-3.8157,-18.573,21.424,-5.3414,27.412,-10.034
-30.923,4.5473,-9.4296,-13.778,17.502,-37.123,5.88,-29.963,48.146,-36.387,-3.8157,-18.573,21.424,-5.3414,27.412,-10.034
-31.05,4.5003,-9.6018,-13.827,17.346,-37.087,5.6612,-30.002,47.754,-36.244,-4.0451,-18.453,21.332,-5.3185,27.276,-9.8551
-31.05,4.5003,-9.6018,-13.827,17.346,-37.087,5.6612,-30.002,47.754,-36.244,-4.0451,-18.453,21.332,-5.3185,27.276,-9.8551
-31.05,4.5003,-9.6018,-13.827,17.346,-37.087,5.6612,-30.002,47.754,-36.244,-4.0451,-18.453,21.332,-5.3185,27.276,-9.8551
-31.178,4.4527,-9.7749,-13.876,17.19,-37.05,5.4429,-30.042,47.362,-36.101,-4.2746,-18.334,21.24,-5.297,27.139,-9.6777
-31.178,4.4527,-9.7749,-13.876,17.19,-37.05,5.4429,-30.042,47.362,-36.101,-4.2746,-18.334,21.24,-5.297,27.139,-9.6777
-31.178,4.4527,-9.7749,-13.876,17.19,-37.05,5.4429,-30.042,47.362,-36.101,-4.2746,-18.334,21.24,-5.297,27.139,-9.6777
-31.431,4.3563,-10.124,-13.973,16.875,-36.974,5.0077,-30.124,46.579,-35.818,-4.7338,-18.1,21.059,-5.2585,26.862,-9.3269
-31.431,4.3563,-10.124,-13.973,16.875,-36.974,5.0077,-30.124,46.579,-35.818,-4.7338,-18.1,21.059,-5.2585,26.862,-9.3269
-31.431,4.3563,-10.124,-13.973,16.875,-36.974,5.0077,-30.124,46.579,-35.818,-4.7338,-18.1,21.059,-5.2585,26.862,-9.3269
-31.557,4.3074,-10.299,-14.022,16.716,-36.935,4.7908,-30.167,46.188,-35.677,-4.9636,-17.985,20.97,-5.2415,26.721,-9.1535
-31.683,4.258,-10.476,-14.071,16.556,-36.895,4.5746,-30.211,45.797,-35.536,-5.1933,-17.871,20.881,-5.2261,26.579,-8.9815
-31.808,4.2081,-10.653,-14.12,16.395,-36.854,4.359,-30.255,45.406,-35.397,-5.4231,-17.758,20.793,-5.2123,26.437,-8.8109
-31.808,4.2081,-10.653,-14.12,16.395,-36.854,4.359,-30.255,45.406,-35.397,-5.4231,-17.758,20.793,-5.2123,26.437,-8.8109
-31.933,4.1577,-10.831,-14.169,16.234,-36.812,4.1439,-30.301,45.015,-35.258,-5.6528,-17.646,20.706,-5.2001,26.293,-8.6417
-31.933,4.1577,-10.831,-14.169,16.234,-36.812,4.1439,-30.301,45.015,-35.258,-5.6528,-17.646,20.706,-5.2001,26.293,-8.6417
-31.933,4.1577,-10.831,-14.169,16.234,-36.812,4.1439,-30.301,45.015,-35.258,-5.6528,-17.646,20.706,-5.2001,26.293,-8.6417
-32.057,4.1069,-11.009,-14.218,16.072,-36.77,3.9296,-30.347,44.625,-35.119,-5.8825,-17.535,20.62,-5.1896,26.148,-8.4739
-32.057,4.1069,-11.009,-14.218,16.072,-36.77,3.9296,-30.347,44.625,-35.119,-5.8825,-17.535,20.62,-5.1896,26.148,-8.4739
-32.057,4.1069,-11.009,-14.218,16.072,-36.77,3.9296,-30.347,44.625,-35.119,-5.8825,-17.535,20.62,-5.1896,26.148,-8.4739
-32.181,4.0555,-11.188,-14.267,15.909,-36.727,3.7159,-30.395,44.235,-34.982,-6.1121,-17.425,20.534,-5.1807,26.002,-8.3077
-32.305,4.0036,-11.368,-14.316,15.745,-36.683,3.5029,-30.443,43.845,-34.845,-6.3417,-17.317,20.45,-5.1734,25.854,-8.1429
-32.428,3.9513,-11.549,-14.365,15.581,-36.639,3.2907,-30.493,43.456,-34.709,-6.5711,-17.21,20.366,-5.1679,25.706,-7.9797
-32.428,3.9513,-11.549,-14.365,15.581,-36.639,3.2907,-30.493,43.456,-34.709,-6.5711,-17.21,20.366,-5.1679,25.706,-7.9797
-32.428,3.9513,-11.549,-14.365,15.581,-36.639,3.2907,-30.493,43.456,-34.709,-6.5711,-17.21,20.366,-5.1679,25.706,-7.9797
-32.55,3.8984,-11.73,-14.415,15.416,-36.594,3.0792,-30.544,43.067,-34.574,-6.8005,-17.104,20.283,-5.1641,25.557,-7.8181
-32.55,3.8984,-11.73,-14.415,15.416,-36.594,3.0792,-30.544,43.067,-34.574,-6.8005,-17.104,20.283,-5.1641,25.557,-7.8181
-32.55,3.8984,-11.73,-14.415,15.416,-36.594,3.0792,-30.544,43.067,-34.574,-6.8005,-17.104,20.283,-5.1641,25.557,-7.8181
-32.673,3.845,-11.912,-14.464,15.25,-36.548,2.8686,-30.595,42.679,-34.44,-7.0296,-17,20.201,-5.162,25.406,-7.658
-32.673,3.845,-11.912,-14.464,15.25,-36.548,2.8686,-30.595,42.679,-34.44,-7.0296,-17,20.201,-5.162,25.406,-7.658
-32.794,3.7911,-12.094,-14.514,15.084,-36.501,2.6587,-30.648,42.291,-34.306,-7.2586,-16.897,20.12,-5.1617,25.255,-7.4995
-32.794,3.7911,-12.094,-14.514,15.084,-36.501,2.6587,-30.648,42.291,-34.306,-7.2586,-16.897,20.12,-5.1617,25.255,-7.4995
-32.916,3.7367,-12.277,-14.564,14.917,-36.454,2.4497,-30.702,41.903,-34.174,-7.4874,-16.795,20.039,-5.1632,25.103,-7.3427
-33.037,3.6818,-12.46,-14.614,14.749,-36.406,2.2416,-30.756,41.517,-34.042,-7.716,-16.695,19.96,-5.1666,24.949,-7.1875
-33.037,3.6818,-12.46,-14.614,14.749,-36.406,2.2416,-30.756,41.517,-34.042,-7.716,-16.695,19.96,-5.1666,24.949,-7.1875
-33.037,3.6818,-12.46,-14.614,14.749,-36.406,2.2416,-30.756,41.517,-34.042,-7.716,-16.695,19.96,-5.1666,24.949,-7.1875
-33.157,3.6263,-12.644,-14.664,14.581,-36.358,2.0344,-30.812,41.13,-33.912,-7.9444,-16.596,19.881,-5.1717,24.795,-7.034
-33.157,3.6263,-12.644,-14.664,14.581,-36.358,2.0344,-30.812,41.13,-33.912,-7.9444,-16.596,19.881,-5.1717,24.795,-7.034
-33.157,3.6263,-12.644,-14.664,14.581,-36.358,2.0344,-30.812,41.13,-33.912,-7.9444,-16.596,19.881,-5.1717,24.795,-7.034
-33.396,3.5137,-13.013,-14.765,14.243,-36.259,1.6228,-30.928,40.36,-33.654,-8.4003,-16.403,19.728,-5.1876,24.483,-6.7321
-33.396,3.5137,-13.013,-14.765,14.243,-36.259,1.6228,-30.928,40.36,-33.654,-8.4003,-16.403,19.728,-5.1876,24.483,-6.7321
-33.396,3.5137,-13.013,-14.765,14.243,-36.259,1.6228,-30.928,40.36,-33.654,-8.4003,-16.403,19.728,-5.1876,24.483,-6.7321
-33.515,3.4566,-13.198,-14.816,14.073,-36.209,1.4185,-30.987,39.975,-33.526,-8.6278,-16.308,19.652,-5.1984,24.326,-6.5838
-33.515,3.4566,-13.198,-14.816,14.073,-36.209,1.4185,-30.987,39.975,-33.526,-8.6278,-16.308,19.652,-5.1984,24.326,-6.5838
-33.515,3.4566,-13.198,-14.816,14.073,-36.209,1.4185,-30.987,39.975,-33.526,-8.6278,-16.308,19.652,-5.1984,24.326,-6.5838
-33.751,3.3408,-13.569,-14.918,13.732,-36.106,1.013,-31.109,39.209,-33.275,-9.0817,-16.124,19.504,-5.2258,24.009,-6.2925
-33.751,3.3408,-13.569,-14.918,13.732,-36.106,1.013,-31.109,39.209,-33.275,-9.0817,-16.124,19.504,-5.2258,24.009,-6.2925
-33.868,3.2821,-13.755,-14.97,13.561,-36.054,0.8118,-31.171,38.826,-33.151,-9.3082,-16.034,19.432,-5.2425,23.849,-6.1496
-33.868,3.2821,-13.755,-14.97,13.561,-36.054,0.8118,-31.171,38.826,-33.151,-9.3082,-16.034,19.432,-5.2425,23.849,-6.1496
-33.868,3.2821,-13.755,-14.97,13.561,-36.054,0.8118,-31.171,38.826,-33.151,-9.3082,-16.034,19.432,-5.2425,23.849,-6.1496
-33.985,3.2228,-13.942,-15.022,13.389,-36.001,0.61172,-31.235,38.445,-33.028,-9.5342,-15.946,19.36,-5.2611,23.688,-6.0085
-33.985,3.2228,-13.942,-15.022,13.389,-36.001,0.61172,-31.235,38.445,-33.028,-9.5342,-15.946,19.36,-5.2611,23.688,-6.0085
-33.985,3.2228,-13.942,-15.022,13.389,-36.001,0.61172,-31.235,38.445,-33.028,-9.5342,-15.946,19.36,-5.2611,23.688,-6.0085
-34.217,3.1025,-14.315,-15.127,13.044,-35.894,0.21498,-31.366,37.685,-32.786,-9.985,-15.774,19.221,-5.3044,23.364,-5.732
-34.332,3.0415,-14.502,-15.179,12.871,-35.84,0.018369,-31.434,37.306,-32.667,-10.21,-15.69,19.152,-5.3291,23.201,-5.5966
-34.332,3.0415,-14.502,-15.179,12.871,-35.84,0.018369,-31.434,37.306,-32.667,-10.21,-15.69,19.152,-5.3291,23.201,-5.5966
-34.332,3.0415,-14.502,-15.179,12.871,-35.84,0.018369,-31.434,37.306,-32.667,-10.21,-15.69,19.152,-5.3291,23.201,-5.5966
-34.446,2.9799,-14.689,-15.233,12.697,-35.785,-0.17703,-31.502,36.928,-32.549,-10.434,-15.609,19.085,-5.3559,23.037,-5.4631
-34.446,2.9799,-14.689,-15.233,12.697,-35.785,-0.17703,-31.502,36.928,-32.549,-10.434,-15.609,19.085,-5.3559,23.037,-5.4631
-34.56,2.9178,-14.877,-15.286,12.523,-35.729,-0.37119,-31.572,36.552,-32.432,-10.658,-15.529,19.02,-5.3848,22.872,-5.3316
-34.56,2.9178,-14.877,-15.286,12.523,-35.729,-0.37119,-31.572,36.552,-32.432,-10.658,-15.529,19.02,-5.3848,22.872,-5.3316
-34.56,2.9178,-14.877,-15.286,12.523,-35.729,-0.37119,-31.572,36.552,-32.432,-10.658,-15.529,19.02,-5.3848,22.872,-5.3316
-34.673,2.8551,-15.064,-15.34,12.349,-35.673,-0.56408,-31.643,36.176,-32.317,-10.881,-15.45,18.955,-5.4158,22.707,-5.2021
-34.786,2.7918,-15.252,-15.394,12.175,-35.617,-0.75568,-31.715,35.801,-32.203,-11.103,-15.374,18.891,-5.4489,22.54,-5.0745
-34.898,2.7279,-15.44,-15.449,12,-35.56,-0.94597,-31.788,35.427,-32.091,-11.325,-15.299,18.829,-5.4841,22.373,-4.949
-34.898,2.7279,-15.44,-15.449,12,-35.56,-0.94597,-31.788,35.427,-32.091,-11.325,-15.299,18.829,-5.4841,22.373,-4.949
-35.009,2.6635,-15.627,-15.504,11.825,-35.502,-1.1349,-31.863,35.055,-31.98,-11.547,-15.226,18.768,-5.5216,22.205,-4.8256
-35.009,2.6635,-15.627,-15.504,11.825,-35.502,-1.1349,-31.863,35.055,-31.98,-11.547,-15.226,18.768,-5.5216,22.205,-4.8256
-35.009,2.6635,-15.627,-15.504,11.825,-35.502,-1.1349,-31.863,35.055,-31.98,-11.547,-15.226,18.768,-5.5216,22.205,-4.8256
-35.12,2.5985,-15.815,-15.559,11.649,-35.444,-1.3225,-31.938,34.683,-31.871,-11.767,-15.154,18.707,-5.5612,22.037,-4.7042
-35.12,2.5985,-15.815,-15.559,11.649,-35.444,-1.3225,-31.938,34.683,-31.871,-11.767,-15.154,18.707,-5.5612,22.037,-4.7042
-35.12,2.5985,-15.815,-15.559,11.649,-35.444,-1.3225,-31.938,34.683,-31.871,-11.767,-15.154,18.707,-5.5612,22.037,-4.7042
-35.34,2.4666,-16.19,-15.671,11.298,-35.327,-1.6934,-32.094,33.944,-31.656,-12.207,-15.017,18.591,-5.647,21.698,-4.4676
-35.34,2.4666,-16.19,-15.671,11.298,-35.327,-1.6934,-32.094,33.944,-31.656,-12.207,-15.017,18.591,-5.647,21.698,-4.4676
-35.34,2.4666,-16.19,-15.671,11.298,-35.327,-1.6934,-32.094,33.944,-31.656,-12.207,-15.017,18.591,-5.647,21.698,-4.4676
-35.449,2.3998,-16.378,-15.728,11.122,-35.267,-1.8767,-32.173,33.576,-31.551,-12.426,-14.951,18.535,-5.6933,21.528,-4.3525
-35.449,2.3998,-16.378,-15.728,11.122,-35.267,-1.8767,-32.173,33.576,-31.551,-12.426,-14.951,18.535,-5.6933,21.528,-4.3525
-35.449,2.3998,-16.378,-15.728,11.122,-35.267,-1.8767,-32.173,33.576,-31.551,-12.426,-14.951,18.535,-5.6933,21.528,-4.3525
-35.557,2.3324,-16.565,-15.785,10.946,-35.208,-2.0585,-32.254,33.209,-31.448,-12.644,-14.887,18.48,-5.7418,21.356,-4.2396
-35.665,2.2644,-16.753,-15.842,10.769,-35.147,-2.2388,-32.336,32.844,-31.346,-12.861,-14.825,18.426,-5.7926,21.185,-4.1288
-35.665,2.2644,-16.753,-15.842,10.769,-35.147,-2.2388,-32.336,32.844,-31.346,-12.861,-14.825,18.426,-5.7926,21.185,-4.1288
-35.772,2.1958,-16.94,-15.9,10.593,-35.087,-2.4175,-32.419,32.48,-31.246,-13.077,-14.765,18.373,-5.8457,21.013,-4.0202
-35.772,2.1958,-16.94,-15.9,10.593,-35.087,-2.4175,-32.419,32.48,-31.246,-13.077,-14.765,18.373,-5.8457,21.013,-4.0202
-35.878,2.1266,-17.127,-15.959,10.416,-35.026,-2.5947,-32.504,32.118,-31.148,-13.293,-14.706,18.322,-5.9011,20.84,-3.9138
-35.878,2.1266,-17.127,-15.959,10.416,-35.026,-2.5947,-32.504,32.118,-31.148,-13.293,-14.706,18.322,-5.9011,20.84,-3.9138
-35.984,2.0567,-17.314,-16.018,10.239,-34.964,-2.7704,-32.59,31.756,-31.051,-13.508,-14.65,18.272,-5.9588,20.666,-3.8097
-35.984,2.0567,-17.314,-16.018,10.239,-34.964,-2.7704,-32.59,31.756,-31.051,-13.508,-14.65,18.272,-5.9588,20.666,-3.8097
-36.089,1.9863,-17.5,-16.077,10.062,-34.902,-2.9444,-32.677,31.397,-30.956,-13.722,-14.596,18.224,-6.0188,20.493,-3.7077
-36.089,1.9863,-17.5,-16.077,10.062,-34.902,-2.9444,-32.677,31.397,-30.956,-13.722,-14.596,18.224,-6.0188,20.493,-3.7077
-36.193,1.9153,-17.687,-16.137,9.8853,-34.84,-3.1168,-32.766,31.038,-30.863,-13.935,-14.543,18.177,-6.0812,20.318,-3.608
-36.193,1.9153,-17.687,-16.137,9.8853,-34.84,-3.1168,-32.766,31.038,-30.863,-13.935,-14.543,18.177,-6.0812,20.318,-3.608
-36.296,1.8437,-17.873,-16.197,9.7083,-34.777,-3.2875,-32.855,30.682,-30.771,-14.147,-14.493,18.131,-6.146,20.143,-3.5106
-36.296,1.8437,-17.873,-16.197,9.7083,-34.777,-3.2875,-32.855,30.682,-30.771,-14.147,-14.493,18.131,-6.146,20.143,-3.5106
-36.399,1.7714,-18.058,-16.258,9.5313,-34.714,-3.4565,-32.946,30.326,-30.681,-14.359,-14.445,18.087,-6.2131,19.968,-3.4155
-36.399,1.7714,-18.058,-16.258,9.5313,-34.714,-3.4565,-32.946,30.326,-30.681,-14.359,-14.445,18.087,-6.2131,19.968,-3.4155
-36.501,1.6986,-18.244,-16.32,9.3542,-34.651,-3.6238,-33.039,29.973,-30.593,-14.569,-14.398,18.044,-6.2827,19.792,-3.3227
-36.501,1.6986,-18.244,-16.32,9.3542,-34.651,-3.6238,-33.039,29.973,-30.593,-14.569,-14.398,18.044,-6.2827,19.792,-3.3227
-36.603,1.6251,-18.429,-16.382,9.1772,-34.587,-3.7894,-33.132,29.62,-30.507,-14.778,-14.354,18.002,-6.3546,19.616,-3.2322
-36.603,1.6251,-18.429,-16.382,9.1772,-34.587,-3.7894,-33.132,29.62,-30.507,-14.778,-14.354,18.002,-6.3546,19.616,-3.2322
-36.703,1.551,-18.613,-16.444,9.0001,-34.523,-3.9533,-33.227,29.27,-30.423,-14.987,-14.312,17.962,-6.429,19.44,-3.1441
-36.703,1.551,-18.613,-16.444,9.0001,-34.523,-3.9533,-33.227,29.27,-30.423,-14.987,-14.312,17.962,-6.429,19.44,-3.1441
-36.803,1.4763,-18.797,-16.508,8.8231,-34.459,-4.1153,-33.323,28.921,-30.34,-15.194,-14.271,17.923,-6.5059,19.263,-3.0583
-36.803,1.4763,-18.797,-16.508,8.8231,-34.459,-4.1153,-33.323,28.921,-30.34,-15.194,-14.271,17.923,-6.5059,19.263,-3.0583
-36.902,1.401,-18.981,-16.571,8.6462,-34.394,-4.2755,-33.421,28.574,-30.26,-15.401,-14.233,17.886,-6.5851,19.085,-2.9749
-36.902,1.401,-18.981,-16.571,8.6462,-34.394,-4.2755,-33.421,28.574,-30.26,-15.401,-14.233,17.886,-6.5851,19.085,-2.9749
-37.001,1.3251,-19.164,-16.635,8.4694,-34.329,-4.4339,-33.52,28.229,-30.181,-15.606,-14.197,17.85,-6.6669,18.907,-2.8939
-37.001,1.3251,-19.164,-16.635,8.4694,-34.329,-4.4339,-33.52,28.229,-30.181,-15.606,-14.197,17.85,-6.6669,18.907,-2.8939
-37.098,1.2485,-19.347,-16.7,8.2926,-34.264,-4.5905,-33.62,27.885,-30.105,-15.811,-14.163,17.816,-6.7511,18.729,-2.8153
-37.098,1.2485,-19.347,-16.7,8.2926,-34.264,-4.5905,-33.62,27.885,-30.105,-15.811,-14.163,17.816,-6.7511,18.729,-2.8153
-37.195,1.1714,-19.529,-16.766,8.116,-34.198,-4.7451,-33.721,27.543,-30.03,-16.014,-14.132,17.783,-6.8378,18.551,-2.7391
-37.195,1.1714,-19.529,-16.766,8.116,-34.198,-4.7451,-33.721,27.543,-30.03,-16.014,-14.132,17.783,-6.8378,18.551,-2.7391
-37.291,1.0936,-19.71,-16.832,7.9395,-34.133,-4.8979,-33.824,27.203,-29.957,-16.216,-14.102,17.751,-6.9271,18.373,-2.6653
-37.386,1.0152,-19.891,-16.898,7.7632,-34.066,-5.0487,-33.928,26.865,-29.887,-16.417,-14.075,17.722,-7.0188,18.194,-2.594
-37.386,1.0152,-19.891,-16.898,7.7632,-34.066,-5.0487,-33.928,26.865,-29.887,-16.417,-14.075,17.722,-7.0188,18.194,-2.594
-37.481,0.93618,-20.071,-16.965,7.5871,-34,-5.1975,-34.034,26.528,-29.818,-16.617,-14.05,17.693,-7.1131,18.015,-2.5252
-37.481,0.93618,-20.071,-16.965,7.5871,-34,-5.1975,-34.034,26.528,-29.818,-16.617,-14.05,17.693,-7.1131,18.015,-2.5252
-37.481,0.93618,-20.071,-16.965,7.5871,-34,-5.1975,-34.034,26.528,-29.818,-16.617,-14.05,17.693,-7.1131,18.015,-2.5252
-37.575,0.85655,-20.251,-17.033,7.4111,-33.933,-5.3444,-34.141,26.194,-29.751,-16.815,-14.026,17.667,-7.2099,17.835,-2.4588
-37.575,0.85655,-20.251,-17.033,7.4111,-33.933,-5.3444,-34.141,26.194,-29.751,-16.815,-14.026,17.667,-7.2099,17.835,-2.4588
-37.667,0.77631,-20.43,-17.101,7.2354,-33.866,-5.4893,-34.249,25.861,-29.687,-17.013,-14.006,17.641,-7.3093,17.656,-2.395
-37.667,0.77631,-20.43,-17.101,7.2354,-33.866,-5.4893,-34.249,25.861,-29.687,-17.013,-14.006,17.641,-7.3093,17.656,-2.395
-37.76,0.69544,-20.608,-17.17,7.0599,-33.799,-5.6322,-34.358,25.531,-29.625,-17.209,-13.987,17.618,-7.4112,17.476,-2.3336
-37.76,0.69544,-20.608,-17.17,7.0599,-33.799,-5.6322,-34.358,25.531,-29.625,-17.209,-13.987,17.618,-7.4112,17.476,-2.3336
-37.851,0.61396,-20.786,-17.24,6.8847,-33.732,-5.773,-34.469,25.202,-29.564,-17.404,-13.971,17.596,-7.5157,17.296,-2.2747
-37.941,0.53186,-20.962,-17.31,6.7097,-33.664,-5.9117,-34.581,24.876,-29.506,-17.597,-13.957,17.575,-7.6228,17.116,-2.2184
-37.941,0.53186,-20.962,-17.31,6.7097,-33.664,-5.9117,-34.581,24.876,-29.506,-17.597,-13.957,17.575,-7.6228,17.116,-2.2184
-37.941,0.53186,-20.962,-17.31,6.7097,-33.664,-5.9117,-34.581,24.876,-29.506,-17.597,-13.957,17.575,-7.6228,17.116,-2.2184
-38.031,0.44915,-21.138,-17.381,6.535,-33.597,-6.0483,-34.694,24.551,-29.45,-17.79,-13.945,17.557,-7.7325,16.936,-2.1646
-38.031,0.44915,-21.138,-17.381,6.535,-33.597,-6.0483,-34.694,24.551,-29.45,-17.79,-13.945,17.557,-7.7325,16.936,-2.1646
-38.031,0.44915,-21.138,-17.381,6.535,-33.597,-6.0483,-34.694,24.551,-29.45,-17.79,-13.945,17.557,-7.7325,16.936,-2.1646
-38.12,0.36582,-21.313,-17.453,6.3606,-33.529,-6.1829,-34.809,24.229,-29.397,-17.981,-13.935,17.539,-7.8447,16.756,-2.1134
-38.12,0.36582,-21.313,-17.453,6.3606,-33.529,-6.1829,-34.809,24.229,-29.397,-17.981,-13.935,17.539,-7.8447,16.756,-2.1134
-38.207,0.28188,-21.487,-17.525,6.1866,-33.46,-6.3153,-34.925,23.908,-29.345,-18.17,-13.928,17.524,-7.9596,16.575,-2.0647
-38.294,0.19733,-21.661,-17.598,6.0129,-33.392,-6.4455,-35.042,23.59,-29.296,-18.359,-13.923,17.51,-8.0771,16.395,-2.0186
-38.294,0.19733,-21.661,-17.598,6.0129,-33.392,-6.4455,-35.042,23.59,-29.296,-18.359,-13.923,17.51,-8.0771,16.395,-2.0186
-38.381,0.11216,-21.833,-17.671,5.8396,-33.323,-6.5736,-35.161,23.274,-29.249,-18.546,-13.92,17.498,-8.1972,16.214,-1.9751
-38.381,0.11216,-21.833,-17.671,5.8396,-33.323,-6.5736,-35.161,23.274,-29.249,-18.546,-13.92,17.498,-8.1972,16.214,-1.9751
-38.466,0.026383,-22.004,-17.746,5.6667,-33.255,-6.6994,-35.28,22.961,-29.204,-18.731,-13.92,17.487,-8.32,16.034,-1.9342
-38.466,0.026383,-22.004,-17.746,5.6667,-33.255,-6.6994,-35.28,22.961,-29.204,-18.731,-13.92,17.487,-8.32,16.034,-1.9342
-38.55,-0.060004,-22.175,-17.82,5.4941,-33.186,-6.823,-35.402,22.649,-29.162,-18.915,-13.921,17.478,-8.4454,15.854,-1.8959
-38.55,-0.060004,-22.175,-17.82,5.4941,-33.186,-6.823,-35.402,22.649,-29.162,-18.915,-13.921,17.478,-8.4454,15.854,-1.8959
-38.55,-0.060004,-22.175,-17.82,5.4941,-33.186,-6.823,-35.402,22.649,-29.162,-18.915,-13.921,17.478,-8.4454,15.854,-1.8959
-38.634,-0.147,-22.344,-17.896,5.322,-33.116,-6.9444,-35.524,22.34,-29.122,-19.098,-13.926,17.471,-8.5734,15.673,-1.8602
-38.634,-0.147,-22.344,-17.896,5.322,-33.116,-6.9444,-35.524,22.34,-29.122,-19.098,-13.926,17.471,-8.5734,15.673,-1.8602
-38.634,-0.147,-22.344,-17.896,5.322,-33.116,-6.9444,-35.524,22.34,-29.122,-19.098,-13.926,17.471,-8.5734,15.673,-1.8602
-38.798,-0.32281,-22.68,-18.049,4.9791,-32.978,-7.1803,-35.773,21.728,-29.048,-19.459,-13.941,17.462,-8.8375,15.313,-1.7967
-38.798,-0.32281,-22.68,-18.049,4.9791,-32.978,-7.1803,-35.773,21.728,-29.048,-19.459,-13.941,17.462,-8.8375,15.313,-1.7967
-38.879,-0.41162,-22.847,-18.127,4.8084,-32.908,-7.2949,-35.899,21.426,-29.015,-19.637,-13.952,17.46,-8.9735,15.132,-1.7689
-38.879,-0.41162,-22.847,-18.127,4.8084,-32.908,-7.2949,-35.899,21.426,-29.015,-19.637,-13.952,17.46,-8.9735,15.132,-1.7689
-38.959,-0.50103,-23.012,-18.205,4.6381,-32.839,-7.4071,-36.027,21.126,-28.985,-19.814,-13.966,17.459,-9.1122,14.952,-1.7437
-38.959,-0.50103,-23.012,-18.205,4.6381,-32.839,-7.4071,-36.027,21.126,-28.985,-19.814,-13.966,17.459,-9.1122,14.952,-1.7437
-39.038,-0.59104,-23.176,-18.284,4.4684,-32.769,-7.5169,-36.156,20.829,-28.956,-19.989,-13.982,17.461,-9.2536,14.773,-1.7213
-39.038,-0.59104,-23.176,-18.284,4.4684,-32.769,-7.5169,-36.156,20.829,-28.956,-19.989,-13.982,17.461,-9.2536,14.773,-1.7213
-39.116,-0.68165,-23.339,-18.363,4.2992,-32.699,-7.6244,-36.286,20.534,-28.931,-20.162,-14,17.464,-9.3976,14.593,-1.7014
-39.116,-0.68165,-23.339,-18.363,4.2992,-32.699,-7.6244,-36.286,20.534,-28.931,-20.162,-14,17.464,-9.3976,14.593,-1.7014
-39.193,-0.77285,-23.501,-18.444,4.1305,-32.629,-7.7295,-36.418,20.241,-28.907,-20.334,-14.021,17.469,-9.5444,14.413,-1.6843
-39.193,-0.77285,-23.501,-18.444,4.1305,-32.629,-7.7295,-36.418,20.241,-28.907,-20.334,-14.021,17.469,-9.5444,14.413,-1.6843
-39.193,-0.77285,-23.501,-18.444,4.1305,-32.629,-7.7295,-36.418,20.241,-28.907,-20.334,-14.021,17.469,-9.5444,14.413,-1.6843
-39.27,-0.86464,-23.661,-18.525,3.9624,-32.559,-7.8322,-36.55,19.951,-28.886,-20.504,-14.044,17.476,-9.6938,14.234,-1.6698
-39.27,-0.86464,-23.661,-18.525,3.9624,-32.559,-7.8322,-36.55,19.951,-28.886,-20.504,-14.044,17.476,-9.6938,14.234,-1.6698
-39.345,-0.95702,-23.821,-18.607,3.7949,-32.488,-7.9324,-36.684,19.664,-28.868,-20.673,-14.07,17.484,-9.8459,14.055,-1.658
-39.345,-0.95702,-23.821,-18.607,3.7949,-32.488,-7.9324,-36.684,19.664,-28.868,-20.673,-14.07,17.484,-9.8459,14.055,-1.658
-39.419,-1.05,-23.979,-18.689,3.628,-32.418,-8.0302,-36.82,19.379,-28.852,-20.84,-14.098,17.494,-10.001,13.876,-1.6489
-39.493,-1.1435,-24.136,-18.772,3.4618,-32.348,-8.1256,-36.956,19.097,-28.838,-21.005,-14.128,17.506,-10.158,13.697,-1.6424
-39.565,-1.2377,-24.291,-18.856,3.2961,-32.277,-8.2185,-37.094,18.817,-28.827,-21.169,-14.161,17.52,-10.319,13.519,-1.6387
-39.565,-1.2377,-24.291,-18.856,3.2961,-32.277,-8.2185,-37.094,18.817,-28.827,-21.169,-14.161,17.52,-10.319,13.519,-1.6387
-39.636,-1.3324,-24.446,-18.94,3.1311,-32.207,-8.3088,-37.233,18.54,-28.819,-21.331,-14.196,17.536,-10.481,13.341,-1.6377
-39.636,-1.3324,-24.446,-18.94,3.1311,-32.207,-8.3088,-37.233,18.54,-28.819,-21.331,-14.196,17.536,-10.481,13.341,-1.6377
-39.636,-1.3324,-24.446,-18.94,3.1311,-32.207,-8.3088,-37.233,18.54,-28.819,-21.331,-14.196,17.536,-10.481,13.341,-1.6377
-39.707,-1.4277,-24.598,-19.026,2.9668,-32.136,-8.3967,-37.373,18.265,-28.813,-21.491,-14.234,17.554,-10.647,13.163,-1.6394
-39.707,-1.4277,-24.598,-19.026,2.9668,-32.136,-8.3967,-37.373,18.265,-28.813,-21.491,-14.234,17.554,-10.647,13.163,-1.6394
-39.707,-1.4277,-24.598,-19.026,2.9668,-32.136,-8.3967,-37.373,18.265,-28.813,-21.491,-14.234,17.554,-10.647,13.163,-1.6394
-39.776,-1.5235,-24.75,-19.112,2.8032,-32.065,-8.482,-37.514,17.994,-28.81,-21.649,-14.274,17.573,-10.815,12.986,-1.6438
-39.845,-1.62,-24.9,-19.198,2.6403,-31.994,-8.5648,-37.657,17.725,-28.809,-21.806,-14.316,17.594,-10.986,12.809,-1.6509
-39.913,-1.717,-25.048,-19.286,2.4781,-31.924,-8.645,-37.801,17.458,-28.811,-21.96,-14.361,17.618,-11.16,12.632,-1.6607
-39.913,-1.717,-25.048,-19.286,2.4781,-31.924,-8.645,-37.801,17.458,-28.811,-21.96,-14.361,17.618,-11.16,12.632,-1.6607
-39.913,-1.717,-25.048,-19.286,2.4781,-31.924,-8.645,-37.801,17.458,-28.811,-21.96,-14.361,17.618,-11.16,12.632,-1.6607
-39.979,-1.8145,-25.196,-19.374,2.3166,-31.853,-8.7226,-37.946,17.195,-28.815,-22.113,-14.409,17.643,-11.337,12.456,-1.6733
-39.979,-1.8145,-25.196,-19.374,2.3166,-31.853,-8.7226,-37.946,17.195,-28.815,-22.113,-14.409,17.643,-11.337,12.456,-1.6733
-39.979,-1.8145,-25.196,-19.374,2.3166,-31.853,-8.7226,-37.946,17.195,-28.815,-22.113,-14.409,17.643,-11.337,12.456,-1.6733
-40.045,-1.9126,-25.341,-19.463,2.1559,-31.782,-8.7977,-38.092,16.934,-28.822,-22.264,-14.459,17.67,-11.516,12.28,-1.6885
-40.045,-1.9126,-25.341,-19.463,2.1559,-31.782,-8.7977,-38.092,16.934,-28.822,-22.264,-14.459,17.67,-11.516,12.28,-1.6885
-40.109,-2.0113,-25.485,-19.552,1.996,-31.711,-8.8701,-38.239,16.676,-28.832,-22.414,-14.511,17.698,-11.698,12.105,-1.7065
-40.173,-2.1105,-25.628,-19.642,1.8369,-31.64,-8.9398,-38.388,16.421,-28.845,-22.561,-14.566,17.729,-11.882,11.93,-1.7273
-40.173,-2.1105,-25.628,-19.642,1.8369,-31.64,-8.9398,-38.388,16.421,-28.845,-22.561,-14.566,17.729,-11.882,11.93,-1.7273
-40.235,-2.2103,-25.769,-19.733,1.6786,-31.569,-9.007,-38.538,16.169,-28.86,-22.706,-14.623,17.762,-12.07,11.756,-1.7507
-40.235,-2.2103,-25.769,-19.733,1.6786,-31.569,-9.007,-38.538,16.169,-28.86,-22.706,-14.623,17.762,-12.07,11.756,-1.7507
-40.297,-2.3106,-25.908,-19.825,1.5211,-31.498,-9.0714,-38.688,15.92,-28.877,-22.85,-14.682,17.796,-12.26,11.583,-1.7769
-40.297,-2.3106,-25.908,-19.825,1.5211,-31.498,-9.0714,-38.688,15.92,-28.877,-22.85,-14.682,17.796,-12.26,11.583,-1.7769
-40.357,-2.4114,-26.046,-19.917,1.3645,-31.427,-9.1332,-38.84,15.673,-28.898,-22.992,-14.744,17.833,-12.452,11.409,-1.8058
-40.357,-2.4114,-26.046,-19.917,1.3645,-31.427,-9.1332,-38.84,15.673,-28.898,-22.992,-14.744,17.833,-12.452,11.409,-1.8058
-40.357,-2.4114,-26.046,-19.917,1.3645,-31.427,-9.1332,-38.84,15.673,-28.898,-22.992,-14.744,17.833,-12.452,11.409,-1.8058
-40.416,-2.5128,-26.182,-20.01,1.2087,-31.356,-9.1923,-38.993,15.43,-28.921,-23.131,-14.809,17.871,-12.648,11.237,-1.8374
-40.416,-2.5128,-26.182,-20.01,1.2087,-31.356,-9.1923,-38.993,15.43,-28.921,-23.131,-14.809,17.871,-12.648,11.237,-1.8374
-40.416,-2.5128,-26.182,-20.01,1.2087,-31.356,-9.1923,-38.993,15.43,-28.921,-23.131,-14.809,17.871,-12.648,11.237,-1.8374
-40.416,-2.5128,-26.182,-20.01,1.2087,-31.356,-9.1923,-38.993,15.43,-28.921,-23.131,-14.809,17.871,-12.648,11.237,-1.8374
-40.532,-2.7171,-26.45,-20.198,0.89977,-31.214,-9.3023,-39.303,14.952,-28.975,-23.405,-14.945,17.953,-13.047,10.893,-1.9088
-40.532,-2.7171,-26.45,-20.198,0.89977,-31.214,-9.3023,-39.303,14.952,-28.975,-23.405,-14.945,17.953,-13.047,10.893,-1.9088
-40.532,-2.7171,-26.45,-20.198,0.89977,-31.214,-9.3023,-39.303,14.952,-28.975,-23.405,-14.945,17.953,-13.047,10.893,-1.9088
-40.643,-2.9235,-26.711,-20.389,0.59449,-31.072,-9.4014,-39.617,14.486,-29.04,-23.67,-15.091,18.044,-13.456,10.553,-1.9911
-40.643,-2.9235,-26.711,-20.389,0.59449,-31.072,-9.4014,-39.617,14.486,-29.04,-23.67,-15.091,18.044,-13.456,10.553,-1.9911
-40.698,-3.0275,-26.838,-20.485,0.44324,-31.001,-9.4468,-39.775,14.258,-29.076,-23.8,-15.168,18.092,-13.665,10.383,-2.0363
-40.698,-3.0275,-26.838,-20.485,0.44324,-31.001,-9.4468,-39.775,14.258,-29.076,-23.8,-15.168,18.092,-13.665,10.383,-2.0363
-40.751,-3.1319,-26.964,-20.582,0.29296,-30.93,-9.4895,-39.935,14.032,-29.116,-23.927,-15.247,18.142,-13.876,10.215,-2.0843
-40.751,-3.1319,-26.964,-20.582,0.29296,-30.93,-9.4895,-39.935,14.032,-29.116,-23.927,-15.247,18.142,-13.876,10.215,-2.0843
-40.803,-3.2369,-27.088,-20.68,0.14364,-30.859,-9.5293,-40.096,13.81,-29.158,-24.053,-15.329,18.194,-14.091,10.047,-2.1349
-40.803,-3.2369,-27.088,-20.68,0.14364,-30.859,-9.5293,-40.096,13.81,-29.158,-24.053,-15.329,18.194,-14.091,10.047,-2.1349
-40.854,-3.3423,-27.211,-20.779,-0.0046814,-30.788,-9.5663,-40.257,13.591,-29.203,-24.176,-15.413,18.248,-14.307,9.8795,-2.1883
-40.854,-3.3423,-27.211,-20.779,-0.0046814,-30.788,-9.5663,-40.257,13.591,-29.203,-24.176,-15.413,18.248,-14.307,9.8795,-2.1883
-40.854,-3.3423,-27.211,-20.779,-0.0046814,-30.788,-9.5663,-40.257,13.591,-29.203,-24.176,-15.413,18.248,-14.307,9.8795,-2.1883
-40.903,-3.4483,-27.331,-20.878,-0.152,-30.717,-9.6006,-40.42,13.375,-29.25,-24.298,-15.499,18.304,-14.527,9.7131,-2.2444
-40.903,-3.4483,-27.331,-20.878,-0.152,-30.717,-9.6006,-40.42,13.375,-29.25,-24.298,-15.499,18.304,-14.527,9.7131,-2.2444
-40.952,-3.5547,-27.45,-20.978,-0.29831,-30.646,-9.632,-40.584,13.163,-29.301,-24.417,-15.588,18.362,-14.749,9.5475,-2.3031
-40.952,-3.5547,-27.45,-20.978,-0.29831,-30.646,-9.632,-40.584,13.163,-29.301,-24.417,-15.588,18.362,-14.749,9.5475,-2.3031
-41,-3.6616,-27.567,-21.078,-0.44358,-30.575,-9.6606,-40.748,12.953,-29.354,-24.534,-15.679,18.422,-14.974,9.3827,-2.3646
-41,-3.6616,-27.567,-21.078,-0.44358,-30.575,-9.6606,-40.748,12.953,-29.354,-24.534,-15.679,18.422,-14.974,9.3827,-2.3646
-41.092,-3.8768,-27.794,-21.281,-0.73096,-30.433,-9.7091,-41.081,12.544,-29.469,-24.762,-15.869,18.548,-15.431,9.0556,-2.4956
-41.092,-3.8768,-27.794,-21.281,-0.73096,-30.433,-9.7091,-41.081,12.544,-29.469,-24.762,-15.869,18.548,-15.431,9.0556,-2.4956
-41.092,-3.8768,-27.794,-21.281,-0.73096,-30.433,-9.7091,-41.081,12.544,-29.469,-24.762,-15.869,18.548,-15.431,9.0556,-2.4956
-41.136,-3.9851,-27.905,-21.383,-0.87304,-30.363,-9.7291,-41.248,12.344,-29.531,-24.872,-15.967,18.614,-15.664,8.8933,-2.5651
-41.136,-3.9851,-27.905,-21.383,-0.87304,-30.363,-9.7291,-41.248,12.344,-29.531,-24.872,-15.967,18.614,-15.664,8.8933,-2.5651
-41.136,-3.9851,-27.905,-21.383,-0.87304,-30.363,-9.7291,-41.248,12.344,-29.531,-24.872,-15.967,18.614,-15.664,8.8933,-2.5651
-41.179,-4.0938,-28.014,-21.486,-1.014,-30.292,-9.7463,-41.417,12.148,-29.595,-24.981,-16.068,18.682,-15.899,8.732,-2.6373
-41.179,-4.0938,-28.014,-21.486,-1.014,-30.292,-9.7463,-41.417,12.148,-29.595,-24.981,-16.068,18.682,-15.899,8.732,-2.6373
-41.263,-4.3126,-28.226,-21.694,-1.2927,-30.151,-9.7718,-41.756,11.765,-29.732,-25.191,-16.277,18.824,-16.378,8.4121,-2.7897
-41.263,-4.3126,-28.226,-21.694,-1.2927,-30.151,-9.7718,-41.756,11.765,-29.732,-25.191,-16.277,18.824,-16.378,8.4121,-2.7897
-41.263,-4.3126,-28.226,-21.694,-1.2927,-30.151,-9.7718,-41.756,11.765,-29.732,-25.191,-16.277,18.824,-16.378,8.4121,-2.7897
-41.302,-4.4227,-28.329,-21.799,-1.4303,-30.08,-9.7802,-41.927,11.578,-29.805,-25.292,-16.386,18.898,-16.621,8.2535,-2.8699
-41.302,-4.4227,-28.329,-21.799,-1.4303,-30.08,-9.7802,-41.927,11.578,-29.805,-25.292,-16.386,18.898,-16.621,8.2535,-2.8699
-41.302,-4.4227,-28.329,-21.799,-1.4303,-30.08,-9.7802,-41.927,11.578,-29.805,-25.292,-16.386,18.898,-16.621,8.2535,-2.8699
-41.341,-4.5332,-28.43,-21.905,-1.5667,-30.01,-9.7858,-42.1,11.395,-29.881,-25.392,-16.496,18.974,-16.866,8.096,-2.9527
-41.379,-4.6441,-28.529,-22.011,-1.702,-29.939,-9.7883,-42.272,11.215,-29.959,-25.489,-16.609,19.052,-17.114,7.9394,-3.0382
-41.379,-4.6441,-28.529,-22.011,-1.702,-29.939,-9.7883,-42.272,11.215,-29.959,-25.489,-16.609,19.052,-17.114,7.9394,-3.0382
-41.415,-4.7554,-28.626,-22.118,-1.8361,-29.869,-9.788,-42.446,11.039,-30.04,-25.584,-16.724,19.132,-17.365,7.7839,-3.1263
-41.415,-4.7554,-28.626,-22.118,-1.8361,-29.869,-9.788,-42.446,11.039,-30.04,-25.584,-16.724,19.132,-17.365,7.7839,-3.1263
-41.415,-4.7554,-28.626,-22.118,-1.8361,-29.869,-9.788,-42.446,11.039,-30.04,-25.584,-16.724,19.132,-17.365,7.7839,-3.1263
-41.415,-4.7554,-28.626,-22.118,-1.8361,-29.869,-9.788,-42.446,11.039,-30.04,-25.584,-16.724,19.132,-17.365,7.7839,-3.1263
-41.485,-4.9792,-28.813,-22.333,-2.1008,-29.728,-9.7785,-42.796,10.697,-30.212,-25.767,-16.962,19.299,-17.874,7.476,-3.3103
-41.485,-4.9792,-28.813,-22.333,-2.1008,-29.728,-9.7785,-42.796,10.697,-30.212,-25.767,-16.962,19.299,-17.874,7.476,-3.3103
-41.518,-5.0917,-28.904,-22.442,-2.2313,-29.658,-9.7693,-42.972,10.53,-30.301,-25.855,-17.084,19.385,-18.132,7.3237,-3.4062
-41.518,-5.0917,-28.904,-22.442,-2.2313,-29.658,-9.7693,-42.972,10.53,-30.301,-25.855,-17.084,19.385,-18.132,7.3237,-3.4062
-41.55,-5.2046,-28.992,-22.551,-2.3605,-29.588,-9.7571,-43.149,10.368,-30.394,-25.94,-17.208,19.473,-18.393,7.1725,-3.5047
-41.55,-5.2046,-28.992,-22.551,-2.3605,-29.588,-9.7571,-43.149,10.368,-30.394,-25.94,-17.208,19.473,-18.393,7.1725,-3.5047
-41.581,-5.3179,-29.078,-22.661,-2.4886,-29.517,-9.742,-43.327,10.209,-30.489,-26.023,-17.335,19.564,-18.656,7.0224,-3.6057
-41.61,-5.4315,-29.162,-22.771,-2.6153,-29.447,-9.7239,-43.505,10.053,-30.588,-26.104,-17.464,19.656,-18.922,6.8734,-3.7094
-41.61,-5.4315,-29.162,-22.771,-2.6153,-29.447,-9.7239,-43.505,10.053,-30.588,-26.104,-17.464,19.656,-18.922,6.8734,-3.7094
-41.61,-5.4315,-29.162,-22.771,-2.6153,-29.447,-9.7239,-43.505,10.053,-30.588,-26.104,-17.464,19.656,-18.922,6.8734,-3.7094
-41.639,-5.5455,-29.244,-22.882,-2.7408,-29.377,-9.7028,-43.684,9.9011,-30.689,-26.183,-17.596,19.751,-19.19,6.7256,-3.8156
-41.639,-5.5455,-29.244,-22.882,-2.7408,-29.377,-9.7028,-43.684,9.9011,-30.689,-26.183,-17.596,19.751,-19.19,6.7256,-3.8156
-41.666,-5.6599,-29.323,-22.993,-2.865,-29.307,-9.6787,-43.864,9.7525,-30.793,-26.259,-17.73,19.847,-19.461,6.579,-3.9243
-41.666,-5.6599,-29.323,-22.993,-2.865,-29.307,-9.6787,-43.864,9.7525,-30.793,-26.259,-17.73,19.847,-19.461,6.579,-3.9243
-41.692,-5.7746,-29.4,-23.105,-2.9879,-29.238,-9.6517,-44.045,9.6075,-30.9,-26.332,-17.866,19.946,-19.734,6.4336,-4.0355
-41.692,-5.7746,-29.4,-23.105,-2.9879,-29.238,-9.6517,-44.045,9.6075,-30.9,-26.332,-17.866,19.946,-19.734,6.4336,-4.0355
-41.717,-5.8896,-29.475,-23.217,-3.1094,-29.168,-9.6216,-44.226,9.466,-31.009,-26.404,-18.004,20.046,-20.01,6.2895,-4.1493
-41.717,-5.8896,-29.475,-23.217,-3.1094,-29.168,-9.6216,-44.226,9.466,-31.009,-26.404,-18.004,20.046,-20.01,6.2895,-4.1493
-41.741,-6.0049,-29.548,-23.33,-3.2297,-29.098,-9.5885,-44.407,9.3282,-31.122,-26.473,-18.144,20.149,-20.287,6.1465,-4.2656
-41.763,-6.1206,-29.618,-23.444,-3.3486,-29.028,-9.5525,-44.59,9.1939,-31.237,-26.539,-18.287,20.254,-20.568,6.0049,-4.3844
-41.763,-6.1206,-29.618,-23.444,-3.3486,-29.028,-9.5525,-44.59,9.1939,-31.237,-26.539,-18.287,20.254,-20.568,6.0049,-4.3844
-41.763,-6.1206,-29.618,-23.444,-3.3486,-29.028,-9.5525,-44.59,9.1939,-31.237,-26.539,-18.287,20.254,-20.568,6.0049,-4.3844
-41.785,-6.2366,-29.687,-23.557,-3.4662,-28.959,-9.5134,-44.773,9.0632,-31.355,-26.603,-18.432,20.36,-20.85,5.8645,-4.5056
-41.785,-6.2366,-29.687,-23.557,-3.4662,-28.959,-9.5134,-44.773,9.0632,-31.355,-26.603,-18.432,20.36,-20.85,5.8645,-4.5056
-41.785,-6.2366,-29.687,-23.557,-3.4662,-28.959,-9.5134,-44.773,9.0632,-31.355,-26.603,-18.432,20.36,-20.85,5.8645,-4.5056
-41.805,-6.3529,-29.752,-23.672,-3.5824,-28.889,-9.4713,-44.956,8.9362,-31.476,-26.664,-18.579,20.469,-21.135,5.7254,-4.6293
-41.824,-6.4695,-29.816,-23.787,-3.6972,-28.82,-9.4262,-45.141,8.8128,-31.6,-26.723,-18.729,20.58,-21.423,5.5877,-4.7555
-41.824,-6.4695,-29.816,-23.787,-3.6972,-28.82,-9.4262,-45.141,8.8128,-31.6,-26.723,-18.729,20.58,-21.423,5.5877,-4.7555
-41.842,-6.5864,-29.877,-23.902,-3.8106,-28.751,-9.3781,-45.325,8.693,-31.726,-26.78,-18.88,20.693,-21.712,5.4513,-4.8841
-41.858,-6.7036,-29.935,-24.018,-3.9227,-28.681,-9.327,-45.51,8.5769,-31.856,-26.834,-19.034,20.808,-22.004,5.3162,-5.0151
-41.858,-6.7036,-29.935,-24.018,-3.9227,-28.681,-9.327,-45.51,8.5769,-31.856,-26.834,-19.034,20.808,-22.004,5.3162,-5.0151
-41.858,-6.7036,-29.935,-24.018,-3.9227,-28.681,-9.327,-45.51,8.5769,-31.856,-26.834,-19.034,20.808,-22.004,5.3162,-5.0151
-41.874,-6.821,-29.992,-24.134,-4.0333,-28.612,-9.2728,-45.696,8.4645,-31.988,-26.885,-19.19,20.925,-22.298,5.1825,-5.1485
-41.874,-6.821,-29.992,-24.134,-4.0333,-28.612,-9.2728,-45.696,8.4645,-31.988,-26.885,-19.19,20.925,-22.298,5.1825,-5.1485
-41.874,-6.821,-29.992,-24.134,-4.0333,-28.612,-9.2728,-45.696,8.4645,-31.988,-26.885,-19.19,20.925,-22.298,5.1825,-5.1485
-41.874,-6.821,-29.992,-24.134,-4.0333,-28.612,-9.2728,-45.696,8.4645,-31.988,-26.885,-19.19,20.925,-22.298,5.1825,-5.1485
-41.901,-7.0567,-30.097,-24.368,-4.2503,-28.474,-9.1554,-46.069,8.2507,-32.26,-26.981,-19.508,21.165,-22.894,4.9194,-5.4224
-41.901,-7.0567,-30.097,-24.368,-4.2503,-28.474,-9.1554,-46.069,8.2507,-32.26,-26.981,-19.508,21.165,-22.894,4.9194,-5.4224
-41.913,-7.1748,-30.146,-24.485,-4.3566,-28.405,-9.0921,-46.256,8.1494,-32.401,-27.025,-19.67,21.288,-23.195,4.79,-5.5629
-41.913,-7.1748,-30.146,-24.485,-4.3566,-28.405,-9.0921,-46.256,8.1494,-32.401,-27.025,-19.67,21.288,-23.195,4.79,-5.5629
-41.913,-7.1748,-30.146,-24.485,-4.3566,-28.405,-9.0921,-46.256,8.1494,-32.401,-27.025,-19.67,21.288,-23.195,4.79,-5.5629
-41.924,-7.2933,-30.192,-24.603,-4.4615,-28.336,-9.0259,-46.443,8.0518,-32.544,-27.066,-19.835,21.413,-23.498,4.662,-5.7058
-41.924,-7.2933,-30.192,-24.603,-4.4615,-28.336,-9.0259,-46.443,8.0518,-32.544,-27.066,-19.835,21.413,-23.498,4.662,-5.7058
-41.933,-7.4119,-30.236,-24.721,-4.5649,-28.267,-8.9566,-46.631,7.9579,-32.69,-27.105,-20.001,21.541,-23.803,4.5355,-5.8509
-41.933,-7.4119,-30.236,-24.721,-4.5649,-28.267,-8.9566,-46.631,7.9579,-32.69,-27.105,-20.001,21.541,-23.803,4.5355,-5.8509
-41.941,-7.5308,-30.278,-24.84,-4.6669,-28.198,-8.8842,-46.819,7.8677,-32.839,-27.142,-20.17,21.67,-24.111,4.4105,-5.9984
-41.948,-7.6499,-30.317,-24.959,-4.7673,-28.129,-8.8089,-47.008,7.7813,-32.991,-27.175,-20.34,21.801,-24.42,4.287,-6.1481
-41.948,-7.6499,-30.317,-24.959,-4.7673,-28.129,-8.8089,-47.008,7.7813,-32.991,-27.175,-20.34,21.801,-24.42,4.287,-6.1481
-41.954,-7.7692,-30.354,-25.078,-4.8663,-28.06,-8.7305,-47.197,7.6987,-33.145,-27.207,-20.513,21.934,-24.732,4.165,-6.3001
-41.954,-7.7692,-30.354,-25.078,-4.8663,-28.06,-8.7305,-47.197,7.6987,-33.145,-27.207,-20.513,21.934,-24.732,4.165,-6.3001
-41.959,-7.8886,-30.388,-25.198,-4.9638,-27.992,-8.6491,-47.386,7.6198,-33.302,-27.235,-20.687,22.07,-25.046,4.0446,-6.4544
-41.959,-7.8886,-30.388,-25.198,-4.9638,-27.992,-8.6491,-47.386,7.6198,-33.302,-27.235,-20.687,22.07,-25.046,4.0446,-6.4544
-41.962,-8.0083,-30.42,-25.318,-5.0597,-27.923,-8.5647,-47.575,7.5447,-33.462,-27.261,-20.864,22.207,-25.362,3.9257,-6.6108
-41.962,-8.0083,-30.42,-25.318,-5.0597,-27.923,-8.5647,-47.575,7.5447,-33.462,-27.261,-20.864,22.207,-25.362,3.9257,-6.6108
-41.964,-8.1281,-30.449,-25.438,-5.1542,-27.854,-8.4772,-47.765,7.4734,-33.624,-27.285,-21.042,22.346,-25.68,3.8084,-6.7695
-41.964,-8.1281,-30.449,-25.438,-5.1542,-27.854,-8.4772,-47.765,7.4734,-33.624,-27.285,-21.042,22.346,-25.68,3.8084,-6.7695
-41.965,-8.2481,-30.475,-25.559,-5.2471,-27.786,-8.3867,-47.955,7.4059,-33.79,-27.306,-21.223,22.488,-26,3.6927,-6.9303
-41.965,-8.2481,-30.475,-25.559,-5.2471,-27.786,-8.3867,-47.955,7.4059,-33.79,-27.306,-21.223,22.488,-26,3.6927,-6.9303
-41.965,-8.3682,-30.499,-25.68,-5.3384,-27.717,-8.2932,-48.145,7.3422,-33.957,-27.324,-21.405,22.631,-26.322,3.5786,-7.0934
-41.963,-8.4885,-30.52,-25.801,-5.4282,-27.649,-8.1967,-48.335,7.2823,-34.128,-27.34,-21.59,22.777,-26.646,3.4661,-7.2585
-41.963,-8.4885,-30.52,-25.801,-5.4282,-27.649,-8.1967,-48.335,7.2823,-34.128,-27.34,-21.59,22.777,-26.646,3.4661,-7.2585
-41.963,-8.4885,-30.52,-25.801,-5.4282,-27.649,-8.1967,-48.335,7.2823,-34.128,-27.34,-21.59,22.777,-26.646,3.4661,-7.2585
-41.961,-8.6089,-30.539,-25.922,-5.5165,-27.58,-8.0972,-48.525,7.2262,-34.301,-27.353,-21.776,22.924,-26.972,3.3553,-7.4258
-41.961,-8.6089,-30.539,-25.922,-5.5165,-27.58,-8.0972,-48.525,7.2262,-34.301,-27.353,-21.776,22.924,-26.972,3.3553,-7.4258
-41.957,-8.7294,-30.555,-26.044,-5.6031,-27.512,-7.9947,-48.716,7.174,-34.477,-27.363,-21.964,23.073,-27.3,3.2461,-7.5951
-41.957,-8.7294,-30.555,-26.044,-5.6031,-27.512,-7.9947,-48.716,7.174,-34.477,-27.363,-21.964,23.073,-27.3,3.2461,-7.5951
-41.952,-8.8501,-30.569,-26.166,-5.6882,-27.444,-7.8892,-48.907,7.1255,-34.656,-27.371,-22.154,23.225,-27.63,3.1386,-7.7666
-41.952,-8.8501,-30.569,-26.166,-5.6882,-27.444,-7.8892,-48.907,7.1255,-34.656,-27.371,-22.154,23.225,-27.63,3.1386,-7.7666
-41.945,-8.9708,-30.58,-26.288,-5.7717,-27.375,-7.7806,-49.097,7.0809,-34.837,-27.376,-22.346,23.378,-27.962,3.0328,-7.9401
-41.945,-8.9708,-30.58,-26.288,-5.7717,-27.375,-7.7806,-49.097,7.0809,-34.837,-27.376,-22.346,23.378,-27.962,3.0328,-7.9401
-41.938,-9.0916,-30.589,-26.41,-5.8536,-27.307,-7.6691,-49.288,7.0401,-35.021,-27.378,-22.539,23.533,-28.296,2.9287,-8.1156
-41.938,-9.0916,-30.589,-26.41,-5.8536,-27.307,-7.6691,-49.288,7.0401,-35.021,-27.378,-22.539,23.533,-28.296,2.9287,-8.1156
-41.929,-9.2125,-30.594,-26.532,-5.9339,-27.239,-7.5546,-49.479,7.0032,-35.208,-27.378,-22.734,23.691,-28.631,2.8263,-8.2932
-41.929,-9.2125,-30.594,-26.532,-5.9339,-27.239,-7.5546,-49.479,7.0032,-35.208,-27.378,-22.734,23.691,-28.631,2.8263,-8.2932
-41.929,-9.2125,-30.594,-26.532,-5.9339,-27.239,-7.5546,-49.479,7.0032,-35.208,-27.378,-22.734,23.691,-28.631,2.8263,-8.2932
-41.919,-9.3335,-30.598,-26.655,-6.0126,-27.171,-7.4371,-49.67,6.9701,-35.397,-27.375,-22.932,23.85,-28.968,2.7257,-8.4727
-41.907,-9.4546,-30.598,-26.778,-6.0897,-27.102,-7.3166,-49.861,6.9409,-35.588,-27.37,-23.13,24.011,-29.307,2.6268,-8.6542
-41.907,-9.4546,-30.598,-26.778,-6.0897,-27.102,-7.3166,-49.861,6.9409,-35.588,-27.37,-23.13,24.011,-29.307,2.6268,-8.6542
-41.895,-9.5757,-30.596,-26.901,-6.1652,-27.034,-7.1931,-50.051,6.9155,-35.783,-27.362,-23.331,24.174,-29.648,2.5297,-8.8376
-41.895,-9.5757,-30.596,-26.901,-6.1652,-27.034,-7.1931,-50.051,6.9155,-35.783,-27.362,-23.331,24.174,-29.648,2.5297,-8.8376
-41.881,-9.6968,-30.591,-27.024,-6.239,-26.966,-7.0667,-50.242,6.894,-35.98,-27.351,-23.533,24.34,-29.991,2.4343,-9.023
-41.881,-9.6968,-30.591,-27.024,-6.239,-26.966,-7.0667,-50.242,6.894,-35.98,-27.351,-23.533,24.34,-29.991,2.4343,-9.023
-41.866,-9.8179,-30.584,-27.147,-6.3112,-26.898,-6.9374,-50.433,6.8763,-36.179,-27.338,-23.737,24.507,-30.335,2.3408,-9.2102
-41.866,-9.8179,-30.584,-27.147,-6.3112,-26.898,-6.9374,-50.433,6.8763,-36.179,-27.338,-23.737,24.507,-30.335,2.3408,-9.2102
-41.85,-9.9391,-30.574,-27.27,-6.3817,-26.83,-6.805,-50.623,6.8625,-36.381,-27.322,-23.943,24.676,-30.681,2.2491,-9.3993
-41.85,-9.9391,-30.574,-27.27,-6.3817,-26.83,-6.805,-50.623,6.8625,-36.381,-27.322,-23.943,24.676,-30.681,2.2491,-9.3993
-41.85,-9.9391,-30.574,-27.27,-6.3817,-26.83,-6.805,-50.623,6.8625,-36.381,-27.322,-23.943,24.676,-30.681,2.2491,-9.3993
-41.832,-10.06,-30.561,-27.394,-6.4506,-26.762,-6.6698,-50.813,6.8526,-36.585,-27.303,-24.15,24.847,-31.029,2.1592,-9.5902
-41.832,-10.06,-30.561,-27.394,-6.4506,-26.762,-6.6698,-50.813,6.8526,-36.585,-27.303,-24.15,24.847,-31.029,2.1592,-9.5902
-41.794,-10.303,-30.527,-27.641,-6.5834,-26.625,-6.3904,-51.194,6.8443,-37.002,-27.257,-24.569,25.194,-31.729,1.9849,-9.9775
-41.794,-10.303,-30.527,-27.641,-6.5834,-26.625,-6.3904,-51.194,6.8443,-37.002,-27.257,-24.569,25.194,-31.729,1.9849,-9.9775
-41.772,-10.424,-30.506,-27.764,-6.6472,-26.557,-6.2463,-51.383,6.8459,-37.213,-27.231,-24.781,25.371,-32.082,1.9006,-10.174
-41.772,-10.424,-30.506,-27.764,-6.6472,-26.557,-6.2463,-51.383,6.8459,-37.213,-27.231,-24.781,25.371,-32.082,1.9006,-10.174
-41.772,-10.424,-30.506,-27.764,-6.6472,-26.557,-6.2463,-51.383,6.8459,-37.213,-27.231,-24.781,25.371,-32.082,1.9006,-10.174
-41.75,-10.545,-30.483,-27.888,-6.7094,-26.489,-6.0994,-51.573,6.8515,-37.428,-27.201,-24.995,25.549,-32.436,1.8182,-10.372
-41.75,-10.545,-30.483,-27.888,-6.7094,-26.489,-6.0994,-51.573,6.8515,-37.428,-27.201,-24.995,25.549,-32.436,1.8182,-10.372
-41.726,-10.666,-30.456,-28.011,-6.77,-26.421,-5.9495,-51.762,6.8608,-37.645,-27.169,-25.21,25.73,-32.791,1.7376,-10.572
-41.726,-10.666,-30.456,-28.011,-6.77,-26.421,-5.9495,-51.762,6.8608,-37.645,-27.169,-25.21,25.73,-32.791,1.7376,-10.572
-41.701,-10.787,-30.427,-28.135,-6.8288,-26.353,-5.7967,-51.951,6.8741,-37.864,-27.134,-25.427,25.912,-33.148,1.659,-10.773
-41.701,-10.787,-30.427,-28.135,-6.8288,-26.353,-5.7967,-51.951,6.8741,-37.864,-27.134,-25.427,25.912,-33.148,1.659,-10.773
-41.675,-10.908,-30.396,-28.258,-6.8859,-26.284,-5.6411,-52.139,6.8912,-38.085,-27.097,-25.645,26.096,-33.507,1.5822,-10.976
-41.675,-10.908,-30.396,-28.258,-6.8859,-26.284,-5.6411,-52.139,6.8912,-38.085,-27.097,-25.645,26.096,-33.507,1.5822,-10.976
-41.648,-11.029,-30.361,-28.381,-6.9413,-26.216,-5.4826,-52.328,6.9122,-38.309,-27.057,-25.864,26.282,-33.867,1.5074,-11.181
-41.648,-11.029,-30.361,-28.381,-6.9413,-26.216,-5.4826,-52.328,6.9122,-38.309,-27.057,-25.864,26.282,-33.867,1.5074,-11.181
-41.619,-11.15,-30.324,-28.505,-6.995,-26.148,-5.3212,-52.516,6.937,-38.535,-27.014,-26.085,26.47,-34.228,1.4346,-11.387
-41.619,-11.15,-30.324,-28.505,-6.995,-26.148,-5.3212,-52.516,6.937,-38.535,-27.014,-26.085,26.47,-34.228,1.4346,-11.387
-41.59,-11.27,-30.284,-28.628,-7.0471,-26.079,-5.157,-52.703,6.9657,-38.764,-26.968,-26.307,26.659,-34.591,1.3637,-11.595
-41.59,-11.27,-30.284,-28.628,-7.0471,-26.079,-5.157,-52.703,6.9657,-38.764,-26.968,-26.307,26.659,-34.591,1.3637,-11.595
-41.559,-11.391,-30.242,-28.751,-7.0973,-26.011,-4.9899,-52.89,6.9983,-38.995,-26.92,-26.531,26.851,-34.955,1.2948,-11.805
-41.559,-11.391,-30.242,-28.751,-7.0973,-26.011,-4.9899,-52.89,6.9983,-38.995,-26.92,-26.531,26.851,-34.955,1.2948,-11.805
-41.526,-11.511,-30.196,-28.874,-7.1459,-25.942,-4.82,-53.076,7.0347,-39.228,-26.869,-26.756,27.044,-35.32,1.2279,-12.015
-41.526,-11.511,-30.196,-28.874,-7.1459,-25.942,-4.82,-53.076,7.0347,-39.228,-26.869,-26.756,27.044,-35.32,1.2279,-12.015
-41.493,-11.631,-30.148,-28.997,-7.1928,-25.874,-4.6473,-53.262,7.075,-39.463,-26.816,-26.982,27.239,-35.686,1.1629,-12.228
-41.493,-11.631,-30.148,-28.997,-7.1928,-25.874,-4.6473,-53.262,7.075,-39.463,-26.816,-26.982,27.239,-35.686,1.1629,-12.228
-41.458,-11.752,-30.097,-29.12,-7.2379,-25.805,-4.4718,-53.448,7.1191,-39.701,-26.76,-27.209,27.436,-36.054,1.1,-12.442
-41.458,-11.752,-30.097,-29.12,-7.2379,-25.805,-4.4718,-53.448,7.1191,-39.701,-26.76,-27.209,27.436,-36.054,1.1,-12.442
-41.422,-11.872,-30.044,-29.242,-7.2813,-25.737,-4.2935,-53.633,7.167,-39.941,-26.701,-27.438,27.634,-36.423,1.0391,-12.657
-41.422,-11.872,-30.044,-29.242,-7.2813,-25.737,-4.2935,-53.633,7.167,-39.941,-26.701,-27.438,27.634,-36.423,1.0391,-12.657
-41.385,-11.991,-29.988,-29.365,-7.3229,-25.668,-4.1124,-53.817,7.2188,-40.183,-26.639,-27.668,27.835,-36.794,0.98017,-12.874
-41.385,-11.991,-29.988,-29.365,-7.3229,-25.668,-4.1124,-53.817,7.2188,-40.183,-26.639,-27.668,27.835,-36.794,0.98017,-12.874
-41.347,-12.111,-29.929,-29.487,-7.3628,-25.599,-3.9286,-54.001,7.2744,-40.427,-26.575,-27.899,28.037,-37.165,0.92331,-13.092
-41.307,-12.23,-29.867,-29.609,-7.401,-25.53,-3.742,-54.184,7.3339,-40.674,-26.508,-28.132,28.241,-37.537,0.86851,-13.311
-41.307,-12.23,-29.867,-29.609,-7.401,-25.53,-3.742,-54.184,7.3339,-40.674,-26.508,-28.132,28.241,-37.537,0.86851,-13.311
-41.307,-12.23,-29.867,-29.609,-7.401,-25.53,-3.742,-54.184,7.3339,-40.674,-26.508,-28.132,28.241,-37.537,0.86851,-13.311
-41.266,-12.35,-29.802,-29.731,-7.4374,-25.461,-3.5526,-54.366,7.3971,-40.923,-26.438,-28.365,28.446,-37.911,0.81576,-13.532
-41.266,-12.35,-29.802,-29.731,-7.4374,-25.461,-3.5526,-54.366,7.3971,-40.923,-26.438,-28.365,28.446,-37.911,0.81576,-13.532
-41.266,-12.35,-29.802,-29.731,-7.4374,-25.461,-3.5526,-54.366,7.3971,-40.923,-26.438,-28.365,28.446,-37.911,0.81576,-13.532
-41.266,-12.35,-29.802,-29.731,-7.4374,-25.461,-3.5526,-54.366,7.3971,-40.923,-26.438,-28.365,28.446,-37.911,0.81576,-13.532
-41.181,-12.587,-29.665,-29.973,-7.505,-25.323,-3.1658,-54.729,7.5351,-41.426,-26.291,-28.835,28.863,-38.661,0.71647,-13.978
-41.137,-12.706,-29.592,-30.094,-7.5361,-25.254,-2.9684,-54.909,7.6098,-41.681,-26.214,-29.072,29.073,-39.038,0.66995,-14.202
-41.137,-12.706,-29.592,-30.094,-7.5361,-25.254,-2.9684,-54.909,7.6098,-41.681,-26.214,-29.072,29.073,-39.038,0.66995,-14.202
-41.137,-12.706,-29.592,-30.094,-7.5361,-25.254,-2.9684,-54.909,7.6098,-41.681,-26.214,-29.072,29.073,-39.038,0.66995,-14.202
-41.091,-12.824,-29.517,-30.215,-7.5655,-25.184,-2.7683,-55.089,7.6883,-41.938,-26.134,-29.31,29.286,-39.416,0.62553,-14.428
-41.091,-12.824,-29.517,-30.215,-7.5655,-25.184,-2.7683,-55.089,7.6883,-41.938,-26.134,-29.31,29.286,-39.416,0.62553,-14.428
-41.044,-12.942,-29.439,-30.335,-7.5932,-25.115,-2.5655,-55.268,7.7705,-42.197,-26.051,-29.548,29.499,-39.794,0.58321,-14.655
-41.044,-12.942,-29.439,-30.335,-7.5932,-25.115,-2.5655,-55.268,7.7705,-42.197,-26.051,-29.548,29.499,-39.794,0.58321,-14.655
-41.044,-12.942,-29.439,-30.335,-7.5932,-25.115,-2.5655,-55.268,7.7705,-42.197,-26.051,-29.548,29.499,-39.794,0.58321,-14.655
-40.996,-13.06,-29.358,-30.455,-7.619,-25.045,-2.3601,-55.445,7.8566,-42.458,-25.965,-29.788,29.715,-40.173,0.543,-14.883
-40.947,-13.178,-29.274,-30.574,-7.6431,-24.975,-2.152,-55.622,7.9464,-42.72,-25.877,-30.029,29.932,-40.554,0.50492,-15.112
-40.896,-13.295,-29.187,-30.694,-7.6655,-24.906,-1.9414,-55.799,8.0399,-42.985,-25.786,-30.27,30.151,-40.935,0.46896,-15.342
-40.896,-13.295,-29.187,-30.694,-7.6655,-24.906,-1.9414,-55.799,8.0399,-42.985,-25.786,-30.27,30.151,-40.935,0.46896,-15.342
-40.844,-13.412,-29.098,-30.812,-7.6861,-24.835,-1.7281,-55.974,8.1372,-43.252,-25.693,-30.513,30.372,-41.316,0.43515,-15.573
-40.844,-13.412,-29.098,-30.812,-7.6861,-24.835,-1.7281,-55.974,8.1372,-43.252,-25.693,-30.513,30.372,-41.316,0.43515,-15.573
-40.844,-13.412,-29.098,-30.812,-7.6861,-24.835,-1.7281,-55.974,8.1372,-43.252,-25.693,-30.513,30.372,-41.316,0.43515,-15.573
-40.791,-13.528,-29.006,-30.931,-7.7049,-24.765,-1.5123,-56.148,8.2383,-43.52,-25.597,-30.756,30.594,-41.699,0.40348,-15.805
-40.791,-13.528,-29.006,-30.931,-7.7049,-24.765,-1.5123,-56.148,8.2383,-43.52,-25.597,-30.756,30.594,-41.699,0.40348,-15.805
-40.737,-13.644,-28.912,-31.049,-7.7219,-24.695,-1.2939,-56.321,8.343,-43.791,-25.498,-31,30.817,-42.082,0.37396,-16.038
-40.737,-13.644,-28.912,-31.049,-7.7219,-24.695,-1.2939,-56.321,8.343,-43.791,-25.498,-31,30.817,-42.082,0.37396,-16.038
-40.682,-13.76,-28.814,-31.166,-7.7372,-24.624,-1.073,-56.494,8.4515,-44.063,-25.397,-31.245,31.042,-42.466,0.3466,-16.272
-40.626,-13.876,-28.714,-31.283,-7.7507,-24.554,-0.84956,-56.665,8.5637,-44.337,-25.293,-31.491,31.269,-42.851,0.32141,-16.507
-40.626,-13.876,-28.714,-31.283,-7.7507,-24.554,-0.84956,-56.665,8.5637,-44.337,-25.293,-31.491,31.269,-42.851,0.32141,-16.507
-40.626,-13.876,-28.714,-31.283,-7.7507,-24.554,-0.84956,-56.665,8.5637,-44.337,-25.293,-31.491,31.269,-42.851,0.32141,-16.507
-40.568,-13.991,-28.611,-31.399,-7.7625,-24.483,-0.62362,-56.835,8.6796,-44.613,-25.187,-31.737,31.497,-43.236,0.29839,-16.743
-40.568,-13.991,-28.611,-31.399,-7.7625,-24.483,-0.62362,-56.835,8.6796,-44.613,-25.187,-31.737,31.497,-43.236,0.29839,-16.743
-40.509,-14.106,-28.506,-31.515,-7.7724,-24.412,-0.39519,-57.004,8.7992,-44.891,-25.078,-31.984,31.727,-43.622,0.27755,-16.98
-40.509,-14.106,-28.506,-31.515,-7.7724,-24.412,-0.39519,-57.004,8.7992,-44.891,-25.078,-31.984,31.727,-43.622,0.27755,-16.98
-40.449,-14.22,-28.397,-31.631,-7.7806,-24.34,-0.1643,-57.172,8.9224,-45.17,-24.966,-32.232,31.958,-44.008,0.2589,-17.217
-40.449,-14.22,-28.397,-31.631,-7.7806,-24.34,-0.1643,-57.172,8.9224,-45.17,-24.966,-32.232,31.958,-44.008,0.2589,-17.217
-40.388,-14.334,-28.286,-31.745,-7.787,-24.269,0.069035,-57.339,9.0493,-45.451,-24.852,-32.48,32.191,-44.395,0.24244,-17.455
-40.325,-14.448,-28.173,-31.86,-7.7917,-24.197,0.30479,-57.504,9.1798,-45.734,-24.735,-32.729,32.425,-44.782,0.22817,-17.694
-40.325,-14.448,-28.173,-31.86,-7.7917,-24.197,0.30479,-57.504,9.1798,-45.734,-24.735,-32.729,32.425,-44.782,0.22817,-17.694
-40.262,-14.561,-28.056,-31.973,-7.7946,-24.125,0.54296,-57.669,9.314,-46.018,-24.616,-32.979,32.661,-45.17,0.21611,-17.934
-40.262,-14.561,-28.056,-31.973,-7.7946,-24.125,0.54296,-57.669,9.314,-46.018,-24.616,-32.979,32.661,-45.17,0.21611,-17.934
-40.262,-14.561,-28.056,-31.973,-7.7946,-24.125,0.54296,-57.669,9.314,-46.018,-24.616,-32.979,32.661,-45.17,0.21611,-17.934
-40.197,-14.674,-27.937,-32.086,-7.7957,-24.053,0.7835,-57.832,9.4517,-46.304,-24.494,-33.229,32.898,-45.558,0.20626,-18.174
-40.197,-14.674,-27.937,-32.086,-7.7957,-24.053,0.7835,-57.832,9.4517,-46.304,-24.494,-33.229,32.898,-45.558,0.20626,-18.174
-40.197,-14.674,-27.937,-32.086,-7.7957,-24.053,0.7835,-57.832,9.4517,-46.304,-24.494,-33.229,32.898,-45.558,0.20626,-18.174
-40.131,-14.786,-27.815,-32.199,-7.7951,-23.981,1.0264,-57.994,9.5931,-46.591,-24.37,-33.48,33.136,-45.946,0.19861,-18.415
-40.131,-14.786,-27.815,-32.199,-7.7951,-23.981,1.0264,-57.994,9.5931,-46.591,-24.37,-33.48,33.136,-45.946,0.19861,-18.415
-39.996,-15.009,-27.564,-32.422,-7.7885,-23.835,1.5192,-58.314,9.8866,-47.171,-24.113,-33.982,33.617,-46.724,0.18998,-18.899
-39.996,-15.009,-27.564,-32.422,-7.7885,-23.835,1.5192,-58.314,9.8866,-47.171,-24.113,-33.982,33.617,-46.724,0.18998,-18.899
-39.926,-15.12,-27.434,-32.532,-7.7825,-23.762,1.7691,-58.472,10.039,-47.463,-23.981,-34.234,33.859,-47.113,0.189,-19.142
-39.926,-15.12,-27.434,-32.532,-7.7825,-23.762,1.7691,-58.472,10.039,-47.463,-23.981,-34.234,33.859,-47.113,0.189,-19.142
-39.926,-15.12,-27.434,-32.532,-7.7825,-23.762,1.7691,-58.472,10.039,-47.463,-23.981,-34.234,33.859,-47.113,0.189,-19.142
-39.856,-15.23,-27.302,-32.642,-7.7748,-23.689,2.0212,-58.629,10.194,-47.756,-23.847,-34.487,34.103,-47.502,0.19025,-19.385
-39.856,-15.23,-27.302,-32.642,-7.7748,-23.689,2.0212,-58.629,10.194,-47.756,-23.847,-34.487,34.103,-47.502,0.19025,-19.385
-39.856,-15.23,-27.302,-32.642,-7.7748,-23.689,2.0212,-58.629,10.194,-47.756,-23.847,-34.487,34.103,-47.502,0.19025,-19.385
-39.784,-15.34,-27.166,-32.751,-7.7654,-23.615,2.2756,-58.784,10.353,-48.051,-23.71,-34.739,34.348,-47.892,0.19373,-19.629
-39.784,-15.34,-27.166,-32.751,-7.7654,-23.615,2.2756,-58.784,10.353,-48.051,-23.71,-34.739,34.348,-47.892,0.19373,-19.629
-39.784,-15.34,-27.166,-32.751,-7.7654,-23.615,2.2756,-58.784,10.353,-48.051,-23.71,-34.739,34.348,-47.892,0.19373,-19.629
-39.637,-15.558,-26.888,-32.966,-7.7412,-23.467,2.7911,-59.09,10.682,-48.645,-23.428,-35.246,34.842,-48.672,0.2074,-20.117
-39.562,-15.666,-26.745,-33.073,-7.7265,-23.393,3.0521,-59.241,10.852,-48.943,-23.284,-35.499,35.091,-49.061,0.21759,-20.362
-39.562,-15.666,-26.745,-33.073,-7.7265,-23.393,3.0521,-59.241,10.852,-48.943,-23.284,-35.499,35.091,-49.061,0.21759,-20.362
-39.562,-15.666,-26.745,-33.073,-7.7265,-23.393,3.0521,-59.241,10.852,-48.943,-23.284,-35.499,35.091,-49.061,0.21759,-20.362
-39.485,-15.774,-26.599,-33.179,-7.71,-23.318,3.3153,-59.39,11.025,-49.244,-23.137,-35.753,35.342,-49.451,0.23002,-20.607
-39.485,-15.774,-26.599,-33.179,-7.71,-23.318,3.3153,-59.39,11.025,-49.244,-23.137,-35.753,35.342,-49.451,0.23002,-20.607
-39.485,-15.774,-26.599,-33.179,-7.71,-23.318,3.3153,-59.39,11.025,-49.244,-23.137,-35.753,35.342,-49.451,0.23002,-20.607
-39.408,-15.881,-26.451,-33.284,-7.6918,-23.243,3.5806,-59.538,11.201,-49.545,-22.988,-36.007,35.593,-49.841,0.2447,-20.853
-39.329,-15.988,-26.3,-33.388,-7.6718,-23.168,3.8481,-59.684,11.381,-49.848,-22.836,-36.261,35.846,-50.231,0.26163,-21.098
-39.25,-16.094,-26.147,-33.492,-7.6501,-23.092,4.1176,-59.829,11.564,-50.152,-22.682,-36.515,36.099,-50.621,0.2808,-21.344
-39.25,-16.094,-26.147,-33.492,-7.6501,-23.092,4.1176,-59.829,11.564,-50.152,-22.682,-36.515,36.099,-50.621,0.2808,-21.344
-39.25,-16.094,-26.147,-33.492,-7.6501,-23.092,4.1176,-59.829,11.564,-50.152,-22.682,-36.515,36.099,-50.621,0.2808,-21.344
-39.169,-16.199,-25.991,-33.594,-7.6267,-23.016,4.3892,-59.972,11.751,-50.457,-22.525,-36.77,36.354,-51.01,0.30222,-21.591
-39.169,-16.199,-25.991,-33.594,-7.6267,-23.016,4.3892,-59.972,11.751,-50.457,-22.525,-36.77,36.354,-51.01,0.30222,-21.591
-39.169,-16.199,-25.991,-33.594,-7.6267,-23.016,4.3892,-59.972,11.751,-50.457,-22.525,-36.77,36.354,-51.01,0.30222,-21.591
-39.087,-16.304,-25.832,-33.696,-7.6016,-22.94,4.6628,-60.113,11.941,-50.763,-22.366,-37.024,36.61,-51.399,0.3259,-21.837
-39.004,-16.408,-25.671,-33.797,-7.5747,-22.863,4.9384,-60.253,12.134,-51.07,-22.205,-37.278,36.867,-51.789,0.35182,-22.083
-39.004,-16.408,-25.671,-33.797,-7.5747,-22.863,4.9384,-60.253,12.134,-51.07,-22.205,-37.278,36.867,-51.789,0.35182,-22.083
-38.92,-16.512,-25.507,-33.896,-7.5461,-22.786,5.2161,-60.391,12.331,-51.378,-22.041,-37.533,37.126,-52.178,0.37999,-22.33
-38.92,-16.512,-25.507,-33.896,-7.5461,-22.786,5.2161,-60.391,12.331,-51.378,-22.041,-37.533,37.126,-52.178,0.37999,-22.33
-38.835,-16.615,-25.341,-33.995,-7.5157,-22.709,5.4957,-60.527,12.531,-51.687,-21.875,-37.787,37.385,-52.566,0.41042,-22.576
-38.835,-16.615,-25.341,-33.995,-7.5157,-22.709,5.4957,-60.527,12.531,-51.687,-21.875,-37.787,37.385,-52.566,0.41042,-22.576
-38.749,-16.717,-25.172,-34.093,-7.4837,-22.631,5.7772,-60.661,12.734,-51.998,-21.707,-38.042,37.645,-52.954,0.44309,-22.823
-38.749,-16.717,-25.172,-34.093,-7.4837,-22.631,5.7772,-60.661,12.734,-51.998,-21.707,-38.042,37.645,-52.954,0.44309,-22.823
-38.661,-16.818,-25,-34.19,-7.4499,-22.553,6.0606,-60.794,12.941,-52.309,-21.536,-38.296,37.907,-53.342,0.47801,-23.069
-38.661,-16.818,-25,-34.19,-7.4499,-22.553,6.0606,-60.794,12.941,-52.309,-21.536,-38.296,37.907,-53.342,0.47801,-23.069
-38.661,-16.818,-25,-34.19,-7.4499,-22.553,6.0606,-60.794,12.941,-52.309,-21.536,-38.296,37.907,-53.342,0.47801,-23.069
-38.661,-16.818,-25,-34.19,-7.4499,-22.553,6.0606,-60.794,12.941,-52.309,-21.536,-38.296,37.907,-53.342,0.47801,-23.069
-38.661,-16.818,-25,-34.19,-7.4499,-22.553,6.0606,-60.794,12.941,-52.309,-21.536,-38.296,37.907,-53.342,0.47801,-23.069
-38.483,-17.019,-24.65,-34.38,-7.3773,-22.395,6.6331,-61.054,13.363,-52.934,-21.188,-38.804,38.432,-54.117,0.55461,-23.562
-38.483,-17.019,-24.65,-34.38,-7.3773,-22.395,6.6331,-61.054,13.363,-52.934,-21.188,-38.804,38.432,-54.117,0.55461,-23.562
-38.301,-17.218,-24.29,-34.567,-7.298,-22.236,7.213,-61.306,13.799,-53.562,-20.83,-39.311,38.962,-54.889,0.64019,-24.055
-38.301,-17.218,-24.29,-34.567,-7.298,-22.236,7.213,-61.306,13.799,-53.562,-20.83,-39.311,38.962,-54.889,0.64019,-24.055
-38.208,-17.316,-24.106,-34.658,-7.2557,-22.156,7.5055,-61.429,14.021,-53.878,-20.648,-39.564,39.228,-55.275,0.68634,-24.3
-38.208,-17.316,-24.106,-34.658,-7.2557,-22.156,7.5055,-61.429,14.021,-53.878,-20.648,-39.564,39.228,-55.275,0.68634,-24.3
-38.208,-17.316,-24.106,-34.658,-7.2557,-22.156,7.5055,-61.429,14.021,-53.878,-20.648,-39.564,39.228,-55.275,0.68634,-24.3
-38.114,-17.413,-23.919,-34.749,-7.2119,-22.076,7.7999,-61.551,14.246,-54.194,-20.464,-39.817,39.495,-55.66,0.73474,-24.546
-38.114,-17.413,-23.919,-34.749,-7.2119,-22.076,7.7999,-61.551,14.246,-54.194,-20.464,-39.817,39.495,-55.66,0.73474,-24.546
-38.019,-17.51,-23.731,-34.838,-7.1663,-21.995,8.096,-61.67,14.475,-54.511,-20.277,-40.07,39.763,-56.044,0.78537,-24.791
-38.019,-17.51,-23.731,-34.838,-7.1663,-21.995,8.096,-61.67,14.475,-54.511,-20.277,-40.07,39.763,-56.044,0.78537,-24.791
-37.924,-17.605,-23.539,-34.927,-7.1191,-21.914,8.3937,-61.787,14.707,-54.828,-20.088,-40.322,40.032,-56.428,0.83824,-25.037
-37.827,-17.7,-23.346,-35.014,-7.0702,-21.832,8.6931,-61.903,14.941,-55.147,-19.897,-40.574,40.302,-56.811,0.89334,-25.281
-37.827,-17.7,-23.346,-35.014,-7.0702,-21.832,8.6931,-61.903,14.941,-55.147,-19.897,-40.574,40.302,-56.811,0.89334,-25.281
