-6.6229,34.794,3.5641,13.523,0.65474,20.557,0.45589,3.8356,18.494,9.2086,7.0534,10.666,23.563,-35.618,7.3342,1.6453
-6.6229,34.794,3.5641,13.523,0.65474,20.557,0.45589,3.8356,18.494,9.2086,7.0534,10.666,23.563,-35.618,7.3342,1.6453
-6.7127,34.618,3.5381,13.425,0.56588,20.525,0.31954,3.701,18.631,9.1721,7.0084,10.616,23.68,-35.545,7.2704,1.557
-6.7127,34.618,3.5381,13.425,0.56588,20.525,0.31954,3.701,18.631,9.1721,7.0084,10.616,23.68,-35.545,7.2704,1.557
-6.7127,34.618,3.5381,13.425,0.56588,20.525,0.31954,3.701,18.631,9.1721,7.0084,10.616,23.68,-35.545,7.2704,1.557
-6.8024,34.441,3.5118,13.326,0.47689,20.492,0.18279,3.5663,18.767,9.1348,6.9628,10.565,23.796,-35.471,7.2061,1.4683
-6.8024,34.441,3.5118,13.326,0.47689,20.492,0.18279,3.5663,18.767,9.1348,6.9628,10.565,23.796,-35.471,7.2061,1.4683
-6.8921,34.262,3.485,13.226,0.38776,20.458,0.045651,3.4314,18.903,9.0968,6.9168,10.513,23.913,-35.396,7.1415,1.3792
-6.8921,34.262,3.485,13.226,0.38776,20.458,0.045651,3.4314,18.903,9.0968,6.9168,10.513,23.913,-35.396,7.1415,1.3792
-6.8921,34.262,3.485,13.226,0.38776,20.458,0.045651,3.4314,18.903,9.0968,6.9168,10.513,23.913,-35.396,7.1415,1.3792
-6.9817,34.082,3.458,13.126,0.29851,20.423,-0.091867,3.2965,19.039,9.0581,6.8703,10.46,24.03,-35.32,7.0765,1.2897
-6.9817,34.082,3.458,13.126,0.29851,20.423,-0.091867,3.2965,19.039,9.0581,6.8703,10.46,24.03,-35.32,7.0765,1.2897
-7.1607,33.716,3.4028,12.924,0.11964,20.349,-0.36801,3.0264,19.308,8.9785,6.776,10.351,24.263,-35.165,6.9455,1.1095
-7.1607,33.716,3.4028,12.924,0.11964,20.349,-0.36801,3.0264,19.308,8.9785,6.776,10.351,24.263,-35.165,6.9455,1.1095
-7.1607,33.716,3.4028,12.924,0.11964,20.349,-0.36801,3.0264,19.308,8.9785,6.776,10.351,24.263,-35.165,6.9455,1.1095
-7.2501,33.531,3.3746,12.823,0.030028,20.31,-0.50661,2.8912,19.442,8.9376,6.7281,10.295,24.38,-35.086,6.8794,1.0188
-7.2501,33.531,3.3746,12.823,0.030028,20.31,-0.50661,2.8912,19.442,8.9376,6.7281,10.295,24.38,-35.086,6.8794,1.0188
-7.3395,33.344,3.3462,12.72,-0.059692,20.27,-0.64555,2.756,19.576,8.8959,6.6797,10.238,24.497,-35.007,6.813,0.92778
-7.3395,33.344,3.3462,12.72,-0.059692,20.27,-0.64555,2.756,19.576,8.8959,6.6797,10.238,24.497,-35.007,6.813,0.92778
-7.4287,33.156,3.3173,12.618,-0.14952,20.228,-0.78483,2.6207,19.709,8.8536,6.6309,10.18,24.613,-34.926,6.7463,0.83634
-7.4287,33.156,3.3173,12.618,-0.14952,20.228,-0.78483,2.6207,19.709,8.8536,6.6309,10.18,24.613,-34.926,6.7463,0.83634
-7.4287,33.156,3.3173,12.618,-0.14952,20.228,-0.78483,2.6207,19.709,8.8536,6.6309,10.18,24.613,-34.926,6.7463,0.83634
-7.5179,32.966,3.2882,12.514,-0.23944,20.186,-0.92443,2.4853,19.841,8.8104,6.5816,10.121,24.73,-34.844,6.6792,0.74452
-7.5179,32.966,3.2882,12.514,-0.23944,20.186,-0.92443,2.4853,19.841,8.8104,6.5816,10.121,24.73,-34.844,6.6792,0.74452
-7.607,32.774,3.2587,12.41,-0.32946,20.142,-1.0643,2.3499,19.973,8.7666,6.5319,10.061,24.847,-34.762,6.6119,0.65232
-7.607,32.774,3.2587,12.41,-0.32946,20.142,-1.0643,2.3499,19.973,8.7666,6.5319,10.061,24.847,-34.762,6.6119,0.65232
-7.6961,32.581,3.2288,12.306,-0.41958,20.097,-1.2046,2.2145,20.104,8.722,6.4818,10.001,24.964,-34.678,6.5442,0.55976
-7.6961,32.581,3.2288,12.306,-0.41958,20.097,-1.2046,2.2145,20.104,8.722,6.4818,10.001,24.964,-34.678,6.5442,0.55976
-7.6961,32.581,3.2288,12.306,-0.41958,20.097,-1.2046,2.2145,20.104,8.722,6.4818,10.001,24.964,-34.678,6.5442,0.55976
-7.8739,32.19,3.1681,12.096,-0.60006,20.002,-1.4859,1.9435,20.366,8.6307,6.3803,9.8761,25.198,-34.508,6.4079,0.37354
-7.8739,32.19,3.1681,12.096,-0.60006,20.002,-1.4859,1.9435,20.366,8.6307,6.3803,9.8761,25.198,-34.508,6.4079,0.37354
-7.9627,31.992,3.1373,11.99,-0.69043,19.953,-1.6269,1.808,20.495,8.584,6.3289,9.8124,25.315,-34.421,6.3393,0.27989
-7.9627,31.992,3.1373,11.99,-0.69043,19.953,-1.6269,1.808,20.495,8.584,6.3289,9.8124,25.315,-34.421,6.3393,0.27989
-8.0515,31.793,3.1061,11.884,-0.78086,19.903,-1.7683,1.6725,20.625,8.5365,6.277,9.7478,25.432,-34.333,6.2704,0.18589
-8.0515,31.793,3.1061,11.884,-0.78086,19.903,-1.7683,1.6725,20.625,8.5365,6.277,9.7478,25.432,-34.333,6.2704,0.18589
-8.1401,31.592,3.0746,11.777,-0.87137,19.852,-1.9098,1.537,20.753,8.4883,6.2248,9.6822,25.549,-34.245,6.2012,0.091539
-8.1401,31.592,3.0746,11.777,-0.87137,19.852,-1.9098,1.537,20.753,8.4883,6.2248,9.6822,25.549,-34.245,6.2012,0.091539
-8.2287,31.39,3.0428,11.67,-0.96194,19.799,-2.0517,1.4015,20.882,8.4393,6.1722,9.6157,25.666,-34.155,6.1318,-0.0031593
-8.2287,31.39,3.0428,11.67,-0.96194,19.799,-2.0517,1.4015,20.882,8.4393,6.1722,9.6157,25.666,-34.155,6.1318,-0.0031593
-8.3172,31.186,3.0107,11.562,-1.0526,19.745,-2.1937,1.2661,21.009,8.3896,6.1192,9.5482,25.783,-34.064,6.0621,-0.098199
-8.3172,31.186,3.0107,11.562,-1.0526,19.745,-2.1937,1.2661,21.009,8.3896,6.1192,9.5482,25.783,-34.064,6.0621,-0.098199
-8.4056,30.981,2.9782,11.454,-1.1433,19.69,-2.336,1.1307,21.136,8.3392,6.0658,9.4798,25.9,-33.973,5.9922,-0.19358
-8.4939,30.774,2.9455,11.345,-1.234,19.633,-2.4785,0.9953,21.263,8.2881,6.012,9.4105,26.017,-33.88,5.922,-0.28928
-8.4939,30.774,2.9455,11.345,-1.234,19.633,-2.4785,0.9953,21.263,8.2881,6.012,9.4105,26.017,-33.88,5.922,-0.28928
-8.4939,30.774,2.9455,11.345,-1.234,19.633,-2.4785,0.9953,21.263,8.2881,6.012,9.4105,26.017,-33.88,5.922,-0.28928
-8.4939,30.774,2.9455,11.345,-1.234,19.633,-2.4785,0.9953,21.263,8.2881,6.012,9.4105,26.017,-33.88,5.922,-0.28928
-8.5822,30.565,2.9124,11.236,-1.3248,19.575,-2.6213,0.85997,21.388,8.2363,5.9578,9.3403,26.134,-33.786,5.8516,-0.38532
-8.5822,30.565,2.9124,11.236,-1.3248,19.575,-2.6213,0.85997,21.388,8.2363,5.9578,9.3403,26.134,-33.786,5.8516,-0.38532
-8.6704,30.356,2.879,11.126,-1.4157,19.516,-2.7642,0.7247,21.514,8.1837,5.9033,9.2691,26.251,-33.692,5.781,-0.48168
-8.7585,30.144,2.8453,11.016,-1.5065,19.456,-2.9073,0.58951,21.638,8.1305,5.8484,9.1971,26.368,-33.596,5.7101,-0.57836
-8.7585,30.144,2.8453,11.016,-1.5065,19.456,-2.9073,0.58951,21.638,8.1305,5.8484,9.1971,26.368,-33.596,5.7101,-0.57836
-8.8465,29.931,2.8113,10.906,-1.5975,19.395,-3.0505,0.45438,21.762,8.0765,5.7931,9.1241,26.486,-33.499,5.639,-0.67536
-8.9344,29.717,2.777,10.795,-1.6884,19.332,-3.194,0.31935,21.886,8.0217,5.7375,9.0502,26.603,-33.401,5.5677,-0.77266
-8.9344,29.717,2.777,10.795,-1.6884,19.332,-3.194,0.31935,21.886,8.0217,5.7375,9.0502,26.603,-33.401,5.5677,-0.77266
-8.9344,29.717,2.777,10.795,-1.6884,19.332,-3.194,0.31935,21.886,8.0217,5.7375,9.0502,26.603,-33.401,5.5677,-0.77266
-9.0222,29.502,2.7424,10.683,-1.7794,19.268,-3.3376,0.18441,22.009,7.9663,5.6815,8.9755,26.72,-33.303,5.4962,-0.87027
-9.0222,29.502,2.7424,10.683,-1.7794,19.268,-3.3376,0.18441,22.009,7.9663,5.6815,8.9755,26.72,-33.303,5.4962,-0.87027
-9.11,29.284,2.7076,10.572,-1.8704,19.203,-3.4813,0.049575,22.131,7.9102,5.6252,8.8998,26.838,-33.203,5.4246,-0.96819
-9.11,29.284,2.7076,10.572,-1.8704,19.203,-3.4813,0.049575,22.131,7.9102,5.6252,8.8998,26.838,-33.203,5.4246,-0.96819
-9.1977,29.066,2.6724,10.459,-1.9614,19.136,-3.6252,-0.085148,22.253,7.8533,5.5686,8.8233,26.955,-33.102,5.3527,-1.0664
-9.1977,29.066,2.6724,10.459,-1.9614,19.136,-3.6252,-0.085148,22.253,7.8533,5.5686,8.8233,26.955,-33.102,5.3527,-1.0664
-9.1977,29.066,2.6724,10.459,-1.9614,19.136,-3.6252,-0.085148,22.253,7.8533,5.5686,8.8233,26.955,-33.102,5.3527,-1.0664
-9.3727,28.625,2.6012,10.234,-2.1435,18.999,-3.9133,-0.35422,22.494,7.7375,5.4543,8.6676,27.19,-32.897,5.2085,-1.2637
-9.3727,28.625,2.6012,10.234,-2.1435,18.999,-3.9133,-0.35422,22.494,7.7375,5.4543,8.6676,27.19,-32.897,5.2085,-1.2637
-9.3727,28.625,2.6012,10.234,-2.1435,18.999,-3.9133,-0.35422,22.494,7.7375,5.4543,8.6676,27.19,-32.897,5.2085,-1.2637
-9.4601,28.402,2.5651,10.12,-2.2346,18.929,-4.0575,-0.48855,22.614,7.6785,5.3967,8.5885,27.307,-32.793,5.1361,-1.3627
-9.4601,28.402,2.5651,10.12,-2.2346,18.929,-4.0575,-0.48855,22.614,7.6785,5.3967,8.5885,27.307,-32.793,5.1361,-1.3627
-9.4601,28.402,2.5651,10.12,-2.2346,18.929,-4.0575,-0.48855,22.614,7.6785,5.3967,8.5885,27.307,-32.793,5.1361,-1.3627
-9.4601,28.402,2.5651,10.12,-2.2346,18.929,-4.0575,-0.48855,22.614,7.6785,5.3967,8.5885,27.307,-32.793,5.1361,-1.3627
-9.6347,27.952,2.4922,9.8924,-2.4168,18.785,-4.3462,-0.75675,22.851,7.5585,5.2806,8.4277,27.542,-32.582,4.9909,-1.5617
-9.6347,27.952,2.4922,9.8924,-2.4168,18.785,-4.3462,-0.75675,22.851,7.5585,5.2806,8.4277,27.542,-32.582,4.9909,-1.5617
-9.6347,27.952,2.4922,9.8924,-2.4168,18.785,-4.3462,-0.75675,22.851,7.5585,5.2806,8.4277,27.542,-32.582,4.9909,-1.5617
-9.7218,27.725,2.4554,9.7778,-2.5079,18.711,-4.4907,-0.89061,22.969,7.4974,5.2221,8.3461,27.66,-32.475,4.9181,-1.6615
-9.7218,27.725,2.4554,9.7778,-2.5079,18.711,-4.4907,-0.89061,22.969,7.4974,5.2221,8.3461,27.66,-32.475,4.9181,-1.6615
-9.7218,27.725,2.4554,9.7778,-2.5079,18.711,-4.4907,-0.89061,22.969,7.4974,5.2221,8.3461,27.66,-32.475,4.9181,-1.6615
-9.7218,27.725,2.4554,9.7778,-2.5079,18.711,-4.4907,-0.89061,22.969,7.4974,5.2221,8.3461,27.66,-32.475,4.9181,-1.6615
-9.8958,27.267,2.3809,9.5476,-2.69,18.559,-4.7798,-1.1578,23.203,7.3732,5.1042,8.1803,27.895,-32.257,4.7721,-1.8621
-9.8958,27.267,2.3809,9.5476,-2.69,18.559,-4.7798,-1.1578,23.203,7.3732,5.1042,8.1803,27.895,-32.257,4.7721,-1.8621
-9.9827,27.036,2.3432,9.432,-2.7811,18.482,-4.9244,-1.2911,23.318,7.31,5.0448,8.0961,28.013,-32.147,4.699,-1.9627
-10.069,26.804,2.3053,9.316,-2.8722,18.403,-5.0691,-1.4242,23.434,7.2462,4.9851,8.0112,28.131,-32.036,4.6257,-2.0636
-10.069,26.804,2.3053,9.316,-2.8722,18.403,-5.0691,-1.4242,23.434,7.2462,4.9851,8.0112,28.131,-32.036,4.6257,-2.0636
-10.069,26.804,2.3053,9.316,-2.8722,18.403,-5.0691,-1.4242,23.434,7.2462,4.9851,8.0112,28.131,-32.036,4.6257,-2.0636
-10.156,26.57,2.2672,9.1996,-2.9632,18.323,-5.2138,-1.5571,23.548,7.1817,4.9252,7.9254,28.248,-31.923,4.5523,-2.1647
-10.156,26.57,2.2672,9.1996,-2.9632,18.323,-5.2138,-1.5571,23.548,7.1817,4.9252,7.9254,28.248,-31.923,4.5523,-2.1647
-10.156,26.57,2.2672,9.1996,-2.9632,18.323,-5.2138,-1.5571,23.548,7.1817,4.9252,7.9254,28.248,-31.923,4.5523,-2.1647
-10.329,26.099,2.1901,8.9659,-3.1452,18.159,-5.5032,-1.8221,23.775,7.0506,4.8046,7.7516,28.484,-31.695,4.4053,-2.3676
-10.329,26.099,2.1901,8.9659,-3.1452,18.159,-5.5032,-1.8221,23.775,7.0506,4.8046,7.7516,28.484,-31.695,4.4053,-2.3676
-10.329,26.099,2.1901,8.9659,-3.1452,18.159,-5.5032,-1.8221,23.775,7.0506,4.8046,7.7516,28.484,-31.695,4.4053,-2.3676
-10.416,25.862,2.1512,8.8486,-3.2362,18.075,-5.6479,-1.9543,23.887,6.984,4.744,7.6635,28.602,-31.58,4.3317,-2.4694
-10.502,25.623,2.112,8.731,-3.3271,17.99,-5.7926,-2.0863,23.999,6.9168,4.6831,7.5746,28.719,-31.463,4.2581,-2.5714
-10.588,25.383,2.0727,8.613,-3.4181,17.904,-5.9372,-2.218,24.11,6.8489,4.6219,7.485,28.837,-31.345,4.1843,-2.6736
-10.588,25.383,2.0727,8.613,-3.4181,17.904,-5.9372,-2.218,24.11,6.8489,4.6219,7.485,28.837,-31.345,4.1843,-2.6736
-10.588,25.383,2.0727,8.613,-3.4181,17.904,-5.9372,-2.218,24.11,6.8489,4.6219,7.485,28.837,-31.345,4.1843,-2.6736
-10.674,25.142,2.0331,8.4947,-3.5089,17.817,-6.0819,-2.3494,24.221,6.7803,4.5605,7.3946,28.955,-31.226,4.1105,-2.776
-10.674,25.142,2.0331,8.4947,-3.5089,17.817,-6.0819,-2.3494,24.221,6.7803,4.5605,7.3946,28.955,-31.226,4.1105,-2.776
-10.76,24.9,1.9932,8.3762,-3.5998,17.729,-6.2264,-2.4805,24.33,6.7111,4.4989,7.3035,29.073,-31.107,4.0367,-2.8787
-10.76,24.9,1.9932,8.3762,-3.5998,17.729,-6.2264,-2.4805,24.33,6.7111,4.4989,7.3035,29.073,-31.107,4.0367,-2.8787
-10.846,24.656,1.9532,8.2574,-3.6906,17.639,-6.371,-2.6114,24.439,6.6412,4.4371,7.2116,29.191,-30.986,3.9628,-2.9815
-10.846,24.656,1.9532,8.2574,-3.6906,17.639,-6.371,-2.6114,24.439,6.6412,4.4371,7.2116,29.191,-30.986,3.9628,-2.9815
-10.932,24.411,1.9129,8.1382,-3.7814,17.548,-6.5154,-2.7419,24.547,6.5707,4.3751,7.119,29.309,-30.864,3.8889,-3.0845
-10.932,24.411,1.9129,8.1382,-3.7814,17.548,-6.5154,-2.7419,24.547,6.5707,4.3751,7.119,29.309,-30.864,3.8889,-3.0845
-10.932,24.411,1.9129,8.1382,-3.7814,17.548,-6.5154,-2.7419,24.547,6.5707,4.3751,7.119,29.309,-30.864,3.8889,-3.0845
-11.018,24.165,1.8724,8.0189,-3.8721,17.457,-6.6598,-2.8722,24.655,6.4995,4.3129,7.0257,29.427,-30.741,3.815,-3.1876
-11.018,24.165,1.8724,8.0189,-3.8721,17.457,-6.6598,-2.8722,24.655,6.4995,4.3129,7.0257,29.427,-30.741,3.815,-3.1876
-11.018,24.165,1.8724,8.0189,-3.8721,17.457,-6.6598,-2.8722,24.655,6.4995,4.3129,7.0257,29.427,-30.741,3.815,-3.1876
-11.189,23.67,1.7907,7.7793,-4.0534,17.269,-6.9483,-3.1317,24.868,6.3552,4.1879,6.837,29.663,-30.492,3.6672,-3.3945
-11.189,23.67,1.7907,7.7793,-4.0534,17.269,-6.9483,-3.1317,24.868,6.3552,4.1879,6.837,29.663,-30.492,3.6672,-3.3945
-11.275,23.42,1.7496,7.6592,-4.1439,17.174,-7.0923,-3.261,24.973,6.2821,4.1251,6.7416,29.781,-30.365,3.5933,-3.4982
-11.275,23.42,1.7496,7.6592,-4.1439,17.174,-7.0923,-3.261,24.973,6.2821,4.1251,6.7416,29.781,-30.365,3.5933,-3.4982
-11.36,23.17,1.7083,7.5388,-4.2345,17.078,-7.2363,-3.3899,25.078,6.2084,4.0621,6.6455,29.899,-30.238,3.5193,-3.602
-11.36,23.17,1.7083,7.5388,-4.2345,17.078,-7.2363,-3.3899,25.078,6.2084,4.0621,6.6455,29.899,-30.238,3.5193,-3.602
-11.446,22.918,1.6668,7.4181,-4.3249,16.98,-7.3801,-3.5185,25.182,6.134,3.999,6.5488,30.017,-30.11,3.4454,-3.706
-11.446,22.918,1.6668,7.4181,-4.3249,16.98,-7.3801,-3.5185,25.182,6.134,3.999,6.5488,30.017,-30.11,3.4454,-3.706
-11.531,22.665,1.625,7.2973,-4.4153,16.881,-7.5238,-3.6468,25.285,6.059,3.9357,6.4514,30.135,-29.98,3.3716,-3.8101
-11.531,22.665,1.625,7.2973,-4.4153,16.881,-7.5238,-3.6468,25.285,6.059,3.9357,6.4514,30.135,-29.98,3.3716,-3.8101
-11.616,22.411,1.5831,7.1762,-4.5057,16.782,-7.6674,-3.7746,25.388,5.9834,3.8722,6.3533,30.254,-29.85,3.2977,-3.9143
-11.616,22.411,1.5831,7.1762,-4.5057,16.782,-7.6674,-3.7746,25.388,5.9834,3.8722,6.3533,30.254,-29.85,3.2977,-3.9143
-11.616,22.411,1.5831,7.1762,-4.5057,16.782,-7.6674,-3.7746,25.388,5.9834,3.8722,6.3533,30.254,-29.85,3.2977,-3.9143
-11.701,22.156,1.541,7.0549,-4.5959,16.681,-7.8108,-3.9021,25.489,5.9072,3.8086,6.2546,30.372,-29.719,3.2239,-4.0187
-11.701,22.156,1.541,7.0549,-4.5959,16.681,-7.8108,-3.9021,25.489,5.9072,3.8086,6.2546,30.372,-29.719,3.2239,-4.0187
-11.786,21.9,1.4988,6.9334,-4.6861,16.579,-7.954,-4.0292,25.59,5.8303,3.7448,6.1553,30.49,-29.586,3.1502,-4.1232
-11.786,21.9,1.4988,6.9334,-4.6861,16.579,-7.954,-4.0292,25.59,5.8303,3.7448,6.1553,30.49,-29.586,3.1502,-4.1232
-11.956,21.385,1.4137,6.6899,-4.8663,16.371,-8.2399,-4.2822,25.79,5.6749,3.6169,5.9547,30.726,-29.318,3.0029,-4.3326
-11.956,21.385,1.4137,6.6899,-4.8663,16.371,-8.2399,-4.2822,25.79,5.6749,3.6169,5.9547,30.726,-29.318,3.0029,-4.3326
-11.956,21.385,1.4137,6.6899,-4.8663,16.371,-8.2399,-4.2822,25.79,5.6749,3.6169,5.9547,30.726,-29.318,3.0029,-4.3326
-11.956,21.385,1.4137,6.6899,-4.8663,16.371,-8.2399,-4.2822,25.79,5.6749,3.6169,5.9547,30.726,-29.318,3.0029,-4.3326
-12.04,21.126,1.3709,6.5678,-4.9563,16.266,-8.3826,-4.4081,25.889,5.5962,3.5528,5.8536,30.845,-29.182,2.9293,-4.4374
-12.04,21.126,1.3709,6.5678,-4.9563,16.266,-8.3826,-4.4081,25.889,5.5962,3.5528,5.8536,30.845,-29.182,2.9293,-4.4374
-12.04,21.126,1.3709,6.5678,-4.9563,16.266,-8.3826,-4.4081,25.889,5.5962,3.5528,5.8536,30.845,-29.182,2.9293,-4.4374
-12.209,20.605,1.2849,6.3233,-5.1361,16.053,-8.6673,-4.6586,26.084,5.4372,3.4241,5.6494,31.081,-28.908,2.7825,-4.6474
-12.209,20.605,1.2849,6.3233,-5.1361,16.053,-8.6673,-4.6586,26.084,5.4372,3.4241,5.6494,31.081,-28.908,2.7825,-4.6474
-12.209,20.605,1.2849,6.3233,-5.1361,16.053,-8.6673,-4.6586,26.084,5.4372,3.4241,5.6494,31.081,-28.908,2.7825,-4.6474
-12.294,20.343,1.2416,6.2007,-5.2258,15.944,-8.8093,-4.7832,26.181,5.3568,3.3596,5.5465,31.199,-28.769,2.7092,-4.7525
-12.294,20.343,1.2416,6.2007,-5.2258,15.944,-8.8093,-4.7832,26.181,5.3568,3.3596,5.5465,31.199,-28.769,2.7092,-4.7525
-12.294,20.343,1.2416,6.2007,-5.2258,15.944,-8.8093,-4.7832,26.181,5.3568,3.3596,5.5465,31.199,-28.769,2.7092,-4.7525
-12.462,19.816,1.1547,5.9552,-5.4051,15.725,-9.0926,-5.0311,26.371,5.1942,3.2304,5.339,31.436,-28.488,2.563,-4.963
-12.462,19.816,1.1547,5.9552,-5.4051,15.725,-9.0926,-5.0311,26.371,5.1942,3.2304,5.339,31.436,-28.488,2.563,-4.963
-12.546,19.551,1.111,5.8323,-5.4946,15.613,-9.2338,-5.1543,26.466,5.1121,3.1656,5.2344,31.554,-28.346,2.49,-5.0683
-12.546,19.551,1.111,5.8323,-5.4946,15.613,-9.2338,-5.1543,26.466,5.1121,3.1656,5.2344,31.554,-28.346,2.49,-5.0683
-12.63,19.286,1.0672,5.7092,-5.584,15.501,-9.3748,-5.2771,26.559,5.0295,3.1008,5.1293,31.673,-28.203,2.4172,-5.1737
-12.714,19.019,1.0232,5.586,-5.6734,15.387,-9.5156,-5.3993,26.652,4.9463,3.0359,5.0237,31.791,-28.059,2.3445,-5.2791
-12.714,19.019,1.0232,5.586,-5.6734,15.387,-9.5156,-5.3993,26.652,4.9463,3.0359,5.0237,31.791,-28.059,2.3445,-5.2791
-12.798,18.752,0.97914,5.4627,-5.7626,15.273,-9.656,-5.5211,26.744,4.8625,2.9709,4.9175,31.909,-27.914,2.2719,-5.3846
-12.798,18.752,0.97914,5.4627,-5.7626,15.273,-9.656,-5.5211,26.744,4.8625,2.9709,4.9175,31.909,-27.914,2.2719,-5.3846
-12.798,18.752,0.97914,5.4627,-5.7626,15.273,-9.656,-5.5211,26.744,4.8625,2.9709,4.9175,31.909,-27.914,2.2719,-5.3846
-12.798,18.752,0.97914,5.4627,-5.7626,15.273,-9.656,-5.5211,26.744,4.8625,2.9709,4.9175,31.909,-27.914,2.2719,-5.3846
-12.882,18.483,0.93494,5.3393,-5.8518,15.158,-9.7962,-5.6424,26.835,4.7782,2.9059,4.8109,32.028,-27.768,2.1995,-5.4901
-12.882,18.483,0.93494,5.3393,-5.8518,15.158,-9.7962,-5.6424,26.835,4.7782,2.9059,4.8109,32.028,-27.768,2.1995,-5.4901
-13.049,17.944,0.84619,5.0923,-6.0298,14.924,-10.076,-5.8834,27.015,4.608,2.7756,4.5962,32.264,-27.473,2.0552,-5.7012
-13.049,17.944,0.84619,5.0923,-6.0298,14.924,-10.076,-5.8834,27.015,4.608,2.7756,4.5962,32.264,-27.473,2.0552,-5.7012
-13.049,17.944,0.84619,5.0923,-6.0298,14.924,-10.076,-5.8834,27.015,4.608,2.7756,4.5962,32.264,-27.473,2.0552,-5.7012
-13.049,17.944,0.84619,5.0923,-6.0298,14.924,-10.076,-5.8834,27.015,4.608,2.7756,4.5962,32.264,-27.473,2.0552,-5.7012
-13.133,17.674,0.80165,4.9687,-6.1186,14.806,-10.215,-6.0031,27.104,4.5221,2.7105,4.4881,32.383,-27.324,1.9832,-5.8068
-13.133,17.674,0.80165,4.9687,-6.1186,14.806,-10.215,-6.0031,27.104,4.5221,2.7105,4.4881,32.383,-27.324,1.9832,-5.8068
-13.133,17.674,0.80165,4.9687,-6.1186,14.806,-10.215,-6.0031,27.104,4.5221,2.7105,4.4881,32.383,-27.324,1.9832,-5.8068
-13.299,17.13,0.71228,4.7212,-6.296,14.567,-10.492,-6.241,27.279,4.3488,2.58,4.2706,32.619,-27.023,1.8399,-6.0181
-13.299,17.13,0.71228,4.7212,-6.296,14.567,-10.492,-6.241,27.279,4.3488,2.58,4.2706,32.619,-27.023,1.8399,-6.0181
-13.299,17.13,0.71228,4.7212,-6.296,14.567,-10.492,-6.241,27.279,4.3488,2.58,4.2706,32.619,-27.023,1.8399,-6.0181
-13.382,16.857,0.66745,4.5974,-6.3846,14.446,-10.63,-6.3591,27.365,4.2614,2.5148,4.1612,32.738,-26.871,1.7685,-6.1237
-13.466,16.583,0.62253,4.4736,-6.473,14.324,-10.768,-6.4766,27.451,4.1735,2.4495,4.0514,32.856,-26.717,1.6974,-6.2293
-13.549,16.309,0.57753,4.3497,-6.5614,14.201,-10.906,-6.5935,27.536,4.0851,2.3842,3.9412,32.975,-26.563,1.6264,-6.3349
-13.549,16.309,0.57753,4.3497,-6.5614,14.201,-10.906,-6.5935,27.536,4.0851,2.3842,3.9412,32.975,-26.563,1.6264,-6.3349
-13.632,16.034,0.53245,4.2258,-6.6496,14.078,-11.043,-6.7099,27.62,3.9963,2.3189,3.8306,33.093,-26.408,1.5556,-6.4404
-13.632,16.034,0.53245,4.2258,-6.6496,14.078,-11.043,-6.7099,27.62,3.9963,2.3189,3.8306,33.093,-26.408,1.5556,-6.4404
-13.632,16.034,0.53245,4.2258,-6.6496,14.078,-11.043,-6.7099,27.62,3.9963,2.3189,3.8306,33.093,-26.408,1.5556,-6.4404
-13.714,15.758,0.4873,4.1019,-6.7377,13.953,-11.179,-6.8257,27.703,3.9069,2.2537,3.7196,33.211,-26.252,1.4851,-6.5459
-13.714,15.758,0.4873,4.1019,-6.7377,13.953,-11.179,-6.8257,27.703,3.9069,2.2537,3.7196,33.211,-26.252,1.4851,-6.5459
-13.797,15.482,0.44208,3.978,-6.8257,13.828,-11.316,-6.9409,27.786,3.8171,2.1884,3.6082,33.329,-26.095,1.4148,-6.6514
-13.797,15.482,0.44208,3.978,-6.8257,13.828,-11.316,-6.9409,27.786,3.8171,2.1884,3.6082,33.329,-26.095,1.4148,-6.6514
-13.88,15.205,0.3968,3.8541,-6.9136,13.702,-11.451,-7.0555,27.867,3.7268,2.1232,3.4964,33.448,-25.937,1.3447,-6.7569
-13.88,15.205,0.3968,3.8541,-6.9136,13.702,-11.451,-7.0555,27.867,3.7268,2.1232,3.4964,33.448,-25.937,1.3447,-6.7569
-13.962,14.927,0.35146,3.7301,-7.0014,13.575,-11.587,-7.1695,27.948,3.6361,2.058,3.3843,33.566,-25.778,1.2748,-6.8623
-13.962,14.927,0.35146,3.7301,-7.0014,13.575,-11.587,-7.1695,27.948,3.6361,2.058,3.3843,33.566,-25.778,1.2748,-6.8623
-14.045,14.649,0.30607,3.6063,-7.089,13.447,-11.722,-7.2829,28.029,3.5449,1.9928,3.2719,33.684,-25.618,1.2052,-6.9676
-14.045,14.649,0.30607,3.6063,-7.089,13.447,-11.722,-7.2829,28.029,3.5449,1.9928,3.2719,33.684,-25.618,1.2052,-6.9676
-14.045,14.649,0.30607,3.6063,-7.089,13.447,-11.722,-7.2829,28.029,3.5449,1.9928,3.2719,33.684,-25.618,1.2052,-6.9676
-14.127,14.37,0.26064,3.4824,-7.1766,13.319,-11.856,-7.3956,28.108,3.4533,1.9276,3.1591,33.803,-25.457,1.1359,-7.0729
-14.127,14.37,0.26064,3.4824,-7.1766,13.319,-11.856,-7.3956,28.108,3.4533,1.9276,3.1591,33.803,-25.457,1.1359,-7.0729
-14.127,14.37,0.26064,3.4824,-7.1766,13.319,-11.856,-7.3956,28.108,3.4533,1.9276,3.1591,33.803,-25.457,1.1359,-7.0729
-14.292,13.811,0.16964,3.2348,-7.3513,13.059,-12.124,-7.6192,28.264,3.2688,1.7975,2.9326,34.039,-25.132,0.998,-7.2833
-14.292,13.811,0.16964,3.2348,-7.3513,13.059,-12.124,-7.6192,28.264,3.2688,1.7975,2.9326,34.039,-25.132,0.998,-7.2833
-14.374,13.53,0.12409,3.111,-7.4385,12.928,-12.257,-7.73,28.341,3.1759,1.7325,2.8189,34.157,-24.968,0.92945,-7.3883
-14.374,13.53,0.12409,3.111,-7.4385,12.928,-12.257,-7.73,28.341,3.1759,1.7325,2.8189,34.157,-24.968,0.92945,-7.3883
-14.456,13.249,0.078514,2.9874,-7.5255,12.796,-12.39,-7.8401,28.417,3.0826,1.6676,2.7049,34.275,-24.804,0.86119,-7.4933
-14.456,13.249,0.078514,2.9874,-7.5255,12.796,-12.39,-7.8401,28.417,3.0826,1.6676,2.7049,34.275,-24.804,0.86119,-7.4933
-14.456,13.249,0.078514,2.9874,-7.5255,12.796,-12.39,-7.8401,28.417,3.0826,1.6676,2.7049,34.275,-24.804,0.86119,-7.4933
-14.538,12.968,0.032917,2.8638,-7.6124,12.664,-12.522,-7.9496,28.492,2.9889,1.6027,2.5907,34.393,-24.638,0.79321,-7.5981
-14.538,12.968,0.032917,2.8638,-7.6124,12.664,-12.522,-7.9496,28.492,2.9889,1.6027,2.5907,34.393,-24.638,0.79321,-7.5981
-14.62,12.686,-0.012695,2.7402,-7.6992,12.531,-12.654,-8.0584,28.567,2.8949,1.5379,2.4761,34.511,-24.471,0.72553,-7.7029
-14.701,12.403,-0.058319,2.6168,-7.7859,12.397,-12.785,-8.1666,28.641,2.8004,1.4732,2.3614,34.629,-24.304,0.65814,-7.8075
-14.783,12.121,-0.10395,2.4934,-7.8724,12.262,-12.916,-8.274,28.714,2.7055,1.4086,2.2464,34.747,-24.135,0.59106,-7.9121
-14.783,12.121,-0.10395,2.4934,-7.8724,12.262,-12.916,-8.274,28.714,2.7055,1.4086,2.2464,34.747,-24.135,0.59106,-7.9121
-14.783,12.121,-0.10395,2.4934,-7.8724,12.262,-12.916,-8.274,28.714,2.7055,1.4086,2.2464,34.747,-24.135,0.59106,-7.9121
-14.865,11.837,-0.14958,2.3702,-7.9588,12.127,-13.046,-8.3808,28.786,2.6103,1.3441,2.1311,34.865,-23.966,0.5243,-8.0165
-14.865,11.837,-0.14958,2.3702,-7.9588,12.127,-13.046,-8.3808,28.786,2.6103,1.3441,2.1311,34.865,-23.966,0.5243,-8.0165
-14.865,11.837,-0.14958,2.3702,-7.9588,12.127,-13.046,-8.3808,28.786,2.6103,1.3441,2.1311,34.865,-23.966,0.5243,-8.0165
-14.946,11.554,-0.1952,2.247,-8.0451,11.991,-13.176,-8.4868,28.857,2.5147,1.2797,2.0157,34.983,-23.796,0.45785,-8.1207
-14.946,11.554,-0.1952,2.247,-8.0451,11.991,-13.176,-8.4868,28.857,2.5147,1.2797,2.0157,34.983,-23.796,0.45785,-8.1207
-15.027,11.27,-0.24081,2.124,-8.1312,11.854,-13.305,-8.5921,28.927,2.4188,1.2154,1.9,35.101,-23.624,0.39173,-8.2249
-15.109,10.985,-0.28641,2.0011,-8.2172,11.717,-13.434,-8.6967,28.997,2.3225,1.1512,1.7842,35.219,-23.452,0.32594,-8.3289
-15.109,10.985,-0.28641,2.0011,-8.2172,11.717,-13.434,-8.6967,28.997,2.3225,1.1512,1.7842,35.219,-23.452,0.32594,-8.3289
-15.19,10.701,-0.33199,1.8783,-8.303,11.579,-13.562,-8.8006,29.066,2.2259,1.0872,1.6681,35.336,-23.279,0.26049,-8.4327
-15.19,10.701,-0.33199,1.8783,-8.303,11.579,-13.562,-8.8006,29.066,2.2259,1.0872,1.6681,35.336,-23.279,0.26049,-8.4327
-15.271,10.416,-0.37753,1.7557,-8.3887,11.441,-13.69,-8.9037,29.134,2.1289,1.0232,1.552,35.454,-23.105,0.19538,-8.5364
-15.271,10.416,-0.37753,1.7557,-8.3887,11.441,-13.69,-8.9037,29.134,2.1289,1.0232,1.552,35.454,-23.105,0.19538,-8.5364
-15.352,10.13,-0.42305,1.6332,-8.4743,11.301,-13.817,-9.0061,29.201,2.0317,0.95942,1.4356,35.572,-22.931,0.13062,-8.6399
-15.352,10.13,-0.42305,1.6332,-8.4743,11.301,-13.817,-9.0061,29.201,2.0317,0.95942,1.4356,35.572,-22.931,0.13062,-8.6399
-15.352,10.13,-0.42305,1.6332,-8.4743,11.301,-13.817,-9.0061,29.201,2.0317,0.95942,1.4356,35.572,-22.931,0.13062,-8.6399
-15.352,10.13,-0.42305,1.6332,-8.4743,11.301,-13.817,-9.0061,29.201,2.0317,0.95942,1.4356,35.572,-22.931,0.13062,-8.6399
-15.433,9.8446,-0.46853,1.5109,-8.5597,11.162,-13.943,-9.1078,29.268,1.9341,0.89577,1.3191,35.689,-22.755,0.066212,-8.7432
-15.514,9.5588,-0.51396,1.3887,-8.645,11.021,-14.069,-9.2087,29.333,1.8362,0.83226,1.2025,35.807,-22.578,0.0021694,-8.8464
-15.594,9.2727,-0.55935,1.2667,-8.7301,10.88,-14.194,-9.3088,29.398,1.738,0.7689,1.0857,35.924,-22.401,-0.061505,-8.9494
-15.594,9.2727,-0.55935,1.2667,-8.7301,10.88,-14.194,-9.3088,29.398,1.738,0.7689,1.0857,35.924,-22.401,-0.061505,-8.9494
-15.675,8.9863,-0.60468,1.1449,-8.815,10.739,-14.319,-9.4082,29.462,1.6395,0.7057,0.96885,36.041,-22.223,-0.12481,-9.0521
-15.675,8.9863,-0.60468,1.1449,-8.815,10.739,-14.319,-9.4082,29.462,1.6395,0.7057,0.96885,36.041,-22.223,-0.12481,-9.0521
-15.756,8.6998,-0.64995,1.0233,-8.8999,10.596,-14.443,-9.5068,29.525,1.5407,0.64267,0.85188,36.159,-22.044,-0.18773,-9.1547
-15.756,8.6998,-0.64995,1.0233,-8.8999,10.596,-14.443,-9.5068,29.525,1.5407,0.64267,0.85188,36.159,-22.044,-0.18773,-9.1547
-15.756,8.6998,-0.64995,1.0233,-8.8999,10.596,-14.443,-9.5068,29.525,1.5407,0.64267,0.85188,36.159,-22.044,-0.18773,-9.1547
-15.836,8.413,-0.69516,0.90191,-8.9845,10.454,-14.566,-9.6046,29.588,1.4417,0.57981,0.73483,36.276,-21.864,-0.25027,-9.2571
-15.836,8.413,-0.69516,0.90191,-8.9845,10.454,-14.566,-9.6046,29.588,1.4417,0.57981,0.73483,36.276,-21.864,-0.25027,-9.2571
-15.997,7.8391,-0.78536,0.65971,-9.1534,10.167,-14.811,-9.7978,29.71,1.2428,0.45464,0.5005,36.51,-21.501,-0.37416,-9.4612
-15.997,7.8391,-0.78536,0.65971,-9.1534,10.167,-14.811,-9.7978,29.71,1.2428,0.45464,0.5005,36.51,-21.501,-0.37416,-9.4612
-16.077,7.5519,-0.83034,0.53893,-9.2376,10.023,-14.933,-9.8932,29.77,1.143,0.39234,0.38325,36.627,-21.319,-0.43551,-9.563
-16.077,7.5519,-0.83034,0.53893,-9.2376,10.023,-14.933,-9.8932,29.77,1.143,0.39234,0.38325,36.627,-21.319,-0.43551,-9.563
-16.157,7.2646,-0.87523,0.41839,-9.3216,9.8781,-15.053,-9.9878,29.829,1.043,0.33023,0.26596,36.743,-21.136,-0.49645,-9.6645
-16.157,7.2646,-0.87523,0.41839,-9.3216,9.8781,-15.053,-9.9878,29.829,1.043,0.33023,0.26596,36.743,-21.136,-0.49645,-9.6645
-16.157,7.2646,-0.87523,0.41839,-9.3216,9.8781,-15.053,-9.9878,29.829,1.043,0.33023,0.26596,36.743,-21.136,-0.49645,-9.6645
-16.157,7.2646,-0.87523,0.41839,-9.3216,9.8781,-15.053,-9.9878,29.829,1.043,0.33023,0.26596,36.743,-21.136,-0.49645,-9.6645
-16.237,6.9772,-0.92002,0.29808,-9.4055,9.7329,-15.174,-10.082,29.887,0.94273,0.26833,0.14864,36.86,-20.952,-0.55698,-9.7657
-16.237,6.9772,-0.92002,0.29808,-9.4055,9.7329,-15.174,-10.082,29.887,0.94273,0.26833,0.14864,36.86,-20.952,-0.55698,-9.7657
-16.317,6.6898,-0.96472,0.17801,-9.4892,9.5873,-15.293,-10.175,29.945,0.84224,0.20663,0.031304,36.977,-20.767,-0.61709,-9.8667
-16.396,6.4022,-1.0093,0.058198,-9.5727,9.4412,-15.412,-10.267,30.002,0.74154,0.14516,-0.086043,37.093,-20.581,-0.67678,-9.9675
-16.476,6.1147,-1.0538,-0.061355,-9.6561,9.2946,-15.53,-10.358,30.058,0.64063,0.083898,-0.20339,37.209,-20.395,-0.73604,-10.068
-16.476,6.1147,-1.0538,-0.061355,-9.6561,9.2946,-15.53,-10.358,30.058,0.64063,0.083898,-0.20339,37.209,-20.395,-0.73604,-10.068
-16.476,6.1147,-1.0538,-0.061355,-9.6561,9.2946,-15.53,-10.358,30.058,0.64063,0.083898,-0.20339,37.209,-20.395,-0.73604,-10.068
-16.556,5.8271,-1.0982,-0.18064,-9.7393,9.1477,-15.648,-10.448,30.113,0.53953,0.022869,-0.32072,37.325,-20.208,-0.79486,-10.168
-16.556,5.8271,-1.0982,-0.18064,-9.7393,9.1477,-15.648,-10.448,30.113,0.53953,0.022869,-0.32072,37.325,-20.208,-0.79486,-10.168
-16.635,5.5395,-1.1424,-0.29965,-9.8223,9.0003,-15.765,-10.538,30.167,0.43824,-0.037926,-0.43802,37.442,-20.02,-0.85324,-10.268
-16.635,5.5395,-1.1424,-0.29965,-9.8223,9.0003,-15.765,-10.538,30.167,0.43824,-0.037926,-0.43802,37.442,-20.02,-0.85324,-10.268
-16.714,5.252,-1.1865,-0.41838,-9.9051,8.8525,-15.881,-10.627,30.22,0.33677,-0.098482,-0.55528,37.558,-19.831,-0.91118,-10.368
-16.794,4.9645,-1.2305,-0.53682,-9.9878,8.7043,-15.996,-10.715,30.273,0.23513,-0.15879,-0.6725,37.673,-19.642,-0.96868,-10.467
-16.794,4.9645,-1.2305,-0.53682,-9.9878,8.7043,-15.996,-10.715,30.273,0.23513,-0.15879,-0.6725,37.673,-19.642,-0.96868,-10.467
-16.873,4.677,-1.2744,-0.65496,-10.07,8.5558,-16.111,-10.802,30.325,0.13333,-0.21885,-0.78965,37.789,-19.451,-1.0257,-10.566
-16.873,4.677,-1.2744,-0.65496,-10.07,8.5558,-16.111,-10.802,30.325,0.13333,-0.21885,-0.78965,37.789,-19.451,-1.0257,-10.566
-16.873,4.677,-1.2744,-0.65496,-10.07,8.5558,-16.111,-10.802,30.325,0.13333,-0.21885,-0.78965,37.789,-19.451,-1.0257,-10.566
-16.873,4.677,-1.2744,-0.65496,-10.07,8.5558,-16.111,-10.802,30.325,0.13333,-0.21885,-0.78965,37.789,-19.451,-1.0257,-10.566
-16.952,4.3896,-1.3181,-0.77279,-10.153,8.4069,-16.225,-10.888,30.376,0.031378,-0.27865,-0.90674,37.905,-19.261,-1.0823,-10.665
-16.952,4.3896,-1.3181,-0.77279,-10.153,8.4069,-16.225,-10.888,30.376,0.031378,-0.27865,-0.90674,37.905,-19.261,-1.0823,-10.665
-16.952,4.3896,-1.3181,-0.77279,-10.153,8.4069,-16.225,-10.888,30.376,0.031378,-0.27865,-0.90674,37.905,-19.261,-1.0823,-10.665
-17.11,3.8151,-1.4051,-1.0075,-10.317,8.108,-16.451,-11.058,30.476,-0.17295,-0.39746,-1.1407,38.135,-18.876,-1.194,-10.862
-17.11,3.8151,-1.4051,-1.0075,-10.317,8.108,-16.451,-11.058,30.476,-0.17295,-0.39746,-1.1407,38.135,-18.876,-1.194,-10.862
-17.188,3.5281,-1.4483,-1.1244,-10.398,7.9581,-16.562,-11.141,30.524,-0.2753,-0.45645,-1.2575,38.25,-18.683,-1.2492,-10.96
-17.188,3.5281,-1.4483,-1.1244,-10.398,7.9581,-16.562,-11.141,30.524,-0.2753,-0.45645,-1.2575,38.25,-18.683,-1.2492,-10.96
-17.188,3.5281,-1.4483,-1.1244,-10.398,7.9581,-16.562,-11.141,30.524,-0.2753,-0.45645,-1.2575,38.25,-18.683,-1.2492,-10.96
-17.267,3.2412,-1.4914,-1.2409,-10.48,7.8079,-16.673,-11.224,30.572,-0.37777,-0.51516,-1.3741,38.365,-18.489,-1.3039,-11.058
-17.267,3.2412,-1.4914,-1.2409,-10.48,7.8079,-16.673,-11.224,30.572,-0.37777,-0.51516,-1.3741,38.365,-18.489,-1.3039,-11.058
-17.267,3.2412,-1.4914,-1.2409,-10.48,7.8079,-16.673,-11.224,30.572,-0.37777,-0.51516,-1.3741,38.365,-18.489,-1.3039,-11.058
-17.424,2.6679,-1.577,-1.473,-10.643,7.5065,-16.893,-11.386,30.666,-0.58303,-0.63172,-1.6071,38.595,-18.1,-1.4119,-11.252
-17.424,2.6679,-1.577,-1.473,-10.643,7.5065,-16.893,-11.386,30.666,-0.58303,-0.63172,-1.6071,38.595,-18.1,-1.4119,-11.252
-17.502,2.3815,-1.6196,-1.5885,-10.724,7.3554,-17.002,-11.466,30.711,-0.68581,-0.68955,-1.7234,38.709,-17.904,-1.4651,-11.348
-17.58,2.0954,-1.662,-1.7036,-10.804,7.2041,-17.11,-11.545,30.756,-0.78866,-0.74708,-1.8395,38.823,-17.707,-1.5178,-11.445
-17.58,2.0954,-1.662,-1.7036,-10.804,7.2041,-17.11,-11.545,30.756,-0.78866,-0.74708,-1.8395,38.823,-17.707,-1.5178,-11.445
-17.658,1.8095,-1.7041,-1.8184,-10.885,7.0525,-17.217,-11.623,30.8,-0.89159,-0.8043,-1.9555,38.937,-17.51,-1.5701,-11.54
-17.658,1.8095,-1.7041,-1.8184,-10.885,7.0525,-17.217,-11.623,30.8,-0.89159,-0.8043,-1.9555,38.937,-17.51,-1.5701,-11.54
-17.658,1.8095,-1.7041,-1.8184,-10.885,7.0525,-17.217,-11.623,30.8,-0.89159,-0.8043,-1.9555,38.937,-17.51,-1.5701,-11.54
-17.736,1.5238,-1.7461,-1.9328,-10.965,6.9006,-17.323,-11.701,30.843,-0.99458,-0.86121,-2.0713,39.051,-17.312,-1.6218,-11.636
-17.736,1.5238,-1.7461,-1.9328,-10.965,6.9006,-17.323,-11.701,30.843,-0.99458,-0.86121,-2.0713,39.051,-17.312,-1.6218,-11.636
-17.814,1.2385,-1.7879,-2.0468,-11.046,6.7486,-17.429,-11.777,30.885,-1.0976,-0.91779,-2.1868,39.165,-17.113,-1.673,-11.731
-17.814,1.2385,-1.7879,-2.0468,-11.046,6.7486,-17.429,-11.777,30.885,-1.0976,-0.91779,-2.1868,39.165,-17.113,-1.673,-11.731
-17.892,0.95341,-1.8294,-2.1604,-11.126,6.5963,-17.534,-11.852,30.927,-1.2007,-0.97405,-2.3022,39.278,-16.914,-1.7237,-11.826
-17.892,0.95341,-1.8294,-2.1604,-11.126,6.5963,-17.534,-11.852,30.927,-1.2007,-0.97405,-2.3022,39.278,-16.914,-1.7237,-11.826
-17.97,0.66865,-1.8708,-2.2736,-11.205,6.4438,-17.638,-11.926,30.967,-1.3039,-1.03,-2.4174,39.391,-16.714,-1.7739,-11.921
-17.97,0.66865,-1.8708,-2.2736,-11.205,6.4438,-17.638,-11.926,30.967,-1.3039,-1.03,-2.4174,39.391,-16.714,-1.7739,-11.921
-17.97,0.66865,-1.8708,-2.2736,-11.205,6.4438,-17.638,-11.926,30.967,-1.3039,-1.03,-2.4174,39.391,-16.714,-1.7739,-11.921
-18.047,0.38422,-1.9119,-2.3865,-11.285,6.2911,-17.741,-12,31.007,-1.407,-1.0856,-2.5323,39.504,-16.514,-1.8236,-12.015
-18.047,0.38422,-1.9119,-2.3865,-11.285,6.2911,-17.741,-12,31.007,-1.407,-1.0856,-2.5323,39.504,-16.514,-1.8236,-12.015
-18.047,0.38422,-1.9119,-2.3865,-11.285,6.2911,-17.741,-12,31.007,-1.407,-1.0856,-2.5323,39.504,-16.514,-1.8236,-12.015
-18.202,-0.18358,-1.9935,-2.6109,-11.443,5.9853,-17.945,-12.144,31.085,-1.6134,-1.1957,-2.7615,39.73,-16.111,-1.9214,-12.202
-18.202,-0.18358,-1.9935,-2.6109,-11.443,5.9853,-17.945,-12.144,31.085,-1.6134,-1.1957,-2.7615,39.73,-16.111,-1.9214,-12.202
-18.279,-0.46692,-2.0339,-2.7224,-11.522,5.8321,-18.046,-12.215,31.123,-1.7166,-1.2502,-2.8758,39.842,-15.909,-1.9694,-12.295
-18.279,-0.46692,-2.0339,-2.7224,-11.522,5.8321,-18.046,-12.215,31.123,-1.7166,-1.2502,-2.8758,39.842,-15.909,-1.9694,-12.295
-18.356,-0.74987,-2.0741,-2.8336,-11.601,5.6788,-18.146,-12.284,31.159,-1.8198,-1.3044,-2.9897,39.954,-15.706,-2.017,-12.387
-18.356,-0.74987,-2.0741,-2.8336,-11.601,5.6788,-18.146,-12.284,31.159,-1.8198,-1.3044,-2.9897,39.954,-15.706,-2.017,-12.387
-18.433,-1.0324,-2.114,-2.9443,-11.679,5.5254,-18.245,-12.353,31.196,-1.923,-1.3582,-3.1034,40.066,-15.503,-2.064,-12.479
-18.433,-1.0324,-2.114,-2.9443,-11.679,5.5254,-18.245,-12.353,31.196,-1.923,-1.3582,-3.1034,40.066,-15.503,-2.064,-12.479
-18.509,-1.3145,-2.1537,-3.0545,-11.758,5.3718,-18.343,-12.421,31.231,-2.0262,-1.4117,-3.2168,40.178,-15.298,-2.1105,-12.571
-18.509,-1.3145,-2.1537,-3.0545,-11.758,5.3718,-18.343,-12.421,31.231,-2.0262,-1.4117,-3.2168,40.178,-15.298,-2.1105,-12.571
-18.509,-1.3145,-2.1537,-3.0545,-11.758,5.3718,-18.343,-12.421,31.231,-2.0262,-1.4117,-3.2168,40.178,-15.298,-2.1105,-12.571
-18.586,-1.5961,-2.1931,-3.1643,-11.836,5.2182,-18.44,-12.487,31.265,-2.1293,-1.4648,-3.3299,40.289,-15.094,-2.1564,-12.662
-18.586,-1.5961,-2.1931,-3.1643,-11.836,5.2182,-18.44,-12.487,31.265,-2.1293,-1.4648,-3.3299,40.289,-15.094,-2.1564,-12.662
-18.662,-1.8773,-2.2323,-3.2737,-11.914,5.0644,-18.537,-12.553,31.299,-2.2324,-1.5175,-3.4427,40.4,-14.889,-2.2018,-12.753
-18.662,-1.8773,-2.2323,-3.2737,-11.914,5.0644,-18.537,-12.553,31.299,-2.2324,-1.5175,-3.4427,40.4,-14.889,-2.2018,-12.753
-18.662,-1.8773,-2.2323,-3.2737,-11.914,5.0644,-18.537,-12.553,31.299,-2.2324,-1.5175,-3.4427,40.4,-14.889,-2.2018,-12.753
-18.815,-2.4382,-2.3098,-3.491,-12.068,4.7567,-18.727,-12.682,31.364,-2.4385,-1.6217,-3.6674,40.622,-14.477,-2.2909,-12.934
-18.815,-2.4382,-2.3098,-3.491,-12.068,4.7567,-18.727,-12.682,31.364,-2.4385,-1.6217,-3.6674,40.622,-14.477,-2.2909,-12.934
-18.815,-2.4382,-2.3098,-3.491,-12.068,4.7567,-18.727,-12.682,31.364,-2.4385,-1.6217,-3.6674,40.622,-14.477,-2.2909,-12.934
-18.891,-2.7179,-2.3482,-3.599,-12.145,4.6028,-18.821,-12.744,31.396,-2.5414,-1.6732,-3.7793,40.732,-14.27,-2.3346,-13.023
-18.891,-2.7179,-2.3482,-3.599,-12.145,4.6028,-18.821,-12.744,31.396,-2.5414,-1.6732,-3.7793,40.732,-14.27,-2.3346,-13.023
-18.891,-2.7179,-2.3482,-3.599,-12.145,4.6028,-18.821,-12.744,31.396,-2.5414,-1.6732,-3.7793,40.732,-14.27,-2.3346,-13.023
-19.043,-3.2756,-2.424,-3.8135,-12.299,4.2948,-19.006,-12.867,31.456,-2.747,-1.7751,-4.0019,40.952,-13.855,-2.4203,-13.201
-19.043,-3.2756,-2.424,-3.8135,-12.299,4.2948,-19.006,-12.867,31.456,-2.747,-1.7751,-4.0019,40.952,-13.855,-2.4203,-13.201
-19.119,-3.5537,-2.4615,-3.92,-12.375,4.1407,-19.098,-12.927,31.485,-2.8497,-1.8254,-4.1127,41.061,-13.647,-2.4623,-13.289
-19.119,-3.5537,-2.4615,-3.92,-12.375,4.1407,-19.098,-12.927,31.485,-2.8497,-1.8254,-4.1127,41.061,-13.647,-2.4623,-13.289
-19.194,-3.8311,-2.4987,-4.026,-12.451,3.9867,-19.188,-12.986,31.514,-2.9523,-1.8753,-4.2231,41.171,-13.438,-2.5037,-13.377
-19.27,-4.108,-2.5355,-4.1315,-12.527,3.8326,-19.278,-13.044,31.542,-3.0548,-1.9248,-4.3332,41.279,-13.229,-2.5446,-13.464
-19.27,-4.108,-2.5355,-4.1315,-12.527,3.8326,-19.278,-13.044,31.542,-3.0548,-1.9248,-4.3332,41.279,-13.229,-2.5446,-13.464
-19.27,-4.108,-2.5355,-4.1315,-12.527,3.8326,-19.278,-13.044,31.542,-3.0548,-1.9248,-4.3332,41.279,-13.229,-2.5446,-13.464
-19.27,-4.108,-2.5355,-4.1315,-12.527,3.8326,-19.278,-13.044,31.542,-3.0548,-1.9248,-4.3332,41.279,-13.229,-2.5446,-13.464
-19.345,-4.3842,-2.5721,-4.2365,-12.603,3.6785,-19.366,-13.101,31.568,-3.1572,-1.9738,-4.4429,41.388,-13.019,-2.5848,-13.551
-19.345,-4.3842,-2.5721,-4.2365,-12.603,3.6785,-19.366,-13.101,31.568,-3.1572,-1.9738,-4.4429,41.388,-13.019,-2.5848,-13.551
-19.42,-4.6598,-2.6084,-4.341,-12.678,3.5245,-19.454,-13.157,31.595,-3.2594,-2.0224,-4.5521,41.496,-12.809,-2.6245,-13.638
-19.42,-4.6598,-2.6084,-4.341,-12.678,3.5245,-19.454,-13.157,31.595,-3.2594,-2.0224,-4.5521,41.496,-12.809,-2.6245,-13.638
-19.495,-4.9348,-2.6443,-4.4449,-12.753,3.3705,-19.541,-13.211,31.62,-3.3616,-2.0706,-4.661,41.604,-12.598,-2.6637,-13.724
-19.495,-4.9348,-2.6443,-4.4449,-12.753,3.3705,-19.541,-13.211,31.62,-3.3616,-2.0706,-4.661,41.604,-12.598,-2.6637,-13.724
-19.495,-4.9348,-2.6443,-4.4449,-12.753,3.3705,-19.541,-13.211,31.62,-3.3616,-2.0706,-4.661,41.604,-12.598,-2.6637,-13.724
-19.644,-5.4827,-2.7152,-4.6513,-12.902,3.0627,-19.712,-13.318,31.669,-3.5654,-2.1657,-4.8775,41.819,-12.176,-2.7401,-13.894
-19.644,-5.4827,-2.7152,-4.6513,-12.902,3.0627,-19.712,-13.318,31.669,-3.5654,-2.1657,-4.8775,41.819,-12.176,-2.7401,-13.894
-19.644,-5.4827,-2.7152,-4.6513,-12.902,3.0627,-19.712,-13.318,31.669,-3.5654,-2.1657,-4.8775,41.819,-12.176,-2.7401,-13.894
-19.719,-5.7556,-2.7501,-4.7537,-12.977,2.9088,-19.796,-13.37,31.692,-3.6671,-2.2125,-4.9851,41.926,-11.964,-2.7775,-13.979
-19.793,-6.0278,-2.7847,-4.8555,-13.051,2.7551,-19.879,-13.421,31.714,-3.7686,-2.259,-5.0922,42.032,-11.751,-2.8142,-14.063
-19.793,-6.0278,-2.7847,-4.8555,-13.051,2.7551,-19.879,-13.421,31.714,-3.7686,-2.259,-5.0922,42.032,-11.751,-2.8142,-14.063
-19.868,-6.2993,-2.819,-4.9568,-13.124,2.6014,-19.961,-13.471,31.736,-3.87,-2.3049,-5.1989,42.139,-11.539,-2.8504,-14.146
-19.868,-6.2993,-2.819,-4.9568,-13.124,2.6014,-19.961,-13.471,31.736,-3.87,-2.3049,-5.1989,42.139,-11.539,-2.8504,-14.146
-19.942,-6.5701,-2.8529,-5.0576,-13.198,2.4478,-20.042,-13.52,31.757,-3.9711,-2.3504,-5.3052,42.244,-11.326,-2.886,-14.229
-19.942,-6.5701,-2.8529,-5.0576,-13.198,2.4478,-20.042,-13.52,31.757,-3.9711,-2.3504,-5.3052,42.244,-11.326,-2.886,-14.229
-20.016,-6.8401,-2.8865,-5.1578,-13.271,2.2943,-20.123,-13.567,31.777,-4.0721,-2.3954,-5.411,42.35,-11.112,-2.9209,-14.312
-20.016,-6.8401,-2.8865,-5.1578,-13.271,2.2943,-20.123,-13.567,31.777,-4.0721,-2.3954,-5.411,42.35,-11.112,-2.9209,-14.312
-20.016,-6.8401,-2.8865,-5.1578,-13.271,2.2943,-20.123,-13.567,31.777,-4.0721,-2.3954,-5.411,42.35,-11.112,-2.9209,-14.312
-20.089,-7.1093,-2.9197,-5.2574,-13.344,2.141,-20.202,-13.614,31.797,-4.1729,-2.44,-5.5163,42.455,-10.898,-2.9553,-14.394
-20.089,-7.1093,-2.9197,-5.2574,-13.344,2.141,-20.202,-13.614,31.797,-4.1729,-2.44,-5.5163,42.455,-10.898,-2.9553,-14.394
-20.089,-7.1093,-2.9197,-5.2574,-13.344,2.141,-20.202,-13.614,31.797,-4.1729,-2.44,-5.5163,42.455,-10.898,-2.9553,-14.394
-20.236,-7.6455,-2.985,-5.455,-13.489,1.8346,-20.358,-13.705,31.834,-4.3739,-2.5277,-5.7255,42.664,-10.469,-3.0222,-14.556
-20.236,-7.6455,-2.985,-5.455,-13.489,1.8346,-20.358,-13.705,31.834,-4.3739,-2.5277,-5.7255,42.664,-10.469,-3.0222,-14.556
-20.236,-7.6455,-2.985,-5.455,-13.489,1.8346,-20.358,-13.705,31.834,-4.3739,-2.5277,-5.7255,42.664,-10.469,-3.0222,-14.556
-20.383,-8.1784,-3.0489,-5.6503,-13.632,1.5289,-20.511,-13.791,31.868,-4.5741,-2.6135,-5.9327,42.872,-10.039,-3.0867,-14.716
-20.383,-8.1784,-3.0489,-5.6503,-13.632,1.5289,-20.511,-13.791,31.868,-4.5741,-2.6135,-5.9327,42.872,-10.039,-3.0867,-14.716
-20.383,-8.1784,-3.0489,-5.6503,-13.632,1.5289,-20.511,-13.791,31.868,-4.5741,-2.6135,-5.9327,42.872,-10.039,-3.0867,-14.716
-20.383,-8.1784,-3.0489,-5.6503,-13.632,1.5289,-20.511,-13.791,31.868,-4.5741,-2.6135,-5.9327,42.872,-10.039,-3.0867,-14.716
-20.456,-8.4436,-3.0802,-5.7471,-13.704,1.3763,-20.585,-13.833,31.884,-4.6738,-2.6556,-6.0355,42.975,-9.8235,-3.1181,-14.796
-20.456,-8.4436,-3.0802,-5.7471,-13.704,1.3763,-20.585,-13.833,31.884,-4.6738,-2.6556,-6.0355,42.975,-9.8235,-3.1181,-14.796
-20.601,-8.9714,-3.1418,-5.9389,-13.846,1.0716,-20.732,-13.913,31.914,-4.8725,-2.7384,-6.2396,43.18,-9.3915,-3.1789,-14.953
-20.601,-8.9714,-3.1418,-5.9389,-13.846,1.0716,-20.732,-13.913,31.914,-4.8725,-2.7384,-6.2396,43.18,-9.3915,-3.1789,-14.953
-20.601,-8.9714,-3.1418,-5.9389,-13.846,1.0716,-20.732,-13.913,31.914,-4.8725,-2.7384,-6.2396,43.18,-9.3915,-3.1789,-14.953
-20.673,-9.234,-3.172,-6.0339,-13.916,0.91948,-20.804,-13.951,31.928,-4.9715,-2.7791,-6.3408,43.282,-9.175,-3.2084,-15.031
-20.673,-9.234,-3.172,-6.0339,-13.916,0.91948,-20.804,-13.951,31.928,-4.9715,-2.7791,-6.3408,43.282,-9.175,-3.2084,-15.031
-20.673,-9.234,-3.172,-6.0339,-13.916,0.91948,-20.804,-13.951,31.928,-4.9715,-2.7791,-6.3408,43.282,-9.175,-3.2084,-15.031
-20.673,-9.234,-3.172,-6.0339,-13.916,0.91948,-20.804,-13.951,31.928,-4.9715,-2.7791,-6.3408,43.282,-9.175,-3.2084,-15.031
-20.673,-9.234,-3.172,-6.0339,-13.916,0.91948,-20.804,-13.951,31.928,-4.9715,-2.7791,-6.3408,43.282,-9.175,-3.2084,-15.031
-20.818,-9.7565,-3.2311,-6.2221,-14.056,0.61594,-20.945,-14.026,31.953,-5.1687,-2.8589,-6.5417,43.484,-8.7412,-3.2655,-15.185
-20.818,-9.7565,-3.2311,-6.2221,-14.056,0.61594,-20.945,-14.026,31.953,-5.1687,-2.8589,-6.5417,43.484,-8.7412,-3.2655,-15.185
-20.89,-10.016,-3.2601,-6.3153,-14.125,0.46451,-21.013,-14.061,31.965,-5.2669,-2.8981,-6.6413,43.585,-8.5239,-3.2931,-15.261
-20.89,-10.016,-3.2601,-6.3153,-14.125,0.46451,-21.013,-14.061,31.965,-5.2669,-2.8981,-6.6413,43.585,-8.5239,-3.2931,-15.261
-20.961,-10.275,-3.2887,-6.4078,-14.195,0.3133,-21.081,-14.096,31.976,-5.3648,-2.9367,-6.7404,43.685,-8.3064,-3.3201,-15.337
-20.961,-10.275,-3.2887,-6.4078,-14.195,0.3133,-21.081,-14.096,31.976,-5.3648,-2.9367,-6.7404,43.685,-8.3064,-3.3201,-15.337
-20.961,-10.275,-3.2887,-6.4078,-14.195,0.3133,-21.081,-14.096,31.976,-5.3648,-2.9367,-6.7404,43.685,-8.3064,-3.3201,-15.337
-21.104,-10.79,-3.3446,-6.5912,-14.332,0.011603,-21.215,-14.161,31.996,-5.5597,-3.0124,-6.9367,43.884,-7.8706,-3.3723,-15.486
-21.104,-10.79,-3.3446,-6.5912,-14.332,0.011603,-21.215,-14.161,31.996,-5.5597,-3.0124,-6.9367,43.884,-7.8706,-3.3723,-15.486
-21.175,-11.046,-3.3719,-6.6819,-14.4,-0.13886,-21.28,-14.193,32.006,-5.6567,-3.0494,-7.0341,43.982,-7.6524,-3.3974,-15.56
-21.175,-11.046,-3.3719,-6.6819,-14.4,-0.13886,-21.28,-14.193,32.006,-5.6567,-3.0494,-7.0341,43.982,-7.6524,-3.3974,-15.56
-21.246,-11.301,-3.3989,-6.772,-14.468,-0.28907,-21.344,-14.223,32.014,-5.7534,-3.086,-7.1308,44.081,-7.434,-3.4219,-15.634
-21.246,-11.301,-3.3989,-6.772,-14.468,-0.28907,-21.344,-14.223,32.014,-5.7534,-3.086,-7.1308,44.081,-7.434,-3.4219,-15.634
-21.246,-11.301,-3.3989,-6.772,-14.468,-0.28907,-21.344,-14.223,32.014,-5.7534,-3.086,-7.1308,44.081,-7.434,-3.4219,-15.634
-21.246,-11.301,-3.3989,-6.772,-14.468,-0.28907,-21.344,-14.223,32.014,-5.7534,-3.086,-7.1308,44.081,-7.434,-3.4219,-15.634
-21.388,-11.809,-3.4514,-6.9503,-14.603,-0.58865,-21.469,-14.281,32.029,-5.9459,-3.1574,-7.3224,44.276,-6.9966,-3.4691,-15.779
-21.388,-11.809,-3.4514,-6.9503,-14.603,-0.58865,-21.469,-14.281,32.029,-5.9459,-3.1574,-7.3224,44.276,-6.9966,-3.4691,-15.779
-21.458,-12.061,-3.477,-7.0385,-14.669,-0.738,-21.53,-14.308,32.035,-6.0416,-3.1924,-7.4174,44.373,-6.7777,-3.4917,-15.851
-21.458,-12.061,-3.477,-7.0385,-14.669,-0.738,-21.53,-14.308,32.035,-6.0416,-3.1924,-7.4174,44.373,-6.7777,-3.4917,-15.851
-21.528,-12.312,-3.5022,-7.1261,-14.736,-0.88707,-21.59,-14.334,32.041,-6.137,-3.2267,-7.5117,44.469,-6.5585,-3.5137,-15.922
-21.528,-12.312,-3.5022,-7.1261,-14.736,-0.88707,-21.59,-14.334,32.041,-6.137,-3.2267,-7.5117,44.469,-6.5585,-3.5137,-15.922
-21.598,-12.562,-3.5269,-7.213,-14.802,-1.0358,-21.65,-14.36,32.046,-6.2321,-3.2606,-7.6054,44.565,-6.3393,-3.5351,-15.992
-21.598,-12.562,-3.5269,-7.213,-14.802,-1.0358,-21.65,-14.36,32.046,-6.2321,-3.2606,-7.6054,44.565,-6.3393,-3.5351,-15.992
-21.598,-12.562,-3.5269,-7.213,-14.802,-1.0358,-21.65,-14.36,32.046,-6.2321,-3.2606,-7.6054,44.565,-6.3393,-3.5351,-15.992
-21.668,-12.811,-3.5512,-7.2993,-14.868,-1.1843,-21.708,-14.384,32.05,-6.3268,-3.2939,-7.6984,44.66,-6.1199,-3.5559,-16.062
-21.668,-12.811,-3.5512,-7.2993,-14.868,-1.1843,-21.708,-14.384,32.05,-6.3268,-3.2939,-7.6984,44.66,-6.1199,-3.5559,-16.062
-21.737,-13.059,-3.575,-7.3849,-14.933,-1.3324,-21.765,-14.407,32.054,-6.4212,-3.3266,-7.7908,44.755,-5.9003,-3.576,-16.132
-21.737,-13.059,-3.575,-7.3849,-14.933,-1.3324,-21.765,-14.407,32.054,-6.4212,-3.3266,-7.7908,44.755,-5.9003,-3.576,-16.132
-21.807,-13.305,-3.5984,-7.4699,-14.998,-1.4802,-21.821,-14.429,32.057,-6.5152,-3.3588,-7.8826,44.849,-5.6807,-3.5955,-16.201
-21.807,-13.305,-3.5984,-7.4699,-14.998,-1.4802,-21.821,-14.429,32.057,-6.5152,-3.3588,-7.8826,44.849,-5.6807,-3.5955,-16.201
-21.807,-13.305,-3.5984,-7.4699,-14.998,-1.4802,-21.821,-14.429,32.057,-6.5152,-3.3588,-7.8826,44.849,-5.6807,-3.5955,-16.201
-21.945,-13.796,-3.6438,-7.6378,-15.127,-1.7748,-21.931,-14.47,32.061,-6.7021,-3.4216,-8.0643,45.036,-5.241,-3.6325,-16.336
-21.945,-13.796,-3.6438,-7.6378,-15.127,-1.7748,-21.931,-14.47,32.061,-6.7021,-3.4216,-8.0643,45.036,-5.241,-3.6325,-16.336
-22.013,-14.039,-3.6658,-7.7208,-15.191,-1.9215,-21.984,-14.489,32.063,-6.795,-3.4521,-8.1541,45.128,-5.0211,-3.6501,-16.404
-22.013,-14.039,-3.6658,-7.7208,-15.191,-1.9215,-21.984,-14.489,32.063,-6.795,-3.4521,-8.1541,45.128,-5.0211,-3.6501,-16.404
-22.013,-14.039,-3.6658,-7.7208,-15.191,-1.9215,-21.984,-14.489,32.063,-6.795,-3.4521,-8.1541,45.128,-5.0211,-3.6501,-16.404
-22.082,-14.282,-3.6873,-7.8032,-15.254,-2.0679,-22.036,-14.508,32.063,-6.8875,-3.482,-8.2433,45.22,-4.8011,-3.6671,-16.47
-22.082,-14.282,-3.6873,-7.8032,-15.254,-2.0679,-22.036,-14.508,32.063,-6.8875,-3.482,-8.2433,45.22,-4.8011,-3.6671,-16.47
-22.082,-14.282,-3.6873,-7.8032,-15.254,-2.0679,-22.036,-14.508,32.063,-6.8875,-3.482,-8.2433,45.22,-4.8011,-3.6671,-16.47
-22.218,-14.763,-3.729,-7.9658,-15.38,-2.3597,-22.138,-14.541,32.063,-7.0713,-3.5403,-8.4197,45.403,-4.3609,-3.6991,-16.601
-22.218,-14.763,-3.729,-7.9658,-15.38,-2.3597,-22.138,-14.541,32.063,-7.0713,-3.5403,-8.4197,45.403,-4.3609,-3.6991,-16.601
-22.218,-14.763,-3.729,-7.9658,-15.38,-2.3597,-22.138,-14.541,32.063,-7.0713,-3.5403,-8.4197,45.403,-4.3609,-3.6991,-16.601
-22.286,-15.002,-3.7491,-8.0462,-15.442,-2.505,-22.187,-14.556,32.061,-7.1626,-3.5685,-8.5069,45.493,-4.1407,-3.7142,-16.666
-22.286,-15.002,-3.7491,-8.0462,-15.442,-2.505,-22.187,-14.556,32.061,-7.1626,-3.5685,-8.5069,45.493,-4.1407,-3.7142,-16.666
-22.286,-15.002,-3.7491,-8.0462,-15.442,-2.505,-22.187,-14.556,32.061,-7.1626,-3.5685,-8.5069,45.493,-4.1407,-3.7142,-16.666
-22.421,-15.476,-3.788,-8.2048,-15.566,-2.7944,-22.283,-14.583,32.057,-7.344,-3.6233,-8.6792,45.672,-3.7003,-3.7424,-16.793
-22.421,-15.476,-3.788,-8.2048,-15.566,-2.7944,-22.283,-14.583,32.057,-7.344,-3.6233,-8.6792,45.672,-3.7003,-3.7424,-16.793
-22.421,-15.476,-3.788,-8.2048,-15.566,-2.7944,-22.283,-14.583,32.057,-7.344,-3.6233,-8.6792,45.672,-3.7003,-3.7424,-16.793
-22.421,-15.476,-3.788,-8.2048,-15.566,-2.7944,-22.283,-14.583,32.057,-7.344,-3.6233,-8.6792,45.672,-3.7003,-3.7424,-16.793
-22.421,-15.476,-3.788,-8.2048,-15.566,-2.7944,-22.283,-14.583,32.057,-7.344,-3.6233,-8.6792,45.672,-3.7003,-3.7424,-16.793
-22.555,-15.946,-3.8249,-8.3608,-15.688,-3.0822,-22.375,-14.606,32.05,-7.5237,-3.6758,-8.8487,45.849,-3.2599,-3.7681,-16.919
-22.555,-15.946,-3.8249,-8.3608,-15.688,-3.0822,-22.375,-14.606,32.05,-7.5237,-3.6758,-8.8487,45.849,-3.2599,-3.7681,-16.919
-22.555,-15.946,-3.8249,-8.3608,-15.688,-3.0822,-22.375,-14.606,32.05,-7.5237,-3.6758,-8.8487,45.849,-3.2599,-3.7681,-16.919
-22.688,-16.411,-3.8598,-8.514,-15.808,-3.3684,-22.463,-14.625,32.041,-7.7017,-3.726,-9.0155,46.023,-2.8195,-3.7913,-17.041
-22.688,-16.411,-3.8598,-8.514,-15.808,-3.3684,-22.463,-14.625,32.041,-7.7017,-3.726,-9.0155,46.023,-2.8195,-3.7913,-17.041
-22.754,-16.642,-3.8765,-8.5896,-15.867,-3.5109,-22.505,-14.633,32.035,-7.79,-3.7502,-9.0978,46.109,-2.5994,-3.802,-17.102
-22.82,-16.871,-3.8928,-8.6645,-15.926,-3.6529,-22.546,-14.64,32.029,-7.8779,-3.7738,-9.1795,46.195,-2.3793,-3.812,-17.162
-22.82,-16.871,-3.8928,-8.6645,-15.926,-3.6529,-22.546,-14.64,32.029,-7.8779,-3.7738,-9.1795,46.195,-2.3793,-3.812,-17.162
-22.82,-16.871,-3.8928,-8.6645,-15.926,-3.6529,-22.546,-14.64,32.029,-7.8779,-3.7738,-9.1795,46.195,-2.3793,-3.812,-17.162
-22.886,-17.099,-3.9085,-8.7387,-15.985,-3.7946,-22.587,-14.646,32.022,-7.9653,-3.7969,-9.2604,46.279,-2.1593,-3.8214,-17.221
-22.886,-17.099,-3.9085,-8.7387,-15.985,-3.7946,-22.587,-14.646,32.022,-7.9653,-3.7969,-9.2604,46.279,-2.1593,-3.8214,-17.221
-22.952,-17.326,-3.9238,-8.8122,-16.043,-3.9357,-22.626,-14.651,32.015,-8.0523,-3.8193,-9.3406,46.364,-1.9394,-3.8301,-17.28
-23.017,-17.552,-3.9385,-8.885,-16.101,-4.0765,-22.665,-14.655,32.007,-8.1389,-3.8412,-9.42,46.447,-1.7195,-3.8383,-17.338
-23.017,-17.552,-3.9385,-8.885,-16.101,-4.0765,-22.665,-14.655,32.007,-8.1389,-3.8412,-9.42,46.447,-1.7195,-3.8383,-17.338
-23.017,-17.552,-3.9385,-8.885,-16.101,-4.0765,-22.665,-14.655,32.007,-8.1389,-3.8412,-9.42,46.447,-1.7195,-3.8383,-17.338
-23.082,-17.776,-3.9528,-8.9571,-16.158,-4.2167,-22.702,-14.658,31.998,-8.2249,-3.8624,-9.4988,46.53,-1.4998,-3.8458,-17.395
-23.082,-17.776,-3.9528,-8.9571,-16.158,-4.2167,-22.702,-14.658,31.998,-8.2249,-3.8624,-9.4988,46.53,-1.4998,-3.8458,-17.395
-23.082,-17.776,-3.9528,-8.9571,-16.158,-4.2167,-22.702,-14.658,31.998,-8.2249,-3.8624,-9.4988,46.53,-1.4998,-3.8458,-17.395
-23.147,-17.999,-3.9665,-9.0286,-16.215,-4.3565,-22.739,-14.66,31.989,-8.3105,-3.8831,-9.5768,46.613,-1.2801,-3.8527,-17.452
-23.147,-17.999,-3.9665,-9.0286,-16.215,-4.3565,-22.739,-14.66,31.989,-8.3105,-3.8831,-9.5768,46.613,-1.2801,-3.8527,-17.452
-23.211,-18.221,-3.9798,-9.0993,-16.271,-4.4959,-22.774,-14.662,31.98,-8.3956,-3.9032,-9.6541,46.694,-1.0606,-3.8589,-17.508
-23.211,-18.221,-3.9798,-9.0993,-16.271,-4.4959,-22.774,-14.662,31.98,-8.3956,-3.9032,-9.6541,46.694,-1.0606,-3.8589,-17.508
-23.339,-18.661,-4.0047,-9.2387,-16.383,-4.7732,-22.842,-14.661,31.959,-8.5644,-3.9416,-9.8065,46.856,-0.62191,-3.8696,-17.618
-23.339,-18.661,-4.0047,-9.2387,-16.383,-4.7732,-22.842,-14.661,31.959,-8.5644,-3.9416,-9.8065,46.856,-0.62191,-3.8696,-17.618
-23.403,-18.879,-4.0164,-9.3073,-16.438,-4.9112,-22.875,-14.659,31.947,-8.6481,-3.9599,-9.8815,46.935,-0.4028,-3.874,-17.673
-23.403,-18.879,-4.0164,-9.3073,-16.438,-4.9112,-22.875,-14.659,31.947,-8.6481,-3.9599,-9.8815,46.935,-0.4028,-3.874,-17.673
-23.403,-18.879,-4.0164,-9.3073,-16.438,-4.9112,-22.875,-14.659,31.947,-8.6481,-3.9599,-9.8815,46.935,-0.4028,-3.874,-17.673
-23.466,-19.096,-4.0276,-9.3753,-16.492,-5.0487,-22.906,-14.657,31.936,-8.7313,-3.9776,-9.9559,47.014,-0.18386,-3.8777,-17.726
-23.466,-19.096,-4.0276,-9.3753,-16.492,-5.0487,-22.906,-14.657,31.936,-8.7313,-3.9776,-9.9559,47.014,-0.18386,-3.8777,-17.726
-23.466,-19.096,-4.0276,-9.3753,-16.492,-5.0487,-22.906,-14.657,31.936,-8.7313,-3.9776,-9.9559,47.014,-0.18386,-3.8777,-17.726
-23.53,-19.311,-4.0383,-9.4425,-16.546,-5.1856,-22.937,-14.653,31.923,-8.814,-3.9947,-10.029,47.093,0.034908,-3.8809,-17.779
-23.53,-19.311,-4.0383,-9.4425,-16.546,-5.1856,-22.937,-14.653,31.923,-8.814,-3.9947,-10.029,47.093,0.034908,-3.8809,-17.779
-23.593,-19.526,-4.0485,-9.5091,-16.6,-5.3221,-22.967,-14.648,31.91,-8.8962,-4.0112,-10.102,47.17,0.25349,-3.8834,-17.832
-23.655,-19.738,-4.0581,-9.5749,-16.653,-5.4581,-22.995,-14.643,31.897,-8.9778,-4.0271,-10.174,47.247,0.47187,-3.8853,-17.884
-23.655,-19.738,-4.0581,-9.5749,-16.653,-5.4581,-22.995,-14.643,31.897,-8.9778,-4.0271,-10.174,47.247,0.47187,-3.8853,-17.884
-23.718,-19.95,-4.0672,-9.64,-16.706,-5.5936,-23.023,-14.636,31.883,-9.059,-4.0424,-10.246,47.323,0.69004,-3.8866,-17.935
-23.718,-19.95,-4.0672,-9.64,-16.706,-5.5936,-23.023,-14.636,31.883,-9.059,-4.0424,-10.246,47.323,0.69004,-3.8866,-17.935
-23.78,-20.16,-4.0759,-9.7045,-16.758,-5.7287,-23.05,-14.629,31.868,-9.1397,-4.0571,-10.316,47.399,0.90799,-3.8873,-17.985
-23.78,-20.16,-4.0759,-9.7045,-16.758,-5.7287,-23.05,-14.629,31.868,-9.1397,-4.0571,-10.316,47.399,0.90799,-3.8873,-17.985
-23.842,-20.369,-4.084,-9.7682,-16.81,-5.8632,-23.076,-14.621,31.853,-9.2198,-4.0712,-10.386,47.473,1.1257,-3.8873,-18.035
-23.842,-20.369,-4.084,-9.7682,-16.81,-5.8632,-23.076,-14.621,31.853,-9.2198,-4.0712,-10.386,47.473,1.1257,-3.8873,-18.035
-23.903,-20.576,-4.0915,-9.8312,-16.861,-5.9972,-23.1,-14.611,31.837,-9.2995,-4.0847,-10.455,47.547,1.3432,-3.8868,-18.085
-23.964,-20.782,-4.0986,-9.8935,-16.912,-6.1306,-23.124,-14.601,31.821,-9.3786,-4.0976,-10.523,47.621,1.5604,-3.8856,-18.133
-23.964,-20.782,-4.0986,-9.8935,-16.912,-6.1306,-23.124,-14.601,31.821,-9.3786,-4.0976,-10.523,47.621,1.5604,-3.8856,-18.133
-23.964,-20.782,-4.0986,-9.8935,-16.912,-6.1306,-23.124,-14.601,31.821,-9.3786,-4.0976,-10.523,47.621,1.5604,-3.8856,-18.133
-24.025,-20.987,-4.1051,-9.9551,-16.962,-6.2636,-23.147,-14.59,31.804,-9.4571,-4.1098,-10.591,47.693,1.7773,-3.8839,-18.182
-24.025,-20.987,-4.1051,-9.9551,-16.962,-6.2636,-23.147,-14.59,31.804,-9.4571,-4.1098,-10.591,47.693,1.7773,-3.8839,-18.182
-24.086,-21.19,-4.1111,-10.016,-17.012,-6.396,-23.169,-14.578,31.787,-9.5352,-4.1215,-10.658,47.765,1.994,-3.8815,-18.229
-24.147,-21.392,-4.1166,-10.076,-17.061,-6.528,-23.19,-14.565,31.77,-9.6127,-4.1326,-10.724,47.836,2.2104,-3.8785,-18.276
-24.147,-21.392,-4.1166,-10.076,-17.061,-6.528,-23.19,-14.565,31.77,-9.6127,-4.1326,-10.724,47.836,2.2104,-3.8785,-18.276
-24.147,-21.392,-4.1166,-10.076,-17.061,-6.528,-23.19,-14.565,31.77,-9.6127,-4.1326,-10.724,47.836,2.2104,-3.8785,-18.276
-24.207,-21.593,-4.1215,-10.136,-17.11,-6.6594,-23.21,-14.551,31.751,-9.6897,-4.1431,-10.789,47.906,2.4264,-3.875,-18.322
-24.207,-21.593,-4.1215,-10.136,-17.11,-6.6594,-23.21,-14.551,31.751,-9.6897,-4.1431,-10.789,47.906,2.4264,-3.875,-18.322
-24.267,-21.792,-4.126,-10.194,-17.159,-6.7902,-23.229,-14.536,31.733,-9.7661,-4.1529,-10.853,47.976,2.6422,-3.8708,-18.368
-24.326,-21.99,-4.1299,-10.253,-17.206,-6.9205,-23.247,-14.521,31.713,-9.842,-4.1622,-10.917,48.045,2.8576,-3.866,-18.413
-24.326,-21.99,-4.1299,-10.253,-17.206,-6.9205,-23.247,-14.521,31.713,-9.842,-4.1622,-10.917,48.045,2.8576,-3.866,-18.413
-24.326,-21.99,-4.1299,-10.253,-17.206,-6.9205,-23.247,-14.521,31.713,-9.842,-4.1622,-10.917,48.045,2.8576,-3.866,-18.413
-24.386,-22.187,-4.1333,-10.31,-17.254,-7.0503,-23.264,-14.504,31.694,-9.9174,-4.1709,-10.98,48.113,3.0727,-3.8606,-18.457
-24.386,-22.187,-4.1333,-10.31,-17.254,-7.0503,-23.264,-14.504,31.694,-9.9174,-4.1709,-10.98,48.113,3.0727,-3.8606,-18.457
-24.445,-22.382,-4.1361,-10.367,-17.3,-7.1796,-23.28,-14.487,31.673,-9.9922,-4.1789,-11.042,48.18,3.2875,-3.8546,-18.501
-24.445,-22.382,-4.1361,-10.367,-17.3,-7.1796,-23.28,-14.487,31.673,-9.9922,-4.1789,-11.042,48.18,3.2875,-3.8546,-18.501
-24.445,-22.382,-4.1361,-10.367,-17.3,-7.1796,-23.28,-14.487,31.673,-9.9922,-4.1789,-11.042,48.18,3.2875,-3.8546,-18.501
-24.503,-22.575,-4.1384,-10.423,-17.346,-7.3083,-23.296,-14.468,31.653,-10.066,-4.1864,-11.104,48.246,3.5019,-3.8481,-18.544
-24.503,-22.575,-4.1384,-10.423,-17.346,-7.3083,-23.296,-14.468,31.653,-10.066,-4.1864,-11.104,48.246,3.5019,-3.8481,-18.544
-24.503,-22.575,-4.1384,-10.423,-17.346,-7.3083,-23.296,-14.468,31.653,-10.066,-4.1864,-11.104,48.246,3.5019,-3.8481,-18.544
-24.503,-22.575,-4.1384,-10.423,-17.346,-7.3083,-23.296,-14.468,31.653,-10.066,-4.1864,-11.104,48.246,3.5019,-3.8481,-18.544
-24.62,-22.958,-4.1415,-10.532,-17.437,-7.5641,-23.324,-14.429,31.61,-10.213,-4.1995,-11.224,48.377,3.9295,-3.8332,-18.628
-24.62,-22.958,-4.1415,-10.532,-17.437,-7.5641,-23.324,-14.429,31.61,-10.213,-4.1995,-11.224,48.377,3.9295,-3.8332,-18.628
-24.62,-22.958,-4.1415,-10.532,-17.437,-7.5641,-23.324,-14.429,31.61,-10.213,-4.1995,-11.224,48.377,3.9295,-3.8332,-18.628
-24.735,-23.336,-4.1425,-10.639,-17.526,-7.8177,-23.348,-14.386,31.565,-10.358,-4.2102,-11.341,48.504,4.3556,-3.8159,-18.71
-24.735,-23.336,-4.1425,-10.639,-17.526,-7.8177,-23.348,-14.386,31.565,-10.358,-4.2102,-11.341,48.504,4.3556,-3.8159,-18.71
-24.792,-23.523,-4.1422,-10.692,-17.57,-7.9437,-23.358,-14.364,31.542,-10.429,-4.2146,-11.399,48.567,4.5681,-3.8064,-18.75
-24.792,-23.523,-4.1422,-10.692,-17.57,-7.9437,-23.358,-14.364,31.542,-10.429,-4.2146,-11.399,48.567,4.5681,-3.8064,-18.75
-24.792,-23.523,-4.1422,-10.692,-17.57,-7.9437,-23.358,-14.364,31.542,-10.429,-4.2146,-11.399,48.567,4.5681,-3.8064,-18.75
-24.849,-23.708,-4.1414,-10.743,-17.613,-8.0691,-23.368,-14.34,31.518,-10.5,-4.2184,-11.455,48.629,4.78,-3.7963,-18.789
-24.849,-23.708,-4.1414,-10.743,-17.613,-8.0691,-23.368,-14.34,31.518,-10.5,-4.2184,-11.455,48.629,4.78,-3.7963,-18.789
-24.962,-24.074,-4.1382,-10.845,-17.697,-8.3182,-23.385,-14.291,31.47,-10.64,-4.2243,-11.566,48.749,5.2027,-3.7744,-18.866
-24.962,-24.074,-4.1382,-10.845,-17.697,-8.3182,-23.385,-14.291,31.47,-10.64,-4.2243,-11.566,48.749,5.2027,-3.7744,-18.866
-24.962,-24.074,-4.1382,-10.845,-17.697,-8.3182,-23.385,-14.291,31.47,-10.64,-4.2243,-11.566,48.749,5.2027,-3.7744,-18.866
-25.018,-24.255,-4.1358,-10.894,-17.738,-8.442,-23.392,-14.265,31.445,-10.71,-4.2264,-11.621,48.809,5.4134,-3.7626,-18.904
-25.018,-24.255,-4.1358,-10.894,-17.738,-8.442,-23.392,-14.265,31.445,-10.71,-4.2264,-11.621,48.809,5.4134,-3.7626,-18.904
-25.073,-24.434,-4.1329,-10.943,-17.779,-8.5652,-23.398,-14.238,31.419,-10.778,-4.2278,-11.674,48.867,5.6235,-3.7502,-18.941
-25.073,-24.434,-4.1329,-10.943,-17.779,-8.5652,-23.398,-14.238,31.419,-10.778,-4.2278,-11.674,48.867,5.6235,-3.7502,-18.941
-25.073,-24.434,-4.1329,-10.943,-17.779,-8.5652,-23.398,-14.238,31.419,-10.778,-4.2278,-11.674,48.867,5.6235,-3.7502,-18.941
-25.129,-24.612,-4.1294,-10.991,-17.82,-8.6878,-23.403,-14.211,31.393,-10.846,-4.2287,-11.727,48.925,5.8332,-3.7373,-18.977
-25.129,-24.612,-4.1294,-10.991,-17.82,-8.6878,-23.403,-14.211,31.393,-10.846,-4.2287,-11.727,48.925,5.8332,-3.7373,-18.977
-25.238,-24.964,-4.121,-11.086,-17.898,-8.9313,-23.411,-14.153,31.34,-10.98,-4.2286,-11.83,49.037,6.2511,-3.7097,-19.048
-25.238,-24.964,-4.121,-11.086,-17.898,-8.9313,-23.411,-14.153,31.34,-10.98,-4.2286,-11.83,49.037,6.2511,-3.7097,-19.048
-25.293,-25.138,-4.116,-11.132,-17.937,-9.0522,-23.413,-14.123,31.313,-11.047,-4.2277,-11.881,49.092,6.4593,-3.695,-19.082
-25.293,-25.138,-4.116,-11.132,-17.937,-9.0522,-23.413,-14.123,31.313,-11.047,-4.2277,-11.881,49.092,6.4593,-3.695,-19.082
-25.347,-25.31,-4.1105,-11.177,-17.975,-9.1725,-23.415,-14.092,31.285,-11.112,-4.2261,-11.93,49.146,6.6669,-3.6798,-19.116
-25.347,-25.31,-4.1105,-11.177,-17.975,-9.1725,-23.415,-14.092,31.285,-11.112,-4.2261,-11.93,49.146,6.6669,-3.6798,-19.116
-25.347,-25.31,-4.1105,-11.177,-17.975,-9.1725,-23.415,-14.092,31.285,-11.112,-4.2261,-11.93,49.146,6.6669,-3.6798,-19.116
-25.401,-25.481,-4.1044,-11.222,-18.012,-9.2923,-23.416,-14.06,31.257,-11.178,-4.224,-11.979,49.2,6.8741,-3.6641,-19.149
-25.401,-25.481,-4.1044,-11.222,-18.012,-9.2923,-23.416,-14.06,31.257,-11.178,-4.224,-11.979,49.2,6.8741,-3.6641,-19.149
-25.401,-25.481,-4.1044,-11.222,-18.012,-9.2923,-23.416,-14.06,31.257,-11.178,-4.224,-11.979,49.2,6.8741,-3.6641,-19.149
-25.454,-25.65,-4.0979,-11.266,-18.049,-9.4115,-23.416,-14.028,31.229,-11.242,-4.2213,-12.027,49.252,7.0806,-3.6477,-19.182
-25.454,-25.65,-4.0979,-11.266,-18.049,-9.4115,-23.416,-14.028,31.229,-11.242,-4.2213,-12.027,49.252,7.0806,-3.6477,-19.182
-25.454,-25.65,-4.0979,-11.266,-18.049,-9.4115,-23.416,-14.028,31.229,-11.242,-4.2213,-12.027,49.252,7.0806,-3.6477,-19.182
-25.454,-25.65,-4.0979,-11.266,-18.049,-9.4115,-23.416,-14.028,31.229,-11.242,-4.2213,-12.027,49.252,7.0806,-3.6477,-19.182
-25.56,-25.985,-4.0832,-11.352,-18.121,-9.6481,-23.413,-13.961,31.17,-11.369,-4.2142,-12.121,49.355,7.492,-3.6135,-19.245
-25.56,-25.985,-4.0832,-11.352,-18.121,-9.6481,-23.413,-13.961,31.17,-11.369,-4.2142,-12.121,49.355,7.492,-3.6135,-19.245
-25.664,-26.314,-4.0666,-11.435,-18.191,-9.8825,-23.406,-13.891,31.11,-11.494,-4.2047,-12.212,49.453,7.9011,-3.577,-19.306
-25.664,-26.314,-4.0666,-11.435,-18.191,-9.8825,-23.406,-13.891,31.11,-11.494,-4.2047,-12.212,49.453,7.9011,-3.577,-19.306
-25.664,-26.314,-4.0666,-11.435,-18.191,-9.8825,-23.406,-13.891,31.11,-11.494,-4.2047,-12.212,49.453,7.9011,-3.577,-19.306
-25.664,-26.314,-4.0666,-11.435,-18.191,-9.8825,-23.406,-13.891,31.11,-11.494,-4.2047,-12.212,49.453,7.9011,-3.577,-19.306
-25.716,-26.476,-4.0575,-11.476,-18.225,-9.9988,-23.402,-13.855,31.08,-11.556,-4.1991,-12.256,49.502,8.1048,-3.558,-19.336
-25.716,-26.476,-4.0575,-11.476,-18.225,-9.9988,-23.402,-13.855,31.08,-11.556,-4.1991,-12.256,49.502,8.1048,-3.558,-19.336
-25.716,-26.476,-4.0575,-11.476,-18.225,-9.9988,-23.402,-13.855,31.08,-11.556,-4.1991,-12.256,49.502,8.1048,-3.558,-19.336
-25.767,-26.636,-4.0479,-11.516,-18.258,-10.115,-23.397,-13.818,31.049,-11.617,-4.1929,-12.299,49.549,8.3078,-3.5385,-19.365
-25.818,-26.796,-4.0378,-11.555,-18.291,-10.23,-23.391,-13.78,31.017,-11.677,-4.1862,-12.342,49.595,8.5102,-3.5184,-19.394
-25.818,-26.796,-4.0378,-11.555,-18.291,-10.23,-23.391,-13.78,31.017,-11.677,-4.1862,-12.342,49.595,8.5102,-3.5184,-19.394
-25.869,-26.953,-4.0272,-11.594,-18.323,-10.344,-23.384,-13.742,30.985,-11.737,-4.1788,-12.384,49.641,8.712,-3.4977,-19.421
-25.869,-26.953,-4.0272,-11.594,-18.323,-10.344,-23.384,-13.742,30.985,-11.737,-4.1788,-12.384,49.641,8.712,-3.4977,-19.421
-25.869,-26.953,-4.0272,-11.594,-18.323,-10.344,-23.384,-13.742,30.985,-11.737,-4.1788,-12.384,49.641,8.712,-3.4977,-19.421
-25.869,-26.953,-4.0272,-11.594,-18.323,-10.344,-23.384,-13.742,30.985,-11.737,-4.1788,-12.384,49.641,8.712,-3.4977,-19.421
-25.97,-27.264,-4.0044,-11.669,-18.385,-10.572,-23.368,-13.663,30.92,-11.855,-4.1624,-12.465,49.729,9.1135,-3.4549,-19.475
-25.97,-27.264,-4.0044,-11.669,-18.385,-10.572,-23.368,-13.663,30.92,-11.855,-4.1624,-12.465,49.729,9.1135,-3.4549,-19.475
-25.97,-27.264,-4.0044,-11.669,-18.385,-10.572,-23.368,-13.663,30.92,-11.855,-4.1624,-12.465,49.729,9.1135,-3.4549,-19.475
-26.069,-27.57,-3.9797,-11.741,-18.445,-10.797,-23.348,-13.582,30.854,-11.97,-4.1438,-12.544,49.813,9.5124,-3.41,-19.527
-26.069,-27.57,-3.9797,-11.741,-18.445,-10.797,-23.348,-13.582,30.854,-11.97,-4.1438,-12.544,49.813,9.5124,-3.41,-19.527
-26.069,-27.57,-3.9797,-11.741,-18.445,-10.797,-23.348,-13.582,30.854,-11.97,-4.1438,-12.544,49.813,9.5124,-3.41,-19.527
-26.118,-27.72,-3.9667,-11.776,-18.475,-10.909,-23.337,-13.54,30.82,-12.027,-4.1336,-12.582,49.854,9.7108,-3.3868,-19.552
-26.166,-27.869,-3.9531,-11.811,-18.503,-11.02,-23.325,-13.497,30.786,-12.083,-4.1229,-12.619,49.894,9.9086,-3.3631,-19.576
-26.215,-28.017,-3.939,-11.845,-18.531,-11.13,-23.313,-13.454,30.751,-12.139,-4.1116,-12.656,49.933,10.106,-3.3389,-19.6
-26.215,-28.017,-3.939,-11.845,-18.531,-11.13,-23.313,-13.454,30.751,-12.139,-4.1116,-12.656,49.933,10.106,-3.3389,-19.6
-26.263,-28.163,-3.9245,-11.878,-18.558,-11.24,-23.299,-13.41,30.716,-12.194,-4.0998,-12.691,49.972,10.302,-3.3141,-19.623
-26.263,-28.163,-3.9245,-11.878,-18.558,-11.24,-23.299,-13.41,30.716,-12.194,-4.0998,-12.691,49.972,10.302,-3.3141,-19.623
-26.263,-28.163,-3.9245,-11.878,-18.558,-11.24,-23.299,-13.41,30.716,-12.194,-4.0998,-12.691,49.972,10.302,-3.3141,-19.623
-26.31,-28.307,-3.9095,-11.91,-18.585,-11.35,-23.285,-13.366,30.681,-12.248,-4.0874,-12.726,50.009,10.497,-3.2889,-19.645
-26.31,-28.307,-3.9095,-11.91,-18.585,-11.35,-23.285,-13.366,30.681,-12.248,-4.0874,-12.726,50.009,10.497,-3.2889,-19.645
-26.31,-28.307,-3.9095,-11.91,-18.585,-11.35,-23.285,-13.366,30.681,-12.248,-4.0874,-12.726,50.009,10.497,-3.2889,-19.645
-26.358,-28.451,-3.894,-11.942,-18.611,-11.458,-23.27,-13.321,30.645,-12.302,-4.0744,-12.761,50.045,10.692,-3.2632,-19.667
-26.358,-28.451,-3.894,-11.942,-18.611,-11.458,-23.27,-13.321,30.645,-12.302,-4.0744,-12.761,50.045,10.692,-3.2632,-19.667
-26.451,-28.733,-3.8615,-12.004,-18.661,-11.674,-23.238,-13.228,30.573,-12.408,-4.0469,-12.827,50.115,11.08,-3.2103,-19.71
-26.451,-28.733,-3.8615,-12.004,-18.661,-11.674,-23.238,-13.228,30.573,-12.408,-4.0469,-12.827,50.115,11.08,-3.2103,-19.71
-26.451,-28.733,-3.8615,-12.004,-18.661,-11.674,-23.238,-13.228,30.573,-12.408,-4.0469,-12.827,50.115,11.08,-3.2103,-19.71
-26.451,-28.733,-3.8615,-12.004,-18.661,-11.674,-23.238,-13.228,30.573,-12.408,-4.0469,-12.827,50.115,11.08,-3.2103,-19.71
-26.497,-28.871,-3.8446,-12.034,-18.685,-11.781,-23.221,-13.181,30.536,-12.46,-4.0324,-12.859,50.149,11.272,-3.1831,-19.73
-26.497,-28.871,-3.8446,-12.034,-18.685,-11.781,-23.221,-13.181,30.536,-12.46,-4.0324,-12.859,50.149,11.272,-3.1831,-19.73
-26.589,-29.145,-3.8094,-12.092,-18.731,-11.994,-23.184,-13.085,30.461,-12.562,-4.0016,-12.921,50.213,11.655,-3.1272,-19.769
-26.589,-29.145,-3.8094,-12.092,-18.731,-11.994,-23.184,-13.085,30.461,-12.562,-4.0016,-12.921,50.213,11.655,-3.1272,-19.769
-26.589,-29.145,-3.8094,-12.092,-18.731,-11.994,-23.184,-13.085,30.461,-12.562,-4.0016,-12.921,50.213,11.655,-3.1272,-19.769
-26.589,-29.145,-3.8094,-12.092,-18.731,-11.994,-23.184,-13.085,30.461,-12.562,-4.0016,-12.921,50.213,11.655,-3.1272,-19.769
-26.634,-29.279,-3.7911,-12.12,-18.754,-12.099,-23.165,-13.037,30.423,-12.612,-3.9854,-12.95,50.244,11.845,-3.0986,-19.788
-26.634,-29.279,-3.7911,-12.12,-18.754,-12.099,-23.165,-13.037,30.423,-12.612,-3.9854,-12.95,50.244,11.845,-3.0986,-19.788
-26.634,-29.279,-3.7911,-12.12,-18.754,-12.099,-23.165,-13.037,30.423,-12.612,-3.9854,-12.95,50.244,11.845,-3.0986,-19.788
-26.723,-29.544,-3.7531,-12.174,-18.796,-12.308,-23.123,-12.937,30.347,-12.71,-3.9515,-13.008,50.302,12.223,-3.04,-19.823
-26.723,-29.544,-3.7531,-12.174,-18.796,-12.308,-23.123,-12.937,30.347,-12.71,-3.9515,-13.008,50.302,12.223,-3.04,-19.823
-26.767,-29.674,-3.7335,-12.2,-18.816,-12.412,-23.102,-12.886,30.308,-12.759,-3.9337,-13.035,50.33,12.41,-3.01,-19.84
-26.767,-29.674,-3.7335,-12.2,-18.816,-12.412,-23.102,-12.886,30.308,-12.759,-3.9337,-13.035,50.33,12.41,-3.01,-19.84
-26.767,-29.674,-3.7335,-12.2,-18.816,-12.412,-23.102,-12.886,30.308,-12.759,-3.9337,-13.035,50.33,12.41,-3.01,-19.84
-26.811,-29.802,-3.7134,-12.225,-18.836,-12.515,-23.079,-12.835,30.269,-12.807,-3.9155,-13.062,50.357,12.597,-2.9795,-19.856
-26.855,-29.93,-3.6928,-12.25,-18.855,-12.618,-23.056,-12.784,30.229,-12.854,-3.8967,-13.088,50.383,12.783,-2.9486,-19.872
-26.898,-30.055,-3.6718,-12.274,-18.873,-12.72,-23.032,-12.731,30.189,-12.9,-3.8774,-13.114,50.408,12.968,-2.9172,-19.888
-26.898,-30.055,-3.6718,-12.274,-18.873,-12.72,-23.032,-12.731,30.189,-12.9,-3.8774,-13.114,50.408,12.968,-2.9172,-19.888
-26.898,-30.055,-3.6718,-12.274,-18.873,-12.72,-23.032,-12.731,30.189,-12.9,-3.8774,-13.114,50.408,12.968,-2.9172,-19.888
-26.94,-30.18,-3.6504,-12.297,-18.891,-12.821,-23.008,-12.678,30.149,-12.946,-3.8576,-13.138,50.432,13.153,-2.8854,-19.902
-26.94,-30.18,-3.6504,-12.297,-18.891,-12.821,-23.008,-12.678,30.149,-12.946,-3.8576,-13.138,50.432,13.153,-2.8854,-19.902
-26.982,-30.302,-3.6286,-12.32,-18.908,-12.922,-22.983,-12.625,30.108,-12.992,-3.8373,-13.162,50.455,13.336,-2.8531,-19.917
-26.982,-30.302,-3.6286,-12.32,-18.908,-12.922,-22.983,-12.625,30.108,-12.992,-3.8373,-13.162,50.455,13.336,-2.8531,-19.917
-26.982,-30.302,-3.6286,-12.32,-18.908,-12.922,-22.983,-12.625,30.108,-12.992,-3.8373,-13.162,50.455,13.336,-2.8531,-19.917
-27.024,-30.424,-3.6063,-12.342,-18.924,-13.022,-22.957,-12.571,30.067,-13.037,-3.8164,-13.186,50.477,13.518,-2.8204,-19.93
-27.066,-30.544,-3.5836,-12.364,-18.94,-13.122,-22.93,-12.517,30.026,-13.081,-3.7951,-13.208,50.498,13.7,-2.7872,-19.944
-27.066,-30.544,-3.5836,-12.364,-18.94,-13.122,-22.93,-12.517,30.026,-13.081,-3.7951,-13.208,50.498,13.7,-2.7872,-19.944
-27.107,-30.662,-3.5605,-12.385,-18.955,-13.221,-22.903,-12.462,29.984,-13.124,-3.7733,-13.23,50.519,13.881,-2.7537,-19.956
-27.107,-30.662,-3.5605,-12.385,-18.955,-13.221,-22.903,-12.462,29.984,-13.124,-3.7733,-13.23,50.519,13.881,-2.7537,-19.956
-27.148,-30.78,-3.537,-12.406,-18.97,-13.32,-22.875,-12.407,29.942,-13.167,-3.751,-13.251,50.538,14.06,-2.7197,-19.968
-27.148,-30.78,-3.537,-12.406,-18.97,-13.32,-22.875,-12.407,29.942,-13.167,-3.751,-13.251,50.538,14.06,-2.7197,-19.968
-27.148,-30.78,-3.537,-12.406,-18.97,-13.32,-22.875,-12.407,29.942,-13.167,-3.751,-13.251,50.538,14.06,-2.7197,-19.968
-27.188,-30.895,-3.513,-12.425,-18.983,-13.418,-22.847,-12.351,29.9,-13.21,-3.7282,-13.271,50.556,14.239,-2.6852,-19.98
-27.188,-30.895,-3.513,-12.425,-18.983,-13.418,-22.847,-12.351,29.9,-13.21,-3.7282,-13.271,50.556,14.239,-2.6852,-19.98
-27.229,-31.01,-3.4887,-12.445,-18.996,-13.515,-22.818,-12.294,29.858,-13.252,-3.705,-13.291,50.573,14.417,-2.6504,-19.991
-27.229,-31.01,-3.4887,-12.445,-18.996,-13.515,-22.818,-12.294,29.858,-13.252,-3.705,-13.291,50.573,14.417,-2.6504,-19.991
-27.268,-31.123,-3.4639,-12.463,-19.009,-13.612,-22.788,-12.237,29.815,-13.293,-3.6812,-13.31,50.59,14.594,-2.6151,-20.001
-27.268,-31.123,-3.4639,-12.463,-19.009,-13.612,-22.788,-12.237,29.815,-13.293,-3.6812,-13.31,50.59,14.594,-2.6151,-20.001
-27.308,-31.234,-3.4388,-12.481,-19.02,-13.709,-22.758,-12.18,29.772,-13.334,-3.657,-13.328,50.605,14.77,-2.5795,-20.012
-27.308,-31.234,-3.4388,-12.481,-19.02,-13.709,-22.758,-12.18,29.772,-13.334,-3.657,-13.328,50.605,14.77,-2.5795,-20.012
-27.385,-31.453,-3.3873,-12.515,-19.042,-13.9,-22.695,-12.064,29.685,-13.413,-3.6071,-13.363,50.633,15.119,-2.5069,-20.03
-27.385,-31.453,-3.3873,-12.515,-19.042,-13.9,-22.695,-12.064,29.685,-13.413,-3.6071,-13.363,50.633,15.119,-2.5069,-20.03
-27.385,-31.453,-3.3873,-12.515,-19.042,-13.9,-22.695,-12.064,29.685,-13.413,-3.6071,-13.363,50.633,15.119,-2.5069,-20.03
-27.385,-31.453,-3.3873,-12.515,-19.042,-13.9,-22.695,-12.064,29.685,-13.413,-3.6071,-13.363,50.633,15.119,-2.5069,-20.03
-27.423,-31.56,-3.361,-12.532,-19.052,-13.995,-22.663,-12.005,29.64,-13.452,-3.5815,-13.379,50.645,15.292,-2.47,-20.039
-27.423,-31.56,-3.361,-12.532,-19.052,-13.995,-22.663,-12.005,29.64,-13.452,-3.5815,-13.379,50.645,15.292,-2.47,-20.039
-27.423,-31.56,-3.361,-12.532,-19.052,-13.995,-22.663,-12.005,29.64,-13.452,-3.5815,-13.379,50.645,15.292,-2.47,-20.039
-27.423,-31.56,-3.361,-12.532,-19.052,-13.995,-22.663,-12.005,29.64,-13.452,-3.5815,-13.379,50.645,15.292,-2.47,-20.039
-27.499,-31.77,-3.3072,-12.562,-19.069,-14.183,-22.596,-11.887,29.551,-13.528,-3.5289,-13.41,50.667,15.635,-2.3951,-20.054
-27.499,-31.77,-3.3072,-12.562,-19.069,-14.183,-22.596,-11.887,29.551,-13.528,-3.5289,-13.41,50.667,15.635,-2.3951,-20.054
-27.573,-31.975,-3.2519,-12.591,-19.084,-14.369,-22.527,-11.767,29.461,-13.602,-3.4745,-13.438,50.685,15.974,-2.3187,-20.068
-27.573,-31.975,-3.2519,-12.591,-19.084,-14.369,-22.527,-11.767,29.461,-13.602,-3.4745,-13.438,50.685,15.974,-2.3187,-20.068
-27.573,-31.975,-3.2519,-12.591,-19.084,-14.369,-22.527,-11.767,29.461,-13.602,-3.4745,-13.438,50.685,15.974,-2.3187,-20.068
-27.573,-31.975,-3.2519,-12.591,-19.084,-14.369,-22.527,-11.767,29.461,-13.602,-3.4745,-13.438,50.685,15.974,-2.3187,-20.068
-27.609,-32.075,-3.2238,-12.604,-19.09,-14.461,-22.492,-11.706,29.416,-13.638,-3.4466,-13.451,50.692,16.142,-2.2799,-20.074
-27.609,-32.075,-3.2238,-12.604,-19.09,-14.461,-22.492,-11.706,29.416,-13.638,-3.4466,-13.451,50.692,16.142,-2.2799,-20.074
-27.645,-32.174,-3.1952,-12.617,-19.096,-14.553,-22.456,-11.645,29.37,-13.673,-3.4183,-13.463,50.699,16.309,-2.2407,-20.079
-27.645,-32.174,-3.1952,-12.617,-19.096,-14.553,-22.456,-11.645,29.37,-13.673,-3.4183,-13.463,50.699,16.309,-2.2407,-20.079
-27.681,-32.271,-3.1664,-12.629,-19.1,-14.644,-22.42,-11.583,29.324,-13.708,-3.3895,-13.475,50.704,16.475,-2.2012,-20.084
-27.681,-32.271,-3.1664,-12.629,-19.1,-14.644,-22.42,-11.583,29.324,-13.708,-3.3895,-13.475,50.704,16.475,-2.2012,-20.084
-27.681,-32.271,-3.1664,-12.629,-19.1,-14.644,-22.42,-11.583,29.324,-13.708,-3.3895,-13.475,50.704,16.475,-2.2012,-20.084
-27.751,-32.462,-3.1076,-12.652,-19.108,-14.825,-22.346,-11.459,29.231,-13.776,-3.3307,-13.496,50.712,16.804,-2.121,-20.093
-27.751,-32.462,-3.1076,-12.652,-19.108,-14.825,-22.346,-11.459,29.231,-13.776,-3.3307,-13.496,50.712,16.804,-2.121,-20.093
-27.785,-32.555,-3.0777,-12.663,-19.111,-14.914,-22.308,-11.397,29.184,-13.809,-3.3007,-13.506,50.715,16.967,-2.0804,-20.097
-27.785,-32.555,-3.0777,-12.663,-19.111,-14.914,-22.308,-11.397,29.184,-13.809,-3.3007,-13.506,50.715,16.967,-2.0804,-20.097
-27.82,-32.647,-3.0474,-12.673,-19.113,-15.003,-22.269,-11.334,29.136,-13.842,-3.2703,-13.515,50.716,17.128,-2.0394,-20.1
-27.82,-32.647,-3.0474,-12.673,-19.113,-15.003,-22.269,-11.334,29.136,-13.842,-3.2703,-13.515,50.716,17.128,-2.0394,-20.1
-27.853,-32.738,-3.0169,-12.682,-19.115,-15.092,-22.23,-11.27,29.089,-13.874,-3.2394,-13.523,50.717,17.289,-1.9981,-20.103
-27.853,-32.738,-3.0169,-12.682,-19.115,-15.092,-22.23,-11.27,29.089,-13.874,-3.2394,-13.523,50.717,17.289,-1.9981,-20.103
-27.853,-32.738,-3.0169,-12.682,-19.115,-15.092,-22.23,-11.27,29.089,-13.874,-3.2394,-13.523,50.717,17.289,-1.9981,-20.103
-27.887,-32.827,-2.986,-12.691,-19.116,-15.18,-22.191,-11.207,29.041,-13.906,-3.2082,-13.531,50.716,17.449,-1.9565,-20.105
-27.887,-32.827,-2.986,-12.691,-19.116,-15.18,-22.191,-11.207,29.041,-13.906,-3.2082,-13.531,50.716,17.449,-1.9565,-20.105
-27.887,-32.827,-2.986,-12.691,-19.116,-15.18,-22.191,-11.207,29.041,-13.906,-3.2082,-13.531,50.716,17.449,-1.9565,-20.105
-27.952,-33.002,-2.9233,-12.707,-19.115,-15.355,-22.11,-11.079,28.945,-13.967,-3.1445,-13.545,50.713,17.764,-1.8722,-20.108
-27.952,-33.002,-2.9233,-12.707,-19.115,-15.355,-22.11,-11.079,28.945,-13.967,-3.1445,-13.545,50.713,17.764,-1.8722,-20.108
-27.985,-33.087,-2.8915,-12.714,-19.114,-15.441,-22.069,-11.014,28.896,-13.997,-3.112,-13.551,50.709,17.921,-1.8295,-20.109
-27.985,-33.087,-2.8915,-12.714,-19.114,-15.441,-22.069,-11.014,28.896,-13.997,-3.112,-13.551,50.709,17.921,-1.8295,-20.109
-27.985,-33.087,-2.8915,-12.714,-19.114,-15.441,-22.069,-11.014,28.896,-13.997,-3.112,-13.551,50.709,17.921,-1.8295,-20.109
-28.017,-33.171,-2.8594,-12.721,-19.112,-15.527,-22.027,-10.95,28.847,-14.026,-3.0792,-13.556,50.705,18.076,-1.7865,-20.11
-28.017,-33.171,-2.8594,-12.721,-19.112,-15.527,-22.027,-10.95,28.847,-14.026,-3.0792,-13.556,50.705,18.076,-1.7865,-20.11
-28.017,-33.171,-2.8594,-12.721,-19.112,-15.527,-22.027,-10.95,28.847,-14.026,-3.0792,-13.556,50.705,18.076,-1.7865,-20.11
-28.079,-33.334,-2.7943,-12.733,-19.106,-15.698,-21.943,-10.819,28.749,-14.083,-3.0124,-13.565,50.693,18.382,-1.6997,-20.11
-28.11,-33.414,-2.7613,-12.739,-19.102,-15.783,-21.9,-10.754,28.699,-14.111,-2.9784,-13.568,50.686,18.534,-1.6557,-20.109
-28.11,-33.414,-2.7613,-12.739,-19.102,-15.783,-21.9,-10.754,28.699,-14.111,-2.9784,-13.568,50.686,18.534,-1.6557,-20.109
-28.14,-33.493,-2.728,-12.743,-19.098,-15.867,-21.857,-10.688,28.649,-14.138,-2.9441,-13.571,50.677,18.685,-1.6115,-20.108
-28.14,-33.493,-2.728,-12.743,-19.098,-15.867,-21.857,-10.688,28.649,-14.138,-2.9441,-13.571,50.677,18.685,-1.6115,-20.108
-28.14,-33.493,-2.728,-12.743,-19.098,-15.867,-21.857,-10.688,28.649,-14.138,-2.9441,-13.571,50.677,18.685,-1.6115,-20.108
-28.14,-33.493,-2.728,-12.743,-19.098,-15.867,-21.857,-10.688,28.649,-14.138,-2.9441,-13.571,50.677,18.685,-1.6115,-20.108
-28.17,-33.57,-2.6945,-12.747,-19.092,-15.95,-21.813,-10.622,28.599,-14.164,-2.9094,-13.574,50.668,18.834,-1.567,-20.106
-28.17,-33.57,-2.6945,-12.747,-19.092,-15.95,-21.813,-10.622,28.599,-14.164,-2.9094,-13.574,50.668,18.834,-1.567,-20.106
-28.2,-33.646,-2.6607,-12.751,-19.086,-16.034,-21.769,-10.555,28.549,-14.19,-2.8743,-13.576,50.658,18.982,-1.5222,-20.104
-28.2,-33.646,-2.6607,-12.751,-19.086,-16.034,-21.769,-10.555,28.549,-14.19,-2.8743,-13.576,50.658,18.982,-1.5222,-20.104
-28.2,-33.646,-2.6607,-12.751,-19.086,-16.034,-21.769,-10.555,28.549,-14.19,-2.8743,-13.576,50.658,18.982,-1.5222,-20.104
-28.258,-33.794,-2.5924,-12.757,-19.072,-16.199,-21.679,-10.422,28.447,-14.241,-2.8032,-13.577,50.634,19.275,-1.4317,-20.099
-28.258,-33.794,-2.5924,-12.757,-19.072,-16.199,-21.679,-10.422,28.447,-14.241,-2.8032,-13.577,50.634,19.275,-1.4317,-20.099
-28.286,-33.865,-2.5578,-12.759,-19.064,-16.28,-21.634,-10.355,28.396,-14.265,-2.7671,-13.578,50.621,19.42,-1.386,-20.095
-28.286,-33.865,-2.5578,-12.759,-19.064,-16.28,-21.634,-10.355,28.396,-14.265,-2.7671,-13.578,50.621,19.42,-1.386,-20.095
-28.286,-33.865,-2.5578,-12.759,-19.064,-16.28,-21.634,-10.355,28.396,-14.265,-2.7671,-13.578,50.621,19.42,-1.386,-20.095
-28.315,-33.936,-2.523,-12.761,-19.055,-16.362,-21.588,-10.288,28.344,-14.289,-2.7307,-13.577,50.606,19.564,-1.3401,-20.092
-28.315,-33.936,-2.523,-12.761,-19.055,-16.362,-21.588,-10.288,28.344,-14.289,-2.7307,-13.577,50.606,19.564,-1.3401,-20.092
-28.37,-34.074,-2.4527,-12.763,-19.035,-16.523,-21.495,-10.153,28.241,-14.335,-2.6568,-13.574,50.575,19.847,-1.2474,-20.083
-28.37,-34.074,-2.4527,-12.763,-19.035,-16.523,-21.495,-10.153,28.241,-14.335,-2.6568,-13.574,50.575,19.847,-1.2474,-20.083
-28.37,-34.074,-2.4527,-12.763,-19.035,-16.523,-21.495,-10.153,28.241,-14.335,-2.6568,-13.574,50.575,19.847,-1.2474,-20.083
-28.397,-34.14,-2.4172,-12.763,-19.024,-16.603,-21.448,-10.085,28.189,-14.358,-2.6194,-13.572,50.558,19.987,-1.2006,-20.078
-28.397,-34.14,-2.4172,-12.763,-19.024,-16.603,-21.448,-10.085,28.189,-14.358,-2.6194,-13.572,50.558,19.987,-1.2006,-20.078
-28.397,-34.14,-2.4172,-12.763,-19.024,-16.603,-21.448,-10.085,28.189,-14.358,-2.6194,-13.572,50.558,19.987,-1.2006,-20.078
-28.423,-34.206,-2.3815,-12.763,-19.012,-16.683,-21.4,-10.017,28.136,-14.38,-2.5817,-13.57,50.539,20.126,-1.1536,-20.073
-28.449,-34.27,-2.3455,-12.763,-19,-16.762,-21.353,-9.9494,28.083,-14.401,-2.5436,-13.567,50.52,20.263,-1.1064,-20.067
-28.449,-34.27,-2.3455,-12.763,-19,-16.762,-21.353,-9.9494,28.083,-14.401,-2.5436,-13.567,50.52,20.263,-1.1064,-20.067
-28.475,-34.333,-2.3094,-12.762,-18.987,-16.84,-21.304,-9.8812,28.031,-14.422,-2.5053,-13.563,50.5,20.4,-1.0589,-20.061
-28.475,-34.333,-2.3094,-12.762,-18.987,-16.84,-21.304,-9.8812,28.031,-14.422,-2.5053,-13.563,50.5,20.4,-1.0589,-20.061
-28.475,-34.333,-2.3094,-12.762,-18.987,-16.84,-21.304,-9.8812,28.031,-14.422,-2.5053,-13.563,50.5,20.4,-1.0589,-20.061
-28.501,-34.395,-2.2731,-12.76,-18.973,-16.918,-21.256,-9.8129,27.977,-14.442,-2.4666,-13.559,50.479,20.535,-1.0111,-20.055
-28.501,-34.395,-2.2731,-12.76,-18.973,-16.918,-21.256,-9.8129,27.977,-14.442,-2.4666,-13.559,50.479,20.535,-1.0111,-20.055
-28.501,-34.395,-2.2731,-12.76,-18.973,-16.918,-21.256,-9.8129,27.977,-14.442,-2.4666,-13.559,50.479,20.535,-1.0111,-20.055
-28.55,-34.515,-2.1998,-12.756,-18.943,-17.074,-21.158,-9.6759,27.87,-14.481,-2.3884,-13.549,50.433,20.801,-0.91489,-20.041
-28.55,-34.515,-2.1998,-12.756,-18.943,-17.074,-21.158,-9.6759,27.87,-14.481,-2.3884,-13.549,50.433,20.801,-0.91489,-20.041
-28.55,-34.515,-2.1998,-12.756,-18.943,-17.074,-21.158,-9.6759,27.87,-14.481,-2.3884,-13.549,50.433,20.801,-0.91489,-20.041
-28.575,-34.573,-2.1629,-12.753,-18.927,-17.151,-21.109,-9.6073,27.817,-14.5,-2.3489,-13.543,50.409,20.932,-0.86644,-20.033
-28.575,-34.573,-2.1629,-12.753,-18.927,-17.151,-21.109,-9.6073,27.817,-14.5,-2.3489,-13.543,50.409,20.932,-0.86644,-20.033
-28.575,-34.573,-2.1629,-12.753,-18.927,-17.151,-21.109,-9.6073,27.817,-14.5,-2.3489,-13.543,50.409,20.932,-0.86644,-20.033
-28.599,-34.63,-2.1258,-12.749,-18.911,-17.227,-21.059,-9.5385,27.763,-14.518,-2.3091,-13.536,50.384,21.062,-0.81776,-20.026
-28.599,-34.63,-2.1258,-12.749,-18.911,-17.227,-21.059,-9.5385,27.763,-14.518,-2.3091,-13.536,50.384,21.062,-0.81776,-20.026
-28.622,-34.685,-2.0885,-12.746,-18.893,-17.303,-21.009,-9.4697,27.708,-14.536,-2.269,-13.53,50.358,21.191,-0.76885,-20.017
-28.622,-34.685,-2.0885,-12.746,-18.893,-17.303,-21.009,-9.4697,27.708,-14.536,-2.269,-13.53,50.358,21.191,-0.76885,-20.017
-28.668,-34.793,-2.0135,-12.737,-18.857,-17.454,-20.908,-9.3318,27.599,-14.571,-2.188,-13.515,50.303,21.445,-0.67041,-20
-28.668,-34.793,-2.0135,-12.737,-18.857,-17.454,-20.908,-9.3318,27.599,-14.571,-2.188,-13.515,50.303,21.445,-0.67041,-20
-28.691,-34.845,-1.9758,-12.732,-18.837,-17.529,-20.857,-9.2627,27.544,-14.587,-2.1472,-13.506,50.274,21.57,-0.62087,-19.991
-28.691,-34.845,-1.9758,-12.732,-18.837,-17.529,-20.857,-9.2627,27.544,-14.587,-2.1472,-13.506,50.274,21.57,-0.62087,-19.991
-28.713,-34.895,-1.9379,-12.726,-18.817,-17.603,-20.806,-9.1936,27.489,-14.603,-2.106,-13.498,50.244,21.694,-0.57114,-19.981
-28.713,-34.895,-1.9379,-12.726,-18.817,-17.603,-20.806,-9.1936,27.489,-14.603,-2.106,-13.498,50.244,21.694,-0.57114,-19.981
-28.734,-34.945,-1.8998,-12.721,-18.797,-17.677,-20.755,-9.1244,27.433,-14.618,-2.0647,-13.488,50.213,21.816,-0.5212,-19.971
-28.734,-34.945,-1.8998,-12.721,-18.797,-17.677,-20.755,-9.1244,27.433,-14.618,-2.0647,-13.488,50.213,21.816,-0.5212,-19.971
-28.755,-34.993,-1.8617,-12.714,-18.775,-17.751,-20.703,-9.0552,27.378,-14.633,-2.023,-13.479,50.181,21.938,-0.47108,-19.961
-28.755,-34.993,-1.8617,-12.714,-18.775,-17.751,-20.703,-9.0552,27.378,-14.633,-2.023,-13.479,50.181,21.938,-0.47108,-19.961
-28.776,-35.04,-1.8234,-12.708,-18.753,-17.824,-20.651,-8.986,27.322,-14.648,-1.9812,-13.469,50.149,22.058,-0.42077,-19.951
-28.776,-35.04,-1.8234,-12.708,-18.753,-17.824,-20.651,-8.986,27.322,-14.648,-1.9812,-13.469,50.149,22.058,-0.42077,-19.951
-28.797,-35.086,-1.7849,-12.7,-18.73,-17.897,-20.599,-8.9168,27.266,-14.662,-1.9391,-13.458,50.115,22.176,-0.37028,-19.94
-28.797,-35.086,-1.7849,-12.7,-18.73,-17.897,-20.599,-8.9168,27.266,-14.662,-1.9391,-13.458,50.115,22.176,-0.37028,-19.94
-28.797,-35.086,-1.7849,-12.7,-18.73,-17.897,-20.599,-8.9168,27.266,-14.662,-1.9391,-13.458,50.115,22.176,-0.37028,-19.94
-28.837,-35.175,-1.7077,-12.685,-18.682,-18.042,-20.494,-8.7782,27.153,-14.689,-1.8542,-13.435,50.044,22.41,-0.26877,-19.917
-28.837,-35.175,-1.7077,-12.685,-18.682,-18.042,-20.494,-8.7782,27.153,-14.689,-1.8542,-13.435,50.044,22.41,-0.26877,-19.917
-28.837,-35.175,-1.7077,-12.685,-18.682,-18.042,-20.494,-8.7782,27.153,-14.689,-1.8542,-13.435,50.044,22.41,-0.26877,-19.917
-28.837,-35.175,-1.7077,-12.685,-18.682,-18.042,-20.494,-8.7782,27.153,-14.689,-1.8542,-13.435,50.044,22.41,-0.26877,-19.917
-28.856,-35.217,-1.669,-12.677,-18.657,-18.113,-20.441,-8.709,27.096,-14.701,-1.8115,-13.424,50.008,22.524,-0.21776,-19.906
-28.856,-35.217,-1.669,-12.677,-18.657,-18.113,-20.441,-8.709,27.096,-14.701,-1.8115,-13.424,50.008,22.524,-0.21776,-19.906
-28.856,-35.217,-1.669,-12.677,-18.657,-18.113,-20.441,-8.709,27.096,-14.701,-1.8115,-13.424,50.008,22.524,-0.21776,-19.906
-28.894,-35.299,-1.5912,-12.659,-18.605,-18.256,-20.335,-8.5705,26.982,-14.725,-1.7254,-13.398,49.932,22.75,-0.11525,-19.881
-28.894,-35.299,-1.5912,-12.659,-18.605,-18.256,-20.335,-8.5705,26.982,-14.725,-1.7254,-13.398,49.932,22.75,-0.11525,-19.881
-28.912,-35.338,-1.5522,-12.65,-18.578,-18.326,-20.282,-8.5013,26.924,-14.737,-1.682,-13.385,49.892,22.86,-0.063769,-19.868
-28.93,-35.375,-1.513,-12.64,-18.55,-18.396,-20.228,-8.4322,26.867,-14.747,-1.6384,-13.372,49.852,22.97,-0.012138,-19.856
-28.93,-35.375,-1.513,-12.64,-18.55,-18.396,-20.228,-8.4322,26.867,-14.747,-1.6384,-13.372,49.852,22.97,-0.012138,-19.856
-28.93,-35.375,-1.513,-12.64,-18.55,-18.396,-20.228,-8.4322,26.867,-14.747,-1.6384,-13.372,49.852,22.97,-0.012138,-19.856
-28.947,-35.412,-1.4738,-12.63,-18.522,-18.466,-20.174,-8.3631,26.809,-14.758,-1.5947,-13.358,49.81,23.078,0.039638,-19.842
-28.947,-35.412,-1.4738,-12.63,-18.522,-18.466,-20.174,-8.3631,26.809,-14.758,-1.5947,-13.358,49.81,23.078,0.039638,-19.842
-28.964,-35.448,-1.4346,-12.619,-18.493,-18.536,-20.121,-8.2941,26.751,-14.768,-1.5508,-13.343,49.768,23.185,0.091552,-19.829
-28.964,-35.448,-1.4346,-12.619,-18.493,-18.536,-20.121,-8.2941,26.751,-14.768,-1.5508,-13.343,49.768,23.185,0.091552,-19.829
-28.981,-35.482,-1.3953,-12.609,-18.463,-18.605,-20.067,-8.2251,26.692,-14.777,-1.5067,-13.328,49.725,23.29,0.1436,-19.815
-28.981,-35.482,-1.3953,-12.609,-18.463,-18.605,-20.067,-8.2251,26.692,-14.777,-1.5067,-13.328,49.725,23.29,0.1436,-19.815
-28.981,-35.482,-1.3953,-12.609,-18.463,-18.605,-20.067,-8.2251,26.692,-14.777,-1.5067,-13.328,49.725,23.29,0.1436,-19.815
-28.981,-35.482,-1.3953,-12.609,-18.463,-18.605,-20.067,-8.2251,26.692,-14.777,-1.5067,-13.328,49.725,23.29,0.1436,-19.815
-29.014,-35.548,-1.3165,-12.586,-18.401,-18.742,-19.958,-8.0874,26.575,-14.795,-1.4179,-13.297,49.635,23.497,0.24808,-19.787
-29.014,-35.548,-1.3165,-12.586,-18.401,-18.742,-19.958,-8.0874,26.575,-14.795,-1.4179,-13.297,49.635,23.497,0.24808,-19.787
-29.014,-35.548,-1.3165,-12.586,-18.401,-18.742,-19.958,-8.0874,26.575,-14.795,-1.4179,-13.297,49.635,23.497,0.24808,-19.787
-29.029,-35.579,-1.277,-12.574,-18.369,-18.81,-19.904,-8.0187,26.516,-14.804,-1.3733,-13.281,49.589,23.599,0.3005,-19.772
-29.029,-35.579,-1.277,-12.574,-18.369,-18.81,-19.904,-8.0187,26.516,-14.804,-1.3733,-13.281,49.589,23.599,0.3005,-19.772
-29.044,-35.609,-1.2375,-12.562,-18.337,-18.878,-19.849,-7.9501,26.457,-14.811,-1.3286,-13.265,49.542,23.699,0.35304,-19.758
-29.059,-35.638,-1.1979,-12.549,-18.303,-18.946,-19.794,-7.8816,26.398,-14.819,-1.2837,-13.248,49.495,23.798,0.40568,-19.743
-29.059,-35.638,-1.1979,-12.549,-18.303,-18.946,-19.794,-7.8816,26.398,-14.819,-1.2837,-13.248,49.495,23.798,0.40568,-19.743
-29.059,-35.638,-1.1979,-12.549,-18.303,-18.946,-19.794,-7.8816,26.398,-14.819,-1.2837,-13.248,49.495,23.798,0.40568,-19.743
-29.074,-35.666,-1.1584,-12.536,-18.269,-19.013,-19.74,-7.8132,26.338,-14.826,-1.2386,-13.231,49.446,23.895,0.45844,-19.727
-29.074,-35.666,-1.1584,-12.536,-18.269,-19.013,-19.74,-7.8132,26.338,-14.826,-1.2386,-13.231,49.446,23.895,0.45844,-19.727
-29.074,-35.666,-1.1584,-12.536,-18.269,-19.013,-19.74,-7.8132,26.338,-14.826,-1.2386,-13.231,49.446,23.895,0.45844,-19.727
-29.101,-35.718,-1.0792,-12.51,-18.199,-19.146,-19.63,-7.6768,26.219,-14.839,-1.1481,-13.196,49.345,24.086,0.56424,-19.696
-29.101,-35.718,-1.0792,-12.51,-18.199,-19.146,-19.63,-7.6768,26.219,-14.839,-1.1481,-13.196,49.345,24.086,0.56424,-19.696
-29.115,-35.743,-1.0396,-12.496,-18.163,-19.212,-19.575,-7.6088,26.158,-14.845,-1.1026,-13.177,49.294,24.179,0.61727,-19.68
-29.115,-35.743,-1.0396,-12.496,-18.163,-19.212,-19.575,-7.6088,26.158,-14.845,-1.1026,-13.177,49.294,24.179,0.61727,-19.68
-29.128,-35.766,-0.99999,-12.482,-18.127,-19.278,-19.52,-7.5409,26.098,-14.85,-1.057,-13.159,49.241,24.271,0.6704,-19.664
-29.128,-35.766,-0.99999,-12.482,-18.127,-19.278,-19.52,-7.5409,26.098,-14.85,-1.057,-13.159,49.241,24.271,0.6704,-19.664
-29.128,-35.766,-0.99999,-12.482,-18.127,-19.278,-19.52,-7.5409,26.098,-14.85,-1.057,-13.159,49.241,24.271,0.6704,-19.664
-29.14,-35.789,-0.96039,-12.467,-18.089,-19.343,-19.465,-7.4733,26.038,-14.855,-1.0113,-13.14,49.188,24.362,0.72361,-19.647
-29.14,-35.789,-0.96039,-12.467,-18.089,-19.343,-19.465,-7.4733,26.038,-14.855,-1.0113,-13.14,49.188,24.362,0.72361,-19.647
-29.153,-35.81,-0.9208,-12.452,-18.051,-19.408,-19.41,-7.4057,25.977,-14.86,-0.96553,-13.121,49.134,24.451,0.77689,-19.631
-29.164,-35.831,-0.88123,-12.437,-18.012,-19.473,-19.354,-7.3384,25.916,-14.864,-0.91961,-13.101,49.079,24.539,0.83024,-19.614
-29.164,-35.831,-0.88123,-12.437,-18.012,-19.473,-19.354,-7.3384,25.916,-14.864,-0.91961,-13.101,49.079,24.539,0.83024,-19.614
-29.164,-35.831,-0.88123,-12.437,-18.012,-19.473,-19.354,-7.3384,25.916,-14.864,-0.91961,-13.101,49.079,24.539,0.83024,-19.614
-29.176,-35.85,-0.84168,-12.422,-17.973,-19.538,-19.299,-7.2712,25.855,-14.868,-0.8736,-13.081,49.023,24.625,0.88367,-19.597
-29.176,-35.85,-0.84168,-12.422,-17.973,-19.538,-19.299,-7.2712,25.855,-14.868,-0.8736,-13.081,49.023,24.625,0.88367,-19.597
-29.198,-35.886,-0.76267,-12.39,-17.892,-19.666,-19.188,-7.1375,25.732,-14.875,-0.78128,-13.04,48.908,24.794,0.9907,-19.562
-29.198,-35.886,-0.76267,-12.39,-17.892,-19.666,-19.188,-7.1375,25.732,-14.875,-0.78128,-13.04,48.908,24.794,0.9907,-19.562
-29.198,-35.886,-0.76267,-12.39,-17.892,-19.666,-19.188,-7.1375,25.732,-14.875,-0.78128,-13.04,48.908,24.794,0.9907,-19.562
-29.198,-35.886,-0.76267,-12.39,-17.892,-19.666,-19.188,-7.1375,25.732,-14.875,-0.78128,-13.04,48.908,24.794,0.9907,-19.562
-29.208,-35.902,-0.72322,-12.374,-17.85,-19.73,-19.133,-7.0709,25.67,-14.877,-0.735,-13.019,48.849,24.877,1.0443,-19.545
-29.208,-35.902,-0.72322,-12.374,-17.85,-19.73,-19.133,-7.0709,25.67,-14.877,-0.735,-13.019,48.849,24.877,1.0443,-19.545
-29.208,-35.902,-0.72322,-12.374,-17.85,-19.73,-19.133,-7.0709,25.67,-14.877,-0.735,-13.019,48.849,24.877,1.0443,-19.545
-29.228,-35.932,-0.64447,-12.341,-17.765,-19.856,-19.022,-6.9385,25.546,-14.882,-0.64219,-12.977,48.729,25.038,1.1516,-19.509
-29.228,-35.932,-0.64447,-12.341,-17.765,-19.856,-19.022,-6.9385,25.546,-14.882,-0.64219,-12.977,48.729,25.038,1.1516,-19.509
-29.228,-35.932,-0.64447,-12.341,-17.765,-19.856,-19.022,-6.9385,25.546,-14.882,-0.64219,-12.977,48.729,25.038,1.1516,-19.509
-29.237,-35.945,-0.60518,-12.324,-17.722,-19.919,-18.967,-6.8726,25.483,-14.883,-0.59568,-12.955,48.668,25.116,1.2054,-19.491
-29.237,-35.945,-0.60518,-12.324,-17.722,-19.919,-18.967,-6.8726,25.483,-14.883,-0.59568,-12.955,48.668,25.116,1.2054,-19.491
-29.254,-35.969,-0.5268,-12.289,-17.633,-20.043,-18.856,-6.7415,25.358,-14.886,-0.50247,-12.911,48.543,25.268,1.3129,-19.454
-29.254,-35.969,-0.5268,-12.289,-17.633,-20.043,-18.856,-6.7415,25.358,-14.886,-0.50247,-12.911,48.543,25.268,1.3129,-19.454
-29.254,-35.969,-0.5268,-12.289,-17.633,-20.043,-18.856,-6.7415,25.358,-14.886,-0.50247,-12.911,48.543,25.268,1.3129,-19.454
-29.262,-35.979,-0.48772,-12.271,-17.587,-20.105,-18.801,-6.6763,25.295,-14.886,-0.45579,-12.888,48.479,25.343,1.3667,-19.435
-29.262,-35.979,-0.48772,-12.271,-17.587,-20.105,-18.801,-6.6763,25.295,-14.886,-0.45579,-12.888,48.479,25.343,1.3667,-19.435
-29.27,-35.989,-0.44872,-12.253,-17.541,-20.167,-18.746,-6.6114,25.232,-14.886,-0.40906,-12.865,48.414,25.415,1.4206,-19.416
-29.27,-35.989,-0.44872,-12.253,-17.541,-20.167,-18.746,-6.6114,25.232,-14.886,-0.40906,-12.865,48.414,25.415,1.4206,-19.416
-29.277,-35.997,-0.4098,-12.235,-17.494,-20.228,-18.691,-6.5468,25.169,-14.886,-0.36228,-12.842,48.348,25.487,1.4744,-19.397
-29.277,-35.997,-0.4098,-12.235,-17.494,-20.228,-18.691,-6.5468,25.169,-14.886,-0.36228,-12.842,48.348,25.487,1.4744,-19.397
-29.277,-35.997,-0.4098,-12.235,-17.494,-20.228,-18.691,-6.5468,25.169,-14.886,-0.36228,-12.842,48.348,25.487,1.4744,-19.397
-29.277,-35.997,-0.4098,-12.235,-17.494,-20.228,-18.691,-6.5468,25.169,-14.886,-0.36228,-12.842,48.348,25.487,1.4744,-19.397
-29.291,-36.011,-0.33226,-12.198,-17.399,-20.35,-18.58,-6.4183,25.042,-14.885,-0.26863,-12.795,48.215,25.626,1.5822,-19.359
-29.291,-36.011,-0.33226,-12.198,-17.399,-20.35,-18.58,-6.4183,25.042,-14.885,-0.26863,-12.795,48.215,25.626,1.5822,-19.359
-29.297,-36.017,-0.29364,-12.179,-17.35,-20.411,-18.525,-6.3545,24.978,-14.884,-0.22176,-12.771,48.147,25.693,1.636,-19.339
-29.297,-36.017,-0.29364,-12.179,-17.35,-20.411,-18.525,-6.3545,24.978,-14.884,-0.22176,-12.771,48.147,25.693,1.636,-19.339
-29.303,-36.021,-0.25512,-12.16,-17.3,-20.471,-18.47,-6.291,24.914,-14.882,-0.17486,-12.747,48.078,25.759,1.6899,-19.32
-29.303,-36.021,-0.25512,-12.16,-17.3,-20.471,-18.47,-6.291,24.914,-14.882,-0.17486,-12.747,48.078,25.759,1.6899,-19.32
-29.308,-36.025,-0.21673,-12.14,-17.25,-20.531,-18.416,-6.2278,24.849,-14.881,-0.12796,-12.722,48.008,25.824,1.7438,-19.3
-29.308,-36.025,-0.21673,-12.14,-17.25,-20.531,-18.416,-6.2278,24.849,-14.881,-0.12796,-12.722,48.008,25.824,1.7438,-19.3
-29.313,-36.028,-0.17845,-12.12,-17.199,-20.591,-18.361,-6.165,24.785,-14.878,-0.081036,-12.698,47.937,25.887,1.7976,-19.28
-29.313,-36.028,-0.17845,-12.12,-17.199,-20.591,-18.361,-6.165,24.785,-14.878,-0.081036,-12.698,47.937,25.887,1.7976,-19.28
-29.313,-36.028,-0.17845,-12.12,-17.199,-20.591,-18.361,-6.165,24.785,-14.878,-0.081036,-12.698,47.937,25.887,1.7976,-19.28
-29.318,-36.029,-0.1403,-12.101,-17.148,-20.651,-18.306,-6.1024,24.72,-14.876,-0.03411,-12.673,47.866,25.949,1.8515,-19.26
-29.318,-36.029,-0.1403,-12.101,-17.148,-20.651,-18.306,-6.1024,24.72,-14.876,-0.03411,-12.673,47.866,25.949,1.8515,-19.26
-29.318,-36.029,-0.1403,-12.101,-17.148,-20.651,-18.306,-6.1024,24.72,-14.876,-0.03411,-12.673,47.866,25.949,1.8515,-19.26
-29.326,-36.03,-0.064393,-12.06,-17.043,-20.769,-18.197,-5.9782,24.591,-14.87,0.05974,-12.622,47.72,26.068,1.9591,-19.22
-29.326,-36.03,-0.064393,-12.06,-17.043,-20.769,-18.197,-5.9782,24.591,-14.87,0.05974,-12.622,47.72,26.068,1.9591,-19.22
-29.33,-36.029,-0.02665,-12.04,-16.99,-20.828,-18.143,-5.9167,24.525,-14.867,0.10665,-12.597,47.646,26.126,2.0128,-19.2
-29.33,-36.029,-0.02665,-12.04,-16.99,-20.828,-18.143,-5.9167,24.525,-14.867,0.10665,-12.597,47.646,26.126,2.0128,-19.2
-29.33,-36.029,-0.02665,-12.04,-16.99,-20.828,-18.143,-5.9167,24.525,-14.867,0.10665,-12.597,47.646,26.126,2.0128,-19.2
-29.333,-36.027,0.010946,-12.019,-16.936,-20.886,-18.089,-5.8555,24.46,-14.863,0.15355,-12.571,47.572,26.182,2.0666,-19.179
-29.333,-36.027,0.010946,-12.019,-16.936,-20.886,-18.089,-5.8555,24.46,-14.863,0.15355,-12.571,47.572,26.182,2.0666,-19.179
-29.333,-36.027,0.010946,-12.019,-16.936,-20.886,-18.089,-5.8555,24.46,-14.863,0.15355,-12.571,47.572,26.182,2.0666,-19.179
-29.333,-36.027,0.010946,-12.019,-16.936,-20.886,-18.089,-5.8555,24.46,-14.863,0.15355,-12.571,47.572,26.182,2.0666,-19.179
-29.338,-36.021,0.085678,-11.977,-16.825,-21.003,-17.98,-5.7341,24.329,-14.855,0.24729,-12.519,47.42,26.291,2.1739,-19.138
-29.338,-36.021,0.085678,-11.977,-16.825,-21.003,-17.98,-5.7341,24.329,-14.855,0.24729,-12.519,47.42,26.291,2.1739,-19.138
-29.342,-36.011,0.15976,-11.934,-16.713,-21.118,-17.873,-5.6142,24.197,-14.845,0.34092,-12.466,47.265,26.394,2.281,-19.097
-29.342,-36.011,0.15976,-11.934,-16.713,-21.118,-17.873,-5.6142,24.197,-14.845,0.34092,-12.466,47.265,26.394,2.281,-19.097
-29.342,-36.011,0.15976,-11.934,-16.713,-21.118,-17.873,-5.6142,24.197,-14.845,0.34092,-12.466,47.265,26.394,2.281,-19.097
-29.342,-36.011,0.15976,-11.934,-16.713,-21.118,-17.873,-5.6142,24.197,-14.845,0.34092,-12.466,47.265,26.394,2.281,-19.097
-29.344,-36.005,0.19655,-11.913,-16.656,-21.176,-17.82,-5.5548,24.131,-14.84,0.38767,-12.439,47.186,26.444,2.3345,-19.076
-29.344,-36.005,0.19655,-11.913,-16.656,-21.176,-17.82,-5.5548,24.131,-14.84,0.38767,-12.439,47.186,26.444,2.3345,-19.076
-29.345,-35.99,0.26958,-11.869,-16.539,-21.29,-17.713,-5.4371,23.998,-14.828,0.48105,-12.385,47.027,26.539,2.4413,-19.034
-29.345,-35.99,0.26958,-11.869,-16.539,-21.29,-17.713,-5.4371,23.998,-14.828,0.48105,-12.385,47.027,26.539,2.4413,-19.034
-29.345,-35.99,0.26958,-11.869,-16.539,-21.29,-17.713,-5.4371,23.998,-14.828,0.48105,-12.385,47.027,26.539,2.4413,-19.034
-29.345,-35.981,0.30582,-11.847,-16.48,-21.346,-17.66,-5.3789,23.931,-14.822,0.52766,-12.358,46.946,26.584,2.4946,-19.013
-29.345,-35.981,0.30582,-11.847,-16.48,-21.346,-17.66,-5.3789,23.931,-14.822,0.52766,-12.358,46.946,26.584,2.4946,-19.013
-29.345,-35.981,0.30582,-11.847,-16.48,-21.346,-17.66,-5.3789,23.931,-14.822,0.52766,-12.358,46.946,26.584,2.4946,-19.013
-29.345,-35.971,0.34186,-11.825,-16.42,-21.403,-17.607,-5.3211,23.864,-14.816,0.57421,-12.331,46.864,26.628,2.5478,-18.991
-29.345,-35.961,0.37771,-11.802,-16.36,-21.459,-17.555,-5.2637,23.797,-14.809,0.6207,-12.303,46.781,26.671,2.601,-18.97
-29.344,-35.949,0.41336,-11.78,-16.299,-21.515,-17.502,-5.2067,23.729,-14.802,0.66712,-12.275,46.698,26.712,2.6541,-18.949
-29.344,-35.949,0.41336,-11.78,-16.299,-21.515,-17.502,-5.2067,23.729,-14.802,0.66712,-12.275,46.698,26.712,2.6541,-18.949
-29.344,-35.949,0.41336,-11.78,-16.299,-21.515,-17.502,-5.2067,23.729,-14.802,0.66712,-12.275,46.698,26.712,2.6541,-18.949
-29.343,-35.937,0.4488,-11.757,-16.237,-21.571,-17.45,-5.1502,23.662,-14.795,0.71347,-12.247,46.614,26.752,2.707,-18.927
-29.343,-35.937,0.4488,-11.757,-16.237,-21.571,-17.45,-5.1502,23.662,-14.795,0.71347,-12.247,46.614,26.752,2.707,-18.927
-29.341,-35.924,0.48402,-11.734,-16.175,-21.627,-17.398,-5.0941,23.594,-14.788,0.75975,-12.219,46.529,26.791,2.7599,-18.906
-29.341,-35.924,0.48402,-11.734,-16.175,-21.627,-17.398,-5.0941,23.594,-14.788,0.75975,-12.219,46.529,26.791,2.7599,-18.906
-29.339,-35.91,0.51904,-11.711,-16.112,-21.682,-17.346,-5.0384,23.527,-14.78,0.80594,-12.191,46.444,26.828,2.8127,-18.885
-29.339,-35.91,0.51904,-11.711,-16.112,-21.682,-17.346,-5.0384,23.527,-14.78,0.80594,-12.191,46.444,26.828,2.8127,-18.885
-29.337,-35.896,0.55383,-11.688,-16.048,-21.737,-17.295,-4.9831,23.459,-14.772,0.85204,-12.163,46.358,26.864,2.8654,-18.863
-29.337,-35.896,0.55383,-11.688,-16.048,-21.737,-17.295,-4.9831,23.459,-14.772,0.85204,-12.163,46.358,26.864,2.8654,-18.863
-29.337,-35.896,0.55383,-11.688,-16.048,-21.737,-17.295,-4.9831,23.459,-14.772,0.85204,-12.163,46.358,26.864,2.8654,-18.863
-29.334,-35.88,0.5884,-11.665,-15.984,-21.792,-17.244,-4.9283,23.391,-14.764,0.89806,-12.134,46.271,26.899,2.918,-18.842
-29.334,-35.88,0.5884,-11.665,-15.984,-21.792,-17.244,-4.9283,23.391,-14.764,0.89806,-12.134,46.271,26.899,2.918,-18.842
-29.331,-35.864,0.62273,-11.641,-15.92,-21.847,-17.192,-4.874,23.322,-14.755,0.94398,-12.106,46.183,26.932,2.9705,-18.82
-29.327,-35.847,0.65684,-11.618,-15.854,-21.902,-17.142,-4.8201,23.254,-14.747,0.9898,-12.077,46.095,26.964,3.0228,-18.798
-29.327,-35.847,0.65684,-11.618,-15.854,-21.902,-17.142,-4.8201,23.254,-14.747,0.9898,-12.077,46.095,26.964,3.0228,-18.798
-29.323,-35.829,0.6907,-11.594,-15.788,-21.956,-17.091,-4.7667,23.185,-14.738,1.0355,-12.048,46.005,26.995,3.0751,-18.777
-29.323,-35.829,0.6907,-11.594,-15.788,-21.956,-17.091,-4.7667,23.185,-14.738,1.0355,-12.048,46.005,26.995,3.0751,-18.777
-29.319,-35.81,0.72433,-11.57,-15.722,-22.01,-17.041,-4.7137,23.117,-14.728,1.0811,-12.019,45.916,27.024,3.1272,-18.755
-29.319,-35.81,0.72433,-11.57,-15.722,-22.01,-17.041,-4.7137,23.117,-14.728,1.0811,-12.019,45.916,27.024,3.1272,-18.755
-29.315,-35.791,0.7577,-11.547,-15.655,-22.064,-16.991,-4.6612,23.048,-14.719,1.1266,-11.99,45.825,27.052,3.1792,-18.733
-29.315,-35.791,0.7577,-11.547,-15.655,-22.064,-16.991,-4.6612,23.048,-14.719,1.1266,-11.99,45.825,27.052,3.1792,-18.733
-29.31,-35.771,0.79083,-11.523,-15.587,-22.118,-16.941,-4.6092,22.979,-14.709,1.172,-11.961,45.734,27.079,3.2311,-18.712
-29.31,-35.771,0.79083,-11.523,-15.587,-22.118,-16.941,-4.6092,22.979,-14.709,1.172,-11.961,45.734,27.079,3.2311,-18.712
-29.31,-35.771,0.79083,-11.523,-15.587,-22.118,-16.941,-4.6092,22.979,-14.709,1.172,-11.961,45.734,27.079,3.2311,-18.712
-29.304,-35.75,0.8237,-11.499,-15.519,-22.172,-16.891,-4.5577,22.909,-14.699,1.2173,-11.931,45.642,27.105,3.2829,-18.69
-29.304,-35.75,0.8237,-11.499,-15.519,-22.172,-16.891,-4.5577,22.909,-14.699,1.2173,-11.931,45.642,27.105,3.2829,-18.69
-29.304,-35.75,0.8237,-11.499,-15.519,-22.172,-16.891,-4.5577,22.909,-14.699,1.2173,-11.931,45.642,27.105,3.2829,-18.69
-29.292,-35.705,0.88866,-11.45,-15.38,-22.278,-16.793,-4.4562,22.771,-14.679,1.3074,-11.872,45.456,27.152,3.386,-18.647
-29.292,-35.705,0.88866,-11.45,-15.38,-22.278,-16.793,-4.4562,22.771,-14.679,1.3074,-11.872,45.456,27.152,3.386,-18.647
-29.292,-35.705,0.88866,-11.45,-15.38,-22.278,-16.793,-4.4562,22.771,-14.679,1.3074,-11.872,45.456,27.152,3.386,-18.647
-29.286,-35.682,0.92074,-11.426,-15.31,-22.331,-16.744,-4.4061,22.701,-14.668,1.3523,-11.843,45.362,27.173,3.4373,-18.625
-29.286,-35.682,0.92074,-11.426,-15.31,-22.331,-16.744,-4.4061,22.701,-14.668,1.3523,-11.843,45.362,27.173,3.4373,-18.625
-29.279,-35.658,0.95255,-11.401,-15.239,-22.384,-16.696,-4.3566,22.631,-14.657,1.397,-11.813,45.267,27.193,3.4885,-18.603
-29.272,-35.633,0.98408,-11.377,-15.168,-22.437,-16.648,-4.3076,22.561,-14.646,1.4416,-11.783,45.172,27.212,3.5395,-18.582
-29.272,-35.633,0.98408,-11.377,-15.168,-22.437,-16.648,-4.3076,22.561,-14.646,1.4416,-11.783,45.172,27.212,3.5395,-18.582
-29.264,-35.608,1.0153,-11.352,-15.096,-22.489,-16.6,-4.2591,22.491,-14.635,1.486,-11.753,45.076,27.23,3.5904,-18.56
-29.264,-35.608,1.0153,-11.352,-15.096,-22.489,-16.6,-4.2591,22.491,-14.635,1.486,-11.753,45.076,27.23,3.5904,-18.56
-29.264,-35.608,1.0153,-11.352,-15.096,-22.489,-16.6,-4.2591,22.491,-14.635,1.486,-11.753,45.076,27.23,3.5904,-18.56
-29.256,-35.582,1.0463,-11.327,-15.024,-22.541,-16.552,-4.2112,22.421,-14.623,1.5303,-11.723,44.979,27.246,3.6411,-18.538
-29.256,-35.582,1.0463,-11.327,-15.024,-22.541,-16.552,-4.2112,22.421,-14.623,1.5303,-11.723,44.979,27.246,3.6411,-18.538
-29.256,-35.582,1.0463,-11.327,-15.024,-22.541,-16.552,-4.2112,22.421,-14.623,1.5303,-11.723,44.979,27.246,3.6411,-18.538
-29.239,-35.527,1.1074,-11.278,-14.877,-22.645,-16.458,-4.1168,22.28,-14.6,1.6184,-11.663,44.784,27.275,3.7421,-18.495
-29.239,-35.527,1.1074,-11.278,-14.877,-22.645,-16.458,-4.1168,22.28,-14.6,1.6184,-11.663,44.784,27.275,3.7421,-18.495
-29.239,-35.527,1.1074,-11.278,-14.877,-22.645,-16.458,-4.1168,22.28,-14.6,1.6184,-11.663,44.784,27.275,3.7421,-18.495
-29.23,-35.499,1.1375,-11.253,-14.803,-22.697,-16.412,-4.0705,22.209,-14.588,1.6622,-11.633,44.685,27.287,3.7923,-18.474
-29.221,-35.469,1.1673,-11.228,-14.728,-22.749,-16.366,-4.0246,22.138,-14.575,1.7059,-11.603,44.586,27.299,3.8423,-18.452
-29.221,-35.469,1.1673,-11.228,-14.728,-22.749,-16.366,-4.0246,22.138,-14.575,1.7059,-11.603,44.586,27.299,3.8423,-18.452
-29.221,-35.469,1.1673,-11.228,-14.728,-22.749,-16.366,-4.0246,22.138,-14.575,1.7059,-11.603,44.586,27.299,3.8423,-18.452
-29.211,-35.44,1.1968,-11.203,-14.653,-22.8,-16.32,-3.9794,22.067,-14.563,1.7494,-11.573,44.486,27.309,3.8922,-18.43
-29.211,-35.44,1.1968,-11.203,-14.653,-22.8,-16.32,-3.9794,22.067,-14.563,1.7494,-11.573,44.486,27.309,3.8922,-18.43
-29.19,-35.378,1.2549,-11.153,-14.501,-22.902,-16.229,-3.8904,21.925,-14.537,1.8358,-11.512,44.284,27.325,3.9914,-18.388
-29.19,-35.378,1.2549,-11.153,-14.501,-22.902,-16.229,-3.8904,21.925,-14.537,1.8358,-11.512,44.284,27.325,3.9914,-18.388
-29.179,-35.346,1.2835,-11.128,-14.424,-22.953,-16.184,-3.8468,21.854,-14.524,1.8787,-11.482,44.182,27.331,4.0407,-18.366
-29.179,-35.346,1.2835,-11.128,-14.424,-22.953,-16.184,-3.8468,21.854,-14.524,1.8787,-11.482,44.182,27.331,4.0407,-18.366
-29.179,-35.346,1.2835,-11.128,-14.424,-22.953,-16.184,-3.8468,21.854,-14.524,1.8787,-11.482,44.182,27.331,4.0407,-18.366
-29.168,-35.313,1.3118,-11.102,-14.346,-23.003,-16.139,-3.8038,21.782,-14.511,1.9215,-11.451,44.08,27.336,4.0898,-18.345
-29.168,-35.313,1.3118,-11.102,-14.346,-23.003,-16.139,-3.8038,21.782,-14.511,1.9215,-11.451,44.08,27.336,4.0898,-18.345
-29.156,-35.28,1.3397,-11.077,-14.268,-23.054,-16.095,-3.7613,21.711,-14.497,1.9641,-11.421,43.977,27.34,4.1387,-18.324
-29.156,-35.28,1.3397,-11.077,-14.268,-23.054,-16.095,-3.7613,21.711,-14.497,1.9641,-11.421,43.977,27.34,4.1387,-18.324
-29.144,-35.246,1.3674,-11.052,-14.19,-23.104,-16.051,-3.7194,21.639,-14.483,2.0065,-11.39,43.873,27.343,4.1874,-18.302
-29.144,-35.246,1.3674,-11.052,-14.19,-23.104,-16.051,-3.7194,21.639,-14.483,2.0065,-11.39,43.873,27.343,4.1874,-18.302
-29.131,-35.211,1.3947,-11.026,-14.11,-23.154,-16.008,-3.678,21.567,-14.469,2.0486,-11.36,43.769,27.344,4.2359,-18.281
-29.131,-35.211,1.3947,-11.026,-14.11,-23.154,-16.008,-3.678,21.567,-14.469,2.0486,-11.36,43.769,27.344,4.2359,-18.281
-29.118,-35.176,1.4217,-11.001,-14.031,-23.204,-15.965,-3.6372,21.495,-14.455,2.0906,-11.329,43.664,27.344,4.2842,-18.26
-29.118,-35.176,1.4217,-11.001,-14.031,-23.204,-15.965,-3.6372,21.495,-14.455,2.0906,-11.329,43.664,27.344,4.2842,-18.26
-29.105,-35.14,1.4483,-10.976,-13.951,-23.254,-15.922,-3.5971,21.423,-14.441,2.1324,-11.299,43.559,27.343,4.3323,-18.239
-29.105,-35.14,1.4483,-10.976,-13.951,-23.254,-15.922,-3.5971,21.423,-14.441,2.1324,-11.299,43.559,27.343,4.3323,-18.239
-29.092,-35.103,1.4746,-10.95,-13.87,-23.303,-15.88,-3.5575,21.351,-14.427,2.174,-11.268,43.453,27.341,4.3802,-18.218
-29.092,-35.103,1.4746,-10.95,-13.87,-23.303,-15.88,-3.5575,21.351,-14.427,2.174,-11.268,43.453,27.341,4.3802,-18.218
-29.092,-35.103,1.4746,-10.95,-13.87,-23.303,-15.88,-3.5575,21.351,-14.427,2.174,-11.268,43.453,27.341,4.3802,-18.218
-29.078,-35.066,1.5006,-10.925,-13.789,-23.353,-15.838,-3.5185,21.278,-14.412,2.2154,-11.237,43.346,27.337,4.4278,-18.197
-29.078,-35.066,1.5006,-10.925,-13.789,-23.353,-15.838,-3.5185,21.278,-14.412,2.2154,-11.237,43.346,27.337,4.4278,-18.197
-29.063,-35.028,1.5263,-10.899,-13.707,-23.402,-15.796,-3.4801,21.206,-14.398,2.2565,-11.207,43.239,27.332,4.4753,-18.176
-29.049,-34.989,1.5516,-10.874,-13.625,-23.451,-15.755,-3.4422,21.133,-14.383,2.2974,-11.176,43.131,27.327,4.5225,-18.156
-29.049,-34.989,1.5516,-10.874,-13.625,-23.451,-15.755,-3.4422,21.133,-14.383,2.2974,-11.176,43.131,27.327,4.5225,-18.156
-29.033,-34.95,1.5766,-10.848,-13.542,-23.5,-15.714,-3.405,21.061,-14.368,2.3382,-11.145,43.023,27.319,4.5694,-18.135
-29.033,-34.95,1.5766,-10.848,-13.542,-23.5,-15.714,-3.405,21.061,-14.368,2.3382,-11.145,43.023,27.319,4.5694,-18.135
-29.018,-34.91,1.6012,-10.823,-13.458,-23.548,-15.674,-3.3684,20.988,-14.352,2.3787,-11.115,42.914,27.311,4.6162,-18.114
-29.018,-34.91,1.6012,-10.823,-13.458,-23.548,-15.674,-3.3684,20.988,-14.352,2.3787,-11.115,42.914,27.311,4.6162,-18.114
-29.002,-34.869,1.6255,-10.797,-13.375,-23.597,-15.634,-3.3324,20.915,-14.337,2.4189,-11.084,42.805,27.302,4.6627,-18.094
-29.002,-34.869,1.6255,-10.797,-13.375,-23.597,-15.634,-3.3324,20.915,-14.337,2.4189,-11.084,42.805,27.302,4.6627,-18.094
-29.002,-34.869,1.6255,-10.797,-13.375,-23.597,-15.634,-3.3324,20.915,-14.337,2.4189,-11.084,42.805,27.302,4.6627,-18.094
-28.986,-34.828,1.6494,-10.772,-13.29,-23.645,-15.594,-3.297,20.842,-14.321,2.459,-11.053,42.695,27.291,4.709,-18.073
-28.986,-34.828,1.6494,-10.772,-13.29,-23.645,-15.594,-3.297,20.842,-14.321,2.459,-11.053,42.695,27.291,4.709,-18.073
-28.952,-34.744,1.6963,-10.721,-13.12,-23.741,-15.516,-3.2281,20.695,-14.29,2.5384,-10.992,42.473,27.267,4.8008,-18.033
-28.952,-34.744,1.6963,-10.721,-13.12,-23.741,-15.516,-3.2281,20.695,-14.29,2.5384,-10.992,42.473,27.267,4.8008,-18.033
-28.952,-34.744,1.6963,-10.721,-13.12,-23.741,-15.516,-3.2281,20.695,-14.29,2.5384,-10.992,42.473,27.267,4.8008,-18.033
-28.952,-34.744,1.6963,-10.721,-13.12,-23.741,-15.516,-3.2281,20.695,-14.29,2.5384,-10.992,42.473,27.267,4.8008,-18.033
-28.935,-34.701,1.7191,-10.695,-13.034,-23.789,-15.478,-3.1945,20.622,-14.274,2.5777,-10.961,42.361,27.253,4.8463,-18.013
-28.935,-34.701,1.7191,-10.695,-13.034,-23.789,-15.478,-3.1945,20.622,-14.274,2.5777,-10.961,42.361,27.253,4.8463,-18.013
-28.899,-34.613,1.7638,-10.644,-12.861,-23.884,-15.402,-3.1293,20.475,-14.241,2.6556,-10.9,42.137,27.221,4.9366,-17.973
-28.899,-34.613,1.7638,-10.644,-12.861,-23.884,-15.402,-3.1293,20.475,-14.241,2.6556,-10.9,42.137,27.221,4.9366,-17.973
-28.899,-34.613,1.7638,-10.644,-12.861,-23.884,-15.402,-3.1293,20.475,-14.241,2.6556,-10.9,42.137,27.221,4.9366,-17.973
-28.88,-34.568,1.7856,-10.619,-12.774,-23.931,-15.365,-3.0976,20.402,-14.225,2.6942,-10.869,42.023,27.204,4.9814,-17.953
-28.88,-34.568,1.7856,-10.619,-12.774,-23.931,-15.365,-3.0976,20.402,-14.225,2.6942,-10.869,42.023,27.204,4.9814,-17.953
-28.861,-34.522,1.807,-10.593,-12.686,-23.978,-15.328,-3.0666,20.328,-14.208,2.7326,-10.839,41.91,27.186,5.0259,-17.933
-28.842,-34.476,1.8281,-10.568,-12.597,-24.025,-15.292,-3.0362,20.254,-14.192,2.7707,-10.808,41.796,27.166,5.0701,-17.914
-28.842,-34.476,1.8281,-10.568,-12.597,-24.025,-15.292,-3.0362,20.254,-14.192,2.7707,-10.808,41.796,27.166,5.0701,-17.914
-28.822,-34.43,1.8488,-10.542,-12.509,-24.072,-15.256,-3.0064,20.18,-14.175,2.8086,-10.778,41.681,27.146,5.1141,-17.894
-28.822,-34.43,1.8488,-10.542,-12.509,-24.072,-15.256,-3.0064,20.18,-14.175,2.8086,-10.778,41.681,27.146,5.1141,-17.894
-28.822,-34.43,1.8488,-10.542,-12.509,-24.072,-15.256,-3.0064,20.18,-14.175,2.8086,-10.778,41.681,27.146,5.1141,-17.894
-28.802,-34.382,1.8691,-10.517,-12.419,-24.118,-15.221,-2.9773,20.106,-14.158,2.8462,-10.747,41.566,27.124,5.1578,-17.875
-28.802,-34.382,1.8691,-10.517,-12.419,-24.118,-15.221,-2.9773,20.106,-14.158,2.8462,-10.747,41.566,27.124,5.1578,-17.875
-28.802,-34.382,1.8691,-10.517,-12.419,-24.118,-15.221,-2.9773,20.106,-14.158,2.8462,-10.747,41.566,27.124,5.1578,-17.875
-28.782,-34.334,1.889,-10.491,-12.33,-24.165,-15.186,-2.9488,20.032,-14.141,2.8835,-10.717,41.45,27.101,5.2012,-17.856
-28.761,-34.286,1.9086,-10.466,-12.239,-24.211,-15.151,-2.921,19.958,-14.124,2.9206,-10.686,41.334,27.077,5.2444,-17.837
-28.761,-34.286,1.9086,-10.466,-12.239,-24.211,-15.151,-2.921,19.958,-14.124,2.9206,-10.686,41.334,27.077,5.2444,-17.837
-28.74,-34.237,1.9278,-10.441,-12.149,-24.257,-15.117,-2.8938,19.884,-14.106,2.9574,-10.656,41.217,27.052,5.2872,-17.818
-28.74,-34.237,1.9278,-10.441,-12.149,-24.257,-15.117,-2.8938,19.884,-14.106,2.9574,-10.656,41.217,27.052,5.2872,-17.818
-28.74,-34.237,1.9278,-10.441,-12.149,-24.257,-15.117,-2.8938,19.884,-14.106,2.9574,-10.656,41.217,27.052,5.2872,-17.818
-28.718,-34.187,1.9467,-10.415,-12.058,-24.302,-15.084,-2.8672,19.809,-14.089,2.9939,-10.625,41.1,27.026,5.3298,-17.799
-28.718,-34.187,1.9467,-10.415,-12.058,-24.302,-15.084,-2.8672,19.809,-14.089,2.9939,-10.625,41.1,27.026,5.3298,-17.799
-28.718,-34.187,1.9467,-10.415,-12.058,-24.302,-15.084,-2.8672,19.809,-14.089,2.9939,-10.625,41.1,27.026,5.3298,-17.799
-28.696,-34.137,1.9651,-10.39,-11.966,-24.348,-15.05,-2.8413,19.735,-14.071,3.0302,-10.595,40.982,26.999,5.3721,-17.78
-28.674,-34.086,1.9832,-10.365,-11.874,-24.393,-15.018,-2.8161,19.661,-14.054,3.0662,-10.565,40.864,26.971,5.4141,-17.762
-28.674,-34.086,1.9832,-10.365,-11.874,-24.393,-15.018,-2.8161,19.661,-14.054,3.0662,-10.565,40.864,26.971,5.4141,-17.762
-28.651,-34.035,2.0009,-10.34,-11.782,-24.439,-14.985,-2.7915,19.586,-14.036,3.1019,-10.534,40.746,26.942,5.4558,-17.743
-28.651,-34.035,2.0009,-10.34,-11.782,-24.439,-14.985,-2.7915,19.586,-14.036,3.1019,-10.534,40.746,26.942,5.4558,-17.743
-28.651,-34.035,2.0009,-10.34,-11.782,-24.439,-14.985,-2.7915,19.586,-14.036,3.1019,-10.534,40.746,26.942,5.4558,-17.743
-28.604,-33.931,2.0351,-10.29,-11.595,-24.529,-14.922,-2.7442,19.437,-14,3.1725,-10.474,40.507,26.881,5.5384,-17.707
-28.604,-33.931,2.0351,-10.29,-11.595,-24.529,-14.922,-2.7442,19.437,-14,3.1725,-10.474,40.507,26.881,5.5384,-17.707
-28.581,-33.878,2.0517,-10.265,-11.502,-24.573,-14.891,-2.7216,19.362,-13.982,3.2074,-10.444,40.387,26.849,5.5792,-17.689
-28.581,-33.878,2.0517,-10.265,-11.502,-24.573,-14.891,-2.7216,19.362,-13.982,3.2074,-10.444,40.387,26.849,5.5792,-17.689
-28.556,-33.824,2.0678,-10.24,-11.407,-24.618,-14.861,-2.6996,19.287,-13.963,3.242,-10.414,40.267,26.815,5.6197,-17.671
-28.556,-33.824,2.0678,-10.24,-11.407,-24.618,-14.861,-2.6996,19.287,-13.963,3.242,-10.414,40.267,26.815,5.6197,-17.671
-28.532,-33.77,2.0836,-10.215,-11.313,-24.662,-14.831,-2.6783,19.213,-13.945,3.2763,-10.384,40.146,26.781,5.6599,-17.653
-28.532,-33.77,2.0836,-10.215,-11.313,-24.662,-14.831,-2.6783,19.213,-13.945,3.2763,-10.384,40.146,26.781,5.6599,-17.653
-28.507,-33.716,2.099,-10.19,-11.218,-24.706,-14.801,-2.6577,19.138,-13.926,3.3103,-10.354,40.025,26.746,5.6998,-17.636
-28.507,-33.716,2.099,-10.19,-11.218,-24.706,-14.801,-2.6577,19.138,-13.926,3.3103,-10.354,40.025,26.746,5.6998,-17.636
-28.507,-33.716,2.099,-10.19,-11.218,-24.706,-14.801,-2.6577,19.138,-13.926,3.3103,-10.354,40.025,26.746,5.6998,-17.636
-28.481,-33.661,2.114,-10.165,-11.122,-24.75,-14.772,-2.6377,19.063,-13.908,3.3441,-10.324,39.903,26.71,5.7394,-17.618
-28.481,-33.661,2.114,-10.165,-11.122,-24.75,-14.772,-2.6377,19.063,-13.908,3.3441,-10.324,39.903,26.71,5.7394,-17.618
-28.455,-33.605,2.1286,-10.14,-11.026,-24.794,-14.743,-2.6184,18.988,-13.889,3.3775,-10.294,39.781,26.673,5.7787,-17.601
-28.455,-33.605,2.1286,-10.14,-11.026,-24.794,-14.743,-2.6184,18.988,-13.889,3.3775,-10.294,39.781,26.673,5.7787,-17.601
-28.429,-33.549,2.1429,-10.116,-10.93,-24.837,-14.715,-2.5997,18.913,-13.87,3.4107,-10.264,39.659,26.635,5.8176,-17.584
-28.429,-33.549,2.1429,-10.116,-10.93,-24.837,-14.715,-2.5997,18.913,-13.87,3.4107,-10.264,39.659,26.635,5.8176,-17.584
-28.402,-33.492,2.1567,-10.091,-10.833,-24.881,-14.687,-2.5818,18.838,-13.851,3.4435,-10.235,39.536,26.596,5.8562,-17.567
-28.402,-33.492,2.1567,-10.091,-10.833,-24.881,-14.687,-2.5818,18.838,-13.851,3.4435,-10.235,39.536,26.596,5.8562,-17.567
-28.375,-33.435,2.1701,-10.066,-10.736,-24.924,-14.66,-2.5645,18.762,-13.832,3.4761,-10.205,39.413,26.556,5.8946,-17.55
-28.375,-33.435,2.1701,-10.066,-10.736,-24.924,-14.66,-2.5645,18.762,-13.832,3.4761,-10.205,39.413,26.556,5.8946,-17.55
-28.348,-33.377,2.1832,-10.042,-10.639,-24.967,-14.633,-2.5478,18.687,-13.813,3.5084,-10.176,39.289,26.515,5.9325,-17.533
-28.348,-33.377,2.1832,-10.042,-10.639,-24.967,-14.633,-2.5478,18.687,-13.813,3.5084,-10.176,39.289,26.515,5.9325,-17.533
-28.32,-33.319,2.1959,-10.018,-10.541,-25.009,-14.607,-2.5318,18.612,-13.794,3.5403,-10.146,39.165,26.474,5.9702,-17.517
-28.292,-33.26,2.2082,-9.9933,-10.443,-25.052,-14.581,-2.5165,18.537,-13.775,3.572,-10.117,39.04,26.431,6.0075,-17.501
-28.292,-33.26,2.2082,-9.9933,-10.443,-25.052,-14.581,-2.5165,18.537,-13.775,3.572,-10.117,39.04,26.431,6.0075,-17.501
-28.292,-33.26,2.2082,-9.9933,-10.443,-25.052,-14.581,-2.5165,18.537,-13.775,3.572,-10.117,39.04,26.431,6.0075,-17.501
-28.263,-33.201,2.22,-9.969,-10.344,-25.094,-14.556,-2.5019,18.461,-13.755,3.6034,-10.087,38.915,26.388,6.0445,-17.484
-28.263,-33.201,2.22,-9.969,-10.344,-25.094,-14.556,-2.5019,18.461,-13.755,3.6034,-10.087,38.915,26.388,6.0445,-17.484
-28.263,-33.201,2.22,-9.969,-10.344,-25.094,-14.556,-2.5019,18.461,-13.755,3.6034,-10.087,38.915,26.388,6.0445,-17.484
-28.234,-33.141,2.2315,-9.9449,-10.245,-25.136,-14.531,-2.488,18.386,-13.736,3.6344,-10.058,38.79,26.343,6.0812,-17.468
-28.234,-33.141,2.2315,-9.9449,-10.245,-25.136,-14.531,-2.488,18.386,-13.736,3.6344,-10.058,38.79,26.343,6.0812,-17.468
-28.205,-33.081,2.2426,-9.9208,-10.145,-25.178,-14.507,-2.4747,18.311,-13.716,3.6652,-10.029,38.665,26.298,6.1175,-17.453
-28.175,-33.02,2.2533,-9.8968,-10.046,-25.22,-14.483,-2.4621,18.235,-13.697,3.6956,-9.9998,38.538,26.252,6.1535,-17.437
-28.175,-33.02,2.2533,-9.8968,-10.046,-25.22,-14.483,-2.4621,18.235,-13.697,3.6956,-9.9998,38.538,26.252,6.1535,-17.437
-28.145,-32.959,2.2637,-9.8729,-9.9455,-25.261,-14.459,-2.4502,18.16,-13.677,3.7257,-9.9707,38.412,26.205,6.1891,-17.421
-28.145,-32.959,2.2637,-9.8729,-9.9455,-25.261,-14.459,-2.4502,18.16,-13.677,3.7257,-9.9707,38.412,26.205,6.1891,-17.421
-28.115,-32.897,2.2736,-9.8491,-9.8449,-25.302,-14.437,-2.4389,18.085,-13.657,3.7556,-9.9418,38.285,26.157,6.2244,-17.406
-28.115,-32.897,2.2736,-9.8491,-9.8449,-25.302,-14.437,-2.4389,18.085,-13.657,3.7556,-9.9418,38.285,26.157,6.2244,-17.406
-28.084,-32.835,2.2831,-9.8253,-9.744,-25.343,-14.414,-2.4283,18.009,-13.637,3.7851,-9.9129,38.158,26.108,6.2593,-17.391
-28.084,-32.835,2.2831,-9.8253,-9.744,-25.343,-14.414,-2.4283,18.009,-13.637,3.7851,-9.9129,38.158,26.108,6.2593,-17.391
-28.052,-32.772,2.2923,-9.8017,-9.6428,-25.384,-14.392,-2.4184,17.934,-13.617,3.8143,-9.8841,38.031,26.059,6.2939,-17.376
-28.052,-32.772,2.2923,-9.8017,-9.6428,-25.384,-14.392,-2.4184,17.934,-13.617,3.8143,-9.8841,38.031,26.059,6.2939,-17.376
-28.021,-32.709,2.301,-9.7781,-9.5412,-25.425,-14.371,-2.4092,17.858,-13.597,3.8431,-9.8554,37.903,26.008,6.3281,-17.361
-27.988,-32.645,2.3094,-9.7547,-9.4392,-25.465,-14.35,-2.4007,17.783,-13.577,3.8717,-9.8268,37.775,25.957,6.362,-17.347
-27.988,-32.645,2.3094,-9.7547,-9.4392,-25.465,-14.35,-2.4007,17.783,-13.577,3.8717,-9.8268,37.775,25.957,6.362,-17.347
-27.988,-32.645,2.3094,-9.7547,-9.4392,-25.465,-14.35,-2.4007,17.783,-13.577,3.8717,-9.8268,37.775,25.957,6.362,-17.347
-27.956,-32.581,2.3173,-9.7313,-9.3369,-25.505,-14.329,-2.3928,17.707,-13.557,3.8999,-9.7983,37.646,25.905,6.3955,-17.332
-27.956,-32.581,2.3173,-9.7313,-9.3369,-25.505,-14.329,-2.3928,17.707,-13.557,3.8999,-9.7983,37.646,25.905,6.3955,-17.332
-27.956,-32.581,2.3173,-9.7313,-9.3369,-25.505,-14.329,-2.3928,17.707,-13.557,3.8999,-9.7983,37.646,25.905,6.3955,-17.332
-27.923,-32.516,2.3249,-9.708,-9.2343,-25.545,-14.309,-2.3856,17.632,-13.536,3.9279,-9.7698,37.517,25.852,6.4287,-17.318
-27.923,-32.516,2.3249,-9.708,-9.2343,-25.545,-14.309,-2.3856,17.632,-13.536,3.9279,-9.7698,37.517,25.852,6.4287,-17.318
-27.89,-32.451,2.3321,-9.6849,-9.1314,-25.585,-14.29,-2.3791,17.556,-13.516,3.9555,-9.7415,37.388,25.799,6.4615,-17.304
-27.856,-32.385,2.3389,-9.6618,-9.0281,-25.625,-14.271,-2.3732,17.481,-13.496,3.9828,-9.7132,37.258,25.745,6.494,-17.29
-27.822,-32.319,2.3453,-9.6388,-8.9245,-25.664,-14.252,-2.3681,17.405,-13.475,4.0098,-9.685,37.129,25.689,6.526,-17.276
-27.822,-32.319,2.3453,-9.6388,-8.9245,-25.664,-14.252,-2.3681,17.405,-13.475,4.0098,-9.685,37.129,25.689,6.526,-17.276
-27.822,-32.319,2.3453,-9.6388,-8.9245,-25.664,-14.252,-2.3681,17.405,-13.475,4.0098,-9.685,37.129,25.689,6.526,-17.276
-27.787,-32.253,2.3513,-9.616,-8.8205,-25.703,-14.234,-2.3636,17.33,-13.454,4.0364,-9.6569,36.998,25.634,6.5577,-17.263
-27.787,-32.253,2.3513,-9.616,-8.8205,-25.703,-14.234,-2.3636,17.33,-13.454,4.0364,-9.6569,36.998,25.634,6.5577,-17.263
-27.787,-32.253,2.3513,-9.616,-8.8205,-25.703,-14.234,-2.3636,17.33,-13.454,4.0364,-9.6569,36.998,25.634,6.5577,-17.263
-27.752,-32.186,2.3569,-9.5932,-8.7163,-25.742,-14.216,-2.3597,17.255,-13.434,4.0627,-9.6289,36.868,25.577,6.5891,-17.249
-27.717,-32.118,2.3621,-9.5706,-8.6117,-25.78,-14.199,-2.3566,17.179,-13.413,4.0887,-9.601,36.737,25.52,6.62,-17.236
-27.717,-32.118,2.3621,-9.5706,-8.6117,-25.78,-14.199,-2.3566,17.179,-13.413,4.0887,-9.601,36.737,25.52,6.62,-17.236
-27.681,-32.05,2.367,-9.5481,-8.5069,-25.819,-14.183,-2.3541,17.104,-13.392,4.1144,-9.5732,36.606,25.462,6.6506,-17.223
-27.681,-32.05,2.367,-9.5481,-8.5069,-25.819,-14.183,-2.3541,17.104,-13.392,4.1144,-9.5732,36.606,25.462,6.6506,-17.223
-27.645,-31.982,2.3715,-9.5256,-8.4017,-25.857,-14.167,-2.3523,17.028,-13.372,4.1398,-9.5455,36.475,25.403,6.6808,-17.211
-27.609,-31.913,2.3755,-9.5033,-8.2963,-25.894,-14.151,-2.3512,16.953,-13.351,4.1648,-9.5179,36.343,25.344,6.7107,-17.198
-27.609,-31.913,2.3755,-9.5033,-8.2963,-25.894,-14.151,-2.3512,16.953,-13.351,4.1648,-9.5179,36.343,25.344,6.7107,-17.198
-27.609,-31.913,2.3755,-9.5033,-8.2963,-25.894,-14.151,-2.3512,16.953,-13.351,4.1648,-9.5179,36.343,25.344,6.7107,-17.198
-27.572,-31.844,2.3792,-9.4811,-8.1905,-25.932,-14.136,-2.3508,16.878,-13.33,4.1895,-9.4904,36.211,25.283,6.7401,-17.186
-27.572,-31.844,2.3792,-9.4811,-8.1905,-25.932,-14.136,-2.3508,16.878,-13.33,4.1895,-9.4904,36.211,25.283,6.7401,-17.186
-27.535,-31.775,2.3825,-9.459,-8.0845,-25.969,-14.121,-2.351,16.802,-13.309,4.2139,-9.4629,36.079,25.223,6.7692,-17.173
-27.535,-31.775,2.3825,-9.459,-8.0845,-25.969,-14.121,-2.351,16.802,-13.309,4.2139,-9.4629,36.079,25.223,6.7692,-17.173
-27.497,-31.705,2.3854,-9.4371,-7.9782,-26.006,-14.107,-2.3519,16.727,-13.288,4.2379,-9.4356,35.946,25.161,6.7979,-17.161
-27.497,-31.705,2.3854,-9.4371,-7.9782,-26.006,-14.107,-2.3519,16.727,-13.288,4.2379,-9.4356,35.946,25.161,6.7979,-17.161
-27.459,-31.634,2.388,-9.4152,-7.8716,-26.043,-14.093,-2.3534,16.652,-13.266,4.2616,-9.4084,35.813,25.099,6.8262,-17.15
-27.459,-31.634,2.388,-9.4152,-7.8716,-26.043,-14.093,-2.3534,16.652,-13.266,4.2616,-9.4084,35.813,25.099,6.8262,-17.15
-27.42,-31.563,2.3902,-9.3935,-7.7647,-26.08,-14.08,-2.3556,16.576,-13.245,4.285,-9.3812,35.68,25.036,6.8541,-17.138
-27.42,-31.563,2.3902,-9.3935,-7.7647,-26.08,-14.08,-2.3556,16.576,-13.245,4.285,-9.3812,35.68,25.036,6.8541,-17.138
