1468.3,54.424,20.103,-2.1492e-07,-0.013714,1.4661e-10,1660.2,50.799,0,0,0,0,0.0088853,0
1468.3,54.424,20.103,-2.1492e-07,-0.013714,1.4661e-10,1660.2,50.799,0,0,0,0,0.0088853,0
1468.3,54.424,20.103,-2.1492e-07,-0.013714,1.4661e-10,1660.2,50.799,0,0,0,0,0.0088853,0
1469.5,54.424,20.103,-2.1491e-07,-0.013958,1.4925e-10,1660.2,50.799,0,0,0,0,0.0089415,0
1469.5,54.424,20.103,-2.1491e-07,-0.013958,1.4925e-10,1660.2,50.799,0,0,0,0,0.0089415,0
1469.5,54.424,20.103,-2.1491e-07,-0.013958,1.4925e-10,1660.2,50.799,0,0,0,0,0.0089415,0
1469.5,54.424,20.103,-2.1491e-07,-0.013958,1.4925e-10,1660.2,50.799,0,0,0,0,0.0089415,0
1469.5,54.424,20.103,-2.1491e-07,-0.013958,1.4925e-10,1660.2,50.799,0,0,0,0,0.0089415,0
1469.5,54.424,20.103,-2.1491e-07,-0.013958,1.4925e-10,1660.2,50.799,0,0,0,0,0.0089415,0
1469.5,54.424,20.103,-2.1491e-07,-0.013958,1.4925e-10,1660.2,50.799,0,0,0,0,0.0089415,0
1469.5,54.424,20.103,-2.1491e-07,-0.013958,1.4925e-10,1660.2,50.799,0,0,0,0,0.0089415,0
1469.5,54.424,20.103,-2.1491e-07,-0.013958,1.4925e-10,1660.2,50.799,0,0,0,0,0.0089415,0
1469.5,54.424,20.103,-2.1491e-07,-0.013958,1.4925e-10,1660.2,50.799,0,0,0,0,0.0089415,0
1469.5,54.424,20.103,-2.1491e-07,-0.013958,1.4925e-10,1660.2,50.799,0,0,0,0,0.0089415,0
1469.5,54.424,20.103,-2.1491e-07,-0.013958,1.4925e-10,1660.2,50.799,0,0,0,0,0.0089415,0
1469.5,54.424,20.103,-2.1491e-07,-0.013958,1.4925e-10,1660.2,50.799,0,0,0,0,0.0089415,0
1469.5,54.424,20.103,-2.1491e-07,-0.013958,1.4925e-10,1660.2,50.799,0,0,0,0,0.0089415,0
1469.5,54.424,20.103,-2.1491e-07,-0.013958,1.4925e-10,1660.2,50.799,0,0,0,0,0.0089415,0
1469.5,54.424,20.103,-2.1491e-07,-0.013958,1.4925e-10,1660.2,50.799,0,0,0,0,0.0089415,0
1471.5,54.424,20.101,-2.149e-07,-0.014362,1.5356e-10,1660.2,50.799,0,0,0,0,0.0090368,0
1472.7,54.424,20.1,-2.1489e-07,-0.014605,1.5614e-10,1660.2,50.799,0,0,0,0,0.0090949,0
1473.9,54.424,20.099,-2.1488e-07,-0.014843,1.5867e-10,1660.2,50.799,0,0,0,0,0.0091538,0
1473.9,54.424,20.099,-2.1488e-07,-0.014843,1.5867e-10,1660.2,50.799,0,0,0,0,0.0091538,0
1473.9,54.424,20.099,-2.1488e-07,-0.014843,1.5867e-10,1660.2,50.799,0,0,0,0,0.0091538,0
1473.9,54.424,20.099,-2.1488e-07,-0.014843,1.5867e-10,1660.2,50.799,0,0,0,0,0.0091538,0
1473.9,54.424,20.099,-2.1488e-07,-0.014843,1.5867e-10,1660.2,50.799,0,0,0,0,0.0091538,0
1473.9,54.424,20.099,-2.1488e-07,-0.014843,1.5867e-10,1660.2,50.799,0,0,0,0,0.0091538,0
1473.9,54.424,20.099,-2.1488e-07,-0.014843,1.5867e-10,1660.2,50.799,0,0,0,0,0.0091538,0
1473.9,54.424,20.099,-2.1488e-07,-0.014843,1.5867e-10,1660.2,50.799,0,0,0,0,0.0091538,0
1473.9,54.424,20.099,-2.1488e-07,-0.014843,1.5867e-10,1660.2,50.799,0,0,0,0,0.0091538,0
1473.9,54.424,20.099,-2.1488e-07,-0.014843,1.5867e-10,1660.2,50.799,0,0,0,0,0.0091538,0
1473.9,54.424,20.099,-2.1488e-07,-0.014843,1.5867e-10,1660.2,50.799,0,0,0,0,0.0091538,0
1473.9,54.424,20.099,-2.1488e-07,-0.014843,1.5867e-10,1660.2,50.799,0,0,0,0,0.0091538,0
1473.9,54.424,20.099,-2.1488e-07,-0.014843,1.5867e-10,1660.2,50.799,0,0,0,0,0.0091538,0
1473.9,54.424,20.099,-2.1488e-07,-0.014843,1.5867e-10,1660.2,50.799,0,0,0,0,0.0091538,0
1475.5,54.424,20.098,-2.1487e-07,-0.015163,1.6213e-10,1660.2,50.799,0,0,0,0,0.0092334,0
1475.5,54.424,20.098,-2.1487e-07,-0.015163,1.6213e-10,1660.2,50.799,0,0,0,0,0.0092334,0
1475.5,54.424,20.098,-2.1487e-07,-0.015163,1.6213e-10,1660.2,50.799,0,0,0,0,0.0092334,0
1475.5,54.424,20.098,-2.1487e-07,-0.015163,1.6213e-10,1660.2,50.799,0,0,0,0,0.0092334,0
1475.5,54.424,20.098,-2.1487e-07,-0.015163,1.6213e-10,1660.2,50.799,0,0,0,0,0.0092334,0
1475.5,54.424,20.098,-2.1487e-07,-0.015163,1.6213e-10,1660.2,50.799,0,0,0,0,0.0092334,0
1475.5,54.424,20.098,-2.1487e-07,-0.015163,1.6213e-10,1660.2,50.799,0,0,0,0,0.0092334,0
1475.5,54.424,20.098,-2.1487e-07,-0.015163,1.6213e-10,1660.2,50.799,0,0,0,0,0.0092334,0
1475.5,54.424,20.098,-2.1487e-07,-0.015163,1.6213e-10,1660.2,50.799,0,0,0,0,0.0092334,0
1476.3,54.424,20.098,-2.1486e-07,-0.01532,1.6379e-10,1660.2,50.799,0,0,0,0,0.0092738,0
1478,54.424,20.096,-2.1485e-07,-0.015638,1.6719e-10,1660.2,50.799,0,0,0,0,0.0093556,0
1478,54.424,20.096,-2.1485e-07,-0.015638,1.6719e-10,1660.2,50.799,0,0,0,0,0.0093556,0
1479.6,54.424,20.095,-2.1483e-07,-0.015953,1.7054e-10,1660.2,50.799,0,0,0,0,0.0094389,0
1479.6,54.424,20.095,-2.1483e-07,-0.015953,1.7054e-10,1660.2,50.799,0,0,0,0,0.0094389,0
1479.6,54.424,20.095,-2.1483e-07,-0.015953,1.7054e-10,1660.2,50.799,0,0,0,0,0.0094389,0
1479.6,54.424,20.095,-2.1483e-07,-0.015953,1.7054e-10,1660.2,50.799,0,0,0,0,0.0094389,0
1479.6,54.424,20.095,-2.1483e-07,-0.015953,1.7054e-10,1660.2,50.799,0,0,0,0,0.0094389,0
1479.6,54.424,20.095,-2.1483e-07,-0.015953,1.7054e-10,1660.2,50.799,0,0,0,0,0.0094389,0
1479.6,54.424,20.095,-2.1483e-07,-0.015953,1.7054e-10,1660.2,50.799,0,0,0,0,0.0094389,0
1479.6,54.424,20.095,-2.1483e-07,-0.015953,1.7054e-10,1660.2,50.799,0,0,0,0,0.0094389,0
1479.6,54.424,20.095,-2.1483e-07,-0.015953,1.7054e-10,1660.2,50.799,0,0,0,0,0.0094389,0
1479.6,54.424,20.095,-2.1483e-07,-0.015953,1.7054e-10,1660.2,50.799,0,0,0,0,0.0094389,0
1480.4,54.424,20.094,-2.1483e-07,-0.01611,1.7218e-10,1660.2,50.799,0,0,0,0,0.009481,0
1480.4,54.424,20.094,-2.1483e-07,-0.01611,1.7218e-10,1660.2,50.799,0,0,0,0,0.009481,0
1480.4,54.424,20.094,-2.1483e-07,-0.01611,1.7218e-10,1660.2,50.799,0,0,0,0,0.009481,0
1480.4,54.424,20.094,-2.1483e-07,-0.01611,1.7218e-10,1660.2,50.799,0,0,0,0,0.009481,0
1480.4,54.424,20.094,-2.1483e-07,-0.01611,1.7218e-10,1660.2,50.799,0,0,0,0,0.009481,0
1480.4,54.424,20.094,-2.1483e-07,-0.01611,1.7218e-10,1660.2,50.799,0,0,0,0,0.009481,0
1480.4,54.424,20.094,-2.1483e-07,-0.01611,1.7218e-10,1660.2,50.799,0,0,0,0,0.009481,0
1480.4,54.424,20.094,-2.1483e-07,-0.01611,1.7218e-10,1660.2,50.799,0,0,0,0,0.009481,0
1480.4,54.424,20.094,-2.1483e-07,-0.01611,1.7218e-10,1660.2,50.799,0,0,0,0,0.009481,0
1480.4,54.424,20.094,-2.1483e-07,-0.01611,1.7218e-10,1660.2,50.799,0,0,0,0,0.009481,0
1480.4,54.424,20.094,-2.1483e-07,-0.01611,1.7218e-10,1660.2,50.799,0,0,0,0,0.009481,0
1480.4,54.424,20.094,-2.1483e-07,-0.01611,1.7218e-10,1660.2,50.799,0,0,0,0,0.009481,0
1481.2,54.424,20.094,-2.1482e-07,-0.016264,1.7382e-10,1660.2,50.799,0,0,0,0,0.0095236,0
1481.2,54.424,20.094,-2.1482e-07,-0.016264,1.7382e-10,1660.2,50.799,0,0,0,0,0.0095236,0
1482.8,54.424,20.092,-2.1481e-07,-0.016577,1.7718e-10,1660.2,50.799,0,0,0,0,0.0096099,0
1484.4,54.424,20.091,-2.1479e-07,-0.01689,1.8046e-10,1660.2,50.799,0,0,0,0,0.0096977,0
1484.4,54.424,20.091,-2.1479e-07,-0.01689,1.8046e-10,1660.2,50.799,0,0,0,0,0.0096977,0
1484.4,54.424,20.091,-2.1479e-07,-0.01689,1.8046e-10,1660.2,50.799,0,0,0,0,0.0096977,0
1484.4,54.424,20.091,-2.1479e-07,-0.01689,1.8046e-10,1660.2,50.799,0,0,0,0,0.0096977,0
1484.4,54.424,20.091,-2.1479e-07,-0.01689,1.8046e-10,1660.2,50.799,0,0,0,0,0.0096977,0
1484.4,54.424,20.091,-2.1479e-07,-0.01689,1.8046e-10,1660.2,50.799,0,0,0,0,0.0096977,0
1484.4,54.424,20.091,-2.1479e-07,-0.01689,1.8046e-10,1660.2,50.799,0,0,0,0,0.0096977,0
1484.4,54.424,20.091,-2.1479e-07,-0.01689,1.8046e-10,1660.2,50.799,0,0,0,0,0.0096977,0
1485.6,54.424,20.09,-2.1478e-07,-0.01712,1.8298e-10,1660.2,50.799,0,0,0,0,0.0097646,0
1485.6,54.424,20.09,-2.1478e-07,-0.01712,1.8298e-10,1660.2,50.799,0,0,0,0,0.0097646,0
1485.6,54.424,20.09,-2.1478e-07,-0.01712,1.8298e-10,1660.2,50.799,0,0,0,0,0.0097646,0
1485.6,54.424,20.09,-2.1478e-07,-0.01712,1.8298e-10,1660.2,50.799,0,0,0,0,0.0097646,0
1485.6,54.424,20.09,-2.1478e-07,-0.01712,1.8298e-10,1660.2,50.799,0,0,0,0,0.0097646,0
1485.6,54.424,20.09,-2.1478e-07,-0.01712,1.8298e-10,1660.2,50.799,0,0,0,0,0.0097646,0
1485.6,54.424,20.09,-2.1478e-07,-0.01712,1.8298e-10,1660.2,50.799,0,0,0,0,0.0097646,0
1485.6,54.424,20.09,-2.1478e-07,-0.01712,1.8298e-10,1660.2,50.799,0,0,0,0,0.0097646,0
1485.6,54.424,20.09,-2.1478e-07,-0.01712,1.8298e-10,1660.2,50.799,0,0,0,0,0.0097646,0
1485.6,54.424,20.09,-2.1478e-07,-0.01712,1.8298e-10,1660.2,50.799,0,0,0,0,0.0097646,0
1485.6,54.424,20.09,-2.1478e-07,-0.01712,1.8298e-10,1660.2,50.799,0,0,0,0,0.0097646,0
1485.6,54.424,20.09,-2.1478e-07,-0.01712,1.8298e-10,1660.2,50.799,0,0,0,0,0.0097646,0
1485.6,54.424,20.09,-2.1478e-07,-0.01712,1.8298e-10,1660.2,50.799,0,0,0,0,0.0097646,0
1485.6,54.424,20.09,-2.1478e-07,-0.01712,1.8298e-10,1660.2,50.799,0,0,0,0,0.0097646,0
1485.6,54.424,20.09,-2.1478e-07,-0.01712,1.8298e-10,1660.2,50.799,0,0,0,0,0.0097646,0
1485.6,54.424,20.09,-2.1478e-07,-0.01712,1.8298e-10,1660.2,50.799,0,0,0,0,0.0097646,0
1485.6,54.424,20.09,-2.1478e-07,-0.01712,1.8298e-10,1660.2,50.799,0,0,0,0,0.0097646,0
1485.6,54.424,20.09,-2.1478e-07,-0.01712,1.8298e-10,1660.2,50.799,0,0,0,0,0.0097646,0
1487.2,54.424,20.089,-2.1477e-07,-0.017429,1.8629e-10,1660.2,50.799,0,0,0,0,0.0098553,0
1487.2,54.424,20.089,-2.1477e-07,-0.017429,1.8629e-10,1660.2,50.799,0,0,0,0,0.0098553,0
1489.2,54.424,20.087,-2.1475e-07,-0.017813,1.9036e-10,1660.2,50.799,0,0,0,0,0.0099711,0
1489.6,54.424,20.087,-2.1474e-07,-0.017889,1.912e-10,1660.2,50.799,0,0,0,0,0.0099946,0
1489.6,54.424,20.087,-2.1474e-07,-0.017889,1.912e-10,1660.2,50.799,0,0,0,0,0.0099946,0
1489.6,54.424,20.087,-2.1474e-07,-0.017889,1.912e-10,1660.2,50.799,0,0,0,0,0.0099946,0
1489.6,54.424,20.087,-2.1474e-07,-0.017889,1.912e-10,1660.2,50.799,0,0,0,0,0.0099946,0
1489.6,54.424,20.087,-2.1474e-07,-0.017889,1.912e-10,1660.2,50.799,0,0,0,0,0.0099946,0
1489.6,54.424,20.087,-2.1474e-07,-0.017889,1.912e-10,1660.2,50.799,0,0,0,0,0.0099946,0
1489.6,54.424,20.087,-2.1474e-07,-0.017889,1.912e-10,1660.2,50.799,0,0,0,0,0.0099946,0
1491.2,54.424,20.085,-2.1473e-07,-0.018196,1.945e-10,1660.2,50.799,0,0,0,0,0.01009,0
1491.2,54.424,20.085,-2.1473e-07,-0.018196,1.945e-10,1660.2,50.799,0,0,0,0,0.01009,0
1491.2,54.424,20.085,-2.1473e-07,-0.018196,1.945e-10,1660.2,50.799,0,0,0,0,0.01009,0
1491.2,54.424,20.085,-2.1473e-07,-0.018196,1.945e-10,1660.2,50.799,0,0,0,0,0.01009,0
1491.2,54.424,20.085,-2.1473e-07,-0.018196,1.945e-10,1660.2,50.799,0,0,0,0,0.01009,0
1491.2,54.424,20.085,-2.1473e-07,-0.018196,1.945e-10,1660.2,50.799,0,0,0,0,0.01009,0
1491.2,54.424,20.085,-2.1473e-07,-0.018196,1.945e-10,1660.2,50.799,0,0,0,0,0.01009,0
1491.2,54.424,20.085,-2.1473e-07,-0.018196,1.945e-10,1660.2,50.799,0,0,0,0,0.01009,0
1491.2,54.424,20.085,-2.1473e-07,-0.018196,1.945e-10,1660.2,50.799,0,0,0,0,0.01009,0
1491.2,54.424,20.085,-2.1473e-07,-0.018196,1.945e-10,1660.2,50.799,0,0,0,0,0.01009,0
1491.2,54.424,20.085,-2.1473e-07,-0.018196,1.945e-10,1660.2,50.799,0,0,0,0,0.01009,0
1491.2,54.424,20.085,-2.1473e-07,-0.018196,1.945e-10,1660.2,50.799,0,0,0,0,0.01009,0
1491.2,54.424,20.085,-2.1473e-07,-0.018196,1.945e-10,1660.2,50.799,0,0,0,0,0.01009,0
1491.2,54.424,20.085,-2.1473e-07,-0.018196,1.945e-10,1660.2,50.799,0,0,0,0,0.01009,0
1491.2,54.424,20.085,-2.1473e-07,-0.018196,1.945e-10,1660.2,50.799,0,0,0,0,0.01009,0
1491.2,54.424,20.085,-2.1473e-07,-0.018196,1.945e-10,1660.2,50.799,0,0,0,0,0.01009,0
1491.2,54.424,20.085,-2.1473e-07,-0.018196,1.945e-10,1660.2,50.799,0,0,0,0,0.01009,0
1491.2,54.424,20.085,-2.1473e-07,-0.018196,1.945e-10,1660.2,50.799,0,0,0,0,0.01009,0
1492.8,54.424,20.084,-2.1471e-07,-0.018502,1.9782e-10,1660.2,50.799,0,0,0,0,0.010186,0
1492.8,54.424,20.084,-2.1471e-07,-0.018502,1.9782e-10,1660.2,50.799,0,0,0,0,0.010186,0
1494.8,54.424,20.082,-2.1469e-07,-0.018881,2.0191e-10,1660.2,50.799,0,0,0,0,0.01031,0
1495.2,54.424,20.081,-2.1469e-07,-0.018957,2.0266e-10,1660.2,50.799,0,0,0,0,0.010335,0
1495.2,54.424,20.081,-2.1469e-07,-0.018957,2.0266e-10,1660.2,50.799,0,0,0,0,0.010335,0
1495.2,54.424,20.081,-2.1469e-07,-0.018957,2.0266e-10,1660.2,50.799,0,0,0,0,0.010335,0
1495.2,54.424,20.081,-2.1469e-07,-0.018957,2.0266e-10,1660.2,50.799,0,0,0,0,0.010335,0
1495.2,54.424,20.081,-2.1469e-07,-0.018957,2.0266e-10,1660.2,50.799,0,0,0,0,0.010335,0
1495.2,54.424,20.081,-2.1469e-07,-0.018957,2.0266e-10,1660.2,50.799,0,0,0,0,0.010335,0
1495.2,54.424,20.081,-2.1469e-07,-0.018957,2.0266e-10,1660.2,50.799,0,0,0,0,0.010335,0
1495.2,54.424,20.081,-2.1469e-07,-0.018957,2.0266e-10,1660.2,50.799,0,0,0,0,0.010335,0
1495.2,54.424,20.081,-2.1469e-07,-0.018957,2.0266e-10,1660.2,50.799,0,0,0,0,0.010335,0
1495.2,54.424,20.081,-2.1469e-07,-0.018957,2.0266e-10,1660.2,50.799,0,0,0,0,0.010335,0
1496.8,54.424,20.08,-2.1467e-07,-0.019259,2.059e-10,1660.2,50.799,0,0,0,0,0.010437,0
1496.8,54.424,20.08,-2.1467e-07,-0.019259,2.059e-10,1660.2,50.799,0,0,0,0,0.010437,0
1496.8,54.424,20.08,-2.1467e-07,-0.019259,2.059e-10,1660.2,50.799,0,0,0,0,0.010437,0
1496.8,54.424,20.08,-2.1467e-07,-0.019259,2.059e-10,1660.2,50.799,0,0,0,0,0.010437,0
1496.8,54.424,20.08,-2.1467e-07,-0.019259,2.059e-10,1660.2,50.799,0,0,0,0,0.010437,0
1496.8,54.424,20.08,-2.1467e-07,-0.019259,2.059e-10,1660.2,50.799,0,0,0,0,0.010437,0
1496.8,54.424,20.08,-2.1467e-07,-0.019259,2.059e-10,1660.2,50.799,0,0,0,0,0.010437,0
1496.8,54.424,20.08,-2.1467e-07,-0.019259,2.059e-10,1660.2,50.799,0,0,0,0,0.010437,0
1496.8,54.424,20.08,-2.1467e-07,-0.019259,2.059e-10,1660.2,50.799,0,0,0,0,0.010437,0
1496.8,54.424,20.08,-2.1467e-07,-0.019259,2.059e-10,1660.2,50.799,0,0,0,0,0.010437,0
1496.8,54.424,20.08,-2.1467e-07,-0.019259,2.059e-10,1660.2,50.799,0,0,0,0,0.010437,0
1496.8,54.424,20.08,-2.1467e-07,-0.019259,2.059e-10,1660.2,50.799,0,0,0,0,0.010437,0
1496.8,54.424,20.08,-2.1467e-07,-0.019259,2.059e-10,1660.2,50.799,0,0,0,0,0.010437,0
1496.8,54.424,20.08,-2.1467e-07,-0.019259,2.059e-10,1660.2,50.799,0,0,0,0,0.010437,0
1496.8,54.424,20.08,-2.1467e-07,-0.019259,2.059e-10,1660.2,50.799,0,0,0,0,0.010437,0
1496.8,54.424,20.08,-2.1467e-07,-0.019259,2.059e-10,1660.2,50.799,0,0,0,0,0.010437,0
1497.6,54.424,20.079,-2.1466e-07,-0.019408,2.0748e-10,1660.2,50.799,0,0,0,0,0.010488,0
1497.6,54.424,20.079,-2.1466e-07,-0.019408,2.0748e-10,1660.2,50.799,0,0,0,0,0.010488,0
1499.2,54.424,20.078,-2.1465e-07,-0.019709,2.1075e-10,1660.2,50.799,0,0,0,0,0.010593,0
1499.2,54.424,20.078,-2.1465e-07,-0.019709,2.1075e-10,1660.2,50.799,0,0,0,0,0.010593,0
1501.3,54.424,20.076,-2.1463e-07,-0.020084,2.1474e-10,1660.2,50.799,0,0,0,0,0.010727,0
1501.3,54.424,20.076,-2.1463e-07,-0.020084,2.1474e-10,1660.2,50.799,0,0,0,0,0.010727,0
1501.3,54.424,20.076,-2.1463e-07,-0.020084,2.1474e-10,1660.2,50.799,0,0,0,0,0.010727,0
1502.5,54.424,20.074,-2.1461e-07,-0.020309,2.1718e-10,1660.2,50.799,0,0,0,0,0.010809,0
1502.5,54.424,20.074,-2.1461e-07,-0.020309,2.1718e-10,1660.2,50.799,0,0,0,0,0.010809,0
1502.5,54.424,20.074,-2.1461e-07,-0.020309,2.1718e-10,1660.2,50.799,0,0,0,0,0.010809,0
1502.5,54.424,20.074,-2.1461e-07,-0.020309,2.1718e-10,1660.2,50.799,0,0,0,0,0.010809,0
1502.5,54.424,20.074,-2.1461e-07,-0.020309,2.1718e-10,1660.2,50.799,0,0,0,0,0.010809,0
1502.5,54.424,20.074,-2.1461e-07,-0.020309,2.1718e-10,1660.2,50.799,0,0,0,0,0.010809,0
1502.5,54.424,20.074,-2.1461e-07,-0.020309,2.1718e-10,1660.2,50.799,0,0,0,0,0.010809,0
1502.5,54.424,20.074,-2.1461e-07,-0.020309,2.1718e-10,1660.2,50.799,0,0,0,0,0.010809,0
1502.5,54.424,20.074,-2.1461e-07,-0.020309,2.1718e-10,1660.2,50.799,0,0,0,0,0.010809,0
1502.5,54.424,20.074,-2.1461e-07,-0.020309,2.1718e-10,1660.2,50.799,0,0,0,0,0.010809,0
1502.5,54.424,20.074,-2.1461e-07,-0.020309,2.1718e-10,1660.2,50.799,0,0,0,0,0.010809,0
1502.5,54.424,20.074,-2.1461e-07,-0.020309,2.1718e-10,1660.2,50.799,0,0,0,0,0.010809,0
1502.5,54.424,20.074,-2.1461e-07,-0.020309,2.1718e-10,1660.2,50.799,0,0,0,0,0.010809,0
1502.5,54.424,20.074,-2.1461e-07,-0.020309,2.1718e-10,1660.2,50.799,0,0,0,0,0.010809,0
1502.5,54.424,20.074,-2.1461e-07,-0.020309,2.1718e-10,1660.2,50.799,0,0,0,0,0.010809,0
1502.5,54.424,20.074,-2.1461e-07,-0.020309,2.1718e-10,1660.2,50.799,0,0,0,0,0.010809,0
1504.9,54.424,20.072,-2.1459e-07,-0.020753,2.2196e-10,1660.2,50.799,0,0,0,0,0.010976,0
1504.9,54.424,20.072,-2.1459e-07,-0.020753,2.2196e-10,1660.2,50.799,0,0,0,0,0.010976,0
1504.9,54.424,20.072,-2.1459e-07,-0.020753,2.2196e-10,1660.2,50.799,0,0,0,0,0.010976,0
1505.7,54.424,20.071,-2.1458e-07,-0.020903,2.2346e-10,1660.2,50.799,0,0,0,0,0.011033,0
1506.5,54.424,20.07,-2.1457e-07,-0.02105,2.2505e-10,1660.2,50.799,0,0,0,0,0.011091,0
1506.5,54.424,20.07,-2.1457e-07,-0.02105,2.2505e-10,1660.2,50.799,0,0,0,0,0.011091,0
1506.5,54.424,20.07,-2.1457e-07,-0.02105,2.2505e-10,1660.2,50.799,0,0,0,0,0.011091,0
1506.5,54.424,20.07,-2.1457e-07,-0.02105,2.2505e-10,1660.2,50.799,0,0,0,0,0.011091,0
1506.5,54.424,20.07,-2.1457e-07,-0.02105,2.2505e-10,1660.2,50.799,0,0,0,0,0.011091,0
1506.5,54.424,20.07,-2.1457e-07,-0.02105,2.2505e-10,1660.2,50.799,0,0,0,0,0.011091,0
1506.5,54.424,20.07,-2.1457e-07,-0.02105,2.2505e-10,1660.2,50.799,0,0,0,0,0.011091,0
1506.5,54.424,20.07,-2.1457e-07,-0.02105,2.2505e-10,1660.2,50.799,0,0,0,0,0.011091,0
1506.5,54.424,20.07,-2.1457e-07,-0.02105,2.2505e-10,1660.2,50.799,0,0,0,0,0.011091,0
1506.5,54.424,20.07,-2.1457e-07,-0.02105,2.2505e-10,1660.2,50.799,0,0,0,0,0.011091,0
1506.5,54.424,20.07,-2.1457e-07,-0.02105,2.2505e-10,1660.2,50.799,0,0,0,0,0.011091,0
1506.5,54.424,20.07,-2.1457e-07,-0.02105,2.2505e-10,1660.2,50.799,0,0,0,0,0.011091,0
1508.1,54.424,20.069,-2.1455e-07,-0.021344,2.2817e-10,1660.2,50.799,0,0,0,0,0.011208,0
1508.1,54.424,20.069,-2.1455e-07,-0.021344,2.2817e-10,1660.2,50.799,0,0,0,0,0.011208,0
1508.5,54.424,20.068,-2.1455e-07,-0.021416,2.2893e-10,1660.2,50.799,0,0,0,0,0.011237,0
1508.5,54.424,20.068,-2.1455e-07,-0.021416,2.2893e-10,1660.2,50.799,0,0,0,0,0.011237,0
1508.5,54.424,20.068,-2.1455e-07,-0.021416,2.2893e-10,1660.2,50.799,0,0,0,0,0.011237,0
1508.5,54.424,20.068,-2.1455e-07,-0.021416,2.2893e-10,1660.2,50.799,0,0,0,0,0.011237,0
1509.3,54.424,20.067,-2.1454e-07,-0.021565,2.3053e-10,1660.2,50.799,0,0,0,0,0.011297,0
1509.3,54.424,20.067,-2.1454e-07,-0.021565,2.3053e-10,1660.2,50.799,0,0,0,0,0.011297,0
1509.3,54.424,20.067,-2.1454e-07,-0.021565,2.3053e-10,1660.2,50.799,0,0,0,0,0.011297,0
1510.5,54.424,20.066,-2.1452e-07,-0.021782,2.329e-10,1660.2,50.799,0,0,0,0,0.011388,0
1510.5,54.424,20.066,-2.1452e-07,-0.021782,2.329e-10,1660.2,50.799,0,0,0,0,0.011388,0
1510.5,54.424,20.066,-2.1452e-07,-0.021782,2.329e-10,1660.2,50.799,0,0,0,0,0.011388,0
1510.5,54.424,20.066,-2.1452e-07,-0.021782,2.329e-10,1660.2,50.799,0,0,0,0,0.011388,0
1510.5,54.424,20.066,-2.1452e-07,-0.021782,2.329e-10,1660.2,50.799,0,0,0,0,0.011388,0
1510.5,54.424,20.066,-2.1452e-07,-0.021782,2.329e-10,1660.2,50.799,0,0,0,0,0.011388,0
1510.5,54.424,20.066,-2.1452e-07,-0.021782,2.329e-10,1660.2,50.799,0,0,0,0,0.011388,0
1510.5,54.424,20.066,-2.1452e-07,-0.021782,2.329e-10,1660.2,50.799,0,0,0,0,0.011388,0
1510.5,54.424,20.066,-2.1452e-07,-0.021782,2.329e-10,1660.2,50.799,0,0,0,0,0.011388,0
1511.3,54.424,20.065,-2.1451e-07,-0.021929,2.3438e-10,1660.2,50.799,0,0,0,0,0.011449,0
1511.3,54.424,20.065,-2.1451e-07,-0.021929,2.3438e-10,1660.2,50.799,0,0,0,0,0.011449,0
1511.3,54.424,20.065,-2.1451e-07,-0.021929,2.3438e-10,1660.2,50.799,0,0,0,0,0.011449,0
1511.3,54.424,20.065,-2.1451e-07,-0.021929,2.3438e-10,1660.2,50.799,0,0,0,0,0.011449,0
1511.3,54.424,20.065,-2.1451e-07,-0.021929,2.3438e-10,1660.2,50.799,0,0,0,0,0.011449,0
1511.3,54.424,20.065,-2.1451e-07,-0.021929,2.3438e-10,1660.2,50.799,0,0,0,0,0.011449,0
1511.3,54.424,20.065,-2.1451e-07,-0.021929,2.3438e-10,1660.2,50.799,0,0,0,0,0.011449,0
1511.3,54.424,20.065,-2.1451e-07,-0.021929,2.3438e-10,1660.2,50.799,0,0,0,0,0.011449,0
1512.9,54.424,20.063,-2.1449e-07,-0.022219,2.3756e-10,1660.2,50.799,0,0,0,0,0.011574,0
1512.9,54.424,20.063,-2.1449e-07,-0.022219,2.3756e-10,1660.2,50.799,0,0,0,0,0.011574,0
1512.9,54.424,20.063,-2.1449e-07,-0.022219,2.3756e-10,1660.2,50.799,0,0,0,0,0.011574,0
1512.9,54.424,20.063,-2.1449e-07,-0.022219,2.3756e-10,1660.2,50.799,0,0,0,0,0.011574,0
1512.9,54.424,20.063,-2.1449e-07,-0.022219,2.3756e-10,1660.2,50.799,0,0,0,0,0.011574,0
1512.9,54.424,20.063,-2.1449e-07,-0.022219,2.3756e-10,1660.2,50.799,0,0,0,0,0.011574,0
1512.9,54.424,20.063,-2.1449e-07,-0.022219,2.3756e-10,1660.2,50.799,0,0,0,0,0.011574,0
1512.9,54.424,20.063,-2.1449e-07,-0.022219,2.3756e-10,1660.2,50.799,0,0,0,0,0.011574,0
1512.9,54.424,20.063,-2.1449e-07,-0.022219,2.3756e-10,1660.2,50.799,0,0,0,0,0.011574,0
1512.9,54.424,20.063,-2.1449e-07,-0.022219,2.3756e-10,1660.2,50.799,0,0,0,0,0.011574,0
1514.1,54.424,20.062,-2.1448e-07,-0.022436,2.3988e-10,1660.2,50.799,0,0,0,0,0.011669,0
1514.1,54.424,20.062,-2.1448e-07,-0.022436,2.3988e-10,1660.2,50.799,0,0,0,0,0.011669,0
1514.1,54.424,20.062,-2.1448e-07,-0.022436,2.3988e-10,1660.2,50.799,0,0,0,0,0.011669,0
1514.1,54.424,20.062,-2.1448e-07,-0.022436,2.3988e-10,1660.2,50.799,0,0,0,0,0.011669,0
1514.1,54.424,20.062,-2.1448e-07,-0.022436,2.3988e-10,1660.2,50.799,0,0,0,0,0.011669,0
1514.1,54.424,20.062,-2.1448e-07,-0.022436,2.3988e-10,1660.2,50.799,0,0,0,0,0.011669,0
1514.1,54.424,20.062,-2.1448e-07,-0.022436,2.3988e-10,1660.2,50.799,0,0,0,0,0.011669,0
1514.1,54.424,20.062,-2.1448e-07,-0.022436,2.3988e-10,1660.2,50.799,0,0,0,0,0.011669,0
1514.1,54.424,20.062,-2.1448e-07,-0.022436,2.3988e-10,1660.2,50.799,0,0,0,0,0.011669,0
1514.1,54.424,20.062,-2.1448e-07,-0.022436,2.3988e-10,1660.2,50.799,0,0,0,0,0.011669,0
1515.7,54.424,20.06,-2.1446e-07,-0.022726,2.4296e-10,1660.2,50.799,0,0,0,0,0.011799,0
1516.5,54.424,20.059,-2.1445e-07,-0.02287,2.4443e-10,1660.2,50.799,0,0,0,0,0.011865,0
1516.5,54.424,20.059,-2.1445e-07,-0.02287,2.4443e-10,1660.2,50.799,0,0,0,0,0.011865,0
1516.5,54.424,20.059,-2.1445e-07,-0.02287,2.4443e-10,1660.2,50.799,0,0,0,0,0.011865,0
1517.7,54.424,20.058,-2.1444e-07,-0.023087,2.4684e-10,1660.2,50.799,0,0,0,0,0.011965,0
1519.3,54.424,20.056,-2.1442e-07,-0.023374,2.4989e-10,1660.2,50.799,0,0,0,0,0.012101,0
1519.3,54.424,20.056,-2.1442e-07,-0.023374,2.4989e-10,1660.2,50.799,0,0,0,0,0.012101,0
1519.3,54.424,20.056,-2.1442e-07,-0.023374,2.4989e-10,1660.2,50.799,0,0,0,0,0.012101,0
1519.3,54.424,20.056,-2.1442e-07,-0.023374,2.4989e-10,1660.2,50.799,0,0,0,0,0.012101,0
1519.7,54.424,20.056,-2.1441e-07,-0.023445,2.5065e-10,1660.2,50.799,0,0,0,0,0.012136,0
1519.7,54.424,20.056,-2.1441e-07,-0.023445,2.5065e-10,1660.2,50.799,0,0,0,0,0.012136,0
1519.7,54.424,20.056,-2.1441e-07,-0.023445,2.5065e-10,1660.2,50.799,0,0,0,0,0.012136,0
1519.7,54.424,20.056,-2.1441e-07,-0.023445,2.5065e-10,1660.2,50.799,0,0,0,0,0.012136,0
1519.7,54.424,20.056,-2.1441e-07,-0.023445,2.5065e-10,1660.2,50.799,0,0,0,0,0.012136,0
1519.7,54.424,20.056,-2.1441e-07,-0.023445,2.5065e-10,1660.2,50.799,0,0,0,0,0.012136,0
1519.7,54.424,20.056,-2.1441e-07,-0.023445,2.5065e-10,1660.2,50.799,0,0,0,0,0.012136,0
1519.7,54.424,20.056,-2.1441e-07,-0.023445,2.5065e-10,1660.2,50.799,0,0,0,0,0.012136,0
1519.7,54.424,20.056,-2.1441e-07,-0.023445,2.5065e-10,1660.2,50.799,0,0,0,0,0.012136,0
1519.7,54.424,20.056,-2.1441e-07,-0.023445,2.5065e-10,1660.2,50.799,0,0,0,0,0.012136,0
1519.7,54.424,20.056,-2.1441e-07,-0.023445,2.5065e-10,1660.2,50.799,0,0,0,0,0.012136,0
1520.5,54.424,20.055,-2.144e-07,-0.023589,2.5221e-10,1660.2,50.799,0,0,0,0,0.012205,0
1520.5,54.424,20.055,-2.144e-07,-0.023589,2.5221e-10,1660.2,50.799,0,0,0,0,0.012205,0
1520.5,54.424,20.055,-2.144e-07,-0.023589,2.5221e-10,1660.2,50.799,0,0,0,0,0.012205,0
1520.9,54.424,20.054,-2.144e-07,-0.02366,2.5302e-10,1660.2,50.799,0,0,0,0,0.012241,0
1521.3,54.424,20.054,-2.1439e-07,-0.023731,2.5375e-10,1660.2,50.799,0,0,0,0,0.012276,0
1522.5,54.424,20.052,-2.1438e-07,-0.023945,2.5602e-10,1660.2,50.799,0,0,0,0,0.012383,0
1523.7,54.424,20.051,-2.1436e-07,-0.024158,2.5828e-10,1660.2,50.799,0,0,0,0,0.012492,0
1524.1,54.424,20.05,-2.1436e-07,-0.024229,2.5903e-10,1660.2,50.799,0,0,0,0,0.012529,0
1524.1,54.424,20.05,-2.1436e-07,-0.024229,2.5903e-10,1660.2,50.799,0,0,0,0,0.012529,0
1524.1,54.424,20.05,-2.1436e-07,-0.024229,2.5903e-10,1660.2,50.799,0,0,0,0,0.012529,0
1524.1,54.424,20.05,-2.1436e-07,-0.024229,2.5903e-10,1660.2,50.799,0,0,0,0,0.012529,0
1524.1,54.424,20.05,-2.1436e-07,-0.024229,2.5903e-10,1660.2,50.799,0,0,0,0,0.012529,0
1524.1,54.424,20.05,-2.1436e-07,-0.024229,2.5903e-10,1660.2,50.799,0,0,0,0,0.012529,0
1524.1,54.424,20.05,-2.1436e-07,-0.024229,2.5903e-10,1660.2,50.799,0,0,0,0,0.012529,0
1524.1,54.424,20.05,-2.1436e-07,-0.024229,2.5903e-10,1660.2,50.799,0,0,0,0,0.012529,0
1524.1,54.424,20.05,-2.1436e-07,-0.024229,2.5903e-10,1660.2,50.799,0,0,0,0,0.012529,0
1524.1,54.424,20.05,-2.1436e-07,-0.024229,2.5903e-10,1660.2,50.799,0,0,0,0,0.012529,0
1524.1,54.424,20.05,-2.1436e-07,-0.024229,2.5903e-10,1660.2,50.799,0,0,0,0,0.012529,0
1524.1,54.424,20.05,-2.1436e-07,-0.024229,2.5903e-10,1660.2,50.799,0,0,0,0,0.012529,0
1524.1,54.424,20.05,-2.1436e-07,-0.024229,2.5903e-10,1660.2,50.799,0,0,0,0,0.012529,0
1524.1,54.424,20.05,-2.1436e-07,-0.024229,2.5903e-10,1660.2,50.799,0,0,0,0,0.012529,0
1524.1,54.424,20.05,-2.1436e-07,-0.024229,2.5903e-10,1660.2,50.799,0,0,0,0,0.012529,0
1524.1,54.424,20.05,-2.1436e-07,-0.024229,2.5903e-10,1660.2,50.799,0,0,0,0,0.012529,0
1524.1,54.424,20.05,-2.1436e-07,-0.024229,2.5903e-10,1660.2,50.799,0,0,0,0,0.012529,0
1524.1,54.424,20.05,-2.1436e-07,-0.024229,2.5903e-10,1660.2,50.799,0,0,0,0,0.012529,0
1524.1,54.424,20.05,-2.1436e-07,-0.024229,2.5903e-10,1660.2,50.799,0,0,0,0,0.012529,0
1524.9,54.424,20.049,-2.1434e-07,-0.024369,2.6055e-10,1660.2,50.799,0,0,0,0,0.012603,0
1524.9,54.424,20.049,-2.1434e-07,-0.024369,2.6055e-10,1660.2,50.799,0,0,0,0,0.012603,0
1524.9,54.424,20.049,-2.1434e-07,-0.024369,2.6055e-10,1660.2,50.799,0,0,0,0,0.012603,0
1524.9,54.424,20.049,-2.1434e-07,-0.024369,2.6055e-10,1660.2,50.799,0,0,0,0,0.012603,0
1524.9,54.424,20.049,-2.1434e-07,-0.024369,2.6055e-10,1660.2,50.799,0,0,0,0,0.012603,0
1524.9,54.424,20.049,-2.1434e-07,-0.024369,2.6055e-10,1660.2,50.799,0,0,0,0,0.012603,0
1524.9,54.424,20.049,-2.1434e-07,-0.024369,2.6055e-10,1660.2,50.799,0,0,0,0,0.012603,0
1525.7,54.424,20.048,-2.1433e-07,-0.024511,2.6207e-10,1660.2,50.799,0,0,0,0,0.012678,0
1525.7,54.424,20.048,-2.1433e-07,-0.024511,2.6207e-10,1660.2,50.799,0,0,0,0,0.012678,0
1525.7,54.424,20.048,-2.1433e-07,-0.024511,2.6207e-10,1660.2,50.799,0,0,0,0,0.012678,0
1525.7,54.424,20.048,-2.1433e-07,-0.024511,2.6207e-10,1660.2,50.799,0,0,0,0,0.012678,0
1528.5,54.424,20.045,-2.143e-07,-0.025,2.6723e-10,1660.2,50.799,0,0,0,0,0.012949,0
1528.5,54.424,20.045,-2.143e-07,-0.025,2.6723e-10,1660.2,50.799,0,0,0,0,0.012949,0
1529.7,54.424,20.043,-2.1428e-07,-0.025207,2.6942e-10,1660.2,50.799,0,0,0,0,0.013068,0
1529.7,54.424,20.043,-2.1428e-07,-0.025207,2.6942e-10,1660.2,50.799,0,0,0,0,0.013068,0
1530.5,54.424,20.042,-2.1427e-07,-0.025346,2.7095e-10,1660.2,50.799,0,0,0,0,0.013149,0
1530.5,54.424,20.042,-2.1427e-07,-0.025346,2.7095e-10,1660.2,50.799,0,0,0,0,0.013149,0
1530.5,54.424,20.042,-2.1427e-07,-0.025346,2.7095e-10,1660.2,50.799,0,0,0,0,0.013149,0
1530.5,54.424,20.042,-2.1427e-07,-0.025346,2.7095e-10,1660.2,50.799,0,0,0,0,0.013149,0
1530.5,54.424,20.042,-2.1427e-07,-0.025346,2.7095e-10,1660.2,50.799,0,0,0,0,0.013149,0
1530.5,54.424,20.042,-2.1427e-07,-0.025346,2.7095e-10,1660.2,50.799,0,0,0,0,0.013149,0
1530.5,54.424,20.042,-2.1427e-07,-0.025346,2.7095e-10,1660.2,50.799,0,0,0,0,0.013149,0
1530.5,54.424,20.042,-2.1427e-07,-0.025346,2.7095e-10,1660.2,50.799,0,0,0,0,0.013149,0
1530.5,54.424,20.042,-2.1427e-07,-0.025346,2.7095e-10,1660.2,50.799,0,0,0,0,0.013149,0
1530.5,54.424,20.042,-2.1427e-07,-0.025346,2.7095e-10,1660.2,50.799,0,0,0,0,0.013149,0
1530.5,54.424,20.042,-2.1427e-07,-0.025346,2.7095e-10,1660.2,50.799,0,0,0,0,0.013149,0
1530.5,54.424,20.042,-2.1427e-07,-0.025346,2.7095e-10,1660.2,50.799,0,0,0,0,0.013149,0
1530.5,54.424,20.042,-2.1427e-07,-0.025346,2.7095e-10,1660.2,50.799,0,0,0,0,0.013149,0
1530.5,54.424,20.042,-2.1427e-07,-0.025346,2.7095e-10,1660.2,50.799,0,0,0,0,0.013149,0
1530.5,54.424,20.042,-2.1427e-07,-0.025346,2.7095e-10,1660.2,50.799,0,0,0,0,0.013149,0
1530.5,54.424,20.042,-2.1427e-07,-0.025346,2.7095e-10,1660.2,50.799,0,0,0,0,0.013149,0
1530.5,54.424,20.042,-2.1427e-07,-0.025346,2.7095e-10,1660.2,50.799,0,0,0,0,0.013149,0
1530.5,54.424,20.042,-2.1427e-07,-0.025346,2.7095e-10,1660.2,50.799,0,0,0,0,0.013149,0
1530.5,54.424,20.042,-2.1427e-07,-0.025346,2.7095e-10,1660.2,50.799,0,0,0,0,0.013149,0
1530.5,54.424,20.042,-2.1427e-07,-0.025346,2.7095e-10,1660.2,50.799,0,0,0,0,0.013149,0
1530.5,54.424,20.042,-2.1427e-07,-0.025346,2.7095e-10,1660.2,50.799,0,0,0,0,0.013149,0
1532.9,54.424,20.039,-2.1424e-07,-0.025761,2.7536e-10,1660.2,50.799,0,0,0,0,0.013397,0
1532.9,54.424,20.039,-2.1424e-07,-0.025761,2.7536e-10,1660.2,50.799,0,0,0,0,0.013397,0
1533.3,54.424,20.039,-2.1423e-07,-0.02583,2.7612e-10,1660.2,50.799,0,0,0,0,0.013439,0
1533.3,54.424,20.039,-2.1423e-07,-0.02583,2.7612e-10,1660.2,50.799,0,0,0,0,0.013439,0
1533.3,54.424,20.039,-2.1423e-07,-0.02583,2.7612e-10,1660.2,50.799,0,0,0,0,0.013439,0
1533.3,54.424,20.039,-2.1423e-07,-0.02583,2.7612e-10,1660.2,50.799,0,0,0,0,0.013439,0
1533.3,54.424,20.039,-2.1423e-07,-0.02583,2.7612e-10,1660.2,50.799,0,0,0,0,0.013439,0
1533.3,54.424,20.039,-2.1423e-07,-0.02583,2.7612e-10,1660.2,50.799,0,0,0,0,0.013439,0
1533.3,54.424,20.039,-2.1423e-07,-0.02583,2.7612e-10,1660.2,50.799,0,0,0,0,0.013439,0
1533.3,54.424,20.039,-2.1423e-07,-0.02583,2.7612e-10,1660.2,50.799,0,0,0,0,0.013439,0
1533.3,54.424,20.039,-2.1423e-07,-0.02583,2.7612e-10,1660.2,50.799,0,0,0,0,0.013439,0
1533.3,54.424,20.039,-2.1423e-07,-0.02583,2.7612e-10,1660.2,50.799,0,0,0,0,0.013439,0
1533.3,54.424,20.039,-2.1423e-07,-0.02583,2.7612e-10,1660.2,50.799,0,0,0,0,0.013439,0
1536.2,54.424,20.035,-2.1419e-07,-0.026311,2.8128e-10,1660.2,50.799,0,0,0,0,0.013743,0
1536.2,54.424,20.035,-2.1419e-07,-0.026311,2.8128e-10,1660.2,50.799,0,0,0,0,0.013743,0
1536.2,54.424,20.035,-2.1419e-07,-0.026311,2.8128e-10,1660.2,50.799,0,0,0,0,0.013743,0
1536.2,54.424,20.035,-2.1419e-07,-0.026311,2.8128e-10,1660.2,50.799,0,0,0,0,0.013743,0
1536.2,54.424,20.035,-2.1419e-07,-0.026311,2.8128e-10,1660.2,50.799,0,0,0,0,0.013743,0
1536.2,54.424,20.035,-2.1419e-07,-0.026311,2.8128e-10,1660.2,50.799,0,0,0,0,0.013743,0
1536.2,54.424,20.035,-2.1419e-07,-0.026311,2.8128e-10,1660.2,50.799,0,0,0,0,0.013743,0
1536.2,54.424,20.035,-2.1419e-07,-0.026311,2.8128e-10,1660.2,50.799,0,0,0,0,0.013743,0
1536.2,54.424,20.035,-2.1419e-07,-0.026311,2.8128e-10,1660.2,50.799,0,0,0,0,0.013743,0
1536.2,54.424,20.035,-2.1419e-07,-0.026311,2.8128e-10,1660.2,50.799,0,0,0,0,0.013743,0
1537,54.424,20.034,-2.1418e-07,-0.026446,2.827e-10,1660.2,50.799,0.12,-6.2246e-06,4,-0.00037301,0.013915,0
1537,54.424,20.034,-2.1418e-07,-0.026446,2.827e-10,1660.2,50.799,0.12,-6.2246e-06,4,-0.00037301,0.013915,0
1538.2,54.424,20.033,-2.1416e-07,-0.026649,2.8495e-10,1660.2,50.799,0.28,-8.5507e-05,4,-0.0028318,0.014164,0
1538.2,54.424,20.033,-2.1416e-07,-0.026649,2.8495e-10,1660.2,50.799,0.28,-8.5507e-05,4,-0.0028318,0.014164,0
1539.8,54.424,20.03,-2.1414e-07,-0.026919,2.8786e-10,1660.2,50.799,0.52,-0.00049657,4,-0.0096526,0.014523,0
1539.8,54.424,20.03,-2.1414e-07,-0.026919,2.8786e-10,1660.2,50.799,0.52,-0.00049657,4,-0.0096526,0.014523,0
1540.6,54.424,20.029,-2.1413e-07,-0.027055,2.8929e-10,1660.2,50.799,0.84,-0.0019194,4,-0.023948,0.014849,0
1540.6,54.424,20.029,-2.1413e-07,-0.027055,2.8929e-10,1660.2,50.799,0.84,-0.0019194,4,-0.023948,0.014849,0
1540.6,54.424,20.029,-2.1413e-07,-0.027055,2.8929e-10,1660.2,50.799,0.84,-0.0019194,4,-0.023948,0.014849,0
1540.6,54.424,20.029,-2.1413e-07,-0.027055,2.8929e-10,1660.2,50.799,0.84,-0.0019194,4,-0.023948,0.014849,0
1540.6,54.424,20.029,-2.1413e-07,-0.027055,2.8929e-10,1660.2,50.799,0.84,-0.0019194,4,-0.023948,0.014849,0
1540.6,54.424,20.029,-2.1413e-07,-0.027055,2.8929e-10,1660.2,50.799,0.84,-0.0019194,4,-0.023948,0.014849,0
1540.6,54.424,20.029,-2.1413e-07,-0.027055,2.8929e-10,1660.2,50.799,0.84,-0.0019194,4,-0.023948,0.014849,0
1540.6,54.424,20.029,-2.1413e-07,-0.027055,2.8929e-10,1660.3,50.799,1,-0.0031194,3.9999,-0.032792,0.014964,0
1540.6,54.424,20.029,-2.1413e-07,-0.027055,2.8929e-10,1660.3,50.799,1,-0.0031194,3.9999,-0.032792,0.014964,0
1540.6,54.424,20.029,-2.1413e-07,-0.027055,2.8929e-10,1660.3,50.799,1,-0.0031194,3.9999,-0.032792,0.014964,0
1540.6,54.424,20.029,-2.1413e-07,-0.027055,2.8929e-10,1660.3,50.799,1,-0.0031194,3.9999,-0.032792,0.014964,0
1540.6,54.424,20.029,-2.1413e-07,-0.027055,2.8929e-10,1660.3,50.799,1,-0.0031194,3.9999,-0.032792,0.014964,0
1540.6,54.424,20.029,-2.1413e-07,-0.027055,2.8929e-10,1660.3,50.799,1,-0.0031194,3.9999,-0.032792,0.014964,0
1540.6,54.424,20.029,-2.1413e-07,-0.027055,2.8929e-10,1660.3,50.799,1,-0.0031194,3.9999,-0.032792,0.014964,0
1540.6,54.424,20.029,-2.1413e-07,-0.027055,2.8929e-10,1660.3,50.799,1.08,-0.0038578,3.9999,-0.037513,0.015021,0
1540.6,54.424,20.029,-2.1413e-07,-0.027055,2.8929e-10,1660.3,50.799,1.08,-0.0038578,3.9999,-0.037513,0.015021,0
1540.6,54.424,20.029,-2.1413e-07,-0.027055,2.8929e-10,1660.3,50.799,1.08,-0.0038578,3.9999,-0.037513,0.015021,0
1540.6,54.424,20.029,-2.1413e-07,-0.027055,2.8929e-10,1660.3,50.799,1.08,-0.0038578,3.9999,-0.037513,0.015021,0
1540.6,54.424,20.029,-2.1413e-07,-0.027055,2.8929e-10,1660.3,50.799,1.08,-0.0038578,3.9999,-0.037513,0.015021,0
1540.6,54.424,20.029,-2.1413e-07,-0.027055,2.8929e-10,1660.3,50.799,1.08,-0.0038578,3.9999,-0.037513,0.015021,0
1540.6,54.424,20.029,-2.1413e-07,-0.027055,2.8929e-10,1660.3,50.799,1.08,-0.0038578,3.9999,-0.037513,0.015021,0
1543,54.424,20.026,-2.141e-07,-0.027459,2.9359e-10,1660.3,50.799,1.16,-0.0046926,3.9999,-0.04238,0.015387,0
1543,54.424,20.026,-2.141e-07,-0.027459,2.9359e-10,1660.3,50.799,1.16,-0.0046926,3.9999,-0.04238,0.015387,0
1543,54.424,20.026,-2.141e-07,-0.027459,2.9359e-10,1660.3,50.799,1.16,-0.0046926,3.9999,-0.04238,0.015387,0
1543.8,54.424,20.024,-2.1407e-07,-0.15693,1.6778e-09,1660.3,50.799,1.16,-0.0046926,3.9999,-0.04238,0.015492,0
1543.8,54.424,20.024,-2.1407e-07,-0.15693,1.6778e-09,1660.3,50.799,1.16,-0.0046926,3.9999,-0.04238,0.015492,0
1543.8,54.424,20.024,-2.1407e-07,-0.15693,1.6778e-09,1660.5,50.798,1.64,-0.011783,3.9996,-0.072326,0.015846,0
1543.8,54.424,20.024,-2.1407e-07,-0.15693,1.6778e-09,1660.5,50.798,1.64,-0.011783,3.9996,-0.072326,0.015846,0
1545.8,54.424,20.008,-2.139e-07,-0.15037,1.6076e-09,1660.5,50.798,1.64,-0.011783,3.9996,-0.072326,0.016122,0
1545.8,54.424,20.008,-2.139e-07,-0.15037,1.6076e-09,1660.5,50.798,1.64,-0.011783,3.9996,-0.072326,0.016122,0
1545.8,54.424,20.008,-2.139e-07,-0.15037,1.6076e-09,1660.5,50.798,1.64,-0.011783,3.9996,-0.072326,0.016122,0
1545.8,54.424,20.008,-2.139e-07,-0.15037,1.6076e-09,1660.5,50.798,1.64,-0.011783,3.9996,-0.072326,0.016122,0
1545.8,54.424,20.008,-2.139e-07,-0.15037,1.6076e-09,1660.5,50.798,1.64,-0.011783,3.9996,-0.072326,0.016122,0
1545.8,54.424,20.008,-2.139e-07,-0.15037,1.6076e-09,1660.5,50.798,1.64,-0.011783,3.9996,-0.072326,0.016122,0
1545.8,54.424,20.008,-2.139e-07,-0.15037,1.6076e-09,1660.5,50.798,1.64,-0.011783,3.9996,-0.072326,0.016122,0
1545.8,54.424,20.008,-2.139e-07,-0.15037,1.6076e-09,1660.5,50.798,1.64,-0.011783,3.9996,-0.072326,0.016122,0
1545.8,54.424,20.008,-2.139e-07,-0.15037,1.6076e-09,1660.7,50.796,2.0399,-0.020241,3.9993,-0.093797,0.016421,0
1545.8,54.424,20.008,-2.139e-07,-0.15037,1.6076e-09,1660.7,50.796,2.0399,-0.020241,3.9993,-0.093797,0.016421,0
1546.6,54.424,20.002,-2.1384e-07,-0.14508,1.5511e-09,1660.7,50.796,2.0399,-0.020241,3.9993,-0.093797,0.016536,0
1546.6,54.424,20.002,-2.1384e-07,-0.14508,1.5511e-09,1660.8,50.795,2.1999,-0.024143,3.9992,-0.10041,0.016656,0
1546.6,54.424,20.002,-2.1384e-07,-0.14508,1.5511e-09,1660.8,50.795,2.1999,-0.024143,3.9992,-0.10041,0.016656,0
1548.6,54.424,19.988,-2.1369e-07,-0.13747,1.4697e-09,1660.8,50.795,2.2798,-0.02618,3.9991,-0.10318,0.017014,0
1549,54.424,19.985,-2.1366e-07,-0.13685,1.4631e-09,1660.8,50.795,2.2798,-0.02618,3.9991,-0.10318,0.017075,0
1549,54.424,19.985,-2.1366e-07,-0.13685,1.4631e-09,1660.8,50.795,2.2798,-0.02618,3.9991,-0.10318,0.017075,0
1549.4,54.424,19.983,-2.1363e-07,-0.13621,1.4562e-09,1660.8,50.795,2.2798,-0.02618,3.9991,-0.10318,0.017136,0
1549.4,54.424,19.983,-2.1363e-07,-0.13621,1.4562e-09,1660.8,50.795,2.2798,-0.02618,3.9991,-0.10318,0.017136,0
1549.4,54.424,19.983,-2.1363e-07,-0.13621,1.4562e-09,1660.8,50.795,2.2798,-0.02618,3.9991,-0.10318,0.017136,0
1549.4,54.424,19.983,-2.1363e-07,-0.13621,1.4562e-09,1660.8,50.795,2.2798,-0.02618,3.9991,-0.10318,0.017136,0
1549.8,54.424,19.98,-2.136e-07,-0.13553,1.4489e-09,1660.8,50.795,2.2798,-0.02618,3.9991,-0.10318,0.017197,0
1549.8,54.424,19.98,-2.136e-07,-0.13553,1.4489e-09,1660.8,50.795,2.2798,-0.02618,3.9991,-0.10318,0.017197,0
1549.8,54.424,19.98,-2.136e-07,-0.13553,1.4489e-09,1660.8,50.795,2.2798,-0.02618,3.9991,-0.10318,0.017197,0
1549.8,54.424,19.98,-2.136e-07,-0.13553,1.4489e-09,1660.8,50.795,2.2798,-0.02618,3.9991,-0.10318,0.017197,0
1549.8,54.424,19.98,-2.136e-07,-0.13553,1.4489e-09,1660.8,50.795,2.2798,-0.02618,3.9991,-0.10318,0.017197,0
1549.8,54.424,19.98,-2.136e-07,-0.13553,1.4489e-09,1660.8,50.795,2.2798,-0.02618,3.9991,-0.10318,0.017197,0
1549.8,54.424,19.98,-2.136e-07,-0.13553,1.4489e-09,1660.8,50.795,2.2798,-0.02618,3.9991,-0.10318,0.017197,0
1549.8,54.424,19.98,-2.136e-07,-0.13553,1.4489e-09,1660.8,50.795,2.2798,-0.02618,3.9991,-0.10318,0.017197,0
1549.8,54.424,19.98,-2.136e-07,-0.13553,1.4489e-09,1660.8,50.795,2.2798,-0.02618,3.9991,-0.10318,0.017197,0
1549.8,54.424,19.98,-2.136e-07,-0.13553,1.4489e-09,1661.2,50.79,2.8397,-0.041282,3.9988,-0.11096,0.017629,0
1549.8,54.424,19.98,-2.136e-07,-0.13553,1.4489e-09,1661.2,50.79,2.8397,-0.041282,3.9988,-0.11096,0.017629,0
1549.8,54.424,19.98,-2.136e-07,-0.13553,1.4489e-09,1661.2,50.79,2.8397,-0.041282,3.9988,-0.11096,0.017629,0
1549.8,54.424,19.98,-2.136e-07,-0.13553,1.4489e-09,1661.2,50.79,2.8397,-0.041282,3.9988,-0.11096,0.017629,0
1549.8,54.424,19.98,-2.136e-07,-0.13553,1.4489e-09,1661.2,50.79,2.8397,-0.041282,3.9988,-0.11096,0.017629,0
1549.8,54.424,19.98,-2.136e-07,-0.13553,1.4489e-09,1661.2,50.79,2.8397,-0.041282,3.9988,-0.11096,0.017629,0
1549.8,54.424,19.98,-2.136e-07,-0.13553,1.4489e-09,1661.2,50.79,2.8397,-0.041282,3.9988,-0.11096,0.017629,0
1549.8,54.424,19.98,-2.136e-07,-0.13553,1.4489e-09,1661.2,50.79,2.8397,-0.041282,3.9988,-0.11096,0.017629,0
1549.8,54.424,19.98,-2.136e-07,-0.13553,1.4489e-09,1661.3,50.788,2.9997,-0.04561,3.9988,-0.10922,0.017751,0
1549.8,54.424,19.98,-2.136e-07,-0.13553,1.4489e-09,1661.3,50.788,2.9997,-0.04561,3.9988,-0.10922,0.017751,0
1549.8,54.424,19.98,-2.136e-07,-0.13553,1.4489e-09,1661.3,50.788,3.0796,-0.047732,3.9988,-0.1077,0.017813,0
1552.2,54.424,19.964,-2.1343e-07,-0.13081,1.3985e-09,1661.3,50.788,3.0796,-0.047732,3.9988,-0.1077,0.018203,0
1552.2,54.424,19.964,-2.1343e-07,-0.13081,1.3985e-09,1661.6,50.783,3.3995,-0.055754,3.9989,-0.097533,0.018453,0
1554.6,54.424,19.949,-2.1327e-07,-0.125,1.3364e-09,1661.7,50.781,3.5595,-0.059379,3.9991,-0.090228,0.018992,0
1554.6,54.424,19.949,-2.1327e-07,-0.125,1.3364e-09,1661.7,50.781,3.5595,-0.059379,3.9991,-0.090228,0.018992,0
1555,54.424,19.946,-2.1324e-07,-0.12393,1.3249e-09,1661.7,50.781,3.5595,-0.059379,3.9991,-0.090228,0.019063,0
1555,54.424,19.946,-2.1324e-07,-0.12393,1.3249e-09,1661.7,50.781,3.5595,-0.059379,3.9991,-0.090228,0.019063,0
1555,54.424,19.946,-2.1324e-07,-0.12393,1.3249e-09,1661.7,50.781,3.5595,-0.059379,3.9991,-0.090228,0.019063,0
1555,54.424,19.946,-2.1324e-07,-0.12393,1.3249e-09,1661.7,50.781,3.5595,-0.059379,3.9991,-0.090228,0.019063,0
1555,54.424,19.946,-2.1324e-07,-0.12393,1.3249e-09,1661.7,50.781,3.5595,-0.059379,3.9991,-0.090228,0.019063,0
1555,54.424,19.946,-2.1324e-07,-0.12393,1.3249e-09,1661.7,50.781,3.5595,-0.059379,3.9991,-0.090228,0.019063,0
1555,54.424,19.946,-2.1324e-07,-0.12393,1.3249e-09,1661.7,50.781,3.5595,-0.059379,3.9991,-0.090228,0.019063,0
1555.4,54.424,19.944,-2.1321e-07,-0.12282,1.3131e-09,1661.7,50.781,3.5595,-0.059379,3.9991,-0.090228,0.019134,0
1555.4,54.424,19.944,-2.1321e-07,-0.12282,1.3131e-09,1661.7,50.781,3.5595,-0.059379,3.9991,-0.090228,0.019134,0
1555.4,54.424,19.944,-2.1321e-07,-0.12282,1.3131e-09,1661.7,50.781,3.5595,-0.059379,3.9991,-0.090228,0.019134,0
1555.4,54.424,19.944,-2.1321e-07,-0.12282,1.3131e-09,1661.7,50.781,3.5595,-0.059379,3.9991,-0.090228,0.019134,0
1555.4,54.424,19.944,-2.1321e-07,-0.12282,1.3131e-09,1661.7,50.781,3.5595,-0.059379,3.9991,-0.090228,0.019134,0
1555.4,54.424,19.944,-2.1321e-07,-0.12282,1.3131e-09,1661.7,50.781,3.5595,-0.059379,3.9991,-0.090228,0.019134,0
1555.4,54.424,19.944,-2.1321e-07,-0.12282,1.3131e-09,1661.7,50.781,3.5595,-0.059379,3.9991,-0.090228,0.019134,0
1555.4,54.424,19.944,-2.1321e-07,-0.12282,1.3131e-09,1661.7,50.781,3.5595,-0.059379,3.9991,-0.090228,0.019134,0
1555.4,54.424,19.944,-2.1321e-07,-0.12282,1.3131e-09,1661.7,50.781,3.5595,-0.059379,3.9991,-0.090228,0.019134,0
1555.4,54.424,19.944,-2.1321e-07,-0.12282,1.3131e-09,1661.7,50.781,3.5595,-0.059379,3.9991,-0.090228,0.019134,0
1555.4,54.424,19.944,-2.1321e-07,-0.12282,1.3131e-09,1662.1,50.775,3.9594,-0.066915,3.9994,-0.066899,0.019452,0
1555.4,54.424,19.944,-2.1321e-07,-0.12282,1.3131e-09,1662.1,50.775,3.9594,-0.066915,3.9994,-0.066899,0.019452,0
1555.4,54.424,19.944,-2.1321e-07,-0.12282,1.3131e-09,1662.1,50.775,3.9594,-0.066915,3.9994,-0.066899,0.019452,0
1557.3,54.424,19.932,-2.1309e-07,-0.11686,1.2492e-09,1662.2,50.773,4.0394,-0.068122,3.9995,-0.061571,0.019886,0
1557.3,54.424,19.932,-2.1309e-07,-0.11686,1.2492e-09,1662.2,50.773,4.0394,-0.068122,3.9995,-0.061571,0.019886,0
1557.3,54.424,19.932,-2.1309e-07,-0.11686,1.2492e-09,1662.2,50.773,4.0394,-0.068122,3.9995,-0.061571,0.019886,0
1557.3,54.424,19.932,-2.1309e-07,-0.11686,1.2492e-09,1662.2,50.773,4.0394,-0.068122,3.9995,-0.061571,0.019886,0
1557.7,54.424,19.929,-2.1306e-07,-0.11557,1.2355e-09,1662.2,50.773,4.0394,-0.068122,3.9995,-0.061571,0.019961,0
1557.7,54.424,19.929,-2.1306e-07,-0.11557,1.2355e-09,1662.9,50.762,4.6794,-0.073725,4.0003,-0.015549,0.020473,0
1557.7,54.424,19.929,-2.1306e-07,-0.11557,1.2355e-09,1662.9,50.762,4.6794,-0.073725,4.0003,-0.015549,0.020473,0
1559.7,54.424,19.918,-2.1294e-07,-0.10874,1.1624e-09,1662.9,50.762,4.6794,-0.073725,4.0003,-0.015549,0.020868,0
1559.7,54.424,19.918,-2.1294e-07,-0.10874,1.1624e-09,1662.9,50.762,4.6794,-0.073725,4.0003,-0.015549,0.020868,0
1559.7,54.424,19.918,-2.1294e-07,-0.10874,1.1624e-09,1662.9,50.762,4.6794,-0.073725,4.0003,-0.015549,0.020868,0
1559.7,54.424,19.918,-2.1294e-07,-0.10874,1.1624e-09,1662.9,50.762,4.6794,-0.073725,4.0003,-0.015549,0.020868,0
1559.7,54.424,19.918,-2.1294e-07,-0.10874,1.1624e-09,1662.9,50.762,4.6794,-0.073725,4.0003,-0.015549,0.020868,0
1559.7,54.424,19.918,-2.1294e-07,-0.10874,1.1624e-09,1662.9,50.762,4.6794,-0.073725,4.0003,-0.015549,0.020868,0
1559.7,54.424,19.918,-2.1294e-07,-0.10874,1.1624e-09,1662.9,50.762,4.6794,-0.073725,4.0003,-0.015549,0.020868,0
1560.1,54.424,19.916,-2.1292e-07,-0.10728,1.1469e-09,1662.9,50.762,4.6794,-0.073725,4.0003,-0.015549,0.020949,0
1560.1,54.424,19.916,-2.1292e-07,-0.10728,1.1469e-09,1662.9,50.762,4.6794,-0.073725,4.0003,-0.015549,0.020949,0
1560.9,54.424,19.912,-2.1287e-07,-0.1043,1.115e-09,1663.2,50.758,4.9194,-0.07394,4.0005,0.0015669,0.021307,0
1560.9,54.424,19.912,-2.1287e-07,-0.1043,1.115e-09,1663.2,50.758,4.9194,-0.07394,4.0005,0.0015669,0.021307,0
1560.9,54.424,19.912,-2.1287e-07,-0.1043,1.115e-09,1663.4,50.755,5.0795,-0.073538,4.0006,0.012445,0.021436,0
1560.9,54.424,19.912,-2.1287e-07,-0.1043,1.115e-09,1663.6,50.752,5.2395,-0.072725,4.0007,0.022729,0.021565,0
1562.5,54.424,19.904,-2.1279e-07,-0.097992,1.0476e-09,1663.6,50.752,5.2395,-0.072725,4.0007,0.022729,0.021904,0
1562.5,54.424,19.904,-2.1279e-07,-0.097992,1.0476e-09,1663.8,50.749,5.3995,-0.071528,4.0008,0.0323,0.022034,0
1562.5,54.424,19.904,-2.1279e-07,-0.097992,1.0476e-09,1663.8,50.749,5.3995,-0.071528,4.0008,0.0323,0.022034,0
1562.5,54.424,19.904,-2.1279e-07,-0.097992,1.0476e-09,1663.8,50.749,5.3995,-0.071528,4.0008,0.0323,0.022034,0
1562.5,54.424,19.904,-2.1279e-07,-0.097992,1.0476e-09,1663.8,50.749,5.3995,-0.071528,4.0008,0.0323,0.022034,0
1562.5,54.424,19.904,-2.1279e-07,-0.097992,1.0476e-09,1663.9,50.747,5.4795,-0.070796,4.0008,0.036786,0.022098,0
1562.5,54.424,19.904,-2.1279e-07,-0.097992,1.0476e-09,1664,50.746,5.5596,-0.069979,4.0008,0.041061,0.022163,0
1562.5,54.424,19.904,-2.1279e-07,-0.097992,1.0476e-09,1664,50.746,5.5596,-0.069979,4.0008,0.041061,0.022163,0
1562.5,54.424,19.904,-2.1279e-07,-0.097992,1.0476e-09,1664,50.746,5.5596,-0.069979,4.0008,0.041061,0.022163,0
1562.5,54.424,19.904,-2.1279e-07,-0.097992,1.0476e-09,1664,50.746,5.5596,-0.069979,4.0008,0.041061,0.022163,0
1562.5,54.424,19.904,-2.1279e-07,-0.097992,1.0476e-09,1664,50.746,5.5596,-0.069979,4.0008,0.041061,0.022163,0
1562.5,54.424,19.904,-2.1279e-07,-0.097992,1.0476e-09,1664,50.746,5.5596,-0.069979,4.0008,0.041061,0.022163,0
1562.5,54.424,19.904,-2.1279e-07,-0.097992,1.0476e-09,1664,50.746,5.5596,-0.069979,4.0008,0.041061,0.022163,0
1562.5,54.424,19.904,-2.1279e-07,-0.097992,1.0476e-09,1664.1,50.745,5.6396,-0.069083,4.0009,0.045114,0.022227,0
1562.5,54.424,19.904,-2.1279e-07,-0.097992,1.0476e-09,1664.1,50.745,5.6396,-0.069083,4.0009,0.045114,0.022227,0
1564.9,54.424,19.892,-2.1267e-07,-0.087745,9.3814e-10,1664.2,50.743,5.7196,-0.068112,4.0009,0.04894,0.022826,0
1564.9,54.424,19.892,-2.1267e-07,-0.087745,9.3814e-10,1664.2,50.743,5.7196,-0.068112,4.0009,0.04894,0.022826,0
1564.9,54.424,19.892,-2.1267e-07,-0.087745,9.3814e-10,1664.2,50.743,5.7196,-0.068112,4.0009,0.04894,0.022826,0
1564.9,54.424,19.892,-2.1267e-07,-0.087745,9.3814e-10,1664.2,50.743,5.7196,-0.068112,4.0009,0.04894,0.022826,0
1564.9,54.424,19.892,-2.1267e-07,-0.087745,9.3814e-10,1664.2,50.743,5.7196,-0.068112,4.0009,0.04894,0.022826,0
1564.9,54.424,19.892,-2.1267e-07,-0.087745,9.3814e-10,1664.2,50.743,5.7196,-0.068112,4.0009,0.04894,0.022826,0
1564.9,54.424,19.892,-2.1267e-07,-0.087745,9.3814e-10,1664.2,50.743,5.7196,-0.068112,4.0009,0.04894,0.022826,0
1566.5,54.424,19.886,-2.126e-07,-0.080409,8.597e-10,1664.5,50.741,5.8796,-0.065964,4.0009,0.055886,0.023328,0
1566.5,54.424,19.886,-2.126e-07,-0.080409,8.597e-10,1664.5,50.741,5.8796,-0.065964,4.0009,0.055886,0.023328,0
1566.5,54.424,19.886,-2.126e-07,-0.080409,8.597e-10,1664.5,50.741,5.8796,-0.065964,4.0009,0.055886,0.023328,0
1566.5,54.424,19.886,-2.126e-07,-0.080409,8.597e-10,1665,50.736,6.1997,-0.060973,4.0009,0.066884,0.023588,0
1566.5,54.424,19.886,-2.126e-07,-0.080409,8.597e-10,1665,50.736,6.1997,-0.060973,4.0009,0.066884,0.023588,0
1566.5,54.424,19.886,-2.126e-07,-0.080409,8.597e-10,1665,50.736,6.1997,-0.060973,4.0009,0.066884,0.023588,0
1566.5,54.424,19.886,-2.126e-07,-0.080409,8.597e-10,1665,50.736,6.1997,-0.060973,4.0009,0.066884,0.023588,0
1566.5,54.424,19.886,-2.126e-07,-0.080409,8.597e-10,1665,50.736,6.1997,-0.060973,4.0009,0.066884,0.023588,0
1566.5,54.424,19.886,-2.126e-07,-0.080409,8.597e-10,1665,50.736,6.1997,-0.060973,4.0009,0.066884,0.023588,0
1566.5,54.424,19.886,-2.126e-07,-0.080409,8.597e-10,1665,50.736,6.1997,-0.060973,4.0009,0.066884,0.023588,0
1567.3,54.424,19.883,-2.1256e-07,-0.076597,8.1892e-10,1665,50.736,6.1997,-0.060973,4.0009,0.066884,0.023779,0
1567.3,54.424,19.883,-2.1256e-07,-0.076597,8.1892e-10,1665.3,50.732,6.4397,-0.056774,4.0008,0.072603,0.023973,0
1567.3,54.424,19.883,-2.1256e-07,-0.076597,8.1892e-10,1665.3,50.732,6.4397,-0.056774,4.0008,0.072603,0.023973,0
1568.9,54.424,19.877,-2.125e-07,-0.068691,7.3433e-10,1665.5,50.731,6.5198,-0.055312,4.0008,0.074042,0.024433,0
1570.1,54.424,19.873,-2.1246e-07,-0.062525,6.6842e-10,1665.5,50.731,6.5198,-0.055312,4.0008,0.074042,0.024737,0
1570.1,54.424,19.873,-2.1246e-07,-0.062525,6.6842e-10,1665.5,50.731,6.5198,-0.055312,4.0008,0.074042,0.024737,0
1570.1,54.424,19.873,-2.1246e-07,-0.062525,6.6842e-10,1665.5,50.731,6.5198,-0.055312,4.0008,0.074042,0.024737,0
1570.1,54.424,19.873,-2.1246e-07,-0.062525,6.6842e-10,1666.1,50.726,6.9198,-0.047738,4.0006,0.077966,0.025061,0
1570.1,54.424,19.873,-2.1246e-07,-0.062525,6.6842e-10,1666.1,50.726,6.9198,-0.047738,4.0006,0.077966,0.025061,0
1570.1,54.424,19.873,-2.1246e-07,-0.062525,6.6842e-10,1666.1,50.726,6.9198,-0.047738,4.0006,0.077966,0.025061,0
1570.1,54.424,19.873,-2.1246e-07,-0.062525,6.6842e-10,1666.3,50.725,6.9998,-0.046198,4.0006,0.078145,0.025125,0
1570.1,54.424,19.873,-2.1246e-07,-0.062525,6.6842e-10,1666.3,50.725,6.9998,-0.046198,4.0006,0.078145,0.025125,0
1570.1,54.424,19.873,-2.1246e-07,-0.062525,6.6842e-10,1666.3,50.725,6.9998,-0.046198,4.0006,0.078145,0.025125,0
1570.1,54.424,19.873,-2.1246e-07,-0.062525,6.6842e-10,1666.3,50.725,6.9998,-0.046198,4.0006,0.078145,0.025125,0
1570.1,54.424,19.873,-2.1246e-07,-0.062525,6.6842e-10,1666.3,50.725,6.9998,-0.046198,4.0006,0.078145,0.025125,0
1570.1,54.424,19.873,-2.1246e-07,-0.062525,6.6842e-10,1666.3,50.725,6.9998,-0.046198,4.0006,0.078145,0.025125,0
1570.1,54.424,19.873,-2.1246e-07,-0.062525,6.6842e-10,1666.3,50.725,6.9998,-0.046198,4.0006,0.078145,0.025125,0
1570.1,54.424,19.873,-2.1246e-07,-0.062525,6.6842e-10,1666.3,50.725,6.9998,-0.046198,4.0006,0.078145,0.025125,0
1571.3,54.424,19.869,-2.1242e-07,-0.056166,6.0047e-10,1666.3,50.725,6.9998,-0.046198,4.0006,0.078145,0.025439,0
1571.3,54.424,19.869,-2.1242e-07,-0.056166,6.0047e-10,1666.3,50.725,6.9998,-0.046198,4.0006,0.078145,0.025439,0
1571.7,54.424,19.868,-2.1241e-07,-0.054004,5.7736e-10,1666.3,50.725,6.9998,-0.046198,4.0006,0.078145,0.025546,0
1571.7,54.424,19.868,-2.1241e-07,-0.054004,5.7736e-10,1666.3,50.725,6.9998,-0.046198,4.0006,0.078145,0.025546,0
1572.1,54.424,19.867,-2.124e-07,-0.051824,5.5408e-10,1666.3,50.725,6.9998,-0.046198,4.0006,0.078145,0.025653,0
1572.1,54.424,19.867,-2.124e-07,-0.051824,5.5408e-10,1666.3,50.725,6.9998,-0.046198,4.0006,0.078145,0.025653,0
1572.1,54.424,19.867,-2.124e-07,-0.051824,5.5408e-10,1666.3,50.725,6.9998,-0.046198,4.0006,0.078145,0.025653,0
1573.3,54.424,19.864,-2.1236e-07,-0.045163,4.8284e-10,1666.3,50.725,6.9998,-0.046198,4.0006,0.078145,0.025981,0
1573.3,54.424,19.864,-2.1236e-07,-0.045163,4.8284e-10,1666.3,50.725,6.9998,-0.046198,4.0006,0.078145,0.025981,0
1574.1,54.424,19.862,-2.1235e-07,-0.040629,4.3438e-10,1667.3,50.719,7.5599,-0.035613,4.0004,0.074742,0.026654,0
1574.5,54.424,19.862,-2.1234e-07,-0.038334,4.0984e-10,1667.3,50.719,7.5599,-0.035613,4.0004,0.074742,0.026768,0
1575.2,54.424,19.86,-2.1232e-07,-0.033692,3.6023e-10,1667.8,50.717,7.7999,-0.031336,4.0003,0.071286,0.027189,0
1575.6,54.424,19.86,-2.1232e-07,-0.031346,3.3512e-10,1667.8,50.717,7.7999,-0.031336,4.0003,0.071286,0.027306,0
1575.6,54.424,19.86,-2.1232e-07,-0.031346,3.3512e-10,1667.8,50.717,7.7999,-0.031336,4.0003,0.071286,0.027306,0
1575.6,54.424,19.86,-2.1232e-07,-0.031346,3.3512e-10,1667.8,50.717,7.7999,-0.031336,4.0003,0.071286,0.027306,0
1575.6,54.424,19.86,-2.1232e-07,-0.031346,3.3512e-10,1667.8,50.717,7.7999,-0.031336,4.0003,0.071286,0.027306,0
1575.6,54.424,19.86,-2.1232e-07,-0.031346,3.3512e-10,1667.8,50.717,7.7999,-0.031336,4.0003,0.071286,0.027306,0
1575.6,54.424,19.86,-2.1232e-07,-0.031346,3.3512e-10,1667.8,50.717,7.7999,-0.031336,4.0003,0.071286,0.027306,0
1575.6,54.424,19.86,-2.1232e-07,-0.031346,3.3512e-10,1667.8,50.717,7.7999,-0.031336,4.0003,0.071286,0.027306,0
1575.6,54.424,19.86,-2.1232e-07,-0.031346,3.3512e-10,1667.8,50.717,7.7999,-0.031336,4.0003,0.071286,0.027306,0
1575.6,54.424,19.86,-2.1232e-07,-0.031346,3.3512e-10,1667.8,50.717,7.7999,-0.031336,4.0003,0.071286,0.027306,0
1575.6,54.424,19.86,-2.1232e-07,-0.031346,3.3512e-10,1667.8,50.717,7.7999,-0.031336,4.0003,0.071286,0.027306,0
1575.6,54.424,19.86,-2.1232e-07,-0.031346,3.3512e-10,1668.2,50.716,8.04,-0.027299,4.0003,0.066987,0.027493,0
1575.6,54.424,19.86,-2.1232e-07,-0.031346,3.3512e-10,1668.2,50.716,8.04,-0.027299,4.0003,0.066987,0.027493,0
1575.6,54.424,19.86,-2.1232e-07,-0.031346,3.3512e-10,1668.2,50.716,8.04,-0.027299,4.0003,0.066987,0.027493,0
1575.6,54.424,19.86,-2.1232e-07,-0.031346,3.3512e-10,1668.2,50.716,8.04,-0.027299,4.0003,0.066987,0.027493,0
1575.6,54.424,19.86,-2.1232e-07,-0.031346,3.3512e-10,1668.2,50.716,8.04,-0.027299,4.0003,0.066987,0.027493,0
1575.6,54.424,19.86,-2.1232e-07,-0.031346,3.3512e-10,1668.2,50.716,8.04,-0.027299,4.0003,0.066987,0.027493,0
1575.6,54.424,19.86,-2.1232e-07,-0.031346,3.3512e-10,1668.2,50.716,8.04,-0.027299,4.0003,0.066987,0.027493,0
1575.6,54.424,19.86,-2.1232e-07,-0.031346,3.3512e-10,1668.2,50.716,8.04,-0.027299,4.0003,0.066987,0.027493,0
1575.6,54.424,19.86,-2.1232e-07,-0.031346,3.3512e-10,1668.2,50.716,8.04,-0.027299,4.0003,0.066987,0.027493,0
1576.4,54.424,19.858,-2.123e-07,-0.026603,2.8441e-10,1668.2,50.716,8.04,-0.027299,4.0003,0.066987,0.027731,0
1576.4,54.424,19.858,-2.123e-07,-0.026603,2.8441e-10,1668.2,50.716,8.04,-0.027299,4.0003,0.066987,0.027731,0
1576.4,54.424,19.858,-2.123e-07,-0.026603,2.8441e-10,1668.2,50.716,8.04,-0.027299,4.0003,0.066987,0.027731,0
1576.4,54.424,19.858,-2.123e-07,-0.026603,2.8441e-10,1668.2,50.716,8.04,-0.027299,4.0003,0.066987,0.027731,0
1576.4,54.424,19.858,-2.123e-07,-0.026603,2.8441e-10,1668.2,50.716,8.04,-0.027299,4.0003,0.066987,0.027731,0
1576.4,54.424,19.858,-2.123e-07,-0.026603,2.8441e-10,1668.2,50.716,8.04,-0.027299,4.0003,0.066987,0.027731,0
1576.4,54.424,19.858,-2.123e-07,-0.026603,2.8441e-10,1668.2,50.716,8.04,-0.027299,4.0003,0.066987,0.027731,0
1576.4,54.424,19.858,-2.123e-07,-0.026603,2.8441e-10,1668.2,50.716,8.04,-0.027299,4.0003,0.066987,0.027731,0
1577.6,54.424,19.857,-2.1229e-07,-0.019376,2.0713e-10,1668.2,50.716,8.04,-0.027299,4.0003,0.066987,0.028095,0
1578.8,54.424,19.856,-2.1228e-07,-0.012018,1.2844e-10,1669.1,50.713,8.44,-0.02126,4.0002,0.057715,0.028778,0
1578.8,54.424,19.856,-2.1228e-07,-0.012018,1.2844e-10,1669.9,50.711,8.84,-0.016173,4.0001,0.048093,0.029081,0
1578.8,54.424,19.856,-2.1228e-07,-0.012018,1.2844e-10,1669.9,50.711,8.84,-0.016173,4.0001,0.048093,0.029081,0
1578.8,54.424,19.856,-2.1228e-07,-0.012018,1.2844e-10,1669.9,50.711,8.84,-0.016173,4.0001,0.048093,0.029081,0
1578.8,54.424,19.856,-2.1228e-07,-0.012018,1.2844e-10,1670.3,50.711,9,-0.014399,4.0001,0.044384,0.0292,0
1581.6,54.424,19.856,-2.1227e-07,0.0055927,-5.9778e-11,1670.3,50.711,9,-0.014399,4.0001,0.044384,0.030113,0
1581.6,54.424,19.856,-2.1227e-07,0.0055927,-5.9778e-11,1670.3,50.711,9,-0.014399,4.0001,0.044384,0.030113,0
1581.6,54.424,19.856,-2.1227e-07,0.0055927,-5.9778e-11,1670.3,50.711,9,-0.014399,4.0001,0.044384,0.030113,0
1581.6,54.424,19.856,-2.1227e-07,0.0055927,-5.9778e-11,1670.3,50.711,9,-0.014399,4.0001,0.044384,0.030113,0
1581.6,54.424,19.856,-2.1227e-07,0.0055927,-5.9778e-11,1670.3,50.711,9,-0.014399,4.0001,0.044384,0.030113,0
1581.6,54.424,19.856,-2.1227e-07,0.0055927,-5.9778e-11,1670.3,50.711,9,-0.014399,4.0001,0.044384,0.030113,0
1581.6,54.424,19.856,-2.1227e-07,0.0055927,-5.9778e-11,1670.3,50.711,9,-0.014399,4.0001,0.044384,0.030113,0
1581.6,54.424,19.856,-2.1227e-07,0.0055927,-5.9778e-11,1670.3,50.711,9,-0.014399,4.0001,0.044384,0.030113,0
1581.6,54.424,19.856,-2.1227e-07,0.0055927,-5.9778e-11,1670.3,50.711,9,-0.014399,4.0001,0.044384,0.030113,0
1581.6,54.424,19.856,-2.1227e-07,0.0055927,-5.9778e-11,1670.8,50.71,9.24,-0.012001,4.0001,0.039065,0.03029,0
1581.6,54.424,19.856,-2.1227e-07,0.0055927,-5.9778e-11,1670.8,50.71,9.24,-0.012001,4.0001,0.039065,0.03029,0
1582.4,54.424,19.856,-2.1228e-07,0.01072,-1.1458e-10,1670.8,50.71,9.24,-0.012001,4.0001,0.039065,0.030562,0
1582.4,54.424,19.856,-2.1228e-07,0.01072,-1.1458e-10,1670.8,50.71,9.24,-0.012001,4.0001,0.039065,0.030562,0
1582.4,54.424,19.856,-2.1228e-07,0.01072,-1.1458e-10,1671.2,50.709,9.4,-0.010571,4,0.035708,0.030678,0
1582.4,54.424,19.856,-2.1228e-07,0.01072,-1.1458e-10,1671.2,50.709,9.4,-0.010571,4,0.035708,0.030678,0
1583.2,54.424,19.857,-2.1228e-07,0.015882,-1.6978e-10,1671.2,50.709,9.4,-0.010571,4,0.035708,0.030954,0
1584.8,54.424,19.858,-2.123e-07,0.026296,-2.8113e-10,1672,50.709,9.72,-0.0080843,4,0.029504,0.031749,0
1584.8,54.424,19.858,-2.123e-07,0.026296,-2.8113e-10,1672,50.709,9.72,-0.0080843,4,0.029504,0.031749,0
1584.8,54.424,19.858,-2.123e-07,0.026296,-2.8113e-10,1672,50.709,9.72,-0.0080843,4,0.029504,0.031749,0
1584.8,54.424,19.858,-2.123e-07,0.026296,-2.8113e-10,1672.4,50.708,9.88,-0.007014,4,0.026668,0.031861,0
1584.8,54.424,19.858,-2.123e-07,0.026296,-2.8113e-10,1672.6,50.708,9.96,-0.006519,4,0.025319,0.031916,0
1584.8,54.424,19.858,-2.123e-07,0.026296,-2.8113e-10,1672.6,50.708,9.96,-0.006519,4,0.025319,0.031916,0
1584.8,54.424,19.858,-2.123e-07,0.026296,-2.8113e-10,1672.8,50.708,10.04,-0.0060496,4,0.024014,0.031972,0
1584.8,54.424,19.858,-2.123e-07,0.026296,-2.8113e-10,1672.8,50.708,10.04,-0.0060496,4,0.024014,0.031972,0
1584.8,54.424,19.858,-2.123e-07,0.026296,-2.8113e-10,1672.8,50.708,10.04,-0.0060496,4,0.024014,0.031972,0
1584.8,54.424,19.858,-2.123e-07,0.026296,-2.8113e-10,1672.8,50.708,10.04,-0.0060496,4,0.024014,0.031972,0
1584.8,54.424,19.858,-2.123e-07,0.026296,-2.8113e-10,1672.8,50.708,10.04,-0.0060496,4,0.024014,0.031972,0
1584.8,54.424,19.858,-2.123e-07,0.026296,-2.8113e-10,1672.8,50.708,10.04,-0.0060496,4,0.024014,0.031972,0
1584.8,54.424,19.858,-2.123e-07,0.026296,-2.8113e-10,1672.8,50.708,10.04,-0.0060496,4,0.024014,0.031972,0
1584.8,54.424,19.858,-2.123e-07,0.026296,-2.8113e-10,1673,50.708,10.12,-0.0056049,4,0.022755,0.032026,0
1584.8,54.424,19.858,-2.123e-07,0.026296,-2.8113e-10,1673,50.708,10.12,-0.0056049,4,0.022755,0.032026,0
1584.8,54.424,19.858,-2.123e-07,0.026296,-2.8113e-10,1673,50.708,10.12,-0.0056049,4,0.022755,0.032026,0
1584.8,54.424,19.858,-2.123e-07,0.026296,-2.8113e-10,1673,50.708,10.12,-0.0056049,4,0.022755,0.032026,0
1584.8,54.424,19.858,-2.123e-07,0.026296,-2.8113e-10,1673.2,50.708,10.2,-0.005184,4,0.021541,0.032081,0
1584.8,54.424,19.858,-2.123e-07,0.026296,-2.8113e-10,1673.2,50.708,10.2,-0.005184,4,0.021541,0.032081,0
1584.8,54.424,19.858,-2.123e-07,0.026296,-2.8113e-10,1673.4,50.708,10.28,-0.004786,4,0.020372,0.032135,0
1588.4,54.424,19.865,-2.1237e-07,0.04198,-4.4881e-10,1673.6,50.708,10.36,-0.0044101,4,0.019246,0.033536,0
1588.4,54.424,19.865,-2.1237e-07,0.04198,-4.4881e-10,1673.6,50.708,10.36,-0.0044101,4,0.019246,0.033536,0
1588.4,54.424,19.865,-2.1237e-07,0.04198,-4.4881e-10,1674.4,50.708,10.68,-0.00311,4,0.015173,0.033744,0
1588.4,54.424,19.865,-2.1237e-07,0.04198,-4.4881e-10,1674.4,50.708,10.68,-0.00311,4,0.015173,0.033744,0
1588.4,54.424,19.865,-2.1237e-07,0.04198,-4.4881e-10,1674.6,50.707,10.76,-0.0028317,4,0.014258,0.033795,0
1588.4,54.424,19.865,-2.1237e-07,0.04198,-4.4881e-10,1674.6,50.707,10.76,-0.0028317,4,0.014258,0.033795,0
1588.4,54.424,19.865,-2.1237e-07,0.04198,-4.4881e-10,1674.6,50.707,10.76,-0.0028317,4,0.014258,0.033795,0
1589.9,54.424,19.868,-2.1241e-07,0.038193,-4.083e-10,1674.6,50.707,10.76,-0.0028317,4,0.014258,0.034427,0
1589.9,54.424,19.868,-2.1241e-07,0.038193,-4.083e-10,1674.6,50.707,10.76,-0.0028317,4,0.014258,0.034427,0
1589.9,54.424,19.868,-2.1241e-07,0.038193,-4.083e-10,1674.6,50.707,10.76,-0.0028317,4,0.014258,0.034427,0
1589.9,54.424,19.868,-2.1241e-07,0.038193,-4.083e-10,1674.6,50.707,10.76,-0.0028317,4,0.014258,0.034427,0
1589.9,54.424,19.868,-2.1241e-07,0.038193,-4.083e-10,1674.6,50.707,10.76,-0.0028317,4,0.014258,0.034427,0
1589.9,54.424,19.868,-2.1241e-07,0.038193,-4.083e-10,1674.6,50.707,10.76,-0.0028317,4,0.014258,0.034427,0
1589.9,54.424,19.868,-2.1241e-07,0.038193,-4.083e-10,1675.1,50.707,10.92,-0.002326,4,0.012547,0.034527,0
1589.9,54.424,19.868,-2.1241e-07,0.038193,-4.083e-10,1675.1,50.707,10.92,-0.002326,4,0.012547,0.034527,0
1589.9,54.424,19.868,-2.1241e-07,0.038193,-4.083e-10,1675.3,50.707,11,-0.0020969,4,0.011748,0.034577,0
1589.9,54.424,19.868,-2.1241e-07,0.038193,-4.083e-10,1675.3,50.707,11,-0.0020969,4,0.011748,0.034577,0
1589.9,54.424,19.868,-2.1241e-07,0.038193,-4.083e-10,1675.5,50.707,11.08,-0.0018828,4,0.010986,0.034626,0
1589.9,54.424,19.868,-2.1241e-07,0.038193,-4.083e-10,1675.5,50.707,11.08,-0.0018828,4,0.010986,0.034626,0
1589.9,54.424,19.868,-2.1241e-07,0.038193,-4.083e-10,1675.5,50.707,11.08,-0.0018828,4,0.010986,0.034626,0
1589.9,54.424,19.868,-2.1241e-07,0.038193,-4.083e-10,1675.5,50.707,11.08,-0.0018828,4,0.010986,0.034626,0
1592.3,54.424,19.872,-2.1245e-07,0.032825,-3.5093e-10,1675.7,50.707,11.111,-0.0016751,1.7481e-06,0.010888,0.035576,0
1592.7,54.424,19.873,-2.1246e-07,0.031963,-3.4172e-10,1675.7,50.707,11.111,-0.0016751,1.7481e-06,0.010888,0.035746,0
1592.7,54.424,19.873,-2.1246e-07,0.031963,-3.4172e-10,1676.6,50.707,11.111,-0.00097209,7.51e-07,0.0079361,0.035368,0
1593.9,54.424,19.875,-2.1248e-07,0.029436,-3.147e-10,1676.8,50.707,11.111,-0.00082917,5.9326e-07,0.0073061,0.035781,0
1593.9,54.424,19.875,-2.1248e-07,0.029436,-3.147e-10,1676.8,50.707,11.111,-0.00082917,5.9326e-07,0.0073061,0.035781,0
1594.3,54.424,19.875,-2.1248e-07,0.028613,-3.059e-10,1676.8,50.707,11.111,-0.00082917,5.9326e-07,0.0073061,0.035953,0
1594.3,54.424,19.875,-2.1248e-07,0.028613,-3.059e-10,1676.8,50.707,11.111,-0.00082917,5.9326e-07,0.0073061,0.035953,0
1594.3,54.424,19.875,-2.1248e-07,0.028613,-3.059e-10,1676.8,50.707,11.111,-0.00082917,5.9326e-07,0.0073061,0.035953,0
1594.3,54.424,19.875,-2.1248e-07,0.028613,-3.059e-10,1676.8,50.707,11.111,-0.00082917,5.9326e-07,0.0073061,0.035953,0
1594.3,54.424,19.875,-2.1248e-07,0.028613,-3.059e-10,1676.8,50.707,11.111,-0.00082917,5.9326e-07,0.0073061,0.035953,0
1594.3,54.424,19.875,-2.1248e-07,0.028613,-3.059e-10,1676.8,50.707,11.111,-0.00082917,5.9326e-07,0.0073061,0.035953,0
1594.3,54.424,19.875,-2.1248e-07,0.028613,-3.059e-10,1676.8,50.707,11.111,-0.00082917,5.9326e-07,0.0073061,0.035953,0
1594.3,54.424,19.875,-2.1248e-07,0.028613,-3.059e-10,1676.8,50.707,11.111,-0.00082917,5.9326e-07,0.0073061,0.035953,0
1594.3,54.424,19.875,-2.1248e-07,0.028613,-3.059e-10,1676.8,50.707,11.111,-0.00082917,5.9326e-07,0.0073061,0.035953,0
1594.3,54.424,19.875,-2.1248e-07,0.028613,-3.059e-10,1676.8,50.707,11.111,-0.00082917,5.9326e-07,0.0073061,0.035953,0
1594.3,54.424,19.875,-2.1248e-07,0.028613,-3.059e-10,1677.5,50.707,11.111,-0.00046778,2.6549e-07,0.0056288,0.035665,0
1594.3,54.424,19.875,-2.1248e-07,0.028613,-3.059e-10,1677.5,50.707,11.111,-0.00046778,2.6549e-07,0.0056288,0.035665,0
1594.3,54.424,19.875,-2.1248e-07,0.028613,-3.059e-10,1677.5,50.707,11.111,-0.00046778,2.6549e-07,0.0056288,0.035665,0
1594.3,54.424,19.875,-2.1248e-07,0.028613,-3.059e-10,1677.5,50.707,11.111,-0.00046778,2.6549e-07,0.0056288,0.035665,0
1594.3,54.424,19.875,-2.1248e-07,0.028613,-3.059e-10,1677.5,50.707,11.111,-0.00046778,2.6549e-07,0.0056288,0.035665,0
1594.3,54.424,19.875,-2.1248e-07,0.028613,-3.059e-10,1677.5,50.707,11.111,-0.00046778,2.6549e-07,0.0056288,0.035665,0
1594.3,54.424,19.875,-2.1248e-07,0.028613,-3.059e-10,1677.5,50.707,11.111,-0.00046778,2.6549e-07,0.0056288,0.035665,0
1594.3,54.424,19.875,-2.1248e-07,0.028613,-3.059e-10,1677.5,50.707,11.111,-0.00046778,2.6549e-07,0.0056288,0.035665,0
1594.3,54.424,19.875,-2.1248e-07,0.028613,-3.059e-10,1677.5,50.707,11.111,-0.00046778,2.6549e-07,0.0056288,0.035665,0
1595.1,54.424,19.876,-2.125e-07,0.022379,-2.3927e-10,1677.5,50.707,11.111,-0.00046778,2.6549e-07,0.0056288,0.036008,0
1595.1,54.424,19.876,-2.125e-07,0.022379,-2.3927e-10,1677.5,50.707,11.111,-0.00046778,2.6549e-07,0.0056288,0.036008,0
1595.5,54.424,19.877,-2.125e-07,0.015461,-1.6527e-10,1677.5,50.707,11.111,-0.00046778,2.6549e-07,0.0056288,0.036182,0
1595.5,54.424,19.877,-2.125e-07,0.015461,-1.6527e-10,1678.4,50.707,11.111,-0.00011911,5.4387e-08,0.0038372,0.035796,0
1597.1,54.424,19.877,-2.125e-07,-0.012119,1.2953e-10,1678.4,50.707,11.111,-0.00011911,5.4387e-08,0.0038372,0.036494,0
1598.7,54.424,19.875,-2.1248e-07,-0.03906,4.1759e-10,1679.3,50.707,11.111,0.00011045,-1.9097e-08,0.0024762,0.03681,0
1598.7,54.424,19.875,-2.1248e-07,-0.03906,4.1759e-10,1679.3,50.707,11.111,0.00011045,-1.9097e-08,0.0024762,0.03681,0
1598.7,54.424,19.875,-2.1248e-07,-0.03906,4.1759e-10,1679.9,50.707,11.111,0.00022277,-3.1317e-08,0.0016902,0.036509,0
1598.7,54.424,19.875,-2.1248e-07,-0.03906,4.1759e-10,1680.2,50.707,11.111,0.00025097,-3.1196e-08,0.0014669,0.03641,0
1598.7,54.424,19.875,-2.1248e-07,-0.03906,4.1759e-10,1680.2,50.707,11.111,0.00025097,-3.1196e-08,0.0014669,0.03641,0
1598.7,54.424,19.875,-2.1248e-07,-0.03906,4.1759e-10,1680.2,50.707,11.111,0.00025097,-3.1196e-08,0.0014669,0.03641,0
1598.7,54.424,19.875,-2.1248e-07,-0.03906,4.1759e-10,1680.2,50.707,11.111,0.00025097,-3.1196e-08,0.0014669,0.03641,0
1598.7,54.424,19.875,-2.1248e-07,-0.03906,4.1759e-10,1680.4,50.707,11.111,0.00027514,-2.9797e-08,0.0012611,0.036311,0
1598.7,54.424,19.875,-2.1248e-07,-0.03906,4.1759e-10,1680.4,50.707,11.111,0.00027514,-2.9797e-08,0.0012611,0.036311,0
1598.7,54.424,19.875,-2.1248e-07,-0.03906,4.1759e-10,1680.4,50.707,11.111,0.00027514,-2.9797e-08,0.0012611,0.036311,0
1598.7,54.424,19.875,-2.1248e-07,-0.03906,4.1759e-10,1680.4,50.707,11.111,0.00027514,-2.9797e-08,0.0012611,0.036311,0
1598.7,54.424,19.875,-2.1248e-07,-0.03906,4.1759e-10,1680.4,50.707,11.111,0.00027514,-2.9797e-08,0.0012611,0.036311,0
1598.7,54.424,19.875,-2.1248e-07,-0.03906,4.1759e-10,1680.4,50.707,11.111,0.00027514,-2.9797e-08,0.0012611,0.036311,0
1598.7,54.424,19.875,-2.1248e-07,-0.03906,4.1759e-10,1680.4,50.707,11.111,0.00027514,-2.9797e-08,0.0012611,0.036311,0
1598.7,54.424,19.875,-2.1248e-07,-0.03906,4.1759e-10,1680.4,50.707,11.111,0.00027514,-2.9797e-08,0.0012611,0.036311,0
1598.7,54.424,19.875,-2.1248e-07,-0.03906,4.1759e-10,1680.6,50.707,11.111,0.00029561,-2.7483e-08,0.0010719,0.036213,0
1598.7,54.424,19.875,-2.1248e-07,-0.03906,4.1759e-10,1680.6,50.707,11.111,0.00029561,-2.7483e-08,0.0010719,0.036213,0
1598.7,54.424,19.875,-2.1248e-07,-0.03906,4.1759e-10,1680.6,50.707,11.111,0.00029561,-2.7483e-08,0.0010719,0.036213,0
1598.7,54.424,19.875,-2.1248e-07,-0.03906,4.1759e-10,1680.6,50.707,11.111,0.00029561,-2.7483e-08,0.0010719,0.036213,0
1598.7,54.424,19.875,-2.1248e-07,-0.03906,4.1759e-10,1680.6,50.707,11.111,0.00029561,-2.7483e-08,0.0010719,0.036213,0
1598.7,54.424,19.875,-2.1248e-07,-0.03906,4.1759e-10,1680.6,50.707,11.111,0.00029561,-2.7483e-08,0.0010719,0.036213,0
1598.7,54.424,19.875,-2.1248e-07,-0.03906,4.1759e-10,1680.6,50.707,11.111,0.00029561,-2.7483e-08,0.0010719,0.036213,0
1600.7,54.424,19.869,-2.1242e-07,-0.071844,7.6809e-10,1680.6,50.707,11.111,0.00029561,-2.7483e-08,0.0010719,0.03711,0
1601.9,54.424,19.864,-2.1237e-07,-0.091058,9.7348e-10,1681.1,50.707,11.111,0.00032666,-2.1241e-08,0.00073921,0.037459,0
1601.9,54.424,19.864,-2.1237e-07,-0.091058,9.7348e-10,1681.9,50.707,11.111,0.00035666,-7.4144e-09,0.0002325,0.037045,0
1601.9,54.424,19.864,-2.1237e-07,-0.091058,9.7348e-10,1681.9,50.707,11.111,0.00035666,-7.4144e-09,0.0002325,0.037045,0
1604.2,54.424,19.851,-2.1223e-07,-0.12849,1.3737e-09,1682.2,50.707,11.111,0.00035884,-4.3161e-09,0.00013415,0.038068,0
1604.2,54.424,19.851,-2.1223e-07,-0.12849,1.3737e-09,1682.2,50.707,11.111,0.00035884,-4.3161e-09,0.00013415,0.038068,0
1604.2,54.424,19.851,-2.1223e-07,-0.12849,1.3737e-09,1682.2,50.707,11.111,0.00035884,-4.3161e-09,0.00013415,0.038068,0
1604.2,54.424,19.851,-2.1223e-07,-0.12849,1.3737e-09,1682.2,50.707,11.111,0.00035884,-4.3161e-09,0.00013415,0.038068,0
1604.2,54.424,19.851,-2.1223e-07,-0.12849,1.3737e-09,1682.2,50.707,11.111,0.00035884,-4.3161e-09,0.00013415,0.038068,0
1604.2,54.424,19.851,-2.1223e-07,-0.12849,1.3737e-09,1682.2,50.707,11.111,0.00035884,-4.3161e-09,0.00013415,0.038068,0
1604.2,54.424,19.851,-2.1223e-07,-0.12849,1.3737e-09,1682.2,50.707,11.111,0.00035884,-4.3161e-09,0.00013415,0.038068,0
1604.2,54.424,19.851,-2.1223e-07,-0.12849,1.3737e-09,1682.2,50.707,11.111,0.00035884,-4.3161e-09,0.00013415,0.038068,0
1604.2,54.424,19.851,-2.1223e-07,-0.12849,1.3737e-09,1682.2,50.707,11.111,0.00035884,-4.3161e-09,0.00013415,0.038068,0
1604.2,54.424,19.851,-2.1223e-07,-0.12849,1.3737e-09,1682.2,50.707,11.111,0.00035884,-4.3161e-09,0.00013415,0.038068,0
1604.2,54.424,19.851,-2.1223e-07,-0.12849,1.3737e-09,1682.2,50.707,11.111,0.00035884,-4.3161e-09,0.00013415,0.038068,0
1604.2,54.424,19.851,-2.1223e-07,-0.12849,1.3737e-09,1683.1,50.707,11.111,0.00035209,5.3272e-09,-0.00016732,0.037641,0
1604.2,54.424,19.851,-2.1223e-07,-0.12849,1.3737e-09,1683.1,50.707,11.111,0.00035209,5.3272e-09,-0.00016732,0.037641,0
1604.2,54.424,19.851,-2.1223e-07,-0.12849,1.3737e-09,1683.1,50.707,11.111,0.00035209,5.3272e-09,-0.00016732,0.037641,0
1604.2,54.424,19.851,-2.1223e-07,-0.12849,1.3737e-09,1683.1,50.707,11.111,0.00035209,5.3272e-09,-0.00016732,0.037641,0
1604.2,54.424,19.851,-2.1223e-07,-0.12849,1.3737e-09,1683.3,50.707,11.111,0.00034735,7.0106e-09,-0.00022283,0.037535,0
1604.2,54.424,19.851,-2.1223e-07,-0.12849,1.3737e-09,1683.3,50.707,11.111,0.00034735,7.0106e-09,-0.00022283,0.037535,0
1604.2,54.424,19.851,-2.1223e-07,-0.12849,1.3737e-09,1683.3,50.707,11.111,0.00034735,7.0106e-09,-0.00022283,0.037535,0
1604.2,54.424,19.851,-2.1223e-07,-0.12849,1.3737e-09,1683.3,50.707,11.111,0.00034735,7.0106e-09,-0.00022283,0.037535,0
1604.2,54.424,19.851,-2.1223e-07,-0.12849,1.3737e-09,1683.3,50.707,11.111,0.00034735,7.0106e-09,-0.00022283,0.037535,0
1604.2,54.424,19.851,-2.1223e-07,-0.12849,1.3737e-09,1683.3,50.707,11.111,0.00034735,7.0106e-09,-0.00022283,0.037535,0
1604.2,54.424,19.851,-2.1223e-07,-0.12849,1.3737e-09,1683.3,50.707,11.111,0.00034735,7.0106e-09,-0.00022283,0.037535,0
1605.4,54.424,19.843,-2.1214e-07,-0.14673,1.5687e-09,1683.3,50.707,11.111,0.00034735,7.0106e-09,-0.00022283,0.038107,0
1605.4,54.424,19.843,-2.1214e-07,-0.14673,1.5687e-09,1684.2,50.707,11.111,0.00032016,1.1135e-08,-0.00038189,0.037679,0
1607,54.424,19.83,-2.12e-07,-0.17057,1.8235e-09,1684.2,50.707,11.111,0.00032016,1.1135e-08,-0.00038189,0.038451,0
1607,54.424,19.83,-2.12e-07,-0.17057,1.8235e-09,1684.8,50.707,11.111,0.00029409,1.2038e-08,-0.00044801,0.038123,0
1607,54.424,19.83,-2.12e-07,-0.17057,1.8235e-09,1684.8,50.707,11.111,0.00029409,1.2038e-08,-0.00044801,0.038123,0
1607,54.424,19.83,-2.12e-07,-0.17057,1.8235e-09,1685.1,50.707,11.111,0.00028477,1.2035e-08,-0.00046207,0.038014,0
1609.4,54.424,19.808,-2.1176e-07,-0.20535,2.1953e-09,1685.1,50.707,11.111,0.00028477,1.2035e-08,-0.00046207,0.039205,0
1609.4,54.424,19.808,-2.1176e-07,-0.20535,2.1953e-09,1685.1,50.707,11.111,0.00028477,1.2035e-08,-0.00046207,0.039205,0
1609.4,54.424,19.808,-2.1176e-07,-0.20535,2.1953e-09,1685.1,50.707,11.111,0.00028477,1.2035e-08,-0.00046207,0.039205,0
1609.4,54.424,19.808,-2.1176e-07,-0.20535,2.1953e-09,1685.1,50.707,11.111,0.00028477,1.2035e-08,-0.00046207,0.039205,0
1609.4,54.424,19.808,-2.1176e-07,-0.20535,2.1953e-09,1685.1,50.707,11.111,0.00028477,1.2035e-08,-0.00046207,0.039205,0
1609.4,54.424,19.808,-2.1176e-07,-0.20535,2.1953e-09,1685.9,50.707,11.111,0.00024612,1.1008e-08,-0.00048731,0.038751,0
1609.4,54.424,19.808,-2.1176e-07,-0.20535,2.1953e-09,1685.9,50.707,11.111,0.00024612,1.1008e-08,-0.00048731,0.038751,0
1609.4,54.424,19.808,-2.1176e-07,-0.20535,2.1953e-09,1685.9,50.707,11.111,0.00024612,1.1008e-08,-0.00048731,0.038751,0
1609.4,54.424,19.808,-2.1176e-07,-0.20535,2.1953e-09,1685.9,50.707,11.111,0.00024612,1.1008e-08,-0.00048731,0.038751,0
1609.4,54.424,19.808,-2.1176e-07,-0.20535,2.1953e-09,1685.9,50.707,11.111,0.00024612,1.1008e-08,-0.00048731,0.038751,0
1609.4,54.424,19.808,-2.1176e-07,-0.20535,2.1953e-09,1685.9,50.707,11.111,0.00024612,1.1008e-08,-0.00048731,0.038751,0
1609.4,54.424,19.808,-2.1176e-07,-0.20535,2.1953e-09,1685.9,50.707,11.111,0.00024612,1.1008e-08,-0.00048731,0.038751,0
1609.4,54.424,19.808,-2.1176e-07,-0.20535,2.1953e-09,1686.2,50.707,11.111,0.00023637,1.058e-08,-0.0004873,0.03864,0
1609.4,54.424,19.808,-2.1176e-07,-0.20535,2.1953e-09,1686.2,50.707,11.111,0.00023637,1.058e-08,-0.0004873,0.03864,0
1609.4,54.424,19.808,-2.1176e-07,-0.20535,2.1953e-09,1686.2,50.707,11.111,0.00023637,1.058e-08,-0.0004873,0.03864,0
1609.4,54.424,19.808,-2.1176e-07,-0.20535,2.1953e-09,1686.4,50.707,11.111,0.00022668,1.0112e-08,-0.00048527,0.038529,0
1611,54.424,19.79,-2.1158e-07,-0.2279,2.4364e-09,1686.4,50.707,11.111,0.00022668,1.0112e-08,-0.00048527,0.039335,0
1611,54.424,19.79,-2.1158e-07,-0.2279,2.4364e-09,1686.4,50.707,11.111,0.00022668,1.0112e-08,-0.00048527,0.039335,0
1612.6,54.424,19.771,-2.1137e-07,-0.24996,2.6723e-09,1687.1,50.707,11.111,0.00019822,8.5685e-09,-0.0004692,0.039817,0
1612.6,54.424,19.771,-2.1137e-07,-0.24996,2.6723e-09,1687.7,50.707,11.111,0.00017125,6.9883e-09,-0.00044202,0.039465,0
1613.4,54.424,19.761,-2.1126e-07,-0.26082,2.7884e-09,1687.7,50.707,11.111,0.00017125,6.9883e-09,-0.00044202,0.039883,0
1613.4,54.424,19.761,-2.1126e-07,-0.26082,2.7884e-09,1688.2,50.707,11.111,0.00015434,5.9894e-09,-0.00041978,0.039647,0
1613.4,54.424,19.761,-2.1126e-07,-0.26082,2.7884e-09,1688.2,50.707,11.111,0.00015434,5.9894e-09,-0.00041978,0.039647,0
1613.4,54.424,19.761,-2.1126e-07,-0.26082,2.7884e-09,1688.4,50.707,11.111,0.00014624,5.517e-09,-0.00040781,0.03953,0
1613.4,54.424,19.761,-2.1126e-07,-0.26082,2.7884e-09,1688.4,50.707,11.111,0.00014624,5.517e-09,-0.00040781,0.03953,0
1613.4,54.424,19.761,-2.1126e-07,-0.26082,2.7884e-09,1688.4,50.707,11.111,0.00014624,5.517e-09,-0.00040781,0.03953,0
1613.4,54.424,19.761,-2.1126e-07,-0.26082,2.7884e-09,1688.4,50.707,11.111,0.00014624,5.517e-09,-0.00040781,0.03953,0
1613.4,54.424,19.761,-2.1126e-07,-0.26082,2.7884e-09,1688.4,50.707,11.111,0.00014624,5.517e-09,-0.00040781,0.03953,0
1613.4,54.424,19.761,-2.1126e-07,-0.26082,2.7884e-09,1688.4,50.707,11.111,0.00014624,5.517e-09,-0.00040781,0.03953,0
1613.4,54.424,19.761,-2.1126e-07,-0.26082,2.7884e-09,1688.4,50.707,11.111,0.00014624,5.517e-09,-0.00040781,0.03953,0
1613.4,54.424,19.761,-2.1126e-07,-0.26082,2.7884e-09,1688.4,50.707,11.111,0.00014624,5.517e-09,-0.00040781,0.03953,0
1614.5,54.424,19.745,-2.1109e-07,-0.27689,2.9602e-09,1688.4,50.707,11.111,0.00014624,5.517e-09,-0.00040781,0.040162,0
1614.5,54.424,19.745,-2.1109e-07,-0.27689,2.9602e-09,1688.4,50.707,11.111,0.00014624,5.517e-09,-0.00040781,0.040162,0
1614.5,54.424,19.745,-2.1109e-07,-0.27689,2.9602e-09,1688.4,50.707,11.111,0.00014624,5.517e-09,-0.00040781,0.040162,0
1614.5,54.424,19.745,-2.1109e-07,-0.27689,2.9602e-09,1688.4,50.707,11.111,0.00014624,5.517e-09,-0.00040781,0.040162,0
1614.5,54.424,19.745,-2.1109e-07,-0.27689,2.9602e-09,1688.4,50.707,11.111,0.00014624,5.517e-09,-0.00040781,0.040162,0
1614.5,54.424,19.745,-2.1109e-07,-0.27689,2.9602e-09,1688.4,50.707,11.111,0.00014624,5.517e-09,-0.00040781,0.040162,0
1614.5,54.424,19.745,-2.1109e-07,-0.27689,2.9602e-09,1688.4,50.707,11.111,0.00014624,5.517e-09,-0.00040781,0.040162,0
1614.5,54.424,19.745,-2.1109e-07,-0.27689,2.9602e-09,1688.4,50.707,11.111,0.00014624,5.517e-09,-0.00040781,0.040162,0
1614.5,54.424,19.745,-2.1109e-07,-0.27689,2.9602e-09,1688.4,50.707,11.111,0.00014624,5.517e-09,-0.00040781,0.040162,0
1614.5,54.424,19.745,-2.1109e-07,-0.27689,2.9602e-09,1688.4,50.707,11.111,0.00014624,5.517e-09,-0.00040781,0.040162,0
1614.5,54.424,19.745,-2.1109e-07,-0.27689,2.9602e-09,1688.8,50.707,11.111,0.0001308,4.6368e-09,-0.00038268,0.039922,0
1614.5,54.424,19.745,-2.1109e-07,-0.27689,2.9602e-09,1688.8,50.707,11.111,0.0001308,4.6368e-09,-0.00038268,0.039922,0
1614.5,54.424,19.745,-2.1109e-07,-0.27689,2.9602e-09,1688.8,50.707,11.111,0.0001308,4.6368e-09,-0.00038268,0.039922,0
1614.5,54.424,19.745,-2.1109e-07,-0.27689,2.9602e-09,1688.8,50.707,11.111,0.0001308,4.6368e-09,-0.00038268,0.039922,0
1614.5,54.424,19.745,-2.1109e-07,-0.27689,2.9602e-09,1688.8,50.707,11.111,0.0001308,4.6368e-09,-0.00038268,0.039922,0
1614.5,54.424,19.745,-2.1109e-07,-0.27689,2.9602e-09,1688.8,50.707,11.111,0.0001308,4.6368e-09,-0.00038268,0.039922,0
1614.5,54.424,19.745,-2.1109e-07,-0.27689,2.9602e-09,1688.8,50.707,11.111,0.0001308,4.6368e-09,-0.00038268,0.039922,0
1614.5,54.424,19.745,-2.1109e-07,-0.27689,2.9602e-09,1688.8,50.707,11.111,0.0001308,4.6368e-09,-0.00038268,0.039922,0
1616.1,54.424,19.722,-2.1084e-07,-0.29792,3.185e-09,1688.8,50.707,11.111,0.0001308,4.6368e-09,-0.00038268,0.040786,0
1616.1,54.424,19.722,-2.1084e-07,-0.29792,3.185e-09,1689.7,50.707,11.111,0.00010307,3.1603e-09,-0.00033012,0.040295,0
1617.3,54.424,19.704,-2.1065e-07,-0.31341,3.3506e-09,1689.7,50.707,11.111,0.00010307,3.1603e-09,-0.00033012,0.04095,0
1618.9,54.424,19.678,-2.1037e-07,-0.33368,3.5674e-09,1690.8,50.707,11.111,7.4298e-05,1.8375e-09,-0.00026532,0.041214,0
1618.9,54.424,19.678,-2.1037e-07,-0.33368,3.5674e-09,1691.7,50.707,11.111,5.5737e-05,1.1332e-09,-0.00021742,0.040713,0
1618.9,54.424,19.678,-2.1037e-07,-0.33368,3.5674e-09,1691.7,50.707,11.111,5.5737e-05,1.1332e-09,-0.00021742,0.040713,0
1618.9,54.424,19.678,-2.1037e-07,-0.33368,3.5674e-09,1691.9,50.707,11.111,5.1669e-05,9.9713e-10,-0.0002062,0.040589,0
1618.9,54.424,19.678,-2.1037e-07,-0.33368,3.5674e-09,1691.9,50.707,11.111,5.1669e-05,9.9713e-10,-0.0002062,0.040589,0
1618.9,54.424,19.678,-2.1037e-07,-0.33368,3.5674e-09,1691.9,50.707,11.111,5.1669e-05,9.9713e-10,-0.0002062,0.040589,0
1618.9,54.424,19.678,-2.1037e-07,-0.33368,3.5674e-09,1691.9,50.707,11.111,5.1669e-05,9.9713e-10,-0.0002062,0.040589,0
1618.9,54.424,19.678,-2.1037e-07,-0.33368,3.5674e-09,1691.9,50.707,11.111,5.1669e-05,9.9713e-10,-0.0002062,0.040589,0
1618.9,54.424,19.678,-2.1037e-07,-0.33368,3.5674e-09,1691.9,50.707,11.111,5.1669e-05,9.9713e-10,-0.0002062,0.040589,0
1618.9,54.424,19.678,-2.1037e-07,-0.33368,3.5674e-09,1691.9,50.707,11.111,5.1669e-05,9.9713e-10,-0.0002062,0.040589,0
1618.9,54.424,19.678,-2.1037e-07,-0.33368,3.5674e-09,1692.2,50.707,11.111,4.7818e-05,8.7486e-10,-0.00019531,0.040467,0
1618.9,54.424,19.678,-2.1037e-07,-0.33368,3.5674e-09,1692.2,50.707,11.111,4.7818e-05,8.7486e-10,-0.00019531,0.040467,0
1618.9,54.424,19.678,-2.1037e-07,-0.33368,3.5674e-09,1692.2,50.707,11.111,4.7818e-05,8.7486e-10,-0.00019531,0.040467,0
1618.9,54.424,19.678,-2.1037e-07,-0.33368,3.5674e-09,1692.2,50.707,11.111,4.7818e-05,8.7486e-10,-0.00019531,0.040467,0
1618.9,54.424,19.678,-2.1037e-07,-0.33368,3.5674e-09,1692.2,50.707,11.111,4.7818e-05,8.7486e-10,-0.00019531,0.040467,0
1618.9,54.424,19.678,-2.1037e-07,-0.33368,3.5674e-09,1692.2,50.707,11.111,4.7818e-05,8.7486e-10,-0.00019531,0.040467,0
1618.9,54.424,19.678,-2.1037e-07,-0.33368,3.5674e-09,1692.2,50.707,11.111,4.7818e-05,8.7486e-10,-0.00019531,0.040467,0
1618.9,54.424,19.678,-2.1037e-07,-0.33368,3.5674e-09,1692.2,50.707,11.111,4.7818e-05,8.7486e-10,-0.00019531,0.040467,0
1618.9,54.424,19.678,-2.1037e-07,-0.33368,3.5674e-09,1692.2,50.707,11.111,4.7818e-05,8.7486e-10,-0.00019531,0.040467,0
1621.2,54.424,19.636,-2.0992e-07,-0.36333,3.8843e-09,1692.2,50.707,11.111,4.7818e-05,8.7486e-10,-0.00019531,0.041807,0
1621.2,54.424,19.636,-2.0992e-07,-0.36333,3.8843e-09,1692.2,50.707,11.111,4.7818e-05,8.7486e-10,-0.00019531,0.041807,0
1621.2,54.424,19.636,-2.0992e-07,-0.36333,3.8843e-09,1692.2,50.707,11.111,4.7818e-05,8.7486e-10,-0.00019531,0.041807,0
1621.2,54.424,19.636,-2.0992e-07,-0.36333,3.8843e-09,1692.2,50.707,11.111,4.7818e-05,8.7486e-10,-0.00019531,0.041807,0
1621.6,54.424,19.629,-2.0985e-07,-0.36818,3.9362e-09,1692.2,50.707,11.111,4.7818e-05,8.7486e-10,-0.00019531,0.042039,0
1621.6,54.424,19.629,-2.0985e-07,-0.36818,3.9362e-09,1692.2,50.707,11.111,4.7818e-05,8.7486e-10,-0.00019531,0.042039,0
1621.6,54.424,19.629,-2.0985e-07,-0.36818,3.9362e-09,1693.3,50.707,11.111,3.1558e-05,4.3421e-10,-0.00014611,0.041389,0
1621.6,54.424,19.629,-2.0985e-07,-0.36818,3.9362e-09,1693.3,50.707,11.111,3.1558e-05,4.3421e-10,-0.00014611,0.041389,0
1624,54.424,19.583,-2.0936e-07,-0.39679,4.2421e-09,1693.3,50.707,11.111,3.1558e-05,4.3421e-10,-0.00014611,0.042789,0
1624.8,54.424,19.567,-2.0918e-07,-0.40614,4.342e-09,1694.2,50.707,11.111,2.1718e-05,2.3276e-10,-0.00011319,0.042724,0
1625.6,54.424,19.55,-2.0901e-07,-0.41539,4.4409e-09,1694.6,50.707,11.111,1.7697e-05,1.6618e-10,-9.8814e-05,0.042932,0
1625.6,54.424,19.55,-2.0901e-07,-0.41539,4.4409e-09,1694.6,50.707,11.111,1.7697e-05,1.6618e-10,-9.8814e-05,0.042932,0
1625.6,54.424,19.55,-2.0901e-07,-0.41539,4.4409e-09,1695.1,50.707,11.111,1.4205e-05,1.1628e-10,-8.5772e-05,0.042658,0
1625.6,54.424,19.55,-2.0901e-07,-0.41539,4.4409e-09,1695.1,50.707,11.111,1.4205e-05,1.1628e-10,-8.5772e-05,0.042658,0
1625.6,54.424,19.55,-2.0901e-07,-0.41539,4.4409e-09,1695.3,50.707,11.111,1.2641e-05,9.6433e-11,-7.973e-05,0.042523,0
1625.6,54.424,19.55,-2.0901e-07,-0.41539,4.4409e-09,1695.3,50.707,11.111,1.2641e-05,9.6433e-11,-7.973e-05,0.042523,0
1625.6,54.424,19.55,-2.0901e-07,-0.41539,4.4409e-09,1695.3,50.707,11.111,1.2641e-05,9.6433e-11,-7.973e-05,0.042523,0
1625.6,54.424,19.55,-2.0901e-07,-0.41539,4.4409e-09,1695.3,50.707,11.111,1.2641e-05,9.6433e-11,-7.973e-05,0.042523,0
1625.6,54.424,19.55,-2.0901e-07,-0.41539,4.4409e-09,1695.3,50.707,11.111,1.2641e-05,9.6433e-11,-7.973e-05,0.042523,0
1625.6,54.424,19.55,-2.0901e-07,-0.41539,4.4409e-09,1695.3,50.707,11.111,1.2641e-05,9.6433e-11,-7.973e-05,0.042523,0
1625.6,54.424,19.55,-2.0901e-07,-0.41539,4.4409e-09,1695.3,50.707,11.111,1.2641e-05,9.6433e-11,-7.973e-05,0.042523,0
1625.6,54.424,19.55,-2.0901e-07,-0.41539,4.4409e-09,1695.3,50.707,11.111,1.2641e-05,9.6433e-11,-7.973e-05,0.042523,0
1626.7,54.424,19.525,-2.0874e-07,-0.4291,4.5875e-09,1695.3,50.707,11.111,1.2641e-05,9.6433e-11,-7.973e-05,0.043247,0
1626.7,54.424,19.525,-2.0874e-07,-0.4291,4.5875e-09,1695.3,50.707,11.111,1.2641e-05,9.6433e-11,-7.973e-05,0.043247,0
1626.7,54.424,19.525,-2.0874e-07,-0.4291,4.5875e-09,1695.3,50.707,11.111,1.2641e-05,9.6433e-11,-7.973e-05,0.043247,0
1626.7,54.424,19.525,-2.0874e-07,-0.4291,4.5875e-09,1695.3,50.707,11.111,1.2641e-05,9.6433e-11,-7.973e-05,0.043247,0
1626.7,54.424,19.525,-2.0874e-07,-0.4291,4.5875e-09,1695.3,50.707,11.111,1.2641e-05,9.6433e-11,-7.973e-05,0.043247,0
1626.7,54.424,19.525,-2.0874e-07,-0.4291,4.5875e-09,1695.3,50.707,11.111,1.2641e-05,9.6433e-11,-7.973e-05,0.043247,0
1626.7,54.424,19.525,-2.0874e-07,-0.4291,4.5875e-09,1695.3,50.707,11.111,1.2641e-05,9.6433e-11,-7.973e-05,0.043247,0
1626.7,54.424,19.525,-2.0874e-07,-0.4291,4.5875e-09,1695.3,50.707,11.111,1.2641e-05,9.6433e-11,-7.973e-05,0.043247,0
1626.7,54.424,19.525,-2.0874e-07,-0.4291,4.5875e-09,1695.3,50.707,11.111,1.2641e-05,9.6433e-11,-7.973e-05,0.043247,0
1626.7,54.424,19.525,-2.0874e-07,-0.4291,4.5875e-09,1695.3,50.707,11.111,1.2641e-05,9.6433e-11,-7.973e-05,0.043247,0
1626.7,54.424,19.525,-2.0874e-07,-0.4291,4.5875e-09,1695.7,50.707,11.111,9.8467e-06,6.4993e-11,-6.8565e-05,0.04297,0
1626.7,54.424,19.525,-2.0874e-07,-0.4291,4.5875e-09,1695.7,50.707,11.111,9.8467e-06,6.4993e-11,-6.8565e-05,0.04297,0
1626.7,54.424,19.525,-2.0874e-07,-0.4291,4.5875e-09,1695.7,50.707,11.111,9.8467e-06,6.4993e-11,-6.8565e-05,0.04297,0
1626.7,54.424,19.525,-2.0874e-07,-0.4291,4.5875e-09,1695.7,50.707,11.111,9.8467e-06,6.4993e-11,-6.8565e-05,0.04297,0
1626.7,54.424,19.525,-2.0874e-07,-0.4291,4.5875e-09,1695.7,50.707,11.111,9.8467e-06,6.4993e-11,-6.8565e-05,0.04297,0
1626.7,54.424,19.525,-2.0874e-07,-0.4291,4.5875e-09,1695.7,50.707,11.111,9.8467e-06,6.4993e-11,-6.8565e-05,0.04297,0
1627.5,54.424,19.508,-2.0855e-07,-0.43813,4.684e-09,1695.7,50.707,11.111,9.8467e-06,6.4993e-11,-6.8565e-05,0.043459,0
1629.1,54.424,19.472,-2.0817e-07,-0.45592,4.8741e-09,1696.6,50.707,11.111,5.4308e-06,2.6482e-11,-4.9643e-05,0.043888,0
1629.1,54.424,19.472,-2.0817e-07,-0.45592,4.8741e-09,1696.6,50.707,11.111,5.4308e-06,2.6482e-11,-4.9643e-05,0.043888,0
1630.6,54.424,19.435,-2.0777e-07,-0.47335,5.0606e-09,1697.5,50.707,11.111,2.3025e-06,8.2895e-12,-3.4756e-05,0.044324,0
1631.8,54.424,19.406,-2.0746e-07,-0.48621,5.198e-09,1697.9,50.707,11.111,1.1293e-06,3.6475e-12,-2.863e-05,0.044805,0
1631.8,54.424,19.406,-2.0746e-07,-0.48621,5.198e-09,1697.9,50.707,11.111,1.1293e-06,3.6475e-12,-2.863e-05,0.044805,0
1631.8,54.424,19.406,-2.0746e-07,-0.48621,5.198e-09,1698.6,50.707,11.111,-2.3187e-07,-4.3364e-14,-2.088e-05,0.04436,0
1631.8,54.424,19.406,-2.0746e-07,-0.48621,5.198e-09,1698.8,50.707,11.111,-5.9336e-07,-6.8278e-13,-1.8644e-05,0.044213,0
1631.8,54.424,19.406,-2.0746e-07,-0.48621,5.198e-09,1698.8,50.707,11.111,-5.9336e-07,-6.8278e-13,-1.8644e-05,0.044213,0
1631.8,54.424,19.406,-2.0746e-07,-0.48621,5.198e-09,1698.8,50.707,11.111,-5.9336e-07,-6.8278e-13,-1.8644e-05,0.044213,0
1631.8,54.424,19.406,-2.0746e-07,-0.48621,5.198e-09,1698.8,50.707,11.111,-5.9336e-07,-6.8278e-13,-1.8644e-05,0.044213,0
1631.8,54.424,19.406,-2.0746e-07,-0.48621,5.198e-09,1698.8,50.707,11.111,-5.9336e-07,-6.8278e-13,-1.8644e-05,0.044213,0
1631.8,54.424,19.406,-2.0746e-07,-0.48621,5.198e-09,1698.8,50.707,11.111,-5.9336e-07,-6.8278e-13,-1.8644e-05,0.044213,0
1631.8,54.424,19.406,-2.0746e-07,-0.48621,5.198e-09,1698.8,50.707,11.111,-5.9336e-07,-6.8278e-13,-1.8644e-05,0.044213,0
1631.8,54.424,19.406,-2.0746e-07,-0.48621,5.198e-09,1698.8,50.707,11.111,-5.9336e-07,-6.8278e-13,-1.8644e-05,0.044213,0
1631.8,54.424,19.406,-2.0746e-07,-0.48621,5.198e-09,1698.8,50.707,11.111,-5.9336e-07,-6.8278e-13,-1.8644e-05,0.044213,0
1633,54.424,19.376,-2.0715e-07,-0.49888,5.3334e-09,1698.8,50.707,11.111,-5.9336e-07,-6.8278e-13,-1.8644e-05,0.04499,0
1633,54.424,19.376,-2.0715e-07,-0.49888,5.3334e-09,1698.8,50.707,11.111,-5.9336e-07,-6.8278e-13,-1.8644e-05,0.04499,0
1633,54.424,19.376,-2.0715e-07,-0.49888,5.3334e-09,1698.8,50.707,11.111,-5.9336e-07,-6.8278e-13,-1.8644e-05,0.04499,0
1633,54.424,19.376,-2.0715e-07,-0.49888,5.3334e-09,1698.8,50.707,11.111,-5.9336e-07,-6.8278e-13,-1.8644e-05,0.04499,0
1633,54.424,19.376,-2.0715e-07,-0.49888,5.3334e-09,1698.8,50.707,11.111,-5.9336e-07,-6.8278e-13,-1.8644e-05,0.04499,0
1633,54.424,19.376,-2.0715e-07,-0.49888,5.3334e-09,1698.8,50.707,11.111,-5.9336e-07,-6.8278e-13,-1.8644e-05,0.04499,0
1633,54.424,19.376,-2.0715e-07,-0.49888,5.3334e-09,1698.8,50.707,11.111,-5.9336e-07,-6.8278e-13,-1.8644e-05,0.04499,0
1633,54.424,19.376,-2.0715e-07,-0.49888,5.3334e-09,1698.8,50.707,11.111,-5.9336e-07,-6.8278e-13,-1.8644e-05,0.04499,0
1633,54.424,19.376,-2.0715e-07,-0.49888,5.3334e-09,1698.8,50.707,11.111,-5.9336e-07,-6.8278e-13,-1.8644e-05,0.04499,0
1633,54.424,19.376,-2.0715e-07,-0.49888,5.3334e-09,1698.8,50.707,11.111,-5.9336e-07,-6.8278e-13,-1.8644e-05,0.04499,0
1633,54.424,19.376,-2.0715e-07,-0.49888,5.3334e-09,1699.3,50.707,11.111,-1.1971e-06,-1.3845e-12,-1.4641e-05,0.04469,0
1633,54.424,19.376,-2.0715e-07,-0.49888,5.3334e-09,1699.3,50.707,11.111,-1.1971e-06,-1.3845e-12,-1.4641e-05,0.04469,0
1633,54.424,19.376,-2.0715e-07,-0.49888,5.3334e-09,1699.3,50.707,11.111,-1.1971e-06,-1.3845e-12,-1.4641e-05,0.04469,0
1633,54.424,19.376,-2.0715e-07,-0.49888,5.3334e-09,1699.3,50.707,11.111,-1.1971e-06,-1.3845e-12,-1.4641e-05,0.04469,0
1633,54.424,19.376,-2.0715e-07,-0.49888,5.3334e-09,1699.3,50.707,11.111,-1.1971e-06,-1.3845e-12,-1.4641e-05,0.04469,0
1633,54.424,19.376,-2.0715e-07,-0.49888,5.3334e-09,1699.3,50.707,11.111,-1.1971e-06,-1.3845e-12,-1.4641e-05,0.04469,0
1633,54.424,19.376,-2.0715e-07,-0.49888,5.3334e-09,1699.3,50.707,11.111,-1.1971e-06,-1.3845e-12,-1.4641e-05,0.04469,0
1633,54.424,19.376,-2.0715e-07,-0.49888,5.3334e-09,1699.3,50.707,11.111,-1.1971e-06,-1.3845e-12,-1.4641e-05,0.04469,0
1634.5,54.424,19.336,-2.0671e-07,-0.51547,5.5108e-09,1699.3,50.707,11.111,-1.1971e-06,-1.3845e-12,-1.4641e-05,0.045753,0
1634.5,54.424,19.336,-2.0671e-07,-0.51547,5.5108e-09,1700.2,50.707,11.111,-2.0058e-06,-1.4351e-12,-8.2927e-06,0.045137,0
1634.5,54.424,19.336,-2.0671e-07,-0.51547,5.5108e-09,1700.2,50.707,11.111,-2.0058e-06,-1.4351e-12,-8.2927e-06,0.045137,0
1636,54.424,19.294,-2.0627e-07,-0.53175,5.6848e-09,1700.2,50.707,11.111,-2.0058e-06,-1.4351e-12,-8.2927e-06,0.046219,0
1636,54.424,19.294,-2.0627e-07,-0.53175,5.6848e-09,1700.2,50.707,11.111,-2.0058e-06,-1.4351e-12,-8.2927e-06,0.046219,0
1637.2,54.424,19.262,-2.0592e-07,-0.54374,5.813e-09,1701.3,50.707,11.111,-2.4627e-06,-6.2949e-13,-2.8736e-06,0.046252,0
1637.2,54.424,19.262,-2.0592e-07,-0.54374,5.813e-09,1701.3,50.707,11.111,-2.4627e-06,-6.2949e-13,-2.8736e-06,0.046252,0
1638.7,54.424,19.217,-2.0545e-07,-0.55945,5.9809e-09,1702.2,50.707,11.111,-2.5308e-06,-1.5832e-14,-6.9526e-08,0.046723,0
1638.7,54.424,19.217,-2.0545e-07,-0.55945,5.9809e-09,1702.2,50.707,11.111,-2.5308e-06,-1.5832e-14,-6.9526e-08,0.046723,0
1638.7,54.424,19.217,-2.0545e-07,-0.55945,5.9809e-09,1702.6,50.707,11.111,-2.4976e-06,2.1138e-13,9.3683e-07,0.0464,0
1638.7,54.424,19.217,-2.0545e-07,-0.55945,5.9809e-09,1702.8,50.707,11.111,-2.4683e-06,3.0307e-13,1.3568e-06,0.04624,0
1638.7,54.424,19.217,-2.0545e-07,-0.55945,5.9809e-09,1702.8,50.707,11.111,-2.4683e-06,3.0307e-13,1.3568e-06,0.04624,0
1638.7,54.424,19.217,-2.0545e-07,-0.55945,5.9809e-09,1702.8,50.707,11.111,-2.4683e-06,3.0307e-13,1.3568e-06,0.04624,0
1638.7,54.424,19.217,-2.0545e-07,-0.55945,5.9809e-09,1703.1,50.707,11.111,-2.4319e-06,3.806e-13,1.7267e-06,0.046081,0
1638.7,54.424,19.217,-2.0545e-07,-0.55945,5.9809e-09,1703.1,50.707,11.111,-2.4319e-06,3.806e-13,1.7267e-06,0.046081,0
1638.7,54.424,19.217,-2.0545e-07,-0.55945,5.9809e-09,1703.1,50.707,11.111,-2.4319e-06,3.806e-13,1.7267e-06,0.046081,0
1638.7,54.424,19.217,-2.0545e-07,-0.55945,5.9809e-09,1703.1,50.707,11.111,-2.4319e-06,3.806e-13,1.7267e-06,0.046081,0
1638.7,54.424,19.217,-2.0545e-07,-0.55945,5.9809e-09,1703.1,50.707,11.111,-2.4319e-06,3.806e-13,1.7267e-06,0.046081,0
1638.7,54.424,19.217,-2.0545e-07,-0.55945,5.9809e-09,1703.1,50.707,11.111,-2.4319e-06,3.806e-13,1.7267e-06,0.046081,0
1638.7,54.424,19.217,-2.0545e-07,-0.55945,5.9809e-09,1703.1,50.707,11.111,-2.4319e-06,3.806e-13,1.7267e-06,0.046081,0
1638.7,54.424,19.217,-2.0545e-07,-0.55945,5.9809e-09,1703.3,50.707,11.111,-2.3892e-06,4.4464e-13,2.0502e-06,0.045923,0
1638.7,54.424,19.217,-2.0545e-07,-0.55945,5.9809e-09,1703.3,50.707,11.111,-2.3892e-06,4.4464e-13,2.0502e-06,0.045923,0
1638.7,54.424,19.217,-2.0545e-07,-0.55945,5.9809e-09,1703.3,50.707,11.111,-2.3892e-06,4.4464e-13,2.0502e-06,0.045923,0
1638.7,54.424,19.217,-2.0545e-07,-0.55945,5.9809e-09,1703.3,50.707,11.111,-2.3892e-06,4.4464e-13,2.0502e-06,0.045923,0
1638.7,54.424,19.217,-2.0545e-07,-0.55945,5.9809e-09,1703.3,50.707,11.111,-2.3892e-06,4.4464e-13,2.0502e-06,0.045923,0
1638.7,54.424,19.217,-2.0545e-07,-0.55945,5.9809e-09,1703.3,50.707,11.111,-2.3892e-06,4.4464e-13,2.0502e-06,0.045923,0
1638.7,54.424,19.217,-2.0545e-07,-0.55945,5.9809e-09,1703.3,50.707,11.111,-2.3892e-06,4.4464e-13,2.0502e-06,0.045923,0
1638.7,54.424,19.217,-2.0545e-07,-0.55945,5.9809e-09,1703.3,50.707,11.111,-2.3892e-06,4.4464e-13,2.0502e-06,0.045923,0
1638.7,54.424,19.217,-2.0545e-07,-0.55945,5.9809e-09,1703.3,50.707,11.111,-2.3892e-06,4.4464e-13,2.0502e-06,0.045923,0
1640.7,54.424,19.16,-2.0484e-07,-0.57865,6.1862e-09,1703.3,50.707,11.111,-2.3892e-06,4.4464e-13,2.0502e-06,0.047323,0
1640.7,54.424,19.16,-2.0484e-07,-0.57865,6.1862e-09,1703.3,50.707,11.111,-2.3892e-06,4.4464e-13,2.0502e-06,0.047323,0
1640.7,54.424,19.16,-2.0484e-07,-0.57865,6.1862e-09,1703.7,50.707,11.111,-2.2884e-06,5.3577e-13,2.5724e-06,0.046991,0
1640.7,54.424,19.16,-2.0484e-07,-0.57865,6.1862e-09,1704.4,50.707,11.111,-2.1093e-06,5.954e-13,3.091e-06,0.046502,0
1640.7,54.424,19.16,-2.0484e-07,-0.57865,6.1862e-09,1704.4,50.707,11.111,-2.1093e-06,5.954e-13,3.091e-06,0.046502,0
1640.7,54.424,19.16,-2.0484e-07,-0.57865,6.1862e-09,1704.4,50.707,11.111,-2.1093e-06,5.954e-13,3.091e-06,0.046502,0
1640.7,54.424,19.16,-2.0484e-07,-0.57865,6.1862e-09,1704.6,50.707,11.111,-2.0446e-06,5.9896e-13,3.2047e-06,0.046341,0
1644.1,54.424,19.053,-2.037e-07,-0.612,6.5428e-09,1704.6,50.707,11.111,-2.0446e-06,5.9896e-13,3.2047e-06,0.04896,0
1644.1,54.424,19.053,-2.037e-07,-0.612,6.5428e-09,1705.7,50.707,11.111,-1.705e-06,5.3805e-13,3.4371e-06,0.048082,0
1644.1,54.424,19.053,-2.037e-07,-0.612,6.5428e-09,1705.7,50.707,11.111,-1.705e-06,5.3805e-13,3.4371e-06,0.048082,0
1644.1,54.424,19.053,-2.037e-07,-0.612,6.5428e-09,1705.7,50.707,11.111,-1.705e-06,5.3805e-13,3.4371e-06,0.048082,0
1644.1,54.424,19.053,-2.037e-07,-0.612,6.5428e-09,1705.7,50.707,11.111,-1.705e-06,5.3805e-13,3.4371e-06,0.048082,0
1644.1,54.424,19.053,-2.037e-07,-0.612,6.5428e-09,1705.7,50.707,11.111,-1.705e-06,5.3805e-13,3.4371e-06,0.048082,0
1644.1,54.424,19.053,-2.037e-07,-0.612,6.5428e-09,1705.7,50.707,11.111,-1.705e-06,5.3805e-13,3.4371e-06,0.048082,0
1644.1,54.424,19.053,-2.037e-07,-0.612,6.5428e-09,1705.7,50.707,11.111,-1.705e-06,5.3805e-13,3.4371e-06,0.048082,0
1644.9,54.424,19.029,-2.0343e-07,-0.6192,6.6198e-09,1705.7,50.707,11.111,-1.705e-06,5.3805e-13,3.4371e-06,0.048681,0
1644.9,54.424,19.029,-2.0343e-07,-0.6192,6.6198e-09,1706.2,50.707,11.111,-1.5682e-06,4.9185e-13,3.4106e-06,0.04833,0
1644.9,54.424,19.029,-2.0343e-07,-0.6192,6.6198e-09,1706.2,50.707,11.111,-1.5682e-06,4.9185e-13,3.4106e-06,0.04833,0
1644.9,54.424,19.029,-2.0343e-07,-0.6192,6.6198e-09,1706.2,50.707,11.111,-1.5682e-06,4.9185e-13,3.4106e-06,0.04833,0
1644.9,54.424,19.029,-2.0343e-07,-0.6192,6.6198e-09,1706.2,50.707,11.111,-1.5682e-06,4.9185e-13,3.4106e-06,0.04833,0
1644.9,54.424,19.029,-2.0343e-07,-0.6192,6.6198e-09,1706.2,50.707,11.111,-1.5682e-06,4.9185e-13,3.4106e-06,0.04833,0
1644.9,54.424,19.029,-2.0343e-07,-0.6192,6.6198e-09,1706.2,50.707,11.111,-1.5682e-06,4.9185e-13,3.4106e-06,0.04833,0
1645.6,54.424,19,-2.0313e-07,-0.75492,8.0708e-09,1706.2,50.707,11.111,-1.5682e-06,4.9185e-13,3.4106e-06,0.048933,0
1645.6,54.424,19,-2.0313e-07,-0.75492,8.0708e-09,1706.2,50.707,11.111,-1.5682e-06,4.9185e-13,3.4106e-06,0.048933,0
1646,54.424,18.985,-2.0296e-07,-0.75584,8.0806e-09,1706.2,50.707,11.111,-1.5682e-06,4.9185e-13,3.4106e-06,0.04924,0
1646,54.424,18.985,-2.0296e-07,-0.75584,8.0806e-09,1707.1,50.707,11.111,-1.3047e-06,3.8788e-13,3.2237e-06,0.048528,0
1647.1,54.424,18.94,-2.0248e-07,-0.75281,8.0482e-09,1707.1,50.707,11.111,-1.3047e-06,3.8788e-13,3.2237e-06,0.049444,0
1647.1,54.424,18.94,-2.0248e-07,-0.75281,8.0482e-09,1707.1,50.707,11.111,-1.3047e-06,3.8788e-13,3.2237e-06,0.049444,0
1647.1,54.424,18.94,-2.0248e-07,-0.75281,8.0482e-09,1707.1,50.707,11.111,-1.3047e-06,3.8788e-13,3.2237e-06,0.049444,0
1647.1,54.424,18.94,-2.0248e-07,-0.75281,8.0482e-09,1707.1,50.707,11.111,-1.3047e-06,3.8788e-13,3.2237e-06,0.049444,0
1648.3,54.424,18.894,-2.02e-07,-0.75041,8.0226e-09,1707.1,50.707,11.111,-1.3047e-06,3.8788e-13,3.2237e-06,0.050392,0
1648.7,54.424,18.879,-2.0184e-07,-0.74978,8.0159e-09,1707.1,50.707,11.111,-1.3047e-06,3.8788e-13,3.2237e-06,0.050716,0
1648.7,54.424,18.879,-2.0184e-07,-0.74978,8.0159e-09,1707.1,50.707,11.111,-1.3047e-06,3.8788e-13,3.2237e-06,0.050716,0
1648.7,54.424,18.879,-2.0184e-07,-0.74978,8.0159e-09,1707.1,50.707,11.111,-1.3047e-06,3.8788e-13,3.2237e-06,0.050716,0
1648.7,54.424,18.879,-2.0184e-07,-0.74978,8.0159e-09,1707.1,50.707,11.111,-1.3047e-06,3.8788e-13,3.2237e-06,0.050716,0
1648.7,54.424,18.879,-2.0184e-07,-0.74978,8.0159e-09,1707.1,50.707,11.111,-1.3047e-06,3.8788e-13,3.2237e-06,0.050716,0
1648.7,54.424,18.879,-2.0184e-07,-0.74978,8.0159e-09,1707.1,50.707,11.111,-1.3047e-06,3.8788e-13,3.2237e-06,0.050716,0
1649,54.424,18.864,-2.0168e-07,-0.74924,8.01e-09,1707.1,50.707,11.111,-1.3047e-06,3.8788e-13,3.2237e-06,0.051044,0
1649.8,54.424,18.835,-2.0136e-07,-0.74838,8.0009e-09,1707.1,50.707,11.111,-1.3047e-06,3.8788e-13,3.2237e-06,0.051712,0
1649.8,54.424,18.835,-2.0136e-07,-0.74838,8.0009e-09,1707.1,50.707,11.111,-1.3047e-06,3.8788e-13,3.2237e-06,0.051712,0
1649.8,54.424,18.835,-2.0136e-07,-0.74838,8.0009e-09,1707.1,50.707,11.111,-1.3047e-06,3.8788e-13,3.2237e-06,0.051712,0
1649.8,54.424,18.835,-2.0136e-07,-0.74838,8.0009e-09,1707.1,50.707,11.111,-1.3047e-06,3.8788e-13,3.2237e-06,0.051712,0
1649.8,54.424,18.835,-2.0136e-07,-0.74838,8.0009e-09,1707.1,50.707,11.111,-1.3047e-06,3.8788e-13,3.2237e-06,0.051712,0
1649.8,54.424,18.835,-2.0136e-07,-0.74838,8.0009e-09,1707.1,50.707,11.111,-1.3047e-06,3.8788e-13,3.2237e-06,0.051712,0
1649.8,54.424,18.835,-2.0136e-07,-0.74838,8.0009e-09,1707.1,50.707,11.111,-1.3047e-06,3.8788e-13,3.2237e-06,0.051712,0
1649.8,54.424,18.835,-2.0136e-07,-0.74838,8.0009e-09,1707.1,50.707,11.111,-1.3047e-06,3.8788e-13,3.2237e-06,0.051712,0
1649.8,54.424,18.835,-2.0136e-07,-0.74838,8.0009e-09,1707.1,50.707,11.111,-1.3047e-06,3.8788e-13,3.2237e-06,0.051712,0
1649.8,54.424,18.835,-2.0136e-07,-0.74838,8.0009e-09,1707.1,50.707,11.111,-1.3047e-06,3.8788e-13,3.2237e-06,0.051712,0
1650.5,54.424,18.805,-2.0104e-07,-0.74785,7.9952e-09,1709.1,50.707,11.111,0.0049665,-3.9704e-05,0.11585,0.050617,0
1651.3,54.424,18.775,-2.0072e-07,-0.74765,7.9931e-09,1709.5,50.708,11.111,0.013896,-0.00024976,0.24177,0.050882,0
1651.3,54.424,18.775,-2.0072e-07,-0.74765,7.9931e-09,1709.5,50.708,11.111,0.013896,-0.00024976,0.24177,0.050882,0
1651.3,54.424,18.775,-2.0072e-07,-0.74765,7.9931e-09,1709.5,50.708,11.111,0.013896,-0.00024976,0.24177,0.050882,0
1651.3,54.424,18.775,-2.0072e-07,-0.74765,7.9931e-09,1709.5,50.708,11.111,0.013896,-0.00024976,0.24177,0.050882,0
1651.3,54.424,18.775,-2.0072e-07,-0.74765,7.9931e-09,1710.4,50.71,11.111,0.051091,-0.0023526,0.57675,0.050121,0
1653.2,54.424,18.7,-1.9992e-07,-0.74864,8.0036e-09,1710.4,50.71,11.111,0.051091,-0.0023526,0.57675,0.051752,0
1653.2,54.424,18.7,-1.9992e-07,-0.74864,8.0036e-09,1710.4,50.71,11.111,0.051091,-0.0023526,0.57675,0.051752,0
1653.2,54.424,18.7,-1.9992e-07,-0.74864,8.0036e-09,1710.4,50.71,11.111,0.051091,-0.0023526,0.57675,0.051752,0
1653.2,54.424,18.7,-1.9992e-07,-0.74864,8.0036e-09,1710.4,50.71,11.111,0.051091,-0.0023526,0.57675,0.051752,0
1653.2,54.424,18.7,-1.9992e-07,-0.74864,8.0036e-09,1710.4,50.71,11.111,0.051091,-0.0023526,0.57675,0.051752,0
1653.2,54.424,18.7,-1.9992e-07,-0.74864,8.0036e-09,1710.4,50.71,11.111,0.051091,-0.0023526,0.57675,0.051752,0
1653.2,54.424,18.7,-1.9992e-07,-0.74864,8.0036e-09,1710.4,50.71,11.111,0.051091,-0.0023526,0.57675,0.051752,0
1653.2,54.424,18.7,-1.9992e-07,-0.74864,8.0036e-09,1710.4,50.71,11.111,0.051091,-0.0023526,0.57675,0.051752,0
1653.2,54.424,18.7,-1.9992e-07,-0.74864,8.0036e-09,1710.4,50.71,11.111,0.051091,-0.0023526,0.57675,0.051752,0
1653.2,54.424,18.7,-1.9992e-07,-0.74864,8.0036e-09,1711.1,50.715,11.111,0.098725,-0.0070379,0.86847,0.051159,0
1653.2,54.424,18.7,-1.9992e-07,-0.74864,8.0036e-09,1711.1,50.715,11.111,0.098725,-0.0070379,0.86847,0.051159,0
1653.9,54.424,18.67,-1.996e-07,-0.74962,8.0141e-09,1711.1,50.715,11.111,0.098725,-0.0070379,0.86847,0.051824,0
1653.9,54.424,18.67,-1.996e-07,-0.74962,8.0141e-09,1711.1,50.715,11.111,0.098725,-0.0070379,0.86847,0.051824,0
1653.9,54.424,18.67,-1.996e-07,-0.74962,8.0141e-09,1711.5,50.72,11.11,0.14051,-0.012502,1.07,0.051426,0
1653.9,54.424,18.67,-1.996e-07,-0.74962,8.0141e-09,1711.5,50.72,11.11,0.14051,-0.012502,1.07,0.051426,0
1654.7,54.424,18.64,-1.9928e-07,-0.75092,8.028e-09,1711.5,50.72,11.11,0.14051,-0.012502,1.07,0.052097,0
1656.1,54.424,18.58,-1.9863e-07,-0.75443,8.0655e-09,1712.4,50.736,11.108,0.24812,-0.030849,1.468,0.052645,0
1656.1,54.424,18.58,-1.9863e-07,-0.75443,8.0655e-09,1712.4,50.736,11.108,0.24812,-0.030849,1.468,0.052645,0
1656.1,54.424,18.58,-1.9863e-07,-0.75443,8.0655e-09,1712.4,50.736,11.108,0.24812,-0.030849,1.468,0.052645,0
1656.5,54.424,18.565,-1.9847e-07,-0.75548,8.0768e-09,1712.4,50.736,11.108,0.24812,-0.030849,1.468,0.052993,0
1656.5,54.424,18.565,-1.9847e-07,-0.75548,8.0768e-09,1713.1,50.754,11.106,0.3489,-0.052155,1.7478,0.052367,0
1656.5,54.424,18.565,-1.9847e-07,-0.75548,8.0768e-09,1713.1,50.754,11.106,0.3489,-0.052155,1.7478,0.052367,0
1656.5,54.424,18.565,-1.9847e-07,-0.75548,8.0768e-09,1713.3,50.762,11.104,0.38605,-0.060778,1.8356,0.052161,0
1656.5,54.424,18.565,-1.9847e-07,-0.75548,8.0768e-09,1713.3,50.762,11.104,0.38605,-0.060778,1.8356,0.052161,0
1656.5,54.424,18.565,-1.9847e-07,-0.75548,8.0768e-09,1713.3,50.762,11.104,0.38605,-0.060778,1.8356,0.052161,0
1656.5,54.424,18.565,-1.9847e-07,-0.75548,8.0768e-09,1713.3,50.762,11.104,0.38605,-0.060778,1.8356,0.052161,0
1656.5,54.424,18.565,-1.9847e-07,-0.75548,8.0768e-09,1713.3,50.762,11.104,0.38605,-0.060778,1.8356,0.052161,0
1656.5,54.424,18.565,-1.9847e-07,-0.75548,8.0768e-09,1713.3,50.762,11.104,0.38605,-0.060778,1.8356,0.052161,0
1656.5,54.424,18.565,-1.9847e-07,-0.75548,8.0768e-09,1713.3,50.762,11.104,0.38605,-0.060778,1.8356,0.052161,0
1657.6,54.424,18.519,-1.9799e-07,-0.75905,8.1149e-09,1713.3,50.762,11.104,0.38605,-0.060778,1.8356,0.053197,0
1657.6,54.424,18.519,-1.9799e-07,-0.75905,8.1149e-09,1713.3,50.762,11.104,0.38605,-0.060778,1.8356,0.053197,0
1657.6,54.424,18.519,-1.9799e-07,-0.75905,8.1149e-09,1713.3,50.762,11.104,0.38605,-0.060778,1.8356,0.053197,0
1657.6,54.424,18.519,-1.9799e-07,-0.75905,8.1149e-09,1713.7,50.779,11.101,0.46533,-0.080287,2.0016,0.052772,0
1657.6,54.424,18.519,-1.9799e-07,-0.75905,8.1149e-09,1713.7,50.779,11.101,0.46533,-0.080287,2.0016,0.052772,0
1658.4,54.424,18.489,-1.9766e-07,-0.76175,8.1438e-09,1713.7,50.779,11.101,0.46533,-0.080287,2.0016,0.053473,0
1658.4,54.424,18.489,-1.9766e-07,-0.76175,8.1438e-09,1713.7,50.779,11.101,0.46533,-0.080287,2.0016,0.053473,0
1658.7,54.424,18.473,-1.975e-07,-0.76319,8.1592e-09,1713.7,50.779,11.101,0.46533,-0.080287,2.0016,0.05383,0
1659.8,54.424,18.428,-1.9701e-07,-0.76784,8.2089e-09,1714.6,50.824,11.093,0.64174,-0.12775,2.2901,0.054025,0
1660.6,54.424,18.397,-1.9668e-07,-0.7712,8.2447e-09,1715.1,50.852,11.087,0.73762,-0.15513,2.4108,0.0543,0
1660.6,54.424,18.397,-1.9668e-07,-0.7712,8.2447e-09,1715.1,50.852,11.087,0.73762,-0.15513,2.4108,0.0543,0
1660.9,54.424,18.381,-1.9651e-07,-0.77295,8.2635e-09,1715.1,50.852,11.087,0.73762,-0.15513,2.4108,0.054667,0
1660.9,54.424,18.381,-1.9651e-07,-0.77295,8.2635e-09,1715.1,50.852,11.087,0.73762,-0.15513,2.4108,0.054667,0
1660.9,54.424,18.381,-1.9651e-07,-0.77295,8.2635e-09,1715.1,50.852,11.087,0.73762,-0.15513,2.4108,0.054667,0
1660.9,54.424,18.381,-1.9651e-07,-0.77295,8.2635e-09,1715.1,50.852,11.087,0.73762,-0.15513,2.4108,0.054667,0
1660.9,54.424,18.381,-1.9651e-07,-0.77295,8.2635e-09,1715.1,50.852,11.087,0.73762,-0.15513,2.4108,0.054667,0
1660.9,54.424,18.381,-1.9651e-07,-0.77295,8.2635e-09,1715.1,50.852,11.087,0.73762,-0.15513,2.4108,0.054667,0
1660.9,54.424,18.381,-1.9651e-07,-0.77295,8.2635e-09,1715.1,50.852,11.087,0.73762,-0.15513,2.4108,0.054667,0
1660.9,54.424,18.381,-1.9651e-07,-0.77295,8.2635e-09,1715.1,50.852,11.087,0.73762,-0.15513,2.4108,0.054667,0
1660.9,54.424,18.381,-1.9651e-07,-0.77295,8.2635e-09,1715.1,50.852,11.087,0.73762,-0.15513,2.4108,0.054667,0
1660.9,54.424,18.381,-1.9651e-07,-0.77295,8.2635e-09,1715.1,50.852,11.087,0.73762,-0.15513,2.4108,0.054667,0
1660.9,54.424,18.381,-1.9651e-07,-0.77295,8.2635e-09,1715.7,50.902,11.076,0.88922,-0.19965,2.5609,0.053982,0
1660.9,54.424,18.381,-1.9651e-07,-0.77295,8.2635e-09,1715.7,50.902,11.076,0.88922,-0.19965,2.5609,0.053982,0
1660.9,54.424,18.381,-1.9651e-07,-0.77295,8.2635e-09,1715.7,50.902,11.076,0.88922,-0.19965,2.5609,0.053982,0
1660.9,54.424,18.381,-1.9651e-07,-0.77295,8.2635e-09,1715.7,50.902,11.076,0.88922,-0.19965,2.5609,0.053982,0
1660.9,54.424,18.381,-1.9651e-07,-0.77295,8.2635e-09,1715.7,50.902,11.076,0.88922,-0.19965,2.5609,0.053982,0
1660.9,54.424,18.381,-1.9651e-07,-0.77295,8.2635e-09,1715.7,50.902,11.076,0.88922,-0.19965,2.5609,0.053982,0
1660.9,54.424,18.381,-1.9651e-07,-0.77295,8.2635e-09,1715.7,50.902,11.076,0.88922,-0.19965,2.5609,0.053982,0
1660.9,54.424,18.381,-1.9651e-07,-0.77295,8.2635e-09,1715.7,50.902,11.076,0.88922,-0.19965,2.5609,0.053982,0
1660.9,54.424,18.381,-1.9651e-07,-0.77295,8.2635e-09,1715.7,50.902,11.076,0.88922,-0.19965,2.5609,0.053982,0
1660.9,54.424,18.381,-1.9651e-07,-0.77295,8.2635e-09,1715.7,50.902,11.076,0.88922,-0.19965,2.5609,0.053982,0
1661.7,54.424,18.35,-1.9618e-07,-0.77659,8.3025e-09,1715.7,50.902,11.076,0.88922,-0.19965,2.5609,0.054711,0
1662,54.424,18.335,-1.9601e-07,-0.77848,8.3226e-09,1715.7,50.902,11.076,0.88922,-0.19965,2.5609,0.055083,0
1663.5,54.424,18.272,-1.9535e-07,-0.78645,8.4078e-09,1716.6,50.982,11.056,1.1024,-0.26287,2.7034,0.055635,0
1665.3,54.424,18.193,-1.945e-07,-0.79725,8.5232e-09,1717.3,51.054,11.039,1.2677,-0.31092,2.7685,0.056827,0
1665.3,54.424,18.193,-1.945e-07,-0.79725,8.5232e-09,1717.3,51.054,11.039,1.2677,-0.31092,2.7685,0.056827,0
1665.3,54.424,18.193,-1.945e-07,-0.79725,8.5232e-09,1717.3,51.054,11.039,1.2677,-0.31092,2.7685,0.056827,0
1665.3,54.424,18.193,-1.945e-07,-0.79725,8.5232e-09,1717.3,51.054,11.039,1.2677,-0.31092,2.7685,0.056827,0
1665.3,54.424,18.193,-1.945e-07,-0.79725,8.5232e-09,1717.3,51.054,11.039,1.2677,-0.31092,2.7685,0.056827,0
1665.3,54.424,18.193,-1.945e-07,-0.79725,8.5232e-09,1717.3,51.054,11.039,1.2677,-0.31092,2.7685,0.056827,0
1665.3,54.424,18.193,-1.945e-07,-0.79725,8.5232e-09,1717.3,51.054,11.039,1.2677,-0.31092,2.7685,0.056827,0
1665.3,54.424,18.193,-1.945e-07,-0.79725,8.5232e-09,1717.3,51.054,11.039,1.2677,-0.31092,2.7685,0.056827,0
1665.7,54.424,18.177,-1.9433e-07,-0.79951,8.5474e-09,1717.3,51.054,11.039,1.2677,-0.31092,2.7685,0.057226,0
1665.7,54.424,18.177,-1.9433e-07,-0.79951,8.5474e-09,1717.3,51.054,11.039,1.2677,-0.31092,2.7685,0.057226,0
1665.7,54.424,18.177,-1.9433e-07,-0.79951,8.5474e-09,1717.3,51.054,11.039,1.2677,-0.31092,2.7685,0.057226,0
1665.7,54.424,18.177,-1.9433e-07,-0.79951,8.5474e-09,1717.3,51.054,11.039,1.2677,-0.31092,2.7685,0.057226,0
1665.7,54.424,18.177,-1.9433e-07,-0.79951,8.5474e-09,1717.3,51.054,11.039,1.2677,-0.31092,2.7685,0.057226,0
1665.7,54.424,18.177,-1.9433e-07,-0.79951,8.5474e-09,1717.3,51.054,11.039,1.2677,-0.31092,2.7685,0.057226,0
1665.7,54.424,18.177,-1.9433e-07,-0.79951,8.5474e-09,1717.3,51.054,11.039,1.2677,-0.31092,2.7685,0.057226,0
1665.7,54.424,18.177,-1.9433e-07,-0.79951,8.5474e-09,1717.3,51.054,11.039,1.2677,-0.31092,2.7685,0.057226,0
1665.7,54.424,18.177,-1.9433e-07,-0.79951,8.5474e-09,1717.3,51.054,11.039,1.2677,-0.31092,2.7685,0.057226,0
1665.7,54.424,18.177,-1.9433e-07,-0.79951,8.5474e-09,1717.3,51.054,11.039,1.2677,-0.31092,2.7685,0.057226,0
1665.7,54.424,18.177,-1.9433e-07,-0.79951,8.5474e-09,1718.6,51.228,10.995,1.6036,-0.40114,2.8003,0.0557,0
1665.7,54.424,18.177,-1.9433e-07,-0.79951,8.5474e-09,1718.6,51.228,10.995,1.6036,-0.40114,2.8003,0.0557,0
1665.7,54.424,18.177,-1.9433e-07,-0.79951,8.5474e-09,1718.6,51.228,10.995,1.6036,-0.40114,2.8003,0.0557,0
1665.7,54.424,18.177,-1.9433e-07,-0.79951,8.5474e-09,1718.8,51.261,10.987,1.6595,-0.41474,2.7939,0.055451,0
1667.2,54.424,18.113,-1.9364e-07,-0.80887,8.6475e-09,1718.8,51.261,10.987,1.6595,-0.41474,2.7939,0.057001,0
1668.6,54.424,18.048,-1.9294e-07,-0.81869,8.7525e-09,1719.5,51.367,10.96,1.8256,-0.45208,2.7569,0.057814,0
1668.6,54.424,18.048,-1.9294e-07,-0.81869,8.7525e-09,1720.3,51.522,10.922,2.0417,-0.49235,2.6699,0.056748,0
1669.3,54.424,18.015,-1.9259e-07,-0.82376,8.8067e-09,1720.3,51.522,10.922,2.0417,-0.49235,2.6699,0.057546,0
1669.3,54.424,18.015,-1.9259e-07,-0.82376,8.8067e-09,1720.8,51.607,10.902,2.1465,-0.50784,2.6122,0.057011,0
1669.3,54.424,18.015,-1.9259e-07,-0.82376,8.8067e-09,1720.8,51.607,10.902,2.1465,-0.50784,2.6122,0.057011,0
1669.3,54.424,18.015,-1.9259e-07,-0.82376,8.8067e-09,1721,51.65,10.892,2.198,-0.51434,2.5802,0.056747,0
1669.3,54.424,18.015,-1.9259e-07,-0.82376,8.8067e-09,1721,51.65,10.892,2.198,-0.51434,2.5802,0.056747,0
1669.3,54.424,18.015,-1.9259e-07,-0.82376,8.8067e-09,1721,51.65,10.892,2.198,-0.51434,2.5802,0.056747,0
1669.3,54.424,18.015,-1.9259e-07,-0.82376,8.8067e-09,1721,51.65,10.892,2.198,-0.51434,2.5802,0.056747,0
1669.3,54.424,18.015,-1.9259e-07,-0.82376,8.8067e-09,1721,51.65,10.892,2.198,-0.51434,2.5802,0.056747,0
1669.3,54.424,18.015,-1.9259e-07,-0.82376,8.8067e-09,1721,51.65,10.892,2.198,-0.51434,2.5802,0.056747,0
1669.3,54.424,18.015,-1.9259e-07,-0.82376,8.8067e-09,1721,51.65,10.892,2.198,-0.51434,2.5802,0.056747,0
1669.3,54.424,18.015,-1.9259e-07,-0.82376,8.8067e-09,1721,51.65,10.892,2.198,-0.51434,2.5802,0.056747,0
1670.4,54.424,17.965,-1.9206e-07,-0.83156,8.8901e-09,1721,51.65,10.892,2.198,-0.51434,2.5802,0.057952,0
1670.4,54.424,17.965,-1.9206e-07,-0.83156,8.8901e-09,1721,51.65,10.892,2.198,-0.51434,2.5802,0.057952,0
1670.4,54.424,17.965,-1.9206e-07,-0.83156,8.8901e-09,1721,51.65,10.892,2.198,-0.51434,2.5802,0.057952,0
1670.4,54.424,17.965,-1.9206e-07,-0.83156,8.8901e-09,1721,51.65,10.892,2.198,-0.51434,2.5802,0.057952,0
1670.4,54.424,17.965,-1.9206e-07,-0.83156,8.8901e-09,1721,51.65,10.892,2.198,-0.51434,2.5802,0.057952,0
1670.4,54.424,17.965,-1.9206e-07,-0.83156,8.8901e-09,1721,51.65,10.892,2.198,-0.51434,2.5802,0.057952,0
1670.4,54.424,17.965,-1.9206e-07,-0.83156,8.8901e-09,1721,51.65,10.892,2.198,-0.51434,2.5802,0.057952,0
1670.4,54.424,17.965,-1.9206e-07,-0.83156,8.8901e-09,1721,51.65,10.892,2.198,-0.51434,2.5802,0.057952,0
1670.4,54.424,17.965,-1.9206e-07,-0.83156,8.8901e-09,1721,51.65,10.892,2.198,-0.51434,2.5802,0.057952,0
1670.4,54.424,17.965,-1.9206e-07,-0.83156,8.8901e-09,1721,51.65,10.892,2.198,-0.51434,2.5802,0.057952,0
1670.4,54.424,17.965,-1.9206e-07,-0.83156,8.8901e-09,1721.4,51.741,10.871,2.2988,-0.52477,2.5102,0.057409,0
1670.4,54.424,17.965,-1.9206e-07,-0.83156,8.8901e-09,1721.4,51.741,10.871,2.2988,-0.52477,2.5102,0.057409,0
1670.4,54.424,17.965,-1.9206e-07,-0.83156,8.8901e-09,1721.4,51.741,10.871,2.2988,-0.52477,2.5102,0.057409,0
1670.4,54.424,17.965,-1.9206e-07,-0.83156,8.8901e-09,1721.4,51.741,10.871,2.2988,-0.52477,2.5102,0.057409,0
1670.4,54.424,17.965,-1.9206e-07,-0.83156,8.8901e-09,1721.4,51.741,10.871,2.2988,-0.52477,2.5102,0.057409,0
1670.4,54.424,17.965,-1.9206e-07,-0.83156,8.8901e-09,1721.4,51.741,10.871,2.2988,-0.52477,2.5102,0.057409,0
1671.1,54.424,17.932,-1.9171e-07,-0.83687,8.9469e-09,1721.4,51.741,10.871,2.2988,-0.52477,2.5102,0.058224,0
1672.5,54.424,17.864,-1.9099e-07,-0.84774,9.063e-09,1722.3,51.934,10.828,2.4909,-0.53503,2.3491,0.058775,0
1674,54.424,17.796,-1.9026e-07,-0.85888,9.1821e-09,1723.2,52.141,10.786,2.6689,-0.53092,2.1642,0.059337,0
1674,54.424,17.796,-1.9026e-07,-0.85888,9.1821e-09,1723.6,52.25,10.765,2.752,-0.52352,2.0643,0.058771,0
1675,54.424,17.744,-1.897e-07,-0.86738,9.273e-09,1723.6,52.25,10.765,2.752,-0.52352,2.0643,0.060057,0
1675,54.424,17.744,-1.897e-07,-0.86738,9.273e-09,1724.2,52.419,10.734,2.8688,-0.50589,1.9065,0.059195,0
1675,54.424,17.744,-1.897e-07,-0.86738,9.273e-09,1724.2,52.419,10.734,2.8688,-0.50589,1.9065,0.059195,0
1675,54.424,17.744,-1.897e-07,-0.86738,9.273e-09,1724.2,52.419,10.734,2.8688,-0.50589,1.9065,0.059195,0
1675,54.424,17.744,-1.897e-07,-0.86738,9.273e-09,1724.2,52.419,10.734,2.8688,-0.50589,1.9065,0.059195,0
1675,54.424,17.744,-1.897e-07,-0.86738,9.273e-09,1724.2,52.419,10.734,2.8688,-0.50589,1.9065,0.059195,0
1675,54.424,17.744,-1.897e-07,-0.86738,9.273e-09,1724.2,52.419,10.734,2.8688,-0.50589,1.9065,0.059195,0
1675,54.424,17.744,-1.897e-07,-0.86738,9.273e-09,1724.2,52.419,10.734,2.8688,-0.50589,1.9065,0.059195,0
1675,54.424,17.744,-1.897e-07,-0.86738,9.273e-09,1724.2,52.419,10.734,2.8688,-0.50589,1.9065,0.059195,0
1675,54.424,17.744,-1.897e-07,-0.86738,9.273e-09,1724.2,52.419,10.734,2.8688,-0.50589,1.9065,0.059195,0
1675.8,54.424,17.71,-1.8933e-07,-0.8731,9.3342e-09,1724.2,52.419,10.734,2.8688,-0.50589,1.9065,0.060059,0
1675.8,54.424,17.71,-1.8933e-07,-0.8731,9.3342e-09,1724.2,52.419,10.734,2.8688,-0.50589,1.9065,0.060059,0
1675.8,54.424,17.71,-1.8933e-07,-0.8731,9.3342e-09,1724.2,52.419,10.734,2.8688,-0.50589,1.9065,0.060059,0
1675.8,54.424,17.71,-1.8933e-07,-0.8731,9.3342e-09,1724.2,52.419,10.734,2.8688,-0.50589,1.9065,0.060059,0
1675.8,54.424,17.71,-1.8933e-07,-0.8731,9.3342e-09,1724.2,52.419,10.734,2.8688,-0.50589,1.9065,0.060059,0
1675.8,54.424,17.71,-1.8933e-07,-0.8731,9.3342e-09,1724.2,52.419,10.734,2.8688,-0.50589,1.9065,0.060059,0
1675.8,54.424,17.71,-1.8933e-07,-0.8731,9.3342e-09,1724.2,52.419,10.734,2.8688,-0.50589,1.9065,0.060059,0
1675.8,54.424,17.71,-1.8933e-07,-0.8731,9.3342e-09,1724.2,52.419,10.734,2.8688,-0.50589,1.9065,0.060059,0
1675.8,54.424,17.71,-1.8933e-07,-0.8731,9.3342e-09,1724.2,52.419,10.734,2.8688,-0.50589,1.9065,0.060059,0
1675.8,54.424,17.71,-1.8933e-07,-0.8731,9.3342e-09,1724.2,52.419,10.734,2.8688,-0.50589,1.9065,0.060059,0
1675.8,54.424,17.71,-1.8933e-07,-0.8731,9.3342e-09,1724.7,52.536,10.715,2.9413,-0.48991,1.7965,0.059484,0
1675.8,54.424,17.71,-1.8933e-07,-0.8731,9.3342e-09,1724.7,52.536,10.715,2.9413,-0.48991,1.7965,0.059484,0
1675.8,54.424,17.71,-1.8933e-07,-0.8731,9.3342e-09,1724.7,52.536,10.715,2.9413,-0.48991,1.7965,0.059484,0
1676.5,54.424,17.674,-1.8896e-07,-0.87884,9.3956e-09,1724.7,52.536,10.715,2.9413,-0.48991,1.7965,0.060355,0
1677.9,54.424,17.604,-1.882e-07,-0.89036,9.5186e-09,1725.5,52.777,10.678,3.0725,-0.44837,1.5669,0.060962,0
1679.3,54.424,17.532,-1.8743e-07,-0.90181,9.6411e-09,1726.2,52.964,10.653,3.1584,-0.40936,1.3873,0.06189,0
1679.3,54.424,17.532,-1.8743e-07,-0.90181,9.6411e-09,1726.2,52.964,10.653,3.1584,-0.40936,1.3873,0.06189,0
1680,54.424,17.496,-1.8705e-07,-0.90748,9.7018e-09,1726.8,53.157,10.63,3.2334,-0.36421,1.2023,0.061914,0
1680,54.424,17.496,-1.8705e-07,-0.90748,9.7018e-09,1726.8,53.157,10.63,3.2334,-0.36421,1.2023,0.061914,0
1680,54.424,17.496,-1.8705e-07,-0.90748,9.7018e-09,1726.8,53.157,10.63,3.2334,-0.36421,1.2023,0.061914,0
1680,54.424,17.496,-1.8705e-07,-0.90748,9.7018e-09,1726.8,53.157,10.63,3.2334,-0.36421,1.2023,0.061914,0
1680,54.424,17.496,-1.8705e-07,-0.90748,9.7018e-09,1726.8,53.157,10.63,3.2334,-0.36421,1.2023,0.061914,0
1680,54.424,17.496,-1.8705e-07,-0.90748,9.7018e-09,1726.8,53.157,10.63,3.2334,-0.36421,1.2023,0.061914,0
1680,54.424,17.496,-1.8705e-07,-0.90748,9.7018e-09,1726.8,53.157,10.63,3.2334,-0.36421,1.2023,0.061914,0
1680,54.424,17.496,-1.8705e-07,-0.90748,9.7018e-09,1726.8,53.157,10.63,3.2334,-0.36421,1.2023,0.061914,0
1680,54.424,17.496,-1.8705e-07,-0.90748,9.7018e-09,1727.2,53.287,10.617,3.2771,-0.331,1.0762,0.061324,0
1680,54.424,17.496,-1.8705e-07,-0.90748,9.7018e-09,1727.2,53.287,10.617,3.2771,-0.331,1.0762,0.061324,0
1680,54.424,17.496,-1.8705e-07,-0.90748,9.7018e-09,1727.2,53.287,10.617,3.2771,-0.331,1.0762,0.061324,0
1680,54.424,17.496,-1.8705e-07,-0.90748,9.7018e-09,1727.2,53.287,10.617,3.2771,-0.331,1.0762,0.061324,0
1680,54.424,17.496,-1.8705e-07,-0.90748,9.7018e-09,1727.2,53.287,10.617,3.2771,-0.331,1.0762,0.061324,0
1680,54.424,17.496,-1.8705e-07,-0.90748,9.7018e-09,1727.2,53.287,10.617,3.2771,-0.331,1.0762,0.061324,0
1680,54.424,17.496,-1.8705e-07,-0.90748,9.7018e-09,1727.2,53.287,10.617,3.2771,-0.331,1.0762,0.061324,0
1680.7,54.424,17.459,-1.8666e-07,-0.91464,9.7783e-09,1727.2,53.287,10.617,3.2771,-0.331,1.0762,0.062244,0
1680.7,54.424,17.459,-1.8666e-07,-0.91464,9.7783e-09,1727.2,53.287,10.617,3.2771,-0.331,1.0762,0.062244,0
1680.7,54.424,17.459,-1.8666e-07,-0.91464,9.7783e-09,1727.2,53.287,10.617,3.2771,-0.331,1.0762,0.062244,0
1680.7,54.424,17.459,-1.8666e-07,-0.91464,9.7783e-09,1727.2,53.287,10.617,3.2771,-0.331,1.0762,0.062244,0
1680.7,54.424,17.459,-1.8666e-07,-0.91464,9.7783e-09,1727.2,53.287,10.617,3.2771,-0.331,1.0762,0.062244,0
1680.7,54.424,17.459,-1.8666e-07,-0.91464,9.7783e-09,1727.2,53.287,10.617,3.2771,-0.331,1.0762,0.062244,0
1680.7,54.424,17.459,-1.8666e-07,-0.91464,9.7783e-09,1727.2,53.287,10.617,3.2771,-0.331,1.0762,0.062244,0
1680.7,54.424,17.459,-1.8666e-07,-0.91464,9.7783e-09,1727.2,53.287,10.617,3.2771,-0.331,1.0762,0.062244,0
1682.1,54.424,17.385,-1.8586e-07,-0.94001,1.0049e-08,1727.7,53.419,10.605,3.3157,-0.29551,0.94815,0.063535,0
1682.4,54.424,17.366,-1.8566e-07,-0.94612,1.0115e-08,1727.7,53.419,10.605,3.3157,-0.29551,0.94815,0.064022,0
1683.5,54.424,17.309,-1.8505e-07,-0.9637,1.0303e-08,1728.9,53.823,10.578,3.4,-0.17748,0.55317,0.063628,0
1683.5,54.424,17.309,-1.8505e-07,-0.9637,1.0303e-08,1728.9,53.823,10.578,3.4,-0.17748,0.55317,0.063628,0
1683.5,54.424,17.309,-1.8505e-07,-0.9637,1.0303e-08,1729.8,54.096,10.569,3.4293,-0.091346,0.28177,0.062443,0
1683.5,54.424,17.309,-1.8505e-07,-0.9637,1.0303e-08,1729.8,54.096,10.569,3.4293,-0.091346,0.28177,0.062443,0
1683.5,54.424,17.309,-1.8505e-07,-0.9637,1.0303e-08,1729.8,54.096,10.569,3.4293,-0.091346,0.28177,0.062443,0
1683.5,54.424,17.309,-1.8505e-07,-0.9637,1.0303e-08,1729.8,54.096,10.569,3.4293,-0.091346,0.28177,0.062443,0
1683.5,54.424,17.309,-1.8505e-07,-0.9637,1.0303e-08,1729.8,54.096,10.569,3.4293,-0.091346,0.28177,0.062443,0
1684.8,54.424,17.231,-1.8421e-07,-0.98541,1.0535e-08,1729.8,54.096,10.569,3.4293,-0.091346,0.28177,0.064362,0
1684.8,54.424,17.231,-1.8421e-07,-0.98541,1.0535e-08,1729.8,54.096,10.569,3.4293,-0.091346,0.28177,0.064362,0
1684.8,54.424,17.231,-1.8421e-07,-0.98541,1.0535e-08,1729.8,54.096,10.569,3.4293,-0.091346,0.28177,0.064362,0
1684.8,54.424,17.231,-1.8421e-07,-0.98541,1.0535e-08,1729.8,54.096,10.569,3.4293,-0.091346,0.28177,0.064362,0
1684.8,54.424,17.231,-1.8421e-07,-0.98541,1.0535e-08,1729.8,54.096,10.569,3.4293,-0.091346,0.28177,0.064362,0
1684.8,54.424,17.231,-1.8421e-07,-0.98541,1.0535e-08,1729.8,54.096,10.569,3.4293,-0.091346,0.28177,0.064362,0
1684.8,54.424,17.231,-1.8421e-07,-0.98541,1.0535e-08,1729.8,54.096,10.569,3.4293,-0.091346,0.28177,0.064362,0
1684.8,54.424,17.231,-1.8421e-07,-0.98541,1.0535e-08,1729.8,54.096,10.569,3.4293,-0.091346,0.28177,0.064362,0
1684.8,54.424,17.231,-1.8421e-07,-0.98541,1.0535e-08,1729.8,54.096,10.569,3.4293,-0.091346,0.28177,0.064362,0
1684.8,54.424,17.231,-1.8421e-07,-0.98541,1.0535e-08,1729.8,54.096,10.569,3.4293,-0.091346,0.28177,0.064362,0
1684.8,54.424,17.231,-1.8421e-07,-0.98541,1.0535e-08,1730.2,54.234,10.567,3.4358,-0.046763,0.14388,0.063758,0
1684.8,54.424,17.231,-1.8421e-07,-0.98541,1.0535e-08,1730.2,54.234,10.567,3.4358,-0.046763,0.14388,0.063758,0
1684.8,54.424,17.231,-1.8421e-07,-0.98541,1.0535e-08,1730.2,54.234,10.567,3.4358,-0.046763,0.14388,0.063758,0
1684.8,54.424,17.231,-1.8421e-07,-0.98541,1.0535e-08,1730.2,54.234,10.567,3.4358,-0.046763,0.14388,0.063758,0
1684.8,54.424,17.231,-1.8421e-07,-0.98541,1.0535e-08,1730.2,54.234,10.567,3.4358,-0.046763,0.14388,0.063758,0
1684.8,54.424,17.231,-1.8421e-07,-0.98541,1.0535e-08,1730.2,54.234,10.567,3.4358,-0.046763,0.14388,0.063758,0
1684.8,54.424,17.231,-1.8421e-07,-0.98541,1.0535e-08,1730.2,54.234,10.567,3.4358,-0.046763,0.14388,0.063758,0
1684.8,54.424,17.231,-1.8421e-07,-0.98541,1.0535e-08,1730.2,54.234,10.567,3.4358,-0.046763,0.14388,0.063758,0
1686.2,54.424,17.151,-1.8336e-07,-1.0051,1.0745e-08,1730.4,54.302,10.566,3.4369,-0.024203,0.074425,0.065436,0
1686.2,54.424,17.151,-1.8336e-07,-1.0051,1.0745e-08,1730.4,54.302,10.566,3.4369,-0.024203,0.074425,0.065436,0
1686.2,54.424,17.151,-1.8336e-07,-1.0051,1.0745e-08,1731,54.509,10.568,3.4319,0.044149,-0.13589,0.064516,0
1687.9,54.424,17.05,-1.8228e-07,-1.0266,1.0975e-08,1731,54.509,10.568,3.4319,0.044149,-0.13589,0.067075,0
1688.6,54.424,17.009,-1.8184e-07,-1.0342,1.1056e-08,1731,54.509,10.568,3.4319,0.044149,-0.13589,0.068152,0
1688.6,54.424,17.009,-1.8184e-07,-1.0342,1.1056e-08,1732.7,55.052,10.592,3.356,0.2251,-0.70881,0.065608,0
1688.6,54.424,17.009,-1.8184e-07,-1.0342,1.1056e-08,1732.7,55.052,10.592,3.356,0.2251,-0.70881,0.065608,0
1688.6,54.424,17.009,-1.8184e-07,-1.0342,1.1056e-08,1732.7,55.052,10.592,3.356,0.2251,-0.70881,0.065608,0
1688.6,54.424,17.009,-1.8184e-07,-1.0342,1.1056e-08,1732.9,55.119,10.597,3.34,0.24691,-0.78139,0.065308,0
1688.6,54.424,17.009,-1.8184e-07,-1.0342,1.1056e-08,1732.9,55.119,10.597,3.34,0.24691,-0.78139,0.065308,0
1688.6,54.424,17.009,-1.8184e-07,-1.0342,1.1056e-08,1732.9,55.119,10.597,3.34,0.24691,-0.78139,0.065308,0
1688.6,54.424,17.009,-1.8184e-07,-1.0342,1.1056e-08,1732.9,55.119,10.597,3.34,0.24691,-0.78139,0.065308,0
1688.6,54.424,17.009,-1.8184e-07,-1.0342,1.1056e-08,1732.9,55.119,10.597,3.34,0.24691,-0.78139,0.065308,0
1688.6,54.424,17.009,-1.8184e-07,-1.0342,1.1056e-08,1732.9,55.119,10.597,3.34,0.24691,-0.78139,0.065308,0
1688.6,54.424,17.009,-1.8184e-07,-1.0342,1.1056e-08,1732.9,55.119,10.597,3.34,0.24691,-0.78139,0.065308,0
1688.6,54.424,17.009,-1.8184e-07,-1.0342,1.1056e-08,1732.9,55.119,10.597,3.34,0.24691,-0.78139,0.065308,0
1688.6,54.424,17.009,-1.8184e-07,-1.0342,1.1056e-08,1733.2,55.186,10.603,3.3226,0.26841,-0.85412,0.065013,0
1688.6,54.424,17.009,-1.8184e-07,-1.0342,1.1056e-08,1733.2,55.186,10.603,3.3226,0.26841,-0.85412,0.065013,0
1688.6,54.424,17.009,-1.8184e-07,-1.0342,1.1056e-08,1733.2,55.186,10.603,3.3226,0.26841,-0.85412,0.065013,0
1688.6,54.424,17.009,-1.8184e-07,-1.0342,1.1056e-08,1733.2,55.186,10.603,3.3226,0.26841,-0.85412,0.065013,0
1688.6,54.424,17.009,-1.8184e-07,-1.0342,1.1056e-08,1733.2,55.186,10.603,3.3226,0.26841,-0.85412,0.065013,0
1688.6,54.424,17.009,-1.8184e-07,-1.0342,1.1056e-08,1733.2,55.186,10.603,3.3226,0.26841,-0.85412,0.065013,0
1688.6,54.424,17.009,-1.8184e-07,-1.0342,1.1056e-08,1733.2,55.186,10.603,3.3226,0.26841,-0.85412,0.065013,0
1688.6,54.424,17.009,-1.8184e-07,-1.0342,1.1056e-08,1733.2,55.186,10.603,3.3226,0.26841,-0.85412,0.065013,0
1690.3,54.424,16.904,-1.8072e-07,-1.0506,1.1232e-08,1733.2,55.186,10.603,3.3226,0.26841,-0.85412,0.067584,0
1691,54.424,16.862,-1.8027e-07,-1.0561,1.1291e-08,1733.6,55.318,10.615,3.2833,0.31032,-0.99993,0.068017,0
1692,54.424,16.799,-1.7959e-07,-1.0632,1.1367e-08,1734.2,55.512,10.636,3.2134,0.36985,-1.2191,0.068678,0
1692,54.424,16.799,-1.7959e-07,-1.0632,1.1367e-08,1734.9,55.702,10.661,3.1305,0.4244,-1.4381,0.067727,0
1693.3,54.424,16.713,-1.7868e-07,-1.0705,1.1444e-08,1734.9,55.702,10.661,3.1305,0.4244,-1.4381,0.06991,0
