6.097,1.3446,9.7243,-13.224,-15.447,23.522,3.4719,-55.875,5.786,-3.5918,-34.745,32.277,-7.4737,-0.32409,-29.398,2.6247
6.2851,1.2353,9.5521,-12.989,-15.134,23.351,3.7338,-55.587,6.1183,-3.837,-34.911,32.409,-7.2522,-0.46657,-29.372,2.6535
6.2851,1.2353,9.5521,-12.989,-15.134,23.351,3.7338,-55.587,6.1183,-3.837,-34.911,32.409,-7.2522,-0.46657,-29.372,2.6535
6.3807,1.1796,9.4656,-12.872,-14.976,23.264,3.865,-55.444,6.286,-3.9608,-34.994,32.474,-7.1406,-0.53914,-29.358,2.6656
6.3807,1.1796,9.4656,-12.872,-14.976,23.264,3.865,-55.444,6.286,-3.9608,-34.994,32.474,-7.1406,-0.53914,-29.358,2.6656
6.4772,1.1232,9.3788,-12.754,-14.819,23.177,3.9966,-55.3,6.4547,-4.0855,-35.077,32.539,-7.0284,-0.6126,-29.342,2.6761
6.4772,1.1232,9.3788,-12.754,-14.819,23.177,3.9966,-55.3,6.4547,-4.0855,-35.077,32.539,-7.0284,-0.6126,-29.342,2.6761
6.5747,1.0661,9.2918,-12.636,-14.661,23.089,4.1283,-55.156,6.6245,-4.2111,-35.159,32.603,-6.9157,-0.68694,-29.326,2.6851
6.5747,1.0661,9.2918,-12.636,-14.661,23.089,4.1283,-55.156,6.6245,-4.2111,-35.159,32.603,-6.9157,-0.68694,-29.326,2.6851
6.5747,1.0661,9.2918,-12.636,-14.661,23.089,4.1283,-55.156,6.6245,-4.2111,-35.159,32.603,-6.9157,-0.68694,-29.326,2.6851
6.6733,1.0083,9.2045,-12.518,-14.503,23.001,4.2603,-55.012,6.7953,-4.3375,-35.242,32.666,-6.8024,-0.76217,-29.308,2.6926
6.6733,1.0083,9.2045,-12.518,-14.503,23.001,4.2603,-55.012,6.7953,-4.3375,-35.242,32.666,-6.8024,-0.76217,-29.308,2.6926
6.6733,1.0083,9.2045,-12.518,-14.503,23.001,4.2603,-55.012,6.7953,-4.3375,-35.242,32.666,-6.8024,-0.76217,-29.308,2.6926
6.8732,0.89053,9.029,-12.282,-14.186,22.821,4.5248,-54.723,7.1398,-4.5927,-35.405,32.79,-6.5744,-0.91529,-29.27,2.7027
6.8732,0.89053,9.029,-12.282,-14.186,22.821,4.5248,-54.723,7.1398,-4.5927,-35.405,32.79,-6.5744,-0.91529,-29.27,2.7027
6.8732,0.89053,9.029,-12.282,-14.186,22.821,4.5248,-54.723,7.1398,-4.5927,-35.405,32.79,-6.5744,-0.91529,-29.27,2.7027
6.9747,0.83058,8.941,-12.164,-14.027,22.73,4.6573,-54.579,7.3136,-4.7216,-35.486,32.851,-6.4596,-0.99318,-29.249,2.7053
6.9747,0.83058,8.941,-12.164,-14.027,22.73,4.6573,-54.579,7.3136,-4.7216,-35.486,32.851,-6.4596,-0.99318,-29.249,2.7053
6.9747,0.83058,8.941,-12.164,-14.027,22.73,4.6573,-54.579,7.3136,-4.7216,-35.486,32.851,-6.4596,-0.99318,-29.249,2.7053
7.1805,0.70851,8.7641,-11.927,-13.708,22.547,4.9228,-54.291,7.6639,-4.9819,-35.647,32.971,-6.2286,-1.1516,-29.205,2.7057
7.1805,0.70851,8.7641,-11.927,-13.708,22.547,4.9228,-54.291,7.6639,-4.9819,-35.647,32.971,-6.2286,-1.1516,-29.205,2.7057
7.2848,0.6464,8.6753,-11.808,-13.548,22.454,5.0558,-54.147,7.8405,-5.1133,-35.727,33.03,-6.1124,-1.2322,-29.182,2.7035
7.2848,0.6464,8.6753,-11.808,-13.548,22.454,5.0558,-54.147,7.8405,-5.1133,-35.727,33.03,-6.1124,-1.2322,-29.182,2.7035
7.3901,0.58356,8.5863,-11.69,-13.388,22.36,5.1889,-54.003,8.0181,-5.2456,-35.807,33.088,-5.9958,-1.3136,-29.157,2.6995
7.3901,0.58356,8.5863,-11.69,-13.388,22.36,5.1889,-54.003,8.0181,-5.2456,-35.807,33.088,-5.9958,-1.3136,-29.157,2.6995
7.3901,0.58356,8.5863,-11.69,-13.388,22.36,5.1889,-54.003,8.0181,-5.2456,-35.807,33.088,-5.9958,-1.3136,-29.157,2.6995
7.4963,0.52,8.4971,-11.571,-13.228,22.266,5.3222,-53.859,8.1965,-5.3786,-35.887,33.145,-5.8787,-1.3959,-29.131,2.694
7.4963,0.52,8.4971,-11.571,-13.228,22.266,5.3222,-53.859,8.1965,-5.3786,-35.887,33.145,-5.8787,-1.3959,-29.131,2.694
7.6034,0.45571,8.4076,-11.452,-13.067,22.171,5.4555,-53.716,8.3759,-5.5125,-35.966,33.201,-5.7612,-1.4791,-29.105,2.6867
7.7115,0.3907,8.318,-11.334,-12.906,22.075,5.589,-53.572,8.5561,-5.6472,-36.044,33.257,-5.6433,-1.5632,-29.077,2.6777
7.7115,0.3907,8.318,-11.334,-12.906,22.075,5.589,-53.572,8.5561,-5.6472,-36.044,33.257,-5.6433,-1.5632,-29.077,2.6777
7.8205,0.32495,8.2282,-11.215,-12.745,21.978,5.7225,-53.428,8.7372,-5.7827,-36.123,33.312,-5.525,-1.6482,-29.048,2.667
7.8205,0.32495,8.2282,-11.215,-12.745,21.978,5.7225,-53.428,8.7372,-5.7827,-36.123,33.312,-5.525,-1.6482,-29.048,2.667
7.9304,0.25847,8.1382,-11.096,-12.584,21.881,5.8561,-53.285,8.9192,-5.919,-36.201,33.366,-5.4064,-1.7341,-29.019,2.6546
7.9304,0.25847,8.1382,-11.096,-12.584,21.881,5.8561,-53.285,8.9192,-5.919,-36.201,33.366,-5.4064,-1.7341,-29.019,2.6546
7.9304,0.25847,8.1382,-11.096,-12.584,21.881,5.8561,-53.285,8.9192,-5.919,-36.201,33.366,-5.4064,-1.7341,-29.019,2.6546
8.0412,0.19126,8.048,-10.978,-12.422,21.783,5.9898,-53.141,9.102,-6.0561,-36.279,33.419,-5.2873,-1.8209,-28.988,2.6405
8.153,0.12331,7.9576,-10.859,-12.26,21.684,6.1236,-52.998,9.2857,-6.194,-36.356,33.472,-5.168,-1.9085,-28.957,2.6246
8.153,0.12331,7.9576,-10.859,-12.26,21.684,6.1236,-52.998,9.2857,-6.194,-36.356,33.472,-5.168,-1.9085,-28.957,2.6246
8.2656,0.054629,7.8671,-10.741,-12.098,21.584,6.2574,-52.855,9.4702,-6.3327,-36.433,33.523,-5.0483,-1.997,-28.925,2.607
8.2656,0.054629,7.8671,-10.741,-12.098,21.584,6.2574,-52.855,9.4702,-6.3327,-36.433,33.523,-5.0483,-1.997,-28.925,2.607
8.3791,-0.014791,7.7764,-10.622,-11.936,21.484,6.3912,-52.712,9.6555,-6.4723,-36.509,33.574,-4.9282,-2.0864,-28.891,2.5876
8.3791,-0.014791,7.7764,-10.622,-11.936,21.484,6.3912,-52.712,9.6555,-6.4723,-36.509,33.574,-4.9282,-2.0864,-28.891,2.5876
8.4935,-0.084952,7.6856,-10.504,-11.773,21.382,6.525,-52.569,9.8416,-6.6126,-36.586,33.624,-4.8079,-2.1767,-28.857,2.5664
8.4935,-0.084952,7.6856,-10.504,-11.773,21.382,6.525,-52.569,9.8416,-6.6126,-36.586,33.624,-4.8079,-2.1767,-28.857,2.5664
8.4935,-0.084952,7.6856,-10.504,-11.773,21.382,6.525,-52.569,9.8416,-6.6126,-36.586,33.624,-4.8079,-2.1767,-28.857,2.5664
8.6088,-0.15585,7.5946,-10.386,-11.61,21.28,6.6589,-52.427,10.028,-6.7537,-36.661,33.673,-4.6873,-2.2679,-28.822,2.5435
8.7249,-0.2275,7.5035,-10.267,-11.447,21.178,6.7927,-52.285,10.216,-6.8956,-36.737,33.721,-4.5663,-2.3599,-28.785,2.5187
8.8419,-0.29988,7.4123,-10.149,-11.284,21.074,6.9266,-52.142,10.405,-7.0383,-36.812,33.768,-4.4452,-2.4528,-28.748,2.4922
8.8419,-0.29988,7.4123,-10.149,-11.284,21.074,6.9266,-52.142,10.405,-7.0383,-36.812,33.768,-4.4452,-2.4528,-28.748,2.4922
8.8419,-0.29988,7.4123,-10.149,-11.284,21.074,6.9266,-52.142,10.405,-7.0383,-36.812,33.768,-4.4452,-2.4528,-28.748,2.4922
8.9598,-0.37301,7.321,-10.032,-11.12,20.97,7.0604,-52.001,10.594,-7.1818,-36.886,33.814,-4.3237,-2.5466,-28.71,2.4638
8.9598,-0.37301,7.321,-10.032,-11.12,20.97,7.0604,-52.001,10.594,-7.1818,-36.886,33.814,-4.3237,-2.5466,-28.71,2.4638
9.0785,-0.44689,7.2295,-9.9139,-10.956,20.865,7.1942,-51.859,10.784,-7.3261,-36.96,33.859,-4.202,-2.6413,-28.671,2.4335
9.0785,-0.44689,7.2295,-9.9139,-10.956,20.865,7.1942,-51.859,10.784,-7.3261,-36.96,33.859,-4.202,-2.6413,-28.671,2.4335
9.0785,-0.44689,7.2295,-9.9139,-10.956,20.865,7.1942,-51.859,10.784,-7.3261,-36.96,33.859,-4.202,-2.6413,-28.671,2.4335
9.198,-0.52151,7.1379,-9.7963,-10.792,20.759,7.3279,-51.718,10.974,-7.4711,-37.034,33.904,-4.0801,-2.7368,-28.631,2.4015
9.3184,-0.59688,7.0463,-9.679,-10.628,20.652,7.4616,-51.577,11.165,-7.6169,-37.107,33.947,-3.958,-2.8332,-28.591,2.3676
9.4396,-0.673,6.9545,-9.5619,-10.464,20.545,7.5952,-51.436,11.357,-7.7635,-37.18,33.99,-3.8357,-2.9305,-28.549,2.3318
9.4396,-0.673,6.9545,-9.5619,-10.464,20.545,7.5952,-51.436,11.357,-7.7635,-37.18,33.99,-3.8357,-2.9305,-28.549,2.3318
9.4396,-0.673,6.9545,-9.5619,-10.464,20.545,7.5952,-51.436,11.357,-7.7635,-37.18,33.99,-3.8357,-2.9305,-28.549,2.3318
9.5616,-0.74988,6.8627,-9.445,-10.299,20.436,7.7288,-51.296,11.55,-7.9109,-37.252,34.031,-3.7132,-3.0287,-28.506,2.2941
9.5616,-0.74988,6.8627,-9.445,-10.299,20.436,7.7288,-51.296,11.55,-7.9109,-37.252,34.031,-3.7132,-3.0287,-28.506,2.2941
9.6845,-0.8275,6.7708,-9.3283,-10.134,20.327,7.8622,-51.155,11.744,-8.059,-37.324,34.071,-3.5905,-3.1277,-28.463,2.2546
9.6845,-0.8275,6.7708,-9.3283,-10.134,20.327,7.8622,-51.155,11.744,-8.059,-37.324,34.071,-3.5905,-3.1277,-28.463,2.2546
9.6845,-0.8275,6.7708,-9.3283,-10.134,20.327,7.8622,-51.155,11.744,-8.059,-37.324,34.071,-3.5905,-3.1277,-28.463,2.2546
9.8081,-0.90587,6.6788,-9.2118,-9.9689,20.218,7.9956,-51.016,11.937,-8.2078,-37.396,34.111,-3.4677,-3.2276,-28.418,2.2132
9.8081,-0.90587,6.6788,-9.2118,-9.9689,20.218,7.9956,-51.016,11.937,-8.2078,-37.396,34.111,-3.4677,-3.2276,-28.418,2.2132
9.9325,-0.985,6.5868,-9.0957,-9.8035,20.107,8.1288,-50.876,12.132,-8.3574,-37.466,34.149,-3.3447,-3.3283,-28.373,2.1699
10.058,-1.0649,6.4947,-8.9798,-9.6379,19.995,8.2619,-50.737,12.327,-8.5078,-37.537,34.187,-3.2216,-3.4299,-28.327,2.1246
10.058,-1.0649,6.4947,-8.9798,-9.6379,19.995,8.2619,-50.737,12.327,-8.5078,-37.537,34.187,-3.2216,-3.4299,-28.327,2.1246
10.184,-1.1455,6.4026,-8.8642,-9.4722,19.883,8.3949,-50.599,12.523,-8.6589,-37.607,34.223,-3.0984,-3.5324,-28.28,2.0775
10.184,-1.1455,6.4026,-8.8642,-9.4722,19.883,8.3949,-50.599,12.523,-8.6589,-37.607,34.223,-3.0984,-3.5324,-28.28,2.0775
10.311,-1.2269,6.3104,-8.7489,-9.3062,19.77,8.5277,-50.46,12.72,-8.8107,-37.676,34.259,-2.9751,-3.6357,-28.232,2.0284
10.311,-1.2269,6.3104,-8.7489,-9.3062,19.77,8.5277,-50.46,12.72,-8.8107,-37.676,34.259,-2.9751,-3.6357,-28.232,2.0284
10.311,-1.2269,6.3104,-8.7489,-9.3062,19.77,8.5277,-50.46,12.72,-8.8107,-37.676,34.259,-2.9751,-3.6357,-28.232,2.0284
10.438,-1.3091,6.2182,-8.6339,-9.14,19.656,8.6604,-50.323,12.917,-8.9633,-37.745,34.293,-2.8517,-3.7398,-28.183,1.9774
10.438,-1.3091,6.2182,-8.6339,-9.14,19.656,8.6604,-50.323,12.917,-8.9633,-37.745,34.293,-2.8517,-3.7398,-28.183,1.9774
10.566,-1.392,6.126,-8.5192,-8.9736,19.541,8.7929,-50.185,13.114,-9.1166,-37.814,34.326,-2.7282,-3.8449,-28.134,1.9244
10.566,-1.392,6.126,-8.5192,-8.9736,19.541,8.7929,-50.185,13.114,-9.1166,-37.814,34.326,-2.7282,-3.8449,-28.134,1.9244
10.566,-1.392,6.126,-8.5192,-8.9736,19.541,8.7929,-50.185,13.114,-9.1166,-37.814,34.326,-2.7282,-3.8449,-28.134,1.9244
10.825,-1.56,5.9416,-8.291,-8.6402,19.309,9.0574,-49.912,13.511,-9.4254,-37.949,34.389,-2.481,-4.0575,-28.032,1.8125
10.825,-1.56,5.9416,-8.291,-8.6402,19.309,9.0574,-49.912,13.511,-9.4254,-37.949,34.389,-2.481,-4.0575,-28.032,1.8125
10.956,-1.6452,5.8495,-8.1774,-8.4732,19.192,9.1893,-49.775,13.71,-9.5809,-38.016,34.419,-2.3574,-4.165,-27.98,1.7536
10.956,-1.6452,5.8495,-8.1774,-8.4732,19.192,9.1893,-49.775,13.71,-9.5809,-38.016,34.419,-2.3574,-4.165,-27.98,1.7536
10.956,-1.6452,5.8495,-8.1774,-8.4732,19.192,9.1893,-49.775,13.71,-9.5809,-38.016,34.419,-2.3574,-4.165,-27.98,1.7536
11.087,-1.7312,5.7573,-8.0643,-8.306,19.074,9.321,-49.64,13.91,-9.7371,-38.083,34.448,-2.2338,-4.2734,-27.927,1.6928
11.219,-1.8179,5.6651,-7.9515,-8.1386,18.955,9.4525,-49.505,14.11,-9.894,-38.149,34.476,-2.1101,-4.3827,-27.873,1.6299
11.219,-1.8179,5.6651,-7.9515,-8.1386,18.955,9.4525,-49.505,14.11,-9.894,-38.149,34.476,-2.1101,-4.3827,-27.873,1.6299
11.351,-1.9053,5.573,-7.8392,-7.9711,18.835,9.5838,-49.37,14.31,-10.052,-38.214,34.502,-1.9865,-4.4927,-27.818,1.5651
11.351,-1.9053,5.573,-7.8392,-7.9711,18.835,9.5838,-49.37,14.31,-10.052,-38.214,34.502,-1.9865,-4.4927,-27.818,1.5651
11.485,-1.9935,5.4809,-7.7273,-7.8033,18.715,9.7148,-49.236,14.511,-10.21,-38.279,34.528,-1.8629,-4.6036,-27.763,1.4982
11.485,-1.9935,5.4809,-7.7273,-7.8033,18.715,9.7148,-49.236,14.511,-10.21,-38.279,34.528,-1.8629,-4.6036,-27.763,1.4982
11.619,-2.0825,5.3889,-7.6158,-7.6354,18.594,9.8456,-49.102,14.713,-10.369,-38.343,34.552,-1.7393,-4.7154,-27.706,1.4293
11.619,-2.0825,5.3889,-7.6158,-7.6354,18.594,9.8456,-49.102,14.713,-10.369,-38.343,34.552,-1.7393,-4.7154,-27.706,1.4293
11.754,-2.1723,5.297,-7.5049,-7.4673,18.471,9.9761,-48.969,14.915,-10.529,-38.407,34.575,-1.6158,-4.8279,-27.649,1.3584
11.754,-2.1723,5.297,-7.5049,-7.4673,18.471,9.9761,-48.969,14.915,-10.529,-38.407,34.575,-1.6158,-4.8279,-27.649,1.3584
11.889,-2.2628,5.2051,-7.3944,-7.299,18.348,10.106,-48.837,15.117,-10.689,-38.47,34.597,-1.4924,-4.9413,-27.591,1.2854
12.025,-2.354,5.1133,-7.2844,-7.1305,18.224,10.236,-48.705,15.32,-10.85,-38.532,34.618,-1.369,-5.0555,-27.532,1.2105
12.025,-2.354,5.1133,-7.2844,-7.1305,18.224,10.236,-48.705,15.32,-10.85,-38.532,34.618,-1.369,-5.0555,-27.532,1.2105
12.025,-2.354,5.1133,-7.2844,-7.1305,18.224,10.236,-48.705,15.32,-10.85,-38.532,34.618,-1.369,-5.0555,-27.532,1.2105
12.162,-2.4461,5.0215,-7.1749,-6.9619,18.099,10.366,-48.573,15.523,-11.012,-38.594,34.637,-1.2457,-5.1706,-27.472,1.1334
12.162,-2.4461,5.0215,-7.1749,-6.9619,18.099,10.366,-48.573,15.523,-11.012,-38.594,34.637,-1.2457,-5.1706,-27.472,1.1334
12.299,-2.5389,4.9299,-7.0659,-6.7931,17.974,10.495,-48.443,15.726,-11.174,-38.656,34.656,-1.1225,-5.2864,-27.412,1.0543
12.299,-2.5389,4.9299,-7.0659,-6.7931,17.974,10.495,-48.443,15.726,-11.174,-38.656,34.656,-1.1225,-5.2864,-27.412,1.0543
12.437,-2.6324,4.8384,-6.9575,-6.6241,17.847,10.624,-48.313,15.93,-11.337,-38.716,34.673,-0.99949,-5.4031,-27.351,0.97317
12.437,-2.6324,4.8384,-6.9575,-6.6241,17.847,10.624,-48.313,15.93,-11.337,-38.716,34.673,-0.99949,-5.4031,-27.351,0.97317
12.576,-2.7267,4.747,-6.8496,-6.4549,17.72,10.753,-48.183,16.134,-11.501,-38.776,34.689,-0.87658,-5.5205,-27.289,0.88994
12.576,-2.7267,4.747,-6.8496,-6.4549,17.72,10.753,-48.183,16.134,-11.501,-38.776,34.689,-0.87658,-5.5205,-27.289,0.88994
12.576,-2.7267,4.747,-6.8496,-6.4549,17.72,10.753,-48.183,16.134,-11.501,-38.776,34.689,-0.87658,-5.5205,-27.289,0.88994
12.715,-2.8218,4.6557,-6.7423,-6.2856,17.592,10.881,-48.054,16.338,-11.665,-38.836,34.703,-0.75381,-5.6388,-27.226,0.80463
12.715,-2.8218,4.6557,-6.7423,-6.2856,17.592,10.881,-48.054,16.338,-11.665,-38.836,34.703,-0.75381,-5.6388,-27.226,0.80463
12.715,-2.8218,4.6557,-6.7423,-6.2856,17.592,10.881,-48.054,16.338,-11.665,-38.836,34.703,-0.75381,-5.6388,-27.226,0.80463
12.995,-3.0143,4.4735,-6.5294,-5.9465,17.333,11.137,-47.798,16.748,-11.996,-38.953,34.729,-0.50879,-5.8778,-27.098,0.62776
12.995,-3.0143,4.4735,-6.5294,-5.9465,17.333,11.137,-47.798,16.748,-11.996,-38.953,34.729,-0.50879,-5.8778,-27.098,0.62776
12.995,-3.0143,4.4735,-6.5294,-5.9465,17.333,11.137,-47.798,16.748,-11.996,-38.953,34.729,-0.50879,-5.8778,-27.098,0.62776
13.136,-3.1117,4.3827,-6.4239,-5.7767,17.202,11.264,-47.671,16.953,-12.162,-39.011,34.74,-0.38655,-5.9984,-27.033,0.53618
13.278,-3.2098,4.292,-6.319,-5.6068,17.07,11.391,-47.545,17.159,-12.329,-39.067,34.749,-0.26452,-6.1199,-26.967,0.44249
13.278,-3.2098,4.292,-6.319,-5.6068,17.07,11.391,-47.545,17.159,-12.329,-39.067,34.749,-0.26452,-6.1199,-26.967,0.44249
13.42,-3.3087,4.2014,-6.2148,-5.4367,16.937,11.517,-47.42,17.364,-12.496,-39.124,34.757,-0.14271,-6.2421,-26.9,0.34669
13.42,-3.3087,4.2014,-6.2148,-5.4367,16.937,11.517,-47.42,17.364,-12.496,-39.124,34.757,-0.14271,-6.2421,-26.9,0.34669
13.563,-3.4083,4.1111,-6.1112,-5.2664,16.804,11.643,-47.295,17.57,-12.664,-39.179,34.764,-0.021124,-6.3651,-26.832,0.24878
13.563,-3.4083,4.1111,-6.1112,-5.2664,16.804,11.643,-47.295,17.57,-12.664,-39.179,34.764,-0.021124,-6.3651,-26.832,0.24878
13.706,-3.5088,4.0209,-6.0083,-5.096,16.67,11.769,-47.171,17.776,-12.833,-39.234,34.77,0.10021,-6.4889,-26.764,0.14874
13.706,-3.5088,4.0209,-6.0083,-5.096,16.67,11.769,-47.171,17.776,-12.833,-39.234,34.77,0.10021,-6.4889,-26.764,0.14874
13.706,-3.5088,4.0209,-6.0083,-5.096,16.67,11.769,-47.171,17.776,-12.833,-39.234,34.77,0.10021,-6.4889,-26.764,0.14874
13.85,-3.6099,3.931,-5.906,-4.9255,16.534,11.894,-47.047,17.983,-13.003,-39.288,34.774,0.22129,-6.6135,-26.695,0.046567
13.995,-3.7119,3.8412,-5.8045,-4.7548,16.398,12.019,-46.925,18.189,-13.172,-39.342,34.777,0.3421,-6.7389,-26.625,-0.057738
14.14,-3.8146,3.7516,-5.7037,-4.584,16.261,12.143,-46.803,18.396,-13.343,-39.395,34.779,0.46262,-6.865,-26.554,-0.16418
14.14,-3.8146,3.7516,-5.7037,-4.584,16.261,12.143,-46.803,18.396,-13.343,-39.395,34.779,0.46262,-6.865,-26.554,-0.16418
14.14,-3.8146,3.7516,-5.7037,-4.584,16.261,12.143,-46.803,18.396,-13.343,-39.395,34.779,0.46262,-6.865,-26.554,-0.16418
14.285,-3.9181,3.6623,-5.6036,-4.413,16.124,12.267,-46.682,18.602,-13.514,-39.447,34.779,0.58285,-6.9919,-26.483,-0.27278
14.285,-3.9181,3.6623,-5.6036,-4.413,16.124,12.267,-46.682,18.602,-13.514,-39.447,34.779,0.58285,-6.9919,-26.483,-0.27278
14.431,-4.0223,3.5732,-5.5042,-4.2419,15.985,12.391,-46.562,18.809,-13.686,-39.498,34.777,0.70276,-7.1195,-26.411,-0.38352
14.431,-4.0223,3.5732,-5.5042,-4.2419,15.985,12.391,-46.562,18.809,-13.686,-39.498,34.777,0.70276,-7.1195,-26.411,-0.38352
14.431,-4.0223,3.5732,-5.5042,-4.2419,15.985,12.391,-46.562,18.809,-13.686,-39.498,34.777,0.70276,-7.1195,-26.411,-0.38352
14.578,-4.1273,3.4844,-5.4056,-4.0707,15.845,12.513,-46.442,19.016,-13.858,-39.549,34.775,0.82234,-7.2479,-26.338,-0.49643
14.725,-4.233,3.3958,-5.3078,-3.8993,15.705,12.636,-46.323,19.223,-14.031,-39.599,34.771,0.94159,-7.3771,-26.265,-0.6115
14.872,-4.3395,3.3075,-5.2108,-3.7278,15.563,12.758,-46.206,19.43,-14.204,-39.648,34.765,1.0605,-7.507,-26.19,-0.72873
14.872,-4.3395,3.3075,-5.2108,-3.7278,15.563,12.758,-46.206,19.43,-14.204,-39.648,34.765,1.0605,-7.507,-26.19,-0.72873
14.872,-4.3395,3.3075,-5.2108,-3.7278,15.563,12.758,-46.206,19.43,-14.204,-39.648,34.765,1.0605,-7.507,-26.19,-0.72873
15.02,-4.4468,3.2194,-5.1145,-3.5562,15.421,12.879,-46.089,19.637,-14.378,-39.697,34.759,1.179,-7.6377,-26.115,-0.84814
15.02,-4.4468,3.2194,-5.1145,-3.5562,15.421,12.879,-46.089,19.637,-14.378,-39.697,34.759,1.179,-7.6377,-26.115,-0.84814
15.169,-4.5548,3.1317,-5.0191,-3.3845,15.278,13,-45.972,19.844,-14.553,-39.744,34.75,1.2972,-7.769,-26.039,-0.96973
15.169,-4.5548,3.1317,-5.0191,-3.3845,15.278,13,-45.972,19.844,-14.553,-39.744,34.75,1.2972,-7.769,-26.039,-0.96973
15.169,-4.5548,3.1317,-5.0191,-3.3845,15.278,13,-45.972,19.844,-14.553,-39.744,34.75,1.2972,-7.769,-26.039,-0.96973
15.318,-4.6636,3.0442,-4.9245,-3.2126,15.133,13.121,-45.857,20.052,-14.728,-39.791,34.741,1.4149,-7.9012,-25.963,-1.0935
15.467,-4.7731,2.957,-4.8308,-3.0406,14.988,13.24,-45.743,20.259,-14.904,-39.837,34.729,1.5323,-8.034,-25.886,-1.2195
15.617,-4.8834,2.8702,-4.7379,-2.8685,14.842,13.36,-45.629,20.466,-15.08,-39.883,34.717,1.6492,-8.1676,-25.808,-1.3476
15.617,-4.8834,2.8702,-4.7379,-2.8685,14.842,13.36,-45.629,20.466,-15.08,-39.883,34.717,1.6492,-8.1676,-25.808,-1.3476
15.767,-4.9945,2.7836,-4.6458,-2.6963,14.696,13.478,-45.516,20.673,-15.256,-39.927,34.703,1.7658,-8.3019,-25.729,-1.4779
15.767,-4.9945,2.7836,-4.6458,-2.6963,14.696,13.478,-45.516,20.673,-15.256,-39.927,34.703,1.7658,-8.3019,-25.729,-1.4779
15.767,-4.9945,2.7836,-4.6458,-2.6963,14.696,13.478,-45.516,20.673,-15.256,-39.927,34.703,1.7658,-8.3019,-25.729,-1.4779
15.918,-5.1063,2.6974,-4.5547,-2.524,14.548,13.597,-45.405,20.88,-15.434,-39.971,34.687,1.8818,-8.4369,-25.649,-1.6105
15.918,-5.1063,2.6974,-4.5547,-2.524,14.548,13.597,-45.405,20.88,-15.434,-39.971,34.687,1.8818,-8.4369,-25.649,-1.6105
16.069,-5.2188,2.6116,-4.4644,-2.3515,14.399,13.714,-45.294,21.087,-15.611,-40.014,34.67,1.9974,-8.5727,-25.569,-1.7452
16.069,-5.2188,2.6116,-4.4644,-2.3515,14.399,13.714,-45.294,21.087,-15.611,-40.014,34.67,1.9974,-8.5727,-25.569,-1.7452
16.22,-5.3321,2.5261,-4.3751,-2.179,14.25,13.831,-45.184,21.294,-15.79,-40.056,34.651,2.1126,-8.7091,-25.488,-1.8822
16.22,-5.3321,2.5261,-4.3751,-2.179,14.25,13.831,-45.184,21.294,-15.79,-40.056,34.651,2.1126,-8.7091,-25.488,-1.8822
16.372,-5.4462,2.4409,-4.2867,-2.0063,14.099,13.948,-45.075,21.501,-15.968,-40.097,34.631,2.2273,-8.8463,-25.407,-2.0214
16.372,-5.4462,2.4409,-4.2867,-2.0063,14.099,13.948,-45.075,21.501,-15.968,-40.097,34.631,2.2273,-8.8463,-25.407,-2.0214
16.524,-5.561,2.3561,-4.1992,-1.8336,13.948,14.063,-44.967,21.708,-16.147,-40.138,34.61,2.3414,-8.9841,-25.325,-2.1628
16.524,-5.561,2.3561,-4.1992,-1.8336,13.948,14.063,-44.967,21.708,-16.147,-40.138,34.61,2.3414,-8.9841,-25.325,-2.1628
16.524,-5.561,2.3561,-4.1992,-1.8336,13.948,14.063,-44.967,21.708,-16.147,-40.138,34.61,2.3414,-8.9841,-25.325,-2.1628
16.677,-5.6766,2.2717,-4.1127,-1.6607,13.795,14.179,-44.86,21.914,-16.327,-40.177,34.586,2.4551,-9.1227,-25.242,-2.3064
16.677,-5.6766,2.2717,-4.1127,-1.6607,13.795,14.179,-44.86,21.914,-16.327,-40.177,34.586,2.4551,-9.1227,-25.242,-2.3064
16.83,-5.7929,2.1877,-4.0271,-1.4878,13.642,14.293,-44.754,22.12,-16.507,-40.216,34.562,2.5682,-9.2619,-25.158,-2.4522
16.983,-5.9099,2.1041,-3.9426,-1.3147,13.488,14.407,-44.649,22.327,-16.688,-40.254,34.535,2.6809,-9.4018,-25.074,-2.6002
16.983,-5.9099,2.1041,-3.9426,-1.3147,13.488,14.407,-44.649,22.327,-16.688,-40.254,34.535,2.6809,-9.4018,-25.074,-2.6002
17.137,-6.0277,2.021,-3.859,-1.1416,13.333,14.521,-44.545,22.533,-16.869,-40.291,34.508,2.7929,-9.5424,-24.988,-2.7505
17.137,-6.0277,2.021,-3.859,-1.1416,13.333,14.521,-44.545,22.533,-16.869,-40.291,34.508,2.7929,-9.5424,-24.988,-2.7505
17.291,-6.1463,1.9382,-3.7764,-0.96831,13.177,14.633,-44.442,22.739,-17.051,-40.327,34.478,2.9045,-9.6837,-24.903,-2.903
17.291,-6.1463,1.9382,-3.7764,-0.96831,13.177,14.633,-44.442,22.739,-17.051,-40.327,34.478,2.9045,-9.6837,-24.903,-2.903
17.445,-6.2655,1.8559,-3.6949,-0.79498,13.02,14.745,-44.34,22.944,-17.233,-40.362,34.447,3.0154,-9.8257,-24.816,-3.0578
17.445,-6.2655,1.8559,-3.6949,-0.79498,13.02,14.745,-44.34,22.944,-17.233,-40.362,34.447,3.0154,-9.8257,-24.816,-3.0578
17.6,-6.3856,1.774,-3.6143,-0.62156,12.862,14.857,-44.239,23.15,-17.415,-40.396,34.414,3.1258,-9.9683,-24.729,-3.2148
17.755,-6.5063,1.6925,-3.5349,-0.44806,12.703,14.967,-44.139,23.355,-17.598,-40.43,34.38,3.2356,-10.112,-24.641,-3.374
17.755,-6.5063,1.6925,-3.5349,-0.44806,12.703,14.967,-44.139,23.355,-17.598,-40.43,34.38,3.2356,-10.112,-24.641,-3.374
17.755,-6.5063,1.6925,-3.5349,-0.44806,12.703,14.967,-44.139,23.355,-17.598,-40.43,34.38,3.2356,-10.112,-24.641,-3.374
17.91,-6.6278,1.6116,-3.4565,-0.27447,12.543,15.077,-44.041,23.56,-17.781,-40.462,34.344,3.3448,-10.256,-24.553,-3.5355
17.91,-6.6278,1.6116,-3.4565,-0.27447,12.543,15.077,-44.041,23.56,-17.781,-40.462,34.344,3.3448,-10.256,-24.553,-3.5355
18.066,-6.7501,1.5311,-3.3791,-0.10081,12.383,15.186,-43.943,23.764,-17.965,-40.494,34.307,3.4534,-10.4,-24.463,-3.6992
18.066,-6.7501,1.5311,-3.3791,-0.10081,12.383,15.186,-43.943,23.764,-17.965,-40.494,34.307,3.4534,-10.4,-24.463,-3.6992
18.066,-6.7501,1.5311,-3.3791,-0.10081,12.383,15.186,-43.943,23.764,-17.965,-40.494,34.307,3.4534,-10.4,-24.463,-3.6992
18.222,-6.8731,1.451,-3.3029,0.07294,12.221,15.295,-43.846,23.969,-18.149,-40.524,34.268,3.5613,-10.545,-24.373,-3.8652
18.222,-6.8731,1.451,-3.3029,0.07294,12.221,15.295,-43.846,23.969,-18.149,-40.524,34.268,3.5613,-10.545,-24.373,-3.8652
18.378,-6.9968,1.3715,-3.2277,0.24676,12.058,15.403,-43.751,24.173,-18.334,-40.554,34.227,3.6686,-10.691,-24.283,-4.0334
18.534,-7.1212,1.2925,-3.1537,0.42066,11.895,15.51,-43.656,24.376,-18.519,-40.583,34.185,3.7753,-10.838,-24.192,-4.2038
18.534,-7.1212,1.2925,-3.1537,0.42066,11.895,15.51,-43.656,24.376,-18.519,-40.583,34.185,3.7753,-10.838,-24.192,-4.2038
18.691,-7.2464,1.214,-3.0808,0.59463,11.73,15.617,-43.563,24.579,-18.704,-40.61,34.14,3.8813,-10.985,-24.1,-4.3766
18.691,-7.2464,1.214,-3.0808,0.59463,11.73,15.617,-43.563,24.579,-18.704,-40.61,34.14,3.8813,-10.985,-24.1,-4.3766
18.848,-7.3723,1.136,-3.009,0.76867,11.565,15.722,-43.471,24.782,-18.89,-40.637,34.095,3.9867,-11.133,-24.007,-4.5515
18.848,-7.3723,1.136,-3.009,0.76867,11.565,15.722,-43.471,24.782,-18.89,-40.637,34.095,3.9867,-11.133,-24.007,-4.5515
19.005,-7.499,1.0585,-2.9384,0.94277,11.399,15.827,-43.379,24.985,-19.076,-40.663,34.047,4.0913,-11.281,-23.914,-4.7288
19.005,-7.499,1.0585,-2.9384,0.94277,11.399,15.827,-43.379,24.985,-19.076,-40.663,34.047,4.0913,-11.281,-23.914,-4.7288
19.005,-7.499,1.0585,-2.9384,0.94277,11.399,15.827,-43.379,24.985,-19.076,-40.663,34.047,4.0913,-11.281,-23.914,-4.7288
19.162,-7.6263,0.9816,-2.8689,1.1169,11.232,15.931,-43.29,25.187,-19.263,-40.687,33.998,4.1953,-11.43,-23.82,-4.9083
19.32,-7.7544,0.90524,-2.8006,1.2912,11.063,16.035,-43.201,25.389,-19.45,-40.711,33.947,4.2986,-11.58,-23.725,-5.09
19.32,-7.7544,0.90524,-2.8006,1.2912,11.063,16.035,-43.201,25.389,-19.45,-40.711,33.947,4.2986,-11.58,-23.725,-5.09
19.477,-7.8832,0.82944,-2.7335,1.4655,10.894,16.138,-43.113,25.59,-19.637,-40.734,33.895,4.4011,-11.73,-23.63,-5.274
19.477,-7.8832,0.82944,-2.7335,1.4655,10.894,16.138,-43.113,25.59,-19.637,-40.734,33.895,4.4011,-11.73,-23.63,-5.274
19.635,-8.0128,0.75422,-2.6676,1.6398,10.724,16.24,-43.027,25.791,-19.824,-40.756,33.84,4.5029,-11.881,-23.534,-5.4603
19.635,-8.0128,0.75422,-2.6676,1.6398,10.724,16.24,-43.027,25.791,-19.824,-40.756,33.84,4.5029,-11.881,-23.534,-5.4603
19.794,-8.143,0.67958,-2.6029,1.8142,10.553,16.341,-42.941,25.991,-20.012,-40.776,33.784,4.604,-12.032,-23.437,-5.6488
19.794,-8.143,0.67958,-2.6029,1.8142,10.553,16.341,-42.941,25.991,-20.012,-40.776,33.784,4.604,-12.032,-23.437,-5.6488
19.794,-8.143,0.67958,-2.6029,1.8142,10.553,16.341,-42.941,25.991,-20.012,-40.776,33.784,4.604,-12.032,-23.437,-5.6488
19.952,-8.274,0.60553,-2.5395,1.9887,10.381,16.441,-42.857,26.191,-20.201,-40.796,33.727,4.7044,-12.184,-23.34,-5.8396
19.952,-8.274,0.60553,-2.5395,1.9887,10.381,16.441,-42.857,26.191,-20.201,-40.796,33.727,4.7044,-12.184,-23.34,-5.8396
20.269,-8.5381,0.45926,-2.4163,2.3378,10.034,16.639,-42.693,26.589,-20.578,-40.832,33.606,4.9028,-12.49,-23.143,-6.228
20.269,-8.5381,0.45926,-2.4163,2.3378,10.034,16.639,-42.693,26.589,-20.578,-40.832,33.606,4.9028,-12.49,-23.143,-6.228
20.269,-8.5381,0.45926,-2.4163,2.3378,10.034,16.639,-42.693,26.589,-20.578,-40.832,33.606,4.9028,-12.49,-23.143,-6.228
20.428,-8.6712,0.38706,-2.3566,2.5124,9.8592,16.737,-42.613,26.788,-20.768,-40.848,33.543,5.0008,-12.644,-23.044,-6.4256
20.428,-8.6712,0.38706,-2.3566,2.5124,9.8592,16.737,-42.613,26.788,-20.768,-40.848,33.543,5.0008,-12.644,-23.044,-6.4256
20.587,-8.805,0.31549,-2.2981,2.6871,9.6833,16.834,-42.533,26.986,-20.957,-40.863,33.478,5.0981,-12.799,-22.944,-6.6255
20.587,-8.805,0.31549,-2.2981,2.6871,9.6833,16.834,-42.533,26.986,-20.957,-40.863,33.478,5.0981,-12.799,-22.944,-6.6255
20.746,-8.9395,0.24456,-2.241,2.8618,9.5066,16.931,-42.456,27.183,-21.147,-40.878,33.412,5.1945,-12.953,-22.843,-6.8276
20.746,-8.9395,0.24456,-2.241,2.8618,9.5066,16.931,-42.456,27.183,-21.147,-40.878,33.412,5.1945,-12.953,-22.843,-6.8276
20.905,-9.0747,0.17429,-2.1851,3.0366,9.3288,17.026,-42.379,27.379,-21.337,-40.891,33.343,5.2902,-13.109,-22.742,-7.032
20.905,-9.0747,0.17429,-2.1851,3.0366,9.3288,17.026,-42.379,27.379,-21.337,-40.891,33.343,5.2902,-13.109,-22.742,-7.032
21.065,-9.2107,0.10468,-2.1305,3.2114,9.1501,17.121,-42.304,27.575,-21.528,-40.903,33.273,5.385,-13.265,-22.64,-7.2387
21.065,-9.2107,0.10468,-2.1305,3.2114,9.1501,17.121,-42.304,27.575,-21.528,-40.903,33.273,5.385,-13.265,-22.64,-7.2387
21.224,-9.3473,0.035751,-2.0773,3.3862,8.9704,17.214,-42.23,27.771,-21.718,-40.913,33.201,5.4791,-13.422,-22.538,-7.4476
21.224,-9.3473,0.035751,-2.0773,3.3862,8.9704,17.214,-42.23,27.771,-21.718,-40.913,33.201,5.4791,-13.422,-22.538,-7.4476
21.384,-9.4846,-0.032497,-2.0254,3.5611,8.7898,17.307,-42.157,27.966,-21.909,-40.923,33.127,5.5722,-13.579,-22.435,-7.6588
21.384,-9.4846,-0.032497,-2.0254,3.5611,8.7898,17.307,-42.157,27.966,-21.909,-40.923,33.127,5.5722,-13.579,-22.435,-7.6588
21.384,-9.4846,-0.032497,-2.0254,3.5611,8.7898,17.307,-42.157,27.966,-21.909,-40.923,33.127,5.5722,-13.579,-22.435,-7.6588
21.543,-9.6226,-0.10005,-1.9748,3.736,8.6082,17.399,-42.085,28.16,-22.1,-40.932,33.052,5.6646,-13.737,-22.331,-7.8723
21.703,-9.7613,-0.1669,-1.9256,3.9109,8.4256,17.491,-42.015,28.353,-22.292,-40.939,32.974,5.7561,-13.895,-22.226,-8.088
21.703,-9.7613,-0.1669,-1.9256,3.9109,8.4256,17.491,-42.015,28.353,-22.292,-40.939,32.974,5.7561,-13.895,-22.226,-8.088
21.863,-9.9007,-0.23304,-1.8778,4.0859,8.2421,17.581,-41.946,28.546,-22.484,-40.945,32.895,5.8467,-14.054,-22.121,-8.306
21.863,-9.9007,-0.23304,-1.8778,4.0859,8.2421,17.581,-41.946,28.546,-22.484,-40.945,32.895,5.8467,-14.054,-22.121,-8.306
22.023,-10.041,-0.29845,-1.8313,4.2609,8.0576,17.67,-41.879,28.738,-22.676,-40.95,32.814,5.9364,-14.213,-22.015,-8.5262
22.023,-10.041,-0.29845,-1.8313,4.2609,8.0576,17.67,-41.879,28.738,-22.676,-40.95,32.814,5.9364,-14.213,-22.015,-8.5262
22.023,-10.041,-0.29845,-1.8313,4.2609,8.0576,17.67,-41.879,28.738,-22.676,-40.95,32.814,5.9364,-14.213,-22.015,-8.5262
22.183,-10.182,-0.36312,-1.7862,4.4359,7.8722,17.759,-41.812,28.93,-22.868,-40.954,32.731,6.0253,-14.373,-21.909,-8.7487
22.183,-10.182,-0.36312,-1.7862,4.4359,7.8722,17.759,-41.812,28.93,-22.868,-40.954,32.731,6.0253,-14.373,-21.909,-8.7487
22.343,-10.323,-0.42706,-1.7425,4.6109,7.6858,17.847,-41.748,29.121,-23.06,-40.957,32.646,6.1133,-14.533,-21.802,-8.9735
22.503,-10.465,-0.49023,-1.7002,4.786,7.4984,17.933,-41.684,29.311,-23.253,-40.959,32.559,6.2004,-14.694,-21.694,-9.2006
22.503,-10.465,-0.49023,-1.7002,4.786,7.4984,17.933,-41.684,29.311,-23.253,-40.959,32.559,6.2004,-14.694,-21.694,-9.2006
22.663,-10.608,-0.55265,-1.6593,4.9611,7.31,18.019,-41.622,29.5,-23.446,-40.959,32.471,6.2865,-14.855,-21.586,-9.4299
22.823,-10.751,-0.61429,-1.6199,5.1362,7.1207,18.104,-41.561,29.688,-23.639,-40.958,32.38,6.3718,-15.017,-21.477,-9.6614
22.823,-10.751,-0.61429,-1.6199,5.1362,7.1207,18.104,-41.561,29.688,-23.639,-40.958,32.38,6.3718,-15.017,-21.477,-9.6614
22.823,-10.751,-0.61429,-1.6199,5.1362,7.1207,18.104,-41.561,29.688,-23.639,-40.958,32.38,6.3718,-15.017,-21.477,-9.6614
22.983,-10.896,-0.67515,-1.5818,5.3114,6.9304,18.188,-41.502,29.876,-23.832,-40.956,32.288,6.4561,-15.18,-21.367,-9.8952
22.983,-10.896,-0.67515,-1.5818,5.3114,6.9304,18.188,-41.502,29.876,-23.832,-40.956,32.288,6.4561,-15.18,-21.367,-9.8952
22.983,-10.896,-0.67515,-1.5818,5.3114,6.9304,18.188,-41.502,29.876,-23.832,-40.956,32.288,6.4561,-15.18,-21.367,-9.8952
23.143,-11.04,-0.73521,-1.5453,5.4865,6.7391,18.271,-41.443,30.063,-24.026,-40.952,32.194,6.5395,-15.342,-21.257,-10.131
23.303,-11.186,-0.79448,-1.5102,5.6617,6.5468,18.354,-41.387,30.249,-24.219,-40.948,32.097,6.622,-15.506,-21.146,-10.37
23.303,-11.186,-0.79448,-1.5102,5.6617,6.5468,18.354,-41.387,30.249,-24.219,-40.948,32.097,6.622,-15.506,-21.146,-10.37
23.463,-11.332,-0.85293,-1.4765,5.8369,6.3536,18.435,-41.332,30.434,-24.413,-40.942,31.999,6.7035,-15.67,-21.034,-10.61
23.463,-11.332,-0.85293,-1.4765,5.8369,6.3536,18.435,-41.332,30.434,-24.413,-40.942,31.999,6.7035,-15.67,-21.034,-10.61
23.623,-11.479,-0.91055,-1.4443,6.012,6.1594,18.515,-41.278,30.619,-24.607,-40.935,31.899,6.7841,-15.834,-20.922,-10.853
23.623,-11.479,-0.91055,-1.4443,6.012,6.1594,18.515,-41.278,30.619,-24.607,-40.935,31.899,6.7841,-15.834,-20.922,-10.853
23.783,-11.626,-0.96735,-1.4136,6.1872,5.9643,18.594,-41.225,30.802,-24.801,-40.926,31.797,6.8637,-15.999,-20.809,-11.098
23.783,-11.626,-0.96735,-1.4136,6.1872,5.9643,18.594,-41.225,30.802,-24.801,-40.926,31.797,6.8637,-15.999,-20.809,-11.098
23.783,-11.626,-0.96735,-1.4136,6.1872,5.9643,18.594,-41.225,30.802,-24.801,-40.926,31.797,6.8637,-15.999,-20.809,-11.098
23.943,-11.774,-1.0233,-1.3844,6.3624,5.7681,18.673,-41.174,30.985,-24.995,-40.916,31.694,6.9424,-16.164,-20.695,-11.345
24.103,-11.923,-1.0784,-1.3567,6.5377,5.571,18.75,-41.125,31.167,-25.19,-40.905,31.588,7.02,-16.33,-20.581,-11.595
24.103,-11.923,-1.0784,-1.3567,6.5377,5.571,18.75,-41.125,31.167,-25.19,-40.905,31.588,7.02,-16.33,-20.581,-11.595
24.263,-12.072,-1.1327,-1.3305,6.7129,5.3729,18.827,-41.076,31.348,-25.384,-40.893,31.48,7.0967,-16.496,-20.466,-11.847
24.263,-12.072,-1.1327,-1.3305,6.7129,5.3729,18.827,-41.076,31.348,-25.384,-40.893,31.48,7.0967,-16.496,-20.466,-11.847
24.423,-12.222,-1.186,-1.3059,6.8881,5.1739,18.902,-41.03,31.528,-25.579,-40.879,31.37,7.1724,-16.662,-20.351,-12.101
24.423,-12.222,-1.186,-1.3059,6.8881,5.1739,18.902,-41.03,31.528,-25.579,-40.879,31.37,7.1724,-16.662,-20.351,-12.101
24.423,-12.222,-1.186,-1.3059,6.8881,5.1739,18.902,-41.03,31.528,-25.579,-40.879,31.37,7.1724,-16.662,-20.351,-12.101
24.583,-12.373,-1.2385,-1.2827,7.0633,4.9738,18.977,-40.984,31.707,-25.774,-40.864,31.259,7.2471,-16.829,-20.235,-12.357
24.583,-12.373,-1.2385,-1.2827,7.0633,4.9738,18.977,-40.984,31.707,-25.774,-40.864,31.259,7.2471,-16.829,-20.235,-12.357
24.583,-12.373,-1.2385,-1.2827,7.0633,4.9738,18.977,-40.984,31.707,-25.774,-40.864,31.259,7.2471,-16.829,-20.235,-12.357
24.902,-12.676,-1.3408,-1.2411,7.4137,4.5708,19.123,-40.898,32.062,-26.163,-40.83,31.03,7.3935,-17.165,-20.001,-12.876
24.902,-12.676,-1.3408,-1.2411,7.4137,4.5708,19.123,-40.898,32.062,-26.163,-40.83,31.03,7.3935,-17.165,-20.001,-12.876
24.902,-12.676,-1.3408,-1.2411,7.4137,4.5708,19.123,-40.898,32.062,-26.163,-40.83,31.03,7.3935,-17.165,-20.001,-12.876
25.061,-12.829,-1.3906,-1.2226,7.5889,4.3678,19.195,-40.857,32.238,-26.359,-40.811,30.912,7.4651,-17.333,-19.883,-13.139
25.061,-12.829,-1.3906,-1.2226,7.5889,4.3678,19.195,-40.857,32.238,-26.359,-40.811,30.912,7.4651,-17.333,-19.883,-13.139
25.061,-12.829,-1.3906,-1.2226,7.5889,4.3678,19.195,-40.857,32.238,-26.359,-40.811,30.912,7.4651,-17.333,-19.883,-13.139
25.38,-13.135,-1.4875,-1.1903,7.9393,3.959,19.335,-40.78,32.588,-26.749,-40.769,30.671,7.6054,-17.671,-19.645,-13.672
25.38,-13.135,-1.4875,-1.1903,7.9393,3.959,19.335,-40.78,32.588,-26.749,-40.769,30.671,7.6054,-17.671,-19.645,-13.672
25.539,-13.29,-1.5345,-1.1765,8.1145,3.7531,19.404,-40.743,32.761,-26.944,-40.746,30.548,7.674,-17.841,-19.525,-13.941
25.539,-13.29,-1.5345,-1.1765,8.1145,3.7531,19.404,-40.743,32.761,-26.944,-40.746,30.548,7.674,-17.841,-19.525,-13.941
25.539,-13.29,-1.5345,-1.1765,8.1145,3.7531,19.404,-40.743,32.761,-26.944,-40.746,30.548,7.674,-17.841,-19.525,-13.941
25.698,-13.445,-1.5806,-1.1643,8.2897,3.5462,19.471,-40.709,32.933,-27.139,-40.721,30.422,7.7415,-18.011,-19.405,-14.213
25.698,-13.445,-1.5806,-1.1643,8.2897,3.5462,19.471,-40.709,32.933,-27.139,-40.721,30.422,7.7415,-18.011,-19.405,-14.213
26.016,-13.756,-1.6699,-1.1447,8.64,3.1295,19.604,-40.643,33.274,-27.53,-40.668,30.165,7.8735,-18.352,-19.162,-14.763
26.016,-13.756,-1.6699,-1.1447,8.64,3.1295,19.604,-40.643,33.274,-27.53,-40.668,30.165,7.8735,-18.352,-19.162,-14.763
26.016,-13.756,-1.6699,-1.1447,8.64,3.1295,19.604,-40.643,33.274,-27.53,-40.668,30.165,7.8735,-18.352,-19.162,-14.763
26.174,-13.913,-1.7131,-1.1374,8.8152,2.9197,19.668,-40.613,33.443,-27.726,-40.639,30.034,7.9379,-18.523,-19.039,-15.042
26.174,-13.913,-1.7131,-1.1374,8.8152,2.9197,19.668,-40.613,33.443,-27.726,-40.639,30.034,7.9379,-18.523,-19.039,-15.042
26.333,-14.071,-1.7553,-1.1316,8.9903,2.7089,19.732,-40.584,33.611,-27.921,-40.609,29.9,8.0012,-18.695,-18.916,-15.322
26.333,-14.071,-1.7553,-1.1316,8.9903,2.7089,19.732,-40.584,33.611,-27.921,-40.609,29.9,8.0012,-18.695,-18.916,-15.322
26.491,-14.228,-1.7966,-1.1274,9.1654,2.4972,19.795,-40.556,33.778,-28.116,-40.577,29.765,8.0634,-18.867,-18.792,-15.605
26.491,-14.228,-1.7966,-1.1274,9.1654,2.4972,19.795,-40.556,33.778,-28.116,-40.577,29.765,8.0634,-18.867,-18.792,-15.605
26.491,-14.228,-1.7966,-1.1274,9.1654,2.4972,19.795,-40.556,33.778,-28.116,-40.577,29.765,8.0634,-18.867,-18.792,-15.605
26.649,-14.387,-1.8368,-1.1249,9.3405,2.2844,19.856,-40.53,33.944,-28.312,-40.544,29.627,8.1246,-19.039,-18.668,-15.89
26.649,-14.387,-1.8368,-1.1249,9.3405,2.2844,19.856,-40.53,33.944,-28.312,-40.544,29.627,8.1246,-19.039,-18.668,-15.89
26.649,-14.387,-1.8368,-1.1249,9.3405,2.2844,19.856,-40.53,33.944,-28.312,-40.544,29.627,8.1246,-19.039,-18.668,-15.89
26.964,-14.706,-1.9143,-1.1248,9.6906,1.8561,19.976,-40.483,34.272,-28.703,-40.474,29.346,8.2438,-19.385,-18.417,-16.466
26.964,-14.706,-1.9143,-1.1248,9.6906,1.8561,19.976,-40.483,34.272,-28.703,-40.474,29.346,8.2438,-19.385,-18.417,-16.466
26.964,-14.706,-1.9143,-1.1248,9.6906,1.8561,19.976,-40.483,34.272,-28.703,-40.474,29.346,8.2438,-19.385,-18.417,-16.466
27.122,-14.866,-1.9515,-1.1272,9.8657,1.6404,20.035,-40.462,34.434,-28.898,-40.436,29.203,8.3017,-19.558,-18.291,-16.758
27.279,-15.027,-1.9876,-1.1313,10.041,1.4238,20.092,-40.442,34.595,-29.094,-40.397,29.057,8.3585,-19.732,-18.164,-17.052
27.279,-15.027,-1.9876,-1.1313,10.041,1.4238,20.092,-40.442,34.595,-29.094,-40.397,29.057,8.3585,-19.732,-18.164,-17.052
27.436,-15.188,-2.0228,-1.137,10.216,1.2062,20.149,-40.424,34.755,-29.289,-40.357,28.91,8.4143,-19.906,-18.036,-17.347
27.436,-15.188,-2.0228,-1.137,10.216,1.2062,20.149,-40.424,34.755,-29.289,-40.357,28.91,8.4143,-19.906,-18.036,-17.347
27.436,-15.188,-2.0228,-1.137,10.216,1.2062,20.149,-40.424,34.755,-29.289,-40.357,28.91,8.4143,-19.906,-18.036,-17.347
27.593,-15.35,-2.0568,-1.1444,10.391,0.98759,20.204,-40.408,34.914,-29.484,-40.315,28.76,8.4689,-20.081,-17.908,-17.645
27.593,-15.35,-2.0568,-1.1444,10.391,0.98759,20.204,-40.408,34.914,-29.484,-40.315,28.76,8.4689,-20.081,-17.908,-17.645
27.593,-15.35,-2.0568,-1.1444,10.391,0.98759,20.204,-40.408,34.914,-29.484,-40.315,28.76,8.4689,-20.081,-17.908,-17.645
27.906,-15.675,-2.1218,-1.1642,10.74,0.54752,20.312,-40.379,35.228,-29.875,-40.227,28.454,8.5749,-20.431,-17.65,-18.248
27.906,-15.675,-2.1218,-1.1642,10.74,0.54752,20.312,-40.379,35.228,-29.875,-40.227,28.454,8.5749,-20.431,-17.65,-18.248
28.062,-15.839,-2.1527,-1.1767,10.915,0.32603,20.364,-40.367,35.383,-30.07,-40.18,28.298,8.6263,-20.606,-17.519,-18.552
28.062,-15.839,-2.1527,-1.1767,10.915,0.32603,20.364,-40.367,35.383,-30.07,-40.18,28.298,8.6263,-20.606,-17.519,-18.552
28.062,-15.839,-2.1527,-1.1767,10.915,0.32603,20.364,-40.367,35.383,-30.07,-40.18,28.298,8.6263,-20.606,-17.519,-18.552
28.218,-16.003,-2.1825,-1.1908,11.09,0.10357,20.415,-40.357,35.537,-30.265,-40.132,28.141,8.6765,-20.782,-17.389,-18.859
28.218,-16.003,-2.1825,-1.1908,11.09,0.10357,20.415,-40.357,35.537,-30.265,-40.132,28.141,8.6765,-20.782,-17.389,-18.859
28.218,-16.003,-2.1825,-1.1908,11.09,0.10357,20.415,-40.357,35.537,-30.265,-40.132,28.141,8.6765,-20.782,-17.389,-18.859
28.528,-16.333,-2.2389,-1.2241,11.44,-0.34426,20.514,-40.341,35.841,-30.655,-40.032,27.819,8.7736,-21.135,-17.125,-19.478
28.528,-16.333,-2.2389,-1.2241,11.44,-0.34426,20.514,-40.341,35.841,-30.655,-40.032,27.819,8.7736,-21.135,-17.125,-19.478
28.683,-16.498,-2.2654,-1.2433,11.614,-0.56962,20.562,-40.335,35.992,-30.85,-39.979,27.655,8.8205,-21.311,-16.992,-19.791
28.683,-16.498,-2.2654,-1.2433,11.614,-0.56962,20.562,-40.335,35.992,-30.85,-39.979,27.655,8.8205,-21.311,-16.992,-19.791
28.683,-16.498,-2.2654,-1.2433,11.614,-0.56962,20.562,-40.335,35.992,-30.85,-39.979,27.655,8.8205,-21.311,-16.992,-19.791
28.838,-16.664,-2.2909,-1.2643,11.789,-0.79595,20.609,-40.331,36.141,-31.044,-39.925,27.489,8.8662,-21.488,-16.859,-20.106
28.992,-16.831,-2.3152,-1.2869,11.964,-1.0232,20.655,-40.329,36.288,-31.239,-39.869,27.32,8.9108,-21.666,-16.725,-20.423
29.147,-16.998,-2.3383,-1.3113,12.138,-1.2515,20.7,-40.328,36.435,-31.433,-39.812,27.15,8.9543,-21.843,-16.59,-20.742
29.147,-16.998,-2.3383,-1.3113,12.138,-1.2515,20.7,-40.328,36.435,-31.433,-39.812,27.15,8.9543,-21.843,-16.59,-20.742
29.147,-16.998,-2.3383,-1.3113,12.138,-1.2515,20.7,-40.328,36.435,-31.433,-39.812,27.15,8.9543,-21.843,-16.59,-20.742
29.3,-17.166,-2.3604,-1.3374,12.313,-1.4807,20.744,-40.329,36.58,-31.628,-39.753,26.978,8.9966,-22.021,-16.454,-21.063
29.3,-17.166,-2.3604,-1.3374,12.313,-1.4807,20.744,-40.329,36.58,-31.628,-39.753,26.978,8.9966,-22.021,-16.454,-21.063
29.454,-17.334,-2.3813,-1.3652,12.488,-1.7109,20.787,-40.331,36.723,-31.822,-39.692,26.803,9.0378,-22.2,-16.318,-21.387
29.454,-17.334,-2.3813,-1.3652,12.488,-1.7109,20.787,-40.331,36.723,-31.822,-39.692,26.803,9.0378,-22.2,-16.318,-21.387
29.454,-17.334,-2.3813,-1.3652,12.488,-1.7109,20.787,-40.331,36.723,-31.822,-39.692,26.803,9.0378,-22.2,-16.318,-21.387
29.607,-17.502,-2.401,-1.3947,12.662,-1.942,20.828,-40.335,36.866,-32.016,-39.63,26.627,9.0779,-22.378,-16.182,-21.712
29.607,-17.502,-2.401,-1.3947,12.662,-1.942,20.828,-40.335,36.866,-32.016,-39.63,26.627,9.0779,-22.378,-16.182,-21.712
29.76,-17.671,-2.4197,-1.426,12.837,-2.1741,20.869,-40.341,37.007,-32.21,-39.566,26.449,9.1169,-22.557,-16.044,-22.039
29.76,-17.671,-2.4197,-1.426,12.837,-2.1741,20.869,-40.341,37.007,-32.21,-39.566,26.449,9.1169,-22.557,-16.044,-22.039
29.76,-17.671,-2.4197,-1.426,12.837,-2.1741,20.869,-40.341,37.007,-32.21,-39.566,26.449,9.1169,-22.557,-16.044,-22.039
30.064,-18.011,-2.4534,-1.4937,13.185,-2.6412,20.947,-40.356,37.285,-32.597,-39.434,26.085,9.1913,-22.915,-15.768,-22.701
30.064,-18.011,-2.4534,-1.4937,13.185,-2.6412,20.947,-40.356,37.285,-32.597,-39.434,26.085,9.1913,-22.915,-15.768,-22.701
30.064,-18.011,-2.4534,-1.4937,13.185,-2.6412,20.947,-40.356,37.285,-32.597,-39.434,26.085,9.1913,-22.915,-15.768,-22.701
30.216,-18.181,-2.4685,-1.5302,13.36,-2.8761,20.984,-40.367,37.422,-32.79,-39.365,25.901,9.2268,-23.095,-15.628,-23.034
30.368,-18.352,-2.4824,-1.5684,13.534,-3.112,21.02,-40.379,37.557,-32.983,-39.295,25.714,9.2612,-23.275,-15.488,-23.37
30.519,-18.523,-2.4951,-1.6084,13.708,-3.3489,21.056,-40.392,37.692,-33.176,-39.223,25.525,9.2944,-23.455,-15.348,-23.707
30.519,-18.523,-2.4951,-1.6084,13.708,-3.3489,21.056,-40.392,37.692,-33.176,-39.223,25.525,9.2944,-23.455,-15.348,-23.707
30.519,-18.523,-2.4951,-1.6084,13.708,-3.3489,21.056,-40.392,37.692,-33.176,-39.223,25.525,9.2944,-23.455,-15.348,-23.707
30.669,-18.695,-2.5067,-1.6501,13.883,-3.5867,21.09,-40.407,37.824,-33.369,-39.149,25.334,9.3265,-23.635,-15.206,-24.047
30.669,-18.695,-2.5067,-1.6501,13.883,-3.5867,21.09,-40.407,37.824,-33.369,-39.149,25.334,9.3265,-23.635,-15.206,-24.047
30.669,-18.695,-2.5067,-1.6501,13.883,-3.5867,21.09,-40.407,37.824,-33.369,-39.149,25.334,9.3265,-23.635,-15.206,-24.047
30.669,-18.695,-2.5067,-1.6501,13.883,-3.5867,21.09,-40.407,37.824,-33.369,-39.149,25.334,9.3265,-23.635,-15.206,-24.047
30.97,-19.04,-2.5261,-1.7388,14.231,-4.0651,21.155,-40.443,38.086,-33.753,-38.997,24.946,9.3872,-23.997,-14.922,-24.732
30.97,-19.04,-2.5261,-1.7388,14.231,-4.0651,21.155,-40.443,38.086,-33.753,-38.997,24.946,9.3872,-23.997,-14.922,-24.732
31.119,-19.213,-2.534,-1.7858,14.405,-4.3058,21.186,-40.463,38.214,-33.945,-38.919,24.749,9.4158,-24.178,-14.778,-25.078
31.119,-19.213,-2.534,-1.7858,14.405,-4.3058,21.186,-40.463,38.214,-33.945,-38.919,24.749,9.4158,-24.178,-14.778,-25.078
31.268,-19.386,-2.5407,-1.8346,14.579,-4.5473,21.216,-40.484,38.341,-34.137,-38.838,24.55,9.4433,-24.359,-14.634,-25.426
31.268,-19.386,-2.5407,-1.8346,14.579,-4.5473,21.216,-40.484,38.341,-34.137,-38.838,24.55,9.4433,-24.359,-14.634,-25.426
31.268,-19.386,-2.5407,-1.8346,14.579,-4.5473,21.216,-40.484,38.341,-34.137,-38.838,24.55,9.4433,-24.359,-14.634,-25.426
31.417,-19.56,-2.5462,-1.8851,14.753,-4.7898,21.244,-40.508,38.467,-34.329,-38.756,24.349,9.4696,-24.54,-14.49,-25.775
31.417,-19.56,-2.5462,-1.8851,14.753,-4.7898,21.244,-40.508,38.467,-34.329,-38.756,24.349,9.4696,-24.54,-14.49,-25.775
31.417,-19.56,-2.5462,-1.8851,14.753,-4.7898,21.244,-40.508,38.467,-34.329,-38.756,24.349,9.4696,-24.54,-14.49,-25.775
31.713,-19.909,-2.5534,-1.9913,15.101,-5.2776,21.299,-40.559,38.714,-34.711,-38.587,23.94,9.5188,-24.904,-14.198,-26.48
31.713,-19.909,-2.5534,-1.9913,15.101,-5.2776,21.299,-40.559,38.714,-34.711,-38.587,23.94,9.5188,-24.904,-14.198,-26.48
31.86,-20.084,-2.5552,-2.0471,15.275,-5.5229,21.324,-40.587,38.835,-34.902,-38.5,23.732,9.5417,-25.086,-14.052,-26.836
31.86,-20.084,-2.5552,-2.0471,15.275,-5.5229,21.324,-40.587,38.835,-34.902,-38.5,23.732,9.5417,-25.086,-14.052,-26.836
32.007,-20.26,-2.5557,-2.1047,15.448,-5.7692,21.349,-40.617,38.955,-35.092,-38.411,23.523,9.5634,-25.268,-13.904,-27.193
32.007,-20.26,-2.5557,-2.1047,15.448,-5.7692,21.349,-40.617,38.955,-35.092,-38.411,23.523,9.5634,-25.268,-13.904,-27.193
32.154,-20.435,-2.555,-2.164,15.622,-6.0163,21.372,-40.648,39.073,-35.282,-38.321,23.311,9.584,-25.451,-13.756,-27.553
32.154,-20.435,-2.555,-2.164,15.622,-6.0163,21.372,-40.648,39.073,-35.282,-38.321,23.311,9.584,-25.451,-13.756,-27.553
32.3,-20.611,-2.553,-2.225,15.796,-6.2644,21.394,-40.681,39.19,-35.472,-38.229,23.098,9.6035,-25.633,-13.607,-27.914
32.3,-20.611,-2.553,-2.225,15.796,-6.2644,21.394,-40.681,39.19,-35.472,-38.229,23.098,9.6035,-25.633,-13.607,-27.914
32.446,-20.788,-2.5497,-2.2878,15.969,-6.5134,21.416,-40.715,39.305,-35.661,-38.135,22.882,9.6218,-25.816,-13.458,-28.277
32.446,-20.788,-2.5497,-2.2878,15.969,-6.5134,21.416,-40.715,39.305,-35.661,-38.135,22.882,9.6218,-25.816,-13.458,-28.277
32.446,-20.788,-2.5497,-2.2878,15.969,-6.5134,21.416,-40.715,39.305,-35.661,-38.135,22.882,9.6218,-25.816,-13.458,-28.277
32.591,-20.965,-2.5451,-2.3524,16.143,-6.7633,21.436,-40.751,39.419,-35.85,-38.039,22.664,9.6389,-25.999,-13.308,-28.642
32.736,-21.142,-2.5393,-2.4188,16.316,-7.0141,21.455,-40.789,39.531,-36.039,-37.942,22.445,9.6549,-26.183,-13.157,-29.009
32.736,-21.142,-2.5393,-2.4188,16.316,-7.0141,21.455,-40.789,39.531,-36.039,-37.942,22.445,9.6549,-26.183,-13.157,-29.009
32.88,-21.319,-2.5322,-2.4869,16.49,-7.2658,21.473,-40.828,39.642,-36.228,-37.842,22.223,9.6698,-26.366,-13.006,-29.378
32.88,-21.319,-2.5322,-2.4869,16.49,-7.2658,21.473,-40.828,39.642,-36.228,-37.842,22.223,9.6698,-26.366,-13.006,-29.378
33.024,-21.497,-2.5239,-2.5568,16.663,-7.5184,21.49,-40.869,39.751,-36.416,-37.741,21.999,9.6835,-26.549,-12.853,-29.749
33.024,-21.497,-2.5239,-2.5568,16.663,-7.5184,21.49,-40.869,39.751,-36.416,-37.741,21.999,9.6835,-26.549,-12.853,-29.749
33.024,-21.497,-2.5239,-2.5568,16.663,-7.5184,21.49,-40.869,39.751,-36.416,-37.741,21.999,9.6835,-26.549,-12.853,-29.749
33.167,-21.675,-2.5142,-2.6284,16.837,-7.7719,21.506,-40.912,39.858,-36.603,-37.639,21.773,9.6961,-26.733,-12.701,-30.121
33.31,-21.854,-2.5032,-2.7018,17.01,-8.0264,21.52,-40.956,39.964,-36.791,-37.534,21.545,9.7076,-26.917,-12.547,-30.495
33.31,-21.854,-2.5032,-2.7018,17.01,-8.0264,21.52,-40.956,39.964,-36.791,-37.534,21.545,9.7076,-26.917,-12.547,-30.495
33.452,-22.032,-2.491,-2.7769,17.183,-8.2817,21.534,-41.002,40.069,-36.978,-37.428,21.315,9.7179,-27.101,-12.393,-30.872
33.452,-22.032,-2.491,-2.7769,17.183,-8.2817,21.534,-41.002,40.069,-36.978,-37.428,21.315,9.7179,-27.101,-12.393,-30.872
33.594,-22.211,-2.4774,-2.8538,17.356,-8.5379,21.547,-41.049,40.172,-37.164,-37.32,21.083,9.7271,-27.285,-12.238,-31.25
33.594,-22.211,-2.4774,-2.8538,17.356,-8.5379,21.547,-41.049,40.172,-37.164,-37.32,21.083,9.7271,-27.285,-12.238,-31.25
33.594,-22.211,-2.4774,-2.8538,17.356,-8.5379,21.547,-41.049,40.172,-37.164,-37.32,21.083,9.7271,-27.285,-12.238,-31.25
33.594,-22.211,-2.4774,-2.8538,17.356,-8.5379,21.547,-41.049,40.172,-37.164,-37.32,21.083,9.7271,-27.285,-12.238,-31.25
33.876,-22.57,-2.4464,-3.0129,17.703,-9.0529,21.569,-41.149,40.373,-37.537,-37.098,20.613,9.7421,-27.654,-11.926,-32.011
33.876,-22.57,-2.4464,-3.0129,17.703,-9.0529,21.569,-41.149,40.373,-37.537,-37.098,20.613,9.7421,-27.654,-11.926,-32.011
34.016,-22.75,-2.4289,-3.0951,17.876,-9.3118,21.579,-41.201,40.471,-37.722,-36.985,20.375,9.7479,-27.838,-11.769,-32.395
34.016,-22.75,-2.4289,-3.0951,17.876,-9.3118,21.579,-41.201,40.471,-37.722,-36.985,20.375,9.7479,-27.838,-11.769,-32.395
34.016,-22.75,-2.4289,-3.0951,17.876,-9.3118,21.579,-41.201,40.471,-37.722,-36.985,20.375,9.7479,-27.838,-11.769,-32.395
34.156,-22.93,-2.4101,-3.179,18.049,-9.5715,21.587,-41.254,40.567,-37.907,-36.87,20.135,9.7526,-28.023,-11.611,-32.78
34.295,-23.11,-2.3899,-3.2646,18.221,-9.8321,21.594,-41.31,40.662,-38.092,-36.753,19.893,9.7561,-28.208,-11.453,-33.167
34.295,-23.11,-2.3899,-3.2646,18.221,-9.8321,21.594,-41.31,40.662,-38.092,-36.753,19.893,9.7561,-28.208,-11.453,-33.167
34.434,-23.291,-2.3685,-3.352,18.394,-10.094,21.601,-41.366,40.756,-38.276,-36.634,19.649,9.7586,-28.393,-11.294,-33.555
34.434,-23.291,-2.3685,-3.352,18.394,-10.094,21.601,-41.366,40.756,-38.276,-36.634,19.649,9.7586,-28.393,-11.294,-33.555
34.572,-23.472,-2.3457,-3.4412,18.567,-10.356,21.606,-41.425,40.848,-38.459,-36.513,19.403,9.7599,-28.578,-11.134,-33.946
34.572,-23.472,-2.3457,-3.4412,18.567,-10.356,21.606,-41.425,40.848,-38.459,-36.513,19.403,9.7599,-28.578,-11.134,-33.946
34.572,-23.472,-2.3457,-3.4412,18.567,-10.356,21.606,-41.425,40.848,-38.459,-36.513,19.403,9.7599,-28.578,-11.134,-33.946
34.709,-23.653,-2.3216,-3.532,18.74,-10.619,21.61,-41.485,40.938,-38.643,-36.391,19.155,9.7602,-28.763,-10.973,-34.338
34.846,-23.834,-2.2961,-3.6246,18.912,-10.883,21.614,-41.546,41.026,-38.825,-36.267,18.905,9.7593,-28.948,-10.812,-34.732
34.846,-23.834,-2.2961,-3.6246,18.912,-10.883,21.614,-41.546,41.026,-38.825,-36.267,18.905,9.7593,-28.948,-10.812,-34.732
34.983,-24.016,-2.2693,-3.719,19.085,-11.148,21.616,-41.609,41.113,-39.008,-36.141,18.653,9.7573,-29.133,-10.65,-35.127
34.983,-24.016,-2.2693,-3.719,19.085,-11.148,21.616,-41.609,41.113,-39.008,-36.141,18.653,9.7573,-29.133,-10.65,-35.127
35.118,-24.197,-2.2412,-3.8151,19.258,-11.414,21.617,-41.674,41.198,-39.19,-36.013,18.399,9.7542,-29.319,-10.487,-35.525
35.118,-24.197,-2.2412,-3.8151,19.258,-11.414,21.617,-41.674,41.198,-39.19,-36.013,18.399,9.7542,-29.319,-10.487,-35.525
35.254,-24.379,-2.2117,-3.9128,19.43,-11.68,21.617,-41.74,41.282,-39.371,-35.883,18.143,9.7501,-29.504,-10.324,-35.924
35.254,-24.379,-2.2117,-3.9128,19.43,-11.68,21.617,-41.74,41.282,-39.371,-35.883,18.143,9.7501,-29.504,-10.324,-35.924
35.254,-24.379,-2.2117,-3.9128,19.43,-11.68,21.617,-41.74,41.282,-39.371,-35.883,18.143,9.7501,-29.504,-10.324,-35.924
35.388,-24.561,-2.1809,-4.0123,19.602,-11.948,21.616,-41.808,41.364,-39.552,-35.751,17.885,9.7448,-29.69,-10.16,-36.324
35.522,-24.743,-2.1487,-4.1136,19.775,-12.216,21.614,-41.877,41.444,-39.732,-35.618,17.625,9.7385,-29.875,-9.9947,-36.726
35.522,-24.743,-2.1487,-4.1136,19.775,-12.216,21.614,-41.877,41.444,-39.732,-35.618,17.625,9.7385,-29.875,-9.9947,-36.726
35.656,-24.926,-2.1152,-4.2165,19.947,-12.485,21.611,-41.948,41.523,-39.912,-35.483,17.363,9.7311,-30.061,-9.8291,-37.13
35.656,-24.926,-2.1152,-4.2165,19.947,-12.485,21.611,-41.948,41.523,-39.912,-35.483,17.363,9.7311,-30.061,-9.8291,-37.13
35.789,-25.108,-2.0803,-4.3211,20.119,-12.755,21.607,-42.021,41.6,-40.091,-35.346,17.1,9.7226,-30.247,-9.6628,-37.536
35.789,-25.108,-2.0803,-4.3211,20.119,-12.755,21.607,-42.021,41.6,-40.091,-35.346,17.1,9.7226,-30.247,-9.6628,-37.536
35.921,-25.291,-2.044,-4.4275,20.291,-13.026,21.602,-42.094,41.676,-40.27,-35.207,16.834,9.713,-30.432,-9.4958,-37.943
35.921,-25.291,-2.044,-4.4275,20.291,-13.026,21.602,-42.094,41.676,-40.27,-35.207,16.834,9.713,-30.432,-9.4958,-37.943
36.053,-25.474,-2.0064,-4.5355,20.464,-13.297,21.596,-42.17,41.749,-40.448,-35.066,16.566,9.7024,-30.618,-9.328,-38.352
36.053,-25.474,-2.0064,-4.5355,20.464,-13.297,21.596,-42.17,41.749,-40.448,-35.066,16.566,9.7024,-30.618,-9.328,-38.352
36.184,-25.657,-1.9675,-4.6452,20.636,-13.57,21.589,-42.247,41.821,-40.626,-34.923,16.297,9.6907,-30.804,-9.1595,-38.762
36.184,-25.657,-1.9675,-4.6452,20.636,-13.57,21.589,-42.247,41.821,-40.626,-34.923,16.297,9.6907,-30.804,-9.1595,-38.762
36.184,-25.657,-1.9675,-4.6452,20.636,-13.57,21.589,-42.247,41.821,-40.626,-34.923,16.297,9.6907,-30.804,-9.1595,-38.762
36.314,-25.84,-1.9272,-4.7566,20.808,-13.843,21.581,-42.325,41.892,-40.803,-34.779,16.025,9.678,-30.99,-8.9902,-39.174
36.314,-25.84,-1.9272,-4.7566,20.808,-13.843,21.581,-42.325,41.892,-40.803,-34.779,16.025,9.678,-30.99,-8.9902,-39.174
36.573,-26.206,-1.8425,-4.9845,21.151,-14.391,21.561,-42.486,42.027,-41.156,-34.484,15.477,9.6494,-31.362,-8.6495,-40.002
36.573,-26.206,-1.8425,-4.9845,21.151,-14.391,21.561,-42.486,42.027,-41.156,-34.484,15.477,9.6494,-31.362,-8.6495,-40.002
36.573,-26.206,-1.8425,-4.9845,21.151,-14.391,21.561,-42.486,42.027,-41.156,-34.484,15.477,9.6494,-31.362,-8.6495,-40.002
36.701,-26.39,-1.798,-5.1009,21.323,-14.667,21.55,-42.569,42.093,-41.331,-34.334,15.2,9.6335,-31.548,-8.4781,-40.418
36.701,-26.39,-1.798,-5.1009,21.323,-14.667,21.55,-42.569,42.093,-41.331,-34.334,15.2,9.6335,-31.548,-8.4781,-40.418
36.829,-26.573,-1.7523,-5.219,21.495,-14.943,21.538,-42.654,42.156,-41.506,-34.182,14.921,9.6166,-31.734,-8.3059,-40.836
36.829,-26.573,-1.7523,-5.219,21.495,-14.943,21.538,-42.654,42.156,-41.506,-34.182,14.921,9.6166,-31.734,-8.3059,-40.836
36.956,-26.757,-1.7051,-5.3387,21.667,-15.22,21.525,-42.74,42.218,-41.68,-34.029,14.64,9.5987,-31.92,-8.1329,-41.256
36.956,-26.757,-1.7051,-5.3387,21.667,-15.22,21.525,-42.74,42.218,-41.68,-34.029,14.64,9.5987,-31.92,-8.1329,-41.256
37.083,-26.94,-1.6566,-5.4601,21.838,-15.498,21.511,-42.827,42.279,-41.854,-33.873,14.357,9.5797,-32.106,-7.9592,-41.677
37.083,-26.94,-1.6566,-5.4601,21.838,-15.498,21.511,-42.827,42.279,-41.854,-33.873,14.357,9.5797,-32.106,-7.9592,-41.677
37.209,-27.124,-1.6067,-5.5832,22.01,-15.776,21.496,-42.916,42.337,-42.027,-33.715,14.073,9.5598,-32.293,-7.7848,-42.099
37.209,-27.124,-1.6067,-5.5832,22.01,-15.776,21.496,-42.916,42.337,-42.027,-33.715,14.073,9.5598,-32.293,-7.7848,-42.099
37.334,-27.307,-1.5555,-5.7078,22.182,-16.056,21.48,-43.006,42.394,-42.2,-33.556,13.786,9.5388,-32.479,-7.6096,-42.523
37.334,-27.307,-1.5555,-5.7078,22.182,-16.056,21.48,-43.006,42.394,-42.2,-33.556,13.786,9.5388,-32.479,-7.6096,-42.523
37.458,-27.491,-1.5029,-5.8341,22.353,-16.336,21.463,-43.097,42.449,-42.371,-33.395,13.498,9.5168,-32.665,-7.4336,-42.948
37.582,-27.675,-1.4489,-5.962,22.524,-16.617,21.445,-43.191,42.503,-42.543,-33.232,13.208,9.4939,-32.851,-7.2569,-43.375
37.582,-27.675,-1.4489,-5.962,22.524,-16.617,21.445,-43.191,42.503,-42.543,-33.232,13.208,9.4939,-32.851,-7.2569,-43.375
37.582,-27.675,-1.4489,-5.962,22.524,-16.617,21.445,-43.191,42.503,-42.543,-33.232,13.208,9.4939,-32.851,-7.2569,-43.375
37.705,-27.859,-1.3935,-6.0916,22.696,-16.898,21.426,-43.285,42.555,-42.713,-33.067,12.916,9.4699,-33.037,-7.0795,-43.803
37.705,-27.859,-1.3935,-6.0916,22.696,-16.898,21.426,-43.285,42.555,-42.713,-33.067,12.916,9.4699,-33.037,-7.0795,-43.803
37.828,-28.042,-1.3368,-6.2227,22.867,-17.18,21.406,-43.381,42.605,-42.883,-32.9,12.622,9.445,-33.223,-6.9013,-44.232
37.828,-28.042,-1.3368,-6.2227,22.867,-17.18,21.406,-43.381,42.605,-42.883,-32.9,12.622,9.445,-33.223,-6.9013,-44.232
37.828,-28.042,-1.3368,-6.2227,22.867,-17.18,21.406,-43.381,42.605,-42.883,-32.9,12.622,9.445,-33.223,-6.9013,-44.232
37.95,-28.226,-1.2787,-6.3554,23.038,-17.463,21.385,-43.478,42.653,-43.052,-32.731,12.327,9.4191,-33.409,-6.7223,-44.663
37.95,-28.226,-1.2787,-6.3554,23.038,-17.463,21.385,-43.478,42.653,-43.052,-32.731,12.327,9.4191,-33.409,-6.7223,-44.663
38.071,-28.41,-1.2192,-6.4897,23.209,-17.747,21.363,-43.577,42.7,-43.221,-32.561,12.03,9.3922,-33.595,-6.5425,-45.095
38.071,-28.41,-1.2192,-6.4897,23.209,-17.747,21.363,-43.577,42.7,-43.221,-32.561,12.03,9.3922,-33.595,-6.5425,-45.095
38.071,-28.41,-1.2192,-6.4897,23.209,-17.747,21.363,-43.577,42.7,-43.221,-32.561,12.03,9.3922,-33.595,-6.5425,-45.095
38.311,-28.777,-1.0962,-6.7631,23.552,-18.316,21.317,-43.779,42.788,-43.556,-32.214,11.43,9.3356,-33.967,-6.1808,-45.963
38.311,-28.777,-1.0962,-6.7631,23.552,-18.316,21.317,-43.779,42.788,-43.556,-32.214,11.43,9.3356,-33.967,-6.1808,-45.963
38.43,-28.961,-1.0326,-6.9021,23.723,-18.602,21.292,-43.881,42.83,-43.722,-32.037,11.127,9.3059,-34.153,-5.9987,-46.4
38.43,-28.961,-1.0326,-6.9021,23.723,-18.602,21.292,-43.881,42.83,-43.722,-32.037,11.127,9.3059,-34.153,-5.9987,-46.4
38.548,-29.144,-0.96771,-7.0427,23.893,-18.888,21.266,-43.986,42.87,-43.888,-31.859,10.823,9.2753,-34.339,-5.8159,-46.837
38.548,-29.144,-0.96771,-7.0427,23.893,-18.888,21.266,-43.986,42.87,-43.888,-31.859,10.823,9.2753,-34.339,-5.8159,-46.837
38.665,-29.328,-0.90141,-7.1848,24.064,-19.176,21.24,-44.091,42.908,-44.053,-31.679,10.517,9.2437,-34.525,-5.6323,-47.276
38.665,-29.328,-0.90141,-7.1848,24.064,-19.176,21.24,-44.091,42.908,-44.053,-31.679,10.517,9.2437,-34.525,-5.6323,-47.276
38.782,-29.511,-0.83375,-7.3285,24.235,-19.463,21.213,-44.198,42.945,-44.218,-31.497,10.21,9.2112,-34.711,-5.448,-47.715
38.782,-29.511,-0.83375,-7.3285,24.235,-19.463,21.213,-44.198,42.945,-44.218,-31.497,10.21,9.2112,-34.711,-5.448,-47.715
38.782,-29.511,-0.83375,-7.3285,24.235,-19.463,21.213,-44.198,42.945,-44.218,-31.497,10.21,9.2112,-34.711,-5.448,-47.715
38.898,-29.694,-0.76472,-7.4737,24.406,-19.752,21.184,-44.306,42.979,-44.381,-31.314,9.9001,9.1778,-34.896,-5.2628,-48.157
38.898,-29.694,-0.76472,-7.4737,24.406,-19.752,21.184,-44.306,42.979,-44.381,-31.314,9.9001,9.1778,-34.896,-5.2628,-48.157
39.013,-29.878,-0.69433,-7.6204,24.577,-20.041,21.155,-44.416,43.012,-44.544,-31.128,9.589,9.1435,-35.082,-5.0769,-48.599
39.013,-29.878,-0.69433,-7.6204,24.577,-20.041,21.155,-44.416,43.012,-44.544,-31.128,9.589,9.1435,-35.082,-5.0769,-48.599
39.128,-30.061,-0.62259,-7.7686,24.747,-20.331,21.125,-44.527,43.044,-44.706,-30.941,9.2763,9.1083,-35.268,-4.8902,-49.042
39.241,-30.244,-0.54948,-7.9183,24.918,-20.621,21.094,-44.639,43.073,-44.868,-30.751,8.9619,9.0722,-35.453,-4.7028,-49.487
39.241,-30.244,-0.54948,-7.9183,24.918,-20.621,21.094,-44.639,43.073,-44.868,-30.751,8.9619,9.0722,-35.453,-4.7028,-49.487
39.354,-30.426,-0.47503,-8.0695,25.088,-20.912,21.062,-44.752,43.101,-45.028,-30.56,8.6458,9.0352,-35.639,-4.5145,-49.933
39.354,-30.426,-0.47503,-8.0695,25.088,-20.912,21.062,-44.752,43.101,-45.028,-30.56,8.6458,9.0352,-35.639,-4.5145,-49.933
39.467,-30.609,-0.39922,-8.2222,25.259,-21.203,21.029,-44.867,43.127,-45.188,-30.367,8.3281,8.9974,-35.824,-4.3255,-50.38
39.467,-30.609,-0.39922,-8.2222,25.259,-21.203,21.029,-44.867,43.127,-45.188,-30.367,8.3281,8.9974,-35.824,-4.3255,-50.38
39.578,-30.792,-0.32206,-8.3763,25.429,-21.496,20.995,-44.983,43.152,-45.348,-30.172,8.0088,8.9587,-36.009,-4.1356,-50.828
39.578,-30.792,-0.32206,-8.3763,25.429,-21.496,20.995,-44.983,43.152,-45.348,-30.172,8.0088,8.9587,-36.009,-4.1356,-50.828
39.578,-30.792,-0.32206,-8.3763,25.429,-21.496,20.995,-44.983,43.152,-45.348,-30.172,8.0088,8.9587,-36.009,-4.1356,-50.828
39.689,-30.974,-0.24355,-8.5319,25.599,-21.788,20.961,-45.1,43.175,-45.506,-29.975,7.6878,8.9191,-36.194,-3.945,-51.277
39.799,-31.156,-0.1637,-8.689,25.77,-22.082,20.925,-45.219,43.196,-45.663,-29.777,7.3653,8.8787,-36.379,-3.7536,-51.728
39.799,-31.156,-0.1637,-8.689,25.77,-22.082,20.925,-45.219,43.196,-45.663,-29.777,7.3653,8.8787,-36.379,-3.7536,-51.728
39.908,-31.338,-0.082502,-8.8474,25.94,-22.376,20.889,-45.339,43.215,-45.82,-29.576,7.0411,8.8375,-36.564,-3.5614,-52.179
39.908,-31.338,-0.082502,-8.8474,25.94,-22.376,20.889,-45.339,43.215,-45.82,-29.576,7.0411,8.8375,-36.564,-3.5614,-52.179
40.016,-31.52,3.1646e-05,-9.0073,26.11,-22.67,20.852,-45.46,43.233,-45.976,-29.374,6.7154,8.7955,-36.749,-3.3684,-52.632
40.016,-31.52,3.1646e-05,-9.0073,26.11,-22.67,20.852,-45.46,43.233,-45.976,-29.374,6.7154,8.7955,-36.749,-3.3684,-52.632
40.124,-31.702,0.083902,-9.1686,26.28,-22.965,20.814,-45.582,43.249,-46.131,-29.169,6.3882,8.7526,-36.934,-3.1746,-53.085
40.124,-31.702,0.083902,-9.1686,26.28,-22.965,20.814,-45.582,43.249,-46.131,-29.169,6.3882,8.7526,-36.934,-3.1746,-53.085
40.124,-31.702,0.083902,-9.1686,26.28,-22.965,20.814,-45.582,43.249,-46.131,-29.169,6.3882,8.7526,-36.934,-3.1746,-53.085
40.23,-31.883,0.1691,-9.3313,26.45,-23.261,20.775,-45.705,43.263,-46.286,-28.963,6.0594,8.709,-37.119,-2.98,-53.539
40.336,-32.064,0.25564,-9.4954,26.62,-23.557,20.735,-45.83,43.276,-46.439,-28.755,5.729,8.6645,-37.303,-2.7846,-53.995
40.336,-32.064,0.25564,-9.4954,26.62,-23.557,20.735,-45.83,43.276,-46.439,-28.755,5.729,8.6645,-37.303,-2.7846,-53.995
40.336,-32.064,0.25564,-9.4954,26.62,-23.557,20.735,-45.83,43.276,-46.439,-28.755,5.729,8.6645,-37.303,-2.7846,-53.995
40.442,-32.245,0.34349,-9.6609,26.79,-23.854,20.695,-45.955,43.287,-46.592,-28.545,5.3971,8.6193,-37.487,-2.5884,-54.451
40.442,-32.245,0.34349,-9.6609,26.79,-23.854,20.695,-45.955,43.287,-46.592,-28.545,5.3971,8.6193,-37.487,-2.5884,-54.451
40.442,-32.245,0.34349,-9.6609,26.79,-23.854,20.695,-45.955,43.287,-46.592,-28.545,5.3971,8.6193,-37.487,-2.5884,-54.451
40.649,-32.606,0.52317,-9.9959,27.13,-24.449,20.611,-46.21,43.304,-46.895,-28.12,4.7289,8.5265,-37.856,-2.1936,-55.367
40.649,-32.606,0.52317,-9.9959,27.13,-24.449,20.611,-46.21,43.304,-46.895,-28.12,4.7289,8.5265,-37.856,-2.1936,-55.367
40.649,-32.606,0.52317,-9.9959,27.13,-24.449,20.611,-46.21,43.304,-46.895,-28.12,4.7289,8.5265,-37.856,-2.1936,-55.367
40.752,-32.786,0.61498,-10.165,27.299,-24.747,20.568,-46.339,43.309,-47.045,-27.905,4.3926,8.479,-38.04,-1.995,-55.826
40.854,-32.966,0.7081,-10.336,27.469,-25.046,20.525,-46.47,43.314,-47.195,-27.688,4.0548,8.4307,-38.223,-1.7955,-56.286
40.854,-32.966,0.7081,-10.336,27.469,-25.046,20.525,-46.47,43.314,-47.195,-27.688,4.0548,8.4307,-38.223,-1.7955,-56.286
40.955,-33.146,0.80252,-10.508,27.639,-25.345,20.48,-46.601,43.316,-47.343,-27.469,3.7156,8.3817,-38.407,-1.5953,-56.747
40.955,-33.146,0.80252,-10.508,27.639,-25.345,20.48,-46.601,43.316,-47.343,-27.469,3.7156,8.3817,-38.407,-1.5953,-56.747
41.055,-33.325,0.89825,-10.682,27.808,-25.645,20.435,-46.733,43.317,-47.491,-27.248,3.375,8.3319,-38.591,-1.3942,-57.209
41.055,-33.325,0.89825,-10.682,27.808,-25.645,20.435,-46.733,43.317,-47.491,-27.248,3.375,8.3319,-38.591,-1.3942,-57.209
41.055,-33.325,0.89825,-10.682,27.808,-25.645,20.435,-46.733,43.317,-47.491,-27.248,3.375,8.3319,-38.591,-1.3942,-57.209
41.155,-33.504,0.99527,-10.857,27.978,-25.945,20.389,-46.867,43.316,-47.637,-27.025,3.0329,8.2815,-38.774,-1.1924,-57.672
41.155,-33.504,0.99527,-10.857,27.978,-25.945,20.389,-46.867,43.316,-47.637,-27.025,3.0329,8.2815,-38.774,-1.1924,-57.672
41.253,-33.683,1.0936,-11.033,28.147,-26.246,20.342,-47.001,43.313,-47.783,-26.801,2.6894,8.2304,-38.957,-0.98969,-58.136
41.253,-33.683,1.0936,-11.033,28.147,-26.246,20.342,-47.001,43.313,-47.783,-26.801,2.6894,8.2304,-38.957,-0.98969,-58.136
41.351,-33.861,1.1932,-11.21,28.316,-26.547,20.294,-47.137,43.309,-47.928,-26.575,2.3446,8.1785,-39.14,-0.78619,-58.6
41.448,-34.039,1.294,-11.388,28.486,-26.849,20.246,-47.274,43.303,-48.072,-26.347,1.9984,8.126,-39.323,-0.58188,-59.065
41.448,-34.039,1.294,-11.388,28.486,-26.849,20.246,-47.274,43.303,-48.072,-26.347,1.9984,8.126,-39.323,-0.58188,-59.065
41.544,-34.216,1.3962,-11.568,28.655,-27.151,20.197,-47.411,43.296,-48.215,-26.117,1.6508,8.0728,-39.506,-0.37674,-59.531
41.544,-34.216,1.3962,-11.568,28.655,-27.151,20.197,-47.411,43.296,-48.215,-26.117,1.6508,8.0728,-39.506,-0.37674,-59.531
41.544,-34.216,1.3962,-11.568,28.655,-27.151,20.197,-47.411,43.296,-48.215,-26.117,1.6508,8.0728,-39.506,-0.37674,-59.531
41.639,-34.394,1.4996,-11.749,28.824,-27.453,20.147,-47.55,43.287,-48.358,-25.885,1.3019,8.019,-39.688,-0.17078,-59.997
41.639,-34.394,1.4996,-11.749,28.824,-27.453,20.147,-47.55,43.287,-48.358,-25.885,1.3019,8.019,-39.688,-0.17078,-59.997
41.733,-34.57,1.6043,-11.931,28.993,-27.756,20.096,-47.69,43.276,-48.499,-25.651,0.95174,7.9645,-39.87,0.035999,-60.464
41.826,-34.747,1.7102,-12.115,29.162,-28.059,20.045,-47.83,43.263,-48.639,-25.416,0.60024,7.9094,-40.052,0.2436,-60.932
41.919,-34.923,1.8174,-12.299,29.331,-28.363,19.993,-47.972,43.249,-48.779,-25.179,0.24746,7.8537,-40.234,0.45203,-61.401
41.919,-34.923,1.8174,-12.299,29.331,-28.363,19.993,-47.972,43.249,-48.779,-25.179,0.24746,7.8537,-40.234,0.45203,-61.401
41.919,-34.923,1.8174,-12.299,29.331,-28.363,19.993,-47.972,43.249,-48.779,-25.179,0.24746,7.8537,-40.234,0.45203,-61.401
42.011,-35.098,1.9259,-12.485,29.5,-28.666,19.94,-48.114,43.233,-48.917,-24.94,-0.10659,7.7973,-40.416,0.66129,-61.87
42.011,-35.098,1.9259,-12.485,29.5,-28.666,19.94,-48.114,43.233,-48.917,-24.94,-0.10659,7.7973,-40.416,0.66129,-61.87
42.011,-35.098,1.9259,-12.485,29.5,-28.666,19.94,-48.114,43.233,-48.917,-24.94,-0.10659,7.7973,-40.416,0.66129,-61.87
42.101,-35.274,2.0355,-12.672,29.669,-28.971,19.886,-48.258,43.216,-49.055,-24.7,-0.46189,7.7404,-40.597,0.87138,-62.34
42.101,-35.274,2.0355,-12.672,29.669,-28.971,19.886,-48.258,43.216,-49.055,-24.7,-0.46189,7.7404,-40.597,0.87138,-62.34
42.191,-35.448,2.1465,-12.86,29.838,-29.275,19.832,-48.402,43.197,-49.192,-24.457,-0.81842,7.6828,-40.778,1.0823,-62.811
42.28,-35.623,2.2586,-13.049,30.007,-29.58,19.777,-48.547,43.176,-49.327,-24.213,-1.1762,7.6247,-40.959,1.294,-63.282
42.28,-35.623,2.2586,-13.049,30.007,-29.58,19.777,-48.547,43.176,-49.327,-24.213,-1.1762,7.6247,-40.959,1.294,-63.282
42.368,-35.796,2.3719,-13.239,30.175,-29.886,19.722,-48.693,43.154,-49.462,-23.967,-1.5351,7.566,-41.14,1.5066,-63.753
42.368,-35.796,2.3719,-13.239,30.175,-29.886,19.722,-48.693,43.154,-49.462,-23.967,-1.5351,7.566,-41.14,1.5066,-63.753
42.455,-35.97,2.4865,-13.43,30.344,-30.191,19.666,-48.84,43.13,-49.596,-23.719,-1.8952,7.5068,-41.321,1.72,-64.225
42.455,-35.97,2.4865,-13.43,30.344,-30.191,19.666,-48.84,43.13,-49.596,-23.719,-1.8952,7.5068,-41.321,1.72,-64.225
42.542,-36.143,2.6023,-13.623,30.513,-30.497,19.609,-48.988,43.104,-49.729,-23.47,-2.2565,7.447,-41.501,1.9343,-64.698
42.542,-36.143,2.6023,-13.623,30.513,-30.497,19.609,-48.988,43.104,-49.729,-23.47,-2.2565,7.447,-41.501,1.9343,-64.698
42.627,-36.315,2.7193,-13.816,30.681,-30.803,19.551,-49.137,43.077,-49.86,-23.219,-2.6189,7.3866,-41.681,2.1494,-65.171
42.627,-36.315,2.7193,-13.816,30.681,-30.803,19.551,-49.137,43.077,-49.86,-23.219,-2.6189,7.3866,-41.681,2.1494,-65.171
42.712,-36.487,2.8374,-14.011,30.849,-31.11,19.493,-49.286,43.049,-49.991,-22.966,-2.9825,7.3258,-41.861,2.3653,-65.645
42.712,-36.487,2.8374,-14.011,30.849,-31.11,19.493,-49.286,43.049,-49.991,-22.966,-2.9825,7.3258,-41.861,2.3653,-65.645
42.795,-36.658,2.9567,-14.206,31.018,-31.417,19.434,-49.437,43.018,-50.121,-22.711,-3.3471,7.2645,-42.04,2.582,-66.119
42.795,-36.658,2.9567,-14.206,31.018,-31.417,19.434,-49.437,43.018,-50.121,-22.711,-3.3471,7.2645,-42.04,2.582,-66.119
42.878,-36.829,3.0773,-14.403,31.186,-31.724,19.375,-49.588,42.986,-50.25,-22.455,-3.7129,7.2026,-42.22,2.7996,-66.593
42.878,-36.829,3.0773,-14.403,31.186,-31.724,19.375,-49.588,42.986,-50.25,-22.455,-3.7129,7.2026,-42.22,2.7996,-66.593
42.959,-36.999,3.1989,-14.6,31.354,-32.031,19.315,-49.74,42.953,-50.378,-22.197,-4.0797,7.1403,-42.399,3.018,-67.068
42.959,-36.999,3.1989,-14.6,31.354,-32.031,19.315,-49.74,42.953,-50.378,-22.197,-4.0797,7.1403,-42.399,3.018,-67.068
42.959,-36.999,3.1989,-14.6,31.354,-32.031,19.315,-49.74,42.953,-50.378,-22.197,-4.0797,7.1403,-42.399,3.018,-67.068
43.04,-37.169,3.3218,-14.799,31.522,-32.338,19.254,-49.892,42.918,-50.505,-21.937,-4.4476,7.0775,-42.578,3.2373,-67.543
43.12,-37.338,3.4458,-14.998,31.69,-32.646,19.193,-50.046,42.881,-50.63,-21.676,-4.8165,7.0143,-42.756,3.4574,-68.019
43.12,-37.338,3.4458,-14.998,31.69,-32.646,19.193,-50.046,42.881,-50.63,-21.676,-4.8165,7.0143,-42.756,3.4574,-68.019
43.12,-37.338,3.4458,-14.998,31.69,-32.646,19.193,-50.046,42.881,-50.63,-21.676,-4.8165,7.0143,-42.756,3.4574,-68.019
43.199,-37.506,3.5709,-15.198,31.858,-32.954,19.131,-50.2,42.843,-50.755,-21.413,-5.1864,6.9506,-42.934,3.6784,-68.495
43.199,-37.506,3.5709,-15.198,31.858,-32.954,19.131,-50.2,42.843,-50.755,-21.413,-5.1864,6.9506,-42.934,3.6784,-68.495
43.199,-37.506,3.5709,-15.198,31.858,-32.954,19.131,-50.2,42.843,-50.755,-21.413,-5.1864,6.9506,-42.934,3.6784,-68.495
43.354,-37.842,3.8246,-15.602,32.194,-33.57,19.005,-50.51,42.762,-51.002,-20.881,-5.9292,6.8219,-43.29,4.1228,-69.447
43.354,-37.842,3.8246,-15.602,32.194,-33.57,19.005,-50.51,42.762,-51.002,-20.881,-5.9292,6.8219,-43.29,4.1228,-69.447
43.354,-37.842,3.8246,-15.602,32.194,-33.57,19.005,-50.51,42.762,-51.002,-20.881,-5.9292,6.8219,-43.29,4.1228,-69.447
43.43,-38.009,3.9531,-15.805,32.362,-33.879,18.941,-50.666,42.719,-51.123,-20.613,-6.3021,6.757,-43.467,4.3463,-69.924
43.505,-38.175,4.0827,-16.009,32.529,-34.187,18.877,-50.822,42.675,-51.244,-20.343,-6.6759,6.6916,-43.644,4.5706,-70.401
43.505,-38.175,4.0827,-16.009,32.529,-34.187,18.877,-50.822,42.675,-51.244,-20.343,-6.6759,6.6916,-43.644,4.5706,-70.401
43.579,-38.34,4.2134,-16.214,32.697,-34.496,18.812,-50.98,42.629,-51.364,-20.072,-7.0506,6.6259,-43.821,4.7958,-70.878
43.653,-38.505,4.3452,-16.419,32.865,-34.805,18.747,-51.138,42.582,-51.482,-19.799,-7.4262,6.5598,-43.998,5.0218,-71.356
43.653,-38.505,4.3452,-16.419,32.865,-34.805,18.747,-51.138,42.582,-51.482,-19.799,-7.4262,6.5598,-43.998,5.0218,-71.356
43.653,-38.505,4.3452,-16.419,32.865,-34.805,18.747,-51.138,42.582,-51.482,-19.799,-7.4262,6.5598,-43.998,5.0218,-71.356
43.725,-38.669,4.4781,-16.626,33.032,-35.114,18.681,-51.296,42.533,-51.6,-19.524,-7.8027,6.4934,-44.174,5.2487,-71.833
43.725,-38.669,4.4781,-16.626,33.032,-35.114,18.681,-51.296,42.533,-51.6,-19.524,-7.8027,6.4934,-44.174,5.2487,-71.833
43.725,-38.669,4.4781,-16.626,33.032,-35.114,18.681,-51.296,42.533,-51.6,-19.524,-7.8027,6.4934,-44.174,5.2487,-71.833
43.796,-38.833,4.612,-16.833,33.199,-35.423,18.615,-51.455,42.482,-51.716,-19.248,-8.1801,6.4266,-44.35,5.4764,-72.311
43.867,-38.996,4.747,-17.041,33.367,-35.732,18.548,-51.615,42.43,-51.832,-18.97,-8.5582,6.3595,-44.525,5.7049,-72.789
43.867,-38.996,4.747,-17.041,33.367,-35.732,18.548,-51.615,42.43,-51.832,-18.97,-8.5582,6.3595,-44.525,5.7049,-72.789
43.936,-39.158,4.8831,-17.25,33.534,-36.041,18.48,-51.775,42.377,-51.946,-18.69,-8.9373,6.292,-44.7,5.9343,-73.267
43.936,-39.158,4.8831,-17.25,33.534,-36.041,18.48,-51.775,42.377,-51.946,-18.69,-8.9373,6.292,-44.7,5.9343,-73.267
44.004,-39.32,5.0201,-17.46,33.701,-36.35,18.412,-51.936,42.322,-52.059,-18.409,-9.3171,6.2243,-44.875,6.1646,-73.745
44.004,-39.32,5.0201,-17.46,33.701,-36.35,18.412,-51.936,42.322,-52.059,-18.409,-9.3171,6.2243,-44.875,6.1646,-73.745
44.072,-39.48,5.1583,-17.67,33.868,-36.66,18.344,-52.097,42.266,-52.172,-18.126,-9.6977,6.1562,-45.05,6.3957,-74.223
44.072,-39.48,5.1583,-17.67,33.868,-36.66,18.344,-52.097,42.266,-52.172,-18.126,-9.6977,6.1562,-45.05,6.3957,-74.223
44.138,-39.641,5.2974,-17.881,34.035,-36.969,18.275,-52.259,42.208,-52.283,-17.842,-10.079,6.0879,-45.224,6.6276,-74.701
44.138,-39.641,5.2974,-17.881,34.035,-36.969,18.275,-52.259,42.208,-52.283,-17.842,-10.079,6.0879,-45.224,6.6276,-74.701
44.204,-39.8,5.4376,-18.093,34.202,-37.278,18.206,-52.421,42.149,-52.393,-17.556,-10.461,6.0193,-45.398,6.8604,-75.179
44.204,-39.8,5.4376,-18.093,34.202,-37.278,18.206,-52.421,42.149,-52.393,-17.556,-10.461,6.0193,-45.398,6.8604,-75.179
44.204,-39.8,5.4376,-18.093,34.202,-37.278,18.206,-52.421,42.149,-52.393,-17.556,-10.461,6.0193,-45.398,6.8604,-75.179
44.268,-39.959,5.5787,-18.306,34.369,-37.588,18.136,-52.583,42.088,-52.502,-17.269,-10.844,5.9505,-45.572,7.094,-75.657
44.332,-40.116,5.7208,-18.519,34.535,-37.897,18.065,-52.746,42.026,-52.609,-16.98,-11.228,5.8815,-45.745,7.3285,-76.135
44.332,-40.116,5.7208,-18.519,34.535,-37.897,18.065,-52.746,42.026,-52.609,-16.98,-11.228,5.8815,-45.745,7.3285,-76.135
44.394,-40.273,5.8639,-18.732,34.702,-38.206,17.995,-52.91,41.963,-52.716,-16.689,-11.612,5.8122,-45.918,7.5638,-76.612
44.394,-40.273,5.8639,-18.732,34.702,-38.206,17.995,-52.91,41.963,-52.716,-16.689,-11.612,5.8122,-45.918,7.5638,-76.612
44.456,-40.43,6.008,-18.947,34.868,-38.515,17.923,-53.074,41.898,-52.822,-16.397,-11.997,5.7427,-46.09,7.8,-77.09
44.456,-40.43,6.008,-18.947,34.868,-38.515,17.923,-53.074,41.898,-52.822,-16.397,-11.997,5.7427,-46.09,7.8,-77.09
44.516,-40.585,6.153,-19.162,35.035,-38.825,17.852,-53.238,41.831,-52.926,-16.104,-12.382,5.673,-46.262,8.037,-77.568
44.516,-40.585,6.153,-19.162,35.035,-38.825,17.852,-53.238,41.831,-52.926,-16.104,-12.382,5.673,-46.262,8.037,-77.568
44.576,-40.74,6.299,-19.378,35.201,-39.134,17.78,-53.402,41.764,-53.03,-15.809,-12.768,5.6031,-46.434,8.2749,-78.045
44.576,-40.74,6.299,-19.378,35.201,-39.134,17.78,-53.402,41.764,-53.03,-15.809,-12.768,5.6031,-46.434,8.2749,-78.045
44.634,-40.894,6.4459,-19.594,35.367,-39.443,17.707,-53.567,41.695,-53.132,-15.512,-13.155,5.533,-46.605,8.5136,-78.523
44.634,-40.894,6.4459,-19.594,35.367,-39.443,17.707,-53.567,41.695,-53.132,-15.512,-13.155,5.533,-46.605,8.5136,-78.523
44.692,-41.047,6.5937,-19.81,35.533,-39.752,17.634,-53.732,41.624,-53.233,-15.214,-13.542,5.4628,-46.776,8.7532,-79
44.692,-41.047,6.5937,-19.81,35.533,-39.752,17.634,-53.732,41.624,-53.233,-15.214,-13.542,5.4628,-46.776,8.7532,-79
44.692,-41.047,6.5937,-19.81,35.533,-39.752,17.634,-53.732,41.624,-53.233,-15.214,-13.542,5.4628,-46.776,8.7532,-79
44.748,-41.2,6.7424,-20.028,35.699,-40.061,17.561,-53.898,41.552,-53.334,-14.915,-13.93,5.3925,-46.947,8.9936,-79.476
44.804,-41.351,6.8921,-20.246,35.865,-40.37,17.487,-54.063,41.479,-53.433,-14.614,-14.318,5.322,-47.117,9.2348,-79.953
44.804,-41.351,6.8921,-20.246,35.865,-40.37,17.487,-54.063,41.479,-53.433,-14.614,-14.318,5.322,-47.117,9.2348,-79.953
44.858,-41.502,7.0426,-20.464,36.031,-40.678,17.413,-54.229,41.404,-53.53,-14.311,-14.707,5.2514,-47.287,9.4769,-80.429
44.912,-41.652,7.1939,-20.683,36.196,-40.987,17.339,-54.395,41.328,-53.627,-14.007,-15.097,5.1807,-47.456,9.7199,-80.905
44.912,-41.652,7.1939,-20.683,36.196,-40.987,17.339,-54.395,41.328,-53.627,-14.007,-15.097,5.1807,-47.456,9.7199,-80.905
44.912,-41.652,7.1939,-20.683,36.196,-40.987,17.339,-54.395,41.328,-53.627,-14.007,-15.097,5.1807,-47.456,9.7199,-80.905
44.964,-41.8,7.3462,-20.902,36.362,-41.295,17.264,-54.562,41.251,-53.723,-13.702,-15.487,5.1099,-47.625,9.9636,-81.381
44.964,-41.8,7.3462,-20.902,36.362,-41.295,17.264,-54.562,41.251,-53.723,-13.702,-15.487,5.1099,-47.625,9.9636,-81.381
45.015,-41.948,7.4992,-21.121,36.527,-41.603,17.189,-54.728,41.173,-53.817,-13.396,-15.877,5.039,-47.794,10.208,-81.856
45.015,-41.948,7.4992,-21.121,36.527,-41.603,17.189,-54.728,41.173,-53.817,-13.396,-15.877,5.039,-47.794,10.208,-81.856
45.066,-42.096,7.6532,-21.342,36.693,-41.911,17.113,-54.895,41.093,-53.911,-13.087,-16.268,4.9681,-47.962,10.454,-82.331
45.066,-42.096,7.6532,-21.342,36.693,-41.911,17.113,-54.895,41.093,-53.911,-13.087,-16.268,4.9681,-47.962,10.454,-82.331
45.115,-42.242,7.8079,-21.562,36.858,-42.219,17.038,-55.062,41.012,-54.003,-12.778,-16.659,4.8971,-48.13,10.7,-82.806
45.115,-42.242,7.8079,-21.562,36.858,-42.219,17.038,-55.062,41.012,-54.003,-12.778,-16.659,4.8971,-48.13,10.7,-82.806
45.163,-42.387,7.9634,-21.783,37.023,-42.526,16.961,-55.229,40.929,-54.094,-12.467,-17.05,4.8261,-48.297,10.947,-83.28
45.163,-42.387,7.9634,-21.783,37.023,-42.526,16.961,-55.229,40.929,-54.094,-12.467,-17.05,4.8261,-48.297,10.947,-83.28
45.163,-42.387,7.9634,-21.783,37.023,-42.526,16.961,-55.229,40.929,-54.094,-12.467,-17.05,4.8261,-48.297,10.947,-83.28
45.21,-42.532,8.1198,-22.004,37.188,-42.833,16.885,-55.396,40.846,-54.184,-12.155,-17.442,4.755,-48.464,11.195,-83.753
45.21,-42.532,8.1198,-22.004,37.188,-42.833,16.885,-55.396,40.846,-54.184,-12.155,-17.442,4.755,-48.464,11.195,-83.753
45.257,-42.675,8.2769,-22.226,37.353,-43.14,16.808,-55.563,40.761,-54.272,-11.841,-17.835,4.684,-48.63,11.444,-84.226
45.302,-42.818,8.4348,-22.448,37.517,-43.447,16.731,-55.73,40.674,-54.36,-11.527,-18.227,4.6129,-48.796,11.694,-84.699
45.302,-42.818,8.4348,-22.448,37.517,-43.447,16.731,-55.73,40.674,-54.36,-11.527,-18.227,4.6129,-48.796,11.694,-84.699
45.302,-42.818,8.4348,-22.448,37.517,-43.447,16.731,-55.73,40.674,-54.36,-11.527,-18.227,4.6129,-48.796,11.694,-84.699
45.346,-42.959,8.5934,-22.67,37.682,-43.753,16.654,-55.897,40.587,-54.446,-11.21,-18.62,4.5419,-48.962,11.944,-85.171
45.346,-42.959,8.5934,-22.67,37.682,-43.753,16.654,-55.897,40.587,-54.446,-11.21,-18.62,4.5419,-48.962,11.944,-85.171
45.431,-43.24,8.9129,-23.115,38.011,-44.365,16.498,-56.232,40.409,-54.616,-10.574,-19.407,4.4,-49.292,12.448,-86.113
45.431,-43.24,8.9129,-23.115,38.011,-44.365,16.498,-56.232,40.409,-54.616,-10.574,-19.407,4.4,-49.292,12.448,-86.113
45.431,-43.24,8.9129,-23.115,38.011,-44.365,16.498,-56.232,40.409,-54.616,-10.574,-19.407,4.4,-49.292,12.448,-86.113
45.472,-43.379,9.0737,-23.338,38.175,-44.671,16.42,-56.399,40.317,-54.699,-10.254,-19.8,4.3291,-49.456,12.701,-86.584
45.472,-43.379,9.0737,-23.338,38.175,-44.671,16.42,-56.399,40.317,-54.699,-10.254,-19.8,4.3291,-49.456,12.701,-86.584
45.512,-43.516,9.2353,-23.561,38.339,-44.976,16.342,-56.566,40.225,-54.781,-9.9326,-20.194,4.2583,-49.62,12.954,-87.053
45.512,-43.516,9.2353,-23.561,38.339,-44.976,16.342,-56.566,40.225,-54.781,-9.9326,-20.194,4.2583,-49.62,12.954,-87.053
45.551,-43.653,9.3975,-23.785,38.503,-45.28,16.263,-56.734,40.132,-54.861,-9.6099,-20.588,4.1876,-49.783,13.209,-87.522
45.588,-43.789,9.5604,-24.008,38.667,-45.585,16.184,-56.901,40.037,-54.941,-9.286,-20.982,4.117,-49.946,13.465,-87.99
45.588,-43.789,9.5604,-24.008,38.667,-45.585,16.184,-56.901,40.037,-54.941,-9.286,-20.982,4.117,-49.946,13.465,-87.99
45.588,-43.789,9.5604,-24.008,38.667,-45.585,16.184,-56.901,40.037,-54.941,-9.286,-20.982,4.117,-49.946,13.465,-87.99
45.625,-43.924,9.7239,-24.232,38.83,-45.889,16.105,-57.068,39.941,-55.019,-8.9609,-21.377,4.0465,-50.108,13.721,-88.458
45.625,-43.924,9.7239,-24.232,38.83,-45.889,16.105,-57.068,39.941,-55.019,-8.9609,-21.377,4.0465,-50.108,13.721,-88.458
45.661,-44.057,9.8881,-24.456,38.994,-46.192,16.026,-57.234,39.844,-55.096,-8.6346,-21.771,3.9762,-50.27,13.978,-88.925
45.661,-44.057,9.8881,-24.456,38.994,-46.192,16.026,-57.234,39.844,-55.096,-8.6346,-21.771,3.9762,-50.27,13.978,-88.925
45.661,-44.057,9.8881,-24.456,38.994,-46.192,16.026,-57.234,39.844,-55.096,-8.6346,-21.771,3.9762,-50.27,13.978,-88.925
45.695,-44.19,10.053,-24.68,39.157,-46.495,15.946,-57.401,39.746,-55.172,-8.3071,-22.166,3.9059,-50.431,14.236,-89.391
45.729,-44.322,10.218,-24.904,39.32,-46.798,15.867,-57.568,39.647,-55.247,-7.9783,-22.56,3.8359,-50.592,14.495,-89.856
45.729,-44.322,10.218,-24.904,39.32,-46.798,15.867,-57.568,39.647,-55.247,-7.9783,-22.56,3.8359,-50.592,14.495,-89.856
45.762,-44.452,10.384,-25.129,39.483,-47.1,15.787,-57.734,39.547,-55.321,-7.6484,-22.955,3.766,-50.753,14.754,-90.32
45.762,-44.452,10.384,-25.129,39.483,-47.1,15.787,-57.734,39.547,-55.321,-7.6484,-22.955,3.766,-50.753,14.754,-90.32
45.793,-44.582,10.551,-25.353,39.646,-47.402,15.707,-57.9,39.445,-55.393,-7.3174,-23.35,3.6963,-50.913,15.015,-90.784
45.793,-44.582,10.551,-25.353,39.646,-47.402,15.707,-57.9,39.445,-55.393,-7.3174,-23.35,3.6963,-50.913,15.015,-90.784
45.793,-44.582,10.551,-25.353,39.646,-47.402,15.707,-57.9,39.445,-55.393,-7.3174,-23.35,3.6963,-50.913,15.015,-90.784
45.823,-44.71,10.718,-25.577,39.809,-47.703,15.627,-58.066,39.343,-55.465,-6.9851,-23.744,3.6268,-51.072,15.276,-91.246
45.853,-44.838,10.886,-25.802,39.971,-48.004,15.546,-58.232,39.239,-55.535,-6.6518,-24.139,3.5575,-51.231,15.538,-91.708
45.853,-44.838,10.886,-25.802,39.971,-48.004,15.546,-58.232,39.239,-55.535,-6.6518,-24.139,3.5575,-51.231,15.538,-91.708
45.881,-44.964,11.054,-26.026,40.134,-48.304,15.466,-58.397,39.135,-55.604,-6.3173,-24.534,3.4885,-51.389,15.801,-92.169
45.881,-44.964,11.054,-26.026,40.134,-48.304,15.466,-58.397,39.135,-55.604,-6.3173,-24.534,3.4885,-51.389,15.801,-92.169
45.908,-45.089,11.223,-26.251,40.296,-48.604,15.385,-58.562,39.029,-55.672,-5.9817,-24.929,3.4196,-51.547,16.064,-92.628
45.908,-45.089,11.223,-26.251,40.296,-48.604,15.385,-58.562,39.029,-55.672,-5.9817,-24.929,3.4196,-51.547,16.064,-92.628
45.934,-45.213,11.392,-26.475,40.458,-48.903,15.304,-58.727,38.923,-55.738,-5.6451,-25.323,3.3511,-51.705,16.329,-93.087
45.934,-45.213,11.392,-26.475,40.458,-48.903,15.304,-58.727,38.923,-55.738,-5.6451,-25.323,3.3511,-51.705,16.329,-93.087
45.934,-45.213,11.392,-26.475,40.458,-48.903,15.304,-58.727,38.923,-55.738,-5.6451,-25.323,3.3511,-51.705,16.329,-93.087
45.959,-45.336,11.562,-26.699,40.62,-49.202,15.223,-58.892,38.815,-55.804,-5.3073,-25.718,3.2828,-51.861,16.594,-93.545
45.959,-45.336,11.562,-26.699,40.62,-49.202,15.223,-58.892,38.815,-55.804,-5.3073,-25.718,3.2828,-51.861,16.594,-93.545
45.983,-45.458,11.733,-26.923,40.781,-49.5,15.142,-59.056,38.706,-55.868,-4.9685,-26.112,3.2148,-52.018,16.86,-94.001
45.983,-45.458,11.733,-26.923,40.781,-49.5,15.142,-59.056,38.706,-55.868,-4.9685,-26.112,3.2148,-52.018,16.86,-94.001
46.005,-45.579,11.903,-27.148,40.943,-49.797,15.061,-59.219,38.597,-55.931,-4.6287,-26.506,3.1471,-52.173,17.127,-94.457
46.027,-45.699,12.075,-27.372,41.104,-50.094,14.98,-59.383,38.486,-55.993,-4.2878,-26.9,3.0796,-52.329,17.394,-94.912
46.027,-45.699,12.075,-27.372,41.104,-50.094,14.98,-59.383,38.486,-55.993,-4.2878,-26.9,3.0796,-52.329,17.394,-94.912
46.048,-45.817,12.246,-27.595,41.265,-50.39,14.899,-59.546,38.374,-56.054,-3.9459,-27.294,3.0126,-52.483,17.663,-95.365
46.048,-45.817,12.246,-27.595,41.265,-50.39,14.899,-59.546,38.374,-56.054,-3.9459,-27.294,3.0126,-52.483,17.663,-95.365
46.067,-45.934,12.418,-27.819,41.426,-50.686,14.817,-59.708,38.262,-56.113,-3.603,-27.688,2.9458,-52.638,17.932,-95.817
46.067,-45.934,12.418,-27.819,41.426,-50.686,14.817,-59.708,38.262,-56.113,-3.603,-27.688,2.9458,-52.638,17.932,-95.817
46.067,-45.934,12.418,-27.819,41.426,-50.686,14.817,-59.708,38.262,-56.113,-3.603,-27.688,2.9458,-52.638,17.932,-95.817
46.086,-46.051,12.591,-28.043,41.587,-50.981,14.736,-59.87,38.148,-56.172,-3.2591,-28.081,2.8794,-52.791,18.202,-96.268
46.086,-46.051,12.591,-28.043,41.587,-50.981,14.736,-59.87,38.148,-56.172,-3.2591,-28.081,2.8794,-52.791,18.202,-96.268
46.103,-46.166,12.764,-28.266,41.748,-51.275,14.654,-60.032,38.034,-56.229,-2.9143,-28.475,2.8134,-52.944,18.473,-96.718
46.119,-46.279,12.937,-28.489,41.908,-51.568,14.573,-60.193,37.919,-56.285,-2.5685,-28.868,2.7477,-53.097,18.744,-97.167
46.134,-46.392,13.111,-28.712,42.068,-51.861,14.491,-60.353,37.802,-56.34,-2.2217,-29.26,2.6825,-53.249,19.016,-97.614
46.134,-46.392,13.111,-28.712,42.068,-51.861,14.491,-60.353,37.802,-56.34,-2.2217,-29.26,2.6825,-53.249,19.016,-97.614
46.134,-46.392,13.111,-28.712,42.068,-51.861,14.491,-60.353,37.802,-56.34,-2.2217,-29.26,2.6825,-53.249,19.016,-97.614
46.134,-46.392,13.111,-28.712,42.068,-51.861,14.491,-60.353,37.802,-56.34,-2.2217,-29.26,2.6825,-53.249,19.016,-97.614
46.149,-46.504,13.284,-28.935,42.228,-52.153,14.41,-60.513,37.685,-56.394,-1.8741,-29.653,2.6176,-53.4,19.289,-98.06
46.149,-46.504,13.284,-28.935,42.228,-52.153,14.41,-60.513,37.685,-56.394,-1.8741,-29.653,2.6176,-53.4,19.289,-98.06
46.162,-46.614,13.459,-29.157,42.388,-52.444,14.328,-60.673,37.567,-56.446,-1.5255,-30.044,2.5532,-53.551,19.563,-98.505
46.173,-46.723,13.633,-29.379,42.547,-52.735,14.246,-60.831,37.449,-56.497,-1.176,-30.436,2.4892,-53.701,19.838,-98.948
46.173,-46.723,13.633,-29.379,42.547,-52.735,14.246,-60.831,37.449,-56.497,-1.176,-30.436,2.4892,-53.701,19.838,-98.948
46.184,-46.831,13.808,-29.601,42.706,-53.025,14.165,-60.989,37.329,-56.548,-0.82571,-30.827,2.4256,-53.851,20.113,-99.39
46.184,-46.831,13.808,-29.601,42.706,-53.025,14.165,-60.989,37.329,-56.548,-0.82571,-30.827,2.4256,-53.851,20.113,-99.39
46.194,-46.937,13.983,-29.822,42.865,-53.314,14.083,-61.147,37.208,-56.597,-0.47452,-31.218,2.3625,-54,20.389,-99.831
46.194,-46.937,13.983,-29.822,42.865,-53.314,14.083,-61.147,37.208,-56.597,-0.47452,-31.218,2.3625,-54,20.389,-99.831
46.202,-47.043,14.159,-30.043,43.024,-53.602,14.001,-61.304,37.087,-56.644,-0.12249,-31.608,2.2999,-54.148,20.666,-100.27
46.202,-47.043,14.159,-30.043,43.024,-53.602,14.001,-61.304,37.087,-56.644,-0.12249,-31.608,2.2999,-54.148,20.666,-100.27
46.21,-47.147,14.334,-30.264,43.183,-53.889,13.92,-61.46,36.965,-56.691,0.23037,-31.998,2.2377,-54.296,20.944,-100.71
46.21,-47.147,14.334,-30.264,43.183,-53.889,13.92,-61.46,36.965,-56.691,0.23037,-31.998,2.2377,-54.296,20.944,-100.71
46.216,-47.25,14.51,-30.484,43.341,-54.176,13.838,-61.616,36.842,-56.737,0.58403,-32.388,2.1761,-54.443,21.222,-101.14
46.216,-47.25,14.51,-30.484,43.341,-54.176,13.838,-61.616,36.842,-56.737,0.58403,-32.388,2.1761,-54.443,21.222,-101.14
46.222,-47.351,14.686,-30.704,43.499,-54.462,13.757,-61.77,36.719,-56.781,0.93849,-32.777,2.115,-54.59,21.501,-101.58
46.222,-47.351,14.686,-30.704,43.499,-54.462,13.757,-61.77,36.719,-56.781,0.93849,-32.777,2.115,-54.59,21.501,-101.58
46.222,-47.351,14.686,-30.704,43.499,-54.462,13.757,-61.77,36.719,-56.781,0.93849,-32.777,2.115,-54.59,21.501,-101.58
46.226,-47.452,14.862,-30.923,43.657,-54.747,13.675,-61.924,36.594,-56.824,1.2937,-33.165,2.0543,-54.736,21.781,-102.01
46.229,-47.551,15.039,-31.142,43.814,-55.03,13.594,-62.078,36.469,-56.866,1.6497,-33.553,1.9943,-54.881,22.061,-102.44
46.229,-47.551,15.039,-31.142,43.814,-55.03,13.594,-62.078,36.469,-56.866,1.6497,-33.553,1.9943,-54.881,22.061,-102.44
46.231,-47.649,15.215,-31.361,43.972,-55.314,13.512,-62.23,36.343,-56.907,2.0064,-33.941,1.9347,-55.026,22.343,-102.87
46.231,-47.649,15.215,-31.361,43.972,-55.314,13.512,-62.23,36.343,-56.907,2.0064,-33.941,1.9347,-55.026,22.343,-102.87
46.232,-47.746,15.392,-31.579,44.129,-55.596,13.431,-62.382,36.217,-56.947,2.3639,-34.327,1.8758,-55.17,22.624,-103.3
46.232,-47.746,15.392,-31.579,44.129,-55.596,13.431,-62.382,36.217,-56.947,2.3639,-34.327,1.8758,-55.17,22.624,-103.3
46.232,-47.841,15.569,-31.796,44.286,-55.877,13.35,-62.533,36.089,-56.985,2.7221,-34.713,1.8174,-55.314,22.907,-103.73
46.232,-47.841,15.569,-31.796,44.286,-55.877,13.35,-62.533,36.089,-56.985,2.7221,-34.713,1.8174,-55.314,22.907,-103.73
46.231,-47.935,15.746,-32.013,44.442,-56.157,13.269,-62.683,35.961,-57.022,3.0809,-35.099,1.7596,-55.457,23.191,-104.15
46.231,-47.935,15.746,-32.013,44.442,-56.157,13.269,-62.683,35.961,-57.022,3.0809,-35.099,1.7596,-55.457,23.191,-104.15
46.228,-48.028,15.923,-32.229,44.599,-56.437,13.188,-62.832,35.833,-57.059,3.4405,-35.484,1.7024,-55.599,23.475,-104.58
46.228,-48.028,15.923,-32.229,44.599,-56.437,13.188,-62.832,35.833,-57.059,3.4405,-35.484,1.7024,-55.599,23.475,-104.58
46.228,-48.028,15.923,-32.229,44.599,-56.437,13.188,-62.832,35.833,-57.059,3.4405,-35.484,1.7024,-55.599,23.475,-104.58
46.225,-48.119,16.1,-32.445,44.755,-56.715,13.107,-62.98,35.704,-57.094,3.8006,-35.868,1.6459,-55.741,23.759,-105
46.22,-48.209,16.277,-32.66,44.91,-56.992,13.026,-63.128,35.574,-57.127,4.1615,-36.252,1.5899,-55.882,24.045,-105.42
46.22,-48.209,16.277,-32.66,44.91,-56.992,13.026,-63.128,35.574,-57.127,4.1615,-36.252,1.5899,-55.882,24.045,-105.42
46.214,-48.298,16.455,-32.875,45.066,-57.269,12.945,-63.274,35.443,-57.16,4.5229,-36.634,1.5346,-56.022,24.331,-105.84
46.214,-48.298,16.455,-32.875,45.066,-57.269,12.945,-63.274,35.443,-57.16,4.5229,-36.634,1.5346,-56.022,24.331,-105.84
46.208,-48.386,16.632,-33.088,45.221,-57.544,12.865,-63.42,35.312,-57.192,4.885,-37.017,1.48,-56.162,24.618,-106.25
46.208,-48.386,16.632,-33.088,45.221,-57.544,12.865,-63.42,35.312,-57.192,4.885,-37.017,1.48,-56.162,24.618,-106.25
46.2,-48.472,16.809,-33.302,45.376,-57.818,12.784,-63.564,35.18,-57.222,5.2476,-37.398,1.426,-56.301,24.905,-106.67
46.2,-48.472,16.809,-33.302,45.376,-57.818,12.784,-63.564,35.18,-57.222,5.2476,-37.398,1.426,-56.301,24.905,-106.67
46.2,-48.472,16.809,-33.302,45.376,-57.818,12.784,-63.564,35.18,-57.222,5.2476,-37.398,1.426,-56.301,24.905,-106.67
46.191,-48.557,16.986,-33.514,45.531,-58.092,12.704,-63.708,35.048,-57.251,5.6108,-37.778,1.3727,-56.44,25.194,-107.08
46.191,-48.557,16.986,-33.514,45.531,-58.092,12.704,-63.708,35.048,-57.251,5.6108,-37.778,1.3727,-56.44,25.194,-107.08
46.17,-48.722,17.341,-33.937,45.839,-58.635,12.544,-63.992,34.782,-57.307,6.3389,-38.537,1.2681,-56.715,25.772,-107.9
46.17,-48.722,17.341,-33.937,45.839,-58.635,12.544,-63.992,34.782,-57.307,6.3389,-38.537,1.2681,-56.715,25.772,-107.9
46.157,-48.803,17.518,-34.147,45.993,-58.905,12.465,-64.132,34.648,-57.333,6.7037,-38.915,1.2169,-56.851,26.062,-108.31
46.157,-48.803,17.518,-34.147,45.993,-58.905,12.465,-64.132,34.648,-57.333,6.7037,-38.915,1.2169,-56.851,26.062,-108.31
46.157,-48.803,17.518,-34.147,45.993,-58.905,12.465,-64.132,34.648,-57.333,6.7037,-38.915,1.2169,-56.851,26.062,-108.31
46.144,-48.883,17.695,-34.357,46.146,-59.174,12.385,-64.271,34.514,-57.357,7.0691,-39.292,1.1665,-56.987,26.353,-108.71
46.144,-48.883,17.695,-34.357,46.146,-59.174,12.385,-64.271,34.514,-57.357,7.0691,-39.292,1.1665,-56.987,26.353,-108.71
46.13,-48.961,17.872,-34.566,46.299,-59.442,12.306,-64.41,34.379,-57.381,7.4349,-39.669,1.1167,-57.122,26.645,-109.12
46.13,-48.961,17.872,-34.566,46.299,-59.442,12.306,-64.41,34.379,-57.381,7.4349,-39.669,1.1167,-57.122,26.645,-109.12
46.114,-49.037,18.048,-34.774,46.452,-59.708,12.227,-64.547,34.243,-57.403,7.8011,-40.044,1.0677,-57.256,26.937,-109.52
46.114,-49.037,18.048,-34.774,46.452,-59.708,12.227,-64.547,34.243,-57.403,7.8011,-40.044,1.0677,-57.256,26.937,-109.52
46.097,-49.113,18.225,-34.981,46.605,-59.974,12.148,-64.683,34.108,-57.425,8.1679,-40.419,1.0195,-57.39,27.229,-109.92
46.097,-49.113,18.225,-34.981,46.605,-59.974,12.148,-64.683,34.108,-57.425,8.1679,-40.419,1.0195,-57.39,27.229,-109.92
46.08,-49.187,18.401,-35.187,46.757,-60.238,12.069,-64.817,33.971,-57.445,8.535,-40.792,0.97209,-57.523,27.523,-110.31
46.08,-49.187,18.401,-35.187,46.757,-60.238,12.069,-64.817,33.971,-57.445,8.535,-40.792,0.97209,-57.523,27.523,-110.31
46.08,-49.187,18.401,-35.187,46.757,-60.238,12.069,-64.817,33.971,-57.445,8.535,-40.792,0.97209,-57.523,27.523,-110.31
46.061,-49.26,18.578,-35.393,46.908,-60.501,11.991,-64.951,33.835,-57.464,8.9026,-41.165,0.92544,-57.656,27.817,-110.71
46.061,-49.26,18.578,-35.393,46.908,-60.501,11.991,-64.951,33.835,-57.464,8.9026,-41.165,0.92544,-57.656,27.817,-110.71
46.041,-49.331,18.754,-35.598,47.06,-60.763,11.912,-65.084,33.697,-57.482,9.2705,-41.536,0.87958,-57.787,28.111,-111.1
46.02,-49.401,18.93,-35.801,47.211,-61.024,11.834,-65.215,33.56,-57.499,9.6388,-41.907,0.83454,-57.918,28.407,-111.49
46.02,-49.401,18.93,-35.801,47.211,-61.024,11.834,-65.215,33.56,-57.499,9.6388,-41.907,0.83454,-57.918,28.407,-111.49
45.998,-49.469,19.106,-36.004,47.362,-61.283,11.757,-65.345,33.422,-57.515,10.008,-42.276,0.79032,-58.049,28.702,-111.88
45.998,-49.469,19.106,-36.004,47.362,-61.283,11.757,-65.345,33.422,-57.515,10.008,-42.276,0.79032,-58.049,28.702,-111.88
45.975,-49.536,19.281,-36.206,47.512,-61.541,11.679,-65.473,33.284,-57.53,10.377,-42.645,0.74693,-58.178,28.999,-112.27
45.975,-49.536,19.281,-36.206,47.512,-61.541,11.679,-65.473,33.284,-57.53,10.377,-42.645,0.74693,-58.178,28.999,-112.27
45.95,-49.602,19.456,-36.407,47.662,-61.798,11.602,-65.601,33.145,-57.543,10.746,-43.012,0.70439,-58.307,29.296,-112.65
45.95,-49.602,19.456,-36.407,47.662,-61.798,11.602,-65.601,33.145,-57.543,10.746,-43.012,0.70439,-58.307,29.296,-112.65
45.925,-49.666,19.631,-36.607,47.812,-62.054,11.525,-65.727,33.006,-57.556,11.116,-43.379,0.6627,-58.435,29.593,-113.03
45.925,-49.666,19.631,-36.607,47.812,-62.054,11.525,-65.727,33.006,-57.556,11.116,-43.379,0.6627,-58.435,29.593,-113.03
45.899,-49.729,19.806,-36.806,47.962,-62.308,11.448,-65.852,32.867,-57.567,11.485,-43.744,0.62188,-58.563,29.891,-113.41
45.899,-49.729,19.806,-36.806,47.962,-62.308,11.448,-65.852,32.867,-57.567,11.485,-43.744,0.62188,-58.563,29.891,-113.41
45.899,-49.729,19.806,-36.806,47.962,-62.308,11.448,-65.852,32.867,-57.567,11.485,-43.744,0.62188,-58.563,29.891,-113.41
45.871,-49.791,19.98,-37.004,48.111,-62.561,11.372,-65.975,32.727,-57.577,11.856,-44.108,0.58195,-58.689,30.19,-113.79
45.871,-49.791,19.98,-37.004,48.111,-62.561,11.372,-65.975,32.727,-57.577,11.856,-44.108,0.58195,-58.689,30.19,-113.79
45.871,-49.791,19.98,-37.004,48.111,-62.561,11.372,-65.975,32.727,-57.577,11.856,-44.108,0.58195,-58.689,30.19,-113.79
45.813,-49.909,20.328,-37.397,48.408,-63.064,11.22,-66.218,32.447,-57.595,12.597,-44.833,0.50475,-58.94,30.789,-114.53
45.813,-49.909,20.328,-37.397,48.408,-63.064,11.22,-66.218,32.447,-57.595,12.597,-44.833,0.50475,-58.94,30.789,-114.53
45.813,-49.909,20.328,-37.397,48.408,-63.064,11.22,-66.218,32.447,-57.595,12.597,-44.833,0.50475,-58.94,30.789,-114.53
45.782,-49.967,20.501,-37.591,48.555,-63.313,11.145,-66.338,32.306,-57.602,12.968,-45.193,0.46751,-59.065,31.09,-114.9
45.75,-50.023,20.674,-37.785,48.703,-63.56,11.07,-66.456,32.166,-57.608,13.339,-45.553,0.4312,-59.189,31.39,-115.27
45.75,-50.023,20.674,-37.785,48.703,-63.56,11.07,-66.456,32.166,-57.608,13.339,-45.553,0.4312,-59.189,31.39,-115.27
45.717,-50.077,20.847,-37.978,48.85,-63.807,10.995,-66.572,32.025,-57.613,13.71,-45.911,0.39581,-59.312,31.692,-115.64
45.717,-50.077,20.847,-37.978,48.85,-63.807,10.995,-66.572,32.025,-57.613,13.71,-45.911,0.39581,-59.312,31.692,-115.64
45.683,-50.13,21.019,-38.169,48.997,-64.052,10.92,-66.687,31.883,-57.617,14.081,-46.268,0.36138,-59.434,31.994,-116
45.683,-50.13,21.019,-38.169,48.997,-64.052,10.92,-66.687,31.883,-57.617,14.081,-46.268,0.36138,-59.434,31.994,-116
45.648,-50.181,21.19,-38.36,49.143,-64.295,10.846,-66.801,31.742,-57.62,14.453,-46.623,0.32789,-59.555,32.296,-116.36
45.648,-50.181,21.19,-38.36,49.143,-64.295,10.846,-66.801,31.742,-57.62,14.453,-46.623,0.32789,-59.555,32.296,-116.36
45.648,-50.181,21.19,-38.36,49.143,-64.295,10.846,-66.801,31.742,-57.62,14.453,-46.623,0.32789,-59.555,32.296,-116.36
45.612,-50.232,21.362,-38.549,49.289,-64.537,10.772,-66.913,31.6,-57.621,14.824,-46.978,0.29537,-59.676,32.599,-116.72
45.575,-50.28,21.532,-38.737,49.435,-64.778,10.699,-67.023,31.459,-57.622,15.196,-47.331,0.26383,-59.796,32.902,-117.07
45.575,-50.28,21.532,-38.737,49.435,-64.778,10.699,-67.023,31.459,-57.622,15.196,-47.331,0.26383,-59.796,32.902,-117.07
45.537,-50.327,21.703,-38.924,49.58,-65.017,10.626,-67.132,31.317,-57.622,15.568,-47.682,0.23326,-59.915,33.206,-117.43
45.537,-50.327,21.703,-38.924,49.58,-65.017,10.626,-67.132,31.317,-57.622,15.568,-47.682,0.23326,-59.915,33.206,-117.43
45.498,-50.373,21.872,-39.109,49.724,-65.255,10.553,-67.24,31.175,-57.621,15.94,-48.033,0.2037,-60.034,33.511,-117.78
45.498,-50.373,21.872,-39.109,49.724,-65.255,10.553,-67.24,31.175,-57.621,15.94,-48.033,0.2037,-60.034,33.511,-117.78
45.457,-50.418,22.042,-39.294,49.869,-65.492,10.481,-67.346,31.033,-57.618,16.312,-48.382,0.17514,-60.152,33.815,-118.12
45.457,-50.418,22.042,-39.294,49.869,-65.492,10.481,-67.346,31.033,-57.618,16.312,-48.382,0.17514,-60.152,33.815,-118.12
45.457,-50.418,22.042,-39.294,49.869,-65.492,10.481,-67.346,31.033,-57.618,16.312,-48.382,0.17514,-60.152,33.815,-118.12
45.416,-50.46,22.21,-39.477,50.013,-65.726,10.409,-67.45,30.89,-57.615,16.684,-48.729,0.14759,-60.268,34.121,-118.47
45.374,-50.502,22.379,-39.659,50.156,-65.96,10.338,-67.553,30.748,-57.61,17.056,-49.075,0.12106,-60.385,34.426,-118.81
45.374,-50.502,22.379,-39.659,50.156,-65.96,10.338,-67.553,30.748,-57.61,17.056,-49.075,0.12106,-60.385,34.426,-118.81
45.33,-50.542,22.546,-39.84,50.299,-66.192,10.266,-67.654,30.605,-57.605,17.428,-49.42,0.095571,-60.5,34.733,-119.15
45.33,-50.542,22.546,-39.84,50.299,-66.192,10.266,-67.654,30.605,-57.605,17.428,-49.42,0.095571,-60.5,34.733,-119.15
45.33,-50.542,22.546,-39.84,50.299,-66.192,10.266,-67.654,30.605,-57.605,17.428,-49.42,0.095571,-60.5,34.733,-119.15
45.33,-50.542,22.546,-39.84,50.299,-66.192,10.266,-67.654,30.605,-57.605,17.428,-49.42,0.095571,-60.5,34.733,-119.15
45.24,-50.617,22.88,-40.197,50.584,-66.651,10.125,-67.851,30.32,-57.591,18.172,-50.105,0.047727,-60.728,35.346,-119.82
45.24,-50.617,22.88,-40.197,50.584,-66.651,10.125,-67.851,30.32,-57.591,18.172,-50.105,0.047727,-60.728,35.346,-119.82
45.193,-50.653,23.045,-40.374,50.726,-66.878,10.056,-67.947,30.178,-57.583,18.543,-50.445,0.025392,-60.841,35.654,-120.15
45.193,-50.653,23.045,-40.374,50.726,-66.878,10.056,-67.947,30.178,-57.583,18.543,-50.445,0.025392,-60.841,35.654,-120.15
45.193,-50.653,23.045,-40.374,50.726,-66.878,10.056,-67.947,30.178,-57.583,18.543,-50.445,0.025392,-60.841,35.654,-120.15
45.146,-50.687,23.21,-40.549,50.867,-67.103,9.986,-68.041,30.035,-57.573,18.915,-50.784,0.0041274,-60.953,35.962,-120.48
45.146,-50.687,23.21,-40.549,50.867,-67.103,9.986,-68.041,30.035,-57.573,18.915,-50.784,0.0041274,-60.953,35.962,-120.48
45.047,-50.751,23.539,-40.895,51.148,-67.55,9.8484,-68.225,29.75,-57.551,19.658,-51.457,-0.035155,-61.175,36.578,-121.13
45.047,-50.751,23.539,-40.895,51.148,-67.55,9.8484,-68.225,29.75,-57.551,19.658,-51.457,-0.035155,-61.175,36.578,-121.13
45.047,-50.751,23.539,-40.895,51.148,-67.55,9.8484,-68.225,29.75,-57.551,19.658,-51.457,-0.035155,-61.175,36.578,-121.13
44.997,-50.781,23.702,-41.067,51.288,-67.771,9.7803,-68.314,29.607,-57.539,20.03,-51.791,-0.053156,-61.285,36.887,-121.45
44.997,-50.781,23.702,-41.067,51.288,-67.771,9.7803,-68.314,29.607,-57.539,20.03,-51.791,-0.053156,-61.285,36.887,-121.45
44.945,-50.809,23.864,-41.236,51.427,-67.99,9.7126,-68.401,29.465,-57.525,20.401,-52.124,-0.070051,-61.394,37.197,-121.77
