-98.53,107.99,-85.829,94.992,-47.573,63.768,-33.982,26.118,-91.141,39.582,-77.738,76.112,-124.23,134.87,-76.743,59.611
-98.53,107.99,-85.829,94.992,-47.573,63.768,-33.982,26.118,-91.141,39.582,-77.738,76.112,-124.23,134.87,-76.743,59.611
-98.86,108.52,-86.083,95.574,-47.816,64.24,-34.055,26.507,-91.388,40.134,-77.975,76.634,-124.64,135.71,-76.987,60.133
-98.86,108.52,-86.083,95.574,-47.816,64.24,-34.055,26.507,-91.388,40.134,-77.975,76.634,-124.64,135.71,-76.987,60.133
-98.86,108.52,-86.083,95.574,-47.816,64.24,-34.055,26.507,-91.388,40.134,-77.975,76.634,-124.64,135.71,-76.987,60.133
-99.19,109.06,-86.336,96.156,-48.06,64.712,-34.128,26.897,-91.633,40.688,-78.212,77.157,-125.05,136.54,-77.229,60.656
-99.19,109.06,-86.336,96.156,-48.06,64.712,-34.128,26.897,-91.633,40.688,-78.212,77.157,-125.05,136.54,-77.229,60.656
-99.19,109.06,-86.336,96.156,-48.06,64.712,-34.128,26.897,-91.633,40.688,-78.212,77.157,-125.05,136.54,-77.229,60.656
-99.85,110.14,-86.842,97.323,-48.547,65.659,-34.273,27.681,-92.12,41.802,-78.684,78.205,-125.87,138.22,-77.713,61.705
-99.85,110.14,-86.842,97.323,-48.547,65.659,-34.273,27.681,-92.12,41.802,-78.684,78.205,-125.87,138.22,-77.713,61.705
-100.18,110.68,-87.095,97.907,-48.79,66.134,-34.346,28.074,-92.361,42.362,-78.92,78.731,-126.28,139.06,-77.954,62.231
-100.18,110.68,-87.095,97.907,-48.79,66.134,-34.346,28.074,-92.361,42.362,-78.92,78.731,-126.28,139.06,-77.954,62.231
-100.51,111.22,-87.348,98.491,-49.033,66.609,-34.417,28.468,-92.6,42.924,-79.155,79.258,-126.68,139.9,-78.195,62.758
-100.51,111.22,-87.348,98.491,-49.033,66.609,-34.417,28.468,-92.6,42.924,-79.155,79.258,-126.68,139.9,-78.195,62.758
-100.84,111.77,-87.601,99.076,-49.277,67.085,-34.489,28.863,-92.838,43.488,-79.39,79.786,-127.09,140.75,-78.436,63.287
-100.84,111.77,-87.601,99.076,-49.277,67.085,-34.489,28.863,-92.838,43.488,-79.39,79.786,-127.09,140.75,-78.436,63.287
-101.17,112.31,-87.853,99.662,-49.52,67.561,-34.561,29.259,-93.075,44.055,-79.625,80.315,-127.49,141.59,-78.676,63.816
-101.5,112.85,-88.106,100.25,-49.763,68.038,-34.632,29.655,-93.311,44.623,-79.859,80.846,-127.9,142.44,-78.915,64.347
-101.5,112.85,-88.106,100.25,-49.763,68.038,-34.632,29.655,-93.311,44.623,-79.859,80.846,-127.9,142.44,-78.915,64.347
-101.5,112.85,-88.106,100.25,-49.763,68.038,-34.632,29.655,-93.311,44.623,-79.859,80.846,-127.9,142.44,-78.915,64.347
-101.83,113.39,-88.358,100.84,-50.006,68.516,-34.703,30.053,-93.544,45.194,-80.093,81.377,-128.3,143.29,-79.154,64.878
-101.83,113.39,-88.358,100.84,-50.006,68.516,-34.703,30.053,-93.544,45.194,-80.093,81.377,-128.3,143.29,-79.154,64.878
-101.83,113.39,-88.358,100.84,-50.006,68.516,-34.703,30.053,-93.544,45.194,-80.093,81.377,-128.3,143.29,-79.154,64.878
-102.16,113.93,-88.61,101.42,-50.249,68.995,-34.773,30.452,-93.777,45.766,-80.327,81.91,-128.71,144.13,-79.393,65.411
-102.16,113.93,-88.61,101.42,-50.249,68.995,-34.773,30.452,-93.777,45.766,-80.327,81.91,-128.71,144.13,-79.393,65.411
-102.49,114.48,-88.862,102.01,-50.492,69.474,-34.844,30.851,-94.008,46.341,-80.56,82.443,-129.11,144.98,-79.631,65.945
-102.49,114.48,-88.862,102.01,-50.492,69.474,-34.844,30.851,-94.008,46.341,-80.56,82.443,-129.11,144.98,-79.631,65.945
-102.49,114.48,-88.862,102.01,-50.492,69.474,-34.844,30.851,-94.008,46.341,-80.56,82.443,-129.11,144.98,-79.631,65.945
-103.15,115.57,-89.366,103.19,-50.977,70.434,-34.983,31.653,-94.466,47.497,-81.025,83.514,-129.91,146.69,-80.106,67.015
-103.15,115.57,-89.366,103.19,-50.977,70.434,-34.983,31.653,-94.466,47.497,-81.025,83.514,-129.91,146.69,-80.106,67.015
-103.15,115.57,-89.366,103.19,-50.977,70.434,-34.983,31.653,-94.466,47.497,-81.025,83.514,-129.91,146.69,-80.106,67.015
-103.48,116.11,-89.618,103.78,-51.22,70.915,-35.053,32.055,-94.692,48.078,-81.257,84.051,-130.31,147.54,-80.343,67.552
-103.81,116.65,-89.869,104.37,-51.463,71.397,-35.122,32.458,-94.918,48.661,-81.489,84.589,-130.71,148.4,-80.579,68.09
-103.81,116.65,-89.869,104.37,-51.463,71.397,-35.122,32.458,-94.918,48.661,-81.489,84.589,-130.71,148.4,-80.579,68.09
-104.13,117.2,-90.121,104.96,-51.705,71.879,-35.191,32.861,-95.142,49.246,-81.721,85.128,-131.11,149.25,-80.815,68.629
-104.13,117.2,-90.121,104.96,-51.705,71.879,-35.191,32.861,-95.142,49.246,-81.721,85.128,-131.11,149.25,-80.815,68.629
-104.13,117.2,-90.121,104.96,-51.705,71.879,-35.191,32.861,-95.142,49.246,-81.721,85.128,-131.11,149.25,-80.815,68.629
-104.13,117.2,-90.121,104.96,-51.705,71.879,-35.191,32.861,-95.142,49.246,-81.721,85.128,-131.11,149.25,-80.815,68.629
-104.79,118.29,-90.623,106.14,-52.19,72.846,-35.328,33.672,-95.585,50.423,-82.182,86.21,-131.91,150.97,-81.286,69.711
-104.79,118.29,-90.623,106.14,-52.19,72.846,-35.328,33.672,-95.585,50.423,-82.182,86.21,-131.91,150.97,-81.286,69.711
-105.12,118.84,-90.874,106.74,-52.433,73.33,-35.397,34.078,-95.805,51.015,-82.413,86.752,-132.31,151.83,-81.52,70.253
-105.12,118.84,-90.874,106.74,-52.433,73.33,-35.397,34.078,-95.805,51.015,-82.413,86.752,-132.31,151.83,-81.52,70.253
-105.45,119.38,-91.125,107.33,-52.675,73.814,-35.465,34.485,-96.023,51.609,-82.642,87.296,-132.7,152.69,-81.754,70.797
-105.45,119.38,-91.125,107.33,-52.675,73.814,-35.465,34.485,-96.023,51.609,-82.642,87.296,-132.7,152.69,-81.754,70.797
-105.78,119.93,-91.376,107.92,-52.918,74.3,-35.532,34.893,-96.24,52.205,-82.872,87.841,-133.1,153.56,-81.988,71.341
-105.78,119.93,-91.376,107.92,-52.918,74.3,-35.532,34.893,-96.24,52.205,-82.872,87.841,-133.1,153.56,-81.988,71.341
-106.11,120.48,-91.627,108.52,-53.16,74.786,-35.6,35.302,-96.455,52.803,-83.101,88.386,-133.49,154.42,-82.221,71.887
-106.44,121.03,-91.877,109.11,-53.402,75.273,-35.667,35.712,-96.669,53.403,-83.33,88.933,-133.89,155.29,-82.454,72.434
-106.44,121.03,-91.877,109.11,-53.402,75.273,-35.667,35.712,-96.669,53.403,-83.33,88.933,-133.89,155.29,-82.454,72.434
-106.44,121.03,-91.877,109.11,-53.402,75.273,-35.667,35.712,-96.669,53.403,-83.33,88.933,-133.89,155.29,-82.454,72.434
-106.77,121.57,-92.128,109.71,-53.644,75.76,-35.734,36.123,-96.881,54.005,-83.558,89.482,-134.28,156.15,-82.686,72.982
-106.77,121.57,-92.128,109.71,-53.644,75.76,-35.734,36.123,-96.881,54.005,-83.558,89.482,-134.28,156.15,-82.686,72.982
-107.1,122.12,-92.378,110.3,-53.886,76.248,-35.8,36.534,-97.092,54.609,-83.786,90.031,-134.68,157.02,-82.918,73.53
-107.1,122.12,-92.378,110.3,-53.886,76.248,-35.8,36.534,-97.092,54.609,-83.786,90.031,-134.68,157.02,-82.918,73.53
-107.43,122.67,-92.628,110.9,-54.128,76.736,-35.867,36.947,-97.302,55.216,-84.013,90.581,-135.07,157.89,-83.149,74.08
-107.76,123.22,-92.878,111.49,-54.37,77.225,-35.933,37.36,-97.51,55.824,-84.24,91.133,-135.46,158.76,-83.38,74.632
-107.76,123.22,-92.878,111.49,-54.37,77.225,-35.933,37.36,-97.51,55.824,-84.24,91.133,-135.46,158.76,-83.38,74.632
-107.76,123.22,-92.878,111.49,-54.37,77.225,-35.933,37.36,-97.51,55.824,-84.24,91.133,-135.46,158.76,-83.38,74.632
-108.09,123.77,-93.128,112.09,-54.612,77.715,-35.999,37.774,-97.717,56.435,-84.466,91.685,-135.85,159.63,-83.61,75.184
-108.09,123.77,-93.128,112.09,-54.612,77.715,-35.999,37.774,-97.717,56.435,-84.466,91.685,-135.85,159.63,-83.61,75.184
-108.42,124.32,-93.378,112.69,-54.854,78.205,-36.065,38.188,-97.922,57.048,-84.692,92.239,-136.24,160.51,-83.84,75.737
-108.42,124.32,-93.378,112.69,-54.854,78.205,-36.065,38.188,-97.922,57.048,-84.692,92.239,-136.24,160.51,-83.84,75.737
-108.74,124.87,-93.628,113.29,-55.095,78.696,-36.13,38.604,-98.126,57.663,-84.918,92.794,-136.63,161.38,-84.069,76.291
-108.74,124.87,-93.628,113.29,-55.095,78.696,-36.13,38.604,-98.126,57.663,-84.918,92.794,-136.63,161.38,-84.069,76.291
-109.07,125.42,-93.878,113.89,-55.337,79.187,-36.195,39.02,-98.329,58.28,-85.143,93.35,-137.02,162.26,-84.298,76.847
-109.07,125.42,-93.878,113.89,-55.337,79.187,-36.195,39.02,-98.329,58.28,-85.143,93.35,-137.02,162.26,-84.298,76.847
-109.4,125.97,-94.127,114.49,-55.579,79.679,-36.26,39.437,-98.53,58.899,-85.368,93.907,-137.41,163.13,-84.527,77.403
-109.4,125.97,-94.127,114.49,-55.579,79.679,-36.26,39.437,-98.53,58.899,-85.368,93.907,-137.41,163.13,-84.527,77.403
-109.73,126.52,-94.377,115.09,-55.82,80.171,-36.325,39.855,-98.729,59.52,-85.592,94.465,-137.8,164.01,-84.755,77.961
-109.73,126.52,-94.377,115.09,-55.82,80.171,-36.325,39.855,-98.729,59.52,-85.592,94.465,-137.8,164.01,-84.755,77.961
-109.73,126.52,-94.377,115.09,-55.82,80.171,-36.325,39.855,-98.729,59.52,-85.592,94.465,-137.8,164.01,-84.755,77.961
-110.06,127.07,-94.626,115.69,-56.062,80.664,-36.39,40.274,-98.928,60.144,-85.816,95.024,-138.18,164.89,-84.982,78.519
-110.06,127.07,-94.626,115.69,-56.062,80.664,-36.39,40.274,-98.928,60.144,-85.816,95.024,-138.18,164.89,-84.982,78.519
-110.39,127.63,-94.875,116.29,-56.303,81.158,-36.454,40.693,-99.125,60.769,-86.04,95.585,-138.57,165.77,-85.209,79.079
-110.39,127.63,-94.875,116.29,-56.303,81.158,-36.454,40.693,-99.125,60.769,-86.04,95.585,-138.57,165.77,-85.209,79.079
-111.05,128.73,-95.373,117.49,-56.786,82.147,-36.582,41.534,-99.514,62.027,-86.485,96.709,-139.34,167.54,-85.662,80.202
-111.05,128.73,-95.373,117.49,-56.786,82.147,-36.582,41.534,-99.514,62.027,-86.485,96.709,-139.34,167.54,-85.662,80.202
-111.05,128.73,-95.373,117.49,-56.786,82.147,-36.582,41.534,-99.514,62.027,-86.485,96.709,-139.34,167.54,-85.662,80.202
-111.05,128.73,-95.373,117.49,-56.786,82.147,-36.582,41.534,-99.514,62.027,-86.485,96.709,-139.34,167.54,-85.662,80.202
-111.38,129.28,-95.622,118.09,-57.027,82.642,-36.645,41.956,-99.707,62.658,-86.707,97.273,-139.73,168.42,-85.887,80.765
-111.38,129.28,-95.622,118.09,-57.027,82.642,-36.645,41.956,-99.707,62.658,-86.707,97.273,-139.73,168.42,-85.887,80.765
-111.38,129.28,-95.622,118.09,-57.027,82.642,-36.645,41.956,-99.707,62.658,-86.707,97.273,-139.73,168.42,-85.887,80.765
-112.03,130.39,-96.119,119.3,-57.51,83.634,-36.772,42.801,-100.09,63.928,-87.149,98.404,-140.49,170.2,-86.337,81.894
-112.03,130.39,-96.119,119.3,-57.51,83.634,-36.772,42.801,-100.09,63.928,-87.149,98.404,-140.49,170.2,-86.337,81.894
-112.36,130.94,-96.368,119.9,-57.751,84.131,-36.835,43.225,-100.28,64.567,-87.37,98.971,-140.88,171.09,-86.561,82.46
-112.36,130.94,-96.368,119.9,-57.751,84.131,-36.835,43.225,-100.28,64.567,-87.37,98.971,-140.88,171.09,-86.561,82.46
-112.69,131.5,-96.616,120.51,-57.992,84.628,-36.898,43.65,-100.46,65.207,-87.59,99.539,-141.26,171.97,-86.784,83.027
-113.02,132.05,-96.864,121.11,-58.233,85.126,-36.96,44.075,-100.65,65.849,-87.81,100.11,-141.64,172.87,-87.007,83.596
-113.02,132.05,-96.864,121.11,-58.233,85.126,-36.96,44.075,-100.65,65.849,-87.81,100.11,-141.64,172.87,-87.007,83.596
-113.02,132.05,-96.864,121.11,-58.233,85.126,-36.96,44.075,-100.65,65.849,-87.81,100.11,-141.64,172.87,-87.007,83.596
-113.35,132.6,-97.113,121.71,-58.474,85.625,-37.023,44.501,-100.83,66.494,-88.029,100.68,-142.02,173.76,-87.23,84.165
-113.35,132.6,-97.113,121.71,-58.474,85.625,-37.023,44.501,-100.83,66.494,-88.029,100.68,-142.02,173.76,-87.23,84.165
-113.68,133.16,-97.361,122.32,-58.715,86.123,-37.085,44.928,-101.02,67.141,-88.247,101.25,-142.4,174.65,-87.452,84.736
-113.68,133.16,-97.361,122.32,-58.715,86.123,-37.085,44.928,-101.02,67.141,-88.247,101.25,-142.4,174.65,-87.452,84.736
-113.68,133.16,-97.361,122.32,-58.715,86.123,-37.085,44.928,-101.02,67.141,-88.247,101.25,-142.4,174.65,-87.452,84.736
-114.01,133.71,-97.609,122.93,-58.956,86.623,-37.147,45.355,-101.2,67.789,-88.465,101.82,-142.78,175.55,-87.674,85.307
-114.34,134.27,-97.856,123.53,-59.197,87.123,-37.208,45.784,-101.38,68.44,-88.683,102.4,-143.16,176.44,-87.895,85.88
-114.66,134.82,-98.104,124.14,-59.437,87.623,-37.27,46.212,-101.56,69.093,-88.9,102.97,-143.54,177.34,-88.116,86.453
-114.66,134.82,-98.104,124.14,-59.437,87.623,-37.27,46.212,-101.56,69.093,-88.9,102.97,-143.54,177.34,-88.116,86.453
-114.66,134.82,-98.104,124.14,-59.437,87.623,-37.27,46.212,-101.56,69.093,-88.9,102.97,-143.54,177.34,-88.116,86.453
-114.99,135.38,-98.352,124.75,-59.678,88.124,-37.331,46.642,-101.74,69.748,-89.117,103.55,-143.91,178.24,-88.336,87.028
-114.99,135.38,-98.352,124.75,-59.678,88.124,-37.331,46.642,-101.74,69.748,-89.117,103.55,-143.91,178.24,-88.336,87.028
-114.99,135.38,-98.352,124.75,-59.678,88.124,-37.331,46.642,-101.74,69.748,-89.117,103.55,-143.91,178.24,-88.336,87.028
-115.32,135.93,-98.6,125.35,-59.919,88.625,-37.392,47.072,-101.91,70.406,-89.333,104.13,-144.29,179.14,-88.555,87.604
-115.32,135.93,-98.6,125.35,-59.919,88.625,-37.392,47.072,-101.91,70.406,-89.333,104.13,-144.29,179.14,-88.555,87.604
-115.65,136.49,-98.847,125.96,-60.16,89.127,-37.453,47.503,-102.09,71.065,-89.548,104.7,-144.67,180.04,-88.775,88.181
-115.65,136.49,-98.847,125.96,-60.16,89.127,-37.453,47.503,-102.09,71.065,-89.548,104.7,-144.67,180.04,-88.775,88.181
-115.65,136.49,-98.847,125.96,-60.16,89.127,-37.453,47.503,-102.09,71.065,-89.548,104.7,-144.67,180.04,-88.775,88.181
-116.31,137.6,-99.342,127.18,-60.641,90.132,-37.575,48.366,-102.43,72.39,-89.978,105.86,-145.42,181.84,-89.212,89.338
-116.31,137.6,-99.342,127.18,-60.641,90.132,-37.575,48.366,-102.43,72.39,-89.978,105.86,-145.42,181.84,-89.212,89.338
-116.64,138.16,-99.589,127.79,-60.881,90.636,-37.635,48.799,-102.6,73.055,-90.192,106.45,-145.79,182.74,-89.429,89.918
-116.64,138.16,-99.589,127.79,-60.881,90.636,-37.635,48.799,-102.6,73.055,-90.192,106.45,-145.79,182.74,-89.429,89.918
-116.64,138.16,-99.589,127.79,-60.881,90.636,-37.635,48.799,-102.6,73.055,-90.192,106.45,-145.79,182.74,-89.429,89.918
-116.97,138.71,-99.836,128.4,-61.122,91.139,-37.695,49.233,-102.77,73.723,-90.406,107.03,-146.16,183.65,-89.647,90.499
-116.97,138.71,-99.836,128.4,-61.122,91.139,-37.695,49.233,-102.77,73.723,-90.406,107.03,-146.16,183.65,-89.647,90.499
-117.29,139.27,-100.08,129.01,-61.362,91.644,-37.755,49.666,-102.94,74.393,-90.619,107.61,-146.54,184.56,-89.864,91.081
-117.62,139.83,-100.33,129.62,-61.603,92.148,-37.815,50.101,-103.11,75.065,-90.831,108.2,-146.91,185.46,-90.08,91.665
-117.62,139.83,-100.33,129.62,-61.603,92.148,-37.815,50.101,-103.11,75.065,-90.831,108.2,-146.91,185.46,-90.08,91.665
-117.95,140.38,-100.58,130.23,-61.843,92.653,-37.875,50.536,-103.27,75.739,-91.043,108.78,-147.28,186.37,-90.296,92.249
-117.95,140.38,-100.58,130.23,-61.843,92.653,-37.875,50.536,-103.27,75.739,-91.043,108.78,-147.28,186.37,-90.296,92.249
-117.95,140.38,-100.58,130.23,-61.843,92.653,-37.875,50.536,-103.27,75.739,-91.043,108.78,-147.28,186.37,-90.296,92.249
-117.95,140.38,-100.58,130.23,-61.843,92.653,-37.875,50.536,-103.27,75.739,-91.043,108.78,-147.28,186.37,-90.296,92.249
-118.61,141.5,-101.07,131.45,-62.324,93.665,-37.994,51.409,-103.6,77.093,-91.465,109.96,-148.02,188.19,-90.726,93.421
-118.61,141.5,-101.07,131.45,-62.324,93.665,-37.994,51.409,-103.6,77.093,-91.465,109.96,-148.02,188.19,-90.726,93.421
-118.94,142.06,-101.32,132.07,-62.564,94.171,-38.053,51.846,-103.76,77.773,-91.676,110.55,-148.39,189.11,-90.94,94.008
-118.94,142.06,-101.32,132.07,-62.564,94.171,-38.053,51.846,-103.76,77.773,-91.676,110.55,-148.39,189.11,-90.94,94.008
-119.27,142.61,-101.56,132.68,-62.805,94.678,-38.112,52.283,-103.92,78.455,-91.886,111.14,-148.76,190.02,-91.154,94.597
-119.27,142.61,-101.56,132.68,-62.805,94.678,-38.112,52.283,-103.92,78.455,-91.886,111.14,-148.76,190.02,-91.154,94.597
-119.59,143.17,-101.81,133.29,-63.045,95.185,-38.171,52.721,-104.08,79.139,-92.095,111.73,-149.13,190.93,-91.368,95.186
-119.59,143.17,-101.81,133.29,-63.045,95.185,-38.171,52.721,-104.08,79.139,-92.095,111.73,-149.13,190.93,-91.368,95.186
-119.92,143.73,-102.06,133.9,-63.285,95.693,-38.23,53.16,-104.24,79.826,-92.304,112.32,-149.5,191.85,-91.581,95.777
-119.92,143.73,-102.06,133.9,-63.285,95.693,-38.23,53.16,-104.24,79.826,-92.304,112.32,-149.5,191.85,-91.581,95.777
-119.92,143.73,-102.06,133.9,-63.285,95.693,-38.23,53.16,-104.24,79.826,-92.304,112.32,-149.5,191.85,-91.581,95.777
-120.25,144.29,-102.3,134.52,-63.525,96.201,-38.289,53.599,-104.39,80.514,-92.512,112.92,-149.87,192.77,-91.793,96.368
-120.25,144.29,-102.3,134.52,-63.525,96.201,-38.289,53.599,-104.39,80.514,-92.512,112.92,-149.87,192.77,-91.793,96.368
-120.58,144.85,-102.55,135.13,-63.766,96.709,-38.347,54.039,-104.55,81.205,-92.719,113.51,-150.23,193.69,-92.005,96.961
-120.91,145.4,-102.79,135.75,-64.006,97.218,-38.405,54.479,-104.7,81.897,-92.927,114.11,-150.6,194.6,-92.217,97.555
-121.24,145.96,-103.04,136.36,-64.246,97.727,-38.464,54.92,-104.86,82.592,-93.133,114.7,-150.96,195.53,-92.428,98.149
-121.24,145.96,-103.04,136.36,-64.246,97.727,-38.464,54.92,-104.86,82.592,-93.133,114.7,-150.96,195.53,-92.428,98.149
-121.24,145.96,-103.04,136.36,-64.246,97.727,-38.464,54.92,-104.86,82.592,-93.133,114.7,-150.96,195.53,-92.428,98.149
-121.57,146.52,-103.29,136.98,-64.486,98.237,-38.522,55.361,-105.01,83.288,-93.339,115.3,-151.33,196.45,-92.638,98.745
-121.57,146.52,-103.29,136.98,-64.486,98.237,-38.522,55.361,-105.01,83.288,-93.339,115.3,-151.33,196.45,-92.638,98.745
-121.89,147.08,-103.53,137.59,-64.726,98.746,-38.58,55.803,-105.16,83.987,-93.545,115.9,-151.69,197.37,-92.848,99.342
-121.89,147.08,-103.53,137.59,-64.726,98.746,-38.58,55.803,-105.16,83.987,-93.545,115.9,-151.69,197.37,-92.848,99.342
-122.22,147.64,-103.78,138.21,-64.966,99.257,-38.638,56.246,-105.31,84.688,-93.75,116.5,-152.06,198.29,-93.058,99.939
-122.22,147.64,-103.78,138.21,-64.966,99.257,-38.638,56.246,-105.31,84.688,-93.75,116.5,-152.06,198.29,-93.058,99.939
-122.55,148.2,-104.02,138.82,-65.207,99.767,-38.695,56.688,-105.45,85.39,-93.954,117.1,-152.42,199.22,-93.267,100.54
-122.55,148.2,-104.02,138.82,-65.207,99.767,-38.695,56.688,-105.45,85.39,-93.954,117.1,-152.42,199.22,-93.267,100.54
-122.88,148.76,-104.27,139.44,-65.447,100.28,-38.753,57.132,-105.6,86.095,-94.158,117.71,-152.78,200.14,-93.476,101.14
-122.88,148.76,-104.27,139.44,-65.447,100.28,-38.753,57.132,-105.6,86.095,-94.158,117.71,-152.78,200.14,-93.476,101.14
-123.21,149.31,-104.52,140.06,-65.687,100.79,-38.81,57.576,-105.74,86.802,-94.361,118.31,-153.14,201.07,-93.684,101.74
-123.21,149.31,-104.52,140.06,-65.687,100.79,-38.81,57.576,-105.74,86.802,-94.361,118.31,-153.14,201.07,-93.684,101.74
-123.21,149.31,-104.52,140.06,-65.687,100.79,-38.81,57.576,-105.74,86.802,-94.361,118.31,-153.14,201.07,-93.684,101.74
-123.54,149.87,-104.76,140.67,-65.927,101.3,-38.868,58.02,-105.89,87.511,-94.564,118.91,-153.5,202,-93.892,102.34
-123.54,149.87,-104.76,140.67,-65.927,101.3,-38.868,58.02,-105.89,87.511,-94.564,118.91,-153.5,202,-93.892,102.34
-123.87,150.43,-105.01,141.29,-66.167,101.81,-38.925,58.465,-106.03,88.222,-94.766,119.52,-153.87,202.93,-94.099,102.94
-123.87,150.43,-105.01,141.29,-66.167,101.81,-38.925,58.465,-106.03,88.222,-94.766,119.52,-153.87,202.93,-94.099,102.94
-124.19,150.99,-105.25,141.91,-66.407,102.33,-38.982,58.91,-106.17,88.935,-94.968,120.12,-154.23,203.86,-94.306,103.55
-124.19,150.99,-105.25,141.91,-66.407,102.33,-38.982,58.91,-106.17,88.935,-94.968,120.12,-154.23,203.86,-94.306,103.55
-124.52,151.55,-105.5,142.53,-66.647,102.84,-39.039,59.355,-106.31,89.65,-95.169,120.73,-154.58,204.79,-94.513,104.15
-124.52,151.55,-105.5,142.53,-66.647,102.84,-39.039,59.355,-106.31,89.65,-95.169,120.73,-154.58,204.79,-94.513,104.15
-124.52,151.55,-105.5,142.53,-66.647,102.84,-39.039,59.355,-106.31,89.65,-95.169,120.73,-154.58,204.79,-94.513,104.15
-125.18,152.67,-105.99,143.76,-67.127,103.86,-39.153,60.248,-106.59,91.085,-95.569,121.95,-155.3,206.65,-94.924,105.36
-125.18,152.67,-105.99,143.76,-67.127,103.86,-39.153,60.248,-106.59,91.085,-95.569,121.95,-155.3,206.65,-94.924,105.36
-125.18,152.67,-105.99,143.76,-67.127,103.86,-39.153,60.248,-106.59,91.085,-95.569,121.95,-155.3,206.65,-94.924,105.36
-125.51,153.23,-106.23,144.38,-67.367,104.38,-39.21,60.695,-106.72,91.806,-95.768,122.56,-155.66,207.59,-95.129,105.97
-125.84,153.79,-106.48,145,-67.608,104.89,-39.267,61.142,-106.86,92.529,-95.967,123.17,-156.02,208.52,-95.334,106.58
-126.16,154.35,-106.72,145.62,-67.848,105.41,-39.323,61.59,-106.99,93.254,-96.166,123.79,-156.37,209.46,-95.538,107.19
-126.16,154.35,-106.72,145.62,-67.848,105.41,-39.323,61.59,-106.99,93.254,-96.166,123.79,-156.37,209.46,-95.538,107.19
-126.16,154.35,-106.72,145.62,-67.848,105.41,-39.323,61.59,-106.99,93.254,-96.166,123.79,-156.37,209.46,-95.538,107.19
-126.49,154.91,-106.97,146.24,-68.088,105.92,-39.38,62.038,-107.13,93.981,-96.363,124.4,-156.73,210.4,-95.742,107.8
-126.49,154.91,-106.97,146.24,-68.088,105.92,-39.38,62.038,-107.13,93.981,-96.363,124.4,-156.73,210.4,-95.742,107.8
-126.49,154.91,-106.97,146.24,-68.088,105.92,-39.38,62.038,-107.13,93.981,-96.363,124.4,-156.73,210.4,-95.742,107.8
-126.82,155.47,-107.21,146.86,-68.328,106.44,-39.436,62.486,-107.26,94.709,-96.56,125.01,-157.09,211.34,-95.945,108.41
-126.82,155.47,-107.21,146.86,-68.328,106.44,-39.436,62.486,-107.26,94.709,-96.56,125.01,-157.09,211.34,-95.945,108.41
-126.82,155.47,-107.21,146.86,-68.328,106.44,-39.436,62.486,-107.26,94.709,-96.56,125.01,-157.09,211.34,-95.945,108.41
-127.48,156.59,-107.7,148.1,-68.808,107.47,-39.549,63.384,-107.52,96.173,-96.953,126.25,-157.79,213.22,-96.35,109.64
-127.81,157.15,-107.95,148.72,-69.048,107.98,-39.605,63.834,-107.65,96.908,-97.149,126.86,-158.15,214.16,-96.552,110.25
-127.81,157.15,-107.95,148.72,-69.048,107.98,-39.605,63.834,-107.65,96.908,-97.149,126.86,-158.15,214.16,-96.552,110.25
-127.81,157.15,-107.95,148.72,-69.048,107.98,-39.605,63.834,-107.65,96.908,-97.149,126.86,-158.15,214.16,-96.552,110.25
-128.14,157.71,-108.19,149.34,-69.289,108.5,-39.661,64.283,-107.77,97.644,-97.344,127.48,-158.5,215.1,-96.753,110.87
-128.14,157.71,-108.19,149.34,-69.289,108.5,-39.661,64.283,-107.77,97.644,-97.344,127.48,-158.5,215.1,-96.753,110.87
-128.46,158.27,-108.44,149.96,-69.529,109.01,-39.718,64.734,-107.9,98.383,-97.538,128.1,-158.86,216.04,-96.954,111.49
-128.46,158.27,-108.44,149.96,-69.529,109.01,-39.718,64.734,-107.9,98.383,-97.538,128.1,-158.86,216.04,-96.954,111.49
-128.46,158.27,-108.44,149.96,-69.529,109.01,-39.718,64.734,-107.9,98.383,-97.538,128.1,-158.86,216.04,-96.954,111.49
-128.79,158.83,-108.68,150.59,-69.769,109.53,-39.774,65.184,-108.03,99.123,-97.732,128.72,-159.21,216.99,-97.155,112.1
-129.12,159.39,-108.93,151.21,-70.009,110.05,-39.83,65.635,-108.15,99.866,-97.925,129.35,-159.56,217.93,-97.355,112.72
-129.12,159.39,-108.93,151.21,-70.009,110.05,-39.83,65.635,-108.15,99.866,-97.925,129.35,-159.56,217.93,-97.355,112.72
-129.45,159.95,-109.17,151.83,-70.25,110.56,-39.886,66.086,-108.27,100.61,-98.118,129.97,-159.91,218.88,-97.555,113.34
-129.45,159.95,-109.17,151.83,-70.25,110.56,-39.886,66.086,-108.27,100.61,-98.118,129.97,-159.91,218.88,-97.555,113.34
-129.78,160.51,-109.42,152.45,-70.49,111.08,-39.942,66.537,-108.39,101.36,-98.31,130.59,-160.26,219.83,-97.754,113.96
-129.78,160.51,-109.42,152.45,-70.49,111.08,-39.942,66.537,-108.39,101.36,-98.31,130.59,-160.26,219.83,-97.754,113.96
-130.11,161.07,-109.66,153.07,-70.73,111.6,-39.998,66.989,-108.51,102.1,-98.501,131.22,-160.61,220.78,-97.953,114.58
-130.11,161.07,-109.66,153.07,-70.73,111.6,-39.998,66.989,-108.51,102.1,-98.501,131.22,-160.61,220.78,-97.953,114.58
-130.44,161.63,-109.91,153.7,-70.971,112.11,-40.054,67.441,-108.63,102.85,-98.692,131.84,-160.96,221.72,-98.152,115.2
-130.44,161.63,-109.91,153.7,-70.971,112.11,-40.054,67.441,-108.63,102.85,-98.692,131.84,-160.96,221.72,-98.152,115.2
-130.76,162.19,-110.15,154.32,-71.211,112.63,-40.109,67.893,-108.75,103.61,-98.883,132.47,-161.31,222.68,-98.35,115.83
-130.76,162.19,-110.15,154.32,-71.211,112.63,-40.109,67.893,-108.75,103.61,-98.883,132.47,-161.31,222.68,-98.35,115.83
-131.09,162.75,-110.4,154.94,-71.451,113.15,-40.165,68.346,-108.87,104.36,-99.073,133.1,-161.66,223.63,-98.548,116.45
-131.09,162.75,-110.4,154.94,-71.451,113.15,-40.165,68.346,-108.87,104.36,-99.073,133.1,-161.66,223.63,-98.548,116.45
-131.09,162.75,-110.4,154.94,-71.451,113.15,-40.165,68.346,-108.87,104.36,-99.073,133.1,-161.66,223.63,-98.548,116.45
-131.09,162.75,-110.4,154.94,-71.451,113.15,-40.165,68.346,-108.87,104.36,-99.073,133.1,-161.66,223.63,-98.548,116.45
-131.09,162.75,-110.4,154.94,-71.451,113.15,-40.165,68.346,-108.87,104.36,-99.073,133.1,-161.66,223.63,-98.548,116.45
-131.75,163.86,-110.89,156.19,-71.933,114.19,-40.277,69.251,-109.1,105.87,-99.451,134.36,-162.36,225.53,-98.942,117.7
-131.75,163.86,-110.89,156.19,-71.933,114.19,-40.277,69.251,-109.1,105.87,-99.451,134.36,-162.36,225.53,-98.942,117.7
-132.08,164.42,-111.13,156.81,-72.173,114.7,-40.333,69.704,-109.22,106.63,-99.639,134.99,-162.7,226.49,-99.138,118.33
-132.41,164.98,-111.38,157.43,-72.414,115.22,-40.388,70.158,-109.33,107.39,-99.827,135.62,-163.05,227.44,-99.334,118.95
-132.74,165.54,-111.62,158.06,-72.654,115.74,-40.444,70.611,-109.44,108.16,-100.01,136.25,-163.4,228.4,-99.53,119.58
-132.74,165.54,-111.62,158.06,-72.654,115.74,-40.444,70.611,-109.44,108.16,-100.01,136.25,-163.4,228.4,-99.53,119.58
-132.74,165.54,-111.62,158.06,-72.654,115.74,-40.444,70.611,-109.44,108.16,-100.01,136.25,-163.4,228.4,-99.53,119.58
-133.07,166.1,-111.87,158.68,-72.895,116.26,-40.5,71.065,-109.55,108.92,-100.2,136.88,-163.74,229.35,-99.725,120.21
-133.07,166.1,-111.87,158.68,-72.895,116.26,-40.5,71.065,-109.55,108.92,-100.2,136.88,-163.74,229.35,-99.725,120.21
-133.07,166.1,-111.87,158.68,-72.895,116.26,-40.5,71.065,-109.55,108.92,-100.2,136.88,-163.74,229.35,-99.725,120.21
-133.39,166.66,-112.11,159.3,-73.136,116.78,-40.556,71.519,-109.66,109.69,-100.39,137.52,-164.09,230.31,-99.92,120.84
-133.39,166.66,-112.11,159.3,-73.136,116.78,-40.556,71.519,-109.66,109.69,-100.39,137.52,-164.09,230.31,-99.92,120.84
-133.72,167.22,-112.36,159.93,-73.377,117.3,-40.611,71.973,-109.77,110.46,-100.57,138.15,-164.43,231.27,-100.11,121.47
-134.05,167.78,-112.6,160.55,-73.617,117.82,-40.667,72.428,-109.88,111.23,-100.76,138.79,-164.78,232.23,-100.31,122.11
-134.05,167.78,-112.6,160.55,-73.617,117.82,-40.667,72.428,-109.88,111.23,-100.76,138.79,-164.78,232.23,-100.31,122.11
-134.38,168.34,-112.85,161.18,-73.858,118.34,-40.723,72.882,-109.99,112,-100.94,139.43,-165.12,233.19,-100.5,122.74
-134.71,168.9,-113.09,161.8,-74.099,118.86,-40.779,73.337,-110.09,112.78,-101.13,140.06,-165.46,234.15,-100.69,123.37
-134.71,168.9,-113.09,161.8,-74.099,118.86,-40.779,73.337,-110.09,112.78,-101.13,140.06,-165.46,234.15,-100.69,123.37
-134.71,168.9,-113.09,161.8,-74.099,118.86,-40.779,73.337,-110.09,112.78,-101.13,140.06,-165.46,234.15,-100.69,123.37
-135.04,169.46,-113.34,162.43,-74.34,119.38,-40.834,73.791,-110.2,113.55,-101.31,140.7,-165.81,235.11,-100.89,124.01
-135.04,169.46,-113.34,162.43,-74.34,119.38,-40.834,73.791,-110.2,113.55,-101.31,140.7,-165.81,235.11,-100.89,124.01
-135.37,170.01,-113.58,163.05,-74.581,119.89,-40.89,74.246,-110.3,114.33,-101.49,141.34,-166.15,236.07,-101.08,124.64
-135.7,170.57,-113.82,163.68,-74.823,120.41,-40.946,74.701,-110.41,115.11,-101.67,141.98,-166.49,237.04,-101.27,125.28
-135.7,170.57,-113.82,163.68,-74.823,120.41,-40.946,74.701,-110.41,115.11,-101.67,141.98,-166.49,237.04,-101.27,125.28
-135.7,170.57,-113.82,163.68,-74.823,120.41,-40.946,74.701,-110.41,115.11,-101.67,141.98,-166.49,237.04,-101.27,125.28
-136.02,171.13,-114.07,164.3,-75.064,120.93,-41.002,75.156,-110.51,115.89,-101.86,142.62,-166.83,238,-101.46,125.91
-136.02,171.13,-114.07,164.3,-75.064,120.93,-41.002,75.156,-110.51,115.89,-101.86,142.62,-166.83,238,-101.46,125.91
-136.35,171.69,-114.31,164.93,-75.305,121.45,-41.058,75.611,-110.61,116.67,-102.04,143.27,-167.18,238.96,-101.66,126.55
-136.35,171.69,-114.31,164.93,-75.305,121.45,-41.058,75.611,-110.61,116.67,-102.04,143.27,-167.18,238.96,-101.66,126.55
-136.68,172.25,-114.56,165.55,-75.547,121.97,-41.114,76.067,-110.71,117.46,-102.22,143.91,-167.52,239.93,-101.85,127.19
-136.68,172.25,-114.56,165.55,-75.547,121.97,-41.114,76.067,-110.71,117.46,-102.22,143.91,-167.52,239.93,-101.85,127.19
-137.01,172.81,-114.8,166.18,-75.788,122.49,-41.17,76.522,-110.81,118.24,-102.4,144.55,-167.86,240.9,-102.04,127.83
-137.01,172.81,-114.8,166.18,-75.788,122.49,-41.17,76.522,-110.81,118.24,-102.4,144.55,-167.86,240.9,-102.04,127.83
-137.34,173.36,-115.05,166.8,-76.029,123.01,-41.226,76.978,-110.91,119.03,-102.58,145.2,-168.2,241.86,-102.23,128.47
-137.34,173.36,-115.05,166.8,-76.029,123.01,-41.226,76.978,-110.91,119.03,-102.58,145.2,-168.2,241.86,-102.23,128.47
-137.67,173.92,-115.29,167.43,-76.271,123.53,-41.282,77.433,-111.01,119.82,-102.76,145.84,-168.54,242.83,-102.42,129.11
-137.67,173.92,-115.29,167.43,-76.271,123.53,-41.282,77.433,-111.01,119.82,-102.76,145.84,-168.54,242.83,-102.42,129.11
-138,174.48,-115.54,168.05,-76.513,124.05,-41.338,77.889,-111.1,120.61,-102.94,146.49,-168.88,243.8,-102.61,129.75
-138,174.48,-115.54,168.05,-76.513,124.05,-41.338,77.889,-111.1,120.61,-102.94,146.49,-168.88,243.8,-102.61,129.75
-138.33,175.04,-115.78,168.68,-76.754,124.57,-41.394,78.344,-111.2,121.41,-103.11,147.14,-169.22,244.77,-102.8,130.39
-138.33,175.04,-115.78,168.68,-76.754,124.57,-41.394,78.344,-111.2,121.41,-103.11,147.14,-169.22,244.77,-102.8,130.39
-138.33,175.04,-115.78,168.68,-76.754,124.57,-41.394,78.344,-111.2,121.41,-103.11,147.14,-169.22,244.77,-102.8,130.39
-138.66,175.59,-116.03,169.3,-76.996,125.09,-41.451,78.8,-111.3,122.2,-103.29,147.78,-169.56,245.74,-102.98,131.04
-138.66,175.59,-116.03,169.3,-76.996,125.09,-41.451,78.8,-111.3,122.2,-103.29,147.78,-169.56,245.74,-102.98,131.04
-138.98,176.15,-116.27,169.93,-77.238,125.62,-41.507,79.255,-111.39,123,-103.47,148.43,-169.89,246.71,-103.17,131.68
-139.31,176.71,-116.52,170.55,-77.48,126.14,-41.563,79.711,-111.48,123.8,-103.64,149.08,-170.23,247.68,-103.36,132.33
-139.31,176.71,-116.52,170.55,-77.48,126.14,-41.563,79.711,-111.48,123.8,-103.64,149.08,-170.23,247.68,-103.36,132.33
-139.64,177.27,-116.76,171.18,-77.722,126.66,-41.62,80.167,-111.58,124.6,-103.82,149.73,-170.57,248.65,-103.55,132.97
-139.64,177.27,-116.76,171.18,-77.722,126.66,-41.62,80.167,-111.58,124.6,-103.82,149.73,-170.57,248.65,-103.55,132.97
-139.97,177.82,-117.01,171.8,-77.964,127.18,-41.676,80.622,-111.67,125.4,-104,150.38,-170.91,249.63,-103.74,133.62
-139.97,177.82,-117.01,171.8,-77.964,127.18,-41.676,80.622,-111.67,125.4,-104,150.38,-170.91,249.63,-103.74,133.62
-140.3,178.38,-117.25,172.43,-78.207,127.7,-41.733,81.078,-111.76,126.2,-104.17,151.04,-171.24,250.6,-103.92,134.26
-140.3,178.38,-117.25,172.43,-78.207,127.7,-41.733,81.078,-111.76,126.2,-104.17,151.04,-171.24,250.6,-103.92,134.26
-140.63,178.94,-117.5,173.05,-78.449,128.22,-41.79,81.533,-111.85,127.01,-104.35,151.69,-171.58,251.58,-104.11,134.91
-140.63,178.94,-117.5,173.05,-78.449,128.22,-41.79,81.533,-111.85,127.01,-104.35,151.69,-171.58,251.58,-104.11,134.91
-140.63,178.94,-117.5,173.05,-78.449,128.22,-41.79,81.533,-111.85,127.01,-104.35,151.69,-171.58,251.58,-104.11,134.91
-140.63,178.94,-117.5,173.05,-78.449,128.22,-41.79,81.533,-111.85,127.01,-104.35,151.69,-171.58,251.58,-104.11,134.91
-141.29,180.05,-117.99,174.3,-78.934,129.26,-41.903,82.444,-112.03,128.62,-104.69,153,-172.25,253.53,-104.48,136.21
-141.29,180.05,-117.99,174.3,-78.934,129.26,-41.903,82.444,-112.03,128.62,-104.69,153,-172.25,253.53,-104.48,136.21
-141.29,180.05,-117.99,174.3,-78.934,129.26,-41.903,82.444,-112.03,128.62,-104.69,153,-172.25,253.53,-104.48,136.21
-141.62,180.6,-118.24,174.93,-79.176,129.78,-41.96,82.9,-112.12,129.43,-104.87,153.65,-172.59,254.5,-104.67,136.86
-141.62,180.6,-118.24,174.93,-79.176,129.78,-41.96,82.9,-112.12,129.43,-104.87,153.65,-172.59,254.5,-104.67,136.86
-141.95,181.16,-118.48,175.55,-79.419,130.3,-42.018,83.355,-112.2,130.24,-105.04,154.31,-172.92,255.48,-104.85,137.51
-141.95,181.16,-118.48,175.55,-79.419,130.3,-42.018,83.355,-112.2,130.24,-105.04,154.31,-172.92,255.48,-104.85,137.51
-142.28,181.72,-118.73,176.18,-79.662,130.82,-42.075,83.81,-112.29,131.06,-105.21,154.96,-173.26,256.46,-105.04,138.16
-142.28,181.72,-118.73,176.18,-79.662,130.82,-42.075,83.81,-112.29,131.06,-105.21,154.96,-173.26,256.46,-105.04,138.16
-142.28,181.72,-118.73,176.18,-79.662,130.82,-42.075,83.81,-112.29,131.06,-105.21,154.96,-173.26,256.46,-105.04,138.16
-142.93,182.83,-119.22,177.43,-80.148,131.86,-42.189,84.72,-112.46,132.69,-105.55,156.28,-173.93,258.41,-105.41,139.47
-142.93,182.83,-119.22,177.43,-80.148,131.86,-42.189,84.72,-112.46,132.69,-105.55,156.28,-173.93,258.41,-105.41,139.47
-143.26,183.38,-119.46,178.06,-80.391,132.38,-42.247,85.175,-112.55,133.5,-105.72,156.94,-174.26,259.39,-105.59,140.12
-143.26,183.38,-119.46,178.06,-80.391,132.38,-42.247,85.175,-112.55,133.5,-105.72,156.94,-174.26,259.39,-105.59,140.12
-143.26,183.38,-119.46,178.06,-80.391,132.38,-42.247,85.175,-112.55,133.5,-105.72,156.94,-174.26,259.39,-105.59,140.12
-143.59,183.93,-119.71,178.68,-80.634,132.9,-42.305,85.63,-112.63,134.32,-105.9,157.6,-174.59,260.37,-105.78,140.77
-143.59,183.93,-119.71,178.68,-80.634,132.9,-42.305,85.63,-112.63,134.32,-105.9,157.6,-174.59,260.37,-105.78,140.77
-143.92,184.49,-119.95,179.31,-80.878,133.42,-42.362,86.085,-112.71,135.14,-106.06,158.26,-174.93,261.35,-105.96,141.43
-144.25,185.04,-120.2,179.93,-81.121,133.94,-42.42,86.539,-112.8,135.97,-106.23,158.92,-175.26,262.34,-106.15,142.08
-144.58,185.6,-120.45,180.55,-81.365,134.46,-42.478,86.993,-112.88,136.79,-106.4,159.58,-175.59,263.32,-106.33,142.74
-144.58,185.6,-120.45,180.55,-81.365,134.46,-42.478,86.993,-112.88,136.79,-106.4,159.58,-175.59,263.32,-106.33,142.74
-144.58,185.6,-120.45,180.55,-81.365,134.46,-42.478,86.993,-112.88,136.79,-106.4,159.58,-175.59,263.32,-106.33,142.74
-144.91,186.15,-120.69,181.18,-81.609,134.98,-42.536,87.448,-112.96,137.61,-106.57,160.24,-175.93,264.3,-106.51,143.39
-144.91,186.15,-120.69,181.18,-81.609,134.98,-42.536,87.448,-112.96,137.61,-106.57,160.24,-175.93,264.3,-106.51,143.39
-145.24,186.7,-120.94,181.8,-81.852,135.5,-42.595,87.902,-113.04,138.44,-106.74,160.9,-176.26,265.28,-106.69,144.05
-145.24,186.7,-120.94,181.8,-81.852,135.5,-42.595,87.902,-113.04,138.44,-106.74,160.9,-176.26,265.28,-106.69,144.05
-145.57,187.26,-121.18,182.43,-82.096,136.02,-42.653,88.356,-113.12,139.27,-106.91,161.57,-176.59,266.27,-106.88,144.71
-145.57,187.26,-121.18,182.43,-82.096,136.02,-42.653,88.356,-113.12,139.27,-106.91,161.57,-176.59,266.27,-106.88,144.71
-145.9,187.81,-121.43,183.05,-82.34,136.53,-42.712,88.809,-113.2,140.1,-107.07,162.23,-176.92,267.25,-107.06,145.37
-146.23,188.36,-121.68,183.68,-82.585,137.05,-42.77,89.263,-113.28,140.93,-107.24,162.9,-177.26,268.23,-107.24,146.03
-146.23,188.36,-121.68,183.68,-82.585,137.05,-42.77,89.263,-113.28,140.93,-107.24,162.9,-177.26,268.23,-107.24,146.03
-146.23,188.36,-121.68,183.68,-82.585,137.05,-42.77,89.263,-113.28,140.93,-107.24,162.9,-177.26,268.23,-107.24,146.03
-146.56,188.92,-121.92,184.3,-82.829,137.57,-42.829,89.716,-113.36,141.76,-107.41,163.56,-177.59,269.22,-107.42,146.69
-146.56,188.92,-121.92,184.3,-82.829,137.57,-42.829,89.716,-113.36,141.76,-107.41,163.56,-177.59,269.22,-107.42,146.69
-146.56,188.92,-121.92,184.3,-82.829,137.57,-42.829,89.716,-113.36,141.76,-107.41,163.56,-177.59,269.22,-107.42,146.69
-146.89,189.47,-122.17,184.92,-83.073,138.09,-42.888,90.169,-113.43,142.59,-107.57,164.23,-177.92,270.2,-107.6,147.35
-146.89,189.47,-122.17,184.92,-83.073,138.09,-42.888,90.169,-113.43,142.59,-107.57,164.23,-177.92,270.2,-107.6,147.35
-147.22,190.02,-122.42,185.55,-83.318,138.61,-42.947,90.622,-113.51,143.43,-107.74,164.89,-178.25,271.19,-107.78,148.01
-147.55,190.57,-122.66,186.17,-83.563,139.13,-43.007,91.074,-113.59,144.27,-107.9,165.56,-178.58,272.18,-107.96,148.67
-147.55,190.57,-122.66,186.17,-83.563,139.13,-43.007,91.074,-113.59,144.27,-107.9,165.56,-178.58,272.18,-107.96,148.67
-147.88,191.12,-122.91,186.8,-83.808,139.65,-43.066,91.526,-113.66,145.1,-108.07,166.23,-178.91,273.16,-108.15,149.33
-147.88,191.12,-122.91,186.8,-83.808,139.65,-43.066,91.526,-113.66,145.1,-108.07,166.23,-178.91,273.16,-108.15,149.33
-148.21,191.67,-123.16,187.42,-84.053,140.16,-43.126,91.978,-113.74,145.94,-108.23,166.9,-179.24,274.15,-108.33,149.99
-148.21,191.67,-123.16,187.42,-84.053,140.16,-43.126,91.978,-113.74,145.94,-108.23,166.9,-179.24,274.15,-108.33,149.99
-148.54,192.23,-123.4,188.04,-84.298,140.68,-43.186,92.43,-113.81,146.78,-108.39,167.56,-179.57,275.14,-108.51,150.65
-148.54,192.23,-123.4,188.04,-84.298,140.68,-43.186,92.43,-113.81,146.78,-108.39,167.56,-179.57,275.14,-108.51,150.65
-148.87,192.78,-123.65,188.66,-84.543,141.2,-43.246,92.881,-113.89,147.63,-108.56,168.23,-179.9,276.12,-108.69,151.32
-149.19,193.33,-123.9,189.29,-84.788,141.72,-43.306,93.332,-113.96,148.47,-108.72,168.9,-180.23,277.11,-108.87,151.98
-149.19,193.33,-123.9,189.29,-84.788,141.72,-43.306,93.332,-113.96,148.47,-108.72,168.9,-180.23,277.11,-108.87,151.98
-149.52,193.88,-124.14,189.91,-85.034,142.23,-43.366,93.783,-114.03,149.31,-108.88,169.57,-180.56,278.1,-109.04,152.65
-149.52,193.88,-124.14,189.91,-85.034,142.23,-43.366,93.783,-114.03,149.31,-108.88,169.57,-180.56,278.1,-109.04,152.65
-149.52,193.88,-124.14,189.91,-85.034,142.23,-43.366,93.783,-114.03,149.31,-108.88,169.57,-180.56,278.1,-109.04,152.65
-149.85,194.43,-124.39,190.53,-85.28,142.75,-43.427,94.234,-114.11,150.16,-109.05,170.24,-180.89,279.09,-109.22,153.31
-149.85,194.43,-124.39,190.53,-85.28,142.75,-43.427,94.234,-114.11,150.16,-109.05,170.24,-180.89,279.09,-109.22,153.31
-150.18,194.98,-124.64,191.15,-85.526,143.27,-43.488,94.684,-114.18,151.01,-109.21,170.92,-181.22,280.08,-109.4,153.98
-150.18,194.98,-124.64,191.15,-85.526,143.27,-43.488,94.684,-114.18,151.01,-109.21,170.92,-181.22,280.08,-109.4,153.98
-150.18,194.98,-124.64,191.15,-85.526,143.27,-43.488,94.684,-114.18,151.01,-109.21,170.92,-181.22,280.08,-109.4,153.98
-150.51,195.52,-124.89,191.77,-85.772,143.79,-43.549,95.134,-114.25,151.85,-109.37,171.59,-181.55,281.07,-109.58,154.64
-150.51,195.52,-124.89,191.77,-85.772,143.79,-43.549,95.134,-114.25,151.85,-109.37,171.59,-181.55,281.07,-109.58,154.64
-150.51,195.52,-124.89,191.77,-85.772,143.79,-43.549,95.134,-114.25,151.85,-109.37,171.59,-181.55,281.07,-109.58,154.64
-150.51,195.52,-124.89,191.77,-85.772,143.79,-43.549,95.134,-114.25,151.85,-109.37,171.59,-181.55,281.07,-109.58,154.64
-151.17,196.62,-125.38,193.02,-86.264,144.82,-43.671,96.032,-114.39,153.55,-109.69,172.93,-182.21,283.05,-109.94,155.97
-151.17,196.62,-125.38,193.02,-86.264,144.82,-43.671,96.032,-114.39,153.55,-109.69,172.93,-182.21,283.05,-109.94,155.97
-151.17,196.62,-125.38,193.02,-86.264,144.82,-43.671,96.032,-114.39,153.55,-109.69,172.93,-182.21,283.05,-109.94,155.97
-151.83,197.72,-125.88,194.26,-86.757,145.85,-43.795,96.929,-114.53,155.26,-110.01,174.28,-182.86,285.03,-110.29,157.31
-151.83,197.72,-125.88,194.26,-86.757,145.85,-43.795,96.929,-114.53,155.26,-110.01,174.28,-182.86,285.03,-110.29,157.31
-151.83,197.72,-125.88,194.26,-86.757,145.85,-43.795,96.929,-114.53,155.26,-110.01,174.28,-182.86,285.03,-110.29,157.31
-152.16,198.27,-126.13,194.88,-87.004,146.36,-43.857,97.377,-114.6,156.11,-110.17,174.95,-183.19,286.02,-110.47,157.98
-152.49,198.81,-126.38,195.5,-87.251,146.88,-43.919,97.825,-114.67,156.97,-110.33,175.63,-183.52,287.01,-110.65,158.65
-152.82,199.36,-126.62,196.12,-87.498,147.39,-43.982,98.272,-114.74,157.82,-110.49,176.3,-183.85,288,-110.83,159.31
-152.82,199.36,-126.62,196.12,-87.498,147.39,-43.982,98.272,-114.74,157.82,-110.49,176.3,-183.85,288,-110.83,159.31
-152.82,199.36,-126.62,196.12,-87.498,147.39,-43.982,98.272,-114.74,157.82,-110.49,176.3,-183.85,288,-110.83,159.31
-153.15,199.91,-126.87,196.74,-87.745,147.91,-44.044,98.719,-114.81,158.68,-110.65,176.98,-184.18,289,-111,159.98
-153.15,199.91,-126.87,196.74,-87.745,147.91,-44.044,98.719,-114.81,158.68,-110.65,176.98,-184.18,289,-111,159.98
-153.48,200.45,-127.12,197.36,-87.993,148.42,-44.107,99.165,-114.88,159.54,-110.81,177.65,-184.51,289.99,-111.18,160.65
-153.48,200.45,-127.12,197.36,-87.993,148.42,-44.107,99.165,-114.88,159.54,-110.81,177.65,-184.51,289.99,-111.18,160.65
-153.48,200.45,-127.12,197.36,-87.993,148.42,-44.107,99.165,-114.88,159.54,-110.81,177.65,-184.51,289.99,-111.18,160.65
-153.81,201,-127.37,197.98,-88.24,148.94,-44.17,99.611,-114.95,160.4,-110.96,178.33,-184.83,290.98,-111.36,161.32
-153.81,201,-127.37,197.98,-88.24,148.94,-44.17,99.611,-114.95,160.4,-110.96,178.33,-184.83,290.98,-111.36,161.32
-153.81,201,-127.37,197.98,-88.24,148.94,-44.17,99.611,-114.95,160.4,-110.96,178.33,-184.83,290.98,-111.36,161.32
-154.47,202.09,-127.87,199.21,-88.736,149.96,-44.297,100.5,-115.08,162.12,-111.28,179.68,-185.49,292.97,-111.71,162.66
-154.8,202.63,-128.12,199.83,-88.984,150.48,-44.361,100.95,-115.15,162.99,-111.43,180.36,-185.82,293.96,-111.89,163.33
-154.8,202.63,-128.12,199.83,-88.984,150.48,-44.361,100.95,-115.15,162.99,-111.43,180.36,-185.82,293.96,-111.89,163.33
-154.8,202.63,-128.12,199.83,-88.984,150.48,-44.361,100.95,-115.15,162.99,-111.43,180.36,-185.82,293.96,-111.89,163.33
-155.13,203.18,-128.37,200.45,-89.232,150.99,-44.426,101.39,-115.22,163.85,-111.59,181.04,-186.15,294.95,-112.06,164.01
-155.13,203.18,-128.37,200.45,-89.232,150.99,-44.426,101.39,-115.22,163.85,-111.59,181.04,-186.15,294.95,-112.06,164.01
-155.46,203.72,-128.62,201.06,-89.481,151.5,-44.49,101.83,-115.28,164.71,-111.75,181.71,-186.47,295.94,-112.24,164.68
-155.46,203.72,-128.62,201.06,-89.481,151.5,-44.49,101.83,-115.28,164.71,-111.75,181.71,-186.47,295.94,-112.24,164.68
-155.79,204.27,-128.87,201.68,-89.73,152.01,-44.555,102.28,-115.35,165.58,-111.9,182.39,-186.8,296.94,-112.42,165.35
-155.79,204.27,-128.87,201.68,-89.73,152.01,-44.555,102.28,-115.35,165.58,-111.9,182.39,-186.8,296.94,-112.42,165.35
-156.12,204.81,-129.11,202.3,-89.978,152.52,-44.62,102.72,-115.41,166.45,-112.06,183.07,-187.13,297.93,-112.59,166.02
-156.12,204.81,-129.11,202.3,-89.978,152.52,-44.62,102.72,-115.41,166.45,-112.06,183.07,-187.13,297.93,-112.59,166.02
-156.45,205.35,-129.36,202.91,-90.227,153.04,-44.685,103.16,-115.48,167.32,-112.22,183.75,-187.46,298.92,-112.77,166.69
-156.45,205.35,-129.36,202.91,-90.227,153.04,-44.685,103.16,-115.48,167.32,-112.22,183.75,-187.46,298.92,-112.77,166.69
-156.78,205.89,-129.62,203.53,-90.477,153.55,-44.75,103.6,-115.55,168.18,-112.37,184.43,-187.78,299.92,-112.94,167.37
-156.78,205.89,-129.62,203.53,-90.477,153.55,-44.75,103.6,-115.55,168.18,-112.37,184.43,-187.78,299.92,-112.94,167.37
-156.78,205.89,-129.62,203.53,-90.477,153.55,-44.75,103.6,-115.55,168.18,-112.37,184.43,-187.78,299.92,-112.94,167.37
-157.11,206.44,-129.87,204.14,-90.726,154.06,-44.816,104.04,-115.61,169.05,-112.53,185.11,-188.11,300.91,-113.12,168.04
-157.11,206.44,-129.87,204.14,-90.726,154.06,-44.816,104.04,-115.61,169.05,-112.53,185.11,-188.11,300.91,-113.12,168.04
-157.44,206.98,-130.12,204.76,-90.976,154.57,-44.882,104.48,-115.68,169.92,-112.68,185.79,-188.44,301.91,-113.29,168.71
-157.78,207.52,-130.37,205.37,-91.225,155.08,-44.948,104.92,-115.74,170.8,-112.84,186.47,-188.77,302.9,-113.47,169.39
-157.78,207.52,-130.37,205.37,-91.225,155.08,-44.948,104.92,-115.74,170.8,-112.84,186.47,-188.77,302.9,-113.47,169.39
-158.11,208.06,-130.62,205.99,-91.475,155.59,-45.015,105.36,-115.81,171.67,-112.99,187.14,-189.1,303.89,-113.64,170.06
-158.11,208.06,-130.62,205.99,-91.475,155.59,-45.015,105.36,-115.81,171.67,-112.99,187.14,-189.1,303.89,-113.64,170.06
-158.11,208.06,-130.62,205.99,-91.475,155.59,-45.015,105.36,-115.81,171.67,-112.99,187.14,-189.1,303.89,-113.64,170.06
-158.44,208.6,-130.87,206.6,-91.725,156.09,-45.082,105.8,-115.87,172.54,-113.14,187.82,-189.42,304.89,-113.82,170.74
-158.44,208.6,-130.87,206.6,-91.725,156.09,-45.082,105.8,-115.87,172.54,-113.14,187.82,-189.42,304.89,-113.82,170.74
-158.77,209.14,-131.12,207.21,-91.976,156.6,-45.149,106.24,-115.94,173.42,-113.3,188.51,-189.75,305.88,-113.99,171.41
-159.1,209.68,-131.37,207.82,-92.226,157.11,-45.216,106.68,-116,174.29,-113.45,189.19,-190.08,306.87,-114.17,172.08
-159.1,209.68,-131.37,207.82,-92.226,157.11,-45.216,106.68,-116,174.29,-113.45,189.19,-190.08,306.87,-114.17,172.08
-159.1,209.68,-131.37,207.82,-92.226,157.11,-45.216,106.68,-116,174.29,-113.45,189.19,-190.08,306.87,-114.17,172.08
-159.43,210.22,-131.62,208.44,-92.477,157.62,-45.284,107.11,-116.07,175.17,-113.61,189.87,-190.41,307.87,-114.34,172.76
-159.43,210.22,-131.62,208.44,-92.477,157.62,-45.284,107.11,-116.07,175.17,-113.61,189.87,-190.41,307.87,-114.34,172.76
-159.43,210.22,-131.62,208.44,-92.477,157.62,-45.284,107.11,-116.07,175.17,-113.61,189.87,-190.41,307.87,-114.34,172.76
-160.09,211.3,-132.13,209.66,-92.979,158.63,-45.421,107.99,-116.19,176.92,-113.91,191.23,-191.06,309.86,-114.69,174.11
-160.09,211.3,-132.13,209.66,-92.979,158.63,-45.421,107.99,-116.19,176.92,-113.91,191.23,-191.06,309.86,-114.69,174.11
-160.09,211.3,-132.13,209.66,-92.979,158.63,-45.421,107.99,-116.19,176.92,-113.91,191.23,-191.06,309.86,-114.69,174.11
-160.42,211.84,-132.38,210.27,-93.23,159.14,-45.489,108.42,-116.26,177.8,-114.06,191.91,-191.39,310.85,-114.87,174.78
-160.75,212.37,-132.63,210.88,-93.482,159.64,-45.558,108.85,-116.32,178.68,-114.22,192.59,-191.72,311.84,-115.04,175.46
-160.75,212.37,-132.63,210.88,-93.482,159.64,-45.558,108.85,-116.32,178.68,-114.22,192.59,-191.72,311.84,-115.04,175.46
-160.75,212.37,-132.63,210.88,-93.482,159.64,-45.558,108.85,-116.32,178.68,-114.22,192.59,-191.72,311.84,-115.04,175.46
-161.08,212.91,-132.88,211.49,-93.734,160.15,-45.628,109.29,-116.39,179.56,-114.37,193.27,-192.05,312.84,-115.22,176.13
-161.08,212.91,-132.88,211.49,-93.734,160.15,-45.628,109.29,-116.39,179.56,-114.37,193.27,-192.05,312.84,-115.22,176.13
-161.41,213.45,-133.13,212.1,-93.985,160.65,-45.697,109.72,-116.45,180.44,-114.52,193.95,-192.38,313.83,-115.39,176.81
-161.41,213.45,-133.13,212.1,-93.985,160.65,-45.697,109.72,-116.45,180.44,-114.52,193.95,-192.38,313.83,-115.39,176.81
-161.41,213.45,-133.13,212.1,-93.985,160.65,-45.697,109.72,-116.45,180.44,-114.52,193.95,-192.38,313.83,-115.39,176.81
-161.41,213.45,-133.13,212.1,-93.985,160.65,-45.697,109.72,-116.45,180.44,-114.52,193.95,-192.38,313.83,-115.39,176.81
-162.07,214.52,-133.64,213.31,-94.49,161.66,-45.837,110.59,-116.58,182.2,-114.83,195.31,-193.03,315.82,-115.74,178.16
-162.07,214.52,-133.64,213.31,-94.49,161.66,-45.837,110.59,-116.58,182.2,-114.83,195.31,-193.03,315.82,-115.74,178.16
-162.07,214.52,-133.64,213.31,-94.49,161.66,-45.837,110.59,-116.58,182.2,-114.83,195.31,-193.03,315.82,-115.74,178.16
-162.73,215.59,-134.15,214.53,-94.995,162.67,-45.979,111.45,-116.71,183.97,-115.13,196.68,-193.69,317.8,-116.09,179.51
-162.73,215.59,-134.15,214.53,-94.995,162.67,-45.979,111.45,-116.71,183.97,-115.13,196.68,-193.69,317.8,-116.09,179.51
-163.06,216.13,-134.4,215.13,-95.248,163.17,-46.05,111.88,-116.77,184.85,-115.28,197.36,-194.02,318.79,-116.26,180.19
-163.06,216.13,-134.4,215.13,-95.248,163.17,-46.05,111.88,-116.77,184.85,-115.28,197.36,-194.02,318.79,-116.26,180.19
-163.06,216.13,-134.4,215.13,-95.248,163.17,-46.05,111.88,-116.77,184.85,-115.28,197.36,-194.02,318.79,-116.26,180.19
-163.39,216.66,-134.65,215.74,-95.501,163.67,-46.122,112.3,-116.84,185.73,-115.43,198.04,-194.35,319.79,-116.44,180.86
-163.39,216.66,-134.65,215.74,-95.501,163.67,-46.122,112.3,-116.84,185.73,-115.43,198.04,-194.35,319.79,-116.44,180.86
-164.05,217.73,-135.16,216.95,-96.009,164.67,-46.266,113.16,-116.96,187.5,-115.74,199.4,-195.01,321.77,-116.78,182.22
-164.05,217.73,-135.16,216.95,-96.009,164.67,-46.266,113.16,-116.96,187.5,-115.74,199.4,-195.01,321.77,-116.78,182.22
-164.05,217.73,-135.16,216.95,-96.009,164.67,-46.266,113.16,-116.96,187.5,-115.74,199.4,-195.01,321.77,-116.78,182.22
-164.38,218.26,-135.42,217.55,-96.262,165.17,-46.339,113.59,-117.03,188.39,-115.89,200.08,-195.34,322.76,-116.96,182.89
-164.38,218.26,-135.42,217.55,-96.262,165.17,-46.339,113.59,-117.03,188.39,-115.89,200.08,-195.34,322.76,-116.96,182.89
-164.71,218.79,-135.67,218.15,-96.516,165.67,-46.412,114.01,-117.09,189.28,-116.04,200.77,-195.66,323.75,-117.13,183.57
-164.71,218.79,-135.67,218.15,-96.516,165.67,-46.412,114.01,-117.09,189.28,-116.04,200.77,-195.66,323.75,-117.13,183.57
-165.04,219.32,-135.92,218.75,-96.771,166.17,-46.486,114.44,-117.16,190.16,-116.19,201.45,-195.99,324.74,-117.31,184.24
-165.37,219.86,-136.18,219.35,-97.025,166.67,-46.559,114.86,-117.22,191.05,-116.34,202.13,-196.32,325.74,-117.48,184.92
-165.37,219.86,-136.18,219.35,-97.025,166.67,-46.559,114.86,-117.22,191.05,-116.34,202.13,-196.32,325.74,-117.48,184.92
-165.37,219.86,-136.18,219.35,-97.025,166.67,-46.559,114.86,-117.22,191.05,-116.34,202.13,-196.32,325.74,-117.48,184.92
-165.7,220.39,-136.44,219.96,-97.28,167.17,-46.634,115.28,-117.29,191.94,-116.49,202.81,-196.66,326.73,-117.65,185.6
-165.7,220.39,-136.44,219.96,-97.28,167.17,-46.634,115.28,-117.29,191.94,-116.49,202.81,-196.66,326.73,-117.65,185.6
-166.03,220.92,-136.69,220.56,-97.535,167.67,-46.708,115.71,-117.35,192.83,-116.64,203.49,-196.99,327.72,-117.83,186.27
-166.03,220.92,-136.69,220.56,-97.535,167.67,-46.708,115.71,-117.35,192.83,-116.64,203.49,-196.99,327.72,-117.83,186.27
-166.37,221.45,-136.95,221.16,-97.79,168.16,-46.783,116.13,-117.42,193.71,-116.8,204.17,-197.32,328.71,-118,186.95
-166.37,221.45,-136.95,221.16,-97.79,168.16,-46.783,116.13,-117.42,193.71,-116.8,204.17,-197.32,328.71,-118,186.95
-166.7,221.98,-137.2,221.75,-98.046,168.66,-46.858,116.55,-117.49,194.6,-116.95,204.85,-197.65,329.7,-118.17,187.62
-167.03,222.51,-137.46,222.35,-98.301,169.15,-46.934,116.97,-117.55,195.49,-117.1,205.53,-197.98,330.68,-118.35,188.3
-167.03,222.51,-137.46,222.35,-98.301,169.15,-46.934,116.97,-117.55,195.49,-117.1,205.53,-197.98,330.68,-118.35,188.3
-167.03,222.51,-137.46,222.35,-98.301,169.15,-46.934,116.97,-117.55,195.49,-117.1,205.53,-197.98,330.68,-118.35,188.3
-167.36,223.03,-137.71,222.95,-98.557,169.65,-47.01,117.39,-117.62,196.38,-117.25,206.21,-198.31,331.67,-118.52,188.97
-167.36,223.03,-137.71,222.95,-98.557,169.65,-47.01,117.39,-117.62,196.38,-117.25,206.21,-198.31,331.67,-118.52,188.97
-167.36,223.03,-137.71,222.95,-98.557,169.65,-47.01,117.39,-117.62,196.38,-117.25,206.21,-198.31,331.67,-118.52,188.97
-167.69,223.56,-137.97,223.55,-98.813,170.14,-47.087,117.81,-117.68,197.27,-117.4,206.89,-198.64,332.66,-118.7,189.65
-167.69,223.56,-137.97,223.55,-98.813,170.14,-47.087,117.81,-117.68,197.27,-117.4,206.89,-198.64,332.66,-118.7,189.65
-168.02,224.09,-138.23,224.14,-99.07,170.64,-47.163,118.22,-117.75,198.16,-117.55,207.57,-198.97,333.65,-118.87,190.32
-168.35,224.62,-138.48,224.74,-99.326,171.13,-47.241,118.64,-117.82,199.05,-117.7,208.25,-199.3,334.64,-119.04,191
-168.35,224.62,-138.48,224.74,-99.326,171.13,-47.241,118.64,-117.82,199.05,-117.7,208.25,-199.3,334.64,-119.04,191
-168.68,225.14,-138.74,225.33,-99.583,171.62,-47.318,119.06,-117.88,199.94,-117.85,208.93,-199.64,335.62,-119.22,191.67
-169.01,225.67,-139,225.92,-99.84,172.11,-47.397,119.47,-117.95,200.84,-118,209.61,-199.97,336.61,-119.39,192.35
-169.01,225.67,-139,225.92,-99.84,172.11,-47.397,119.47,-117.95,200.84,-118,209.61,-199.97,336.61,-119.39,192.35
-169.01,225.67,-139,225.92,-99.84,172.11,-47.397,119.47,-117.95,200.84,-118,209.61,-199.97,336.61,-119.39,192.35
-169.34,226.19,-139.26,226.52,-100.1,172.6,-47.475,119.88,-118.02,201.73,-118.15,210.29,-200.3,337.6,-119.57,193.02
-169.34,226.19,-139.26,226.52,-100.1,172.6,-47.475,119.88,-118.02,201.73,-118.15,210.29,-200.3,337.6,-119.57,193.02
-169.34,226.19,-139.26,226.52,-100.1,172.6,-47.475,119.88,-118.02,201.73,-118.15,210.29,-200.3,337.6,-119.57,193.02
-169.67,226.72,-139.52,227.11,-100.36,173.09,-47.554,120.3,-118.09,202.62,-118.3,210.97,-200.64,338.58,-119.74,193.7
-169.67,226.72,-139.52,227.11,-100.36,173.09,-47.554,120.3,-118.09,202.62,-118.3,210.97,-200.64,338.58,-119.74,193.7
-170,227.24,-139.77,227.7,-100.61,173.58,-47.633,120.71,-118.16,203.51,-118.46,211.65,-200.97,339.57,-119.92,194.37
-170,227.24,-139.77,227.7,-100.61,173.58,-47.633,120.71,-118.16,203.51,-118.46,211.65,-200.97,339.57,-119.92,194.37
-170.66,228.29,-140.29,228.88,-101.13,174.56,-47.793,121.53,-118.29,205.29,-118.76,213,-201.64,341.53,-120.27,195.72
-170.66,228.29,-140.29,228.88,-101.13,174.56,-47.793,121.53,-118.29,205.29,-118.76,213,-201.64,341.53,-120.27,195.72
-170.66,228.29,-140.29,228.88,-101.13,174.56,-47.793,121.53,-118.29,205.29,-118.76,213,-201.64,341.53,-120.27,195.72
-170.99,228.81,-140.55,229.47,-101.39,175.05,-47.874,121.94,-118.36,206.19,-118.91,213.68,-201.97,342.52,-120.44,196.39
-170.99,228.81,-140.55,229.47,-101.39,175.05,-47.874,121.94,-118.36,206.19,-118.91,213.68,-201.97,342.52,-120.44,196.39
-171.32,229.34,-140.81,230.06,-101.65,175.53,-47.955,122.35,-118.43,207.08,-119.06,214.36,-202.3,343.5,-120.61,197.06
-171.32,229.34,-140.81,230.06,-101.65,175.53,-47.955,122.35,-118.43,207.08,-119.06,214.36,-202.3,343.5,-120.61,197.06
-171.65,229.86,-141.07,230.64,-101.91,176.02,-48.036,122.75,-118.5,207.97,-119.21,215.04,-202.64,344.48,-120.79,197.74
-171.98,230.38,-141.33,231.23,-102.16,176.5,-48.118,123.16,-118.57,208.86,-119.36,215.71,-202.98,345.46,-120.96,198.41
-171.98,230.38,-141.33,231.23,-102.16,176.5,-48.118,123.16,-118.57,208.86,-119.36,215.71,-202.98,345.46,-120.96,198.41
-171.98,230.38,-141.33,231.23,-102.16,176.5,-48.118,123.16,-118.57,208.86,-119.36,215.71,-202.98,345.46,-120.96,198.41
-172.31,230.9,-141.59,231.82,-102.42,176.99,-48.201,123.57,-118.64,209.76,-119.51,216.39,-203.31,346.45,-121.14,199.08
-172.31,230.9,-141.59,231.82,-102.42,176.99,-48.201,123.57,-118.64,209.76,-119.51,216.39,-203.31,346.45,-121.14,199.08
-172.64,231.42,-141.85,232.4,-102.68,177.47,-48.283,123.97,-118.72,210.65,-119.67,217.06,-203.65,347.43,-121.31,199.75
-172.64,231.42,-141.85,232.4,-102.68,177.47,-48.283,123.97,-118.72,210.65,-119.67,217.06,-203.65,347.43,-121.31,199.75
-172.97,231.94,-142.11,232.98,-102.94,177.95,-48.367,124.37,-118.79,211.54,-119.82,217.74,-203.98,348.41,-121.49,200.42
-172.97,231.94,-142.11,232.98,-102.94,177.95,-48.367,124.37,-118.79,211.54,-119.82,217.74,-203.98,348.41,-121.49,200.42
-173.3,232.46,-142.37,233.57,-103.2,178.44,-48.45,124.78,-118.86,212.43,-119.97,218.41,-204.32,349.38,-121.66,201.1
-173.3,232.46,-142.37,233.57,-103.2,178.44,-48.45,124.78,-118.86,212.43,-119.97,218.41,-204.32,349.38,-121.66,201.1
-173.63,232.98,-142.63,234.15,-103.47,178.92,-48.535,125.18,-118.93,213.33,-120.12,219.09,-204.66,350.36,-121.84,201.77
-173.63,232.98,-142.63,234.15,-103.47,178.92,-48.535,125.18,-118.93,213.33,-120.12,219.09,-204.66,350.36,-121.84,201.77
-173.96,233.49,-142.89,234.73,-103.73,179.4,-48.619,125.58,-119.01,214.22,-120.27,219.76,-204.99,351.34,-122.02,202.44
-173.96,233.49,-142.89,234.73,-103.73,179.4,-48.619,125.58,-119.01,214.22,-120.27,219.76,-204.99,351.34,-122.02,202.44
-174.29,234.01,-143.16,235.31,-103.99,179.88,-48.704,125.98,-119.08,215.11,-120.43,220.43,-205.33,352.32,-122.19,203.11
-174.29,234.01,-143.16,235.31,-103.99,179.88,-48.704,125.98,-119.08,215.11,-120.43,220.43,-205.33,352.32,-122.19,203.11
-174.29,234.01,-143.16,235.31,-103.99,179.88,-48.704,125.98,-119.08,215.11,-120.43,220.43,-205.33,352.32,-122.19,203.11
-174.62,234.53,-143.42,235.89,-104.25,180.36,-48.79,126.37,-119.16,216,-120.58,221.11,-205.67,353.29,-122.37,203.78
-174.95,235.04,-143.68,236.46,-104.51,180.84,-48.876,126.77,-119.23,216.9,-120.73,221.78,-206.01,354.27,-122.54,204.45
-174.95,235.04,-143.68,236.46,-104.51,180.84,-48.876,126.77,-119.23,216.9,-120.73,221.78,-206.01,354.27,-122.54,204.45
-174.95,235.04,-143.68,236.46,-104.51,180.84,-48.876,126.77,-119.23,216.9,-120.73,221.78,-206.01,354.27,-122.54,204.45
-175.28,235.56,-143.94,237.04,-104.77,181.31,-48.962,127.17,-119.31,217.79,-120.89,222.45,-206.35,355.24,-122.72,205.11
-175.28,235.56,-143.94,237.04,-104.77,181.31,-48.962,127.17,-119.31,217.79,-120.89,222.45,-206.35,355.24,-122.72,205.11
-175.61,236.07,-144.21,237.62,-105.03,181.79,-49.049,127.56,-119.38,218.68,-121.04,223.12,-206.69,356.22,-122.89,205.78
-175.61,236.07,-144.21,237.62,-105.03,181.79,-49.049,127.56,-119.38,218.68,-121.04,223.12,-206.69,356.22,-122.89,205.78
-175.94,236.59,-144.47,238.19,-105.3,182.26,-49.137,127.95,-119.46,219.57,-121.19,223.79,-207.03,357.19,-123.07,206.45
-175.94,236.59,-144.47,238.19,-105.3,182.26,-49.137,127.95,-119.46,219.57,-121.19,223.79,-207.03,357.19,-123.07,206.45
-176.27,237.1,-144.73,238.77,-105.56,182.74,-49.225,128.35,-119.54,220.46,-121.35,224.46,-207.37,358.16,-123.25,207.12
-176.27,237.1,-144.73,238.77,-105.56,182.74,-49.225,128.35,-119.54,220.46,-121.35,224.46,-207.37,358.16,-123.25,207.12
-176.6,237.61,-145,239.34,-105.82,183.21,-49.313,128.74,-119.61,221.35,-121.5,225.13,-207.71,359.13,-123.42,207.78
-176.6,237.61,-145,239.34,-105.82,183.21,-49.313,128.74,-119.61,221.35,-121.5,225.13,-207.71,359.13,-123.42,207.78
-177.26,238.64,-145.53,240.48,-106.35,184.16,-49.492,129.52,-119.77,223.13,-121.81,226.47,-208.39,361.07,-123.78,209.12
-177.26,238.64,-145.53,240.48,-106.35,184.16,-49.492,129.52,-119.77,223.13,-121.81,226.47,-208.39,361.07,-123.78,209.12
-177.59,239.15,-145.79,241.05,-106.61,184.63,-49.582,129.91,-119.85,224.02,-121.96,227.14,-208.73,362.04,-123.95,209.78
-177.59,239.15,-145.79,241.05,-106.61,184.63,-49.582,129.91,-119.85,224.02,-121.96,227.14,-208.73,362.04,-123.95,209.78
-177.59,239.15,-145.79,241.05,-106.61,184.63,-49.582,129.91,-119.85,224.02,-121.96,227.14,-208.73,362.04,-123.95,209.78
-177.92,239.66,-146.06,241.62,-106.88,185.1,-49.672,130.29,-119.93,224.91,-122.12,227.8,-209.07,363.01,-124.13,210.45
-177.92,239.66,-146.06,241.62,-106.88,185.1,-49.672,130.29,-119.93,224.91,-122.12,227.8,-209.07,363.01,-124.13,210.45
-178.25,240.17,-146.32,242.19,-107.14,185.57,-49.763,130.68,-120.01,225.8,-122.27,228.47,-209.42,363.97,-124.31,211.11
-178.25,240.17,-146.32,242.19,-107.14,185.57,-49.763,130.68,-120.01,225.8,-122.27,228.47,-209.42,363.97,-124.31,211.11
-178.25,240.17,-146.32,242.19,-107.14,185.57,-49.763,130.68,-120.01,225.8,-122.27,228.47,-209.42,363.97,-124.31,211.11
-178.58,240.68,-146.59,242.75,-107.4,186.04,-49.855,131.06,-120.09,226.69,-122.43,229.13,-209.76,364.94,-124.49,211.77
-178.58,240.68,-146.59,242.75,-107.4,186.04,-49.855,131.06,-120.09,226.69,-122.43,229.13,-209.76,364.94,-124.49,211.77
-178.58,240.68,-146.59,242.75,-107.4,186.04,-49.855,131.06,-120.09,226.69,-122.43,229.13,-209.76,364.94,-124.49,211.77
-179.24,241.7,-147.12,243.88,-107.93,186.97,-50.039,131.83,-120.26,228.47,-122.74,230.46,-210.45,366.87,-124.84,213.1
-179.24,241.7,-147.12,243.88,-107.93,186.97,-50.039,131.83,-120.26,228.47,-122.74,230.46,-210.45,366.87,-124.84,213.1
-179.57,242.2,-147.39,244.45,-108.2,187.44,-50.132,132.21,-120.34,229.36,-122.9,231.13,-210.79,367.83,-125.02,213.76
-179.57,242.2,-147.39,244.45,-108.2,187.44,-50.132,132.21,-120.34,229.36,-122.9,231.13,-210.79,367.83,-125.02,213.76
-179.9,242.71,-147.65,245.01,-108.47,187.9,-50.226,132.59,-120.43,230.25,-123.05,231.79,-211.14,368.79,-125.2,214.42
-179.9,242.71,-147.65,245.01,-108.47,187.9,-50.226,132.59,-120.43,230.25,-123.05,231.79,-211.14,368.79,-125.2,214.42
-180.23,243.22,-147.92,245.57,-108.73,188.37,-50.32,132.97,-120.51,231.13,-123.21,232.45,-211.49,369.75,-125.38,215.08
-180.23,243.22,-147.92,245.57,-108.73,188.37,-50.32,132.97,-120.51,231.13,-123.21,232.45,-211.49,369.75,-125.38,215.08
-180.55,243.72,-148.19,246.13,-109,188.83,-50.414,133.34,-120.6,232.02,-123.37,233.11,-211.83,370.71,-125.56,215.74
-180.55,243.72,-148.19,246.13,-109,188.83,-50.414,133.34,-120.6,232.02,-123.37,233.11,-211.83,370.71,-125.56,215.74
-180.88,244.23,-148.46,246.69,-109.26,189.29,-50.509,133.72,-120.69,232.91,-123.53,233.77,-212.18,371.67,-125.74,216.4
-180.88,244.23,-148.46,246.69,-109.26,189.29,-50.509,133.72,-120.69,232.91,-123.53,233.77,-212.18,371.67,-125.74,216.4
-181.21,244.73,-148.73,247.24,-109.53,189.76,-50.605,134.09,-120.78,233.79,-123.68,234.43,-212.53,372.63,-125.92,217.06
-181.21,244.73,-148.73,247.24,-109.53,189.76,-50.605,134.09,-120.78,233.79,-123.68,234.43,-212.53,372.63,-125.92,217.06
-181.54,245.23,-149,247.8,-109.8,190.22,-50.701,134.47,-120.86,234.68,-123.84,235.09,-212.87,373.58,-126.09,217.72
-181.54,245.23,-149,247.8,-109.8,190.22,-50.701,134.47,-120.86,234.68,-123.84,235.09,-212.87,373.58,-126.09,217.72
-181.54,245.23,-149,247.8,-109.8,190.22,-50.701,134.47,-120.86,234.68,-123.84,235.09,-212.87,373.58,-126.09,217.72
-181.87,245.74,-149.27,248.36,-110.06,190.68,-50.798,134.84,-120.95,235.56,-124,235.75,-213.22,374.54,-126.27,218.37
-181.87,245.74,-149.27,248.36,-110.06,190.68,-50.798,134.84,-120.95,235.56,-124,235.75,-213.22,374.54,-126.27,218.37
-181.87,245.74,-149.27,248.36,-110.06,190.68,-50.798,134.84,-120.95,235.56,-124,235.75,-213.22,374.54,-126.27,218.37
-182.53,246.74,-149.8,249.46,-110.6,191.59,-50.993,135.58,-121.14,237.33,-124.32,237.06,-213.92,376.45,-126.63,219.68
-182.53,246.74,-149.8,249.46,-110.6,191.59,-50.993,135.58,-121.14,237.33,-124.32,237.06,-213.92,376.45,-126.63,219.68
-182.86,247.24,-150.08,250.01,-110.87,192.05,-51.091,135.95,-121.23,238.21,-124.48,237.71,-214.27,377.4,-126.82,220.34
-182.86,247.24,-150.08,250.01,-110.87,192.05,-51.091,135.95,-121.23,238.21,-124.48,237.71,-214.27,377.4,-126.82,220.34
-182.86,247.24,-150.08,250.01,-110.87,192.05,-51.091,135.95,-121.23,238.21,-124.48,237.71,-214.27,377.4,-126.82,220.34
-183.18,247.74,-150.35,250.56,-111.14,192.5,-51.19,136.32,-121.32,239.09,-124.64,238.37,-214.62,378.35,-127,220.99
-183.51,248.24,-150.62,251.11,-111.4,192.96,-51.29,136.68,-121.41,239.97,-124.8,239.02,-214.97,379.3,-127.18,221.65
-183.84,248.74,-150.89,251.66,-111.67,193.41,-51.39,137.05,-121.51,240.85,-124.96,239.67,-215.33,380.24,-127.36,222.3
-183.84,248.74,-150.89,251.66,-111.67,193.41,-51.39,137.05,-121.51,240.85,-124.96,239.67,-215.33,380.24,-127.36,222.3
-184.17,249.24,-151.16,252.21,-111.94,193.86,-51.491,137.41,-121.6,241.73,-125.13,240.32,-215.68,381.19,-127.54,222.95
-184.17,249.24,-151.16,252.21,-111.94,193.86,-51.491,137.41,-121.6,241.73,-125.13,240.32,-215.68,381.19,-127.54,222.95
-184.17,249.24,-151.16,252.21,-111.94,193.86,-51.491,137.41,-121.6,241.73,-125.13,240.32,-215.68,381.19,-127.54,222.95
-184.5,249.74,-151.43,252.75,-112.21,194.31,-51.592,137.77,-121.7,242.61,-125.29,240.97,-216.03,382.14,-127.72,223.6
-184.5,249.74,-151.43,252.75,-112.21,194.31,-51.592,137.77,-121.7,242.61,-125.29,240.97,-216.03,382.14,-127.72,223.6
-184.83,250.23,-151.7,253.3,-112.48,194.76,-51.694,138.13,-121.8,243.49,-125.45,241.62,-216.39,383.08,-127.9,224.25
-185.15,250.73,-151.98,253.84,-112.75,195.21,-51.796,138.49,-121.9,244.37,-125.62,242.27,-216.74,384.02,-128.09,224.9
-185.15,250.73,-151.98,253.84,-112.75,195.21,-51.796,138.49,-121.9,244.37,-125.62,242.27,-216.74,384.02,-128.09,224.9
-185.15,250.73,-151.98,253.84,-112.75,195.21,-51.796,138.49,-121.9,244.37,-125.62,242.27,-216.74,384.02,-128.09,224.9
-185.48,251.22,-152.25,254.38,-113.02,195.66,-51.899,138.85,-122,245.24,-125.78,242.91,-217.1,384.96,-128.27,225.55
-185.48,251.22,-152.25,254.38,-113.02,195.66,-51.899,138.85,-122,245.24,-125.78,242.91,-217.1,384.96,-128.27,225.55
-185.48,251.22,-152.25,254.38,-113.02,195.66,-51.899,138.85,-122,245.24,-125.78,242.91,-217.1,384.96,-128.27,225.55
-185.81,251.72,-152.52,254.92,-113.29,196.11,-52.002,139.2,-122.1,246.12,-125.94,243.56,-217.45,385.9,-128.45,226.19
-185.81,251.72,-152.52,254.92,-113.29,196.11,-52.002,139.2,-122.1,246.12,-125.94,243.56,-217.45,385.9,-128.45,226.19
-186.14,252.21,-152.8,255.46,-113.56,196.55,-52.106,139.56,-122.2,246.99,-126.11,244.21,-217.81,386.84,-128.63,226.84
-186.47,252.71,-153.07,256,-113.83,197,-52.211,139.91,-122.3,247.87,-126.27,244.85,-218.16,387.78,-128.82,227.48
-186.79,253.2,-153.35,256.53,-114.1,197.44,-52.316,140.26,-122.4,248.74,-126.44,245.49,-218.52,388.72,-129,228.13
-186.79,253.2,-153.35,256.53,-114.1,197.44,-52.316,140.26,-122.4,248.74,-126.44,245.49,-218.52,388.72,-129,228.13
-186.79,253.2,-153.35,256.53,-114.1,197.44,-52.316,140.26,-122.4,248.74,-126.44,245.49,-218.52,388.72,-129,228.13
-186.79,253.2,-153.35,256.53,-114.1,197.44,-52.316,140.26,-122.4,248.74,-126.44,245.49,-218.52,388.72,-129,228.13
-187.12,253.69,-153.62,257.07,-114.38,197.89,-52.422,140.62,-122.51,249.61,-126.61,246.13,-218.88,389.65,-129.18,228.77
-187.12,253.69,-153.62,257.07,-114.38,197.89,-52.422,140.62,-122.51,249.61,-126.61,246.13,-218.88,389.65,-129.18,228.77
-187.12,253.69,-153.62,257.07,-114.38,197.89,-52.422,140.62,-122.51,249.61,-126.61,246.13,-218.88,389.65,-129.18,228.77
-187.77,254.67,-154.17,258.13,-114.92,198.77,-52.636,141.31,-122.72,251.35,-126.94,247.41,-219.6,391.52,-129.55,230.06
-187.77,254.67,-154.17,258.13,-114.92,198.77,-52.636,141.31,-122.72,251.35,-126.94,247.41,-219.6,391.52,-129.55,230.06
-188.1,255.16,-154.45,258.66,-115.19,199.21,-52.743,141.66,-122.83,252.22,-127.11,248.05,-219.96,392.45,-129.74,230.7
-188.1,255.16,-154.45,258.66,-115.19,199.21,-52.743,141.66,-122.83,252.22,-127.11,248.05,-219.96,392.45,-129.74,230.7
-188.1,255.16,-154.45,258.66,-115.19,199.21,-52.743,141.66,-122.83,252.22,-127.11,248.05,-219.96,392.45,-129.74,230.7
-188.43,255.65,-154.73,259.19,-115.47,199.65,-52.851,142,-122.93,253.09,-127.28,248.69,-220.32,393.38,-129.92,231.34
-188.43,255.65,-154.73,259.19,-115.47,199.65,-52.851,142,-122.93,253.09,-127.28,248.69,-220.32,393.38,-129.92,231.34
-188.43,255.65,-154.73,259.19,-115.47,199.65,-52.851,142,-122.93,253.09,-127.28,248.69,-220.32,393.38,-129.92,231.34
-189.08,256.62,-155.28,260.24,-116.01,200.52,-53.07,142.69,-123.15,254.82,-127.62,249.95,-221.04,395.23,-130.29,232.61
-189.08,256.62,-155.28,260.24,-116.01,200.52,-53.07,142.69,-123.15,254.82,-127.62,249.95,-221.04,395.23,-130.29,232.61
-189.08,256.62,-155.28,260.24,-116.01,200.52,-53.07,142.69,-123.15,254.82,-127.62,249.95,-221.04,395.23,-130.29,232.61
-189.41,257.11,-155.56,260.77,-116.28,200.95,-53.18,143.03,-123.27,255.69,-127.79,250.59,-221.4,396.15,-130.48,233.25
-189.74,257.6,-155.84,261.29,-116.56,201.39,-53.29,143.37,-123.38,256.55,-127.96,251.22,-221.77,397.08,-130.67,233.88
-189.74,257.6,-155.84,261.29,-116.56,201.39,-53.29,143.37,-123.38,256.55,-127.96,251.22,-221.77,397.08,-130.67,233.88
-190.06,258.08,-156.12,261.81,-116.83,201.82,-53.401,143.71,-123.49,257.41,-128.13,251.85,-222.13,398,-130.85,234.52
-190.39,258.57,-156.4,262.33,-117.11,202.25,-53.513,144.04,-123.61,258.28,-128.3,252.48,-222.5,398.92,-131.04,235.15
-190.39,258.57,-156.4,262.33,-117.11,202.25,-53.513,144.04,-123.61,258.28,-128.3,252.48,-222.5,398.92,-131.04,235.15
-190.39,258.57,-156.4,262.33,-117.11,202.25,-53.513,144.04,-123.61,258.28,-128.3,252.48,-222.5,398.92,-131.04,235.15
-190.71,259.05,-156.67,262.85,-117.38,202.68,-53.626,144.38,-123.72,259.14,-128.47,253.11,-222.86,399.84,-131.23,235.78
-190.71,259.05,-156.67,262.85,-117.38,202.68,-53.626,144.38,-123.72,259.14,-128.47,253.11,-222.86,399.84,-131.23,235.78
-191.04,259.53,-156.95,263.37,-117.66,203.11,-53.739,144.71,-123.84,260,-128.65,253.73,-223.23,400.75,-131.42,236.41
-191.04,259.53,-156.95,263.37,-117.66,203.11,-53.739,144.71,-123.84,260,-128.65,253.73,-223.23,400.75,-131.42,236.41
-191.04,259.53,-156.95,263.37,-117.66,203.11,-53.739,144.71,-123.84,260,-128.65,253.73,-223.23,400.75,-131.42,236.41
-191.37,260.01,-157.24,263.88,-117.93,203.54,-53.853,145.04,-123.96,260.85,-128.82,254.36,-223.6,401.67,-131.6,237.04
-191.69,260.5,-157.52,264.4,-118.21,203.97,-53.967,145.37,-124.08,261.71,-129,254.98,-223.96,402.58,-131.79,237.67
-192.02,260.98,-157.8,264.91,-118.48,204.39,-54.082,145.7,-124.2,262.56,-129.17,255.6,-224.33,403.49,-131.98,238.3
-192.02,260.98,-157.8,264.91,-118.48,204.39,-54.082,145.7,-124.2,262.56,-129.17,255.6,-224.33,403.49,-131.98,238.3
-192.02,260.98,-157.8,264.91,-118.48,204.39,-54.082,145.7,-124.2,262.56,-129.17,255.6,-224.33,403.49,-131.98,238.3
-192.34,261.46,-158.08,265.42,-118.76,204.82,-54.197,146.03,-124.32,263.42,-129.35,256.22,-224.7,404.4,-132.17,238.92
-192.34,261.46,-158.08,265.42,-118.76,204.82,-54.197,146.03,-124.32,263.42,-129.35,256.22,-224.7,404.4,-132.17,238.92
-192.34,261.46,-158.08,265.42,-118.76,204.82,-54.197,146.03,-124.32,263.42,-129.35,256.22,-224.7,404.4,-132.17,238.92
-192.67,261.93,-158.36,265.93,-119.03,205.24,-54.314,146.36,-124.45,264.27,-129.53,256.84,-225.07,405.31,-132.36,239.55
-192.67,261.93,-158.36,265.93,-119.03,205.24,-54.314,146.36,-124.45,264.27,-129.53,256.84,-225.07,405.31,-132.36,239.55
-192.67,261.93,-158.36,265.93,-119.03,205.24,-54.314,146.36,-124.45,264.27,-129.53,256.84,-225.07,405.31,-132.36,239.55
-192.67,261.93,-158.36,265.93,-119.03,205.24,-54.314,146.36,-124.45,264.27,-129.53,256.84,-225.07,405.31,-132.36,239.55
-193.32,262.89,-158.93,266.95,-119.59,206.08,-54.548,147,-124.7,265.97,-129.88,258.08,-225.81,407.12,-132.74,240.79
-193.32,262.89,-158.93,266.95,-119.59,206.08,-54.548,147,-124.7,265.97,-129.88,258.08,-225.81,407.12,-132.74,240.79
-193.97,263.84,-159.49,267.96,-120.14,206.92,-54.785,147.64,-124.95,267.67,-130.24,259.31,-226.56,408.92,-133.12,242.04
-193.97,263.84,-159.49,267.96,-120.14,206.92,-54.785,147.64,-124.95,267.67,-130.24,259.31,-226.56,408.92,-133.12,242.04
-194.29,264.32,-159.78,268.46,-120.42,207.34,-54.904,147.96,-125.08,268.51,-130.42,259.92,-226.93,409.82,-133.31,242.65
-194.29,264.32,-159.78,268.46,-120.42,207.34,-54.904,147.96,-125.08,268.51,-130.42,259.92,-226.93,409.82,-133.31,242.65
-194.29,264.32,-159.78,268.46,-120.42,207.34,-54.904,147.96,-125.08,268.51,-130.42,259.92,-226.93,409.82,-133.31,242.65
-194.62,264.79,-160.06,268.96,-120.7,207.75,-55.024,148.28,-125.21,269.36,-130.6,260.53,-227.31,410.72,-133.5,243.27
-194.62,264.79,-160.06,268.96,-120.7,207.75,-55.024,148.28,-125.21,269.36,-130.6,260.53,-227.31,410.72,-133.5,243.27
-194.62,264.79,-160.06,268.96,-120.7,207.75,-55.024,148.28,-125.21,269.36,-130.6,260.53,-227.31,410.72,-133.5,243.27
-194.94,265.26,-160.35,269.46,-120.97,208.17,-55.145,148.59,-125.35,270.2,-130.79,261.14,-227.68,411.62,-133.7,243.89
-194.94,265.26,-160.35,269.46,-120.97,208.17,-55.145,148.59,-125.35,270.2,-130.79,261.14,-227.68,411.62,-133.7,243.89
-194.94,265.26,-160.35,269.46,-120.97,208.17,-55.145,148.59,-125.35,270.2,-130.79,261.14,-227.68,411.62,-133.7,243.89
-195.59,266.21,-160.92,270.45,-121.53,208.99,-55.388,149.22,-125.61,271.88,-131.15,262.35,-228.43,413.4,-134.08,245.12
-195.59,266.21,-160.92,270.45,-121.53,208.99,-55.388,149.22,-125.61,271.88,-131.15,262.35,-228.43,413.4,-134.08,245.12
-195.91,266.68,-161.2,270.94,-121.81,209.41,-55.511,149.53,-125.75,272.72,-131.34,262.96,-228.81,414.29,-134.28,245.73
-195.91,266.68,-161.2,270.94,-121.81,209.41,-55.511,149.53,-125.75,272.72,-131.34,262.96,-228.81,414.29,-134.28,245.73
-196.23,267.15,-161.49,271.43,-122.09,209.81,-55.634,149.84,-125.89,273.56,-131.52,263.56,-229.19,415.18,-134.47,246.34
-196.23,267.15,-161.49,271.43,-122.09,209.81,-55.634,149.84,-125.89,273.56,-131.52,263.56,-229.19,415.18,-134.47,246.34
-196.56,267.62,-161.78,271.92,-122.37,210.22,-55.758,150.15,-126.03,274.39,-131.71,264.16,-229.57,416.07,-134.66,246.95
-196.56,267.62,-161.78,271.92,-122.37,210.22,-55.758,150.15,-126.03,274.39,-131.71,264.16,-229.57,416.07,-134.66,246.95
-196.88,268.09,-162.07,272.41,-122.65,210.63,-55.882,150.45,-126.17,275.23,-131.89,264.76,-229.95,416.95,-134.86,247.56
-196.88,268.09,-162.07,272.41,-122.65,210.63,-55.882,150.45,-126.17,275.23,-131.89,264.76,-229.95,416.95,-134.86,247.56
-197.2,268.55,-162.35,272.9,-122.93,211.04,-56.007,150.75,-126.31,276.06,-132.08,265.36,-230.33,417.84,-135.05,248.16
-197.2,268.55,-162.35,272.9,-122.93,211.04,-56.007,150.75,-126.31,276.06,-132.08,265.36,-230.33,417.84,-135.05,248.16
-197.53,269.02,-162.64,273.39,-123.21,211.44,-56.133,151.06,-126.45,276.89,-132.27,265.96,-230.71,418.72,-135.25,248.77
-197.53,269.02,-162.64,273.39,-123.21,211.44,-56.133,151.06,-126.45,276.89,-132.27,265.96,-230.71,418.72,-135.25,248.77
-197.85,269.49,-162.93,273.87,-123.49,211.84,-56.26,151.36,-126.59,277.72,-132.46,266.55,-231.09,419.6,-135.44,249.37
-197.85,269.49,-162.93,273.87,-123.49,211.84,-56.26,151.36,-126.59,277.72,-132.46,266.55,-231.09,419.6,-135.44,249.37
-198.17,269.95,-163.22,274.35,-123.77,212.25,-56.387,151.66,-126.74,278.55,-132.65,267.14,-231.47,420.47,-135.64,249.98
-198.49,270.42,-163.51,274.83,-124.05,212.65,-56.514,151.95,-126.89,279.37,-132.84,267.74,-231.86,421.35,-135.83,250.58
-198.49,270.42,-163.51,274.83,-124.05,212.65,-56.514,151.95,-126.89,279.37,-132.84,267.74,-231.86,421.35,-135.83,250.58
-198.81,270.88,-163.8,275.31,-124.33,213.05,-56.643,152.25,-127.03,280.2,-133.03,268.32,-232.24,422.22,-136.03,251.18
-198.81,270.88,-163.8,275.31,-124.33,213.05,-56.643,152.25,-127.03,280.2,-133.03,268.32,-232.24,422.22,-136.03,251.18
-198.81,270.88,-163.8,275.31,-124.33,213.05,-56.643,152.25,-127.03,280.2,-133.03,268.32,-232.24,422.22,-136.03,251.18
-199.14,271.34,-164.09,275.79,-124.61,213.44,-56.772,152.54,-127.18,281.02,-133.22,268.91,-232.63,423.09,-136.23,251.77
-199.14,271.34,-164.09,275.79,-124.61,213.44,-56.772,152.54,-127.18,281.02,-133.22,268.91,-232.63,423.09,-136.23,251.77
-199.46,271.8,-164.38,276.26,-124.89,213.84,-56.902,152.84,-127.34,281.84,-133.42,269.5,-233.01,423.96,-136.43,252.37
-199.78,272.26,-164.67,276.74,-125.17,214.24,-57.032,153.13,-127.49,282.66,-133.61,270.08,-233.4,424.83,-136.62,252.97
-199.78,272.26,-164.67,276.74,-125.17,214.24,-57.032,153.13,-127.49,282.66,-133.61,270.08,-233.4,424.83,-136.62,252.97
-200.1,272.72,-164.96,277.21,-125.45,214.63,-57.163,153.42,-127.64,283.47,-133.81,270.67,-233.79,425.69,-136.82,253.56
-200.1,272.72,-164.96,277.21,-125.45,214.63,-57.163,153.42,-127.64,283.47,-133.81,270.67,-233.79,425.69,-136.82,253.56
-200.42,273.18,-165.26,277.68,-125.74,215.02,-57.295,153.7,-127.8,284.29,-134,271.25,-234.18,426.56,-137.02,254.15
-200.42,273.18,-165.26,277.68,-125.74,215.02,-57.295,153.7,-127.8,284.29,-134,271.25,-234.18,426.56,-137.02,254.15
-200.74,273.64,-165.55,278.15,-126.02,215.41,-57.427,153.99,-127.95,285.1,-134.2,271.83,-234.57,427.42,-137.22,254.74
-200.74,273.64,-165.55,278.15,-126.02,215.41,-57.427,153.99,-127.95,285.1,-134.2,271.83,-234.57,427.42,-137.22,254.74
-200.74,273.64,-165.55,278.15,-126.02,215.41,-57.427,153.99,-127.95,285.1,-134.2,271.83,-234.57,427.42,-137.22,254.74
-201.06,274.1,-165.84,278.61,-126.3,215.8,-57.56,154.27,-128.11,285.91,-134.4,272.41,-234.96,428.27,-137.42,255.33
-201.06,274.1,-165.84,278.61,-126.3,215.8,-57.56,154.27,-128.11,285.91,-134.4,272.41,-234.96,428.27,-137.42,255.33
-201.06,274.1,-165.84,278.61,-126.3,215.8,-57.56,154.27,-128.11,285.91,-134.4,272.41,-234.96,428.27,-137.42,255.33
-201.38,274.55,-166.14,279.08,-126.58,216.19,-57.694,154.56,-128.27,286.72,-134.6,272.98,-235.35,429.13,-137.62,255.92
-201.38,274.55,-166.14,279.08,-126.58,216.19,-57.694,154.56,-128.27,286.72,-134.6,272.98,-235.35,429.13,-137.62,255.92
-202.02,275.46,-166.73,280,-127.15,216.97,-57.963,155.12,-128.6,288.34,-135,274.13,-236.13,430.84,-138.02,257.09
-202.02,275.46,-166.73,280,-127.15,216.97,-57.963,155.12,-128.6,288.34,-135,274.13,-236.13,430.84,-138.02,257.09
-202.02,275.46,-166.73,280,-127.15,216.97,-57.963,155.12,-128.6,288.34,-135,274.13,-236.13,430.84,-138.02,257.09
-202.34,275.92,-167.02,280.46,-127.43,217.35,-58.099,155.39,-128.76,289.14,-135.2,274.7,-236.53,431.69,-138.22,257.67
-202.34,275.92,-167.02,280.46,-127.43,217.35,-58.099,155.39,-128.76,289.14,-135.2,274.7,-236.53,431.69,-138.22,257.67
-202.66,276.37,-167.32,280.92,-127.71,217.74,-58.235,155.67,-128.92,289.94,-135.4,275.27,-236.92,432.54,-138.43,258.26
-202.66,276.37,-167.32,280.92,-127.71,217.74,-58.235,155.67,-128.92,289.94,-135.4,275.27,-236.92,432.54,-138.43,258.26
-202.98,276.82,-167.61,281.37,-128,218.12,-58.372,155.94,-129.09,290.74,-135.6,275.83,-237.32,433.38,-138.63,258.84
-203.3,277.27,-167.91,281.83,-128.28,218.5,-58.51,156.21,-129.26,291.54,-135.81,276.4,-237.71,434.23,-138.83,259.41
-203.3,277.27,-167.91,281.83,-128.28,218.5,-58.51,156.21,-129.26,291.54,-135.81,276.4,-237.71,434.23,-138.83,259.41
-203.3,277.27,-167.91,281.83,-128.28,218.5,-58.51,156.21,-129.26,291.54,-135.81,276.4,-237.71,434.23,-138.83,259.41
-203.61,277.72,-168.2,282.28,-128.57,218.88,-58.648,156.49,-129.43,292.34,-136.01,276.96,-238.11,435.07,-139.03,259.99
-203.61,277.72,-168.2,282.28,-128.57,218.88,-58.648,156.49,-129.43,292.34,-136.01,276.96,-238.11,435.07,-139.03,259.99
-203.93,278.17,-168.5,282.73,-128.85,219.26,-58.787,156.75,-129.6,293.13,-136.22,277.52,-238.51,435.91,-139.24,260.57
-203.93,278.17,-168.5,282.73,-128.85,219.26,-58.787,156.75,-129.6,293.13,-136.22,277.52,-238.51,435.91,-139.24,260.57
-204.25,278.62,-168.8,283.18,-129.13,219.63,-58.927,157.02,-129.78,293.93,-136.43,278.08,-238.91,436.74,-139.44,261.14
-204.25,278.62,-168.8,283.18,-129.13,219.63,-58.927,157.02,-129.78,293.93,-136.43,278.08,-238.91,436.74,-139.44,261.14
-204.57,279.07,-169.1,283.62,-129.42,220.01,-59.067,157.29,-129.95,294.72,-136.63,278.64,-239.3,437.58,-139.65,261.71
-204.57,279.07,-169.1,283.62,-129.42,220.01,-59.067,157.29,-129.95,294.72,-136.63,278.64,-239.3,437.58,-139.65,261.71
-204.88,279.52,-169.4,284.07,-129.7,220.38,-59.208,157.55,-130.13,295.5,-136.84,279.19,-239.7,438.41,-139.85,262.28
-204.88,279.52,-169.4,284.07,-129.7,220.38,-59.208,157.55,-130.13,295.5,-136.84,279.19,-239.7,438.41,-139.85,262.28
-205.2,279.96,-169.69,284.51,-129.99,220.75,-59.349,157.81,-130.3,296.29,-137.05,279.75,-240.11,439.24,-140.06,262.85
-205.2,279.96,-169.69,284.51,-129.99,220.75,-59.349,157.81,-130.3,296.29,-137.05,279.75,-240.11,439.24,-140.06,262.85
-205.2,279.96,-169.69,284.51,-129.99,220.75,-59.349,157.81,-130.3,296.29,-137.05,279.75,-240.11,439.24,-140.06,262.85
-205.52,280.41,-169.99,284.95,-130.27,221.12,-59.492,158.07,-130.48,297.08,-137.26,280.3,-240.51,440.07,-140.26,263.42
-205.52,280.41,-169.99,284.95,-130.27,221.12,-59.492,158.07,-130.48,297.08,-137.26,280.3,-240.51,440.07,-140.26,263.42
-205.52,280.41,-169.99,284.95,-130.27,221.12,-59.492,158.07,-130.48,297.08,-137.26,280.3,-240.51,440.07,-140.26,263.42
-206.15,281.29,-170.59,285.83,-130.84,221.86,-59.778,158.59,-130.85,298.64,-137.69,281.39,-241.31,441.72,-140.67,264.54
-206.15,281.29,-170.59,285.83,-130.84,221.86,-59.778,158.59,-130.85,298.64,-137.69,281.39,-241.31,441.72,-140.67,264.54
-206.46,281.74,-170.89,286.26,-131.13,222.23,-59.922,158.84,-131.03,299.42,-137.9,281.94,-241.72,442.54,-140.88,265.11
-206.46,281.74,-170.89,286.26,-131.13,222.23,-59.922,158.84,-131.03,299.42,-137.9,281.94,-241.72,442.54,-140.88,265.11
-206.78,282.18,-171.2,286.7,-131.41,222.6,-60.067,159.1,-131.21,300.19,-138.12,282.48,-242.12,443.36,-141.09,265.67
-206.78,282.18,-171.2,286.7,-131.41,222.6,-60.067,159.1,-131.21,300.19,-138.12,282.48,-242.12,443.36,-141.09,265.67
-207.09,282.62,-171.5,287.13,-131.7,222.96,-60.213,159.35,-131.4,300.96,-138.33,283.02,-242.53,444.17,-141.3,266.22
-207.09,282.62,-171.5,287.13,-131.7,222.96,-60.213,159.35,-131.4,300.96,-138.33,283.02,-242.53,444.17,-141.3,266.22
-207.41,283.06,-171.8,287.56,-131.99,223.32,-60.359,159.6,-131.59,301.74,-138.55,283.56,-242.94,444.99,-141.5,266.78
-207.41,283.06,-171.8,287.56,-131.99,223.32,-60.359,159.6,-131.59,301.74,-138.55,283.56,-242.94,444.99,-141.5,266.78
-207.72,283.49,-172.1,287.98,-132.27,223.68,-60.506,159.85,-131.78,302.51,-138.77,284.1,-243.35,445.8,-141.71,267.33
-208.04,283.93,-172.4,288.41,-132.56,224.04,-60.653,160.09,-131.97,303.27,-138.99,284.63,-243.75,446.61,-141.92,267.89
-208.04,283.93,-172.4,288.41,-132.56,224.04,-60.653,160.09,-131.97,303.27,-138.99,284.63,-243.75,446.61,-141.92,267.89
-208.35,284.37,-172.71,288.83,-132.84,224.4,-60.801,160.34,-132.17,304.04,-139.21,285.17,-244.16,447.41,-142.13,268.44
-208.35,284.37,-172.71,288.83,-132.84,224.4,-60.801,160.34,-132.17,304.04,-139.21,285.17,-244.16,447.41,-142.13,268.44
-208.35,284.37,-172.71,288.83,-132.84,224.4,-60.801,160.34,-132.17,304.04,-139.21,285.17,-244.16,447.41,-142.13,268.44
-208.66,284.8,-173.01,289.25,-133.13,224.76,-60.95,160.58,-132.36,304.8,-139.43,285.7,-244.57,448.22,-142.34,268.99
-208.66,284.8,-173.01,289.25,-133.13,224.76,-60.95,160.58,-132.36,304.8,-139.43,285.7,-244.57,448.22,-142.34,268.99
-208.98,285.24,-173.32,289.67,-133.42,225.12,-61.099,160.82,-132.56,305.56,-139.65,286.23,-244.99,449.02,-142.55,269.54
-208.98,285.24,-173.32,289.67,-133.42,225.12,-61.099,160.82,-132.56,305.56,-139.65,286.23,-244.99,449.02,-142.55,269.54
-209.29,285.67,-173.62,290.09,-133.7,225.47,-61.25,161.06,-132.75,306.32,-139.87,286.75,-245.4,449.82,-142.76,270.08
-209.6,286.1,-173.93,290.51,-133.99,225.82,-61.4,161.3,-132.95,307.07,-140.1,287.28,-245.81,450.62,-142.98,270.63
-209.6,286.1,-173.93,290.51,-133.99,225.82,-61.4,161.3,-132.95,307.07,-140.1,287.28,-245.81,450.62,-142.98,270.63
-209.91,286.54,-174.23,290.92,-134.28,226.18,-61.552,161.53,-133.16,307.83,-140.32,287.8,-246.23,451.41,-143.19,271.17
-209.91,286.54,-174.23,290.92,-134.28,226.18,-61.552,161.53,-133.16,307.83,-140.32,287.8,-246.23,451.41,-143.19,271.17
-209.91,286.54,-174.23,290.92,-134.28,226.18,-61.552,161.53,-133.16,307.83,-140.32,287.8,-246.23,451.41,-143.19,271.17
-210.22,286.97,-174.54,291.33,-134.56,226.53,-61.704,161.77,-133.36,308.58,-140.55,288.32,-246.64,452.2,-143.4,271.71
-210.22,286.97,-174.54,291.33,-134.56,226.53,-61.704,161.77,-133.36,308.58,-140.55,288.32,-246.64,452.2,-143.4,271.71
-210.22,286.97,-174.54,291.33,-134.56,226.53,-61.704,161.77,-133.36,308.58,-140.55,288.32,-246.64,452.2,-143.4,271.71
-210.53,287.4,-174.84,291.74,-134.85,226.87,-61.856,162,-133.56,309.33,-140.77,288.84,-247.06,452.99,-143.61,272.25
-210.84,287.83,-175.15,292.15,-135.14,227.22,-62.009,162.23,-133.77,310.08,-141,289.36,-247.47,453.78,-143.83,272.78
-211.15,288.25,-175.46,292.56,-135.43,227.57,-62.163,162.46,-133.98,310.82,-141.23,289.87,-247.89,454.57,-144.04,273.32
-211.15,288.25,-175.46,292.56,-135.43,227.57,-62.163,162.46,-133.98,310.82,-141.23,289.87,-247.89,454.57,-144.04,273.32
-211.15,288.25,-175.46,292.56,-135.43,227.57,-62.163,162.46,-133.98,310.82,-141.23,289.87,-247.89,454.57,-144.04,273.32
-211.46,288.68,-175.76,292.96,-135.71,227.91,-62.318,162.69,-134.19,311.56,-141.46,290.38,-248.31,455.35,-144.25,273.85
-211.46,288.68,-175.76,292.96,-135.71,227.91,-62.318,162.69,-134.19,311.56,-141.46,290.38,-248.31,455.35,-144.25,273.85
-211.46,288.68,-175.76,292.96,-135.71,227.91,-62.318,162.69,-134.19,311.56,-141.46,290.38,-248.31,455.35,-144.25,273.85
-211.77,289.11,-176.07,293.36,-136,228.26,-62.473,162.91,-134.4,312.3,-141.69,290.89,-248.73,456.13,-144.47,274.38
-211.77,289.11,-176.07,293.36,-136,228.26,-62.473,162.91,-134.4,312.3,-141.69,290.89,-248.73,456.13,-144.47,274.38
-212.08,289.53,-176.38,293.76,-136.29,228.6,-62.629,163.14,-134.61,313.04,-141.93,291.4,-249.15,456.91,-144.68,274.91
-212.39,289.96,-176.69,294.16,-136.58,228.94,-62.785,163.36,-134.82,313.77,-142.16,291.9,-249.57,457.68,-144.9,275.44
-212.7,290.38,-177,294.56,-136.86,229.28,-62.942,163.58,-135.04,314.51,-142.39,292.41,-249.99,458.45,-145.11,275.96
-212.7,290.38,-177,294.56,-136.86,229.28,-62.942,163.58,-135.04,314.51,-142.39,292.41,-249.99,458.45,-145.11,275.96
-212.7,290.38,-177,294.56,-136.86,229.28,-62.942,163.58,-135.04,314.51,-142.39,292.41,-249.99,458.45,-145.11,275.96
-213.01,290.8,-177.31,294.95,-137.15,229.62,-63.1,163.8,-135.26,315.24,-142.63,292.91,-250.41,459.22,-145.33,276.49
-213.01,290.8,-177.31,294.95,-137.15,229.62,-63.1,163.8,-135.26,315.24,-142.63,292.91,-250.41,459.22,-145.33,276.49
-213.31,291.22,-177.62,295.34,-137.44,229.95,-63.258,164.01,-135.48,315.96,-142.87,293.41,-250.83,459.99,-145.55,277.01
-213.31,291.22,-177.62,295.34,-137.44,229.95,-63.258,164.01,-135.48,315.96,-142.87,293.41,-250.83,459.99,-145.55,277.01
-213.62,291.64,-177.93,295.73,-137.73,230.29,-63.417,164.23,-135.7,316.69,-143.1,293.9,-251.26,460.75,-145.76,277.53
-213.62,291.64,-177.93,295.73,-137.73,230.29,-63.417,164.23,-135.7,316.69,-143.1,293.9,-251.26,460.75,-145.76,277.53
-213.62,291.64,-177.93,295.73,-137.73,230.29,-63.417,164.23,-135.7,316.69,-143.1,293.9,-251.26,460.75,-145.76,277.53
-213.93,292.06,-178.24,296.12,-138.01,230.62,-63.576,164.44,-135.92,317.41,-143.34,294.4,-251.68,461.52,-145.98,278.05
-213.93,292.06,-178.24,296.12,-138.01,230.62,-63.576,164.44,-135.92,317.41,-143.34,294.4,-251.68,461.52,-145.98,278.05
-213.93,292.06,-178.24,296.12,-138.01,230.62,-63.576,164.44,-135.92,317.41,-143.34,294.4,-251.68,461.52,-145.98,278.05
-214.54,292.9,-178.86,296.89,-138.59,231.28,-63.897,164.86,-136.37,318.85,-143.82,295.38,-252.54,463.03,-146.42,279.08
-214.54,292.9,-178.86,296.89,-138.59,231.28,-63.897,164.86,-136.37,318.85,-143.82,295.38,-252.54,463.03,-146.42,279.08
-214.84,293.32,-179.17,297.27,-138.88,231.61,-64.058,165.07,-136.59,319.57,-144.07,295.87,-252.96,463.79,-146.64,279.59
-214.84,293.32,-179.17,297.27,-138.88,231.61,-64.058,165.07,-136.59,319.57,-144.07,295.87,-252.96,463.79,-146.64,279.59
-214.84,293.32,-179.17,297.27,-138.88,231.61,-64.058,165.07,-136.59,319.57,-144.07,295.87,-252.96,463.79,-146.64,279.59
-215.15,293.73,-179.48,297.65,-139.17,231.94,-64.22,165.28,-136.82,320.28,-144.31,296.35,-253.39,464.54,-146.86,280.1
-215.15,293.73,-179.48,297.65,-139.17,231.94,-64.22,165.28,-136.82,320.28,-144.31,296.35,-253.39,464.54,-146.86,280.1
-215.76,294.56,-180.11,298.41,-139.74,232.59,-64.546,165.68,-137.29,321.7,-144.8,297.32,-254.25,466.03,-147.3,281.11
-215.76,294.56,-180.11,298.41,-139.74,232.59,-64.546,165.68,-137.29,321.7,-144.8,297.32,-254.25,466.03,-147.3,281.11
-216.06,294.97,-180.42,298.78,-140.03,232.91,-64.71,165.88,-137.52,322.4,-145.04,297.8,-254.68,466.78,-147.52,281.62
-216.06,294.97,-180.42,298.78,-140.03,232.91,-64.71,165.88,-137.52,322.4,-145.04,297.8,-254.68,466.78,-147.52,281.62
-216.06,294.97,-180.42,298.78,-140.03,232.91,-64.71,165.88,-137.52,322.4,-145.04,297.8,-254.68,466.78,-147.52,281.62
-216.36,295.39,-180.74,299.15,-140.32,233.24,-64.874,166.08,-137.75,323.11,-145.29,298.27,-255.11,467.52,-147.74,282.12
-216.36,295.39,-180.74,299.15,-140.32,233.24,-64.874,166.08,-137.75,323.11,-145.29,298.27,-255.11,467.52,-147.74,282.12
-216.36,295.39,-180.74,299.15,-140.32,233.24,-64.874,166.08,-137.75,323.11,-145.29,298.27,-255.11,467.52,-147.74,282.12
-216.66,295.8,-181.05,299.52,-140.61,233.56,-65.039,166.28,-137.99,323.81,-145.54,298.75,-255.54,468.26,-147.96,282.62
-216.97,296.21,-181.36,299.89,-140.89,233.88,-65.204,166.47,-138.23,324.51,-145.79,299.22,-255.98,468.99,-148.18,283.12
-217.27,296.61,-181.68,300.26,-141.18,234.2,-65.37,166.67,-138.47,325.2,-146.04,299.69,-256.41,469.73,-148.4,283.61
-217.27,296.61,-181.68,300.26,-141.18,234.2,-65.37,166.67,-138.47,325.2,-146.04,299.69,-256.41,469.73,-148.4,283.61
-217.57,297.02,-181.99,300.62,-141.47,234.51,-65.537,166.86,-138.71,325.89,-146.29,300.15,-256.85,470.46,-148.63,284.11
-217.57,297.02,-181.99,300.62,-141.47,234.51,-65.537,166.86,-138.71,325.89,-146.29,300.15,-256.85,470.46,-148.63,284.11
-217.57,297.02,-181.99,300.62,-141.47,234.51,-65.537,166.86,-138.71,325.89,-146.29,300.15,-256.85,470.46,-148.63,284.11
-217.87,297.43,-182.31,300.98,-141.76,234.83,-65.704,167.05,-138.96,326.58,-146.54,300.62,-257.28,471.18,-148.85,284.6
-217.87,297.43,-182.31,300.98,-141.76,234.83,-65.704,167.05,-138.96,326.58,-146.54,300.62,-257.28,471.18,-148.85,284.6
-217.87,297.43,-182.31,300.98,-141.76,234.83,-65.704,167.05,-138.96,326.58,-146.54,300.62,-257.28,471.18,-148.85,284.6
-218.47,298.24,-182.94,301.7,-142.33,235.45,-66.04,167.43,-139.45,327.96,-147.05,301.54,-258.16,472.63,-149.3,285.58
-218.47,298.24,-182.94,301.7,-142.33,235.45,-66.04,167.43,-139.45,327.96,-147.05,301.54,-258.16,472.63,-149.3,285.58
-218.47,298.24,-182.94,301.7,-142.33,235.45,-66.04,167.43,-139.45,327.96,-147.05,301.54,-258.16,472.63,-149.3,285.58
-218.77,298.64,-183.26,302.05,-142.62,235.77,-66.209,167.61,-139.7,328.64,-147.31,302,-258.59,473.35,-149.52,286.06
-218.77,298.64,-183.26,302.05,-142.62,235.77,-66.209,167.61,-139.7,328.64,-147.31,302,-258.59,473.35,-149.52,286.06
-218.77,298.64,-183.26,302.05,-142.62,235.77,-66.209,167.61,-139.7,328.64,-147.31,302,-258.59,473.35,-149.52,286.06
-218.77,298.64,-183.26,302.05,-142.62,235.77,-66.209,167.61,-139.7,328.64,-147.31,302,-258.59,473.35,-149.52,286.06
-219.36,299.45,-183.89,302.76,-143.19,236.38,-66.548,167.98,-140.2,330,-147.83,302.91,-259.47,474.78,-149.97,287.03
-219.36,299.45,-183.89,302.76,-143.19,236.38,-66.548,167.98,-140.2,330,-147.83,302.91,-259.47,474.78,-149.97,287.03
-219.36,299.45,-183.89,302.76,-143.19,236.38,-66.548,167.98,-140.2,330,-147.83,302.91,-259.47,474.78,-149.97,287.03
-219.66,299.85,-184.21,303.11,-143.48,236.69,-66.719,168.16,-140.45,330.67,-148.08,303.36,-259.91,475.49,-150.2,287.51
-219.95,300.25,-184.52,303.46,-143.77,237,-66.89,168.33,-140.71,331.34,-148.34,303.81,-260.35,476.2,-150.42,287.99
-220.25,300.65,-184.84,303.8,-144.06,237.3,-67.062,168.51,-140.96,332.01,-148.61,304.25,-260.8,476.91,-150.65,288.47
-220.25,300.65,-184.84,303.8,-144.06,237.3,-67.062,168.51,-140.96,332.01,-148.61,304.25,-260.8,476.91,-150.65,288.47
-220.25,300.65,-184.84,303.8,-144.06,237.3,-67.062,168.51,-140.96,332.01,-148.61,304.25,-260.8,476.91,-150.65,288.47
-220.55,301.05,-185.16,304.14,-144.34,237.6,-67.234,168.68,-141.22,332.68,-148.87,304.7,-261.24,477.61,-150.88,288.94
-220.55,301.05,-185.16,304.14,-144.34,237.6,-67.234,168.68,-141.22,332.68,-148.87,304.7,-261.24,477.61,-150.88,288.94
-220.84,301.44,-185.48,304.48,-144.63,237.91,-67.407,168.86,-141.48,333.34,-149.13,305.14,-261.68,478.31,-151.11,289.41
-220.84,301.44,-185.48,304.48,-144.63,237.91,-67.407,168.86,-141.48,333.34,-149.13,305.14,-261.68,478.31,-151.11,289.41
-220.84,301.44,-185.48,304.48,-144.63,237.91,-67.407,168.86,-141.48,333.34,-149.13,305.14,-261.68,478.31,-151.11,289.41
-221.13,301.84,-185.8,304.82,-144.92,238.21,-67.58,169.03,-141.74,334,-149.4,305.58,-262.13,479.01,-151.33,289.88
-221.43,302.24,-186.12,305.16,-145.2,238.5,-67.754,169.2,-142,334.66,-149.66,306.01,-262.57,479.71,-151.56,290.35
-221.43,302.24,-186.12,305.16,-145.2,238.5,-67.754,169.2,-142,334.66,-149.66,306.01,-262.57,479.71,-151.56,290.35
-221.72,302.63,-186.44,305.5,-145.49,238.8,-67.928,169.37,-142.27,335.32,-149.93,306.45,-263.02,480.4,-151.79,290.82
-221.72,302.63,-186.44,305.5,-145.49,238.8,-67.928,169.37,-142.27,335.32,-149.93,306.45,-263.02,480.4,-151.79,290.82
-222.01,303.02,-186.76,305.83,-145.78,239.1,-68.103,169.53,-142.54,335.97,-150.2,306.88,-263.46,481.09,-152.02,291.28
-222.01,303.02,-186.76,305.83,-145.78,239.1,-68.103,169.53,-142.54,335.97,-150.2,306.88,-263.46,481.09,-152.02,291.28
-222.3,303.42,-187.08,306.16,-146.06,239.39,-68.278,169.7,-142.8,336.62,-150.47,307.31,-263.91,481.78,-152.25,291.74
-222.3,303.42,-187.08,306.16,-146.06,239.39,-68.278,169.7,-142.8,336.62,-150.47,307.31,-263.91,481.78,-152.25,291.74
-222.3,303.42,-187.08,306.16,-146.06,239.39,-68.278,169.7,-142.8,336.62,-150.47,307.31,-263.91,481.78,-152.25,291.74
-222.6,303.81,-187.4,306.49,-146.35,239.69,-68.454,169.86,-143.07,337.27,-150.74,307.74,-264.36,482.46,-152.48,292.2
-222.89,304.2,-187.72,306.81,-146.64,239.98,-68.63,170.02,-143.34,337.92,-151.01,308.16,-264.81,483.14,-152.71,292.66
-223.18,304.59,-188.04,307.14,-146.92,240.27,-68.807,170.18,-143.62,338.56,-151.28,308.58,-265.26,483.82,-152.94,293.11
-223.18,304.59,-188.04,307.14,-146.92,240.27,-68.807,170.18,-143.62,338.56,-151.28,308.58,-265.26,483.82,-152.94,293.11
-223.47,304.98,-188.36,307.46,-147.21,240.56,-68.984,170.34,-143.89,339.2,-151.55,309,-265.71,484.5,-153.17,293.57
-223.47,304.98,-188.36,307.46,-147.21,240.56,-68.984,170.34,-143.89,339.2,-151.55,309,-265.71,484.5,-153.17,293.57
-223.47,304.98,-188.36,307.46,-147.21,240.56,-68.984,170.34,-143.89,339.2,-151.55,309,-265.71,484.5,-153.17,293.57
-223.75,305.36,-188.68,307.78,-147.49,240.85,-69.162,170.49,-144.17,339.84,-151.83,309.42,-266.16,485.17,-153.4,294.02
-223.75,305.36,-188.68,307.78,-147.49,240.85,-69.162,170.49,-144.17,339.84,-151.83,309.42,-266.16,485.17,-153.4,294.02
-224.04,305.75,-189,308.1,-147.78,241.13,-69.34,170.65,-144.44,340.47,-152.1,309.84,-266.61,485.84,-153.63,294.47
-224.33,306.13,-189.32,308.42,-148.06,241.42,-69.519,170.8,-144.72,341.1,-152.38,310.25,-267.06,486.51,-153.86,294.92
-224.33,306.13,-189.32,308.42,-148.06,241.42,-69.519,170.8,-144.72,341.1,-152.38,310.25,-267.06,486.51,-153.86,294.92
-224.62,306.52,-189.64,308.73,-148.35,241.7,-69.698,170.95,-145,341.73,-152.66,310.66,-267.51,487.17,-154.09,295.36
-224.62,306.52,-189.64,308.73,-148.35,241.7,-69.698,170.95,-145,341.73,-152.66,310.66,-267.51,487.17,-154.09,295.36
-224.9,306.9,-189.97,309.04,-148.63,241.99,-69.878,171.1,-145.29,342.36,-152.93,311.07,-267.97,487.83,-154.33,295.8
-224.9,306.9,-189.97,309.04,-148.63,241.99,-69.878,171.1,-145.29,342.36,-152.93,311.07,-267.97,487.83,-154.33,295.8
-225.19,307.29,-190.29,309.35,-148.92,242.27,-70.058,171.25,-145.57,342.98,-153.21,311.47,-268.42,488.49,-154.56,296.24
-225.19,307.29,-190.29,309.35,-148.92,242.27,-70.058,171.25,-145.57,342.98,-153.21,311.47,-268.42,488.49,-154.56,296.24
-225.19,307.29,-190.29,309.35,-148.92,242.27,-70.058,171.25,-145.57,342.98,-153.21,311.47,-268.42,488.49,-154.56,296.24
-225.47,307.67,-190.61,309.66,-149.2,242.55,-70.238,171.39,-145.85,343.6,-153.49,311.88,-268.88,489.15,-154.79,296.68
-225.47,307.67,-190.61,309.66,-149.2,242.55,-70.238,171.39,-145.85,343.6,-153.49,311.88,-268.88,489.15,-154.79,296.68
-225.75,308.05,-190.93,309.97,-149.49,242.83,-70.419,171.54,-146.14,344.22,-153.77,312.28,-269.33,489.8,-155.03,297.12
-225.75,308.05,-190.93,309.97,-149.49,242.83,-70.419,171.54,-146.14,344.22,-153.77,312.28,-269.33,489.8,-155.03,297.12
-226.04,308.43,-191.26,310.27,-149.77,243.11,-70.601,171.68,-146.43,344.83,-154.06,312.67,-269.79,490.45,-155.26,297.56
-226.32,308.81,-191.58,310.57,-150.05,243.38,-70.783,171.82,-146.72,345.45,-154.34,313.07,-270.25,491.1,-155.49,297.99
-226.32,308.81,-191.58,310.57,-150.05,243.38,-70.783,171.82,-146.72,345.45,-154.34,313.07,-270.25,491.1,-155.49,297.99
-226.32,308.81,-191.58,310.57,-150.05,243.38,-70.783,171.82,-146.72,345.45,-154.34,313.07,-270.25,491.1,-155.49,297.99
-226.6,309.18,-191.9,310.87,-150.34,243.66,-70.965,171.96,-147.01,346.06,-154.63,313.46,-270.71,491.75,-155.73,298.42
-226.6,309.18,-191.9,310.87,-150.34,243.66,-70.965,171.96,-147.01,346.06,-154.63,313.46,-270.71,491.75,-155.73,298.42
-226.88,309.56,-192.23,311.17,-150.62,243.93,-71.148,172.1,-147.3,346.66,-154.91,313.86,-271.16,492.39,-155.96,298.85
-226.88,309.56,-192.23,311.17,-150.62,243.93,-71.148,172.1,-147.3,346.66,-154.91,313.86,-271.16,492.39,-155.96,298.85
-227.16,309.94,-192.55,311.47,-150.9,244.2,-71.331,172.23,-147.6,347.27,-155.2,314.24,-271.62,493.03,-156.2,299.27
-227.16,309.94,-192.55,311.47,-150.9,244.2,-71.331,172.23,-147.6,347.27,-155.2,314.24,-271.62,493.03,-156.2,299.27
-227.44,310.31,-192.88,311.76,-151.19,244.48,-71.515,172.37,-147.89,347.87,-155.48,314.63,-272.08,493.67,-156.43,299.7
-227.44,310.31,-192.88,311.76,-151.19,244.48,-71.515,172.37,-147.89,347.87,-155.48,314.63,-272.08,493.67,-156.43,299.7
