-33.447,138.05,41.406,64.762,21.651,89.652,54.648,93.503,26.806,193.73,14.531,70.695,59.461,140.62,9.3456,47.181
-33.879,139.61,41.417,65.81,22.035,90.402,54.956,94.328,26.645,195.17,14.498,71.82,59.454,141.43,9.7338,48.101
-34.309,141.16,41.429,66.855,22.419,91.148,55.263,95.15,26.484,196.59,14.466,72.94,59.446,142.22,10.119,49.016
-34.736,142.71,41.441,67.895,22.801,91.889,55.569,95.968,26.322,198.02,14.435,74.054,59.436,143.02,10.502,49.929
-34.736,142.71,41.441,67.895,22.801,91.889,55.569,95.968,26.322,198.02,14.435,74.054,59.436,143.02,10.502,49.929
-35.163,144.25,41.453,68.932,23.183,92.627,55.874,96.784,26.161,199.43,14.405,75.164,59.424,143.81,10.882,50.837
-35.163,144.25,41.453,68.932,23.183,92.627,55.874,96.784,26.161,199.43,14.405,75.164,59.424,143.81,10.882,50.837
-35.163,144.25,41.453,68.932,23.183,92.627,55.874,96.784,26.161,199.43,14.405,75.164,59.424,143.81,10.882,50.837
-35.587,145.78,41.466,69.964,23.564,93.36,56.178,97.596,25.999,200.84,14.377,76.268,59.41,144.59,11.26,51.743
-35.587,145.78,41.466,69.964,23.564,93.36,56.178,97.596,25.999,200.84,14.377,76.268,59.41,144.59,11.26,51.743
-36.009,147.32,41.479,70.993,23.944,94.089,56.48,98.405,25.837,202.24,14.349,77.367,59.395,145.38,11.634,52.644
-36.009,147.32,41.479,70.993,23.944,94.089,56.48,98.405,25.837,202.24,14.349,77.367,59.395,145.38,11.634,52.644
-36.43,148.84,41.492,72.017,24.323,94.814,56.782,99.21,25.675,203.64,14.323,78.461,59.377,146.16,12.006,53.542
-36.43,148.84,41.492,72.017,24.323,94.814,56.782,99.21,25.675,203.64,14.323,78.461,59.377,146.16,12.006,53.542
-36.849,150.36,41.507,73.037,24.7,95.534,57.083,100.01,25.512,205.03,14.298,79.55,59.358,146.93,12.375,54.436
-36.849,150.36,41.507,73.037,24.7,95.534,57.083,100.01,25.512,205.03,14.298,79.55,59.358,146.93,12.375,54.436
-36.849,150.36,41.507,73.037,24.7,95.534,57.083,100.01,25.512,205.03,14.298,79.55,59.358,146.93,12.375,54.436
-37.265,151.88,41.521,74.052,25.077,96.251,57.383,100.81,25.35,206.42,14.274,80.633,59.338,147.7,12.742,55.326
-37.265,151.88,41.521,74.052,25.077,96.251,57.383,100.81,25.35,206.42,14.274,80.633,59.338,147.7,12.742,55.326
-38.093,154.9,41.552,76.071,25.828,97.67,57.979,102.4,25.025,209.16,14.229,82.782,59.292,149.23,13.466,57.095
-38.093,154.9,41.552,76.071,25.828,97.67,57.979,102.4,25.025,209.16,14.229,82.782,59.292,149.23,13.466,57.095
-38.093,154.9,41.552,76.071,25.828,97.67,57.979,102.4,25.025,209.16,14.229,82.782,59.292,149.23,13.466,57.095
-38.093,154.9,41.552,76.071,25.828,97.67,57.979,102.4,25.025,209.16,14.229,82.782,59.292,149.23,13.466,57.095
-38.504,156.4,41.568,77.074,26.201,98.373,58.275,103.19,24.862,210.53,14.208,83.849,59.266,149.99,13.824,57.974
-38.504,156.4,41.568,77.074,26.201,98.373,58.275,103.19,24.862,210.53,14.208,83.849,59.266,149.99,13.824,57.974
-39.32,159.38,41.601,79.066,26.945,99.767,58.865,104.75,24.536,213.24,14.17,85.965,59.21,151.5,14.53,59.719
-39.32,159.38,41.601,79.066,26.945,99.767,58.865,104.75,24.536,213.24,14.17,85.965,59.21,151.5,14.53,59.719
-39.725,160.86,41.618,80.055,27.316,100.46,59.157,105.53,24.373,214.58,14.153,87.014,59.179,152.25,14.879,60.586
-39.725,160.86,41.618,80.055,27.316,100.46,59.157,105.53,24.373,214.58,14.153,87.014,59.179,152.25,14.879,60.586
-40.127,162.34,41.636,81.039,27.685,101.14,59.449,106.31,24.211,215.92,14.137,88.058,59.147,152.99,15.225,61.448
-40.127,162.34,41.636,81.039,27.685,101.14,59.449,106.31,24.211,215.92,14.137,88.058,59.147,152.99,15.225,61.448
-40.127,162.34,41.636,81.039,27.685,101.14,59.449,106.31,24.211,215.92,14.137,88.058,59.147,152.99,15.225,61.448
-40.528,163.81,41.655,82.019,28.053,101.82,59.739,107.08,24.048,217.25,14.123,89.096,59.113,153.73,15.569,62.307
-40.528,163.81,41.655,82.019,28.053,101.82,59.739,107.08,24.048,217.25,14.123,89.096,59.113,153.73,15.569,62.307
-40.528,163.81,41.655,82.019,28.053,101.82,59.739,107.08,24.048,217.25,14.123,89.096,59.113,153.73,15.569,62.307
-40.927,165.28,41.674,82.995,28.419,102.5,60.029,107.84,23.885,218.57,14.109,90.128,59.078,154.46,15.909,63.161
-41.323,166.73,41.693,83.965,28.785,103.17,60.316,108.61,23.723,219.89,14.097,91.153,59.041,155.19,16.246,64.011
-41.323,166.73,41.693,83.965,28.785,103.17,60.316,108.61,23.723,219.89,14.097,91.153,59.041,155.19,16.246,64.011
-41.717,168.19,41.713,84.931,29.149,103.84,60.603,109.36,23.56,221.2,14.086,92.173,59.002,155.92,16.58,64.857
-41.717,168.19,41.713,84.931,29.149,103.84,60.603,109.36,23.56,221.2,14.086,92.173,59.002,155.92,16.58,64.857
-42.11,169.64,41.734,85.892,29.512,104.5,60.888,110.12,23.398,222.5,14.076,93.187,58.962,156.64,16.911,65.699
-42.11,169.64,41.734,85.892,29.512,104.5,60.888,110.12,23.398,222.5,14.076,93.187,58.962,156.64,16.911,65.699
-42.5,171.08,41.755,86.849,29.874,105.16,61.172,110.87,23.236,223.8,14.068,94.195,58.92,157.36,17.239,66.536
-42.5,171.08,41.755,86.849,29.874,105.16,61.172,110.87,23.236,223.8,14.068,94.195,58.92,157.36,17.239,66.536
-42.887,172.51,41.776,87.8,30.234,105.81,61.455,111.62,23.074,225.08,14.061,95.196,58.877,158.07,17.563,67.369
-42.887,172.51,41.776,87.8,30.234,105.81,61.455,111.62,23.074,225.08,14.061,95.196,58.877,158.07,17.563,67.369
-43.273,173.94,41.799,88.746,30.593,106.46,61.736,112.36,22.912,226.36,14.055,96.192,58.832,158.78,17.885,68.198
-43.273,173.94,41.799,88.746,30.593,106.46,61.736,112.36,22.912,226.36,14.055,96.192,58.832,158.78,17.885,68.198
-43.656,175.37,41.821,89.688,30.951,107.11,62.016,113.1,22.75,227.64,14.05,97.181,58.786,159.48,18.204,69.022
-43.656,175.37,41.821,89.688,30.951,107.11,62.016,113.1,22.75,227.64,14.05,97.181,58.786,159.48,18.204,69.022
-43.656,175.37,41.821,89.688,30.951,107.11,62.016,113.1,22.75,227.64,14.05,97.181,58.786,159.48,18.204,69.022
-44.037,176.78,41.844,90.624,31.307,107.75,62.294,113.84,22.589,228.9,14.046,98.163,58.739,160.18,18.519,69.842
-44.037,176.78,41.844,90.624,31.307,107.75,62.294,113.84,22.589,228.9,14.046,98.163,58.739,160.18,18.519,69.842
-44.792,179.6,41.893,92.482,32.016,109.01,62.846,115.3,22.267,231.41,14.043,100.11,58.639,161.56,19.14,71.468
-44.792,179.6,41.893,92.482,32.016,109.01,62.846,115.3,22.267,231.41,14.043,100.11,58.639,161.56,19.14,71.468
-44.792,179.6,41.893,92.482,32.016,109.01,62.846,115.3,22.267,231.41,14.043,100.11,58.639,161.56,19.14,71.468
-45.167,181,41.917,93.403,32.368,109.64,63.12,116.02,22.106,232.65,14.044,101.07,58.587,162.25,19.446,72.274
-45.167,181,41.917,93.403,32.368,109.64,63.12,116.02,22.106,232.65,14.044,101.07,58.587,162.25,19.446,72.274
-45.538,182.39,41.943,94.319,32.719,110.26,63.393,116.74,21.946,233.89,14.045,102.03,58.534,162.93,19.749,73.075
-45.538,182.39,41.943,94.319,32.719,110.26,63.393,116.74,21.946,233.89,14.045,102.03,58.534,162.93,19.749,73.075
-45.908,183.77,41.969,95.23,33.068,110.87,63.664,117.45,21.786,235.12,14.049,102.98,58.479,163.61,20.048,73.872
-45.908,183.77,41.969,95.23,33.068,110.87,63.664,117.45,21.786,235.12,14.049,102.98,58.479,163.61,20.048,73.872
-45.908,183.77,41.969,95.23,33.068,110.87,63.664,117.45,21.786,235.12,14.049,102.98,58.479,163.61,20.048,73.872
-46.275,185.15,41.995,96.136,33.415,111.48,63.933,118.16,21.627,236.34,14.053,103.92,58.423,164.28,20.344,74.664
-46.64,186.52,42.022,97.036,33.762,112.09,64.201,118.87,21.468,237.55,14.058,104.86,58.365,164.94,20.637,75.452
-46.64,186.52,42.022,97.036,33.762,112.09,64.201,118.87,21.468,237.55,14.058,104.86,58.365,164.94,20.637,75.452
-47.002,187.89,42.05,97.931,34.106,112.69,64.468,119.57,21.309,238.75,14.065,105.79,58.306,165.6,20.927,76.235
-47.362,189.25,42.078,98.82,34.449,113.29,64.732,120.27,21.151,239.95,14.074,106.71,58.246,166.26,21.213,77.013
-47.362,189.25,42.078,98.82,34.449,113.29,64.732,120.27,21.151,239.95,14.074,106.71,58.246,166.26,21.213,77.013
-47.362,189.25,42.078,98.82,34.449,113.29,64.732,120.27,21.151,239.95,14.074,106.71,58.246,166.26,21.213,77.013
-47.72,190.6,42.107,99.705,34.791,113.88,64.996,120.96,20.993,241.14,14.083,107.63,58.184,166.91,21.496,77.786
-47.72,190.6,42.107,99.705,34.791,113.88,64.996,120.96,20.993,241.14,14.083,107.63,58.184,166.91,21.496,77.786
-47.72,190.6,42.107,99.705,34.791,113.88,64.996,120.96,20.993,241.14,14.083,107.63,58.184,166.91,21.496,77.786
-48.075,191.94,42.136,100.58,35.13,114.46,65.257,121.65,20.836,242.32,14.094,108.54,58.122,167.56,21.776,78.554
-48.427,193.28,42.166,101.46,35.469,115.04,65.517,122.34,20.679,243.49,14.107,109.44,58.057,168.2,22.052,79.317
-48.427,193.28,42.166,101.46,35.469,115.04,65.517,122.34,20.679,243.49,14.107,109.44,58.057,168.2,22.052,79.317
-48.777,194.61,42.197,102.32,35.805,115.62,65.775,123.02,20.523,244.65,14.12,110.34,57.992,168.84,22.325,80.076
-48.777,194.61,42.197,102.32,35.805,115.62,65.775,123.02,20.523,244.65,14.12,110.34,57.992,168.84,22.325,80.076
-49.125,195.94,42.228,103.19,36.14,116.19,66.032,123.69,20.367,245.81,14.135,111.23,57.925,169.47,22.595,80.829
-49.125,195.94,42.228,103.19,36.14,116.19,66.032,123.69,20.367,245.81,14.135,111.23,57.925,169.47,22.595,80.829
-49.125,195.94,42.228,103.19,36.14,116.19,66.032,123.69,20.367,245.81,14.135,111.23,57.925,169.47,22.595,80.829
-49.47,197.25,42.259,104.04,36.473,116.76,66.287,124.37,20.212,246.96,14.152,112.11,57.857,170.09,22.861,81.578
-49.47,197.25,42.259,104.04,36.473,116.76,66.287,124.37,20.212,246.96,14.152,112.11,57.857,170.09,22.861,81.578
-49.812,198.56,42.292,104.89,36.805,117.32,66.54,125.03,20.058,248.1,14.169,112.99,57.788,170.72,23.124,82.321
-50.152,199.87,42.325,105.74,37.135,117.88,66.792,125.7,19.904,249.23,14.188,113.86,57.718,171.33,23.384,83.06
-50.152,199.87,42.325,105.74,37.135,117.88,66.792,125.7,19.904,249.23,14.188,113.86,57.718,171.33,23.384,83.06
-50.49,201.16,42.358,106.58,37.463,118.43,67.041,126.35,19.75,250.35,14.209,114.72,57.647,171.94,23.64,83.793
-50.49,201.16,42.358,106.58,37.463,118.43,67.041,126.35,19.75,250.35,14.209,114.72,57.647,171.94,23.64,83.793
-50.824,202.45,42.392,107.41,37.789,118.98,67.29,127.01,19.597,251.46,14.231,115.57,57.574,172.55,23.892,84.521
-50.824,202.45,42.392,107.41,37.789,118.98,67.29,127.01,19.597,251.46,14.231,115.57,57.574,172.55,23.892,84.521
-50.824,202.45,42.392,107.41,37.789,118.98,67.29,127.01,19.597,251.46,14.231,115.57,57.574,172.55,23.892,84.521
-51.157,203.73,42.426,108.24,38.114,119.52,67.536,127.65,19.445,252.57,14.254,116.42,57.5,173.15,24.141,85.244
-51.157,203.73,42.426,108.24,38.114,119.52,67.536,127.65,19.445,252.57,14.254,116.42,57.5,173.15,24.141,85.244
-51.486,205.01,42.462,109.06,38.436,120.05,67.78,128.3,19.294,253.66,14.278,117.26,57.425,173.74,24.387,85.962
-51.813,206.27,42.497,109.88,38.757,120.58,68.023,128.94,19.143,254.75,14.304,118.09,57.349,174.33,24.629,86.675
-51.813,206.27,42.497,109.88,38.757,120.58,68.023,128.94,19.143,254.75,14.304,118.09,57.349,174.33,24.629,86.675
-52.138,207.53,42.534,110.69,39.076,121.11,68.264,129.57,18.993,255.83,14.331,118.91,57.272,174.92,24.868,87.383
-52.138,207.53,42.534,110.69,39.076,121.11,68.264,129.57,18.993,255.83,14.331,118.91,57.272,174.92,24.868,87.383
-52.459,208.78,42.57,111.5,39.394,121.63,68.503,130.2,18.844,256.9,14.36,119.73,57.194,175.49,25.103,88.085
-52.459,208.78,42.57,111.5,39.394,121.63,68.503,130.2,18.844,256.9,14.36,119.73,57.194,175.49,25.103,88.085
-52.459,208.78,42.57,111.5,39.394,121.63,68.503,130.2,18.844,256.9,14.36,119.73,57.194,175.49,25.103,88.085
-52.778,210.03,42.608,112.29,39.709,122.15,68.74,130.83,18.696,257.97,14.39,120.54,57.114,176.07,25.335,88.782
-52.778,210.03,42.608,112.29,39.709,122.15,68.74,130.83,18.696,257.97,14.39,120.54,57.114,176.07,25.335,88.782
-53.095,211.26,42.646,113.09,40.023,122.66,68.975,131.45,18.548,259.02,14.421,121.34,57.034,176.64,25.563,89.473
-53.095,211.26,42.646,113.09,40.023,122.66,68.975,131.45,18.548,259.02,14.421,121.34,57.034,176.64,25.563,89.473
-53.095,211.26,42.646,113.09,40.023,122.66,68.975,131.45,18.548,259.02,14.421,121.34,57.034,176.64,25.563,89.473
-53.095,211.26,42.646,113.09,40.023,122.66,68.975,131.45,18.548,259.02,14.421,121.34,57.034,176.64,25.563,89.473
-53.719,213.72,42.724,114.66,40.644,123.66,69.44,132.67,18.255,261.1,14.488,122.93,56.87,177.75,26.009,90.84
-53.719,213.72,42.724,114.66,40.644,123.66,69.44,132.67,18.255,261.1,14.488,122.93,56.87,177.75,26.009,90.84
-54.027,214.93,42.764,115.43,40.951,124.16,69.669,133.28,18.11,262.13,14.524,123.71,56.787,178.31,26.226,91.516
-54.027,214.93,42.764,115.43,40.951,124.16,69.669,133.28,18.11,262.13,14.524,123.71,56.787,178.31,26.226,91.516
-54.333,216.14,42.804,116.2,41.257,124.65,69.897,133.88,17.965,263.14,14.561,124.48,56.702,178.85,26.44,92.186
-54.636,217.33,42.845,116.96,41.561,125.13,70.123,134.47,17.822,264.15,14.599,125.24,56.617,179.39,26.65,92.85
-54.636,217.33,42.845,116.96,41.561,125.13,70.123,134.47,17.822,264.15,14.599,125.24,56.617,179.39,26.65,92.85
-54.636,217.33,42.845,116.96,41.561,125.13,70.123,134.47,17.822,264.15,14.599,125.24,56.617,179.39,26.65,92.85
-54.936,218.53,42.886,117.72,41.862,125.61,70.346,135.06,17.679,265.15,14.639,126,56.531,179.93,26.857,93.509
-54.936,218.53,42.886,117.72,41.862,125.61,70.346,135.06,17.679,265.15,14.639,126,56.531,179.93,26.857,93.509
-54.936,218.53,42.886,117.72,41.862,125.61,70.346,135.06,17.679,265.15,14.639,126,56.531,179.93,26.857,93.509
-55.527,220.88,42.971,119.21,42.46,126.55,70.788,136.23,17.397,267.12,14.722,127.49,56.355,180.98,27.26,94.811
-55.527,220.88,42.971,119.21,42.46,126.55,70.788,136.23,17.397,267.12,14.722,127.49,56.355,180.98,27.26,94.811
-55.527,220.88,42.971,119.21,42.46,126.55,70.788,136.23,17.397,267.12,14.722,127.49,56.355,180.98,27.26,94.811
-55.819,222.05,43.014,119.95,42.755,127.02,71.006,136.8,17.257,268.1,14.766,128.22,56.266,181.49,27.456,95.453
-55.819,222.05,43.014,119.95,42.755,127.02,71.006,136.8,17.257,268.1,14.766,128.22,56.266,181.49,27.456,95.453
-56.393,224.36,43.102,121.41,43.34,127.93,71.435,137.94,16.98,270.01,14.858,129.67,56.086,182.51,27.837,96.721
-56.393,224.36,43.102,121.41,43.34,127.93,71.435,137.94,16.98,270.01,14.858,129.67,56.086,182.51,27.837,96.721
-56.393,224.36,43.102,121.41,43.34,127.93,71.435,137.94,16.98,270.01,14.858,129.67,56.086,182.51,27.837,96.721
-56.676,225.5,43.147,122.13,43.629,128.38,71.647,138.5,16.843,270.96,14.906,130.38,55.994,183.01,28.022,97.347
-56.676,225.5,43.147,122.13,43.629,128.38,71.647,138.5,16.843,270.96,14.906,130.38,55.994,183.01,28.022,97.347
-56.676,225.5,43.147,122.13,43.629,128.38,71.647,138.5,16.843,270.96,14.906,130.38,55.994,183.01,28.022,97.347
-56.957,226.64,43.193,122.84,43.917,128.82,71.856,139.05,16.708,271.89,14.955,131.08,55.902,183.5,28.203,97.967
-57.234,227.77,43.239,123.55,44.202,129.26,72.064,139.6,16.573,272.82,15.006,131.78,55.809,183.99,28.381,98.581
-57.234,227.77,43.239,123.55,44.202,129.26,72.064,139.6,16.573,272.82,15.006,131.78,55.809,183.99,28.381,98.581
-57.509,228.89,43.285,124.25,44.484,129.69,72.269,140.15,16.439,273.74,15.058,132.46,55.715,184.47,28.555,99.189
-57.509,228.89,43.285,124.25,44.484,129.69,72.269,140.15,16.439,273.74,15.058,132.46,55.715,184.47,28.555,99.189
-57.78,230,43.332,124.94,44.765,130.11,72.472,140.69,16.306,274.64,15.112,133.14,55.62,184.95,28.726,99.792
-57.78,230,43.332,124.94,44.765,130.11,72.472,140.69,16.306,274.64,15.112,133.14,55.62,184.95,28.726,99.792
-58.049,231.1,43.38,125.63,45.044,130.53,72.673,141.22,16.175,275.54,15.166,133.81,55.525,185.42,28.893,100.39
-58.049,231.1,43.38,125.63,45.044,130.53,72.673,141.22,16.175,275.54,15.166,133.81,55.525,185.42,28.893,100.39
-58.049,231.1,43.38,125.63,45.044,130.53,72.673,141.22,16.175,275.54,15.166,133.81,55.525,185.42,28.893,100.39
-58.049,231.1,43.38,125.63,45.044,130.53,72.673,141.22,16.175,275.54,15.166,133.81,55.525,185.42,28.893,100.39
-58.578,233.28,43.477,126.99,45.594,131.36,73.069,142.27,15.915,277.31,15.28,135.13,55.332,186.34,29.215,101.56
-58.578,233.28,43.477,126.99,45.594,131.36,73.069,142.27,15.915,277.31,15.28,135.13,55.332,186.34,29.215,101.56
-58.578,233.28,43.477,126.99,45.594,131.36,73.069,142.27,15.915,277.31,15.28,135.13,55.332,186.34,29.215,101.56
-58.838,234.36,43.526,127.65,45.866,131.76,73.264,142.79,15.787,278.17,15.339,135.78,55.234,186.79,29.371,102.14
-59.095,235.43,43.576,128.32,46.135,132.16,73.456,143.3,15.66,279.03,15.4,136.42,55.136,187.24,29.523,102.72
-59.095,235.43,43.576,128.32,46.135,132.16,73.456,143.3,15.66,279.03,15.4,136.42,55.136,187.24,29.523,102.72
-59.349,236.49,43.626,128.97,46.402,132.56,73.647,143.81,15.534,279.88,15.461,137.05,55.037,187.68,29.671,103.29
-59.349,236.49,43.626,128.97,46.402,132.56,73.647,143.81,15.534,279.88,15.461,137.05,55.037,187.68,29.671,103.29
-59.6,237.54,43.677,129.62,46.667,132.95,73.835,144.31,15.41,280.72,15.524,137.67,54.938,188.11,29.815,103.85
-59.6,237.54,43.677,129.62,46.667,132.95,73.835,144.31,15.41,280.72,15.524,137.67,54.938,188.11,29.815,103.85
-59.848,238.59,43.729,130.26,46.93,133.33,74.021,144.81,15.287,281.55,15.589,138.28,54.838,188.54,29.956,104.4
-59.848,238.59,43.729,130.26,46.93,133.33,74.021,144.81,15.287,281.55,15.589,138.28,54.838,188.54,29.956,104.4
-59.848,238.59,43.729,130.26,46.93,133.33,74.021,144.81,15.287,281.55,15.589,138.28,54.838,188.54,29.956,104.4
-60.093,239.62,43.78,130.9,47.19,133.71,74.205,145.3,15.164,282.37,15.654,138.89,54.737,188.96,30.093,104.95
-60.336,240.65,43.833,131.52,47.448,134.08,74.386,145.79,15.044,283.18,15.722,139.49,54.636,189.38,30.227,105.5
-60.336,240.65,43.833,131.52,47.448,134.08,74.386,145.79,15.044,283.18,15.722,139.49,54.636,189.38,30.227,105.5
-60.575,241.67,43.886,132.15,47.703,134.44,74.565,146.27,14.924,283.98,15.79,140.08,54.534,189.79,30.356,106.04
-60.575,241.67,43.886,132.15,47.703,134.44,74.565,146.27,14.924,283.98,15.79,140.08,54.534,189.79,30.356,106.04
-60.811,242.68,43.939,132.76,47.956,134.81,74.742,146.74,14.806,284.77,15.86,140.66,54.431,190.19,30.482,106.57
-60.811,242.68,43.939,132.76,47.956,134.81,74.742,146.74,14.806,284.77,15.86,140.66,54.431,190.19,30.482,106.57
-61.044,243.68,43.993,133.37,48.207,135.16,74.917,147.21,14.689,285.55,15.931,141.23,54.328,190.58,30.604,107.09
-61.044,243.68,43.993,133.37,48.207,135.16,74.917,147.21,14.689,285.55,15.931,141.23,54.328,190.58,30.604,107.09
-61.274,244.67,44.047,133.97,48.456,135.51,75.089,147.68,14.573,286.32,16.003,141.8,54.225,190.97,30.722,107.61
-61.274,244.67,44.047,133.97,48.456,135.51,75.089,147.68,14.573,286.32,16.003,141.8,54.225,190.97,30.722,107.61
-61.274,244.67,44.047,133.97,48.456,135.51,75.089,147.68,14.573,286.32,16.003,141.8,54.225,190.97,30.722,107.61
-61.502,245.65,44.102,134.57,48.701,135.86,75.26,148.14,14.459,287.08,16.077,142.35,54.121,191.36,30.837,108.13
-61.502,245.65,44.102,134.57,48.701,135.86,75.26,148.14,14.459,287.08,16.077,142.35,54.121,191.36,30.837,108.13
-61.726,246.63,44.158,135.16,48.945,136.2,75.427,148.59,14.346,287.83,16.152,142.9,54.017,191.74,30.948,108.63
-61.726,246.63,44.158,135.16,48.945,136.2,75.427,148.59,14.346,287.83,16.152,142.9,54.017,191.74,30.948,108.63
-62.165,248.55,44.27,136.32,49.425,136.86,75.756,149.48,14.124,289.3,16.306,143.97,53.807,192.47,31.158,109.63
-62.165,248.55,44.27,136.32,49.425,136.86,75.756,149.48,14.124,289.3,16.306,143.97,53.807,192.47,31.158,109.63
-62.165,248.55,44.27,136.32,49.425,136.86,75.756,149.48,14.124,289.3,16.306,143.97,53.807,192.47,31.158,109.63
-62.38,249.5,44.326,136.88,49.661,137.18,75.917,149.91,14.015,290.02,16.385,144.5,53.701,192.83,31.258,110.12
-62.38,249.5,44.326,136.88,49.661,137.18,75.917,149.91,14.015,290.02,16.385,144.5,53.701,192.83,31.258,110.12
-62.592,250.44,44.384,137.45,49.894,137.5,76.075,150.35,13.908,290.73,16.466,145.01,53.595,193.18,31.353,110.6
-62.592,250.44,44.384,137.45,49.894,137.5,76.075,150.35,13.908,290.73,16.466,145.01,53.595,193.18,31.353,110.6
-62.801,251.37,44.441,138,50.125,137.81,76.232,150.77,13.802,291.43,16.547,145.52,53.489,193.53,31.445,111.08
-62.801,251.37,44.441,138,50.125,137.81,76.232,150.77,13.802,291.43,16.547,145.52,53.489,193.53,31.445,111.08
-63.006,252.3,44.499,138.55,50.354,138.12,76.385,151.19,13.697,292.12,16.63,146.01,53.382,193.87,31.533,111.55
-63.006,252.3,44.499,138.55,50.354,138.12,76.385,151.19,13.697,292.12,16.63,146.01,53.382,193.87,31.533,111.55
-63.209,253.21,44.558,139.09,50.58,138.42,76.537,151.6,13.594,292.8,16.714,146.5,53.275,194.2,31.618,112.02
-63.209,253.21,44.558,139.09,50.58,138.42,76.537,151.6,13.594,292.8,16.714,146.5,53.275,194.2,31.618,112.02
-63.408,254.11,44.617,139.62,50.803,138.71,76.686,152.01,13.492,293.47,16.8,146.98,53.167,194.53,31.698,112.48
-63.408,254.11,44.617,139.62,50.803,138.71,76.686,152.01,13.492,293.47,16.8,146.98,53.167,194.53,31.698,112.48
-63.408,254.11,44.617,139.62,50.803,138.71,76.686,152.01,13.492,293.47,16.8,146.98,53.167,194.53,31.698,112.48
-63.605,255.01,44.676,140.15,51.024,139,76.832,152.42,13.392,294.13,16.886,147.46,53.059,194.85,31.775,112.93
-63.605,255.01,44.676,140.15,51.024,139,76.832,152.42,13.392,294.13,16.886,147.46,53.059,194.85,31.775,112.93
-63.605,255.01,44.676,140.15,51.024,139,76.832,152.42,13.392,294.13,16.886,147.46,53.059,194.85,31.775,112.93
-63.988,256.77,44.796,141.19,51.458,139.56,77.118,153.2,13.197,295.41,17.063,148.38,52.843,195.47,31.918,113.81
-63.988,256.77,44.796,141.19,51.458,139.56,77.118,153.2,13.197,295.41,17.063,148.38,52.843,195.47,31.918,113.81
-64.176,257.64,44.857,141.69,51.671,139.84,77.258,153.59,13.101,296.04,17.154,148.82,52.734,195.77,31.983,114.25
-64.176,257.64,44.857,141.69,51.671,139.84,77.258,153.59,13.101,296.04,17.154,148.82,52.734,195.77,31.983,114.25
-64.36,258.5,44.918,142.19,51.881,140.11,77.394,153.97,13.007,296.65,17.246,149.26,52.625,196.06,32.045,114.67
-64.36,258.5,44.918,142.19,51.881,140.11,77.394,153.97,13.007,296.65,17.246,149.26,52.625,196.06,32.045,114.67
-64.54,259.35,44.979,142.69,52.089,140.37,77.529,154.35,12.915,297.26,17.338,149.69,52.516,196.35,32.103,115.1
-64.54,259.35,44.979,142.69,52.089,140.37,77.529,154.35,12.915,297.26,17.338,149.69,52.516,196.35,32.103,115.1
-64.718,260.19,45.041,143.17,52.294,140.62,77.661,154.71,12.824,297.86,17.433,150.11,52.407,196.63,32.157,115.51
-64.718,260.19,45.041,143.17,52.294,140.62,77.661,154.71,12.824,297.86,17.433,150.11,52.407,196.63,32.157,115.51
-64.893,261.02,45.103,143.65,52.497,140.88,77.791,155.08,12.734,298.44,17.528,150.53,52.298,196.9,32.207,115.92
-64.893,261.02,45.103,143.65,52.497,140.88,77.791,155.08,12.734,298.44,17.528,150.53,52.298,196.9,32.207,115.92
-65.064,261.84,45.166,144.13,52.696,141.12,77.918,155.43,12.647,299.02,17.625,150.93,52.188,197.17,32.253,116.32
-65.064,261.84,45.166,144.13,52.696,141.12,77.918,155.43,12.647,299.02,17.625,150.93,52.188,197.17,32.253,116.32
-65.232,262.66,45.229,144.59,52.893,141.36,78.042,155.79,12.561,299.58,17.722,151.33,52.078,197.43,32.296,116.72
-65.232,262.66,45.229,144.59,52.893,141.36,78.042,155.79,12.561,299.58,17.722,151.33,52.078,197.43,32.296,116.72
-65.397,263.46,45.292,145.05,53.088,141.59,78.164,156.13,12.476,300.14,17.821,151.71,51.968,197.68,32.335,117.11
-65.559,264.25,45.356,145.5,53.28,141.82,78.284,156.47,12.393,300.68,17.921,152.09,51.858,197.93,32.37,117.49
-65.559,264.25,45.356,145.5,53.28,141.82,78.284,156.47,12.393,300.68,17.921,152.09,51.858,197.93,32.37,117.49
-65.559,264.25,45.356,145.5,53.28,141.82,78.284,156.47,12.393,300.68,17.921,152.09,51.858,197.93,32.37,117.49
-65.718,265.04,45.42,145.95,53.469,142.05,78.401,156.81,12.312,301.21,18.023,152.46,51.748,198.17,32.401,117.87
-65.718,265.04,45.42,145.95,53.469,142.05,78.401,156.81,12.312,301.21,18.023,152.46,51.748,198.17,32.401,117.87
-65.874,265.82,45.484,146.38,53.655,142.26,78.516,157.13,12.233,301.73,18.125,152.82,51.638,198.4,32.429,118.24
-65.874,265.82,45.484,146.38,53.655,142.26,78.516,157.13,12.233,301.73,18.125,152.82,51.638,198.4,32.429,118.24
-65.874,265.82,45.484,146.38,53.655,142.26,78.516,157.13,12.233,301.73,18.125,152.82,51.638,198.4,32.429,118.24
-66.026,266.58,45.548,146.81,53.838,142.48,78.628,157.46,12.155,302.24,18.229,153.18,51.527,198.63,32.453,118.6
-66.026,266.58,45.548,146.81,53.838,142.48,78.628,157.46,12.155,302.24,18.229,153.18,51.527,198.63,32.453,118.6
-66.175,267.34,45.613,147.24,54.019,142.68,78.737,157.77,12.079,302.74,18.334,153.52,51.417,198.85,32.473,118.96
-66.175,267.34,45.613,147.24,54.019,142.68,78.737,157.77,12.079,302.74,18.334,153.52,51.417,198.85,32.473,118.96
-66.321,268.09,45.678,147.65,54.197,142.89,78.844,158.08,12.005,303.23,18.439,153.86,51.307,199.06,32.489,119.31
-66.321,268.09,45.678,147.65,54.197,142.89,78.844,158.08,12.005,303.23,18.439,153.86,51.307,199.06,32.489,119.31
-66.321,268.09,45.678,147.65,54.197,142.89,78.844,158.08,12.005,303.23,18.439,153.86,51.307,199.06,32.489,119.31
-66.321,268.09,45.678,147.65,54.197,142.89,78.844,158.08,12.005,303.23,18.439,153.86,51.307,199.06,32.489,119.31
-66.604,269.55,45.81,148.47,54.545,143.27,79.051,158.69,11.861,304.18,18.655,154.5,51.086,199.47,32.51,119.99
-66.604,269.55,45.81,148.47,54.545,143.27,79.051,158.69,11.861,304.18,18.655,154.5,51.086,199.47,32.51,119.99
-66.604,269.55,45.81,148.47,54.545,143.27,79.051,158.69,11.861,304.18,18.655,154.5,51.086,199.47,32.51,119.99
-66.874,270.98,45.942,149.25,54.881,143.63,79.247,159.27,11.724,305.09,18.874,155.11,50.865,199.85,32.516,120.65
-66.874,270.98,45.942,149.25,54.881,143.63,79.247,159.27,11.724,305.09,18.874,155.11,50.865,199.85,32.516,120.65
-67.004,271.68,46.008,149.63,55.045,143.81,79.341,159.55,11.659,305.52,18.986,155.41,50.755,200.03,32.513,120.97
-67.131,272.38,46.075,150.01,55.206,143.98,79.433,159.83,11.595,305.95,19.098,155.69,50.644,200.21,32.507,121.28
-67.131,272.38,46.075,150.01,55.206,143.98,79.433,159.83,11.595,305.95,19.098,155.69,50.644,200.21,32.507,121.28
-67.131,272.38,46.075,150.01,55.206,143.98,79.433,159.83,11.595,305.95,19.098,155.69,50.644,200.21,32.507,121.28
-67.254,273.06,46.142,150.38,55.364,144.14,79.522,160.1,11.533,306.36,19.212,155.97,50.534,200.37,32.496,121.59
-67.254,273.06,46.142,150.38,55.364,144.14,79.522,160.1,11.533,306.36,19.212,155.97,50.534,200.37,32.496,121.59
-67.254,273.06,46.142,150.38,55.364,144.14,79.522,160.1,11.533,306.36,19.212,155.97,50.534,200.37,32.496,121.59
-67.375,273.73,46.209,150.74,55.52,144.3,79.609,160.36,11.472,306.77,19.326,156.23,50.424,200.53,32.482,121.88
-67.375,273.73,46.209,150.74,55.52,144.3,79.609,160.36,11.472,306.77,19.326,156.23,50.424,200.53,32.482,121.88
-67.492,274.39,46.277,151.09,55.672,144.45,79.693,160.62,11.414,307.16,19.442,156.49,50.314,200.68,32.465,122.18
-67.492,274.39,46.277,151.09,55.672,144.45,79.693,160.62,11.414,307.16,19.442,156.49,50.314,200.68,32.465,122.18
-67.606,275.04,46.345,151.44,55.822,144.59,79.774,160.87,11.357,307.54,19.559,156.74,50.204,200.83,32.443,122.46
-67.717,275.69,46.412,151.78,55.969,144.73,79.853,161.12,11.302,307.91,19.677,156.98,50.094,200.97,32.418,122.74
-67.717,275.69,46.412,151.78,55.969,144.73,79.853,161.12,11.302,307.91,19.677,156.98,50.094,200.97,32.418,122.74
-67.824,276.32,46.48,152.11,56.113,144.87,79.929,161.36,11.249,308.27,19.795,157.22,49.985,201.1,32.389,123.02
-67.929,276.95,46.549,152.43,56.254,145,80.003,161.6,11.198,308.62,19.915,157.44,49.875,201.23,32.356,123.28
-67.929,276.95,46.549,152.43,56.254,145,80.003,161.6,11.198,308.62,19.915,157.44,49.875,201.23,32.356,123.28
-67.929,276.95,46.549,152.43,56.254,145,80.003,161.6,11.198,308.62,19.915,157.44,49.875,201.23,32.356,123.28
-68.03,277.56,46.617,152.75,56.392,145.12,80.074,161.83,11.149,308.96,20.036,157.66,49.766,201.35,32.32,123.55
-68.03,277.56,46.617,152.75,56.392,145.12,80.074,161.83,11.149,308.96,20.036,157.66,49.766,201.35,32.32,123.55
-68.128,278.16,46.686,153.06,56.527,145.24,80.142,162.05,11.101,309.29,20.158,157.86,49.657,201.46,32.279,123.8
-68.128,278.16,46.686,153.06,56.527,145.24,80.142,162.05,11.101,309.29,20.158,157.86,49.657,201.46,32.279,123.8
-68.223,278.76,46.754,153.37,56.659,145.35,80.208,162.27,11.056,309.6,20.28,158.06,49.548,201.56,32.236,124.05
-68.223,278.76,46.754,153.37,56.659,145.35,80.208,162.27,11.056,309.6,20.28,158.06,49.548,201.56,32.236,124.05
-68.314,279.34,46.823,153.67,56.789,145.46,80.271,162.48,11.012,309.91,20.404,158.25,49.439,201.66,32.188,124.29
-68.314,279.34,46.823,153.67,56.789,145.46,80.271,162.48,11.012,309.91,20.404,158.25,49.439,201.66,32.188,124.29
-68.402,279.92,46.892,153.96,56.915,145.56,80.331,162.68,10.97,310.2,20.528,158.43,49.331,201.75,32.137,124.52
-68.402,279.92,46.892,153.96,56.915,145.56,80.331,162.68,10.97,310.2,20.528,158.43,49.331,201.75,32.137,124.52
-68.488,280.49,46.961,154.24,57.039,145.66,80.389,162.88,10.931,310.49,20.654,158.6,49.223,201.84,32.081,124.75
-68.488,280.49,46.961,154.24,57.039,145.66,80.389,162.88,10.931,310.49,20.654,158.6,49.223,201.84,32.081,124.75
-68.569,281.04,47.03,154.52,57.159,145.75,80.444,163.08,10.893,310.76,20.78,158.77,49.115,201.92,32.023,124.97
-68.569,281.04,47.03,154.52,57.159,145.75,80.444,163.08,10.893,310.76,20.78,158.77,49.115,201.92,32.023,124.97
-68.648,281.59,47.1,154.79,57.277,145.84,80.497,163.26,10.857,311.02,20.908,158.92,49.007,201.99,31.96,125.19
-68.648,281.59,47.1,154.79,57.277,145.84,80.497,163.26,10.857,311.02,20.908,158.92,49.007,201.99,31.96,125.19
-68.723,282.13,47.169,155.05,57.391,145.92,80.546,163.45,10.823,311.27,21.036,159.07,48.9,202.05,31.894,125.4
-68.723,282.13,47.169,155.05,57.391,145.92,80.546,163.45,10.823,311.27,21.036,159.07,48.9,202.05,31.894,125.4
-68.723,282.13,47.169,155.05,57.391,145.92,80.546,163.45,10.823,311.27,21.036,159.07,48.9,202.05,31.894,125.4
-68.723,282.13,47.169,155.05,57.391,145.92,80.546,163.45,10.823,311.27,21.036,159.07,48.9,202.05,31.894,125.4
-68.864,283.17,47.308,155.55,57.612,146.06,80.638,163.79,10.76,311.74,21.295,159.34,48.686,202.16,31.751,125.79
-68.864,283.17,47.308,155.55,57.612,146.06,80.638,163.79,10.76,311.74,21.295,159.34,48.686,202.16,31.751,125.79
-68.93,283.68,47.378,155.8,57.717,146.13,80.68,163.96,10.732,311.96,21.426,159.46,48.58,202.2,31.673,125.98
-68.93,283.68,47.378,155.8,57.717,146.13,80.68,163.96,10.732,311.96,21.426,159.46,48.58,202.2,31.673,125.98
-68.93,283.68,47.378,155.8,57.717,146.13,80.68,163.96,10.732,311.96,21.426,159.46,48.58,202.2,31.673,125.98
-68.993,284.18,47.447,156.03,57.82,146.19,80.719,164.12,10.706,312.17,21.557,159.57,48.474,202.24,31.593,126.17
-68.993,284.18,47.447,156.03,57.82,146.19,80.719,164.12,10.706,312.17,21.557,159.57,48.474,202.24,31.593,126.17
-69.052,284.66,47.517,156.26,57.92,146.24,80.756,164.27,10.682,312.36,21.69,159.68,48.368,202.27,31.508,126.34
-69.052,284.66,47.517,156.26,57.92,146.24,80.756,164.27,10.682,312.36,21.69,159.68,48.368,202.27,31.508,126.34
-69.108,285.14,47.586,156.48,58.017,146.29,80.79,164.42,10.659,312.55,21.823,159.77,48.263,202.29,31.42,126.51
-69.108,285.14,47.586,156.48,58.017,146.29,80.79,164.42,10.659,312.55,21.823,159.77,48.263,202.29,31.42,126.51
-69.161,285.61,47.656,156.69,58.11,146.33,80.821,164.56,10.639,312.72,21.957,159.86,48.158,202.31,31.328,126.68
-69.161,285.61,47.656,156.69,58.11,146.33,80.821,164.56,10.639,312.72,21.957,159.86,48.158,202.31,31.328,126.68
-69.21,286.07,47.726,156.9,58.201,146.37,80.85,164.69,10.621,312.88,22.092,159.94,48.053,202.32,31.233,126.83
-69.257,286.52,47.795,157.1,58.289,146.4,80.876,164.82,10.604,313.03,22.228,160.01,47.949,202.32,31.134,126.98
-69.257,286.52,47.795,157.1,58.289,146.4,80.876,164.82,10.604,313.03,22.228,160.01,47.949,202.32,31.134,126.98
-69.3,286.96,47.865,157.29,58.373,146.43,80.899,164.94,10.59,313.17,22.364,160.07,47.846,202.31,31.031,127.13
-69.3,286.96,47.865,157.29,58.373,146.43,80.899,164.94,10.59,313.17,22.364,160.07,47.846,202.31,31.031,127.13
-69.3,286.96,47.865,157.29,58.373,146.43,80.899,164.94,10.59,313.17,22.364,160.07,47.846,202.31,31.031,127.13
-69.34,287.39,47.935,157.48,58.455,146.45,80.92,165.06,10.578,313.3,22.501,160.13,47.742,202.3,30.925,127.26
-69.34,287.39,47.935,157.48,58.455,146.45,80.92,165.06,10.578,313.3,22.501,160.13,47.742,202.3,30.925,127.26
-69.34,287.39,47.935,157.48,58.455,146.45,80.92,165.06,10.578,313.3,22.501,160.13,47.742,202.3,30.925,127.26
-69.41,288.22,48.074,157.83,58.609,146.47,80.953,165.28,10.559,313.53,22.778,160.21,47.537,202.26,30.702,127.52
-69.41,288.22,48.074,157.83,58.609,146.47,80.953,165.28,10.559,313.53,22.778,160.21,47.537,202.26,30.702,127.52
-69.44,288.62,48.143,157.99,58.681,146.48,80.965,165.38,10.553,313.63,22.917,160.24,47.435,202.23,30.585,127.64
-69.44,288.62,48.143,157.99,58.681,146.48,80.965,165.38,10.553,313.63,22.917,160.24,47.435,202.23,30.585,127.64
-69.44,288.62,48.143,157.99,58.681,146.48,80.965,165.38,10.553,313.63,22.917,160.24,47.435,202.23,30.585,127.64
-69.467,289.01,48.212,158.15,58.751,146.48,80.975,165.47,10.549,313.71,23.057,160.26,47.334,202.19,30.464,127.75
-69.467,289.01,48.212,158.15,58.751,146.48,80.975,165.47,10.549,313.71,23.057,160.26,47.334,202.19,30.464,127.75
-69.467,289.01,48.212,158.15,58.751,146.48,80.975,165.47,10.549,313.71,23.057,160.26,47.334,202.19,30.464,127.75
-69.512,289.76,48.351,158.45,58.881,146.46,80.987,165.64,10.547,313.85,23.339,160.28,47.133,202.09,30.212,127.95
-69.512,289.76,48.351,158.45,58.881,146.46,80.987,165.64,10.547,313.85,23.339,160.28,47.133,202.09,30.212,127.95
-69.529,290.12,48.42,158.59,58.941,146.45,80.989,165.72,10.549,313.9,23.481,160.27,47.033,202.03,30.081,128.04
-69.529,290.12,48.42,158.59,58.941,146.45,80.989,165.72,10.549,313.9,23.481,160.27,47.033,202.03,30.081,128.04
-69.544,290.47,48.489,158.72,58.998,146.43,80.988,165.79,10.553,313.94,23.624,160.26,46.933,201.97,29.946,128.13
-69.555,290.81,48.557,158.84,59.052,146.4,80.984,165.86,10.559,313.98,23.767,160.24,46.834,201.9,29.808,128.21
-69.555,290.81,48.557,158.84,59.052,146.4,80.984,165.86,10.559,313.98,23.767,160.24,46.834,201.9,29.808,128.21
-69.555,290.81,48.557,158.84,59.052,146.4,80.984,165.86,10.559,313.98,23.767,160.24,46.834,201.9,29.808,128.21
-69.563,291.14,48.626,158.96,59.103,146.37,80.978,165.92,10.567,314,23.911,160.21,46.736,201.82,29.666,128.28
-69.563,291.14,48.626,158.96,59.103,146.37,80.978,165.92,10.567,314,23.911,160.21,46.736,201.82,29.666,128.28
-69.567,291.46,48.694,159.07,59.152,146.33,80.969,165.97,10.577,314,24.055,160.18,46.638,201.73,29.521,128.35
-69.567,291.46,48.694,159.07,59.152,146.33,80.969,165.97,10.577,314,24.055,160.18,46.638,201.73,29.521,128.35
-69.569,291.77,48.763,159.17,59.197,146.29,80.958,166.02,10.59,314,24.2,160.13,46.541,201.64,29.372,128.41
-69.569,291.77,48.763,159.17,59.197,146.29,80.958,166.02,10.59,314,24.2,160.13,46.541,201.64,29.372,128.41
-69.567,292.07,48.831,159.27,59.238,146.24,80.944,166.06,10.604,313.99,24.346,160.08,46.445,201.54,29.22,128.46
-69.567,292.07,48.831,159.27,59.238,146.24,80.944,166.06,10.604,313.99,24.346,160.08,46.445,201.54,29.22,128.46
-69.567,292.07,48.831,159.27,59.238,146.24,80.944,166.06,10.604,313.99,24.346,160.08,46.445,201.54,29.22,128.46
-69.562,292.37,48.899,159.36,59.277,146.19,80.927,166.1,10.621,313.96,24.492,160.02,46.349,201.43,29.064,128.51
-69.562,292.37,48.899,159.36,59.277,146.19,80.927,166.1,10.621,313.96,24.492,160.02,46.349,201.43,29.064,128.51
-69.554,292.65,48.966,159.44,59.313,146.13,80.907,166.13,10.639,313.93,24.638,159.95,46.253,201.32,28.905,128.55
-69.554,292.65,48.966,159.44,59.313,146.13,80.907,166.13,10.639,313.93,24.638,159.95,46.253,201.32,28.905,128.55
-69.529,293.18,49.101,159.59,59.375,146,80.86,166.17,10.683,313.82,24.933,159.79,46.064,201.07,28.577,128.61
-69.529,293.18,49.101,159.59,59.375,146,80.86,166.17,10.683,313.82,24.933,159.79,46.064,201.07,28.577,128.61
-69.529,293.18,49.101,159.59,59.375,146,80.86,166.17,10.683,313.82,24.933,159.79,46.064,201.07,28.577,128.61
-69.511,293.43,49.168,159.66,59.402,145.93,80.832,166.18,10.707,313.76,25.081,159.69,45.97,200.94,28.407,128.63
-69.511,293.43,49.168,159.66,59.402,145.93,80.832,166.18,10.707,313.76,25.081,159.69,45.97,200.94,28.407,128.63
-69.491,293.68,49.234,159.71,59.425,145.85,80.802,166.19,10.734,313.68,25.23,159.59,45.877,200.8,28.235,128.65
-69.491,293.68,49.234,159.71,59.425,145.85,80.802,166.19,10.734,313.68,25.23,159.59,45.877,200.8,28.235,128.65
-69.467,293.91,49.301,159.76,59.446,145.77,80.769,166.19,10.763,313.59,25.379,159.48,45.785,200.65,28.059,128.66
-69.467,293.91,49.301,159.76,59.446,145.77,80.769,166.19,10.763,313.59,25.379,159.48,45.785,200.65,28.059,128.66
-69.467,293.91,49.301,159.76,59.446,145.77,80.769,166.19,10.763,313.59,25.379,159.48,45.785,200.65,28.059,128.66
-69.44,294.13,49.367,159.81,59.463,145.68,80.733,166.19,10.795,313.49,25.528,159.37,45.693,200.5,27.879,128.66
-69.41,294.34,49.433,159.84,59.478,145.59,80.695,166.18,10.828,313.37,25.678,159.24,45.602,200.34,27.696,128.66
-69.377,294.55,49.498,159.87,59.489,145.49,80.654,166.17,10.863,313.25,25.828,159.11,45.512,200.17,27.51,128.65
-69.377,294.55,49.498,159.87,59.489,145.49,80.654,166.17,10.863,313.25,25.828,159.11,45.512,200.17,27.51,128.65
-69.34,294.74,49.564,159.9,59.497,145.39,80.61,166.15,10.901,313.12,25.979,158.97,45.422,200,27.32,128.63
-69.34,294.74,49.564,159.9,59.497,145.39,80.61,166.15,10.901,313.12,25.979,158.97,45.422,200,27.32,128.63
-69.34,294.74,49.564,159.9,59.497,145.39,80.61,166.15,10.901,313.12,25.979,158.97,45.422,200,27.32,128.63
-69.301,294.92,49.628,159.91,59.502,145.28,80.564,166.12,10.94,312.97,26.13,158.82,45.333,199.82,27.127,128.61
-69.301,294.92,49.628,159.91,59.502,145.28,80.564,166.12,10.94,312.97,26.13,158.82,45.333,199.82,27.127,128.61
-69.301,294.92,49.628,159.91,59.502,145.28,80.564,166.12,10.94,312.97,26.13,158.82,45.333,199.82,27.127,128.61
-69.258,295.1,49.693,159.93,59.504,145.17,80.515,166.09,10.982,312.82,26.281,158.67,45.245,199.63,26.931,128.58
-69.258,295.1,49.693,159.93,59.504,145.17,80.515,166.09,10.982,312.82,26.281,158.67,45.245,199.63,26.931,128.58
-69.212,295.26,49.757,159.93,59.503,145.05,80.463,166.05,11.026,312.65,26.433,158.5,45.157,199.44,26.732,128.54
-69.212,295.26,49.757,159.93,59.503,145.05,80.463,166.05,11.026,312.65,26.433,158.5,45.157,199.44,26.732,128.54
-69.163,295.42,49.821,159.93,59.499,144.93,80.409,166.01,11.072,312.48,26.585,158.33,45.07,199.24,26.529,128.5
-69.163,295.42,49.821,159.93,59.499,144.93,80.409,166.01,11.072,312.48,26.585,158.33,45.07,199.24,26.529,128.5
-69.111,295.56,49.884,159.92,59.491,144.8,80.352,165.96,11.12,312.29,26.738,158.15,44.984,199.04,26.323,128.46
-69.056,295.7,49.948,159.9,59.481,144.67,80.292,165.9,11.17,312.09,26.89,157.97,44.898,198.82,26.114,128.4
-69.056,295.7,49.948,159.9,59.481,144.67,80.292,165.9,11.17,312.09,26.89,157.97,44.898,198.82,26.114,128.4
-68.998,295.82,50.01,159.88,59.468,144.53,80.23,165.84,11.222,311.88,27.043,157.77,44.813,198.6,25.901,128.34
-68.998,295.82,50.01,159.88,59.468,144.53,80.23,165.84,11.222,311.88,27.043,157.77,44.813,198.6,25.901,128.34
-68.937,295.94,50.072,159.85,59.451,144.39,80.165,165.78,11.277,311.66,27.196,157.57,44.729,198.38,25.686,128.28
-68.937,295.94,50.072,159.85,59.451,144.39,80.165,165.78,11.277,311.66,27.196,157.57,44.729,198.38,25.686,128.28
-68.872,296.04,50.134,159.82,59.432,144.24,80.098,165.71,11.333,311.43,27.35,157.36,44.646,198.15,25.467,128.2
-68.872,296.04,50.134,159.82,59.432,144.24,80.098,165.71,11.333,311.43,27.35,157.36,44.646,198.15,25.467,128.2
-68.805,296.14,50.196,159.78,59.409,144.09,80.027,165.63,11.392,311.19,27.503,157.15,44.563,197.91,25.245,128.13
-68.805,296.14,50.196,159.78,59.409,144.09,80.027,165.63,11.392,311.19,27.503,157.15,44.563,197.91,25.245,128.13
-68.734,296.22,50.257,159.73,59.384,143.94,79.955,165.55,11.453,310.94,27.657,156.92,44.481,197.66,25.02,128.04
-68.734,296.22,50.257,159.73,59.384,143.94,79.955,165.55,11.453,310.94,27.657,156.92,44.481,197.66,25.02,128.04
-68.661,296.3,50.317,159.68,59.355,143.77,79.879,165.46,11.515,310.68,27.811,156.69,44.4,197.41,24.791,127.95
-68.661,296.3,50.317,159.68,59.355,143.77,79.879,165.46,11.515,310.68,27.811,156.69,44.4,197.41,24.791,127.95
-68.584,296.37,50.377,159.62,59.323,143.61,79.801,165.37,11.58,310.4,27.966,156.45,44.319,197.16,24.56,127.86
-68.584,296.37,50.377,159.62,59.323,143.61,79.801,165.37,11.58,310.4,27.966,156.45,44.319,197.16,24.56,127.86
-68.505,296.43,50.437,159.55,59.289,143.44,79.72,165.27,11.647,310.12,28.12,156.21,44.24,196.89,24.325,127.75
-68.505,296.43,50.437,159.55,59.289,143.44,79.72,165.27,11.647,310.12,28.12,156.21,44.24,196.89,24.325,127.75
-68.422,296.47,50.496,159.48,59.251,143.26,79.637,165.17,11.717,309.82,28.274,155.95,44.161,196.62,24.087,127.65
-68.422,296.47,50.496,159.48,59.251,143.26,79.637,165.17,11.717,309.82,28.274,155.95,44.161,196.62,24.087,127.65
-68.422,296.47,50.496,159.48,59.251,143.26,79.637,165.17,11.717,309.82,28.274,155.95,44.161,196.62,24.087,127.65
-68.336,296.51,50.554,159.4,59.21,143.08,79.551,165.06,11.788,309.52,28.429,155.69,44.082,196.34,23.846,127.53
-68.336,296.51,50.554,159.4,59.21,143.08,79.551,165.06,11.788,309.52,28.429,155.69,44.082,196.34,23.846,127.53
-68.156,296.56,50.67,159.23,59.119,142.71,79.372,164.83,11.937,308.88,28.739,155.15,43.928,195.77,23.356,127.29
-68.156,296.56,50.67,159.23,59.119,142.71,79.372,164.83,11.937,308.88,28.739,155.15,43.928,195.77,23.356,127.29
-68.156,296.56,50.67,159.23,59.119,142.71,79.372,164.83,11.937,308.88,28.739,155.15,43.928,195.77,23.356,127.29
-68.061,296.57,50.727,159.13,59.07,142.51,79.278,164.7,12.014,308.54,28.894,154.87,43.852,195.48,23.106,127.15
-68.061,296.57,50.727,159.13,59.07,142.51,79.278,164.7,12.014,308.54,28.894,154.87,43.852,195.48,23.106,127.15
-67.963,296.57,50.783,159.03,59.017,142.31,79.182,164.57,12.094,308.2,29.049,154.58,43.777,195.18,22.853,127.01
-67.963,296.57,50.783,159.03,59.017,142.31,79.182,164.57,12.094,308.2,29.049,154.58,43.777,195.18,22.853,127.01
-67.862,296.56,50.839,158.92,58.961,142.11,79.083,164.44,12.175,307.84,29.204,154.28,43.703,194.87,22.597,126.87
-67.862,296.56,50.839,158.92,58.961,142.11,79.083,164.44,12.175,307.84,29.204,154.28,43.703,194.87,22.597,126.87
-67.862,296.56,50.839,158.92,58.961,142.11,79.083,164.44,12.175,307.84,29.204,154.28,43.703,194.87,22.597,126.87
-67.758,296.54,50.894,158.8,58.902,141.9,78.981,164.29,12.259,307.47,29.359,153.98,43.629,194.55,22.338,126.72
-67.651,296.51,50.949,158.68,58.84,141.69,78.877,164.15,12.345,307.09,29.514,153.67,43.557,194.23,22.076,126.57
-67.542,296.47,51.003,158.55,58.775,141.47,78.771,164,12.433,306.7,29.669,153.35,43.485,193.91,21.811,126.4
-67.542,296.47,51.003,158.55,58.775,141.47,78.771,164,12.433,306.7,29.669,153.35,43.485,193.91,21.811,126.4
-67.542,296.47,51.003,158.55,58.775,141.47,78.771,164,12.433,306.7,29.669,153.35,43.485,193.91,21.811,126.4
-67.429,296.42,51.056,158.42,58.707,141.25,78.661,163.84,12.523,306.31,29.824,153.03,43.414,193.57,21.543,126.24
-67.429,296.42,51.056,158.42,58.707,141.25,78.661,163.84,12.523,306.31,29.824,153.03,43.414,193.57,21.543,126.24
-67.429,296.42,51.056,158.42,58.707,141.25,78.661,163.84,12.523,306.31,29.824,153.03,43.414,193.57,21.543,126.24
-67.313,296.37,51.109,158.28,58.636,141.03,78.55,163.68,12.615,305.9,29.979,152.7,43.343,193.24,21.272,126.06
-67.195,296.3,51.161,158.14,58.563,140.8,78.435,163.51,12.709,305.48,30.134,152.36,43.274,192.89,20.999,125.88
-67.195,296.3,51.161,158.14,58.563,140.8,78.435,163.51,12.709,305.48,30.134,152.36,43.274,192.89,20.999,125.88
-67.073,296.22,51.213,157.99,58.486,140.56,78.318,163.34,12.806,305.05,30.289,152.02,43.205,192.54,20.722,125.7
-67.073,296.22,51.213,157.99,58.486,140.56,78.318,163.34,12.806,305.05,30.289,152.02,43.205,192.54,20.722,125.7
-66.949,296.14,51.263,157.83,58.406,140.32,78.199,163.16,12.904,304.61,30.444,151.66,43.137,192.18,20.443,125.51
-66.949,296.14,51.263,157.83,58.406,140.32,78.199,163.16,12.904,304.61,30.444,151.66,43.137,192.18,20.443,125.51
-66.821,296.04,51.314,157.67,58.323,140.08,78.077,162.98,13.004,304.16,30.599,151.31,43.07,191.82,20.161,125.31
-66.691,295.94,51.363,157.5,58.238,139.83,77.953,162.79,13.107,303.7,30.754,150.94,43.003,191.45,19.875,125.11
-66.691,295.94,51.363,157.5,58.238,139.83,77.953,162.79,13.107,303.7,30.754,150.94,43.003,191.45,19.875,125.11
-66.558,295.83,51.412,157.32,58.149,139.58,77.826,162.6,13.211,303.23,30.908,150.57,42.938,191.08,19.588,124.9
-66.558,295.83,51.412,157.32,58.149,139.58,77.826,162.6,13.211,303.23,30.908,150.57,42.938,191.08,19.588,124.9
-66.558,295.83,51.412,157.32,58.149,139.58,77.826,162.6,13.211,303.23,30.908,150.57,42.938,191.08,19.588,124.9
-66.421,295.7,51.46,157.14,58.058,139.32,77.696,162.4,13.317,302.75,31.062,150.19,42.873,190.7,19.297,124.69
-66.421,295.7,51.46,157.14,58.058,139.32,77.696,162.4,13.317,302.75,31.062,150.19,42.873,190.7,19.297,124.69
-66.282,295.57,51.508,156.96,57.963,139.06,77.564,162.2,13.426,302.26,31.217,149.81,42.809,190.31,19.004,124.47
-66.141,295.43,51.554,156.77,57.866,138.8,77.43,161.99,13.536,301.76,31.371,149.42,42.746,189.92,18.708,124.25
-66.141,295.43,51.554,156.77,57.866,138.8,77.43,161.99,13.536,301.76,31.371,149.42,42.746,189.92,18.708,124.25
-66.141,295.43,51.554,156.77,57.866,138.8,77.43,161.99,13.536,301.76,31.371,149.42,42.746,189.92,18.708,124.25
-65.996,295.28,51.6,156.57,57.766,138.53,77.293,161.78,13.649,301.25,31.524,149.02,42.683,189.52,18.409,124.02
-65.996,295.28,51.6,156.57,57.766,138.53,77.293,161.78,13.649,301.25,31.524,149.02,42.683,189.52,18.409,124.02
-65.996,295.28,51.6,156.57,57.766,138.53,77.293,161.78,13.649,301.25,31.524,149.02,42.683,189.52,18.409,124.02
-65.848,295.12,51.645,156.37,57.663,138.26,77.154,161.56,13.763,300.73,31.678,148.62,42.622,189.12,18.107,123.78
-65.848,295.12,51.645,156.37,57.663,138.26,77.154,161.56,13.763,300.73,31.678,148.62,42.622,189.12,18.107,123.78
-65.848,295.12,51.645,156.37,57.663,138.26,77.154,161.56,13.763,300.73,31.678,148.62,42.622,189.12,18.107,123.78
-65.544,294.77,51.734,155.94,57.448,137.7,76.867,161.11,13.998,299.66,31.984,147.8,42.501,188.29,17.496,123.29
-65.544,294.77,51.734,155.94,57.448,137.7,76.867,161.11,13.998,299.66,31.984,147.8,42.501,188.29,17.496,123.29
-65.388,294.59,51.777,155.73,57.336,137.41,76.721,160.88,14.119,299.11,32.137,147.38,42.442,187.87,17.187,123.04
-65.388,294.59,51.777,155.73,57.336,137.41,76.721,160.88,14.119,299.11,32.137,147.38,42.442,187.87,17.187,123.04
-65.388,294.59,51.777,155.73,57.336,137.41,76.721,160.88,14.119,299.11,32.137,147.38,42.442,187.87,17.187,123.04
-65.229,294.39,51.819,155.5,57.221,137.12,76.571,160.64,14.241,298.55,32.29,146.95,42.384,187.44,16.875,122.79
-65.229,294.39,51.819,155.5,57.221,137.12,76.571,160.64,14.241,298.55,32.29,146.95,42.384,187.44,16.875,122.79
-65.068,294.19,51.86,155.27,57.104,136.83,76.42,160.4,14.366,297.98,32.442,146.51,42.326,187.01,16.56,122.52
-64.903,293.97,51.901,155.03,56.984,136.53,76.266,160.15,14.492,297.4,32.594,146.07,42.27,186.57,16.243,122.25
-64.736,293.75,51.94,154.79,56.861,136.23,76.109,159.9,14.62,296.81,32.746,145.63,42.214,186.13,15.923,121.98
-64.736,293.75,51.94,154.79,56.861,136.23,76.109,159.9,14.62,296.81,32.746,145.63,42.214,186.13,15.923,121.98
-64.736,293.75,51.94,154.79,56.861,136.23,76.109,159.9,14.62,296.81,32.746,145.63,42.214,186.13,15.923,121.98
-64.736,293.75,51.94,154.79,56.861,136.23,76.109,159.9,14.62,296.81,32.746,145.63,42.214,186.13,15.923,121.98
-64.566,293.52,51.979,154.55,56.735,135.92,75.95,159.65,14.75,296.22,32.897,145.18,42.159,185.68,15.601,121.7
-64.566,293.52,51.979,154.55,56.735,135.92,75.95,159.65,14.75,296.22,32.897,145.18,42.159,185.68,15.601,121.7
-64.566,293.52,51.979,154.55,56.735,135.92,75.95,159.65,14.75,296.22,32.897,145.18,42.159,185.68,15.601,121.7
-64.217,293.03,52.054,154.04,56.474,135.3,75.625,159.12,15.017,294.99,33.198,144.26,42.051,184.77,14.949,121.13
-64.217,293.03,52.054,154.04,56.474,135.3,75.625,159.12,15.017,294.99,33.198,144.26,42.051,184.77,14.949,121.13
-64.039,292.77,52.091,153.78,56.34,134.98,75.459,158.85,15.153,294.37,33.348,143.79,41.998,184.3,14.619,120.84
-63.858,292.5,52.126,153.51,56.203,134.66,75.29,158.57,15.291,293.73,33.498,143.31,41.946,183.83,14.287,120.54
-63.858,292.5,52.126,153.51,56.203,134.66,75.29,158.57,15.291,293.73,33.498,143.31,41.946,183.83,14.287,120.54
-63.858,292.5,52.126,153.51,56.203,134.66,75.29,158.57,15.291,293.73,33.498,143.31,41.946,183.83,14.287,120.54
-63.858,292.5,52.126,153.51,56.203,134.66,75.29,158.57,15.291,293.73,33.498,143.31,41.946,183.83,14.287,120.54
-63.674,292.22,52.161,153.24,56.063,134.34,75.119,158.29,15.431,293.08,33.647,142.83,41.895,183.36,13.952,120.23
-63.674,292.22,52.161,153.24,56.063,134.34,75.119,158.29,15.431,293.08,33.647,142.83,41.895,183.36,13.952,120.23
-63.488,291.94,52.195,152.96,55.921,134.01,74.946,158.01,15.572,292.43,33.796,142.35,41.845,182.87,13.615,119.92
-63.488,291.94,52.195,152.96,55.921,134.01,74.946,158.01,15.572,292.43,33.796,142.35,41.845,182.87,13.615,119.92
-63.488,291.94,52.195,152.96,55.921,134.01,74.946,158.01,15.572,292.43,33.796,142.35,41.845,182.87,13.615,119.92
-63.107,291.34,52.259,152.39,55.627,133.34,74.592,157.43,15.861,291.09,34.093,141.36,41.747,181.9,12.934,119.29
-63.107,291.34,52.259,152.39,55.627,133.34,74.592,157.43,15.861,291.09,34.093,141.36,41.747,181.9,12.934,119.29
-62.912,291.03,52.29,152.1,55.477,133,74.412,157.13,16.009,290.41,34.24,140.85,41.699,181.4,12.589,118.96
-62.912,291.03,52.29,152.1,55.477,133,74.412,157.13,16.009,290.41,34.24,140.85,41.699,181.4,12.589,118.96
-62.912,291.03,52.29,152.1,55.477,133,74.412,157.13,16.009,290.41,34.24,140.85,41.699,181.4,12.589,118.96
-62.912,291.03,52.29,152.1,55.477,133,74.412,157.13,16.009,290.41,34.24,140.85,41.699,181.4,12.589,118.96
-62.515,290.38,52.349,151.49,55.167,132.31,74.045,156.52,16.309,289.02,34.533,139.83,41.605,180.39,11.894,118.3
-62.515,290.38,52.349,151.49,55.167,132.31,74.045,156.52,16.309,289.02,34.533,139.83,41.605,180.39,11.894,118.3
-62.313,290.04,52.378,151.19,55.009,131.96,73.858,156.21,16.462,288.31,34.679,139.31,41.56,179.88,11.543,117.96
-62.313,290.04,52.378,151.19,55.009,131.96,73.858,156.21,16.462,288.31,34.679,139.31,41.56,179.88,11.543,117.96
-62.108,289.7,52.405,150.87,54.847,131.6,73.668,155.89,16.616,287.59,34.824,138.79,41.515,179.36,11.19,117.61
-62.108,289.7,52.405,150.87,54.847,131.6,73.668,155.89,16.616,287.59,34.824,138.79,41.515,179.36,11.19,117.61
-61.9,289.34,52.431,150.56,54.683,131.25,73.476,155.57,16.773,286.86,34.969,138.26,41.471,178.83,10.835,117.26
-61.9,289.34,52.431,150.56,54.683,131.25,73.476,155.57,16.773,286.86,34.969,138.26,41.471,178.83,10.835,117.26
-61.69,288.98,52.456,150.23,54.516,130.88,73.282,155.25,16.931,286.12,35.113,137.73,41.427,178.31,10.477,116.91
-61.69,288.98,52.456,150.23,54.516,130.88,73.282,155.25,16.931,286.12,35.113,137.73,41.427,178.31,10.477,116.91
-61.477,288.61,52.481,149.91,54.347,130.52,73.086,154.92,17.091,285.38,35.257,137.19,41.385,177.77,10.117,116.55
-61.477,288.61,52.481,149.91,54.347,130.52,73.086,154.92,17.091,285.38,35.257,137.19,41.385,177.77,10.117,116.55
-61.261,288.23,52.504,149.57,54.175,130.15,72.887,154.59,17.252,284.62,35.4,136.64,41.343,177.24,9.7553,116.19
-61.261,288.23,52.504,149.57,54.175,130.15,72.887,154.59,17.252,284.62,35.4,136.64,41.343,177.24,9.7553,116.19
-61.043,287.84,52.526,149.24,54.001,129.78,72.687,154.25,17.416,283.86,35.542,136.1,41.302,176.69,9.3912,115.82
-61.043,287.84,52.526,149.24,54.001,129.78,72.687,154.25,17.416,283.86,35.542,136.1,41.302,176.69,9.3912,115.82
-61.043,287.84,52.526,149.24,54.001,129.78,72.687,154.25,17.416,283.86,35.542,136.1,41.302,176.69,9.3912,115.82
-60.823,287.44,52.548,148.9,53.824,129.4,72.484,153.91,17.581,283.09,35.684,135.54,41.262,176.15,9.0251,115.44
-60.823,287.44,52.548,148.9,53.824,129.4,72.484,153.91,17.581,283.09,35.684,135.54,41.262,176.15,9.0251,115.44
-60.374,286.63,52.587,148.2,53.462,128.64,72.071,153.21,17.917,281.52,35.965,134.42,41.183,175.04,8.2865,114.68
-60.374,286.63,52.587,148.2,53.462,128.64,72.071,153.21,17.917,281.52,35.965,134.42,41.183,175.04,8.2865,114.68
-60.374,286.63,52.587,148.2,53.462,128.64,72.071,153.21,17.917,281.52,35.965,134.42,41.183,175.04,8.2865,114.68
-60.146,286.21,52.605,147.85,53.277,128.26,71.861,152.86,18.087,280.72,36.104,133.85,41.145,174.48,7.9142,114.29
-60.146,286.21,52.605,147.85,53.277,128.26,71.861,152.86,18.087,280.72,36.104,133.85,41.145,174.48,7.9142,114.29
-60.146,286.21,52.605,147.85,53.277,128.26,71.861,152.86,18.087,280.72,36.104,133.85,41.145,174.48,7.9142,114.29
-59.916,285.78,52.623,147.49,53.09,127.87,71.65,152.5,18.259,279.91,36.243,133.28,41.108,173.91,7.5399,113.9
-59.916,285.78,52.623,147.49,53.09,127.87,71.65,152.5,18.259,279.91,36.243,133.28,41.108,173.91,7.5399,113.9
-59.683,285.34,52.639,147.12,52.901,127.48,71.436,152.14,18.433,279.1,36.382,132.7,41.071,173.34,7.1636,113.51
-59.683,285.34,52.639,147.12,52.901,127.48,71.436,152.14,18.433,279.1,36.382,132.7,41.071,173.34,7.1636,113.51
-59.683,285.34,52.639,147.12,52.901,127.48,71.436,152.14,18.433,279.1,36.382,132.7,41.071,173.34,7.1636,113.51
-59.209,284.44,52.668,146.38,52.514,126.68,71.001,151.4,18.785,277.44,36.656,131.53,41,172.18,6.4052,112.7
-59.209,284.44,52.668,146.38,52.514,126.68,71.001,151.4,18.785,277.44,36.656,131.53,41,172.18,6.4052,112.7
-59.209,284.44,52.668,146.38,52.514,126.68,71.001,151.4,18.785,277.44,36.656,131.53,41,172.18,6.4052,112.7
-58.969,283.98,52.681,146,52.317,126.28,70.781,151.03,18.964,276.6,36.792,130.94,40.965,171.6,6.0231,112.29
-58.969,283.98,52.681,146,52.317,126.28,70.781,151.03,18.964,276.6,36.792,130.94,40.965,171.6,6.0231,112.29
-58.481,283.03,52.704,145.24,51.916,125.47,70.334,150.27,19.326,274.9,37.061,129.75,40.898,170.42,5.2533,111.46
-58.481,283.03,52.704,145.24,51.916,125.47,70.334,150.27,19.326,274.9,37.061,129.75,40.898,170.42,5.2533,111.46
-58.233,282.54,52.713,144.85,51.711,125.06,70.107,149.88,19.509,274.04,37.195,129.15,40.866,169.82,4.8657,111.04
-58.233,282.54,52.713,144.85,51.711,125.06,70.107,149.88,19.509,274.04,37.195,129.15,40.866,169.82,4.8657,111.04
-58.233,282.54,52.713,144.85,51.711,125.06,70.107,149.88,19.509,274.04,37.195,129.15,40.866,169.82,4.8657,111.04
-57.983,282.05,52.722,144.45,51.505,124.64,69.879,149.49,19.694,273.16,37.328,128.54,40.834,169.22,4.4762,110.61
-57.983,282.05,52.722,144.45,51.505,124.64,69.879,149.49,19.694,273.16,37.328,128.54,40.834,169.22,4.4762,110.61
-57.983,282.05,52.722,144.45,51.505,124.64,69.879,149.49,19.694,273.16,37.328,128.54,40.834,169.22,4.4762,110.61
-57.731,281.55,52.73,144.05,51.296,124.23,69.648,149.1,19.881,272.28,37.46,127.93,40.803,168.61,4.085,110.18
-57.476,281.04,52.736,143.65,51.085,123.81,69.415,148.7,20.069,271.39,37.591,127.31,40.773,168,3.692,109.74
-57.476,281.04,52.736,143.65,51.085,123.81,69.415,148.7,20.069,271.39,37.591,127.31,40.773,168,3.692,109.74
-57.476,281.04,52.736,143.65,51.085,123.81,69.415,148.7,20.069,271.39,37.591,127.31,40.773,168,3.692,109.74
-57.219,280.52,52.741,143.25,50.871,123.38,69.18,148.3,20.259,270.5,37.721,126.69,40.743,167.38,3.2973,109.3
-57.219,280.52,52.741,143.25,50.871,123.38,69.18,148.3,20.259,270.5,37.721,126.69,40.743,167.38,3.2973,109.3
-57.219,280.52,52.741,143.25,50.871,123.38,69.18,148.3,20.259,270.5,37.721,126.69,40.743,167.38,3.2973,109.3
-56.698,279.47,52.748,142.42,50.437,122.53,68.704,147.49,20.642,268.68,37.979,125.44,40.685,166.14,2.5028,108.41
-56.698,279.47,52.748,142.42,50.437,122.53,68.704,147.49,20.642,268.68,37.979,125.44,40.685,166.14,2.5028,108.41
-56.434,278.93,52.75,142,50.216,122.1,68.463,147.08,20.836,267.76,38.106,124.81,40.657,165.51,2.103,107.96
-56.434,278.93,52.75,142,50.216,122.1,68.463,147.08,20.836,267.76,38.106,124.81,40.657,165.51,2.103,107.96
-56.168,278.38,52.751,141.58,49.994,121.67,68.22,146.66,21.032,266.83,38.233,124.17,40.63,164.88,1.7017,107.5
-56.168,278.38,52.751,141.58,49.994,121.67,68.22,146.66,21.032,266.83,38.233,124.17,40.63,164.88,1.7017,107.5
-55.9,277.83,52.751,141.15,49.769,121.23,67.975,146.24,21.229,265.9,38.358,123.53,40.603,164.25,1.2987,107.04
-55.9,277.83,52.751,141.15,49.769,121.23,67.975,146.24,21.229,265.9,38.358,123.53,40.603,164.25,1.2987,107.04
-55.629,277.27,52.749,140.73,49.541,120.79,67.728,145.82,21.427,264.96,38.483,122.89,40.577,163.61,0.89417,106.58
-55.629,277.27,52.749,140.73,49.541,120.79,67.728,145.82,21.427,264.96,38.483,122.89,40.577,163.61,0.89417,106.58
-55.356,276.7,52.746,140.29,49.312,120.35,67.479,145.39,21.627,264.01,38.607,122.25,40.552,162.96,0.48809,106.11
-55.356,276.7,52.746,140.29,49.312,120.35,67.479,145.39,21.627,264.01,38.607,122.25,40.552,162.96,0.48809,106.11
-55.081,276.12,52.742,139.85,49.08,119.9,67.229,144.96,21.828,263.05,38.73,121.6,40.527,162.32,0.080478,105.64
-55.081,276.12,52.742,139.85,49.08,119.9,67.229,144.96,21.828,263.05,38.73,121.6,40.527,162.32,0.080478,105.64
-54.804,275.54,52.737,139.41,48.847,119.45,66.976,144.53,22.031,262.09,38.852,120.94,40.503,161.66,-0.32863,105.17
-54.804,275.54,52.737,139.41,48.847,119.45,66.976,144.53,22.031,262.09,38.852,120.94,40.503,161.66,-0.32863,105.17
-54.524,274.94,52.731,138.97,48.611,119.01,66.721,144.09,22.235,261.11,38.972,120.29,40.479,161.01,-0.7392,104.69
-54.524,274.94,52.731,138.97,48.611,119.01,66.721,144.09,22.235,261.11,38.972,120.29,40.479,161.01,-0.7392,104.69
-54.524,274.94,52.731,138.97,48.611,119.01,66.721,144.09,22.235,261.11,38.972,120.29,40.479,161.01,-0.7392,104.69
-54.242,274.35,52.723,138.52,48.373,118.55,66.465,143.65,22.44,260.13,39.092,119.63,40.456,160.35,-1.1512,104.2
-54.242,274.35,52.723,138.52,48.373,118.55,66.465,143.65,22.44,260.13,39.092,119.63,40.456,160.35,-1.1512,104.2
-53.959,273.74,52.715,138.07,48.133,118.1,66.206,143.21,22.647,259.15,39.211,118.97,40.434,159.69,-1.5647,103.72
-53.673,273.13,52.705,137.61,47.891,117.64,65.946,142.76,22.855,258.15,39.329,118.3,40.412,159.02,-1.9795,103.23
-53.673,273.13,52.705,137.61,47.891,117.64,65.946,142.76,22.855,258.15,39.329,118.3,40.412,159.02,-1.9795,103.23
-53.385,272.51,52.694,137.16,47.647,117.18,65.684,142.31,23.064,257.15,39.446,117.63,40.39,158.35,-2.3957,102.73
-53.385,272.51,52.694,137.16,47.647,117.18,65.684,142.31,23.064,257.15,39.446,117.63,40.39,158.35,-2.3957,102.73
-53.094,271.88,52.682,136.69,47.4,116.72,65.42,141.86,23.275,256.15,39.561,116.96,40.369,157.68,-2.8132,102.24
-52.802,271.25,52.668,136.23,47.152,116.25,65.154,141.4,23.486,255.13,39.676,116.29,40.349,157,-3.232,101.74
-52.802,271.25,52.668,136.23,47.152,116.25,65.154,141.4,23.486,255.13,39.676,116.29,40.349,157,-3.232,101.74
-52.802,271.25,52.668,136.23,47.152,116.25,65.154,141.4,23.486,255.13,39.676,116.29,40.349,157,-3.232,101.74
-52.802,271.25,52.668,136.23,47.152,116.25,65.154,141.4,23.486,255.13,39.676,116.29,40.349,157,-3.232,101.74
-52.508,270.61,52.653,135.76,46.902,115.79,64.887,140.95,23.699,254.11,39.79,115.61,40.329,156.32,-3.6522,101.23
-52.508,270.61,52.653,135.76,46.902,115.79,64.887,140.95,23.699,254.11,39.79,115.61,40.329,156.32,-3.6522,101.23
-52.508,270.61,52.653,135.76,46.902,115.79,64.887,140.95,23.699,254.11,39.79,115.61,40.329,156.32,-3.6522,101.23
-52.508,270.61,52.653,135.76,46.902,115.79,64.887,140.95,23.699,254.11,39.79,115.61,40.329,156.32,-3.6522,101.23
-51.913,269.31,52.62,134.81,46.396,114.85,64.346,140.02,24.129,252.05,40.013,114.25,40.291,154.95,-4.4962,100.22
-51.913,269.31,52.62,134.81,46.396,114.85,64.346,140.02,24.129,252.05,40.013,114.25,40.291,154.95,-4.4962,100.22
-51.913,269.31,52.62,134.81,46.396,114.85,64.346,140.02,24.129,252.05,40.013,114.25,40.291,154.95,-4.4962,100.22
-51.31,267.98,52.582,133.85,45.881,113.9,63.799,139.08,24.563,249.96,40.233,112.87,40.254,153.57,-5.345,99.183
-51.31,267.98,52.582,133.85,45.881,113.9,63.799,139.08,24.563,249.96,40.233,112.87,40.254,153.57,-5.345,99.183
-51.31,267.98,52.582,133.85,45.881,113.9,63.799,139.08,24.563,249.96,40.233,112.87,40.254,153.57,-5.345,99.183
-51.006,267.3,52.561,133.37,45.622,113.42,63.522,138.6,24.782,248.91,40.341,112.18,40.237,152.87,-5.7711,98.663
-51.006,267.3,52.561,133.37,45.622,113.42,63.522,138.6,24.782,248.91,40.341,112.18,40.237,152.87,-5.7711,98.663
-50.699,266.62,52.539,132.88,45.36,112.94,63.244,138.12,25.002,247.84,40.448,111.49,40.22,152.17,-6.1984,98.139
-50.391,265.94,52.516,132.39,45.096,112.46,62.964,137.64,25.223,246.78,40.553,110.79,40.203,151.47,-6.6267,97.611
-50.391,265.94,52.516,132.39,45.096,112.46,62.964,137.64,25.223,246.78,40.553,110.79,40.203,151.47,-6.6267,97.611
-50.081,265.24,52.491,131.89,44.831,111.97,62.683,137.16,25.445,245.7,40.658,110.09,40.187,150.77,-7.0562,97.081
-50.081,265.24,52.491,131.89,44.831,111.97,62.683,137.16,25.445,245.7,40.658,110.09,40.187,150.77,-7.0562,97.081
-50.081,265.24,52.491,131.89,44.831,111.97,62.683,137.16,25.445,245.7,40.658,110.09,40.187,150.77,-7.0562,97.081
-49.769,264.54,52.465,131.4,44.564,111.49,62.4,136.67,25.668,244.62,40.761,109.39,40.171,150.06,-7.4867,96.548
-49.769,264.54,52.465,131.4,44.564,111.49,62.4,136.67,25.668,244.62,40.761,109.39,40.171,150.06,-7.4867,96.548
-49.769,264.54,52.465,131.4,44.564,111.49,62.4,136.67,25.668,244.62,40.761,109.39,40.171,150.06,-7.4867,96.548
-49.139,263.12,52.41,130.4,44.024,110.51,61.828,135.69,26.118,242.45,40.964,107.98,40.141,148.63,-8.3506,95.472
-49.139,263.12,52.41,130.4,44.024,110.51,61.828,135.69,26.118,242.45,40.964,107.98,40.141,148.63,-8.3506,95.472
-48.821,262.4,52.38,129.89,43.751,110.02,61.54,135.2,26.344,241.35,41.064,107.28,40.127,147.91,-8.7841,94.93
-48.821,262.4,52.38,129.89,43.751,110.02,61.54,135.2,26.344,241.35,41.064,107.28,40.127,147.91,-8.7841,94.93
-48.821,262.4,52.38,129.89,43.751,110.02,61.54,135.2,26.344,241.35,41.064,107.28,40.127,147.91,-8.7841,94.93
-48.501,261.68,52.349,129.38,43.477,109.52,61.251,134.7,26.571,240.25,41.162,106.57,40.112,147.19,-9.2185,94.384
-48.501,261.68,52.349,129.38,43.477,109.52,61.251,134.7,26.571,240.25,41.162,106.57,40.112,147.19,-9.2185,94.384
-48.501,261.68,52.349,129.38,43.477,109.52,61.251,134.7,26.571,240.25,41.162,106.57,40.112,147.19,-9.2185,94.384
-47.857,260.21,52.284,128.36,42.924,108.53,60.666,133.7,27.029,238.02,41.356,105.14,40.085,145.74,-10.09,93.285
-47.857,260.21,52.284,128.36,42.924,108.53,60.666,133.7,27.029,238.02,41.356,105.14,40.085,145.74,-10.09,93.285
-47.532,259.46,52.249,127.84,42.645,108.03,60.372,133.19,27.259,236.9,41.451,104.43,40.072,145.01,-10.527,92.731
-47.532,259.46,52.249,127.84,42.645,108.03,60.372,133.19,27.259,236.9,41.451,104.43,40.072,145.01,-10.527,92.731
-47.205,258.71,52.213,127.32,42.364,107.53,60.076,132.68,27.49,235.77,41.544,103.71,40.06,144.28,-10.965,92.175
-47.205,258.71,52.213,127.32,42.364,107.53,60.076,132.68,27.49,235.77,41.544,103.71,40.06,144.28,-10.965,92.175
-47.205,258.71,52.213,127.32,42.364,107.53,60.076,132.68,27.49,235.77,41.544,103.71,40.06,144.28,-10.965,92.175
-46.876,257.96,52.176,126.8,42.081,107.03,59.778,132.17,27.722,234.64,41.636,102.99,40.047,143.55,-11.403,91.616
-46.876,257.96,52.176,126.8,42.081,107.03,59.778,132.17,27.722,234.64,41.636,102.99,40.047,143.55,-11.403,91.616
-46.546,257.2,52.137,126.28,41.797,106.52,59.479,131.66,27.955,233.5,41.727,102.27,40.035,142.81,-11.843,91.054
-46.214,256.43,52.097,125.75,41.512,106.02,59.179,131.14,28.188,232.36,41.817,101.55,40.023,142.07,-12.283,90.489
-46.214,256.43,52.097,125.75,41.512,106.02,59.179,131.14,28.188,232.36,41.817,101.55,40.023,142.07,-12.283,90.489
-45.88,255.66,52.056,125.22,41.225,105.51,58.877,130.63,28.423,231.21,41.905,100.83,40.012,141.33,-12.724,89.922
-45.88,255.66,52.056,125.22,41.225,105.51,58.877,130.63,28.423,231.21,41.905,100.83,40.012,141.33,-12.724,89.922
-45.88,255.66,52.056,125.22,41.225,105.51,58.877,130.63,28.423,231.21,41.905,100.83,40.012,141.33,-12.724,89.922
-45.545,254.88,52.014,124.69,40.936,105,58.573,130.11,28.658,230.06,41.993,100.1,40.001,140.59,-13.166,89.353
-45.207,254.09,51.97,124.16,40.646,104.49,58.268,129.58,28.894,228.9,42.078,99.378,39.99,139.84,-13.608,88.78
-44.869,253.3,51.925,123.63,40.355,103.98,57.962,129.06,29.131,227.74,42.163,98.65,39.979,139.09,-14.051,88.206
-44.869,253.3,51.925,123.63,40.355,103.98,57.962,129.06,29.131,227.74,42.163,98.65,39.979,139.09,-14.051,88.206
-44.869,253.3,51.925,123.63,40.355,103.98,57.962,129.06,29.131,227.74,42.163,98.65,39.979,139.09,-14.051,88.206
-44.528,252.51,51.878,123.09,40.062,103.47,57.654,128.53,29.368,226.57,42.246,97.922,39.969,138.34,-14.494,87.629
-44.528,252.51,51.878,123.09,40.062,103.47,57.654,128.53,29.368,226.57,42.246,97.922,39.969,138.34,-14.494,87.629
-44.186,251.71,51.831,122.55,39.767,102.95,57.345,128,29.607,225.39,42.328,97.192,39.959,137.59,-14.938,87.05
-43.843,250.9,51.782,122.01,39.472,102.43,57.034,127.47,29.845,224.21,42.408,96.461,39.949,136.83,-15.383,86.468
-43.843,250.9,51.782,122.01,39.472,102.43,57.034,127.47,29.845,224.21,42.408,96.461,39.949,136.83,-15.383,86.468
-43.498,250.09,51.732,121.46,39.175,101.92,56.722,126.94,30.085,223.03,42.487,95.729,39.939,136.08,-15.828,85.884
-43.498,250.09,51.732,121.46,39.175,101.92,56.722,126.94,30.085,223.03,42.487,95.729,39.939,136.08,-15.828,85.884
-43.498,250.09,51.732,121.46,39.175,101.92,56.722,126.94,30.085,223.03,42.487,95.729,39.939,136.08,-15.828,85.884
-43.498,250.09,51.732,121.46,39.175,101.92,56.722,126.94,30.085,223.03,42.487,95.729,39.939,136.08,-15.828,85.884
-43.151,249.27,51.68,120.92,38.876,101.4,56.409,126.4,30.325,221.84,42.565,94.996,39.93,135.32,-16.274,85.298
-43.151,249.27,51.68,120.92,38.876,101.4,56.409,126.4,30.325,221.84,42.565,94.996,39.93,135.32,-16.274,85.298
-43.151,249.27,51.68,120.92,38.876,101.4,56.409,126.4,30.325,221.84,42.565,94.996,39.93,135.32,-16.274,85.298
-42.453,247.62,51.573,119.82,38.276,100.36,55.778,125.33,30.808,219.45,42.717,93.527,39.911,133.79,-17.166,84.12
-42.453,247.62,51.573,119.82,38.276,100.36,55.778,125.33,30.808,219.45,42.717,93.527,39.911,133.79,-17.166,84.12
-42.453,247.62,51.573,119.82,38.276,100.36,55.778,125.33,30.808,219.45,42.717,93.527,39.911,133.79,-17.166,84.12
-42.102,246.79,51.518,119.27,37.973,99.836,55.461,124.78,31.05,218.25,42.79,92.792,39.902,133.03,-17.613,83.528
-42.102,246.79,51.518,119.27,37.973,99.836,55.461,124.78,31.05,218.25,42.79,92.792,39.902,133.03,-17.613,83.528
-42.102,246.79,51.518,119.27,37.973,99.836,55.461,124.78,31.05,218.25,42.79,92.792,39.902,133.03,-17.613,83.528
-41.395,245.11,51.403,118.16,37.365,98.789,54.822,123.69,31.536,215.83,42.933,91.319,39.885,131.49,-18.508,82.337
-41.395,245.11,51.403,118.16,37.365,98.789,54.822,123.69,31.536,215.83,42.933,91.319,39.885,131.49,-18.508,82.337
-41.039,244.26,51.344,117.6,37.059,98.263,54.501,123.15,31.779,214.62,43.003,90.581,39.876,130.72,-18.956,81.738
-41.039,244.26,51.344,117.6,37.059,98.263,54.501,123.15,31.779,214.62,43.003,90.581,39.876,130.72,-18.956,81.738
-40.682,243.41,51.284,117.04,36.752,97.737,54.179,122.6,32.024,213.4,43.071,89.843,39.868,129.95,-19.405,81.138
-40.682,243.41,51.284,117.04,36.752,97.737,54.179,122.6,32.024,213.4,43.071,89.843,39.868,129.95,-19.405,81.138
-40.324,242.55,51.222,116.48,36.444,97.209,53.855,122.05,32.268,212.17,43.137,89.104,39.859,129.18,-19.854,80.536
-40.324,242.55,51.222,116.48,36.444,97.209,53.855,122.05,32.268,212.17,43.137,89.104,39.859,129.18,-19.854,80.536
-39.964,241.69,51.158,115.92,36.135,96.681,53.531,121.49,32.513,210.95,43.203,88.365,39.851,128.4,-20.302,79.932
-39.964,241.69,51.158,115.92,36.135,96.681,53.531,121.49,32.513,210.95,43.203,88.365,39.851,128.4,-20.302,79.932
-39.603,240.82,51.094,115.36,35.824,96.152,53.205,120.94,32.759,209.71,43.266,87.626,39.843,127.63,-20.752,79.326
-39.603,240.82,51.094,115.36,35.824,96.152,53.205,120.94,32.759,209.71,43.266,87.626,39.843,127.63,-20.752,79.326
-39.241,239.95,51.028,114.79,35.513,95.621,52.877,120.38,33.005,208.48,43.329,86.886,39.835,126.85,-21.201,78.719
-39.241,239.95,51.028,114.79,35.513,95.621,52.877,120.38,33.005,208.48,43.329,86.886,39.835,126.85,-21.201,78.719
-38.877,239.08,50.961,114.22,35.201,95.09,52.549,119.82,33.252,207.24,43.39,86.146,39.827,126.07,-21.651,78.11
-38.877,239.08,50.961,114.22,35.201,95.09,52.549,119.82,33.252,207.24,43.39,86.146,39.827,126.07,-21.651,78.11
-38.512,238.2,50.893,113.66,34.887,94.559,52.22,119.26,33.498,206,43.449,85.406,39.819,125.29,-22.1,77.499
-38.512,238.2,50.893,113.66,34.887,94.559,52.22,119.26,33.498,206,43.449,85.406,39.819,125.29,-22.1,77.499
-38.145,237.31,50.823,113.09,34.573,94.026,51.889,118.7,33.745,204.75,43.507,84.666,39.811,124.5,-22.55,76.887
-38.145,237.31,50.823,113.09,34.573,94.026,51.889,118.7,33.745,204.75,43.507,84.666,39.811,124.5,-22.55,76.887
-37.778,236.42,50.752,112.52,34.257,93.493,51.558,118.14,33.993,203.5,43.564,83.926,39.803,123.72,-23,76.273
-37.409,235.53,50.68,111.94,33.941,92.959,51.225,117.57,34.241,202.24,43.619,83.186,39.795,122.93,-23.45,75.657
-37.409,235.53,50.68,111.94,33.941,92.959,51.225,117.57,34.241,202.24,43.619,83.186,39.795,122.93,-23.45,75.657
-37.409,235.53,50.68,111.94,33.941,92.959,51.225,117.57,34.241,202.24,43.619,83.186,39.795,122.93,-23.45,75.657
-37.039,234.63,50.607,111.37,33.624,92.424,50.891,117.01,34.489,200.99,43.672,82.446,39.787,122.15,-23.9,75.04
-37.039,234.63,50.607,111.37,33.624,92.424,50.891,117.01,34.489,200.99,43.672,82.446,39.787,122.15,-23.9,75.04
-37.039,234.63,50.607,111.37,33.624,92.424,50.891,117.01,34.489,200.99,43.672,82.446,39.787,122.15,-23.9,75.04
-36.667,233.73,50.532,110.8,33.306,91.889,50.556,116.44,34.737,199.73,43.725,81.706,39.779,121.36,-24.35,74.422
-36.667,233.73,50.532,110.8,33.306,91.889,50.556,116.44,34.737,199.73,43.725,81.706,39.779,121.36,-24.35,74.422
-35.921,231.92,50.379,109.64,32.667,90.817,49.883,115.3,35.235,197.2,43.825,80.227,39.763,119.78,-25.25,73.182
-35.921,231.92,50.379,109.64,32.667,90.817,49.883,115.3,35.235,197.2,43.825,80.227,39.763,119.78,-25.25,73.182
-35.921,231.92,50.379,109.64,32.667,90.817,49.883,115.3,35.235,197.2,43.825,80.227,39.763,119.78,-25.25,73.182
-35.546,231,50.3,109.06,32.346,90.28,49.546,114.73,35.484,195.93,43.872,79.488,39.755,118.99,-25.7,72.559
-35.546,231,50.3,109.06,32.346,90.28,49.546,114.73,35.484,195.93,43.872,79.488,39.755,118.99,-25.7,72.559
-35.171,230.08,50.22,108.49,32.025,89.743,49.207,114.16,35.733,194.65,43.919,78.749,39.747,118.2,-26.15,71.936
-34.794,229.16,50.139,107.91,31.703,89.205,48.867,113.58,35.982,193.38,43.963,78.011,39.739,117.41,-26.6,71.311
-34.794,229.16,50.139,107.91,31.703,89.205,48.867,113.58,35.982,193.38,43.963,78.011,39.739,117.41,-26.6,71.311
-34.415,228.24,50.056,107.32,31.38,88.667,48.526,113.01,36.231,192.1,44.007,77.274,39.731,116.62,-27.049,70.685
-34.415,228.24,50.056,107.32,31.38,88.667,48.526,113.01,36.231,192.1,44.007,77.274,39.731,116.62,-27.049,70.685
-34.036,227.31,49.973,106.74,31.056,88.128,48.184,112.43,36.481,190.82,44.048,76.537,39.722,115.82,-27.499,70.059
-34.036,227.31,49.973,106.74,31.056,88.128,48.184,112.43,36.481,190.82,44.048,76.537,39.722,115.82,-27.499,70.059
-34.036,227.31,49.973,106.74,31.056,88.128,48.184,112.43,36.481,190.82,44.048,76.537,39.722,115.82,-27.499,70.059
-33.656,226.37,49.888,106.16,30.732,87.589,47.842,111.85,36.731,189.53,44.089,75.8,39.714,115.03,-27.948,69.431
-33.656,226.37,49.888,106.16,30.732,87.589,47.842,111.85,36.731,189.53,44.089,75.8,39.714,115.03,-27.948,69.431
-33.275,225.44,49.802,105.58,30.407,87.05,47.498,111.28,36.98,188.24,44.127,75.065,39.705,114.23,-28.397,68.802
-33.275,225.44,49.802,105.58,30.407,87.05,47.498,111.28,36.98,188.24,44.127,75.065,39.705,114.23,-28.397,68.802
-32.893,224.5,49.714,104.99,30.082,86.511,47.154,110.7,37.23,186.95,44.164,74.33,39.696,113.44,-28.846,68.172
-32.893,224.5,49.714,104.99,30.082,86.511,47.154,110.7,37.23,186.95,44.164,74.33,39.696,113.44,-28.846,68.172
-32.509,223.55,49.625,104.41,29.756,85.971,46.809,110.11,37.48,185.66,44.2,73.596,39.687,112.64,-29.294,67.541
-32.509,223.55,49.625,104.41,29.756,85.971,46.809,110.11,37.48,185.66,44.2,73.596,39.687,112.64,-29.294,67.541
-32.125,222.61,49.535,103.82,29.429,85.431,46.463,109.53,37.73,184.37,44.234,72.863,39.678,111.84,-29.742,66.909
-32.125,222.61,49.535,103.82,29.429,85.431,46.463,109.53,37.73,184.37,44.234,72.863,39.678,111.84,-29.742,66.909
-31.74,221.66,49.444,103.24,29.102,84.891,46.116,108.95,37.98,183.07,44.267,72.13,39.669,111.04,-30.19,66.277
-31.74,221.66,49.444,103.24,29.102,84.891,46.116,108.95,37.98,183.07,44.267,72.13,39.669,111.04,-30.19,66.277
-31.354,220.7,49.352,102.65,28.774,84.351,45.768,108.37,38.229,181.77,44.298,71.399,39.659,110.25,-30.638,65.643
-31.354,220.7,49.352,102.65,28.774,84.351,45.768,108.37,38.229,181.77,44.298,71.399,39.659,110.25,-30.638,65.643
-30.967,219.75,49.258,102.06,28.446,83.811,45.42,107.78,38.479,180.47,44.328,70.669,39.65,109.45,-31.085,65.009
-30.967,219.75,49.258,102.06,28.446,83.811,45.42,107.78,38.479,180.47,44.328,70.669,39.65,109.45,-31.085,65.009
-30.579,218.79,49.163,101.47,28.118,83.271,45.07,107.2,38.728,179.17,44.356,69.94,39.64,108.65,-31.532,64.374
-30.579,218.79,49.163,101.47,28.118,83.271,45.07,107.2,38.728,179.17,44.356,69.94,39.64,108.65,-31.532,64.374
-30.191,217.82,49.067,100.88,27.789,82.73,44.72,106.61,38.978,177.86,44.383,69.212,39.629,107.85,-31.978,63.739
-30.191,217.82,49.067,100.88,27.789,82.73,44.72,106.61,38.978,177.86,44.383,69.212,39.629,107.85,-31.978,63.739
-29.801,216.86,48.97,100.29,27.459,82.19,44.369,106.02,39.227,176.55,44.408,68.486,39.619,107.05,-32.424,63.103
-29.801,216.86,48.97,100.29,27.459,82.19,44.369,106.02,39.227,176.55,44.408,68.486,39.619,107.05,-32.424,63.103
-29.411,215.89,48.871,99.706,27.129,81.65,44.018,105.43,39.476,175.25,44.431,67.76,39.608,106.25,-32.87,62.466
-29.411,215.89,48.871,99.706,27.129,81.65,44.018,105.43,39.476,175.25,44.431,67.76,39.608,106.25,-32.87,62.466
-29.02,214.92,48.771,99.116,26.799,81.11,43.666,104.85,39.725,173.93,44.453,67.037,39.598,105.45,-33.315,61.829
-29.02,214.92,48.771,99.116,26.799,81.11,43.666,104.85,39.725,173.93,44.453,67.037,39.598,105.45,-33.315,61.829
-28.628,213.94,48.67,98.526,26.469,80.57,43.313,104.26,39.974,172.62,44.474,66.314,39.586,104.65,-33.759,61.191
-28.628,213.94,48.67,98.526,26.469,80.57,43.313,104.26,39.974,172.62,44.474,66.314,39.586,104.65,-33.759,61.191
-28.628,213.94,48.67,98.526,26.469,80.57,43.313,104.26,39.974,172.62,44.474,66.314,39.586,104.65,-33.759,61.191
-28.235,212.96,48.568,97.936,26.138,80.03,42.959,103.67,40.223,171.31,44.493,65.593,39.575,103.85,-34.203,60.553
-28.235,212.96,48.568,97.936,26.138,80.03,42.959,103.67,40.223,171.31,44.493,65.593,39.575,103.85,-34.203,60.553
-27.842,211.98,48.464,97.345,25.807,79.49,42.605,103.08,40.471,169.99,44.51,64.874,39.563,103.05,-34.646,59.915
-27.842,211.98,48.464,97.345,25.807,79.49,42.605,103.08,40.471,169.99,44.51,64.874,39.563,103.05,-34.646,59.915
-27.448,211,48.36,96.755,25.475,78.951,42.251,102.48,40.719,168.68,44.526,64.156,39.551,102.25,-35.089,59.276
-27.448,211,48.36,96.755,25.475,78.951,42.251,102.48,40.719,168.68,44.526,64.156,39.551,102.25,-35.089,59.276
-27.053,210.02,48.254,96.164,25.144,78.412,41.895,101.89,40.967,167.36,44.54,63.44,39.539,101.45,-35.531,58.636
-26.658,209.03,48.147,95.573,24.812,77.873,41.539,101.3,41.215,166.04,44.553,62.725,39.526,100.65,-35.972,57.997
-26.261,208.04,48.039,94.983,24.48,77.334,41.183,100.71,41.462,164.72,44.564,62.013,39.513,99.85,-36.413,57.357
-26.261,208.04,48.039,94.983,24.48,77.334,41.183,100.71,41.462,164.72,44.564,62.013,39.513,99.85,-36.413,57.357
-25.865,207.04,47.929,94.392,24.148,76.796,40.825,100.11,41.709,163.39,44.574,61.302,39.499,99.05,-36.853,56.717
-25.865,207.04,47.929,94.392,24.148,76.796,40.825,100.11,41.709,163.39,44.574,61.302,39.499,99.05,-36.853,56.717
-25.865,207.04,47.929,94.392,24.148,76.796,40.825,100.11,41.709,163.39,44.574,61.302,39.499,99.05,-36.853,56.717
-25.865,207.04,47.929,94.392,24.148,76.796,40.825,100.11,41.709,163.39,44.574,61.302,39.499,99.05,-36.853,56.717
-25.467,206.05,47.819,93.801,23.816,76.258,40.468,99.521,41.955,162.07,44.582,60.593,39.485,98.251,-37.293,56.077
-25.467,206.05,47.819,93.801,23.816,76.258,40.468,99.521,41.955,162.07,44.582,60.593,39.485,98.251,-37.293,56.077
-25.069,205.05,47.707,93.21,23.483,75.721,40.109,98.927,42.201,160.75,44.588,59.886,39.471,97.452,-37.731,55.437
-24.671,204.05,47.594,92.62,23.151,75.184,39.751,98.333,42.447,159.42,44.593,59.18,39.456,96.653,-38.169,54.797
-24.272,203.05,47.48,92.029,22.818,74.647,39.392,97.738,42.692,158.1,44.597,58.477,39.441,95.855,-38.606,54.157
-24.272,203.05,47.48,92.029,22.818,74.647,39.392,97.738,42.692,158.1,44.597,58.477,39.441,95.855,-38.606,54.157
-23.872,202.05,47.365,91.439,22.486,74.112,39.032,97.143,42.937,156.77,44.599,57.776,39.426,95.057,-39.043,53.516
-23.872,202.05,47.365,91.439,22.486,74.112,39.032,97.143,42.937,156.77,44.599,57.776,39.426,95.057,-39.043,53.516
-23.872,202.05,47.365,91.439,22.486,74.112,39.032,97.143,42.937,156.77,44.599,57.776,39.426,95.057,-39.043,53.516
-23.472,201.04,47.249,90.849,22.154,73.576,38.672,96.548,43.181,155.44,44.599,57.078,39.41,94.259,-39.478,52.876
-23.472,201.04,47.249,90.849,22.154,73.576,38.672,96.548,43.181,155.44,44.599,57.078,39.41,94.259,-39.478,52.876
-23.071,200.03,47.131,90.259,21.821,73.041,38.311,95.953,43.425,154.12,44.598,56.381,39.394,93.462,-39.913,52.236
-23.071,200.03,47.131,90.259,21.821,73.041,38.311,95.953,43.425,154.12,44.598,56.381,39.394,93.462,-39.913,52.236
-22.67,199.02,47.013,89.67,21.489,72.507,37.95,95.357,43.668,152.79,44.595,55.687,39.377,92.666,-40.347,51.596
-22.67,199.02,47.013,89.67,21.489,72.507,37.95,95.357,43.668,152.79,44.595,55.687,39.377,92.666,-40.347,51.596
-22.269,198.01,46.893,89.081,21.157,71.974,37.589,94.762,43.911,151.46,44.591,54.995,39.359,91.87,-40.779,50.956
-22.269,198.01,46.893,89.081,21.157,71.974,37.589,94.762,43.911,151.46,44.591,54.995,39.359,91.87,-40.779,50.956
-21.867,197,46.772,88.492,20.824,71.441,37.227,94.166,44.153,150.13,44.585,54.305,39.342,91.075,-41.211,50.317
-21.867,197,46.772,88.492,20.824,71.441,37.227,94.166,44.153,150.13,44.585,54.305,39.342,91.075,-41.211,50.317
-21.464,195.98,46.65,87.904,20.492,70.909,36.865,93.57,44.395,148.8,44.578,53.617,39.323,90.281,-41.642,49.677
-21.464,195.98,46.65,87.904,20.492,70.909,36.865,93.57,44.395,148.8,44.578,53.617,39.323,90.281,-41.642,49.677
-21.062,194.97,46.527,87.317,20.161,70.377,36.502,92.974,44.636,147.47,44.569,52.933,39.305,89.487,-42.072,49.038
-21.062,194.97,46.527,87.317,20.161,70.377,36.502,92.974,44.636,147.47,44.569,52.933,39.305,89.487,-42.072,49.038
-20.658,193.95,46.403,86.73,19.829,69.847,36.139,92.379,44.876,146.14,44.559,52.25,39.285,88.694,-42.501,48.4
-20.658,193.95,46.403,86.73,19.829,69.847,36.139,92.379,44.876,146.14,44.559,52.25,39.285,88.694,-42.501,48.4
-20.658,193.95,46.403,86.73,19.829,69.847,36.139,92.379,44.876,146.14,44.559,52.25,39.285,88.694,-42.501,48.4
-20.255,192.93,46.278,86.143,19.498,69.317,35.776,91.783,45.116,144.81,44.547,51.57,39.266,87.902,-42.929,47.761
-20.255,192.93,46.278,86.143,19.498,69.317,35.776,91.783,45.116,144.81,44.547,51.57,39.266,87.902,-42.929,47.761
-20.255,192.93,46.278,86.143,19.498,69.317,35.776,91.783,45.116,144.81,44.547,51.57,39.266,87.902,-42.929,47.761
-20.255,192.93,46.278,86.143,19.498,69.317,35.776,91.783,45.116,144.81,44.547,51.57,39.266,87.902,-42.929,47.761
-19.447,190.89,46.024,84.972,18.835,68.26,35.049,90.592,45.594,142.16,44.518,50.219,39.224,86.32,-43.782,46.486
-19.447,190.89,46.024,84.972,18.835,68.26,35.049,90.592,45.594,142.16,44.518,50.219,39.224,86.32,-43.782,46.486
-19.447,190.89,46.024,84.972,18.835,68.26,35.049,90.592,45.594,142.16,44.518,50.219,39.224,86.32,-43.782,46.486
-18.638,188.84,45.766,83.804,18.175,67.207,34.321,89.401,46.068,139.5,44.484,48.878,39.181,84.742,-44.631,45.213
-18.638,188.84,45.766,83.804,18.175,67.207,34.321,89.401,46.068,139.5,44.484,48.878,39.181,84.742,-44.631,45.213
-18.233,187.81,45.636,83.22,17.845,66.681,33.956,88.806,46.305,138.17,44.464,48.211,39.158,83.955,-45.054,44.577
-18.233,187.81,45.636,83.22,17.845,66.681,33.956,88.806,46.305,138.17,44.464,48.211,39.158,83.955,-45.054,44.577
-17.828,186.79,45.504,82.638,17.515,66.157,33.592,88.211,46.54,136.84,44.443,47.548,39.135,83.169,-45.475,43.942
-17.828,186.79,45.504,82.638,17.515,66.157,33.592,88.211,46.54,136.84,44.443,47.548,39.135,83.169,-45.475,43.942
-17.828,186.79,45.504,82.638,17.515,66.157,33.592,88.211,46.54,136.84,44.443,47.548,39.135,83.169,-45.475,43.942
-17.423,185.76,45.372,82.057,17.186,65.634,33.227,87.616,46.775,135.52,44.42,46.887,39.111,82.383,-45.896,43.307
-17.423,185.76,45.372,82.057,17.186,65.634,33.227,87.616,46.775,135.52,44.42,46.887,39.111,82.383,-45.896,43.307
-17.017,184.73,45.238,81.476,16.857,65.112,32.862,87.022,47.009,134.19,44.396,46.23,39.087,81.599,-46.315,42.673
-17.017,184.73,45.238,81.476,16.857,65.112,32.862,87.022,47.009,134.19,44.396,46.23,39.087,81.599,-46.315,42.673
-16.206,182.67,44.968,80.318,16.201,64.071,32.131,85.835,47.474,131.54,44.343,44.924,39.036,80.035,-47.15,41.408
-16.206,182.67,44.968,80.318,16.201,64.071,32.131,85.835,47.474,131.54,44.343,44.924,39.036,80.035,-47.15,41.408
-16.206,182.67,44.968,80.318,16.201,64.071,32.131,85.835,47.474,131.54,44.343,44.924,39.036,80.035,-47.15,41.408
-15.8,181.64,44.831,79.74,15.873,63.552,31.765,85.241,47.706,130.21,44.315,44.275,39.01,79.255,-47.565,40.776
-15.8,181.64,44.831,79.74,15.873,63.552,31.765,85.241,47.706,130.21,44.315,44.275,39.01,79.255,-47.565,40.776
-15.393,180.61,44.694,79.163,15.546,63.034,31.4,84.649,47.936,128.89,44.284,43.63,38.982,78.476,-47.98,40.146
-14.987,179.57,44.555,78.588,15.22,62.517,31.034,84.056,48.166,127.57,44.252,42.988,38.955,77.698,-48.393,39.516
-14.987,179.57,44.555,78.588,15.22,62.517,31.034,84.056,48.166,127.57,44.252,42.988,38.955,77.698,-48.393,39.516
-14.987,179.57,44.555,78.588,15.22,62.517,31.034,84.056,48.166,127.57,44.252,42.988,38.955,77.698,-48.393,39.516
-14.987,179.57,44.555,78.588,15.22,62.517,31.034,84.056,48.166,127.57,44.252,42.988,38.955,77.698,-48.393,39.516
-14.581,178.54,44.416,78.013,14.894,62.002,30.668,83.464,48.394,126.25,44.219,42.349,38.926,76.922,-48.804,38.887
-14.581,178.54,44.416,78.013,14.894,62.002,30.668,83.464,48.394,126.25,44.219,42.349,38.926,76.922,-48.804,38.887
-14.581,178.54,44.416,78.013,14.894,62.002,30.668,83.464,48.394,126.25,44.219,42.349,38.926,76.922,-48.804,38.887
-13.769,176.47,44.134,76.867,14.244,60.975,29.936,82.282,48.849,123.61,44.148,41.08,38.868,75.373,-49.624,37.632
-13.769,176.47,44.134,76.867,14.244,60.975,29.936,82.282,48.849,123.61,44.148,41.08,38.868,75.373,-49.624,37.632
-13.769,176.47,44.134,76.867,14.244,60.975,29.936,82.282,48.849,123.61,44.148,41.08,38.868,75.373,-49.624,37.632
-13.362,175.44,43.991,76.296,13.92,60.464,29.57,81.692,49.075,122.29,44.11,40.451,38.837,74.601,-50.031,37.006
-13.362,175.44,43.991,76.296,13.92,60.464,29.57,81.692,49.075,122.29,44.11,40.451,38.837,74.601,-50.031,37.006
-12.956,174.4,43.848,75.726,13.597,59.954,29.204,81.102,49.3,120.97,44.071,39.826,38.806,73.831,-50.438,36.381
-12.956,174.4,43.848,75.726,13.597,59.954,29.204,81.102,49.3,120.97,44.071,39.826,38.806,73.831,-50.438,36.381
-12.143,172.33,43.558,74.591,12.953,58.938,28.472,79.925,49.747,118.34,43.988,38.585,38.741,72.295,-51.246,35.134
-12.143,172.33,43.558,74.591,12.953,58.938,28.472,79.925,49.747,118.34,43.988,38.585,38.741,72.295,-51.246,35.134
-12.143,172.33,43.558,74.591,12.953,58.938,28.472,79.925,49.747,118.34,43.988,38.585,38.741,72.295,-51.246,35.134
-11.737,171.29,43.412,74.025,12.631,58.432,28.106,79.337,49.968,117.03,43.944,37.969,38.708,71.53,-51.648,34.513
-11.737,171.29,43.412,74.025,12.631,58.432,28.106,79.337,49.968,117.03,43.944,37.969,38.708,71.53,-51.648,34.513
-11.331,170.26,43.265,73.46,12.311,57.927,27.74,78.75,50.189,115.72,43.899,37.358,38.674,70.766,-52.049,33.892
-11.331,170.26,43.265,73.46,12.311,57.927,27.74,78.75,50.189,115.72,43.899,37.358,38.674,70.766,-52.049,33.892
-10.925,169.22,43.117,72.897,11.991,57.424,27.375,78.164,50.409,114.41,43.852,36.749,38.639,70.004,-52.448,33.273
-10.925,169.22,43.117,72.897,11.991,57.424,27.375,78.164,50.409,114.41,43.852,36.749,38.639,70.004,-52.448,33.273
-10.519,168.19,42.968,72.336,11.672,56.923,27.009,77.578,50.627,113.11,43.804,36.145,38.603,69.244,-52.846,32.655
-10.519,168.19,42.968,72.336,11.672,56.923,27.009,77.578,50.627,113.11,43.804,36.145,38.603,69.244,-52.846,32.655
-10.519,168.19,42.968,72.336,11.672,56.923,27.009,77.578,50.627,113.11,43.804,36.145,38.603,69.244,-52.846,32.655
-9.7083,166.12,42.668,71.217,11.037,55.924,26.277,76.41,51.061,110.5,43.703,34.947,38.53,67.729,-53.637,31.424
-9.7083,166.12,42.668,71.217,11.037,55.924,26.277,76.41,51.061,110.5,43.703,34.947,38.53,67.729,-53.637,31.424
-9.7083,166.12,42.668,71.217,11.037,55.924,26.277,76.41,51.061,110.5,43.703,34.947,38.53,67.729,-53.637,31.424
-9.7083,166.12,42.668,71.217,11.037,55.924,26.277,76.41,51.061,110.5,43.703,34.947,38.53,67.729,-53.637,31.424
-9.303,165.08,42.516,70.66,10.721,55.427,25.912,75.827,51.276,109.2,43.65,34.354,38.491,66.974,-54.03,30.81
-9.303,165.08,42.516,70.66,10.721,55.427,25.912,75.827,51.276,109.2,43.65,34.354,38.491,66.974,-54.03,30.81
-8.8979,164.04,42.364,70.104,10.405,54.932,25.547,75.245,51.49,107.9,43.596,33.764,38.453,66.221,-54.422,30.197
-8.493,163.01,42.211,69.55,10.091,54.438,25.182,74.664,51.703,106.6,43.541,33.178,38.413,65.47,-54.812,29.586
-8.493,163.01,42.211,69.55,10.091,54.438,25.182,74.664,51.703,106.6,43.541,33.178,38.413,65.47,-54.812,29.586
-8.493,163.01,42.211,69.55,10.091,54.438,25.182,74.664,51.703,106.6,43.541,33.178,38.413,65.47,-54.812,29.586
-8.0884,161.97,42.057,68.998,9.7773,53.946,24.817,74.084,51.915,105.31,43.484,32.596,38.372,64.721,-55.2,28.977
-8.0884,161.97,42.057,68.998,9.7773,53.946,24.817,74.084,51.915,105.31,43.484,32.596,38.372,64.721,-55.2,28.977
-8.0884,161.97,42.057,68.998,9.7773,53.946,24.817,74.084,51.915,105.31,43.484,32.596,38.372,64.721,-55.2,28.977
-7.2799,159.91,41.746,67.899,9.153,52.967,24.087,72.926,52.334,102.72,43.366,31.444,38.289,63.23,-55.973,27.762
-7.2799,159.91,41.746,67.899,9.153,52.967,24.087,72.926,52.334,102.72,43.366,31.444,38.289,63.23,-55.973,27.762
-7.2799,159.91,41.746,67.899,9.153,52.967,24.087,72.926,52.334,102.72,43.366,31.444,38.289,63.23,-55.973,27.762
-6.8762,158.87,41.59,67.351,8.8424,52.481,23.723,72.349,52.542,101.44,43.304,30.874,38.246,62.487,-56.356,27.157
-6.8762,158.87,41.59,67.351,8.8424,52.481,23.723,72.349,52.542,101.44,43.304,30.874,38.246,62.487,-56.356,27.157
-6.8762,158.87,41.59,67.351,8.8424,52.481,23.723,72.349,52.542,101.44,43.304,30.874,38.246,62.487,-56.356,27.157
-6.8762,158.87,41.59,67.351,8.8424,52.481,23.723,72.349,52.542,101.44,43.304,30.874,38.246,62.487,-56.356,27.157
-6.0696,156.81,41.275,66.262,8.2242,51.512,22.995,71.198,52.954,98.868,43.177,29.746,38.157,61.008,-57.119,25.952
-6.0696,156.81,41.275,66.262,8.2242,51.512,22.995,71.198,52.954,98.868,43.177,29.746,38.157,61.008,-57.119,25.952
-6.0696,156.81,41.275,66.262,8.2242,51.512,22.995,71.198,52.954,98.868,43.177,29.746,38.157,61.008,-57.119,25.952
-6.0696,156.81,41.275,66.262,8.2242,51.512,22.995,71.198,52.954,98.868,43.177,29.746,38.157,61.008,-57.119,25.952
-5.2644,154.75,40.957,65.181,7.6102,50.551,22.268,70.051,53.361,96.31,43.045,28.634,38.064,59.537,-57.874,24.753
-5.2644,154.75,40.957,65.181,7.6102,50.551,22.268,70.051,53.361,96.31,43.045,28.634,38.064,59.537,-57.874,24.753
-5.2644,154.75,40.957,65.181,7.6102,50.551,22.268,70.051,53.361,96.31,43.045,28.634,38.064,59.537,-57.874,24.753
-4.4608,152.69,40.635,64.107,7.0008,49.597,21.542,68.909,53.763,93.763,42.906,27.538,37.969,58.076,-58.623,23.561
-4.4608,152.69,40.635,64.107,7.0008,49.597,21.542,68.909,53.763,93.763,42.906,27.538,37.969,58.076,-58.623,23.561
-4.0596,151.66,40.474,63.573,6.6977,49.122,21.18,68.34,53.961,92.494,42.835,26.997,37.919,57.348,-58.995,22.968
-3.6589,150.64,40.311,63.041,6.3959,48.65,20.818,67.772,54.159,91.228,42.762,26.459,37.869,56.623,-59.365,22.376
-3.6589,150.64,40.311,63.041,6.3959,48.65,20.818,67.772,54.159,91.228,42.762,26.459,37.869,56.623,-59.365,22.376
-3.6589,150.64,40.311,63.041,6.3959,48.65,20.818,67.772,54.159,91.228,42.762,26.459,37.869,56.623,-59.365,22.376
-3.2586,149.61,40.148,62.511,6.0952,48.18,20.456,67.205,54.355,89.965,42.688,25.926,37.818,55.901,-59.734,21.787
-3.2586,149.61,40.148,62.511,6.0952,48.18,20.456,67.205,54.355,89.965,42.688,25.926,37.818,55.901,-59.734,21.787
-2.8588,148.59,39.984,61.982,5.7958,47.711,20.095,66.639,54.549,88.705,42.613,25.398,37.766,55.18,-60.1,21.199
-2.8588,148.59,39.984,61.982,5.7958,47.711,20.095,66.639,54.549,88.705,42.613,25.398,37.766,55.18,-60.1,21.199
-2.4596,147.56,39.819,61.456,5.4975,47.245,19.734,66.075,54.742,87.448,42.536,24.873,37.713,54.463,-60.465,20.613
-2.4596,147.56,39.819,61.456,5.4975,47.245,19.734,66.075,54.742,87.448,42.536,24.873,37.713,54.463,-60.465,20.613
-2.0608,146.54,39.654,60.933,5.2006,46.781,19.373,65.512,54.934,86.194,42.458,24.353,37.659,53.747,-60.828,20.029
-2.0608,146.54,39.654,60.933,5.2006,46.781,19.373,65.512,54.934,86.194,42.458,24.353,37.659,53.747,-60.828,20.029
-2.0608,146.54,39.654,60.933,5.2006,46.781,19.373,65.512,54.934,86.194,42.458,24.353,37.659,53.747,-60.828,20.029
-1.6626,145.52,39.488,60.411,4.9049,46.318,19.013,64.951,55.124,84.944,42.378,23.837,37.604,53.034,-61.189,19.447
-1.6626,145.52,39.488,60.411,4.9049,46.318,19.013,64.951,55.124,84.944,42.378,23.837,37.604,53.034,-61.189,19.447
-1.6626,145.52,39.488,60.411,4.9049,46.318,19.013,64.951,55.124,84.944,42.378,23.837,37.604,53.034,-61.189,19.447
-0.86782,143.48,39.154,59.374,4.3174,45.399,18.294,63.832,55.501,82.453,42.215,22.819,37.491,51.616,-61.906,18.288
-0.86782,143.48,39.154,59.374,4.3174,45.399,18.294,63.832,55.501,82.453,42.215,22.819,37.491,51.616,-61.906,18.288
-0.47131,142.46,38.986,58.858,4.0256,44.943,17.935,63.274,55.686,81.212,42.131,22.317,37.433,50.91,-62.262,17.712
-0.47131,142.46,38.986,58.858,4.0256,44.943,17.935,63.274,55.686,81.212,42.131,22.317,37.433,50.91,-62.262,17.712
-0.07541,141.45,38.818,58.345,3.7352,44.489,17.577,62.718,55.871,79.975,42.046,21.819,37.374,50.208,-62.616,17.138
-0.07541,141.45,38.818,58.345,3.7352,44.489,17.577,62.718,55.871,79.975,42.046,21.819,37.374,50.208,-62.616,17.138
0.31987,140.43,38.649,57.834,3.4462,44.037,17.219,62.164,56.053,78.742,41.96,21.325,37.314,49.508,-62.968,16.566
0.31987,140.43,38.649,57.834,3.4462,44.037,17.219,62.164,56.053,78.742,41.96,21.325,37.314,49.508,-62.968,16.566
0.71451,139.42,38.479,57.326,3.1586,43.587,16.861,61.611,56.235,77.512,41.872,20.836,37.254,48.81,-63.318,15.996
0.71451,139.42,38.479,57.326,3.1586,43.587,16.861,61.611,56.235,77.512,41.872,20.836,37.254,48.81,-63.318,15.996
1.1085,138.41,38.309,56.82,2.8723,43.139,16.505,61.06,56.414,76.286,41.783,20.352,37.192,48.115,-63.666,15.428
1.1085,138.41,38.309,56.82,2.8723,43.139,16.505,61.06,56.414,76.286,41.783,20.352,37.192,48.115,-63.666,15.428
1.5018,137.4,38.138,56.316,2.5875,42.694,16.148,60.51,56.593,75.063,41.693,19.872,37.129,47.423,-64.013,14.863
1.5018,137.4,38.138,56.316,2.5875,42.694,16.148,60.51,56.593,75.063,41.693,19.872,37.129,47.423,-64.013,14.863
1.8944,136.4,37.966,55.814,2.3041,42.251,15.792,59.961,56.769,73.845,41.601,19.397,37.065,46.734,-64.357,14.299
1.8944,136.4,37.966,55.814,2.3041,42.251,15.792,59.961,56.769,73.845,41.601,19.397,37.065,46.734,-64.357,14.299
2.2864,135.39,37.794,55.315,2.0222,41.809,15.437,59.415,56.944,72.63,41.508,18.926,37,46.047,-64.699,13.738
2.2864,135.39,37.794,55.315,2.0222,41.809,15.437,59.415,56.944,72.63,41.508,18.926,37,46.047,-64.699,13.738
2.2864,135.39,37.794,55.315,2.0222,41.809,15.437,59.415,56.944,72.63,41.508,18.926,37,46.047,-64.699,13.738
2.6775,134.39,37.621,54.819,1.7418,41.37,15.082,58.87,57.118,71.419,41.414,18.46,36.934,45.363,-65.04,13.179
2.6775,134.39,37.621,54.819,1.7418,41.37,15.082,58.87,57.118,71.419,41.414,18.46,36.934,45.363,-65.04,13.179
2.6775,134.39,37.621,54.819,1.7418,41.37,15.082,58.87,57.118,71.419,41.414,18.46,36.934,45.363,-65.04,13.179
3.4577,132.39,37.274,53.832,1.1855,40.499,14.374,57.784,57.46,69.009,41.222,17.542,36.799,44.003,-65.715,12.067
3.4577,132.39,37.274,53.832,1.1855,40.499,14.374,57.784,57.46,69.009,41.222,17.542,36.799,44.003,-65.715,12.067
3.8466,131.39,37.1,53.343,0.90962,40.067,14.021,57.244,57.628,67.81,41.124,17.09,36.73,43.328,-66.05,11.515
3.8466,131.39,37.1,53.343,0.90962,40.067,14.021,57.244,57.628,67.81,41.124,17.09,36.73,43.328,-66.05,11.515
4.2348,130.39,36.925,52.856,0.63531,39.637,13.669,56.705,57.795,66.615,41.024,16.643,36.66,42.655,-66.383,10.965
4.2348,130.39,36.925,52.856,0.63531,39.637,13.669,56.705,57.795,66.615,41.024,16.643,36.66,42.655,-66.383,10.965
4.2348,130.39,36.925,52.856,0.63531,39.637,13.669,56.705,57.795,66.615,41.024,16.643,36.66,42.655,-66.383,10.965
4.6221,129.4,36.75,52.372,0.36255,39.21,13.317,56.169,57.96,65.425,40.923,16.2,36.589,41.985,-66.713,10.417
4.6221,129.4,36.75,52.372,0.36255,39.21,13.317,56.169,57.96,65.425,40.923,16.2,36.589,41.985,-66.713,10.417
5.0086,128.41,36.574,51.89,0.091389,38.785,12.966,55.634,58.124,64.238,40.821,15.763,36.517,41.318,-67.042,9.8718
5.0086,128.41,36.574,51.89,0.091389,38.785,12.966,55.634,58.124,64.238,40.821,15.763,36.517,41.318,-67.042,9.8718
5.0086,128.41,36.574,51.89,0.091389,38.785,12.966,55.634,58.124,64.238,40.821,15.763,36.517,41.318,-67.042,9.8718
5.7791,126.43,36.221,50.934,-0.44612,37.941,12.266,54.569,58.446,61.879,40.614,14.901,36.37,39.993,-67.694,8.7883
5.7791,126.43,36.221,50.934,-0.44612,37.941,12.266,54.569,58.446,61.879,40.614,14.901,36.37,39.993,-67.694,8.7883
5.7791,126.43,36.221,50.934,-0.44612,37.941,12.266,54.569,58.446,61.879,40.614,14.901,36.37,39.993,-67.694,8.7883
6.1631,125.45,36.044,50.46,-0.71243,37.523,11.917,54.039,58.605,60.705,40.508,14.478,36.294,39.335,-68.016,8.2501
6.1631,125.45,36.044,50.46,-0.71243,37.523,11.917,54.039,58.605,60.705,40.508,14.478,36.294,39.335,-68.016,8.2501
6.5462,124.46,35.866,49.988,-0.97709,37.107,11.568,53.511,58.761,59.536,40.401,14.06,36.218,38.68,-68.337,7.7144
6.9284,123.48,35.688,49.52,-1.2401,36.694,11.22,52.984,58.917,58.372,40.293,13.646,36.14,38.028,-68.656,7.1811
6.9284,123.48,35.688,49.52,-1.2401,36.694,11.22,52.984,58.917,58.372,40.293,13.646,36.14,38.028,-68.656,7.1811
7.3097,122.5,35.509,49.054,-1.5014,36.283,10.873,52.46,59.07,57.212,40.183,13.237,36.062,37.379,-68.972,6.6503
7.69,121.53,35.33,48.59,-1.761,35.875,10.527,51.938,59.222,56.056,40.072,12.833,35.982,36.733,-69.287,6.122
7.69,121.53,35.33,48.59,-1.761,35.875,10.527,51.938,59.222,56.056,40.072,12.833,35.982,36.733,-69.287,6.122
8.0694,120.56,35.15,48.129,-2.0189,35.469,10.181,51.417,59.371,54.906,39.961,12.434,35.901,36.09,-69.6,5.5962
8.0694,120.56,35.15,48.129,-2.0189,35.469,10.181,51.417,59.371,54.906,39.961,12.434,35.901,36.09,-69.6,5.5962
8.0694,120.56,35.15,48.129,-2.0189,35.469,10.181,51.417,59.371,54.906,39.961,12.434,35.901,36.09,-69.6,5.5962
8.4479,119.59,34.971,47.671,-2.2751,35.065,9.8363,50.898,59.52,53.76,39.847,12.04,35.819,35.45,-69.91,5.073
8.4479,119.59,34.971,47.671,-2.2751,35.065,9.8363,50.898,59.52,53.76,39.847,12.04,35.819,35.45,-69.91,5.073
8.8254,118.62,34.79,47.216,-2.5295,34.664,9.4921,50.381,59.666,52.618,39.733,11.65,35.737,34.813,-70.219,4.5523
8.8254,118.62,34.79,47.216,-2.5295,34.664,9.4921,50.381,59.666,52.618,39.733,11.65,35.737,34.813,-70.219,4.5523
9.2019,117.65,34.61,46.764,-2.7822,34.265,9.1487,49.866,59.81,51.482,39.618,11.266,35.652,34.179,-70.525,4.0341
9.2019,117.65,34.61,46.764,-2.7822,34.265,9.1487,49.866,59.81,51.482,39.618,11.266,35.652,34.179,-70.525,4.0341
9.5774,116.69,34.429,46.314,-3.0331,33.869,8.8061,49.353,59.953,50.35,39.501,10.886,35.567,33.549,-70.829,3.5186
9.5774,116.69,34.429,46.314,-3.0331,33.869,8.8061,49.353,59.953,50.35,39.501,10.886,35.567,33.549,-70.829,3.5186
9.9518,115.73,34.247,45.867,-3.2822,33.476,8.4642,48.842,60.094,49.223,39.383,10.512,35.481,32.921,-71.131,3.0056
9.9518,115.73,34.247,45.867,-3.2822,33.476,8.4642,48.842,60.094,49.223,39.383,10.512,35.481,32.921,-71.131,3.0056
10.325,114.77,34.065,45.423,-3.5295,33.085,8.1232,48.333,60.233,48.101,39.264,10.142,35.394,32.297,-71.432,2.4953
10.325,114.77,34.065,45.423,-3.5295,33.085,8.1232,48.333,60.233,48.101,39.264,10.142,35.394,32.297,-71.432,2.4953
10.325,114.77,34.065,45.423,-3.5295,33.085,8.1232,48.333,60.233,48.101,39.264,10.142,35.394,32.297,-71.432,2.4953
10.698,113.82,33.883,44.982,-3.775,32.696,7.783,47.826,60.371,46.984,39.144,9.7778,35.305,31.676,-71.73,1.9876
10.698,113.82,33.883,44.982,-3.775,32.696,7.783,47.826,60.371,46.984,39.144,9.7778,35.305,31.676,-71.73,1.9876
10.698,113.82,33.883,44.982,-3.775,32.696,7.783,47.826,60.371,46.984,39.144,9.7778,35.305,31.676,-71.73,1.9876
11.439,111.92,33.518,44.108,-4.2605,31.927,7.105,46.818,60.64,44.765,38.9,9.0635,35.125,30.443,-72.319,0.98013
11.809,110.97,33.335,43.675,-4.5004,31.546,6.7672,46.317,60.772,43.663,38.776,8.7139,35.033,29.832,-72.611,0.48043
11.809,110.97,33.335,43.675,-4.5004,31.546,6.7672,46.317,60.772,43.663,38.776,8.7139,35.033,29.832,-72.611,0.48043
12.177,110.03,33.151,43.245,-4.7385,31.168,6.4303,45.818,60.902,42.567,38.651,8.3693,34.94,29.224,-72.901,-0.016576
12.177,110.03,33.151,43.245,-4.7385,31.168,6.4303,45.818,60.902,42.567,38.651,8.3693,34.94,29.224,-72.901,-0.016576
12.177,110.03,33.151,43.245,-4.7385,31.168,6.4303,45.818,60.902,42.567,38.651,8.3693,34.94,29.224,-72.901,-0.016576
12.177,110.03,33.151,43.245,-4.7385,31.168,6.4303,45.818,60.902,42.567,38.651,8.3693,34.94,29.224,-72.901,-0.016576
12.544,109.09,32.968,42.818,-4.9748,30.792,6.0942,45.321,61.03,41.475,38.525,8.0296,34.846,28.619,-73.188,-0.51087
12.544,109.09,32.968,42.818,-4.9748,30.792,6.0942,45.321,61.03,41.475,38.525,8.0296,34.846,28.619,-73.188,-0.51087
12.91,108.15,32.783,42.395,-5.2091,30.419,5.759,44.826,61.156,40.389,38.398,7.695,34.751,28.017,-73.474,-1.0024
13.274,107.22,32.599,41.974,-5.4415,30.049,5.4247,44.333,61.281,39.307,38.27,7.3654,34.654,27.419,-73.757,-1.4913
13.638,106.29,32.415,41.556,-5.672,29.681,5.0913,43.843,61.403,38.232,38.14,7.0409,34.557,26.823,-74.038,-1.9773
13.638,106.29,32.415,41.556,-5.672,29.681,5.0913,43.843,61.403,38.232,38.14,7.0409,34.557,26.823,-74.038,-1.9773
13.638,106.29,32.415,41.556,-5.672,29.681,5.0913,43.843,61.403,38.232,38.14,7.0409,34.557,26.823,-74.038,-1.9773
14,105.36,32.23,41.141,-5.9006,29.316,4.7588,43.354,61.524,37.161,38.01,6.7213,34.458,26.232,-74.317,-2.4606
14,105.36,32.23,41.141,-5.9006,29.316,4.7588,43.354,61.524,37.161,38.01,6.7213,34.458,26.232,-74.317,-2.4606
14,105.36,32.23,41.141,-5.9006,29.316,4.7588,43.354,61.524,37.161,38.01,6.7213,34.458,26.232,-74.317,-2.4606
14.362,104.43,32.045,40.728,-6.1272,28.953,4.4271,42.868,61.643,36.096,37.878,6.4068,34.359,25.643,-74.594,-2.9411
14.362,104.43,32.045,40.728,-6.1272,28.953,4.4271,42.868,61.643,36.096,37.878,6.4068,34.359,25.643,-74.594,-2.9411
15.08,102.59,31.674,39.913,-6.5746,28.236,3.7666,41.901,61.875,33.982,37.612,5.7929,34.156,24.476,-75.142,-3.8938
15.08,102.59,31.674,39.913,-6.5746,28.236,3.7666,41.901,61.875,33.982,37.612,5.7929,34.156,24.476,-75.142,-3.8938
15.08,102.59,31.674,39.913,-6.5746,28.236,3.7666,41.901,61.875,33.982,37.612,5.7929,34.156,24.476,-75.142,-3.8938
15.438,101.68,31.488,39.51,-6.7953,27.882,3.4378,41.421,61.988,32.933,37.477,5.4935,34.053,23.898,-75.412,-4.3659
15.438,101.68,31.488,39.51,-6.7953,27.882,3.4378,41.421,61.988,32.933,37.477,5.4935,34.053,23.898,-75.412,-4.3659
15.438,101.68,31.488,39.51,-6.7953,27.882,3.4378,41.421,61.988,32.933,37.477,5.4935,34.053,23.898,-75.412,-4.3659
15.794,100.77,31.302,39.11,-7.0141,27.53,3.1099,40.944,62.099,31.89,37.341,5.1992,33.948,23.322,-75.681,-4.8351
16.15,99.859,31.115,38.713,-7.2308,27.181,2.7829,40.468,62.208,30.852,37.205,4.9099,33.843,22.751,-75.947,-5.3016
16.15,99.859,31.115,38.713,-7.2308,27.181,2.7829,40.468,62.208,30.852,37.205,4.9099,33.843,22.751,-75.947,-5.3016
16.504,98.954,30.929,38.32,-7.4455,26.835,2.4569,39.995,62.315,29.82,37.067,4.6257,33.736,22.182,-76.211,-5.7651
16.504,98.954,30.929,38.32,-7.4455,26.835,2.4569,39.995,62.315,29.82,37.067,4.6257,33.736,22.182,-76.211,-5.7651
16.504,98.954,30.929,38.32,-7.4455,26.835,2.4569,39.995,62.315,29.82,37.067,4.6257,33.736,22.182,-76.211,-5.7651
16.504,98.954,30.929,38.32,-7.4455,26.835,2.4569,39.995,62.315,29.82,37.067,4.6257,33.736,22.182,-76.211,-5.7651
17.208,97.154,30.555,37.541,-7.8689,26.15,1.8078,39.055,62.524,27.773,36.787,4.0723,33.52,21.056,-76.733,-6.6837
17.208,97.154,30.555,37.541,-7.8689,26.15,1.8078,39.055,62.524,27.773,36.787,4.0723,33.52,21.056,-76.733,-6.6837
17.208,97.154,30.555,37.541,-7.8689,26.15,1.8078,39.055,62.524,27.773,36.787,4.0723,33.52,21.056,-76.733,-6.6837
17.208,97.154,30.555,37.541,-7.8689,26.15,1.8078,39.055,62.524,27.773,36.787,4.0723,33.52,21.056,-76.733,-6.6837
17.208,97.154,30.555,37.541,-7.8689,26.15,1.8078,39.055,62.524,27.773,36.787,4.0723,33.52,21.056,-76.733,-6.6837
17.907,95.367,30.181,36.775,-8.2842,25.476,1.1626,38.123,62.725,25.748,36.504,3.5392,33.299,19.943,-77.246,-7.5907
17.907,95.367,30.181,36.775,-8.2842,25.476,1.1626,38.123,62.725,25.748,36.504,3.5392,33.299,19.943,-77.246,-7.5907
18.254,94.48,29.994,36.396,-8.4887,25.143,0.84155,37.661,62.823,24.744,36.361,3.2802,33.186,19.392,-77.5,-8.0398
18.6,93.595,29.806,36.021,-8.6912,24.813,0.52147,37.201,62.919,23.746,36.217,3.0263,33.073,18.844,-77.751,-8.4861
18.945,92.714,29.619,35.649,-8.8916,24.486,0.20241,36.744,63.012,22.754,36.072,2.7774,32.958,18.299,-78,-8.9294
18.945,92.714,29.619,35.649,-8.8916,24.486,0.20241,36.744,63.012,22.754,36.072,2.7774,32.958,18.299,-78,-8.9294
18.945,92.714,29.619,35.649,-8.8916,24.486,0.20241,36.744,63.012,22.754,36.072,2.7774,32.958,18.299,-78,-8.9294
18.945,92.714,29.619,35.649,-8.8916,24.486,0.20241,36.744,63.012,22.754,36.072,2.7774,32.958,18.299,-78,-8.9294
19.289,91.837,29.431,35.28,-9.0899,24.161,-0.11563,36.288,63.104,21.768,35.925,2.5335,32.843,17.758,-78.247,-9.3698
19.289,91.837,29.431,35.28,-9.0899,24.161,-0.11563,36.288,63.104,21.768,35.925,2.5335,32.843,17.758,-78.247,-9.3698
19.972,90.093,29.055,34.551,-9.4803,23.52,-0.7486,35.384,63.282,19.813,35.63,2.0609,32.608,16.687,-78.735,-10.242
19.972,90.093,29.055,34.551,-9.4803,23.52,-0.7486,35.384,63.282,19.813,35.63,2.0609,32.608,16.687,-78.735,-10.242
20.311,89.227,28.867,34.192,-9.6723,23.204,-1.0635,34.936,63.367,18.844,35.481,1.8321,32.489,16.156,-78.976,-10.673
20.311,89.227,28.867,34.192,-9.6723,23.204,-1.0635,34.936,63.367,18.844,35.481,1.8321,32.489,16.156,-78.976,-10.673
20.311,89.227,28.867,34.192,-9.6723,23.204,-1.0635,34.936,63.367,18.844,35.481,1.8321,32.489,16.156,-78.976,-10.673
20.649,88.364,28.679,33.835,-9.8622,22.89,-1.3774,34.49,63.451,17.882,35.331,1.6084,32.369,15.629,-79.214,-11.102
20.649,88.364,28.679,33.835,-9.8622,22.89,-1.3774,34.49,63.451,17.882,35.331,1.6084,32.369,15.629,-79.214,-11.102
20.649,88.364,28.679,33.835,-9.8622,22.89,-1.3774,34.49,63.451,17.882,35.331,1.6084,32.369,15.629,-79.214,-11.102
20.986,87.506,28.491,33.482,-10.05,22.579,-1.6902,34.046,63.533,16.925,35.18,1.3897,32.247,15.105,-79.451,-11.528
20.986,87.506,28.491,33.482,-10.05,22.579,-1.6902,34.046,63.533,16.925,35.18,1.3897,32.247,15.105,-79.451,-11.528
20.986,87.506,28.491,33.482,-10.05,22.579,-1.6902,34.046,63.533,16.925,35.18,1.3897,32.247,15.105,-79.451,-11.528
20.986,87.506,28.491,33.482,-10.05,22.579,-1.6902,34.046,63.533,16.925,35.18,1.3897,32.247,15.105,-79.451,-11.528
21.655,85.799,28.114,32.785,-10.419,21.966,-2.3126,33.165,63.691,15.03,34.875,0.96723,32.001,14.068,-79.917,-12.37
21.655,85.799,28.114,32.785,-10.419,21.966,-2.3126,33.165,63.691,15.03,34.875,0.96723,32.001,14.068,-79.917,-12.37
21.987,84.951,27.925,32.441,-10.6,21.663,-2.6222,32.729,63.767,14.091,34.721,0.76351,31.876,13.555,-80.147,-12.787
22.318,84.108,27.737,32.101,-10.78,21.364,-2.9307,32.294,63.841,13.159,34.566,0.56478,31.75,13.046,-80.375,-13.2
22.648,83.268,27.548,31.764,-10.957,21.067,-3.2381,31.862,63.913,12.232,34.41,0.37103,31.623,12.539,-80.601,-13.611
22.648,83.268,27.548,31.764,-10.957,21.067,-3.2381,31.862,63.913,12.232,34.41,0.37103,31.623,12.539,-80.601,-13.611
22.648,83.268,27.548,31.764,-10.957,21.067,-3.2381,31.862,63.913,12.232,34.41,0.37103,31.623,12.539,-80.601,-13.611
22.976,82.432,27.36,31.43,-11.132,20.773,-3.5444,31.433,63.983,11.312,34.253,0.18225,31.495,12.037,-80.824,-14.019
22.976,82.432,27.36,31.43,-11.132,20.773,-3.5444,31.433,63.983,11.312,34.253,0.18225,31.495,12.037,-80.824,-14.019
23.303,81.599,27.171,31.099,-11.304,20.481,-3.8496,31.005,64.051,10.398,34.096,-0.0015675,31.366,11.538,-81.046,-14.424
23.628,80.771,26.982,30.771,-11.475,20.193,-4.1536,30.58,64.117,9.4899,33.937,-0.18043,31.235,11.042,-81.265,-14.825
23.628,80.771,26.982,30.771,-11.475,20.193,-4.1536,30.58,64.117,9.4899,33.937,-0.18043,31.235,11.042,-81.265,-14.825
23.628,80.771,26.982,30.771,-11.475,20.193,-4.1536,30.58,64.117,9.4899,33.937,-0.18043,31.235,11.042,-81.265,-14.825
23.952,79.947,26.794,30.447,-11.643,19.907,-4.4566,30.158,64.181,8.5881,33.778,-0.35435,31.104,10.55,-81.482,-15.224
23.952,79.947,26.794,30.447,-11.643,19.907,-4.4566,30.158,64.181,8.5881,33.778,-0.35435,31.104,10.55,-81.482,-15.224
23.952,79.947,26.794,30.447,-11.643,19.907,-4.4566,30.158,64.181,8.5881,33.778,-0.35435,31.104,10.55,-81.482,-15.224
24.274,79.126,26.605,30.126,-11.809,19.624,-4.7585,29.738,64.242,7.6925,33.618,-0.52334,30.971,10.061,-81.698,-15.62
24.274,79.126,26.605,30.126,-11.809,19.624,-4.7585,29.738,64.242,7.6925,33.618,-0.52334,30.971,10.061,-81.698,-15.62
24.595,78.31,26.416,29.808,-11.973,19.344,-5.0592,29.32,64.302,6.8032,33.456,-0.68741,30.837,9.5758,-81.911,-16.012
24.595,78.31,26.416,29.808,-11.973,19.344,-5.0592,29.32,64.302,6.8032,33.456,-0.68741,30.837,9.5758,-81.911,-16.012
24.595,78.31,26.416,29.808,-11.973,19.344,-5.0592,29.32,64.302,6.8032,33.456,-0.68741,30.837,9.5758,-81.911,-16.012
25.232,76.689,26.039,29.182,-12.294,18.792,-5.6572,28.492,64.416,5.0433,33.131,-1.0008,30.566,8.6161,-82.331,-16.789
25.232,76.689,26.039,29.182,-12.294,18.792,-5.6572,28.492,64.416,5.0433,33.131,-1.0008,30.566,8.6161,-82.331,-16.789
25.232,76.689,26.039,29.182,-12.294,18.792,-5.6572,28.492,64.416,5.0433,33.131,-1.0008,30.566,8.6161,-82.331,-16.789
25.232,76.689,26.039,29.182,-12.294,18.792,-5.6572,28.492,64.416,5.0433,33.131,-1.0008,30.566,8.6161,-82.331,-16.789
25.863,75.084,25.661,28.568,-12.607,18.251,-6.2506,27.673,64.522,3.3084,32.803,-1.2947,30.291,7.6704,-82.743,-17.553
25.863,75.084,25.661,28.568,-12.607,18.251,-6.2506,27.673,64.522,3.3084,32.803,-1.2947,30.291,7.6704,-82.743,-17.553
25.863,75.084,25.661,28.568,-12.607,18.251,-6.2506,27.673,64.522,3.3084,32.803,-1.2947,30.291,7.6704,-82.743,-17.553
26.176,74.288,25.473,28.267,-12.76,17.985,-6.5456,27.268,64.572,2.4505,32.637,-1.4344,30.152,7.2028,-82.945,-17.931
26.488,73.495,25.284,27.968,-12.91,17.721,-6.8394,26.865,64.62,1.5989,32.471,-1.5692,30.011,6.7387,-83.146,-18.305
26.488,73.495,25.284,27.968,-12.91,17.721,-6.8394,26.865,64.62,1.5989,32.471,-1.5692,30.011,6.7387,-83.146,-18.305
26.488,73.495,25.284,27.968,-12.91,17.721,-6.8394,26.865,64.62,1.5989,32.471,-1.5692,30.011,6.7387,-83.146,-18.305
26.798,72.707,25.095,27.673,-13.059,17.461,-7.132,26.464,64.666,0.7536,32.304,-1.6992,29.87,6.2782,-83.345,-18.677
26.798,72.707,25.095,27.673,-13.059,17.461,-7.132,26.464,64.666,0.7536,32.304,-1.6992,29.87,6.2782,-83.345,-18.677
26.798,72.707,25.095,27.673,-13.059,17.461,-7.132,26.464,64.666,0.7536,32.304,-1.6992,29.87,6.2782,-83.345,-18.677
27.413,71.143,24.718,27.092,-13.349,16.948,-7.7138,25.67,64.752,-0.91787,31.967,-1.9447,29.583,5.3676,-83.736,-19.411
27.413,71.143,24.718,27.092,-13.349,16.948,-7.7138,25.67,64.752,-0.91787,31.967,-1.9447,29.583,5.3676,-83.736,-19.411
27.719,70.367,24.53,26.807,-13.491,16.696,-8.0029,25.276,64.792,-1.744,31.797,-2.0603,29.438,4.9176,-83.928,-19.773
27.719,70.367,24.53,26.807,-13.491,16.696,-8.0029,25.276,64.792,-1.744,31.797,-2.0603,29.438,4.9176,-83.928,-19.773
28.022,69.595,24.342,26.524,-13.63,16.446,-8.2909,24.885,64.83,-2.5638,31.627,-2.1711,29.292,4.4711,-84.119,-20.133
28.022,69.595,24.342,26.524,-13.63,16.446,-8.2909,24.885,64.83,-2.5638,31.627,-2.1711,29.292,4.4711,-84.119,-20.133
28.325,68.828,24.153,26.245,-13.768,16.2,-8.5776,24.497,64.866,-3.3772,31.455,-2.2772,29.145,4.028,-84.307,-20.489
28.325,68.828,24.153,26.245,-13.768,16.2,-8.5776,24.497,64.866,-3.3772,31.455,-2.2772,29.145,4.028,-84.307,-20.489
28.325,68.828,24.153,26.245,-13.768,16.2,-8.5776,24.497,64.866,-3.3772,31.455,-2.2772,29.145,4.028,-84.307,-20.489
28.625,68.065,23.965,25.97,-13.903,15.956,-8.8632,24.111,64.9,-4.1841,31.283,-2.3785,28.997,3.5885,-84.493,-20.842
28.625,68.065,23.965,25.97,-13.903,15.956,-8.8632,24.111,64.9,-4.1841,31.283,-2.3785,28.997,3.5885,-84.493,-20.842
29.222,66.551,23.589,25.428,-14.166,15.476,-9.4307,23.346,64.962,-5.7787,30.937,-2.567,28.698,2.72,-84.86,-21.54
29.222,66.551,23.589,25.428,-14.166,15.476,-9.4307,23.346,64.962,-5.7787,30.937,-2.567,28.698,2.72,-84.86,-21.54
29.222,66.551,23.589,25.428,-14.166,15.476,-9.4307,23.346,64.962,-5.7787,30.937,-2.567,28.698,2.72,-84.86,-21.54
29.518,65.8,23.401,25.162,-14.294,15.241,-9.7126,22.967,64.99,-6.5663,30.762,-2.6543,28.547,2.2909,-85.041,-21.884
29.518,65.8,23.401,25.162,-14.294,15.241,-9.7126,22.967,64.99,-6.5663,30.762,-2.6543,28.547,2.2909,-85.041,-21.884
29.518,65.8,23.401,25.162,-14.294,15.241,-9.7126,22.967,64.99,-6.5663,30.762,-2.6543,28.547,2.2909,-85.041,-21.884
29.812,65.053,23.214,24.899,-14.42,15.008,-9.9934,22.591,65.016,-7.3475,30.587,-2.7369,28.394,1.8653,-85.219,-22.226
29.812,65.053,23.214,24.899,-14.42,15.008,-9.9934,22.591,65.016,-7.3475,30.587,-2.7369,28.394,1.8653,-85.219,-22.226
29.812,65.053,23.214,24.899,-14.42,15.008,-9.9934,22.591,65.016,-7.3475,30.587,-2.7369,28.394,1.8653,-85.219,-22.226
30.395,63.573,22.838,24.383,-14.665,14.551,-10.551,21.846,65.062,-8.8904,30.234,-2.8882,28.087,1.0247,-85.57,-22.899
30.395,63.573,22.838,24.383,-14.665,14.551,-10.551,21.846,65.062,-8.8904,30.234,-2.8882,28.087,1.0247,-85.57,-22.899
30.395,63.573,22.838,24.383,-14.665,14.551,-10.551,21.846,65.062,-8.8904,30.234,-2.8882,28.087,1.0247,-85.57,-22.899
30.685,62.839,22.651,24.13,-14.785,14.326,-10.828,21.477,65.083,-9.6522,30.057,-2.9569,27.931,0.60953,-85.742,-23.232
30.685,62.839,22.651,24.13,-14.785,14.326,-10.828,21.477,65.083,-9.6522,30.057,-2.9569,27.931,0.60953,-85.742,-23.232
30.973,62.11,22.464,23.88,-14.902,14.105,-11.104,21.111,65.101,-10.407,29.878,-3.021,27.775,0.19786,-85.913,-23.561
30.973,62.11,22.464,23.88,-14.902,14.105,-11.104,21.111,65.101,-10.407,29.878,-3.021,27.775,0.19786,-85.913,-23.561
31.543,60.664,22.089,23.39,-15.129,13.669,-11.652,20.385,65.131,-11.899,29.52,-3.1357,27.459,-0.61509,-86.248,-24.21
31.543,60.664,22.089,23.39,-15.129,13.669,-11.652,20.385,65.131,-11.899,29.52,-3.1357,27.459,-0.61509,-86.248,-24.21
31.543,60.664,22.089,23.39,-15.129,13.669,-11.652,20.385,65.131,-11.899,29.52,-3.1357,27.459,-0.61509,-86.248,-24.21
31.826,59.947,21.902,23.149,-15.239,13.456,-11.924,20.026,65.143,-12.634,29.339,-3.1862,27.299,-1.0164,-86.413,-24.531
31.826,59.947,21.902,23.149,-15.239,13.456,-11.924,20.026,65.143,-12.634,29.339,-3.1862,27.299,-1.0164,-86.413,-24.531
32.107,59.235,21.716,22.912,-15.347,13.245,-12.195,19.67,65.154,-13.364,29.158,-3.2323,27.138,-1.4143,-86.575,-24.848
32.107,59.235,21.716,22.912,-15.347,13.245,-12.195,19.67,65.154,-13.364,29.158,-3.2323,27.138,-1.4143,-86.575,-24.848
32.386,58.527,21.529,22.679,-15.453,13.037,-12.465,19.316,65.162,-14.086,28.976,-3.2738,26.977,-1.8087,-86.736,-25.162
32.386,58.527,21.529,22.679,-15.453,13.037,-12.465,19.316,65.162,-14.086,28.976,-3.2738,26.977,-1.8087,-86.736,-25.162
32.664,57.823,21.343,22.448,-15.556,12.832,-12.734,18.964,65.168,-14.803,28.793,-3.3109,26.814,-2.1997,-86.895,-25.474
32.664,57.823,21.343,22.448,-15.556,12.832,-12.734,18.964,65.168,-14.803,28.793,-3.3109,26.814,-2.1997,-86.895,-25.474
32.94,57.123,21.156,22.22,-15.657,12.629,-13.001,18.615,65.173,-15.512,28.61,-3.3436,26.651,-2.5872,-87.052,-25.782
32.94,57.123,21.156,22.22,-15.657,12.629,-13.001,18.615,65.173,-15.512,28.61,-3.3436,26.651,-2.5872,-87.052,-25.782
32.94,57.123,21.156,22.22,-15.657,12.629,-13.001,18.615,65.173,-15.512,28.61,-3.3436,26.651,-2.5872,-87.052,-25.782
33.215,56.428,20.97,21.996,-15.756,12.43,-13.267,18.268,65.175,-16.216,28.426,-3.3719,26.486,-2.9714,-87.208,-26.087
33.215,56.428,20.97,21.996,-15.756,12.43,-13.267,18.268,65.175,-16.216,28.426,-3.3719,26.486,-2.9714,-87.208,-26.087
33.488,55.738,20.784,21.775,-15.853,12.232,-13.532,17.924,65.176,-16.912,28.241,-3.3959,26.32,-3.3522,-87.361,-26.39
33.759,55.051,20.599,21.557,-15.947,12.038,-13.795,17.582,65.174,-17.603,28.056,-3.4154,26.154,-3.7295,-87.512,-26.689
33.759,55.051,20.599,21.557,-15.947,12.038,-13.795,17.582,65.174,-17.603,28.056,-3.4154,26.154,-3.7295,-87.512,-26.689
34.028,54.369,20.413,21.342,-16.039,11.846,-14.057,17.243,65.171,-18.286,27.87,-3.4307,25.986,-4.1035,-87.662,-26.986
34.296,53.691,20.228,21.131,-16.129,11.657,-14.318,16.906,65.166,-18.964,27.683,-3.4416,25.818,-4.4741,-87.81,-27.279
34.296,53.691,20.228,21.131,-16.129,11.657,-14.318,16.906,65.166,-18.964,27.683,-3.4416,25.818,-4.4741,-87.81,-27.279
34.296,53.691,20.228,21.131,-16.129,11.657,-14.318,16.906,65.166,-18.964,27.683,-3.4416,25.818,-4.4741,-87.81,-27.279
34.296,53.691,20.228,21.131,-16.129,11.657,-14.318,16.906,65.166,-18.964,27.683,-3.4416,25.818,-4.4741,-87.81,-27.279
34.562,53.018,20.042,20.922,-16.217,11.471,-14.578,16.571,65.159,-19.634,27.496,-3.4483,25.648,-4.8413,-87.956,-27.57
34.562,53.018,20.042,20.922,-16.217,11.471,-14.578,16.571,65.159,-19.634,27.496,-3.4483,25.648,-4.8413,-87.956,-27.57
34.562,53.018,20.042,20.922,-16.217,11.471,-14.578,16.571,65.159,-19.634,27.496,-3.4483,25.648,-4.8413,-87.956,-27.57
34.562,53.018,20.042,20.922,-16.217,11.471,-14.578,16.571,65.159,-19.634,27.496,-3.4483,25.648,-4.8413,-87.956,-27.57
35.089,51.684,19.672,20.515,-16.385,11.106,-15.094,15.91,65.139,-20.956,27.119,-3.4489,25.306,-5.5656,-88.242,-28.143
35.089,51.684,19.672,20.515,-16.385,11.106,-15.094,15.91,65.139,-20.956,27.119,-3.4489,25.306,-5.5656,-88.242,-28.143
35.089,51.684,19.672,20.515,-16.385,11.106,-15.094,15.91,65.139,-20.956,27.119,-3.4489,25.306,-5.5656,-88.242,-28.143
35.609,50.367,19.303,20.12,-16.545,10.752,-15.605,15.258,65.111,-22.252,26.74,-3.4327,24.961,-6.2765,-88.521,-28.704
35.609,50.367,19.303,20.12,-16.545,10.752,-15.605,15.258,65.111,-22.252,26.74,-3.4327,24.961,-6.2765,-88.521,-28.704
35.609,50.367,19.303,20.12,-16.545,10.752,-15.605,15.258,65.111,-22.252,26.74,-3.4327,24.961,-6.2765,-88.521,-28.704
35.866,49.716,19.119,19.927,-16.621,10.579,-15.858,14.936,65.094,-22.89,26.549,-3.4183,24.786,-6.627,-88.658,-28.98
35.866,49.716,19.119,19.927,-16.621,10.579,-15.858,14.936,65.094,-22.89,26.549,-3.4183,24.786,-6.627,-88.658,-28.98
36.122,49.068,18.935,19.737,-16.696,10.408,-16.11,14.616,65.076,-23.522,26.358,-3.3999,24.611,-6.9741,-88.794,-29.253
36.122,49.068,18.935,19.737,-16.696,10.408,-16.11,14.616,65.076,-23.522,26.358,-3.3999,24.611,-6.9741,-88.794,-29.253
36.629,47.787,18.568,19.367,-16.837,10.075,-16.611,13.984,65.033,-24.766,25.973,-3.3507,24.258,-7.6585,-89.059,-29.791
36.629,47.787,18.568,19.367,-16.837,10.075,-16.611,13.984,65.033,-24.766,25.973,-3.3507,24.258,-7.6585,-89.059,-29.791
36.879,47.152,18.384,19.187,-16.905,9.9127,-16.86,13.671,65.009,-25.378,25.78,-3.3201,24.08,-7.9958,-89.189,-30.055
36.879,47.152,18.384,19.187,-16.905,9.9127,-16.86,13.671,65.009,-25.378,25.78,-3.3201,24.08,-7.9958,-89.189,-30.055
36.879,47.152,18.384,19.187,-16.905,9.9127,-16.86,13.671,65.009,-25.378,25.78,-3.3201,24.08,-7.9958,-89.189,-30.055
36.879,47.152,18.384,19.187,-16.905,9.9127,-16.86,13.671,65.009,-25.378,25.78,-3.3201,24.08,-7.9958,-89.189,-30.055
37.128,46.522,18.201,19.009,-16.97,9.7527,-17.107,13.361,64.983,-25.984,25.586,-3.2854,23.902,-8.3297,-89.317,-30.317
37.128,46.522,18.201,19.009,-16.97,9.7527,-17.107,13.361,64.983,-25.984,25.586,-3.2854,23.902,-8.3297,-89.317,-30.317
37.376,45.897,18.018,18.835,-17.033,9.5953,-17.353,13.054,64.955,-26.584,25.392,-3.2468,23.722,-8.6605,-89.444,-30.576
37.621,45.275,17.836,18.663,-17.094,9.4404,-17.597,12.748,64.925,-27.176,25.197,-3.2043,23.541,-8.9879,-89.568,-30.832
37.621,45.275,17.836,18.663,-17.094,9.4404,-17.597,12.748,64.925,-27.176,25.197,-3.2043,23.541,-8.9879,-89.568,-30.832
37.865,44.659,17.653,18.495,-17.153,9.2882,-17.841,12.445,64.894,-27.763,25.002,-3.1578,23.36,-9.3121,-89.692,-31.085
38.107,44.046,17.471,18.33,-17.209,9.1385,-18.083,12.145,64.86,-28.343,24.805,-3.1074,23.178,-9.6331,-89.813,-31.336
38.107,44.046,17.471,18.33,-17.209,9.1385,-18.083,12.145,64.86,-28.343,24.805,-3.1074,23.178,-9.6331,-89.813,-31.336
38.347,43.438,17.289,18.168,-17.263,8.9913,-18.324,11.847,64.825,-28.917,24.609,-3.0532,22.995,-9.9509,-89.933,-31.583
38.347,43.438,17.289,18.168,-17.263,8.9913,-18.324,11.847,64.825,-28.917,24.609,-3.0532,22.995,-9.9509,-89.933,-31.583
38.347,43.438,17.289,18.168,-17.263,8.9913,-18.324,11.847,64.825,-28.917,24.609,-3.0532,22.995,-9.9509,-89.933,-31.583
38.586,42.834,17.107,18.008,-17.315,8.8467,-18.563,11.551,64.788,-29.484,24.411,-2.9951,22.811,-10.265,-90.051,-31.828
38.586,42.834,17.107,18.008,-17.315,8.8467,-18.563,11.551,64.788,-29.484,24.411,-2.9951,22.811,-10.265,-90.051,-31.828
38.823,42.234,16.926,17.852,-17.365,8.7046,-18.801,11.258,64.749,-30.045,24.213,-2.9332,22.626,-10.577,-90.168,-32.07
38.823,42.234,16.926,17.852,-17.365,8.7046,-18.801,11.258,64.749,-30.045,24.213,-2.9332,22.626,-10.577,-90.168,-32.07
39.058,41.639,16.744,17.699,-17.413,8.565,-19.039,10.967,64.709,-30.599,24.015,-2.8676,22.44,-10.885,-90.283,-32.309
39.058,41.639,16.744,17.699,-17.413,8.565,-19.039,10.967,64.709,-30.599,24.015,-2.8676,22.44,-10.885,-90.283,-32.309
39.291,41.048,16.563,17.548,-17.458,8.4279,-19.274,10.678,64.666,-31.147,23.816,-2.7983,22.254,-11.19,-90.396,-32.546
39.291,41.048,16.563,17.548,-17.458,8.4279,-19.274,10.678,64.666,-31.147,23.816,-2.7983,22.254,-11.19,-90.396,-32.546
39.523,40.461,16.382,17.401,-17.502,8.2934,-19.509,10.392,64.622,-31.689,23.617,-2.7252,22.066,-11.492,-90.508,-32.78
39.523,40.461,16.382,17.401,-17.502,8.2934,-19.509,10.392,64.622,-31.689,23.617,-2.7252,22.066,-11.492,-90.508,-32.78
39.753,39.878,16.202,17.257,-17.543,8.1613,-19.742,10.108,64.576,-32.224,23.416,-2.6485,21.878,-11.791,-90.618,-33.011
39.753,39.878,16.202,17.257,-17.543,8.1613,-19.742,10.108,64.576,-32.224,23.416,-2.6485,21.878,-11.791,-90.618,-33.011
39.981,39.3,16.022,17.115,-17.582,8.0317,-19.974,9.8266,64.528,-32.753,23.216,-2.5681,21.689,-12.086,-90.727,-33.239
39.981,39.3,16.022,17.115,-17.582,8.0317,-19.974,9.8266,64.528,-32.753,23.216,-2.5681,21.689,-12.086,-90.727,-33.239
40.207,38.727,15.841,16.976,-17.619,7.9045,-20.205,9.5475,64.479,-33.276,23.015,-2.4841,21.5,-12.379,-90.834,-33.465
40.207,38.727,15.841,16.976,-17.619,7.9045,-20.205,9.5475,64.479,-33.276,23.015,-2.4841,21.5,-12.379,-90.834,-33.465
40.432,38.157,15.662,16.841,-17.653,7.7798,-20.434,9.2706,64.428,-33.792,22.813,-2.3965,21.309,-12.668,-90.94,-33.688
40.432,38.157,15.662,16.841,-17.653,7.7798,-20.434,9.2706,64.428,-33.792,22.813,-2.3965,21.309,-12.668,-90.94,-33.688
40.655,37.592,15.482,16.708,-17.686,7.6575,-20.662,8.9961,64.375,-34.302,22.611,-2.3054,21.118,-12.954,-91.044,-33.908
40.655,37.592,15.482,16.708,-17.686,7.6575,-20.662,8.9961,64.375,-34.302,22.611,-2.3054,21.118,-12.954,-91.044,-33.908
40.876,37.031,15.303,16.578,-17.716,7.5377,-20.889,8.724,64.32,-34.806,22.408,-2.2108,20.926,-13.237,-91.146,-34.125
40.876,37.031,15.303,16.578,-17.716,7.5377,-20.889,8.724,64.32,-34.806,22.408,-2.2108,20.926,-13.237,-91.146,-34.125
41.096,36.474,15.124,16.451,-17.744,7.4203,-21.115,8.4541,64.263,-35.304,22.204,-2.1127,20.733,-13.517,-91.247,-34.34
41.096,36.474,15.124,16.451,-17.744,7.4203,-21.115,8.4541,64.263,-35.304,22.204,-2.1127,20.733,-13.517,-91.247,-34.34
41.313,35.921,14.945,16.327,-17.771,7.3053,-21.339,8.1866,64.205,-35.795,22.001,-2.0112,20.54,-13.794,-91.347,-34.553
41.313,35.921,14.945,16.327,-17.771,7.3053,-21.339,8.1866,64.205,-35.795,22.001,-2.0112,20.54,-13.794,-91.347,-34.553
41.529,35.373,14.766,16.205,-17.795,7.1927,-21.563,7.9214,64.146,-36.28,21.796,-1.9062,20.346,-14.068,-91.445,-34.762
41.529,35.373,14.766,16.205,-17.795,7.1927,-21.563,7.9214,64.146,-36.28,21.796,-1.9062,20.346,-14.068,-91.445,-34.762
41.529,35.373,14.766,16.205,-17.795,7.1927,-21.563,7.9214,64.146,-36.28,21.796,-1.9062,20.346,-14.068,-91.445,-34.762
41.744,34.829,14.588,16.087,-17.816,7.0824,-21.784,7.6585,64.084,-36.759,21.591,-1.7979,20.151,-14.339,-91.542,-34.969
