0.5281,0.4468,-1.0932,-0.4916,1.6686,0.647,2.3739,0.5523,-1.2063,-0.6758,-0.1434,-0.3575,1.3815,0.6378,1.859,0.2187
0.5039,0.4369,-1.1084,-0.499,1.6628,0.6198,2.3224,0.5437,-1.2817,-0.6619,-0.1579,-0.3751,1.3497,0.6262,1.8149,0.2201
0.5039,0.4369,-1.1084,-0.499,1.6628,0.6198,2.3224,0.5437,-1.2817,-0.6619,-0.1579,-0.3751,1.3497,0.6262,1.8149,0.2201
0.4712,0.4391,-1.1101,-0.5111,1.6436,0.6121,2.2953,0.5332,-1.3162,-0.675,-0.1793,-0.3827,1.3021,0.6088,1.7639,0.2192
0.4712,0.4391,-1.1101,-0.5111,1.6436,0.6121,2.2953,0.5332,-1.3162,-0.675,-0.1793,-0.3827,1.3021,0.6088,1.7639,0.2192
0.4797,0.4269,-1.1311,-0.51,1.6111,0.6236,2.2469,0.5369,-1.3335,-0.6816,-0.2007,-0.3902,1.2863,0.603,1.7357,0.2104
0.4797,0.4269,-1.1311,-0.51,1.6111,0.6236,2.2469,0.5369,-1.3335,-0.6816,-0.2007,-0.3902,1.2863,0.603,1.7357,0.2104
0.4712,0.4391,-1.1445,-0.5053,1.5977,0.6428,2.229,0.5299,-1.3218,-0.6984,-0.2359,-0.3778,1.2442,0.6065,1.6963,0.2055
0.4712,0.4391,-1.1445,-0.5053,1.5977,0.6428,2.229,0.5299,-1.3218,-0.6984,-0.2359,-0.3778,1.2442,0.6065,1.6963,0.2055
0.4712,0.4391,-1.1463,-0.5174,1.592,0.6158,2.2081,0.5106,-1.3335,-0.6816,-0.271,-0.3654,1.2181,0.6157,1.664,0.2029
0.4712,0.4391,-1.1463,-0.5174,1.592,0.6158,2.2081,0.5106,-1.3335,-0.6816,-0.271,-0.3654,1.2181,0.6157,1.664,0.2029
0.4507,0.4464,-1.1672,-0.5164,1.5405,0.6195,2.1902,0.5036,-1.3623,-0.6714,-0.2923,-0.373,1.2023,0.6099,1.636,0.194
0.4507,0.4464,-1.1672,-0.5164,1.5405,0.6195,2.1902,0.5036,-1.3623,-0.6714,-0.2923,-0.373,1.2023,0.6099,1.636,0.194
0.4216,0.4659,-1.1881,-0.5153,1.5214,0.6117,2.1633,0.4931,-1.3623,-0.6714,-0.3029,-0.3767,1.2023,0.6099,1.6038,0.1913
0.4216,0.4659,-1.1881,-0.5153,1.5214,0.6117,2.1633,0.4931,-1.3623,-0.6714,-0.3029,-0.3767,1.2023,0.6099,1.6038,0.1913
0.4096,0.4609,-1.1823,-0.5237,1.5024,0.6039,2.1154,0.4968,-1.3795,-0.678,-0.3241,-0.3843,1.2232,0.5799,1.5717,0.1886
0.4096,0.4609,-1.1823,-0.5237,1.5024,0.6039,2.1154,0.4968,-1.3795,-0.678,-0.3241,-0.3843,1.2232,0.5799,1.5717,0.1886
0.3651,0.4581,-1.1915,-0.5395,1.4645,0.5884,2.0588,0.4969,-1.3967,-0.6846,-0.3522,-0.3819,1.2074,0.5741,1.5439,0.1798
0.3651,0.4581,-1.1915,-0.5395,1.4645,0.5884,2.0588,0.4969,-1.3967,-0.6846,-0.3522,-0.3819,1.2074,0.5741,1.5439,0.1798
0.3207,0.4553,-1.2066,-0.5468,1.4267,0.5729,2.0023,0.497,-1.3967,-0.6846,-0.3627,-0.3857,1.1709,0.5983,1.5189,0.1793
0.3207,0.4553,-1.2066,-0.5468,1.4267,0.5729,2.0023,0.497,-1.3967,-0.6846,-0.3627,-0.3857,1.1709,0.5983,1.5189,0.1793
0.3173,0.4381,-1.2141,-0.5505,1.4078,0.5651,1.9609,0.4918,-1.3851,-0.7013,-0.3838,-0.3933,1.1292,0.6018,1.4869,0.1766
0.3173,0.4381,-1.2141,-0.5505,1.4078,0.5651,1.9609,0.4918,-1.3851,-0.7013,-0.3838,-0.3933,1.1292,0.6018,1.4869,0.1766
0.2935,0.4281,-1.2407,-0.5411,1.3758,0.5765,1.9285,0.49,-1.3907,-0.7246,-0.4223,-0.3947,1.0719,0.5994,1.4482,0.1717
0.2935,0.4281,-1.2407,-0.5411,1.3758,0.5765,1.9285,0.49,-1.3907,-0.7246,-0.4223,-0.3947,1.0719,0.5994,1.4482,0.1717
0.2815,0.4231,-1.2732,-0.5233,1.357,0.5687,1.9021,0.4796,-1.4078,-0.7311,-0.4502,-0.3923,1.0408,0.5878,1.4232,0.1712
0.2815,0.4231,-1.2732,-0.5233,1.357,0.5687,1.9021,0.4796,-1.4078,-0.7311,-0.4502,-0.3923,1.0408,0.5878,1.4232,0.1712
0.2815,0.4231,-1.2732,-0.5233,1.357,0.5687,1.9021,0.4796,-1.4078,-0.7311,-0.4502,-0.3923,1.0408,0.5878,1.4232,0.1712
0.2696,0.4181,-1.2998,-0.5139,1.3382,0.561,1.861,0.4743,-1.4249,-0.7376,-0.4712,-0.3999,0.9994,0.5911,1.3957,0.1623
0.2696,0.4181,-1.2998,-0.5139,1.3382,0.561,1.861,0.4743,-1.4249,-0.7376,-0.4712,-0.3999,0.9994,0.5911,1.3957,0.1623
0.2662,0.401,-1.3412,-0.5119,1.3382,0.561,1.8086,0.4534,-1.5108,-0.7073,-0.5131,-0.415,0.9891,0.5498,1.3589,0.1429
0.2662,0.401,-1.3412,-0.5119,1.3382,0.561,1.8086,0.4534,-1.5108,-0.7073,-0.5131,-0.415,0.9891,0.5498,1.3589,0.1429
0.2662,0.401,-1.3412,-0.5119,1.3382,0.561,1.8086,0.4534,-1.5108,-0.7073,-0.5131,-0.415,0.9891,0.5498,1.3589,0.1429
0.2424,0.391,-1.3636,-0.5229,1.3326,0.5343,1.759,0.4447,-1.5848,-0.6937,-0.5616,-0.4202,0.9324,0.5474,1.2983,0.1458
0.2424,0.391,-1.3636,-0.5229,1.3326,0.5343,1.759,0.4447,-1.5848,-0.6937,-0.5616,-0.4202,0.9324,0.5474,1.2983,0.1458
0.2424,0.391,-1.3636,-0.5229,1.3326,0.5343,1.759,0.4447,-1.5848,-0.6937,-0.5616,-0.4202,0.9324,0.5474,1.2983,0.1458
0.2222,0.3982,-1.3842,-0.522,1.3326,0.5343,1.7123,0.4481,-1.647,-0.6968,-0.61,-0.4254,0.8863,0.5301,1.238,0.1487
0.1901,0.4003,-1.3859,-0.534,1.3326,0.5343,1.6718,0.4429,-1.6692,-0.7265,-0.6411,-0.4368,0.8556,0.5186,1.1778,0.1515
0.1783,0.3953,-1.4007,-0.5413,1.2689,0.5568,1.6459,0.4325,-1.7142,-0.7231,-0.6618,-0.4443,0.8147,0.5219,1.1356,0.1526
0.1783,0.3953,-1.4007,-0.5413,1.2689,0.5568,1.6459,0.4325,-1.7142,-0.7231,-0.6618,-0.4443,0.8147,0.5219,1.1356,0.1526
0.2069,0.3761,-1.4139,-0.5367,1.2689,0.5568,1.6313,0.4376,-1.7028,-0.7396,-0.679,-0.4382,0.8147,0.5219,1.1289,0.1503
0.2069,0.3761,-1.4139,-0.5367,1.2689,0.5568,1.6313,0.4376,-1.7028,-0.7396,-0.679,-0.4382,0.8147,0.5219,1.1289,0.1503
0.2069,0.3761,-1.4139,-0.5367,1.2689,0.5568,1.6313,0.4376,-1.7028,-0.7396,-0.679,-0.4382,0.8147,0.5219,1.1289,0.1503
0.1985,0.3882,-1.4123,-0.5247,1.2875,0.5645,1.6864,0.4377,-1.6577,-0.7431,-0.6411,-0.4368,0.835,0.5482,1.1846,0.1537
0.1985,0.3882,-1.4123,-0.5247,1.2875,0.5645,1.6864,0.4377,-1.6577,-0.7431,-0.6411,-0.4368,0.835,0.5482,1.1846,0.1537
0.1985,0.3882,-1.4123,-0.5247,1.2875,0.5645,1.6864,0.4377,-1.6577,-0.7431,-0.6411,-0.4368,0.835,0.5482,1.1846,0.1537
0.2424,0.391,-1.39,-0.5136,1.325,0.58,1.7911,0.4465,-1.624,-0.73,-0.5997,-0.4217,0.9221,0.5622,1.2677,0.1659
0.2424,0.391,-1.39,-0.5136,1.325,0.58,1.7911,0.4465,-1.624,-0.73,-0.5997,-0.4217,0.9221,0.5622,1.2677,0.1659
0.3173,0.4381,-1.2965,-0.4897,1.5157,0.5847,2.0405,0.5232,-1.4767,-0.6942,-0.4292,-0.3847,1.197,0.5891,1.5001,0.2186
0.3173,0.4381,-1.2965,-0.4897,1.5157,0.5847,2.0405,0.5232,-1.4767,-0.6942,-0.4292,-0.3847,1.197,0.5891,1.5001,0.2186
0.3173,0.4381,-1.2965,-0.4897,1.5157,0.5847,2.0405,0.5232,-1.4767,-0.6942,-0.4292,-0.3847,1.197,0.5891,1.5001,0.2186
0.3736,0.4459,-1.2265,-0.4891,1.5729,0.608,2.1624,0.5601,-1.3851,-0.7013,-0.3379,-0.3644,1.3284,0.5995,1.6198,0.2419
0.3736,0.4459,-1.2265,-0.4891,1.5729,0.608,2.1624,0.5601,-1.3851,-0.7013,-0.3379,-0.3644,1.3284,0.5995,1.6198,0.2419
0.4386,0.4414,-1.1562,-0.4884,1.6302,0.6314,2.2826,0.5846,-1.3046,-0.6918,-0.2391,-0.354,1.408,0.6284,1.7195,0.2585
0.4386,0.4414,-1.1562,-0.4884,1.6302,0.6314,2.2826,0.5846,-1.3046,-0.6918,-0.2391,-0.354,1.408,0.6284,1.7195,0.2585
0.4833,0.4441,-1.1125,-0.4784,1.6686,0.647,2.3702,0.6075,-1.212,-0.6992,-0.1611,-0.3513,1.4454,0.661,1.8057,0.2706
0.4833,0.4441,-1.1125,-0.4784,1.6686,0.647,2.3702,0.6075,-1.212,-0.6992,-0.1611,-0.3513,1.4454,0.661,1.8057,0.2706
0.516,0.4419,-1.0763,-0.472,1.7206,0.6432,2.431,0.6197,-1.1481,-0.6964,-0.1181,-0.3361,1.5041,0.6633,1.8553,0.2862
0.516,0.4419,-1.0763,-0.472,1.7206,0.6432,2.431,0.6197,-1.1481,-0.6964,-0.1181,-0.3361,1.5041,0.6633,1.8553,0.2862
0.5402,0.4519,-1.0459,-0.4572,1.7592,0.6588,2.4892,0.6195,-1.1306,-0.6898,-0.0966,-0.3285,1.5201,0.6691,1.8996,0.2849
0.5402,0.4519,-1.0459,-0.4572,1.7592,0.6588,2.4892,0.6195,-1.1306,-0.6898,-0.0966,-0.3285,1.5201,0.6691,1.8996,0.2849
0.5523,0.4569,-1.0248,-0.4583,1.7458,0.6782,2.5138,0.6176,-1.1248,-0.6664,-0.0858,-0.3247,1.5201,0.6691,1.9138,0.2893
0.5523,0.4569,-1.0248,-0.4583,1.7458,0.6782,2.5138,0.6176,-1.1248,-0.6664,-0.0858,-0.3247,1.5201,0.6691,1.9138,0.2893
0.5438,0.4692,-1.0248,-0.4583,1.792,0.6472,2.5138,0.6176,-1.1483,-0.6326,-0.0858,-0.3247,1.5041,0.6633,1.9182,0.283
0.5438,0.4692,-1.0248,-0.4583,1.792,0.6472,2.5138,0.6176,-1.1483,-0.6326,-0.0858,-0.3247,1.5041,0.6633,1.9182,0.283
0.5438,0.4692,-1.0171,-0.4546,1.8444,0.6434,2.5046,0.6141,-1.1892,-0.6053,-0.0858,-0.3247,1.5146,0.648,1.9039,0.2786
0.5438,0.4692,-1.0171,-0.4546,1.8444,0.6434,2.5046,0.6141,-1.1892,-0.6053,-0.0858,-0.3247,1.5146,0.648,1.9039,0.2786
0.5317,0.4642,-1.0189,-0.4667,1.8055,0.6278,2.4925,0.598,-1.2123,-0.6355,-0.0757,-0.3587,1.4665,0.6306,1.8755,0.2696
0.5317,0.4642,-1.0189,-0.4667,1.8055,0.6278,2.4925,0.598,-1.2123,-0.6355,-0.0757,-0.3587,1.4665,0.6306,1.8755,0.2696
0.5402,0.4519,-1.0324,-0.462,1.7592,0.6588,2.468,0.5999,-1.2414,-0.6252,-0.0864,-0.3625,1.4504,0.6249,1.8569,0.2714
0.5402,0.4519,-1.0324,-0.462,1.7592,0.6588,2.468,0.5999,-1.2414,-0.6252,-0.0864,-0.3625,1.4504,0.6249,1.8569,0.2714
0.5402,0.4519,-1.0324,-0.462,1.7264,0.6704,2.4497,0.5929,-1.2297,-0.6421,-0.0795,-0.3725,1.4609,0.6097,1.8384,0.2732
0.5402,0.4519,-1.0324,-0.462,1.7264,0.6704,2.4497,0.5929,-1.2297,-0.6421,-0.0795,-0.3725,1.4609,0.6097,1.8384,0.2732
0.5694,0.4323,-1.013,-0.4752,1.6937,0.682,2.4405,0.5894,-1.1889,-0.6692,-0.0864,-0.3625,1.4875,0.6003,1.8427,0.267
0.5694,0.4323,-1.013,-0.4752,1.6937,0.682,2.4405,0.5894,-1.1889,-0.6692,-0.0864,-0.3625,1.4875,0.6003,1.8427,0.267
0.5609,0.4446,-1.0189,-0.4667,1.6937,0.682,2.4559,0.5839,-1.1889,-0.6692,-0.1004,-0.3424,1.477,0.6155,1.8427,0.267
0.5609,0.4446,-1.0189,-0.4667,1.6937,0.682,2.4559,0.5839,-1.1889,-0.6692,-0.1004,-0.3424,1.477,0.6155,1.8427,0.267
0.5523,0.4569,-1.0112,-0.463,1.7071,0.6626,2.4712,0.5785,-1.1423,-0.6729,-0.0896,-0.3386,1.5196,0.6119,1.8613,0.2652
0.5523,0.4569,-0.9977,-0.4678,1.7071,0.6626,2.465,0.5875,-1.1423,-0.6729,-0.0966,-0.3285,1.5729,0.593,1.8613,0.2652
0.5523,0.4569,-0.9977,-0.4678,1.7071,0.6626,2.465,0.5875,-1.1423,-0.6729,-0.0966,-0.3285,1.5729,0.593,1.8613,0.2652
0.5402,0.4519,-0.9842,-0.4726,1.6879,0.6548,2.4497,0.5929,-1.154,-0.6561,-0.0896,-0.3386,1.589,0.5988,1.8569,0.2714
0.5402,0.4519,-0.9842,-0.4726,1.6879,0.6548,2.4497,0.5929,-1.154,-0.6561,-0.0896,-0.3386,1.589,0.5988,1.8569,0.2714
0.5402,0.4519,-0.9842,-0.4726,1.6879,0.6548,2.4497,0.5929,-1.154,-0.6561,-0.0896,-0.3386,1.589,0.5988,1.8569,0.2714
0.4954,0.4491,-0.9918,-0.4763,1.6494,0.6392,2.4314,0.5858,-1.154,-0.6561,-0.1074,-0.3323,1.5785,0.614,1.8613,0.2652
0.4954,0.4491,-0.9918,-0.4763,1.6494,0.6392,2.4314,0.5858,-1.154,-0.6561,-0.1074,-0.3323,1.5785,0.614,1.8613,0.2652
0.4954,0.4491,-0.9995,-0.48,1.6494,0.6392,2.4223,0.5823,-1.154,-0.6561,-0.1004,-0.3424,1.5679,0.6292,1.8498,0.2692
0.4954,0.4491,-0.9995,-0.48,1.6494,0.6392,2.4223,0.5823,-1.154,-0.6561,-0.1004,-0.3424,1.5679,0.6292,1.8498,0.2692
0.5039,0.4369,-1.0054,-0.4715,1.6302,0.6314,2.3979,0.5842,-1.1131,-0.6833,-0.1219,-0.35,1.5146,0.648,1.8356,0.2647
0.4954,0.4491,-1.0112,-0.463,1.6494,0.6392,2.3888,0.5807,-1.1131,-0.6833,-0.1327,-0.3537,1.488,0.6574,1.8258,0.254
0.4954,0.4491,-1.0112,-0.463,1.6494,0.6392,2.3888,0.5807,-1.1131,-0.6833,-0.1327,-0.3537,1.488,0.6574,1.8258,0.254
0.4954,0.4491,-1.0112,-0.463,1.6494,0.6392,2.3888,0.5807,-1.1131,-0.6833,-0.1327,-0.3537,1.488,0.6574,1.8258,0.254
0.516,0.4419,-1.0306,-0.4498,1.6494,0.6392,2.3859,0.5683,-1.1131,-0.6833,-0.1541,-0.3613,1.4454,0.661,1.816,0.2433
0.516,0.4419,-1.0306,-0.4498,1.6494,0.6392,2.3859,0.5683,-1.1131,-0.6833,-0.1541,-0.3613,1.4454,0.661,1.816,0.2433
0.516,0.4419,-1.0306,-0.4498,1.6494,0.6392,2.3859,0.5683,-1.1131,-0.6833,-0.1541,-0.3613,1.4454,0.661,1.816,0.2433
0.5245,0.4296,-1.0442,-0.445,1.6628,0.6198,2.3434,0.5631,-1.1365,-0.6495,-0.1541,-0.3613,1.4294,0.6552,1.8019,0.2388
0.516,0.4419,-1.0383,-0.4535,1.6954,0.6083,2.3253,0.5561,-1.1775,-0.6222,-0.2001,-0.3526,1.4239,0.6342,1.7693,0.2362
0.5039,0.4369,-1.0459,-0.4572,1.6954,0.6083,2.2982,0.5455,-1.224,-0.6186,-0.2215,-0.3602,1.3656,0.632,1.7255,0.2375
0.5039,0.4369,-1.0459,-0.4572,1.6954,0.6083,2.2982,0.5455,-1.224,-0.6186,-0.2215,-0.3602,1.3656,0.632,1.7255,0.2375
0.5039,0.4369,-1.0459,-0.4572,1.6954,0.6083,2.2982,0.5455,-1.224,-0.6186,-0.2215,-0.3602,1.3656,0.632,1.7255,0.2375
0.4833,0.4441,-1.0476,-0.4694,1.6628,0.6198,2.2498,0.5492,-1.2587,-0.6318,-0.2359,-0.3778,1.3443,0.6053,1.6704,0.2429
0.4833,0.4441,-1.0476,-0.4694,1.6628,0.6198,2.2498,0.5492,-1.2587,-0.6318,-0.2359,-0.3778,1.3443,0.6053,1.6704,0.2429
0.4833,0.4441,-1.0476,-0.4694,1.6628,0.6198,2.2498,0.5492,-1.2587,-0.6318,-0.2359,-0.3778,1.3443,0.6053,1.6704,0.2429
0.4833,0.4441,-1.0476,-0.4694,1.6628,0.6198,2.2498,0.5492,-1.2587,-0.6318,-0.2359,-0.3778,1.3443,0.6053,1.6704,0.2429
0.4918,0.4319,-1.0628,-0.4768,1.5786,0.635,2.1959,0.5282,-1.276,-0.6384,-0.2817,-0.3692,1.3126,0.5937,1.6059,0.2375
0.4918,0.4319,-1.0628,-0.4768,1.5786,0.635,2.1959,0.5282,-1.276,-0.6384,-0.2817,-0.3692,1.3126,0.5937,1.6059,0.2375
0.5003,0.4196,-1.0763,-0.472,1.5595,0.6272,2.1629,0.5265,-1.305,-0.6282,-0.3098,-0.3668,1.2967,0.5879,1.5737,0.2348
0.5003,0.4196,-1.0763,-0.472,1.5595,0.6272,2.1629,0.5265,-1.305,-0.6282,-0.3098,-0.3668,1.2967,0.5879,1.5737,0.2348
0.4797,0.4269,-1.0839,-0.4757,1.5081,0.6309,2.1511,0.5107,-1.3223,-0.6348,-0.3273,-0.3606,1.2547,0.5914,1.5459,0.2258
0.4797,0.4269,-1.0839,-0.4757,1.5081,0.6309,2.1511,0.5107,-1.3223,-0.6348,-0.3273,-0.3606,1.2547,0.5914,1.5459,0.2258
0.4386,0.4414,-1.105,-0.4747,1.4569,0.6345,2.1333,0.5037,-1.3395,-0.6414,-0.3485,-0.3682,1.2285,0.6007,1.5321,0.2214
0.4386,0.4414,-1.105,-0.4747,1.4569,0.6345,2.1333,0.5037,-1.3395,-0.6414,-0.3485,-0.3682,1.2285,0.6007,1.5321,0.2214
0.4266,0.4364,-1.1184,-0.4699,1.4379,0.6267,2.1065,0.4933,-1.3395,-0.6414,-0.366,-0.362,1.2127,0.5949,1.5044,0.2124
0.4266,0.4364,-1.1184,-0.4699,1.4379,0.6267,2.1065,0.4933,-1.3395,-0.6414,-0.366,-0.362,1.2127,0.5949,1.5044,0.2124
0.3856,0.4509,-1.1335,-0.4773,1.4512,0.6075,2.0738,0.4916,-1.3279,-0.6582,-0.3871,-0.3696,1.2232,0.5799,1.4724,0.2097
0.3856,0.4509,-1.1335,-0.4773,1.4512,0.6075,2.0738,0.4916,-1.3279,-0.6582,-0.3871,-0.3696,1.2232,0.5799,1.4724,0.2097
0.3616,0.4409,-1.1487,-0.4847,1.4456,0.5806,2.0261,0.4952,-1.3451,-0.6648,-0.4082,-0.3772,1.1813,0.5833,1.4474,0.2092
0.3616,0.4409,-1.1487,-0.4847,1.4456,0.5806,2.0261,0.4952,-1.3451,-0.6648,-0.4082,-0.3772,1.1813,0.5833,1.4474,0.2092
0.3258,0.4259,-1.1504,-0.4969,1.4078,0.5651,1.9846,0.49,-1.3623,-0.6714,-0.4292,-0.3847,1.1656,0.5776,1.4156,0.2065
0.3019,0.4159,-1.1655,-0.5043,1.3702,0.5497,1.9433,0.4848,-1.3967,-0.6846,-0.4607,-0.3961,1.0979,0.5902,1.377,0.2015
0.3019,0.4159,-1.1655,-0.5043,1.3702,0.5497,1.9433,0.4848,-1.3967,-0.6846,-0.4607,-0.3961,1.0979,0.5902,1.377,0.2015
0.3019,0.4159,-1.1847,-0.4911,1.357,0.5687,1.9048,0.4918,-1.3679,-0.6947,-0.4712,-0.3999,1.0979,0.5902,1.3522,0.201
0.3019,0.4159,-1.1847,-0.4911,1.357,0.5687,1.9048,0.4918,-1.3679,-0.6947,-0.4712,-0.3999,1.0979,0.5902,1.3522,0.201
0.3019,0.4159,-1.1847,-0.4911,1.357,0.5687,1.9048,0.4918,-1.3679,-0.6947,-0.4712,-0.3999,1.0979,0.5902,1.3522,0.201
0.29,0.4109,-1.1981,-0.4864,1.3702,0.5497,1.8637,0.4865,-1.4022,-0.7079,-0.5199,-0.4051,1.0512,0.5728,1.3137,0.196
0.29,0.4109,-1.1981,-0.4864,1.3702,0.5497,1.8637,0.4865,-1.4022,-0.7079,-0.5199,-0.4051,1.0512,0.5728,1.3137,0.196
0.2781,0.4059,-1.2323,-0.4806,1.3382,0.561,1.8375,0.4761,-1.4022,-0.7079,-0.5303,-0.4089,1.0253,0.582,1.3043,0.1854
0.2781,0.4059,-1.2323,-0.4806,1.3382,0.561,1.8375,0.4761,-1.4022,-0.7079,-0.5303,-0.4089,1.0253,0.582,1.3043,0.1854
0.2781,0.4059,-1.2515,-0.4675,1.3382,0.561,1.826,0.4604,-1.448,-0.7043,-0.5512,-0.4164,0.9943,0.5704,1.2728,0.1826
0.2662,0.401,-1.2665,-0.4749,1.2875,0.5645,1.7998,0.45,-1.4767,-0.6942,-0.572,-0.424,0.9633,0.5589,1.2456,0.1737
0.2662,0.401,-1.2665,-0.4749,1.2875,0.5645,1.7998,0.45,-1.4767,-0.6942,-0.572,-0.424,0.9633,0.5589,1.2456,0.1737
0.2543,0.396,-1.2873,-0.4739,1.2875,0.5645,1.7677,0.4482,-1.5053,-0.684,-0.6169,-0.4156,0.9221,0.5622,1.2253,0.167
0.2543,0.396,-1.2873,-0.4739,1.2875,0.5645,1.7677,0.4482,-1.5053,-0.684,-0.6169,-0.4156,0.9221,0.5622,1.2253,0.167
0.2543,0.396,-1.2873,-0.4739,1.2875,0.5645,1.7677,0.4482,-1.5053,-0.684,-0.6169,-0.4156,0.9221,0.5622,1.2253,0.167
0.234,0.4031,-1.2948,-0.4776,1.2875,0.5645,1.7737,0.4395,-1.5339,-0.6739,-0.6272,-0.4194,0.9324,0.5474,1.2032,0.1748
0.234,0.4031,-1.2948,-0.4776,1.2875,0.5645,1.7737,0.4395,-1.5339,-0.6739,-0.6272,-0.4194,0.9324,0.5474,1.2032,0.1748
0.234,0.4031,-1.2948,-0.4776,1.2875,0.5645,1.7737,0.4395,-1.5339,-0.6739,-0.6272,-0.4194,0.9324,0.5474,1.2032,0.1748
0.2256,0.4153,-1.2873,-0.4739,1.3382,0.561,1.7851,0.4552,-1.5393,-0.6972,-0.6136,-0.4391,0.9427,0.5325,1.2057,0.1832
0.2578,0.4131,-1.2532,-0.4796,1.3758,0.5765,1.8522,0.4708,-1.5108,-0.7073,-0.5652,-0.4339,1.0149,0.5407,1.2711,0.1971
0.3258,0.4259,-1.1964,-0.4743,1.4512,0.6075,1.9549,0.5005,-1.448,-0.7043,-0.4957,-0.4211,1.1187,0.5603,1.3573,0.2177
0.3258,0.4259,-1.1964,-0.4743,1.4512,0.6075,1.9549,0.5005,-1.448,-0.7043,-0.4957,-0.4211,1.1187,0.5603,1.3573,0.2177
0.411,0.4142,-1.1394,-0.4689,1.4948,0.6501,2.0821,0.5285,-1.3735,-0.718,-0.4223,-0.3947,1.197,0.5891,1.4578,0.2429
0.411,0.4142,-1.1394,-0.4689,1.4948,0.6501,2.0821,0.5285,-1.3735,-0.718,-0.4223,-0.3947,1.197,0.5891,1.4578,0.2429
0.411,0.4142,-1.1394,-0.4689,1.4948,0.6501,2.0821,0.5285,-1.3735,-0.718,-0.4223,-0.3947,1.197,0.5891,1.4578,0.2429
0.4677,0.4219,-1.0881,-0.4551,1.5652,0.6543,2.2016,0.5529,-1.3218,-0.6984,-0.3485,-0.3682,1.3126,0.5937,1.5634,0.2619
0.4677,0.4219,-1.0881,-0.4551,1.5652,0.6543,2.2016,0.5529,-1.3218,-0.6984,-0.3485,-0.3682,1.3126,0.5937,1.5634,0.2619
0.4677,0.4219,-1.0881,-0.4551,1.5652,0.6543,2.2016,0.5529,-1.3218,-0.6984,-0.3485,-0.3682,1.3126,0.5937,1.5634,0.2619
0.4918,0.4319,-1.0518,-0.4487,1.6169,0.6507,2.3101,0.5614,-1.241,-0.6889,-0.2673,-0.3516,1.4185,0.6133,1.6514,0.2826
0.4918,0.4319,-1.0518,-0.4487,1.6169,0.6507,2.3101,0.5614,-1.241,-0.6889,-0.2673,-0.3516,1.4185,0.6133,1.6514,0.2826
0.516,0.4419,-1.0154,-0.4423,1.6552,0.6663,2.3888,0.5807,-1.218,-0.6589,-0.2317,-0.3263,1.493,0.6213,1.7119,0.2943
0.516,0.4419,-1.0154,-0.4423,1.6552,0.6663,2.3888,0.5807,-1.218,-0.6589,-0.2317,-0.3263,1.493,0.6213,1.7119,0.2943
0.5281,0.4468,-0.9866,-0.4397,1.6879,0.6548,2.4435,0.6018,-1.1832,-0.6458,-0.1927,-0.325,1.5518,0.6234,1.7655,0.3037
0.5281,0.4468,-0.9866,-0.4397,1.6879,0.6548,2.4435,0.6018,-1.1832,-0.6458,-0.1927,-0.325,1.5518,0.6234,1.7655,0.3037
0.5281,0.4468,-0.9654,-0.4408,1.6879,0.6548,2.4464,0.6143,-1.1832,-0.6458,-0.1643,-0.3274,1.5679,0.6292,1.7867,0.3105
0.5366,0.4346,-0.9382,-0.4504,1.682,0.6276,2.4464,0.6143,-1.1657,-0.6392,-0.1643,-0.3274,1.5574,0.6444,1.7867,0.3105
0.5366,0.4346,-0.9382,-0.4504,1.682,0.6276,2.4464,0.6143,-1.1657,-0.6392,-0.1643,-0.3274,1.5574,0.6444,1.7867,0.3105
0.5402,0.4519,-0.9305,-0.4466,1.7013,0.6354,2.431,0.6197,-1.1365,-0.6495,-0.1573,-0.3375,1.5574,0.6444,1.7796,0.3082
0.5402,0.4519,-0.9305,-0.4466,1.7013,0.6354,2.431,0.6197,-1.1365,-0.6495,-0.1573,-0.3375,1.5574,0.6444,1.7796,0.3082
0.5196,0.4591,-0.9305,-0.4466,1.7013,0.6354,2.419,0.6037,-1.1073,-0.6598,-0.1787,-0.345,1.5041,0.6633,1.7698,0.2975
0.5075,0.4541,-0.9577,-0.437,1.6686,0.647,2.407,0.5877,-1.0605,-0.6636,-0.1787,-0.345,1.488,0.6574,1.7671,0.2889
0.5075,0.4541,-0.9577,-0.437,1.6686,0.647,2.407,0.5877,-1.0605,-0.6636,-0.1787,-0.345,1.488,0.6574,1.7671,0.2889
0.5075,0.4541,-0.9654,-0.4408,1.682,0.6276,2.3735,0.5861,-1.0898,-0.6532,-0.1894,-0.3488,1.472,0.6516,1.7417,0.2885
0.5075,0.4541,-0.9654,-0.4408,1.682,0.6276,2.3735,0.5861,-1.0898,-0.6532,-0.1894,-0.3488,1.472,0.6516,1.7417,0.2885
0.5075,0.4541,-0.9654,-0.4408,1.682,0.6276,2.3735,0.5861,-1.0898,-0.6532,-0.1894,-0.3488,1.472,0.6516,1.7417,0.2885
0.4989,0.4664,-0.9577,-0.437,1.682,0.6276,2.3583,0.5915,-1.1015,-0.6363,-0.1825,-0.3589,1.4559,0.6458,1.7346,0.2862
0.4989,0.4664,-0.9577,-0.437,1.682,0.6276,2.3583,0.5915,-1.1015,-0.6363,-0.1825,-0.3589,1.4559,0.6458,1.7346,0.2862
0.5196,0.4591,-0.95,-0.4333,1.7013,0.6354,2.3521,0.6004,-1.1015,-0.6363,-0.1579,-0.3751,1.4665,0.6306,1.7232,0.2903
0.5196,0.4591,-0.95,-0.4333,1.7013,0.6354,2.3521,0.6004,-1.1015,-0.6363,-0.1579,-0.3751,1.4665,0.6306,1.7232,0.2903
0.5402,0.4519,-0.9364,-0.4381,1.6686,0.647,2.3521,0.6004,-1.1191,-0.6429,-0.1579,-0.3751,1.477,0.6155,1.7162,0.288
0.5402,0.4519,-0.9364,-0.4381,1.6686,0.647,2.3521,0.6004,-1.1191,-0.6429,-0.1579,-0.3751,1.477,0.6155,1.7162,0.288
0.5609,0.4446,-0.9364,-0.4381,1.6552,0.6663,2.3673,0.595,-1.1191,-0.6429,-0.1648,-0.3651,1.4665,0.6306,1.7119,0.2943
0.5609,0.4446,-0.9364,-0.4381,1.6552,0.6663,2.3673,0.595,-1.1191,-0.6429,-0.1648,-0.3651,1.4665,0.6306,1.7119,0.2943
0.5937,0.4422,-0.9211,-0.4307,1.6879,0.6548,2.3917,0.5931,-1.1073,-0.6598,-0.1541,-0.3613,1.477,0.6155,1.7119,0.2943
0.5937,0.4422,-0.9211,-0.4307,1.6879,0.6548,2.3917,0.5931,-1.1073,-0.6598,-0.1541,-0.3613,1.477,0.6155,1.7119,0.2943
0.5937,0.4422,-0.9211,-0.4307,1.6879,0.6548,2.3917,0.5931,-1.1073,-0.6598,-0.1541,-0.3613,1.477,0.6155,1.7119,0.2943
0.5852,0.4546,-0.927,-0.4222,1.6879,0.6548,2.4132,0.5788,-1.1073,-0.6598,-0.1787,-0.345,1.493,0.6213,1.7119,0.2943
0.5852,0.4546,-0.927,-0.4222,1.6879,0.6548,2.4132,0.5788,-1.1073,-0.6598,-0.1787,-0.345,1.493,0.6213,1.7119,0.2943
0.5317,0.4642,-0.9424,-0.4296,1.6628,0.6198,2.3644,0.5826,-1.1248,-0.6664,-0.2001,-0.3526,1.5406,0.5815,1.6908,0.2875
0.5317,0.4642,-0.9424,-0.4296,1.6628,0.6198,2.3644,0.5826,-1.1248,-0.6664,-0.2001,-0.3526,1.5406,0.5815,1.6908,0.2875
0.5281,0.4468,-0.9305,-0.4466,1.6436,0.6121,2.3311,0.5809,-1.1131,-0.6833,-0.2284,-0.3502,1.514,0.5909,1.6698,0.2808
0.5281,0.4468,-0.9305,-0.4466,1.6436,0.6121,2.3311,0.5809,-1.1131,-0.6833,-0.2284,-0.3502,1.514,0.5909,1.6698,0.2808
0.516,0.4419,-0.9305,-0.4466,1.6244,0.6043,2.313,0.5739,-1.0956,-0.6767,-0.2284,-0.3502,1.5035,0.6061,1.6558,0.2763
0.516,0.4419,-0.9305,-0.4466,1.6244,0.6043,2.313,0.5739,-1.0956,-0.6767,-0.2284,-0.3502,1.5035,0.6061,1.6558,0.2763
0.516,0.4419,-0.9305,-0.4466,1.6244,0.6043,2.313,0.5739,-1.0956,-0.6767,-0.2284,-0.3502,1.5035,0.6061,1.6558,0.2763
0.5039,0.4369,-0.9441,-0.4418,1.592,0.6158,2.3011,0.5579,-1.1248,-0.6664,-0.2497,-0.3578,1.4609,0.6097,1.6504,0.2593
0.5039,0.4369,-0.9441,-0.4418,1.592,0.6158,2.3011,0.5579,-1.1248,-0.6664,-0.2497,-0.3578,1.4609,0.6097,1.6504,0.2593
0.5039,0.4369,-0.9441,-0.4418,1.592,0.6158,2.3011,0.5579,-1.1248,-0.6664,-0.2497,-0.3578,1.4609,0.6097,1.6504,0.2593
0.5039,0.4369,-0.95,-0.4333,1.592,0.6158,2.2678,0.5563,-1.1131,-0.6833,-0.271,-0.3654,1.392,0.6226,1.6295,0.2526
0.4833,0.4441,-0.9713,-0.4323,1.592,0.6158,2.2408,0.5457,-1.1598,-0.6795,-0.3204,-0.3706,1.3443,0.6053,1.5903,0.2477
0.4627,0.4514,-0.9848,-0.4275,1.6244,0.6043,2.2138,0.5352,-1.1889,-0.6692,-0.331,-0.3743,1.3126,0.5937,1.5426,0.2551
0.4627,0.4514,-0.9848,-0.4275,1.6244,0.6043,2.2138,0.5352,-1.1889,-0.6692,-0.331,-0.3743,1.3126,0.5937,1.5426,0.2551
0.4507,0.4464,-0.9866,-0.4397,1.6053,0.5966,2.1719,0.53,-1.2527,-0.6721,-0.3627,-0.3857,1.2547,0.5914,1.4924,0.2541
0.4507,0.4464,-0.9866,-0.4397,1.6053,0.5966,2.1719,0.53,-1.2527,-0.6721,-0.3627,-0.3857,1.2547,0.5914,1.4924,0.2541
0.4507,0.4464,-0.9866,-0.4397,1.6053,0.5966,2.1719,0.53,-1.2527,-0.6721,-0.3627,-0.3857,1.2547,0.5914,1.4924,0.2541
0.4507,0.4464,-0.9866,-0.4397,1.6053,0.5966,2.1719,0.53,-1.2527,-0.6721,-0.3627,-0.3857,1.2547,0.5914,1.4924,0.2541
0.4507,0.4464,-1.0078,-0.4386,1.5405,0.6195,2.13,0.5249,-1.2527,-0.6721,-0.3802,-0.3795,1.2547,0.5914,1.4605,0.2513
0.4507,0.4464,-1.0078,-0.4386,1.5405,0.6195,2.13,0.5249,-1.2527,-0.6721,-0.3802,-0.3795,1.2547,0.5914,1.4605,0.2513
0.4471,0.4292,-1.0171,-0.4546,1.4891,0.6231,2.0793,0.5162,-1.27,-0.6787,-0.4082,-0.3772,1.2389,0.5857,1.4217,0.2463
0.4471,0.4292,-1.0171,-0.4546,1.4891,0.6231,2.0793,0.5162,-1.27,-0.6787,-0.4082,-0.3772,1.2389,0.5857,1.4217,0.2463
0.4471,0.4292,-1.0171,-0.4546,1.4891,0.6231,2.0793,0.5162,-1.27,-0.6787,-0.4082,-0.3772,1.2389,0.5857,1.4217,0.2463
0.4181,0.4486,-1.0518,-0.4487,1.4702,0.6153,2.0499,0.4934,-1.2989,-0.6684,-0.4466,-0.3786,1.2074,0.5741,1.3693,0.2368
0.4181,0.4486,-1.0518,-0.4487,1.4702,0.6153,2.0499,0.4934,-1.2989,-0.6684,-0.4466,-0.3786,1.2074,0.5741,1.3693,0.2368
0.3941,0.4387,-1.0746,-0.4599,1.4456,0.5806,1.9935,0.4935,-1.2989,-0.6684,-0.4571,-0.3824,1.2074,0.5741,1.3445,0.2363
0.3941,0.4387,-1.0746,-0.4599,1.4456,0.5806,1.9935,0.4935,-1.2989,-0.6684,-0.4571,-0.3824,1.2074,0.5741,1.3445,0.2363
0.3821,0.4337,-1.0822,-0.4636,1.4267,0.5729,1.9549,0.5005,-1.3162,-0.675,-0.4607,-0.3961,1.2021,0.5534,1.3129,0.2335
0.3821,0.4337,-1.0822,-0.4636,1.4267,0.5729,1.9549,0.5005,-1.3162,-0.675,-0.4607,-0.3961,1.2021,0.5534,1.3129,0.2335
0.3821,0.4337,-1.0822,-0.4636,1.4267,0.5729,1.9549,0.5005,-1.3162,-0.675,-0.4607,-0.3961,1.2021,0.5534,1.3129,0.2335
0.3377,0.4309,-1.0974,-0.471,1.389,0.5574,1.9136,0.4953,-1.3335,-0.6816,-0.4885,-0.3938,1.176,0.5626,1.2924,0.2267
0.3377,0.4309,-1.0974,-0.471,1.389,0.5574,1.9136,0.4953,-1.3335,-0.6816,-0.4885,-0.3938,1.176,0.5626,1.2924,0.2267
0.3377,0.4309,-1.0974,-0.471,1.389,0.5574,1.9136,0.4953,-1.3335,-0.6816,-0.4885,-0.3938,1.176,0.5626,1.2924,0.2267
0.3258,0.4259,-1.1184,-0.4699,1.3382,0.561,1.8341,0.497,-1.2986,-0.7318,-0.5441,-0.3891,1.1083,0.5752,1.2251,0.2273
0.3223,0.4087,-1.1394,-0.4689,1.2875,0.5645,1.8079,0.4865,-1.3275,-0.7217,-0.5649,-0.3967,1.0512,0.5728,1.2048,0.2205
0.3223,0.4087,-1.1394,-0.4689,1.2875,0.5645,1.8079,0.4865,-1.3275,-0.7217,-0.5649,-0.3967,1.0512,0.5728,1.2048,0.2205
0.3223,0.4087,-1.1394,-0.4689,1.2875,0.5645,1.8079,0.4865,-1.3275,-0.7217,-0.5649,-0.3967,1.0512,0.5728,1.2048,0.2205
0.3104,0.4037,-1.1604,-0.4679,1.2689,0.5568,1.7878,0.4673,-1.3563,-0.7115,-0.603,-0.3982,1.046,0.5522,1.1777,0.2116
0.3104,0.4037,-1.1604,-0.4679,1.2689,0.5568,1.7878,0.4673,-1.3563,-0.7115,-0.603,-0.3982,1.046,0.5522,1.1777,0.2116
0.2696,0.4181,-1.1755,-0.4753,1.3139,0.5266,1.747,0.4621,-1.4138,-0.6911,-0.6237,-0.4057,1.0149,0.5407,1.1354,0.2126
0.2696,0.4181,-1.1755,-0.4753,1.3139,0.5266,1.747,0.4621,-1.4138,-0.6911,-0.6237,-0.4057,1.0149,0.5407,1.1354,0.2126
0.2578,0.4131,-1.1964,-0.4743,1.2952,0.5189,1.715,0.4603,-1.4651,-0.7108,-0.6651,-0.4209,0.9427,0.5325,1.0798,0.2092
0.2578,0.4131,-1.1964,-0.4743,1.2952,0.5189,1.715,0.4603,-1.4651,-0.7108,-0.6651,-0.4209,0.9427,0.5325,1.0798,0.2092
0.2578,0.4131,-1.1964,-0.4743,1.2952,0.5189,1.715,0.4603,-1.4651,-0.7108,-0.6651,-0.4209,0.9427,0.5325,1.0798,0.2092
0.2256,0.4153,-1.2114,-0.4817,1.2952,0.5189,1.6744,0.455,-1.5278,-0.7138,-0.6961,-0.4322,0.8965,0.5153,1.0202,0.2118
0.2256,0.4153,-1.2114,-0.4817,1.2952,0.5189,1.6744,0.455,-1.5278,-0.7138,-0.6961,-0.4322,0.8965,0.5153,1.0202,0.2118
0.2222,0.3982,-1.2398,-0.4843,1.2502,0.5491,1.6167,0.4428,-1.5956,-0.74,-0.7476,-0.4511,0.7994,0.5161,0.9384,0.1993
0.2222,0.3982,-1.2398,-0.4843,1.2502,0.5491,1.6167,0.4428,-1.5956,-0.74,-0.7476,-0.4511,0.7994,0.5161,0.9384,0.1993
0.2222,0.3982,-1.2398,-0.4843,1.2502,0.5491,1.6167,0.4428,-1.5956,-0.74,-0.7476,-0.4511,0.7994,0.5161,0.9384,0.1993
0.2306,0.386,-1.2473,-0.488,1.1998,0.5525,1.5995,0.4358,-1.5841,-0.7566,-0.7714,-0.4352,0.7994,0.5161,0.9426,0.1932
0.2306,0.386,-1.2473,-0.488,1.1998,0.5525,1.5995,0.4358,-1.5841,-0.7566,-0.7714,-0.4352,0.7994,0.5161,0.9426,0.1932
0.2306,0.386,-1.2473,-0.488,1.1998,0.5525,1.5995,0.4358,-1.5841,-0.7566,-0.7714,-0.4352,0.7994,0.5161,0.9426,0.1932
0.2627,0.3838,-1.219,-0.4854,1.2053,0.5793,1.6545,0.4359,-1.5672,-0.7501,-0.7577,-0.4178,0.8556,0.5186,0.9801,0.1983
0.2627,0.3838,-1.219,-0.4854,1.2053,0.5793,1.6545,0.4359,-1.5672,-0.7501,-0.7577,-0.4178,0.8556,0.5186,0.9801,0.1983
0.3138,0.4209,-1.1528,-0.4642,1.3758,0.5765,1.8906,0.4639,-1.4134,-0.7543,-0.6443,-0.3761,1.0615,0.5579,1.1564,0.2423
0.3138,0.4209,-1.1528,-0.4642,1.3758,0.5765,1.8906,0.4639,-1.4134,-0.7543,-0.6443,-0.3761,1.0615,0.5579,1.1564,0.2423
0.3497,0.4359,-1.1091,-0.4541,1.4456,0.5806,2.0172,0.4917,-1.3447,-0.7282,-0.5543,-0.3556,1.1917,0.5684,1.2804,0.2682
0.3497,0.4359,-1.1091,-0.4541,1.4456,0.5806,2.0172,0.4917,-1.3447,-0.7282,-0.5543,-0.3556,1.1917,0.5684,1.2804,0.2682
0.3497,0.4359,-1.1091,-0.4541,1.4456,0.5806,2.0172,0.4917,-1.3447,-0.7282,-0.5543,-0.3556,1.1917,0.5684,1.2804,0.2682
0.4061,0.4437,-1.0442,-0.445,1.5347,0.5925,2.1328,0.5372,-1.264,-0.7188,-0.4568,-0.3449,1.3493,0.5694,1.4097,0.288
0.4061,0.4437,-1.0442,-0.445,1.5347,0.5925,2.1328,0.5372,-1.264,-0.7188,-0.4568,-0.3449,1.3493,0.5694,1.4097,0.288
0.4797,0.4269,-0.9866,-0.4397,1.5729,0.608,2.2375,0.567,-1.183,-0.7094,-0.3412,-0.3406,1.4185,0.6133,1.5219,0.3095
0.5245,0.4296,-0.9347,-0.4259,1.6436,0.6121,2.3249,0.5898,-1.0839,-0.6936,-0.253,-0.334,1.488,0.6574,1.628,0.3286
0.5245,0.4296,-0.9347,-0.4259,1.6436,0.6121,2.3249,0.5898,-1.0839,-0.6936,-0.253,-0.334,1.488,0.6574,1.628,0.3286
0.5694,0.4323,-0.9098,-0.4024,1.6954,0.6083,2.3946,0.6056,-1.0253,-0.7143,-0.2034,-0.3288,1.5307,0.6538,1.6814,0.3382
0.5694,0.4323,-0.9098,-0.4024,1.6954,0.6083,2.3946,0.6056,-1.0253,-0.7143,-0.2034,-0.3288,1.5307,0.6538,1.6814,0.3382
0.5694,0.4323,-0.9098,-0.4024,1.6954,0.6083,2.3946,0.6056,-1.0253,-0.7143,-0.2034,-0.3288,1.5307,0.6538,1.6814,0.3382
0.6059,0.4472,-0.8654,-0.3923,1.734,0.6239,2.4464,0.6143,-0.9901,-0.7012,-0.1643,-0.3274,1.5468,0.6596,1.7323,0.3392
0.6059,0.4472,-0.8654,-0.3923,1.734,0.6239,2.4464,0.6143,-0.9901,-0.7012,-0.1643,-0.3274,1.5468,0.6596,1.7323,0.3392
0.6059,0.4472,-0.8654,-0.3923,1.734,0.6239,2.4464,0.6143,-0.9901,-0.7012,-0.1643,-0.3274,1.5468,0.6596,1.7323,0.3392
0.6303,0.4572,-0.8422,-0.3811,1.7727,0.6394,2.4954,0.6105,-0.9665,-0.6712,-0.1321,-0.316,1.5897,0.656,1.7605,0.3483
0.6425,0.4622,-0.8285,-0.3859,1.7861,0.6201,2.4954,0.6105,-0.99,-0.6372,-0.1391,-0.3059,1.5897,0.656,1.7675,0.3505
0.6425,0.4622,-0.8285,-0.3859,1.7861,0.6201,2.4954,0.6105,-0.99,-0.6372,-0.1391,-0.3059,1.5897,0.656,1.7675,0.3505
0.6217,0.4696,-0.8089,-0.3993,1.7861,0.6201,2.4863,0.607,-1.0077,-0.6438,-0.1251,-0.326,1.5574,0.6444,1.7534,0.346
0.6217,0.4696,-0.8089,-0.3993,1.7727,0.6394,2.4833,0.5945,-0.9959,-0.6608,-0.1428,-0.3198,1.5679,0.6292,1.7464,0.3437
0.6217,0.4696,-0.8089,-0.3993,1.7727,0.6394,2.4833,0.5945,-0.9959,-0.6608,-0.1428,-0.3198,1.5679,0.6292,1.7464,0.3437
0.6217,0.4696,-0.8089,-0.3993,1.7727,0.6394,2.4833,0.5945,-0.9959,-0.6608,-0.1428,-0.3198,1.5679,0.6292,1.7464,0.3437
0.6303,0.4572,-0.8089,-0.3993,1.7533,0.6316,2.4588,0.5964,-1.0077,-0.6438,-0.1321,-0.316,1.5679,0.6292,1.7279,0.3455
0.6303,0.4572,-0.8089,-0.3993,1.7533,0.6316,2.4588,0.5964,-1.0077,-0.6438,-0.1321,-0.316,1.5679,0.6292,1.7279,0.3455
0.6303,0.4572,-0.8089,-0.3993,1.7533,0.6316,2.4588,0.5964,-1.0077,-0.6438,-0.1321,-0.316,1.5679,0.6292,1.7279,0.3455
0.6303,0.4572,-0.8029,-0.4079,1.734,0.6239,2.4467,0.5804,-0.9665,-0.6712,-0.1391,-0.3059,1.5413,0.6386,1.7252,0.3369
0.6425,0.4622,-0.8011,-0.3956,1.734,0.6239,2.4621,0.575,-0.9665,-0.6712,-0.1498,-0.3097,1.5679,0.6292,1.7182,0.3347
0.6425,0.4622,-0.8011,-0.3956,1.734,0.6239,2.4621,0.575,-0.9665,-0.6712,-0.1498,-0.3097,1.5679,0.6292,1.7182,0.3347
0.6425,0.4622,-0.8011,-0.3956,1.734,0.6239,2.4621,0.575,-0.9665,-0.6712,-0.1498,-0.3097,1.5679,0.6292,1.7182,0.3347
0.6425,0.4622,-0.7874,-0.4004,1.734,0.6239,2.4621,0.575,-0.9959,-0.6608,-0.1675,-0.3034,1.5785,0.614,1.7112,0.3324
0.6425,0.4622,-0.7874,-0.4004,1.734,0.6239,2.4621,0.575,-0.9959,-0.6608,-0.1675,-0.3034,1.5785,0.614,1.7112,0.3324
0.6425,0.4622,-0.7874,-0.4004,1.734,0.6239,2.4621,0.575,-0.9959,-0.6608,-0.1675,-0.3034,1.5785,0.614,1.7112,0.3324
0.6181,0.4522,-0.76,-0.4101,1.7013,0.6354,2.4252,0.5948,-0.9959,-0.6608,-0.1605,-0.3135,1.5946,0.6198,1.7226,0.3284
0.6181,0.4522,-0.76,-0.4101,1.7013,0.6354,2.4252,0.5948,-0.9959,-0.6608,-0.1605,-0.3135,1.5946,0.6198,1.7226,0.3284
0.6389,0.4449,-0.7522,-0.4064,1.7013,0.6354,2.419,0.6037,-0.937,-0.6816,-0.1251,-0.326,1.6108,0.6255,1.7296,0.3307
0.6389,0.4449,-0.7522,-0.4064,1.7013,0.6354,2.419,0.6037,-0.937,-0.6816,-0.1251,-0.326,1.6108,0.6255,1.7296,0.3307
0.6389,0.4449,-0.7384,-0.4112,1.682,0.6276,2.4343,0.5983,-0.9075,-0.692,-0.1321,-0.316,1.5841,0.635,1.7296,0.3307
0.6389,0.4449,-0.7384,-0.4112,1.682,0.6276,2.4343,0.5983,-0.9075,-0.692,-0.1321,-0.316,1.5841,0.635,1.7296,0.3307
0.6389,0.4449,-0.7444,-0.4027,1.682,0.6276,2.4252,0.5948,-0.9075,-0.692,-0.1251,-0.326,1.5574,0.6444,1.741,0.3266
0.6389,0.4449,-0.7444,-0.4027,1.682,0.6276,2.4252,0.5948,-0.9075,-0.692,-0.1251,-0.326,1.5574,0.6444,1.741,0.3266
0.6389,0.4449,-0.7581,-0.3978,1.682,0.6276,2.4223,0.5823,-0.9488,-0.6646,-0.1428,-0.3198,1.5413,0.6386,1.7383,0.3181
0.6389,0.4449,-0.7581,-0.3978,1.682,0.6276,2.4223,0.5823,-0.9488,-0.6646,-0.1428,-0.3198,1.5413,0.6386,1.7383,0.3181
0.6181,0.4522,-0.7719,-0.393,1.7147,0.6161,2.3979,0.5842,-0.9488,-0.6646,-0.1713,-0.3173,1.5252,0.6328,1.7242,0.3136
0.6181,0.4522,-0.7719,-0.393,1.7147,0.6161,2.3979,0.5842,-0.9488,-0.6646,-0.1713,-0.3173,1.5252,0.6328,1.7242,0.3136
0.6181,0.4522,-0.7796,-0.3967,1.7281,0.5968,2.3706,0.5736,-0.9665,-0.6712,-0.182,-0.3211,1.5091,0.627,1.6988,0.3131
0.6181,0.4522,-0.7796,-0.3967,1.7281,0.5968,2.3706,0.5736,-0.9665,-0.6712,-0.182,-0.3211,1.5091,0.627,1.6988,0.3131
0.5974,0.4596,-0.7677,-0.4138,1.7088,0.5891,2.3586,0.5577,-1.0135,-0.6674,-0.1787,-0.345,1.4875,0.6003,1.6664,0.3103
0.5974,0.4596,-0.7677,-0.4138,1.7088,0.5891,2.3586,0.5577,-1.0135,-0.6674,-0.1787,-0.345,1.4875,0.6003,1.6664,0.3103
0.5852,0.4546,-0.7755,-0.4176,1.6762,0.6006,2.3253,0.5561,-1.0312,-0.6739,-0.1894,-0.3488,1.4714,0.5946,1.6228,0.3116
0.5852,0.4546,-0.7755,-0.4176,1.6762,0.6006,2.3253,0.5561,-1.0312,-0.6739,-0.1894,-0.3488,1.4714,0.5946,1.6228,0.3116
0.5937,0.4422,-0.797,-0.4165,1.657,0.5928,2.283,0.5509,-1.0077,-0.7077,-0.2178,-0.3464,1.4554,0.5888,1.5905,0.3088
0.5937,0.4422,-0.797,-0.4165,1.657,0.5928,2.283,0.5509,-1.0077,-0.7077,-0.2178,-0.3464,1.4554,0.5888,1.5905,0.3088
0.6023,0.4299,-0.8047,-0.4202,1.6244,0.6043,2.256,0.5404,-1.0077,-0.7077,-0.253,-0.334,1.4394,0.583,1.5583,0.306
0.6023,0.4299,-0.8047,-0.4202,1.6244,0.6043,2.256,0.5404,-1.0077,-0.7077,-0.253,-0.334,1.4394,0.583,1.5583,0.306
0.5901,0.4249,-0.8125,-0.4239,1.6053,0.5966,2.2441,0.5245,-1.0077,-0.7077,-0.2812,-0.3316,1.3971,0.5866,1.5262,0.3032
0.5901,0.4249,-0.8125,-0.4239,1.6053,0.5966,2.2441,0.5245,-1.0077,-0.7077,-0.2812,-0.3316,1.3971,0.5866,1.5262,0.3032
0.5816,0.4372,-0.8262,-0.4191,1.6053,0.5966,2.2261,0.5175,-1.0077,-0.7077,-0.3094,-0.3292,1.3971,0.5866,1.5054,0.2964
0.5523,0.4569,-0.8339,-0.4228,1.5862,0.5888,2.1841,0.5124,-1.0077,-0.7077,-0.3375,-0.3268,1.4499,0.5679,1.4959,0.2857
0.5523,0.4569,-0.8339,-0.4228,1.5862,0.5888,2.1841,0.5124,-1.0077,-0.7077,-0.3375,-0.3268,1.4499,0.5679,1.4959,0.2857
0.5402,0.4519,-0.8553,-0.4217,1.5671,0.5811,2.1572,0.5019,-1.0253,-0.7143,-0.3587,-0.3344,1.4444,0.5471,1.4682,0.2767
0.5402,0.4519,-0.8553,-0.4217,1.5671,0.5811,2.1572,0.5019,-1.0253,-0.7143,-0.3587,-0.3344,1.4444,0.5471,1.4682,0.2767
0.5402,0.4519,-0.8553,-0.4217,1.5671,0.5811,2.1572,0.5019,-1.0253,-0.7143,-0.3587,-0.3344,1.4444,0.5471,1.4682,0.2767
0.5075,0.4541,-0.8648,-0.4377,1.529,0.5656,2.1154,0.4968,-1.1014,-0.7001,-0.3973,-0.3359,1.4229,0.5207,1.4295,0.2716
0.5075,0.4541,-0.8648,-0.4377,1.529,0.5656,2.1154,0.4968,-1.1014,-0.7001,-0.3973,-0.3359,1.4229,0.5207,1.4295,0.2716
0.5075,0.4541,-0.8648,-0.4377,1.529,0.5656,2.1154,0.4968,-1.1014,-0.7001,-0.3973,-0.3359,1.4229,0.5207,1.4295,0.2716
0.4833,0.4441,-0.8802,-0.4451,1.491,0.5502,2.0588,0.4969,-1.0897,-0.717,-0.4009,-0.3496,1.3702,0.5393,1.3976,0.2689
0.4833,0.4441,-0.8802,-0.4451,1.491,0.5502,2.0588,0.4969,-1.0897,-0.717,-0.4009,-0.3496,1.3702,0.5393,1.3976,0.2689
0.4797,0.4269,-0.8879,-0.4488,1.4588,0.5615,2.0261,0.4952,-1.0956,-0.7403,-0.4289,-0.3473,1.3176,0.5579,1.3547,0.27
0.4797,0.4269,-0.8879,-0.4488,1.4588,0.5615,2.0261,0.4952,-1.0956,-0.7403,-0.4289,-0.3473,1.3176,0.5579,1.3547,0.27
0.4677,0.4219,-0.9152,-0.4392,1.4399,0.5538,1.9846,0.49,-1.0839,-0.7571,-0.4568,-0.3449,1.2651,0.5764,1.3385,0.257
0.4677,0.4219,-0.9152,-0.4392,1.4399,0.5538,1.9846,0.49,-1.0839,-0.7571,-0.4568,-0.3449,1.2651,0.5764,1.3385,0.257
0.4677,0.4219,-0.9152,-0.4392,1.4399,0.5538,1.9846,0.49,-1.0839,-0.7571,-0.4568,-0.3449,1.2651,0.5764,1.3385,0.257
0.4436,0.4119,-0.9441,-0.4418,1.421,0.5461,1.9345,0.4813,-1.1597,-0.743,-0.523,-0.3441,1.1917,0.5684,1.3018,0.2374
0.4436,0.4119,-0.9441,-0.4418,1.421,0.5461,1.9345,0.4813,-1.1597,-0.743,-0.523,-0.3441,1.1917,0.5684,1.3018,0.2374
0.423,0.4192,-0.9654,-0.4408,1.4342,0.527,1.8933,0.4761,-1.1887,-0.7327,-0.5439,-0.3517,1.1603,0.5568,1.2659,0.2407
0.423,0.4192,-0.9654,-0.4408,1.4342,0.527,1.8933,0.4761,-1.1887,-0.7327,-0.5439,-0.3517,1.1603,0.5568,1.2659,0.2407
0.423,0.4192,-0.9654,-0.4408,1.4342,0.527,1.8933,0.4761,-1.1887,-0.7327,-0.5439,-0.3517,1.1603,0.5568,1.2659,0.2407
0.4195,0.402,-0.9807,-0.4482,1.4154,0.5194,1.861,0.4743,-1.264,-0.7188,-0.5751,-0.3632,1.0874,0.5488,1.2234,0.2418
0.4195,0.402,-0.9807,-0.4482,1.4154,0.5194,1.861,0.4743,-1.264,-0.7188,-0.5751,-0.3632,1.0874,0.5488,1.2234,0.2418
0.4195,0.402,-0.9807,-0.4482,1.4154,0.5194,1.861,0.4743,-1.264,-0.7188,-0.5751,-0.3632,1.0874,0.5488,1.2234,0.2418
0.387,0.4042,-1.023,-0.4461,1.3514,0.542,1.7878,0.4673,-1.3331,-0.7449,-0.6271,-0.3822,0.9891,0.5498,1.1319,0.2416
0.387,0.4042,-1.023,-0.4461,1.3514,0.542,1.7878,0.4673,-1.3331,-0.7449,-0.6271,-0.3822,0.9891,0.5498,1.1319,0.2416
0.387,0.4042,-1.0306,-0.4498,1.3194,0.5533,1.7704,0.4604,-1.3388,-0.7681,-0.6478,-0.3898,0.9582,0.5383,1.083,0.2404
0.387,0.4042,-1.0306,-0.4498,1.3194,0.5533,1.7704,0.4604,-1.3388,-0.7681,-0.6478,-0.3898,0.9582,0.5383,1.083,0.2404
0.387,0.4042,-1.0306,-0.4498,1.3194,0.5533,1.7704,0.4604,-1.3388,-0.7681,-0.6478,-0.3898,0.9582,0.5383,1.083,0.2404
0.3751,0.3992,-1.0459,-0.4572,1.3007,0.5455,1.7297,0.4551,-1.356,-0.7745,-0.6856,-0.3913,0.9273,0.5268,1.0452,0.2353
0.3751,0.3992,-1.0459,-0.4572,1.3007,0.5455,1.7297,0.4551,-1.356,-0.7745,-0.6856,-0.3913,0.9273,0.5268,1.0452,0.2353
0.3546,0.4065,-1.067,-0.4561,1.2689,0.5568,1.7037,0.4447,-1.356,-0.7745,-0.7131,-0.389,0.9376,0.512,1.0142,0.2324
0.3138,0.4209,-1.0881,-0.4551,1.2502,0.5491,1.6718,0.4429,-1.3847,-0.7644,-0.7576,-0.3807,0.9222,0.5062,0.9941,0.2256
0.3019,0.4159,-1.0822,-0.4636,1.2447,0.5224,1.6658,0.4515,-1.356,-0.7745,-0.7474,-0.3769,0.9633,0.5029,0.9966,0.234
0.3019,0.4159,-1.0822,-0.4636,1.2447,0.5224,1.6658,0.4515,-1.356,-0.7745,-0.7474,-0.3769,0.9633,0.5029,0.9966,0.234
0.3307,0.3965,-1.0552,-0.4731,1.2765,0.5112,1.7003,0.4655,-1.3388,-0.7681,-0.7268,-0.3693,1.0097,0.5201,1.0367,0.2475
0.3307,0.3965,-1.0552,-0.4731,1.2765,0.5112,1.7003,0.4655,-1.3388,-0.7681,-0.7268,-0.3693,1.0097,0.5201,1.0367,0.2475
0.3307,0.3965,-1.0552,-0.4731,1.2765,0.5112,1.7003,0.4655,-1.3388,-0.7681,-0.7268,-0.3693,1.0097,0.5201,1.0367,0.2475
0.3631,0.3943,-1.0265,-0.4704,1.327,0.5076,1.7818,0.476,-1.2639,-0.7819,-0.6511,-0.3662,1.0874,0.5488,1.1149,0.2662
0.3631,0.3943,-1.0265,-0.4704,1.327,0.5076,1.7818,0.476,-1.2639,-0.7819,-0.6511,-0.3662,1.0874,0.5488,1.1149,0.2662
0.44,0.3947,-0.9807,-0.4482,1.4342,0.527,1.9075,0.504,-1.1829,-0.7727,-0.5543,-0.3556,1.2074,0.5741,1.236,0.2839
0.44,0.3947,-0.9807,-0.4482,1.4342,0.527,1.9075,0.504,-1.1829,-0.7727,-0.5543,-0.3556,1.2074,0.5741,1.236,0.2839
0.4882,0.4146,-0.9347,-0.4259,1.5232,0.5388,2.0433,0.5355,-1.1015,-0.7636,-0.4463,-0.3411,1.3126,0.5937,1.383,0.3021
0.5573,0.4273,-0.8808,-0.3998,1.6319,0.5581,2.1714,0.5636,-1.0312,-0.7376,-0.3551,-0.3206,1.392,0.6226,1.5063,0.3197
0.5573,0.4273,-0.8808,-0.3998,1.6319,0.5581,2.1714,0.5636,-1.0312,-0.7376,-0.3551,-0.3206,1.392,0.6226,1.5063,0.3197
0.5573,0.4273,-0.8808,-0.3998,1.6319,0.5581,2.1714,0.5636,-1.0312,-0.7376,-0.3551,-0.3206,1.392,0.6226,1.5063,0.3197
0.6023,0.4299,-0.8226,-0.3945,1.7221,0.5698,2.2826,0.5846,-0.9784,-0.7181,-0.2669,-0.3139,1.4825,0.6364,1.6167,0.3326
0.6511,0.4499,-0.7641,-0.3892,1.8129,0.5814,2.3855,0.6021,-0.9253,-0.6986,-0.1889,-0.3111,1.5679,0.6292,1.6911,0.349
0.6511,0.4499,-0.7641,-0.3892,1.8129,0.5814,2.3855,0.6021,-0.9253,-0.6986,-0.1889,-0.3111,1.5679,0.6292,1.6911,0.349
0.6511,0.4499,-0.7641,-0.3892,1.8129,0.5814,2.3855,0.6021,-0.9253,-0.6986,-0.1889,-0.3111,1.5679,0.6292,1.6911,0.349
0.7049,0.4402,-0.727,-0.3828,1.8518,0.5968,2.468,0.5999,-0.937,-0.6816,-0.1321,-0.316,1.5841,0.635,1.749,0.3523
0.7049,0.4402,-0.727,-0.3828,1.8518,0.5968,2.468,0.5999,-0.937,-0.6816,-0.1321,-0.316,1.5841,0.635,1.749,0.3523
0.7049,0.4402,-0.727,-0.3828,1.8518,0.5968,2.468,0.5999,-0.937,-0.6816,-0.1321,-0.316,1.5841,0.635,1.749,0.3523
0.7172,0.4452,-0.6916,-0.3888,1.8713,0.6046,2.4954,0.6105,-0.9253,-0.6986,-0.1036,-0.3184,1.6108,0.6255,1.7702,0.3591
0.7172,0.4452,-0.6916,-0.3888,1.8713,0.6046,2.4954,0.6105,-0.9253,-0.6986,-0.1036,-0.3184,1.6108,0.6255,1.7702,0.3591
0.7589,0.4304,-0.67,-0.39,1.8055,0.6278,2.517,0.5961,-0.8484,-0.7129,-0.0783,-0.2969,1.627,0.6313,1.7773,0.3614
0.7589,0.4304,-0.67,-0.39,1.8055,0.6278,2.517,0.5961,-0.8484,-0.7129,-0.0783,-0.2969,1.627,0.6313,1.7773,0.3614
0.7589,0.4304,-0.67,-0.39,1.8055,0.6278,2.517,0.5961,-0.8484,-0.7129,-0.0783,-0.2969,1.627,0.6313,1.7773,0.3614
0.738,0.4378,-0.676,-0.3814,1.8189,0.6085,2.5141,0.5836,-0.878,-0.7025,-0.0961,-0.2906,1.6376,0.6161,1.779,0.3465
0.738,0.4378,-0.676,-0.3814,1.8189,0.6085,2.5141,0.5836,-0.878,-0.7025,-0.0961,-0.2906,1.6376,0.6161,1.779,0.3465
0.7295,0.4502,-0.67,-0.39,1.7995,0.6007,2.5049,0.5801,-0.878,-0.7025,-0.1138,-0.2843,1.6481,0.6009,1.7534,0.346
0.7295,0.4502,-0.67,-0.39,1.7995,0.6007,2.5049,0.5801,-0.878,-0.7025,-0.1138,-0.2843,1.6481,0.6009,1.7534,0.346
0.7295,0.4502,-0.67,-0.39,1.8129,0.5814,2.4804,0.582,-0.8662,-0.7194,-0.1246,-0.2882,1.6481,0.6009,1.7393,0.3415
0.7295,0.4502,-0.67,-0.39,1.8129,0.5814,2.4804,0.582,-0.8662,-0.7194,-0.1246,-0.2882,1.6481,0.6009,1.7393,0.3415
0.6963,0.4525,-0.664,-0.3986,1.7608,0.5852,2.4405,0.5894,-0.8662,-0.7194,-0.1423,-0.2819,1.6749,0.5914,1.7367,0.3329
0.6963,0.4525,-0.664,-0.3986,1.7608,0.5852,2.4405,0.5894,-0.8662,-0.7194,-0.1423,-0.2819,1.6749,0.5914,1.7367,0.3329
0.6841,0.4475,-0.664,-0.3986,1.7147,0.6161,2.4252,0.5948,-0.8662,-0.7194,-0.1353,-0.292,1.6644,0.6066,1.7367,0.3329
0.6841,0.4475,-0.664,-0.3986,1.7147,0.6161,2.4252,0.5948,-0.8662,-0.7194,-0.1353,-0.292,1.6644,0.6066,1.7367,0.3329
0.6963,0.4525,-0.6483,-0.3911,1.7013,0.6354,2.4405,0.5894,-0.7953,-0.7573,-0.1353,-0.292,1.6538,0.6219,1.7367,0.3329
0.6963,0.4525,-0.6483,-0.3911,1.7013,0.6354,2.4405,0.5894,-0.7953,-0.7573,-0.1353,-0.292,1.6538,0.6219,1.7367,0.3329
0.7258,0.4328,-0.6405,-0.3874,1.682,0.6276,2.4405,0.5894,-0.7774,-0.7508,-0.1423,-0.2819,1.6538,0.6219,1.7551,0.3311
0.7258,0.4328,-0.6405,-0.3874,1.682,0.6276,2.4405,0.5894,-0.7774,-0.7508,-0.1423,-0.2819,1.6538,0.6219,1.7551,0.3311
0.7172,0.4452,-0.6326,-0.3836,1.682,0.6276,2.4405,0.5894,-0.7415,-0.7379,-0.1316,-0.2781,1.6806,0.6124,1.7921,0.3276
0.738,0.4378,-0.6326,-0.3836,1.7147,0.6161,2.4467,0.5804,-0.7651,-0.7039,-0.1316,-0.2781,1.6538,0.6219,1.7921,0.3276
0.738,0.4378,-0.6326,-0.3836,1.7147,0.6161,2.4467,0.5804,-0.7651,-0.7039,-0.1316,-0.2781,1.6538,0.6219,1.7921,0.3276
0.7503,0.4428,-0.6308,-0.3713,1.7801,0.593,2.4559,0.5839,-0.7769,-0.6869,-0.1316,-0.2781,1.6538,0.6219,1.7921,0.3276
0.7503,0.4428,-0.6308,-0.3713,1.7801,0.593,2.4559,0.5839,-0.7769,-0.6869,-0.1316,-0.2781,1.6538,0.6219,1.7921,0.3276
0.7503,0.4428,-0.6308,-0.3713,1.7801,0.593,2.4559,0.5839,-0.7769,-0.6869,-0.1316,-0.2781,1.6538,0.6219,1.7921,0.3276
0.7503,0.4428,-0.6386,-0.375,1.7801,0.593,2.4467,0.5804,-0.8066,-0.6764,-0.1246,-0.2882,1.6376,0.6161,1.7806,0.3316
0.7503,0.4428,-0.6386,-0.375,1.7801,0.593,2.4467,0.5804,-0.8066,-0.6764,-0.1246,-0.2882,1.6376,0.6161,1.7806,0.3316
0.7503,0.4428,-0.6386,-0.375,1.7801,0.593,2.4467,0.5804,-0.8066,-0.6764,-0.1246,-0.2882,1.6376,0.6161,1.7806,0.3316
0.7503,0.4428,-0.6326,-0.3836,1.7801,0.593,2.4132,0.5788,-0.8127,-0.6999,-0.1036,-0.3184,1.6052,0.6046,1.748,0.3289
0.7295,0.4502,-0.6465,-0.3788,1.7474,0.6045,2.3888,0.5807,-0.8009,-0.7169,-0.1144,-0.3222,1.5785,0.614,1.7112,0.3324
0.7589,0.4304,-0.6405,-0.3874,1.7147,0.6161,2.3615,0.5701,-0.7891,-0.7339,-0.1428,-0.3198,1.5623,0.6082,1.6901,0.3256
0.7589,0.4304,-0.6405,-0.3874,1.7147,0.6161,2.3615,0.5701,-0.7891,-0.7339,-0.1428,-0.3198,1.5623,0.6082,1.6901,0.3256
0.7589,0.4304,-0.6405,-0.3874,1.7147,0.6161,2.3615,0.5701,-0.7891,-0.7339,-0.1428,-0.3198,1.5623,0.6082,1.6901,0.3256
0.7466,0.4255,-0.6483,-0.3911,1.6954,0.6083,2.3434,0.5631,-0.7891,-0.7339,-0.1675,-0.3034,1.5196,0.6119,1.6647,0.3251
0.7466,0.4255,-0.6483,-0.3911,1.6954,0.6083,2.3434,0.5631,-0.7891,-0.7339,-0.1675,-0.3034,1.5196,0.6119,1.6647,0.3251
0.7466,0.4255,-0.67,-0.39,1.6436,0.6121,2.3315,0.5472,-0.8188,-0.7234,-0.1959,-0.301,1.5035,0.6061,1.6481,0.3121
0.7466,0.4255,-0.67,-0.39,1.6436,0.6121,2.3315,0.5472,-0.8188,-0.7234,-0.1959,-0.301,1.5035,0.6061,1.6481,0.3121
0.7466,0.4255,-0.67,-0.39,1.6436,0.6121,2.3315,0.5472,-0.8188,-0.7234,-0.1959,-0.301,1.5035,0.6061,1.6481,0.3121
0.7049,0.4402,-0.6778,-0.3937,1.6378,0.5851,2.2982,0.5455,-0.8188,-0.7234,-0.2136,-0.2948,1.5035,0.6061,1.6271,0.3053
0.6804,0.4302,-0.7072,-0.3963,1.6319,0.5581,2.2621,0.5315,-0.8366,-0.7299,-0.2526,-0.2962,1.5511,0.5664,1.5992,0.2963
0.6474,0.4326,-0.7091,-0.4086,1.5671,0.5811,2.2351,0.521,-0.8723,-0.7428,-0.2669,-0.3139,1.5294,0.5398,1.56,0.2913
0.6474,0.4326,-0.7091,-0.4086,1.5671,0.5811,2.2351,0.521,-0.8723,-0.7428,-0.2669,-0.3139,1.5294,0.5398,1.56,0.2913
0.623,0.4226,-0.7247,-0.4161,1.529,0.5656,2.1931,0.5159,-0.9195,-0.7389,-0.2882,-0.3215,1.5133,0.5341,1.5323,0.2823
0.623,0.4226,-0.7247,-0.4161,1.529,0.5656,2.1931,0.5159,-0.9195,-0.7389,-0.2882,-0.3215,1.5133,0.5341,1.5323,0.2823
0.623,0.4226,-0.7247,-0.4161,1.529,0.5656,2.1931,0.5159,-0.9195,-0.7389,-0.2882,-0.3215,1.5133,0.5341,1.5323,0.2823
0.6108,0.4176,-0.7265,-0.4284,1.51,0.5579,2.1511,0.5107,-0.9078,-0.7558,-0.3164,-0.3191,1.4604,0.5529,1.5002,0.2795
0.6108,0.4176,-0.7265,-0.4284,1.51,0.5579,2.1511,0.5107,-0.9078,-0.7558,-0.3164,-0.3191,1.4604,0.5529,1.5002,0.2795
0.6108,0.4176,-0.7265,-0.4284,1.51,0.5579,2.1511,0.5107,-0.9078,-0.7558,-0.3164,-0.3191,1.4604,0.5529,1.5002,0.2795
0.6071,0.4004,-0.754,-0.4187,1.491,0.5502,2.1032,0.5144,-0.9433,-0.7687,-0.3551,-0.3206,1.3756,0.5601,1.4726,0.2705
0.6071,0.4004,-0.754,-0.4187,1.491,0.5502,2.1032,0.5144,-0.9433,-0.7687,-0.3551,-0.3206,1.3756,0.5601,1.4726,0.2705
0.5828,0.3905,-0.797,-0.4165,1.4853,0.5234,2.0499,0.4934,-0.9903,-0.7648,-0.4147,-0.3297,1.2913,0.5671,1.4312,0.257
0.5828,0.3905,-0.797,-0.4165,1.4853,0.5234,2.0499,0.4934,-0.9903,-0.7648,-0.4147,-0.3297,1.2913,0.5671,1.4312,0.257
0.5706,0.3855,-0.8184,-0.4153,1.4531,0.5347,2.0023,0.497,-1.0664,-0.7506,-0.4463,-0.3411,1.2336,0.5649,1.377,0.2621
0.5706,0.3855,-0.8184,-0.4153,1.4531,0.5347,2.0023,0.497,-1.0664,-0.7506,-0.4463,-0.3411,1.2336,0.5649,1.377,0.2621
0.5585,0.3806,-0.8339,-0.4228,1.4531,0.5347,1.9609,0.4918,-1.0723,-0.7739,-0.4673,-0.3488,1.1917,0.5684,1.3453,0.2593
0.5585,0.3806,-0.8339,-0.4228,1.4531,0.5347,1.9609,0.4918,-1.0723,-0.7739,-0.4673,-0.3488,1.1917,0.5684,1.3453,0.2593
0.5585,0.3806,-0.8339,-0.4228,1.4531,0.5347,1.9609,0.4918,-1.0723,-0.7739,-0.4673,-0.3488,1.1917,0.5684,1.3453,0.2593
0.5585,0.3806,-0.828,-0.4313,1.4531,0.5347,1.9494,0.476,-1.1189,-0.77,-0.4883,-0.3564,1.1603,0.5568,1.318,0.2503
0.5585,0.3806,-0.828,-0.4313,1.4531,0.5347,1.9494,0.476,-1.1189,-0.77,-0.4883,-0.3564,1.1603,0.5568,1.318,0.2503
0.567,0.3683,-0.8494,-0.4302,1.4342,0.527,1.9169,0.4743,-1.1248,-0.7933,-0.5334,-0.3479,1.1187,0.5603,1.2864,0.2475
0.567,0.3683,-0.8494,-0.4302,1.4342,0.527,1.9169,0.4743,-1.1248,-0.7933,-0.5334,-0.3479,1.1187,0.5603,1.2864,0.2475
0.567,0.3683,-0.8494,-0.4302,1.4342,0.527,1.9169,0.4743,-1.1248,-0.7933,-0.5334,-0.3479,1.1187,0.5603,1.2864,0.2475
0.5343,0.3707,-0.8571,-0.434,1.3833,0.5307,1.9054,0.4586,-1.1248,-0.7933,-0.5681,-0.3357,1.0927,0.5695,1.2659,0.2407
0.5343,0.3707,-0.8571,-0.434,1.3833,0.5307,1.9054,0.4586,-1.1248,-0.7933,-0.5681,-0.3357,1.0927,0.5695,1.2659,0.2407
0.5343,0.3707,-0.8571,-0.434,1.3833,0.5307,1.9054,0.4586,-1.1248,-0.7933,-0.5681,-0.3357,1.0927,0.5695,1.2659,0.2407
0.4762,0.4096,-0.8862,-0.4366,1.3777,0.504,1.8764,0.436,-1.1597,-0.8061,-0.6269,-0.3449,1.046,0.5522,1.2005,0.2267
0.4762,0.4096,-0.8862,-0.4366,1.3777,0.504,1.8764,0.436,-1.1597,-0.8061,-0.6269,-0.3449,1.046,0.5522,1.2005,0.2267
0.4762,0.4096,-0.8862,-0.4366,1.3777,0.504,1.8764,0.436,-1.1597,-0.8061,-0.6269,-0.3449,1.046,0.5522,1.2005,0.2267
0.4641,0.4047,-0.9075,-0.4355,1.3589,0.4963,1.8441,0.4343,-1.1771,-0.8126,-0.6648,-0.3464,1.0408,0.5315,1.1735,0.2177
0.4641,0.4047,-0.9075,-0.4355,1.3589,0.4963,1.8441,0.4343,-1.1771,-0.8126,-0.6648,-0.3464,1.0408,0.5315,1.1735,0.2177
0.3955,0.392,-0.9671,-0.453,1.2709,0.4846,1.7123,0.4481,-1.2234,-0.8088,-0.713,-0.3518,0.9942,0.5143,1.1,0.2159
0.3955,0.392,-0.9671,-0.453,1.2709,0.4846,1.7123,0.4481,-1.2234,-0.8088,-0.713,-0.3518,0.9942,0.5143,1.1,0.2159
0.3835,0.3871,-0.9689,-0.4652,1.2522,0.477,1.6658,0.4515,-1.2523,-0.7986,-0.7336,-0.3595,0.953,0.5177,1.047,0.2208
0.3835,0.3871,-0.9689,-0.4652,1.2522,0.477,1.6658,0.4515,-1.2523,-0.7986,-0.7336,-0.3595,0.953,0.5177,1.047,0.2208
0.3835,0.3871,-0.9689,-0.4652,1.2522,0.477,1.6658,0.4515,-1.2523,-0.7986,-0.7336,-0.3595,0.953,0.5177,1.047,0.2208
0.3835,0.3871,-0.9689,-0.4652,1.2522,0.477,1.6658,0.4515,-1.2523,-0.7986,-0.7336,-0.3595,0.953,0.5177,1.047,0.2208
0.368,0.365,-0.9918,-0.4763,1.215,0.4617,1.6021,0.4479,-1.2696,-0.8051,-0.7474,-0.3769,0.8965,0.5153,0.9984,0.2195
0.368,0.365,-0.9918,-0.4763,1.215,0.4617,1.6021,0.4479,-1.2696,-0.8051,-0.7474,-0.3769,0.8965,0.5153,0.9984,0.2195
0.3476,0.3722,-1.0054,-0.4715,1.202,0.4805,1.5618,0.4426,-1.2466,-0.8383,-0.785,-0.3785,0.8556,0.5186,0.9608,0.2144
0.3476,0.3722,-1.0054,-0.4715,1.202,0.4805,1.5618,0.4426,-1.2466,-0.8383,-0.785,-0.3785,0.8556,0.5186,0.9608,0.2144
0.3357,0.3672,-1.0518,-0.4487,1.1834,0.4728,1.5302,0.4408,-1.2639,-0.8447,-0.8055,-0.3861,0.8147,0.5219,0.9408,0.2076
0.3357,0.3672,-1.0518,-0.4487,1.1834,0.4728,1.5302,0.4408,-1.2639,-0.8447,-0.8055,-0.3861,0.8147,0.5219,0.9408,0.2076
0.3357,0.3672,-1.0518,-0.4487,1.1834,0.4728,1.5302,0.4408,-1.2639,-0.8447,-0.8055,-0.3861,0.8147,0.5219,0.9408,0.2076
0.3596,0.3771,-1.0289,-0.4376,1.2709,0.4846,1.6021,0.4479,-1.2754,-0.8281,-0.785,-0.3785,0.8812,0.5095,0.9917,0.2173
0.3596,0.3771,-1.0289,-0.4376,1.2709,0.4846,1.6021,0.4479,-1.2754,-0.8281,-0.785,-0.3785,0.8812,0.5095,0.9917,0.2173
0.4039,0.3798,-0.9925,-0.4312,1.372,0.4774,1.7063,0.4568,-1.2581,-0.8217,-0.7199,-0.3792,0.9633,0.5029,1.0696,0.2359
0.4039,0.3798,-0.9925,-0.4312,1.372,0.4774,1.7063,0.4568,-1.2581,-0.8217,-0.7199,-0.3792,0.9633,0.5029,1.0696,0.2359
0.4039,0.3798,-0.9925,-0.4312,1.372,0.4774,1.7063,0.4568,-1.2581,-0.8217,-0.7199,-0.3792,0.9633,0.5029,1.0696,0.2359
0.469,0.3753,-0.9347,-0.4259,1.4474,0.508,1.8314,0.4848,-1.1945,-0.819,-0.6339,-0.3723,1.0511,0.5167,1.1725,0.2552
0.5258,0.3829,-0.8826,-0.412,1.5232,0.5388,1.9664,0.5163,-1.1423,-0.7997,-0.5334,-0.3479,1.1707,0.5419,1.2854,0.2851
0.6522,0.403,-0.7719,-0.393,1.6378,0.5851,2.2285,0.5635,-1.0315,-0.801,-0.4217,-0.3197,1.2913,0.5671,1.4105,0.3112
0.6522,0.403,-0.7719,-0.393,1.6378,0.5851,2.2285,0.5635,-1.0315,-0.801,-0.4217,-0.3197,1.2913,0.5671,1.4105,0.3112
0.6767,0.4129,-0.7348,-0.3866,1.657,0.5928,2.313,0.5739,-0.9786,-0.7816,-0.3478,-0.2929,1.3971,0.5866,1.5271,0.3265
0.6767,0.4129,-0.7348,-0.3866,1.657,0.5928,2.313,0.5739,-0.9786,-0.7816,-0.3478,-0.2929,1.3971,0.5866,1.5271,0.3265
0.6767,0.4129,-0.7348,-0.3866,1.657,0.5928,2.313,0.5739,-0.9786,-0.7816,-0.3478,-0.2929,1.3971,0.5866,1.5271,0.3265
0.7012,0.4229,-0.7114,-0.3754,1.7088,0.5891,2.3673,0.595,-0.9139,-0.7791,-0.2948,-0.2737,1.4875,0.6003,1.6054,0.3366
0.7012,0.4229,-0.7114,-0.3754,1.7088,0.5891,2.3673,0.595,-0.9139,-0.7791,-0.2948,-0.2737,1.4875,0.6003,1.6054,0.3366
0.7097,0.4105,-0.676,-0.3814,1.6762,0.6006,2.3855,0.6021,-0.8783,-0.7662,-0.2452,-0.2684,1.5462,0.6025,1.67,0.3422
0.7097,0.4105,-0.676,-0.3814,1.6762,0.6006,2.3855,0.6021,-0.8783,-0.7662,-0.2452,-0.2684,1.5462,0.6025,1.67,0.3422
0.6889,0.4179,-0.6483,-0.3911,1.6436,0.6121,2.3793,0.611,-0.8606,-0.7597,-0.2239,-0.2607,1.5785,0.614,1.6981,0.3513
0.6889,0.4179,-0.6483,-0.3911,1.6436,0.6121,2.3793,0.611,-0.8606,-0.7597,-0.2239,-0.2607,1.5785,0.614,1.6981,0.3513
0.7012,0.4229,-0.6266,-0.3923,1.6762,0.6006,2.3946,0.6056,-0.8427,-0.7533,-0.1955,-0.2631,1.5946,0.6198,1.7279,0.3455
0.7012,0.4229,-0.6266,-0.3923,1.6762,0.6006,2.3946,0.6056,-0.8427,-0.7533,-0.1955,-0.2631,1.5946,0.6198,1.7279,0.3455
0.7306,0.4032,-0.6188,-0.3885,1.657,0.5928,2.3917,0.5931,-0.7656,-0.7677,-0.1848,-0.2593,1.5629,0.6655,1.7236,0.3518
0.7306,0.4032,-0.6188,-0.3885,1.657,0.5928,2.3917,0.5931,-0.7656,-0.7677,-0.1848,-0.2593,1.5629,0.6655,1.7236,0.3518
0.7306,0.4032,-0.6386,-0.375,1.6244,0.6043,2.3735,0.5861,-0.7242,-0.7951,-0.1778,-0.2694,1.5735,0.6502,1.7209,0.3432
0.7306,0.4032,-0.6386,-0.375,1.6244,0.6043,2.3735,0.5861,-0.7242,-0.7951,-0.1778,-0.2694,1.5735,0.6502,1.7209,0.3432
0.7306,0.4032,-0.6386,-0.375,1.6244,0.6043,2.3735,0.5861,-0.7242,-0.7951,-0.1778,-0.2694,1.5735,0.6502,1.7209,0.3432
0.7183,0.3982,-0.6446,-0.3664,1.6053,0.5966,2.3554,0.579,-0.7242,-0.7951,-0.1955,-0.2631,1.5574,0.6444,1.7182,0.3347
0.7097,0.4105,-0.6446,-0.3664,1.6053,0.5966,2.3463,0.5755,-0.7539,-0.7847,-0.1885,-0.2732,1.5413,0.6386,1.7155,0.3261
0.7514,0.3958,-0.6229,-0.3675,1.6378,0.5851,2.3401,0.5844,-0.7774,-0.7508,-0.2062,-0.2669,1.5252,0.6328,1.7199,0.3198
0.7514,0.3958,-0.6229,-0.3675,1.6378,0.5851,2.3401,0.5844,-0.7774,-0.7508,-0.2062,-0.2669,1.5252,0.6328,1.7199,0.3198
0.7306,0.4032,-0.6229,-0.3675,1.6703,0.5736,2.3463,0.5755,-0.7953,-0.7573,-0.2169,-0.2708,1.5091,0.627,1.7199,0.3198
0.7306,0.4032,-0.6229,-0.3675,1.6703,0.5736,2.3463,0.5755,-0.7953,-0.7573,-0.2169,-0.2708,1.5091,0.627,1.7199,0.3198
0.7306,0.4032,-0.6229,-0.3675,1.6703,0.5736,2.3463,0.5755,-0.7953,-0.7573,-0.2169,-0.2708,1.5091,0.627,1.7199,0.3198
0.7306,0.4032,-0.6229,-0.3675,1.6703,0.5736,2.3463,0.5755,-0.7953,-0.7573,-0.2169,-0.2708,1.5091,0.627,1.7199,0.3198
0.7306,0.4032,-0.6091,-0.3724,1.6836,0.5544,2.3401,0.5844,-0.807,-0.7403,-0.1992,-0.277,1.5196,0.6119,1.7112,0.3324
0.7306,0.4032,-0.6091,-0.3724,1.6836,0.5544,2.3401,0.5844,-0.807,-0.7403,-0.1992,-0.277,1.5196,0.6119,1.7112,0.3324
0.7429,0.4081,-0.6012,-0.3687,1.6703,0.5736,2.3554,0.579,-0.8249,-0.7468,-0.1745,-0.2934,1.5035,0.6061,1.6954,0.3427
0.7723,0.3885,-0.5952,-0.3773,1.6703,0.5736,2.3554,0.579,-0.8249,-0.7468,-0.1461,-0.2958,1.493,0.6213,1.6911,0.349
0.7723,0.3885,-0.5952,-0.3773,1.6703,0.5736,2.3554,0.579,-0.8249,-0.7468,-0.1461,-0.2958,1.493,0.6213,1.6911,0.349
0.7846,0.3934,-0.5813,-0.3822,1.6378,0.5851,2.3554,0.579,-0.7953,-0.7573,-0.1353,-0.292,1.5035,0.6061,1.6954,0.3427
0.7846,0.3934,-0.5813,-0.3822,1.6378,0.5851,2.3554,0.579,-0.7953,-0.7573,-0.1353,-0.292,1.5035,0.6061,1.6954,0.3427
0.7846,0.3934,-0.5813,-0.3822,1.6378,0.5851,2.3615,0.5701,-0.8249,-0.7468,-0.1671,-0.2655,1.5035,0.6061,1.6841,0.3467
0.7846,0.3934,-0.5813,-0.3822,1.6378,0.5851,2.3615,0.5701,-0.8249,-0.7468,-0.1671,-0.2655,1.5035,0.6061,1.6841,0.3467
0.7552,0.4131,-0.5952,-0.3773,1.6053,0.5966,2.3525,0.5666,-0.8249,-0.7468,-0.1741,-0.2554,1.5196,0.6119,1.6884,0.3405
0.7552,0.4131,-0.5952,-0.3773,1.6053,0.5966,2.3525,0.5666,-0.8249,-0.7468,-0.1741,-0.2554,1.5196,0.6119,1.6884,0.3405
0.7306,0.4032,-0.5892,-0.386,1.5862,0.5888,2.3191,0.565,-0.807,-0.7403,-0.1634,-0.2516,1.5462,0.6025,1.6814,0.3382
0.7306,0.4032,-0.5892,-0.386,1.5862,0.5888,2.3191,0.565,-0.807,-0.7403,-0.1634,-0.2516,1.5462,0.6025,1.6814,0.3382
0.7183,0.3982,-0.5772,-0.4032,1.5613,0.5542,2.2768,0.5598,-0.8366,-0.7299,-0.1741,-0.2554,1.5301,0.5967,1.6717,0.3274
0.7183,0.3982,-0.5772,-0.4032,1.5613,0.5542,2.2768,0.5598,-0.8366,-0.7299,-0.1741,-0.2554,1.5301,0.5967,1.6717,0.3274
0.6938,0.3883,-0.5791,-0.4156,1.51,0.5579,2.2408,0.5457,-0.8249,-0.7468,-0.1955,-0.2631,1.5301,0.5967,1.6507,0.3206
0.6815,0.3834,-0.593,-0.4107,1.5232,0.5388,2.1987,0.5406,-0.8249,-0.7468,-0.2062,-0.2669,1.493,0.6213,1.6211,0.3264
0.6815,0.3834,-0.593,-0.4107,1.5232,0.5388,2.1987,0.5406,-0.8249,-0.7468,-0.2062,-0.2669,1.493,0.6213,1.6211,0.3264
0.6815,0.3834,-0.605,-0.3934,1.5555,0.5274,2.1808,0.5335,-0.8132,-0.7637,-0.2346,-0.2645,1.4665,0.6306,1.5888,0.3236
0.6815,0.3834,-0.605,-0.3934,1.5555,0.5274,2.1808,0.5335,-0.8132,-0.7637,-0.2346,-0.2645,1.4665,0.6306,1.5888,0.3236
0.6815,0.3834,-0.605,-0.3934,1.5555,0.5274,2.1808,0.5335,-0.8132,-0.7637,-0.2346,-0.2645,1.4665,0.6306,1.5888,0.3236
0.6693,0.3784,-0.6266,-0.3923,1.5365,0.5197,2.1478,0.5319,-0.8014,-0.7806,-0.2629,-0.2622,1.4239,0.6342,1.5722,0.3105
0.6693,0.3784,-0.6266,-0.3923,1.5365,0.5197,2.1478,0.5319,-0.8014,-0.7806,-0.2629,-0.2622,1.4239,0.6342,1.5722,0.3105
0.6656,0.3612,-0.6405,-0.3874,1.5175,0.512,2.106,0.5267,-0.8193,-0.7871,-0.2842,-0.2699,1.4185,0.6133,1.5627,0.2998
0.6571,0.3735,-0.6483,-0.3911,1.582,0.4892,2.0882,0.5197,-0.8667,-0.7831,-0.3406,-0.2651,1.3707,0.5959,1.5279,0.2885
0.6571,0.3735,-0.6483,-0.3911,1.582,0.4892,2.0882,0.5197,-0.8667,-0.7831,-0.3406,-0.2651,1.3707,0.5959,1.5279,0.2885
0.6571,0.3735,-0.6483,-0.3911,1.582,0.4892,2.0882,0.5197,-0.8667,-0.7831,-0.3406,-0.2651,1.3707,0.5959,1.5279,0.2885
0.6448,0.3685,-0.67,-0.39,1.5952,0.4702,2.0555,0.5179,-0.8961,-0.7727,-0.3442,-0.279,1.3548,0.5902,1.5071,0.2817
0.6448,0.3685,-0.67,-0.39,1.5952,0.4702,2.0555,0.5179,-0.8961,-0.7727,-0.3442,-0.279,1.3548,0.5902,1.5071,0.2817
0.6326,0.3636,-0.6856,-0.3975,1.5629,0.4816,2.0139,0.5127,-0.9493,-0.792,-0.3865,-0.2944,1.2913,0.5671,1.457,0.2807
0.6326,0.3636,-0.6856,-0.3975,1.5629,0.4816,2.0139,0.5127,-0.9493,-0.792,-0.3865,-0.2944,1.2913,0.5671,1.457,0.2807
0.6326,0.3636,-0.7072,-0.3963,1.4853,0.5234,1.9813,0.511,-1.0139,-0.7945,-0.4075,-0.302,1.2597,0.5556,1.4252,0.2779
0.6326,0.3636,-0.7072,-0.3963,1.4853,0.5234,1.9813,0.511,-1.0139,-0.7945,-0.4075,-0.302,1.2597,0.5556,1.4252,0.2779
0.6326,0.3636,-0.7228,-0.4038,1.4531,0.5347,1.9697,0.4952,-1.0315,-0.801,-0.4181,-0.3059,1.244,0.5499,1.3933,0.275
0.6326,0.3636,-0.7228,-0.4038,1.4531,0.5347,1.9697,0.4952,-1.0315,-0.801,-0.4181,-0.3059,1.244,0.5499,1.3933,0.275
0.6533,0.3563,-0.7228,-0.4038,1.421,0.5461,1.9758,0.4865,-1.0491,-0.8074,-0.4461,-0.3035,1.2125,0.5384,1.3684,0.2745
0.6326,0.3636,-0.7444,-0.4027,1.389,0.5574,1.9582,0.4795,-1.055,-0.8305,-0.474,-0.3012,1.1707,0.5419,1.3479,0.2677
0.6326,0.3636,-0.7444,-0.4027,1.389,0.5574,1.9582,0.4795,-1.055,-0.8305,-0.474,-0.3012,1.1707,0.5419,1.3479,0.2677
0.6326,0.3636,-0.7444,-0.4027,1.389,0.5574,1.9582,0.4795,-1.055,-0.8305,-0.474,-0.3012,1.1707,0.5419,1.3479,0.2677
0.5913,0.3782,-0.7659,-0.4015,1.3702,0.5497,1.9257,0.4778,-1.055,-0.8305,-0.4845,-0.3051,1.1707,0.5419,1.3342,0.2632
0.5913,0.3782,-0.7659,-0.4015,1.3702,0.5497,1.9257,0.4778,-1.055,-0.8305,-0.4845,-0.3051,1.1707,0.5419,1.3342,0.2632
0.5791,0.3733,-0.7677,-0.4138,1.3645,0.523,1.8933,0.4761,-1.0841,-0.8202,-0.5123,-0.3027,1.155,0.5362,1.2983,0.2666
0.5791,0.3733,-0.7677,-0.4138,1.3645,0.523,1.8933,0.4761,-1.0841,-0.8202,-0.5123,-0.3027,1.155,0.5362,1.2983,0.2666
0.5548,0.3634,-0.7696,-0.4261,1.3139,0.5266,1.8462,0.4795,-1.0841,-0.8202,-0.5471,-0.2905,1.155,0.5362,1.2735,0.266
0.5548,0.3634,-0.7696,-0.4261,1.3139,0.5266,1.8462,0.4795,-1.0841,-0.8202,-0.5471,-0.2905,1.155,0.5362,1.2735,0.266
0.5306,0.3535,-0.7773,-0.4299,1.2952,0.5189,1.8052,0.4743,-1.1017,-0.8267,-0.5679,-0.2982,1.1134,0.5396,1.2378,0.2693
0.5306,0.3535,-0.7773,-0.4299,1.2952,0.5189,1.8052,0.4743,-1.1017,-0.8267,-0.5679,-0.2982,1.1134,0.5396,1.2378,0.2693
0.498,0.3558,-0.8125,-0.4239,1.2896,0.4923,1.7791,0.4638,-1.0494,-0.8703,-0.5714,-0.312,1.0719,0.543,1.2106,0.2603
0.498,0.3558,-0.8125,-0.4239,1.2896,0.4923,1.7791,0.4638,-1.0494,-0.8703,-0.5714,-0.312,1.0719,0.543,1.2106,0.2603
0.4738,0.346,-0.8398,-0.4142,1.2392,0.4958,1.7383,0.4586,-1.067,-0.8766,-0.5922,-0.3196,1.0304,0.5464,1.1835,0.2513
0.4738,0.346,-0.8398,-0.4142,1.2392,0.4958,1.7383,0.4586,-1.067,-0.8766,-0.5922,-0.3196,1.0304,0.5464,1.1835,0.2513
0.4738,0.346,-0.8535,-0.4094,1.2392,0.4958,1.7063,0.4568,-1.067,-0.8766,-0.6199,-0.3174,1.0149,0.5407,1.1632,0.2445
0.4738,0.346,-0.8535,-0.4094,1.2392,0.4958,1.7063,0.4568,-1.067,-0.8766,-0.6199,-0.3174,1.0149,0.5407,1.1632,0.2445
0.4738,0.346,-0.8535,-0.4094,1.2392,0.4958,1.7063,0.4568,-1.067,-0.8766,-0.6199,-0.3174,1.0149,0.5407,1.1632,0.2445
0.4449,0.3654,-0.8535,-0.4094,1.2709,0.4846,1.6977,0.4533,-1.096,-0.8664,-0.651,-0.3289,0.9479,0.5531,1.1362,0.2355
0.4449,0.3654,-0.8535,-0.4094,1.2709,0.4846,1.6977,0.4533,-1.096,-0.8664,-0.651,-0.3289,0.9479,0.5531,1.1362,0.2355
0.4449,0.3654,-0.8535,-0.4094,1.2709,0.4846,1.6977,0.4533,-1.096,-0.8664,-0.651,-0.3289,0.9479,0.5531,1.1362,0.2355
0.4859,0.3509,-0.8321,-0.4105,1.3663,0.4509,1.741,0.4708,-1.2234,-0.8088,-0.6889,-0.3304,0.9067,0.5564,1.105,0.2326
0.498,0.3558,-0.8029,-0.4079,1.4359,0.4548,1.8166,0.49,-1.235,-0.7921,-0.6614,-0.3327,0.9736,0.544,1.1387,0.2439
0.498,0.3558,-0.8029,-0.4079,1.4359,0.4548,1.8166,0.49,-1.235,-0.7921,-0.6614,-0.3327,0.9736,0.544,1.1387,0.2439
0.498,0.3558,-0.8029,-0.4079,1.4359,0.4548,1.8166,0.49,-1.235,-0.7921,-0.6614,-0.3327,0.9736,0.544,1.1387,0.2439
0.5633,0.3512,-0.7581,-0.3978,1.4927,0.4777,1.9251,0.511,-1.2119,-0.8254,-0.6061,-0.3372,1.0304,0.5464,1.1885,0.2681
0.5633,0.3512,-0.7581,-0.3978,1.4927,0.4777,1.9251,0.511,-1.2119,-0.8254,-0.6061,-0.3372,1.0304,0.5464,1.1885,0.2681
0.6204,0.3587,-0.6994,-0.3926,1.5365,0.5197,2.0433,0.5355,-1.1771,-0.8126,-0.509,-0.3265,1.1187,0.5603,1.2922,0.2874
0.6778,0.3662,-0.6603,-0.3739,1.5804,0.5619,2.1535,0.5565,-1.0726,-0.8369,-0.4286,-0.3097,1.2232,0.5799,1.3856,0.3106
0.6778,0.3662,-0.6603,-0.3739,1.5804,0.5619,2.1535,0.5565,-1.0726,-0.8369,-0.4286,-0.3097,1.2232,0.5799,1.3856,0.3106
0.7146,0.381,-0.6151,-0.3638,1.6186,0.5773,2.2617,0.5651,-0.973,-0.8216,-0.3512,-0.269,1.318,0.6146,1.4907,0.3299
0.7146,0.381,-0.6151,-0.3638,1.6186,0.5773,2.2617,0.5651,-0.973,-0.8216,-0.3512,-0.269,1.318,0.6146,1.4907,0.3299
0.7146,0.381,-0.6151,-0.3638,1.6186,0.5773,2.2617,0.5651,-0.973,-0.8216,-0.3512,-0.269,1.318,0.6146,1.4907,0.3299
0.7476,0.3786,-0.5854,-0.3612,1.6511,0.5659,2.322,0.5774,-0.8905,-0.8127,-0.2769,-0.242,1.408,0.6284,1.601,0.3429
0.7476,0.3786,-0.5854,-0.3612,1.6511,0.5659,2.322,0.5774,-0.8905,-0.8127,-0.2769,-0.242,1.408,0.6284,1.601,0.3429
0.7514,0.3958,-0.5419,-0.3635,1.6703,0.5736,2.3673,0.595,-0.855,-0.7999,-0.2342,-0.2265,1.5196,0.6119,1.6657,0.3485
0.7514,0.3958,-0.5419,-0.3635,1.6703,0.5736,2.3673,0.595,-0.855,-0.7999,-0.2342,-0.2265,1.5196,0.6119,1.6657,0.3485
0.7514,0.3958,-0.5419,-0.3635,1.6703,0.5736,2.3673,0.595,-0.855,-0.7999,-0.2342,-0.2265,1.5196,0.6119,1.6657,0.3485
0.7723,0.3885,-0.514,-0.3733,1.6703,0.5736,2.3764,0.5985,-0.8371,-0.7935,-0.1952,-0.225,1.589,0.5988,1.7165,0.3495
0.7723,0.3885,-0.514,-0.3733,1.6703,0.5736,2.3764,0.5985,-0.8371,-0.7935,-0.1952,-0.225,1.589,0.5988,1.7165,0.3495
0.7685,0.3712,-0.4861,-0.3832,1.6186,0.5773,2.3521,0.6004,-0.8193,-0.7871,-0.1597,-0.2376,1.5679,0.6292,1.7376,0.3563
0.7685,0.3712,-0.4861,-0.3832,1.6186,0.5773,2.3521,0.6004,-0.8193,-0.7871,-0.1597,-0.2376,1.5679,0.6292,1.7376,0.3563
0.7562,0.3663,-0.4861,-0.3832,1.6186,0.5773,2.3339,0.5933,-0.7718,-0.7911,-0.1489,-0.2337,1.5574,0.6444,1.7376,0.3563
0.7562,0.3663,-0.4861,-0.3832,1.6186,0.5773,2.3339,0.5933,-0.7718,-0.7911,-0.1489,-0.2337,1.5574,0.6444,1.7376,0.3563
0.7562,0.3663,-0.4861,-0.3832,1.6186,0.5773,2.3339,0.5933,-0.7718,-0.7911,-0.1489,-0.2337,1.5574,0.6444,1.7376,0.3563
0.7599,0.3835,-0.4922,-0.3745,1.6186,0.5773,2.3249,0.5898,-0.7601,-0.808,-0.1667,-0.2274,1.5041,0.6633,1.735,0.3478
0.7599,0.3835,-0.4922,-0.3745,1.6186,0.5773,2.3249,0.5898,-0.7601,-0.808,-0.1667,-0.2274,1.5041,0.6633,1.735,0.3478
0.7514,0.3958,-0.4922,-0.3745,1.6511,0.5659,2.3097,0.5952,-0.778,-0.8144,-0.1811,-0.2453,1.472,0.6516,1.7296,0.3307
0.7514,0.3958,-0.4922,-0.3745,1.6511,0.5659,2.3006,0.5916,-0.8076,-0.8039,-0.1988,-0.239,1.4559,0.6458,1.7112,0.3324
0.7514,0.3958,-0.4922,-0.3745,1.6511,0.5659,2.3006,0.5916,-0.8076,-0.8039,-0.1988,-0.239,1.4559,0.6458,1.7112,0.3324
0.7723,0.3885,-0.4922,-0.3745,1.6511,0.5659,2.2916,0.5881,-0.8076,-0.8039,-0.1811,-0.2453,1.4665,0.6306,1.6954,0.3427
0.7723,0.3885,-0.4922,-0.3745,1.6511,0.5659,2.2916,0.5881,-0.8076,-0.8039,-0.1811,-0.2453,1.4665,0.6306,1.6954,0.3427
0.7723,0.3885,-0.4922,-0.3745,1.6511,0.5659,2.2916,0.5881,-0.8076,-0.8039,-0.1811,-0.2453,1.4665,0.6306,1.6954,0.3427
0.814,0.3737,-0.4782,-0.3794,1.6319,0.5581,2.3006,0.5916,-0.8076,-0.8039,-0.1634,-0.2516,1.4665,0.6306,1.7068,0.3387
0.814,0.3737,-0.4782,-0.3794,1.6319,0.5581,2.3006,0.5916,-0.8076,-0.8039,-0.1634,-0.2516,1.4665,0.6306,1.7068,0.3387
0.814,0.3737,-0.4782,-0.3794,1.6319,0.5581,2.3006,0.5916,-0.8076,-0.8039,-0.1634,-0.2516,1.4665,0.6306,1.7068,0.3387
0.8179,0.391,-0.4623,-0.372,1.6511,0.5659,2.3311,0.5809,-0.8076,-0.8039,-0.1526,-0.2477,1.493,0.6213,1.7068,0.3387
0.8179,0.391,-0.4623,-0.372,1.6511,0.5659,2.3311,0.5809,-0.8076,-0.8039,-0.1526,-0.2477,1.493,0.6213,1.7068,0.3387
0.8179,0.391,-0.4623,-0.372,1.6511,0.5659,2.3311,0.5809,-0.8076,-0.8039,-0.1526,-0.2477,1.493,0.6213,1.7068,0.3387
0.7969,0.3983,-0.4563,-0.3806,1.6319,0.5581,2.322,0.5774,-0.7601,-0.808,-0.1382,-0.2299,1.5091,0.627,1.7252,0.3369
0.7969,0.3983,-0.4563,-0.3806,1.6319,0.5581,2.322,0.5774,-0.7601,-0.808,-0.1382,-0.2299,1.5091,0.627,1.7252,0.3369
0.7846,0.3934,-0.4503,-0.3893,1.6261,0.5313,2.313,0.5739,-0.7897,-0.7975,-0.1382,-0.2299,1.5729,0.593,1.7252,0.3369
0.7846,0.3934,-0.4503,-0.3893,1.6261,0.5313,2.313,0.5739,-0.7897,-0.7975,-0.1382,-0.2299,1.5729,0.593,1.7252,0.3369
0.7723,0.3885,-0.4443,-0.398,1.6069,0.5236,2.2949,0.5668,-0.778,-0.8144,-0.1489,-0.2337,1.5462,0.6025,1.7182,0.3347
0.7723,0.3885,-0.4443,-0.398,1.6069,0.5236,2.2949,0.5668,-0.778,-0.8144,-0.1489,-0.2337,1.5462,0.6025,1.7182,0.3347
0.7723,0.3885,-0.4503,-0.3893,1.5937,0.5427,2.2859,0.5633,-0.7959,-0.8208,-0.1597,-0.2376,1.5091,0.627,1.7155,0.3261
0.7723,0.3885,-0.4503,-0.3893,1.5937,0.5427,2.2859,0.5633,-0.7959,-0.8208,-0.1597,-0.2376,1.5091,0.627,1.7155,0.3261
0.7514,0.3958,-0.4642,-0.3844,1.5613,0.5542,2.2527,0.5616,-0.7959,-0.8208,-0.1881,-0.2352,1.4825,0.6364,1.7015,0.3216
0.7514,0.3958,-0.4642,-0.3844,1.5613,0.5542,2.2527,0.5616,-0.7959,-0.8208,-0.1881,-0.2352,1.4825,0.6364,1.7015,0.3216
0.7599,0.3835,-0.4861,-0.3832,1.5746,0.5351,2.2257,0.5511,-0.7843,-0.8376,-0.1988,-0.239,1.4665,0.6306,1.6761,0.3211
0.7599,0.3835,-0.4861,-0.3832,1.5746,0.5351,2.2257,0.5511,-0.7843,-0.8376,-0.1988,-0.239,1.4665,0.6306,1.6761,0.3211
0.7599,0.3835,-0.4861,-0.3832,1.5746,0.5351,2.2257,0.5511,-0.7843,-0.8376,-0.1988,-0.239,1.4665,0.6306,1.6761,0.3211
0.7599,0.3835,-0.4861,-0.3832,1.5746,0.5351,2.2257,0.5511,-0.7843,-0.8376,-0.1988,-0.239,1.4665,0.6306,1.6761,0.3211
0.7391,0.3909,-0.508,-0.382,1.5746,0.5351,2.1869,0.5247,-0.8021,-0.844,-0.2486,-0.2444,1.408,0.6284,1.6384,0.3013
0.7391,0.3909,-0.508,-0.382,1.5746,0.5351,2.1869,0.5247,-0.8021,-0.844,-0.2486,-0.2444,1.408,0.6284,1.6384,0.3013
0.7354,0.3736,-0.5239,-0.3895,1.5878,0.5159,2.154,0.523,-0.8789,-0.8295,-0.2559,-0.2722,1.3761,0.6168,1.5948,0.3026
0.7354,0.3736,-0.5239,-0.3895,1.5878,0.5159,2.154,0.523,-0.8789,-0.8295,-0.2559,-0.2722,1.3761,0.6168,1.5948,0.3026
0.7354,0.3736,-0.5239,-0.3895,1.5878,0.5159,2.154,0.523,-0.8789,-0.8295,-0.2559,-0.2722,1.3761,0.6168,1.5948,0.3026
0.7439,0.3613,-0.5457,-0.3883,1.5232,0.5388,2.1211,0.5214,-0.9144,-0.8423,-0.2948,-0.2737,1.318,0.6146,1.56,0.2913
0.7439,0.3613,-0.5457,-0.3883,1.5232,0.5388,2.1211,0.5214,-0.9144,-0.8423,-0.2948,-0.2737,1.318,0.6146,1.56,0.2913
0.7108,0.3638,-0.5832,-0.3946,1.4399,0.5538,2.0765,0.5039,-0.9614,-0.8384,-0.323,-0.2713,1.2863,0.603,1.5071,0.2817
0.7108,0.3638,-0.5832,-0.3946,1.4399,0.5538,2.0765,0.5039,-0.9614,-0.8384,-0.323,-0.2713,1.2863,0.603,1.5071,0.2817
0.69,0.3711,-0.5851,-0.4069,1.421,0.5461,2.0377,0.5109,-0.979,-0.8448,-0.3512,-0.269,1.2809,0.5822,1.4752,0.279
0.69,0.3711,-0.5851,-0.4069,1.421,0.5461,2.0377,0.5109,-0.979,-0.8448,-0.3512,-0.269,1.2809,0.5822,1.4752,0.279
0.69,0.3711,-0.5851,-0.4069,1.421,0.5461,2.0377,0.5109,-0.979,-0.8448,-0.3512,-0.269,1.2809,0.5822,1.4752,0.279
0.6656,0.3612,-0.5949,-0.423,1.3833,0.5307,2.0112,0.5005,-1.0083,-0.8344,-0.3898,-0.2705,1.2755,0.5614,1.4432,0.2762
0.6656,0.3612,-0.5949,-0.423,1.3833,0.5307,2.0112,0.5005,-1.0083,-0.8344,-0.3898,-0.2705,1.2755,0.5614,1.4432,0.2762
0.6533,0.3563,-0.6027,-0.4267,1.3645,0.523,1.9786,0.4987,-1.0259,-0.8408,-0.4109,-0.2782,1.2336,0.5649,1.4226,0.2694
0.6533,0.3563,-0.6027,-0.4267,1.3645,0.523,1.9786,0.4987,-1.0259,-0.8408,-0.4109,-0.2782,1.2336,0.5649,1.4226,0.2694
0.6496,0.3391,-0.6106,-0.4304,1.3458,0.5153,1.946,0.497,-1.0143,-0.8575,-0.432,-0.2859,1.1813,0.5833,1.3908,0.2666
0.6496,0.3391,-0.6106,-0.4304,1.3458,0.5153,1.946,0.497,-1.0143,-0.8575,-0.432,-0.2859,1.1813,0.5833,1.3908,0.2666
0.6496,0.3391,-0.6106,-0.4304,1.3458,0.5153,1.946,0.497,-1.0143,-0.8575,-0.432,-0.2859,1.1813,0.5833,1.3908,0.2666
0.6496,0.3391,-0.6106,-0.4304,1.3458,0.5153,1.946,0.497,-1.0143,-0.8575,-0.432,-0.2859,1.1813,0.5833,1.3908,0.2666
0.6167,0.3415,-0.6461,-0.4244,1.3589,0.4963,1.9048,0.4918,-1.0027,-0.8742,-0.4704,-0.2874,1.1396,0.5868,1.3522,0.2615
0.6167,0.3415,-0.6461,-0.4244,1.3589,0.4963,1.9048,0.4918,-1.0027,-0.8742,-0.4704,-0.2874,1.1396,0.5868,1.3522,0.2615
0.6167,0.3415,-0.6461,-0.4244,1.3589,0.4963,1.9048,0.4918,-1.0027,-0.8742,-0.4704,-0.2874,1.1396,0.5868,1.3522,0.2615
0.5755,0.3561,-0.6618,-0.4318,1.372,0.4774,1.8724,0.49,-1.0319,-0.8639,-0.4914,-0.2951,1.1083,0.5752,1.3205,0.2587
0.5755,0.3561,-0.6618,-0.4318,1.372,0.4774,1.8724,0.49,-1.0319,-0.8639,-0.4914,-0.2951,1.1083,0.5752,1.3205,0.2587
0.5633,0.3512,-0.6834,-0.4307,1.3401,0.4887,1.8462,0.4795,-1.061,-0.8536,-0.495,-0.3089,1.0615,0.5579,1.2889,0.2559
0.5718,0.339,-0.6912,-0.4344,1.327,0.5076,1.8227,0.4813,-1.096,-0.8664,-0.5159,-0.3166,1.0201,0.5613,1.2531,0.2592
0.5718,0.339,-0.6912,-0.4344,1.327,0.5076,1.8227,0.4813,-1.096,-0.8664,-0.5159,-0.3166,1.0201,0.5613,1.2531,0.2592
0.5802,0.3268,-0.7068,-0.4418,1.2952,0.5189,1.7818,0.476,-1.1599,-0.8689,-0.5368,-0.3242,0.9994,0.5349,1.2149,0.2541
0.5802,0.3268,-0.7068,-0.4418,1.2952,0.5189,1.7818,0.476,-1.1599,-0.8689,-0.5368,-0.3242,0.9994,0.5349,1.2149,0.2541
0.5802,0.3268,-0.7068,-0.4418,1.2952,0.5189,1.7818,0.476,-1.1599,-0.8689,-0.5368,-0.3242,0.9994,0.5349,1.2149,0.2541
0.5887,0.3146,-0.7481,-0.4273,1.2633,0.5301,1.7644,0.469,-1.1773,-0.8753,-0.5576,-0.3319,0.9324,0.5474,1.1767,0.249
0.5887,0.3146,-0.7481,-0.4273,1.2633,0.5301,1.7644,0.469,-1.1773,-0.8753,-0.5576,-0.3319,0.9324,0.5474,1.1767,0.249
0.5802,0.3268,-0.7421,-0.4358,1.2765,0.5112,1.7704,0.4604,-1.1658,-0.8919,-0.5991,-0.3097,0.917,0.5416,1.1564,0.2423
0.5597,0.334,-0.7499,-0.4395,1.2896,0.4923,1.7791,0.4638,-1.1832,-0.8982,-0.6164,-0.3036,0.8914,0.5507,1.1429,0.2378
0.5597,0.334,-0.7499,-0.4395,1.2896,0.4923,1.7791,0.4638,-1.1832,-0.8982,-0.6164,-0.3036,0.8914,0.5507,1.1429,0.2378
0.5718,0.339,-0.7206,-0.437,1.3533,0.4698,1.8375,0.4761,-1.2006,-0.9046,-0.6268,-0.3074,0.9273,0.5268,1.1607,0.2361
0.5718,0.339,-0.7206,-0.437,1.3533,0.4698,1.8375,0.4761,-1.2006,-0.9046,-0.6268,-0.3074,0.9273,0.5268,1.1607,0.2361
0.5718,0.339,-0.7206,-0.437,1.3533,0.4698,1.8375,0.4761,-1.2006,-0.9046,-0.6268,-0.3074,0.9273,0.5268,1.1607,0.2361
0.6289,0.3464,-0.6263,-0.4379,1.4606,0.489,2.0344,0.532,-1.131,-0.8791,-0.5088,-0.2889,1.1394,0.5304,1.3162,0.2649
0.6289,0.3464,-0.6263,-0.4379,1.4606,0.489,2.0344,0.532,-1.131,-0.8791,-0.5088,-0.2889,1.1394,0.5304,1.3162,0.2649
0.6289,0.3464,-0.6263,-0.4379,1.4606,0.489,2.0344,0.532,-1.131,-0.8791,-0.5088,-0.2889,1.1394,0.5304,1.3162,0.2649
0.6948,0.3416,-0.5593,-0.4291,1.5175,0.512,2.1535,0.5565,-1.067,-0.8766,-0.4214,-0.282,1.2336,0.5649,1.4165,0.2903
0.6948,0.3416,-0.5593,-0.4291,1.5175,0.512,2.1535,0.5565,-1.067,-0.8766,-0.4214,-0.282,1.2336,0.5649,1.4165,0.2903
0.7609,0.3368,-0.5059,-0.4154,1.5878,0.5159,2.2735,0.5811,-0.9851,-0.8678,-0.323,-0.2713,1.3284,0.5995,1.5401,0.3077
0.7609,0.3368,-0.5059,-0.4154,1.5878,0.5159,2.2735,0.5811,-0.9851,-0.8678,-0.323,-0.2713,1.3284,0.5995,1.5401,0.3077
0.7979,0.3515,-0.4662,-0.3968,1.6128,0.5504,2.3611,0.6039,-0.8556,-0.8631,-0.2132,-0.2568,1.4504,0.6249,1.6534,0.3291
0.8226,0.3614,-0.4204,-0.3868,1.6644,0.5467,2.4373,0.6108,-0.7905,-0.8608,-0.1419,-0.2439,1.5146,0.648,1.7692,0.3357
0.8226,0.3614,-0.4204,-0.3868,1.6644,0.5467,2.4373,0.6108,-0.7905,-0.8608,-0.1419,-0.2439,1.5146,0.648,1.7692,0.3357
0.8683,0.3638,-0.3684,-0.3855,1.7029,0.5621,2.4984,0.623,-0.7664,-0.8312,-0.0918,-0.2386,1.5629,0.6655,1.8487,0.3456
0.8683,0.3638,-0.3684,-0.3855,1.7029,0.5621,2.4984,0.623,-0.7664,-0.8312,-0.0918,-0.2386,1.5629,0.6655,1.8487,0.3456
0.8683,0.3638,-0.3684,-0.3855,1.7029,0.5621,2.4984,0.623,-0.7664,-0.8312,-0.0918,-0.2386,1.5629,0.6655,1.8487,0.3456
0.8721,0.3811,-0.3383,-0.383,1.7221,0.5698,2.5321,0.6247,-0.7601,-0.808,-0.0416,-0.2333,1.5791,0.6713,1.9117,0.3425
0.8721,0.3811,-0.3383,-0.383,1.7221,0.5698,2.5321,0.6247,-0.7601,-0.808,-0.0416,-0.2333,1.5791,0.6713,1.9117,0.3425
0.8636,0.3935,-0.3303,-0.3792,1.7548,0.5583,2.5413,0.6282,-0.7539,-0.7847,-0.0199,-0.2256,1.5953,0.6771,1.9561,0.3411
0.8636,0.3935,-0.3303,-0.3792,1.7548,0.5583,2.5413,0.6282,-0.7539,-0.7847,-0.0199,-0.2256,1.5953,0.6771,1.9561,0.3411
0.8721,0.3811,-0.3162,-0.3842,1.7548,0.5583,2.5413,0.6282,-0.736,-0.7782,-0.0091,-0.2218,1.622,0.6676,1.966,0.352
0.8721,0.3811,-0.3162,-0.3842,1.7548,0.5583,2.5413,0.6282,-0.736,-0.7782,-0.0091,-0.2218,1.622,0.6676,1.966,0.352
0.8931,0.3737,-0.3021,-0.3892,1.7414,0.5775,2.5167,0.6301,-0.7539,-0.7847,-0.002,-0.2319,1.6164,0.6466,1.9429,0.3601
0.8931,0.3737,-0.3021,-0.3892,1.7414,0.5775,2.5167,0.6301,-0.7539,-0.7847,-0.002,-0.2319,1.6164,0.6466,1.9429,0.3601
0.9141,0.3663,-0.3021,-0.3892,1.6954,0.6083,2.5138,0.6176,-0.7718,-0.7911,-0.0129,-0.2358,1.5735,0.6502,1.9171,0.3597
0.9141,0.3663,-0.3021,-0.3892,1.6954,0.6083,2.5138,0.6176,-0.7718,-0.7911,-0.0129,-0.2358,1.5735,0.6502,1.9171,0.3597
0.9141,0.3663,-0.3021,-0.3892,1.6954,0.6083,2.5138,0.6176,-0.7718,-0.7911,-0.0129,-0.2358,1.5735,0.6502,1.9171,0.3597
0.9351,0.3589,-0.2881,-0.3942,1.6762,0.6006,2.5108,0.6051,-0.7422,-0.8016,0.0159,-0.2383,1.6003,0.6408,1.9056,0.3638
0.9351,0.3589,-0.2881,-0.3942,1.6762,0.6006,2.5108,0.6051,-0.7422,-0.8016,0.0159,-0.2383,1.6003,0.6408,1.9056,0.3638
0.9351,0.3589,-0.2881,-0.3942,1.6762,0.6006,2.5324,0.5907,-0.7305,-0.8184,0.0088,-0.2281,1.5735,0.6502,1.8985,0.3615
0.9351,0.3589,-0.2881,-0.3942,1.6762,0.6006,2.5324,0.5907,-0.7305,-0.8184,0.0088,-0.2281,1.5735,0.6502,1.8985,0.3615
0.9265,0.3712,-0.274,-0.3991,1.657,0.5928,2.5324,0.5907,-0.7484,-0.8248,0.0088,-0.2281,1.5735,0.6502,1.9029,0.3552
0.9265,0.3712,-0.274,-0.3991,1.657,0.5928,2.5324,0.5907,-0.7484,-0.8248,0.0088,-0.2281,1.5735,0.6502,1.9029,0.3552
0.9141,0.3663,-0.28,-0.3904,1.6511,0.5659,2.517,0.5961,-0.7188,-0.8353,0.0088,-0.2281,1.627,0.6313,1.9073,0.3488
0.9141,0.3663,-0.28,-0.3904,1.6511,0.5659,2.517,0.5961,-0.7188,-0.8353,0.0088,-0.2281,1.627,0.6313,1.9073,0.3488
0.9141,0.3663,-0.28,-0.3904,1.6511,0.5659,2.517,0.5961,-0.7188,-0.8353,0.0088,-0.2281,1.627,0.6313,1.9073,0.3488
0.8807,0.3688,-0.2316,-0.4141,1.6452,0.539,2.48,0.616,-0.6711,-0.8394,0.0485,-0.2267,1.6969,0.6181,1.9331,0.3493
0.8807,0.3688,-0.2316,-0.4141,1.6452,0.539,2.48,0.616,-0.6711,-0.8394,0.0485,-0.2267,1.6969,0.6181,1.9331,0.3493
0.8807,0.3688,-0.2094,-0.4154,1.6452,0.539,2.48,0.616,-0.6711,-0.8394,0.0665,-0.2331,1.6863,0.6334,1.9402,0.3515
0.8807,0.3688,-0.2094,-0.4154,1.6452,0.539,2.48,0.616,-0.6711,-0.8394,0.0665,-0.2331,1.6863,0.6334,1.9402,0.3515
0.8807,0.3688,-0.2094,-0.4154,1.6452,0.539,2.48,0.616,-0.6711,-0.8394,0.0665,-0.2331,1.6863,0.6334,1.9402,0.3515
0.8807,0.3688,-0.2034,-0.4241,1.6452,0.539,2.4709,0.6124,-0.6828,-0.8225,0.0665,-0.2331,1.6863,0.6334,1.9446,0.3452
0.8807,0.3688,-0.2034,-0.4241,1.6452,0.539,2.4709,0.6124,-0.6828,-0.8225,0.0665,-0.2331,1.6863,0.6334,1.9446,0.3452
0.8807,0.3688,-0.2034,-0.4241,1.6452,0.539,2.4709,0.6124,-0.6828,-0.8225,0.0665,-0.2331,1.6863,0.6334,1.9446,0.3452
0.9141,0.3663,-0.2074,-0.4029,1.6511,0.5659,2.468,0.5999,-0.6233,-0.8436,0.0556,-0.2369,1.6489,0.6582,1.9374,0.3429
0.9141,0.3663,-0.2074,-0.4029,1.6511,0.5659,2.468,0.5999,-0.6233,-0.8436,0.0556,-0.2369,1.6489,0.6582,1.9374,0.3429
0.9017,0.3614,-0.2215,-0.3979,1.6319,0.5581,2.4559,0.5839,-0.6233,-0.8436,0.0376,-0.2306,1.6059,0.6618,1.9232,0.3384
0.9017,0.3614,-0.2215,-0.3979,1.6319,0.5581,2.4559,0.5839,-0.6233,-0.8436,0.0376,-0.2306,1.6059,0.6618,1.9232,0.3384
0.8807,0.3688,-0.2356,-0.393,1.6319,0.5581,2.4285,0.5734,-0.635,-0.8267,0.0376,-0.2306,1.6326,0.6524,1.9319,0.3258
0.8807,0.3688,-0.2356,-0.393,1.6319,0.5581,2.4285,0.5734,-0.635,-0.8267,0.0376,-0.2306,1.6326,0.6524,1.9319,0.3258
0.9017,0.3614,-0.2356,-0.393,1.6644,0.5467,2.4103,0.5664,-0.6467,-0.8098,-0.002,-0.2319,1.6003,0.6408,1.9034,0.3168
0.8683,0.3638,-0.2599,-0.4041,1.6585,0.5198,2.3739,0.5523,-0.6828,-0.8225,-0.0058,-0.246,1.5574,0.6444,1.8777,0.3164
0.8683,0.3638,-0.2599,-0.4041,1.6585,0.5198,2.3739,0.5523,-0.6828,-0.8225,-0.0058,-0.246,1.5574,0.6444,1.8777,0.3164
0.8892,0.3564,-0.2599,-0.4041,1.6128,0.5504,2.3405,0.5507,-0.7305,-0.8184,-0.0096,-0.26,1.5252,0.6328,1.8335,0.3177
0.8892,0.3564,-0.2599,-0.4041,1.6128,0.5504,2.3405,0.5507,-0.7305,-0.8184,-0.0096,-0.26,1.5252,0.6328,1.8335,0.3177
0.8892,0.3564,-0.2599,-0.4041,1.6128,0.5504,2.3405,0.5507,-0.7305,-0.8184,-0.0096,-0.26,1.5252,0.6328,1.8335,0.3177
0.8854,0.3392,-0.27,-0.4203,1.5613,0.5542,2.3134,0.5402,-0.7547,-0.848,-0.0243,-0.2778,1.4665,0.6306,1.7937,0.3127
0.8854,0.3392,-0.27,-0.4203,1.5613,0.5542,2.3134,0.5402,-0.7547,-0.848,-0.0243,-0.2778,1.4665,0.6306,1.7937,0.3127
0.8854,0.3392,-0.27,-0.4203,1.5613,0.5542,2.3134,0.5402,-0.7547,-0.848,-0.0243,-0.2778,1.4665,0.6306,1.7937,0.3127
0.8854,0.3392,-0.27,-0.4203,1.548,0.5733,2.3043,0.5367,-0.7726,-0.8544,-0.0529,-0.2753,1.4344,0.6191,1.7769,0.2997
0.8644,0.3466,-0.278,-0.424,1.529,0.5656,2.2924,0.5208,-0.743,-0.8649,-0.0778,-0.2589,1.4344,0.6191,1.7514,0.2992
0.8559,0.3589,-0.2921,-0.419,1.529,0.5656,2.2834,0.5173,-0.7726,-0.8544,-0.0993,-0.2665,1.392,0.6226,1.7303,0.2925
0.8559,0.3589,-0.2921,-0.419,1.529,0.5656,2.2834,0.5173,-0.7726,-0.8544,-0.0993,-0.2665,1.392,0.6226,1.7303,0.2925
0.814,0.3737,-0.3082,-0.4264,1.51,0.5579,2.2563,0.5069,-0.8021,-0.844,-0.1171,-0.2603,1.4185,0.6133,1.7048,0.292
0.814,0.3737,-0.3082,-0.4264,1.51,0.5579,2.2563,0.5069,-0.8021,-0.844,-0.1171,-0.2603,1.4185,0.6133,1.7048,0.292
0.814,0.3737,-0.3082,-0.4264,1.51,0.5579,2.2563,0.5069,-0.8021,-0.844,-0.1171,-0.2603,1.4185,0.6133,1.7048,0.292
0.7893,0.3638,-0.3242,-0.4338,1.4721,0.5424,2.2232,0.5052,-0.8316,-0.8336,-0.1386,-0.2679,1.413,0.5924,1.6838,0.2853
0.7893,0.3638,-0.3242,-0.4338,1.4721,0.5424,2.2232,0.5052,-0.8316,-0.8336,-0.1386,-0.2679,1.413,0.5924,1.6838,0.2853
0.7893,0.3638,-0.3242,-0.4338,1.4721,0.5424,2.2232,0.5052,-0.8316,-0.8336,-0.1386,-0.2679,1.413,0.5924,1.6838,0.2853
0.7562,0.3663,-0.3403,-0.4413,1.4531,0.5347,2.1812,0.5001,-0.8495,-0.8399,-0.1671,-0.2655,1.4235,0.5773,1.6584,0.2848
0.7562,0.3663,-0.3403,-0.4413,1.4531,0.5347,2.1812,0.5001,-0.8495,-0.8399,-0.1671,-0.2655,1.4235,0.5773,1.6584,0.2848
0.7316,0.3564,-0.3563,-0.4487,1.4154,0.5194,2.1394,0.4949,-0.8673,-0.8463,-0.1885,-0.2732,1.4075,0.5715,1.6374,0.2781
0.7316,0.3564,-0.3563,-0.4487,1.4154,0.5194,2.1394,0.4949,-0.8673,-0.8463,-0.1885,-0.2732,1.4075,0.5715,1.6374,0.2781
0.7071,0.3466,-0.3803,-0.4598,1.3777,0.504,2.0976,0.4898,-0.885,-0.8527,-0.1922,-0.2871,1.3652,0.5751,1.6052,0.2753
0.7071,0.3466,-0.3803,-0.4598,1.3777,0.504,2.0976,0.4898,-0.885,-0.8527,-0.1922,-0.2871,1.3652,0.5751,1.6052,0.2753
0.7071,0.3466,-0.3803,-0.4598,1.3777,0.504,2.0976,0.4898,-0.885,-0.8527,-0.1922,-0.2871,1.3652,0.5751,1.6052,0.2753
0.724,0.3221,-0.4103,-0.4622,1.3777,0.504,2.0471,0.4811,-0.8912,-0.8758,-0.2349,-0.3024,1.2705,0.5972,1.5495,0.2574
0.724,0.3221,-0.4103,-0.4622,1.3777,0.504,2.0471,0.4811,-0.8912,-0.8758,-0.2349,-0.3024,1.2705,0.5972,1.5495,0.2574
0.7118,0.3172,-0.4322,-0.461,1.327,0.5076,2.0145,0.4794,-0.9089,-0.8822,-0.2563,-0.3101,1.2389,0.5857,1.5287,0.2507
0.7118,0.3172,-0.4322,-0.461,1.327,0.5076,2.0145,0.4794,-0.9089,-0.8822,-0.2563,-0.3101,1.2389,0.5857,1.5287,0.2507
0.6825,0.3367,-0.4601,-0.4511,1.3589,0.4963,1.9819,0.4777,-0.8973,-0.8989,-0.2775,-0.3177,1.197,0.5891,1.5122,0.2377
0.6703,0.3318,-0.4819,-0.4499,1.327,0.5076,1.9554,0.4673,-0.9089,-0.8822,-0.2951,-0.3115,1.1813,0.5833,1.5027,0.2271
0.6703,0.3318,-0.4819,-0.4499,1.327,0.5076,1.9554,0.4673,-0.9089,-0.8822,-0.2951,-0.3115,1.1813,0.5833,1.5027,0.2271
0.6496,0.3391,-0.4899,-0.4536,1.3589,0.4963,1.9318,0.4691,-0.9382,-0.8718,-0.3233,-0.3091,1.1396,0.5868,1.4707,0.2243
0.6496,0.3391,-0.4899,-0.4536,1.3589,0.4963,1.9318,0.4691,-0.9382,-0.8718,-0.3233,-0.3091,1.1396,0.5868,1.4707,0.2243
0.6496,0.3391,-0.4899,-0.4536,1.3589,0.4963,1.9318,0.4691,-0.9382,-0.8718,-0.3233,-0.3091,1.1396,0.5868,1.4707,0.2243
0.6046,0.3366,-0.5136,-0.4647,1.372,0.4774,1.9054,0.4586,-0.9967,-0.8511,-0.3445,-0.3168,1.1343,0.566,1.4389,0.2216
0.6046,0.3366,-0.5136,-0.4647,1.372,0.4774,1.9054,0.4586,-0.9967,-0.8511,-0.3445,-0.3168,1.1343,0.566,1.4389,0.2216
0.6046,0.3366,-0.5136,-0.4647,1.372,0.4774,1.9054,0.4586,-0.9967,-0.8511,-0.3445,-0.3168,1.1343,0.566,1.4389,0.2216
0.5718,0.339,-0.5156,-0.477,1.3345,0.4621,1.8643,0.4534,-1.0027,-0.8742,-0.3831,-0.3182,1.103,0.5545,1.3847,0.2267
0.5802,0.3268,-0.5156,-0.477,1.3027,0.4734,1.8643,0.4534,-1.0379,-0.8869,-0.4147,-0.3297,1.0822,0.5281,1.3419,0.2278
0.5802,0.3268,-0.5156,-0.477,1.3027,0.4734,1.8643,0.4534,-1.0379,-0.8869,-0.4147,-0.3297,1.0822,0.5281,1.3419,0.2278
0.5924,0.3317,-0.5077,-0.4733,1.3083,0.4999,1.8906,0.4639,-1.073,-0.8996,-0.4078,-0.3397,1.0666,0.5224,1.3308,0.2318
0.5924,0.3317,-0.5077,-0.4733,1.3083,0.4999,1.8906,0.4639,-1.073,-0.8996,-0.4078,-0.3397,1.0666,0.5224,1.3308,0.2318
0.6459,0.322,-0.4839,-0.4622,1.3326,0.5343,1.988,0.469,-1.073,-0.8996,-0.3623,-0.3482,1.0978,0.5339,1.3582,0.2407
0.6459,0.322,-0.4839,-0.4622,1.3326,0.5343,1.988,0.469,-1.073,-0.8996,-0.3623,-0.3482,1.0978,0.5339,1.3582,0.2407
0.7033,0.3294,-0.4442,-0.4437,1.389,0.5574,2.0765,0.5039,-1.0439,-0.9099,-0.2955,-0.3492,1.1707,0.5419,1.4312,0.257
0.7033,0.3294,-0.4442,-0.4437,1.389,0.5574,2.0765,0.5039,-1.0439,-0.9099,-0.2955,-0.3492,1.1707,0.5419,1.4312,0.257
0.7817,0.3294,-0.3763,-0.4351,1.4456,0.5806,2.2049,0.5317,-0.962,-0.9012,-0.2034,-0.3288,1.2651,0.5764,1.5435,0.2783
0.7817,0.3294,-0.3763,-0.4351,1.4456,0.5806,2.2049,0.5317,-0.962,-0.9012,-0.2034,-0.3288,1.2651,0.5764,1.5435,0.2783
0.7817,0.3294,-0.3763,-0.4351,1.4456,0.5806,2.2049,0.5317,-0.962,-0.9012,-0.2034,-0.3288,1.2651,0.5764,1.5435,0.2783
0.8482,0.3245,-0.3082,-0.4264,1.5157,0.5847,2.3557,0.5453,-0.8796,-0.8925,-0.1353,-0.292,1.3707,0.5959,1.6568,0.2996
0.8482,0.3245,-0.3082,-0.4264,1.5157,0.5847,2.3557,0.5453,-0.8796,-0.8925,-0.1353,-0.292,1.3707,0.5959,1.6568,0.2996
0.9227,0.3539,-0.2013,-0.4117,1.657,0.5928,2.5632,0.5798,-0.6954,-0.869,0.0517,-0.2509,1.5841,0.635,1.9062,0.3254
0.9227,0.3539,-0.2013,-0.4117,1.657,0.5928,2.5632,0.5798,-0.6954,-0.869,0.0517,-0.2509,1.5841,0.635,1.9062,0.3254
0.9227,0.3539,-0.2013,-0.4117,1.657,0.5928,2.5632,0.5798,-0.6954,-0.869,0.0517,-0.2509,1.5841,0.635,1.9062,0.3254
0.939,0.3761,-0.1628,-0.4055,1.7088,0.5891,2.6248,0.5919,-0.6594,-0.8563,0.1134,-0.2419,1.6863,0.6334,1.9864,0.3352
0.939,0.3761,-0.1628,-0.4055,1.7088,0.5891,2.6248,0.5919,-0.6594,-0.8563,0.1134,-0.2419,1.6863,0.6334,1.9864,0.3352
0.939,0.3761,-0.1628,-0.4055,1.7088,0.5891,2.6248,0.5919,-0.6594,-0.8563,0.1134,-0.2419,1.6863,0.6334,1.9864,0.3352
0.9515,0.3811,-0.1182,-0.4081,1.7281,0.5968,2.6619,0.606,-0.6413,-0.8499,0.1533,-0.2406,1.7295,0.6297,2.0454,0.3383
0.9515,0.3811,-0.1182,-0.4081,1.7281,0.5968,2.6619,0.606,-0.6413,-0.8499,0.1533,-0.2406,1.7295,0.6297,2.0454,0.3383
0.9515,0.3811,-0.0755,-0.4232,1.6954,0.6083,2.6711,0.6095,-0.6233,-0.8436,0.1933,-0.2393,1.7728,0.6259,2.0858,0.3432
0.9515,0.3811,-0.0755,-0.4232,1.6954,0.6083,2.6711,0.6095,-0.6233,-0.8436,0.1933,-0.2393,1.7728,0.6259,2.0858,0.3432
0.9601,0.3687,-0.0673,-0.4195,1.6954,0.6083,2.6556,0.615,-0.5934,-0.8541,0.2225,-0.2419,1.7785,0.647,2.1075,0.3499
0.9601,0.3687,-0.0673,-0.4195,1.6954,0.6083,2.6556,0.615,-0.5934,-0.8541,0.2225,-0.2419,1.7785,0.647,2.1075,0.3499
0.9601,0.3687,-0.0673,-0.4195,1.6954,0.6083,2.6556,0.615,-0.5934,-0.8541,0.2225,-0.2419,1.7785,0.647,2.1075,0.3499
0.9515,0.3811,-0.0509,-0.412,1.6954,0.6083,2.6526,0.6025,-0.5155,-0.8689,0.2335,-0.2381,1.7409,0.6719,2.1236,0.3395
0.9515,0.3811,-0.0509,-0.412,1.6954,0.6083,2.6526,0.6025,-0.5155,-0.8689,0.2335,-0.2381,1.7409,0.6719,2.1236,0.3395
0.9476,0.3638,-0.0652,-0.407,1.6954,0.6083,2.6496,0.59,-0.509,-0.8456,0.2516,-0.2445,1.7409,0.6719,2.1236,0.3395
0.9476,0.3638,-0.0652,-0.407,1.6954,0.6083,2.6496,0.59,-0.509,-0.8456,0.2516,-0.2445,1.7409,0.6719,2.1236,0.3395
0.939,0.3761,-0.0652,-0.407,1.7414,0.5775,2.6403,0.5864,-0.5507,-0.8181,0.2516,-0.2445,1.7409,0.6719,2.1324,0.3267
0.939,0.3761,-0.0652,-0.407,1.7414,0.5775,2.6403,0.5864,-0.5507,-0.8181,0.2516,-0.2445,1.7409,0.6719,2.1324,0.3267
0.9476,0.3638,-0.057,-0.4033,1.7548,0.5583,2.6403,0.5864,-0.5806,-0.8075,0.2406,-0.2483,1.7352,0.6508,2.1251,0.3245
0.9686,0.3563,-0.057,-0.4033,1.7548,0.5583,2.6403,0.5864,-0.539,-0.8351,0.2406,-0.2483,1.7622,0.6412,2.1324,0.3267
0.9686,0.3563,-0.057,-0.4033,1.7548,0.5583,2.6403,0.5864,-0.539,-0.8351,0.2406,-0.2483,1.7622,0.6412,2.1324,0.3267
0.9686,0.3563,-0.057,-0.4033,1.7548,0.5583,2.6403,0.5864,-0.539,-0.8351,0.2406,-0.2483,1.7622,0.6412,2.1324,0.3267
0.9811,0.3613,-0.0346,-0.4046,1.7608,0.5852,2.6651,0.5845,-0.5689,-0.8245,0.2587,-0.2547,1.7458,0.6355,2.1207,0.3309
0.9811,0.3613,-0.0346,-0.4046,1.7608,0.5852,2.6651,0.5845,-0.5689,-0.8245,0.2587,-0.2547,1.7458,0.6355,2.1207,0.3309
0.9811,0.3613,-0.0285,-0.4134,1.7414,0.5775,2.6496,0.59,-0.5689,-0.8245,0.3021,-0.2778,1.7458,0.6355,2.128,0.3331
0.9811,0.3613,-0.0285,-0.4134,1.7414,0.5775,2.6496,0.59,-0.5689,-0.8245,0.3021,-0.2778,1.7458,0.6355,2.128,0.3331
1.0108,0.3414,-0.0224,-0.4221,1.6954,0.6083,2.6496,0.59,-0.5689,-0.8245,0.3203,-0.2842,1.7352,0.6508,2.1396,0.329
1.0108,0.3414,-0.0224,-0.4221,1.6954,0.6083,2.6496,0.59,-0.5689,-0.8245,0.3203,-0.2842,1.7352,0.6508,2.1396,0.329
1.0444,0.3389,-0.0142,-0.4184,1.7147,0.6161,2.6651,0.5845,-0.5272,-0.852,0.3203,-0.2842,1.7352,0.6508,2.1396,0.329
1.0444,0.3389,-0.0142,-0.4184,1.7147,0.6161,2.6651,0.5845,-0.5272,-0.852,0.3203,-0.2842,1.7352,0.6508,2.1396,0.329
1.0359,0.3513,-0.0142,-0.4184,1.6954,0.6083,2.6868,0.57,-0.5571,-0.8414,0.295,-0.2675,1.7458,0.6355,2.144,0.3226
1.0359,0.3513,-0.0142,-0.4184,1.6954,0.6083,2.6868,0.57,-0.5571,-0.8414,0.295,-0.2675,1.7458,0.6355,2.144,0.3226
1.0273,0.3636,-0.0285,-0.4134,1.6762,0.6006,2.6775,0.5665,-0.5507,-0.8181,0.2698,-0.2509,1.7352,0.6508,2.144,0.3226
1.0273,0.3636,-0.0285,-0.4134,1.6762,0.6006,2.6775,0.5665,-0.5507,-0.8181,0.2698,-0.2509,1.7352,0.6508,2.144,0.3226
0.9936,0.3662,-0.0449,-0.4208,1.6378,0.5851,2.6652,0.5505,-0.5507,-0.8181,0.2516,-0.2445,1.7458,0.6355,2.1296,0.3182
0.9936,0.3662,-0.0449,-0.4208,1.6378,0.5851,2.6652,0.5505,-0.5507,-0.8181,0.2516,-0.2445,1.7458,0.6355,2.1296,0.3182
0.9725,0.3736,-0.047,-0.4332,1.6378,0.5851,2.625,0.558,-0.5507,-0.8181,0.2516,-0.2445,1.7998,0.6164,2.1267,0.3096
0.9725,0.3736,-0.047,-0.4332,1.6378,0.5851,2.625,0.558,-0.5507,-0.8181,0.2516,-0.2445,1.7998,0.6164,2.1267,0.3096
0.9141,0.3663,-0.0573,-0.4494,1.5804,0.5619,2.5727,0.5494,-0.5689,-0.8245,0.2477,-0.2585,1.794,0.5954,2.1007,0.3092
0.9141,0.3663,-0.0573,-0.4494,1.5804,0.5619,2.5727,0.5494,-0.5689,-0.8245,0.2477,-0.2585,1.794,0.5954,2.1007,0.3092
0.8683,0.3638,-0.0595,-0.4618,1.5423,0.5465,2.5297,0.5444,-0.6169,-0.8203,0.2327,-0.2764,1.7612,0.5839,2.0718,0.3003
0.8683,0.3638,-0.0595,-0.4618,1.5423,0.5465,2.5297,0.5444,-0.6169,-0.8203,0.2327,-0.2764,1.7612,0.5839,2.0718,0.3003
0.8683,0.3638,-0.0737,-0.4567,1.529,0.5656,2.5051,0.5463,-0.6052,-0.8372,0.2217,-0.2802,1.7343,0.5934,2.0502,0.2935
0.8683,0.3638,-0.0737,-0.4567,1.529,0.5656,2.5051,0.5463,-0.6052,-0.8372,0.2217,-0.2802,1.7343,0.5934,2.0502,0.2935
0.8768,0.3515,-0.0797,-0.448,1.529,0.5656,2.4715,0.5447,-0.6052,-0.8372,0.2107,-0.284,1.6969,0.6181,2.0358,0.2891
0.8768,0.3515,-0.0797,-0.448,1.529,0.5656,2.4715,0.5447,-0.6052,-0.8372,0.2107,-0.284,1.6969,0.6181,2.0358,0.2891
0.8768,0.3515,-0.0797,-0.448,1.529,0.5656,2.4715,0.5447,-0.6052,-0.8372,0.2107,-0.284,1.6969,0.6181,2.0358,0.2891
0.8644,0.3466,-0.1081,-0.438,1.51,0.5579,2.4379,0.5431,-0.6116,-0.8605,0.1706,-0.2853,1.6376,0.6161,2.0071,0.2801
0.8644,0.3466,-0.1081,-0.438,1.51,0.5579,2.4379,0.5431,-0.6116,-0.8605,0.1706,-0.2853,1.6376,0.6161,2.0071,0.2801
0.8644,0.3466,-0.1081,-0.438,1.51,0.5579,2.4197,0.5362,-0.5817,-0.871,0.1526,-0.2789,1.6214,0.6103,2.0043,0.2716
0.8644,0.3466,-0.1081,-0.438,1.51,0.5579,2.4197,0.5362,-0.5817,-0.871,0.1526,-0.2789,1.6214,0.6103,2.0043,0.2716
0.8644,0.3466,-0.1081,-0.438,1.51,0.5579,2.4197,0.5362,-0.5817,-0.871,0.1526,-0.2789,1.6214,0.6103,2.0043,0.2716
0.8311,0.3491,-0.1468,-0.4441,1.5365,0.5197,2.3651,0.5152,-0.6413,-0.8499,0.1088,-0.2941,1.589,0.5988,1.9773,0.2479
0.8311,0.3491,-0.1468,-0.4441,1.5365,0.5197,2.3651,0.5152,-0.6413,-0.8499,0.1088,-0.2941,1.589,0.5988,1.9773,0.2479
0.8187,0.3442,-0.169,-0.4428,1.5043,0.5311,2.347,0.5082,-0.6711,-0.8394,0.087,-0.3018,1.5729,0.593,1.9356,0.2579
0.8187,0.3442,-0.169,-0.4428,1.5043,0.5311,2.347,0.5082,-0.6711,-0.8394,0.087,-0.3018,1.5729,0.593,1.9356,0.2579
0.8064,0.3392,-0.1793,-0.4589,1.5043,0.5311,2.3137,0.5066,-0.7071,-0.8522,0.0652,-0.3094,1.514,0.5909,1.8913,0.2593
0.8064,0.3392,-0.1793,-0.4589,1.5043,0.5311,2.3137,0.5066,-0.7071,-0.8522,0.0652,-0.3094,1.514,0.5909,1.8913,0.2593
0.8149,0.327,-0.1813,-0.4712,1.4721,0.5424,2.2805,0.505,-0.743,-0.8649,0.0683,-0.3334,1.4819,0.5794,1.8585,0.2567
0.8149,0.327,-0.1813,-0.4712,1.4721,0.5424,2.2805,0.505,-0.743,-0.8649,0.0683,-0.3334,1.4819,0.5794,1.8585,0.2567
0.8234,0.3147,-0.2036,-0.4699,1.4531,0.5347,2.2625,0.498,-0.761,-0.8712,0.0466,-0.341,1.4394,0.583,1.8258,0.254
0.8234,0.3147,-0.2036,-0.4699,1.4531,0.5347,2.2625,0.498,-0.761,-0.8712,0.0466,-0.341,1.4394,0.583,1.8258,0.254
0.8234,0.3147,-0.2036,-0.4699,1.4531,0.5347,2.2625,0.498,-0.761,-0.8712,0.0466,-0.341,1.4394,0.583,1.8258,0.254
0.8111,0.3098,-0.2197,-0.4773,1.421,0.5461,2.2445,0.4911,-0.7788,-0.8776,0.0178,-0.3385,1.4075,0.5715,1.8046,0.2473
0.8111,0.3098,-0.2197,-0.4773,1.421,0.5461,2.2445,0.4911,-0.7788,-0.8776,0.0178,-0.3385,1.4075,0.5715,1.8046,0.2473
0.7902,0.3172,-0.2359,-0.4847,1.3702,0.5497,2.2477,0.47,-0.7967,-0.8839,-0.0109,-0.336,1.3652,0.5751,1.7878,0.2344
0.7817,0.3294,-0.2581,-0.4834,1.3702,0.5497,2.2387,0.4665,-0.7967,-0.8839,-0.0287,-0.3297,1.3756,0.5601,1.7623,0.234
0.7401,0.3441,-0.2802,-0.4821,1.3514,0.542,2.2057,0.4649,-0.844,-0.8798,-0.0503,-0.3373,1.3334,0.5636,1.7298,0.2313
0.7401,0.3441,-0.2802,-0.4821,1.3514,0.542,2.2057,0.4649,-0.844,-0.8798,-0.0503,-0.3373,1.3334,0.5636,1.7298,0.2313
0.7071,0.3466,-0.3043,-0.4931,1.3007,0.5455,2.1638,0.4598,-0.8618,-0.8862,-0.0966,-0.3285,1.328,0.5428,1.6974,0.2286
0.7071,0.3466,-0.3043,-0.4931,1.3007,0.5455,2.1638,0.4598,-0.8618,-0.8862,-0.0966,-0.3285,1.328,0.5428,1.6974,0.2286
0.7071,0.3466,-0.3043,-0.4931,1.3007,0.5455,2.1638,0.4598,-0.8618,-0.8862,-0.0966,-0.3285,1.328,0.5428,1.6974,0.2286
0.691,0.3245,-0.3144,-0.5091,1.2633,0.5301,2.122,0.4547,-0.8796,-0.8925,-0.1181,-0.3361,1.3384,0.5278,1.6807,0.2157
0.691,0.3245,-0.3144,-0.5091,1.2633,0.5301,2.122,0.4547,-0.8796,-0.8925,-0.1181,-0.3361,1.3384,0.5278,1.6807,0.2157
0.6459,0.322,-0.3304,-0.5164,1.2261,0.5147,2.0653,0.4549,-0.8858,-0.9155,-0.1396,-0.3437,1.3329,0.5072,1.6484,0.2131
0.6459,0.322,-0.3304,-0.5164,1.2261,0.5147,2.0653,0.4549,-0.8858,-0.9155,-0.1396,-0.3437,1.3329,0.5072,1.6484,0.2131
0.6506,0.2927,-0.3405,-0.5324,1.1889,0.4993,2.021,0.4375,-0.8858,-0.9155,-0.1611,-0.3513,1.3067,0.5164,1.6161,0.2104
0.6506,0.2927,-0.3405,-0.5324,1.1889,0.4993,2.021,0.4375,-0.8858,-0.9155,-0.1611,-0.3513,1.3067,0.5164,1.6161,0.2104
0.6506,0.2927,-0.3485,-0.536,1.1889,0.4993,1.9736,0.4411,-0.9035,-0.9218,-0.1755,-0.3689,1.2647,0.52,1.5883,0.2015
0.6506,0.2927,-0.3485,-0.536,1.1889,0.4993,1.9736,0.4411,-0.9035,-0.9218,-0.1755,-0.3689,1.2647,0.52,1.5883,0.2015
0.6384,0.2878,-0.3785,-0.5384,1.1704,0.4917,1.9323,0.436,-0.9389,-0.9345,-0.2183,-0.384,1.1968,0.5327,1.5466,0.1882
0.6384,0.2878,-0.3785,-0.5384,1.1704,0.4917,1.9323,0.436,-0.9389,-0.9345,-0.2183,-0.384,1.1968,0.5327,1.5466,0.1882
0.6384,0.2878,-0.3785,-0.5384,1.1704,0.4917,1.9323,0.436,-0.9389,-0.9345,-0.2183,-0.384,1.1968,0.5327,1.5466,0.1882
0.6384,0.2878,-0.3984,-0.5249,1.1573,0.5105,1.9235,0.4325,-0.9274,-0.9511,-0.2396,-0.3916,1.1447,0.5511,1.5077,0.1833
0.6384,0.2878,-0.3984,-0.5249,1.1573,0.5105,1.9235,0.4325,-0.9274,-0.9511,-0.2396,-0.3916,1.1447,0.5511,1.5077,0.1833
0.6384,0.2878,-0.3984,-0.5249,1.1573,0.5105,1.9235,0.4325,-0.9274,-0.9511,-0.2396,-0.3916,1.1447,0.5511,1.5077,0.1833
0.675,0.3025,-0.3724,-0.5016,1.2765,0.5112,2.0238,0.4497,-0.9097,-0.9448,-0.2396,-0.3916,1.1603,0.5568,1.5258,0.1815
0.675,0.3025,-0.3724,-0.5016,1.2765,0.5112,2.0238,0.4497,-0.9097,-0.9448,-0.2396,-0.3916,1.1603,0.5568,1.5258,0.1815
0.6995,0.3123,-0.3404,-0.4869,1.3645,0.523,2.1187,0.4757,-0.9035,-0.9218,-0.2076,-0.3802,1.1917,0.5684,1.5856,0.1931
0.6995,0.3123,-0.3404,-0.4869,1.3645,0.523,2.1187,0.4757,-0.9035,-0.9218,-0.2076,-0.3802,1.1917,0.5684,1.5856,0.1931
0.6995,0.3123,-0.3404,-0.4869,1.3645,0.523,2.1187,0.4757,-0.9035,-0.9218,-0.2076,-0.3802,1.1917,0.5684,1.5856,0.1931
0.6995,0.3123,-0.3404,-0.4869,1.3645,0.523,2.1187,0.4757,-0.9035,-0.9218,-0.2076,-0.3802,1.1917,0.5684,1.5856,0.1931
0.8234,0.3147,-0.2056,-0.4823,1.6069,0.5236,2.3681,0.5276,-0.8378,-0.8567,-0.0433,-0.3473,1.4235,0.5773,1.7948,0.2366
0.8234,0.3147,-0.2056,-0.4823,1.6069,0.5236,2.3681,0.5276,-0.8378,-0.8567,-0.0433,-0.3473,1.4235,0.5773,1.7948,0.2366
0.8606,0.3294,-0.151,-0.4689,1.6511,0.5659,2.4898,0.5517,-0.761,-0.8712,0.0574,-0.3372,1.5245,0.5758,1.9055,0.2637
0.8606,0.3294,-0.151,-0.4689,1.6511,0.5659,2.4898,0.5517,-0.761,-0.8712,0.0574,-0.3372,1.5245,0.5758,1.9055,0.2637
0.8939,0.3269,-0.1124,-0.4628,1.657,0.5928,2.5695,0.5708,-0.743,-0.8649,0.1479,-0.331,1.5995,0.5836,2.0027,0.2865
0.8939,0.3269,-0.1124,-0.4628,1.657,0.5928,2.5695,0.5708,-0.743,-0.8649,0.1479,-0.331,1.5995,0.5836,2.0027,0.2865
0.9733,0.3267,-0.0655,-0.4531,1.6686,0.647,2.6558,0.581,-0.6774,-0.8626,0.2389,-0.3248,1.7017,0.5819,2.079,0.3025
0.9733,0.3267,-0.0655,-0.4531,1.6686,0.647,2.6558,0.581,-0.6774,-0.8626,0.2389,-0.3248,1.7017,0.5819,2.079,0.3025
0.9858,0.3316,-0.0552,-0.4369,1.7013,0.6354,2.7085,0.5895,-0.6297,-0.8668,0.3012,-0.316,1.7507,0.5991,2.1412,0.314
0.9858,0.3316,-0.0552,-0.4369,1.7013,0.6354,2.7085,0.5895,-0.6297,-0.8668,0.3012,-0.316,1.7507,0.5991,2.1412,0.314
0.9858,0.3316,-0.041,-0.442,1.682,0.6276,2.7489,0.582,-0.6116,-0.8605,0.3274,-0.2944,1.7834,0.6106,2.1935,0.3147
0.9858,0.3316,-0.041,-0.442,1.682,0.6276,2.7489,0.582,-0.6116,-0.8605,0.3274,-0.2944,1.7834,0.6106,2.1935,0.3147
0.9858,0.3316,-0.041,-0.442,1.682,0.6276,2.7489,0.582,-0.6116,-0.8605,0.3274,-0.2944,1.7834,0.6106,2.1935,0.3147
0.9686,0.3563,-0.0327,-0.4383,1.682,0.6276,2.7707,0.5675,-0.5454,-0.8583,0.3425,-0.2766,1.8432,0.6126,2.2387,0.3132
0.9601,0.3687,-0.0124,-0.452,1.6954,0.6083,2.7552,0.573,-0.5454,-0.8583,0.3607,-0.283,1.8326,0.6279,2.2504,0.3091
0.939,0.3761,-0.0124,-0.452,1.7088,0.5891,2.7458,0.5695,-0.5155,-0.8689,0.3607,-0.283,1.8597,0.6183,2.2504,0.3091
0.939,0.3761,-0.0124,-0.452,1.7088,0.5891,2.7458,0.5695,-0.5155,-0.8689,0.3607,-0.283,1.8597,0.6183,2.2504,0.3091
0.9055,0.3786,-0.0146,-0.4645,1.657,0.5928,2.7116,0.568,-0.5272,-0.852,0.3496,-0.2868,1.8432,0.6126,2.2476,0.3005
0.9055,0.3786,-0.0146,-0.4645,1.657,0.5928,2.7116,0.568,-0.5272,-0.852,0.3496,-0.2868,1.8432,0.6126,2.2476,0.3005
0.9055,0.3786,-0.0146,-0.4645,1.657,0.5928,2.7116,0.568,-0.5272,-0.852,0.3496,-0.2868,1.8432,0.6126,2.2476,0.3005
0.9141,0.3663,-0.0085,-0.4732,1.6378,0.5851,2.6931,0.561,-0.5454,-0.8583,0.3567,-0.2971,1.8432,0.6126,2.233,0.296
0.9141,0.3663,-0.0085,-0.4732,1.6378,0.5851,2.6931,0.561,-0.5454,-0.8583,0.3567,-0.2971,1.8432,0.6126,2.233,0.296
0.9141,0.3663,-0.0085,-0.4732,1.6378,0.5851,2.6931,0.561,-0.5454,-0.8583,0.3567,-0.2971,1.8432,0.6126,2.233,0.296
0.9351,0.3589,-0.0003,-0.4695,1.657,0.5928,2.6775,0.5665,-0.5155,-0.8689,0.3456,-0.3008,1.8056,0.6375,2.2257,0.2938
0.9437,0.3465,-0.0064,-0.4608,1.6244,0.6043,2.6838,0.5575,-0.4555,-0.8901,0.3709,-0.3175,1.7785,0.647,2.214,0.2979
0.9437,0.3465,-0.0124,-0.452,1.592,0.6158,2.6838,0.5575,-0.4555,-0.8901,0.3638,-0.3073,1.7785,0.647,2.2257,0.2938
0.9437,0.3465,-0.0124,-0.452,1.592,0.6158,2.6838,0.5575,-0.4555,-0.8901,0.3638,-0.3073,1.7785,0.647,2.2257,0.2938
0.9437,0.3465,-0.0042,-0.4484,1.6244,0.6043,2.6838,0.5575,-0.4372,-0.8838,0.382,-0.3137,1.7892,0.6317,2.2447,0.2919
0.9437,0.3465,-0.0042,-0.4484,1.6244,0.6043,2.6838,0.5575,-0.4372,-0.8838,0.382,-0.3137,1.7892,0.6317,2.2447,0.2919
0.9437,0.3465,-0.0042,-0.4484,1.6244,0.6043,2.6838,0.5575,-0.4372,-0.8838,0.382,-0.3137,1.7892,0.6317,2.2447,0.2919
0.9437,0.3465,-0.0042,-0.4484,1.6378,0.5851,2.6775,0.5665,-0.4306,-0.8605,0.3931,-0.3099,1.8432,0.6126,2.2637,0.29
0.9437,0.3465,-0.0042,-0.4484,1.6378,0.5851,2.6775,0.5665,-0.4306,-0.8605,0.3931,-0.3099,1.8432,0.6126,2.2637,0.29
0.9437,0.3465,-0.0185,-0.4433,1.657,0.5928,2.6558,0.581,-0.4843,-0.8159,0.4043,-0.3061,1.8432,0.6126,2.2754,0.2858
0.9437,0.3465,-0.0185,-0.4433,1.657,0.5928,2.6558,0.581,-0.4843,-0.8159,0.4043,-0.3061,1.8432,0.6126,2.2754,0.2858
0.9227,0.3539,-0.0267,-0.447,1.657,0.5928,2.662,0.572,-0.4843,-0.8159,0.4043,-0.3061,1.8703,0.603,2.2754,0.2858
0.9227,0.3539,-0.0267,-0.447,1.657,0.5928,2.662,0.572,-0.4843,-0.8159,0.4043,-0.3061,1.8703,0.603,2.2754,0.2858
0.9227,0.3539,-0.0267,-0.447,1.657,0.5928,2.662,0.572,-0.4843,-0.8159,0.4043,-0.3061,1.8703,0.603,2.2754,0.2858
0.9227,0.3539,-0.0206,-0.4557,1.6244,0.6043,2.6528,0.5685,-0.5325,-0.8117,0.3931,-0.3099,1.8645,0.582,2.2564,0.2877
0.9227,0.3539,-0.0206,-0.4557,1.6244,0.6043,2.6528,0.5685,-0.5325,-0.8117,0.3931,-0.3099,1.8645,0.582,2.2564,0.2877
0.9227,0.3539,-0.0206,-0.4557,1.6244,0.6043,2.6528,0.5685,-0.5325,-0.8117,0.3931,-0.3099,1.8645,0.582,2.2564,0.2877
0.9647,0.3391,-0.0085,-0.4732,1.592,0.6158,2.625,0.558,-0.539,-0.8351,0.4073,-0.3304,1.821,0.5858,2.2272,0.2788
0.9647,0.3391,-0.0085,-0.4732,1.592,0.6158,2.625,0.558,-0.539,-0.8351,0.4073,-0.3304,1.821,0.5858,2.2272,0.2788
0.9312,0.3416,-0.0392,-0.4755,1.5538,0.6003,2.5881,0.544,-0.5272,-0.852,0.3709,-0.3175,1.8046,0.5801,2.2054,0.2722
0.9312,0.3416,-0.0392,-0.4755,1.5538,0.6003,2.5881,0.544,-0.5272,-0.852,0.3709,-0.3175,1.8046,0.5801,2.2054,0.2722
0.9312,0.3416,-0.0392,-0.4755,1.5538,0.6003,2.5881,0.544,-0.5272,-0.852,0.3709,-0.3175,1.8046,0.5801,2.2054,0.2722
0.9227,0.3539,-0.0452,-0.4668,1.5538,0.6003,2.5759,0.5281,-0.539,-0.8351,0.3638,-0.3073,1.8046,0.5801,2.1909,0.2677
0.9227,0.3539,-0.0452,-0.4668,1.5538,0.6003,2.5759,0.5281,-0.539,-0.8351,0.3638,-0.3073,1.8046,0.5801,2.1909,0.2677
0.8768,0.3515,-0.078,-0.4815,1.4835,0.5961,2.5207,0.5072,-0.5571,-0.8414,0.2941,-0.3058,1.7449,0.5782,2.1402,0.2522
0.8768,0.3515,-0.078,-0.4815,1.4835,0.5961,2.5207,0.5072,-0.5571,-0.8414,0.2941,-0.3058,1.7449,0.5782,2.1402,0.2522
0.8768,0.3515,-0.078,-0.4815,1.4835,0.5961,2.5207,0.5072,-0.5571,-0.8414,0.2941,-0.3058,1.7449,0.5782,2.1402,0.2522
0.8226,0.3614,-0.0943,-0.4889,1.4778,0.5693,2.4564,0.5165,-0.5571,-0.8414,0.3012,-0.316,1.7449,0.5782,2.1257,0.2478
0.8226,0.3614,-0.0943,-0.4889,1.4778,0.5693,2.4564,0.5165,-0.5571,-0.8414,0.3012,-0.316,1.7449,0.5782,2.1257,0.2478
0.8064,0.3392,-0.1106,-0.4962,1.4078,0.5651,2.4138,0.5114,-0.6233,-0.8436,0.2862,-0.3338,1.7123,0.5667,2.0968,0.2389
0.8064,0.3392,-0.1106,-0.4962,1.4078,0.5651,2.4138,0.5114,-0.6233,-0.8436,0.2862,-0.3338,1.7123,0.5667,2.0968,0.2389
0.8064,0.3392,-0.1106,-0.4962,1.4078,0.5651,2.4138,0.5114,-0.6233,-0.8436,0.2862,-0.3338,1.7123,0.5667,2.0968,0.2389
0.7941,0.3343,-0.1127,-0.5086,1.4078,0.5651,2.3651,0.5152,-0.6413,-0.8499,0.264,-0.3413,1.6692,0.5705,2.0637,0.2364
0.7941,0.3343,-0.1127,-0.5086,1.4078,0.5651,2.3651,0.5152,-0.6413,-0.8499,0.264,-0.3413,1.6692,0.5705,2.0637,0.2364
0.7817,0.3294,-0.141,-0.4986,1.3758,0.5765,2.3379,0.5047,-0.6116,-0.8605,0.2711,-0.3515,1.6587,0.5857,2.0377,0.236
0.7817,0.3294,-0.141,-0.4986,1.3758,0.5765,2.3379,0.5047,-0.6116,-0.8605,0.2711,-0.3515,1.6587,0.5857,2.0377,0.236
0.7817,0.3294,-0.141,-0.4986,1.3758,0.5765,2.3379,0.5047,-0.6116,-0.8605,0.2711,-0.3515,1.6587,0.5857,2.0377,0.236
0.7694,0.3245,-0.1834,-0.4836,1.3437,0.5878,2.3018,0.4908,-0.6063,-0.9005,0.1909,-0.3538,1.5834,0.5779,1.9832,0.2268
0.7694,0.3245,-0.1834,-0.4836,1.3437,0.5878,2.3018,0.4908,-0.6063,-0.9005,0.1909,-0.3538,1.5834,0.5779,1.9832,0.2268
0.7694,0.3245,-0.1834,-0.4836,1.3437,0.5878,2.3018,0.4908,-0.6063,-0.9005,0.1909,-0.3538,1.5834,0.5779,1.9832,0.2268
0.7694,0.3245,-0.2056,-0.4823,1.3758,0.5765,2.2989,0.4785,-0.6244,-0.9068,0.162,-0.3512,1.5406,0.5815,1.9776,0.2099
0.7363,0.327,-0.2218,-0.4896,1.4022,0.5384,2.2869,0.4628,-0.6838,-0.8858,0.1401,-0.3588,1.535,0.5607,1.9562,0.2032
0.7155,0.3343,-0.238,-0.497,1.4154,0.5194,2.2538,0.4612,-0.7134,-0.8753,0.0933,-0.3499,1.5294,0.5398,1.9348,0.1966
0.7155,0.3343,-0.238,-0.497,1.4154,0.5194,2.2538,0.4612,-0.7134,-0.8753,0.0933,-0.3499,1.5294,0.5398,1.9348,0.1966
0.7033,0.3294,-0.2541,-0.5043,1.3833,0.5307,2.2207,0.4596,-0.7788,-0.8776,0.0606,-0.3612,1.4973,0.5284,1.8905,0.1981
0.7033,0.3294,-0.2541,-0.5043,1.3833,0.5307,2.2207,0.4596,-0.7788,-0.8776,0.0606,-0.3612,1.4973,0.5284,1.8905,0.1981
0.691,0.3245,-0.2703,-0.5117,1.3514,0.542,2.1877,0.4579,-0.8262,-0.8735,0.0458,-0.3788,1.4284,0.5414,1.8393,0.1973
0.691,0.3245,-0.2703,-0.5117,1.3514,0.542,2.1877,0.4579,-0.8262,-0.8735,0.0458,-0.3788,1.4284,0.5414,1.8393,0.1973
0.7202,0.3049,-0.3064,-0.5054,1.3194,0.5533,2.1548,0.4563,-0.8912,-0.8758,0.0132,-0.3901,1.3702,0.5393,1.7996,0.1925
0.7202,0.3049,-0.3064,-0.5054,1.3194,0.5533,2.1548,0.4563,-0.8912,-0.8758,0.0132,-0.3901,1.3702,0.5393,1.7996,0.1925
0.7202,0.3049,-0.3064,-0.5054,1.3194,0.5533,2.1548,0.4563,-0.8912,-0.8758,0.0132,-0.3901,1.3702,0.5393,1.7996,0.1925
0.741,0.2976,-0.3004,-0.5141,1.3194,0.5533,2.1309,0.4582,-0.9089,-0.8822,-0.0154,-0.3876,1.3384,0.5278,1.7671,0.1899
0.741,0.2976,-0.3004,-0.5141,1.3194,0.5533,2.1309,0.4582,-0.9089,-0.8822,-0.0154,-0.3876,1.3384,0.5278,1.7671,0.1899
0.741,0.2976,-0.3004,-0.5141,1.3194,0.5533,2.1309,0.4582,-0.9089,-0.8822,-0.0154,-0.3876,1.3384,0.5278,1.7671,0.1899
0.7164,0.2878,-0.3304,-0.5164,1.282,0.5378,2.0892,0.453,-0.868,-0.9092,-0.0262,-0.3914,1.3122,0.5371,1.7417,0.1895
0.7164,0.2878,-0.3304,-0.5164,1.282,0.5378,2.0892,0.453,-0.868,-0.9092,-0.0262,-0.3914,1.3122,0.5371,1.7417,0.1895
0.7164,0.2878,-0.3304,-0.5164,1.282,0.5378,2.0892,0.453,-0.868,-0.9092,-0.0262,-0.3914,1.3122,0.5371,1.7417,0.1895
0.6835,0.2903,-0.3765,-0.5262,1.213,0.5336,2.0508,0.427,-0.8742,-0.9322,-0.0655,-0.3926,1.2805,0.5257,1.7038,0.17
0.6835,0.2903,-0.3765,-0.5262,1.213,0.5336,2.0508,0.427,-0.8742,-0.9322,-0.0655,-0.3926,1.2805,0.5257,1.7038,0.17
0.6421,0.3049,-0.3924,-0.5335,1.1944,0.5259,2.0243,0.4166,-0.8742,-0.9322,-0.101,-0.3801,1.2647,0.52,1.6715,0.1674
0.6421,0.3049,-0.3924,-0.5335,1.1944,0.5259,2.0243,0.4166,-0.8742,-0.9322,-0.101,-0.3801,1.2647,0.52,1.6715,0.1674
0.6093,0.3073,-0.4223,-0.5359,1.1442,0.5294,1.962,0.4255,-0.9389,-0.9345,-0.1263,-0.4014,1.2332,0.5085,1.6393,0.1648
0.6093,0.3073,-0.4223,-0.5359,1.1442,0.5294,1.962,0.4255,-0.9389,-0.9345,-0.1263,-0.4014,1.2332,0.5085,1.6393,0.1648
0.5766,0.3097,-0.4243,-0.5481,1.1257,0.5217,1.9208,0.4204,-0.9389,-0.9345,-0.1547,-0.3989,1.2278,0.4879,1.5932,0.1577
0.5607,0.2877,-0.4402,-0.5554,1.1203,0.4951,1.8797,0.4152,-0.9566,-0.9408,-0.1799,-0.4202,1.186,0.4914,1.5653,0.1489
0.5607,0.2877,-0.4402,-0.5554,1.1203,0.4951,1.8797,0.4152,-0.9566,-0.9408,-0.1799,-0.4202,1.186,0.4914,1.5653,0.1489
0.5607,0.2877,-0.4402,-0.5554,1.1203,0.4951,1.8797,0.4152,-0.9566,-0.9408,-0.1799,-0.4202,1.186,0.4914,1.5653,0.1489
0.5486,0.2828,-0.4601,-0.542,1.1073,0.5139,1.8824,0.4274,-0.9451,-0.9574,-0.2013,-0.4277,1.16,0.5006,1.5403,0.1485
0.5486,0.2828,-0.4601,-0.542,1.1073,0.5139,1.8824,0.4274,-0.9451,-0.9574,-0.2013,-0.4277,1.16,0.5006,1.5403,0.1485
0.5486,0.2828,-0.4601,-0.542,1.1073,0.5139,1.8824,0.4274,-0.9451,-0.9574,-0.2013,-0.4277,1.16,0.5006,1.5403,0.1485
0.5728,0.2926,-0.4362,-0.531,1.1442,0.5294,1.9411,0.4394,-0.9566,-0.9408,-0.1944,-0.4377,1.1497,0.5155,1.5472,0.1507
0.6178,0.2951,-0.4123,-0.52,1.213,0.5336,2.0117,0.4672,-0.9097,-0.9448,-0.1799,-0.4202,1.2071,0.5178,1.6114,0.156
0.6178,0.2951,-0.4123,-0.52,1.213,0.5336,2.0117,0.4672,-0.9097,-0.9448,-0.1799,-0.4202,1.2071,0.5178,1.6114,0.156
0.6543,0.3098,-0.3584,-0.5066,1.3194,0.5533,2.1455,0.4861,-0.8742,-0.9322,-0.1017,-0.4177,1.2701,0.5407,1.7038,0.17
0.6543,0.3098,-0.3584,-0.5066,1.3194,0.5533,2.1455,0.4861,-0.8742,-0.9322,-0.1017,-0.4177,1.2701,0.5407,1.7038,0.17
0.724,0.3221,-0.2903,-0.4981,1.4721,0.5424,2.2744,0.5138,-0.8324,-0.8966,-0.0192,-0.4014,1.3756,0.5601,1.8067,0.1947
0.724,0.3221,-0.2903,-0.4981,1.4721,0.5424,2.2744,0.5138,-0.8324,-0.8966,-0.0192,-0.4014,1.3756,0.5601,1.8067,0.1947
0.7694,0.3245,-0.244,-0.4883,1.5613,0.5542,2.3953,0.538,-0.8084,-0.8671,0.0994,-0.3978,1.4924,0.5643,1.9174,0.2217
0.7694,0.3245,-0.244,-0.4883,1.5613,0.5542,2.3953,0.538,-0.8084,-0.8671,0.0994,-0.3978,1.4924,0.5643,1.9174,0.2217
0.7941,0.3343,-0.1855,-0.4959,1.6128,0.5504,2.4836,0.5607,-0.761,-0.8712,0.1721,-0.3853,1.5777,0.557,2.0031,0.2483
0.7941,0.3343,-0.1855,-0.4959,1.6128,0.5504,2.4836,0.5607,-0.761,-0.8712,0.1721,-0.3853,1.5777,0.557,2.0031,0.2483
0.8064,0.3392,-0.1693,-0.4886,1.5995,0.5696,2.5294,0.5782,-0.7726,-0.8544,0.2521,-0.3831,1.6635,0.5496,2.0678,0.2683
0.8187,0.3442,-0.1471,-0.4899,1.5862,0.5888,2.5725,0.5833,-0.743,-0.8649,0.3103,-0.3883,1.7065,0.5458,2.1182,0.2838
0.8187,0.3442,-0.1471,-0.4899,1.5862,0.5888,2.5725,0.5833,-0.743,-0.8649,0.3103,-0.3883,1.7065,0.5458,2.1182,0.2838
0.8187,0.3442,-0.1471,-0.4899,1.5862,0.5888,2.5725,0.5833,-0.743,-0.8649,0.3103,-0.3883,1.7065,0.5458,2.1182,0.2838
0.8187,0.3442,-0.1471,-0.4899,1.5862,0.5888,2.5725,0.5833,-0.743,-0.8649,0.3103,-0.3883,1.7065,0.5458,2.1182,0.2838
0.8311,0.3491,-0.1389,-0.4862,1.5595,0.6272,2.5971,0.5814,-0.743,-0.8649,0.3758,-0.4038,1.7065,0.5458,2.1516,0.2864
0.8311,0.3491,-0.1389,-0.4862,1.5595,0.6272,2.5971,0.5814,-0.743,-0.8649,0.3758,-0.4038,1.7065,0.5458,2.1516,0.2864
0.8854,0.3392,-0.1449,-0.4775,1.5328,0.6658,2.5725,0.5833,-0.6954,-0.869,0.4092,-0.3926,1.7123,0.5667,2.1777,0.2868
0.8854,0.3392,-0.1449,-0.4775,1.5328,0.6658,2.5725,0.5833,-0.6954,-0.869,0.4092,-0.3926,1.7123,0.5667,2.1777,0.2868
0.8854,0.3392,-0.1449,-0.4775,1.5328,0.6658,2.5725,0.5833,-0.6954,-0.869,0.4092,-0.3926,1.7123,0.5667,2.1777,0.2868
0.8854,0.3392,-0.1531,-0.4812,1.5004,0.6772,2.554,0.5763,-0.6774,-0.8626,0.4022,-0.3824,1.7286,0.5724,2.1865,0.2741
0.8854,0.3392,-0.1531,-0.4812,1.5004,0.6772,2.554,0.5763,-0.6774,-0.8626,0.4022,-0.3824,1.7286,0.5724,2.1865,0.2741
0.8854,0.3392,-0.1531,-0.4812,1.5004,0.6772,2.554,0.5763,-0.6774,-0.8626,0.4022,-0.3824,1.7286,0.5724,2.1865,0.2741
0.8854,0.3392,-0.1753,-0.4799,1.4681,0.6887,2.5357,0.5693,-0.6774,-0.8626,0.3658,-0.3696,1.7123,0.5667,2.1647,0.2674
0.8854,0.3392,-0.1753,-0.4799,1.4681,0.6887,2.5357,0.5693,-0.6774,-0.8626,0.3658,-0.3696,1.7123,0.5667,2.1647,0.2674
0.8854,0.3392,-0.1753,-0.4799,1.4681,0.6887,2.5357,0.5693,-0.6774,-0.8626,0.3658,-0.3696,1.7123,0.5667,2.1647,0.2674
0.8349,0.3663,-0.1915,-0.4873,1.5081,0.6309,2.5389,0.5479,-0.618,-0.8836,0.3224,-0.3466,1.7286,0.5724,2.1663,0.2525
0.8349,0.3663,-0.1915,-0.4873,1.5081,0.6309,2.5389,0.5479,-0.618,-0.8836,0.3224,-0.3466,1.7286,0.5724,2.1663,0.2525
0.8349,0.3663,-0.1915,-0.4873,1.5081,0.6309,2.5389,0.5479,-0.618,-0.8836,0.3224,-0.3466,1.7286,0.5724,2.1663,0.2525
0.8102,0.3565,-0.2077,-0.4946,1.5024,0.6039,2.5081,0.5587,-0.6658,-0.8795,0.3003,-0.3541,1.766,0.5477,2.1518,0.2481
0.8102,0.3565,-0.2077,-0.4946,1.5024,0.6039,2.5081,0.5587,-0.6658,-0.8795,0.3003,-0.3541,1.766,0.5477,2.1518,0.2481
0.7855,0.3466,-0.2098,-0.5069,1.4323,0.5998,2.4928,0.5642,-0.6658,-0.8795,0.3073,-0.3643,1.7929,0.5382,2.1518,0.2481
0.7732,0.3417,-0.2098,-0.5069,1.4323,0.5998,2.4928,0.5642,-0.6658,-0.8795,0.3073,-0.3643,1.8198,0.5287,2.159,0.2503
0.7732,0.3417,-0.2038,-0.5156,1.4323,0.5998,2.4928,0.5642,-0.636,-0.89,0.3254,-0.3707,1.7824,0.5534,2.1663,0.2525
0.7732,0.3417,-0.2038,-0.5156,1.4323,0.5998,2.4928,0.5642,-0.636,-0.89,0.3254,-0.3707,1.7824,0.5534,2.1663,0.2525
0.7732,0.3417,-0.2038,-0.5156,1.4323,0.5998,2.4928,0.5642,-0.636,-0.89,0.3254,-0.3707,1.7824,0.5534,2.1663,0.2525
0.7817,0.3294,-0.2038,-0.5156,1.4323,0.5998,2.5081,0.5587,-0.6063,-0.9005,0.3254,-0.3707,1.7718,0.5687,2.1735,0.2548
0.7817,0.3294,-0.2038,-0.5156,1.4323,0.5998,2.5081,0.5587,-0.6063,-0.9005,0.3254,-0.3707,1.7718,0.5687,2.1735,0.2548
0.8026,0.3221,-0.2098,-0.5069,1.419,0.6189,2.5081,0.5587,-0.6063,-0.9005,0.3325,-0.3808,1.7343,0.5934,2.1779,0.2484
0.8026,0.3221,-0.2098,-0.5069,1.419,0.6189,2.5081,0.5587,-0.6063,-0.9005,0.3325,-0.3808,1.7343,0.5934,2.1779,0.2484
0.7817,0.3294,-0.232,-0.5056,1.4323,0.5998,2.4989,0.5552,-0.618,-0.8836,0.3325,-0.3808,1.718,0.5877,2.1939,0.238
0.7817,0.3294,-0.232,-0.5056,1.4323,0.5998,2.4989,0.5552,-0.618,-0.8836,0.3325,-0.3808,1.718,0.5877,2.1939,0.238
0.7817,0.3294,-0.232,-0.5056,1.4323,0.5998,2.4989,0.5552,-0.618,-0.8836,0.3325,-0.3808,1.718,0.5877,2.1939,0.238
0.7941,0.3343,-0.2461,-0.5007,1.4835,0.5961,2.4836,0.5607,-0.618,-0.8836,0.3214,-0.3846,1.6749,0.5914,2.1867,0.2358
0.7941,0.3343,-0.2461,-0.5007,1.4835,0.5961,2.4836,0.5607,-0.618,-0.8836,0.3214,-0.3846,1.6749,0.5914,2.1867,0.2358
0.7817,0.3294,-0.2762,-0.503,1.4835,0.5961,2.4317,0.5521,-0.6774,-0.8626,0.3063,-0.4022,1.653,0.5647,2.1257,0.2478
0.7817,0.3294,-0.2762,-0.503,1.4835,0.5961,2.4317,0.5521,-0.6774,-0.8626,0.3063,-0.4022,1.653,0.5647,2.1257,0.2478
0.7817,0.3294,-0.2762,-0.503,1.4835,0.5961,2.4317,0.5521,-0.6774,-0.8626,0.3063,-0.4022,1.653,0.5647,2.1257,0.2478
0.7817,0.3294,-0.2762,-0.503,1.4835,0.5961,2.4317,0.5521,-0.6774,-0.8626,0.3063,-0.4022,1.653,0.5647,2.1257,0.2478
0.7609,0.3368,-0.2783,-0.5153,1.4512,0.6075,2.4044,0.5415,-0.7134,-0.8753,0.2842,-0.4097,1.5939,0.5627,2.0853,0.243
0.7609,0.3368,-0.2783,-0.5153,1.4512,0.6075,2.4044,0.5415,-0.7134,-0.8753,0.2842,-0.4097,1.5939,0.5627,2.0853,0.243
0.7609,0.3368,-0.2783,-0.5153,1.4512,0.6075,2.4044,0.5415,-0.7134,-0.8753,0.2842,-0.4097,1.5939,0.5627,2.0853,0.243
0.7779,0.3123,-0.3245,-0.5251,1.3869,0.6303,2.3195,0.5313,-0.7377,-0.9048,0.2651,-0.4411,1.5721,0.5362,2.0349,0.2275
0.7779,0.3123,-0.3245,-0.5251,1.3869,0.6303,2.3195,0.5313,-0.7377,-0.9048,0.2651,-0.4411,1.5721,0.5362,2.0349,0.2275
0.7779,0.3123,-0.3245,-0.5251,1.3869,0.6303,2.3195,0.5313,-0.7377,-0.9048,0.2651,-0.4411,1.5721,0.5362,2.0349,0.2275
0.7779,0.3123,-0.3405,-0.5324,1.3548,0.6416,2.2924,0.5208,-0.7556,-0.9111,0.236,-0.4384,1.5294,0.5398,2.0062,0.2187
0.7779,0.3123,-0.3405,-0.5324,1.3548,0.6416,2.2924,0.5208,-0.7556,-0.9111,0.236,-0.4384,1.5294,0.5398,2.0062,0.2187
0.7779,0.3123,-0.3405,-0.5324,1.3548,0.6416,2.2924,0.5208,-0.7556,-0.9111,0.236,-0.4384,1.5294,0.5398,2.0062,0.2187
0.7448,0.3147,-0.3785,-0.5384,1.3305,0.6069,2.2473,0.5034,-0.7851,-0.9006,0.1711,-0.4231,1.4868,0.5435,1.9562,0.2032
0.7448,0.3147,-0.3785,-0.5384,1.3305,0.6069,2.2473,0.5034,-0.7851,-0.9006,0.1711,-0.4231,1.4868,0.5435,1.9562,0.2032
0.724,0.3221,-0.4084,-0.5408,1.3118,0.5991,2.2204,0.4929,-0.8324,-0.8966,0.1243,-0.4142,1.4548,0.5321,1.9276,0.1944
0.724,0.3221,-0.4084,-0.5408,1.3118,0.5991,2.2204,0.4929,-0.8324,-0.8966,0.1243,-0.4142,1.4548,0.5321,1.9276,0.1944
0.724,0.3221,-0.4084,-0.5408,1.3118,0.5991,2.2204,0.4929,-0.8324,-0.8966,0.1243,-0.4142,1.4548,0.5321,1.9276,0.1944
0.6825,0.3367,-0.4243,-0.5481,1.293,0.5913,2.1874,0.4913,-0.844,-0.8798,0.0955,-0.4116,1.4548,0.5321,1.9106,0.1815
0.6825,0.3367,-0.4243,-0.5481,1.293,0.5913,2.1874,0.4913,-0.844,-0.8798,0.0955,-0.4116,1.4548,0.5321,1.9106,0.1815
0.5924,0.3317,-0.4502,-0.5713,1.1867,0.5715,2.0826,0.4951,-0.8858,-0.9155,0.0411,-0.4303,1.4437,0.4906,1.831,0.172
0.5924,0.3317,-0.4502,-0.5713,1.1867,0.5715,2.0826,0.4951,-0.8858,-0.9155,0.0411,-0.4303,1.4437,0.4906,1.831,0.172
0.5924,0.3317,-0.4502,-0.5713,1.1867,0.5715,2.0826,0.4951,-0.8858,-0.9155,0.0411,-0.4303,1.4437,0.4906,1.831,0.172
0.5802,0.3268,-0.4522,-0.5834,1.1681,0.5637,2.041,0.4899,-0.9035,-0.9218,0.0194,-0.4378,1.391,0.5093,1.8012,0.1779
0.5802,0.3268,-0.4522,-0.5834,1.1681,0.5637,2.041,0.4899,-0.9035,-0.9218,0.0194,-0.4378,1.391,0.5093,1.8012,0.1779
0.5802,0.3268,-0.4522,-0.5834,1.1681,0.5637,2.041,0.4899,-0.9035,-0.9218,0.0194,-0.4378,1.391,0.5093,1.8012,0.1779
0.5681,0.3218,-0.474,-0.5822,1.1496,0.556,1.9935,0.4935,-0.9035,-0.9218,0.0086,-0.4415,1.391,0.5093,1.7687,0.1753
0.5475,0.3291,-0.4879,-0.5773,1.1365,0.5749,1.9609,0.4918,-0.8919,-0.9385,-0.0022,-0.4452,1.3488,0.5129,1.7362,0.1726
0.5354,0.3242,-0.5294,-0.5626,1.1049,0.5861,1.9345,0.4813,-0.9212,-0.9282,-0.0416,-0.4464,1.3067,0.5164,1.7038,0.17
0.5354,0.3242,-0.5294,-0.5626,1.1049,0.5861,1.9345,0.4813,-0.9212,-0.9282,-0.0416,-0.4464,1.3067,0.5164,1.7038,0.17
0.5233,0.3193,-0.5649,-0.5565,1.0864,0.5783,1.9081,0.4708,-0.9504,-0.9178,-0.0524,-0.4502,1.2805,0.5257,1.6898,0.1656
0.5233,0.3193,-0.5649,-0.5565,1.0864,0.5783,1.9081,0.4708,-0.9504,-0.9178,-0.0524,-0.4502,1.2805,0.5257,1.6898,0.1656
0.5233,0.3193,-0.5649,-0.5565,1.0864,0.5783,1.9081,0.4708,-0.9504,-0.9178,-0.0524,-0.4502,1.2805,0.5257,1.6898,0.1656
0.5196,0.3022,-0.5944,-0.559,1.0996,0.5594,1.8818,0.4604,-0.9796,-0.9075,-0.0847,-0.4614,1.249,0.5142,1.6731,0.1528
0.5196,0.3022,-0.5944,-0.559,1.0996,0.5594,1.8818,0.4604,-0.9796,-0.9075,-0.0847,-0.4614,1.249,0.5142,1.6731,0.1528
0.5196,0.3022,-0.5944,-0.559,1.0996,0.5594,1.8818,0.4604,-0.9796,-0.9075,-0.0847,-0.4614,1.249,0.5142,1.6731,0.1528
0.5075,0.2973,-0.6239,-0.5614,1.1127,0.5405,1.8556,0.45,-0.9973,-0.9138,-0.1062,-0.4688,1.2175,0.5028,1.6409,0.1502
0.5075,0.2973,-0.6239,-0.5614,1.1127,0.5405,1.8556,0.45,-0.9973,-0.9138,-0.1062,-0.4688,1.2175,0.5028,1.6409,0.1502
0.4834,0.2875,-0.669,-0.5711,1.1073,0.5139,1.8059,0.4413,-1.0439,-0.9099,-0.1453,-0.47,1.2017,0.4971,1.5974,0.1515
0.4834,0.2875,-0.669,-0.5711,1.1073,0.5139,1.8059,0.4413,-1.0439,-0.9099,-0.1453,-0.47,1.2017,0.4971,1.5974,0.1515
0.4389,0.285,-0.7081,-0.5894,1.0443,0.5362,1.7183,0.4395,-1.1488,-0.9478,-0.2201,-0.4961,1.082,0.4721,1.479,0.1515
0.4389,0.285,-0.7081,-0.5894,1.0443,0.5362,1.7183,0.4395,-1.1488,-0.9478,-0.2201,-0.4961,1.082,0.4721,1.479,0.1515
0.4389,0.285,-0.7081,-0.5894,1.0443,0.5362,1.7183,0.4395,-1.1488,-0.9478,-0.2201,-0.4961,1.082,0.4721,1.479,0.1515
0.4473,0.2729,-0.7237,-0.5966,1.0129,0.5473,1.695,0.4412,-1.2124,-0.9503,-0.2452,-0.5171,1.0353,0.4551,1.4334,0.1444
0.4473,0.2729,-0.7237,-0.5966,1.0129,0.5473,1.695,0.4412,-1.2124,-0.9503,-0.2452,-0.5171,1.0353,0.4551,1.4334,0.1444
0.4473,0.2729,-0.7237,-0.5966,1.0129,0.5473,1.695,0.4412,-1.2124,-0.9503,-0.2452,-0.5171,1.0353,0.4551,1.4334,0.1444
0.4473,0.2729,-0.7237,-0.5966,1.0129,0.5473,1.695,0.4412,-1.2124,-0.9503,-0.2452,-0.5171,1.0353,0.4551,1.4334,0.1444
0.5207,0.2561,-0.7003,-0.5857,1.0365,0.5817,1.7791,0.4638,-1.2183,-0.973,-0.2558,-0.5208,1.0353,0.4551,1.4377,0.1383
0.5207,0.2561,-0.7003,-0.5857,1.0365,0.5817,1.7791,0.4638,-1.2183,-0.973,-0.2558,-0.5208,1.0353,0.4551,1.4377,0.1383
0.5207,0.2561,-0.7003,-0.5857,1.0365,0.5817,1.7791,0.4638,-1.2183,-0.973,-0.2558,-0.5208,1.0353,0.4551,1.4377,0.1383
0.5449,0.2658,-0.6631,-0.5796,1.1049,0.5861,1.8785,0.4813,-1.1548,-0.9706,-0.2201,-0.4961,1.1078,0.463,1.504,0.152
0.5449,0.2658,-0.6631,-0.5796,1.1049,0.5861,1.8785,0.4813,-1.1548,-0.9706,-0.2201,-0.4961,1.1078,0.463,1.504,0.152
0.5449,0.2658,-0.6631,-0.5796,1.1049,0.5861,1.8785,0.4813,-1.1548,-0.9706,-0.2201,-0.4961,1.1078,0.463,1.504,0.152
0.6299,0.3,-0.5787,-0.5516,1.2612,0.6026,2.1629,0.5265,-1.027,-0.9659,-0.0632,-0.4539,1.3274,0.4865,1.7276,0.1851
0.6299,0.3,-0.5787,-0.5516,1.2612,0.6026,2.1629,0.5265,-1.027,-0.9659,-0.0632,-0.4539,1.3274,0.4865,1.7276,0.1851
0.6289,0.3464,-0.5333,-0.5419,1.3173,0.626,2.292,0.5544,-0.9566,-0.9408,0.0411,-0.4303,1.4388,0.5264,1.8562,0.2102
0.6289,0.3464,-0.5333,-0.5419,1.3173,0.626,2.292,0.5544,-0.9566,-0.9408,0.0411,-0.4303,1.4388,0.5264,1.8562,0.2102
0.6289,0.3464,-0.5333,-0.5419,1.3173,0.626,2.292,0.5544,-0.9566,-0.9408,0.0411,-0.4303,1.4388,0.5264,1.8562,0.2102
0.6656,0.3612,-0.5017,-0.5272,1.3869,0.6303,2.3888,0.5807,-0.8742,-0.9322,0.1313,-0.4242,1.556,0.5305,1.9717,0.2309
0.6656,0.3612,-0.5017,-0.5272,1.3869,0.6303,2.3888,0.5807,-0.8742,-0.9322,0.1313,-0.4242,1.556,0.5305,1.9717,0.2309
0.6656,0.3612,-0.5017,-0.5272,1.3869,0.6303,2.3888,0.5807,-0.8742,-0.9322,0.1313,-0.4242,1.556,0.5305,1.9717,0.2309
0.7108,0.3638,-0.4223,-0.5359,1.4246,0.6459,2.4738,0.6249,-0.7851,-0.9006,0.2661,-0.4033,1.7497,0.542,2.1314,0.2649
0.7108,0.3638,-0.4223,-0.5359,1.4246,0.6459,2.4738,0.6249,-0.7851,-0.9006,0.2661,-0.4033,1.7497,0.542,2.1314,0.2649
0.7231,0.3687,-0.4004,-0.5372,1.4569,0.6345,2.4767,0.6374,-0.7672,-0.8943,0.3133,-0.4123,1.7555,0.5629,2.1764,0.2633
0.7231,0.3687,-0.4004,-0.5372,1.4569,0.6345,2.4767,0.6374,-0.7672,-0.8943,0.3133,-0.4123,1.7555,0.5629,2.1764,0.2633
0.7231,0.3687,-0.4004,-0.5372,1.4569,0.6345,2.4767,0.6374,-0.7672,-0.8943,0.3133,-0.4123,1.7555,0.5629,2.1764,0.2633
0.7439,0.3613,-0.4004,-0.5372,1.4569,0.6345,2.4767,0.6374,-0.7018,-0.8921,0.3536,-0.4113,1.7612,0.5839,2.2054,0.2722
0.7524,0.3491,-0.4203,-0.5236,1.4435,0.6537,2.4676,0.6339,-0.6424,-0.9131,0.3717,-0.4177,1.7238,0.6086,2.2171,0.2681
0.7439,0.3613,-0.4262,-0.5151,1.4435,0.6537,2.4585,0.6304,-0.583,-0.9341,0.3717,-0.4177,1.7343,0.5934,2.2215,0.2617
0.7439,0.3613,-0.4262,-0.5151,1.4435,0.6537,2.4585,0.6304,-0.583,-0.9341,0.3717,-0.4177,1.7343,0.5934,2.2215,0.2617
0.7439,0.3613,-0.4402,-0.5101,1.4435,0.6537,2.4464,0.6143,-0.6127,-0.9236,0.3536,-0.4113,1.7286,0.5724,2.2186,0.2532
0.7439,0.3613,-0.4402,-0.5101,1.4435,0.6537,2.4464,0.6143,-0.6127,-0.9236,0.3536,-0.4113,1.7286,0.5724,2.2186,0.2532
0.7439,0.3613,-0.4402,-0.5101,1.4435,0.6537,2.4464,0.6143,-0.6127,-0.9236,0.3536,-0.4113,1.7286,0.5724,2.2186,0.2532
0.7439,0.3613,-0.4402,-0.5101,1.4948,0.6501,2.4526,0.6054,-0.6063,-0.9005,0.3536,-0.4113,1.7286,0.5724,2.223,0.2468
0.7439,0.3613,-0.4402,-0.5101,1.4948,0.6501,2.4526,0.6054,-0.6063,-0.9005,0.3536,-0.4113,1.7286,0.5724,2.223,0.2468
0.7439,0.3613,-0.4402,-0.5101,1.4948,0.6501,2.4526,0.6054,-0.6063,-0.9005,0.3536,-0.4113,1.7286,0.5724,2.223,0.2468
0.7439,0.3613,-0.4262,-0.5151,1.5271,0.6387,2.4373,0.6108,-0.6658,-0.8795,0.3314,-0.4187,1.696,0.561,2.2012,0.2402
0.7108,0.3638,-0.4481,-0.5138,1.5081,0.6309,2.4343,0.5983,-0.7251,-0.8585,0.3203,-0.4225,1.7334,0.5363,2.1852,0.2506
0.7316,0.3564,-0.4481,-0.5138,1.5081,0.6309,2.4343,0.5983,-0.743,-0.8649,0.3273,-0.4326,1.717,0.5307,2.1663,0.2525
0.7316,0.3564,-0.4481,-0.5138,1.5081,0.6309,2.4343,0.5983,-0.743,-0.8649,0.3273,-0.4326,1.717,0.5307,2.1663,0.2525
0.7316,0.3564,-0.4481,-0.5138,1.5081,0.6309,2.4343,0.5983,-0.743,-0.8649,0.3273,-0.4326,1.717,0.5307,2.1663,0.2525
0.7401,0.3441,-0.4481,-0.5138,1.4625,0.6615,2.4281,0.6072,-0.761,-0.8712,0.3273,-0.4326,1.7008,0.525,2.159,0.2503
0.7401,0.3441,-0.4481,-0.5138,1.4625,0.6615,2.4281,0.6072,-0.761,-0.8712,0.3273,-0.4326,1.7008,0.525,2.159,0.2503
0.7401,0.3441,-0.4481,-0.5138,1.4625,0.6615,2.4281,0.6072,-0.761,-0.8712,0.3273,-0.4326,1.7008,0.525,2.159,0.2503
0.7609,0.3368,-0.4422,-0.5224,1.4625,0.6615,2.4343,0.5983,-0.7788,-0.8776,0.3384,-0.4289,1.7008,0.525,2.1474,0.2544
0.7524,0.3491,-0.4561,-0.5175,1.4302,0.6729,2.4497,0.5929,-0.7377,-0.9048,0.3314,-0.4187,1.674,0.5344,2.159,0.2503
0.7193,0.3515,-0.4581,-0.5297,1.4113,0.6651,2.4314,0.5858,-0.7493,-0.888,0.3355,-0.4049,1.717,0.5307,2.1707,0.2462
0.7193,0.3515,-0.4581,-0.5297,1.4113,0.6651,2.4314,0.5858,-0.7493,-0.888,0.3355,-0.4049,1.717,0.5307,2.1707,0.2462
0.7193,0.3515,-0.4581,-0.5297,1.4113,0.6651,2.4314,0.5858,-0.7493,-0.888,0.3355,-0.4049,1.717,0.5307,2.1707,0.2462
0.7193,0.3515,-0.4601,-0.542,1.4113,0.6651,2.4223,0.5823,-0.7377,-0.9048,0.3244,-0.4086,1.717,0.5307,2.1678,0.2377
0.7193,0.3515,-0.4601,-0.542,1.4113,0.6651,2.4223,0.5823,-0.7377,-0.9048,0.3244,-0.4086,1.717,0.5307,2.1678,0.2377
0.7071,0.3466,-0.4759,-0.5493,1.3924,0.6573,2.3826,0.5896,-0.7493,-0.888,0.3133,-0.4123,1.7544,0.506,2.1649,0.2292
0.7071,0.3466,-0.4759,-0.5493,1.3924,0.6573,2.3826,0.5896,-0.7493,-0.888,0.3133,-0.4123,1.7544,0.506,2.1649,0.2292
0.6825,0.3367,-0.478,-0.5615,1.3548,0.6416,2.3401,0.5844,-0.7672,-0.8943,0.2912,-0.4198,1.738,0.5004,2.1389,0.2288
0.6825,0.3367,-0.478,-0.5615,1.3548,0.6416,2.3401,0.5844,-0.7672,-0.8943,0.2912,-0.4198,1.738,0.5004,2.1389,0.2288
0.6995,0.3123,-0.4859,-0.5651,1.3227,0.6529,2.3068,0.5828,-0.7672,-0.8943,0.2691,-0.4273,1.7008,0.525,2.1172,0.2222
0.6995,0.3123,-0.4859,-0.5651,1.3227,0.6529,2.3068,0.5828,-0.7672,-0.8943,0.2691,-0.4273,1.7008,0.525,2.1172,0.2222
0.6995,0.3123,-0.5057,-0.5517,1.3227,0.6529,2.2887,0.5757,-0.7672,-0.8943,0.247,-0.4347,1.6473,0.5439,2.0955,0.2156
