21.619,106.03,-8.3272,101.88,-97.464,-9.751,-54.76,101.07,-76.654,50.833,24.783,81.306,-43.316,31.769,-14.554,55.505
21.619,106.03,-8.3272,101.88,-97.464,-9.751,-54.76,101.07,-76.654,50.833,24.783,81.306,-43.316,31.769,-14.554,55.505
20.727,105.65,-8.588,101.16,-96.868,-9.2885,-55.143,100.48,-76.83,50.123,24.359,80.449,-43.488,30.959,-14.802,54.811
20.727,105.65,-8.588,101.16,-96.868,-9.2885,-55.143,100.48,-76.83,50.123,24.359,80.449,-43.488,30.959,-14.802,54.811
20.727,105.65,-8.588,101.16,-96.868,-9.2885,-55.143,100.48,-76.83,50.123,24.359,80.449,-43.488,30.959,-14.802,54.811
19.836,105.27,-8.8474,100.43,-96.268,-8.8252,-55.522,99.898,-77,49.411,23.935,79.59,-43.657,30.148,-15.049,54.116
19.836,105.27,-8.8474,100.43,-96.268,-8.8252,-55.522,99.898,-77,49.411,23.935,79.59,-43.657,30.148,-15.049,54.116
18.947,104.89,-9.1054,99.692,-95.663,-8.3612,-55.897,99.309,-77.165,48.699,23.51,78.729,-43.823,29.337,-15.293,53.42
18.059,104.5,-9.3619,98.956,-95.054,-7.8965,-56.267,98.717,-77.325,47.986,23.085,77.866,-43.985,28.524,-15.534,52.724
17.172,104.11,-9.617,98.218,-94.44,-7.4312,-56.633,98.122,-77.478,47.272,22.66,77.001,-44.144,27.71,-15.774,52.027
17.172,104.11,-9.617,98.218,-94.44,-7.4312,-56.633,98.122,-77.478,47.272,22.66,77.001,-44.144,27.71,-15.774,52.027
17.172,104.11,-9.617,98.218,-94.44,-7.4312,-56.633,98.122,-77.478,47.272,22.66,77.001,-44.144,27.71,-15.774,52.027
16.287,103.72,-9.8706,97.477,-93.822,-6.9653,-56.995,97.525,-77.626,46.558,22.235,76.134,-44.298,26.896,-16.011,51.329
16.287,103.72,-9.8706,97.477,-93.822,-6.9653,-56.995,97.525,-77.626,46.558,22.235,76.134,-44.298,26.896,-16.011,51.329
16.287,103.72,-9.8706,97.477,-93.822,-6.9653,-56.995,97.525,-77.626,46.558,22.235,76.134,-44.298,26.896,-16.011,51.329
14.522,102.92,-10.373,95.987,-92.573,-6.0319,-57.705,96.323,-77.905,45.127,21.384,74.394,-44.597,25.265,-16.477,49.932
14.522,102.92,-10.373,95.987,-92.573,-6.0319,-57.705,96.323,-77.905,45.127,21.384,74.394,-44.597,25.265,-16.477,49.932
13.641,102.52,-10.622,95.238,-91.942,-5.5645,-58.054,95.718,-78.036,44.412,20.958,73.522,-44.741,24.449,-16.707,49.233
13.641,102.52,-10.622,95.238,-91.942,-5.5645,-58.054,95.718,-78.036,44.412,20.958,73.522,-44.741,24.449,-16.707,49.233
12.763,102.11,-10.87,94.488,-91.306,-5.0967,-58.398,95.111,-78.161,43.695,20.533,72.648,-44.881,23.632,-16.935,48.533
12.763,102.11,-10.87,94.488,-91.306,-5.0967,-58.398,95.111,-78.161,43.695,20.533,72.648,-44.881,23.632,-16.935,48.533
11.886,101.7,-11.115,93.735,-90.667,-4.6286,-58.737,94.502,-78.28,42.979,20.107,71.773,-45.017,22.814,-17.159,47.833
11.886,101.7,-11.115,93.735,-90.667,-4.6286,-58.737,94.502,-78.28,42.979,20.107,71.773,-45.017,22.814,-17.159,47.833
11.886,101.7,-11.115,93.735,-90.667,-4.6286,-58.737,94.502,-78.28,42.979,20.107,71.773,-45.017,22.814,-17.159,47.833
11.012,101.29,-11.36,92.98,-90.023,-4.1601,-59.072,93.89,-78.393,42.262,19.682,70.896,-45.149,21.996,-17.382,47.133
11.012,101.29,-11.36,92.98,-90.023,-4.1601,-59.072,93.89,-78.393,42.262,19.682,70.896,-45.149,21.996,-17.382,47.133
10.139,100.88,-11.602,92.222,-89.376,-3.6914,-59.403,93.276,-78.5,41.545,19.257,70.018,-45.277,21.178,-17.601,46.432
10.139,100.88,-11.602,92.222,-89.376,-3.6914,-59.403,93.276,-78.5,41.545,19.257,70.018,-45.277,21.178,-17.601,46.432
9.269,100.46,-11.843,91.463,-88.724,-3.2224,-59.729,92.66,-78.602,40.828,18.832,69.139,-45.402,20.359,-17.819,45.731
9.269,100.46,-11.843,91.463,-88.724,-3.2224,-59.729,92.66,-78.602,40.828,18.832,69.139,-45.402,20.359,-17.819,45.731
8.4008,100.04,-12.083,90.702,-88.068,-2.7533,-60.05,92.042,-78.697,40.111,18.407,68.258,-45.522,19.54,-18.033,45.03
8.4008,100.04,-12.083,90.702,-88.068,-2.7533,-60.05,92.042,-78.697,40.111,18.407,68.258,-45.522,19.54,-18.033,45.03
7.535,99.623,-12.32,89.939,-87.408,-2.284,-60.367,91.422,-78.786,39.394,17.983,67.376,-45.639,18.721,-18.245,44.329
7.535,99.623,-12.32,89.939,-87.408,-2.284,-60.367,91.422,-78.786,39.394,17.983,67.376,-45.639,18.721,-18.245,44.329
5.8106,98.772,-12.79,88.407,-86.077,-1.3453,-60.987,90.175,-78.947,37.96,17.136,65.609,-45.86,17.083,-18.661,42.926
5.8106,98.772,-12.79,88.407,-86.077,-1.3453,-60.987,90.175,-78.947,37.96,17.136,65.609,-45.86,17.083,-18.661,42.926
5.8106,98.772,-12.79,88.407,-86.077,-1.3453,-60.987,90.175,-78.947,37.96,17.136,65.609,-45.86,17.083,-18.661,42.926
4.9522,98.343,-13.023,87.639,-85.406,-0.87596,-61.289,89.549,-79.018,37.244,16.713,64.724,-45.964,16.264,-18.866,42.224
4.9522,98.343,-13.023,87.639,-85.406,-0.87596,-61.289,89.549,-79.018,37.244,16.713,64.724,-45.964,16.264,-18.866,42.224
4.9522,98.343,-13.023,87.639,-85.406,-0.87596,-61.289,89.549,-79.018,37.244,16.713,64.724,-45.964,16.264,-18.866,42.224
4.0964,97.912,-13.254,86.869,-84.731,-0.40666,-61.587,88.921,-79.083,36.528,16.291,63.838,-46.065,15.445,-19.067,41.522
4.0964,97.912,-13.254,86.869,-84.731,-0.40666,-61.587,88.921,-79.083,36.528,16.291,63.838,-46.065,15.445,-19.067,41.522
3.2433,97.478,-13.482,86.098,-84.053,0.062523,-61.881,88.292,-79.142,35.812,15.869,62.951,-46.161,14.626,-19.266,40.821
3.2433,97.478,-13.482,86.098,-84.053,0.062523,-61.881,88.292,-79.142,35.812,15.869,62.951,-46.161,14.626,-19.266,40.821
3.2433,97.478,-13.482,86.098,-84.053,0.062523,-61.881,88.292,-79.142,35.812,15.869,62.951,-46.161,14.626,-19.266,40.821
2.3931,97.043,-13.71,85.325,-83.37,0.53155,-62.169,87.661,-79.195,35.097,15.447,62.064,-46.253,13.807,-19.462,40.119
2.3931,97.043,-13.71,85.325,-83.37,0.53155,-62.169,87.661,-79.195,35.097,15.447,62.064,-46.253,13.807,-19.462,40.119
0.70126,96.165,-14.158,83.776,-81.995,1.4689,-62.732,86.393,-79.283,33.667,14.607,60.287,-46.424,12.171,-19.845,38.717
0.70126,96.165,-14.158,83.776,-81.995,1.4689,-62.732,86.393,-79.283,33.667,14.607,60.287,-46.424,12.171,-19.845,38.717
-0.14011,95.724,-14.38,82.999,-81.302,1.9372,-63.006,85.757,-79.317,32.954,14.188,59.398,-46.504,11.353,-20.033,38.016
-0.14011,95.724,-14.38,82.999,-81.302,1.9372,-63.006,85.757,-79.317,32.954,14.188,59.398,-46.504,11.353,-20.033,38.016
-0.14011,95.724,-14.38,82.999,-81.302,1.9372,-63.006,85.757,-79.317,32.954,14.188,59.398,-46.504,11.353,-20.033,38.016
-0.97836,95.28,-14.6,82.222,-80.606,2.4051,-63.276,85.12,-79.345,32.241,13.77,58.508,-46.579,10.536,-20.218,37.315
-1.8134,94.834,-14.818,81.443,-79.907,2.8726,-63.54,84.481,-79.367,31.529,13.352,57.618,-46.65,9.7191,-20.4,36.615
-1.8134,94.834,-14.818,81.443,-79.907,2.8726,-63.54,84.481,-79.367,31.529,13.352,57.618,-46.65,9.7191,-20.4,36.615
-2.6452,94.387,-15.034,80.663,-79.204,3.3397,-63.8,83.841,-79.382,30.818,12.936,56.728,-46.716,8.903,-20.579,35.915
-2.6452,94.387,-15.034,80.663,-79.204,3.3397,-63.8,83.841,-79.382,30.818,12.936,56.728,-46.716,8.903,-20.579,35.915
-3.4736,93.938,-15.248,79.882,-78.498,3.8063,-64.055,83.199,-79.392,30.107,12.52,55.837,-46.778,8.0876,-20.755,35.215
-3.4736,93.938,-15.248,79.882,-78.498,3.8063,-64.055,83.199,-79.392,30.107,12.52,55.837,-46.778,8.0876,-20.755,35.215
-4.2986,93.487,-15.46,79.101,-77.788,4.2723,-64.304,82.556,-79.394,29.398,12.106,54.947,-46.836,7.2729,-20.928,34.516
-4.2986,93.487,-15.46,79.101,-77.788,4.2723,-64.304,82.556,-79.394,29.398,12.106,54.947,-46.836,7.2729,-20.928,34.516
-5.12,93.035,-15.67,78.319,-77.076,4.7378,-64.549,81.912,-79.391,28.69,11.692,54.056,-46.889,6.459,-21.099,33.817
-5.9379,92.581,-15.878,77.536,-76.36,5.2025,-64.789,81.267,-79.381,27.982,11.28,53.165,-46.938,5.646,-21.266,33.119
-5.9379,92.581,-15.878,77.536,-76.36,5.2025,-64.789,81.267,-79.381,27.982,11.28,53.165,-46.938,5.646,-21.266,33.119
-6.752,92.125,-16.084,76.752,-75.642,5.6666,-65.024,80.621,-79.365,27.276,10.868,52.274,-46.983,4.8338,-21.431,32.421
-6.752,92.125,-16.084,76.752,-75.642,5.6666,-65.024,80.621,-79.365,27.276,10.868,52.274,-46.983,4.8338,-21.431,32.421
-6.752,92.125,-16.084,76.752,-75.642,5.6666,-65.024,80.621,-79.365,27.276,10.868,52.274,-46.983,4.8338,-21.431,32.421
-7.5625,91.668,-16.289,75.968,-74.92,6.13,-65.254,79.974,-79.343,26.572,10.458,51.384,-47.023,4.0227,-21.593,31.724
-7.5625,91.668,-16.289,75.968,-74.92,6.13,-65.254,79.974,-79.343,26.572,10.458,51.384,-47.023,4.0227,-21.593,31.724
-8.3691,91.21,-16.491,75.183,-74.196,6.5926,-65.479,79.326,-79.314,25.868,10.049,50.493,-47.058,3.2126,-21.751,31.028
-8.3691,91.21,-16.491,75.183,-74.196,6.5926,-65.479,79.326,-79.314,25.868,10.049,50.493,-47.058,3.2126,-21.751,31.028
-9.1718,90.751,-16.691,74.398,-73.468,7.0543,-65.699,78.677,-79.279,25.166,9.6417,49.603,-47.089,2.4036,-21.907,30.332
-9.9705,90.29,-16.889,73.612,-72.738,7.5152,-65.914,78.027,-79.237,24.465,9.2354,48.713,-47.115,1.5957,-22.06,29.637
-9.9705,90.29,-16.889,73.612,-72.738,7.5152,-65.914,78.027,-79.237,24.465,9.2354,48.713,-47.115,1.5957,-22.06,29.637
-10.765,89.828,-17.085,72.827,-72.005,7.9751,-66.124,77.377,-79.189,23.766,8.8305,47.823,-47.137,0.78915,-22.209,28.943
-10.765,89.828,-17.085,72.827,-72.005,7.9751,-66.124,77.377,-79.189,23.766,8.8305,47.823,-47.137,0.78915,-22.209,28.943
-11.556,89.365,-17.279,72.041,-71.269,8.434,-66.328,76.725,-79.134,23.068,8.427,46.934,-47.154,-0.016152,-22.356,28.249
-11.556,89.365,-17.279,72.041,-71.269,8.434,-66.328,76.725,-79.134,23.068,8.427,46.934,-47.154,-0.016152,-22.356,28.249
-11.556,89.365,-17.279,72.041,-71.269,8.434,-66.328,76.725,-79.134,23.068,8.427,46.934,-47.154,-0.016152,-22.356,28.249
-12.342,88.901,-17.471,71.254,-70.531,8.8919,-66.528,76.073,-79.073,22.372,8.025,46.046,-47.167,-0.82009,-22.5,27.557
-12.342,88.901,-17.471,71.254,-70.531,8.8919,-66.528,76.073,-79.073,22.372,8.025,46.046,-47.167,-0.82009,-22.5,27.557
-13.124,88.437,-17.66,70.468,-69.79,9.3487,-66.723,75.421,-79.005,21.678,7.6245,45.158,-47.175,-1.6226,-22.64,26.865
-13.902,87.971,-17.848,69.682,-69.046,9.8044,-66.912,74.768,-78.931,20.985,7.2255,44.271,-47.178,-2.4236,-22.778,26.174
-13.902,87.971,-17.848,69.682,-69.046,9.8044,-66.912,74.768,-78.931,20.985,7.2255,44.271,-47.178,-2.4236,-22.778,26.174
-13.902,87.971,-17.848,69.682,-69.046,9.8044,-66.912,74.768,-78.931,20.985,7.2255,44.271,-47.178,-2.4236,-22.778,26.174
-14.675,87.504,-18.033,68.896,-68.3,10.259,-67.096,74.114,-78.851,20.295,6.8281,43.384,-47.177,-3.2231,-22.912,25.485
-14.675,87.504,-18.033,68.896,-68.3,10.259,-67.096,74.114,-78.851,20.295,6.8281,43.384,-47.177,-3.2231,-22.912,25.485
-14.675,87.504,-18.033,68.896,-68.3,10.259,-67.096,74.114,-78.851,20.295,6.8281,43.384,-47.177,-3.2231,-22.912,25.485
-14.675,87.504,-18.033,68.896,-68.3,10.259,-67.096,74.114,-78.851,20.295,6.8281,43.384,-47.177,-3.2231,-22.912,25.485
-16.208,86.569,-18.397,67.325,-66.801,11.164,-67.45,72.805,-78.67,18.919,6.0383,41.614,-47.16,-4.8172,-23.171,24.109
-16.208,86.569,-18.397,67.325,-66.801,11.164,-67.45,72.805,-78.67,18.919,6.0383,41.614,-47.16,-4.8172,-23.171,24.109
-16.968,86.1,-18.576,66.539,-66.048,11.615,-67.619,72.151,-78.57,18.234,5.6459,40.73,-47.145,-5.6117,-23.296,23.422
-17.723,85.63,-18.753,65.754,-65.292,12.064,-67.782,71.496,-78.464,17.551,5.2553,39.847,-47.125,-6.4044,-23.418,22.737
-17.723,85.63,-18.753,65.754,-65.292,12.064,-67.782,71.496,-78.464,17.551,5.2553,39.847,-47.125,-6.4044,-23.418,22.737
-18.473,85.161,-18.927,64.969,-64.535,12.512,-67.941,70.84,-78.35,16.87,4.8665,38.966,-47.1,-7.1953,-23.537,22.053
-18.473,85.161,-18.927,64.969,-64.535,12.512,-67.941,70.84,-78.35,16.87,4.8665,38.966,-47.1,-7.1953,-23.537,22.053
-19.218,84.69,-19.099,64.185,-63.775,12.959,-68.094,70.185,-78.231,16.191,4.4796,38.085,-47.07,-7.9842,-23.652,21.37
-19.218,84.69,-19.099,64.185,-63.775,12.959,-68.094,70.185,-78.231,16.191,4.4796,38.085,-47.07,-7.9842,-23.652,21.37
-19.218,84.69,-19.099,64.185,-63.775,12.959,-68.094,70.185,-78.231,16.191,4.4796,38.085,-47.07,-7.9842,-23.652,21.37
-19.959,84.22,-19.269,63.402,-63.013,13.404,-68.242,69.529,-78.105,15.515,4.0945,37.206,-47.036,-8.7711,-23.765,20.688
-19.959,84.22,-19.269,63.402,-63.013,13.404,-68.242,69.529,-78.105,15.515,4.0945,37.206,-47.036,-8.7711,-23.765,20.688
-20.694,83.749,-19.436,62.619,-62.249,13.847,-68.385,68.874,-77.972,14.841,3.7114,36.328,-46.996,-9.556,-23.874,20.008
-20.694,83.749,-19.436,62.619,-62.249,13.847,-68.385,68.874,-77.972,14.841,3.7114,36.328,-46.996,-9.556,-23.874,20.008
-21.425,83.277,-19.602,61.837,-61.483,14.289,-68.523,68.218,-77.832,14.169,3.3303,35.451,-46.952,-10.339,-23.98,19.329
-21.425,83.277,-19.602,61.837,-61.483,14.289,-68.523,68.218,-77.832,14.169,3.3303,35.451,-46.952,-10.339,-23.98,19.329
-22.15,82.806,-19.765,61.055,-60.715,14.729,-68.655,67.563,-77.686,13.5,2.9512,34.576,-46.904,-11.12,-24.083,18.652
-22.15,82.806,-19.765,61.055,-60.715,14.729,-68.655,67.563,-77.686,13.5,2.9512,34.576,-46.904,-11.12,-24.083,18.652
-22.87,82.334,-19.925,60.275,-59.945,15.167,-68.782,66.907,-77.534,12.833,2.5742,33.702,-46.85,-11.898,-24.182,17.975
-22.87,82.334,-19.925,60.275,-59.945,15.167,-68.782,66.907,-77.534,12.833,2.5742,33.702,-46.85,-11.898,-24.182,17.975
-23.585,81.862,-20.084,59.495,-59.173,15.604,-68.904,66.252,-77.375,12.169,2.1992,32.83,-46.791,-12.674,-24.279,17.301
-23.585,81.862,-20.084,59.495,-59.173,15.604,-68.904,66.252,-77.375,12.169,2.1992,32.83,-46.791,-12.674,-24.279,17.301
-24.294,81.391,-20.24,58.716,-58.4,16.039,-69.021,65.597,-77.209,11.507,1.8264,31.959,-46.728,-13.448,-24.372,16.628
-24.294,81.391,-20.24,58.716,-58.4,16.039,-69.021,65.597,-77.209,11.507,1.8264,31.959,-46.728,-13.448,-24.372,16.628
-24.999,80.919,-20.393,57.939,-57.624,16.472,-69.132,64.942,-77.037,10.848,1.4558,31.09,-46.66,-14.219,-24.462,15.956
-25.697,80.448,-20.545,57.162,-56.848,16.903,-69.239,64.288,-76.858,10.192,1.0874,30.223,-46.587,-14.988,-24.548,15.286
-25.697,80.448,-20.545,57.162,-56.848,16.903,-69.239,64.288,-76.858,10.192,1.0874,30.223,-46.587,-14.988,-24.548,15.286
-26.391,79.976,-20.693,56.387,-56.069,17.332,-69.34,63.634,-76.673,9.5386,0.72121,29.358,-46.509,-15.755,-24.632,14.618
-26.391,79.976,-20.693,56.387,-56.069,17.332,-69.34,63.634,-76.673,9.5386,0.72121,29.358,-46.509,-15.755,-24.632,14.618
-26.391,79.976,-20.693,56.387,-56.069,17.332,-69.34,63.634,-76.673,9.5386,0.72121,29.358,-46.509,-15.755,-24.632,14.618
-27.078,79.505,-20.84,55.613,-55.289,17.76,-69.435,62.98,-76.481,8.8879,0.35736,28.494,-46.426,-16.519,-24.712,13.952
-27.078,79.505,-20.84,55.613,-55.289,17.76,-69.435,62.98,-76.481,8.8879,0.35736,28.494,-46.426,-16.519,-24.712,13.952
-27.76,79.034,-20.984,54.84,-54.508,18.185,-69.526,62.327,-76.282,8.2401,-0.0041462,27.633,-46.338,-17.28,-24.789,13.287
-28.437,78.564,-21.126,54.068,-53.725,18.608,-69.611,61.675,-76.077,7.5952,-0.36328,26.773,-46.245,-18.039,-24.862,12.624
-28.437,78.564,-21.126,54.068,-53.725,18.608,-69.611,61.675,-76.077,7.5952,-0.36328,26.773,-46.245,-18.039,-24.862,12.624
-28.437,78.564,-21.126,54.068,-53.725,18.608,-69.611,61.675,-76.077,7.5952,-0.36328,26.773,-46.245,-18.039,-24.862,12.624
-29.107,78.094,-21.265,53.298,-52.94,19.03,-69.69,61.023,-75.866,6.9534,-0.71999,25.915,-46.148,-18.795,-24.933,11.963
-29.772,77.624,-21.402,52.53,-52.155,19.449,-69.765,60.371,-75.648,6.3146,-1.0743,25.06,-46.045,-19.548,-25,11.303
-29.772,77.624,-21.402,52.53,-52.155,19.449,-69.765,60.371,-75.648,6.3146,-1.0743,25.06,-46.045,-19.548,-25,11.303
-29.772,77.624,-21.402,52.53,-52.155,19.449,-69.765,60.371,-75.648,6.3146,-1.0743,25.06,-46.045,-19.548,-25,11.303
-30.431,77.155,-21.536,51.763,-51.368,19.866,-69.834,59.721,-75.423,5.6789,-1.426,24.207,-45.938,-20.298,-25.064,10.646
-30.431,77.155,-21.536,51.763,-51.368,19.866,-69.834,59.721,-75.423,5.6789,-1.426,24.207,-45.938,-20.298,-25.064,10.646
-30.431,77.155,-21.536,51.763,-51.368,19.866,-69.834,59.721,-75.423,5.6789,-1.426,24.207,-45.938,-20.298,-25.064,10.646
-31.084,76.686,-21.668,50.997,-50.58,20.28,-69.898,59.071,-75.192,5.0464,-1.7753,23.356,-45.826,-21.045,-25.124,9.9899
-31.731,76.219,-21.797,50.234,-49.791,20.693,-69.957,58.422,-74.954,4.417,-2.122,22.507,-45.708,-21.79,-25.181,9.3362
-32.372,75.752,-21.924,49.472,-49.001,21.103,-70.01,57.774,-74.709,3.791,-2.466,21.661,-45.586,-22.531,-25.235,8.6845
-32.372,75.752,-21.924,49.472,-49.001,21.103,-70.01,57.774,-74.709,3.791,-2.466,21.661,-45.586,-22.531,-25.235,8.6845
-33.007,75.285,-22.049,48.712,-48.209,21.511,-70.058,57.127,-74.458,3.1683,-2.8075,20.817,-45.459,-23.269,-25.286,8.0348
-33.007,75.285,-22.049,48.712,-48.209,21.511,-70.058,57.127,-74.458,3.1683,-2.8075,20.817,-45.459,-23.269,-25.286,8.0348
-33.007,75.285,-22.049,48.712,-48.209,21.511,-70.058,57.127,-74.458,3.1683,-2.8075,20.817,-45.459,-23.269,-25.286,8.0348
-33.636,74.82,-22.171,47.954,-47.417,21.916,-70.101,56.481,-74.201,2.5489,-3.1463,19.976,-45.327,-24.004,-25.333,7.3872
-33.636,74.82,-22.171,47.954,-47.417,21.916,-70.101,56.481,-74.201,2.5489,-3.1463,19.976,-45.327,-24.004,-25.333,7.3872
-33.636,74.82,-22.171,47.954,-47.417,21.916,-70.101,56.481,-74.201,2.5489,-3.1463,19.976,-45.327,-24.004,-25.333,7.3872
-34.258,74.355,-22.29,47.197,-46.624,22.319,-70.138,55.835,-73.937,1.933,-3.4823,19.137,-45.19,-24.736,-25.377,6.7417
-34.258,74.355,-22.29,47.197,-46.624,22.319,-70.138,55.835,-73.937,1.933,-3.4823,19.137,-45.19,-24.736,-25.377,6.7417
-34.875,73.892,-22.407,46.443,-45.83,22.72,-70.17,55.191,-73.666,1.3206,-3.8156,18.301,-45.048,-25.465,-25.418,6.0984
-34.875,73.892,-22.407,46.443,-45.83,22.72,-70.17,55.191,-73.666,1.3206,-3.8156,18.301,-45.048,-25.465,-25.418,6.0984
-36.088,72.967,-22.633,44.941,-44.24,23.513,-70.218,53.906,-73.106,0.10635,-4.4739,16.636,-44.749,-26.912,-25.489,4.8182
-36.088,72.967,-22.633,44.941,-44.24,23.513,-70.218,53.906,-73.106,0.10635,-4.4739,16.636,-44.749,-26.912,-25.489,4.8182
-36.088,72.967,-22.633,44.941,-44.24,23.513,-70.218,53.906,-73.106,0.10635,-4.4739,16.636,-44.749,-26.912,-25.489,4.8182
-36.686,72.507,-22.742,44.193,-43.444,23.906,-70.235,53.266,-72.816,-0.49533,-4.7988,15.808,-44.592,-27.631,-25.52,4.1815
-36.686,72.507,-22.742,44.193,-43.444,23.906,-70.235,53.266,-72.816,-0.49533,-4.7988,15.808,-44.592,-27.631,-25.52,4.1815
-37.277,72.048,-22.849,43.447,-42.647,24.297,-70.246,52.627,-72.519,-1.0933,-5.1208,14.983,-44.431,-28.346,-25.548,3.547
-37.277,72.048,-22.849,43.447,-42.647,24.297,-70.246,52.627,-72.519,-1.0933,-5.1208,14.983,-44.431,-28.346,-25.548,3.547
-37.861,71.59,-22.953,42.704,-41.849,24.685,-70.251,51.989,-72.216,-1.6876,-5.4399,14.161,-44.264,-29.057,-25.572,2.9149
-37.861,71.59,-22.953,42.704,-41.849,24.685,-70.251,51.989,-72.216,-1.6876,-5.4399,14.161,-44.264,-29.057,-25.572,2.9149
-38.439,71.133,-23.055,41.963,-41.052,25.07,-70.252,51.352,-71.907,-2.2781,-5.7561,13.341,-44.093,-29.766,-25.593,2.2851
-39.01,70.678,-23.154,41.224,-40.253,25.452,-70.247,50.717,-71.591,-2.8647,-6.0693,12.525,-43.916,-30.47,-25.61,1.6578
-39.01,70.678,-23.154,41.224,-40.253,25.452,-70.247,50.717,-71.591,-2.8647,-6.0693,12.525,-43.916,-30.47,-25.61,1.6578
-39.01,70.678,-23.154,41.224,-40.253,25.452,-70.247,50.717,-71.591,-2.8647,-6.0693,12.525,-43.916,-30.47,-25.61,1.6578
-39.574,70.224,-23.25,40.488,-39.455,25.832,-70.237,50.083,-71.269,-3.4474,-6.3795,11.711,-43.735,-31.171,-25.624,1.0328
-39.574,70.224,-23.25,40.488,-39.455,25.832,-70.237,50.083,-71.269,-3.4474,-6.3795,11.711,-43.735,-31.171,-25.624,1.0328
-39.574,70.224,-23.25,40.488,-39.455,25.832,-70.237,50.083,-71.269,-3.4474,-6.3795,11.711,-43.735,-31.171,-25.624,1.0328
-40.132,69.772,-23.344,39.754,-38.656,26.209,-70.221,49.451,-70.94,-4.0263,-6.6866,10.901,-43.548,-31.868,-25.635,0.41031
-40.132,69.772,-23.344,39.754,-38.656,26.209,-70.221,49.451,-70.94,-4.0263,-6.6866,10.901,-43.548,-31.868,-25.635,0.41031
-41.227,68.871,-23.524,38.295,-37.057,26.954,-70.175,48.191,-70.264,-5.1719,-7.2917,9.2903,-43.161,-33.251,-25.647,-0.82717
-41.227,68.871,-23.524,38.295,-37.057,26.954,-70.175,48.191,-70.264,-5.1719,-7.2917,9.2903,-43.161,-33.251,-25.647,-0.82717
-41.765,68.424,-23.61,37.569,-36.258,27.323,-70.144,47.564,-69.916,-5.7387,-7.5896,8.4897,-42.96,-33.936,-25.649,-1.4421
-41.765,68.424,-23.61,37.569,-36.258,27.323,-70.144,47.564,-69.916,-5.7387,-7.5896,8.4897,-42.96,-33.936,-25.649,-1.4421
-41.765,68.424,-23.61,37.569,-36.258,27.323,-70.144,47.564,-69.916,-5.7387,-7.5896,8.4897,-42.96,-33.936,-25.649,-1.4421
-41.765,68.424,-23.61,37.569,-36.258,27.323,-70.144,47.564,-69.916,-5.7387,-7.5896,8.4897,-42.96,-33.936,-25.649,-1.4421
-42.295,67.978,-23.693,36.846,-35.458,27.689,-70.107,46.939,-69.562,-6.3013,-7.8843,7.6925,-42.754,-34.618,-25.646,-2.0544
-42.295,67.978,-23.693,36.846,-35.458,27.689,-70.107,46.939,-69.562,-6.3013,-7.8843,7.6925,-42.754,-34.618,-25.646,-2.0544
-42.819,67.533,-23.774,36.126,-34.659,28.051,-70.066,46.315,-69.201,-6.8598,-8.1758,6.8986,-42.543,-35.296,-25.641,-2.6641
-43.336,67.091,-23.852,35.409,-33.859,28.411,-70.019,45.693,-68.834,-7.414,-8.4641,6.1082,-42.327,-35.969,-25.632,-3.2712
-43.336,67.091,-23.852,35.409,-33.859,28.411,-70.019,45.693,-68.834,-7.414,-8.4641,6.1082,-42.327,-35.969,-25.632,-3.2712
-43.845,66.65,-23.928,34.694,-33.06,28.768,-69.967,45.073,-68.461,-7.964,-8.7492,5.3212,-42.106,-36.639,-25.62,-3.8755
-44.348,66.212,-24.001,33.983,-32.261,29.121,-69.909,44.454,-68.082,-8.5097,-9.031,4.5378,-41.881,-37.304,-25.605,-4.4771
-44.348,66.212,-24.001,33.983,-32.261,29.121,-69.909,44.454,-68.082,-8.5097,-9.031,4.5378,-41.881,-37.304,-25.605,-4.4771
-44.843,65.775,-24.071,33.274,-31.462,29.472,-69.847,43.838,-67.696,-9.0511,-9.3095,3.758,-41.651,-37.966,-25.586,-5.076
-44.843,65.775,-24.071,33.274,-31.462,29.472,-69.847,43.838,-67.696,-9.0511,-9.3095,3.758,-41.651,-37.966,-25.586,-5.076
-44.843,65.775,-24.071,33.274,-31.462,29.472,-69.847,43.838,-67.696,-9.0511,-9.3095,3.758,-41.651,-37.966,-25.586,-5.076
-45.332,65.34,-24.139,32.569,-30.663,29.82,-69.78,43.224,-67.304,-9.588,-9.5847,2.9818,-41.415,-38.623,-25.564,-5.6721
-45.332,65.34,-24.139,32.569,-30.663,29.82,-69.78,43.224,-67.304,-9.588,-9.5847,2.9818,-41.415,-38.623,-25.564,-5.6721
-45.813,64.907,-24.204,31.867,-29.865,30.164,-69.707,42.612,-66.906,-10.121,-9.8565,2.2093,-41.175,-39.276,-25.539,-6.2654
-46.287,64.477,-24.266,31.167,-29.067,30.506,-69.629,42.001,-66.502,-10.649,-10.125,1.4405,-40.931,-39.924,-25.511,-6.8558
-46.287,64.477,-24.266,31.167,-29.067,30.506,-69.629,42.001,-66.502,-10.649,-10.125,1.4405,-40.931,-39.924,-25.511,-6.8558
-46.287,64.477,-24.266,31.167,-29.067,30.506,-69.629,42.001,-66.502,-10.649,-10.125,1.4405,-40.931,-39.924,-25.511,-6.8558
-46.754,64.048,-24.326,30.472,-28.269,30.844,-69.546,41.393,-66.091,-11.172,-10.39,0.67556,-40.681,-40.568,-25.479,-7.4433
-46.754,64.048,-24.326,30.472,-28.269,30.844,-69.546,41.393,-66.091,-11.172,-10.39,0.67556,-40.681,-40.568,-25.479,-7.4433
-47.214,63.622,-24.383,29.779,-27.472,31.179,-69.458,40.788,-65.675,-11.691,-10.652,-0.085606,-40.427,-41.208,-25.445,-8.0279
-47.214,63.622,-24.383,29.779,-27.472,31.179,-69.458,40.788,-65.675,-11.691,-10.652,-0.085606,-40.427,-41.208,-25.445,-8.0279
-47.666,63.198,-24.437,29.09,-26.676,31.512,-69.364,40.184,-65.252,-12.206,-10.91,-0.84289,-40.167,-41.843,-25.407,-8.6096
-47.666,63.198,-24.437,29.09,-26.676,31.512,-69.364,40.184,-65.252,-12.206,-10.91,-0.84289,-40.167,-41.843,-25.407,-8.6096
-48.111,62.777,-24.489,28.404,-25.88,31.84,-69.266,39.583,-64.823,-12.715,-11.165,-1.5963,-39.903,-42.474,-25.365,-9.1884
-48.549,62.357,-24.538,27.721,-25.085,32.166,-69.163,38.984,-64.388,-13.22,-11.416,-2.3457,-39.635,-43.101,-25.321,-9.7641
-48.549,62.357,-24.538,27.721,-25.085,32.166,-69.163,38.984,-64.388,-13.22,-11.416,-2.3457,-39.635,-43.101,-25.321,-9.7641
-48.979,61.94,-24.584,27.042,-24.291,32.488,-69.054,38.387,-63.947,-13.721,-11.664,-3.091,-39.361,-43.722,-25.273,-10.337
-48.979,61.94,-24.584,27.042,-24.291,32.488,-69.054,38.387,-63.947,-13.721,-11.664,-3.091,-39.361,-43.722,-25.273,-10.337
-48.979,61.94,-24.584,27.042,-24.291,32.488,-69.054,38.387,-63.947,-13.721,-11.664,-3.091,-39.361,-43.722,-25.273,-10.337
-49.402,61.526,-24.628,26.366,-23.498,32.807,-68.941,37.793,-63.5,-14.216,-11.908,-3.8324,-39.083,-44.339,-25.223,-10.906
-49.402,61.526,-24.628,26.366,-23.498,32.807,-68.941,37.793,-63.5,-14.216,-11.908,-3.8324,-39.083,-44.339,-25.223,-10.906
-51.782,59.094,-24.834,22.389,-18.759,34.652,-68.154,34.279,-60.692,-17.088,-13.297,-8.1926,-37.316,-47.943,-24.852,-14.259
-51.782,59.094,-24.834,22.389,-18.759,34.652,-68.154,34.279,-60.692,-17.088,-13.297,-8.1926,-37.316,-47.943,-24.852,-14.259
-51.782,59.094,-24.834,22.389,-18.759,34.652,-68.154,34.279,-60.692,-17.088,-13.297,-8.1926,-37.316,-47.943,-24.852,-14.259
-51.782,59.094,-24.834,22.389,-18.759,34.652,-68.154,34.279,-60.692,-17.088,-13.297,-8.1926,-37.316,-47.943,-24.852,-14.259
-52.152,58.698,-24.859,21.739,-17.973,34.948,-68.006,33.703,-60.204,-17.549,-13.516,-8.9043,-37.005,-48.526,-24.779,-14.806
-52.152,58.698,-24.859,21.739,-17.973,34.948,-68.006,33.703,-60.204,-17.549,-13.516,-8.9043,-37.005,-48.526,-24.779,-14.806
-52.515,58.305,-24.881,21.093,-17.188,35.24,-67.853,33.129,-59.709,-18.005,-13.731,-9.6116,-36.69,-49.105,-24.703,-15.35
-52.515,58.305,-24.881,21.093,-17.188,35.24,-67.853,33.129,-59.709,-18.005,-13.731,-9.6116,-36.69,-49.105,-24.703,-15.35
-52.87,57.914,-24.901,20.451,-16.405,35.529,-67.694,32.559,-59.209,-18.457,-13.943,-10.314,-36.37,-49.678,-24.624,-15.891
-52.87,57.914,-24.901,20.451,-16.405,35.529,-67.694,32.559,-59.209,-18.457,-13.943,-10.314,-36.37,-49.678,-24.624,-15.891
-53.217,57.527,-24.918,19.813,-15.623,35.815,-67.531,31.991,-58.703,-18.903,-14.15,-11.013,-36.045,-50.247,-24.542,-16.429
-53.217,57.527,-24.918,19.813,-15.623,35.815,-67.531,31.991,-58.703,-18.903,-14.15,-11.013,-36.045,-50.247,-24.542,-16.429
-53.217,57.527,-24.918,19.813,-15.623,35.815,-67.531,31.991,-58.703,-18.903,-14.15,-11.013,-36.045,-50.247,-24.542,-16.429
-53.557,57.142,-24.933,19.179,-14.843,36.097,-67.363,31.425,-58.192,-19.343,-14.354,-11.707,-35.717,-50.811,-24.457,-16.963
-53.888,56.761,-24.945,18.548,-14.064,36.375,-67.191,30.863,-57.674,-19.779,-14.554,-12.396,-35.383,-51.369,-24.369,-17.494
-53.888,56.761,-24.945,18.548,-14.064,36.375,-67.191,30.863,-57.674,-19.779,-14.554,-12.396,-35.383,-51.369,-24.369,-17.494
-54.213,56.383,-24.954,17.922,-13.287,36.65,-67.013,30.303,-57.151,-20.21,-14.751,-13.081,-35.045,-51.922,-24.278,-18.022
-54.213,56.383,-24.954,17.922,-13.287,36.65,-67.013,30.303,-57.151,-20.21,-14.751,-13.081,-35.045,-51.922,-24.278,-18.022
-54.213,56.383,-24.954,17.922,-13.287,36.65,-67.013,30.303,-57.151,-20.21,-14.751,-13.081,-35.045,-51.922,-24.278,-18.022
-54.529,56.007,-24.96,17.3,-12.512,36.922,-66.831,29.747,-56.623,-20.635,-14.943,-13.761,-34.703,-52.47,-24.184,-18.546
-54.529,56.007,-24.96,17.3,-12.512,36.922,-66.831,29.747,-56.623,-20.635,-14.943,-13.761,-34.703,-52.47,-24.184,-18.546
-54.529,56.007,-24.96,17.3,-12.512,36.922,-66.831,29.747,-56.623,-20.635,-14.943,-13.761,-34.703,-52.47,-24.184,-18.546
-54.838,55.635,-24.964,16.682,-11.738,37.19,-66.644,29.193,-56.088,-21.055,-15.132,-14.436,-34.356,-53.013,-24.087,-19.066
-54.838,55.635,-24.964,16.682,-11.738,37.19,-66.644,29.193,-56.088,-21.055,-15.132,-14.436,-34.356,-53.013,-24.087,-19.066
-55.139,55.266,-24.965,16.069,-10.966,37.454,-66.452,28.643,-55.549,-21.469,-15.317,-15.107,-34.005,-53.551,-23.987,-19.584
-55.139,55.266,-24.965,16.069,-10.966,37.454,-66.452,28.643,-55.549,-21.469,-15.317,-15.107,-34.005,-53.551,-23.987,-19.584
-55.432,54.9,-24.964,15.459,-10.196,37.715,-66.256,28.096,-55.003,-21.879,-15.498,-15.773,-33.65,-54.083,-23.884,-20.097
-55.432,54.9,-24.964,15.459,-10.196,37.715,-66.256,28.096,-55.003,-21.879,-15.498,-15.773,-33.65,-54.083,-23.884,-20.097
-55.717,54.538,-24.96,14.854,-9.428,37.973,-66.054,27.551,-54.453,-22.282,-15.675,-16.434,-33.29,-54.61,-23.778,-20.608
-56.781,53.12,-24.918,12.475,-6.3755,38.967,-65.203,25.406,-52.195,-23.844,-16.345,-19.03,-31.809,-56.664,-23.326,-22.613
-56.781,53.12,-24.918,12.475,-6.3755,38.967,-65.203,25.406,-52.195,-23.844,-16.345,-19.03,-31.809,-56.664,-23.326,-22.613
-56.781,53.12,-24.918,12.475,-6.3755,38.967,-65.203,25.406,-52.195,-23.844,-16.345,-19.03,-31.809,-56.664,-23.326,-22.613
-56.781,53.12,-24.918,12.475,-6.3755,38.967,-65.203,25.406,-52.195,-23.844,-16.345,-19.03,-31.809,-56.664,-23.326,-22.613
-56.781,53.12,-24.918,12.475,-6.3755,38.967,-65.203,25.406,-52.195,-23.844,-16.345,-19.03,-31.809,-56.664,-23.326,-22.613
-56.781,53.12,-24.918,12.475,-6.3755,38.967,-65.203,25.406,-52.195,-23.844,-16.345,-19.03,-31.809,-56.664,-23.326,-22.613
-57.027,52.774,-24.901,11.892,-5.6177,39.207,-64.979,24.877,-51.617,-24.22,-16.502,-19.667,-31.428,-57.164,-23.205,-23.105
-57.027,52.774,-24.901,11.892,-5.6177,39.207,-64.979,24.877,-51.617,-24.22,-16.502,-19.667,-31.428,-57.164,-23.205,-23.105
-57.266,52.432,-24.881,11.312,-4.8621,39.443,-64.751,24.352,-51.034,-24.591,-16.656,-20.298,-31.043,-57.659,-23.082,-23.594
-57.266,52.432,-24.881,11.312,-4.8621,39.443,-64.751,24.352,-51.034,-24.591,-16.656,-20.298,-31.043,-57.659,-23.082,-23.594
-57.496,52.093,-24.859,10.738,-4.1089,39.676,-64.517,23.831,-50.446,-24.957,-16.806,-20.925,-30.653,-58.147,-22.956,-24.079
-57.496,52.093,-24.859,10.738,-4.1089,39.676,-64.517,23.831,-50.446,-24.957,-16.806,-20.925,-30.653,-58.147,-22.956,-24.079
-57.719,51.758,-24.835,10.167,-3.3579,39.905,-64.28,23.312,-49.853,-25.317,-16.952,-21.547,-30.26,-58.631,-22.828,-24.561
-57.719,51.758,-24.835,10.167,-3.3579,39.905,-64.28,23.312,-49.853,-25.317,-16.952,-21.547,-30.26,-58.631,-22.828,-24.561
-57.719,51.758,-24.835,10.167,-3.3579,39.905,-64.28,23.312,-49.853,-25.317,-16.952,-21.547,-30.26,-58.631,-22.828,-24.561
-57.934,51.426,-24.807,9.6016,-2.6094,40.13,-64.038,22.797,-49.254,-25.671,-17.093,-22.164,-29.862,-59.108,-22.696,-25.038
-57.934,51.426,-24.807,9.6016,-2.6094,40.13,-64.038,22.797,-49.254,-25.671,-17.093,-22.164,-29.862,-59.108,-22.696,-25.038
-58.141,51.097,-24.777,9.0404,-1.8634,40.352,-63.791,22.286,-48.65,-26.02,-17.231,-22.775,-29.461,-59.58,-22.562,-25.512
-58.34,50.773,-24.745,8.4837,-1.1199,40.57,-63.54,21.778,-48.041,-26.363,-17.365,-23.382,-29.055,-60.047,-22.425,-25.983
-58.34,50.773,-24.745,8.4837,-1.1199,40.57,-63.54,21.778,-48.041,-26.363,-17.365,-23.382,-29.055,-60.047,-22.425,-25.983
-58.34,50.773,-24.745,8.4837,-1.1199,40.57,-63.54,21.778,-48.041,-26.363,-17.365,-23.382,-29.055,-60.047,-22.425,-25.983
-58.531,50.452,-24.71,7.9317,-0.37892,40.785,-63.285,21.273,-47.427,-26.7,-17.495,-23.983,-28.646,-60.507,-22.285,-26.449
-58.531,50.452,-24.71,7.9317,-0.37892,40.785,-63.285,21.273,-47.427,-26.7,-17.495,-23.983,-28.646,-60.507,-22.285,-26.449
-58.531,50.452,-24.71,7.9317,-0.37892,40.785,-63.285,21.273,-47.427,-26.7,-17.495,-23.983,-28.646,-60.507,-22.285,-26.449
-58.715,50.134,-24.673,7.3843,0.35939,40.996,-63.025,20.772,-46.809,-27.032,-17.621,-24.579,-28.233,-60.962,-22.143,-26.912
-58.715,50.134,-24.673,7.3843,0.35939,40.996,-63.025,20.772,-46.809,-27.032,-17.621,-24.579,-28.233,-60.962,-22.143,-26.912
-58.89,49.821,-24.633,6.8416,1.095,41.203,-62.762,20.274,-46.185,-27.358,-17.743,-25.17,-27.815,-61.411,-21.998,-27.371
-58.89,49.821,-24.633,6.8416,1.095,41.203,-62.762,20.274,-46.185,-27.358,-17.743,-25.17,-27.815,-61.411,-21.998,-27.371
-59.058,49.511,-24.59,6.3035,1.8279,41.407,-62.493,19.781,-45.556,-27.678,-17.861,-25.755,-27.394,-61.855,-21.85,-27.827
-59.058,49.511,-24.59,6.3035,1.8279,41.407,-62.493,19.781,-45.556,-27.678,-17.861,-25.755,-27.394,-61.855,-21.85,-27.827
-59.37,48.903,-24.498,5.2416,3.2853,41.804,-61.945,18.803,-44.284,-28.301,-18.084,-26.911,-26.54,-62.724,-21.547,-28.726
-59.37,48.903,-24.498,5.2416,3.2853,41.804,-61.945,18.803,-44.284,-28.301,-18.084,-26.911,-26.54,-62.724,-21.547,-28.726
-59.37,48.903,-24.498,5.2416,3.2853,41.804,-61.945,18.803,-44.284,-28.301,-18.084,-26.911,-26.54,-62.724,-21.547,-28.726
-59.37,48.903,-24.498,5.2416,3.2853,41.804,-61.945,18.803,-44.284,-28.301,-18.084,-26.911,-26.54,-62.724,-21.547,-28.726
-59.514,48.604,-24.448,4.7177,4.0096,41.997,-61.664,18.32,-43.64,-28.603,-18.19,-27.481,-26.108,-63.15,-21.392,-29.17
-59.514,48.604,-24.448,4.7177,4.0096,41.997,-61.664,18.32,-43.64,-28.603,-18.19,-27.481,-26.108,-63.15,-21.392,-29.17
-59.65,48.31,-24.396,4.1986,4.731,42.186,-61.379,17.841,-42.992,-28.9,-18.291,-28.045,-25.671,-63.57,-21.234,-29.61
-59.65,48.31,-24.396,4.1986,4.731,42.186,-61.379,17.841,-42.992,-28.9,-18.291,-28.045,-25.671,-63.57,-21.234,-29.61
-59.65,48.31,-24.396,4.1986,4.731,42.186,-61.379,17.841,-42.992,-28.9,-18.291,-28.045,-25.671,-63.57,-21.234,-29.61
-59.778,48.019,-24.341,3.6844,5.4494,42.372,-61.09,17.365,-42.34,-29.191,-18.389,-28.604,-25.231,-63.984,-21.073,-30.046
-59.778,48.019,-24.341,3.6844,5.4494,42.372,-61.09,17.365,-42.34,-29.191,-18.389,-28.604,-25.231,-63.984,-21.073,-30.046
-59.899,47.732,-24.284,3.1749,6.1647,42.554,-60.797,16.893,-41.682,-29.477,-18.483,-29.158,-24.788,-64.392,-20.91,-30.478
-59.899,47.732,-24.284,3.1749,6.1647,42.554,-60.797,16.893,-41.682,-29.477,-18.483,-29.158,-24.788,-64.392,-20.91,-30.478
-60.011,47.449,-24.224,2.6704,6.8769,42.733,-60.5,16.425,-41.02,-29.756,-18.572,-29.706,-24.34,-64.794,-20.745,-30.907
-60.011,47.449,-24.224,2.6704,6.8769,42.733,-60.5,16.425,-41.02,-29.756,-18.572,-29.706,-24.34,-64.794,-20.745,-30.907
-60.116,47.171,-24.162,2.1706,7.586,42.908,-60.199,15.961,-40.353,-30.029,-18.657,-30.249,-23.889,-65.191,-20.577,-31.331
-60.116,47.171,-24.162,2.1706,7.586,42.908,-60.199,15.961,-40.353,-30.029,-18.657,-30.249,-23.889,-65.191,-20.577,-31.331
-60.213,46.896,-24.097,1.6758,8.2918,43.079,-59.895,15.5,-39.682,-30.297,-18.739,-30.786,-23.435,-65.581,-20.406,-31.752
-60.213,46.896,-24.097,1.6758,8.2918,43.079,-59.895,15.5,-39.682,-30.297,-18.739,-30.786,-23.435,-65.581,-20.406,-31.752
-60.213,46.896,-24.097,1.6758,8.2918,43.079,-59.895,15.5,-39.682,-30.297,-18.739,-30.786,-23.435,-65.581,-20.406,-31.752
-60.302,46.625,-24.03,1.1859,8.9944,43.247,-59.586,15.043,-39.006,-30.558,-18.816,-31.318,-22.977,-65.965,-20.234,-32.169
-60.302,46.625,-24.03,1.1859,8.9944,43.247,-59.586,15.043,-39.006,-30.558,-18.816,-31.318,-22.977,-65.965,-20.234,-32.169
-60.383,46.358,-23.961,0.70088,9.6937,43.411,-59.273,14.59,-38.326,-30.814,-18.889,-31.845,-22.516,-66.343,-20.059,-32.581
-60.383,46.358,-23.961,0.70088,9.6937,43.411,-59.273,14.59,-38.326,-30.814,-18.889,-31.845,-22.516,-66.343,-20.059,-32.581
-60.457,46.095,-23.889,0.22082,10.39,43.572,-58.956,14.141,-37.642,-31.064,-18.958,-32.366,-22.051,-66.716,-19.881,-32.99
-60.457,46.095,-23.889,0.22082,10.39,43.572,-58.956,14.141,-37.642,-31.064,-18.958,-32.366,-22.051,-66.716,-19.881,-32.99
-60.523,45.837,-23.815,-0.25427,11.082,43.729,-58.636,13.696,-36.953,-31.307,-19.023,-32.881,-21.583,-67.082,-19.701,-33.395
-60.523,45.837,-23.815,-0.25427,11.082,43.729,-58.636,13.696,-36.953,-31.307,-19.023,-32.881,-21.583,-67.082,-19.701,-33.395
-60.523,45.837,-23.815,-0.25427,11.082,43.729,-58.636,13.696,-36.953,-31.307,-19.023,-32.881,-21.583,-67.082,-19.701,-33.395
-60.581,45.582,-23.739,-0.72438,11.771,43.882,-58.312,13.255,-36.259,-31.545,-19.084,-33.391,-21.111,-67.442,-19.519,-33.796
-60.581,45.582,-23.739,-0.72438,11.771,43.882,-58.312,13.255,-36.259,-31.545,-19.084,-33.391,-21.111,-67.442,-19.519,-33.796
-60.631,45.332,-23.661,-1.1895,12.457,44.032,-57.984,12.818,-35.562,-31.776,-19.141,-33.895,-20.636,-67.796,-19.335,-34.193
-60.631,45.332,-23.661,-1.1895,12.457,44.032,-57.984,12.818,-35.562,-31.776,-19.141,-33.895,-20.636,-67.796,-19.335,-34.193
-60.674,45.086,-23.58,-1.6496,13.139,44.179,-57.653,12.384,-34.86,-32.002,-19.194,-34.394,-20.158,-68.143,-19.148,-34.586
-60.674,45.086,-23.58,-1.6496,13.139,44.179,-57.653,12.384,-34.86,-32.002,-19.194,-34.394,-20.158,-68.143,-19.148,-34.586
-60.708,44.844,-23.496,-2.1047,13.817,44.322,-57.317,11.955,-34.154,-32.222,-19.243,-34.887,-19.677,-68.485,-18.959,-34.975
-60.708,44.844,-23.496,-2.1047,13.817,44.322,-57.317,11.955,-34.154,-32.222,-19.243,-34.887,-19.677,-68.485,-18.959,-34.975
-60.736,44.606,-23.411,-2.5547,14.491,44.461,-56.979,11.53,-33.444,-32.435,-19.287,-35.374,-19.192,-68.821,-18.768,-35.36
-60.736,44.606,-23.411,-2.5547,14.491,44.461,-56.979,11.53,-33.444,-32.435,-19.287,-35.374,-19.192,-68.821,-18.768,-35.36
-60.736,44.606,-23.411,-2.5547,14.491,44.461,-56.979,11.53,-33.444,-32.435,-19.287,-35.374,-19.192,-68.821,-18.768,-35.36
-60.755,44.372,-23.323,-2.9997,15.162,44.597,-56.636,11.108,-32.73,-32.642,-19.328,-35.856,-18.704,-69.15,-18.575,-35.741
-60.767,44.143,-23.233,-3.4396,15.83,44.729,-56.29,10.691,-32.012,-32.844,-19.364,-36.332,-18.214,-69.473,-18.38,-36.118
-60.767,44.143,-23.233,-3.4396,15.83,44.729,-56.29,10.691,-32.012,-32.844,-19.364,-36.332,-18.214,-69.473,-18.38,-36.118
-60.771,43.917,-23.141,-3.8745,16.493,44.858,-55.941,10.278,-31.29,-33.039,-19.397,-36.803,-17.72,-69.79,-18.183,-36.491
-60.771,43.917,-23.141,-3.8745,16.493,44.858,-55.941,10.278,-31.29,-33.039,-19.397,-36.803,-17.72,-69.79,-18.183,-36.491
-60.771,43.917,-23.141,-3.8745,16.493,44.858,-55.941,10.278,-31.29,-33.039,-19.397,-36.803,-17.72,-69.79,-18.183,-36.491
-60.767,43.696,-23.046,-4.3042,17.153,44.983,-55.588,9.8685,-30.564,-33.228,-19.425,-37.268,-17.223,-70.101,-17.983,-36.86
-60.767,43.696,-23.046,-4.3042,17.153,44.983,-55.588,9.8685,-30.564,-33.228,-19.425,-37.268,-17.223,-70.101,-17.983,-36.86
-60.767,43.696,-23.046,-4.3042,17.153,44.983,-55.588,9.8685,-30.564,-33.228,-19.425,-37.268,-17.223,-70.101,-17.983,-36.86
-60.756,43.48,-22.95,-4.7289,17.808,45.105,-55.232,9.4634,-29.834,-33.411,-19.449,-37.727,-16.723,-70.405,-17.782,-37.225
-60.756,43.48,-22.95,-4.7289,17.808,45.105,-55.232,9.4634,-29.834,-33.411,-19.449,-37.727,-16.723,-70.405,-17.782,-37.225
-60.737,43.267,-22.851,-5.1484,18.46,45.223,-54.872,9.0625,-29.1,-33.588,-19.469,-38.18,-16.221,-70.703,-17.578,-37.586
-60.737,43.267,-22.851,-5.1484,18.46,45.223,-54.872,9.0625,-29.1,-33.588,-19.469,-38.18,-16.221,-70.703,-17.578,-37.586
-60.711,43.059,-22.75,-5.5629,19.108,45.338,-54.509,8.6656,-28.362,-33.759,-19.485,-38.628,-15.715,-70.995,-17.373,-37.943
-60.677,42.856,-22.647,-5.9722,19.751,45.45,-54.143,8.2729,-27.621,-33.924,-19.497,-39.07,-15.207,-71.281,-17.165,-38.296
-60.677,42.856,-22.647,-5.9722,19.751,45.45,-54.143,8.2729,-27.621,-33.924,-19.497,-39.07,-15.207,-71.281,-17.165,-38.296
-60.677,42.856,-22.647,-5.9722,19.751,45.45,-54.143,8.2729,-27.621,-33.924,-19.497,-39.07,-15.207,-71.281,-17.165,-38.296
-60.636,42.656,-22.542,-6.3763,20.391,45.557,-53.773,7.8844,-26.876,-34.083,-19.505,-39.506,-14.696,-71.56,-16.956,-38.644
-60.636,42.656,-22.542,-6.3763,20.391,45.557,-53.773,7.8844,-26.876,-34.083,-19.505,-39.506,-14.696,-71.56,-16.956,-38.644
-60.587,42.461,-22.434,-6.7753,21.027,45.662,-53.4,7.5,-26.127,-34.235,-19.509,-39.937,-14.182,-71.834,-16.744,-38.989
-60.587,42.461,-22.434,-6.7753,21.027,45.662,-53.4,7.5,-26.127,-34.235,-19.509,-39.937,-14.182,-71.834,-16.744,-38.989
-60.531,42.27,-22.325,-7.1692,21.658,45.763,-53.024,7.1198,-25.375,-34.381,-19.509,-40.361,-13.665,-72.1,-16.531,-39.33
-60.531,42.27,-22.325,-7.1692,21.658,45.763,-53.024,7.1198,-25.375,-34.381,-19.509,-40.361,-13.665,-72.1,-16.531,-39.33
-60.531,42.27,-22.325,-7.1692,21.658,45.763,-53.024,7.1198,-25.375,-34.381,-19.509,-40.361,-13.665,-72.1,-16.531,-39.33
-60.467,42.084,-22.213,-7.5578,22.285,45.861,-52.645,6.7438,-24.619,-34.522,-19.504,-40.78,-13.146,-72.361,-16.316,-39.666
-60.467,42.084,-22.213,-7.5578,22.285,45.861,-52.645,6.7438,-24.619,-34.522,-19.504,-40.78,-13.146,-72.361,-16.316,-39.666
-60.396,41.902,-22.1,-7.9414,22.908,45.955,-52.263,6.372,-23.86,-34.656,-19.496,-41.193,-12.624,-72.615,-16.099,-39.999
-60.396,41.902,-22.1,-7.9414,22.908,45.955,-52.263,6.372,-23.86,-34.656,-19.496,-41.193,-12.624,-72.615,-16.099,-39.999
-60.396,41.902,-22.1,-7.9414,22.908,45.955,-52.263,6.372,-23.86,-34.656,-19.496,-41.193,-12.624,-72.615,-16.099,-39.999
-60.318,41.724,-21.984,-8.3197,23.526,46.046,-51.878,6.0044,-23.097,-34.783,-19.484,-41.601,-12.1,-72.863,-15.881,-40.327
-60.318,41.724,-21.984,-8.3197,23.526,46.046,-51.878,6.0044,-23.097,-34.783,-19.484,-41.601,-12.1,-72.863,-15.881,-40.327
-60.232,41.551,-21.867,-8.6929,24.141,46.133,-51.49,5.6411,-22.331,-34.905,-19.467,-42.002,-11.573,-73.105,-15.66,-40.652
-60.139,41.383,-21.747,-9.0609,24.751,46.217,-51.099,5.282,-21.562,-35.021,-19.447,-42.398,-11.044,-73.34,-15.438,-40.972
-60.139,41.383,-21.747,-9.0609,24.751,46.217,-51.099,5.282,-21.562,-35.021,-19.447,-42.398,-11.044,-73.34,-15.438,-40.972
-60.139,41.383,-21.747,-9.0609,24.751,46.217,-51.099,5.282,-21.562,-35.021,-19.447,-42.398,-11.044,-73.34,-15.438,-40.972
-60.038,41.218,-21.625,-9.4237,25.356,46.298,-50.705,4.9272,-20.789,-35.13,-19.422,-42.788,-10.512,-73.569,-15.214,-41.288
-60.038,41.218,-21.625,-9.4237,25.356,46.298,-50.705,4.9272,-20.789,-35.13,-19.422,-42.788,-10.512,-73.569,-15.214,-41.288
-59.93,41.058,-21.502,-9.7813,25.957,46.376,-50.308,4.5766,-20.013,-35.233,-19.394,-43.172,-9.9779,-73.792,-14.989,-41.6
-59.93,41.058,-21.502,-9.7813,25.957,46.376,-50.308,4.5766,-20.013,-35.233,-19.394,-43.172,-9.9779,-73.792,-14.989,-41.6
-59.815,40.903,-21.376,-10.134,26.554,46.45,-49.908,4.2303,-19.234,-35.33,-19.361,-43.551,-9.4416,-74.008,-14.762,-41.908
-59.815,40.903,-21.376,-10.134,26.554,46.45,-49.908,4.2303,-19.234,-35.33,-19.361,-43.551,-9.4416,-74.008,-14.762,-41.908
-59.815,40.903,-21.376,-10.134,26.554,46.45,-49.908,4.2303,-19.234,-35.33,-19.361,-43.551,-9.4416,-74.008,-14.762,-41.908
-59.693,40.752,-21.249,-10.481,27.146,46.52,-49.505,3.8883,-18.452,-35.421,-19.325,-43.923,-8.903,-74.218,-14.533,-42.213
-59.693,40.752,-21.249,-10.481,27.146,46.52,-49.505,3.8883,-18.452,-35.421,-19.325,-43.923,-8.903,-74.218,-14.533,-42.213
-59.564,40.605,-21.12,-10.823,27.733,46.588,-49.1,3.5506,-17.667,-35.506,-19.284,-44.29,-8.3622,-74.422,-14.303,-42.512
-59.564,40.605,-21.12,-10.823,27.733,46.588,-49.1,3.5506,-17.667,-35.506,-19.284,-44.29,-8.3622,-74.422,-14.303,-42.512
-59.428,40.463,-20.989,-11.16,28.316,46.652,-48.692,3.2172,-16.878,-35.584,-19.24,-44.651,-7.8193,-74.619,-14.072,-42.808
-59.428,40.463,-20.989,-11.16,28.316,46.652,-48.692,3.2172,-16.878,-35.584,-19.24,-44.651,-7.8193,-74.619,-14.072,-42.808
-59.284,40.325,-20.856,-11.491,28.894,46.713,-48.282,2.8881,-16.087,-35.657,-19.191,-45.006,-7.2743,-74.81,-13.838,-43.1
-59.284,40.325,-20.856,-11.491,28.894,46.713,-48.282,2.8881,-16.087,-35.657,-19.191,-45.006,-7.2743,-74.81,-13.838,-43.1
-59.133,40.192,-20.721,-11.818,29.467,46.771,-47.868,2.5633,-15.293,-35.723,-19.138,-45.355,-6.7272,-74.994,-13.604,-43.388
-58.976,40.063,-20.584,-12.139,30.036,46.825,-47.453,2.2428,-14.496,-35.783,-19.082,-45.698,-6.1782,-75.172,-13.368,-43.672
-58.976,40.063,-20.584,-12.139,30.036,46.825,-47.453,2.2428,-14.496,-35.783,-19.082,-45.698,-6.1782,-75.172,-13.368,-43.672
-58.811,39.939,-20.446,-12.455,30.6,46.877,-47.035,1.9267,-13.696,-35.837,-19.022,-46.035,-5.6271,-75.344,-13.13,-43.951
-58.811,39.939,-20.446,-12.455,30.6,46.877,-47.035,1.9267,-13.696,-35.837,-19.022,-46.035,-5.6271,-75.344,-13.13,-43.951
-58.811,39.939,-20.446,-12.455,30.6,46.877,-47.035,1.9267,-13.696,-35.837,-19.022,-46.035,-5.6271,-75.344,-13.13,-43.951
-58.64,39.819,-20.306,-12.766,31.159,46.925,-46.614,1.6149,-12.894,-35.884,-18.957,-46.367,-5.0743,-75.51,-12.891,-44.227
-58.64,39.819,-20.306,-12.766,31.159,46.925,-46.614,1.6149,-12.894,-35.884,-18.957,-46.367,-5.0743,-75.51,-12.891,-44.227
-58.64,39.819,-20.306,-12.766,31.159,46.925,-46.614,1.6149,-12.894,-35.884,-18.957,-46.367,-5.0743,-75.51,-12.891,-44.227
-58.276,39.593,-20.02,-13.372,32.263,47.011,-45.765,1.0044,-11.281,-35.961,-18.817,-47.012,-3.963,-75.822,-12.41,-44.766
-58.276,39.593,-20.02,-13.372,32.263,47.011,-45.765,1.0044,-11.281,-35.961,-18.817,-47.012,-3.963,-75.822,-12.41,-44.766
-58.084,39.486,-19.875,-13.668,32.807,47.05,-45.338,0.70563,-10.47,-35.99,-18.74,-47.326,-3.4048,-75.968,-12.167,-45.029
-57.885,39.384,-19.728,-13.958,33.347,47.085,-44.908,0.41123,-9.6571,-36.014,-18.66,-47.635,-2.8448,-76.108,-11.923,-45.289
-57.885,39.384,-19.728,-13.958,33.347,47.085,-44.908,0.41123,-9.6571,-36.014,-18.66,-47.635,-2.8448,-76.108,-11.923,-45.289
-57.68,39.287,-19.58,-14.243,33.881,47.117,-44.476,0.1212,-8.8416,-36.031,-18.576,-47.937,-2.2833,-76.242,-11.678,-45.544
-57.68,39.287,-19.58,-14.243,33.881,47.117,-44.476,0.1212,-8.8416,-36.031,-18.576,-47.937,-2.2833,-76.242,-11.678,-45.544
-57.68,39.287,-19.58,-14.243,33.881,47.117,-44.476,0.1212,-8.8416,-36.031,-18.576,-47.937,-2.2833,-76.242,-11.678,-45.544
-57.68,39.287,-19.58,-14.243,33.881,47.117,-44.476,0.1212,-8.8416,-36.031,-18.576,-47.937,-2.2833,-76.242,-11.678,-45.544
-57.467,39.194,-19.429,-14.522,34.411,47.147,-44.041,-0.16448,-8.0237,-36.041,-18.488,-48.233,-1.7201,-76.369,-11.432,-45.796
-57.467,39.194,-19.429,-14.522,34.411,47.147,-44.041,-0.16448,-8.0237,-36.041,-18.488,-48.233,-1.7201,-76.369,-11.432,-45.796
-57.023,39.021,-19.124,-15.067,35.455,47.196,-43.166,-0.72275,-6.3809,-36.045,-18.301,-48.809,-0.58937,-76.605,-10.936,-46.286
-57.023,39.021,-19.124,-15.067,35.455,47.196,-43.166,-0.72275,-6.3809,-36.045,-18.301,-48.809,-0.58937,-76.605,-10.936,-46.286
-57.023,39.021,-19.124,-15.067,35.455,47.196,-43.166,-0.72275,-6.3809,-36.045,-18.301,-48.809,-0.58937,-76.605,-10.936,-46.286
-56.791,38.941,-18.969,-15.331,35.969,47.216,-42.726,-0.99533,-5.5561,-36.037,-18.202,-49.088,-0.021851,-76.713,-10.687,-46.525
-56.791,38.941,-18.969,-15.331,35.969,47.216,-42.726,-0.99533,-5.5561,-36.037,-18.202,-49.088,-0.021851,-76.713,-10.687,-46.525
-56.791,38.941,-18.969,-15.331,35.969,47.216,-42.726,-0.99533,-5.5561,-36.037,-18.202,-49.088,-0.021851,-76.713,-10.687,-46.525
-56.552,38.866,-18.813,-15.59,36.478,47.233,-42.283,-1.2636,-4.7291,-36.023,-18.098,-49.361,0.54703,-76.815,-10.436,-46.761
-56.552,38.866,-18.813,-15.59,36.478,47.233,-42.283,-1.2636,-4.7291,-36.023,-18.098,-49.361,0.54703,-76.815,-10.436,-46.761
-56.307,38.795,-18.655,-15.844,36.982,47.247,-41.839,-1.5274,-3.8999,-36.004,-17.991,-49.628,1.1172,-76.911,-10.185,-46.992
-56.307,38.795,-18.655,-15.844,36.982,47.247,-41.839,-1.5274,-3.8999,-36.004,-17.991,-49.628,1.1172,-76.911,-10.185,-46.992
-56.056,38.729,-18.495,-16.093,37.481,47.258,-41.392,-1.7869,-3.0687,-35.978,-17.88,-49.889,1.6886,-77.001,-9.9322,-47.219
-56.056,38.729,-18.495,-16.093,37.481,47.258,-41.392,-1.7869,-3.0687,-35.978,-17.88,-49.889,1.6886,-77.001,-9.9322,-47.219
-55.798,38.667,-18.335,-16.337,37.974,47.266,-40.944,-2.042,-2.2354,-35.946,-17.765,-50.145,2.2613,-77.084,-9.6789,-47.443
-55.798,38.667,-18.335,-16.337,37.974,47.266,-40.944,-2.042,-2.2354,-35.946,-17.765,-50.145,2.2613,-77.084,-9.6789,-47.443
-55.534,38.609,-18.172,-16.576,38.463,47.271,-40.494,-2.2928,-1.4002,-35.908,-17.647,-50.394,2.835,-77.161,-9.4246,-47.662
-55.534,38.609,-18.172,-16.576,38.463,47.271,-40.494,-2.2928,-1.4002,-35.908,-17.647,-50.394,2.835,-77.161,-9.4246,-47.662
-55.534,38.609,-18.172,-16.576,38.463,47.271,-40.494,-2.2928,-1.4002,-35.908,-17.647,-50.394,2.835,-77.161,-9.4246,-47.662
-55.263,38.556,-18.008,-16.809,38.946,47.273,-40.042,-2.5392,-0.56302,-35.864,-17.525,-50.638,3.4098,-77.231,-9.1695,-47.877
-55.263,38.556,-18.008,-16.809,38.946,47.273,-40.042,-2.5392,-0.56302,-35.864,-17.525,-50.638,3.4098,-77.231,-9.1695,-47.877
-54.986,38.508,-17.843,-17.038,39.423,47.272,-39.589,-2.7813,0.276,-35.814,-17.399,-50.876,3.9857,-77.296,-8.9137,-48.089
-54.703,38.463,-17.677,-17.261,39.895,47.268,-39.134,-3.019,1.1168,-35.758,-17.269,-51.109,4.5625,-77.354,-8.657,-48.296
-54.703,38.463,-17.677,-17.261,39.895,47.268,-39.134,-3.019,1.1168,-35.758,-17.269,-51.109,4.5625,-77.354,-8.657,-48.296
-54.414,38.423,-17.509,-17.48,40.362,47.261,-38.678,-3.2523,1.9594,-35.696,-17.135,-51.335,5.1403,-77.406,-8.3996,-48.5
-53.511,38.33,-16.998,-18.105,41.73,47.224,-37.299,-3.9263,4.4971,-35.473,-16.713,-51.98,6.8784,-77.524,-7.6234,-49.087
-53.511,38.33,-16.998,-18.105,41.73,47.224,-37.299,-3.9263,4.4971,-35.473,-16.713,-51.98,6.8784,-77.524,-7.6234,-49.087
-53.198,38.307,-16.825,-18.303,42.175,47.206,-36.837,-4.1423,5.3461,-35.387,-16.564,-52.183,7.4592,-77.552,-7.3634,-49.275
-53.198,38.307,-16.825,-18.303,42.175,47.206,-36.837,-4.1423,5.3461,-35.387,-16.564,-52.183,7.4592,-77.552,-7.3634,-49.275
-52.879,38.289,-16.651,-18.497,42.615,47.185,-36.373,-4.3539,6.1965,-35.295,-16.412,-52.381,8.0407,-77.573,-7.1029,-49.459
-52.879,38.289,-16.651,-18.497,42.615,47.185,-36.373,-4.3539,6.1965,-35.295,-16.412,-52.381,8.0407,-77.573,-7.1029,-49.459
-52.879,38.289,-16.651,-18.497,42.615,47.185,-36.373,-4.3539,6.1965,-35.295,-16.412,-52.381,8.0407,-77.573,-7.1029,-49.459
-52.554,38.275,-16.476,-18.685,43.048,47.162,-35.908,-4.5613,7.0484,-35.197,-16.257,-52.573,8.6227,-77.587,-6.8419,-49.639
-52.554,38.275,-16.476,-18.685,43.048,47.162,-35.908,-4.5613,7.0484,-35.197,-16.257,-52.573,8.6227,-77.587,-6.8419,-49.639
-52.224,38.266,-16.3,-18.868,43.477,47.135,-35.442,-4.7643,7.9017,-35.093,-16.098,-52.759,9.2052,-77.596,-6.5803,-49.815
-52.224,38.266,-16.3,-18.868,43.477,47.135,-35.442,-4.7643,7.9017,-35.093,-16.098,-52.759,9.2052,-77.596,-6.5803,-49.815
-51.887,38.261,-16.122,-19.047,43.9,47.106,-34.975,-4.963,8.7562,-34.984,-15.935,-52.939,9.7882,-77.599,-6.3183,-49.988
-51.887,38.261,-16.122,-19.047,43.9,47.106,-34.975,-4.963,8.7562,-34.984,-15.935,-52.939,9.7882,-77.599,-6.3183,-49.988
-51.887,38.261,-16.122,-19.047,43.9,47.106,-34.975,-4.963,8.7562,-34.984,-15.935,-52.939,9.7882,-77.599,-6.3183,-49.988
-51.546,38.26,-15.944,-19.22,44.317,47.074,-34.506,-5.1575,9.612,-34.868,-15.769,-53.114,10.372,-77.595,-6.0559,-50.156
-51.546,38.26,-15.944,-19.22,44.317,47.074,-34.506,-5.1575,9.612,-34.868,-15.769,-53.114,10.372,-77.595,-6.0559,-50.156
-51.198,38.263,-15.764,-19.389,44.728,47.04,-34.037,-5.3476,10.469,-34.747,-15.599,-53.283,10.955,-77.585,-5.7932,-50.321
-51.198,38.263,-15.764,-19.389,44.728,47.04,-34.037,-5.3476,10.469,-34.747,-15.599,-53.283,10.955,-77.585,-5.7932,-50.321
-50.845,38.27,-15.584,-19.553,45.134,47.003,-33.566,-5.5335,11.327,-34.619,-15.425,-53.446,11.539,-77.57,-5.53,-50.482
-50.845,38.27,-15.584,-19.553,45.134,47.003,-33.566,-5.5335,11.327,-34.619,-15.425,-53.446,11.539,-77.57,-5.53,-50.482
-50.487,38.282,-15.402,-19.712,45.534,46.963,-33.095,-5.7151,12.186,-34.486,-15.248,-53.603,12.124,-77.548,-5.2666,-50.639
-50.487,38.282,-15.402,-19.712,45.534,46.963,-33.095,-5.7151,12.186,-34.486,-15.248,-53.603,12.124,-77.548,-5.2666,-50.639
-50.487,38.282,-15.402,-19.712,45.534,46.963,-33.095,-5.7151,12.186,-34.486,-15.248,-53.603,12.124,-77.548,-5.2666,-50.639
-50.123,38.298,-15.22,-19.866,45.928,46.92,-32.622,-5.8925,13.046,-34.347,-15.068,-53.755,12.708,-77.52,-5.0029,-50.793
-50.123,38.298,-15.22,-19.866,45.928,46.92,-32.622,-5.8925,13.046,-34.347,-15.068,-53.755,12.708,-77.52,-5.0029,-50.793
-49.753,38.318,-15.036,-20.015,46.317,46.875,-32.149,-6.0656,13.907,-34.202,-14.884,-53.902,13.292,-77.487,-4.739,-50.943
-49.753,38.318,-15.036,-20.015,46.317,46.875,-32.149,-6.0656,13.907,-34.202,-14.884,-53.902,13.292,-77.487,-4.739,-50.943
-49.379,38.342,-14.852,-20.159,46.699,46.828,-31.675,-6.2344,14.769,-34.052,-14.697,-54.042,13.877,-77.447,-4.4749,-51.089
-49.379,38.342,-14.852,-20.159,46.699,46.828,-31.675,-6.2344,14.769,-34.052,-14.697,-54.042,13.877,-77.447,-4.4749,-51.089
-48.999,38.371,-14.666,-20.299,47.076,46.777,-31.2,-6.3991,15.632,-33.896,-14.506,-54.177,14.462,-77.401,-4.2106,-51.231
-48.999,38.371,-14.666,-20.299,47.076,46.777,-31.2,-6.3991,15.632,-33.896,-14.506,-54.177,14.462,-77.401,-4.2106,-51.231
-48.614,38.403,-14.48,-20.434,47.448,46.724,-30.724,-6.5595,16.496,-33.734,-14.311,-54.307,15.046,-77.35,-3.9462,-51.369
-48.614,38.403,-14.48,-20.434,47.448,46.724,-30.724,-6.5595,16.496,-33.734,-14.311,-54.307,15.046,-77.35,-3.9462,-51.369
-48.614,38.403,-14.48,-20.434,47.448,46.724,-30.724,-6.5595,16.496,-33.734,-14.311,-54.307,15.046,-77.35,-3.9462,-51.369
-48.224,38.44,-14.293,-20.564,47.813,46.669,-30.248,-6.7157,17.36,-33.566,-14.114,-54.43,15.63,-77.292,-3.6817,-51.504
-48.224,38.44,-14.293,-20.564,47.813,46.669,-30.248,-6.7157,17.36,-33.566,-14.114,-54.43,15.63,-77.292,-3.6817,-51.504
-47.828,38.48,-14.105,-20.689,48.172,46.611,-29.771,-6.8678,18.225,-33.393,-13.913,-54.549,16.215,-77.229,-3.4171,-51.635
-47.828,38.48,-14.105,-20.689,48.172,46.611,-29.771,-6.8678,18.225,-33.393,-13.913,-54.549,16.215,-77.229,-3.4171,-51.635
-47.428,38.525,-13.916,-20.81,48.526,46.551,-29.294,-7.0156,19.091,-33.214,-13.708,-54.661,16.799,-77.159,-3.1526,-51.763
-47.428,38.525,-13.916,-20.81,48.526,46.551,-29.294,-7.0156,19.091,-33.214,-13.708,-54.661,16.799,-77.159,-3.1526,-51.763
-47.023,38.574,-13.727,-20.926,48.874,46.488,-28.816,-7.1594,19.957,-33.029,-13.5,-54.768,17.382,-77.084,-2.888,-51.887
-47.023,38.574,-13.727,-20.926,48.874,46.488,-28.816,-7.1594,19.957,-33.029,-13.5,-54.768,17.382,-77.084,-2.888,-51.887
-47.023,38.574,-13.727,-20.926,48.874,46.488,-28.816,-7.1594,19.957,-33.029,-13.5,-54.768,17.382,-77.084,-2.888,-51.887
-46.613,38.627,-13.537,-21.037,49.215,46.422,-28.338,-7.2989,20.824,-32.839,-13.289,-54.87,17.966,-77.003,-2.6235,-52.007
-46.198,38.684,-13.346,-21.144,49.551,46.354,-27.859,-7.4344,21.691,-32.643,-13.075,-54.966,18.548,-76.917,-2.3591,-52.124
-46.198,38.684,-13.346,-21.144,49.551,46.354,-27.859,-7.4344,21.691,-32.643,-13.075,-54.966,18.548,-76.917,-2.3591,-52.124
-45.778,38.744,-13.155,-21.245,49.881,46.284,-27.38,-7.5657,22.558,-32.442,-12.857,-55.056,19.131,-76.824,-2.0948,-52.237
-45.778,38.744,-13.155,-21.245,49.881,46.284,-27.38,-7.5657,22.558,-32.442,-12.857,-55.056,19.131,-76.824,-2.0948,-52.237
-45.778,38.744,-13.155,-21.245,49.881,46.284,-27.38,-7.5657,22.558,-32.442,-12.857,-55.056,19.131,-76.824,-2.0948,-52.237
-45.353,38.809,-12.963,-21.343,50.205,46.211,-26.901,-7.6929,23.426,-32.235,-12.636,-55.141,19.713,-76.726,-1.8307,-52.346
-45.353,38.809,-12.963,-21.343,50.205,46.211,-26.901,-7.6929,23.426,-32.235,-12.636,-55.141,19.713,-76.726,-1.8307,-52.346
-44.924,38.878,-12.77,-21.436,50.523,46.136,-26.421,-7.8161,24.294,-32.022,-12.412,-55.221,20.294,-76.622,-1.5668,-52.452
-44.924,38.878,-12.77,-21.436,50.523,46.136,-26.421,-7.8161,24.294,-32.022,-12.412,-55.221,20.294,-76.622,-1.5668,-52.452
-44.924,38.878,-12.77,-21.436,50.523,46.136,-26.421,-7.8161,24.294,-32.022,-12.412,-55.221,20.294,-76.622,-1.5668,-52.452
-44.491,38.95,-12.577,-21.524,50.835,46.058,-25.941,-7.9351,25.162,-31.805,-12.184,-55.295,20.875,-76.512,-1.3031,-52.555
-44.053,39.027,-12.383,-21.608,51.14,45.979,-25.461,-8.0502,26.031,-31.581,-11.953,-55.364,21.455,-76.397,-1.0397,-52.654
-44.053,39.027,-12.383,-21.608,51.14,45.979,-25.461,-8.0502,26.031,-31.581,-11.953,-55.364,21.455,-76.397,-1.0397,-52.654
-43.61,39.107,-12.189,-21.687,51.44,45.896,-24.981,-8.1612,26.899,-31.352,-11.72,-55.427,22.034,-76.276,-0.77663,-52.749
-43.61,39.107,-12.189,-21.687,51.44,45.896,-24.981,-8.1612,26.899,-31.352,-11.72,-55.427,22.034,-76.276,-0.77663,-52.749
-43.163,39.191,-11.994,-21.762,51.734,45.812,-24.501,-8.2682,27.768,-31.118,-11.482,-55.485,22.612,-76.15,-0.51387,-52.841
-43.163,39.191,-11.994,-21.762,51.734,45.812,-24.501,-8.2682,27.768,-31.118,-11.482,-55.485,22.612,-76.15,-0.51387,-52.841
-42.712,39.279,-11.799,-21.832,52.021,45.725,-24.021,-8.3712,28.637,-30.879,-11.242,-55.538,23.189,-76.018,-0.25149,-52.929
-42.256,39.37,-11.603,-21.898,52.303,45.636,-23.541,-8.4702,29.505,-30.634,-10.999,-55.585,23.766,-75.88,0.010474,-53.015
-42.256,39.37,-11.603,-21.898,52.303,45.636,-23.541,-8.4702,29.505,-30.634,-10.999,-55.585,23.766,-75.88,0.010474,-53.015
-41.796,39.465,-11.407,-21.959,52.578,45.544,-23.061,-8.5653,30.373,-30.384,-10.753,-55.627,24.341,-75.737,0.27199,-53.096
-41.796,39.465,-11.407,-21.959,52.578,45.544,-23.061,-8.5653,30.373,-30.384,-10.753,-55.627,24.341,-75.737,0.27199,-53.096
-41.333,39.564,-11.21,-22.016,52.848,45.451,-22.582,-8.6564,31.242,-30.128,-10.503,-55.663,24.916,-75.588,0.53303,-53.175
-41.333,39.564,-11.21,-22.016,52.848,45.451,-22.582,-8.6564,31.242,-30.128,-10.503,-55.663,24.916,-75.588,0.53303,-53.175
-40.865,39.667,-11.014,-22.069,53.111,45.355,-22.102,-8.7436,32.11,-29.868,-10.251,-55.695,25.489,-75.434,0.79354,-53.249
-40.865,39.667,-11.014,-22.069,53.111,45.355,-22.102,-8.7436,32.11,-29.868,-10.251,-55.695,25.489,-75.434,0.79354,-53.249
-40.393,39.773,-10.817,-22.118,53.368,45.256,-21.623,-8.827,32.977,-29.602,-9.9951,-55.721,26.061,-75.275,1.0535,-53.321
-40.393,39.773,-10.817,-22.118,53.368,45.256,-21.623,-8.827,32.977,-29.602,-9.9951,-55.721,26.061,-75.275,1.0535,-53.321
-39.917,39.883,-10.619,-22.162,53.618,45.156,-21.144,-8.9064,33.844,-29.33,-9.7366,-55.742,26.632,-75.11,1.3129,-53.389
-39.917,39.883,-10.619,-22.162,53.618,45.156,-21.144,-8.9064,33.844,-29.33,-9.7366,-55.742,26.632,-75.11,1.3129,-53.389
-39.437,39.996,-10.422,-22.202,53.863,45.053,-20.666,-8.9821,34.711,-29.054,-9.4751,-55.757,27.202,-74.94,1.5716,-53.454
-39.437,39.996,-10.422,-22.202,53.863,45.053,-20.666,-8.9821,34.711,-29.054,-9.4751,-55.757,27.202,-74.94,1.5716,-53.454
-38.954,40.113,-10.224,-22.238,54.101,44.949,-20.188,-9.0538,35.578,-28.773,-9.2107,-55.768,27.77,-74.765,1.8297,-53.516
-38.954,40.113,-10.224,-22.238,54.101,44.949,-20.188,-9.0538,35.578,-28.773,-9.2107,-55.768,27.77,-74.765,1.8297,-53.516
-38.466,40.234,-10.026,-22.269,54.334,44.842,-19.71,-9.1218,36.444,-28.486,-8.9433,-55.773,28.337,-74.584,2.0871,-53.574
-38.466,40.234,-10.026,-22.269,54.334,44.842,-19.71,-9.1218,36.444,-28.486,-8.9433,-55.773,28.337,-74.584,2.0871,-53.574
-37.976,40.357,-9.8276,-22.296,54.56,44.733,-19.233,-9.186,37.309,-28.195,-8.673,-55.773,28.902,-74.398,2.3438,-53.63
-37.976,40.357,-9.8276,-22.296,54.56,44.733,-19.233,-9.186,37.309,-28.195,-8.673,-55.773,28.902,-74.398,2.3438,-53.63
-37.481,40.485,-9.6293,-22.32,54.779,44.622,-18.757,-9.2465,38.174,-27.898,-8.3999,-55.768,29.466,-74.207,2.5997,-53.682
-36.983,40.615,-9.4309,-22.339,54.993,44.508,-18.281,-9.3032,39.038,-27.597,-8.1239,-55.758,30.028,-74.011,2.8548,-53.731
-36.983,40.615,-9.4309,-22.339,54.993,44.508,-18.281,-9.3032,39.038,-27.597,-8.1239,-55.758,30.028,-74.011,2.8548,-53.731
-36.983,40.615,-9.4309,-22.339,54.993,44.508,-18.281,-9.3032,39.038,-27.597,-8.1239,-55.758,30.028,-74.011,2.8548,-53.731
-36.482,40.75,-9.2324,-22.354,55.2,44.393,-17.805,-9.3562,39.901,-27.29,-7.845,-55.743,30.589,-73.809,3.109,-53.776
-36.482,40.75,-9.2324,-22.354,55.2,44.393,-17.805,-9.3562,39.901,-27.29,-7.845,-55.743,30.589,-73.809,3.109,-53.776
-35.977,40.887,-9.0339,-22.365,55.401,44.276,-17.331,-9.4055,40.763,-26.979,-7.5634,-55.722,31.148,-73.603,3.3624,-53.819
-35.977,40.887,-9.0339,-22.365,55.401,44.276,-17.331,-9.4055,40.763,-26.979,-7.5634,-55.722,31.148,-73.603,3.3624,-53.819
-35.469,41.028,-8.8354,-22.372,55.595,44.156,-16.857,-9.4511,41.625,-26.662,-7.279,-55.697,31.705,-73.391,3.6149,-53.858
-34.958,41.171,-8.637,-22.375,55.784,44.035,-16.384,-9.4931,42.486,-26.341,-6.9918,-55.667,32.26,-73.174,3.8665,-53.895
-34.958,41.171,-8.637,-22.375,55.784,44.035,-16.384,-9.4931,42.486,-26.341,-6.9918,-55.667,32.26,-73.174,3.8665,-53.895
-34.958,41.171,-8.637,-22.375,55.784,44.035,-16.384,-9.4931,42.486,-26.341,-6.9918,-55.667,32.26,-73.174,3.8665,-53.895
-34.958,41.171,-8.637,-22.375,55.784,44.035,-16.384,-9.4931,42.486,-26.341,-6.9918,-55.667,32.26,-73.174,3.8665,-53.895
-34.443,41.319,-8.4385,-22.374,55.966,43.911,-15.912,-9.5315,43.345,-26.015,-6.7019,-55.632,32.813,-72.953,4.1171,-53.928
-34.443,41.319,-8.4385,-22.374,55.966,43.911,-15.912,-9.5315,43.345,-26.015,-6.7019,-55.632,32.813,-72.953,4.1171,-53.928
-34.443,41.319,-8.4385,-22.374,55.966,43.911,-15.912,-9.5315,43.345,-26.015,-6.7019,-55.632,32.813,-72.953,4.1171,-53.928
-33.405,41.622,-8.042,-22.36,56.311,43.658,-14.971,-9.5976,45.062,-25.349,-6.114,-55.546,33.915,-72.495,4.6152,-53.986
-33.405,41.622,-8.042,-22.36,56.311,43.658,-14.971,-9.5976,45.062,-25.349,-6.114,-55.546,33.915,-72.495,4.6152,-53.986
-32.882,41.779,-7.8439,-22.348,56.474,43.528,-14.502,-9.6254,45.918,-25.008,-5.8161,-55.496,34.462,-72.259,4.8627,-54.01
-32.882,41.779,-7.8439,-22.348,56.474,43.528,-14.502,-9.6254,45.918,-25.008,-5.8161,-55.496,34.462,-72.259,4.8627,-54.01
-32.355,41.938,-7.6461,-22.331,56.631,43.397,-14.034,-9.6496,46.773,-24.664,-5.5155,-55.442,35.007,-72.018,5.1091,-54.031
-31.826,42.101,-7.4484,-22.311,56.781,43.263,-13.568,-9.6703,47.627,-24.314,-5.2124,-55.382,35.551,-71.772,5.3544,-54.05
-31.826,42.101,-7.4484,-22.311,56.781,43.263,-13.568,-9.6703,47.627,-24.314,-5.2124,-55.382,35.551,-71.772,5.3544,-54.05
-31.826,42.101,-7.4484,-22.311,56.781,43.263,-13.568,-9.6703,47.627,-24.314,-5.2124,-55.382,35.551,-71.772,5.3544,-54.05
-31.294,42.267,-7.2509,-22.287,56.925,43.128,-13.102,-9.6877,48.48,-23.96,-4.9067,-55.317,36.092,-71.522,5.5984,-54.065
-31.294,42.267,-7.2509,-22.287,56.925,43.128,-13.102,-9.6877,48.48,-23.96,-4.9067,-55.317,36.092,-71.522,5.5984,-54.065
-30.759,42.435,-7.0538,-22.259,57.063,42.99,-12.637,-9.7016,49.332,-23.601,-4.5984,-55.248,36.63,-71.266,5.8413,-54.078
-30.759,42.435,-7.0538,-22.259,57.063,42.99,-12.637,-9.7016,49.332,-23.601,-4.5984,-55.248,36.63,-71.266,5.8413,-54.078
-30.222,42.607,-6.8569,-22.228,57.194,42.851,-12.174,-9.7121,50.182,-23.238,-4.2876,-55.174,37.167,-71.007,6.083,-54.088
-30.222,42.607,-6.8569,-22.228,57.194,42.851,-12.174,-9.7121,50.182,-23.238,-4.2876,-55.174,37.167,-71.007,6.083,-54.088
-29.682,42.781,-6.6603,-22.193,57.319,42.71,-11.712,-9.7192,51.03,-22.87,-3.9744,-55.095,37.701,-70.742,6.3233,-54.095
-29.14,42.958,-6.4642,-22.154,57.437,42.567,-11.252,-9.723,51.877,-22.498,-3.6586,-55.012,38.232,-70.473,6.5624,-54.099
-29.14,42.958,-6.4642,-22.154,57.437,42.567,-11.252,-9.723,51.877,-22.498,-3.6586,-55.012,38.232,-70.473,6.5624,-54.099
-28.595,43.138,-6.2684,-22.112,57.549,42.422,-10.793,-9.7235,52.723,-22.122,-3.3404,-54.924,38.761,-70.2,6.8002,-54.1
-28.595,43.138,-6.2684,-22.112,57.549,42.422,-10.793,-9.7235,52.723,-22.122,-3.3404,-54.924,38.761,-70.2,6.8002,-54.1
-28.595,43.138,-6.2684,-22.112,57.549,42.422,-10.793,-9.7235,52.723,-22.122,-3.3404,-54.924,38.761,-70.2,6.8002,-54.1
-28.048,43.32,-6.073,-22.067,57.655,42.275,-10.335,-9.7208,53.566,-21.741,-3.0199,-54.831,39.288,-69.922,7.0366,-54.099
-28.048,43.32,-6.073,-22.067,57.655,42.275,-10.335,-9.7208,53.566,-21.741,-3.0199,-54.831,39.288,-69.922,7.0366,-54.099
-27.499,43.506,-5.8781,-22.017,57.754,42.127,-9.8793,-9.7148,54.409,-21.356,-2.6969,-54.734,39.812,-69.639,7.2716,-54.095
-27.499,43.506,-5.8781,-22.017,57.754,42.127,-9.8793,-9.7148,54.409,-21.356,-2.6969,-54.734,39.812,-69.639,7.2716,-54.095
-26.948,43.694,-5.6837,-21.965,57.847,41.976,-9.4247,-9.7056,55.249,-20.966,-2.3716,-54.632,40.333,-69.352,7.5051,-54.088
-26.394,43.884,-5.4897,-21.909,57.933,41.824,-8.9718,-9.6932,56.088,-20.573,-2.044,-54.526,40.851,-69.061,7.7372,-54.079
-26.394,43.884,-5.4897,-21.909,57.933,41.824,-8.9718,-9.6932,56.088,-20.573,-2.044,-54.526,40.851,-69.061,7.7372,-54.079
-26.394,43.884,-5.4897,-21.909,57.933,41.824,-8.9718,-9.6932,56.088,-20.573,-2.044,-54.526,40.851,-69.061,7.7372,-54.079
-25.839,44.077,-5.2964,-21.849,58.013,41.67,-8.5206,-9.6777,56.925,-20.175,-1.714,-54.415,41.367,-68.766,7.9679,-54.067
-25.839,44.077,-5.2964,-21.849,58.013,41.67,-8.5206,-9.6777,56.925,-20.175,-1.714,-54.415,41.367,-68.766,7.9679,-54.067
-25.281,44.273,-5.1035,-21.786,58.087,41.514,-8.071,-9.659,57.76,-19.773,-1.3818,-54.299,41.88,-68.466,8.197,-54.052
-25.281,44.273,-5.1035,-21.786,58.087,41.514,-8.071,-9.659,57.76,-19.773,-1.3818,-54.299,41.88,-68.466,8.197,-54.052
-24.722,44.471,-4.9113,-21.72,58.154,41.356,-7.6232,-9.6373,58.593,-19.367,-1.0474,-54.179,42.39,-68.162,8.4245,-54.035
-24.722,44.471,-4.9113,-21.72,58.154,41.356,-7.6232,-9.6373,58.593,-19.367,-1.0474,-54.179,42.39,-68.162,8.4245,-54.035
-24.722,44.471,-4.9113,-21.72,58.154,41.356,-7.6232,-9.6373,58.593,-19.367,-1.0474,-54.179,42.39,-68.162,8.4245,-54.035
-24.161,44.671,-4.7198,-21.65,58.215,41.197,-7.1772,-9.6125,59.424,-18.957,-0.7107,-54.055,42.897,-67.854,8.6505,-54.016
-24.161,44.671,-4.7198,-21.65,58.215,41.197,-7.1772,-9.6125,59.424,-18.957,-0.7107,-54.055,42.897,-67.854,8.6505,-54.016
-23.033,45.079,-4.3387,-21.502,58.317,40.873,-6.2907,-9.554,61.08,-18.125,-0.030847,-53.793,43.903,-67.226,9.0976,-53.969
-23.033,45.079,-4.3387,-21.502,58.317,40.873,-6.2907,-9.554,61.08,-18.125,-0.030847,-53.793,43.903,-67.226,9.0976,-53.969
-22.467,45.287,-4.1492,-21.423,58.358,40.708,-5.8503,-9.5203,61.905,-17.703,0.31228,-53.656,44.401,-66.906,9.3187,-53.942
-22.467,45.287,-4.1492,-21.423,58.358,40.708,-5.8503,-9.5203,61.905,-17.703,0.31228,-53.656,44.401,-66.906,9.3187,-53.942
-22.467,45.287,-4.1492,-21.423,58.358,40.708,-5.8503,-9.5203,61.905,-17.703,0.31228,-53.656,44.401,-66.906,9.3187,-53.942
-21.9,45.496,-3.9604,-21.34,58.393,40.541,-5.4119,-9.4836,62.728,-17.277,0.65751,-53.514,44.895,-66.582,9.5381,-53.912
-21.9,45.496,-3.9604,-21.34,58.393,40.541,-5.4119,-9.4836,62.728,-17.277,0.65751,-53.514,44.895,-66.582,9.5381,-53.912
-21.331,45.708,-3.7725,-21.255,58.422,40.373,-4.9755,-9.4441,63.548,-16.847,1.0048,-53.368,45.387,-66.254,9.7557,-53.88
-20.76,45.922,-3.5853,-21.167,58.444,40.203,-4.5412,-9.4017,64.366,-16.414,1.3542,-53.218,45.875,-65.922,9.9716,-53.846
-20.76,45.922,-3.5853,-21.167,58.444,40.203,-4.5412,-9.4017,64.366,-16.414,1.3542,-53.218,45.875,-65.922,9.9716,-53.846
-20.188,46.138,-3.399,-21.075,58.459,40.032,-4.109,-9.3565,65.182,-15.976,1.7055,-53.064,46.361,-65.586,10.186,-53.81
-20.188,46.138,-3.399,-21.075,58.459,40.032,-4.109,-9.3565,65.182,-15.976,1.7055,-53.064,46.361,-65.586,10.186,-53.81
-20.188,46.138,-3.399,-21.075,58.459,40.032,-4.109,-9.3565,65.182,-15.976,1.7055,-53.064,46.361,-65.586,10.186,-53.81
-19.615,46.357,-3.2136,-20.981,58.468,39.859,-3.6789,-9.3086,65.995,-15.536,2.0588,-52.906,46.842,-65.246,10.398,-53.771
-19.615,46.357,-3.2136,-20.981,58.468,39.859,-3.6789,-9.3086,65.995,-15.536,2.0588,-52.906,46.842,-65.246,10.398,-53.771
-19.615,46.357,-3.2136,-20.981,58.468,39.859,-3.6789,-9.3086,65.995,-15.536,2.0588,-52.906,46.842,-65.246,10.398,-53.771
-19.041,46.577,-3.0291,-20.883,58.471,39.684,-3.2511,-9.2578,66.806,-15.091,2.4141,-52.743,47.321,-64.903,10.608,-53.729
-18.466,46.799,-2.8455,-20.783,58.467,39.507,-2.8254,-9.2044,67.615,-14.643,2.7713,-52.576,47.796,-64.556,10.817,-53.686
-17.89,47.023,-2.6628,-20.68,58.457,39.329,-2.4021,-9.1483,68.421,-14.191,3.1304,-52.406,48.267,-64.206,11.024,-53.64
-17.89,47.023,-2.6628,-20.68,58.457,39.329,-2.4021,-9.1483,68.421,-14.191,3.1304,-52.406,48.267,-64.206,11.024,-53.64
-17.312,47.249,-2.4812,-20.574,58.44,39.149,-1.9811,-9.0896,69.224,-13.736,3.4914,-52.231,48.735,-63.852,11.228,-53.593
-17.312,47.249,-2.4812,-20.574,58.44,39.149,-1.9811,-9.0896,69.224,-13.736,3.4914,-52.231,48.735,-63.852,11.228,-53.593
-17.312,47.249,-2.4812,-20.574,58.44,39.149,-1.9811,-9.0896,69.224,-13.736,3.4914,-52.231,48.735,-63.852,11.228,-53.593
-17.312,47.249,-2.4812,-20.574,58.44,39.149,-1.9811,-9.0896,69.224,-13.736,3.4914,-52.231,48.735,-63.852,11.228,-53.593
-16.734,47.476,-2.3006,-20.465,58.417,38.967,-1.5624,-9.0283,70.025,-13.277,3.8542,-52.052,49.199,-63.494,11.431,-53.543
-16.734,47.476,-2.3006,-20.465,58.417,38.967,-1.5624,-9.0283,70.025,-13.277,3.8542,-52.052,49.199,-63.494,11.431,-53.543
-16.155,47.706,-2.121,-20.354,58.388,38.784,-1.1462,-8.9643,70.823,-12.815,4.2188,-51.869,49.66,-63.133,11.632,-53.491
-15.576,47.937,-1.9425,-20.239,58.352,38.599,-0.73236,-8.8979,71.618,-12.35,4.5852,-51.683,50.116,-62.769,11.831,-53.437
-15.576,47.937,-1.9425,-20.239,58.352,38.599,-0.73236,-8.8979,71.618,-12.35,4.5852,-51.683,50.116,-62.769,11.831,-53.437
-15.576,47.937,-1.9425,-20.239,58.352,38.599,-0.73236,-8.8979,71.618,-12.35,4.5852,-51.683,50.116,-62.769,11.831,-53.437
-14.996,48.169,-1.7651,-20.123,58.309,38.413,-0.32105,-8.829,72.411,-11.881,4.9533,-51.492,50.57,-62.401,12.028,-53.38
-14.996,48.169,-1.7651,-20.123,58.309,38.413,-0.32105,-8.829,72.411,-11.881,4.9533,-51.492,50.57,-62.401,12.028,-53.38
-14.415,48.404,-1.5888,-20.003,58.26,38.225,0.087734,-8.7576,73.201,-11.409,5.3231,-51.298,51.019,-62.03,12.222,-53.322
-14.415,48.404,-1.5888,-20.003,58.26,38.225,0.087734,-8.7576,73.201,-11.409,5.3231,-51.298,51.019,-62.03,12.222,-53.322
-13.834,48.64,-1.4137,-19.881,58.205,38.035,0.49394,-8.6838,73.987,-10.934,5.6947,-51.1,51.464,-61.656,12.415,-53.262
-13.834,48.64,-1.4137,-19.881,58.205,38.035,0.49394,-8.6838,73.987,-10.934,5.6947,-51.1,51.464,-61.656,12.415,-53.262
-13.252,48.877,-1.2398,-19.756,58.143,37.844,0.89754,-8.6076,74.771,-10.456,6.0678,-50.898,51.906,-61.278,12.606,-53.2
-13.252,48.877,-1.2398,-19.756,58.143,37.844,0.89754,-8.6076,74.771,-10.456,6.0678,-50.898,51.906,-61.278,12.606,-53.2
-12.67,49.116,-1.0671,-19.629,58.075,37.651,1.2985,-8.5291,75.552,-9.9744,6.4426,-50.693,52.343,-60.898,12.794,-53.136
-12.67,49.116,-1.0671,-19.629,58.075,37.651,1.2985,-8.5291,75.552,-9.9744,6.4426,-50.693,52.343,-60.898,12.794,-53.136
-12.67,49.116,-1.0671,-19.629,58.075,37.651,1.2985,-8.5291,75.552,-9.9744,6.4426,-50.693,52.343,-60.898,12.794,-53.136
-12.087,49.356,-0.8957,-19.5,58,37.457,1.6967,-8.4482,76.33,-9.49,6.819,-50.483,52.777,-60.514,12.98,-53.07
-11.505,49.597,-0.72553,-19.367,57.919,37.261,2.0923,-8.3651,77.105,-9.0025,7.197,-50.27,53.207,-60.127,13.164,-53.002
-10.922,49.84,-0.55667,-19.233,57.831,37.063,2.485,-8.2798,77.877,-8.5121,7.5765,-50.054,53.632,-59.738,13.346,-52.932
-10.922,49.84,-0.55667,-19.233,57.831,37.063,2.485,-8.2798,77.877,-8.5121,7.5765,-50.054,53.632,-59.738,13.346,-52.932
-10.339,50.084,-0.38914,-19.096,57.737,36.864,2.875,-8.1922,78.646,-8.0187,7.9574,-49.834,54.053,-59.345,13.526,-52.861
-10.339,50.084,-0.38914,-19.096,57.737,36.864,2.875,-8.1922,78.646,-8.0187,7.9574,-49.834,54.053,-59.345,13.526,-52.861
-10.339,50.084,-0.38914,-19.096,57.737,36.864,2.875,-8.1922,78.646,-8.0187,7.9574,-49.834,54.053,-59.345,13.526,-52.861
-9.756,50.329,-0.22297,-18.957,57.637,36.663,3.2621,-8.1025,79.411,-7.5226,8.3399,-49.61,54.471,-58.949,13.703,-52.788
-9.756,50.329,-0.22297,-18.957,57.637,36.663,3.2621,-8.1025,79.411,-7.5226,8.3399,-49.61,54.471,-58.949,13.703,-52.788
-8.5905,50.823,0.10519,-18.672,57.417,36.257,4.0276,-7.9168,80.932,-6.5219,9.1091,-49.152,55.292,-58.15,14.051,-52.636
-8.5905,50.823,0.10519,-18.672,57.417,36.257,4.0276,-7.9168,80.932,-6.5219,9.1091,-49.152,55.292,-58.15,14.051,-52.636
-8.5905,50.823,0.10519,-18.672,57.417,36.257,4.0276,-7.9168,80.932,-6.5219,9.1091,-49.152,55.292,-58.15,14.051,-52.636
-8.0081,51.071,0.26712,-18.526,57.298,36.052,4.4059,-7.8209,81.688,-6.0175,9.4957,-48.918,55.697,-57.746,14.222,-52.558
-8.0081,51.071,0.26712,-18.526,57.298,36.052,4.4059,-7.8209,81.688,-6.0175,9.4957,-48.918,55.697,-57.746,14.222,-52.558
-8.0081,51.071,0.26712,-18.526,57.298,36.052,4.4059,-7.8209,81.688,-6.0175,9.4957,-48.918,55.697,-57.746,14.222,-52.558
-7.4258,51.321,0.42758,-18.378,57.172,35.845,4.7813,-7.7229,82.44,-5.5104,9.8837,-48.68,56.097,-57.34,14.39,-52.478
-6.844,51.571,0.58655,-18.228,57.039,35.637,5.1536,-7.623,83.189,-5.0008,10.273,-48.439,56.492,-56.931,14.556,-52.396
-6.2625,51.822,0.74399,-18.076,56.9,35.427,5.5228,-7.5212,83.934,-4.4886,10.664,-48.195,56.883,-56.519,14.719,-52.313
-6.2625,51.822,0.74399,-18.076,56.9,35.427,5.5228,-7.5212,83.934,-4.4886,10.664,-48.195,56.883,-56.519,14.719,-52.313
-5.6816,52.074,0.89989,-17.922,56.755,35.216,5.889,-7.4175,84.676,-3.9739,11.056,-47.948,57.27,-56.105,14.88,-52.228
-5.6816,52.074,0.89989,-17.922,56.755,35.216,5.889,-7.4175,84.676,-3.9739,11.056,-47.948,57.27,-56.105,14.88,-52.228
-5.6816,52.074,0.89989,-17.922,56.755,35.216,5.889,-7.4175,84.676,-3.9739,11.056,-47.948,57.27,-56.105,14.88,-52.228
-5.1011,52.327,1.0542,-17.766,56.604,35.003,6.252,-7.312,85.414,-3.4568,11.449,-47.697,57.652,-55.689,15.039,-52.142
-5.1011,52.327,1.0542,-17.766,56.604,35.003,6.252,-7.312,85.414,-3.4568,11.449,-47.697,57.652,-55.689,15.039,-52.142
-5.1011,52.327,1.0542,-17.766,56.604,35.003,6.252,-7.312,85.414,-3.4568,11.449,-47.697,57.652,-55.689,15.039,-52.142
-4.5214,52.58,1.2069,-17.608,56.446,34.789,6.6119,-7.2046,86.149,-2.9373,11.843,-47.443,58.03,-55.27,15.195,-52.054
-3.9422,52.834,1.358,-17.448,56.282,34.573,6.9685,-7.0955,86.88,-2.4156,12.238,-47.186,58.403,-54.848,15.349,-51.965
-3.3639,53.089,1.5075,-17.286,56.111,34.356,7.3219,-6.9846,87.607,-1.8915,12.635,-46.926,58.771,-54.425,15.5,-51.874
-3.3639,53.089,1.5075,-17.286,56.111,34.356,7.3219,-6.9846,87.607,-1.8915,12.635,-46.926,58.771,-54.425,15.5,-51.874
-2.7864,53.344,1.6552,-17.123,55.934,34.137,7.6721,-6.8721,88.331,-1.3652,13.033,-46.662,59.135,-53.999,15.648,-51.782
-2.7864,53.344,1.6552,-17.123,55.934,34.137,7.6721,-6.8721,88.331,-1.3652,13.033,-46.662,59.135,-53.999,15.648,-51.782
-2.7864,53.344,1.6552,-17.123,55.934,34.137,7.6721,-6.8721,88.331,-1.3652,13.033,-46.662,59.135,-53.999,15.648,-51.782
-2.2098,53.6,1.8013,-16.958,55.751,33.917,8.0189,-6.7579,89.051,-0.83677,13.431,-46.396,59.494,-53.572,15.794,-51.689
-2.2098,53.6,1.8013,-16.958,55.751,33.917,8.0189,-6.7579,89.051,-0.83677,13.431,-46.396,59.494,-53.572,15.794,-51.689
-1.6341,53.856,1.9457,-16.79,55.562,33.695,8.3625,-6.6421,89.767,-0.30623,13.831,-46.127,59.848,-53.142,15.938,-51.594
-1.6341,53.856,1.9457,-16.79,55.562,33.695,8.3625,-6.6421,89.767,-0.30623,13.831,-46.127,59.848,-53.142,15.938,-51.594
-1.0595,54.112,2.0882,-16.622,55.366,33.472,8.7026,-6.5247,90.479,0.22637,14.232,-45.854,60.197,-52.71,16.079,-51.498
-1.0595,54.112,2.0882,-16.622,55.366,33.472,8.7026,-6.5247,90.479,0.22637,14.232,-45.854,60.197,-52.71,16.079,-51.498
-0.48592,54.369,2.229,-16.451,55.164,33.247,9.0394,-6.4058,91.188,0.76096,14.634,-45.579,60.542,-52.276,16.218,-51.401
-0.48592,54.369,2.229,-16.451,55.164,33.247,9.0394,-6.4058,91.188,0.76096,14.634,-45.579,60.542,-52.276,16.218,-51.401
-0.48592,54.369,2.229,-16.451,55.164,33.247,9.0394,-6.4058,91.188,0.76096,14.634,-45.579,60.542,-52.276,16.218,-51.401
0.65759,54.883,2.5052,-16.106,54.741,32.793,9.7026,-6.1636,92.593,1.8359,15.44,-45.02,61.216,-51.402,16.487,-51.203
0.65759,54.883,2.5052,-16.106,54.741,32.793,9.7026,-6.1636,92.593,1.8359,15.44,-45.02,61.216,-51.402,16.487,-51.203
0.65759,54.883,2.5052,-16.106,54.741,32.793,9.7026,-6.1636,92.593,1.8359,15.44,-45.02,61.216,-51.402,16.487,-51.203
1.2274,55.141,2.6406,-15.93,54.52,32.564,10.029,-6.0403,93.289,2.3762,15.844,-44.736,61.546,-50.963,16.617,-51.102
1.2274,55.141,2.6406,-15.93,54.52,32.564,10.029,-6.0403,93.289,2.3762,15.844,-44.736,61.546,-50.963,16.617,-51.102
1.7959,55.398,2.774,-15.754,54.293,32.334,10.352,-5.9157,93.982,2.9182,16.249,-44.45,61.87,-50.522,16.745,-51
1.7959,55.398,2.774,-15.754,54.293,32.334,10.352,-5.9157,93.982,2.9182,16.249,-44.45,61.87,-50.522,16.745,-51
2.363,55.655,2.9056,-15.576,54.06,32.102,10.671,-5.7898,94.67,3.4619,16.656,-44.16,62.19,-50.079,16.871,-50.897
2.363,55.655,2.9056,-15.576,54.06,32.102,10.671,-5.7898,94.67,3.4619,16.656,-44.16,62.19,-50.079,16.871,-50.897
2.9285,55.913,3.0352,-15.396,53.82,31.869,10.987,-5.6625,95.355,4.0073,17.062,-43.868,62.505,-49.634,16.993,-50.793
2.9285,55.913,3.0352,-15.396,53.82,31.869,10.987,-5.6625,95.355,4.0073,17.062,-43.868,62.505,-49.634,16.993,-50.793
3.4925,56.17,3.1629,-15.215,53.574,31.634,11.299,-5.534,96.035,4.5544,17.47,-43.574,62.814,-49.188,17.113,-50.688
3.4925,56.17,3.1629,-15.215,53.574,31.634,11.299,-5.534,96.035,4.5544,17.47,-43.574,62.814,-49.188,17.113,-50.688
4.0549,56.428,3.2886,-15.033,53.322,31.397,11.608,-5.4044,96.711,5.1029,17.878,-43.276,63.118,-48.74,17.23,-50.582
4.0549,56.428,3.2886,-15.033,53.322,31.397,11.608,-5.4044,96.711,5.1029,17.878,-43.276,63.118,-48.74,17.23,-50.582
4.6156,56.685,3.4123,-14.85,53.064,31.16,11.913,-5.2735,97.383,5.653,18.287,-42.977,63.418,-48.291,17.345,-50.475
5.1746,56.941,3.5341,-14.665,52.8,30.921,12.214,-5.1415,98.05,6.2045,18.697,-42.674,63.712,-47.84,17.456,-50.367
5.1746,56.941,3.5341,-14.665,52.8,30.921,12.214,-5.1415,98.05,6.2045,18.697,-42.674,63.712,-47.84,17.456,-50.367
5.1746,56.941,3.5341,-14.665,52.8,30.921,12.214,-5.1415,98.05,6.2045,18.697,-42.674,63.712,-47.84,17.456,-50.367
5.7317,57.198,3.6538,-14.479,52.53,30.68,12.511,-5.0084,98.713,6.7574,19.107,-42.369,64,-47.388,17.565,-50.258
5.7317,57.198,3.6538,-14.479,52.53,30.68,12.511,-5.0084,98.713,6.7574,19.107,-42.369,64,-47.388,17.565,-50.258
5.7317,57.198,3.6538,-14.479,52.53,30.68,12.511,-5.0084,98.713,6.7574,19.107,-42.369,64,-47.388,17.565,-50.258
6.2869,57.454,3.7714,-14.292,52.253,30.438,12.805,-4.8743,99.372,7.3117,19.518,-42.062,64.284,-46.935,17.672,-50.148
6.2869,57.454,3.7714,-14.292,52.253,30.438,12.805,-4.8743,99.372,7.3117,19.518,-42.062,64.284,-46.935,17.672,-50.148
6.8402,57.71,3.8869,-14.104,51.97,30.195,13.095,-4.7392,100.03,7.8672,19.93,-41.752,64.562,-46.481,17.775,-50.038
6.8402,57.71,3.8869,-14.104,51.97,30.195,13.095,-4.7392,100.03,7.8672,19.93,-41.752,64.562,-46.481,17.775,-50.038
7.3915,57.965,4.0004,-13.915,51.682,29.95,13.381,-4.6031,100.68,8.4239,20.342,-41.44,64.835,-46.025,17.876,-49.926
7.3915,57.965,4.0004,-13.915,51.682,29.95,13.381,-4.6031,100.68,8.4239,20.342,-41.44,64.835,-46.025,17.876,-49.926
7.3915,57.965,4.0004,-13.915,51.682,29.95,13.381,-4.6031,100.68,8.4239,20.342,-41.44,64.835,-46.025,17.876,-49.926
8.4879,58.474,4.2209,-13.533,51.086,29.456,13.942,-4.3281,101.96,9.5407,21.167,-40.809,65.365,-45.111,18.069,-49.701
8.4879,58.474,4.2209,-13.533,51.086,29.456,13.942,-4.3281,101.96,9.5407,21.167,-40.809,65.365,-45.111,18.069,-49.701
8.4879,58.474,4.2209,-13.533,51.086,29.456,13.942,-4.3281,101.96,9.5407,21.167,-40.809,65.365,-45.111,18.069,-49.701
9.0328,58.728,4.328,-13.341,50.779,29.207,14.217,-4.1893,102.6,10.101,21.58,-40.49,65.621,-44.652,18.161,-49.587
9.0328,58.728,4.328,-13.341,50.779,29.207,14.217,-4.1893,102.6,10.101,21.58,-40.49,65.621,-44.652,18.161,-49.587
10.116,59.233,4.5354,-12.954,50.147,28.704,14.755,-3.9094,103.86,11.224,22.408,-39.846,66.118,-43.731,18.337,-49.358
10.116,59.233,4.5354,-12.954,50.147,28.704,14.755,-3.9094,103.86,11.224,22.408,-39.846,66.118,-43.731,18.337,-49.358
10.116,59.233,4.5354,-12.954,50.147,28.704,14.755,-3.9094,103.86,11.224,22.408,-39.846,66.118,-43.731,18.337,-49.358
10.654,59.484,4.6359,-12.759,49.822,28.451,15.018,-3.7683,104.48,11.787,22.823,-39.521,66.359,-43.27,18.421,-49.242
10.654,59.484,4.6359,-12.759,49.822,28.451,15.018,-3.7683,104.48,11.787,22.823,-39.521,66.359,-43.27,18.421,-49.242
10.654,59.484,4.6359,-12.759,49.822,28.451,15.018,-3.7683,104.48,11.787,22.823,-39.521,66.359,-43.27,18.421,-49.242
10.654,59.484,4.6359,-12.759,49.822,28.451,15.018,-3.7683,104.48,11.787,22.823,-39.521,66.359,-43.27,18.421,-49.242
11.723,59.985,4.83,-12.367,49.153,27.94,15.533,-3.4842,105.71,12.915,23.653,-38.864,66.823,-42.345,18.579,-49.009
11.723,59.985,4.83,-12.367,49.153,27.94,15.533,-3.4842,105.71,12.915,23.653,-38.864,66.823,-42.345,18.579,-49.009
12.253,60.233,4.9236,-12.17,48.811,27.682,15.784,-3.3411,106.32,13.48,24.068,-38.532,67.046,-41.881,18.654,-48.892
12.253,60.233,4.9236,-12.17,48.811,27.682,15.784,-3.3411,106.32,13.48,24.068,-38.532,67.046,-41.881,18.654,-48.892
12.253,60.233,4.9236,-12.17,48.811,27.682,15.784,-3.3411,106.32,13.48,24.068,-38.532,67.046,-41.881,18.654,-48.892
12.781,60.481,5.015,-11.972,48.462,27.423,16.031,-3.1975,106.93,14.046,24.483,-38.199,67.264,-41.417,18.727,-48.774
12.781,60.481,5.015,-11.972,48.462,27.423,16.031,-3.1975,106.93,14.046,24.483,-38.199,67.264,-41.417,18.727,-48.774
12.781,60.481,5.015,-11.972,48.462,27.423,16.031,-3.1975,106.93,14.046,24.483,-38.199,67.264,-41.417,18.727,-48.774
13.829,60.973,5.1907,-11.575,47.746,26.901,16.514,-2.9088,108.12,15.179,25.315,-37.527,67.684,-40.487,18.862,-48.536
13.829,60.973,5.1907,-11.575,47.746,26.901,16.514,-2.9088,108.12,15.179,25.315,-37.527,67.684,-40.487,18.862,-48.536
14.349,61.218,5.275,-11.375,47.38,26.638,16.749,-2.7637,108.71,15.746,25.731,-37.188,67.885,-40.021,18.926,-48.417
14.349,61.218,5.275,-11.375,47.38,26.638,16.749,-2.7637,108.71,15.746,25.731,-37.188,67.885,-40.021,18.926,-48.417
14.866,61.461,5.357,-11.175,47.007,26.373,16.98,-2.6182,109.3,16.314,26.147,-36.847,68.08,-39.555,18.986,-48.298
14.866,61.461,5.357,-11.175,47.007,26.373,16.98,-2.6182,109.3,16.314,26.147,-36.847,68.08,-39.555,18.986,-48.298
15.38,61.703,5.4366,-10.975,46.629,26.107,17.207,-2.4723,109.88,16.882,26.563,-36.504,68.27,-39.088,19.044,-48.178
15.38,61.703,5.4366,-10.975,46.629,26.107,17.207,-2.4723,109.88,16.882,26.563,-36.504,68.27,-39.088,19.044,-48.178
15.891,61.943,5.5138,-10.774,46.245,25.84,17.43,-2.3261,110.45,17.451,26.979,-36.16,68.454,-38.622,19.099,-48.057
16.399,62.182,5.5886,-10.572,45.855,25.571,17.649,-2.1796,111.02,18.019,27.395,-35.814,68.632,-38.155,19.15,-47.937
16.399,62.182,5.5886,-10.572,45.855,25.571,17.649,-2.1796,111.02,18.019,27.395,-35.814,68.632,-38.155,19.15,-47.937
16.399,62.182,5.5886,-10.572,45.855,25.571,17.649,-2.1796,111.02,18.019,27.395,-35.814,68.632,-38.155,19.15,-47.937
16.904,62.42,5.6609,-10.371,45.46,25.301,17.863,-2.0328,111.59,18.588,27.811,-35.467,68.804,-37.688,19.199,-47.816
16.904,62.42,5.6609,-10.371,45.46,25.301,17.863,-2.0328,111.59,18.588,27.811,-35.467,68.804,-37.688,19.199,-47.816
17.406,62.656,5.7308,-10.168,45.058,25.029,18.074,-1.8858,112.15,19.157,28.227,-35.117,68.971,-37.22,19.245,-47.695
17.406,62.656,5.7308,-10.168,45.058,25.029,18.074,-1.8858,112.15,19.157,28.227,-35.117,68.971,-37.22,19.245,-47.695
17.905,62.891,5.7982,-9.9661,44.651,24.756,18.28,-1.7386,112.7,19.727,28.643,-34.767,69.131,-36.753,19.288,-47.573
18.401,63.124,5.8631,-9.7634,44.239,24.482,18.483,-1.5913,113.25,20.296,29.059,-34.415,69.286,-36.286,19.328,-47.452
18.401,63.124,5.8631,-9.7634,44.239,24.482,18.483,-1.5913,113.25,20.296,29.059,-34.415,69.286,-36.286,19.328,-47.452
18.401,63.124,5.8631,-9.7634,44.239,24.482,18.483,-1.5913,113.25,20.296,29.059,-34.415,69.286,-36.286,19.328,-47.452
18.893,63.356,5.9255,-9.5606,43.82,24.206,18.681,-1.4438,113.8,20.865,29.475,-34.061,69.435,-35.819,19.365,-47.33
18.893,63.356,5.9255,-9.5606,43.82,24.206,18.681,-1.4438,113.8,20.865,29.475,-34.061,69.435,-35.819,19.365,-47.33
18.893,63.356,5.9255,-9.5606,43.82,24.206,18.681,-1.4438,113.8,20.865,29.475,-34.061,69.435,-35.819,19.365,-47.33
19.382,63.585,5.9855,-9.3575,43.396,23.929,18.875,-1.2963,114.34,21.434,29.89,-33.706,69.579,-35.352,19.399,-47.208
19.868,63.813,6.0429,-9.1544,42.967,23.65,19.064,-1.1487,114.87,22.003,30.305,-33.35,69.716,-34.885,19.43,-47.087
19.868,63.813,6.0429,-9.1544,42.967,23.65,19.064,-1.1487,114.87,22.003,30.305,-33.35,69.716,-34.885,19.43,-47.087
20.35,64.04,6.0977,-8.9511,42.531,23.37,19.25,-1.0012,115.4,22.572,30.72,-32.992,69.847,-34.418,19.458,-46.965
20.35,64.04,6.0977,-8.9511,42.531,23.37,19.25,-1.0012,115.4,22.572,30.72,-32.992,69.847,-34.418,19.458,-46.965
20.35,64.04,6.0977,-8.9511,42.531,23.37,19.25,-1.0012,115.4,22.572,30.72,-32.992,69.847,-34.418,19.458,-46.965
20.829,64.264,6.15,-8.7477,42.091,23.089,19.431,-0.85368,115.93,23.14,31.135,-32.633,69.973,-33.952,19.484,-46.843
20.829,64.264,6.15,-8.7477,42.091,23.089,19.431,-0.85368,115.93,23.14,31.135,-32.633,69.973,-33.952,19.484,-46.843
21.777,64.707,6.2469,-8.341,41.192,22.522,19.781,-0.55892,116.96,24.276,31.963,-31.912,70.206,-33.02,19.525,-46.599
21.777,64.707,6.2469,-8.341,41.192,22.522,19.781,-0.55892,116.96,24.276,31.963,-31.912,70.206,-33.02,19.525,-46.599
21.777,64.707,6.2469,-8.341,41.192,22.522,19.781,-0.55892,116.96,24.276,31.963,-31.912,70.206,-33.02,19.525,-46.599
22.245,64.926,6.2915,-8.1377,40.735,22.237,19.95,-0.41174,117.47,24.844,32.377,-31.549,70.313,-32.555,19.541,-46.477
22.245,64.926,6.2915,-8.1377,40.735,22.237,19.95,-0.41174,117.47,24.844,32.377,-31.549,70.313,-32.555,19.541,-46.477
22.709,65.142,6.3335,-7.9344,40.272,21.95,20.114,-0.26475,117.97,25.411,32.79,-31.185,70.415,-32.09,19.555,-46.355
23.17,65.357,6.3728,-7.7313,39.804,21.661,20.274,-0.11797,118.47,25.977,33.203,-30.821,70.511,-31.626,19.565,-46.233
23.17,65.357,6.3728,-7.7313,39.804,21.661,20.274,-0.11797,118.47,25.977,33.203,-30.821,70.511,-31.626,19.565,-46.233
23.627,65.569,6.4095,-7.5283,39.33,21.372,20.43,0.028544,118.97,26.543,33.616,-30.455,70.6,-31.162,19.573,-46.111
23.627,65.569,6.4095,-7.5283,39.33,21.372,20.43,0.028544,118.97,26.543,33.616,-30.455,70.6,-31.162,19.573,-46.111
23.627,65.569,6.4095,-7.5283,39.33,21.372,20.43,0.028544,118.97,26.543,33.616,-30.455,70.6,-31.162,19.573,-46.111
24.081,65.779,6.4436,-7.3255,38.851,21.081,20.582,0.17477,119.45,27.108,34.028,-30.088,70.684,-30.699,19.577,-45.989
24.081,65.779,6.4436,-7.3255,38.851,21.081,20.582,0.17477,119.45,27.108,34.028,-30.088,70.684,-30.699,19.577,-45.989
24.53,65.987,6.4751,-7.1229,38.367,20.788,20.729,0.32067,119.94,27.672,34.439,-29.72,70.762,-30.237,19.579,-45.868
24.53,65.987,6.4751,-7.1229,38.367,20.788,20.729,0.32067,119.94,27.672,34.439,-29.72,70.762,-30.237,19.579,-45.868
24.976,66.192,6.5038,-6.9206,37.877,20.494,20.872,0.4662,120.41,28.236,34.85,-29.351,70.833,-29.775,19.577,-45.747
24.976,66.192,6.5038,-6.9206,37.877,20.494,20.872,0.4662,120.41,28.236,34.85,-29.351,70.833,-29.775,19.577,-45.747
25.418,66.395,6.5299,-6.7185,37.382,20.199,21.01,0.61134,120.88,28.799,35.26,-28.982,70.899,-29.315,19.573,-45.626
25.418,66.395,6.5299,-6.7185,37.382,20.199,21.01,0.61134,120.88,28.799,35.26,-28.982,70.899,-29.315,19.573,-45.626
25.855,66.596,6.5534,-6.5168,36.882,19.902,21.145,0.75605,121.35,29.361,35.67,-28.611,70.959,-28.855,19.566,-45.505
25.855,66.596,6.5534,-6.5168,36.882,19.902,21.145,0.75605,121.35,29.361,35.67,-28.611,70.959,-28.855,19.566,-45.505
26.289,66.794,6.5741,-6.3154,36.376,19.604,21.275,0.9003,121.81,29.922,36.079,-28.24,71.012,-28.396,19.555,-45.384
26.289,66.794,6.5741,-6.3154,36.376,19.604,21.275,0.9003,121.81,29.922,36.079,-28.24,71.012,-28.396,19.555,-45.384
26.719,66.99,6.5922,-6.1145,35.866,19.305,21.401,1.044,122.27,30.483,36.487,-27.868,71.06,-27.938,19.542,-45.264
26.719,66.99,6.5922,-6.1145,35.866,19.305,21.401,1.044,122.27,30.483,36.487,-27.868,71.06,-27.938,19.542,-45.264
27.144,67.184,6.6075,-5.9139,35.35,19.004,21.522,1.1873,122.72,31.042,36.895,-27.495,71.101,-27.481,19.526,-45.144
27.144,67.184,6.6075,-5.9139,35.35,19.004,21.522,1.1873,122.72,31.042,36.895,-27.495,71.101,-27.481,19.526,-45.144
27.566,67.374,6.6202,-5.7138,34.829,18.702,21.64,1.3299,123.16,31.6,37.302,-27.122,71.136,-27.025,19.507,-45.025
27.983,67.562,6.6301,-5.5142,34.302,18.399,21.753,1.4719,123.6,32.157,37.708,-26.748,71.166,-26.57,19.485,-44.906
27.983,67.562,6.6301,-5.5142,34.302,18.399,21.753,1.4719,123.6,32.157,37.708,-26.748,71.166,-26.57,19.485,-44.906
27.983,67.562,6.6301,-5.5142,34.302,18.399,21.753,1.4719,123.6,32.157,37.708,-26.748,71.166,-26.57,19.485,-44.906
28.396,67.748,6.6373,-5.3151,33.771,18.094,21.861,1.6134,124.03,32.713,38.114,-26.373,71.189,-26.117,19.46,-44.787
28.396,67.748,6.6373,-5.3151,33.771,18.094,21.861,1.6134,124.03,32.713,38.114,-26.373,71.189,-26.117,19.46,-44.787
28.396,67.748,6.6373,-5.3151,33.771,18.094,21.861,1.6134,124.03,32.713,38.114,-26.373,71.189,-26.117,19.46,-44.787
28.396,67.748,6.6373,-5.3151,33.771,18.094,21.861,1.6134,124.03,32.713,38.114,-26.373,71.189,-26.117,19.46,-44.787
28.805,67.931,6.6417,-5.1166,33.235,17.787,21.966,1.7541,124.46,33.267,38.518,-25.998,71.206,-25.664,19.432,-44.668
29.21,68.111,6.6434,-4.9186,32.693,17.48,22.066,1.8941,124.88,33.82,38.922,-25.623,71.217,-25.213,19.402,-44.55
29.21,68.111,6.6434,-4.9186,32.693,17.48,22.066,1.8941,124.88,33.82,38.922,-25.623,71.217,-25.213,19.402,-44.55
29.61,68.288,6.6424,-4.7213,32.147,17.171,22.161,2.0335,125.3,34.372,39.325,-25.246,71.222,-24.763,19.368,-44.433
29.61,68.288,6.6424,-4.7213,32.147,17.171,22.161,2.0335,125.3,34.372,39.325,-25.246,71.222,-24.763,19.368,-44.433
30.006,68.462,6.6386,-4.5246,31.596,16.86,22.253,2.172,125.71,34.923,39.727,-24.87,71.221,-24.315,19.332,-44.316
30.006,68.462,6.6386,-4.5246,31.596,16.86,22.253,2.172,125.71,34.923,39.727,-24.87,71.221,-24.315,19.332,-44.316
30.397,68.634,6.632,-4.3286,31.039,16.548,22.34,2.3098,126.12,35.472,40.128,-24.493,71.214,-23.868,19.293,-44.199
30.397,68.634,6.632,-4.3286,31.039,16.548,22.34,2.3098,126.12,35.472,40.128,-24.493,71.214,-23.868,19.293,-44.199
30.784,68.802,6.6227,-4.1333,30.478,16.235,22.423,2.4467,126.51,36.02,40.528,-24.115,71.201,-23.422,19.251,-44.083
30.784,68.802,6.6227,-4.1333,30.478,16.235,22.423,2.4467,126.51,36.02,40.528,-24.115,71.201,-23.422,19.251,-44.083
31.167,68.968,6.6106,-3.9388,29.912,15.921,22.502,2.5828,126.91,36.566,40.928,-23.738,71.182,-22.978,19.206,-43.968
31.545,69.13,6.5958,-3.745,29.341,15.605,22.576,2.718,127.3,37.11,41.326,-23.36,71.156,-22.535,19.158,-43.853
31.919,69.29,6.5781,-3.552,28.766,15.287,22.646,2.8523,127.68,37.653,41.723,-22.981,71.125,-22.094,19.107,-43.738
31.919,69.29,6.5781,-3.552,28.766,15.287,22.646,2.8523,127.68,37.653,41.723,-22.981,71.125,-22.094,19.107,-43.738
31.919,69.29,6.5781,-3.552,28.766,15.287,22.646,2.8523,127.68,37.653,41.723,-22.981,71.125,-22.094,19.107,-43.738
32.288,69.446,6.5577,-3.3599,28.185,14.969,22.712,2.9857,128.06,38.194,42.119,-22.603,71.087,-21.655,19.054,-43.625
32.288,69.446,6.5577,-3.3599,28.185,14.969,22.712,2.9857,128.06,38.194,42.119,-22.603,71.087,-21.655,19.054,-43.625
32.652,69.599,6.5345,-3.1686,27.6,14.649,22.773,3.118,128.43,38.734,42.515,-22.224,71.044,-21.217,18.997,-43.511
32.652,69.599,6.5345,-3.1686,27.6,14.649,22.773,3.118,128.43,38.734,42.515,-22.224,71.044,-21.217,18.997,-43.511
33.012,69.749,6.5085,-2.9781,27.01,14.327,22.831,3.2494,128.79,39.271,42.909,-21.846,70.994,-20.781,18.938,-43.399
33.367,69.896,6.4797,-2.7886,26.416,14.004,22.884,3.3797,129.15,39.807,43.302,-21.467,70.939,-20.347,18.876,-43.287
33.367,69.896,6.4797,-2.7886,26.416,14.004,22.884,3.3797,129.15,39.807,43.302,-21.467,70.939,-20.347,18.876,-43.287
33.718,70.04,6.4482,-2.6001,25.817,13.68,22.933,3.509,129.51,40.341,43.693,-21.088,70.877,-19.915,18.812,-43.176
33.718,70.04,6.4482,-2.6001,25.817,13.68,22.933,3.509,129.51,40.341,43.693,-21.088,70.877,-19.915,18.812,-43.176
33.718,70.04,6.4482,-2.6001,25.817,13.68,22.933,3.509,129.51,40.341,43.693,-21.088,70.877,-19.915,18.812,-43.176
34.064,70.18,6.4138,-2.4125,25.213,13.355,22.977,3.6372,129.86,40.873,44.084,-20.709,70.809,-19.484,18.744,-43.065
34.064,70.18,6.4138,-2.4125,25.213,13.355,22.977,3.6372,129.86,40.873,44.084,-20.709,70.809,-19.484,18.744,-43.065
34.405,70.317,6.3767,-2.2259,24.605,13.028,23.017,3.7642,130.2,41.403,44.473,-20.33,70.735,-19.056,18.674,-42.956
34.405,70.317,6.3767,-2.2259,24.605,13.028,23.017,3.7642,130.2,41.403,44.473,-20.33,70.735,-19.056,18.674,-42.956
34.741,70.451,6.3367,-2.0404,23.992,12.7,23.054,3.8902,130.54,41.931,44.861,-19.951,70.656,-18.629,18.602,-42.847
34.741,70.451,6.3367,-2.0404,23.992,12.7,23.054,3.8902,130.54,41.931,44.861,-19.951,70.656,-18.629,18.602,-42.847
35.072,70.581,6.294,-1.8559,23.375,12.37,23.086,4.0149,130.87,42.456,45.248,-19.572,70.57,-18.204,18.526,-42.738
35.072,70.581,6.294,-1.8559,23.375,12.37,23.086,4.0149,130.87,42.456,45.248,-19.572,70.57,-18.204,18.526,-42.738
35.399,70.707,6.2484,-1.6724,22.753,12.039,23.113,4.1385,131.19,42.98,45.634,-19.194,70.478,-17.782,18.448,-42.631
35.399,70.707,6.2484,-1.6724,22.753,12.039,23.113,4.1385,131.19,42.98,45.634,-19.194,70.478,-17.782,18.448,-42.631
35.721,70.831,6.2001,-1.4901,22.127,11.707,23.137,4.2608,131.51,43.502,46.018,-18.815,70.38,-17.361,18.367,-42.524
35.721,70.831,6.2001,-1.4901,22.127,11.707,23.137,4.2608,131.51,43.502,46.018,-18.815,70.38,-17.361,18.367,-42.524
36.038,70.95,6.149,-1.3089,21.497,11.374,23.156,4.3819,131.83,44.021,46.401,-18.437,70.277,-16.943,18.283,-42.418
36.038,70.95,6.149,-1.3089,21.497,11.374,23.156,4.3819,131.83,44.021,46.401,-18.437,70.277,-16.943,18.283,-42.418
36.35,71.067,6.0951,-1.1289,20.862,11.039,23.171,4.5017,132.14,44.538,46.783,-18.059,70.167,-16.526,18.197,-42.313
36.35,71.067,6.0951,-1.1289,20.862,11.039,23.171,4.5017,132.14,44.538,46.783,-18.059,70.167,-16.526,18.197,-42.313
36.35,71.067,6.0951,-1.1289,20.862,11.039,23.171,4.5017,132.14,44.538,46.783,-18.059,70.167,-16.526,18.197,-42.313
36.657,71.179,6.0384,-0.95003,20.223,10.702,23.183,4.6202,132.44,45.052,47.163,-17.681,70.051,-16.112,18.108,-42.209
36.657,71.179,6.0384,-0.95003,20.223,10.702,23.183,4.6202,132.44,45.052,47.163,-17.681,70.051,-16.112,18.108,-42.209
36.959,71.288,5.9789,-0.77238,19.58,10.365,23.19,4.7373,132.73,45.565,47.542,-17.303,69.93,-15.7,18.017,-42.105
36.959,71.288,5.9789,-0.77238,19.58,10.365,23.19,4.7373,132.73,45.565,47.542,-17.303,69.93,-15.7,18.017,-42.105
37.256,71.394,5.9166,-0.59595,18.933,10.026,23.192,4.8532,133.02,46.075,47.92,-16.926,69.802,-15.291,17.923,-42.003
37.548,71.495,5.8515,-0.42078,18.281,9.6856,23.191,4.9676,133.31,46.582,48.296,-16.549,69.669,-14.883,17.826,-41.901
37.548,71.495,5.8515,-0.42078,18.281,9.6856,23.191,4.9676,133.31,46.582,48.296,-16.549,69.669,-14.883,17.826,-41.901
37.548,71.495,5.8515,-0.42078,18.281,9.6856,23.191,4.9676,133.31,46.582,48.296,-16.549,69.669,-14.883,17.826,-41.901
37.836,71.593,5.7837,-0.24689,17.625,9.344,23.186,5.0807,133.59,47.087,48.67,-16.173,69.529,-14.478,17.727,-41.8
37.836,71.593,5.7837,-0.24689,17.625,9.344,23.186,5.0807,133.59,47.087,48.67,-16.173,69.529,-14.478,17.727,-41.8
38.118,71.687,5.713,-0.074289,16.966,9.0011,23.176,5.1923,133.86,47.589,49.043,-15.797,69.384,-14.076,17.625,-41.7
38.118,71.687,5.713,-0.074289,16.966,9.0011,23.176,5.1923,133.86,47.589,49.043,-15.797,69.384,-14.076,17.625,-41.7
38.118,71.687,5.713,-0.074289,16.966,9.0011,23.176,5.1923,133.86,47.589,49.043,-15.797,69.384,-14.076,17.625,-41.7
38.667,71.864,5.5635,0.26692,15.634,8.3113,23.145,5.4112,134.39,48.586,49.785,-15.046,69.076,-13.278,17.414,-41.504
38.667,71.864,5.5635,0.26692,15.634,8.3113,23.145,5.4112,134.39,48.586,49.785,-15.046,69.076,-13.278,17.414,-41.504
38.667,71.864,5.5635,0.26692,15.634,8.3113,23.145,5.4112,134.39,48.586,49.785,-15.046,69.076,-13.278,17.414,-41.504
38.934,71.947,5.4845,0.43548,14.962,7.9645,23.124,5.5184,134.65,49.081,50.153,-14.672,68.913,-12.883,17.304,-41.406
38.934,71.947,5.4845,0.43548,14.962,7.9645,23.124,5.5184,134.65,49.081,50.153,-14.672,68.913,-12.883,17.304,-41.406
39.196,72.026,5.4028,0.60266,14.287,7.6163,23.098,5.6242,134.9,49.572,50.52,-14.298,68.745,-12.49,17.193,-41.31
39.452,72.101,5.3184,0.76843,13.607,7.2668,23.069,5.7284,135.14,50.061,50.885,-13.925,68.571,-12.1,17.078,-41.215
39.704,72.172,5.2312,0.93277,12.924,6.9161,23.035,5.831,135.38,50.547,51.249,-13.552,68.39,-11.713,16.962,-41.121
39.704,72.172,5.2312,0.93277,12.924,6.9161,23.035,5.831,135.38,50.547,51.249,-13.552,68.39,-11.713,16.962,-41.121
39.951,72.239,5.1413,1.0957,12.237,6.564,22.998,5.932,135.61,51.031,51.611,-13.18,68.204,-11.328,16.843,-41.028
39.951,72.239,5.1413,1.0957,12.237,6.564,22.998,5.932,135.61,51.031,51.611,-13.18,68.204,-11.328,16.843,-41.028
39.951,72.239,5.1413,1.0957,12.237,6.564,22.998,5.932,135.61,51.031,51.611,-13.18,68.204,-11.328,16.843,-41.028
40.192,72.302,5.0486,1.2571,11.546,6.2107,22.957,6.0315,135.84,51.511,51.971,-12.809,68.013,-10.946,16.721,-40.936
40.192,72.302,5.0486,1.2571,11.546,6.2107,22.957,6.0315,135.84,51.511,51.971,-12.809,68.013,-10.946,16.721,-40.936
40.428,72.361,4.9532,1.417,10.851,5.8561,22.911,6.1294,136.06,51.989,52.33,-12.438,67.816,-10.566,16.598,-40.845
40.428,72.361,4.9532,1.417,10.851,5.8561,22.911,6.1294,136.06,51.989,52.33,-12.438,67.816,-10.566,16.598,-40.845
40.659,72.416,4.8551,1.5754,10.153,5.5002,22.862,6.2256,136.27,52.463,52.687,-12.069,67.612,-10.189,16.472,-40.754
40.659,72.416,4.8551,1.5754,10.153,5.5002,22.862,6.2256,136.27,52.463,52.687,-12.069,67.612,-10.189,16.472,-40.754
40.885,72.467,4.7543,1.7323,9.4509,5.143,22.809,6.3202,136.48,52.935,53.042,-11.7,67.404,-9.8154,16.343,-40.665
40.885,72.467,4.7543,1.7323,9.4509,5.143,22.809,6.3202,136.48,52.935,53.042,-11.7,67.404,-9.8154,16.343,-40.665
41.105,72.514,4.6507,1.8877,8.7455,4.7846,22.752,6.4131,136.68,53.403,53.395,-11.332,67.189,-9.4443,16.213,-40.577
41.105,72.514,4.6507,1.8877,8.7455,4.7846,22.752,6.4131,136.68,53.403,53.395,-11.332,67.189,-9.4443,16.213,-40.577
41.321,72.557,4.5445,2.0415,8.0365,4.4249,22.692,6.5043,136.88,53.868,53.747,-10.964,66.97,-9.0759,16.08,-40.49
41.321,72.557,4.5445,2.0415,8.0365,4.4249,22.692,6.5043,136.88,53.868,53.747,-10.964,66.97,-9.0759,16.08,-40.49
41.531,72.595,4.4356,2.1937,7.3241,4.0639,22.627,6.5938,137.07,54.331,54.097,-10.598,66.744,-8.7105,15.944,-40.404
41.531,72.595,4.4356,2.1937,7.3241,4.0639,22.627,6.5938,137.07,54.331,54.097,-10.598,66.744,-8.7105,15.944,-40.404
41.736,72.63,4.324,2.3443,6.6082,3.7017,22.559,6.6816,137.26,54.79,54.445,-10.232,66.513,-8.348,15.807,-40.32
41.736,72.63,4.324,2.3443,6.6082,3.7017,22.559,6.6816,137.26,54.79,54.445,-10.232,66.513,-8.348,15.807,-40.32
41.935,72.66,4.2098,2.4933,5.8889,3.3383,22.487,6.7676,137.44,55.246,54.791,-9.8679,66.276,-7.9883,15.667,-40.236
41.935,72.66,4.2098,2.4933,5.8889,3.3383,22.487,6.7676,137.44,55.246,54.791,-9.8679,66.276,-7.9883,15.667,-40.236
42.13,72.686,4.0929,2.6407,5.1663,2.9736,22.411,6.8519,137.61,55.698,55.136,-9.5043,66.034,-7.6317,15.526,-40.153
42.13,72.686,4.0929,2.6407,5.1663,2.9736,22.411,6.8519,137.61,55.698,55.136,-9.5043,66.034,-7.6317,15.526,-40.153
42.319,72.708,3.9733,2.7864,4.4405,2.6077,22.332,6.9344,137.78,56.148,55.478,-9.1417,65.787,-7.278,15.382,-40.072
42.319,72.708,3.9733,2.7864,4.4405,2.6077,22.332,6.9344,137.78,56.148,55.478,-9.1417,65.787,-7.278,15.382,-40.072
42.319,72.708,3.9733,2.7864,4.4405,2.6077,22.332,6.9344,137.78,56.148,55.478,-9.1417,65.787,-7.278,15.382,-40.072
42.502,72.725,3.8512,2.9305,3.7113,2.2405,22.249,7.0151,137.94,56.594,55.819,-8.7802,65.533,-6.9273,15.236,-39.991
42.681,72.739,3.7263,3.0728,2.979,1.8722,22.162,7.0941,138.1,57.036,56.157,-8.4198,65.275,-6.5797,15.088,-39.912
42.854,72.748,3.5989,3.2135,2.2435,1.5026,22.072,7.1712,138.25,57.476,56.494,-8.0604,65.011,-6.2351,14.938,-39.834
42.854,72.748,3.5989,3.2135,2.2435,1.5026,22.072,7.1712,138.25,57.476,56.494,-8.0604,65.011,-6.2351,14.938,-39.834
42.854,72.748,3.5989,3.2135,2.2435,1.5026,22.072,7.1712,138.25,57.476,56.494,-8.0604,65.011,-6.2351,14.938,-39.834
43.022,72.753,3.4689,3.3525,1.5048,1.1319,21.978,7.2465,138.39,57.912,56.829,-7.7021,64.742,-5.8936,14.785,-39.757
43.022,72.753,3.4689,3.3525,1.5048,1.1319,21.978,7.2465,138.39,57.912,56.829,-7.7021,64.742,-5.8936,14.785,-39.757
43.185,72.753,3.3363,3.4898,0.76317,0.75991,21.88,7.3199,138.53,58.344,57.162,-7.345,64.467,-5.5552,14.631,-39.681
43.185,72.753,3.3363,3.4898,0.76317,0.75991,21.88,7.3199,138.53,58.344,57.162,-7.345,64.467,-5.5552,14.631,-39.681
43.342,72.749,3.2012,3.6253,0.018478,0.38677,21.779,7.3915,138.66,58.773,57.493,-6.9891,64.187,-5.22,14.475,-39.606
43.494,72.741,3.0634,3.7591,-0.72918,0.012443,21.674,7.4612,138.79,59.198,57.822,-6.6343,63.902,-4.888,14.317,-39.532
43.494,72.741,3.0634,3.7591,-0.72918,0.012443,21.674,7.4612,138.79,59.198,57.822,-6.6343,63.902,-4.888,14.317,-39.532
43.641,72.728,2.9231,3.8911,-1.4797,-0.36305,21.566,7.529,138.91,59.62,58.149,-6.2808,63.612,-4.5591,14.157,-39.46
43.641,72.728,2.9231,3.8911,-1.4797,-0.36305,21.566,7.529,138.91,59.62,58.149,-6.2808,63.612,-4.5591,14.157,-39.46
43.782,72.711,2.7803,4.0214,-2.2332,-0.7397,21.455,7.595,139.03,60.039,58.474,-5.9285,63.316,-4.2334,13.995,-39.388
43.782,72.711,2.7803,4.0214,-2.2332,-0.7397,21.455,7.595,139.03,60.039,58.474,-5.9285,63.316,-4.2334,13.995,-39.388
43.782,72.711,2.7803,4.0214,-2.2332,-0.7397,21.455,7.595,139.03,60.039,58.474,-5.9285,63.316,-4.2334,13.995,-39.388
43.919,72.69,2.635,4.1499,-2.9894,-1.1175,21.34,7.659,139.13,60.453,58.797,-5.5776,63.015,-3.911,13.831,-39.318
43.919,72.69,2.635,4.1499,-2.9894,-1.1175,21.34,7.659,139.13,60.453,58.797,-5.5776,63.015,-3.911,13.831,-39.318
43.919,72.69,2.635,4.1499,-2.9894,-1.1175,21.34,7.659,139.13,60.453,58.797,-5.5776,63.015,-3.911,13.831,-39.318
44.05,72.664,2.4872,4.2766,-3.7485,-1.4965,21.221,7.7211,139.24,60.864,59.117,-5.2279,62.709,-3.5919,13.665,-39.249
44.05,72.664,2.4872,4.2766,-3.7485,-1.4965,21.221,7.7211,139.24,60.864,59.117,-5.2279,62.709,-3.5919,13.665,-39.249
44.05,72.664,2.4872,4.2766,-3.7485,-1.4965,21.221,7.7211,139.24,60.864,59.117,-5.2279,62.709,-3.5919,13.665,-39.249
44.295,72.599,2.1841,4.5245,-5.2747,-2.2578,20.975,7.8395,139.43,61.676,59.753,-4.5325,62.082,-2.9634,13.329,-39.114
44.295,72.599,2.1841,4.5245,-5.2747,-2.2578,20.975,7.8395,139.43,61.676,59.753,-4.5325,62.082,-2.9634,13.329,-39.114
44.41,72.56,2.0289,4.6458,-6.0417,-2.6401,20.846,7.8958,139.51,62.075,60.067,-4.1868,61.761,-2.6542,13.158,-39.048
44.41,72.56,2.0289,4.6458,-6.0417,-2.6401,20.846,7.8958,139.51,62.075,60.067,-4.1868,61.761,-2.6542,13.158,-39.048
44.52,72.516,1.8712,4.7652,-6.8113,-3.0236,20.715,7.9501,139.6,62.472,60.38,-3.8426,61.435,-2.3482,12.985,-38.984
44.52,72.516,1.8712,4.7652,-6.8113,-3.0236,20.715,7.9501,139.6,62.472,60.38,-3.8426,61.435,-2.3482,12.985,-38.984
44.624,72.468,1.7111,4.8827,-7.5835,-3.4081,20.58,8.0025,139.67,62.864,60.69,-3.4997,61.104,-2.0457,12.811,-38.921
44.624,72.468,1.7111,4.8827,-7.5835,-3.4081,20.58,8.0025,139.67,62.864,60.69,-3.4997,61.104,-2.0457,12.811,-38.921
44.724,72.416,1.5486,4.9984,-8.3581,-3.7937,20.441,8.0529,139.74,63.253,60.998,-3.1584,60.767,-1.7465,12.635,-38.858
44.724,72.416,1.5486,4.9984,-8.3581,-3.7937,20.441,8.0529,139.74,63.253,60.998,-3.1584,60.767,-1.7465,12.635,-38.858
44.724,72.416,1.5486,4.9984,-8.3581,-3.7937,20.441,8.0529,139.74,63.253,60.998,-3.1584,60.767,-1.7465,12.635,-38.858
44.817,72.359,1.3837,5.1123,-9.1351,-4.1804,20.3,8.1013,139.8,63.637,61.304,-2.8184,60.427,-1.4507,12.457,-38.797
44.817,72.359,1.3837,5.1123,-9.1351,-4.1804,20.3,8.1013,139.8,63.637,61.304,-2.8184,60.427,-1.4507,12.457,-38.797
44.817,72.359,1.3837,5.1123,-9.1351,-4.1804,20.3,8.1013,139.8,63.637,61.304,-2.8184,60.427,-1.4507,12.457,-38.797
44.989,72.231,1.0468,5.3343,-10.696,-4.9571,20.008,8.1922,139.91,64.395,61.909,-2.1431,59.73,-0.86947,12.097,-38.679
44.989,72.231,1.0468,5.3343,-10.696,-4.9571,20.008,8.1922,139.91,64.395,61.909,-2.1431,59.73,-0.86947,12.097,-38.679
44.989,72.231,1.0468,5.3343,-10.696,-4.9571,20.008,8.1922,139.91,64.395,61.909,-2.1431,59.73,-0.86947,12.097,-38.679
45.067,72.16,0.87484,5.4426,-11.48,-5.347,19.857,8.2346,139.96,64.768,62.208,-1.8077,59.375,-0.584,11.915,-38.621
45.067,72.16,0.87484,5.4426,-11.48,-5.347,19.857,8.2346,139.96,64.768,62.208,-1.8077,59.375,-0.584,11.915,-38.621
45.14,72.085,0.70058,5.5489,-12.267,-5.7379,19.704,8.275,140,65.137,62.506,-1.4739,59.015,-0.302,11.731,-38.565
45.14,72.085,0.70058,5.5489,-12.267,-5.7379,19.704,8.275,140,65.137,62.506,-1.4739,59.015,-0.302,11.731,-38.565
45.208,72.005,0.52402,5.6533,-13.055,-6.1298,19.547,8.3134,140.03,65.502,62.8,-1.1416,58.65,-0.023474,11.546,-38.51
45.208,72.005,0.52402,5.6533,-13.055,-6.1298,19.547,8.3134,140.03,65.502,62.8,-1.1416,58.65,-0.023474,11.546,-38.51
45.208,72.005,0.52402,5.6533,-13.055,-6.1298,19.547,8.3134,140.03,65.502,62.8,-1.1416,58.65,-0.023474,11.546,-38.51
45.327,71.832,0.16408,5.8565,-14.638,-6.9168,19.225,8.3841,140.09,66.22,63.383,-0.48191,57.907,0.52307,11.171,-38.403
45.327,71.832,0.16408,5.8565,-14.638,-6.9168,19.225,8.3841,140.09,66.22,63.383,-0.48191,57.907,0.52307,11.171,-38.403
45.327,71.832,0.16408,5.8565,-14.638,-6.9168,19.225,8.3841,140.09,66.22,63.383,-0.48191,57.907,0.52307,11.171,-38.403
45.379,71.739,-0.019246,5.9552,-15.432,-7.3117,19.059,8.4164,140.1,66.573,63.672,-0.15449,57.528,0.79107,10.982,-38.351
45.426,71.641,-0.20479,6.052,-16.229,-7.7077,18.891,8.4467,140.12,66.922,63.957,0.17127,57.145,1.0555,10.791,-38.301
45.467,71.539,-0.39253,6.1468,-17.027,-8.1046,18.72,8.4749,140.12,67.267,64.241,0.49535,56.757,1.3164,10.599,-38.251
45.467,71.539,-0.39253,6.1468,-17.027,-8.1046,18.72,8.4749,140.12,67.267,64.241,0.49535,56.757,1.3164,10.599,-38.251
45.504,71.432,-0.58245,6.2398,-17.828,-8.5024,18.546,8.5011,140.12,67.608,64.522,0.81775,56.365,1.5738,10.406,-38.203
45.504,71.432,-0.58245,6.2398,-17.828,-8.5024,18.546,8.5011,140.12,67.608,64.522,0.81775,56.365,1.5738,10.406,-38.203
45.504,71.432,-0.58245,6.2398,-17.828,-8.5024,18.546,8.5011,140.12,67.608,64.522,0.81775,56.365,1.5738,10.406,-38.203
45.535,71.32,-0.77452,6.3308,-18.63,-8.9012,18.369,8.5252,140.12,67.944,64.801,1.1384,55.969,1.8276,10.211,-38.156
45.535,71.32,-0.77452,6.3308,-18.63,-8.9012,18.369,8.5252,140.12,67.944,64.801,1.1384,55.969,1.8276,10.211,-38.156
45.561,71.204,-0.96872,6.4198,-19.434,-9.301,18.189,8.5473,140.11,68.276,65.077,1.4574,55.568,2.0778,10.015,-38.11
45.582,71.083,-1.165,6.507,-20.239,-9.7016,18.007,8.5674,140.09,68.605,65.352,1.7746,55.163,2.3244,9.8184,-38.065
45.582,71.083,-1.165,6.507,-20.239,-9.7016,18.007,8.5674,140.09,68.605,65.352,1.7746,55.163,2.3244,9.8184,-38.065
45.582,71.083,-1.165,6.507,-20.239,-9.7016,18.007,8.5674,140.09,68.605,65.352,1.7746,55.163,2.3244,9.8184,-38.065
45.598,70.958,-1.3634,6.5922,-21.046,-10.103,17.822,8.5853,140.07,68.929,65.623,2.09,54.754,2.5674,9.6203,-38.021
45.598,70.958,-1.3634,6.5922,-21.046,-10.103,17.822,8.5853,140.07,68.929,65.623,2.09,54.754,2.5674,9.6203,-38.021
45.608,70.828,-1.5639,6.6754,-21.855,-10.506,17.635,8.6013,140.05,69.248,65.893,2.4037,54.34,2.8067,9.4212,-37.978
45.608,70.828,-1.5639,6.6754,-21.855,-10.506,17.635,8.6013,140.05,69.248,65.893,2.4037,54.34,2.8067,9.4212,-37.978
45.614,70.694,-1.7664,6.7567,-22.665,-10.909,17.445,8.6152,140.01,69.564,66.16,2.7156,53.923,3.0425,9.2211,-37.937
45.614,70.694,-1.7664,6.7567,-22.665,-10.909,17.445,8.6152,140.01,69.564,66.16,2.7156,53.923,3.0425,9.2211,-37.937
45.614,70.694,-1.7664,6.7567,-22.665,-10.909,17.445,8.6152,140.01,69.564,66.16,2.7156,53.923,3.0425,9.2211,-37.937
45.614,70.555,-1.9709,6.8361,-23.477,-11.313,17.252,8.627,139.98,69.875,66.425,3.0256,53.501,3.2747,9.0199,-37.896
45.61,70.411,-2.1774,6.9136,-24.29,-11.718,17.057,8.6367,139.93,70.182,66.687,3.3339,53.075,3.5032,8.8177,-37.857
45.6,70.263,-2.3859,6.989,-25.105,-12.124,16.86,8.6444,139.89,70.485,66.947,3.6403,52.645,3.728,8.6146,-37.819
45.6,70.263,-2.3859,6.989,-25.105,-12.124,16.86,8.6444,139.89,70.485,66.947,3.6403,52.645,3.728,8.6146,-37.819
45.585,70.11,-2.5963,7.0626,-25.92,-12.531,16.66,8.6501,139.83,70.783,67.204,3.9448,52.211,3.9493,8.4106,-37.781
45.585,70.11,-2.5963,7.0626,-25.92,-12.531,16.66,8.6501,139.83,70.783,67.204,3.9448,52.211,3.9493,8.4106,-37.781
45.566,69.953,-2.8087,7.1342,-26.737,-12.938,16.457,8.6537,139.77,71.077,67.459,4.2475,51.774,4.1668,8.2057,-37.745
45.566,69.953,-2.8087,7.1342,-26.737,-12.938,16.457,8.6537,139.77,71.077,67.459,4.2475,51.774,4.1668,8.2057,-37.745
45.566,69.953,-2.8087,7.1342,-26.737,-12.938,16.457,8.6537,139.77,71.077,67.459,4.2475,51.774,4.1668,8.2057,-37.745
45.541,69.791,-3.0229,7.2038,-27.556,-13.347,16.253,8.6552,139.71,71.367,67.712,4.5482,51.332,4.3807,7.9999,-37.71
45.541,69.791,-3.0229,7.2038,-27.556,-13.347,16.253,8.6552,139.71,71.367,67.712,4.5482,51.332,4.3807,7.9999,-37.71
45.511,69.625,-3.239,7.2716,-28.375,-13.756,16.046,8.6547,139.64,71.652,67.962,4.8471,50.887,4.591,7.7934,-37.676
45.477,69.454,-3.457,7.3373,-29.196,-14.165,15.837,8.6522,139.56,71.933,68.21,5.1441,50.438,4.7976,7.5861,-37.643
45.477,69.454,-3.457,7.3373,-29.196,-14.165,15.837,8.6522,139.56,71.933,68.21,5.1441,50.438,4.7976,7.5861,-37.643
45.477,69.454,-3.457,7.3373,-29.196,-14.165,15.837,8.6522,139.56,71.933,68.21,5.1441,50.438,4.7976,7.5861,-37.643
45.437,69.279,-3.6768,7.4012,-30.017,-14.576,15.625,8.6476,139.48,72.21,68.455,5.4391,49.985,5.0005,7.3781,-37.611
45.437,69.279,-3.6768,7.4012,-30.017,-14.576,15.625,8.6476,139.48,72.21,68.455,5.4391,49.985,5.0005,7.3781,-37.611
45.393,69.099,-3.8984,7.4631,-30.84,-14.987,15.412,8.641,139.39,72.482,68.698,5.7322,49.528,5.1998,7.1693,-37.58
45.393,69.099,-3.8984,7.4631,-30.84,-14.987,15.412,8.641,139.39,72.482,68.698,5.7322,49.528,5.1998,7.1693,-37.58
45.393,69.099,-3.8984,7.4631,-30.84,-14.987,15.412,8.641,139.39,72.482,68.698,5.7322,49.528,5.1998,7.1693,-37.58
45.344,68.914,-4.1217,7.5231,-31.663,-15.399,15.196,8.6323,139.3,72.75,68.938,6.0234,49.068,5.3954,6.96,-37.55
45.29,68.725,-4.3468,7.5811,-32.487,-15.812,14.978,8.6216,139.21,73.013,69.176,6.3125,48.604,5.5873,6.75,-37.522
45.231,68.532,-4.5736,7.6372,-33.313,-16.226,14.758,8.6088,139.1,73.272,69.412,6.5998,48.137,5.7755,6.5394,-37.494
45.231,68.532,-4.5736,7.6372,-33.313,-16.226,14.758,8.6088,139.1,73.272,69.412,6.5998,48.137,5.7755,6.5394,-37.494
45.231,68.532,-4.5736,7.6372,-33.313,-16.226,14.758,8.6088,139.1,73.272,69.412,6.5998,48.137,5.7755,6.5394,-37.494
45.167,68.334,-4.8021,7.6914,-34.138,-16.64,14.537,8.5941,139,73.526,69.644,6.885,47.666,5.9601,6.3283,-37.467
45.167,68.334,-4.8021,7.6914,-34.138,-16.64,14.537,8.5941,139,73.526,69.644,6.885,47.666,5.9601,6.3283,-37.467
45.099,68.131,-5.0322,7.7437,-34.965,-17.054,14.313,8.5773,138.88,73.776,69.875,7.1682,47.192,6.141,6.1167,-37.441
45.099,68.131,-5.0322,7.7437,-34.965,-17.054,14.313,8.5773,138.88,73.776,69.875,7.1682,47.192,6.141,6.1167,-37.441
45.025,67.925,-5.264,7.7941,-35.792,-17.47,14.087,8.5585,138.77,74.022,70.103,7.4494,46.715,6.3182,5.9046,-37.416
45.025,67.925,-5.264,7.7941,-35.792,-17.47,14.087,8.5585,138.77,74.022,70.103,7.4494,46.715,6.3182,5.9046,-37.416
44.947,67.713,-5.4974,7.8426,-36.62,-17.886,13.86,8.5376,138.64,74.263,70.328,7.7286,46.234,6.4917,5.692,-37.392
44.947,67.713,-5.4974,7.8426,-36.62,-17.886,13.86,8.5376,138.64,74.263,70.328,7.7286,46.234,6.4917,5.692,-37.392
44.865,67.497,-5.7324,7.8891,-37.448,-18.302,13.63,8.5148,138.52,74.499,70.551,8.0058,45.75,6.6616,5.4791,-37.369
44.865,67.497,-5.7324,7.8891,-37.448,-18.302,13.63,8.5148,138.52,74.499,70.551,8.0058,45.75,6.6616,5.4791,-37.369
44.777,67.277,-5.9689,7.9338,-38.277,-18.719,13.399,8.49,138.38,74.731,70.771,8.281,45.263,6.8278,5.2659,-37.347
44.777,67.277,-5.9689,7.9338,-38.277,-18.719,13.399,8.49,138.38,74.731,70.771,8.281,45.263,6.8278,5.2659,-37.347
44.685,67.052,-6.207,7.9765,-39.106,-19.137,13.166,8.4632,138.24,74.959,70.989,8.5541,44.772,6.9904,5.0523,-37.325
44.685,67.052,-6.207,7.9765,-39.106,-19.137,13.166,8.4632,138.24,74.959,70.989,8.5541,44.772,6.9904,5.0523,-37.325
44.685,67.052,-6.207,7.9765,-39.106,-19.137,13.166,8.4632,138.24,74.959,70.989,8.5541,44.772,6.9904,5.0523,-37.325
44.588,66.823,-6.4465,8.0174,-39.936,-19.555,12.931,8.4344,138.1,75.182,71.204,8.8251,44.279,7.1493,4.8384,-37.305
44.588,66.823,-6.4465,8.0174,-39.936,-19.555,12.931,8.4344,138.1,75.182,71.204,8.8251,44.279,7.1493,4.8384,-37.305
44.487,66.59,-6.6875,8.0564,-40.766,-19.974,12.695,8.4036,137.95,75.4,71.416,9.0941,43.782,7.3045,4.6243,-37.285
44.487,66.59,-6.6875,8.0564,-40.766,-19.974,12.695,8.4036,137.95,75.4,71.416,9.0941,43.782,7.3045,4.6243,-37.285
44.381,66.352,-6.9299,8.0936,-41.596,-20.394,12.457,8.3709,137.8,75.614,71.626,9.361,43.283,7.4561,4.41,-37.267
44.381,66.352,-6.9299,8.0936,-41.596,-20.394,12.457,8.3709,137.8,75.614,71.626,9.361,43.283,7.4561,4.41,-37.267
44.381,66.352,-6.9299,8.0936,-41.596,-20.394,12.457,8.3709,137.8,75.614,71.626,9.361,43.283,7.4561,4.41,-37.267
44.156,65.863,-7.419,8.1623,-43.256,-21.234,11.977,8.2996,137.48,76.028,72.039,9.8886,42.275,7.7484,3.9809,-37.232
44.156,65.863,-7.419,8.1623,-43.256,-21.234,11.977,8.2996,137.48,76.028,72.039,9.8886,42.275,7.7484,3.9809,-37.232
44.037,65.612,-7.6656,8.1938,-44.087,-21.655,11.734,8.261,137.31,76.228,72.241,10.149,41.767,7.889,3.7662,-37.216
43.913,65.357,-7.9134,8.2236,-44.917,-22.076,11.49,8.2204,137.13,76.424,72.441,10.408,41.256,8.0261,3.5515,-37.201
43.913,65.357,-7.9134,8.2236,-44.917,-22.076,11.49,8.2204,137.13,76.424,72.441,10.408,41.256,8.0261,3.5515,-37.201
43.784,65.098,-8.1626,8.2515,-45.748,-22.497,11.245,8.178,136.96,76.615,72.638,10.664,40.743,8.1595,3.3367,-37.186
43.784,65.098,-8.1626,8.2515,-45.748,-22.497,11.245,8.178,136.96,76.615,72.638,10.664,40.743,8.1595,3.3367,-37.186
43.652,64.834,-8.413,8.2775,-46.578,-22.919,10.998,8.1336,136.77,76.802,72.833,10.919,40.227,8.2893,3.122,-37.172
43.652,64.834,-8.413,8.2775,-46.578,-22.919,10.998,8.1336,136.77,76.802,72.833,10.919,40.227,8.2893,3.122,-37.172
43.652,64.834,-8.413,8.2775,-46.578,-22.919,10.998,8.1336,136.77,76.802,72.833,10.919,40.227,8.2893,3.122,-37.172
43.515,64.566,-8.6647,8.3018,-47.408,-23.342,10.75,8.0873,136.58,76.984,73.025,11.171,39.708,8.4156,2.9074,-37.159
43.515,64.566,-8.6647,8.3018,-47.408,-23.342,10.75,8.0873,136.58,76.984,73.025,11.171,39.708,8.4156,2.9074,-37.159
43.515,64.566,-8.6647,8.3018,-47.408,-23.342,10.75,8.0873,136.58,76.984,73.025,11.171,39.708,8.4156,2.9074,-37.159
43.373,64.293,-8.9175,8.3243,-48.238,-23.765,10.501,8.0392,136.39,77.161,73.215,11.421,39.187,8.5382,2.6928,-37.147
43.228,64.017,-9.1715,8.3449,-49.068,-24.188,10.25,7.9891,136.19,77.334,73.402,11.669,38.663,8.6572,2.4784,-37.136
43.078,63.736,-9.4267,8.3638,-49.897,-24.611,9.9987,7.9372,135.99,77.502,73.586,11.915,38.137,8.7727,2.2642,-37.125
43.078,63.736,-9.4267,8.3638,-49.897,-24.611,9.9987,7.9372,135.99,77.502,73.586,11.915,38.137,8.7727,2.2642,-37.125
43.078,63.736,-9.4267,8.3638,-49.897,-24.611,9.9987,7.9372,135.99,77.502,73.586,11.915,38.137,8.7727,2.2642,-37.125
42.924,63.451,-9.6829,8.3809,-50.726,-25.035,9.746,7.8834,135.78,77.666,73.768,12.159,37.609,8.8846,2.0501,-37.115
42.924,63.451,-9.6829,8.3809,-50.726,-25.035,9.746,7.8834,135.78,77.666,73.768,12.159,37.609,8.8846,2.0501,-37.115
42.766,63.162,-9.9402,8.3962,-51.555,-25.459,9.4921,7.8278,135.57,77.825,73.947,12.4,37.078,8.993,1.8364,-37.106
42.766,63.162,-9.9402,8.3962,-51.555,-25.459,9.4921,7.8278,135.57,77.825,73.947,12.4,37.078,8.993,1.8364,-37.106
42.603,62.869,-10.199,8.4098,-52.383,-25.883,9.2372,7.7703,135.35,77.979,74.124,12.64,36.545,9.0978,1.6229,-37.097
42.603,62.869,-10.199,8.4098,-52.383,-25.883,9.2372,7.7703,135.35,77.979,74.124,12.64,36.545,9.0978,1.6229,-37.097
42.436,62.571,-10.458,8.4217,-53.21,-26.308,8.9814,7.711,135.13,78.129,74.298,12.877,36.01,9.1991,1.4098,-37.089
42.436,62.571,-10.458,8.4217,-53.21,-26.308,8.9814,7.711,135.13,78.129,74.298,12.877,36.01,9.1991,1.4098,-37.089
42.266,62.27,-10.718,8.4318,-54.037,-26.733,8.7246,7.6499,134.91,78.274,74.469,13.112,35.473,9.2969,1.197,-37.081
42.266,62.27,-10.718,8.4318,-54.037,-26.733,8.7246,7.6499,134.91,78.274,74.469,13.112,35.473,9.2969,1.197,-37.081
42.091,61.964,-10.98,8.4402,-54.864,-27.158,8.4668,7.5869,134.67,78.415,74.638,13.345,34.933,9.3912,0.98471,-37.074
42.091,61.964,-10.98,8.4402,-54.864,-27.158,8.4668,7.5869,134.67,78.415,74.638,13.345,34.933,9.3912,0.98471,-37.074
41.912,61.654,-11.242,8.4469,-55.689,-27.583,8.2083,7.5222,134.44,78.551,74.804,13.576,34.392,9.4819,0.77281,-37.068
41.912,61.654,-11.242,8.4469,-55.689,-27.583,8.2083,7.5222,134.44,78.551,74.804,13.576,34.392,9.4819,0.77281,-37.068
41.73,61.341,-11.505,8.4519,-56.514,-28.008,7.9489,7.4557,134.2,78.683,74.967,13.805,33.849,9.5693,0.56141,-37.062
41.73,61.341,-11.505,8.4519,-56.514,-28.008,7.9489,7.4557,134.2,78.683,74.967,13.805,33.849,9.5693,0.56141,-37.062
41.73,61.341,-11.505,8.4519,-56.514,-28.008,7.9489,7.4557,134.2,78.683,74.967,13.805,33.849,9.5693,0.56141,-37.062
41.543,61.023,-11.769,8.4553,-57.337,-28.434,7.6888,7.3875,133.95,78.81,75.128,14.032,33.304,9.6531,0.35053,-37.057
41.543,61.023,-11.769,8.4553,-57.337,-28.434,7.6888,7.3875,133.95,78.81,75.128,14.032,33.304,9.6531,0.35053,-37.057
41.543,61.023,-11.769,8.4553,-57.337,-28.434,7.6888,7.3875,133.95,78.81,75.128,14.032,33.304,9.6531,0.35053,-37.057
41.158,60.376,-12.299,8.4569,-58.982,-29.285,7.1664,7.2458,133.45,79.05,75.442,14.478,32.208,9.8105,-0.0695,-37.048
41.158,60.376,-12.299,8.4569,-58.982,-29.285,7.1664,7.2458,133.45,79.05,75.442,14.478,32.208,9.8105,-0.0695,-37.048
40.96,60.046,-12.565,8.4553,-59.803,-29.711,6.9042,7.1723,133.19,79.163,75.596,14.699,31.658,9.8841,-0.27857,-37.045
40.96,60.046,-12.565,8.4553,-59.803,-29.711,6.9042,7.1723,133.19,79.163,75.596,14.699,31.658,9.8841,-0.27857,-37.045
40.96,60.046,-12.565,8.4553,-59.803,-29.711,6.9042,7.1723,133.19,79.163,75.596,14.699,31.658,9.8841,-0.27857,-37.045
40.96,60.046,-12.565,8.4553,-59.803,-29.711,6.9042,7.1723,133.19,79.163,75.596,14.699,31.658,9.8841,-0.27857,-37.045
40.757,59.712,-12.832,8.452,-60.623,-30.137,6.6415,7.0971,132.93,79.272,75.746,14.917,31.106,9.9542,-0.48696,-37.042
40.552,59.375,-13.1,8.4472,-61.442,-30.563,6.3782,7.0203,132.66,79.376,75.894,15.132,30.553,10.021,-0.69464,-37.039
40.552,59.375,-13.1,8.4472,-61.442,-30.563,6.3782,7.0203,132.66,79.376,75.894,15.132,30.553,10.021,-0.69464,-37.039
40.342,59.034,-13.368,8.4407,-62.259,-30.989,6.1145,6.9418,132.39,79.475,76.039,15.346,29.998,10.084,-0.90156,-37.036
40.342,59.034,-13.368,8.4407,-62.259,-30.989,6.1145,6.9418,132.39,79.475,76.039,15.346,29.998,10.084,-0.90156,-37.036
40.342,59.034,-13.368,8.4407,-62.259,-30.989,6.1145,6.9418,132.39,79.475,76.039,15.346,29.998,10.084,-0.90156,-37.036
39.912,58.34,-13.907,8.423,-63.89,-31.841,5.5857,6.7797,131.84,79.661,76.322,15.767,28.883,10.201,-1.313,-37.033
39.912,58.34,-13.907,8.423,-63.89,-31.841,5.5857,6.7797,131.84,79.661,76.322,15.767,28.883,10.201,-1.313,-37.033
39.912,58.34,-13.907,8.423,-63.89,-31.841,5.5857,6.7797,131.84,79.661,76.322,15.767,28.883,10.201,-1.313,-37.033
39.692,57.987,-14.177,8.4118,-64.704,-32.267,5.3208,6.6962,131.55,79.747,76.46,15.974,28.324,10.255,-1.5174,-37.032
39.468,57.631,-14.447,8.3991,-65.516,-32.693,5.0555,6.6112,131.26,79.828,76.594,16.179,27.764,10.305,-1.7209,-37.031
39.24,57.27,-14.718,8.3849,-66.327,-33.119,4.79,6.5245,130.97,79.905,76.727,16.382,27.202,10.352,-1.9235,-37.031
39.24,57.27,-14.718,8.3849,-66.327,-33.119,4.79,6.5245,130.97,79.905,76.727,16.382,27.202,10.352,-1.9235,-37.031
39.009,56.907,-14.99,8.3691,-67.136,-33.545,4.5243,6.4362,130.67,79.977,76.856,16.583,26.639,10.395,-2.1251,-37.031
39.009,56.907,-14.99,8.3691,-67.136,-33.545,4.5243,6.4362,130.67,79.977,76.856,16.583,26.639,10.395,-2.1251,-37.031
39.009,56.907,-14.99,8.3691,-67.136,-33.545,4.5243,6.4362,130.67,79.977,76.856,16.583,26.639,10.395,-2.1251,-37.031
39.009,56.907,-14.99,8.3691,-67.136,-33.545,4.5243,6.4362,130.67,79.977,76.856,16.583,26.639,10.395,-2.1251,-37.031
38.775,56.539,-15.262,8.3519,-67.944,-33.97,4.2584,6.3464,130.37,80.045,76.983,16.782,26.075,10.436,-2.3257,-37.031
38.775,56.539,-15.262,8.3519,-67.944,-33.97,4.2584,6.3464,130.37,80.045,76.983,16.782,26.075,10.436,-2.3257,-37.031
38.537,56.168,-15.534,8.3331,-68.749,-34.396,3.9924,6.255,130.07,80.108,77.108,16.978,25.51,10.473,-2.5252,-37.031
38.296,55.793,-15.806,8.3129,-69.554,-34.821,3.7263,6.1621,129.76,80.166,77.23,17.173,24.945,10.507,-2.7237,-37.032
38.051,55.415,-16.079,8.2913,-70.356,-35.246,3.4602,6.0676,129.44,80.221,77.349,17.365,24.378,10.538,-2.921,-37.033
38.051,55.415,-16.079,8.2913,-70.356,-35.246,3.4602,6.0676,129.44,80.221,77.349,17.365,24.378,10.538,-2.921,-37.033
38.051,55.415,-16.079,8.2913,-70.356,-35.246,3.4602,6.0676,129.44,80.221,77.349,17.365,24.378,10.538,-2.921,-37.033
37.803,55.033,-16.353,8.2683,-71.157,-35.671,3.1941,5.9717,129.13,80.27,77.466,17.555,23.81,10.566,-3.1171,-37.034
37.803,55.033,-16.353,8.2683,-71.157,-35.671,3.1941,5.9717,129.13,80.27,77.466,17.555,23.81,10.566,-3.1171,-37.034
37.803,55.033,-16.353,8.2683,-71.157,-35.671,3.1941,5.9717,129.13,80.27,77.466,17.555,23.81,10.566,-3.1171,-37.034
37.552,54.647,-16.626,8.2438,-71.955,-36.096,2.928,5.8743,128.8,80.315,77.58,17.743,23.242,10.59,-3.312,-37.035
37.552,54.647,-16.626,8.2438,-71.955,-36.096,2.928,5.8743,128.8,80.315,77.58,17.743,23.242,10.59,-3.312,-37.035
37.552,54.647,-16.626,8.2438,-71.955,-36.096,2.928,5.8743,128.8,80.315,77.58,17.743,23.242,10.59,-3.312,-37.035
37.041,53.866,-17.174,8.1907,-73.547,-36.944,2.3963,5.675,128.15,80.392,77.8,18.113,22.103,10.63,-3.6981,-37.038
37.041,53.866,-17.174,8.1907,-73.547,-36.944,2.3963,5.675,128.15,80.392,77.8,18.113,22.103,10.63,-3.6981,-37.038
36.78,53.47,-17.448,8.1621,-74.34,-37.368,2.1306,5.5733,127.81,80.424,77.907,18.295,21.533,10.645,-3.8892,-37.039
36.78,53.47,-17.448,8.1621,-74.34,-37.368,2.1306,5.5733,127.81,80.424,77.907,18.295,21.533,10.645,-3.8892,-37.039
36.517,53.071,-17.722,8.1321,-75.13,-37.792,1.8653,5.4701,127.48,80.452,78.01,18.474,20.962,10.658,-4.079,-37.041
36.517,53.071,-17.722,8.1321,-75.13,-37.792,1.8653,5.4701,127.48,80.452,78.01,18.474,20.962,10.658,-4.079,-37.041
36.517,53.071,-17.722,8.1321,-75.13,-37.792,1.8653,5.4701,127.48,80.452,78.01,18.474,20.962,10.658,-4.079,-37.041
36.517,53.071,-17.722,8.1321,-75.13,-37.792,1.8653,5.4701,127.48,80.452,78.01,18.474,20.962,10.658,-4.079,-37.041
