-12.003,-35.48,-1.3773,-16.268,-46.553,-48.61,10.386,-13.982,38.067,1.4606,48.264,20.212,61.81,9.7794,-13.478,-5.262
-12.003,-35.48,-1.3773,-16.268,-46.553,-48.61,10.386,-13.982,38.067,1.4606,48.264,20.212,61.81,9.7794,-13.478,-5.262
-12.003,-35.48,-1.3773,-16.268,-46.553,-48.61,10.386,-13.982,38.067,1.4606,48.264,20.212,61.81,9.7794,-13.478,-5.262
-12.207,-35.591,-1.4119,-16.252,-46.894,-48.724,10.704,-13.733,37.92,1.3482,48.318,20.09,61.738,9.6616,-13.617,-5.3985
-12.411,-35.702,-1.447,-16.237,-47.234,-48.837,11.022,-13.484,37.774,1.2364,48.373,19.969,61.666,9.5437,-13.754,-5.534
-12.411,-35.702,-1.447,-16.237,-47.234,-48.837,11.022,-13.484,37.774,1.2364,48.373,19.969,61.666,9.5437,-13.754,-5.534
-12.614,-35.811,-1.4829,-16.222,-47.574,-48.95,11.341,-13.234,37.628,1.1252,48.43,19.849,61.593,9.4259,-13.891,-5.6687
-12.614,-35.811,-1.4829,-16.222,-47.574,-48.95,11.341,-13.234,37.628,1.1252,48.43,19.849,61.593,9.4259,-13.891,-5.6687
-12.816,-35.92,-1.5194,-16.206,-47.912,-49.063,11.659,-12.984,37.483,1.0146,48.488,19.73,61.521,9.308,-14.026,-5.8024
-12.816,-35.92,-1.5194,-16.206,-47.912,-49.063,11.659,-12.984,37.483,1.0146,48.488,19.73,61.521,9.308,-14.026,-5.8024
-13.017,-36.027,-1.5565,-16.191,-48.25,-49.175,11.977,-12.733,37.338,0.90459,48.548,19.612,61.448,9.1901,-14.16,-5.9352
-13.017,-36.027,-1.5565,-16.191,-48.25,-49.175,11.977,-12.733,37.338,0.90459,48.548,19.612,61.448,9.1901,-14.16,-5.9352
-13.017,-36.027,-1.5565,-16.191,-48.25,-49.175,11.977,-12.733,37.338,0.90459,48.548,19.612,61.448,9.1901,-14.16,-5.9352
-13.218,-36.134,-1.5942,-16.176,-48.587,-49.287,12.296,-12.481,37.194,0.79516,48.608,19.496,61.374,9.0722,-14.293,-6.0671
-13.218,-36.134,-1.5942,-16.176,-48.587,-49.287,12.296,-12.481,37.194,0.79516,48.608,19.496,61.374,9.0722,-14.293,-6.0671
-13.218,-36.134,-1.5942,-16.176,-48.587,-49.287,12.296,-12.481,37.194,0.79516,48.608,19.496,61.374,9.0722,-14.293,-6.0671
-13.618,-36.343,-1.6716,-16.147,-49.258,-49.51,12.932,-11.977,36.907,0.57811,48.734,19.266,61.227,8.8364,-14.555,-6.3282
-13.618,-36.343,-1.6716,-16.147,-49.258,-49.51,12.932,-11.977,36.907,0.57811,48.734,19.266,61.227,8.8364,-14.555,-6.3282
-13.618,-36.343,-1.6716,-16.147,-49.258,-49.51,12.932,-11.977,36.907,0.57811,48.734,19.266,61.227,8.8364,-14.555,-6.3282
-13.817,-36.447,-1.7113,-16.132,-49.593,-49.621,13.251,-11.724,36.764,0.47051,48.799,19.153,61.153,8.7186,-14.685,-6.4573
-13.817,-36.447,-1.7113,-16.132,-49.593,-49.621,13.251,-11.724,36.764,0.47051,48.799,19.153,61.153,8.7186,-14.685,-6.4573
-14.015,-36.549,-1.7515,-16.117,-49.927,-49.731,13.569,-11.47,36.621,0.36352,48.865,19.041,61.079,8.6008,-14.813,-6.5855
-14.015,-36.549,-1.7515,-16.117,-49.927,-49.731,13.569,-11.47,36.621,0.36352,48.865,19.041,61.079,8.6008,-14.813,-6.5855
-14.213,-36.65,-1.7924,-16.102,-50.259,-49.841,13.887,-11.217,36.479,0.25715,48.933,18.93,61.005,8.483,-14.94,-6.7127
-14.41,-36.75,-1.8338,-16.088,-50.591,-49.951,14.206,-10.962,36.337,0.1514,49.002,18.82,60.931,8.3652,-15.066,-6.8389
-14.41,-36.75,-1.8338,-16.088,-50.591,-49.951,14.206,-10.962,36.337,0.1514,49.002,18.82,60.931,8.3652,-15.066,-6.8389
-14.606,-36.849,-1.8759,-16.073,-50.922,-50.061,14.524,-10.707,36.196,0.046284,49.072,18.711,60.856,8.2475,-15.191,-6.9643
-14.606,-36.849,-1.8759,-16.073,-50.922,-50.061,14.524,-10.707,36.196,0.046284,49.072,18.711,60.856,8.2475,-15.191,-6.9643
-14.802,-36.947,-1.9186,-16.059,-51.252,-50.169,14.842,-10.452,36.055,-0.058198,49.143,18.604,60.781,8.1299,-15.314,-7.0886
-14.802,-36.947,-1.9186,-16.059,-51.252,-50.169,14.842,-10.452,36.055,-0.058198,49.143,18.604,60.781,8.1299,-15.314,-7.0886
-14.997,-37.044,-1.9618,-16.045,-51.581,-50.278,15.16,-10.196,35.915,-0.16204,49.215,18.497,60.706,8.0123,-15.436,-7.212
-14.997,-37.044,-1.9618,-16.045,-51.581,-50.278,15.16,-10.196,35.915,-0.16204,49.215,18.497,60.706,8.0123,-15.436,-7.212
-15.192,-37.14,-2.0057,-16.03,-51.909,-50.386,15.478,-9.9393,35.774,-0.26524,49.289,18.392,60.631,7.8948,-15.558,-7.3344
-15.192,-37.14,-2.0057,-16.03,-51.909,-50.386,15.478,-9.9393,35.774,-0.26524,49.289,18.392,60.631,7.8948,-15.558,-7.3344
-15.386,-37.235,-2.0501,-16.016,-52.236,-50.494,15.796,-9.6824,35.635,-0.3678,49.364,18.288,60.556,7.7773,-15.677,-7.4558
-15.386,-37.235,-2.0501,-16.016,-52.236,-50.494,15.796,-9.6824,35.635,-0.3678,49.364,18.288,60.556,7.7773,-15.677,-7.4558
-15.579,-37.328,-2.0951,-16.002,-52.562,-50.601,16.114,-9.425,35.496,-0.46971,49.44,18.185,60.48,7.66,-15.796,-7.5763
-15.579,-37.328,-2.0951,-16.002,-52.562,-50.601,16.114,-9.425,35.496,-0.46971,49.44,18.185,60.48,7.66,-15.796,-7.5763
-15.771,-37.421,-2.1407,-15.988,-52.887,-50.707,16.431,-9.167,35.357,-0.57096,49.518,18.083,60.404,7.5427,-15.914,-7.6957
-15.771,-37.421,-2.1407,-15.988,-52.887,-50.707,16.431,-9.167,35.357,-0.57096,49.518,18.083,60.404,7.5427,-15.914,-7.6957
-15.963,-37.512,-2.1869,-15.974,-53.211,-50.813,16.748,-8.9086,35.218,-0.67155,49.596,17.982,60.329,7.4255,-16.03,-7.8142
-15.963,-37.512,-2.1869,-15.974,-53.211,-50.813,16.748,-8.9086,35.218,-0.67155,49.596,17.982,60.329,7.4255,-16.03,-7.8142
-16.155,-37.603,-2.2336,-15.96,-53.534,-50.919,17.066,-8.6497,35.08,-0.77149,49.676,17.882,60.253,7.3085,-16.145,-7.9317
-16.155,-37.603,-2.2336,-15.96,-53.534,-50.919,17.066,-8.6497,35.08,-0.77149,49.676,17.882,60.253,7.3085,-16.145,-7.9317
-16.346,-37.692,-2.2809,-15.946,-53.856,-51.024,17.383,-8.3903,34.943,-0.87075,49.756,17.783,60.176,7.1915,-16.259,-8.0481
-16.346,-37.692,-2.2809,-15.946,-53.856,-51.024,17.383,-8.3903,34.943,-0.87075,49.756,17.783,60.176,7.1915,-16.259,-8.0481
-16.536,-37.78,-2.3288,-15.932,-54.177,-51.129,17.7,-8.1304,34.806,-0.96935,49.838,17.685,60.1,7.0747,-16.372,-8.1636
-16.536,-37.78,-2.3288,-15.932,-54.177,-51.129,17.7,-8.1304,34.806,-0.96935,49.838,17.685,60.1,7.0747,-16.372,-8.1636
-16.725,-37.867,-2.3772,-15.918,-54.497,-51.233,18.016,-7.87,34.669,-1.0673,49.921,17.589,60.024,6.958,-16.484,-8.2781
-16.725,-37.867,-2.3772,-15.918,-54.497,-51.233,18.016,-7.87,34.669,-1.0673,49.921,17.589,60.024,6.958,-16.484,-8.2781
-16.914,-37.953,-2.4261,-15.904,-54.815,-51.336,18.333,-7.6091,34.532,-1.1645,50.005,17.494,59.947,6.8414,-16.594,-8.3916
-16.914,-37.953,-2.4261,-15.904,-54.815,-51.336,18.333,-7.6091,34.532,-1.1645,50.005,17.494,59.947,6.8414,-16.594,-8.3916
-16.914,-37.953,-2.4261,-15.904,-54.815,-51.336,18.333,-7.6091,34.532,-1.1645,50.005,17.494,59.947,6.8414,-16.594,-8.3916
-17.102,-38.038,-2.4756,-15.89,-55.133,-51.439,18.649,-7.3478,34.396,-1.2611,50.09,17.399,59.87,6.725,-16.703,-8.504
-17.102,-38.038,-2.4756,-15.89,-55.133,-51.439,18.649,-7.3478,34.396,-1.2611,50.09,17.399,59.87,6.725,-16.703,-8.504
-17.102,-38.038,-2.4756,-15.89,-55.133,-51.439,18.649,-7.3478,34.396,-1.2611,50.09,17.399,59.87,6.725,-16.703,-8.504
-17.102,-38.038,-2.4756,-15.89,-55.133,-51.439,18.649,-7.3478,34.396,-1.2611,50.09,17.399,59.87,6.725,-16.703,-8.504
-17.477,-38.204,-2.5761,-15.863,-55.765,-51.643,19.28,-6.8235,34.125,-1.4522,50.264,17.214,59.716,6.4926,-16.918,-8.7259
-17.477,-38.204,-2.5761,-15.863,-55.765,-51.643,19.28,-6.8235,34.125,-1.4522,50.264,17.214,59.716,6.4926,-16.918,-8.7259
-17.477,-38.204,-2.5761,-15.863,-55.765,-51.643,19.28,-6.8235,34.125,-1.4522,50.264,17.214,59.716,6.4926,-16.918,-8.7259
-17.849,-38.366,-2.6788,-15.835,-56.392,-51.845,19.911,-6.2974,33.856,-1.6405,50.441,17.033,59.562,6.2608,-17.129,-8.9437
-17.849,-38.366,-2.6788,-15.835,-56.392,-51.845,19.911,-6.2974,33.856,-1.6405,50.441,17.033,59.562,6.2608,-17.129,-8.9437
-17.849,-38.366,-2.6788,-15.835,-56.392,-51.845,19.911,-6.2974,33.856,-1.6405,50.441,17.033,59.562,6.2608,-17.129,-8.9437
-18.034,-38.446,-2.7309,-15.821,-56.704,-51.945,20.226,-6.0336,33.722,-1.7336,50.531,16.944,59.485,6.1451,-17.232,-9.051
-18.219,-38.524,-2.7834,-15.807,-57.015,-52.044,20.54,-5.7693,33.588,-1.826,50.623,16.856,59.407,6.0296,-17.334,-9.1574
-18.219,-38.524,-2.7834,-15.807,-57.015,-52.044,20.54,-5.7693,33.588,-1.826,50.623,16.856,59.407,6.0296,-17.334,-9.1574
-18.403,-38.601,-2.8365,-15.794,-57.325,-52.143,20.854,-5.5045,33.455,-1.9177,50.715,16.769,59.33,5.9144,-17.435,-9.2627
-18.586,-38.677,-2.8901,-15.78,-57.633,-52.241,21.168,-5.2393,33.322,-2.0087,50.808,16.684,59.252,5.7993,-17.535,-9.367
-18.586,-38.677,-2.8901,-15.78,-57.633,-52.241,21.168,-5.2393,33.322,-2.0087,50.808,16.684,59.252,5.7993,-17.535,-9.367
-18.586,-38.677,-2.8901,-15.78,-57.633,-52.241,21.168,-5.2393,33.322,-2.0087,50.808,16.684,59.252,5.7993,-17.535,-9.367
-18.769,-38.752,-2.9442,-15.766,-57.94,-52.338,21.481,-4.9736,33.189,-2.099,50.901,16.599,59.174,5.6844,-17.633,-9.4702
-18.769,-38.752,-2.9442,-15.766,-57.94,-52.338,21.481,-4.9736,33.189,-2.099,50.901,16.599,59.174,5.6844,-17.633,-9.4702
-18.769,-38.752,-2.9442,-15.766,-57.94,-52.338,21.481,-4.9736,33.189,-2.099,50.901,16.599,59.174,5.6844,-17.633,-9.4702
-18.951,-38.825,-2.9987,-15.752,-58.246,-52.435,21.794,-4.7074,33.057,-2.1886,50.996,16.516,59.097,5.5697,-17.731,-9.5724
-19.132,-38.898,-3.0537,-15.739,-58.551,-52.531,22.107,-4.4408,32.925,-2.2775,51.092,16.433,59.019,5.4552,-17.827,-9.6736
-19.313,-38.969,-3.1092,-15.725,-58.854,-52.626,22.419,-4.1736,32.793,-2.3657,51.188,16.352,58.941,5.3409,-17.922,-9.7737
-19.313,-38.969,-3.1092,-15.725,-58.854,-52.626,22.419,-4.1736,32.793,-2.3657,51.188,16.352,58.941,5.3409,-17.922,-9.7737
-19.494,-39.04,-3.1652,-15.711,-59.156,-52.721,22.731,-3.906,32.662,-2.4531,51.286,16.271,58.863,5.2268,-18.016,-9.8728
-19.494,-39.04,-3.1652,-15.711,-59.156,-52.721,22.731,-3.906,32.662,-2.4531,51.286,16.271,58.863,5.2268,-18.016,-9.8728
-19.494,-39.04,-3.1652,-15.711,-59.156,-52.721,22.731,-3.906,32.662,-2.4531,51.286,16.271,58.863,5.2268,-18.016,-9.8728
-19.674,-39.109,-3.2216,-15.697,-59.457,-52.815,23.042,-3.638,32.531,-2.5398,51.384,16.192,58.784,5.113,-18.109,-9.9709
-19.674,-39.109,-3.2216,-15.697,-59.457,-52.815,23.042,-3.638,32.531,-2.5398,51.384,16.192,58.784,5.113,-18.109,-9.9709
-19.853,-39.177,-3.2784,-15.683,-59.757,-52.908,23.353,-3.3694,32.4,-2.6258,51.483,16.114,58.706,4.9994,-18.2,-10.068
-19.853,-39.177,-3.2784,-15.683,-59.757,-52.908,23.353,-3.3694,32.4,-2.6258,51.483,16.114,58.706,4.9994,-18.2,-10.068
-20.031,-39.244,-3.3357,-15.669,-60.055,-53,23.663,-3.1005,32.27,-2.7111,51.583,16.037,58.628,4.8861,-18.291,-10.164
-20.031,-39.244,-3.3357,-15.669,-60.055,-53,23.663,-3.1005,32.27,-2.7111,51.583,16.037,58.628,4.8861,-18.291,-10.164
-20.21,-39.31,-3.3934,-15.656,-60.352,-53.092,23.973,-2.831,32.14,-2.7956,51.683,15.961,58.549,4.7729,-18.38,-10.259
-20.21,-39.31,-3.3934,-15.656,-60.352,-53.092,23.973,-2.831,32.14,-2.7956,51.683,15.961,58.549,4.7729,-18.38,-10.259
-20.387,-39.374,-3.4515,-15.642,-60.647,-53.183,24.282,-2.5611,32.01,-2.8794,51.785,15.885,58.471,4.6601,-18.468,-10.353
-20.387,-39.374,-3.4515,-15.642,-60.647,-53.183,24.282,-2.5611,32.01,-2.8794,51.785,15.885,58.471,4.6601,-18.468,-10.353
-20.387,-39.374,-3.4515,-15.642,-60.647,-53.183,24.282,-2.5611,32.01,-2.8794,51.785,15.885,58.471,4.6601,-18.468,-10.353
-20.564,-39.438,-3.5101,-15.628,-60.942,-53.273,24.591,-2.2908,31.881,-2.9625,51.887,15.811,58.393,4.5475,-18.555,-10.446
-20.564,-39.438,-3.5101,-15.628,-60.942,-53.273,24.591,-2.2908,31.881,-2.9625,51.887,15.811,58.393,4.5475,-18.555,-10.446
-20.74,-39.5,-3.5691,-15.614,-61.234,-53.362,24.9,-2.02,31.752,-3.0448,51.989,15.738,58.314,4.4351,-18.64,-10.537
-20.74,-39.5,-3.5691,-15.614,-61.234,-53.362,24.9,-2.02,31.752,-3.0448,51.989,15.738,58.314,4.4351,-18.64,-10.537
-20.74,-39.5,-3.5691,-15.614,-61.234,-53.362,24.9,-2.02,31.752,-3.0448,51.989,15.738,58.314,4.4351,-18.64,-10.537
-20.916,-39.562,-3.6284,-15.6,-61.526,-53.451,25.208,-1.7487,31.623,-3.1264,52.093,15.666,58.235,4.323,-18.725,-10.628
-21.091,-39.622,-3.6882,-15.585,-61.816,-53.539,25.515,-1.4771,31.495,-3.2073,52.197,15.595,58.157,4.2112,-18.808,-10.718
-21.091,-39.622,-3.6882,-15.585,-61.816,-53.539,25.515,-1.4771,31.495,-3.2073,52.197,15.595,58.157,4.2112,-18.808,-10.718
-21.266,-39.681,-3.7484,-15.571,-62.105,-53.626,25.822,-1.2049,31.367,-3.2874,52.301,15.525,58.078,4.0997,-18.891,-10.807
-21.44,-39.739,-3.8089,-15.557,-62.392,-53.712,26.128,-0.93236,31.239,-3.3668,52.407,15.456,57.999,3.9884,-18.972,-10.894
-21.44,-39.739,-3.8089,-15.557,-62.392,-53.712,26.128,-0.93236,31.239,-3.3668,52.407,15.456,57.999,3.9884,-18.972,-10.894
-21.614,-39.795,-3.8698,-15.543,-62.678,-53.797,26.433,-0.65936,31.111,-3.4454,52.513,15.388,57.921,3.8774,-19.052,-10.981
-21.614,-39.795,-3.8698,-15.543,-62.678,-53.797,26.433,-0.65936,31.111,-3.4454,52.513,15.388,57.921,3.8774,-19.052,-10.981
-21.614,-39.795,-3.8698,-15.543,-62.678,-53.797,26.433,-0.65936,31.111,-3.4454,52.513,15.388,57.921,3.8774,-19.052,-10.981
-21.787,-39.851,-3.9311,-15.528,-62.963,-53.882,26.738,-0.38593,30.984,-3.5233,52.619,15.321,57.842,3.7668,-19.131,-11.066
-21.96,-39.906,-3.9928,-15.514,-63.246,-53.966,27.042,-0.11207,30.857,-3.6004,52.726,15.255,57.763,3.6564,-19.209,-11.151
-21.96,-39.906,-3.9928,-15.514,-63.246,-53.966,27.042,-0.11207,30.857,-3.6004,52.726,15.255,57.763,3.6564,-19.209,-11.151
-22.132,-39.959,-4.0548,-15.5,-63.527,-54.048,27.346,0.16221,30.73,-3.6768,52.834,15.191,57.684,3.5463,-19.285,-11.234
-22.132,-39.959,-4.0548,-15.5,-63.527,-54.048,27.346,0.16221,30.73,-3.6768,52.834,15.191,57.684,3.5463,-19.285,-11.234
-22.303,-40.011,-4.1171,-15.485,-63.807,-54.13,27.649,0.43691,30.604,-3.7525,52.942,15.127,57.605,3.4365,-19.361,-11.317
-22.303,-40.011,-4.1171,-15.485,-63.807,-54.13,27.649,0.43691,30.604,-3.7525,52.942,15.127,57.605,3.4365,-19.361,-11.317
-22.303,-40.011,-4.1171,-15.485,-63.807,-54.13,27.649,0.43691,30.604,-3.7525,52.942,15.127,57.605,3.4365,-19.361,-11.317
-22.475,-40.063,-4.1798,-15.47,-64.086,-54.211,27.951,0.71203,30.478,-3.8274,53.051,15.064,57.527,3.327,-19.435,-11.398
-22.645,-40.113,-4.2428,-15.456,-64.363,-54.291,28.253,0.98756,30.352,-3.9015,53.16,15.001,57.448,3.2179,-19.509,-11.479
-22.645,-40.113,-4.2428,-15.456,-64.363,-54.291,28.253,0.98756,30.352,-3.9015,53.16,15.001,57.448,3.2179,-19.509,-11.479
-22.815,-40.162,-4.3061,-15.441,-64.639,-54.371,28.554,1.2635,30.227,-3.9749,53.27,14.94,57.369,3.1091,-19.581,-11.558
-22.985,-40.209,-4.3697,-15.426,-64.913,-54.449,28.854,1.5399,30.101,-4.0475,53.38,14.88,57.29,3.0005,-19.652,-11.637
-22.985,-40.209,-4.3697,-15.426,-64.913,-54.449,28.854,1.5399,30.101,-4.0475,53.38,14.88,57.29,3.0005,-19.652,-11.637
-22.985,-40.209,-4.3697,-15.426,-64.913,-54.449,28.854,1.5399,30.101,-4.0475,53.38,14.88,57.29,3.0005,-19.652,-11.637
-23.154,-40.256,-4.4337,-15.411,-65.186,-54.527,29.154,1.8166,29.976,-4.1194,53.49,14.821,57.211,2.8924,-19.722,-11.714
-23.154,-40.256,-4.4337,-15.411,-65.186,-54.527,29.154,1.8166,29.976,-4.1194,53.49,14.821,57.211,2.8924,-19.722,-11.714
-23.154,-40.256,-4.4337,-15.411,-65.186,-54.527,29.154,1.8166,29.976,-4.1194,53.49,14.821,57.211,2.8924,-19.722,-11.714
-23.322,-40.302,-4.4979,-15.396,-65.457,-54.603,29.453,2.0938,29.851,-4.1906,53.601,14.763,57.132,2.7845,-19.791,-11.79
-23.491,-40.346,-4.5625,-15.381,-65.727,-54.679,29.751,2.3713,29.727,-4.2609,53.713,14.706,57.053,2.677,-19.859,-11.865
-23.491,-40.346,-4.5625,-15.381,-65.727,-54.679,29.751,2.3713,29.727,-4.2609,53.713,14.706,57.053,2.677,-19.859,-11.865
-23.658,-40.39,-4.6273,-15.366,-65.995,-54.753,30.048,2.6492,29.603,-4.3306,53.825,14.65,56.974,2.5698,-19.925,-11.94
-23.658,-40.39,-4.6273,-15.366,-65.995,-54.753,30.048,2.6492,29.603,-4.3306,53.825,14.65,56.974,2.5698,-19.925,-11.94
-23.825,-40.432,-4.6923,-15.35,-66.262,-54.827,30.345,2.9276,29.479,-4.3994,53.937,14.594,56.895,2.463,-19.991,-12.013
-23.825,-40.432,-4.6923,-15.35,-66.262,-54.827,30.345,2.9276,29.479,-4.3994,53.937,14.594,56.895,2.463,-19.991,-12.013
-23.992,-40.473,-4.7577,-15.335,-66.527,-54.9,30.64,3.2063,29.355,-4.4675,54.049,14.54,56.817,2.3565,-20.056,-12.085
-23.992,-40.473,-4.7577,-15.335,-66.527,-54.9,30.64,3.2063,29.355,-4.4675,54.049,14.54,56.817,2.3565,-20.056,-12.085
-23.992,-40.473,-4.7577,-15.335,-66.527,-54.9,30.64,3.2063,29.355,-4.4675,54.049,14.54,56.817,2.3565,-20.056,-12.085
-24.158,-40.513,-4.8232,-15.319,-66.79,-54.972,30.935,3.4853,29.231,-4.5349,54.162,14.486,56.738,2.2504,-20.119,-12.156
-24.158,-40.513,-4.8232,-15.319,-66.79,-54.972,30.935,3.4853,29.231,-4.5349,54.162,14.486,56.738,2.2504,-20.119,-12.156
-24.158,-40.513,-4.8232,-15.319,-66.79,-54.972,30.935,3.4853,29.231,-4.5349,54.162,14.486,56.738,2.2504,-20.119,-12.156
-24.49,-40.59,-4.9551,-15.287,-67.312,-55.112,31.523,4.0446,28.985,-4.6673,54.388,14.382,56.58,2.0392,-20.243,-12.296
-24.49,-40.59,-4.9551,-15.287,-67.312,-55.112,31.523,4.0446,28.985,-4.6673,54.388,14.382,56.58,2.0392,-20.243,-12.296
-24.655,-40.627,-5.0214,-15.272,-67.571,-55.181,31.815,4.3248,28.862,-4.7324,54.502,14.331,56.501,1.9342,-20.303,-12.364
-24.655,-40.627,-5.0214,-15.272,-67.571,-55.181,31.815,4.3248,28.862,-4.7324,54.502,14.331,56.501,1.9342,-20.303,-12.364
-24.819,-40.663,-5.088,-15.255,-67.828,-55.249,32.107,4.6054,28.739,-4.7967,54.616,14.282,56.422,1.8295,-20.363,-12.431
-24.819,-40.663,-5.088,-15.255,-67.828,-55.249,32.107,4.6054,28.739,-4.7967,54.616,14.282,56.422,1.8295,-20.363,-12.431
-24.983,-40.697,-5.1547,-15.239,-68.083,-55.316,32.397,4.8863,28.617,-4.8603,54.73,14.233,56.344,1.7252,-20.421,-12.497
-24.983,-40.697,-5.1547,-15.239,-68.083,-55.316,32.397,4.8863,28.617,-4.8603,54.73,14.233,56.344,1.7252,-20.421,-12.497
-25.147,-40.731,-5.2216,-15.223,-68.337,-55.381,32.687,5.1675,28.495,-4.9231,54.844,14.185,56.265,1.6213,-20.478,-12.562
-25.147,-40.731,-5.2216,-15.223,-68.337,-55.381,32.687,5.1675,28.495,-4.9231,54.844,14.185,56.265,1.6213,-20.478,-12.562
-25.31,-40.764,-5.2887,-15.206,-68.589,-55.446,32.976,5.4491,28.373,-4.9852,54.958,14.138,56.186,1.5178,-20.535,-12.626
-25.31,-40.764,-5.2887,-15.206,-68.589,-55.446,32.976,5.4491,28.373,-4.9852,54.958,14.138,56.186,1.5178,-20.535,-12.626
-25.473,-40.795,-5.356,-15.19,-68.839,-55.51,33.264,5.731,28.251,-5.0465,55.073,14.091,56.108,1.4146,-20.59,-12.69
-25.473,-40.795,-5.356,-15.19,-68.839,-55.51,33.264,5.731,28.251,-5.0465,55.073,14.091,56.108,1.4146,-20.59,-12.69
-25.636,-40.825,-5.4235,-15.173,-69.088,-55.572,33.551,6.0133,28.129,-5.107,55.187,14.046,56.029,1.3118,-20.644,-12.752
-25.636,-40.825,-5.4235,-15.173,-69.088,-55.572,33.551,6.0133,28.129,-5.107,55.187,14.046,56.029,1.3118,-20.644,-12.752
-25.636,-40.825,-5.4235,-15.173,-69.088,-55.572,33.551,6.0133,28.129,-5.107,55.187,14.046,56.029,1.3118,-20.644,-12.752
-25.798,-40.855,-5.4911,-15.156,-69.335,-55.634,33.837,6.2959,28.008,-5.1668,55.302,14.001,55.95,1.2094,-20.697,-12.813
-25.798,-40.855,-5.4911,-15.156,-69.335,-55.634,33.837,6.2959,28.008,-5.1668,55.302,14.001,55.95,1.2094,-20.697,-12.813
-25.798,-40.855,-5.4911,-15.156,-69.335,-55.634,33.837,6.2959,28.008,-5.1668,55.302,14.001,55.95,1.2094,-20.697,-12.813
-26.121,-40.91,-5.6268,-15.122,-69.824,-55.754,34.407,6.8621,27.765,-5.2842,55.532,13.915,55.793,1.0058,-20.801,-12.933
-26.282,-40.936,-5.6949,-15.104,-70.066,-55.812,34.69,7.1457,27.645,-5.3417,55.647,13.873,55.715,0.90464,-20.851,-12.991
-26.282,-40.936,-5.6949,-15.104,-70.066,-55.812,34.69,7.1457,27.645,-5.3417,55.647,13.873,55.715,0.90464,-20.851,-12.991
-26.282,-40.936,-5.6949,-15.104,-70.066,-55.812,34.69,7.1457,27.645,-5.3417,55.647,13.873,55.715,0.90464,-20.851,-12.991
-26.443,-40.961,-5.763,-15.087,-70.307,-55.87,34.972,7.4295,27.524,-5.3985,55.762,13.832,55.636,0.80383,-20.9,-13.048
-26.443,-40.961,-5.763,-15.087,-70.307,-55.87,34.972,7.4295,27.524,-5.3985,55.762,13.832,55.636,0.80383,-20.9,-13.048
-26.443,-40.961,-5.763,-15.087,-70.307,-55.87,34.972,7.4295,27.524,-5.3985,55.762,13.832,55.636,0.80383,-20.9,-13.048
-26.603,-40.985,-5.8313,-15.069,-70.545,-55.926,35.254,7.7137,27.403,-5.4545,55.877,13.791,55.558,0.70343,-20.949,-13.105
-26.763,-41.008,-5.8997,-15.051,-70.782,-55.981,35.534,7.9982,27.283,-5.5098,55.992,13.752,55.48,0.60343,-20.996,-13.16
-26.763,-41.008,-5.8997,-15.051,-70.782,-55.981,35.534,7.9982,27.283,-5.5098,55.992,13.752,55.48,0.60343,-20.996,-13.16
-26.923,-41.03,-5.9682,-15.033,-71.017,-56.035,35.813,8.283,27.163,-5.5644,56.107,13.713,55.401,0.50384,-21.042,-13.215
-27.083,-41.051,-6.0368,-15.014,-71.251,-56.088,36.091,8.568,27.043,-5.6182,56.222,13.675,55.323,0.40466,-21.088,-13.268
-27.083,-41.051,-6.0368,-15.014,-71.251,-56.088,36.091,8.568,27.043,-5.6182,56.222,13.675,55.323,0.40466,-21.088,-13.268
-27.083,-41.051,-6.0368,-15.014,-71.251,-56.088,36.091,8.568,27.043,-5.6182,56.222,13.675,55.323,0.40466,-21.088,-13.268
-27.242,-41.071,-6.1055,-14.996,-71.482,-56.139,36.369,8.8534,26.923,-5.6712,56.337,13.638,55.245,0.30589,-21.132,-13.321
-27.242,-41.071,-6.1055,-14.996,-71.482,-56.139,36.369,8.8534,26.923,-5.6712,56.337,13.638,55.245,0.30589,-21.132,-13.321
-27.242,-41.071,-6.1055,-14.996,-71.482,-56.139,36.369,8.8534,26.923,-5.6712,56.337,13.638,55.245,0.30589,-21.132,-13.321
-27.4,-41.09,-6.1742,-14.977,-71.712,-56.19,36.645,9.139,26.803,-5.7235,56.451,13.602,55.167,0.20754,-21.176,-13.372
-27.4,-41.09,-6.1742,-14.977,-71.712,-56.19,36.645,9.139,26.803,-5.7235,56.451,13.602,55.167,0.20754,-21.176,-13.372
-27.559,-41.107,-6.243,-14.958,-71.94,-56.239,36.92,9.4249,26.684,-5.7751,56.566,13.566,55.089,0.10961,-21.219,-13.423
-27.559,-41.107,-6.243,-14.958,-71.94,-56.239,36.92,9.4249,26.684,-5.7751,56.566,13.566,55.089,0.10961,-21.219,-13.423
-27.717,-41.124,-6.3118,-14.939,-72.167,-56.288,37.194,9.7111,26.564,-5.826,56.681,13.531,55.011,0.01209,-21.26,-13.473
-27.875,-41.14,-6.3806,-14.92,-72.391,-56.335,37.467,9.9975,26.445,-5.8761,56.795,13.497,54.933,-0.085003,-21.301,-13.522
-27.875,-41.14,-6.3806,-14.92,-72.391,-56.335,37.467,9.9975,26.445,-5.8761,56.795,13.497,54.933,-0.085003,-21.301,-13.522
-28.032,-41.155,-6.4495,-14.901,-72.614,-56.381,37.738,10.284,26.326,-5.9254,56.909,13.464,54.855,-0.18167,-21.341,-13.57
-28.032,-41.155,-6.4495,-14.901,-72.614,-56.381,37.738,10.284,26.326,-5.9254,56.909,13.464,54.855,-0.18167,-21.341,-13.57
-28.19,-41.168,-6.5184,-14.881,-72.835,-56.426,38.009,10.571,26.207,-5.9741,57.023,13.432,54.777,-0.27792,-21.38,-13.617
-28.19,-41.168,-6.5184,-14.881,-72.835,-56.426,38.009,10.571,26.207,-5.9741,57.023,13.432,54.777,-0.27792,-21.38,-13.617
-28.19,-41.168,-6.5184,-14.881,-72.835,-56.426,38.009,10.571,26.207,-5.9741,57.023,13.432,54.777,-0.27792,-21.38,-13.617
-28.347,-41.181,-6.5873,-14.861,-73.054,-56.469,38.279,10.858,26.088,-6.022,57.137,13.4,54.7,-0.37373,-21.419,-13.663
-28.504,-41.193,-6.6562,-14.841,-73.272,-56.512,38.547,11.146,25.969,-6.0691,57.25,13.369,54.622,-0.46912,-21.456,-13.708
-28.504,-41.193,-6.6562,-14.841,-73.272,-56.512,38.547,11.146,25.969,-6.0691,57.25,13.369,54.622,-0.46912,-21.456,-13.708
-28.66,-41.204,-6.7251,-14.82,-73.487,-56.553,38.814,11.433,25.851,-6.1156,57.363,13.339,54.544,-0.56407,-21.492,-13.752
-28.66,-41.204,-6.7251,-14.82,-73.487,-56.553,38.814,11.433,25.851,-6.1156,57.363,13.339,54.544,-0.56407,-21.492,-13.752
-28.817,-41.214,-6.7939,-14.8,-73.701,-56.593,39.08,11.721,25.732,-6.1613,57.476,13.309,54.467,-0.6586,-21.528,-13.796
-28.817,-41.214,-6.7939,-14.8,-73.701,-56.593,39.08,11.721,25.732,-6.1613,57.476,13.309,54.467,-0.6586,-21.528,-13.796
-28.973,-41.222,-6.8627,-14.779,-73.912,-56.632,39.345,12.009,25.614,-6.2063,57.589,13.281,54.389,-0.75269,-21.563,-13.838
-28.973,-41.222,-6.8627,-14.779,-73.912,-56.632,39.345,12.009,25.614,-6.2063,57.589,13.281,54.389,-0.75269,-21.563,-13.838
-28.973,-41.222,-6.8627,-14.779,-73.912,-56.632,39.345,12.009,25.614,-6.2063,57.589,13.281,54.389,-0.75269,-21.563,-13.838
-29.129,-41.23,-6.9315,-14.758,-74.122,-56.669,39.609,12.297,25.496,-6.2506,57.701,13.252,54.312,-0.84634,-21.597,-13.88
-29.284,-41.237,-7.0002,-14.737,-74.33,-56.706,39.871,12.586,25.377,-6.2942,57.813,13.225,54.235,-0.93955,-21.63,-13.921
-29.44,-41.243,-7.0688,-14.715,-74.537,-56.741,40.133,12.875,25.259,-6.337,57.924,13.198,54.157,-1.0323,-21.662,-13.961
-29.44,-41.243,-7.0688,-14.715,-74.537,-56.741,40.133,12.875,25.259,-6.337,57.924,13.198,54.157,-1.0323,-21.662,-13.961
-29.44,-41.243,-7.0688,-14.715,-74.537,-56.741,40.133,12.875,25.259,-6.337,57.924,13.198,54.157,-1.0323,-21.662,-13.961
-29.595,-41.248,-7.1373,-14.694,-74.741,-56.775,40.393,13.163,25.141,-6.3792,58.036,13.172,54.08,-1.1247,-21.694,-14
-29.595,-41.248,-7.1373,-14.694,-74.741,-56.775,40.393,13.163,25.141,-6.3792,58.036,13.172,54.08,-1.1247,-21.694,-14
-29.75,-41.252,-7.2058,-14.672,-74.944,-56.807,40.651,13.452,25.023,-6.4206,58.146,13.147,54.003,-1.2166,-21.724,-14.038
-29.905,-41.255,-7.2741,-14.649,-75.144,-56.839,40.909,13.742,24.906,-6.4614,58.257,13.122,53.926,-1.308,-21.754,-14.075
-29.905,-41.255,-7.2741,-14.649,-75.144,-56.839,40.909,13.742,24.906,-6.4614,58.257,13.122,53.926,-1.308,-21.754,-14.075
-29.905,-41.255,-7.2741,-14.649,-75.144,-56.839,40.909,13.742,24.906,-6.4614,58.257,13.122,53.926,-1.308,-21.754,-14.075
-30.06,-41.258,-7.3423,-14.627,-75.343,-56.869,41.165,14.031,24.788,-6.5014,58.367,13.098,53.849,-1.399,-21.783,-14.112
-30.06,-41.258,-7.3423,-14.627,-75.343,-56.869,41.165,14.031,24.788,-6.5014,58.367,13.098,53.849,-1.399,-21.783,-14.112
-30.06,-41.258,-7.3423,-14.627,-75.343,-56.869,41.165,14.031,24.788,-6.5014,58.367,13.098,53.849,-1.399,-21.783,-14.112
-30.214,-41.259,-7.4104,-14.604,-75.54,-56.898,41.42,14.321,24.67,-6.5407,58.476,13.075,53.772,-1.4896,-21.812,-14.148
-30.214,-41.259,-7.4104,-14.604,-75.54,-56.898,41.42,14.321,24.67,-6.5407,58.476,13.075,53.772,-1.4896,-21.812,-14.148
-30.214,-41.259,-7.4104,-14.604,-75.54,-56.898,41.42,14.321,24.67,-6.5407,58.476,13.075,53.772,-1.4896,-21.812,-14.148
-30.214,-41.259,-7.4104,-14.604,-75.54,-56.898,41.42,14.321,24.67,-6.5407,58.476,13.075,53.772,-1.4896,-21.812,-14.148
-30.523,-41.258,-7.5462,-14.558,-75.927,-56.952,41.927,14.9,24.435,-6.6173,58.693,13.03,53.619,-1.6694,-21.866,-14.217
-30.523,-41.258,-7.5462,-14.558,-75.927,-56.952,41.927,14.9,24.435,-6.6173,58.693,13.03,53.619,-1.6694,-21.866,-14.217
-30.523,-41.258,-7.5462,-14.558,-75.927,-56.952,41.927,14.9,24.435,-6.6173,58.693,13.03,53.619,-1.6694,-21.866,-14.217
-30.831,-41.255,-7.6813,-14.51,-76.307,-57.001,42.428,15.48,24.201,-6.6912,58.908,12.987,53.465,-1.8474,-21.917,-14.282
-30.831,-41.255,-7.6813,-14.51,-76.307,-57.001,42.428,15.48,24.201,-6.6912,58.908,12.987,53.465,-1.8474,-21.917,-14.282
-30.985,-41.251,-7.7486,-14.486,-76.494,-57.023,42.676,15.77,24.084,-6.7271,59.015,12.967,53.389,-1.9357,-21.942,-14.314
-30.985,-41.251,-7.7486,-14.486,-76.494,-57.023,42.676,15.77,24.084,-6.7271,59.015,12.967,53.389,-1.9357,-21.942,-14.314
-31.139,-41.247,-7.8157,-14.462,-76.68,-57.045,42.924,16.061,23.966,-6.7623,59.121,12.947,53.312,-2.0236,-21.966,-14.345
-31.139,-41.247,-7.8157,-14.462,-76.68,-57.045,42.924,16.061,23.966,-6.7623,59.121,12.947,53.312,-2.0236,-21.966,-14.345
-31.292,-41.242,-7.8826,-14.437,-76.863,-57.064,43.17,16.351,23.849,-6.7968,59.226,12.928,53.236,-2.1111,-21.989,-14.375
-31.292,-41.242,-7.8826,-14.437,-76.863,-57.064,43.17,16.351,23.849,-6.7968,59.226,12.928,53.236,-2.1111,-21.989,-14.375
-31.292,-41.242,-7.8826,-14.437,-76.863,-57.064,43.17,16.351,23.849,-6.7968,59.226,12.928,53.236,-2.1111,-21.989,-14.375
-31.446,-41.236,-7.9493,-14.412,-77.044,-57.083,43.414,16.642,23.732,-6.8307,59.331,12.91,53.16,-2.198,-22.012,-14.404
-31.599,-41.229,-8.0158,-14.387,-77.223,-57.1,43.657,16.933,23.615,-6.8639,59.435,12.892,53.083,-2.2846,-22.033,-14.433
-31.599,-41.229,-8.0158,-14.387,-77.223,-57.1,43.657,16.933,23.615,-6.8639,59.435,12.892,53.083,-2.2846,-22.033,-14.433
-31.753,-41.221,-8.082,-14.361,-77.401,-57.116,43.899,17.223,23.498,-6.8964,59.539,12.874,53.007,-2.3707,-22.055,-14.46
-31.753,-41.221,-8.082,-14.361,-77.401,-57.116,43.899,17.223,23.498,-6.8964,59.539,12.874,53.007,-2.3707,-22.055,-14.46
-31.906,-41.213,-8.1479,-14.335,-77.576,-57.131,44.14,17.514,23.381,-6.9283,59.642,12.857,52.931,-2.4563,-22.075,-14.487
-31.906,-41.213,-8.1479,-14.335,-77.576,-57.131,44.14,17.514,23.381,-6.9283,59.642,12.857,52.931,-2.4563,-22.075,-14.487
-31.906,-41.213,-8.1479,-14.335,-77.576,-57.131,44.14,17.514,23.381,-6.9283,59.642,12.857,52.931,-2.4563,-22.075,-14.487
-32.059,-41.203,-8.2136,-14.309,-77.749,-57.144,44.379,17.805,23.265,-6.9596,59.744,12.841,52.855,-2.5415,-22.095,-14.514
-32.059,-41.203,-8.2136,-14.309,-77.749,-57.144,44.379,17.805,23.265,-6.9596,59.744,12.841,52.855,-2.5415,-22.095,-14.514
-32.059,-41.203,-8.2136,-14.309,-77.749,-57.144,44.379,17.805,23.265,-6.9596,59.744,12.841,52.855,-2.5415,-22.095,-14.514
-32.213,-41.193,-8.279,-14.282,-77.921,-57.156,44.616,18.096,23.148,-6.9901,59.845,12.825,52.779,-2.6262,-22.114,-14.539
-32.213,-41.193,-8.279,-14.282,-77.921,-57.156,44.616,18.096,23.148,-6.9901,59.845,12.825,52.779,-2.6262,-22.114,-14.539
-32.519,-41.17,-8.409,-14.228,-78.257,-57.176,45.087,18.678,22.914,-7.0494,60.045,12.795,52.627,-2.7943,-22.15,-14.588
-32.519,-41.17,-8.409,-14.228,-78.257,-57.176,45.087,18.678,22.914,-7.0494,60.045,12.795,52.627,-2.7943,-22.15,-14.588
-32.519,-41.17,-8.409,-14.228,-78.257,-57.176,45.087,18.678,22.914,-7.0494,60.045,12.795,52.627,-2.7943,-22.15,-14.588
-32.672,-41.157,-8.4735,-14.201,-78.423,-57.184,45.321,18.969,22.797,-7.078,60.144,12.781,52.552,-2.8777,-22.168,-14.611
-32.825,-41.144,-8.5377,-14.173,-78.586,-57.19,45.553,19.261,22.681,-7.106,60.242,12.767,52.476,-2.9606,-22.184,-14.634
-32.825,-41.144,-8.5377,-14.173,-78.586,-57.19,45.553,19.261,22.681,-7.106,60.242,12.767,52.476,-2.9606,-22.184,-14.634
-32.978,-41.129,-8.6016,-14.145,-78.747,-57.195,45.783,19.552,22.564,-7.1334,60.339,12.754,52.4,-3.0431,-22.2,-14.656
-32.978,-41.129,-8.6016,-14.145,-78.747,-57.195,45.783,19.552,22.564,-7.1334,60.339,12.754,52.4,-3.0431,-22.2,-14.656
-33.131,-41.114,-8.6651,-14.116,-78.906,-57.199,46.012,19.843,22.447,-7.1602,60.436,12.741,52.325,-3.1251,-22.216,-14.677
-33.131,-41.114,-8.6651,-14.116,-78.906,-57.199,46.012,19.843,22.447,-7.1602,60.436,12.741,52.325,-3.1251,-22.216,-14.677
-33.284,-41.098,-8.7283,-14.087,-79.064,-57.202,46.24,20.134,22.331,-7.1864,60.531,12.729,52.25,-3.2067,-22.231,-14.697
-33.284,-41.098,-8.7283,-14.087,-79.064,-57.202,46.24,20.134,22.331,-7.1864,60.531,12.729,52.25,-3.2067,-22.231,-14.697
-33.437,-41.081,-8.7911,-14.058,-79.219,-57.203,46.466,20.425,22.214,-7.2119,60.626,12.717,52.174,-3.2878,-22.245,-14.717
-33.437,-41.081,-8.7911,-14.058,-79.219,-57.203,46.466,20.425,22.214,-7.2119,60.626,12.717,52.174,-3.2878,-22.245,-14.717
-33.437,-41.081,-8.7911,-14.058,-79.219,-57.203,46.466,20.425,22.214,-7.2119,60.626,12.717,52.174,-3.2878,-22.245,-14.717
-33.59,-41.063,-8.8535,-14.029,-79.372,-57.202,46.691,20.717,22.098,-7.2368,60.719,12.705,52.099,-3.3685,-22.259,-14.736
-33.59,-41.063,-8.8535,-14.029,-79.372,-57.202,46.691,20.717,22.098,-7.2368,60.719,12.705,52.099,-3.3685,-22.259,-14.736
-33.59,-41.063,-8.8535,-14.029,-79.372,-57.202,46.691,20.717,22.098,-7.2368,60.719,12.705,52.099,-3.3685,-22.259,-14.736
-33.897,-41.026,-8.9771,-13.968,-79.672,-57.197,47.136,21.299,21.865,-7.2849,60.904,12.684,51.948,-3.5285,-22.285,-14.772
-33.897,-41.026,-8.9771,-13.968,-79.672,-57.197,47.136,21.299,21.865,-7.2849,60.904,12.684,51.948,-3.5285,-22.285,-14.772
-34.05,-41.006,-9.0383,-13.938,-79.819,-57.193,47.356,21.59,21.748,-7.308,60.994,12.673,51.873,-3.6078,-22.297,-14.789
-34.05,-41.006,-9.0383,-13.938,-79.819,-57.193,47.356,21.59,21.748,-7.308,60.994,12.673,51.873,-3.6078,-22.297,-14.789
-34.203,-40.985,-9.099,-13.907,-79.963,-57.187,47.575,21.881,21.631,-7.3305,61.084,12.664,51.798,-3.6867,-22.308,-14.806
-34.203,-40.985,-9.099,-13.907,-79.963,-57.187,47.575,21.881,21.631,-7.3305,61.084,12.664,51.798,-3.6867,-22.308,-14.806
-34.356,-40.964,-9.1594,-13.875,-80.106,-57.179,47.792,22.172,21.515,-7.3525,61.173,12.654,51.723,-3.7651,-22.319,-14.822
-34.356,-40.964,-9.1594,-13.875,-80.106,-57.179,47.792,22.172,21.515,-7.3525,61.173,12.654,51.723,-3.7651,-22.319,-14.822
-34.51,-40.941,-9.2192,-13.844,-80.247,-57.17,48.007,22.463,21.398,-7.3739,61.26,12.645,51.648,-3.8431,-22.33,-14.837
-34.51,-40.941,-9.2192,-13.844,-80.247,-57.17,48.007,22.463,21.398,-7.3739,61.26,12.645,51.648,-3.8431,-22.33,-14.837
-34.663,-40.919,-9.2786,-13.811,-80.385,-57.16,48.221,22.754,21.282,-7.3947,61.347,12.637,51.573,-3.9207,-22.34,-14.852
-34.817,-40.895,-9.3376,-13.779,-80.522,-57.149,48.434,23.045,21.165,-7.4149,61.432,12.628,51.499,-3.9978,-22.35,-14.866
-34.817,-40.895,-9.3376,-13.779,-80.522,-57.149,48.434,23.045,21.165,-7.4149,61.432,12.628,51.499,-3.9978,-22.35,-14.866
-34.817,-40.895,-9.3376,-13.779,-80.522,-57.149,48.434,23.045,21.165,-7.4149,61.432,12.628,51.499,-3.9978,-22.35,-14.866
-34.97,-40.87,-9.396,-13.746,-80.656,-57.136,48.645,23.336,21.049,-7.4346,61.517,12.621,51.424,-4.0744,-22.359,-14.879
-34.97,-40.87,-9.396,-13.746,-80.656,-57.136,48.645,23.336,21.049,-7.4346,61.517,12.621,51.424,-4.0744,-22.359,-14.879
-35.124,-40.845,-9.4539,-13.713,-80.788,-57.121,48.854,23.626,20.932,-7.4537,61.6,12.613,51.349,-4.1506,-22.368,-14.892
-35.124,-40.845,-9.4539,-13.713,-80.788,-57.121,48.854,23.626,20.932,-7.4537,61.6,12.613,51.349,-4.1506,-22.368,-14.892
-35.124,-40.845,-9.4539,-13.713,-80.788,-57.121,48.854,23.626,20.932,-7.4537,61.6,12.613,51.349,-4.1506,-22.368,-14.892
-35.278,-40.82,-9.5113,-13.679,-80.918,-57.105,49.062,23.917,20.815,-7.4722,61.682,12.606,51.274,-4.2264,-22.376,-14.904
-35.278,-40.82,-9.5113,-13.679,-80.918,-57.105,49.062,23.917,20.815,-7.4722,61.682,12.606,51.274,-4.2264,-22.376,-14.904
-35.278,-40.82,-9.5113,-13.679,-80.918,-57.105,49.062,23.917,20.815,-7.4722,61.682,12.606,51.274,-4.2264,-22.376,-14.904
-35.586,-40.766,-9.6246,-13.611,-81.172,-57.069,49.473,24.498,20.582,-7.5077,61.842,12.592,51.125,-4.3766,-22.391,-14.926
-35.586,-40.766,-9.6246,-13.611,-81.172,-57.069,49.473,24.498,20.582,-7.5077,61.842,12.592,51.125,-4.3766,-22.391,-14.926
-35.586,-40.766,-9.6246,-13.611,-81.172,-57.069,49.473,24.498,20.582,-7.5077,61.842,12.592,51.125,-4.3766,-22.391,-14.926
-35.74,-40.738,-9.6803,-13.576,-81.296,-57.048,49.676,24.788,20.465,-7.5246,61.921,12.586,51.051,-4.451,-22.398,-14.937
-35.74,-40.738,-9.6803,-13.576,-81.296,-57.048,49.676,24.788,20.465,-7.5246,61.921,12.586,51.051,-4.451,-22.398,-14.937
-35.894,-40.709,-9.7356,-13.54,-81.417,-57.027,49.877,25.078,20.349,-7.541,61.998,12.58,50.976,-4.525,-22.405,-14.947
-35.894,-40.709,-9.7356,-13.54,-81.417,-57.027,49.877,25.078,20.349,-7.541,61.998,12.58,50.976,-4.525,-22.405,-14.947
-35.894,-40.709,-9.7356,-13.54,-81.417,-57.027,49.877,25.078,20.349,-7.541,61.998,12.58,50.976,-4.525,-22.405,-14.947
-36.203,-40.65,-9.8443,-13.468,-81.654,-56.979,50.275,25.657,20.115,-7.5723,62.149,12.569,50.828,-4.6717,-22.417,-14.965
-36.203,-40.65,-9.8443,-13.468,-81.654,-56.979,50.275,25.657,20.115,-7.5723,62.149,12.569,50.828,-4.6717,-22.417,-14.965
-36.358,-40.619,-9.8978,-13.432,-81.769,-56.953,50.472,25.947,19.999,-7.5871,62.222,12.564,50.753,-4.7444,-22.422,-14.973
-36.358,-40.619,-9.8978,-13.432,-81.769,-56.953,50.472,25.947,19.999,-7.5871,62.222,12.564,50.753,-4.7444,-22.422,-14.973
-36.512,-40.588,-9.9506,-13.395,-81.882,-56.925,50.667,26.236,19.882,-7.6014,62.294,12.559,50.679,-4.8167,-22.427,-14.981
-36.512,-40.588,-9.9506,-13.395,-81.882,-56.925,50.667,26.236,19.882,-7.6014,62.294,12.559,50.679,-4.8167,-22.427,-14.981
-36.512,-40.588,-9.9506,-13.395,-81.882,-56.925,50.667,26.236,19.882,-7.6014,62.294,12.559,50.679,-4.8167,-22.427,-14.981
-36.667,-40.556,-10.003,-13.357,-81.993,-56.896,50.86,26.526,19.765,-7.6153,62.365,12.555,50.605,-4.8885,-22.432,-14.988
-36.667,-40.556,-10.003,-13.357,-81.993,-56.896,50.86,26.526,19.765,-7.6153,62.365,12.555,50.605,-4.8885,-22.432,-14.988
-36.667,-40.556,-10.003,-13.357,-81.993,-56.896,50.86,26.526,19.765,-7.6153,62.365,12.555,50.605,-4.8885,-22.432,-14.988
-36.978,-40.491,-10.105,-13.281,-82.208,-56.833,51.242,27.103,19.531,-7.6414,62.503,12.546,50.456,-5.0309,-22.44,-15.001
-37.133,-40.457,-10.156,-13.242,-82.312,-56.8,51.43,27.392,19.414,-7.6538,62.57,12.543,50.382,-5.1015,-22.444,-15.007
-37.133,-40.457,-10.156,-13.242,-82.312,-56.8,51.43,27.392,19.414,-7.6538,62.57,12.543,50.382,-5.1015,-22.444,-15.007
-37.133,-40.457,-10.156,-13.242,-82.312,-56.8,51.43,27.392,19.414,-7.6538,62.57,12.543,50.382,-5.1015,-22.444,-15.007
-37.289,-40.422,-10.205,-13.203,-82.414,-56.765,51.617,27.68,19.297,-7.6657,62.635,12.539,50.308,-5.1716,-22.447,-15.012
-37.289,-40.422,-10.205,-13.203,-82.414,-56.765,51.617,27.68,19.297,-7.6657,62.635,12.539,50.308,-5.1716,-22.447,-15.012
-37.445,-40.387,-10.254,-13.164,-82.514,-56.728,51.801,27.968,19.18,-7.6771,62.699,12.535,50.234,-5.2413,-22.45,-15.017
-37.445,-40.387,-10.254,-13.164,-82.514,-56.728,51.801,27.968,19.18,-7.6771,62.699,12.535,50.234,-5.2413,-22.45,-15.017
-37.445,-40.387,-10.254,-13.164,-82.514,-56.728,51.801,27.968,19.18,-7.6771,62.699,12.535,50.234,-5.2413,-22.45,-15.017
-37.601,-40.352,-10.302,-13.123,-82.611,-56.69,51.985,28.256,19.063,-7.688,62.761,12.532,50.16,-5.3106,-22.453,-15.021
-37.758,-40.315,-10.35,-13.083,-82.707,-56.651,52.166,28.544,18.946,-7.6985,62.822,12.529,50.086,-5.3794,-22.455,-15.025
-37.758,-40.315,-10.35,-13.083,-82.707,-56.651,52.166,28.544,18.946,-7.6985,62.822,12.529,50.086,-5.3794,-22.455,-15.025
-37.758,-40.315,-10.35,-13.083,-82.707,-56.651,52.166,28.544,18.946,-7.6985,62.822,12.529,50.086,-5.3794,-22.455,-15.025
-37.914,-40.279,-10.397,-13.042,-82.8,-56.61,52.346,28.831,18.829,-7.7085,62.882,12.526,50.012,-5.4478,-22.458,-15.028
-37.914,-40.279,-10.397,-13.042,-82.8,-56.61,52.346,28.831,18.829,-7.7085,62.882,12.526,50.012,-5.4478,-22.458,-15.028
-38.071,-40.241,-10.443,-13,-82.891,-56.567,52.524,29.118,18.712,-7.7181,62.94,12.523,49.938,-5.5158,-22.46,-15.031
-38.228,-40.203,-10.488,-12.958,-82.98,-56.523,52.701,29.405,18.595,-7.7273,62.996,12.521,49.864,-5.5834,-22.461,-15.034
-38.228,-40.203,-10.488,-12.958,-82.98,-56.523,52.701,29.405,18.595,-7.7273,62.996,12.521,49.864,-5.5834,-22.461,-15.034
-38.228,-40.203,-10.488,-12.958,-82.98,-56.523,52.701,29.405,18.595,-7.7273,62.996,12.521,49.864,-5.5834,-22.461,-15.034
-38.385,-40.165,-10.533,-12.916,-83.066,-56.477,52.876,29.691,18.477,-7.736,63.051,12.518,49.791,-5.6506,-22.463,-15.036
-38.543,-40.125,-10.577,-12.873,-83.151,-56.43,53.049,29.978,18.36,-7.7443,63.105,12.516,49.717,-5.7174,-22.464,-15.037
-38.7,-40.086,-10.62,-12.829,-83.233,-56.382,53.22,30.264,18.242,-7.7521,63.157,12.514,49.643,-5.7837,-22.465,-15.038
-38.7,-40.086,-10.62,-12.829,-83.233,-56.382,53.22,30.264,18.242,-7.7521,63.157,12.514,49.643,-5.7837,-22.465,-15.038
-38.7,-40.086,-10.62,-12.829,-83.233,-56.382,53.22,30.264,18.242,-7.7521,63.157,12.514,49.643,-5.7837,-22.465,-15.038
-38.858,-40.045,-10.662,-12.786,-83.313,-56.332,53.39,30.549,18.125,-7.7596,63.207,12.512,49.569,-5.8497,-22.466,-15.039
-38.858,-40.045,-10.662,-12.786,-83.313,-56.332,53.39,30.549,18.125,-7.7596,63.207,12.512,49.569,-5.8497,-22.466,-15.039
-39.016,-40.005,-10.703,-12.741,-83.39,-56.28,53.557,30.834,18.008,-7.7666,63.256,12.51,49.495,-5.9152,-22.466,-15.04
-39.016,-40.005,-10.703,-12.741,-83.39,-56.28,53.557,30.834,18.008,-7.7666,63.256,12.51,49.495,-5.9152,-22.466,-15.04
-39.016,-40.005,-10.703,-12.741,-83.39,-56.28,53.557,30.834,18.008,-7.7666,63.256,12.51,49.495,-5.9152,-22.466,-15.04
-39.175,-39.963,-10.744,-12.696,-83.466,-56.227,53.723,31.119,17.89,-7.7732,63.303,12.508,49.421,-5.9803,-22.466,-15.04
-39.175,-39.963,-10.744,-12.696,-83.466,-56.227,53.723,31.119,17.89,-7.7732,63.303,12.508,49.421,-5.9803,-22.466,-15.04
-39.175,-39.963,-10.744,-12.696,-83.466,-56.227,53.723,31.119,17.89,-7.7732,63.303,12.508,49.421,-5.9803,-22.466,-15.04
-39.493,-39.879,-10.823,-12.605,-83.61,-56.116,54.05,31.688,17.655,-7.7853,63.392,12.504,49.274,-6.1093,-22.467,-15.039
-39.493,-39.879,-10.823,-12.605,-83.61,-56.116,54.05,31.688,17.655,-7.7853,63.392,12.504,49.274,-6.1093,-22.467,-15.039
-39.652,-39.836,-10.861,-12.558,-83.679,-56.058,54.211,31.971,17.537,-7.7908,63.434,12.502,49.2,-6.1733,-22.466,-15.038
-39.652,-39.836,-10.861,-12.558,-83.679,-56.058,54.211,31.971,17.537,-7.7908,63.434,12.502,49.2,-6.1733,-22.466,-15.038
-39.811,-39.793,-10.898,-12.511,-83.745,-55.999,54.37,32.255,17.419,-7.7958,63.475,12.501,49.126,-6.2368,-22.466,-15.036
-39.811,-39.793,-10.898,-12.511,-83.745,-55.999,54.37,32.255,17.419,-7.7958,63.475,12.501,49.126,-6.2368,-22.466,-15.036
-39.811,-39.793,-10.898,-12.511,-83.745,-55.999,54.37,32.255,17.419,-7.7958,63.475,12.501,49.126,-6.2368,-22.466,-15.036
-39.811,-39.793,-10.898,-12.511,-83.745,-55.999,54.37,32.255,17.419,-7.7958,63.475,12.501,49.126,-6.2368,-22.466,-15.036
-40.131,-39.704,-10.97,-12.416,-83.871,-55.876,54.683,32.82,17.184,-7.8049,63.551,12.498,48.978,-6.3626,-22.465,-15.032
-40.131,-39.704,-10.97,-12.416,-83.871,-55.876,54.683,32.82,17.184,-7.8049,63.551,12.498,48.978,-6.3626,-22.465,-15.032
-40.292,-39.659,-11.004,-12.367,-83.931,-55.812,54.837,33.102,17.066,-7.8089,63.586,12.496,48.905,-6.4249,-22.464,-15.03
-40.292,-39.659,-11.004,-12.367,-83.931,-55.812,54.837,33.102,17.066,-7.8089,63.586,12.496,48.905,-6.4249,-22.464,-15.03
-40.453,-39.614,-11.038,-12.318,-83.988,-55.746,54.989,33.384,16.948,-7.8126,63.62,12.494,48.831,-6.4869,-22.463,-15.027
-40.453,-39.614,-11.038,-12.318,-83.988,-55.746,54.989,33.384,16.948,-7.8126,63.62,12.494,48.831,-6.4869,-22.463,-15.027
-40.614,-39.568,-11.071,-12.269,-84.043,-55.679,55.139,33.665,16.83,-7.8159,63.651,12.493,48.757,-6.5484,-22.462,-15.024
-40.614,-39.568,-11.071,-12.269,-84.043,-55.679,55.139,33.665,16.83,-7.8159,63.651,12.493,48.757,-6.5484,-22.462,-15.024
-40.775,-39.522,-11.102,-12.219,-84.096,-55.61,55.287,33.946,16.711,-7.8188,63.681,12.491,48.683,-6.6096,-22.461,-15.021
-40.775,-39.522,-11.102,-12.219,-84.096,-55.61,55.287,33.946,16.711,-7.8188,63.681,12.491,48.683,-6.6096,-22.461,-15.021
-40.775,-39.522,-11.102,-12.219,-84.096,-55.61,55.287,33.946,16.711,-7.8188,63.681,12.491,48.683,-6.6096,-22.461,-15.021
-40.937,-39.475,-11.133,-12.168,-84.146,-55.54,55.434,34.226,16.593,-7.8215,63.71,12.49,48.609,-6.6703,-22.46,-15.017
-40.937,-39.475,-11.133,-12.168,-84.146,-55.54,55.434,34.226,16.593,-7.8215,63.71,12.49,48.609,-6.6703,-22.46,-15.017
-40.937,-39.475,-11.133,-12.168,-84.146,-55.54,55.434,34.226,16.593,-7.8215,63.71,12.49,48.609,-6.6703,-22.46,-15.017
-41.261,-39.38,-11.192,-12.065,-84.24,-55.395,55.721,34.786,16.357,-7.8258,63.761,12.487,48.461,-6.7907,-22.457,-15.009
-41.261,-39.38,-11.192,-12.065,-84.24,-55.395,55.721,34.786,16.357,-7.8258,63.761,12.487,48.461,-6.7907,-22.457,-15.009
-41.261,-39.38,-11.192,-12.065,-84.24,-55.395,55.721,34.786,16.357,-7.8258,63.761,12.487,48.461,-6.7907,-22.457,-15.009
-41.423,-39.331,-11.22,-12.013,-84.284,-55.32,55.862,35.064,16.238,-7.8275,63.783,12.485,48.388,-6.8504,-22.456,-15.004
-41.423,-39.331,-11.22,-12.013,-84.284,-55.32,55.862,35.064,16.238,-7.8275,63.783,12.485,48.388,-6.8504,-22.456,-15.004
-41.586,-39.283,-11.247,-11.96,-84.325,-55.244,56.002,35.343,16.12,-7.8289,63.804,12.483,48.314,-6.9096,-22.454,-14.999
-41.586,-39.283,-11.247,-11.96,-84.325,-55.244,56.002,35.343,16.12,-7.8289,63.804,12.483,48.314,-6.9096,-22.454,-14.999
-41.586,-39.283,-11.247,-11.96,-84.325,-55.244,56.002,35.343,16.12,-7.8289,63.804,12.483,48.314,-6.9096,-22.454,-14.999
-41.913,-39.184,-11.298,-11.852,-84.401,-55.087,56.275,35.898,15.883,-7.8308,63.84,12.48,48.166,-7.027,-22.451,-14.989
-41.913,-39.184,-11.298,-11.852,-84.401,-55.087,56.275,35.898,15.883,-7.8308,63.84,12.48,48.166,-7.027,-22.451,-14.989
-42.077,-39.134,-11.322,-11.798,-84.435,-55.006,56.409,36.175,15.765,-7.8313,63.856,12.478,48.092,-7.0851,-22.45,-14.983
-42.077,-39.134,-11.322,-11.798,-84.435,-55.006,56.409,36.175,15.765,-7.8313,63.856,12.478,48.092,-7.0851,-22.45,-14.983
-42.241,-39.084,-11.345,-11.742,-84.467,-54.923,56.541,36.451,15.646,-7.8316,63.869,12.476,48.018,-7.1429,-22.448,-14.978
-42.241,-39.084,-11.345,-11.742,-84.467,-54.923,56.541,36.451,15.646,-7.8316,63.869,12.476,48.018,-7.1429,-22.448,-14.978
-42.241,-39.084,-11.345,-11.742,-84.467,-54.923,56.541,36.451,15.646,-7.8316,63.869,12.476,48.018,-7.1429,-22.448,-14.978
-42.406,-39.033,-11.367,-11.687,-84.497,-54.839,56.671,36.727,15.527,-7.8316,63.88,12.473,47.944,-7.2002,-22.446,-14.971
-42.406,-39.033,-11.367,-11.687,-84.497,-54.839,56.671,36.727,15.527,-7.8316,63.88,12.473,47.944,-7.2002,-22.446,-14.971
-42.736,-38.93,-11.407,-11.574,-84.549,-54.665,56.926,37.277,15.29,-7.8308,63.897,12.469,47.795,-7.3139,-22.443,-14.959
-42.736,-38.93,-11.407,-11.574,-84.549,-54.665,56.926,37.277,15.29,-7.8308,63.897,12.469,47.795,-7.3139,-22.443,-14.959
-42.736,-38.93,-11.407,-11.574,-84.549,-54.665,56.926,37.277,15.29,-7.8308,63.897,12.469,47.795,-7.3139,-22.443,-14.959
-42.901,-38.878,-11.426,-11.516,-84.572,-54.576,57.05,37.551,15.171,-7.8301,63.902,12.466,47.721,-7.3702,-22.441,-14.952
-42.901,-38.878,-11.426,-11.516,-84.572,-54.576,57.05,37.551,15.171,-7.8301,63.902,12.466,47.721,-7.3702,-22.441,-14.952
-42.901,-38.878,-11.426,-11.516,-84.572,-54.576,57.05,37.551,15.171,-7.8301,63.902,12.466,47.721,-7.3702,-22.441,-14.952
-43.067,-38.825,-11.443,-11.458,-84.592,-54.486,57.173,37.824,15.052,-7.8291,63.906,12.464,47.647,-7.4262,-22.44,-14.945
-43.067,-38.825,-11.443,-11.458,-84.592,-54.486,57.173,37.824,15.052,-7.8291,63.906,12.464,47.647,-7.4262,-22.44,-14.945
-43.067,-38.825,-11.443,-11.458,-84.592,-54.486,57.173,37.824,15.052,-7.8291,63.906,12.464,47.647,-7.4262,-22.44,-14.945
-43.4,-38.719,-11.475,-11.34,-84.626,-54.3,57.413,38.369,14.814,-7.8264,63.907,12.458,47.498,-7.537,-22.436,-14.931
-43.4,-38.719,-11.475,-11.34,-84.626,-54.3,57.413,38.369,14.814,-7.8264,63.907,12.458,47.498,-7.537,-22.436,-14.931
-43.567,-38.666,-11.489,-11.28,-84.639,-54.205,57.53,38.641,14.695,-7.8248,63.904,12.455,47.424,-7.5919,-22.435,-14.923
-43.567,-38.666,-11.489,-11.28,-84.639,-54.205,57.53,38.641,14.695,-7.8248,63.904,12.455,47.424,-7.5919,-22.435,-14.923
-43.734,-38.612,-11.502,-11.22,-84.65,-54.108,57.646,38.912,14.576,-7.8229,63.9,12.451,47.35,-7.6464,-22.433,-14.916
-43.734,-38.612,-11.502,-11.22,-84.65,-54.108,57.646,38.912,14.576,-7.8229,63.9,12.451,47.35,-7.6464,-22.433,-14.916
-43.734,-38.612,-11.502,-11.22,-84.65,-54.108,57.646,38.912,14.576,-7.8229,63.9,12.451,47.35,-7.6464,-22.433,-14.916
-43.902,-38.557,-11.514,-11.158,-84.659,-54.009,57.759,39.182,14.457,-7.8208,63.893,12.448,47.275,-7.7006,-22.432,-14.908
-43.902,-38.557,-11.514,-11.158,-84.659,-54.009,57.759,39.182,14.457,-7.8208,63.893,12.448,47.275,-7.7006,-22.432,-14.908
-44.07,-38.503,-11.525,-11.097,-84.665,-53.909,57.871,39.451,14.338,-7.8185,63.884,12.444,47.201,-7.7544,-22.431,-14.9
-44.239,-38.447,-11.535,-11.034,-84.669,-53.808,57.981,39.72,14.218,-7.8161,63.873,12.44,47.126,-7.8079,-22.429,-14.892
-44.239,-38.447,-11.535,-11.034,-84.669,-53.808,57.981,39.72,14.218,-7.8161,63.873,12.44,47.126,-7.8079,-22.429,-14.892
-44.407,-38.392,-11.543,-10.971,-84.671,-53.704,58.089,39.989,14.099,-7.8135,63.86,12.436,47.052,-7.861,-22.428,-14.884
-44.407,-38.392,-11.543,-10.971,-84.671,-53.704,58.089,39.989,14.099,-7.8135,63.86,12.436,47.052,-7.861,-22.428,-14.884
-44.576,-38.336,-11.551,-10.908,-84.67,-53.6,58.195,40.256,13.98,-7.8107,63.845,12.432,46.977,-7.9138,-22.427,-14.875
-44.576,-38.336,-11.551,-10.908,-84.67,-53.6,58.195,40.256,13.98,-7.8107,63.845,12.432,46.977,-7.9138,-22.427,-14.875
-44.746,-38.28,-11.557,-10.844,-84.667,-53.493,58.299,40.523,13.861,-7.8077,63.828,12.427,46.902,-7.9663,-22.426,-14.867
-44.746,-38.28,-11.557,-10.844,-84.667,-53.493,58.299,40.523,13.861,-7.8077,63.828,12.427,46.902,-7.9663,-22.426,-14.867
-44.746,-38.28,-11.557,-10.844,-84.667,-53.493,58.299,40.523,13.861,-7.8077,63.828,12.427,46.902,-7.9663,-22.426,-14.867
-44.916,-38.223,-11.562,-10.779,-84.662,-53.385,58.401,40.789,13.741,-7.8046,63.808,12.422,46.827,-8.0184,-22.425,-14.858
-44.916,-38.223,-11.562,-10.779,-84.662,-53.385,58.401,40.789,13.741,-7.8046,63.808,12.422,46.827,-8.0184,-22.425,-14.858
-45.256,-38.109,-11.568,-10.647,-84.643,-53.164,58.601,41.32,13.502,-7.7979,63.763,12.412,46.678,-8.1217,-22.423,-14.841
-45.256,-38.109,-11.568,-10.647,-84.643,-53.164,58.601,41.32,13.502,-7.7979,63.763,12.412,46.678,-8.1217,-22.423,-14.841
-45.256,-38.109,-11.568,-10.647,-84.643,-53.164,58.601,41.32,13.502,-7.7979,63.763,12.412,46.678,-8.1217,-22.423,-14.841
-45.427,-38.052,-11.569,-10.58,-84.631,-53.052,58.697,41.584,13.383,-7.7943,63.737,12.406,46.603,-8.1728,-22.423,-14.832
-45.427,-38.052,-11.569,-10.58,-84.631,-53.052,58.697,41.584,13.383,-7.7943,63.737,12.406,46.603,-8.1728,-22.423,-14.832
-45.599,-37.994,-11.569,-10.513,-84.616,-52.937,58.792,41.847,13.263,-7.7906,63.709,12.4,46.528,-8.2236,-22.422,-14.823
-45.599,-37.994,-11.569,-10.513,-84.616,-52.937,58.792,41.847,13.263,-7.7906,63.709,12.4,46.528,-8.2236,-22.422,-14.823
-45.77,-37.936,-11.568,-10.445,-84.599,-52.821,58.885,42.109,13.144,-7.7868,63.679,12.394,46.453,-8.2741,-22.422,-14.814
-45.77,-37.936,-11.568,-10.445,-84.599,-52.821,58.885,42.109,13.144,-7.7868,63.679,12.394,46.453,-8.2741,-22.422,-14.814
-45.942,-37.877,-11.565,-10.376,-84.579,-52.704,58.976,42.371,13.024,-7.7829,63.646,12.388,46.377,-8.3242,-22.422,-14.804
-45.942,-37.877,-11.565,-10.376,-84.579,-52.704,58.976,42.371,13.024,-7.7829,63.646,12.388,46.377,-8.3242,-22.422,-14.804
-46.115,-37.818,-11.562,-10.306,-84.557,-52.585,59.066,42.632,12.905,-7.7789,63.612,12.381,46.302,-8.3741,-22.422,-14.795
-46.115,-37.818,-11.562,-10.306,-84.557,-52.585,59.066,42.632,12.905,-7.7789,63.612,12.381,46.302,-8.3741,-22.422,-14.795
-46.287,-37.759,-11.557,-10.236,-84.532,-52.464,59.153,42.892,12.785,-7.7747,63.575,12.374,46.227,-8.4236,-22.422,-14.786
-46.287,-37.759,-11.557,-10.236,-84.532,-52.464,59.153,42.892,12.785,-7.7747,63.575,12.374,46.227,-8.4236,-22.422,-14.786
-46.46,-37.7,-11.55,-10.166,-84.505,-52.341,59.239,43.152,12.665,-7.7705,63.536,12.366,46.151,-8.4728,-22.422,-14.776
-46.46,-37.7,-11.55,-10.166,-84.505,-52.341,59.239,43.152,12.665,-7.7705,63.536,12.366,46.151,-8.4728,-22.422,-14.776
-46.634,-37.64,-11.543,-10.094,-84.476,-52.217,59.322,43.411,12.546,-7.7662,63.494,12.359,46.076,-8.5217,-22.423,-14.767
-46.634,-37.64,-11.543,-10.094,-84.476,-52.217,59.322,43.411,12.546,-7.7662,63.494,12.359,46.076,-8.5217,-22.423,-14.767
-46.808,-37.58,-11.534,-10.022,-84.445,-52.092,59.404,43.668,12.426,-7.7618,63.45,12.35,46,-8.5703,-22.423,-14.757
-46.808,-37.58,-11.534,-10.022,-84.445,-52.092,59.404,43.668,12.426,-7.7618,63.45,12.35,46,-8.5703,-22.423,-14.757
-46.982,-37.519,-11.524,-9.9492,-84.41,-51.965,59.484,43.925,12.307,-7.7574,63.404,12.342,45.925,-8.6185,-22.424,-14.748
-46.982,-37.519,-11.524,-9.9492,-84.41,-51.965,59.484,43.925,12.307,-7.7574,63.404,12.342,45.925,-8.6185,-22.424,-14.748
-47.156,-37.459,-11.512,-9.8757,-84.374,-51.836,59.562,44.182,12.187,-7.7529,63.356,12.333,45.849,-8.6665,-22.425,-14.738
-47.156,-37.459,-11.512,-9.8757,-84.374,-51.836,59.562,44.182,12.187,-7.7529,63.356,12.333,45.849,-8.6665,-22.425,-14.738
-47.156,-37.459,-11.512,-9.8757,-84.374,-51.836,59.562,44.182,12.187,-7.7529,63.356,12.333,45.849,-8.6665,-22.425,-14.738
-47.331,-37.398,-11.499,-9.8016,-84.335,-51.706,59.639,44.437,12.067,-7.7483,63.306,12.324,45.773,-8.7141,-22.426,-14.728
-47.331,-37.398,-11.499,-9.8016,-84.335,-51.706,59.639,44.437,12.067,-7.7483,63.306,12.324,45.773,-8.7141,-22.426,-14.728
-47.506,-37.336,-11.485,-9.7267,-84.294,-51.574,59.713,44.691,11.947,-7.7437,63.253,12.314,45.697,-8.7614,-22.428,-14.719
-47.682,-37.275,-11.469,-9.6512,-84.25,-51.44,59.786,44.945,11.828,-7.739,63.198,12.305,45.621,-8.8085,-22.429,-14.709
-47.682,-37.275,-11.469,-9.6512,-84.25,-51.44,59.786,44.945,11.828,-7.739,63.198,12.305,45.621,-8.8085,-22.429,-14.709
-47.858,-37.213,-11.452,-9.5749,-84.204,-51.305,59.856,45.198,11.708,-7.7343,63.14,12.294,45.545,-8.8552,-22.431,-14.699
-48.034,-37.151,-11.434,-9.498,-84.156,-51.168,59.925,45.45,11.588,-7.7296,63.08,12.284,45.469,-8.9016,-22.433,-14.69
-48.034,-37.151,-11.434,-9.498,-84.156,-51.168,59.925,45.45,11.588,-7.7296,63.08,12.284,45.469,-8.9016,-22.433,-14.69
-48.034,-37.151,-11.434,-9.498,-84.156,-51.168,59.925,45.45,11.588,-7.7296,63.08,12.284,45.469,-8.9016,-22.433,-14.69
-48.211,-37.088,-11.415,-9.4203,-84.105,-51.03,59.992,45.701,11.469,-7.7248,63.018,12.272,45.393,-8.9478,-22.435,-14.68
-48.211,-37.088,-11.415,-9.4203,-84.105,-51.03,59.992,45.701,11.469,-7.7248,63.018,12.272,45.393,-8.9478,-22.435,-14.68
-48.211,-37.088,-11.415,-9.4203,-84.105,-51.03,59.992,45.701,11.469,-7.7248,63.018,12.272,45.393,-8.9478,-22.435,-14.68
-48.387,-37.025,-11.393,-9.342,-84.052,-50.89,60.057,45.951,11.349,-7.7201,62.953,12.261,45.317,-8.9936,-22.438,-14.67
-48.387,-37.025,-11.393,-9.342,-84.052,-50.89,60.057,45.951,11.349,-7.7201,62.953,12.261,45.317,-8.9936,-22.438,-14.67
-48.387,-37.025,-11.393,-9.342,-84.052,-50.89,60.057,45.951,11.349,-7.7201,62.953,12.261,45.317,-8.9936,-22.438,-14.67
-48.742,-36.899,-11.347,-9.1831,-83.938,-50.605,60.182,46.449,11.11,-7.7105,62.817,12.237,45.164,-9.0844,-22.443,-14.651
-48.742,-36.899,-11.347,-9.1831,-83.938,-50.605,60.182,46.449,11.11,-7.7105,62.817,12.237,45.164,-9.0844,-22.443,-14.651
-48.742,-36.899,-11.347,-9.1831,-83.938,-50.605,60.182,46.449,11.11,-7.7105,62.817,12.237,45.164,-9.0844,-22.443,-14.651
-48.742,-36.899,-11.347,-9.1831,-83.938,-50.605,60.182,46.449,11.11,-7.7105,62.817,12.237,45.164,-9.0844,-22.443,-14.651
-49.098,-36.772,-11.295,-9.0214,-83.815,-50.314,60.299,46.943,10.871,-7.701,62.671,12.211,45.011,-9.174,-22.45,-14.631
-49.098,-36.772,-11.295,-9.0214,-83.815,-50.314,60.299,46.943,10.871,-7.701,62.671,12.211,45.011,-9.174,-22.45,-14.631
-49.098,-36.772,-11.295,-9.0214,-83.815,-50.314,60.299,46.943,10.871,-7.701,62.671,12.211,45.011,-9.174,-22.45,-14.631
-49.277,-36.708,-11.267,-8.9394,-83.75,-50.166,60.355,47.188,10.751,-7.6963,62.595,12.197,44.934,-9.2184,-22.454,-14.621
-49.277,-36.708,-11.267,-8.9394,-83.75,-50.166,60.355,47.188,10.751,-7.6963,62.595,12.197,44.934,-9.2184,-22.454,-14.621
-49.277,-36.708,-11.267,-8.9394,-83.75,-50.166,60.355,47.188,10.751,-7.6963,62.595,12.197,44.934,-9.2184,-22.454,-14.621
-49.635,-36.579,-11.207,-8.7733,-83.612,-49.865,60.462,47.677,10.512,-7.687,62.435,12.168,44.78,-9.3063,-22.462,-14.602
-49.635,-36.579,-11.207,-8.7733,-83.612,-49.865,60.462,47.677,10.512,-7.687,62.435,12.168,44.78,-9.3063,-22.462,-14.602
-49.815,-36.514,-11.175,-8.6892,-83.54,-49.713,60.512,47.919,10.393,-7.6823,62.351,12.153,44.703,-9.3498,-22.466,-14.592
-49.815,-36.514,-11.175,-8.6892,-83.54,-49.713,60.512,47.919,10.393,-7.6823,62.351,12.153,44.703,-9.3498,-22.466,-14.592
-49.995,-36.448,-11.141,-8.6043,-83.465,-49.558,60.561,48.161,10.273,-7.6778,62.265,12.137,44.626,-9.3931,-22.471,-14.583
-49.995,-36.448,-11.141,-8.6043,-83.465,-49.558,60.561,48.161,10.273,-7.6778,62.265,12.137,44.626,-9.3931,-22.471,-14.583
-50.175,-36.383,-11.105,-8.5186,-83.388,-49.402,60.608,48.402,10.154,-7.6732,62.176,12.121,44.549,-9.436,-22.476,-14.573
-50.175,-36.383,-11.105,-8.5186,-83.388,-49.402,60.608,48.402,10.154,-7.6732,62.176,12.121,44.549,-9.436,-22.476,-14.573
-50.355,-36.317,-11.069,-8.4323,-83.308,-49.245,60.653,48.642,10.035,-7.6688,62.085,12.105,44.471,-9.4787,-22.481,-14.564
-50.355,-36.317,-11.069,-8.4323,-83.308,-49.245,60.653,48.642,10.035,-7.6688,62.085,12.105,44.471,-9.4787,-22.481,-14.564
-50.536,-36.251,-11.031,-8.3451,-83.226,-49.086,60.696,48.881,9.9154,-7.6644,61.992,12.088,44.394,-9.5211,-22.486,-14.555
-50.536,-36.251,-11.031,-8.3451,-83.226,-49.086,60.696,48.881,9.9154,-7.6644,61.992,12.088,44.394,-9.5211,-22.486,-14.555
-50.717,-36.185,-10.991,-8.2572,-83.141,-48.925,60.737,49.119,9.7962,-7.6601,61.896,12.07,44.317,-9.5633,-22.492,-14.545
-50.717,-36.185,-10.991,-8.2572,-83.141,-48.925,60.737,49.119,9.7962,-7.6601,61.896,12.07,44.317,-9.5633,-22.492,-14.545
-50.898,-36.118,-10.95,-8.1686,-83.054,-48.763,60.777,49.356,9.6771,-7.6559,61.797,12.052,44.239,-9.6051,-22.498,-14.536
-50.898,-36.118,-10.95,-8.1686,-83.054,-48.763,60.777,49.356,9.6771,-7.6559,61.797,12.052,44.239,-9.6051,-22.498,-14.536
-50.898,-36.118,-10.95,-8.1686,-83.054,-48.763,60.777,49.356,9.6771,-7.6559,61.797,12.052,44.239,-9.6051,-22.498,-14.536
-51.08,-36.052,-10.907,-8.0792,-82.965,-48.599,60.815,49.591,9.558,-7.6517,61.697,12.034,44.161,-9.6467,-22.504,-14.527
-51.262,-35.985,-10.863,-7.989,-82.873,-48.433,60.851,49.826,9.439,-7.6477,61.593,12.014,44.084,-9.6881,-22.511,-14.518
-51.444,-35.917,-10.817,-7.8981,-82.779,-48.266,60.885,50.06,9.3201,-7.6437,61.487,11.995,44.006,-9.7291,-22.518,-14.508
-51.444,-35.917,-10.817,-7.8981,-82.779,-48.266,60.885,50.06,9.3201,-7.6437,61.487,11.995,44.006,-9.7291,-22.518,-14.508
-51.627,-35.85,-10.77,-7.8063,-82.683,-48.097,60.917,50.293,9.2013,-7.6399,61.379,11.975,43.928,-9.7699,-22.525,-14.499
-51.627,-35.85,-10.77,-7.8063,-82.683,-48.097,60.917,50.293,9.2013,-7.6399,61.379,11.975,43.928,-9.7699,-22.525,-14.499
-51.627,-35.85,-10.77,-7.8063,-82.683,-48.097,60.917,50.293,9.2013,-7.6399,61.379,11.975,43.928,-9.7699,-22.525,-14.499
-51.809,-35.782,-10.721,-7.7139,-82.584,-47.927,60.948,50.525,9.0825,-7.6362,61.268,11.954,43.85,-9.8104,-22.533,-14.491
-51.809,-35.782,-10.721,-7.7139,-82.584,-47.927,60.948,50.525,9.0825,-7.6362,61.268,11.954,43.85,-9.8104,-22.533,-14.491
-51.809,-35.782,-10.721,-7.7139,-82.584,-47.927,60.948,50.525,9.0825,-7.6362,61.268,11.954,43.85,-9.8104,-22.533,-14.491
-51.992,-35.714,-10.671,-7.6206,-82.482,-47.755,60.977,50.756,8.9639,-7.6326,61.155,11.933,43.772,-9.8507,-22.541,-14.482
-51.992,-35.714,-10.671,-7.6206,-82.482,-47.755,60.977,50.756,8.9639,-7.6326,61.155,11.933,43.772,-9.8507,-22.541,-14.482
-52.359,-35.577,-10.566,-7.4317,-82.272,-47.407,61.03,51.214,8.7268,-7.6258,60.921,11.888,43.615,-9.9304,-22.557,-14.464
-52.359,-35.577,-10.566,-7.4317,-82.272,-47.407,61.03,51.214,8.7268,-7.6258,60.921,11.888,43.615,-9.9304,-22.557,-14.464
-52.543,-35.508,-10.511,-7.3361,-82.164,-47.23,61.054,51.442,8.6084,-7.6225,60.8,11.865,43.537,-9.9699,-22.566,-14.456
-52.543,-35.508,-10.511,-7.3361,-82.164,-47.23,61.054,51.442,8.6084,-7.6225,60.8,11.865,43.537,-9.9699,-22.566,-14.456
-52.543,-35.508,-10.511,-7.3361,-82.164,-47.23,61.054,51.442,8.6084,-7.6225,60.8,11.865,43.537,-9.9699,-22.566,-14.456
-52.727,-35.439,-10.455,-7.2397,-82.053,-47.052,61.076,51.668,8.4902,-7.6195,60.677,11.842,43.458,-10.009,-22.575,-14.447
-52.727,-35.439,-10.455,-7.2397,-82.053,-47.052,61.076,51.668,8.4902,-7.6195,60.677,11.842,43.458,-10.009,-22.575,-14.447
-52.727,-35.439,-10.455,-7.2397,-82.053,-47.052,61.076,51.668,8.4902,-7.6195,60.677,11.842,43.458,-10.009,-22.575,-14.447
-52.911,-35.37,-10.397,-7.1425,-81.939,-46.872,61.096,51.894,8.372,-7.6166,60.551,11.818,43.379,-10.048,-22.584,-14.439
-52.911,-35.37,-10.397,-7.1425,-81.939,-46.872,61.096,51.894,8.372,-7.6166,60.551,11.818,43.379,-10.048,-22.584,-14.439
-52.911,-35.37,-10.397,-7.1425,-81.939,-46.872,61.096,51.894,8.372,-7.6166,60.551,11.818,43.379,-10.048,-22.584,-14.439
-53.28,-35.23,-10.277,-6.9457,-81.705,-46.508,61.131,52.342,8.1361,-7.6112,60.292,11.768,43.222,-10.125,-22.604,-14.423
-53.465,-35.16,-10.214,-6.846,-81.584,-46.323,61.146,52.564,8.0183,-7.6088,60.159,11.742,43.143,-10.163,-22.614,-14.415
-53.465,-35.16,-10.214,-6.846,-81.584,-46.323,61.146,52.564,8.0183,-7.6088,60.159,11.742,43.143,-10.163,-22.614,-14.415
-53.465,-35.16,-10.214,-6.846,-81.584,-46.323,61.146,52.564,8.0183,-7.6088,60.159,11.742,43.143,-10.163,-22.614,-14.415
-53.65,-35.09,-10.15,-6.7456,-81.461,-46.137,61.16,52.785,7.9006,-7.6066,60.023,11.715,43.064,-10.201,-22.625,-14.407
-53.65,-35.09,-10.15,-6.7456,-81.461,-46.137,61.16,52.785,7.9006,-7.6066,60.023,11.715,43.064,-10.201,-22.625,-14.407
-53.65,-35.09,-10.15,-6.7456,-81.461,-46.137,61.16,52.785,7.9006,-7.6066,60.023,11.715,43.064,-10.201,-22.625,-14.407
-53.836,-35.019,-10.084,-6.6444,-81.336,-45.95,61.171,53.005,7.7831,-7.6045,59.885,11.688,42.985,-10.239,-22.636,-14.399
-53.836,-35.019,-10.084,-6.6444,-81.336,-45.95,61.171,53.005,7.7831,-7.6045,59.885,11.688,42.985,-10.239,-22.636,-14.399
-54.207,-34.877,-9.9478,-6.4395,-81.078,-45.57,61.19,53.442,7.5485,-7.6009,59.6,11.632,42.827,-10.314,-22.659,-14.384
-54.207,-34.877,-9.9478,-6.4395,-81.078,-45.57,61.19,53.442,7.5485,-7.6009,59.6,11.632,42.827,-10.314,-22.659,-14.384
-54.207,-34.877,-9.9478,-6.4395,-81.078,-45.57,61.19,53.442,7.5485,-7.6009,59.6,11.632,42.827,-10.314,-22.659,-14.384
-54.393,-34.806,-9.8773,-6.3358,-80.945,-45.377,61.196,53.659,7.4314,-7.5994,59.454,11.603,42.747,-10.351,-22.67,-14.376
-54.393,-34.806,-9.8773,-6.3358,-80.945,-45.377,61.196,53.659,7.4314,-7.5994,59.454,11.603,42.747,-10.351,-22.67,-14.376
-54.579,-34.734,-9.8051,-6.2313,-80.81,-45.183,61.201,53.874,7.3145,-7.5981,59.306,11.573,42.668,-10.387,-22.683,-14.369
-54.579,-34.734,-9.8051,-6.2313,-80.81,-45.183,61.201,53.874,7.3145,-7.5981,59.306,11.573,42.668,-10.387,-22.683,-14.369
-54.579,-34.734,-9.8051,-6.2313,-80.81,-45.183,61.201,53.874,7.3145,-7.5981,59.306,11.573,42.668,-10.387,-22.683,-14.369
-54.765,-34.662,-9.7314,-6.126,-80.673,-44.988,61.205,54.089,7.1978,-7.5971,59.155,11.543,42.588,-10.424,-22.695,-14.362
-54.951,-34.59,-9.6561,-6.0198,-80.533,-44.791,61.207,54.302,7.0812,-7.5962,59.001,11.512,42.509,-10.46,-22.708,-14.354
-54.951,-34.59,-9.6561,-6.0198,-80.533,-44.791,61.207,54.302,7.0812,-7.5962,59.001,11.512,42.509,-10.46,-22.708,-14.354
-55.138,-34.517,-9.5792,-5.9128,-80.391,-44.592,61.207,54.515,6.9648,-7.5955,58.845,11.481,42.429,-10.496,-22.721,-14.348
-55.138,-34.517,-9.5792,-5.9128,-80.391,-44.592,61.207,54.515,6.9648,-7.5955,58.845,11.481,42.429,-10.496,-22.721,-14.348
-55.138,-34.517,-9.5792,-5.9128,-80.391,-44.592,61.207,54.515,6.9648,-7.5955,58.845,11.481,42.429,-10.496,-22.721,-14.348
-55.325,-34.445,-9.5006,-5.8049,-80.246,-44.392,61.205,54.726,6.8485,-7.5951,58.686,11.449,42.349,-10.531,-22.735,-14.341
-55.325,-34.445,-9.5006,-5.8049,-80.246,-44.392,61.205,54.726,6.8485,-7.5951,58.686,11.449,42.349,-10.531,-22.735,-14.341
-55.325,-34.445,-9.5006,-5.8049,-80.246,-44.392,61.205,54.726,6.8485,-7.5951,58.686,11.449,42.349,-10.531,-22.735,-14.341
-55.698,-34.298,-9.3387,-5.5868,-79.949,-43.987,61.197,55.145,6.6166,-7.5949,58.361,11.382,42.19,-10.602,-22.763,-14.328
-55.698,-34.298,-9.3387,-5.5868,-79.949,-43.987,61.197,55.145,6.6166,-7.5949,58.361,11.382,42.19,-10.602,-22.763,-14.328
-55.698,-34.298,-9.3387,-5.5868,-79.949,-43.987,61.197,55.145,6.6166,-7.5949,58.361,11.382,42.19,-10.602,-22.763,-14.328
-55.698,-34.298,-9.3387,-5.5868,-79.949,-43.987,61.197,55.145,6.6166,-7.5949,58.361,11.382,42.19,-10.602,-22.763,-14.328
-56.073,-34.151,-9.1702,-5.3652,-79.643,-43.576,61.183,55.559,6.3855,-7.5957,58.026,11.313,42.03,-10.672,-22.792,-14.315
-56.073,-34.151,-9.1702,-5.3652,-79.643,-43.576,61.183,55.559,6.3855,-7.5957,58.026,11.313,42.03,-10.672,-22.792,-14.315
-56.26,-34.077,-9.0835,-5.2531,-79.487,-43.368,61.173,55.764,6.2703,-7.5965,57.855,11.278,41.949,-10.706,-22.807,-14.309
-56.26,-34.077,-9.0835,-5.2531,-79.487,-43.368,61.173,55.764,6.2703,-7.5965,57.855,11.278,41.949,-10.706,-22.807,-14.309
-56.447,-34.002,-8.9952,-5.1402,-79.328,-43.158,61.162,55.968,6.1552,-7.5975,57.681,11.242,41.869,-10.741,-22.823,-14.303
-56.447,-34.002,-8.9952,-5.1402,-79.328,-43.158,61.162,55.968,6.1552,-7.5975,57.681,11.242,41.869,-10.741,-22.823,-14.303
-56.635,-33.928,-8.9053,-5.0264,-79.167,-42.947,61.15,56.171,6.0404,-7.5987,57.504,11.205,41.789,-10.775,-22.838,-14.297
-56.635,-33.928,-8.9053,-5.0264,-79.167,-42.947,61.15,56.171,6.0404,-7.5987,57.504,11.205,41.789,-10.775,-22.838,-14.297
-56.822,-33.853,-8.8137,-4.9117,-79.003,-42.735,61.135,56.373,5.9258,-7.6003,57.325,11.167,41.709,-10.808,-22.854,-14.291
-56.822,-33.853,-8.8137,-4.9117,-79.003,-42.735,61.135,56.373,5.9258,-7.6003,57.325,11.167,41.709,-10.808,-22.854,-14.291
-57.01,-33.777,-8.7204,-4.7962,-78.837,-42.521,61.12,56.574,5.8115,-7.6021,57.144,11.129,41.628,-10.842,-22.871,-14.286
-57.01,-33.777,-8.7204,-4.7962,-78.837,-42.521,61.12,56.574,5.8115,-7.6021,57.144,11.129,41.628,-10.842,-22.871,-14.286
-57.198,-33.702,-8.6255,-4.6799,-78.668,-42.305,61.102,56.773,5.6974,-7.6041,56.96,11.09,41.548,-10.875,-22.888,-14.28
-57.198,-33.702,-8.6255,-4.6799,-78.668,-42.305,61.102,56.773,5.6974,-7.6041,56.96,11.09,41.548,-10.875,-22.888,-14.28
-57.385,-33.626,-8.529,-4.5626,-78.498,-42.088,61.084,56.972,5.5835,-7.6065,56.773,11.051,41.467,-10.908,-22.905,-14.275
-57.385,-33.626,-8.529,-4.5626,-78.498,-42.088,61.084,56.972,5.5835,-7.6065,56.773,11.051,41.467,-10.908,-22.905,-14.275
-57.385,-33.626,-8.529,-4.5626,-78.498,-42.088,61.084,56.972,5.5835,-7.6065,56.773,11.051,41.467,-10.908,-22.905,-14.275
-57.573,-33.55,-8.4308,-4.4445,-78.325,-41.869,61.063,57.169,5.4699,-7.6091,56.584,11.011,41.386,-10.941,-22.922,-14.27
-57.573,-33.55,-8.4308,-4.4445,-78.325,-41.869,61.063,57.169,5.4699,-7.6091,56.584,11.011,41.386,-10.941,-22.922,-14.27
-57.761,-33.474,-8.3309,-4.3255,-78.149,-41.649,61.041,57.365,5.3565,-7.612,56.392,10.97,41.306,-10.974,-22.94,-14.265
-57.761,-33.474,-8.3309,-4.3255,-78.149,-41.649,61.041,57.365,5.3565,-7.612,56.392,10.97,41.306,-10.974,-22.94,-14.265
-57.761,-33.474,-8.3309,-4.3255,-78.149,-41.649,61.041,57.365,5.3565,-7.612,56.392,10.97,41.306,-10.974,-22.94,-14.265
-58.137,-33.32,-8.1263,-4.0849,-77.791,-41.204,60.993,57.753,5.1306,-7.6186,56.001,10.886,41.144,-11.038,-22.976,-14.256
-58.137,-33.32,-8.1263,-4.0849,-77.791,-41.204,60.993,57.753,5.1306,-7.6186,56.001,10.886,41.144,-11.038,-22.976,-14.256
-58.324,-33.242,-8.0214,-3.9632,-77.608,-40.979,60.967,57.946,5.0181,-7.6224,55.802,10.842,41.063,-11.07,-22.995,-14.251
-58.324,-33.242,-8.0214,-3.9632,-77.608,-40.979,60.967,57.946,5.0181,-7.6224,55.802,10.842,41.063,-11.07,-22.995,-14.251
-58.512,-33.165,-7.9149,-3.8407,-77.423,-40.753,60.939,58.137,4.9058,-7.6265,55.6,10.799,40.982,-11.102,-23.014,-14.247
-58.512,-33.165,-7.9149,-3.8407,-77.423,-40.753,60.939,58.137,4.9058,-7.6265,55.6,10.799,40.982,-11.102,-23.014,-14.247
-58.512,-33.165,-7.9149,-3.8407,-77.423,-40.753,60.939,58.137,4.9058,-7.6265,55.6,10.799,40.982,-11.102,-23.014,-14.247
-58.7,-33.087,-7.8068,-3.7173,-77.236,-40.525,60.91,58.327,4.7938,-7.6309,55.396,10.754,40.901,-11.133,-23.033,-14.243
-58.7,-33.087,-7.8068,-3.7173,-77.236,-40.525,60.91,58.327,4.7938,-7.6309,55.396,10.754,40.901,-11.133,-23.033,-14.243
-58.7,-33.087,-7.8068,-3.7173,-77.236,-40.525,60.91,58.327,4.7938,-7.6309,55.396,10.754,40.901,-11.133,-23.033,-14.243
-59.076,-32.93,-7.5855,-3.4678,-76.855,-40.065,60.848,58.703,4.5708,-7.6405,54.979,10.663,40.739,-11.195,-23.072,-14.235
-59.076,-32.93,-7.5855,-3.4678,-76.855,-40.065,60.848,58.703,4.5708,-7.6405,54.979,10.663,40.739,-11.195,-23.072,-14.235
-59.263,-32.851,-7.4723,-3.3417,-76.66,-39.833,60.814,58.889,4.4597,-7.6458,54.768,10.616,40.658,-11.226,-23.092,-14.231
-59.263,-32.851,-7.4723,-3.3417,-76.66,-39.833,60.814,58.889,4.4597,-7.6458,54.768,10.616,40.658,-11.226,-23.092,-14.231
-59.451,-32.772,-7.3575,-3.2147,-76.464,-39.599,60.78,59.074,4.3489,-7.6514,54.553,10.569,40.576,-11.257,-23.113,-14.227
-59.451,-32.772,-7.3575,-3.2147,-76.464,-39.599,60.78,59.074,4.3489,-7.6514,54.553,10.569,40.576,-11.257,-23.113,-14.227
-59.451,-32.772,-7.3575,-3.2147,-76.464,-39.599,60.78,59.074,4.3489,-7.6514,54.553,10.569,40.576,-11.257,-23.113,-14.227
-59.639,-32.692,-7.241,-3.0867,-76.265,-39.363,60.743,59.258,4.2385,-7.6574,54.336,10.521,40.495,-11.287,-23.134,-14.224
-59.639,-32.692,-7.241,-3.0867,-76.265,-39.363,60.743,59.258,4.2385,-7.6574,54.336,10.521,40.495,-11.287,-23.134,-14.224
-59.639,-32.692,-7.241,-3.0867,-76.265,-39.363,60.743,59.258,4.2385,-7.6574,54.336,10.521,40.495,-11.287,-23.134,-14.224
-60.013,-32.532,-7.0029,-2.8282,-75.86,-38.888,60.667,59.622,4.0186,-7.6702,53.895,10.423,40.332,-11.347,-23.176,-14.217
-60.013,-32.532,-7.0029,-2.8282,-75.86,-38.888,60.667,59.622,4.0186,-7.6702,53.895,10.423,40.332,-11.347,-23.176,-14.217
-60.013,-32.532,-7.0029,-2.8282,-75.86,-38.888,60.667,59.622,4.0186,-7.6702,53.895,10.423,40.332,-11.347,-23.176,-14.217
-60.201,-32.451,-6.8814,-2.6976,-75.654,-38.648,60.627,59.802,3.9092,-7.6771,53.671,10.372,40.251,-11.377,-23.198,-14.215
-60.388,-32.37,-6.7582,-2.566,-75.446,-38.407,60.585,59.981,3.8001,-7.6844,53.444,10.321,40.169,-11.406,-23.22,-14.212
-60.388,-32.37,-6.7582,-2.566,-75.446,-38.407,60.585,59.981,3.8001,-7.6844,53.444,10.321,40.169,-11.406,-23.22,-14.212
-60.388,-32.37,-6.7582,-2.566,-75.446,-38.407,60.585,59.981,3.8001,-7.6844,53.444,10.321,40.169,-11.406,-23.22,-14.212
-60.575,-32.289,-6.6333,-2.4336,-75.235,-38.164,60.542,60.159,3.6914,-7.6919,53.215,10.269,40.088,-11.435,-23.242,-14.209
-60.762,-32.207,-6.5068,-2.3002,-75.022,-37.92,60.498,60.336,3.583,-7.6999,52.983,10.217,40.006,-11.464,-23.264,-14.206
-60.762,-32.207,-6.5068,-2.3002,-75.022,-37.92,60.498,60.336,3.583,-7.6999,52.983,10.217,40.006,-11.464,-23.264,-14.206
-60.949,-32.125,-6.3786,-2.1659,-74.807,-37.674,60.452,60.511,3.475,-7.7081,52.749,10.164,39.924,-11.493,-23.287,-14.204
-60.949,-32.125,-6.3786,-2.1659,-74.807,-37.674,60.452,60.511,3.475,-7.7081,52.749,10.164,39.924,-11.493,-23.287,-14.204
-61.136,-32.042,-6.2487,-2.0307,-74.59,-37.427,60.405,60.685,3.3674,-7.7167,52.512,10.11,39.843,-11.521,-23.31,-14.202
-61.136,-32.042,-6.2487,-2.0307,-74.59,-37.427,60.405,60.685,3.3674,-7.7167,52.512,10.11,39.843,-11.521,-23.31,-14.202
-61.322,-31.96,-6.1171,-1.8945,-74.37,-37.178,60.357,60.858,3.2601,-7.7257,52.273,10.055,39.761,-11.549,-23.333,-14.2
-61.322,-31.96,-6.1171,-1.8945,-74.37,-37.178,60.357,60.858,3.2601,-7.7257,52.273,10.055,39.761,-11.549,-23.333,-14.2
-61.508,-31.877,-5.9839,-1.7574,-74.148,-36.928,60.308,61.029,3.1533,-7.7349,52.031,9.9995,39.679,-11.577,-23.357,-14.198
-61.508,-31.877,-5.9839,-1.7574,-74.148,-36.928,60.308,61.029,3.1533,-7.7349,52.031,9.9995,39.679,-11.577,-23.357,-14.198
-61.694,-31.793,-5.8489,-1.6194,-73.924,-36.677,60.257,61.2,3.0468,-7.7446,51.787,9.9433,39.597,-11.605,-23.381,-14.196
-61.694,-31.793,-5.8489,-1.6194,-73.924,-36.677,60.257,61.2,3.0468,-7.7446,51.787,9.9433,39.597,-11.605,-23.381,-14.196
-61.88,-31.709,-5.7123,-1.4805,-73.698,-36.424,60.205,61.369,2.9407,-7.7546,51.541,9.8864,39.516,-11.633,-23.405,-14.194
-61.88,-31.709,-5.7123,-1.4805,-73.698,-36.424,60.205,61.369,2.9407,-7.7546,51.541,9.8864,39.516,-11.633,-23.405,-14.194
-62.066,-31.625,-5.5741,-1.3406,-73.469,-36.169,60.152,61.537,2.8351,-7.7649,51.292,9.8287,39.434,-11.66,-23.429,-14.193
-62.066,-31.625,-5.5741,-1.3406,-73.469,-36.169,60.152,61.537,2.8351,-7.7649,51.292,9.8287,39.434,-11.66,-23.429,-14.193
-62.066,-31.625,-5.5741,-1.3406,-73.469,-36.169,60.152,61.537,2.8351,-7.7649,51.292,9.8287,39.434,-11.66,-23.429,-14.193
-62.251,-31.54,-5.4342,-1.1998,-73.238,-35.913,60.097,61.703,2.7298,-7.7756,51.041,9.7702,39.352,-11.687,-23.454,-14.192
-62.251,-31.54,-5.4342,-1.1998,-73.238,-35.913,60.097,61.703,2.7298,-7.7756,51.041,9.7702,39.352,-11.687,-23.454,-14.192
-62.251,-31.54,-5.4342,-1.1998,-73.238,-35.913,60.097,61.703,2.7298,-7.7756,51.041,9.7702,39.352,-11.687,-23.454,-14.192
-62.437,-31.455,-5.2926,-1.0581,-73.004,-35.656,60.042,61.869,2.625,-7.7867,50.787,9.711,39.27,-11.714,-23.479,-14.19
-62.437,-31.455,-5.2926,-1.0581,-73.004,-35.656,60.042,61.869,2.625,-7.7867,50.787,9.711,39.27,-11.714,-23.479,-14.19
-62.806,-31.283,-5.0044,-0.7718,-72.531,-35.137,59.927,62.195,2.4167,-7.8099,50.272,9.5903,39.106,-11.767,-23.529,-14.188
-62.806,-31.283,-5.0044,-0.7718,-72.531,-35.137,59.927,62.195,2.4167,-7.8099,50.272,9.5903,39.106,-11.767,-23.529,-14.188
-62.991,-31.197,-4.8578,-0.62723,-72.291,-34.875,59.868,62.357,2.3132,-7.822,50.011,9.5289,39.024,-11.793,-23.555,-14.188
-62.991,-31.197,-4.8578,-0.62723,-72.291,-34.875,59.868,62.357,2.3132,-7.822,50.011,9.5289,39.024,-11.793,-23.555,-14.188
-62.991,-31.197,-4.8578,-0.62723,-72.291,-34.875,59.868,62.357,2.3132,-7.822,50.011,9.5289,39.024,-11.793,-23.555,-14.188
-63.175,-31.11,-4.7095,-0.48172,-72.049,-34.612,59.807,62.517,2.2101,-7.8345,49.748,9.4666,38.942,-11.819,-23.581,-14.187
-63.175,-31.11,-4.7095,-0.48172,-72.049,-34.612,59.807,62.517,2.2101,-7.8345,49.748,9.4666,38.942,-11.819,-23.581,-14.187
-63.175,-31.11,-4.7095,-0.48172,-72.049,-34.612,59.807,62.517,2.2101,-7.8345,49.748,9.4666,38.942,-11.819,-23.581,-14.187
-63.542,-30.935,-4.4081,-0.18787,-71.558,-34.081,59.683,62.834,2.0053,-7.8606,49.214,9.3399,38.778,-11.871,-23.633,-14.186
-63.542,-30.935,-4.4081,-0.18787,-71.558,-34.081,59.683,62.834,2.0053,-7.8606,49.214,9.3399,38.778,-11.871,-23.633,-14.186
-63.725,-30.847,-4.2548,-0.039519,-71.309,-33.814,59.62,62.991,1.9036,-7.8743,48.944,9.2754,38.696,-11.896,-23.659,-14.186
-63.908,-30.759,-4.1,0.10978,-71.058,-33.545,59.555,63.146,1.8024,-7.8882,48.671,9.2102,38.614,-11.921,-23.686,-14.186
-63.908,-30.759,-4.1,0.10978,-71.058,-33.545,59.555,63.146,1.8024,-7.8882,48.671,9.2102,38.614,-11.921,-23.686,-14.186
-63.908,-30.759,-4.1,0.10978,-71.058,-33.545,59.555,63.146,1.8024,-7.8882,48.671,9.2102,38.614,-11.921,-23.686,-14.186
-64.091,-30.669,-3.9434,0.26004,-70.804,-33.275,59.489,63.3,1.7017,-7.9026,48.396,9.1442,38.532,-11.946,-23.713,-14.186
-64.091,-30.669,-3.9434,0.26004,-70.804,-33.275,59.489,63.3,1.7017,-7.9026,48.396,9.1442,38.532,-11.946,-23.713,-14.186
-64.091,-30.669,-3.9434,0.26004,-70.804,-33.275,59.489,63.3,1.7017,-7.9026,48.396,9.1442,38.532,-11.946,-23.713,-14.186
-64.273,-30.58,-3.7853,0.41125,-70.549,-33.003,59.422,63.453,1.6015,-7.9173,48.118,9.0774,38.449,-11.971,-23.74,-14.186
-64.454,-30.49,-3.6254,0.56341,-70.291,-32.73,59.354,63.604,1.5017,-7.9324,47.839,9.0099,38.367,-11.995,-23.767,-14.186
-64.454,-30.49,-3.6254,0.56341,-70.291,-32.73,59.354,63.604,1.5017,-7.9324,47.839,9.0099,38.367,-11.995,-23.767,-14.186
-64.636,-30.4,-3.464,0.71653,-70.031,-32.456,59.284,63.755,1.4025,-7.9479,47.557,8.9416,38.285,-12.019,-23.795,-14.187
-64.636,-30.4,-3.464,0.71653,-70.031,-32.456,59.284,63.755,1.4025,-7.9479,47.557,8.9416,38.285,-12.019,-23.795,-14.187
-64.817,-30.309,-3.3009,0.87061,-69.769,-32.18,59.214,63.903,1.3037,-7.9637,47.272,8.8726,38.203,-12.043,-23.822,-14.187
-64.817,-30.309,-3.3009,0.87061,-69.769,-32.18,59.214,63.903,1.3037,-7.9637,47.272,8.8726,38.203,-12.043,-23.822,-14.187
-64.997,-30.217,-3.1362,1.0257,-69.505,-31.903,59.143,64.051,1.2055,-7.98,46.986,8.8028,38.121,-12.067,-23.85,-14.188
-64.997,-30.217,-3.1362,1.0257,-69.505,-31.903,59.143,64.051,1.2055,-7.98,46.986,8.8028,38.121,-12.067,-23.85,-14.188
-65.177,-30.126,-2.9698,1.1817,-69.238,-31.625,59.071,64.198,1.1078,-7.9966,46.697,8.7323,38.039,-12.091,-23.878,-14.189
-65.357,-30.033,-2.8018,1.3386,-68.97,-31.345,58.997,64.343,1.0106,-8.0136,46.406,8.661,37.956,-12.114,-23.907,-14.19
-65.357,-30.033,-2.8018,1.3386,-68.97,-31.345,58.997,64.343,1.0106,-8.0136,46.406,8.661,37.956,-12.114,-23.907,-14.19
-65.357,-30.033,-2.8018,1.3386,-68.97,-31.345,58.997,64.343,1.0106,-8.0136,46.406,8.661,37.956,-12.114,-23.907,-14.19
-65.536,-29.94,-2.6323,1.4965,-68.699,-31.063,58.923,64.487,0.914,-8.0309,46.112,8.5889,37.874,-12.137,-23.935,-14.191
-65.536,-29.94,-2.6323,1.4965,-68.699,-31.063,58.923,64.487,0.914,-8.0309,46.112,8.5889,37.874,-12.137,-23.935,-14.191
-65.714,-29.847,-2.461,1.6554,-68.426,-30.781,58.848,64.629,0.8179,-8.0487,45.816,8.5161,37.792,-12.16,-23.964,-14.192
-65.714,-29.847,-2.461,1.6554,-68.426,-30.781,58.848,64.629,0.8179,-8.0487,45.816,8.5161,37.792,-12.16,-23.964,-14.192
-65.893,-29.753,-2.2882,1.8153,-68.151,-30.497,58.771,64.771,0.72235,-8.0668,45.518,8.4425,37.71,-12.183,-23.992,-14.193
-65.893,-29.753,-2.2882,1.8153,-68.151,-30.497,58.771,64.771,0.72235,-8.0668,45.518,8.4425,37.71,-12.183,-23.992,-14.193
-65.893,-29.753,-2.2882,1.8153,-68.151,-30.497,58.771,64.771,0.72235,-8.0668,45.518,8.4425,37.71,-12.183,-23.992,-14.193
-66.07,-29.659,-2.1138,1.9761,-67.874,-30.211,58.694,64.911,0.62735,-8.0853,45.218,8.3681,37.628,-12.205,-24.021,-14.194
-66.07,-29.659,-2.1138,1.9761,-67.874,-30.211,58.694,64.911,0.62735,-8.0853,45.218,8.3681,37.628,-12.205,-24.021,-14.194
-66.07,-29.659,-2.1138,1.9761,-67.874,-30.211,58.694,64.911,0.62735,-8.0853,45.218,8.3681,37.628,-12.205,-24.021,-14.194
-66.424,-29.468,-1.7601,2.3006,-67.313,-29.637,58.537,65.187,0.43903,-8.1234,44.611,8.2172,37.463,-12.25,-24.079,-14.198
-66.6,-29.372,-1.5809,2.4643,-67.03,-29.347,58.457,65.324,0.34573,-8.143,44.304,8.1406,37.381,-12.272,-24.109,-14.199
-66.6,-29.372,-1.5809,2.4643,-67.03,-29.347,58.457,65.324,0.34573,-8.143,44.304,8.1406,37.381,-12.272,-24.109,-14.199
-66.6,-29.372,-1.5809,2.4643,-67.03,-29.347,58.457,65.324,0.34573,-8.143,44.304,8.1406,37.381,-12.272,-24.109,-14.199
-66.775,-29.276,-1.4001,2.629,-66.744,-29.057,58.376,65.459,0.253,-8.163,43.995,8.0632,37.299,-12.293,-24.138,-14.201
-66.775,-29.276,-1.4001,2.629,-66.744,-29.057,58.376,65.459,0.253,-8.163,43.995,8.0632,37.299,-12.293,-24.138,-14.201
-66.95,-29.179,-1.2177,2.7947,-66.456,-28.765,58.294,65.592,0.16086,-8.1834,43.684,7.9851,37.217,-12.315,-24.168,-14.203
-66.95,-29.179,-1.2177,2.7947,-66.456,-28.765,58.294,65.592,0.16086,-8.1834,43.684,7.9851,37.217,-12.315,-24.168,-14.203
-67.124,-29.081,-1.0337,2.9613,-66.167,-28.471,58.211,65.725,0.069313,-8.2042,43.371,7.9062,37.134,-12.336,-24.197,-14.205
-67.298,-28.983,-0.84813,3.1289,-65.875,-28.177,58.128,65.856,-0.021641,-8.2253,43.055,7.8266,37.052,-12.357,-24.227,-14.207
-67.298,-28.983,-0.84813,3.1289,-65.875,-28.177,58.128,65.856,-0.021641,-8.2253,43.055,7.8266,37.052,-12.357,-24.227,-14.207
-67.298,-28.983,-0.84813,3.1289,-65.875,-28.177,58.128,65.856,-0.021641,-8.2253,43.055,7.8266,37.052,-12.357,-24.227,-14.207
-67.471,-28.884,-0.66102,3.2974,-65.581,-27.881,58.043,65.986,-0.11199,-8.2469,42.738,7.7462,36.97,-12.378,-24.257,-14.209
-67.471,-28.884,-0.66102,3.2974,-65.581,-27.881,58.043,65.986,-0.11199,-8.2469,42.738,7.7462,36.97,-12.378,-24.257,-14.209
-67.643,-28.784,-0.47235,3.467,-65.285,-27.583,57.958,66.115,-0.20173,-8.2688,42.418,7.6651,36.888,-12.398,-24.287,-14.212
-67.815,-28.684,-0.28213,3.6375,-64.987,-27.285,57.872,66.242,-0.29086,-8.2911,42.096,7.5832,36.806,-12.419,-24.317,-14.214
-67.815,-28.684,-0.28213,3.6375,-64.987,-27.285,57.872,66.242,-0.29086,-8.2911,42.096,7.5832,36.806,-12.419,-24.317,-14.214
-67.815,-28.684,-0.28213,3.6375,-64.987,-27.285,57.872,66.242,-0.29086,-8.2911,42.096,7.5832,36.806,-12.419,-24.317,-14.214
-67.986,-28.584,-0.090363,3.8089,-64.687,-26.985,57.785,66.368,-0.37937,-8.3137,41.772,7.5005,36.723,-12.439,-24.347,-14.217
-67.986,-28.584,-0.090363,3.8089,-64.687,-26.985,57.785,66.368,-0.37937,-8.3137,41.772,7.5005,36.723,-12.439,-24.347,-14.217
-68.156,-28.483,0.10294,3.9814,-64.385,-26.684,57.697,66.493,-0.46725,-8.3367,41.446,7.4171,36.641,-12.459,-24.378,-14.219
-68.156,-28.483,0.10294,3.9814,-64.385,-26.684,57.697,66.493,-0.46725,-8.3367,41.446,7.4171,36.641,-12.459,-24.378,-14.219
-68.325,-28.381,0.29778,4.1548,-64.08,-26.382,57.608,66.617,-0.55449,-8.3602,41.118,7.333,36.559,-12.478,-24.408,-14.222
-68.325,-28.381,0.29778,4.1548,-64.08,-26.382,57.608,66.617,-0.55449,-8.3602,41.118,7.333,36.559,-12.478,-24.408,-14.222
-68.494,-28.278,0.49415,4.3292,-63.774,-26.078,57.518,66.739,-0.6411,-8.3839,40.787,7.2481,36.477,-12.498,-24.438,-14.225
-68.494,-28.278,0.49415,4.3292,-63.774,-26.078,57.518,66.739,-0.6411,-8.3839,40.787,7.2481,36.477,-12.498,-24.438,-14.225
-68.494,-28.278,0.49415,4.3292,-63.774,-26.078,57.518,66.739,-0.6411,-8.3839,40.787,7.2481,36.477,-12.498,-24.438,-14.225
-68.662,-28.175,0.69203,4.5045,-63.466,-25.773,57.428,66.86,-0.72707,-8.4081,40.455,7.1625,36.395,-12.517,-24.469,-14.227
-68.83,-28.071,0.89143,4.6808,-63.156,-25.467,57.337,66.98,-0.81238,-8.4326,40.121,7.0761,36.313,-12.536,-24.499,-14.23
-68.996,-27.967,1.0923,4.8581,-62.844,-25.159,57.245,67.098,-0.89704,-8.4575,39.785,6.989,36.231,-12.555,-24.53,-14.233
-68.996,-27.967,1.0923,4.8581,-62.844,-25.159,57.245,67.098,-0.89704,-8.4575,39.785,6.989,36.231,-12.555,-24.53,-14.233
-68.996,-27.967,1.0923,4.8581,-62.844,-25.159,57.245,67.098,-0.89704,-8.4575,39.785,6.989,36.231,-12.555,-24.53,-14.233
-69.162,-27.862,1.2947,5.0363,-62.529,-24.85,57.153,67.216,-0.98104,-8.4828,39.446,6.9011,36.148,-12.574,-24.561,-14.236
-69.162,-27.862,1.2947,5.0363,-62.529,-24.85,57.153,67.216,-0.98104,-8.4828,39.446,6.9011,36.148,-12.574,-24.561,-14.236
-69.327,-27.756,1.4986,5.2155,-62.213,-24.541,57.06,67.331,-1.0644,-8.5084,39.106,6.8125,36.066,-12.592,-24.591,-14.24
-69.327,-27.756,1.4986,5.2155,-62.213,-24.541,57.06,67.331,-1.0644,-8.5084,39.106,6.8125,36.066,-12.592,-24.591,-14.24
-69.491,-27.65,1.704,5.3957,-61.895,-24.229,56.966,67.446,-1.147,-8.5344,38.763,6.7231,35.984,-12.611,-24.622,-14.243
-69.654,-27.543,1.9108,5.5769,-61.575,-23.917,56.871,67.56,-1.229,-8.5608,38.419,6.633,35.902,-12.629,-24.653,-14.246
-69.654,-27.543,1.9108,5.5769,-61.575,-23.917,56.871,67.56,-1.229,-8.5608,38.419,6.633,35.902,-12.629,-24.653,-14.246
-69.817,-27.435,2.1191,5.759,-61.253,-23.603,56.775,67.672,-1.3103,-8.5876,38.073,6.5422,35.82,-12.647,-24.684,-14.249
-69.817,-27.435,2.1191,5.759,-61.253,-23.603,56.775,67.672,-1.3103,-8.5876,38.073,6.5422,35.82,-12.647,-24.684,-14.249
-69.978,-27.327,2.3288,5.942,-60.929,-23.288,56.679,67.782,-1.3909,-8.6147,37.725,6.4506,35.738,-12.664,-24.715,-14.253
-69.978,-27.327,2.3288,5.942,-60.929,-23.288,56.679,67.782,-1.3909,-8.6147,37.725,6.4506,35.738,-12.664,-24.715,-14.253
-69.978,-27.327,2.3288,5.942,-60.929,-23.288,56.679,67.782,-1.3909,-8.6147,37.725,6.4506,35.738,-12.664,-24.715,-14.253
-70.139,-27.218,2.54,6.1261,-60.603,-22.972,56.582,67.892,-1.4709,-8.6421,37.374,6.3583,35.656,-12.682,-24.745,-14.256
-70.139,-27.218,2.54,6.1261,-60.603,-22.972,56.582,67.892,-1.4709,-8.6421,37.374,6.3583,35.656,-12.682,-24.745,-14.256
-70.299,-27.108,2.7527,6.3111,-60.275,-22.655,56.485,68,-1.5501,-8.67,37.022,6.2653,35.574,-12.699,-24.776,-14.26
-70.299,-27.108,2.7527,6.3111,-60.275,-22.655,56.485,68,-1.5501,-8.67,37.022,6.2653,35.574,-12.699,-24.776,-14.26
-70.457,-26.997,2.9667,6.497,-59.946,-22.337,56.387,68.107,-1.6286,-8.6981,36.668,6.1715,35.492,-12.716,-24.807,-14.263
-70.457,-26.997,2.9667,6.497,-59.946,-22.337,56.387,68.107,-1.6286,-8.6981,36.668,6.1715,35.492,-12.716,-24.807,-14.263
-70.615,-26.886,3.1822,6.6839,-59.614,-22.017,56.288,68.213,-1.7064,-8.7267,36.313,6.077,35.41,-12.733,-24.838,-14.267
-70.615,-26.886,3.1822,6.6839,-59.614,-22.017,56.288,68.213,-1.7064,-8.7267,36.313,6.077,35.41,-12.733,-24.838,-14.267
-70.772,-26.774,3.3991,6.8718,-59.28,-21.696,56.188,68.317,-1.7835,-8.7556,35.955,5.9817,35.328,-12.75,-24.869,-14.271
-70.772,-26.774,3.3991,6.8718,-59.28,-21.696,56.188,68.317,-1.7835,-8.7556,35.955,5.9817,35.328,-12.75,-24.869,-14.271
-70.928,-26.662,3.6174,7.0606,-58.945,-21.374,56.088,68.421,-1.8599,-8.7848,35.595,5.8858,35.246,-12.766,-24.899,-14.274
-70.928,-26.662,3.6174,7.0606,-58.945,-21.374,56.088,68.421,-1.8599,-8.7848,35.595,5.8858,35.246,-12.766,-24.899,-14.274
-70.928,-26.662,3.6174,7.0606,-58.945,-21.374,56.088,68.421,-1.8599,-8.7848,35.595,5.8858,35.246,-12.766,-24.899,-14.274
-71.083,-26.548,3.8371,7.2504,-58.608,-21.051,55.987,68.522,-1.9355,-8.8144,35.234,5.7891,35.164,-12.782,-24.93,-14.278
-71.237,-26.434,4.0581,7.4411,-58.268,-20.727,55.886,68.623,-2.0105,-8.8444,34.871,5.6917,35.082,-12.799,-24.961,-14.282
-71.39,-26.319,4.2806,7.6328,-57.927,-20.401,55.784,68.722,-2.0847,-8.8747,34.505,5.5935,35,-12.815,-24.992,-14.286
-71.39,-26.319,4.2806,7.6328,-57.927,-20.401,55.784,68.722,-2.0847,-8.8747,34.505,5.5935,35,-12.815,-24.992,-14.286
-71.39,-26.319,4.2806,7.6328,-57.927,-20.401,55.784,68.722,-2.0847,-8.8747,34.505,5.5935,35,-12.815,-24.992,-14.286
-71.542,-26.203,4.5044,7.8254,-57.585,-20.074,55.681,68.82,-2.1581,-8.9054,34.139,5.4947,34.918,-12.83,-25.022,-14.29
-71.542,-26.203,4.5044,7.8254,-57.585,-20.074,55.681,68.82,-2.1581,-8.9054,34.139,5.4947,34.918,-12.83,-25.022,-14.29
-71.693,-26.087,4.7295,8.019,-57.24,-19.747,55.578,68.917,-2.2308,-8.9363,33.77,5.3951,34.836,-12.846,-25.053,-14.294
-71.693,-26.087,4.7295,8.019,-57.24,-19.747,55.578,68.917,-2.2308,-8.9363,33.77,5.3951,34.836,-12.846,-25.053,-14.294
-71.842,-25.969,4.956,8.2135,-56.893,-19.418,55.474,69.013,-2.3028,-8.9677,33.399,5.2948,34.754,-12.861,-25.084,-14.298
-71.842,-25.969,4.956,8.2135,-56.893,-19.418,55.474,69.013,-2.3028,-8.9677,33.399,5.2948,34.754,-12.861,-25.084,-14.298
-71.991,-25.851,5.1838,8.4089,-56.545,-19.088,55.37,69.107,-2.374,-8.9994,33.027,5.1938,34.672,-12.876,-25.114,-14.302
-71.991,-25.851,5.1838,8.4089,-56.545,-19.088,55.37,69.107,-2.374,-8.9994,33.027,5.1938,34.672,-12.876,-25.114,-14.302
-72.139,-25.732,5.4129,8.6053,-56.195,-18.757,55.265,69.2,-2.4445,-9.0314,32.653,5.092,34.59,-12.891,-25.144,-14.306
-72.139,-25.732,5.4129,8.6053,-56.195,-18.757,55.265,69.2,-2.4445,-9.0314,32.653,5.092,34.59,-12.891,-25.144,-14.306
-72.285,-25.613,5.6433,8.8027,-55.843,-18.424,55.16,69.291,-2.5142,-9.0637,32.278,4.9896,34.508,-12.906,-25.175,-14.31
-72.285,-25.613,5.6433,8.8027,-55.843,-18.424,55.16,69.291,-2.5142,-9.0637,32.278,4.9896,34.508,-12.906,-25.175,-14.31
-72.43,-25.492,5.8751,9.0009,-55.489,-18.091,55.054,69.381,-2.5832,-9.0964,31.9,4.8864,34.426,-12.921,-25.205,-14.314
-72.43,-25.492,5.8751,9.0009,-55.489,-18.091,55.054,69.381,-2.5832,-9.0964,31.9,4.8864,34.426,-12.921,-25.205,-14.314
-72.43,-25.492,5.8751,9.0009,-55.489,-18.091,55.054,69.381,-2.5832,-9.0964,31.9,4.8864,34.426,-12.921,-25.205,-14.314
-72.574,-25.371,6.1081,9.2001,-55.134,-17.757,54.947,69.47,-2.6513,-9.1294,31.521,4.7825,34.344,-12.935,-25.235,-14.318
-72.717,-25.249,6.3424,9.4002,-54.776,-17.421,54.84,69.558,-2.7187,-9.1627,31.14,4.678,34.262,-12.95,-25.265,-14.322
-72.859,-25.126,6.5779,9.6013,-54.417,-17.084,54.732,69.645,-2.7854,-9.1964,30.758,4.5727,34.18,-12.964,-25.295,-14.326
-72.859,-25.126,6.5779,9.6013,-54.417,-17.084,54.732,69.645,-2.7854,-9.1964,30.758,4.5727,34.18,-12.964,-25.295,-14.326
-72.859,-25.126,6.5779,9.6013,-54.417,-17.084,54.732,69.645,-2.7854,-9.1964,30.758,4.5727,34.18,-12.964,-25.295,-14.326
-73,-25.002,6.8147,9.8033,-54.057,-16.747,54.624,69.73,-2.8512,-9.2304,30.374,4.4667,34.098,-12.978,-25.325,-14.33
-73,-25.002,6.8147,9.8033,-54.057,-16.747,54.624,69.73,-2.8512,-9.2304,30.374,4.4667,34.098,-12.978,-25.325,-14.33
-73.139,-24.877,7.0528,10.006,-53.694,-16.408,54.516,69.814,-2.9163,-9.2647,29.988,4.36,34.016,-12.992,-25.355,-14.335
-73.139,-24.877,7.0528,10.006,-53.694,-16.408,54.516,69.814,-2.9163,-9.2647,29.988,4.36,34.016,-12.992,-25.355,-14.335
-73.139,-24.877,7.0528,10.006,-53.694,-16.408,54.516,69.814,-2.9163,-9.2647,29.988,4.36,34.016,-12.992,-25.355,-14.335
-73.277,-24.752,7.292,10.21,-53.33,-16.068,54.407,69.896,-2.9806,-9.2993,29.601,4.2526,33.934,-13.005,-25.385,-14.339
-73.414,-24.625,7.5325,10.415,-52.964,-15.727,54.297,69.978,-3.0441,-9.3343,29.212,4.1445,33.852,-13.019,-25.414,-14.343
-73.414,-24.625,7.5325,10.415,-52.964,-15.727,54.297,69.978,-3.0441,-9.3343,29.212,4.1445,33.852,-13.019,-25.414,-14.343
-73.549,-24.498,7.7742,10.62,-52.596,-15.386,54.187,70.058,-3.1068,-9.3695,28.822,4.0357,33.77,-13.032,-25.443,-14.347
-73.683,-24.37,8.017,10.827,-52.227,-15.043,54.077,70.136,-3.1687,-9.4051,28.429,3.9262,33.688,-13.045,-25.473,-14.352
-73.683,-24.37,8.017,10.827,-52.227,-15.043,54.077,70.136,-3.1687,-9.4051,28.429,3.9262,33.688,-13.045,-25.473,-14.352
-73.683,-24.37,8.017,10.827,-52.227,-15.043,54.077,70.136,-3.1687,-9.4051,28.429,3.9262,33.688,-13.045,-25.473,-14.352
-73.683,-24.37,8.017,10.827,-52.227,-15.043,54.077,70.136,-3.1687,-9.4051,28.429,3.9262,33.688,-13.045,-25.473,-14.352
-73.816,-24.241,8.2611,11.034,-51.856,-14.699,53.966,70.214,-3.2298,-9.4409,28.036,3.8161,33.606,-13.058,-25.502,-14.356
-73.816,-24.241,8.2611,11.034,-51.856,-14.699,53.966,70.214,-3.2298,-9.4409,28.036,3.8161,33.606,-13.058,-25.502,-14.356
-73.948,-24.111,8.5063,11.243,-51.484,-14.354,53.854,70.29,-3.2901,-9.4771,27.641,3.7052,33.524,-13.071,-25.531,-14.36
-74.078,-23.98,8.7526,11.452,-51.109,-14.008,53.742,70.364,-3.3496,-9.5136,27.244,3.5937,33.442,-13.084,-25.559,-14.364
-74.078,-23.98,8.7526,11.452,-51.109,-14.008,53.742,70.364,-3.3496,-9.5136,27.244,3.5937,33.442,-13.084,-25.559,-14.364
-74.206,-23.848,9.0001,11.662,-50.733,-13.661,53.63,70.438,-3.4083,-9.5504,26.846,3.4814,33.36,-13.096,-25.588,-14.368
-74.206,-23.848,9.0001,11.662,-50.733,-13.661,53.63,70.438,-3.4083,-9.5504,26.846,3.4814,33.36,-13.096,-25.588,-14.368
-74.334,-23.715,9.2487,11.873,-50.356,-13.313,53.517,70.51,-3.4662,-9.5874,26.446,3.3685,33.278,-13.109,-25.617,-14.373
-74.334,-23.715,9.2487,11.873,-50.356,-13.313,53.517,70.51,-3.4662,-9.5874,26.446,3.3685,33.278,-13.109,-25.617,-14.373
-74.46,-23.581,9.4985,12.085,-49.977,-12.964,53.404,70.581,-3.5233,-9.6248,26.045,3.2549,33.196,-13.121,-25.645,-14.377
-74.46,-23.581,9.4985,12.085,-49.977,-12.964,53.404,70.581,-3.5233,-9.6248,26.045,3.2549,33.196,-13.121,-25.645,-14.377
-74.46,-23.581,9.4985,12.085,-49.977,-12.964,53.404,70.581,-3.5233,-9.6248,26.045,3.2549,33.196,-13.121,-25.645,-14.377
-74.584,-23.447,9.7493,12.298,-49.596,-12.614,53.29,70.651,-3.5795,-9.6624,25.643,3.1406,33.114,-13.133,-25.673,-14.381
-74.707,-23.311,10.001,12.511,-49.214,-12.264,53.176,70.719,-3.6349,-9.7004,25.239,3.0256,33.031,-13.145,-25.701,-14.385
-74.707,-23.311,10.001,12.511,-49.214,-12.264,53.176,70.719,-3.6349,-9.7004,25.239,3.0256,33.031,-13.145,-25.701,-14.385
-74.829,-23.175,10.254,12.726,-48.83,-11.912,53.062,70.786,-3.6895,-9.7386,24.833,2.91,32.949,-13.157,-25.729,-14.389
-74.829,-23.175,10.254,12.726,-48.83,-11.912,53.062,70.786,-3.6895,-9.7386,24.833,2.91,32.949,-13.157,-25.729,-14.389
-74.949,-23.037,10.508,12.941,-48.444,-11.559,52.947,70.851,-3.7433,-9.7771,24.426,2.7937,32.867,-13.169,-25.756,-14.393
-74.949,-23.037,10.508,12.941,-48.444,-11.559,52.947,70.851,-3.7433,-9.7771,24.426,2.7937,32.867,-13.169,-25.756,-14.393
-75.068,-22.899,10.763,13.158,-48.057,-11.206,52.832,70.916,-3.7963,-9.8159,24.018,2.6767,32.785,-13.18,-25.783,-14.398
-75.068,-22.899,10.763,13.158,-48.057,-11.206,52.832,70.916,-3.7963,-9.8159,24.018,2.6767,32.785,-13.18,-25.783,-14.398
-75.068,-22.899,10.763,13.158,-48.057,-11.206,52.832,70.916,-3.7963,-9.8159,24.018,2.6767,32.785,-13.18,-25.783,-14.398
-75.185,-22.759,11.019,13.375,-47.669,-10.851,52.716,70.979,-3.8484,-9.8549,23.609,2.559,32.702,-13.192,-25.81,-14.402
-75.185,-22.759,11.019,13.375,-47.669,-10.851,52.716,70.979,-3.8484,-9.8549,23.609,2.559,32.702,-13.192,-25.81,-14.402
-75.185,-22.759,11.019,13.375,-47.669,-10.851,52.716,70.979,-3.8484,-9.8549,23.609,2.559,32.702,-13.192,-25.81,-14.402
-75.415,-22.478,11.535,13.811,-46.887,-10.139,52.484,71.101,-3.9501,-9.9338,22.786,2.3217,32.538,-13.214,-25.864,-14.41
-75.415,-22.478,11.535,13.811,-46.887,-10.139,52.484,71.101,-3.9501,-9.9338,22.786,2.3217,32.538,-13.214,-25.864,-14.41
-75.527,-22.335,11.794,14.031,-46.494,-9.7819,52.367,71.16,-3.9997,-9.9737,22.372,2.202,32.455,-13.225,-25.89,-14.414
-75.527,-22.335,11.794,14.031,-46.494,-9.7819,52.367,71.16,-3.9997,-9.9737,22.372,2.202,32.455,-13.225,-25.89,-14.414
-75.638,-22.192,12.054,14.252,-46.099,-9.4237,52.25,71.218,-4.0485,-10.014,21.957,2.0817,32.373,-13.236,-25.917,-14.418
-75.638,-22.192,12.054,14.252,-46.099,-9.4237,52.25,71.218,-4.0485,-10.014,21.957,2.0817,32.373,-13.236,-25.917,-14.418
-75.747,-22.047,12.315,14.473,-45.703,-9.0647,52.132,71.274,-4.0964,-10.054,21.541,1.9608,32.29,-13.247,-25.942,-14.422
-75.855,-21.902,12.577,14.695,-45.305,-8.7048,52.014,71.329,-4.1435,-10.095,21.124,1.8391,32.208,-13.258,-25.968,-14.426
-75.855,-21.902,12.577,14.695,-45.305,-8.7048,52.014,71.329,-4.1435,-10.095,21.124,1.8391,32.208,-13.258,-25.968,-14.426
-75.855,-21.902,12.577,14.695,-45.305,-8.7048,52.014,71.329,-4.1435,-10.095,21.124,1.8391,32.208,-13.258,-25.968,-14.426
-75.855,-21.902,12.577,14.695,-45.305,-8.7048,52.014,71.329,-4.1435,-10.095,21.124,1.8391,32.208,-13.258,-25.968,-14.426
-75.961,-21.755,12.84,14.918,-44.906,-8.344,51.896,71.383,-4.1898,-10.136,20.705,1.7168,32.125,-13.269,-25.994,-14.43
-75.961,-21.755,12.84,14.918,-44.906,-8.344,51.896,71.383,-4.1898,-10.136,20.705,1.7168,32.125,-13.269,-25.994,-14.43
-75.961,-21.755,12.84,14.918,-44.906,-8.344,51.896,71.383,-4.1898,-10.136,20.705,1.7168,32.125,-13.269,-25.994,-14.43
-76.168,-21.459,13.368,15.366,-44.104,-7.62,51.659,71.487,-4.2797,-10.218,19.864,1.4703,31.959,-13.29,-26.044,-14.437
-76.168,-21.459,13.368,15.366,-44.104,-7.62,51.659,71.487,-4.2797,-10.218,19.864,1.4703,31.959,-13.29,-26.044,-14.437
-76.168,-21.459,13.368,15.366,-44.104,-7.62,51.659,71.487,-4.2797,-10.218,19.864,1.4703,31.959,-13.29,-26.044,-14.437
-76.269,-21.31,13.634,15.592,-43.701,-7.2567,51.54,71.537,-4.3234,-10.26,19.442,1.3461,31.877,-13.3,-26.068,-14.441
-76.269,-21.31,13.634,15.592,-43.701,-7.2567,51.54,71.537,-4.3234,-10.26,19.442,1.3461,31.877,-13.3,-26.068,-14.441
-76.369,-21.159,13.9,15.818,-43.296,-6.8926,51.42,71.585,-4.3662,-10.302,19.019,1.2212,31.794,-13.31,-26.093,-14.445
-76.369,-21.159,13.9,15.818,-43.296,-6.8926,51.42,71.585,-4.3662,-10.302,19.019,1.2212,31.794,-13.31,-26.093,-14.445
-76.369,-21.159,13.9,15.818,-43.296,-6.8926,51.42,71.585,-4.3662,-10.302,19.019,1.2212,31.794,-13.31,-26.093,-14.445
-76.562,-20.855,14.435,16.273,-42.482,-6.162,51.18,71.678,-4.4494,-10.386,18.168,0.96946,31.628,-13.331,-26.141,-14.452
-76.562,-20.855,14.435,16.273,-42.482,-6.162,51.18,71.678,-4.4494,-10.386,18.168,0.96946,31.628,-13.331,-26.141,-14.452
-76.656,-20.701,14.704,16.501,-42.074,-5.7955,51.06,71.722,-4.4897,-10.429,17.741,0.84264,31.545,-13.341,-26.164,-14.456
-76.656,-20.701,14.704,16.501,-42.074,-5.7955,51.06,71.722,-4.4897,-10.429,17.741,0.84264,31.545,-13.341,-26.164,-14.456
-76.656,-20.701,14.704,16.501,-42.074,-5.7955,51.06,71.722,-4.4897,-10.429,17.741,0.84264,31.545,-13.341,-26.164,-14.456
-76.749,-20.546,14.974,16.731,-41.663,-5.4283,50.939,71.765,-4.5291,-10.471,17.313,0.71519,31.461,-13.351,-26.187,-14.459
-76.839,-20.39,15.244,16.961,-41.252,-5.0602,50.818,71.807,-4.5677,-10.514,16.884,0.5871,31.378,-13.361,-26.21,-14.463
-76.839,-20.39,15.244,16.961,-41.252,-5.0602,50.818,71.807,-4.5677,-10.514,16.884,0.5871,31.378,-13.361,-26.21,-14.463
-76.928,-20.233,15.516,17.192,-40.839,-4.6915,50.696,71.848,-4.6054,-10.557,16.454,0.45838,31.295,-13.371,-26.233,-14.466
-76.928,-20.233,15.516,17.192,-40.839,-4.6915,50.696,71.848,-4.6054,-10.557,16.454,0.45838,31.295,-13.371,-26.233,-14.466
-77.015,-20.075,15.788,17.423,-40.425,-4.3219,50.575,71.887,-4.6422,-10.601,16.023,0.32903,31.211,-13.38,-26.255,-14.47
-77.015,-20.075,15.788,17.423,-40.425,-4.3219,50.575,71.887,-4.6422,-10.601,16.023,0.32903,31.211,-13.38,-26.255,-14.47
-77.1,-19.915,16.06,17.656,-40.009,-3.9516,50.453,71.924,-4.6782,-10.645,15.591,0.19905,31.128,-13.39,-26.277,-14.473
-77.1,-19.915,16.06,17.656,-40.009,-3.9516,50.453,71.924,-4.6782,-10.645,15.591,0.19905,31.128,-13.39,-26.277,-14.473
-77.183,-19.755,16.334,17.889,-39.593,-3.5806,50.33,71.961,-4.7134,-10.688,15.158,0.068443,31.044,-13.4,-26.299,-14.476
-77.183,-19.755,16.334,17.889,-39.593,-3.5806,50.33,71.961,-4.7134,-10.688,15.158,0.068443,31.044,-13.4,-26.299,-14.476
-77.264,-19.593,16.608,18.122,-39.175,-3.2089,50.208,71.996,-4.7477,-10.732,14.724,-0.062788,30.96,-13.41,-26.32,-14.48
-77.344,-19.431,16.883,18.357,-38.755,-2.8365,50.085,72.03,-4.7811,-10.777,14.289,-0.19464,30.876,-13.419,-26.341,-14.483
-77.344,-19.431,16.883,18.357,-38.755,-2.8365,50.085,72.03,-4.7811,-10.777,14.289,-0.19464,30.876,-13.419,-26.341,-14.483
-77.344,-19.431,16.883,18.357,-38.755,-2.8365,50.085,72.03,-4.7811,-10.777,14.289,-0.19464,30.876,-13.419,-26.341,-14.483
-77.421,-19.267,17.158,18.592,-38.335,-2.4634,49.962,72.062,-4.8136,-10.821,13.852,-0.32711,30.792,-13.429,-26.362,-14.486
-77.421,-19.267,17.158,18.592,-38.335,-2.4634,49.962,72.062,-4.8136,-10.821,13.852,-0.32711,30.792,-13.429,-26.362,-14.486
-77.421,-19.267,17.158,18.592,-38.335,-2.4634,49.962,72.062,-4.8136,-10.821,13.852,-0.32711,30.792,-13.429,-26.362,-14.486
-77.497,-19.102,17.435,18.828,-37.913,-2.0896,49.838,72.093,-4.8453,-10.866,13.415,-0.4602,30.708,-13.438,-26.382,-14.489
-77.497,-19.102,17.435,18.828,-37.913,-2.0896,49.838,72.093,-4.8453,-10.866,13.415,-0.4602,30.708,-13.438,-26.382,-14.489
-77.571,-18.936,17.711,19.065,-37.49,-1.7151,49.715,72.122,-4.8761,-10.911,12.977,-0.59391,30.624,-13.448,-26.402,-14.492
-77.571,-18.936,17.711,19.065,-37.49,-1.7151,49.715,72.122,-4.8761,-10.911,12.977,-0.59391,30.624,-13.448,-26.402,-14.492
-77.571,-18.936,17.711,19.065,-37.49,-1.7151,49.715,72.122,-4.8761,-10.911,12.977,-0.59391,30.624,-13.448,-26.402,-14.492
-77.571,-18.936,17.711,19.065,-37.49,-1.7151,49.715,72.122,-4.8761,-10.911,12.977,-0.59391,30.624,-13.448,-26.402,-14.492
-77.712,-18.6,18.267,19.54,-36.641,-0.96416,49.467,72.177,-4.9352,-11.001,12.099,-0.86315,30.455,-13.467,-26.441,-14.498
-77.712,-18.6,18.267,19.54,-36.641,-0.96416,49.467,72.177,-4.9352,-11.001,12.099,-0.86315,30.455,-13.467,-26.441,-14.498
-77.712,-18.6,18.267,19.54,-36.641,-0.96416,49.467,72.177,-4.9352,-11.001,12.099,-0.86315,30.455,-13.467,-26.441,-14.498
-77.846,-18.26,18.825,20.019,-35.787,-0.21066,49.218,72.227,-4.9908,-11.092,11.217,-1.1348,30.286,-13.486,-26.478,-14.503
-77.846,-18.26,18.825,20.019,-35.787,-0.21066,49.218,72.227,-4.9908,-11.092,11.217,-1.1348,30.286,-13.486,-26.478,-14.503
-77.846,-18.26,18.825,20.019,-35.787,-0.21066,49.218,72.227,-4.9908,-11.092,11.217,-1.1348,30.286,-13.486,-26.478,-14.503
-77.909,-18.088,19.104,20.259,-35.358,0.16702,49.093,72.25,-5.0174,-11.137,10.774,-1.2716,30.201,-13.496,-26.496,-14.506
-77.909,-18.088,19.104,20.259,-35.358,0.16702,49.093,72.25,-5.0174,-11.137,10.774,-1.2716,30.201,-13.496,-26.496,-14.506
-77.971,-17.915,19.385,20.5,-34.928,0.54532,48.968,72.271,-5.043,-11.183,10.331,-1.4089,30.116,-13.505,-26.514,-14.508
-77.971,-17.915,19.385,20.5,-34.928,0.54532,48.968,72.271,-5.043,-11.183,10.331,-1.4089,30.116,-13.505,-26.514,-14.508
-78.088,-17.566,19.947,20.983,-34.065,1.3037,48.717,72.309,-5.0917,-11.276,9.4427,-1.6854,29.946,-13.524,-26.548,-14.513
-78.088,-17.566,19.947,20.983,-34.065,1.3037,48.717,72.309,-5.0917,-11.276,9.4427,-1.6854,29.946,-13.524,-26.548,-14.513
-78.088,-17.566,19.947,20.983,-34.065,1.3037,48.717,72.309,-5.0917,-11.276,9.4427,-1.6854,29.946,-13.524,-26.548,-14.513
-78.144,-17.389,20.228,21.226,-33.631,1.6837,48.591,72.327,-5.1148,-11.322,8.9973,-1.8246,29.861,-13.534,-26.565,-14.515
-78.144,-17.389,20.228,21.226,-33.631,1.6837,48.591,72.327,-5.1148,-11.322,8.9973,-1.8246,29.861,-13.534,-26.565,-14.515
-78.144,-17.389,20.228,21.226,-33.631,1.6837,48.591,72.327,-5.1148,-11.322,8.9973,-1.8246,29.861,-13.534,-26.565,-14.515
-78.197,-17.212,20.511,21.469,-33.197,2.0643,48.465,72.342,-5.137,-11.368,8.5511,-1.9643,29.775,-13.543,-26.581,-14.518
-78.248,-17.033,20.793,21.713,-32.762,2.4455,48.338,72.357,-5.1584,-11.415,8.1042,-2.1046,29.689,-13.553,-26.597,-14.52
-78.248,-17.033,20.793,21.713,-32.762,2.4455,48.338,72.357,-5.1584,-11.415,8.1042,-2.1046,29.689,-13.553,-26.597,-14.52
-78.298,-16.853,21.076,21.957,-32.326,2.8272,48.212,72.37,-5.1789,-11.462,7.6567,-2.2455,29.603,-13.563,-26.612,-14.522
-78.345,-16.671,21.36,22.203,-31.888,3.2094,48.085,72.381,-5.1985,-11.509,7.2084,-2.387,29.517,-13.573,-26.627,-14.524
-78.345,-16.671,21.36,22.203,-31.888,3.2094,48.085,72.381,-5.1985,-11.509,7.2084,-2.387,29.517,-13.573,-26.627,-14.524
-78.345,-16.671,21.36,22.203,-31.888,3.2094,48.085,72.381,-5.1985,-11.509,7.2084,-2.387,29.517,-13.573,-26.627,-14.524
-78.389,-16.489,21.644,22.448,-31.45,3.5922,47.958,72.391,-5.2173,-11.556,6.7595,-2.5291,29.431,-13.582,-26.642,-14.526
-78.389,-16.489,21.644,22.448,-31.45,3.5922,47.958,72.391,-5.2173,-11.556,6.7595,-2.5291,29.431,-13.582,-26.642,-14.526
-78.432,-16.305,21.928,22.695,-31.01,3.9754,47.831,72.4,-5.2352,-11.603,6.3099,-2.6718,29.345,-13.592,-26.656,-14.528
-78.432,-16.305,21.928,22.695,-31.01,3.9754,47.831,72.4,-5.2352,-11.603,6.3099,-2.6718,29.345,-13.592,-26.656,-14.528
-78.432,-16.305,21.928,22.695,-31.01,3.9754,47.831,72.4,-5.2352,-11.603,6.3099,-2.6718,29.345,-13.592,-26.656,-14.528
-78.473,-16.12,22.213,22.942,-30.57,4.3592,47.703,72.408,-5.2523,-11.651,5.8597,-2.815,29.258,-13.602,-26.67,-14.53
-78.473,-16.12,22.213,22.942,-30.57,4.3592,47.703,72.408,-5.2523,-11.651,5.8597,-2.815,29.258,-13.602,-26.67,-14.53
-78.511,-15.934,22.498,23.189,-30.129,4.7434,47.576,72.414,-5.2685,-11.698,5.4089,-2.9588,29.171,-13.612,-26.683,-14.531
-78.511,-15.934,22.498,23.189,-30.129,4.7434,47.576,72.414,-5.2685,-11.698,5.4089,-2.9588,29.171,-13.612,-26.683,-14.531
-78.547,-15.747,22.783,23.437,-29.686,5.1281,47.448,72.418,-5.2839,-11.746,4.9575,-3.1032,29.084,-13.622,-26.696,-14.533
-78.547,-15.747,22.783,23.437,-29.686,5.1281,47.448,72.418,-5.2839,-11.746,4.9575,-3.1032,29.084,-13.622,-26.696,-14.533
-78.547,-15.747,22.783,23.437,-29.686,5.1281,47.448,72.418,-5.2839,-11.746,4.9575,-3.1032,29.084,-13.622,-26.696,-14.533
-78.612,-15.368,23.355,23.935,-28.799,5.8988,47.191,72.423,-5.3121,-11.842,4.0531,-3.3937,28.91,-13.643,-26.72,-14.536
-78.612,-15.368,23.355,23.935,-28.799,5.8988,47.191,72.423,-5.3121,-11.842,4.0531,-3.3937,28.91,-13.643,-26.72,-14.536
-78.642,-15.177,23.641,24.184,-28.354,6.2849,47.063,72.423,-5.3249,-11.89,3.6,-3.5398,28.822,-13.653,-26.732,-14.537
-78.642,-15.177,23.641,24.184,-28.354,6.2849,47.063,72.423,-5.3249,-11.89,3.6,-3.5398,28.822,-13.653,-26.732,-14.537
-78.642,-15.177,23.641,24.184,-28.354,6.2849,47.063,72.423,-5.3249,-11.89,3.6,-3.5398,28.822,-13.653,-26.732,-14.537
-78.669,-14.985,23.927,24.435,-27.908,6.6713,46.934,72.422,-5.3369,-11.938,3.1465,-3.6864,28.735,-13.663,-26.743,-14.538
-78.669,-14.985,23.927,24.435,-27.908,6.6713,46.934,72.422,-5.3369,-11.938,3.1465,-3.6864,28.735,-13.663,-26.743,-14.538
-78.669,-14.985,23.927,24.435,-27.908,6.6713,46.934,72.422,-5.3369,-11.938,3.1465,-3.6864,28.735,-13.663,-26.743,-14.538
-78.716,-14.597,24.501,24.936,-27.014,7.4454,46.676,72.416,-5.3584,-12.035,2.238,-3.9814,28.558,-13.685,-26.764,-14.541
-78.716,-14.597,24.501,24.936,-27.014,7.4454,46.676,72.416,-5.3584,-12.035,2.238,-3.9814,28.558,-13.685,-26.764,-14.541
-78.716,-14.597,24.501,24.936,-27.014,7.4454,46.676,72.416,-5.3584,-12.035,2.238,-3.9814,28.558,-13.685,-26.764,-14.541
-78.736,-14.401,24.788,25.188,-26.565,7.8331,46.547,72.41,-5.3678,-12.083,1.783,-4.1298,28.47,-13.695,-26.774,-14.542
-78.736,-14.401,24.788,25.188,-26.565,7.8331,46.547,72.41,-5.3678,-12.083,1.783,-4.1298,28.47,-13.695,-26.774,-14.542
-78.754,-14.204,25.075,25.44,-26.116,8.2211,46.418,72.404,-5.3764,-12.132,1.3276,-4.2787,28.381,-13.706,-26.783,-14.543
-78.754,-14.204,25.075,25.44,-26.116,8.2211,46.418,72.404,-5.3764,-12.132,1.3276,-4.2787,28.381,-13.706,-26.783,-14.543
-78.754,-14.204,25.075,25.44,-26.116,8.2211,46.418,72.404,-5.3764,-12.132,1.3276,-4.2787,28.381,-13.706,-26.783,-14.543
-78.783,-13.806,25.65,25.946,-25.215,8.9982,46.158,72.386,-5.3912,-12.229,0.41561,-4.5781,28.203,-13.728,-26.8,-14.544
-78.783,-13.806,25.65,25.946,-25.215,8.9982,46.158,72.386,-5.3912,-12.229,0.41561,-4.5781,28.203,-13.728,-26.8,-14.544
-78.783,-13.806,25.65,25.946,-25.215,8.9982,46.158,72.386,-5.3912,-12.229,0.41561,-4.5781,28.203,-13.728,-26.8,-14.544
-78.794,-13.605,25.938,26.199,-24.763,9.3872,46.028,72.375,-5.3973,-12.278,-0.040965,-4.7286,28.114,-13.74,-26.808,-14.545
-78.794,-13.605,25.938,26.199,-24.763,9.3872,46.028,72.375,-5.3973,-12.278,-0.040965,-4.7286,28.114,-13.74,-26.808,-14.545
-78.802,-13.403,26.226,26.453,-24.311,9.7766,45.898,72.362,-5.4026,-12.327,-0.4979,-4.8797,28.024,-13.751,-26.816,-14.545
-78.802,-13.403,26.226,26.453,-24.311,9.7766,45.898,72.362,-5.4026,-12.327,-0.4979,-4.8797,28.024,-13.751,-26.816,-14.545
-78.808,-13.199,26.513,26.708,-23.858,10.166,45.768,72.348,-5.407,-12.376,-0.95518,-5.0313,27.934,-13.763,-26.823,-14.546
-78.808,-13.199,26.513,26.708,-23.858,10.166,45.768,72.348,-5.407,-12.376,-0.95518,-5.0313,27.934,-13.763,-26.823,-14.546
-78.808,-13.199,26.513,26.708,-23.858,10.166,45.768,72.348,-5.407,-12.376,-0.95518,-5.0313,27.934,-13.763,-26.823,-14.546
-78.813,-12.789,27.089,27.218,-22.949,10.946,45.507,72.316,-5.4134,-12.474,-1.8707,-5.3362,27.754,-13.787,-26.835,-14.546
-78.813,-12.789,27.089,27.218,-22.949,10.946,45.507,72.316,-5.4134,-12.474,-1.8707,-5.3362,27.754,-13.787,-26.835,-14.546
-78.812,-12.582,27.377,27.473,-22.494,11.337,45.376,72.298,-5.4154,-12.524,-2.3288,-5.4894,27.663,-13.799,-26.841,-14.546
-78.812,-12.582,27.377,27.473,-22.494,11.337,45.376,72.298,-5.4154,-12.524,-2.3288,-5.4894,27.663,-13.799,-26.841,-14.546
-78.812,-12.582,27.377,27.473,-22.494,11.337,45.376,72.298,-5.4154,-12.524,-2.3288,-5.4894,27.663,-13.799,-26.841,-14.546
-78.808,-12.373,27.665,27.729,-22.038,11.728,45.245,72.278,-5.4166,-12.573,-2.7873,-5.6432,27.572,-13.811,-26.846,-14.547
-78.802,-12.164,27.954,27.986,-21.582,12.119,45.114,72.257,-5.417,-12.622,-3.246,-5.7975,27.481,-13.823,-26.85,-14.546
-78.802,-12.164,27.954,27.986,-21.582,12.119,45.114,72.257,-5.417,-12.622,-3.246,-5.7975,27.481,-13.823,-26.85,-14.546
-78.794,-11.953,28.242,28.243,-21.124,12.51,44.982,72.234,-5.4165,-12.672,-3.7049,-5.9523,27.389,-13.836,-26.854,-14.546
-78.794,-11.953,28.242,28.243,-21.124,12.51,44.982,72.234,-5.4165,-12.672,-3.7049,-5.9523,27.389,-13.836,-26.854,-14.546
-78.794,-11.953,28.242,28.243,-21.124,12.51,44.982,72.234,-5.4165,-12.672,-3.7049,-5.9523,27.389,-13.836,-26.854,-14.546
-78.783,-11.741,28.53,28.5,-20.667,12.902,44.851,72.21,-5.4152,-12.721,-4.164,-6.1076,27.298,-13.849,-26.858,-14.546
-78.769,-11.527,28.818,28.757,-20.208,13.293,44.719,72.184,-5.4132,-12.771,-4.6233,-6.2635,27.206,-13.862,-26.861,-14.546
-78.769,-11.527,28.818,28.757,-20.208,13.293,44.719,72.184,-5.4132,-12.771,-4.6233,-6.2635,27.206,-13.862,-26.861,-14.546
-78.753,-11.313,29.105,29.015,-19.749,13.685,44.587,72.157,-5.4103,-12.821,-5.0827,-6.4198,27.113,-13.875,-26.863,-14.545
-78.753,-11.313,29.105,29.015,-19.749,13.685,44.587,72.157,-5.4103,-12.821,-5.0827,-6.4198,27.113,-13.875,-26.863,-14.545
-78.735,-11.097,29.393,29.273,-19.29,14.077,44.455,72.129,-5.4066,-12.87,-5.5423,-6.5767,27.021,-13.889,-26.866,-14.545
-78.735,-11.097,29.393,29.273,-19.29,14.077,44.455,72.129,-5.4066,-12.87,-5.5423,-6.5767,27.021,-13.889,-26.866,-14.545
-78.735,-11.097,29.393,29.273,-19.29,14.077,44.455,72.129,-5.4066,-12.87,-5.5423,-6.5767,27.021,-13.889,-26.866,-14.545
-78.714,-10.879,29.681,29.532,-18.829,14.469,44.323,72.099,-5.4021,-12.92,-6.002,-6.7341,26.928,-13.903,-26.867,-14.544
-78.714,-10.879,29.681,29.532,-18.829,14.469,44.323,72.099,-5.4021,-12.92,-6.002,-6.7341,26.928,-13.903,-26.867,-14.544
-78.714,-10.879,29.681,29.532,-18.829,14.469,44.323,72.099,-5.4021,-12.92,-6.002,-6.7341,26.928,-13.903,-26.867,-14.544
-78.664,-10.441,30.256,30.049,-17.907,15.254,44.059,72.035,-5.3908,-13.02,-6.9218,-7.0505,26.741,-13.931,-26.869,-14.543
-78.664,-10.441,30.256,30.049,-17.907,15.254,44.059,72.035,-5.3908,-13.02,-6.9218,-7.0505,26.741,-13.931,-26.869,-14.543
-78.636,-10.221,30.543,30.309,-17.446,15.647,43.926,72.001,-5.384,-13.07,-7.3818,-7.2094,26.647,-13.945,-26.869,-14.542
-78.636,-10.221,30.543,30.309,-17.446,15.647,43.926,72.001,-5.384,-13.07,-7.3818,-7.2094,26.647,-13.945,-26.869,-14.542
-78.636,-10.221,30.543,30.309,-17.446,15.647,43.926,72.001,-5.384,-13.07,-7.3818,-7.2094,26.647,-13.945,-26.869,-14.542
-78.605,-9.9984,30.83,30.568,-16.984,16.039,43.793,71.965,-5.3763,-13.12,-7.8418,-7.3688,26.552,-13.96,-26.868,-14.541
-78.571,-9.7751,31.117,30.828,-16.521,16.432,43.661,71.928,-5.3679,-13.17,-8.3019,-7.5287,26.458,-13.975,-26.867,-14.54
-78.571,-9.7751,31.117,30.828,-16.521,16.432,43.661,71.928,-5.3679,-13.17,-8.3019,-7.5287,26.458,-13.975,-26.867,-14.54
-78.535,-9.5504,31.404,31.088,-16.058,16.825,43.528,71.889,-5.3587,-13.22,-8.7619,-7.6891,26.363,-13.99,-26.866,-14.538
-78.535,-9.5504,31.404,31.088,-16.058,16.825,43.528,71.889,-5.3587,-13.22,-8.7619,-7.6891,26.363,-13.99,-26.866,-14.538
-78.496,-9.3246,31.69,31.349,-15.594,17.218,43.394,71.849,-5.3488,-13.27,-9.222,-7.8501,26.267,-14.005,-26.864,-14.537
-78.496,-9.3246,31.69,31.349,-15.594,17.218,43.394,71.849,-5.3488,-13.27,-9.222,-7.8501,26.267,-14.005,-26.864,-14.537
-78.455,-9.0975,31.976,31.609,-15.13,17.611,43.261,71.808,-5.3381,-13.32,-9.682,-8.0115,26.172,-14.021,-26.861,-14.536
-78.455,-9.0975,31.976,31.609,-15.13,17.611,43.261,71.808,-5.3381,-13.32,-9.682,-8.0115,26.172,-14.021,-26.861,-14.536
-78.411,-8.8691,32.262,31.87,-14.666,18.004,43.128,71.765,-5.3266,-13.37,-10.142,-8.1733,26.076,-14.037,-26.858,-14.534
-78.411,-8.8691,32.262,31.87,-14.666,18.004,43.128,71.765,-5.3266,-13.37,-10.142,-8.1733,26.076,-14.037,-26.858,-14.534
-78.364,-8.6396,32.548,32.131,-14.201,18.397,42.994,71.72,-5.3143,-13.42,-10.602,-8.3357,25.979,-14.053,-26.855,-14.532
-78.364,-8.6396,32.548,32.131,-14.201,18.397,42.994,71.72,-5.3143,-13.42,-10.602,-8.3357,25.979,-14.053,-26.855,-14.532
-78.315,-8.4087,32.833,32.392,-13.736,18.79,42.861,71.674,-5.3013,-13.471,-11.062,-8.4985,25.883,-14.07,-26.85,-14.531
-78.315,-8.4087,32.833,32.392,-13.736,18.79,42.861,71.674,-5.3013,-13.471,-11.062,-8.4985,25.883,-14.07,-26.85,-14.531
-78.315,-8.4087,32.833,32.392,-13.736,18.79,42.861,71.674,-5.3013,-13.471,-11.062,-8.4985,25.883,-14.07,-26.85,-14.531
-78.263,-8.1767,33.118,32.653,-13.271,19.183,42.727,71.627,-5.2875,-13.521,-11.521,-8.6619,25.786,-14.087,-26.846,-14.529
-78.263,-8.1767,33.118,32.653,-13.271,19.183,42.727,71.627,-5.2875,-13.521,-11.521,-8.6619,25.786,-14.087,-26.846,-14.529
-78.209,-7.9434,33.403,32.915,-12.805,19.576,42.593,71.578,-5.273,-13.571,-11.981,-8.8257,25.688,-14.104,-26.841,-14.527
-78.209,-7.9434,33.403,32.915,-12.805,19.576,42.593,71.578,-5.273,-13.571,-11.981,-8.8257,25.688,-14.104,-26.841,-14.527
-78.209,-7.9434,33.403,32.915,-12.805,19.576,42.593,71.578,-5.273,-13.571,-11.981,-8.8257,25.688,-14.104,-26.841,-14.527
-78.092,-7.4732,33.971,33.438,-11.873,20.362,42.325,71.476,-5.2418,-13.672,-12.9,-9.1547,25.492,-14.139,-26.829,-14.523
-78.092,-7.4732,33.971,33.438,-11.873,20.362,42.325,71.476,-5.2418,-13.672,-12.9,-9.1547,25.492,-14.139,-26.829,-14.523
-78.092,-7.4732,33.971,33.438,-11.873,20.362,42.325,71.476,-5.2418,-13.672,-12.9,-9.1547,25.492,-14.139,-26.829,-14.523
-78.03,-7.2363,34.255,33.7,-11.406,20.755,42.191,71.423,-5.225,-13.722,-13.359,-9.3199,25.393,-14.157,-26.822,-14.52
-78.03,-7.2363,34.255,33.7,-11.406,20.755,42.191,71.423,-5.225,-13.722,-13.359,-9.3199,25.393,-14.157,-26.822,-14.52
-78.03,-7.2363,34.255,33.7,-11.406,20.755,42.191,71.423,-5.225,-13.722,-13.359,-9.3199,25.393,-14.157,-26.822,-14.52
-77.897,-6.7588,34.82,34.225,-10.472,21.541,41.922,71.312,-5.1894,-13.822,-14.276,-9.6517,25.195,-14.194,-26.807,-14.516
-77.897,-6.7588,34.82,34.225,-10.472,21.541,41.922,71.312,-5.1894,-13.822,-14.276,-9.6517,25.195,-14.194,-26.807,-14.516
-77.897,-6.7588,34.82,34.225,-10.472,21.541,41.922,71.312,-5.1894,-13.822,-14.276,-9.6517,25.195,-14.194,-26.807,-14.516
-77.827,-6.5182,35.103,34.487,-10.005,21.934,41.788,71.254,-5.1705,-13.873,-14.735,-9.8182,25.095,-14.213,-26.798,-14.513
-77.827,-6.5182,35.103,34.487,-10.005,21.934,41.788,71.254,-5.1705,-13.873,-14.735,-9.8182,25.095,-14.213,-26.798,-14.513
-77.754,-6.2765,35.385,34.749,-9.5373,22.326,41.653,71.195,-5.1508,-13.923,-15.193,-9.9853,24.995,-14.233,-26.789,-14.51
-77.754,-6.2765,35.385,34.749,-9.5373,22.326,41.653,71.195,-5.1508,-13.923,-15.193,-9.9853,24.995,-14.233,-26.789,-14.51
-77.601,-5.7893,35.947,35.274,-8.6019,23.111,41.384,71.073,-5.1094,-14.024,-16.108,-10.321,24.793,-14.273,-26.77,-14.505
-77.601,-5.7893,35.947,35.274,-8.6019,23.111,41.384,71.073,-5.1094,-14.024,-16.108,-10.321,24.793,-14.273,-26.77,-14.505
-77.601,-5.7893,35.947,35.274,-8.6019,23.111,41.384,71.073,-5.1094,-14.024,-16.108,-10.321,24.793,-14.273,-26.77,-14.505
-77.52,-5.544,36.227,35.537,-8.134,23.503,41.249,71.01,-5.0877,-14.074,-16.566,-10.489,24.691,-14.293,-26.759,-14.502
-77.52,-5.544,36.227,35.537,-8.134,23.503,41.249,71.01,-5.0877,-14.074,-16.566,-10.489,24.691,-14.293,-26.759,-14.502
-77.436,-5.2975,36.507,35.799,-7.666,23.895,41.114,70.945,-5.0652,-14.124,-17.023,-10.658,24.589,-14.314,-26.748,-14.499
-77.436,-5.2975,36.507,35.799,-7.666,23.895,41.114,70.945,-5.0652,-14.124,-17.023,-10.658,24.589,-14.314,-26.748,-14.499
-77.35,-5.0498,36.786,36.062,-7.1979,24.286,40.979,70.879,-5.0421,-14.174,-17.479,-10.827,24.487,-14.335,-26.737,-14.496
-77.35,-5.0498,36.786,36.062,-7.1979,24.286,40.979,70.879,-5.0421,-14.174,-17.479,-10.827,24.487,-14.335,-26.737,-14.496
-77.261,-4.8009,37.065,36.324,-6.7297,24.678,40.843,70.811,-5.0183,-14.225,-17.935,-10.997,24.384,-14.356,-26.725,-14.492
-77.261,-4.8009,37.065,36.324,-6.7297,24.678,40.843,70.811,-5.0183,-14.225,-17.935,-10.997,24.384,-14.356,-26.725,-14.492
-77.169,-4.5508,37.343,36.587,-6.2615,25.069,40.708,70.742,-4.9937,-14.275,-18.391,-11.167,24.281,-14.378,-26.712,-14.489
-77.169,-4.5508,37.343,36.587,-6.2615,25.069,40.708,70.742,-4.9937,-14.275,-18.391,-11.167,24.281,-14.378,-26.712,-14.489
-77.075,-4.2996,37.62,36.849,-5.7932,25.46,40.573,70.671,-4.9685,-14.325,-18.846,-11.337,24.177,-14.4,-26.699,-14.486
-77.075,-4.2996,37.62,36.849,-5.7932,25.46,40.573,70.671,-4.9685,-14.325,-18.846,-11.337,24.177,-14.4,-26.699,-14.486
-77.075,-4.2996,37.62,36.849,-5.7932,25.46,40.573,70.671,-4.9685,-14.325,-18.846,-11.337,24.177,-14.4,-26.699,-14.486
-76.978,-4.0472,37.897,37.112,-5.325,25.851,40.437,70.599,-4.9427,-14.375,-19.301,-11.508,24.073,-14.423,-26.685,-14.482
-76.978,-4.0472,37.897,37.112,-5.325,25.851,40.437,70.599,-4.9427,-14.375,-19.301,-11.508,24.073,-14.423,-26.685,-14.482
-76.978,-4.0472,37.897,37.112,-5.325,25.851,40.437,70.599,-4.9427,-14.375,-19.301,-11.508,24.073,-14.423,-26.685,-14.482
-76.775,-3.539,38.449,37.637,-4.3885,26.631,40.166,70.451,-4.8889,-14.476,-20.21,-11.851,23.863,-14.47,-26.656,-14.475
-76.775,-3.539,38.449,37.637,-4.3885,26.631,40.166,70.451,-4.8889,-14.476,-20.21,-11.851,23.863,-14.47,-26.656,-14.475
-76.67,-3.2832,38.724,37.899,-3.9204,27.021,40.031,70.374,-4.8611,-14.526,-20.663,-12.024,23.757,-14.493,-26.64,-14.471
-76.67,-3.2832,38.724,37.899,-3.9204,27.021,40.031,70.374,-4.8611,-14.526,-20.663,-12.024,23.757,-14.493,-26.64,-14.471
-76.67,-3.2832,38.724,37.899,-3.9204,27.021,40.031,70.374,-4.8611,-14.526,-20.663,-12.024,23.757,-14.493,-26.64,-14.471
-76.562,-3.0262,38.998,38.161,-3.4523,27.411,39.895,70.296,-4.8326,-14.576,-21.116,-12.196,23.651,-14.518,-26.624,-14.467
-76.562,-3.0262,38.998,38.161,-3.4523,27.411,39.895,70.296,-4.8326,-14.576,-21.116,-12.196,23.651,-14.518,-26.624,-14.467
-76.562,-3.0262,38.998,38.161,-3.4523,27.411,39.895,70.296,-4.8326,-14.576,-21.116,-12.196,23.651,-14.518,-26.624,-14.467
-76.338,-2.509,39.544,38.686,-2.5164,28.189,39.623,70.137,-4.7737,-14.676,-22.02,-12.543,23.438,-14.567,-26.591,-14.459
-76.338,-2.509,39.544,38.686,-2.5164,28.189,39.623,70.137,-4.7737,-14.676,-22.02,-12.543,23.438,-14.567,-26.591,-14.459
-76.338,-2.509,39.544,38.686,-2.5164,28.189,39.623,70.137,-4.7737,-14.676,-22.02,-12.543,23.438,-14.567,-26.591,-14.459
-76.222,-2.2487,39.816,38.948,-2.0486,28.577,39.487,70.055,-4.7432,-14.726,-22.471,-12.716,23.33,-14.593,-26.573,-14.455
-76.222,-2.2487,39.816,38.948,-2.0486,28.577,39.487,70.055,-4.7432,-14.726,-22.471,-12.716,23.33,-14.593,-26.573,-14.455
-76.222,-2.2487,39.816,38.948,-2.0486,28.577,39.487,70.055,-4.7432,-14.726,-22.471,-12.716,23.33,-14.593,-26.573,-14.455
-75.982,-1.7248,40.358,39.471,-1.1136,29.353,39.215,69.886,-4.6805,-14.826,-23.372,-13.065,23.113,-14.645,-26.536,-14.446
-75.982,-1.7248,40.358,39.471,-1.1136,29.353,39.215,69.886,-4.6805,-14.826,-23.372,-13.065,23.113,-14.645,-26.536,-14.446
-75.857,-1.4612,40.627,39.732,-0.64638,29.74,39.079,69.8,-4.6482,-14.875,-23.822,-13.24,23.004,-14.671,-26.517,-14.441
-75.857,-1.4612,40.627,39.732,-0.64638,29.74,39.079,69.8,-4.6482,-14.875,-23.822,-13.24,23.004,-14.671,-26.517,-14.441
-75.857,-1.4612,40.627,39.732,-0.64638,29.74,39.079,69.8,-4.6482,-14.875,-23.822,-13.24,23.004,-14.671,-26.517,-14.441
-75.73,-1.1965,40.896,39.994,-0.17938,30.127,38.943,69.712,-4.6153,-14.925,-24.27,-13.415,22.895,-14.699,-26.497,-14.437
-75.73,-1.1965,40.896,39.994,-0.17938,30.127,38.943,69.712,-4.6153,-14.925,-24.27,-13.415,22.895,-14.699,-26.497,-14.437
-75.468,-0.66393,41.431,40.516,0.75387,30.899,38.671,69.532,-4.5478,-15.025,-25.166,-13.767,22.674,-14.754,-26.456,-14.427
-75.468,-0.66393,41.431,40.516,0.75387,30.899,38.671,69.532,-4.5478,-15.025,-25.166,-13.767,22.674,-14.754,-26.456,-14.427
-75.468,-0.66393,41.431,40.516,0.75387,30.899,38.671,69.532,-4.5478,-15.025,-25.166,-13.767,22.674,-14.754,-26.456,-14.427
-75.333,-0.39607,41.698,40.776,1.2201,31.284,38.534,69.44,-4.5131,-15.074,-25.612,-13.944,22.563,-14.783,-26.435,-14.422
-75.333,-0.39607,41.698,40.776,1.2201,31.284,38.534,69.44,-4.5131,-15.074,-25.612,-13.944,22.563,-14.783,-26.435,-14.422
-75.333,-0.39607,41.698,40.776,1.2201,31.284,38.534,69.44,-4.5131,-15.074,-25.612,-13.944,22.563,-14.783,-26.435,-14.422
-75.195,-0.12715,41.963,41.037,1.686,31.669,38.398,69.347,-4.4778,-15.124,-26.058,-14.12,22.451,-14.812,-26.413,-14.417
-75.055,0.14281,42.228,41.297,2.1516,32.054,38.262,69.252,-4.442,-15.174,-26.503,-14.298,22.339,-14.841,-26.39,-14.412
-75.055,0.14281,42.228,41.297,2.1516,32.054,38.262,69.252,-4.442,-15.174,-26.503,-14.298,22.339,-14.841,-26.39,-14.412
-74.912,0.41379,42.491,41.557,2.6168,32.437,38.125,69.156,-4.4056,-15.223,-26.948,-14.475,22.226,-14.871,-26.367,-14.407
-74.912,0.41379,42.491,41.557,2.6168,32.437,38.125,69.156,-4.4056,-15.223,-26.948,-14.475,22.226,-14.871,-26.367,-14.407
-74.766,0.68579,42.754,41.816,3.0816,32.821,37.989,69.059,-4.3686,-15.273,-27.391,-14.653,22.113,-14.901,-26.344,-14.402
-74.766,0.68579,42.754,41.816,3.0816,32.821,37.989,69.059,-4.3686,-15.273,-27.391,-14.653,22.113,-14.901,-26.344,-14.402
-74.617,0.95881,43.016,42.076,3.5461,33.203,37.852,68.96,-4.331,-15.322,-27.834,-14.831,21.999,-14.932,-26.319,-14.396
-74.617,0.95881,43.016,42.076,3.5461,33.203,37.852,68.96,-4.331,-15.322,-27.834,-14.831,21.999,-14.932,-26.319,-14.396
-74.465,1.2328,43.277,42.335,4.0102,33.586,37.716,68.86,-4.293,-15.371,-28.276,-15.01,21.884,-14.963,-26.295,-14.391
-74.465,1.2328,43.277,42.335,4.0102,33.586,37.716,68.86,-4.293,-15.371,-28.276,-15.01,21.884,-14.963,-26.295,-14.391
-74.311,1.5078,43.536,42.594,4.4738,33.967,37.579,68.758,-4.2543,-15.421,-28.717,-15.189,21.769,-14.995,-26.27,-14.385
-74.311,1.5078,43.536,42.594,4.4738,33.967,37.579,68.758,-4.2543,-15.421,-28.717,-15.189,21.769,-14.995,-26.27,-14.385
-74.154,1.7838,43.795,42.852,4.9369,34.348,37.443,68.655,-4.2152,-15.47,-29.158,-15.368,21.654,-15.027,-26.244,-14.379
-74.154,1.7838,43.795,42.852,4.9369,34.348,37.443,68.655,-4.2152,-15.47,-29.158,-15.368,21.654,-15.027,-26.244,-14.379
-73.995,2.0608,44.053,43.11,5.3996,34.728,37.306,68.55,-4.1755,-15.519,-29.597,-15.548,21.538,-15.059,-26.217,-14.374
-73.995,2.0608,44.053,43.11,5.3996,34.728,37.306,68.55,-4.1755,-15.519,-29.597,-15.548,21.538,-15.059,-26.217,-14.374
-73.995,2.0608,44.053,43.11,5.3996,34.728,37.306,68.55,-4.1755,-15.519,-29.597,-15.548,21.538,-15.059,-26.217,-14.374
-73.833,2.3387,44.31,43.368,5.8617,35.108,37.17,68.445,-4.1352,-15.568,-30.035,-15.727,21.421,-15.092,-26.191,-14.368
-73.833,2.3387,44.31,43.368,5.8617,35.108,37.17,68.445,-4.1352,-15.568,-30.035,-15.727,21.421,-15.092,-26.191,-14.368
-73.668,2.6176,44.566,43.625,6.3233,35.487,37.033,68.338,-4.0945,-15.617,-30.473,-15.908,21.304,-15.126,-26.163,-14.362
-73.668,2.6176,44.566,43.625,6.3233,35.487,37.033,68.338,-4.0945,-15.617,-30.473,-15.908,21.304,-15.126,-26.163,-14.362
-73.5,2.8974,44.82,43.882,6.7844,35.865,36.896,68.229,-4.0532,-15.666,-30.91,-16.088,21.186,-15.16,-26.135,-14.356
-73.5,2.8974,44.82,43.882,6.7844,35.865,36.896,68.229,-4.0532,-15.666,-30.91,-16.088,21.186,-15.16,-26.135,-14.356
-73.33,3.1781,45.074,44.138,7.2449,36.242,36.76,68.119,-4.0115,-15.715,-31.345,-16.269,21.068,-15.195,-26.107,-14.35
-73.33,3.1781,45.074,44.138,7.2449,36.242,36.76,68.119,-4.0115,-15.715,-31.345,-16.269,21.068,-15.195,-26.107,-14.35
-73.33,3.1781,45.074,44.138,7.2449,36.242,36.76,68.119,-4.0115,-15.715,-31.345,-16.269,21.068,-15.195,-26.107,-14.35
-72.981,3.7423,45.578,44.65,8.164,36.995,36.486,67.896,-3.9265,-15.813,-32.213,-16.632,20.829,-15.265,-26.048,-14.337
-72.981,3.7423,45.578,44.65,8.164,36.995,36.486,67.896,-3.9265,-15.813,-32.213,-16.632,20.829,-15.265,-26.048,-14.337
