1.3018,1.356,-4.1477,-4.3652,0.0505,-0.9516,1.4906,0.3362,-1.1313,-1.6059,-3.4364,-1.631,-1.2231,-0.4068,1.8526,0.1352
1.2641,1.3445,-4.1714,-4.382,0.0889,-0.9709,1.503,0.3428,-1.2279,-1.5642,-3.4606,-1.635,-1.2296,-0.434,1.8445,0.147
1.2641,1.3445,-4.1714,-4.382,0.0889,-0.9709,1.503,0.3428,-1.2279,-1.5642,-3.4606,-1.635,-1.2296,-0.434,1.8445,0.147
1.2641,1.3445,-4.1714,-4.382,0.0889,-0.9709,1.503,0.3428,-1.2279,-1.5642,-3.4606,-1.635,-1.2296,-0.434,1.8445,0.147
1.2045,1.3209,-4.1957,-4.4058,0.0828,-0.9861,1.5064,0.3526,-1.3514,-1.5804,-3.4857,-1.6478,-1.2588,-0.474,1.8013,0.1652
1.2045,1.3209,-4.1957,-4.4058,0.0828,-0.9861,1.5064,0.3526,-1.3514,-1.5804,-3.4857,-1.6478,-1.2588,-0.474,1.8013,0.1652
1.2045,1.3209,-4.1957,-4.4058,0.0828,-0.9861,1.5064,0.3526,-1.3514,-1.5804,-3.4857,-1.6478,-1.2588,-0.474,1.8013,0.1652
1.2045,1.3209,-4.1957,-4.4058,0.0828,-0.9861,1.5064,0.3526,-1.3514,-1.5804,-3.4857,-1.6478,-1.2588,-0.474,1.8013,0.1652
1.136,1.2564,-4.2558,-4.4399,-0.0375,-0.9205,1.5111,0.3751,-1.5161,-1.6997,-3.4974,-1.687,-1.3278,-0.5289,1.6884,0.1962
1.136,1.2564,-4.2558,-4.4399,-0.0375,-0.9205,1.5111,0.3751,-1.5161,-1.6997,-3.4974,-1.687,-1.3278,-0.5289,1.6884,0.1962
1.136,1.2564,-4.2558,-4.4399,-0.0375,-0.9205,1.5111,0.3751,-1.5161,-1.6997,-3.4974,-1.687,-1.3278,-0.5289,1.6884,0.1962
1.0599,1.2148,-4.3145,-4.4601,-0.0982,-0.9164,1.5655,0.3802,-1.5488,-1.7613,-3.5634,-1.6652,-1.3784,-0.5194,1.6443,0.1941
1.0599,1.2148,-4.3145,-4.4601,-0.0982,-0.9164,1.5655,0.3802,-1.5488,-1.7613,-3.5634,-1.6652,-1.3784,-0.5194,1.6443,0.1941
0.9835,1.2174,-4.3393,-4.4709,-0.1098,-0.9354,1.5895,0.385,-1.5479,-1.7762,-3.594,-1.656,-1.3701,-0.5223,1.6484,0.1809
0.9835,1.2174,-4.3393,-4.4709,-0.1098,-0.9354,1.5895,0.385,-1.5479,-1.7762,-3.594,-1.656,-1.3701,-0.5223,1.6484,0.1809
0.8958,1.2046,-4.3626,-4.4875,-0.1273,-0.9695,1.5918,0.4063,-1.5536,-1.7815,-3.6154,-1.6531,-1.2998,-0.5513,1.6605,0.1707
0.8958,1.2046,-4.3626,-4.4875,-0.1273,-0.9695,1.5918,0.4063,-1.5536,-1.7815,-3.6154,-1.6531,-1.2998,-0.5513,1.6605,0.1707
0.8958,1.2046,-4.3626,-4.4875,-0.1273,-0.9695,1.5918,0.4063,-1.5536,-1.7815,-3.6154,-1.6531,-1.2998,-0.5513,1.6605,0.1707
0.8114,1.1667,-4.3756,-4.5112,-0.1777,-1.0033,1.5945,0.432,-1.5776,-1.7876,-3.6289,-1.6545,-1.2293,-0.5804,1.6819,0.169
0.7372,1.1256,-4.3777,-4.5352,-0.2381,-1.0106,1.6124,0.4456,-1.6015,-1.7937,-3.6261,-1.6586,-1.2035,-0.5812,1.7099,0.1798
0.7372,1.1256,-4.3777,-4.5352,-0.2381,-1.0106,1.6124,0.4456,-1.6015,-1.7937,-3.6261,-1.6586,-1.2035,-0.5812,1.7099,0.1798
0.7372,1.1256,-4.3777,-4.5352,-0.2381,-1.0106,1.6124,0.4456,-1.6015,-1.7937,-3.6261,-1.6586,-1.2035,-0.5812,1.7099,0.1798
0.7091,1.0925,-4.3753,-4.5501,-0.26,-1.0142,1.647,0.4602,-1.6005,-1.8085,-3.6119,-1.6651,-1.2211,-0.5375,1.7527,0.1912
0.7091,1.0925,-4.3753,-4.5501,-0.26,-1.0142,1.647,0.4602,-1.6005,-1.8085,-3.6119,-1.6651,-1.2211,-0.5375,1.7527,0.1912
0.7091,1.0925,-4.3753,-4.5501,-0.26,-1.0142,1.647,0.4602,-1.6005,-1.8085,-3.6119,-1.6651,-1.2211,-0.5375,1.7527,0.1912
0.7371,1.0206,-4.3875,-4.544,-0.2492,-1.0181,1.748,0.4736,-1.4079,-1.8693,-3.5627,-1.6732,-1.2845,-0.4188,1.8687,0.1858
0.7371,1.0206,-4.3875,-4.544,-0.2492,-1.0181,1.748,0.4736,-1.4079,-1.8693,-3.5627,-1.6732,-1.2845,-0.4188,1.8687,0.1858
0.7371,1.0206,-4.3875,-4.544,-0.2492,-1.0181,1.748,0.4736,-1.4079,-1.8693,-3.5627,-1.6732,-1.2845,-0.4188,1.8687,0.1858
0.7371,1.0206,-4.3875,-4.544,-0.2492,-1.0181,1.748,0.4736,-1.4079,-1.8693,-3.5627,-1.6732,-1.2845,-0.4188,1.8687,0.1858
0.7449,0.9989,-4.3924,-4.537,-0.2328,-1.0181,1.8008,0.4774,-1.3277,-1.8759,-3.5388,-1.6693,-1.2748,-0.4054,1.9352,0.1712
0.7449,0.9989,-4.3924,-4.537,-0.2328,-1.0181,1.8008,0.4774,-1.3277,-1.8759,-3.5388,-1.6693,-1.2748,-0.4054,1.9352,0.1712
0.6844,0.9918,-4.394,-4.5347,-0.1245,-1.0564,1.8574,0.4911,-1.3024,-1.7752,-3.493,-1.6654,-1.2535,-0.4087,2.0702,0.1175
0.6844,0.9918,-4.394,-4.5347,-0.1245,-1.0564,1.8574,0.4911,-1.3024,-1.7752,-3.493,-1.6654,-1.2535,-0.4087,2.0702,0.1175
0.6844,0.9918,-4.394,-4.5347,-0.1245,-1.0564,1.8574,0.4911,-1.3024,-1.7752,-3.493,-1.6654,-1.2535,-0.4087,2.0702,0.1175
0.6442,0.9871,-4.3886,-4.5348,-0.0919,-1.0679,1.863,0.4981,-1.3244,-1.716,-3.4747,-1.6672,-1.2296,-0.434,2.0497,0.1248
0.6276,0.9694,-4.3728,-4.5422,-0.0968,-1.0491,1.8604,0.4968,-1.3379,-1.6964,-3.4504,-1.6742,-1.2103,-0.4618,1.9883,0.1465
0.6276,0.9694,-4.3728,-4.5422,-0.0968,-1.0491,1.8604,0.4968,-1.3379,-1.6964,-3.4504,-1.6742,-1.2103,-0.4618,1.9883,0.1465
0.6276,0.9694,-4.3728,-4.5422,-0.0968,-1.0491,1.8604,0.4968,-1.3379,-1.6964,-3.4504,-1.6742,-1.2103,-0.4618,1.9883,0.1465
0.6684,0.9314,-4.3644,-4.5504,-0.129,-1.0262,1.8574,0.4911,-1.2941,-1.7045,-3.4235,-1.6884,-1.1904,-0.4814,1.9298,0.1494
0.6684,0.9314,-4.3644,-4.5504,-0.129,-1.0262,1.8574,0.4911,-1.2941,-1.7045,-3.4235,-1.6884,-1.1904,-0.4814,1.9298,0.1494
0.7091,0.8935,-4.3593,-4.554,-0.156,-1.011,1.8543,0.4854,-1.2569,-1.7029,-3.4217,-1.6875,-1.1781,-0.49,1.8769,0.1444
0.7091,0.8935,-4.3593,-4.554,-0.156,-1.011,1.8543,0.4854,-1.2569,-1.7029,-3.4217,-1.6875,-1.1781,-0.49,1.8769,0.1444
0.6933,0.885,-4.3631,-4.5562,-0.1833,-1.0071,1.8672,0.4719,-1.2324,-1.6968,-3.4335,-1.674,-1.1774,-0.4818,1.827,0.1354
0.6933,0.885,-4.3631,-4.5562,-0.1833,-1.0071,1.8672,0.4719,-1.2324,-1.6968,-3.4335,-1.674,-1.1774,-0.4818,1.827,0.1354
0.5729,0.9652,-4.3637,-4.563,-0.2322,-0.9955,1.8924,0.4607,-1.2428,-1.6262,-3.4642,-1.6507,-1.1883,-0.457,1.7814,0.0986
0.5729,0.9652,-4.3637,-4.563,-0.2322,-0.9955,1.8924,0.4607,-1.2428,-1.6262,-3.4642,-1.6507,-1.1883,-0.457,1.7814,0.0986
0.5729,0.9652,-4.3637,-4.563,-0.2322,-0.9955,1.8924,0.4607,-1.2428,-1.6262,-3.4642,-1.6507,-1.1883,-0.457,1.7814,0.0986
0.5054,0.9796,-4.3681,-4.572,-0.2331,-1.0294,1.876,0.4643,-1.225,-1.6101,-3.4739,-1.6473,-1.1578,-0.4552,1.7841,0.0801
0.5054,0.9796,-4.3681,-4.572,-0.2331,-1.0294,1.876,0.4643,-1.225,-1.6101,-3.4739,-1.6473,-1.1578,-0.4552,1.7841,0.0801
0.5054,0.9796,-4.3681,-4.572,-0.2331,-1.0294,1.876,0.4643,-1.225,-1.6101,-3.4739,-1.6473,-1.1578,-0.4552,1.7841,0.0801
0.4253,0.9609,-4.3642,-4.5892,-0.2616,-1.0706,1.8407,0.47,-1.2073,-1.594,-3.4711,-1.6514,-1.0942,-0.4734,1.7855,0.0708
0.4253,0.9609,-4.3642,-4.5892,-0.2616,-1.0706,1.8407,0.47,-1.2073,-1.594,-3.4711,-1.6514,-1.0942,-0.4734,1.7855,0.0708
0.3646,0.9357,-4.3549,-4.6065,-0.2952,-1.104,1.8096,0.4698,-1.1936,-1.6138,-3.4708,-1.6624,-1.078,-0.4876,1.7734,0.0663
0.3646,0.9357,-4.3549,-4.6065,-0.2952,-1.104,1.8096,0.4698,-1.1936,-1.6138,-3.4708,-1.6624,-1.078,-0.4876,1.7734,0.0663
0.316,0.8831,-4.3667,-4.597,-0.3063,-1.1114,1.7709,0.4655,-1.1474,-1.6525,-3.4881,-1.6795,-1.148,-0.4418,1.7506,0.0772
0.316,0.8831,-4.3667,-4.597,-0.3063,-1.1114,1.7709,0.4655,-1.1474,-1.6525,-3.4881,-1.6795,-1.148,-0.4418,1.7506,0.0772
0.328,0.8557,-4.3851,-4.5783,-0.306,-1.1002,1.7628,0.4572,-1.0884,-1.6957,-3.5067,-1.6807,-1.1901,-0.4269,1.7452,0.085
0.328,0.8557,-4.3851,-4.5783,-0.306,-1.1002,1.7628,0.4572,-1.0884,-1.6957,-3.5067,-1.6807,-1.1901,-0.4269,1.7452,0.085
0.328,0.8557,-4.3851,-4.5783,-0.306,-1.1002,1.7628,0.4572,-1.0884,-1.6957,-3.5067,-1.6807,-1.1901,-0.4269,1.7452,0.085
0.3262,0.8378,-4.3989,-4.5699,-0.2841,-1.0966,1.7589,0.4429,-1.0944,-1.701,-3.5225,-1.6859,-1.2328,-0.4202,1.7627,0.0818
0.3262,0.8378,-4.3989,-4.5699,-0.2841,-1.0966,1.7589,0.4429,-1.0944,-1.701,-3.5225,-1.6859,-1.2328,-0.4202,1.7627,0.0818
0.3262,0.8378,-4.3989,-4.5699,-0.2841,-1.0966,1.7589,0.4429,-1.0944,-1.701,-3.5225,-1.6859,-1.2328,-0.4202,1.7627,0.0818
0.3254,0.8289,-4.413,-4.5649,-0.2085,-1.112,1.7575,0.43,-1.1602,-1.648,-3.5364,-1.6902,-1.238,-0.431,1.7855,0.0708
0.3254,0.8289,-4.413,-4.5649,-0.2085,-1.112,1.7575,0.43,-1.1602,-1.648,-3.5364,-1.6902,-1.238,-0.431,1.7855,0.0708
0.3101,0.8204,-4.4296,-4.5678,-0.1601,-1.1348,1.7373,0.4193,-1.2378,-1.6056,-3.5536,-1.6934,-1.2477,-0.4444,1.7721,0.0755
0.3101,0.8204,-4.4296,-4.5678,-0.1601,-1.1348,1.7373,0.4193,-1.2378,-1.6056,-3.5536,-1.6934,-1.2477,-0.4444,1.7721,0.0755
0.2702,0.8069,-4.4384,-4.5857,-0.2129,-1.0821,1.6954,0.4052,-1.4069,-1.6794,-3.59,-1.7175,-1.3418,-0.4907,1.6278,0.109
0.2702,0.8069,-4.4384,-4.5857,-0.2129,-1.0821,1.6954,0.4052,-1.4069,-1.6794,-3.59,-1.7175,-1.3418,-0.4907,1.6278,0.109
0.2702,0.8069,-4.4384,-4.5857,-0.2129,-1.0821,1.6954,0.4052,-1.4069,-1.6794,-3.59,-1.7175,-1.3418,-0.4907,1.6278,0.109
0.288,0.7914,-4.4393,-4.5959,-0.2871,-1.0104,1.6687,0.3991,-1.4785,-1.713,-3.5901,-1.7313,-1.3847,-0.4922,1.5734,0.1077
0.288,0.7914,-4.4393,-4.5959,-0.2871,-1.0104,1.6687,0.3991,-1.4785,-1.713,-3.5901,-1.7313,-1.3847,-0.4922,1.5734,0.1077
0.288,0.7914,-4.4393,-4.5959,-0.2871,-1.0104,1.6687,0.3991,-1.4785,-1.713,-3.5901,-1.7313,-1.3847,-0.4922,1.5734,0.1077
0.3201,0.7755,-4.4434,-4.6015,-0.3404,-0.9687,1.6466,0.3914,-1.495,-1.7438,-3.599,-1.7358,-1.414,-0.486,1.5324,0.1018
0.3201,0.7755,-4.4434,-4.6015,-0.3404,-0.9687,1.6466,0.3914,-1.495,-1.7438,-3.599,-1.7358,-1.414,-0.486,1.5324,0.1018
0.3201,0.7755,-4.4434,-4.6015,-0.3404,-0.9687,1.6466,0.3914,-1.495,-1.7438,-3.599,-1.7358,-1.414,-0.486,1.5324,0.1018
0.3201,0.7755,-4.4434,-4.6015,-0.3404,-0.9687,1.6466,0.3914,-1.495,-1.7438,-3.599,-1.7358,-1.414,-0.486,1.5324,0.1018
0.2913,0.7765,-4.4549,-4.6079,-0.3998,-0.9648,1.652,0.3541,-1.4247,-1.7906,-3.6393,-1.7124,-1.4217,-0.4749,1.4998,0.0697
0.2913,0.7765,-4.4549,-4.6079,-0.3998,-0.9648,1.652,0.3541,-1.4247,-1.7906,-3.6393,-1.7124,-1.4217,-0.4749,1.4998,0.0697
0.2913,0.7765,-4.4549,-4.6079,-0.3998,-0.9648,1.652,0.3541,-1.4247,-1.7906,-3.6393,-1.7124,-1.4217,-0.4749,1.4998,0.0697
0.2913,0.7765,-4.4549,-4.6079,-0.3998,-0.9648,1.652,0.3541,-1.4247,-1.7906,-3.6393,-1.7124,-1.4217,-0.4749,1.4998,0.0697
0.1647,0.858,-4.4711,-4.6074,-0.4061,-1.0025,1.6199,0.3411,-1.3637,-1.7829,-3.6775,-1.6989,-1.3955,-0.4675,1.4462,0.0394
0.1647,0.858,-4.4711,-4.6074,-0.4061,-1.0025,1.6199,0.3411,-1.3637,-1.7829,-3.6775,-1.6989,-1.3955,-0.4675,1.4462,0.0394
0.1647,0.858,-4.4711,-4.6074,-0.4061,-1.0025,1.6199,0.3411,-1.3637,-1.7829,-3.6775,-1.6989,-1.3955,-0.4675,1.4462,0.0394
0.1075,0.8598,-4.4698,-4.6131,-0.4121,-1.0287,1.5657,0.3603,-1.3722,-1.7432,-3.6991,-1.6989,-1.354,-0.4822,1.3979,0.0305
0.0491,0.8437,-4.4656,-4.6268,-0.4346,-1.0661,1.5127,0.368,-1.3731,-1.7282,-3.7115,-1.7053,-1.3296,-0.4991,1.3485,0.0162
0.0491,0.8437,-4.4656,-4.6268,-0.4346,-1.0661,1.5127,0.368,-1.3731,-1.7282,-3.7115,-1.7053,-1.3296,-0.4991,1.3485,0.0162
0.0491,0.8437,-4.4656,-4.6268,-0.4346,-1.0661,1.5127,0.368,-1.3731,-1.7282,-3.7115,-1.7053,-1.3296,-0.4991,1.3485,0.0162
0.0184,0.8179,-4.4669,-4.6211,-0.44,-1.0698,1.4947,0.3743,-1.2484,-1.7428,-3.7055,-1.7242,-1.3987,-0.4539,1.2466,-0.028
0.0184,0.8179,-4.4669,-4.6211,-0.44,-1.0698,1.4947,0.3743,-1.2484,-1.7428,-3.7055,-1.7242,-1.3987,-0.4539,1.2466,-0.028
0.0092,0.8212,-4.4752,-4.613,-0.4236,-1.0586,1.5247,0.3704,-1.1474,-1.7637,-3.6921,-1.7229,-1.423,-0.4369,1.2456,-0.0619
0.0092,0.8212,-4.4752,-4.613,-0.4236,-1.0586,1.5247,0.3704,-1.1474,-1.7637,-3.6921,-1.7229,-1.423,-0.4369,1.2456,-0.0619
0.0092,0.8212,-4.4752,-4.613,-0.4236,-1.0586,1.5247,0.3704,-1.1474,-1.7637,-3.6921,-1.7229,-1.423,-0.4369,1.2456,-0.0619
0.0008,0.8333,-4.4749,-4.6096,-0.3858,-1.055,1.5661,0.3645,-1.1184,-1.7222,-3.6744,-1.7138,-1.4307,-0.4258,1.2924,-0.1012
0.0008,0.8333,-4.4749,-4.6096,-0.3858,-1.055,1.5661,0.3645,-1.1184,-1.7222,-3.6744,-1.7138,-1.4307,-0.4258,1.2924,-0.1012
0.0008,0.8333,-4.4749,-4.6096,-0.3858,-1.055,1.5661,0.3645,-1.1184,-1.7222,-3.6744,-1.7138,-1.4307,-0.4258,1.2924,-0.1012
0.0299,0.8413,-4.4641,-4.6099,-0.1638,-1.0824,1.6419,0.3488,-1.2052,-1.5272,-3.6176,-1.6985,-1.3706,-0.422,1.3652,-0.1638
0.0299,0.8413,-4.4641,-4.6099,-0.1638,-1.0824,1.6419,0.3488,-1.2052,-1.5272,-3.6176,-1.6985,-1.3706,-0.422,1.3652,-0.1638
0.0299,0.8413,-4.4641,-4.6099,-0.1638,-1.0824,1.6419,0.3488,-1.2052,-1.5272,-3.6176,-1.6985,-1.3706,-0.422,1.3652,-0.1638
0.0299,0.8413,-4.4519,-4.6159,-0.0983,-1.0941,1.6571,0.3368,-1.227,-1.4819,-3.5856,-1.696,-1.3077,-0.44,1.3613,-0.1794
0.0299,0.8413,-4.4519,-4.6159,-0.0983,-1.0941,1.6571,0.3368,-1.227,-1.4819,-3.5856,-1.696,-1.3077,-0.44,1.3613,-0.1794
0.0299,0.8413,-4.4519,-4.6159,-0.0983,-1.0941,1.6571,0.3368,-1.227,-1.4819,-3.5856,-1.696,-1.3077,-0.44,1.3613,-0.1794
0.0299,0.8413,-4.4519,-4.6159,-0.0983,-1.0941,1.6571,0.3368,-1.227,-1.4819,-3.5856,-1.696,-1.3077,-0.44,1.3613,-0.1794
0.015,0.8329,-4.4296,-4.6291,-0.1241,-1.0451,1.6337,0.2966,-1.2584,-1.5759,-3.494,-1.7129,-1.2306,-0.4966,1.2363,-0.2029
0.015,0.8329,-4.4296,-4.6291,-0.1241,-1.0451,1.6337,0.2966,-1.2584,-1.5759,-3.494,-1.7129,-1.2306,-0.4966,1.2363,-0.2029
0.015,0.8329,-4.4296,-4.6291,-0.1241,-1.0451,1.6337,0.2966,-1.2584,-1.5759,-3.494,-1.7129,-1.2306,-0.4966,1.2363,-0.2029
0.0383,0.8292,-4.4165,-4.625,-0.1659,-0.9731,1.6123,0.2735,-1.2565,-1.6065,-3.446,-1.7191,-1.2002,-0.4947,1.1813,-0.2424
0.0383,0.8292,-4.4165,-4.625,-0.1659,-0.9731,1.6123,0.2735,-1.2565,-1.6065,-3.446,-1.7191,-1.2002,-0.4947,1.1813,-0.2424
0.1765,0.8308,-4.3766,-4.6058,-0.1858,-0.897,1.576,0.2229,-1.1492,-1.622,-3.3955,-1.6936,-1.1395,-0.4448,1.1204,-0.3212
0.1765,0.8308,-4.3766,-4.6058,-0.1858,-0.897,1.576,0.2229,-1.1492,-1.622,-3.3955,-1.6936,-1.1395,-0.4448,1.1204,-0.3212
0.2034,0.8627,-4.3562,-4.6008,-0.1637,-0.8932,1.5756,0.1795,-1.0927,-1.6195,-3.3963,-1.6608,-1.1114,-0.421,1.0913,-0.369
0.2034,0.8627,-4.3562,-4.6008,-0.1637,-0.8932,1.5756,0.1795,-1.0927,-1.6195,-3.3963,-1.6608,-1.1114,-0.421,1.0913,-0.369
0.204,0.9226,-4.3427,-4.5932,-0.1144,-0.9049,1.5681,0.1367,-1.036,-1.6171,-3.3961,-1.6329,-1.0747,-0.4001,1.0711,-0.4225
0.1722,0.999,-4.3296,-4.5891,-0.076,-0.9127,1.5334,0.0993,-1.0249,-1.591,-3.3942,-1.6179,-1.0255,-0.3878,1.0332,-0.4775
0.1722,0.999,-4.3296,-4.5891,-0.076,-0.9127,1.5334,0.0993,-1.0249,-1.591,-3.3942,-1.6179,-1.0255,-0.3878,1.0332,-0.4775
0.1722,0.999,-4.3296,-4.5891,-0.076,-0.9127,1.5334,0.0993,-1.0249,-1.591,-3.3942,-1.6179,-1.0255,-0.3878,1.0332,-0.4775
0.1522,1.0481,-4.3238,-4.5859,-0.0431,-0.9243,1.4706,0.0785,-1.0266,-1.5602,-3.3959,-1.6048,-0.9201,-0.391,0.984,-0.5364
0.1522,1.0481,-4.3238,-4.5859,-0.0431,-0.9243,1.4706,0.0785,-1.0266,-1.5602,-3.3959,-1.6048,-0.9201,-0.391,0.984,-0.5364
0.107,1.0828,-4.3186,-4.5895,-0.0491,-0.9395,1.3836,0.0642,-1.0534,-1.5356,-3.4035,-1.5975,-0.789,-0.4117,0.9065,-0.5873
0.107,1.0828,-4.3186,-4.5895,-0.0491,-0.9395,1.3836,0.0642,-1.0534,-1.5356,-3.4035,-1.5975,-0.789,-0.4117,0.9065,-0.5873
0.0312,1.0908,-4.3048,-4.5979,-0.0714,-0.9432,1.2893,0.0421,-1.1051,-1.5174,-3.4128,-1.5911,-0.6993,-0.4092,0.8035,-0.6342
0.0312,1.0908,-4.3048,-4.5979,-0.0714,-0.9432,1.2893,0.0421,-1.1051,-1.5174,-3.4128,-1.5911,-0.6993,-0.4092,0.8035,-0.6342
-0.0472,1.1232,-4.2777,-4.6022,-0.0597,-0.9242,1.2045,0.0169,-1.1558,-1.5146,-3.4157,-1.5869,-0.6519,-0.383,0.7099,-0.6731
-0.0472,1.1232,-4.2777,-4.6022,-0.0597,-0.9242,1.2045,0.0169,-1.1558,-1.5146,-3.4157,-1.5869,-0.6519,-0.383,0.7099,-0.6731
-0.0472,1.1232,-4.2777,-4.6022,-0.0597,-0.9242,1.2045,0.0169,-1.1558,-1.5146,-3.4157,-1.5869,-0.6519,-0.383,0.7099,-0.6731
-0.1051,1.1765,-4.24,-4.5909,0.0085,-0.8671,1.1472,-0.0094,-1.2131,-1.5018,-3.4167,-1.5819,-0.6575,-0.2991,0.628,-0.7078
-0.1051,1.1765,-4.24,-4.5909,0.0085,-0.8671,1.1472,-0.0094,-1.2131,-1.5018,-3.4167,-1.5819,-0.6575,-0.2991,0.628,-0.7078
-0.1304,1.2231,-4.2138,-4.5666,0.128,-0.7981,1.1012,-0.0373,-1.2447,-1.4982,-3.4113,-1.5791,-0.6659,-0.1918,0.56,-0.7418
-0.1304,1.2231,-4.2138,-4.5666,0.128,-0.7981,1.1012,-0.0373,-1.2447,-1.4982,-3.4113,-1.5791,-0.6659,-0.1918,0.56,-0.7418
-0.1559,1.2698,-4.1938,-4.5294,0.2599,-0.7325,1.0759,-0.0619,-1.219,-1.5073,-3.4041,-1.5754,-0.6579,-0.0981,0.496,-0.7742
-0.1559,1.2698,-4.1938,-4.5294,0.2599,-0.7325,1.0759,-0.0619,-1.219,-1.5073,-3.4041,-1.5754,-0.6579,-0.0981,0.496,-0.7742
-0.1559,1.2698,-4.1938,-4.5294,0.2599,-0.7325,1.0759,-0.0619,-1.219,-1.5073,-3.4041,-1.5754,-0.6579,-0.0981,0.496,-0.7742
-0.3009,1.3684,-4.1487,-4.4617,0.5281,-0.5995,1.0535,-0.1,-1.2131,-1.5018,-3.3809,-1.5664,-0.5541,0.0025,0.4597,-0.8527
-0.3009,1.3684,-4.1487,-4.4617,0.5281,-0.5995,1.0535,-0.1,-1.2131,-1.5018,-3.3809,-1.5664,-0.5541,0.0025,0.4597,-0.8527
-0.415,1.4229,-4.126,-4.4358,0.7105,-0.5605,1.0507,-0.1053,-1.2874,-1.4227,-3.3635,-1.5631,-0.4834,0.0267,0.4704,-0.8876
-0.5339,1.4649,-4.1094,-4.4165,0.8654,-0.5294,1.044,-0.105,-1.342,-1.3579,-3.3497,-1.5617,-0.413,0.0422,0.4524,-0.8942
-0.5339,1.4649,-4.1094,-4.4165,0.8654,-0.5294,1.044,-0.105,-1.342,-1.3579,-3.3497,-1.5617,-0.413,0.0422,0.4524,-0.8942
-0.5339,1.4649,-4.1094,-4.4165,0.8654,-0.5294,1.044,-0.105,-1.342,-1.3579,-3.3497,-1.5617,-0.413,0.0422,0.4524,-0.8942
-0.6347,1.4816,-4.0917,-4.4066,0.9388,-0.4813,1.0373,-0.1047,-1.3932,-1.3398,-3.3367,-1.5663,-0.3666,0.0438,0.4034,-0.882
-0.6347,1.4816,-4.0917,-4.4066,0.9388,-0.4813,1.0373,-0.1047,-1.3932,-1.3398,-3.3367,-1.5663,-0.3666,0.0438,0.4034,-0.882
-0.6988,1.4853,-4.075,-4.4071,0.9421,-0.383,1.0326,-0.1072,-1.4419,-1.353,-3.3146,-1.5804,-0.3535,0.0346,0.3403,-0.8753
-0.6988,1.4853,-4.075,-4.4071,0.9421,-0.383,1.0326,-0.1072,-1.4419,-1.353,-3.3146,-1.5804,-0.3535,0.0346,0.3403,-0.8753
-0.6988,1.4853,-4.075,-4.4071,0.9421,-0.383,1.0326,-0.1072,-1.4419,-1.353,-3.3146,-1.5804,-0.3535,0.0346,0.3403,-0.8753
-0.6904,1.4634,-4.0694,-4.4073,0.9379,-0.3251,1.0321,-0.1112,-1.4419,-1.353,-3.2932,-1.5864,-0.3291,0.0485,0.2952,-0.8748
-0.6904,1.4634,-4.0694,-4.4073,0.9379,-0.3251,1.0321,-0.1112,-1.4419,-1.353,-3.2932,-1.5864,-0.3291,0.0485,0.2952,-0.8748
-0.6904,1.4634,-4.0694,-4.4073,0.9379,-0.3251,1.0321,-0.1112,-1.4419,-1.353,-3.2932,-1.5864,-0.3291,0.0485,0.2952,-0.8748
-0.6904,1.4634,-4.0694,-4.4073,0.9379,-0.3251,1.0321,-0.1112,-1.4419,-1.353,-3.2932,-1.5864,-0.3291,0.0485,0.2952,-0.8748
-0.7353,1.4887,-4.0786,-4.4058,0.9151,-0.2794,1.0718,-0.1356,-1.3944,-1.3242,-3.2897,-1.5593,-0.2885,0.0883,0.2561,-0.8893
-0.7353,1.4887,-4.0786,-4.4058,0.9151,-0.2794,1.0718,-0.1356,-1.3944,-1.3242,-3.2897,-1.5593,-0.2885,0.0883,0.2561,-0.8893
-0.7353,1.4887,-4.0786,-4.4058,0.9151,-0.2794,1.0718,-0.1356,-1.3944,-1.3242,-3.2897,-1.5593,-0.2885,0.0883,0.2561,-0.8893
-0.7835,1.5484,-4.0878,-4.4044,0.9213,-0.2752,1.0885,-0.1457,-1.3852,-1.2817,-3.2966,-1.5459,-0.2772,0.1115,0.2526,-0.9035
-0.7835,1.5484,-4.0878,-4.4044,0.9213,-0.2752,1.0885,-0.1457,-1.3852,-1.2817,-3.2966,-1.5459,-0.2772,0.1115,0.2526,-0.9035
-0.7835,1.5484,-4.0878,-4.4044,0.9213,-0.2752,1.0885,-0.1457,-1.3852,-1.2817,-3.2966,-1.5459,-0.2772,0.1115,0.2526,-0.9035
-0.8768,1.6242,-4.0888,-4.4148,0.9812,-0.2838,1.0522,-0.1308,-1.3971,-1.2085,-3.2874,-1.5413,-0.1512,0.1581,0.2396,-0.9297
-0.8768,1.6242,-4.0888,-4.4148,0.9812,-0.2838,1.0522,-0.1308,-1.3971,-1.2085,-3.2874,-1.5413,-0.1512,0.1581,0.2396,-0.9297
-0.8768,1.6242,-4.0888,-4.4148,0.9812,-0.2838,1.0522,-0.1308,-1.3971,-1.2085,-3.2874,-1.5413,-0.1512,0.1581,0.2396,-0.9297
-0.9588,1.6055,-4.0578,-4.4437,1.0171,-0.2965,0.9518,-0.112,-1.4901,-1.2141,-3.2568,-1.5426,-0.0066,0.2404,0.1772,-0.9486
-0.9588,1.6055,-4.0578,-4.4437,1.0171,-0.2965,0.9518,-0.112,-1.4901,-1.2141,-3.2568,-1.5426,-0.0066,0.2404,0.1772,-0.9486
-0.9679,1.5993,-4.0575,-4.4402,1.0422,-0.2674,0.9272,-0.1137,-1.5456,-1.2174,-3.2359,-1.5405,0.0389,0.3265,0.1362,-0.9596
-0.9679,1.5993,-4.0575,-4.4402,1.0422,-0.2674,0.9272,-0.1137,-1.5456,-1.2174,-3.2359,-1.5405,0.0389,0.3265,0.1362,-0.9596
-0.959,1.5961,-4.0631,-4.4203,1.0917,-0.2342,0.9248,-0.1149,-1.5315,-1.2376,-3.2139,-1.5294,0.0952,0.4286,0.0988,-0.9693
-0.959,1.5961,-4.0631,-4.4203,1.0917,-0.2342,0.9248,-0.1149,-1.5315,-1.2376,-3.2139,-1.5294,0.0952,0.4286,0.0988,-0.9693
-0.959,1.5961,-4.0631,-4.4203,1.0917,-0.2342,0.9248,-0.1149,-1.5315,-1.2376,-3.2139,-1.5294,0.0952,0.4286,0.0988,-0.9693
-0.9546,1.5899,-4.0738,-4.3932,1.1536,-0.2051,0.9381,-0.1154,-1.5175,-1.2579,-3.1863,-1.5154,0.1735,0.5004,0.0778,-0.9772
-0.9546,1.5899,-4.0738,-4.3932,1.1536,-0.2051,0.9381,-0.1154,-1.5175,-1.2579,-3.1863,-1.5154,0.1735,0.5004,0.0778,-0.9772
-0.9546,1.5899,-4.0738,-4.3932,1.1536,-0.2051,0.9381,-0.1154,-1.5175,-1.2579,-3.1863,-1.5154,0.1735,0.5004,0.0778,-0.9772
-1.09,1.5621,-4.0586,-4.348,1.3787,-0.1045,1.0293,-0.1165,-1.6149,-1.2006,-3.1084,-1.4874,0.413,0.6124,0.1642,-1.0128
-1.09,1.5621,-4.0586,-4.348,1.3787,-0.1045,1.0293,-0.1165,-1.6149,-1.2006,-3.1084,-1.4874,0.413,0.6124,0.1642,-1.0128
-1.2768,1.5436,-4.0234,-4.3314,1.6193,-0.046,1.0966,-0.1152,-1.7528,-1.0982,-3.0621,-1.4783,0.5667,0.665,0.2357,-1.033
-1.2768,1.5436,-4.0234,-4.3314,1.6193,-0.046,1.0966,-0.1152,-1.7528,-1.0982,-3.0621,-1.4783,0.5667,0.665,0.2357,-1.033
-1.5265,1.5063,-3.9901,-4.316,1.8833,-0.0006,1.1493,-0.1067,-1.9339,-0.9881,-3.0066,-1.4675,0.7543,0.7363,0.2804,-1.0335
-1.5265,1.5063,-3.9901,-4.316,1.8833,-0.0006,1.1493,-0.1067,-1.9339,-0.9881,-3.0066,-1.4675,0.7543,0.7363,0.2804,-1.0335
-1.7547,1.4627,-3.9551,-4.3029,2.1204,0.0627,1.2032,-0.0902,-2.127,-0.9276,-2.948,-1.461,0.9394,0.805,0.2994,-1.0224
-1.7547,1.4627,-3.9551,-4.3029,2.1204,0.0627,1.2032,-0.0902,-2.127,-0.9276,-2.948,-1.461,0.9394,0.805,0.2994,-1.0224
-1.7547,1.4627,-3.9551,-4.3029,2.1204,0.0627,1.2032,-0.0902,-2.127,-0.9276,-2.948,-1.461,0.9394,0.805,0.2994,-1.0224
-1.9413,1.4193,-3.9219,-4.2909,2.2501,0.159,1.2467,-0.0677,-2.3027,-0.9576,-2.8837,-1.4661,1.0538,0.87,0.283,-0.9988
-1.9413,1.4193,-3.9219,-4.2909,2.2501,0.159,1.2467,-0.0677,-2.3027,-0.9576,-2.8837,-1.4661,1.0538,0.87,0.283,-0.9988
-1.9413,1.4193,-3.9219,-4.2909,2.2501,0.159,1.2467,-0.0677,-2.3027,-0.9576,-2.8837,-1.4661,1.0538,0.87,0.283,-0.9988
-2.1089,1.3343,-3.8566,-4.2811,2.3256,0.3801,1.3371,-0.0363,-2.542,-1.0775,-2.7614,-1.4772,1.2012,1.001,0.2748,-0.9806
-2.1089,1.3343,-3.8566,-4.2811,2.3256,0.3801,1.3371,-0.0363,-2.542,-1.0775,-2.7614,-1.4772,1.2012,1.001,0.2748,-0.9806
-2.1214,1.3164,-3.8352,-4.2758,2.3339,0.426,1.3952,-0.0293,-2.5353,-1.1397,-2.7252,-1.4594,1.264,1.0559,0.3103,-0.9803
-2.1214,1.3164,-3.8352,-4.2758,2.3339,0.426,1.3952,-0.0293,-2.5353,-1.1397,-2.7252,-1.4594,1.264,1.0559,0.3103,-0.9803
-2.113,1.3313,-3.8178,-4.2728,2.3275,0.4353,1.4595,-0.0308,-2.4942,-1.199,-2.7096,-1.4374,1.3206,1.0979,0.3636,-0.9863
-2.113,1.3313,-3.8178,-4.2728,2.3275,0.4353,1.4595,-0.0308,-2.4942,-1.199,-2.7096,-1.4374,1.3206,1.0979,0.3636,-0.9863
-2.0837,1.3793,-3.8101,-4.2719,2.3133,0.4124,1.5057,-0.0301,-2.4511,-1.2216,-2.7002,-1.4213,1.3655,1.1237,0.3992,-0.9861
-2.0837,1.3793,-3.8101,-4.2719,2.3133,0.4124,1.5057,-0.0301,-2.4511,-1.2216,-2.7002,-1.4213,1.3655,1.1237,0.3992,-0.9861
-2.0126,1.4218,-3.805,-4.2792,2.278,0.3622,1.5166,-0.0169,-2.4233,-1.2091,-2.6936,-1.4123,1.4458,1.1213,0.4291,-0.9838
-2.0126,1.4218,-3.805,-4.2792,2.278,0.3622,1.5166,-0.0169,-2.4233,-1.2091,-2.6936,-1.4123,1.4458,1.1213,0.4291,-0.9838
-1.9286,1.4375,-3.8027,-4.2946,2.2083,0.2764,1.4975,-0.0038,-2.4143,-1.1825,-2.6951,-1.4101,1.5256,1.1088,0.4375,-0.9766
-1.9286,1.4375,-3.8027,-4.2946,2.2083,0.2764,1.4975,-0.0038,-2.4143,-1.1825,-2.6951,-1.4101,1.5256,1.1088,0.4375,-0.9766
-1.8102,1.4412,-3.7932,-4.3163,2.1259,0.1961,1.4685,0.0044,-2.4054,-1.1557,-2.6941,-1.4154,1.5619,1.0908,0.4339,-0.9779
-1.8102,1.4412,-3.7932,-4.3163,2.1259,0.1961,1.4685,0.0044,-2.4054,-1.1557,-2.6941,-1.4154,1.5619,1.0908,0.4339,-0.9779
-1.8102,1.4412,-3.7932,-4.3163,2.1259,0.1961,1.4685,0.0044,-2.4054,-1.1557,-2.6941,-1.4154,1.5619,1.0908,0.4339,-0.9779
-1.6479,1.457,-3.7869,-4.3295,2.0388,0.1522,1.4547,0.005,-2.3774,-1.1431,-2.6915,-1.4228,1.5361,1.1051,0.4291,-0.9838
-1.6479,1.457,-3.7869,-4.3295,2.0388,0.1522,1.4547,0.005,-2.3774,-1.1431,-2.6915,-1.4228,1.5361,1.1051,0.4291,-0.9838
-1.6479,1.457,-3.7869,-4.3295,2.0388,0.1522,1.4547,0.005,-2.3774,-1.1431,-2.6915,-1.4228,1.5361,1.1051,0.4291,-0.9838
-1.3344,1.5219,-3.8137,-4.3109,1.9385,0.0867,1.4478,0.0053,-2.1879,-1.1499,-2.6869,-1.4406,1.4009,1.1633,0.4087,-0.9997
-1.3344,1.5219,-3.8137,-4.3109,1.9385,0.0867,1.4478,0.0053,-2.1879,-1.1499,-2.6869,-1.4406,1.4009,1.1633,0.4087,-0.9997
-1.2101,1.5622,-3.8247,-4.307,1.9047,0.0518,1.4522,0.0037,-2.1362,-1.1304,-2.6941,-1.4413,1.3416,1.1582,0.4251,-1.0234
-1.2101,1.5622,-3.8247,-4.307,1.9047,0.0518,1.4522,0.0037,-2.1362,-1.1304,-2.6941,-1.4413,1.3416,1.1582,0.4251,-1.0234
-1.0803,1.5964,-3.8304,-4.3068,1.9292,0.0164,1.4655,-0.001,-2.1527,-1.0258,-2.7009,-1.4389,1.2928,1.1493,0.4464,-1.0412
-1.0803,1.5964,-3.8304,-4.3068,1.9292,0.0164,1.4655,-0.001,-2.1527,-1.0258,-2.7009,-1.4389,1.2928,1.1493,0.4464,-1.0412
-0.9945,1.6182,-3.8274,-4.3152,1.9403,-0.0274,1.4655,-0.001,-2.1539,-0.9565,-2.7047,-1.4408,1.2745,1.1194,0.4273,-1.0396
-0.9354,1.6401,-3.8301,-4.3234,1.8827,-0.0137,1.465,-0.0051,-2.1681,-0.9362,-2.6977,-1.4545,1.2537,1.0595,0.3834,-1.0342
-0.9354,1.6401,-3.8301,-4.3234,1.8827,-0.0137,1.465,-0.0051,-2.1681,-0.9362,-2.6977,-1.4545,1.2537,1.0595,0.3834,-1.0342
-0.9354,1.6401,-3.8301,-4.3234,1.8827,-0.0137,1.465,-0.0051,-2.1681,-0.9362,-2.6977,-1.4545,1.2537,1.0595,0.3834,-1.0342
-0.831,1.6366,-3.8411,-4.3195,1.8258,0.0131,1.46,-0.0076,-2.1573,-0.9246,-2.685,-1.4655,1.2187,1.0204,0.3372,-1.0256
-0.831,1.6366,-3.8411,-4.3195,1.8258,0.0131,1.46,-0.0076,-2.1573,-0.9246,-2.685,-1.4655,1.2187,1.0204,0.3372,-1.0256
-0.7488,1.6363,-3.8448,-4.3182,1.7811,0.0222,1.464,-0.0132,-2.1217,-0.9218,-2.6884,-1.4643,1.1901,0.9946,0.3053,-1.0245
-0.7488,1.6363,-3.8448,-4.3182,1.7811,0.0222,1.464,-0.0132,-2.1217,-0.9218,-2.6884,-1.4643,1.1901,0.9946,0.3053,-1.0245
-0.7112,1.671,-3.8428,-4.317,1.7807,0.0091,1.4747,-0.0192,-2.0538,-0.938,-2.7064,-1.4531,1.1561,0.9658,0.2875,-1.0309
-0.7151,1.6964,-3.8414,-4.323,1.7539,-0.0211,1.459,-0.0157,-1.9944,-0.9281,-2.7147,-1.4485,1.1574,0.9195,0.291,-1.0423
-0.7151,1.6964,-3.8414,-4.323,1.7539,-0.0211,1.459,-0.0157,-1.9944,-0.9281,-2.7147,-1.4485,1.1574,0.9195,0.291,-1.0423
-0.7151,1.6964,-3.8414,-4.323,1.7539,-0.0211,1.459,-0.0157,-1.9944,-0.9281,-2.7147,-1.4485,1.1574,0.9195,0.291,-1.0423
-0.7151,1.6964,-3.8414,-4.323,1.7539,-0.0211,1.459,-0.0157,-1.9944,-0.9281,-2.7147,-1.4485,1.1574,0.9195,0.291,-1.0423
-0.7515,1.7093,-3.8371,-4.3373,1.689,-0.0509,1.4271,-0.013,-1.9458,-0.9298,-2.7287,-1.4468,1.1578,0.8636,0.2862,-1.0483
-0.7515,1.7093,-3.8371,-4.3373,1.689,-0.0509,1.4271,-0.013,-1.9458,-0.9298,-2.7287,-1.4468,1.1578,0.8636,0.2862,-1.0483
-0.7515,1.7093,-3.8371,-4.3373,1.689,-0.0509,1.4271,-0.013,-1.9458,-0.9298,-2.7287,-1.4468,1.1578,0.8636,0.2862,-1.0483
-0.7192,1.7123,-3.8294,-4.3364,1.6494,-0.0894,1.3992,-0.0159,-1.8314,-0.9159,-2.7459,-1.4553,1.0404,0.8345,0.2815,-1.0542
-0.7192,1.7123,-3.8294,-4.3364,1.6494,-0.0894,1.3992,-0.0159,-1.8314,-0.9159,-2.7459,-1.4553,1.0404,0.8345,0.2815,-1.0542
-0.6872,1.7059,-3.8394,-4.3219,1.6489,-0.1023,1.4031,-0.0215,-1.7073,-0.9286,-2.7487,-1.4624,0.9565,0.824,0.2897,-1.0597
-0.6872,1.7059,-3.8394,-4.3219,1.6489,-0.1023,1.4031,-0.0215,-1.7073,-0.9286,-2.7487,-1.4624,0.9565,0.824,0.2897,-1.0597
-0.659,1.7249,-3.8498,-4.3109,1.699,-0.12,1.4031,-0.0215,-1.6496,-0.8864,-2.7544,-1.4652,0.8878,0.8033,0.3168,-1.0667
-0.659,1.7249,-3.8498,-4.3109,1.699,-0.12,1.4031,-0.0215,-1.6496,-0.8864,-2.7544,-1.4652,0.8878,0.8033,0.3168,-1.0667
-0.631,1.7344,-3.8608,-4.307,1.7487,-0.1506,1.3967,-0.0171,-1.652,-0.799,-2.7635,-1.4668,0.8232,0.7664,0.318,-1.062
-0.631,1.7344,-3.8608,-4.307,1.7487,-0.1506,1.3967,-0.0171,-1.652,-0.799,-2.7635,-1.4668,0.8232,0.7664,0.318,-1.062
-0.6124,1.7375,-3.8632,-4.3117,1.7481,-0.1635,1.383,-0.0165,-1.648,-0.7767,-2.772,-1.4767,0.7466,0.7045,0.2898,-1.047
-0.6124,1.7375,-3.8632,-4.3117,1.7481,-0.1635,1.383,-0.0165,-1.648,-0.7767,-2.772,-1.4767,0.7466,0.7045,0.2898,-1.047
-0.5754,1.7341,-3.8618,-4.3176,1.686,-0.1285,1.3737,-0.0175,-1.6649,-0.7945,-2.7727,-1.4941,0.6697,0.6335,0.238,-1.0363
-0.5754,1.7341,-3.8618,-4.3176,1.686,-0.1285,1.3737,-0.0175,-1.6649,-0.7945,-2.7727,-1.4941,0.6697,0.6335,0.238,-1.0363
-0.4921,1.7144,-3.8605,-4.3236,1.6239,-0.0935,1.3732,-0.0215,-1.6335,-0.7977,-2.7657,-1.5078,0.6054,0.5881,0.2098,-1.034
-0.4921,1.7144,-3.8605,-4.3236,1.6239,-0.0935,1.3732,-0.0215,-1.6335,-0.7977,-2.7657,-1.5078,0.6054,0.5881,0.2098,-1.034
-0.4268,1.7108,-3.8568,-4.3249,1.574,-0.0759,1.404,-0.0324,-1.5649,-0.7982,-2.7672,-1.5057,0.5782,0.5637,0.2005,-1.0332
-0.4268,1.7108,-3.8568,-4.3249,1.574,-0.0759,1.404,-0.0324,-1.5649,-0.7982,-2.7672,-1.5057,0.5782,0.5637,0.2005,-1.0332
-0.4114,1.7493,-3.8491,-4.3239,1.5491,-0.0671,1.4447,-0.0383,-1.4862,-0.7704,-2.765,-1.4904,0.5774,0.5543,0.231,-1.0389
-0.4102,1.788,-3.8361,-4.3267,1.5671,-0.093,1.4747,-0.0383,-1.4216,-0.7213,-2.7595,-1.4762,0.6118,0.547,0.2768,-1.0475
-0.4102,1.788,-3.8361,-4.3267,1.5671,-0.093,1.4747,-0.0383,-1.4216,-0.7213,-2.7595,-1.4762,0.6118,0.547,0.2768,-1.0475
-0.4102,1.788,-3.8361,-4.3267,1.5671,-0.093,1.4747,-0.0383,-1.4216,-0.7213,-2.7595,-1.4762,0.6118,0.547,0.2768,-1.0475
-0.4195,1.7913,-3.8143,-4.338,1.5657,-0.1316,1.4806,-0.0276,-1.3815,-0.6793,-2.7525,-1.4642,0.6897,0.5195,0.324,-1.0514
-0.4195,1.7913,-3.8143,-4.338,1.5657,-0.1316,1.4806,-0.0276,-1.3815,-0.6793,-2.7525,-1.4642,0.6897,0.5195,0.324,-1.0514
-0.4102,1.788,-3.7939,-4.3434,1.5528,-0.14,1.493,-0.0213,-1.3263,-0.6585,-2.726,-1.4655,0.735,0.518,0.3749,-1.0542
-0.4102,1.788,-3.7939,-4.3434,1.5528,-0.14,1.493,-0.0213,-1.3263,-0.6585,-2.726,-1.4655,0.735,0.518,0.3749,-1.0542
-0.3681,1.778,-3.7869,-4.3295,1.5716,-0.1402,1.5122,-0.0154,-1.2029,-0.6778,-2.7073,-1.4592,0.7474,0.5427,0.4153,-1.0481
-0.3304,1.7745,-3.7818,-4.3166,1.603,-0.1448,1.5423,-0.0153,-1.098,-0.6987,-2.6905,-1.4539,0.7581,0.5487,0.4761,-1.0517
-0.3304,1.7745,-3.7818,-4.3166,1.603,-0.1448,1.5423,-0.0153,-1.098,-0.6987,-2.6905,-1.4539,0.7581,0.5487,0.4761,-1.0517
-0.3304,1.7745,-3.7818,-4.3166,1.603,-0.1448,1.5423,-0.0153,-1.098,-0.6987,-2.6905,-1.4539,0.7581,0.5487,0.4761,-1.0517
-0.2924,1.7807,-3.7697,-4.3099,1.6784,-0.1584,1.5819,-0.0144,-1.0625,-0.6625,-2.6688,-1.4518,0.7839,0.5542,0.5586,-1.0604
-0.2924,1.7807,-3.7697,-4.3099,1.6784,-0.1584,1.5819,-0.0144,-1.0625,-0.6625,-2.6688,-1.4518,0.7839,0.5542,0.5586,-1.0604
-0.2639,1.7805,-3.762,-4.309,1.7786,-0.1938,1.6142,-0.0172,-1.0688,-0.595,-2.6489,-1.4508,0.8242,0.5497,0.6163,-1.0654
-0.2639,1.7805,-3.762,-4.309,1.7786,-0.1938,1.6142,-0.0172,-1.0688,-0.595,-2.6489,-1.4508,0.8242,0.5497,0.6163,-1.0654
-0.259,1.7837,-3.7546,-4.3116,1.8727,-0.2336,1.6331,-0.0154,-1.1081,-0.5237,-2.6378,-1.4482,0.8833,0.5288,0.6441,-1.0598
-0.259,1.7837,-3.7546,-4.3116,1.8727,-0.2336,1.6331,-0.0154,-1.1081,-0.5237,-2.6378,-1.4482,0.8833,0.5288,0.6441,-1.0598
-0.259,1.7837,-3.7546,-4.3116,1.8727,-0.2336,1.6331,-0.0154,-1.1081,-0.5237,-2.6378,-1.4482,0.8833,0.5288,0.6441,-1.0598
-0.2497,1.7804,-3.7418,-4.318,1.8859,-0.2252,1.65,-0.0106,-1.1484,-0.5095,-2.6227,-1.4552,0.8967,0.5094,0.636,-1.0415
-0.2497,1.7804,-3.7418,-4.318,1.8859,-0.2252,1.65,-0.0106,-1.1484,-0.5095,-2.6227,-1.4552,0.8967,0.5094,0.636,-1.0415
-0.2497,1.7804,-3.7418,-4.318,1.8859,-0.2252,1.65,-0.0106,-1.1484,-0.5095,-2.6227,-1.4552,0.8967,0.5094,0.636,-1.0415
-0.108,1.7402,-3.7082,-4.3262,1.8259,-0.1387,1.686,-0.0041,-1.1593,-0.5957,-2.5792,-1.477,0.8707,0.5041,0.5965,-1.0173
-0.108,1.7402,-3.7082,-4.3262,1.8259,-0.1387,1.686,-0.0041,-1.1593,-0.5957,-2.5792,-1.477,0.8707,0.5041,0.5965,-1.0173
-0.108,1.7402,-3.7082,-4.3262,1.8259,-0.1387,1.686,-0.0041,-1.1593,-0.5957,-2.5792,-1.477,0.8707,0.5041,0.5965,-1.0173
-0.0833,1.7561,-3.6964,-4.3231,1.8012,-0.1169,1.7224,-0.0126,-1.0968,-0.6423,-2.5729,-1.4711,0.8662,0.5105,0.6145,-1.0237
-0.0833,1.7561,-3.6964,-4.3231,1.8012,-0.1169,1.7224,-0.0126,-1.0968,-0.6423,-2.5729,-1.4711,0.8662,0.5105,0.6145,-1.0237
-0.0863,1.8017,-3.6882,-4.3186,1.7886,-0.1124,1.7499,-0.0181,-1.0491,-0.6673,-2.5716,-1.4619,0.8716,0.5134,0.6289,-1.0313
-0.0863,1.8017,-3.6882,-4.3186,1.7886,-0.1124,1.7499,-0.0181,-1.0491,-0.6673,-2.5716,-1.4619,0.8716,0.5134,0.6289,-1.0313
-0.1,1.8214,-3.673,-4.3203,1.7749,-0.1338,1.7414,-0.0108,-1.0163,-0.6707,-2.576,-1.4555,0.9165,0.5025,0.6349,-1.0335
-0.1,1.8214,-3.673,-4.3203,1.7749,-0.1338,1.7414,-0.0108,-1.0163,-0.6707,-2.576,-1.4555,0.9165,0.5025,0.6349,-1.0335
-0.1,1.8214,-3.673,-4.3203,1.7749,-0.1338,1.7414,-0.0108,-1.0163,-0.6707,-2.576,-1.4555,0.9165,0.5025,0.6349,-1.0335
-0.0662,1.8244,-3.6432,-4.3106,1.7547,-0.1593,1.7159,-0.0082,-0.9775,-0.6681,-2.5745,-1.4576,0.9688,0.5132,0.6349,-1.0335
-0.0662,1.8244,-3.6432,-4.3106,1.7547,-0.1593,1.7159,-0.0082,-0.9775,-0.6681,-2.5745,-1.4576,0.9688,0.5132,0.6349,-1.0335
-0.0414,1.8405,-3.6395,-4.2917,1.7612,-0.1551,1.7045,-0.0063,-0.9026,-0.7027,-2.5735,-1.4628,0.9499,0.5296,0.624,-1.0373
-0.0414,1.8405,-3.6395,-4.2917,1.7612,-0.1551,1.7045,-0.0063,-0.9026,-0.7027,-2.5735,-1.4628,0.9499,0.5296,0.624,-1.0373
-0.0258,1.8699,-3.6344,-4.2788,1.7744,-0.1467,1.7039,-0.0104,-0.8831,-0.7015,-2.575,-1.4607,0.931,0.5461,0.6443,-1.0471
-0.0258,1.8699,-3.6344,-4.2788,1.7744,-0.1467,1.7039,-0.0104,-0.8831,-0.7015,-2.575,-1.4607,0.931,0.5461,0.6443,-1.0471
-0.0258,1.8699,-3.6344,-4.2788,1.7744,-0.1467,1.7039,-0.0104,-0.8831,-0.7015,-2.575,-1.4607,0.931,0.5461,0.6443,-1.0471
0.004,1.8894,-3.6296,-4.2694,1.8704,-0.1479,1.7034,-0.0145,-0.9131,-0.6582,-2.5735,-1.4628,0.9068,0.5596,0.6778,-1.0692
0.004,1.8894,-3.6296,-4.2694,1.8704,-0.1479,1.7034,-0.0145,-0.9131,-0.6582,-2.5735,-1.4628,0.9068,0.5596,0.6778,-1.0692
0.004,1.8894,-3.6296,-4.2694,1.8704,-0.1479,1.7034,-0.0145,-0.9131,-0.6582,-2.5735,-1.4628,0.9068,0.5596,0.6778,-1.0692
0.0193,1.9091,-3.5987,-4.2693,2.1216,-0.1774,1.6908,-0.0208,-1.0301,-0.5923,-2.5593,-1.4646,0.9799,0.5729,0.6525,-1.0654
0.0193,1.9091,-3.5987,-4.2693,2.1216,-0.1774,1.6908,-0.0208,-1.0301,-0.5923,-2.5593,-1.4646,0.9799,0.5729,0.6525,-1.0654
0.0193,1.9091,-3.5987,-4.2693,2.1216,-0.1774,1.6908,-0.0208,-1.0301,-0.5923,-2.5593,-1.4646,0.9799,0.5729,0.6525,-1.0654
-0.0198,1.9028,-3.5888,-4.2672,2.1251,-0.1126,1.6808,-0.0258,-1.1412,-0.651,-2.5485,-1.4765,0.9988,0.5564,0.5791,-1.0574
-0.0198,1.9028,-3.5888,-4.2672,2.1251,-0.1126,1.6808,-0.0258,-1.1412,-0.651,-2.5485,-1.4765,0.9988,0.5564,0.5791,-1.0574
-0.0978,1.8804,-3.5799,-4.2556,2.1303,-0.0079,1.6668,-0.0252,-1.2644,-0.7046,-2.5279,-1.4838,1.0206,0.5683,0.5096,-1.0482
-0.0978,1.8804,-3.5799,-4.2556,2.1303,-0.0079,1.6668,-0.0252,-1.2644,-0.7046,-2.5279,-1.4838,1.0206,0.5683,0.5096,-1.0482
-0.2285,1.8421,-3.5724,-4.2379,2.1802,0.0752,1.6733,-0.0296,-1.3372,-0.7432,-2.5074,-1.4797,1.0353,0.6123,0.4665,-1.0509
-0.2285,1.8421,-3.5724,-4.2379,2.1802,0.0752,1.6733,-0.0296,-1.3372,-0.7432,-2.5074,-1.4797,1.0353,0.6123,0.4665,-1.0509
-0.666,1.8148,-3.5481,-4.2075,2.3991,0.2021,1.7096,-0.0381,-1.4283,-0.7829,-2.4637,-1.4529,1.1213,0.6959,0.44,-1.0772
-0.666,1.8148,-3.5481,-4.2075,2.3991,0.2021,1.7096,-0.0381,-1.4283,-0.7829,-2.4637,-1.4529,1.1213,0.6959,0.44,-1.0772
-0.666,1.8148,-3.5481,-4.2075,2.3991,0.2021,1.7096,-0.0381,-1.4283,-0.7829,-2.4637,-1.4529,1.1213,0.6959,0.44,-1.0772
-0.666,1.8148,-3.5481,-4.2075,2.3991,0.2021,1.7096,-0.0381,-1.4283,-0.7829,-2.4637,-1.4529,1.1213,0.6959,0.44,-1.0772
-0.9236,1.7701,-3.5324,-4.2056,2.4488,0.2603,1.6858,-0.0233,-1.4789,-0.7809,-2.4461,-1.4445,1.2114,0.7089,0.4398,-1.0898
-0.9236,1.7701,-3.5324,-4.2056,2.4488,0.2603,1.6858,-0.0233,-1.4789,-0.7809,-2.4461,-1.4445,1.2114,0.7089,0.4398,-1.0898
-1.1183,1.719,-3.5146,-4.2026,2.5057,0.3235,1.6685,-0.0129,-1.5147,-0.8001,-2.4328,-1.441,1.2558,0.7333,0.4278,-1.0983
-1.1183,1.719,-3.5146,-4.2026,2.5057,0.3235,1.6685,-0.0129,-1.5147,-0.8001,-2.4328,-1.441,1.2558,0.7333,0.4278,-1.0983
-1.2526,1.6715,-3.5077,-4.1919,2.5687,0.364,1.664,-0.0113,-1.4944,-0.8151,-2.4166,-1.4419,1.2513,0.7952,0.4147,-1.0988
-1.2526,1.6715,-3.5077,-4.1919,2.5687,0.364,1.664,-0.0113,-1.4944,-0.8151,-2.4166,-1.4419,1.2513,0.7952,0.4147,-1.0988
-1.4164,1.6023,-3.5129,-4.164,2.6467,0.4278,1.671,-0.0116,-1.3002,-0.8679,-2.3999,-1.4396,1.2326,0.8777,0.4277,-1.1109
-1.4164,1.6023,-3.5129,-4.164,2.6467,0.4278,1.671,-0.0116,-1.3002,-0.8679,-2.3999,-1.4396,1.2326,0.8777,0.4277,-1.1109
-1.4164,1.6023,-3.5129,-4.164,2.6467,0.4278,1.671,-0.0116,-1.3002,-0.8679,-2.3999,-1.4396,1.2326,0.8777,0.4277,-1.1109
-1.4688,1.6021,-3.5139,-4.1543,2.7565,0.4173,1.6645,-0.0072,-1.3472,-0.7716,-2.396,-1.4377,1.2289,0.8943,0.4501,-1.1239
-1.4688,1.6021,-3.5139,-4.1543,2.7565,0.4173,1.6645,-0.0072,-1.3472,-0.7716,-2.396,-1.4377,1.2289,0.8943,0.4501,-1.1239
-1.4688,1.6021,-3.5139,-4.1543,2.7565,0.4173,1.6645,-0.0072,-1.3472,-0.7716,-2.396,-1.4377,1.2289,0.8943,0.4501,-1.1239
-1.508,1.6019,-3.5194,-4.1505,2.8319,0.3977,1.6486,-0.0037,-1.4044,-0.7034,-2.4068,-1.4372,1.2169,0.8782,0.431,-1.1223
-1.508,1.6019,-3.5194,-4.1505,2.8319,0.3977,1.6486,-0.0037,-1.4044,-0.7034,-2.4068,-1.4372,1.2169,0.8782,0.431,-1.1223
-1.508,1.6019,-3.5194,-4.1505,2.8319,0.3977,1.6486,-0.0037,-1.4044,-0.7034,-2.4068,-1.4372,1.2169,0.8782,0.431,-1.1223
-1.5515,1.5987,-3.5197,-4.1541,2.8456,0.3929,1.6322,-0.0043,-1.4756,-0.6862,-2.4116,-1.4453,1.1818,0.8399,0.3779,-1.1035
-1.5515,1.5987,-3.5197,-4.1541,2.8456,0.3929,1.6322,-0.0043,-1.4756,-0.6862,-2.4116,-1.4453,1.1818,0.8399,0.3779,-1.1035
-1.5516,1.5894,-3.5084,-4.1581,2.8196,0.4304,1.6291,-0.0097,-1.5301,-0.707,-2.3997,-1.4625,1.1359,0.7957,0.3106,-1.0899
-1.5516,1.5894,-3.5084,-4.1581,2.8196,0.4304,1.6291,-0.0097,-1.5301,-0.707,-2.3997,-1.4625,1.1359,0.7957,0.3106,-1.0899
-1.4735,1.5711,-3.4796,-4.1627,2.7263,0.5202,1.6545,-0.0122,-1.4633,-0.7466,-2.3739,-1.4732,1.091,0.7615,0.2694,-1.088
-1.4735,1.5711,-3.4796,-4.1627,2.7263,0.5202,1.6545,-0.0122,-1.4633,-0.7466,-2.3739,-1.4732,1.091,0.7615,0.2694,-1.088
-1.4558,1.6022,-3.4637,-4.1608,2.7126,0.5251,1.6894,-0.0138,-1.3766,-0.7292,-2.3781,-1.4522,1.1011,0.7579,0.2964,-1.095
-1.4558,1.6022,-3.4637,-4.1608,2.7126,0.5251,1.6894,-0.0138,-1.3766,-0.7292,-2.3781,-1.4522,1.1011,0.7579,0.2964,-1.095
-1.4558,1.6022,-3.4637,-4.1608,2.7126,0.5251,1.6894,-0.0138,-1.3766,-0.7292,-2.3781,-1.4522,1.1011,0.7579,0.2964,-1.095
-1.4556,1.6115,-3.4527,-4.1684,2.6962,0.4598,1.6994,-0.0088,-1.3189,-0.6692,-2.3753,-1.4336,1.1672,0.7395,0.3518,-1.1044
-1.4556,1.6115,-3.4527,-4.1684,2.6962,0.4598,1.6994,-0.0088,-1.3189,-0.6692,-2.3753,-1.4336,1.1672,0.7395,0.3518,-1.1044
-1.4556,1.6115,-3.4527,-4.1684,2.6962,0.4598,1.6994,-0.0088,-1.3189,-0.6692,-2.3753,-1.4336,1.1672,0.7395,0.3518,-1.1044
-1.3679,1.6273,-3.4148,-4.1818,2.6231,0.3588,1.7145,-0.0013,-1.1828,-0.62,-2.3482,-1.4236,1.2234,0.7247,0.4443,-1.1092
-1.3679,1.6273,-3.4148,-4.1818,2.6231,0.3588,1.7145,-0.0013,-1.1828,-0.62,-2.3482,-1.4236,1.2234,0.7247,0.4443,-1.1092
-1.2397,1.6433,-3.411,-4.1626,2.602,0.3453,1.74,-0.0038,-1.0656,-0.6288,-2.3418,-1.4176,1.1939,0.7451,0.4837,-1.1079
-1.2397,1.6433,-3.411,-4.1626,2.602,0.3453,1.74,-0.0038,-1.0656,-0.6288,-2.3418,-1.4176,1.1939,0.7451,0.4837,-1.1079
-1.0922,1.6717,-3.402,-4.1508,2.6148,0.3267,1.7791,-0.0112,-0.9746,-0.6283,-2.3319,-1.4129,1.1682,0.7492,0.5565,-1.1158
-1.0922,1.6717,-3.402,-4.1508,2.6148,0.3267,1.7791,-0.0112,-0.9746,-0.6283,-2.3319,-1.4129,1.1682,0.7492,0.5565,-1.1158
-1.0922,1.6717,-3.402,-4.1508,2.6148,0.3267,1.7791,-0.0112,-0.9746,-0.6283,-2.3319,-1.4129,1.1682,0.7492,0.5565,-1.1158
-0.9611,1.7065,-3.3995,-4.146,2.6944,0.2707,1.8021,-0.015,-0.9463,-0.5809,-2.331,-1.4067,1.1608,0.7268,0.638,-1.1293
-0.9611,1.7065,-3.3995,-4.146,2.6944,0.2707,1.8021,-0.015,-0.9463,-0.5809,-2.331,-1.4067,1.1608,0.7268,0.638,-1.1293
-0.9611,1.7065,-3.3995,-4.146,2.6944,0.2707,1.8021,-0.015,-0.9463,-0.5809,-2.331,-1.4067,1.1608,0.7268,0.638,-1.1293
-0.9611,1.7065,-3.3995,-4.146,2.6944,0.2707,1.8021,-0.015,-0.9463,-0.5809,-2.331,-1.4067,1.1608,0.7268,0.638,-1.1293
-0.7319,1.7603,-3.3944,-4.1535,2.693,0.2434,1.8278,-0.0176,-1.002,-0.5447,-2.3285,-1.4141,1.1403,0.6246,0.6507,-1.0955
-0.7319,1.7603,-3.3944,-4.1535,2.693,0.2434,1.8278,-0.0176,-1.002,-0.5447,-2.3285,-1.4141,1.1403,0.6246,0.6507,-1.0955
-0.7319,1.7603,-3.3944,-4.1535,2.693,0.2434,1.8278,-0.0176,-1.002,-0.5447,-2.3285,-1.4141,1.1403,0.6246,0.6507,-1.0955
-0.3877,1.7555,-3.3837,-4.1647,2.6123,0.2719,1.858,-0.0219,-0.9972,-0.5957,-2.3105,-1.4287,1.0734,0.5791,0.6293,-1.0777
-0.3877,1.7555,-3.3837,-4.1647,2.6123,0.2719,1.858,-0.0219,-0.9972,-0.5957,-2.3105,-1.4287,1.0734,0.5791,0.6293,-1.0777
-0.2552,1.7578,-3.384,-4.1684,2.5637,0.2543,1.8871,-0.0343,-0.9237,-0.6135,-2.316,-1.4169,1.0724,0.5696,0.651,-1.0828
-0.2552,1.7578,-3.384,-4.1684,2.5637,0.2543,1.8871,-0.0343,-0.9237,-0.6135,-2.316,-1.4169,1.0724,0.5696,0.651,-1.0828
-0.2552,1.7578,-3.384,-4.1684,2.5637,0.2543,1.8871,-0.0343,-0.9237,-0.6135,-2.316,-1.4169,1.0724,0.5696,0.651,-1.0828
-0.2148,1.8224,-3.3844,-4.172,2.4951,0.2371,1.9233,-0.0471,-0.8559,-0.6375,-2.3305,-1.4036,1.0715,0.5602,0.6773,-1.0946
-0.2148,1.8224,-3.3844,-4.172,2.4951,0.2371,1.9233,-0.0471,-0.8559,-0.6375,-2.3305,-1.4036,1.0715,0.5602,0.6773,-1.0946
-0.2148,1.8224,-3.3844,-4.172,2.4951,0.2371,1.9233,-0.0471,-0.8559,-0.6375,-2.3305,-1.4036,1.0715,0.5602,0.6773,-1.0946
-0.1924,1.9238,-3.3989,-4.18,2.4173,0.1614,1.9194,-0.0414,-0.8075,-0.5887,-2.3514,-1.3962,1.126,0.536,0.6857,-1.1001
-0.1924,1.9238,-3.3989,-4.18,2.4173,0.1614,1.9194,-0.0414,-0.8075,-0.5887,-2.3514,-1.3962,1.126,0.536,0.6857,-1.1001
-0.2019,1.9272,-3.3966,-4.1957,2.3607,0.0995,1.8786,-0.027,-0.7909,-0.5532,-2.3588,-1.3968,1.2017,0.5141,0.6786,-1.09
-0.2019,1.9272,-3.3966,-4.1957,2.3607,0.0995,1.8786,-0.027,-0.7909,-0.5532,-2.3588,-1.3968,1.2017,0.5141,0.6786,-1.09
-0.2019,1.9272,-3.3966,-4.1957,2.3607,0.0995,1.8786,-0.027,-0.7909,-0.5532,-2.3588,-1.3968,1.2017,0.5141,0.6786,-1.09
-0.1787,1.904,-3.3828,-4.2155,2.3181,0.0468,1.8484,-0.0228,-0.7788,-0.5409,-2.3617,-1.404,1.2219,0.507,0.669,-1.0891
-0.1787,1.904,-3.3828,-4.2155,2.3181,0.0468,1.8484,-0.0228,-0.7788,-0.5409,-2.3617,-1.404,1.2219,0.507,0.669,-1.0891
-0.1787,1.904,-3.3828,-4.2155,2.3181,0.0468,1.8484,-0.0228,-0.7788,-0.5409,-2.3617,-1.404,1.2219,0.507,0.669,-1.0891
-0.0742,1.8671,-3.3939,-4.2079,2.2893,0.003,1.8241,-0.0271,-0.6629,-0.5736,-2.3591,-1.423,1.1601,0.5633,0.6387,-1.0912
-0.0742,1.8671,-3.3939,-4.2079,2.2893,0.003,1.8241,-0.0271,-0.6629,-0.5736,-2.3591,-1.423,1.1601,0.5633,0.6387,-1.0912
-0.0742,1.8671,-3.3939,-4.2079,2.2893,0.003,1.8241,-0.0271,-0.6629,-0.5736,-2.3591,-1.423,1.1601,0.5633,0.6387,-1.0912
-0.0449,1.8767,-3.41,-4.1929,2.2694,0.0033,1.8255,-0.0341,-0.5725,-0.6138,-2.3669,-1.4267,1.1154,0.584,0.6338,-1.0972
-0.0449,1.8767,-3.41,-4.1929,2.2694,0.0033,1.8255,-0.0341,-0.5725,-0.6138,-2.3669,-1.4267,1.1154,0.584,0.6338,-1.0972
-0.0449,1.8767,-3.41,-4.1929,2.2694,0.0033,1.8255,-0.0341,-0.5725,-0.6138,-2.3669,-1.4267,1.1154,0.584,0.6338,-1.0972
0.0044,1.8993,-3.421,-4.1852,2.3938,-0.0339,1.8334,-0.0454,-0.6536,-0.527,-2.3817,-1.4281,1.0779,0.5726,0.6575,-1.1183
0.0044,1.8993,-3.421,-4.1852,2.3938,-0.0339,1.8334,-0.0454,-0.6536,-0.527,-2.3817,-1.4281,1.0779,0.5726,0.6575,-1.1183
0.0047,1.9092,-3.4238,-4.1936,2.3753,-0.0072,1.8323,-0.0536,-0.7529,-0.5335,-2.3925,-1.439,1.0432,0.5358,0.6094,-1.1141
0.0047,1.9092,-3.4238,-4.1936,2.3753,-0.0072,1.8323,-0.0536,-0.7529,-0.5335,-2.3925,-1.439,1.0432,0.5358,0.6094,-1.1141
0.0047,1.9092,-3.4238,-4.1936,2.3753,-0.0072,1.8323,-0.0536,-0.7529,-0.5335,-2.3925,-1.439,1.0432,0.5358,0.6094,-1.1141
0.0577,1.8955,-3.4318,-4.1945,2.3305,0.0289,1.8247,-0.0574,-0.8303,-0.5559,-2.3894,-1.4547,1.0248,0.5081,0.5697,-1.1154
0.0577,1.8955,-3.4318,-4.1945,2.3305,0.0289,1.8247,-0.0574,-0.8303,-0.5559,-2.3894,-1.4547,1.0248,0.5081,0.5697,-1.1154
0.0577,1.8955,-3.4318,-4.1945,2.3305,0.0289,1.8247,-0.0574,-0.8303,-0.5559,-2.3894,-1.4547,1.0248,0.5081,0.5697,-1.1154
0.0826,1.9118,-3.4483,-4.2036,2.2645,0.0387,1.843,-0.0788,-0.868,-0.5756,-2.4161,-1.4388,1.0348,0.5045,0.5265,-1.1179
0.0826,1.9118,-3.4483,-4.2036,2.2645,0.0387,1.843,-0.0788,-0.868,-0.5756,-2.4161,-1.4388,1.0348,0.5045,0.5265,-1.1179
0.0538,1.922,-3.459,-4.2129,2.2242,0.026,1.8199,-0.0749,-0.8605,-0.5865,-2.43,-1.4339,1.0756,0.4999,0.524,-1.1272
0.0538,1.922,-3.459,-4.2129,2.2242,0.026,1.8199,-0.0749,-0.8605,-0.5865,-2.43,-1.4339,1.0756,0.4999,0.524,-1.1272
0.0051,1.9191,-3.4608,-4.2309,2.171,0.0179,1.7783,-0.0688,-0.8801,-0.5878,-2.4477,-1.4309,1.1155,0.4858,0.5119,-1.1356
0.0051,1.9191,-3.4608,-4.2309,2.171,0.0179,1.7783,-0.0688,-0.8801,-0.5878,-2.4477,-1.4309,1.1155,0.4858,0.5119,-1.1356
-0.0098,1.9093,-3.4708,-4.2329,2.1513,0.0182,1.7567,-0.0719,-0.8529,-0.5974,-2.4605,-1.4313,1.104,0.5241,0.5011,-1.1394
-0.0098,1.9093,-3.4708,-4.2329,2.1513,0.0182,1.7567,-0.0719,-0.8529,-0.5974,-2.4605,-1.4313,1.104,0.5241,0.5011,-1.1394
-0.0148,1.9061,-3.4821,-4.2289,2.158,0.0225,1.7447,-0.074,-0.7514,-0.625,-2.4629,-1.4353,1.0825,0.5661,0.4998,-1.144
-0.0148,1.9061,-3.4821,-4.2289,2.158,0.0225,1.7447,-0.074,-0.7514,-0.625,-2.4629,-1.4353,1.0825,0.5661,0.4998,-1.144
-0.0194,1.9127,-3.4951,-4.2225,2.2242,0.026,1.7312,-0.0693,-0.7072,-0.5994,-2.4629,-1.4353,1.0744,0.5887,0.5259,-1.1558
-0.0194,1.9127,-3.4951,-4.2225,2.2242,0.026,1.7312,-0.0693,-0.7072,-0.5994,-2.4629,-1.4353,1.0744,0.5887,0.5259,-1.1558
-0.0385,1.9195,-3.5064,-4.2185,2.2838,0.0252,1.7153,-0.0658,-0.7545,-0.5163,-2.4683,-1.435,1.0653,0.6017,0.5282,-1.1591
-0.0385,1.9195,-3.5064,-4.2185,2.2838,0.0252,1.7153,-0.0658,-0.7545,-0.5163,-2.4683,-1.435,1.0653,0.6017,0.5282,-1.1591
-0.0484,1.913,-3.505,-4.2245,2.3119,0.0557,1.6988,-0.0664,-0.7956,-0.5018,-2.4642,-1.4446,1.0534,0.5862,0.4843,-1.1411
-0.0484,1.913,-3.505,-4.2245,2.3119,0.0557,1.6988,-0.0664,-0.7956,-0.5018,-2.4642,-1.4446,1.0534,0.5862,0.4843,-1.1411
-0.0484,1.913,-3.505,-4.2245,2.3119,0.0557,1.6988,-0.0664,-0.7956,-0.5018,-2.4642,-1.4446,1.0534,0.5862,0.4843,-1.1411
-0.0396,1.8898,-3.5054,-4.2281,2.3138,0.0957,1.6843,-0.0698,-0.794,-0.519,-2.4548,-1.4544,1.0525,0.5767,0.444,-1.1345
-0.0396,1.8898,-3.5054,-4.2281,2.3138,0.0957,1.6843,-0.0698,-0.794,-0.519,-2.4548,-1.4544,1.0525,0.5767,0.444,-1.1345
-0.0396,1.8898,-3.5054,-4.2281,2.3138,0.0957,1.6843,-0.0698,-0.794,-0.519,-2.4548,-1.4544,1.0525,0.5767,0.444,-1.1345
-0.1506,1.8841,-3.5081,-4.216,2.2969,0.1629,1.6974,-0.0936,-0.8563,-0.4886,-2.4852,-1.4144,1.1202,0.6317,0.3976,-1.1383
-0.1506,1.8841,-3.5081,-4.216,2.2969,0.1629,1.6974,-0.0936,-0.8563,-0.4886,-2.4852,-1.4144,1.1202,0.6317,0.3976,-1.1383
-0.2698,1.8914,-3.5098,-4.2136,2.31,0.1583,1.688,-0.0945,-0.9245,-0.4645,-2.4759,-1.4128,1.2304,0.6374,0.4081,-1.1471
-0.2698,1.8914,-3.5098,-4.2136,2.31,0.1583,1.688,-0.0945,-0.9245,-0.4645,-2.4759,-1.4128,1.2304,0.6374,0.4081,-1.1471
-0.2698,1.8914,-3.5098,-4.2136,2.31,0.1583,1.688,-0.0945,-0.9245,-0.4645,-2.4759,-1.4128,1.2304,0.6374,0.4081,-1.1471
-0.3935,1.8756,-3.5009,-4.2223,2.3151,0.1224,1.6512,-0.09,-1.0205,-0.4887,-2.4552,-1.4201,1.3008,0.6574,0.3951,-1.1475
-0.4975,1.8532,-3.4841,-4.2301,2.3207,0.1001,1.614,-0.0896,-1.0947,-0.5284,-2.4364,-1.4283,1.3031,0.7316,0.3797,-1.1446
-0.5678,1.8437,-3.4779,-4.2267,2.3282,0.1178,1.5862,-0.0883,-1.1133,-0.6038,-2.431,-1.4286,1.2736,0.8075,0.3573,-1.1443
-0.5678,1.8437,-3.4779,-4.2267,2.3282,0.1178,1.5862,-0.0883,-1.1133,-0.6038,-2.431,-1.4286,1.2736,0.8075,0.3573,-1.1443
-0.5678,1.8437,-3.4779,-4.2267,2.3282,0.1178,1.5862,-0.0883,-1.1133,-0.6038,-2.431,-1.4286,1.2736,0.8075,0.3573,-1.1443
-0.6054,1.8276,-3.4861,-4.2108,2.3363,0.149,1.5674,-0.0902,-1.1219,-0.6497,-2.4301,-1.4224,1.267,0.8503,0.3655,-1.1497
-0.6054,1.8276,-3.4861,-4.2108,2.3363,0.149,1.5674,-0.0902,-1.1219,-0.6497,-2.4301,-1.4224,1.267,0.8503,0.3655,-1.1497
-0.6196,1.8179,-3.5002,-4.1946,2.384,0.1663,1.5658,-0.1023,-1.2019,-0.6214,-2.4296,-1.4193,1.2847,0.8695,0.3842,-1.1639
-0.6196,1.8179,-3.5002,-4.1946,2.384,0.1663,1.5658,-0.1023,-1.2019,-0.6214,-2.4296,-1.4193,1.2847,0.8695,0.3842,-1.1639
-0.6196,1.8179,-3.5002,-4.1946,2.384,0.1663,1.5658,-0.1023,-1.2019,-0.6214,-2.4296,-1.4193,1.2847,0.8695,0.3842,-1.1639
-0.6427,1.8212,-3.5132,-4.1881,2.464,0.1517,1.5603,-0.1088,-1.3255,-0.6021,-2.4351,-1.419,1.294,0.856,0.3594,-1.1602
-0.6427,1.8212,-3.5132,-4.1881,2.464,0.1517,1.5603,-0.1088,-1.3255,-0.6021,-2.4351,-1.419,1.294,0.856,0.3594,-1.1602
-0.6427,1.8212,-3.5132,-4.1881,2.464,0.1517,1.5603,-0.1088,-1.3255,-0.6021,-2.4351,-1.419,1.294,0.856,0.3594,-1.1602
-0.6427,1.8212,-3.5132,-4.1881,2.464,0.1517,1.5603,-0.1088,-1.3255,-0.6021,-2.4351,-1.419,1.294,0.856,0.3594,-1.1602
-0.6104,1.8147,-3.5139,-4.1954,2.447,0.2196,1.5648,-0.1104,-1.483,-0.6756,-2.4063,-1.4341,1.267,0.8503,0.3018,-1.1474
-0.6104,1.8147,-3.5139,-4.1954,2.447,0.2196,1.5648,-0.1104,-1.483,-0.6756,-2.4063,-1.4341,1.267,0.8503,0.3018,-1.1474
-0.6104,1.8147,-3.5139,-4.1954,2.447,0.2196,1.5648,-0.1104,-1.483,-0.6756,-2.4063,-1.4341,1.267,0.8503,0.3018,-1.1474
-0.4288,1.7946,-3.4926,-4.1973,2.4159,0.2789,1.6435,-0.1128,-1.42,-0.7379,-2.382,-1.4051,1.3266,0.8648,0.3772,-1.1539
-0.4288,1.7946,-3.4926,-4.1973,2.4159,0.2789,1.6435,-0.1128,-1.42,-0.7379,-2.382,-1.4051,1.3266,0.8648,0.3772,-1.1539
-0.3991,1.8431,-3.4827,-4.1952,2.4222,0.2697,1.6947,-0.1139,-1.4102,-0.7094,-2.3673,-1.3922,1.4061,0.8621,0.4212,-1.1467
-0.3991,1.8431,-3.4827,-4.1952,2.4222,0.2697,1.6947,-0.1139,-1.4102,-0.7094,-2.3673,-1.3922,1.4061,0.8621,0.4212,-1.1467
-0.3793,1.8756,-3.4693,-4.1981,2.4337,0.2243,1.7108,-0.0983,-1.3798,-0.696,-2.3535,-1.3856,1.5011,0.849,0.4547,-1.1306
-0.3793,1.8756,-3.4693,-4.1981,2.4337,0.2243,1.7108,-0.0983,-1.3798,-0.696,-2.3535,-1.3856,1.5011,0.849,0.4547,-1.1306
-0.3461,1.8787,-3.4449,-4.2086,2.4249,0.1793,1.72,-0.0824,-1.342,-0.6933,-2.3332,-1.3846,1.5295,0.8645,0.4786,-1.1264
-0.3461,1.8787,-3.4449,-4.2086,2.4249,0.1793,1.72,-0.0824,-1.342,-0.6933,-2.3332,-1.3846,1.5295,0.8645,0.4786,-1.1264
-0.2941,1.8751,-3.4277,-4.2128,2.4236,0.1523,1.7346,-0.079,-1.2306,-0.7246,-2.3168,-1.3854,1.5372,0.8874,0.4989,-1.1234
-0.2941,1.8751,-3.4277,-4.2128,2.4236,0.1523,1.7346,-0.079,-1.2306,-0.7246,-2.3168,-1.3854,1.5372,0.8874,0.4989,-1.1234
-0.2941,1.8751,-3.4277,-4.2128,2.4236,0.1523,1.7346,-0.079,-1.2306,-0.7246,-2.3168,-1.3854,1.5372,0.8874,0.4989,-1.1234
-0.2464,1.8781,-3.4263,-4.1983,2.4167,0.1479,1.7516,-0.0744,-1.1393,-0.7407,-2.2985,-1.3853,1.5392,0.9072,0.5276,-1.1259
-0.2464,1.8781,-3.4263,-4.1983,2.4167,0.1479,1.7516,-0.0744,-1.1393,-0.7407,-2.2985,-1.3853,1.5392,0.9072,0.5276,-1.1259
-0.2464,1.8781,-3.4263,-4.1983,2.4167,0.1479,1.7516,-0.0744,-1.1393,-0.7407,-2.2985,-1.3853,1.5392,0.9072,0.5276,-1.1259
-0.1686,1.9204,-3.411,-4.1832,2.5093,0.1152,1.8078,-0.0771,-1.2136,-0.6335,-2.2706,-1.3836,1.5647,0.8931,0.5837,-1.1356
-0.1686,1.9204,-3.411,-4.1832,2.5093,0.1152,1.8078,-0.0771,-1.2136,-0.6335,-2.2706,-1.3836,1.5647,0.8931,0.5837,-1.1356
-0.1493,1.9235,-3.3903,-4.1923,2.5414,0.0833,1.8244,-0.0765,-1.2693,-0.6544,-2.2526,-1.3982,1.5607,0.8535,0.5646,-1.1339
-0.1493,1.9235,-3.3903,-4.1923,2.5414,0.0833,1.8244,-0.0765,-1.2693,-0.6544,-2.2526,-1.3982,1.5607,0.8535,0.5646,-1.1339
-0.1158,1.9167,-3.3772,-4.1988,2.5086,0.1018,1.843,-0.0788,-1.3173,-0.6859,-2.2306,-1.411,1.5577,0.8239,0.5537,-1.1377
-0.1158,1.9167,-3.3772,-4.1988,2.5086,0.1018,1.843,-0.0788,-1.3173,-0.6859,-2.2306,-1.411,1.5577,0.8239,0.5537,-1.1377
-0.1158,1.9167,-3.3772,-4.1988,2.5086,0.1018,1.843,-0.0788,-1.3173,-0.6859,-2.2306,-1.411,1.5577,0.8239,0.5537,-1.1377
-0.0583,1.9064,-3.3751,-4.1977,2.457,0.1474,1.8551,-0.0767,-1.323,-0.6919,-2.2231,-1.4103,1.5634,0.827,0.5478,-1.1356
-0.0583,1.9064,-3.3751,-4.1977,2.457,0.1474,1.8551,-0.0767,-1.323,-0.6919,-2.2231,-1.4103,1.5634,0.827,0.5478,-1.1356
-0.0583,1.9064,-3.3751,-4.1977,2.457,0.1474,1.8551,-0.0767,-1.323,-0.6919,-2.2231,-1.4103,1.5634,0.827,0.5478,-1.1356
-0.0102,1.8994,-3.3827,-4.195,2.4104,0.157,1.8621,-0.077,-1.2983,-0.6846,-2.2372,-1.3938,1.5634,0.827,0.5418,-1.1335
-0.0102,1.8994,-3.3827,-4.195,2.4104,0.157,1.8621,-0.077,-1.2983,-0.6846,-2.2372,-1.3938,1.5634,0.827,0.5418,-1.1335
0.0346,1.9288,-3.3962,-4.1921,2.3946,0.108,1.9138,-0.0974,-1.2045,-0.6611,-2.2668,-1.3702,1.6164,0.8184,0.5799,-1.1495
0.0346,1.9288,-3.3962,-4.1921,2.3946,0.108,1.9138,-0.0974,-1.2045,-0.6611,-2.2668,-1.3702,1.6164,0.8184,0.5799,-1.1495
0.0353,1.9487,-3.4024,-4.1956,2.3995,0.0722,1.9138,-0.0974,-1.1662,-0.6584,-2.2817,-1.3715,1.7036,0.7723,0.5796,-1.1621
0.0353,1.9487,-3.4024,-4.1956,2.3995,0.0722,1.9138,-0.0974,-1.1662,-0.6584,-2.2817,-1.3715,1.7036,0.7723,0.5796,-1.1621
-0.0038,1.9424,-3.4152,-4.206,2.3505,0.0286,1.8771,-0.0887,-1.1604,-0.6523,-2.2971,-1.376,1.7327,0.7417,0.5724,-1.1646
-0.0038,1.9424,-3.4152,-4.206,2.3505,0.0286,1.8771,-0.0887,-1.1604,-0.6523,-2.2971,-1.376,1.7327,0.7417,0.5724,-1.1646
-0.0484,1.913,-3.4191,-4.2251,2.2756,-0.0056,1.8328,-0.0838,-1.1545,-0.6463,-2.3054,-1.3829,1.7061,0.746,0.5592,-1.165
-0.0484,1.913,-3.4191,-4.2251,2.2756,-0.0056,1.8328,-0.0838,-1.1545,-0.6463,-2.3054,-1.3829,1.7061,0.746,0.5592,-1.165
-0.0735,1.8868,-3.4109,-4.2411,2.2161,-0.0047,1.8021,-0.0836,-1.1042,-0.6315,-2.3049,-1.3913,1.6258,0.8049,0.5496,-1.1642
-0.0735,1.8868,-3.4109,-4.2411,2.2161,-0.0047,1.8021,-0.0836,-1.1042,-0.6315,-2.3049,-1.3913,1.6258,0.8049,0.5496,-1.1642
-0.0544,1.88,-3.4106,-4.2375,2.2229,-0.0004,1.7926,-0.0845,-0.9865,-0.6404,-2.3053,-1.3944,1.5654,0.8467,0.5496,-1.1642
-0.0544,1.88,-3.4106,-4.2375,2.2229,-0.0004,1.7926,-0.0845,-0.9865,-0.6404,-2.3053,-1.3944,1.5654,0.8467,0.5496,-1.1642
-0.0163,1.8666,-3.4191,-4.2251,2.2365,0.0082,1.803,-0.0946,-0.9086,-0.6352,-2.3073,-1.3954,1.5135,0.8651,0.5817,-1.178
-0.0163,1.8666,-3.4191,-4.2251,2.2365,0.0082,1.803,-0.0946,-0.9086,-0.6352,-2.3073,-1.3954,1.5135,0.8651,0.5817,-1.178
-0.0163,1.8666,-3.4191,-4.2251,2.2365,0.0082,1.803,-0.0946,-0.9086,-0.6352,-2.3073,-1.3954,1.5135,0.8651,0.5817,-1.178
0.0082,1.8729,-3.4318,-4.215,2.2632,0.0122,1.8049,-0.0975,-0.9088,-0.5612,-2.3147,-1.396,1.4851,0.8495,0.6115,-1.1886
0.0082,1.8729,-3.4318,-4.215,2.2632,0.0122,1.8049,-0.0975,-0.9088,-0.5612,-2.3147,-1.396,1.4851,0.8495,0.6115,-1.1886
0.0082,1.8729,-3.4318,-4.215,2.2632,0.0122,1.8049,-0.0975,-0.9088,-0.5612,-2.3147,-1.396,1.4851,0.8495,0.6115,-1.1886
0.0427,1.8858,-3.4473,-4.2133,2.3622,-0.0025,1.7934,-0.0955,-0.9468,-0.5065,-2.3186,-1.4094,1.4395,0.7691,0.5522,-1.1549
0.0427,1.8858,-3.4473,-4.2133,2.3622,-0.0025,1.7934,-0.0955,-0.9468,-0.5065,-2.3186,-1.4094,1.4395,0.7691,0.5522,-1.1549
0.1103,1.8719,-3.4477,-4.2169,2.3505,0.0286,1.7794,-0.0948,-0.9332,-0.5112,-2.3226,-1.4113,1.4206,0.7405,0.5271,-1.1512
0.1103,1.8719,-3.4477,-4.2169,2.3505,0.0286,1.7794,-0.0948,-0.9332,-0.5112,-2.3226,-1.4113,1.4206,0.7405,0.5271,-1.1512
0.1682,1.8515,-3.4559,-4.2214,2.3305,0.0289,1.7738,-0.1014,-0.9152,-0.4927,-2.339,-1.3989,1.3981,0.7283,0.5081,-1.1495
0.1682,1.8515,-3.4559,-4.2214,2.3305,0.0289,1.7738,-0.1014,-0.9152,-0.4927,-2.339,-1.3989,1.3981,0.7283,0.5081,-1.1495
0.1648,1.8878,-3.4656,-4.2199,2.3043,0.0381,1.7771,-0.1111,-0.9262,-0.4473,-2.3525,-1.3909,1.4222,0.7046,0.5045,-1.1508
0.1648,1.8878,-3.4656,-4.2199,2.3043,0.0381,1.7771,-0.1111,-0.9262,-0.4473,-2.3525,-1.3909,1.4222,0.7046,0.5045,-1.1508
0.1648,1.8878,-3.4656,-4.2199,2.3043,0.0381,1.7771,-0.1111,-0.9262,-0.4473,-2.3525,-1.3909,1.4222,0.7046,0.5045,-1.1508
0.117,1.9148,-3.4683,-4.2282,2.2961,0.0073,1.7581,-0.1129,-0.9082,-0.4287,-2.3544,-1.3918,1.4828,0.6732,0.5032,-1.1554
0.117,1.9148,-3.4683,-4.2282,2.2961,0.0073,1.7581,-0.1129,-0.9082,-0.4287,-2.3544,-1.3918,1.4828,0.6732,0.5032,-1.1554
0.117,1.9148,-3.4683,-4.2282,2.2961,0.0073,1.7581,-0.1129,-0.9082,-0.4287,-2.3544,-1.3918,1.4828,0.6732,0.5032,-1.1554
0.0097,1.9125,-3.4667,-4.2511,2.2339,-0.0445,1.6941,-0.1179,-0.8443,-0.4762,-2.3791,-1.3979,1.4427,0.6974,0.4757,-1.1608
0.0097,1.9125,-3.4667,-4.2511,2.2339,-0.0445,1.6941,-0.1179,-0.8443,-0.4762,-2.3791,-1.3979,1.4427,0.6974,0.4757,-1.1608
0.0044,1.8993,-3.4794,-4.241,2.2209,-0.0399,1.6771,-0.1225,-0.823,-0.4921,-2.3974,-1.398,1.4073,0.7149,0.4909,-1.1763
0.0044,1.8993,-3.4794,-4.241,2.2209,-0.0399,1.6771,-0.1225,-0.823,-0.4921,-2.3974,-1.398,1.4073,0.7149,0.4909,-1.1763
-0.0056,1.8928,-3.4924,-4.2346,2.2468,-0.0491,1.671,-0.1331,-0.8519,-0.4652,-2.4176,-1.399,1.3971,0.7185,0.5038,-1.1885
-0.0056,1.8928,-3.4924,-4.2346,2.2468,-0.0491,1.671,-0.1331,-0.8519,-0.4652,-2.4176,-1.399,1.3971,0.7185,0.5038,-1.1885
-0.0056,1.8928,-3.4924,-4.2346,2.2468,-0.0491,1.671,-0.1331,-0.8519,-0.4652,-2.4176,-1.399,1.3971,0.7185,0.5038,-1.1885
-0.0251,1.8897,-3.5153,-4.2302,2.331,-0.0855,1.6629,-0.1409,-0.9185,-0.4583,-2.4386,-1.4063,1.3746,0.7064,0.4729,-1.1826
-0.0251,1.8897,-3.5153,-4.2302,2.331,-0.0855,1.6629,-0.1409,-0.9185,-0.4583,-2.4386,-1.4063,1.3746,0.7064,0.4729,-1.1826
-0.035,1.8832,-3.5273,-4.2334,2.3324,-0.0592,1.644,-0.1426,-1.0205,-0.4887,-2.4522,-1.4244,1.3261,0.6984,0.4208,-1.1718
-0.035,1.8832,-3.5273,-4.2334,2.3324,-0.0592,1.644,-0.1426,-1.0205,-0.4887,-2.4522,-1.4244,1.3261,0.6984,0.4208,-1.1718
-0.035,1.8832,-3.5273,-4.2334,2.3324,-0.0592,1.644,-0.1426,-1.0205,-0.4887,-2.4522,-1.4244,1.3261,0.6984,0.4208,-1.1718
0.0561,1.856,-3.5338,-4.2404,2.2844,0.0384,1.6454,-0.1495,-1.0451,-0.5706,-2.4816,-1.427,1.2798,0.7098,0.3852,-1.1718
0.0561,1.856,-3.5338,-4.2404,2.2844,0.0384,1.6454,-0.1495,-1.0451,-0.5706,-2.4816,-1.427,1.2798,0.7098,0.3852,-1.1718
0.0569,1.8757,-3.5359,-4.2415,2.2521,0.0566,1.6696,-0.1601,-1.0376,-0.5815,-2.4988,-1.421,1.29,0.7062,0.3863,-1.1798
0.0569,1.8757,-3.5359,-4.2415,2.2521,0.0566,1.6696,-0.1601,-1.0376,-0.5815,-2.4988,-1.421,1.29,0.7062,0.3863,-1.1798
0.0289,1.9057,-3.5458,-4.2436,2.2192,0.0614,1.6626,-0.1598,-1.0258,-0.5692,-2.5146,-1.417,1.3363,0.6948,0.3745,-1.1756
0.0289,1.9057,-3.5458,-4.2436,2.2192,0.0614,1.6626,-0.1598,-1.0258,-0.5692,-2.5146,-1.417,1.3363,0.6948,0.3745,-1.1756
0.0289,1.9057,-3.5458,-4.2436,2.2192,0.0614,1.6626,-0.1598,-1.0258,-0.5692,-2.5146,-1.417,1.3363,0.6948,0.3745,-1.1756
-0.0095,1.9192,-3.5503,-4.2494,2.2112,0.0306,1.6327,-0.1407,-1.0198,-0.5631,-2.5273,-1.4174,1.3624,0.6906,0.3557,-1.174
-0.0095,1.9192,-3.5503,-4.2494,2.2112,0.0306,1.6327,-0.1407,-1.0198,-0.5631,-2.5273,-1.4174,1.3624,0.6906,0.3557,-1.174
-0.0095,1.9192,-3.5503,-4.2494,2.2112,0.0306,1.6327,-0.1407,-1.0198,-0.5631,-2.5273,-1.4174,1.3624,0.6906,0.3557,-1.174
-0.0201,1.8929,-3.5366,-4.269,2.1759,-0.0173,1.572,-0.1257,-0.9057,-0.5952,-2.5344,-1.4296,1.3041,0.7414,0.319,-1.1787
-0.0201,1.8929,-3.5366,-4.269,2.1759,-0.0173,1.572,-0.1257,-0.9057,-0.5952,-2.5344,-1.4296,1.3041,0.7414,0.319,-1.1787
-0.0343,1.9029,-3.5489,-4.2554,2.1629,-0.0127,1.5582,-0.125,-0.8317,-0.6131,-2.5383,-1.4314,1.2781,0.7455,0.3236,-1.1853
-0.0343,1.9029,-3.5489,-4.2554,2.1629,-0.0127,1.5582,-0.125,-0.8317,-0.6131,-2.5383,-1.4314,1.2781,0.7455,0.3236,-1.1853
-0.0389,1.9096,-3.5611,-4.2418,2.1697,-0.0084,1.567,-0.1281,-0.8652,-0.5353,-2.5344,-1.4296,1.2522,0.7496,0.353,-1.1957
-0.0389,1.9096,-3.5611,-4.2418,2.1697,-0.0084,1.567,-0.1281,-0.8652,-0.5353,-2.5344,-1.4296,1.2522,0.7496,0.353,-1.1957
-0.0194,1.9127,-3.5567,-4.236,2.268,-0.0231,1.5878,-0.1291,-0.9185,-0.4583,-2.5232,-1.427,1.267,0.7394,0.3731,-1.1927
-0.0194,1.9127,-3.5567,-4.236,2.268,-0.0231,1.5878,-0.1291,-0.9185,-0.4583,-2.5232,-1.427,1.267,0.7394,0.3731,-1.1927
-0.0194,1.9127,-3.5567,-4.236,2.268,-0.0231,1.5878,-0.1291,-0.9185,-0.4583,-2.5232,-1.427,1.267,0.7394,0.3731,-1.1927
-0.0049,1.9126,-3.5526,-4.2337,2.3277,-0.024,1.613,-0.1317,-0.9832,-0.4687,-2.4942,-1.4389,1.2687,0.7037,0.3649,-1.1873
0.0193,1.9091,-3.5488,-4.2351,2.3229,0.0113,1.6363,-0.1314,-1.0145,-0.4825,-2.4707,-1.4391,1.2733,0.6971,0.3662,-1.1827
0.0193,1.9091,-3.5488,-4.2351,2.3229,0.0113,1.6363,-0.1314,-1.0145,-0.4825,-2.4707,-1.4391,1.2733,0.6971,0.3662,-1.1827
0.0626,1.8988,-3.5427,-4.2317,2.3243,0.0378,1.6665,-0.1315,-1.0069,-0.4935,-2.4621,-1.4176,1.3195,0.6857,0.3804,-1.1777
0.0626,1.8988,-3.5427,-4.2317,2.3243,0.0378,1.6665,-0.1315,-1.0069,-0.4935,-2.4621,-1.4176,1.3195,0.6857,0.3804,-1.1777
0.073,1.9152,-3.5331,-4.2332,2.325,0.0511,1.7192,-0.1395,-0.9858,-0.5092,-2.4559,-1.4002,1.3726,0.687,0.4124,-1.1789
0.073,1.9152,-3.5331,-4.2332,2.325,0.0511,1.7192,-0.1395,-0.9858,-0.5092,-2.4559,-1.4002,1.3726,0.687,0.4124,-1.1789
0.073,1.9152,-3.5331,-4.2332,2.325,0.0511,1.7192,-0.1395,-0.9858,-0.5092,-2.4559,-1.4002,1.3726,0.687,0.4124,-1.1789
0.0738,1.9351,-3.5311,-4.2321,2.3512,0.0419,1.7496,-0.1397,-0.9511,-0.5297,-2.4472,-1.3902,1.5023,0.6562,0.4431,-1.1847
0.0738,1.9351,-3.5311,-4.2321,2.3512,0.0419,1.7496,-0.1397,-0.9511,-0.5297,-2.4472,-1.3902,1.5023,0.6562,0.4431,-1.1847
0.0738,1.9351,-3.5311,-4.2321,2.3512,0.0419,1.7496,-0.1397,-0.9511,-0.5297,-2.4472,-1.3902,1.5023,0.6562,0.4431,-1.1847
0.0147,1.9157,-3.5198,-4.2564,2.2879,-0.0234,1.7335,-0.1212,-0.9435,-0.5407,-2.4325,-1.3889,1.6616,0.6402,0.4824,-1.1835
0.0147,1.9157,-3.5198,-4.2564,2.2879,-0.0234,1.7335,-0.1212,-0.9435,-0.5407,-2.4325,-1.3889,1.6616,0.6402,0.4824,-1.1835
-0.0056,1.8928,-3.5093,-4.2676,2.2543,-0.0316,1.7251,-0.114,-0.8908,-0.5428,-2.4166,-1.3928,1.6417,0.7028,0.5063,-1.1793
-0.0056,1.8928,-3.5093,-4.2676,2.2543,-0.0316,1.7251,-0.114,-0.8908,-0.5428,-2.4166,-1.3928,1.6417,0.7028,0.5063,-1.1793
0.0086,1.8828,-3.5069,-4.2629,2.2543,-0.0316,1.7301,-0.1115,-0.7833,-0.5642,-2.4023,-1.3946,1.6205,0.7559,0.5339,-1.1738
0.0086,1.8828,-3.5069,-4.2629,2.2543,-0.0316,1.7301,-0.1115,-0.7833,-0.5642,-2.4023,-1.3946,1.6205,0.7559,0.5339,-1.1738
0.0469,1.8692,-3.5058,-4.2521,2.2742,-0.0319,1.753,-0.1154,-0.7301,-0.5664,-2.39,-1.3973,1.5904,0.7767,0.59,-1.1835
0.0811,1.8722,-3.5047,-4.2414,2.3016,-0.0148,1.774,-0.1164,-0.7439,-0.4867,-2.3811,-1.3988,1.5754,0.7871,0.6486,-1.1966
0.0811,1.8722,-3.5047,-4.2414,2.3016,-0.0148,1.774,-0.1164,-0.7439,-0.4867,-2.3811,-1.3988,1.5754,0.7871,0.6486,-1.1966
0.0811,1.8722,-3.5047,-4.2414,2.3016,-0.0148,1.774,-0.1164,-0.7439,-0.4867,-2.3811,-1.3988,1.5754,0.7871,0.6486,-1.1966
0.1011,1.8852,-3.5064,-4.2389,2.3614,-0.0158,1.7816,-0.1127,-0.79,-0.4203,-2.3811,-1.3988,1.5743,0.7773,0.6548,-1.1861
0.1011,1.8852,-3.5064,-4.2389,2.3614,-0.0158,1.7816,-0.1127,-0.79,-0.4203,-2.3811,-1.3988,1.5743,0.7773,0.6548,-1.1861
0.1011,1.8852,-3.5064,-4.2389,2.3614,-0.0158,1.7816,-0.1127,-0.79,-0.4203,-2.3811,-1.3988,1.5743,0.7773,0.6548,-1.1861
0.1258,1.8916,-3.5102,-4.2376,2.4015,-0.0164,1.7886,-0.113,-0.8372,-0.412,-2.3735,-1.4097,1.5655,0.7449,0.6216,-1.1642
0.1258,1.8916,-3.5102,-4.2376,2.4015,-0.0164,1.7886,-0.113,-0.8372,-0.412,-2.3735,-1.4097,1.5655,0.7449,0.6216,-1.1642
0.2376,1.8671,-3.502,-4.2535,2.3643,0.0372,1.7791,-0.1139,-0.8476,-0.4417,-2.3651,-1.4143,1.553,0.729,0.562,-1.1432
0.2376,1.8671,-3.502,-4.2535,2.3643,0.0372,1.7791,-0.1139,-0.8476,-0.4417,-2.3651,-1.4143,1.553,0.729,0.562,-1.1432
0.2376,1.8671,-3.502,-4.2535,2.3643,0.0372,1.7791,-0.1139,-0.8476,-0.4417,-2.3651,-1.4143,1.553,0.729,0.562,-1.1432
0.2815,1.8567,-3.5058,-4.2521,2.338,0.0465,1.7855,-0.1183,-0.8339,-0.4466,-2.3756,-1.3991,1.5587,0.7321,0.5465,-1.1402
0.2815,1.8567,-3.5058,-4.2521,2.338,0.0465,1.7855,-0.1183,-0.8339,-0.4466,-2.3756,-1.3991,1.5587,0.7321,0.5465,-1.1402
0.2537,1.8967,-3.5116,-4.2519,2.2981,0.0471,1.8004,-0.13,-0.8295,-0.423,-2.3851,-1.3892,1.5909,0.7308,0.5488,-1.1436
0.2537,1.8967,-3.5116,-4.2519,2.2981,0.0471,1.8004,-0.13,-0.8295,-0.423,-2.3851,-1.3892,1.5909,0.7308,0.5488,-1.1436
0.2537,1.8967,-3.5116,-4.2519,2.2981,0.0471,1.8004,-0.13,-0.8295,-0.423,-2.3851,-1.3892,1.5909,0.7308,0.5488,-1.1436
0.2068,1.9538,-3.5099,-4.2544,2.2913,0.0427,1.8068,-0.1344,-0.8174,-0.4106,-2.3901,-1.3858,1.6554,0.7283,0.5594,-1.1524
0.2068,1.9538,-3.5099,-4.2544,2.2913,0.0427,1.8068,-0.1344,-0.8174,-0.4106,-2.3901,-1.3858,1.6554,0.7283,0.5594,-1.1524
0.0895,1.9649,-3.5045,-4.2785,2.2927,-0.0586,1.7385,-0.1187,-0.8235,-0.4168,-2.3999,-1.3905,1.7539,0.6885,0.5377,-1.16
0.0895,1.9649,-3.5045,-4.2785,2.2927,-0.0586,1.7385,-0.1187,-0.8235,-0.4168,-2.3999,-1.3905,1.7539,0.6885,0.5377,-1.16
0.0545,1.9419,-3.4906,-4.2945,2.2775,-0.0933,1.708,-0.1186,-0.8278,-0.4404,-2.4062,-1.3965,1.7201,0.7258,0.515,-1.1596
0.0545,1.9419,-3.4906,-4.2945,2.2775,-0.0933,1.708,-0.1186,-0.8278,-0.4404,-2.4062,-1.3965,1.7201,0.7258,0.515,-1.1596
0.0545,1.9419,-3.4906,-4.2945,2.2775,-0.0933,1.708,-0.1186,-0.8278,-0.4404,-2.4062,-1.3965,1.7201,0.7258,0.515,-1.1596
0.0346,1.9288,-3.4817,-4.3032,2.2516,-0.0841,1.6827,-0.116,-0.7714,-0.477,-2.4161,-1.4012,1.656,0.784,0.4924,-1.1592
0.0346,1.9288,-3.4817,-4.3032,2.2516,-0.0841,1.6827,-0.116,-0.7714,-0.477,-2.4161,-1.4012,1.656,0.784,0.4924,-1.1592
0.0346,1.9288,-3.4817,-4.3032,2.2516,-0.0841,1.6827,-0.116,-0.7714,-0.477,-2.4161,-1.4012,1.656,0.784,0.4924,-1.1592
0.0338,1.909,-3.4998,-4.2894,2.2325,-0.0707,1.6637,-0.1178,-0.7087,-0.5075,-2.4219,-1.404,1.6258,0.8049,0.4816,-1.1629
0.0338,1.909,-3.4998,-4.2894,2.2325,-0.0707,1.6637,-0.1178,-0.7087,-0.5075,-2.4219,-1.404,1.6258,0.8049,0.4816,-1.1629
0.0769,1.8887,-3.5339,-4.2607,2.3057,-0.0632,1.6729,-0.1359,-0.7669,-0.4535,-2.4406,-1.4073,1.6039,0.8024,0.511,-1.186
0.0769,1.8887,-3.5339,-4.2607,2.3057,-0.0632,1.6729,-0.1359,-0.7669,-0.4535,-2.4406,-1.4073,1.6039,0.8024,0.511,-1.186
0.0769,1.8887,-3.5339,-4.2607,2.3057,-0.0632,1.6729,-0.1359,-0.7669,-0.4535,-2.4406,-1.4073,1.6039,0.8024,0.511,-1.186
0.0815,1.8821,-3.553,-4.2577,2.3647,-0.0773,1.6654,-0.1396,-0.858,-0.4714,-2.4498,-1.4204,1.5676,0.7644,0.4693,-1.1839
0.0815,1.8821,-3.553,-4.2577,2.3647,-0.0773,1.6654,-0.1396,-0.858,-0.4714,-2.4498,-1.4204,1.5676,0.7644,0.4693,-1.1839
0.0865,1.8853,-3.5608,-4.2586,2.3607,-0.029,1.6585,-0.1393,-0.9392,-0.5174,-2.457,-1.4325,1.5117,0.7436,0.4242,-1.1831
0.0865,1.8853,-3.5608,-4.2586,2.3607,-0.029,1.6585,-0.1393,-0.9392,-0.5174,-2.457,-1.4325,1.5117,0.7436,0.4242,-1.1831
0.1346,1.8683,-3.5673,-4.2656,2.3105,0.0292,1.6471,-0.1374,-0.9555,-0.5529,-2.4683,-1.435,1.489,0.7314,0.3899,-1.1785
0.1346,1.8683,-3.5673,-4.2656,2.3105,0.0292,1.6471,-0.1374,-0.9555,-0.5529,-2.4683,-1.435,1.489,0.7314,0.3899,-1.1785
0.1346,1.8683,-3.5673,-4.2656,2.3105,0.0292,1.6471,-0.1374,-0.9555,-0.5529,-2.4683,-1.435,1.489,0.7314,0.3899,-1.1785
0.1635,1.8581,-3.5714,-4.2678,2.2851,0.0517,1.6554,-0.1446,-0.9268,-0.5795,-2.491,-1.4172,1.4936,0.7247,0.3827,-1.181
0.1635,1.8581,-3.5714,-4.2678,2.2851,0.0517,1.6554,-0.1446,-0.9268,-0.5795,-2.491,-1.4172,1.4936,0.7247,0.3827,-1.181
0.1635,1.8581,-3.5714,-4.2678,2.2851,0.0517,1.6554,-0.1446,-0.9268,-0.5795,-2.491,-1.4172,1.4936,0.7247,0.3827,-1.181
0.1316,1.9147,-3.5909,-4.2683,2.2515,0.0433,1.6829,-0.1649,-0.9044,-0.538,-2.5216,-1.4031,1.567,0.7089,0.372,-1.1848
0.1316,1.9147,-3.5909,-4.2683,2.2515,0.0433,1.6829,-0.1649,-0.9044,-0.538,-2.5216,-1.4031,1.567,0.7089,0.372,-1.1848
0.0834,1.9317,-3.6028,-4.2715,2.2304,0.0171,1.6543,-0.1526,-0.9196,-0.516,-2.5309,-1.4048,1.6188,0.6906,0.3544,-1.1786
0.0834,1.9317,-3.6028,-4.2715,2.2304,0.0171,1.6543,-0.1526,-0.9196,-0.516,-2.5309,-1.4048,1.6188,0.6906,0.3544,-1.1786
0.0542,1.932,-3.598,-4.2824,2.2092,-0.009,1.6143,-0.1385,-0.894,-0.5085,-2.5318,-1.411,1.6059,0.7205,0.3414,-1.179
0.0542,1.932,-3.598,-4.2824,2.2092,-0.009,1.6143,-0.1385,-0.894,-0.5085,-2.5318,-1.411,1.6059,0.7205,0.3414,-1.179
0.0542,1.932,-3.598,-4.2824,2.2092,-0.009,1.6143,-0.1385,-0.894,-0.5085,-2.5318,-1.411,1.6059,0.7205,0.3414,-1.179
0.0346,1.9288,-3.6018,-4.2811,2.1827,-0.013,1.5872,-0.1331,-0.8198,-0.5265,-2.5376,-1.4138,1.5655,0.7449,0.3307,-1.1828
0.0346,1.9288,-3.6018,-4.2811,2.1827,-0.013,1.5872,-0.1331,-0.8198,-0.5265,-2.5376,-1.4138,1.5655,0.7449,0.3307,-1.1828
0.0346,1.9288,-3.6018,-4.2811,2.1827,-0.013,1.5872,-0.1331,-0.8198,-0.5265,-2.5376,-1.4138,1.5655,0.7449,0.3307,-1.1828
0.0296,1.9255,-3.616,-4.2687,2.2216,-0.0268,1.561,-0.1387,-0.8673,-0.4431,-2.5477,-1.4216,1.4911,0.7509,0.3212,-1.1945
0.0296,1.9255,-3.616,-4.2687,2.2216,-0.0268,1.561,-0.1387,-0.8673,-0.4431,-2.5477,-1.4216,1.4911,0.7509,0.3212,-1.1945
0.0147,1.9157,-3.6201,-4.2709,2.2537,-0.0448,1.5486,-0.1448,-0.9262,-0.4473,-2.5441,-1.4343,1.4653,0.7095,0.266,-1.185
0.0047,1.9092,-3.6279,-4.2719,2.2413,-0.027,1.5318,-0.1494,-0.9891,-0.4749,-2.5356,-1.4503,1.4155,0.6919,0.218,-1.1856
0.0047,1.9092,-3.6279,-4.2719,2.2413,-0.027,1.5318,-0.1494,-0.9891,-0.4749,-2.5356,-1.4503,1.4155,0.6919,0.218,-1.1856
0.0047,1.9092,-3.6279,-4.2719,2.2413,-0.027,1.5318,-0.1494,-0.9891,-0.4749,-2.5356,-1.4503,1.4155,0.6919,0.218,-1.1856
0.0235,1.8925,-3.6357,-4.2728,2.1976,0.022,1.5155,-0.15,-1.0069,-0.4935,-2.5361,-1.4534,1.3997,0.6925,0.1887,-1.1878
0.0235,1.8925,-3.6357,-4.2728,2.1976,0.022,1.5155,-0.15,-1.0069,-0.4935,-2.5361,-1.4534,1.3997,0.6925,0.1887,-1.1878
0.0235,1.8925,-3.6357,-4.2728,2.1976,0.022,1.5155,-0.15,-1.0069,-0.4935,-2.5361,-1.4534,1.3997,0.6925,0.1887,-1.1878
0.0665,1.8724,-3.6449,-4.2677,2.1728,0.0576,1.5106,-0.1525,-0.9977,-0.5215,-2.55,-1.4371,1.3997,0.6925,0.1747,-1.1929
0.0665,1.8724,-3.6449,-4.2677,2.1728,0.0576,1.5106,-0.1525,-0.9977,-0.5215,-2.55,-1.4371,1.3997,0.6925,0.1747,-1.1929
0.0807,1.8623,-3.6486,-4.2664,2.1728,0.0576,1.5326,-0.1603,-0.9842,-0.5263,-2.561,-1.4136,1.4165,0.7016,0.1898,-1.1957
0.0577,1.8955,-3.6466,-4.2653,2.2118,0.0438,1.5665,-0.166,-0.9511,-0.5297,-2.5588,-1.3981,1.4802,0.6992,0.226,-1.2035
0.0577,1.8955,-3.6466,-4.2653,2.2118,0.0438,1.5665,-0.166,-0.9511,-0.5297,-2.5588,-1.3981,1.4802,0.6992,0.226,-1.2035
0.0342,1.9189,-3.6371,-4.2668,2.2378,0.0347,1.5947,-0.1633,-0.9527,-0.5126,-2.5472,-1.3925,1.5752,0.6858,0.2634,-1.2067
0.0342,1.9189,-3.6371,-4.2668,2.2378,0.0347,1.5947,-0.1633,-0.9527,-0.5126,-2.5472,-1.3925,1.5752,0.6858,0.2634,-1.2067
0.0342,1.9189,-3.6371,-4.2668,2.2378,0.0347,1.5947,-0.1633,-0.9527,-0.5126,-2.5472,-1.3925,1.5752,0.6858,0.2634,-1.2067
-0.0098,1.9093,-3.632,-4.2741,2.2099,0.0042,1.5895,-0.1508,-0.9527,-0.5126,-2.5306,-1.3902,1.6545,0.6729,0.3022,-1.2053
-0.0098,1.9093,-3.632,-4.2741,2.2099,0.0042,1.5895,-0.1508,-0.9527,-0.5126,-2.5306,-1.3902,1.6545,0.6729,0.3022,-1.2053
-0.0098,1.9093,-3.632,-4.2741,2.2099,0.0042,1.5895,-0.1508,-0.9527,-0.5126,-2.5306,-1.3902,1.6545,0.6729,0.3022,-1.2053
-0.0254,1.8798,-3.6021,-4.2847,2.2086,-0.0222,1.6049,-0.1394,-0.8592,-0.5291,-2.4855,-1.3914,1.6852,0.7534,0.3731,-1.1927
-0.0254,1.8798,-3.6021,-4.2847,2.2086,-0.0222,1.6049,-0.1394,-0.8592,-0.5291,-2.4855,-1.3914,1.6852,0.7534,0.3731,-1.1927
0.0029,1.8598,-3.5994,-4.2764,2.2216,-0.0268,1.6213,-0.1388,-0.8214,-0.5093,-2.4619,-1.3915,1.678,0.7865,0.4393,-1.1985
0.0029,1.8598,-3.5994,-4.2764,2.2216,-0.0268,1.6213,-0.1388,-0.8214,-0.5093,-2.4619,-1.3915,1.678,0.7865,0.4393,-1.1985
0.0323,1.8694,-3.5929,-4.2695,2.2879,-0.0234,1.6471,-0.1374,-0.8202,-0.4514,-2.4433,-1.3883,1.7104,0.7852,0.4868,-1.2027
0.0323,1.8694,-3.5929,-4.2695,2.2879,-0.0234,1.6471,-0.1374,-0.8202,-0.4514,-2.4433,-1.3883,1.7104,0.7852,0.4868,-1.2027
0.0523,1.8824,-3.5885,-4.2636,2.4062,-0.0517,1.6665,-0.1315,-0.8372,-0.412,-2.4301,-1.3848,1.7267,0.7846,0.4942,-1.1876
0.0523,1.8824,-3.5885,-4.2636,2.4062,-0.0517,1.6665,-0.1315,-0.8372,-0.412,-2.4301,-1.3848,1.7267,0.7846,0.4942,-1.1876
0.0523,1.8824,-3.5885,-4.2636,2.4062,-0.0517,1.6665,-0.1315,-0.8372,-0.412,-2.4301,-1.3848,1.7267,0.7846,0.4942,-1.1876
0.0623,1.8889,-3.581,-4.2663,2.4787,-0.0706,1.681,-0.1282,-0.8809,-0.4383,-2.4147,-1.3919,1.7339,0.7515,0.4685,-1.1634
0.0623,1.8889,-3.581,-4.2663,2.4787,-0.0706,1.681,-0.1282,-0.8809,-0.4383,-2.4147,-1.3919,1.7339,0.7515,0.4685,-1.1634
0.0623,1.8889,-3.581,-4.2663,2.4787,-0.0706,1.681,-0.1282,-0.8809,-0.4383,-2.4147,-1.3919,1.7339,0.7515,0.4685,-1.1634
0.1204,1.8784,-3.551,-4.2769,2.4562,0.0047,1.7038,-0.132,-0.894,-0.5085,-2.3631,-1.4134,1.7305,0.7221,0.4248,-1.1454
0.1204,1.8784,-3.551,-4.2769,2.4562,0.0047,1.7038,-0.132,-0.894,-0.5085,-2.3631,-1.4134,1.7305,0.7221,0.4248,-1.1454
0.1879,1.8545,-3.5435,-4.2795,2.4244,0.0363,1.7083,-0.1336,-0.8744,-0.5072,-2.3578,-1.4021,1.7479,0.7312,0.4307,-1.1475
0.227,1.8508,-3.5449,-4.2735,2.3857,0.0635,1.7351,-0.143,-0.8503,-0.4824,-2.3594,-1.3884,1.7559,0.7539,0.4461,-1.1504
0.227,1.8508,-3.5449,-4.2735,2.3857,0.0635,1.7351,-0.143,-0.8503,-0.4824,-2.3594,-1.3884,1.7559,0.7539,0.4461,-1.1504
0.227,1.8508,-3.5449,-4.2735,2.3857,0.0635,1.7351,-0.143,-0.8503,-0.4824,-2.3594,-1.3884,1.7559,0.7539,0.4461,-1.1504
0.1947,1.8974,-3.5445,-4.2699,2.3656,0.0638,1.7639,-0.1553,-0.8459,-0.459,-2.3655,-1.3797,1.7896,0.7624,0.4662,-1.16
0.1947,1.8974,-3.5445,-4.2699,2.3656,0.0638,1.7639,-0.1553,-0.8459,-0.459,-2.3655,-1.3797,1.7896,0.7624,0.4662,-1.16
0.1947,1.8974,-3.5445,-4.2699,2.3656,0.0638,1.7639,-0.1553,-0.8459,-0.459,-2.3655,-1.3797,1.7896,0.7624,0.4662,-1.16
0.1947,1.8974,-3.5445,-4.2699,2.3656,0.0638,1.7639,-0.1553,-0.8459,-0.459,-2.3655,-1.3797,1.7896,0.7624,0.4662,-1.16
0.1227,1.938,-3.5398,-4.2808,2.3822,-0.0029,1.7331,-0.1402,-0.8218,-0.4341,-2.3645,-1.3735,1.9289,0.7336,0.4803,-1.1676
0.1227,1.938,-3.5398,-4.2808,2.3822,-0.0029,1.7331,-0.1402,-0.8218,-0.4341,-2.3645,-1.3735,1.9289,0.7336,0.4803,-1.1676
0.0684,1.9219,-3.5313,-4.2931,2.3731,-0.0468,1.6949,-0.1288,-0.8141,-0.4452,-2.3635,-1.3788,1.9253,0.7502,0.4731,-1.1701
0.0684,1.9219,-3.5313,-4.2931,2.3731,-0.0468,1.6949,-0.1288,-0.8141,-0.4452,-2.3635,-1.3788,1.9253,0.7502,0.4731,-1.1701
0.053,1.9022,-3.5279,-4.298,2.3462,-0.0507,1.6696,-0.1263,-0.7301,-0.4916,-2.3724,-1.3773,1.8865,0.7948,0.4577,-1.1671
0.053,1.9022,-3.5279,-4.298,2.3462,-0.0507,1.6696,-0.1263,-0.7301,-0.4916,-2.3724,-1.3773,1.8865,0.7948,0.4577,-1.1671
0.0623,1.8889,-3.5401,-4.2844,2.3469,-0.0375,1.6493,-0.1212,-0.626,-0.5367,-2.3824,-1.3705,1.8665,0.8121,0.4554,-1.1638
0.0623,1.8889,-3.5401,-4.2844,2.3469,-0.0375,1.6493,-0.1212,-0.626,-0.5367,-2.3824,-1.3705,1.8665,0.8121,0.4554,-1.1638
0.0715,1.8756,-3.5578,-4.2671,2.3408,-0.0286,1.6482,-0.1293,-0.5998,-0.5293,-2.3928,-1.3668,1.8512,0.8227,0.4814,-1.1755
0.0715,1.8756,-3.5578,-4.2671,2.3408,-0.0286,1.6482,-0.1293,-0.5998,-0.5293,-2.3928,-1.3668,1.8512,0.8227,0.4814,-1.1755
0.0761,1.869,-3.5687,-4.2595,2.3869,-0.0382,1.6579,-0.1433,-0.6521,-0.469,-2.4002,-1.3675,1.8606,0.809,0.4896,-1.1809
0.0761,1.869,-3.5687,-4.2595,2.3869,-0.0382,1.6579,-0.1433,-0.6521,-0.469,-2.4002,-1.3675,1.8606,0.809,0.4896,-1.1809
0.0761,1.869,-3.5782,-4.258,2.505,-0.0799,1.6549,-0.1486,-0.7365,-0.4224,-2.41,-1.3722,1.8525,0.7862,0.4718,-1.1747
0.0761,1.869,-3.5782,-4.258,2.505,-0.0799,1.6549,-0.1486,-0.7365,-0.4224,-2.41,-1.3722,1.8525,0.7862,0.4718,-1.1747
0.0761,1.869,-3.5782,-4.258,2.505,-0.0799,1.6549,-0.1486,-0.7365,-0.4224,-2.41,-1.3722,1.8525,0.7862,0.4718,-1.1747
0.0569,1.8757,-3.5844,-4.2614,2.5252,-0.0803,1.6454,-0.1495,-0.8536,-0.448,-2.4127,-1.3909,1.7896,0.7624,0.4162,-1.1651
0.0569,1.8757,-3.583,-4.2674,2.5074,-0.0404,1.6385,-0.1492,-0.9365,-0.4769,-2.4042,-1.4071,1.7339,0.7515,0.3806,-1.1652
0.1003,1.8654,-3.5813,-4.2699,2.4702,0.0133,1.6385,-0.1492,-0.9332,-0.5112,-2.4141,-1.4003,1.7072,0.7558,0.3699,-1.1689
0.1003,1.8654,-3.5813,-4.2699,2.4702,0.0133,1.6385,-0.1492,-0.9332,-0.5112,-2.4141,-1.4003,1.7072,0.7558,0.3699,-1.1689
0.1342,1.8584,-3.5813,-4.2699,2.4383,0.0449,1.6538,-0.1567,-0.8892,-0.5598,-2.4305,-1.3879,1.6956,0.7497,0.3687,-1.1735
0.1342,1.8584,-3.5813,-4.2699,2.4383,0.0449,1.6538,-0.1567,-0.8892,-0.5598,-2.4305,-1.3879,1.6956,0.7497,0.3687,-1.1735
0.1342,1.8584,-3.5813,-4.2699,2.4383,0.0449,1.6538,-0.1567,-0.8892,-0.5598,-2.4305,-1.3879,1.6956,0.7497,0.3687,-1.1735
0.1157,1.885,-3.5834,-4.271,2.4182,0.0453,1.671,-0.167,-0.8772,-0.5476,-2.4404,-1.3811,1.7223,0.7454,0.371,-1.1769
0.1157,1.885,-3.5834,-4.271,2.4182,0.0453,1.671,-0.167,-0.8772,-0.5476,-2.4404,-1.3811,1.7223,0.7454,0.371,-1.1769
0.1157,1.885,-3.5834,-4.271,2.4182,0.0453,1.671,-0.167,-0.8772,-0.5476,-2.4404,-1.3811,1.7223,0.7454,0.371,-1.1769
0.073,1.9152,-3.5932,-4.273,2.3974,0.0323,1.6621,-0.1638,-0.8728,-0.5243,-2.4543,-1.3762,1.8014,0.7225,0.3592,-1.1727
0.073,1.9152,-3.5932,-4.273,2.3974,0.0323,1.6621,-0.1638,-0.8728,-0.5243,-2.4543,-1.3762,1.8014,0.7225,0.3592,-1.1727
0.073,1.9152,-3.5932,-4.273,2.3974,0.0323,1.6621,-0.1638,-0.8728,-0.5243,-2.4543,-1.3762,1.8014,0.7225,0.3592,-1.1727
0.073,1.9152,-3.5932,-4.273,2.3974,0.0323,1.6621,-0.1638,-0.8728,-0.5243,-2.4543,-1.3762,1.8014,0.7225,0.3592,-1.1727
0.004,1.8894,-3.5936,-4.2969,2.3208,-0.0283,1.5881,-0.144,-0.8531,-0.523,-2.4699,-1.3838,1.8189,0.7316,0.3156,-1.1674
0.004,1.8894,-3.5936,-4.2969,2.3208,-0.0283,1.5881,-0.144,-0.8531,-0.523,-2.4699,-1.3838,1.8189,0.7316,0.3156,-1.1674
0.004,1.8894,-3.5936,-4.2969,2.3208,-0.0283,1.5881,-0.144,-0.8531,-0.523,-2.4699,-1.3838,1.8189,0.7316,0.3156,-1.1674
0.004,1.8894,-3.5936,-4.2969,2.3208,-0.0283,1.5881,-0.144,-0.8531,-0.523,-2.4699,-1.3838,1.8189,0.7316,0.3156,-1.1674
0.0082,1.8729,-3.6079,-4.2845,2.3009,-0.028,1.5535,-0.1424,-0.7316,-0.5493,-2.4821,-1.3926,1.7256,0.7748,0.3142,-1.1845
0.0082,1.8729,-3.6079,-4.2845,2.3009,-0.028,1.5535,-0.1424,-0.7316,-0.5493,-2.4821,-1.3926,1.7256,0.7748,0.3142,-1.1845
0.004,1.8894,-3.6147,-4.2747,2.3477,-0.0243,1.5442,-0.1433,-0.7774,-0.4832,-2.4894,-1.3933,1.6931,0.776,0.3212,-1.1945
0.004,1.8894,-3.6218,-4.2685,2.42,-0.0432,1.5373,-0.143,-0.8383,-0.47,-2.5011,-1.399,1.6737,0.7473,0.2802,-1.18
0.004,1.8894,-3.6218,-4.2685,2.42,-0.0432,1.5373,-0.143,-0.8383,-0.47,-2.5011,-1.399,1.6737,0.7473,0.2802,-1.18
0.004,1.8894,-3.6201,-4.2709,2.4594,-0.0571,1.5323,-0.1454,-0.9016,-0.4975,-2.4994,-1.4126,1.6474,0.7058,0.2218,-1.1594
0.004,1.8894,-3.6201,-4.2709,2.4594,-0.0571,1.5323,-0.1454,-0.9016,-0.4975,-2.4994,-1.4126,1.6474,0.7058,0.2218,-1.1594
-0.0155,1.8863,-3.6337,-4.2717,2.4277,-0.0257,1.5205,-0.1476,-0.9647,-0.5249,-2.4958,-1.4253,1.6119,0.6779,0.1669,-1.15
-0.0155,1.8863,-3.6337,-4.2717,2.4277,-0.0257,1.5205,-0.1476,-0.9647,-0.5249,-2.4958,-1.4253,1.6119,0.6779,0.1669,-1.15
0.0274,1.8661,-3.6469,-4.2688,2.3898,0.0147,1.513,-0.1513,-0.9977,-0.5215,-2.4978,-1.4262,1.5855,0.6822,0.1355,-1.149
0.0274,1.8661,-3.6469,-4.2688,2.3898,0.0147,1.513,-0.1513,-0.9977,-0.5215,-2.4978,-1.4262,1.5855,0.6822,0.1355,-1.149
0.0511,1.8528,-3.6584,-4.2684,2.3636,0.024,1.5144,-0.1581,-0.9706,-0.5311,-2.5137,-1.4108,1.5912,0.6852,0.1249,-1.1528
0.0511,1.8528,-3.6584,-4.2684,2.3636,0.024,1.5144,-0.1581,-0.9706,-0.5311,-2.5137,-1.4108,1.5912,0.6852,0.1249,-1.1528
0.0511,1.8528,-3.6584,-4.2684,2.3636,0.024,1.5144,-0.1581,-0.9706,-0.5311,-2.5137,-1.4108,1.5912,0.6852,0.1249,-1.1528
0.0327,1.8793,-3.6683,-4.2705,2.3574,0.0329,1.5202,-0.1664,-0.9511,-0.5297,-2.5304,-1.4017,1.6234,0.6839,0.1284,-1.164
0.0327,1.8793,-3.6683,-4.2705,2.3574,0.0329,1.5202,-0.1664,-0.9511,-0.5297,-2.5304,-1.4017,1.6234,0.6839,0.1284,-1.164
0.0327,1.8793,-3.6683,-4.2705,2.3574,0.0329,1.5202,-0.1664,-0.9511,-0.5297,-2.5304,-1.4017,1.6234,0.6839,0.1284,-1.164
-0.0784,1.8835,-3.6798,-4.2904,2.2756,-0.0056,1.4634,-0.1611,-0.9468,-0.5065,-2.5623,-1.3969,1.6775,0.685,0.1142,-1.1815
-0.0784,1.8835,-3.6798,-4.2904,2.2756,-0.0056,1.4634,-0.1611,-0.9468,-0.5065,-2.5623,-1.3969,1.6775,0.685,0.1142,-1.1815
-0.1077,1.8739,-3.6821,-4.295,2.242,-0.0139,1.4472,-0.1617,-0.8788,-0.5305,-2.5711,-1.3954,1.6485,0.7155,0.1153,-1.1894
-0.1077,1.8739,-3.6821,-4.295,2.242,-0.0139,1.4472,-0.1617,-0.8788,-0.5305,-2.5711,-1.3954,1.6485,0.7155,0.1153,-1.1894
-0.1034,1.8575,-3.6889,-4.2853,2.2352,-0.0182,1.4428,-0.1601,-0.8531,-0.523,-2.5657,-1.3957,1.6403,0.7387,0.1594,-1.2025
-0.1034,1.8575,-3.6889,-4.2853,2.2352,-0.0182,1.4428,-0.1601,-0.8531,-0.523,-2.5657,-1.3957,1.6403,0.7387,0.1594,-1.2025
-0.1034,1.8575,-3.6889,-4.2853,2.2352,-0.0182,1.4428,-0.1601,-0.8531,-0.523,-2.5657,-1.3957,1.6403,0.7387,0.1594,-1.2025
-0.1034,1.8575,-3.6956,-4.2756,2.2872,-0.0365,1.4546,-0.158,-0.8793,-0.4556,-2.554,-1.39,1.6414,0.7485,0.1944,-1.2023
-0.1034,1.8575,-3.6956,-4.2756,2.2872,-0.0365,1.4546,-0.158,-0.8793,-0.4556,-2.554,-1.39,1.6414,0.7485,0.1944,-1.2023
-0.1034,1.8575,-3.6956,-4.2756,2.2872,-0.0365,1.4546,-0.158,-0.8793,-0.4556,-2.554,-1.39,1.6414,0.7485,0.1944,-1.2023
-0.0795,1.854,-3.6946,-4.2649,2.4254,-0.0653,1.4905,-0.1475,-0.962,-0.4845,-2.5173,-1.3981,1.6521,0.6991,0.1971,-1.1682
-0.0795,1.854,-3.6946,-4.2649,2.4254,-0.0653,1.4905,-0.1475,-0.962,-0.4845,-2.5173,-1.3981,1.6521,0.6991,0.1971,-1.1682
-0.0795,1.854,-3.6946,-4.2649,2.4254,-0.0653,1.4905,-0.1475,-0.962,-0.4845,-2.5173,-1.3981,1.6521,0.6991,0.1971,-1.1682
-0.065,1.8539,-3.6743,-4.2739,2.4208,-0.03,1.5141,-0.1432,-0.9587,-0.5188,-2.4804,-1.4063,1.6614,0.6857,0.2066,-1.1565
-0.065,1.8539,-3.6743,-4.2739,2.4208,-0.03,1.5141,-0.1432,-0.9587,-0.5188,-2.4804,-1.4063,1.6614,0.6857,0.2066,-1.1565
-0.0029,1.8369,-3.6595,-4.2791,2.3836,0.0236,1.5309,-0.1386,-0.9164,-0.5502,-2.4633,-1.4009,1.6833,0.6881,0.2207,-1.1515
-0.0029,1.8369,-3.6595,-4.2791,2.3836,0.0236,1.5309,-0.1386,-0.9164,-0.5502,-2.4633,-1.4009,1.6833,0.6881,0.2207,-1.1515
0.0549,1.8264,-3.6496,-4.2771,2.3781,0.0459,1.5698,-0.1418,-0.8772,-0.5476,-2.4498,-1.3828,1.7225,0.6995,0.2512,-1.1446
0.0549,1.8264,-3.6496,-4.2771,2.3781,0.0459,1.5698,-0.1418,-0.8772,-0.5476,-2.4498,-1.3828,1.7225,0.6995,0.2512,-1.1446
0.0373,1.8726,-3.6306,-4.2801,2.3898,0.0147,1.6143,-0.1385,-0.8246,-0.4749,-2.4136,-1.3594,1.9136,0.6981,0.3384,-1.1427
0.0373,1.8726,-3.6306,-4.2801,2.3898,0.0147,1.6143,-0.1385,-0.8246,-0.4749,-2.4136,-1.3594,1.9136,0.6981,0.3384,-1.1427
0.0373,1.8726,-3.6306,-4.2801,2.3898,0.0147,1.6143,-0.1385,-0.8246,-0.4749,-2.4136,-1.3594,1.9136,0.6981,0.3384,-1.1427
0.0082,1.8729,-3.6086,-4.2916,2.3945,-0.0207,1.6149,-0.1345,-0.7988,-0.4673,-2.3984,-1.355,1.9442,0.7231,0.3621,-1.1384
0.0082,1.8729,-3.6086,-4.2916,2.3945,-0.0207,1.6149,-0.1345,-0.7988,-0.4673,-2.3984,-1.355,1.9442,0.7231,0.3621,-1.1384
0.0082,1.8729,-3.6086,-4.2916,2.3945,-0.0207,1.6149,-0.1345,-0.7988,-0.4673,-2.3984,-1.355,1.9442,0.7231,0.3621,-1.1384
-0.0063,1.873,-3.6004,-4.2871,2.4007,-0.0296,1.6174,-0.1332,-0.7042,-0.4841,-2.3866,-1.3493,1.9477,0.7526,0.3881,-1.1375
-0.0063,1.873,-3.6004,-4.2871,2.4007,-0.0296,1.6174,-0.1332,-0.7042,-0.4841,-2.3866,-1.3493,1.9477,0.7526,0.3881,-1.1375
-0.0063,1.873,-3.6004,-4.2871,2.4007,-0.0296,1.6174,-0.1332,-0.7042,-0.4841,-2.3866,-1.3493,1.9477,0.7526,0.3881,-1.1375
0.0128,1.8663,-3.5973,-4.2753,2.4138,-0.0343,1.6288,-0.1351,-0.6935,-0.4543,-2.3802,-1.3433,1.9547,0.7655,0.4307,-1.1475
0.0128,1.8663,-3.5973,-4.2753,2.4138,-0.0343,1.6288,-0.1351,-0.6935,-0.4543,-2.3802,-1.3433,1.9547,0.7655,0.4307,-1.1475
0.0082,1.8729,-3.6021,-4.2644,2.4865,-0.0532,1.6376,-0.1383,-0.7244,-0.4099,-2.3768,-1.3445,1.9701,0.755,0.4473,-1.1458
0.0369,1.8628,-3.5946,-4.267,2.554,-0.0501,1.6282,-0.1392,-0.8492,-0.4244,-2.3671,-1.366,1.9277,0.7238,0.3929,-1.1316
0.0369,1.8628,-3.5946,-4.267,2.554,-0.0501,1.6282,-0.1392,-0.8492,-0.4244,-2.3671,-1.366,1.9277,0.7238,0.3929,-1.1316
0.0369,1.8628,-3.5946,-4.267,2.554,-0.0501,1.6282,-0.1392,-0.8492,-0.4244,-2.3671,-1.366,1.9277,0.7238,0.3929,-1.1316
0.0369,1.8628,-3.5946,-4.267,2.554,-0.0501,1.6282,-0.1392,-0.8492,-0.4244,-2.3671,-1.366,1.9277,0.7238,0.3929,-1.1316
0.0991,1.8358,-3.5946,-4.267,2.5292,-0.0143,1.6302,-0.142,-0.8459,-0.459,-2.3771,-1.3592,1.896,0.735,0.3953,-1.135
0.0991,1.8358,-3.5946,-4.267,2.5292,-0.0143,1.6302,-0.142,-0.8459,-0.459,-2.3771,-1.3592,1.896,0.735,0.3953,-1.135
0.1183,1.829,-3.5943,-4.2634,2.5097,-0.0006,1.6563,-0.1554,-0.823,-0.4921,-2.3846,-1.3483,1.8702,0.7492,0.4035,-1.1404
0.1183,1.829,-3.5943,-4.2634,2.5097,-0.0006,1.6563,-0.1554,-0.823,-0.4921,-2.3846,-1.3483,1.8702,0.7492,0.4035,-1.1404
0.0907,1.8688,-3.5905,-4.2648,2.5027,-0.0049,1.676,-0.1645,-0.8306,-0.4811,-2.3946,-1.3415,1.8913,0.7418,0.4117,-1.1458
0.0907,1.8688,-3.5905,-4.2648,2.5027,-0.0049,1.676,-0.1645,-0.8306,-0.4811,-2.3946,-1.3415,1.8913,0.7418,0.4117,-1.1458
0.0907,1.8688,-3.5905,-4.2648,2.5027,-0.0049,1.676,-0.1645,-0.8306,-0.4811,-2.3946,-1.3415,1.8913,0.7418,0.4117,-1.1458
0.0147,1.9157,-3.5909,-4.2683,2.5012,-0.0314,1.6504,-0.147,-0.8383,-0.47,-2.4094,-1.3428,2.0077,0.7007,0.3894,-1.1329
0.0147,1.9157,-3.5909,-4.2683,2.5012,-0.0314,1.6504,-0.147,-0.8383,-0.47,-2.4094,-1.3428,2.0077,0.7007,0.3894,-1.1329
-0.0006,1.8961,-3.5824,-4.2806,2.4795,-0.0575,1.6188,-0.1401,-0.8169,-0.4859,-2.4038,-1.3547,1.9983,0.7142,0.374,-1.13
-0.0006,1.8961,-3.5824,-4.2806,2.4795,-0.0575,1.6188,-0.1401,-0.8169,-0.4859,-2.4038,-1.3547,1.9983,0.7142,0.374,-1.13
-0.0006,1.8961,-3.5824,-4.2806,2.4795,-0.0575,1.6188,-0.1401,-0.8169,-0.4859,-2.4038,-1.3547,1.9983,0.7142,0.374,-1.13
0.0082,1.8729,-3.5858,-4.2757,2.4725,-0.0617,1.5986,-0.135,-0.7606,-0.5225,-2.4067,-1.3619,1.9618,0.7322,0.3669,-1.1325
0.0082,1.8729,-3.5858,-4.2757,2.4725,-0.0617,1.5986,-0.135,-0.7606,-0.5225,-2.4067,-1.3619,1.9618,0.7322,0.3669,-1.1325
0.0082,1.8729,-3.5858,-4.2757,2.4725,-0.0617,1.5986,-0.135,-0.7606,-0.5225,-2.4067,-1.3619,1.9618,0.7322,0.3669,-1.1325
0.0231,1.8827,-3.5919,-4.2587,2.5796,-0.0726,1.6005,-0.1378,-0.8021,-0.4327,-2.4145,-1.3657,1.9124,0.7343,0.3928,-1.1442
0.0231,1.8827,-3.5919,-4.2587,2.5796,-0.0726,1.6005,-0.1378,-0.8021,-0.4327,-2.4145,-1.3657,1.9124,0.7343,0.3928,-1.1442
0.0327,1.8793,-3.5844,-4.2614,2.6529,-0.0918,1.6005,-0.1378,-0.8262,-0.4576,-2.4213,-1.3748,1.882,0.7093,0.3515,-1.1296
0.0327,1.8793,-3.5844,-4.2614,2.6529,-0.0918,1.6005,-0.1378,-0.8262,-0.4576,-2.4213,-1.3748,1.882,0.7093,0.3515,-1.1296
0.0327,1.8793,-3.5827,-4.2638,2.6413,-0.0607,1.5936,-0.1375,-0.8836,-0.479,-2.4142,-1.3888,1.8458,0.6814,0.2997,-1.1189
0.0327,1.8793,-3.5827,-4.2638,2.6413,-0.0607,1.5936,-0.1375,-0.8836,-0.479,-2.4142,-1.3888,1.8458,0.6814,0.2997,-1.1189
0.0327,1.8793,-3.5827,-4.2638,2.6413,-0.0607,1.5936,-0.1375,-0.8836,-0.479,-2.4142,-1.3888,1.8458,0.6814,0.2997,-1.1189
0.0661,1.8625,-3.5844,-4.2614,2.6094,-0.0291,1.5911,-0.1387,-0.888,-0.5023,-2.4227,-1.3841,1.8283,0.6723,0.2656,-1.1144
0.0661,1.8625,-3.5844,-4.2614,2.6094,-0.0291,1.5911,-0.1387,-0.888,-0.5023,-2.4227,-1.3841,1.8283,0.6723,0.2656,-1.1144
0.0661,1.8625,-3.5844,-4.2614,2.6094,-0.0291,1.5911,-0.1387,-0.888,-0.5023,-2.4227,-1.3841,1.8283,0.6723,0.2656,-1.1144
0.0427,1.8858,-3.6051,-4.2559,2.5688,-0.0283,1.5905,-0.1428,-0.8684,-0.501,-2.4391,-1.3718,1.8656,0.6642,0.2561,-1.1262
0.0427,1.8858,-3.6051,-4.2559,2.5688,-0.0283,1.5905,-0.1428,-0.8684,-0.501,-2.4391,-1.3718,1.8656,0.6642,0.2561,-1.1262
-0.006,1.8829,-3.6062,-4.2666,2.5144,-0.0361,1.5634,-0.1374,-0.8624,-0.4948,-2.446,-1.3693,1.8726,0.677,0.2467,-1.1254
-0.006,1.8829,-3.6062,-4.2666,2.5144,-0.0361,1.5634,-0.1374,-0.8624,-0.4948,-2.446,-1.3693,1.8726,0.677,0.2467,-1.1254
-0.0258,1.8699,-3.6123,-4.27,2.4741,-0.0353,1.5428,-0.1365,-0.8017,-0.5079,-2.4568,-1.3688,1.8539,0.7039,0.2397,-1.128
-0.0258,1.8699,-3.6123,-4.27,2.4741,-0.0353,1.5428,-0.1365,-0.8017,-0.5079,-2.4568,-1.3688,1.8539,0.7039,0.2397,-1.128
-0.0258,1.8699,-3.6123,-4.27,2.4741,-0.0353,1.5428,-0.1365,-0.8017,-0.5079,-2.4568,-1.3688,1.8539,0.7039,0.2397,-1.128
-0.0216,1.8535,-3.6269,-4.2612,2.447,-0.0393,1.5353,-0.1402,-0.7545,-0.5163,-2.4623,-1.3685,1.8446,0.7174,0.256,-1.1388
-0.0216,1.8535,-3.6269,-4.2612,2.447,-0.0393,1.5353,-0.1402,-0.7545,-0.5163,-2.4623,-1.3685,1.8446,0.7174,0.256,-1.1388
-0.0315,1.847,-3.6547,-4.2495,2.4663,-0.0528,1.5147,-0.1392,-0.8389,-0.3946,-2.4849,-1.3621,1.7862,0.7329,0.2723,-1.1496
-0.0315,1.847,-3.6547,-4.2495,2.4663,-0.0528,1.5147,-0.1392,-0.8389,-0.3946,-2.4849,-1.3621,1.7862,0.7329,0.2723,-1.1496
-0.0315,1.847,-3.6547,-4.2495,2.4663,-0.0528,1.5147,-0.1392,-0.8389,-0.3946,-2.4849,-1.3621,1.7862,0.7329,0.2723,-1.1496
-0.0315,1.847,-3.6547,-4.2495,2.4663,-0.0528,1.5147,-0.1392,-0.8389,-0.3946,-2.4849,-1.3621,1.7862,0.7329,0.2723,-1.1496
-0.0456,1.857,-3.6679,-4.2467,2.4988,-0.071,1.5034,-0.1373,-0.9133,-0.3767,-2.4897,-1.3703,1.7572,0.7177,0.2395,-1.1405
-0.0456,1.857,-3.6679,-4.2467,2.4988,-0.071,1.5034,-0.1373,-0.9133,-0.3767,-2.4897,-1.3703,1.7572,0.7177,0.2395,-1.1405
-0.0456,1.857,-3.6679,-4.2467,2.4988,-0.071,1.5034,-0.1373,-0.9133,-0.3767,-2.4897,-1.3703,1.7572,0.7177,0.2395,-1.1405
0.0017,1.8303,-3.673,-4.2596,2.4408,-0.0303,1.4836,-0.1472,-0.9372,-0.4017,-2.5089,-1.3651,1.7388,0.6989,0.1823,-1.1278
0.0017,1.8303,-3.673,-4.2596,2.4408,-0.0303,1.4836,-0.1472,-0.9372,-0.4017,-2.5089,-1.3651,1.7388,0.6989,0.1823,-1.1278
0.0017,1.8303,-3.673,-4.2596,2.4408,-0.0303,1.4836,-0.1472,-0.9372,-0.4017,-2.5089,-1.3651,1.7388,0.6989,0.1823,-1.1278
-0.0396,1.8898,-3.6845,-4.2592,2.3876,-0.025,1.485,-0.154,-0.9133,-0.3767,-2.5257,-1.3559,1.8073,0.6797,0.1671,-1.125
-0.0396,1.8898,-3.6845,-4.2592,2.3876,-0.025,1.485,-0.154,-0.9133,-0.3767,-2.5257,-1.3559,1.8073,0.6797,0.1671,-1.125
-0.0396,1.8898,-3.6845,-4.2592,2.3876,-0.025,1.485,-0.154,-0.9133,-0.3767,-2.5257,-1.3559,1.8073,0.6797,0.1671,-1.125
-0.0735,1.8868,-3.6892,-4.2686,2.3785,-0.0688,1.4537,-0.1471,-0.9056,-0.3878,-2.5247,-1.3612,1.8644,0.6545,0.1532,-1.1175
-0.0735,1.8868,-3.6892,-4.2686,2.3785,-0.0688,1.4537,-0.1471,-0.9056,-0.3878,-2.5247,-1.3612,1.8644,0.6545,0.1532,-1.1175
-0.127,1.8708,-3.6889,-4.2853,2.3165,-0.1071,1.4132,-0.1412,-0.9372,-0.4017,-2.531,-1.3672,1.8388,0.6686,0.131,-1.1173
-0.127,1.8708,-3.6889,-4.2853,2.3165,-0.1071,1.4132,-0.1412,-0.9372,-0.4017,-2.531,-1.3672,1.8388,0.6686,0.131,-1.1173
-0.127,1.8708,-3.6889,-4.2853,2.3165,-0.1071,1.4132,-0.1412,-0.9372,-0.4017,-2.531,-1.3672,1.8388,0.6686,0.131,-1.1173
-0.1565,1.8513,-3.6913,-4.29,2.2829,-0.1152,1.3858,-0.14,-0.8946,-0.4335,-2.5417,-1.3666,1.7793,0.7201,0.1101,-1.1124
-0.1474,1.8382,-3.7017,-4.2789,2.2699,-0.1106,1.3703,-0.1366,-0.8383,-0.47,-2.5535,-1.3608,1.7281,0.7484,0.1124,-1.1157
-0.1474,1.8382,-3.7017,-4.2789,2.2699,-0.1106,1.3703,-0.1366,-0.8383,-0.47,-2.5535,-1.3608,1.7281,0.7484,0.1124,-1.1157
-0.1189,1.8281,-3.7115,-4.2607,2.2775,-0.0933,1.3815,-0.1384,-0.8109,-0.4797,-2.5551,-1.3586,1.7176,0.7521,0.167,-1.1375
-0.1189,1.8281,-3.7115,-4.2607,2.2775,-0.0933,1.3815,-0.1384,-0.8109,-0.4797,-2.5551,-1.3586,1.7176,0.7521,0.167,-1.1375
-0.1189,1.8281,-3.7115,-4.2607,2.2775,-0.0933,1.3815,-0.1384,-0.8109,-0.4797,-2.5551,-1.3586,1.7176,0.7521,0.167,-1.1375
-0.0996,1.8312,-3.718,-4.2474,2.3172,-0.094,1.4058,-0.1449,-0.8569,-0.4134,-2.5488,-1.3527,1.7595,0.7373,0.2324,-1.1556
-0.0996,1.8312,-3.718,-4.2474,2.3172,-0.094,1.4058,-0.1449,-0.8569,-0.4134,-2.5488,-1.3527,1.7595,0.7373,0.2324,-1.1556
-0.0996,1.8312,-3.718,-4.2474,2.3172,-0.094,1.4058,-0.1449,-0.8569,-0.4134,-2.5488,-1.3527,1.7595,0.7373,0.2324,-1.1556
-0.0799,1.8442,-3.7062,-4.2442,2.4632,-0.1054,1.4542,-0.1431,-0.9568,-0.4031,-2.512,-1.3608,1.7828,0.7036,0.2303,-1.1272
-0.0799,1.8442,-3.7062,-4.2442,2.4632,-0.1054,1.4542,-0.1431,-0.9568,-0.4031,-2.512,-1.3608,1.7828,0.7036,0.2303,-1.1272
-0.0799,1.8442,-3.7062,-4.2442,2.4632,-0.1054,1.4542,-0.1431,-0.9568,-0.4031,-2.512,-1.3608,1.7828,0.7036,0.2303,-1.1272
-0.0273,1.8306,-3.6913,-4.2495,2.4717,-0.0749,1.4753,-0.1401,-0.961,-0.4267,-2.4884,-1.3609,1.7886,0.7066,0.2246,-1.1125
-0.0273,1.8306,-3.6913,-4.2495,2.4717,-0.0749,1.4753,-0.1401,-0.961,-0.4267,-2.4884,-1.3609,1.7886,0.7066,0.2246,-1.1125
0.0449,1.82,-3.676,-4.2512,2.4741,-0.0353,1.5102,-0.1376,-0.9185,-0.4583,-2.4739,-1.348,1.8108,0.709,0.2422,-1.1062
0.0511,1.8528,-3.6625,-4.2504,2.4617,-0.0175,1.551,-0.1436,-0.8853,-0.4618,-2.4598,-1.3382,1.8492,0.7107,0.2716,-1.1039
0.0511,1.8528,-3.6625,-4.2504,2.4617,-0.0175,1.551,-0.1436,-0.8853,-0.4618,-2.4598,-1.3382,1.8492,0.7107,0.2716,-1.1039
0.0385,1.9023,-3.6489,-4.2497,2.495,-0.0225,1.5817,-0.1397,-0.8749,-0.4321,-2.451,-1.3281,1.9559,0.6832,0.2847,-1.0908
0.0385,1.9023,-3.6489,-4.2497,2.495,-0.0225,1.5817,-0.1397,-0.8749,-0.4321,-2.451,-1.3281,1.9559,0.6832,0.2847,-1.0908
0.0147,1.9157,-3.636,-4.2561,2.5004,-0.0446,1.5769,-0.1232,-0.8492,-0.4244,-2.4413,-1.3234,2.0418,0.6631,0.2942,-1.079
0.0147,1.9157,-3.636,-4.2561,2.5004,-0.0446,1.5769,-0.1232,-0.8492,-0.4244,-2.4413,-1.3234,2.0418,0.6631,0.2942,-1.079
-0.0052,1.9027,-3.6102,-4.2689,2.5182,-0.0846,1.5648,-0.1104,-0.8141,-0.4452,-2.4254,-1.3273,2.0537,0.6691,0.3013,-1.0765
-0.0052,1.9027,-3.6102,-4.2689,2.5182,-0.0846,1.5648,-0.1104,-0.8141,-0.4452,-2.4254,-1.3273,2.0537,0.6691,0.3013,-1.0765
-0.006,1.8829,-3.5932,-4.273,2.5042,-0.0931,1.5559,-0.1073,-0.7256,-0.4681,-2.4111,-1.3291,2.0408,0.6992,0.3084,-1.0739
-0.006,1.8829,-3.5932,-4.273,2.5042,-0.0931,1.5559,-0.1073,-0.7256,-0.4681,-2.4111,-1.3291,2.0408,0.6992,0.3084,-1.0739
-0.0017,1.8664,-3.5956,-4.2574,2.5104,-0.102,1.5578,-0.1101,-0.6782,-0.4765,-2.4037,-1.3284,1.9889,0.7278,0.3343,-1.0856
-0.0017,1.8664,-3.5956,-4.2574,2.5104,-0.102,1.5578,-0.1101,-0.6782,-0.4765,-2.4037,-1.3284,1.9889,0.7278,0.3343,-1.0856
-0.0017,1.8664,-3.5956,-4.2574,2.5104,-0.102,1.5578,-0.1101,-0.6782,-0.4765,-2.4037,-1.3284,1.9889,0.7278,0.3343,-1.0856
0.0178,1.8695,-3.6,-4.2429,2.5709,-0.1032,1.5667,-0.1132,-0.6967,-0.4196,-2.3998,-1.3265,1.963,0.7421,0.3579,-1.0939
0.0178,1.8695,-3.6,-4.2429,2.5709,-0.1032,1.5667,-0.1132,-0.6967,-0.4196,-2.3998,-1.3265,1.963,0.7421,0.3579,-1.0939
0.0178,1.8695,-3.6,-4.2429,2.5709,-0.1032,1.5667,-0.1132,-0.6967,-0.4196,-2.3998,-1.3265,1.963,0.7421,0.3579,-1.0939
0.0132,1.8762,-3.6051,-4.2356,2.6705,-0.1317,1.5642,-0.1144,-0.758,-0.4064,-2.4026,-1.3337,1.9265,0.714,0.3318,-1.0948
0.0132,1.8762,-3.6034,-4.238,2.6794,-0.1011,1.5637,-0.1185,-0.8218,-0.4341,-2.399,-1.3465,1.8843,0.683,0.2882,-1.0896
0.0465,1.8594,-3.6071,-4.2367,2.6492,-0.0431,1.5651,-0.1253,-0.8536,-0.448,-2.4025,-1.3453,1.8563,0.6777,0.2541,-1.0851
0.0465,1.8594,-3.6071,-4.2367,2.6492,-0.0431,1.5651,-0.1253,-0.8536,-0.448,-2.4025,-1.3453,1.8563,0.6777,0.2541,-1.0851
0.0465,1.8594,-3.6071,-4.2367,2.6492,-0.0431,1.5651,-0.1253,-0.8536,-0.448,-2.4025,-1.3453,1.8563,0.6777,0.2541,-1.0851
0.0703,1.846,-3.6129,-4.2365,2.6102,-0.0158,1.5798,-0.1369,-0.8383,-0.47,-2.4135,-1.3332,1.8446,0.6716,0.2377,-1.0869
0.0703,1.846,-3.6129,-4.2365,2.6102,-0.0158,1.5798,-0.1369,-0.8383,-0.47,-2.4135,-1.3332,1.8446,0.6716,0.2377,-1.0869
0.0703,1.846,-3.6129,-4.2365,2.6102,-0.0158,1.5798,-0.1369,-0.8383,-0.47,-2.4135,-1.3332,1.8446,0.6716,0.2377,-1.0869
0.0323,1.8694,-3.6323,-4.2371,2.5883,-0.0419,1.5911,-0.1387,-0.829,-0.4983,-2.4339,-1.3227,1.9346,0.6449,0.2259,-1.0953
0.0323,1.8694,-3.6323,-4.2371,2.5883,-0.0419,1.5911,-0.1387,-0.829,-0.4983,-2.4339,-1.3227,1.9346,0.6449,0.2259,-1.0953
0.0323,1.8694,-3.6323,-4.2371,2.5883,-0.0419,1.5911,-0.1387,-0.829,-0.4983,-2.4339,-1.3227,1.9346,0.6449,0.2259,-1.0953
-0.012,1.8501,-3.6299,-4.2527,2.5383,-0.085,1.5562,-0.1222,-0.8487,-0.4996,-2.4447,-1.3221,1.9557,0.6375,0.2142,-1.0912
-0.012,1.8501,-3.6299,-4.2527,2.5383,-0.085,1.5562,-0.1222,-0.8487,-0.4996,-2.4447,-1.3221,1.9557,0.6375,0.2142,-1.0912
-0.012,1.8501,-3.6299,-4.2527,2.5383,-0.085,1.5562,-0.1222,-0.8487,-0.4996,-2.4447,-1.3221,1.9557,0.6375,0.2142,-1.0912
-0.0848,1.8409,-3.6109,-4.276,2.464,-0.0923,1.5198,-0.1178,-0.7682,-0.5115,-2.4456,-1.3284,1.9054,0.7215,0.2177,-1.0899
-0.0848,1.8409,-3.6109,-4.276,2.464,-0.0923,1.5198,-0.1178,-0.7682,-0.5115,-2.4456,-1.3284,1.9054,0.7215,0.2177,-1.0899
-0.0848,1.8409,-3.6109,-4.276,2.464,-0.0923,1.5198,-0.1178,-0.7682,-0.5115,-2.4456,-1.3284,1.9054,0.7215,0.2177,-1.0899
-0.0662,1.8244,-3.6194,-4.2638,2.457,-0.0965,1.5168,-0.1231,-0.6597,-0.5331,-2.4441,-1.3306,1.8913,0.7418,0.2329,-1.0928
-0.0662,1.8244,-3.6194,-4.2638,2.457,-0.0965,1.5168,-0.1231,-0.6597,-0.5331,-2.4441,-1.3306,1.8913,0.7418,0.2329,-1.0928
-0.0662,1.8244,-3.6194,-4.2638,2.457,-0.0965,1.5168,-0.1231,-0.6597,-0.5331,-2.4441,-1.3306,1.8913,0.7418,0.2329,-1.0928
-0.0414,1.8405,-3.6367,-4.2429,2.563,-0.1206,1.5193,-0.1218,-0.6967,-0.4196,-2.443,-1.3359,1.848,0.7469,0.2553,-1.0931
-0.0414,1.8405,-3.6367,-4.2429,2.563,-0.1206,1.5193,-0.1218,-0.6967,-0.4196,-2.443,-1.3359,1.848,0.7469,0.2553,-1.0931
-0.0266,1.8502,-3.6422,-4.2391,2.5841,-0.1079,1.5149,-0.1203,-0.7503,-0.4175,-2.432,-1.348,1.8224,0.7151,0.2224,-1.084
-0.0266,1.8502,-3.6422,-4.2391,2.5841,-0.1079,1.5149,-0.1203,-0.7503,-0.4175,-2.432,-1.348,1.8224,0.7151,0.2224,-1.084
0.0166,1.84,-3.6442,-4.2403,2.5664,-0.068,1.5099,-0.1227,-0.7702,-0.4189,-2.4255,-1.3536,1.8096,0.6992,0.1955,-1.077
0.0166,1.84,-3.6442,-4.2403,2.5664,-0.068,1.5099,-0.1227,-0.7702,-0.4189,-2.4255,-1.3536,1.8096,0.6992,0.1955,-1.077
0.0166,1.84,-3.6442,-4.2403,2.5664,-0.068,1.5099,-0.1227,-0.7702,-0.4189,-2.4255,-1.3536,1.8096,0.6992,0.1955,-1.077
0.0361,1.843,-3.65,-4.2401,2.5276,-0.0407,1.5094,-0.1268,-0.7916,-0.4029,-2.4366,-1.3415,1.8085,0.6895,0.1745,-1.0721
0.0361,1.843,-3.65,-4.2401,2.5276,-0.0407,1.5094,-0.1268,-0.7916,-0.4029,-2.4366,-1.3415,1.8085,0.6895,0.1745,-1.0721
0.0274,1.8661,-3.6557,-4.2399,2.4942,-0.0357,1.5152,-0.1352,-0.8148,-0.3695,-2.4446,-1.3337,1.8458,0.6814,0.1593,-1.0693
0.0274,1.8661,-3.6557,-4.2399,2.4942,-0.0357,1.5152,-0.1352,-0.8148,-0.3695,-2.4446,-1.3337,1.8458,0.6814,0.1593,-1.0693
-0.0063,1.873,-3.6639,-4.2444,2.4717,-0.0749,1.4965,-0.137,-0.8225,-0.3584,-2.453,-1.3291,1.9194,0.6554,0.1523,-1.0719
-0.0063,1.873,-3.6639,-4.2444,2.4717,-0.0749,1.4965,-0.137,-0.8225,-0.3584,-2.453,-1.3291,1.9194,0.6554,0.1523,-1.0719
-0.0063,1.873,-3.6639,-4.2444,2.4717,-0.0749,1.4965,-0.137,-0.8225,-0.3584,-2.453,-1.3291,1.9194,0.6554,0.1523,-1.0719
-0.1137,1.8412,-3.6683,-4.2705,2.3991,-0.1696,1.4254,-0.1351,-0.8251,-0.3995,-2.4766,-1.329,1.8761,0.7063,0.1277,-1.0809
-0.1137,1.8412,-3.6683,-4.2705,2.3991,-0.1696,1.4254,-0.1351,-0.8251,-0.3995,-2.4766,-1.329,1.8761,0.7063,0.1277,-1.0809
-0.1137,1.8412,-3.6683,-4.2705,2.3991,-0.1696,1.4254,-0.1351,-0.8251,-0.3995,-2.4766,-1.329,1.8761,0.7063,0.1277,-1.0809
-0.1379,1.8348,-3.6811,-4.2641,2.3853,-0.178,1.4005,-0.1326,-0.7625,-0.43,-2.4974,-1.3216,1.8258,0.7445,0.1242,-1.0821
-0.1428,1.8316,-3.6916,-4.253,2.3792,-0.1692,1.3913,-0.1335,-0.7625,-0.43,-2.5136,-1.3208,1.8095,0.7451,0.1486,-1.0983
-0.1428,1.8316,-3.6916,-4.253,2.3792,-0.1692,1.3913,-0.1335,-0.7625,-0.43,-2.5136,-1.3208,1.8095,0.7451,0.1486,-1.0983
-0.1333,1.8283,-3.7065,-4.2478,2.4313,-0.1876,1.3902,-0.1415,-0.7916,-0.4029,-2.5263,-1.3213,1.813,0.7286,0.1451,-1.0996
-0.1333,1.8283,-3.7065,-4.2478,2.4313,-0.1876,1.3902,-0.1415,-0.7916,-0.4029,-2.5263,-1.3213,1.813,0.7286,0.1451,-1.0996
-0.1382,1.825,-3.7234,-4.2437,2.4705,-0.2014,1.3785,-0.1437,-0.8569,-0.4134,-2.5419,-1.3289,1.777,0.7006,0.0986,-1.0832
-0.1242,1.8151,-3.7349,-4.2433,2.446,-0.1662,1.3717,-0.1434,-0.9262,-0.4473,-2.549,-1.3411,1.711,0.6935,0.0568,-1.0734
-0.1242,1.8151,-3.7349,-4.2433,2.446,-0.1662,1.3717,-0.1434,-0.9262,-0.4473,-2.549,-1.3411,1.711,0.6935,0.0568,-1.0734
-0.1242,1.8151,-3.7349,-4.2433,2.446,-0.1662,1.3717,-0.1434,-0.9262,-0.4473,-2.549,-1.3411,1.711,0.6935,0.0568,-1.0734
-0.1242,1.8151,-3.7349,-4.2433,2.446,-0.1662,1.3717,-0.1434,-0.9262,-0.4473,-2.549,-1.3411,1.711,0.6935,0.0568,-1.0734
-0.0719,1.8016,-3.7352,-4.2469,2.4154,-0.122,1.3673,-0.1418,-0.9381,-0.4597,-2.5563,-1.3418,1.6786,0.6948,0.0301,-1.0665
-0.0719,1.8016,-3.7352,-4.2469,2.4154,-0.122,1.3673,-0.1418,-0.9381,-0.4597,-2.5563,-1.3418,1.6786,0.6948,0.0301,-1.0665
-0.038,1.8045,-3.7369,-4.2444,2.39,-0.0997,1.3873,-0.1468,-0.9152,-0.4927,-2.5716,-1.3348,1.6463,0.6961,0.0232,-1.0691
-0.038,1.8045,-3.7369,-4.2444,2.39,-0.0997,1.3873,-0.1468,-0.9152,-0.4927,-2.5716,-1.3348,1.6463,0.6961,0.0232,-1.0691
-0.089,1.8573,-3.7446,-4.2454,2.3494,-0.112,1.379,-0.1397,-0.9049,-0.4631,-2.5946,-1.3316,1.7227,0.6539,-0.0057,-1.0589
-0.089,1.8573,-3.7446,-4.2454,2.3494,-0.112,1.379,-0.1397,-0.9049,-0.4631,-2.5946,-1.3316,1.7227,0.6539,-0.0057,-1.0589
-0.089,1.8573,-3.7446,-4.2454,2.3494,-0.112,1.379,-0.1397,-0.9049,-0.4631,-2.5946,-1.3316,1.7227,0.6539,-0.0057,-1.0589
-0.1084,1.8542,-3.7395,-4.2527,2.3478,-0.1381,1.3547,-0.1332,-0.858,-0.4714,-2.5989,-1.3366,1.703,0.671,-0.0277,-1.0587
-0.1084,1.8542,-3.7395,-4.2527,2.3478,-0.1381,1.3547,-0.1332,-0.858,-0.4714,-2.5989,-1.3366,1.703,0.671,-0.0277,-1.0587
-0.1133,1.851,-3.748,-4.2405,2.3348,-0.1336,1.3372,-0.127,-0.7758,-0.5004,-2.6062,-1.3373,1.6671,0.6887,-0.0323,-1.0646
-0.1133,1.851,-3.748,-4.2405,2.3348,-0.1336,1.3372,-0.127,-0.7758,-0.5004,-2.6062,-1.3373,1.6671,0.6887,-0.0323,-1.0646
-0.1133,1.851,-3.748,-4.2405,2.3348,-0.1336,1.3372,-0.127,-0.7758,-0.5004,-2.6062,-1.3373,1.6671,0.6887,-0.0323,-1.0646
-0.1179,1.8576,-3.7599,-4.2234,2.3218,-0.129,1.3329,-0.1255,-0.7576,-0.4819,-2.6077,-1.3351,1.636,0.6997,-0.0081,-1.0807
-0.1179,1.8576,-3.7599,-4.2234,2.3218,-0.129,1.3329,-0.1255,-0.7576,-0.4819,-2.6077,-1.3351,1.636,0.6997,-0.0081,-1.0807
-0.1179,1.8576,-3.7599,-4.2234,2.3218,-0.129,1.3329,-0.1255,-0.7576,-0.4819,-2.6077,-1.3351,1.636,0.6997,-0.0081,-1.0807
-0.1217,1.8839,-3.7457,-4.2155,2.4992,-0.1716,1.3699,-0.1217,-0.8997,-0.3815,-2.5912,-1.3328,1.6534,0.6632,0.0209,-1.0783
-0.1217,1.8839,-3.7457,-4.2155,2.4992,-0.1716,1.3699,-0.1217,-0.8997,-0.3815,-2.5912,-1.3328,1.6534,0.6632,0.0209,-1.0783
-0.1217,1.8839,-3.7457,-4.2155,2.4992,-0.1716,1.3699,-0.1217,-0.8997,-0.3815,-2.5912,-1.3328,1.6534,0.6632,0.0209,-1.0783
-0.1077,1.8739,-3.7288,-4.2196,2.5341,-0.1506,1.3889,-0.1158,-0.9627,-0.4094,-2.5583,-1.3428,1.6708,0.6269,0.0139,-1.0683
-0.1077,1.8739,-3.7288,-4.2196,2.5341,-0.1506,1.3889,-0.1158,-0.9627,-0.4094,-2.5583,-1.3428,1.6708,0.6269,0.0139,-1.0683
-0.051,1.8439,-3.7133,-4.2177,2.5305,-0.1024,1.4579,-0.1149,-0.9185,-0.4583,-2.5239,-1.3172,1.7146,0.6315,0.058,-1.0562
-0.051,1.8439,-3.7133,-4.2177,2.5305,-0.1024,1.4579,-0.1149,-0.9185,-0.4583,-2.5239,-1.3172,1.7146,0.6315,0.058,-1.0562
-0.051,1.8439,-3.7133,-4.2177,2.5305,-0.1024,1.4579,-0.1149,-0.9185,-0.4583,-2.5239,-1.3172,1.7146,0.6315,0.058,-1.0562
-0.0502,1.8636,-3.7039,-4.2192,2.5507,-0.1028,1.4991,-0.1168,-0.8836,-0.479,-2.5119,-1.3083,1.7992,0.6117,0.0975,-1.0626
-0.0502,1.8636,-3.7039,-4.2192,2.5507,-0.1028,1.4991,-0.1168,-0.8836,-0.479,-2.5119,-1.3083,1.7992,0.6117,0.0975,-1.0626
-0.0841,1.8606,-3.6971,-4.229,2.5227,-0.1197,1.5071,-0.1091,-0.882,-0.4962,-2.4991,-1.3079,1.8573,0.5963,0.1138,-1.0608
-0.0841,1.8606,-3.6971,-4.229,2.5227,-0.1197,1.5071,-0.1091,-0.882,-0.4962,-2.4991,-1.3079,1.8573,0.5963,0.1138,-1.0608
-0.1084,1.8542,-3.6733,-4.2429,2.4956,-0.1236,1.5082,-0.101,-0.829,-0.4983,-2.4755,-1.308,1.8679,0.638,0.143,-1.0585
-0.1084,1.8542,-3.6733,-4.2429,2.4956,-0.1236,1.5082,-0.101,-0.829,-0.4983,-2.4755,-1.308,1.8679,0.638,0.143,-1.0585
-0.0897,1.8377,-3.6635,-4.2408,2.4825,-0.1189,1.5219,-0.1016,-0.727,-0.526,-2.4553,-1.3069,1.8609,0.6709,0.1745,-1.0595
-0.0707,1.831,-3.6588,-4.2314,2.4825,-0.1189,1.5401,-0.1038,-0.6705,-0.4876,-2.4293,-1.3029,1.8691,0.6935,0.239,-1.0696
-0.0707,1.831,-3.6588,-4.2314,2.4825,-0.1189,1.5401,-0.1038,-0.6705,-0.4876,-2.4293,-1.3029,1.8691,0.6935,0.239,-1.0696
-0.0707,1.831,-3.6588,-4.2314,2.4825,-0.1189,1.5401,-0.1038,-0.6705,-0.4876,-2.4293,-1.3029,1.8691,0.6935,0.239,-1.0696
-0.0605,1.8473,-3.6503,-4.2233,2.549,-0.129,1.5614,-0.1007,-0.6923,-0.396,-2.4136,-1.2952,1.9019,0.6921,0.2814,-1.0669
-0.0605,1.8473,-3.6503,-4.2233,2.549,-0.129,1.5614,-0.1007,-0.6923,-0.396,-2.4136,-1.2952,1.9019,0.6921,0.2814,-1.0669
-0.0605,1.8473,-3.6503,-4.2233,2.549,-0.129,1.5614,-0.1007,-0.6923,-0.396,-2.4136,-1.2952,1.9019,0.6921,0.2814,-1.0669
-0.0605,1.8473,-3.6503,-4.2233,2.549,-0.129,1.5614,-0.1007,-0.6923,-0.396,-2.4136,-1.2952,1.9019,0.6921,0.2814,-1.0669
-0.0315,1.847,-3.6347,-4.2214,2.6352,-0.1528,1.5688,-0.097,-0.7432,-0.3527,-2.3619,-1.3052,1.9265,0.6681,0.258,-1.0332
-0.0315,1.847,-3.6347,-4.2214,2.6352,-0.1528,1.5688,-0.097,-0.7432,-0.3527,-2.3619,-1.3052,1.9265,0.6681,0.258,-1.0332
0.0112,1.8269,-3.6276,-4.2276,2.6035,-0.1214,1.5614,-0.1007,-0.7078,-0.3737,-2.3425,-1.3104,1.9265,0.6681,0.2404,-1.027
0.0112,1.8269,-3.6276,-4.2276,2.6035,-0.1214,1.5614,-0.1007,-0.7078,-0.3737,-2.3425,-1.3104,1.9265,0.6681,0.2404,-1.027
0.0878,1.7999,-3.6201,-4.2303,2.585,-0.0947,1.5609,-0.1048,-0.6723,-0.3946,-2.3396,-1.3031,1.937,0.6644,0.2252,-1.0242
0.0878,1.7999,-3.6201,-4.2303,2.585,-0.0947,1.5609,-0.1048,-0.6723,-0.3946,-2.3396,-1.3031,1.937,0.6644,0.2252,-1.0242
0.0978,1.8063,-3.6255,-4.2265,2.5515,-0.0896,1.5667,-0.1132,-0.6601,-0.3821,-2.3518,-1.2856,1.9429,0.6674,0.2275,-1.0275
0.0978,1.8063,-3.6255,-4.2265,2.5515,-0.0896,1.5667,-0.1132,-0.6601,-0.3821,-2.3518,-1.2856,1.9429,0.6674,0.2275,-1.0275
0.0657,1.8526,-3.6272,-4.2241,2.5507,-0.1028,1.5706,-0.1188,-0.6678,-0.3709,-2.3649,-1.2743,1.9864,0.6622,0.2322,-1.0343
0.0657,1.8526,-3.6272,-4.2241,2.5507,-0.1028,1.5706,-0.1188,-0.6678,-0.3709,-2.3649,-1.2743,1.9864,0.6622,0.2322,-1.0343
0.0274,1.8661,-3.6296,-4.2288,2.535,-0.1375,1.5587,-0.121,-0.6834,-0.3485,-2.3629,-1.2734,2.0559,0.6428,0.2404,-1.0397
0.0274,1.8661,-3.6296,-4.2288,2.535,-0.1375,1.5587,-0.121,-0.6834,-0.3485,-2.3629,-1.2734,2.0559,0.6428,0.2404,-1.0397
0.0274,1.8661,-3.6296,-4.2288,2.535,-0.1375,1.5587,-0.121,-0.6834,-0.3485,-2.3629,-1.2734,2.0559,0.6428,0.2404,-1.0397
-0.0357,1.8635,-3.6153,-4.2412,2.5254,-0.1809,1.5419,-0.1256,-0.6878,-0.3723,-2.3638,-1.2797,2.0512,0.6495,0.2333,-1.0423
-0.0357,1.8635,-3.6153,-4.2412,2.5254,-0.1809,1.5419,-0.1256,-0.6878,-0.3723,-2.3638,-1.2797,2.0512,0.6495,0.2333,-1.0423
-0.0605,1.8473,-3.6163,-4.2316,2.5176,-0.1981,1.5124,-0.1215,-0.6368,-0.4156,-2.3782,-1.2779,1.9759,0.7119,0.2333,-1.0423
-0.0605,1.8473,-3.6163,-4.2316,2.5176,-0.1981,1.5124,-0.1215,-0.6368,-0.4156,-2.3782,-1.2779,1.9759,0.7119,0.2333,-1.0423
-0.0605,1.8473,-3.6163,-4.2316,2.5176,-0.1981,1.5124,-0.1215,-0.6368,-0.4156,-2.3782,-1.2779,1.9759,0.7119,0.2333,-1.0423
-0.0605,1.8473,-3.6163,-4.2316,2.5176,-0.1981,1.5124,-0.1215,-0.6368,-0.4156,-2.3782,-1.2779,1.9759,0.7119,0.2333,-1.0423
-0.0559,1.8407,-3.6269,-4.2205,2.5307,-0.2027,1.5163,-0.1271,-0.6662,-0.3883,-2.3891,-1.2774,1.97,0.7089,0.2591,-1.0539
-0.0559,1.8407,-3.6269,-4.2205,2.5307,-0.2027,1.5163,-0.1271,-0.6662,-0.3883,-2.3891,-1.2774,1.97,0.7089,0.2591,-1.0539
-0.0608,1.8374,-3.6381,-4.2165,2.6025,-0.2348,1.5177,-0.1339,-0.7155,-0.3625,-2.4005,-1.28,1.9735,0.6923,0.2591,-1.0539
-0.0608,1.8374,-3.6381,-4.2165,2.6025,-0.2348,1.5177,-0.1339,-0.7155,-0.3625,-2.4005,-1.28,1.9735,0.6923,0.2591,-1.0539
-0.0608,1.8374,-3.6381,-4.2165,2.6025,-0.2348,1.5177,-0.1339,-0.7155,-0.3625,-2.4005,-1.28,1.9735,0.6923,0.2591,-1.0539
-0.0471,1.8177,-3.65,-4.2197,2.5973,-0.2129,1.5014,-0.1345,-0.8235,-0.4168,-2.4184,-1.3034,1.8925,0.6598,0.1782,-1.0329
-0.0471,1.8177,-3.65,-4.2197,2.5973,-0.2129,1.5014,-0.1345,-0.8235,-0.4168,-2.4184,-1.3034,1.8925,0.6598,0.1782,-1.0329
0.0146,1.7909,-3.6483,-4.2222,2.5789,-0.1864,1.5014,-0.1345,-0.8141,-0.4452,-2.4288,-1.2997,1.8703,0.6575,0.1653,-1.0335
0.0146,1.7909,-3.6483,-4.2222,2.5789,-0.1864,1.5014,-0.1345,-0.8141,-0.4452,-2.4288,-1.2997,1.8703,0.6575,0.1653,-1.0335
0.0146,1.7909,-3.6483,-4.2222,2.5789,-0.1864,1.5014,-0.1345,-0.8141,-0.4452,-2.4288,-1.2997,1.8703,0.6575,0.1653,-1.0335
0.0295,1.8005,-3.6462,-4.221,2.5596,-0.1729,1.5215,-0.1395,-0.779,-0.466,-2.4388,-1.2929,1.8539,0.6582,0.1653,-1.0335
0.0295,1.8005,-3.6462,-4.221,2.5596,-0.1729,1.5215,-0.1395,-0.779,-0.466,-2.4388,-1.2929,1.8539,0.6582,0.1653,-1.0335
0.0295,1.8005,-3.6462,-4.221,2.5596,-0.1729,1.5215,-0.1395,-0.779,-0.466,-2.4388,-1.2929,1.8539,0.6582,0.1653,-1.0335
-0.0166,1.8567,-3.6425,-4.2224,2.5263,-0.1679,1.5099,-0.1227,-0.7746,-0.4425,-2.4566,-1.2899,1.9006,0.6366,0.1373,-1.0185
-0.0166,1.8567,-3.6425,-4.2224,2.5263,-0.1679,1.5099,-0.1227,-0.7746,-0.4425,-2.4566,-1.2899,1.9006,0.6366,0.1373,-1.0185
-0.0361,1.8536,-3.632,-4.2335,2.4983,-0.1847,1.4834,-0.1134,-0.7272,-0.4508,-2.454,-1.2974,1.8866,0.6568,0.1221,-1.0157
-0.0361,1.8536,-3.632,-4.2335,2.4983,-0.1847,1.4834,-0.1134,-0.7272,-0.4508,-2.454,-1.2974,1.8866,0.6568,0.1221,-1.0157
-0.0365,1.8438,-3.6337,-4.231,2.4975,-0.1977,1.4634,-0.1084,-0.6152,-0.5071,-2.4618,-1.3013,1.8551,0.6679,0.0999,-1.0154
-0.0365,1.8438,-3.6337,-4.231,2.4975,-0.1977,1.4634,-0.1084,-0.6152,-0.5071,-2.4618,-1.3013,1.8551,0.6679,0.0999,-1.0154
-0.046,1.8471,-3.6442,-4.2199,2.4975,-0.1977,1.4516,-0.1106,-0.5982,-0.4712,-2.4657,-1.3032,1.8178,0.676,0.1069,-1.0255
-0.046,1.8471,-3.6442,-4.2199,2.4975,-0.1977,1.4516,-0.1106,-0.5982,-0.4712,-2.4657,-1.3032,1.8178,0.676,0.1069,-1.0255
-0.046,1.8471,-3.6442,-4.2199,2.4975,-0.1977,1.4516,-0.1106,-0.5982,-0.4712,-2.4657,-1.3032,1.8178,0.676,0.1069,-1.0255
-0.0456,1.857,-3.653,-4.2112,2.5639,-0.2078,1.4472,-0.109,-0.6585,-0.3995,-2.4751,-1.3048,1.805,0.6602,0.1022,-1.0314
-0.0456,1.857,-3.653,-4.2112,2.5639,-0.2078,1.4472,-0.109,-0.6585,-0.3995,-2.4751,-1.3048,1.805,0.6602,0.1022,-1.0314
-0.0597,1.8669,-3.653,-4.2112,2.6368,-0.2269,1.4403,-0.1087,-0.7398,-0.3876,-2.4768,-1.3174,1.7841,0.6221,0.0685,-1.0271
-0.0597,1.8669,-3.653,-4.2112,2.6368,-0.2269,1.4403,-0.1087,-0.7398,-0.3876,-2.4768,-1.3174,1.7841,0.6221,0.0685,-1.0271
-0.0647,1.8637,-3.6551,-4.2123,2.6377,-0.2139,1.4291,-0.1068,-0.8312,-0.4057,-2.4667,-1.3358,1.747,0.5849,0.0151,-1.0259
-0.0647,1.8637,-3.6551,-4.2123,2.6377,-0.2139,1.4291,-0.1068,-0.8312,-0.4057,-2.4667,-1.3358,1.747,0.5849,0.0151,-1.0259
-0.0647,1.8637,-3.6551,-4.2123,2.6377,-0.2139,1.4291,-0.1068,-0.8312,-0.4057,-2.4667,-1.3358,1.747,0.5849,0.0151,-1.0259
0.0013,1.8205,-3.6758,-4.2069,2.5429,-0.1202,1.4042,-0.1044,-0.8596,-0.4542,-2.4889,-1.3262,1.6732,0.6009,-0.052,-1.0174
0.0013,1.8205,-3.6758,-4.2069,2.5429,-0.1202,1.4042,-0.1044,-0.8596,-0.4542,-2.4889,-1.3262,1.6732,0.6009,-0.052,-1.0174
0.0013,1.8205,-3.6758,-4.2069,2.5429,-0.1202,1.4042,-0.1044,-0.8596,-0.4542,-2.4889,-1.3262,1.6732,0.6009,-0.052,-1.0174
0.0158,1.8203,-3.687,-4.2029,2.5165,-0.1109,1.4129,-0.1075,-0.8383,-0.47,-2.5114,-1.3052,1.6628,0.6045,-0.0589,-1.02
0.0158,1.8203,-3.687,-4.2029,2.5165,-0.1109,1.4129,-0.1075,-0.8383,-0.47,-2.5114,-1.3052,1.6628,0.6045,-0.0589,-1.02
0.0158,1.8203,-3.687,-4.2029,2.5165,-0.1109,1.4129,-0.1075,-0.8383,-0.47,-2.5114,-1.3052,1.6628,0.6045,-0.0589,-1.02
0.0158,1.8203,-3.687,-4.2029,2.5165,-0.1109,1.4129,-0.1075,-0.8383,-0.47,-2.5114,-1.3052,1.6628,0.6045,-0.0589,-1.02
-0.0791,1.8638,-3.7144,-4.2081,2.5132,-0.1632,1.4056,-0.1112,-0.8262,-0.4576,-2.5494,-1.2917,1.7828,0.5672,-0.0566,-1.0359
-0.0791,1.8638,-3.7144,-4.2081,2.5132,-0.1632,1.4056,-0.1112,-0.8262,-0.4576,-2.5494,-1.2917,1.7828,0.5672,-0.0566,-1.0359
-0.0791,1.8638,-3.7144,-4.2081,2.5132,-0.1632,1.4056,-0.1112,-0.8262,-0.4576,-2.5494,-1.2917,1.7828,0.5672,-0.0566,-1.0359
-0.1806,1.845,-3.7312,-4.2243,2.3975,-0.1956,1.3534,-0.1075,-0.7439,-0.4867,-2.5639,-1.3047,1.7366,0.6338,-0.0704,-1.0411
-0.1806,1.845,-3.7312,-4.2243,2.3975,-0.1956,1.3534,-0.1075,-0.7439,-0.4867,-2.5639,-1.3047,1.7366,0.6338,-0.0704,-1.0411
-0.1806,1.845,-3.7312,-4.2243,2.3975,-0.1956,1.3534,-0.1075,-0.7439,-0.4867,-2.5639,-1.3047,1.7366,0.6338,-0.0704,-1.0411
-0.1862,1.8222,-3.7461,-4.219,2.3637,-0.2035,1.3417,-0.1097,-0.7256,-0.4681,-2.5682,-1.3098,1.6961,0.6583,-0.0392,-1.0546
-0.1862,1.8222,-3.7461,-4.219,2.3637,-0.2035,1.3417,-0.1097,-0.7256,-0.4681,-2.5682,-1.3098,1.6961,0.6583,-0.0392,-1.0546
-0.1908,1.8287,-3.7552,-4.214,2.3767,-0.2081,1.3373,-0.1081,-0.752,-0.4001,-2.5735,-1.3095,1.6753,0.6656,-0.0092,-1.0602
-0.1908,1.8287,-3.7552,-4.214,2.3767,-0.2081,1.3373,-0.1081,-0.752,-0.4001,-2.5735,-1.3095,1.6753,0.6656,-0.0092,-1.0602
-0.1526,1.8252,-3.7549,-4.2104,2.4496,-0.214,1.3481,-0.0951,-0.8208,-0.3758,-2.541,-1.3226,1.6662,0.6335,-0.0312,-1.0222
-0.1526,1.8252,-3.7549,-4.2104,2.4496,-0.214,1.3481,-0.0951,-0.8208,-0.3758,-2.541,-1.3226,1.6662,0.6335,-0.0312,-1.0222
-0.0768,1.7984,-3.742,-4.2168,2.4505,-0.201,1.3623,-0.0917,-0.7993,-0.3918,-2.5186,-1.3174,1.6973,0.6225,-0.0243,-1.007
-0.0768,1.7984,-3.742,-4.2168,2.4505,-0.201,1.3623,-0.0917,-0.7993,-0.3918,-2.5186,-1.3174,1.6973,0.6225,-0.0243,-1.007
-0.0768,1.7984,-3.742,-4.2168,2.4505,-0.201,1.3623,-0.0917,-0.7993,-0.3918,-2.5186,-1.3174,1.6973,0.6225,-0.0243,-1.007
-0.0768,1.7984,-3.742,-4.2168,2.4505,-0.201,1.3623,-0.0917,-0.7993,-0.3918,-2.5186,-1.3174,1.6973,0.6225,-0.0243,-1.007
-0.0099,1.7846,-3.7339,-4.2122,2.4452,-0.1792,1.3925,-0.0876,-0.801,-0.3744,-2.5051,-1.2991,1.7297,0.6212,0,-0.9978
-0.0099,1.7846,-3.7339,-4.2122,2.4452,-0.1792,1.3925,-0.0876,-0.801,-0.3744,-2.5051,-1.2991,1.7297,0.6212,0,-0.9978
-0.0033,1.8271,-3.7184,-4.2103,2.4391,-0.1704,1.438,-0.091,-0.8027,-0.357,-2.4872,-1.2874,1.7725,0.6161,0.0325,-0.9941
-0.0033,1.8271,-3.7184,-4.2103,2.4391,-0.1704,1.438,-0.091,-0.8027,-0.357,-2.4872,-1.2874,1.7725,0.6161,0.0325,-0.9941
-0.0251,1.8897,-3.7008,-4.2073,2.453,-0.162,1.4797,-0.0888,-0.757,-0.3478,-2.4622,-1.278,1.8748,0.6052,0.0825,-0.9966
-0.0442,1.8964,-3.6805,-4.2163,2.4644,-0.1926,1.4852,-0.0823,-0.7509,-0.3415,-2.4381,-1.275,1.9765,0.5845,0.121,-0.995
-0.0834,1.8803,-3.6493,-4.2329,2.4479,-0.2399,1.4788,-0.0779,-0.7233,-0.3513,-2.4164,-1.276,1.9967,0.6128,0.1502,-0.9926
-0.0834,1.8803,-3.6493,-4.2329,2.4479,-0.2399,1.4788,-0.0779,-0.7233,-0.3513,-2.4164,-1.276,1.9967,0.6128,0.1502,-0.9926
-0.0841,1.8606,-3.6316,-4.2299,2.46,-0.2574,1.4838,-0.0754,-0.6401,-0.3807,-2.4011,-1.2715,2.0004,0.642,0.1771,-0.9868
-0.0841,1.8606,-3.6316,-4.2299,2.46,-0.2574,1.4838,-0.0754,-0.6401,-0.3807,-2.4011,-1.2715,2.0004,0.642,0.1771,-0.9868
-0.0841,1.8606,-3.6316,-4.2299,2.46,-0.2574,1.4838,-0.0754,-0.6401,-0.3807,-2.4011,-1.2715,2.0004,0.642,0.1771,-0.9868
-0.0749,1.8474,-3.6317,-4.2095,2.4731,-0.262,1.4931,-0.0745,-0.6123,-0.3905,-2.3917,-1.2698,1.997,0.6585,0.23,-0.9928
-0.0749,1.8474,-3.6317,-4.2095,2.4731,-0.262,1.4931,-0.0745,-0.6123,-0.3905,-2.3917,-1.2698,1.997,0.6585,0.23,-0.9928
-0.0749,1.8474,-3.6317,-4.2095,2.4731,-0.262,1.4931,-0.0745,-0.6123,-0.3905,-2.3917,-1.2698,1.997,0.6585,0.23,-0.9928
-0.0749,1.8474,-3.6317,-4.2095,2.4731,-0.262,1.4931,-0.0745,-0.6123,-0.3905,-2.3917,-1.2698,1.997,0.6585,0.23,-0.9928
-0.0513,1.8341,-3.6286,-4.1976,2.5384,-0.2851,1.5088,-0.0779,-0.6217,-0.3618,-2.3793,-1.2726,2.0029,0.6615,0.2818,-1.0034
-0.0513,1.8341,-3.6286,-4.1976,2.5384,-0.2851,1.5088,-0.0779,-0.6217,-0.3618,-2.3793,-1.2726,2.0029,0.6615,0.2818,-1.0034
-0.0277,1.8208,-3.6279,-4.1904,2.6785,-0.3015,1.5334,-0.0845,-0.7321,-0.3987,-2.3691,-1.2911,1.9275,0.6322,0.2512,-0.985
-0.0277,1.8208,-3.6279,-4.1904,2.6785,-0.3015,1.5334,-0.0845,-0.7321,-0.3987,-2.3691,-1.2911,1.9275,0.6322,0.2512,-0.985
0.0295,1.8005,-3.6225,-4.1942,2.6551,-0.2534,1.5398,-0.0889,-0.7685,-0.4362,-2.3765,-1.2918,1.9041,0.6202,0.23,-0.98
0.0295,1.8005,-3.6225,-4.1942,2.6551,-0.2534,1.5398,-0.0889,-0.7685,-0.4362,-2.3765,-1.2918,1.9041,0.6202,0.23,-0.98
0.0295,1.8005,-3.6225,-4.1942,2.6551,-0.2534,1.5398,-0.0889,-0.7685,-0.4362,-2.3765,-1.2918,1.9041,0.6202,0.23,-0.98
0.0773,1.7836,-3.6191,-4.1991,2.6368,-0.2269,1.555,-0.0964,-0.7378,-0.4805,-2.3846,-1.284,1.8877,0.6209,0.23,-0.98
0.0773,1.7836,-3.6191,-4.1991,2.6368,-0.2269,1.555,-0.0964,-0.7378,-0.4805,-2.3846,-1.284,1.8877,0.6209,0.23,-0.98
0.0773,1.7836,-3.6191,-4.1991,2.6368,-0.2269,1.555,-0.0964,-0.7378,-0.4805,-2.3846,-1.284,1.8877,0.6209,0.23,-0.98
0.0878,1.7999,-3.6174,-4.2016,2.5982,-0.1999,1.5905,-0.1089,-0.724,-0.4854,-2.3926,-1.2762,1.8936,0.6239,0.2324,-0.9834
0.0653,1.8428,-3.6174,-4.2016,2.585,-0.1953,1.5993,-0.112,-0.7118,-0.473,-2.3981,-1.2759,1.9356,0.609,0.2265,-0.9814
0.0653,1.8428,-3.6174,-4.2016,2.585,-0.1953,1.5993,-0.112,-0.7118,-0.473,-2.3981,-1.2759,1.9356,0.609,0.2265,-0.9814
0.0415,1.8561,-3.616,-4.2076,2.5832,-0.2213,1.5782,-0.0961,-0.692,-0.4716,-2.4035,-1.2756,1.9778,0.5941,0.2183,-0.9759
0.0415,1.8561,-3.616,-4.2076,2.5832,-0.2213,1.5782,-0.0961,-0.692,-0.4716,-2.4035,-1.2756,1.9778,0.5941,0.2183,-0.9759
0.0116,1.8367,-3.5874,-4.2326,2.5402,-0.2593,1.5232,-0.0745,-0.6044,-0.4774,-2.3948,-1.2919,1.9592,0.621,0.2018,-0.9777
0.0116,1.8367,-3.5874,-4.2326,2.5402,-0.2593,1.5232,-0.0745,-0.6044,-0.4774,-2.3948,-1.2919,1.9592,0.621,0.2018,-0.9777
0.0116,1.8367,-3.5874,-4.2326,2.5402,-0.2593,1.5232,-0.0745,-0.6044,-0.4774,-2.3948,-1.2919,1.9592,0.621,0.2018,-0.9777
0.0258,1.8268,-3.5905,-4.2241,2.5402,-0.2593,1.5074,-0.0711,-0.5009,-0.5056,-2.3953,-1.2951,1.9182,0.6456,0.1901,-0.9736
0.0258,1.8268,-3.5905,-4.2241,2.5402,-0.2593,1.5074,-0.0711,-0.5009,-0.5056,-2.3953,-1.2951,1.9182,0.6456,0.1901,-0.9736
0.0308,1.83,-3.5952,-4.2131,2.5411,-0.2463,1.5049,-0.0723,-0.4853,-0.4523,-2.3953,-1.2951,1.8971,0.6531,0.2159,-0.9853
0.0308,1.83,-3.5952,-4.2131,2.5411,-0.2463,1.5049,-0.0723,-0.4853,-0.4523,-2.3953,-1.2951,1.8971,0.6531,0.2159,-0.9853
0.0312,1.8398,-3.6021,-4.2033,2.6076,-0.2565,1.5094,-0.0739,-0.5536,-0.3689,-2.3957,-1.2982,1.8796,0.644,0.2124,-0.9866
0.0312,1.8398,-3.6021,-4.2033,2.6076,-0.2565,1.5094,-0.0739,-0.5536,-0.3689,-2.3957,-1.2982,1.8796,0.644,0.2124,-0.9866
0.0411,1.8463,-3.6055,-4.1984,2.6937,-0.2803,1.5069,-0.0751,-0.6434,-0.3457,-2.3936,-1.3089,1.869,0.6022,0.1736,-0.9754
0.0266,1.8464,-3.6075,-4.1995,2.6947,-0.2673,1.4975,-0.0761,-0.7233,-0.3513,-2.3825,-1.321,1.8386,0.5776,0.1362,-0.9724
0.0266,1.8464,-3.6075,-4.1995,2.6947,-0.2673,1.4975,-0.0761,-0.7233,-0.3513,-2.3825,-1.321,1.8386,0.5776,0.1362,-0.9724
0.0407,1.8364,-3.617,-4.198,2.6631,-0.2362,1.4901,-0.0798,-0.7613,-0.3716,-2.3895,-1.3186,1.8107,0.5724,0.1046,-0.9714
0.0407,1.8364,-3.617,-4.198,2.6631,-0.2362,1.4901,-0.0798,-0.7613,-0.3716,-2.3895,-1.3186,1.8107,0.5724,0.1046,-0.9714
0.0407,1.8364,-3.617,-4.198,2.6631,-0.2362,1.4901,-0.0798,-0.7613,-0.3716,-2.3895,-1.3186,1.8107,0.5724,0.1046,-0.9714
0.0407,1.8364,-3.617,-4.198,2.6631,-0.2362,1.4901,-0.0798,-0.7613,-0.3716,-2.3895,-1.3186,1.8107,0.5724,0.1046,-0.9714
0.0549,1.8264,-3.6266,-4.1965,2.6306,-0.2181,1.4984,-0.087,-0.7657,-0.3953,-2.406,-1.3061,1.8095,0.5628,0.0906,-0.9766
0.0549,1.8264,-3.6266,-4.1965,2.6306,-0.2181,1.4984,-0.087,-0.7657,-0.3953,-2.406,-1.3061,1.8095,0.5628,0.0906,-0.9766
-0.022,1.8436,-3.6429,-4.2055,2.5621,-0.2338,1.4886,-0.0919,-0.7762,-0.4251,-2.4427,-1.2948,1.9082,0.5229,0.086,-0.9953
-0.022,1.8436,-3.6429,-4.2055,2.5621,-0.2338,1.4886,-0.0919,-0.7762,-0.4251,-2.4427,-1.2948,1.9082,0.5229,0.086,-0.9953
-0.022,1.8436,-3.6429,-4.2055,2.5621,-0.2338,1.4886,-0.0919,-0.7762,-0.4251,-2.4427,-1.2948,1.9082,0.5229,0.086,-0.9953
-0.0612,1.8276,-3.6479,-4.2186,2.507,-0.2542,1.4655,-0.0922,-0.7471,-0.4522,-2.4525,-1.2996,1.8851,0.5562,0.0673,-0.9938
-0.0612,1.8276,-3.6479,-4.2186,2.507,-0.2542,1.4655,-0.0922,-0.7471,-0.4522,-2.4525,-1.2996,1.8851,0.5562,0.0673,-0.9938
-0.0624,1.7982,-3.6595,-4.2182,2.4731,-0.262,1.4493,-0.0929,-0.6352,-0.5084,-2.4588,-1.3056,1.8515,0.5933,0.0638,-0.9951
-0.0624,1.7982,-3.6595,-4.2182,2.4731,-0.262,1.4493,-0.0929,-0.6352,-0.5084,-2.4588,-1.3056,1.8515,0.5933,0.0638,-0.9951
-0.0624,1.7982,-3.6595,-4.2182,2.4731,-0.262,1.4493,-0.0929,-0.6352,-0.5084,-2.4588,-1.3056,1.8515,0.5933,0.0638,-0.9951
-0.0487,1.7785,-3.6721,-4.2082,2.4531,-0.2616,1.4443,-0.0954,-0.6014,-0.512,-2.4662,-1.3063,1.8259,0.6074,0.1011,-1.0108
-0.0487,1.7785,-3.6721,-4.2082,2.4531,-0.2616,1.4443,-0.0954,-0.6014,-0.512,-2.4662,-1.3063,1.8259,0.6074,0.1011,-1.0108
-0.0487,1.7785,-3.6721,-4.2082,2.4531,-0.2616,1.4443,-0.0954,-0.6014,-0.512,-2.4662,-1.3063,1.8259,0.6074,0.1011,-1.0108
-0.0529,1.7949,-3.6941,-4.1967,2.5052,-0.28,1.4287,-0.0919,-0.6895,-0.3548,-2.4874,-1.3021,1.7783,0.6191,0.1513,-1.026
-0.0529,1.7949,-3.6941,-4.1967,2.5052,-0.28,1.4287,-0.0919,-0.6895,-0.3548,-2.4874,-1.3021,1.7783,0.6191,0.1513,-1.026
-0.0529,1.7949,-3.6941,-4.1967,2.5052,-0.28,1.4287,-0.0919,-0.6895,-0.3548,-2.4874,-1.3021,1.7783,0.6191,0.1513,-1.026
-0.0525,1.8047,-3.7039,-4.1988,2.5706,-0.3031,1.418,-0.086,-0.7388,-0.3289,-2.4937,-1.3081,1.7551,0.6071,0.1151,-1.0056
-0.0525,1.8047,-3.7039,-4.1988,2.5706,-0.3031,1.418,-0.086,-0.7388,-0.3289,-2.4937,-1.3081,1.7551,0.6071,0.1151,-1.0056
-0.0525,1.8047,-3.7039,-4.1988,2.5706,-0.3031,1.418,-0.086,-0.7388,-0.3289,-2.4937,-1.3081,1.7551,0.6071,0.1151,-1.0056
-0.0285,1.8011,-3.6978,-4.2158,2.5332,-0.2634,1.395,-0.0864,-0.8027,-0.357,-2.4879,-1.3316,1.7169,0.5603,0.0243,-0.976
-0.0285,1.8011,-3.6978,-4.2158,2.5332,-0.2634,1.395,-0.0864,-0.8027,-0.357,-2.4879,-1.3316,1.7169,0.5603,0.0243,-0.976
-0.0285,1.8011,-3.6978,-4.2158,2.5332,-0.2634,1.395,-0.0864,-0.8027,-0.357,-2.4879,-1.3316,1.7169,0.5603,0.0243,-0.976
-0.0285,1.8011,-3.6978,-4.2158,2.5332,-0.2634,1.395,-0.0864,-0.8027,-0.357,-2.4879,-1.3316,1.7169,0.5603,0.0243,-0.976
0.0237,1.7777,-3.7018,-4.218,2.4809,-0.2449,1.3876,-0.0901,-0.8087,-0.3633,-2.4944,-1.326,1.7112,0.5574,-0.0117,-0.9684
0.0237,1.7777,-3.7018,-4.218,2.4809,-0.2449,1.3876,-0.0901,-0.8087,-0.3633,-2.4944,-1.326,1.7112,0.5574,-0.0117,-0.9684
0.0237,1.7777,-3.7018,-4.218,2.4809,-0.2449,1.3876,-0.0901,-0.8087,-0.3633,-2.4944,-1.326,1.7112,0.5574,-0.0117,-0.9684
-0.0224,1.8338,-3.7153,-4.2188,2.4262,-0.2653,1.3778,-0.0951,-0.7906,-0.3444,-2.5108,-1.3136,1.7747,0.545,-0.0174,-0.979
-0.0224,1.8338,-3.7153,-4.2188,2.4262,-0.2653,1.3778,-0.0951,-0.7906,-0.3444,-2.5108,-1.3136,1.7747,0.545,-0.0174,-0.979
-0.0852,1.8311,-3.7146,-4.232,2.3967,-0.3075,1.3462,-0.0923,-0.8027,-0.357,-2.5255,-1.315,1.7747,0.545,-0.029,-0.9876
-0.1239,1.8249,-3.7153,-4.2391,2.3561,-0.3195,1.3141,-0.0936,-0.7674,-0.3779,-2.5397,-1.3132,1.7562,0.5715,-0.0451,-0.9895
-0.1239,1.8249,-3.7153,-4.2391,2.3561,-0.3195,1.3141,-0.0936,-0.7674,-0.3779,-2.5397,-1.3132,1.7562,0.5715,-0.0451,-0.9895
-0.1435,1.812,-3.7298,-4.2303,2.3295,-0.3231,1.2913,-0.0939,-0.7244,-0.4099,-2.5524,-1.3137,1.7354,0.5789,-0.0555,-0.9934
-0.1439,1.8023,-3.7423,-4.2204,2.3166,-0.3186,1.284,-0.0977,-0.7398,-0.3876,-2.5651,-1.3141,1.7193,0.5796,-0.0312,-1.0096
-0.1439,1.8023,-3.7423,-4.2204,2.3166,-0.3186,1.284,-0.0977,-0.7398,-0.3876,-2.5651,-1.3141,1.7193,0.5796,-0.0312,-1.0096
-0.1439,1.8023,-3.7423,-4.2204,2.3166,-0.3186,1.284,-0.0977,-0.7398,-0.3876,-2.5651,-1.3141,1.7193,0.5796,-0.0312,-1.0096
