4172.8,54.424,19.952,-2.133e-07,-0.034102,3.646e-10,4361,57.568,0,0,0,0,0.0090569,0
4172.8,54.424,19.952,-2.133e-07,-0.034102,3.646e-10,4361,57.568,0,0,0,0,0.0090569,0
4172.8,54.424,19.952,-2.133e-07,-0.034102,3.646e-10,4361,57.568,0,0,0,0,0.0090569,0
4172.8,54.424,19.952,-2.133e-07,-0.034102,3.646e-10,4361,57.568,0,0,0,0,0.0090569,0
4172.8,54.424,19.952,-2.133e-07,-0.034102,3.646e-10,4361,57.568,0,0,0,0,0.0090569,0
4174.8,54.424,19.949,-2.1327e-07,-0.034464,3.6845e-10,4361,57.568,0,0,0,0,0.0091539,0
4174.8,54.424,19.949,-2.1327e-07,-0.034464,3.6845e-10,4361,57.568,0,0,0,0,0.0091539,0
4175.2,54.424,19.948,-2.1326e-07,-0.034535,3.6918e-10,4361,57.568,0,0,0,0,0.0091735,0
4175.2,54.424,19.948,-2.1326e-07,-0.034535,3.6918e-10,4361,57.568,0,0,0,0,0.0091735,0
4175.2,54.424,19.948,-2.1326e-07,-0.034535,3.6918e-10,4361,57.568,0,0,0,0,0.0091735,0
4175.2,54.424,19.948,-2.1326e-07,-0.034535,3.6918e-10,4361,57.568,0,0,0,0,0.0091735,0
4175.2,54.424,19.948,-2.1326e-07,-0.034535,3.6918e-10,4361,57.568,0,0,0,0,0.0091735,0
4175.2,54.424,19.948,-2.1326e-07,-0.034535,3.6918e-10,4361,57.568,0,0,0,0,0.0091735,0
4175.2,54.424,19.948,-2.1326e-07,-0.034535,3.6918e-10,4361,57.568,0,0,0,0,0.0091735,0
4175.6,54.424,19.947,-2.1325e-07,-0.034606,3.6994e-10,4361,57.568,0,0,0,0,0.0091932,0
4175.6,54.424,19.947,-2.1325e-07,-0.034606,3.6994e-10,4361,57.568,0,0,0,0,0.0091932,0
4177.2,54.424,19.944,-2.1322e-07,-0.034882,3.7289e-10,4361,57.568,0,0,0,0,0.009273,0
4177.2,54.424,19.944,-2.1322e-07,-0.034882,3.7289e-10,4361,57.568,0,0,0,0,0.009273,0
4177.2,54.424,19.944,-2.1322e-07,-0.034882,3.7289e-10,4361,57.568,0,0,0,0,0.009273,0
4178,54.424,19.943,-2.1321e-07,-0.035017,3.7434e-10,4361,57.568,0,0,0,0,0.0093134,0
4179.2,54.424,19.941,-2.1319e-07,-0.035213,3.7651e-10,4361,57.568,0,0,0,0,0.0093747,0
4179.2,54.424,19.941,-2.1319e-07,-0.035213,3.7651e-10,4361,57.568,0,0,0,0,0.0093747,0
4179.2,54.424,19.941,-2.1319e-07,-0.035213,3.7651e-10,4361,57.568,0,0,0,0,0.0093747,0
4179.2,54.424,19.941,-2.1319e-07,-0.035213,3.7651e-10,4361,57.568,0,0,0,0,0.0093747,0
4179.2,54.424,19.941,-2.1319e-07,-0.035213,3.7651e-10,4361,57.568,0,0,0,0,0.0093747,0
4179.2,54.424,19.941,-2.1319e-07,-0.035213,3.7651e-10,4361,57.568,0,0,0,0,0.0093747,0
4179.2,54.424,19.941,-2.1319e-07,-0.035213,3.7651e-10,4361,57.568,0,0,0,0,0.0093747,0
4179.2,54.424,19.941,-2.1319e-07,-0.035213,3.7651e-10,4361,57.568,0,0,0,0,0.0093747,0
4179.2,54.424,19.941,-2.1319e-07,-0.035213,3.7651e-10,4361,57.568,0,0,0,0,0.0093747,0
4179.2,54.424,19.941,-2.1319e-07,-0.035213,3.7651e-10,4361,57.568,0,0,0,0,0.0093747,0
4179.2,54.424,19.941,-2.1319e-07,-0.035213,3.7651e-10,4361,57.568,0,0,0,0,0.0093747,0
4179.2,54.424,19.941,-2.1319e-07,-0.035213,3.7651e-10,4361,57.568,0,0,0,0,0.0093747,0
4179.2,54.424,19.941,-2.1319e-07,-0.035213,3.7651e-10,4361,57.568,0,0,0,0,0.0093747,0
4179.2,54.424,19.941,-2.1319e-07,-0.035213,3.7651e-10,4361,57.568,0,0,0,0,0.0093747,0
4180.4,54.424,19.939,-2.1316e-07,-0.035407,3.7851e-10,4361,57.568,0,0,0,0,0.0094367,0
4180.8,54.424,19.938,-2.1315e-07,-0.035471,3.792e-10,4361,57.568,0,0,0,0,0.0094576,0
4180.8,54.424,19.938,-2.1315e-07,-0.035471,3.792e-10,4361,57.568,0,0,0,0,0.0094576,0
4180.8,54.424,19.938,-2.1315e-07,-0.035471,3.792e-10,4361,57.568,0,0,0,0,0.0094576,0
4180.8,54.424,19.938,-2.1315e-07,-0.035471,3.792e-10,4361,57.568,0,0,0,0,0.0094576,0
4181.2,54.424,19.937,-2.1315e-07,-0.035535,3.7989e-10,4361,57.568,0,0,0,0,0.0094786,0
4181.2,54.424,19.937,-2.1315e-07,-0.035535,3.7989e-10,4361,57.568,0,0,0,0,0.0094786,0
4181.6,54.424,19.937,-2.1314e-07,-0.035597,3.8053e-10,4361,57.568,0,0,0,0,0.0094996,0
4183.2,54.424,19.934,-2.1311e-07,-0.035845,3.8323e-10,4361,57.568,0,0,0,0,0.0095848,0
4183.2,54.424,19.934,-2.1311e-07,-0.035845,3.8323e-10,4361,57.568,0,0,0,0,0.0095848,0
4183.6,54.424,19.933,-2.131e-07,-0.035906,3.8387e-10,4361,57.568,0,0,0,0,0.0096063,0
4184.4,54.424,19.932,-2.1309e-07,-0.036026,3.8515e-10,4361,57.568,0,0,0,0,0.0096496,0
4184.4,54.424,19.932,-2.1309e-07,-0.036026,3.8515e-10,4361,57.568,0,0,0,0,0.0096496,0
4184.4,54.424,19.932,-2.1309e-07,-0.036026,3.8515e-10,4361,57.568,0,0,0,0,0.0096496,0
4184.4,54.424,19.932,-2.1309e-07,-0.036026,3.8515e-10,4361,57.568,0,0,0,0,0.0096496,0
4184.4,54.424,19.932,-2.1309e-07,-0.036026,3.8515e-10,4361,57.568,0,0,0,0,0.0096496,0
4184.4,54.424,19.932,-2.1309e-07,-0.036026,3.8515e-10,4361,57.568,0,0,0,0,0.0096496,0
4184.4,54.424,19.932,-2.1309e-07,-0.036026,3.8515e-10,4361,57.568,0,0,0,0,0.0096496,0
4184.4,54.424,19.932,-2.1309e-07,-0.036026,3.8515e-10,4361,57.568,0,0,0,0,0.0096496,0
4184.4,54.424,19.932,-2.1309e-07,-0.036026,3.8515e-10,4361,57.568,0,0,0,0,0.0096496,0
4184.4,54.424,19.932,-2.1309e-07,-0.036026,3.8515e-10,4361,57.568,0,0,0,0,0.0096496,0
4184.4,54.424,19.932,-2.1309e-07,-0.036026,3.8515e-10,4361,57.568,0,0,0,0,0.0096496,0
4184.4,54.424,19.932,-2.1309e-07,-0.036026,3.8515e-10,4361,57.568,0,0,0,0,0.0096496,0
4184.4,54.424,19.932,-2.1309e-07,-0.036026,3.8515e-10,4361,57.568,0,0,0,0,0.0096496,0
4184.4,54.424,19.932,-2.1309e-07,-0.036026,3.8515e-10,4361,57.568,0,0,0,0,0.0096496,0
4184.4,54.424,19.932,-2.1309e-07,-0.036026,3.8515e-10,4361,57.568,0,0,0,0,0.0096496,0
4184.4,54.424,19.932,-2.1309e-07,-0.036026,3.8515e-10,4361,57.568,0,0,0,0,0.0096496,0
4184.4,54.424,19.932,-2.1309e-07,-0.036026,3.8515e-10,4361,57.568,0,0,0,0,0.0096496,0
4184.4,54.424,19.932,-2.1309e-07,-0.036026,3.8515e-10,4361,57.568,0,0,0,0,0.0096496,0
4184.4,54.424,19.932,-2.1309e-07,-0.036026,3.8515e-10,4361,57.568,0,0,0,0,0.0096496,0
4184.4,54.424,19.932,-2.1309e-07,-0.036026,3.8515e-10,4361,57.568,0,0,0,0,0.0096496,0
4184.4,54.424,19.932,-2.1309e-07,-0.036026,3.8515e-10,4361,57.568,0,0,0,0,0.0096496,0
4184.4,54.424,19.932,-2.1309e-07,-0.036026,3.8515e-10,4361,57.568,0,0,0,0,0.0096496,0
4185.6,54.424,19.929,-2.1306e-07,-0.036207,3.8707e-10,4361,57.568,0,0,0,0,0.0097154,0
4185.6,54.424,19.929,-2.1306e-07,-0.036207,3.8707e-10,4361,57.568,0,0,0,0,0.0097154,0
4185.6,54.424,19.929,-2.1306e-07,-0.036207,3.8707e-10,4361,57.568,0,0,0,0,0.0097154,0
4185.6,54.424,19.929,-2.1306e-07,-0.036207,3.8707e-10,4361,57.568,0,0,0,0,0.0097154,0
4188,54.424,19.925,-2.1302e-07,-0.036556,3.9076e-10,4361,57.568,0,0,0,0,0.0098496,0
4188.8,54.424,19.924,-2.13e-07,-0.036671,3.9199e-10,4361,57.568,0,0,0,0,0.0098951,0
4190,54.424,19.921,-2.1298e-07,-0.03684,3.9372e-10,4361,57.568,0,0,0,0,0.0099642,0
4190,54.424,19.921,-2.1298e-07,-0.03684,3.9372e-10,4361,57.568,0,0,0,0,0.0099642,0
4190,54.424,19.921,-2.1298e-07,-0.03684,3.9372e-10,4361,57.568,0,0,0,0,0.0099642,0
4190,54.424,19.921,-2.1298e-07,-0.03684,3.9372e-10,4361,57.568,0,0,0,0,0.0099642,0
4190,54.424,19.921,-2.1298e-07,-0.03684,3.9372e-10,4361,57.568,0,0,0,0,0.0099642,0
4190,54.424,19.921,-2.1298e-07,-0.03684,3.9372e-10,4361,57.568,0,0,0,0,0.0099642,0
4190,54.424,19.921,-2.1298e-07,-0.03684,3.9372e-10,4361,57.568,0,0,0,0,0.0099642,0
4190,54.424,19.921,-2.1298e-07,-0.03684,3.9372e-10,4361,57.568,0,0,0,0,0.0099642,0
4190,54.424,19.921,-2.1298e-07,-0.03684,3.9372e-10,4361,57.568,0,0,0,0,0.0099642,0
4190,54.424,19.921,-2.1298e-07,-0.03684,3.9372e-10,4361,57.568,0,0,0,0,0.0099642,0
4190,54.424,19.921,-2.1298e-07,-0.03684,3.9372e-10,4361,57.568,0,0,0,0,0.0099642,0
4190,54.424,19.921,-2.1298e-07,-0.03684,3.9372e-10,4361,57.568,0,0,0,0,0.0099642,0
4190,54.424,19.921,-2.1298e-07,-0.03684,3.9372e-10,4361,57.568,0,0,0,0,0.0099642,0
4190.8,54.424,19.92,-2.1296e-07,-0.036953,3.9491e-10,4361,57.568,0,0,0,0,0.010011,0
4190.8,54.424,19.92,-2.1296e-07,-0.036953,3.9491e-10,4361,57.568,0,0,0,0,0.010011,0
4190.8,54.424,19.92,-2.1296e-07,-0.036953,3.9491e-10,4361,57.568,0,0,0,0,0.010011,0
4190.8,54.424,19.92,-2.1296e-07,-0.036953,3.9491e-10,4361,57.568,0,0,0,0,0.010011,0
4190.8,54.424,19.92,-2.1296e-07,-0.036953,3.9491e-10,4361,57.568,0,0,0,0,0.010011,0
4190.8,54.424,19.92,-2.1296e-07,-0.036953,3.9491e-10,4361,57.568,0,0,0,0,0.010011,0
4190.8,54.424,19.92,-2.1296e-07,-0.036953,3.9491e-10,4361,57.568,0,0,0,0,0.010011,0
4190.8,54.424,19.92,-2.1296e-07,-0.036953,3.9491e-10,4361,57.568,0,0,0,0,0.010011,0
4190.8,54.424,19.92,-2.1296e-07,-0.036953,3.9491e-10,4361,57.568,0,0,0,0,0.010011,0
4190.8,54.424,19.92,-2.1296e-07,-0.036953,3.9491e-10,4361,57.568,0,0,0,0,0.010011,0
4190.8,54.424,19.92,-2.1296e-07,-0.036953,3.9491e-10,4361,57.568,0,0,0,0,0.010011,0
4191.6,54.424,19.918,-2.1295e-07,-0.037063,3.9618e-10,4361,57.568,0,0,0,0,0.010058,0
4191.6,54.424,19.918,-2.1295e-07,-0.037063,3.9618e-10,4361,57.568,0,0,0,0,0.010058,0
4193.1,54.424,19.916,-2.1291e-07,-0.037282,3.9851e-10,4361,57.568,0,0,0,0,0.010153,0
4194.7,54.424,19.913,-2.1288e-07,-0.037496,4.0078e-10,4361,57.568,0,0,0,0,0.010251,0
4195.5,54.424,19.911,-2.1287e-07,-0.037602,4.0198e-10,4361,57.568,0,0,0,0,0.0103,0
4195.5,54.424,19.911,-2.1287e-07,-0.037602,4.0198e-10,4361,57.568,0,0,0,0,0.0103,0
4195.9,54.424,19.91,-2.1286e-07,-0.037656,4.0254e-10,4361,57.568,0,0,0,0,0.010325,0
4195.9,54.424,19.91,-2.1286e-07,-0.037656,4.0254e-10,4361,57.568,0,0,0,0,0.010325,0
4195.9,54.424,19.91,-2.1286e-07,-0.037656,4.0254e-10,4361,57.568,0,0,0,0,0.010325,0
4195.9,54.424,19.91,-2.1286e-07,-0.037656,4.0254e-10,4361,57.568,0,0,0,0,0.010325,0
4195.9,54.424,19.91,-2.1286e-07,-0.037656,4.0254e-10,4361,57.568,0,0,0,0,0.010325,0
4195.9,54.424,19.91,-2.1286e-07,-0.037656,4.0254e-10,4361,57.568,0,0,0,0,0.010325,0
4195.9,54.424,19.91,-2.1286e-07,-0.037656,4.0254e-10,4361,57.568,0,0,0,0,0.010325,0
4195.9,54.424,19.91,-2.1286e-07,-0.037656,4.0254e-10,4361,57.568,0,0,0,0,0.010325,0
4195.9,54.424,19.91,-2.1286e-07,-0.037656,4.0254e-10,4361,57.568,0,0,0,0,0.010325,0
4195.9,54.424,19.91,-2.1286e-07,-0.037656,4.0254e-10,4361,57.568,0,0,0,0,0.010325,0
4195.9,54.424,19.91,-2.1286e-07,-0.037656,4.0254e-10,4361,57.568,0,0,0,0,0.010325,0
4195.9,54.424,19.91,-2.1286e-07,-0.037656,4.0254e-10,4361,57.568,0,0,0,0,0.010325,0
4195.9,54.424,19.91,-2.1286e-07,-0.037656,4.0254e-10,4361,57.568,0,0,0,0,0.010325,0
4195.9,54.424,19.91,-2.1286e-07,-0.037656,4.0254e-10,4361,57.568,0,0,0,0,0.010325,0
4195.9,54.424,19.91,-2.1286e-07,-0.037656,4.0254e-10,4361,57.568,0,0,0,0,0.010325,0
4195.9,54.424,19.91,-2.1286e-07,-0.037656,4.0254e-10,4361,57.568,0,0,0,0,0.010325,0
4195.9,54.424,19.91,-2.1286e-07,-0.037656,4.0254e-10,4361,57.568,0,0,0,0,0.010325,0
4195.9,54.424,19.91,-2.1286e-07,-0.037656,4.0254e-10,4361,57.568,0,0,0,0,0.010325,0
4195.9,54.424,19.91,-2.1286e-07,-0.037656,4.0254e-10,4361,57.568,0,0,0,0,0.010325,0
4195.9,54.424,19.91,-2.1286e-07,-0.037656,4.0254e-10,4361,57.568,0,0,0,0,0.010325,0
4196.7,54.424,19.909,-2.1284e-07,-0.037759,4.0367e-10,4361,57.568,0,0,0,0,0.010375,0
4196.7,54.424,19.909,-2.1284e-07,-0.037759,4.0367e-10,4361,57.568,0,0,0,0,0.010375,0
4197.1,54.424,19.908,-2.1283e-07,-0.037812,4.0418e-10,4361,57.568,0,0,0,0,0.0104,0
4198.7,54.424,19.905,-2.128e-07,-0.038017,4.0638e-10,4361,57.568,0,0,0,0,0.010502,0
4199.5,54.424,19.903,-2.1278e-07,-0.038119,4.0748e-10,4361,57.568,0,0,0,0,0.010554,0
4199.5,54.424,19.903,-2.1278e-07,-0.038119,4.0748e-10,4361,57.568,0,0,0,0,0.010554,0
4199.5,54.424,19.903,-2.1278e-07,-0.038119,4.0748e-10,4361,57.568,0,0,0,0,0.010554,0
4199.5,54.424,19.903,-2.1278e-07,-0.038119,4.0748e-10,4361,57.568,0,0,0,0,0.010554,0
4199.5,54.424,19.903,-2.1278e-07,-0.038119,4.0748e-10,4361,57.568,0,0,0,0,0.010554,0
4199.5,54.424,19.903,-2.1278e-07,-0.038119,4.0748e-10,4361,57.568,0,0,0,0,0.010554,0
4199.5,54.424,19.903,-2.1278e-07,-0.038119,4.0748e-10,4361,57.568,0,0,0,0,0.010554,0
4199.5,54.424,19.903,-2.1278e-07,-0.038119,4.0748e-10,4361,57.568,0,0,0,0,0.010554,0
4199.5,54.424,19.903,-2.1278e-07,-0.038119,4.0748e-10,4361,57.568,0,0,0,0,0.010554,0
4199.5,54.424,19.903,-2.1278e-07,-0.038119,4.0748e-10,4361,57.568,0,0,0,0,0.010554,0
4199.5,54.424,19.903,-2.1278e-07,-0.038119,4.0748e-10,4361,57.568,0,0,0,0,0.010554,0
4199.5,54.424,19.903,-2.1278e-07,-0.038119,4.0748e-10,4361,57.568,0,0,0,0,0.010554,0
4201.5,54.424,19.9,-2.1274e-07,-0.03837,4.1016e-10,4361,57.568,0,0,0,0,0.010685,0
4201.5,54.424,19.9,-2.1274e-07,-0.03837,4.1016e-10,4361,57.568,0,0,0,0,0.010685,0
4201.5,54.424,19.9,-2.1274e-07,-0.03837,4.1016e-10,4361,57.568,0,0,0,0,0.010685,0
4201.5,54.424,19.9,-2.1274e-07,-0.03837,4.1016e-10,4361,57.568,0,0,0,0,0.010685,0
4201.5,54.424,19.9,-2.1274e-07,-0.03837,4.1016e-10,4361,57.568,0,0,0,0,0.010685,0
4201.5,54.424,19.9,-2.1274e-07,-0.03837,4.1016e-10,4361,57.568,0,0,0,0,0.010685,0
4201.5,54.424,19.9,-2.1274e-07,-0.03837,4.1016e-10,4361,57.568,0,0,0,0,0.010685,0
4201.5,54.424,19.9,-2.1274e-07,-0.03837,4.1016e-10,4361,57.568,0,0,0,0,0.010685,0
4201.5,54.424,19.9,-2.1274e-07,-0.03837,4.1016e-10,4361,57.568,0,0,0,0,0.010685,0
4201.5,54.424,19.9,-2.1274e-07,-0.03837,4.1016e-10,4361,57.568,0,0,0,0,0.010685,0
4201.5,54.424,19.9,-2.1274e-07,-0.03837,4.1016e-10,4361,57.568,0,0,0,0,0.010685,0
4201.5,54.424,19.9,-2.1274e-07,-0.03837,4.1016e-10,4361,57.568,0,0,0,0,0.010685,0
4201.5,54.424,19.9,-2.1274e-07,-0.03837,4.1016e-10,4361,57.568,0,0,0,0,0.010685,0
4203.5,54.424,19.896,-2.127e-07,-0.038614,4.1282e-10,4361,57.568,0,0,0,0,0.01082,0
4204.7,54.424,19.893,-2.1268e-07,-0.038759,4.1436e-10,4361,57.568,0,0,0,0,0.010903,0
4204.7,54.424,19.893,-2.1268e-07,-0.038759,4.1436e-10,4361,57.568,0,0,0,0,0.010903,0
4206.3,54.424,19.89,-2.1264e-07,-0.038951,4.1642e-10,4361,57.568,0,0,0,0,0.011015,0
4206.3,54.424,19.89,-2.1264e-07,-0.038951,4.1642e-10,4361,57.568,0,0,0,0,0.011015,0
4206.3,54.424,19.89,-2.1264e-07,-0.038951,4.1642e-10,4361,57.568,0,0,0,0,0.011015,0
4206.3,54.424,19.89,-2.1264e-07,-0.038951,4.1642e-10,4361,57.568,0,0,0,0,0.011015,0
4206.3,54.424,19.89,-2.1264e-07,-0.038951,4.1642e-10,4361,57.568,0,0,0,0,0.011015,0
4206.3,54.424,19.89,-2.1264e-07,-0.038951,4.1642e-10,4361,57.568,0,0,0,0,0.011015,0
4206.3,54.424,19.89,-2.1264e-07,-0.038951,4.1642e-10,4361,57.568,0,0,0,0,0.011015,0
4206.3,54.424,19.89,-2.1264e-07,-0.038951,4.1642e-10,4361,57.568,0,0,0,0,0.011015,0
4206.3,54.424,19.89,-2.1264e-07,-0.038951,4.1642e-10,4361,57.568,0,0,0,0,0.011015,0
4206.3,54.424,19.89,-2.1264e-07,-0.038951,4.1642e-10,4361,57.568,0,0,0,0,0.011015,0
4206.3,54.424,19.89,-2.1264e-07,-0.038951,4.1642e-10,4361,57.568,0,0,0,0,0.011015,0
4206.3,54.424,19.89,-2.1264e-07,-0.038951,4.1642e-10,4361,57.568,0,0,0,0,0.011015,0
4206.3,54.424,19.89,-2.1264e-07,-0.038951,4.1642e-10,4361,57.568,0,0,0,0,0.011015,0
4206.3,54.424,19.89,-2.1264e-07,-0.038951,4.1642e-10,4361,57.568,0,0,0,0,0.011015,0
4207.1,54.424,19.889,-2.1263e-07,-0.039046,4.1754e-10,4361,57.568,0,0,0,0,0.011072,0
4207.1,54.424,19.889,-2.1263e-07,-0.039046,4.1754e-10,4361,57.568,0,0,0,0,0.011072,0
4207.1,54.424,19.889,-2.1263e-07,-0.039046,4.1754e-10,4361,57.568,0,0,0,0,0.011072,0
4207.1,54.424,19.889,-2.1263e-07,-0.039046,4.1754e-10,4361,57.568,0,0,0,0,0.011072,0
4207.1,54.424,19.889,-2.1263e-07,-0.039046,4.1754e-10,4361,57.568,0,0,0,0,0.011072,0
4207.1,54.424,19.889,-2.1263e-07,-0.039046,4.1754e-10,4361,57.568,0,0,0,0,0.011072,0
4207.1,54.424,19.889,-2.1263e-07,-0.039046,4.1754e-10,4361,57.568,0,0,0,0,0.011072,0
4207.5,54.424,19.888,-2.1262e-07,-0.039092,4.1792e-10,4361,57.568,0,0,0,0,0.0111,0
4207.5,54.424,19.888,-2.1262e-07,-0.039092,4.1792e-10,4361,57.568,0,0,0,0,0.0111,0
4207.5,54.424,19.888,-2.1262e-07,-0.039092,4.1792e-10,4361,57.568,0,0,0,0,0.0111,0
4209.9,54.424,19.883,-2.1257e-07,-0.039372,4.2094e-10,4361,57.568,0,0,0,0,0.011275,0
4209.9,54.424,19.883,-2.1257e-07,-0.039372,4.2094e-10,4361,57.568,0,0,0,0,0.011275,0
4209.9,54.424,19.883,-2.1257e-07,-0.039372,4.2094e-10,4361,57.568,0,0,0,0,0.011275,0
4211.1,54.424,19.881,-2.1254e-07,-0.03951,4.2242e-10,4361,57.568,0,0,0,0,0.011365,0
4211.1,54.424,19.881,-2.1254e-07,-0.03951,4.2242e-10,4361,57.568,0,0,0,0,0.011365,0
4211.9,54.424,19.879,-2.1253e-07,-0.0396,4.2342e-10,4361,57.568,0,0,0,0,0.011426,0
4211.9,54.424,19.879,-2.1253e-07,-0.0396,4.2342e-10,4361,57.568,0,0,0,0,0.011426,0
4211.9,54.424,19.879,-2.1253e-07,-0.0396,4.2342e-10,4361,57.568,0,0,0,0,0.011426,0
4211.9,54.424,19.879,-2.1253e-07,-0.0396,4.2342e-10,4361,57.568,0,0,0,0,0.011426,0
4211.9,54.424,19.879,-2.1253e-07,-0.0396,4.2342e-10,4361,57.568,0,0,0,0,0.011426,0
4211.9,54.424,19.879,-2.1253e-07,-0.0396,4.2342e-10,4361,57.568,0,0,0,0,0.011426,0
4211.9,54.424,19.879,-2.1253e-07,-0.0396,4.2342e-10,4361,57.568,0,0,0,0,0.011426,0
4211.9,54.424,19.879,-2.1253e-07,-0.0396,4.2342e-10,4361,57.568,0,0,0,0,0.011426,0
4211.9,54.424,19.879,-2.1253e-07,-0.0396,4.2342e-10,4361,57.568,0,0,0,0,0.011426,0
4211.9,54.424,19.879,-2.1253e-07,-0.0396,4.2342e-10,4361,57.568,0,0,0,0,0.011426,0
4211.9,54.424,19.879,-2.1253e-07,-0.0396,4.2342e-10,4361,57.568,0,0,0,0,0.011426,0
4211.9,54.424,19.879,-2.1253e-07,-0.0396,4.2342e-10,4361,57.568,0,0,0,0,0.011426,0
4211.9,54.424,19.879,-2.1253e-07,-0.0396,4.2342e-10,4361,57.568,0,0,0,0,0.011426,0
4211.9,54.424,19.879,-2.1253e-07,-0.0396,4.2342e-10,4361,57.568,0,0,0,0,0.011426,0
4211.9,54.424,19.879,-2.1253e-07,-0.0396,4.2342e-10,4361,57.568,0,0,0,0,0.011426,0
4211.9,54.424,19.879,-2.1253e-07,-0.0396,4.2342e-10,4361,57.568,0,0,0,0,0.011426,0
4211.9,54.424,19.879,-2.1253e-07,-0.0396,4.2342e-10,4361,57.568,0,0,0,0,0.011426,0
4211.9,54.424,19.879,-2.1253e-07,-0.0396,4.2342e-10,4361,57.568,0,0,0,0,0.011426,0
4211.9,54.424,19.879,-2.1253e-07,-0.0396,4.2342e-10,4361,57.568,0,0,0,0,0.011426,0
4211.9,54.424,19.879,-2.1253e-07,-0.0396,4.2342e-10,4361,57.568,0,0,0,0,0.011426,0
4211.9,54.424,19.879,-2.1253e-07,-0.0396,4.2342e-10,4361,57.568,0,0,0,0,0.011426,0
4214.2,54.424,19.875,-2.1248e-07,-0.039873,4.263e-10,4361,57.568,0,0,0,0,0.011611,0
4214.6,54.424,19.874,-2.1247e-07,-0.039918,4.2683e-10,4361,57.568,0,0,0,0,0.011643,0
4214.6,54.424,19.874,-2.1247e-07,-0.039918,4.2683e-10,4361,57.568,0,0,0,0,0.011643,0
4214.6,54.424,19.874,-2.1247e-07,-0.039918,4.2683e-10,4361,57.568,0,0,0,0,0.011643,0
4214.6,54.424,19.874,-2.1247e-07,-0.039918,4.2683e-10,4361,57.568,0,0,0,0,0.011643,0
4217,54.424,19.869,-2.1242e-07,-0.040184,4.2967e-10,4361,57.568,0,0,0,0,0.011835,0
4217,54.424,19.869,-2.1242e-07,-0.040184,4.2967e-10,4361,57.568,0,0,0,0,0.011835,0
4217,54.424,19.869,-2.1242e-07,-0.040184,4.2967e-10,4361,57.568,0,0,0,0,0.011835,0
4217,54.424,19.869,-2.1242e-07,-0.040184,4.2967e-10,4361,57.568,0,0,0,0,0.011835,0
4217,54.424,19.869,-2.1242e-07,-0.040184,4.2967e-10,4361,57.568,0,0,0,0,0.011835,0
4217,54.424,19.869,-2.1242e-07,-0.040184,4.2967e-10,4361,57.568,0,0,0,0,0.011835,0
4217,54.424,19.869,-2.1242e-07,-0.040184,4.2967e-10,4361,57.568,0,0,0,0,0.011835,0
4217,54.424,19.869,-2.1242e-07,-0.040184,4.2967e-10,4361,57.568,0,0,0,0,0.011835,0
4217,54.424,19.869,-2.1242e-07,-0.040184,4.2967e-10,4361,57.568,0,0,0,0,0.011835,0
4217,54.424,19.869,-2.1242e-07,-0.040184,4.2967e-10,4361,57.568,0,0,0,0,0.011835,0
4217,54.424,19.869,-2.1242e-07,-0.040184,4.2967e-10,4361,57.568,0,0,0,0,0.011835,0
4217,54.424,19.869,-2.1242e-07,-0.040184,4.2967e-10,4361,57.568,0,0,0,0,0.011835,0
4217.8,54.424,19.867,-2.124e-07,-0.04027,4.306e-10,4361,57.568,0,0,0,0,0.011901,0
4217.8,54.424,19.867,-2.124e-07,-0.04027,4.306e-10,4361,57.568,0,0,0,0,0.011901,0
4217.8,54.424,19.867,-2.124e-07,-0.04027,4.306e-10,4361,57.568,0,0,0,0,0.011901,0
4217.8,54.424,19.867,-2.124e-07,-0.04027,4.306e-10,4361,57.568,0,0,0,0,0.011901,0
4217.8,54.424,19.867,-2.124e-07,-0.04027,4.306e-10,4361,57.568,0,0,0,0,0.011901,0
4217.8,54.424,19.867,-2.124e-07,-0.04027,4.306e-10,4361,57.568,0,0,0,0,0.011901,0
4217.8,54.424,19.867,-2.124e-07,-0.04027,4.306e-10,4361,57.568,0,0,0,0,0.011901,0
4218.2,54.424,19.867,-2.1239e-07,-0.040312,4.3104e-10,4361,57.568,0,0,0,0,0.011934,0
4220.2,54.424,19.863,-2.1235e-07,-0.040529,4.333e-10,4361,57.568,0,0,0,0,0.012102,0
4220.2,54.424,19.863,-2.1235e-07,-0.040529,4.333e-10,4361,57.568,0,0,0,0,0.012102,0
4220.2,54.424,19.863,-2.1235e-07,-0.040529,4.333e-10,4361,57.568,0,0,0,0,0.012102,0
4220.2,54.424,19.863,-2.1235e-07,-0.040529,4.333e-10,4361,57.568,0,0,0,0,0.012102,0
4220.2,54.424,19.863,-2.1235e-07,-0.040529,4.333e-10,4361,57.568,0,0,0,0,0.012102,0
4220.2,54.424,19.863,-2.1235e-07,-0.040529,4.333e-10,4361,57.568,0,0,0,0,0.012102,0
4220.2,54.424,19.863,-2.1235e-07,-0.040529,4.333e-10,4361,57.568,0,0,0,0,0.012102,0
4220.2,54.424,19.863,-2.1235e-07,-0.040529,4.333e-10,4361,57.568,0,0,0,0,0.012102,0
4220.6,54.424,19.862,-2.1234e-07,-0.040572,4.3376e-10,4361,57.568,0,0,0,0,0.012137,0
4220.6,54.424,19.862,-2.1234e-07,-0.040572,4.3376e-10,4361,57.568,0,0,0,0,0.012137,0
4220.6,54.424,19.862,-2.1234e-07,-0.040572,4.3376e-10,4361,57.568,0,0,0,0,0.012137,0
4220.6,54.424,19.862,-2.1234e-07,-0.040572,4.3376e-10,4361,57.568,0,0,0,0,0.012137,0
4220.6,54.424,19.862,-2.1234e-07,-0.040572,4.3376e-10,4361,57.568,0,0,0,0,0.012137,0
4220.6,54.424,19.862,-2.1234e-07,-0.040572,4.3376e-10,4361,57.568,0,0,0,0,0.012137,0
4220.6,54.424,19.862,-2.1234e-07,-0.040572,4.3376e-10,4361,57.568,0,0,0,0,0.012137,0
4220.6,54.424,19.862,-2.1234e-07,-0.040572,4.3376e-10,4361,57.568,0,0,0,0,0.012137,0
4220.6,54.424,19.862,-2.1234e-07,-0.040572,4.3376e-10,4361,57.568,0,0,0,0,0.012137,0
4220.6,54.424,19.862,-2.1234e-07,-0.040572,4.3376e-10,4361,57.568,0,0,0,0,0.012137,0
4222.2,54.424,19.858,-2.123e-07,-0.04074,4.3556e-10,4361,57.568,0,0,0,0,0.012275,0
4222.2,54.424,19.858,-2.123e-07,-0.04074,4.3556e-10,4361,57.568,0,0,0,0,0.012275,0
4222.6,54.424,19.858,-2.1229e-07,-0.04078,4.3597e-10,4361,57.568,0,0,0,0,0.012311,0
4222.6,54.424,19.858,-2.1229e-07,-0.04078,4.3597e-10,4361,57.568,0,0,0,0,0.012311,0
4222.6,54.424,19.858,-2.1229e-07,-0.04078,4.3597e-10,4361,57.568,0,0,0,0,0.012311,0
4223.8,54.424,19.855,-2.1227e-07,-0.040905,4.3733e-10,4361,57.568,0,0,0,0,0.012417,0
4225.4,54.424,19.852,-2.1223e-07,-0.041068,4.3907e-10,4361,57.568,0,0,0,0,0.012563,0
4225.4,54.424,19.852,-2.1223e-07,-0.041068,4.3907e-10,4361,57.568,0,0,0,0,0.012563,0
4225.4,54.424,19.852,-2.1223e-07,-0.041068,4.3907e-10,4361,57.568,0,0,0,0,0.012563,0
4226.6,54.424,19.849,-2.1221e-07,-0.041191,4.4037e-10,4361,57.568,0,0,0,0,0.012674,0
4226.6,54.424,19.849,-2.1221e-07,-0.041191,4.4037e-10,4361,57.568,0,0,0,0,0.012674,0
4226.6,54.424,19.849,-2.1221e-07,-0.041191,4.4037e-10,4361,57.568,0,0,0,0,0.012674,0
4226.6,54.424,19.849,-2.1221e-07,-0.041191,4.4037e-10,4361,57.568,0,0,0,0,0.012674,0
4226.6,54.424,19.849,-2.1221e-07,-0.041191,4.4037e-10,4361,57.568,0,0,0,0,0.012674,0
4226.6,54.424,19.849,-2.1221e-07,-0.041191,4.4037e-10,4361,57.568,0,0,0,0,0.012674,0
4226.6,54.424,19.849,-2.1221e-07,-0.041191,4.4037e-10,4361,57.568,0,0,0,0,0.012674,0
4226.6,54.424,19.849,-2.1221e-07,-0.041191,4.4037e-10,4361,57.568,0,0,0,0,0.012674,0
4226.6,54.424,19.849,-2.1221e-07,-0.041191,4.4037e-10,4361,57.568,0,0,0,0,0.012674,0
4226.6,54.424,19.849,-2.1221e-07,-0.041191,4.4037e-10,4361,57.568,0,0,0,0,0.012674,0
4226.6,54.424,19.849,-2.1221e-07,-0.041191,4.4037e-10,4361,57.568,0,0,0,0,0.012674,0
4226.6,54.424,19.849,-2.1221e-07,-0.041191,4.4037e-10,4361,57.568,0,0,0,0,0.012674,0
4226.6,54.424,19.849,-2.1221e-07,-0.041191,4.4037e-10,4361,57.568,0,0,0,0,0.012674,0
4226.6,54.424,19.849,-2.1221e-07,-0.041191,4.4037e-10,4361,57.568,0,0,0,0,0.012674,0
4226.6,54.424,19.849,-2.1221e-07,-0.041191,4.4037e-10,4361,57.568,0,0,0,0,0.012674,0
4226.6,54.424,19.849,-2.1221e-07,-0.041191,4.4037e-10,4361,57.568,0,0,0,0,0.012674,0
4226.6,54.424,19.849,-2.1221e-07,-0.041191,4.4037e-10,4361,57.568,0,0,0,0,0.012674,0
4226.6,54.424,19.849,-2.1221e-07,-0.041191,4.4037e-10,4361,57.568,0,0,0,0,0.012674,0
4227.3,54.424,19.848,-2.1219e-07,-0.041271,4.4121e-10,4361,57.568,0,0,0,0,0.012749,0
4227.3,54.424,19.848,-2.1219e-07,-0.041271,4.4121e-10,4361,57.568,0,0,0,0,0.012749,0
4227.3,54.424,19.848,-2.1219e-07,-0.041271,4.4121e-10,4361,57.568,0,0,0,0,0.012749,0
4227.3,54.424,19.848,-2.1219e-07,-0.041271,4.4121e-10,4361,57.568,0,0,0,0,0.012749,0
4227.3,54.424,19.848,-2.1219e-07,-0.041271,4.4121e-10,4361,57.568,0,0,0,0,0.012749,0
4227.3,54.424,19.848,-2.1219e-07,-0.041271,4.4121e-10,4361,57.568,0,0,0,0,0.012749,0
4227.3,54.424,19.848,-2.1219e-07,-0.041271,4.4121e-10,4361,57.568,0,0,0,0,0.012749,0
4228.1,54.424,19.846,-2.1217e-07,-0.04135,4.4208e-10,4361,57.568,0,0,0,0,0.012825,0
4228.1,54.424,19.846,-2.1217e-07,-0.04135,4.4208e-10,4361,57.568,0,0,0,0,0.012825,0
4228.1,54.424,19.846,-2.1217e-07,-0.04135,4.4208e-10,4361,57.568,0,0,0,0,0.012825,0
4230.9,54.424,19.84,-2.1211e-07,-0.041627,4.4503e-10,4361,57.568,0,0,0,0,0.013099,0
4232.1,54.424,19.838,-2.1208e-07,-0.041742,4.4633e-10,4361,57.568,0,0,0,0,0.01322,0
4232.1,54.424,19.838,-2.1208e-07,-0.041742,4.4633e-10,4361,57.568,0,0,0,0,0.01322,0
4232.1,54.424,19.838,-2.1208e-07,-0.041742,4.4633e-10,4361,57.568,0,0,0,0,0.01322,0
4232.1,54.424,19.838,-2.1208e-07,-0.041742,4.4633e-10,4361,57.568,0,0,0,0,0.01322,0
4232.1,54.424,19.838,-2.1208e-07,-0.041742,4.4633e-10,4361,57.568,0,0,0,0,0.01322,0
4232.1,54.424,19.838,-2.1208e-07,-0.041742,4.4633e-10,4361,57.568,0,0,0,0,0.01322,0
4232.1,54.424,19.838,-2.1208e-07,-0.041742,4.4633e-10,4361,57.568,0,0,0,0,0.01322,0
4232.1,54.424,19.838,-2.1208e-07,-0.041742,4.4633e-10,4361,57.568,0,0,0,0,0.01322,0
4232.1,54.424,19.838,-2.1208e-07,-0.041742,4.4633e-10,4361,57.568,0,0,0,0,0.01322,0
4232.1,54.424,19.838,-2.1208e-07,-0.041742,4.4633e-10,4361,57.568,0,0,0,0,0.01322,0
4232.1,54.424,19.838,-2.1208e-07,-0.041742,4.4633e-10,4361,57.568,0,0,0,0,0.01322,0
4232.1,54.424,19.838,-2.1208e-07,-0.041742,4.4633e-10,4361,57.568,0,0,0,0,0.01322,0
4233.3,54.424,19.835,-2.1206e-07,-0.041856,4.4751e-10,4361,57.568,0,0,0,0,0.013343,0
4233.3,54.424,19.835,-2.1206e-07,-0.041856,4.4751e-10,4361,57.568,0,0,0,0,0.013343,0
4233.3,54.424,19.835,-2.1206e-07,-0.041856,4.4751e-10,4361,57.568,0,0,0,0,0.013343,0
4233.3,54.424,19.835,-2.1206e-07,-0.041856,4.4751e-10,4361,57.568,0,0,0,0,0.013343,0
4233.3,54.424,19.835,-2.1206e-07,-0.041856,4.4751e-10,4361,57.568,0,0,0,0,0.013343,0
4233.3,54.424,19.835,-2.1206e-07,-0.041856,4.4751e-10,4361,57.568,0,0,0,0,0.013343,0
4233.3,54.424,19.835,-2.1206e-07,-0.041856,4.4751e-10,4361,57.568,0,0,0,0,0.013343,0
4233.3,54.424,19.835,-2.1206e-07,-0.041856,4.4751e-10,4361,57.568,0,0,0,0,0.013343,0
4233.3,54.424,19.835,-2.1206e-07,-0.041856,4.4751e-10,4361,57.568,0,0,0,0,0.013343,0
4233.3,54.424,19.835,-2.1206e-07,-0.041856,4.4751e-10,4361,57.568,0,0,0,0,0.013343,0
4233.3,54.424,19.835,-2.1206e-07,-0.041856,4.4751e-10,4361,57.568,0,0,0,0,0.013343,0
4233.3,54.424,19.835,-2.1206e-07,-0.041856,4.4751e-10,4361,57.568,0,0,0,0,0.013343,0
4233.3,54.424,19.835,-2.1206e-07,-0.041856,4.4751e-10,4361,57.568,0,0,0,0,0.013343,0
4233.3,54.424,19.835,-2.1206e-07,-0.041856,4.4751e-10,4361,57.568,0,0,0,0,0.013343,0
4233.3,54.424,19.835,-2.1206e-07,-0.041856,4.4751e-10,4361,57.568,0,0,0,0,0.013343,0
4233.3,54.424,19.835,-2.1206e-07,-0.041856,4.4751e-10,4361,57.568,0,0,0,0,0.013343,0
4234.1,54.424,19.834,-2.1204e-07,-0.041932,4.4831e-10,4361,57.568,0,0,0,0,0.013426,0
4234.1,54.424,19.834,-2.1204e-07,-0.041932,4.4831e-10,4361,57.568,0,0,0,0,0.013426,0
4235.7,54.424,19.83,-2.12e-07,-0.042084,4.4991e-10,4361,57.568,0,0,0,0,0.013596,0
4237.3,54.424,19.827,-2.1197e-07,-0.042232,4.5149e-10,4361,57.568,0.2,4.0525e-05,4,0.0017749,0.013908,0
4238.5,54.424,19.824,-2.1194e-07,-0.042341,4.5265e-10,4361.1,57.568,0.44,0.00045357,4,0.010422,0.01421,0
4238.5,54.424,19.824,-2.1194e-07,-0.042341,4.5265e-10,4361.1,57.568,0.6,0.0011076,4,0.019147,0.014322,0
4238.5,54.424,19.824,-2.1194e-07,-0.042341,4.5265e-10,4361.1,57.568,0.6,0.0011076,4,0.019147,0.014322,0
4238.5,54.424,19.824,-2.1194e-07,-0.042341,4.5265e-10,4361.1,57.568,0.68,0.0015831,4,0.024341,0.014377,0
4238.5,54.424,19.824,-2.1194e-07,-0.042341,4.5265e-10,4361.1,57.568,0.68,0.0015831,4,0.024341,0.014377,0
4238.5,54.424,19.824,-2.1194e-07,-0.042341,4.5265e-10,4361.1,57.568,0.68,0.0015831,4,0.024341,0.014377,0
4238.5,54.424,19.824,-2.1194e-07,-0.042341,4.5265e-10,4361.1,57.568,0.68,0.0015831,4,0.024341,0.014377,0
4238.5,54.424,19.824,-2.1194e-07,-0.042341,4.5265e-10,4361.1,57.568,0.68,0.0015831,4,0.024341,0.014377,0
4238.5,54.424,19.824,-2.1194e-07,-0.042341,4.5265e-10,4361.1,57.568,0.68,0.0015831,4,0.024341,0.014377,0
4238.5,54.424,19.824,-2.1194e-07,-0.042341,4.5265e-10,4361.1,57.568,0.68,0.0015831,4,0.024341,0.014377,0
4238.5,54.424,19.824,-2.1194e-07,-0.042341,4.5265e-10,4361.1,57.568,0.68,0.0015831,4,0.024341,0.014377,0
4238.5,54.424,19.824,-2.1194e-07,-0.042341,4.5265e-10,4361.1,57.568,0.68,0.0015831,4,0.024341,0.014377,0
4239.6,54.424,19.822,-2.1191e-07,-0.04245,4.5381e-10,4361.1,57.568,0.68,0.0015831,4,0.024341,0.014518,0
4239.6,54.424,19.822,-2.1191e-07,-0.04245,4.5381e-10,4361.1,57.568,0.68,0.0015831,4,0.024341,0.014518,0
4239.6,54.424,19.822,-2.1191e-07,-0.04245,4.5381e-10,4361.1,57.568,0.68,0.0015831,4,0.024341,0.014518,0
4239.6,54.424,19.822,-2.1191e-07,-0.04245,4.5381e-10,4361.1,57.568,0.68,0.0015831,4,0.024341,0.014518,0
4239.6,54.424,19.822,-2.1191e-07,-0.04245,4.5381e-10,4361.1,57.568,0.68,0.0015831,4,0.024341,0.014518,0
4239.6,54.424,19.822,-2.1191e-07,-0.04245,4.5381e-10,4361.1,57.568,0.68,0.0015831,4,0.024341,0.014518,0
4239.6,54.424,19.822,-2.1191e-07,-0.04245,4.5381e-10,4361.1,57.568,0.68,0.0015831,4,0.024341,0.014518,0
4239.6,54.424,19.822,-2.1191e-07,-0.04245,4.5381e-10,4361.1,57.568,0.68,0.0015831,4,0.024341,0.014518,0
4239.6,54.424,19.822,-2.1191e-07,-0.04245,4.5381e-10,4361.1,57.568,0.68,0.0015831,4,0.024341,0.014518,0
4239.6,54.424,19.822,-2.1191e-07,-0.04245,4.5381e-10,4361.1,57.568,0.68,0.0015831,4,0.024341,0.014518,0
4239.6,54.424,19.822,-2.1191e-07,-0.04245,4.5381e-10,4361.1,57.568,0.84,0.0028808,3.9999,0.036173,0.014631,0
4239.6,54.424,19.822,-2.1191e-07,-0.04245,4.5381e-10,4361.1,57.568,0.84,0.0028808,3.9999,0.036173,0.014631,0
4239.6,54.424,19.822,-2.1191e-07,-0.04245,4.5381e-10,4361.1,57.568,0.84,0.0028808,3.9999,0.036173,0.014631,0
4240.4,54.424,19.82,-2.1189e-07,-0.04252,4.5457e-10,4361.1,57.568,0.84,0.0028808,3.9999,0.036173,0.014727,0
4242,54.424,19.817,-2.1186e-07,-0.042663,4.5609e-10,4361.2,57.568,1.16,0.0070752,3.9997,0.064133,0.015153,0
4242,54.424,19.817,-2.1186e-07,-0.042663,4.5609e-10,4361.2,57.568,1.16,0.0070752,3.9997,0.064133,0.015153,0
4242,54.424,19.817,-2.1186e-07,-0.042663,4.5609e-10,4361.3,57.569,1.4799,0.013635,3.9993,0.09464,0.015384,0
4243.6,54.424,19.813,-2.1182e-07,-0.0428,4.5759e-10,4361.3,57.569,1.4799,0.013635,3.9993,0.09464,0.015591,0
4243.6,54.424,19.813,-2.1182e-07,-0.0428,4.5759e-10,4361.4,57.57,1.7199,0.02012,3.9989,0.11677,0.015766,0
4243.6,54.424,19.813,-2.1182e-07,-0.0428,4.5759e-10,4361.4,57.57,1.7199,0.02012,3.9989,0.11677,0.015766,0
4243.6,54.424,19.813,-2.1182e-07,-0.0428,4.5759e-10,4361.4,57.57,1.7199,0.02012,3.9989,0.11677,0.015766,0
4243.6,54.424,19.813,-2.1182e-07,-0.0428,4.5759e-10,4361.4,57.57,1.7199,0.02012,3.9989,0.11677,0.015766,0
4243.6,54.424,19.813,-2.1182e-07,-0.0428,4.5759e-10,4361.4,57.57,1.7199,0.02012,3.9989,0.11677,0.015766,0
4243.6,54.424,19.813,-2.1182e-07,-0.0428,4.5759e-10,4361.4,57.57,1.7199,0.02012,3.9989,0.11677,0.015766,0
4243.6,54.424,19.813,-2.1182e-07,-0.0428,4.5759e-10,4361.4,57.57,1.7199,0.02012,3.9989,0.11677,0.015766,0
4243.6,54.424,19.813,-2.1182e-07,-0.0428,4.5759e-10,4361.4,57.57,1.7199,0.02012,3.9989,0.11677,0.015766,0
4243.6,54.424,19.813,-2.1182e-07,-0.0428,4.5759e-10,4361.4,57.57,1.7199,0.02012,3.9989,0.11677,0.015766,0
4243.6,54.424,19.813,-2.1182e-07,-0.0428,4.5759e-10,4361.4,57.57,1.7199,0.02012,3.9989,0.11677,0.015766,0
4243.6,54.424,19.813,-2.1182e-07,-0.0428,4.5759e-10,4361.4,57.571,1.7999,0.022561,3.9988,0.12367,0.015825,0
4243.6,54.424,19.813,-2.1182e-07,-0.0428,4.5759e-10,4361.4,57.571,1.7999,0.022561,3.9988,0.12367,0.015825,0
4243.6,54.424,19.813,-2.1182e-07,-0.0428,4.5759e-10,4361.5,57.571,1.8798,0.025133,3.9986,0.13025,0.015883,0
4243.6,54.424,19.813,-2.1182e-07,-0.0428,4.5759e-10,4361.5,57.571,1.8798,0.025133,3.9986,0.13025,0.015883,0
4243.6,54.424,19.813,-2.1182e-07,-0.0428,4.5759e-10,4361.5,57.571,1.8798,0.025133,3.9986,0.13025,0.015883,0
4243.6,54.424,19.813,-2.1182e-07,-0.0428,4.5759e-10,4361.5,57.571,1.8798,0.025133,3.9986,0.13025,0.015883,0
4243.6,54.424,19.813,-2.1182e-07,-0.0428,4.5759e-10,4361.5,57.571,1.8798,0.025133,3.9986,0.13025,0.015883,0
4243.6,54.424,19.813,-2.1182e-07,-0.0428,4.5759e-10,4361.5,57.571,1.8798,0.025133,3.9986,0.13025,0.015883,0
4243.6,54.424,19.813,-2.1182e-07,-0.0428,4.5759e-10,4361.5,57.571,1.8798,0.025133,3.9986,0.13025,0.015883,0
4243.6,54.424,19.813,-2.1182e-07,-0.0428,4.5759e-10,4361.5,57.571,1.8798,0.025133,3.9986,0.13025,0.015883,0
4243.6,54.424,19.813,-2.1182e-07,-0.0428,4.5759e-10,4361.5,57.571,1.8798,0.025133,3.9986,0.13025,0.015883,0
4245.6,54.424,19.809,-2.1178e-07,-0.042971,4.5937e-10,4361.5,57.571,1.8798,0.025133,3.9986,0.13025,0.016154,0
4245.6,54.424,19.809,-2.1178e-07,-0.042971,4.5937e-10,4361.5,57.571,1.8798,0.025133,3.9986,0.13025,0.016154,0
4245.6,54.424,19.809,-2.1178e-07,-0.042971,4.5937e-10,4361.7,57.574,2.2797,0.039641,3.9979,0.15648,0.016451,0
4245.6,54.424,19.809,-2.1178e-07,-0.042971,4.5937e-10,4361.7,57.574,2.2797,0.039641,3.9979,0.15648,0.016451,0
4247.6,54.424,19.805,-2.1173e-07,-0.043141,4.6125e-10,4361.7,57.574,2.2797,0.039641,3.9979,0.15648,0.016736,0
4247.6,54.424,19.805,-2.1173e-07,-0.043141,4.6125e-10,4361.7,57.574,2.2797,0.039641,3.9979,0.15648,0.016736,0
4247.6,54.424,19.805,-2.1173e-07,-0.043141,4.6125e-10,4361.7,57.574,2.2797,0.039641,3.9979,0.15648,0.016736,0
4247.6,54.424,19.805,-2.1173e-07,-0.043141,4.6125e-10,4361.7,57.574,2.2797,0.039641,3.9979,0.15648,0.016736,0
4249.5,54.424,19.8,-2.1168e-07,-0.043305,4.6295e-10,4361.8,57.576,2.4396,0.04602,3.9977,0.16312,0.017154,0
4249.5,54.424,19.8,-2.1168e-07,-0.043305,4.6295e-10,4361.8,57.576,2.4396,0.04602,3.9977,0.16312,0.017154,0
4249.5,54.424,19.8,-2.1168e-07,-0.043305,4.6295e-10,4362.1,57.582,2.8393,0.062552,3.9973,0.16837,0.017459,0
4250.3,54.424,19.799,-2.1166e-07,-0.043368,4.6359e-10,4362.1,57.582,2.8393,0.062552,3.9973,0.16837,0.017583,0
4250.3,54.424,19.799,-2.1166e-07,-0.043368,4.6359e-10,4362.1,57.582,2.8393,0.062552,3.9973,0.16837,0.017583,0
4250.3,54.424,19.799,-2.1166e-07,-0.043368,4.6359e-10,4362.1,57.582,2.8393,0.062552,3.9973,0.16837,0.017583,0
4250.3,54.424,19.799,-2.1166e-07,-0.043368,4.6359e-10,4362.1,57.582,2.8393,0.062552,3.9973,0.16837,0.017583,0
4251.1,54.424,19.797,-2.1165e-07,-0.043432,4.6429e-10,4362.2,57.584,2.9992,0.06912,3.9973,0.16577,0.017831,0
4251.1,54.424,19.797,-2.1165e-07,-0.043432,4.6429e-10,4362.2,57.584,2.9992,0.06912,3.9973,0.16577,0.017831,0
4251.5,54.424,19.796,-2.1164e-07,-0.043464,4.646e-10,4362.2,57.584,2.9992,0.06912,3.9973,0.16577,0.017895,0
4251.5,54.424,19.796,-2.1164e-07,-0.043464,4.646e-10,4362.2,57.584,2.9992,0.06912,3.9973,0.16577,0.017895,0
4251.5,54.424,19.796,-2.1164e-07,-0.043464,4.646e-10,4362.2,57.584,2.9992,0.06912,3.9973,0.16577,0.017895,0
4251.5,54.424,19.796,-2.1164e-07,-0.043464,4.646e-10,4362.2,57.584,2.9992,0.06912,3.9973,0.16577,0.017895,0
4251.5,54.424,19.796,-2.1164e-07,-0.043464,4.646e-10,4362.2,57.584,2.9992,0.06912,3.9973,0.16577,0.017895,0
4251.5,54.424,19.796,-2.1164e-07,-0.043464,4.646e-10,4362.2,57.584,2.9992,0.06912,3.9973,0.16577,0.017895,0
4251.5,54.424,19.796,-2.1164e-07,-0.043464,4.646e-10,4362.2,57.584,2.9992,0.06912,3.9973,0.16577,0.017895,0
4251.5,54.424,19.796,-2.1164e-07,-0.043464,4.646e-10,4362.2,57.584,2.9992,0.06912,3.9973,0.16577,0.017895,0
4251.9,54.424,19.795,-2.1163e-07,-0.043496,4.6495e-10,4362.2,57.584,2.9992,0.06912,3.9973,0.16577,0.017959,0
4251.9,54.424,19.795,-2.1163e-07,-0.043496,4.6495e-10,4362.4,57.59,3.319,0.081606,3.9975,0.15283,0.018207,0
4251.9,54.424,19.795,-2.1163e-07,-0.043496,4.6495e-10,4362.4,57.59,3.319,0.081606,3.9975,0.15283,0.018207,0
4251.9,54.424,19.795,-2.1163e-07,-0.043496,4.6495e-10,4362.4,57.59,3.319,0.081606,3.9975,0.15283,0.018207,0
4251.9,54.424,19.795,-2.1163e-07,-0.043496,4.6495e-10,4362.4,57.59,3.319,0.081606,3.9975,0.15283,0.018207,0
4251.9,54.424,19.795,-2.1163e-07,-0.043496,4.6495e-10,4362.5,57.592,3.3989,0.08452,3.9976,0.1481,0.018269,0
4253.1,54.424,19.793,-2.116e-07,-0.043591,4.6596e-10,4362.5,57.592,3.3989,0.08452,3.9976,0.1481,0.018467,0
4253.1,54.424,19.793,-2.116e-07,-0.043591,4.6596e-10,4362.8,57.599,3.7188,0.095035,3.9981,0.12406,0.018716,0
4253.1,54.424,19.793,-2.116e-07,-0.043591,4.6596e-10,4362.8,57.599,3.7188,0.095035,3.9981,0.12406,0.018716,0
4253.1,54.424,19.793,-2.116e-07,-0.043591,4.6596e-10,4362.8,57.599,3.7188,0.095035,3.9981,0.12406,0.018716,0
4254.7,54.424,19.789,-2.1156e-07,-0.043713,4.6731e-10,4362.8,57.599,3.7188,0.095035,3.9981,0.12406,0.01899,0
4255.5,54.424,19.787,-2.1154e-07,-0.043775,4.6797e-10,4362.9,57.603,3.8787,0.09948,3.9985,0.10948,0.019256,0
4255.5,54.424,19.787,-2.1154e-07,-0.043775,4.6797e-10,4362.9,57.603,3.8787,0.09948,3.9985,0.10948,0.019256,0
4255.9,54.424,19.786,-2.1153e-07,-0.043804,4.6831e-10,4362.9,57.603,3.8787,0.09948,3.9985,0.10948,0.019327,0
4255.9,54.424,19.786,-2.1153e-07,-0.043804,4.6831e-10,4362.9,57.603,3.8787,0.09948,3.9985,0.10948,0.019327,0
4255.9,54.424,19.786,-2.1153e-07,-0.043804,4.6831e-10,4363.2,57.609,4.1187,0.10498,3.9991,0.085281,0.019516,0
4255.9,54.424,19.786,-2.1153e-07,-0.043804,4.6831e-10,4363.2,57.609,4.1187,0.10498,3.9991,0.085281,0.019516,0
4255.9,54.424,19.786,-2.1153e-07,-0.043804,4.6831e-10,4363.2,57.609,4.1187,0.10498,3.9991,0.085281,0.019516,0
4255.9,54.424,19.786,-2.1153e-07,-0.043804,4.6831e-10,4363.2,57.609,4.1187,0.10498,3.9991,0.085281,0.019516,0
4255.9,54.424,19.786,-2.1153e-07,-0.043804,4.6831e-10,4363.2,57.609,4.1187,0.10498,3.9991,0.085281,0.019516,0
4255.9,54.424,19.786,-2.1153e-07,-0.043804,4.6831e-10,4363.2,57.611,4.1986,0.10648,3.9993,0.076763,0.019579,0
4255.9,54.424,19.786,-2.1153e-07,-0.043804,4.6831e-10,4363.2,57.611,4.1986,0.10648,3.9993,0.076763,0.019579,0
4255.9,54.424,19.786,-2.1153e-07,-0.043804,4.6831e-10,4363.2,57.611,4.1986,0.10648,3.9993,0.076763,0.019579,0
4255.9,54.424,19.786,-2.1153e-07,-0.043804,4.6831e-10,4363.2,57.611,4.1986,0.10648,3.9993,0.076763,0.019579,0
4255.9,54.424,19.786,-2.1153e-07,-0.043804,4.6831e-10,4363.2,57.611,4.1986,0.10648,3.9993,0.076763,0.019579,0
4255.9,54.424,19.786,-2.1153e-07,-0.043804,4.6831e-10,4363.2,57.611,4.1986,0.10648,3.9993,0.076763,0.019579,0
4255.9,54.424,19.786,-2.1153e-07,-0.043804,4.6831e-10,4363.2,57.611,4.1986,0.10648,3.9993,0.076763,0.019579,0
4255.9,54.424,19.786,-2.1153e-07,-0.043804,4.6831e-10,4363.3,57.613,4.2786,0.10781,3.9996,0.068089,0.019642,0
4257.9,54.424,19.782,-2.1149e-07,-0.043956,4.6994e-10,4363.4,57.616,4.3586,0.10897,3.9998,0.0593,0.020074,0
4257.9,54.424,19.782,-2.1149e-07,-0.043956,4.6994e-10,4363.6,57.62,4.5186,0.11076,4.0002,0.041536,0.020201,0
4257.9,54.424,19.782,-2.1149e-07,-0.043956,4.6994e-10,4363.6,57.62,4.5186,0.11076,4.0002,0.041536,0.020201,0
4259.8,54.424,19.778,-2.1144e-07,-0.044104,4.715e-10,4363.9,57.627,4.7587,0.11212,4.0008,0.015004,0.020779,0
4259.8,54.424,19.778,-2.1144e-07,-0.044104,4.715e-10,4363.9,57.627,4.7587,0.11212,4.0008,0.015004,0.020779,0
4259.8,54.424,19.778,-2.1144e-07,-0.044104,4.715e-10,4363.9,57.627,4.7587,0.11212,4.0008,0.015004,0.020779,0
4259.8,54.424,19.778,-2.1144e-07,-0.044104,4.715e-10,4363.9,57.627,4.7587,0.11212,4.0008,0.015004,0.020779,0
4259.8,54.424,19.778,-2.1144e-07,-0.044104,4.715e-10,4363.9,57.627,4.7587,0.11212,4.0008,0.015004,0.020779,0
4259.8,54.424,19.778,-2.1144e-07,-0.044104,4.715e-10,4363.9,57.627,4.7587,0.11212,4.0008,0.015004,0.020779,0
4259.8,54.424,19.778,-2.1144e-07,-0.044104,4.715e-10,4363.9,57.627,4.7587,0.11212,4.0008,0.015004,0.020779,0
4259.8,54.424,19.778,-2.1144e-07,-0.044104,4.715e-10,4363.9,57.627,4.7587,0.11212,4.0008,0.015004,0.020779,0
4259.8,54.424,19.778,-2.1144e-07,-0.044104,4.715e-10,4363.9,57.627,4.7587,0.11212,4.0008,0.015004,0.020779,0
4259.8,54.424,19.778,-2.1144e-07,-0.044104,4.715e-10,4363.9,57.627,4.7587,0.11212,4.0008,0.015004,0.020779,0
4259.8,54.424,19.778,-2.1144e-07,-0.044104,4.715e-10,4364.1,57.631,4.9187,0.11218,4.0011,-0.0021954,0.020907,0
4259.8,54.424,19.778,-2.1144e-07,-0.044104,4.715e-10,4364.1,57.631,4.9187,0.11218,4.0011,-0.0021954,0.020907,0
4259.8,54.424,19.778,-2.1144e-07,-0.044104,4.715e-10,4364.1,57.631,4.9187,0.11218,4.0011,-0.0021954,0.020907,0
4259.8,54.424,19.778,-2.1144e-07,-0.044104,4.715e-10,4364.1,57.631,4.9187,0.11218,4.0011,-0.0021954,0.020907,0
4259.8,54.424,19.778,-2.1144e-07,-0.044104,4.715e-10,4364.1,57.631,4.9187,0.11218,4.0011,-0.0021954,0.020907,0
4259.8,54.424,19.778,-2.1144e-07,-0.044104,4.715e-10,4364.1,57.631,4.9187,0.11218,4.0011,-0.0021954,0.020907,0
4259.8,54.424,19.778,-2.1144e-07,-0.044104,4.715e-10,4364.2,57.633,4.9987,0.11196,4.0013,-0.010553,0.02097,0
4259.8,54.424,19.778,-2.1144e-07,-0.044104,4.715e-10,4364.2,57.633,4.9987,0.11196,4.0013,-0.010553,0.02097,0
4259.8,54.424,19.778,-2.1144e-07,-0.044104,4.715e-10,4364.2,57.633,4.9987,0.11196,4.0013,-0.010553,0.02097,0
4259.8,54.424,19.778,-2.1144e-07,-0.044104,4.715e-10,4364.2,57.633,4.9987,0.11196,4.0013,-0.010553,0.02097,0
4259.8,54.424,19.778,-2.1144e-07,-0.044104,4.715e-10,4364.2,57.633,4.9987,0.11196,4.0013,-0.010553,0.02097,0
4259.8,54.424,19.778,-2.1144e-07,-0.044104,4.715e-10,4364.2,57.633,4.9987,0.11196,4.0013,-0.010553,0.02097,0
4261,54.424,19.775,-2.1141e-07,-0.044191,4.7242e-10,4364.2,57.633,4.9987,0.11196,4.0013,-0.010553,0.021211,0
4262.6,54.424,19.771,-2.1137e-07,-0.044303,4.7363e-10,4364.6,57.642,5.3189,0.10951,4.0017,-0.04174,0.0218,0
4262.6,54.424,19.771,-2.1137e-07,-0.044303,4.7363e-10,4364.9,57.649,5.559,0.10619,4.002,-0.062172,0.021993,0
4263.8,54.424,19.769,-2.1135e-07,-0.044387,4.7452e-10,4364.9,57.649,5.559,0.10619,4.002,-0.062172,0.022251,0
4265,54.424,19.766,-2.1132e-07,-0.04447,4.7543e-10,4365.2,57.655,5.7991,0.10179,4.0021,-0.079603,0.022709,0
4265,54.424,19.766,-2.1132e-07,-0.04447,4.7543e-10,4365.2,57.655,5.7991,0.10179,4.0021,-0.079603,0.022709,0
4265,54.424,19.766,-2.1132e-07,-0.04447,4.7543e-10,4365.2,57.655,5.7991,0.10179,4.0021,-0.079603,0.022709,0
4265,54.424,19.766,-2.1132e-07,-0.04447,4.7543e-10,4365.2,57.655,5.7991,0.10179,4.0021,-0.079603,0.022709,0
4265,54.424,19.766,-2.1132e-07,-0.04447,4.7543e-10,4365.2,57.655,5.7991,0.10179,4.0021,-0.079603,0.022709,0
4265,54.424,19.766,-2.1132e-07,-0.04447,4.7543e-10,4365.2,57.655,5.7991,0.10179,4.0021,-0.079603,0.022709,0
4265,54.424,19.766,-2.1132e-07,-0.04447,4.7543e-10,4365.2,57.655,5.7991,0.10179,4.0021,-0.079603,0.022709,0
4265,54.424,19.766,-2.1132e-07,-0.04447,4.7543e-10,4365.2,57.655,5.7991,0.10179,4.0021,-0.079603,0.022709,0
4265,54.424,19.766,-2.1132e-07,-0.04447,4.7543e-10,4365.5,57.659,5.9592,0.098338,4.0021,-0.089434,0.022838,0
4265,54.424,19.766,-2.1132e-07,-0.04447,4.7543e-10,4365.5,57.659,5.9592,0.098338,4.0021,-0.089434,0.022838,0
4265,54.424,19.766,-2.1132e-07,-0.04447,4.7543e-10,4365.5,57.659,5.9592,0.098338,4.0021,-0.089434,0.022838,0
4265,54.424,19.766,-2.1132e-07,-0.04447,4.7543e-10,4365.5,57.659,5.9592,0.098338,4.0021,-0.089434,0.022838,0
4265,54.424,19.766,-2.1132e-07,-0.04447,4.7543e-10,4365.5,57.659,5.9592,0.098338,4.0021,-0.089434,0.022838,0
4265,54.424,19.766,-2.1132e-07,-0.04447,4.7543e-10,4365.5,57.659,5.9592,0.098338,4.0021,-0.089434,0.022838,0
4265.8,54.424,19.764,-2.113e-07,-0.044524,4.7604e-10,4365.5,57.659,5.9592,0.098338,4.0021,-0.089434,0.023019,0
4265.8,54.424,19.764,-2.113e-07,-0.044524,4.7604e-10,4365.5,57.659,5.9592,0.098338,4.0021,-0.089434,0.023019,0
4265.8,54.424,19.764,-2.113e-07,-0.044524,4.7604e-10,4365.5,57.659,5.9592,0.098338,4.0021,-0.089434,0.023019,0
4265.8,54.424,19.764,-2.113e-07,-0.044524,4.7604e-10,4365.5,57.659,5.9592,0.098338,4.0021,-0.089434,0.023019,0
4265.8,54.424,19.764,-2.113e-07,-0.044524,4.7604e-10,4365.5,57.659,5.9592,0.098338,4.0021,-0.089434,0.023019,0
4265.8,54.424,19.764,-2.113e-07,-0.044524,4.7604e-10,4365.5,57.659,5.9592,0.098338,4.0021,-0.089434,0.023019,0
4265.8,54.424,19.764,-2.113e-07,-0.044524,4.7604e-10,4365.5,57.659,5.9592,0.098338,4.0021,-0.089434,0.023019,0
4266.2,54.424,19.763,-2.1129e-07,-0.044552,4.7632e-10,4365.5,57.659,5.9592,0.098338,4.0021,-0.089434,0.02311,0
4267.4,54.424,19.761,-2.1126e-07,-0.044633,4.7719e-10,4366,57.666,6.2793,0.090473,4.002,-0.10468,0.023648,0
4268.5,54.424,19.758,-2.1123e-07,-0.04471,4.7797e-10,4366.2,57.67,6.4394,0.086174,4.0019,-0.11012,0.024065,0
4269.7,54.424,19.755,-2.112e-07,-0.044788,4.7884e-10,4366.6,57.675,6.6795,0.079422,4.0017,-0.11567,0.024554,0
4269.7,54.424,19.755,-2.112e-07,-0.044788,4.7884e-10,4367,57.679,6.9196,0.072465,4.0015,-0.1183,0.024747,0
4269.7,54.424,19.755,-2.112e-07,-0.044788,4.7884e-10,4367,57.679,6.9196,0.072465,4.0015,-0.1183,0.024747,0
4269.7,54.424,19.755,-2.112e-07,-0.044788,4.7884e-10,4367,57.679,6.9196,0.072465,4.0015,-0.1183,0.024747,0
4269.7,54.424,19.755,-2.112e-07,-0.044788,4.7884e-10,4367,57.679,6.9196,0.072465,4.0015,-0.1183,0.024747,0
4269.7,54.424,19.755,-2.112e-07,-0.044788,4.7884e-10,4367,57.679,6.9196,0.072465,4.0015,-0.1183,0.024747,0
4269.7,54.424,19.755,-2.112e-07,-0.044788,4.7884e-10,4367,57.679,6.9196,0.072465,4.0015,-0.1183,0.024747,0
4269.7,54.424,19.755,-2.112e-07,-0.044788,4.7884e-10,4367,57.679,6.9196,0.072465,4.0015,-0.1183,0.024747,0
4269.7,54.424,19.755,-2.112e-07,-0.044788,4.7884e-10,4367,57.679,6.9196,0.072465,4.0015,-0.1183,0.024747,0
4269.7,54.424,19.755,-2.112e-07,-0.044788,4.7884e-10,4367,57.679,6.9196,0.072465,4.0015,-0.1183,0.024747,0
4270.5,54.424,19.754,-2.1118e-07,-0.044838,4.794e-10,4367,57.679,6.9196,0.072465,4.0015,-0.1183,0.024949,0
4270.5,54.424,19.754,-2.1118e-07,-0.044838,4.794e-10,4367,57.679,6.9196,0.072465,4.0015,-0.1183,0.024949,0
4270.5,54.424,19.754,-2.1118e-07,-0.044838,4.794e-10,4367,57.679,6.9196,0.072465,4.0015,-0.1183,0.024949,0
4270.5,54.424,19.754,-2.1118e-07,-0.044838,4.794e-10,4367,57.679,6.9196,0.072465,4.0015,-0.1183,0.024949,0
4270.5,54.424,19.754,-2.1118e-07,-0.044838,4.794e-10,4367,57.679,6.9196,0.072465,4.0015,-0.1183,0.024949,0
4270.5,54.424,19.754,-2.1118e-07,-0.044838,4.794e-10,4367,57.679,6.9196,0.072465,4.0015,-0.1183,0.024949,0
4270.5,54.424,19.754,-2.1118e-07,-0.044838,4.794e-10,4367,57.679,6.9196,0.072465,4.0015,-0.1183,0.024949,0
4270.5,54.424,19.754,-2.1118e-07,-0.044838,4.794e-10,4367,57.679,6.9196,0.072465,4.0015,-0.1183,0.024949,0
4270.5,54.424,19.754,-2.1118e-07,-0.044838,4.794e-10,4367,57.679,6.9196,0.072465,4.0015,-0.1183,0.024949,0
4270.5,54.424,19.754,-2.1118e-07,-0.044838,4.794e-10,4367,57.679,6.9196,0.072465,4.0015,-0.1183,0.024949,0
4270.5,54.424,19.754,-2.1118e-07,-0.044838,4.794e-10,4367.3,57.682,7.0797,0.067792,4.0014,-0.11857,0.025076,0
4270.5,54.424,19.754,-2.1118e-07,-0.044838,4.794e-10,4367.3,57.682,7.0797,0.067792,4.0014,-0.11857,0.025076,0
4270.5,54.424,19.754,-2.1118e-07,-0.044838,4.794e-10,4367.3,57.682,7.0797,0.067792,4.0014,-0.11857,0.025076,0
4270.5,54.424,19.754,-2.1118e-07,-0.044838,4.794e-10,4367.3,57.682,7.0797,0.067792,4.0014,-0.11857,0.025076,0
4270.5,54.424,19.754,-2.1118e-07,-0.044838,4.794e-10,4367.3,57.682,7.0797,0.067792,4.0014,-0.11857,0.025076,0
4270.5,54.424,19.754,-2.1118e-07,-0.044838,4.794e-10,4367.3,57.682,7.0797,0.067792,4.0014,-0.11857,0.025076,0
4270.5,54.424,19.754,-2.1118e-07,-0.044838,4.794e-10,4367.3,57.682,7.0797,0.067792,4.0014,-0.11857,0.025076,0
4272.5,54.424,19.749,-2.1114e-07,-0.044962,4.8077e-10,4367.4,57.683,7.1597,0.065462,4.0013,-0.1183,0.025662,0
4273.7,54.424,19.746,-2.1111e-07,-0.045036,4.8154e-10,4368,57.688,7.4798,0.056296,4.001,-0.11483,0.026241,0
4274.9,54.424,19.744,-2.1108e-07,-0.045109,4.8232e-10,4368.6,57.692,7.7999,0.047573,4.0008,-0.1082,0.026827,0
4274.9,54.424,19.744,-2.1108e-07,-0.045109,4.8232e-10,4369.1,57.695,8.0399,0.041446,4.0006,-0.10168,0.027014,0
4274.9,54.424,19.744,-2.1108e-07,-0.045109,4.8232e-10,4369.1,57.695,8.0399,0.041446,4.0006,-0.10168,0.027014,0
4274.9,54.424,19.744,-2.1108e-07,-0.045109,4.8232e-10,4369.1,57.695,8.0399,0.041446,4.0006,-0.10168,0.027014,0
4274.9,54.424,19.744,-2.1108e-07,-0.045109,4.8232e-10,4369.3,57.696,8.1199,0.039496,4.0005,-0.099247,0.027076,0
4274.9,54.424,19.744,-2.1108e-07,-0.045109,4.8232e-10,4369.3,57.696,8.1199,0.039496,4.0005,-0.099247,0.027076,0
4274.9,54.424,19.744,-2.1108e-07,-0.045109,4.8232e-10,4369.3,57.696,8.1199,0.039496,4.0005,-0.099247,0.027076,0
4274.9,54.424,19.744,-2.1108e-07,-0.045109,4.8232e-10,4369.3,57.696,8.1199,0.039496,4.0005,-0.099247,0.027076,0
4274.9,54.424,19.744,-2.1108e-07,-0.045109,4.8232e-10,4369.3,57.696,8.1199,0.039496,4.0005,-0.099247,0.027076,0
4274.9,54.424,19.744,-2.1108e-07,-0.045109,4.8232e-10,4369.3,57.696,8.1199,0.039496,4.0005,-0.099247,0.027076,0
4274.9,54.424,19.744,-2.1108e-07,-0.045109,4.8232e-10,4369.3,57.696,8.1199,0.039496,4.0005,-0.099247,0.027076,0
4274.9,54.424,19.744,-2.1108e-07,-0.045109,4.8232e-10,4369.3,57.696,8.1199,0.039496,4.0005,-0.099247,0.027076,0
4276.4,54.424,19.74,-2.1104e-07,-0.045204,4.8331e-10,4369.3,57.696,8.1199,0.039496,4.0005,-0.099247,0.027536,0
4276.4,54.424,19.74,-2.1104e-07,-0.045204,4.8331e-10,4369.3,57.696,8.1199,0.039496,4.0005,-0.099247,0.027536,0
4276.4,54.424,19.74,-2.1104e-07,-0.045204,4.8331e-10,4369.3,57.696,8.1199,0.039496,4.0005,-0.099247,0.027536,0
4276.4,54.424,19.74,-2.1104e-07,-0.045204,4.8331e-10,4369.3,57.696,8.1199,0.039496,4.0005,-0.099247,0.027536,0
4276.4,54.424,19.74,-2.1104e-07,-0.045204,4.8331e-10,4369.3,57.696,8.1199,0.039496,4.0005,-0.099247,0.027536,0
4276.4,54.424,19.74,-2.1104e-07,-0.045204,4.8331e-10,4369.3,57.696,8.1199,0.039496,4.0005,-0.099247,0.027536,0
4276.4,54.424,19.74,-2.1104e-07,-0.045204,4.8331e-10,4369.3,57.696,8.1199,0.039496,4.0005,-0.099247,0.027536,0
4276.4,54.424,19.74,-2.1104e-07,-0.045204,4.8331e-10,4369.3,57.696,8.1199,0.039496,4.0005,-0.099247,0.027536,0
4276.4,54.424,19.74,-2.1104e-07,-0.045204,4.8331e-10,4369.3,57.696,8.1199,0.039496,4.0005,-0.099247,0.027536,0
4276.4,54.424,19.74,-2.1104e-07,-0.045204,4.8331e-10,4369.3,57.696,8.1199,0.039496,4.0005,-0.099247,0.027536,0
4276.4,54.424,19.74,-2.1104e-07,-0.045204,4.8331e-10,4369.6,57.697,8.2799,0.035772,4.0005,-0.093492,0.027659,0
4276.4,54.424,19.74,-2.1104e-07,-0.045204,4.8331e-10,4369.6,57.697,8.2799,0.035772,4.0005,-0.093492,0.027659,0
4276.4,54.424,19.74,-2.1104e-07,-0.045204,4.8331e-10,4369.6,57.697,8.2799,0.035772,4.0005,-0.093492,0.027659,0
4276.4,54.424,19.74,-2.1104e-07,-0.045204,4.8331e-10,4369.6,57.697,8.2799,0.035772,4.0005,-0.093492,0.027659,0
4276.4,54.424,19.74,-2.1104e-07,-0.045204,4.8331e-10,4369.6,57.697,8.2799,0.035772,4.0005,-0.093492,0.027659,0
4276.4,54.424,19.74,-2.1104e-07,-0.045204,4.8331e-10,4369.6,57.697,8.2799,0.035772,4.0005,-0.093492,0.027659,0
4277.2,54.424,19.738,-2.1102e-07,-0.045249,4.8377e-10,4369.6,57.697,8.2799,0.035772,4.0005,-0.093492,0.027895,0
4278.8,54.424,19.735,-2.1098e-07,-0.04534,4.8474e-10,4370.3,57.7,8.6,0.029017,4.0003,-0.081718,0.028624,0
4280.4,54.424,19.731,-2.1094e-07,-0.045428,4.8566e-10,4371,57.702,8.92,0.023181,4.0002,-0.070175,0.029367,0
4281.6,54.424,19.728,-2.1091e-07,-0.045495,4.8635e-10,4371.5,57.703,9.16,0.019383,4.0001,-0.061945,0.029933,0
4281.6,54.424,19.728,-2.1091e-07,-0.045495,4.8635e-10,4371.5,57.703,9.16,0.019383,4.0001,-0.061945,0.029933,0
4281.6,54.424,19.728,-2.1091e-07,-0.045495,4.8635e-10,4371.9,57.704,9.32,0.017112,4.0001,-0.05673,0.03005,0
4281.6,54.424,19.728,-2.1091e-07,-0.045495,4.8635e-10,4371.9,57.704,9.32,0.017112,4.0001,-0.05673,0.03005,0
4281.6,54.424,19.728,-2.1091e-07,-0.045495,4.8635e-10,4371.9,57.704,9.32,0.017112,4.0001,-0.05673,0.03005,0
4281.6,54.424,19.728,-2.1091e-07,-0.045495,4.8635e-10,4371.9,57.704,9.32,0.017112,4.0001,-0.05673,0.03005,0
4281.6,54.424,19.728,-2.1091e-07,-0.045495,4.8635e-10,4371.9,57.704,9.32,0.017112,4.0001,-0.05673,0.03005,0
4281.6,54.424,19.728,-2.1091e-07,-0.045495,4.8635e-10,4371.9,57.704,9.32,0.017112,4.0001,-0.05673,0.03005,0
4281.6,54.424,19.728,-2.1091e-07,-0.045495,4.8635e-10,4371.9,57.704,9.32,0.017112,4.0001,-0.05673,0.03005,0
4281.6,54.424,19.728,-2.1091e-07,-0.045495,4.8635e-10,4371.9,57.704,9.32,0.017112,4.0001,-0.05673,0.03005,0
4282.4,54.424,19.727,-2.1089e-07,-0.045537,4.8684e-10,4371.9,57.704,9.32,0.017112,4.0001,-0.05673,0.030314,0
4282.4,54.424,19.727,-2.1089e-07,-0.045537,4.8684e-10,4371.9,57.704,9.32,0.017112,4.0001,-0.05673,0.030314,0
4282.4,54.424,19.727,-2.1089e-07,-0.045537,4.8684e-10,4371.9,57.704,9.32,0.017112,4.0001,-0.05673,0.030314,0
4282.4,54.424,19.727,-2.1089e-07,-0.045537,4.8684e-10,4371.9,57.704,9.32,0.017112,4.0001,-0.05673,0.030314,0
4282.4,54.424,19.727,-2.1089e-07,-0.045537,4.8684e-10,4371.9,57.704,9.32,0.017112,4.0001,-0.05673,0.030314,0
4282.4,54.424,19.727,-2.1089e-07,-0.045537,4.8684e-10,4371.9,57.704,9.32,0.017112,4.0001,-0.05673,0.030314,0
4282.4,54.424,19.727,-2.1089e-07,-0.045537,4.8684e-10,4371.9,57.704,9.32,0.017112,4.0001,-0.05673,0.030314,0
4282.4,54.424,19.727,-2.1089e-07,-0.045537,4.8684e-10,4371.9,57.704,9.32,0.017112,4.0001,-0.05673,0.030314,0
4282.4,54.424,19.727,-2.1089e-07,-0.045537,4.8684e-10,4371.9,57.704,9.32,0.017112,4.0001,-0.05673,0.030314,0
4282.4,54.424,19.727,-2.1089e-07,-0.045537,4.8684e-10,4371.9,57.704,9.32,0.017112,4.0001,-0.05673,0.030314,0
4282.4,54.424,19.727,-2.1089e-07,-0.045537,4.8684e-10,4372.3,57.704,9.48,0.015038,4.0001,-0.051759,0.03043,0
4282.4,54.424,19.727,-2.1089e-07,-0.045537,4.8684e-10,4372.3,57.704,9.48,0.015038,4.0001,-0.051759,0.03043,0
4282.4,54.424,19.727,-2.1089e-07,-0.045537,4.8684e-10,4372.3,57.704,9.48,0.015038,4.0001,-0.051759,0.03043,0
4282.4,54.424,19.727,-2.1089e-07,-0.045537,4.8684e-10,4372.3,57.704,9.48,0.015038,4.0001,-0.051759,0.03043,0
4282.4,54.424,19.727,-2.1089e-07,-0.045537,4.8684e-10,4372.3,57.704,9.48,0.015038,4.0001,-0.051759,0.03043,0
4282.4,54.424,19.727,-2.1089e-07,-0.045537,4.8684e-10,4372.3,57.704,9.48,0.015038,4.0001,-0.051759,0.03043,0
4282.4,54.424,19.727,-2.1089e-07,-0.045537,4.8684e-10,4372.3,57.704,9.48,0.015038,4.0001,-0.051759,0.03043,0
4282.4,54.424,19.727,-2.1089e-07,-0.045537,4.8684e-10,4372.3,57.704,9.48,0.015038,4.0001,-0.051759,0.03043,0
4283.5,54.424,19.724,-2.1086e-07,-0.0456,4.8751e-10,4372.3,57.704,9.48,0.015038,4.0001,-0.051759,0.030835,0
4284.7,54.424,19.721,-2.1083e-07,-0.045663,4.8817e-10,4373,57.705,9.8,0.011442,4.0001,-0.042608,0.031478,0
4284.7,54.424,19.721,-2.1083e-07,-0.045663,4.8817e-10,4374,57.706,10.2,0.0078716,4,-0.032706,0.031754,0
4287.9,54.424,19.714,-2.1076e-07,-0.045821,4.8987e-10,4374.3,57.706,10.28,0.0072673,4,-0.030931,0.032968,0
4287.9,54.424,19.714,-2.1076e-07,-0.045821,4.8987e-10,4374.3,57.706,10.28,0.0072673,4,-0.030931,0.032968,0
4287.9,54.424,19.714,-2.1076e-07,-0.045821,4.8987e-10,4374.3,57.706,10.28,0.0072673,4,-0.030931,0.032968,0
4287.9,54.424,19.714,-2.1076e-07,-0.045821,4.8987e-10,4374.3,57.706,10.28,0.0072673,4,-0.030931,0.032968,0
4287.9,54.424,19.714,-2.1076e-07,-0.045821,4.8987e-10,4374.3,57.706,10.28,0.0072673,4,-0.030931,0.032968,0
4287.9,54.424,19.714,-2.1076e-07,-0.045821,4.8987e-10,4374.3,57.706,10.28,0.0072673,4,-0.030931,0.032968,0
4287.9,54.424,19.714,-2.1076e-07,-0.045821,4.8987e-10,4374.3,57.706,10.28,0.0072673,4,-0.030931,0.032968,0
4287.9,54.424,19.714,-2.1076e-07,-0.045821,4.8987e-10,4374.3,57.706,10.28,0.0072673,4,-0.030931,0.032968,0
4287.9,54.424,19.714,-2.1076e-07,-0.045821,4.8987e-10,4374.3,57.706,10.28,0.0072673,4,-0.030931,0.032968,0
4287.9,54.424,19.714,-2.1076e-07,-0.045821,4.8987e-10,4374.3,57.706,10.28,0.0072673,4,-0.030931,0.032968,0
4287.9,54.424,19.714,-2.1076e-07,-0.045821,4.8987e-10,4375.1,57.707,10.6,0.0051722,4,-0.024489,0.033179,0
4287.9,54.424,19.714,-2.1076e-07,-0.045821,4.8987e-10,4375.1,57.707,10.6,0.0051722,4,-0.024489,0.033179,0
4287.9,54.424,19.714,-2.1076e-07,-0.045821,4.8987e-10,4375.1,57.707,10.6,0.0051722,4,-0.024489,0.033179,0
4287.9,54.424,19.714,-2.1076e-07,-0.045821,4.8987e-10,4375.1,57.707,10.6,0.0051722,4,-0.024489,0.033179,0
4287.9,54.424,19.714,-2.1076e-07,-0.045821,4.8987e-10,4375.1,57.707,10.6,0.0051722,4,-0.024489,0.033179,0
4287.9,54.424,19.714,-2.1076e-07,-0.045821,4.8987e-10,4375.1,57.707,10.6,0.0051722,4,-0.024489,0.033179,0
4287.9,54.424,19.714,-2.1076e-07,-0.045821,4.8987e-10,4375.1,57.707,10.6,0.0051722,4,-0.024489,0.033179,0
4287.9,54.424,19.714,-2.1076e-07,-0.045821,4.8987e-10,4375.1,57.707,10.6,0.0051722,4,-0.024489,0.033179,0
4287.9,54.424,19.714,-2.1076e-07,-0.045821,4.8987e-10,4375.1,57.707,10.6,0.0051722,4,-0.024489,0.033179,0
4288.7,54.424,19.712,-2.1074e-07,-0.045861,4.9028e-10,4375.1,57.707,10.6,0.0051722,4,-0.024489,0.033481,0
4288.7,54.424,19.712,-2.1074e-07,-0.045861,4.9028e-10,4375.1,57.707,10.6,0.0051722,4,-0.024489,0.033481,0
4288.7,54.424,19.712,-2.1074e-07,-0.045861,4.9028e-10,4375.1,57.707,10.6,0.0051722,4,-0.024489,0.033481,0
4288.7,54.424,19.712,-2.1074e-07,-0.045861,4.9028e-10,4375.1,57.707,10.6,0.0051722,4,-0.024489,0.033481,0
4290.2,54.424,19.708,-2.107e-07,-0.045934,4.91e-10,4375.5,57.707,10.76,0.0043001,4,-0.021649,0.034204,0
4290.2,54.424,19.708,-2.107e-07,-0.045934,4.91e-10,4375.5,57.707,10.76,0.0043001,4,-0.021649,0.034204,0
4290.2,54.424,19.708,-2.107e-07,-0.045934,4.91e-10,4375.5,57.707,10.76,0.0043001,4,-0.021649,0.034204,0
4292.2,54.424,19.704,-2.1065e-07,-0.046024,4.9198e-10,4376.6,57.707,11.111,0.0025439,4.031e-06,-0.016532,0.035169,0
4293,54.424,19.702,-2.1063e-07,-0.046061,4.9239e-10,4377.5,57.708,11.111,0.0014764,1.7319e-06,-0.012051,0.035127,0
4293,54.424,19.702,-2.1063e-07,-0.046061,4.9239e-10,4377.5,57.708,11.111,0.0014764,1.7319e-06,-0.012051,0.035127,0
4293,54.424,19.702,-2.1063e-07,-0.046061,4.9239e-10,4377.5,57.708,11.111,0.0014764,1.7319e-06,-0.012051,0.035127,0
4293,54.424,19.702,-2.1063e-07,-0.046061,4.9239e-10,4377.5,57.708,11.111,0.0014764,1.7319e-06,-0.012051,0.035127,0
4293,54.424,19.702,-2.1063e-07,-0.046061,4.9239e-10,4377.5,57.708,11.111,0.0014764,1.7319e-06,-0.012051,0.035127,0
4293.4,54.424,19.701,-2.1062e-07,-0.046078,4.9257e-10,4377.5,57.708,11.111,0.0014764,1.7319e-06,-0.012051,0.035292,0
4293.4,54.424,19.701,-2.1062e-07,-0.046078,4.9257e-10,4377.5,57.708,11.111,0.0014764,1.7319e-06,-0.012051,0.035292,0
4293.4,54.424,19.701,-2.1062e-07,-0.046078,4.9257e-10,4377.5,57.708,11.111,0.0014764,1.7319e-06,-0.012051,0.035292,0
4293.4,54.424,19.701,-2.1062e-07,-0.046078,4.9257e-10,4377.5,57.708,11.111,0.0014764,1.7319e-06,-0.012051,0.035292,0
4293.4,54.424,19.701,-2.1062e-07,-0.046078,4.9257e-10,4377.5,57.708,11.111,0.0014764,1.7319e-06,-0.012051,0.035292,0
4293.4,54.424,19.701,-2.1062e-07,-0.046078,4.9257e-10,4377.5,57.708,11.111,0.0014764,1.7319e-06,-0.012051,0.035292,0
4293.4,54.424,19.701,-2.1062e-07,-0.046078,4.9257e-10,4377.5,57.708,11.111,0.0014764,1.7319e-06,-0.012051,0.035292,0
4293.4,54.424,19.701,-2.1062e-07,-0.046078,4.9257e-10,4377.5,57.708,11.111,0.0014764,1.7319e-06,-0.012051,0.035292,0
4293.4,54.424,19.701,-2.1062e-07,-0.046078,4.9257e-10,4377.5,57.708,11.111,0.0014764,1.7319e-06,-0.012051,0.035292,0
4293.8,54.424,19.7,-2.1061e-07,-0.046095,4.9276e-10,4377.5,57.708,11.111,0.0014764,1.7319e-06,-0.012051,0.035457,0
4293.8,54.424,19.7,-2.1061e-07,-0.046095,4.9276e-10,4377.5,57.708,11.111,0.0014764,1.7319e-06,-0.012051,0.035457,0
4293.8,54.424,19.7,-2.1061e-07,-0.046095,4.9276e-10,4377.5,57.708,11.111,0.0014764,1.7319e-06,-0.012051,0.035457,0
4293.8,54.424,19.7,-2.1061e-07,-0.046095,4.9276e-10,4377.5,57.708,11.111,0.0014764,1.7319e-06,-0.012051,0.035457,0
4293.8,54.424,19.7,-2.1061e-07,-0.046095,4.9276e-10,4377.5,57.708,11.111,0.0014764,1.7319e-06,-0.012051,0.035457,0
4293.8,54.424,19.7,-2.1061e-07,-0.046095,4.9276e-10,4377.5,57.708,11.111,0.0014764,1.7319e-06,-0.012051,0.035457,0
4293.8,54.424,19.7,-2.1061e-07,-0.046095,4.9276e-10,4377.5,57.708,11.111,0.0014764,1.7319e-06,-0.012051,0.035457,0
4294.2,54.424,19.699,-2.106e-07,-0.046112,4.9295e-10,4377.5,57.708,11.111,0.0014764,1.7319e-06,-0.012051,0.035625,0
4295,54.424,19.697,-2.1058e-07,-0.046147,4.9331e-10,4378.6,57.708,11.111,0.00055843,4.4671e-07,-0.007799,0.035487,0
4296.5,54.424,19.693,-2.1054e-07,-0.046212,4.94e-10,4379.5,57.708,11.111,7.8985e-05,6.2192e-08,-0.005254,0.03578,0
4297.7,54.424,19.691,-2.1051e-07,-0.046261,4.9452e-10,4379.9,57.708,11.111,-9.4611e-05,-1.9908e-08,-0.0042225,0.0361,0
4297.7,54.424,19.691,-2.1051e-07,-0.046261,4.9452e-10,4380.6,57.708,11.111,-0.00028857,-6.8461e-08,-0.0029343,0.035811,0
4297.7,54.424,19.691,-2.1051e-07,-0.046261,4.9452e-10,4380.6,57.708,11.111,-0.00028857,-6.8461e-08,-0.0029343,0.035811,0
4297.7,54.424,19.691,-2.1051e-07,-0.046261,4.9452e-10,4380.6,57.708,11.111,-0.00028857,-6.8461e-08,-0.0029343,0.035811,0
4297.7,54.424,19.691,-2.1051e-07,-0.046261,4.9452e-10,4380.6,57.708,11.111,-0.00028857,-6.8461e-08,-0.0029343,0.035811,0
4297.7,54.424,19.691,-2.1051e-07,-0.046261,4.9452e-10,4380.6,57.708,11.111,-0.00028857,-6.8461e-08,-0.0029343,0.035811,0
4297.7,54.424,19.691,-2.1051e-07,-0.046261,4.9452e-10,4380.6,57.708,11.111,-0.00028857,-6.8461e-08,-0.0029343,0.035811,0
4297.7,54.424,19.691,-2.1051e-07,-0.046261,4.9452e-10,4380.6,57.708,11.111,-0.00028857,-6.8461e-08,-0.0029343,0.035811,0
4297.7,54.424,19.691,-2.1051e-07,-0.046261,4.9452e-10,4380.6,57.708,11.111,-0.00028857,-6.8461e-08,-0.0029343,0.035811,0
4297.7,54.424,19.691,-2.1051e-07,-0.046261,4.9452e-10,4380.6,57.708,11.111,-0.00028857,-6.8461e-08,-0.0029343,0.035811,0
4297.7,54.424,19.691,-2.1051e-07,-0.046261,4.9452e-10,4380.6,57.708,11.111,-0.00028857,-6.8461e-08,-0.0029343,0.035811,0
4298.5,54.424,19.689,-2.1049e-07,-0.046292,4.9484e-10,4380.6,57.708,11.111,-0.00028857,-6.8461e-08,-0.0029343,0.036153,0
4298.5,54.424,19.689,-2.1049e-07,-0.046292,4.9484e-10,4380.6,57.708,11.111,-0.00028857,-6.8461e-08,-0.0029343,0.036153,0
4298.5,54.424,19.689,-2.1049e-07,-0.046292,4.9484e-10,4380.6,57.708,11.111,-0.00028857,-6.8461e-08,-0.0029343,0.036153,0
4298.5,54.424,19.689,-2.1049e-07,-0.046292,4.9484e-10,4380.6,57.708,11.111,-0.00028857,-6.8461e-08,-0.0029343,0.036153,0
4298.5,54.424,19.689,-2.1049e-07,-0.046292,4.9484e-10,4380.6,57.708,11.111,-0.00028857,-6.8461e-08,-0.0029343,0.036153,0
4298.5,54.424,19.689,-2.1049e-07,-0.046292,4.9484e-10,4380.6,57.708,11.111,-0.00028857,-6.8461e-08,-0.0029343,0.036153,0
4298.5,54.424,19.689,-2.1049e-07,-0.046292,4.9484e-10,4380.6,57.708,11.111,-0.00028857,-6.8461e-08,-0.0029343,0.036153,0
4298.5,54.424,19.689,-2.1049e-07,-0.046292,4.9484e-10,4380.6,57.708,11.111,-0.00028857,-6.8461e-08,-0.0029343,0.036153,0
4298.5,54.424,19.689,-2.1049e-07,-0.046292,4.9484e-10,4380.6,57.708,11.111,-0.00028857,-6.8461e-08,-0.0029343,0.036153,0
4298.5,54.424,19.689,-2.1049e-07,-0.046292,4.9484e-10,4381.1,57.708,11.111,-0.00038087,-7.1899e-08,-0.0022278,0.035959,0
4298.5,54.424,19.689,-2.1049e-07,-0.046292,4.9484e-10,4381.1,57.708,11.111,-0.00038087,-7.1899e-08,-0.0022278,0.035959,0
4298.5,54.424,19.689,-2.1049e-07,-0.046292,4.9484e-10,4381.1,57.708,11.111,-0.00038087,-7.1899e-08,-0.0022278,0.035959,0
4298.5,54.424,19.689,-2.1049e-07,-0.046292,4.9484e-10,4381.1,57.708,11.111,-0.00038087,-7.1899e-08,-0.0022278,0.035959,0
4298.5,54.424,19.689,-2.1049e-07,-0.046292,4.9484e-10,4381.1,57.708,11.111,-0.00038087,-7.1899e-08,-0.0022278,0.035959,0
4298.5,54.424,19.689,-2.1049e-07,-0.046292,4.9484e-10,4381.1,57.708,11.111,-0.00038087,-7.1899e-08,-0.0022278,0.035959,0
4298.5,54.424,19.689,-2.1049e-07,-0.046292,4.9484e-10,4381.1,57.708,11.111,-0.00038087,-7.1899e-08,-0.0022278,0.035959,0
4300.5,54.424,19.684,-2.1044e-07,-0.046368,4.9571e-10,4381.3,57.708,11.111,-0.00041758,-6.8682e-08,-0.0019154,0.036734,0
4300.5,54.424,19.684,-2.1044e-07,-0.046368,4.9571e-10,4381.3,57.708,11.111,-0.00041758,-6.8682e-08,-0.0019154,0.036734,0
4302.1,54.424,19.681,-2.104e-07,-0.046428,4.9631e-10,4382.2,57.708,11.111,-0.00051275,-4.0909e-08,-0.00090235,0.037048,0
4302.1,54.424,19.681,-2.104e-07,-0.046428,4.9631e-10,4383.1,57.708,11.111,-0.00054473,-9.9676e-09,-0.00020408,0.036643,0
4303.6,54.424,19.677,-2.1036e-07,-0.046481,4.9693e-10,4383.1,57.708,11.111,-0.00054473,-9.9676e-09,-0.00020408,0.037367,0
4303.6,54.424,19.677,-2.1036e-07,-0.046481,4.9693e-10,4383.1,57.708,11.111,-0.00054473,-9.9676e-09,-0.00020408,0.037367,0
4303.6,54.424,19.677,-2.1036e-07,-0.046481,4.9693e-10,4383.1,57.708,11.111,-0.00054473,-9.9676e-09,-0.00020408,0.037367,0
4303.6,54.424,19.677,-2.1036e-07,-0.046481,4.9693e-10,4383.1,57.708,11.111,-0.00054473,-9.9676e-09,-0.00020408,0.037367,0
4303.6,54.424,19.677,-2.1036e-07,-0.046481,4.9693e-10,4383.1,57.708,11.111,-0.00054473,-9.9676e-09,-0.00020408,0.037367,0
4303.6,54.424,19.677,-2.1036e-07,-0.046481,4.9693e-10,4383.1,57.708,11.111,-0.00054473,-9.9676e-09,-0.00020408,0.037367,0
4303.6,54.424,19.677,-2.1036e-07,-0.046481,4.9693e-10,4383.1,57.708,11.111,-0.00054473,-9.9676e-09,-0.00020408,0.037367,0
4303.6,54.424,19.677,-2.1036e-07,-0.046481,4.9693e-10,4383.9,57.708,11.111,-0.00053452,1.2264e-08,0.00025373,0.036954,0
4303.6,54.424,19.677,-2.1036e-07,-0.046481,4.9693e-10,4383.9,57.708,11.111,-0.00053452,1.2264e-08,0.00025373,0.036954,0
4303.6,54.424,19.677,-2.1036e-07,-0.046481,4.9693e-10,4383.9,57.708,11.111,-0.00053452,1.2264e-08,0.00025373,0.036954,0
4303.6,54.424,19.677,-2.1036e-07,-0.046481,4.9693e-10,4383.9,57.708,11.111,-0.00053452,1.2264e-08,0.00025373,0.036954,0
4303.6,54.424,19.677,-2.1036e-07,-0.046481,4.9693e-10,4383.9,57.708,11.111,-0.00053452,1.2264e-08,0.00025373,0.036954,0
4303.6,54.424,19.677,-2.1036e-07,-0.046481,4.9693e-10,4383.9,57.708,11.111,-0.00053452,1.2264e-08,0.00025373,0.036954,0
4304.4,54.424,19.675,-2.1034e-07,-0.046509,4.9724e-10,4383.9,57.708,11.111,-0.00053452,1.2264e-08,0.00025373,0.037319,0
4304.4,54.424,19.675,-2.1034e-07,-0.046509,4.9724e-10,4383.9,57.708,11.111,-0.00053452,1.2264e-08,0.00025373,0.037319,0
4304.4,54.424,19.675,-2.1034e-07,-0.046509,4.9724e-10,4383.9,57.708,11.111,-0.00053452,1.2264e-08,0.00025373,0.037319,0
4304.4,54.424,19.675,-2.1034e-07,-0.046509,4.9724e-10,4383.9,57.708,11.111,-0.00053452,1.2264e-08,0.00025373,0.037319,0
4304.4,54.424,19.675,-2.1034e-07,-0.046509,4.9724e-10,4383.9,57.708,11.111,-0.00053452,1.2264e-08,0.00025373,0.037319,0
4304.4,54.424,19.675,-2.1034e-07,-0.046509,4.9724e-10,4383.9,57.708,11.111,-0.00053452,1.2264e-08,0.00025373,0.037319,0
4304.4,54.424,19.675,-2.1034e-07,-0.046509,4.9724e-10,4383.9,57.708,11.111,-0.00053452,1.2264e-08,0.00025373,0.037319,0
4304.8,54.424,19.674,-2.1033e-07,-0.046524,4.9737e-10,4383.9,57.708,11.111,-0.00053452,1.2264e-08,0.00025373,0.037504,0
4304.8,54.424,19.674,-2.1033e-07,-0.046524,4.9737e-10,4384.8,57.708,11.111,-0.00049791,2.4097e-08,0.00053206,0.037089,0
4306,54.424,19.671,-2.103e-07,-0.04656,4.9777e-10,4384.8,57.708,11.111,-0.00049791,2.4097e-08,0.00053206,0.037643,0
4306,54.424,19.671,-2.103e-07,-0.04656,4.9777e-10,4385.7,57.707,11.111,-0.00044649,2.7742e-08,0.00068003,0.037224,0
4306,54.424,19.671,-2.103e-07,-0.04656,4.9777e-10,4385.9,57.707,11.111,-0.00043235,2.7735e-08,0.00070139,0.037121,0
4308.4,54.424,19.666,-2.1024e-07,-0.046634,4.9861e-10,4385.9,57.707,11.111,-0.00043235,2.7735e-08,0.00070139,0.038247,0
4308.4,54.424,19.666,-2.1024e-07,-0.046634,4.9861e-10,4386.6,57.707,11.111,-0.00038849,2.6234e-08,0.00073634,0.037922,0
4308.4,54.424,19.666,-2.1024e-07,-0.046634,4.9861e-10,4386.6,57.707,11.111,-0.00038849,2.6234e-08,0.00073634,0.037922,0
4308.4,54.424,19.666,-2.1024e-07,-0.046634,4.9861e-10,4386.6,57.707,11.111,-0.00038849,2.6234e-08,0.00073634,0.037922,0
4308.4,54.424,19.666,-2.1024e-07,-0.046634,4.9861e-10,4386.8,57.707,11.111,-0.00037368,2.5372e-08,0.00073977,0.037815,0
4308.4,54.424,19.666,-2.1024e-07,-0.046634,4.9861e-10,4386.8,57.707,11.111,-0.00037368,2.5372e-08,0.00073977,0.037815,0
4308.4,54.424,19.666,-2.1024e-07,-0.046634,4.9861e-10,4386.8,57.707,11.111,-0.00037368,2.5372e-08,0.00073977,0.037815,0
4308.4,54.424,19.666,-2.1024e-07,-0.046634,4.9861e-10,4386.8,57.707,11.111,-0.00037368,2.5372e-08,0.00073977,0.037815,0
4308.4,54.424,19.666,-2.1024e-07,-0.046634,4.9861e-10,4386.8,57.707,11.111,-0.00037368,2.5372e-08,0.00073977,0.037815,0
4308.4,54.424,19.666,-2.1024e-07,-0.046634,4.9861e-10,4386.8,57.707,11.111,-0.00037368,2.5372e-08,0.00073977,0.037815,0
4308.4,54.424,19.666,-2.1024e-07,-0.046634,4.9861e-10,4386.8,57.707,11.111,-0.00037368,2.5372e-08,0.00073977,0.037815,0
4309.5,54.424,19.663,-2.1021e-07,-0.046669,4.9895e-10,4386.8,57.707,11.111,-0.00037368,2.5372e-08,0.00073977,0.03839,0
4309.5,54.424,19.663,-2.1021e-07,-0.046669,4.9895e-10,4386.8,57.707,11.111,-0.00037368,2.5372e-08,0.00073977,0.03839,0
4309.5,54.424,19.663,-2.1021e-07,-0.046669,4.9895e-10,4386.8,57.707,11.111,-0.00037368,2.5372e-08,0.00073977,0.03839,0
4309.5,54.424,19.663,-2.1021e-07,-0.046669,4.9895e-10,4386.8,57.707,11.111,-0.00037368,2.5372e-08,0.00073977,0.03839,0
4309.5,54.424,19.663,-2.1021e-07,-0.046669,4.9895e-10,4386.8,57.707,11.111,-0.00037368,2.5372e-08,0.00073977,0.03839,0
4309.5,54.424,19.663,-2.1021e-07,-0.046669,4.9895e-10,4386.8,57.707,11.111,-0.00037368,2.5372e-08,0.00073977,0.03839,0
4309.5,54.424,19.663,-2.1021e-07,-0.046669,4.9895e-10,4386.8,57.707,11.111,-0.00037368,2.5372e-08,0.00073977,0.03839,0
4309.5,54.424,19.663,-2.1021e-07,-0.046669,4.9895e-10,4386.8,57.707,11.111,-0.00037368,2.5372e-08,0.00073977,0.03839,0
4309.5,54.424,19.663,-2.1021e-07,-0.046669,4.9895e-10,4386.8,57.707,11.111,-0.00037368,2.5372e-08,0.00073977,0.03839,0
4309.5,54.424,19.663,-2.1021e-07,-0.046669,4.9895e-10,4386.8,57.707,11.111,-0.00037368,2.5372e-08,0.00073977,0.03839,0
4310.3,54.424,19.661,-2.1019e-07,-0.046692,4.9922e-10,4387.3,57.707,11.111,-0.00034416,2.3307e-08,0.00073669,0.038561,0
4310.3,54.424,19.661,-2.1019e-07,-0.046692,4.9922e-10,4387.3,57.707,11.111,-0.00034416,2.3307e-08,0.00073669,0.038561,0
4311.5,54.424,19.658,-2.1016e-07,-0.046724,4.9951e-10,4387.7,57.707,11.111,-0.00031515,2.0967e-08,0.00072266,0.038931,0
4313.1,54.424,19.654,-2.1012e-07,-0.046765,4.9997e-10,4388.4,57.707,11.111,-0.00027335,1.7307e-08,0.00068627,0.039398,0
4313.1,54.424,19.654,-2.1012e-07,-0.046765,4.9997e-10,4389.3,57.707,11.111,-0.00022204,1.2717e-08,0.00061914,0.03894,0
4313.1,54.424,19.654,-2.1012e-07,-0.046765,4.9997e-10,4389.3,57.707,11.111,-0.00022204,1.2717e-08,0.00061914,0.03894,0
4313.1,54.424,19.654,-2.1012e-07,-0.046765,4.9997e-10,4389.5,57.707,11.111,-0.00021012,1.1677e-08,0.00060032,0.038827,0
4313.1,54.424,19.654,-2.1012e-07,-0.046765,4.9997e-10,4389.5,57.707,11.111,-0.00021012,1.1677e-08,0.00060032,0.038827,0
4313.1,54.424,19.654,-2.1012e-07,-0.046765,4.9997e-10,4389.5,57.707,11.111,-0.00021012,1.1677e-08,0.00060032,0.038827,0
4313.1,54.424,19.654,-2.1012e-07,-0.046765,4.9997e-10,4389.5,57.707,11.111,-0.00021012,1.1677e-08,0.00060032,0.038827,0
4313.1,54.424,19.654,-2.1012e-07,-0.046765,4.9997e-10,4389.7,57.707,11.111,-0.0001986,1.0689e-08,0.000581,0.038715,0
4313.1,54.424,19.654,-2.1012e-07,-0.046765,4.9997e-10,4389.7,57.707,11.111,-0.0001986,1.0689e-08,0.000581,0.038715,0
4313.1,54.424,19.654,-2.1012e-07,-0.046765,4.9997e-10,4389.7,57.707,11.111,-0.0001986,1.0689e-08,0.000581,0.038715,0
4313.1,54.424,19.654,-2.1012e-07,-0.046765,4.9997e-10,4389.7,57.707,11.111,-0.0001986,1.0689e-08,0.000581,0.038715,0
4313.1,54.424,19.654,-2.1012e-07,-0.046765,4.9997e-10,4389.7,57.707,11.111,-0.0001986,1.0689e-08,0.000581,0.038715,0
4313.1,54.424,19.654,-2.1012e-07,-0.046765,4.9997e-10,4389.7,57.707,11.111,-0.0001986,1.0689e-08,0.000581,0.038715,0
4313.1,54.424,19.654,-2.1012e-07,-0.046765,4.9997e-10,4389.7,57.707,11.111,-0.0001986,1.0689e-08,0.000581,0.038715,0
4313.1,54.424,19.654,-2.1012e-07,-0.046765,4.9997e-10,4389.7,57.707,11.111,-0.0001986,1.0689e-08,0.000581,0.038715,0
4313.1,54.424,19.654,-2.1012e-07,-0.046765,4.9997e-10,4389.7,57.707,11.111,-0.0001986,1.0689e-08,0.000581,0.038715,0
4314.6,54.424,19.651,-2.1008e-07,-0.046806,5.0036e-10,4389.7,57.707,11.111,-0.0001986,1.0689e-08,0.000581,0.039523,0
4314.6,54.424,19.651,-2.1008e-07,-0.046806,5.0036e-10,4389.7,57.707,11.111,-0.0001986,1.0689e-08,0.000581,0.039523,0
4314.6,54.424,19.651,-2.1008e-07,-0.046806,5.0036e-10,4389.7,57.707,11.111,-0.0001986,1.0689e-08,0.000581,0.039523,0
4314.6,54.424,19.651,-2.1008e-07,-0.046806,5.0036e-10,4389.7,57.707,11.111,-0.0001986,1.0689e-08,0.000581,0.039523,0
4314.6,54.424,19.651,-2.1008e-07,-0.046806,5.0036e-10,4389.7,57.707,11.111,-0.0001986,1.0689e-08,0.000581,0.039523,0
4314.6,54.424,19.651,-2.1008e-07,-0.046806,5.0036e-10,4389.7,57.707,11.111,-0.0001986,1.0689e-08,0.000581,0.039523,0
4314.6,54.424,19.651,-2.1008e-07,-0.046806,5.0036e-10,4389.7,57.707,11.111,-0.0001986,1.0689e-08,0.000581,0.039523,0
4315.4,54.424,19.649,-2.1006e-07,-0.046823,5.0058e-10,4390.2,57.707,11.111,-0.00017674,8.8756e-09,0.00054138,0.039703,0
4315.4,54.424,19.649,-2.1006e-07,-0.046823,5.0058e-10,4390.2,57.707,11.111,-0.00017674,8.8756e-09,0.00054138,0.039703,0
4317,54.424,19.645,-2.1002e-07,-0.046859,5.0093e-10,4390.6,57.707,11.111,-0.00015649,7.2854e-09,0.00050121,0.04031,0
4317.8,54.424,19.643,-2.1e-07,-0.046878,5.0113e-10,4391.5,57.707,11.111,-0.00012077,4.7473e-09,0.000422,0.040253,0
4317.8,54.424,19.643,-2.1e-07,-0.046878,5.0113e-10,4392.2,57.707,11.111,-9.8008e-05,3.3452e-09,0.00036561,0.039894,0
4317.8,54.424,19.643,-2.1e-07,-0.046878,5.0113e-10,4392.2,57.707,11.111,-9.8008e-05,3.3452e-09,0.00036561,0.039894,0
4317.8,54.424,19.643,-2.1e-07,-0.046878,5.0113e-10,4392.4,57.707,11.111,-9.1146e-05,2.9604e-09,0.00034763,0.039775,0
4317.8,54.424,19.643,-2.1e-07,-0.046878,5.0113e-10,4392.4,57.707,11.111,-9.1146e-05,2.9604e-09,0.00034763,0.039775,0
4317.8,54.424,19.643,-2.1e-07,-0.046878,5.0113e-10,4392.4,57.707,11.111,-9.1146e-05,2.9604e-09,0.00034763,0.039775,0
4317.8,54.424,19.643,-2.1e-07,-0.046878,5.0113e-10,4392.4,57.707,11.111,-9.1146e-05,2.9604e-09,0.00034763,0.039775,0
4317.8,54.424,19.643,-2.1e-07,-0.046878,5.0113e-10,4392.4,57.707,11.111,-9.1146e-05,2.9604e-09,0.00034763,0.039775,0
4317.8,54.424,19.643,-2.1e-07,-0.046878,5.0113e-10,4392.4,57.707,11.111,-9.1146e-05,2.9604e-09,0.00034763,0.039775,0
4317.8,54.424,19.643,-2.1e-07,-0.046878,5.0113e-10,4392.4,57.707,11.111,-9.1146e-05,2.9604e-09,0.00034763,0.039775,0
4317.8,54.424,19.643,-2.1e-07,-0.046878,5.0113e-10,4392.6,57.707,11.111,-8.4632e-05,2.6125e-09,0.00033011,0.039657,0
4317.8,54.424,19.643,-2.1e-07,-0.046878,5.0113e-10,4392.6,57.707,11.111,-8.4632e-05,2.6125e-09,0.00033011,0.039657,0
4317.8,54.424,19.643,-2.1e-07,-0.046878,5.0113e-10,4392.6,57.707,11.111,-8.4632e-05,2.6125e-09,0.00033011,0.039657,0
4317.8,54.424,19.643,-2.1e-07,-0.046878,5.0113e-10,4392.6,57.707,11.111,-8.4632e-05,2.6125e-09,0.00033011,0.039657,0
4317.8,54.424,19.643,-2.1e-07,-0.046878,5.0113e-10,4392.6,57.707,11.111,-8.4632e-05,2.6125e-09,0.00033011,0.039657,0
4317.8,54.424,19.643,-2.1e-07,-0.046878,5.0113e-10,4392.6,57.707,11.111,-8.4632e-05,2.6125e-09,0.00033011,0.039657,0
4317.8,54.424,19.643,-2.1e-07,-0.046878,5.0113e-10,4392.6,57.707,11.111,-8.4632e-05,2.6125e-09,0.00033011,0.039657,0
4317.8,54.424,19.643,-2.1e-07,-0.046878,5.0113e-10,4392.6,57.707,11.111,-8.4632e-05,2.6125e-09,0.00033011,0.039657,0
4317.8,54.424,19.643,-2.1e-07,-0.046878,5.0113e-10,4392.6,57.707,11.111,-8.4632e-05,2.6125e-09,0.00033011,0.039657,0
4319.8,54.424,19.638,-2.0995e-07,-0.046918,5.0157e-10,4392.6,57.707,11.111,-8.4632e-05,2.6125e-09,0.00033011,0.040723,0
4319.8,54.424,19.638,-2.0995e-07,-0.046918,5.0157e-10,4392.6,57.707,11.111,-8.4632e-05,2.6125e-09,0.00033011,0.040723,0
4319.8,54.424,19.638,-2.0995e-07,-0.046918,5.0157e-10,4392.6,57.707,11.111,-8.4632e-05,2.6125e-09,0.00033011,0.040723,0
4319.8,54.424,19.638,-2.0995e-07,-0.046918,5.0157e-10,4392.6,57.707,11.111,-8.4632e-05,2.6125e-09,0.00033011,0.040723,0
4319.8,54.424,19.638,-2.0995e-07,-0.046918,5.0157e-10,4392.6,57.707,11.111,-8.4632e-05,2.6125e-09,0.00033011,0.040723,0
4319.8,54.424,19.638,-2.0995e-07,-0.046918,5.0157e-10,4392.6,57.707,11.111,-8.4632e-05,2.6125e-09,0.00033011,0.040723,0
4319.8,54.424,19.638,-2.0995e-07,-0.046918,5.0157e-10,4392.6,57.707,11.111,-8.4632e-05,2.6125e-09,0.00033011,0.040723,0
4320.1,54.424,19.638,-2.0994e-07,-0.046925,5.0166e-10,4392.6,57.707,11.111,-8.4632e-05,2.6125e-09,0.00033011,0.040943,0
4320.1,54.424,19.638,-2.0994e-07,-0.046925,5.0166e-10,4393.7,57.707,11.111,-5.6929e-05,1.3377e-09,0.0002501,0.040327,0
4320.1,54.424,19.638,-2.0994e-07,-0.046925,5.0166e-10,4393.7,57.707,11.111,-5.6929e-05,1.3377e-09,0.0002501,0.040327,0
4320.1,54.424,19.638,-2.0994e-07,-0.046925,5.0166e-10,4393.7,57.707,11.111,-5.6929e-05,1.3377e-09,0.0002501,0.040327,0
4322.9,54.424,19.631,-2.0987e-07,-0.046978,5.0221e-10,4394.2,57.707,11.111,-4.7921e-05,1.0011e-09,0.00022185,0.041626,0
4324.5,54.424,19.627,-2.0983e-07,-0.047001,5.0245e-10,4394.8,57.707,11.111,-3.6357e-05,6.3093e-10,0.00018355,0.042159,0
4324.5,54.424,19.627,-2.0983e-07,-0.047001,5.0245e-10,4394.8,57.707,11.111,-3.6357e-05,6.3093e-10,0.00018355,0.042159,0
4324.5,54.424,19.627,-2.0983e-07,-0.047001,5.0245e-10,4394.8,57.707,11.111,-3.6357e-05,6.3093e-10,0.00018355,0.042159,0
4324.5,54.424,19.627,-2.0983e-07,-0.047001,5.0245e-10,4394.8,57.707,11.111,-3.6357e-05,6.3093e-10,0.00018355,0.042159,0
4324.5,54.424,19.627,-2.0983e-07,-0.047001,5.0245e-10,4394.8,57.707,11.111,-3.6357e-05,6.3093e-10,0.00018355,0.042159,0
4324.5,54.424,19.627,-2.0983e-07,-0.047001,5.0245e-10,4394.8,57.707,11.111,-3.6357e-05,6.3093e-10,0.00018355,0.042159,0
4324.5,54.424,19.627,-2.0983e-07,-0.047001,5.0245e-10,4395.7,57.707,11.111,-2.4128e-05,3.2139e-10,0.00013989,0.041635,0
4325.2,54.424,19.625,-2.0981e-07,-0.047011,5.0263e-10,4395.7,57.707,11.111,-2.4128e-05,3.2139e-10,0.00013989,0.042097,0
4325.2,54.424,19.625,-2.0981e-07,-0.047011,5.0263e-10,4395.7,57.707,11.111,-2.4128e-05,3.2139e-10,0.00013989,0.042097,0
4325.2,54.424,19.625,-2.0981e-07,-0.047011,5.0263e-10,4395.7,57.707,11.111,-2.4128e-05,3.2139e-10,0.00013989,0.042097,0
4325.2,54.424,19.625,-2.0981e-07,-0.047011,5.0263e-10,4395.7,57.707,11.111,-2.4128e-05,3.2139e-10,0.00013989,0.042097,0
4325.2,54.424,19.625,-2.0981e-07,-0.047011,5.0263e-10,4395.7,57.707,11.111,-2.4128e-05,3.2139e-10,0.00013989,0.042097,0
4325.2,54.424,19.625,-2.0981e-07,-0.047011,5.0263e-10,4395.7,57.707,11.111,-2.4128e-05,3.2139e-10,0.00013989,0.042097,0
4325.2,54.424,19.625,-2.0981e-07,-0.047011,5.0263e-10,4395.7,57.707,11.111,-2.4128e-05,3.2139e-10,0.00013989,0.042097,0
4325.2,54.424,19.625,-2.0981e-07,-0.047011,5.0263e-10,4395.7,57.707,11.111,-2.4128e-05,3.2139e-10,0.00013989,0.042097,0
4325.2,54.424,19.625,-2.0981e-07,-0.047011,5.0263e-10,4395.7,57.707,11.111,-2.4128e-05,3.2139e-10,0.00013989,0.042097,0
4325.2,54.424,19.625,-2.0981e-07,-0.047011,5.0263e-10,4396.2,57.707,11.111,-1.9198e-05,2.2236e-10,0.00012106,0.041834,0
4325.2,54.424,19.625,-2.0981e-07,-0.047011,5.0263e-10,4396.2,57.707,11.111,-1.9198e-05,2.2236e-10,0.00012106,0.041834,0
4326,54.424,19.623,-2.0979e-07,-0.047022,5.0267e-10,4396.2,57.707,11.111,-1.9198e-05,2.2236e-10,0.00012106,0.042301,0
4326.8,54.424,19.622,-2.0977e-07,-0.047033,5.0276e-10,4396.6,57.707,11.111,-1.4954e-05,1.4987e-10,0.00010411,0.042507,0
4326.8,54.424,19.622,-2.0977e-07,-0.047033,5.0276e-10,4396.6,57.707,11.111,-1.4954e-05,1.4987e-10,0.00010411,0.042507,0
4326.8,54.424,19.622,-2.0977e-07,-0.047033,5.0276e-10,4396.6,57.707,11.111,-1.4954e-05,1.4987e-10,0.00010411,0.042507,0
4328,54.424,19.619,-2.0974e-07,-0.047049,5.0301e-10,4396.6,57.707,11.111,-1.4954e-05,1.4987e-10,0.00010411,0.043233,0
4328.8,54.424,19.617,-2.0972e-07,-0.047059,5.0311e-10,4397.7,57.707,11.111,-6.8962e-06,4.7254e-11,6.9193e-05,0.043029,0
4328.8,54.424,19.617,-2.0972e-07,-0.047059,5.0311e-10,4397.7,57.707,11.111,-6.8962e-06,4.7254e-11,6.9193e-05,0.043029,0
4328.8,54.424,19.617,-2.0972e-07,-0.047059,5.0311e-10,4398.2,57.707,11.111,-4.5279e-06,2.6615e-11,5.7905e-05,0.042755,0
4328.8,54.424,19.617,-2.0972e-07,-0.047059,5.0311e-10,4398.2,57.707,11.111,-4.5279e-06,2.6615e-11,5.7905e-05,0.042755,0
4328.8,54.424,19.617,-2.0972e-07,-0.047059,5.0311e-10,4398.2,57.707,11.111,-4.5279e-06,2.6615e-11,5.7905e-05,0.042755,0
4328.8,54.424,19.617,-2.0972e-07,-0.047059,5.0311e-10,4398.2,57.707,11.111,-4.5279e-06,2.6615e-11,5.7905e-05,0.042755,0
4328.8,54.424,19.617,-2.0972e-07,-0.047059,5.0311e-10,4398.2,57.707,11.111,-4.5279e-06,2.6615e-11,5.7905e-05,0.042755,0
4329.6,54.424,19.615,-2.097e-07,-0.04707,5.0319e-10,4398.2,57.707,11.111,-4.5279e-06,2.6615e-11,5.7905e-05,0.043242,0
4330,54.424,19.614,-2.0969e-07,-0.047075,5.0325e-10,4398.2,57.707,11.111,-4.5279e-06,2.6615e-11,5.7905e-05,0.04349,0
4330,54.424,19.614,-2.0969e-07,-0.047075,5.0325e-10,4398.2,57.707,11.111,-4.5279e-06,2.6615e-11,5.7905e-05,0.04349,0
4330,54.424,19.614,-2.0969e-07,-0.047075,5.0325e-10,4398.2,57.707,11.111,-4.5279e-06,2.6615e-11,5.7905e-05,0.04349,0
4330,54.424,19.614,-2.0969e-07,-0.047075,5.0325e-10,4398.2,57.707,11.111,-4.5279e-06,2.6615e-11,5.7905e-05,0.04349,0
4330,54.424,19.614,-2.0969e-07,-0.047075,5.0325e-10,4398.2,57.707,11.111,-4.5279e-06,2.6615e-11,5.7905e-05,0.04349,0
4330,54.424,19.614,-2.0969e-07,-0.047075,5.0325e-10,4398.2,57.707,11.111,-4.5279e-06,2.6615e-11,5.7905e-05,0.04349,0
4330,54.424,19.614,-2.0969e-07,-0.047075,5.0325e-10,4398.2,57.707,11.111,-4.5279e-06,2.6615e-11,5.7905e-05,0.04349,0
4330.4,54.424,19.613,-2.0968e-07,-0.047078,5.0335e-10,4398.2,57.707,11.111,-4.5279e-06,2.6615e-11,5.7905e-05,0.043741,0
4330.4,54.424,19.613,-2.0968e-07,-0.047078,5.0335e-10,4398.2,57.707,11.111,-4.5279e-06,2.6615e-11,5.7905e-05,0.043741,0
4331.1,54.424,19.611,-2.0966e-07,-0.047083,5.0337e-10,4398.2,57.707,11.111,-4.5279e-06,2.6615e-11,5.7905e-05,0.044251,0
4331.5,54.424,19.61,-2.0965e-07,-0.047085,5.0337e-10,4398.2,57.707,11.111,-4.5279e-06,2.6615e-11,5.7905e-05,0.04451,0
4331.9,54.424,19.609,-2.0964e-07,-0.047088,5.0341e-10,4398.2,57.707,11.111,-4.5279e-06,2.6615e-11,5.7905e-05,0.044773,0
4333.1,54.424,19.607,-2.0961e-07,-0.047095,5.0349e-10,4400.2,57.707,11.111,1.8161e-06,-3.1892e-12,2.2235e-05,0.044225,0
4333.1,54.424,19.607,-2.0961e-07,-0.047095,5.0349e-10,4400.2,57.707,11.111,1.8161e-06,-3.1892e-12,2.2235e-05,0.044225,0
4333.5,54.424,19.606,-2.096e-07,-0.047097,5.0354e-10,4400.2,57.707,11.111,1.8161e-06,-3.1892e-12,2.2235e-05,0.044484,0
4333.5,54.424,19.606,-2.096e-07,-0.047097,5.0354e-10,4400.2,57.707,11.111,1.8161e-06,-3.1892e-12,2.2235e-05,0.044484,0
4333.5,54.424,19.606,-2.096e-07,-0.047097,5.0354e-10,4400.2,57.707,11.111,1.8161e-06,-3.1892e-12,2.2235e-05,0.044484,0
4333.5,54.424,19.606,-2.096e-07,-0.047097,5.0354e-10,4400.2,57.707,11.111,1.8161e-06,-3.1892e-12,2.2235e-05,0.044484,0
4333.5,54.424,19.606,-2.096e-07,-0.047097,5.0354e-10,4400.2,57.707,11.111,1.8161e-06,-3.1892e-12,2.2235e-05,0.044484,0
4333.5,54.424,19.606,-2.096e-07,-0.047097,5.0354e-10,4400.2,57.707,11.111,1.8161e-06,-3.1892e-12,2.2235e-05,0.044484,0
4333.5,54.424,19.606,-2.096e-07,-0.047097,5.0354e-10,4400.2,57.707,11.111,1.8161e-06,-3.1892e-12,2.2235e-05,0.044484,0
4333.5,54.424,19.606,-2.096e-07,-0.047097,5.0354e-10,4400.2,57.707,11.111,1.8161e-06,-3.1892e-12,2.2235e-05,0.044484,0
4333.5,54.424,19.606,-2.096e-07,-0.047097,5.0354e-10,4400.2,57.707,11.111,1.8161e-06,-3.1892e-12,2.2235e-05,0.044484,0
4333.5,54.424,19.606,-2.096e-07,-0.047097,5.0354e-10,4400.2,57.707,11.111,1.8161e-06,-3.1892e-12,2.2235e-05,0.044484,0
4333.5,54.424,19.606,-2.096e-07,-0.047097,5.0354e-10,4400.2,57.707,11.111,1.8161e-06,-3.1892e-12,2.2235e-05,0.044484,0
4333.5,54.424,19.606,-2.096e-07,-0.047097,5.0354e-10,4400.8,57.707,11.111,2.8032e-06,-3.5185e-12,1.4719e-05,0.044045,0
4333.5,54.424,19.606,-2.096e-07,-0.047097,5.0354e-10,4400.8,57.707,11.111,2.8032e-06,-3.5185e-12,1.4719e-05,0.044045,0
4333.5,54.424,19.606,-2.096e-07,-0.047097,5.0354e-10,4400.8,57.707,11.111,2.8032e-06,-3.5185e-12,1.4719e-05,0.044045,0
4333.5,54.424,19.606,-2.096e-07,-0.047097,5.0354e-10,4400.8,57.707,11.111,2.8032e-06,-3.5185e-12,1.4719e-05,0.044045,0
4333.5,54.424,19.606,-2.096e-07,-0.047097,5.0354e-10,4400.8,57.707,11.111,2.8032e-06,-3.5185e-12,1.4719e-05,0.044045,0
4333.5,54.424,19.606,-2.096e-07,-0.047097,5.0354e-10,4400.8,57.707,11.111,2.8032e-06,-3.5185e-12,1.4719e-05,0.044045,0
4333.5,54.424,19.606,-2.096e-07,-0.047097,5.0354e-10,4400.8,57.707,11.111,2.8032e-06,-3.5185e-12,1.4719e-05,0.044045,0
4333.5,54.424,19.606,-2.096e-07,-0.047097,5.0354e-10,4400.8,57.707,11.111,2.8032e-06,-3.5185e-12,1.4719e-05,0.044045,0
4334.3,54.424,19.604,-2.0958e-07,-0.047101,5.0356e-10,4400.8,57.707,11.111,2.8032e-06,-3.5185e-12,1.4719e-05,0.044562,0
4334.3,54.424,19.604,-2.0958e-07,-0.047101,5.0356e-10,4400.8,57.707,11.111,2.8032e-06,-3.5185e-12,1.4719e-05,0.044562,0
4334.7,54.424,19.603,-2.0957e-07,-0.047103,5.0355e-10,4400.8,57.707,11.111,2.8032e-06,-3.5185e-12,1.4719e-05,0.044825,0
4336.2,54.424,19.599,-2.0953e-07,-0.047111,5.0364e-10,4401.7,57.707,11.111,3.5511e-06,-2.2601e-12,7.2183e-06,0.045288,0
4336.2,54.424,19.599,-2.0953e-07,-0.047111,5.0364e-10,4402.4,57.707,11.111,3.7947e-06,-1.0612e-12,3.1332e-06,0.044834,0
4337.8,54.424,19.595,-2.0949e-07,-0.047117,5.0372e-10,4402.4,57.707,11.111,3.7947e-06,-1.0612e-12,3.1332e-06,0.045918,0
4337.8,54.424,19.595,-2.0949e-07,-0.047117,5.0372e-10,4402.4,57.707,11.111,3.7947e-06,-1.0612e-12,3.1332e-06,0.045918,0
4337.8,54.424,19.595,-2.0949e-07,-0.047117,5.0372e-10,4403.3,57.707,11.111,3.8238e-06,2.4141e-13,-7.002e-07,0.045297,0
4337.8,54.424,19.595,-2.0949e-07,-0.047117,5.0372e-10,4403.5,57.707,11.111,3.7917e-06,4.8642e-13,-1.4201e-06,0.045144,0
4337.8,54.424,19.595,-2.0949e-07,-0.047117,5.0372e-10,4403.5,57.707,11.111,3.7917e-06,4.8642e-13,-1.4201e-06,0.045144,0
4337.8,54.424,19.595,-2.0949e-07,-0.047117,5.0372e-10,4403.5,57.707,11.111,3.7917e-06,4.8642e-13,-1.4201e-06,0.045144,0
4337.8,54.424,19.595,-2.0949e-07,-0.047117,5.0372e-10,4403.5,57.707,11.111,3.7917e-06,4.8642e-13,-1.4201e-06,0.045144,0
4337.8,54.424,19.595,-2.0949e-07,-0.047117,5.0372e-10,4403.5,57.707,11.111,3.7917e-06,4.8642e-13,-1.4201e-06,0.045144,0
4337.8,54.424,19.595,-2.0949e-07,-0.047117,5.0372e-10,4403.5,57.707,11.111,3.7917e-06,4.8642e-13,-1.4201e-06,0.045144,0
4337.8,54.424,19.595,-2.0949e-07,-0.047117,5.0372e-10,4403.5,57.707,11.111,3.7917e-06,4.8642e-13,-1.4201e-06,0.045144,0
4337.8,54.424,19.595,-2.0949e-07,-0.047117,5.0372e-10,4403.5,57.707,11.111,3.7917e-06,4.8642e-13,-1.4201e-06,0.045144,0
4337.8,54.424,19.595,-2.0949e-07,-0.047117,5.0372e-10,4403.5,57.707,11.111,3.7917e-06,4.8642e-13,-1.4201e-06,0.045144,0
4339,54.424,19.592,-2.0946e-07,-0.04712,5.0377e-10,4403.5,57.707,11.111,3.7917e-06,4.8642e-13,-1.4201e-06,0.045963,0
4339,54.424,19.592,-2.0946e-07,-0.04712,5.0377e-10,4403.5,57.707,11.111,3.7917e-06,4.8642e-13,-1.4201e-06,0.045963,0
4339.4,54.424,19.591,-2.0945e-07,-0.047121,5.0379e-10,4403.5,57.707,11.111,3.7917e-06,4.8642e-13,-1.4201e-06,0.046243,0
4339.4,54.424,19.591,-2.0945e-07,-0.047121,5.0379e-10,4403.5,57.707,11.111,3.7917e-06,4.8642e-13,-1.4201e-06,0.046243,0
4339.4,54.424,19.591,-2.0945e-07,-0.047121,5.0379e-10,4403.5,57.707,11.111,3.7917e-06,4.8642e-13,-1.4201e-06,0.046243,0
4339.4,54.424,19.591,-2.0945e-07,-0.047121,5.0379e-10,4403.5,57.707,11.111,3.7917e-06,4.8642e-13,-1.4201e-06,0.046243,0
4339.4,54.424,19.591,-2.0945e-07,-0.047121,5.0379e-10,4403.5,57.707,11.111,3.7917e-06,4.8642e-13,-1.4201e-06,0.046243,0
4339.4,54.424,19.591,-2.0945e-07,-0.047121,5.0379e-10,4403.5,57.707,11.111,3.7917e-06,4.8642e-13,-1.4201e-06,0.046243,0
4339.4,54.424,19.591,-2.0945e-07,-0.047121,5.0379e-10,4403.5,57.707,11.111,3.7917e-06,4.8642e-13,-1.4201e-06,0.046243,0
4339.4,54.424,19.591,-2.0945e-07,-0.047121,5.0379e-10,4403.5,57.707,11.111,3.7917e-06,4.8642e-13,-1.4201e-06,0.046243,0
4339.8,54.424,19.59,-2.0944e-07,-0.047122,5.0382e-10,4403.5,57.707,11.111,3.7917e-06,4.8642e-13,-1.4201e-06,0.046526,0
4341.3,54.424,19.587,-2.094e-07,-0.047124,5.0381e-10,4404.6,57.707,11.111,3.4742e-06,1.2345e-12,-3.9041e-06,0.04686,0
4341.3,54.424,19.587,-2.094e-07,-0.047124,5.0381e-10,4405.3,57.707,11.111,3.2024e-06,1.3721e-12,-4.6918e-06,0.046374,0
4343.3,54.424,19.582,-2.0935e-07,-0.047123,5.0382e-10,4405.5,57.707,11.111,3.1042e-06,1.3803e-12,-4.8645e-06,0.047662,0
4343.3,54.424,19.582,-2.0935e-07,-0.047123,5.0382e-10,4405.5,57.707,11.111,3.1042e-06,1.3803e-12,-4.8645e-06,0.047662,0
4343.3,54.424,19.582,-2.0935e-07,-0.047123,5.0382e-10,4405.5,57.707,11.111,3.1042e-06,1.3803e-12,-4.8645e-06,0.047662,0
4343.3,54.424,19.582,-2.0935e-07,-0.047123,5.0382e-10,4405.5,57.707,11.111,3.1042e-06,1.3803e-12,-4.8645e-06,0.047662,0
4343.3,54.424,19.582,-2.0935e-07,-0.047123,5.0382e-10,4405.5,57.707,11.111,3.1042e-06,1.3803e-12,-4.8645e-06,0.047662,0
4343.3,54.424,19.582,-2.0935e-07,-0.047123,5.0382e-10,4405.5,57.707,11.111,3.1042e-06,1.3803e-12,-4.8645e-06,0.047662,0
4343.3,54.424,19.582,-2.0935e-07,-0.047123,5.0382e-10,4405.5,57.707,11.111,3.1042e-06,1.3803e-12,-4.8645e-06,0.047662,0
4343.3,54.424,19.582,-2.0935e-07,-0.047123,5.0382e-10,4405.5,57.707,11.111,3.1042e-06,1.3803e-12,-4.8645e-06,0.047662,0
4343.3,54.424,19.582,-2.0935e-07,-0.047123,5.0382e-10,4405.5,57.707,11.111,3.1042e-06,1.3803e-12,-4.8645e-06,0.047662,0
4343.3,54.424,19.582,-2.0935e-07,-0.047123,5.0382e-10,4405.5,57.707,11.111,3.1042e-06,1.3803e-12,-4.8645e-06,0.047662,0
4343.3,54.424,19.582,-2.0935e-07,-0.047123,5.0382e-10,4406.4,57.707,11.111,2.693e-06,1.2858e-12,-5.2045e-06,0.046994,0
4343.3,54.424,19.582,-2.0935e-07,-0.047123,5.0382e-10,4406.4,57.707,11.111,2.693e-06,1.2858e-12,-5.2045e-06,0.046994,0
4343.3,54.424,19.582,-2.0935e-07,-0.047123,5.0382e-10,4406.4,57.707,11.111,2.693e-06,1.2858e-12,-5.2045e-06,0.046994,0
4343.3,54.424,19.582,-2.0935e-07,-0.047123,5.0382e-10,4406.4,57.707,11.111,2.693e-06,1.2858e-12,-5.2045e-06,0.046994,0
4343.3,54.424,19.582,-2.0935e-07,-0.047123,5.0382e-10,4406.4,57.707,11.111,2.693e-06,1.2858e-12,-5.2045e-06,0.046994,0
4343.3,54.424,19.582,-2.0935e-07,-0.047123,5.0382e-10,4406.4,57.707,11.111,2.693e-06,1.2858e-12,-5.2045e-06,0.046994,0
4343.3,54.424,19.582,-2.0935e-07,-0.047123,5.0382e-10,4406.4,57.707,11.111,2.693e-06,1.2858e-12,-5.2045e-06,0.046994,0
4343.3,54.424,19.582,-2.0935e-07,-0.047123,5.0382e-10,4406.4,57.707,11.111,2.693e-06,1.2858e-12,-5.2045e-06,0.046994,0
4343.3,54.424,19.582,-2.0935e-07,-0.047123,5.0382e-10,4406.4,57.707,11.111,2.693e-06,1.2858e-12,-5.2045e-06,0.046994,0
4344.1,54.424,19.58,-2.0933e-07,-0.047122,5.0379e-10,4406.4,57.707,11.111,2.693e-06,1.2858e-12,-5.2045e-06,0.047582,0
4344.1,54.424,19.58,-2.0933e-07,-0.047122,5.0379e-10,4406.4,57.707,11.111,2.693e-06,1.2858e-12,-5.2045e-06,0.047582,0
4344.1,54.424,19.58,-2.0933e-07,-0.047122,5.0379e-10,4406.4,57.707,11.111,2.693e-06,1.2858e-12,-5.2045e-06,0.047582,0
4344.1,54.424,19.58,-2.0933e-07,-0.047122,5.0379e-10,4406.4,57.707,11.111,2.693e-06,1.2858e-12,-5.2045e-06,0.047582,0
4344.1,54.424,19.58,-2.0933e-07,-0.047122,5.0379e-10,4406.4,57.707,11.111,2.693e-06,1.2858e-12,-5.2045e-06,0.047582,0
4344.1,54.424,19.58,-2.0933e-07,-0.047122,5.0379e-10,4406.4,57.707,11.111,2.693e-06,1.2858e-12,-5.2045e-06,0.047582,0
4344.1,54.424,19.58,-2.0933e-07,-0.047122,5.0379e-10,4406.4,57.707,11.111,2.693e-06,1.2858e-12,-5.2045e-06,0.047582,0
4344.9,54.424,19.578,-2.0931e-07,-0.04712,5.0375e-10,4406.4,57.707,11.111,2.693e-06,1.2858e-12,-5.2045e-06,0.048185,0
4346,54.424,19.575,-2.0928e-07,-0.047115,5.0366e-10,4407.5,57.707,11.111,2.1777e-06,1.0156e-12,-5.0643e-06,0.048234,0
4347.6,54.424,19.572,-2.0924e-07,-0.047107,5.0364e-10,4408.4,57.707,11.111,1.7925e-06,7.7489e-13,-4.6811e-06,0.048769,0
4348.8,54.424,19.569,-2.0921e-07,-0.047098,5.0353e-10,4409.1,57.707,11.111,1.5282e-06,6.0908e-13,-4.3071e-06,0.049178,0
4348.8,54.424,19.569,-2.0921e-07,-0.047098,5.0353e-10,4409.5,57.707,11.111,1.3654e-06,5.1054e-13,-4.0354e-06,0.048819,0
4348.8,54.424,19.569,-2.0921e-07,-0.047098,5.0353e-10,4409.5,57.707,11.111,1.3654e-06,5.1054e-13,-4.0354e-06,0.048819,0
4348.8,54.424,19.569,-2.0921e-07,-0.047098,5.0353e-10,4409.5,57.707,11.111,1.3654e-06,5.1054e-13,-4.0354e-06,0.048819,0
4348.8,54.424,19.569,-2.0921e-07,-0.047098,5.0353e-10,4409.5,57.707,11.111,1.3654e-06,5.1054e-13,-4.0354e-06,0.048819,0
4348.8,54.424,19.569,-2.0921e-07,-0.047098,5.0353e-10,4409.5,57.707,11.111,1.3654e-06,5.1054e-13,-4.0354e-06,0.048819,0
4348.8,54.424,19.569,-2.0921e-07,-0.047098,5.0353e-10,4409.5,57.707,11.111,1.3654e-06,5.1054e-13,-4.0354e-06,0.048819,0
4348.8,54.424,19.569,-2.0921e-07,-0.047098,5.0353e-10,4409.5,57.707,11.111,1.3654e-06,5.1054e-13,-4.0354e-06,0.048819,0
4348.8,54.424,19.569,-2.0921e-07,-0.047098,5.0353e-10,4409.5,57.707,11.111,1.3654e-06,5.1054e-13,-4.0354e-06,0.048819,0
4348.8,54.424,19.569,-2.0921e-07,-0.047098,5.0353e-10,4409.5,57.707,11.111,1.3654e-06,5.1054e-13,-4.0354e-06,0.048819,0
4349.5,54.424,19.567,-2.0919e-07,-0.047091,5.0344e-10,4409.5,57.707,11.111,1.3654e-06,5.1054e-13,-4.0354e-06,0.049454,0
4349.5,54.424,19.567,-2.0919e-07,-0.047091,5.0344e-10,4409.5,57.707,11.111,1.3654e-06,5.1054e-13,-4.0354e-06,0.049454,0
4349.5,54.424,19.567,-2.0919e-07,-0.047091,5.0344e-10,4409.5,57.707,11.111,1.3654e-06,5.1054e-13,-4.0354e-06,0.049454,0
4349.5,54.424,19.567,-2.0919e-07,-0.047091,5.0344e-10,4409.5,57.707,11.111,1.3654e-06,5.1054e-13,-4.0354e-06,0.049454,0
4349.5,54.424,19.567,-2.0919e-07,-0.047091,5.0344e-10,4409.5,57.707,11.111,1.3654e-06,5.1054e-13,-4.0354e-06,0.049454,0
4349.5,54.424,19.567,-2.0919e-07,-0.047091,5.0344e-10,4409.5,57.707,11.111,1.3654e-06,5.1054e-13,-4.0354e-06,0.049454,0
4349.5,54.424,19.567,-2.0919e-07,-0.047091,5.0344e-10,4409.5,57.707,11.111,1.3654e-06,5.1054e-13,-4.0354e-06,0.049454,0
4349.5,54.424,19.567,-2.0919e-07,-0.047091,5.0344e-10,4409.5,57.707,11.111,1.3654e-06,5.1054e-13,-4.0354e-06,0.049454,0
4349.5,54.424,19.567,-2.0919e-07,-0.047091,5.0344e-10,4409.5,57.707,11.111,1.3654e-06,5.1054e-13,-4.0354e-06,0.049454,0
4349.5,54.424,19.567,-2.0919e-07,-0.047091,5.0344e-10,4409.5,57.707,11.111,1.3654e-06,5.1054e-13,-4.0354e-06,0.049454,0
4349.5,54.424,19.567,-2.0919e-07,-0.047091,5.0344e-10,4409.9,57.707,11.111,1.2138e-06,4.2285e-13,-3.7547e-06,0.049092,0
4349.5,54.424,19.567,-2.0919e-07,-0.047091,5.0344e-10,4409.9,57.707,11.111,1.2138e-06,4.2285e-13,-3.7547e-06,0.049092,0
4350.3,54.424,19.565,-2.0917e-07,-0.047083,5.0339e-10,4409.9,57.707,11.111,1.2138e-06,4.2285e-13,-3.7547e-06,0.049733,0
4351.5,54.424,19.562,-2.0914e-07,-0.04707,5.032e-10,4410.6,57.707,11.111,1.0076e-06,3.1199e-13,-3.3303e-06,0.050158,0
4353.5,54.424,19.558,-2.0909e-07,-0.047048,5.0294e-10,4411.3,57.707,11.111,-0.0024222,-1.0628e-05,-0.067643,0.051271,0
4353.5,54.424,19.558,-2.0909e-07,-0.047048,5.0294e-10,4411.3,57.707,11.111,-0.0024222,-1.0628e-05,-0.067643,0.051271,0
4353.5,54.424,19.558,-2.0909e-07,-0.047048,5.0294e-10,4411.3,57.707,11.111,-0.0024222,-1.0628e-05,-0.067643,0.051271,0
4353.5,54.424,19.558,-2.0909e-07,-0.047048,5.0294e-10,4412.2,57.706,11.111,-0.020599,-0.00049706,-0.31684,0.050498,0
4353.5,54.424,19.558,-2.0909e-07,-0.047048,5.0294e-10,4412.2,57.706,11.111,-0.020599,-0.00049706,-0.31684,0.050498,0
4353.5,54.424,19.558,-2.0909e-07,-0.047048,5.0294e-10,4412.2,57.706,11.111,-0.020599,-0.00049706,-0.31684,0.050498,0
4353.5,54.424,19.558,-2.0909e-07,-0.047048,5.0294e-10,4412.2,57.706,11.111,-0.020599,-0.00049706,-0.31684,0.050498,0
4353.5,54.424,19.558,-2.0909e-07,-0.047048,5.0294e-10,4412.2,57.706,11.111,-0.020599,-0.00049706,-0.31684,0.050498,0
4353.5,54.424,19.558,-2.0909e-07,-0.047048,5.0294e-10,4412.2,57.706,11.111,-0.020599,-0.00049706,-0.31684,0.050498,0
4353.5,54.424,19.558,-2.0909e-07,-0.047048,5.0294e-10,4412.2,57.706,11.111,-0.020599,-0.00049706,-0.31684,0.050498,0
4353.5,54.424,19.558,-2.0909e-07,-0.047048,5.0294e-10,4412.2,57.706,11.111,-0.020599,-0.00049706,-0.31684,0.050498,0
4353.5,54.424,19.558,-2.0909e-07,-0.047048,5.0294e-10,4412.2,57.706,11.111,-0.020599,-0.00049706,-0.31684,0.050498,0
4353.5,54.424,19.558,-2.0909e-07,-0.047048,5.0294e-10,4412.2,57.706,11.111,-0.020599,-0.00049706,-0.31684,0.050498,0
4354.2,54.424,19.556,-2.0907e-07,-0.047041,5.0294e-10,4412.2,57.706,11.111,-0.020599,-0.00049706,-0.31684,0.051177,0
4354.2,54.424,19.556,-2.0907e-07,-0.047041,5.0294e-10,4412.2,57.706,11.111,-0.020599,-0.00049706,-0.31684,0.051177,0
4354.2,54.424,19.556,-2.0907e-07,-0.047041,5.0294e-10,4412.2,57.706,11.111,-0.020599,-0.00049706,-0.31684,0.051177,0
4354.2,54.424,19.556,-2.0907e-07,-0.047041,5.0294e-10,4412.2,57.706,11.111,-0.020599,-0.00049706,-0.31684,0.051177,0
4354.2,54.424,19.556,-2.0907e-07,-0.047041,5.0294e-10,4412.2,57.706,11.111,-0.020599,-0.00049706,-0.31684,0.051177,0
4354.2,54.424,19.556,-2.0907e-07,-0.047041,5.0294e-10,4412.2,57.706,11.111,-0.020599,-0.00049706,-0.31684,0.051177,0
4354.2,54.424,19.556,-2.0907e-07,-0.047041,5.0294e-10,4412.2,57.706,11.111,-0.020599,-0.00049706,-0.31684,0.051177,0
4354.6,54.424,19.555,-2.0906e-07,-0.047037,5.029e-10,4412.2,57.706,11.111,-0.020599,-0.00049706,-0.31684,0.051523,0
4355,54.424,19.554,-2.0905e-07,-0.047032,5.0286e-10,4412.2,57.706,11.111,-0.020599,-0.00049706,-0.31684,0.051874,0
4355,54.424,19.554,-2.0905e-07,-0.047032,5.0286e-10,4413.3,57.701,11.111,-0.080861,-0.0050649,-0.7691,0.050889,0
4356.6,54.424,19.55,-2.0901e-07,-0.047012,5.0259e-10,4413.3,57.701,11.111,-0.080861,-0.0050649,-0.7691,0.052286,0
4358.2,54.424,19.546,-2.0897e-07,-0.046987,5.0232e-10,4413.9,57.695,11.11,-0.14051,-0.012502,-1.07,0.053121,0
4358.2,54.424,19.546,-2.0897e-07,-0.046987,5.0232e-10,4413.9,57.695,11.11,-0.14051,-0.012502,-1.07,0.053121,0
4358.2,54.424,19.546,-2.0897e-07,-0.046987,5.0232e-10,4413.9,57.695,11.11,-0.14051,-0.012502,-1.07,0.053121,0
4358.2,54.424,19.546,-2.0897e-07,-0.046987,5.0232e-10,4413.9,57.695,11.11,-0.14051,-0.012502,-1.07,0.053121,0
4358.2,54.424,19.546,-2.0897e-07,-0.046987,5.0232e-10,4413.9,57.695,11.11,-0.14051,-0.012502,-1.07,0.053121,0
4358.2,54.424,19.546,-2.0897e-07,-0.046987,5.0232e-10,4413.9,57.695,11.11,-0.14051,-0.012502,-1.07,0.053121,0
4358.2,54.424,19.546,-2.0897e-07,-0.046987,5.0232e-10,4413.9,57.695,11.11,-0.14051,-0.012502,-1.07,0.053121,0
4358.2,54.424,19.546,-2.0897e-07,-0.046987,5.0232e-10,4413.9,57.695,11.11,-0.14051,-0.012502,-1.07,0.053121,0
4358.2,54.424,19.546,-2.0897e-07,-0.046987,5.0232e-10,4414.8,57.679,11.108,-0.24812,-0.030849,-1.468,0.052289,0
4358.2,54.424,19.546,-2.0897e-07,-0.046987,5.0232e-10,4414.8,57.679,11.108,-0.24812,-0.030849,-1.468,0.052289,0
4358.2,54.424,19.546,-2.0897e-07,-0.046987,5.0232e-10,4414.8,57.679,11.108,-0.24812,-0.030849,-1.468,0.052289,0
4358.2,54.424,19.546,-2.0897e-07,-0.046987,5.0232e-10,4414.8,57.679,11.108,-0.24812,-0.030849,-1.468,0.052289,0
4358.2,54.424,19.546,-2.0897e-07,-0.046987,5.0232e-10,4414.8,57.679,11.108,-0.24812,-0.030849,-1.468,0.052289,0
4358.2,54.424,19.546,-2.0897e-07,-0.046987,5.0232e-10,4414.8,57.679,11.108,-0.24812,-0.030849,-1.468,0.052289,0
4358.9,54.424,19.544,-2.0895e-07,-0.046972,5.0223e-10,4414.8,57.679,11.108,-0.24812,-0.030849,-1.468,0.053017,0
4358.9,54.424,19.544,-2.0895e-07,-0.046972,5.0223e-10,4414.8,57.679,11.108,-0.24812,-0.030849,-1.468,0.053017,0
4358.9,54.424,19.544,-2.0895e-07,-0.046972,5.0223e-10,4414.8,57.679,11.108,-0.24812,-0.030849,-1.468,0.053017,0
4358.9,54.424,19.544,-2.0895e-07,-0.046972,5.0223e-10,4414.8,57.679,11.108,-0.24812,-0.030849,-1.468,0.053017,0
4358.9,54.424,19.544,-2.0895e-07,-0.046972,5.0223e-10,4414.8,57.679,11.108,-0.24812,-0.030849,-1.468,0.053017,0
4358.9,54.424,19.544,-2.0895e-07,-0.046972,5.0223e-10,4414.8,57.679,11.108,-0.24812,-0.030849,-1.468,0.053017,0
4358.9,54.424,19.544,-2.0895e-07,-0.046972,5.0223e-10,4414.8,57.679,11.108,-0.24812,-0.030849,-1.468,0.053017,0
4359.3,54.424,19.543,-2.0894e-07,-0.046964,5.0212e-10,4414.8,57.679,11.108,-0.24812,-0.030849,-1.468,0.053388,0
4359.3,54.424,19.543,-2.0894e-07,-0.046964,5.0212e-10,4414.8,57.679,11.108,-0.24812,-0.030849,-1.468,0.053388,0
4359.3,54.424,19.543,-2.0894e-07,-0.046964,5.0212e-10,4415.9,57.645,11.103,-0.42489,-0.07016,-1.9203,0.052335,0
4359.3,54.424,19.543,-2.0894e-07,-0.046964,5.0212e-10,4415.9,57.645,11.103,-0.42489,-0.07016,-1.9203,0.052335,0
4359.3,54.424,19.543,-2.0894e-07,-0.046964,5.0212e-10,4416.2,57.635,11.101,-0.46533,-0.080287,-2.0016,0.052128,0
4361.7,54.424,19.538,-2.0888e-07,-0.046924,5.0163e-10,4416.2,57.635,11.101,-0.46533,-0.080287,-2.0016,0.054359,0
4361.7,54.424,19.538,-2.0888e-07,-0.046924,5.0163e-10,4416.2,57.635,11.101,-0.46533,-0.080287,-2.0016,0.054359,0
4362.8,54.424,19.535,-2.0885e-07,-0.046901,5.014e-10,4416.8,57.603,11.095,-0.5956,-0.11491,-2.2238,0.054852,0
4363.6,54.424,19.533,-2.0883e-07,-0.046884,5.0127e-10,4417.5,57.562,11.087,-0.73762,-0.15513,-2.4108,0.05495,0
4364,54.424,19.532,-2.0882e-07,-0.046874,5.0112e-10,4417.5,57.562,11.087,-0.73762,-0.15513,-2.4108,0.05535,0
4364,54.424,19.532,-2.0882e-07,-0.046874,5.0112e-10,4417.5,57.562,11.087,-0.73762,-0.15513,-2.4108,0.05535,0
4364,54.424,19.532,-2.0882e-07,-0.046874,5.0112e-10,4417.5,57.562,11.087,-0.73762,-0.15513,-2.4108,0.05535,0
4364,54.424,19.532,-2.0882e-07,-0.046874,5.0112e-10,4418.2,57.513,11.076,-0.88922,-0.19965,-2.5609,0.054648,0
4364,54.424,19.532,-2.0882e-07,-0.046874,5.0112e-10,4418.2,57.513,11.076,-0.88922,-0.19965,-2.5609,0.054648,0
4364,54.424,19.532,-2.0882e-07,-0.046874,5.0112e-10,4418.2,57.513,11.076,-0.88922,-0.19965,-2.5609,0.054648,0
4364,54.424,19.532,-2.0882e-07,-0.046874,5.0112e-10,4418.2,57.513,11.076,-0.88922,-0.19965,-2.5609,0.054648,0
4364,54.424,19.532,-2.0882e-07,-0.046874,5.0112e-10,4418.2,57.513,11.076,-0.88922,-0.19965,-2.5609,0.054648,0
4364,54.424,19.532,-2.0882e-07,-0.046874,5.0112e-10,4418.2,57.513,11.076,-0.88922,-0.19965,-2.5609,0.054648,0
4364,54.424,19.532,-2.0882e-07,-0.046874,5.0112e-10,4418.2,57.513,11.076,-0.88922,-0.19965,-2.5609,0.054648,0
4364,54.424,19.532,-2.0882e-07,-0.046874,5.0112e-10,4418.2,57.513,11.076,-0.88922,-0.19965,-2.5609,0.054648,0
4364.8,54.424,19.53,-2.088e-07,-0.046855,5.0092e-10,4418.2,57.513,11.076,-0.88922,-0.19965,-2.5609,0.055443,0
4364.8,54.424,19.53,-2.088e-07,-0.046855,5.0092e-10,4418.2,57.513,11.076,-0.88922,-0.19965,-2.5609,0.055443,0
4364.8,54.424,19.53,-2.088e-07,-0.046855,5.0092e-10,4418.2,57.513,11.076,-0.88922,-0.19965,-2.5609,0.055443,0
4364.8,54.424,19.53,-2.088e-07,-0.046855,5.0092e-10,4418.2,57.513,11.076,-0.88922,-0.19965,-2.5609,0.055443,0
4364.8,54.424,19.53,-2.088e-07,-0.046855,5.0092e-10,4418.2,57.513,11.076,-0.88922,-0.19965,-2.5609,0.055443,0
4364.8,54.424,19.53,-2.088e-07,-0.046855,5.0092e-10,4418.2,57.513,11.076,-0.88922,-0.19965,-2.5609,0.055443,0
4364.8,54.424,19.53,-2.088e-07,-0.046855,5.0092e-10,4418.2,57.513,11.076,-0.88922,-0.19965,-2.5609,0.055443,0
4364.8,54.424,19.53,-2.088e-07,-0.046855,5.0092e-10,4418.2,57.513,11.076,-0.88922,-0.19965,-2.5609,0.055443,0
4364.8,54.424,19.53,-2.088e-07,-0.046855,5.0092e-10,4418.2,57.513,11.076,-0.88922,-0.19965,-2.5609,0.055443,0
4364.8,54.424,19.53,-2.088e-07,-0.046855,5.0092e-10,4418.2,57.513,11.076,-0.88922,-0.19965,-2.5609,0.055443,0
4364.8,54.424,19.53,-2.088e-07,-0.046855,5.0092e-10,4418.2,57.513,11.076,-0.88922,-0.19965,-2.5609,0.055443,0
4364.8,54.424,19.53,-2.088e-07,-0.046855,5.0092e-10,4418.6,57.475,11.067,-0.99449,-0.23092,-2.6403,0.054968,0
4364.8,54.424,19.53,-2.088e-07,-0.046855,5.0092e-10,4418.6,57.475,11.067,-0.99449,-0.23092,-2.6403,0.054968,0
4364.8,54.424,19.53,-2.088e-07,-0.046855,5.0092e-10,4418.6,57.475,11.067,-0.99449,-0.23092,-2.6403,0.054968,0
4364.8,54.424,19.53,-2.088e-07,-0.046855,5.0092e-10,4418.6,57.475,11.067,-0.99449,-0.23092,-2.6403,0.054968,0
4364.8,54.424,19.53,-2.088e-07,-0.046855,5.0092e-10,4418.6,57.475,11.067,-0.99449,-0.23092,-2.6403,0.054968,0
4365.6,54.424,19.528,-2.0878e-07,-0.046839,5.0076e-10,4418.6,57.475,11.067,-0.99449,-0.23092,-2.6403,0.055774,0
4365.6,54.424,19.528,-2.0878e-07,-0.046839,5.0076e-10,4419.5,57.385,11.045,-1.2122,-0.29497,-2.7507,0.054812,0
4367.1,54.424,19.525,-2.0874e-07,-0.046803,5.0037e-10,4419.5,57.385,11.045,-1.2122,-0.29497,-2.7507,0.05644,0
4369.1,54.424,19.52,-2.0869e-07,-0.046751,4.9986e-10,4420.4,57.278,11.018,-1.4354,-0.35755,-2.8,0.057545,0
4369.1,54.424,19.52,-2.0869e-07,-0.046751,4.9986e-10,4420.4,57.278,11.018,-1.4354,-0.35755,-2.8,0.057545,0
4369.1,54.424,19.52,-2.0869e-07,-0.046751,4.9986e-10,4421.3,57.153,10.987,-1.6595,-0.41474,-2.7939,0.056501,0
4370.3,54.424,19.517,-2.0866e-07,-0.046721,4.9949e-10,4421.3,57.153,10.987,-1.6595,-0.41474,-2.7939,0.057793,0
4370.3,54.424,19.517,-2.0866e-07,-0.046721,4.9949e-10,4421.3,57.153,10.987,-1.6595,-0.41474,-2.7939,0.057793,0
4370.3,54.424,19.517,-2.0866e-07,-0.046721,4.9949e-10,4421.3,57.153,10.987,-1.6595,-0.41474,-2.7939,0.057793,0
4370.3,54.424,19.517,-2.0866e-07,-0.046721,4.9949e-10,4421.3,57.153,10.987,-1.6595,-0.41474,-2.7939,0.057793,0
4370.3,54.424,19.517,-2.0866e-07,-0.046721,4.9949e-10,4421.3,57.153,10.987,-1.6595,-0.41474,-2.7939,0.057793,0
4370.3,54.424,19.517,-2.0866e-07,-0.046721,4.9949e-10,4421.3,57.153,10.987,-1.6595,-0.41474,-2.7939,0.057793,0
4370.3,54.424,19.517,-2.0866e-07,-0.046721,4.9949e-10,4421.3,57.153,10.987,-1.6595,-0.41474,-2.7939,0.057793,0
4370.7,54.424,19.516,-2.0865e-07,-0.04671,4.9937e-10,4421.3,57.153,10.987,-1.6595,-0.41474,-2.7939,0.058237,0
4370.7,54.424,19.516,-2.0865e-07,-0.04671,4.9937e-10,4421.3,57.153,10.987,-1.6595,-0.41474,-2.7939,0.058237,0
4370.7,54.424,19.516,-2.0865e-07,-0.04671,4.9937e-10,4421.3,57.153,10.987,-1.6595,-0.41474,-2.7939,0.058237,0
4370.7,54.424,19.516,-2.0865e-07,-0.04671,4.9937e-10,4421.3,57.153,10.987,-1.6595,-0.41474,-2.7939,0.058237,0
4370.7,54.424,19.516,-2.0865e-07,-0.04671,4.9937e-10,4421.3,57.153,10.987,-1.6595,-0.41474,-2.7939,0.058237,0
4370.7,54.424,19.516,-2.0865e-07,-0.04671,4.9937e-10,4421.3,57.153,10.987,-1.6595,-0.41474,-2.7939,0.058237,0
4370.7,54.424,19.516,-2.0865e-07,-0.04671,4.9937e-10,4421.3,57.153,10.987,-1.6595,-0.41474,-2.7939,0.058237,0
4370.7,54.424,19.516,-2.0865e-07,-0.04671,4.9937e-10,4421.9,57.048,10.96,-1.8256,-0.45208,-2.7569,0.057426,0
4370.7,54.424,19.516,-2.0865e-07,-0.04671,4.9937e-10,4421.9,57.048,10.96,-1.8256,-0.45208,-2.7569,0.057426,0
4370.7,54.424,19.516,-2.0865e-07,-0.04671,4.9937e-10,4421.9,57.048,10.96,-1.8256,-0.45208,-2.7569,0.057426,0
4370.7,54.424,19.516,-2.0865e-07,-0.04671,4.9937e-10,4421.9,57.048,10.96,-1.8256,-0.45208,-2.7569,0.057426,0
4370.7,54.424,19.516,-2.0865e-07,-0.04671,4.9937e-10,4421.9,57.048,10.96,-1.8256,-0.45208,-2.7569,0.057426,0
4370.7,54.424,19.516,-2.0865e-07,-0.04671,4.9937e-10,4421.9,57.048,10.96,-1.8256,-0.45208,-2.7569,0.057426,0
4370.7,54.424,19.516,-2.0865e-07,-0.04671,4.9937e-10,4421.9,57.048,10.96,-1.8256,-0.45208,-2.7569,0.057426,0
4370.7,54.424,19.516,-2.0865e-07,-0.04671,4.9937e-10,4422.1,57.011,10.951,-1.8803,-0.46324,-2.739,0.057159,0
4372.6,54.424,19.512,-2.086e-07,-0.046652,4.9876e-10,4422.1,57.011,10.951,-1.8803,-0.46324,-2.739,0.059402,0
4373,54.424,19.511,-2.0859e-07,-0.046642,4.9864e-10,4422.1,57.011,10.951,-1.8803,-0.46324,-2.739,0.059872,0
4374.6,54.424,19.507,-2.0855e-07,-0.046594,4.9809e-10,4423.4,56.764,10.892,-2.198,-0.51434,-2.5802,0.060023,0
4374.6,54.424,19.507,-2.0855e-07,-0.046594,4.9809e-10,4424.3,56.579,10.85,-2.3965,-0.53168,-2.4329,0.058869,0
4374.6,54.424,19.507,-2.0855e-07,-0.046594,4.9809e-10,4424.3,56.579,10.85,-2.3965,-0.53168,-2.4329,0.058869,0
4374.6,54.424,19.507,-2.0855e-07,-0.046594,4.9809e-10,4424.3,56.579,10.85,-2.3965,-0.53168,-2.4329,0.058869,0
4374.6,54.424,19.507,-2.0855e-07,-0.046594,4.9809e-10,4424.3,56.579,10.85,-2.3965,-0.53168,-2.4329,0.058869,0
4374.6,54.424,19.507,-2.0855e-07,-0.046594,4.9809e-10,4424.3,56.579,10.85,-2.3965,-0.53168,-2.4329,0.058869,0
4374.6,54.424,19.507,-2.0855e-07,-0.046594,4.9809e-10,4424.3,56.579,10.85,-2.3965,-0.53168,-2.4329,0.058869,0
4375.7,54.424,19.504,-2.0852e-07,-0.046555,4.9769e-10,4424.3,56.579,10.85,-2.3965,-0.53168,-2.4329,0.060283,0
4375.7,54.424,19.504,-2.0852e-07,-0.046555,4.9769e-10,4424.3,56.579,10.85,-2.3965,-0.53168,-2.4329,0.060283,0
4375.7,54.424,19.504,-2.0852e-07,-0.046555,4.9769e-10,4424.3,56.579,10.85,-2.3965,-0.53168,-2.4329,0.060283,0
4375.7,54.424,19.504,-2.0852e-07,-0.046555,4.9769e-10,4424.3,56.579,10.85,-2.3965,-0.53168,-2.4329,0.060283,0
4375.7,54.424,19.504,-2.0852e-07,-0.046555,4.9769e-10,4424.3,56.579,10.85,-2.3965,-0.53168,-2.4329,0.060283,0
4375.7,54.424,19.504,-2.0852e-07,-0.046555,4.9769e-10,4424.3,56.579,10.85,-2.3965,-0.53168,-2.4329,0.060283,0
4375.7,54.424,19.504,-2.0852e-07,-0.046555,4.9769e-10,4424.3,56.579,10.85,-2.3965,-0.53168,-2.4329,0.060283,0
4375.7,54.424,19.504,-2.0852e-07,-0.046555,4.9769e-10,4424.3,56.579,10.85,-2.3965,-0.53168,-2.4329,0.060283,0
4375.7,54.424,19.504,-2.0852e-07,-0.046555,4.9769e-10,4424.3,56.579,10.85,-2.3965,-0.53168,-2.4329,0.060283,0
4375.7,54.424,19.504,-2.0852e-07,-0.046555,4.9769e-10,4424.3,56.579,10.85,-2.3965,-0.53168,-2.4329,0.060283,0
4375.7,54.424,19.504,-2.0852e-07,-0.046555,4.9769e-10,4424.7,56.481,10.828,-2.4909,-0.53503,-2.3491,0.059696,0
4375.7,54.424,19.504,-2.0852e-07,-0.046555,4.9769e-10,4424.7,56.481,10.828,-2.4909,-0.53503,-2.3491,0.059696,0
4375.7,54.424,19.504,-2.0852e-07,-0.046555,4.9769e-10,4424.7,56.481,10.828,-2.4909,-0.53503,-2.3491,0.059696,0
4375.7,54.424,19.504,-2.0852e-07,-0.046555,4.9769e-10,4424.7,56.481,10.828,-2.4909,-0.53503,-2.3491,0.059696,0
4375.7,54.424,19.504,-2.0852e-07,-0.046555,4.9769e-10,4424.7,56.481,10.828,-2.4909,-0.53503,-2.3491,0.059696,0
4375.7,54.424,19.504,-2.0852e-07,-0.046555,4.9769e-10,4424.7,56.481,10.828,-2.4909,-0.53503,-2.3491,0.059696,0
4375.7,54.424,19.504,-2.0852e-07,-0.046555,4.9769e-10,4424.7,56.481,10.828,-2.4909,-0.53503,-2.3491,0.059696,0
4375.7,54.424,19.504,-2.0852e-07,-0.046555,4.9769e-10,4424.7,56.481,10.828,-2.4909,-0.53503,-2.3491,0.059696,0
4377.3,54.424,19.214,-2.0542e-07,-5.7062,6.1004e-08,4425,56.431,10.818,-2.5368,-0.53535,-2.3049,0.061336,0
4379.2,54.424,18.717,-2.001e-07,-4.2763,4.5717e-08,4425.8,56.22,10.775,-2.7109,-0.52766,-2.1148,0.062575,0
4379.5,54.424,18.634,-1.9921e-07,-4.0662,4.3471e-08,4425.8,56.22,10.775,-2.7109,-0.52766,-2.1148,0.063079,0
4379.5,54.424,18.634,-1.9921e-07,-4.0662,4.3471e-08,4425.8,56.22,10.775,-2.7109,-0.52766,-2.1148,0.063079,0
4379.5,54.424,18.634,-1.9921e-07,-4.0662,4.3471e-08,4425.8,56.22,10.775,-2.7109,-0.52766,-2.1148,0.063079,0
4379.5,54.424,18.634,-1.9921e-07,-4.0662,4.3471e-08,4427.3,55.82,10.705,-2.9758,-0.4807,-1.7403,0.060911,0
4379.5,54.424,18.634,-1.9921e-07,-4.0662,4.3471e-08,4427.3,55.82,10.705,-2.9758,-0.4807,-1.7403,0.060911,0
4379.5,54.424,18.634,-1.9921e-07,-4.0662,4.3471e-08,4427.3,55.82,10.705,-2.9758,-0.4807,-1.7403,0.060911,0
4379.5,54.424,18.634,-1.9921e-07,-4.0662,4.3471e-08,4427.3,55.82,10.705,-2.9758,-0.4807,-1.7403,0.060911,0
4379.5,54.424,18.634,-1.9921e-07,-4.0662,4.3471e-08,4427.3,55.82,10.705,-2.9758,-0.4807,-1.7403,0.060911,0
4379.5,54.424,18.634,-1.9921e-07,-4.0662,4.3471e-08,4427.3,55.82,10.705,-2.9758,-0.4807,-1.7403,0.060911,0
4379.5,54.424,18.634,-1.9921e-07,-4.0662,4.3471e-08,4427.3,55.82,10.705,-2.9758,-0.4807,-1.7403,0.060911,0
4379.5,54.424,18.634,-1.9921e-07,-4.0662,4.3471e-08,4427.3,55.82,10.705,-2.9758,-0.4807,-1.7403,0.060911,0
4381,54.424,18.337,-1.9604e-07,-3.3937,3.6282e-08,4427.3,55.82,10.705,-2.9758,-0.4807,-1.7403,0.062853,0
4381,54.424,18.337,-1.9604e-07,-3.3937,3.6282e-08,4427.3,55.82,10.705,-2.9758,-0.4807,-1.7403,0.062853,0
4381,54.424,18.337,-1.9604e-07,-3.3937,3.6282e-08,4427.3,55.82,10.705,-2.9758,-0.4807,-1.7403,0.062853,0
4381,54.424,18.337,-1.9604e-07,-3.3937,3.6282e-08,4427.3,55.82,10.705,-2.9758,-0.4807,-1.7403,0.062853,0
4381,54.424,18.337,-1.9604e-07,-3.3937,3.6282e-08,4427.3,55.82,10.705,-2.9758,-0.4807,-1.7403,0.062853,0
4381,54.424,18.337,-1.9604e-07,-3.3937,3.6282e-08,4427.3,55.82,10.705,-2.9758,-0.4807,-1.7403,0.062853,0
4381,54.424,18.337,-1.9604e-07,-3.3937,3.6282e-08,4427.3,55.82,10.705,-2.9758,-0.4807,-1.7403,0.062853,0
4381,54.424,18.337,-1.9604e-07,-3.3937,3.6282e-08,4427.3,55.82,10.705,-2.9758,-0.4807,-1.7403,0.062853,0
4381,54.424,18.337,-1.9604e-07,-3.3937,3.6282e-08,4427.3,55.82,10.705,-2.9758,-0.4807,-1.7403,0.062853,0
4381,54.424,18.337,-1.9604e-07,-3.3937,3.6282e-08,4427.3,55.82,10.705,-2.9758,-0.4807,-1.7403,0.062853,0
4381,54.424,18.337,-1.9604e-07,-3.3937,3.6282e-08,4427.3,55.82,10.705,-2.9758,-0.4807,-1.7403,0.062853,0
4381,54.424,18.337,-1.9604e-07,-3.3937,3.6282e-08,4427.8,55.699,10.687,-3.0414,-0.45991,-1.6254,0.062228,0
4381,54.424,18.337,-1.9604e-07,-3.3937,3.6282e-08,4427.8,55.699,10.687,-3.0414,-0.45991,-1.6254,0.062228,0
4381,54.424,18.337,-1.9604e-07,-3.3937,3.6282e-08,4427.8,55.699,10.687,-3.0414,-0.45991,-1.6254,0.062228,0
4381,54.424,18.337,-1.9604e-07,-3.3937,3.6282e-08,4427.8,55.699,10.687,-3.0414,-0.45991,-1.6254,0.062228,0
4381,54.424,18.337,-1.9604e-07,-3.3937,3.6282e-08,4427.8,55.699,10.687,-3.0414,-0.45991,-1.6254,0.062228,0
4381.8,54.424,18.207,-1.9464e-07,-3.1302,3.3464e-08,4427.8,55.699,10.687,-3.0414,-0.45991,-1.6254,0.063216,0
4383.2,54.424,17.974,-1.9216e-07,-2.7053,2.8922e-08,4428.6,55.45,10.653,-3.1584,-0.40936,-1.3873,0.063946,0
4385,54.424,17.724,-1.8948e-07,-2.3114,2.4711e-08,4429.5,55.193,10.623,-3.2559,-0.3479,-1.1395,0.065204,0
4385.7,54.424,17.634,-1.8852e-07,-2.185,2.3359e-08,4429.5,55.193,10.623,-3.2559,-0.3479,-1.1395,0.066257,0
4385.7,54.424,17.634,-1.8852e-07,-2.185,2.3359e-08,4429.5,55.193,10.623,-3.2559,-0.3479,-1.1395,0.066257,0
4385.7,54.424,17.634,-1.8852e-07,-2.185,2.3359e-08,4429.5,55.193,10.623,-3.2559,-0.3479,-1.1395,0.066257,0
4385.7,54.424,17.634,-1.8852e-07,-2.185,2.3359e-08,4430.5,54.862,10.594,-3.349,-0.25796,-0.81822,0.064606,0
4385.7,54.424,17.634,-1.8852e-07,-2.185,2.3359e-08,4430.5,54.862,10.594,-3.349,-0.25796,-0.81822,0.064606,0
4385.7,54.424,17.634,-1.8852e-07,-2.185,2.3359e-08,4430.5,54.862,10.594,-3.349,-0.25796,-0.81822,0.064606,0
4385.7,54.424,17.634,-1.8852e-07,-2.185,2.3359e-08,4430.5,54.862,10.594,-3.349,-0.25796,-0.81822,0.064606,0
4385.7,54.424,17.634,-1.8852e-07,-2.185,2.3359e-08,4430.5,54.862,10.594,-3.349,-0.25796,-0.81822,0.064606,0
4385.7,54.424,17.634,-1.8852e-07,-2.185,2.3359e-08,4430.5,54.862,10.594,-3.349,-0.25796,-0.81822,0.064606,0
4385.7,54.424,17.634,-1.8852e-07,-2.185,2.3359e-08,4430.5,54.862,10.594,-3.349,-0.25796,-0.81822,0.064606,0
4385.7,54.424,17.634,-1.8852e-07,-2.185,2.3359e-08,4430.5,54.862,10.594,-3.349,-0.25796,-0.81822,0.064606,0
4386.4,54.424,17.549,-1.8761e-07,-2.0725,2.2157e-08,4430.5,54.862,10.594,-3.349,-0.25796,-0.81822,0.065636,0
4386.4,54.424,17.549,-1.8761e-07,-2.0725,2.2157e-08,4430.5,54.862,10.594,-3.349,-0.25796,-0.81822,0.065636,0
4386.4,54.424,17.549,-1.8761e-07,-2.0725,2.2157e-08,4430.5,54.862,10.594,-3.349,-0.25796,-0.81822,0.065636,0
4386.4,54.424,17.549,-1.8761e-07,-2.0725,2.2157e-08,4430.5,54.862,10.594,-3.349,-0.25796,-0.81822,0.065636,0
4386.4,54.424,17.549,-1.8761e-07,-2.0725,2.2157e-08,4430.5,54.862,10.594,-3.349,-0.25796,-0.81822,0.065636,0
4386.4,54.424,17.549,-1.8761e-07,-2.0725,2.2157e-08,4430.5,54.862,10.594,-3.349,-0.25796,-0.81822,0.065636,0
4386.4,54.424,17.549,-1.8761e-07,-2.0725,2.2157e-08,4430.5,54.862,10.594,-3.349,-0.25796,-0.81822,0.065636,0
4386.4,54.424,17.549,-1.8761e-07,-2.0725,2.2157e-08,4430.5,54.862,10.594,-3.349,-0.25796,-0.81822,0.065636,0
4386.4,54.424,17.549,-1.8761e-07,-2.0725,2.2157e-08,4430.5,54.862,10.594,-3.349,-0.25796,-0.81822,0.065636,0
4386.4,54.424,17.549,-1.8761e-07,-2.0725,2.2157e-08,4430.5,54.862,10.594,-3.349,-0.25796,-0.81822,0.065636,0
4386.4,54.424,17.549,-1.8761e-07,-2.0725,2.2157e-08,4430.9,54.727,10.585,-3.3772,-0.21854,-0.68653,0.064985,0
4386.4,54.424,17.549,-1.8761e-07,-2.0725,2.2157e-08,4430.9,54.727,10.585,-3.3772,-0.21854,-0.68653,0.064985,0
4386.4,54.424,17.549,-1.8761e-07,-2.0725,2.2157e-08,4430.9,54.727,10.585,-3.3772,-0.21854,-0.68653,0.064985,0
4386.4,54.424,17.549,-1.8761e-07,-2.0725,2.2157e-08,4430.9,54.727,10.585,-3.3772,-0.21854,-0.68653,0.064985,0
4386.4,54.424,17.549,-1.8761e-07,-2.0725,2.2157e-08,4430.9,54.727,10.585,-3.3772,-0.21854,-0.68653,0.064985,0
4386.4,54.424,17.549,-1.8761e-07,-2.0725,2.2157e-08,4430.9,54.727,10.585,-3.3772,-0.21854,-0.68653,0.064985,0
4387.1,54.424,17.468,-1.8675e-07,-1.9722,2.1085e-08,4430.9,54.727,10.585,-3.3772,-0.21854,-0.68653,0.066023,0
4388.5,54.424,17.317,-1.8513e-07,-1.8289,1.9553e-08,4431.8,54.455,10.573,-3.4174,-0.135,-0.41822,0.066814,0
4388.5,54.424,17.317,-1.8513e-07,-1.8289,1.9553e-08,4431.8,54.455,10.573,-3.4174,-0.135,-0.41822,0.066814,0
4389.9,54.424,17.175,-1.8361e-07,-1.7214,1.8404e-08,4432.6,54.181,10.567,-3.4358,-0.046763,-0.14388,0.067627,0
4389.9,54.424,17.175,-1.8361e-07,-1.7214,1.8404e-08,4433.3,53.975,10.567,-3.435,0.021287,0.06547,0.066636,0
4390.9,54.424,17.074,-1.8253e-07,-1.6525,1.7666e-08,4433.3,53.975,10.567,-3.435,0.021287,0.06547,0.068251,0
4390.9,54.424,17.074,-1.8253e-07,-1.6525,1.7666e-08,4433.7,53.838,10.569,-3.4275,0.067042,0.2066,0.067582,0
4390.9,54.424,17.074,-1.8253e-07,-1.6525,1.7666e-08,4433.7,53.838,10.569,-3.4275,0.067042,0.2066,0.067582,0
4390.9,54.424,17.074,-1.8253e-07,-1.6525,1.7666e-08,4433.9,53.769,10.571,-3.4216,0.089931,0.2776,0.067253,0
4390.9,54.424,17.074,-1.8253e-07,-1.6525,1.7666e-08,4433.9,53.769,10.571,-3.4216,0.089931,0.2776,0.067253,0
4390.9,54.424,17.074,-1.8253e-07,-1.6525,1.7666e-08,4433.9,53.769,10.571,-3.4216,0.089931,0.2776,0.067253,0
4390.9,54.424,17.074,-1.8253e-07,-1.6525,1.7666e-08,4433.9,53.769,10.571,-3.4216,0.089931,0.2776,0.067253,0
4390.9,54.424,17.074,-1.8253e-07,-1.6525,1.7666e-08,4433.9,53.769,10.571,-3.4216,0.089931,0.2776,0.067253,0
4390.9,54.424,17.074,-1.8253e-07,-1.6525,1.7666e-08,4433.9,53.769,10.571,-3.4216,0.089931,0.2776,0.067253,0
4390.9,54.424,17.074,-1.8253e-07,-1.6525,1.7666e-08,4433.9,53.769,10.571,-3.4216,0.089931,0.2776,0.067253,0
4390.9,54.424,17.074,-1.8253e-07,-1.6525,1.7666e-08,4433.9,53.769,10.571,-3.4216,0.089931,0.2776,0.067253,0
4390.9,54.424,17.074,-1.8253e-07,-1.6525,1.7666e-08,4433.9,53.769,10.571,-3.4216,0.089931,0.2776,0.067253,0
4390.9,54.424,17.074,-1.8253e-07,-1.6525,1.7666e-08,4434.1,53.701,10.574,-3.4142,0.11278,0.34887,0.06693,0
4390.9,54.424,17.074,-1.8253e-07,-1.6525,1.7666e-08,4434.1,53.701,10.574,-3.4142,0.11278,0.34887,0.06693,0
4390.9,54.424,17.074,-1.8253e-07,-1.6525,1.7666e-08,4434.1,53.701,10.574,-3.4142,0.11278,0.34887,0.06693,0
4390.9,54.424,17.074,-1.8253e-07,-1.6525,1.7666e-08,4434.1,53.701,10.574,-3.4142,0.11278,0.34887,0.06693,0
4390.9,54.424,17.074,-1.8253e-07,-1.6525,1.7666e-08,4434.1,53.701,10.574,-3.4142,0.11278,0.34887,0.06693,0
4390.9,54.424,17.074,-1.8253e-07,-1.6525,1.7666e-08,4434.1,53.701,10.574,-3.4142,0.11278,0.34887,0.06693,0
4390.9,54.424,17.074,-1.8253e-07,-1.6525,1.7666e-08,4434.1,53.701,10.574,-3.4142,0.11278,0.34887,0.06693,0
4390.9,54.424,17.074,-1.8253e-07,-1.6525,1.7666e-08,4434.1,53.701,10.574,-3.4142,0.11278,0.34887,0.06693,0
4390.9,54.424,17.074,-1.8253e-07,-1.6525,1.7666e-08,4434.1,53.701,10.574,-3.4142,0.11278,0.34887,0.06693,0
4390.9,54.424,17.074,-1.8253e-07,-1.6525,1.7666e-08,4434.3,53.633,10.576,-3.4055,0.13555,0.42041,0.066611,0
4390.9,54.424,17.074,-1.8253e-07,-1.6525,1.7666e-08,4434.3,53.633,10.576,-3.4055,0.13555,0.42041,0.066611,0
4390.9,54.424,17.074,-1.8253e-07,-1.6525,1.7666e-08,4434.3,53.633,10.576,-3.4055,0.13555,0.42041,0.066611,0
4390.9,54.424,17.074,-1.8253e-07,-1.6525,1.7666e-08,4434.3,53.633,10.576,-3.4055,0.13555,0.42041,0.066611,0
4390.9,54.424,17.074,-1.8253e-07,-1.6525,1.7666e-08,4434.3,53.633,10.576,-3.4055,0.13555,0.42041,0.066611,0
4390.9,54.424,17.074,-1.8253e-07,-1.6525,1.7666e-08,4434.3,53.633,10.576,-3.4055,0.13555,0.42041,0.066611,0
4392.6,54.424,16.913,-1.8082e-07,-1.5554,1.6628e-08,4434.3,53.633,10.576,-3.4055,0.13555,0.42041,0.069322,0
4392.6,54.424,16.913,-1.8082e-07,-1.5554,1.6628e-08,4435.4,53.295,10.597,-3.34,0.24691,0.78139,0.06766,0
4392.6,54.424,16.913,-1.8082e-07,-1.5554,1.6628e-08,4435.4,53.295,10.597,-3.34,0.24691,0.78139,0.06766,0
4395.3,54.424,16.675,-1.7826e-07,-1.4346,1.5337e-08,4435.6,53.229,10.603,-3.3226,0.26841,0.85412,0.071823,0
4395.6,54.424,16.646,-1.7796e-07,-1.4218,1.52e-08,4435.6,53.229,10.603,-3.3226,0.26841,0.85412,0.072421,0
4396.6,54.424,16.562,-1.7706e-07,-1.3857,1.4815e-08,4436.9,52.838,10.644,-3.1872,0.38864,1.2922,0.072033,0
4396.9,54.424,16.534,-1.7676e-07,-1.3744,1.4694e-08,4436.9,52.838,10.644,-3.1872,0.38864,1.2922,0.072628,0
4396.9,54.424,16.534,-1.7676e-07,-1.3744,1.4694e-08,4436.9,52.838,10.644,-3.1872,0.38864,1.2922,0.072628,0
4396.9,54.424,16.534,-1.7676e-07,-1.3744,1.4694e-08,4436.9,52.838,10.644,-3.1872,0.38864,1.2922,0.072628,0
4396.9,54.424,16.534,-1.7676e-07,-1.3744,1.4694e-08,4436.9,52.838,10.644,-3.1872,0.38864,1.2922,0.072628,0
4396.9,54.424,16.534,-1.7676e-07,-1.3744,1.4694e-08,4436.9,52.838,10.644,-3.1872,0.38864,1.2922,0.072628,0
4396.9,54.424,16.534,-1.7676e-07,-1.3744,1.4694e-08,4436.9,52.838,10.644,-3.1872,0.38864,1.2922,0.072628,0
4396.9,54.424,16.534,-1.7676e-07,-1.3744,1.4694e-08,4436.9,52.838,10.644,-3.1872,0.38864,1.2922,0.072628,0
4396.9,54.424,16.534,-1.7676e-07,-1.3744,1.4694e-08,4436.9,52.838,10.644,-3.1872,0.38864,1.2922,0.072628,0
4396.9,54.424,16.534,-1.7676e-07,-1.3744,1.4694e-08,4436.9,52.838,10.644,-3.1872,0.38864,1.2922,0.072628,0
4396.9,54.424,16.534,-1.7676e-07,-1.3744,1.4694e-08,4436.9,52.838,10.644,-3.1872,0.38864,1.2922,0.072628,0
