-0.3099,1.7584,-0.3027,0.3269,-1.539,2.3801,-8.0221,-1.8162,-2.7409,0.9524,-0.0763,0.5092,-6.706,0.4205,-3.1911,-0.1459
-0.3099,1.7584,-0.3027,0.3269,-1.539,2.3801,-8.0221,-1.8162,-2.7409,0.9524,-0.0763,0.5092,-6.706,0.4205,-3.1911,-0.1459
-0.773,1.5509,-0.2901,0.3225,-1.9001,2.2629,-7.6979,-1.6093,-2.8746,0.8719,-0.0701,0.5385,-6.8435,0.4545,-3.0136,-0.004
-0.773,1.5509,-0.2901,0.3225,-1.9001,2.2629,-7.6979,-1.6093,-2.8746,0.8719,-0.0701,0.5385,-6.8435,0.4545,-3.0136,-0.004
-0.9673,1.4671,-0.2947,0.329,-2.1249,2.2045,-7.5191,-1.5114,-2.86,0.8509,-0.0521,0.5701,-6.8757,0.4805,-2.9384,0.0526
-0.9673,1.4671,-0.2947,0.329,-2.1249,2.2045,-7.5191,-1.5114,-2.86,0.8509,-0.0521,0.5701,-6.8757,0.4805,-2.9384,0.0526
-0.9673,1.4671,-0.2947,0.329,-2.1249,2.2045,-7.5191,-1.5114,-2.86,0.8509,-0.0521,0.5701,-6.8757,0.4805,-2.9384,0.0526
-1.0756,1.3893,-0.3163,0.3465,-2.3566,2.1445,-7.343,-1.4377,-2.8309,0.8089,-0.04,0.5913,-6.9253,0.4907,-2.8839,0.0967
-1.0756,1.3893,-0.3163,0.3465,-2.3566,2.1445,-7.343,-1.4377,-2.8309,0.8089,-0.04,0.5913,-6.9253,0.4907,-2.8839,0.0967
-1.0756,1.3893,-0.3163,0.3465,-2.3566,2.1445,-7.343,-1.4377,-2.8309,0.8089,-0.04,0.5913,-6.9253,0.4907,-2.8839,0.0967
-1.1324,1.346,-0.3299,0.3662,-2.5072,2.0909,-7.2309,-1.3675,-2.858,0.8026,-0.0399,0.6102,-6.956,0.4943,-2.8391,0.1263
-1.1324,1.346,-0.3299,0.3662,-2.5072,2.0909,-7.2309,-1.3675,-2.858,0.8026,-0.0399,0.6102,-6.956,0.4943,-2.8391,0.1263
-1.1493,1.3348,-0.3641,0.3881,-2.753,2.0275,-7.1155,-1.3254,-2.9555,0.8529,-0.0337,0.6399,-6.9601,0.4594,-2.7715,0.1526
-1.1493,1.3348,-0.3641,0.3881,-2.753,2.0275,-7.1155,-1.3254,-2.9555,0.8529,-0.0337,0.6399,-6.9601,0.4594,-2.7715,0.1526
-1.1493,1.3348,-0.3641,0.3881,-2.753,2.0275,-7.1155,-1.3254,-2.9555,0.8529,-0.0337,0.6399,-6.9601,0.4594,-2.7715,0.1526
-1.1266,1.3554,-0.3766,0.3925,-2.8036,2.0013,-7.1258,-1.3273,-3.0114,0.8885,-0.0396,0.6484,-6.9774,0.4438,-2.769,0.1563
-1.1266,1.3554,-0.3766,0.3925,-2.8036,2.0013,-7.1258,-1.3273,-3.0114,0.8885,-0.0396,0.6484,-6.9774,0.4438,-2.769,0.1563
-1.1266,1.3554,-0.3766,0.3925,-2.8036,2.0013,-7.1258,-1.3273,-3.0114,0.8885,-0.0396,0.6484,-6.9774,0.4438,-2.769,0.1563
-1.0809,1.397,-0.396,0.3796,-2.849,1.9513,-7.2105,-1.3637,-3.106,0.8903,-0.0633,0.644,-7.0427,0.4163,-2.8325,0.1605
-1.0809,1.397,-0.396,0.3796,-2.849,1.9513,-7.2105,-1.3637,-3.106,0.8903,-0.0633,0.644,-7.0427,0.4163,-2.8325,0.1605
-1.0809,1.397,-0.396,0.3796,-2.849,1.9513,-7.2105,-1.3637,-3.106,0.8903,-0.0633,0.644,-7.0427,0.4163,-2.8325,0.1605
-1.0746,1.4236,-0.4119,0.3754,-2.8641,1.9402,-7.2768,-1.3844,-3.1857,0.8711,-0.0692,0.6334,-7.097,0.4139,-2.887,0.1592
-1.0352,1.4387,-0.4164,0.3819,-2.8842,1.9528,-7.3251,-1.4057,-3.2241,0.8375,-0.0517,0.6081,-7.1696,0.418,-2.9417,0.1512
-1.0352,1.4387,-0.4164,0.3819,-2.8842,1.9528,-7.3251,-1.4057,-3.2241,0.8375,-0.0517,0.6081,-7.1696,0.418,-2.9417,0.1512
-1.0015,1.4442,-0.4199,0.3733,-2.9043,1.9654,-7.3833,-1.4289,-3.2385,0.8583,-0.0399,0.6102,-7.188,0.4245,-2.9697,0.1338
-1.0015,1.4442,-0.4199,0.3733,-2.9043,1.9654,-7.3833,-1.4289,-3.2385,0.8583,-0.0399,0.6102,-7.188,0.4245,-2.9697,0.1338
-0.9678,1.4498,-0.4199,0.3733,-2.8993,1.9746,-7.4287,-1.4456,-3.1833,0.8231,-0.0516,0.6271,-7.188,0.4245,-2.9998,0.1195
-0.9678,1.4498,-0.4199,0.3733,-2.8993,1.9746,-7.4287,-1.4456,-3.1833,0.8231,-0.0516,0.6271,-7.188,0.4245,-2.9998,0.1195
-0.9566,1.4516,-0.4278,0.3711,-2.9044,1.9819,-7.4614,-1.464,-3.1424,0.8087,-0.0574,0.6355,-7.1814,0.415,-3.0165,0.1005
-0.9448,1.4708,-0.4369,0.3842,-2.8843,1.9857,-7.469,-1.4776,-3.1833,0.8231,-0.0986,0.6565,-7.1748,0.4055,-3.0284,0.0889
-0.9448,1.4708,-0.4369,0.3842,-2.8843,1.9857,-7.469,-1.4776,-3.1833,0.8231,-0.0986,0.6565,-7.1748,0.4055,-3.0284,0.0889
-0.9448,1.4708,-0.4369,0.3842,-2.8843,1.9857,-7.469,-1.4776,-3.1833,0.8231,-0.0986,0.6565,-7.1748,0.4055,-3.0284,0.0889
-0.9442,1.4881,-0.4164,0.3819,-2.8389,1.9862,-7.4714,-1.474,-3.1302,0.8358,-0.0868,0.6587,-7.1261,0.3955,-3.0148,0.0909
-0.9442,1.4881,-0.4164,0.3819,-2.8389,1.9862,-7.4714,-1.474,-3.1302,0.8358,-0.0868,0.6587,-7.1261,0.3955,-3.0148,0.0909
-0.9442,1.4881,-0.4164,0.3819,-2.8389,1.9862,-7.4714,-1.474,-3.1302,0.8358,-0.0868,0.6587,-7.1261,0.3955,-3.0148,0.0909
-0.9157,1.5014,-0.38,0.3839,-2.7783,1.9813,-7.4313,-1.4665,-3.077,0.8485,-0.0631,0.6631,-7.0838,0.3949,-2.9654,0.0915
-0.9157,1.5014,-0.38,0.3839,-2.7783,1.9813,-7.4313,-1.4665,-3.077,0.8485,-0.0631,0.6631,-7.0838,0.3949,-2.9654,0.0915
-0.7915,1.5044,-0.2531,0.3786,-2.6767,2.0006,-7.2695,-1.4363,-2.86,0.8509,0.0079,0.6571,-7.0068,0.4253,-2.8494,0.1049
-0.7915,1.5044,-0.2531,0.3786,-2.6767,2.0006,-7.2695,-1.4363,-2.86,0.8509,0.0079,0.6571,-7.0068,0.4253,-2.8494,0.1049
-0.7915,1.5044,-0.2531,0.3786,-2.6767,2.0006,-7.2695,-1.4363,-2.86,0.8509,0.0079,0.6571,-7.0068,0.4253,-2.8494,0.1049
-0.7399,1.5215,-0.23,0.4003,-2.6256,2.0102,-7.1854,-1.4249,-2.7494,0.8277,0.0376,0.653,-6.9828,0.4313,-2.7902,0.1068
-0.7399,1.5215,-0.23,0.4003,-2.6256,2.0102,-7.1854,-1.4249,-2.7494,0.8277,0.0376,0.653,-6.9828,0.4313,-2.7902,0.1068
-0.6881,1.5386,-0.2069,0.422,-2.5641,2.0218,-7.111,-1.4154,-2.6821,0.8676,0.0734,0.6596,-6.9534,0.4498,-2.7263,0.1092
-0.6881,1.5386,-0.2069,0.422,-2.5641,2.0218,-7.111,-1.4154,-2.6821,0.8676,0.0734,0.6596,-6.9534,0.4498,-2.7263,0.1092
-0.6881,1.5386,-0.2069,0.422,-2.5641,2.0218,-7.111,-1.4154,-2.6821,0.8676,0.0734,0.6596,-6.9534,0.4498,-2.7263,0.1092
-0.659,1.5519,-0.1953,0.4328,-2.5229,2.0295,-7.0545,-1.4133,-2.6566,0.9226,0.1032,0.6555,-6.9293,0.4558,-2.6738,0.1067
-0.659,1.5519,-0.1953,0.4328,-2.5229,2.0295,-7.0545,-1.4133,-2.6566,0.9226,0.1032,0.6555,-6.9293,0.4558,-2.6738,0.1067
-0.6184,1.5672,-0.1537,0.4281,-2.4507,2.0262,-7.0132,-1.4141,-2.6861,0.9652,0.1331,0.6513,-6.8986,0.4522,-2.646,0.1106
-0.5953,1.5709,-0.1283,0.4191,-2.4041,2.0265,-6.9926,-1.4186,-2.6861,0.9652,0.151,0.645,-6.8731,0.436,-2.6321,0.1125
-0.5953,1.5709,-0.1283,0.4191,-2.4041,2.0265,-6.9926,-1.4186,-2.6861,0.9652,0.151,0.645,-6.8731,0.436,-2.6321,0.1125
-0.5722,1.5747,-0.1156,0.4147,-2.378,2.0397,-6.9901,-1.4223,-2.7829,0.9672,0.1568,0.6365,-6.8786,0.4234,-2.6388,0.1149
-0.5265,1.5645,-0.1075,0.4168,-2.3571,2.0603,-6.9927,-1.4269,-2.7682,0.946,0.1747,0.6302,-6.8598,0.4168,-2.6414,0.1112
-0.5265,1.5645,-0.1075,0.4168,-2.3571,2.0603,-6.9927,-1.4269,-2.7682,0.946,0.1747,0.6302,-6.8598,0.4168,-2.6414,0.1112
-0.5265,1.5645,-0.1075,0.4168,-2.3571,2.0603,-6.9927,-1.4269,-2.7682,0.946,0.1747,0.6302,-6.8598,0.4168,-2.6414,0.1112
-0.4862,1.5621,-0.1166,0.43,-2.3361,2.0809,-6.9955,-1.4397,-2.7829,0.9672,0.1691,0.6578,-6.8477,0.4197,-2.646,0.1106
-0.4862,1.5621,-0.1166,0.43,-2.3361,2.0809,-6.9955,-1.4397,-2.7829,0.9672,0.1691,0.6578,-6.8477,0.4197,-2.646,0.1106
-0.4862,1.5621,-0.1166,0.43,-2.3361,2.0809,-6.9955,-1.4397,-2.7829,0.9672,0.1691,0.6578,-6.8477,0.4197,-2.646,0.1106
-0.4807,1.5542,-0.1202,0.4213,-2.3308,2.0903,-7.0086,-1.4544,-2.7409,0.9524,0.1514,0.6834,-6.8356,0.4227,-2.6578,0.1056
-0.4807,1.5542,-0.1202,0.4213,-2.3308,2.0903,-7.0086,-1.4544,-2.7409,0.9524,0.1514,0.6834,-6.8356,0.4227,-2.6578,0.1056
-0.4862,1.5621,-0.1283,0.4191,-2.2942,2.0886,-7.014,-1.4717,-2.6988,0.9375,0.1575,0.6941,-6.8235,0.4257,-2.6629,0.0983
-0.4917,1.57,-0.1237,0.4125,-2.2628,2.0944,-7.0373,-1.48,-2.6292,0.9289,0.1695,0.6963,-6.7737,0.4153,-2.6679,0.0909
-0.4917,1.57,-0.1237,0.4125,-2.2628,2.0944,-7.0373,-1.48,-2.6292,0.9289,0.1695,0.6963,-6.7737,0.4153,-2.6679,0.0909
-0.4971,1.5779,-0.1364,0.417,-2.2418,2.0983,-7.0579,-1.4837,-2.6566,0.9226,0.1575,0.6941,-6.7293,0.3924,-2.6776,0.0829
-0.4971,1.5779,-0.1364,0.417,-2.2418,2.0983,-7.0579,-1.4837,-2.6566,0.9226,0.1575,0.6941,-6.7293,0.3924,-2.6776,0.0829
-0.4971,1.5779,-0.1364,0.417,-2.2418,2.0983,-7.0579,-1.4837,-2.6566,0.9226,0.1575,0.6941,-6.7293,0.3924,-2.6776,0.0829
-0.5204,1.5742,-0.1354,0.4017,-2.247,2.1057,-7.0938,-1.482,-2.6841,0.9163,0.1695,0.6963,-6.7171,0.3954,-2.6848,0.0786
-0.5204,1.5742,-0.1354,0.4017,-2.247,2.1057,-7.0938,-1.482,-2.6841,0.9163,0.1695,0.6963,-6.7171,0.3954,-2.6848,0.0786
-0.5552,1.5686,-0.1389,0.393,-2.2678,2.1188,-7.122,-1.483,-2.6841,0.9163,0.1754,0.6878,-6.7238,0.405,-2.6827,0.0756
-0.5722,1.5747,-0.1343,0.3864,-2.2677,2.1357,-7.145,-1.483,-2.6419,0.9014,0.1754,0.6878,-6.7438,0.4339,-2.6873,0.075
-0.5892,1.5807,-0.147,0.3909,-2.2572,2.1376,-7.163,-1.4904,-2.5297,0.8778,0.2054,0.6836,-6.7572,0.4532,-2.6785,0.0696
-0.5892,1.5807,-0.147,0.3909,-2.2572,2.1376,-7.163,-1.4904,-2.5297,0.8778,0.2054,0.6836,-6.7572,0.4532,-2.6785,0.0696
-0.5892,1.5807,-0.147,0.3909,-2.2572,2.1376,-7.163,-1.4904,-2.5297,0.8778,0.2054,0.6836,-6.7572,0.4532,-2.6785,0.0696
-0.5722,1.5747,-0.147,0.3909,-2.2467,2.1396,-7.1758,-1.4968,-2.5297,0.8778,0.2054,0.6836,-6.7761,0.4598,-2.6789,0.0629
-0.5722,1.5747,-0.147,0.3909,-2.2467,2.1396,-7.1758,-1.4968,-2.5297,0.8778,0.2054,0.6836,-6.7761,0.4598,-2.6789,0.0629
-0.5722,1.5747,-0.147,0.3909,-2.2467,2.1396,-7.1758,-1.4968,-2.5297,0.8778,0.2054,0.6836,-6.7761,0.4598,-2.6789,0.0629
-0.5838,1.5728,-0.1597,0.3953,-2.231,2.134,-7.204,-1.5059,-2.574,0.9416,0.2175,0.6858,-6.7761,0.4598,-2.6773,0.0532
-0.5838,1.5728,-0.1597,0.3953,-2.231,2.134,-7.204,-1.5059,-2.574,0.9416,0.2175,0.6858,-6.7761,0.4598,-2.6773,0.0532
-0.5722,1.5747,-0.1678,0.3932,-2.2047,2.1304,-7.2396,-1.5124,-2.5888,0.963,0.2054,0.6836,-6.7883,0.4569,-2.6937,0.0476
-0.5722,1.5747,-0.1678,0.3932,-2.2047,2.1304,-7.2396,-1.5124,-2.5888,0.963,0.2054,0.6836,-6.7883,0.4569,-2.6937,0.0476
-0.5722,1.5747,-0.2174,0.3958,-2.1626,2.1212,-7.3108,-1.5335,-2.6861,0.9652,0.2172,0.6665,-6.818,0.4383,-2.7506,0.0496
-0.5722,1.5747,-0.2174,0.3958,-2.1626,2.1212,-7.3108,-1.5335,-2.6861,0.9652,0.2172,0.6665,-6.818,0.4383,-2.7506,0.0496
-0.5667,1.5668,-0.2163,0.3805,-2.1521,2.1231,-7.3538,-1.5454,-2.7409,0.9524,0.247,0.6431,-6.8356,0.4227,-2.7873,0.0444
-0.5667,1.5668,-0.2163,0.3805,-2.1521,2.1231,-7.3538,-1.5454,-2.7409,0.9524,0.247,0.6431,-6.8356,0.4227,-2.7873,0.0444
-0.5667,1.5668,-0.2163,0.3805,-2.1521,2.1231,-7.3538,-1.5454,-2.7409,0.9524,0.247,0.6431,-6.8356,0.4227,-2.7873,0.0444
-0.5667,1.5668,-0.2163,0.3805,-2.1521,2.1231,-7.3538,-1.5454,-2.7409,0.9524,0.247,0.6431,-6.8356,0.4227,-2.7873,0.0444
-0.5381,1.5626,-0.2198,0.3718,-2.1519,2.1401,-7.3942,-1.5609,-2.6841,0.9163,0.265,0.6368,-6.8477,0.4197,-2.8173,0.0369
-0.5381,1.5626,-0.2198,0.3718,-2.1519,2.1401,-7.3942,-1.5609,-2.6841,0.9163,0.265,0.6368,-6.8477,0.4197,-2.8173,0.0369
-0.5327,1.5547,-0.244,0.3655,-2.1729,2.1532,-7.4419,-1.5737,-2.6968,0.8887,0.247,0.6431,-6.8411,0.4101,-2.8497,0.0258
-0.5327,1.5547,-0.244,0.3655,-2.1729,2.1532,-7.4419,-1.5737,-2.6968,0.8887,0.247,0.6431,-6.8411,0.4101,-2.8497,0.0258
-0.5436,1.5705,-0.2727,0.3657,-2.1728,2.1702,-7.5046,-1.5973,-2.6968,0.8887,0.2054,0.6836,-6.8598,0.4168,-2.9053,0.0048
-0.5436,1.5705,-0.2727,0.3657,-2.1728,2.1702,-7.5046,-1.5973,-2.6968,0.8887,0.2054,0.6836,-6.8598,0.4168,-2.9053,0.0048
-0.5831,1.5904,-0.2933,0.3681,-2.1675,2.1626,-7.5296,-1.61,-2.7114,0.9099,0.1995,0.6921,-6.8289,0.4131,-2.9243,-0.0109
-0.5831,1.5904,-0.2933,0.3681,-2.1675,2.1626,-7.5296,-1.61,-2.7114,0.9099,0.1995,0.6921,-6.8289,0.4131,-2.9243,-0.0109
-0.5831,1.5904,-0.2933,0.3681,-2.1675,2.1626,-7.5296,-1.61,-2.7114,0.9099,0.1995,0.6921,-6.8289,0.4131,-2.9243,-0.0109
-0.6117,1.5946,-0.3093,0.3638,-2.1781,2.1607,-7.5719,-1.6138,-2.7535,0.9248,0.1995,0.6921,-6.7792,0.4028,-2.9519,-0.0214
-0.6117,1.5946,-0.3093,0.3638,-2.1781,2.1607,-7.5719,-1.6138,-2.7535,0.9248,0.1995,0.6921,-6.7792,0.4028,-2.9519,-0.0214
-0.6117,1.5946,-0.3093,0.3638,-2.1781,2.1607,-7.5719,-1.6138,-2.7535,0.9248,0.1995,0.6921,-6.7792,0.4028,-2.9519,-0.0214
-0.6687,1.6028,-0.3083,0.3486,-2.1992,2.1568,-7.619,-1.6185,-2.7954,0.9396,0.1934,0.6814,-6.7604,0.3961,-2.984,-0.0324
-0.6687,1.6028,-0.3083,0.3486,-2.1992,2.1568,-7.619,-1.6185,-2.7954,0.9396,0.1934,0.6814,-6.7604,0.3961,-2.984,-0.0324
-0.6862,1.5912,-0.3117,0.34,-2.194,2.1493,-7.6586,-1.6259,-2.7807,0.9184,0.1813,0.6792,-6.7859,0.4124,-3.0205,-0.0441
-0.6862,1.5912,-0.3117,0.34,-2.194,2.1493,-7.6586,-1.6259,-2.7807,0.9184,0.1813,0.6792,-6.7859,0.4124,-3.0205,-0.0441
-0.7146,1.5953,-0.3243,0.3444,-2.194,2.1493,-7.7005,-1.6298,-2.766,0.8972,0.1514,0.6834,-6.7925,0.422,-3.0549,-0.0588
-0.7146,1.5953,-0.3243,0.3444,-2.194,2.1493,-7.7005,-1.6298,-2.766,0.8972,0.1514,0.6834,-6.7925,0.422,-3.0549,-0.0588
-0.7146,1.5953,-0.3243,0.3444,-2.194,2.1493,-7.7005,-1.6298,-2.766,0.8972,0.1514,0.6834,-6.7925,0.422,-3.0549,-0.0588
-0.7267,1.5758,-0.3789,0.3687,-2.1887,2.1587,-7.7693,-1.6507,-2.6948,0.8402,0.1154,0.6768,-6.8047,0.419,-3.1283,-0.0951
-0.7267,1.5758,-0.3789,0.3687,-2.1887,2.1587,-7.7693,-1.6507,-2.6948,0.8402,0.1154,0.6768,-6.8047,0.419,-3.1283,-0.0951
-0.7381,1.574,-0.3994,0.371,-2.1729,2.1532,-7.806,-1.6616,-2.7514,0.8761,0.0973,0.6639,-6.798,0.4094,-3.1652,-0.1197
-0.7381,1.574,-0.3994,0.371,-2.1729,2.1532,-7.806,-1.6616,-2.7514,0.8761,0.0973,0.6639,-6.798,0.4094,-3.1652,-0.1197
-0.7381,1.574,-0.3994,0.371,-2.1729,2.1532,-7.806,-1.6616,-2.7514,0.8761,0.0973,0.6639,-6.798,0.4094,-3.1652,-0.1197
-0.7496,1.5721,-0.4233,0.3646,-2.1465,2.1495,-7.8402,-1.6759,-2.8351,0.9057,0.0793,0.6511,-6.8223,0.4035,-3.2195,-0.1403
-0.7496,1.5721,-0.4233,0.3646,-2.1465,2.1495,-7.8402,-1.6759,-2.8351,0.9057,0.0793,0.6511,-6.8223,0.4035,-3.2195,-0.1403
-0.7496,1.5721,-0.4233,0.3646,-2.1465,2.1495,-7.8402,-1.6759,-2.8351,0.9057,0.0793,0.6511,-6.8223,0.4035,-3.2195,-0.1403
-0.7893,1.5743,-0.4664,0.3454,-2.1149,2.1384,-7.9229,-1.6995,-2.9286,0.8592,0.0314,0.6233,-6.9015,0.3953,-3.3369,-0.1604
-0.7893,1.5743,-0.4664,0.3454,-2.1149,2.1384,-7.9229,-1.6995,-2.9286,0.8592,0.0314,0.6233,-6.9015,0.3953,-3.3369,-0.1604
-0.7893,1.5743,-0.4664,0.3454,-2.1149,2.1384,-7.9229,-1.6995,-2.9286,0.8592,0.0314,0.6233,-6.9015,0.3953,-3.3369,-0.1604
-0.7947,1.5821,-0.4619,0.3389,-2.0937,2.1422,-7.9423,-1.7111,-3.0504,0.8548,0.0193,0.6021,-6.9443,0.396,-3.3745,-0.169
-0.7381,1.574,-0.454,0.341,-2.104,2.1743,-7.9447,-1.7155,-3.0236,0.8612,0.0312,0.6042,-6.9322,0.399,-3.3725,-0.1719
-0.7381,1.574,-0.454,0.341,-2.104,2.1743,-7.9447,-1.7155,-3.0236,0.8612,0.0312,0.6042,-6.9322,0.399,-3.3725,-0.1719
-0.6983,1.5718,-0.4381,0.3452,-2.0932,2.1933,-7.9157,-1.7178,-2.9555,0.8529,0.0372,0.6148,-6.9268,0.4115,-3.3289,-0.172
-0.6983,1.5718,-0.4381,0.3452,-2.0932,2.1933,-7.9157,-1.7178,-2.9555,0.8529,0.0372,0.6148,-6.9268,0.4115,-3.3289,-0.172
-0.6983,1.5718,-0.4381,0.3452,-2.0932,2.1933,-7.9157,-1.7178,-2.9555,0.8529,0.0372,0.6148,-6.9268,0.4115,-3.3289,-0.172
-0.6293,1.583,-0.3938,0.3492,-2.0717,2.2143,-7.8452,-1.7164,-2.8454,0.8299,0.0494,0.6361,-6.884,0.4108,-3.265,-0.166
-0.6293,1.583,-0.3938,0.3492,-2.0717,2.2143,-7.8452,-1.7164,-2.8454,0.8299,0.0494,0.6361,-6.884,0.4108,-3.265,-0.166
-0.6293,1.583,-0.3938,0.3492,-2.0717,2.2143,-7.8452,-1.7164,-2.8454,0.8299,0.0494,0.6361,-6.884,0.4108,-3.265,-0.166
-0.577,1.6002,-0.3619,0.3577,-2.0291,2.2222,-7.7671,-1.7097,-2.764,0.8487,0.0852,0.6426,-6.8289,0.4131,-3.192,-0.1588
-0.5355,1.6332,-0.3219,0.3683,-1.9863,2.23,-7.6935,-1.696,-2.7094,0.8613,0.1091,0.647,-6.7737,0.4153,-3.125,-0.1494
-0.4945,1.6487,-0.2852,0.3702,-1.9381,2.2302,-7.6391,-1.6781,-2.6272,0.8801,0.1451,0.6535,-6.6994,0.4109,-3.0713,-0.1418
-0.4945,1.6487,-0.2852,0.3702,-1.9381,2.2302,-7.6391,-1.6781,-2.6272,0.8801,0.1451,0.6535,-6.6994,0.4109,-3.0713,-0.1418
-0.4945,1.6487,-0.2852,0.3702,-1.9381,2.2302,-7.6391,-1.6781,-2.6272,0.8801,0.1451,0.6535,-6.6994,0.4109,-3.0713,-0.1418
-0.4651,1.6622,-0.2566,0.37,-1.9166,2.2341,-7.5995,-1.6628,-2.6144,0.9077,0.1571,0.6557,-6.6559,0.4101,-3.0353,-0.1368
-0.4651,1.6622,-0.2566,0.37,-1.9166,2.2341,-7.5995,-1.6628,-2.6144,0.9077,0.1571,0.6557,-6.6559,0.4101,-3.0353,-0.1368
-0.4651,1.6622,-0.2566,0.37,-1.9166,2.2341,-7.5995,-1.6628,-2.6144,0.9077,0.1571,0.6557,-6.6559,0.4101,-3.0353,-0.1368
-0.4534,1.6641,-0.2233,0.3632,-1.9005,2.2284,-7.5722,-1.6538,-2.5869,0.914,0.1929,0.643,-6.6247,0.4063,-3.0108,-0.1366
-0.4534,1.6641,-0.2233,0.3632,-1.9005,2.2284,-7.5722,-1.6538,-2.5869,0.914,0.1929,0.643,-6.6247,0.4063,-3.0108,-0.1366
-0.3838,1.6576,-0.1647,0.3474,-1.8681,2.2343,-7.5374,-1.6474,-2.4038,0.8815,0.2409,0.6325,-6.6202,0.4412,-2.9842,-0.1394
-0.3838,1.6576,-0.1647,0.3474,-1.8681,2.2343,-7.5374,-1.6474,-2.4038,0.8815,0.2409,0.6325,-6.6202,0.4412,-2.9842,-0.1394
-0.3721,1.6594,-0.1693,0.354,-1.8734,2.2419,-7.5299,-1.65,-2.2902,0.8575,0.2588,0.6261,-6.6269,0.4509,-2.9801,-0.1452
-0.3721,1.6594,-0.1693,0.354,-1.8734,2.2419,-7.5299,-1.65,-2.2902,0.8575,0.2588,0.6261,-6.6269,0.4509,-2.9801,-0.1452
-0.343,1.6552,-0.1749,0.3758,-1.8679,2.2515,-7.5299,-1.65,-2.262,0.8637,0.2709,0.6283,-6.6269,0.4509,-2.9785,-0.1547
-0.343,1.6552,-0.1749,0.3758,-1.8679,2.2515,-7.5299,-1.65,-2.262,0.8637,0.2709,0.6283,-6.6269,0.4509,-2.9785,-0.1547
-0.3659,1.6693,-0.1749,0.3758,-1.8465,2.2382,-7.5374,-1.6554,-2.2917,0.9065,0.2709,0.6283,-6.6269,0.4509,-2.988,-0.1624
-0.3541,1.6712,-0.1668,0.3779,-1.8034,2.2287,-7.5425,-1.6643,-2.3066,0.9279,0.2831,0.6304,-6.6202,0.4412,-3.004,-0.1678
-0.3541,1.6712,-0.1668,0.3779,-1.8034,2.2287,-7.5425,-1.6643,-2.3066,0.9279,0.2831,0.6304,-6.6202,0.4412,-3.004,-0.1678
-0.3541,1.6712,-0.1668,0.3779,-1.8034,2.2287,-7.5425,-1.6643,-2.3066,0.9279,0.2831,0.6304,-6.6202,0.4412,-3.004,-0.1678
-0.3714,1.6773,-0.1668,0.3779,-1.7926,2.2306,-7.5624,-1.6679,-2.3925,0.9583,0.289,0.6219,-6.6258,0.4286,-3.0224,-0.1768
-0.3714,1.6773,-0.1668,0.3779,-1.7926,2.2306,-7.5624,-1.6679,-2.3925,0.9583,0.289,0.6219,-6.6258,0.4286,-3.0224,-0.1768
-0.3714,1.6773,-0.1668,0.3779,-1.7926,2.2306,-7.5624,-1.6679,-2.3925,0.9583,0.289,0.6219,-6.6258,0.4286,-3.0224,-0.1768
-0.3714,1.6773,-0.1622,0.3713,-1.7817,2.2326,-7.5748,-1.6742,-2.4761,0.9393,0.3188,0.5985,-6.6626,0.4197,-3.0494,-0.1805
-0.3714,1.6773,-0.1622,0.3713,-1.7817,2.2326,-7.5748,-1.6742,-2.4761,0.9393,0.3188,0.5985,-6.6626,0.4197,-3.0494,-0.1805
-0.3714,1.6773,-0.1622,0.3713,-1.7817,2.2326,-7.5748,-1.6742,-2.4761,0.9393,0.3188,0.5985,-6.6626,0.4197,-3.0494,-0.1805
-0.3597,1.6792,-0.1794,0.3824,-1.8136,2.2786,-7.6046,-1.6876,-2.5464,0.948,0.3489,0.5943,-6.6816,0.4264,-3.0906,-0.199
-0.3597,1.6792,-0.1794,0.3824,-1.8136,2.2786,-7.6046,-1.6876,-2.5464,0.948,0.3489,0.5943,-6.6816,0.4264,-3.0906,-0.199
-0.3541,1.6712,-0.1875,0.3803,-1.8297,2.2843,-7.6146,-1.6974,-2.5039,0.933,0.3434,0.622,-6.6626,0.4197,-3.1089,-0.208
-0.3541,1.6712,-0.1875,0.3803,-1.8297,2.2843,-7.6146,-1.6974,-2.5039,0.933,0.3434,0.622,-6.6626,0.4197,-3.1089,-0.208
-0.3541,1.6712,-0.1875,0.3803,-1.8297,2.2843,-7.6146,-1.6974,-2.5039,0.933,0.3434,0.622,-6.6626,0.4197,-3.1089,-0.208
-0.325,1.6669,-0.1794,0.3824,-1.8081,2.2882,-7.6196,-1.7062,-2.4334,0.9242,0.3076,0.6539,-6.6503,0.4227,-3.1272,-0.2169
-0.325,1.6669,-0.1794,0.3824,-1.8081,2.2882,-7.6196,-1.7062,-2.4334,0.9242,0.3076,0.6539,-6.6503,0.4227,-3.1272,-0.2169
-0.325,1.6669,-0.1794,0.3824,-1.8081,2.2882,-7.6196,-1.7062,-2.4334,0.9242,0.3076,0.6539,-6.6503,0.4227,-3.1272,-0.2169
-0.3535,1.689,-0.2037,0.3761,-1.8136,2.2786,-7.6617,-1.7258,-2.5187,0.9544,0.2712,0.6475,-6.5923,0.3803,-3.1642,-0.2411
-0.3535,1.689,-0.2037,0.3761,-1.8136,2.2786,-7.6617,-1.7258,-2.5187,0.9544,0.2712,0.6475,-6.5923,0.3803,-3.1642,-0.2411
-0.3707,1.6951,-0.2117,0.374,-1.8083,2.2709,-7.6961,-1.7242,-2.5464,0.948,0.2591,0.6453,-6.5666,0.364,-3.1888,-0.2478
-0.4232,1.6956,-0.2188,0.3566,-1.8622,2.2784,-7.7427,-1.7289,-2.5612,0.9694,0.265,0.6368,-6.5543,0.3669,-3.209,-0.2537
-0.4232,1.6956,-0.2188,0.3566,-1.8622,2.2784,-7.7427,-1.7289,-2.5612,0.9694,0.265,0.6368,-6.5543,0.3669,-3.209,-0.2537
-0.4638,1.6979,-0.2223,0.3479,-1.8677,2.2688,-7.7843,-1.7326,-2.5888,0.963,0.2709,0.6283,-6.599,0.39,-3.2336,-0.2603
-0.4638,1.6979,-0.2223,0.3479,-1.8677,2.2688,-7.7843,-1.7326,-2.5888,0.963,0.2709,0.6283,-6.599,0.39,-3.2336,-0.2603
-0.4638,1.6979,-0.2223,0.3479,-1.8677,2.2688,-7.7843,-1.7326,-2.5888,0.963,0.2709,0.6283,-6.599,0.39,-3.2336,-0.2603
-0.4755,1.696,-0.2258,0.3393,-1.8785,2.2668,-7.8185,-1.739,-2.5039,0.933,0.2709,0.6283,-6.6191,0.4189,-3.2646,-0.2647
-0.4755,1.696,-0.2258,0.3393,-1.8785,2.2668,-7.8185,-1.739,-2.5039,0.933,0.2709,0.6283,-6.6191,0.4189,-3.2646,-0.2647
-0.4755,1.696,-0.2258,0.3393,-1.8785,2.2668,-7.8185,-1.739,-2.5039,0.933,0.2709,0.6283,-6.6191,0.4189,-3.2646,-0.2647
-0.4871,1.6941,-0.2429,0.3503,-1.8785,2.2668,-7.8381,-1.7505,-2.4038,0.8815,0.2768,0.6198,-6.657,0.4324,-3.2935,-0.2719
-0.4988,1.6922,-0.2681,0.3592,-1.8732,2.2591,-7.8649,-1.7594,-2.3742,0.8389,0.2647,0.6176,-6.6816,0.4264,-3.3204,-0.282
-0.4988,1.6922,-0.2933,0.3681,-1.8732,2.2591,-7.8819,-1.7665,-2.4169,0.854,0.2468,0.624,-6.6871,0.4138,-3.3324,-0.2994
-0.4988,1.6922,-0.2933,0.3681,-1.8732,2.2591,-7.8819,-1.7665,-2.4169,0.854,0.2468,0.624,-6.6871,0.4138,-3.3324,-0.2994
-0.4988,1.6922,-0.2933,0.3681,-1.8732,2.2591,-7.8819,-1.7665,-2.4169,0.854,0.2468,0.624,-6.6871,0.4138,-3.3324,-0.2994
-0.4988,1.6922,-0.3059,0.3725,-1.8571,2.2535,-7.9134,-1.7685,-2.4465,0.8966,0.2468,0.624,-6.6804,0.4042,-3.3528,-0.3117
-0.4988,1.6922,-0.3059,0.3725,-1.8571,2.2535,-7.9134,-1.7685,-2.4465,0.8966,0.2468,0.624,-6.6804,0.4042,-3.3528,-0.3117
-0.4988,1.6922,-0.3059,0.3725,-1.8571,2.2535,-7.9134,-1.7685,-2.4465,0.8966,0.2468,0.624,-6.6804,0.4042,-3.3528,-0.3117
-0.5104,1.6903,-0.3264,0.3748,-1.8357,2.2401,-7.9425,-1.7739,-2.5039,0.933,0.2108,0.6367,-6.6927,0.4013,-3.3859,-0.3195
-0.5104,1.6903,-0.3264,0.3748,-1.8357,2.2401,-7.9425,-1.7739,-2.5039,0.933,0.2108,0.6367,-6.6927,0.4013,-3.3859,-0.3195
-0.5337,1.6865,-0.3414,0.3554,-1.8679,2.2515,-8.0004,-1.7848,-2.6292,0.9289,0.2223,0.6006,-6.7282,0.3703,-3.4753,-0.329
-0.5337,1.6865,-0.3414,0.3554,-1.8679,2.2515,-8.0004,-1.7848,-2.6292,0.9289,0.2223,0.6006,-6.7282,0.3703,-3.4753,-0.329
-0.5337,1.6865,-0.3414,0.3554,-1.8679,2.2515,-8.0004,-1.7848,-2.6292,0.9289,0.2223,0.6006,-6.7282,0.3703,-3.4753,-0.329
-0.5227,1.6706,-0.3403,0.3402,-1.8893,2.2648,-8.0293,-1.7903,-2.6144,0.9077,0.2341,0.5836,-6.7592,0.374,-3.5104,-0.3403
-0.5227,1.6706,-0.3403,0.3402,-1.8893,2.2648,-8.0293,-1.7903,-2.6144,0.9077,0.2341,0.5836,-6.7592,0.374,-3.5104,-0.3403
-0.5227,1.6706,-0.3403,0.3402,-1.8893,2.2648,-8.0293,-1.7903,-2.6144,0.9077,0.2341,0.5836,-6.7592,0.374,-3.5104,-0.3403
-0.4945,1.6487,-0.3642,0.3339,-1.9109,2.2609,-8.0557,-1.7992,-2.6292,0.9289,0.2103,0.5984,-6.7659,0.3836,-3.5432,-0.3481
-0.4945,1.6487,-0.3642,0.3339,-1.9109,2.2609,-8.0557,-1.7992,-2.6292,0.9289,0.2103,0.5984,-6.7659,0.3836,-3.5432,-0.3481
-0.4945,1.6487,-0.3642,0.3339,-1.9109,2.2609,-8.0557,-1.7992,-2.6292,0.9289,0.2103,0.5984,-6.7659,0.3836,-3.5432,-0.3481
-0.5062,1.6468,-0.3722,0.3318,-1.943,2.2723,-8.0725,-1.8062,-2.6988,0.9375,0.1686,0.6195,-6.778,0.3806,-3.5782,-0.3593
-0.5062,1.6468,-0.3722,0.3318,-1.943,2.2723,-8.0725,-1.8062,-2.6988,0.9375,0.1686,0.6195,-6.778,0.3806,-3.5782,-0.3593
-0.5514,1.6748,-0.4007,0.332,-1.9645,2.2683,-8.1084,-1.8169,-2.7409,0.9524,0.1209,0.63,-6.7714,0.371,-3.639,-0.3742
-0.5514,1.6748,-0.4007,0.332,-1.9645,2.2683,-8.1084,-1.8169,-2.7409,0.9524,0.1209,0.63,-6.7714,0.371,-3.639,-0.3742
-0.6088,1.683,-0.437,0.3301,-1.9647,2.2511,-8.1394,-1.8189,-2.6988,0.9375,0.1267,0.6215,-6.7271,0.3482,-3.6714,-0.382
-0.6088,1.683,-0.437,0.3301,-1.9647,2.2511,-8.1394,-1.8189,-2.6988,0.9375,0.1267,0.6215,-6.7271,0.3482,-3.6714,-0.382
-0.6604,1.6833,-0.4359,0.3149,-1.9808,2.2396,-8.1775,-1.8184,-2.7261,0.9311,0.1206,0.6109,-6.7459,0.3548,-3.7081,-0.3904
-0.6604,1.6833,-0.4359,0.3149,-1.9808,2.2396,-8.1775,-1.8184,-2.7261,0.9311,0.1206,0.6109,-6.7459,0.3548,-3.7081,-0.3904
-0.6604,1.6833,-0.4359,0.3149,-1.9808,2.2396,-8.1775,-1.8184,-2.7261,0.9311,0.1206,0.6109,-6.7459,0.3548,-3.7081,-0.3904
-0.7119,1.6836,-0.4428,0.2977,-2.0077,2.2261,-8.2179,-1.8223,-2.7535,0.9248,0.0967,0.6066,-6.7647,0.3615,-3.7446,-0.3988
-0.7119,1.6836,-0.4428,0.2977,-2.0077,2.2261,-8.2179,-1.8223,-2.7535,0.9248,0.0967,0.6066,-6.7647,0.3615,-3.7446,-0.3988
-0.7294,1.6719,-0.4383,0.2913,-2.0343,2.2297,-8.2463,-1.8277,-2.7807,0.9184,0.067,0.6107,-6.8023,0.3747,-3.7834,-0.4106
-0.7294,1.6719,-0.4383,0.2913,-2.0343,2.2297,-8.2463,-1.8277,-2.7807,0.9184,0.067,0.6107,-6.8023,0.3747,-3.7834,-0.4106
-0.7752,1.6642,-0.4835,0.3023,-2.061,2.2334,-8.2983,-1.8377,-2.6948,0.8402,0.0134,0.6105,-6.8894,0.3983,-3.8603,-0.4279
-0.7752,1.6642,-0.4835,0.3023,-2.061,2.2334,-8.2983,-1.8377,-2.6948,0.8402,0.0134,0.6105,-6.8894,0.3983,-3.8603,-0.4279
-0.7752,1.6642,-0.4835,0.3023,-2.061,2.2334,-8.2983,-1.8377,-2.6948,0.8402,0.0134,0.6105,-6.8894,0.3983,-3.8603,-0.4279
-0.7468,1.6602,-0.497,0.3218,-2.0396,2.2373,-8.303,-1.8386,-2.6528,0.8253,0.0134,0.6105,-6.8961,0.4079,-3.8541,-0.4301
-0.7468,1.6602,-0.497,0.3218,-2.0396,2.2373,-8.303,-1.8386,-2.6528,0.8253,0.0134,0.6105,-6.8961,0.4079,-3.8541,-0.4301
-0.7468,1.6602,-0.497,0.3218,-2.0396,2.2373,-8.303,-1.8386,-2.6528,0.8253,0.0134,0.6105,-6.8961,0.4079,-3.8541,-0.4301
-0.7239,1.664,-0.4947,0.3455,-2.0288,2.2565,-8.2794,-1.8341,-2.6253,0.8316,0.0134,0.6105,-6.8774,0.4012,-3.8015,-0.4318
-0.7239,1.664,-0.4947,0.3455,-2.0288,2.2565,-8.2794,-1.8341,-2.6253,0.8316,0.0134,0.6105,-6.8774,0.4012,-3.8015,-0.4318
-0.7239,1.664,-0.4947,0.3455,-2.0288,2.2565,-8.2794,-1.8341,-2.6253,0.8316,0.0134,0.6105,-6.8774,0.4012,-3.8015,-0.4318
-0.6032,1.6751,-0.4108,0.3602,-1.9109,2.2609,-8.1608,-1.8191,-2.5869,0.914,0.067,0.6107,-6.7968,0.3873,-3.6374,-0.4175
-0.6032,1.6751,-0.4108,0.3602,-1.9109,2.2609,-8.1608,-1.8191,-2.5869,0.914,0.067,0.6107,-6.7968,0.3873,-3.6374,-0.4175
-0.5569,1.6827,-0.3869,0.3665,-1.841,2.2478,-8.0916,-1.8099,-2.5888,0.963,0.085,0.6235,-6.7537,0.3865,-3.5617,-0.4037
-0.5569,1.6827,-0.3869,0.3665,-1.841,2.2478,-8.0916,-1.8099,-2.5888,0.963,0.085,0.6235,-6.7537,0.3865,-3.5617,-0.4037
-0.5569,1.6827,-0.3869,0.3665,-1.841,2.2478,-8.0916,-1.8099,-2.5888,0.963,0.085,0.6235,-6.7537,0.3865,-3.5617,-0.4037
-0.516,1.6983,-0.3504,0.3685,-1.76,2.2365,-8.0221,-1.8006,-2.5484,0.9972,0.1267,0.6215,-6.7293,0.3924,-3.503,-0.3923
-0.516,1.6983,-0.3504,0.3685,-1.76,2.2365,-8.0221,-1.8006,-2.5484,0.9972,0.1267,0.6215,-6.7293,0.3924,-3.503,-0.3923
-0.4693,1.7058,-0.3219,0.3683,-1.7058,2.2289,-7.9691,-1.7907,-2.5633,1.0186,0.1387,0.6237,-6.7171,0.3954,-3.4678,-0.3811
-0.4693,1.7058,-0.3219,0.3683,-1.7058,2.2289,-7.9691,-1.7907,-2.5633,1.0186,0.1387,0.6237,-6.7171,0.3954,-3.4678,-0.3811
-0.4515,1.7176,-0.3013,0.3659,-1.7002,2.2385,-7.9256,-1.7825,-2.6185,1.0058,0.1505,0.6068,-6.7293,0.3924,-3.4606,-0.3708
-0.4515,1.7176,-0.3013,0.3659,-1.7002,2.2385,-7.9256,-1.7825,-2.6185,1.0058,0.1505,0.6068,-6.7293,0.3924,-3.4606,-0.3708
-0.4281,1.7214,-0.2807,0.3636,-1.6892,2.2404,-7.8989,-1.7736,-2.6312,0.978,0.1921,0.5857,-6.7415,0.3895,-3.4519,-0.3695
-0.4281,1.7214,-0.2807,0.3636,-1.6892,2.2404,-7.8989,-1.7736,-2.6312,0.978,0.1921,0.5857,-6.7415,0.3895,-3.4519,-0.3695
-0.4281,1.7214,-0.2807,0.3636,-1.6892,2.2404,-7.8989,-1.7736,-2.6312,0.978,0.1921,0.5857,-6.7415,0.3895,-3.4519,-0.3695
-0.3639,1.7229,-0.244,0.3655,-1.7265,2.2942,-7.8552,-1.7655,-2.5761,0.9908,0.252,0.5773,-6.6982,0.3887,-3.4222,-0.3779
-0.3639,1.7229,-0.244,0.3655,-1.7265,2.2942,-7.8552,-1.7655,-2.5761,0.9908,0.252,0.5773,-6.6982,0.3887,-3.4222,-0.3779
-0.3348,1.7187,-0.2314,0.3611,-1.7372,2.3096,-7.8503,-1.7646,-2.5484,0.9972,0.2762,0.5815,-6.686,0.3916,-3.4202,-0.3807
-0.3348,1.7187,-0.2314,0.3611,-1.7372,2.3096,-7.8503,-1.7646,-2.5484,0.9972,0.2762,0.5815,-6.686,0.3916,-3.4202,-0.3807
-0.2945,1.6984,-0.2233,0.3632,-1.7535,2.3154,-7.8406,-1.7706,-2.4631,0.9671,0.2644,0.5985,-6.6738,0.3946,-3.4207,-0.387
-0.2945,1.6984,-0.2233,0.3632,-1.7535,2.3154,-7.8406,-1.7706,-2.4631,0.9671,0.2644,0.5985,-6.6738,0.3946,-3.4207,-0.387
-0.2945,1.6984,-0.2233,0.3632,-1.7535,2.3154,-7.8406,-1.7706,-2.4631,0.9671,0.2644,0.5985,-6.6738,0.3946,-3.4207,-0.387
-0.2827,1.7003,-0.2198,0.3718,-1.7535,2.3154,-7.8309,-1.7767,-2.4353,0.9734,0.2647,0.6176,-6.6548,0.3879,-3.4171,-0.399
-0.2827,1.7003,-0.2198,0.3718,-1.7535,2.3154,-7.8309,-1.7767,-2.4353,0.9734,0.2647,0.6176,-6.6548,0.3879,-3.4171,-0.399
-0.2827,1.7003,-0.2198,0.3718,-1.7535,2.3154,-7.8309,-1.7767,-2.4353,0.9734,0.2647,0.6176,-6.6548,0.3879,-3.4171,-0.399
-0.3168,1.7305,-0.2244,0.3784,-1.759,2.3057,-7.8141,-1.801,-2.4223,1.0013,0.2529,0.6346,-6.6359,0.3812,-3.4524,-0.4102
-0.3168,1.7305,-0.2244,0.3784,-1.759,2.3057,-7.8141,-1.801,-2.4223,1.0013,0.2529,0.6346,-6.6359,0.3812,-3.4524,-0.4102
-0.3279,1.7466,-0.2163,0.3805,-1.7481,2.3077,-7.8238,-1.8028,-2.4223,1.0013,0.2529,0.6346,-6.6169,0.3745,-3.4659,-0.4183
-0.3279,1.7466,-0.2163,0.3805,-1.7481,2.3077,-7.8238,-1.8028,-2.4223,1.0013,0.2529,0.6346,-6.6169,0.3745,-3.4659,-0.4183
-0.3509,1.7607,-0.2163,0.3805,-1.7319,2.3019,-7.8408,-1.802,-2.3943,1.0077,0.265,0.6368,-6.5666,0.364,-3.4853,-0.4179
-0.3509,1.7607,-0.2163,0.3805,-1.7319,2.3019,-7.8408,-1.802,-2.3943,1.0077,0.265,0.6368,-6.5666,0.364,-3.4853,-0.4179
-0.3682,1.7669,-0.2037,0.3761,-1.7103,2.2885,-7.8651,-1.7986,-2.4522,1.0444,0.2529,0.6346,-6.5219,0.3409,-3.5007,-0.4231
-0.38,1.765,-0.2117,0.374,-1.7212,2.2865,-7.8917,-1.7919,-2.4372,1.0228,0.2529,0.6346,-6.5028,0.3342,-3.5161,-0.4284
-0.38,1.765,-0.2117,0.374,-1.7212,2.2865,-7.8917,-1.7919,-2.4372,1.0228,0.2529,0.6346,-6.5028,0.3342,-3.5161,-0.4284
-0.38,1.765,-0.2117,0.374,-1.7212,2.2865,-7.8917,-1.7919,-2.4372,1.0228,0.2529,0.6346,-6.5028,0.3342,-3.5161,-0.4284
-0.3979,1.7531,-0.2153,0.3653,-1.743,2.2826,-7.9256,-1.7903,-2.4651,1.0164,0.2409,0.6325,-6.5343,0.338,-3.5401,-0.4348
-0.3979,1.7531,-0.2153,0.3653,-1.743,2.2826,-7.9256,-1.7903,-2.4651,1.0164,0.2409,0.6325,-6.5343,0.338,-3.5401,-0.4348
-0.3979,1.7531,-0.2153,0.3653,-1.743,2.2826,-7.9256,-1.7903,-2.4651,1.0164,0.2409,0.6325,-6.5343,0.338,-3.5401,-0.4348
-0.404,1.7432,-0.2062,0.3521,-1.7701,2.2864,-7.9522,-1.7914,-2.4223,1.0013,0.2588,0.6261,-6.5533,0.3447,-3.5641,-0.4413
-0.404,1.7432,-0.2062,0.3521,-1.7701,2.2864,-7.9522,-1.7914,-2.4223,1.0013,0.2588,0.6261,-6.5533,0.3447,-3.5641,-0.4413
-0.404,1.7432,-0.2062,0.3521,-1.7701,2.2864,-7.9522,-1.7914,-2.4223,1.0013,0.2588,0.6261,-6.5533,0.3447,-3.5641,-0.4413
-0.404,1.7432,-0.2062,0.3521,-1.7701,2.2864,-7.9522,-1.7914,-2.4223,1.0013,0.2588,0.6261,-6.5533,0.3447,-3.5641,-0.4413
-0.3812,1.729,-0.2016,0.3456,-1.7592,2.2884,-7.9956,-1.7995,-2.2785,0.9342,0.2527,0.6155,-6.6359,0.3812,-3.6123,-0.4604
-0.3812,1.729,-0.2016,0.3456,-1.7592,2.2884,-7.9956,-1.7995,-2.2785,0.9342,0.2527,0.6155,-6.6359,0.3812,-3.6123,-0.4604
-0.3812,1.729,-0.2016,0.3456,-1.7592,2.2884,-7.9956,-1.7995,-2.2785,0.9342,0.2527,0.6155,-6.6359,0.3812,-3.6123,-0.4604
-0.404,1.7432,-0.2359,0.3676,-1.7484,2.2903,-8.0341,-1.8146,-2.2204,0.8975,0.2285,0.6112,-6.686,0.3916,-3.6608,-0.4857
-0.404,1.7432,-0.2359,0.3676,-1.7484,2.2903,-8.0341,-1.8146,-2.2204,0.8975,0.2285,0.6112,-6.686,0.3916,-3.6608,-0.4857
-0.404,1.7432,-0.2359,0.3676,-1.7484,2.2903,-8.0341,-1.8146,-2.2204,0.8975,0.2285,0.6112,-6.686,0.3916,-3.6608,-0.4857
-0.4331,1.7474,-0.2566,0.37,-1.7592,2.2884,-8.0533,-1.826,-2.2785,0.9342,0.2165,0.609,-6.7105,0.3858,-3.6788,-0.5005
-0.4331,1.7474,-0.2566,0.37,-1.7592,2.2884,-8.0533,-1.826,-2.2785,0.9342,0.2165,0.609,-6.7105,0.3858,-3.6788,-0.5005
-0.4503,1.7535,-0.2772,0.3723,-1.743,2.2826,-8.0701,-1.833,-2.3514,0.9925,0.2044,0.6069,-6.7038,0.3761,-3.7048,-0.5103
-0.462,1.7515,-0.2933,0.3681,-1.7268,2.2769,-8.0965,-1.8419,-2.4243,1.0508,0.2223,0.6006,-6.716,0.3732,-3.7371,-0.5179
-0.462,1.7515,-0.2933,0.3681,-1.7268,2.2769,-8.0965,-1.8419,-2.4243,1.0508,0.2223,0.6006,-6.716,0.3732,-3.7371,-0.5179
-0.462,1.7515,-0.3013,0.3659,-1.678,2.2597,-8.1132,-1.8489,-2.4672,1.066,0.2103,0.5984,-6.7094,0.3636,-3.7816,-0.5212
-0.462,1.7515,-0.3013,0.3659,-1.678,2.2597,-8.1132,-1.8489,-2.4672,1.066,0.2103,0.5984,-6.7094,0.3636,-3.7816,-0.5212
-0.5026,1.7538,-0.3173,0.3617,-1.6727,2.252,-8.149,-1.8518,-2.5782,1.0401,0.1921,0.5857,-6.7459,0.3548,-3.8284,-0.5278
-0.5026,1.7538,-0.3173,0.3617,-1.6727,2.252,-8.149,-1.8518,-2.5782,1.0401,0.1921,0.5857,-6.7459,0.3548,-3.8284,-0.5278
-0.5142,1.7519,-0.3208,0.3531,-1.6889,2.2577,-8.1728,-1.8563,-2.6334,1.0272,0.2217,0.5624,-6.7636,0.3394,-3.8749,-0.5344
-0.5142,1.7519,-0.3208,0.3531,-1.6889,2.2577,-8.1728,-1.8563,-2.6334,1.0272,0.2217,0.5624,-6.7636,0.3394,-3.8749,-0.5344
-0.5203,1.742,-0.3448,0.3467,-1.7377,2.2749,-8.206,-1.8626,-2.6185,1.0058,0.2276,0.554,-6.7758,0.3365,-3.9152,-0.5433
-0.5203,1.742,-0.3448,0.3467,-1.7377,2.2749,-8.206,-1.8626,-2.6185,1.0058,0.2276,0.554,-6.7758,0.3365,-3.9152,-0.5433
-0.4976,1.7279,-0.3653,0.349,-1.7701,2.2864,-8.2274,-1.8705,-2.646,0.9993,0.2097,0.5603,-6.7879,0.3335,-3.9554,-0.5521
-0.4976,1.7279,-0.3653,0.349,-1.7701,2.2864,-8.2274,-1.8705,-2.646,0.9993,0.2097,0.5603,-6.7879,0.3335,-3.9554,-0.5521
-0.4865,1.7119,-0.3733,0.3469,-1.781,2.2844,-8.2487,-1.8784,-2.6312,0.978,0.1502,0.5877,-6.8001,0.3306,-3.9913,-0.5603
-0.4865,1.7119,-0.3733,0.3469,-1.781,2.2844,-8.2487,-1.8784,-2.6312,0.978,0.1502,0.5877,-6.8001,0.3306,-3.9913,-0.5603
-0.4865,1.7119,-0.3733,0.3469,-1.781,2.2844,-8.2487,-1.8784,-2.6312,0.978,0.1502,0.5877,-6.8001,0.3306,-3.9913,-0.5603
-0.4865,1.7119,-0.3733,0.3469,-1.781,2.2844,-8.2487,-1.8784,-2.6312,0.978,0.1502,0.5877,-6.8001,0.3306,-3.9913,-0.5603
-0.4921,1.7199,-0.3972,0.3406,-1.7919,2.2825,-8.2794,-1.8958,-2.6587,0.9716,0.0908,0.6151,-6.8122,0.3277,-4.0445,-0.5831
-0.4921,1.7199,-0.3972,0.3406,-1.7919,2.2825,-8.2794,-1.8958,-2.6587,0.9716,0.0908,0.6151,-6.8122,0.3277,-4.0445,-0.5831
-0.4921,1.7199,-0.3972,0.3406,-1.7919,2.2825,-8.2794,-1.8958,-2.6587,0.9716,0.0908,0.6151,-6.8122,0.3277,-4.0445,-0.5831
-0.4921,1.7199,-0.3972,0.3406,-1.7919,2.2825,-8.2794,-1.8958,-2.6587,0.9716,0.0908,0.6151,-6.8122,0.3277,-4.0445,-0.5831
-0.5895,1.7483,-0.454,0.341,-1.8244,2.2766,-8.3312,-1.9057,-2.7135,0.9588,0.0312,0.6042,-6.7924,0.2991,-4.1138,-0.6022
-0.5895,1.7483,-0.454,0.341,-1.8244,2.2766,-8.3312,-1.9057,-2.7135,0.9588,0.0312,0.6042,-6.7924,0.2991,-4.1138,-0.6022
-0.6242,1.7425,-0.4777,0.3346,-1.8569,2.2707,-8.3758,-1.9027,-2.7409,0.9524,0.0133,0.5915,-6.7858,0.2896,-4.1553,-0.6083
-0.6704,1.7348,-0.4891,0.3239,-1.8999,2.2801,-8.4063,-1.9048,-2.7829,0.9672,0.0072,0.5809,-6.8232,0.3028,-4.1868,-0.6219
-0.6704,1.7348,-0.4891,0.3239,-1.8999,2.2801,-8.4063,-1.9048,-2.7829,0.9672,0.0072,0.5809,-6.8232,0.3028,-4.1868,-0.6219
-0.6704,1.7348,-0.4891,0.3239,-1.8999,2.2801,-8.4063,-1.9048,-2.7829,0.9672,0.0072,0.5809,-6.8232,0.3028,-4.1868,-0.6219
-0.7104,1.7369,-0.5004,0.3132,-1.9268,2.2839,-8.4414,-1.9077,-2.7829,0.9672,-0.0047,0.5788,-6.8485,0.3189,-4.2281,-0.628
-0.7104,1.7369,-0.5004,0.3132,-1.9268,2.2839,-8.4414,-1.9077,-2.7829,0.9672,-0.0047,0.5788,-6.8485,0.3189,-4.2281,-0.628
-0.7334,1.7331,-0.5038,0.3046,-1.9376,2.2819,-8.4693,-1.9131,-2.7261,0.9311,-0.0049,0.5598,-6.8925,0.3417,-4.2674,-0.6368
-0.7334,1.7331,-0.5038,0.3046,-1.9376,2.2819,-8.4693,-1.9131,-2.7261,0.9311,-0.0049,0.5598,-6.8925,0.3417,-4.2674,-0.6368
-0.7449,1.7311,-0.5241,0.3069,-1.9323,2.2742,-8.4833,-1.9235,-2.6419,0.9014,-0.0167,0.5576,-6.9112,0.3483,-4.2987,-0.6504
-0.7394,1.7232,-0.5534,0.3221,-1.9323,2.2742,-8.4949,-1.9295,-2.6272,0.8801,-0.0286,0.5555,-6.9418,0.3519,-4.3196,-0.6594
-0.7394,1.7232,-0.5534,0.3221,-1.9323,2.2742,-8.4949,-1.9295,-2.6272,0.8801,-0.0286,0.5555,-6.9418,0.3519,-4.3196,-0.6594
-0.7394,1.7232,-0.5534,0.3221,-1.9323,2.2742,-8.4949,-1.9295,-2.6272,0.8801,-0.0286,0.5555,-6.9418,0.3519,-4.3196,-0.6594
-0.7279,1.7251,-0.55,0.3307,-1.9215,2.2762,-8.4926,-1.9329,-2.6272,0.8801,-0.0462,0.5617,-6.9539,0.349,-4.3117,-0.6642
-0.7279,1.7251,-0.55,0.3307,-1.9215,2.2762,-8.4926,-1.9329,-2.6272,0.8801,-0.0462,0.5617,-6.9539,0.349,-4.3117,-0.6642
-0.6879,1.723,-0.5432,0.3479,-1.8892,2.2821,-8.474,-1.9293,-2.6861,0.9652,-0.0344,0.5639,-6.9418,0.3519,-4.2646,-0.6603
-0.6879,1.723,-0.5432,0.3479,-1.8892,2.2821,-8.474,-1.9293,-2.6861,0.9652,-0.0344,0.5639,-6.9418,0.3519,-4.2646,-0.6603
-0.6418,1.7307,-0.5195,0.3543,-1.8406,2.2823,-8.4296,-1.9246,-2.6883,1.0143,-0.0107,0.5682,-6.9178,0.3578,-4.1886,-0.6523
-0.6418,1.7307,-0.5195,0.3543,-1.8406,2.2823,-8.4296,-1.9246,-2.6883,1.0143,-0.0107,0.5682,-6.9178,0.3578,-4.1886,-0.6523
-0.6418,1.7307,-0.5195,0.3543,-1.8406,2.2823,-8.4296,-1.9246,-2.6883,1.0143,-0.0107,0.5682,-6.9178,0.3578,-4.1886,-0.6523
-0.5779,1.7502,-0.4675,0.3605,-1.7701,2.2864,-8.3711,-1.9095,-2.6906,1.0636,0.013,0.5725,-6.875,0.3571,-4.1012,-0.6336
-0.5779,1.7502,-0.4675,0.3605,-1.7701,2.2864,-8.3711,-1.9095,-2.6906,1.0636,0.013,0.5725,-6.875,0.3571,-4.1012,-0.6336
-0.5779,1.7502,-0.4675,0.3605,-1.7701,2.2864,-8.3711,-1.9095,-2.6906,1.0636,0.013,0.5725,-6.875,0.3571,-4.1012,-0.6336
-0.4959,1.7817,-0.3994,0.371,-1.6558,2.2809,-8.2487,-1.8861,-2.608,1.0832,0.0487,0.5789,-6.7824,0.346,-3.9664,-0.5962
-0.4959,1.7817,-0.3994,0.371,-1.6558,2.2809,-8.2487,-1.8861,-2.608,1.0832,0.0487,0.5789,-6.7824,0.346,-3.9664,-0.5962
-0.4959,1.7817,-0.3994,0.371,-1.6558,2.2809,-8.2487,-1.8861,-2.608,1.0832,0.0487,0.5789,-6.7824,0.346,-3.9664,-0.5962
-0.4492,1.7894,-0.3755,0.3773,-1.6122,2.2713,-8.2013,-1.8771,-2.6207,1.0551,0.0665,0.5727,-6.7824,0.346,-3.9282,-0.5847
-0.4492,1.7894,-0.3755,0.3773,-1.6122,2.2713,-8.2013,-1.8771,-2.6207,1.0551,0.0665,0.5727,-6.7824,0.346,-3.9282,-0.5847
-0.4492,1.7894,-0.3755,0.3773,-1.6122,2.2713,-8.2013,-1.8771,-2.6207,1.0551,0.0665,0.5727,-6.7824,0.346,-3.9282,-0.5847
-0.3676,1.7849,-0.3253,0.3596,-1.6553,2.3157,-8.1443,-1.8664,-2.4929,1.01,0.1496,0.5497,-6.7581,0.3519,-3.8795,-0.5747
-0.3676,1.7849,-0.3253,0.3596,-1.6553,2.3157,-8.1443,-1.8664,-2.4929,1.01,0.1496,0.5497,-6.7581,0.3519,-3.8795,-0.5747
-0.3384,1.7807,-0.3128,0.3552,-1.688,2.3272,-8.1347,-1.8646,-2.4502,0.9949,0.138,0.5665,-6.7459,0.3548,-3.8649,-0.5757
-0.3093,1.7764,-0.3048,0.3573,-1.6933,2.3349,-8.1109,-1.8678,-2.4223,1.0013,0.1382,0.5855,-6.7216,0.3607,-3.8503,-0.5767
-0.3093,1.7764,-0.3048,0.3573,-1.6933,2.3349,-8.1109,-1.8678,-2.4223,1.0013,0.1382,0.5855,-6.7216,0.3607,-3.8503,-0.5767
-0.3093,1.7764,-0.3048,0.3573,-1.6933,2.3349,-8.1109,-1.8678,-2.4223,1.0013,0.1382,0.5855,-6.7216,0.3607,-3.8503,-0.5767
-0.3086,1.7945,-0.2968,0.3594,-1.7043,2.333,-8.099,-1.8694,-2.3943,1.0077,0.1443,0.5961,-6.6905,0.3569,-3.8422,-0.5816
-0.3086,1.7945,-0.2968,0.3594,-1.7043,2.333,-8.099,-1.8694,-2.3943,1.0077,0.1443,0.5961,-6.6905,0.3569,-3.8422,-0.5816
-0.3086,1.7945,-0.2968,0.3594,-1.7043,2.333,-8.099,-1.8694,-2.3943,1.0077,0.1443,0.5961,-6.6905,0.3569,-3.8422,-0.5816
-0.3198,1.8106,-0.3093,0.3638,-1.6989,2.3252,-8.0966,-1.8729,-2.3663,1.0141,0.1563,0.5983,-6.6404,0.3465,-3.8426,-0.5877
-0.3198,1.8106,-0.3093,0.3638,-1.6989,2.3252,-8.0966,-1.8729,-2.3663,1.0141,0.1563,0.5983,-6.6404,0.3465,-3.8426,-0.5877
-0.3366,1.8349,-0.3013,0.3659,-1.688,2.3272,-8.1014,-1.8738,-2.3533,1.0421,0.1804,0.6026,-6.5969,0.3456,-3.843,-0.5939
-0.3366,1.8349,-0.3013,0.3659,-1.688,2.3272,-8.1014,-1.8738,-2.3533,1.0421,0.1804,0.6026,-6.5969,0.3456,-3.843,-0.5939
-0.3366,1.8349,-0.3013,0.3659,-1.688,2.3272,-8.1014,-1.8738,-2.3533,1.0421,0.1804,0.6026,-6.5969,0.3456,-3.843,-0.5939
-0.3597,1.8491,-0.3219,0.3683,-1.6772,2.3117,-8.1371,-1.8766,-2.3533,1.0421,0.1921,0.5857,-6.5333,0.3159,-3.8668,-0.6063
-0.3597,1.8491,-0.3219,0.3683,-1.6772,2.3117,-8.1371,-1.8766,-2.3533,1.0421,0.1921,0.5857,-6.5333,0.3159,-3.8668,-0.6063
-0.3658,1.8391,-0.3173,0.3617,-1.6882,2.3098,-8.1586,-1.8768,-2.3963,1.0573,0.21,0.5793,-6.5333,0.3159,-3.8795,-0.6081
-0.3658,1.8391,-0.3173,0.3617,-1.6882,2.3098,-8.1586,-1.8768,-2.3963,1.0573,0.21,0.5793,-6.5333,0.3159,-3.8795,-0.6081
-0.3894,1.8352,-0.3208,0.3531,-1.6938,2.3001,-8.1942,-1.8719,-2.4672,1.066,0.2159,0.5709,-6.5646,0.3197,-3.8964,-0.6105
-0.3894,1.8352,-0.3208,0.3531,-1.6938,2.3001,-8.1942,-1.8719,-2.4672,1.066,0.2159,0.5709,-6.5646,0.3197,-3.8964,-0.6105
-0.3894,1.8352,-0.3208,0.3531,-1.6938,2.3001,-8.1942,-1.8719,-2.4672,1.066,0.2159,0.5709,-6.5646,0.3197,-3.8964,-0.6105
-0.4073,1.8232,-0.3117,0.34,-1.7156,2.2962,-8.2203,-1.873,-2.495,1.0595,0.198,0.5772,-6.5892,0.3139,-3.9132,-0.6129
-0.4073,1.8232,-0.3117,0.34,-1.7156,2.2962,-8.2203,-1.873,-2.495,1.0595,0.198,0.5772,-6.5892,0.3139,-3.9132,-0.6129
-0.4073,1.8232,-0.3117,0.34,-1.7156,2.2962,-8.2203,-1.873,-2.495,1.0595,0.198,0.5772,-6.5892,0.3139,-3.9132,-0.6129
-0.4364,1.8274,-0.2901,0.3225,-1.7103,2.2885,-8.2558,-1.8836,-2.5654,1.0681,0.1739,0.5729,-6.6782,0.3599,-3.945,-0.6204
-0.4364,1.8274,-0.2901,0.3225,-1.7103,2.2885,-8.2558,-1.8836,-2.5654,1.0681,0.1739,0.5729,-6.6782,0.3599,-3.945,-0.6204
-0.419,1.8213,-0.2901,0.3225,-1.721,2.3039,-8.2652,-1.8931,-2.5228,1.0531,0.1739,0.5729,-6.7293,0.3924,-3.966,-0.6233
-0.419,1.8213,-0.2901,0.3225,-1.721,2.3039,-8.2652,-1.8931,-2.5228,1.0531,0.1739,0.5729,-6.7293,0.3924,-3.966,-0.6233
-0.4073,1.8232,-0.2901,0.3225,-1.7154,2.3136,-8.2747,-1.9026,-2.4522,1.0444,0.1502,0.5877,-6.736,0.402,-3.9869,-0.6263
-0.4073,1.8232,-0.2901,0.3225,-1.7154,2.3136,-8.2747,-1.9026,-2.4522,1.0444,0.1502,0.5877,-6.736,0.402,-3.9869,-0.6263
-0.4073,1.8232,-0.2901,0.3225,-1.7154,2.3136,-8.2747,-1.9026,-2.4522,1.0444,0.1502,0.5877,-6.736,0.402,-3.9869,-0.6263
-0.3956,1.8252,-0.3197,0.3379,-1.7045,2.3155,-8.2912,-1.9096,-2.3233,0.9989,0.1324,0.594,-6.7482,0.3991,-4.0162,-0.6305
-0.3956,1.8252,-0.3197,0.3379,-1.7045,2.3155,-8.2912,-1.9096,-2.3233,0.9989,0.1324,0.594,-6.7482,0.3991,-4.0162,-0.6305
-0.3782,1.8191,-0.3368,0.3489,-1.7098,2.3233,-8.3124,-1.9175,-2.222,0.9468,0.1087,0.6088,-6.7604,0.3961,-4.0496,-0.6353
-0.3782,1.8191,-0.3368,0.3489,-1.7098,2.3233,-8.3124,-1.9175,-2.222,0.9468,0.1087,0.6088,-6.7604,0.3961,-4.0496,-0.6353
-0.3782,1.8191,-0.3368,0.3489,-1.7098,2.3233,-8.3124,-1.9175,-2.222,0.9468,0.1087,0.6088,-6.7604,0.3961,-4.0496,-0.6353
-0.3782,1.8191,-0.3664,0.3642,-1.7098,2.3233,-8.3359,-1.922,-2.1205,0.8946,0.0789,0.6129,-6.7659,0.3836,-4.075,-0.6449
-0.3782,1.8191,-0.3664,0.3642,-1.7098,2.3233,-8.3359,-1.922,-2.1205,0.8946,0.0789,0.6129,-6.7659,0.3836,-4.075,-0.6449
-0.3844,1.8091,-0.4039,0.3775,-1.7208,2.3213,-8.3805,-1.9343,-2.0186,0.8424,0.067,0.6107,-6.7647,0.3615,-4.1336,-0.6593
-0.3844,1.8091,-0.4039,0.3775,-1.7208,2.3213,-8.3805,-1.9343,-2.0186,0.8424,0.067,0.6107,-6.7647,0.3615,-4.1336,-0.6593
-0.4134,1.8132,-0.4289,0.3863,-1.7317,2.3193,-8.4109,-1.9363,-2.0621,0.8578,0.055,0.6086,-6.7703,0.349,-4.1569,-0.6717
-0.4134,1.8132,-0.4289,0.3863,-1.7317,2.3193,-8.4109,-1.9363,-2.0621,0.8578,0.055,0.6086,-6.7703,0.349,-4.1569,-0.6717
-0.4134,1.8132,-0.4289,0.3863,-1.7317,2.3193,-8.4109,-1.9363,-2.0621,0.8578,0.055,0.6086,-6.7703,0.349,-4.1569,-0.6717
-0.4425,1.8174,-0.4494,0.3886,-1.7263,2.3116,-8.432,-1.9441,-2.134,0.867,0.049,0.598,-6.7758,0.3365,-4.176,-0.6834
-0.4425,1.8174,-0.4494,0.3886,-1.7263,2.3116,-8.432,-1.9441,-2.134,0.867,0.049,0.598,-6.7758,0.3365,-4.176,-0.6834
-0.4425,1.8174,-0.4494,0.3886,-1.7263,2.3116,-8.432,-1.9441,-2.134,0.867,0.049,0.598,-6.7758,0.3365,-4.176,-0.6834
-0.4486,1.8074,-0.4698,0.3909,-1.721,2.3039,-8.4646,-1.958,-2.3776,0.9368,0.0368,0.5768,-6.7813,0.324,-4.2161,-0.7042
-0.4486,1.8074,-0.4698,0.3909,-1.721,2.3039,-8.4646,-1.958,-2.3776,0.9368,0.0368,0.5768,-6.7813,0.324,-4.2161,-0.7042
-0.4603,1.8055,-0.4811,0.3801,-1.7319,2.3019,-8.4855,-1.9659,-2.478,0.9885,0.0249,0.5746,-6.7935,0.3211,-4.2352,-0.7159
-0.4603,1.8055,-0.4811,0.3801,-1.7319,2.3019,-8.4855,-1.9659,-2.478,0.9885,0.0249,0.5746,-6.7935,0.3211,-4.2352,-0.7159
-0.4893,1.8097,-0.4924,0.3693,-1.7156,2.2962,-8.5064,-1.9737,-2.5931,1.0616,0.0189,0.5641,-6.7869,0.3115,-4.2621,-0.7227
-0.4893,1.8097,-0.4924,0.3693,-1.7156,2.2962,-8.5064,-1.9737,-2.5931,1.0616,0.0189,0.5641,-6.7869,0.3115,-4.2621,-0.7227
-0.4893,1.8097,-0.4924,0.3693,-1.7156,2.2962,-8.5064,-1.9737,-2.5931,1.0616,0.0189,0.5641,-6.7869,0.3115,-4.2621,-0.7227
-0.5471,1.8179,-0.5398,0.3566,-1.7159,2.2788,-8.5644,-1.9811,-2.7478,1.1001,-0.0462,0.5617,-6.8232,0.3028,-4.3534,-0.7211
-0.5471,1.8179,-0.5398,0.3566,-1.7159,2.2788,-8.5644,-1.9811,-2.7478,1.1001,-0.0462,0.5617,-6.8232,0.3028,-4.3534,-0.7211
-0.5471,1.8179,-0.5398,0.3566,-1.7159,2.2788,-8.5644,-1.9811,-2.7478,1.1001,-0.0462,0.5617,-6.8232,0.3028,-4.3534,-0.7211
-0.5875,1.8201,-0.559,0.3437,-1.7377,2.2749,-8.5921,-1.9864,-2.7876,1.0655,-0.0346,0.545,-6.8914,0.3197,-4.4039,-0.7196
-0.5875,1.8201,-0.559,0.3437,-1.7377,2.2749,-8.5921,-1.9864,-2.7876,1.0655,-0.0346,0.545,-6.8914,0.3197,-4.4039,-0.7196
-0.5875,1.8201,-0.559,0.3437,-1.7377,2.2749,-8.5921,-1.9864,-2.7876,1.0655,-0.0346,0.545,-6.8914,0.3197,-4.4039,-0.7196
-0.5875,1.8201,-0.559,0.3437,-1.7377,2.2749,-8.5921,-1.9864,-2.7876,1.0655,-0.0346,0.545,-6.8914,0.3197,-4.4039,-0.7196
-0.5875,1.8201,-0.559,0.3437,-1.7377,2.2749,-8.5921,-1.9864,-2.7876,1.0655,-0.0346,0.545,-6.8914,0.3197,-4.4039,-0.7196
-0.5819,1.8121,-0.5657,0.3265,-1.7808,2.3018,-8.6336,-1.9945,-2.8962,1.0394,-0.0467,0.5239,-6.9527,0.327,-4.481,-0.7309
-0.5819,1.8121,-0.5657,0.3265,-1.7808,2.3018,-8.6336,-1.9945,-2.8962,1.0394,-0.0467,0.5239,-6.9527,0.327,-4.481,-0.7309
-0.5536,1.79,-0.5815,0.3223,-1.797,2.3075,-8.6566,-1.999,-2.8667,0.9968,-0.0761,0.528,-6.9833,0.3307,-4.5136,-0.7417
-0.5653,1.788,-0.5972,0.318,-1.8241,2.3113,-8.6703,-2.0092,-2.8667,0.9968,-0.0995,0.5426,-6.9952,0.3277,-4.5422,-0.7519
-0.5653,1.788,-0.5972,0.318,-1.8241,2.3113,-8.6703,-2.0092,-2.8667,0.9968,-0.0995,0.5426,-6.9952,0.3277,-4.5422,-0.7519
-0.5996,1.8002,-0.6174,0.3203,-1.8511,2.315,-8.684,-2.0194,-2.8938,0.9903,-0.1346,0.555,-7.0006,0.3153,-4.5788,-0.7632
-0.5996,1.8002,-0.6174,0.3203,-1.8511,2.315,-8.684,-2.0194,-2.8938,0.9903,-0.1346,0.555,-7.0006,0.3153,-4.5788,-0.7632
-0.5996,1.8002,-0.6174,0.3203,-1.8511,2.315,-8.684,-2.0194,-2.8938,0.9903,-0.1346,0.555,-7.0006,0.3153,-4.5788,-0.7632
-0.6338,1.8123,-0.6577,0.3248,-1.8566,2.3053,-8.7046,-2.0272,-2.8791,0.9691,-0.1639,0.559,-6.9875,0.2963,-4.6189,-0.7692
-0.6625,1.8163,-0.6778,0.327,-1.8621,2.2957,-8.7344,-2.0292,-2.8938,0.9903,-0.1932,0.5631,-6.9438,0.2738,-4.6549,-0.7746
-0.6625,1.8163,-0.6778,0.327,-1.8621,2.2957,-8.7344,-2.0292,-2.8938,0.9903,-0.1932,0.5631,-6.9438,0.2738,-4.6549,-0.7746
-0.7027,1.8184,-0.6811,0.3184,-1.8675,2.286,-8.7641,-2.0238,-2.8791,0.9691,-0.2166,0.5587,-6.9372,0.2643,-4.6749,-0.7776
-0.7027,1.8184,-0.6811,0.3184,-1.8675,2.286,-8.7641,-2.0238,-2.8791,0.9691,-0.2166,0.5587,-6.9372,0.2643,-4.6749,-0.7776
-0.7086,1.8085,-0.6722,0.3055,-1.8945,2.2898,-8.7755,-2.0222,-2.8791,0.9691,-0.205,0.5421,-6.9438,0.2738,-4.6608,-0.7725
-0.7086,1.8085,-0.6722,0.3055,-1.8945,2.2898,-8.7755,-2.0222,-2.8791,0.9691,-0.205,0.5421,-6.9438,0.2738,-4.6608,-0.7725
-0.6685,1.8064,-0.6319,0.301,-1.8567,2.288,-8.7573,-2.0186,-2.8101,0.9608,-0.1816,0.5464,-6.9515,0.3051,-4.6084,-0.7588
-0.6685,1.8064,-0.6319,0.301,-1.8567,2.288,-8.7573,-2.0186,-2.8101,0.9608,-0.1816,0.5464,-6.9515,0.3051,-4.6084,-0.7588
-0.5935,1.8101,-0.5803,0.3072,-1.8187,2.3036,-8.7116,-2.0097,-2.7409,0.9524,-0.1523,0.5423,-6.9407,0.33,-4.5258,-0.7435
-0.5935,1.8101,-0.5803,0.3072,-1.8187,2.3036,-8.7116,-2.0097,-2.7409,0.9524,-0.1523,0.5423,-6.9407,0.33,-4.5258,-0.7435
-0.5299,1.8119,-0.5534,0.3221,-1.7753,2.3114,-8.6496,-2.0014,-2.6439,0.9502,-0.1288,0.5467,-6.9046,0.3387,-4.4404,-0.7249
-0.5299,1.8119,-0.5534,0.3221,-1.7753,2.3114,-8.6496,-2.0014,-2.6439,0.9502,-0.1288,0.5467,-6.9046,0.3387,-4.4404,-0.7249
-0.5299,1.8119,-0.5534,0.3221,-1.7753,2.3114,-8.6496,-2.0014,-2.6439,0.9502,-0.1288,0.5467,-6.9046,0.3387,-4.4404,-0.7249
-0.4598,1.8235,-0.5184,0.3392,-1.7154,2.3136,-8.5921,-1.994,-2.5612,0.9694,-0.0935,0.5531,-6.8871,0.3542,-4.3549,-0.7124
-0.4598,1.8235,-0.5184,0.3392,-1.7154,2.3136,-8.5921,-1.994,-2.5612,0.9694,-0.0935,0.5531,-6.8871,0.3542,-4.3549,-0.7124
-0.4598,1.8235,-0.5184,0.3392,-1.7154,2.3136,-8.5921,-1.994,-2.5612,0.9694,-0.0935,0.5531,-6.8871,0.3542,-4.3549,-0.7124
-0.4598,1.8235,-0.5184,0.3392,-1.7154,2.3136,-8.5921,-1.994,-2.5612,0.9694,-0.0935,0.5531,-6.8871,0.3542,-4.3549,-0.7124
-0.4062,1.8595,-0.4845,0.3714,-1.6553,2.3157,-8.4971,-1.9871,-2.4929,1.01,-0.0639,0.568,-6.8629,0.36,-4.2218,-0.696
-0.4062,1.8595,-0.4845,0.3714,-1.6553,2.3157,-8.4971,-1.9871,-2.4929,1.01,-0.0639,0.568,-6.8629,0.36,-4.2218,-0.696
-0.4062,1.8595,-0.4845,0.3714,-1.6553,2.3157,-8.4971,-1.9871,-2.4929,1.01,-0.0639,0.568,-6.8629,0.36,-4.2218,-0.696
-0.4062,1.8595,-0.4845,0.3714,-1.6553,2.3157,-8.4971,-1.9871,-2.4929,1.01,-0.0639,0.568,-6.8629,0.36,-4.2218,-0.696
-0.3821,1.8815,-0.4562,0.3713,-1.5843,2.3022,-8.4529,-1.9825,-2.5804,1.0897,-0.0462,0.5617,-6.8376,0.3439,-4.158,-0.6898
-0.3821,1.8815,-0.4562,0.3713,-1.5843,2.3022,-8.4529,-1.9825,-2.5804,1.0897,-0.0462,0.5617,-6.8376,0.3439,-4.158,-0.6898
-0.3821,1.8815,-0.4562,0.3713,-1.5843,2.3022,-8.4529,-1.9825,-2.5804,1.0897,-0.0462,0.5617,-6.8376,0.3439,-4.158,-0.6898
-0.3878,1.8897,-0.4267,0.3559,-1.5515,2.2907,-8.4413,-1.9764,-2.6632,1.0701,-0.023,0.5282,-6.8485,0.3189,-4.1674,-0.6762
-0.3878,1.8897,-0.4267,0.3559,-1.5515,2.2907,-8.4413,-1.9764,-2.6632,1.0701,-0.023,0.5282,-6.8485,0.3189,-4.1674,-0.6762
-0.3878,1.8897,-0.4267,0.3559,-1.5515,2.2907,-8.4413,-1.9764,-2.6632,1.0701,-0.023,0.5282,-6.8485,0.3189,-4.1674,-0.6762
-0.3704,1.8835,-0.4222,0.3494,-1.5786,2.3119,-8.4459,-1.9773,-2.7329,1.0786,0.0005,0.5136,-6.8606,0.316,-4.1817,-0.6753
-0.3704,1.8835,-0.4222,0.3494,-1.5786,2.3119,-8.4459,-1.9773,-2.7329,1.0786,0.0005,0.5136,-6.8606,0.316,-4.1817,-0.6753
-0.3704,1.8835,-0.4222,0.3494,-1.5786,2.3119,-8.4459,-1.9773,-2.7329,1.0786,0.0005,0.5136,-6.8606,0.316,-4.1817,-0.6753
-0.3473,1.8692,-0.4516,0.3648,-1.6439,2.3525,-8.4716,-1.9784,-2.6632,1.0701,0.0065,0.5241,-6.8364,0.3219,-4.1986,-0.6837
-0.3473,1.8692,-0.4516,0.3648,-1.6439,2.3525,-8.4716,-1.9784,-2.6632,1.0701,0.0065,0.5241,-6.8364,0.3219,-4.1986,-0.6837
-0.3243,1.855,-0.4641,0.3692,-1.6656,2.3661,-8.4855,-1.9811,-2.6207,1.0551,-0.0051,0.5409,-6.8243,0.3248,-4.2091,-0.6882
-0.2894,1.8426,-0.4641,0.3692,-1.6656,2.3661,-8.4925,-1.9862,-2.5633,1.0186,-0.0167,0.5576,-6.8243,0.3248,-4.2214,-0.69
-0.2894,1.8426,-0.4641,0.3692,-1.6656,2.3661,-8.4925,-1.9862,-2.5633,1.0186,-0.0167,0.5576,-6.8243,0.3248,-4.2214,-0.69
-0.2894,1.8426,-0.4641,0.3692,-1.6656,2.3661,-8.4925,-1.9862,-2.5633,1.0186,-0.0167,0.5576,-6.8243,0.3248,-4.2214,-0.69
-0.2488,1.8222,-0.4641,0.3692,-1.6548,2.3506,-8.4948,-1.9905,-2.5356,1.0251,-0.0165,0.5766,-6.8122,0.3277,-4.2334,-0.6857
-0.2488,1.8222,-0.4641,0.3692,-1.6548,2.3506,-8.4948,-1.9905,-2.5356,1.0251,-0.0165,0.5766,-6.8122,0.3277,-4.2334,-0.6857
-0.2488,1.8222,-0.4641,0.3692,-1.6548,2.3506,-8.4948,-1.9905,-2.5356,1.0251,-0.0165,0.5766,-6.8122,0.3277,-4.2334,-0.6857
-0.2432,1.8141,-0.4766,0.3736,-1.6495,2.3428,-8.4971,-1.9947,-2.5356,1.0251,-0.0459,0.5997,-6.8309,0.3343,-4.2357,-0.689
-0.2432,1.8141,-0.472,0.367,-1.6441,2.3351,-8.4971,-2.0023,-2.5356,1.0251,-0.0576,0.6165,-6.8243,0.3248,-4.2458,-0.6875
-0.2432,1.8141,-0.472,0.367,-1.6441,2.3351,-8.4971,-2.0023,-2.5356,1.0251,-0.0576,0.6165,-6.8243,0.3248,-4.2458,-0.6875
-0.2488,1.8222,-0.4641,0.3692,-1.6114,2.3235,-8.4948,-2.0057,-2.5356,1.0251,-0.0634,0.6249,-6.8243,0.3248,-4.254,-0.6887
-0.2488,1.8222,-0.4641,0.3692,-1.6114,2.3235,-8.4948,-2.0057,-2.5356,1.0251,-0.0634,0.6249,-6.8243,0.3248,-4.254,-0.6887
-0.2663,1.8284,-0.4675,0.3605,-1.606,2.3158,-8.4925,-2.0166,-2.5078,1.0315,-0.0634,0.6249,-6.8243,0.3248,-4.2562,-0.692
-0.2663,1.8284,-0.4675,0.3605,-1.606,2.3158,-8.4925,-2.0166,-2.5078,1.0315,-0.0634,0.6249,-6.8243,0.3248,-4.2562,-0.692
-0.3012,1.8407,-0.4834,0.3563,-1.6006,2.308,-8.4878,-2.0308,-2.4929,1.01,-0.0752,0.6227,-6.8177,0.3153,-4.2708,-0.6971
-0.3012,1.8407,-0.4834,0.3563,-1.6006,2.308,-8.4878,-2.0308,-2.4929,1.01,-0.0752,0.6227,-6.8177,0.3153,-4.2708,-0.6971
-0.3361,1.853,-0.5037,0.3586,-1.5953,2.3003,-8.5041,-2.0377,-2.5633,1.0186,-0.0872,0.6016,-6.8045,0.2962,-4.2935,-0.7034
-0.3883,1.8715,-0.5274,0.3522,-1.6009,2.2906,-8.5412,-2.0372,-2.5633,1.0186,-0.0932,0.591,-6.7792,0.2801,-4.3163,-0.7097
-0.3883,1.8715,-0.5274,0.3522,-1.6009,2.2906,-8.5412,-2.0372,-2.5633,1.0186,-0.0932,0.591,-6.7792,0.2801,-4.3163,-0.7097
-0.3883,1.8715,-0.5274,0.3522,-1.6009,2.2906,-8.5412,-2.0372,-2.5633,1.0186,-0.0932,0.591,-6.7792,0.2801,-4.3163,-0.7097
-0.4174,1.8757,-0.5432,0.3479,-1.6119,2.2887,-8.5758,-2.0325,-2.6758,1.0422,-0.1403,0.5823,-6.7847,0.2677,-4.3531,-0.7151
-0.4174,1.8757,-0.5432,0.3479,-1.6119,2.2887,-8.5758,-2.0325,-2.6758,1.0422,-0.1403,0.5823,-6.7847,0.2677,-4.3531,-0.7151
-0.4409,1.8717,-0.5714,0.3481,-1.6392,2.2925,-8.615,-2.0287,-2.6883,1.0143,-0.158,0.5696,-6.7903,0.2553,-4.3857,-0.7199
-0.4409,1.8717,-0.5714,0.3481,-1.6392,2.2925,-8.615,-2.0287,-2.6883,1.0143,-0.158,0.5696,-6.7903,0.2553,-4.3857,-0.7199
-0.4409,1.8717,-0.5714,0.3481,-1.6392,2.2925,-8.615,-2.0287,-2.6883,1.0143,-0.158,0.5696,-6.7903,0.2553,-4.3857,-0.7199
-0.4761,1.8658,-0.5826,0.3373,-1.6775,2.2944,-8.6565,-2.0216,-2.7306,1.0292,-0.1639,0.559,-6.8024,0.2524,-4.4161,-0.7213
-0.4761,1.8658,-0.5826,0.3373,-1.6775,2.2944,-8.6565,-2.0216,-2.7306,1.0292,-0.1639,0.559,-6.8024,0.2524,-4.4161,-0.7213
-0.4761,1.8658,-0.5826,0.3373,-1.6775,2.2944,-8.6565,-2.0216,-2.7306,1.0292,-0.1639,0.559,-6.8024,0.2524,-4.4161,-0.7213
-0.5461,1.854,-0.5803,0.3072,-1.7319,2.3019,-8.7184,-2.0299,-2.7727,1.0441,-0.1523,0.5423,-6.8716,0.2912,-4.4629,-0.7312
-0.5461,1.854,-0.5803,0.3072,-1.7319,2.3019,-8.7184,-2.0299,-2.7727,1.0441,-0.1523,0.5423,-6.8716,0.2912,-4.4629,-0.7312
-0.5461,1.854,-0.5803,0.3072,-1.7319,2.3019,-8.7184,-2.0299,-2.7727,1.0441,-0.1523,0.5423,-6.8716,0.2912,-4.4629,-0.7312
-0.5577,1.8521,-0.5882,0.3051,-1.7319,2.3019,-8.7298,-2.0359,-2.6883,1.0143,-0.1523,0.5423,-6.9034,0.3168,-4.4813,-0.7369
-0.5577,1.8521,-0.5882,0.3051,-1.7319,2.3019,-8.7298,-2.0359,-2.6883,1.0143,-0.1523,0.5423,-6.9034,0.3168,-4.4813,-0.7369
-0.5577,1.8521,-0.5882,0.3051,-1.7319,2.3019,-8.7298,-2.0359,-2.6883,1.0143,-0.1523,0.5423,-6.9034,0.3168,-4.4813,-0.7369
-0.5577,1.8521,-0.5882,0.3051,-1.7319,2.3019,-8.7298,-2.0359,-2.6883,1.0143,-0.1523,0.5423,-6.9034,0.3168,-4.4813,-0.7369
-0.5466,1.836,-0.6174,0.3203,-1.7265,2.2942,-8.7389,-2.0527,-2.5316,0.9266,-0.1758,0.538,-6.9527,0.327,-4.5301,-0.7501
-0.5466,1.836,-0.6174,0.3203,-1.7265,2.2942,-8.7389,-2.0527,-2.5316,0.9266,-0.1758,0.538,-6.9527,0.327,-4.5301,-0.7501
-0.5526,1.826,-0.6465,0.3355,-1.7212,2.2865,-8.7502,-2.0587,-2.5592,0.9203,-0.1875,0.5359,-6.9767,0.3212,-4.5466,-0.7584
-0.5526,1.826,-0.6465,0.3355,-1.7212,2.2865,-8.7502,-2.0587,-2.5592,0.9203,-0.1875,0.5359,-6.9767,0.3212,-4.5466,-0.7584
-0.5643,1.824,-0.6543,0.3333,-1.7484,2.2903,-8.7616,-2.0647,-2.646,0.9993,-0.1875,0.5359,-6.9886,0.3182,-4.5648,-0.7641
-0.5643,1.824,-0.6543,0.3333,-1.7484,2.2903,-8.7616,-2.0647,-2.646,0.9993,-0.1875,0.5359,-6.9886,0.3182,-4.5648,-0.7641
-0.5643,1.824,-0.6543,0.3333,-1.7484,2.2903,-8.7616,-2.0647,-2.646,0.9993,-0.1875,0.5359,-6.9886,0.3182,-4.5648,-0.7641
-0.5931,1.8281,-0.6946,0.3378,-1.7215,2.2692,-8.8026,-2.0651,-2.8173,1.1084,-0.2459,0.5439,-6.9875,0.2963,-4.6133,-0.7772
-0.5931,1.8281,-0.6946,0.3378,-1.7215,2.2692,-8.8026,-2.0651,-2.8173,1.1084,-0.2459,0.5439,-6.9875,0.2963,-4.6133,-0.7772
-0.6218,1.8322,-0.7057,0.3271,-1.7161,2.2615,-8.8299,-2.063,-2.8471,1.1514,-0.2633,0.5501,-6.9875,0.2963,-4.6472,-0.7793
-0.6218,1.8322,-0.7057,0.3271,-1.7161,2.2615,-8.8299,-2.063,-2.8471,1.1514,-0.2633,0.5501,-6.9875,0.2963,-4.6472,-0.7793
-0.645,1.8283,-0.7413,0.325,-1.7217,2.2519,-8.8549,-2.0641,-2.8743,1.1447,-0.2866,0.5457,-6.9994,0.2934,-4.6851,-0.7821
-0.645,1.8283,-0.7413,0.325,-1.7217,2.2519,-8.8549,-2.0641,-2.8743,1.1447,-0.2866,0.5457,-6.9994,0.2934,-4.6851,-0.7821
-0.645,1.8283,-0.7413,0.325,-1.7217,2.2519,-8.8549,-2.0641,-2.8743,1.1447,-0.2866,0.5457,-6.9994,0.2934,-4.6851,-0.7821
-0.6681,1.8244,-0.7569,0.3208,-1.7111,2.2365,-8.8798,-2.0653,-2.9136,1.11,-0.3099,0.5414,-7.0234,0.2876,-4.7304,-0.7801
-0.6681,1.8244,-0.7569,0.3208,-1.7111,2.2365,-8.8798,-2.0653,-2.9136,1.11,-0.3099,0.5414,-7.0234,0.2876,-4.7304,-0.7801
-0.6681,1.8244,-0.7569,0.3208,-1.7111,2.2365,-8.8798,-2.0653,-2.9136,1.11,-0.3099,0.5414,-7.0234,0.2876,-4.7304,-0.7801
-0.7257,1.8145,-0.7957,0.3102,-1.76,2.2365,-8.9182,-2.0766,-2.9625,0.9986,-0.3101,0.5038,-7.0764,0.2636,-4.8172,-0.7815
-0.7257,1.8145,-0.7957,0.3102,-1.76,2.2365,-8.9182,-2.0766,-2.9625,0.9986,-0.3101,0.5038,-7.0764,0.2636,-4.8172,-0.7815
-0.7542,1.8186,-0.7912,0.3038,-1.7923,2.2479,-8.9317,-2.0793,-3.043,0.9791,-0.2929,0.479,-7.112,0.2549,-4.8446,-0.7799
-0.7542,1.8186,-0.7912,0.3038,-1.7923,2.2479,-8.9317,-2.0793,-3.043,0.9791,-0.2929,0.479,-7.112,0.2549,-4.8446,-0.7799
-0.7542,1.8186,-0.7835,0.3059,-1.8191,2.2689,-8.9249,-2.0817,-3.0551,0.9516,-0.2698,0.4646,-7.1055,0.2454,-4.8288,-0.7774
-0.7542,1.8186,-0.7835,0.3059,-1.8191,2.2689,-8.9249,-2.0817,-3.0551,0.9516,-0.2698,0.4646,-7.1055,0.2454,-4.8288,-0.7774
-0.7542,1.8186,-0.7835,0.3059,-1.8191,2.2689,-8.9249,-2.0817,-3.0551,0.9516,-0.2698,0.4646,-7.1055,0.2454,-4.8288,-0.7774
-0.7257,1.8145,-0.7757,0.308,-1.8297,2.2843,-8.9001,-2.0805,-2.9869,0.9434,-0.2059,0.4483,-7.1067,0.2672,-4.7712,-0.7657
-0.7257,1.8145,-0.7757,0.308,-1.8297,2.2843,-8.9001,-2.0805,-2.9869,0.9434,-0.2059,0.4483,-7.1067,0.2672,-4.7712,-0.7657
-0.7257,1.8145,-0.7757,0.308,-1.8297,2.2843,-8.9001,-2.0805,-2.9869,0.9434,-0.2059,0.4483,-7.1067,0.2672,-4.7712,-0.7657
-0.5592,1.798,-0.6889,0.3163,-1.7806,2.3191,-8.7913,-2.0592,-2.8101,0.9608,-0.1879,0.4983,-7.0234,0.2876,-4.5893,-0.7352
-0.5592,1.798,-0.6889,0.3163,-1.7806,2.3191,-8.7913,-2.0592,-2.8101,0.9608,-0.1879,0.4983,-7.0234,0.2876,-4.5893,-0.7352
-0.4893,1.8097,-0.6499,0.3269,-1.737,2.327,-8.7206,-2.0492,-2.7431,1.0014,-0.1758,0.538,-6.9821,0.3087,-4.4866,-0.7229
-0.4893,1.8097,-0.6499,0.3269,-1.737,2.327,-8.7206,-2.0492,-2.7431,1.0014,-0.1758,0.538,-6.9821,0.3087,-4.4866,-0.7229
-0.4893,1.8097,-0.6499,0.3269,-1.737,2.327,-8.7206,-2.0492,-2.7431,1.0014,-0.1758,0.538,-6.9821,0.3087,-4.4866,-0.7229
-0.4358,1.8455,-0.6028,0.3396,-1.7098,2.3233,-8.615,-2.0363,-2.7055,1.0851,-0.1755,0.5758,-6.9034,0.3168,-4.3524,-0.7031
-0.4358,1.8455,-0.6028,0.3396,-1.7098,2.3233,-8.615,-2.0363,-2.7055,1.0851,-0.1755,0.5758,-6.9034,0.3168,-4.3524,-0.7031
-0.4358,1.8455,-0.6028,0.3396,-1.7098,2.3233,-8.615,-2.0363,-2.7055,1.0851,-0.1755,0.5758,-6.9034,0.3168,-4.3524,-0.7031
-0.4292,1.8737,-0.5871,0.3438,-1.6772,2.3117,-8.5781,-2.0292,-2.6506,1.0982,-0.1462,0.5718,-6.8419,0.3094,-4.3115,-0.6971
-0.4292,1.8737,-0.5871,0.3438,-1.6772,2.3117,-8.5781,-2.0292,-2.6506,1.0982,-0.1462,0.5718,-6.8419,0.3094,-4.3115,-0.6971
-0.4292,1.8737,-0.5871,0.3438,-1.6772,2.3117,-8.5781,-2.0292,-2.6506,1.0982,-0.1462,0.5718,-6.8419,0.3094,-4.3115,-0.6971
-0.4404,1.8899,-0.5916,0.3503,-1.6609,2.306,-8.562,-2.0223,-2.638,1.1264,-0.1345,0.5739,-6.7615,0.2954,-4.2828,-0.6929
-0.4404,1.8899,-0.5916,0.3503,-1.6609,2.306,-8.562,-2.0223,-2.638,1.1264,-0.1345,0.5739,-6.7615,0.2954,-4.2828,-0.6929
-0.4404,1.8899,-0.5792,0.3459,-1.6556,2.2983,-8.5597,-2.0105,-2.5954,1.1113,-0.1111,0.5593,-6.6863,0.2688,-4.2723,-0.6884
-0.4465,1.8798,-0.5747,0.3395,-1.6665,2.2963,-8.555,-2.0096,-2.5677,1.1179,-0.0699,0.5574,-6.6364,0.2584,-4.266,-0.6845
-0.4465,1.8798,-0.5747,0.3395,-1.6665,2.2963,-8.555,-2.0096,-2.5677,1.1179,-0.0699,0.5574,-6.6364,0.2584,-4.266,-0.6845
-0.4817,1.8739,-0.5781,0.3309,-1.6831,2.2847,-8.5759,-2.0023,-2.5804,1.0897,-0.0641,0.549,-6.642,0.246,-4.2761,-0.683
-0.4994,1.8619,-0.5691,0.3179,-1.6943,2.2654,-8.5897,-2.0049,-2.608,1.0832,-0.0759,0.5469,-6.6797,0.2593,-4.2925,-0.6854
-0.4994,1.8619,-0.5691,0.3179,-1.6943,2.2654,-8.5897,-2.0049,-2.608,1.0832,-0.0759,0.5469,-6.6797,0.2593,-4.2925,-0.6854
-0.4994,1.8619,-0.5691,0.3179,-1.6943,2.2654,-8.5897,-2.0049,-2.608,1.0832,-0.0759,0.5469,-6.6797,0.2593,-4.2925,-0.6854
-0.4999,1.8438,-0.5601,0.3049,-1.7161,2.2615,-8.5966,-2.0101,-2.6356,1.0767,-0.0877,0.5447,-6.7427,0.2888,-4.3089,-0.6878
-0.4999,1.8438,-0.5601,0.3049,-1.7161,2.2615,-8.5966,-2.0101,-2.6356,1.0767,-0.0877,0.5447,-6.7427,0.2888,-4.3089,-0.6878
-0.4999,1.8438,-0.5601,0.3049,-1.7161,2.2615,-8.5966,-2.0101,-2.6356,1.0767,-0.0877,0.5447,-6.7427,0.2888,-4.3089,-0.6878
-0.506,1.8338,-0.5477,0.3006,-1.7324,2.2673,-8.6058,-2.0118,-2.6207,1.0551,-0.0877,0.5447,-6.8001,0.3306,-4.3152,-0.6917
-0.506,1.8338,-0.5477,0.3006,-1.7324,2.2673,-8.6058,-2.0118,-2.6207,1.0551,-0.0877,0.5447,-6.8001,0.3306,-4.3152,-0.6917
-0.506,1.8338,-0.5477,0.3006,-1.7324,2.2673,-8.6058,-2.0118,-2.6207,1.0551,-0.0877,0.5447,-6.8001,0.3306,-4.3152,-0.6917
-0.4771,1.8296,-0.5657,0.3265,-1.743,2.2826,-8.6174,-2.0103,-2.5207,1.0036,-0.1227,0.5761,-6.8762,0.3791,-4.3335,-0.6914
-0.4771,1.8296,-0.5657,0.3265,-1.743,2.2826,-8.6174,-2.0103,-2.5207,1.0036,-0.1227,0.5761,-6.8762,0.3791,-4.3335,-0.6914
-0.471,1.8397,-0.5668,0.3416,-1.7321,2.2846,-8.6128,-2.0094,-2.4502,0.9949,-0.1167,0.5866,-6.8574,0.3725,-4.3216,-0.6956
-0.471,1.8397,-0.5668,0.3416,-1.7321,2.2846,-8.6128,-2.0094,-2.4502,0.9949,-0.1167,0.5866,-6.8574,0.3725,-4.3216,-0.6956
-0.471,1.8397,-0.5882,0.3589,-1.7268,2.2769,-8.6105,-2.0127,-2.4651,1.0164,-0.1285,0.5845,-6.8629,0.36,-4.3137,-0.7004
-0.471,1.8397,-0.5882,0.3589,-1.7268,2.2769,-8.6105,-2.0127,-2.4651,1.0164,-0.1285,0.5845,-6.8629,0.36,-4.3137,-0.7004
-0.471,1.8397,-0.5882,0.3589,-1.7268,2.2769,-8.6105,-2.0127,-2.4651,1.0164,-0.1285,0.5845,-6.8629,0.36,-4.3137,-0.7004
-0.4593,1.8416,-0.6006,0.3633,-1.7105,2.2711,-8.6012,-2.0185,-2.5228,1.0531,-0.1227,0.5761,-6.8376,0.3439,-4.3099,-0.7058
-0.4593,1.8416,-0.6006,0.3633,-1.7105,2.2711,-8.6012,-2.0185,-2.5228,1.0531,-0.1227,0.5761,-6.8376,0.3439,-4.3099,-0.7058
-0.4593,1.8416,-0.6006,0.3633,-1.7105,2.2711,-8.6012,-2.0185,-2.5228,1.0531,-0.1227,0.5761,-6.8376,0.3439,-4.3099,-0.7058
-0.4882,1.8458,-0.6242,0.3569,-1.6889,2.2577,-8.6104,-2.0278,-2.6655,1.1198,-0.158,0.5696,-6.8298,0.3123,-4.3408,-0.7133
-0.4882,1.8458,-0.6242,0.3569,-1.6889,2.2577,-8.6104,-2.0278,-2.6655,1.1198,-0.158,0.5696,-6.8298,0.3123,-4.3408,-0.7133
-0.5177,1.8318,-0.6555,0.3484,-1.6892,2.2404,-8.6404,-2.0298,-2.7205,1.1066,-0.1815,0.5652,-6.8353,0.2999,-4.375,-0.7094
-0.5466,1.836,-0.6711,0.3442,-1.7002,2.2385,-8.6541,-2.0325,-2.7752,1.0935,-0.1991,0.5526,-6.8902,0.2978,-4.4173,-0.7067
-0.5466,1.836,-0.6711,0.3442,-1.7002,2.2385,-8.6541,-2.0325,-2.7752,1.0935,-0.1991,0.5526,-6.8902,0.2978,-4.4173,-0.7067
-0.5466,1.836,-0.6711,0.3442,-1.7002,2.2385,-8.6541,-2.0325,-2.7752,1.0935,-0.1991,0.5526,-6.8902,0.2978,-4.4173,-0.7067
-0.5754,1.8401,-0.6868,0.3399,-1.7111,2.2365,-8.6725,-2.0361,-2.842,1.0524,-0.2167,0.5399,-6.9395,0.308,-4.4635,-0.7046
-0.5754,1.8401,-0.6868,0.3399,-1.7111,2.2365,-8.6725,-2.0361,-2.842,1.0524,-0.2167,0.5399,-6.9395,0.308,-4.4635,-0.7046
-0.5926,1.8462,-0.6823,0.3335,-1.7326,2.2499,-8.6863,-2.0387,-2.9233,1.0329,-0.2169,0.5211,-7.0006,0.3153,-4.5018,-0.7073
-0.5926,1.8462,-0.6823,0.3335,-1.7326,2.2499,-8.6863,-2.0387,-2.9233,1.0329,-0.2169,0.5211,-7.0006,0.3153,-4.5018,-0.7073
-0.5986,1.8362,-0.6979,0.3292,-1.765,2.2614,-8.7115,-2.0398,-2.9502,1.0263,-0.1994,0.5149,-7.0126,0.3124,-4.5341,-0.7122
-0.5986,1.8362,-0.6979,0.3292,-1.765,2.2614,-8.7115,-2.0398,-2.9502,1.0263,-0.1994,0.5149,-7.0126,0.3124,-4.5341,-0.7122
-0.6047,1.8262,-0.7012,0.3206,-1.8027,2.2805,-8.7297,-2.0434,-2.9233,1.0329,-0.1702,0.5109,-7.0191,0.3218,-4.5524,-0.7179
-0.6047,1.8262,-0.7012,0.3206,-1.8027,2.2805,-8.7297,-2.0434,-2.9233,1.0329,-0.1702,0.5109,-7.0191,0.3218,-4.5524,-0.7179
-0.5703,1.814,-0.7012,0.3206,-1.8242,2.2939,-8.748,-2.047,-2.9233,1.0329,-0.1702,0.5109,-7.0191,0.3218,-4.5689,-0.7262
-0.5703,1.814,-0.7012,0.3206,-1.8242,2.2939,-8.748,-2.047,-2.9233,1.0329,-0.1702,0.5109,-7.0191,0.3218,-4.5689,-0.7262
-0.5648,1.806,-0.709,0.3185,-1.8351,2.2919,-8.7662,-2.0505,-2.8962,1.0394,-0.1875,0.5359,-7.0006,0.3153,-4.5812,-0.734
-0.5648,1.806,-0.709,0.3185,-1.8351,2.2919,-8.7662,-2.0505,-2.8962,1.0394,-0.1875,0.5359,-7.0006,0.3153,-4.5812,-0.734
-0.5708,1.796,-0.7168,0.3164,-1.8406,2.2823,-8.7753,-2.0598,-2.8544,1.0246,-0.2108,0.5504,-6.994,0.3058,-4.6035,-0.7403
-0.5708,1.796,-0.7168,0.3164,-1.8406,2.2823,-8.7753,-2.0598,-2.8544,1.0246,-0.2108,0.5504,-6.994,0.3058,-4.6035,-0.7403
-0.5935,1.8101,-0.7168,0.3164,-1.8514,2.2803,-8.7753,-2.0673,-2.8544,1.0246,-0.2283,0.5566,-6.9875,0.2963,-4.6217,-0.746
-0.6334,1.8303,-0.7446,0.3165,-1.8569,2.2707,-8.7958,-2.0676,-2.8815,1.0181,-0.2574,0.5606,-6.9809,0.2869,-4.6497,-0.7502
-0.6334,1.8303,-0.7446,0.3165,-1.8569,2.2707,-8.7958,-2.0676,-2.8815,1.0181,-0.2574,0.5606,-6.9809,0.2869,-4.6497,-0.7502
-0.6334,1.8303,-0.7446,0.3165,-1.8569,2.2707,-8.7958,-2.0676,-2.8815,1.0181,-0.2574,0.5606,-6.9809,0.2869,-4.6497,-0.7502
-0.6736,1.8324,-0.7724,0.3166,-1.8679,2.2515,-8.8231,-2.0654,-2.8962,1.0394,-0.2865,0.5646,-6.9558,0.2709,-4.6756,-0.7512
-0.6736,1.8324,-0.7724,0.3166,-1.8679,2.2515,-8.8231,-2.0654,-2.8962,1.0394,-0.2865,0.5646,-6.9558,0.2709,-4.6756,-0.7512
-0.6736,1.8324,-0.7724,0.3166,-1.8679,2.2515,-8.8231,-2.0654,-2.8962,1.0394,-0.2865,0.5646,-6.9558,0.2709,-4.6756,-0.7512
-0.7082,1.8264,-0.7668,0.2951,-1.8895,2.2476,-8.8481,-2.0665,-2.8815,1.0181,-0.3098,0.5602,-6.9678,0.2679,-4.7035,-0.7554
-0.7086,1.8085,-0.7701,0.2866,-1.9003,2.2456,-8.873,-2.0677,-2.8248,0.982,-0.3157,0.5497,-6.9929,0.284,-4.7296,-0.7623
-0.7086,1.8085,-0.7701,0.2866,-1.9003,2.2456,-8.873,-2.0677,-2.8248,0.982,-0.3157,0.5497,-6.9929,0.284,-4.7296,-0.7623
-0.7316,1.8046,-0.7856,0.2824,-1.895,2.238,-8.8979,-2.0688,-2.7409,0.9524,-0.3389,0.5454,-7.0365,0.3065,-4.7556,-0.7692
-0.7316,1.8046,-0.7856,0.2824,-1.895,2.238,-8.8979,-2.0688,-2.7409,0.9524,-0.3389,0.5454,-7.0365,0.3065,-4.7556,-0.7692
-0.7316,1.8046,-0.7856,0.2824,-1.895,2.238,-8.8979,-2.0688,-2.7409,0.9524,-0.3389,0.5454,-7.0365,0.3065,-4.7556,-0.7692
-0.7316,1.8046,-0.7856,0.2824,-1.895,2.238,-8.8979,-2.0688,-2.7409,0.9524,-0.3389,0.5454,-7.0365,0.3065,-4.7556,-0.7692
-0.7716,1.8066,-0.8433,0.3125,-1.9218,2.2417,-8.9385,-2.0769,-2.6694,0.895,-0.3794,0.5471,-7.0788,0.3072,-4.8114,-0.7836
-0.7716,1.8066,-0.8433,0.3125,-1.9218,2.2417,-8.9385,-2.0769,-2.6694,0.895,-0.3794,0.5471,-7.0788,0.3072,-4.8114,-0.7836
-0.7716,1.8066,-0.8433,0.3125,-1.9218,2.2417,-8.9385,-2.0769,-2.6694,0.895,-0.3794,0.5471,-7.0788,0.3072,-4.8114,-0.7836
-0.7716,1.8066,-0.8433,0.3125,-1.9218,2.2417,-8.9385,-2.0769,-2.6694,0.895,-0.3794,0.5471,-7.0788,0.3072,-4.8114,-0.7836
-0.8115,1.8087,-0.8875,0.3232,-1.9166,2.2341,-8.9722,-2.0873,-2.8396,1.0033,-0.3968,0.5345,-7.1144,0.2984,-4.8633,-0.8032
-0.8115,1.8087,-0.8875,0.3232,-1.9166,2.2341,-8.9722,-2.0873,-2.8396,1.0033,-0.3968,0.5345,-7.1144,0.2984,-4.8633,-0.8032
-0.8229,1.8067,-0.8984,0.3125,-1.8952,2.2208,-8.9969,-2.0885,-2.9502,1.0263,-0.4199,0.5301,-7.1316,0.2831,-4.8909,-0.8074
-0.8119,1.7908,-0.9061,0.3104,-1.8631,2.2094,-9.0036,-2.0935,-3.0335,1.0557,-0.4199,0.5301,-7.1251,0.2737,-4.8985,-0.8028
-0.8119,1.7908,-0.9061,0.3104,-1.8631,2.2094,-9.0036,-2.0935,-3.0335,1.0557,-0.4199,0.5301,-7.1251,0.2737,-4.8985,-0.8028
-0.8119,1.7908,-0.9061,0.3104,-1.8631,2.2094,-9.0036,-2.0935,-3.0335,1.0557,-0.4199,0.5301,-7.1251,0.2737,-4.8985,-0.8028
-0.8174,1.7987,-0.8818,0.3018,-1.8414,2.2133,-9.0014,-2.0894,-3.099,1.0149,-0.4199,0.5114,-7.1358,0.249,-4.8825,-0.7945
-0.8174,1.7987,-0.8818,0.3018,-1.8414,2.2133,-9.0014,-2.0894,-3.099,1.0149,-0.4199,0.5114,-7.1358,0.249,-4.8825,-0.7945
-0.8174,1.7987,-0.8818,0.3018,-1.8414,2.2133,-9.0014,-2.0894,-3.099,1.0149,-0.4199,0.5114,-7.1358,0.249,-4.8825,-0.7945
-0.7775,1.7967,-0.8498,0.2954,-1.809,2.2191,-8.9632,-2.0855,-3.1523,1.0018,-0.3854,0.4992,-7.1476,0.2461,-4.8346,-0.7754
-0.7775,1.7967,-0.8498,0.2954,-1.809,2.2191,-8.9632,-2.0855,-3.1523,1.0018,-0.3854,0.4992,-7.1476,0.2461,-4.8346,-0.7754
-0.7775,1.7967,-0.8498,0.2954,-1.809,2.2191,-8.9632,-2.0855,-3.1523,1.0018,-0.3854,0.4992,-7.1476,0.2461,-4.8346,-0.7754
-0.6911,1.8204,-0.7835,0.3059,-1.7759,2.2595,-8.8412,-2.069,-3.1788,0.9953,-0.2755,0.4729,-7.1174,0.2425,-4.6707,-0.7327
-0.6911,1.8204,-0.7835,0.3059,-1.7759,2.2595,-8.8412,-2.069,-3.1788,0.9953,-0.2755,0.4729,-7.1174,0.2425,-4.6707,-0.7327
-0.6911,1.8204,-0.7835,0.3059,-1.7759,2.2595,-8.8412,-2.069,-3.1788,0.9953,-0.2755,0.4729,-7.1174,0.2425,-4.6707,-0.7327
-0.6278,1.8222,-0.7446,0.3165,-1.7539,2.2807,-8.7776,-2.0565,-3.043,0.9791,-0.2289,0.4814,-7.0764,0.2636,-4.5763,-0.7155
-0.6278,1.8222,-0.7446,0.3165,-1.7539,2.2807,-8.7776,-2.0565,-3.043,0.9791,-0.2289,0.4814,-7.0764,0.2636,-4.5763,-0.7155
-0.5526,1.826,-0.7057,0.3271,-1.7265,2.2942,-8.7183,-2.0449,-2.9208,0.9839,-0.2169,0.5211,-7.0353,0.2847,-4.4934,-0.7001
-0.5526,1.826,-0.7057,0.3271,-1.7265,2.2942,-8.7183,-2.0449,-2.9208,0.9839,-0.2169,0.5211,-7.0353,0.2847,-4.4934,-0.7001
-0.5121,1.8238,-0.7024,0.3357,-1.7319,2.3019,-8.6633,-2.0418,-2.8248,0.982,-0.2108,0.5504,-6.9994,0.2934,-4.4426,-0.6896
-0.5121,1.8238,-0.7024,0.3357,-1.7319,2.3019,-8.6633,-2.0418,-2.8248,0.982,-0.2108,0.5504,-6.9994,0.2934,-4.4426,-0.6896
-0.5121,1.8238,-0.7024,0.3357,-1.7319,2.3019,-8.6633,-2.0418,-2.8248,0.982,-0.2108,0.5504,-6.9994,0.2934,-4.4426,-0.6896
-0.4593,1.8416,-0.6834,0.3485,-1.6884,2.2924,-8.5712,-2.0392,-2.7157,1.0078,-0.2281,0.5943,-6.9275,0.3109,-4.3674,-0.6814
-0.4593,1.8416,-0.6834,0.3485,-1.6884,2.2924,-8.5712,-2.0392,-2.7157,1.0078,-0.2281,0.5943,-6.9275,0.3109,-4.3674,-0.6814
-0.4593,1.8416,-0.6834,0.3485,-1.6884,2.2924,-8.5712,-2.0392,-2.7157,1.0078,-0.2281,0.5943,-6.9275,0.3109,-4.3674,-0.6814
-0.4532,1.8516,-0.6711,0.3442,-1.6668,2.2789,-8.5458,-2.0381,-2.7032,1.0357,-0.2222,0.6049,-6.8716,0.2912,-4.3492,-0.6817
-0.4532,1.8516,-0.6711,0.3442,-1.6668,2.2789,-8.5458,-2.0381,-2.7032,1.0357,-0.2222,0.6049,-6.8716,0.2912,-4.3492,-0.6817
-0.4532,1.8516,-0.6711,0.3442,-1.6668,2.2789,-8.5458,-2.0381,-2.7032,1.0357,-0.2222,0.6049,-6.8716,0.2912,-4.3492,-0.6817
-0.4938,1.8538,-0.6823,0.3335,-1.7052,2.2635,-8.562,-2.0223,-2.7329,1.0786,-0.2164,0.5965,-6.7969,0.2648,-4.3451,-0.6811
-0.4938,1.8538,-0.6823,0.3335,-1.7052,2.2635,-8.562,-2.0223,-2.7329,1.0786,-0.2164,0.5965,-6.7969,0.2648,-4.3451,-0.6811
-0.5172,1.8499,-0.6778,0.327,-1.7486,2.273,-8.5805,-2.0183,-2.6906,1.0636,-0.2164,0.5965,-6.81,0.2838,-4.3533,-0.6823
-0.5172,1.8499,-0.6778,0.327,-1.7486,2.273,-8.5805,-2.0183,-2.6906,1.0636,-0.2164,0.5965,-6.81,0.2838,-4.3533,-0.6823
-0.5172,1.8499,-0.6778,0.327,-1.7486,2.273,-8.5805,-2.0183,-2.6906,1.0636,-0.2164,0.5965,-6.81,0.2838,-4.3533,-0.6823
-0.5116,1.8418,-0.6655,0.3226,-1.7648,2.2787,-8.5897,-2.0201,-2.6906,1.0636,-0.2106,0.5882,-6.8485,0.3189,-4.3596,-0.6862
-0.5116,1.8418,-0.6655,0.3226,-1.7648,2.2787,-8.5897,-2.0201,-2.6906,1.0636,-0.2106,0.5882,-6.8485,0.3189,-4.3596,-0.6862
-0.5233,1.8399,-0.6655,0.3226,-1.7757,2.2768,-8.5989,-2.0218,-2.5633,1.0186,-0.2106,0.5882,-6.8804,0.3446,-4.3677,-0.6874
-0.5233,1.8399,-0.6655,0.3226,-1.7757,2.2768,-8.5989,-2.0218,-2.5633,1.0186,-0.2106,0.5882,-6.8804,0.3446,-4.3677,-0.6874
-0.5233,1.8399,-0.6655,0.3226,-1.7757,2.2768,-8.5989,-2.0218,-2.5633,1.0186,-0.2106,0.5882,-6.8804,0.3446,-4.3677,-0.6874
-0.4832,1.8196,-0.6667,0.3377,-1.7648,2.2787,-8.5966,-2.0252,-2.4483,0.9456,-0.1813,0.5841,-6.8551,0.3285,-4.358,-0.695
-0.4832,1.8196,-0.6667,0.3377,-1.7648,2.2787,-8.5966,-2.0252,-2.4483,0.9456,-0.1813,0.5841,-6.8551,0.3285,-4.358,-0.695
-0.4776,1.8116,-0.6667,0.3377,-1.7595,2.271,-8.5989,-2.0294,-2.4204,0.952,-0.1696,0.5863,-6.8672,0.3256,-4.3442,-0.7019
-0.4776,1.8116,-0.6667,0.3377,-1.7595,2.271,-8.5989,-2.0294,-2.4204,0.952,-0.1696,0.5863,-6.8672,0.3256,-4.3442,-0.7019
-0.4832,1.8196,-0.6711,0.3442,-1.7433,2.2653,-8.5966,-2.0327,-2.4502,0.9949,-0.1696,0.5863,-6.8606,0.316,-4.3423,-0.7046
-0.4832,1.8196,-0.6711,0.3442,-1.7433,2.2653,-8.5966,-2.0327,-2.4502,0.9949,-0.1696,0.5863,-6.8606,0.316,-4.3423,-0.7046
-0.4832,1.8196,-0.679,0.342,-1.7433,2.2653,-8.6127,-2.0321,-2.495,1.0595,-0.1754,0.5947,-6.8606,0.316,-4.3483,-0.7025
-0.4832,1.8196,-0.679,0.342,-1.7433,2.2653,-8.6127,-2.0321,-2.495,1.0595,-0.1754,0.5947,-6.8606,0.316,-4.3483,-0.7025
-0.4832,1.8196,-0.6745,0.3356,-1.7108,2.2538,-8.6242,-2.0305,-2.5654,1.0681,-0.1871,0.5925,-6.8661,0.3036,-4.3725,-0.7001
-0.4832,1.8196,-0.6745,0.3356,-1.7108,2.2538,-8.6242,-2.0305,-2.5654,1.0681,-0.1871,0.5925,-6.8661,0.3036,-4.3725,-0.7001
-0.4832,1.8196,-0.6745,0.3356,-1.7108,2.2538,-8.6242,-2.0305,-2.5654,1.0681,-0.1871,0.5925,-6.8661,0.3036,-4.3725,-0.7001
-0.5238,1.8218,-0.6934,0.3227,-1.722,2.2346,-8.6564,-2.0367,-2.6356,1.0767,-0.1287,0.5655,-6.8836,0.2883,-4.4348,-0.6944
-0.5238,1.8218,-0.6934,0.3227,-1.722,2.2346,-8.6564,-2.0367,-2.6356,1.0767,-0.1287,0.5655,-6.8836,0.2883,-4.4348,-0.6944
-0.5238,1.8218,-0.6934,0.3227,-1.722,2.2346,-8.6564,-2.0367,-2.6356,1.0767,-0.1287,0.5655,-6.8836,0.2883,-4.4348,-0.6944
-0.5354,1.8199,-0.709,0.3185,-1.7435,2.248,-8.6725,-2.0436,-2.6483,1.0487,-0.1113,0.5404,-6.9143,0.292,-4.4672,-0.6992
-0.5354,1.8199,-0.709,0.3185,-1.7435,2.248,-8.6725,-2.0436,-2.6483,1.0487,-0.1113,0.5404,-6.9143,0.292,-4.4672,-0.6992
-0.5354,1.8199,-0.709,0.3185,-1.7435,2.248,-8.6725,-2.0436,-2.6483,1.0487,-0.1113,0.5404,-6.9143,0.292,-4.4672,-0.6992
-0.5071,1.7977,-0.7246,0.3143,-1.7759,2.2595,-8.6908,-2.0471,-2.6058,1.0337,-0.1113,0.5404,-6.9143,0.292,-4.4916,-0.7028
-0.5071,1.7977,-0.7246,0.3143,-1.7759,2.2595,-8.6908,-2.0471,-2.6058,1.0337,-0.1113,0.5404,-6.9143,0.292,-4.4916,-0.7028
-0.5071,1.7977,-0.7246,0.3143,-1.7759,2.2595,-8.6908,-2.0471,-2.6058,1.0337,-0.1113,0.5404,-6.9143,0.292,-4.4916,-0.7028
-0.4614,1.7695,-0.7435,0.3015,-1.8138,2.2613,-8.7366,-2.056,-2.6334,1.0272,-0.1462,0.5718,-6.9329,0.2985,-4.5385,-0.7187
-0.4614,1.7695,-0.7435,0.3015,-1.8138,2.2613,-8.7366,-2.056,-2.6334,1.0272,-0.1462,0.5718,-6.9329,0.2985,-4.5385,-0.7187
-0.4503,1.7535,-0.7512,0.2994,-1.8408,2.265,-8.7594,-2.0605,-2.5909,1.0122,-0.1754,0.5947,-6.9395,0.308,-4.5608,-0.725
-0.4503,1.7535,-0.7512,0.2994,-1.8408,2.265,-8.7594,-2.0605,-2.5909,1.0122,-0.1754,0.5947,-6.9395,0.308,-4.5608,-0.725
-0.4737,1.7496,-0.759,0.2972,-1.8463,2.2554,-8.7708,-2.0664,-2.6334,1.0272,-0.2163,0.6155,-6.9701,0.3117,-4.589,-0.7293
-0.4737,1.7496,-0.759,0.2972,-1.8463,2.2554,-8.7708,-2.0664,-2.6334,1.0272,-0.2163,0.6155,-6.9701,0.3117,-4.589,-0.7293
-0.4737,1.7496,-0.759,0.2972,-1.8463,2.2554,-8.7708,-2.0664,-2.6334,1.0272,-0.2163,0.6155,-6.9701,0.3117,-4.589,-0.7293
-0.5142,1.7519,-0.7867,0.2973,-1.8679,2.2515,-8.7935,-2.0709,-2.6758,1.0422,-0.2396,0.6301,-7.0006,0.3153,-4.6152,-0.7362
-0.5142,1.7519,-0.7867,0.2973,-1.8679,2.2515,-8.7935,-2.0709,-2.6758,1.0422,-0.2396,0.6301,-7.0006,0.3153,-4.6152,-0.7362
-0.5142,1.7519,-0.7867,0.2973,-1.8679,2.2515,-8.7935,-2.0709,-2.6758,1.0422,-0.2396,0.6301,-7.0006,0.3153,-4.6152,-0.7362
-0.5885,1.7841,-0.8112,0.306,-1.8895,2.2476,-8.8162,-2.0828,-2.6906,1.0636,-0.2688,0.634,-7.006,0.3029,-4.6575,-0.7455
-0.5885,1.7841,-0.8112,0.306,-1.8895,2.2476,-8.8162,-2.0828,-2.6906,1.0636,-0.2688,0.634,-7.006,0.3029,-4.6575,-0.7455
-0.5885,1.7841,-0.8112,0.306,-1.8895,2.2476,-8.8162,-2.0828,-2.6906,1.0636,-0.2688,0.634,-7.006,0.3029,-4.6575,-0.7455
-0.6454,1.8103,-0.8266,0.3017,-1.9003,2.2456,-8.8252,-2.092,-2.7329,1.0786,-0.2864,0.6213,-6.9994,0.2934,-4.6796,-0.7518
-0.6454,1.8103,-0.8266,0.3017,-1.9003,2.2456,-8.8252,-2.092,-2.7329,1.0786,-0.2864,0.6213,-6.9994,0.2934,-4.6796,-0.7518
-0.6736,1.8324,-0.8388,0.306,-1.895,2.238,-8.8434,-2.0956,-2.7032,1.0357,-0.2922,0.6107,-6.9743,0.2774,-4.7017,-0.7581
-0.6736,1.8324,-0.8388,0.306,-1.895,2.238,-8.8434,-2.0956,-2.7032,1.0357,-0.2922,0.6107,-6.9743,0.2774,-4.7017,-0.7581
-0.6736,1.8324,-0.8388,0.306,-1.895,2.238,-8.8434,-2.0956,-2.7032,1.0357,-0.2922,0.6107,-6.9743,0.2774,-4.7017,-0.7581
-0.6736,1.8324,-0.8388,0.306,-1.895,2.238,-8.8434,-2.0956,-2.7032,1.0357,-0.2922,0.6107,-6.9743,0.2774,-4.7017,-0.7581
-0.7368,1.8305,-0.8652,0.2911,-1.906,2.2189,-8.9023,-2.0922,-2.7852,1.0162,-0.2749,0.5667,-6.9296,0.2331,-4.7574,-0.7665
-0.7368,1.8305,-0.8652,0.2911,-1.906,2.2189,-8.9023,-2.0922,-2.7852,1.0162,-0.2749,0.5667,-6.9296,0.2331,-4.7574,-0.7665
-0.7368,1.8305,-0.8652,0.2911,-1.906,2.2189,-8.9023,-2.0922,-2.7852,1.0162,-0.2749,0.5667,-6.9296,0.2331,-4.7574,-0.7665
-0.8,1.8107,-0.875,0.2656,-1.9597,2.2091,-8.9631,-2.093,-2.8124,1.0098,-0.2982,0.5624,-6.9787,0.2433,-4.8206,-0.7703
-0.8229,1.8067,-0.8662,0.2528,-1.9864,2.2128,-8.9788,-2.0998,-2.8544,1.0246,-0.3098,0.5602,-7.0287,0.2752,-4.8483,-0.7746
-0.8229,1.8067,-0.8662,0.2528,-1.9864,2.2128,-8.9788,-2.0998,-2.8544,1.0246,-0.3098,0.5602,-7.0287,0.2752,-4.8483,-0.7746
-0.8229,1.8067,-0.8662,0.2528,-1.9864,2.2128,-8.9788,-2.0998,-2.8544,1.0246,-0.3098,0.5602,-7.0287,0.2752,-4.8483,-0.7746
-0.8233,1.7888,-0.8739,0.2507,-1.9972,2.2109,-9.0013,-2.1042,-2.8248,0.982,-0.3504,0.562,-7.0776,0.2854,-4.8838,-0.78
-0.8233,1.7888,-0.8739,0.2507,-1.9972,2.2109,-9.0013,-2.1042,-2.8248,0.982,-0.3504,0.562,-7.0776,0.2854,-4.8838,-0.78
-0.8233,1.7888,-0.8739,0.2507,-1.9972,2.2109,-9.0013,-2.1042,-2.8248,0.982,-0.3504,0.562,-7.0776,0.2854,-4.8838,-0.78
-0.8178,1.7809,-0.9025,0.2657,-2.0131,2.2165,-9.0147,-2.1069,-2.7409,0.9524,-0.3678,0.5681,-7.096,0.2919,-4.9055,-0.7863
-0.8178,1.7809,-0.9025,0.2657,-2.0131,2.2165,-9.0147,-2.1069,-2.7409,0.9524,-0.3678,0.5681,-7.096,0.2919,-4.9055,-0.7863
-0.8178,1.7809,-0.9025,0.2657,-2.0131,2.2165,-9.0147,-2.1069,-2.7409,0.9524,-0.3678,0.5681,-7.096,0.2919,-4.9055,-0.7863
-0.8068,1.765,-0.949,0.3062,-2.0131,2.2165,-9.0237,-2.1087,-2.7535,0.9248,-0.3909,0.5637,-7.1198,0.286,-4.8961,-0.7936
-0.8068,1.765,-0.949,0.3062,-2.0131,2.2165,-9.0237,-2.1087,-2.7535,0.9248,-0.3909,0.5637,-7.1198,0.286,-4.8961,-0.7936
-0.7784,1.7609,-0.9457,0.3147,-1.9864,2.2128,-9.0013,-2.1042,-2.7409,0.9524,-0.3851,0.5742,-7.0895,0.2824,-4.8391,-0.7878
-0.7784,1.7609,-0.9457,0.3147,-1.9864,2.2128,-9.0013,-2.1042,-2.7409,0.9524,-0.3851,0.5742,-7.0895,0.2824,-4.8391,-0.7878
-0.7325,1.7688,-0.915,0.3233,-1.9383,2.213,-8.9451,-2.0969,-2.7704,0.9949,-0.3736,0.5764,-7.0407,0.2723,-4.7657,-0.7737
-0.7325,1.7688,-0.915,0.3233,-1.9383,2.213,-8.9451,-2.0969,-2.7704,0.9949,-0.3736,0.5764,-7.0407,0.2723,-4.7657,-0.7737
-0.6865,1.7766,-0.883,0.3168,-1.9007,2.2112,-8.891,-2.0862,-2.8148,1.059,-0.333,0.5747,-6.9983,0.2716,-4.6836,-0.7524
-0.6865,1.7766,-0.883,0.3168,-1.9007,2.2112,-8.891,-2.0862,-2.8148,1.059,-0.333,0.5747,-6.9983,0.2716,-4.6836,-0.7524
-0.6459,1.7923,-0.8355,0.3146,-1.8362,2.2057,-8.8231,-2.0729,-2.8297,1.0804,-0.3097,0.579,-6.9929,0.284,-4.6007,-0.7251
-0.6459,1.7923,-0.8355,0.3146,-1.8362,2.2057,-8.8231,-2.0729,-2.8297,1.0804,-0.3097,0.579,-6.9929,0.284,-4.6007,-0.7251
-0.5996,1.8002,-0.8001,0.3166,-1.7984,2.2039,-8.7594,-2.0605,-2.8839,1.0673,-0.304,0.5707,-7.0114,0.2905,-4.5438,-0.7047
-0.5996,1.8002,-0.8001,0.3166,-1.7984,2.2039,-8.7594,-2.0605,-2.8839,1.0673,-0.304,0.5707,-7.0114,0.2905,-4.5438,-0.7047
-0.5996,1.8002,-0.8001,0.3166,-1.7984,2.2039,-8.7594,-2.0605,-2.8839,1.0673,-0.304,0.5707,-7.0114,0.2905,-4.5438,-0.7047
-0.5476,1.7999,-0.7724,0.3166,-1.782,2.2154,-8.7091,-2.0507,-2.9233,1.0329,-0.2808,0.5562,-7.0234,0.2876,-4.5049,-0.6899
-0.5299,1.8119,-0.7524,0.3144,-1.7926,2.2306,-8.6748,-2.0403,-2.9233,1.0329,-0.2459,0.5439,-7.0234,0.2876,-4.4744,-0.6824
-0.5299,1.8119,-0.7524,0.3144,-1.7926,2.2306,-8.6748,-2.0403,-2.9233,1.0329,-0.2459,0.5439,-7.0234,0.2876,-4.4744,-0.6824
-0.4893,1.8097,-0.7368,0.3186,-1.7976,2.2556,-8.6403,-2.0374,-2.8962,1.0394,-0.24,0.5544,-6.9994,0.2934,-4.4438,-0.6748
-0.4893,1.8097,-0.7368,0.3186,-1.7976,2.2556,-8.6403,-2.0374,-2.8962,1.0394,-0.24,0.5544,-6.9994,0.2934,-4.4438,-0.6748
-0.4893,1.8097,-0.7368,0.3186,-1.7976,2.2556,-8.6403,-2.0374,-2.8962,1.0394,-0.24,0.5544,-6.9994,0.2934,-4.4438,-0.6748
-0.443,1.7994,-0.7246,0.3143,-1.8083,2.2709,-8.6288,-2.0314,-2.8272,1.0311,-0.2166,0.5587,-6.9755,0.2993,-4.4216,-0.6745
-0.443,1.7994,-0.7246,0.3143,-1.8083,2.2709,-8.6288,-2.0314,-2.8272,1.0311,-0.2166,0.5587,-6.9755,0.2993,-4.4216,-0.6745
-0.443,1.7994,-0.7246,0.3143,-1.8083,2.2709,-8.6288,-2.0314,-2.8272,1.0311,-0.2166,0.5587,-6.9755,0.2993,-4.4216,-0.6745
-0.3738,1.7749,-0.7001,0.3056,-1.8244,2.2766,-8.6127,-2.0321,-2.6609,1.0207,-0.2223,0.586,-6.9143,0.292,-4.3916,-0.679
-0.3738,1.7749,-0.7001,0.3056,-1.8244,2.2766,-8.6127,-2.0321,-2.6609,1.0207,-0.2223,0.586,-6.9143,0.292,-4.3916,-0.679
-0.362,1.7768,-0.6878,0.3013,-1.8138,2.2613,-8.6173,-2.0329,-2.5633,1.0186,-0.2047,0.5987,-6.8716,0.2912,-4.3856,-0.6811
-0.362,1.7768,-0.6878,0.3013,-1.8138,2.2613,-8.6173,-2.0329,-2.5633,1.0186,-0.2047,0.5987,-6.8716,0.2912,-4.3856,-0.6811
-0.362,1.7768,-0.6878,0.3013,-1.8138,2.2613,-8.6173,-2.0329,-2.5633,1.0186,-0.2047,0.5987,-6.8716,0.2912,-4.3856,-0.6811
-0.3794,1.783,-0.7045,0.3121,-1.8138,2.2613,-8.6058,-2.0421,-2.5484,0.9972,-0.2338,0.6217,-6.8836,0.2883,-4.3859,-0.6871
-0.3794,1.783,-0.7045,0.3121,-1.8138,2.2613,-8.6058,-2.0421,-2.5484,0.9972,-0.2338,0.6217,-6.8836,0.2883,-4.3859,-0.6871
-0.3794,1.783,-0.7045,0.3121,-1.8138,2.2613,-8.6058,-2.0421,-2.5484,0.9972,-0.2338,0.6217,-6.8836,0.2883,-4.3859,-0.6871
-0.4313,1.8013,-0.7168,0.3164,-1.8302,2.2497,-8.5897,-2.0578,-2.5633,1.0186,-0.2279,0.6323,-6.8782,0.3007,-4.4022,-0.6895
-0.4313,1.8013,-0.7168,0.3164,-1.8302,2.2497,-8.5897,-2.0578,-2.5633,1.0186,-0.2279,0.6323,-6.8782,0.3007,-4.4022,-0.6895
-0.4771,1.8296,-0.7123,0.3099,-1.8196,2.2344,-8.585,-2.0644,-2.5356,1.0251,-0.2104,0.6261,-6.8595,0.2941,-4.4082,-0.6874
-0.4771,1.8296,-0.7123,0.3099,-1.8196,2.2344,-8.585,-2.0644,-2.5356,1.0251,-0.2104,0.6261,-6.8595,0.2941,-4.4082,-0.6874
-0.4771,1.8296,-0.7123,0.3099,-1.8196,2.2344,-8.585,-2.0644,-2.5356,1.0251,-0.2104,0.6261,-6.8595,0.2941,-4.4082,-0.6874
-0.506,1.8338,-0.7201,0.3078,-1.8251,2.2248,-8.5943,-2.0662,-2.5356,1.0251,-0.2046,0.6177,-6.8222,0.2809,-4.4122,-0.6881
-0.506,1.8338,-0.7201,0.3078,-1.8251,2.2248,-8.5943,-2.0662,-2.5356,1.0251,-0.2046,0.6177,-6.8222,0.2809,-4.4122,-0.6881
-0.506,1.8338,-0.7201,0.3078,-1.8251,2.2248,-8.5943,-2.0662,-2.5356,1.0251,-0.2046,0.6177,-6.8222,0.2809,-4.4122,-0.6881
-0.506,1.8338,-0.7201,0.3078,-1.8251,2.2248,-8.5943,-2.0662,-2.5356,1.0251,-0.2046,0.6177,-6.8222,0.2809,-4.4122,-0.6881
-0.5177,1.8318,-0.7279,0.3057,-1.852,2.2286,-8.6357,-2.0516,-2.6058,1.0337,-0.2105,0.6071,-6.809,0.2619,-4.4363,-0.6857
-0.5177,1.8318,-0.7279,0.3057,-1.852,2.2286,-8.6357,-2.0516,-2.6058,1.0337,-0.2105,0.6071,-6.809,0.2619,-4.4363,-0.6857
-0.5238,1.8218,-0.7312,0.2972,-1.8575,2.219,-8.661,-2.0451,-2.6058,1.0337,-0.2047,0.5987,-6.809,0.2619,-4.4466,-0.6902
-0.5238,1.8218,-0.7312,0.2972,-1.8575,2.219,-8.661,-2.0451,-2.6058,1.0337,-0.2047,0.5987,-6.809,0.2619,-4.4466,-0.6902
-0.5415,1.8099,-0.739,0.295,-1.8684,2.2171,-8.6908,-2.0396,-2.6058,1.0337,-0.2047,0.5987,-6.8024,0.2524,-4.4569,-0.6947
-0.5415,1.8099,-0.739,0.295,-1.8684,2.2171,-8.6908,-2.0396,-2.6058,1.0337,-0.2047,0.5987,-6.8024,0.2524,-4.4569,-0.6947
-0.5648,1.806,-0.7256,0.2757,-1.8739,2.2075,-8.7183,-2.0374,-2.6758,1.0422,-0.1989,0.5903,-6.8518,0.2627,-4.4794,-0.701
-0.5648,1.806,-0.7256,0.2757,-1.8739,2.2075,-8.7183,-2.0374,-2.6758,1.0422,-0.1989,0.5903,-6.8518,0.2627,-4.4794,-0.701
-0.5648,1.806,-0.7256,0.2757,-1.8739,2.2075,-8.7183,-2.0374,-2.6758,1.0422,-0.1989,0.5903,-6.8518,0.2627,-4.4794,-0.701
-0.6056,1.7902,-0.72,0.2544,-1.917,2.1998,-8.7685,-2.0472,-2.7306,1.0292,-0.199,0.5714,-6.9132,0.2701,-4.5282,-0.7142
-0.6056,1.7902,-0.72,0.2544,-1.917,2.1998,-8.7685,-2.0472,-2.7306,1.0292,-0.199,0.5714,-6.9132,0.2701,-4.5282,-0.7142
-0.6288,1.7863,-0.7311,0.2438,-1.9332,2.1883,-8.7913,-2.0592,-2.7157,1.0078,-0.2107,0.5693,-6.9384,0.2861,-4.5546,-0.7211
-0.6288,1.7863,-0.7311,0.2438,-1.9332,2.1883,-8.7913,-2.0592,-2.7157,1.0078,-0.2107,0.5693,-6.9384,0.2861,-4.5546,-0.7211
-0.6288,1.7863,-0.7311,0.2438,-1.9332,2.1883,-8.7913,-2.0592,-2.7157,1.0078,-0.2107,0.5693,-6.9384,0.2861,-4.5546,-0.7211
-0.6232,1.7783,-0.7267,0.2373,-1.9332,2.1883,-8.8049,-2.0693,-2.6735,0.9929,-0.2107,0.5693,-6.9449,0.2956,-4.5809,-0.7281
-0.6232,1.7783,-0.7267,0.2373,-1.9332,2.1883,-8.8049,-2.0693,-2.6735,0.9929,-0.2107,0.5693,-6.9449,0.2956,-4.5809,-0.7281
-0.6232,1.7783,-0.7389,0.2417,-1.9545,2.2015,-8.8139,-2.0786,-2.6312,0.978,-0.2224,0.5671,-6.9701,0.3117,-4.6072,-0.735
-0.6061,1.7723,-0.7556,0.2524,-1.933,2.2054,-8.8184,-2.087,-2.4761,0.9393,-0.2399,0.5733,-6.9886,0.3182,-4.6371,-0.7365
-0.6117,1.7803,-0.7767,0.2695,-1.9435,2.2206,-8.8321,-2.0896,-2.3759,0.8877,-0.2516,0.5711,-7.0006,0.3153,-4.6673,-0.744
-0.6117,1.7803,-0.7767,0.2695,-1.9435,2.2206,-8.8321,-2.0896,-2.3759,0.8877,-0.2516,0.5711,-7.0006,0.3153,-4.6673,-0.744
-0.6117,1.7803,-0.7767,0.2695,-1.9435,2.2206,-8.8321,-2.0896,-2.3759,0.8877,-0.2516,0.5711,-7.0006,0.3153,-4.6673,-0.744
-0.6288,1.7863,-0.8055,0.2846,-1.9435,2.2206,-8.8434,-2.0956,-2.3759,0.8877,-0.2632,0.5689,-7.006,0.3029,-4.6953,-0.7483
-0.6288,1.7863,-0.8055,0.2846,-1.9435,2.2206,-8.8434,-2.0956,-2.3759,0.8877,-0.2632,0.5689,-7.006,0.3029,-4.6953,-0.7483
-0.6288,1.7863,-0.8055,0.2846,-1.9435,2.2206,-8.8434,-2.0956,-2.3759,0.8877,-0.2632,0.5689,-7.006,0.3029,-4.6953,-0.7483
-0.6459,1.7923,-0.8344,0.2996,-1.9435,2.2206,-8.8569,-2.0982,-2.3479,0.894,-0.269,0.5773,-7.018,0.3,-4.7094,-0.7533
-0.6459,1.7923,-0.8344,0.2996,-1.9435,2.2206,-8.8569,-2.0982,-2.3479,0.894,-0.269,0.5773,-7.018,0.3,-4.7094,-0.7533
-0.6574,1.7904,-0.8587,0.3082,-1.9543,2.2187,-8.8683,-2.1042,-2.4334,0.9242,-0.2865,0.5834,-7.0418,0.2941,-4.7256,-0.7617
-0.6574,1.7904,-0.8587,0.3082,-1.9543,2.2187,-8.8683,-2.1042,-2.4334,0.9242,-0.2865,0.5834,-7.0418,0.2941,-4.7256,-0.7617
-0.6574,1.7904,-0.8587,0.3082,-1.9543,2.2187,-8.8683,-2.1042,-2.4334,0.9242,-0.2865,0.5834,-7.0418,0.2941,-4.7256,-0.7617
-0.686,1.7945,-0.8895,0.2997,-1.933,2.2054,-8.8999,-2.1104,-2.6207,1.0551,-0.3039,0.5896,-7.0407,0.2723,-4.7559,-0.7751
-0.686,1.7945,-0.8895,0.2997,-1.933,2.2054,-8.8999,-2.1104,-2.6207,1.0551,-0.3039,0.5896,-7.0407,0.2723,-4.7559,-0.7751
-0.7035,1.7826,-0.9005,0.2891,-1.9172,2.1826,-8.9247,-2.1115,-2.7329,1.0786,-0.3097,0.579,-7.0395,0.2505,-4.7895,-0.7773
-0.7035,1.7826,-0.9005,0.2891,-1.9172,2.1826,-8.9247,-2.1115,-2.7329,1.0786,-0.3097,0.579,-7.0395,0.2505,-4.7895,-0.7773
-0.7321,1.7866,-0.8993,0.2742,-1.9279,2.1807,-8.9495,-2.1127,-2.8568,1.0738,-0.3098,0.5602,-7.0752,0.2418,-4.8288,-0.7774
-0.7321,1.7866,-0.8993,0.2742,-1.9279,2.1807,-8.9495,-2.1127,-2.8568,1.0738,-0.3098,0.5602,-7.0752,0.2418,-4.8288,-0.7774
-0.7321,1.7866,-0.8993,0.2742,-1.9279,2.1807,-8.9495,-2.1127,-2.8568,1.0738,-0.3098,0.5602,-7.0752,0.2418,-4.8288,-0.7774
-0.7321,1.7866,-0.8993,0.2742,-1.9279,2.1807,-8.9495,-2.1127,-2.8568,1.0738,-0.3098,0.5602,-7.0752,0.2418,-4.8288,-0.7774
-0.7321,1.7866,-0.8993,0.2742,-1.9279,2.1807,-8.9495,-2.1127,-2.8568,1.0738,-0.3098,0.5602,-7.0752,0.2418,-4.8288,-0.7774
-0.744,1.7668,-0.93,0.2657,-1.9652,2.1996,-8.9922,-2.1173,-2.9502,1.0263,-0.2752,0.5103,-7.1044,0.2238,-4.9074,-0.7837
-0.744,1.7668,-0.93,0.2657,-1.9652,2.1996,-8.9922,-2.1173,-2.9502,1.0263,-0.2752,0.5103,-7.1044,0.2238,-4.9074,-0.7837
-0.744,1.7668,-0.93,0.2657,-1.9652,2.1996,-8.9922,-2.1173,-2.9502,1.0263,-0.2752,0.5103,-7.1044,0.2238,-4.9074,-0.7837
-0.7049,1.729,-0.9816,0.2743,-2.0131,2.2165,-9.0257,-2.1277,-2.9355,1.0051,-0.3274,0.5287,-7.1411,0.2367,-4.9644,-0.7954
-0.7049,1.729,-0.9816,0.2743,-2.0131,2.2165,-9.0257,-2.1277,-2.9355,1.0051,-0.3274,0.5287,-7.1411,0.2367,-4.9644,-0.7954
-0.7109,1.7191,-0.9892,0.2722,-2.0238,2.2146,-9.0504,-2.1289,-2.9061,0.9627,-0.3678,0.5493,-7.1529,0.2338,-4.99,-0.8023
-0.7109,1.7191,-0.9892,0.2722,-2.0238,2.2146,-9.0504,-2.1289,-2.9061,0.9627,-0.3678,0.5493,-7.1529,0.2338,-4.99,-0.8023
-0.7109,1.7191,-0.9892,0.2722,-2.0238,2.2146,-9.0504,-2.1289,-2.9061,0.9627,-0.3678,0.5493,-7.1529,0.2338,-4.99,-0.8023
-0.7279,1.7251,-0.9969,0.2701,-2.0238,2.2146,-9.0436,-2.1387,-2.9061,0.9627,-0.3967,0.5721,-7.1594,0.2432,-4.9939,-0.8029
-0.7279,1.7251,-0.9969,0.2701,-2.0238,2.2146,-9.0436,-2.1387,-2.9061,0.9627,-0.3967,0.5721,-7.1594,0.2432,-4.9939,-0.8029
-0.7279,1.7251,-0.9969,0.2701,-2.0238,2.2146,-9.0436,-2.1387,-2.9061,0.9627,-0.3967,0.5721,-7.1594,0.2432,-4.9939,-0.8029
-0.727,1.7608,-0.9619,0.2721,-1.9652,2.1996,-8.9966,-2.1331,-2.9061,0.9627,-0.4198,0.5865,-7.1044,0.2238,-4.9137,-0.7934
-0.727,1.7608,-0.9619,0.2721,-1.9652,2.1996,-8.9966,-2.1331,-2.9061,0.9627,-0.4198,0.5865,-7.1044,0.2238,-4.9137,-0.7934
-0.7035,1.7826,-0.9268,0.2742,-1.933,2.2054,-8.9472,-2.1234,-2.9208,0.9839,-0.3909,0.5826,-7.0253,0.21,-4.8267,-0.7742
-0.6805,1.7865,-0.8872,0.2699,-1.9115,2.2093,-8.9089,-2.1047,-2.8248,0.982,-0.3561,0.5892,-6.9776,0.2215,-4.7351,-0.7543
-0.6805,1.7865,-0.8872,0.2699,-1.9115,2.2093,-8.9089,-2.1047,-2.8248,0.982,-0.3561,0.5892,-6.9776,0.2215,-4.7351,-0.7543
-0.6805,1.7865,-0.8872,0.2699,-1.9115,2.2093,-8.9089,-2.1047,-2.8248,0.982,-0.3561,0.5892,-6.9776,0.2215,-4.7351,-0.7543
-0.6459,1.7923,-0.8353,0.2612,-1.906,2.2189,-8.857,-2.0908,-2.8124,1.0098,-0.3155,0.5874,-6.9481,0.2396,-4.655,-0.7363
-0.6459,1.7923,-0.8353,0.2612,-1.906,2.2189,-8.857,-2.0908,-2.8124,1.0098,-0.3155,0.5874,-6.9481,0.2396,-4.655,-0.7363
-0.6227,1.7962,-0.7955,0.2568,-1.8952,2.2208,-8.8116,-2.0819,-2.7157,1.0078,-0.269,0.5773,-6.9624,0.2803,-4.5847,-0.7227
-0.6227,1.7962,-0.7955,0.2568,-1.8952,2.2208,-8.8116,-2.0819,-2.7157,1.0078,-0.269,0.5773,-6.9624,0.2803,-4.5847,-0.7227
-0.6227,1.7962,-0.7955,0.2568,-1.8952,2.2208,-8.8116,-2.0819,-2.7157,1.0078,-0.269,0.5773,-6.9624,0.2803,-4.5847,-0.7227
-0.5996,1.8002,-0.7722,0.2631,-1.8736,2.2247,-8.7639,-2.0763,-2.5761,0.9908,-0.2282,0.5754,-6.9329,0.2985,-4.5382,-0.7128
-0.5996,1.8002,-0.7722,0.2631,-1.8736,2.2247,-8.7639,-2.0763,-2.5761,0.9908,-0.2282,0.5754,-6.9329,0.2985,-4.5382,-0.7128
-0.542,1.7919,-0.7489,0.2694,-1.8467,2.221,-8.7296,-2.0735,-2.5058,0.9821,-0.2107,0.5693,-6.9275,0.3109,-4.5059,-0.7079
-0.542,1.7919,-0.7489,0.2694,-1.8467,2.221,-8.7296,-2.0735,-2.5058,0.9821,-0.2107,0.5693,-6.9275,0.3109,-4.5059,-0.7079
-0.5248,1.7858,-0.7745,0.293,-1.8467,2.221,-8.7045,-2.0724,-2.4353,0.9734,-0.2165,0.5776,-6.9155,0.3139,-4.4816,-0.7043
-0.5248,1.7858,-0.7745,0.293,-1.8467,2.221,-8.7045,-2.0724,-2.4353,0.9734,-0.2165,0.5776,-6.9155,0.3139,-4.4816,-0.7043
-0.5248,1.7858,-0.7745,0.293,-1.8467,2.221,-8.7045,-2.0724,-2.4353,0.9734,-0.2165,0.5776,-6.9155,0.3139,-4.4816,-0.7043
-0.4959,1.7817,-0.7802,0.3144,-1.8467,2.221,-8.6747,-2.0779,-2.4074,0.9798,-0.2048,0.5798,-6.9089,0.3044,-4.4398,-0.713
-0.4959,1.7817,-0.7802,0.3144,-1.8467,2.221,-8.6747,-2.0779,-2.4074,0.9798,-0.2048,0.5798,-6.9089,0.3044,-4.4398,-0.713
-0.4959,1.7817,-0.7802,0.3144,-1.8467,2.221,-8.6747,-2.0779,-2.4074,0.9798,-0.2048,0.5798,-6.9089,0.3044,-4.4398,-0.713
-0.4842,1.7836,-0.7802,0.3144,-1.8359,2.2229,-8.6747,-2.0779,-2.4093,1.0292,-0.1931,0.582,-6.8968,0.3073,-4.432,-0.7178
-0.4898,1.7916,-0.7835,0.3059,-1.8306,2.2153,-8.6839,-2.0796,-2.4822,1.0876,-0.2106,0.5882,-6.8782,0.3007,-4.4382,-0.7216
-0.4898,1.7916,-0.7835,0.3059,-1.8306,2.2153,-8.6839,-2.0796,-2.4822,1.0876,-0.2106,0.5882,-6.8782,0.3007,-4.4382,-0.7216
-0.5015,1.7897,-0.7867,0.2973,-1.7984,2.2039,-8.6953,-2.0781,-2.525,1.1028,-0.2048,0.5798,-6.8836,0.2883,-4.4582,-0.7187
-0.5015,1.7897,-0.7867,0.2973,-1.7984,2.2039,-8.6953,-2.0781,-2.525,1.1028,-0.2048,0.5798,-6.8836,0.2883,-4.4582,-0.7187
-0.5131,1.7878,-0.7856,0.2824,-1.7878,2.1886,-8.7045,-2.0799,-2.5377,1.0746,-0.2048,0.5798,-6.9077,0.2825,-4.4859,-0.7109
-0.5131,1.7878,-0.7856,0.2824,-1.7878,2.1886,-8.7045,-2.0799,-2.5377,1.0746,-0.2048,0.5798,-6.9077,0.2825,-4.4859,-0.7109
-0.5131,1.7878,-0.7856,0.2824,-1.7878,2.1886,-8.7045,-2.0799,-2.5377,1.0746,-0.2048,0.5798,-6.9077,0.2825,-4.4859,-0.7109
-0.5304,1.7938,-0.7811,0.276,-1.7717,2.1829,-8.7068,-2.084,-2.6483,1.0487,-0.2224,0.5671,-6.9132,0.2701,-4.5037,-0.7046
-0.5304,1.7938,-0.7811,0.276,-1.7717,2.1829,-8.7068,-2.084,-2.6483,1.0487,-0.2224,0.5671,-6.9132,0.2701,-4.5037,-0.7046
-0.5304,1.7938,-0.7811,0.276,-1.7717,2.1829,-8.7068,-2.084,-2.6483,1.0487,-0.2224,0.5671,-6.9132,0.2701,-4.5037,-0.7046
-0.5304,1.7938,-0.7689,0.2716,-1.7984,2.2039,-8.709,-2.0882,-2.6883,1.0143,-0.17,0.5297,-6.9558,0.2709,-4.5195,-0.7011
-0.5304,1.7938,-0.7689,0.2716,-1.7984,2.2039,-8.709,-2.0882,-2.6883,1.0143,-0.17,0.5297,-6.9558,0.2709,-4.5195,-0.7011
-0.5304,1.7938,-0.7523,0.2609,-1.8251,2.2248,-8.709,-2.0882,-2.6312,0.978,-0.1525,0.5235,-6.9438,0.2738,-4.5217,-0.7044
-0.5304,1.7938,-0.7523,0.2609,-1.8251,2.2248,-8.709,-2.0882,-2.6312,0.978,-0.1525,0.5235,-6.9438,0.2738,-4.5217,-0.7044
-0.4959,1.7817,-0.7523,0.2609,-1.8465,2.2382,-8.7182,-2.09,-2.5612,0.9694,-0.1408,0.5256,-6.9318,0.2767,-4.522,-0.7103
-0.4959,1.7817,-0.7523,0.2609,-1.8465,2.2382,-8.7182,-2.09,-2.5612,0.9694,-0.1408,0.5256,-6.9318,0.2767,-4.522,-0.7103
-0.4904,1.7737,-0.7556,0.2524,-1.8679,2.2515,-8.7296,-2.0885,-2.4909,0.9607,-0.1408,0.5256,-6.9198,0.2796,-4.5282,-0.7142
-0.4904,1.7737,-0.7556,0.2524,-1.8679,2.2515,-8.7296,-2.0885,-2.4909,0.9607,-0.1408,0.5256,-6.9198,0.2796,-4.5282,-0.7142
-0.4503,1.7535,-0.7633,0.2503,-1.8893,2.2648,-8.7433,-2.0911,-2.5058,0.9821,-0.1465,0.534,-6.9077,0.2825,-4.5326,-0.7208
-0.4503,1.7535,-0.7633,0.2503,-1.8893,2.2648,-8.7433,-2.0911,-2.5058,0.9821,-0.1465,0.534,-6.9077,0.2825,-4.5326,-0.7208
-0.4503,1.7535,-0.7633,0.2503,-1.8893,2.2648,-8.7433,-2.0911,-2.5058,0.9821,-0.1465,0.534,-6.9077,0.2825,-4.5326,-0.7208
-0.4158,1.7413,-0.7755,0.2546,-1.8893,2.2648,-8.7501,-2.0962,-2.4353,0.9734,-0.1639,0.559,-6.8957,0.2854,-4.5447,-0.7226
-0.4158,1.7413,-0.7755,0.2546,-1.8893,2.2648,-8.7501,-2.0962,-2.4353,0.9734,-0.1639,0.559,-6.8957,0.2854,-4.5447,-0.7226
-0.4219,1.7313,-0.791,0.2504,-1.9109,2.2609,-8.7752,-2.0973,-2.4502,0.9949,-0.1755,0.5758,-6.8771,0.2788,-4.5589,-0.7277
-0.4219,1.7313,-0.791,0.2504,-1.9109,2.2609,-8.7752,-2.0973,-2.4502,0.9949,-0.1755,0.5758,-6.8771,0.2788,-4.5589,-0.7277
-0.4219,1.7313,-0.791,0.2504,-1.9109,2.2609,-8.7752,-2.0973,-2.4502,0.9949,-0.1755,0.5758,-6.8771,0.2788,-4.5589,-0.7277
-0.4682,1.7416,-0.8032,0.2547,-1.9058,2.236,-8.782,-2.1098,-2.5931,1.0616,-0.2222,0.6049,-6.9077,0.2825,-4.6013,-0.737
-0.4682,1.7416,-0.8032,0.2547,-1.9058,2.236,-8.782,-2.1098,-2.5931,1.0616,-0.2222,0.6049,-6.9077,0.2825,-4.6013,-0.737
-0.4682,1.7416,-0.8032,0.2547,-1.9058,2.236,-8.782,-2.1098,-2.5931,1.0616,-0.2222,0.6049,-6.9077,0.2825,-4.6013,-0.737
-0.5081,1.7618,-0.8231,0.2569,-1.9113,2.2265,-8.7842,-2.1214,-2.6207,1.0551,-0.2164,0.5965,-6.9198,0.2796,-4.6195,-0.7427
-0.5653,1.788,-0.8309,0.2548,-1.9167,2.2169,-8.7888,-2.1298,-2.6483,1.0487,-0.2281,0.5943,-6.8946,0.2635,-4.6417,-0.749
-0.5653,1.788,-0.8309,0.2548,-1.9167,2.2169,-8.7888,-2.1298,-2.6483,1.0487,-0.2281,0.5943,-6.8946,0.2635,-4.6417,-0.749
-0.588,1.8021,-0.843,0.2591,-1.9007,2.2112,-8.8047,-2.1291,-2.6058,1.0337,-0.2281,0.5943,-6.876,0.2569,-4.6559,-0.7541
-0.588,1.8021,-0.843,0.2591,-1.9007,2.2112,-8.8047,-2.1291,-2.6058,1.0337,-0.2281,0.5943,-6.876,0.2569,-4.6559,-0.7541
-0.588,1.8021,-0.843,0.2591,-1.9007,2.2112,-8.8047,-2.1291,-2.6058,1.0337,-0.2281,0.5943,-6.876,0.2569,-4.6559,-0.7541
-0.588,1.8021,-0.843,0.2591,-1.9007,2.2112,-8.8047,-2.1291,-2.6058,1.0337,-0.2281,0.5943,-6.876,0.2569,-4.6559,-0.7541
-0.6399,1.8023,-0.8662,0.2528,-1.9009,2.1941,-8.8478,-2.1263,-2.6185,1.0058,-0.2107,0.5693,-6.8256,0.2248,-4.6998,-0.7607
-0.6399,1.8023,-0.8662,0.2528,-1.9009,2.1941,-8.8478,-2.1263,-2.6185,1.0058,-0.2107,0.5693,-6.8256,0.2248,-4.6998,-0.7607
-0.6399,1.8023,-0.8662,0.2528,-1.9009,2.1941,-8.8478,-2.1263,-2.6185,1.0058,-0.2107,0.5693,-6.8256,0.2248,-4.6998,-0.7607
-0.6805,1.7865,-0.8727,0.2358,-1.9332,2.1883,-8.8795,-2.125,-2.6883,1.0143,-0.2341,0.5649,-6.8497,0.2191,-4.7238,-0.7644
-0.6805,1.7865,-0.8727,0.2358,-1.9332,2.1883,-8.8795,-2.125,-2.6883,1.0143,-0.2341,0.5649,-6.8497,0.2191,-4.7238,-0.7644
-0.704,1.7647,-0.8671,0.2146,-1.9547,2.1844,-8.9111,-2.1237,-2.646,0.9993,-0.2341,0.5649,-6.8815,0.2446,-4.7473,-0.7621
-0.727,1.7608,-0.8748,0.2125,-1.9707,2.1901,-8.9291,-2.1273,-2.6883,1.0143,-0.24,0.5544,-6.9318,0.2767,-4.7712,-0.7657
-0.733,1.7509,-0.866,0.1998,-1.9654,2.1825,-8.9471,-2.1308,-2.6883,1.0143,-0.2517,0.5522,-6.9635,0.3022,-4.795,-0.7693
-0.733,1.7509,-0.866,0.1998,-1.9654,2.1825,-8.9471,-2.1308,-2.6883,1.0143,-0.2517,0.5522,-6.9635,0.3022,-4.795,-0.7693
-0.733,1.7509,-0.866,0.1998,-1.9654,2.1825,-8.9471,-2.1308,-2.6883,1.0143,-0.2517,0.5522,-6.9635,0.3022,-4.795,-0.7693
-0.7444,1.749,-0.8781,0.204,-1.9654,2.1825,-8.9606,-2.1334,-2.6735,0.9929,-0.2865,0.5646,-7.0072,0.3248,-4.8187,-0.773
-0.7444,1.749,-0.8781,0.204,-1.9654,2.1825,-8.9606,-2.1334,-2.6735,0.9929,-0.2865,0.5646,-7.0072,0.3248,-4.8187,-0.773
-0.7274,1.7429,-0.8902,0.2083,-1.9654,2.1825,-8.9673,-2.1385,-2.6312,0.978,-0.304,0.5707,-7.0191,0.3218,-4.8522,-0.7752
-0.7274,1.7429,-0.8902,0.2083,-1.9654,2.1825,-8.9673,-2.1385,-2.6312,0.978,-0.304,0.5707,-7.0191,0.3218,-4.8522,-0.7752
-0.7274,1.7429,-0.8902,0.2083,-1.9654,2.1825,-8.9673,-2.1385,-2.6312,0.978,-0.304,0.5707,-7.0191,0.3218,-4.8522,-0.7752
-0.7334,1.7331,-0.9221,0.2148,-1.9973,2.1938,-8.992,-2.1396,-2.5592,0.9203,-0.3214,0.5769,-7.0496,0.3254,-4.878,-0.7821
-0.7334,1.7331,-0.9221,0.2148,-1.9973,2.1938,-8.992,-2.1396,-2.5592,0.9203,-0.3214,0.5769,-7.0496,0.3254,-4.878,-0.7821
-0.7449,1.7311,-0.9539,0.2212,-2.008,2.1918,-9.0122,-2.1399,-2.4317,0.8753,-0.3271,0.5852,-7.043,0.316,-4.9034,-0.783
-0.7449,1.7311,-0.9539,0.2212,-2.008,2.1918,-9.0122,-2.1399,-2.4317,0.8753,-0.3271,0.5852,-7.043,0.316,-4.9034,-0.783
-0.7279,1.7251,-0.9868,0.2425,-1.9973,2.1938,-9.0234,-2.1384,-2.3168,0.8025,-0.3677,0.6058,-7.0353,0.2847,-4.9131,-0.7816
-0.7279,1.7251,-0.9868,0.2425,-1.9973,2.1938,-9.0234,-2.1384,-2.3168,0.8025,-0.3677,0.6058,-7.0353,0.2847,-4.9131,-0.7816
-0.7279,1.7251,-0.9868,0.2425,-1.9973,2.1938,-9.0234,-2.1384,-2.3168,0.8025,-0.3677,0.6058,-7.0353,0.2847,-4.9131,-0.7816
-0.6994,1.7211,-0.9925,0.2637,-1.9759,2.1976,-9.001,-2.134,-2.3595,0.8176,-0.3677,0.6058,-7.0102,0.2687,-4.8659,-0.7743
-0.6994,1.7211,-0.9925,0.2637,-1.9759,2.1976,-9.001,-2.134,-2.3595,0.8176,-0.3677,0.6058,-7.0102,0.2687,-4.8659,-0.7743
-0.6994,1.7211,-0.9925,0.2637,-1.9759,2.1976,-9.001,-2.134,-2.3595,0.8176,-0.3677,0.6058,-7.0102,0.2687,-4.8659,-0.7743
-0.6649,1.7269,-0.9663,0.2785,-1.9545,2.2015,-8.9494,-2.1275,-2.4169,0.854,-0.3445,0.6102,-6.9863,0.2745,-4.7773,-0.7696
-0.6187,1.7346,-0.9235,0.2827,-1.9062,2.2017,-8.8908,-2.116,-2.4613,0.9179,-0.298,0.6001,-6.9372,0.2643,-4.6857,-0.7557
-0.6187,1.7346,-0.9235,0.2827,-1.9062,2.2017,-8.8908,-2.116,-2.4613,0.9179,-0.298,0.6001,-6.9372,0.2643,-4.6857,-0.7557
-0.5724,1.7423,-0.8928,0.2912,-1.8578,2.2018,-8.8184,-2.1094,-2.5058,0.9821,-0.2573,0.5983,-6.8825,0.2664,-4.5896,-0.7412
-0.5724,1.7423,-0.8928,0.2912,-1.8578,2.2018,-8.8184,-2.1094,-2.5058,0.9821,-0.2573,0.5983,-6.8825,0.2664,-4.5896,-0.7412
-0.5547,1.7541,-0.8531,0.2868,-1.8148,2.1924,-8.7661,-2.103,-2.5782,1.0401,-0.2281,0.5943,-6.8705,0.2693,-4.5248,-0.7256
-0.5547,1.7541,-0.8531,0.2868,-1.8148,2.1924,-8.7661,-2.103,-2.5782,1.0401,-0.2281,0.5943,-6.8705,0.2693,-4.5248,-0.7256
-0.5314,1.7579,-0.8332,0.2847,-1.7878,2.1886,-8.725,-2.0951,-2.6483,1.0487,-0.2048,0.5798,-6.8771,0.2788,-4.4919,-0.7088
-0.5314,1.7579,-0.8332,0.2847,-1.7878,2.1886,-8.725,-2.0951,-2.6483,1.0487,-0.2048,0.5798,-6.8771,0.2788,-4.4919,-0.7088
-0.5314,1.7579,-0.8332,0.2847,-1.7878,2.1886,-8.725,-2.0951,-2.6483,1.0487,-0.2048,0.5798,-6.8771,0.2788,-4.4919,-0.7088
-0.4848,1.7657,-0.7933,0.2803,-1.7767,2.2077,-8.6884,-2.088,-2.6758,1.0422,-0.1639,0.559,-6.8957,0.2854,-4.4672,-0.6992
-0.4848,1.7657,-0.7933,0.2803,-1.7767,2.2077,-8.6884,-2.088,-2.6758,1.0422,-0.1639,0.559,-6.8957,0.2854,-4.4672,-0.6992
-0.4559,1.7615,-0.7811,0.276,-1.7711,2.2173,-8.6609,-2.0827,-2.6906,1.0636,-0.1171,0.5488,-6.8902,0.2978,-4.4448,-0.6929
-0.3923,1.7451,-0.7612,0.2737,-1.7708,2.2345,-8.638,-2.0783,-2.6058,1.0337,-0.0935,0.5531,-6.8595,0.2941,-4.4185,-0.692
-0.3923,1.7451,-0.7612,0.2737,-1.7708,2.2345,-8.638,-2.0783,-2.6058,1.0337,-0.0935,0.5531,-6.8595,0.2941,-4.4185,-0.692
-0.3577,1.7328,-0.7489,0.2694,-1.7817,2.2326,-8.6219,-2.079,-2.5356,1.0251,-0.0991,0.5804,-6.8353,0.2999,-4.4003,-0.6923
-0.3632,1.7409,-0.7489,0.2694,-1.7817,2.2326,-8.6104,-2.0806,-2.4651,1.0164,-0.1048,0.6078,-6.8232,0.3028,-4.3903,-0.6937
-0.3632,1.7409,-0.7489,0.2694,-1.7817,2.2326,-8.6104,-2.0806,-2.4651,1.0164,-0.1048,0.6078,-6.8232,0.3028,-4.3903,-0.6937
-0.3632,1.7409,-0.7489,0.2694,-1.7817,2.2326,-8.6104,-2.0806,-2.4651,1.0164,-0.1048,0.6078,-6.8232,0.3028,-4.3903,-0.6937
-0.3806,1.747,-0.7445,0.263,-1.8087,2.2364,-8.6012,-2.0863,-2.4651,1.0164,-0.1106,0.6162,-6.8232,0.3028,-4.3925,-0.6971
-0.3806,1.747,-0.7445,0.263,-1.8087,2.2364,-8.6012,-2.0863,-2.4651,1.0164,-0.1106,0.6162,-6.8232,0.3028,-4.3925,-0.6971
-0.3917,1.763,-0.7323,0.2587,-1.8034,2.2287,-8.592,-2.0921,-2.4522,1.0444,-0.1165,0.6246,-6.7858,0.2896,-4.4007,-0.6983
-0.3917,1.763,-0.7323,0.2587,-1.8034,2.2287,-8.592,-2.0921,-2.4522,1.0444,-0.1165,0.6246,-6.7858,0.2896,-4.4007,-0.6983
-0.4202,1.7852,-0.7445,0.263,-1.8196,2.2344,-8.5966,-2.093,-2.4522,1.0444,-0.1165,0.6246,-6.767,0.283,-4.4069,-0.7022
-0.4202,1.7852,-0.7445,0.263,-1.8196,2.2344,-8.5966,-2.093,-2.4522,1.0444,-0.1165,0.6246,-6.767,0.283,-4.4069,-0.7022
-0.4375,1.7913,-0.7323,0.2587,-1.8143,2.2268,-8.6012,-2.0938,-2.4522,1.0444,-0.1106,0.6162,-6.7041,0.2536,-4.411,-0.7028
-0.4375,1.7913,-0.7323,0.2587,-1.8143,2.2268,-8.6012,-2.0938,-2.4522,1.0444,-0.1106,0.6162,-6.7041,0.2536,-4.411,-0.7028
-0.4375,1.7913,-0.7323,0.2587,-1.8143,2.2268,-8.6012,-2.0938,-2.4522,1.0444,-0.1106,0.6162,-6.7041,0.2536,-4.411,-0.7028
-0.4664,1.7955,-0.74,0.2566,-1.8198,2.2172,-8.6219,-2.0865,-2.4522,1.0444,-0.1106,0.6162,-6.6665,0.2403,-4.421,-0.7013
-0.4781,1.7936,-0.7356,0.2502,-1.8145,2.2096,-8.6334,-2.085,-2.4522,1.0444,-0.1106,0.6162,-6.6477,0.2336,-4.4251,-0.7019
-0.4781,1.7936,-0.7356,0.2502,-1.8145,2.2096,-8.6334,-2.085,-2.4522,1.0444,-0.1106,0.6162,-6.6477,0.2336,-4.4251,-0.7019
-0.4959,1.7817,-0.7267,0.2373,-1.8309,2.1981,-8.6518,-2.081,-2.4522,1.0444,-0.093,0.61,-6.6477,0.2336,-4.4291,-0.7025
-0.4959,1.7817,-0.7267,0.2373,-1.8309,2.1981,-8.6518,-2.081,-2.4522,1.0444,-0.093,0.61,-6.6477,0.2336,-4.4291,-0.7025
-0.4904,1.7737,-0.7223,0.2309,-1.8417,2.1961,-8.6678,-2.0803,-2.4522,1.0444,-0.0695,0.5953,-6.6797,0.2593,-4.4313,-0.7058
-0.4904,1.7737,-0.7223,0.2309,-1.8417,2.1961,-8.6678,-2.0803,-2.4522,1.0444,-0.0695,0.5953,-6.6797,0.2593,-4.4313,-0.7058
-0.4793,1.7576,-0.7267,0.2373,-1.8417,2.1961,-8.6678,-2.0878,-2.3794,0.9861,-0.0814,0.5932,-6.7173,0.2726,-4.4457,-0.7109
-0.4793,1.7576,-0.7267,0.2373,-1.8417,2.1961,-8.6678,-2.0878,-2.3794,0.9861,-0.0814,0.5932,-6.7173,0.2726,-4.4457,-0.7109
-0.4793,1.7576,-0.7267,0.2373,-1.8417,2.1961,-8.6678,-2.0878,-2.3794,0.9861,-0.0814,0.5932,-6.7173,0.2726,-4.4457,-0.7109
-0.4793,1.7576,-0.7267,0.2373,-1.8417,2.1961,-8.6678,-2.0878,-2.3794,0.9861,-0.0814,0.5932,-6.7173,0.2726,-4.4457,-0.7109
-0.4737,1.7496,-0.76,0.2588,-1.8417,2.1961,-8.6838,-2.0946,-2.2503,0.9405,-0.0932,0.591,-6.7736,0.2925,-4.4645,-0.7226
-0.4737,1.7496,-0.76,0.2588,-1.8417,2.1961,-8.6838,-2.0946,-2.2503,0.9405,-0.0932,0.591,-6.7736,0.2925,-4.4645,-0.7226
-0.4909,1.7557,-0.7767,0.2695,-1.847,2.2038,-8.6907,-2.0997,-2.2503,0.9405,-0.0932,0.591,-6.8045,0.2962,-4.4788,-0.7276
-0.4909,1.7557,-0.7767,0.2695,-1.847,2.2038,-8.6907,-2.0997,-2.2503,0.9405,-0.0932,0.591,-6.8045,0.2962,-4.4788,-0.7276
-0.5081,1.7618,-0.7966,0.2717,-1.8578,2.2018,-8.7021,-2.1056,-2.2802,0.9836,-0.099,0.5994,-6.8232,0.3028,-4.4813,-0.7369
-0.5081,1.7618,-0.7966,0.2717,-1.8578,2.2018,-8.7021,-2.1056,-2.2802,0.9836,-0.099,0.5994,-6.8232,0.3028,-4.4813,-0.7369
-0.5309,1.7759,-0.8088,0.276,-1.8256,2.1904,-8.7181,-2.105,-2.3533,1.0421,-0.0932,0.591,-6.8287,0.2904,-4.4938,-0.7447
-0.5309,1.7759,-0.8088,0.276,-1.8256,2.1904,-8.7181,-2.105,-2.3533,1.0421,-0.0932,0.591,-6.8287,0.2904,-4.4938,-0.7447
-0.5309,1.7759,-0.8044,0.2696,-1.7986,2.1867,-8.725,-2.11,-2.3833,1.0854,-0.0932,0.591,-6.8287,0.2904,-4.5158,-0.745
-0.5309,1.7759,-0.8044,0.2696,-1.7986,2.1867,-8.725,-2.11,-2.3833,1.0854,-0.0932,0.591,-6.8287,0.2904,-4.5158,-0.745
-0.5309,1.7759,-0.8044,0.2696,-1.7986,2.1867,-8.725,-2.11,-2.3833,1.0854,-0.0932,0.591,-6.8287,0.2904,-4.5158,-0.745
-0.5253,1.7679,-0.7999,0.2632,-1.7664,2.1753,-8.741,-2.1094,-2.525,1.1028,-0.1167,0.5866,-6.8463,0.2751,-4.5518,-0.7444
-0.5486,1.764,-0.791,0.2504,-1.7611,2.1677,-8.7524,-2.1153,-2.5931,1.0616,-0.1169,0.5677,-6.8573,0.2504,-4.5936,-0.7418
-0.5486,1.764,-0.791,0.2504,-1.7611,2.1677,-8.7524,-2.1153,-2.5931,1.0616,-0.1169,0.5677,-6.8573,0.2504,-4.5936,-0.7418
-0.5547,1.7541,-0.7988,0.2483,-1.7772,2.1734,-8.7729,-2.1155,-2.6483,1.0487,-0.0877,0.5447,-6.8815,0.2446,-4.6236,-0.7433
-0.5724,1.7423,-0.8143,0.2441,-1.8309,2.1981,-8.7911,-2.119,-2.7032,1.0357,-0.0937,0.5342,-6.8935,0.2417,-4.6535,-0.7449
-0.5724,1.7423,-0.8143,0.2441,-1.8309,2.1981,-8.7911,-2.119,-2.7032,1.0357,-0.0937,0.5342,-6.8935,0.2417,-4.6535,-0.7449
-0.5724,1.7423,-0.8143,0.2441,-1.8309,2.1981,-8.7911,-2.119,-2.7032,1.0357,-0.0937,0.5342,-6.8935,0.2417,-4.6535,-0.7449
-0.5668,1.7343,-0.8341,0.2463,-1.8523,2.2114,-8.8047,-2.1217,-2.6609,1.0207,-0.0819,0.5364,-6.8935,0.2417,-4.6695,-0.7473
-0.5668,1.7343,-0.8341,0.2463,-1.8523,2.2114,-8.8047,-2.1217,-2.6609,1.0207,-0.0819,0.5364,-6.8935,0.2417,-4.6695,-0.7473
-0.5386,1.7123,-0.8584,0.2549,-1.8791,2.2151,-8.8183,-2.1243,-2.6312,0.978,-0.1229,0.5572,-6.9056,0.2388,-4.6953,-0.7483
-0.5386,1.7123,-0.8584,0.2549,-1.8791,2.2151,-8.8183,-2.1243,-2.6312,0.978,-0.1229,0.5572,-6.9056,0.2388,-4.6953,-0.7483
-0.5447,1.7024,-0.8662,0.2528,-1.906,2.2189,-8.8251,-2.1293,-2.6037,0.9844,-0.1227,0.5761,-6.8935,0.2417,-4.7072,-0.7501
-0.5447,1.7024,-0.8662,0.2528,-1.906,2.2189,-8.8251,-2.1293,-2.6037,0.9844,-0.1227,0.5761,-6.8935,0.2417,-4.7072,-0.7501
-0.5447,1.7024,-0.8662,0.2528,-1.906,2.2189,-8.8251,-2.1293,-2.6037,0.9844,-0.1227,0.5761,-6.8935,0.2417,-4.7072,-0.7501
-0.5447,1.7024,-0.8617,0.2464,-1.9007,2.2112,-8.8137,-2.1383,-2.5888,0.963,-0.1579,0.5885,-6.9056,0.2388,-4.7253,-0.7558
-0.5447,1.7024,-0.8617,0.2464,-1.9007,2.2112,-8.8137,-2.1383,-2.5888,0.963,-0.1579,0.5885,-6.9056,0.2388,-4.7253,-0.7558
-0.5447,1.7024,-0.8617,0.2464,-1.9007,2.2112,-8.8137,-2.1383,-2.5888,0.963,-0.1579,0.5885,-6.9056,0.2388,-4.7253,-0.7558
-0.579,1.7145,-0.8771,0.2422,-1.8954,2.2036,-8.8182,-2.1466,-2.5888,0.963,-0.1754,0.5947,-6.9056,0.2388,-4.7317,-0.7656
-0.579,1.7145,-0.8771,0.2422,-1.8954,2.2036,-8.8182,-2.1466,-2.5888,0.963,-0.1754,0.5947,-6.9056,0.2388,-4.7317,-0.7656
-0.6363,1.7227,-0.92,0.2381,-1.9064,2.1846,-8.8681,-2.1414,-2.6587,0.9716,-0.234,0.5838,-6.8739,0.2134,-4.7815,-0.7761
-0.6363,1.7227,-0.92,0.2381,-1.9064,2.1846,-8.8681,-2.1414,-2.6587,0.9716,-0.234,0.5838,-6.8739,0.2134,-4.7815,-0.7761
-0.6363,1.7227,-0.92,0.2381,-1.9064,2.1846,-8.8681,-2.1414,-2.6587,0.9716,-0.234,0.5838,-6.8739,0.2134,-4.7815,-0.7761
-0.6764,1.7249,-0.9309,0.2275,-1.9279,2.1807,-8.8975,-2.136,-2.7009,0.9865,-0.2399,0.5733,-6.8925,0.2199,-4.8111,-0.7777
-0.7109,1.7191,-0.9177,0.2084,-1.9494,2.1768,-8.9314,-2.1314,-2.7283,0.9801,-0.2516,0.5711,-6.911,0.2265,-4.837,-0.7845
-0.7109,1.7191,-0.9177,0.2084,-1.9494,2.1768,-8.9314,-2.1314,-2.7283,0.9801,-0.2516,0.5711,-6.911,0.2265,-4.837,-0.7845
-0.7339,1.7153,-0.9209,0.2,-1.9814,2.1881,-8.9561,-2.1326,-2.6861,0.9652,-0.2574,0.5606,-6.9481,0.2396,-4.8606,-0.7882
-0.7454,1.7133,-0.9286,0.1979,-1.9921,2.1862,-8.9696,-2.1352,-2.6292,0.9289,-0.2459,0.5439,-6.9732,0.2556,-4.8764,-0.7906
-0.7454,1.7133,-0.9286,0.1979,-1.9921,2.1862,-8.9696,-2.1352,-2.6292,0.9289,-0.2459,0.5439,-6.9732,0.2556,-4.8764,-0.7906
-0.7454,1.7133,-0.9286,0.1979,-1.9921,2.1862,-8.9696,-2.1352,-2.6292,0.9289,-0.2459,0.5439,-6.9732,0.2556,-4.8764,-0.7906
-0.7339,1.7153,-0.9253,0.2063,-1.9654,2.1825,-8.9651,-2.1343,-2.4743,0.8903,-0.2342,0.5461,-6.9863,0.2745,-4.8664,-0.7861
-0.7339,1.7153,-0.9253,0.2063,-1.9654,2.1825,-8.9651,-2.1343,-2.4743,0.8903,-0.2342,0.5461,-6.9863,0.2745,-4.8664,-0.7861
-0.7339,1.7153,-0.9253,0.2063,-1.9654,2.1825,-8.9651,-2.1343,-2.4743,0.8903,-0.2342,0.5461,-6.9863,0.2745,-4.8664,-0.7861
-0.7054,1.7112,-0.9221,0.2148,-1.9547,2.1844,-8.9426,-2.1299,-2.389,0.8602,-0.205,0.5421,-6.9743,0.2774,-4.8248,-0.7768
-0.6423,1.7129,-0.8958,0.2295,-1.9064,2.1846,-8.8817,-2.1292,-2.2324,0.8209,-0.1757,0.5569,-6.9318,0.2767,-4.7532,-0.76
-0.6423,1.7129,-0.8958,0.2295,-1.9064,2.1846,-8.8817,-2.1292,-2.2324,0.8209,-0.1757,0.5569,-6.9318,0.2767,-4.7532,-0.76
-0.5674,1.7164,-0.8662,0.2528,-1.8686,2.1999,-8.8115,-2.1193,-2.1759,0.8332,-0.1404,0.5634,-6.9012,0.273,-4.6513,-0.7416
-0.5674,1.7164,-0.8662,0.2528,-1.8686,2.1999,-8.8115,-2.1193,-2.1759,0.8332,-0.1404,0.5634,-6.9012,0.273,-4.6513,-0.7416
-0.5674,1.7164,-0.8662,0.2528,-1.8686,2.1999,-8.8115,-2.1193,-2.1759,0.8332,-0.1404,0.5634,-6.9012,0.273,-4.6513,-0.7416
-0.4743,1.7317,-0.8088,0.276,-1.7875,2.2058,-8.6907,-2.0922,-2.2951,1.0052,-0.0579,0.5785,-6.8222,0.2809,-4.4719,-0.7118
-0.4743,1.7317,-0.8088,0.276,-1.7875,2.2058,-8.6907,-2.0922,-2.2951,1.0052,-0.0579,0.5785,-6.8222,0.2809,-4.4719,-0.7118
-0.4743,1.7317,-0.8088,0.276,-1.7875,2.2058,-8.6907,-2.0922,-2.2951,1.0052,-0.0579,0.5785,-6.8222,0.2809,-4.4719,-0.7118
-0.4392,1.7374,-0.7734,0.2781,-1.7334,2.1982,-8.6334,-2.085,-2.3402,1.0702,-0.0519,0.5891,-6.7726,0.2706,-4.4188,-0.698
-0.4392,1.7374,-0.7734,0.2781,-1.7334,2.1982,-8.6334,-2.085,-2.3402,1.0702,-0.0519,0.5891,-6.7726,0.2706,-4.4188,-0.698
-0.4213,1.7493,-0.7534,0.2758,-1.6901,2.1887,-8.5943,-2.0737,-2.3553,1.0919,-0.0282,0.5934,-6.7483,0.2763,-4.3778,-0.6859
-0.4213,1.7493,-0.7534,0.2758,-1.6901,2.1887,-8.5943,-2.0737,-2.3553,1.0919,-0.0282,0.5934,-6.7483,0.2763,-4.3778,-0.6859
-0.3923,1.7451,-0.7456,0.278,-1.6739,2.1829,-8.5666,-2.0685,-2.3553,1.0919,-0.0163,0.5956,-6.7295,0.2697,-4.3529,-0.6763
-0.3923,1.7451,-0.7456,0.278,-1.6739,2.1829,-8.5666,-2.0685,-2.3553,1.0919,-0.0163,0.5956,-6.7295,0.2697,-4.3529,-0.6763
-0.3806,1.747,-0.7289,0.2672,-1.6577,2.1772,-8.5481,-2.0649,-2.3833,1.0854,0.0014,0.5893,-6.7107,0.2631,-4.3363,-0.6679
-0.3806,1.747,-0.7289,0.2672,-1.6577,2.1772,-8.5481,-2.0649,-2.3833,1.0854,0.0014,0.5893,-6.7107,0.2631,-4.3363,-0.6679
-0.3688,1.7489,-0.7212,0.2693,-1.6792,2.1906,-8.5273,-2.0648,-2.3813,1.0357,0.0485,0.56,-6.7163,0.2507,-4.3341,-0.6645
-0.3688,1.7489,-0.7212,0.2693,-1.6792,2.1906,-8.5273,-2.0648,-2.3813,1.0357,0.0485,0.56,-6.7163,0.2507,-4.3341,-0.6645
-0.3515,1.7428,-0.7045,0.2586,-1.7007,2.204,-8.5227,-2.0639,-2.3533,1.0421,0.084,0.5474,-6.7041,0.2536,-4.3221,-0.6688
-0.3515,1.7428,-0.7045,0.2586,-1.7007,2.204,-8.5227,-2.0639,-2.3533,1.0421,0.084,0.5474,-6.7041,0.2536,-4.3221,-0.6688
-0.3459,1.7347,-0.7122,0.2565,-1.7332,2.2154,-8.525,-2.0681,-2.252,0.99,0.0959,0.5496,-6.7107,0.2631,-4.3224,-0.6748
-0.3112,1.7225,-0.7122,0.2565,-1.7494,2.2212,-8.5296,-2.069,-2.2237,0.9963,0.0962,0.5685,-6.6985,0.2659,-4.3246,-0.6781
-0.3112,1.7225,-0.7122,0.2565,-1.7494,2.2212,-8.5296,-2.069,-2.2237,0.9963,0.0962,0.5685,-6.6985,0.2659,-4.3246,-0.6781
-0.3112,1.7225,-0.7122,0.2565,-1.7494,2.2212,-8.5296,-2.069,-2.2237,0.9963,0.0962,0.5685,-6.6985,0.2659,-4.3246,-0.6781
-0.2994,1.7244,-0.6922,0.2542,-1.7547,2.2288,-8.5365,-2.0665,-2.1953,1.0026,0.0728,0.6023,-6.6863,0.2688,-4.325,-0.6841
-0.2994,1.7244,-0.6922,0.2542,-1.7547,2.2288,-8.5365,-2.0665,-2.1953,1.0026,0.0728,0.6023,-6.6863,0.2688,-4.325,-0.6841
-0.2994,1.7244,-0.6922,0.2542,-1.7547,2.2288,-8.5365,-2.0665,-2.1953,1.0026,0.0728,0.6023,-6.6863,0.2688,-4.325,-0.6841
-0.2994,1.7244,-0.6922,0.2542,-1.7655,2.2269,-8.525,-2.0756,-2.182,1.0307,0.073,0.6213,-6.6807,0.2812,-4.3171,-0.689
-0.2994,1.7244,-0.6922,0.2542,-1.7655,2.2269,-8.525,-2.0756,-2.182,1.0307,0.073,0.6213,-6.6807,0.2812,-4.3171,-0.689
-0.3223,1.7385,-0.6922,0.2542,-1.7655,2.2269,-8.5227,-2.079,-2.2122,1.0742,0.0791,0.632,-6.6496,0.2775,-4.3111,-0.6911
-0.3223,1.7385,-0.6922,0.2542,-1.7655,2.2269,-8.5227,-2.079,-2.2122,1.0742,0.0791,0.632,-6.6496,0.2775,-4.3111,-0.6911
-0.4213,1.7493,-0.6911,0.2393,-1.7822,2.1982,-8.5574,-2.0742,-2.2405,1.0678,0.1206,0.6109,-6.5674,0.2412,-4.3152,-0.6917
-0.4213,1.7493,-0.6911,0.2393,-1.7822,2.1982,-8.5574,-2.0742,-2.2405,1.0678,0.1206,0.6109,-6.5674,0.2412,-4.3152,-0.6917
-0.4565,1.7435,-0.6778,0.2201,-1.8039,2.1943,-8.5758,-2.0777,-2.2839,1.0831,0.1443,0.5961,-6.5674,0.2412,-4.3193,-0.6923
-0.4565,1.7435,-0.6778,0.2201,-1.8039,2.1943,-8.5758,-2.0777,-2.2839,1.0831,0.1443,0.5961,-6.5674,0.2412,-4.3193,-0.6923
-0.4392,1.7374,-0.6822,0.2265,-1.7878,2.1886,-8.5804,-2.0786,-2.2839,1.0831,0.1502,0.5877,-6.5996,0.267,-4.3275,-0.6935
-0.4392,1.7374,-0.6822,0.2265,-1.7878,2.1886,-8.5804,-2.0786,-2.2839,1.0831,0.1502,0.5877,-6.5996,0.267,-4.3275,-0.6935
-0.4392,1.7374,-0.6822,0.2265,-1.7878,2.1886,-8.5804,-2.0786,-2.2839,1.0831,0.1502,0.5877,-6.5996,0.267,-4.3275,-0.6935
-0.4509,1.7355,-0.7111,0.2415,-1.8039,2.1943,-8.5989,-2.0821,-2.2537,1.0396,0.1145,0.6003,-6.6562,0.287,-4.3439,-0.6959
-0.4509,1.7355,-0.7111,0.2415,-1.8039,2.1943,-8.5989,-2.0821,-2.2537,1.0396,0.1145,0.6003,-6.6562,0.287,-4.3439,-0.6959
-0.4509,1.7355,-0.7111,0.2415,-1.8039,2.1943,-8.5989,-2.0821,-2.2537,1.0396,0.1145,0.6003,-6.6562,0.287,-4.3439,-0.6959
-0.4454,1.7275,-0.7323,0.2587,-1.8039,2.1943,-8.6035,-2.0905,-2.167,1.009,0.1265,0.6025,-6.6629,0.2966,-4.3621,-0.6956
-0.4454,1.7275,-0.7323,0.2587,-1.8039,2.1943,-8.6035,-2.0905,-2.167,1.009,0.1265,0.6025,-6.6629,0.2966,-4.3621,-0.6956
-0.4454,1.7275,-0.7445,0.263,-1.8253,2.2076,-8.6173,-2.0932,-2.1235,0.9936,0.1145,0.6003,-6.6817,0.3032,-4.3687,-0.7055
-0.4454,1.7275,-0.7445,0.263,-1.8253,2.2076,-8.6173,-2.0932,-2.1235,0.9936,0.1145,0.6003,-6.6817,0.3032,-4.3687,-0.7055
-0.4454,1.7275,-0.7445,0.263,-1.8253,2.2076,-8.6173,-2.0932,-2.1235,0.9936,0.1145,0.6003,-6.6817,0.3032,-4.3687,-0.7055
-0.4571,1.7256,-0.7722,0.2631,-1.8039,2.1943,-8.6449,-2.1059,-2.2104,1.0243,0.0847,0.6044,-6.6619,0.2746,-4.3801,-0.728
-0.4571,1.7256,-0.7722,0.2631,-1.8039,2.1943,-8.6449,-2.1059,-2.2104,1.0243,0.0847,0.6044,-6.6619,0.2746,-4.3801,-0.728
-0.4859,1.7298,-0.7955,0.2568,-1.7933,2.1791,-8.6701,-2.107,-2.2688,1.0613,0.0906,0.596,-6.6486,0.2555,-4.4026,-0.7342
-0.4859,1.7298,-0.7955,0.2568,-1.7933,2.1791,-8.6701,-2.107,-2.2688,1.0613,0.0906,0.596,-6.6486,0.2555,-4.4026,-0.7342
-0.4976,1.7279,-0.7988,0.2483,-1.7881,2.1715,-8.6884,-2.1105,-2.3252,1.0485,0.0667,0.5917,-6.6731,0.2498,-4.4448,-0.7315
-0.4976,1.7279,-0.7988,0.2483,-1.7881,2.1715,-8.6884,-2.1105,-2.3252,1.0485,0.0667,0.5917,-6.6731,0.2498,-4.4448,-0.7315
-0.4976,1.7279,-0.7988,0.2483,-1.7881,2.1715,-8.6884,-2.1105,-2.3252,1.0485,0.0667,0.5917,-6.6731,0.2498,-4.4448,-0.7315
-0.5093,1.726,-0.8021,0.2398,-1.8095,2.1848,-8.7067,-2.114,-2.4243,1.0508,0.0723,0.5642,-6.7097,0.2412,-4.485,-0.7315
-0.5093,1.726,-0.8021,0.2398,-1.8095,2.1848,-8.7067,-2.114,-2.4243,1.0508,0.0723,0.5642,-6.7097,0.2412,-4.485,-0.7315
-0.4638,1.6979,-0.8054,0.2313,-1.8523,2.2114,-8.7387,-2.1201,-2.5078,1.0315,0.0543,0.5516,-6.7594,0.2516,-4.5515,-0.7385
-0.4638,1.6979,-0.8054,0.2313,-1.8523,2.2114,-8.7387,-2.1201,-2.5078,1.0315,0.0543,0.5516,-6.7594,0.2516,-4.5515,-0.7385
-0.4638,1.6979,-0.8054,0.2313,-1.8523,2.2114,-8.7387,-2.1201,-2.5078,1.0315,0.0543,0.5516,-6.7594,0.2516,-4.5515,-0.7385
-0.4583,1.6899,-0.8176,0.2356,-1.8523,2.2114,-8.741,-2.1243,-2.4502,0.9949,0.0427,0.5684,-6.7594,0.2516,-4.5679,-0.7468
-0.4583,1.6899,-0.8176,0.2356,-1.8523,2.2114,-8.741,-2.1243,-2.4502,0.9949,0.0427,0.5684,-6.7594,0.2516,-4.5679,-0.7468
-0.4583,1.6899,-0.8176,0.2356,-1.8523,2.2114,-8.741,-2.1243,-2.4502,0.9949,0.0427,0.5684,-6.7594,0.2516,-4.5679,-0.7468
-0.4699,1.688,-0.8209,0.2271,-1.8631,2.2094,-8.7387,-2.1351,-2.4502,0.9949,0.031,0.5852,-6.7594,0.2516,-4.5843,-0.7552
-0.4699,1.688,-0.8209,0.2271,-1.8631,2.2094,-8.7387,-2.1351,-2.4502,0.9949,0.031,0.5852,-6.7594,0.2516,-4.5843,-0.7552
-0.5098,1.7081,-0.8407,0.2293,-1.8739,2.2075,-8.7523,-2.1377,-2.4502,0.9949,0.0074,0.5999,-6.7594,0.2516,-4.6047,-0.7641
-0.5098,1.7081,-0.8407,0.2293,-1.8739,2.2075,-8.7523,-2.1377,-2.4502,0.9949,0.0074,0.5999,-6.7594,0.2516,-4.6047,-0.7641
-0.5098,1.7081,-0.8407,0.2293,-1.8739,2.2075,-8.7523,-2.1377,-2.4502,0.9949,0.0074,0.5999,-6.7594,0.2516,-4.6047,-0.7641
-0.5779,1.7502,-0.8848,0.2401,-1.8794,2.198,-8.7842,-2.1438,-2.4651,1.0164,-0.0045,0.5977,-6.7528,0.2421,-4.6571,-0.7779
-0.5779,1.7502,-0.8848,0.2401,-1.8794,2.198,-8.7842,-2.1438,-2.4651,1.0164,-0.0045,0.5977,-6.7528,0.2421,-4.6571,-0.7779
-0.6066,1.7543,-0.9002,0.2359,-1.8794,2.198,-8.8183,-2.1392,-2.4372,1.0228,0.0014,0.5893,-6.7153,0.2288,-4.6829,-0.7788
-0.6066,1.7543,-0.9002,0.2359,-1.8794,2.198,-8.8183,-2.1392,-2.4372,1.0228,0.0014,0.5893,-6.7153,0.2288,-4.6829,-0.7788
-0.6066,1.7543,-0.9002,0.2359,-1.8794,2.198,-8.8183,-2.1392,-2.4372,1.0228,0.0014,0.5893,-6.7153,0.2288,-4.6829,-0.7788
-0.6127,1.7444,-0.92,0.2381,-1.8901,2.196,-8.8455,-2.137,-2.4651,1.0164,-0.0342,0.5828,-6.7143,0.207,-4.7206,-0.7815
-0.6127,1.7444,-0.92,0.2381,-1.8901,2.196,-8.8455,-2.137,-2.4651,1.0164,-0.0342,0.5828,-6.7143,0.207,-4.7206,-0.7815
-0.6127,1.7444,-0.92,0.2381,-1.8901,2.196,-8.8455,-2.137,-2.4651,1.0164,-0.0342,0.5828,-6.7143,0.207,-4.7206,-0.7815
-0.6418,1.7307,-0.9188,0.2232,-1.8904,2.1789,-8.8907,-2.1309,-2.4929,1.01,-0.046,0.5807,-6.689,0.1909,-4.7525,-0.7864
-0.6313,1.697,-0.9012,0.1978,-1.9279,2.1807,-8.9336,-2.1356,-2.5058,0.9821,-0.0639,0.568,-6.7321,0.1918,-4.8165,-0.8078
-0.6313,1.697,-0.9012,0.1978,-1.9279,2.1807,-8.9336,-2.1356,-2.5058,0.9821,-0.0639,0.568,-6.7321,0.1918,-4.8165,-0.8078
-0.6313,1.697,-0.9012,0.1978,-1.9279,2.1807,-8.9336,-2.1356,-2.5058,0.9821,-0.0639,0.568,-6.7321,0.1918,-4.8165,-0.8078
-0.6203,1.6811,-0.9012,0.1978,-1.9279,2.1807,-8.9381,-2.1365,-2.4761,0.9393,-0.0641,0.549,-6.7817,0.2022,-4.8484,-0.8185
-0.6203,1.6811,-0.9012,0.1978,-1.9279,2.1807,-8.9381,-2.1365,-2.4761,0.9393,-0.0641,0.549,-6.7817,0.2022,-4.8484,-0.8185
-0.6032,1.6751,-0.91,0.2105,-1.9117,2.1922,-8.9133,-2.1353,-2.4186,0.9028,-0.0583,0.5407,-6.8321,0.2343,-4.8526,-0.825
-0.6032,1.6751,-0.91,0.2105,-1.9117,2.1922,-8.9133,-2.1353,-2.4186,0.9028,-0.0583,0.5407,-6.8321,0.2343,-4.8526,-0.825
-0.6032,1.6751,-0.91,0.2105,-1.9117,2.1922,-8.9133,-2.1353,-2.4186,0.9028,-0.0583,0.5407,-6.8321,0.2343,-4.8526,-0.825
-0.5685,1.6808,-0.8837,0.2252,-1.8901,2.196,-8.8772,-2.1283,-2.2902,0.8575,-0.0641,0.549,-6.8266,0.2467,-4.8249,-0.8208
-0.5685,1.6808,-0.8837,0.2252,-1.8901,2.196,-8.8772,-2.1283,-2.2902,0.8575,-0.0641,0.549,-6.8266,0.2467,-4.8249,-0.8208
-0.5337,1.6865,-0.8739,0.2507,-1.8578,2.2018,-8.8183,-2.1243,-2.2041,0.8271,-0.0346,0.545,-6.8145,0.2495,-4.7674,-0.8091
-0.5337,1.6865,-0.8739,0.2507,-1.8578,2.2018,-8.8183,-2.1243,-2.2041,0.8271,-0.0346,0.545,-6.8145,0.2495,-4.7674,-0.8091
-0.4693,1.7058,-0.8276,0.2633,-1.7984,2.2039,-8.7592,-2.1129,-2.1759,0.8332,-0.0109,0.5492,-6.7969,0.2648,-4.6875,-0.7912
-0.4398,1.7195,-0.8088,0.276,-1.7496,2.2039,-8.6884,-2.1105,-2.1922,0.9037,0.007,0.5619,-6.766,0.2611,-4.5954,-0.7775
-0.4398,1.7195,-0.8088,0.276,-1.7496,2.2039,-8.6884,-2.1105,-2.1922,0.9037,0.007,0.5619,-6.766,0.2611,-4.5954,-0.7775
-0.4102,1.7333,-0.7811,0.276,-1.7116,2.2021,-8.6449,-2.1059,-2.1803,0.981,0.0427,0.5684,-6.7295,0.2697,-4.5109,-0.765
-0.4102,1.7333,-0.7811,0.276,-1.7116,2.2021,-8.6449,-2.1059,-2.1803,0.981,0.0427,0.5684,-6.7295,0.2697,-4.5109,-0.765
-0.375,1.739,-0.7567,0.2673,-1.6736,2.2002,-8.6104,-2.1031,-2.2556,1.0895,0.0723,0.5642,-6.6985,0.2659,-4.4424,-0.7608
-0.375,1.739,-0.7567,0.2673,-1.6736,2.2002,-8.6104,-2.1031,-2.2556,1.0895,0.0723,0.5642,-6.6985,0.2659,-4.4424,-0.7608
-0.3515,1.7428,-0.7323,0.2587,-1.6354,2.1982,-8.5851,-2.102,-2.2728,1.1616,0.0962,0.5685,-6.6863,0.2688,-4.4058,-0.7554
-0.3515,1.7428,-0.7323,0.2587,-1.6354,2.1982,-8.5851,-2.102,-2.2728,1.1616,0.0962,0.5685,-6.6863,0.2688,-4.4058,-0.7554
-0.3335,1.7546,-0.7122,0.2565,-1.5645,2.1848,-8.562,-2.0977,-2.2749,1.212,0.1321,0.575,-6.643,0.2679,-4.3796,-0.7546
-0.3335,1.7546,-0.7122,0.2565,-1.5645,2.1848,-8.562,-2.0977,-2.2749,1.212,0.1321,0.575,-6.643,0.2679,-4.3796,-0.7546
-0.3279,1.7466,-0.7,0.2521,-1.5482,2.179,-8.5597,-2.0935,-2.3032,1.2054,0.1321,0.575,-6.643,0.2679,-4.3695,-0.7561
-0.3279,1.7466,-0.7,0.2521,-1.5482,2.179,-8.5597,-2.0935,-2.3032,1.2054,0.1321,0.575,-6.643,0.2679,-4.3695,-0.7561
-0.3279,1.7466,-0.7,0.2521,-1.5482,2.179,-8.5597,-2.0935,-2.3032,1.2054,0.1321,0.575,-6.643,0.2679,-4.3695,-0.7561
-0.3335,1.7546,-0.6877,0.2478,-1.5482,2.179,-8.5481,-2.095,-2.3314,1.1988,0.1678,0.5623,-6.6364,0.2584,-4.3755,-0.754
-0.3335,1.7546,-0.6877,0.2478,-1.5482,2.179,-8.5481,-2.095,-2.3314,1.1988,0.1678,0.5623,-6.6364,0.2584,-4.3755,-0.754
-0.3335,1.7546,-0.7045,0.2586,-1.5699,2.1924,-8.5481,-2.095,-2.3422,1.1201,0.1795,0.5455,-6.6543,0.2431,-4.3877,-0.7558
-0.3335,1.7546,-0.7045,0.2586,-1.5699,2.1924,-8.5481,-2.095,-2.3422,1.1201,0.1795,0.5455,-6.6543,0.2431,-4.3877,-0.7558
-0.3335,1.7546,-0.7045,0.2586,-1.5699,2.1924,-8.5481,-2.095,-2.3422,1.1201,0.1795,0.5455,-6.6543,0.2431,-4.3877,-0.7558
-0.305,1.7324,-0.7089,0.265,-1.6241,2.2174,-8.5528,-2.0959,-2.3252,1.0485,0.2094,0.5413,-6.6477,0.2336,-4.3981,-0.7602
-0.305,1.7324,-0.7089,0.265,-1.6241,2.2174,-8.5528,-2.0959,-2.3252,1.0485,0.2094,0.5413,-6.6477,0.2336,-4.3981,-0.7602
