8.4167,-35.438,-30.872,30.771,43.216,-84.678,13.087,-4.0952,-21.348,41.577,-21.772,51.31,-6.9221,-10.848,-10.042,8.1575
8.7821,-36.366,-30.921,30.475,43.243,-85.142,13.06,-4.2917,-21.15,40.792,-21.551,50.503,-6.9301,-11.183,-9.7981,7.8536
9.1479,-37.293,-30.968,30.177,43.27,-85.607,13.032,-4.4898,-20.953,40.006,-21.328,49.694,-6.9382,-11.519,-9.5526,7.5495
9.1479,-37.293,-30.968,30.177,43.27,-85.607,13.032,-4.4898,-20.953,40.006,-21.328,49.694,-6.9382,-11.519,-9.5526,7.5495
9.5141,-38.221,-31.014,29.877,43.297,-86.072,13.004,-4.6894,-20.755,39.218,-21.106,48.882,-6.9465,-11.856,-9.3059,7.2451
9.8805,-39.148,-31.059,29.574,43.324,-86.537,12.975,-4.8906,-20.556,38.429,-20.882,48.068,-6.955,-12.193,-9.0581,6.9406
10.247,-40.075,-31.103,29.269,43.351,-87.002,12.946,-5.0935,-20.358,37.637,-20.658,47.251,-6.9637,-12.532,-8.8091,6.6359
10.614,-41.002,-31.146,28.962,43.378,-87.466,12.915,-5.2979,-20.159,36.845,-20.434,46.432,-6.9726,-12.871,-8.5589,6.331
10.614,-41.002,-31.146,28.962,43.378,-87.466,12.915,-5.2979,-20.159,36.845,-20.434,46.432,-6.9726,-12.871,-8.5589,6.331
10.982,-41.928,-31.188,28.653,43.404,-87.931,12.885,-5.5039,-19.96,36.05,-20.209,45.611,-6.9817,-13.212,-8.3076,6.0258
11.35,-42.854,-31.229,28.341,43.431,-88.395,12.853,-5.7115,-19.76,35.255,-19.983,44.788,-6.9911,-13.553,-8.0551,5.7205
11.718,-43.78,-31.269,28.027,43.457,-88.86,12.821,-5.9207,-19.56,34.457,-19.756,43.962,-7.0006,-13.895,-7.8016,5.4149
11.718,-43.78,-31.269,28.027,43.457,-88.86,12.821,-5.9207,-19.56,34.457,-19.756,43.962,-7.0006,-13.895,-7.8016,5.4149
12.086,-44.705,-31.308,27.711,43.483,-89.324,12.789,-6.1316,-19.36,33.658,-19.53,43.134,-7.0104,-14.238,-7.547,5.1092
12.454,-45.629,-31.346,27.393,43.51,-89.788,12.755,-6.344,-19.16,32.858,-19.302,42.303,-7.0203,-14.582,-7.2913,4.8032
12.823,-46.554,-31.383,27.072,43.536,-90.252,12.721,-6.5582,-18.959,32.056,-19.074,41.47,-7.0305,-14.926,-7.0345,4.497
12.823,-46.554,-31.383,27.072,43.536,-90.252,12.721,-6.5582,-18.959,32.056,-19.074,41.47,-7.0305,-14.926,-7.0345,4.497
13.192,-47.477,-31.419,26.749,43.562,-90.716,12.687,-6.7739,-18.758,31.252,-18.845,40.635,-7.0409,-15.272,-6.7768,4.1907
13.561,-48.401,-31.453,26.423,43.588,-91.179,12.652,-6.9914,-18.556,30.447,-18.616,39.798,-7.0515,-15.618,-6.5179,3.8841
13.561,-48.401,-31.453,26.423,43.588,-91.179,12.652,-6.9914,-18.556,30.447,-18.616,39.798,-7.0515,-15.618,-6.5179,3.8841
13.931,-49.323,-31.487,26.095,43.613,-91.643,12.616,-7.2104,-18.354,29.641,-18.386,38.959,-7.0623,-15.965,-6.2581,3.5773
13.931,-49.323,-31.487,26.095,43.613,-91.643,12.616,-7.2104,-18.354,29.641,-18.386,38.959,-7.0623,-15.965,-6.2581,3.5773
13.931,-49.323,-31.487,26.095,43.613,-91.643,12.616,-7.2104,-18.354,29.641,-18.386,38.959,-7.0623,-15.965,-6.2581,3.5773
14.67,-51.166,-31.551,25.433,43.665,-92.57,12.542,-7.6536,-17.95,28.025,-17.925,37.274,-7.0846,-16.662,-5.7355,2.9631
15.04,-52.087,-31.581,25.098,43.69,-93.033,12.504,-7.8777,-17.747,27.214,-17.693,36.428,-7.0961,-17.012,-5.4728,2.6557
15.41,-53.007,-31.61,24.761,43.715,-93.496,12.466,-8.1035,-17.544,26.403,-17.461,35.58,-7.1078,-17.363,-5.2091,2.3481
15.781,-53.926,-31.639,24.421,43.741,-93.959,12.427,-8.331,-17.34,25.59,-17.228,34.73,-7.1197,-17.714,-4.9445,2.0403
15.781,-53.926,-31.639,24.421,43.741,-93.959,12.427,-8.331,-17.34,25.59,-17.228,34.73,-7.1197,-17.714,-4.9445,2.0403
16.151,-54.844,-31.666,24.08,43.766,-94.422,12.387,-8.5601,-17.136,24.775,-16.995,33.878,-7.1319,-18.066,-4.679,1.7322
16.522,-55.761,-31.692,23.735,43.791,-94.884,12.346,-8.791,-16.932,23.96,-16.761,33.025,-7.1442,-18.419,-4.4126,1.424
16.892,-56.678,-31.717,23.389,43.816,-95.346,12.305,-9.0235,-16.727,23.143,-16.527,32.169,-7.1568,-18.773,-4.1453,1.1155
17.263,-57.593,-31.741,23.04,43.841,-95.809,12.263,-9.2578,-16.522,22.325,-16.292,31.311,-7.1696,-19.127,-3.8771,0.80685
17.263,-57.593,-31.741,23.04,43.841,-95.809,12.263,-9.2578,-16.522,22.325,-16.292,31.311,-7.1696,-19.127,-3.8771,0.80685
17.634,-58.508,-31.764,22.688,43.866,-96.27,12.221,-9.4938,-16.317,21.506,-16.056,30.451,-7.1827,-19.483,-3.6081,0.49796
18.005,-59.421,-31.786,22.335,43.891,-96.732,12.177,-9.7314,-16.111,20.686,-15.82,29.589,-7.1959,-19.839,-3.3383,0.18884
18.005,-59.421,-31.786,22.335,43.891,-96.732,12.177,-9.7314,-16.111,20.686,-15.82,29.589,-7.1959,-19.839,-3.3383,0.18884
18.376,-60.334,-31.807,21.979,43.916,-97.194,12.134,-9.9708,-15.905,19.865,-15.583,28.726,-7.2094,-20.196,-3.0677,-0.12049
18.748,-61.245,-31.827,21.62,43.94,-97.655,12.089,-10.212,-15.698,19.042,-15.346,27.86,-7.2231,-20.553,-2.7963,-0.43005
19.119,-62.155,-31.845,21.259,43.965,-98.116,12.044,-10.455,-15.492,18.219,-15.108,26.993,-7.2371,-20.912,-2.5241,-0.73983
19.49,-63.064,-31.863,20.896,43.989,-98.577,11.998,-10.699,-15.284,17.394,-14.87,26.124,-7.2512,-21.271,-2.2511,-1.0498
19.49,-63.064,-31.863,20.896,43.989,-98.577,11.998,-10.699,-15.284,17.394,-14.87,26.124,-7.2512,-21.271,-2.2511,-1.0498
19.862,-63.972,-31.88,20.53,44.014,-99.037,11.951,-10.946,-15.076,16.568,-14.631,25.253,-7.2656,-21.63,-1.9775,-1.3601
20.233,-64.879,-31.895,20.162,44.038,-99.498,11.904,-11.194,-14.868,15.742,-14.392,24.38,-7.2803,-21.991,-1.7031,-1.6705
20.604,-65.784,-31.91,19.792,44.063,-99.958,11.856,-11.443,-14.66,14.914,-14.152,23.506,-7.2951,-22.352,-1.4279,-1.9813
20.604,-65.784,-31.91,19.792,44.063,-99.958,11.856,-11.443,-14.66,14.914,-14.152,23.506,-7.2951,-22.352,-1.4279,-1.9813
20.976,-66.688,-31.923,19.419,44.087,-100.42,11.807,-11.695,-14.451,14.086,-13.912,22.63,-7.3102,-22.714,-1.1521,-2.2922
21.347,-67.59,-31.935,19.043,44.111,-100.88,11.758,-11.948,-14.241,13.257,-13.671,21.752,-7.3255,-23.077,-0.87567,-2.6034
21.718,-68.492,-31.947,18.666,44.135,-101.34,11.707,-12.203,-14.032,12.427,-13.429,20.873,-7.341,-23.44,-0.59855,-2.9148
21.718,-68.492,-31.947,18.666,44.135,-101.34,11.707,-12.203,-14.032,12.427,-13.429,20.873,-7.341,-23.44,-0.59855,-2.9148
22.09,-69.391,-31.957,18.286,44.16,-101.79,11.657,-12.459,-13.821,11.595,-13.187,19.992,-7.3568,-23.804,-0.3208,-3.2265
22.461,-70.29,-31.966,17.903,44.184,-102.25,11.605,-12.718,-13.611,10.764,-12.944,19.11,-7.3727,-24.169,-0.042428,-3.5384
22.832,-71.186,-31.974,17.518,44.208,-102.71,11.553,-12.978,-13.4,9.931,-12.701,18.226,-7.3889,-24.534,0.23654,-3.8505
23.203,-72.082,-31.981,17.131,44.232,-103.17,11.5,-13.239,-13.188,9.0976,-12.458,17.34,-7.4054,-24.9,0.5161,-4.1629
23.574,-72.975,-31.988,16.741,44.256,-103.63,11.446,-13.503,-12.976,8.2635,-12.213,16.453,-7.422,-25.267,0.79621,-4.4756
23.574,-72.975,-31.988,16.741,44.256,-103.63,11.446,-13.503,-12.976,8.2635,-12.213,16.453,-7.422,-25.267,0.79621,-4.4756
23.945,-73.867,-31.993,16.349,44.28,-104.08,11.391,-13.768,-12.764,7.4286,-11.969,15.565,-7.4389,-25.634,1.0769,-4.7885
24.316,-74.757,-31.997,15.954,44.304,-104.54,11.336,-14.035,-12.551,6.5932,-11.723,14.675,-7.456,-26.001,1.3581,-5.1017
24.316,-74.757,-31.997,15.954,44.304,-104.54,11.336,-14.035,-12.551,6.5932,-11.723,14.675,-7.456,-26.001,1.3581,-5.1017
24.687,-75.646,-32,15.557,44.328,-105,11.28,-14.304,-12.338,5.757,-11.478,13.784,-7.4734,-26.37,1.6398,-5.4152
25.058,-76.533,-32.002,15.158,44.351,-105.45,11.224,-14.574,-12.124,4.9203,-11.231,12.892,-7.4909,-26.739,1.922,-5.7289
25.428,-77.418,-32.003,14.756,44.375,-105.91,11.167,-14.846,-11.909,4.083,-10.984,11.998,-7.5087,-27.108,2.2046,-6.0429
25.798,-78.301,-32.002,14.352,44.399,-106.37,11.108,-15.12,-11.695,3.2452,-10.737,11.103,-7.5267,-27.478,2.4878,-6.3572
26.169,-79.182,-32.001,13.945,44.423,-106.82,11.05,-15.395,-11.48,2.4068,-10.489,10.207,-7.5449,-27.849,2.7713,-6.6717
26.169,-79.182,-32.001,13.945,44.423,-106.82,11.05,-15.395,-11.48,2.4068,-10.489,10.207,-7.5449,-27.849,2.7713,-6.6717
26.539,-80.061,-31.999,13.537,44.447,-107.27,10.99,-15.672,-11.264,1.568,-10.241,9.3094,-7.5634,-28.22,3.0553,-6.9865
26.908,-80.939,-31.996,13.125,44.471,-107.73,10.93,-15.951,-11.048,0.7287,-9.9919,8.4108,-7.582,-28.591,3.3397,-7.3017
26.908,-80.939,-31.996,13.125,44.471,-107.73,10.93,-15.951,-11.048,0.7287,-9.9919,8.4108,-7.582,-28.591,3.3397,-7.3017
27.278,-81.814,-31.992,12.712,44.494,-108.18,10.869,-16.231,-10.831,-0.111,-9.7425,7.511,-7.6009,-28.963,3.6245,-7.6171
27.647,-82.687,-31.987,12.296,44.518,-108.64,10.807,-16.514,-10.614,-0.95109,-9.4926,6.6102,-7.62,-29.336,3.9096,-7.9328
28.017,-83.559,-31.981,11.877,44.542,-109.09,10.745,-16.797,-10.396,-1.7915,-9.2421,5.7082,-7.6393,-29.708,4.1951,-8.2487
28.386,-84.428,-31.973,11.456,44.566,-109.54,10.682,-17.083,-10.178,-2.6323,-8.9912,4.8053,-7.6589,-30.082,4.4809,-8.565
28.386,-84.428,-31.973,11.456,44.566,-109.54,10.682,-17.083,-10.178,-2.6323,-8.9912,4.8053,-7.6589,-30.082,4.4809,-8.565
28.754,-85.295,-31.965,11.033,44.59,-109.99,10.618,-17.37,-9.9597,-3.4733,-8.7397,3.9013,-7.6786,-30.456,4.7671,-8.8816
28.754,-85.295,-31.965,11.033,44.59,-109.99,10.618,-17.37,-9.9597,-3.4733,-8.7397,3.9013,-7.6786,-30.456,4.7671,-8.8816
29.123,-86.159,-31.956,10.608,44.613,-110.44,10.553,-17.659,-9.7406,-4.3146,-8.4877,2.9965,-7.6986,-30.83,5.0535,-9.1985
29.491,-87.022,-31.946,10.18,44.637,-110.89,10.488,-17.949,-9.521,-5.1561,-8.2353,2.0906,-7.7188,-31.204,5.3402,-9.5157
29.491,-87.022,-31.946,10.18,44.637,-110.89,10.488,-17.949,-9.521,-5.1561,-8.2353,2.0906,-7.7188,-31.204,5.3402,-9.5157
29.859,-87.882,-31.935,9.7498,44.661,-111.35,10.422,-18.241,-9.3009,-5.9978,-7.9823,1.1839,-7.7392,-31.579,5.6272,-9.8332
30.226,-88.74,-31.923,9.3173,44.685,-111.79,10.355,-18.535,-9.0802,-6.8397,-7.7288,0.27639,-7.7598,-31.954,5.9143,-10.151
30.593,-89.596,-31.91,8.8825,44.709,-112.24,10.288,-18.83,-8.859,-7.6817,-7.4748,-0.63197,-7.7806,-32.33,6.2018,-10.469
30.96,-90.449,-31.895,8.4453,44.733,-112.69,10.219,-19.127,-8.6373,-8.5237,-7.2203,-1.5411,-7.8016,-32.706,6.4894,-10.788
30.96,-90.449,-31.895,8.4453,44.733,-112.69,10.219,-19.127,-8.6373,-8.5237,-7.2203,-1.5411,-7.8016,-32.706,6.4894,-10.788
31.327,-91.3,-31.88,8.0059,44.756,-113.14,10.15,-19.425,-8.4151,-9.3659,-6.9653,-2.451,-7.8228,-33.082,6.7772,-11.106
31.693,-92.148,-31.864,7.5642,44.78,-113.59,10.081,-19.725,-8.1924,-10.208,-6.7099,-3.3615,-7.8442,-33.459,7.0651,-11.425
32.059,-92.994,-31.847,7.1202,44.804,-114.04,10.01,-20.026,-7.9691,-11.05,-6.4539,-4.2728,-7.8659,-33.835,7.3532,-11.745
32.059,-92.994,-31.847,7.1202,44.804,-114.04,10.01,-20.026,-7.9691,-11.05,-6.4539,-4.2728,-7.8659,-33.835,7.3532,-11.745
32.425,-93.837,-31.83,6.6739,44.828,-114.48,9.9391,-20.33,-7.7453,-11.892,-6.1974,-5.1846,-7.8877,-34.212,7.6415,-12.065
32.79,-94.677,-31.811,6.2253,44.853,-114.93,9.8672,-20.634,-7.5209,-12.734,-5.9404,-6.0971,-7.9097,-34.59,7.9298,-12.385
33.155,-95.515,-31.791,5.7744,44.877,-115.37,9.7946,-20.94,-7.296,-13.576,-5.6829,-7.0101,-7.932,-34.967,8.2183,-12.705
33.155,-95.515,-31.791,5.7744,44.877,-115.37,9.7946,-20.94,-7.296,-13.576,-5.6829,-7.0101,-7.932,-34.967,8.2183,-12.705
33.519,-96.351,-31.77,5.3214,44.901,-115.82,9.7213,-21.248,-7.0705,-14.418,-5.425,-7.9236,-7.9544,-35.345,8.5068,-13.026
33.883,-97.183,-31.748,4.866,44.925,-116.26,9.6472,-21.557,-6.8445,-15.259,-5.1665,-8.8375,-7.977,-35.722,8.7953,-13.347
34.246,-98.013,-31.726,4.4085,44.949,-116.7,9.5724,-21.868,-6.6179,-16.101,-4.9076,-9.752,-7.9998,-36.1,9.0839,-13.668
34.609,-98.84,-31.702,3.9487,44.974,-117.15,9.4969,-22.18,-6.3908,-16.942,-4.6481,-10.667,-8.0228,-36.478,9.3725,-13.99
34.609,-98.84,-31.702,3.9487,44.974,-117.15,9.4969,-22.18,-6.3908,-16.942,-4.6481,-10.667,-8.0228,-36.478,9.3725,-13.99
34.972,-99.664,-31.678,3.4867,44.998,-117.59,9.4207,-22.494,-6.1631,-17.782,-4.3882,-11.582,-8.046,-36.856,9.6612,-14.312
35.334,-100.49,-31.652,3.0225,45.022,-118.03,9.3437,-22.809,-5.9348,-18.623,-4.1278,-12.497,-8.0694,-37.235,9.9497,-14.635
35.696,-101.3,-31.626,2.5562,45.047,-118.47,9.2661,-23.126,-5.7059,-19.463,-3.8669,-13.413,-8.093,-37.613,10.238,-14.957
36.057,-102.12,-31.599,2.0876,45.071,-118.91,9.1877,-23.444,-5.4765,-20.303,-3.6055,-14.329,-8.1167,-37.991,10.527,-15.281
36.057,-102.12,-31.599,2.0876,45.071,-118.91,9.1877,-23.444,-5.4765,-20.303,-3.6055,-14.329,-8.1167,-37.991,10.527,-15.281
36.417,-102.93,-31.571,1.6169,45.096,-119.35,9.1086,-23.763,-5.2465,-21.142,-3.3436,-15.245,-8.1406,-38.37,10.815,-15.604
36.777,-103.74,-31.542,1.1441,45.121,-119.79,9.0288,-24.084,-5.016,-21.981,-3.0812,-16.162,-8.1647,-38.748,11.104,-15.928
37.137,-104.55,-31.512,0.66914,45.146,-120.22,8.9483,-24.406,-4.7848,-22.819,-2.8184,-17.078,-8.189,-39.126,11.392,-16.252
37.496,-105.35,-31.481,0.19205,45.171,-120.66,8.8671,-24.73,-4.553,-23.657,-2.5551,-17.995,-8.2134,-39.504,11.68,-16.577
37.496,-105.35,-31.481,0.19205,45.171,-120.66,8.8671,-24.73,-4.553,-23.657,-2.5551,-17.995,-8.2134,-39.504,11.68,-16.577
37.854,-106.15,-31.45,-0.28714,45.196,-121.1,8.7852,-25.054,-4.3207,-24.494,-2.2912,-18.911,-8.238,-39.883,11.968,-16.902
38.212,-106.95,-31.417,-0.76842,45.221,-121.53,8.7025,-25.381,-4.0878,-25.33,-2.0269,-19.828,-8.2628,-40.261,12.255,-17.227
38.57,-107.74,-31.384,-1.2518,45.246,-121.97,8.6192,-25.708,-3.8543,-26.166,-1.7622,-20.744,-8.2877,-40.639,12.543,-17.553
38.926,-108.53,-31.35,-1.7372,45.271,-122.4,8.5352,-26.037,-3.6201,-27.001,-1.4969,-21.661,-8.3128,-41.017,12.83,-17.879
38.926,-108.53,-31.35,-1.7372,45.271,-122.4,8.5352,-26.037,-3.6201,-27.001,-1.4969,-21.661,-8.3128,-41.017,12.83,-17.879
39.282,-109.32,-31.314,-2.2246,45.296,-122.83,8.4505,-26.367,-3.3854,-27.836,-1.2312,-22.577,-8.3381,-41.394,13.118,-18.205
39.638,-110.1,-31.279,-2.7141,45.322,-123.26,8.365,-26.698,-3.1501,-28.67,-0.96494,-23.493,-8.3635,-41.772,13.404,-18.532
39.638,-110.1,-31.279,-2.7141,45.322,-123.26,8.365,-26.698,-3.1501,-28.67,-0.96494,-23.493,-8.3635,-41.772,13.404,-18.532
39.992,-110.89,-31.242,-3.2056,45.348,-123.69,8.2789,-27.031,-2.9141,-29.502,-0.69824,-24.409,-8.389,-42.149,13.691,-18.859
40.346,-111.66,-31.204,-3.6991,45.373,-124.12,8.1922,-27.365,-2.6776,-30.335,-0.43107,-25.325,-8.4147,-42.526,13.977,-19.186
40.7,-112.44,-31.166,-4.1946,45.399,-124.55,8.1047,-27.7,-2.4404,-31.166,-0.16342,-26.241,-8.4406,-42.903,14.263,-19.514
41.053,-113.21,-31.126,-4.692,45.425,-124.98,8.0165,-28.036,-2.2027,-31.996,0.10471,-27.156,-8.4666,-43.28,14.549,-19.842
41.053,-113.21,-31.126,-4.692,45.425,-124.98,8.0165,-28.036,-2.2027,-31.996,0.10471,-27.156,-8.4666,-43.28,14.549,-19.842
41.405,-113.97,-31.086,-5.1914,45.451,-125.41,7.9277,-28.374,-1.9643,-32.826,0.37332,-28.071,-8.4927,-43.656,14.835,-20.171
41.756,-114.74,-31.045,-5.6927,45.477,-125.83,7.8382,-28.712,-1.7253,-33.654,0.64239,-28.985,-8.519,-44.032,15.12,-20.5
42.107,-115.5,-31.004,-6.1959,45.504,-126.26,7.748,-29.052,-1.4856,-34.481,0.91195,-29.899,-8.5454,-44.408,15.404,-20.829
42.107,-115.5,-31.004,-6.1959,45.504,-126.26,7.748,-29.052,-1.4856,-34.481,0.91195,-29.899,-8.5454,-44.408,15.404,-20.829
42.457,-116.25,-30.961,-6.701,45.53,-126.68,7.6572,-29.393,-1.2454,-35.308,1.182,-30.812,-8.5719,-44.783,15.689,-21.159
42.457,-116.25,-30.961,-6.701,45.53,-126.68,7.6572,-29.393,-1.2454,-35.308,1.182,-30.812,-8.5719,-44.783,15.689,-21.159
42.806,-117.01,-30.918,-7.208,45.557,-127.11,7.5657,-29.735,-1.0045,-36.133,1.4525,-31.725,-8.5986,-45.158,15.973,-21.489
42.806,-117.01,-30.918,-7.208,45.557,-127.11,7.5657,-29.735,-1.0045,-36.133,1.4525,-31.725,-8.5986,-45.158,15.973,-21.489
43.502,-118.5,-30.829,-8.2275,45.61,-127.95,7.3807,-30.421,-0.52088,-37.78,1.9949,-33.55,-8.6522,-45.906,16.539,-22.15
43.849,-119.24,-30.783,-8.74,45.637,-128.37,7.2872,-30.766,-0.27812,-38.602,2.2668,-34.461,-8.6792,-46.28,16.822,-22.481
43.849,-119.24,-30.783,-8.74,45.637,-128.37,7.2872,-30.766,-0.27812,-38.602,2.2668,-34.461,-8.6792,-46.28,16.822,-22.481
44.195,-119.98,-30.737,-9.2542,45.664,-128.79,7.1931,-31.112,-0.034724,-39.423,2.5392,-35.371,-8.7063,-46.653,17.104,-22.812
44.54,-120.71,-30.69,-9.7703,45.692,-129.21,7.0984,-31.459,0.20931,-40.242,2.8121,-36.281,-8.7335,-47.025,17.385,-23.144
44.884,-121.44,-30.642,-10.288,45.719,-129.62,7.003,-31.807,0.45397,-41.06,3.0854,-37.19,-8.7609,-47.397,17.666,-23.476
45.228,-122.17,-30.593,-10.808,45.747,-130.04,6.907,-32.156,0.69928,-41.877,3.3592,-38.098,-8.7883,-47.769,17.947,-23.809
45.228,-122.17,-30.593,-10.808,45.747,-130.04,6.907,-32.156,0.69928,-41.877,3.3592,-38.098,-8.7883,-47.769,17.947,-23.809
45.57,-122.89,-30.543,-11.329,45.775,-130.45,6.8103,-32.506,0.94522,-42.692,3.6335,-39.005,-8.8158,-48.14,18.227,-24.141
45.912,-123.61,-30.493,-11.852,45.803,-130.87,6.713,-32.857,1.1918,-43.506,3.9082,-39.912,-8.8434,-48.51,18.506,-24.475
45.912,-123.61,-30.493,-11.852,45.803,-130.87,6.713,-32.857,1.1918,-43.506,3.9082,-39.912,-8.8434,-48.51,18.506,-24.475
46.253,-124.32,-30.442,-12.376,45.831,-131.28,6.6151,-33.208,1.439,-44.318,4.1834,-40.817,-8.871,-48.879,18.785,-24.808
46.593,-125.03,-30.391,-12.903,45.859,-131.69,6.5166,-33.56,1.6869,-45.129,4.4591,-41.722,-8.8988,-49.248,19.064,-25.142
46.932,-125.74,-30.338,-13.431,45.887,-132.1,6.4175,-33.914,1.9354,-45.939,4.7352,-42.625,-8.9266,-49.617,19.341,-25.476
47.27,-126.44,-30.285,-13.96,45.916,-132.51,6.3178,-34.268,2.1846,-46.747,5.0118,-43.528,-8.9545,-49.984,19.618,-25.811
47.27,-126.44,-30.285,-13.96,45.916,-132.51,6.3178,-34.268,2.1846,-46.747,5.0118,-43.528,-8.9545,-49.984,19.618,-25.811
47.608,-127.14,-30.231,-14.491,45.945,-132.92,6.2174,-34.622,2.4343,-47.553,5.2889,-44.429,-8.9825,-50.351,19.895,-26.146
47.944,-127.83,-30.177,-15.024,45.974,-133.32,6.1165,-34.978,2.6848,-48.358,5.5664,-45.329,-9.0105,-50.717,20.17,-26.481
48.279,-128.52,-30.122,-15.558,46.003,-133.73,6.015,-35.334,2.9359,-49.161,5.8444,-46.228,-9.0386,-51.082,20.446,-26.816
48.279,-128.52,-30.122,-15.558,46.003,-133.73,6.015,-35.334,2.9359,-49.161,5.8444,-46.228,-9.0386,-51.082,20.446,-26.816
48.613,-129.21,-30.066,-16.094,46.033,-134.13,5.9129,-35.691,3.1876,-49.962,6.1229,-47.126,-9.0668,-51.447,20.72,-27.152
48.947,-129.89,-30.009,-16.631,46.062,-134.54,5.8103,-36.048,3.44,-50.762,6.4018,-48.023,-9.095,-51.81,20.994,-27.488
49.279,-130.56,-29.952,-17.17,46.092,-134.94,5.707,-36.406,3.693,-51.56,6.6812,-48.918,-9.1232,-52.173,21.266,-27.825
49.279,-130.56,-29.952,-17.17,46.092,-134.94,5.707,-36.406,3.693,-51.56,6.6812,-48.918,-9.1232,-52.173,21.266,-27.825
49.61,-131.24,-29.894,-17.71,46.122,-135.34,5.6032,-36.765,3.9467,-52.356,6.961,-49.812,-9.1514,-52.535,21.539,-28.162
49.941,-131.9,-29.835,-18.251,46.152,-135.74,5.4988,-37.125,4.201,-53.15,7.2413,-50.705,-9.1797,-52.896,21.81,-28.499
50.27,-132.57,-29.776,-18.794,46.183,-136.13,5.3939,-37.485,4.456,-53.943,7.5221,-51.596,-9.2081,-53.256,22.081,-28.836
50.598,-133.23,-29.716,-19.338,46.213,-136.53,5.2884,-37.845,4.7116,-54.733,7.8033,-52.486,-9.2364,-53.615,22.351,-29.174
50.598,-133.23,-29.716,-19.338,46.213,-136.53,5.2884,-37.845,4.7116,-54.733,7.8033,-52.486,-9.2364,-53.615,22.351,-29.174
50.925,-133.88,-29.655,-19.884,46.244,-136.92,5.1824,-38.206,4.9679,-55.522,8.085,-53.374,-9.2648,-53.973,22.62,-29.512
51.251,-134.53,-29.594,-20.431,46.275,-137.32,5.0759,-38.567,5.2248,-56.308,8.3672,-54.261,-9.2932,-54.33,22.888,-29.85
51.576,-135.18,-29.532,-20.979,46.306,-137.71,4.9688,-38.929,5.4824,-57.093,8.6498,-55.146,-9.3215,-54.685,23.155,-30.189
51.576,-135.18,-29.532,-20.979,46.306,-137.71,4.9688,-38.929,5.4824,-57.093,8.6498,-55.146,-9.3215,-54.685,23.155,-30.189
51.9,-135.82,-29.47,-21.529,46.338,-138.1,4.8612,-39.292,5.7406,-57.876,8.9329,-56.03,-9.3499,-55.04,23.422,-30.528
52.222,-136.46,-29.407,-22.079,46.369,-138.49,4.7531,-39.654,5.9995,-58.656,9.2164,-56.912,-9.3783,-55.394,23.688,-30.867
52.544,-137.09,-29.343,-22.631,46.401,-138.88,4.6445,-40.017,6.259,-59.434,9.5004,-57.793,-9.4067,-55.747,23.952,-31.206
52.864,-137.72,-29.279,-23.184,46.434,-139.26,4.5353,-40.381,6.5191,-60.211,9.7848,-58.671,-9.435,-56.098,24.216,-31.546
52.864,-137.72,-29.279,-23.184,46.434,-139.26,4.5353,-40.381,6.5191,-60.211,9.7848,-58.671,-9.435,-56.098,24.216,-31.546
53.183,-138.34,-29.214,-23.739,46.466,-139.65,4.4257,-40.744,6.7799,-60.985,10.07,-59.548,-9.4634,-56.449,24.479,-31.886
53.501,-138.96,-29.148,-24.294,46.498,-140.03,4.3156,-41.108,7.0413,-61.757,10.355,-60.423,-9.4917,-56.798,24.741,-32.226
53.818,-139.57,-29.082,-24.851,46.531,-140.41,4.205,-41.473,7.3034,-62.526,10.641,-61.296,-9.5199,-57.146,25.003,-32.566
54.133,-140.18,-29.015,-25.408,46.564,-140.79,4.0939,-41.837,7.5661,-63.294,10.927,-62.168,-9.5482,-57.492,25.263,-32.907
54.133,-140.18,-29.015,-25.408,46.564,-140.79,4.0939,-41.837,7.5661,-63.294,10.927,-62.168,-9.5482,-57.492,25.263,-32.907
54.448,-140.79,-28.948,-25.967,46.598,-141.17,3.9824,-42.202,7.8295,-64.059,11.214,-63.037,-9.5763,-57.837,25.522,-33.248
54.761,-141.39,-28.88,-26.527,46.631,-141.55,3.8704,-42.567,8.0935,-64.822,11.501,-63.905,-9.6045,-58.182,25.78,-33.589
54.761,-141.39,-28.88,-26.527,46.631,-141.55,3.8704,-42.567,8.0935,-64.822,11.501,-63.905,-9.6045,-58.182,25.78,-33.589
55.073,-141.98,-28.812,-27.087,46.665,-141.92,3.7579,-42.932,8.3581,-65.582,11.789,-64.771,-9.6326,-58.524,26.038,-33.93
55.383,-142.57,-28.743,-27.649,46.699,-142.3,3.645,-43.297,8.6234,-66.34,12.077,-65.634,-9.6606,-58.866,26.294,-34.271
55.692,-143.16,-28.673,-28.212,46.733,-142.67,3.5316,-43.662,8.8892,-67.096,12.365,-66.496,-9.6885,-59.206,26.549,-34.613
55.692,-143.16,-28.673,-28.212,46.733,-142.67,3.5316,-43.662,8.8892,-67.096,12.365,-66.496,-9.6885,-59.206,26.549,-34.613
56,-143.74,-28.603,-28.775,46.768,-143.04,3.4178,-44.027,9.1558,-67.849,12.654,-67.355,-9.7164,-59.544,26.803,-34.955
56,-143.74,-28.603,-28.775,46.768,-143.04,3.4178,-44.027,9.1558,-67.849,12.654,-67.355,-9.7164,-59.544,26.803,-34.955
56.307,-144.31,-28.532,-29.339,46.803,-143.41,3.3036,-44.392,9.4229,-68.599,12.944,-68.213,-9.7442,-59.881,27.056,-35.297
56.612,-144.88,-28.461,-29.905,46.838,-143.77,3.189,-44.757,9.6907,-69.347,13.234,-69.068,-9.7719,-60.217,27.309,-35.639
56.916,-145.45,-28.389,-30.471,46.873,-144.14,3.0739,-45.123,9.9591,-70.093,13.524,-69.921,-9.7995,-60.551,27.56,-35.982
56.916,-145.45,-28.389,-30.471,46.873,-144.14,3.0739,-45.123,9.9591,-70.093,13.524,-69.921,-9.7995,-60.551,27.56,-35.982
57.219,-146.01,-28.317,-31.038,46.909,-144.5,2.9585,-45.488,10.228,-70.836,13.815,-70.772,-9.827,-60.884,27.81,-36.324
57.52,-146.56,-28.244,-31.605,46.945,-144.86,2.8426,-45.853,10.498,-71.576,14.106,-71.62,-9.8544,-61.215,28.059,-36.667
57.82,-147.11,-28.171,-32.174,46.981,-145.23,2.7264,-46.218,10.768,-72.314,14.397,-72.466,-9.8817,-61.545,28.306,-37.01
58.118,-147.66,-28.097,-32.743,47.017,-145.58,2.6098,-46.582,11.039,-73.049,14.69,-73.31,-9.9089,-61.873,28.553,-37.353
58.118,-147.66,-28.097,-32.743,47.017,-145.58,2.6098,-46.582,11.039,-73.049,14.69,-73.31,-9.9089,-61.873,28.553,-37.353
58.416,-148.2,-28.022,-33.312,47.054,-145.94,2.4928,-46.947,11.31,-73.781,14.982,-74.152,-9.936,-62.199,28.799,-37.696
58.711,-148.73,-27.947,-33.883,47.091,-146.3,2.3755,-47.311,11.582,-74.511,15.275,-74.991,-9.9629,-62.524,29.043,-38.039
59.005,-149.27,-27.872,-34.454,47.128,-146.65,2.2577,-47.675,11.855,-75.238,15.568,-75.828,-9.9897,-62.847,29.286,-38.383
59.298,-149.79,-27.796,-35.025,47.166,-147,2.1397,-48.039,12.128,-75.962,15.862,-76.662,-10.016,-63.169,29.529,-38.726
59.298,-149.79,-27.796,-35.025,47.166,-147,2.1397,-48.039,12.128,-75.962,15.862,-76.662,-10.016,-63.169,29.529,-38.726
59.589,-150.31,-27.72,-35.598,47.203,-147.35,2.0213,-48.402,12.402,-76.683,16.157,-77.494,-10.043,-63.489,29.77,-39.07
59.879,-150.83,-27.643,-36.17,47.241,-147.7,1.9026,-48.765,12.677,-77.401,16.451,-78.323,-10.069,-63.807,30.009,-39.413
59.879,-150.83,-27.643,-36.17,47.241,-147.7,1.9026,-48.765,12.677,-77.401,16.451,-78.323,-10.069,-63.807,30.009,-39.413
60.168,-151.34,-27.565,-36.743,47.28,-148.04,1.7835,-49.128,12.952,-78.116,16.747,-79.15,-10.095,-64.123,30.248,-39.757
60.455,-151.84,-27.488,-37.317,47.318,-148.39,1.6641,-49.49,13.228,-78.829,17.042,-79.974,-10.121,-64.437,30.485,-40.101
60.74,-152.34,-27.409,-37.891,47.357,-148.73,1.5444,-49.852,13.504,-79.538,17.338,-80.795,-10.147,-64.75,30.722,-40.444
61.024,-152.83,-27.331,-38.466,47.396,-149.07,1.4244,-50.213,13.781,-80.245,17.635,-81.614,-10.173,-65.061,30.957,-40.788
61.024,-152.83,-27.331,-38.466,47.396,-149.07,1.4244,-50.213,13.781,-80.245,17.635,-81.614,-10.173,-65.061,30.957,-40.788
61.306,-153.32,-27.251,-39.04,47.436,-149.41,1.3042,-50.574,14.058,-80.949,17.932,-82.43,-10.198,-65.37,31.19,-41.132
61.587,-153.81,-27.172,-39.616,47.476,-149.74,1.1836,-50.934,14.336,-81.649,18.229,-83.243,-10.224,-65.677,31.423,-41.476
61.866,-154.28,-27.091,-40.191,47.516,-150.08,1.0627,-51.294,14.615,-82.347,18.527,-84.054,-10.249,-65.982,31.654,-41.82
61.866,-154.28,-27.091,-40.191,47.516,-150.08,1.0627,-51.294,14.615,-82.347,18.527,-84.054,-10.249,-65.982,31.654,-41.82
62.144,-154.76,-27.011,-40.767,47.556,-150.41,0.94164,-51.653,14.894,-83.041,18.825,-84.861,-10.274,-66.286,31.884,-42.164
62.42,-155.22,-26.93,-41.343,47.597,-150.74,0.82027,-52.012,15.173,-83.733,19.123,-85.666,-10.298,-66.587,32.113,-42.507
62.694,-155.69,-26.848,-41.919,47.638,-151.07,0.69865,-52.37,15.454,-84.421,19.422,-86.468,-10.323,-66.886,32.34,-42.851
62.967,-156.14,-26.766,-42.495,47.679,-151.39,0.57678,-52.727,15.734,-85.106,19.722,-87.268,-10.347,-67.184,32.567,-43.195
63.238,-156.6,-26.684,-43.072,47.72,-151.72,0.45469,-53.083,16.016,-85.788,20.022,-88.064,-10.371,-67.479,32.791,-43.539
63.238,-156.6,-26.684,-43.072,47.72,-151.72,0.45469,-53.083,16.016,-85.788,20.022,-88.064,-10.371,-67.479,32.791,-43.539
63.508,-157.04,-26.601,-43.648,47.762,-152.04,0.33236,-53.439,16.298,-86.466,20.322,-88.857,-10.395,-67.772,33.015,-43.882
63.776,-157.48,-26.518,-44.225,47.804,-152.36,0.20982,-53.794,16.58,-87.142,20.623,-89.648,-10.418,-68.064,33.237,-44.226
64.042,-157.92,-26.435,-44.802,47.847,-152.68,0.087071,-54.148,16.863,-87.814,20.924,-90.435,-10.441,-68.353,33.458,-44.569
64.042,-157.92,-26.435,-44.802,47.847,-152.68,0.087071,-54.148,16.863,-87.814,20.924,-90.435,-10.441,-68.353,33.458,-44.569
64.306,-158.35,-26.35,-45.379,47.889,-152.99,-0.03588,-54.501,17.146,-88.483,21.225,-91.219,-10.464,-68.64,33.678,-44.913
64.569,-158.77,-26.266,-45.955,47.932,-153.31,-0.15902,-54.853,17.43,-89.148,21.527,-92.001,-10.487,-68.925,33.897,-45.256
64.83,-159.19,-26.181,-46.532,47.976,-153.62,-0.28235,-55.204,17.715,-89.811,21.83,-92.779,-10.51,-69.208,34.114,-45.599
64.83,-159.19,-26.181,-46.532,47.976,-153.62,-0.28235,-55.204,17.715,-89.811,21.83,-92.779,-10.51,-69.208,34.114,-45.599
65.09,-159.61,-26.096,-47.109,48.019,-153.93,-0.40585,-55.555,18,-90.469,22.132,-93.554,-10.532,-69.488,34.329,-45.942
65.348,-160.01,-26.01,-47.685,48.063,-154.23,-0.52952,-55.904,18.285,-91.125,22.435,-94.326,-10.554,-69.767,34.544,-46.285
65.604,-160.42,-25.924,-48.261,48.107,-154.54,-0.65334,-56.253,18.571,-91.777,22.739,-95.095,-10.575,-70.043,34.757,-46.627
65.604,-160.42,-25.924,-48.261,48.107,-154.54,-0.65334,-56.253,18.571,-91.777,22.739,-95.095,-10.575,-70.043,34.757,-46.627
65.858,-160.81,-25.838,-48.838,48.152,-154.84,-0.77732,-56.6,18.858,-92.426,23.043,-95.86,-10.597,-70.317,34.968,-46.97
66.111,-161.21,-25.751,-49.414,48.197,-155.14,-0.90143,-56.946,19.145,-93.071,23.347,-96.623,-10.618,-70.588,35.179,-47.312
66.361,-161.59,-25.664,-49.989,48.242,-155.44,-1.0257,-57.292,19.432,-93.713,23.652,-97.382,-10.638,-70.858,35.388,-47.654
66.61,-161.97,-25.576,-50.565,48.287,-155.74,-1.15,-57.636,19.72,-94.351,23.957,-98.138,-10.659,-71.125,35.595,-47.996
66.61,-161.97,-25.576,-50.565,48.287,-155.74,-1.15,-57.636,19.72,-94.351,23.957,-98.138,-10.659,-71.125,35.595,-47.996
66.61,-161.97,-25.576,-50.565,48.287,-155.74,-1.15,-57.636,19.72,-94.351,23.957,-98.138,-10.659,-71.125,35.595,-47.996
66.858,-162.35,-25.488,-51.14,48.333,-156.03,-1.2745,-57.978,20.009,-94.986,24.263,-98.89,-10.679,-71.389,35.801,-48.338
66.858,-162.35,-25.488,-51.14,48.333,-156.03,-1.2745,-57.978,20.009,-94.986,24.263,-98.89,-10.679,-71.389,35.801,-48.338
67.347,-163.08,-25.311,-52.289,48.426,-156.61,-1.5238,-58.66,20.587,-96.245,24.875,-100.39,-10.718,-71.912,36.209,-49.02
67.347,-163.08,-25.311,-52.289,48.426,-156.61,-1.5238,-58.66,20.587,-96.245,24.875,-100.39,-10.718,-71.912,36.209,-49.02
67.588,-163.44,-25.222,-52.863,48.472,-156.9,-1.6486,-59,20.876,-96.869,25.182,-101.13,-10.737,-72.169,36.411,-49.361
67.828,-163.8,-25.133,-53.436,48.519,-157.18,-1.7734,-59.338,21.167,-97.489,25.489,-101.87,-10.756,-72.424,36.612,-49.702
68.066,-164.14,-25.043,-54.009,48.566,-157.47,-1.8984,-59.674,21.457,-98.106,25.796,-102.6,-10.774,-72.677,36.811,-50.042
68.303,-164.48,-24.953,-54.582,48.614,-157.75,-2.0234,-60.009,21.748,-98.719,26.104,-103.33,-10.792,-72.927,37.009,-50.382
68.303,-164.48,-24.953,-54.582,48.614,-157.75,-2.0234,-60.009,21.748,-98.719,26.104,-103.33,-10.792,-72.927,37.009,-50.382
68.537,-164.82,-24.863,-55.154,48.662,-158.02,-2.1484,-60.343,22.04,-99.329,26.412,-104.06,-10.81,-73.175,37.205,-50.721
68.77,-165.15,-24.772,-55.725,48.71,-158.3,-2.2735,-60.675,22.332,-99.935,26.721,-104.79,-10.827,-73.42,37.4,-51.061
69,-165.48,-24.681,-56.296,48.759,-158.57,-2.3986,-61.006,22.624,-100.54,27.03,-105.51,-10.844,-73.663,37.594,-51.4
69.229,-165.8,-24.589,-56.866,48.808,-158.84,-2.5238,-61.336,22.917,-101.14,27.339,-106.23,-10.861,-73.903,37.786,-51.738
69.229,-165.8,-24.589,-56.866,48.808,-158.84,-2.5238,-61.336,22.917,-101.14,27.339,-106.23,-10.861,-73.903,37.786,-51.738
69.456,-166.11,-24.497,-57.435,48.857,-159.11,-2.649,-61.664,23.21,-101.73,27.649,-106.94,-10.877,-74.141,37.977,-52.076
69.681,-166.42,-24.405,-58.004,48.906,-159.38,-2.7742,-61.99,23.503,-102.32,27.959,-107.65,-10.892,-74.376,38.166,-52.414
69.904,-166.72,-24.312,-58.572,48.956,-159.64,-2.8994,-62.315,23.797,-102.91,28.27,-108.36,-10.908,-74.609,38.354,-52.751
69.904,-166.72,-24.312,-58.572,48.956,-159.64,-2.8994,-62.315,23.797,-102.91,28.27,-108.36,-10.908,-74.609,38.354,-52.751
70.125,-167.02,-24.22,-59.139,49.006,-159.9,-3.0245,-62.638,24.091,-103.49,28.58,-109.07,-10.923,-74.838,38.54,-53.088
70.344,-167.31,-24.126,-59.706,49.056,-160.16,-3.1497,-62.96,24.386,-104.07,28.891,-109.77,-10.937,-75.066,38.725,-53.425
70.561,-167.6,-24.033,-60.271,49.107,-160.41,-3.2749,-63.28,24.68,-104.65,29.203,-110.46,-10.951,-75.29,38.908,-53.761
70.777,-167.88,-23.939,-60.836,49.158,-160.67,-3.4,-63.598,24.976,-105.22,29.515,-111.15,-10.965,-75.512,39.09,-54.096
70.777,-167.88,-23.939,-60.836,49.158,-160.67,-3.4,-63.598,24.976,-105.22,29.515,-111.15,-10.965,-75.512,39.09,-54.096
70.99,-168.15,-23.845,-61.4,49.209,-160.92,-3.5251,-63.914,25.271,-105.79,29.827,-111.84,-10.978,-75.732,39.271,-54.431
71.201,-168.42,-23.751,-61.962,49.261,-161.17,-3.6501,-64.229,25.567,-106.35,30.139,-112.53,-10.991,-75.948,39.45,-54.766
71.41,-168.69,-23.656,-62.524,49.313,-161.41,-3.7751,-64.542,25.863,-106.91,30.452,-113.21,-11.003,-76.162,39.628,-55.1
71.41,-168.69,-23.656,-62.524,49.313,-161.41,-3.7751,-64.542,25.863,-106.91,30.452,-113.21,-11.003,-76.162,39.628,-55.1
71.618,-168.95,-23.561,-63.085,49.365,-161.66,-3.9001,-64.853,26.16,-107.47,30.766,-113.89,-11.015,-76.373,39.804,-55.433
71.823,-169.2,-23.465,-63.645,49.417,-161.9,-4.0249,-65.162,26.457,-108.02,31.079,-114.56,-11.027,-76.581,39.979,-55.766
72.026,-169.45,-23.37,-64.203,49.47,-162.13,-4.1497,-65.47,26.754,-108.57,31.393,-115.23,-11.038,-76.787,40.152,-56.098
72.228,-169.69,-23.274,-64.761,49.523,-162.37,-4.2744,-65.775,27.051,-109.12,31.707,-115.9,-11.048,-76.99,40.324,-56.43
72.228,-169.69,-23.274,-64.761,49.523,-162.37,-4.2744,-65.775,27.051,-109.12,31.707,-115.9,-11.048,-76.99,40.324,-56.43
72.427,-169.92,-23.177,-65.317,49.576,-162.6,-4.399,-66.079,27.349,-109.66,32.022,-116.56,-11.058,-77.19,40.494,-56.761
72.624,-170.15,-23.081,-65.873,49.63,-162.83,-4.5235,-66.381,27.647,-110.19,32.336,-117.22,-11.068,-77.387,40.663,-57.092
72.624,-170.15,-23.081,-65.873,49.63,-162.83,-4.5235,-66.381,27.647,-110.19,32.336,-117.22,-11.068,-77.387,40.663,-57.092
72.819,-170.38,-22.984,-66.427,49.684,-163.06,-4.6479,-66.681,27.945,-110.73,32.652,-117.88,-11.077,-77.581,40.831,-57.421
73.013,-170.6,-22.886,-66.98,49.738,-163.29,-4.7722,-66.978,28.244,-111.25,32.967,-118.53,-11.086,-77.773,40.997,-57.751
73.204,-170.81,-22.789,-67.531,49.793,-163.51,-4.8963,-67.274,28.542,-111.78,33.283,-119.17,-11.094,-77.962,41.161,-58.079
73.393,-171.02,-22.691,-68.081,49.848,-163.73,-5.0203,-67.568,28.841,-112.3,33.599,-119.82,-11.101,-78.147,41.325,-58.407
73.393,-171.02,-22.691,-68.081,49.848,-163.73,-5.0203,-67.568,28.841,-112.3,33.599,-119.82,-11.101,-78.147,41.325,-58.407
73.58,-171.22,-22.593,-68.63,49.903,-163.95,-5.1442,-67.859,29.14,-112.82,33.915,-120.46,-11.108,-78.33,41.486,-58.734
73.764,-171.42,-22.495,-69.178,49.958,-164.16,-5.2679,-68.148,29.44,-113.33,34.232,-121.09,-11.115,-78.51,41.646,-59.061
73.947,-171.61,-22.396,-69.724,50.014,-164.37,-5.3915,-68.436,29.739,-113.84,34.549,-121.72,-11.121,-78.687,41.805,-59.386
74.128,-171.79,-22.297,-70.269,50.07,-164.58,-5.5149,-68.721,30.039,-114.34,34.866,-122.35,-11.127,-78.862,41.962,-59.711
74.128,-171.79,-22.297,-70.269,50.07,-164.58,-5.5149,-68.721,30.039,-114.34,34.866,-122.35,-11.127,-78.862,41.962,-59.711
74.306,-171.98,-22.198,-70.812,50.126,-164.79,-5.6381,-69.004,30.339,-114.84,35.183,-122.97,-11.132,-79.033,42.118,-60.036
74.483,-172.15,-22.098,-71.354,50.182,-164.99,-5.7612,-69.284,30.639,-115.34,35.501,-123.59,-11.136,-79.201,42.272,-60.359
74.657,-172.32,-21.999,-71.894,50.239,-165.2,-5.884,-69.563,30.94,-115.83,35.819,-124.21,-11.14,-79.367,42.425,-60.682
74.657,-172.32,-21.999,-71.894,50.239,-165.2,-5.884,-69.563,30.94,-115.83,35.819,-124.21,-11.14,-79.367,42.425,-60.682
74.829,-172.48,-21.899,-72.433,50.296,-165.39,-6.0067,-69.839,31.24,-116.32,36.137,-124.82,-11.144,-79.529,42.577,-61.004
74.999,-172.64,-21.798,-72.97,50.353,-165.59,-6.1292,-70.113,31.541,-116.81,36.456,-125.43,-11.146,-79.688,42.726,-61.325
74.999,-172.64,-21.798,-72.97,50.353,-165.59,-6.1292,-70.113,31.541,-116.81,36.456,-125.43,-11.146,-79.688,42.726,-61.325
75.167,-172.79,-21.698,-73.505,50.411,-165.78,-6.2514,-70.385,31.841,-117.29,36.775,-126.03,-11.149,-79.845,42.875,-61.645
75.167,-172.79,-21.698,-73.505,50.411,-165.78,-6.2514,-70.385,31.841,-117.29,36.775,-126.03,-11.149,-79.845,42.875,-61.645
75.497,-173.08,-21.496,-74.571,50.527,-166.16,-6.4953,-70.921,32.443,-118.23,37.413,-127.23,-11.152,-80.148,43.167,-62.283
75.497,-173.08,-21.496,-74.571,50.527,-166.16,-6.4953,-70.921,32.443,-118.23,37.413,-127.23,-11.152,-80.148,43.167,-62.283
75.658,-173.22,-21.394,-75.102,50.585,-166.35,-6.6169,-71.185,32.744,-118.7,37.733,-127.82,-11.152,-80.296,43.312,-62.6
75.818,-173.35,-21.293,-75.631,50.644,-166.53,-6.7383,-71.447,33.045,-119.17,38.053,-128.4,-11.152,-80.44,43.454,-62.917
75.818,-173.35,-21.293,-75.631,50.644,-166.53,-6.7383,-71.447,33.045,-119.17,38.053,-128.4,-11.152,-80.44,43.454,-62.917
75.975,-173.48,-21.191,-76.158,50.703,-166.71,-6.8594,-71.707,33.347,-119.63,38.373,-128.99,-11.152,-80.581,43.595,-63.233
76.13,-173.6,-21.089,-76.683,50.762,-166.88,-6.9803,-71.964,33.648,-120.08,38.693,-129.57,-11.151,-80.719,43.735,-63.548
76.283,-173.71,-20.986,-77.206,50.822,-167.06,-7.101,-72.219,33.95,-120.53,39.014,-130.14,-11.149,-80.854,43.873,-63.862
76.283,-173.71,-20.986,-77.206,50.822,-167.06,-7.101,-72.219,33.95,-120.53,39.014,-130.14,-11.149,-80.854,43.873,-63.862
76.433,-173.82,-20.883,-77.728,50.881,-167.23,-7.2213,-72.471,34.251,-120.98,39.334,-130.71,-11.147,-80.986,44.01,-64.174
76.582,-173.92,-20.781,-78.247,50.941,-167.4,-7.3414,-72.721,34.553,-121.42,39.655,-131.28,-11.144,-81.115,44.146,-64.486
76.728,-174.02,-20.677,-78.765,51.001,-167.56,-7.4613,-72.968,34.854,-121.86,39.977,-131.84,-11.141,-81.241,44.28,-64.797
76.872,-174.12,-20.574,-79.281,51.062,-167.73,-7.5808,-73.212,35.156,-122.3,40.298,-132.4,-11.137,-81.364,44.412,-65.107
77.014,-174.2,-20.47,-79.795,51.122,-167.89,-7.7001,-73.454,35.457,-122.73,40.62,-132.95,-11.132,-81.484,44.543,-65.416
77.014,-174.2,-20.47,-79.795,51.122,-167.89,-7.7001,-73.454,35.457,-122.73,40.62,-132.95,-11.132,-81.484,44.543,-65.416
77.154,-174.29,-20.366,-80.306,51.183,-168.04,-7.8191,-73.693,35.759,-123.15,40.941,-133.5,-11.127,-81.6,44.673,-65.724
77.291,-174.36,-20.262,-80.816,51.244,-168.2,-7.9377,-73.93,36.061,-123.58,41.263,-134.05,-11.121,-81.714,44.801,-66.031
77.426,-174.43,-20.158,-81.324,51.305,-168.35,-8.0561,-74.164,36.362,-123.99,41.585,-134.59,-11.114,-81.824,44.928,-66.337
77.559,-174.5,-20.053,-81.83,51.367,-168.5,-8.1742,-74.395,36.664,-124.41,41.908,-135.13,-11.107,-81.931,45.053,-66.641
77.559,-174.5,-20.053,-81.83,51.367,-168.5,-8.1742,-74.395,36.664,-124.41,41.908,-135.13,-11.107,-81.931,45.053,-66.641
77.69,-174.56,-19.948,-82.333,51.429,-168.64,-8.2919,-74.624,36.965,-124.82,42.23,-135.66,-11.099,-82.035,45.177,-66.945
77.819,-174.62,-19.843,-82.835,51.491,-168.78,-8.4094,-74.85,37.267,-125.22,42.553,-136.19,-11.091,-82.136,45.3,-67.247
77.819,-174.62,-19.843,-82.835,51.491,-168.78,-8.4094,-74.85,37.267,-125.22,42.553,-136.19,-11.091,-82.136,45.3,-67.247
77.945,-174.67,-19.737,-83.334,51.553,-168.92,-8.5265,-75.073,37.568,-125.62,42.876,-136.71,-11.082,-82.234,45.421,-67.549
78.069,-174.71,-19.632,-83.831,51.615,-169.06,-8.6433,-75.294,37.87,-126.02,43.199,-137.23,-11.072,-82.328,45.54,-67.849
78.191,-174.76,-19.526,-84.326,51.678,-169.2,-8.7597,-75.511,38.171,-126.41,43.522,-137.75,-11.062,-82.42,45.659,-68.148
78.31,-174.79,-19.42,-84.818,51.741,-169.33,-8.8758,-75.726,38.472,-126.8,43.845,-138.26,-11.051,-82.508,45.775,-68.446
78.31,-174.79,-19.42,-84.818,51.741,-169.33,-8.8758,-75.726,38.472,-126.8,43.845,-138.26,-11.051,-82.508,45.775,-68.446
78.428,-174.82,-19.313,-85.309,51.804,-169.46,-8.9916,-75.938,38.773,-127.19,44.169,-138.77,-11.039,-82.593,45.891,-68.742
78.543,-174.85,-19.207,-85.797,51.867,-169.58,-9.107,-76.148,39.074,-127.57,44.493,-139.27,-11.027,-82.675,46.005,-69.038
78.543,-174.85,-19.207,-85.797,51.867,-169.58,-9.107,-76.148,39.074,-127.57,44.493,-139.27,-11.027,-82.675,46.005,-69.038
78.656,-174.87,-19.1,-86.282,51.93,-169.7,-9.222,-76.354,39.375,-127.94,44.816,-139.77,-11.014,-82.754,46.117,-69.332
78.766,-174.88,-18.993,-86.766,51.994,-169.82,-9.3367,-76.558,39.676,-128.32,45.14,-140.27,-11,-82.829,46.229,-69.625
78.875,-174.89,-18.885,-87.247,52.058,-169.94,-9.4511,-76.758,39.976,-128.68,45.464,-140.76,-10.986,-82.902,46.339,-69.917
78.981,-174.89,-18.778,-87.726,52.122,-170.05,-9.565,-76.956,40.277,-129.05,45.788,-141.25,-10.971,-82.971,46.447,-70.207
79.084,-174.89,-18.67,-88.202,52.186,-170.17,-9.6786,-77.151,40.577,-129.41,46.112,-141.73,-10.956,-83.037,46.554,-70.496
79.084,-174.89,-18.67,-88.202,52.186,-170.17,-9.6786,-77.151,40.577,-129.41,46.112,-141.73,-10.956,-83.037,46.554,-70.496
79.186,-174.89,-18.562,-88.676,52.25,-170.27,-9.7918,-77.343,40.877,-129.76,46.437,-142.21,-10.939,-83.1,46.66,-70.784
79.285,-174.88,-18.454,-89.147,52.315,-170.38,-9.9047,-77.532,41.177,-130.11,46.761,-142.68,-10.922,-83.159,46.764,-71.071
79.285,-174.88,-18.454,-89.147,52.315,-170.38,-9.9047,-77.532,41.177,-130.11,46.761,-142.68,-10.922,-83.159,46.764,-71.071
79.382,-174.86,-18.345,-89.616,52.379,-170.48,-10.017,-77.718,41.477,-130.46,47.086,-143.15,-10.905,-83.216,46.867,-71.356
79.477,-174.84,-18.237,-90.082,52.444,-170.58,-10.129,-77.901,41.777,-130.8,47.41,-143.62,-10.887,-83.269,46.969,-71.64
79.569,-174.82,-18.128,-90.546,52.509,-170.68,-10.241,-78.081,42.076,-131.14,47.735,-144.08,-10.868,-83.319,47.069,-71.923
79.659,-174.79,-18.019,-91.007,52.574,-170.77,-10.352,-78.259,42.375,-131.48,48.059,-144.54,-10.848,-83.366,47.168,-72.204
79.747,-174.75,-17.91,-91.466,52.639,-170.86,-10.463,-78.433,42.674,-131.81,48.384,-144.99,-10.828,-83.41,47.265,-72.484
79.747,-174.75,-17.91,-91.466,52.639,-170.86,-10.463,-78.433,42.674,-131.81,48.384,-144.99,-10.828,-83.41,47.265,-72.484
79.832,-174.71,-17.8,-91.922,52.705,-170.95,-10.573,-78.604,42.972,-132.13,48.709,-145.44,-10.807,-83.45,47.361,-72.762
79.916,-174.67,-17.69,-92.376,52.77,-171.03,-10.683,-78.772,43.271,-132.45,49.034,-145.89,-10.785,-83.487,47.456,-73.039
79.916,-174.67,-17.69,-92.376,52.77,-171.03,-10.683,-78.772,43.271,-132.45,49.034,-145.89,-10.785,-83.487,47.456,-73.039
79.997,-174.62,-17.58,-92.826,52.836,-171.12,-10.793,-78.937,43.569,-132.77,49.359,-146.33,-10.762,-83.521,47.55,-73.315
79.997,-174.62,-17.58,-92.826,52.836,-171.12,-10.793,-78.937,43.569,-132.77,49.359,-146.33,-10.762,-83.521,47.55,-73.315
80.075,-174.56,-17.47,-93.275,52.902,-171.19,-10.902,-79.099,43.867,-133.08,49.684,-146.76,-10.739,-83.552,47.642,-73.589
80.151,-174.51,-17.36,-93.72,52.967,-171.27,-11.011,-79.258,44.164,-133.39,50.009,-147.2,-10.715,-83.58,47.732,-73.862
80.151,-174.51,-17.36,-93.72,52.967,-171.27,-11.011,-79.258,44.164,-133.39,50.009,-147.2,-10.715,-83.58,47.732,-73.862
80.225,-174.44,-17.249,-94.163,53.033,-171.34,-11.12,-79.414,44.461,-133.7,50.334,-147.62,-10.691,-83.605,47.822,-74.133
80.297,-174.37,-17.138,-94.603,53.1,-171.41,-11.228,-79.567,44.758,-134,50.659,-148.05,-10.666,-83.626,47.91,-74.403
80.367,-174.3,-17.027,-95.04,53.166,-171.48,-11.335,-79.716,45.055,-134.3,50.984,-148.47,-10.64,-83.644,47.997,-74.672
80.434,-174.22,-16.916,-95.475,53.232,-171.55,-11.442,-79.863,45.351,-134.59,51.309,-148.88,-10.613,-83.659,48.082,-74.939
80.498,-174.14,-16.805,-95.907,53.299,-171.61,-11.549,-80.007,45.647,-134.88,51.634,-149.29,-10.586,-83.671,48.167,-75.204
80.498,-174.14,-16.805,-95.907,53.299,-171.61,-11.549,-80.007,45.647,-134.88,51.634,-149.29,-10.586,-83.671,48.167,-75.204
80.561,-174.05,-16.693,-96.336,53.365,-171.67,-11.655,-80.147,45.942,-135.17,51.958,-149.7,-10.558,-83.68,48.249,-75.468
80.621,-173.96,-16.581,-96.762,53.432,-171.72,-11.761,-80.284,46.237,-135.45,52.283,-150.11,-10.529,-83.686,48.331,-75.73
80.679,-173.86,-16.469,-97.185,53.498,-171.77,-11.866,-80.418,46.532,-135.72,52.608,-150.5,-10.499,-83.688,48.411,-75.991
80.735,-173.76,-16.357,-97.606,53.565,-171.82,-11.971,-80.549,46.826,-136,52.933,-150.9,-10.469,-83.687,48.49,-76.251
80.735,-173.76,-16.357,-97.606,53.565,-171.82,-11.971,-80.549,46.826,-136,52.933,-150.9,-10.469,-83.687,48.49,-76.251
80.788,-173.66,-16.245,-98.024,53.632,-171.87,-12.076,-80.677,47.12,-136.27,53.258,-151.29,-10.438,-83.683,48.568,-76.509
80.839,-173.55,-16.132,-98.438,53.699,-171.91,-12.18,-80.802,47.414,-136.53,53.583,-151.68,-10.407,-83.676,48.644,-76.765
80.839,-173.55,-16.132,-98.438,53.699,-171.91,-12.18,-80.802,47.414,-136.53,53.583,-151.68,-10.407,-83.676,48.644,-76.765
80.887,-173.43,-16.019,-98.85,53.766,-171.95,-12.283,-80.923,47.707,-136.79,53.907,-152.06,-10.374,-83.666,48.72,-77.019
80.934,-173.32,-15.906,-99.259,53.833,-171.99,-12.386,-81.042,48,-137.05,54.232,-152.44,-10.341,-83.653,48.794,-77.273
80.978,-173.19,-15.793,-99.665,53.9,-172.03,-12.489,-81.157,48.292,-137.3,54.557,-152.81,-10.308,-83.636,48.866,-77.524
81.019,-173.07,-15.68,-100.07,53.967,-172.06,-12.591,-81.269,48.584,-137.55,54.881,-153.18,-10.273,-83.617,48.938,-77.774
81.019,-173.07,-15.68,-100.07,53.967,-172.06,-12.591,-81.269,48.584,-137.55,54.881,-153.18,-10.273,-83.617,48.938,-77.774
81.059,-172.93,-15.566,-100.47,54.034,-172.09,-12.693,-81.378,48.875,-137.79,55.205,-153.55,-10.238,-83.594,49.008,-78.022
81.096,-172.8,-15.452,-100.87,54.101,-172.12,-12.795,-81.483,49.166,-138.03,55.53,-153.91,-10.202,-83.568,49.077,-78.269
81.13,-172.66,-15.338,-101.26,54.168,-172.14,-12.895,-81.586,49.456,-138.27,55.854,-154.27,-10.166,-83.54,49.144,-78.514
81.163,-172.51,-15.224,-101.65,54.235,-172.16,-12.996,-81.685,49.746,-138.5,56.178,-154.62,-10.128,-83.508,49.211,-78.757
81.193,-172.36,-15.11,-102.04,54.303,-172.18,-13.096,-81.781,50.035,-138.73,56.502,-154.97,-10.09,-83.473,49.276,-78.999
81.193,-172.36,-15.11,-102.04,54.303,-172.18,-13.096,-81.781,50.035,-138.73,56.502,-154.97,-10.09,-83.473,49.276,-78.999
81.221,-172.21,-14.995,-102.42,54.37,-172.19,-13.195,-81.874,50.324,-138.96,56.826,-155.32,-10.051,-83.435,49.34,-79.239
81.246,-172.05,-14.881,-102.81,54.437,-172.2,-13.294,-81.963,50.612,-139.18,57.149,-155.66,-10.012,-83.394,49.402,-79.477
81.269,-171.89,-14.766,-103.19,54.504,-172.21,-13.393,-82.05,50.9,-139.4,57.473,-156,-9.9717,-83.349,49.464,-79.714
81.269,-171.89,-14.766,-103.19,54.504,-172.21,-13.393,-82.05,50.9,-139.4,57.473,-156,-9.9717,-83.349,49.464,-79.714
81.29,-171.73,-14.651,-103.56,54.572,-172.22,-13.491,-82.133,51.187,-139.61,57.796,-156.33,-9.9308,-83.302,49.524,-79.949
81.309,-171.56,-14.536,-103.93,54.639,-172.22,-13.589,-82.213,51.474,-139.82,58.119,-156.66,-9.8892,-83.252,49.583,-80.182
81.325,-171.39,-14.42,-104.3,54.706,-172.22,-13.686,-82.29,51.76,-140.03,58.442,-156.98,-9.8468,-83.199,49.641,-80.414
81.325,-171.39,-14.42,-104.3,54.706,-172.22,-13.686,-82.29,51.76,-140.03,58.442,-156.98,-9.8468,-83.199,49.641,-80.414
81.339,-171.21,-14.305,-104.67,54.773,-172.22,-13.783,-82.363,52.045,-140.23,58.765,-157.31,-9.8038,-83.143,49.698,-80.644
81.35,-171.03,-14.189,-105.03,54.84,-172.22,-13.879,-82.434,52.33,-140.43,59.087,-157.62,-9.76,-83.084,49.753,-80.872
81.36,-170.84,-14.073,-105.39,54.907,-172.21,-13.975,-82.501,52.614,-140.62,59.41,-157.94,-9.7156,-83.021,49.807,-81.098
81.367,-170.65,-13.957,-105.75,54.974,-172.2,-14.07,-82.565,52.898,-140.81,59.732,-158.25,-9.6704,-82.956,49.86,-81.323
81.367,-170.65,-13.957,-105.75,54.974,-172.2,-14.07,-82.565,52.898,-140.81,59.732,-158.25,-9.6704,-82.956,49.86,-81.323
81.371,-170.46,-13.841,-106.11,55.041,-172.18,-14.165,-82.626,53.181,-141,60.054,-158.55,-9.6245,-82.888,49.912,-81.546
81.374,-170.26,-13.724,-106.46,55.108,-172.17,-14.26,-82.683,53.463,-141.18,60.375,-158.85,-9.5779,-82.817,49.963,-81.767
81.374,-170.06,-13.608,-106.8,55.175,-172.15,-14.354,-82.738,53.745,-141.36,60.697,-159.15,-9.5306,-82.743,50.013,-81.987
81.374,-170.06,-13.608,-106.8,55.175,-172.15,-14.354,-82.738,53.745,-141.36,60.697,-159.15,-9.5306,-82.743,50.013,-81.987
81.372,-169.86,-13.491,-107.15,55.241,-172.12,-14.447,-82.789,54.026,-141.53,61.018,-159.45,-9.4826,-82.666,50.061,-82.205
81.367,-169.65,-13.374,-107.49,55.308,-172.1,-14.54,-82.837,54.306,-141.71,61.339,-159.74,-9.4339,-82.586,50.108,-82.421
81.367,-169.65,-13.374,-107.49,55.308,-172.1,-14.54,-82.837,54.306,-141.71,61.339,-159.74,-9.4339,-82.586,50.108,-82.421
81.36,-169.44,-13.257,-107.83,55.375,-172.07,-14.633,-82.882,54.586,-141.87,61.659,-160.02,-9.3845,-82.504,50.154,-82.635
81.351,-169.23,-13.14,-108.16,55.441,-172.04,-14.725,-82.923,54.865,-142.04,61.98,-160.31,-9.3344,-82.418,50.199,-82.847
81.351,-169.23,-13.14,-108.16,55.441,-172.04,-14.725,-82.923,54.865,-142.04,61.98,-160.31,-9.3344,-82.418,50.199,-82.847
81.34,-169.01,-13.023,-108.5,55.508,-172.01,-14.817,-82.962,55.143,-142.2,62.3,-160.59,-9.2836,-82.33,50.243,-83.058
81.34,-169.01,-13.023,-108.5,55.508,-172.01,-14.817,-82.962,55.143,-142.2,62.3,-160.59,-9.2836,-82.33,50.243,-83.058
81.34,-169.01,-13.023,-108.5,55.508,-172.01,-14.817,-82.962,55.143,-142.2,62.3,-160.59,-9.2836,-82.33,50.243,-83.058
81.31,-168.56,-12.788,-109.15,55.64,-171.93,-14.998,-83.029,55.697,-142.51,62.939,-161.13,-9.1799,-82.145,50.327,-83.474
81.292,-168.33,-12.67,-109.47,55.706,-171.89,-15.089,-83.058,55.973,-142.66,63.258,-161.4,-9.127,-82.048,50.368,-83.679
81.271,-168.1,-12.552,-109.79,55.772,-171.84,-15.179,-83.084,56.249,-142.81,63.577,-161.66,-9.0734,-81.948,50.407,-83.882
81.248,-167.86,-12.434,-110.11,55.838,-171.8,-15.268,-83.106,56.523,-142.95,63.895,-161.92,-9.0192,-81.846,50.446,-84.084
81.223,-167.62,-12.316,-110.42,55.903,-171.75,-15.357,-83.126,56.797,-143.09,64.213,-162.18,-8.9643,-81.741,50.483,-84.284
81.223,-167.62,-12.316,-110.42,55.903,-171.75,-15.357,-83.126,56.797,-143.09,64.213,-162.18,-8.9643,-81.741,50.483,-84.284
81.196,-167.38,-12.197,-110.73,55.969,-171.69,-15.445,-83.142,57.07,-143.22,64.531,-162.43,-8.9086,-81.633,50.519,-84.482
81.166,-167.13,-12.079,-111.03,56.034,-171.64,-15.533,-83.155,57.342,-143.36,64.848,-162.68,-8.8524,-81.522,50.554,-84.678
81.134,-166.88,-11.96,-111.34,56.099,-171.58,-15.621,-83.166,57.613,-143.49,65.165,-162.92,-8.7954,-81.409,50.587,-84.872
81.134,-166.88,-11.96,-111.34,56.099,-171.58,-15.621,-83.166,57.613,-143.49,65.165,-162.92,-8.7954,-81.409,50.587,-84.872
81.1,-166.63,-11.841,-111.64,56.164,-171.52,-15.708,-83.173,57.884,-143.61,65.482,-163.17,-8.7378,-81.293,50.62,-85.064
81.064,-166.37,-11.722,-111.93,56.229,-171.45,-15.795,-83.176,58.154,-143.73,65.798,-163.4,-8.6795,-81.174,50.652,-85.255
81.064,-166.37,-11.722,-111.93,56.229,-171.45,-15.795,-83.176,58.154,-143.73,65.798,-163.4,-8.6795,-81.174,50.652,-85.255
81.025,-166.11,-11.603,-112.22,56.294,-171.39,-15.881,-83.177,58.423,-143.85,66.114,-163.64,-8.6205,-81.053,50.682,-85.444
80.984,-165.85,-11.484,-112.51,56.358,-171.32,-15.967,-83.175,58.691,-143.97,66.429,-163.87,-8.5609,-80.929,50.712,-85.631
80.941,-165.59,-11.365,-112.8,56.423,-171.25,-16.052,-83.17,58.958,-144.08,66.744,-164.1,-8.5006,-80.802,50.74,-85.816
80.895,-165.32,-11.245,-113.08,56.487,-171.17,-16.137,-83.161,59.224,-144.19,67.058,-164.32,-8.4397,-80.673,50.768,-85.999
80.895,-165.32,-11.245,-113.08,56.487,-171.17,-16.137,-83.161,59.224,-144.19,67.058,-164.32,-8.4397,-80.673,50.768,-85.999
80.848,-165.05,-11.126,-113.36,56.551,-171.09,-16.221,-83.15,59.49,-144.29,67.372,-164.54,-8.3781,-80.541,50.794,-86.181
80.798,-164.77,-11.006,-113.64,56.614,-171.01,-16.305,-83.135,59.754,-144.39,67.686,-164.76,-8.3159,-80.407,50.82,-86.36
80.745,-164.49,-10.886,-113.91,56.678,-170.93,-16.389,-83.118,60.018,-144.49,67.999,-164.97,-8.2531,-80.27,50.844,-86.538
80.745,-164.49,-10.886,-113.91,56.678,-170.93,-16.389,-83.118,60.018,-144.49,67.999,-164.97,-8.2531,-80.27,50.844,-86.538
80.691,-164.21,-10.766,-114.18,56.741,-170.85,-16.472,-83.097,60.281,-144.59,68.311,-165.18,-8.1896,-80.131,50.867,-86.714
80.634,-163.93,-10.646,-114.45,56.804,-170.76,-16.555,-83.074,60.543,-144.68,68.623,-165.38,-8.1254,-79.989,50.889,-86.888
80.575,-163.65,-10.526,-114.71,56.867,-170.67,-16.637,-83.047,60.804,-144.77,68.935,-165.59,-8.0607,-79.845,50.911,-87.06
80.514,-163.36,-10.405,-114.97,56.929,-170.58,-16.719,-83.018,61.064,-144.85,69.246,-165.79,-7.9953,-79.698,50.931,-87.23
80.514,-163.36,-10.405,-114.97,56.929,-170.58,-16.719,-83.018,61.064,-144.85,69.246,-165.79,-7.9953,-79.698,50.931,-87.23
80.451,-163.07,-10.285,-115.23,56.991,-170.48,-16.8,-82.985,61.323,-144.94,69.556,-165.98,-7.9293,-79.549,50.95,-87.399
80.385,-162.77,-10.164,-115.48,57.053,-170.38,-16.881,-82.95,61.581,-145.02,69.866,-166.17,-7.8627,-79.398,50.968,-87.565
80.317,-162.47,-10.044,-115.73,57.115,-170.28,-16.962,-82.911,61.838,-145.09,70.175,-166.36,-7.7955,-79.244,50.985,-87.73
80.317,-162.47,-10.044,-115.73,57.115,-170.28,-16.962,-82.911,61.838,-145.09,70.175,-166.36,-7.7955,-79.244,50.985,-87.73
80.247,-162.17,-9.9231,-115.98,57.176,-170.18,-17.042,-82.87,62.094,-145.17,70.484,-166.55,-7.7276,-79.088,51.001,-87.893
80.175,-161.87,-9.8022,-116.22,57.238,-170.07,-17.122,-82.826,62.349,-145.24,70.792,-166.73,-7.6592,-78.929,51.017,-88.054
80.101,-161.57,-9.6812,-116.46,57.298,-169.97,-17.201,-82.779,62.603,-145.3,71.1,-166.91,-7.5902,-78.769,51.031,-88.213
80.024,-161.26,-9.5601,-116.7,57.359,-169.85,-17.28,-82.729,62.856,-145.37,71.406,-167.09,-7.5206,-78.606,51.044,-88.371
80.024,-161.26,-9.5601,-116.7,57.359,-169.85,-17.28,-82.729,62.856,-145.37,71.406,-167.09,-7.5206,-78.606,51.044,-88.371
79.946,-160.95,-9.439,-116.93,57.419,-169.74,-17.358,-82.676,63.108,-145.43,71.713,-167.26,-7.4504,-78.44,51.056,-88.526
79.865,-160.64,-9.3177,-117.16,57.479,-169.63,-17.436,-82.621,63.359,-145.49,72.018,-167.43,-7.3796,-78.273,51.068,-88.679
79.782,-160.33,-9.1963,-117.39,57.539,-169.51,-17.514,-82.562,63.61,-145.54,72.323,-167.59,-7.3082,-78.103,51.078,-88.831
79.782,-160.33,-9.1963,-117.39,57.539,-169.51,-17.514,-82.562,63.61,-145.54,72.323,-167.59,-7.3082,-78.103,51.078,-88.831
79.696,-160.01,-9.0748,-117.61,57.598,-169.39,-17.591,-82.501,63.859,-145.59,72.628,-167.76,-7.2363,-77.931,51.087,-88.981
79.609,-159.69,-8.9533,-117.83,57.657,-169.26,-17.668,-82.437,64.106,-145.64,72.931,-167.92,-7.1638,-77.757,51.096,-89.129
79.519,-159.37,-8.8316,-118.05,57.716,-169.14,-17.745,-82.37,64.353,-145.69,73.234,-168.07,-7.0908,-77.581,51.103,-89.275
79.519,-159.37,-8.8316,-118.05,57.716,-169.14,-17.745,-82.37,64.353,-145.69,73.234,-168.07,-7.0908,-77.581,51.103,-89.275
79.427,-159.04,-8.7098,-118.27,57.774,-169.01,-17.821,-82.301,64.599,-145.73,73.537,-168.23,-7.0172,-77.403,51.11,-89.419
79.334,-158.72,-8.588,-118.48,57.832,-168.88,-17.897,-82.229,64.844,-145.77,73.838,-168.38,-6.9431,-77.222,51.116,-89.562
79.237,-158.39,-8.4661,-118.68,57.89,-168.75,-17.972,-82.154,65.087,-145.81,74.139,-168.53,-6.8684,-77.04,51.12,-89.702
79.237,-158.39,-8.4661,-118.68,57.89,-168.75,-17.972,-82.154,65.087,-145.81,74.139,-168.53,-6.8684,-77.04,51.12,-89.702
79.139,-158.06,-8.344,-118.89,57.947,-168.61,-18.047,-82.076,65.33,-145.85,74.439,-168.67,-6.7932,-76.855,51.124,-89.841
79.139,-158.06,-8.344,-118.89,57.947,-168.61,-18.047,-82.076,65.33,-145.85,74.439,-168.67,-6.7932,-76.855,51.124,-89.841
79.039,-157.73,-8.2219,-119.09,58.004,-168.48,-18.122,-81.996,65.571,-145.88,74.739,-168.81,-6.7175,-76.669,51.127,-89.978
78.936,-157.4,-8.0997,-119.29,58.06,-168.34,-18.196,-81.913,65.812,-145.91,75.037,-168.95,-6.6412,-76.481,51.129,-90.113
78.832,-157.06,-7.9775,-119.48,58.117,-168.19,-18.27,-81.827,66.051,-145.94,75.335,-169.09,-6.5645,-76.29,51.13,-90.246
78.725,-156.72,-7.8551,-119.67,58.172,-168.05,-18.343,-81.739,66.289,-145.96,75.632,-169.22,-6.4872,-76.098,51.13,-90.378
78.725,-156.72,-7.8551,-119.67,58.172,-168.05,-18.343,-81.739,66.289,-145.96,75.632,-169.22,-6.4872,-76.098,51.13,-90.378
78.616,-156.38,-7.7327,-119.86,58.228,-167.9,-18.416,-81.648,66.525,-145.98,75.928,-169.35,-6.4094,-75.904,51.13,-90.507
78.505,-156.04,-7.6102,-120.05,58.283,-167.75,-18.489,-81.555,66.761,-146,76.224,-169.47,-6.3312,-75.708,51.128,-90.635
78.505,-156.04,-7.6102,-120.05,58.283,-167.75,-18.489,-81.555,66.761,-146,76.224,-169.47,-6.3312,-75.708,51.128,-90.635
78.392,-155.7,-7.4877,-120.23,58.337,-167.6,-18.561,-81.459,66.995,-146.02,76.518,-169.6,-6.2524,-75.51,51.126,-90.761
78.277,-155.35,-7.365,-120.41,58.391,-167.45,-18.633,-81.361,67.229,-146.04,76.812,-169.72,-6.1732,-75.311,51.122,-90.885
78.16,-155.01,-7.2423,-120.58,58.445,-167.29,-18.705,-81.26,67.461,-146.05,77.105,-169.84,-6.0935,-75.11,51.118,-91.007
78.041,-154.66,-7.1195,-120.75,58.498,-167.14,-18.776,-81.157,67.692,-146.06,77.397,-169.95,-6.0133,-74.907,51.113,-91.127
77.919,-154.31,-6.9967,-120.92,58.551,-166.98,-18.847,-81.051,67.921,-146.06,77.689,-170.07,-5.9327,-74.702,51.107,-91.246
77.919,-154.31,-6.9967,-120.92,58.551,-166.98,-18.847,-81.051,67.921,-146.06,77.689,-170.07,-5.9327,-74.702,51.107,-91.246
77.796,-153.96,-6.8738,-121.09,58.603,-166.82,-18.918,-80.942,68.15,-146.07,77.979,-170.18,-5.8516,-74.495,51.101,-91.363
77.671,-153.61,-6.7508,-121.25,58.655,-166.65,-18.988,-80.832,68.377,-146.07,78.268,-170.28,-5.7701,-74.287,51.093,-91.478
77.543,-153.25,-6.6278,-121.41,58.707,-166.48,-19.058,-80.719,68.603,-146.07,78.557,-170.39,-5.6882,-74.078,51.085,-91.591
77.543,-153.25,-6.6278,-121.41,58.707,-166.48,-19.058,-80.719,68.603,-146.07,78.557,-170.39,-5.6882,-74.078,51.085,-91.591
77.414,-152.89,-6.5047,-121.57,58.758,-166.32,-19.128,-80.603,68.828,-146.07,78.844,-170.49,-5.6058,-73.866,51.075,-91.702
77.282,-152.54,-6.3815,-121.72,58.809,-166.15,-19.197,-80.486,69.051,-146.06,79.131,-170.59,-5.523,-73.654,51.065,-91.812
77.148,-152.18,-6.2583,-121.87,58.859,-165.97,-19.266,-80.366,69.273,-146.05,79.417,-170.68,-5.4397,-73.439,51.054,-91.92
77.148,-152.18,-6.2583,-121.87,58.859,-165.97,-19.266,-80.366,69.273,-146.05,79.417,-170.68,-5.4397,-73.439,51.054,-91.92
77.013,-151.82,-6.1351,-122.02,58.908,-165.8,-19.335,-80.243,69.494,-146.05,79.701,-170.78,-5.3561,-73.223,51.043,-92.026
76.875,-151.46,-6.0118,-122.16,58.957,-165.62,-19.403,-80.119,69.714,-146.03,79.985,-170.87,-5.2721,-73.006,51.03,-92.13
76.735,-151.1,-5.8884,-122.3,59.006,-165.44,-19.471,-79.992,69.932,-146.02,80.268,-170.96,-5.1877,-72.787,51.017,-92.232
76.594,-150.73,-5.765,-122.44,59.054,-165.26,-19.539,-79.863,70.149,-146,80.55,-171.04,-5.1029,-72.567,51.003,-92.333
76.45,-150.37,-5.6415,-122.58,59.102,-165.08,-19.606,-79.732,70.365,-145.99,80.831,-171.13,-5.0177,-72.346,50.988,-92.432
76.45,-150.37,-5.6415,-122.58,59.102,-165.08,-19.606,-79.732,70.365,-145.99,80.831,-171.13,-5.0177,-72.346,50.988,-92.432
76.304,-150,-5.518,-122.71,59.149,-164.89,-19.673,-79.599,70.579,-145.96,81.11,-171.21,-4.9322,-72.123,50.973,-92.529
76.157,-149.63,-5.3945,-122.84,59.196,-164.71,-19.74,-79.463,70.792,-145.94,81.389,-171.29,-4.8463,-71.899,50.956,-92.625
76.157,-149.63,-5.3945,-122.84,59.196,-164.71,-19.74,-79.463,70.792,-145.94,81.389,-171.29,-4.8463,-71.899,50.956,-92.625
76.007,-149.27,-5.2709,-122.96,59.242,-164.52,-19.806,-79.326,71.004,-145.92,81.667,-171.37,-4.7601,-71.673,50.939,-92.719
75.855,-148.9,-5.1473,-123.08,59.287,-164.33,-19.873,-79.186,71.214,-145.89,81.943,-171.44,-4.6735,-71.447,50.921,-92.811
75.702,-148.53,-5.0236,-123.2,59.333,-164.13,-19.939,-79.044,71.423,-145.86,82.219,-171.51,-4.5866,-71.219,50.903,-92.901
75.546,-148.16,-4.8999,-123.32,59.377,-163.94,-20.004,-78.901,71.631,-145.83,82.493,-171.58,-4.4993,-70.99,50.883,-92.99
75.546,-148.16,-4.8999,-123.32,59.377,-163.94,-20.004,-78.901,71.631,-145.83,82.493,-171.58,-4.4993,-70.99,50.883,-92.99
75.389,-147.79,-4.7762,-123.43,59.421,-163.74,-20.07,-78.755,71.837,-145.8,82.766,-171.65,-4.4118,-70.759,50.863,-93.076
75.23,-147.41,-4.6524,-123.54,59.464,-163.54,-20.135,-78.608,72.042,-145.77,83.038,-171.71,-4.3239,-70.528,50.842,-93.162
75.068,-147.04,-4.5286,-123.65,59.507,-163.34,-20.199,-78.458,72.245,-145.73,83.309,-171.78,-4.2357,-70.296,50.821,-93.245
75.068,-147.04,-4.5286,-123.65,59.507,-163.34,-20.199,-78.458,72.245,-145.73,83.309,-171.78,-4.2357,-70.296,50.821,-93.245
74.905,-146.67,-4.4048,-123.76,59.55,-163.14,-20.264,-78.307,72.447,-145.69,83.579,-171.84,-4.1473,-70.062,50.799,-93.327
74.74,-146.29,-4.2809,-123.86,59.591,-162.94,-20.328,-78.153,72.648,-145.65,83.848,-171.9,-4.0586,-69.828,50.776,-93.407
74.573,-145.92,-4.157,-123.96,59.633,-162.73,-20.392,-77.998,72.847,-145.61,84.115,-171.95,-3.9695,-69.592,50.752,-93.485
74.573,-145.92,-4.157,-123.96,59.633,-162.73,-20.392,-77.998,72.847,-145.61,84.115,-171.95,-3.9695,-69.592,50.752,-93.485
74.404,-145.54,-4.0331,-124.05,59.673,-162.53,-20.456,-77.841,73.045,-145.57,84.382,-172.01,-3.8803,-69.356,50.728,-93.562
74.234,-145.17,-3.9092,-124.15,59.713,-162.32,-20.519,-77.682,73.241,-145.52,84.647,-172.06,-3.7907,-69.118,50.703,-93.637
74.061,-144.79,-3.7852,-124.24,59.753,-162.11,-20.583,-77.522,73.436,-145.48,84.91,-172.11,-3.701,-68.88,50.677,-93.711
73.886,-144.41,-3.6612,-124.33,59.792,-161.89,-20.646,-77.36,73.63,-145.43,85.173,-172.16,-3.6109,-68.641,50.65,-93.782
73.71,-144.04,-3.5372,-124.41,59.83,-161.68,-20.708,-77.196,73.822,-145.38,85.434,-172.2,-3.5207,-68.401,50.623,-93.853
73.71,-144.04,-3.5372,-124.41,59.83,-161.68,-20.708,-77.196,73.822,-145.38,85.434,-172.2,-3.5207,-68.401,50.623,-93.853
73.71,-144.04,-3.5372,-124.41,59.83,-161.68,-20.708,-77.196,73.822,-145.38,85.434,-172.2,-3.5207,-68.401,50.623,-93.853
73.532,-143.66,-3.4132,-124.49,59.868,-161.46,-20.771,-77.03,74.012,-145.33,85.695,-172.25,-3.4302,-68.16,50.596,-93.921
73.532,-143.66,-3.4132,-124.49,59.868,-161.46,-20.771,-77.03,74.012,-145.33,85.695,-172.25,-3.4302,-68.16,50.596,-93.921
73.532,-143.66,-3.4132,-124.49,59.868,-161.46,-20.771,-77.03,74.012,-145.33,85.695,-172.25,-3.4302,-68.16,50.596,-93.921
73.17,-142.9,-3.1651,-124.65,59.941,-161.03,-20.895,-76.694,74.389,-145.22,86.211,-172.33,-3.2487,-67.677,50.538,-94.054
72.986,-142.52,-3.0411,-124.72,59.977,-160.8,-20.957,-76.524,74.575,-145.16,86.467,-172.37,-3.1576,-67.434,50.509,-94.117
72.801,-142.15,-2.917,-124.79,60.012,-160.58,-21.019,-76.352,74.759,-145.11,86.722,-172.4,-3.0664,-67.19,50.478,-94.179
72.613,-141.77,-2.7929,-124.86,60.047,-160.36,-21.08,-76.178,74.943,-145.05,86.976,-172.44,-2.9749,-66.946,50.447,-94.24
72.424,-141.39,-2.6688,-124.92,60.081,-160.13,-21.141,-76.003,75.124,-144.99,87.228,-172.47,-2.8833,-66.701,50.416,-94.299
72.424,-141.39,-2.6688,-124.92,60.081,-160.13,-21.141,-76.003,75.124,-144.99,87.228,-172.47,-2.8833,-66.701,50.416,-94.299
72.234,-141.01,-2.5448,-124.99,60.114,-159.91,-21.202,-75.827,75.304,-144.92,87.479,-172.5,-2.7916,-66.456,50.384,-94.356
72.041,-140.63,-2.4207,-125.05,60.147,-159.68,-21.263,-75.649,75.482,-144.86,87.729,-172.53,-2.6997,-66.21,50.351,-94.412
72.041,-140.63,-2.4207,-125.05,60.147,-159.68,-21.263,-75.649,75.482,-144.86,87.729,-172.53,-2.6997,-66.21,50.351,-94.412
71.847,-140.25,-2.2966,-125.1,60.179,-159.45,-21.323,-75.47,75.659,-144.8,87.977,-172.56,-2.6076,-65.964,50.317,-94.467
71.65,-139.87,-2.1725,-125.16,60.21,-159.22,-21.383,-75.289,75.835,-144.73,88.224,-172.58,-2.5155,-65.717,50.283,-94.519
71.452,-139.49,-2.0484,-125.21,60.241,-158.98,-21.444,-75.107,76.009,-144.66,88.469,-172.6,-2.4232,-65.47,50.249,-94.571
71.452,-139.49,-2.0484,-125.21,60.241,-158.98,-21.444,-75.107,76.009,-144.66,88.469,-172.6,-2.4232,-65.47,50.249,-94.571
71.253,-139.11,-1.9243,-125.26,60.271,-158.75,-21.504,-74.924,76.181,-144.59,88.713,-172.63,-2.3308,-65.223,50.214,-94.62
71.051,-138.74,-1.8002,-125.31,60.3,-158.51,-21.563,-74.739,76.352,-144.53,88.956,-172.65,-2.2383,-64.975,50.178,-94.669
70.848,-138.36,-1.6761,-125.35,60.329,-158.27,-21.623,-74.554,76.521,-144.45,89.197,-172.67,-2.1457,-64.727,50.142,-94.715
70.644,-137.98,-1.5521,-125.39,60.357,-158.04,-21.682,-74.367,76.688,-144.38,89.436,-172.68,-2.053,-64.478,50.105,-94.761
70.437,-137.6,-1.428,-125.43,60.384,-157.8,-21.741,-74.179,76.854,-144.31,89.674,-172.7,-1.9603,-64.229,50.067,-94.805
70.437,-137.6,-1.428,-125.43,60.384,-157.8,-21.741,-74.179,76.854,-144.31,89.674,-172.7,-1.9603,-64.229,50.067,-94.805
70.229,-137.22,-1.304,-125.47,60.411,-157.55,-21.8,-73.989,77.018,-144.24,89.911,-172.71,-1.8675,-63.98,50.03,-94.847
70.019,-136.85,-1.1799,-125.5,60.437,-157.31,-21.859,-73.799,77.181,-144.16,90.146,-172.72,-1.7746,-63.731,49.991,-94.888
70.019,-136.85,-1.1799,-125.5,60.437,-157.31,-21.859,-73.799,77.181,-144.16,90.146,-172.72,-1.7746,-63.731,49.991,-94.888
69.808,-136.47,-1.0559,-125.53,60.462,-157.07,-21.918,-73.608,77.342,-144.08,90.38,-172.74,-1.6817,-63.482,49.952,-94.927
69.595,-136.09,-0.93189,-125.56,60.487,-156.82,-21.976,-73.415,77.502,-144.01,90.612,-172.75,-1.5887,-63.232,49.913,-94.965
69.38,-135.72,-0.8079,-125.59,60.511,-156.58,-22.034,-73.222,77.659,-143.93,90.843,-172.75,-1.4958,-62.983,49.872,-95.002
69.163,-135.34,-0.68393,-125.61,60.534,-156.33,-22.092,-73.027,77.815,-143.85,91.072,-172.76,-1.4028,-62.733,49.832,-95.037
68.945,-134.97,-0.55999,-125.63,60.556,-156.08,-22.15,-72.832,77.97,-143.77,91.299,-172.77,-1.3098,-62.484,49.791,-95.071
68.945,-134.97,-0.55999,-125.63,60.556,-156.08,-22.15,-72.832,77.97,-143.77,91.299,-172.77,-1.3098,-62.484,49.791,-95.071
68.726,-134.59,-0.43606,-125.65,60.578,-155.83,-22.208,-72.636,78.123,-143.69,91.525,-172.77,-1.2168,-62.234,49.749,-95.103
68.505,-134.22,-0.31217,-125.67,60.599,-155.58,-22.266,-72.438,78.274,-143.61,91.749,-172.77,-1.1238,-61.985,49.707,-95.134
68.282,-133.85,-0.18829,-125.68,60.619,-155.33,-22.323,-72.24,78.424,-143.53,91.972,-172.77,-1.0308,-61.735,49.665,-95.164
68.282,-133.85,-0.18829,-125.68,60.619,-155.33,-22.323,-72.24,78.424,-143.53,91.972,-172.77,-1.0308,-61.735,49.665,-95.164
68.057,-133.48,-0.064452,-125.69,60.639,-155.07,-22.381,-72.042,78.571,-143.44,92.193,-172.77,-0.93787,-61.486,49.622,-95.192
67.831,-133.11,0.05936,-125.7,60.658,-154.82,-22.438,-71.842,78.718,-143.36,92.412,-172.77,-0.84496,-61.237,49.578,-95.219
67.604,-132.74,0.18314,-125.71,60.676,-154.56,-22.495,-71.642,78.862,-143.27,92.63,-172.77,-0.75211,-60.988,49.534,-95.244
67.604,-132.74,0.18314,-125.71,60.676,-154.56,-22.495,-71.642,78.862,-143.27,92.63,-172.77,-0.75211,-60.988,49.534,-95.244
67.375,-132.37,0.30688,-125.72,60.693,-154.3,-22.552,-71.441,79.005,-143.19,92.846,-172.77,-0.65931,-60.739,49.49,-95.268
67.144,-132,0.43059,-125.72,60.71,-154.05,-22.609,-71.239,79.146,-143.1,93.061,-172.76,-0.56657,-60.49,49.445,-95.291
66.912,-131.63,0.55426,-125.72,60.726,-153.79,-22.665,-71.037,79.285,-143.02,93.273,-172.76,-0.47391,-60.242,49.4,-95.313
66.679,-131.26,0.6779,-125.72,60.741,-153.53,-22.722,-70.834,79.423,-142.93,93.484,-172.75,-0.38134,-59.994,49.354,-95.333
66.679,-131.26,0.6779,-125.72,60.741,-153.53,-22.722,-70.834,79.423,-142.93,93.484,-172.75,-0.38134,-59.994,49.354,-95.333
66.443,-130.9,0.80149,-125.71,60.756,-153.27,-22.778,-70.63,79.559,-142.84,93.694,-172.74,-0.28885,-59.747,49.308,-95.352
66.207,-130.53,0.92503,-125.71,60.769,-153,-22.835,-70.426,79.693,-142.75,93.901,-172.73,-0.19647,-59.499,49.262,-95.37
65.969,-130.17,1.0485,-125.7,60.782,-152.74,-22.891,-70.221,79.826,-142.66,94.107,-172.72,-0.10421,-59.253,49.215,-95.386
65.969,-130.17,1.0485,-125.7,60.782,-152.74,-22.891,-70.221,79.826,-142.66,94.107,-172.72,-0.10421,-59.253,49.215,-95.386
65.729,-129.81,1.172,-125.69,60.794,-152.48,-22.947,-70.016,79.956,-142.57,94.311,-172.71,-0.012057,-59.006,49.167,-95.401
65.488,-129.45,1.2954,-125.67,60.806,-152.21,-23.003,-69.811,80.085,-142.48,94.514,-172.7,0.079962,-58.76,49.119,-95.415
65.246,-129.09,1.4187,-125.66,60.816,-151.95,-23.059,-69.605,80.213,-142.39,94.714,-172.69,0.17184,-58.515,49.071,-95.428
65.246,-129.09,1.4187,-125.66,60.816,-151.95,-23.059,-69.605,80.213,-142.39,94.714,-172.69,0.17184,-58.515,49.071,-95.428
65.002,-128.73,1.542,-125.64,60.826,-151.68,-23.114,-69.398,80.338,-142.3,94.913,-172.67,0.26357,-58.27,49.023,-95.439
65.002,-128.73,1.542,-125.64,60.826,-151.68,-23.114,-69.398,80.338,-142.3,94.913,-172.67,0.26357,-58.27,49.023,-95.439
64.757,-128.37,1.6653,-125.62,60.835,-151.41,-23.17,-69.191,80.462,-142.21,95.11,-172.66,0.35515,-58.026,48.974,-95.45
64.51,-128.01,1.7885,-125.6,60.843,-151.15,-23.225,-68.984,80.584,-142.12,95.305,-172.64,0.44656,-57.782,48.925,-95.459
64.51,-128.01,1.7885,-125.6,60.843,-151.15,-23.225,-68.984,80.584,-142.12,95.305,-172.64,0.44656,-57.782,48.925,-95.459
64.262,-127.66,1.9116,-125.58,60.851,-150.88,-23.281,-68.777,80.704,-142.03,95.499,-172.62,0.5378,-57.539,48.875,-95.466
64.012,-127.3,2.0346,-125.55,60.857,-150.61,-23.336,-68.569,80.822,-141.94,95.69,-172.61,0.62885,-57.297,48.825,-95.473
63.761,-126.95,2.1576,-125.52,60.863,-150.34,-23.391,-68.362,80.939,-141.84,95.88,-172.59,0.71972,-57.055,48.775,-95.479
63.761,-126.95,2.1576,-125.52,60.863,-150.34,-23.391,-68.362,80.939,-141.84,95.88,-172.59,0.71972,-57.055,48.775,-95.479
63.509,-126.6,2.2806,-125.5,60.868,-150.07,-23.446,-68.154,81.054,-141.75,96.068,-172.57,0.81038,-56.814,48.724,-95.483
63.256,-126.25,2.4034,-125.46,60.873,-149.79,-23.501,-67.945,81.167,-141.66,96.254,-172.55,0.90083,-56.574,48.673,-95.486
63.001,-125.9,2.5262,-125.43,60.876,-149.52,-23.556,-67.737,81.278,-141.56,96.438,-172.53,0.99107,-56.335,48.621,-95.488
62.744,-125.56,2.649,-125.4,60.879,-149.25,-23.611,-67.529,81.387,-141.47,96.62,-172.51,1.0811,-56.096,48.57,-95.489
62.744,-125.56,2.649,-125.4,60.879,-149.25,-23.611,-67.529,81.387,-141.47,96.62,-172.51,1.0811,-56.096,48.57,-95.489
62.487,-125.21,2.7716,-125.36,60.881,-148.97,-23.666,-67.32,81.495,-141.38,96.8,-172.48,1.1709,-55.858,48.518,-95.489
62.228,-124.87,2.8942,-125.32,60.882,-148.7,-23.72,-67.112,81.6,-141.28,96.979,-172.46,1.2604,-55.621,48.465,-95.488
61.968,-124.52,3.0166,-125.28,60.882,-148.42,-23.775,-66.903,81.704,-141.19,97.155,-172.44,1.3497,-55.385,48.413,-95.485
61.707,-124.18,3.1391,-125.23,60.882,-148.15,-23.829,-66.695,81.806,-141.1,97.33,-172.41,1.4387,-55.15,48.36,-95.482
61.707,-124.18,3.1391,-125.23,60.882,-148.15,-23.829,-66.695,81.806,-141.1,97.33,-172.41,1.4387,-55.15,48.36,-95.482
61.444,-123.84,3.2614,-125.19,60.881,-147.87,-23.884,-66.486,81.907,-141,97.502,-172.39,1.5274,-54.916,48.307,-95.477
61.18,-123.51,3.3836,-125.14,60.878,-147.6,-23.938,-66.278,82.005,-140.91,97.673,-172.36,1.6159,-54.683,48.253,-95.472
61.18,-123.51,3.3836,-125.14,60.878,-147.6,-23.938,-66.278,82.005,-140.91,97.673,-172.36,1.6159,-54.683,48.253,-95.472
60.915,-123.17,3.5057,-125.1,60.876,-147.32,-23.993,-66.07,82.101,-140.81,97.841,-172.34,1.7041,-54.451,48.199,-95.465
60.648,-122.84,3.6278,-125.04,60.872,-147.04,-24.047,-65.862,82.196,-140.72,98.008,-172.31,1.792,-54.22,48.145,-95.458
60.381,-122.51,3.7497,-124.99,60.867,-146.76,-24.101,-65.654,82.289,-140.63,98.173,-172.28,1.8796,-53.99,48.091,-95.449
60.381,-122.51,3.7497,-124.99,60.867,-146.76,-24.101,-65.654,82.289,-140.63,98.173,-172.28,1.8796,-53.99,48.091,-95.449
60.112,-122.18,3.8716,-124.94,60.862,-146.48,-24.155,-65.446,82.38,-140.53,98.335,-172.26,1.9669,-53.761,48.036,-95.439
59.842,-121.85,3.9933,-124.88,60.856,-146.2,-24.209,-65.239,82.469,-140.44,98.496,-172.23,2.0538,-53.533,47.981,-95.428
59.571,-121.52,4.115,-124.83,60.849,-145.92,-24.263,-65.032,82.556,-140.35,98.654,-172.2,2.1405,-53.306,47.926,-95.417
59.299,-121.19,4.2365,-124.77,60.841,-145.64,-24.317,-64.825,82.642,-140.25,98.811,-172.17,2.2268,-53.081,47.871,-95.404
59.299,-121.19,4.2365,-124.77,60.841,-145.64,-24.317,-64.825,82.642,-140.25,98.811,-172.17,2.2268,-53.081,47.871,-95.404
59.025,-120.87,4.358,-124.71,60.832,-145.36,-24.37,-64.619,82.725,-140.16,98.965,-172.14,2.3128,-52.857,47.816,-95.39
58.751,-120.55,4.4793,-124.64,60.822,-145.08,-24.424,-64.412,82.807,-140.07,99.118,-172.11,2.3984,-52.634,47.76,-95.376
58.475,-120.23,4.6005,-124.58,60.812,-144.8,-24.478,-64.207,82.886,-139.97,99.268,-172.08,2.4837,-52.412,47.704,-95.36
58.475,-120.23,4.6005,-124.58,60.812,-144.8,-24.478,-64.207,82.886,-139.97,99.268,-172.08,2.4837,-52.412,47.704,-95.36
58.198,-119.91,4.7216,-124.52,60.801,-144.52,-24.532,-64.001,82.964,-139.88,99.417,-172.05,2.5686,-52.192,47.647,-95.344
57.92,-119.6,4.8426,-124.45,60.789,-144.24,-24.585,-63.797,83.04,-139.79,99.563,-172.02,2.6531,-51.973,47.591,-95.326
57.641,-119.28,4.9634,-124.38,60.776,-143.95,-24.639,-63.592,83.114,-139.7,99.707,-171.99,2.7372,-51.755,47.534,-95.308
57.361,-118.97,5.0841,-124.31,60.762,-143.67,-24.692,-63.388,83.186,-139.6,99.849,-171.95,2.821,-51.538,47.478,-95.289
57.361,-118.97,5.0841,-124.31,60.762,-143.67,-24.692,-63.388,83.186,-139.6,99.849,-171.95,2.821,-51.538,47.478,-95.289
57.08,-118.66,5.2047,-124.24,60.748,-143.39,-24.746,-63.185,83.256,-139.51,99.989,-171.92,2.9044,-51.323,47.42,-95.269
56.798,-118.36,5.3252,-124.16,60.732,-143.1,-24.799,-62.982,83.325,-139.42,100.13,-171.89,2.9874,-51.11,47.363,-95.248
56.515,-118.05,5.4455,-124.09,60.716,-142.82,-24.852,-62.78,83.391,-139.33,100.26,-171.86,3.0699,-50.897,47.306,-95.226
56.515,-118.05,5.4455,-124.09,60.716,-142.82,-24.852,-62.78,83.391,-139.33,100.26,-171.86,3.0699,-50.897,47.306,-95.226
56.23,-117.75,5.5657,-124.01,60.699,-142.54,-24.906,-62.579,83.456,-139.24,100.4,-171.82,3.1521,-50.687,47.248,-95.203
55.945,-117.45,5.6858,-123.94,60.681,-142.25,-24.959,-62.378,83.518,-139.15,100.53,-171.79,3.2338,-50.477,47.19,-95.179
55.659,-117.15,5.8057,-123.86,60.662,-141.97,-25.012,-62.178,83.579,-139.06,100.66,-171.76,3.3151,-50.27,47.133,-95.155
55.372,-116.85,5.9254,-123.78,60.643,-141.69,-25.065,-61.978,83.637,-138.97,100.78,-171.72,3.396,-50.063,47.074,-95.129
55.372,-116.85,5.9254,-123.78,60.643,-141.69,-25.065,-61.978,83.637,-138.97,100.78,-171.72,3.396,-50.063,47.074,-95.129
55.083,-116.55,6.045,-123.69,60.622,-141.4,-25.118,-61.779,83.694,-138.88,100.91,-171.69,3.4765,-49.859,47.016,-95.103
54.794,-116.26,6.1644,-123.61,60.601,-141.12,-25.171,-61.581,83.749,-138.79,101.03,-171.65,3.5564,-49.656,46.958,-95.076
54.794,-116.26,6.1644,-123.61,60.601,-141.12,-25.171,-61.581,83.749,-138.79,101.03,-171.65,3.5564,-49.656,46.958,-95.076
54.504,-115.97,6.2837,-123.53,60.579,-140.83,-25.224,-61.384,83.802,-138.71,101.15,-171.62,3.636,-49.454,46.899,-95.049
54.504,-115.97,6.2837,-123.53,60.579,-140.83,-25.224,-61.384,83.802,-138.71,101.15,-171.62,3.636,-49.454,46.899,-95.049
54.213,-115.68,6.4028,-123.44,60.556,-140.55,-25.277,-61.188,83.853,-138.62,101.27,-171.59,3.715,-49.254,46.841,-95.02
53.921,-115.4,6.5218,-123.35,60.532,-140.26,-25.33,-60.992,83.902,-138.53,101.38,-171.55,3.7937,-49.056,46.782,-94.991
53.628,-115.11,6.6406,-123.26,60.507,-139.98,-25.383,-60.798,83.949,-138.44,101.5,-171.52,3.8718,-48.859,46.723,-94.961
53.335,-114.83,6.7592,-123.17,60.482,-139.69,-25.436,-60.604,83.994,-138.36,101.61,-171.48,3.9495,-48.664,46.664,-94.93
53.335,-114.83,6.7592,-123.17,60.482,-139.69,-25.436,-60.604,83.994,-138.36,101.61,-171.48,3.9495,-48.664,46.664,-94.93
53.04,-114.55,6.8776,-123.08,60.455,-139.41,-25.489,-60.411,84.037,-138.27,101.72,-171.45,4.0266,-48.471,46.605,-94.898
52.745,-114.27,6.9959,-122.99,60.428,-139.13,-25.541,-60.219,84.079,-138.19,101.83,-171.41,4.1033,-48.279,46.545,-94.866
52.745,-114.27,6.9959,-122.99,60.428,-139.13,-25.541,-60.219,84.079,-138.19,101.83,-171.41,4.1033,-48.279,46.545,-94.866
52.449,-114,7.1139,-122.9,60.4,-138.84,-25.594,-60.028,84.118,-138.11,101.93,-171.38,4.1795,-48.09,46.486,-94.833
52.152,-113.73,7.2318,-122.8,60.371,-138.56,-25.647,-59.838,84.155,-138.02,102.03,-171.34,4.2552,-47.902,46.426,-94.799
51.854,-113.46,7.3495,-122.71,60.341,-138.27,-25.7,-59.649,84.19,-137.94,102.13,-171.31,4.3304,-47.715,46.367,-94.765
51.854,-113.46,7.3495,-122.71,60.341,-138.27,-25.7,-59.649,84.19,-137.94,102.13,-171.31,4.3304,-47.715,46.367,-94.765
51.555,-113.19,7.467,-122.61,60.311,-137.99,-25.752,-59.461,84.224,-137.86,102.23,-171.27,4.4051,-47.531,46.307,-94.729
51.255,-112.92,7.5842,-122.51,60.279,-137.7,-25.805,-59.274,84.255,-137.78,102.33,-171.24,4.4792,-47.348,46.247,-94.694
50.955,-112.66,7.7013,-122.41,60.247,-137.42,-25.857,-59.089,84.285,-137.7,102.42,-171.2,4.5528,-47.167,46.187,-94.657
50.654,-112.4,7.8182,-122.31,60.214,-137.14,-25.91,-58.904,84.312,-137.62,102.51,-171.16,4.6259,-46.988,46.127,-94.62
50.352,-112.14,7.9348,-122.21,60.18,-136.85,-25.962,-58.721,84.338,-137.54,102.6,-171.13,4.6985,-46.811,46.067,-94.582
50.352,-112.14,7.9348,-122.21,60.18,-136.85,-25.962,-58.721,84.338,-137.54,102.6,-171.13,4.6985,-46.811,46.067,-94.582
50.05,-111.88,8.0513,-122.1,60.145,-136.57,-26.015,-58.538,84.361,-137.46,102.69,-171.09,4.7706,-46.636,46.007,-94.543
49.747,-111.63,8.1675,-122,60.109,-136.28,-26.067,-58.357,84.383,-137.38,102.77,-171.06,4.842,-46.463,45.947,-94.504
49.443,-111.38,8.2835,-121.89,60.073,-136,-26.12,-58.177,84.403,-137.3,102.85,-171.02,4.913,-46.291,45.887,-94.464
49.443,-111.38,8.2835,-121.89,60.073,-136,-26.12,-58.177,84.403,-137.3,102.85,-171.02,4.913,-46.291,45.887,-94.464
49.138,-111.13,8.3993,-121.79,60.035,-135.72,-26.172,-57.998,84.42,-137.23,102.93,-170.99,4.9834,-46.122,45.827,-94.424
48.833,-110.88,8.5148,-121.68,59.997,-135.44,-26.224,-57.821,84.436,-137.15,103.01,-170.95,5.0532,-45.954,45.766,-94.383
48.527,-110.64,8.6301,-121.57,59.958,-135.15,-26.277,-57.644,84.45,-137.08,103.08,-170.92,5.1225,-45.788,45.706,-94.341
48.221,-110.4,8.7451,-121.46,59.918,-134.87,-26.329,-57.469,84.462,-137,103.16,-170.88,5.1912,-45.625,45.646,-94.299
48.221,-110.4,8.7451,-121.46,59.918,-134.87,-26.329,-57.469,84.462,-137,103.16,-170.88,5.1912,-45.625,45.646,-94.299
47.913,-110.16,8.8599,-121.35,59.877,-134.59,-26.381,-57.296,84.471,-136.93,103.23,-170.85,5.2594,-45.463,45.585,-94.256
47.606,-109.92,8.9744,-121.24,59.836,-134.31,-26.433,-57.123,84.479,-136.86,103.29,-170.81,5.327,-45.303,45.525,-94.212
47.297,-109.69,9.0887,-121.13,59.793,-134.03,-26.485,-56.952,84.485,-136.79,103.36,-170.78,5.394,-45.146,45.464,-94.168
47.297,-109.69,9.0887,-121.13,59.793,-134.03,-26.485,-56.952,84.485,-136.79,103.36,-170.78,5.394,-45.146,45.464,-94.168
46.988,-109.45,9.2027,-121.02,59.75,-133.75,-26.537,-56.783,84.489,-136.72,103.42,-170.75,5.4604,-44.99,45.403,-94.123
46.679,-109.22,9.3165,-120.9,59.706,-133.47,-26.589,-56.615,84.491,-136.65,103.48,-170.71,5.5262,-44.837,45.343,-94.078
46.369,-109,9.43,-120.79,59.661,-133.19,-26.641,-56.448,84.491,-136.58,103.54,-170.68,5.5915,-44.685,45.282,-94.032
46.058,-108.77,9.5432,-120.67,59.615,-132.91,-26.693,-56.282,84.489,-136.51,103.6,-170.64,5.6561,-44.536,45.222,-93.986
46.058,-108.77,9.5432,-120.67,59.615,-132.91,-26.693,-56.282,84.489,-136.51,103.6,-170.64,5.6561,-44.536,45.222,-93.986
45.747,-108.55,9.6561,-120.55,59.568,-132.63,-26.745,-56.118,84.485,-136.44,103.65,-170.61,5.7202,-44.388,45.161,-93.939
45.435,-108.33,9.7687,-120.44,59.521,-132.35,-26.797,-55.956,84.479,-136.38,103.7,-170.57,5.7837,-44.243,45.1,-93.892
45.123,-108.11,9.8811,-120.32,59.473,-132.07,-26.849,-55.794,84.471,-136.31,103.75,-170.54,5.8466,-44.1,45.04,-93.844
45.123,-108.11,9.8811,-120.32,59.473,-132.07,-26.849,-55.794,84.471,-136.31,103.75,-170.54,5.8466,-44.1,45.04,-93.844
44.81,-107.9,9.9931,-120.2,59.423,-131.79,-26.901,-55.635,84.461,-136.25,103.79,-170.51,5.9088,-43.959,44.979,-93.796
44.497,-107.68,10.105,-120.08,59.373,-131.51,-26.952,-55.477,84.449,-136.18,103.84,-170.47,5.9705,-43.82,44.918,-93.747
44.184,-107.47,10.216,-119.96,59.323,-131.24,-27.004,-55.32,84.435,-136.12,103.88,-170.44,6.0316,-43.683,44.857,-93.697
44.184,-107.47,10.216,-119.96,59.323,-131.24,-27.004,-55.32,84.435,-136.12,103.88,-170.44,6.0316,-43.683,44.857,-93.697
43.87,-107.26,10.327,-119.84,59.271,-130.96,-27.056,-55.165,84.419,-136.06,103.92,-170.41,6.092,-43.548,44.797,-93.647
43.555,-107.06,10.438,-119.71,59.219,-130.68,-27.107,-55.012,84.401,-136,103.95,-170.37,6.1518,-43.415,44.736,-93.597
43.24,-106.86,10.549,-119.59,59.165,-130.41,-27.159,-54.86,84.382,-135.94,103.99,-170.34,6.2111,-43.285,44.676,-93.546
42.925,-106.66,10.659,-119.47,59.111,-130.13,-27.21,-54.709,84.36,-135.88,104.02,-170.31,6.2697,-43.157,44.615,-93.495
42.925,-106.66,10.659,-119.47,59.111,-130.13,-27.21,-54.709,84.36,-135.88,104.02,-170.31,6.2697,-43.157,44.615,-93.495
42.61,-106.46,10.769,-119.34,59.057,-129.86,-27.261,-54.56,84.336,-135.82,104.05,-170.28,6.3277,-43.031,44.554,-93.443
42.61,-106.46,10.769,-119.34,59.057,-129.86,-27.261,-54.56,84.336,-135.82,104.05,-170.28,6.3277,-43.031,44.554,-93.443
42.61,-106.46,10.769,-119.34,59.057,-129.86,-27.261,-54.56,84.336,-135.82,104.05,-170.28,6.3277,-43.031,44.554,-93.443
41.977,-106.07,10.987,-119.09,58.944,-129.31,-27.364,-54.268,84.283,-135.71,104.1,-170.21,6.4418,-42.785,44.433,-93.338
41.977,-106.07,10.987,-119.09,58.944,-129.31,-27.364,-54.268,84.283,-135.71,104.1,-170.21,6.4418,-42.785,44.433,-93.338
41.661,-105.88,11.096,-118.96,58.887,-129.04,-27.415,-54.124,84.253,-135.66,104.12,-170.18,6.4979,-42.666,44.373,-93.285
41.344,-105.69,11.205,-118.83,58.829,-128.76,-27.466,-53.982,84.222,-135.6,104.14,-170.15,6.5534,-42.548,44.312,-93.231
41.027,-105.5,11.313,-118.71,58.77,-128.49,-27.517,-53.841,84.188,-135.55,104.16,-170.12,6.6082,-42.433,44.252,-93.177
40.709,-105.32,11.42,-118.58,58.71,-128.22,-27.569,-53.702,84.153,-135.5,104.17,-170.09,6.6625,-42.32,44.191,-93.123
40.392,-105.14,11.528,-118.45,58.65,-127.95,-27.619,-53.565,84.116,-135.45,104.19,-170.06,6.7161,-42.209,44.131,-93.068
40.392,-105.14,11.528,-118.45,58.65,-127.95,-27.619,-53.565,84.116,-135.45,104.19,-170.06,6.7161,-42.209,44.131,-93.068
40.074,-104.96,11.635,-118.32,58.589,-127.68,-27.67,-53.429,84.076,-135.4,104.19,-170.02,6.769,-42.101,44.071,-93.013
39.755,-104.78,11.741,-118.19,58.527,-127.41,-27.721,-53.295,84.035,-135.35,104.2,-169.99,6.8214,-41.995,44.01,-92.957
39.437,-104.61,11.848,-118.06,58.464,-127.14,-27.772,-53.163,83.992,-135.3,104.21,-169.96,6.8731,-41.891,43.95,-92.901
39.437,-104.61,11.848,-118.06,58.464,-127.14,-27.772,-53.163,83.992,-135.3,104.21,-169.96,6.8731,-41.891,43.95,-92.901
39.118,-104.44,11.953,-117.92,58.4,-126.87,-27.822,-53.033,83.947,-135.25,104.21,-169.93,6.9241,-41.789,43.89,-92.844
38.8,-104.27,12.059,-117.79,58.336,-126.6,-27.873,-52.904,83.899,-135.21,104.21,-169.9,6.9745,-41.689,43.83,-92.788
38.8,-104.27,12.059,-117.79,58.336,-126.6,-27.873,-52.904,83.899,-135.21,104.21,-169.9,6.9745,-41.689,43.83,-92.788
38.481,-104.1,12.164,-117.66,58.271,-126.34,-27.924,-52.777,83.85,-135.16,104.21,-169.87,7.0243,-41.592,43.77,-92.73
38.161,-103.94,12.268,-117.52,58.205,-126.07,-27.974,-52.652,83.799,-135.12,104.2,-169.84,7.0735,-41.497,43.71,-92.673
37.842,-103.78,12.373,-117.39,58.138,-125.81,-28.024,-52.528,83.747,-135.08,104.19,-169.81,7.122,-41.404,43.65,-92.615
37.523,-103.62,12.476,-117.25,58.07,-125.54,-28.074,-52.407,83.692,-135.03,104.18,-169.78,7.1699,-41.313,43.59,-92.556
37.203,-103.46,12.58,-117.12,58.002,-125.28,-28.124,-52.287,83.635,-134.99,104.17,-169.76,7.2171,-41.225,43.53,-92.497
37.203,-103.46,12.58,-117.12,58.002,-125.28,-28.124,-52.287,83.635,-134.99,104.17,-169.76,7.2171,-41.225,43.53,-92.497
36.884,-103.3,12.683,-116.98,57.933,-125.01,-28.174,-52.169,83.576,-134.95,104.15,-169.73,7.2637,-41.139,43.47,-92.438
36.564,-103.15,12.785,-116.85,57.863,-124.75,-28.224,-52.052,83.516,-134.91,104.14,-169.7,7.3097,-41.055,43.411,-92.379
36.244,-103,12.887,-116.71,57.793,-124.49,-28.274,-51.938,83.453,-134.88,104.12,-169.67,7.355,-40.973,43.351,-92.319
36.244,-103,12.887,-116.71,57.793,-124.49,-28.274,-51.938,83.453,-134.88,104.12,-169.67,7.355,-40.973,43.351,-92.319
35.925,-102.85,12.989,-116.57,57.721,-124.23,-28.324,-51.825,83.389,-134.84,104.09,-169.64,7.3997,-40.894,43.291,-92.259
35.605,-102.71,13.09,-116.43,57.649,-123.97,-28.373,-51.714,83.323,-134.8,104.07,-169.61,7.4437,-40.817,43.232,-92.198
35.285,-102.56,13.191,-116.29,57.577,-123.71,-28.423,-51.605,83.255,-134.77,104.04,-169.58,7.4871,-40.742,43.173,-92.137
35.285,-102.56,13.191,-116.29,57.577,-123.71,-28.423,-51.605,83.255,-134.77,104.04,-169.58,7.4871,-40.742,43.173,-92.137
34.965,-102.42,13.291,-116.15,57.503,-123.45,-28.472,-51.497,83.185,-134.73,104.01,-169.56,7.5299,-40.669,43.113,-92.076
34.645,-102.28,13.391,-116.01,57.429,-123.19,-28.521,-51.392,83.113,-134.7,103.98,-169.53,7.5721,-40.599,43.054,-92.014
34.326,-102.14,13.49,-115.87,57.354,-122.93,-28.571,-51.288,83.039,-134.67,103.95,-169.5,7.6136,-40.53,42.995,-91.952
34.326,-102.14,13.49,-115.87,57.354,-122.93,-28.571,-51.288,83.039,-134.67,103.95,-169.5,7.6136,-40.53,42.995,-91.952
34.006,-102.01,13.589,-115.73,57.278,-122.68,-28.62,-51.186,82.963,-134.64,103.91,-169.47,7.6544,-40.464,42.936,-91.89
33.686,-101.88,13.687,-115.59,57.202,-122.42,-28.668,-51.086,82.886,-134.61,103.87,-169.44,7.6946,-40.401,42.877,-91.828
33.367,-101.74,13.785,-115.45,57.125,-122.17,-28.717,-50.988,82.806,-134.58,103.83,-169.42,7.7342,-40.339,42.818,-91.765
33.048,-101.62,13.882,-115.31,57.047,-121.91,-28.766,-50.892,82.725,-134.55,103.78,-169.39,7.7732,-40.28,42.759,-91.701
33.048,-101.62,13.882,-115.31,57.047,-121.91,-28.766,-50.892,82.725,-134.55,103.78,-169.39,7.7732,-40.28,42.759,-91.701
32.728,-101.49,13.979,-115.17,56.969,-121.66,-28.814,-50.797,82.642,-134.52,103.74,-169.36,7.8115,-40.223,42.701,-91.638
32.409,-101.37,14.075,-115.02,56.889,-121.4,-28.862,-50.705,82.557,-134.5,103.69,-169.33,7.8492,-40.168,42.642,-91.574
32.09,-101.24,14.171,-114.88,56.809,-121.15,-28.91,-50.614,82.47,-134.47,103.63,-169.31,7.8863,-40.115,42.584,-91.51
31.771,-101.12,14.266,-114.74,56.729,-120.9,-28.958,-50.525,82.382,-134.45,103.58,-169.28,7.9228,-40.065,42.525,-91.445
31.771,-101.12,14.266,-114.74,56.729,-120.9,-28.958,-50.525,82.382,-134.45,103.58,-169.28,7.9228,-40.065,42.525,-91.445
31.453,-101.01,14.361,-114.59,56.648,-120.65,-29.006,-50.438,82.291,-134.42,103.52,-169.25,7.9586,-40.017,42.467,-91.38
31.134,-100.89,14.455,-114.45,56.566,-120.4,-29.054,-50.352,82.199,-134.4,103.46,-169.23,7.9938,-39.971,42.409,-91.315
30.816,-100.78,14.549,-114.31,56.483,-120.15,-29.101,-50.269,82.105,-134.38,103.4,-169.2,8.0284,-39.927,42.351,-91.25
30.816,-100.78,14.549,-114.31,56.483,-120.15,-29.101,-50.269,82.105,-134.38,103.4,-169.2,8.0284,-39.927,42.351,-91.25
30.498,-100.66,14.642,-114.16,56.4,-119.91,-29.148,-50.187,82.009,-134.36,103.34,-169.17,8.0623,-39.885,42.293,-91.184
30.18,-100.55,14.735,-114.01,56.316,-119.66,-29.195,-50.107,81.911,-134.34,103.27,-169.14,8.0956,-39.846,42.235,-91.118
30.18,-100.55,14.735,-114.01,56.316,-119.66,-29.195,-50.107,81.911,-134.34,103.27,-169.14,8.0956,-39.846,42.235,-91.118
29.863,-100.45,14.827,-113.87,56.231,-119.41,-29.242,-50.029,81.812,-134.32,103.2,-169.12,8.1284,-39.809,42.178,-91.051
29.863,-100.45,14.827,-113.87,56.231,-119.41,-29.242,-50.029,81.812,-134.32,103.2,-169.12,8.1284,-39.809,42.178,-91.051
29.863,-100.45,14.827,-113.87,56.231,-119.41,-29.242,-50.029,81.812,-134.32,103.2,-169.12,8.1284,-39.809,42.178,-91.051
29.229,-100.24,15.009,-113.58,56.06,-118.92,-29.336,-49.879,81.607,-134.28,103.06,-169.06,8.1919,-39.741,42.063,-90.918
28.912,-100.13,15.099,-113.43,55.973,-118.68,-29.382,-49.806,81.502,-134.27,102.98,-169.04,8.2228,-39.71,42.005,-90.85
28.596,-100.03,15.189,-113.28,55.886,-118.44,-29.428,-49.736,81.396,-134.25,102.9,-169.01,8.2531,-39.681,41.948,-90.783
28.28,-99.935,15.278,-113.13,55.798,-118.2,-29.474,-49.667,81.287,-134.23,102.82,-168.98,8.2827,-39.655,41.891,-90.715
28.28,-99.935,15.278,-113.13,55.798,-118.2,-29.474,-49.667,81.287,-134.23,102.82,-168.98,8.2827,-39.655,41.891,-90.715
27.964,-99.838,15.367,-112.99,55.71,-117.95,-29.52,-49.6,81.177,-134.22,102.74,-168.96,8.3118,-39.63,41.834,-90.646
27.649,-99.743,15.455,-112.84,55.621,-117.71,-29.565,-49.534,81.065,-134.21,102.65,-168.93,8.3403,-39.608,41.777,-90.578
27.334,-99.65,15.542,-112.69,55.531,-117.48,-29.61,-49.471,80.951,-134.19,102.56,-168.9,8.3681,-39.588,41.72,-90.509
27.334,-99.65,15.542,-112.69,55.531,-117.48,-29.61,-49.471,80.951,-134.19,102.56,-168.9,8.3681,-39.588,41.72,-90.509
27.02,-99.559,15.629,-112.54,55.441,-117.24,-29.655,-49.409,80.836,-134.18,102.47,-168.87,8.3954,-39.57,41.664,-90.44
26.706,-99.469,15.715,-112.39,55.35,-117,-29.7,-49.35,80.719,-134.17,102.38,-168.85,8.422,-39.554,41.607,-90.37
26.392,-99.382,15.801,-112.24,55.258,-116.76,-29.745,-49.291,80.6,-134.16,102.29,-168.82,8.4481,-39.54,41.551,-90.301
26.079,-99.296,15.886,-112.09,55.166,-116.53,-29.789,-49.235,80.479,-134.15,102.19,-168.79,8.4736,-39.528,41.495,-90.23
26.079,-99.296,15.886,-112.09,55.166,-116.53,-29.789,-49.235,80.479,-134.15,102.19,-168.79,8.4736,-39.528,41.495,-90.23
25.766,-99.211,15.97,-111.94,55.074,-116.29,-29.833,-49.181,80.357,-134.14,102.09,-168.76,8.4985,-39.518,41.439,-90.16
25.454,-99.129,16.054,-111.79,54.98,-116.06,-29.877,-49.128,80.233,-134.14,101.99,-168.74,8.5228,-39.51,41.383,-90.089
25.454,-99.129,16.054,-111.79,54.98,-116.06,-29.877,-49.128,80.233,-134.14,101.99,-168.74,8.5228,-39.51,41.383,-90.089
25.143,-99.048,16.137,-111.64,54.887,-115.82,-29.92,-49.077,80.108,-134.13,101.88,-168.71,8.5466,-39.504,41.327,-90.018
24.831,-98.968,16.22,-111.48,54.792,-115.59,-29.963,-49.028,79.98,-134.12,101.77,-168.68,8.5697,-39.501,41.271,-89.947
24.521,-98.89,16.301,-111.33,54.697,-115.36,-30.006,-48.98,79.851,-134.12,101.66,-168.65,8.5923,-39.499,41.216,-89.875
24.521,-98.89,16.301,-111.33,54.697,-115.36,-30.006,-48.98,79.851,-134.12,101.66,-168.65,8.5923,-39.499,41.216,-89.875
24.211,-98.814,16.383,-111.18,54.602,-115.13,-30.049,-48.934,79.721,-134.11,101.55,-168.62,8.6143,-39.499,41.16,-89.803
23.901,-98.739,16.463,-111.03,54.506,-114.9,-30.091,-48.89,79.588,-134.1,101.44,-168.59,8.6358,-39.501,41.105,-89.731
23.592,-98.666,16.543,-110.87,54.409,-114.67,-30.133,-48.848,79.454,-134.1,101.32,-168.56,8.6567,-39.506,41.05,-89.658
23.284,-98.594,16.622,-110.72,54.312,-114.44,-30.175,-48.807,79.319,-134.1,101.2,-168.53,8.677,-39.512,40.995,-89.585
23.284,-98.594,16.622,-110.72,54.312,-114.44,-30.175,-48.807,79.319,-134.1,101.2,-168.53,8.677,-39.512,40.995,-89.585
22.976,-98.523,16.701,-110.57,54.215,-114.22,-30.216,-48.768,79.182,-134.09,101.08,-168.5,8.6968,-39.52,40.94,-89.512
22.669,-98.454,16.779,-110.41,54.116,-113.99,-30.258,-48.731,79.043,-134.09,100.96,-168.47,8.716,-39.53,40.886,-89.438
22.362,-98.387,16.856,-110.26,54.018,-113.76,-30.298,-48.695,78.902,-134.09,100.83,-168.44,8.7347,-39.542,40.831,-89.364
22.362,-98.387,16.856,-110.26,54.018,-113.76,-30.298,-48.695,78.902,-134.09,100.83,-168.44,8.7347,-39.542,40.831,-89.364
22.057,-98.321,16.933,-110.1,53.919,-113.54,-30.339,-48.661,78.76,-134.09,100.71,-168.41,8.7528,-39.555,40.777,-89.29
21.751,-98.256,17.008,-109.95,53.819,-113.32,-30.379,-48.629,78.617,-134.09,100.58,-168.38,8.7704,-39.571,40.723,-89.215
21.447,-98.192,17.084,-109.79,53.719,-113.09,-30.419,-48.598,78.472,-134.09,100.44,-168.35,8.7874,-39.589,40.669,-89.14
21.143,-98.13,17.158,-109.64,53.618,-112.87,-30.458,-48.569,78.325,-134.09,100.31,-168.32,8.8039,-39.608,40.615,-89.065
20.84,-98.069,17.232,-109.48,53.517,-112.65,-30.497,-48.541,78.176,-134.09,100.17,-168.29,8.8199,-39.629,40.561,-88.989
20.84,-98.069,17.232,-109.48,53.517,-112.65,-30.497,-48.541,78.176,-134.09,100.17,-168.29,8.8199,-39.629,40.561,-88.989
20.537,-98.009,17.305,-109.33,53.416,-112.43,-30.536,-48.515,78.027,-134.09,100.03,-168.25,8.8354,-39.652,40.508,-88.913
20.236,-97.951,17.377,-109.17,53.314,-112.21,-30.574,-48.491,77.875,-134.09,99.893,-168.22,8.8503,-39.677,40.454,-88.837
20.236,-97.951,17.377,-109.17,53.314,-112.21,-30.574,-48.491,77.875,-134.09,99.893,-168.22,8.8503,-39.677,40.454,-88.837
19.935,-97.893,17.449,-109.01,53.211,-111.99,-30.612,-48.468,77.722,-134.09,99.75,-168.19,8.8647,-39.704,40.401,-88.76
19.635,-97.837,17.52,-108.85,53.108,-111.77,-30.65,-48.447,77.568,-134.1,99.604,-168.15,8.8786,-39.732,40.348,-88.683
19.335,-97.782,17.59,-108.7,53.005,-111.56,-30.687,-48.427,77.412,-134.1,99.456,-168.12,8.892,-39.762,40.295,-88.606
19.335,-97.782,17.59,-108.7,53.005,-111.56,-30.687,-48.427,77.412,-134.1,99.456,-168.12,8.892,-39.762,40.295,-88.606
19.037,-97.727,17.66,-108.54,52.901,-111.34,-30.724,-48.409,77.254,-134.1,99.306,-168.08,8.9049,-39.794,40.242,-88.528
18.739,-97.674,17.729,-108.38,52.797,-111.12,-30.76,-48.392,77.095,-134.11,99.154,-168.05,8.9173,-39.828,40.19,-88.449
18.442,-97.622,17.797,-108.22,52.692,-110.91,-30.796,-48.377,76.935,-134.11,99,-168.01,8.9291,-39.863,40.138,-88.371
18.146,-97.571,17.864,-108.06,52.587,-110.7,-30.831,-48.363,76.773,-134.11,98.844,-167.97,8.9405,-39.9,40.085,-88.292
18.146,-97.571,17.864,-108.06,52.587,-110.7,-30.831,-48.363,76.773,-134.11,98.844,-167.97,8.9405,-39.9,40.085,-88.292
17.851,-97.521,17.931,-107.9,52.482,-110.48,-30.866,-48.351,76.61,-134.12,98.685,-167.93,8.9514,-39.939,40.033,-88.212
17.851,-97.521,17.931,-107.9,52.482,-110.48,-30.866,-48.351,76.61,-134.12,98.685,-167.93,8.9514,-39.939,40.033,-88.212
17.556,-97.472,17.997,-107.74,52.376,-110.27,-30.901,-48.34,76.445,-134.12,98.524,-167.9,8.9618,-39.979,39.982,-88.132
17.263,-97.424,18.062,-107.58,52.27,-110.06,-30.935,-48.33,76.279,-134.13,98.361,-167.86,8.9718,-40.021,39.93,-88.052
17.263,-97.424,18.062,-107.58,52.27,-110.06,-30.935,-48.33,76.279,-134.13,98.361,-167.86,8.9718,-40.021,39.93,-88.052
16.97,-97.376,18.127,-107.42,52.163,-109.85,-30.969,-48.322,76.111,-134.13,98.196,-167.82,8.9812,-40.064,39.878,-87.971
16.678,-97.329,18.19,-107.26,52.056,-109.64,-31.002,-48.315,75.942,-134.14,98.029,-167.78,8.9902,-40.109,39.827,-87.89
16.387,-97.284,18.253,-107.1,51.949,-109.43,-31.035,-48.31,75.771,-134.14,97.86,-167.74,8.9987,-40.156,39.776,-87.809
16.097,-97.239,18.315,-106.93,51.841,-109.22,-31.067,-48.305,75.599,-134.15,97.689,-167.7,9.0068,-40.204,39.725,-87.727
16.097,-97.239,18.315,-106.93,51.841,-109.22,-31.067,-48.305,75.599,-134.15,97.689,-167.7,9.0068,-40.204,39.725,-87.727
15.808,-97.194,18.377,-106.77,51.733,-109.01,-31.099,-48.303,75.426,-134.15,97.516,-167.65,9.0144,-40.254,39.674,-87.644
15.52,-97.151,18.438,-106.61,51.625,-108.81,-31.13,-48.301,75.252,-134.16,97.341,-167.61,9.0215,-40.305,39.624,-87.561
15.233,-97.108,18.498,-106.44,51.516,-108.6,-31.161,-48.301,75.076,-134.17,97.163,-167.57,9.0282,-40.358,39.573,-87.478
14.947,-97.065,18.557,-106.28,51.407,-108.4,-31.191,-48.302,74.898,-134.17,96.984,-167.52,9.0345,-40.412,39.523,-87.394
14.662,-97.024,18.615,-106.12,51.297,-108.19,-31.221,-48.304,74.72,-134.18,96.802,-167.48,9.0403,-40.467,39.473,-87.31
14.662,-97.024,18.615,-106.12,51.297,-108.19,-31.221,-48.304,74.72,-134.18,96.802,-167.48,9.0403,-40.467,39.473,-87.31
14.378,-96.983,18.673,-105.95,51.188,-107.99,-31.25,-48.308,74.54,-134.18,96.619,-167.43,9.0457,-40.524,39.423,-87.225
14.094,-96.942,18.73,-105.79,51.078,-107.78,-31.279,-48.312,74.358,-134.19,96.434,-167.38,9.0507,-40.583,39.374,-87.14
14.094,-96.942,18.73,-105.79,51.078,-107.78,-31.279,-48.312,74.358,-134.19,96.434,-167.38,9.0507,-40.583,39.374,-87.14
13.812,-96.902,18.786,-105.62,50.967,-107.58,-31.307,-48.318,74.176,-134.19,96.246,-167.33,9.0552,-40.642,39.324,-87.054
13.531,-96.862,18.841,-105.45,50.857,-107.38,-31.335,-48.325,73.992,-134.2,96.057,-167.28,9.0593,-40.704,39.275,-86.968
13.251,-96.823,18.896,-105.29,50.746,-107.18,-31.362,-48.333,73.807,-134.21,95.866,-167.23,9.063,-40.766,39.226,-86.881
12.972,-96.785,18.95,-105.12,50.635,-106.98,-31.388,-48.342,73.62,-134.21,95.672,-167.18,9.0663,-40.83,39.177,-86.794
12.972,-96.785,18.95,-105.12,50.635,-106.98,-31.388,-48.342,73.62,-134.21,95.672,-167.18,9.0663,-40.83,39.177,-86.794
12.694,-96.746,19.003,-104.95,50.523,-106.78,-31.414,-48.353,73.432,-134.22,95.477,-167.13,9.0692,-40.895,39.129,-86.706
12.417,-96.708,19.055,-104.78,50.412,-106.58,-31.439,-48.364,73.244,-134.22,95.28,-167.08,9.0717,-40.961,39.08,-86.618
12.417,-96.708,19.055,-104.78,50.412,-106.58,-31.439,-48.364,73.244,-134.22,95.28,-167.08,9.0717,-40.961,39.08,-86.618
12.142,-96.67,19.106,-104.61,50.3,-106.38,-31.464,-48.376,73.053,-134.23,95.081,-167.02,9.0738,-41.029,39.032,-86.529
11.867,-96.633,19.157,-104.44,50.187,-106.18,-31.488,-48.39,72.862,-134.23,94.88,-166.97,9.0755,-41.097,38.984,-86.44
11.593,-96.596,19.207,-104.27,50.075,-105.99,-31.511,-48.404,72.669,-134.24,94.677,-166.91,9.0769,-41.167,38.937,-86.35
11.321,-96.559,19.256,-104.1,49.962,-105.79,-31.534,-48.419,72.476,-134.24,94.473,-166.85,9.0778,-41.239,38.889,-86.26
11.321,-96.559,19.256,-104.1,49.962,-105.79,-31.534,-48.419,72.476,-134.24,94.473,-166.85,9.0778,-41.239,38.889,-86.26
11.05,-96.522,19.304,-103.93,49.849,-105.59,-31.556,-48.436,72.281,-134.25,94.266,-166.8,9.0784,-41.311,38.842,-86.169
10.779,-96.485,19.352,-103.76,49.736,-105.4,-31.578,-48.453,72.084,-134.25,94.058,-166.74,9.0786,-41.384,38.795,-86.077
10.51,-96.449,19.398,-103.59,49.623,-105.2,-31.599,-48.471,71.887,-134.25,93.848,-166.68,9.0785,-41.459,38.748,-85.985
10.242,-96.412,19.444,-103.42,49.509,-105.01,-31.619,-48.49,71.689,-134.26,93.636,-166.61,9.078,-41.534,38.701,-85.892
9.9757,-96.376,19.489,-103.24,49.396,-104.82,-31.639,-48.509,71.489,-134.26,93.422,-166.55,9.0772,-41.611,38.655,-85.799
9.9757,-96.376,19.489,-103.24,49.396,-104.82,-31.639,-48.509,71.489,-134.26,93.422,-166.55,9.0772,-41.611,38.655,-85.799
9.7102,-96.34,19.534,-103.07,49.282,-104.62,-31.658,-48.53,71.288,-134.26,93.207,-166.49,9.076,-41.689,38.608,-85.705
9.4458,-96.303,19.577,-102.89,49.168,-104.43,-31.676,-48.551,71.087,-134.26,92.989,-166.42,9.0744,-41.767,38.562,-85.61
9.4458,-96.303,19.577,-102.89,49.168,-104.43,-31.676,-48.551,71.087,-134.26,92.989,-166.42,9.0744,-41.767,38.562,-85.61
9.1827,-96.267,19.62,-102.72,49.053,-104.24,-31.693,-48.573,70.884,-134.26,92.77,-166.35,9.0726,-41.847,38.517,-85.515
8.9207,-96.23,19.662,-102.54,48.939,-104.05,-31.71,-48.596,70.68,-134.27,92.549,-166.28,9.0704,-41.928,38.471,-85.419
8.66,-96.193,19.703,-102.36,48.824,-103.86,-31.726,-48.62,70.475,-134.27,92.327,-166.21,9.0679,-42.009,38.426,-85.322
8.4005,-96.156,19.743,-102.19,48.709,-103.67,-31.741,-48.644,70.268,-134.27,92.102,-166.14,9.065,-42.092,38.381,-85.225
8.4005,-96.156,19.743,-102.19,48.709,-103.67,-31.741,-48.644,70.268,-134.27,92.102,-166.14,9.065,-42.092,38.381,-85.225
8.1422,-96.119,19.783,-102.01,48.594,-103.48,-31.756,-48.669,70.061,-134.27,91.877,-166.07,9.0619,-42.175,38.336,-85.127
7.8852,-96.082,19.822,-101.83,48.479,-103.29,-31.77,-48.694,69.853,-134.26,91.649,-166,9.0585,-42.259,38.291,-85.029
7.6294,-96.044,19.86,-101.65,48.364,-103.1,-31.783,-48.72,69.644,-134.26,91.42,-165.92,9.0547,-42.344,38.247,-84.929
7.3748,-96.007,19.897,-101.47,48.249,-102.91,-31.795,-48.747,69.433,-134.26,91.189,-165.84,9.0507,-42.43,38.203,-84.829
7.3748,-96.007,19.897,-101.47,48.249,-102.91,-31.795,-48.747,69.433,-134.26,91.189,-165.84,9.0507,-42.43,38.203,-84.829
7.3748,-96.007,19.897,-101.47,48.249,-102.91,-31.795,-48.747,69.433,-134.26,91.189,-165.84,9.0507,-42.43,38.203,-84.829
7.1215,-95.968,19.933,-101.29,48.133,-102.73,-31.807,-48.774,69.222,-134.26,90.956,-165.77,9.0464,-42.516,38.159,-84.729
7.1215,-95.968,19.933,-101.29,48.133,-102.73,-31.807,-48.774,69.222,-134.26,90.956,-165.77,9.0464,-42.516,38.159,-84.729
7.1215,-95.968,19.933,-101.29,48.133,-102.73,-31.807,-48.774,69.222,-134.26,90.956,-165.77,9.0464,-42.516,38.159,-84.729
6.8695,-95.93,19.969,-101.11,48.018,-102.54,-31.818,-48.802,69.01,-134.25,90.722,-165.69,9.0418,-42.604,38.115,-84.627
6.8695,-95.93,19.969,-101.11,48.018,-102.54,-31.818,-48.802,69.01,-134.25,90.722,-165.69,9.0418,-42.604,38.115,-84.627
6.3694,-95.851,20.037,-100.74,47.786,-102.17,-31.837,-48.859,68.582,-134.24,90.248,-165.52,9.0317,-42.78,38.028,-84.422
6.1212,-95.812,20.07,-100.56,47.671,-101.98,-31.845,-48.888,68.367,-134.24,90.009,-165.44,9.0263,-42.87,37.985,-84.319
5.8744,-95.771,20.103,-100.37,47.555,-101.8,-31.853,-48.917,68.151,-134.23,89.769,-165.35,9.0207,-42.96,37.943,-84.214
5.8744,-95.771,20.103,-100.37,47.555,-101.8,-31.853,-48.917,68.151,-134.23,89.769,-165.35,9.0207,-42.96,37.943,-84.214
5.6288,-95.73,20.134,-100.19,47.439,-101.61,-31.86,-48.947,67.934,-134.22,89.527,-165.26,9.0147,-43.051,37.9,-84.109
5.3846,-95.689,20.165,-100,47.323,-101.43,-31.866,-48.977,67.716,-134.21,89.283,-165.18,9.0086,-43.142,37.858,-84.003
5.1417,-95.647,20.195,-99.813,47.206,-101.24,-31.871,-49.008,67.497,-134.2,89.038,-165.08,9.0021,-43.234,37.816,-83.897
4.9001,-95.604,20.224,-99.624,47.09,-101.06,-31.875,-49.039,67.278,-134.19,88.791,-164.99,8.9955,-43.326,37.774,-83.789
4.9001,-95.604,20.224,-99.624,47.09,-101.06,-31.875,-49.039,67.278,-134.19,88.791,-164.99,8.9955,-43.326,37.774,-83.789
4.6598,-95.561,20.252,-99.435,46.974,-100.88,-31.878,-49.07,67.057,-134.18,88.543,-164.9,8.9886,-43.419,37.733,-83.681
4.4209,-95.517,20.28,-99.246,46.858,-100.69,-31.881,-49.101,66.836,-134.17,88.293,-164.8,8.9815,-43.512,37.692,-83.571
4.1834,-95.472,20.306,-99.055,46.741,-100.51,-31.883,-49.133,66.613,-134.16,88.042,-164.7,8.9742,-43.606,37.651,-83.461
3.9471,-95.427,20.332,-98.863,46.625,-100.33,-31.883,-49.164,66.39,-134.14,87.79,-164.6,8.9667,-43.7,37.61,-83.351
3.9471,-95.427,20.332,-98.863,46.625,-100.33,-31.883,-49.164,66.39,-134.14,87.79,-164.6,8.9667,-43.7,37.61,-83.351
3.7123,-95.38,20.357,-98.671,46.508,-100.15,-31.883,-49.196,66.166,-134.13,87.536,-164.5,8.959,-43.795,37.57,-83.239
3.4788,-95.333,20.381,-98.477,46.392,-99.964,-31.882,-49.228,65.942,-134.11,87.28,-164.4,8.951,-43.89,37.529,-83.126
3.2466,-95.285,20.405,-98.283,46.275,-99.783,-31.88,-49.26,65.716,-134.09,87.024,-164.29,8.9429,-43.985,37.489,-83.013
3.0158,-95.236,20.428,-98.087,46.159,-99.602,-31.878,-49.292,65.49,-134.07,86.765,-164.19,8.9346,-44.081,37.45,-82.899
3.0158,-95.236,20.428,-98.087,46.159,-99.602,-31.878,-49.292,65.49,-134.07,86.765,-164.19,8.9346,-44.081,37.45,-82.899
2.7864,-95.187,20.45,-97.891,46.042,-99.421,-31.874,-49.325,65.262,-134.05,86.506,-164.08,8.9261,-44.177,37.41,-82.783
2.5584,-95.136,20.471,-97.694,45.926,-99.241,-31.869,-49.357,65.034,-134.03,86.245,-163.97,8.9175,-44.273,37.371,-82.667
2.5584,-95.136,20.471,-97.694,45.926,-99.241,-31.869,-49.357,65.034,-134.03,86.245,-163.97,8.9175,-44.273,37.371,-82.667
2.3318,-95.084,20.491,-97.495,45.809,-99.06,-31.863,-49.389,64.806,-134.01,85.983,-163.86,8.9087,-44.37,37.332,-82.55
2.1065,-95.031,20.51,-97.296,45.693,-98.88,-31.857,-49.421,64.576,-133.99,85.719,-163.74,8.8997,-44.466,37.294,-82.432
1.8827,-94.977,20.529,-97.096,45.577,-98.701,-31.849,-49.453,64.346,-133.96,85.455,-163.62,8.8905,-44.563,37.256,-82.313
1.6602,-94.923,20.547,-96.895,45.46,-98.521,-31.841,-49.484,64.115,-133.94,85.189,-163.51,8.8813,-44.66,37.217,-82.193
1.6602,-94.923,20.547,-96.895,45.46,-98.521,-31.841,-49.484,64.115,-133.94,85.189,-163.51,8.8813,-44.66,37.217,-82.193
1.4391,-94.867,20.564,-96.692,45.344,-98.342,-31.831,-49.516,63.884,-133.91,84.921,-163.39,8.8718,-44.757,37.18,-82.072
1.2195,-94.809,20.581,-96.489,45.227,-98.163,-31.821,-49.548,63.652,-133.88,84.653,-163.26,8.8623,-44.854,37.142,-81.951
1.0012,-94.751,20.596,-96.284,45.111,-97.984,-31.809,-49.579,63.419,-133.85,84.383,-163.14,8.8526,-44.952,37.105,-81.828
0.78436,-94.692,20.611,-96.079,44.995,-97.805,-31.797,-49.61,63.185,-133.82,84.112,-163.01,8.8427,-45.049,37.068,-81.704
0.78436,-94.692,20.611,-96.079,44.995,-97.805,-31.797,-49.61,63.185,-133.82,84.112,-163.01,8.8427,-45.049,37.068,-81.704
0.56892,-94.631,20.625,-95.872,44.878,-97.627,-31.783,-49.641,62.951,-133.79,83.84,-162.88,8.8328,-45.146,37.031,-81.579
0.35489,-94.569,20.638,-95.664,44.762,-97.448,-31.769,-49.671,62.716,-133.75,83.566,-162.75,8.8227,-45.244,36.995,-81.453
0.14228,-94.505,20.651,-95.455,44.646,-97.27,-31.753,-49.701,62.48,-133.72,83.292,-162.62,8.8126,-45.341,36.959,-81.326
0.14228,-94.505,20.651,-95.455,44.646,-97.27,-31.753,-49.701,62.48,-133.72,83.292,-162.62,8.8126,-45.341,36.959,-81.326
-0.068915,-94.441,20.662,-95.245,44.53,-97.092,-31.736,-49.731,62.244,-133.68,83.016,-162.48,8.8023,-45.438,36.923,-81.198
-0.27869,-94.375,20.673,-95.034,44.414,-96.914,-31.719,-49.76,62.007,-133.64,82.739,-162.35,8.792,-45.535,36.887,-81.069
-0.48704,-94.307,20.683,-94.822,44.298,-96.736,-31.7,-49.789,61.77,-133.6,82.461,-162.21,8.7815,-45.632,36.852,-80.939
-0.48704,-94.307,20.683,-94.822,44.298,-96.736,-31.7,-49.789,61.77,-133.6,82.461,-162.21,8.7815,-45.632,36.852,-80.939
-0.69396,-94.238,20.693,-94.608,44.182,-96.558,-31.68,-49.818,61.532,-133.56,82.182,-162.06,8.771,-45.729,36.817,-80.808
-0.89947,-94.168,20.701,-94.393,44.066,-96.38,-31.66,-49.846,61.294,-133.52,81.902,-161.92,8.7604,-45.826,36.782,-80.676
-1.1035,-94.096,20.709,-94.177,43.951,-96.202,-31.638,-49.873,61.054,-133.48,81.621,-161.77,8.7497,-45.922,36.747,-80.543
-1.3062,-94.023,20.716,-93.96,43.835,-96.025,-31.615,-49.9,60.815,-133.43,81.338,-161.63,8.739,-46.018,36.713,-80.408
-1.3062,-94.023,20.716,-93.96,43.835,-96.025,-31.615,-49.9,60.815,-133.43,81.338,-161.63,8.739,-46.018,36.713,-80.408
-1.5074,-93.948,20.722,-93.742,43.72,-95.847,-31.591,-49.926,60.575,-133.38,81.055,-161.47,8.7282,-46.114,36.679,-80.273
-1.7072,-93.872,20.728,-93.522,43.604,-95.669,-31.566,-49.952,60.334,-133.33,80.771,-161.32,8.7174,-46.21,36.646,-80.136
-1.9055,-93.794,20.732,-93.301,43.489,-95.492,-31.539,-49.977,60.093,-133.28,80.485,-161.17,8.7065,-46.305,36.612,-79.998
-1.9055,-93.794,20.732,-93.301,43.489,-95.492,-31.539,-49.977,60.093,-133.28,80.485,-161.17,8.7065,-46.305,36.612,-79.998
-2.1025,-93.715,20.736,-93.079,43.374,-95.314,-31.512,-50.002,59.851,-133.23,80.199,-161.01,8.6955,-46.4,36.579,-79.859
-2.1025,-93.715,20.736,-93.079,43.374,-95.314,-31.512,-50.002,59.851,-133.23,80.199,-161.01,8.6955,-46.4,36.579,-79.859
-2.298,-93.633,20.74,-92.855,43.258,-95.136,-31.484,-50.025,59.609,-133.17,79.912,-160.85,8.6846,-46.495,36.546,-79.719
-2.492,-93.55,20.742,-92.631,43.143,-94.959,-31.454,-50.048,59.366,-133.12,79.623,-160.68,8.6736,-46.589,36.514,-79.578
-2.6847,-93.466,20.744,-92.404,43.029,-94.781,-31.423,-50.071,59.123,-133.06,79.334,-160.52,8.6626,-46.683,36.482,-79.435
-2.8759,-93.38,20.745,-92.177,42.914,-94.603,-31.391,-50.092,58.879,-133,79.044,-160.35,8.6516,-46.776,36.45,-79.291
-2.8759,-93.38,20.745,-92.177,42.914,-94.603,-31.391,-50.092,58.879,-133,79.044,-160.35,8.6516,-46.776,36.45,-79.291
-3.0656,-93.292,20.745,-91.948,42.799,-94.425,-31.358,-50.113,58.635,-132.94,78.753,-160.18,8.6405,-46.869,36.418,-79.147
-3.254,-93.202,20.745,-91.718,42.685,-94.247,-31.324,-50.133,58.391,-132.87,78.461,-160.01,8.6295,-46.961,36.386,-79
-3.254,-93.202,20.745,-91.718,42.685,-94.247,-31.324,-50.133,58.391,-132.87,78.461,-160.01,8.6295,-46.961,36.386,-79
-3.4409,-93.11,20.743,-91.487,42.57,-94.069,-31.289,-50.151,58.146,-132.81,78.168,-159.83,8.6184,-47.053,36.355,-78.853
-3.6264,-93.017,20.741,-91.254,42.456,-93.891,-31.253,-50.17,57.9,-132.74,77.875,-159.66,8.6074,-47.144,36.325,-78.704
-3.8104,-92.921,20.739,-91.019,42.342,-93.713,-31.215,-50.187,57.655,-132.67,77.58,-159.48,8.5964,-47.235,36.294,-78.555
-3.9931,-92.824,20.735,-90.784,42.228,-93.535,-31.176,-50.203,57.408,-132.6,77.285,-159.29,8.5854,-47.324,36.264,-78.404
-3.9931,-92.824,20.735,-90.784,42.228,-93.535,-31.176,-50.203,57.408,-132.6,77.285,-159.29,8.5854,-47.324,36.264,-78.404
-4.1743,-92.725,20.731,-90.546,42.114,-93.356,-31.136,-50.218,57.162,-132.53,76.989,-159.11,8.5744,-47.414,36.234,-78.251
-4.3541,-92.624,20.726,-90.308,42.001,-93.177,-31.095,-50.232,56.915,-132.45,76.692,-158.92,8.5635,-47.502,36.204,-78.098
-4.5324,-92.521,20.72,-90.068,41.887,-92.999,-31.053,-50.245,56.668,-132.37,76.394,-158.73,8.5526,-47.59,36.175,-77.943
-4.5324,-92.521,20.72,-90.068,41.887,-92.999,-31.053,-50.245,56.668,-132.37,76.394,-158.73,8.5526,-47.59,36.175,-77.943
-4.7094,-92.416,20.714,-89.826,41.774,-92.82,-31.009,-50.257,56.42,-132.29,76.096,-158.54,8.5417,-47.677,36.145,-77.786
-4.8849,-92.309,20.707,-89.583,41.66,-92.64,-30.964,-50.268,56.172,-132.21,75.797,-158.34,8.5309,-47.764,36.117,-77.629
-5.059,-92.2,20.699,-89.339,41.547,-92.461,-30.918,-50.278,55.924,-132.13,75.497,-158.14,8.5202,-47.849,36.088,-77.47
-5.2317,-92.089,20.691,-89.093,41.435,-92.281,-30.871,-50.287,55.675,-132.05,75.196,-157.94,8.5095,-47.934,36.06,-77.31
-5.2317,-92.089,20.691,-89.093,41.435,-92.281,-30.871,-50.287,55.675,-132.05,75.196,-157.94,8.5095,-47.934,36.06,-77.31
-5.403,-91.975,20.682,-88.845,41.322,-92.101,-30.823,-50.294,55.426,-131.96,74.895,-157.74,8.4989,-48.018,36.032,-77.148
-5.5729,-91.86,20.672,-88.596,41.209,-91.921,-30.773,-50.3,55.177,-131.87,74.593,-157.53,8.4883,-48.101,36.004,-76.985
-5.5729,-91.86,20.672,-88.596,41.209,-91.921,-30.773,-50.3,55.177,-131.87,74.593,-157.53,8.4883,-48.101,36.004,-76.985
-5.7414,-91.743,20.661,-88.345,41.097,-91.741,-30.722,-50.305,54.928,-131.78,74.291,-157.33,8.4778,-48.184,35.976,-76.821
-5.9084,-91.623,20.65,-88.093,40.985,-91.56,-30.67,-50.309,54.678,-131.68,73.987,-157.11,8.4674,-48.265,35.949,-76.655
-6.0741,-91.501,20.638,-87.84,40.873,-91.38,-30.617,-50.312,54.428,-131.59,73.684,-156.9,8.4571,-48.345,35.922,-76.488
-6.2384,-91.377,20.625,-87.584,40.761,-91.198,-30.562,-50.313,54.177,-131.49,73.379,-156.68,8.4469,-48.425,35.896,-76.32
-6.4013,-91.251,20.612,-87.327,40.649,-91.017,-30.506,-50.312,53.927,-131.39,73.074,-156.46,8.4368,-48.503,35.869,-76.15
-6.4013,-91.251,20.612,-87.327,40.649,-91.017,-30.506,-50.312,53.927,-131.39,73.074,-156.46,8.4368,-48.503,35.869,-76.15
-6.5628,-91.123,20.598,-87.069,40.538,-90.835,-30.449,-50.311,53.676,-131.28,72.768,-156.24,8.4268,-48.58,35.843,-75.979
-6.723,-90.992,20.583,-86.809,40.426,-90.653,-30.391,-50.308,53.425,-131.18,72.462,-156.02,8.4169,-48.657,35.818,-75.807
-6.723,-90.992,20.583,-86.809,40.426,-90.653,-30.391,-50.308,53.425,-131.18,72.462,-156.02,8.4169,-48.657,35.818,-75.807
-6.8817,-90.859,20.568,-86.547,40.315,-90.471,-30.331,-50.303,53.174,-131.07,72.155,-155.79,8.4071,-48.732,35.792,-75.633
-7.0391,-90.724,20.551,-86.284,40.204,-90.288,-30.27,-50.297,52.922,-130.96,71.848,-155.56,8.3974,-48.806,35.767,-75.457
-7.1951,-90.587,20.535,-86.019,40.093,-90.105,-30.208,-50.29,52.671,-130.85,71.54,-155.32,8.3878,-48.879,35.742,-75.28
-7.1951,-90.587,20.535,-86.019,40.093,-90.105,-30.208,-50.29,52.671,-130.85,71.54,-155.32,8.3878,-48.879,35.742,-75.28
-7.3498,-90.447,20.517,-85.752,39.983,-89.921,-30.145,-50.281,52.419,-130.74,71.232,-155.09,8.3784,-48.951,35.717,-75.102
-7.503,-90.305,20.499,-85.484,39.872,-89.738,-30.08,-50.271,52.167,-130.62,70.923,-154.85,8.3691,-49.022,35.693,-74.922
-7.655,-90.16,20.48,-85.213,39.762,-89.553,-30.014,-50.259,51.914,-130.5,70.614,-154.61,8.36,-49.091,35.669,-74.741
-7.8056,-90.013,20.461,-84.942,39.652,-89.369,-29.947,-50.245,51.662,-130.38,70.304,-154.36,8.351,-49.159,35.645,-74.558
-7.8056,-90.013,20.461,-84.942,39.652,-89.369,-29.947,-50.245,51.662,-130.38,70.304,-154.36,8.351,-49.159,35.645,-74.558
-7.9548,-89.864,20.441,-84.668,39.542,-89.184,-29.878,-50.23,51.41,-130.26,69.994,-154.12,8.3422,-49.226,35.621,-74.374
-8.1027,-89.712,20.42,-84.393,39.433,-88.998,-29.808,-50.213,51.157,-130.13,69.683,-153.86,8.3335,-49.292,35.598,-74.188
-8.2493,-89.558,20.399,-84.116,39.323,-88.812,-29.737,-50.195,50.904,-130,69.372,-153.61,8.3249,-49.357,35.575,-74.001
-8.3945,-89.401,20.377,-83.838,39.214,-88.626,-29.665,-50.174,50.651,-129.87,69.061,-153.36,8.3166,-49.42,35.552,-73.812
-8.3945,-89.401,20.377,-83.838,39.214,-88.626,-29.665,-50.174,50.651,-129.87,69.061,-153.36,8.3166,-49.42,35.552,-73.812
-8.5384,-89.242,20.354,-83.557,39.105,-88.439,-29.591,-50.152,50.398,-129.74,68.749,-153.1,8.3084,-49.481,35.53,-73.622
-8.5384,-89.242,20.354,-83.557,39.105,-88.439,-29.591,-50.152,50.398,-129.74,68.749,-153.1,8.3084,-49.481,35.53,-73.622
-8.681,-89.08,20.331,-83.275,38.996,-88.252,-29.516,-50.129,50.145,-129.6,68.437,-152.83,8.3004,-49.542,35.507,-73.43
-8.681,-89.08,20.331,-83.275,38.996,-88.252,-29.516,-50.129,50.145,-129.6,68.437,-152.83,8.3004,-49.542,35.507,-73.43
-8.681,-89.08,20.331,-83.275,38.996,-88.252,-29.516,-50.129,50.145,-129.6,68.437,-152.83,8.3004,-49.542,35.507,-73.43
-8.9623,-88.749,20.283,-82.705,38.779,-87.876,-29.361,-50.076,49.638,-129.32,67.811,-152.3,8.2849,-49.659,35.464,-73.042
-9.1009,-88.58,20.257,-82.418,38.67,-87.687,-29.282,-50.047,49.385,-129.18,67.498,-152.03,8.2774,-49.715,35.442,-72.846
-9.2383,-88.408,20.232,-82.129,38.562,-87.498,-29.202,-50.017,49.131,-129.03,67.185,-151.76,8.2701,-49.77,35.421,-72.648
-9.3744,-88.234,20.205,-81.837,38.455,-87.308,-29.12,-49.984,48.878,-128.89,66.871,-151.48,8.2631,-49.823,35.4,-72.448
-9.5093,-88.057,20.178,-81.545,38.347,-87.118,-29.037,-49.949,48.624,-128.74,66.557,-151.2,8.2562,-49.875,35.379,-72.247
-9.5093,-88.057,20.178,-81.545,38.347,-87.118,-29.037,-49.949,48.624,-128.74,66.557,-151.2,8.2562,-49.875,35.379,-72.247
-9.6428,-87.877,20.151,-81.25,38.239,-86.927,-28.953,-49.913,48.37,-128.58,66.243,-150.92,8.2495,-49.925,35.359,-72.044
-9.7751,-87.695,20.123,-80.953,38.132,-86.735,-28.867,-49.875,48.116,-128.43,65.928,-150.63,8.2431,-49.974,35.338,-71.84
-9.9061,-87.51,20.094,-80.655,38.025,-86.543,-28.78,-49.834,47.863,-128.27,65.613,-150.34,8.2368,-50.021,35.318,-71.634
-10.036,-87.323,20.064,-80.354,37.918,-86.351,-28.692,-49.792,47.609,-128.11,65.298,-150.05,8.2308,-50.066,35.299,-71.427
-10.036,-87.323,20.064,-80.354,37.918,-86.351,-28.692,-49.792,47.609,-128.11,65.298,-150.05,8.2308,-50.066,35.299,-71.427
-10.164,-87.132,20.034,-80.052,37.811,-86.158,-28.603,-49.748,47.355,-127.94,64.983,-149.76,8.225,-50.11,35.279,-71.218
-10.292,-86.94,20.004,-79.748,37.705,-85.964,-28.512,-49.702,47.101,-127.78,64.668,-149.46,8.2195,-50.153,35.26,-71.008
-10.292,-86.94,20.004,-79.748,37.705,-85.964,-28.512,-49.702,47.101,-127.78,64.668,-149.46,8.2195,-50.153,35.26,-71.008
-10.418,-86.744,19.973,-79.442,37.599,-85.77,-28.419,-49.654,46.847,-127.61,64.352,-149.16,8.2141,-50.193,35.241,-70.795
-10.543,-86.546,19.941,-79.135,37.493,-85.575,-28.326,-49.603,46.593,-127.44,64.036,-148.86,8.209,-50.232,35.222,-70.582
-10.666,-86.345,19.908,-78.825,37.387,-85.379,-28.231,-49.551,46.339,-127.26,63.721,-148.55,8.2042,-50.27,35.204,-70.366
-10.666,-86.345,19.908,-78.825,37.387,-85.379,-28.231,-49.551,46.339,-127.26,63.721,-148.55,8.2042,-50.27,35.204,-70.366
-10.789,-86.142,19.876,-78.513,37.281,-85.183,-28.134,-49.497,46.086,-127.08,63.405,-148.24,8.1996,-50.305,35.186,-70.149
-10.91,-85.935,19.842,-78.2,37.176,-84.986,-28.037,-49.44,45.832,-126.9,63.088,-147.93,8.1952,-50.339,35.168,-69.93
-11.03,-85.726,19.808,-77.884,37.07,-84.789,-27.938,-49.382,45.578,-126.72,62.772,-147.61,8.1911,-50.371,35.15,-69.71
-11.149,-85.514,19.773,-77.567,36.965,-84.591,-27.837,-49.321,45.324,-126.54,62.456,-147.3,8.1873,-50.402,35.132,-69.488
-11.149,-85.514,19.773,-77.567,36.965,-84.591,-27.837,-49.321,45.324,-126.54,62.456,-147.3,8.1873,-50.402,35.132,-69.488
-11.267,-85.3,19.738,-77.248,36.86,-84.392,-27.736,-49.258,45.071,-126.35,62.139,-146.97,8.1837,-50.43,35.115,-69.265
-11.383,-85.083,19.703,-76.927,36.756,-84.192,-27.633,-49.193,44.817,-126.16,61.823,-146.65,8.1804,-50.457,35.098,-69.039
-11.499,-84.863,19.666,-76.604,36.651,-83.992,-27.528,-49.126,44.563,-125.97,61.507,-146.32,8.1773,-50.482,35.081,-68.812
-11.613,-84.64,19.63,-76.279,36.547,-83.791,-27.423,-49.056,44.31,-125.77,61.19,-145.99,8.1745,-50.505,35.064,-68.584
-11.613,-84.64,19.63,-76.279,36.547,-83.791,-27.423,-49.056,44.31,-125.77,61.19,-145.99,8.1745,-50.505,35.064,-68.584
-11.726,-84.414,19.592,-75.952,36.443,-83.59,-27.316,-48.985,44.056,-125.57,60.873,-145.66,8.172,-50.527,35.048,-68.354
-11.838,-84.186,19.554,-75.623,36.339,-83.388,-27.207,-48.911,43.803,-125.37,60.557,-145.32,8.1698,-50.546,35.031,-68.122
-11.949,-83.955,19.516,-75.292,36.235,-83.185,-27.098,-48.835,43.55,-125.17,60.24,-144.98,8.1679,-50.563,35.015,-67.888
-11.949,-83.955,19.516,-75.292,36.235,-83.185,-27.098,-48.835,43.55,-125.17,60.24,-144.98,8.1679,-50.563,35.015,-67.888
-12.059,-83.721,19.477,-74.959,36.131,-82.981,-26.987,-48.756,43.297,-124.96,59.924,-144.64,8.1662,-50.579,34.999,-67.653
-12.167,-83.484,19.438,-74.624,36.028,-82.777,-26.874,-48.675,43.043,-124.75,59.607,-144.3,8.1648,-50.593,34.984,-67.416
-12.275,-83.244,19.398,-74.287,35.925,-82.572,-26.761,-48.592,42.79,-124.54,59.291,-143.95,8.1638,-50.605,34.968,-67.178
-12.275,-83.244,19.398,-74.287,35.925,-82.572,-26.761,-48.592,42.79,-124.54,59.291,-143.95,8.1638,-50.605,34.968,-67.178
-12.382,-83.002,19.357,-73.948,35.822,-82.366,-26.646,-48.507,42.538,-124.32,58.974,-143.6,8.163,-50.614,34.953,-66.937
-12.487,-82.757,19.316,-73.607,35.719,-82.159,-26.529,-48.419,42.285,-124.11,58.658,-143.24,8.1625,-50.622,34.938,-66.695
-12.591,-82.509,19.275,-73.264,35.616,-81.952,-26.412,-48.329,42.032,-123.89,58.342,-142.88,8.1623,-50.628,34.923,-66.452
-12.695,-82.258,19.232,-72.92,35.514,-81.744,-26.293,-48.237,41.78,-123.66,58.025,-142.52,8.1625,-50.632,34.909,-66.207
-12.695,-82.258,19.232,-72.92,35.514,-81.744,-26.293,-48.237,41.78,-123.66,58.025,-142.52,8.1625,-50.632,34.909,-66.207
-12.797,-82.004,19.19,-72.573,35.412,-81.535,-26.173,-48.142,41.527,-123.44,57.709,-142.16,8.1629,-50.634,34.894,-65.96
-12.898,-81.747,19.147,-72.224,35.309,-81.325,-26.051,-48.045,41.275,-123.21,57.393,-141.79,8.1636,-50.633,34.88,-65.711
-12.999,-81.488,19.103,-71.873,35.208,-81.115,-25.928,-47.945,41.023,-122.98,57.078,-141.42,8.1647,-50.631,34.866,-65.461
-13.098,-81.226,19.059,-71.52,35.106,-80.903,-25.804,-47.844,40.771,-122.74,56.762,-141.05,8.1661,-50.627,34.852,-65.209
-13.098,-81.226,19.059,-71.52,35.106,-80.903,-25.804,-47.844,40.771,-122.74,56.762,-141.05,8.1661,-50.627,34.852,-65.209
-13.196,-80.961,19.015,-71.166,35.004,-80.691,-25.678,-47.739,40.519,-122.5,56.446,-140.68,8.1677,-50.621,34.838,-64.955
-13.293,-80.693,18.97,-70.809,34.903,-80.478,-25.551,-47.632,40.267,-122.26,56.131,-140.3,8.1698,-50.612,34.825,-64.699
-13.293,-80.693,18.97,-70.809,34.903,-80.478,-25.551,-47.632,40.267,-122.26,56.131,-140.3,8.1698,-50.612,34.825,-64.699
-13.39,-80.422,18.925,-70.45,34.801,-80.265,-25.423,-47.523,40.016,-122.02,55.816,-139.92,8.1721,-50.602,34.811,-64.442
-13.39,-80.422,18.925,-70.45,34.801,-80.265,-25.423,-47.523,40.016,-122.02,55.816,-139.92,8.1721,-50.602,34.811,-64.442
-13.485,-80.148,18.879,-70.089,34.7,-80.05,-25.294,-47.411,39.765,-121.78,55.501,-139.53,8.1748,-50.589,34.798,-64.184
-13.579,-79.872,18.832,-69.726,34.599,-79.835,-25.163,-47.297,39.513,-121.53,55.186,-139.15,8.1777,-50.574,34.785,-63.923
-13.673,-79.592,18.785,-69.361,34.499,-79.619,-25.031,-47.18,39.263,-121.28,54.871,-138.76,8.1811,-50.557,34.772,-63.661
-13.765,-79.31,18.738,-68.994,34.398,-79.402,-24.897,-47.061,39.012,-121.02,54.557,-138.36,8.1847,-50.538,34.759,-63.397
-13.765,-79.31,18.738,-68.994,34.398,-79.402,-24.897,-47.061,39.012,-121.02,54.557,-138.36,8.1847,-50.538,34.759,-63.397
-13.857,-79.025,18.69,-68.626,34.297,-79.184,-24.763,-46.94,38.761,-120.76,54.243,-137.97,8.1887,-50.517,34.746,-63.131
-13.947,-78.737,18.642,-68.255,34.197,-78.965,-24.627,-46.815,38.511,-120.5,53.929,-137.57,8.193,-50.493,34.734,-62.864
-14.037,-78.446,18.593,-67.882,34.097,-78.746,-24.489,-46.689,38.261,-120.24,53.615,-137.16,8.1977,-50.468,34.722,-62.595
-14.037,-78.446,18.593,-67.882,34.097,-78.746,-24.489,-46.689,38.261,-120.24,53.615,-137.16,8.1977,-50.468,34.722,-62.595
-14.126,-78.153,18.544,-67.507,33.997,-78.525,-24.351,-46.559,38.011,-119.98,53.302,-136.76,8.2027,-50.44,34.71,-62.325
-14.214,-77.856,18.495,-67.13,33.897,-78.304,-24.211,-46.428,37.761,-119.71,52.989,-136.35,8.2081,-50.41,34.697,-62.052
-14.301,-77.557,18.445,-66.751,33.797,-78.082,-24.07,-46.293,37.511,-119.44,52.676,-135.94,8.2138,-50.378,34.686,-61.778
-14.387,-77.255,18.394,-66.37,33.698,-77.859,-23.928,-46.157,37.262,-119.16,52.363,-135.53,8.2198,-50.344,34.674,-61.503
-14.387,-77.255,18.394,-66.37,33.698,-77.859,-23.928,-46.157,37.262,-119.16,52.363,-135.53,8.2198,-50.344,34.674,-61.503
-14.473,-76.95,18.343,-65.987,33.598,-77.635,-23.784,-46.017,37.013,-118.89,52.051,-135.11,8.2262,-50.307,34.662,-61.225
-14.557,-76.642,18.292,-65.601,33.499,-77.41,-23.639,-45.875,36.764,-118.61,51.739,-134.69,8.233,-50.268,34.651,-60.946
-14.641,-76.332,18.24,-65.214,33.4,-77.185,-23.493,-45.731,36.515,-118.33,51.428,-134.27,8.2401,-50.227,34.639,-60.665
-14.641,-76.332,18.24,-65.214,33.4,-77.185,-23.493,-45.731,36.515,-118.33,51.428,-134.27,8.2401,-50.227,34.639,-60.665
-14.724,-76.018,18.188,-64.825,33.3,-76.958,-23.346,-45.584,36.267,-118.04,51.117,-133.84,8.2475,-50.184,34.628,-60.383
-14.806,-75.702,18.136,-64.434,33.202,-76.731,-23.197,-45.434,36.019,-117.75,50.806,-133.42,8.2553,-50.138,34.617,-60.099
-14.887,-75.383,18.083,-64.041,33.103,-76.503,-23.047,-45.282,35.771,-117.46,50.495,-132.98,8.2635,-50.091,34.606,-59.813
-14.887,-75.383,18.083,-64.041,33.103,-76.503,-23.047,-45.282,35.771,-117.46,50.495,-132.98,8.2635,-50.091,34.606,-59.813
-14.968,-75.061,18.029,-63.646,33.004,-76.274,-22.896,-45.127,35.523,-117.17,50.185,-132.55,8.272,-50.04,34.595,-59.526
-15.048,-74.736,17.976,-63.249,32.905,-76.044,-22.744,-44.969,35.275,-116.87,49.875,-132.11,8.2809,-49.988,34.584,-59.237
-15.127,-74.409,17.921,-62.85,32.807,-75.813,-22.591,-44.809,35.028,-116.58,49.566,-131.67,8.2901,-49.933,34.573,-58.946
-15.127,-74.409,17.921,-62.85,32.807,-75.813,-22.591,-44.809,35.028,-116.58,49.566,-131.67,8.2901,-49.933,34.573,-58.946
-15.205,-74.079,17.867,-62.449,32.708,-75.581,-22.436,-44.647,34.781,-116.27,49.257,-131.23,8.2997,-49.876,34.562,-58.654
-15.283,-73.746,17.812,-62.046,32.61,-75.348,-22.28,-44.481,34.535,-115.97,48.949,-130.79,8.3097,-49.817,34.552,-58.359
-15.359,-73.41,17.756,-61.64,32.512,-75.115,-22.123,-44.313,34.288,-115.66,48.64,-130.34,8.32,-49.756,34.541,-58.064
-15.436,-73.071,17.701,-61.233,32.414,-74.88,-21.965,-44.143,34.042,-115.35,48.333,-129.89,8.3307,-49.692,34.531,-57.766
-15.436,-73.071,17.701,-61.233,32.414,-74.88,-21.965,-44.143,34.042,-115.35,48.333,-129.89,8.3307,-49.692,34.531,-57.766
-15.511,-72.73,17.644,-60.824,32.316,-74.645,-21.805,-43.97,33.796,-115.04,48.026,-129.43,8.3418,-49.626,34.52,-57.467
-15.586,-72.386,17.588,-60.413,32.218,-74.408,-21.644,-43.794,33.55,-114.73,47.719,-128.98,8.3532,-49.557,34.51,-57.167
-15.66,-72.039,17.531,-60,32.12,-74.171,-21.483,-43.616,33.305,-114.41,47.412,-128.52,8.365,-49.487,34.5,-56.865
-15.66,-72.039,17.531,-60,32.12,-74.171,-21.483,-43.616,33.305,-114.41,47.412,-128.52,8.365,-49.487,34.5,-56.865
-15.733,-71.69,17.474,-59.585,32.022,-73.933,-21.32,-43.435,33.06,-114.09,47.107,-128.06,8.3772,-49.414,34.489,-56.561
-15.806,-71.338,17.416,-59.168,31.924,-73.694,-21.155,-43.252,32.815,-113.76,46.801,-127.59,8.3897,-49.338,34.479,-56.255
