29.709,-23.953,71.775,-3.8141,10.583,18.311,46.728,17.279,0.34625,-35.921,50.19,-33.975,-24.812,3.1844,-28.483,-29.857
29.709,-23.953,71.775,-3.8141,10.583,18.311,46.728,17.279,0.34625,-35.921,50.19,-33.975,-24.812,3.1844,-28.483,-29.857
29.709,-23.953,71.775,-3.8141,10.583,18.311,46.728,17.279,0.34625,-35.921,50.19,-33.975,-24.812,3.1844,-28.483,-29.857
29.671,-23.863,71.969,-3.7128,10.498,18.677,46.746,17.666,0.34847,-35.841,50.372,-33.919,-24.899,3.3766,-28.446,-29.656
29.633,-23.772,72.161,-3.6095,10.412,19.042,46.761,18.054,0.35081,-35.759,50.554,-33.859,-24.986,3.5701,-28.41,-29.454
29.594,-23.679,72.352,-3.5042,10.327,19.409,46.775,18.443,0.35328,-35.675,50.734,-33.797,-25.072,3.7651,-28.374,-29.251
29.594,-23.679,72.352,-3.5042,10.327,19.409,46.775,18.443,0.35328,-35.675,50.734,-33.797,-25.072,3.7651,-28.374,-29.251
29.554,-23.585,72.541,-3.3969,10.241,19.776,46.788,18.833,0.35589,-35.589,50.914,-33.732,-25.158,3.9614,-28.339,-29.046
29.554,-23.585,72.541,-3.3969,10.241,19.776,46.788,18.833,0.35589,-35.589,50.914,-33.732,-25.158,3.9614,-28.339,-29.046
29.554,-23.585,72.541,-3.3969,10.241,19.776,46.788,18.833,0.35589,-35.589,50.914,-33.732,-25.158,3.9614,-28.339,-29.046
29.514,-23.489,72.73,-3.2875,10.154,20.143,46.799,19.223,0.35862,-35.501,51.093,-33.665,-25.243,4.1592,-28.304,-28.84
29.514,-23.489,72.73,-3.2875,10.154,20.143,46.799,19.223,0.35862,-35.501,51.093,-33.665,-25.243,4.1592,-28.304,-28.84
29.472,-23.392,72.917,-3.1762,10.068,20.511,46.808,19.614,0.36149,-35.41,51.271,-33.595,-25.328,4.3583,-28.269,-28.633
29.431,-23.294,73.103,-3.0628,9.9803,20.879,46.815,20.005,0.3645,-35.317,51.448,-33.522,-25.412,4.559,-28.235,-28.424
29.431,-23.294,73.103,-3.0628,9.9803,20.879,46.815,20.005,0.3645,-35.317,51.448,-33.522,-25.412,4.559,-28.235,-28.424
29.388,-23.193,73.287,-2.9474,9.8927,21.248,46.821,20.398,0.36764,-35.222,51.624,-33.447,-25.496,4.761,-28.202,-28.214
29.388,-23.193,73.287,-2.9474,9.8927,21.248,46.821,20.398,0.36764,-35.222,51.624,-33.447,-25.496,4.761,-28.202,-28.214
29.388,-23.193,73.287,-2.9474,9.8927,21.248,46.821,20.398,0.36764,-35.222,51.624,-33.447,-25.496,4.761,-28.202,-28.214
29.345,-23.091,73.47,-2.8299,9.8048,21.618,46.825,20.791,0.37092,-35.125,51.8,-33.369,-25.58,4.9646,-28.168,-28.002
29.345,-23.091,73.47,-2.8299,9.8048,21.618,46.825,20.791,0.37092,-35.125,51.8,-33.369,-25.58,4.9646,-28.168,-28.002
29.301,-22.988,73.652,-2.7104,9.7165,21.988,46.828,21.185,0.37434,-35.025,51.974,-33.288,-25.663,5.1696,-28.136,-27.79
29.301,-22.988,73.652,-2.7104,9.7165,21.988,46.828,21.185,0.37434,-35.025,51.974,-33.288,-25.663,5.1696,-28.136,-27.79
29.301,-22.988,73.652,-2.7104,9.7165,21.988,46.828,21.185,0.37434,-35.025,51.974,-33.288,-25.663,5.1696,-28.136,-27.79
29.301,-22.988,73.652,-2.7104,9.7165,21.988,46.828,21.185,0.37434,-35.025,51.974,-33.288,-25.663,5.1696,-28.136,-27.79
29.212,-22.776,74.011,-2.4651,9.5388,22.729,46.828,21.975,0.38162,-34.82,52.32,-33.119,-25.827,5.5841,-28.071,-27.36
29.212,-22.776,74.011,-2.4651,9.5388,22.729,46.828,21.975,0.38162,-34.82,52.32,-33.119,-25.827,5.5841,-28.071,-27.36
29.166,-22.668,74.189,-2.3393,9.4494,23.101,46.826,22.372,0.38547,-34.713,52.492,-33.03,-25.909,5.7936,-28.04,-27.143
29.166,-22.668,74.189,-2.3393,9.4494,23.101,46.826,22.372,0.38547,-34.713,52.492,-33.03,-25.909,5.7936,-28.04,-27.143
29.12,-22.558,74.365,-2.2115,9.3596,23.473,46.822,22.769,0.38947,-34.605,52.663,-32.939,-25.99,6.0047,-28.009,-26.924
29.12,-22.558,74.365,-2.2115,9.3596,23.473,46.822,22.769,0.38947,-34.605,52.663,-32.939,-25.99,6.0047,-28.009,-26.924
29.073,-22.446,74.54,-2.0816,9.2695,23.846,46.817,23.167,0.39362,-34.494,52.832,-32.845,-26.07,6.2173,-27.978,-26.705
29.073,-22.446,74.54,-2.0816,9.2695,23.846,46.817,23.167,0.39362,-34.494,52.832,-32.845,-26.07,6.2173,-27.978,-26.705
29.025,-22.332,74.714,-1.9496,9.1791,24.219,46.809,23.565,0.39792,-34.381,53.001,-32.748,-26.15,6.4314,-27.948,-26.483
29.025,-22.332,74.714,-1.9496,9.1791,24.219,46.809,23.565,0.39792,-34.381,53.001,-32.748,-26.15,6.4314,-27.948,-26.483
28.976,-22.217,74.886,-1.8155,9.0883,24.593,46.801,23.965,0.40237,-34.265,53.169,-32.648,-26.229,6.6471,-27.918,-26.261
28.976,-22.217,74.886,-1.8155,9.0883,24.593,46.801,23.965,0.40237,-34.265,53.169,-32.648,-26.229,6.6471,-27.918,-26.261
28.927,-22.1,75.057,-1.6792,8.9971,24.968,46.791,24.365,0.40697,-34.148,53.336,-32.545,-26.308,6.8644,-27.889,-26.037
28.878,-21.981,75.226,-1.5409,8.9057,25.343,46.779,24.766,0.41172,-34.027,53.502,-32.44,-26.386,7.0832,-27.86,-25.811
28.878,-21.981,75.226,-1.5409,8.9057,25.343,46.779,24.766,0.41172,-34.027,53.502,-32.44,-26.386,7.0832,-27.86,-25.811
28.878,-21.981,75.226,-1.5409,8.9057,25.343,46.779,24.766,0.41172,-34.027,53.502,-32.44,-26.386,7.0832,-27.86,-25.811
28.827,-21.86,75.394,-1.4004,8.8139,25.718,46.765,25.168,0.41662,-33.905,53.667,-32.332,-26.464,7.3036,-27.831,-25.584
28.827,-21.86,75.394,-1.4004,8.8139,25.718,46.765,25.168,0.41662,-33.905,53.667,-32.332,-26.464,7.3036,-27.831,-25.584
28.827,-21.86,75.394,-1.4004,8.8139,25.718,46.765,25.168,0.41662,-33.905,53.667,-32.332,-26.464,7.3036,-27.831,-25.584
28.776,-21.738,75.56,-1.2579,8.7218,26.095,46.75,25.57,0.42168,-33.78,53.83,-32.221,-26.541,7.5257,-27.803,-25.355
28.725,-21.614,75.725,-1.1132,8.6293,26.471,46.734,25.974,0.42689,-33.653,53.993,-32.108,-26.618,7.7493,-27.776,-25.125
28.672,-21.488,75.889,-0.96634,8.5366,26.849,46.716,26.378,0.43225,-33.523,54.155,-31.991,-26.694,7.9746,-27.749,-24.894
28.672,-21.488,75.889,-0.96634,8.5366,26.849,46.716,26.378,0.43225,-33.523,54.155,-31.991,-26.694,7.9746,-27.749,-24.894
28.619,-21.36,76.051,-0.81739,8.4435,27.227,46.696,26.783,0.43777,-33.391,54.316,-31.872,-26.769,8.2015,-27.722,-24.661
28.619,-21.36,76.051,-0.81739,8.4435,27.227,46.696,26.783,0.43777,-33.391,54.316,-31.872,-26.769,8.2015,-27.722,-24.661
28.619,-21.36,76.051,-0.81739,8.4435,27.227,46.696,26.783,0.43777,-33.391,54.316,-31.872,-26.769,8.2015,-27.722,-24.661
28.566,-21.23,76.211,-0.66629,8.3501,27.605,46.675,27.189,0.44345,-33.257,54.476,-31.75,-26.844,8.43,-27.695,-24.426
28.566,-21.23,76.211,-0.66629,8.3501,27.605,46.675,27.189,0.44345,-33.257,54.476,-31.75,-26.844,8.43,-27.695,-24.426
28.566,-21.23,76.211,-0.66629,8.3501,27.605,46.675,27.189,0.44345,-33.257,54.476,-31.75,-26.844,8.43,-27.695,-24.426
28.512,-21.098,76.371,-0.51306,8.2564,27.985,46.652,27.595,0.44928,-33.12,54.634,-31.625,-26.918,8.6602,-27.67,-24.19
28.457,-20.964,76.528,-0.35769,8.1624,28.365,46.628,28.003,0.45526,-32.981,54.792,-31.497,-26.991,8.8921,-27.644,-23.952
28.457,-20.964,76.528,-0.35769,8.1624,28.365,46.628,28.003,0.45526,-32.981,54.792,-31.497,-26.991,8.8921,-27.644,-23.952
28.401,-20.829,76.684,-0.20018,8.0681,28.745,46.602,28.411,0.4614,-32.839,54.948,-31.367,-27.064,9.1256,-27.619,-23.713
28.401,-20.829,76.684,-0.20018,8.0681,28.745,46.602,28.411,0.4614,-32.839,54.948,-31.367,-27.064,9.1256,-27.619,-23.713
28.401,-20.829,76.684,-0.20018,8.0681,28.745,46.602,28.411,0.4614,-32.839,54.948,-31.367,-27.064,9.1256,-27.619,-23.713
28.345,-20.691,76.839,-0.040516,7.9736,29.126,46.575,28.82,0.4677,-32.695,55.104,-31.233,-27.136,9.3608,-27.594,-23.472
28.289,-20.551,76.992,0.12129,7.8787,29.508,46.546,29.23,0.47415,-32.548,55.258,-31.097,-27.208,9.5977,-27.57,-23.23
28.289,-20.551,76.992,0.12129,7.8787,29.508,46.546,29.23,0.47415,-32.548,55.258,-31.097,-27.208,9.5977,-27.57,-23.23
28.231,-20.41,77.144,0.28524,7.7835,29.89,46.516,29.641,0.48075,-32.399,55.411,-30.958,-27.279,9.8363,-27.546,-22.986
28.231,-20.41,77.144,0.28524,7.7835,29.89,46.516,29.641,0.48075,-32.399,55.411,-30.958,-27.279,9.8363,-27.546,-22.986
28.173,-20.266,77.294,0.45134,7.6881,30.273,46.484,30.053,0.48751,-32.248,55.563,-30.816,-27.349,10.077,-27.523,-22.741
28.173,-20.266,77.294,0.45134,7.6881,30.273,46.484,30.053,0.48751,-32.248,55.563,-30.816,-27.349,10.077,-27.523,-22.741
28.115,-20.121,77.442,0.6196,7.5924,30.657,46.45,30.465,0.49443,-32.094,55.714,-30.671,-27.419,10.319,-27.5,-22.494
28.115,-20.121,77.442,0.6196,7.5924,30.657,46.45,30.465,0.49443,-32.094,55.714,-30.671,-27.419,10.319,-27.5,-22.494
28.055,-19.973,77.589,0.79,7.4964,31.041,46.415,30.878,0.50149,-31.937,55.864,-30.523,-27.488,10.562,-27.478,-22.245
28.055,-19.973,77.589,0.79,7.4964,31.041,46.415,30.878,0.50149,-31.937,55.864,-30.523,-27.488,10.562,-27.478,-22.245
27.996,-19.824,77.735,0.96255,7.4002,31.426,46.379,31.292,0.50871,-31.778,56.013,-30.373,-27.556,10.808,-27.456,-21.995
27.996,-19.824,77.735,0.96255,7.4002,31.426,46.379,31.292,0.50871,-31.778,56.013,-30.373,-27.556,10.808,-27.456,-21.995
27.935,-19.672,77.878,1.1373,7.3036,31.812,46.341,31.707,0.51608,-31.617,56.16,-30.219,-27.624,11.055,-27.434,-21.743
27.935,-19.672,77.878,1.1373,7.3036,31.812,46.341,31.707,0.51608,-31.617,56.16,-30.219,-27.624,11.055,-27.434,-21.743
27.874,-19.518,78.021,1.3141,7.2069,32.198,46.302,32.123,0.52359,-31.453,56.306,-30.063,-27.69,11.304,-27.413,-21.489
27.874,-19.518,78.021,1.3141,7.2069,32.198,46.302,32.123,0.52359,-31.453,56.306,-30.063,-27.69,11.304,-27.413,-21.489
27.812,-19.362,78.161,1.4931,7.1098,32.585,46.261,32.54,0.53126,-31.287,56.452,-29.904,-27.757,11.555,-27.392,-21.234
27.812,-19.362,78.161,1.4931,7.1098,32.585,46.261,32.54,0.53126,-31.287,56.452,-29.904,-27.757,11.555,-27.392,-21.234
27.75,-19.204,78.3,1.6743,7.0126,32.972,46.219,32.957,0.53908,-31.118,56.595,-29.742,-27.822,11.807,-27.372,-20.978
27.75,-19.204,78.3,1.6743,7.0126,32.972,46.219,32.957,0.53908,-31.118,56.595,-29.742,-27.822,11.807,-27.372,-20.978
27.687,-19.044,78.438,1.8576,6.915,33.36,46.175,33.376,0.54704,-30.946,56.738,-29.577,-27.887,12.061,-27.352,-20.719
27.687,-19.044,78.438,1.8576,6.915,33.36,46.175,33.376,0.54704,-30.946,56.738,-29.577,-27.887,12.061,-27.352,-20.719
27.687,-19.044,78.438,1.8576,6.915,33.36,46.175,33.376,0.54704,-30.946,56.738,-29.577,-27.887,12.061,-27.352,-20.719
27.624,-18.882,78.574,2.043,6.8173,33.749,46.13,33.795,0.55515,-30.772,56.88,-29.409,-27.951,12.317,-27.332,-20.459
27.624,-18.882,78.574,2.043,6.8173,33.749,46.13,33.795,0.55515,-30.772,56.88,-29.409,-27.951,12.317,-27.332,-20.459
27.624,-18.882,78.574,2.043,6.8173,33.749,46.13,33.795,0.55515,-30.772,56.88,-29.409,-27.951,12.317,-27.332,-20.459
27.624,-18.882,78.574,2.043,6.8173,33.749,46.13,33.795,0.55515,-30.772,56.88,-29.409,-27.951,12.317,-27.332,-20.459
27.495,-18.551,78.84,2.4203,6.621,34.529,46.035,34.635,0.57179,-30.416,57.159,-29.064,-28.077,12.834,-27.294,-19.934
27.495,-18.551,78.84,2.4203,6.621,34.529,46.035,34.635,0.57179,-30.416,57.159,-29.064,-28.077,12.834,-27.294,-19.934
27.495,-18.551,78.84,2.4203,6.621,34.529,46.035,34.635,0.57179,-30.416,57.159,-29.064,-28.077,12.834,-27.294,-19.934
27.364,-18.212,79.101,2.8062,6.4239,35.311,45.934,35.48,0.589,-30.051,57.434,-28.708,-28.2,13.359,-27.258,-19.402
27.364,-18.212,79.101,2.8062,6.4239,35.311,45.934,35.48,0.589,-30.051,57.434,-28.708,-28.2,13.359,-27.258,-19.402
27.297,-18.039,79.228,3.0023,6.325,35.704,45.882,35.903,0.59781,-29.864,57.569,-28.526,-28.26,13.624,-27.241,-19.134
27.297,-18.039,79.228,3.0023,6.325,35.704,45.882,35.903,0.59781,-29.864,57.569,-28.526,-28.26,13.624,-27.241,-19.134
27.23,-17.864,79.354,3.2006,6.2259,36.096,45.828,36.327,0.60675,-29.675,57.703,-28.341,-28.32,13.89,-27.224,-18.864
27.162,-17.686,79.478,3.401,6.1266,36.49,45.772,36.752,0.61583,-29.483,57.836,-28.153,-28.379,14.159,-27.207,-18.592
27.162,-17.686,79.478,3.401,6.1266,36.49,45.772,36.752,0.61583,-29.483,57.836,-28.153,-28.379,14.159,-27.207,-18.592
27.094,-17.507,79.601,3.6035,6.027,36.884,45.716,37.178,0.62503,-29.288,57.967,-27.962,-28.437,14.429,-27.191,-18.318
27.094,-17.507,79.601,3.6035,6.027,36.884,45.716,37.178,0.62503,-29.288,57.967,-27.962,-28.437,14.429,-27.191,-18.318
27.094,-17.507,79.601,3.6035,6.027,36.884,45.716,37.178,0.62503,-29.288,57.967,-27.962,-28.437,14.429,-27.191,-18.318
27.025,-17.325,79.722,3.8081,5.9273,37.279,45.658,37.605,0.63437,-29.091,58.097,-27.768,-28.494,14.701,-27.175,-18.043
27.025,-17.325,79.722,3.8081,5.9273,37.279,45.658,37.605,0.63437,-29.091,58.097,-27.768,-28.494,14.701,-27.175,-18.043
27.025,-17.325,79.722,3.8081,5.9273,37.279,45.658,37.605,0.63437,-29.091,58.097,-27.768,-28.494,14.701,-27.175,-18.043
26.956,-17.141,79.841,4.0148,5.8274,37.674,45.598,38.032,0.64383,-28.892,58.226,-27.571,-28.551,14.975,-27.16,-17.766
26.886,-16.955,79.958,4.2237,5.7272,38.071,45.537,38.461,0.65341,-28.69,58.354,-27.371,-28.607,15.251,-27.145,-17.488
26.815,-16.766,80.074,4.4346,5.6269,38.468,45.475,38.89,0.66311,-28.485,58.48,-27.168,-28.662,15.528,-27.13,-17.207
26.815,-16.766,80.074,4.4346,5.6269,38.468,45.475,38.89,0.66311,-28.485,58.48,-27.168,-28.662,15.528,-27.13,-17.207
26.744,-16.575,80.188,4.6477,5.5264,38.865,45.411,39.32,0.67293,-28.278,58.605,-26.963,-28.716,15.808,-27.116,-16.925
26.744,-16.575,80.188,4.6477,5.5264,38.865,45.411,39.32,0.67293,-28.278,58.605,-26.963,-28.716,15.808,-27.116,-16.925
26.672,-16.382,80.3,4.8628,5.4257,39.263,45.346,39.751,0.68286,-28.068,58.728,-26.754,-28.769,16.089,-27.102,-16.641
26.672,-16.382,80.3,4.8628,5.4257,39.263,45.346,39.751,0.68286,-28.068,58.728,-26.754,-28.769,16.089,-27.102,-16.641
26.672,-16.382,80.3,4.8628,5.4257,39.263,45.346,39.751,0.68286,-28.068,58.728,-26.754,-28.769,16.089,-27.102,-16.641
26.6,-16.187,80.41,5.0801,5.3249,39.662,45.279,40.182,0.6929,-27.856,58.851,-26.543,-28.822,16.372,-27.089,-16.356
26.6,-16.187,80.41,5.0801,5.3249,39.662,45.279,40.182,0.6929,-27.856,58.851,-26.543,-28.822,16.372,-27.089,-16.356
26.527,-15.989,80.519,5.2994,5.2239,40.062,45.212,40.615,0.70305,-27.641,58.971,-26.329,-28.874,16.657,-27.076,-16.069
26.453,-15.789,80.626,5.5207,5.1227,40.462,45.142,41.048,0.71331,-27.423,59.091,-26.112,-28.925,16.944,-27.064,-15.78
26.453,-15.789,80.626,5.5207,5.1227,40.462,45.142,41.048,0.71331,-27.423,59.091,-26.112,-28.925,16.944,-27.064,-15.78
26.453,-15.789,80.626,5.5207,5.1227,40.462,45.142,41.048,0.71331,-27.423,59.091,-26.112,-28.925,16.944,-27.064,-15.78
26.379,-15.587,80.731,5.7442,5.0213,40.863,45.072,41.482,0.72366,-27.203,59.209,-25.892,-28.975,17.232,-27.051,-15.489
26.379,-15.587,80.731,5.7442,5.0213,40.863,45.072,41.482,0.72366,-27.203,59.209,-25.892,-28.975,17.232,-27.051,-15.489
26.304,-15.382,80.834,5.9697,4.9198,41.265,45,41.917,0.73412,-26.98,59.325,-25.669,-29.024,17.523,-27.04,-15.196
26.304,-15.382,80.834,5.9697,4.9198,41.265,45,41.917,0.73412,-26.98,59.325,-25.669,-29.024,17.523,-27.04,-15.196
26.229,-15.175,80.936,6.1972,4.8182,41.667,44.927,42.353,0.74466,-26.755,59.441,-25.443,-29.073,17.815,-27.028,-14.902
26.229,-15.175,80.936,6.1972,4.8182,41.667,44.927,42.353,0.74466,-26.755,59.441,-25.443,-29.073,17.815,-27.028,-14.902
26.229,-15.175,80.936,6.1972,4.8182,41.667,44.927,42.353,0.74466,-26.755,59.441,-25.443,-29.073,17.815,-27.028,-14.902
26.153,-14.966,81.035,6.4268,4.7163,42.07,44.852,42.789,0.7553,-26.527,59.554,-25.214,-29.12,18.109,-27.018,-14.606
26.153,-14.966,81.035,6.4268,4.7163,42.07,44.852,42.789,0.7553,-26.527,59.554,-25.214,-29.12,18.109,-27.018,-14.606
26.153,-14.966,81.035,6.4268,4.7163,42.07,44.852,42.789,0.7553,-26.527,59.554,-25.214,-29.12,18.109,-27.018,-14.606
26,-14.54,81.229,6.8921,4.5123,42.878,44.699,43.665,0.77683,-26.063,59.778,-24.749,-29.213,18.703,-26.997,-14.009
26,-14.54,81.229,6.8921,4.5123,42.878,44.699,43.665,0.77683,-26.063,59.778,-24.749,-29.213,18.703,-26.997,-14.009
25.922,-14.324,81.323,7.1278,4.41,43.283,44.62,44.104,0.78772,-25.828,59.887,-24.511,-29.258,19.002,-26.987,-13.708
25.922,-14.324,81.323,7.1278,4.41,43.283,44.62,44.104,0.78772,-25.828,59.887,-24.511,-29.258,19.002,-26.987,-13.708
25.922,-14.324,81.323,7.1278,4.41,43.283,44.62,44.104,0.78772,-25.828,59.887,-24.511,-29.258,19.002,-26.987,-13.708
25.844,-14.105,81.416,7.3655,4.3077,43.688,44.54,44.543,0.79868,-25.589,59.995,-24.271,-29.302,19.304,-26.978,-13.404
25.844,-14.105,81.416,7.3655,4.3077,43.688,44.54,44.543,0.79868,-25.589,59.995,-24.271,-29.302,19.304,-26.978,-13.404
25.844,-14.105,81.416,7.3655,4.3077,43.688,44.54,44.543,0.79868,-25.589,59.995,-24.271,-29.302,19.304,-26.978,-13.404
25.686,-13.66,81.595,7.8468,4.1025,44.502,44.377,45.425,0.8208,-25.105,60.207,-23.783,-29.388,19.912,-26.961,-12.793
25.606,-13.435,81.681,8.0905,3.9998,44.909,44.293,45.867,0.83196,-24.859,60.31,-23.534,-29.43,20.219,-26.953,-12.485
25.606,-13.435,81.681,8.0905,3.9998,44.909,44.293,45.867,0.83196,-24.859,60.31,-23.534,-29.43,20.219,-26.953,-12.485
25.526,-13.206,81.766,8.3361,3.8969,45.317,44.208,46.31,0.84317,-24.61,60.412,-23.282,-29.471,20.528,-26.945,-12.175
25.526,-13.206,81.766,8.3361,3.8969,45.317,44.208,46.31,0.84317,-24.61,60.412,-23.282,-29.471,20.528,-26.945,-12.175
25.526,-13.206,81.766,8.3361,3.8969,45.317,44.208,46.31,0.84317,-24.61,60.412,-23.282,-29.471,20.528,-26.945,-12.175
25.445,-12.976,81.849,8.5837,3.794,45.726,44.121,46.754,0.85444,-24.359,60.513,-23.028,-29.511,20.839,-26.938,-11.863
25.445,-12.976,81.849,8.5837,3.794,45.726,44.121,46.754,0.85444,-24.359,60.513,-23.028,-29.511,20.839,-26.938,-11.863
25.445,-12.976,81.849,8.5837,3.794,45.726,44.121,46.754,0.85444,-24.359,60.513,-23.028,-29.511,20.839,-26.938,-11.863
25.363,-12.743,81.93,8.8333,3.6909,46.136,44.034,47.198,0.86575,-24.106,60.612,-22.771,-29.55,21.151,-26.931,-11.549
25.363,-12.743,81.93,8.8333,3.6909,46.136,44.034,47.198,0.86575,-24.106,60.612,-22.771,-29.55,21.151,-26.931,-11.549
25.281,-12.508,82.009,9.0847,3.5877,46.546,43.945,47.643,0.8771,-23.849,60.709,-22.511,-29.588,21.465,-26.925,-11.233
25.198,-12.27,82.086,9.3381,3.4844,46.957,43.855,48.089,0.8885,-23.59,60.805,-22.248,-29.625,21.782,-26.919,-10.916
25.198,-12.27,82.086,9.3381,3.4844,46.957,43.855,48.089,0.8885,-23.59,60.805,-22.248,-29.625,21.782,-26.919,-10.916
25.115,-12.03,82.161,9.5935,3.381,47.368,43.763,48.535,0.89992,-23.329,60.9,-21.983,-29.661,22.1,-26.913,-10.597
25.115,-12.03,82.161,9.5935,3.381,47.368,43.763,48.535,0.89992,-23.329,60.9,-21.983,-29.661,22.1,-26.913,-10.597
25.031,-11.787,82.235,9.8507,3.2776,47.781,43.67,48.983,0.91137,-23.065,60.993,-21.714,-29.697,22.419,-26.908,-10.276
25.031,-11.787,82.235,9.8507,3.2776,47.781,43.67,48.983,0.91137,-23.065,60.993,-21.714,-29.697,22.419,-26.908,-10.276
24.947,-11.542,82.306,10.11,3.174,48.193,43.576,49.431,0.92285,-22.799,61.084,-21.443,-29.731,22.741,-26.903,-9.9537
24.862,-11.295,82.375,10.371,3.0704,48.607,43.481,49.879,0.93434,-22.53,61.174,-21.169,-29.765,23.064,-26.899,-9.6294
24.862,-11.295,82.375,10.371,3.0704,48.607,43.481,49.879,0.93434,-22.53,61.174,-21.169,-29.765,23.064,-26.899,-9.6294
24.777,-11.045,82.443,10.634,2.9667,49.021,43.385,50.329,0.94584,-22.258,61.262,-20.893,-29.797,23.39,-26.895,-9.3032
24.777,-11.045,82.443,10.634,2.9667,49.021,43.385,50.329,0.94584,-22.258,61.262,-20.893,-29.797,23.39,-26.895,-9.3032
24.777,-11.045,82.443,10.634,2.9667,49.021,43.385,50.329,0.94584,-22.258,61.262,-20.893,-29.797,23.39,-26.895,-9.3032
24.69,-10.793,82.508,10.898,2.8629,49.436,43.287,50.779,0.95735,-21.984,61.348,-20.613,-29.829,23.717,-26.892,-8.9753
24.69,-10.793,82.508,10.898,2.8629,49.436,43.287,50.779,0.95735,-21.984,61.348,-20.613,-29.829,23.717,-26.892,-8.9753
24.69,-10.793,82.508,10.898,2.8629,49.436,43.287,50.779,0.95735,-21.984,61.348,-20.613,-29.829,23.717,-26.892,-8.9753
24.604,-10.538,82.571,11.165,2.759,49.851,43.188,51.23,0.96886,-21.707,61.433,-20.331,-29.86,24.046,-26.888,-8.6456
24.604,-10.538,82.571,11.165,2.759,49.851,43.188,51.23,0.96886,-21.707,61.433,-20.331,-29.86,24.046,-26.888,-8.6456
24.604,-10.538,82.571,11.165,2.759,49.851,43.188,51.23,0.96886,-21.707,61.433,-20.331,-29.86,24.046,-26.888,-8.6456
24.429,-10.022,82.692,11.704,2.5511,50.683,42.987,52.133,0.99186,-21.146,61.598,-19.758,-29.919,24.709,-26.883,-7.9808
24.429,-10.022,82.692,11.704,2.5511,50.683,42.987,52.133,0.99186,-21.146,61.598,-19.758,-29.919,24.709,-26.883,-7.9808
24.341,-9.7604,82.749,11.976,2.447,51.1,42.884,52.586,1.0033,-20.862,61.678,-19.468,-29.947,25.043,-26.881,-7.6458
24.341,-9.7604,82.749,11.976,2.447,51.1,42.884,52.586,1.0033,-20.862,61.678,-19.468,-29.947,25.043,-26.881,-7.6458
24.252,-9.4962,82.805,12.249,2.3429,51.518,42.78,53.04,1.0148,-20.575,61.756,-19.175,-29.974,25.379,-26.88,-7.309
24.252,-9.4962,82.805,12.249,2.3429,51.518,42.78,53.04,1.0148,-20.575,61.756,-19.175,-29.974,25.379,-26.88,-7.309
24.162,-9.2296,82.858,12.525,2.2387,51.936,42.675,53.494,1.0262,-20.286,61.833,-18.879,-30,25.717,-26.879,-6.9704
24.162,-9.2296,82.858,12.525,2.2387,51.936,42.675,53.494,1.0262,-20.286,61.833,-18.879,-30,25.717,-26.879,-6.9704
24.072,-8.9606,82.909,12.802,2.1345,52.355,42.569,53.949,1.0376,-19.994,61.908,-18.58,-30.025,26.057,-26.878,-6.63
24.072,-8.9606,82.909,12.802,2.1345,52.355,42.569,53.949,1.0376,-19.994,61.908,-18.58,-30.025,26.057,-26.878,-6.63
23.982,-8.6892,82.958,13.081,2.0302,52.775,42.462,54.404,1.0489,-19.7,61.982,-18.279,-30.05,26.398,-26.877,-6.2879
23.982,-8.6892,82.958,13.081,2.0302,52.775,42.462,54.404,1.0489,-19.7,61.982,-18.279,-30.05,26.398,-26.877,-6.2879
23.891,-8.4153,83.005,13.362,1.9259,53.195,42.353,54.861,1.0602,-19.403,62.053,-17.975,-30.073,26.741,-26.877,-5.944
23.891,-8.4153,83.005,13.362,1.9259,53.195,42.353,54.861,1.0602,-19.403,62.053,-17.975,-30.073,26.741,-26.877,-5.944
23.799,-8.1391,83.05,13.645,1.8216,53.616,42.244,55.317,1.0715,-19.104,62.123,-17.668,-30.095,27.086,-26.878,-5.5984
23.799,-8.1391,83.05,13.645,1.8216,53.616,42.244,55.317,1.0715,-19.104,62.123,-17.668,-30.095,27.086,-26.878,-5.5984
23.707,-7.8605,83.093,13.929,1.7172,54.037,42.133,55.775,1.0827,-18.803,62.191,-17.359,-30.117,27.433,-26.879,-5.2509
23.707,-7.8605,83.093,13.929,1.7172,54.037,42.133,55.775,1.0827,-18.803,62.191,-17.359,-30.117,27.433,-26.879,-5.2509
23.614,-7.5794,83.134,14.215,1.6128,54.459,42.021,56.233,1.0938,-18.499,62.258,-17.047,-30.137,27.781,-26.88,-4.9018
23.614,-7.5794,83.134,14.215,1.6128,54.459,42.021,56.233,1.0938,-18.499,62.258,-17.047,-30.137,27.781,-26.88,-4.9018
23.521,-7.296,83.173,14.502,1.5084,54.881,41.908,56.691,1.1048,-18.192,62.323,-16.733,-30.157,28.132,-26.882,-4.5508
23.521,-7.296,83.173,14.502,1.5084,54.881,41.908,56.691,1.1048,-18.192,62.323,-16.733,-30.157,28.132,-26.882,-4.5508
23.427,-7.0102,83.21,14.792,1.4039,55.304,41.793,57.15,1.1158,-17.883,62.386,-16.416,-30.175,28.484,-26.884,-4.1981
23.427,-7.0102,83.21,14.792,1.4039,55.304,41.793,57.15,1.1158,-17.883,62.386,-16.416,-30.175,28.484,-26.884,-4.1981
23.332,-6.722,83.244,15.083,1.2995,55.727,41.678,57.61,1.1267,-17.572,62.447,-16.096,-30.193,28.837,-26.886,-3.8437
23.332,-6.722,83.244,15.083,1.2995,55.727,41.678,57.61,1.1267,-17.572,62.447,-16.096,-30.193,28.837,-26.886,-3.8437
23.332,-6.722,83.244,15.083,1.2995,55.727,41.678,57.61,1.1267,-17.572,62.447,-16.096,-30.193,28.837,-26.886,-3.8437
23.237,-6.4313,83.277,15.375,1.195,56.151,41.561,58.07,1.1375,-17.258,62.507,-15.774,-30.209,29.193,-26.889,-3.4875
23.141,-6.1383,83.307,15.669,1.0905,56.576,41.443,58.531,1.1481,-16.942,62.565,-15.449,-30.225,29.55,-26.892,-3.1296
23.045,-5.843,83.335,15.965,0.986,57.001,41.325,58.993,1.1587,-16.623,62.621,-15.121,-30.24,29.908,-26.896,-2.7699
23.045,-5.843,83.335,15.965,0.986,57.001,41.325,58.993,1.1587,-16.623,62.621,-15.121,-30.24,29.908,-26.896,-2.7699
22.949,-5.5452,83.361,16.262,0.88149,57.426,41.205,59.454,1.1692,-16.302,62.675,-14.791,-30.253,30.269,-26.9,-2.4085
22.949,-5.5452,83.361,16.262,0.88149,57.426,41.205,59.454,1.1692,-16.302,62.675,-14.791,-30.253,30.269,-26.9,-2.4085
22.949,-5.5452,83.361,16.262,0.88149,57.426,41.205,59.454,1.1692,-16.302,62.675,-14.791,-30.253,30.269,-26.9,-2.4085
22.851,-5.245,83.385,16.561,0.77698,57.852,41.084,59.917,1.1795,-15.979,62.728,-14.459,-30.266,30.631,-26.905,-2.0454
22.851,-5.245,83.385,16.561,0.77698,57.852,41.084,59.917,1.1795,-15.979,62.728,-14.459,-30.266,30.631,-26.905,-2.0454
22.753,-4.9425,83.406,16.861,0.67248,58.279,40.961,60.38,1.1897,-15.653,62.778,-14.124,-30.278,30.995,-26.91,-1.6805
22.753,-4.9425,83.406,16.861,0.67248,58.279,40.961,60.38,1.1897,-15.653,62.778,-14.124,-30.278,30.995,-26.91,-1.6805
22.655,-4.6377,83.426,17.163,0.56798,58.706,40.838,60.843,1.1998,-15.325,62.827,-13.786,-30.288,31.36,-26.915,-1.3139
22.655,-4.6377,83.426,17.163,0.56798,58.706,40.838,60.843,1.1998,-15.325,62.827,-13.786,-30.288,31.36,-26.915,-1.3139
22.556,-4.3304,83.443,17.466,0.46349,59.133,40.714,61.307,1.2098,-14.994,62.874,-13.446,-30.298,31.727,-26.921,-0.94561
22.456,-4.0208,83.458,17.771,0.35901,59.561,40.588,61.772,1.2195,-14.661,62.92,-13.103,-30.307,32.096,-26.927,-0.5756
22.456,-4.0208,83.458,17.771,0.35901,59.561,40.588,61.772,1.2195,-14.661,62.92,-13.103,-30.307,32.096,-26.927,-0.5756
22.356,-3.7089,83.471,18.078,0.25455,59.99,40.462,62.237,1.2292,-14.326,62.963,-12.758,-30.315,32.467,-26.933,-0.20388
22.356,-3.7089,83.471,18.078,0.25455,59.99,40.462,62.237,1.2292,-14.326,62.963,-12.758,-30.315,32.467,-26.933,-0.20388
22.356,-3.7089,83.471,18.078,0.25455,59.99,40.462,62.237,1.2292,-14.326,62.963,-12.758,-30.315,32.467,-26.933,-0.20388
22.256,-3.3946,83.482,18.385,0.15012,60.419,40.334,62.702,1.2386,-13.989,63.005,-12.411,-30.322,32.839,-26.94,0.16954
22.256,-3.3946,83.482,18.385,0.15012,60.419,40.334,62.702,1.2386,-13.989,63.005,-12.411,-30.322,32.839,-26.94,0.16954
22.154,-3.078,83.49,18.694,0.0457,60.848,40.205,63.168,1.2479,-13.649,63.044,-12.061,-30.328,33.212,-26.947,0.54466
22.154,-3.078,83.49,18.694,0.0457,60.848,40.205,63.168,1.2479,-13.649,63.044,-12.061,-30.328,33.212,-26.947,0.54466
22.053,-2.759,83.497,19.005,-0.058688,61.278,40.076,63.634,1.257,-13.307,63.082,-11.709,-30.332,33.587,-26.955,0.92147
21.95,-2.4378,83.501,19.317,-0.16304,61.708,39.945,64.101,1.2659,-12.963,63.118,-11.354,-30.336,33.964,-26.963,1.3
21.95,-2.4378,83.501,19.317,-0.16304,61.708,39.945,64.101,1.2659,-12.963,63.118,-11.354,-30.336,33.964,-26.963,1.3
21.847,-2.1142,83.502,19.63,-0.26737,62.139,39.813,64.568,1.2747,-12.616,63.152,-10.997,-30.339,34.343,-26.972,1.6801
21.847,-2.1142,83.502,19.63,-0.26737,62.139,39.813,64.568,1.2747,-12.616,63.152,-10.997,-30.339,34.343,-26.972,1.6801
21.847,-2.1142,83.502,19.63,-0.26737,62.139,39.813,64.568,1.2747,-12.616,63.152,-10.997,-30.339,34.343,-26.972,1.6801
21.847,-2.1142,83.502,19.63,-0.26737,62.139,39.813,64.568,1.2747,-12.616,63.152,-10.997,-30.339,34.343,-26.972,1.6801
21.744,-1.7883,83.502,19.945,-0.37165,62.57,39.68,65.035,1.2832,-12.268,63.184,-10.637,-30.341,34.723,-26.981,2.062
21.744,-1.7883,83.502,19.945,-0.37165,62.57,39.68,65.035,1.2832,-12.268,63.184,-10.637,-30.341,34.723,-26.981,2.062
21.64,-1.4601,83.499,20.261,-0.4759,63.001,39.546,65.503,1.2915,-11.917,63.215,-10.275,-30.342,35.104,-26.99,2.4455
21.64,-1.4601,83.499,20.261,-0.4759,63.001,39.546,65.503,1.2915,-11.917,63.215,-10.275,-30.342,35.104,-26.99,2.4455
21.535,-1.1296,83.494,20.578,-0.5801,63.433,39.411,65.971,1.2996,-11.563,63.243,-9.9111,-30.342,35.487,-27,2.8307
21.43,-0.7968,83.487,20.897,-0.68426,63.865,39.275,66.44,1.3075,-11.208,63.27,-9.5446,-30.341,35.872,-27.01,3.2175
21.43,-0.7968,83.487,20.897,-0.68426,63.865,39.275,66.44,1.3075,-11.208,63.27,-9.5446,-30.341,35.872,-27.01,3.2175
21.324,-0.46174,83.477,21.217,-0.78836,64.298,39.138,66.909,1.3151,-10.85,63.294,-9.1757,-30.338,36.258,-27.021,3.6059
21.324,-0.46174,83.477,21.217,-0.78836,64.298,39.138,66.909,1.3151,-10.85,63.294,-9.1757,-30.338,36.258,-27.021,3.6059
21.217,-0.12442,83.466,21.538,-0.89241,64.731,39,67.378,1.3225,-10.491,63.317,-8.8046,-30.335,36.646,-27.032,3.996
21.217,-0.12442,83.466,21.538,-0.89241,64.731,39,67.378,1.3225,-10.491,63.317,-8.8046,-30.335,36.646,-27.032,3.996
21.11,0.21517,83.451,21.86,-0.9964,65.164,38.861,67.847,1.3296,-10.129,63.338,-8.4312,-30.331,37.035,-27.043,4.3878
21.11,0.21517,83.451,21.86,-0.9964,65.164,38.861,67.847,1.3296,-10.129,63.338,-8.4312,-30.331,37.035,-27.043,4.3878
21.003,0.55701,83.435,22.184,-1.1003,65.598,38.721,68.317,1.3365,-9.7645,63.356,-8.0555,-30.326,37.425,-27.055,4.7811
20.895,0.90109,83.416,22.508,-1.2042,66.032,38.58,68.788,1.3431,-9.3983,63.373,-7.6777,-30.32,37.817,-27.067,5.1761
20.895,0.90109,83.416,22.508,-1.2042,66.032,38.58,68.788,1.3431,-9.3983,63.373,-7.6777,-30.32,37.817,-27.067,5.1761
20.786,1.2474,83.395,22.834,-1.308,66.466,38.438,69.258,1.3495,-9.0299,63.388,-7.2976,-30.313,38.211,-27.08,5.5727
20.786,1.2474,83.395,22.834,-1.308,66.466,38.438,69.258,1.3495,-9.0299,63.388,-7.2976,-30.313,38.211,-27.08,5.5727
20.786,1.2474,83.395,22.834,-1.308,66.466,38.438,69.258,1.3495,-9.0299,63.388,-7.2976,-30.313,38.211,-27.08,5.5727
20.677,1.5959,83.372,23.161,-1.4117,66.901,38.295,69.729,1.3556,-8.6595,63.401,-6.9152,-30.305,38.606,-27.093,5.9709
20.677,1.5959,83.372,23.161,-1.4117,66.901,38.295,69.729,1.3556,-8.6595,63.401,-6.9152,-30.305,38.606,-27.093,5.9709
20.677,1.5959,83.372,23.161,-1.4117,66.901,38.295,69.729,1.3556,-8.6595,63.401,-6.9152,-30.305,38.606,-27.093,5.9709
20.567,1.9467,83.346,23.49,-1.5154,67.336,38.151,70.2,1.3613,-8.2869,63.412,-6.5308,-30.296,39.002,-27.106,6.3707
20.567,1.9467,83.346,23.49,-1.5154,67.336,38.151,70.2,1.3613,-8.2869,63.412,-6.5308,-30.296,39.002,-27.106,6.3707
20.346,2.6548,83.288,24.149,-1.7225,68.207,37.86,71.142,1.372,-7.5357,63.428,-5.7553,-30.274,39.799,-27.134,7.175
20.346,2.6548,83.288,24.149,-1.7225,68.207,37.86,71.142,1.372,-7.5357,63.428,-5.7553,-30.274,39.799,-27.134,7.175
20.234,3.0121,83.255,24.481,-1.8259,68.642,37.713,71.614,1.3769,-7.157,63.433,-5.3644,-30.262,40.2,-27.149,7.5795
20.234,3.0121,83.255,24.481,-1.8259,68.642,37.713,71.614,1.3769,-7.157,63.433,-5.3644,-30.262,40.2,-27.149,7.5795
20.234,3.0121,83.255,24.481,-1.8259,68.642,37.713,71.614,1.3769,-7.157,63.433,-5.3644,-30.262,40.2,-27.149,7.5795
20.122,3.3716,83.22,24.813,-1.9292,69.078,37.565,72.086,1.3814,-6.7762,63.435,-4.9714,-30.249,40.602,-27.164,7.9856
20.122,3.3716,83.22,24.813,-1.9292,69.078,37.565,72.086,1.3814,-6.7762,63.435,-4.9714,-30.249,40.602,-27.164,7.9856
20.122,3.3716,83.22,24.813,-1.9292,69.078,37.565,72.086,1.3814,-6.7762,63.435,-4.9714,-30.249,40.602,-27.164,7.9856
20.009,3.7332,83.183,25.147,-2.0324,69.515,37.416,72.558,1.3856,-6.3935,63.436,-4.5763,-30.235,41.005,-27.179,8.3932
20.009,3.7332,83.183,25.147,-2.0324,69.515,37.416,72.558,1.3856,-6.3935,63.436,-4.5763,-30.235,41.005,-27.179,8.3932
19.896,4.097,83.143,25.481,-2.1356,69.951,37.267,73.03,1.3895,-6.0088,63.435,-4.1791,-30.22,41.409,-27.195,8.8023
19.896,4.097,83.143,25.481,-2.1356,69.951,37.267,73.03,1.3895,-6.0088,63.435,-4.1791,-30.22,41.409,-27.195,8.8023
19.896,4.097,83.143,25.481,-2.1356,69.951,37.267,73.03,1.3895,-6.0088,63.435,-4.1791,-30.22,41.409,-27.195,8.8023
19.667,4.831,83.057,26.153,-2.3416,70.825,36.964,73.975,1.3962,-5.2335,63.427,-3.3786,-30.187,42.223,-27.228,9.6253
19.667,4.831,83.057,26.153,-2.3416,70.825,36.964,73.975,1.3962,-5.2335,63.427,-3.3786,-30.187,42.223,-27.228,9.6253
19.667,4.831,83.057,26.153,-2.3416,70.825,36.964,73.975,1.3962,-5.2335,63.427,-3.3786,-30.187,42.223,-27.228,9.6253
19.552,5.2012,83.01,26.49,-2.4444,71.262,36.812,74.448,1.399,-4.8429,63.42,-2.9753,-30.169,42.631,-27.246,10.039
19.552,5.2012,83.01,26.49,-2.4444,71.262,36.812,74.448,1.399,-4.8429,63.42,-2.9753,-30.169,42.631,-27.246,10.039
19.437,5.5734,82.961,26.829,-2.5472,71.7,36.658,74.92,1.4015,-4.4505,63.41,-2.5701,-30.149,43.041,-27.263,10.454
19.437,5.5734,82.961,26.829,-2.5472,71.7,36.658,74.92,1.4015,-4.4505,63.41,-2.5701,-30.149,43.041,-27.263,10.454
19.437,5.5734,82.961,26.829,-2.5472,71.7,36.658,74.92,1.4015,-4.4505,63.41,-2.5701,-30.149,43.041,-27.263,10.454
19.203,6.3242,82.855,27.508,-2.7523,72.575,36.349,75.866,1.4052,-3.6598,63.386,-1.7537,-30.108,43.864,-27.3,11.289
19.203,6.3242,82.855,27.508,-2.7523,72.575,36.349,75.866,1.4052,-3.6598,63.386,-1.7537,-30.108,43.864,-27.3,11.289
19.086,6.7027,82.799,27.849,-2.8547,73.013,36.193,76.339,1.4065,-3.2617,63.37,-1.3426,-30.086,44.278,-27.318,11.709
19.086,6.7027,82.799,27.849,-2.8547,73.013,36.193,76.339,1.4065,-3.2617,63.37,-1.3426,-30.086,44.278,-27.318,11.709
19.086,6.7027,82.799,27.849,-2.8547,73.013,36.193,76.339,1.4065,-3.2617,63.37,-1.3426,-30.086,44.278,-27.318,11.709
18.968,7.0833,82.74,28.19,-2.957,73.451,36.036,76.812,1.4074,-2.8618,63.352,-0.92957,-30.063,44.693,-27.338,12.13
18.968,7.0833,82.74,28.19,-2.957,73.451,36.036,76.812,1.4074,-2.8618,63.352,-0.92957,-30.063,44.693,-27.338,12.13
18.73,7.8504,82.615,28.876,-3.1612,74.328,35.719,77.758,1.4079,-2.0564,63.311,-0.097932,-30.014,45.526,-27.377,12.977
18.73,7.8504,82.615,28.876,-3.1612,74.328,35.719,77.758,1.4079,-2.0564,63.311,-0.097932,-30.014,45.526,-27.377,12.977
18.61,8.237,82.549,29.22,-3.2632,74.766,35.56,78.231,1.4075,-1.651,63.287,0.32066,-29.988,45.944,-27.398,13.402
18.61,8.237,82.549,29.22,-3.2632,74.766,35.56,78.231,1.4075,-1.651,63.287,0.32066,-29.988,45.944,-27.398,13.402
18.61,8.237,82.549,29.22,-3.2632,74.766,35.56,78.231,1.4075,-1.651,63.287,0.32066,-29.988,45.944,-27.398,13.402
18.49,8.6256,82.48,29.565,-3.3649,75.205,35.399,78.704,1.4067,-1.2438,63.261,0.74108,-29.961,46.363,-27.419,13.829
18.49,8.6256,82.48,29.565,-3.3649,75.205,35.399,78.704,1.4067,-1.2438,63.261,0.74108,-29.961,46.363,-27.419,13.829
18.369,9.0162,82.41,29.91,-3.4666,75.643,35.238,79.178,1.4055,-0.83494,63.233,1.1633,-29.933,46.784,-27.44,14.257
18.369,9.0162,82.41,29.91,-3.4666,75.643,35.238,79.178,1.4055,-0.83494,63.233,1.1633,-29.933,46.784,-27.44,14.257
18.247,9.4088,82.336,30.257,-3.5681,76.082,35.076,79.651,1.4038,-0.42432,63.203,1.5873,-29.904,47.205,-27.462,14.687
18.247,9.4088,82.336,30.257,-3.5681,76.082,35.076,79.651,1.4038,-0.42432,63.203,1.5873,-29.904,47.205,-27.462,14.687
18.125,9.8033,82.26,30.603,-3.6695,76.521,34.913,80.124,1.4017,-0.011975,63.171,2.0131,-29.874,47.628,-27.484,15.118
18.125,9.8033,82.26,30.603,-3.6695,76.521,34.913,80.124,1.4017,-0.011975,63.171,2.0131,-29.874,47.628,-27.484,15.118
18.002,10.2,82.182,30.951,-3.7707,76.96,34.749,80.597,1.399,0.40205,63.136,2.4405,-29.843,48.052,-27.507,15.551
18.002,10.2,82.182,30.951,-3.7707,76.96,34.749,80.597,1.399,0.40205,63.136,2.4405,-29.843,48.052,-27.507,15.551
17.879,10.598,82.102,31.299,-3.8718,77.399,34.584,81.069,1.396,0.81776,63.1,2.8698,-29.811,48.477,-27.53,15.985
17.879,10.598,82.102,31.299,-3.8718,77.399,34.584,81.069,1.396,0.81776,63.1,2.8698,-29.811,48.477,-27.53,15.985
17.755,10.998,82.019,31.648,-3.9727,77.837,34.419,81.542,1.3924,1.2351,63.061,3.3007,-29.778,48.903,-27.553,16.42
17.755,10.998,82.019,31.648,-3.9727,77.837,34.419,81.542,1.3924,1.2351,63.061,3.3007,-29.778,48.903,-27.553,16.42
17.63,11.401,81.933,31.997,-4.0735,78.276,34.253,82.015,1.3883,1.6541,63.02,3.7332,-29.744,49.33,-27.577,16.857
17.505,11.805,81.845,32.347,-4.1741,78.715,34.086,82.487,1.3838,2.0747,62.977,4.1674,-29.709,49.758,-27.601,17.294
17.505,11.805,81.845,32.347,-4.1741,78.715,34.086,82.487,1.3838,2.0747,62.977,4.1674,-29.709,49.758,-27.601,17.294
17.38,12.211,81.755,32.697,-4.2746,79.154,33.918,82.96,1.3787,2.4969,62.932,4.6033,-29.673,50.186,-27.626,17.734
17.38,12.211,81.755,32.697,-4.2746,79.154,33.918,82.96,1.3787,2.4969,62.932,4.6033,-29.673,50.186,-27.626,17.734
17.253,12.618,81.662,33.048,-4.3749,79.593,33.749,83.432,1.3731,2.9206,62.884,5.0407,-29.636,50.616,-27.651,18.174
17.253,12.618,81.662,33.048,-4.3749,79.593,33.749,83.432,1.3731,2.9206,62.884,5.0407,-29.636,50.616,-27.651,18.174
17.253,12.618,81.662,33.048,-4.3749,79.593,33.749,83.432,1.3731,2.9206,62.884,5.0407,-29.636,50.616,-27.651,18.174
17.126,13.028,81.567,33.399,-4.475,80.032,33.58,83.904,1.367,3.3459,62.835,5.4798,-29.598,51.047,-27.676,18.616
17.126,13.028,81.567,33.399,-4.475,80.032,33.58,83.904,1.367,3.3459,62.835,5.4798,-29.598,51.047,-27.676,18.616
17.126,13.028,81.567,33.399,-4.475,80.032,33.58,83.904,1.367,3.3459,62.835,5.4798,-29.598,51.047,-27.676,18.616
16.999,13.439,81.469,33.751,-4.575,80.471,33.409,84.376,1.3604,3.7728,62.783,5.9203,-29.56,51.479,-27.702,19.059
16.999,13.439,81.469,33.751,-4.575,80.471,33.409,84.376,1.3604,3.7728,62.783,5.9203,-29.56,51.479,-27.702,19.059
16.742,14.268,81.266,34.456,-4.7744,81.348,33.067,85.319,1.3456,4.6309,62.673,6.8061,-29.479,52.345,-27.756,19.95
16.742,14.268,81.266,34.456,-4.7744,81.348,33.067,85.319,1.3456,4.6309,62.673,6.8061,-29.479,52.345,-27.756,19.95
16.612,14.684,81.161,34.809,-4.8738,81.786,32.894,85.79,1.3373,5.0622,62.615,7.2512,-29.437,52.779,-27.783,20.397
16.612,14.684,81.161,34.809,-4.8738,81.786,32.894,85.79,1.3373,5.0622,62.615,7.2512,-29.437,52.779,-27.783,20.397
16.612,14.684,81.161,34.809,-4.8738,81.786,32.894,85.79,1.3373,5.0622,62.615,7.2512,-29.437,52.779,-27.783,20.397
16.482,15.103,81.053,35.163,-4.9731,82.225,32.721,86.261,1.3285,5.4949,62.555,7.6978,-29.395,53.214,-27.81,20.845
16.482,15.103,81.053,35.163,-4.9731,82.225,32.721,86.261,1.3285,5.4949,62.555,7.6978,-29.395,53.214,-27.81,20.845
16.352,15.523,80.943,35.516,-5.0722,82.663,32.547,86.732,1.3192,5.9291,62.492,8.1458,-29.351,53.65,-27.838,21.294
16.352,15.523,80.943,35.516,-5.0722,82.663,32.547,86.732,1.3192,5.9291,62.492,8.1458,-29.351,53.65,-27.838,21.294
16.22,15.945,80.83,35.87,-5.1711,83.101,32.373,87.202,1.3092,6.3647,62.427,8.5953,-29.307,54.087,-27.867,21.745
16.089,16.369,80.715,36.225,-5.2698,83.539,32.197,87.672,1.2987,6.8016,62.36,9.0461,-29.261,54.525,-27.896,22.197
16.089,16.369,80.715,36.225,-5.2698,83.539,32.197,87.672,1.2987,6.8016,62.36,9.0461,-29.261,54.525,-27.896,22.197
16.089,16.369,80.715,36.225,-5.2698,83.539,32.197,87.672,1.2987,6.8016,62.36,9.0461,-29.261,54.525,-27.896,22.197
15.956,16.794,80.598,36.58,-5.3683,83.977,32.021,88.142,1.2876,7.2399,62.291,9.4983,-29.214,54.963,-27.925,22.65
15.956,16.794,80.598,36.58,-5.3683,83.977,32.021,88.142,1.2876,7.2399,62.291,9.4983,-29.214,54.963,-27.925,22.65
15.956,16.794,80.598,36.58,-5.3683,83.977,32.021,88.142,1.2876,7.2399,62.291,9.4983,-29.214,54.963,-27.925,22.65
15.823,17.221,80.478,36.934,-5.4666,84.415,31.845,88.612,1.2759,7.6795,62.219,9.9519,-29.167,55.403,-27.955,23.104
15.823,17.221,80.478,36.934,-5.4666,84.415,31.845,88.612,1.2759,7.6795,62.219,9.9519,-29.167,55.403,-27.955,23.104
15.69,17.65,80.355,37.29,-5.5647,84.853,31.667,89.081,1.2636,8.1205,62.146,10.407,-29.119,55.843,-27.985,23.56
15.555,18.08,80.23,37.645,-5.6626,85.29,31.489,89.55,1.2507,8.5627,62.07,10.863,-29.069,56.283,-28.016,24.016
15.555,18.08,80.23,37.645,-5.6626,85.29,31.489,89.55,1.2507,8.5627,62.07,10.863,-29.069,56.283,-28.016,24.016
15.42,18.512,80.103,38.001,-5.7603,85.727,31.31,90.018,1.2372,9.0062,61.992,11.321,-29.019,56.724,-28.047,24.474
15.42,18.512,80.103,38.001,-5.7603,85.727,31.31,90.018,1.2372,9.0062,61.992,11.321,-29.019,56.724,-28.047,24.474
15.285,18.946,79.973,38.356,-5.8578,86.164,31.131,90.486,1.2231,9.451,61.911,11.779,-28.968,57.166,-28.078,24.933
15.285,18.946,79.973,38.356,-5.8578,86.164,31.131,90.486,1.2231,9.451,61.911,11.779,-28.968,57.166,-28.078,24.933
15.149,19.381,79.841,38.712,-5.9551,86.601,30.951,90.954,1.2083,9.897,61.829,12.239,-28.916,57.609,-28.11,25.393
15.149,19.381,79.841,38.712,-5.9551,86.601,30.951,90.954,1.2083,9.897,61.829,12.239,-28.916,57.609,-28.11,25.393
15.012,19.818,79.706,39.068,-6.0522,87.037,30.77,91.421,1.1929,10.344,61.744,12.7,-28.863,58.052,-28.142,25.854
14.875,20.256,79.568,39.425,-6.149,87.474,30.588,91.888,1.1769,10.793,61.657,13.163,-28.809,58.496,-28.175,26.316
14.875,20.256,79.568,39.425,-6.149,87.474,30.588,91.888,1.1769,10.793,61.657,13.163,-28.809,58.496,-28.175,26.316
14.875,20.256,79.568,39.425,-6.149,87.474,30.588,91.888,1.1769,10.793,61.657,13.163,-28.809,58.496,-28.175,26.316
14.737,20.696,79.429,39.781,-6.2456,87.909,30.406,92.354,1.1602,11.242,61.568,13.626,-28.754,58.941,-28.208,26.779
14.737,20.696,79.429,39.781,-6.2456,87.909,30.406,92.354,1.1602,11.242,61.568,13.626,-28.754,58.941,-28.208,26.779
14.599,21.138,79.286,40.137,-6.342,88.345,30.224,92.82,1.1428,11.693,61.476,14.091,-28.698,59.386,-28.241,27.244
14.599,21.138,79.286,40.137,-6.342,88.345,30.224,92.82,1.1428,11.693,61.476,14.091,-28.698,59.386,-28.241,27.244
14.46,21.58,79.142,40.493,-6.4382,88.781,30.04,93.286,1.1248,12.145,61.382,14.557,-28.641,59.831,-28.275,27.709
14.46,21.58,79.142,40.493,-6.4382,88.781,30.04,93.286,1.1248,12.145,61.382,14.557,-28.641,59.831,-28.275,27.709
14.46,21.58,79.142,40.493,-6.4382,88.781,30.04,93.286,1.1248,12.145,61.382,14.557,-28.641,59.831,-28.275,27.709
14.32,22.025,78.994,40.85,-6.5342,89.216,29.856,93.751,1.1062,12.597,61.286,15.024,-28.583,60.278,-28.31,28.176
14.18,22.471,78.845,41.206,-6.6299,89.65,29.672,94.215,1.0868,13.051,61.188,15.492,-28.525,60.724,-28.345,28.643
14.039,22.918,78.693,41.563,-6.7253,90.085,29.487,94.679,1.0668,13.506,61.088,15.961,-28.465,61.171,-28.38,29.112
14.039,22.918,78.693,41.563,-6.7253,90.085,29.487,94.679,1.0668,13.506,61.088,15.961,-28.465,61.171,-28.38,29.112
14.039,22.918,78.693,41.563,-6.7253,90.085,29.487,94.679,1.0668,13.506,61.088,15.961,-28.465,61.171,-28.38,29.112
13.897,23.367,78.538,41.919,-6.8205,90.519,29.301,95.143,1.0461,13.962,60.985,16.431,-28.405,61.619,-28.415,29.581
13.897,23.367,78.538,41.919,-6.8205,90.519,29.301,95.143,1.0461,13.962,60.985,16.431,-28.405,61.619,-28.415,29.581
13.897,23.367,78.538,41.919,-6.8205,90.519,29.301,95.143,1.0461,13.962,60.985,16.431,-28.405,61.619,-28.415,29.581
13.755,23.817,78.381,42.275,-6.9155,90.953,29.115,95.606,1.0247,14.419,60.88,16.902,-28.343,62.067,-28.451,30.052
13.612,24.268,78.221,42.631,-7.0103,91.386,28.928,96.068,1.0026,14.877,60.773,17.374,-28.281,62.516,-28.488,30.523
13.612,24.268,78.221,42.631,-7.0103,91.386,28.928,96.068,1.0026,14.877,60.773,17.374,-28.281,62.516,-28.488,30.523
13.612,24.268,78.221,42.631,-7.0103,91.386,28.928,96.068,1.0026,14.877,60.773,17.374,-28.281,62.516,-28.488,30.523
13.469,24.721,78.059,42.987,-7.1047,91.819,28.741,96.53,0.97985,15.336,60.663,17.847,-28.218,62.965,-28.525,30.996
13.469,24.721,78.059,42.987,-7.1047,91.819,28.741,96.53,0.97985,15.336,60.663,17.847,-28.218,62.965,-28.525,30.996
13.469,24.721,78.059,42.987,-7.1047,91.819,28.741,96.53,0.97985,15.336,60.663,17.847,-28.218,62.965,-28.525,30.996
13.181,25.631,77.728,43.699,-7.293,92.684,28.364,97.452,0.93215,16.257,60.437,18.795,-28.089,63.864,-28.6,31.944
13.181,25.631,77.728,43.699,-7.293,92.684,28.364,97.452,0.93215,16.257,60.437,18.795,-28.089,63.864,-28.6,31.944
13.181,25.631,77.728,43.699,-7.293,92.684,28.364,97.452,0.93215,16.257,60.437,18.795,-28.089,63.864,-28.6,31.944
13.036,26.088,77.559,44.055,-7.3867,93.115,28.175,97.912,0.90722,16.719,60.321,19.271,-28.023,64.314,-28.638,32.419
13.036,26.088,77.559,44.055,-7.3867,93.115,28.175,97.912,0.90722,16.719,60.321,19.271,-28.023,64.314,-28.638,32.419
12.89,26.547,77.387,44.41,-7.4801,93.547,27.986,98.371,0.88157,17.181,60.203,19.747,-27.956,64.764,-28.676,32.895
12.743,27.006,77.213,44.765,-7.5733,93.978,27.796,98.83,0.8552,17.645,60.082,20.225,-27.889,65.215,-28.715,33.372
12.743,27.006,77.213,44.765,-7.5733,93.978,27.796,98.83,0.8552,17.645,60.082,20.225,-27.889,65.215,-28.715,33.372
12.743,27.006,77.213,44.765,-7.5733,93.978,27.796,98.83,0.8552,17.645,60.082,20.225,-27.889,65.215,-28.715,33.372
12.597,27.467,77.036,45.12,-7.6662,94.408,27.605,99.288,0.82809,18.109,59.959,20.703,-27.82,65.666,-28.755,33.85
12.597,27.467,77.036,45.12,-7.6662,94.408,27.605,99.288,0.82809,18.109,59.959,20.703,-27.82,65.666,-28.755,33.85
12.597,27.467,77.036,45.12,-7.6662,94.408,27.605,99.288,0.82809,18.109,59.959,20.703,-27.82,65.666,-28.755,33.85
12.301,28.392,76.675,45.829,-7.8512,95.267,27.223,100.2,0.77165,19.04,59.706,21.661,-27.681,66.568,-28.835,34.809
12.301,28.392,76.675,45.829,-7.8512,95.267,27.223,100.2,0.77165,19.04,59.706,21.661,-27.681,66.568,-28.835,34.809
12.152,28.857,76.491,46.184,-7.9433,95.696,27.031,100.66,0.74231,19.507,59.576,22.142,-27.61,67.02,-28.875,35.29
12.152,28.857,76.491,46.184,-7.9433,95.696,27.031,100.66,0.74231,19.507,59.576,22.142,-27.61,67.02,-28.875,35.29
12.003,29.323,76.305,46.537,-8.0351,96.125,26.838,101.11,0.71222,19.974,59.444,22.623,-27.538,67.472,-28.916,35.771
11.853,29.79,76.116,46.891,-8.1266,96.553,26.645,101.57,0.68137,20.442,59.309,23.105,-27.465,67.924,-28.957,36.254
11.853,29.79,76.116,46.891,-8.1266,96.553,26.645,101.57,0.68137,20.442,59.309,23.105,-27.465,67.924,-28.957,36.254
11.703,30.258,75.925,47.244,-8.2178,96.98,26.452,102.02,0.64976,20.911,59.173,23.587,-27.391,68.376,-28.999,36.737
11.703,30.258,75.925,47.244,-8.2178,96.98,26.452,102.02,0.64976,20.911,59.173,23.587,-27.391,68.376,-28.999,36.737
11.703,30.258,75.925,47.244,-8.2178,96.98,26.452,102.02,0.64976,20.911,59.173,23.587,-27.391,68.376,-28.999,36.737
11.551,30.727,75.731,47.597,-8.3087,97.407,26.258,102.48,0.61739,21.38,59.034,24.07,-27.317,68.829,-29.041,37.221
11.551,30.727,75.731,47.597,-8.3087,97.407,26.258,102.48,0.61739,21.38,59.034,24.07,-27.317,68.829,-29.041,37.221
11.4,31.197,75.535,47.95,-8.3994,97.834,26.064,102.93,0.58424,21.85,58.893,24.554,-27.241,69.282,-29.084,37.706
11.4,31.197,75.535,47.95,-8.3994,97.834,26.064,102.93,0.58424,21.85,58.893,24.554,-27.241,69.282,-29.084,37.706
11.248,31.669,75.337,48.302,-8.4897,98.26,25.87,103.38,0.55032,22.321,58.749,25.038,-27.165,69.734,-29.127,38.191
11.095,32.142,75.136,48.653,-8.5797,98.685,25.675,103.83,0.51563,22.792,58.604,25.523,-27.088,70.187,-29.17,38.677
11.095,32.142,75.136,48.653,-8.5797,98.685,25.675,103.83,0.51563,22.792,58.604,25.523,-27.088,70.187,-29.17,38.677
10.941,32.615,74.933,49.004,-8.6695,99.11,25.479,104.28,0.48015,23.264,58.456,26.008,-27.01,70.64,-29.214,39.164
10.941,32.615,74.933,49.004,-8.6695,99.11,25.479,104.28,0.48015,23.264,58.456,26.008,-27.01,70.64,-29.214,39.164
10.941,32.615,74.933,49.004,-8.6695,99.11,25.479,104.28,0.48015,23.264,58.456,26.008,-27.01,70.64,-29.214,39.164
10.787,33.09,74.728,49.355,-8.7589,99.534,25.283,104.73,0.44388,23.736,58.306,26.494,-26.932,71.093,-29.258,39.652
10.787,33.09,74.728,49.355,-8.7589,99.534,25.283,104.73,0.44388,23.736,58.306,26.494,-26.932,71.093,-29.258,39.652
10.787,33.09,74.728,49.355,-8.7589,99.534,25.283,104.73,0.44388,23.736,58.306,26.494,-26.932,71.093,-29.258,39.652
10.633,33.566,74.52,49.705,-8.848,99.957,25.087,105.18,0.40683,24.209,58.153,26.981,-26.852,71.546,-29.303,40.141
10.478,34.043,74.309,50.055,-8.9368,100.38,24.891,105.63,0.36899,24.682,57.998,27.468,-26.772,71.999,-29.348,40.63
10.322,34.52,74.097,50.405,-9.0252,100.8,24.694,106.07,0.33035,25.156,57.842,27.955,-26.69,72.452,-29.393,41.12
10.322,34.52,74.097,50.405,-9.0252,100.8,24.694,106.07,0.33035,25.156,57.842,27.955,-26.69,72.452,-29.393,41.12
10.322,34.52,74.097,50.405,-9.0252,100.8,24.694,106.07,0.33035,25.156,57.842,27.955,-26.69,72.452,-29.393,41.12
10.166,34.999,73.882,50.753,-9.1134,101.22,24.497,106.52,0.29091,25.63,57.682,28.443,-26.608,72.904,-29.439,41.61
10.166,34.999,73.882,50.753,-9.1134,101.22,24.497,106.52,0.29091,25.63,57.682,28.443,-26.608,72.904,-29.439,41.61
10.166,34.999,73.882,50.753,-9.1134,101.22,24.497,106.52,0.29091,25.63,57.682,28.443,-26.608,72.904,-29.439,41.61
10.009,35.479,73.665,51.102,-9.2012,101.64,24.299,106.96,0.25067,26.105,57.521,28.931,-26.525,73.357,-29.485,42.102
10.009,35.479,73.665,51.102,-9.2012,101.64,24.299,106.96,0.25067,26.105,57.521,28.931,-26.525,73.357,-29.485,42.102
9.8514,35.96,73.445,51.449,-9.2887,102.07,24.101,107.41,0.20963,26.58,57.357,29.42,-26.442,73.81,-29.532,42.594
9.6934,36.441,73.223,51.796,-9.3758,102.48,23.903,107.85,0.16777,27.056,57.191,29.909,-26.357,74.263,-29.579,43.086
9.6934,36.441,73.223,51.796,-9.3758,102.48,23.903,107.85,0.16777,27.056,57.191,29.909,-26.357,74.263,-29.579,43.086
9.6934,36.441,73.223,51.796,-9.3758,102.48,23.903,107.85,0.16777,27.056,57.191,29.909,-26.357,74.263,-29.579,43.086
9.5349,36.924,72.999,52.143,-9.4626,102.9,23.705,108.29,0.12511,27.532,57.023,30.398,-26.272,74.715,-29.626,43.579
9.5349,36.924,72.999,52.143,-9.4626,102.9,23.705,108.29,0.12511,27.532,57.023,30.398,-26.272,74.715,-29.626,43.579
9.5349,36.924,72.999,52.143,-9.4626,102.9,23.705,108.29,0.12511,27.532,57.023,30.398,-26.272,74.715,-29.626,43.579
9.2161,37.892,72.543,52.834,-9.6353,103.74,23.307,109.18,0.037345,28.485,56.68,31.377,-26.099,75.62,-29.722,44.568
9.2161,37.892,72.543,52.834,-9.6353,103.74,23.307,109.18,0.037345,28.485,56.68,31.377,-26.099,75.62,-29.722,44.568
9.2161,37.892,72.543,52.834,-9.6353,103.74,23.307,109.18,0.037345,28.485,56.68,31.377,-26.099,75.62,-29.722,44.568
9.0559,38.377,72.312,53.179,-9.721,104.16,23.107,109.62,-0.0077621,28.962,56.506,31.867,-26.011,76.072,-29.77,45.063
8.8951,38.863,72.078,53.523,-9.8065,104.57,22.908,110.06,-0.053689,29.439,56.328,32.358,-25.923,76.524,-29.819,45.559
8.8951,38.863,72.078,53.523,-9.8065,104.57,22.908,110.06,-0.053689,29.439,56.328,32.358,-25.923,76.524,-29.819,45.559
8.7338,39.35,71.843,53.866,-9.8916,104.99,22.708,110.49,-0.10044,29.916,56.149,32.848,-25.834,76.976,-29.868,46.055
8.7338,39.35,71.843,53.866,-9.8916,104.99,22.708,110.49,-0.10044,29.916,56.149,32.848,-25.834,76.976,-29.868,46.055
8.572,39.838,71.605,54.209,-9.9763,105.4,22.508,110.93,-0.14801,30.394,55.968,33.339,-25.744,77.428,-29.918,46.552
8.572,39.838,71.605,54.209,-9.9763,105.4,22.508,110.93,-0.14801,30.394,55.968,33.339,-25.744,77.428,-29.918,46.552
8.4096,40.327,71.365,54.551,-10.061,105.82,22.308,111.37,-0.19641,30.872,55.784,33.83,-25.653,77.879,-29.968,47.049
8.4096,40.327,71.365,54.551,-10.061,105.82,22.308,111.37,-0.19641,30.872,55.784,33.83,-25.653,77.879,-29.968,47.049
8.2467,40.816,71.122,54.892,-10.145,106.23,22.107,111.8,-0.24563,31.35,55.598,34.321,-25.562,78.33,-30.018,47.547
8.2467,40.816,71.122,54.892,-10.145,106.23,22.107,111.8,-0.24563,31.35,55.598,34.321,-25.562,78.33,-30.018,47.547
8.0832,41.306,70.877,55.232,-10.228,106.64,21.906,112.24,-0.29569,31.828,55.41,34.813,-25.469,78.781,-30.069,48.045
8.0832,41.306,70.877,55.232,-10.228,106.64,21.906,112.24,-0.29569,31.828,55.41,34.813,-25.469,78.781,-30.069,48.045
7.9192,41.797,70.63,55.572,-10.312,107.05,21.705,112.67,-0.34657,32.307,55.22,35.304,-25.376,79.231,-30.12,48.544
7.9192,41.797,70.63,55.572,-10.312,107.05,21.705,112.67,-0.34657,32.307,55.22,35.304,-25.376,79.231,-30.12,48.544
7.7547,42.289,70.381,55.911,-10.395,107.47,21.504,113.1,-0.39828,32.785,55.027,35.795,-25.282,79.681,-30.171,49.044
7.7547,42.289,70.381,55.911,-10.395,107.47,21.504,113.1,-0.39828,32.785,55.027,35.795,-25.282,79.681,-30.171,49.044
7.7547,42.289,70.381,55.911,-10.395,107.47,21.504,113.1,-0.39828,32.785,55.027,35.795,-25.282,79.681,-30.171,49.044
7.5897,42.781,70.13,56.249,-10.477,107.88,21.303,113.53,-0.45083,33.264,54.833,36.287,-25.188,80.131,-30.223,49.544
7.5897,42.781,70.13,56.249,-10.477,107.88,21.303,113.53,-0.45083,33.264,54.833,36.287,-25.188,80.131,-30.223,49.544
7.258,43.768,69.621,56.924,-10.641,108.69,20.9,114.39,-0.55842,34.222,54.437,37.27,-24.996,81.03,-30.327,50.545
7.258,43.768,69.621,56.924,-10.641,108.69,20.9,114.39,-0.55842,34.222,54.437,37.27,-24.996,81.03,-30.327,50.545
7.258,43.768,69.621,56.924,-10.641,108.69,20.9,114.39,-0.55842,34.222,54.437,37.27,-24.996,81.03,-30.327,50.545
7.0915,44.262,69.363,57.259,-10.722,109.1,20.698,114.82,-0.61347,34.701,54.236,37.762,-24.9,81.478,-30.38,51.046
7.0915,44.262,69.363,57.259,-10.722,109.1,20.698,114.82,-0.61347,34.701,54.236,37.762,-24.9,81.478,-30.38,51.046
6.9244,44.757,69.103,57.595,-10.803,109.51,20.496,115.25,-0.66935,35.18,54.032,38.253,-24.802,81.927,-30.433,51.548
6.9244,44.757,69.103,57.595,-10.803,109.51,20.496,115.25,-0.66935,35.18,54.032,38.253,-24.802,81.927,-30.433,51.548
6.7568,45.253,68.841,57.929,-10.884,109.92,20.295,115.67,-0.72607,35.659,53.827,38.745,-24.704,82.374,-30.487,52.05
6.7568,45.253,68.841,57.929,-10.884,109.92,20.295,115.67,-0.72607,35.659,53.827,38.745,-24.704,82.374,-30.487,52.05
6.7568,45.253,68.841,57.929,-10.884,109.92,20.295,115.67,-0.72607,35.659,53.827,38.745,-24.704,82.374,-30.487,52.05
6.5887,45.749,68.576,58.262,-10.964,110.32,20.092,116.1,-0.78363,36.137,53.619,39.236,-24.605,82.822,-30.541,52.553
6.5887,45.749,68.576,58.262,-10.964,110.32,20.092,116.1,-0.78363,36.137,53.619,39.236,-24.605,82.822,-30.541,52.553
6.5887,45.749,68.576,58.262,-10.964,110.32,20.092,116.1,-0.78363,36.137,53.619,39.236,-24.605,82.822,-30.541,52.553
6.2511,46.743,68.041,58.926,-11.123,111.13,19.688,116.94,-0.90124,37.095,53.197,40.219,-24.405,83.715,-30.65,53.56
6.2511,46.743,68.041,58.926,-11.123,111.13,19.688,116.94,-0.90124,37.095,53.197,40.219,-24.405,83.715,-30.65,53.56
6.2511,46.743,68.041,58.926,-11.123,111.13,19.688,116.94,-0.90124,37.095,53.197,40.219,-24.405,83.715,-30.65,53.56
6.2511,46.743,68.041,58.926,-11.123,111.13,19.688,116.94,-0.90124,37.095,53.197,40.219,-24.405,83.715,-30.65,53.56
5.9115,47.74,67.498,59.587,-11.281,111.93,19.283,117.79,-1.0222,38.052,52.767,41.201,-24.201,84.606,-30.76,54.568
5.9115,47.74,67.498,59.587,-11.281,111.93,19.283,117.79,-1.0222,38.052,52.767,41.201,-24.201,84.606,-30.76,54.568
5.741,48.239,67.223,59.916,-11.359,112.33,19.081,118.21,-1.0839,38.531,52.549,41.692,-24.099,85.051,-30.815,55.072
5.741,48.239,67.223,59.916,-11.359,112.33,19.081,118.21,-1.0839,38.531,52.549,41.692,-24.099,85.051,-30.815,55.072
5.741,48.239,67.223,59.916,-11.359,112.33,19.081,118.21,-1.0839,38.531,52.549,41.692,-24.099,85.051,-30.815,55.072
5.57,48.738,66.946,60.244,-11.437,112.73,18.878,118.63,-1.1465,39.009,52.328,42.182,-23.996,85.496,-30.871,55.577
5.57,48.738,66.946,60.244,-11.437,112.73,18.878,118.63,-1.1465,39.009,52.328,42.182,-23.996,85.496,-30.871,55.577
5.2266,49.739,66.387,60.898,-11.591,113.53,18.473,119.46,-1.2742,39.966,51.881,43.163,-23.787,86.383,-30.984,56.588
5.2266,49.739,66.387,60.898,-11.591,113.53,18.473,119.46,-1.2742,39.966,51.881,43.163,-23.787,86.383,-30.984,56.588
5.2266,49.739,66.387,60.898,-11.591,113.53,18.473,119.46,-1.2742,39.966,51.881,43.163,-23.787,86.383,-30.984,56.588
5.0543,50.24,66.104,61.223,-11.668,113.93,18.271,119.87,-1.3392,40.443,51.654,43.653,-23.682,86.825,-31.04,57.094
5.0543,50.24,66.104,61.223,-11.668,113.93,18.271,119.87,-1.3392,40.443,51.654,43.653,-23.682,86.825,-31.04,57.094
4.8815,50.742,65.819,61.547,-11.744,114.33,18.069,120.29,-1.4051,40.921,51.426,44.142,-23.576,87.267,-31.098,57.6
4.8815,50.742,65.819,61.547,-11.744,114.33,18.069,120.29,-1.4051,40.921,51.426,44.142,-23.576,87.267,-31.098,57.6
4.7082,51.244,65.532,61.871,-11.82,114.72,17.866,120.7,-1.4719,41.398,51.195,44.632,-23.469,87.709,-31.155,58.107
4.7082,51.244,65.532,61.871,-11.82,114.72,17.866,120.7,-1.4719,41.398,51.195,44.632,-23.469,87.709,-31.155,58.107
4.5345,51.746,65.243,62.193,-11.895,115.12,17.664,121.11,-1.5394,41.875,50.962,45.121,-23.362,88.149,-31.213,58.614
4.5345,51.746,65.243,62.193,-11.895,115.12,17.664,121.11,-1.5394,41.875,50.962,45.121,-23.362,88.149,-31.213,58.614
4.3603,52.249,64.952,62.515,-11.97,115.51,17.461,121.53,-1.6078,42.352,50.727,45.609,-23.253,88.589,-31.271,59.121
4.3603,52.249,64.952,62.515,-11.97,115.51,17.461,121.53,-1.6078,42.352,50.727,45.609,-23.253,88.589,-31.271,59.121
4.1858,52.752,64.66,62.835,-12.044,115.9,17.259,121.94,-1.6771,42.829,50.49,46.098,-23.145,89.029,-31.329,59.628
4.1858,52.752,64.66,62.835,-12.044,115.9,17.259,121.94,-1.6771,42.829,50.49,46.098,-23.145,89.029,-31.329,59.628
4.1858,52.752,64.66,62.835,-12.044,115.9,17.259,121.94,-1.6771,42.829,50.49,46.098,-23.145,89.029,-31.329,59.628
4.1858,52.752,64.66,62.835,-12.044,115.9,17.259,121.94,-1.6771,42.829,50.49,46.098,-23.145,89.029,-31.329,59.628
3.8354,53.76,64.069,63.473,-12.191,116.69,16.854,122.75,-1.818,43.781,50.009,47.073,-22.925,89.905,-31.447,60.644
3.8354,53.76,64.069,63.473,-12.191,116.69,16.854,122.75,-1.818,43.781,50.009,47.073,-22.925,89.905,-31.447,60.644
3.6595,54.264,63.77,63.791,-12.264,117.08,16.652,123.16,-1.8897,44.256,49.766,47.56,-22.815,90.342,-31.506,61.152
3.6595,54.264,63.77,63.791,-12.264,117.08,16.652,123.16,-1.8897,44.256,49.766,47.56,-22.815,90.342,-31.506,61.152
3.4833,54.769,63.47,64.107,-12.337,117.47,16.45,123.56,-1.9622,44.732,49.521,48.047,-22.703,90.779,-31.566,61.66
3.4833,54.769,63.47,64.107,-12.337,117.47,16.45,123.56,-1.9622,44.732,49.521,48.047,-22.703,90.779,-31.566,61.66
3.4833,54.769,63.47,64.107,-12.337,117.47,16.45,123.56,-1.9622,44.732,49.521,48.047,-22.703,90.779,-31.566,61.66
3.4833,54.769,63.47,64.107,-12.337,117.47,16.45,123.56,-1.9622,44.732,49.521,48.047,-22.703,90.779,-31.566,61.66
3.1296,55.779,62.864,64.737,-12.481,118.24,16.047,124.37,-2.1097,45.681,49.024,49.019,-22.479,91.649,-31.685,62.678
3.1296,55.779,62.864,64.737,-12.481,118.24,16.047,124.37,-2.1097,45.681,49.024,49.019,-22.479,91.649,-31.685,62.678
2.9522,56.285,62.558,65.05,-12.552,118.63,15.845,124.77,-2.1846,46.155,48.773,49.504,-22.366,92.083,-31.746,63.187
2.9522,56.285,62.558,65.05,-12.552,118.63,15.845,124.77,-2.1846,46.155,48.773,49.504,-22.366,92.083,-31.746,63.187
2.9522,56.285,62.558,65.05,-12.552,118.63,15.845,124.77,-2.1846,46.155,48.773,49.504,-22.366,92.083,-31.746,63.187
2.7744,56.79,62.25,65.363,-12.623,119.01,15.644,125.17,-2.2604,46.628,48.52,49.989,-22.252,92.516,-31.806,63.696
2.7744,56.79,62.25,65.363,-12.623,119.01,15.644,125.17,-2.2604,46.628,48.52,49.989,-22.252,92.516,-31.806,63.696
2.4176,57.803,61.629,65.984,-12.763,119.78,15.241,125.97,-2.4144,47.574,48.008,50.957,-22.022,93.38,-31.929,64.714
2.4176,57.803,61.629,65.984,-12.763,119.78,15.241,125.97,-2.4144,47.574,48.008,50.957,-22.022,93.38,-31.929,64.714
2.4176,57.803,61.629,65.984,-12.763,119.78,15.241,125.97,-2.4144,47.574,48.008,50.957,-22.022,93.38,-31.929,64.714
2.2387,58.31,61.316,66.293,-12.832,120.16,15.041,126.37,-2.4925,48.046,47.749,51.44,-21.906,93.811,-31.99,65.224
2.2387,58.31,61.316,66.293,-12.832,120.16,15.041,126.37,-2.4925,48.046,47.749,51.44,-21.906,93.811,-31.99,65.224
2.0594,58.816,61.002,66.602,-12.901,120.55,14.84,126.77,-2.5715,48.517,47.488,51.923,-21.79,94.241,-32.052,65.734
2.0594,58.816,61.002,66.602,-12.901,120.55,14.84,126.77,-2.5715,48.517,47.488,51.923,-21.79,94.241,-32.052,65.734
1.8798,59.323,60.685,66.909,-12.97,120.93,14.639,127.16,-2.6513,48.988,47.225,52.405,-21.673,94.67,-32.114,66.244
1.8798,59.323,60.685,66.909,-12.97,120.93,14.639,127.16,-2.6513,48.988,47.225,52.405,-21.673,94.67,-32.114,66.244
1.6998,59.831,60.367,67.214,-13.038,121.31,14.439,127.55,-2.7319,49.458,46.96,52.886,-21.556,95.098,-32.176,66.754
1.6998,59.831,60.367,67.214,-13.038,121.31,14.439,127.55,-2.7319,49.458,46.96,52.886,-21.556,95.098,-32.176,66.754
1.5195,60.338,60.047,67.519,-13.105,121.69,14.239,127.95,-2.8132,49.928,46.693,53.367,-21.437,95.525,-32.238,67.264
1.5195,60.338,60.047,67.519,-13.105,121.69,14.239,127.95,-2.8132,49.928,46.693,53.367,-21.437,95.525,-32.238,67.264
1.5195,60.338,60.047,67.519,-13.105,121.69,14.239,127.95,-2.8132,49.928,46.693,53.367,-21.437,95.525,-32.238,67.264
1.3388,60.846,59.726,67.823,-13.172,122.06,14.039,128.34,-2.8954,50.397,46.425,53.847,-21.319,95.951,-32.301,67.774
1.1578,61.353,59.402,68.126,-13.239,122.44,13.84,128.73,-2.9783,50.866,46.154,54.326,-21.199,96.377,-32.364,68.285
1.1578,61.353,59.402,68.126,-13.239,122.44,13.84,128.73,-2.9783,50.866,46.154,54.326,-21.199,96.377,-32.364,68.285
0.97648,61.861,59.078,68.427,-13.305,122.82,13.64,129.12,-3.0621,51.334,45.882,54.805,-21.08,96.801,-32.427,68.795
0.97648,61.861,59.078,68.427,-13.305,122.82,13.64,129.12,-3.0621,51.334,45.882,54.805,-21.08,96.801,-32.427,68.795
0.79484,62.369,58.751,68.728,-13.37,123.19,13.441,129.51,-3.1465,51.801,45.607,55.283,-20.959,97.224,-32.491,69.305
0.79484,62.369,58.751,68.728,-13.37,123.19,13.441,129.51,-3.1465,51.801,45.607,55.283,-20.959,97.224,-32.491,69.305
0.6129,62.877,58.423,69.027,-13.435,123.56,13.243,129.89,-3.2318,52.268,45.331,55.76,-20.838,97.647,-32.555,69.816
0.6129,62.877,58.423,69.027,-13.435,123.56,13.243,129.89,-3.2318,52.268,45.331,55.76,-20.838,97.647,-32.555,69.816
0.6129,62.877,58.423,69.027,-13.435,123.56,13.243,129.89,-3.2318,52.268,45.331,55.76,-20.838,97.647,-32.555,69.816
0.43065,63.386,58.093,69.325,-13.5,123.94,13.044,130.28,-3.3178,52.734,45.053,56.236,-20.717,98.068,-32.618,70.327
0.43065,63.386,58.093,69.325,-13.5,123.94,13.044,130.28,-3.3178,52.734,45.053,56.236,-20.717,98.068,-32.618,70.327
0.43065,63.386,58.093,69.325,-13.5,123.94,13.044,130.28,-3.3178,52.734,45.053,56.236,-20.717,98.068,-32.618,70.327
0.065284,64.402,57.43,69.919,-13.628,124.68,12.648,131.05,-3.4922,53.664,44.492,57.187,-20.472,98.908,-32.747,71.348
0.065284,64.402,57.43,69.919,-13.628,124.68,12.648,131.05,-3.4922,53.664,44.492,57.187,-20.472,98.908,-32.747,71.348
0.065284,64.402,57.43,69.919,-13.628,124.68,12.648,131.05,-3.4922,53.664,44.492,57.187,-20.472,98.908,-32.747,71.348
-0.11783,64.911,57.095,70.214,-13.691,125.05,12.451,131.43,-3.5805,54.128,44.209,57.661,-20.349,99.326,-32.812,71.859
-0.11783,64.911,57.095,70.214,-13.691,125.05,12.451,131.43,-3.5805,54.128,44.209,57.661,-20.349,99.326,-32.812,71.859
-0.11783,64.911,57.095,70.214,-13.691,125.05,12.451,131.43,-3.5805,54.128,44.209,57.661,-20.349,99.326,-32.812,71.859
-0.11783,64.911,57.095,70.214,-13.691,125.05,12.451,131.43,-3.5805,54.128,44.209,57.661,-20.349,99.326,-32.812,71.859
-0.48486,65.928,56.422,70.8,-13.816,125.78,12.057,132.19,-3.7594,55.053,43.636,58.606,-20.101,100.16,-32.941,72.88
-0.48486,65.928,56.422,70.8,-13.816,125.78,12.057,132.19,-3.7594,55.053,43.636,58.606,-20.101,100.16,-32.941,72.88
-0.66878,66.436,56.084,71.091,-13.877,126.15,11.861,132.57,-3.8499,55.515,43.348,59.078,-19.976,100.57,-33.006,73.391
-0.85295,66.945,55.744,71.382,-13.938,126.52,11.665,132.95,-3.9412,55.975,43.057,59.549,-19.85,100.99,-33.072,73.902
-0.85295,66.945,55.744,71.382,-13.938,126.52,11.665,132.95,-3.9412,55.975,43.057,59.549,-19.85,100.99,-33.072,73.902
-1.0374,67.453,55.402,71.671,-13.999,126.88,11.469,133.32,-4.0333,56.435,42.765,60.018,-19.725,101.4,-33.137,74.412
-1.0374,67.453,55.402,71.671,-13.999,126.88,11.469,133.32,-4.0333,56.435,42.765,60.018,-19.725,101.4,-33.137,74.412
-1.222,67.962,55.059,71.959,-14.059,127.24,11.274,133.7,-4.126,56.894,42.471,60.487,-19.598,101.81,-33.203,74.923
-1.222,67.962,55.059,71.959,-14.059,127.24,11.274,133.7,-4.126,56.894,42.471,60.487,-19.598,101.81,-33.203,74.923
-1.4069,68.47,54.715,72.246,-14.119,127.61,11.08,134.07,-4.2195,57.353,42.175,60.955,-19.471,102.22,-33.269,75.434
-1.4069,68.47,54.715,72.246,-14.119,127.61,11.08,134.07,-4.2195,57.353,42.175,60.955,-19.471,102.22,-33.269,75.434
-1.4069,68.47,54.715,72.246,-14.119,127.61,11.08,134.07,-4.2195,57.353,42.175,60.955,-19.471,102.22,-33.269,75.434
-1.592,68.979,54.369,72.532,-14.178,127.97,10.885,134.45,-4.3137,57.81,41.878,61.422,-19.344,102.63,-33.335,75.944
-1.7773,69.487,54.022,72.817,-14.236,128.33,10.692,134.82,-4.4086,58.267,41.579,61.888,-19.216,103.04,-33.402,76.455
-1.9629,69.996,53.673,73.101,-14.295,128.69,10.498,135.19,-4.5042,58.722,41.278,62.354,-19.088,103.45,-33.468,76.966
-1.9629,69.996,53.673,73.101,-14.295,128.69,10.498,135.19,-4.5042,58.722,41.278,62.354,-19.088,103.45,-33.468,76.966
-2.1486,70.504,53.324,73.383,-14.352,129.05,10.305,135.56,-4.6005,59.177,40.976,62.818,-18.959,103.85,-33.535,77.476
-2.1486,70.504,53.324,73.383,-14.352,129.05,10.305,135.56,-4.6005,59.177,40.976,62.818,-18.959,103.85,-33.535,77.476
-2.1486,70.504,53.324,73.383,-14.352,129.05,10.305,135.56,-4.6005,59.177,40.976,62.818,-18.959,103.85,-33.535,77.476
-2.3346,71.012,52.973,73.664,-14.409,129.4,10.113,135.93,-4.6975,59.631,40.672,63.281,-18.829,104.26,-33.602,77.986
-2.3346,71.012,52.973,73.664,-14.409,129.4,10.113,135.93,-4.6975,59.631,40.672,63.281,-18.829,104.26,-33.602,77.986
-2.5207,71.52,52.62,73.945,-14.466,129.76,9.9208,136.3,-4.7952,60.084,40.366,63.743,-18.7,104.66,-33.669,78.497
-2.707,72.028,52.267,74.224,-14.522,130.11,9.7294,136.66,-4.8936,60.536,40.059,64.204,-18.569,105.07,-33.736,79.007
-2.707,72.028,52.267,74.224,-14.522,130.11,9.7294,136.66,-4.8936,60.536,40.059,64.204,-18.569,105.07,-33.736,79.007
-2.8935,72.536,51.912,74.502,-14.578,130.47,9.5385,137.03,-4.9927,60.987,39.75,64.664,-18.438,105.47,-33.803,79.517
-2.8935,72.536,51.912,74.502,-14.578,130.47,9.5385,137.03,-4.9927,60.987,39.75,64.664,-18.438,105.47,-33.803,79.517
-2.8935,72.536,51.912,74.502,-14.578,130.47,9.5385,137.03,-4.9927,60.987,39.75,64.664,-18.438,105.47,-33.803,79.517
-3.0801,73.044,51.556,74.778,-14.633,130.82,9.3481,137.39,-5.0924,61.437,39.44,65.123,-18.307,105.87,-33.871,80.027
-3.0801,73.044,51.556,74.778,-14.633,130.82,9.3481,137.39,-5.0924,61.437,39.44,65.123,-18.307,105.87,-33.871,80.027
-3.2669,73.551,51.199,75.054,-14.687,131.17,9.1582,137.76,-5.1929,61.886,39.128,65.581,-18.176,106.26,-33.938,80.537
-3.2669,73.551,51.199,75.054,-14.687,131.17,9.1582,137.76,-5.1929,61.886,39.128,65.581,-18.176,106.26,-33.938,80.537
-3.4539,74.059,50.841,75.329,-14.741,131.53,8.9689,138.12,-5.2939,62.334,38.814,66.038,-18.044,106.66,-34.006,81.046
-3.4539,74.059,50.841,75.329,-14.741,131.53,8.9689,138.12,-5.2939,62.334,38.814,66.038,-18.044,106.66,-34.006,81.046
-3.641,74.566,50.482,75.602,-14.795,131.88,8.7801,138.48,-5.3957,62.781,38.499,66.494,-17.911,107.06,-34.074,81.556
-3.641,74.566,50.482,75.602,-14.795,131.88,8.7801,138.48,-5.3957,62.781,38.499,66.494,-17.911,107.06,-34.074,81.556
-3.641,74.566,50.482,75.602,-14.795,131.88,8.7801,138.48,-5.3957,62.781,38.499,66.494,-17.911,107.06,-34.074,81.556
-3.8282,75.073,50.121,75.874,-14.848,132.22,8.5919,138.84,-5.4981,63.227,38.182,66.948,-17.778,107.45,-34.142,82.065
-3.8282,75.073,50.121,75.874,-14.848,132.22,8.5919,138.84,-5.4981,63.227,38.182,66.948,-17.778,107.45,-34.142,82.065
-3.8282,75.073,50.121,75.874,-14.848,132.22,8.5919,138.84,-5.4981,63.227,38.182,66.948,-17.778,107.45,-34.142,82.065
-4.2031,76.087,49.397,76.415,-14.952,132.92,8.2172,139.55,-5.7047,64.116,37.544,67.854,-17.511,108.24,-34.279,83.084
-4.2031,76.087,49.397,76.415,-14.952,132.92,8.2172,139.55,-5.7047,64.116,37.544,67.854,-17.511,108.24,-34.279,83.084
-4.3907,76.593,49.033,76.684,-15.004,133.27,8.0308,139.91,-5.809,64.559,37.223,68.305,-17.377,108.63,-34.347,83.593
-4.3907,76.593,49.033,76.684,-15.004,133.27,8.0308,139.91,-5.809,64.559,37.223,68.305,-17.377,108.63,-34.347,83.593
-4.5784,77.099,48.668,76.952,-15.054,133.61,7.8449,140.27,-5.914,65,36.9,68.755,-17.242,109.02,-34.416,84.101
-4.5784,77.099,48.668,76.952,-15.054,133.61,7.8449,140.27,-5.914,65,36.9,68.755,-17.242,109.02,-34.416,84.101
-4.7662,77.605,48.303,77.218,-15.105,133.95,7.6597,140.62,-6.0195,65.441,36.576,69.204,-17.107,109.41,-34.485,84.61
-4.7662,77.605,48.303,77.218,-15.105,133.95,7.6597,140.62,-6.0195,65.441,36.576,69.204,-17.107,109.41,-34.485,84.61
-4.9541,78.111,47.936,77.484,-15.155,134.3,7.4751,140.97,-6.1257,65.881,36.251,69.651,-16.971,109.79,-34.553,85.118
-4.9541,78.111,47.936,77.484,-15.155,134.3,7.4751,140.97,-6.1257,65.881,36.251,69.651,-16.971,109.79,-34.553,85.118
-5.1421,78.617,47.568,77.748,-15.204,134.64,7.2911,141.33,-6.2324,66.319,35.924,70.097,-16.836,110.18,-34.622,85.627
-5.1421,78.617,47.568,77.748,-15.204,134.64,7.2911,141.33,-6.2324,66.319,35.924,70.097,-16.836,110.18,-34.622,85.627
-5.1421,78.617,47.568,77.748,-15.204,134.64,7.2911,141.33,-6.2324,66.319,35.924,70.097,-16.836,110.18,-34.622,85.627
-5.3302,79.122,47.2,78.012,-15.253,134.98,7.1078,141.68,-6.3398,66.756,35.595,70.543,-16.699,110.56,-34.691,86.134
-5.3302,79.122,47.2,78.012,-15.253,134.98,7.1078,141.68,-6.3398,66.756,35.595,70.543,-16.699,110.56,-34.691,86.134
-5.3302,79.122,47.2,78.012,-15.253,134.98,7.1078,141.68,-6.3398,66.756,35.595,70.543,-16.699,110.56,-34.691,86.134
-5.7065,80.132,46.46,78.535,-15.349,135.66,6.7432,142.38,-6.5563,67.627,34.934,71.429,-16.426,111.33,-34.83,87.15
-5.7065,80.132,46.46,78.535,-15.349,135.66,6.7432,142.38,-6.5563,67.627,34.934,71.429,-16.426,111.33,-34.83,87.15
-5.8947,80.636,46.088,78.795,-15.397,136,6.5619,142.72,-6.6654,68.061,34.602,71.87,-16.288,111.71,-34.899,87.657
-5.8947,80.636,46.088,78.795,-15.397,136,6.5619,142.72,-6.6654,68.061,34.602,71.87,-16.288,111.71,-34.899,87.657
-6.083,81.14,45.716,79.053,-15.443,136.33,6.3813,143.07,-6.7751,68.494,34.268,72.31,-16.151,112.09,-34.968,88.164
-6.083,81.14,45.716,79.053,-15.443,136.33,6.3813,143.07,-6.7751,68.494,34.268,72.31,-16.151,112.09,-34.968,88.164
-6.083,81.14,45.716,79.053,-15.443,136.33,6.3813,143.07,-6.7751,68.494,34.268,72.31,-16.151,112.09,-34.968,88.164
-6.2713,81.644,45.343,79.311,-15.49,136.67,6.2014,143.42,-6.8854,68.925,33.933,72.749,-16.013,112.47,-35.038,88.671
-6.2713,81.644,45.343,79.311,-15.49,136.67,6.2014,143.42,-6.8854,68.925,33.933,72.749,-16.013,112.47,-35.038,88.671
-6.6481,82.65,44.595,79.823,-15.581,137.34,5.8437,144.11,-7.1076,69.784,33.258,73.622,-15.736,113.22,-35.177,89.683
-6.6481,82.65,44.595,79.823,-15.581,137.34,5.8437,144.11,-7.1076,69.784,33.258,73.622,-15.736,113.22,-35.177,89.683
-6.6481,82.65,44.595,79.823,-15.581,137.34,5.8437,144.11,-7.1076,69.784,33.258,73.622,-15.736,113.22,-35.177,89.683
-6.8365,83.153,44.22,80.078,-15.626,137.67,5.666,144.45,-7.2195,70.212,32.919,74.057,-15.597,113.59,-35.247,90.189
-6.8365,83.153,44.22,80.078,-15.626,137.67,5.666,144.45,-7.2195,70.212,32.919,74.057,-15.597,113.59,-35.247,90.189
-6.8365,83.153,44.22,80.078,-15.626,137.67,5.666,144.45,-7.2195,70.212,32.919,74.057,-15.597,113.59,-35.247,90.189
-7.0249,83.655,43.843,80.331,-15.67,138,5.489,144.79,-7.3319,70.638,32.579,74.49,-15.457,113.96,-35.316,90.695
-7.0249,83.655,43.843,80.331,-15.67,138,5.489,144.79,-7.3319,70.638,32.579,74.49,-15.457,113.96,-35.316,90.695
-7.2133,84.157,43.467,80.583,-15.714,138.33,5.3127,145.13,-7.4449,71.063,32.237,74.922,-15.318,114.33,-35.386,91.2
-7.2133,84.157,43.467,80.583,-15.714,138.33,5.3127,145.13,-7.4449,71.063,32.237,74.922,-15.318,114.33,-35.386,91.2
-7.4017,84.659,43.089,80.834,-15.757,138.66,5.1372,145.47,-7.5584,71.487,31.894,75.352,-15.178,114.7,-35.456,91.705
-7.5901,85.16,42.711,81.084,-15.8,138.99,4.9625,145.81,-7.6724,71.91,31.55,75.782,-15.038,115.07,-35.526,92.21
-7.5901,85.16,42.711,81.084,-15.8,138.99,4.9625,145.81,-7.6724,71.91,31.55,75.782,-15.038,115.07,-35.526,92.21
-7.7784,85.66,42.332,81.333,-15.842,139.32,4.7885,146.15,-7.787,72.331,31.205,76.209,-14.897,115.43,-35.596,92.715
-7.7784,85.66,42.332,81.333,-15.842,139.32,4.7885,146.15,-7.787,72.331,31.205,76.209,-14.897,115.43,-35.596,92.715
-7.9668,86.161,41.953,81.581,-15.884,139.64,4.6153,146.48,-7.902,72.751,30.858,76.636,-14.756,115.8,-35.666,93.219
-7.9668,86.161,41.953,81.581,-15.884,139.64,4.6153,146.48,-7.902,72.751,30.858,76.636,-14.756,115.8,-35.666,93.219
-8.1551,86.661,41.573,81.828,-15.925,139.97,4.4429,146.82,-8.0175,73.169,30.511,77.06,-14.615,116.16,-35.736,93.722
-8.1551,86.661,41.573,81.828,-15.925,139.97,4.4429,146.82,-8.0175,73.169,30.511,77.06,-14.615,116.16,-35.736,93.722
-8.1551,86.661,41.573,81.828,-15.925,139.97,4.4429,146.82,-8.0175,73.169,30.511,77.06,-14.615,116.16,-35.736,93.722
-8.3433,87.16,41.192,82.074,-15.966,140.29,4.2713,147.15,-8.1335,73.587,30.162,77.484,-14.474,116.52,-35.806,94.226
-8.5315,87.659,40.811,82.318,-16.006,140.62,4.1005,147.49,-8.25,74.003,29.812,77.906,-14.332,116.88,-35.877,94.729
-8.5315,87.659,40.811,82.318,-16.006,140.62,4.1005,147.49,-8.25,74.003,29.812,77.906,-14.332,116.88,-35.877,94.729
-8.7197,88.158,40.429,82.562,-16.046,140.94,3.9306,147.82,-8.367,74.417,29.461,78.326,-14.19,117.24,-35.947,95.232
-8.7197,88.158,40.429,82.562,-16.046,140.94,3.9306,147.82,-8.367,74.417,29.461,78.326,-14.19,117.24,-35.947,95.232
-8.9078,88.656,40.047,82.804,-16.085,141.26,3.7614,148.15,-8.4844,74.83,29.109,78.745,-14.048,117.59,-36.017,95.734
-8.9078,88.656,40.047,82.804,-16.085,141.26,3.7614,148.15,-8.4844,74.83,29.109,78.745,-14.048,117.59,-36.017,95.734
-9.0958,89.153,39.664,83.046,-16.124,141.58,3.5931,148.48,-8.6023,75.242,28.756,79.162,-13.906,117.95,-36.087,96.236
-9.0958,89.153,39.664,83.046,-16.124,141.58,3.5931,148.48,-8.6023,75.242,28.756,79.162,-13.906,117.95,-36.087,96.236
-9.2837,89.65,39.281,83.286,-16.162,141.9,3.4256,148.81,-8.7206,75.653,28.402,79.578,-13.763,118.3,-36.158,96.737
-9.2837,89.65,39.281,83.286,-16.162,141.9,3.4256,148.81,-8.7206,75.653,28.402,79.578,-13.763,118.3,-36.158,96.737
-9.4716,90.147,38.898,83.526,-16.2,142.22,3.259,149.14,-8.8394,76.062,28.046,79.993,-13.62,118.66,-36.228,97.239
-9.4716,90.147,38.898,83.526,-16.2,142.22,3.259,149.14,-8.8394,76.062,28.046,79.993,-13.62,118.66,-36.228,97.239
-9.6593,90.643,38.514,83.764,-16.238,142.54,3.0932,149.47,-8.9586,76.469,27.69,80.406,-13.477,119.01,-36.298,97.739
-9.6593,90.643,38.514,83.764,-16.238,142.54,3.0932,149.47,-8.9586,76.469,27.69,80.406,-13.477,119.01,-36.298,97.739
-9.847,91.139,38.129,84.002,-16.275,142.85,2.9284,149.8,-9.0783,76.875,27.333,80.817,-13.334,119.35,-36.369,98.24
-9.847,91.139,38.129,84.002,-16.275,142.85,2.9284,149.8,-9.0783,76.875,27.333,80.817,-13.334,119.35,-36.369,98.24
-9.847,91.139,38.129,84.002,-16.275,142.85,2.9284,149.8,-9.0783,76.875,27.333,80.817,-13.334,119.35,-36.369,98.24
-9.847,91.139,38.129,84.002,-16.275,142.85,2.9284,149.8,-9.0783,76.875,27.333,80.817,-13.334,119.35,-36.369,98.24
-10.035,91.634,37.744,84.238,-16.311,143.17,2.7643,150.12,-9.1983,77.28,26.974,81.226,-13.191,119.7,-36.439,98.74
-10.035,91.634,37.744,84.238,-16.311,143.17,2.7643,150.12,-9.1983,77.28,26.974,81.226,-13.191,119.7,-36.439,98.74
-10.409,92.622,36.974,84.707,-16.382,143.8,2.4389,150.77,-9.4396,78.085,26.255,82.041,-12.903,120.39,-36.58,99.738
-10.409,92.622,36.974,84.707,-16.382,143.8,2.4389,150.77,-9.4396,78.085,26.255,82.041,-12.903,120.39,-36.58,99.738
-10.596,93.115,36.588,84.941,-16.417,144.11,2.2776,151.1,-9.5609,78.486,25.894,82.446,-12.759,120.73,-36.65,100.24
-10.596,93.115,36.588,84.941,-16.417,144.11,2.2776,151.1,-9.5609,78.486,25.894,82.446,-12.759,120.73,-36.65,100.24
-10.783,93.608,36.202,85.173,-16.452,144.42,2.1171,151.42,-9.6825,78.885,25.532,82.849,-12.615,121.08,-36.721,100.73
-10.783,93.608,36.202,85.173,-16.452,144.42,2.1171,151.42,-9.6825,78.885,25.532,82.849,-12.615,121.08,-36.721,100.73
-10.97,94.1,35.816,85.404,-16.486,144.73,1.9575,151.74,-9.8046,79.282,25.169,83.251,-12.471,121.41,-36.791,101.23
-11.157,94.592,35.429,85.635,-16.52,145.04,1.7989,152.06,-9.927,79.678,24.805,83.651,-12.326,121.75,-36.861,101.73
-11.157,94.592,35.429,85.635,-16.52,145.04,1.7989,152.06,-9.927,79.678,24.805,83.651,-12.326,121.75,-36.861,101.73
-11.157,94.592,35.429,85.635,-16.52,145.04,1.7989,152.06,-9.927,79.678,24.805,83.651,-12.326,121.75,-36.861,101.73
-11.157,94.592,35.429,85.635,-16.52,145.04,1.7989,152.06,-9.927,79.678,24.805,83.651,-12.326,121.75,-36.861,101.73
-11.344,95.083,35.042,85.864,-16.553,145.35,1.6412,152.38,-10.05,80.072,24.44,84.049,-12.182,122.09,-36.932,102.23
-11.344,95.083,35.042,85.864,-16.553,145.35,1.6412,152.38,-10.05,80.072,24.44,84.049,-12.182,122.09,-36.932,102.23
-11.344,95.083,35.042,85.864,-16.553,145.35,1.6412,152.38,-10.05,80.072,24.44,84.049,-12.182,122.09,-36.932,102.23
-11.344,95.083,35.042,85.864,-16.553,145.35,1.6412,152.38,-10.05,80.072,24.44,84.049,-12.182,122.09,-36.932,102.23
-11.716,96.063,34.268,86.319,-16.618,145.96,1.3285,153.02,-10.296,80.856,23.708,84.841,-11.893,122.76,-37.072,103.22
-11.716,96.063,34.268,86.319,-16.618,145.96,1.3285,153.02,-10.296,80.856,23.708,84.841,-11.893,122.76,-37.072,103.22
-11.903,96.552,33.881,86.546,-16.65,146.27,1.1736,153.34,-10.42,81.246,23.341,85.234,-11.748,123.09,-37.142,103.71
-12.088,97.041,33.494,86.771,-16.682,146.57,1.0197,153.65,-10.544,81.634,22.973,85.626,-11.603,123.42,-37.213,104.21
-12.274,97.528,33.106,86.995,-16.713,146.88,0.86664,153.97,-10.669,82.021,22.604,86.016,-11.458,123.74,-37.283,104.7
-12.274,97.528,33.106,86.995,-16.713,146.88,0.86664,153.97,-10.669,82.021,22.604,86.016,-11.458,123.74,-37.283,104.7
-12.274,97.528,33.106,86.995,-16.713,146.88,0.86664,153.97,-10.669,82.021,22.604,86.016,-11.458,123.74,-37.283,104.7
-12.46,98.016,32.719,87.219,-16.743,147.18,0.71458,154.28,-10.793,82.406,22.234,86.404,-11.312,124.07,-37.353,105.2
-12.46,98.016,32.719,87.219,-16.743,147.18,0.71458,154.28,-10.793,82.406,22.234,86.404,-11.312,124.07,-37.353,105.2
-12.645,98.502,32.331,87.441,-16.774,147.48,0.56348,154.6,-10.919,82.79,21.864,86.791,-11.167,124.4,-37.423,105.69
-12.645,98.502,32.331,87.441,-16.774,147.48,0.56348,154.6,-10.919,82.79,21.864,86.791,-11.167,124.4,-37.423,105.69
-12.645,98.502,32.331,87.441,-16.774,147.48,0.56348,154.6,-10.919,82.79,21.864,86.791,-11.167,124.4,-37.423,105.69
-12.83,98.988,31.943,87.663,-16.803,147.78,0.41336,154.91,-11.044,83.172,21.493,87.175,-11.022,124.72,-37.493,106.18
-13.015,99.473,31.556,87.883,-16.833,148.08,0.26421,155.22,-11.17,83.552,21.122,87.558,-10.877,125.04,-37.563,106.67
-13.2,99.957,31.168,88.103,-16.862,148.38,0.11603,155.53,-11.296,83.931,20.749,87.939,-10.731,125.36,-37.633,107.16
-13.2,99.957,31.168,88.103,-16.862,148.38,0.11603,155.53,-11.296,83.931,20.749,87.939,-10.731,125.36,-37.633,107.16
-13.2,99.957,31.168,88.103,-16.862,148.38,0.11603,155.53,-11.296,83.931,20.749,87.939,-10.731,125.36,-37.633,107.16
-13.384,100.44,30.78,88.321,-16.89,148.68,-0.031153,155.84,-11.422,84.308,20.376,88.319,-10.586,125.68,-37.703,107.66
-13.384,100.44,30.78,88.321,-16.89,148.68,-0.031153,155.84,-11.422,84.308,20.376,88.319,-10.586,125.68,-37.703,107.66
-13.384,100.44,30.78,88.321,-16.89,148.68,-0.031153,155.84,-11.422,84.308,20.376,88.319,-10.586,125.68,-37.703,107.66
-13.568,100.92,30.393,88.539,-16.919,148.98,-0.17735,156.15,-11.548,84.683,20.002,88.696,-10.44,125.99,-37.773,108.15
-13.568,100.92,30.393,88.539,-16.919,148.98,-0.17735,156.15,-11.548,84.683,20.002,88.696,-10.44,125.99,-37.773,108.15
-13.568,100.92,30.393,88.539,-16.919,148.98,-0.17735,156.15,-11.548,84.683,20.002,88.696,-10.44,125.99,-37.773,108.15
-13.568,100.92,30.393,88.539,-16.919,148.98,-0.17735,156.15,-11.548,84.683,20.002,88.696,-10.44,125.99,-37.773,108.15
-13.936,101.89,29.618,88.972,-16.974,149.57,-0.46677,156.77,-11.802,85.429,19.253,89.446,-10.149,126.62,-37.913,109.12
-13.936,101.89,29.618,88.972,-16.974,149.57,-0.46677,156.77,-11.802,85.429,19.253,89.446,-10.149,126.62,-37.913,109.12
-13.936,101.89,29.618,88.972,-16.974,149.57,-0.46677,156.77,-11.802,85.429,19.253,89.446,-10.149,126.62,-37.913,109.12
-14.303,102.85,28.843,89.401,-17.028,150.15,-0.75217,157.39,-12.057,86.169,18.502,90.189,-9.8586,127.24,-38.052,110.1
-14.303,102.85,28.843,89.401,-17.028,150.15,-0.75217,157.39,-12.057,86.169,18.502,90.189,-9.8586,127.24,-38.052,110.1
-14.486,103.33,28.456,89.614,-17.054,150.45,-0.89336,157.69,-12.185,86.536,18.125,90.557,-9.7132,127.55,-38.121,110.59
-14.486,103.33,28.456,89.614,-17.054,150.45,-0.89336,157.69,-12.185,86.536,18.125,90.557,-9.7132,127.55,-38.121,110.59
-14.486,103.33,28.456,89.614,-17.054,150.45,-0.89336,157.69,-12.185,86.536,18.125,90.557,-9.7132,127.55,-38.121,110.59
-14.486,103.33,28.456,89.614,-17.054,150.45,-0.89336,157.69,-12.185,86.536,18.125,90.557,-9.7132,127.55,-38.121,110.59
-14.851,104.28,27.683,90.037,-17.106,151.03,-1.1727,158.3,-12.441,87.265,17.37,91.288,-9.4226,128.16,-38.26,111.56
-14.851,104.28,27.683,90.037,-17.106,151.03,-1.1727,158.3,-12.441,87.265,17.37,91.288,-9.4226,128.16,-38.26,111.56
-14.851,104.28,27.683,90.037,-17.106,151.03,-1.1727,158.3,-12.441,87.265,17.37,91.288,-9.4226,128.16,-38.26,111.56
-15.033,104.76,27.296,90.247,-17.131,151.32,-1.3108,158.6,-12.569,87.627,16.992,91.651,-9.2774,128.46,-38.33,112.04
-15.033,104.76,27.296,90.247,-17.131,151.32,-1.3108,158.6,-12.569,87.627,16.992,91.651,-9.2774,128.46,-38.33,112.04
-15.033,104.76,27.296,90.247,-17.131,151.32,-1.3108,158.6,-12.569,87.627,16.992,91.651,-9.2774,128.46,-38.33,112.04
-15.397,105.71,26.524,90.665,-17.181,151.89,-1.584,159.21,-12.827,88.346,16.234,92.371,-8.9871,129.06,-38.468,113.01
-15.397,105.71,26.524,90.665,-17.181,151.89,-1.584,159.21,-12.827,88.346,16.234,92.371,-8.9871,129.06,-38.468,113.01
-15.578,106.18,26.139,90.873,-17.205,152.18,-1.7191,159.51,-12.956,88.703,15.855,92.728,-8.8421,129.35,-38.537,113.49
-15.578,106.18,26.139,90.873,-17.205,152.18,-1.7191,159.51,-12.956,88.703,15.855,92.728,-8.8421,129.35,-38.537,113.49
-15.578,106.18,26.139,90.873,-17.205,152.18,-1.7191,159.51,-12.956,88.703,15.855,92.728,-8.8421,129.35,-38.537,113.49
-15.759,106.66,25.753,91.08,-17.229,152.46,-1.8531,159.81,-13.085,89.058,15.475,93.083,-8.6972,129.65,-38.606,113.98
-15.94,107.13,25.368,91.285,-17.253,152.75,-1.9861,160.11,-13.214,89.412,15.095,93.436,-8.5525,129.94,-38.675,114.46
-16.12,107.6,24.984,91.49,-17.276,153.03,-2.118,160.41,-13.343,89.763,14.714,93.788,-8.4078,130.23,-38.744,114.94
-16.12,107.6,24.984,91.49,-17.276,153.03,-2.118,160.41,-13.343,89.763,14.714,93.788,-8.4078,130.23,-38.744,114.94
-16.12,107.6,24.984,91.49,-17.276,153.03,-2.118,160.41,-13.343,89.763,14.714,93.788,-8.4078,130.23,-38.744,114.94
-16.3,108.07,24.6,91.694,-17.299,153.31,-2.249,160.71,-13.473,90.113,14.333,94.137,-8.2633,130.52,-38.813,115.42
-16.3,108.07,24.6,91.694,-17.299,153.31,-2.249,160.71,-13.473,90.113,14.333,94.137,-8.2633,130.52,-38.813,115.42
-16.48,108.54,24.216,91.898,-17.322,153.59,-2.3788,161,-13.603,90.461,13.951,94.484,-8.1189,130.81,-38.881,115.9
-16.48,108.54,24.216,91.898,-17.322,153.59,-2.3788,161,-13.603,90.461,13.951,94.484,-8.1189,130.81,-38.881,115.9
-16.66,109.01,23.832,92.1,-17.344,153.87,-2.5076,161.3,-13.733,90.808,13.57,94.829,-7.9747,131.1,-38.95,116.38
-16.66,109.01,23.832,92.1,-17.344,153.87,-2.5076,161.3,-13.733,90.808,13.57,94.829,-7.9747,131.1,-38.95,116.38
-16.839,109.48,23.449,92.301,-17.367,154.15,-2.6354,161.6,-13.863,91.152,13.188,95.173,-7.8307,131.38,-39.018,116.85
-16.839,109.48,23.449,92.301,-17.367,154.15,-2.6354,161.6,-13.863,91.152,13.188,95.173,-7.8307,131.38,-39.018,116.85
-17.018,109.94,23.067,92.502,-17.389,154.43,-2.7622,161.89,-13.993,91.495,12.805,95.514,-7.6868,131.66,-39.087,117.33
-17.018,109.94,23.067,92.502,-17.389,154.43,-2.7622,161.89,-13.993,91.495,12.805,95.514,-7.6868,131.66,-39.087,117.33
-17.018,109.94,23.067,92.502,-17.389,154.43,-2.7622,161.89,-13.993,91.495,12.805,95.514,-7.6868,131.66,-39.087,117.33
-17.196,110.41,22.685,92.702,-17.41,154.71,-2.8878,162.18,-14.123,91.836,12.423,95.853,-7.5432,131.94,-39.155,117.81
-17.196,110.41,22.685,92.702,-17.41,154.71,-2.8878,162.18,-14.123,91.836,12.423,95.853,-7.5432,131.94,-39.155,117.81
-17.374,110.87,22.303,92.901,-17.432,154.98,-3.0125,162.48,-14.254,92.175,12.04,96.19,-7.3997,132.22,-39.223,118.28
-17.552,111.34,21.922,93.099,-17.453,155.26,-3.1361,162.77,-14.384,92.512,11.657,96.525,-7.2565,132.5,-39.291,118.76
-17.73,111.8,21.541,93.296,-17.474,155.53,-3.2586,163.06,-14.515,92.848,11.273,96.859,-7.1135,132.77,-39.359,119.23
-17.73,111.8,21.541,93.296,-17.474,155.53,-3.2586,163.06,-14.515,92.848,11.273,96.859,-7.1135,132.77,-39.359,119.23
-17.73,111.8,21.541,93.296,-17.474,155.53,-3.2586,163.06,-14.515,92.848,11.273,96.859,-7.1135,132.77,-39.359,119.23
-17.907,112.26,21.161,93.492,-17.495,155.8,-3.3801,163.35,-14.645,93.182,10.89,97.19,-6.9707,133.04,-39.427,119.7
-17.907,112.26,21.161,93.492,-17.495,155.8,-3.3801,163.35,-14.645,93.182,10.89,97.19,-6.9707,133.04,-39.427,119.7
-17.907,112.26,21.161,93.492,-17.495,155.8,-3.3801,163.35,-14.645,93.182,10.89,97.19,-6.9707,133.04,-39.427,119.7
-18.084,112.72,20.782,93.687,-17.516,156.08,-3.5005,163.64,-14.776,93.513,10.506,97.519,-6.8281,133.32,-39.494,120.17
-18.084,112.72,20.782,93.687,-17.516,156.08,-3.5005,163.64,-14.776,93.513,10.506,97.519,-6.8281,133.32,-39.494,120.17
-18.084,112.72,20.782,93.687,-17.516,156.08,-3.5005,163.64,-14.776,93.513,10.506,97.519,-6.8281,133.32,-39.494,120.17
-18.436,113.64,20.025,94.076,-17.556,156.62,-3.7382,164.22,-15.038,94.171,9.7386,98.17,-6.5439,133.85,-39.629,121.12
-18.436,113.64,20.025,94.076,-17.556,156.62,-3.7382,164.22,-15.038,94.171,9.7386,98.17,-6.5439,133.85,-39.629,121.12
-18.436,113.64,20.025,94.076,-17.556,156.62,-3.7382,164.22,-15.038,94.171,9.7386,98.17,-6.5439,133.85,-39.629,121.12
-18.612,114.1,19.647,94.268,-17.576,156.89,-3.8555,164.51,-15.169,94.497,9.3545,98.493,-6.4022,134.12,-39.696,121.58
-18.612,114.1,19.647,94.268,-17.576,156.89,-3.8555,164.51,-15.169,94.497,9.3545,98.493,-6.4022,134.12,-39.696,121.58
-18.612,114.1,19.647,94.268,-17.576,156.89,-3.8555,164.51,-15.169,94.497,9.3545,98.493,-6.4022,134.12,-39.696,121.58
-18.612,114.1,19.647,94.268,-17.576,156.89,-3.8555,164.51,-15.169,94.497,9.3545,98.493,-6.4022,134.12,-39.696,121.58
-18.962,115.01,18.894,94.652,-17.616,157.42,-4.0869,165.09,-15.431,95.144,8.5861,99.132,-6.1197,134.64,-39.831,122.52
-18.962,115.01,18.894,94.652,-17.616,157.42,-4.0869,165.09,-15.431,95.144,8.5861,99.132,-6.1197,134.64,-39.831,122.52
-19.137,115.46,18.518,94.842,-17.635,157.69,-4.2011,165.37,-15.562,95.464,8.2017,99.448,-5.9789,134.9,-39.897,122.99
-19.137,115.46,18.518,94.842,-17.635,157.69,-4.2011,165.37,-15.562,95.464,8.2017,99.448,-5.9789,134.9,-39.897,122.99
-19.311,115.91,18.143,95.031,-17.655,157.95,-4.3142,165.66,-15.693,95.783,7.8174,99.762,-5.8384,135.16,-39.964,123.45
-19.311,115.91,18.143,95.031,-17.655,157.95,-4.3142,165.66,-15.693,95.783,7.8174,99.762,-5.8384,135.16,-39.964,123.45
-19.311,115.91,18.143,95.031,-17.655,157.95,-4.3142,165.66,-15.693,95.783,7.8174,99.762,-5.8384,135.16,-39.964,123.45
-19.658,116.82,17.396,95.408,-17.693,158.48,-4.5372,166.23,-15.955,96.414,7.0486,100.38,-5.5586,135.67,-40.097,124.38
-19.658,116.82,17.396,95.408,-17.693,158.48,-4.5372,166.23,-15.955,96.414,7.0486,100.38,-5.5586,135.67,-40.097,124.38
-19.831,117.27,17.023,95.595,-17.712,158.74,-4.6472,166.51,-16.086,96.727,6.6642,100.69,-5.4192,135.92,-40.164,124.84
-19.831,117.27,17.023,95.595,-17.712,158.74,-4.6472,166.51,-16.086,96.727,6.6642,100.69,-5.4192,135.92,-40.164,124.84
-19.831,117.27,17.023,95.595,-17.712,158.74,-4.6472,166.51,-16.086,96.727,6.6642,100.69,-5.4192,135.92,-40.164,124.84
-20.004,117.71,16.651,95.781,-17.731,159.01,-4.7561,166.79,-16.217,97.038,6.2799,101,-5.2802,136.17,-40.23,125.3
-20.176,118.16,16.28,95.966,-17.75,159.27,-4.864,167.07,-16.348,97.347,5.8956,101.3,-5.1416,136.42,-40.296,125.76
-20.348,118.61,15.91,96.15,-17.768,159.52,-4.9708,167.36,-16.48,97.654,5.5113,101.6,-5.0034,136.66,-40.362,126.22
-20.348,118.61,15.91,96.15,-17.768,159.52,-4.9708,167.36,-16.48,97.654,5.5113,101.6,-5.0034,136.66,-40.362,126.22
-20.519,119.05,15.54,96.334,-17.787,159.78,-5.0766,167.64,-16.611,97.958,5.1272,101.9,-4.8657,136.91,-40.428,126.68
-20.519,119.05,15.54,96.334,-17.787,159.78,-5.0766,167.64,-16.611,97.958,5.1272,101.9,-4.8657,136.91,-40.428,126.68
-20.519,119.05,15.54,96.334,-17.787,159.78,-5.0766,167.64,-16.611,97.958,5.1272,101.9,-4.8657,136.91,-40.428,126.68
-20.69,119.49,15.171,96.517,-17.805,160.04,-5.1814,167.92,-16.742,98.261,4.7431,102.2,-4.7283,137.15,-40.493,127.14
-20.69,119.49,15.171,96.517,-17.805,160.04,-5.1814,167.92,-16.742,98.261,4.7431,102.2,-4.7283,137.15,-40.493,127.14
-20.69,119.49,15.171,96.517,-17.805,160.04,-5.1814,167.92,-16.742,98.261,4.7431,102.2,-4.7283,137.15,-40.493,127.14
-20.861,119.94,14.803,96.699,-17.824,160.3,-5.2851,168.19,-16.873,98.562,4.3592,102.49,-4.5915,137.39,-40.559,127.59
-21.031,120.38,14.436,96.88,-17.842,160.55,-5.3879,168.47,-17.004,98.861,3.9754,102.78,-4.455,137.63,-40.624,128.05
-21.201,120.82,14.07,97.06,-17.861,160.8,-5.4896,168.75,-17.135,99.158,3.5917,103.07,-4.3191,137.86,-40.689,128.5
-21.201,120.82,14.07,97.06,-17.861,160.8,-5.4896,168.75,-17.135,99.158,3.5917,103.07,-4.3191,137.86,-40.689,128.5
-21.201,120.82,14.07,97.06,-17.861,160.8,-5.4896,168.75,-17.135,99.158,3.5917,103.07,-4.3191,137.86,-40.689,128.5
-21.371,121.25,13.705,97.239,-17.879,161.06,-5.5903,169.03,-17.266,99.453,3.2083,103.36,-4.1836,138.1,-40.754,128.95
-21.371,121.25,13.705,97.239,-17.879,161.06,-5.5903,169.03,-17.266,99.453,3.2083,103.36,-4.1836,138.1,-40.754,128.95
-21.371,121.25,13.705,97.239,-17.879,161.06,-5.5903,169.03,-17.266,99.453,3.2083,103.36,-4.1836,138.1,-40.754,128.95
-21.54,121.69,13.341,97.418,-17.897,161.31,-5.6899,169.3,-17.397,99.746,2.825,103.64,-4.0486,138.33,-40.819,129.4
-21.54,121.69,13.341,97.418,-17.897,161.31,-5.6899,169.3,-17.397,99.746,2.825,103.64,-4.0486,138.33,-40.819,129.4
-21.708,122.13,12.977,97.595,-17.916,161.56,-5.7886,169.58,-17.527,100.04,2.442,103.93,-3.9142,138.56,-40.884,129.85
-21.708,122.13,12.977,97.595,-17.916,161.56,-5.7886,169.58,-17.527,100.04,2.442,103.93,-3.9142,138.56,-40.884,129.85
-22.044,122.99,12.254,97.948,-17.952,162.06,-5.9829,170.13,-17.789,100.61,1.6765,104.48,-3.6468,139.01,-41.013,130.75
-22.044,122.99,12.254,97.948,-17.952,162.06,-5.9829,170.13,-17.789,100.61,1.6765,104.48,-3.6468,139.01,-41.013,130.75
-22.044,122.99,12.254,97.948,-17.952,162.06,-5.9829,170.13,-17.789,100.61,1.6765,104.48,-3.6468,139.01,-41.013,130.75
-22.211,123.43,11.893,98.123,-17.971,162.3,-6.0786,170.4,-17.919,100.9,1.2942,104.76,-3.5139,139.24,-41.077,131.2
-22.211,123.43,11.893,98.123,-17.971,162.3,-6.0786,170.4,-17.919,100.9,1.2942,104.76,-3.5139,139.24,-41.077,131.2
-22.378,123.86,11.534,98.297,-17.989,162.55,-6.1732,170.67,-18.05,101.18,0.91219,105.03,-3.3816,139.46,-41.141,131.64
-22.378,123.86,11.534,98.297,-17.989,162.55,-6.1732,170.67,-18.05,101.18,0.91219,105.03,-3.3816,139.46,-41.141,131.64
-22.545,124.28,11.175,98.47,-18.008,162.8,-6.2669,170.94,-18.18,101.46,0.53045,105.3,-3.2499,139.68,-41.205,132.09
-22.545,124.28,11.175,98.47,-18.008,162.8,-6.2669,170.94,-18.18,101.46,0.53045,105.3,-3.2499,139.68,-41.205,132.09
-22.711,124.71,10.818,98.643,-18.026,163.04,-6.3596,171.21,-18.311,101.74,0.14903,105.57,-3.1188,139.9,-41.269,132.53
-22.711,124.71,10.818,98.643,-18.026,163.04,-6.3596,171.21,-18.311,101.74,0.14903,105.57,-3.1188,139.9,-41.269,132.53
-22.711,124.71,10.818,98.643,-18.026,163.04,-6.3596,171.21,-18.311,101.74,0.14903,105.57,-3.1188,139.9,-41.269,132.53
-22.877,125.14,10.461,98.814,-18.045,163.28,-6.4514,171.48,-18.441,102.02,-0.23206,105.84,-2.9882,140.11,-41.332,132.97
-22.877,125.14,10.461,98.814,-18.045,163.28,-6.4514,171.48,-18.441,102.02,-0.23206,105.84,-2.9882,140.11,-41.332,132.97
-22.877,125.14,10.461,98.814,-18.045,163.28,-6.4514,171.48,-18.441,102.02,-0.23206,105.84,-2.9882,140.11,-41.332,132.97
-23.207,125.98,9.7517,99.155,-18.082,163.76,-6.6319,172.02,-18.701,102.56,-0.99315,106.36,-2.729,140.54,-41.459,133.85
-23.207,125.98,9.7517,99.155,-18.082,163.76,-6.6319,172.02,-18.701,102.56,-0.99315,106.36,-2.729,140.54,-41.459,133.85
-23.207,125.98,9.7517,99.155,-18.082,163.76,-6.6319,172.02,-18.701,102.56,-0.99315,106.36,-2.729,140.54,-41.459,133.85
-23.371,126.4,9.3985,99.324,-18.101,164,-6.7207,172.29,-18.831,102.83,-1.3731,106.62,-2.6004,140.75,-41.522,134.29
-23.371,126.4,9.3985,99.324,-18.101,164,-6.7207,172.29,-18.831,102.83,-1.3731,106.62,-2.6004,140.75,-41.522,134.29
-23.371,126.4,9.3985,99.324,-18.101,164,-6.7207,172.29,-18.831,102.83,-1.3731,106.62,-2.6004,140.75,-41.522,134.29
-23.698,127.24,8.6954,99.659,-18.14,164.48,-6.8956,172.82,-19.09,103.37,-2.1319,107.13,-2.345,141.16,-41.648,135.16
-23.698,127.24,8.6954,99.659,-18.14,164.48,-6.8956,172.82,-19.09,103.37,-2.1319,107.13,-2.345,141.16,-41.648,135.16
-23.862,127.66,8.3455,99.825,-18.159,164.72,-6.9816,173.08,-19.22,103.63,-2.5106,107.38,-2.2184,141.36,-41.71,135.59
-23.862,127.66,8.3455,99.825,-18.159,164.72,-6.9816,173.08,-19.22,103.63,-2.5106,107.38,-2.2184,141.36,-41.71,135.59
-24.024,128.07,7.9967,99.991,-18.178,164.95,-7.0666,173.35,-19.349,103.89,-2.8888,107.63,-2.0924,141.56,-41.772,136.03
-24.024,128.07,7.9967,99.991,-18.178,164.95,-7.0666,173.35,-19.349,103.89,-2.8888,107.63,-2.0924,141.56,-41.772,136.03
-24.024,128.07,7.9967,99.991,-18.178,164.95,-7.0666,173.35,-19.349,103.89,-2.8888,107.63,-2.0924,141.56,-41.772,136.03
-24.186,128.49,7.6491,100.16,-18.198,165.18,-7.1508,173.61,-19.478,104.15,-3.2666,107.88,-1.9672,141.76,-41.835,136.46
-24.348,128.9,7.3026,100.32,-18.218,165.42,-7.234,173.87,-19.607,104.41,-3.6439,108.12,-1.8426,141.96,-41.897,136.89
-24.51,129.31,6.9573,100.48,-18.238,165.65,-7.3163,174.13,-19.736,104.66,-4.0207,108.36,-1.7188,142.15,-41.959,137.31
-24.51,129.31,6.9573,100.48,-18.238,165.65,-7.3163,174.13,-19.736,104.66,-4.0207,108.36,-1.7188,142.15,-41.959,137.31
-24.51,129.31,6.9573,100.48,-18.238,165.65,-7.3163,174.13,-19.736,104.66,-4.0207,108.36,-1.7188,142.15,-41.959,137.31
-24.51,129.31,6.9573,100.48,-18.238,165.65,-7.3163,174.13,-19.736,104.66,-4.0207,108.36,-1.7188,142.15,-41.959,137.31
-24.67,129.72,6.6132,100.64,-18.258,165.88,-7.3977,174.39,-19.865,104.92,-4.397,108.6,-1.5958,142.34,-42.02,137.74
-24.67,129.72,6.6132,100.64,-18.258,165.88,-7.3977,174.39,-19.865,104.92,-4.397,108.6,-1.5958,142.34,-42.02,137.74
-24.831,130.12,6.2702,100.8,-18.279,166.11,-7.4783,174.65,-19.993,105.17,-4.7727,108.84,-1.4735,142.54,-42.082,138.17
-24.831,130.12,6.2702,100.8,-18.279,166.11,-7.4783,174.65,-19.993,105.17,-4.7727,108.84,-1.4735,142.54,-42.082,138.17
-25.151,130.93,5.588,101.12,-18.321,166.56,-7.6367,175.17,-20.25,105.66,-5.5225,109.3,-1.2312,142.91,-42.204,139.01
-25.151,130.93,5.588,101.12,-18.321,166.56,-7.6367,175.17,-20.25,105.66,-5.5225,109.3,-1.2312,142.91,-42.204,139.01
-25.151,130.93,5.588,101.12,-18.321,166.56,-7.6367,175.17,-20.25,105.66,-5.5225,109.3,-1.2312,142.91,-42.204,139.01
-25.151,130.93,5.588,101.12,-18.321,166.56,-7.6367,175.17,-20.25,105.66,-5.5225,109.3,-1.2312,142.91,-42.204,139.01
-25.31,131.33,5.2486,101.28,-18.342,166.79,-7.7146,175.43,-20.378,105.91,-5.8966,109.53,-1.1113,143.09,-42.265,139.43
-25.31,131.33,5.2486,101.28,-18.342,166.79,-7.7146,175.43,-20.378,105.91,-5.8966,109.53,-1.1113,143.09,-42.265,139.43
-25.627,132.13,4.5737,101.59,-18.386,167.23,-7.8678,175.94,-20.633,106.39,-6.6428,109.98,-0.87388,143.45,-42.387,140.27
-25.627,132.13,4.5737,101.59,-18.386,167.23,-7.8678,175.94,-20.633,106.39,-6.6428,109.98,-0.87388,143.45,-42.387,140.27
-25.627,132.13,4.5737,101.59,-18.386,167.23,-7.8678,175.94,-20.633,106.39,-6.6428,109.98,-0.87388,143.45,-42.387,140.27
-25.785,132.53,4.2382,101.75,-18.408,167.45,-7.9431,176.19,-20.761,106.63,-7.015,110.2,-0.75643,143.63,-42.447,140.68
-25.785,132.53,4.2382,101.75,-18.408,167.45,-7.9431,176.19,-20.761,106.63,-7.015,110.2,-0.75643,143.63,-42.447,140.68
-25.942,132.92,3.9038,101.9,-18.43,167.67,-8.0176,176.45,-20.888,106.86,-7.3865,110.42,-0.63983,143.8,-42.507,141.1
-26.099,133.31,3.5708,102.06,-18.453,167.89,-8.0913,176.7,-21.015,107.09,-7.7573,110.63,-0.5241,143.98,-42.567,141.51
-26.099,133.31,3.5708,102.06,-18.453,167.89,-8.0913,176.7,-21.015,107.09,-7.7573,110.63,-0.5241,143.98,-42.567,141.51
-26.099,133.31,3.5708,102.06,-18.453,167.89,-8.0913,176.7,-21.015,107.09,-7.7573,110.63,-0.5241,143.98,-42.567,141.51
-26.255,133.71,3.239,102.21,-18.476,168.11,-8.1642,176.95,-21.142,107.33,-8.1275,110.85,-0.40925,144.15,-42.627,141.92
-26.255,133.71,3.239,102.21,-18.476,168.11,-8.1642,176.95,-21.142,107.33,-8.1275,110.85,-0.40925,144.15,-42.627,141.92
-26.255,133.71,3.239,102.21,-18.476,168.11,-8.1642,176.95,-21.142,107.33,-8.1275,110.85,-0.40925,144.15,-42.627,141.92
-26.255,133.71,3.239,102.21,-18.476,168.11,-8.1642,176.95,-21.142,107.33,-8.1275,110.85,-0.40925,144.15,-42.627,141.92
-26.567,134.48,2.5794,102.51,-18.524,168.54,-8.3076,177.45,-21.395,107.78,-8.8658,111.26,-0.18225,144.48,-42.746,142.74
-26.567,134.48,2.5794,102.51,-18.524,168.54,-8.3076,177.45,-21.395,107.78,-8.8658,111.26,-0.18225,144.48,-42.746,142.74
-26.722,134.87,2.2516,102.66,-18.548,168.75,-8.3781,177.7,-21.521,108,-9.2338,111.47,-0.07013,144.64,-42.805,143.15
-26.722,134.87,2.2516,102.66,-18.548,168.75,-8.3781,177.7,-21.521,108,-9.2338,111.47,-0.07013,144.64,-42.805,143.15
-26.877,135.25,1.925,102.81,-18.573,168.97,-8.4478,177.94,-21.647,108.23,-9.6011,111.67,0.04106,144.81,-42.865,143.55
-27.032,135.63,1.5998,102.95,-18.598,169.18,-8.5168,178.19,-21.773,108.45,-9.9676,111.87,0.1513,144.97,-42.923,143.95
-27.032,135.63,1.5998,102.95,-18.598,169.18,-8.5168,178.19,-21.773,108.45,-9.9676,111.87,0.1513,144.97,-42.923,143.95
-27.032,135.63,1.5998,102.95,-18.598,169.18,-8.5168,178.19,-21.773,108.45,-9.9676,111.87,0.1513,144.97,-42.923,143.95
-27.186,136.01,1.2759,103.1,-18.623,169.39,-8.585,178.44,-21.899,108.66,-10.333,112.07,0.26058,145.12,-42.982,144.35
-27.186,136.01,1.2759,103.1,-18.623,169.39,-8.585,178.44,-21.899,108.66,-10.333,112.07,0.26058,145.12,-42.982,144.35
-27.339,136.39,0.95341,103.24,-18.649,169.59,-8.6525,178.68,-22.024,108.88,-10.698,112.26,0.36889,145.28,-43.041,144.75
-27.339,136.39,0.95341,103.24,-18.649,169.59,-8.6525,178.68,-22.024,108.88,-10.698,112.26,0.36889,145.28,-43.041,144.75
-27.492,136.76,0.63222,103.39,-18.676,169.8,-8.7192,178.92,-22.149,109.09,-11.063,112.45,0.4762,145.43,-43.099,145.15
-27.492,136.76,0.63222,103.39,-18.676,169.8,-8.7192,178.92,-22.149,109.09,-11.063,112.45,0.4762,145.43,-43.099,145.15
-27.645,137.14,0.3124,103.53,-18.703,170.01,-8.7853,179.16,-22.274,109.3,-11.426,112.64,0.58252,145.58,-43.157,145.54
-27.645,137.14,0.3124,103.53,-18.703,170.01,-8.7853,179.16,-22.274,109.3,-11.426,112.64,0.58252,145.58,-43.157,145.54
-27.645,137.14,0.3124,103.53,-18.703,170.01,-8.7853,179.16,-22.274,109.3,-11.426,112.64,0.58252,145.58,-43.157,145.54
-27.797,137.51,-0.0060625,103.67,-18.73,170.21,-8.8506,179.41,-22.398,109.51,-11.788,112.83,0.68782,145.73,-43.215,145.94
-27.797,137.51,-0.0060625,103.67,-18.73,170.21,-8.8506,179.41,-22.398,109.51,-11.788,112.83,0.68782,145.73,-43.215,145.94
-27.949,137.88,-0.32315,103.81,-18.758,170.41,-8.9152,179.65,-22.522,109.71,-12.15,113.01,0.79209,145.87,-43.273,146.33
-28.1,138.25,-0.63887,103.95,-18.787,170.61,-8.9792,179.88,-22.647,109.92,-12.511,113.19,0.89532,146.01,-43.331,146.72
-28.1,138.25,-0.63887,103.95,-18.787,170.61,-8.9792,179.88,-22.647,109.92,-12.511,113.19,0.89532,146.01,-43.331,146.72
-28.251,138.61,-0.95319,104.09,-18.816,170.81,-9.0425,180.12,-22.77,110.12,-12.871,113.37,0.99749,146.15,-43.388,147.11
-28.251,138.61,-0.95319,104.09,-18.816,170.81,-9.0425,180.12,-22.77,110.12,-12.871,113.37,0.99749,146.15,-43.388,147.11
-28.251,138.61,-0.95319,104.09,-18.816,170.81,-9.0425,180.12,-22.77,110.12,-12.871,113.37,0.99749,146.15,-43.388,147.11
-28.402,138.97,-1.2661,104.23,-18.845,171.01,-9.1051,180.36,-22.894,110.32,-13.23,113.54,1.0986,146.29,-43.445,147.49
-28.402,138.97,-1.2661,104.23,-18.845,171.01,-9.1051,180.36,-22.894,110.32,-13.23,113.54,1.0986,146.29,-43.445,147.49
-28.701,139.69,-1.8878,104.5,-18.906,171.4,-9.2285,180.83,-23.14,110.71,-13.945,113.88,1.2976,146.56,-43.559,148.26
-28.701,139.69,-1.8878,104.5,-18.906,171.4,-9.2285,180.83,-23.14,110.71,-13.945,113.88,1.2976,146.56,-43.559,148.26
-28.701,139.69,-1.8878,104.5,-18.906,171.4,-9.2285,180.83,-23.14,110.71,-13.945,113.88,1.2976,146.56,-43.559,148.26
-28.851,140.05,-2.1965,104.63,-18.937,171.6,-9.2893,181.06,-23.263,110.9,-14.302,114.05,1.3954,146.69,-43.616,148.64
-28.851,140.05,-2.1965,104.63,-18.937,171.6,-9.2893,181.06,-23.263,110.9,-14.302,114.05,1.3954,146.69,-43.616,148.64
-28.851,140.05,-2.1965,104.63,-18.937,171.6,-9.2893,181.06,-23.263,110.9,-14.302,114.05,1.3954,146.69,-43.616,148.64
-28.999,140.41,-2.5039,104.76,-18.969,171.79,-9.3494,181.29,-23.385,111.09,-14.657,114.21,1.4921,146.82,-43.672,149.02
-29.148,140.76,-2.8098,104.9,-19.001,171.98,-9.409,181.52,-23.508,111.27,-15.011,114.37,1.5876,146.95,-43.728,149.39
-29.296,141.11,-3.1143,105.03,-19.034,172.17,-9.468,181.75,-23.63,111.46,-15.365,114.53,1.6821,147.07,-43.784,149.77
-29.296,141.11,-3.1143,105.03,-19.034,172.17,-9.468,181.75,-23.63,111.46,-15.365,114.53,1.6821,147.07,-43.784,149.77
-29.443,141.46,-3.4173,105.16,-19.068,172.35,-9.5264,181.98,-23.751,111.64,-15.717,114.68,1.7753,147.19,-43.84,150.14
-29.443,141.46,-3.4173,105.16,-19.068,172.35,-9.5264,181.98,-23.751,111.64,-15.717,114.68,1.7753,147.19,-43.84,150.14
-29.443,141.46,-3.4173,105.16,-19.068,172.35,-9.5264,181.98,-23.751,111.64,-15.717,114.68,1.7753,147.19,-43.84,150.14
-29.591,141.8,-3.7189,105.28,-19.102,172.54,-9.5842,182.21,-23.873,111.82,-16.069,114.83,1.8674,147.31,-43.896,150.51
-29.591,141.8,-3.7189,105.28,-19.102,172.54,-9.5842,182.21,-23.873,111.82,-16.069,114.83,1.8674,147.31,-43.896,150.51
-29.737,142.14,-4.0191,105.41,-19.138,172.72,-9.6416,182.43,-23.994,112,-16.419,114.98,1.9583,147.43,-43.951,150.88
-29.884,142.49,-4.3179,105.53,-19.173,172.91,-9.6984,182.66,-24.115,112.17,-16.769,115.13,2.048,147.54,-44.006,151.24
-29.884,142.49,-4.3179,105.53,-19.173,172.91,-9.6984,182.66,-24.115,112.17,-16.769,115.13,2.048,147.54,-44.006,151.24
-29.884,142.49,-4.3179,105.53,-19.173,172.91,-9.6984,182.66,-24.115,112.17,-16.769,115.13,2.048,147.54,-44.006,151.24
-30.03,142.82,-4.6152,105.66,-19.21,173.09,-9.7547,182.88,-24.235,112.34,-17.117,115.27,2.1365,147.66,-44.061,151.61
-30.03,142.82,-4.6152,105.66,-19.21,173.09,-9.7547,182.88,-24.235,112.34,-17.117,115.27,2.1365,147.66,-44.061,151.61
-30.175,143.16,-4.9111,105.78,-19.247,173.27,-9.8105,183.1,-24.355,112.51,-17.465,115.41,2.2238,147.77,-44.116,151.97
-30.175,143.16,-4.9111,105.78,-19.247,173.27,-9.8105,183.1,-24.355,112.51,-17.465,115.41,2.2238,147.77,-44.116,151.97
-30.32,143.49,-5.2055,105.9,-19.285,173.44,-9.8659,183.32,-24.475,112.68,-17.811,115.55,2.3098,147.87,-44.171,152.33
-30.32,143.49,-5.2055,105.9,-19.285,173.44,-9.8659,183.32,-24.475,112.68,-17.811,115.55,2.3098,147.87,-44.171,152.33
-30.465,143.83,-5.4985,106.02,-19.323,173.62,-9.9207,183.54,-24.595,112.84,-18.156,115.68,2.3946,147.98,-44.225,152.69
-30.465,143.83,-5.4985,106.02,-19.323,173.62,-9.9207,183.54,-24.595,112.84,-18.156,115.68,2.3946,147.98,-44.225,152.69
-30.609,144.15,-5.79,106.14,-19.363,173.79,-9.9752,183.75,-24.714,113.01,-18.5,115.81,2.4781,148.08,-44.279,153.04
-30.609,144.15,-5.79,106.14,-19.363,173.79,-9.9752,183.75,-24.714,113.01,-18.5,115.81,2.4781,148.08,-44.279,153.04
-30.753,144.48,-6.08,106.26,-19.403,173.97,-10.029,183.97,-24.833,113.17,-18.843,115.94,2.5603,148.18,-44.333,153.39
-30.753,144.48,-6.08,106.26,-19.403,173.97,-10.029,183.97,-24.833,113.17,-18.843,115.94,2.5603,148.18,-44.333,153.39
-30.897,144.8,-6.3686,106.37,-19.444,174.14,-10.083,184.18,-24.952,113.32,-19.185,116.07,2.6413,148.28,-44.387,153.74
-30.897,144.8,-6.3686,106.37,-19.444,174.14,-10.083,184.18,-24.952,113.32,-19.185,116.07,2.6413,148.28,-44.387,153.74
-30.897,144.8,-6.3686,106.37,-19.444,174.14,-10.083,184.18,-24.952,113.32,-19.185,116.07,2.6413,148.28,-44.387,153.74
-31.04,145.13,-6.6558,106.49,-19.486,174.31,-10.136,184.4,-25.071,113.48,-19.526,116.19,2.7209,148.37,-44.441,154.09
-31.04,145.13,-6.6558,106.49,-19.486,174.31,-10.136,184.4,-25.071,113.48,-19.526,116.19,2.7209,148.37,-44.441,154.09
-31.183,145.45,-6.9415,106.6,-19.528,174.47,-10.189,184.61,-25.189,113.63,-19.866,116.31,2.7993,148.46,-44.494,154.44
-31.325,145.76,-7.2257,106.71,-19.572,174.64,-10.241,184.82,-25.307,113.78,-20.205,116.42,2.8763,148.55,-44.547,154.78
-31.325,145.76,-7.2257,106.71,-19.572,174.64,-10.241,184.82,-25.307,113.78,-20.205,116.42,2.8763,148.55,-44.547,154.78
-31.467,146.08,-7.5085,106.82,-19.616,174.8,-10.293,185.03,-25.424,113.93,-20.542,116.53,2.9519,148.64,-44.601,155.12
-31.467,146.08,-7.5085,106.82,-19.616,174.8,-10.293,185.03,-25.424,113.93,-20.542,116.53,2.9519,148.64,-44.601,155.12
-31.609,146.39,-7.7898,106.93,-19.661,174.96,-10.345,185.23,-25.542,114.07,-20.878,116.64,3.0263,148.72,-44.653,155.46
-31.609,146.39,-7.7898,106.93,-19.661,174.96,-10.345,185.23,-25.542,114.07,-20.878,116.64,3.0263,148.72,-44.653,155.46
-31.75,146.7,-8.0696,107.04,-19.707,175.12,-10.396,185.44,-25.659,114.21,-21.214,116.75,3.0992,148.81,-44.706,155.8
-31.75,146.7,-8.0696,107.04,-19.707,175.12,-10.396,185.44,-25.659,114.21,-21.214,116.75,3.0992,148.81,-44.706,155.8
-31.75,146.7,-8.0696,107.04,-19.707,175.12,-10.396,185.44,-25.659,114.21,-21.214,116.75,3.0992,148.81,-44.706,155.8
-31.891,147,-8.348,107.15,-19.754,175.28,-10.447,185.64,-25.775,114.35,-21.548,116.85,3.1708,148.88,-44.758,156.13
-31.891,147,-8.348,107.15,-19.754,175.28,-10.447,185.64,-25.775,114.35,-21.548,116.85,3.1708,148.88,-44.758,156.13
-32.171,147.61,-8.9003,107.35,-19.851,175.59,-10.549,186.04,-26.008,114.62,-22.212,117.05,3.3098,149.04,-44.863,156.79
-32.171,147.61,-8.9003,107.35,-19.851,175.59,-10.549,186.04,-26.008,114.62,-22.212,117.05,3.3098,149.04,-44.863,156.79
-32.171,147.61,-8.9003,107.35,-19.851,175.59,-10.549,186.04,-26.008,114.62,-22.212,117.05,3.3098,149.04,-44.863,156.79
-32.311,147.9,-9.1743,107.45,-19.9,175.75,-10.599,186.24,-26.123,114.76,-22.542,117.15,3.3772,149.11,-44.914,157.12
-32.311,147.9,-9.1743,107.45,-19.9,175.75,-10.599,186.24,-26.123,114.76,-22.542,117.15,3.3772,149.11,-44.914,157.12
-32.311,147.9,-9.1743,107.45,-19.9,175.75,-10.599,186.24,-26.123,114.76,-22.542,117.15,3.3772,149.11,-44.914,157.12
-32.451,148.2,-9.4468,107.55,-19.951,175.9,-10.649,186.44,-26.239,114.89,-22.871,117.24,3.4432,149.18,-44.966,157.44
-32.451,148.2,-9.4468,107.55,-19.951,175.9,-10.649,186.44,-26.239,114.89,-22.871,117.24,3.4432,149.18,-44.966,157.44
-32.59,148.49,-9.7178,107.65,-20.003,176.05,-10.699,186.63,-26.354,115.01,-23.199,117.33,3.5077,149.24,-45.017,157.76
-32.728,148.78,-9.9874,107.75,-20.055,176.19,-10.749,186.83,-26.469,115.14,-23.526,117.41,3.5708,149.31,-45.068,158.08
-32.866,149.07,-10.256,107.84,-20.109,176.34,-10.798,187.02,-26.583,115.26,-23.852,117.49,3.6324,149.37,-45.119,158.4
-32.866,149.07,-10.256,107.84,-20.109,176.34,-10.798,187.02,-26.583,115.26,-23.852,117.49,3.6324,149.37,-45.119,158.4
-33.004,149.35,-10.522,107.94,-20.163,176.48,-10.847,187.21,-26.697,115.38,-24.176,117.57,3.6925,149.43,-45.17,158.71
-33.004,149.35,-10.522,107.94,-20.163,176.48,-10.847,187.21,-26.697,115.38,-24.176,117.57,3.6925,149.43,-45.17,158.71
-33.004,149.35,-10.522,107.94,-20.163,176.48,-10.847,187.21,-26.697,115.38,-24.176,117.57,3.6925,149.43,-45.17,158.71
-33.142,149.64,-10.787,108.03,-20.219,176.62,-10.896,187.4,-26.811,115.49,-24.499,117.65,3.7512,149.48,-45.221,159.02
-33.142,149.64,-10.787,108.03,-20.219,176.62,-10.896,187.4,-26.811,115.49,-24.499,117.65,3.7512,149.48,-45.221,159.02
-33.279,149.92,-11.051,108.12,-20.275,176.76,-10.945,187.58,-26.925,115.61,-24.82,117.72,3.8084,149.54,-45.271,159.33
-33.416,150.19,-11.313,108.21,-20.333,176.9,-10.994,187.77,-27.038,115.72,-25.141,117.79,3.8641,149.59,-45.321,159.64
-33.416,150.19,-11.313,108.21,-20.333,176.9,-10.994,187.77,-27.038,115.72,-25.141,117.79,3.8641,149.59,-45.321,159.64
-33.552,150.46,-11.574,108.29,-20.392,177.03,-11.043,187.95,-27.151,115.83,-25.46,117.85,3.9182,149.64,-45.371,159.94
-33.552,150.46,-11.574,108.29,-20.392,177.03,-11.043,187.95,-27.151,115.83,-25.46,117.85,3.9182,149.64,-45.371,159.94
-33.689,150.73,-11.834,108.38,-20.452,177.17,-11.091,188.13,-27.264,115.93,-25.777,117.92,3.9709,149.68,-45.421,160.24
-33.689,150.73,-11.834,108.38,-20.452,177.17,-11.091,188.13,-27.264,115.93,-25.777,117.92,3.9709,149.68,-45.421,160.24
-33.689,150.73,-11.834,108.38,-20.452,177.17,-11.091,188.13,-27.264,115.93,-25.777,117.92,3.9709,149.68,-45.421,160.24
-33.689,150.73,-11.834,108.38,-20.452,177.17,-11.091,188.13,-27.264,115.93,-25.777,117.92,3.9709,149.68,-45.421,160.24
-33.824,151,-12.092,108.46,-20.513,177.3,-11.14,188.31,-27.376,116.04,-26.094,117.98,4.022,149.73,-45.47,160.54
-33.824,151,-12.092,108.46,-20.513,177.3,-11.14,188.31,-27.376,116.04,-26.094,117.98,4.022,149.73,-45.47,160.54
-33.96,151.27,-12.348,108.54,-20.575,177.43,-11.189,188.49,-27.488,116.14,-26.409,118.03,4.0715,149.77,-45.52,160.84
-33.96,151.27,-12.348,108.54,-20.575,177.43,-11.189,188.49,-27.488,116.14,-26.409,118.03,4.0715,149.77,-45.52,160.84
-34.095,151.53,-12.603,108.62,-20.638,177.55,-11.237,188.66,-27.6,116.24,-26.723,118.08,4.1195,149.8,-45.569,161.13
-34.095,151.53,-12.603,108.62,-20.638,177.55,-11.237,188.66,-27.6,116.24,-26.723,118.08,4.1195,149.8,-45.569,161.13
-34.364,152.04,-13.109,108.78,-20.767,177.8,-11.334,189.01,-27.822,116.43,-27.347,118.18,4.2107,149.87,-45.666,161.71
-34.364,152.04,-13.109,108.78,-20.767,177.8,-11.334,189.01,-27.822,116.43,-27.347,118.18,4.2107,149.87,-45.666,161.71
-34.364,152.04,-13.109,108.78,-20.767,177.8,-11.334,189.01,-27.822,116.43,-27.347,118.18,4.2107,149.87,-45.666,161.71
-34.499,152.29,-13.36,108.85,-20.834,177.92,-11.382,189.18,-27.933,116.52,-27.656,118.22,4.254,149.9,-45.715,161.99
-34.499,152.29,-13.36,108.85,-20.834,177.92,-11.382,189.18,-27.933,116.52,-27.656,118.22,4.254,149.9,-45.715,161.99
-34.632,152.54,-13.609,108.93,-20.901,178.04,-11.431,189.34,-28.044,116.6,-27.965,118.26,4.2956,149.93,-45.763,162.27
-34.632,152.54,-13.609,108.93,-20.901,178.04,-11.431,189.34,-28.044,116.6,-27.965,118.26,4.2956,149.93,-45.763,162.27
-34.766,152.79,-13.857,109,-20.97,178.15,-11.48,189.51,-28.154,116.69,-28.272,118.3,4.3356,149.95,-45.811,162.55
-34.766,152.79,-13.857,109,-20.97,178.15,-11.48,189.51,-28.154,116.69,-28.272,118.3,4.3356,149.95,-45.811,162.55
-34.899,153.03,-14.103,109.07,-21.04,178.27,-11.528,189.67,-28.264,116.77,-28.578,118.33,4.374,149.97,-45.859,162.83
-35.032,153.27,-14.348,109.13,-21.112,178.38,-11.577,189.83,-28.373,116.85,-28.882,118.36,4.4108,149.99,-45.906,163.1
-35.032,153.27,-14.348,109.13,-21.112,178.38,-11.577,189.83,-28.373,116.85,-28.882,118.36,4.4108,149.99,-45.906,163.1
-35.032,153.27,-14.348,109.13,-21.112,178.38,-11.577,189.83,-28.373,116.85,-28.882,118.36,4.4108,149.99,-45.906,163.1
-35.164,153.51,-14.592,109.2,-21.184,178.49,-11.626,189.99,-28.482,116.93,-29.185,118.39,4.4459,150.01,-45.954,163.37
-35.164,153.51,-14.592,109.2,-21.184,178.49,-11.626,189.99,-28.482,116.93,-29.185,118.39,4.4459,150.01,-45.954,163.37
-35.164,153.51,-14.592,109.2,-21.184,178.49,-11.626,189.99,-28.482,116.93,-29.185,118.39,4.4459,150.01,-45.954,163.37
-35.297,153.74,-14.834,109.26,-21.258,178.59,-11.675,190.15,-28.591,117,-29.487,118.41,4.4794,150.02,-46.001,163.64
-35.429,153.97,-15.075,109.32,-21.333,178.7,-11.724,190.3,-28.7,117.07,-29.787,118.43,4.5112,150.03,-46.048,163.9
-35.56,154.2,-15.315,109.38,-21.409,178.8,-11.773,190.45,-28.808,117.14,-30.086,118.45,4.5413,150.04,-46.095,164.16
-35.56,154.2,-15.315,109.38,-21.409,178.8,-11.773,190.45,-28.808,117.14,-30.086,118.45,4.5413,150.04,-46.095,164.16
-35.691,154.42,-15.553,109.44,-21.487,178.9,-11.823,190.6,-28.916,117.21,-30.383,118.46,4.5698,150.04,-46.141,164.42
-35.691,154.42,-15.553,109.44,-21.487,178.9,-11.823,190.6,-28.916,117.21,-30.383,118.46,4.5698,150.04,-46.141,164.42
-35.691,154.42,-15.553,109.44,-21.487,178.9,-11.823,190.6,-28.916,117.21,-30.383,118.46,4.5698,150.04,-46.141,164.42
-35.822,154.64,-15.789,109.49,-21.565,179,-11.872,190.75,-29.024,117.27,-30.679,118.47,4.5965,150.05,-46.187,164.67
-35.822,154.64,-15.789,109.49,-21.565,179,-11.872,190.75,-29.024,117.27,-30.679,118.47,4.5965,150.05,-46.187,164.67
-35.953,154.86,-16.025,109.55,-21.645,179.1,-11.922,190.9,-29.131,117.33,-30.974,118.48,4.6216,150.04,-46.233,164.92
-36.084,155.08,-16.259,109.6,-21.727,179.19,-11.973,191.04,-29.239,117.39,-31.267,118.48,4.6449,150.04,-46.279,165.17
-36.084,155.08,-16.259,109.6,-21.727,179.19,-11.973,191.04,-29.239,117.39,-31.267,118.48,4.6449,150.04,-46.279,165.17
-36.084,155.08,-16.259,109.6,-21.727,179.19,-11.973,191.04,-29.239,117.39,-31.267,118.48,4.6449,150.04,-46.279,165.17
-36.214,155.29,-16.491,109.65,-21.81,179.28,-12.023,191.18,-29.345,117.44,-31.558,118.48,4.6665,150.03,-46.325,165.42
-36.214,155.29,-16.491,109.65,-21.81,179.28,-12.023,191.18,-29.345,117.44,-31.558,118.48,4.6665,150.03,-46.325,165.42
-36.344,155.5,-16.722,109.69,-21.894,179.37,-12.074,191.32,-29.452,117.5,-31.849,118.48,4.6864,150.03,-46.37,165.66
-36.473,155.7,-16.952,109.74,-21.979,179.45,-12.125,191.46,-29.558,117.55,-32.138,118.47,4.7045,150.01,-46.416,165.9
-36.473,155.7,-16.952,109.74,-21.979,179.45,-12.125,191.46,-29.558,117.55,-32.138,118.47,4.7045,150.01,-46.416,165.9
-36.473,155.7,-16.952,109.74,-21.979,179.45,-12.125,191.46,-29.558,117.55,-32.138,118.47,4.7045,150.01,-46.416,165.9
-36.602,155.9,-17.181,109.78,-22.066,179.54,-12.176,191.59,-29.664,117.59,-32.425,118.46,4.7209,150,-46.46,166.14
-36.602,155.9,-17.181,109.78,-22.066,179.54,-12.176,191.59,-29.664,117.59,-32.425,118.46,4.7209,150,-46.46,166.14
-36.731,156.1,-17.408,109.82,-22.154,179.62,-12.227,191.72,-29.77,117.64,-32.711,118.45,4.7355,149.98,-46.505,166.37
-36.731,156.1,-17.408,109.82,-22.154,179.62,-12.227,191.72,-29.77,117.64,-32.711,118.45,4.7355,149.98,-46.505,166.37
-36.86,156.29,-17.634,109.86,-22.243,179.7,-12.279,191.85,-29.875,117.68,-32.995,118.43,4.7484,149.96,-46.55,166.6
-36.86,156.29,-17.634,109.86,-22.243,179.7,-12.279,191.85,-29.875,117.68,-32.995,118.43,4.7484,149.96,-46.55,166.6
-36.86,156.29,-17.634,109.86,-22.243,179.7,-12.279,191.85,-29.875,117.68,-32.995,118.43,4.7484,149.96,-46.55,166.6
-36.86,156.29,-17.634,109.86,-22.243,179.7,-12.279,191.85,-29.875,117.68,-32.995,118.43,4.7484,149.96,-46.55,166.6
-37.116,156.67,-18.081,109.93,-22.427,179.85,-12.384,192.1,-30.085,117.75,-33.56,118.39,4.7688,149.91,-46.638,167.05
-37.116,156.67,-18.081,109.93,-22.427,179.85,-12.384,192.1,-30.085,117.75,-33.56,118.39,4.7688,149.91,-46.638,167.05
-37.244,156.86,-18.303,109.96,-22.52,179.92,-12.438,192.22,-30.19,117.79,-33.84,118.36,4.7763,149.88,-46.682,167.27
-37.244,156.86,-18.303,109.96,-22.52,179.92,-12.438,192.22,-30.19,117.79,-33.84,118.36,4.7763,149.88,-46.682,167.27
-37.372,157.04,-18.524,109.99,-22.615,179.98,-12.491,192.34,-30.294,117.82,-34.119,118.33,4.782,149.85,-46.725,167.49
-37.372,157.04,-18.524,109.99,-22.615,179.98,-12.491,192.34,-30.294,117.82,-34.119,118.33,4.782,149.85,-46.725,167.49
-37.499,157.21,-18.743,110.02,-22.712,180.05,-12.545,192.46,-30.398,117.84,-34.396,118.3,4.7859,149.82,-46.769,167.7
-37.499,157.21,-18.743,110.02,-22.712,180.05,-12.545,192.46,-30.398,117.84,-34.396,118.3,4.7859,149.82,-46.769,167.7
-37.626,157.39,-18.961,110.04,-22.81,180.11,-12.6,192.57,-30.502,117.87,-34.672,118.26,4.788,149.78,-46.812,167.91
-37.626,157.39,-18.961,110.04,-22.81,180.11,-12.6,192.57,-30.502,117.87,-34.672,118.26,4.788,149.78,-46.812,167.91
-37.626,157.39,-18.961,110.04,-22.81,180.11,-12.6,192.57,-30.502,117.87,-34.672,118.26,4.788,149.78,-46.812,167.91
-37.753,157.56,-19.178,110.07,-22.909,180.17,-12.655,192.68,-30.605,117.89,-34.946,118.22,4.7882,149.74,-46.855,168.12
-37.753,157.56,-19.178,110.07,-22.909,180.17,-12.655,192.68,-30.605,117.89,-34.946,118.22,4.7882,149.74,-46.855,168.12
-37.753,157.56,-19.178,110.07,-22.909,180.17,-12.655,192.68,-30.605,117.89,-34.946,118.22,4.7882,149.74,-46.855,168.12
-38.006,157.89,-19.607,110.1,-23.113,180.29,-12.766,192.9,-30.811,117.93,-35.49,118.12,4.7832,149.65,-46.94,168.52
-38.006,157.89,-19.607,110.1,-23.113,180.29,-12.766,192.9,-30.811,117.93,-35.49,118.12,4.7832,149.65,-46.94,168.52
-38.006,157.89,-19.607,110.1,-23.113,180.29,-12.766,192.9,-30.811,117.93,-35.49,118.12,4.7832,149.65,-46.94,168.52
-38.132,158.05,-19.82,110.12,-23.217,180.34,-12.822,193,-30.914,117.94,-35.76,118.07,4.778,149.6,-46.982,168.72
-38.132,158.05,-19.82,110.12,-23.217,180.34,-12.822,193,-30.914,117.94,-35.76,118.07,4.778,149.6,-46.982,168.72
-38.257,158.2,-20.032,110.13,-23.322,180.39,-12.879,193.1,-31.016,117.95,-36.029,118.02,4.7709,149.55,-47.024,168.91
-38.383,158.35,-20.242,110.14,-23.429,180.44,-12.937,193.2,-31.118,117.96,-36.295,117.96,4.7619,149.49,-47.065,169.1
-38.383,158.35,-20.242,110.14,-23.429,180.44,-12.937,193.2,-31.118,117.96,-36.295,117.96,4.7619,149.49,-47.065,169.1
-38.383,158.35,-20.242,110.14,-23.429,180.44,-12.937,193.2,-31.118,117.96,-36.295,117.96,4.7619,149.49,-47.065,169.1
-38.508,158.5,-20.451,110.15,-23.537,180.48,-12.995,193.29,-31.22,117.96,-36.561,117.9,4.751,149.44,-47.107,169.29
-38.633,158.65,-20.659,110.16,-23.647,180.53,-13.054,193.38,-31.321,117.97,-36.825,117.83,4.7383,149.38,-47.148,169.47
-38.758,158.79,-20.866,110.16,-23.759,180.57,-13.113,193.47,-31.422,117.97,-37.087,117.76,4.7237,149.31,-47.189,169.65
-38.758,158.79,-20.866,110.16,-23.759,180.57,-13.113,193.47,-31.422,117.97,-37.087,117.76,4.7237,149.31,-47.189,169.65
-38.758,158.79,-20.866,110.16,-23.759,180.57,-13.113,193.47,-31.422,117.97,-37.087,117.76,4.7237,149.31,-47.189,169.65
-38.882,158.93,-21.071,110.16,-23.872,180.6,-13.173,193.56,-31.524,117.96,-37.348,117.69,4.7072,149.25,-47.229,169.83
-38.882,158.93,-21.071,110.16,-23.872,180.6,-13.173,193.56,-31.524,117.96,-37.348,117.69,4.7072,149.25,-47.229,169.83
-38.882,158.93,-21.071,110.16,-23.872,180.6,-13.173,193.56,-31.524,117.96,-37.348,117.69,4.7072,149.25,-47.229,169.83
-39.007,159.06,-21.275,110.16,-23.986,180.64,-13.234,193.64,-31.624,117.96,-37.607,117.62,4.6888,149.18,-47.27,170
-39.007,159.06,-21.275,110.16,-23.986,180.64,-13.234,193.64,-31.624,117.96,-37.607,117.62,4.6888,149.18,-47.27,170
-39.131,159.19,-21.478,110.15,-24.102,180.67,-13.295,193.72,-31.725,117.95,-37.865,117.54,4.6685,149.1,-47.31,170.17
-39.254,159.32,-21.68,110.15,-24.22,180.7,-13.357,193.8,-31.825,117.94,-38.122,117.45,4.6463,149.03,-47.35,170.34
-39.378,159.44,-21.881,110.14,-24.339,180.72,-13.42,193.88,-31.925,117.92,-38.376,117.37,4.6221,148.95,-47.39,170.5
-39.378,159.44,-21.881,110.14,-24.339,180.72,-13.42,193.88,-31.925,117.92,-38.376,117.37,4.6221,148.95,-47.39,170.5
-39.501,159.56,-22.081,110.12,-24.46,180.75,-13.484,193.95,-32.025,117.9,-38.63,117.28,4.5961,148.87,-47.429,170.66
-39.501,159.56,-22.081,110.12,-24.46,180.75,-13.484,193.95,-32.025,117.9,-38.63,117.28,4.5961,148.87,-47.429,170.66
-39.501,159.56,-22.081,110.12,-24.46,180.75,-13.484,193.95,-32.025,117.9,-38.63,117.28,4.5961,148.87,-47.429,170.66
-39.624,159.67,-22.279,110.11,-24.582,180.77,-13.548,194.02,-32.124,117.88,-38.882,117.18,4.5681,148.79,-47.468,170.81
-39.624,159.67,-22.279,110.11,-24.582,180.77,-13.548,194.02,-32.124,117.88,-38.882,117.18,4.5681,148.79,-47.468,170.81
-39.624,159.67,-22.279,110.11,-24.582,180.77,-13.548,194.02,-32.124,117.88,-38.882,117.18,4.5681,148.79,-47.468,170.81
-39.747,159.78,-22.476,110.09,-24.706,180.78,-13.613,194.08,-32.224,117.86,-39.132,117.09,4.5382,148.7,-47.507,170.96
-39.747,159.78,-22.476,110.09,-24.706,180.78,-13.613,194.08,-32.224,117.86,-39.132,117.09,4.5382,148.7,-47.507,170.96
-39.747,159.78,-22.476,110.09,-24.706,180.78,-13.613,194.08,-32.224,117.86,-39.132,117.09,4.5382,148.7,-47.507,170.96
-39.992,159.99,-22.868,110.05,-24.959,180.81,-13.745,194.21,-32.421,117.81,-39.628,116.88,4.4726,148.52,-47.584,171.25
-39.992,159.99,-22.868,110.05,-24.959,180.81,-13.745,194.21,-32.421,117.81,-39.628,116.88,4.4726,148.52,-47.584,171.25
-40.114,160.09,-23.061,110.02,-25.088,180.82,-13.812,194.26,-32.52,117.77,-39.874,116.77,4.4368,148.42,-47.622,171.4
-40.114,160.09,-23.061,110.02,-25.088,180.82,-13.812,194.26,-32.52,117.77,-39.874,116.77,4.4368,148.42,-47.622,171.4
-40.236,160.19,-23.254,109.99,-25.218,180.82,-13.881,194.32,-32.618,117.74,-40.119,116.66,4.3991,148.32,-47.66,171.53
-40.236,160.19,-23.254,109.99,-25.218,180.82,-13.881,194.32,-32.618,117.74,-40.119,116.66,4.3991,148.32,-47.66,171.53
-40.236,160.19,-23.254,109.99,-25.218,180.82,-13.881,194.32,-32.618,117.74,-40.119,116.66,4.3991,148.32,-47.66,171.53
-40.358,160.28,-23.446,109.96,-25.351,180.83,-13.95,194.37,-32.717,117.7,-40.361,116.55,4.3595,148.22,-47.697,171.66
-40.358,160.28,-23.446,109.96,-25.351,180.83,-13.95,194.37,-32.717,117.7,-40.361,116.55,4.3595,148.22,-47.697,171.66
-40.6,160.46,-23.826,109.89,-25.62,180.82,-14.09,194.46,-32.912,117.62,-40.843,116.31,4.2743,148.01,-47.772,171.92
-40.6,160.46,-23.826,109.89,-25.62,180.82,-14.09,194.46,-32.912,117.62,-40.843,116.31,4.2743,148.01,-47.772,171.92
-40.6,160.46,-23.826,109.89,-25.62,180.82,-14.09,194.46,-32.912,117.62,-40.843,116.31,4.2743,148.01,-47.772,171.92
-40.721,160.54,-24.015,109.85,-25.757,180.82,-14.162,194.5,-33.01,117.57,-41.081,116.18,4.2287,147.9,-47.808,172.04
-40.721,160.54,-24.015,109.85,-25.757,180.82,-14.162,194.5,-33.01,117.57,-41.081,116.18,4.2287,147.9,-47.808,172.04
-40.842,160.61,-24.202,109.81,-25.895,180.81,-14.235,194.54,-33.107,117.52,-41.318,116.06,4.1812,147.78,-47.845,172.16
-40.842,160.61,-24.202,109.81,-25.895,180.81,-14.235,194.54,-33.107,117.52,-41.318,116.06,4.1812,147.78,-47.845,172.16
-40.963,160.68,-24.388,109.77,-26.036,180.8,-14.308,194.57,-33.204,117.47,-41.553,115.92,4.1317,147.66,-47.881,172.27
-40.963,160.68,-24.388,109.77,-26.036,180.8,-14.308,194.57,-33.204,117.47,-41.553,115.92,4.1317,147.66,-47.881,172.27
-41.083,160.75,-24.574,109.72,-26.178,180.78,-14.383,194.61,-33.301,117.42,-41.787,115.79,4.0802,147.54,-47.917,172.38
-41.203,160.82,-24.758,109.67,-26.322,180.77,-14.458,194.63,-33.397,117.36,-42.019,115.65,4.0267,147.42,-47.953,172.49
