14142,54.424,19.199,-3.7539e-07,-0.032598,6.3745e-10,14583,54.294,0,0,0,0,0.003865,0
14142,54.424,19.199,-3.7539e-07,-0.032598,6.3745e-10,14583,54.294,0,0,0,0,0.003865,0
14142,54.424,19.199,-3.7539e-07,-0.032598,6.3745e-10,14583,54.294,0,0,0,0,0.003865,0
14142,54.424,19.199,-3.7539e-07,-0.032598,6.3745e-10,14583,54.294,0,0,0,0,0.003865,0
14142,54.424,19.199,-3.7539e-07,-0.032598,6.3745e-10,14583,54.294,0,0,0,0,0.003865,0
14142,54.424,19.199,-3.7539e-07,-0.032598,6.3745e-10,14583,54.294,0,0,0,0,0.003865,0
14142,54.424,19.199,-3.7539e-07,-0.032598,6.3745e-10,14583,54.294,0,0,0,0,0.003865,0
14142,54.424,19.199,-3.7539e-07,-0.032598,6.3745e-10,14583,54.294,0,0,0,0,0.003865,0
14142,54.424,19.199,-3.7539e-07,-0.032598,6.3745e-10,14583,54.294,0,0,0,0,0.003865,0
14144,54.424,19.196,-3.7534e-07,-0.03236,6.3272e-10,14583,54.294,0,0,0,0,0.0038785,0
14144,54.424,19.196,-3.7534e-07,-0.03236,6.3272e-10,14583,54.294,0,0,0,0,0.0038785,0
14144,54.424,19.196,-3.7533e-07,-0.0323,6.3153e-10,14583,54.294,0,0,0,0,0.0038819,0
14145,54.424,19.195,-3.7532e-07,-0.032239,6.3034e-10,14583,54.294,0,0,0,0,0.0038853,0
14145,54.424,19.195,-3.7532e-07,-0.032239,6.3034e-10,14583,54.294,0,0,0,0,0.0038853,0
14145,54.424,19.195,-3.7532e-07,-0.032239,6.3034e-10,14583,54.294,0,0,0,0,0.0038853,0
14146,54.424,19.193,-3.7528e-07,-0.032059,6.2691e-10,14583,54.294,0,0,0,0,0.0038955,0
14146,54.424,19.193,-3.7528e-07,-0.032059,6.2691e-10,14583,54.294,0,0,0,0,0.0038955,0
14146,54.424,19.193,-3.7528e-07,-0.032059,6.2691e-10,14583,54.294,0,0,0,0,0.0038955,0
14147,54.424,19.192,-3.7525e-07,-0.03194,6.245e-10,14583,54.294,0,0,0,0,0.0039024,0
14147,54.424,19.192,-3.7525e-07,-0.03194,6.245e-10,14583,54.294,0,0,0,0,0.0039024,0
14147,54.424,19.191,-3.7524e-07,-0.031879,6.2327e-10,14583,54.294,0,0,0,0,0.0039058,0
14147,54.424,19.191,-3.7524e-07,-0.031879,6.2327e-10,14583,54.294,0,0,0,0,0.0039058,0
14147,54.424,19.191,-3.7524e-07,-0.031879,6.2327e-10,14583,54.294,0,0,0,0,0.0039058,0
14147,54.424,19.191,-3.7524e-07,-0.031879,6.2327e-10,14583,54.294,0,0,0,0,0.0039058,0
14147,54.424,19.191,-3.7524e-07,-0.031879,6.2327e-10,14583,54.294,0,0,0,0,0.0039058,0
14147,54.424,19.191,-3.7524e-07,-0.031879,6.2327e-10,14583,54.294,0,0,0,0,0.0039058,0
14147,54.424,19.191,-3.7524e-07,-0.031879,6.2327e-10,14583,54.294,0,0,0,0,0.0039058,0
14147,54.424,19.19,-3.7523e-07,-0.031818,6.2211e-10,14583,54.294,0,0,0,0,0.0039092,0
14147,54.424,19.19,-3.7523e-07,-0.031818,6.2211e-10,14583,54.294,0,0,0,0,0.0039092,0
14147,54.424,19.19,-3.7523e-07,-0.031818,6.2211e-10,14583,54.294,0,0,0,0,0.0039092,0
14147,54.424,19.19,-3.7523e-07,-0.031818,6.2211e-10,14583,54.294,0,0,0,0,0.0039092,0
14147,54.424,19.19,-3.7523e-07,-0.031818,6.2211e-10,14583,54.294,0,0,0,0,0.0039092,0
14147,54.424,19.19,-3.7523e-07,-0.031818,6.2211e-10,14583,54.294,0,0,0,0,0.0039092,0
14148,54.424,19.189,-3.7519e-07,-0.031635,6.1857e-10,14583,54.294,0,0,0,0,0.0039196,0
14150,54.424,19.187,-3.7516e-07,-0.031452,6.1501e-10,14583,54.294,0,0,0,0,0.00393,0
14150,54.424,19.187,-3.7516e-07,-0.031452,6.1501e-10,14583,54.294,0,0,0,0,0.00393,0
14150,54.424,19.185,-3.7513e-07,-0.031328,6.1256e-10,14583,54.294,0,0,0,0,0.003937,0
14150,54.424,19.185,-3.7513e-07,-0.031328,6.1256e-10,14583,54.294,0,0,0,0,0.003937,0
14150,54.424,19.185,-3.7513e-07,-0.031328,6.1256e-10,14583,54.294,0,0,0,0,0.003937,0
14150,54.424,19.185,-3.7513e-07,-0.031328,6.1256e-10,14583,54.294,0,0,0,0,0.003937,0
14150,54.424,19.185,-3.7513e-07,-0.031328,6.1256e-10,14583,54.294,0,0,0,0,0.003937,0
14150,54.424,19.185,-3.7513e-07,-0.031328,6.1256e-10,14583,54.294,0,0,0,0,0.003937,0
14150,54.424,19.185,-3.7513e-07,-0.031328,6.1256e-10,14583,54.294,0,0,0,0,0.003937,0
14150,54.424,19.185,-3.7513e-07,-0.031328,6.1256e-10,14583,54.294,0,0,0,0,0.003937,0
14150,54.424,19.185,-3.7513e-07,-0.031328,6.1256e-10,14583,54.294,0,0,0,0,0.003937,0
14150,54.424,19.185,-3.7513e-07,-0.031328,6.1256e-10,14583,54.294,0,0,0,0,0.003937,0
14150,54.424,19.185,-3.7513e-07,-0.031328,6.1256e-10,14583,54.294,0,0,0,0,0.003937,0
14150,54.424,19.185,-3.7513e-07,-0.031328,6.1256e-10,14583,54.294,0,0,0,0,0.003937,0
14150,54.424,19.185,-3.7513e-07,-0.031328,6.1256e-10,14583,54.294,0,0,0,0,0.003937,0
14150,54.424,19.185,-3.7513e-07,-0.031328,6.1256e-10,14583,54.294,0,0,0,0,0.003937,0
14150,54.424,19.185,-3.7513e-07,-0.031328,6.1256e-10,14583,54.294,0,0,0,0,0.003937,0
14150,54.424,19.185,-3.7513e-07,-0.031328,6.1256e-10,14583,54.294,0,0,0,0,0.003937,0
14150,54.424,19.185,-3.7513e-07,-0.031328,6.1256e-10,14583,54.294,0,0,0,0,0.003937,0
14151,54.424,19.184,-3.7511e-07,-0.031206,6.1019e-10,14583,54.294,0,0,0,0,0.0039439,0
14151,54.424,19.184,-3.7511e-07,-0.031206,6.1019e-10,14583,54.294,0,0,0,0,0.0039439,0
14151,54.424,19.184,-3.7511e-07,-0.031206,6.1019e-10,14583,54.294,0,0,0,0,0.0039439,0
14151,54.424,19.184,-3.7511e-07,-0.031206,6.1019e-10,14583,54.294,0,0,0,0,0.0039439,0
14151,54.424,19.184,-3.7511e-07,-0.031206,6.1019e-10,14583,54.294,0,0,0,0,0.0039439,0
14151,54.424,19.184,-3.7511e-07,-0.031206,6.1019e-10,14583,54.294,0,0,0,0,0.0039439,0
14151,54.424,19.184,-3.7511e-07,-0.031206,6.1019e-10,14583,54.294,0,0,0,0,0.0039439,0
14151,54.424,19.184,-3.7511e-07,-0.031206,6.1019e-10,14583,54.294,0,0,0,0,0.0039439,0
14152,54.424,19.182,-3.7507e-07,-0.031019,6.0649e-10,14583,54.294,0,0,0,0,0.0039545,0
14152,54.424,19.182,-3.7507e-07,-0.031019,6.0649e-10,14583,54.294,0,0,0,0,0.0039545,0
14154,54.424,19.179,-3.7501e-07,-0.030707,6.0037e-10,14583,54.294,0,0,0,0,0.0039721,0
14154,54.424,19.179,-3.7501e-07,-0.030707,6.0037e-10,14583,54.294,0,0,0,0,0.0039721,0
14156,54.424,19.177,-3.7496e-07,-0.030456,5.9543e-10,14583,54.294,0,0,0,0,0.0039864,0
14156,54.424,19.177,-3.7496e-07,-0.030456,5.9543e-10,14583,54.294,0,0,0,0,0.0039864,0
14156,54.424,19.177,-3.7496e-07,-0.030456,5.9543e-10,14583,54.294,0,0,0,0,0.0039864,0
14156,54.424,19.177,-3.7496e-07,-0.030456,5.9543e-10,14583,54.294,0,0,0,0,0.0039864,0
14156,54.424,19.177,-3.7496e-07,-0.030456,5.9543e-10,14583,54.294,0,0,0,0,0.0039864,0
14156,54.424,19.177,-3.7496e-07,-0.030456,5.9543e-10,14583,54.294,0,0,0,0,0.0039864,0
14156,54.424,19.177,-3.7496e-07,-0.030456,5.9543e-10,14583,54.294,0,0,0,0,0.0039864,0
14156,54.424,19.177,-3.7496e-07,-0.030456,5.9543e-10,14583,54.294,0,0,0,0,0.0039864,0
14156,54.424,19.177,-3.7496e-07,-0.030456,5.9543e-10,14583,54.294,0,0,0,0,0.0039864,0
14156,54.424,19.177,-3.7496e-07,-0.030456,5.9543e-10,14583,54.294,0,0,0,0,0.0039864,0
14156,54.424,19.177,-3.7496e-07,-0.030456,5.9543e-10,14583,54.294,0,0,0,0,0.0039864,0
14156,54.424,19.177,-3.7496e-07,-0.030456,5.9543e-10,14583,54.294,0,0,0,0,0.0039864,0
14156,54.424,19.177,-3.7496e-07,-0.030456,5.9543e-10,14583,54.294,0,0,0,0,0.0039864,0
14156,54.424,19.177,-3.7496e-07,-0.030456,5.9543e-10,14583,54.294,0,0,0,0,0.0039864,0
14157,54.424,19.176,-3.7494e-07,-0.03033,5.9297e-10,14583,54.294,0,0,0,0,0.0039936,0
14157,54.424,19.176,-3.7494e-07,-0.03033,5.9297e-10,14583,54.294,0,0,0,0,0.0039936,0
14157,54.424,19.176,-3.7494e-07,-0.03033,5.9297e-10,14583,54.294,0,0,0,0,0.0039936,0
14157,54.424,19.176,-3.7494e-07,-0.03033,5.9297e-10,14583,54.294,0,0,0,0,0.0039936,0
14157,54.424,19.176,-3.7494e-07,-0.03033,5.9297e-10,14583,54.294,0,0,0,0,0.0039936,0
14157,54.424,19.176,-3.7494e-07,-0.03033,5.9297e-10,14583,54.294,0,0,0,0,0.0039936,0
14157,54.424,19.175,-3.7493e-07,-0.030267,5.9184e-10,14583,54.294,0,0,0,0,0.0039971,0
14158,54.424,19.173,-3.7489e-07,-0.030077,5.8816e-10,14583,54.294,0,0,0,0,0.004008,0
14159,54.424,19.171,-3.7486e-07,-0.029887,5.8435e-10,14583,54.294,0,0,0,0,0.0040188,0
14159,54.424,19.171,-3.7486e-07,-0.029887,5.8435e-10,14583,54.294,0,0,0,0,0.0040188,0
14160,54.424,19.17,-3.7482e-07,-0.029696,5.8073e-10,14583,54.294,0,0,0,0,0.0040297,0
14160,54.424,19.17,-3.7482e-07,-0.029696,5.8073e-10,14583,54.294,0,0,0,0,0.0040297,0
14160,54.424,19.17,-3.7482e-07,-0.029696,5.8073e-10,14583,54.294,0,0,0,0,0.0040297,0
14160,54.424,19.17,-3.7482e-07,-0.029696,5.8073e-10,14583,54.294,0,0,0,0,0.0040297,0
14160,54.424,19.17,-3.7482e-07,-0.029696,5.8073e-10,14583,54.294,0,0,0,0,0.0040297,0
14160,54.424,19.17,-3.7482e-07,-0.029696,5.8073e-10,14583,54.294,0,0,0,0,0.0040297,0
14160,54.424,19.17,-3.7482e-07,-0.029696,5.8073e-10,14583,54.294,0,0,0,0,0.0040297,0
14160,54.424,19.17,-3.7482e-07,-0.029696,5.8073e-10,14583,54.294,0,0,0,0,0.0040297,0
14160,54.424,19.17,-3.7482e-07,-0.029696,5.8073e-10,14583,54.294,0,0,0,0,0.0040297,0
14160,54.424,19.17,-3.7482e-07,-0.029696,5.8073e-10,14583,54.294,0,0,0,0,0.0040297,0
14161,54.424,19.168,-3.748e-07,-0.029568,5.7814e-10,14583,54.294,0,0,0,0,0.0040371,0
14161,54.424,19.168,-3.748e-07,-0.029568,5.7814e-10,14583,54.294,0,0,0,0,0.0040371,0
14161,54.424,19.168,-3.748e-07,-0.029568,5.7814e-10,14583,54.294,0,0,0,0,0.0040371,0
14161,54.424,19.168,-3.748e-07,-0.029568,5.7814e-10,14583,54.294,0,0,0,0,0.0040371,0
14161,54.424,19.168,-3.748e-07,-0.029568,5.7814e-10,14583,54.294,0,0,0,0,0.0040371,0
14161,54.424,19.168,-3.748e-07,-0.029568,5.7814e-10,14583,54.294,0,0,0,0,0.0040371,0
14161,54.424,19.168,-3.748e-07,-0.029568,5.7814e-10,14583,54.294,0,0,0,0,0.0040371,0
14161,54.424,19.168,-3.748e-07,-0.029568,5.7814e-10,14583,54.294,0,0,0,0,0.0040371,0
14161,54.424,19.168,-3.748e-07,-0.029568,5.7814e-10,14583,54.294,0,0,0,0,0.0040371,0
14161,54.424,19.168,-3.748e-07,-0.029568,5.7814e-10,14583,54.294,0,0,0,0,0.0040371,0
14161,54.424,19.168,-3.748e-07,-0.029568,5.7814e-10,14583,54.294,0,0,0,0,0.0040371,0
14161,54.424,19.168,-3.748e-07,-0.029568,5.7814e-10,14583,54.294,0,0,0,0,0.0040371,0
14161,54.424,19.168,-3.748e-07,-0.029568,5.7814e-10,14583,54.294,0,0,0,0,0.0040371,0
14162,54.424,19.167,-3.7477e-07,-0.029441,5.7565e-10,14583,54.294,0,0,0,0,0.0040444,0
14163,54.424,19.165,-3.7473e-07,-0.029182,5.7058e-10,14583,54.294,0,0,0,0,0.0040592,0
14163,54.424,19.165,-3.7473e-07,-0.029182,5.7058e-10,14583,54.294,0,0,0,0,0.0040592,0
14165,54.424,19.162,-3.7467e-07,-0.028858,5.643e-10,14583,54.294,0,0,0,0,0.0040778,0
14165,54.424,19.162,-3.7467e-07,-0.028858,5.643e-10,14583,54.294,0,0,0,0,0.0040778,0
14166,54.424,19.161,-3.7466e-07,-0.028792,5.6304e-10,14583,54.294,0,0,0,0,0.0040815,0
14166,54.424,19.161,-3.7466e-07,-0.028792,5.6304e-10,14583,54.294,0,0,0,0,0.0040815,0
14166,54.424,19.161,-3.7466e-07,-0.028792,5.6304e-10,14583,54.294,0,0,0,0,0.0040815,0
14166,54.424,19.161,-3.7466e-07,-0.028792,5.6304e-10,14583,54.294,0,0,0,0,0.0040815,0
14166,54.424,19.161,-3.7466e-07,-0.028792,5.6304e-10,14583,54.294,0,0,0,0,0.0040815,0
14166,54.424,19.161,-3.7466e-07,-0.028792,5.6304e-10,14583,54.294,0,0,0,0,0.0040815,0
14166,54.424,19.161,-3.7466e-07,-0.028792,5.6304e-10,14583,54.294,0,0,0,0,0.0040815,0
14166,54.424,19.161,-3.7466e-07,-0.028792,5.6304e-10,14583,54.294,0,0,0,0,0.0040815,0
14166,54.424,19.161,-3.7466e-07,-0.028792,5.6304e-10,14583,54.294,0,0,0,0,0.0040815,0
14166,54.424,19.161,-3.7466e-07,-0.028792,5.6304e-10,14583,54.294,0,0,0,0,0.0040815,0
14166,54.424,19.161,-3.7466e-07,-0.028792,5.6304e-10,14583,54.294,0,0,0,0,0.0040815,0
14166,54.424,19.161,-3.7466e-07,-0.028792,5.6304e-10,14583,54.294,0,0,0,0,0.0040815,0
14166,54.424,19.161,-3.7466e-07,-0.028792,5.6304e-10,14583,54.294,0,0,0,0,0.0040815,0
14166,54.424,19.161,-3.7466e-07,-0.028792,5.6304e-10,14583,54.294,0,0,0,0,0.0040815,0
14166,54.424,19.161,-3.7466e-07,-0.028792,5.6304e-10,14583,54.294,0,0,0,0,0.0040815,0
14166,54.424,19.161,-3.7466e-07,-0.028792,5.6304e-10,14583,54.294,0,0,0,0,0.0040815,0
14166,54.424,19.161,-3.7466e-07,-0.028792,5.6304e-10,14583,54.294,0,0,0,0,0.0040815,0
14167,54.424,19.16,-3.7464e-07,-0.028662,5.604e-10,14583,54.294,0,0,0,0,0.004089,0
14167,54.424,19.16,-3.7463e-07,-0.028595,5.5909e-10,14583,54.294,0,0,0,0,0.0040928,0
14168,54.424,19.157,-3.7458e-07,-0.028333,5.5409e-10,14583,54.294,0,0,0,0,0.0041079,0
14168,54.424,19.157,-3.7458e-07,-0.028333,5.5409e-10,14583,54.294,0,0,0,0,0.0041079,0
14170,54.424,19.155,-3.7454e-07,-0.02807,5.4887e-10,14583,54.294,0,0,0,0,0.0041231,0
14170,54.424,19.155,-3.7454e-07,-0.02807,5.4887e-10,14583,54.294,0,0,0,0,0.0041231,0
14170,54.424,19.155,-3.7454e-07,-0.02807,5.4887e-10,14583,54.294,0,0,0,0,0.0041231,0
14170,54.424,19.155,-3.7454e-07,-0.02807,5.4887e-10,14583,54.294,0,0,0,0,0.0041231,0
14170,54.424,19.155,-3.7454e-07,-0.02807,5.4887e-10,14583,54.294,0,0,0,0,0.0041231,0
14170,54.424,19.155,-3.7454e-07,-0.02807,5.4887e-10,14583,54.294,0,0,0,0,0.0041231,0
14170,54.424,19.155,-3.7454e-07,-0.02807,5.4887e-10,14583,54.294,0,0,0,0,0.0041231,0
14170,54.424,19.155,-3.7454e-07,-0.02807,5.4887e-10,14583,54.294,0,0,0,0,0.0041231,0
14170,54.424,19.155,-3.7454e-07,-0.02807,5.4887e-10,14583,54.294,0,0,0,0,0.0041231,0
14170,54.424,19.155,-3.7454e-07,-0.02807,5.4887e-10,14583,54.294,0,0,0,0,0.0041231,0
14170,54.424,19.155,-3.7454e-07,-0.02807,5.4887e-10,14583,54.294,0,0,0,0,0.0041231,0
14170,54.424,19.155,-3.7454e-07,-0.02807,5.4887e-10,14583,54.294,0,0,0,0,0.0041231,0
14170,54.424,19.155,-3.7454e-07,-0.02807,5.4887e-10,14583,54.294,0,0,0,0,0.0041231,0
14170,54.424,19.155,-3.7454e-07,-0.02807,5.4887e-10,14583,54.294,0,0,0,0,0.0041231,0
14170,54.424,19.155,-3.7454e-07,-0.02807,5.4887e-10,14583,54.294,0,0,0,0,0.0041231,0
14170,54.424,19.155,-3.7454e-07,-0.02807,5.4887e-10,14583,54.294,0,0,0,0,0.0041231,0
14170,54.424,19.155,-3.7454e-07,-0.02807,5.4887e-10,14583,54.294,0,0,0,0,0.0041231,0
14171,54.424,19.154,-3.7452e-07,-0.027938,5.4625e-10,14583,54.294,0,0,0,0,0.0041308,0
14171,54.424,19.154,-3.7452e-07,-0.027938,5.4625e-10,14583,54.294,0,0,0,0,0.0041308,0
14171,54.424,19.154,-3.7452e-07,-0.027938,5.4625e-10,14583,54.294,0,0,0,0,0.0041308,0
14171,54.424,19.154,-3.7452e-07,-0.027938,5.4625e-10,14583,54.294,0,0,0,0,0.0041308,0
14171,54.424,19.154,-3.7452e-07,-0.027938,5.4625e-10,14583,54.294,0,0,0,0,0.0041308,0
14171,54.424,19.154,-3.7452e-07,-0.027938,5.4625e-10,14583,54.294,0,0,0,0,0.0041308,0
14172,54.424,19.152,-3.7447e-07,-0.027671,5.4103e-10,14583,54.294,0,0,0,0,0.0041462,0
14172,54.424,19.152,-3.7447e-07,-0.027671,5.4103e-10,14583,54.294,0,0,0,0,0.0041462,0
14173,54.424,19.151,-3.7445e-07,-0.027537,5.384e-10,14583,54.294,0,0,0,0,0.0041539,0
14173,54.424,19.151,-3.7445e-07,-0.027537,5.384e-10,14583,54.294,0,0,0,0,0.0041539,0
14173,54.424,19.151,-3.7445e-07,-0.027537,5.384e-10,14583,54.294,0,0,0,0,0.0041539,0
14174,54.424,19.149,-3.7442e-07,-0.027336,5.3451e-10,14583,54.294,0,0,0,0,0.0041656,0
14174,54.424,19.149,-3.7442e-07,-0.027336,5.3451e-10,14583,54.294,0,0,0,0,0.0041656,0
14174,54.424,19.149,-3.7442e-07,-0.027336,5.3451e-10,14583,54.294,0,0,0,0,0.0041656,0
14174,54.424,19.149,-3.7442e-07,-0.027336,5.3451e-10,14583,54.294,0,0,0,0,0.0041656,0
14174,54.424,19.149,-3.7442e-07,-0.027336,5.3451e-10,14583,54.294,0,0,0,0,0.0041656,0
14174,54.424,19.149,-3.7442e-07,-0.027336,5.3451e-10,14583,54.294,0,0,0,0,0.0041656,0
14176,54.424,19.146,-3.7437e-07,-0.026998,5.2787e-10,14583,54.294,0,0,0,0,0.0041851,0
14176,54.424,19.146,-3.7436e-07,-0.026931,5.2653e-10,14583,54.294,0,0,0,0,0.0041891,0
14176,54.424,19.146,-3.7436e-07,-0.026931,5.2653e-10,14583,54.294,0,0,0,0,0.0041891,0
14176,54.424,19.146,-3.7436e-07,-0.026931,5.2653e-10,14583,54.294,0,0,0,0,0.0041891,0
14177,54.424,19.145,-3.7434e-07,-0.026865,5.2526e-10,14583,54.294,0,0,0,0,0.004193,0
14177,54.424,19.145,-3.7434e-07,-0.026865,5.2526e-10,14583,54.294,0,0,0,0,0.004193,0
14177,54.424,19.145,-3.7434e-07,-0.026865,5.2526e-10,14583,54.294,0,0,0,0,0.004193,0
14177,54.424,19.145,-3.7434e-07,-0.026865,5.2526e-10,14583,54.294,0,0,0,0,0.004193,0
14177,54.424,19.145,-3.7434e-07,-0.026865,5.2526e-10,14583,54.294,0,0,0,0,0.004193,0
14177,54.424,19.145,-3.7434e-07,-0.026865,5.2526e-10,14583,54.294,0,0,0,0,0.004193,0
14177,54.424,19.145,-3.7433e-07,-0.026796,5.2401e-10,14583,54.294,0,0,0,0,0.004197,0
14177,54.424,19.145,-3.7433e-07,-0.026796,5.2401e-10,14583,54.294,0,0,0,0,0.004197,0
14177,54.424,19.145,-3.7433e-07,-0.026796,5.2401e-10,14583,54.294,0,0,0,0,0.004197,0
14177,54.424,19.145,-3.7433e-07,-0.026796,5.2401e-10,14583,54.294,0,0,0,0,0.004197,0
14177,54.424,19.145,-3.7433e-07,-0.026796,5.2401e-10,14583,54.294,0,0,0,0,0.004197,0
14177,54.424,19.145,-3.7433e-07,-0.026796,5.2401e-10,14583,54.294,0,0,0,0,0.004197,0
14177,54.424,19.145,-3.7433e-07,-0.026796,5.2401e-10,14583,54.294,0,0,0,0,0.004197,0
14177,54.424,19.145,-3.7433e-07,-0.026796,5.2401e-10,14583,54.294,0,0,0,0,0.004197,0
14177,54.424,19.145,-3.7433e-07,-0.026796,5.2401e-10,14583,54.294,0,0,0,0,0.004197,0
14178,54.424,19.144,-3.7432e-07,-0.026729,5.2269e-10,14583,54.294,0,0,0,0,0.0042009,0
14178,54.424,19.144,-3.7432e-07,-0.026729,5.2269e-10,14583,54.294,0,0,0,0,0.0042009,0
14178,54.424,19.144,-3.7432e-07,-0.026729,5.2269e-10,14583,54.294,0,0,0,0,0.0042009,0
14178,54.424,19.144,-3.7432e-07,-0.026729,5.2269e-10,14583,54.294,0,0,0,0,0.0042009,0
14179,54.424,19.142,-3.7428e-07,-0.026457,5.174e-10,14583,54.294,0,0,0,0,0.0042168,0
14181,54.424,19.14,-3.7424e-07,-0.026185,5.1206e-10,14583,54.294,0,0,0,0,0.0042329,0
14181,54.424,19.139,-3.7423e-07,-0.026116,5.107e-10,14583,54.294,0,0,0,0,0.0042369,0
14181,54.424,19.139,-3.7423e-07,-0.026116,5.107e-10,14583,54.294,0,0,0,0,0.0042369,0
14181,54.424,19.139,-3.7423e-07,-0.026116,5.107e-10,14583,54.294,0,0,0,0,0.0042369,0
14181,54.424,19.139,-3.7423e-07,-0.026116,5.107e-10,14583,54.294,0,0,0,0,0.0042369,0
14181,54.424,19.139,-3.7423e-07,-0.026116,5.107e-10,14583,54.294,0,0,0,0,0.0042369,0
14181,54.424,19.139,-3.7423e-07,-0.026116,5.107e-10,14583,54.294,0,0,0,0,0.0042369,0
14181,54.424,19.139,-3.7423e-07,-0.026116,5.107e-10,14583,54.294,0,0,0,0,0.0042369,0
14181,54.424,19.139,-3.7423e-07,-0.026116,5.107e-10,14583,54.294,0,0,0,0,0.0042369,0
14181,54.424,19.139,-3.7423e-07,-0.026116,5.107e-10,14583,54.294,0,0,0,0,0.0042369,0
14181,54.424,19.139,-3.7423e-07,-0.026116,5.107e-10,14583,54.294,0,0,0,0,0.0042369,0
14181,54.424,19.139,-3.7423e-07,-0.026116,5.107e-10,14583,54.294,0,0,0,0,0.0042369,0
14181,54.424,19.139,-3.7423e-07,-0.026116,5.107e-10,14583,54.294,0,0,0,0,0.0042369,0
14181,54.424,19.139,-3.7423e-07,-0.026116,5.107e-10,14583,54.294,0,0,0,0,0.0042369,0
14181,54.424,19.139,-3.7423e-07,-0.026116,5.107e-10,14583,54.294,0,0,0,0,0.0042369,0
14181,54.424,19.139,-3.7423e-07,-0.026116,5.107e-10,14583,54.294,0,0,0,0,0.0042369,0
14181,54.424,19.139,-3.7423e-07,-0.026116,5.107e-10,14583,54.294,0,0,0,0,0.0042369,0
14181,54.424,19.139,-3.7423e-07,-0.026116,5.107e-10,14583,54.294,0,0,0,0,0.0042369,0
14181,54.424,19.139,-3.7423e-07,-0.026116,5.107e-10,14583,54.294,0,0,0,0,0.0042369,0
14182,54.424,19.138,-3.742e-07,-0.025911,5.0658e-10,14583,54.294,0,0,0,0,0.004249,0
14182,54.424,19.138,-3.742e-07,-0.025911,5.0658e-10,14583,54.294,0,0,0,0,0.004249,0
14182,54.424,19.138,-3.742e-07,-0.025911,5.0658e-10,14583,54.294,0,0,0,0,0.004249,0
14182,54.424,19.138,-3.742e-07,-0.025911,5.0658e-10,14583,54.294,0,0,0,0,0.004249,0
14182,54.424,19.138,-3.742e-07,-0.025911,5.0658e-10,14583,54.294,0,0,0,0,0.004249,0
14182,54.424,19.138,-3.742e-07,-0.025911,5.0658e-10,14583,54.294,0,0,0,0,0.004249,0
14184,54.424,19.136,-3.7416e-07,-0.025635,5.0125e-10,14583,54.294,0,0,0,0,0.0042653,0
14184,54.424,19.136,-3.7416e-07,-0.025635,5.0125e-10,14583,54.294,0,0,0,0,0.0042653,0
14184,54.424,19.136,-3.7416e-07,-0.025635,5.0125e-10,14583,54.294,0,0,0,0,0.0042653,0
14184,54.424,19.136,-3.7416e-07,-0.025635,5.0125e-10,14583,54.294,0,0,0,0,0.0042653,0
14185,54.424,19.134,-3.7412e-07,-0.025358,4.9574e-10,14583,54.294,0,0,0,0,0.0042817,0
14185,54.424,19.134,-3.7412e-07,-0.025358,4.9574e-10,14583,54.294,0,0,0,0,0.0042817,0
14185,54.424,19.134,-3.7412e-07,-0.025358,4.9574e-10,14583,54.294,0,0,0,0,0.0042817,0
14186,54.424,19.132,-3.7409e-07,-0.025149,4.9171e-10,14583,54.294,0,0,0,0,0.0042941,0
14187,54.424,19.132,-3.7408e-07,-0.025078,4.903e-10,14583,54.294,0,0,0,0,0.0042982,0
14187,54.424,19.132,-3.7408e-07,-0.025078,4.903e-10,14583,54.294,0,0,0,0,0.0042982,0
14187,54.424,19.132,-3.7408e-07,-0.025078,4.903e-10,14583,54.294,0,0,0,0,0.0042982,0
14187,54.424,19.132,-3.7408e-07,-0.025078,4.903e-10,14583,54.294,0,0,0,0,0.0042982,0
14188,54.424,19.13,-3.7405e-07,-0.024869,4.8621e-10,14583,54.294,0,0,0,0,0.0043107,0
14188,54.424,19.13,-3.7405e-07,-0.024869,4.8621e-10,14583,54.294,0,0,0,0,0.0043107,0
14188,54.424,19.13,-3.7405e-07,-0.024869,4.8621e-10,14583,54.294,0,0,0,0,0.0043107,0
14188,54.424,19.13,-3.7405e-07,-0.024869,4.8621e-10,14583,54.294,0,0,0,0,0.0043107,0
14188,54.424,19.13,-3.7405e-07,-0.024869,4.8621e-10,14583,54.294,0,0,0,0,0.0043107,0
14188,54.424,19.13,-3.7405e-07,-0.024869,4.8621e-10,14583,54.294,0,0,0,0,0.0043107,0
14188,54.424,19.13,-3.7405e-07,-0.024869,4.8621e-10,14583,54.294,0,0,0,0,0.0043107,0
14188,54.424,19.13,-3.7405e-07,-0.024869,4.8621e-10,14583,54.294,0,0,0,0,0.0043107,0
14188,54.424,19.13,-3.7404e-07,-0.024798,4.8485e-10,14583,54.294,0,0,0,0,0.0043149,0
14188,54.424,19.13,-3.7404e-07,-0.024798,4.8485e-10,14583,54.294,0,0,0,0,0.0043149,0
14188,54.424,19.13,-3.7404e-07,-0.024798,4.8485e-10,14583,54.294,0,0,0,0,0.0043149,0
14189,54.424,19.129,-3.7403e-07,-0.024729,4.8344e-10,14583,54.294,0,0,0,0,0.004319,0
14189,54.424,19.129,-3.7403e-07,-0.024729,4.8344e-10,14583,54.294,0,0,0,0,0.004319,0
14189,54.424,19.129,-3.7403e-07,-0.024729,4.8344e-10,14583,54.294,0,0,0,0,0.004319,0
14189,54.424,19.129,-3.7403e-07,-0.024729,4.8344e-10,14583,54.294,0,0,0,0,0.004319,0
14189,54.424,19.129,-3.7403e-07,-0.024729,4.8344e-10,14583,54.294,0,0,0,0,0.004319,0
14189,54.424,19.129,-3.7403e-07,-0.024729,4.8344e-10,14583,54.294,0,0,0,0,0.004319,0
14189,54.424,19.129,-3.7402e-07,-0.02466,4.821e-10,14583,54.294,0,0,0,0,0.0043232,0
14189,54.424,19.129,-3.7402e-07,-0.02466,4.821e-10,14583,54.294,0,0,0,0,0.0043232,0
14189,54.424,19.129,-3.7402e-07,-0.02466,4.821e-10,14583,54.294,0,0,0,0,0.0043232,0
14189,54.424,19.129,-3.7402e-07,-0.02466,4.821e-10,14583,54.294,0,0,0,0,0.0043232,0
14191,54.424,19.126,-3.7397e-07,-0.024307,4.7521e-10,14583,54.294,0,0,0,0,0.0043443,0
14192,54.424,19.125,-3.7395e-07,-0.024095,4.7107e-10,14583,54.294,0,0,0,0,0.004357,0
14192,54.424,19.125,-3.7395e-07,-0.024095,4.7107e-10,14583,54.294,0,0,0,0,0.004357,0
14192,54.424,19.125,-3.7395e-07,-0.024095,4.7107e-10,14583,54.294,0,0,0,0,0.004357,0
14192,54.424,19.125,-3.7395e-07,-0.024095,4.7107e-10,14583,54.294,0,0,0,0,0.004357,0
14192,54.424,19.125,-3.7395e-07,-0.024095,4.7107e-10,14583,54.294,0,0,0,0,0.004357,0
14192,54.424,19.125,-3.7395e-07,-0.024095,4.7107e-10,14583,54.294,0,0,0,0,0.004357,0
14192,54.424,19.125,-3.7395e-07,-0.024095,4.7107e-10,14583,54.294,0,0,0,0,0.004357,0
14192,54.424,19.125,-3.7395e-07,-0.024095,4.7107e-10,14583,54.294,0,0,0,0,0.004357,0
14192,54.424,19.125,-3.7395e-07,-0.024095,4.7107e-10,14583,54.294,0,0,0,0,0.004357,0
14192,54.424,19.125,-3.7395e-07,-0.024095,4.7107e-10,14583,54.294,0,0,0,0,0.004357,0
14192,54.424,19.125,-3.7395e-07,-0.024095,4.7107e-10,14583,54.294,0,0,0,0,0.004357,0
14192,54.424,19.125,-3.7395e-07,-0.024095,4.7107e-10,14583,54.294,0,0,0,0,0.004357,0
14192,54.424,19.125,-3.7395e-07,-0.024095,4.7107e-10,14583,54.294,0,0,0,0,0.004357,0
14192,54.424,19.125,-3.7395e-07,-0.024095,4.7107e-10,14583,54.294,0,0,0,0,0.004357,0
14192,54.424,19.125,-3.7395e-07,-0.024095,4.7107e-10,14583,54.294,0,0,0,0,0.004357,0
14192,54.424,19.125,-3.7395e-07,-0.024095,4.7107e-10,14583,54.294,0,0,0,0,0.004357,0
14192,54.424,19.125,-3.7395e-07,-0.024095,4.7107e-10,14583,54.294,0,0,0,0,0.004357,0
14192,54.424,19.125,-3.7395e-07,-0.024095,4.7107e-10,14583,54.294,0,0,0,0,0.004357,0
14192,54.424,19.125,-3.7395e-07,-0.024095,4.7107e-10,14583,54.294,0,0,0,0,0.004357,0
14193,54.424,19.123,-3.7392e-07,-0.023882,4.6694e-10,14583,54.294,0,0,0,0,0.0043699,0
14193,54.424,19.123,-3.7392e-07,-0.023882,4.6694e-10,14583,54.294,0,0,0,0,0.0043699,0
14193,54.424,19.123,-3.7392e-07,-0.023882,4.6694e-10,14583,54.294,0,0,0,0,0.0043699,0
14193,54.424,19.123,-3.7392e-07,-0.023882,4.6694e-10,14583,54.294,0,0,0,0,0.0043699,0
14193,54.424,19.123,-3.7392e-07,-0.023882,4.6694e-10,14583,54.294,0,0,0,0,0.0043699,0
14193,54.424,19.123,-3.7392e-07,-0.023882,4.6694e-10,14583,54.294,0,0,0,0,0.0043699,0
14196,54.424,19.12,-3.7385e-07,-0.023381,4.5721e-10,14583,54.294,0,0,0,0,0.0044,0
14197,54.424,19.119,-3.7383e-07,-0.023165,4.5303e-10,14583,54.294,0,0,0,0,0.0044131,0
14197,54.424,19.119,-3.7383e-07,-0.023165,4.5303e-10,14583,54.294,0,0,0,0,0.0044131,0
14197,54.424,19.119,-3.7383e-07,-0.023165,4.5303e-10,14583,54.294,0,0,0,0,0.0044131,0
14197,54.424,19.119,-3.7383e-07,-0.023165,4.5303e-10,14583,54.294,0,0,0,0,0.0044131,0
14197,54.424,19.119,-3.7383e-07,-0.023165,4.5303e-10,14583,54.294,0,0,0,0,0.0044131,0
14197,54.424,19.119,-3.7383e-07,-0.023165,4.5303e-10,14583,54.294,0,0,0,0,0.0044131,0
14197,54.424,19.119,-3.7383e-07,-0.023165,4.5303e-10,14583,54.294,0,0,0,0,0.0044131,0
14197,54.424,19.119,-3.7383e-07,-0.023165,4.5303e-10,14583,54.294,0,0,0,0,0.0044131,0
14197,54.424,19.119,-3.7383e-07,-0.023165,4.5303e-10,14583,54.294,0,0,0,0,0.0044131,0
14198,54.424,19.118,-3.7381e-07,-0.023023,4.502e-10,14583,54.294,0,0,0,0,0.0044219,0
14198,54.424,19.118,-3.7381e-07,-0.023023,4.502e-10,14583,54.294,0,0,0,0,0.0044219,0
14198,54.424,19.118,-3.7381e-07,-0.023023,4.502e-10,14583,54.294,0,0,0,0,0.0044219,0
14198,54.424,19.118,-3.7381e-07,-0.023023,4.502e-10,14583,54.294,0,0,0,0,0.0044219,0
14198,54.424,19.118,-3.7381e-07,-0.023023,4.502e-10,14583,54.294,0,0,0,0,0.0044219,0
14198,54.424,19.118,-3.7381e-07,-0.023023,4.502e-10,14583,54.294,0,0,0,0,0.0044219,0
14198,54.424,19.118,-3.7381e-07,-0.023023,4.502e-10,14583,54.294,0,0,0,0,0.0044219,0
14198,54.424,19.118,-3.7381e-07,-0.023023,4.502e-10,14583,54.294,0,0,0,0,0.0044219,0
14198,54.424,19.118,-3.7381e-07,-0.023023,4.502e-10,14583,54.294,0,0,0,0,0.0044219,0
14198,54.424,19.118,-3.7381e-07,-0.023023,4.502e-10,14583,54.294,0,0,0,0,0.0044219,0
14199,54.424,19.117,-3.7379e-07,-0.022877,4.4734e-10,14583,54.294,0,0,0,0,0.0044306,0
14199,54.424,19.117,-3.7379e-07,-0.022877,4.4734e-10,14583,54.294,0,0,0,0,0.0044306,0
14200,54.424,19.115,-3.7376e-07,-0.02266,4.4312e-10,14583,54.294,0,0,0,0,0.0044439,0
14200,54.424,19.115,-3.7376e-07,-0.02266,4.4312e-10,14583,54.294,0,0,0,0,0.0044439,0
14201,54.424,19.114,-3.7374e-07,-0.022444,4.3891e-10,14583,54.294,0,0,0,0,0.0044572,0
14201,54.424,19.114,-3.7373e-07,-0.022373,4.375e-10,14583,54.294,0,0,0,0,0.0044617,0
14202,54.424,19.113,-3.7371e-07,-0.022227,4.3467e-10,14583,54.294,0,0,0,0,0.0044706,0
14202,54.424,19.113,-3.7371e-07,-0.022227,4.3467e-10,14583,54.294,0,0,0,0,0.0044706,0
14202,54.424,19.113,-3.7371e-07,-0.022227,4.3467e-10,14583,54.294,0,0,0,0,0.0044706,0
14202,54.424,19.113,-3.7371e-07,-0.022227,4.3467e-10,14583,54.294,0,0,0,0,0.0044706,0
14202,54.424,19.113,-3.7371e-07,-0.022227,4.3467e-10,14583,54.294,0,0,0,0,0.0044706,0
14202,54.424,19.113,-3.7371e-07,-0.022227,4.3467e-10,14583,54.294,0,0,0,0,0.0044706,0
14202,54.424,19.113,-3.7371e-07,-0.022227,4.3467e-10,14583,54.294,0,0,0,0,0.0044706,0
14202,54.424,19.112,-3.737e-07,-0.022155,4.3328e-10,14583,54.294,0,0,0,0,0.0044751,0
14202,54.424,19.112,-3.737e-07,-0.022155,4.3328e-10,14583,54.294,0,0,0,0,0.0044751,0
14202,54.424,19.112,-3.737e-07,-0.022155,4.3328e-10,14583,54.294,0,0,0,0,0.0044751,0
14202,54.424,19.112,-3.737e-07,-0.022155,4.3328e-10,14583,54.294,0,0,0,0,0.0044751,0
14202,54.424,19.112,-3.737e-07,-0.022155,4.3328e-10,14583,54.294,0,0,0,0,0.0044751,0
14202,54.424,19.112,-3.737e-07,-0.022155,4.3328e-10,14583,54.294,0,0,0,0,0.0044751,0
14202,54.424,19.112,-3.737e-07,-0.022155,4.3328e-10,14583,54.294,0,0,0,0,0.0044751,0
14202,54.424,19.112,-3.737e-07,-0.022155,4.3328e-10,14583,54.294,0,0,0,0,0.0044751,0
14202,54.424,19.112,-3.737e-07,-0.022155,4.3328e-10,14583,54.294,0,0,0,0,0.0044751,0
14202,54.424,19.112,-3.737e-07,-0.022155,4.3328e-10,14583,54.294,0,0,0,0,0.0044751,0
14202,54.424,19.112,-3.737e-07,-0.022155,4.3328e-10,14583,54.294,0,0,0,0,0.0044751,0
14202,54.424,19.112,-3.737e-07,-0.022155,4.3328e-10,14583,54.294,0,0,0,0,0.0044751,0
14202,54.424,19.112,-3.737e-07,-0.022155,4.3328e-10,14583,54.294,0,0,0,0,0.0044751,0
14202,54.424,19.112,-3.737e-07,-0.022155,4.3328e-10,14583,54.294,0,0,0,0,0.0044751,0
14203,54.424,19.111,-3.7368e-07,-0.02201,4.3039e-10,14583,54.294,0,0,0,0,0.0044841,0
14203,54.424,19.111,-3.7368e-07,-0.02201,4.3039e-10,14583,54.294,0,0,0,0,0.0044841,0
14204,54.424,19.11,-3.7366e-07,-0.021793,4.2606e-10,14583,54.294,0,0,0,0,0.0044977,0
14204,54.424,19.11,-3.7366e-07,-0.021793,4.2606e-10,14583,54.294,0,0,0,0,0.0044977,0
14206,54.424,19.108,-3.7362e-07,-0.021501,4.2044e-10,14583,54.294,0,0,0,0,0.0045159,0
14206,54.424,19.108,-3.7362e-07,-0.021501,4.2044e-10,14583,54.294,0,0,0,0,0.0045159,0
14206,54.424,19.108,-3.7362e-07,-0.021501,4.2044e-10,14583,54.294,0,0,0,0,0.0045159,0
14207,54.424,19.107,-3.736e-07,-0.021279,4.1602e-10,14583,54.294,0,0,0,0,0.0045296,0
14207,54.424,19.107,-3.736e-07,-0.021279,4.1602e-10,14583,54.294,0,0,0,0,0.0045296,0
14207,54.424,19.107,-3.736e-07,-0.021279,4.1602e-10,14583,54.294,0,0,0,0,0.0045296,0
14207,54.424,19.107,-3.736e-07,-0.021279,4.1602e-10,14583,54.294,0,0,0,0,0.0045296,0
14207,54.424,19.107,-3.736e-07,-0.021279,4.1602e-10,14583,54.294,0,0,0,0,0.0045296,0
14207,54.424,19.107,-3.736e-07,-0.021279,4.1602e-10,14583,54.294,0,0,0,0,0.0045296,0
14207,54.424,19.107,-3.736e-07,-0.021279,4.1602e-10,14583,54.294,0,0,0,0,0.0045296,0
14207,54.424,19.107,-3.736e-07,-0.021279,4.1602e-10,14583,54.294,0,0,0,0,0.0045296,0
14207,54.424,19.107,-3.736e-07,-0.021279,4.1602e-10,14583,54.294,0,0,0,0,0.0045296,0
14207,54.424,19.107,-3.736e-07,-0.021279,4.1602e-10,14583,54.294,0,0,0,0,0.0045296,0
14207,54.424,19.107,-3.736e-07,-0.021279,4.1602e-10,14583,54.294,0,0,0,0,0.0045296,0
14207,54.424,19.107,-3.736e-07,-0.021279,4.1602e-10,14583,54.294,0,0,0,0,0.0045296,0
14208,54.424,19.106,-3.7358e-07,-0.021131,4.1323e-10,14583,54.294,0,0,0,0,0.0045388,0
14208,54.424,19.106,-3.7358e-07,-0.021131,4.1323e-10,14583,54.294,0,0,0,0,0.0045388,0
14208,54.424,19.106,-3.7358e-07,-0.021131,4.1323e-10,14583,54.294,0,0,0,0,0.0045388,0
14208,54.424,19.106,-3.7358e-07,-0.021131,4.1323e-10,14583,54.294,0,0,0,0,0.0045388,0
14208,54.424,19.106,-3.7358e-07,-0.021131,4.1323e-10,14583,54.294,0,0,0,0,0.0045388,0
14208,54.424,19.106,-3.7358e-07,-0.021131,4.1323e-10,14583,54.294,0,0,0,0,0.0045388,0
14208,54.424,19.106,-3.7358e-07,-0.021131,4.1323e-10,14583,54.294,0,0,0,0,0.0045388,0
14209,54.424,19.105,-3.7355e-07,-0.020838,4.0738e-10,14583,54.294,0,0,0,0,0.0045574,0
14210,54.424,19.104,-3.7354e-07,-0.020763,4.0591e-10,14583,54.294,0,0,0,0,0.0045621,0
14210,54.424,19.104,-3.7354e-07,-0.020763,4.0591e-10,14583,54.294,0,0,0,0,0.0045621,0
14210,54.424,19.104,-3.7354e-07,-0.020763,4.0591e-10,14583,54.294,0,0,0,0,0.0045621,0
14211,54.424,19.103,-3.7352e-07,-0.020542,4.0167e-10,14583,54.294,0,0,0,0,0.0045761,0
14212,54.424,19.102,-3.735e-07,-0.020392,3.9874e-10,14583,54.294,0,0,0,0,0.0045855,0
14212,54.424,19.102,-3.735e-07,-0.020392,3.9874e-10,14583,54.294,0,0,0,0,0.0045855,0
14212,54.424,19.102,-3.735e-07,-0.020392,3.9874e-10,14583,54.294,0,0,0,0,0.0045855,0
14212,54.424,19.102,-3.735e-07,-0.020392,3.9874e-10,14583,54.294,0,0,0,0,0.0045855,0
14212,54.424,19.102,-3.735e-07,-0.020392,3.9874e-10,14583,54.294,0,0,0,0,0.0045855,0
14213,54.424,19.101,-3.7348e-07,-0.020171,3.9438e-10,14583,54.294,0,0,0,0,0.0045997,0
14213,54.424,19.101,-3.7348e-07,-0.020171,3.9438e-10,14583,54.294,0,0,0,0,0.0045997,0
14213,54.424,19.101,-3.7348e-07,-0.020171,3.9438e-10,14583,54.294,0,0,0,0,0.0045997,0
14213,54.424,19.101,-3.7348e-07,-0.020171,3.9438e-10,14583,54.294,0,0,0,0,0.0045997,0
14213,54.424,19.101,-3.7348e-07,-0.020171,3.9438e-10,14583,54.294,0,0,0,0,0.0045997,0
14213,54.424,19.101,-3.7348e-07,-0.020171,3.9438e-10,14583,54.294,0,0,0,0,0.0045997,0
14213,54.424,19.101,-3.7348e-07,-0.020171,3.9438e-10,14583,54.294,0,0,0,0,0.0045997,0
14213,54.424,19.101,-3.7348e-07,-0.020171,3.9438e-10,14583,54.294,0,0,0,0,0.0045997,0
14213,54.424,19.1,-3.7347e-07,-0.020096,3.9291e-10,14583,54.294,0,0,0,0,0.0046044,0
14213,54.424,19.1,-3.7347e-07,-0.020096,3.9291e-10,14583,54.294,0,0,0,0,0.0046044,0
14213,54.424,19.1,-3.7347e-07,-0.020096,3.9291e-10,14583,54.294,0,0,0,0,0.0046044,0
14213,54.424,19.1,-3.7347e-07,-0.020096,3.9291e-10,14583,54.294,0,0,0,0,0.0046044,0
14213,54.424,19.1,-3.7347e-07,-0.020096,3.9291e-10,14583,54.294,0,0,0,0,0.0046044,0
14213,54.424,19.1,-3.7347e-07,-0.020096,3.9291e-10,14583,54.294,0,0,0,0,0.0046044,0
14213,54.424,19.1,-3.7347e-07,-0.020096,3.9291e-10,14583,54.294,0,0,0,0,0.0046044,0
14213,54.424,19.1,-3.7347e-07,-0.020096,3.9291e-10,14583,54.294,0,0,0,0,0.0046044,0
14213,54.424,19.1,-3.7347e-07,-0.020096,3.9291e-10,14583,54.294,0,0,0,0,0.0046044,0
14213,54.424,19.1,-3.7347e-07,-0.020096,3.9291e-10,14583,54.294,0,0,0,0,0.0046044,0
14213,54.424,19.1,-3.7347e-07,-0.020096,3.9291e-10,14583,54.294,0,0,0,0,0.0046044,0
14213,54.424,19.1,-3.7347e-07,-0.020096,3.9291e-10,14583,54.294,0,0,0,0,0.0046044,0
14215,54.424,19.099,-3.7343e-07,-0.019722,3.8563e-10,14583,54.294,0,0,0,0,0.0046283,0
14215,54.424,19.099,-3.7343e-07,-0.019722,3.8563e-10,14583,54.294,0,0,0,0,0.0046283,0
14215,54.424,19.099,-3.7343e-07,-0.019722,3.8563e-10,14583,54.294,0,0,0,0,0.0046283,0
14216,54.424,19.097,-3.7341e-07,-0.019499,3.8131e-10,14583,54.294,0,0,0,0,0.0046427,0
14216,54.424,19.097,-3.7341e-07,-0.019499,3.8131e-10,14583,54.294,0,0,0,0,0.0046427,0
14217,54.424,19.096,-3.7339e-07,-0.019273,3.768e-10,14583,54.294,0,0,0,0,0.0046573,0
14217,54.424,19.096,-3.7339e-07,-0.019273,3.768e-10,14583,54.294,0,0,0,0,0.0046573,0
14217,54.424,19.096,-3.7339e-07,-0.019273,3.768e-10,14583,54.294,0,0,0,0,0.0046573,0
14217,54.424,19.096,-3.7339e-07,-0.019273,3.768e-10,14583,54.294,0,0,0,0,0.0046573,0
14217,54.424,19.096,-3.7339e-07,-0.019273,3.768e-10,14583,54.294,0,0,0,0,0.0046573,0
14217,54.424,19.096,-3.7339e-07,-0.019273,3.768e-10,14583,54.294,0,0,0,0,0.0046573,0
14217,54.424,19.096,-3.7339e-07,-0.019273,3.768e-10,14583,54.294,0,0,0,0,0.0046573,0
14217,54.424,19.096,-3.7339e-07,-0.019273,3.768e-10,14583,54.294,0,0,0,0,0.0046573,0
14218,54.424,19.095,-3.7337e-07,-0.019125,3.7391e-10,14583,54.294,0,0,0,0,0.004667,0
14218,54.424,19.095,-3.7337e-07,-0.019125,3.7391e-10,14583,54.294,0,0,0,0,0.004667,0
14218,54.424,19.095,-3.7337e-07,-0.019125,3.7391e-10,14583,54.294,0,0,0,0,0.004667,0
14218,54.424,19.095,-3.7337e-07,-0.019125,3.7391e-10,14583,54.294,0,0,0,0,0.004667,0
14218,54.424,19.095,-3.7337e-07,-0.019125,3.7391e-10,14583,54.294,0,0,0,0,0.004667,0
14218,54.424,19.095,-3.7337e-07,-0.019125,3.7391e-10,14583,54.294,0,0,0,0,0.004667,0
14218,54.424,19.095,-3.7337e-07,-0.019125,3.7391e-10,14583,54.294,0,0,0,0,0.004667,0
14218,54.424,19.095,-3.7337e-07,-0.019125,3.7391e-10,14583,54.294,0,0,0,0,0.004667,0
14219,54.424,19.095,-3.7336e-07,-0.018973,3.7104e-10,14583,54.294,0,0,0,0,0.0046768,0
14220,54.424,19.094,-3.7333e-07,-0.018747,3.665e-10,14583,54.294,0,0,0,0,0.0046915,0
14220,54.424,19.094,-3.7333e-07,-0.018747,3.665e-10,14583,54.294,0,0,0,0,0.0046915,0
14220,54.424,19.094,-3.7333e-07,-0.018747,3.665e-10,14583,54.294,0,0,0,0,0.0046915,0
14221,54.424,19.092,-3.7331e-07,-0.01852,3.6215e-10,14583,54.294,0,0,0,0,0.0047063,0
14221,54.424,19.092,-3.7331e-07,-0.01852,3.6215e-10,14583,54.294,0,0,0,0,0.0047063,0
14221,54.424,19.092,-3.7331e-07,-0.01852,3.6215e-10,14583,54.294,0,0,0,0,0.0047063,0
14221,54.424,19.092,-3.7331e-07,-0.01852,3.6215e-10,14583,54.294,0,0,0,0,0.0047063,0
14221,54.424,19.092,-3.7331e-07,-0.01852,3.6215e-10,14583,54.294,0,0,0,0,0.0047063,0
14221,54.424,19.092,-3.7331e-07,-0.01852,3.6215e-10,14583,54.294,0,0,0,0,0.0047063,0
14221,54.424,19.092,-3.7331e-07,-0.01852,3.6215e-10,14583,54.294,0,0,0,0,0.0047063,0
14221,54.424,19.092,-3.7331e-07,-0.01852,3.6215e-10,14583,54.294,0,0,0,0,0.0047063,0
14221,54.424,19.092,-3.7331e-07,-0.01852,3.6215e-10,14583,54.294,0,0,0,0,0.0047063,0
14221,54.424,19.092,-3.7331e-07,-0.01852,3.6215e-10,14583,54.294,0,0,0,0,0.0047063,0
14222,54.424,19.092,-3.733e-07,-0.018368,3.5908e-10,14583,54.294,0,0,0,0,0.0047163,0
14222,54.424,19.092,-3.733e-07,-0.018368,3.5908e-10,14583,54.294,0,0,0,0,0.0047163,0
14222,54.424,19.092,-3.733e-07,-0.018368,3.5908e-10,14583,54.294,0,0,0,0,0.0047163,0
14222,54.424,19.092,-3.733e-07,-0.018368,3.5908e-10,14583,54.294,0,0,0,0,0.0047163,0
14222,54.424,19.092,-3.733e-07,-0.018368,3.5908e-10,14583,54.294,0,0,0,0,0.0047163,0
14222,54.424,19.092,-3.733e-07,-0.018368,3.5908e-10,14583,54.294,0,0,0,0,0.0047163,0
14222,54.424,19.092,-3.733e-07,-0.018368,3.5908e-10,14583,54.294,0,0,0,0,0.0047163,0
14222,54.424,19.092,-3.733e-07,-0.018368,3.5908e-10,14583,54.294,0,0,0,0,0.0047163,0
14223,54.424,19.091,-3.7328e-07,-0.018216,3.5612e-10,14583,54.294,0,0,0,0,0.0047263,0
14223,54.424,19.091,-3.7328e-07,-0.018216,3.5612e-10,14583,54.294,0,0,0,0,0.0047263,0
14223,54.424,19.09,-3.7327e-07,-0.018066,3.5325e-10,14583,54.294,0,0,0,0,0.0047363,0
14223,54.424,19.09,-3.7327e-07,-0.018066,3.5325e-10,14583,54.294,0,0,0,0,0.0047363,0
14225,54.424,19.089,-3.7325e-07,-0.017836,3.487e-10,14583,54.294,0,0,0,0,0.0047514,0
14225,54.424,19.089,-3.7325e-07,-0.017836,3.487e-10,14583,54.294,0,0,0,0,0.0047514,0
14225,54.424,19.089,-3.7325e-07,-0.017836,3.487e-10,14583,54.294,0,0,0,0,0.0047514,0
14225,54.424,19.089,-3.7325e-07,-0.017836,3.487e-10,14583,54.294,0,0,0,0,0.0047514,0
14225,54.424,19.089,-3.7325e-07,-0.017836,3.487e-10,14583,54.294,0,0,0,0,0.0047514,0
14225,54.424,19.089,-3.7325e-07,-0.017836,3.487e-10,14583,54.294,0,0,0,0,0.0047514,0
14225,54.424,19.089,-3.7325e-07,-0.017836,3.487e-10,14583,54.294,0,0,0,0,0.0047514,0
14225,54.424,19.089,-3.7325e-07,-0.017836,3.487e-10,14583,54.294,0,0,0,0,0.0047514,0
14225,54.424,19.089,-3.7325e-07,-0.017836,3.487e-10,14583,54.294,0,0,0,0,0.0047514,0
14225,54.424,19.089,-3.7325e-07,-0.017836,3.487e-10,14583,54.294,0,0,0,0,0.0047514,0
14225,54.424,19.089,-3.7325e-07,-0.017836,3.487e-10,14583,54.294,0,0,0,0,0.0047514,0
14225,54.424,19.089,-3.7325e-07,-0.017836,3.487e-10,14583,54.294,0,0,0,0,0.0047514,0
14227,54.424,19.087,-3.732e-07,-0.017304,3.3832e-10,14583,54.294,0,0,0,0,0.0047871,0
14227,54.424,19.087,-3.732e-07,-0.017304,3.3832e-10,14583,54.294,0,0,0,0,0.0047871,0
14227,54.424,19.087,-3.732e-07,-0.017304,3.3832e-10,14583,54.294,0,0,0,0,0.0047871,0
14227,54.424,19.087,-3.732e-07,-0.017304,3.3832e-10,14583,54.294,0,0,0,0,0.0047871,0
14227,54.424,19.087,-3.732e-07,-0.017304,3.3832e-10,14583,54.294,0,0,0,0,0.0047871,0
14227,54.424,19.087,-3.732e-07,-0.017304,3.3832e-10,14583,54.294,0,0,0,0,0.0047871,0
14227,54.424,19.087,-3.732e-07,-0.017304,3.3832e-10,14583,54.294,0,0,0,0,0.0047871,0
14227,54.424,19.087,-3.732e-07,-0.017304,3.3832e-10,14583,54.294,0,0,0,0,0.0047871,0
14228,54.424,19.086,-3.7318e-07,-0.017072,3.3373e-10,14583,54.294,0,0,0,0,0.0048025,0
14228,54.424,19.086,-3.7318e-07,-0.017072,3.3373e-10,14583,54.294,0,0,0,0,0.0048025,0
14228,54.424,19.086,-3.7318e-07,-0.017072,3.3373e-10,14583,54.294,0,0,0,0,0.0048025,0
14228,54.424,19.086,-3.7318e-07,-0.017072,3.3373e-10,14583,54.294,0,0,0,0,0.0048025,0
14228,54.424,19.086,-3.7318e-07,-0.017072,3.3373e-10,14583,54.294,0,0,0,0,0.0048025,0
14228,54.424,19.086,-3.7318e-07,-0.017072,3.3373e-10,14583,54.294,0,0,0,0,0.0048025,0
14228,54.424,19.086,-3.7318e-07,-0.017072,3.3373e-10,14583,54.294,0,0,0,0,0.0048025,0
14228,54.424,19.086,-3.7318e-07,-0.017072,3.3373e-10,14583,54.294,0,0,0,0,0.0048025,0
14228,54.424,19.086,-3.7318e-07,-0.017072,3.3373e-10,14583,54.294,0,0,0,0,0.0048025,0
14228,54.424,19.086,-3.7318e-07,-0.017072,3.3373e-10,14583,54.294,0,0,0,0,0.0048025,0
14228,54.424,19.086,-3.7318e-07,-0.017072,3.3373e-10,14583,54.294,0,0,0,0,0.0048025,0
14229,54.424,19.085,-3.7317e-07,-0.016921,3.3074e-10,14583,54.294,0,0,0,0,0.0048129,0
14229,54.424,19.085,-3.7317e-07,-0.016921,3.3074e-10,14583,54.294,0,0,0,0,0.0048129,0
14229,54.424,19.085,-3.7317e-07,-0.016921,3.3074e-10,14583,54.294,0,0,0,0,0.0048129,0
14229,54.424,19.085,-3.7317e-07,-0.016921,3.3074e-10,14583,54.294,0,0,0,0,0.0048129,0
14229,54.424,19.085,-3.7317e-07,-0.016921,3.3074e-10,14583,54.294,0,0,0,0,0.0048129,0
14229,54.424,19.085,-3.7317e-07,-0.016921,3.3074e-10,14583,54.294,0,0,0,0,0.0048129,0
14229,54.424,19.085,-3.7317e-07,-0.016921,3.3074e-10,14583,54.294,0,0,0,0,0.0048129,0
14229,54.424,19.085,-3.7317e-07,-0.016921,3.3074e-10,14583,54.294,0,0,0,0,0.0048129,0
14229,54.424,19.085,-3.7317e-07,-0.016921,3.3074e-10,14583,54.294,0,0,0,0,0.0048129,0
14229,54.424,19.085,-3.7317e-07,-0.016921,3.3074e-10,14583,54.294,0,0,0,0,0.0048129,0
14231,54.424,19.084,-3.7314e-07,-0.016612,3.2473e-10,14583,54.294,0,0,0,0,0.0048337,0
14231,54.424,19.084,-3.7314e-07,-0.016612,3.2473e-10,14583,54.294,0,0,0,0,0.0048337,0
14232,54.424,19.082,-3.7311e-07,-0.016303,3.187e-10,14583,54.294,0,0,0,0,0.0048547,0
14232,54.424,19.082,-3.7311e-07,-0.016303,3.187e-10,14583,54.294,0,0,0,0,0.0048547,0
14233,54.424,19.082,-3.731e-07,-0.01615,3.157e-10,14583,54.294,0,0,0,0,0.0048653,0
14233,54.424,19.082,-3.731e-07,-0.01615,3.157e-10,14583,54.294,0,0,0,0,0.0048653,0
14233,54.424,19.082,-3.731e-07,-0.01615,3.157e-10,14583,54.294,0,0,0,0,0.0048653,0
14235,54.424,19.08,-3.7308e-07,-0.015838,3.0962e-10,14583,54.294,0,0,0,0,0.0048866,0
14235,54.424,19.08,-3.7308e-07,-0.015838,3.0962e-10,14583,54.294,0,0,0,0,0.0048866,0
14235,54.424,19.08,-3.7308e-07,-0.015838,3.0962e-10,14583,54.294,0,0,0,0,0.0048866,0
14235,54.424,19.08,-3.7308e-07,-0.015838,3.0962e-10,14583,54.294,0,0,0,0,0.0048866,0
14235,54.424,19.08,-3.7308e-07,-0.015838,3.0962e-10,14583,54.294,0,0,0,0,0.0048866,0
14235,54.424,19.08,-3.7308e-07,-0.015838,3.0962e-10,14583,54.294,0,0,0,0,0.0048866,0
14235,54.424,19.08,-3.7307e-07,-0.015761,3.0828e-10,14583,54.294,0,0,0,0,0.0048919,0
14235,54.424,19.08,-3.7307e-07,-0.015761,3.0828e-10,14583,54.294,0,0,0,0,0.0048919,0
14235,54.424,19.08,-3.7307e-07,-0.015761,3.0828e-10,14583,54.294,0,0,0,0,0.0048919,0
14235,54.424,19.08,-3.7307e-07,-0.015761,3.0828e-10,14583,54.294,0,0,0,0,0.0048919,0
14235,54.424,19.08,-3.7307e-07,-0.015761,3.0828e-10,14583,54.294,0,0,0,0,0.0048919,0
14235,54.424,19.08,-3.7307e-07,-0.015761,3.0828e-10,14583,54.294,0,0,0,0,0.0048919,0
14235,54.424,19.08,-3.7306e-07,-0.015685,3.0679e-10,14583,54.294,0,0,0,0,0.0048973,0
14236,54.424,19.079,-3.7306e-07,-0.015607,3.0515e-10,14583,54.294,0,0,0,0,0.0049026,0
14236,54.424,19.079,-3.7306e-07,-0.015607,3.0515e-10,14583,54.294,0,0,0,0,0.0049026,0
14236,54.424,19.079,-3.7306e-07,-0.015607,3.0515e-10,14583,54.294,0,0,0,0,0.0049026,0
14236,54.424,19.079,-3.7306e-07,-0.015607,3.0515e-10,14583,54.294,0,0,0,0,0.0049026,0
14236,54.424,19.079,-3.7306e-07,-0.015607,3.0515e-10,14583,54.294,0,0,0,0,0.0049026,0
14237,54.424,19.078,-3.7303e-07,-0.015297,2.9912e-10,14583,54.294,0,0,0,0,0.0049243,0
14237,54.424,19.078,-3.7303e-07,-0.015297,2.9912e-10,14583,54.294,0,0,0,0,0.0049243,0
14237,54.424,19.078,-3.7303e-07,-0.015297,2.9912e-10,14583,54.294,0,0,0,0,0.0049243,0
14237,54.424,19.078,-3.7303e-07,-0.015297,2.9912e-10,14583,54.294,0,0,0,0,0.0049243,0
14237,54.424,19.078,-3.7303e-07,-0.015297,2.9912e-10,14583,54.294,0,0,0,0,0.0049243,0
14237,54.424,19.078,-3.7303e-07,-0.015297,2.9912e-10,14583,54.294,0,0,0,0,0.0049243,0
14237,54.424,19.078,-3.7303e-07,-0.015297,2.9912e-10,14583,54.294,0,0,0,0,0.0049243,0
14237,54.424,19.078,-3.7303e-07,-0.015297,2.9912e-10,14583,54.294,0,0,0,0,0.0049243,0
14239,54.424,19.077,-3.7301e-07,-0.014984,2.9304e-10,14583,54.294,0,0,0,0,0.0049461,0
14239,54.424,19.077,-3.73e-07,-0.014907,2.9152e-10,14583,54.294,0,0,0,0,0.0049515,0
14239,54.424,19.077,-3.73e-07,-0.014907,2.9152e-10,14583,54.294,0,0,0,0,0.0049515,0
14239,54.424,19.077,-3.73e-07,-0.014907,2.9152e-10,14583,54.294,0,0,0,0,0.0049515,0
14239,54.424,19.077,-3.73e-07,-0.014907,2.9152e-10,14583,54.294,0,0,0,0,0.0049515,0
14239,54.424,19.077,-3.73e-07,-0.014907,2.9152e-10,14583,54.294,0,0,0,0,0.0049515,0
14239,54.424,19.077,-3.73e-07,-0.014907,2.9152e-10,14583,54.294,0,0,0,0,0.0049515,0
14239,54.424,19.077,-3.73e-07,-0.014907,2.9152e-10,14583,54.294,0,0,0,0,0.0049515,0
14240,54.424,19.076,-3.73e-07,-0.014828,2.8999e-10,14583,54.294,0,0,0,0,0.004957,0
14240,54.424,19.076,-3.73e-07,-0.014828,2.8999e-10,14583,54.294,0,0,0,0,0.004957,0
14240,54.424,19.076,-3.73e-07,-0.014828,2.8999e-10,14583,54.294,0,0,0,0,0.004957,0
14240,54.424,19.076,-3.73e-07,-0.014828,2.8999e-10,14583,54.294,0,0,0,0,0.004957,0
14240,54.424,19.076,-3.73e-07,-0.014828,2.8999e-10,14583,54.294,0,0,0,0,0.004957,0
14240,54.424,19.076,-3.73e-07,-0.014828,2.8999e-10,14583,54.294,0,0,0,0,0.004957,0
14240,54.424,19.076,-3.73e-07,-0.014828,2.8999e-10,14583,54.294,0,0,0,0,0.004957,0
14240,54.424,19.076,-3.73e-07,-0.014828,2.8999e-10,14583,54.294,0,0,0,0,0.004957,0
14240,54.424,19.076,-3.73e-07,-0.014828,2.8999e-10,14583,54.294,0,0,0,0,0.004957,0
14240,54.424,19.076,-3.73e-07,-0.014828,2.8999e-10,14583,54.294,0,0,0,0,0.004957,0
14241,54.424,19.075,-3.7298e-07,-0.014515,2.8384e-10,14583,54.294,0,0,0,0,0.0049791,0
14241,54.424,19.075,-3.7298e-07,-0.014515,2.8384e-10,14583,54.294,0,0,0,0,0.0049791,0
14242,54.424,19.074,-3.7296e-07,-0.014279,2.7921e-10,14583,54.294,0,0,0,0,0.0049958,0
14242,54.424,19.074,-3.7296e-07,-0.014279,2.7921e-10,14583,54.294,0,0,0,0,0.0049958,0
14242,54.424,19.074,-3.7296e-07,-0.014279,2.7921e-10,14583,54.294,0,0,0,0,0.0049958,0
14242,54.424,19.074,-3.7296e-07,-0.014279,2.7921e-10,14583,54.294,0,0,0,0,0.0049958,0
14242,54.424,19.074,-3.7296e-07,-0.014279,2.7921e-10,14583,54.294,0,0,0,0,0.0049958,0
14242,54.424,19.074,-3.7296e-07,-0.014279,2.7921e-10,14583,54.294,0,0,0,0,0.0049958,0
14242,54.424,19.074,-3.7296e-07,-0.014279,2.7921e-10,14583,54.294,0,0,0,0,0.0049958,0
14243,54.424,19.074,-3.7295e-07,-0.0142,2.7767e-10,14583,54.294,0,0,0,0,0.0050014,0
14243,54.424,19.074,-3.7295e-07,-0.0142,2.7767e-10,14583,54.294,0,0,0,0,0.0050014,0
14243,54.424,19.074,-3.7295e-07,-0.0142,2.7767e-10,14583,54.294,0,0,0,0,0.0050014,0
14243,54.424,19.074,-3.7295e-07,-0.0142,2.7767e-10,14583,54.294,0,0,0,0,0.0050014,0
14243,54.424,19.074,-3.7295e-07,-0.0142,2.7767e-10,14583,54.294,0,0,0,0,0.0050014,0
14243,54.424,19.074,-3.7295e-07,-0.0142,2.7767e-10,14583,54.294,0,0,0,0,0.0050014,0
14243,54.424,19.074,-3.7295e-07,-0.0142,2.7767e-10,14583,54.294,0,0,0,0,0.0050014,0
14243,54.424,19.074,-3.7295e-07,-0.0142,2.7767e-10,14583,54.294,0,0,0,0,0.0050014,0
14246,54.424,19.072,-3.7291e-07,-0.013574,2.6546e-10,14583,54.294,0,0,0,0,0.0050466,0
14246,54.424,19.072,-3.7291e-07,-0.013574,2.6546e-10,14583,54.294,0,0,0,0,0.0050466,0
14246,54.424,19.072,-3.7291e-07,-0.013574,2.6546e-10,14583,54.294,0,0,0,0,0.0050466,0
14246,54.424,19.072,-3.7291e-07,-0.013574,2.6546e-10,14583,54.294,0,0,0,0,0.0050466,0
14246,54.424,19.072,-3.7291e-07,-0.013574,2.6546e-10,14583,54.294,0,0,0,0,0.0050466,0
14246,54.424,19.072,-3.7291e-07,-0.013574,2.6546e-10,14583,54.294,0,0,0,0,0.0050466,0
14246,54.424,19.072,-3.7291e-07,-0.013574,2.6546e-10,14583,54.294,0,0,0,0,0.0050466,0
14246,54.424,19.072,-3.7291e-07,-0.013574,2.6546e-10,14583,54.294,0,0,0,0,0.0050466,0
14246,54.424,19.072,-3.7291e-07,-0.013574,2.6546e-10,14583,54.294,0,0,0,0,0.0050466,0
14246,54.424,19.072,-3.7291e-07,-0.013574,2.6546e-10,14583,54.294,0,0,0,0,0.0050466,0
14246,54.424,19.072,-3.7291e-07,-0.013574,2.6546e-10,14583,54.294,0,0,0,0,0.0050466,0
14248,54.424,19.07,-3.7288e-07,-0.013179,2.577e-10,14583,54.294,0,0,0,0,0.0050752,0
14248,54.424,19.07,-3.7288e-07,-0.013179,2.577e-10,14583,54.294,0,0,0,0,0.0050752,0
14248,54.424,19.07,-3.7288e-07,-0.013101,2.562e-10,14583,54.294,0,0,0,0,0.005081,0
14248,54.424,19.07,-3.7288e-07,-0.013101,2.562e-10,14583,54.294,0,0,0,0,0.005081,0
14248,54.424,19.07,-3.7287e-07,-0.01302,2.5461e-10,14583,54.294,0,0,0,0,0.0050868,0
14248,54.424,19.07,-3.7287e-07,-0.01302,2.5461e-10,14583,54.294,0,0,0,0,0.0050868,0
14249,54.424,19.07,-3.7287e-07,-0.012941,2.5304e-10,14583,54.294,0,0,0,0,0.0050926,0
14249,54.424,19.07,-3.7287e-07,-0.012941,2.5304e-10,14583,54.294,0,0,0,0,0.0050926,0
14250,54.424,19.069,-3.7285e-07,-0.012704,2.484e-10,14583,54.294,0,0,0,0,0.00511,0
14250,54.424,19.069,-3.7285e-07,-0.012704,2.484e-10,14583,54.294,0,0,0,0,0.00511,0
14250,54.424,19.069,-3.7285e-07,-0.012626,2.4687e-10,14583,54.294,0,0,0,0,0.0051159,0
14250,54.424,19.069,-3.7285e-07,-0.012626,2.4687e-10,14583,54.294,0,0,0,0,0.0051159,0
14250,54.424,19.069,-3.7285e-07,-0.012626,2.4687e-10,14583,54.294,0,0,0,0,0.0051159,0
14250,54.424,19.069,-3.7285e-07,-0.012626,2.4687e-10,14583,54.294,0,0,0,0,0.0051159,0
14250,54.424,19.069,-3.7285e-07,-0.012626,2.4687e-10,14583,54.294,0,0,0,0,0.0051159,0
14250,54.424,19.069,-3.7285e-07,-0.012626,2.4687e-10,14583,54.294,0,0,0,0,0.0051159,0
14250,54.424,19.069,-3.7285e-07,-0.012626,2.4687e-10,14583,54.294,0,0,0,0,0.0051159,0
14250,54.424,19.069,-3.7285e-07,-0.012626,2.4687e-10,14583,54.294,0,0,0,0,0.0051159,0
14250,54.424,19.069,-3.7285e-07,-0.012626,2.4687e-10,14583,54.294,0,0,0,0,0.0051159,0
14250,54.424,19.069,-3.7285e-07,-0.012626,2.4687e-10,14583,54.294,0,0,0,0,0.0051159,0
14250,54.424,19.069,-3.7285e-07,-0.012626,2.4687e-10,14583,54.294,0,0,0,0,0.0051159,0
14250,54.424,19.069,-3.7285e-07,-0.012626,2.4687e-10,14583,54.294,0,0,0,0,0.0051159,0
14252,54.424,19.067,-3.7282e-07,-0.012229,2.3913e-10,14583,54.294,0,0,0,0,0.0051453,0
14252,54.424,19.067,-3.7282e-07,-0.012229,2.3913e-10,14583,54.294,0,0,0,0,0.0051453,0
14252,54.424,19.067,-3.7282e-07,-0.012229,2.3913e-10,14583,54.294,0,0,0,0,0.0051453,0
14252,54.424,19.067,-3.7282e-07,-0.012229,2.3913e-10,14583,54.294,0,0,0,0,0.0051453,0
14253,54.424,19.067,-3.7281e-07,-0.01199,2.3449e-10,14583,54.294,0,0,0,0,0.0051632,0
14253,54.424,19.067,-3.7281e-07,-0.01199,2.3449e-10,14583,54.294,0,0,0,0,0.0051632,0
14253,54.424,19.067,-3.7281e-07,-0.01199,2.3449e-10,14583,54.294,0,0,0,0,0.0051632,0
14253,54.424,19.067,-3.7281e-07,-0.01199,2.3449e-10,14583,54.294,0,0,0,0,0.0051632,0
14253,54.424,19.067,-3.7281e-07,-0.01199,2.3449e-10,14583,54.294,0,0,0,0,0.0051632,0
14253,54.424,19.067,-3.7281e-07,-0.01199,2.3449e-10,14583,54.294,0,0,0,0,0.0051632,0
14253,54.424,19.067,-3.7281e-07,-0.01199,2.3449e-10,14583,54.294,0,0,0,0,0.0051632,0
14253,54.424,19.067,-3.7281e-07,-0.01199,2.3449e-10,14583,54.294,0,0,0,0,0.0051632,0
14253,54.424,19.067,-3.7281e-07,-0.01199,2.3449e-10,14583,54.294,0,0,0,0,0.0051632,0
14253,54.424,19.067,-3.7281e-07,-0.01199,2.3449e-10,14583,54.294,0,0,0,0,0.0051632,0
14254,54.424,19.066,-3.728e-07,-0.011831,2.3136e-10,14583,54.294,0,0,0,0,0.0051751,0
14254,54.424,19.066,-3.728e-07,-0.011831,2.3136e-10,14583,54.294,0,0,0,0,0.0051751,0
14254,54.424,19.066,-3.728e-07,-0.011831,2.3136e-10,14583,54.294,0,0,0,0,0.0051751,0
14254,54.424,19.066,-3.728e-07,-0.011752,2.2986e-10,14583,54.294,0,0,0,0,0.0051811,0
14254,54.424,19.066,-3.728e-07,-0.011752,2.2986e-10,14583,54.294,0,0,0,0,0.0051811,0
14254,54.424,19.066,-3.728e-07,-0.011752,2.2986e-10,14583,54.294,0,0,0,0,0.0051811,0
14254,54.424,19.066,-3.728e-07,-0.011752,2.2986e-10,14583,54.294,0,0,0,0,0.0051811,0
14256,54.424,19.065,-3.7277e-07,-0.011353,2.2196e-10,14583,54.294,0,0,0,0,0.0052113,0
14256,54.424,19.065,-3.7277e-07,-0.011353,2.2196e-10,14583,54.294,0,0,0,0,0.0052113,0
14256,54.424,19.065,-3.7277e-07,-0.011353,2.2196e-10,14583,54.294,0,0,0,0,0.0052113,0
14256,54.424,19.065,-3.7277e-07,-0.011353,2.2196e-10,14583,54.294,0,0,0,0,0.0052113,0
14256,54.424,19.065,-3.7277e-07,-0.011353,2.2196e-10,14583,54.294,0,0,0,0,0.0052113,0
14256,54.424,19.065,-3.7277e-07,-0.011353,2.2196e-10,14583,54.294,0,0,0,0,0.0052113,0
14256,54.424,19.065,-3.7277e-07,-0.011353,2.2196e-10,14583,54.294,0,0,0,0,0.0052113,0
14256,54.424,19.065,-3.7277e-07,-0.011353,2.2196e-10,14583,54.294,0,0,0,0,0.0052113,0
14256,54.424,19.065,-3.7277e-07,-0.011353,2.2196e-10,14583,54.294,0,0,0,0,0.0052113,0
14256,54.424,19.065,-3.7277e-07,-0.011353,2.2196e-10,14583,54.294,0,0,0,0,0.0052113,0
14256,54.424,19.065,-3.7277e-07,-0.011353,2.2196e-10,14583,54.294,0,0,0,0,0.0052113,0
14256,54.424,19.065,-3.7277e-07,-0.011353,2.2196e-10,14583,54.294,0,0,0,0,0.0052113,0
14256,54.424,19.065,-3.7277e-07,-0.011353,2.2196e-10,14583,54.294,0,0,0,0,0.0052113,0
14256,54.424,19.065,-3.7277e-07,-0.011353,2.2196e-10,14583,54.294,0,0,0,0,0.0052113,0
14259,54.424,19.063,-3.7274e-07,-0.010794,2.1112e-10,14583,54.294,0,0,0,0,0.0052542,0
14259,54.424,19.063,-3.7274e-07,-0.010794,2.1112e-10,14583,54.294,0,0,0,0,0.0052542,0
14259,54.424,19.063,-3.7274e-07,-0.010715,2.0944e-10,14583,54.294,0,0,0,0,0.0052603,0
14259,54.424,19.063,-3.7274e-07,-0.010715,2.0944e-10,14583,54.294,0,0,0,0,0.0052603,0
14259,54.424,19.063,-3.7274e-07,-0.010715,2.0944e-10,14583,54.294,0,0,0,0,0.0052603,0
14260,54.424,19.063,-3.7273e-07,-0.010553,2.0625e-10,14583,54.294,0,0,0,0,0.0052727,0
14260,54.424,19.063,-3.7273e-07,-0.010553,2.0625e-10,14583,54.294,0,0,0,0,0.0052727,0
14260,54.424,19.063,-3.7273e-07,-0.010553,2.0625e-10,14583,54.294,0,0,0,0,0.0052727,0
14260,54.424,19.063,-3.7273e-07,-0.010553,2.0625e-10,14583,54.294,0,0,0,0,0.0052727,0
14260,54.424,19.063,-3.7273e-07,-0.010553,2.0625e-10,14583,54.294,0,0,0,0,0.0052727,0
14260,54.424,19.063,-3.7273e-07,-0.010553,2.0625e-10,14583,54.294,0,0,0,0,0.0052727,0
14260,54.424,19.063,-3.7273e-07,-0.010553,2.0625e-10,14583,54.294,0,0,0,0,0.0052727,0
14260,54.424,19.063,-3.7273e-07,-0.010553,2.0625e-10,14583,54.294,0,0,0,0,0.0052727,0
14261,54.424,19.062,-3.7273e-07,-0.010473,2.0478e-10,14583,54.294,0,0,0,0,0.005279,0
14261,54.424,19.062,-3.7272e-07,-0.010393,2.0323e-10,14583,54.294,0,0,0,0,0.0052852,0
14261,54.424,19.062,-3.7272e-07,-0.010313,2.0167e-10,14583,54.294,0,0,0,0,0.0052915,0
14261,54.424,19.062,-3.7272e-07,-0.010313,2.0167e-10,14583,54.294,0,0,0,0,0.0052915,0
14262,54.424,19.062,-3.7271e-07,-0.010152,1.9852e-10,14583,54.294,0,0,0,0,0.005304,0
14262,54.424,19.062,-3.7271e-07,-0.010152,1.9852e-10,14583,54.294,0,0,0,0,0.005304,0
14262,54.424,19.062,-3.7271e-07,-0.010152,1.9852e-10,14583,54.294,0,0,0,0,0.005304,0
14262,54.424,19.062,-3.7271e-07,-0.010152,1.9852e-10,14583,54.294,0,0,0,0,0.005304,0
14262,54.424,19.062,-3.7271e-07,-0.010152,1.9852e-10,14583,54.294,0,0,0,0,0.005304,0
14262,54.424,19.062,-3.7271e-07,-0.010152,1.9852e-10,14583,54.294,0,0,0,0,0.005304,0
14262,54.424,19.062,-3.7271e-07,-0.010152,1.9852e-10,14583,54.294,0,0,0,0,0.005304,0
14262,54.424,19.062,-3.7271e-07,-0.010152,1.9852e-10,14583,54.294,0,0,0,0,0.005304,0
14262,54.424,19.062,-3.7271e-07,-0.010152,1.9852e-10,14583,54.294,0,0,0,0,0.005304,0
14262,54.424,19.062,-3.7271e-07,-0.010152,1.9852e-10,14583,54.294,0,0,0,0,0.005304,0
14262,54.424,19.062,-3.7271e-07,-0.010152,1.9852e-10,14583,54.294,0,0,0,0,0.005304,0
14262,54.424,19.062,-3.7271e-07,-0.010152,1.9852e-10,14583,54.294,0,0,0,0,0.005304,0
14262,54.424,19.062,-3.7271e-07,-0.010152,1.9852e-10,14583,54.294,0,0,0,0,0.005304,0
14262,54.424,19.062,-3.7271e-07,-0.010152,1.9852e-10,14583,54.294,0,0,0,0,0.005304,0
14264,54.424,19.061,-3.7269e-07,-0.0097501,1.9066e-10,14583,54.294,0,0,0,0,0.0053356,0
14264,54.424,19.061,-3.7269e-07,-0.0097501,1.9066e-10,14583,54.294,0,0,0,0,0.0053356,0
14264,54.424,19.061,-3.7269e-07,-0.0097501,1.9066e-10,14583,54.294,0,0,0,0,0.0053356,0
14265,54.424,19.06,-3.7268e-07,-0.0095894,1.8743e-10,14583,54.294,0,0,0,0,0.0053484,0
14265,54.424,19.06,-3.7268e-07,-0.0095894,1.8743e-10,14583,54.294,0,0,0,0,0.0053484,0
14266,54.424,19.06,-3.7267e-07,-0.0093472,1.8277e-10,14583,54.294,0,0,0,0,0.0053677,0
14266,54.424,19.06,-3.7267e-07,-0.0093472,1.8277e-10,14583,54.294,0,0,0,0,0.0053677,0
14266,54.424,19.06,-3.7267e-07,-0.0093472,1.8277e-10,14583,54.294,0,0,0,0,0.0053677,0
14266,54.424,19.059,-3.7267e-07,-0.0092673,1.8121e-10,14583,54.294,0,0,0,0,0.0053741,0
14267,54.424,19.059,-3.7266e-07,-0.0091878,1.7964e-10,14583,54.294,0,0,0,0,0.0053806,0
14267,54.424,19.059,-3.7266e-07,-0.0091878,1.7964e-10,14583,54.294,0,0,0,0,0.0053806,0
14267,54.424,19.059,-3.7266e-07,-0.0091058,1.7806e-10,14583,54.294,0,0,0,0,0.0053871,0
14267,54.424,19.059,-3.7266e-07,-0.0091058,1.7806e-10,14583,54.294,0,0,0,0,0.0053871,0
14267,54.424,19.059,-3.7266e-07,-0.0091058,1.7806e-10,14583,54.294,0,0,0,0,0.0053871,0
14267,54.424,19.059,-3.7266e-07,-0.0091058,1.7806e-10,14583,54.294,0,0,0,0,0.0053871,0
14268,54.424,19.059,-3.7265e-07,-0.0089432,1.749e-10,14583,54.294,0,0,0,0,0.0054001,0
14268,54.424,19.059,-3.7265e-07,-0.0089432,1.749e-10,14583,54.294,0,0,0,0,0.0054001,0
14268,54.424,19.059,-3.7265e-07,-0.0089432,1.749e-10,14583,54.294,0,0,0,0,0.0054001,0
14268,54.424,19.059,-3.7265e-07,-0.0089432,1.749e-10,14583,54.294,0,0,0,0,0.0054001,0
14268,54.424,19.059,-3.7265e-07,-0.0089432,1.749e-10,14583,54.294,0,0,0,0,0.0054001,0
14268,54.424,19.059,-3.7265e-07,-0.0089432,1.749e-10,14583,54.294,0,0,0,0,0.0054001,0
14268,54.424,19.059,-3.7265e-07,-0.0089432,1.749e-10,14583,54.294,0,0,0,0,0.0054001,0
14268,54.424,19.059,-3.7265e-07,-0.0089432,1.749e-10,14583,54.294,0,0,0,0,0.0054001,0
14268,54.424,19.059,-3.7265e-07,-0.0089432,1.749e-10,14583,54.294,0,0,0,0,0.0054001,0
14269,54.424,19.058,-3.7264e-07,-0.0087024,1.7015e-10,14583,54.294,0,0,0,0,0.0054197,0
14269,54.424,19.058,-3.7264e-07,-0.0087024,1.7015e-10,14583,54.294,0,0,0,0,0.0054197,0
14269,54.424,19.058,-3.7264e-07,-0.0086201,1.6853e-10,14583,54.294,0,0,0,0,0.0054263,0
14270,54.424,19.058,-3.7263e-07,-0.0083756,1.6377e-10,14583,54.294,0,0,0,0,0.0054461,0
14270,54.424,19.058,-3.7263e-07,-0.0083756,1.6377e-10,14583,54.294,0,0,0,0,0.0054461,0
14270,54.424,19.058,-3.7263e-07,-0.0083756,1.6377e-10,14583,54.294,0,0,0,0,0.0054461,0
14270,54.424,19.058,-3.7263e-07,-0.0083756,1.6377e-10,14583,54.294,0,0,0,0,0.0054461,0
14270,54.424,19.058,-3.7263e-07,-0.0083756,1.6377e-10,14583,54.294,0,0,0,0,0.0054461,0
14270,54.424,19.058,-3.7263e-07,-0.0083756,1.6377e-10,14583,54.294,0,0,0,0,0.0054461,0
14270,54.424,19.058,-3.7263e-07,-0.0083756,1.6377e-10,14583,54.294,0,0,0,0,0.0054461,0
14270,54.424,19.058,-3.7263e-07,-0.0083756,1.6377e-10,14583,54.294,0,0,0,0,0.0054461,0
14270,54.424,19.058,-3.7263e-07,-0.0083756,1.6377e-10,14583,54.294,0,0,0,0,0.0054461,0
14270,54.424,19.058,-3.7263e-07,-0.0083756,1.6377e-10,14583,54.294,0,0,0,0,0.0054461,0
14270,54.424,19.058,-3.7263e-07,-0.0083756,1.6377e-10,14583,54.294,0,0,0,0,0.0054461,0
14270,54.424,19.058,-3.7263e-07,-0.0083756,1.6377e-10,14583,54.294,0,0,0,0,0.0054461,0
14270,54.424,19.058,-3.7263e-07,-0.0083756,1.6377e-10,14583,54.294,0,0,0,0,0.0054461,0
14270,54.424,19.058,-3.7263e-07,-0.0083756,1.6377e-10,14583,54.294,0,0,0,0,0.0054461,0
14270,54.424,19.058,-3.7263e-07,-0.0083756,1.6377e-10,14583,54.294,0,0,0,0,0.0054461,0
14270,54.424,19.058,-3.7263e-07,-0.0083756,1.6377e-10,14583,54.294,0,0,0,0,0.0054461,0
14270,54.424,19.058,-3.7263e-07,-0.0083756,1.6377e-10,14583,54.294,0,0,0,0,0.0054461,0
14272,54.424,19.057,-3.7262e-07,-0.0081348,1.5908e-10,14583,54.294,0,0,0,0,0.0054661,0
14272,54.424,19.057,-3.7262e-07,-0.0081348,1.5908e-10,14583,54.294,0,0,0,0,0.0054661,0
14272,54.424,19.057,-3.7262e-07,-0.0081348,1.5908e-10,14583,54.294,0,0,0,0,0.0054661,0
14272,54.424,19.057,-3.7262e-07,-0.0081348,1.5908e-10,14583,54.294,0,0,0,0,0.0054661,0
14272,54.424,19.057,-3.7262e-07,-0.0081348,1.5908e-10,14583,54.294,0,0,0,0,0.0054661,0
14272,54.424,19.057,-3.7262e-07,-0.0081348,1.5908e-10,14583,54.294,0,0,0,0,0.0054661,0
14272,54.424,19.057,-3.7262e-07,-0.0081348,1.5908e-10,14583,54.294,0,0,0,0,0.0054661,0
14272,54.424,19.057,-3.7262e-07,-0.0080526,1.5745e-10,14583,54.294,0,0,0,0,0.0054727,0
14273,54.424,19.056,-3.7261e-07,-0.0078081,1.5266e-10,14583,54.294,0,0,0,0,0.0054929,0
14273,54.424,19.056,-3.7261e-07,-0.0078081,1.5266e-10,14583,54.294,0,0,0,0,0.0054929,0
14273,54.424,19.056,-3.7261e-07,-0.0078081,1.5266e-10,14583,54.294,0,0,0,0,0.0054929,0
14275,54.424,19.056,-3.7259e-07,-0.007403,1.4474e-10,14583,54.294,0,0,0,0,0.0055268,0
14276,54.424,19.055,-3.7259e-07,-0.0071597,1.4e-10,14583,54.294,0,0,0,0,0.0055474,0
14276,54.424,19.055,-3.7259e-07,-0.0071597,1.4e-10,14583,54.294,0,0,0,0,0.0055474,0
14276,54.424,19.055,-3.7259e-07,-0.0071597,1.4e-10,14583,54.294,0,0,0,0,0.0055474,0
14276,54.424,19.055,-3.7259e-07,-0.0071597,1.4e-10,14583,54.294,0,0,0,0,0.0055474,0
14276,54.424,19.055,-3.7259e-07,-0.0071597,1.4e-10,14583,54.294,0,0,0,0,0.0055474,0
14276,54.424,19.055,-3.7259e-07,-0.0071597,1.4e-10,14583,54.294,0,0,0,0,0.0055474,0
14276,54.424,19.055,-3.7259e-07,-0.0071597,1.4e-10,14583,54.294,0,0,0,0,0.0055474,0
14276,54.424,19.055,-3.7259e-07,-0.0071597,1.4e-10,14583,54.294,0,0,0,0,0.0055474,0
14276,54.424,19.055,-3.7259e-07,-0.0071597,1.4e-10,14583,54.294,0,0,0,0,0.0055474,0
14276,54.424,19.055,-3.7259e-07,-0.0071597,1.4e-10,14583,54.294,0,0,0,0,0.0055474,0
14276,54.424,19.055,-3.7259e-07,-0.0071597,1.4e-10,14583,54.294,0,0,0,0,0.0055474,0
14276,54.424,19.055,-3.7259e-07,-0.0071597,1.4e-10,14583,54.294,0,0,0,0,0.0055474,0
14276,54.424,19.055,-3.7259e-07,-0.0071597,1.4e-10,14583,54.294,0,0,0,0,0.0055474,0
14276,54.424,19.055,-3.7259e-07,-0.0071597,1.4e-10,14583,54.294,0,0,0,0,0.0055474,0
14276,54.424,19.055,-3.7259e-07,-0.0071597,1.4e-10,14583,54.294,0,0,0,0,0.0055474,0
14276,54.424,19.055,-3.7259e-07,-0.0071597,1.4e-10,14583,54.294,0,0,0,0,0.0055474,0
14276,54.424,19.055,-3.7259e-07,-0.0071597,1.4e-10,14583,54.294,0,0,0,0,0.0055474,0
14276,54.424,19.055,-3.7259e-07,-0.0071597,1.4e-10,14583,54.294,0,0,0,0,0.0055474,0
14276,54.424,19.055,-3.7259e-07,-0.0071597,1.4e-10,14583,54.294,0,0,0,0,0.0055474,0
14276,54.424,19.055,-3.7259e-07,-0.0071597,1.4e-10,14583,54.294,0,0,0,0,0.0055474,0
14278,54.424,19.055,-3.7257e-07,-0.0067537,1.3206e-10,14583,54.294,0,0,0,0,0.005582,0
14279,54.424,19.054,-3.7256e-07,-0.0065114,1.2728e-10,14583,54.294,0,0,0,0,0.005603,0
14279,54.424,19.054,-3.7256e-07,-0.0065114,1.2728e-10,14583,54.294,0,0,0,0,0.005603,0
14280,54.424,19.054,-3.7256e-07,-0.0064286,1.2569e-10,14583,54.294,0,0,0,0,0.00561,0
14280,54.424,19.054,-3.7256e-07,-0.0064286,1.2569e-10,14583,54.294,0,0,0,0,0.00561,0
14280,54.424,19.054,-3.7256e-07,-0.0064286,1.2569e-10,14583,54.294,0,0,0,0,0.00561,0
14280,54.424,19.054,-3.7256e-07,-0.0064286,1.2569e-10,14583,54.294,0,0,0,0,0.00561,0
14280,54.424,19.054,-3.7256e-07,-0.0064286,1.2569e-10,14583,54.294,0,0,0,0,0.00561,0
14280,54.424,19.054,-3.7256e-07,-0.0064286,1.2569e-10,14583,54.294,0,0,0,0,0.00561,0
14280,54.424,19.054,-3.7256e-07,-0.0064286,1.2569e-10,14583,54.294,0,0,0,0,0.00561,0
14280,54.424,19.054,-3.7256e-07,-0.0064286,1.2569e-10,14583,54.294,0,0,0,0,0.00561,0
14280,54.424,19.054,-3.7256e-07,-0.0064286,1.2569e-10,14583,54.294,0,0,0,0,0.00561,0
14280,54.424,19.054,-3.7256e-07,-0.0064286,1.2569e-10,14583,54.294,0,0,0,0,0.00561,0
14281,54.424,19.053,-3.7255e-07,-0.0061013,1.1931e-10,14583,54.294,0,0,0,0,0.0056383,0
14281,54.424,19.053,-3.7255e-07,-0.0061013,1.1931e-10,14583,54.294,0,0,0,0,0.0056383,0
14281,54.424,19.053,-3.7255e-07,-0.0061013,1.1931e-10,14583,54.294,0,0,0,0,0.0056383,0
14281,54.424,19.053,-3.7255e-07,-0.0061013,1.1931e-10,14583,54.294,0,0,0,0,0.0056383,0
14281,54.424,19.053,-3.7255e-07,-0.0061013,1.1931e-10,14583,54.294,0,0,0,0,0.0056383,0
14281,54.424,19.053,-3.7255e-07,-0.0061013,1.1931e-10,14583,54.294,0,0,0,0,0.0056383,0
14281,54.424,19.053,-3.7255e-07,-0.0061013,1.1931e-10,14583,54.294,0,0,0,0,0.0056383,0
14281,54.424,19.053,-3.7255e-07,-0.0061013,1.1931e-10,14583,54.294,0,0,0,0,0.0056383,0
14281,54.424,19.053,-3.7255e-07,-0.0061013,1.1931e-10,14583,54.294,0,0,0,0,0.0056383,0
14281,54.424,19.053,-3.7255e-07,-0.0061013,1.1931e-10,14583,54.294,0,0,0,0,0.0056383,0
14281,54.424,19.053,-3.7255e-07,-0.0061013,1.1931e-10,14583,54.294,0,0,0,0,0.0056383,0
14281,54.424,19.053,-3.7255e-07,-0.0061013,1.1931e-10,14583,54.294,0,0,0,0,0.0056383,0
14281,54.424,19.053,-3.7255e-07,-0.0061013,1.1931e-10,14583,54.294,0,0,0,0,0.0056383,0
14281,54.424,19.053,-3.7255e-07,-0.0061013,1.1931e-10,14583,54.294,0,0,0,0,0.0056383,0
14281,54.424,19.053,-3.7255e-07,-0.0061013,1.1931e-10,14583,54.294,0,0,0,0,0.0056383,0
14283,54.424,19.053,-3.7254e-07,-0.0056926,1.1134e-10,14583,54.294,0,0,0,0,0.005674,0
14283,54.424,19.053,-3.7254e-07,-0.0056926,1.1134e-10,14583,54.294,0,0,0,0,0.005674,0
14285,54.424,19.052,-3.7253e-07,-0.0053682,1.0498e-10,14583,54.294,0,0,0,0,0.0057029,0
14285,54.424,19.052,-3.7253e-07,-0.0052853,1.0336e-10,14583,54.294,0,0,0,0,0.0057102,0
14285,54.424,19.052,-3.7253e-07,-0.0052853,1.0336e-10,14583,54.294,0,0,0,0,0.0057102,0
14285,54.424,19.052,-3.7253e-07,-0.0052853,1.0336e-10,14583,54.294,0,0,0,0,0.0057102,0
14285,54.424,19.052,-3.7253e-07,-0.0052853,1.0336e-10,14583,54.294,0,0,0,0,0.0057102,0
14285,54.424,19.052,-3.7253e-07,-0.0052853,1.0336e-10,14583,54.294,0,0,0,0,0.0057102,0
14286,54.424,19.052,-3.7252e-07,-0.0049574,9.6884e-11,14583,54.294,0,0,0,0,0.0057395,0
14286,54.424,19.052,-3.7252e-07,-0.0049574,9.6884e-11,14583,54.294,0,0,0,0,0.0057395,0
14286,54.424,19.052,-3.7252e-07,-0.0049574,9.6884e-11,14583,54.294,0,0,0,0,0.0057395,0
14286,54.424,19.052,-3.7252e-07,-0.0049574,9.6884e-11,14583,54.294,0,0,0,0,0.0057395,0
14286,54.424,19.052,-3.7252e-07,-0.0049574,9.6884e-11,14583,54.294,0,0,0,0,0.0057395,0
14286,54.424,19.052,-3.7252e-07,-0.0049574,9.6884e-11,14583,54.294,0,0,0,0,0.0057395,0
14287,54.424,19.052,-3.7252e-07,-0.0048764,9.5317e-11,14583,54.294,0,0,0,0,0.0057469,0
14287,54.424,19.052,-3.7252e-07,-0.0048764,9.5317e-11,14583,54.294,0,0,0,0,0.0057469,0
14287,54.424,19.052,-3.7252e-07,-0.0048764,9.5317e-11,14583,54.294,0,0,0,0,0.0057469,0
14287,54.424,19.052,-3.7252e-07,-0.0048764,9.5317e-11,14583,54.294,0,0,0,0,0.0057469,0
14287,54.424,19.052,-3.7252e-07,-0.0048764,9.5317e-11,14583,54.294,0,0,0,0,0.0057469,0
14287,54.424,19.052,-3.7252e-07,-0.0048764,9.5317e-11,14583,54.294,0,0,0,0,0.0057469,0
14287,54.424,19.052,-3.7252e-07,-0.0048764,9.5317e-11,14583,54.294,0,0,0,0,0.0057469,0
14287,54.424,19.052,-3.7252e-07,-0.0048764,9.5317e-11,14583,54.294,0,0,0,0,0.0057469,0
14287,54.424,19.052,-3.7252e-07,-0.0048764,9.5317e-11,14583,54.294,0,0,0,0,0.0057469,0
14287,54.424,19.052,-3.7252e-07,-0.0048764,9.5317e-11,14583,54.294,0,0,0,0,0.0057469,0
14287,54.424,19.052,-3.7252e-07,-0.0048764,9.5317e-11,14583,54.294,0,0,0,0,0.0057469,0
14288,54.424,19.052,-3.7252e-07,-0.0047127,9.2208e-11,14583,54.294,0,0,0,0,0.0057617,0
14288,54.424,19.052,-3.7252e-07,-0.0047127,9.2208e-11,14583,54.294,0,0,0,0,0.0057617,0
14289,54.424,19.051,-3.7251e-07,-0.0044659,8.7255e-11,14583,54.294,0,0,0,0,0.005784,0
14289,54.424,19.051,-3.7251e-07,-0.0044659,8.7255e-11,14583,54.294,0,0,0,0,0.005784,0
14289,54.424,19.051,-3.7251e-07,-0.0043844,8.5792e-11,14583,54.294,0,0,0,0,0.0057915,0
14289,54.424,19.051,-3.7251e-07,-0.0043844,8.5792e-11,14583,54.294,0,0,0,0,0.0057915,0
14289,54.424,19.051,-3.7251e-07,-0.0043844,8.5792e-11,14583,54.294,0,0,0,0,0.0057915,0
14289,54.424,19.051,-3.7251e-07,-0.0043844,8.5792e-11,14583,54.294,0,0,0,0,0.0057915,0
14289,54.424,19.051,-3.7251e-07,-0.0043844,8.5792e-11,14583,54.294,0,0,0,0,0.0057915,0
14289,54.424,19.051,-3.7251e-07,-0.0043844,8.5792e-11,14583,54.294,0,0,0,0,0.0057915,0
14289,54.424,19.051,-3.7251e-07,-0.0043844,8.5792e-11,14583,54.294,0,0,0,0,0.0057915,0
14291,54.424,19.051,-3.725e-07,-0.0039743,7.7679e-11,14583,54.294,0,0,0,0,0.0058292,0
14291,54.424,19.051,-3.725e-07,-0.0039743,7.7679e-11,14583,54.294,0,0,0,0,0.0058292,0
14291,54.424,19.051,-3.725e-07,-0.0039743,7.7679e-11,14583,54.294,0,0,0,0,0.0058292,0
14291,54.424,19.051,-3.725e-07,-0.0038923,7.6077e-11,14583,54.294,0,0,0,0,0.0058368,0
14292,54.424,19.051,-3.725e-07,-0.0038107,7.4502e-11,14583,54.294,0,0,0,0,0.0058445,0
14292,54.424,19.051,-3.725e-07,-0.0038107,7.4502e-11,14583,54.294,0,0,0,0,0.0058445,0
14292,54.424,19.051,-3.725e-07,-0.0037295,7.2913e-11,14583,54.294,0,0,0,0,0.0058521,0
14293,54.424,19.05,-3.7249e-07,-0.0034825,6.8115e-11,14583,54.294,0,0,0,0,0.0058752,0
14294,54.424,19.05,-3.7249e-07,-0.0034,6.6517e-11,14583,54.294,0,0,0,0,0.0058829,0
14294,54.424,19.05,-3.7249e-07,-0.0034,6.6517e-11,14583,54.294,0,0,0,0,0.0058829,0
14294,54.424,19.05,-3.7249e-07,-0.0034,6.6517e-11,14583,54.294,0,0,0,0,0.0058829,0
14294,54.424,19.05,-3.7249e-07,-0.0034,6.6517e-11,14583,54.294,0,0,0,0,0.0058829,0
14294,54.424,19.05,-3.7249e-07,-0.0034,6.6517e-11,14583,54.294,0,0,0,0,0.0058829,0
14294,54.424,19.05,-3.7249e-07,-0.0034,6.6517e-11,14583,54.294,0,0,0,0,0.0058829,0
14294,54.424,19.05,-3.7249e-07,-0.0034,6.6517e-11,14583,54.294,0,0,0,0,0.0058829,0
14294,54.424,19.05,-3.7249e-07,-0.0034,6.6517e-11,14583,54.294,0,0,0,0,0.0058829,0
14294,54.424,19.05,-3.7249e-07,-0.0034,6.6517e-11,14583,54.294,0,0,0,0,0.0058829,0
14294,54.424,19.05,-3.7249e-07,-0.0034,6.6517e-11,14583,54.294,0,0,0,0,0.0058829,0
14294,54.424,19.05,-3.7249e-07,-0.0034,6.6517e-11,14583,54.294,0,0,0,0,0.0058829,0
14294,54.424,19.05,-3.7249e-07,-0.0034,6.6517e-11,14583,54.294,0,0,0,0,0.0058829,0
14294,54.424,19.05,-3.7249e-07,-0.0034,6.6517e-11,14583,54.294,0,0,0,0,0.0058829,0
14294,54.424,19.05,-3.7249e-07,-0.0032362,6.3359e-11,14583,54.294,0,0,0,0,0.0058984,0
14294,54.424,19.05,-3.7249e-07,-0.0032362,6.3359e-11,14583,54.294,0,0,0,0,0.0058984,0
14294,54.424,19.05,-3.7249e-07,-0.0032362,6.3359e-11,14583,54.294,0,0,0,0,0.0058984,0
14294,54.424,19.05,-3.7249e-07,-0.0032362,6.3359e-11,14583,54.294,0,0,0,0,0.0058984,0
14294,54.424,19.05,-3.7249e-07,-0.0032362,6.3359e-11,14583,54.294,0,0,0,0,0.0058984,0
14294,54.424,19.05,-3.7249e-07,-0.0032362,6.3359e-11,14583,54.294,0,0,0,0,0.0058984,0
14294,54.424,19.05,-3.7249e-07,-0.0032362,6.3359e-11,14583,54.294,0,0,0,0,0.0058984,0
14294,54.424,19.05,-3.7249e-07,-0.0032362,6.3359e-11,14583,54.294,0,0,0,0,0.0058984,0
14294,54.424,19.05,-3.7249e-07,-0.0032362,6.3359e-11,14583,54.294,0,0,0,0,0.0058984,0
14295,54.424,19.05,-3.7248e-07,-0.003074,6.0146e-11,14583,54.294,0,0,0,0,0.005914,0
14297,54.424,19.05,-3.7248e-07,-0.0027428,5.3696e-11,14583,54.294,0,0,0,0,0.0059454,0
14297,54.424,19.05,-3.7248e-07,-0.0027428,5.3696e-11,14583,54.294,0,0,0,0,0.0059454,0
14298,54.424,19.05,-3.7248e-07,-0.0024178,4.7265e-11,14583,54.294,0,0,0,0,0.0059772,0
14298,54.424,19.05,-3.7248e-07,-0.0024178,4.7265e-11,14583,54.294,0,0,0,0,0.0059772,0
14298,54.424,19.05,-3.7248e-07,-0.0024178,4.7265e-11,14583,54.294,0,0,0,0,0.0059772,0
14298,54.424,19.05,-3.7248e-07,-0.0024178,4.7265e-11,14583,54.294,0,0,0,0,0.0059772,0
14298,54.424,19.05,-3.7248e-07,-0.0024178,4.7265e-11,14583,54.294,0,0,0,0,0.0059772,0
14298,54.424,19.05,-3.7248e-07,-0.0024178,4.7265e-11,14583,54.294,0,0,0,0,0.0059772,0
14298,54.424,19.05,-3.7248e-07,-0.0024178,4.7265e-11,14583,54.294,0,0,0,0,0.0059772,0
14298,54.424,19.05,-3.7248e-07,-0.0024178,4.7265e-11,14583,54.294,0,0,0,0,0.0059772,0
14298,54.424,19.05,-3.7248e-07,-0.0024178,4.7265e-11,14583,54.294,0,0,0,0,0.0059772,0
14298,54.424,19.05,-3.7248e-07,-0.0024178,4.7265e-11,14583,54.294,0,0,0,0,0.0059772,0
14298,54.424,19.05,-3.7248e-07,-0.0024178,4.7265e-11,14583,54.294,0,0,0,0,0.0059772,0
14299,54.424,19.05,-3.7247e-07,-0.002252,4.4039e-11,14583,54.294,0,0,0,0,0.0059932,0
14299,54.424,19.05,-3.7247e-07,-0.002252,4.4039e-11,14583,54.294,0,0,0,0,0.0059932,0
14299,54.424,19.05,-3.7247e-07,-0.002252,4.4039e-11,14583,54.294,0,0,0,0,0.0059932,0
14299,54.424,19.05,-3.7247e-07,-0.002252,4.4039e-11,14583,54.294,0,0,0,0,0.0059932,0
14299,54.424,19.05,-3.7247e-07,-0.002252,4.4039e-11,14583,54.294,0,0,0,0,0.0059932,0
14299,54.424,19.05,-3.7247e-07,-0.002252,4.4039e-11,14583,54.294,0,0,0,0,0.0059932,0
14299,54.424,19.05,-3.7247e-07,-0.002252,4.4039e-11,14583,54.294,0,0,0,0,0.0059932,0
14299,54.424,19.05,-3.7247e-07,-0.002252,4.4039e-11,14583,54.294,0,0,0,0,0.0059932,0
14299,54.424,19.05,-3.7247e-07,-0.002252,4.4039e-11,14583,54.294,0,0,0,0,0.0059932,0
14299,54.424,19.05,-3.7247e-07,-0.002252,4.4039e-11,14583,54.294,0,0,0,0,0.0059932,0
14300,54.424,19.049,-3.7247e-07,-0.0020877,4.0837e-11,14583,54.294,0,0,0,0,0.0060093,0
14300,54.424,19.049,-3.7247e-07,-0.0020877,4.0837e-11,14583,54.294,0,0,0,0,0.0060093,0
14300,54.424,19.049,-3.7247e-07,-0.0020877,4.0837e-11,14583,54.294,0,0,0,0,0.0060093,0
14300,54.424,19.049,-3.7247e-07,-0.0020877,4.0837e-11,14583,54.294,0,0,0,0,0.0060093,0
14301,54.424,19.049,-3.7247e-07,-0.001761,3.4434e-11,14583,54.294,0,0,0,0,0.0060417,0
14301,54.424,19.049,-3.7247e-07,-0.001761,3.4434e-11,14583,54.294,0,0,0,0,0.0060417,0
14301,54.424,19.049,-3.7247e-07,-0.001761,3.4434e-11,14583,54.294,0,0,0,0,0.0060417,0
14303,54.424,19.049,-3.7247e-07,-0.0013507,2.6421e-11,14583,54.294,0,0,0,0,0.0060828,0
14303,54.424,19.049,-3.7247e-07,-0.0013507,2.6421e-11,14583,54.294,0,0,0,0,0.0060828,0
14303,54.424,19.049,-3.7247e-07,-0.0013507,2.6421e-11,14583,54.294,0,0,0,0,0.0060828,0
14304,54.424,19.049,-3.7247e-07,-0.0012699,2.4842e-11,14583,54.294,0,0,0,0,0.0060911,0
14304,54.424,19.049,-3.7247e-07,-0.0012699,2.4842e-11,14583,54.294,0,0,0,0,0.0060911,0
14304,54.424,19.049,-3.7247e-07,-0.0012699,2.4842e-11,14583,54.294,0,0,0,0,0.0060911,0
14304,54.424,19.049,-3.7247e-07,-0.0012699,2.4842e-11,14583,54.294,0,0,0,0,0.0060911,0
14304,54.424,19.049,-3.7247e-07,-0.0012699,2.4842e-11,14583,54.294,0,0,0,0,0.0060911,0
14304,54.424,19.049,-3.7247e-07,-0.0012699,2.4842e-11,14583,54.294,0,0,0,0,0.0060911,0
14304,54.424,19.049,-3.7247e-07,-0.0012699,2.4842e-11,14583,54.294,0,0,0,0,0.0060911,0
14305,54.424,19.049,-3.7246e-07,-0.00093889,1.8327e-11,14583,54.294,0,0,0,0,0.0061244,0
14305,54.424,19.049,-3.7246e-07,-0.00093889,1.8327e-11,14583,54.294,0,0,0,0,0.0061244,0
14305,54.424,19.049,-3.7246e-07,-0.00093889,1.8327e-11,14583,54.294,0,0,0,0,0.0061244,0
14305,54.424,19.049,-3.7246e-07,-0.00093889,1.8327e-11,14583,54.294,0,0,0,0,0.0061244,0
14305,54.424,19.049,-3.7246e-07,-0.00093889,1.8327e-11,14583,54.294,0,0,0,0,0.0061244,0
14305,54.424,19.049,-3.7246e-07,-0.00093889,1.8327e-11,14583,54.294,0,0,0,0,0.0061244,0
14305,54.424,19.049,-3.7246e-07,-0.00093889,1.8327e-11,14583,54.294,0,0,0,0,0.0061244,0
14305,54.424,19.049,-3.7246e-07,-0.00093889,1.8327e-11,14583,54.294,0,0,0,0,0.0061244,0
14305,54.424,19.049,-3.7246e-07,-0.00093889,1.8327e-11,14583,54.294,0,0,0,0,0.0061244,0
14305,54.424,19.049,-3.7246e-07,-0.00093889,1.8327e-11,14583,54.294,0,0,0,0,0.0061244,0
14305,54.424,19.049,-3.7246e-07,-0.00093889,1.8327e-11,14583,54.294,0,0,0,0,0.0061244,0
14305,54.424,19.049,-3.7246e-07,-0.00093889,1.8327e-11,14583,54.294,0,0,0,0,0.0061244,0
14305,54.424,19.049,-3.7246e-07,-0.00093889,1.8327e-11,14583,54.294,0,0,0,0,0.0061244,0
14305,54.424,19.049,-3.7246e-07,-0.00093889,1.8327e-11,14583,54.294,0,0,0,0,0.0061244,0
14308,54.424,19.049,-3.7246e-07,-0.00036339,7.0803e-12,14583,54.294,0,0,0,0,0.0061837,0
14308,54.424,19.049,-3.7246e-07,-0.00036339,7.0803e-12,14583,54.294,0,0,0,0,0.0061837,0
14308,54.424,19.049,-3.7246e-07,-0.00036339,7.0803e-12,14583,54.294,0,0,0,0,0.0061837,0
14309,54.424,19.049,-3.7246e-07,-0.00011899,2.2785e-12,14583,54.294,0,0,0,0,0.0062094,0
14309,54.424,19.049,-3.7246e-07,-0.00011899,2.2785e-12,14583,54.294,0,0,0,0,0.0062094,0
14309,54.424,19.049,-3.7246e-07,-0.00011899,2.2785e-12,14583,54.294,0,0,0,0,0.0062094,0
14309,54.424,19.049,-3.7246e-07,-0.00011899,2.2785e-12,14583,54.294,0,0,0,0,0.0062094,0
14309,54.424,19.049,-3.7246e-07,-0.00011899,2.2785e-12,14583,54.294,0,0,0,0,0.0062094,0
14309,54.424,19.049,-3.7246e-07,-0.00011899,2.2785e-12,14583,54.294,0,0,0,0,0.0062094,0
14309,54.424,19.049,-3.7246e-07,-0.00011899,2.2785e-12,14583,54.294,0,0,0,0,0.0062094,0
14309,54.424,19.049,-3.7246e-07,-0.00011899,2.2785e-12,14583,54.294,0,0,0,0,0.0062094,0
14309,54.424,19.049,-3.7246e-07,-0.00011899,2.2785e-12,14583,54.294,0,0,0,0,0.0062094,0
14309,54.424,19.049,-3.7246e-07,-0.00011899,2.2785e-12,14583,54.294,0,0,0,0,0.0062094,0
14309,54.424,19.049,-3.7246e-07,-0.00011899,2.2785e-12,14583,54.294,0,0,0,0,0.0062094,0
14309,54.424,19.049,-3.7246e-07,-0.00011899,2.2785e-12,14583,54.294,0,0,0,0,0.0062094,0
14309,54.424,19.049,-3.7246e-07,-0.00011899,2.2785e-12,14583,54.294,0,0,0,0,0.0062094,0
14309,54.424,19.049,-3.7246e-07,-0.00011899,2.2785e-12,14583,54.294,0,0,0,0,0.0062094,0
14309,54.424,19.049,-3.7246e-07,-0.00011899,2.2785e-12,14583,54.294,0,0,0,0,0.0062094,0
14309,54.424,19.049,-3.7246e-07,-0.00011899,2.2785e-12,14583,54.294,0,0,0,0,0.0062094,0
14309,54.424,19.049,-3.7246e-07,-0.00011899,2.2785e-12,14583,54.294,0,0,0,0,0.0062094,0
14309,54.424,19.049,-3.7246e-07,-0.00011899,2.2785e-12,14583,54.294,0,0,0,0,0.0062094,0
14309,54.424,19.049,-3.7246e-07,-0.00011899,2.2785e-12,14583,54.294,0,0,0,0,0.0062094,0
14309,54.424,19.049,-3.7246e-07,-0.00011899,2.2785e-12,14583,54.294,0,0,0,0,0.0062094,0
14309,54.424,19.049,-3.7246e-07,-0.00011899,2.2785e-12,14583,54.294,0,0,0,0,0.0062094,0
14310,54.424,19.049,-3.7246e-07,5.835e-05,-1.1803e-12,14583,54.294,0,0,0,0,0.0062353,0
14310,54.424,19.049,-3.7246e-07,5.835e-05,-1.1803e-12,14583,54.294,0,0,0,0,0.0062353,0
14310,54.424,19.049,-3.7246e-07,5.835e-05,-1.1803e-12,14583,54.294,0,0,0,0,0.0062353,0
14310,54.424,19.049,-3.7246e-07,5.835e-05,-1.1803e-12,14583,54.294,0,0,0,0,0.0062353,0
14310,54.424,19.049,-3.7246e-07,5.835e-05,-1.1803e-12,14583,54.294,0,0,0,0,0.0062353,0
14312,54.424,19.049,-3.7246e-07,0.00028821,-5.6223e-12,14583,54.294,0,0,0,0,0.0062879,0
14312,54.424,19.049,-3.7246e-07,0.00028821,-5.6223e-12,14583,54.294,0,0,0,0,0.0062879,0
14312,54.424,19.049,-3.7246e-07,0.00028821,-5.6223e-12,14583,54.294,0,0,0,0,0.0062879,0
14312,54.424,19.049,-3.7246e-07,0.00028821,-5.6223e-12,14583,54.294,0,0,0,0,0.0062879,0
14312,54.424,19.049,-3.7246e-07,0.00028821,-5.6223e-12,14583,54.294,0,0,0,0,0.0062879,0
14312,54.424,19.049,-3.7246e-07,0.00028821,-5.6223e-12,14583,54.294,0,0,0,0,0.0062879,0
14312,54.424,19.049,-3.7246e-07,0.00028821,-5.6223e-12,14583,54.294,0,0,0,0,0.0062879,0
14312,54.424,19.049,-3.7246e-07,0.00028821,-5.6223e-12,14583,54.294,0,0,0,0,0.0062879,0
14312,54.424,19.049,-3.7246e-07,0.00028821,-5.6223e-12,14583,54.294,0,0,0,0,0.0062879,0
14312,54.424,19.049,-3.7246e-07,0.00028821,-5.6223e-12,14583,54.294,0,0,0,0,0.0062879,0
14312,54.424,19.049,-3.7246e-07,0.00028821,-5.6223e-12,14583,54.294,0,0,0,0,0.0062879,0
14312,54.424,19.049,-3.7246e-07,0.00028821,-5.6223e-12,14583,54.294,0,0,0,0,0.0062879,0
14312,54.424,19.049,-3.7246e-07,0.00028821,-5.6223e-12,14583,54.294,0,0,0,0,0.0062879,0
14312,54.424,19.049,-3.7246e-07,0.00028821,-5.6223e-12,14583,54.294,0,0,0,0,0.0062879,0
14312,54.424,19.049,-3.7246e-07,0.00028821,-5.6223e-12,14583,54.294,0,0,0,0,0.0062879,0
14312,54.424,19.049,-3.7246e-07,0.00028821,-5.6223e-12,14583,54.294,0,0,0,0,0.0062879,0
14312,54.424,19.049,-3.7246e-07,0.00028821,-5.6223e-12,14583,54.294,0,0,0,0,0.0062879,0
14312,54.424,19.049,-3.7246e-07,0.00028821,-5.6223e-12,14583,54.294,0,0,0,0,0.0062879,0
14312,54.424,19.049,-3.7246e-07,0.00028821,-5.6223e-12,14583,54.294,0,0,0,0,0.0062879,0
14312,54.424,19.049,-3.7246e-07,0.00028821,-5.6223e-12,14583,54.294,0,0,0,0,0.0062879,0
14312,54.424,19.049,-3.7246e-07,0.00028821,-5.6223e-12,14583,54.294,0,0,0,0,0.0062879,0
14316,54.424,19.049,-3.7246e-07,0.00067131,-1.3106e-11,14583,54.294,0,0,0,0,0.0063684,0
14317,54.424,19.049,-3.7247e-07,0.00080895,-1.5786e-11,14583,54.294,0,0,0,0,0.0063957,0
14317,54.424,19.049,-3.7247e-07,0.00080895,-1.5786e-11,14583,54.294,0,0,0,0,0.0063957,0
14317,54.424,19.049,-3.7247e-07,0.00080895,-1.5786e-11,14583,54.294,0,0,0,0,0.0063957,0
14318,54.424,19.049,-3.7247e-07,0.00090279,-1.7644e-11,14583,54.294,0,0,0,0,0.0064141,0
14318,54.424,19.049,-3.7247e-07,0.00090279,-1.7644e-11,14583,54.294,0,0,0,0,0.0064141,0
14319,54.424,19.049,-3.7247e-07,0.0010466,-2.0457e-11,14583,54.294,0,0,0,0,0.0064418,0
14319,54.424,19.049,-3.7247e-07,0.0010466,-2.0457e-11,14583,54.294,0,0,0,0,0.0064418,0
14319,54.424,19.049,-3.7247e-07,0.0010466,-2.0457e-11,14583,54.294,0,0,0,0,0.0064418,0
14319,54.424,19.049,-3.7247e-07,0.0010466,-2.0457e-11,14583,54.294,0,0,0,0,0.0064418,0
14319,54.424,19.049,-3.7247e-07,0.0010466,-2.0457e-11,14583,54.294,0,0,0,0,0.0064418,0
14319,54.424,19.049,-3.7247e-07,0.0010466,-2.0457e-11,14583,54.294,0,0,0,0,0.0064418,0
14319,54.424,19.049,-3.7247e-07,0.0010466,-2.0457e-11,14583,54.294,0,0,0,0,0.0064418,0
14319,54.424,19.049,-3.7247e-07,0.0010466,-2.0457e-11,14583,54.294,0,0,0,0,0.0064418,0
14319,54.424,19.049,-3.7247e-07,0.0010466,-2.0457e-11,14583,54.294,0,0,0,0,0.0064418,0
14319,54.424,19.049,-3.7247e-07,0.0010466,-2.0457e-11,14583,54.294,0,0,0,0,0.0064418,0
14319,54.424,19.049,-3.7247e-07,0.0010466,-2.0457e-11,14583,54.294,0,0,0,0,0.0064418,0
14319,54.424,19.049,-3.7247e-07,0.0010466,-2.0457e-11,14583,54.294,0,0,0,0,0.0064418,0
14319,54.424,19.049,-3.7247e-07,0.0010466,-2.0457e-11,14583,54.294,0,0,0,0,0.0064418,0
14319,54.424,19.049,-3.7247e-07,0.0010466,-2.0457e-11,14583,54.294,0,0,0,0,0.0064418,0
14319,54.424,19.049,-3.7247e-07,0.0010466,-2.0457e-11,14583,54.294,0,0,0,0,0.0064418,0
14319,54.424,19.049,-3.7247e-07,0.0010466,-2.0457e-11,14583,54.294,0,0,0,0,0.0064418,0
14319,54.424,19.049,-3.7247e-07,0.0010466,-2.0457e-11,14583,54.294,0,0,0,0,0.0064418,0
14319,54.424,19.049,-3.7247e-07,0.0010466,-2.0457e-11,14583,54.294,0,0,0,0,0.0064418,0
14319,54.424,19.049,-3.7247e-07,0.0010466,-2.0457e-11,14583,54.294,0,0,0,0,0.0064418,0
14321,54.424,19.049,-3.7247e-07,0.0012964,-2.534e-11,14583,54.294,0,0,0,0,0.0064885,0
14322,54.424,19.049,-3.7247e-07,0.0014511,-2.8384e-11,14583,54.294,0,0,0,0,0.0065168,0
14322,54.424,19.049,-3.7247e-07,0.0014511,-2.8384e-11,14583,54.294,0,0,0,0,0.0065168,0
14322,54.424,19.049,-3.7247e-07,0.0014511,-2.8384e-11,14583,54.294,0,0,0,0,0.0065168,0
14322,54.424,19.049,-3.7247e-07,0.0015041,-2.9439e-11,14583,54.294,0,0,0,0,0.0065263,0
14322,54.424,19.049,-3.7247e-07,0.0015041,-2.9439e-11,14583,54.294,0,0,0,0,0.0065263,0
14322,54.424,19.049,-3.7247e-07,0.0015041,-2.9439e-11,14583,54.294,0,0,0,0,0.0065263,0
14322,54.424,19.049,-3.7247e-07,0.0015041,-2.9439e-11,14583,54.294,0,0,0,0,0.0065263,0
14322,54.424,19.049,-3.7247e-07,0.0015041,-2.9439e-11,14583,54.294,0,0,0,0,0.0065263,0
14322,54.424,19.049,-3.7247e-07,0.0015041,-2.9439e-11,14583,54.294,0,0,0,0,0.0065263,0
14322,54.424,19.049,-3.7247e-07,0.0015041,-2.9439e-11,14583,54.294,0,0,0,0,0.0065263,0
14322,54.424,19.049,-3.7247e-07,0.0015041,-2.9439e-11,14583,54.294,0,0,0,0,0.0065263,0
14322,54.424,19.049,-3.7247e-07,0.0015041,-2.9439e-11,14583,54.294,0,0,0,0,0.0065263,0
14322,54.424,19.049,-3.7247e-07,0.0015041,-2.9439e-11,14583,54.294,0,0,0,0,0.0065263,0
14322,54.424,19.049,-3.7247e-07,0.0015041,-2.9439e-11,14583,54.294,0,0,0,0,0.0065263,0
14324,54.424,19.05,-3.7247e-07,0.0017177,-3.3607e-11,14583,54.294,0,0,0,0,0.0065646,0
14324,54.424,19.05,-3.7247e-07,0.0017723,-3.4678e-11,14583,54.294,0,0,0,0,0.0065743,0
14324,54.424,19.05,-3.7247e-07,0.0017723,-3.4678e-11,14583,54.294,0,0,0,0,0.0065743,0
14324,54.424,19.05,-3.7247e-07,0.0017723,-3.4678e-11,14583,54.294,0,0,0,0,0.0065743,0
14324,54.424,19.05,-3.7247e-07,0.0017723,-3.4678e-11,14583,54.294,0,0,0,0,0.0065743,0
14324,54.424,19.05,-3.7247e-07,0.0017723,-3.4678e-11,14583,54.294,0,0,0,0,0.0065743,0
14324,54.424,19.05,-3.7247e-07,0.0017723,-3.4678e-11,14583,54.294,0,0,0,0,0.0065743,0
14324,54.424,19.05,-3.7247e-07,0.0017723,-3.4678e-11,14583,54.294,0,0,0,0,0.0065743,0
14325,54.424,19.05,-3.7248e-07,0.0018267,-3.5768e-11,14583,54.294,0,0,0,0,0.0065839,0
14325,54.424,19.05,-3.7248e-07,0.0019374,-3.7926e-11,14583,54.294,0,0,0,0,0.0066034,0
14325,54.424,19.05,-3.7248e-07,0.0019374,-3.7926e-11,14583,54.294,0,0,0,0,0.0066034,0
14326,54.424,19.05,-3.7248e-07,0.0021059,-4.1267e-11,14583,54.294,0,0,0,0,0.0066327,0
14327,54.424,19.05,-3.7248e-07,0.002163,-4.2393e-11,14583,54.294,0,0,0,0,0.0066426,0
14327,54.424,19.05,-3.7248e-07,0.002163,-4.2393e-11,14583,54.294,0,0,0,0,0.0066426,0
14328,54.424,19.05,-3.7248e-07,0.0023356,-4.5765e-11,14583,54.294,0,0,0,0,0.0066723,0
14328,54.424,19.05,-3.7248e-07,0.0023356,-4.5765e-11,14583,54.294,0,0,0,0,0.0066723,0
14328,54.424,19.05,-3.7248e-07,0.0023356,-4.5765e-11,14583,54.294,0,0,0,0,0.0066723,0
14328,54.424,19.05,-3.7248e-07,0.0023356,-4.5765e-11,14583,54.294,0,0,0,0,0.0066723,0
14328,54.424,19.05,-3.7248e-07,0.0023356,-4.5765e-11,14583,54.294,0,0,0,0,0.0066723,0
14328,54.424,19.05,-3.7248e-07,0.0023356,-4.5765e-11,14583,54.294,0,0,0,0,0.0066723,0
14328,54.424,19.05,-3.7248e-07,0.0023356,-4.5765e-11,14583,54.294,0,0,0,0,0.0066723,0
14328,54.424,19.05,-3.7248e-07,0.0023356,-4.5765e-11,14583,54.294,0,0,0,0,0.0066723,0
14328,54.424,19.05,-3.7248e-07,0.0023356,-4.5765e-11,14583,54.294,0,0,0,0,0.0066723,0
14328,54.424,19.05,-3.7248e-07,0.0023356,-4.5765e-11,14583,54.294,0,0,0,0,0.0066723,0
14328,54.424,19.05,-3.7248e-07,0.0023356,-4.5765e-11,14583,54.294,0,0,0,0,0.0066723,0
14329,54.424,19.05,-3.7248e-07,0.0024519,-4.7987e-11,14583,54.294,0,0,0,0,0.0066922,0
14329,54.424,19.05,-3.7248e-07,0.0024519,-4.7987e-11,14583,54.294,0,0,0,0,0.0066922,0
14329,54.424,19.05,-3.7248e-07,0.0024519,-4.7987e-11,14583,54.294,0,0,0,0,0.0066922,0
14329,54.424,19.05,-3.7248e-07,0.0024519,-4.7987e-11,14583,54.294,0,0,0,0,0.0066922,0
14329,54.424,19.05,-3.7248e-07,0.0024519,-4.7987e-11,14583,54.294,0,0,0,0,0.0066922,0
14329,54.424,19.05,-3.7248e-07,0.0024519,-4.7987e-11,14583,54.294,0,0,0,0,0.0066922,0
14329,54.424,19.05,-3.7248e-07,0.0024519,-4.7987e-11,14583,54.294,0,0,0,0,0.0066922,0
14329,54.424,19.05,-3.7248e-07,0.0024519,-4.7987e-11,14583,54.294,0,0,0,0,0.0066922,0
14329,54.424,19.05,-3.7249e-07,0.0025104,-4.9147e-11,14583,54.294,0,0,0,0,0.0067023,0
14329,54.424,19.05,-3.7249e-07,0.0025104,-4.9147e-11,14583,54.294,0,0,0,0,0.0067023,0
14329,54.424,19.05,-3.7249e-07,0.0025104,-4.9147e-11,14583,54.294,0,0,0,0,0.0067023,0
14329,54.424,19.05,-3.7249e-07,0.0025104,-4.9147e-11,14583,54.294,0,0,0,0,0.0067023,0
14329,54.424,19.05,-3.7249e-07,0.0025104,-4.9147e-11,14583,54.294,0,0,0,0,0.0067023,0
14331,54.424,19.05,-3.7249e-07,0.0027489,-5.378e-11,14583,54.294,0,0,0,0,0.0067427,0
14331,54.424,19.05,-3.7249e-07,0.0027489,-5.378e-11,14583,54.294,0,0,0,0,0.0067427,0
14331,54.424,19.05,-3.7249e-07,0.0027489,-5.378e-11,14583,54.294,0,0,0,0,0.0067427,0
14332,54.424,19.051,-3.7249e-07,0.0029906,-5.8514e-11,14583,54.294,0,0,0,0,0.0067835,0
14333,54.424,19.051,-3.725e-07,0.0031142,-6.0917e-11,14583,54.294,0,0,0,0,0.0068042,0
14333,54.424,19.051,-3.725e-07,0.0031142,-6.0917e-11,14583,54.294,0,0,0,0,0.0068042,0
14333,54.424,19.051,-3.725e-07,0.0031142,-6.0917e-11,14583,54.294,0,0,0,0,0.0068042,0
14334,54.424,19.051,-3.725e-07,0.0032383,-6.3213e-11,14583,54.294,0,0,0,0,0.0068249,0
14334,54.424,19.051,-3.725e-07,0.0032383,-6.3213e-11,14583,54.294,0,0,0,0,0.0068249,0
14334,54.424,19.051,-3.725e-07,0.0032383,-6.3213e-11,14583,54.294,0,0,0,0,0.0068249,0
14334,54.424,19.051,-3.725e-07,0.0032383,-6.3213e-11,14583,54.294,0,0,0,0,0.0068249,0
14334,54.424,19.051,-3.725e-07,0.0032383,-6.3213e-11,14583,54.294,0,0,0,0,0.0068249,0
14334,54.424,19.051,-3.725e-07,0.0032383,-6.3213e-11,14583,54.294,0,0,0,0,0.0068249,0
14334,54.424,19.051,-3.725e-07,0.0032383,-6.3213e-11,14583,54.294,0,0,0,0,0.0068249,0
14334,54.424,19.051,-3.725e-07,0.0032383,-6.3213e-11,14583,54.294,0,0,0,0,0.0068249,0
14334,54.424,19.051,-3.725e-07,0.0032383,-6.3213e-11,14583,54.294,0,0,0,0,0.0068249,0
14334,54.424,19.051,-3.725e-07,0.0032383,-6.3213e-11,14583,54.294,0,0,0,0,0.0068249,0
14334,54.424,19.051,-3.725e-07,0.0033628,-6.5746e-11,14583,54.294,0,0,0,0,0.0068458,0
14334,54.424,19.051,-3.725e-07,0.0033628,-6.5746e-11,14583,54.294,0,0,0,0,0.0068458,0
14334,54.424,19.051,-3.725e-07,0.0033628,-6.5746e-11,14583,54.294,0,0,0,0,0.0068458,0
14334,54.424,19.051,-3.725e-07,0.0033628,-6.5746e-11,14583,54.294,0,0,0,0,0.0068458,0
14334,54.424,19.051,-3.725e-07,0.0033628,-6.5746e-11,14583,54.294,0,0,0,0,0.0068458,0
14334,54.424,19.051,-3.725e-07,0.0033628,-6.5746e-11,14583,54.294,0,0,0,0,0.0068458,0
14334,54.424,19.051,-3.725e-07,0.0033628,-6.5746e-11,14583,54.294,0,0,0,0,0.0068458,0
14334,54.424,19.051,-3.725e-07,0.0033628,-6.5746e-11,14583,54.294,0,0,0,0,0.0068458,0
14334,54.424,19.051,-3.725e-07,0.0033628,-6.5746e-11,14583,54.294,0,0,0,0,0.0068458,0
14334,54.424,19.051,-3.725e-07,0.0033628,-6.5746e-11,14583,54.294,0,0,0,0,0.0068458,0
14335,54.424,19.051,-3.725e-07,0.0034892,-6.8215e-11,14583,54.294,0,0,0,0,0.0068668,0
14337,54.424,19.051,-3.7251e-07,0.0037433,-7.3135e-11,14583,54.294,0,0,0,0,0.0069092,0
14337,54.424,19.051,-3.7251e-07,0.0037433,-7.3135e-11,14583,54.294,0,0,0,0,0.0069092,0
14337,54.424,19.051,-3.7251e-07,0.0037433,-7.3135e-11,14583,54.294,0,0,0,0,0.0069092,0
14339,54.424,19.052,-3.7252e-07,0.0040671,-7.943e-11,14583,54.294,0,0,0,0,0.006963,0
14339,54.424,19.052,-3.7252e-07,0.0040671,-7.943e-11,14583,54.294,0,0,0,0,0.006963,0
14339,54.424,19.052,-3.7252e-07,0.0040671,-7.943e-11,14583,54.294,0,0,0,0,0.006963,0
14339,54.424,19.052,-3.7252e-07,0.0040671,-7.943e-11,14583,54.294,0,0,0,0,0.006963,0
14339,54.424,19.052,-3.7252e-07,0.0040671,-7.943e-11,14583,54.294,0,0,0,0,0.006963,0
14339,54.424,19.052,-3.7252e-07,0.0040671,-7.943e-11,14583,54.294,0,0,0,0,0.006963,0
14339,54.424,19.052,-3.7252e-07,0.0040671,-7.943e-11,14583,54.294,0,0,0,0,0.006963,0
14339,54.424,19.052,-3.7252e-07,0.0040671,-7.943e-11,14583,54.294,0,0,0,0,0.006963,0
14339,54.424,19.052,-3.7252e-07,0.0040671,-7.943e-11,14583,54.294,0,0,0,0,0.006963,0
14339,54.424,19.052,-3.7252e-07,0.0040671,-7.943e-11,14583,54.294,0,0,0,0,0.006963,0
14339,54.424,19.052,-3.7252e-07,0.0040671,-7.943e-11,14583,54.294,0,0,0,0,0.006963,0
14339,54.424,19.052,-3.7252e-07,0.0040671,-7.943e-11,14583,54.294,0,0,0,0,0.006963,0
14339,54.424,19.052,-3.7252e-07,0.0040671,-7.943e-11,14583,54.294,0,0,0,0,0.006963,0
14339,54.424,19.052,-3.7252e-07,0.0040671,-7.943e-11,14583,54.294,0,0,0,0,0.006963,0
14339,54.424,19.052,-3.7252e-07,0.0040671,-7.943e-11,14583,54.294,0,0,0,0,0.006963,0
14339,54.424,19.052,-3.7252e-07,0.0040671,-7.943e-11,14583,54.294,0,0,0,0,0.006963,0
14339,54.424,19.052,-3.7252e-07,0.0040671,-7.943e-11,14583,54.294,0,0,0,0,0.006963,0
14339,54.424,19.052,-3.7252e-07,0.0040671,-7.943e-11,14583,54.294,0,0,0,0,0.006963,0
14339,54.424,19.052,-3.7252e-07,0.0041981,-8.195e-11,14583,54.294,0,0,0,0,0.0069847,0
14339,54.424,19.052,-3.7252e-07,0.0041981,-8.195e-11,14583,54.294,0,0,0,0,0.0069847,0
14339,54.424,19.052,-3.7252e-07,0.0041981,-8.195e-11,14583,54.294,0,0,0,0,0.0069847,0
14339,54.424,19.052,-3.7252e-07,0.0041981,-8.195e-11,14583,54.294,0,0,0,0,0.0069847,0
14339,54.424,19.052,-3.7252e-07,0.0041981,-8.195e-11,14583,54.294,0,0,0,0,0.0069847,0
14339,54.424,19.052,-3.7252e-07,0.0041981,-8.195e-11,14583,54.294,0,0,0,0,0.0069847,0
14339,54.424,19.052,-3.7252e-07,0.0041981,-8.195e-11,14583,54.294,0,0,0,0,0.0069847,0
14341,54.424,19.052,-3.7253e-07,0.0044627,-8.7136e-11,14583,54.294,0,0,0,0,0.0070286,0
14341,54.424,19.052,-3.7253e-07,0.0045289,-8.8418e-11,14583,54.294,0,0,0,0,0.0070397,0
14341,54.424,19.052,-3.7253e-07,0.0045289,-8.8418e-11,14583,54.294,0,0,0,0,0.0070397,0
14343,54.424,19.053,-3.7254e-07,0.0047972,-9.3716e-11,14583,54.294,0,0,0,0,0.0070842,0
14343,54.424,19.053,-3.7254e-07,0.0047972,-9.3716e-11,14583,54.294,0,0,0,0,0.0070842,0
14344,54.424,19.053,-3.7254e-07,0.005,-9.7698e-11,14583,54.294,0,0,0,0,0.0071181,0
14344,54.424,19.053,-3.7254e-07,0.0050685,-9.905e-11,14583,54.294,0,0,0,0,0.0071294,0
14344,54.424,19.053,-3.7254e-07,0.0050685,-9.905e-11,14583,54.294,0,0,0,0,0.0071294,0
14345,54.424,19.053,-3.7255e-07,0.0051368,-1.0038e-10,14583,54.294,0,0,0,0,0.0071408,0
14345,54.424,19.053,-3.7255e-07,0.0051368,-1.0038e-10,14583,54.294,0,0,0,0,0.0071408,0
14345,54.424,19.053,-3.7255e-07,0.0051368,-1.0038e-10,14583,54.294,0,0,0,0,0.0071408,0
14345,54.424,19.053,-3.7255e-07,0.0051368,-1.0038e-10,14583,54.294,0,0,0,0,0.0071408,0
14345,54.424,19.053,-3.7255e-07,0.0051368,-1.0038e-10,14583,54.294,0,0,0,0,0.0071408,0
14345,54.424,19.053,-3.7255e-07,0.0051368,-1.0038e-10,14583,54.294,0,0,0,0,0.0071408,0
14345,54.424,19.053,-3.7255e-07,0.0051368,-1.0038e-10,14583,54.294,0,0,0,0,0.0071408,0
14345,54.424,19.053,-3.7255e-07,0.0051368,-1.0038e-10,14583,54.294,0,0,0,0,0.0071408,0
14345,54.424,19.053,-3.7255e-07,0.0051368,-1.0038e-10,14583,54.294,0,0,0,0,0.0071408,0
14345,54.424,19.053,-3.7255e-07,0.0051368,-1.0038e-10,14583,54.294,0,0,0,0,0.0071408,0
14345,54.424,19.053,-3.7255e-07,0.0051368,-1.0038e-10,14583,54.294,0,0,0,0,0.0071408,0
14345,54.424,19.053,-3.7255e-07,0.0051368,-1.0038e-10,14583,54.294,0,0,0,0,0.0071408,0
14345,54.424,19.053,-3.7255e-07,0.0051368,-1.0038e-10,14583,54.294,0,0,0,0,0.0071408,0
14345,54.424,19.053,-3.7255e-07,0.0051368,-1.0038e-10,14583,54.294,0,0,0,0,0.0071408,0
14345,54.424,19.053,-3.7255e-07,0.0051368,-1.0038e-10,14583,54.294,0,0,0,0,0.0071408,0
14345,54.424,19.053,-3.7255e-07,0.0051368,-1.0038e-10,14583,54.294,0,0,0,0,0.0071408,0
14345,54.424,19.053,-3.7255e-07,0.0052727,-1.0305e-10,14583,54.294,0,0,0,0,0.0071636,0
14345,54.424,19.053,-3.7255e-07,0.0052727,-1.0305e-10,14583,54.294,0,0,0,0,0.0071636,0
14345,54.424,19.053,-3.7255e-07,0.0052727,-1.0305e-10,14583,54.294,0,0,0,0,0.0071636,0
14345,54.424,19.053,-3.7255e-07,0.0052727,-1.0305e-10,14583,54.294,0,0,0,0,0.0071636,0
14346,54.424,19.054,-3.7255e-07,0.0053416,-1.044e-10,14583,54.294,0,0,0,0,0.0071751,0
14346,54.424,19.054,-3.7255e-07,0.0053416,-1.044e-10,14583,54.294,0,0,0,0,0.0071751,0
14346,54.424,19.054,-3.7255e-07,0.0053416,-1.044e-10,14583,54.294,0,0,0,0,0.0071751,0
14346,54.424,19.054,-3.7255e-07,0.0053416,-1.044e-10,14583,54.294,0,0,0,0,0.0071751,0
14348,54.424,19.054,-3.7257e-07,0.005756,-1.1257e-10,14583,54.294,0,0,0,0,0.0072448,0
14348,54.424,19.054,-3.7257e-07,0.005756,-1.1257e-10,14583,54.294,0,0,0,0,0.0072448,0
14349,54.424,19.055,-3.7257e-07,0.0059654,-1.1664e-10,14583,54.294,0,0,0,0,0.0072802,0
14349,54.424,19.055,-3.7257e-07,0.0059654,-1.1664e-10,14583,54.294,0,0,0,0,0.0072802,0
14350,54.424,19.055,-3.7257e-07,0.0060361,-1.1801e-10,14583,54.294,0,0,0,0,0.0072921,0
14350,54.424,19.055,-3.7257e-07,0.0060361,-1.1801e-10,14583,54.294,0,0,0,0,0.0072921,0
14350,54.424,19.055,-3.7257e-07,0.0060361,-1.1801e-10,14583,54.294,0,0,0,0,0.0072921,0
14350,54.424,19.055,-3.7257e-07,0.0060361,-1.1801e-10,14583,54.294,0,0,0,0,0.0072921,0
14350,54.424,19.055,-3.7257e-07,0.0060361,-1.1801e-10,14583,54.294,0,0,0,0,0.0072921,0
14350,54.424,19.055,-3.7257e-07,0.0060361,-1.1801e-10,14583,54.294,0,0,0,0,0.0072921,0
14350,54.424,19.055,-3.7257e-07,0.0060361,-1.1801e-10,14583,54.294,0,0,0,0,0.0072921,0
14350,54.424,19.055,-3.7257e-07,0.0060361,-1.1801e-10,14583,54.294,0,0,0,0,0.0072921,0
14350,54.424,19.055,-3.7257e-07,0.0060361,-1.1801e-10,14583,54.294,0,0,0,0,0.0072921,0
14351,54.424,19.055,-3.7258e-07,0.0062468,-1.2214e-10,14583,54.294,0,0,0,0,0.0073279,0
14351,54.424,19.055,-3.7258e-07,0.0062468,-1.2214e-10,14583,54.294,0,0,0,0,0.0073279,0
14351,54.424,19.055,-3.7258e-07,0.0062468,-1.2214e-10,14583,54.294,0,0,0,0,0.0073279,0
14351,54.424,19.055,-3.7258e-07,0.0062468,-1.2214e-10,14583,54.294,0,0,0,0,0.0073279,0
14351,54.424,19.055,-3.7258e-07,0.0063179,-1.2354e-10,14583,54.294,0,0,0,0,0.0073399,0
14351,54.424,19.055,-3.7258e-07,0.0063179,-1.2354e-10,14583,54.294,0,0,0,0,0.0073399,0
14351,54.424,19.055,-3.7258e-07,0.0063179,-1.2354e-10,14583,54.294,0,0,0,0,0.0073399,0
14351,54.424,19.055,-3.7258e-07,0.0063179,-1.2354e-10,14583,54.294,0,0,0,0,0.0073399,0
14353,54.424,19.056,-3.7259e-07,0.0066014,-1.2905e-10,14583,54.294,0,0,0,0,0.0073884,0
14353,54.424,19.056,-3.7259e-07,0.0066014,-1.2905e-10,14583,54.294,0,0,0,0,0.0073884,0
14353,54.424,19.056,-3.7259e-07,0.0066014,-1.2905e-10,14583,54.294,0,0,0,0,0.0073884,0
14353,54.424,19.056,-3.7259e-07,0.0066014,-1.2905e-10,14583,54.294,0,0,0,0,0.0073884,0
14353,54.424,19.056,-3.7259e-07,0.0066014,-1.2905e-10,14583,54.294,0,0,0,0,0.0073884,0
14353,54.424,19.056,-3.7259e-07,0.0066014,-1.2905e-10,14583,54.294,0,0,0,0,0.0073884,0
14353,54.424,19.056,-3.7259e-07,0.0066014,-1.2905e-10,14583,54.294,0,0,0,0,0.0073884,0
14353,54.424,19.056,-3.7259e-07,0.0066014,-1.2905e-10,14583,54.294,0,0,0,0,0.0073884,0
14353,54.424,19.056,-3.7259e-07,0.0066014,-1.2905e-10,14583,54.294,0,0,0,0,0.0073884,0
14353,54.424,19.056,-3.7259e-07,0.0066014,-1.2905e-10,14583,54.294,0,0,0,0,0.0073884,0
14353,54.424,19.056,-3.7259e-07,0.0066014,-1.2905e-10,14583,54.294,0,0,0,0,0.0073884,0
14353,54.424,19.056,-3.7259e-07,0.0066014,-1.2905e-10,14583,54.294,0,0,0,0,0.0073884,0
14353,54.424,19.056,-3.7259e-07,0.0066014,-1.2905e-10,14583,54.294,0,0,0,0,0.0073884,0
14353,54.424,19.056,-3.7259e-07,0.0066014,-1.2905e-10,14583,54.294,0,0,0,0,0.0073884,0
14353,54.424,19.056,-3.7259e-07,0.0066014,-1.2905e-10,14583,54.294,0,0,0,0,0.0073884,0
14353,54.424,19.056,-3.7259e-07,0.0066014,-1.2905e-10,14583,54.294,0,0,0,0,0.0073884,0
14353,54.424,19.056,-3.7259e-07,0.0066014,-1.2905e-10,14583,54.294,0,0,0,0,0.0073884,0
14355,54.424,19.056,-3.7261e-07,0.0069583,-1.3604e-10,14583,54.294,0,0,0,0,0.0074499,0
14355,54.424,19.056,-3.7261e-07,0.0069583,-1.3604e-10,14583,54.294,0,0,0,0,0.0074499,0
14355,54.424,19.056,-3.7261e-07,0.0069583,-1.3604e-10,14583,54.294,0,0,0,0,0.0074499,0
14355,54.424,19.056,-3.7261e-07,0.0069583,-1.3604e-10,14583,54.294,0,0,0,0,0.0074499,0
14356,54.424,19.057,-3.7262e-07,0.0071734,-1.402e-10,14583,54.294,0,0,0,0,0.0074873,0
14357,54.424,19.057,-3.7263e-07,0.0074617,-1.4589e-10,14583,54.294,0,0,0,0,0.0075378,0
14357,54.424,19.057,-3.7263e-07,0.0074617,-1.4589e-10,14583,54.294,0,0,0,0,0.0075378,0
14357,54.424,19.057,-3.7263e-07,0.0074617,-1.4589e-10,14583,54.294,0,0,0,0,0.0075378,0
14357,54.424,19.057,-3.7263e-07,0.0074617,-1.4589e-10,14583,54.294,0,0,0,0,0.0075378,0
14357,54.424,19.057,-3.7263e-07,0.0074617,-1.4589e-10,14583,54.294,0,0,0,0,0.0075378,0
14358,54.424,19.058,-3.7264e-07,0.0076785,-1.5015e-10,14583,54.294,0,0,0,0,0.0075761,0
14358,54.424,19.058,-3.7264e-07,0.0076785,-1.5015e-10,14583,54.294,0,0,0,0,0.0075761,0
14358,54.424,19.058,-3.7264e-07,0.0076785,-1.5015e-10,14583,54.294,0,0,0,0,0.0075761,0
14358,54.424,19.058,-3.7264e-07,0.0076785,-1.5015e-10,14583,54.294,0,0,0,0,0.0075761,0
14358,54.424,19.058,-3.7264e-07,0.0076785,-1.5015e-10,14583,54.294,0,0,0,0,0.0075761,0
14358,54.424,19.058,-3.7264e-07,0.0076785,-1.5015e-10,14583,54.294,0,0,0,0,0.0075761,0
14358,54.424,19.058,-3.7264e-07,0.0076785,-1.5015e-10,14583,54.294,0,0,0,0,0.0075761,0
14359,54.424,19.058,-3.7264e-07,0.0077516,-1.5155e-10,14583,54.294,0,0,0,0,0.007589,0
14359,54.424,19.058,-3.7264e-07,0.0077516,-1.5155e-10,14583,54.294,0,0,0,0,0.007589,0
14359,54.424,19.058,-3.7264e-07,0.0077516,-1.5155e-10,14583,54.294,0,0,0,0,0.007589,0
14359,54.424,19.058,-3.7264e-07,0.0077516,-1.5155e-10,14583,54.294,0,0,0,0,0.007589,0
14359,54.424,19.058,-3.7264e-07,0.0077516,-1.5155e-10,14583,54.294,0,0,0,0,0.007589,0
14359,54.424,19.058,-3.7264e-07,0.0077516,-1.5155e-10,14583,54.294,0,0,0,0,0.007589,0
14359,54.424,19.058,-3.7264e-07,0.0077516,-1.5155e-10,14583,54.294,0,0,0,0,0.007589,0
14359,54.424,19.058,-3.7264e-07,0.0078245,-1.5301e-10,14583,54.294,0,0,0,0,0.0076019,0
14359,54.424,19.058,-3.7264e-07,0.0078245,-1.5301e-10,14583,54.294,0,0,0,0,0.0076019,0
14359,54.424,19.058,-3.7264e-07,0.0078245,-1.5301e-10,14583,54.294,0,0,0,0,0.0076019,0
14360,54.424,19.059,-3.7265e-07,0.008043,-1.5729e-10,14583,54.294,0,0,0,0,0.0076408,0
14360,54.424,19.059,-3.7265e-07,0.008043,-1.5729e-10,14583,54.294,0,0,0,0,0.0076408,0
14361,54.424,19.059,-3.7266e-07,0.0081893,-1.6013e-10,14583,54.294,0,0,0,0,0.007667,0
14362,54.424,19.059,-3.7267e-07,0.0084095,-1.6449e-10,14583,54.294,0,0,0,0,0.0077066,0
14362,54.424,19.059,-3.7267e-07,0.0084095,-1.6449e-10,14583,54.294,0,0,0,0,0.0077066,0
14362,54.424,19.059,-3.7267e-07,0.0084095,-1.6449e-10,14583,54.294,0,0,0,0,0.0077066,0
14362,54.424,19.059,-3.7267e-07,0.0084095,-1.6449e-10,14583,54.294,0,0,0,0,0.0077066,0
14362,54.424,19.059,-3.7267e-07,0.0084095,-1.6449e-10,14583,54.294,0,0,0,0,0.0077066,0
14362,54.424,19.059,-3.7267e-07,0.0084095,-1.6449e-10,14583,54.294,0,0,0,0,0.0077066,0
14362,54.424,19.059,-3.7267e-07,0.0084095,-1.6449e-10,14583,54.294,0,0,0,0,0.0077066,0
14362,54.424,19.059,-3.7267e-07,0.0084095,-1.6449e-10,14583,54.294,0,0,0,0,0.0077066,0
14362,54.424,19.059,-3.7267e-07,0.0084095,-1.6449e-10,14583,54.294,0,0,0,0,0.0077066,0
14362,54.424,19.059,-3.7267e-07,0.0084095,-1.6449e-10,14583,54.294,0,0,0,0,0.0077066,0
14362,54.424,19.059,-3.7267e-07,0.0084095,-1.6449e-10,14583,54.294,0,0,0,0,0.0077066,0
14362,54.424,19.059,-3.7267e-07,0.0084095,-1.6449e-10,14583,54.294,0,0,0,0,0.0077066,0
14362,54.424,19.059,-3.7267e-07,0.0084095,-1.6449e-10,14583,54.294,0,0,0,0,0.0077066,0
14363,54.424,19.06,-3.7268e-07,0.0086289,-1.688e-10,14583,54.294,0,0,0,0,0.0077467,0
14363,54.424,19.06,-3.7268e-07,0.0086289,-1.688e-10,14583,54.294,0,0,0,0,0.0077467,0
14363,54.424,19.06,-3.7268e-07,0.0086289,-1.688e-10,14583,54.294,0,0,0,0,0.0077467,0
14363,54.424,19.06,-3.7268e-07,0.0086289,-1.688e-10,14583,54.294,0,0,0,0,0.0077467,0
14363,54.424,19.06,-3.7268e-07,0.0086289,-1.688e-10,14583,54.294,0,0,0,0,0.0077467,0
14363,54.424,19.06,-3.7268e-07,0.0086289,-1.688e-10,14583,54.294,0,0,0,0,0.0077467,0
14363,54.424,19.06,-3.7268e-07,0.0086289,-1.688e-10,14583,54.294,0,0,0,0,0.0077467,0
14363,54.424,19.06,-3.7268e-07,0.0086289,-1.688e-10,14583,54.294,0,0,0,0,0.0077467,0
14363,54.424,19.06,-3.7268e-07,0.0086289,-1.688e-10,14583,54.294,0,0,0,0,0.0077467,0
14363,54.424,19.06,-3.7268e-07,0.0086289,-1.688e-10,14583,54.294,0,0,0,0,0.0077467,0
14363,54.424,19.06,-3.7268e-07,0.0086289,-1.688e-10,14583,54.294,0,0,0,0,0.0077467,0
14363,54.424,19.06,-3.7268e-07,0.0086289,-1.688e-10,14583,54.294,0,0,0,0,0.0077467,0
14363,54.424,19.06,-3.7268e-07,0.0086289,-1.688e-10,14583,54.294,0,0,0,0,0.0077467,0
14366,54.424,19.061,-3.727e-07,0.0090717,-1.775e-10,14583,54.294,0,0,0,0,0.007828,0
14366,54.424,19.061,-3.727e-07,0.0090717,-1.775e-10,14583,54.294,0,0,0,0,0.007828,0
14366,54.424,19.061,-3.727e-07,0.0090717,-1.775e-10,14583,54.294,0,0,0,0,0.007828,0
14366,54.424,19.061,-3.727e-07,0.0090717,-1.775e-10,14583,54.294,0,0,0,0,0.007828,0
14366,54.424,19.061,-3.727e-07,0.0090717,-1.775e-10,14583,54.294,0,0,0,0,0.007828,0
14368,54.424,19.062,-3.7272e-07,0.009441,-1.8464e-10,14583,54.294,0,0,0,0,0.0078971,0
14368,54.424,19.062,-3.7272e-07,0.0095149,-1.8611e-10,14583,54.294,0,0,0,0,0.0079111,0
14368,54.424,19.062,-3.7272e-07,0.0095149,-1.8611e-10,14583,54.294,0,0,0,0,0.0079111,0
14368,54.424,19.062,-3.7272e-07,0.0095149,-1.8611e-10,14583,54.294,0,0,0,0,0.0079111,0
14368,54.424,19.062,-3.7272e-07,0.0095149,-1.8611e-10,14583,54.294,0,0,0,0,0.0079111,0
14369,54.424,19.063,-3.7273e-07,0.0097378,-1.905e-10,14583,54.294,0,0,0,0,0.0079533,0
14369,54.424,19.063,-3.7273e-07,0.0097378,-1.905e-10,14583,54.294,0,0,0,0,0.0079533,0
14369,54.424,19.063,-3.7273e-07,0.0097378,-1.905e-10,14583,54.294,0,0,0,0,0.0079533,0
14369,54.424,19.063,-3.7273e-07,0.0097378,-1.905e-10,14583,54.294,0,0,0,0,0.0079533,0
14369,54.424,19.063,-3.7273e-07,0.0097378,-1.905e-10,14583,54.294,0,0,0,0,0.0079533,0
14369,54.424,19.063,-3.7273e-07,0.0097378,-1.905e-10,14583,54.294,0,0,0,0,0.0079533,0
14369,54.424,19.063,-3.7273e-07,0.0097378,-1.905e-10,14583,54.294,0,0,0,0,0.0079533,0
14369,54.424,19.063,-3.7273e-07,0.0097378,-1.905e-10,14583,54.294,0,0,0,0,0.0079533,0
14369,54.424,19.063,-3.7273e-07,0.0097378,-1.905e-10,14583,54.294,0,0,0,0,0.0079533,0
14369,54.424,19.063,-3.7273e-07,0.0097378,-1.905e-10,14583,54.294,0,0,0,0,0.0079533,0
14370,54.424,19.063,-3.7274e-07,0.009886,-1.9328e-10,14583,54.294,0,0,0,0,0.0079817,0
14370,54.424,19.063,-3.7274e-07,0.009886,-1.9328e-10,14583,54.294,0,0,0,0,0.0079817,0
14370,54.424,19.063,-3.7274e-07,0.009886,-1.9328e-10,14583,54.294,0,0,0,0,0.0079817,0
14370,54.424,19.063,-3.7274e-07,0.009886,-1.9328e-10,14583,54.294,0,0,0,0,0.0079817,0
14370,54.424,19.063,-3.7274e-07,0.009886,-1.9328e-10,14583,54.294,0,0,0,0,0.0079817,0
14370,54.424,19.063,-3.7274e-07,0.009886,-1.9328e-10,14583,54.294,0,0,0,0,0.0079817,0
14370,54.424,19.063,-3.7274e-07,0.009886,-1.9328e-10,14583,54.294,0,0,0,0,0.0079817,0
14370,54.424,19.063,-3.7274e-07,0.009886,-1.9328e-10,14583,54.294,0,0,0,0,0.0079817,0
14370,54.424,19.063,-3.7274e-07,0.009886,-1.9328e-10,14583,54.294,0,0,0,0,0.0079817,0
14370,54.424,19.063,-3.7274e-07,0.009886,-1.9328e-10,14583,54.294,0,0,0,0,0.0079817,0
14370,54.424,19.063,-3.7274e-07,0.009886,-1.9328e-10,14583,54.294,0,0,0,0,0.0079817,0
14371,54.424,19.064,-3.7275e-07,0.01011,-1.9769e-10,14583,54.294,0,0,0,0,0.0080247,0
14371,54.424,19.064,-3.7275e-07,0.01011,-1.9769e-10,14583,54.294,0,0,0,0,0.0080247,0
14371,54.424,19.064,-3.7275e-07,0.01011,-1.9769e-10,14583,54.294,0,0,0,0,0.0080247,0
14373,54.424,19.065,-3.7277e-07,0.010483,-2.0509e-10,14583,54.294,0,0,0,0,0.0080973,0
14373,54.424,19.065,-3.7277e-07,0.010483,-2.0509e-10,14583,54.294,0,0,0,0,0.0080973,0
14374,54.424,19.065,-3.7278e-07,0.010707,-2.0937e-10,14583,54.294,0,0,0,0,0.0081416,0
14374,54.424,19.065,-3.7278e-07,0.010707,-2.0937e-10,14583,54.294,0,0,0,0,0.0081416,0
14374,54.424,19.065,-3.7278e-07,0.010707,-2.0937e-10,14583,54.294,0,0,0,0,0.0081416,0
14374,54.424,19.065,-3.7278e-07,0.010707,-2.0937e-10,14583,54.294,0,0,0,0,0.0081416,0
14374,54.424,19.065,-3.7278e-07,0.010707,-2.0937e-10,14583,54.294,0,0,0,0,0.0081416,0
14374,54.424,19.065,-3.7278e-07,0.010707,-2.0937e-10,14583,54.294,0,0,0,0,0.0081416,0
14374,54.424,19.065,-3.7278e-07,0.010707,-2.0937e-10,14583,54.294,0,0,0,0,0.0081416,0
14374,54.424,19.065,-3.7278e-07,0.010707,-2.0937e-10,14583,54.294,0,0,0,0,0.0081416,0
14374,54.424,19.065,-3.7278e-07,0.010707,-2.0937e-10,14583,54.294,0,0,0,0,0.0081416,0
14374,54.424,19.065,-3.7278e-07,0.010707,-2.0937e-10,14583,54.294,0,0,0,0,0.0081416,0
14374,54.424,19.065,-3.7278e-07,0.010707,-2.0937e-10,14583,54.294,0,0,0,0,0.0081416,0
14375,54.424,19.066,-3.7279e-07,0.010856,-2.1227e-10,14583,54.294,0,0,0,0,0.0081713,0
14375,54.424,19.066,-3.7279e-07,0.010856,-2.1227e-10,14583,54.294,0,0,0,0,0.0081713,0
14375,54.424,19.066,-3.7279e-07,0.010856,-2.1227e-10,14583,54.294,0,0,0,0,0.0081713,0
14375,54.424,19.066,-3.7279e-07,0.010856,-2.1227e-10,14583,54.294,0,0,0,0,0.0081713,0
14375,54.424,19.066,-3.7279e-07,0.010856,-2.1227e-10,14583,54.294,0,0,0,0,0.0081713,0
14375,54.424,19.066,-3.7279e-07,0.010856,-2.1227e-10,14583,54.294,0,0,0,0,0.0081713,0
14375,54.424,19.066,-3.7279e-07,0.010856,-2.1227e-10,14583,54.294,0,0,0,0,0.0081713,0
14375,54.424,19.066,-3.7279e-07,0.010856,-2.1227e-10,14583,54.294,0,0,0,0,0.0081713,0
14375,54.424,19.066,-3.7279e-07,0.010856,-2.1227e-10,14583,54.294,0,0,0,0,0.0081713,0
14375,54.424,19.066,-3.7279e-07,0.010856,-2.1227e-10,14583,54.294,0,0,0,0,0.0081713,0
14375,54.424,19.066,-3.7279e-07,0.010856,-2.1227e-10,14583,54.294,0,0,0,0,0.0081713,0
14375,54.424,19.066,-3.7279e-07,0.010856,-2.1227e-10,14583,54.294,0,0,0,0,0.0081713,0
14376,54.424,19.066,-3.728e-07,0.011006,-2.152e-10,14583,54.294,0,0,0,0,0.0082013,0
14376,54.424,19.066,-3.728e-07,0.011006,-2.152e-10,14583,54.294,0,0,0,0,0.0082013,0
14376,54.424,19.066,-3.728e-07,0.011006,-2.152e-10,14583,54.294,0,0,0,0,0.0082013,0
14376,54.424,19.066,-3.728e-07,0.011006,-2.152e-10,14583,54.294,0,0,0,0,0.0082013,0
14378,54.424,19.068,-3.7283e-07,0.011455,-2.2397e-10,14583,54.294,0,0,0,0,0.0082926,0
14378,54.424,19.068,-3.7283e-07,0.011455,-2.2397e-10,14583,54.294,0,0,0,0,0.0082926,0
14378,54.424,19.068,-3.7283e-07,0.011455,-2.2397e-10,14583,54.294,0,0,0,0,0.0082926,0
14378,54.424,19.068,-3.7283e-07,0.011455,-2.2397e-10,14583,54.294,0,0,0,0,0.0082926,0
14378,54.424,19.068,-3.7283e-07,0.011455,-2.2397e-10,14583,54.294,0,0,0,0,0.0082926,0
14378,54.424,19.068,-3.7283e-07,0.011455,-2.2397e-10,14583,54.294,0,0,0,0,0.0082926,0
14378,54.424,19.068,-3.7283e-07,0.011455,-2.2397e-10,14583,54.294,0,0,0,0,0.0082926,0
14380,54.424,19.069,-3.7285e-07,0.011904,-2.3275e-10,14583,54.294,0,0,0,0,0.0083859,0
14380,54.424,19.069,-3.7285e-07,0.011904,-2.3275e-10,14583,54.294,0,0,0,0,0.0083859,0
14380,54.424,19.069,-3.7285e-07,0.011904,-2.3275e-10,14583,54.294,0,0,0,0,0.0083859,0
14380,54.424,19.069,-3.7285e-07,0.011904,-2.3275e-10,14583,54.294,0,0,0,0,0.0083859,0
14380,54.424,19.069,-3.7285e-07,0.011904,-2.3275e-10,14583,54.294,0,0,0,0,0.0083859,0
14380,54.424,19.069,-3.7285e-07,0.011904,-2.3275e-10,14583,54.294,0,0,0,0,0.0083859,0
14380,54.424,19.069,-3.7285e-07,0.011904,-2.3275e-10,14583,54.294,0,0,0,0,0.0083859,0
14381,54.424,19.069,-3.7286e-07,0.012055,-2.3569e-10,14583,54.294,0,0,0,0,0.0084175,0
14381,54.424,19.069,-3.7286e-07,0.012055,-2.3569e-10,14583,54.294,0,0,0,0,0.0084175,0
14381,54.424,19.069,-3.7286e-07,0.012055,-2.3569e-10,14583,54.294,0,0,0,0,0.0084175,0
14381,54.424,19.069,-3.7286e-07,0.012055,-2.3569e-10,14583,54.294,0,0,0,0,0.0084175,0
14381,54.424,19.069,-3.7286e-07,0.012055,-2.3569e-10,14583,54.294,0,0,0,0,0.0084175,0
14381,54.424,19.069,-3.7286e-07,0.012055,-2.3569e-10,14583,54.294,0,0,0,0,0.0084175,0
14381,54.424,19.069,-3.7286e-07,0.012055,-2.3569e-10,14583,54.294,0,0,0,0,0.0084175,0
14381,54.424,19.069,-3.7286e-07,0.012055,-2.3569e-10,14583,54.294,0,0,0,0,0.0084175,0
14381,54.424,19.069,-3.7286e-07,0.012055,-2.3569e-10,14583,54.294,0,0,0,0,0.0084175,0
14382,54.424,19.07,-3.7287e-07,0.012205,-2.3861e-10,14583,54.294,0,0,0,0,0.0084493,0
14382,54.424,19.07,-3.7287e-07,0.012205,-2.3861e-10,14583,54.294,0,0,0,0,0.0084493,0
14382,54.424,19.07,-3.7287e-07,0.012205,-2.3861e-10,14583,54.294,0,0,0,0,0.0084493,0
14382,54.424,19.07,-3.7287e-07,0.012205,-2.3861e-10,14583,54.294,0,0,0,0,0.0084493,0
14382,54.424,19.07,-3.7287e-07,0.012205,-2.3861e-10,14583,54.294,0,0,0,0,0.0084493,0
14382,54.424,19.07,-3.7287e-07,0.012205,-2.3861e-10,14583,54.294,0,0,0,0,0.0084493,0
14382,54.424,19.07,-3.7287e-07,0.012205,-2.3861e-10,14583,54.294,0,0,0,0,0.0084493,0
14382,54.424,19.07,-3.7287e-07,0.012205,-2.3861e-10,14583,54.294,0,0,0,0,0.0084493,0
14383,54.424,19.071,-3.7289e-07,0.012505,-2.4445e-10,14583,54.294,0,0,0,0,0.0085137,0
14384,54.424,19.071,-3.729e-07,0.01258,-2.4601e-10,14583,54.294,0,0,0,0,0.0085299,0
14384,54.424,19.071,-3.729e-07,0.01258,-2.4601e-10,14583,54.294,0,0,0,0,0.0085299,0
14385,54.424,19.072,-3.7291e-07,0.012805,-2.5039e-10,14583,54.294,0,0,0,0,0.008579,0
14385,54.424,19.072,-3.7291e-07,0.012805,-2.5039e-10,14583,54.294,0,0,0,0,0.008579,0
14386,54.424,19.073,-3.7293e-07,0.01303,-2.548e-10,14583,54.294,0,0,0,0,0.0086287,0
14386,54.424,19.073,-3.7293e-07,0.01303,-2.548e-10,14583,54.294,0,0,0,0,0.0086287,0
14386,54.424,19.073,-3.7293e-07,0.01303,-2.548e-10,14583,54.294,0,0,0,0,0.0086287,0
14386,54.424,19.073,-3.7293e-07,0.01303,-2.548e-10,14583,54.294,0,0,0,0,0.0086287,0
14386,54.424,19.073,-3.7293e-07,0.01303,-2.548e-10,14583,54.294,0,0,0,0,0.0086287,0
14386,54.424,19.073,-3.7293e-07,0.01303,-2.548e-10,14583,54.294,0,0,0,0,0.0086287,0
14387,54.424,19.074,-3.7294e-07,0.013256,-2.5921e-10,14583,54.294,0,0,0,0,0.008679,0
14387,54.424,19.074,-3.7294e-07,0.013256,-2.5921e-10,14583,54.294,0,0,0,0,0.008679,0
14387,54.424,19.074,-3.7294e-07,0.013256,-2.5921e-10,14583,54.294,0,0,0,0,0.008679,0
14387,54.424,19.074,-3.7294e-07,0.013256,-2.5921e-10,14583,54.294,0,0,0,0,0.008679,0
14387,54.424,19.074,-3.7294e-07,0.013256,-2.5921e-10,14583,54.294,0,0,0,0,0.008679,0
14387,54.424,19.074,-3.7294e-07,0.013256,-2.5921e-10,14583,54.294,0,0,0,0,0.008679,0
14387,54.424,19.074,-3.7295e-07,0.013331,-2.6067e-10,14583,54.294,0,0,0,0,0.0086958,0
14387,54.424,19.074,-3.7295e-07,0.013331,-2.6067e-10,14583,54.294,0,0,0,0,0.0086958,0
14387,54.424,19.074,-3.7295e-07,0.013331,-2.6067e-10,14583,54.294,0,0,0,0,0.0086958,0
14387,54.424,19.074,-3.7295e-07,0.013331,-2.6067e-10,14583,54.294,0,0,0,0,0.0086958,0
14387,54.424,19.074,-3.7295e-07,0.013331,-2.6067e-10,14583,54.294,0,0,0,0,0.0086958,0
14388,54.424,19.074,-3.7295e-07,0.013405,-2.6211e-10,14583,54.294,0,0,0,0,0.0087128,0
14388,54.424,19.074,-3.7295e-07,0.013405,-2.6211e-10,14583,54.294,0,0,0,0,0.0087128,0
14388,54.424,19.074,-3.7295e-07,0.013405,-2.6211e-10,14583,54.294,0,0,0,0,0.0087128,0
14388,54.424,19.074,-3.7295e-07,0.013405,-2.6211e-10,14583,54.294,0,0,0,0,0.0087128,0
14389,54.424,19.075,-3.7297e-07,0.013631,-2.6656e-10,14583,54.294,0,0,0,0,0.0087641,0
14389,54.424,19.075,-3.7297e-07,0.013631,-2.6656e-10,14583,54.294,0,0,0,0,0.0087641,0
14390,54.424,19.076,-3.7299e-07,0.013856,-2.7097e-10,14583,54.294,0,0,0,0,0.0088159,0
14390,54.424,19.076,-3.7299e-07,0.013856,-2.7097e-10,14583,54.294,0,0,0,0,0.0088159,0
14390,54.424,19.076,-3.7299e-07,0.013931,-2.7235e-10,14583,54.294,0,0,0,0,0.0088333,0
14390,54.424,19.076,-3.7299e-07,0.013931,-2.7235e-10,14583,54.294,0,0,0,0,0.0088333,0
14390,54.424,19.076,-3.7299e-07,0.013931,-2.7235e-10,14583,54.294,0,0,0,0,0.0088333,0
14391,54.424,19.076,-3.73e-07,0.014006,-2.738e-10,14583,54.294,0,0,0,0,0.0088508,0
14391,54.424,19.076,-3.73e-07,0.014006,-2.738e-10,14583,54.294,0,0,0,0,0.0088508,0
14391,54.424,19.076,-3.73e-07,0.014006,-2.738e-10,14583,54.294,0,0,0,0,0.0088508,0
14391,54.424,19.076,-3.73e-07,0.014006,-2.738e-10,14583,54.294,0,0,0,0,0.0088508,0
14391,54.424,19.076,-3.73e-07,0.014006,-2.738e-10,14583,54.294,0,0,0,0,0.0088508,0
14391,54.424,19.076,-3.73e-07,0.014006,-2.738e-10,14583,54.294,0,0,0,0,0.0088508,0
14391,54.424,19.076,-3.73e-07,0.014006,-2.738e-10,14583,54.294,0,0,0,0,0.0088508,0
14391,54.424,19.076,-3.73e-07,0.014006,-2.738e-10,14583,54.294,0,0,0,0,0.0088508,0
14392,54.424,19.077,-3.7301e-07,0.014231,-2.7832e-10,14583,54.294,0,0,0,0,0.0089037,0
14392,54.424,19.077,-3.7301e-07,0.014231,-2.7832e-10,14583,54.294,0,0,0,0,0.0089037,0
14392,54.424,19.077,-3.7301e-07,0.014231,-2.7832e-10,14583,54.294,0,0,0,0,0.0089037,0
14392,54.424,19.077,-3.7301e-07,0.014231,-2.7832e-10,14583,54.294,0,0,0,0,0.0089037,0
14393,54.424,19.078,-3.7303e-07,0.014456,-2.8268e-10,14583,54.294,0,0,0,0,0.0089573,0
14393,54.424,19.078,-3.7303e-07,0.014456,-2.8268e-10,14583,54.294,0,0,0,0,0.0089573,0
14394,54.424,19.079,-3.7304e-07,0.014606,-2.855e-10,14583,54.294,0,0,0,0,0.0089933,0
14394,54.424,19.079,-3.7304e-07,0.014606,-2.855e-10,14583,54.294,0,0,0,0,0.0089933,0
14394,54.424,19.079,-3.7304e-07,0.014606,-2.855e-10,14583,54.294,0,0,0,0,0.0089933,0
14394,54.424,19.079,-3.7304e-07,0.014606,-2.855e-10,14583,54.294,0,0,0,0,0.0089933,0
14394,54.424,19.079,-3.7304e-07,0.014606,-2.855e-10,14583,54.294,0,0,0,0,0.0089933,0
14395,54.424,19.079,-3.7305e-07,0.014756,-2.8858e-10,14583,54.294,0,0,0,0,0.0090297,0
14395,54.424,19.079,-3.7305e-07,0.014756,-2.8858e-10,14583,54.294,0,0,0,0,0.0090297,0
14395,54.424,19.079,-3.7305e-07,0.014756,-2.8858e-10,14583,54.294,0,0,0,0,0.0090297,0
14395,54.424,19.079,-3.7306e-07,0.01483,-2.9001e-10,14583,54.294,0,0,0,0,0.009048,0
14395,54.424,19.079,-3.7306e-07,0.01483,-2.9001e-10,14583,54.294,0,0,0,0,0.009048,0
14395,54.424,19.08,-3.7306e-07,0.014905,-2.9146e-10,14583,54.294,0,0,0,0,0.0090663,0
14396,54.424,19.08,-3.7307e-07,0.01498,-2.9293e-10,14583,54.294,0,0,0,0,0.0090848,0
14396,54.424,19.08,-3.7308e-07,0.015055,-2.9441e-10,14583,54.294,0,0,0,0,0.0091033,0
14396,54.424,19.08,-3.7308e-07,0.015055,-2.9441e-10,14583,54.294,0,0,0,0,0.0091033,0
14396,54.424,19.08,-3.7308e-07,0.015055,-2.9441e-10,14583,54.294,0,0,0,0,0.0091033,0
14397,54.424,19.081,-3.7309e-07,0.015204,-2.9721e-10,14583,54.294,0,0,0,0,0.0091405,0
14397,54.424,19.081,-3.7309e-07,0.015204,-2.9721e-10,14583,54.294,0,0,0,0,0.0091405,0
14397,54.424,19.081,-3.7309e-07,0.015204,-2.9721e-10,14583,54.294,0,0,0,0,0.0091405,0
14397,54.424,19.081,-3.7309e-07,0.015204,-2.9721e-10,14583,54.294,0,0,0,0,0.0091405,0
14397,54.424,19.081,-3.7309e-07,0.015204,-2.9721e-10,14583,54.294,0,0,0,0,0.0091405,0
14397,54.424,19.081,-3.7309e-07,0.015204,-2.9721e-10,14583,54.294,0,0,0,0,0.0091405,0
14397,54.424,19.081,-3.7309e-07,0.015204,-2.9721e-10,14583,54.294,0,0,0,0,0.0091405,0
14397,54.424,19.081,-3.7309e-07,0.015204,-2.9721e-10,14583,54.294,0,0,0,0,0.0091405,0
14397,54.424,19.081,-3.7309e-07,0.015204,-2.9721e-10,14583,54.294,0,0,0,0,0.0091405,0
14397,54.424,19.081,-3.7309e-07,0.015204,-2.9721e-10,14583,54.294,0,0,0,0,0.0091405,0
14397,54.424,19.081,-3.7309e-07,0.015204,-2.9721e-10,14583,54.294,0,0,0,0,0.0091405,0
14397,54.424,19.081,-3.7309e-07,0.015204,-2.9721e-10,14583,54.294,0,0,0,0,0.0091405,0
14397,54.424,19.081,-3.7309e-07,0.015204,-2.9721e-10,14583,54.294,0,0,0,0,0.0091405,0
14397,54.424,19.081,-3.7309e-07,0.015204,-2.9721e-10,14583,54.294,0,0,0,0,0.0091405,0
14397,54.424,19.081,-3.7309e-07,0.015204,-2.9721e-10,14583,54.294,0,0,0,0,0.0091405,0
14397,54.424,19.081,-3.7309e-07,0.015204,-2.9721e-10,14583,54.294,0,0,0,0,0.0091405,0
14397,54.424,19.081,-3.7309e-07,0.015204,-2.9721e-10,14583,54.294,0,0,0,0,0.0091405,0
14397,54.424,19.081,-3.7309e-07,0.015204,-2.9721e-10,14583,54.294,0,0,0,0,0.0091405,0
14397,54.424,19.081,-3.7309e-07,0.015204,-2.9721e-10,14583,54.294,0,0,0,0,0.0091405,0
14398,54.424,19.082,-3.7311e-07,0.015429,-3.0172e-10,14583,54.294,0,0,0,0,0.009197,0
14398,54.424,19.082,-3.7311e-07,0.015429,-3.0172e-10,14583,54.294,0,0,0,0,0.009197,0
14400,54.424,19.083,-3.7313e-07,0.015727,-3.0745e-10,14583,54.294,0,0,0,0,0.0092733,0
14400,54.424,19.083,-3.7313e-07,0.015727,-3.0745e-10,14583,54.294,0,0,0,0,0.0092733,0
14400,54.424,19.083,-3.7313e-07,0.015727,-3.0745e-10,14583,54.294,0,0,0,0,0.0092733,0
14400,54.424,19.083,-3.7314e-07,0.015802,-3.0899e-10,14583,54.294,0,0,0,0,0.0092926,0
14400,54.424,19.083,-3.7314e-07,0.015802,-3.0899e-10,14583,54.294,0,0,0,0,0.0092926,0
14401,54.424,19.084,-3.7315e-07,0.016025,-3.1335e-10,14583,54.294,0,0,0,0,0.009351,0
14402,54.424,19.085,-3.7316e-07,0.016099,-3.1483e-10,14583,54.294,0,0,0,0,0.0093706,0
14402,54.424,19.085,-3.7317e-07,0.016248,-3.1764e-10,14583,54.294,0,0,0,0,0.0094101,0
14402,54.424,19.085,-3.7317e-07,0.016248,-3.1764e-10,14583,54.294,0,0,0,0,0.0094101,0
14403,54.424,19.086,-3.7318e-07,0.016323,-3.1912e-10,14583,54.294,0,0,0,0,0.0094299,0
14403,54.424,19.086,-3.7318e-07,0.016323,-3.1912e-10,14583,54.294,0,0,0,0,0.0094299,0
14403,54.424,19.086,-3.7318e-07,0.016323,-3.1912e-10,14583,54.294,0,0,0,0,0.0094299,0
14403,54.424,19.086,-3.7318e-07,0.016323,-3.1912e-10,14583,54.294,0,0,0,0,0.0094299,0
14403,54.424,19.086,-3.7318e-07,0.016323,-3.1912e-10,14583,54.294,0,0,0,0,0.0094299,0
14403,54.424,19.086,-3.7318e-07,0.016323,-3.1912e-10,14583,54.294,0,0,0,0,0.0094299,0
14403,54.424,19.086,-3.7318e-07,0.016323,-3.1912e-10,14583,54.294,0,0,0,0,0.0094299,0
14403,54.424,19.086,-3.7318e-07,0.016323,-3.1912e-10,14583,54.294,0,0,0,0,0.0094299,0
14403,54.424,19.086,-3.7318e-07,0.016323,-3.1912e-10,14583,54.294,0,0,0,0,0.0094299,0
14403,54.424,19.086,-3.7318e-07,0.016323,-3.1912e-10,14583,54.294,0,0,0,0,0.0094299,0
14403,54.424,19.086,-3.7318e-07,0.016323,-3.1912e-10,14583,54.294,0,0,0,0,0.0094299,0
14403,54.424,19.086,-3.7318e-07,0.016323,-3.1912e-10,14583,54.294,0,0,0,0,0.0094299,0
14403,54.424,19.086,-3.7319e-07,0.016471,-3.2211e-10,14583,54.294,0,0,0,0,0.0094699,0
14403,54.424,19.086,-3.7319e-07,0.016471,-3.2211e-10,14583,54.294,0,0,0,0,0.0094699,0
14403,54.424,19.086,-3.7319e-07,0.016471,-3.2211e-10,14583,54.294,0,0,0,0,0.0094699,0
14403,54.424,19.086,-3.7319e-07,0.016471,-3.2211e-10,14583,54.294,0,0,0,0,0.0094699,0
14403,54.424,19.086,-3.7319e-07,0.016471,-3.2211e-10,14583,54.294,0,0,0,0,0.0094699,0
14403,54.424,19.086,-3.7319e-07,0.016471,-3.2211e-10,14583,54.294,0,0,0,0,0.0094699,0
14403,54.424,19.086,-3.7319e-07,0.016471,-3.2211e-10,14583,54.294,0,0,0,0,0.0094699,0
14403,54.424,19.086,-3.7319e-07,0.016471,-3.2211e-10,14583,54.294,0,0,0,0,0.0094699,0
14404,54.424,19.087,-3.7321e-07,0.016619,-3.2502e-10,14583,54.294,0,0,0,0,0.0095103,0
14405,54.424,19.088,-3.7322e-07,0.016768,-3.2786e-10,14583,54.294,0,0,0,0,0.0095509,0
14406,54.424,19.089,-3.7324e-07,0.01699,-3.3217e-10,14583,54.294,0,0,0,0,0.0096126,0
14406,54.424,19.089,-3.7324e-07,0.01699,-3.3217e-10,14583,54.294,0,0,0,0,0.0096126,0
14406,54.424,19.089,-3.7324e-07,0.01699,-3.3217e-10,14583,54.294,0,0,0,0,0.0096126,0
14406,54.424,19.089,-3.7324e-07,0.01699,-3.3217e-10,14583,54.294,0,0,0,0,0.0096126,0
14406,54.424,19.089,-3.7324e-07,0.01699,-3.3217e-10,14583,54.294,0,0,0,0,0.0096126,0
14406,54.424,19.089,-3.7324e-07,0.01699,-3.3217e-10,14583,54.294,0,0,0,0,0.0096126,0
14406,54.424,19.089,-3.7324e-07,0.01699,-3.3217e-10,14583,54.294,0,0,0,0,0.0096126,0
14406,54.424,19.089,-3.7324e-07,0.01699,-3.3217e-10,14583,54.294,0,0,0,0,0.0096126,0
14406,54.424,19.089,-3.7324e-07,0.01699,-3.3217e-10,14583,54.294,0,0,0,0,0.0096126,0
14406,54.424,19.089,-3.7324e-07,0.01699,-3.3217e-10,14583,54.294,0,0,0,0,0.0096126,0
14406,54.424,19.089,-3.7324e-07,0.01699,-3.3217e-10,14583,54.294,0,0,0,0,0.0096126,0
14406,54.424,19.089,-3.7324e-07,0.01699,-3.3217e-10,14583,54.294,0,0,0,0,0.0096126,0
14406,54.424,19.089,-3.7324e-07,0.01699,-3.3217e-10,14583,54.294,0,0,0,0,0.0096126,0
14406,54.424,19.089,-3.7324e-07,0.01699,-3.3217e-10,14583,54.294,0,0,0,0,0.0096126,0
14406,54.424,19.089,-3.7324e-07,0.01699,-3.3217e-10,14583,54.294,0,0,0,0,0.0096126,0
14406,54.424,19.089,-3.7324e-07,0.01699,-3.3217e-10,14583,54.294,0,0,0,0,0.0096126,0
14408,54.424,19.09,-3.7327e-07,0.01736,-3.3945e-10,14583,54.294,0,0,0,0,0.0097172,0
14408,54.424,19.09,-3.7327e-07,0.01736,-3.3945e-10,14583,54.294,0,0,0,0,0.0097172,0
