-22.701,1.2881,-4.1004,-16.239,5.1698,-27.266,6.7071,-28.767,-11.393,-47.666,15.838,-14.6,-3.7541,-62.958,0.83181,-11.042
-22.523,1.3022,-3.9788,-16.245,5.1392,-27.328,6.7294,-28.854,-11.318,-47.654,15.838,-14.718,-3.7211,-62.904,0.84832,-11.11
-22.523,1.3022,-3.9788,-16.245,5.1392,-27.328,6.7294,-28.854,-11.318,-47.654,15.838,-14.718,-3.7211,-62.904,0.84832,-11.11
-22.344,1.3155,-3.8575,-16.252,5.1081,-27.389,6.7512,-28.94,-11.244,-47.641,15.837,-14.836,-3.6882,-62.849,0.86428,-11.178
-22.344,1.3155,-3.8575,-16.252,5.1081,-27.389,6.7512,-28.94,-11.244,-47.641,15.837,-14.836,-3.6882,-62.849,0.86428,-11.178
-22.344,1.3155,-3.8575,-16.252,5.1081,-27.389,6.7512,-28.94,-11.244,-47.641,15.837,-14.836,-3.6882,-62.849,0.86428,-11.178
-22.165,1.328,-3.7365,-16.259,5.0766,-27.449,6.7724,-29.026,-11.17,-47.629,15.836,-14.955,-3.6554,-62.795,0.87969,-11.247
-22.165,1.328,-3.7365,-16.259,5.0766,-27.449,6.7724,-29.026,-11.17,-47.629,15.836,-14.955,-3.6554,-62.795,0.87969,-11.247
-22.165,1.328,-3.7365,-16.259,5.0766,-27.449,6.7724,-29.026,-11.17,-47.629,15.836,-14.955,-3.6554,-62.795,0.87969,-11.247
-21.986,1.3399,-3.6159,-16.267,5.0447,-27.508,6.7931,-29.11,-11.097,-47.617,15.835,-15.073,-3.6226,-62.74,0.89455,-11.316
-21.986,1.3399,-3.6159,-16.267,5.0447,-27.508,6.7931,-29.11,-11.097,-47.617,15.835,-15.073,-3.6226,-62.74,0.89455,-11.316
-21.986,1.3399,-3.6159,-16.267,5.0447,-27.508,6.7931,-29.11,-11.097,-47.617,15.835,-15.073,-3.6226,-62.74,0.89455,-11.316
-21.986,1.3399,-3.6159,-16.267,5.0447,-27.508,6.7931,-29.11,-11.097,-47.617,15.835,-15.073,-3.6226,-62.74,0.89455,-11.316
-21.628,1.3613,-3.3757,-16.284,4.9795,-27.624,6.8329,-29.277,-10.95,-47.593,15.833,-15.31,-3.5574,-62.63,0.92261,-11.456
-21.628,1.3613,-3.3757,-16.284,4.9795,-27.624,6.8329,-29.277,-10.95,-47.593,15.833,-15.31,-3.5574,-62.63,0.92261,-11.456
-21.628,1.3613,-3.3757,-16.284,4.9795,-27.624,6.8329,-29.277,-10.95,-47.593,15.833,-15.31,-3.5574,-62.63,0.92261,-11.456
-21.268,1.3797,-3.1367,-16.304,4.9126,-27.736,6.8705,-29.44,-10.805,-47.569,15.83,-15.548,-3.4924,-62.52,0.94845,-11.597
-21.268,1.3797,-3.1367,-16.304,4.9126,-27.736,6.8705,-29.44,-10.805,-47.569,15.83,-15.548,-3.4924,-62.52,0.94845,-11.597
-21.268,1.3797,-3.1367,-16.304,4.9126,-27.736,6.8705,-29.44,-10.805,-47.569,15.83,-15.548,-3.4924,-62.52,0.94845,-11.597
-21.088,1.3878,-3.0178,-16.314,4.8785,-27.791,6.8885,-29.52,-10.734,-47.558,15.828,-15.667,-3.4601,-62.465,0.96055,-11.669
-21.088,1.3878,-3.0178,-16.314,4.8785,-27.791,6.8885,-29.52,-10.734,-47.558,15.828,-15.667,-3.4601,-62.465,0.96055,-11.669
-20.908,1.3951,-2.8991,-16.326,4.844,-27.845,6.906,-29.6,-10.662,-47.546,15.827,-15.787,-3.4278,-62.409,0.97209,-11.741
-20.908,1.3951,-2.8991,-16.326,4.844,-27.845,6.906,-29.6,-10.662,-47.546,15.827,-15.787,-3.4278,-62.409,0.97209,-11.741
-20.547,1.4076,-2.6628,-16.35,4.7736,-27.952,6.9393,-29.757,-10.52,-47.524,15.823,-16.025,-3.3636,-62.297,0.99351,-11.887
-20.547,1.4076,-2.6628,-16.35,4.7736,-27.952,6.9393,-29.757,-10.52,-47.524,15.823,-16.025,-3.3636,-62.297,0.99351,-11.887
-20.547,1.4076,-2.6628,-16.35,4.7736,-27.952,6.9393,-29.757,-10.52,-47.524,15.823,-16.025,-3.3636,-62.297,0.99351,-11.887
-20.367,1.4127,-2.5451,-16.363,4.7377,-28.003,6.9551,-29.835,-10.45,-47.513,15.821,-16.145,-3.3317,-62.241,1.0034,-11.961
-20.367,1.4127,-2.5451,-16.363,4.7377,-28.003,6.9551,-29.835,-10.45,-47.513,15.821,-16.145,-3.3317,-62.241,1.0034,-11.961
-20.186,1.417,-2.4277,-16.377,4.7015,-28.055,6.9704,-29.912,-10.38,-47.502,15.818,-16.265,-3.2998,-62.185,1.0127,-12.036
-20.186,1.417,-2.4277,-16.377,4.7015,-28.055,6.9704,-29.912,-10.38,-47.502,15.818,-16.265,-3.2998,-62.185,1.0127,-12.036
-20.005,1.4206,-2.3107,-16.392,4.6648,-28.105,6.9851,-29.988,-10.31,-47.491,15.816,-16.384,-3.2681,-62.129,1.0215,-12.11
-19.824,1.4235,-2.1939,-16.407,4.6277,-28.155,6.9993,-30.063,-10.241,-47.48,15.813,-16.504,-3.2364,-62.073,1.0297,-12.186
-19.824,1.4235,-2.1939,-16.407,4.6277,-28.155,6.9993,-30.063,-10.241,-47.48,15.813,-16.504,-3.2364,-62.073,1.0297,-12.186
-19.643,1.4256,-2.0775,-16.422,4.5901,-28.204,7.013,-30.138,-10.172,-47.469,15.811,-16.624,-3.2049,-62.016,1.0374,-12.262
-19.643,1.4256,-2.0775,-16.422,4.5901,-28.204,7.013,-30.138,-10.172,-47.469,15.811,-16.624,-3.2049,-62.016,1.0374,-12.262
-19.643,1.4256,-2.0775,-16.422,4.5901,-28.204,7.013,-30.138,-10.172,-47.469,15.811,-16.624,-3.2049,-62.016,1.0374,-12.262
-19.462,1.4269,-1.9613,-16.439,4.5522,-28.252,7.0261,-30.212,-10.103,-47.459,15.808,-16.744,-3.1735,-61.96,1.0445,-12.338
-19.462,1.4269,-1.9613,-16.439,4.5522,-28.252,7.0261,-30.212,-10.103,-47.459,15.808,-16.744,-3.1735,-61.96,1.0445,-12.338
-19.462,1.4269,-1.9613,-16.439,4.5522,-28.252,7.0261,-30.212,-10.103,-47.459,15.808,-16.744,-3.1735,-61.96,1.0445,-12.338
-19.281,1.4275,-1.8455,-16.455,4.5138,-28.299,7.0386,-30.285,-10.035,-47.449,15.805,-16.865,-3.1422,-61.903,1.0511,-12.415
-19.281,1.4275,-1.8455,-16.455,4.5138,-28.299,7.0386,-30.285,-10.035,-47.449,15.805,-16.865,-3.1422,-61.903,1.0511,-12.415
-19.281,1.4275,-1.8455,-16.455,4.5138,-28.299,7.0386,-30.285,-10.035,-47.449,15.805,-16.865,-3.1422,-61.903,1.0511,-12.415
-19.099,1.4274,-1.7299,-16.473,4.475,-28.346,7.0506,-30.358,-9.9672,-47.439,15.802,-16.985,-3.111,-61.846,1.0571,-12.492
-18.737,1.4249,-1.4997,-16.51,4.3961,-28.437,7.073,-30.501,-9.8329,-47.419,15.795,-17.226,-3.0491,-61.732,1.0675,-12.649
-18.737,1.4249,-1.4997,-16.51,4.3961,-28.437,7.073,-30.501,-9.8329,-47.419,15.795,-17.226,-3.0491,-61.732,1.0675,-12.649
-18.555,1.4225,-1.385,-16.53,4.356,-28.482,7.0834,-30.572,-9.7664,-47.409,15.792,-17.346,-3.0183,-61.675,1.0719,-12.728
-18.555,1.4225,-1.385,-16.53,4.356,-28.482,7.0834,-30.572,-9.7664,-47.409,15.792,-17.346,-3.0183,-61.675,1.0719,-12.728
-18.374,1.4194,-1.2706,-16.55,4.3155,-28.526,7.0932,-30.642,-9.7003,-47.399,15.789,-17.467,-2.9876,-61.617,1.0757,-12.807
-18.374,1.4194,-1.2706,-16.55,4.3155,-28.526,7.0932,-30.642,-9.7003,-47.399,15.789,-17.467,-2.9876,-61.617,1.0757,-12.807
-18.374,1.4194,-1.2706,-16.55,4.3155,-28.526,7.0932,-30.642,-9.7003,-47.399,15.789,-17.467,-2.9876,-61.617,1.0757,-12.807
-18.192,1.4155,-1.1565,-16.571,4.2746,-28.57,7.1025,-30.711,-9.6346,-47.39,15.785,-17.588,-2.9571,-61.56,1.079,-12.887
-18.192,1.4155,-1.1565,-16.571,4.2746,-28.57,7.1025,-30.711,-9.6346,-47.39,15.785,-17.588,-2.9571,-61.56,1.079,-12.887
-18.011,1.4108,-1.0427,-16.592,4.2333,-28.612,7.1113,-30.78,-9.5693,-47.381,15.781,-17.708,-2.9267,-61.502,1.0817,-12.967
-18.011,1.4108,-1.0427,-16.592,4.2333,-28.612,7.1113,-30.78,-9.5693,-47.381,15.781,-17.708,-2.9267,-61.502,1.0817,-12.967
-17.829,1.4055,-0.92913,-16.614,4.1915,-28.654,7.1194,-30.848,-9.5045,-47.371,15.777,-17.829,-2.8964,-61.445,1.0839,-13.048
-17.829,1.4055,-0.92913,-16.614,4.1915,-28.654,7.1194,-30.848,-9.5045,-47.371,15.777,-17.829,-2.8964,-61.445,1.0839,-13.048
-17.647,1.3994,-0.81585,-16.637,4.1494,-28.696,7.1271,-30.916,-9.4401,-47.362,15.773,-17.95,-2.8663,-61.387,1.0856,-13.13
-17.647,1.3994,-0.81585,-16.637,4.1494,-28.696,7.1271,-30.916,-9.4401,-47.362,15.773,-17.95,-2.8663,-61.387,1.0856,-13.13
-17.466,1.3925,-0.70285,-16.661,4.1068,-28.737,7.1342,-30.983,-9.3762,-47.354,15.769,-18.071,-2.8364,-61.329,1.0867,-13.212
-17.466,1.3925,-0.70285,-16.661,4.1068,-28.737,7.1342,-30.983,-9.3762,-47.354,15.769,-18.071,-2.8364,-61.329,1.0867,-13.212
-17.284,1.3849,-0.59011,-16.685,4.0639,-28.777,7.1407,-31.05,-9.3127,-47.345,15.765,-18.192,-2.8065,-61.271,1.0872,-13.294
-17.103,1.3765,-0.47764,-16.71,4.0205,-28.817,7.1467,-31.116,-9.2496,-47.336,15.761,-18.313,-2.7769,-61.213,1.0873,-13.377
-17.103,1.3765,-0.47764,-16.71,4.0205,-28.817,7.1467,-31.116,-9.2496,-47.336,15.761,-18.313,-2.7769,-61.213,1.0873,-13.377
-16.921,1.3674,-0.36544,-16.736,3.9767,-28.856,7.1522,-31.181,-9.187,-47.328,15.756,-18.434,-2.7474,-61.155,1.0867,-13.461
-16.921,1.3674,-0.36544,-16.736,3.9767,-28.856,7.1522,-31.181,-9.187,-47.328,15.756,-18.434,-2.7474,-61.155,1.0867,-13.461
-16.921,1.3674,-0.36544,-16.736,3.9767,-28.856,7.1522,-31.181,-9.187,-47.328,15.756,-18.434,-2.7474,-61.155,1.0867,-13.461
-16.74,1.3576,-0.2535,-16.762,3.9325,-28.894,7.1571,-31.246,-9.1249,-47.32,15.752,-18.555,-2.718,-61.097,1.0857,-13.545
-16.74,1.3576,-0.2535,-16.762,3.9325,-28.894,7.1571,-31.246,-9.1249,-47.32,15.752,-18.555,-2.718,-61.097,1.0857,-13.545
-16.558,1.347,-0.14181,-16.789,3.8879,-28.932,7.1614,-31.311,-9.0632,-47.312,15.747,-18.677,-2.6888,-61.038,1.0841,-13.629
-16.558,1.347,-0.14181,-16.789,3.8879,-28.932,7.1614,-31.311,-9.0632,-47.312,15.747,-18.677,-2.6888,-61.038,1.0841,-13.629
-16.558,1.347,-0.14181,-16.789,3.8879,-28.932,7.1614,-31.311,-9.0632,-47.312,15.747,-18.677,-2.6888,-61.038,1.0841,-13.629
-16.377,1.3357,-0.03038,-16.816,3.8429,-28.969,7.1653,-31.374,-9.0019,-47.304,15.742,-18.798,-2.6598,-60.98,1.0819,-13.714
-16.196,1.3237,0.080799,-16.845,3.7976,-29.006,7.1685,-31.438,-8.9412,-47.296,15.737,-18.919,-2.6309,-60.921,1.0792,-13.799
-16.015,1.3109,0.19173,-16.874,3.7518,-29.042,7.1712,-31.501,-8.8809,-47.289,15.732,-19.041,-2.6023,-60.863,1.076,-13.885
-16.015,1.3109,0.19173,-16.874,3.7518,-29.042,7.1712,-31.501,-8.8809,-47.289,15.732,-19.041,-2.6023,-60.863,1.076,-13.885
-16.015,1.3109,0.19173,-16.874,3.7518,-29.042,7.1712,-31.501,-8.8809,-47.289,15.732,-19.041,-2.6023,-60.863,1.076,-13.885
-15.833,1.2974,0.30241,-16.904,3.7056,-29.078,7.1734,-31.563,-8.8211,-47.281,15.727,-19.162,-2.5737,-60.804,1.0723,-13.972
-15.833,1.2974,0.30241,-16.904,3.7056,-29.078,7.1734,-31.563,-8.8211,-47.281,15.727,-19.162,-2.5737,-60.804,1.0723,-13.972
-15.833,1.2974,0.30241,-16.904,3.7056,-29.078,7.1734,-31.563,-8.8211,-47.281,15.727,-19.162,-2.5737,-60.804,1.0723,-13.972
-15.652,1.2831,0.41285,-16.934,3.659,-29.113,7.175,-31.625,-8.7617,-47.274,15.722,-19.284,-2.5454,-60.745,1.068,-14.058
-15.471,1.2681,0.52305,-16.965,3.612,-29.147,7.1761,-31.687,-8.7028,-47.267,15.716,-19.405,-2.5172,-60.686,1.0632,-14.146
-15.291,1.2524,0.63301,-16.997,3.5647,-29.181,7.1767,-31.748,-8.6445,-47.26,15.711,-19.526,-2.4892,-60.627,1.0579,-14.234
-15.291,1.2524,0.63301,-16.997,3.5647,-29.181,7.1767,-31.748,-8.6445,-47.26,15.711,-19.526,-2.4892,-60.627,1.0579,-14.234
-15.11,1.236,0.74273,-17.029,3.5169,-29.215,7.1767,-31.808,-8.5866,-47.253,15.705,-19.648,-2.4614,-60.568,1.052,-14.322
-15.11,1.236,0.74273,-17.029,3.5169,-29.215,7.1767,-31.808,-8.5866,-47.253,15.705,-19.648,-2.4614,-60.568,1.052,-14.322
-15.11,1.236,0.74273,-17.029,3.5169,-29.215,7.1767,-31.808,-8.5866,-47.253,15.705,-19.648,-2.4614,-60.568,1.052,-14.322
-14.929,1.2188,0.85223,-17.063,3.4687,-29.248,7.1761,-31.868,-8.5292,-47.247,15.7,-19.769,-2.4338,-60.509,1.0456,-14.411
-14.929,1.2188,0.85223,-17.063,3.4687,-29.248,7.1761,-31.868,-8.5292,-47.247,15.7,-19.769,-2.4338,-60.509,1.0456,-14.411
-14.929,1.2188,0.85223,-17.063,3.4687,-29.248,7.1761,-31.868,-8.5292,-47.247,15.7,-19.769,-2.4338,-60.509,1.0456,-14.411
-14.749,1.2009,0.96149,-17.097,3.4202,-29.281,7.175,-31.928,-8.4723,-47.24,15.694,-19.891,-2.4064,-60.45,1.0387,-14.5
-14.749,1.2009,0.96149,-17.097,3.4202,-29.281,7.175,-31.928,-8.4723,-47.24,15.694,-19.891,-2.4064,-60.45,1.0387,-14.5
-14.749,1.2009,0.96149,-17.097,3.4202,-29.281,7.175,-31.928,-8.4723,-47.24,15.694,-19.891,-2.4064,-60.45,1.0387,-14.5
-14.388,1.1629,1.1793,-17.167,3.322,-29.344,7.1712,-32.046,-8.3599,-47.228,15.682,-20.134,-2.3521,-60.332,1.0233,-14.679
-14.388,1.1629,1.1793,-17.167,3.322,-29.344,7.1712,-32.046,-8.3599,-47.228,15.682,-20.134,-2.3521,-60.332,1.0233,-14.679
-14.208,1.1429,1.2879,-17.203,3.2723,-29.375,7.1685,-32.105,-8.3045,-47.222,15.676,-20.255,-2.3252,-60.272,1.0148,-14.77
-14.208,1.1429,1.2879,-17.203,3.2723,-29.375,7.1685,-32.105,-8.3045,-47.222,15.676,-20.255,-2.3252,-60.272,1.0148,-14.77
-14.028,1.1221,1.3963,-17.239,3.2223,-29.406,7.1652,-32.163,-8.2496,-47.217,15.669,-20.377,-2.2986,-60.213,1.0058,-14.861
-14.028,1.1221,1.3963,-17.239,3.2223,-29.406,7.1652,-32.163,-8.2496,-47.217,15.669,-20.377,-2.2986,-60.213,1.0058,-14.861
-13.849,1.1006,1.5045,-17.277,3.1718,-29.436,7.1614,-32.22,-8.1953,-47.211,15.663,-20.498,-2.2721,-60.153,0.99626,-14.952
-13.849,1.1006,1.5045,-17.277,3.1718,-29.436,7.1614,-32.22,-8.1953,-47.211,15.663,-20.498,-2.2721,-60.153,0.99626,-14.952
-13.849,1.1006,1.5045,-17.277,3.1718,-29.436,7.1614,-32.22,-8.1953,-47.211,15.663,-20.498,-2.2721,-60.153,0.99626,-14.952
-13.669,1.0784,1.6124,-17.315,3.121,-29.466,7.1571,-32.278,-8.1414,-47.206,15.656,-20.62,-2.2458,-60.094,0.98623,-15.044
-13.669,1.0784,1.6124,-17.315,3.121,-29.466,7.1571,-32.278,-8.1414,-47.206,15.656,-20.62,-2.2458,-60.094,0.98623,-15.044
-13.669,1.0784,1.6124,-17.315,3.121,-29.466,7.1571,-32.278,-8.1414,-47.206,15.656,-20.62,-2.2458,-60.094,0.98623,-15.044
-13.311,1.0318,1.8277,-17.394,3.0183,-29.524,7.1467,-32.391,-8.0352,-47.195,15.643,-20.863,-2.194,-59.974,0.96462,-15.229
-13.311,1.0318,1.8277,-17.394,3.0183,-29.524,7.1467,-32.391,-8.0352,-47.195,15.643,-20.863,-2.194,-59.974,0.96462,-15.229
-13.132,1.0075,1.935,-17.434,2.9664,-29.553,7.1408,-32.447,-7.9829,-47.191,15.636,-20.984,-2.1683,-59.914,0.95304,-15.323
-13.132,1.0075,1.935,-17.434,2.9664,-29.553,7.1408,-32.447,-7.9829,-47.191,15.636,-20.984,-2.1683,-59.914,0.95304,-15.323
-12.953,0.98246,2.0421,-17.475,2.9141,-29.581,7.1343,-32.503,-7.9311,-47.186,15.629,-21.105,-2.1429,-59.855,0.94097,-15.416
-12.953,0.98246,2.0421,-17.475,2.9141,-29.581,7.1343,-32.503,-7.9311,-47.186,15.629,-21.105,-2.1429,-59.855,0.94097,-15.416
-12.953,0.98246,2.0421,-17.475,2.9141,-29.581,7.1343,-32.503,-7.9311,-47.186,15.629,-21.105,-2.1429,-59.855,0.94097,-15.416
-12.774,0.95672,2.149,-17.517,2.8614,-29.609,7.1272,-32.559,-7.8798,-47.181,15.622,-21.227,-2.1177,-59.795,0.92838,-15.51
-12.774,0.95672,2.149,-17.517,2.8614,-29.609,7.1272,-32.559,-7.8798,-47.181,15.622,-21.227,-2.1177,-59.795,0.92838,-15.51
-12.596,0.93028,2.2558,-17.559,2.8084,-29.636,7.1197,-32.614,-7.8291,-47.177,15.615,-21.348,-2.0928,-59.735,0.91529,-15.605
-12.418,0.90314,2.3623,-17.603,2.755,-29.663,7.1116,-32.669,-7.7789,-47.173,15.608,-21.469,-2.068,-59.675,0.9017,-15.7
-12.24,0.87531,2.4686,-17.647,2.7013,-29.689,7.1029,-32.724,-7.7292,-47.169,15.6,-21.59,-2.0435,-59.615,0.88761,-15.795
-12.24,0.87531,2.4686,-17.647,2.7013,-29.689,7.1029,-32.724,-7.7292,-47.169,15.6,-21.59,-2.0435,-59.615,0.88761,-15.795
-12.24,0.87531,2.4686,-17.647,2.7013,-29.689,7.1029,-32.724,-7.7292,-47.169,15.6,-21.59,-2.0435,-59.615,0.88761,-15.795
-12.063,0.84679,2.5748,-17.691,2.6472,-29.715,7.0937,-32.778,-7.6801,-47.165,15.593,-21.711,-2.0192,-59.554,0.87302,-15.891
-12.063,0.84679,2.5748,-17.691,2.6472,-29.715,7.0937,-32.778,-7.6801,-47.165,15.593,-21.711,-2.0192,-59.554,0.87302,-15.891
-12.063,0.84679,2.5748,-17.691,2.6472,-29.715,7.0937,-32.778,-7.6801,-47.165,15.593,-21.711,-2.0192,-59.554,0.87302,-15.891
-11.885,0.81758,2.6808,-17.737,2.5928,-29.741,7.084,-32.832,-7.6315,-47.162,15.585,-21.832,-1.9951,-59.494,0.85793,-15.987
-11.885,0.81758,2.6808,-17.737,2.5928,-29.741,7.084,-32.832,-7.6315,-47.162,15.585,-21.832,-1.9951,-59.494,0.85793,-15.987
-11.531,0.7571,2.8922,-17.829,2.4828,-29.791,7.063,-32.939,-7.536,-47.155,15.569,-22.074,-1.9476,-59.374,0.82628,-16.18
-11.531,0.7571,2.8922,-17.829,2.4828,-29.791,7.063,-32.939,-7.536,-47.155,15.569,-22.074,-1.9476,-59.374,0.82628,-16.18
-11.531,0.7571,2.8922,-17.829,2.4828,-29.791,7.063,-32.939,-7.536,-47.155,15.569,-22.074,-1.9476,-59.374,0.82628,-16.18
-11.355,0.72585,2.9976,-17.877,2.4274,-29.816,7.0517,-32.992,-7.489,-47.152,15.561,-22.195,-1.9242,-59.313,0.80972,-16.277
-11.355,0.72585,2.9976,-17.877,2.4274,-29.816,7.0517,-32.992,-7.489,-47.152,15.561,-22.195,-1.9242,-59.313,0.80972,-16.277
-11.355,0.72585,2.9976,-17.877,2.4274,-29.816,7.0517,-32.992,-7.489,-47.152,15.561,-22.195,-1.9242,-59.313,0.80972,-16.277
-11.355,0.72585,2.9976,-17.877,2.4274,-29.816,7.0517,-32.992,-7.489,-47.152,15.561,-22.195,-1.9242,-59.313,0.80972,-16.277
-11.003,0.66131,3.2079,-17.974,2.3154,-29.864,7.0275,-33.098,-7.3968,-47.146,15.545,-22.436,-1.8782,-59.193,0.77513,-16.473
-11.003,0.66131,3.2079,-17.974,2.3154,-29.864,7.0275,-33.098,-7.3968,-47.146,15.545,-22.436,-1.8782,-59.193,0.77513,-16.473
-10.827,0.62803,3.3128,-18.024,2.2589,-29.888,7.0147,-33.15,-7.3514,-47.144,15.537,-22.557,-1.8555,-59.132,0.75712,-16.571
-10.652,0.59409,3.4176,-18.074,2.202,-29.911,7.0013,-33.203,-7.3067,-47.141,15.528,-22.677,-1.8331,-59.072,0.73862,-16.67
-10.652,0.59409,3.4176,-18.074,2.202,-29.911,7.0013,-33.203,-7.3067,-47.141,15.528,-22.677,-1.8331,-59.072,0.73862,-16.67
-10.652,0.59409,3.4176,-18.074,2.202,-29.911,7.0013,-33.203,-7.3067,-47.141,15.528,-22.677,-1.8331,-59.072,0.73862,-16.67
-10.477,0.55949,3.5221,-18.125,2.1449,-29.934,6.9873,-33.255,-7.2625,-47.139,15.52,-22.798,-1.8109,-59.011,0.71965,-16.769
-10.477,0.55949,3.5221,-18.125,2.1449,-29.934,6.9873,-33.255,-7.2625,-47.139,15.52,-22.798,-1.8109,-59.011,0.71965,-16.769
-10.302,0.52423,3.6266,-18.177,2.0874,-29.957,6.9729,-33.306,-7.2189,-47.137,15.511,-22.918,-1.789,-58.951,0.70019,-16.869
-10.302,0.52423,3.6266,-18.177,2.0874,-29.957,6.9729,-33.306,-7.2189,-47.137,15.511,-22.918,-1.789,-58.951,0.70019,-16.869
-10.128,0.48831,3.7308,-18.229,2.0295,-29.98,6.9579,-33.358,-7.1758,-47.135,15.502,-23.038,-1.7673,-58.89,0.68027,-16.969
-10.128,0.48831,3.7308,-18.229,2.0295,-29.98,6.9579,-33.358,-7.1758,-47.135,15.502,-23.038,-1.7673,-58.89,0.68027,-16.969
-9.9535,0.45174,3.8349,-18.282,1.9714,-30.002,6.9424,-33.409,-7.1333,-47.133,15.493,-23.158,-1.7459,-58.829,0.65988,-17.069
-9.9535,0.45174,3.8349,-18.282,1.9714,-30.002,6.9424,-33.409,-7.1333,-47.133,15.493,-23.158,-1.7459,-58.829,0.65988,-17.069
-9.7798,0.41453,3.9388,-18.336,1.9129,-30.023,6.9264,-33.46,-7.0913,-47.132,15.484,-23.278,-1.7247,-58.768,0.63901,-17.169
-9.7798,0.41453,3.9388,-18.336,1.9129,-30.023,6.9264,-33.46,-7.0913,-47.132,15.484,-23.278,-1.7247,-58.768,0.63901,-17.169
-9.6064,0.37667,4.0426,-18.391,1.8541,-30.045,6.9099,-33.511,-7.0499,-47.13,15.475,-23.397,-1.7038,-58.708,0.61768,-17.27
-9.6064,0.37667,4.0426,-18.391,1.8541,-30.045,6.9099,-33.511,-7.0499,-47.13,15.475,-23.397,-1.7038,-58.708,0.61768,-17.27
-9.4333,0.33817,4.1463,-18.446,1.795,-30.066,6.8929,-33.562,-7.0091,-47.129,15.465,-23.517,-1.6831,-58.647,0.59589,-17.371
-9.4333,0.33817,4.1463,-18.446,1.795,-30.066,6.8929,-33.562,-7.0091,-47.129,15.465,-23.517,-1.6831,-58.647,0.59589,-17.371
-9.2607,0.29903,4.2497,-18.502,1.7356,-30.087,6.8753,-33.613,-6.9689,-47.128,15.456,-23.636,-1.6627,-58.586,0.57364,-17.473
-9.2607,0.29903,4.2497,-18.502,1.7356,-30.087,6.8753,-33.613,-6.9689,-47.128,15.456,-23.636,-1.6627,-58.586,0.57364,-17.473
-9.0883,0.25926,4.3531,-18.558,1.6759,-30.108,6.8572,-33.663,-6.9292,-47.127,15.446,-23.756,-1.6426,-58.525,0.55093,-17.575
-9.0883,0.25926,4.3531,-18.558,1.6759,-30.108,6.8572,-33.663,-6.9292,-47.127,15.446,-23.756,-1.6426,-58.525,0.55093,-17.575
-8.9164,0.21886,4.4563,-18.616,1.6158,-30.128,6.8387,-33.713,-6.8901,-47.127,15.436,-23.875,-1.6227,-58.464,0.52776,-17.677
-8.9164,0.21886,4.4563,-18.616,1.6158,-30.128,6.8387,-33.713,-6.8901,-47.127,15.436,-23.875,-1.6227,-58.464,0.52776,-17.677
-8.7448,0.17784,4.5593,-18.674,1.5555,-30.149,6.8196,-33.763,-6.8515,-47.126,15.426,-23.994,-1.6031,-58.403,0.50414,-17.78
-8.7448,0.17784,4.5593,-18.674,1.5555,-30.149,6.8196,-33.763,-6.8515,-47.126,15.426,-23.994,-1.6031,-58.403,0.50414,-17.78
-8.5735,0.1362,4.6622,-18.732,1.4949,-30.168,6.8,-33.813,-6.8135,-47.126,15.416,-24.112,-1.5838,-58.342,0.48007,-17.882
-8.5735,0.1362,4.6622,-18.732,1.4949,-30.168,6.8,-33.813,-6.8135,-47.126,15.416,-24.112,-1.5838,-58.342,0.48007,-17.882
-8.4027,0.093947,4.765,-18.792,1.4339,-30.188,6.7799,-33.863,-6.7761,-47.126,15.406,-24.231,-1.5647,-58.281,0.45556,-17.985
-8.4027,0.093947,4.765,-18.792,1.4339,-30.188,6.7799,-33.863,-6.7761,-47.126,15.406,-24.231,-1.5647,-58.281,0.45556,-17.985
-8.2323,0.051079,4.8676,-18.852,1.3727,-30.208,6.7593,-33.913,-6.7393,-47.126,15.396,-24.349,-1.5459,-58.22,0.43059,-18.089
-8.0622,0.0076053,4.9701,-18.913,1.3112,-30.227,6.7382,-33.962,-6.703,-47.126,15.385,-24.468,-1.5273,-58.159,0.40519,-18.193
-8.0622,0.0076053,4.9701,-18.913,1.3112,-30.227,6.7382,-33.962,-6.703,-47.126,15.385,-24.468,-1.5273,-58.159,0.40519,-18.193
-7.8926,-0.036471,5.0725,-18.974,1.2494,-30.246,6.7166,-34.012,-6.6673,-47.126,15.375,-24.586,-1.509,-58.098,0.37935,-18.296
-7.8926,-0.036471,5.0725,-18.974,1.2494,-30.246,6.7166,-34.012,-6.6673,-47.126,15.375,-24.586,-1.509,-58.098,0.37935,-18.296
-7.7233,-0.081144,5.1747,-19.036,1.1873,-30.265,6.6946,-34.061,-6.6322,-47.127,15.364,-24.703,-1.491,-58.037,0.35307,-18.401
-7.7233,-0.081144,5.1747,-19.036,1.1873,-30.265,6.6946,-34.061,-6.6322,-47.127,15.364,-24.703,-1.491,-58.037,0.35307,-18.401
-7.7233,-0.081144,5.1747,-19.036,1.1873,-30.265,6.6946,-34.061,-6.6322,-47.127,15.364,-24.703,-1.491,-58.037,0.35307,-18.401
-7.5545,-0.12641,5.2768,-19.099,1.1249,-30.283,6.672,-34.11,-6.5977,-47.127,15.353,-24.821,-1.4733,-57.976,0.32636,-18.505
-7.5545,-0.12641,5.2768,-19.099,1.1249,-30.283,6.672,-34.11,-6.5977,-47.127,15.353,-24.821,-1.4733,-57.976,0.32636,-18.505
-7.5545,-0.12641,5.2768,-19.099,1.1249,-30.283,6.672,-34.11,-6.5977,-47.127,15.353,-24.821,-1.4733,-57.976,0.32636,-18.505
-7.3861,-0.17227,5.3788,-19.162,1.0623,-30.301,6.6489,-34.159,-6.5637,-47.128,15.342,-24.938,-1.4558,-57.915,0.29921,-18.61
-7.3861,-0.17227,5.3788,-19.162,1.0623,-30.301,6.6489,-34.159,-6.5637,-47.128,15.342,-24.938,-1.4558,-57.915,0.29921,-18.61
-7.0505,-0.26572,5.5824,-19.291,0.93614,-30.337,6.6013,-34.257,-6.4975,-47.13,15.32,-25.173,-1.4218,-57.792,0.24364,-18.82
-7.0505,-0.26572,5.5824,-19.291,0.93614,-30.337,6.6013,-34.257,-6.4975,-47.13,15.32,-25.173,-1.4218,-57.792,0.24364,-18.82
-7.0505,-0.26572,5.5824,-19.291,0.93614,-30.337,6.6013,-34.257,-6.4975,-47.13,15.32,-25.173,-1.4218,-57.792,0.24364,-18.82
-6.8834,-0.31331,5.684,-19.356,0.87268,-30.355,6.5767,-34.306,-6.4652,-47.131,15.308,-25.289,-1.4051,-57.731,0.21523,-18.926
-6.8834,-0.31331,5.684,-19.356,0.87268,-30.355,6.5767,-34.306,-6.4652,-47.131,15.308,-25.289,-1.4051,-57.731,0.21523,-18.926
-6.7167,-0.36147,5.7855,-19.422,0.80895,-30.373,6.5517,-34.354,-6.4336,-47.133,15.297,-25.406,-1.3888,-57.67,0.18639,-19.032
-6.5505,-0.41019,5.8869,-19.489,0.74497,-30.39,6.5262,-34.403,-6.4025,-47.134,15.285,-25.522,-1.3727,-57.608,0.15713,-19.137
-6.5505,-0.41019,5.8869,-19.489,0.74497,-30.39,6.5262,-34.403,-6.4025,-47.134,15.285,-25.522,-1.3727,-57.608,0.15713,-19.137
-6.3847,-0.45947,5.9881,-19.556,0.68073,-30.407,6.5002,-34.451,-6.372,-47.136,15.273,-25.638,-1.357,-57.547,0.12747,-19.244
-6.3847,-0.45947,5.9881,-19.556,0.68073,-30.407,6.5002,-34.451,-6.372,-47.136,15.273,-25.638,-1.357,-57.547,0.12747,-19.244
-6.3847,-0.45947,5.9881,-19.556,0.68073,-30.407,6.5002,-34.451,-6.372,-47.136,15.273,-25.638,-1.357,-57.547,0.12747,-19.244
-6.2193,-0.5093,6.0893,-19.624,0.61623,-30.424,6.4737,-34.5,-6.342,-47.138,15.261,-25.754,-1.3415,-57.485,0.09739,-19.35
-6.2193,-0.5093,6.0893,-19.624,0.61623,-30.424,6.4737,-34.5,-6.342,-47.138,15.261,-25.754,-1.3415,-57.485,0.09739,-19.35
-6.0544,-0.55969,6.1903,-19.693,0.55149,-30.44,6.4468,-34.548,-6.3126,-47.14,15.249,-25.869,-1.3262,-57.424,0.066906,-19.457
-6.0544,-0.55969,6.1903,-19.693,0.55149,-30.44,6.4468,-34.548,-6.3126,-47.14,15.249,-25.869,-1.3262,-57.424,0.066906,-19.457
-5.89,-0.61061,6.2912,-19.762,0.4865,-30.457,6.4194,-34.597,-6.2839,-47.142,15.237,-25.984,-1.3113,-57.363,0.036018,-19.564
-5.89,-0.61061,6.2912,-19.762,0.4865,-30.457,6.4194,-34.597,-6.2839,-47.142,15.237,-25.984,-1.3113,-57.363,0.036018,-19.564
-5.726,-0.66207,6.392,-19.832,0.42127,-30.473,6.3915,-34.645,-6.2556,-47.144,15.224,-26.099,-1.2967,-57.301,0.004729,-19.671
-5.5625,-0.71407,6.4927,-19.902,0.35581,-30.49,6.3631,-34.693,-6.228,-47.147,15.211,-26.214,-1.2823,-57.24,-0.026958,-19.778
-5.5625,-0.71407,6.4927,-19.902,0.35581,-30.49,6.3631,-34.693,-6.228,-47.147,15.211,-26.214,-1.2823,-57.24,-0.026958,-19.778
-5.5625,-0.71407,6.4927,-19.902,0.35581,-30.49,6.3631,-34.693,-6.228,-47.147,15.211,-26.214,-1.2823,-57.24,-0.026958,-19.778
-5.3995,-0.76659,6.5933,-19.973,0.2901,-30.506,6.3343,-34.741,-6.2009,-47.149,15.199,-26.328,-1.2682,-57.178,-0.059039,-19.885
-5.3995,-0.76659,6.5933,-19.973,0.2901,-30.506,6.3343,-34.741,-6.2009,-47.149,15.199,-26.328,-1.2682,-57.178,-0.059039,-19.885
-5.2369,-0.81963,6.6938,-20.045,0.22417,-30.521,6.305,-34.789,-6.1744,-47.152,15.186,-26.442,-1.2544,-57.116,-0.091512,-19.993
-5.2369,-0.81963,6.6938,-20.045,0.22417,-30.521,6.305,-34.789,-6.1744,-47.152,15.186,-26.442,-1.2544,-57.116,-0.091512,-19.993
-5.2369,-0.81963,6.6938,-20.045,0.22417,-30.521,6.305,-34.789,-6.1744,-47.152,15.186,-26.442,-1.2544,-57.116,-0.091512,-19.993
-5.0748,-0.87318,6.7942,-20.117,0.15802,-30.537,6.2753,-34.837,-6.1485,-47.155,15.172,-26.556,-1.2409,-57.055,-0.12437,-20.101
-5.0748,-0.87318,6.7942,-20.117,0.15802,-30.537,6.2753,-34.837,-6.1485,-47.155,15.172,-26.556,-1.2409,-57.055,-0.12437,-20.101
-5.0748,-0.87318,6.7942,-20.117,0.15802,-30.537,6.2753,-34.837,-6.1485,-47.155,15.172,-26.556,-1.2409,-57.055,-0.12437,-20.101
-4.7521,-0.98182,6.9946,-20.263,0.025041,-30.568,6.2144,-34.933,-6.0983,-47.161,15.146,-26.783,-1.2148,-56.931,-0.19125,-20.317
-4.7521,-0.98182,6.9946,-20.263,0.025041,-30.568,6.2144,-34.933,-6.0983,-47.161,15.146,-26.783,-1.2148,-56.931,-0.19125,-20.317
-4.5915,-1.0369,7.0947,-20.337,-0.041769,-30.583,6.1833,-34.981,-6.0741,-47.164,15.132,-26.895,-1.2021,-56.87,-0.22526,-20.425
-4.5915,-1.0369,7.0947,-20.337,-0.041769,-30.583,6.1833,-34.981,-6.0741,-47.164,15.132,-26.895,-1.2021,-56.87,-0.22526,-20.425
-4.4314,-1.0924,7.1946,-20.412,-0.10879,-30.598,6.1517,-35.029,-6.0504,-47.167,15.118,-27.008,-1.1898,-56.808,-0.25964,-20.533
-4.4314,-1.0924,7.1946,-20.412,-0.10879,-30.598,6.1517,-35.029,-6.0504,-47.167,15.118,-27.008,-1.1898,-56.808,-0.25964,-20.533
-4.2718,-1.1485,7.2945,-20.487,-0.17602,-30.613,6.1197,-35.077,-6.0273,-47.171,15.104,-27.12,-1.1777,-56.746,-0.2944,-20.642
-4.2718,-1.1485,7.2945,-20.487,-0.17602,-30.613,6.1197,-35.077,-6.0273,-47.171,15.104,-27.12,-1.1777,-56.746,-0.2944,-20.642
-4.1127,-1.205,7.3943,-20.563,-0.24344,-30.628,6.0873,-35.125,-6.0047,-47.174,15.09,-27.232,-1.166,-56.685,-0.32952,-20.75
-3.9541,-1.262,7.4939,-20.639,-0.31107,-30.642,6.0544,-35.173,-5.9828,-47.178,15.075,-27.343,-1.1545,-56.623,-0.36501,-20.859
-3.9541,-1.262,7.4939,-20.639,-0.31107,-30.642,6.0544,-35.173,-5.9828,-47.178,15.075,-27.343,-1.1545,-56.623,-0.36501,-20.859
-3.796,-1.3195,7.5935,-20.716,-0.37889,-30.657,6.021,-35.221,-5.9613,-47.182,15.061,-27.454,-1.1433,-56.561,-0.40086,-20.968
-3.796,-1.3195,7.5935,-20.716,-0.37889,-30.657,6.021,-35.221,-5.9613,-47.182,15.061,-27.454,-1.1433,-56.561,-0.40086,-20.968
-3.796,-1.3195,7.5935,-20.716,-0.37889,-30.657,6.021,-35.221,-5.9613,-47.182,15.061,-27.454,-1.1433,-56.561,-0.40086,-20.968
-3.6384,-1.3774,7.693,-20.794,-0.44689,-30.671,5.9873,-35.269,-5.9405,-47.186,15.046,-27.565,-1.1324,-56.499,-0.43707,-21.077
-3.6384,-1.3774,7.693,-20.794,-0.44689,-30.671,5.9873,-35.269,-5.9405,-47.186,15.046,-27.565,-1.1324,-56.499,-0.43707,-21.077
-3.6384,-1.3774,7.693,-20.794,-0.44689,-30.671,5.9873,-35.269,-5.9405,-47.186,15.046,-27.565,-1.1324,-56.499,-0.43707,-21.077
-3.4814,-1.4358,7.7924,-20.872,-0.51508,-30.685,5.9531,-35.317,-5.9202,-47.19,15.031,-27.676,-1.1217,-56.437,-0.47364,-21.186
-3.3249,-1.4946,7.8917,-20.95,-0.58345,-30.699,5.9184,-35.365,-5.9004,-47.194,15.016,-27.786,-1.1114,-56.375,-0.51056,-21.295
-3.1688,-1.5539,7.9909,-21.029,-0.652,-30.713,5.8834,-35.413,-5.8812,-47.198,15.001,-27.895,-1.1014,-56.313,-0.54783,-21.404
-3.1688,-1.5539,7.9909,-21.029,-0.652,-30.713,5.8834,-35.413,-5.8812,-47.198,15.001,-27.895,-1.1014,-56.313,-0.54783,-21.404
-3.0133,-1.6136,8.09,-21.109,-0.72072,-30.727,5.8479,-35.461,-5.8626,-47.203,14.985,-28.004,-1.0916,-56.251,-0.58544,-21.513
-3.0133,-1.6136,8.09,-21.109,-0.72072,-30.727,5.8479,-35.461,-5.8626,-47.203,14.985,-28.004,-1.0916,-56.251,-0.58544,-21.513
-3.0133,-1.6136,8.09,-21.109,-0.72072,-30.727,5.8479,-35.461,-5.8626,-47.203,14.985,-28.004,-1.0916,-56.251,-0.58544,-21.513
-2.8584,-1.6738,8.189,-21.189,-0.7896,-30.741,5.812,-35.508,-5.8445,-47.207,14.97,-28.113,-1.0821,-56.189,-0.6234,-21.623
-2.8584,-1.6738,8.189,-21.189,-0.7896,-30.741,5.812,-35.508,-5.8445,-47.207,14.97,-28.113,-1.0821,-56.189,-0.6234,-21.623
-2.704,-1.7343,8.2879,-21.27,-0.85865,-30.754,5.7757,-35.556,-5.8269,-47.212,14.954,-28.222,-1.073,-56.127,-0.6617,-21.732
-2.5501,-1.7953,8.3867,-21.351,-0.92786,-30.768,5.7389,-35.604,-5.8099,-47.217,14.938,-28.33,-1.0641,-56.065,-0.70033,-21.841
-2.5501,-1.7953,8.3867,-21.351,-0.92786,-30.768,5.7389,-35.604,-5.8099,-47.217,14.938,-28.33,-1.0641,-56.065,-0.70033,-21.841
-2.3967,-1.8567,8.4855,-21.432,-0.99721,-30.781,5.7018,-35.652,-5.7934,-47.221,14.922,-28.437,-1.0554,-56.003,-0.73929,-21.951
-2.3967,-1.8567,8.4855,-21.432,-0.99721,-30.781,5.7018,-35.652,-5.7934,-47.221,14.922,-28.437,-1.0554,-56.003,-0.73929,-21.951
-2.2439,-1.9185,8.5841,-21.515,-1.0667,-30.794,5.6642,-35.7,-5.7775,-47.226,14.905,-28.544,-1.0471,-55.941,-0.77858,-22.061
-2.2439,-1.9185,8.5841,-21.515,-1.0667,-30.794,5.6642,-35.7,-5.7775,-47.226,14.905,-28.544,-1.0471,-55.941,-0.77858,-22.061
-2.2439,-1.9185,8.5841,-21.515,-1.0667,-30.794,5.6642,-35.7,-5.7775,-47.226,14.905,-28.544,-1.0471,-55.941,-0.77858,-22.061
-2.0916,-1.9807,8.6827,-21.597,-1.1364,-30.807,5.6263,-35.748,-5.7621,-47.231,14.888,-28.651,-1.0391,-55.879,-0.81819,-22.17
-2.0916,-1.9807,8.6827,-21.597,-1.1364,-30.807,5.6263,-35.748,-5.7621,-47.231,14.888,-28.651,-1.0391,-55.879,-0.81819,-22.17
-2.0916,-1.9807,8.6827,-21.597,-1.1364,-30.807,5.6263,-35.748,-5.7621,-47.231,14.888,-28.651,-1.0391,-55.879,-0.81819,-22.17
-1.9399,-2.0433,8.7812,-21.68,-1.2062,-30.82,5.5879,-35.796,-5.7472,-47.236,14.872,-28.757,-1.0313,-55.816,-0.85813,-22.28
-1.9399,-2.0433,8.7812,-21.68,-1.2062,-30.82,5.5879,-35.796,-5.7472,-47.236,14.872,-28.757,-1.0313,-55.816,-0.85813,-22.28
-1.9399,-2.0433,8.7812,-21.68,-1.2062,-30.82,5.5879,-35.796,-5.7472,-47.236,14.872,-28.757,-1.0313,-55.816,-0.85813,-22.28
-1.638,-2.1696,8.9778,-21.848,-1.3461,-30.845,5.51,-35.893,-5.7191,-47.247,14.837,-28.968,-1.0167,-55.692,-0.93896,-22.499
-1.638,-2.1696,8.9778,-21.848,-1.3461,-30.845,5.51,-35.893,-5.7191,-47.247,14.837,-28.968,-1.0167,-55.692,-0.93896,-22.499
-1.4879,-2.2333,9.076,-21.932,-1.4163,-30.858,5.4705,-35.941,-5.7058,-47.252,14.82,-29.073,-1.0098,-55.63,-0.97984,-22.608
-1.4879,-2.2333,9.076,-21.932,-1.4163,-30.858,5.4705,-35.941,-5.7058,-47.252,14.82,-29.073,-1.0098,-55.63,-0.97984,-22.608
-1.4879,-2.2333,9.076,-21.932,-1.4163,-30.858,5.4705,-35.941,-5.7058,-47.252,14.82,-29.073,-1.0098,-55.63,-0.97984,-22.608
-1.3384,-2.2974,9.1742,-22.017,-1.4866,-30.87,5.4305,-35.989,-5.693,-47.257,14.802,-29.178,-1.0031,-55.567,-1.021,-22.718
-1.3384,-2.2974,9.1742,-22.017,-1.4866,-30.87,5.4305,-35.989,-5.693,-47.257,14.802,-29.178,-1.0031,-55.567,-1.021,-22.718
-1.1894,-2.3618,9.2722,-22.103,-1.557,-30.883,5.3902,-36.037,-5.6808,-47.263,14.784,-29.282,-0.9968,-55.505,-1.0625,-22.827
-1.0409,-2.4266,9.3701,-22.189,-1.6275,-30.895,5.3495,-36.085,-5.669,-47.268,14.766,-29.385,-0.99073,-55.442,-1.1043,-22.937
-1.0409,-2.4266,9.3701,-22.189,-1.6275,-30.895,5.3495,-36.085,-5.669,-47.268,14.766,-29.385,-0.99073,-55.442,-1.1043,-22.937
-0.89306,-2.4917,9.468,-22.275,-1.6982,-30.907,5.3085,-36.133,-5.6578,-47.274,14.748,-29.488,-0.98494,-55.38,-1.1464,-23.046
-0.89306,-2.4917,9.468,-22.275,-1.6982,-30.907,5.3085,-36.133,-5.6578,-47.274,14.748,-29.488,-0.98494,-55.38,-1.1464,-23.046
-0.74573,-2.5572,9.5657,-22.362,-1.7689,-30.919,5.267,-36.182,-5.6471,-47.279,14.729,-29.591,-0.97943,-55.317,-1.1888,-23.156
-0.74573,-2.5572,9.5657,-22.362,-1.7689,-30.919,5.267,-36.182,-5.6471,-47.279,14.729,-29.591,-0.97943,-55.317,-1.1888,-23.156
-0.59897,-2.6229,9.6634,-22.449,-1.8397,-30.931,5.2252,-36.23,-5.6369,-47.285,14.71,-29.693,-0.97419,-55.255,-1.2314,-23.265
-0.59897,-2.6229,9.6634,-22.449,-1.8397,-30.931,5.2252,-36.23,-5.6369,-47.285,14.71,-29.693,-0.97419,-55.255,-1.2314,-23.265
-0.45276,-2.689,9.761,-22.536,-1.9107,-30.942,5.1831,-36.278,-5.6272,-47.291,14.691,-29.794,-0.96923,-55.192,-1.2744,-23.375
-0.45276,-2.689,9.761,-22.536,-1.9107,-30.942,5.1831,-36.278,-5.6272,-47.291,14.691,-29.794,-0.96923,-55.192,-1.2744,-23.375
-0.30711,-2.7555,9.8585,-22.624,-1.9817,-30.954,5.1405,-36.327,-5.618,-47.297,14.672,-29.895,-0.96454,-55.129,-1.3176,-23.484
-0.16203,-2.8222,9.9559,-22.713,-2.0527,-30.965,5.0976,-36.375,-5.6092,-47.302,14.653,-29.996,-0.96011,-55.067,-1.3612,-23.593
-0.16203,-2.8222,9.9559,-22.713,-2.0527,-30.965,5.0976,-36.375,-5.6092,-47.302,14.653,-29.996,-0.96011,-55.067,-1.3612,-23.593
-0.017512,-2.8892,10.053,-22.801,-2.1239,-30.977,5.0544,-36.424,-5.601,-47.308,14.633,-30.096,-0.95596,-55.004,-1.405,-23.702
-0.017512,-2.8892,10.053,-22.801,-2.1239,-30.977,5.0544,-36.424,-5.601,-47.308,14.633,-30.096,-0.95596,-55.004,-1.405,-23.702
-0.017512,-2.8892,10.053,-22.801,-2.1239,-30.977,5.0544,-36.424,-5.601,-47.308,14.633,-30.096,-0.95596,-55.004,-1.405,-23.702
0.12644,-2.9565,10.15,-22.89,-2.1951,-30.988,5.0108,-36.472,-5.5933,-47.314,14.613,-30.195,-0.95208,-54.941,-1.449,-23.811
0.12644,-2.9565,10.15,-22.89,-2.1951,-30.988,5.0108,-36.472,-5.5933,-47.314,14.613,-30.195,-0.95208,-54.941,-1.449,-23.811
0.12644,-2.9565,10.15,-22.89,-2.1951,-30.988,5.0108,-36.472,-5.5933,-47.314,14.613,-30.195,-0.95208,-54.941,-1.449,-23.811
0.26983,-3.0241,10.248,-22.98,-2.2664,-30.999,4.9669,-36.521,-5.586,-47.32,14.593,-30.294,-0.94846,-54.878,-1.4934,-23.92
0.26983,-3.0241,10.248,-22.98,-2.2664,-30.999,4.9669,-36.521,-5.586,-47.32,14.593,-30.294,-0.94846,-54.878,-1.4934,-23.92
0.41266,-3.0919,10.345,-23.07,-2.3378,-31.01,4.9226,-36.57,-5.5792,-47.326,14.572,-30.392,-0.94511,-54.815,-1.5379,-24.029
0.55492,-3.1601,10.442,-23.16,-2.4092,-31.021,4.878,-36.618,-5.5729,-47.332,14.552,-30.49,-0.94202,-54.752,-1.5828,-24.137
0.69661,-3.2284,10.538,-23.25,-2.4806,-31.031,4.833,-36.667,-5.567,-47.338,14.531,-30.587,-0.93919,-54.689,-1.6279,-24.246
0.69661,-3.2284,10.538,-23.25,-2.4806,-31.031,4.833,-36.667,-5.567,-47.338,14.531,-30.587,-0.93919,-54.689,-1.6279,-24.246
0.69661,-3.2284,10.538,-23.25,-2.4806,-31.031,4.833,-36.667,-5.567,-47.338,14.531,-30.587,-0.93919,-54.689,-1.6279,-24.246
0.83773,-3.2971,10.635,-23.341,-2.5521,-31.042,4.7877,-36.716,-5.5616,-47.344,14.51,-30.684,-0.93662,-54.626,-1.6733,-24.354
0.83773,-3.2971,10.635,-23.341,-2.5521,-31.042,4.7877,-36.716,-5.5616,-47.344,14.51,-30.684,-0.93662,-54.626,-1.6733,-24.354
0.83773,-3.2971,10.635,-23.341,-2.5521,-31.042,4.7877,-36.716,-5.5616,-47.344,14.51,-30.684,-0.93662,-54.626,-1.6733,-24.354
0.97828,-3.366,10.732,-23.432,-2.6237,-31.053,4.7421,-36.765,-5.5567,-47.351,14.488,-30.78,-0.93431,-54.563,-1.7189,-24.463
1.1183,-3.4351,10.828,-23.524,-2.6953,-31.063,4.6962,-36.813,-5.5522,-47.357,14.467,-30.876,-0.93225,-54.5,-1.7648,-24.571
1.2577,-3.5044,10.925,-23.615,-2.7669,-31.073,4.6499,-36.862,-5.5482,-47.363,14.445,-30.97,-0.93044,-54.436,-1.8109,-24.679
1.2577,-3.5044,10.925,-23.615,-2.7669,-31.073,4.6499,-36.862,-5.5482,-47.363,14.445,-30.97,-0.93044,-54.436,-1.8109,-24.679
1.2577,-3.5044,10.925,-23.615,-2.7669,-31.073,4.6499,-36.862,-5.5482,-47.363,14.445,-30.97,-0.93044,-54.436,-1.8109,-24.679
1.3965,-3.574,11.021,-23.707,-2.8385,-31.083,4.6034,-36.911,-5.5446,-47.369,14.423,-31.065,-0.92889,-54.373,-1.8572,-24.786
1.3965,-3.574,11.021,-23.707,-2.8385,-31.083,4.6034,-36.911,-5.5446,-47.369,14.423,-31.065,-0.92889,-54.373,-1.8572,-24.786
1.5348,-3.6438,11.118,-23.8,-2.9101,-31.093,4.5565,-36.96,-5.5415,-47.375,14.4,-31.158,-0.92758,-54.31,-1.9038,-24.894
1.5348,-3.6438,11.118,-23.8,-2.9101,-31.093,4.5565,-36.96,-5.5415,-47.375,14.4,-31.158,-0.92758,-54.31,-1.9038,-24.894
1.5348,-3.6438,11.118,-23.8,-2.9101,-31.093,4.5565,-36.96,-5.5415,-47.375,14.4,-31.158,-0.92758,-54.31,-1.9038,-24.894
1.6725,-3.7137,11.214,-23.892,-2.9818,-31.103,4.5093,-37.009,-5.5388,-47.381,14.378,-31.251,-0.92652,-54.246,-1.9506,-25.001
1.6725,-3.7137,11.214,-23.892,-2.9818,-31.103,4.5093,-37.009,-5.5388,-47.381,14.378,-31.251,-0.92652,-54.246,-1.9506,-25.001
1.6725,-3.7137,11.214,-23.892,-2.9818,-31.103,4.5093,-37.009,-5.5388,-47.381,14.378,-31.251,-0.92652,-54.246,-1.9506,-25.001
1.9462,-3.8543,11.406,-24.078,-3.1251,-31.122,4.4141,-37.107,-5.5347,-47.394,14.332,-31.436,-0.92513,-54.119,-2.0449,-25.216
1.9462,-3.8543,11.406,-24.078,-3.1251,-31.122,4.4141,-37.107,-5.5347,-47.394,14.332,-31.436,-0.92513,-54.119,-2.0449,-25.216
2.0822,-3.9248,11.502,-24.172,-3.1968,-31.132,4.366,-37.156,-5.5332,-47.4,14.308,-31.527,-0.9248,-54.056,-2.0924,-25.322
2.0822,-3.9248,11.502,-24.172,-3.1968,-31.132,4.366,-37.156,-5.5332,-47.4,14.308,-31.527,-0.9248,-54.056,-2.0924,-25.322
2.2177,-3.9956,11.598,-24.265,-3.2684,-31.141,4.3177,-37.206,-5.5322,-47.406,14.284,-31.617,-0.9247,-53.992,-2.1401,-25.429
2.2177,-3.9956,11.598,-24.265,-3.2684,-31.141,4.3177,-37.206,-5.5322,-47.406,14.284,-31.617,-0.9247,-53.992,-2.1401,-25.429
2.3525,-4.0664,11.693,-24.359,-3.3401,-31.15,4.2691,-37.255,-5.5316,-47.412,14.26,-31.707,-0.92483,-53.928,-2.188,-25.535
2.3525,-4.0664,11.693,-24.359,-3.3401,-31.15,4.2691,-37.255,-5.5316,-47.412,14.26,-31.707,-0.92483,-53.928,-2.188,-25.535
2.3525,-4.0664,11.693,-24.359,-3.3401,-31.15,4.2691,-37.255,-5.5316,-47.412,14.26,-31.707,-0.92483,-53.928,-2.188,-25.535
2.4868,-4.1375,11.789,-24.453,-3.4117,-31.159,4.2202,-37.304,-5.5314,-47.418,14.236,-31.797,-0.9252,-53.864,-2.2361,-25.641
2.4868,-4.1375,11.789,-24.453,-3.4117,-31.159,4.2202,-37.304,-5.5314,-47.418,14.236,-31.797,-0.9252,-53.864,-2.2361,-25.641
2.7537,-4.28,11.98,-24.642,-3.5548,-31.177,4.1216,-37.403,-5.5322,-47.43,14.187,-31.973,-0.92662,-53.736,-2.3329,-25.853
2.7537,-4.28,11.98,-24.642,-3.5548,-31.177,4.1216,-37.403,-5.5322,-47.43,14.187,-31.973,-0.92662,-53.736,-2.3329,-25.853
2.7537,-4.28,11.98,-24.642,-3.5548,-31.177,4.1216,-37.403,-5.5322,-47.43,14.187,-31.973,-0.92662,-53.736,-2.3329,-25.853
2.8863,-4.3515,12.075,-24.737,-3.6264,-31.186,4.0718,-37.452,-5.5332,-47.436,14.162,-32.06,-0.92766,-53.672,-2.3817,-25.958
2.8863,-4.3515,12.075,-24.737,-3.6264,-31.186,4.0718,-37.452,-5.5332,-47.436,14.162,-32.06,-0.92766,-53.672,-2.3817,-25.958
3.0184,-4.4231,12.17,-24.832,-3.6978,-31.194,4.0219,-37.501,-5.5345,-47.442,14.136,-32.147,-0.92892,-53.608,-2.4306,-26.063
3.0184,-4.4231,12.17,-24.832,-3.6978,-31.194,4.0219,-37.501,-5.5345,-47.442,14.136,-32.147,-0.92892,-53.608,-2.4306,-26.063
3.1498,-4.4948,12.265,-24.927,-3.7693,-31.202,3.9717,-37.551,-5.5362,-47.448,14.111,-32.233,-0.93041,-53.543,-2.4797,-26.168
3.2808,-4.5666,12.36,-25.022,-3.8407,-31.211,3.9212,-37.6,-5.5383,-47.454,14.085,-32.318,-0.9321,-53.479,-2.529,-26.273
3.2808,-4.5666,12.36,-25.022,-3.8407,-31.211,3.9212,-37.6,-5.5383,-47.454,14.085,-32.318,-0.9321,-53.479,-2.529,-26.273
3.4111,-4.6385,12.455,-25.117,-3.912,-31.219,3.8705,-37.649,-5.5408,-47.46,14.059,-32.403,-0.93401,-53.415,-2.5784,-26.377
3.4111,-4.6385,12.455,-25.117,-3.912,-31.219,3.8705,-37.649,-5.5408,-47.46,14.059,-32.403,-0.93401,-53.415,-2.5784,-26.377
3.4111,-4.6385,12.455,-25.117,-3.912,-31.219,3.8705,-37.649,-5.5408,-47.46,14.059,-32.403,-0.93401,-53.415,-2.5784,-26.377
3.5409,-4.7105,12.55,-25.213,-3.9832,-31.226,3.8195,-37.699,-5.5436,-47.466,14.032,-32.486,-0.93613,-53.35,-2.6281,-26.481
3.5409,-4.7105,12.55,-25.213,-3.9832,-31.226,3.8195,-37.699,-5.5436,-47.466,14.032,-32.486,-0.93613,-53.35,-2.6281,-26.481
3.5409,-4.7105,12.55,-25.213,-3.9832,-31.226,3.8195,-37.699,-5.5436,-47.466,14.032,-32.486,-0.93613,-53.35,-2.6281,-26.481
3.6701,-4.7826,12.644,-25.308,-4.0544,-31.234,3.7683,-37.748,-5.5468,-47.472,14.005,-32.569,-0.93845,-53.285,-2.6779,-26.584
3.7988,-4.8547,12.739,-25.404,-4.1255,-31.242,3.7169,-37.798,-5.5503,-47.478,13.978,-32.652,-0.94097,-53.221,-2.7279,-26.687
3.7988,-4.8547,12.739,-25.404,-4.1255,-31.242,3.7169,-37.798,-5.5503,-47.478,13.978,-32.652,-0.94097,-53.221,-2.7279,-26.687
3.7988,-4.8547,12.739,-25.404,-4.1255,-31.242,3.7169,-37.798,-5.5503,-47.478,13.978,-32.652,-0.94097,-53.221,-2.7279,-26.687
3.9269,-4.9269,12.833,-25.5,-4.1966,-31.249,3.6652,-37.847,-5.5542,-47.483,13.951,-32.733,-0.94369,-53.156,-2.7781,-26.79
3.9269,-4.9269,12.833,-25.5,-4.1966,-31.249,3.6652,-37.847,-5.5542,-47.483,13.951,-32.733,-0.94369,-53.156,-2.7781,-26.79
4.1814,-5.0715,13.021,-25.692,-4.3384,-31.263,3.5613,-37.946,-5.5629,-47.494,13.895,-32.895,-0.94972,-53.026,-2.8789,-26.995
4.1814,-5.0715,13.021,-25.692,-4.3384,-31.263,3.5613,-37.946,-5.5629,-47.494,13.895,-32.895,-0.94972,-53.026,-2.8789,-26.995
4.1814,-5.0715,13.021,-25.692,-4.3384,-31.263,3.5613,-37.946,-5.5629,-47.494,13.895,-32.895,-0.94972,-53.026,-2.8789,-26.995
4.3079,-5.1439,13.115,-25.788,-4.4091,-31.27,3.509,-37.996,-5.5677,-47.5,13.867,-32.974,-0.95301,-52.961,-2.9296,-27.097
4.3079,-5.1439,13.115,-25.788,-4.4091,-31.27,3.509,-37.996,-5.5677,-47.5,13.867,-32.974,-0.95301,-52.961,-2.9296,-27.097
4.3079,-5.1439,13.115,-25.788,-4.4091,-31.27,3.509,-37.996,-5.5677,-47.5,13.867,-32.974,-0.95301,-52.961,-2.9296,-27.097
4.4338,-5.2163,13.209,-25.884,-4.4798,-31.277,3.4565,-38.045,-5.5729,-47.505,13.838,-33.053,-0.95649,-52.895,-2.9804,-27.199
4.4338,-5.2163,13.209,-25.884,-4.4798,-31.277,3.4565,-38.045,-5.5729,-47.505,13.838,-33.053,-0.95649,-52.895,-2.9804,-27.199
4.5591,-5.2887,13.303,-25.98,-4.5503,-31.283,3.4038,-38.095,-5.5783,-47.51,13.809,-33.131,-0.96016,-52.83,-3.0313,-27.3
4.5591,-5.2887,13.303,-25.98,-4.5503,-31.283,3.4038,-38.095,-5.5783,-47.51,13.809,-33.131,-0.96016,-52.83,-3.0313,-27.3
4.5591,-5.2887,13.303,-25.98,-4.5503,-31.283,3.4038,-38.095,-5.5783,-47.51,13.809,-33.131,-0.96016,-52.83,-3.0313,-27.3
4.8082,-5.4335,13.49,-26.173,-4.6911,-31.296,3.2978,-38.194,-5.5901,-47.52,13.751,-33.284,-0.96801,-52.699,-3.1337,-27.501
4.8082,-5.4335,13.49,-26.173,-4.6911,-31.296,3.2978,-38.194,-5.5901,-47.52,13.751,-33.284,-0.96801,-52.699,-3.1337,-27.501
4.9319,-5.506,13.583,-26.27,-4.7613,-31.302,3.2445,-38.243,-5.5965,-47.525,13.721,-33.36,-0.9722,-52.633,-3.185,-27.601
4.9319,-5.506,13.583,-26.27,-4.7613,-31.302,3.2445,-38.243,-5.5965,-47.525,13.721,-33.36,-0.9722,-52.633,-3.185,-27.601
5.0551,-5.5784,13.677,-26.366,-4.8313,-31.307,3.1911,-38.293,-5.6031,-47.53,13.69,-33.435,-0.97655,-52.568,-3.2366,-27.701
5.0551,-5.5784,13.677,-26.366,-4.8313,-31.307,3.1911,-38.293,-5.6031,-47.53,13.69,-33.435,-0.97655,-52.568,-3.2366,-27.701
5.1777,-5.6508,13.77,-26.462,-4.9012,-31.313,3.1374,-38.342,-5.61,-47.535,13.66,-33.509,-0.98107,-52.502,-3.2882,-27.8
5.2998,-5.7232,13.863,-26.559,-4.971,-31.318,3.0836,-38.392,-5.6171,-47.54,13.629,-33.582,-0.98575,-52.436,-3.34,-27.899
5.2998,-5.7232,13.863,-26.559,-4.971,-31.318,3.0836,-38.392,-5.6171,-47.54,13.629,-33.582,-0.98575,-52.436,-3.34,-27.899
5.2998,-5.7232,13.863,-26.559,-4.971,-31.318,3.0836,-38.392,-5.6171,-47.54,13.629,-33.582,-0.98575,-52.436,-3.34,-27.899
5.4213,-5.7955,13.955,-26.655,-5.0406,-31.323,3.0297,-38.441,-5.6246,-47.544,13.598,-33.654,-0.99058,-52.369,-3.3919,-27.997
5.4213,-5.7955,13.955,-26.655,-5.0406,-31.323,3.0297,-38.441,-5.6246,-47.544,13.598,-33.654,-0.99058,-52.369,-3.3919,-27.997
5.4213,-5.7955,13.955,-26.655,-5.0406,-31.323,3.0297,-38.441,-5.6246,-47.544,13.598,-33.654,-0.99058,-52.369,-3.3919,-27.997
5.5423,-5.8678,14.048,-26.752,-5.1101,-31.328,2.9755,-38.491,-5.6322,-47.549,13.567,-33.726,-0.99556,-52.303,-3.4439,-28.095
5.5423,-5.8678,14.048,-26.752,-5.1101,-31.328,2.9755,-38.491,-5.6322,-47.549,13.567,-33.726,-0.99556,-52.303,-3.4439,-28.095
5.6628,-5.94,14.141,-26.848,-5.1794,-31.333,2.9212,-38.54,-5.6401,-47.553,13.535,-33.797,-1.0007,-52.237,-3.496,-28.192
5.7828,-6.0122,14.233,-26.944,-5.2486,-31.338,2.8668,-38.589,-5.6483,-47.557,13.503,-33.867,-1.006,-52.17,-3.5483,-28.289
5.7828,-6.0122,14.233,-26.944,-5.2486,-31.338,2.8668,-38.589,-5.6483,-47.557,13.503,-33.867,-1.006,-52.17,-3.5483,-28.289
5.9022,-6.0843,14.325,-27.04,-5.3175,-31.342,2.8122,-38.639,-5.6567,-47.561,13.47,-33.936,-1.0114,-52.103,-3.6006,-28.386
5.9022,-6.0843,14.325,-27.04,-5.3175,-31.342,2.8122,-38.639,-5.6567,-47.561,13.47,-33.936,-1.0114,-52.103,-3.6006,-28.386
6.0211,-6.1563,14.417,-27.137,-5.3863,-31.346,2.7575,-38.688,-5.6653,-47.565,13.438,-34.005,-1.0169,-52.037,-3.6531,-28.482
6.0211,-6.1563,14.417,-27.137,-5.3863,-31.346,2.7575,-38.688,-5.6653,-47.565,13.438,-34.005,-1.0169,-52.037,-3.6531,-28.482
6.0211,-6.1563,14.417,-27.137,-5.3863,-31.346,2.7575,-38.688,-5.6653,-47.565,13.438,-34.005,-1.0169,-52.037,-3.6531,-28.482
6.1394,-6.2282,14.509,-27.233,-5.455,-31.35,2.7027,-38.737,-5.6741,-47.569,13.404,-34.072,-1.0226,-51.97,-3.7056,-28.578
6.1394,-6.2282,14.509,-27.233,-5.455,-31.35,2.7027,-38.737,-5.6741,-47.569,13.404,-34.072,-1.0226,-51.97,-3.7056,-28.578
6.1394,-6.2282,14.509,-27.233,-5.455,-31.35,2.7027,-38.737,-5.6741,-47.569,13.404,-34.072,-1.0226,-51.97,-3.7056,-28.578
6.3746,-6.3717,14.693,-27.425,-5.5916,-31.357,2.5926,-38.835,-5.6924,-47.576,13.337,-34.205,-1.0343,-51.835,-3.8111,-28.767
6.3746,-6.3717,14.693,-27.425,-5.5916,-31.357,2.5926,-38.835,-5.6924,-47.576,13.337,-34.205,-1.0343,-51.835,-3.8111,-28.767
6.3746,-6.3717,14.693,-27.425,-5.5916,-31.357,2.5926,-38.835,-5.6924,-47.576,13.337,-34.205,-1.0343,-51.835,-3.8111,-28.767
6.4914,-6.4433,14.784,-27.52,-5.6597,-31.36,2.5374,-38.884,-5.7018,-47.579,13.303,-34.27,-1.0404,-51.768,-3.8639,-28.861
6.6078,-6.5148,14.875,-27.616,-5.7275,-31.363,2.482,-38.933,-5.7114,-47.582,13.269,-34.334,-1.0466,-51.7,-3.9168,-28.955
6.6078,-6.5148,14.875,-27.616,-5.7275,-31.363,2.482,-38.933,-5.7114,-47.582,13.269,-34.334,-1.0466,-51.7,-3.9168,-28.955
6.7235,-6.5861,14.966,-27.712,-5.7951,-31.366,2.4266,-38.982,-5.7212,-47.585,13.234,-34.397,-1.0528,-51.633,-3.9698,-29.048
6.7235,-6.5861,14.966,-27.712,-5.7951,-31.366,2.4266,-38.982,-5.7212,-47.585,13.234,-34.397,-1.0528,-51.633,-3.9698,-29.048
6.8388,-6.6573,15.057,-27.807,-5.8626,-31.368,2.371,-39.031,-5.7312,-47.588,13.199,-34.46,-1.0592,-51.565,-4.0229,-29.141
6.8388,-6.6573,15.057,-27.807,-5.8626,-31.368,2.371,-39.031,-5.7312,-47.588,13.199,-34.46,-1.0592,-51.565,-4.0229,-29.141
6.8388,-6.6573,15.057,-27.807,-5.8626,-31.368,2.371,-39.031,-5.7312,-47.588,13.199,-34.46,-1.0592,-51.565,-4.0229,-29.141
6.9536,-6.7284,15.148,-27.902,-5.9298,-31.37,2.3154,-39.08,-5.7413,-47.591,13.163,-34.522,-1.0657,-51.497,-4.0761,-29.233
6.9536,-6.7284,15.148,-27.902,-5.9298,-31.37,2.3154,-39.08,-5.7413,-47.591,13.163,-34.522,-1.0657,-51.497,-4.0761,-29.233
6.9536,-6.7284,15.148,-27.902,-5.9298,-31.37,2.3154,-39.08,-5.7413,-47.591,13.163,-34.522,-1.0657,-51.497,-4.0761,-29.233
7.1817,-6.8699,15.329,-28.092,-6.0635,-31.374,2.2039,-39.177,-5.7621,-47.595,13.091,-34.642,-1.0789,-51.36,-4.1827,-29.415
7.1817,-6.8699,15.329,-28.092,-6.0635,-31.374,2.2039,-39.177,-5.7621,-47.595,13.091,-34.642,-1.0789,-51.36,-4.1827,-29.415
7.1817,-6.8699,15.329,-28.092,-6.0635,-31.374,2.2039,-39.177,-5.7621,-47.595,13.091,-34.642,-1.0789,-51.36,-4.1827,-29.415
7.2949,-6.9405,15.42,-28.187,-6.13,-31.375,2.148,-39.225,-5.7727,-47.598,13.055,-34.701,-1.0857,-51.292,-4.2361,-29.505
7.2949,-6.9405,15.42,-28.187,-6.13,-31.375,2.148,-39.225,-5.7727,-47.598,13.055,-34.701,-1.0857,-51.292,-4.2361,-29.505
7.4077,-7.0108,15.51,-28.282,-6.1963,-31.376,2.092,-39.274,-5.7834,-47.599,13.018,-34.759,-1.0925,-51.223,-4.2895,-29.595
7.4077,-7.0108,15.51,-28.282,-6.1963,-31.376,2.092,-39.274,-5.7834,-47.599,13.018,-34.759,-1.0925,-51.223,-4.2895,-29.595
7.6318,-7.1509,15.689,-28.47,-6.328,-31.377,1.9799,-39.37,-5.8052,-47.603,12.943,-34.873,-1.1064,-51.085,-4.3966,-29.773
7.6318,-7.1509,15.689,-28.47,-6.328,-31.377,1.9799,-39.37,-5.8052,-47.603,12.943,-34.873,-1.1064,-51.085,-4.3966,-29.773
7.6318,-7.1509,15.689,-28.47,-6.328,-31.377,1.9799,-39.37,-5.8052,-47.603,12.943,-34.873,-1.1064,-51.085,-4.3966,-29.773
7.7431,-7.2207,15.779,-28.564,-6.3936,-31.378,1.9237,-39.418,-5.8162,-47.604,12.905,-34.928,-1.1135,-51.016,-4.4502,-29.861
7.7431,-7.2207,15.779,-28.564,-6.3936,-31.378,1.9237,-39.418,-5.8162,-47.604,12.905,-34.928,-1.1135,-51.016,-4.4502,-29.861
7.7431,-7.2207,15.779,-28.564,-6.3936,-31.378,1.9237,-39.418,-5.8162,-47.604,12.905,-34.928,-1.1135,-51.016,-4.4502,-29.861
7.854,-7.2902,15.868,-28.657,-6.4588,-31.378,1.8675,-39.466,-5.8274,-47.605,12.866,-34.982,-1.1206,-50.946,-4.5039,-29.949
7.854,-7.2902,15.868,-28.657,-6.4588,-31.378,1.8675,-39.466,-5.8274,-47.605,12.866,-34.982,-1.1206,-50.946,-4.5039,-29.949
7.854,-7.2902,15.868,-28.657,-6.4588,-31.378,1.8675,-39.466,-5.8274,-47.605,12.866,-34.982,-1.1206,-50.946,-4.5039,-29.949
8.0742,-7.4285,16.046,-28.844,-6.5885,-31.377,1.755,-39.561,-5.85,-47.606,12.789,-35.089,-1.135,-50.807,-4.6113,-30.122
8.0742,-7.4285,16.046,-28.844,-6.5885,-31.377,1.755,-39.561,-5.85,-47.606,12.789,-35.089,-1.135,-50.807,-4.6113,-30.122
8.1836,-7.4973,16.135,-28.937,-6.6529,-31.376,1.6986,-39.609,-5.8615,-47.607,12.749,-35.14,-1.1423,-50.737,-4.6651,-30.207
8.1836,-7.4973,16.135,-28.937,-6.6529,-31.376,1.6986,-39.609,-5.8615,-47.607,12.749,-35.14,-1.1423,-50.737,-4.6651,-30.207
8.2925,-7.5658,16.224,-29.029,-6.7171,-31.375,1.6423,-39.656,-5.873,-47.607,12.709,-35.191,-1.1497,-50.667,-4.7189,-30.292
8.2925,-7.5658,16.224,-29.029,-6.7171,-31.375,1.6423,-39.656,-5.873,-47.607,12.709,-35.191,-1.1497,-50.667,-4.7189,-30.292
8.2925,-7.5658,16.224,-29.029,-6.7171,-31.375,1.6423,-39.656,-5.873,-47.607,12.709,-35.191,-1.1497,-50.667,-4.7189,-30.292
8.401,-7.6341,16.312,-29.122,-6.7809,-31.373,1.5859,-39.703,-5.8845,-47.607,12.669,-35.241,-1.157,-50.597,-4.7728,-30.377
8.401,-7.6341,16.312,-29.122,-6.7809,-31.373,1.5859,-39.703,-5.8845,-47.607,12.669,-35.241,-1.157,-50.597,-4.7728,-30.377
8.401,-7.6341,16.312,-29.122,-6.7809,-31.373,1.5859,-39.703,-5.8845,-47.607,12.669,-35.241,-1.157,-50.597,-4.7728,-30.377
8.6166,-7.7698,16.488,-29.305,-6.9078,-31.369,1.4731,-39.797,-5.9078,-47.606,12.588,-35.338,-1.1719,-50.456,-4.8806,-30.544
8.6166,-7.7698,16.488,-29.305,-6.9078,-31.369,1.4731,-39.797,-5.9078,-47.606,12.588,-35.338,-1.1719,-50.456,-4.8806,-30.544
8.6166,-7.7698,16.488,-29.305,-6.9078,-31.369,1.4731,-39.797,-5.9078,-47.606,12.588,-35.338,-1.1719,-50.456,-4.8806,-30.544
8.7236,-7.8372,16.576,-29.397,-6.9708,-31.366,1.4167,-39.844,-5.9195,-47.605,12.547,-35.385,-1.1793,-50.385,-4.9345,-30.626
8.7236,-7.8372,16.576,-29.397,-6.9708,-31.366,1.4167,-39.844,-5.9195,-47.605,12.547,-35.385,-1.1793,-50.385,-4.9345,-30.626
8.7236,-7.8372,16.576,-29.397,-6.9708,-31.366,1.4167,-39.844,-5.9195,-47.605,12.547,-35.385,-1.1793,-50.385,-4.9345,-30.626
8.9364,-7.9711,16.751,-29.578,-7.0958,-31.36,1.3038,-39.937,-5.943,-47.603,12.463,-35.476,-1.1943,-50.242,-5.0425,-30.789
8.9364,-7.9711,16.751,-29.578,-7.0958,-31.36,1.3038,-39.937,-5.943,-47.603,12.463,-35.476,-1.1943,-50.242,-5.0425,-30.789
8.9364,-7.9711,16.751,-29.578,-7.0958,-31.36,1.3038,-39.937,-5.943,-47.603,12.463,-35.476,-1.1943,-50.242,-5.0425,-30.789
9.0422,-8.0376,16.838,-29.668,-7.1578,-31.357,1.2474,-39.983,-5.9548,-47.601,12.42,-35.52,-1.2018,-50.171,-5.0964,-30.87
9.0422,-8.0376,16.838,-29.668,-7.1578,-31.357,1.2474,-39.983,-5.9548,-47.601,12.42,-35.52,-1.2018,-50.171,-5.0964,-30.87
9.1474,-8.1038,16.925,-29.758,-7.2195,-31.353,1.191,-40.029,-5.9666,-47.6,12.378,-35.563,-1.2094,-50.099,-5.1504,-30.949
9.1474,-8.1038,16.925,-29.758,-7.2195,-31.353,1.191,-40.029,-5.9666,-47.6,12.378,-35.563,-1.2094,-50.099,-5.1504,-30.949
9.2523,-8.1696,17.012,-29.848,-7.2809,-31.349,1.1347,-40.075,-5.9784,-47.598,12.334,-35.605,-1.2169,-50.027,-5.2044,-31.028
9.2523,-8.1696,17.012,-29.848,-7.2809,-31.349,1.1347,-40.075,-5.9784,-47.598,12.334,-35.605,-1.2169,-50.027,-5.2044,-31.028
9.2523,-8.1696,17.012,-29.848,-7.2809,-31.349,1.1347,-40.075,-5.9784,-47.598,12.334,-35.605,-1.2169,-50.027,-5.2044,-31.028
9.4607,-8.3002,17.184,-30.026,-7.4027,-31.339,1.022,-40.166,-6.0019,-47.593,12.247,-35.687,-1.2319,-49.882,-5.3124,-31.185
9.4607,-8.3002,17.184,-30.026,-7.4027,-31.339,1.022,-40.166,-6.0019,-47.593,12.247,-35.687,-1.2319,-49.882,-5.3124,-31.185
9.5642,-8.365,17.27,-30.114,-7.4631,-31.334,0.96575,-40.211,-6.0136,-47.59,12.203,-35.726,-1.2394,-49.809,-5.3664,-31.262
9.5642,-8.365,17.27,-30.114,-7.4631,-31.334,0.96575,-40.211,-6.0136,-47.59,12.203,-35.726,-1.2394,-49.809,-5.3664,-31.262
9.6673,-8.4294,17.356,-30.202,-7.5231,-31.328,0.90953,-40.256,-6.0253,-47.587,12.158,-35.764,-1.2468,-49.737,-5.4204,-31.338
9.77,-8.4934,17.442,-30.289,-7.5828,-31.322,0.85335,-40.301,-6.037,-47.583,12.113,-35.802,-1.2543,-49.663,-5.4744,-31.413
9.77,-8.4934,17.442,-30.289,-7.5828,-31.322,0.85335,-40.301,-6.037,-47.583,12.113,-35.802,-1.2543,-49.663,-5.4744,-31.413
9.77,-8.4934,17.442,-30.289,-7.5828,-31.322,0.85335,-40.301,-6.037,-47.583,12.113,-35.802,-1.2543,-49.663,-5.4744,-31.413
9.8722,-8.5571,17.527,-30.376,-7.6421,-31.316,0.79723,-40.345,-6.0486,-47.579,12.067,-35.838,-1.2617,-49.59,-5.5284,-31.488
9.8722,-8.5571,17.527,-30.376,-7.6421,-31.316,0.79723,-40.345,-6.0486,-47.579,12.067,-35.838,-1.2617,-49.59,-5.5284,-31.488
9.9741,-8.6203,17.612,-30.463,-7.7011,-31.309,0.74118,-40.389,-6.0601,-47.575,12.021,-35.873,-1.2691,-49.516,-5.5823,-31.562
9.9741,-8.6203,17.612,-30.463,-7.7011,-31.309,0.74118,-40.389,-6.0601,-47.575,12.021,-35.873,-1.2691,-49.516,-5.5823,-31.562
10.075,-8.6831,17.697,-30.549,-7.7597,-31.302,0.68518,-40.433,-6.0716,-47.571,11.975,-35.908,-1.2764,-49.443,-5.6362,-31.636
10.176,-8.7456,17.782,-30.634,-7.8179,-31.294,0.62926,-40.477,-6.083,-47.566,11.928,-35.941,-1.2837,-49.368,-5.6901,-31.708
10.176,-8.7456,17.782,-30.634,-7.8179,-31.294,0.62926,-40.477,-6.083,-47.566,11.928,-35.941,-1.2837,-49.368,-5.6901,-31.708
10.176,-8.7456,17.782,-30.634,-7.8179,-31.294,0.62926,-40.477,-6.083,-47.566,11.928,-35.941,-1.2837,-49.368,-5.6901,-31.708
10.277,-8.8076,17.866,-30.719,-7.8758,-31.286,0.57342,-40.521,-6.0943,-47.561,11.881,-35.973,-1.2909,-49.294,-5.744,-31.78
10.277,-8.8076,17.866,-30.719,-7.8758,-31.286,0.57342,-40.521,-6.0943,-47.561,11.881,-35.973,-1.2909,-49.294,-5.744,-31.78
10.377,-8.8692,17.95,-30.804,-7.9333,-31.278,0.51767,-40.564,-6.1055,-47.556,11.834,-36.005,-1.2981,-49.219,-5.7979,-31.851
10.377,-8.8692,17.95,-30.804,-7.9333,-31.278,0.51767,-40.564,-6.1055,-47.556,11.834,-36.005,-1.2981,-49.219,-5.7979,-31.851
10.477,-8.9303,18.034,-30.888,-7.9904,-31.269,0.462,-40.607,-6.1166,-47.55,11.786,-36.035,-1.3053,-49.145,-5.8517,-31.921
10.477,-8.9303,18.034,-30.888,-7.9904,-31.269,0.462,-40.607,-6.1166,-47.55,11.786,-36.035,-1.3053,-49.145,-5.8517,-31.921
10.576,-8.991,18.118,-30.972,-8.0471,-31.26,0.40643,-40.649,-6.1276,-47.544,11.738,-36.064,-1.3123,-49.07,-5.9055,-31.991
10.576,-8.991,18.118,-30.972,-8.0471,-31.26,0.40643,-40.649,-6.1276,-47.544,11.738,-36.064,-1.3123,-49.07,-5.9055,-31.991
10.675,-9.0512,18.201,-31.055,-8.1034,-31.25,0.35096,-40.692,-6.1385,-47.538,11.689,-36.092,-1.3193,-48.994,-5.9592,-32.06
10.675,-9.0512,18.201,-31.055,-8.1034,-31.25,0.35096,-40.692,-6.1385,-47.538,11.689,-36.092,-1.3193,-48.994,-5.9592,-32.06
10.675,-9.0512,18.201,-31.055,-8.1034,-31.25,0.35096,-40.692,-6.1385,-47.538,11.689,-36.092,-1.3193,-48.994,-5.9592,-32.06
10.774,-9.111,18.284,-31.137,-8.1594,-31.24,0.29559,-40.734,-6.1493,-47.531,11.64,-36.12,-1.3262,-48.918,-6.013,-32.128
10.774,-9.111,18.284,-31.137,-8.1594,-31.24,0.29559,-40.734,-6.1493,-47.531,11.64,-36.12,-1.3262,-48.918,-6.013,-32.128
10.872,-9.1703,18.367,-31.219,-8.2149,-31.23,0.24034,-40.776,-6.16,-47.524,11.59,-36.146,-1.333,-48.843,-6.0666,-32.195
10.97,-9.2292,18.45,-31.3,-8.27,-31.219,0.1852,-40.817,-6.1705,-47.517,11.541,-36.171,-1.3398,-48.766,-6.1203,-32.261
10.97,-9.2292,18.45,-31.3,-8.27,-31.219,0.1852,-40.817,-6.1705,-47.517,11.541,-36.171,-1.3398,-48.766,-6.1203,-32.261
11.068,-9.2875,18.532,-31.381,-8.3248,-31.208,0.13019,-40.858,-6.1808,-47.509,11.49,-36.195,-1.3464,-48.69,-6.1738,-32.327
11.068,-9.2875,18.532,-31.381,-8.3248,-31.208,0.13019,-40.858,-6.1808,-47.509,11.49,-36.195,-1.3464,-48.69,-6.1738,-32.327
11.165,-9.3454,18.614,-31.461,-8.3791,-31.196,0.075307,-40.899,-6.191,-47.501,11.44,-36.218,-1.3529,-48.613,-6.2274,-32.392
11.165,-9.3454,18.614,-31.461,-8.3791,-31.196,0.075307,-40.899,-6.191,-47.501,11.44,-36.218,-1.3529,-48.613,-6.2274,-32.392
11.261,-9.4027,18.696,-31.541,-8.433,-31.184,0.020558,-40.939,-6.2011,-47.493,11.389,-36.24,-1.3594,-48.536,-6.2808,-32.456
11.261,-9.4027,18.696,-31.541,-8.433,-31.184,0.020558,-40.939,-6.2011,-47.493,11.389,-36.24,-1.3594,-48.536,-6.2808,-32.456
11.358,-9.4596,18.777,-31.62,-8.4865,-31.171,-0.03405,-40.98,-6.2109,-47.484,11.337,-36.262,-1.3657,-48.459,-6.3342,-32.519
11.358,-9.4596,18.777,-31.62,-8.4865,-31.171,-0.03405,-40.98,-6.2109,-47.484,11.337,-36.262,-1.3657,-48.459,-6.3342,-32.519
11.454,-9.5159,18.858,-31.699,-8.5396,-31.158,-0.088514,-41.019,-6.2206,-47.475,11.285,-36.282,-1.3719,-48.381,-6.3876,-32.581
11.454,-9.5159,18.858,-31.699,-8.5396,-31.158,-0.088514,-41.019,-6.2206,-47.475,11.285,-36.282,-1.3719,-48.381,-6.3876,-32.581
11.549,-9.5717,18.939,-31.776,-8.5923,-31.144,-0.14283,-41.059,-6.2301,-47.465,11.233,-36.301,-1.378,-48.303,-6.4409,-32.643
11.549,-9.5717,18.939,-31.776,-8.5923,-31.144,-0.14283,-41.059,-6.2301,-47.465,11.233,-36.301,-1.378,-48.303,-6.4409,-32.643
11.644,-9.6269,19.02,-31.853,-8.6445,-31.13,-0.19698,-41.098,-6.2394,-47.455,11.18,-36.319,-1.384,-48.225,-6.4941,-32.703
11.739,-9.6817,19.101,-31.93,-8.6963,-31.115,-0.25098,-41.137,-6.2485,-47.445,11.127,-36.335,-1.3899,-48.147,-6.5473,-32.763
11.739,-9.6817,19.101,-31.93,-8.6963,-31.115,-0.25098,-41.137,-6.2485,-47.445,11.127,-36.335,-1.3899,-48.147,-6.5473,-32.763
11.834,-9.7358,19.181,-32.006,-8.7476,-31.1,-0.3048,-41.175,-6.2574,-47.435,11.074,-36.351,-1.3956,-48.068,-6.6004,-32.822
11.834,-9.7358,19.181,-32.006,-8.7476,-31.1,-0.3048,-41.175,-6.2574,-47.435,11.074,-36.351,-1.3956,-48.068,-6.6004,-32.822
11.834,-9.7358,19.181,-32.006,-8.7476,-31.1,-0.3048,-41.175,-6.2574,-47.435,11.074,-36.351,-1.3956,-48.068,-6.6004,-32.822
11.928,-9.7895,19.261,-32.081,-8.7986,-31.085,-0.35845,-41.213,-6.2661,-47.424,11.02,-36.366,-1.4011,-47.989,-6.6534,-32.88
11.928,-9.7895,19.261,-32.081,-8.7986,-31.085,-0.35845,-41.213,-6.2661,-47.424,11.02,-36.366,-1.4011,-47.989,-6.6534,-32.88
11.928,-9.7895,19.261,-32.081,-8.7986,-31.085,-0.35845,-41.213,-6.2661,-47.424,11.02,-36.366,-1.4011,-47.989,-6.6534,-32.88
12.022,-9.8425,19.34,-32.155,-8.8491,-31.069,-0.41193,-41.251,-6.2745,-47.412,10.965,-36.38,-1.4066,-47.91,-6.7063,-32.938
12.022,-9.8425,19.34,-32.155,-8.8491,-31.069,-0.41193,-41.251,-6.2745,-47.412,10.965,-36.38,-1.4066,-47.91,-6.7063,-32.938
12.208,-9.9469,19.498,-32.302,-8.9487,-31.036,-0.51832,-41.325,-6.2906,-47.388,10.855,-36.404,-1.4169,-47.75,-6.812,-33.05
12.208,-9.9469,19.498,-32.302,-8.9487,-31.036,-0.51832,-41.325,-6.2906,-47.388,10.855,-36.404,-1.4169,-47.75,-6.812,-33.05
12.208,-9.9469,19.498,-32.302,-8.9487,-31.036,-0.51832,-41.325,-6.2906,-47.388,10.855,-36.404,-1.4169,-47.75,-6.812,-33.05
12.301,-9.9982,19.577,-32.375,-8.9978,-31.018,-0.57123,-41.361,-6.2983,-47.376,10.8,-36.415,-1.4219,-47.67,-6.8647,-33.105
12.301,-9.9982,19.577,-32.375,-8.9978,-31.018,-0.57123,-41.361,-6.2983,-47.376,10.8,-36.415,-1.4219,-47.67,-6.8647,-33.105
12.301,-9.9982,19.577,-32.375,-8.9978,-31.018,-0.57123,-41.361,-6.2983,-47.376,10.8,-36.415,-1.4219,-47.67,-6.8647,-33.105
12.393,-10.049,19.655,-32.446,-9.0465,-31,-0.62394,-41.397,-6.3058,-47.363,10.744,-36.424,-1.4267,-47.589,-6.9173,-33.158
12.393,-10.049,19.655,-32.446,-9.0465,-31,-0.62394,-41.397,-6.3058,-47.363,10.744,-36.424,-1.4267,-47.589,-6.9173,-33.158
12.485,-10.099,19.733,-32.517,-9.0947,-30.982,-0.67644,-41.433,-6.313,-47.349,10.687,-36.433,-1.4313,-47.508,-6.9698,-33.211
12.485,-10.099,19.733,-32.517,-9.0947,-30.982,-0.67644,-41.433,-6.313,-47.349,10.687,-36.433,-1.4313,-47.508,-6.9698,-33.211
12.577,-10.149,19.811,-32.588,-9.1425,-30.963,-0.72873,-41.468,-6.3199,-47.336,10.63,-36.44,-1.4357,-47.427,-7.0223,-33.263
12.669,-10.197,19.889,-32.657,-9.1898,-30.943,-0.78081,-41.502,-6.3265,-47.321,10.573,-36.447,-1.44,-47.345,-7.0746,-33.315
12.669,-10.197,19.889,-32.657,-9.1898,-30.943,-0.78081,-41.502,-6.3265,-47.321,10.573,-36.447,-1.44,-47.345,-7.0746,-33.315
12.76,-10.246,19.966,-32.726,-9.2367,-30.923,-0.83266,-41.537,-6.3328,-47.307,10.516,-36.452,-1.444,-47.263,-7.1269,-33.365
12.76,-10.246,19.966,-32.726,-9.2367,-30.923,-0.83266,-41.537,-6.3328,-47.307,10.516,-36.452,-1.444,-47.263,-7.1269,-33.365
12.851,-10.293,20.043,-32.794,-9.283,-30.903,-0.88429,-41.57,-6.3389,-47.292,10.457,-36.456,-1.4479,-47.181,-7.179,-33.414
12.851,-10.293,20.043,-32.794,-9.283,-30.903,-0.88429,-41.57,-6.3389,-47.292,10.457,-36.456,-1.4479,-47.181,-7.179,-33.414
12.941,-10.34,20.119,-32.861,-9.3289,-30.882,-0.93569,-41.604,-6.3446,-47.276,10.399,-36.459,-1.4516,-47.099,-7.2311,-33.463
12.941,-10.34,20.119,-32.861,-9.3289,-30.882,-0.93569,-41.604,-6.3446,-47.276,10.399,-36.459,-1.4516,-47.099,-7.2311,-33.463
13.031,-10.387,20.195,-32.928,-9.3744,-30.86,-0.98685,-41.637,-6.35,-47.26,10.34,-36.461,-1.4551,-47.016,-7.283,-33.511
13.031,-10.387,20.195,-32.928,-9.3744,-30.86,-0.98685,-41.637,-6.35,-47.26,10.34,-36.461,-1.4551,-47.016,-7.283,-33.511
13.121,-10.432,20.271,-32.993,-9.4193,-30.838,-1.0378,-41.669,-6.3551,-47.244,10.281,-36.462,-1.4583,-46.932,-7.3349,-33.557
13.121,-10.432,20.271,-32.993,-9.4193,-30.838,-1.0378,-41.669,-6.3551,-47.244,10.281,-36.462,-1.4583,-46.932,-7.3349,-33.557
13.21,-10.477,20.347,-33.058,-9.4638,-30.815,-1.0884,-41.701,-6.3599,-47.227,10.221,-36.462,-1.4614,-46.849,-7.3866,-33.603
13.21,-10.477,20.347,-33.058,-9.4638,-30.815,-1.0884,-41.701,-6.3599,-47.227,10.221,-36.462,-1.4614,-46.849,-7.3866,-33.603
13.3,-10.522,20.422,-33.122,-9.5078,-30.792,-1.1389,-41.732,-6.3643,-47.21,10.161,-36.461,-1.4642,-46.765,-7.4383,-33.648
13.3,-10.522,20.422,-33.122,-9.5078,-30.792,-1.1389,-41.732,-6.3643,-47.21,10.161,-36.461,-1.4642,-46.765,-7.4383,-33.648
13.3,-10.522,20.422,-33.122,-9.5078,-30.792,-1.1389,-41.732,-6.3643,-47.21,10.161,-36.461,-1.4642,-46.765,-7.4383,-33.648
13.389,-10.565,20.497,-33.186,-9.5513,-30.768,-1.189,-41.763,-6.3684,-47.193,10.1,-36.459,-1.4668,-46.681,-7.4898,-33.692
13.477,-10.609,20.572,-33.248,-9.5943,-30.744,-1.2389,-41.794,-6.3721,-47.174,10.039,-36.456,-1.4692,-46.596,-7.5412,-33.735
13.565,-10.651,20.646,-33.31,-9.6369,-30.719,-1.2886,-41.824,-6.3755,-47.156,9.9777,-36.451,-1.4713,-46.511,-7.5925,-33.777
13.565,-10.651,20.646,-33.31,-9.6369,-30.719,-1.2886,-41.824,-6.3755,-47.156,9.9777,-36.451,-1.4713,-46.511,-7.5925,-33.777
13.565,-10.651,20.646,-33.31,-9.6369,-30.719,-1.2886,-41.824,-6.3755,-47.156,9.9777,-36.451,-1.4713,-46.511,-7.5925,-33.777
13.653,-10.692,20.72,-33.371,-9.6789,-30.694,-1.3379,-41.853,-6.3785,-47.137,9.9158,-36.446,-1.4733,-46.426,-7.6437,-33.818
13.653,-10.692,20.72,-33.371,-9.6789,-30.694,-1.3379,-41.853,-6.3785,-47.137,9.9158,-36.446,-1.4733,-46.426,-7.6437,-33.818
13.653,-10.692,20.72,-33.371,-9.6789,-30.694,-1.3379,-41.853,-6.3785,-47.137,9.9158,-36.446,-1.4733,-46.426,-7.6437,-33.818
13.741,-10.733,20.794,-33.43,-9.7205,-30.668,-1.387,-41.882,-6.3812,-47.117,9.8536,-36.44,-1.4749,-46.34,-7.6948,-33.859
13.741,-10.733,20.794,-33.43,-9.7205,-30.668,-1.387,-41.882,-6.3812,-47.117,9.8536,-36.44,-1.4749,-46.34,-7.6948,-33.859
13.829,-10.774,20.867,-33.49,-9.7615,-30.641,-1.4358,-41.911,-6.3834,-47.098,9.7909,-36.432,-1.4763,-46.254,-7.7457,-33.898
13.916,-10.813,20.94,-33.548,-9.8021,-30.614,-1.4843,-41.938,-6.3853,-47.077,9.7277,-36.423,-1.4775,-46.167,-7.7966,-33.936
13.916,-10.813,20.94,-33.548,-9.8021,-30.614,-1.4843,-41.938,-6.3853,-47.077,9.7277,-36.423,-1.4775,-46.167,-7.7966,-33.936
13.916,-10.813,20.94,-33.548,-9.8021,-30.614,-1.4843,-41.938,-6.3853,-47.077,9.7277,-36.423,-1.4775,-46.167,-7.7966,-33.936
14.003,-10.852,21.013,-33.605,-9.8422,-30.586,-1.5326,-41.966,-6.3868,-47.056,9.6642,-36.414,-1.4784,-46.081,-7.8473,-33.974
14.003,-10.852,21.013,-33.605,-9.8422,-30.586,-1.5326,-41.966,-6.3868,-47.056,9.6642,-36.414,-1.4784,-46.081,-7.8473,-33.974
14.089,-10.89,21.085,-33.662,-9.8818,-30.558,-1.5805,-41.993,-6.3879,-47.035,9.6002,-36.403,-1.479,-45.993,-7.8978,-34.01
14.089,-10.89,21.085,-33.662,-9.8818,-30.558,-1.5805,-41.993,-6.3879,-47.035,9.6002,-36.403,-1.479,-45.993,-7.8978,-34.01
14.175,-10.927,21.157,-33.717,-9.9208,-30.529,-1.6281,-42.019,-6.3886,-47.013,9.5358,-36.391,-1.4794,-45.906,-7.9483,-34.046
14.175,-10.927,21.157,-33.717,-9.9208,-30.529,-1.6281,-42.019,-6.3886,-47.013,9.5358,-36.391,-1.4794,-45.906,-7.9483,-34.046
14.261,-10.964,21.229,-33.772,-9.9594,-30.5,-1.6754,-42.044,-6.3889,-46.991,9.471,-36.378,-1.4795,-45.818,-7.9986,-34.081
14.261,-10.964,21.229,-33.772,-9.9594,-30.5,-1.6754,-42.044,-6.3889,-46.991,9.471,-36.378,-1.4795,-45.818,-7.9986,-34.081
14.347,-11,21.3,-33.826,-9.9975,-30.47,-1.7225,-42.069,-6.3887,-46.968,9.4058,-36.364,-1.4793,-45.73,-8.0488,-34.114
14.347,-11,21.3,-33.826,-9.9975,-30.47,-1.7225,-42.069,-6.3887,-46.968,9.4058,-36.364,-1.4793,-45.73,-8.0488,-34.114
14.432,-11.035,21.371,-33.878,-10.035,-30.439,-1.7692,-42.094,-6.3881,-46.945,9.3402,-36.349,-1.4788,-45.641,-8.0989,-34.147
14.432,-11.035,21.371,-33.878,-10.035,-30.439,-1.7692,-42.094,-6.3881,-46.945,9.3402,-36.349,-1.4788,-45.641,-8.0989,-34.147
14.602,-11.103,21.512,-33.981,-10.109,-30.376,-1.8616,-42.141,-6.3857,-46.897,9.2076,-36.316,-1.477,-45.463,-8.1986,-34.21
14.602,-11.103,21.512,-33.981,-10.109,-30.376,-1.8616,-42.141,-6.3857,-46.897,9.2076,-36.316,-1.477,-45.463,-8.1986,-34.21
14.602,-11.103,21.512,-33.981,-10.109,-30.376,-1.8616,-42.141,-6.3857,-46.897,9.2076,-36.316,-1.477,-45.463,-8.1986,-34.21
14.687,-11.136,21.582,-34.032,-10.145,-30.343,-1.9073,-42.164,-6.3838,-46.872,9.1407,-36.298,-1.4757,-45.373,-8.2482,-34.24
14.687,-11.136,21.582,-34.032,-10.145,-30.343,-1.9073,-42.164,-6.3838,-46.872,9.1407,-36.298,-1.4757,-45.373,-8.2482,-34.24
14.771,-11.168,21.652,-34.081,-10.18,-30.31,-1.9527,-42.186,-6.3814,-46.847,9.0733,-36.278,-1.4741,-45.283,-8.2977,-34.269
14.856,-11.199,21.721,-34.129,-10.215,-30.277,-1.9978,-42.208,-6.3786,-46.822,9.0056,-36.258,-1.4721,-45.192,-8.3471,-34.296
14.856,-11.199,21.721,-34.129,-10.215,-30.277,-1.9978,-42.208,-6.3786,-46.822,9.0056,-36.258,-1.4721,-45.192,-8.3471,-34.296
14.856,-11.199,21.721,-34.129,-10.215,-30.277,-1.9978,-42.208,-6.3786,-46.822,9.0056,-36.258,-1.4721,-45.192,-8.3471,-34.296
14.939,-11.23,21.79,-34.176,-10.25,-30.243,-2.0425,-42.229,-6.3754,-46.795,8.9374,-36.236,-1.4699,-45.101,-8.3963,-34.323
14.939,-11.23,21.79,-34.176,-10.25,-30.243,-2.0425,-42.229,-6.3754,-46.795,8.9374,-36.236,-1.4699,-45.101,-8.3963,-34.323
14.939,-11.23,21.79,-34.176,-10.25,-30.243,-2.0425,-42.229,-6.3754,-46.795,8.9374,-36.236,-1.4699,-45.101,-8.3963,-34.323
15.023,-11.259,21.859,-34.222,-10.284,-30.208,-2.0869,-42.249,-6.3716,-46.769,8.8688,-36.214,-1.4673,-45.01,-8.4454,-34.349
15.106,-11.288,21.927,-34.268,-10.317,-30.172,-2.1309,-42.268,-6.3674,-46.742,8.7998,-36.19,-1.4644,-44.918,-8.4943,-34.375
15.106,-11.288,21.927,-34.268,-10.317,-30.172,-2.1309,-42.268,-6.3674,-46.742,8.7998,-36.19,-1.4644,-44.918,-8.4943,-34.375
15.189,-11.317,21.995,-34.312,-10.35,-30.136,-2.1746,-42.287,-6.3627,-46.714,8.7303,-36.166,-1.4612,-44.826,-8.5431,-34.399
15.189,-11.317,21.995,-34.312,-10.35,-30.136,-2.1746,-42.287,-6.3627,-46.714,8.7303,-36.166,-1.4612,-44.826,-8.5431,-34.399
15.272,-11.344,22.062,-34.355,-10.383,-30.099,-2.2179,-42.306,-6.3575,-46.686,8.6605,-36.14,-1.4576,-44.733,-8.5918,-34.422
15.272,-11.344,22.062,-34.355,-10.383,-30.099,-2.2179,-42.306,-6.3575,-46.686,8.6605,-36.14,-1.4576,-44.733,-8.5918,-34.422
15.355,-11.37,22.129,-34.398,-10.414,-30.062,-2.2608,-42.324,-6.3518,-46.657,8.5902,-36.113,-1.4537,-44.64,-8.6403,-34.444
15.355,-11.37,22.129,-34.398,-10.414,-30.062,-2.2608,-42.324,-6.3518,-46.657,8.5902,-36.113,-1.4537,-44.64,-8.6403,-34.444
15.437,-11.396,22.196,-34.439,-10.446,-30.024,-2.3034,-42.341,-6.3456,-46.628,8.5195,-36.085,-1.4495,-44.547,-8.6886,-34.465
15.437,-11.396,22.196,-34.439,-10.446,-30.024,-2.3034,-42.341,-6.3456,-46.628,8.5195,-36.085,-1.4495,-44.547,-8.6886,-34.465
15.519,-11.421,22.263,-34.479,-10.477,-29.985,-2.3456,-42.357,-6.3389,-46.598,8.4483,-36.056,-1.445,-44.453,-8.7368,-34.485
15.519,-11.421,22.263,-34.479,-10.477,-29.985,-2.3456,-42.357,-6.3389,-46.598,8.4483,-36.056,-1.445,-44.453,-8.7368,-34.485
15.601,-11.445,22.329,-34.519,-10.507,-29.946,-2.3874,-42.373,-6.3317,-46.568,8.3768,-36.026,-1.44,-44.359,-8.7848,-34.504
15.601,-11.445,22.329,-34.519,-10.507,-29.946,-2.3874,-42.373,-6.3317,-46.568,8.3768,-36.026,-1.44,-44.359,-8.7848,-34.504
15.682,-11.468,22.394,-34.557,-10.537,-29.906,-2.4289,-42.388,-6.3239,-46.537,8.3048,-35.995,-1.4348,-44.264,-8.8327,-34.523
15.682,-11.468,22.394,-34.557,-10.537,-29.906,-2.4289,-42.388,-6.3239,-46.537,8.3048,-35.995,-1.4348,-44.264,-8.8327,-34.523
15.763,-11.491,22.46,-34.594,-10.566,-29.866,-2.47,-42.402,-6.3156,-46.506,8.2324,-35.963,-1.4292,-44.169,-8.8804,-34.54
15.763,-11.491,22.46,-34.594,-10.566,-29.866,-2.47,-42.402,-6.3156,-46.506,8.2324,-35.963,-1.4292,-44.169,-8.8804,-34.54
15.763,-11.491,22.46,-34.594,-10.566,-29.866,-2.47,-42.402,-6.3156,-46.506,8.2324,-35.963,-1.4292,-44.169,-8.8804,-34.54
15.844,-11.512,22.525,-34.631,-10.595,-29.825,-2.5107,-42.416,-6.3068,-46.474,8.1596,-35.93,-1.4232,-44.074,-8.928,-34.556
15.844,-11.512,22.525,-34.631,-10.595,-29.825,-2.5107,-42.416,-6.3068,-46.474,8.1596,-35.93,-1.4232,-44.074,-8.928,-34.556
15.925,-11.533,22.589,-34.666,-10.623,-29.783,-2.551,-42.429,-6.2975,-46.442,8.0864,-35.896,-1.4169,-43.978,-8.9754,-34.571
16.006,-11.553,22.653,-34.7,-10.651,-29.741,-2.5909,-42.441,-6.2876,-46.409,8.0127,-35.861,-1.4102,-43.881,-9.0227,-34.586
16.006,-11.553,22.653,-34.7,-10.651,-29.741,-2.5909,-42.441,-6.2876,-46.409,8.0127,-35.861,-1.4102,-43.881,-9.0227,-34.586
16.006,-11.553,22.653,-34.7,-10.651,-29.741,-2.5909,-42.441,-6.2876,-46.409,8.0127,-35.861,-1.4102,-43.881,-9.0227,-34.586
16.086,-11.572,22.717,-34.733,-10.678,-29.698,-2.6304,-42.453,-6.2772,-46.376,7.9387,-35.824,-1.4031,-43.785,-9.0698,-34.599
16.086,-11.572,22.717,-34.733,-10.678,-29.698,-2.6304,-42.453,-6.2772,-46.376,7.9387,-35.824,-1.4031,-43.785,-9.0698,-34.599
16.166,-11.59,22.781,-34.765,-10.705,-29.654,-2.6695,-42.464,-6.2662,-46.342,7.8642,-35.787,-1.3957,-43.688,-9.1167,-34.611
16.166,-11.59,22.781,-34.765,-10.705,-29.654,-2.6695,-42.464,-6.2662,-46.342,7.8642,-35.787,-1.3957,-43.688,-9.1167,-34.611
16.246,-11.608,22.844,-34.797,-10.731,-29.609,-2.7082,-42.474,-6.2547,-46.307,7.7893,-35.749,-1.3878,-43.59,-9.1635,-34.623
16.246,-11.608,22.844,-34.797,-10.731,-29.609,-2.7082,-42.474,-6.2547,-46.307,7.7893,-35.749,-1.3878,-43.59,-9.1635,-34.623
16.326,-11.624,22.907,-34.826,-10.757,-29.564,-2.7465,-42.483,-6.2426,-46.272,7.714,-35.709,-1.3796,-43.492,-9.2101,-34.633
16.405,-11.64,22.969,-34.855,-10.782,-29.519,-2.7844,-42.492,-6.2299,-46.237,7.6382,-35.669,-1.371,-43.394,-9.2565,-34.643
16.484,-11.654,23.031,-34.883,-10.807,-29.473,-2.8218,-42.5,-6.2166,-46.201,7.5621,-35.627,-1.362,-43.295,-9.3028,-34.651
16.484,-11.654,23.031,-34.883,-10.807,-29.473,-2.8218,-42.5,-6.2166,-46.201,7.5621,-35.627,-1.362,-43.295,-9.3028,-34.651
16.484,-11.654,23.031,-34.883,-10.807,-29.473,-2.8218,-42.5,-6.2166,-46.201,7.5621,-35.627,-1.362,-43.295,-9.3028,-34.651
16.563,-11.668,23.093,-34.91,-10.831,-29.426,-2.8589,-42.507,-6.2028,-46.164,7.4855,-35.585,-1.3527,-43.196,-9.3489,-34.658
16.563,-11.668,23.093,-34.91,-10.831,-29.426,-2.8589,-42.507,-6.2028,-46.164,7.4855,-35.585,-1.3527,-43.196,-9.3489,-34.658
16.642,-11.681,23.154,-34.936,-10.855,-29.378,-2.8955,-42.514,-6.1884,-46.127,7.4085,-35.541,-1.3429,-43.096,-9.3949,-34.665
16.642,-11.681,23.154,-34.936,-10.855,-29.378,-2.8955,-42.514,-6.1884,-46.127,7.4085,-35.541,-1.3429,-43.096,-9.3949,-34.665
16.72,-11.693,23.215,-34.96,-10.878,-29.33,-2.9317,-42.52,-6.1734,-46.089,7.3312,-35.497,-1.3327,-42.996,-9.4407,-34.67
16.72,-11.693,23.215,-34.96,-10.878,-29.33,-2.9317,-42.52,-6.1734,-46.089,7.3312,-35.497,-1.3327,-42.996,-9.4407,-34.67
16.798,-11.705,23.276,-34.984,-10.901,-29.281,-2.9675,-42.525,-6.1578,-46.051,7.2533,-35.451,-1.3221,-42.895,-9.4863,-34.675
16.798,-11.705,23.276,-34.984,-10.901,-29.281,-2.9675,-42.525,-6.1578,-46.051,7.2533,-35.451,-1.3221,-42.895,-9.4863,-34.675
16.876,-11.715,23.336,-35.006,-10.923,-29.231,-3.0029,-42.529,-6.1416,-46.012,7.1751,-35.404,-1.3111,-42.794,-9.5317,-34.678
16.876,-11.715,23.336,-35.006,-10.923,-29.231,-3.0029,-42.529,-6.1416,-46.012,7.1751,-35.404,-1.3111,-42.794,-9.5317,-34.678
16.876,-11.715,23.336,-35.006,-10.923,-29.231,-3.0029,-42.529,-6.1416,-46.012,7.1751,-35.404,-1.3111,-42.794,-9.5317,-34.678
16.876,-11.715,23.336,-35.006,-10.923,-29.231,-3.0029,-42.529,-6.1416,-46.012,7.1751,-35.404,-1.3111,-42.794,-9.5317,-34.678
17.031,-11.733,23.455,-35.048,-10.965,-29.13,-3.0723,-42.535,-6.1074,-45.933,7.0175,-35.308,-1.2879,-42.591,-9.6221,-34.682
17.031,-11.733,23.455,-35.048,-10.965,-29.13,-3.0723,-42.535,-6.1074,-45.933,7.0175,-35.308,-1.2879,-42.591,-9.6221,-34.682
17.109,-11.741,23.514,-35.067,-10.986,-29.079,-3.1063,-42.537,-6.0894,-45.893,6.938,-35.258,-1.2757,-42.489,-9.6671,-34.683
17.109,-11.741,23.514,-35.067,-10.986,-29.079,-3.1063,-42.537,-6.0894,-45.893,6.938,-35.258,-1.2757,-42.489,-9.6671,-34.683
17.186,-11.747,23.573,-35.085,-11.006,-29.026,-3.1399,-42.538,-6.0708,-45.852,6.8581,-35.208,-1.263,-42.386,-9.7118,-34.682
17.186,-11.747,23.573,-35.085,-11.006,-29.026,-3.1399,-42.538,-6.0708,-45.852,6.8581,-35.208,-1.263,-42.386,-9.7118,-34.682
17.262,-11.753,23.631,-35.101,-11.025,-28.974,-3.173,-42.539,-6.0516,-45.81,6.7779,-35.156,-1.25,-42.283,-9.7564,-34.681
17.262,-11.753,23.631,-35.101,-11.025,-28.974,-3.173,-42.539,-6.0516,-45.81,6.7779,-35.156,-1.25,-42.283,-9.7564,-34.681
17.262,-11.753,23.631,-35.101,-11.025,-28.974,-3.173,-42.539,-6.0516,-45.81,6.7779,-35.156,-1.25,-42.283,-9.7564,-34.681
17.339,-11.758,23.689,-35.117,-11.045,-28.92,-3.2057,-42.538,-6.0317,-45.768,6.6972,-35.103,-1.2365,-42.179,-9.8009,-34.679
17.339,-11.758,23.689,-35.117,-11.045,-28.92,-3.2057,-42.538,-6.0317,-45.768,6.6972,-35.103,-1.2365,-42.179,-9.8009,-34.679
17.339,-11.758,23.689,-35.117,-11.045,-28.92,-3.2057,-42.538,-6.0317,-45.768,6.6972,-35.103,-1.2365,-42.179,-9.8009,-34.679
17.415,-11.762,23.747,-35.132,-11.063,-28.866,-3.238,-42.537,-6.0112,-45.726,6.6161,-35.05,-1.2225,-42.075,-9.8451,-34.675
17.491,-11.766,23.804,-35.145,-11.081,-28.811,-3.2698,-42.535,-5.9901,-45.682,6.5346,-34.995,-1.2082,-41.971,-9.8892,-34.671
17.567,-11.768,23.861,-35.157,-11.099,-28.756,-3.3011,-42.532,-5.9683,-45.639,6.4527,-34.939,-1.1933,-41.866,-9.9331,-34.666
17.567,-11.768,23.861,-35.157,-11.099,-28.756,-3.3011,-42.532,-5.9683,-45.639,6.4527,-34.939,-1.1933,-41.866,-9.9331,-34.666
17.567,-11.768,23.861,-35.157,-11.099,-28.756,-3.3011,-42.532,-5.9683,-45.639,6.4527,-34.939,-1.1933,-41.866,-9.9331,-34.666
17.643,-11.769,23.917,-35.168,-11.116,-28.699,-3.332,-42.529,-5.9459,-45.594,6.3704,-34.883,-1.1781,-41.76,-9.9768,-34.659
17.643,-11.769,23.917,-35.168,-11.116,-28.699,-3.332,-42.529,-5.9459,-45.594,6.3704,-34.883,-1.1781,-41.76,-9.9768,-34.659
17.643,-11.769,23.917,-35.168,-11.116,-28.699,-3.332,-42.529,-5.9459,-45.594,6.3704,-34.883,-1.1781,-41.76,-9.9768,-34.659
17.643,-11.769,23.917,-35.168,-11.116,-28.699,-3.332,-42.529,-5.9459,-45.594,6.3704,-34.883,-1.1781,-41.76,-9.9768,-34.659
17.794,-11.769,24.029,-35.187,-11.148,-28.585,-3.3924,-42.519,-5.8992,-45.504,6.2045,-34.766,-1.1463,-41.548,-10.064,-34.644
17.794,-11.769,24.029,-35.187,-11.148,-28.585,-3.3924,-42.519,-5.8992,-45.504,6.2045,-34.766,-1.1463,-41.548,-10.064,-34.644
17.869,-11.768,24.084,-35.195,-11.164,-28.527,-3.4218,-42.513,-5.8749,-45.458,6.121,-34.707,-1.1297,-41.441,-10.107,-34.635
17.869,-11.768,24.084,-35.195,-11.164,-28.527,-3.4218,-42.513,-5.8749,-45.458,6.121,-34.707,-1.1297,-41.441,-10.107,-34.635
17.943,-11.765,24.139,-35.201,-11.179,-28.468,-3.4509,-42.506,-5.8499,-45.411,6.0371,-34.646,-1.1126,-41.334,-10.15,-34.625
17.943,-11.765,24.139,-35.201,-11.179,-28.468,-3.4509,-42.506,-5.8499,-45.411,6.0371,-34.646,-1.1126,-41.334,-10.15,-34.625
17.943,-11.765,24.139,-35.201,-11.179,-28.468,-3.4509,-42.506,-5.8499,-45.411,6.0371,-34.646,-1.1126,-41.334,-10.15,-34.625
18.092,-11.758,24.248,-35.211,-11.207,-28.349,-3.5075,-42.49,-5.7979,-45.317,5.868,-34.522,-1.0772,-41.118,-10.236,-34.601
18.092,-11.758,24.248,-35.211,-11.207,-28.349,-3.5075,-42.49,-5.7979,-45.317,5.868,-34.522,-1.0772,-41.118,-10.236,-34.601
18.166,-11.753,24.302,-35.214,-11.221,-28.288,-3.5351,-42.48,-5.771,-45.268,5.7829,-34.459,-1.0588,-41.01,-10.278,-34.588
18.166,-11.753,24.302,-35.214,-11.221,-28.288,-3.5351,-42.48,-5.771,-45.268,5.7829,-34.459,-1.0588,-41.01,-10.278,-34.588
18.24,-11.747,24.355,-35.216,-11.234,-28.226,-3.5622,-42.47,-5.7433,-45.22,5.6973,-34.394,-1.0399,-40.901,-10.32,-34.574
18.24,-11.747,24.355,-35.216,-11.234,-28.226,-3.5622,-42.47,-5.7433,-45.22,5.6973,-34.394,-1.0399,-40.901,-10.32,-34.574
18.314,-11.74,24.408,-35.216,-11.246,-28.164,-3.5889,-42.459,-5.715,-45.17,5.6114,-34.329,-1.0206,-40.791,-10.363,-34.559
18.314,-11.74,24.408,-35.216,-11.246,-28.164,-3.5889,-42.459,-5.715,-45.17,5.6114,-34.329,-1.0206,-40.791,-10.363,-34.559
18.387,-11.732,24.461,-35.216,-11.259,-28.102,-3.615,-42.447,-5.686,-45.12,5.5251,-34.262,-1.0008,-40.681,-10.405,-34.544
18.387,-11.732,24.461,-35.216,-11.259,-28.102,-3.615,-42.447,-5.686,-45.12,5.5251,-34.262,-1.0008,-40.681,-10.405,-34.544
18.46,-11.723,24.513,-35.214,-11.27,-28.038,-3.6407,-42.434,-5.6564,-45.07,5.4384,-34.195,-0.98054,-40.571,-10.446,-34.527
18.46,-11.723,24.513,-35.214,-11.27,-28.038,-3.6407,-42.434,-5.6564,-45.07,5.4384,-34.195,-0.98054,-40.571,-10.446,-34.527
18.46,-11.723,24.513,-35.214,-11.27,-28.038,-3.6407,-42.434,-5.6564,-45.07,5.4384,-34.195,-0.98054,-40.571,-10.446,-34.527
18.533,-11.714,24.565,-35.211,-11.281,-27.974,-3.6659,-42.42,-5.6261,-45.019,5.3513,-34.127,-0.9598,-40.46,-10.488,-34.509
18.533,-11.714,24.565,-35.211,-11.281,-27.974,-3.6659,-42.42,-5.6261,-45.019,5.3513,-34.127,-0.9598,-40.46,-10.488,-34.509
18.606,-11.703,24.616,-35.207,-11.292,-27.909,-3.6906,-42.406,-5.5951,-44.967,5.2638,-34.058,-0.9386,-40.349,-10.53,-34.49
18.679,-11.692,24.668,-35.202,-11.302,-27.844,-3.7148,-42.391,-5.5634,-44.915,5.1758,-33.988,-0.91692,-40.237,-10.571,-34.47
18.679,-11.692,24.668,-35.202,-11.302,-27.844,-3.7148,-42.391,-5.5634,-44.915,5.1758,-33.988,-0.91692,-40.237,-10.571,-34.47
18.751,-11.679,24.718,-35.196,-11.312,-27.778,-3.7385,-42.374,-5.531,-44.862,5.0876,-33.917,-0.89476,-40.125,-10.612,-34.45
18.751,-11.679,24.718,-35.196,-11.312,-27.778,-3.7385,-42.374,-5.531,-44.862,5.0876,-33.917,-0.89476,-40.125,-10.612,-34.45
18.751,-11.679,24.718,-35.196,-11.312,-27.778,-3.7385,-42.374,-5.531,-44.862,5.0876,-33.917,-0.89476,-40.125,-10.612,-34.45
18.823,-11.666,24.769,-35.188,-11.321,-27.711,-3.7618,-42.357,-5.498,-44.809,4.9989,-33.845,-0.87212,-40.012,-10.653,-34.428
18.823,-11.666,24.769,-35.188,-11.321,-27.711,-3.7618,-42.357,-5.498,-44.809,4.9989,-33.845,-0.87212,-40.012,-10.653,-34.428
18.895,-11.651,24.819,-35.179,-11.33,-27.644,-3.7845,-42.339,-5.4642,-44.755,4.9098,-33.772,-0.849,-39.899,-10.694,-34.406
18.895,-11.651,24.819,-35.179,-11.33,-27.644,-3.7845,-42.339,-5.4642,-44.755,4.9098,-33.772,-0.849,-39.899,-10.694,-34.406
18.966,-11.636,24.868,-35.169,-11.338,-27.576,-3.8068,-42.32,-5.4298,-44.7,4.8203,-33.698,-0.82541,-39.786,-10.734,-34.382
18.966,-11.636,24.868,-35.169,-11.338,-27.576,-3.8068,-42.32,-5.4298,-44.7,4.8203,-33.698,-0.82541,-39.786,-10.734,-34.382
19.037,-11.62,24.918,-35.158,-11.346,-27.508,-3.8285,-42.301,-5.3946,-44.645,4.7305,-33.623,-0.80132,-39.672,-10.775,-34.358
19.037,-11.62,24.918,-35.158,-11.346,-27.508,-3.8285,-42.301,-5.3946,-44.645,4.7305,-33.623,-0.80132,-39.672,-10.775,-34.358
19.109,-11.603,24.967,-35.146,-11.354,-27.438,-3.8498,-42.28,-5.3588,-44.59,4.6403,-33.548,-0.77675,-39.558,-10.815,-34.333
19.109,-11.603,24.967,-35.146,-11.354,-27.438,-3.8498,-42.28,-5.3588,-44.59,4.6403,-33.548,-0.77675,-39.558,-10.815,-34.333
19.179,-11.585,25.015,-35.132,-11.361,-27.368,-3.8706,-42.258,-5.3223,-44.533,4.5496,-33.471,-0.7517,-39.443,-10.855,-34.306
19.25,-11.566,25.063,-35.117,-11.367,-27.298,-3.8908,-42.236,-5.2851,-44.477,4.4586,-33.394,-0.72616,-39.327,-10.895,-34.279
19.25,-11.566,25.063,-35.117,-11.367,-27.298,-3.8908,-42.236,-5.2851,-44.477,4.4586,-33.394,-0.72616,-39.327,-10.895,-34.279
19.32,-11.546,25.111,-35.101,-11.373,-27.227,-3.9106,-42.213,-5.2472,-44.419,4.3673,-33.316,-0.70012,-39.212,-10.935,-34.251
19.32,-11.546,25.111,-35.101,-11.373,-27.227,-3.9106,-42.213,-5.2472,-44.419,4.3673,-33.316,-0.70012,-39.212,-10.935,-34.251
19.32,-11.546,25.111,-35.101,-11.373,-27.227,-3.9106,-42.213,-5.2472,-44.419,4.3673,-33.316,-0.70012,-39.212,-10.935,-34.251
19.39,-11.525,25.159,-35.084,-11.379,-27.155,-3.9299,-42.189,-5.2086,-44.361,4.2755,-33.237,-0.6736,-39.095,-10.974,-34.222
19.39,-11.525,25.159,-35.084,-11.379,-27.155,-3.9299,-42.189,-5.2086,-44.361,4.2755,-33.237,-0.6736,-39.095,-10.974,-34.222
19.46,-11.503,25.206,-35.066,-11.384,-27.083,-3.9486,-42.163,-5.1692,-44.303,4.1833,-33.157,-0.64658,-38.979,-11.013,-34.192
19.46,-11.503,25.206,-35.066,-11.384,-27.083,-3.9486,-42.163,-5.1692,-44.303,4.1833,-33.157,-0.64658,-38.979,-11.013,-34.192
19.53,-11.48,25.252,-35.046,-11.389,-27.01,-3.9669,-42.137,-5.1292,-44.244,4.0908,-33.076,-0.61907,-38.862,-11.053,-34.162
19.53,-11.48,25.252,-35.046,-11.389,-27.01,-3.9669,-42.137,-5.1292,-44.244,4.0908,-33.076,-0.61907,-38.862,-11.053,-34.162
19.599,-11.457,25.298,-35.025,-11.393,-26.936,-3.9846,-42.111,-5.0885,-44.184,3.9979,-32.994,-0.59106,-38.744,-11.092,-34.13
19.668,-11.432,25.344,-35.003,-11.397,-26.862,-4.0019,-42.083,-5.0471,-44.124,3.9046,-32.911,-0.56256,-38.626,-11.131,-34.097
19.668,-11.432,25.344,-35.003,-11.397,-26.862,-4.0019,-42.083,-5.0471,-44.124,3.9046,-32.911,-0.56256,-38.626,-11.131,-34.097
19.737,-11.407,25.39,-34.98,-11.4,-26.787,-4.0186,-42.054,-5.0049,-44.064,3.811,-32.828,-0.53356,-38.508,-11.169,-34.064
19.806,-11.38,25.435,-34.955,-11.403,-26.711,-4.0348,-42.025,-4.9621,-44.002,3.717,-32.744,-0.50406,-38.389,-11.208,-34.03
19.806,-11.38,25.435,-34.955,-11.403,-26.711,-4.0348,-42.025,-4.9621,-44.002,3.717,-32.744,-0.50406,-38.389,-11.208,-34.03
19.806,-11.38,25.435,-34.955,-11.403,-26.711,-4.0348,-42.025,-4.9621,-44.002,3.717,-32.744,-0.50406,-38.389,-11.208,-34.03
19.874,-11.353,25.48,-34.93,-11.406,-26.635,-4.0506,-41.994,-4.9185,-43.94,3.6226,-32.658,-0.47406,-38.269,-11.246,-33.994
19.874,-11.353,25.48,-34.93,-11.406,-26.635,-4.0506,-41.994,-4.9185,-43.94,3.6226,-32.658,-0.47406,-38.269,-11.246,-33.994
19.874,-11.353,25.48,-34.93,-11.406,-26.635,-4.0506,-41.994,-4.9185,-43.94,3.6226,-32.658,-0.47406,-38.269,-11.246,-33.994
19.874,-11.353,25.48,-34.93,-11.406,-26.635,-4.0506,-41.994,-4.9185,-43.94,3.6226,-32.658,-0.47406,-38.269,-11.246,-33.994
19.942,-11.325,25.524,-34.903,-11.408,-26.559,-4.0658,-41.963,-4.8743,-43.878,3.5278,-32.572,-0.44356,-38.15,-11.284,-33.958
19.942,-11.325,25.524,-34.903,-11.408,-26.559,-4.0658,-41.963,-4.8743,-43.878,3.5278,-32.572,-0.44356,-38.15,-11.284,-33.958
20.078,-11.265,25.612,-34.846,-11.411,-26.403,-4.0947,-41.897,-4.7836,-43.752,3.3372,-32.398,-0.38107,-37.909,-11.36,-33.884
20.145,-11.234,25.656,-34.815,-11.412,-26.325,-4.1084,-41.863,-4.7372,-43.687,3.2413,-32.31,-0.34906,-37.788,-11.398,-33.845
20.145,-11.234,25.656,-34.815,-11.412,-26.325,-4.1084,-41.863,-4.7372,-43.687,3.2413,-32.31,-0.34906,-37.788,-11.398,-33.845
20.145,-11.234,25.656,-34.815,-11.412,-26.325,-4.1084,-41.863,-4.7372,-43.687,3.2413,-32.31,-0.34906,-37.788,-11.398,-33.845
20.145,-11.234,25.656,-34.815,-11.412,-26.325,-4.1084,-41.863,-4.7372,-43.687,3.2413,-32.31,-0.34906,-37.788,-11.398,-33.845
20.212,-11.202,25.698,-34.783,-11.413,-26.246,-4.1216,-41.828,-4.6901,-43.623,3.1451,-32.22,-0.31656,-37.666,-11.435,-33.805
20.212,-11.202,25.698,-34.783,-11.413,-26.246,-4.1216,-41.828,-4.6901,-43.623,3.1451,-32.22,-0.31656,-37.666,-11.435,-33.805
20.279,-11.17,25.741,-34.75,-11.413,-26.166,-4.1343,-41.792,-4.6423,-43.558,3.0485,-32.13,-0.28355,-37.544,-11.473,-33.765
20.279,-11.17,25.741,-34.75,-11.413,-26.166,-4.1343,-41.792,-4.6423,-43.558,3.0485,-32.13,-0.28355,-37.544,-11.473,-33.765
20.279,-11.17,25.741,-34.75,-11.413,-26.166,-4.1343,-41.792,-4.6423,-43.558,3.0485,-32.13,-0.28355,-37.544,-11.473,-33.765
20.346,-11.136,25.783,-34.716,-11.413,-26.086,-4.1464,-41.755,-4.5938,-43.492,2.9515,-32.039,-0.25004,-37.422,-11.51,-33.724
20.346,-11.136,25.783,-34.716,-11.413,-26.086,-4.1464,-41.755,-4.5938,-43.492,2.9515,-32.039,-0.25004,-37.422,-11.51,-33.724
20.346,-11.136,25.783,-34.716,-11.413,-26.086,-4.1464,-41.755,-4.5938,-43.492,2.9515,-32.039,-0.25004,-37.422,-11.51,-33.724
20.478,-11.066,25.867,-34.644,-11.411,-25.923,-4.1692,-41.679,-4.4946,-43.359,2.7565,-31.855,-0.18151,-37.176,-11.584,-33.638
20.478,-11.066,25.867,-34.644,-11.411,-25.923,-4.1692,-41.679,-4.4946,-43.359,2.7565,-31.855,-0.18151,-37.176,-11.584,-33.638
20.544,-11.029,25.908,-34.607,-11.41,-25.841,-4.1799,-41.639,-4.444,-43.291,2.6585,-31.762,-0.14648,-37.052,-11.62,-33.595
20.544,-11.029,25.908,-34.607,-11.41,-25.841,-4.1799,-41.639,-4.444,-43.291,2.6585,-31.762,-0.14648,-37.052,-11.62,-33.595
20.609,-10.992,25.949,-34.568,-11.408,-25.759,-4.19,-41.599,-4.3926,-43.223,2.5601,-31.668,-0.11095,-36.928,-11.657,-33.55
20.609,-10.992,25.949,-34.568,-11.408,-25.759,-4.19,-41.599,-4.3926,-43.223,2.5601,-31.668,-0.11095,-36.928,-11.657,-33.55
20.674,-10.954,25.989,-34.527,-11.406,-25.676,-4.1996,-41.557,-4.3405,-43.155,2.4613,-31.573,-0.07492,-36.803,-11.693,-33.504
20.674,-10.954,25.989,-34.527,-11.406,-25.676,-4.1996,-41.557,-4.3405,-43.155,2.4613,-31.573,-0.07492,-36.803,-11.693,-33.504
20.739,-10.914,26.029,-34.486,-11.404,-25.592,-4.2087,-41.515,-4.2877,-43.086,2.3622,-31.478,-0.038383,-36.678,-11.729,-33.458
20.739,-10.914,26.029,-34.486,-11.404,-25.592,-4.2087,-41.515,-4.2877,-43.086,2.3622,-31.478,-0.038383,-36.678,-11.729,-33.458
20.804,-10.874,26.069,-34.443,-11.401,-25.508,-4.2173,-41.472,-4.2342,-43.016,2.2628,-31.381,-0.0013403,-36.553,-11.765,-33.411
20.804,-10.874,26.069,-34.443,-11.401,-25.508,-4.2173,-41.472,-4.2342,-43.016,2.2628,-31.381,-0.0013403,-36.553,-11.765,-33.411
20.868,-10.833,26.108,-34.399,-11.397,-25.423,-4.2254,-41.427,-4.18,-42.946,2.163,-31.284,0.036206,-36.427,-11.801,-33.363
20.868,-10.833,26.108,-34.399,-11.397,-25.423,-4.2254,-41.427,-4.18,-42.946,2.163,-31.284,0.036206,-36.427,-11.801,-33.363
20.932,-10.792,26.147,-34.354,-11.394,-25.337,-4.233,-41.382,-4.1251,-42.875,2.0628,-31.186,0.074257,-36.301,-11.837,-33.314
20.996,-10.749,26.186,-34.308,-11.39,-25.251,-4.2401,-41.336,-4.0695,-42.804,1.9623,-31.088,0.11281,-36.174,-11.872,-33.265
20.996,-10.749,26.186,-34.308,-11.39,-25.251,-4.2401,-41.336,-4.0695,-42.804,1.9623,-31.088,0.11281,-36.174,-11.872,-33.265
21.06,-10.705,26.224,-34.261,-11.386,-25.165,-4.2467,-41.289,-4.0132,-42.732,1.8615,-30.989,0.15187,-36.047,-11.908,-33.214
21.06,-10.705,26.224,-34.261,-11.386,-25.165,-4.2467,-41.289,-4.0132,-42.732,1.8615,-30.989,0.15187,-36.047,-11.908,-33.214
21.06,-10.705,26.224,-34.261,-11.386,-25.165,-4.2467,-41.289,-4.0132,-42.732,1.8615,-30.989,0.15187,-36.047,-11.908,-33.214
21.123,-10.661,26.262,-34.212,-11.381,-25.078,-4.2528,-41.241,-3.9561,-42.66,1.7603,-30.889,0.19143,-35.92,-11.943,-33.163
21.123,-10.661,26.262,-34.212,-11.381,-25.078,-4.2528,-41.241,-3.9561,-42.66,1.7603,-30.889,0.19143,-35.92,-11.943,-33.163
21.123,-10.661,26.262,-34.212,-11.381,-25.078,-4.2528,-41.241,-3.9561,-42.66,1.7603,-30.889,0.19143,-35.92,-11.943,-33.163
21.186,-10.616,26.3,-34.162,-11.376,-24.99,-4.2583,-41.193,-3.8984,-42.587,1.6587,-30.788,0.2315,-35.792,-11.978,-33.111
21.248,-10.569,26.337,-34.111,-11.371,-24.902,-4.2634,-41.143,-3.84,-42.513,1.5569,-30.686,0.27206,-35.663,-12.013,-33.059
21.248,-10.569,26.337,-34.111,-11.371,-24.902,-4.2634,-41.143,-3.84,-42.513,1.5569,-30.686,0.27206,-35.663,-12.013,-33.059
21.311,-10.522,26.374,-34.059,-11.365,-24.814,-4.268,-41.092,-3.7808,-42.439,1.4547,-30.584,0.31313,-35.535,-12.048,-33.005
21.311,-10.522,26.374,-34.059,-11.365,-24.814,-4.268,-41.092,-3.7808,-42.439,1.4547,-30.584,0.31313,-35.535,-12.048,-33.005
21.373,-10.474,26.411,-34.006,-11.359,-24.724,-4.272,-41.041,-3.721,-42.365,1.3521,-30.482,0.3547,-35.405,-12.082,-32.951
21.373,-10.474,26.411,-34.006,-11.359,-24.724,-4.272,-41.041,-3.721,-42.365,1.3521,-30.482,0.3547,-35.405,-12.082,-32.951
21.434,-10.426,26.447,-33.951,-11.353,-24.635,-4.2756,-40.989,-3.6605,-42.29,1.2492,-30.378,0.39677,-35.276,-12.117,-32.896
21.434,-10.426,26.447,-33.951,-11.353,-24.635,-4.2756,-40.989,-3.6605,-42.29,1.2492,-30.378,0.39677,-35.276,-12.117,-32.896
21.496,-10.376,26.483,-33.895,-11.346,-24.545,-4.2786,-40.935,-3.5992,-42.214,1.146,-30.274,0.43934,-35.146,-12.151,-32.84
21.496,-10.376,26.483,-33.895,-11.346,-24.545,-4.2786,-40.935,-3.5992,-42.214,1.146,-30.274,0.43934,-35.146,-12.151,-32.84
21.557,-10.325,26.518,-33.838,-11.339,-24.454,-4.2812,-40.881,-3.5373,-42.138,1.0425,-30.169,0.4824,-35.016,-12.185,-32.784
21.557,-10.325,26.518,-33.838,-11.339,-24.454,-4.2812,-40.881,-3.5373,-42.138,1.0425,-30.169,0.4824,-35.016,-12.185,-32.784
21.617,-10.274,26.553,-33.78,-11.332,-24.363,-4.2832,-40.826,-3.4747,-42.061,0.93862,-30.063,0.52597,-34.885,-12.219,-32.727
21.678,-10.222,26.588,-33.72,-11.325,-24.271,-4.2848,-40.77,-3.4114,-41.984,0.83442,-29.957,0.57003,-34.754,-12.253,-32.669
21.678,-10.222,26.588,-33.72,-11.325,-24.271,-4.2848,-40.77,-3.4114,-41.984,0.83442,-29.957,0.57003,-34.754,-12.253,-32.669
21.678,-10.222,26.588,-33.72,-11.325,-24.271,-4.2848,-40.77,-3.4114,-41.984,0.83442,-29.957,0.57003,-34.754,-12.253,-32.669
21.738,-10.169,26.622,-33.66,-11.317,-24.179,-4.2859,-40.713,-3.3474,-41.906,0.72989,-29.85,0.61458,-34.622,-12.286,-32.61
21.738,-10.169,26.622,-33.66,-11.317,-24.179,-4.2859,-40.713,-3.3474,-41.906,0.72989,-29.85,0.61458,-34.622,-12.286,-32.61
21.738,-10.169,26.622,-33.66,-11.317,-24.179,-4.2859,-40.713,-3.3474,-41.906,0.72989,-29.85,0.61458,-34.622,-12.286,-32.61
21.797,-10.115,26.657,-33.598,-11.309,-24.087,-4.2864,-40.655,-3.2827,-41.828,0.62504,-29.743,0.65963,-34.49,-12.32,-32.55
21.857,-10.06,26.69,-33.535,-11.301,-23.994,-4.2865,-40.596,-3.2173,-41.749,0.51986,-29.635,0.70517,-34.358,-12.353,-32.49
21.916,-10.005,26.724,-33.471,-11.292,-23.9,-4.2861,-40.536,-3.1513,-41.67,0.41437,-29.526,0.75121,-34.225,-12.387,-32.429
21.916,-10.005,26.724,-33.471,-11.292,-23.9,-4.2861,-40.536,-3.1513,-41.67,0.41437,-29.526,0.75121,-34.225,-12.387,-32.429
21.975,-9.9486,26.757,-33.406,-11.283,-23.806,-4.2852,-40.476,-3.0846,-41.59,0.30856,-29.416,0.79773,-34.092,-12.42,-32.368
21.975,-9.9486,26.757,-33.406,-11.283,-23.806,-4.2852,-40.476,-3.0846,-41.59,0.30856,-29.416,0.79773,-34.092,-12.42,-32.368
21.975,-9.9486,26.757,-33.406,-11.283,-23.806,-4.2852,-40.476,-3.0846,-41.59,0.30856,-29.416,0.79773,-34.092,-12.42,-32.368
22.033,-9.8915,26.79,-33.339,-11.274,-23.712,-4.2838,-40.414,-3.0171,-41.51,0.20243,-29.306,0.84475,-33.959,-12.453,-32.306
22.033,-9.8915,26.79,-33.339,-11.274,-23.712,-4.2838,-40.414,-3.0171,-41.51,0.20243,-29.306,0.84475,-33.959,-12.453,-32.306
22.091,-9.8336,26.822,-33.272,-11.264,-23.617,-4.2819,-40.352,-2.9491,-41.429,0.095983,-29.196,0.89225,-33.825,-12.485,-32.243
22.091,-9.8336,26.822,-33.272,-11.264,-23.617,-4.2819,-40.352,-2.9491,-41.429,0.095983,-29.196,0.89225,-33.825,-12.485,-32.243
22.149,-9.7748,26.854,-33.203,-11.255,-23.521,-4.2796,-40.289,-2.8803,-41.348,-0.010775,-29.084,0.94023,-33.691,-12.518,-32.179
22.206,-9.7153,26.886,-33.133,-11.245,-23.426,-4.2767,-40.225,-2.8109,-41.266,-0.11784,-28.973,0.98871,-33.557,-12.551,-32.115
22.206,-9.7153,26.886,-33.133,-11.245,-23.426,-4.2767,-40.225,-2.8109,-41.266,-0.11784,-28.973,0.98871,-33.557,-12.551,-32.115
22.263,-9.655,26.917,-33.062,-11.235,-23.33,-4.2734,-40.16,-2.7408,-41.184,-0.22522,-28.86,1.0377,-33.422,-12.583,-32.05
22.263,-9.655,26.917,-33.062,-11.235,-23.33,-4.2734,-40.16,-2.7408,-41.184,-0.22522,-28.86,1.0377,-33.422,-12.583,-32.05
22.263,-9.655,26.917,-33.062,-11.235,-23.33,-4.2734,-40.16,-2.7408,-41.184,-0.22522,-28.86,1.0377,-33.422,-12.583,-32.05
22.32,-9.5939,26.948,-32.99,-11.224,-23.233,-4.2696,-40.094,-2.67,-41.101,-0.33291,-28.747,1.0871,-33.286,-12.615,-31.984
22.32,-9.5939,26.948,-32.99,-11.224,-23.233,-4.2696,-40.094,-2.67,-41.101,-0.33291,-28.747,1.0871,-33.286,-12.615,-31.984
22.32,-9.5939,26.948,-32.99,-11.224,-23.233,-4.2696,-40.094,-2.67,-41.101,-0.33291,-28.747,1.0871,-33.286,-12.615,-31.984
22.376,-9.532,26.979,-32.916,-11.213,-23.136,-4.2653,-40.027,-2.5986,-41.018,-0.4409,-28.634,1.137,-33.151,-12.647,-31.918
22.432,-9.4694,27.01,-32.842,-11.202,-23.039,-4.2606,-39.959,-2.5266,-40.934,-0.54919,-28.519,1.1874,-33.015,-12.679,-31.851
22.487,-9.406,27.04,-32.766,-11.191,-22.941,-4.2554,-39.891,-2.4538,-40.85,-0.65778,-28.405,1.2383,-32.879,-12.711,-31.783
22.487,-9.406,27.04,-32.766,-11.191,-22.941,-4.2554,-39.891,-2.4538,-40.85,-0.65778,-28.405,1.2383,-32.879,-12.711,-31.783
22.542,-9.3418,27.069,-32.689,-11.18,-22.843,-4.2497,-39.821,-2.3804,-40.765,-0.76668,-28.289,1.2896,-32.742,-12.743,-31.715
22.542,-9.3418,27.069,-32.689,-11.18,-22.843,-4.2497,-39.821,-2.3804,-40.765,-0.76668,-28.289,1.2896,-32.742,-12.743,-31.715
22.542,-9.3418,27.069,-32.689,-11.18,-22.843,-4.2497,-39.821,-2.3804,-40.765,-0.76668,-28.289,1.2896,-32.742,-12.743,-31.715
22.542,-9.3418,27.069,-32.689,-11.18,-22.843,-4.2497,-39.821,-2.3804,-40.765,-0.76668,-28.289,1.2896,-32.742,-12.743,-31.715
22.597,-9.2768,27.099,-32.611,-11.168,-22.744,-4.2435,-39.751,-2.3064,-40.679,-0.87587,-28.174,1.3414,-32.605,-12.774,-31.646
22.597,-9.2768,27.099,-32.611,-11.168,-22.744,-4.2435,-39.751,-2.3064,-40.679,-0.87587,-28.174,1.3414,-32.605,-12.774,-31.646
22.652,-9.2111,27.128,-32.532,-11.157,-22.645,-4.2369,-39.68,-2.2317,-40.594,-0.98536,-28.057,1.3937,-32.468,-12.806,-31.576
22.705,-9.1447,27.157,-32.452,-11.144,-22.546,-4.2298,-39.608,-2.1564,-40.507,-1.0951,-27.94,1.4464,-32.33,-12.837,-31.506
22.705,-9.1447,27.157,-32.452,-11.144,-22.546,-4.2298,-39.608,-2.1564,-40.507,-1.0951,-27.94,1.4464,-32.33,-12.837,-31.506
22.705,-9.1447,27.157,-32.452,-11.144,-22.546,-4.2298,-39.608,-2.1564,-40.507,-1.0951,-27.94,1.4464,-32.33,-12.837,-31.506
22.759,-9.0775,27.185,-32.371,-11.132,-22.446,-4.2222,-39.535,-2.0805,-40.421,-1.2052,-27.823,1.4997,-32.192,-12.868,-31.436
22.759,-9.0775,27.185,-32.371,-11.132,-22.446,-4.2222,-39.535,-2.0805,-40.421,-1.2052,-27.823,1.4997,-32.192,-12.868,-31.436
22.759,-9.0775,27.185,-32.371,-11.132,-22.446,-4.2222,-39.535,-2.0805,-40.421,-1.2052,-27.823,1.4997,-32.192,-12.868,-31.436
22.865,-8.941,27.241,-32.205,-11.107,-22.246,-4.2057,-39.387,-1.9267,-40.246,-1.4262,-27.586,1.6075,-31.915,-12.93,-31.292
22.865,-8.941,27.241,-32.205,-11.107,-22.246,-4.2057,-39.387,-1.9267,-40.246,-1.4262,-27.586,1.6075,-31.915,-12.93,-31.292
22.865,-8.941,27.241,-32.205,-11.107,-22.246,-4.2057,-39.387,-1.9267,-40.246,-1.4262,-27.586,1.6075,-31.915,-12.93,-31.292
22.917,-8.8717,27.269,-32.12,-11.094,-22.145,-4.1968,-39.311,-1.8488,-40.157,-1.5371,-27.467,1.6621,-31.776,-12.961,-31.22
22.917,-8.8717,27.269,-32.12,-11.094,-22.145,-4.1968,-39.311,-1.8488,-40.157,-1.5371,-27.467,1.6621,-31.776,-12.961,-31.22
22.969,-8.8016,27.296,-32.034,-11.081,-22.044,-4.1874,-39.235,-1.7704,-40.069,-1.6484,-27.348,1.7171,-31.637,-12.992,-31.147
22.969,-8.8016,27.296,-32.034,-11.081,-22.044,-4.1874,-39.235,-1.7704,-40.069,-1.6484,-27.348,1.7171,-31.637,-12.992,-31.147
23.072,-8.6594,27.349,-31.859,-11.055,-21.841,-4.1673,-39.08,-1.6116,-39.89,-1.8716,-27.108,1.8286,-31.357,-13.053,-30.999
23.072,-8.6594,27.349,-31.859,-11.055,-21.841,-4.1673,-39.08,-1.6116,-39.89,-1.8716,-27.108,1.8286,-31.357,-13.053,-30.999
23.072,-8.6594,27.349,-31.859,-11.055,-21.841,-4.1673,-39.08,-1.6116,-39.89,-1.8716,-27.108,1.8286,-31.357,-13.053,-30.999
23.123,-8.5872,27.375,-31.77,-11.042,-21.739,-4.1566,-39.001,-1.5313,-39.8,-1.9837,-26.987,1.885,-31.217,-13.083,-30.924
23.123,-8.5872,27.375,-31.77,-11.042,-21.739,-4.1566,-39.001,-1.5313,-39.8,-1.9837,-26.987,1.885,-31.217,-13.083,-30.924
23.173,-8.5144,27.401,-31.68,-11.028,-21.636,-4.1454,-38.922,-1.4504,-39.709,-2.096,-26.865,1.9418,-31.077,-13.113,-30.849
23.173,-8.5144,27.401,-31.68,-11.028,-21.636,-4.1454,-38.922,-1.4504,-39.709,-2.096,-26.865,1.9418,-31.077,-13.113,-30.849
23.223,-8.4408,27.427,-31.589,-11.014,-21.534,-4.1338,-38.841,-1.3688,-39.618,-2.2086,-26.744,1.9991,-30.936,-13.143,-30.773
23.223,-8.4408,27.427,-31.589,-11.014,-21.534,-4.1338,-38.841,-1.3688,-39.618,-2.2086,-26.744,1.9991,-30.936,-13.143,-30.773
23.272,-8.3667,27.452,-31.497,-11,-21.431,-4.1218,-38.76,-1.2867,-39.527,-2.3214,-26.621,2.0568,-30.795,-13.173,-30.696
23.272,-8.3667,27.452,-31.497,-11,-21.431,-4.1218,-38.76,-1.2867,-39.527,-2.3214,-26.621,2.0568,-30.795,-13.173,-30.696
23.321,-8.2918,27.477,-31.403,-10.986,-21.327,-4.1093,-38.678,-1.204,-39.435,-2.4346,-26.499,2.115,-30.653,-13.203,-30.619
23.321,-8.2918,27.477,-31.403,-10.986,-21.327,-4.1093,-38.678,-1.204,-39.435,-2.4346,-26.499,2.115,-30.653,-13.203,-30.619
23.37,-8.2163,27.502,-31.309,-10.972,-21.224,-4.0965,-38.595,-1.1207,-39.343,-2.548,-26.376,2.1736,-30.512,-13.232,-30.542
23.37,-8.2163,27.502,-31.309,-10.972,-21.224,-4.0965,-38.595,-1.1207,-39.343,-2.548,-26.376,2.1736,-30.512,-13.232,-30.542
23.37,-8.2163,27.502,-31.309,-10.972,-21.224,-4.0965,-38.595,-1.1207,-39.343,-2.548,-26.376,2.1736,-30.512,-13.232,-30.542
23.418,-8.1401,27.526,-31.213,-10.958,-21.12,-4.0831,-38.512,-1.0368,-39.25,-2.6616,-26.252,2.2326,-30.37,-13.262,-30.464
23.466,-8.0634,27.55,-31.117,-10.943,-21.016,-4.0694,-38.427,-0.95236,-39.157,-2.7755,-26.128,2.2921,-30.228,-13.291,-30.385
23.513,-7.9859,27.574,-31.019,-10.929,-20.912,-4.0553,-38.342,-0.86732,-39.063,-2.8897,-26.004,2.352,-30.085,-13.321,-30.306
23.513,-7.9859,27.574,-31.019,-10.929,-20.912,-4.0553,-38.342,-0.86732,-39.063,-2.8897,-26.004,2.352,-30.085,-13.321,-30.306
23.56,-7.9079,27.597,-30.92,-10.914,-20.807,-4.0407,-38.256,-0.78171,-38.969,-3.0042,-25.879,2.4123,-29.942,-13.35,-30.227
23.56,-7.9079,27.597,-30.92,-10.914,-20.807,-4.0407,-38.256,-0.78171,-38.969,-3.0042,-25.879,2.4123,-29.942,-13.35,-30.227
23.56,-7.9079,27.597,-30.92,-10.914,-20.807,-4.0407,-38.256,-0.78171,-38.969,-3.0042,-25.879,2.4123,-29.942,-13.35,-30.227
23.56,-7.9079,27.597,-30.92,-10.914,-20.807,-4.0407,-38.256,-0.78171,-38.969,-3.0042,-25.879,2.4123,-29.942,-13.35,-30.227
23.606,-7.8292,27.62,-30.821,-10.899,-20.703,-4.0257,-38.169,-0.69554,-38.875,-3.1188,-25.754,2.473,-29.8,-13.379,-30.147
23.606,-7.8292,27.62,-30.821,-10.899,-20.703,-4.0257,-38.169,-0.69554,-38.875,-3.1188,-25.754,2.473,-29.8,-13.379,-30.147
23.652,-7.7499,27.643,-30.72,-10.884,-20.598,-4.0103,-38.082,-0.6088,-38.78,-3.2338,-25.628,2.5341,-29.656,-13.408,-30.067
23.697,-7.67,27.665,-30.618,-10.869,-20.493,-3.9945,-37.993,-0.52151,-38.684,-3.3489,-25.502,2.5957,-29.513,-13.437,-29.986
23.697,-7.67,27.665,-30.618,-10.869,-20.493,-3.9945,-37.993,-0.52151,-38.684,-3.3489,-25.502,2.5957,-29.513,-13.437,-29.986
23.697,-7.67,27.665,-30.618,-10.869,-20.493,-3.9945,-37.993,-0.52151,-38.684,-3.3489,-25.502,2.5957,-29.513,-13.437,-29.986
23.742,-7.5896,27.687,-30.515,-10.854,-20.387,-3.9783,-37.904,-0.43367,-38.589,-3.4644,-25.376,2.6576,-29.369,-13.466,-29.904
23.742,-7.5896,27.687,-30.515,-10.854,-20.387,-3.9783,-37.904,-0.43367,-38.589,-3.4644,-25.376,2.6576,-29.369,-13.466,-29.904
23.742,-7.5896,27.687,-30.515,-10.854,-20.387,-3.9783,-37.904,-0.43367,-38.589,-3.4644,-25.376,2.6576,-29.369,-13.466,-29.904
23.83,-7.4269,27.731,-30.307,-10.824,-20.176,-3.9447,-37.724,-0.25635,-38.396,-3.696,-25.122,2.7828,-29.081,-13.523,-29.74
23.83,-7.4269,27.731,-30.307,-10.824,-20.176,-3.9447,-37.724,-0.25635,-38.396,-3.696,-25.122,2.7828,-29.081,-13.523,-29.74
23.873,-7.3447,27.752,-30.201,-10.808,-20.07,-3.9274,-37.633,-0.16689,-38.299,-3.8121,-24.995,2.8459,-28.937,-13.551,-29.657
23.873,-7.3447,27.752,-30.201,-10.808,-20.07,-3.9274,-37.633,-0.16689,-38.299,-3.8121,-24.995,2.8459,-28.937,-13.551,-29.657
23.916,-7.2619,27.773,-30.094,-10.793,-19.964,-3.9096,-37.54,-0.076891,-38.201,-3.9285,-24.867,2.9095,-28.792,-13.58,-29.574
23.916,-7.2619,27.773,-30.094,-10.793,-19.964,-3.9096,-37.54,-0.076891,-38.201,-3.9285,-24.867,2.9095,-28.792,-13.58,-29.574
23.959,-7.1786,27.794,-29.986,-10.778,-19.858,-3.8914,-37.448,0.013629,-38.103,-4.0451,-24.739,2.9735,-28.647,-13.608,-29.491
24.001,-7.0947,27.814,-29.878,-10.762,-19.751,-3.8729,-37.354,0.10467,-38.005,-4.162,-24.611,3.0378,-28.502,-13.636,-29.407
24.001,-7.0947,27.814,-29.878,-10.762,-19.751,-3.8729,-37.354,0.10467,-38.005,-4.162,-24.611,3.0378,-28.502,-13.636,-29.407
24.001,-7.0947,27.814,-29.878,-10.762,-19.751,-3.8729,-37.354,0.10467,-38.005,-4.162,-24.611,3.0378,-28.502,-13.636,-29.407
24.042,-7.0103,27.834,-29.768,-10.746,-19.645,-3.854,-37.26,0.19622,-37.907,-4.279,-24.482,3.1025,-28.357,-13.664,-29.323
24.042,-7.0103,27.834,-29.768,-10.746,-19.645,-3.854,-37.26,0.19622,-37.907,-4.279,-24.482,3.1025,-28.357,-13.664,-29.323
24.083,-6.9254,27.854,-29.657,-10.731,-19.538,-3.8347,-37.165,0.28829,-37.808,-4.3963,-24.353,3.1677,-28.211,-13.692,-29.238
24.083,-6.9254,27.854,-29.657,-10.731,-19.538,-3.8347,-37.165,0.28829,-37.808,-4.3963,-24.353,3.1677,-28.211,-13.692,-29.238
24.123,-6.84,27.873,-29.545,-10.715,-19.431,-3.8151,-37.069,0.38085,-37.708,-4.5139,-24.224,3.2332,-28.066,-13.72,-29.153
24.123,-6.84,27.873,-29.545,-10.715,-19.431,-3.8151,-37.069,0.38085,-37.708,-4.5139,-24.224,3.2332,-28.066,-13.72,-29.153
24.163,-6.754,27.892,-29.433,-10.7,-19.324,-3.7951,-36.973,0.47392,-37.608,-4.6316,-24.094,3.299,-27.92,-13.748,-29.067
24.163,-6.754,27.892,-29.433,-10.7,-19.324,-3.7951,-36.973,0.47392,-37.608,-4.6316,-24.094,3.299,-27.92,-13.748,-29.067
24.202,-6.6676,27.911,-29.319,-10.684,-19.217,-3.7747,-36.876,0.56747,-37.508,-4.7496,-23.964,3.3653,-27.774,-13.775,-28.981
24.202,-6.6676,27.911,-29.319,-10.684,-19.217,-3.7747,-36.876,0.56747,-37.508,-4.7496,-23.964,3.3653,-27.774,-13.775,-28.981
24.241,-6.5806,27.93,-29.204,-10.668,-19.11,-3.754,-36.778,0.66152,-37.408,-4.8677,-23.834,3.4319,-27.627,-13.803,-28.895
24.241,-6.5806,27.93,-29.204,-10.668,-19.11,-3.754,-36.778,0.66152,-37.408,-4.8677,-23.834,3.4319,-27.627,-13.803,-28.895
24.279,-6.4932,27.948,-29.089,-10.652,-19.003,-3.7329,-36.68,0.75604,-37.307,-4.9861,-23.704,3.4988,-27.481,-13.83,-28.808
24.279,-6.4932,27.948,-29.089,-10.652,-19.003,-3.7329,-36.68,0.75604,-37.307,-4.9861,-23.704,3.4988,-27.481,-13.83,-28.808
24.317,-6.4053,27.966,-28.973,-10.637,-18.895,-3.7115,-36.581,0.85104,-37.205,-5.1047,-23.573,3.5661,-27.334,-13.858,-28.721
24.317,-6.4053,27.966,-28.973,-10.637,-18.895,-3.7115,-36.581,0.85104,-37.205,-5.1047,-23.573,3.5661,-27.334,-13.858,-28.721
24.354,-6.3169,27.984,-28.855,-10.621,-18.788,-3.6897,-36.481,0.94651,-37.104,-5.2235,-23.442,3.6338,-27.188,-13.885,-28.634
24.354,-6.3169,27.984,-28.855,-10.621,-18.788,-3.6897,-36.481,0.94651,-37.104,-5.2235,-23.442,3.6338,-27.188,-13.885,-28.634
24.391,-6.2281,28.001,-28.737,-10.605,-18.68,-3.6676,-36.381,1.0424,-37.002,-5.3425,-23.311,3.7019,-27.041,-13.912,-28.547
24.391,-6.2281,28.001,-28.737,-10.605,-18.68,-3.6676,-36.381,1.0424,-37.002,-5.3425,-23.311,3.7019,-27.041,-13.912,-28.547
24.391,-6.2281,28.001,-28.737,-10.605,-18.68,-3.6676,-36.381,1.0424,-37.002,-5.3425,-23.311,3.7019,-27.041,-13.912,-28.547
24.427,-6.1389,28.018,-28.618,-10.589,-18.573,-3.6452,-36.28,1.1388,-36.899,-5.4617,-23.18,3.7702,-26.894,-13.939,-28.459
24.427,-6.1389,28.018,-28.618,-10.589,-18.573,-3.6452,-36.28,1.1388,-36.899,-5.4617,-23.18,3.7702,-26.894,-13.939,-28.459
24.427,-6.1389,28.018,-28.618,-10.589,-18.573,-3.6452,-36.28,1.1388,-36.899,-5.4617,-23.18,3.7702,-26.894,-13.939,-28.459
24.497,-5.959,28.051,-28.377,-10.558,-18.358,-3.5993,-36.076,1.333,-36.693,-5.7008,-22.916,3.908,-26.599,-13.993,-28.282
24.531,-5.8685,28.068,-28.255,-10.542,-18.25,-3.5758,-35.973,1.4307,-36.59,-5.8205,-22.784,3.9774,-26.452,-14.02,-28.193
24.531,-5.8685,28.068,-28.255,-10.542,-18.25,-3.5758,-35.973,1.4307,-36.59,-5.8205,-22.784,3.9774,-26.452,-14.02,-28.193
24.531,-5.8685,28.068,-28.255,-10.542,-18.25,-3.5758,-35.973,1.4307,-36.59,-5.8205,-22.784,3.9774,-26.452,-14.02,-28.193
24.565,-5.7776,28.084,-28.132,-10.526,-18.142,-3.5521,-35.869,1.5288,-36.486,-5.9405,-22.652,4.0472,-26.304,-14.046,-28.104
24.565,-5.7776,28.084,-28.132,-10.526,-18.142,-3.5521,-35.869,1.5288,-36.486,-5.9405,-22.652,4.0472,-26.304,-14.046,-28.104
24.598,-5.6862,28.099,-28.008,-10.511,-18.035,-3.528,-35.765,1.6274,-36.382,-6.0607,-22.52,4.1172,-26.156,-14.073,-28.014
24.598,-5.6862,28.099,-28.008,-10.511,-18.035,-3.528,-35.765,1.6274,-36.382,-6.0607,-22.52,4.1172,-26.156,-14.073,-28.014
24.631,-5.5945,28.115,-27.884,-10.495,-17.927,-3.5037,-35.66,1.7264,-36.277,-6.1811,-22.387,4.1876,-26.009,-14.1,-27.925
24.631,-5.5945,28.115,-27.884,-10.495,-17.927,-3.5037,-35.66,1.7264,-36.277,-6.1811,-22.387,4.1876,-26.009,-14.1,-27.925
24.663,-5.5023,28.13,-27.759,-10.479,-17.819,-3.479,-35.555,1.8259,-36.173,-6.3016,-22.254,4.2583,-25.861,-14.126,-27.835
24.694,-5.4099,28.144,-27.632,-10.464,-17.712,-3.454,-35.449,1.9257,-36.067,-6.4223,-22.121,4.3293,-25.713,-14.152,-27.745
24.694,-5.4099,28.144,-27.632,-10.464,-17.712,-3.454,-35.449,1.9257,-36.067,-6.4223,-22.121,4.3293,-25.713,-14.152,-27.745
24.725,-5.317,28.159,-27.505,-10.448,-17.604,-3.4288,-35.342,2.0259,-35.962,-6.5432,-21.988,4.4007,-25.564,-14.179,-27.654
24.725,-5.317,28.159,-27.505,-10.448,-17.604,-3.4288,-35.342,2.0259,-35.962,-6.5432,-21.988,4.4007,-25.564,-14.179,-27.654
24.725,-5.317,28.159,-27.505,-10.448,-17.604,-3.4288,-35.342,2.0259,-35.962,-6.5432,-21.988,4.4007,-25.564,-14.179,-27.654
24.725,-5.317,28.159,-27.505,-10.448,-17.604,-3.4288,-35.342,2.0259,-35.962,-6.5432,-21.988,4.4007,-25.564,-14.179,-27.654
24.755,-5.2238,28.173,-27.378,-10.433,-17.497,-3.4032,-35.235,2.1266,-35.856,-6.6643,-21.855,4.4723,-25.416,-14.205,-27.563
24.755,-5.2238,28.173,-27.378,-10.433,-17.497,-3.4032,-35.235,2.1266,-35.856,-6.6643,-21.855,4.4723,-25.416,-14.205,-27.563
24.785,-5.1303,28.187,-27.249,-10.418,-17.389,-3.3773,-35.128,2.2276,-35.75,-6.7855,-21.721,4.5442,-25.268,-14.231,-27.472
24.814,-5.0364,28.201,-27.119,-10.402,-17.282,-3.3512,-35.019,2.329,-35.644,-6.9069,-21.587,4.6165,-25.119,-14.257,-27.381
24.814,-5.0364,28.201,-27.119,-10.402,-17.282,-3.3512,-35.019,2.329,-35.644,-6.9069,-21.587,4.6165,-25.119,-14.257,-27.381
24.842,-4.9422,28.214,-26.989,-10.387,-17.174,-3.3248,-34.911,2.4308,-35.537,-7.0284,-21.454,4.689,-24.971,-14.283,-27.29
24.842,-4.9422,28.214,-26.989,-10.387,-17.174,-3.3248,-34.911,2.4308,-35.537,-7.0284,-21.454,4.689,-24.971,-14.283,-27.29
24.87,-4.8477,28.227,-26.858,-10.372,-17.067,-3.2981,-34.801,2.5329,-35.43,-7.1501,-21.32,4.7618,-24.822,-14.309,-27.198
24.87,-4.8477,28.227,-26.858,-10.372,-17.067,-3.2981,-34.801,2.5329,-35.43,-7.1501,-21.32,4.7618,-24.822,-14.309,-27.198
24.897,-4.7529,28.24,-26.726,-10.357,-16.96,-3.2712,-34.691,2.6355,-35.323,-7.272,-21.186,4.8349,-24.674,-14.334,-27.107
24.897,-4.7529,28.24,-26.726,-10.357,-16.96,-3.2712,-34.691,2.6355,-35.323,-7.272,-21.186,4.8349,-24.674,-14.334,-27.107
24.923,-4.6578,28.253,-26.593,-10.342,-16.852,-3.244,-34.581,2.7383,-35.215,-7.394,-21.052,4.9083,-24.525,-14.36,-27.015
24.923,-4.6578,28.253,-26.593,-10.342,-16.852,-3.244,-34.581,2.7383,-35.215,-7.394,-21.052,4.9083,-24.525,-14.36,-27.015
24.949,-4.5625,28.265,-26.46,-10.327,-16.745,-3.2165,-34.47,2.8416,-35.107,-7.5162,-20.917,4.982,-24.376,-14.386,-26.922
24.949,-4.5625,28.265,-26.46,-10.327,-16.745,-3.2165,-34.47,2.8416,-35.107,-7.5162,-20.917,4.982,-24.376,-14.386,-26.922
24.975,-4.4668,28.277,-26.326,-10.312,-16.638,-3.1888,-34.359,2.9452,-34.999,-7.6385,-20.783,5.0559,-24.228,-14.411,-26.83
24.975,-4.4668,28.277,-26.326,-10.312,-16.638,-3.1888,-34.359,2.9452,-34.999,-7.6385,-20.783,5.0559,-24.228,-14.411,-26.83
24.999,-4.3709,28.289,-26.191,-10.297,-16.532,-3.1608,-34.247,3.0491,-34.89,-7.761,-20.649,5.1301,-24.079,-14.437,-26.738
24.999,-4.3709,28.289,-26.191,-10.297,-16.532,-3.1608,-34.247,3.0491,-34.89,-7.761,-20.649,5.1301,-24.079,-14.437,-26.738
24.999,-4.3709,28.289,-26.191,-10.297,-16.532,-3.1608,-34.247,3.0491,-34.89,-7.761,-20.649,5.1301,-24.079,-14.437,-26.738
25.023,-4.2747,28.3,-26.055,-10.283,-16.425,-3.1326,-34.135,3.1533,-34.781,-7.8836,-20.514,5.2046,-23.93,-14.462,-26.645
25.023,-4.2747,28.3,-26.055,-10.283,-16.425,-3.1326,-34.135,3.1533,-34.781,-7.8836,-20.514,5.2046,-23.93,-14.462,-26.645
25.023,-4.2747,28.3,-26.055,-10.283,-16.425,-3.1326,-34.135,3.1533,-34.781,-7.8836,-20.514,5.2046,-23.93,-14.462,-26.645
25.069,-4.0817,28.322,-25.781,-10.254,-16.212,-3.0754,-33.909,3.3628,-34.563,-8.1292,-20.245,5.3543,-23.632,-14.513,-26.459
25.069,-4.0817,28.322,-25.781,-10.254,-16.212,-3.0754,-33.909,3.3628,-34.563,-8.1292,-20.245,5.3543,-23.632,-14.513,-26.459
25.069,-4.0817,28.322,-25.781,-10.254,-16.212,-3.0754,-33.909,3.3628,-34.563,-8.1292,-20.245,5.3543,-23.632,-14.513,-26.459
25.091,-3.9849,28.333,-25.643,-10.24,-16.106,-3.0465,-33.795,3.468,-34.454,-8.2522,-20.11,5.4295,-23.483,-14.538,-26.366
25.091,-3.9849,28.333,-25.643,-10.24,-16.106,-3.0465,-33.795,3.468,-34.454,-8.2522,-20.11,5.4295,-23.483,-14.538,-26.366
25.091,-3.9849,28.333,-25.643,-10.24,-16.106,-3.0465,-33.795,3.468,-34.454,-8.2522,-20.11,5.4295,-23.483,-14.538,-26.366
25.133,-3.7906,28.353,-25.365,-10.212,-15.894,-2.988,-33.566,3.6794,-34.234,-8.4986,-19.841,5.5807,-23.185,-14.588,-26.179
25.133,-3.7906,28.353,-25.365,-10.212,-15.894,-2.988,-33.566,3.6794,-34.234,-8.4986,-19.841,5.5807,-23.185,-14.588,-26.179
25.153,-3.6931,28.363,-25.225,-10.198,-15.788,-2.9584,-33.451,3.7855,-34.123,-8.622,-19.706,5.6566,-23.037,-14.613,-26.086
25.153,-3.6931,28.363,-25.225,-10.198,-15.788,-2.9584,-33.451,3.7855,-34.123,-8.622,-19.706,5.6566,-23.037,-14.613,-26.086
25.153,-3.6931,28.363,-25.225,-10.198,-15.788,-2.9584,-33.451,3.7855,-34.123,-8.622,-19.706,5.6566,-23.037,-14.613,-26.086
25.172,-3.5955,28.372,-25.085,-10.184,-15.683,-2.9286,-33.336,3.8919,-34.013,-8.7455,-19.571,5.7328,-22.888,-14.637,-25.992
25.172,-3.5955,28.372,-25.085,-10.184,-15.683,-2.9286,-33.336,3.8919,-34.013,-8.7455,-19.571,5.7328,-22.888,-14.637,-25.992
25.209,-3.3998,28.391,-24.801,-10.157,-15.473,-2.8684,-33.104,4.1055,-33.791,-8.9928,-19.301,5.8858,-22.59,-14.687,-25.805
25.209,-3.3998,28.391,-24.801,-10.157,-15.473,-2.8684,-33.104,4.1055,-33.791,-8.9928,-19.301,5.8858,-22.59,-14.687,-25.805
25.209,-3.3998,28.391,-24.801,-10.157,-15.473,-2.8684,-33.104,4.1055,-33.791,-8.9928,-19.301,5.8858,-22.59,-14.687,-25.805
25.226,-3.3017,28.399,-24.658,-10.144,-15.368,-2.838,-32.987,4.2127,-33.679,-9.1166,-19.166,5.9627,-22.441,-14.711,-25.711
25.226,-3.3017,28.399,-24.658,-10.144,-15.368,-2.838,-32.987,4.2127,-33.679,-9.1166,-19.166,5.9627,-22.441,-14.711,-25.711
25.243,-3.2035,28.408,-24.515,-10.131,-15.263,-2.8074,-32.87,4.3202,-33.568,-9.2405,-19.031,6.0398,-22.292,-14.736,-25.617
25.243,-3.2035,28.408,-24.515,-10.131,-15.263,-2.8074,-32.87,4.3202,-33.568,-9.2405,-19.031,6.0398,-22.292,-14.736,-25.617
25.259,-3.1051,28.416,-24.371,-10.118,-15.159,-2.7766,-32.753,4.428,-33.456,-9.3645,-18.896,6.117,-22.144,-14.76,-25.523
25.274,-3.0066,28.424,-24.226,-10.105,-15.055,-2.7456,-32.635,4.536,-33.344,-9.4887,-18.762,6.1945,-21.995,-14.785,-25.429
25.274,-3.0066,28.424,-24.226,-10.105,-15.055,-2.7456,-32.635,4.536,-33.344,-9.4887,-18.762,6.1945,-21.995,-14.785,-25.429
25.288,-2.908,28.432,-24.081,-10.092,-14.951,-2.7145,-32.517,4.6442,-33.232,-9.6129,-18.627,6.2722,-21.846,-14.809,-25.335
25.288,-2.908,28.432,-24.081,-10.092,-14.951,-2.7145,-32.517,4.6442,-33.232,-9.6129,-18.627,6.2722,-21.846,-14.809,-25.335
25.288,-2.908,28.432,-24.081,-10.092,-14.951,-2.7145,-32.517,4.6442,-33.232,-9.6129,-18.627,6.2722,-21.846,-14.809,-25.335
25.302,-2.8094,28.439,-23.935,-10.08,-14.848,-2.6832,-32.399,4.7526,-33.119,-9.7372,-18.492,6.3501,-21.698,-14.833,-25.241
25.302,-2.8094,28.439,-23.935,-10.08,-14.848,-2.6832,-32.399,4.7526,-33.119,-9.7372,-18.492,6.3501,-21.698,-14.833,-25.241
25.302,-2.8094,28.439,-23.935,-10.08,-14.848,-2.6832,-32.399,4.7526,-33.119,-9.7372,-18.492,6.3501,-21.698,-14.833,-25.241
25.315,-2.7106,28.446,-23.789,-10.068,-14.744,-2.6517,-32.28,4.8613,-33.006,-9.8615,-18.357,6.4281,-21.549,-14.857,-25.147
25.315,-2.7106,28.446,-23.789,-10.068,-14.744,-2.6517,-32.28,4.8613,-33.006,-9.8615,-18.357,6.4281,-21.549,-14.857,-25.147
25.339,-2.5129,28.459,-23.494,-10.044,-14.539,-2.5883,-32.042,5.0794,-32.781,-10.111,-18.087,6.5848,-21.253,-14.905,-24.958
25.339,-2.5129,28.459,-23.494,-10.044,-14.539,-2.5883,-32.042,5.0794,-32.781,-10.111,-18.087,6.5848,-21.253,-14.905,-24.958
25.339,-2.5129,28.459,-23.494,-10.044,-14.539,-2.5883,-32.042,5.0794,-32.781,-10.111,-18.087,6.5848,-21.253,-14.905,-24.958
25.35,-2.4139,28.466,-23.345,-10.032,-14.436,-2.5563,-31.922,5.1887,-32.667,-10.235,-17.953,6.6634,-21.105,-14.929,-24.864
25.35,-2.4139,28.466,-23.345,-10.032,-14.436,-2.5563,-31.922,5.1887,-32.667,-10.235,-17.953,6.6634,-21.105,-14.929,-24.864
25.36,-2.315,28.472,-23.197,-10.02,-14.334,-2.5242,-31.802,5.2983,-32.554,-10.36,-17.818,6.7422,-20.956,-14.953,-24.77
25.36,-2.315,28.472,-23.197,-10.02,-14.334,-2.5242,-31.802,5.2983,-32.554,-10.36,-17.818,6.7422,-20.956,-14.953,-24.77
25.36,-2.315,28.472,-23.197,-10.02,-14.334,-2.5242,-31.802,5.2983,-32.554,-10.36,-17.818,6.7422,-20.956,-14.953,-24.77
25.37,-2.2159,28.478,-23.047,-10.009,-14.233,-2.492,-31.682,5.408,-32.44,-10.485,-17.684,6.8211,-20.808,-14.977,-24.676
25.37,-2.2159,28.478,-23.047,-10.009,-14.233,-2.492,-31.682,5.408,-32.44,-10.485,-17.684,6.8211,-20.808,-14.977,-24.676
25.378,-2.1169,28.483,-22.897,-9.9979,-14.131,-2.4597,-31.561,5.5179,-32.326,-10.609,-17.549,6.9002,-20.661,-15.001,-24.582
25.386,-2.0178,28.488,-22.747,-9.987,-14.03,-2.4272,-31.44,5.628,-32.212,-10.734,-17.415,6.9795,-20.513,-15.024,-24.487
25.394,-1.9188,28.493,-22.596,-9.9763,-13.93,-2.3945,-31.319,5.7383,-32.098,-10.859,-17.28,7.0589,-20.365,-15.048,-24.393
25.394,-1.9188,28.493,-22.596,-9.9763,-13.93,-2.3945,-31.319,5.7383,-32.098,-10.859,-17.28,7.0589,-20.365,-15.048,-24.393
25.4,-1.8197,28.498,-22.444,-9.9658,-13.83,-2.3618,-31.198,5.8488,-31.984,-10.984,-17.146,7.1385,-20.218,-15.071,-24.299
25.4,-1.8197,28.498,-22.444,-9.9658,-13.83,-2.3618,-31.198,5.8488,-31.984,-10.984,-17.146,7.1385,-20.218,-15.071,-24.299
25.4,-1.8197,28.498,-22.444,-9.9658,-13.83,-2.3618,-31.198,5.8488,-31.984,-10.984,-17.146,7.1385,-20.218,-15.071,-24.299
25.4,-1.8197,28.498,-22.444,-9.9658,-13.83,-2.3618,-31.198,5.8488,-31.984,-10.984,-17.146,7.1385,-20.218,-15.071,-24.299
25.406,-1.7207,28.503,-22.292,-9.9555,-13.73,-2.3289,-31.076,5.9594,-31.869,-11.109,-17.012,7.2182,-20.07,-15.095,-24.205
25.406,-1.7207,28.503,-22.292,-9.9555,-13.73,-2.3289,-31.076,5.9594,-31.869,-11.109,-17.012,7.2182,-20.07,-15.095,-24.205
25.406,-1.7207,28.503,-22.292,-9.9555,-13.73,-2.3289,-31.076,5.9594,-31.869,-11.109,-17.012,7.2182,-20.07,-15.095,-24.205
25.411,-1.6217,28.507,-22.14,-9.9455,-13.63,-2.2959,-30.955,6.0701,-31.754,-11.234,-16.878,7.2981,-19.923,-15.118,-24.111
25.419,-1.4238,28.515,-21.833,-9.926,-13.432,-2.2297,-30.711,6.2921,-31.524,-11.484,-16.611,7.4582,-19.629,-15.164,-23.923
25.419,-1.4238,28.515,-21.833,-9.926,-13.432,-2.2297,-30.711,6.2921,-31.524,-11.484,-16.611,7.4582,-19.629,-15.164,-23.923
25.419,-1.4238,28.515,-21.833,-9.926,-13.432,-2.2297,-30.711,6.2921,-31.524,-11.484,-16.611,7.4582,-19.629,-15.164,-23.923
25.422,-1.325,28.518,-21.679,-9.9166,-13.334,-2.1964,-30.588,6.4033,-31.409,-11.609,-16.477,7.5384,-19.482,-15.187,-23.829
25.422,-1.325,28.518,-21.679,-9.9166,-13.334,-2.1964,-30.588,6.4033,-31.409,-11.609,-16.477,7.5384,-19.482,-15.187,-23.829
25.422,-1.325,28.518,-21.679,-9.9166,-13.334,-2.1964,-30.588,6.4033,-31.409,-11.609,-16.477,7.5384,-19.482,-15.187,-23.829
25.424,-1.2262,28.521,-21.524,-9.9075,-13.236,-2.163,-30.466,6.5147,-31.294,-11.735,-16.343,7.6188,-19.336,-15.21,-23.735
25.424,-1.2262,28.521,-21.524,-9.9075,-13.236,-2.163,-30.466,6.5147,-31.294,-11.735,-16.343,7.6188,-19.336,-15.21,-23.735
25.425,-1.1276,28.524,-21.37,-9.8986,-13.139,-2.1296,-30.343,6.6261,-31.179,-11.86,-16.21,7.6993,-19.189,-15.233,-23.641
25.425,-1.1276,28.524,-21.37,-9.8986,-13.139,-2.1296,-30.343,6.6261,-31.179,-11.86,-16.21,7.6993,-19.189,-15.233,-23.641
25.425,-1.029,28.527,-21.214,-9.8899,-13.042,-2.096,-30.22,6.7377,-31.063,-11.985,-16.077,7.7799,-19.043,-15.256,-23.548
25.425,-1.029,28.527,-21.214,-9.8899,-13.042,-2.096,-30.22,6.7377,-31.063,-11.985,-16.077,7.7799,-19.043,-15.256,-23.548
25.425,-1.029,28.527,-21.214,-9.8899,-13.042,-2.096,-30.22,6.7377,-31.063,-11.985,-16.077,7.7799,-19.043,-15.256,-23.548
25.424,-0.8321,28.532,-20.902,-9.8733,-12.849,-2.0287,-29.974,6.9612,-30.831,-12.235,-15.811,7.9414,-18.751,-15.301,-23.361
25.424,-0.8321,28.532,-20.902,-9.8733,-12.849,-2.0287,-29.974,6.9612,-30.831,-12.235,-15.811,7.9414,-18.751,-15.301,-23.361
25.422,-0.73385,28.534,-20.746,-9.8653,-12.754,-1.9949,-29.851,7.0731,-30.715,-12.361,-15.678,8.0223,-18.606,-15.324,-23.267
25.422,-0.73385,28.534,-20.746,-9.8653,-12.754,-1.9949,-29.851,7.0731,-30.715,-12.361,-15.678,8.0223,-18.606,-15.324,-23.267
25.42,-0.63574,28.536,-20.588,-9.8576,-12.658,-1.9611,-29.727,7.185,-30.599,-12.486,-15.546,8.1033,-18.46,-15.347,-23.174
25.42,-0.63574,28.536,-20.588,-9.8576,-12.658,-1.9611,-29.727,7.185,-30.599,-12.486,-15.546,8.1033,-18.46,-15.347,-23.174
25.42,-0.63574,28.536,-20.588,-9.8576,-12.658,-1.9611,-29.727,7.185,-30.599,-12.486,-15.546,8.1033,-18.46,-15.347,-23.174
25.416,-0.53776,28.537,-20.431,-9.8502,-12.564,-1.9272,-29.604,7.2971,-30.483,-12.611,-15.413,8.1844,-18.315,-15.369,-23.081
25.416,-0.53776,28.537,-20.431,-9.8502,-12.564,-1.9272,-29.604,7.2971,-30.483,-12.611,-15.413,8.1844,-18.315,-15.369,-23.081
25.416,-0.53776,28.537,-20.431,-9.8502,-12.564,-1.9272,-29.604,7.2971,-30.483,-12.611,-15.413,8.1844,-18.315,-15.369,-23.081
25.407,-0.3423,28.539,-20.115,-9.8361,-12.376,-1.8593,-29.356,7.5215,-30.25,-12.861,-15.149,8.3468,-18.026,-15.413,-22.895
25.407,-0.3423,28.539,-20.115,-9.8361,-12.376,-1.8593,-29.356,7.5215,-30.25,-12.861,-15.149,8.3468,-18.026,-15.413,-22.895
25.402,-0.24482,28.54,-19.956,-9.8294,-12.283,-1.8253,-29.232,7.6338,-30.134,-12.987,-15.017,8.4281,-17.881,-15.436,-22.802
25.402,-0.24482,28.54,-19.956,-9.8294,-12.283,-1.8253,-29.232,7.6338,-30.134,-12.987,-15.017,8.4281,-17.881,-15.436,-22.802
25.395,-0.14752,28.54,-19.798,-9.823,-12.19,-1.7912,-29.109,7.7461,-30.017,-13.112,-14.886,8.5095,-17.737,-15.458,-22.709
25.395,-0.14752,28.54,-19.798,-9.823,-12.19,-1.7912,-29.109,7.7461,-30.017,-13.112,-14.886,8.5095,-17.737,-15.458,-22.709
25.395,-0.14752,28.54,-19.798,-9.823,-12.19,-1.7912,-29.109,7.7461,-30.017,-13.112,-14.886,8.5095,-17.737,-15.458,-22.709
25.388,-0.050427,28.541,-19.638,-9.8168,-12.098,-1.7571,-28.985,7.8585,-29.9,-13.237,-14.754,8.591,-17.593,-15.48,-22.617
25.388,-0.050427,28.541,-19.638,-9.8168,-12.098,-1.7571,-28.985,7.8585,-29.9,-13.237,-14.754,8.591,-17.593,-15.48,-22.617
25.38,0.046466,28.541,-19.479,-9.811,-12.006,-1.723,-28.861,7.971,-29.784,-13.362,-14.623,8.6725,-17.449,-15.501,-22.525
25.371,0.14314,28.54,-19.319,-9.8053,-11.915,-1.6888,-28.737,8.0834,-29.667,-13.487,-14.492,8.7541,-17.306,-15.523,-22.432
25.371,0.14314,28.54,-19.319,-9.8053,-11.915,-1.6888,-28.737,8.0834,-29.667,-13.487,-14.492,8.7541,-17.306,-15.523,-22.432
25.362,0.2396,28.54,-19.158,-9.8,-11.825,-1.6547,-28.612,8.196,-29.55,-13.612,-14.362,8.8358,-17.163,-15.545,-22.34
25.362,0.2396,28.54,-19.158,-9.8,-11.825,-1.6547,-28.612,8.196,-29.55,-13.612,-14.362,8.8358,-17.163,-15.545,-22.34
25.351,0.33582,28.539,-18.998,-9.7949,-11.735,-1.6205,-28.488,8.3085,-29.433,-13.737,-14.231,8.9174,-17.02,-15.567,-22.249
25.351,0.33582,28.539,-18.998,-9.7949,-11.735,-1.6205,-28.488,8.3085,-29.433,-13.737,-14.231,8.9174,-17.02,-15.567,-22.249
25.34,0.43179,28.538,-18.837,-9.7901,-11.645,-1.5863,-28.364,8.4211,-29.315,-13.862,-14.101,8.9992,-16.877,-15.588,-22.157
