14927,54.3,20.123,0,0.0013225,0,15161,54.208,0,0,0,0,0.0072792,1
14927,54.3,20.123,0,0.0013225,0,15161,54.208,0,0,0,0,0.0072792,1
14927,54.3,20.123,0,0.0013225,0,15161,54.208,0,0,0,0,0.0072792,1
14929,54.3,20.123,0,0.00091628,0,15161,54.208,0,0,0,0,0.0073423,1
14929,54.3,20.123,0,0.00091628,0,15161,54.208,0,0,0,0,0.0073423,1
14929,54.3,20.123,0,0.00091628,0,15161,54.208,0,0,0,0,0.0073423,1
14929,54.3,20.123,0,0.00091628,0,15161,54.208,0,0,0,0,0.0073423,1
14929,54.3,20.123,0,0.00091628,0,15161,54.208,0,0,0,0,0.0073423,1
14929,54.3,20.123,0,0.00091628,0,15161,54.208,0,0,0,0,0.0073423,1
14929,54.3,20.123,0,0.00091628,0,15161,54.208,0,0,0,0,0.0073423,1
14930,54.3,20.123,0,0.00083484,0,15161,54.208,0,0,0,0,0.007355,1
14930,54.3,20.123,0,0.00083484,0,15161,54.208,0,0,0,0,0.007355,1
14930,54.3,20.123,0,0.00083484,0,15161,54.208,0,0,0,0,0.007355,1
14930,54.3,20.123,0,0.00083484,0,15161,54.208,0,0,0,0,0.007355,1
14930,54.3,20.123,0,0.00075357,0,15161,54.208,0,0,0,0,0.0073678,1
14930,54.3,20.123,0,0.00075357,0,15161,54.208,0,0,0,0,0.0073678,1
14930,54.3,20.123,0,0.00075357,0,15161,54.208,0,0,0,0,0.0073678,1
14930,54.3,20.123,0,0.00075357,0,15161,54.208,0,0,0,0,0.0073678,1
14931,54.3,20.123,0,0.00051072,0,15161,54.208,0,0,0,0,0.0074065,1
14931,54.3,20.123,0,0.00051072,0,15161,54.208,0,0,0,0,0.0074065,1
14931,54.3,20.123,0,0.00051072,0,15161,54.208,0,0,0,0,0.0074065,1
14933,54.3,20.123,0,0.00018464,0,15161,54.208,0,0,0,0,0.0074586,1
14933,54.3,20.123,0,0.00018464,0,15161,54.208,0,0,0,0,0.0074586,1
14933,54.3,20.123,0,0.00010353,0,15161,54.208,0,0,0,0,0.0074718,1
14933,54.3,20.123,0,0.00010353,0,15161,54.208,0,0,0,0,0.0074718,1
14933,54.3,20.123,0,0.00010353,0,15161,54.208,0,0,0,0,0.0074718,1
14933,54.3,20.123,0,0.00010353,0,15161,54.208,0,0,0,0,0.0074718,1
14933,54.3,20.123,0,0.00010353,0,15161,54.208,0,0,0,0,0.0074718,1
14933,54.3,20.123,0,0.00010353,0,15161,54.208,0,0,0,0,0.0074718,1
14933,54.3,20.123,0,0.00010353,0,15161,54.208,0,0,0,0,0.0074718,1
14933,54.3,20.123,0,0.00010353,0,15161,54.208,0,0,0,0,0.0074718,1
14933,54.3,20.123,0,0.00010353,0,15161,54.208,0,0,0,0,0.0074718,1
14933,54.3,20.123,0,0.00010353,0,15161,54.208,0,0,0,0,0.0074718,1
14933,54.3,20.123,0,0.00010353,0,15161,54.208,0,0,0,0,0.0074718,1
14934,54.3,20.123,0,-0.00033498,0,15161,54.208,0,0,0,0,0.0075115,1
14934,54.3,20.123,0,-0.00033498,0,15161,54.208,0,0,0,0,0.0075115,1
14934,54.3,20.123,0,-0.00033498,0,15161,54.208,0,0,0,0,0.0075115,1
14934,54.3,20.123,0,-0.00033498,0,15161,54.208,0,0,0,0,0.0075115,1
14934,54.3,20.123,0,-0.00033498,0,15161,54.208,0,0,0,0,0.0075115,1
14935,54.3,20.123,0,-0.00052598,0,15161,54.208,0,0,0,0,0.0075249,1
14936,54.3,20.123,0,-0.00090138,0,15161,54.208,0,0,0,0,0.0075517,1
14936,54.3,20.123,0,-0.00090138,0,15161,54.208,0,0,0,0,0.0075517,1
14936,54.3,20.123,0,-0.00090138,0,15161,54.208,0,0,0,0,0.0075517,1
14937,54.3,20.123,0,-0.0014426,0,15161,54.208,0,0,0,0,0.0075923,1
14937,54.3,20.123,0,-0.0014426,0,15161,54.208,0,0,0,0,0.0075923,1
14938,54.3,20.123,0,-0.0019586,0,15161,54.208,0,0,0,0,0.0076333,1
14938,54.3,20.123,0,-0.0019586,0,15161,54.208,0,0,0,0,0.0076333,1
14938,54.3,20.123,0,-0.0019586,0,15161,54.208,0,0,0,0,0.0076333,1
14938,54.3,20.123,0,-0.0019586,0,15161,54.208,0,0,0,0,0.0076333,1
14938,54.3,20.123,0,-0.0019586,0,15161,54.208,0,0,0,0,0.0076333,1
14938,54.3,20.123,0,-0.0019586,0,15161,54.208,0,0,0,0,0.0076333,1
14938,54.3,20.123,0,-0.0019586,0,15161,54.208,0,0,0,0,0.0076333,1
14938,54.3,20.122,0,-0.0021244,0,15161,54.208,0,0,0,0,0.0076471,1
14938,54.3,20.122,0,-0.0021244,0,15161,54.208,0,0,0,0,0.0076471,1
14938,54.3,20.122,0,-0.0021244,0,15161,54.208,0,0,0,0,0.0076471,1
14938,54.3,20.122,0,-0.0021244,0,15161,54.208,0,0,0,0,0.0076471,1
14938,54.3,20.122,0,-0.0021244,0,15161,54.208,0,0,0,0,0.0076471,1
14938,54.3,20.122,0,-0.0021244,0,15161,54.208,0,0,0,0,0.0076471,1
14938,54.3,20.122,0,-0.0021244,0,15161,54.208,0,0,0,0,0.0076471,1
14939,54.3,20.122,0,-0.0022871,0,15161,54.208,0,0,0,0,0.0076609,1
14939,54.3,20.122,0,-0.0022871,0,15161,54.208,0,0,0,0,0.0076609,1
14939,54.3,20.122,0,-0.0022871,0,15161,54.208,0,0,0,0,0.0076609,1
14939,54.3,20.122,0,-0.0022871,0,15161,54.208,0,0,0,0,0.0076609,1
14939,54.3,20.122,0,-0.0022871,0,15161,54.208,0,0,0,0,0.0076609,1
14939,54.3,20.122,0,-0.0022871,0,15161,54.208,0,0,0,0,0.0076609,1
14939,54.3,20.122,0,-0.0022871,0,15161,54.208,0,0,0,0,0.0076609,1
14939,54.3,20.122,0,-0.0024493,0,15161,54.208,0,0,0,0,0.0076748,1
14939,54.3,20.122,0,-0.0024493,0,15161,54.208,0,0,0,0,0.0076748,1
14939,54.3,20.122,0,-0.0024493,0,15161,54.208,0,0,0,0,0.0076748,1
14939,54.3,20.122,0,-0.0024493,0,15161,54.208,0,0,0,0,0.0076748,1
14942,54.3,20.122,0,-0.0033687,0,15161,54.208,0,0,0,0,0.0077591,1
14942,54.3,20.122,0,-0.0033687,0,15161,54.208,0,0,0,0,0.0077591,1
14942,54.3,20.122,0,-0.0033687,0,15161,54.208,0,0,0,0,0.0077591,1
14943,54.3,20.122,0,-0.0039392,0,15161,54.208,0,0,0,0,0.0078164,1
14943,54.3,20.122,0,-0.0039392,0,15161,54.208,0,0,0,0,0.0078164,1
14943,54.3,20.122,0,-0.0039392,0,15161,54.208,0,0,0,0,0.0078164,1
14943,54.3,20.122,0,-0.0039392,0,15161,54.208,0,0,0,0,0.0078164,1
14943,54.3,20.122,0,-0.0039392,0,15161,54.208,0,0,0,0,0.0078164,1
14943,54.3,20.122,0,-0.0039392,0,15161,54.208,0,0,0,0,0.0078164,1
14944,54.3,20.122,0,-0.0042139,0,15161,54.208,0,0,0,0,0.0078453,1
14944,54.3,20.122,0,-0.0042139,0,15161,54.208,0,0,0,0,0.0078453,1
14944,54.3,20.121,0,-0.0043493,0,15161,54.208,0,0,0,0,0.0078599,1
14944,54.3,20.121,0,-0.0043493,0,15161,54.208,0,0,0,0,0.0078599,1
14944,54.3,20.121,0,-0.0043493,0,15161,54.208,0,0,0,0,0.0078599,1
14944,54.3,20.121,0,-0.0043493,0,15161,54.208,0,0,0,0,0.0078599,1
14944,54.3,20.121,0,-0.0043493,0,15161,54.208,0,0,0,0,0.0078599,1
14944,54.3,20.121,0,-0.0043493,0,15161,54.208,0,0,0,0,0.0078599,1
14944,54.3,20.121,0,-0.0043493,0,15161,54.208,0,0,0,0,0.0078599,1
14944,54.3,20.121,0,-0.0043493,0,15161,54.208,0,0,0,0,0.0078599,1
14944,54.3,20.121,0,-0.0043493,0,15161,54.208,0,0,0,0,0.0078599,1
14944,54.3,20.121,0,-0.0043493,0,15161,54.208,0,0,0,0,0.0078599,1
14944,54.3,20.121,0,-0.0043493,0,15161,54.208,0,0,0,0,0.0078599,1
14944,54.3,20.121,0,-0.0043493,0,15161,54.208,0,0,0,0,0.0078599,1
14944,54.3,20.121,0,-0.0043493,0,15161,54.208,0,0,0,0,0.0078599,1
14944,54.3,20.121,0,-0.0043493,0,15161,54.208,0,0,0,0,0.0078599,1
14944,54.3,20.121,0,-0.0043493,0,15161,54.208,0,0,0,0,0.0078599,1
14947,54.3,20.121,0,-0.0051314,0,15161,54.208,0,0,0,0,0.0079484,1
14947,54.3,20.121,0,-0.0051314,0,15161,54.208,0,0,0,0,0.0079484,1
14947,54.3,20.121,0,-0.0051314,0,15161,54.208,0,0,0,0,0.0079484,1
14947,54.3,20.121,0,-0.0051314,0,15161,54.208,0,0,0,0,0.0079484,1
14947,54.3,20.121,0,-0.0051314,0,15161,54.208,0,0,0,0,0.0079484,1
14948,54.3,20.12,0,-0.0056237,0,15161,54.208,0,0,0,0,0.0080085,1
14948,54.3,20.12,0,-0.0056237,0,15161,54.208,0,0,0,0,0.0080085,1
14948,54.3,20.12,0,-0.0056237,0,15161,54.208,0,0,0,0,0.0080085,1
14948,54.3,20.12,0,-0.0056237,0,15161,54.208,0,0,0,0,0.0080085,1
14948,54.3,20.12,0,-0.0056237,0,15161,54.208,0,0,0,0,0.0080085,1
14948,54.3,20.12,0,-0.0056237,0,15161,54.208,0,0,0,0,0.0080085,1
14948,54.3,20.12,0,-0.0056237,0,15161,54.208,0,0,0,0,0.0080085,1
14948,54.3,20.12,0,-0.0056237,0,15161,54.208,0,0,0,0,0.0080085,1
14948,54.3,20.12,0,-0.0056237,0,15161,54.208,0,0,0,0,0.0080085,1
14948,54.3,20.12,0,-0.0056237,0,15161,54.208,0,0,0,0,0.0080085,1
14948,54.3,20.12,0,-0.0056237,0,15161,54.208,0,0,0,0,0.0080085,1
14948,54.3,20.12,0,-0.0056237,0,15161,54.208,0,0,0,0,0.0080085,1
14948,54.3,20.12,0,-0.0056237,0,15161,54.208,0,0,0,0,0.0080085,1
14950,54.3,20.12,0,-0.0062115,0,15161,54.208,0,0,0,0,0.0080849,1
14950,54.3,20.12,0,-0.0062115,0,15161,54.208,0,0,0,0,0.0080849,1
14951,54.3,20.12,0,-0.0064388,0,15161,54.208,0,0,0,0,0.0081158,1
14951,54.3,20.12,0,-0.0064388,0,15161,54.208,0,0,0,0,0.0081158,1
14951,54.3,20.12,0,-0.0064388,0,15161,54.208,0,0,0,0,0.0081158,1
14951,54.3,20.12,0,-0.0064388,0,15161,54.208,0,0,0,0,0.0081158,1
14951,54.3,20.12,0,-0.0064388,0,15161,54.208,0,0,0,0,0.0081158,1
14951,54.3,20.12,0,-0.0064388,0,15161,54.208,0,0,0,0,0.0081158,1
14951,54.3,20.12,0,-0.0064388,0,15161,54.208,0,0,0,0,0.0081158,1
14951,54.3,20.12,0,-0.0064388,0,15161,54.208,0,0,0,0,0.0081158,1
14953,54.3,20.119,0,-0.0068828,0,15161,54.208,0,0,0,0,0.0081785,1
14953,54.3,20.119,0,-0.0068828,0,15161,54.208,0,0,0,0,0.0081785,1
14953,54.3,20.119,0,-0.0068828,0,15161,54.208,0,0,0,0,0.0081785,1
14953,54.3,20.119,0,-0.0068828,0,15161,54.208,0,0,0,0,0.0081785,1
14953,54.3,20.119,0,-0.0068828,0,15161,54.208,0,0,0,0,0.0081785,1
14953,54.3,20.119,0,-0.0068828,0,15161,54.208,0,0,0,0,0.0081785,1
14953,54.3,20.119,0,-0.0069928,0,15161,54.208,0,0,0,0,0.0081943,1
14953,54.3,20.119,0,-0.0069928,0,15161,54.208,0,0,0,0,0.0081943,1
14953,54.3,20.119,0,-0.0069928,0,15161,54.208,0,0,0,0,0.0081943,1
14953,54.3,20.119,0,-0.0069928,0,15161,54.208,0,0,0,0,0.0081943,1
14953,54.3,20.119,0,-0.0069928,0,15161,54.208,0,0,0,0,0.0081943,1
14955,54.3,20.119,0,-0.007312,0,15161,54.208,0,0,0,0,0.0082421,1
14955,54.3,20.119,0,-0.007312,0,15161,54.208,0,0,0,0,0.0082421,1
14955,54.3,20.119,0,-0.007312,0,15161,54.208,0,0,0,0,0.0082421,1
14955,54.3,20.119,0,-0.007312,0,15161,54.208,0,0,0,0,0.0082421,1
14955,54.3,20.119,0,-0.007312,0,15161,54.208,0,0,0,0,0.0082421,1
14955,54.3,20.119,0,-0.007312,0,15161,54.208,0,0,0,0,0.0082421,1
14956,54.3,20.118,0,-0.0076272,0,15161,54.208,0,0,0,0,0.0082905,1
14956,54.3,20.118,0,-0.0076272,0,15161,54.208,0,0,0,0,0.0082905,1
14956,54.3,20.118,0,-0.0076272,0,15161,54.208,0,0,0,0,0.0082905,1
14957,54.3,20.118,0,-0.0079359,0,15161,54.208,0,0,0,0,0.0083395,1
14957,54.3,20.118,0,-0.0079359,0,15161,54.208,0,0,0,0,0.0083395,1
14958,54.3,20.117,0,-0.0081359,0,15161,54.208,0,0,0,0,0.0083724,1
14959,54.3,20.117,0,-0.0083341,0,15161,54.208,0,0,0,0,0.0084056,1
14959,54.3,20.117,0,-0.0083341,0,15161,54.208,0,0,0,0,0.0084056,1
14959,54.3,20.117,0,-0.0083341,0,15161,54.208,0,0,0,0,0.0084056,1
14959,54.3,20.117,0,-0.0083341,0,15161,54.208,0,0,0,0,0.0084056,1
14959,54.3,20.117,0,-0.0083341,0,15161,54.208,0,0,0,0,0.0084056,1
14959,54.3,20.117,0,-0.0083341,0,15161,54.208,0,0,0,0,0.0084056,1
14959,54.3,20.117,0,-0.0083341,0,15161,54.208,0,0,0,0,0.0084056,1
14959,54.3,20.117,0,-0.0083341,0,15161,54.208,0,0,0,0,0.0084056,1
14959,54.3,20.117,0,-0.0083341,0,15161,54.208,0,0,0,0,0.0084056,1
14959,54.3,20.117,0,-0.0083341,0,15161,54.208,0,0,0,0,0.0084056,1
14959,54.3,20.117,0,-0.0083341,0,15161,54.208,0,0,0,0,0.0084056,1
14959,54.3,20.117,0,-0.0083341,0,15161,54.208,0,0,0,0,0.0084056,1
14959,54.3,20.117,0,-0.0083341,0,15161,54.208,0,0,0,0,0.0084056,1
14960,54.3,20.116,0,-0.0086281,0,15161,54.208,0,0,0,0,0.0084559,1
14960,54.3,20.116,0,-0.0086281,0,15161,54.208,0,0,0,0,0.0084559,1
14960,54.3,20.116,0,-0.0086281,0,15161,54.208,0,0,0,0,0.0084559,1
14960,54.3,20.116,0,-0.0086281,0,15161,54.208,0,0,0,0,0.0084559,1
14960,54.3,20.116,0,-0.0087253,0,15161,54.208,0,0,0,0,0.0084729,1
14960,54.3,20.116,0,-0.0087253,0,15161,54.208,0,0,0,0,0.0084729,1
14960,54.3,20.116,0,-0.0087253,0,15161,54.208,0,0,0,0,0.0084729,1
14960,54.3,20.116,0,-0.0087253,0,15161,54.208,0,0,0,0,0.0084729,1
14960,54.3,20.116,0,-0.0087253,0,15161,54.208,0,0,0,0,0.0084729,1
14961,54.3,20.116,0,-0.0090139,0,15161,54.208,0,0,0,0,0.008524,1
14961,54.3,20.116,0,-0.0090139,0,15161,54.208,0,0,0,0,0.008524,1
14961,54.3,20.116,0,-0.0090139,0,15161,54.208,0,0,0,0,0.008524,1
14961,54.3,20.116,0,-0.0090139,0,15161,54.208,0,0,0,0,0.008524,1
14961,54.3,20.116,0,-0.0090139,0,15161,54.208,0,0,0,0,0.008524,1
14963,54.3,20.115,0,-0.0094861,0,15161,54.208,0,0,0,0,0.0086106,1
14963,54.3,20.115,0,-0.0094861,0,15161,54.208,0,0,0,0,0.0086106,1
14964,54.3,20.115,0,-0.0095792,0,15161,54.208,0,0,0,0,0.0086281,1
14964,54.3,20.115,0,-0.0095792,0,15161,54.208,0,0,0,0,0.0086281,1
14964,54.3,20.114,0,-0.0096718,0,15161,54.208,0,0,0,0,0.0086457,1
14964,54.3,20.114,0,-0.0096718,0,15161,54.208,0,0,0,0,0.0086457,1
14964,54.3,20.114,0,-0.0096718,0,15161,54.208,0,0,0,0,0.0086457,1
14965,54.3,20.114,0,-0.0098556,0,15161,54.208,0,0,0,0,0.0086811,1
14965,54.3,20.114,0,-0.0099469,0,15161,54.208,0,0,0,0,0.0086989,1
14965,54.3,20.114,0,-0.0099469,0,15161,54.208,0,0,0,0,0.0086989,1
14965,54.3,20.114,0,-0.0099469,0,15161,54.208,0,0,0,0,0.0086989,1
14965,54.3,20.114,0,-0.0099469,0,15161,54.208,0,0,0,0,0.0086989,1
14965,54.3,20.114,0,-0.0099469,0,15161,54.208,0,0,0,0,0.0086989,1
14966,54.3,20.114,0,-0.010038,0,15161,54.208,0,0,0,0,0.0087168,1
14966,54.3,20.114,0,-0.010038,0,15161,54.208,0,0,0,0,0.0087168,1
14966,54.3,20.114,0,-0.010038,0,15161,54.208,0,0,0,0,0.0087168,1
14966,54.3,20.114,0,-0.010038,0,15161,54.208,0,0,0,0,0.0087168,1
14966,54.3,20.114,0,-0.010038,0,15161,54.208,0,0,0,0,0.0087168,1
14966,54.3,20.114,0,-0.010038,0,15161,54.208,0,0,0,0,0.0087168,1
14966,54.3,20.114,0,-0.010038,0,15161,54.208,0,0,0,0,0.0087168,1
14966,54.3,20.114,0,-0.010038,0,15161,54.208,0,0,0,0,0.0087168,1
14967,54.3,20.113,0,-0.010218,0,15161,54.208,0,0,0,0,0.0087528,1
14967,54.3,20.113,0,-0.010307,0,15161,54.208,0,0,0,0,0.0087709,1
14967,54.3,20.113,0,-0.010307,0,15161,54.208,0,0,0,0,0.0087709,1
14968,54.3,20.113,0,-0.010485,0,15161,54.208,0,0,0,0,0.0088074,1
14968,54.3,20.113,0,-0.010485,0,15161,54.208,0,0,0,0,0.0088074,1
14968,54.3,20.113,0,-0.010485,0,15161,54.208,0,0,0,0,0.0088074,1
14969,54.3,20.112,0,-0.010753,0,15161,54.208,0,0,0,0,0.0088626,1
14969,54.3,20.112,0,-0.010753,0,15161,54.208,0,0,0,0,0.0088626,1
14970,54.3,20.112,0,-0.010931,0,15161,54.208,0,0,0,0,0.0088999,1
14970,54.3,20.112,0,-0.010931,0,15161,54.208,0,0,0,0,0.0088999,1
14970,54.3,20.112,0,-0.010931,0,15161,54.208,0,0,0,0,0.0088999,1
14970,54.3,20.112,0,-0.010931,0,15161,54.208,0,0,0,0,0.0088999,1
14970,54.3,20.112,0,-0.010931,0,15161,54.208,0,0,0,0,0.0088999,1
14970,54.3,20.112,0,-0.010931,0,15161,54.208,0,0,0,0,0.0088999,1
14970,54.3,20.112,0,-0.010931,0,15161,54.208,0,0,0,0,0.0088999,1
14970,54.3,20.111,0,-0.011019,0,15161,54.208,0,0,0,0,0.0089186,1
14970,54.3,20.111,0,-0.011019,0,15161,54.208,0,0,0,0,0.0089186,1
14970,54.3,20.111,0,-0.011019,0,15161,54.208,0,0,0,0,0.0089186,1
14970,54.3,20.111,0,-0.011019,0,15161,54.208,0,0,0,0,0.0089186,1
14970,54.3,20.111,0,-0.011019,0,15161,54.208,0,0,0,0,0.0089186,1
14970,54.3,20.111,0,-0.011019,0,15161,54.208,0,0,0,0,0.0089186,1
14970,54.3,20.111,0,-0.011019,0,15161,54.208,0,0,0,0,0.0089186,1
14971,54.3,20.111,0,-0.011107,0,15161,54.208,0,0,0,0,0.0089374,1
14971,54.3,20.111,0,-0.011107,0,15161,54.208,0,0,0,0,0.0089374,1
14971,54.3,20.111,0,-0.011107,0,15161,54.208,0,0,0,0,0.0089374,1
14971,54.3,20.111,0,-0.011107,0,15161,54.208,0,0,0,0,0.0089374,1
14971,54.3,20.111,0,-0.011107,0,15161,54.208,0,0,0,0,0.0089374,1
14971,54.3,20.111,0,-0.011107,0,15161,54.208,0,0,0,0,0.0089374,1
14971,54.3,20.111,0,-0.011107,0,15161,54.208,0,0,0,0,0.0089374,1
14971,54.3,20.111,0,-0.011194,0,15161,54.208,0,0,0,0,0.0089563,1
14971,54.3,20.111,0,-0.011194,0,15161,54.208,0,0,0,0,0.0089563,1
14971,54.3,20.111,0,-0.011194,0,15161,54.208,0,0,0,0,0.0089563,1
14973,54.3,20.11,0,-0.011709,0,15161,54.208,0,0,0,0,0.0090713,1
14975,54.3,20.109,0,-0.012053,0,15161,54.208,0,0,0,0,0.0091496,1
14975,54.3,20.109,0,-0.012053,0,15161,54.208,0,0,0,0,0.0091496,1
14975,54.3,20.109,0,-0.012053,0,15161,54.208,0,0,0,0,0.0091496,1
14975,54.3,20.109,0,-0.012053,0,15161,54.208,0,0,0,0,0.0091496,1
14975,54.3,20.109,0,-0.012053,0,15161,54.208,0,0,0,0,0.0091496,1
14975,54.3,20.109,0,-0.012053,0,15161,54.208,0,0,0,0,0.0091496,1
14975,54.3,20.109,0,-0.012053,0,15161,54.208,0,0,0,0,0.0091496,1
14975,54.3,20.108,0,-0.012138,0,15161,54.208,0,0,0,0,0.0091694,1
14975,54.3,20.108,0,-0.012138,0,15161,54.208,0,0,0,0,0.0091694,1
14975,54.3,20.108,0,-0.012138,0,15161,54.208,0,0,0,0,0.0091694,1
14975,54.3,20.108,0,-0.012138,0,15161,54.208,0,0,0,0,0.0091694,1
14975,54.3,20.108,0,-0.012138,0,15161,54.208,0,0,0,0,0.0091694,1
14975,54.3,20.108,0,-0.012138,0,15161,54.208,0,0,0,0,0.0091694,1
14975,54.3,20.108,0,-0.012138,0,15161,54.208,0,0,0,0,0.0091694,1
14975,54.3,20.108,0,-0.012138,0,15161,54.208,0,0,0,0,0.0091694,1
14975,54.3,20.108,0,-0.012138,0,15161,54.208,0,0,0,0,0.0091694,1
14975,54.3,20.108,0,-0.012138,0,15161,54.208,0,0,0,0,0.0091694,1
14975,54.3,20.108,0,-0.012138,0,15161,54.208,0,0,0,0,0.0091694,1
14975,54.3,20.108,0,-0.012138,0,15161,54.208,0,0,0,0,0.0091694,1
14975,54.3,20.108,0,-0.012138,0,15161,54.208,0,0,0,0,0.0091694,1
14975,54.3,20.108,0,-0.012138,0,15161,54.208,0,0,0,0,0.0091694,1
14975,54.3,20.108,0,-0.012138,0,15161,54.208,0,0,0,0,0.0091694,1
14976,54.3,20.108,0,-0.012306,0,15161,54.208,0,0,0,0,0.0092092,1
14977,54.3,20.107,0,-0.012557,0,15161,54.208,0,0,0,0,0.0092696,1
14977,54.3,20.107,0,-0.012557,0,15161,54.208,0,0,0,0,0.0092696,1
14977,54.3,20.107,0,-0.012557,0,15161,54.208,0,0,0,0,0.0092696,1
14980,54.3,20.105,0,-0.013138,0,15161,54.208,0,0,0,0,0.0094137,1
14980,54.3,20.105,0,-0.013138,0,15161,54.208,0,0,0,0,0.0094137,1
14980,54.3,20.105,0,-0.013138,0,15161,54.208,0,0,0,0,0.0094137,1
14980,54.3,20.105,0,-0.013138,0,15161,54.208,0,0,0,0,0.0094137,1
14980,54.3,20.105,0,-0.013138,0,15161,54.208,0,0,0,0,0.0094137,1
14980,54.3,20.105,0,-0.013138,0,15161,54.208,0,0,0,0,0.0094137,1
14980,54.3,20.105,0,-0.013138,0,15161,54.208,0,0,0,0,0.0094137,1
14980,54.3,20.105,0,-0.013138,0,15161,54.208,0,0,0,0,0.0094137,1
14980,54.3,20.105,0,-0.013138,0,15161,54.208,0,0,0,0,0.0094137,1
14980,54.3,20.105,0,-0.013138,0,15161,54.208,0,0,0,0,0.0094137,1
14980,54.3,20.105,0,-0.013138,0,15161,54.208,0,0,0,0,0.0094137,1
14980,54.3,20.105,0,-0.013138,0,15161,54.208,0,0,0,0,0.0094137,1
14980,54.3,20.105,0,-0.013138,0,15161,54.208,0,0,0,0,0.0094137,1
14980,54.3,20.105,0,-0.013138,0,15161,54.208,0,0,0,0,0.0094137,1
14980,54.3,20.105,0,-0.013138,0,15161,54.208,0,0,0,0,0.0094137,1
14980,54.3,20.105,0,-0.013138,0,15161,54.208,0,0,0,0,0.0094137,1
14981,54.3,20.105,0,-0.013305,0,15161,54.208,0,0,0,0,0.0094556,1
14981,54.3,20.105,0,-0.013305,0,15161,54.208,0,0,0,0,0.0094556,1
14981,54.3,20.105,0,-0.013305,0,15161,54.208,0,0,0,0,0.0094556,1
14981,54.3,20.105,0,-0.013305,0,15161,54.208,0,0,0,0,0.0094556,1
14981,54.3,20.105,0,-0.013305,0,15161,54.208,0,0,0,0,0.0094556,1
14981,54.3,20.105,0,-0.013305,0,15161,54.208,0,0,0,0,0.0094556,1
14981,54.3,20.105,0,-0.013305,0,15161,54.208,0,0,0,0,0.0094556,1
14981,54.3,20.104,0,-0.013388,0,15161,54.208,0,0,0,0,0.0094768,1
14981,54.3,20.104,0,-0.013388,0,15161,54.208,0,0,0,0,0.0094768,1
14983,54.3,20.103,0,-0.013714,0,15161,54.208,0,0,0,0,0.0095623,1
14983,54.3,20.103,0,-0.013714,0,15161,54.208,0,0,0,0,0.0095623,1
14983,54.3,20.103,0,-0.013714,0,15161,54.208,0,0,0,0,0.0095623,1
14985,54.3,20.102,0,-0.014201,0,15161,54.208,0,0,0,0,0.0096934,1
14985,54.3,20.102,0,-0.014201,0,15161,54.208,0,0,0,0,0.0096934,1
14985,54.3,20.102,0,-0.014201,0,15161,54.208,0,0,0,0,0.0096934,1
14985,54.3,20.102,0,-0.014201,0,15161,54.208,0,0,0,0,0.0096934,1
14985,54.3,20.102,0,-0.014201,0,15161,54.208,0,0,0,0,0.0096934,1
14985,54.3,20.102,0,-0.014201,0,15161,54.208,0,0,0,0,0.0096934,1
14986,54.3,20.101,0,-0.014362,0,15161,54.208,0,0,0,0,0.0097379,1
14987,54.3,20.101,0,-0.014444,0,15161,54.208,0,0,0,0,0.0097603,1
14987,54.3,20.101,0,-0.014444,0,15161,54.208,0,0,0,0,0.0097603,1
14987,54.3,20.101,0,-0.014444,0,15161,54.208,0,0,0,0,0.0097603,1
14987,54.3,20.101,0,-0.014444,0,15161,54.208,0,0,0,0,0.0097603,1
14987,54.3,20.101,0,-0.014444,0,15161,54.208,0,0,0,0,0.0097603,1
14987,54.3,20.101,0,-0.014444,0,15161,54.208,0,0,0,0,0.0097603,1
14987,54.3,20.101,0,-0.014444,0,15161,54.208,0,0,0,0,0.0097603,1
14987,54.3,20.101,0,-0.014444,0,15161,54.208,0,0,0,0,0.0097603,1
14987,54.3,20.101,0,-0.014525,0,15161,54.208,0,0,0,0,0.0097828,1
14987,54.3,20.101,0,-0.014525,0,15161,54.208,0,0,0,0,0.0097828,1
14987,54.3,20.101,0,-0.014525,0,15161,54.208,0,0,0,0,0.0097828,1
14987,54.3,20.101,0,-0.014525,0,15161,54.208,0,0,0,0,0.0097828,1
14987,54.3,20.101,0,-0.014525,0,15161,54.208,0,0,0,0,0.0097828,1
14987,54.3,20.101,0,-0.014525,0,15161,54.208,0,0,0,0,0.0097828,1
14987,54.3,20.101,0,-0.014525,0,15161,54.208,0,0,0,0,0.0097828,1
14987,54.3,20.101,0,-0.014525,0,15161,54.208,0,0,0,0,0.0097828,1
14987,54.3,20.101,0,-0.014525,0,15161,54.208,0,0,0,0,0.0097828,1
14987,54.3,20.101,0,-0.014525,0,15161,54.208,0,0,0,0,0.0097828,1
14987,54.3,20.101,0,-0.014525,0,15161,54.208,0,0,0,0,0.0097828,1
14988,54.3,20.1,0,-0.014764,0,15161,54.208,0,0,0,0,0.009851,1
14989,54.3,20.099,0,-0.015004,0,15161,54.208,0,0,0,0,0.0099201,1
14989,54.3,20.099,0,-0.015004,0,15161,54.208,0,0,0,0,0.0099201,1
14989,54.3,20.099,0,-0.015004,0,15161,54.208,0,0,0,0,0.0099201,1
14989,54.3,20.099,0,-0.015004,0,15161,54.208,0,0,0,0,0.0099201,1
14989,54.3,20.099,0,-0.015004,0,15161,54.208,0,0,0,0,0.0099201,1
14989,54.3,20.099,0,-0.015004,0,15161,54.208,0,0,0,0,0.0099201,1
14989,54.3,20.099,0,-0.015004,0,15161,54.208,0,0,0,0,0.0099201,1
14992,54.3,20.097,0,-0.015481,0,15161,54.208,0,0,0,0,0.010061,1
14992,54.3,20.097,0,-0.015481,0,15161,54.208,0,0,0,0,0.010061,1
14992,54.3,20.097,0,-0.015481,0,15161,54.208,0,0,0,0,0.010061,1
14992,54.3,20.097,0,-0.015481,0,15161,54.208,0,0,0,0,0.010061,1
14992,54.3,20.097,0,-0.015481,0,15161,54.208,0,0,0,0,0.010061,1
14992,54.3,20.097,0,-0.015481,0,15161,54.208,0,0,0,0,0.010061,1
14992,54.3,20.097,0,-0.015481,0,15161,54.208,0,0,0,0,0.010061,1
14992,54.3,20.097,0,-0.015481,0,15161,54.208,0,0,0,0,0.010061,1
14992,54.3,20.097,0,-0.01556,0,15161,54.208,0,0,0,0,0.010085,1
14992,54.3,20.097,0,-0.01556,0,15161,54.208,0,0,0,0,0.010085,1
14993,54.3,20.096,0,-0.015717,0,15161,54.208,0,0,0,0,0.010133,1
14993,54.3,20.096,0,-0.015717,0,15161,54.208,0,0,0,0,0.010133,1
14993,54.3,20.096,0,-0.015717,0,15161,54.208,0,0,0,0,0.010133,1
14994,54.3,20.095,0,-0.015874,0,15161,54.208,0,0,0,0,0.010182,1
14994,54.3,20.095,0,-0.015874,0,15161,54.208,0,0,0,0,0.010182,1
14994,54.3,20.095,0,-0.015874,0,15161,54.208,0,0,0,0,0.010182,1
14994,54.3,20.095,0,-0.015874,0,15161,54.208,0,0,0,0,0.010182,1
14994,54.3,20.095,0,-0.015874,0,15161,54.208,0,0,0,0,0.010182,1
14994,54.3,20.095,0,-0.015874,0,15161,54.208,0,0,0,0,0.010182,1
14996,54.3,20.094,0,-0.016188,0,15161,54.208,0,0,0,0,0.010281,1
14996,54.3,20.094,0,-0.016188,0,15161,54.208,0,0,0,0,0.010281,1
14996,54.3,20.094,0,-0.016265,0,15161,54.208,0,0,0,0,0.010306,1
14996,54.3,20.094,0,-0.016265,0,15161,54.208,0,0,0,0,0.010306,1
14996,54.3,20.094,0,-0.016265,0,15161,54.208,0,0,0,0,0.010306,1
14996,54.3,20.094,0,-0.016265,0,15161,54.208,0,0,0,0,0.010306,1
14996,54.3,20.094,0,-0.016265,0,15161,54.208,0,0,0,0,0.010306,1
14996,54.3,20.094,0,-0.016265,0,15161,54.208,0,0,0,0,0.010306,1
14996,54.3,20.094,0,-0.016265,0,15161,54.208,0,0,0,0,0.010306,1
14996,54.3,20.094,0,-0.016265,0,15161,54.208,0,0,0,0,0.010306,1
14996,54.3,20.094,0,-0.016265,0,15161,54.208,0,0,0,0,0.010306,1
14996,54.3,20.094,0,-0.016265,0,15161,54.208,0,0,0,0,0.010306,1
14998,54.3,20.092,0,-0.016578,0,15161,54.208,0,0,0,0,0.010407,1
14998,54.3,20.092,0,-0.016578,0,15161,54.208,0,0,0,0,0.010407,1
14998,54.3,20.092,0,-0.016578,0,15161,54.208,0,0,0,0,0.010407,1
14998,54.3,20.092,0,-0.016578,0,15161,54.208,0,0,0,0,0.010407,1
14998,54.3,20.092,0,-0.016578,0,15161,54.208,0,0,0,0,0.010407,1
14998,54.3,20.092,0,-0.016655,0,15161,54.208,0,0,0,0,0.010432,1
14998,54.3,20.092,0,-0.016655,0,15161,54.208,0,0,0,0,0.010432,1
14998,54.3,20.092,0,-0.016655,0,15161,54.208,0,0,0,0,0.010432,1
14998,54.3,20.092,0,-0.016655,0,15161,54.208,0,0,0,0,0.010432,1
14998,54.3,20.092,0,-0.016655,0,15161,54.208,0,0,0,0,0.010432,1
14998,54.3,20.092,0,-0.016655,0,15161,54.208,0,0,0,0,0.010432,1
14998,54.3,20.092,0,-0.016655,0,15161,54.208,0,0,0,0,0.010432,1
14998,54.3,20.092,0,-0.016655,0,15161,54.208,0,0,0,0,0.010432,1
14998,54.3,20.092,0,-0.016655,0,15161,54.208,0,0,0,0,0.010432,1
14998,54.3,20.092,0,-0.016655,0,15161,54.208,0,0,0,0,0.010432,1
15001,54.3,20.09,0,-0.017198,0,15161,54.208,0,0,0,0,0.010615,1
15001,54.3,20.09,0,-0.017198,0,15161,54.208,0,0,0,0,0.010615,1
15001,54.3,20.09,0,-0.017198,0,15161,54.208,0,0,0,0,0.010615,1
15001,54.3,20.09,0,-0.017198,0,15161,54.208,0,0,0,0,0.010615,1
15001,54.3,20.09,0,-0.017198,0,15161,54.208,0,0,0,0,0.010615,1
15001,54.3,20.09,0,-0.017198,0,15161,54.208,0,0,0,0,0.010615,1
15001,54.3,20.09,0,-0.017198,0,15161,54.208,0,0,0,0,0.010615,1
15001,54.3,20.089,0,-0.017276,0,15161,54.208,0,0,0,0,0.010642,1
15001,54.3,20.089,0,-0.017276,0,15161,54.208,0,0,0,0,0.010642,1
15001,54.3,20.089,0,-0.017276,0,15161,54.208,0,0,0,0,0.010642,1
15001,54.3,20.089,0,-0.017276,0,15161,54.208,0,0,0,0,0.010642,1
15003,54.3,20.088,0,-0.017583,0,15161,54.208,0,0,0,0,0.01075,1
15003,54.3,20.088,0,-0.017583,0,15161,54.208,0,0,0,0,0.01075,1
15003,54.3,20.088,0,-0.017583,0,15161,54.208,0,0,0,0,0.01075,1
15003,54.3,20.088,0,-0.017583,0,15161,54.208,0,0,0,0,0.01075,1
15003,54.3,20.088,0,-0.017583,0,15161,54.208,0,0,0,0,0.01075,1
15003,54.3,20.088,0,-0.017583,0,15161,54.208,0,0,0,0,0.01075,1
15003,54.3,20.088,0,-0.017583,0,15161,54.208,0,0,0,0,0.01075,1
15004,54.3,20.087,0,-0.017738,0,15161,54.208,0,0,0,0,0.010804,1
15004,54.3,20.087,0,-0.017738,0,15161,54.208,0,0,0,0,0.010804,1
15004,54.3,20.087,0,-0.017738,0,15161,54.208,0,0,0,0,0.010804,1
15005,54.3,20.086,0,-0.017967,0,15161,54.208,0,0,0,0,0.010887,1
15005,54.3,20.086,0,-0.017967,0,15161,54.208,0,0,0,0,0.010887,1
15005,54.3,20.086,0,-0.017967,0,15161,54.208,0,0,0,0,0.010887,1
15005,54.3,20.086,0,-0.017967,0,15161,54.208,0,0,0,0,0.010887,1
15005,54.3,20.086,0,-0.017967,0,15161,54.208,0,0,0,0,0.010887,1
15005,54.3,20.086,0,-0.017967,0,15161,54.208,0,0,0,0,0.010887,1
15005,54.3,20.086,0,-0.018044,0,15161,54.208,0,0,0,0,0.010915,1
15005,54.3,20.086,0,-0.018044,0,15161,54.208,0,0,0,0,0.010915,1
15005,54.3,20.086,0,-0.018044,0,15161,54.208,0,0,0,0,0.010915,1
15005,54.3,20.086,0,-0.018044,0,15161,54.208,0,0,0,0,0.010915,1
15005,54.3,20.086,0,-0.018044,0,15161,54.208,0,0,0,0,0.010915,1
15005,54.3,20.086,0,-0.018044,0,15161,54.208,0,0,0,0,0.010915,1
15005,54.3,20.086,0,-0.018044,0,15161,54.208,0,0,0,0,0.010915,1
15005,54.3,20.086,0,-0.018044,0,15161,54.208,0,0,0,0,0.010915,1
15005,54.3,20.086,0,-0.018044,0,15161,54.208,0,0,0,0,0.010915,1
15005,54.3,20.086,0,-0.018044,0,15161,54.208,0,0,0,0,0.010915,1
15005,54.3,20.086,0,-0.018044,0,15161,54.208,0,0,0,0,0.010915,1
15005,54.3,20.086,0,-0.018044,0,15161,54.208,0,0,0,0,0.010915,1
15008,54.3,20.083,0,-0.018578,0,15161,54.208,0,0,0,0,0.011116,1
15008,54.3,20.083,0,-0.018578,0,15161,54.208,0,0,0,0,0.011116,1
15009,54.3,20.083,0,-0.01873,0,15161,54.208,0,0,0,0,0.011174,1
15009,54.3,20.083,0,-0.01873,0,15161,54.208,0,0,0,0,0.011174,1
15009,54.3,20.083,0,-0.01873,0,15161,54.208,0,0,0,0,0.011174,1
15010,54.3,20.081,0,-0.018958,0,15161,54.208,0,0,0,0,0.011263,1
15010,54.3,20.081,0,-0.018958,0,15161,54.208,0,0,0,0,0.011263,1
15010,54.3,20.081,0,-0.018958,0,15161,54.208,0,0,0,0,0.011263,1
15010,54.3,20.081,0,-0.018958,0,15161,54.208,0,0,0,0,0.011263,1
15010,54.3,20.081,0,-0.018958,0,15161,54.208,0,0,0,0,0.011263,1
15010,54.3,20.081,0,-0.018958,0,15161,54.208,0,0,0,0,0.011263,1
15010,54.3,20.081,0,-0.018958,0,15161,54.208,0,0,0,0,0.011263,1
15010,54.3,20.081,0,-0.018958,0,15161,54.208,0,0,0,0,0.011263,1
15010,54.3,20.081,0,-0.018958,0,15161,54.208,0,0,0,0,0.011263,1
15010,54.3,20.081,0,-0.018958,0,15161,54.208,0,0,0,0,0.011263,1
15012,54.3,20.08,0,-0.019261,0,15161,54.208,0,0,0,0,0.011384,1
15012,54.3,20.08,0,-0.019261,0,15161,54.208,0,0,0,0,0.011384,1
15012,54.3,20.08,0,-0.019336,0,15161,54.208,0,0,0,0,0.011414,1
15012,54.3,20.08,0,-0.019336,0,15161,54.208,0,0,0,0,0.011414,1
15012,54.3,20.08,0,-0.019336,0,15161,54.208,0,0,0,0,0.011414,1
15012,54.3,20.08,0,-0.019336,0,15161,54.208,0,0,0,0,0.011414,1
15012,54.3,20.08,0,-0.019336,0,15161,54.208,0,0,0,0,0.011414,1
15012,54.3,20.08,0,-0.019336,0,15161,54.208,0,0,0,0,0.011414,1
15014,54.3,20.078,0,-0.019637,0,15161,54.208,0,0,0,0,0.011539,1
15014,54.3,20.078,0,-0.019637,0,15161,54.208,0,0,0,0,0.011539,1
15014,54.3,20.078,0,-0.019711,0,15161,54.208,0,0,0,0,0.01157,1
15014,54.3,20.078,0,-0.019711,0,15161,54.208,0,0,0,0,0.01157,1
15014,54.3,20.078,0,-0.019711,0,15161,54.208,0,0,0,0,0.01157,1
15014,54.3,20.078,0,-0.019711,0,15161,54.208,0,0,0,0,0.01157,1
15014,54.3,20.078,0,-0.019711,0,15161,54.208,0,0,0,0,0.01157,1
15014,54.3,20.078,0,-0.019711,0,15161,54.208,0,0,0,0,0.01157,1
15014,54.3,20.078,0,-0.019711,0,15161,54.208,0,0,0,0,0.01157,1
15014,54.3,20.077,0,-0.019785,0,15161,54.208,0,0,0,0,0.011602,1
15014,54.3,20.077,0,-0.019785,0,15161,54.208,0,0,0,0,0.011602,1
15014,54.3,20.077,0,-0.019785,0,15161,54.208,0,0,0,0,0.011602,1
15014,54.3,20.077,0,-0.019785,0,15161,54.208,0,0,0,0,0.011602,1
15014,54.3,20.077,0,-0.019785,0,15161,54.208,0,0,0,0,0.011602,1
15014,54.3,20.077,0,-0.019785,0,15161,54.208,0,0,0,0,0.011602,1
15014,54.3,20.077,0,-0.019785,0,15161,54.208,0,0,0,0,0.011602,1
15014,54.3,20.077,0,-0.019785,0,15161,54.208,0,0,0,0,0.011602,1
15014,54.3,20.077,0,-0.019785,0,15161,54.208,0,0,0,0,0.011602,1
15014,54.3,20.077,0,-0.019785,0,15161,54.208,0,0,0,0,0.011602,1
15014,54.3,20.077,0,-0.019785,0,15161,54.208,0,0,0,0,0.011602,1
15017,54.3,20.075,0,-0.020236,0,15161,54.208,0,0,0,0,0.011795,1
15017,54.3,20.075,0,-0.020236,0,15161,54.208,0,0,0,0,0.011795,1
15018,54.3,20.074,0,-0.020384,0,15161,54.208,0,0,0,0,0.011861,1
15019,54.3,20.073,0,-0.020608,0,15161,54.208,0,0,0,0,0.011961,1
15019,54.3,20.073,0,-0.020608,0,15161,54.208,0,0,0,0,0.011961,1
15019,54.3,20.073,0,-0.020608,0,15161,54.208,0,0,0,0,0.011961,1
15019,54.3,20.073,0,-0.020608,0,15161,54.208,0,0,0,0,0.011961,1
15019,54.3,20.073,0,-0.020608,0,15161,54.208,0,0,0,0,0.011961,1
15019,54.3,20.073,0,-0.020608,0,15161,54.208,0,0,0,0,0.011961,1
15019,54.3,20.073,0,-0.020608,0,15161,54.208,0,0,0,0,0.011961,1
15019,54.3,20.073,0,-0.020608,0,15161,54.208,0,0,0,0,0.011961,1
15019,54.3,20.073,0,-0.020608,0,15161,54.208,0,0,0,0,0.011961,1
15019,54.3,20.073,0,-0.020608,0,15161,54.208,0,0,0,0,0.011961,1
15019,54.3,20.073,0,-0.020608,0,15161,54.208,0,0,0,0,0.011961,1
15019,54.3,20.073,0,-0.020608,0,15161,54.208,0,0,0,0,0.011961,1
15019,54.3,20.073,0,-0.020608,0,15161,54.208,0,0,0,0,0.011961,1
15020,54.3,20.072,0,-0.020831,0,15161,54.208,0,0,0,0,0.012063,1
15020,54.3,20.072,0,-0.020831,0,15161,54.208,0,0,0,0,0.012063,1
15020,54.3,20.072,0,-0.020831,0,15161,54.208,0,0,0,0,0.012063,1
15020,54.3,20.072,0,-0.020831,0,15161,54.208,0,0,0,0,0.012063,1
15020,54.3,20.072,0,-0.020831,0,15161,54.208,0,0,0,0,0.012063,1
15020,54.3,20.072,0,-0.020831,0,15161,54.208,0,0,0,0,0.012063,1
15020,54.3,20.072,0,-0.020831,0,15161,54.208,0,0,0,0,0.012063,1
15020,54.3,20.072,0,-0.020831,0,15161,54.208,0,0,0,0,0.012063,1
15020,54.3,20.072,0,-0.020831,0,15161,54.208,0,0,0,0,0.012063,1
15020,54.3,20.072,0,-0.020831,0,15161,54.208,0,0,0,0,0.012063,1
15020,54.3,20.072,0,-0.020831,0,15161,54.208,0,0,0,0,0.012063,1
15020,54.3,20.072,0,-0.020831,0,15161,54.208,0,0,0,0,0.012063,1
15020,54.3,20.072,0,-0.020831,0,15161,54.208,0,0,0,0,0.012063,1
15020,54.3,20.072,0,-0.020831,0,15161,54.208,0,0,0,0,0.012063,1
15022,54.3,20.069,0,-0.021202,0,15161,54.208,0,0,0,0,0.012237,1
15023,54.3,20.068,0,-0.021423,0,15161,54.208,0,0,0,0,0.012343,1
15025,54.3,20.066,0,-0.021719,0,15161,54.208,0,0,0,0,0.012488,1
15025,54.3,20.066,0,-0.021719,0,15161,54.208,0,0,0,0,0.012488,1
15025,54.3,20.066,0,-0.021719,0,15161,54.208,0,0,0,0,0.012488,1
15025,54.3,20.066,0,-0.021719,0,15161,54.208,0,0,0,0,0.012488,1
15025,54.3,20.066,0,-0.021719,0,15161,54.208,0,0,0,0,0.012488,1
15025,54.3,20.066,0,-0.021719,0,15161,54.208,0,0,0,0,0.012488,1
15025,54.3,20.066,0,-0.021719,0,15161,54.208,0,0,0,0,0.012488,1
15025,54.3,20.066,0,-0.021719,0,15161,54.208,0,0,0,0,0.012488,1
15025,54.3,20.066,0,-0.021719,0,15161,54.208,0,0,0,0,0.012488,1
15025,54.3,20.066,0,-0.021719,0,15161,54.208,0,0,0,0,0.012488,1
15026,54.3,20.066,0,-0.021866,0,15161,54.208,0,0,0,0,0.012562,1
15026,54.3,20.066,0,-0.021866,0,15161,54.208,0,0,0,0,0.012562,1
15026,54.3,20.066,0,-0.021866,0,15161,54.208,0,0,0,0,0.012562,1
15026,54.3,20.066,0,-0.021866,0,15161,54.208,0,0,0,0,0.012562,1
15026,54.3,20.066,0,-0.021866,0,15161,54.208,0,0,0,0,0.012562,1
15026,54.3,20.066,0,-0.021866,0,15161,54.208,0,0,0,0,0.012562,1
15026,54.3,20.066,0,-0.021866,0,15161,54.208,0,0,0,0,0.012562,1
15026,54.3,20.066,0,-0.021866,0,15161,54.208,0,0,0,0,0.012562,1
15026,54.3,20.066,0,-0.021866,0,15161,54.208,0,0,0,0,0.012562,1
15026,54.3,20.066,0,-0.021866,0,15161,54.208,0,0,0,0,0.012562,1
15026,54.3,20.066,0,-0.021866,0,15161,54.208,0,0,0,0,0.012562,1
15026,54.3,20.066,0,-0.021866,0,15161,54.208,0,0,0,0,0.012562,1
15026,54.3,20.066,0,-0.021866,0,15161,54.208,0,0,0,0,0.012562,1
15026,54.3,20.066,0,-0.021866,0,15161,54.208,0,0,0,0,0.012562,1
15026,54.3,20.066,0,-0.021866,0,15161,54.208,0,0,0,0,0.012562,1
15027,54.3,20.064,0,-0.022161,0,15161,54.208,0,0,0,0,0.012713,1
15028,54.3,20.062,0,-0.022381,0,15161,54.208,0,0,0,0,0.012828,1
15028,54.3,20.062,0,-0.022381,0,15161,54.208,0,0,0,0,0.012828,1
15028,54.3,20.062,0,-0.022381,0,15161,54.208,0,0,0,0,0.012828,1
15028,54.3,20.062,0,-0.022381,0,15161,54.208,0,0,0,0,0.012828,1
15030,54.3,20.06,0,-0.022746,0,15161,54.208,0,0,0,0,0.013024,1
15030,54.3,20.06,0,-0.022746,0,15161,54.208,0,0,0,0,0.013024,1
15030,54.3,20.06,0,-0.022746,0,15161,54.208,0,0,0,0,0.013024,1
15030,54.3,20.06,0,-0.022746,0,15161,54.208,0,0,0,0,0.013024,1
15030,54.3,20.06,0,-0.022746,0,15161,54.208,0,0,0,0,0.013024,1
15030,54.3,20.06,0,-0.022746,0,15161,54.208,0,0,0,0,0.013024,1
15030,54.3,20.06,0,-0.022746,0,15161,54.208,0,0,0,0,0.013024,1
15030,54.3,20.06,0,-0.022746,0,15161,54.208,0,0,0,0,0.013024,1
15030,54.3,20.06,0,-0.022746,0,15161,54.208,0,0,0,0,0.013024,1
15030,54.3,20.06,0,-0.022746,0,15161,54.208,0,0,0,0,0.013024,1
15031,54.3,20.059,0,-0.022894,0,15161,54.208,0,0,0,0,0.013105,1
15031,54.3,20.059,0,-0.022894,0,15161,54.208,0,0,0,0,0.013105,1
15031,54.3,20.059,0,-0.022894,0,15161,54.208,0,0,0,0,0.013105,1
15031,54.3,20.059,0,-0.022894,0,15161,54.208,0,0,0,0,0.013105,1
15031,54.3,20.059,0,-0.022894,0,15161,54.208,0,0,0,0,0.013105,1
15032,54.3,20.059,0,-0.022967,0,15161,54.208,0,0,0,0,0.013145,1
15032,54.3,20.059,0,-0.022967,0,15161,54.208,0,0,0,0,0.013145,1
15032,54.3,20.059,0,-0.022967,0,15161,54.208,0,0,0,0,0.013145,1
15032,54.3,20.059,0,-0.022967,0,15161,54.208,0,0,0,0,0.013145,1
15032,54.3,20.059,0,-0.022967,0,15161,54.208,0,0,0,0,0.013145,1
15032,54.3,20.059,0,-0.022967,0,15161,54.208,0,0,0,0,0.013145,1
15032,54.3,20.058,0,-0.023039,0,15161,54.208,0,0,0,0,0.013186,1
15034,54.3,20.056,0,-0.024961,0,15161,54.208,0,0,0,0,0.013352,1
15034,54.3,20.056,0,-0.024961,0,15161,54.208,0,0,0,0,0.013352,1
15034,54.3,20.056,0,-0.024961,0,15161,54.208,0,0,0,0,0.013352,1
15034,54.3,20.056,0,-0.024961,0,15161,54.208,0,0,0,0,0.013352,1
15034,54.3,20.056,0,-0.024961,0,15161,54.208,0,0,0,0,0.013352,1
15036,54.3,20.052,0,-0.067979,0,15161,54.208,0,0,0,0,0.013565,1
15036,54.3,20.052,0,-0.067979,0,15161,54.208,0.4,-1.2208e-06,8,-4.9607e-05,0.013838,1
15036,54.3,20.052,0,-0.067979,0,15161,54.208,0.4,-1.2208e-06,8,-4.9607e-05,0.013838,1
15036,54.3,20.052,0,-0.067979,0,15161,54.208,0.4,-1.2208e-06,8,-4.9607e-05,0.013838,1
15036,54.3,20.052,0,-0.067979,0,15161,54.208,0.4,-1.2208e-06,8,-4.9607e-05,0.013838,1
15036,54.3,20.052,0,-0.067979,0,15161,54.208,0.4,-1.2208e-06,8,-4.9607e-05,0.013838,1
15036,54.3,20.052,0,-0.067979,0,15161,54.208,0.4,-1.2208e-06,8,-4.9607e-05,0.013838,1
15036,54.3,20.052,0,-0.067979,0,15161,54.208,0.4,-1.2208e-06,8,-4.9607e-05,0.013838,1
15036,54.3,20.052,0,-0.067979,0,15161,54.208,0.4,-1.2208e-06,8,-4.9607e-05,0.013838,1
15036,54.3,20.052,0,-0.067979,0,15161,54.208,0.4,-1.2208e-06,8,-4.9607e-05,0.013838,1
15036,54.3,20.052,0,-0.067979,0,15161,54.208,0.4,-1.2208e-06,8,-4.9607e-05,0.013838,1
15036,54.3,20.049,0,-0.055063,0,15161,54.208,0.4,-1.2208e-06,8,-4.9607e-05,0.013927,1
15036,54.3,20.049,0,-0.055063,0,15161,54.208,0.72,-6.2154e-06,8,-0.00016114,0.014149,1
15036,54.3,20.049,0,-0.055063,0,15161,54.208,0.72,-6.2154e-06,8,-0.00016114,0.014149,1
15036,54.3,20.049,0,-0.055063,0,15161,54.208,0.72,-6.2154e-06,8,-0.00016114,0.014149,1
15036,54.3,20.049,0,-0.055063,0,15161,54.208,0.72,-6.2154e-06,8,-0.00016114,0.014149,1
15036,54.3,20.049,0,-0.055063,0,15161,54.208,0.72,-6.2154e-06,8,-0.00016114,0.014149,1
15036,54.3,20.049,0,-0.055063,0,15161,54.208,0.88,-1.0861e-05,8,-0.00023824,0.014261,1
15039,54.3,20.045,0,-0.016805,0,15161,54.208,1.04,-1.728e-05,8,-0.00032785,0.014703,1
15039,54.3,20.045,0,-0.016805,0,15161,54.208,1.04,-1.728e-05,8,-0.00032785,0.014703,1
15039,54.3,20.045,0,-0.016805,0,15161,54.208,1.04,-1.728e-05,8,-0.00032785,0.014703,1
15039,54.3,20.045,0,-0.016805,0,15161,54.208,1.04,-1.728e-05,8,-0.00032785,0.014703,1
15039,54.3,20.045,0,-0.016805,0,15161,54.208,1.04,-1.728e-05,8,-0.00032785,0.014703,1
15039,54.3,20.045,0,-0.016805,0,15161,54.208,1.04,-1.728e-05,8,-0.00032785,0.014703,1
15039,54.3,20.045,0,-0.016805,0,15161,54.208,1.04,-1.728e-05,8,-0.00032785,0.014703,1
15039,54.3,20.045,0,-0.016805,0,15161,54.208,1.04,-1.728e-05,8,-0.00032785,0.014703,1
15040,54.3,20.044,0,-0.017546,0,15162,54.208,1.84,-8.2299e-05,8,-0.00090329,0.015437,1
15040,54.3,20.044,0,-0.017546,0,15162,54.208,1.84,-8.2299e-05,8,-0.00090329,0.015437,1
15040,54.3,20.044,0,-0.017546,0,15162,54.208,1.84,-8.2299e-05,8,-0.00090329,0.015437,1
15040,54.3,20.044,0,-0.017546,0,15162,54.208,1.84,-8.2299e-05,8,-0.00090329,0.015437,1
15040,54.3,20.044,0,-0.017546,0,15162,54.208,1.84,-8.2299e-05,8,-0.00090329,0.015437,1
15040,54.3,20.044,0,-0.017546,0,15162,54.208,1.84,-8.2299e-05,8,-0.00090329,0.015437,1
15040,54.3,20.044,0,-0.017546,0,15162,54.208,1.84,-8.2299e-05,8,-0.00090329,0.015437,1
15040,54.3,20.044,0,-0.017546,0,15162,54.208,1.84,-8.2299e-05,8,-0.00090329,0.015437,1
15040,54.3,20.044,0,-0.017546,0,15162,54.208,1.84,-8.2299e-05,8,-0.00090329,0.015437,1
15040,54.3,20.044,0,-0.017546,0,15162,54.208,1.84,-8.2299e-05,8,-0.00090329,0.015437,1
15040,54.3,20.044,0,-0.017546,0,15162,54.208,2.32,-0.0001506,8,-0.0012782,0.015796,1
15041,54.3,20.043,0,-0.018087,0,15162,54.208,2.32,-0.0001506,8,-0.0012782,0.015901,1
15041,54.3,20.043,0,-0.018087,0,15162,54.208,2.8,-0.00023951,8,-0.0016077,0.016266,1
15041,54.3,20.043,0,-0.018087,0,15162,54.208,2.8,-0.00023951,8,-0.0016077,0.016266,1
15041,54.3,20.043,0,-0.018087,0,15162,54.208,2.8,-0.00023951,8,-0.0016077,0.016266,1
15041,54.3,20.043,0,-0.018087,0,15162,54.208,2.8,-0.00023951,8,-0.0016077,0.016266,1
15044,54.3,20.041,0,-0.019584,0,15162,54.208,2.96,-0.000273,8,-0.0016991,0.016723,1
15044,54.3,20.041,0,-0.019584,0,15162,54.208,3.6,-0.0004199,8,-0.0019373,0.017228,1
15044,54.3,20.04,0,-0.02004,0,15162,54.208,3.6,-0.0004199,8,-0.0019373,0.017346,1
15044,54.3,20.04,0,-0.02004,0,15162,54.208,3.6,-0.0004199,8,-0.0019373,0.017346,1
15045,54.3,20.039,0,-0.020477,0,15162,54.208,3.92,-0.00049718,8,-0.0019689,0.017724,1
15045,54.3,20.039,0,-0.020477,0,15162,54.208,3.92,-0.00049718,8,-0.0019689,0.017724,1
15045,54.3,20.039,0,-0.020477,0,15162,54.208,3.92,-0.00049718,8,-0.0019689,0.017724,1
15045,54.3,20.039,0,-0.020477,0,15162,54.208,3.92,-0.00049718,8,-0.0019689,0.017724,1
15046,54.3,20.039,0,-0.02069,0,15162,54.208,3.92,-0.00049718,8,-0.0019689,0.017784,1
15046,54.3,20.039,0,-0.02069,0,15162,54.208,3.92,-0.00049718,8,-0.0019689,0.017784,1
15046,54.3,20.039,0,-0.02069,0,15162,54.208,3.92,-0.00049718,8,-0.0019689,0.017784,1
15046,54.3,20.039,0,-0.02069,0,15162,54.208,3.92,-0.00049718,8,-0.0019689,0.017784,1
15046,54.3,20.039,0,-0.02069,0,15162,54.208,3.92,-0.00049718,8,-0.0019689,0.017784,1
15046,54.3,20.039,0,-0.02069,0,15162,54.208,3.92,-0.00049718,8,-0.0019689,0.017784,1
15046,54.3,20.039,0,-0.02069,0,15162,54.208,3.92,-0.00049718,8,-0.0019689,0.017784,1
15046,54.3,20.038,0,-0.020897,0,15162,54.208,3.92,-0.00049718,8,-0.0019689,0.017846,1
15046,54.3,20.038,0,-0.020897,0,15162,54.208,3.92,-0.00049718,8,-0.0019689,0.017846,1
15046,54.3,20.038,0,-0.020897,0,15162,54.208,3.92,-0.00049718,8,-0.0019689,0.017846,1
15046,54.3,20.038,0,-0.020897,0,15162,54.208,3.92,-0.00049718,8,-0.0019689,0.017846,1
15046,54.3,20.038,0,-0.020897,0,15162,54.208,3.92,-0.00049718,8,-0.0019689,0.017846,1
15046,54.3,20.038,0,-0.020897,0,15162,54.208,3.92,-0.00049718,8,-0.0019689,0.017846,1
15046,54.3,20.038,0,-0.020897,0,15162,54.208,3.92,-0.00049718,8,-0.0019689,0.017846,1
15046,54.3,20.038,0,-0.020897,0,15162,54.208,3.92,-0.00049718,8,-0.0019689,0.017846,1
15046,54.3,20.038,0,-0.0211,0,15162,54.208,3.92,-0.00049718,8,-0.0019689,0.017908,1
15046,54.3,20.038,0,-0.0211,0,15163,54.208,4.72,-0.00068245,8,-0.0017859,0.018569,1
15048,54.3,20.037,0,-0.02169,0,15163,54.208,4.72,-0.00068245,8,-0.0017859,0.018763,1
15048,54.3,20.037,0,-0.02169,0,15163,54.208,5.36,-0.00080476,8,-0.0014086,0.019306,1
15049,54.3,20.035,0,-0.022248,0,15163,54.208,5.36,-0.00080476,8,-0.0014086,0.019509,1
15050,54.3,20.034,0,-0.022775,0,15163,54.208,5.84,-0.00087272,8,-0.0010343,0.020135,1
15050,54.3,20.034,0,-0.022775,0,15163,54.208,5.84,-0.00087272,8,-0.0010343,0.020135,1
15050,54.3,20.034,0,-0.022775,0,15164,54.208,6.16,-0.00090483,8,-0.0007599,0.020417,1
15050,54.3,20.034,0,-0.022775,0,15164,54.208,6.16,-0.00090483,8,-0.0007599,0.020417,1
15050,54.3,20.034,0,-0.022775,0,15164,54.208,6.16,-0.00090483,8,-0.0007599,0.020417,1
15050,54.3,20.034,0,-0.022775,0,15164,54.208,6.16,-0.00090483,8,-0.0007599,0.020417,1
15050,54.3,20.034,0,-0.022775,0,15164,54.208,6.16,-0.00090483,8,-0.0007599,0.020417,1
15050,54.3,20.034,0,-0.022775,0,15164,54.208,6.16,-0.00090483,8,-0.0007599,0.020417,1
15050,54.3,20.034,0,-0.022775,0,15164,54.208,6.16,-0.00090483,8,-0.0007599,0.020417,1
15050,54.3,20.034,0,-0.022775,0,15164,54.208,6.32,-0.00091675,8,-0.00061895,0.020559,1
15050,54.3,20.034,0,-0.022775,0,15164,54.208,6.32,-0.00091675,8,-0.00061895,0.020559,1
15050,54.3,20.034,0,-0.022775,0,15164,54.208,6.32,-0.00091675,8,-0.00061895,0.020559,1
15050,54.3,20.034,0,-0.022775,0,15164,54.208,6.32,-0.00091675,8,-0.00061895,0.020559,1
15050,54.3,20.034,0,-0.022775,0,15164,54.208,6.32,-0.00091675,8,-0.00061895,0.020559,1
15050,54.3,20.034,0,-0.022775,0,15164,54.208,6.32,-0.00091675,8,-0.00061895,0.020559,1
15050,54.3,20.034,0,-0.022775,0,15164,54.208,6.32,-0.00091675,8,-0.00061895,0.020559,1
15050,54.3,20.034,0,-0.022775,0,15164,54.208,6.32,-0.00091675,8,-0.00061895,0.020559,1
15050,54.3,20.034,0,-0.022775,0,15164,54.208,6.32,-0.00091675,8,-0.00061895,0.020559,1
15051,54.3,20.033,0,-0.023271,0,15164,54.208,6.32,-0.00091675,8,-0.00061895,0.020778,1
15051,54.3,20.033,0,-0.023271,0,15164,54.208,6.32,-0.00091675,8,-0.00061895,0.020778,1
15051,54.3,20.033,0,-0.023271,0,15164,54.208,6.32,-0.00091675,8,-0.00061895,0.020778,1
15051,54.3,20.033,0,-0.023271,0,15164,54.208,6.32,-0.00091675,8,-0.00061895,0.020778,1
15052,54.3,20.032,0,-0.023432,0,15164,54.208,6.32,-0.00091675,8,-0.00061895,0.020852,1
15052,54.3,20.032,0,-0.023432,0,15164,54.208,6.32,-0.00091675,8,-0.00061895,0.020852,1
15052,54.3,20.032,0,-0.023432,0,15165,54.208,7.12,-0.00093486,8,7.7668e-05,0.021574,1
15052,54.3,20.032,0,-0.023432,0,15165,54.208,7.12,-0.00093486,8,7.7668e-05,0.021574,1
15052,54.3,20.032,0,-0.023432,0,15165,54.208,7.12,-0.00093486,8,7.7668e-05,0.021574,1
15055,54.3,20.029,0,-0.024475,0,15165,54.208,7.28,-0.00093052,8,0.00020845,0.022273,1
15055,54.3,20.028,0,-0.024753,0,15165,54.208,7.92,-0.0008896,8,0.0006774,0.023037,1
15056,54.3,20.027,0,-0.025022,0,15166,54.208,8.24,-0.00085646,8,0.00088738,0.023511,1
15056,54.3,20.027,0,-0.025022,0,15166,54.208,8.24,-0.00085646,8,0.00088738,0.023511,1
15056,54.3,20.027,0,-0.025022,0,15166,54.208,8.56,-0.00081534,8,0.0010768,0.023817,1
15056,54.3,20.027,0,-0.025022,0,15166,54.208,8.56,-0.00081534,8,0.0010768,0.023817,1
15056,54.3,20.027,0,-0.025022,0,15166,54.208,8.56,-0.00081534,8,0.0010768,0.023817,1
15056,54.3,20.027,0,-0.025022,0,15166,54.208,8.56,-0.00081534,8,0.0010768,0.023817,1
15056,54.3,20.027,0,-0.025022,0,15166,54.208,8.56,-0.00081534,8,0.0010768,0.023817,1
15056,54.3,20.027,0,-0.025022,0,15166,54.208,8.56,-0.00081534,8,0.0010768,0.023817,1
15056,54.3,20.027,0,-0.025022,0,15166,54.208,8.56,-0.00081534,8,0.0010768,0.023817,1
15056,54.3,20.027,0,-0.025022,0,15166,54.208,8.56,-0.00081534,8,0.0010768,0.023817,1
15057,54.3,20.026,0,-0.025282,0,15166,54.208,8.56,-0.00081534,8,0.0010768,0.023992,1
15057,54.3,20.026,0,-0.025282,0,15166,54.208,8.56,-0.00081534,8,0.0010768,0.023992,1
15057,54.3,20.026,0,-0.025282,0,15166,54.208,8.56,-0.00081534,8,0.0010768,0.023992,1
15057,54.3,20.026,0,-0.025282,0,15166,54.208,8.56,-0.00081534,8,0.0010768,0.023992,1
15057,54.3,20.026,0,-0.025282,0,15166,54.208,8.56,-0.00081534,8,0.0010768,0.023992,1
15057,54.3,20.026,0,-0.025282,0,15166,54.208,8.56,-0.00081534,8,0.0010768,0.023992,1
15057,54.3,20.026,0,-0.025282,0,15166,54.208,8.56,-0.00081534,8,0.0010768,0.023992,1
15057,54.3,20.026,0,-0.025282,0,15166,54.208,8.56,-0.00081534,8,0.0010768,0.023992,1
15057,54.3,20.026,0,-0.025282,0,15166,54.208,8.56,-0.00081534,8,0.0010768,0.023992,1
15057,54.3,20.026,0,-0.025282,0,15166,54.208,8.56,-0.00081534,8,0.0010768,0.023992,1
15057,54.3,20.026,0,-0.025282,0,15166,54.208,8.88,-0.00076892,8,0.0012033,0.024302,1
15057,54.3,20.026,0,-0.025282,0,15166,54.208,8.88,-0.00076892,8,0.0012033,0.024302,1
15057,54.3,20.026,0,-0.025282,0,15166,54.208,8.88,-0.00076892,8,0.0012033,0.024302,1
15057,54.3,20.026,0,-0.025282,0,15166,54.208,8.88,-0.00076892,8,0.0012033,0.024302,1
15057,54.3,20.026,0,-0.025282,0,15166,54.208,8.88,-0.00076892,8,0.0012033,0.024302,1
15057,54.3,20.026,0,-0.025282,0,15166,54.208,8.88,-0.00076892,8,0.0012033,0.024302,1
15057,54.3,20.026,0,-0.025282,0,15166,54.208,8.88,-0.00076892,8,0.0012033,0.024302,1
15057,54.3,20.026,0,-0.025282,0,15166,54.208,8.88,-0.00076892,8,0.0012033,0.024302,1
15058,54.3,20.024,0,-0.025659,0,15166,54.208,8.88,-0.00076892,8,0.0012033,0.024571,1
15060,54.3,20.022,0,-0.026137,0,15167,54.208,9.52,-0.00066746,8,0.0013232,0.025575,1
15060,54.3,20.022,0,-0.026137,0,15168,54.207,10.32,-0.00053738,8,0.001312,0.026375,1
15061,54.3,20.02,0,-0.02659,0,15168,54.207,10.32,-0.00053738,8,0.001312,0.026771,1
15061,54.3,20.02,0,-0.02659,0,15169,54.207,10.8,-0.00046254,8,0.0012526,0.02726,1
15063,54.3,20.018,0,-0.026916,0,15169,54.207,10.8,-0.00046254,8,0.0012526,0.027568,1
15063,54.3,20.018,0,-0.026916,0,15169,54.207,10.8,-0.00046254,8,0.0012526,0.027568,1
15063,54.3,20.018,0,-0.026916,0,15169,54.207,10.8,-0.00046254,8,0.0012526,0.027568,1
15063,54.3,20.018,0,-0.026916,0,15169,54.207,10.8,-0.00046254,8,0.0012526,0.027568,1
15063,54.3,20.018,0,-0.026916,0,15169,54.207,10.8,-0.00046254,8,0.0012526,0.027568,1
15063,54.3,20.018,0,-0.026916,0,15169,54.207,10.8,-0.00046254,8,0.0012526,0.027568,1
15063,54.3,20.018,0,-0.026916,0,15169,54.207,10.8,-0.00046254,8,0.0012526,0.027568,1
15063,54.3,20.018,0,-0.026916,0,15169,54.207,11.12,-0.00041509,8,0.001199,0.027898,1
15063,54.3,20.018,0,-0.026916,0,15169,54.207,11.12,-0.00041509,8,0.001199,0.027898,1
15063,54.3,20.018,0,-0.026916,0,15169,54.207,11.12,-0.00041509,8,0.001199,0.027898,1
15063,54.3,20.018,0,-0.026916,0,15169,54.207,11.12,-0.00041509,8,0.001199,0.027898,1
15063,54.3,20.018,0,-0.026916,0,15169,54.207,11.12,-0.00041509,8,0.001199,0.027898,1
15063,54.3,20.018,0,-0.026916,0,15169,54.207,11.12,-0.00041509,8,0.001199,0.027898,1
15063,54.3,20.018,0,-0.026916,0,15169,54.207,11.12,-0.00041509,8,0.001199,0.027898,1
15063,54.3,20.018,0,-0.026916,0,15169,54.207,11.12,-0.00041509,8,0.001199,0.027898,1
15063,54.3,20.018,0,-0.026916,0,15169,54.207,11.28,-0.00039223,8,0.0011692,0.028063,1
15063,54.3,20.018,0,-0.026916,0,15169,54.207,11.28,-0.00039223,8,0.0011692,0.028063,1
15063,54.3,20.018,0,-0.026916,0,15169,54.207,11.28,-0.00039223,8,0.0011692,0.028063,1
15063,54.3,20.018,0,-0.026916,0,15169,54.207,11.28,-0.00039223,8,0.0011692,0.028063,1
15063,54.3,20.018,0,-0.026916,0,15169,54.207,11.28,-0.00039223,8,0.0011692,0.028063,1
15063,54.3,20.018,0,-0.026916,0,15169,54.207,11.28,-0.00039223,8,0.0011692,0.028063,1
15065,54.3,20.016,0,-0.027428,0,15170,54.207,11.44,-0.00036999,8,0.0011377,0.028766,1
15066,54.3,20.014,0,-0.027821,0,15170,54.207,11.92,-0.00030722,8,0.0010362,0.02972,1
15066,54.3,20.014,0,-0.027821,0,15171,54.207,12.56,-0.00023326,8,0.00089268,0.030401,1
15067,54.3,20.012,0,-0.028106,0,15171,54.207,12.56,-0.00023326,8,0.00089268,0.030752,1
15067,54.3,20.012,0,-0.028106,0,15172,54.207,13.04,-0.0001852,8,0.00078491,0.031268,1
15067,54.3,20.012,0,-0.028106,0,15172,54.207,13.04,-0.0001852,8,0.00078491,0.031268,1
15067,54.3,20.012,0,-0.028106,0,15172,54.207,13.04,-0.0001852,8,0.00078491,0.031268,1
15067,54.3,20.012,0,-0.028106,0,15172,54.207,13.04,-0.0001852,8,0.00078491,0.031268,1
15067,54.3,20.012,0,-0.028106,0,15172,54.207,13.04,-0.0001852,8,0.00078491,0.031268,1
15067,54.3,20.012,0,-0.028106,0,15172,54.207,13.04,-0.0001852,8,0.00078491,0.031268,1
15067,54.3,20.012,0,-0.028106,0,15172,54.207,13.04,-0.0001852,8,0.00078491,0.031268,1
15067,54.3,20.012,0,-0.028106,0,15172,54.207,13.04,-0.0001852,8,0.00078491,0.031268,1
15067,54.3,20.012,0,-0.028106,0,15172,54.207,13.04,-0.0001852,8,0.00078491,0.031268,1
15068,54.3,20.011,0,-0.028291,0,15172,54.207,13.04,-0.0001852,8,0.00078491,0.031509,1
15068,54.3,20.011,0,-0.028291,0,15172,54.207,13.04,-0.0001852,8,0.00078491,0.031509,1
15068,54.3,20.011,0,-0.028291,0,15172,54.207,13.04,-0.0001852,8,0.00078491,0.031509,1
15068,54.3,20.011,0,-0.028291,0,15172,54.207,13.04,-0.0001852,8,0.00078491,0.031509,1
15068,54.3,20.011,0,-0.028291,0,15172,54.207,13.04,-0.0001852,8,0.00078491,0.031509,1
15068,54.3,20.011,0,-0.028291,0,15172,54.207,13.04,-0.0001852,8,0.00078491,0.031509,1
15068,54.3,20.011,0,-0.028291,0,15172,54.207,13.04,-0.0001852,8,0.00078491,0.031509,1
15068,54.3,20.011,0,-0.028291,0,15172,54.207,13.04,-0.0001852,8,0.00078491,0.031509,1
15068,54.3,20.011,0,-0.028291,0,15172,54.207,13.04,-0.0001852,8,0.00078491,0.031509,1
15068,54.3,20.011,0,-0.028291,0,15172,54.207,13.04,-0.0001852,8,0.00078491,0.031509,1
15068,54.3,20.011,0,-0.028291,0,15173,54.207,13.36,-0.00015663,8,0.00071488,0.031855,1
15068,54.3,20.011,0,-0.028291,0,15173,54.207,13.36,-0.00015663,8,0.00071488,0.031855,1
15068,54.3,20.011,0,-0.028291,0,15173,54.207,13.36,-0.00015663,8,0.00071488,0.031855,1
15068,54.3,20.011,0,-0.028291,0,15173,54.207,13.36,-0.00015663,8,0.00071488,0.031855,1
15068,54.3,20.011,0,-0.028291,0,15173,54.207,13.52,-0.00014335,8,0.0006807,0.032029,1
15070,54.3,20.008,0,-0.028737,0,15173,54.207,13.52,-0.00014335,8,0.0006807,0.032653,1
15070,54.3,20.008,0,-0.028737,0,15173,54.207,13.52,-0.00014335,8,0.0006807,0.032653,1
15072,54.3,20.006,0,-0.029077,0,15174,54.207,13.889,-9.4687e-05,4.37e-09,0.00060264,0.033423,1
15073,54.3,20.004,0,-0.029327,0,15175,54.207,13.889,-5.4741e-05,1.9445e-09,0.00045546,0.033452,1
15073,54.3,20.004,0,-0.029327,0,15175,54.207,13.889,-5.4741e-05,1.9445e-09,0.00045546,0.033452,1
15073,54.3,20.004,0,-0.029327,0,15176,54.207,13.889,-3.1701e-05,9.1971e-10,0.00036168,0.033181,1
15073,54.3,20.004,0,-0.029327,0,15176,54.207,13.889,-3.1701e-05,9.1971e-10,0.00036168,0.033181,1
15073,54.3,20.004,0,-0.029327,0,15176,54.207,13.889,-2.5175e-05,6.8444e-10,0.00033343,0.033092,1
15073,54.3,20.004,0,-0.029327,0,15176,54.207,13.889,-2.5175e-05,6.8444e-10,0.00033343,0.033092,1
15073,54.3,20.004,0,-0.029327,0,15176,54.207,13.889,-2.5175e-05,6.8444e-10,0.00033343,0.033092,1
15073,54.3,20.004,0,-0.029327,0,15176,54.207,13.889,-2.5175e-05,6.8444e-10,0.00033343,0.033092,1
15073,54.3,20.004,0,-0.029327,0,15176,54.207,13.889,-2.5175e-05,6.8444e-10,0.00033343,0.033092,1
15073,54.3,20.004,0,-0.029327,0,15176,54.207,13.889,-2.5175e-05,6.8444e-10,0.00033343,0.033092,1
15073,54.3,20.004,0,-0.029327,0,15176,54.207,13.889,-2.5175e-05,6.8444e-10,0.00033343,0.033092,1
15073,54.3,20.004,0,-0.029327,0,15176,54.207,13.889,-2.5175e-05,6.8444e-10,0.00033343,0.033092,1
15073,54.3,20.004,0,-0.029327,0,15176,54.207,13.889,-2.5175e-05,6.8444e-10,0.00033343,0.033092,1
15074,54.3,20.002,0,-0.02957,0,15176,54.207,13.889,-2.5175e-05,6.8444e-10,0.00033343,0.033481,1
15074,54.3,20.002,0,-0.02957,0,15176,54.207,13.889,-2.5175e-05,6.8444e-10,0.00033343,0.033481,1
15074,54.3,20.002,0,-0.02957,0,15176,54.207,13.889,-2.5175e-05,6.8444e-10,0.00033343,0.033481,1
15074,54.3,20.002,0,-0.02957,0,15176,54.207,13.889,-2.5175e-05,6.8444e-10,0.00033343,0.033481,1
15074,54.3,20.002,0,-0.02957,0,15176,54.207,13.889,-2.5175e-05,6.8444e-10,0.00033343,0.033481,1
15074,54.3,20.002,0,-0.02957,0,15176,54.207,13.889,-2.5175e-05,6.8444e-10,0.00033343,0.033481,1
15074,54.3,20.002,0,-0.02957,0,15176,54.207,13.889,-2.5175e-05,6.8444e-10,0.00033343,0.033481,1
15074,54.3,20.002,0,-0.02957,0,15176,54.207,13.889,-2.5175e-05,6.8444e-10,0.00033343,0.033481,1
15074,54.3,20.002,0,-0.02957,0,15176,54.207,13.889,-2.5175e-05,6.8444e-10,0.00033343,0.033481,1
15074,54.3,20.002,0,-0.02957,0,15176,54.207,13.889,-2.5175e-05,6.8444e-10,0.00033343,0.033481,1
15075,54.3,20.001,0,-0.029649,0,15176,54.207,13.889,-2.5175e-05,6.8444e-10,0.00033343,0.033613,1
15075,54.3,20.001,0,-0.029649,0,15176,54.207,13.889,-2.5175e-05,6.8444e-10,0.00033343,0.033613,1
15075,54.3,20.001,0,-0.029728,0,15176,54.207,13.889,-2.5175e-05,6.8444e-10,0.00033343,0.033746,1
15075,54.3,20.001,0,-0.029728,0,15176,54.207,13.889,-2.5175e-05,6.8444e-10,0.00033343,0.033746,1
15075,54.3,20.001,0,-0.029728,0,15178,54.207,13.889,3.8285e-06,-2.6382e-11,0.00019299,0.033199,1
15077,54.3,19.998,0,-0.030041,0,15178,54.207,13.889,3.8285e-06,-2.6382e-11,0.00019299,0.033724,1
15079,54.3,19.995,0,-0.030419,0,15179,54.207,13.889,1.5354e-05,-1.2596e-10,0.00012395,0.034022,1
15079,54.3,19.995,0,-0.030419,0,15180,54.207,13.889,2.091e-05,-1.2014e-10,8.3102e-05,0.033742,1
15079,54.3,19.995,0,-0.030419,0,15180,54.207,13.889,2.091e-05,-1.2014e-10,8.3102e-05,0.033742,1
15079,54.3,19.995,0,-0.030419,0,15180,54.207,13.889,2.2277e-05,-1.1076e-10,7.1337e-05,0.03365,1
15079,54.3,19.995,0,-0.030419,0,15180,54.207,13.889,2.2277e-05,-1.1076e-10,7.1337e-05,0.03365,1
15079,54.3,19.995,0,-0.030419,0,15180,54.207,13.889,2.2277e-05,-1.1076e-10,7.1337e-05,0.03365,1
15079,54.3,19.995,0,-0.030419,0,15180,54.207,13.889,2.2277e-05,-1.1076e-10,7.1337e-05,0.03365,1
15079,54.3,19.995,0,-0.030419,0,15180,54.207,13.889,2.2277e-05,-1.1076e-10,7.1337e-05,0.03365,1
15079,54.3,19.995,0,-0.030419,0,15180,54.207,13.889,2.2277e-05,-1.1076e-10,7.1337e-05,0.03365,1
15079,54.3,19.995,0,-0.030419,0,15180,54.207,13.889,2.2277e-05,-1.1076e-10,7.1337e-05,0.03365,1
15079,54.3,19.995,0,-0.030419,0,15180,54.207,13.889,2.343e-05,-9.9312e-11,6.0429e-05,0.033558,1
15079,54.3,19.995,0,-0.030419,0,15180,54.207,13.889,2.343e-05,-9.9312e-11,6.0429e-05,0.033558,1
15079,54.3,19.995,0,-0.030419,0,15180,54.207,13.889,2.343e-05,-9.9312e-11,6.0429e-05,0.033558,1
15079,54.3,19.995,0,-0.030419,0,15180,54.207,13.889,2.343e-05,-9.9312e-11,6.0429e-05,0.033558,1
15079,54.3,19.995,0,-0.030419,0,15180,54.207,13.889,2.343e-05,-9.9312e-11,6.0429e-05,0.033558,1
15079,54.3,19.995,0,-0.030419,0,15180,54.207,13.889,2.343e-05,-9.9312e-11,6.0429e-05,0.033558,1
15079,54.3,19.995,0,-0.030419,0,15180,54.207,13.889,2.343e-05,-9.9312e-11,6.0429e-05,0.033558,1
15079,54.3,19.995,0,-0.030419,0,15180,54.207,13.889,2.343e-05,-9.9312e-11,6.0429e-05,0.033558,1
15079,54.3,19.995,0,-0.030419,0,15180,54.207,13.889,2.343e-05,-9.9312e-11,6.0429e-05,0.033558,1
15080,54.3,19.993,0,-0.030712,0,15180,54.207,13.889,2.343e-05,-9.9312e-11,6.0429e-05,0.034094,1
15080,54.3,19.993,0,-0.030712,0,15180,54.207,13.889,2.343e-05,-9.9312e-11,6.0429e-05,0.034094,1
15080,54.3,19.993,0,-0.030712,0,15180,54.207,13.889,2.343e-05,-9.9312e-11,6.0429e-05,0.034094,1
15080,54.3,19.993,0,-0.030712,0,15180,54.207,13.889,2.343e-05,-9.9312e-11,6.0429e-05,0.034094,1
15081,54.3,19.992,0,-0.030784,0,15180,54.207,13.889,2.343e-05,-9.9312e-11,6.0429e-05,0.034231,1
15082,54.3,19.991,0,-0.030999,0,15181,54.207,13.889,2.6214e-05,-4.5903e-11,2.455e-05,0.034261,1
15083,54.3,19.988,0,-0.031281,0,15182,54.207,13.889,2.6768e-05,-9.0776e-12,4.7184e-06,0.034526,1
15084,54.3,19.987,0,-0.031418,0,15183,54.207,13.889,2.6362e-05,1.925e-11,-1.0103e-05,0.034514,1
15084,54.3,19.987,0,-0.031418,0,15183,54.207,13.889,2.6362e-05,1.925e-11,-1.0103e-05,0.034514,1
15084,54.3,19.987,0,-0.031418,0,15184,54.207,13.889,2.5689e-05,3.2822e-11,-1.7625e-05,0.034322,1
15084,54.3,19.987,0,-0.031418,0,15184,54.207,13.889,2.5689e-05,3.2822e-11,-1.7625e-05,0.034322,1
15084,54.3,19.987,0,-0.031418,0,15184,54.207,13.889,2.5689e-05,3.2822e-11,-1.7625e-05,0.034322,1
15084,54.3,19.987,0,-0.031418,0,15184,54.207,13.889,2.5689e-05,3.2822e-11,-1.7625e-05,0.034322,1
15084,54.3,19.987,0,-0.031418,0,15184,54.207,13.889,2.5689e-05,3.2822e-11,-1.7625e-05,0.034322,1
15084,54.3,19.987,0,-0.031418,0,15184,54.207,13.889,2.5689e-05,3.2822e-11,-1.7625e-05,0.034322,1
15084,54.3,19.987,0,-0.031418,0,15184,54.207,13.889,2.5689e-05,3.2822e-11,-1.7625e-05,0.034322,1
15084,54.3,19.987,0,-0.031418,0,15184,54.207,13.889,2.5689e-05,3.2822e-11,-1.7625e-05,0.034322,1
15085,54.3,19.986,0,-0.031556,0,15184,54.207,13.889,2.5689e-05,3.2822e-11,-1.7625e-05,0.0346,1
15085,54.3,19.986,0,-0.031556,0,15184,54.207,13.889,2.5689e-05,3.2822e-11,-1.7625e-05,0.0346,1
15085,54.3,19.986,0,-0.031556,0,15184,54.207,13.889,2.5689e-05,3.2822e-11,-1.7625e-05,0.0346,1
15085,54.3,19.986,0,-0.031556,0,15184,54.207,13.889,2.5689e-05,3.2822e-11,-1.7625e-05,0.0346,1
15085,54.3,19.986,0,-0.031556,0,15184,54.207,13.889,2.5689e-05,3.2822e-11,-1.7625e-05,0.0346,1
15085,54.3,19.986,0,-0.031556,0,15184,54.207,13.889,2.5689e-05,3.2822e-11,-1.7625e-05,0.0346,1
15085,54.3,19.986,0,-0.031556,0,15184,54.207,13.889,2.5689e-05,3.2822e-11,-1.7625e-05,0.0346,1
15085,54.3,19.986,0,-0.031556,0,15184,54.207,13.889,2.5689e-05,3.2822e-11,-1.7625e-05,0.0346,1
15085,54.3,19.986,0,-0.031556,0,15184,54.207,13.889,2.5689e-05,3.2822e-11,-1.7625e-05,0.0346,1
15085,54.3,19.986,0,-0.031556,0,15184,54.207,13.889,2.5689e-05,3.2822e-11,-1.7625e-05,0.0346,1
15085,54.3,19.986,0,-0.031556,0,15184,54.207,13.889,2.4773e-05,4.2363e-11,-2.3528e-05,0.034406,1
15085,54.3,19.986,0,-0.031556,0,15184,54.207,13.889,2.4773e-05,4.2363e-11,-2.3528e-05,0.034406,1
15085,54.3,19.986,0,-0.031556,0,15184,54.207,13.889,2.4773e-05,4.2363e-11,-2.3528e-05,0.034406,1
15085,54.3,19.986,0,-0.031556,0,15184,54.207,13.889,2.4773e-05,4.2363e-11,-2.3528e-05,0.034406,1
15085,54.3,19.986,0,-0.031556,0,15184,54.207,13.889,2.4773e-05,4.2363e-11,-2.3528e-05,0.034406,1
15085,54.3,19.986,0,-0.031556,0,15184,54.207,13.889,2.4773e-05,4.2363e-11,-2.3528e-05,0.034406,1
15085,54.3,19.986,0,-0.031556,0,15184,54.207,13.889,2.4773e-05,4.2363e-11,-2.3528e-05,0.034406,1
15086,54.3,19.984,0,-0.031758,0,15184,54.207,13.889,2.4773e-05,4.2363e-11,-2.3528e-05,0.034827,1
15087,54.3,19.982,0,-0.031958,0,15185,54.207,13.889,2.2431e-05,5.1258e-11,-3.1301e-05,0.034858,1
15089,54.3,19.979,0,-0.032223,0,15186,54.207,13.889,1.9706e-05,5.0381e-11,-3.489e-05,0.035032,1
15090,54.3,19.977,0,-0.032416,0,15187,54.207,13.889,1.7575e-05,4.5918e-11,-3.5567e-05,0.035164,1
15090,54.3,19.977,0,-0.032416,0,15188,54.207,13.889,1.6161e-05,4.1965e-11,-3.5295e-05,0.034964,1
15090,54.3,19.977,0,-0.032416,0,15188,54.207,13.889,1.6161e-05,4.1965e-11,-3.5295e-05,0.034964,1
15090,54.3,19.977,0,-0.032416,0,15188,54.207,13.889,1.6161e-05,4.1965e-11,-3.5295e-05,0.034964,1
15090,54.3,19.977,0,-0.032416,0,15188,54.207,13.889,1.6161e-05,4.1965e-11,-3.5295e-05,0.034964,1
15090,54.3,19.977,0,-0.032416,0,15188,54.207,13.889,1.6161e-05,4.1965e-11,-3.5295e-05,0.034964,1
15090,54.3,19.977,0,-0.032416,0,15188,54.207,13.889,1.6161e-05,4.1965e-11,-3.5295e-05,0.034964,1
15090,54.3,19.977,0,-0.032416,0,15188,54.207,13.889,1.6161e-05,4.1965e-11,-3.5295e-05,0.034964,1
15090,54.3,19.977,0,-0.032416,0,15188,54.207,13.889,1.6161e-05,4.1965e-11,-3.5295e-05,0.034964,1
15090,54.3,19.977,0,-0.032416,0,15188,54.207,13.889,1.6161e-05,4.1965e-11,-3.5295e-05,0.034964,1
15091,54.3,19.976,0,-0.032543,0,15188,54.207,13.889,1.6161e-05,4.1965e-11,-3.5295e-05,0.035253,1
15091,54.3,19.976,0,-0.032543,0,15188,54.207,13.889,1.6161e-05,4.1965e-11,-3.5295e-05,0.035253,1
15091,54.3,19.976,0,-0.032543,0,15188,54.207,13.889,1.6161e-05,4.1965e-11,-3.5295e-05,0.035253,1
15091,54.3,19.976,0,-0.032543,0,15188,54.207,13.889,1.6161e-05,4.1965e-11,-3.5295e-05,0.035253,1
15091,54.3,19.976,0,-0.032543,0,15188,54.207,13.889,1.6161e-05,4.1965e-11,-3.5295e-05,0.035253,1
15091,54.3,19.976,0,-0.032543,0,15188,54.207,13.889,1.6161e-05,4.1965e-11,-3.5295e-05,0.035253,1
15091,54.3,19.976,0,-0.032543,0,15188,54.207,13.889,1.6161e-05,4.1965e-11,-3.5295e-05,0.035253,1
15091,54.3,19.976,0,-0.032543,0,15188,54.207,13.889,1.6161e-05,4.1965e-11,-3.5295e-05,0.035253,1
15091,54.3,19.976,0,-0.032543,0,15188,54.207,13.889,1.6161e-05,4.1965e-11,-3.5295e-05,0.035253,1
15091,54.3,19.976,0,-0.032543,0,15188,54.207,13.889,1.6161e-05,4.1965e-11,-3.5295e-05,0.035253,1
15091,54.3,19.976,0,-0.032543,0,15188,54.207,13.889,1.4773e-05,3.7631e-11,-3.457e-05,0.035052,1
15091,54.3,19.976,0,-0.032543,0,15188,54.207,13.889,1.4773e-05,3.7631e-11,-3.457e-05,0.035052,1
15091,54.3,19.976,0,-0.032543,0,15188,54.207,13.889,1.4773e-05,3.7631e-11,-3.457e-05,0.035052,1
15091,54.3,19.976,0,-0.032543,0,15188,54.207,13.889,1.4773e-05,3.7631e-11,-3.457e-05,0.035052,1
15091,54.3,19.976,0,-0.032543,0,15188,54.207,13.889,1.4773e-05,3.7631e-11,-3.457e-05,0.035052,1
15093,54.3,19.973,0,-0.032797,0,15189,54.207,13.889,1.4094e-05,3.5405e-11,-3.4067e-05,0.035533,1
15094,54.3,19.971,0,-0.032985,0,15189,54.207,13.889,1.2135e-05,2.8805e-11,-3.2119e-05,0.035669,1
15095,54.3,19.969,0,-0.033232,0,15191,54.207,13.889,9.1888e-06,1.9034e-11,-2.7921e-05,0.035747,1
15095,54.3,19.969,0,-0.033232,0,15191,54.207,13.889,8.1367e-06,1.5761e-11,-2.6069e-05,0.03554,1
15095,54.3,19.969,0,-0.033232,0,15191,54.207,13.889,8.1367e-06,1.5761e-11,-2.6069e-05,0.03554,1
15095,54.3,19.969,0,-0.033232,0,15191,54.207,13.889,8.1367e-06,1.5761e-11,-2.6069e-05,0.03554,1
15095,54.3,19.969,0,-0.033232,0,15191,54.207,13.889,8.1367e-06,1.5761e-11,-2.6069e-05,0.03554,1
15095,54.3,19.969,0,-0.033232,0,15192,54.207,13.889,7.6388e-06,1.4275e-11,-2.5127e-05,0.035437,1
15095,54.3,19.969,0,-0.033232,0,15192,54.207,13.889,7.6388e-06,1.4275e-11,-2.5127e-05,0.035437,1
15095,54.3,19.969,0,-0.033232,0,15192,54.207,13.889,7.6388e-06,1.4275e-11,-2.5127e-05,0.035437,1
15095,54.3,19.969,0,-0.033232,0,15192,54.207,13.889,7.6388e-06,1.4275e-11,-2.5127e-05,0.035437,1
15095,54.3,19.969,0,-0.033232,0,15192,54.207,13.889,7.6388e-06,1.4275e-11,-2.5127e-05,0.035437,1
15095,54.3,19.969,0,-0.033232,0,15192,54.207,13.889,7.6388e-06,1.4275e-11,-2.5127e-05,0.035437,1
15095,54.3,19.969,0,-0.033232,0,15192,54.207,13.889,7.6388e-06,1.4275e-11,-2.5127e-05,0.035437,1
15095,54.3,19.969,0,-0.033232,0,15192,54.207,13.889,7.6388e-06,1.4275e-11,-2.5127e-05,0.035437,1
15095,54.3,19.969,0,-0.033232,0,15192,54.207,13.889,7.6388e-06,1.4275e-11,-2.5127e-05,0.035437,1
15095,54.3,19.969,0,-0.033232,0,15192,54.207,13.889,7.6388e-06,1.4275e-11,-2.5127e-05,0.035437,1
15097,54.3,19.967,0,-0.033417,0,15192,54.207,13.889,7.6388e-06,1.4275e-11,-2.5127e-05,0.035884,1
15097,54.3,19.967,0,-0.033417,0,15192,54.207,13.889,7.6388e-06,1.4275e-11,-2.5127e-05,0.035884,1
15097,54.3,19.967,0,-0.033417,0,15192,54.207,13.889,7.6388e-06,1.4275e-11,-2.5127e-05,0.035884,1
15097,54.3,19.967,0,-0.033417,0,15192,54.207,13.889,7.6388e-06,1.4275e-11,-2.5127e-05,0.035884,1
15097,54.3,19.967,0,-0.033417,0,15192,54.207,13.889,7.6388e-06,1.4275e-11,-2.5127e-05,0.035884,1
15097,54.3,19.967,0,-0.033417,0,15192,54.207,13.889,7.6388e-06,1.4275e-11,-2.5127e-05,0.035884,1
15097,54.3,19.967,0,-0.033417,0,15192,54.207,13.889,7.6388e-06,1.4275e-11,-2.5127e-05,0.035884,1
15097,54.3,19.966,0,-0.033479,0,15192,54.207,13.889,7.6388e-06,1.4275e-11,-2.5127e-05,0.036035,1
15098,54.3,19.965,0,-0.0336,0,15192,54.207,13.889,6.2587e-06,1.0404e-11,-2.2294e-05,0.036022,1
15099,54.3,19.962,0,-0.033841,0,15194,54.207,13.889,4.6787e-06,6.521e-12,-1.8617e-05,0.036207,1
15101,54.3,19.96,0,-0.034018,0,15194,54.207,13.889,3.6793e-06,4.4289e-12,-1.6021e-05,0.036348,1
15101,54.3,19.96,0,-0.034018,0,15195,54.207,13.889,3.0958e-06,3.357e-12,-1.4391e-05,0.036134,1
15101,54.3,19.96,0,-0.034018,0,15195,54.207,13.889,3.0958e-06,3.357e-12,-1.4391e-05,0.036134,1
15101,54.3,19.96,0,-0.034018,0,15195,54.207,13.889,3.0958e-06,3.357e-12,-1.4391e-05,0.036134,1
15101,54.3,19.96,0,-0.034018,0,15195,54.207,13.889,3.0958e-06,3.357e-12,-1.4391e-05,0.036134,1
15101,54.3,19.96,0,-0.034018,0,15195,54.207,13.889,3.0958e-06,3.357e-12,-1.4391e-05,0.036134,1
15101,54.3,19.96,0,-0.034018,0,15195,54.207,13.889,3.0958e-06,3.357e-12,-1.4391e-05,0.036134,1
15101,54.3,19.96,0,-0.034018,0,15195,54.207,13.889,3.0958e-06,3.357e-12,-1.4391e-05,0.036134,1
15101,54.3,19.96,0,-0.034018,0,15195,54.207,13.889,3.0958e-06,3.357e-12,-1.4391e-05,0.036134,1
15101,54.3,19.96,0,-0.034018,0,15195,54.207,13.889,3.0958e-06,3.357e-12,-1.4391e-05,0.036134,1
15101,54.3,19.959,0,-0.034137,0,15195,54.207,13.889,3.0958e-06,3.357e-12,-1.4391e-05,0.036442,1
15101,54.3,19.959,0,-0.034137,0,15195,54.207,13.889,3.0958e-06,3.357e-12,-1.4391e-05,0.036442,1
15101,54.3,19.959,0,-0.034137,0,15195,54.207,13.889,3.0958e-06,3.357e-12,-1.4391e-05,0.036442,1
15101,54.3,19.959,0,-0.034137,0,15195,54.207,13.889,3.0958e-06,3.357e-12,-1.4391e-05,0.036442,1
15101,54.3,19.959,0,-0.034137,0,15195,54.207,13.889,3.0958e-06,3.357e-12,-1.4391e-05,0.036442,1
15101,54.3,19.959,0,-0.034137,0,15195,54.207,13.889,3.0958e-06,3.357e-12,-1.4391e-05,0.036442,1
15101,54.3,19.959,0,-0.034137,0,15195,54.207,13.889,3.0958e-06,3.357e-12,-1.4391e-05,0.036442,1
15101,54.3,19.959,0,-0.034137,0,15195,54.207,13.889,3.0958e-06,3.357e-12,-1.4391e-05,0.036442,1
15101,54.3,19.959,0,-0.034137,0,15195,54.207,13.889,3.0958e-06,3.357e-12,-1.4391e-05,0.036442,1
15101,54.3,19.959,0,-0.034137,0,15195,54.207,13.889,3.0958e-06,3.357e-12,-1.4391e-05,0.036442,1
15101,54.3,19.959,0,-0.034137,0,15196,54.207,13.889,2.5743e-06,2.5013e-12,-1.2854e-05,0.036227,1
15101,54.3,19.959,0,-0.034137,0,15196,54.207,13.889,2.5743e-06,2.5013e-12,-1.2854e-05,0.036227,1
15101,54.3,19.959,0,-0.034137,0,15196,54.207,13.889,2.5743e-06,2.5013e-12,-1.2854e-05,0.036227,1
15101,54.3,19.959,0,-0.034137,0,15196,54.207,13.889,2.5743e-06,2.5013e-12,-1.2854e-05,0.036227,1
15101,54.3,19.959,0,-0.034137,0,15196,54.207,13.889,2.5743e-06,2.5013e-12,-1.2854e-05,0.036227,1
15101,54.3,19.959,0,-0.034137,0,15196,54.207,13.889,2.5743e-06,2.5013e-12,-1.2854e-05,0.036227,1
15103,54.3,19.955,0,-0.034429,0,15196,54.207,13.889,2.3356e-06,2.144e-12,-1.212e-05,0.0369,1
15103,54.3,19.955,0,-0.034429,0,15196,54.207,13.889,2.3356e-06,2.144e-12,-1.212e-05,0.0369,1
15104,54.3,19.953,0,-0.034603,0,15197,54.207,13.889,1.5161e-06,1.0943e-12,-9.4369e-06,0.036934,1
15106,54.3,19.951,0,-0.034774,0,15198,54.207,13.889,8.8937e-07,4.9493e-13,-7.1536e-06,0.036968,1
15106,54.3,19.951,0,-0.034774,0,15199,54.207,13.889,5.2679e-07,2.3939e-13,-5.6957e-06,0.036638,1
15106,54.3,19.951,0,-0.034774,0,15199,54.207,13.889,5.2679e-07,2.3939e-13,-5.6957e-06,0.036638,1
15106,54.3,19.951,0,-0.034774,0,15199,54.207,13.889,5.2679e-07,2.3939e-13,-5.6957e-06,0.036638,1
15106,54.3,19.951,0,-0.034774,0,15199,54.207,13.889,5.2679e-07,2.3939e-13,-5.6957e-06,0.036638,1
15106,54.3,19.951,0,-0.034774,0,15199,54.207,13.889,4.239e-07,1.8031e-13,-5.256e-06,0.036529,1
15106,54.3,19.951,0,-0.034774,0,15199,54.207,13.889,4.239e-07,1.8031e-13,-5.256e-06,0.036529,1
15106,54.3,19.951,0,-0.034774,0,15199,54.207,13.889,4.239e-07,1.8031e-13,-5.256e-06,0.036529,1
15106,54.3,19.951,0,-0.034774,0,15199,54.207,13.889,4.239e-07,1.8031e-13,-5.256e-06,0.036529,1
15106,54.3,19.951,0,-0.034774,0,15199,54.207,13.889,4.239e-07,1.8031e-13,-5.256e-06,0.036529,1
15106,54.3,19.951,0,-0.034774,0,15199,54.207,13.889,4.239e-07,1.8031e-13,-5.256e-06,0.036529,1
15106,54.3,19.951,0,-0.034774,0,15199,54.207,13.889,4.239e-07,1.8031e-13,-5.256e-06,0.036529,1
15106,54.3,19.951,0,-0.034774,0,15199,54.207,13.889,4.239e-07,1.8031e-13,-5.256e-06,0.036529,1
15106,54.3,19.951,0,-0.034774,0,15199,54.207,13.889,4.239e-07,1.8031e-13,-5.256e-06,0.036529,1
15107,54.3,19.948,0,-0.034999,0,15199,54.207,13.889,4.239e-07,1.8031e-13,-5.256e-06,0.037163,1
15107,54.3,19.948,0,-0.034999,0,15199,54.207,13.889,4.239e-07,1.8031e-13,-5.256e-06,0.037163,1
15107,54.3,19.948,0,-0.034999,0,15199,54.207,13.889,4.239e-07,1.8031e-13,-5.256e-06,0.037163,1
15107,54.3,19.948,0,-0.034999,0,15199,54.207,13.889,4.239e-07,1.8031e-13,-5.256e-06,0.037163,1
15107,54.3,19.948,0,-0.034999,0,15199,54.207,13.889,4.239e-07,1.8031e-13,-5.256e-06,0.037163,1
15107,54.3,19.948,0,-0.034999,0,15199,54.207,13.889,4.239e-07,1.8031e-13,-5.256e-06,0.037163,1
15107,54.3,19.948,0,-0.034999,0,15199,54.207,13.889,4.239e-07,1.8031e-13,-5.256e-06,0.037163,1
15107,54.3,19.948,0,-0.034999,0,15199,54.207,13.889,4.239e-07,1.8031e-13,-5.256e-06,0.037163,1
15108,54.3,19.947,0,-0.035056,0,15199,54.207,13.889,4.239e-07,1.8031e-13,-5.256e-06,0.037326,1
15108,54.3,19.946,0,-0.035168,0,15200,54.207,13.889,1.6291e-07,5.964e-14,-4.0685e-06,0.037311,1
15108,54.3,19.946,0,-0.035168,0,15201,54.207,13.889,-8.9096e-08,-1.2243e-14,-2.7693e-06,0.036863,1
15110,54.3,19.943,0,-0.035391,0,15201,54.207,13.889,-8.9096e-08,-1.2243e-14,-2.7693e-06,0.03751,1
15110,54.3,19.943,0,-0.035391,0,15202,54.207,13.889,-2.5321e-07,-2.9805e-14,-1.7567e-06,0.037057,1
15110,54.3,19.943,0,-0.035391,0,15202,54.207,13.889,-2.5321e-07,-2.9805e-14,-1.7567e-06,0.037057,1
15110,54.3,19.943,0,-0.035391,0,15202,54.207,13.889,-2.8299e-07,-2.9731e-14,-1.5434e-06,0.036946,1
15110,54.3,19.943,0,-0.035391,0,15202,54.207,13.889,-2.8299e-07,-2.9731e-14,-1.5434e-06,0.036946,1
15110,54.3,19.943,0,-0.035391,0,15202,54.207,13.889,-2.8299e-07,-2.9731e-14,-1.5434e-06,0.036946,1
15110,54.3,19.943,0,-0.035391,0,15202,54.207,13.889,-2.8299e-07,-2.9731e-14,-1.5434e-06,0.036946,1
15110,54.3,19.943,0,-0.035391,0,15202,54.207,13.889,-2.8299e-07,-2.9731e-14,-1.5434e-06,0.036946,1
15110,54.3,19.943,0,-0.035391,0,15202,54.207,13.889,-2.8299e-07,-2.9731e-14,-1.5434e-06,0.036946,1
15110,54.3,19.943,0,-0.035391,0,15202,54.207,13.889,-2.8299e-07,-2.9731e-14,-1.5434e-06,0.036946,1
15110,54.3,19.943,0,-0.035391,0,15202,54.207,13.889,-2.8299e-07,-2.9731e-14,-1.5434e-06,0.036946,1
15110,54.3,19.943,0,-0.035391,0,15202,54.207,13.889,-2.8299e-07,-2.9731e-14,-1.5434e-06,0.036946,1
15112,54.3,19.94,0,-0.035667,0,15202,54.207,13.889,-2.8299e-07,-2.9731e-14,-1.5434e-06,0.037761,1
15112,54.3,19.94,0,-0.035667,0,15202,54.207,13.889,-2.8299e-07,-2.9731e-14,-1.5434e-06,0.037761,1
15112,54.3,19.94,0,-0.035667,0,15202,54.207,13.889,-2.8299e-07,-2.9731e-14,-1.5434e-06,0.037761,1
15112,54.3,19.94,0,-0.035667,0,15202,54.207,13.889,-2.8299e-07,-2.9731e-14,-1.5434e-06,0.037761,1
15112,54.3,19.94,0,-0.035667,0,15202,54.207,13.889,-2.8299e-07,-2.9731e-14,-1.5434e-06,0.037761,1
15112,54.3,19.94,0,-0.035667,0,15202,54.207,13.889,-2.8299e-07,-2.9731e-14,-1.5434e-06,0.037761,1
15112,54.3,19.94,0,-0.035667,0,15202,54.207,13.889,-2.8299e-07,-2.9731e-14,-1.5434e-06,0.037761,1
15112,54.3,19.94,0,-0.035667,0,15202,54.207,13.889,-2.8299e-07,-2.9731e-14,-1.5434e-06,0.037761,1
15112,54.3,19.94,0,-0.035667,0,15202,54.207,13.889,-2.8299e-07,-2.9731e-14,-1.5434e-06,0.037761,1
15112,54.3,19.94,0,-0.035667,0,15202,54.207,13.889,-2.8299e-07,-2.9731e-14,-1.5434e-06,0.037761,1
15112,54.3,19.94,0,-0.035667,0,15202,54.207,13.889,-2.8299e-07,-2.9731e-14,-1.5434e-06,0.037761,1
15112,54.3,19.94,0,-0.035667,0,15203,54.207,13.889,-3.3112e-07,-2.6681e-14,-1.1597e-06,0.03753,1
15114,54.3,19.937,0,-0.035885,0,15203,54.207,13.889,-3.5001e-07,-2.4201e-14,-9.8821e-07,0.038082,1
15114,54.3,19.937,0,-0.035885,0,15204,54.207,13.889,-3.9677e-07,-1.1948e-14,-4.2274e-07,0.037615,1
15115,54.3,19.934,0,-0.036101,0,15204,54.207,13.889,-3.9677e-07,-1.1948e-14,-4.2274e-07,0.038288,1
15115,54.3,19.934,0,-0.036101,0,15204,54.207,13.889,-3.9677e-07,-1.1948e-14,-4.2274e-07,0.038288,1
15115,54.3,19.934,0,-0.036101,0,15206,54.207,13.889,-4.0608e-07,1.6391e-15,5.5985e-08,0.037701,1
15115,54.3,19.934,0,-0.036101,0,15206,54.207,13.889,-4.0318e-07,3.6884e-15,1.2666e-07,0.037586,1
15115,54.3,19.934,0,-0.036101,0,15206,54.207,13.889,-4.0318e-07,3.6884e-15,1.2666e-07,0.037586,1
15115,54.3,19.934,0,-0.036101,0,15206,54.207,13.889,-4.0318e-07,3.6884e-15,1.2666e-07,0.037586,1
15115,54.3,19.934,0,-0.036101,0,15206,54.207,13.889,-4.0318e-07,3.6884e-15,1.2666e-07,0.037586,1
15115,54.3,19.934,0,-0.036101,0,15206,54.207,13.889,-4.0318e-07,3.6884e-15,1.2666e-07,0.037586,1
15115,54.3,19.934,0,-0.036101,0,15206,54.207,13.889,-4.0318e-07,3.6884e-15,1.2666e-07,0.037586,1
15115,54.3,19.934,0,-0.036101,0,15206,54.207,13.889,-4.0318e-07,3.6884e-15,1.2666e-07,0.037586,1
15115,54.3,19.934,0,-0.036101,0,15206,54.207,13.889,-4.0318e-07,3.6884e-15,1.2666e-07,0.037586,1
15115,54.3,19.934,0,-0.036101,0,15206,54.207,13.889,-4.0318e-07,3.6884e-15,1.2666e-07,0.037586,1
15117,54.3,19.93,0,-0.036367,0,15206,54.207,13.889,-4.0318e-07,3.6884e-15,1.2666e-07,0.038429,1
15117,54.3,19.93,0,-0.036367,0,15206,54.207,13.889,-4.0318e-07,3.6884e-15,1.2666e-07,0.038429,1
15117,54.3,19.93,0,-0.036367,0,15206,54.207,13.889,-4.0318e-07,3.6884e-15,1.2666e-07,0.038429,1
15117,54.3,19.93,0,-0.036367,0,15206,54.207,13.889,-4.0318e-07,3.6884e-15,1.2666e-07,0.038429,1
15118,54.3,19.93,0,-0.036419,0,15206,54.207,13.889,-4.0318e-07,3.6884e-15,1.2666e-07,0.038602,1
15118,54.3,19.93,0,-0.036419,0,15206,54.207,13.889,-4.0318e-07,3.6884e-15,1.2666e-07,0.038602,1
15118,54.3,19.93,0,-0.036419,0,15206,54.207,13.889,-4.0318e-07,3.6884e-15,1.2666e-07,0.038602,1
15118,54.3,19.93,0,-0.036419,0,15206,54.207,13.889,-4.0318e-07,3.6884e-15,1.2666e-07,0.038602,1
15118,54.3,19.93,0,-0.036419,0,15206,54.207,13.889,-4.0318e-07,3.6884e-15,1.2666e-07,0.038602,1
15118,54.3,19.93,0,-0.036419,0,15206,54.207,13.889,-4.0318e-07,3.6884e-15,1.2666e-07,0.038602,1
15118,54.3,19.93,0,-0.036419,0,15206,54.207,13.889,-4.0318e-07,3.6884e-15,1.2666e-07,0.038602,1
15118,54.3,19.929,0,-0.036472,0,15206,54.207,13.889,-4.0318e-07,3.6884e-15,1.2666e-07,0.038777,1
15120,54.3,19.926,0,-0.036681,0,15207,54.207,13.889,-3.7275e-07,1.0316e-14,3.805e-07,0.038867,1
15120,54.3,19.926,0,-0.036681,0,15209,54.207,13.889,-3.3591e-07,1.1982e-14,4.8833e-07,0.038382,1
15120,54.3,19.926,0,-0.036681,0,15209,54.207,13.889,-3.3591e-07,1.1982e-14,4.8833e-07,0.038382,1
15120,54.3,19.926,0,-0.036681,0,15209,54.207,13.889,-3.3591e-07,1.1982e-14,4.8833e-07,0.038382,1
15120,54.3,19.926,0,-0.036681,0,15209,54.207,13.889,-3.3591e-07,1.1982e-14,4.8833e-07,0.038382,1
15120,54.3,19.926,0,-0.036681,0,15209,54.207,13.889,-3.2573e-07,1.2028e-14,5.0502e-07,0.038262,1
15122,54.3,19.922,0,-0.036942,0,15209,54.207,13.889,-3.2573e-07,1.2028e-14,5.0502e-07,0.039136,1
15122,54.3,19.922,0,-0.036942,0,15210,54.207,13.889,-2.9393e-07,1.1535e-14,5.3533e-07,0.038766,1
15122,54.3,19.922,0,-0.036942,0,15210,54.207,13.889,-2.9393e-07,1.1535e-14,5.3533e-07,0.038766,1
15122,54.3,19.922,0,-0.036942,0,15210,54.207,13.889,-2.9393e-07,1.1535e-14,5.3533e-07,0.038766,1
15122,54.3,19.922,0,-0.036942,0,15210,54.207,13.889,-2.9393e-07,1.1535e-14,5.3533e-07,0.038766,1
15122,54.3,19.922,0,-0.036942,0,15210,54.207,13.889,-2.9393e-07,1.1535e-14,5.3533e-07,0.038766,1
15122,54.3,19.922,0,-0.036942,0,15210,54.207,13.889,-2.9393e-07,1.1535e-14,5.3533e-07,0.038766,1
15122,54.3,19.922,0,-0.036942,0,15210,54.207,13.889,-2.9393e-07,1.1535e-14,5.3533e-07,0.038766,1
15122,54.3,19.922,0,-0.036942,0,15210,54.207,13.889,-2.9393e-07,1.1535e-14,5.3533e-07,0.038766,1
15123,54.3,19.92,0,-0.037095,0,15210,54.207,13.889,-2.8311e-07,1.1211e-14,5.3973e-07,0.039174,1
15123,54.3,19.92,0,-0.037095,0,15211,54.207,13.889,-2.6143e-07,1.0402e-14,5.4143e-07,0.038926,1
15123,54.3,19.92,0,-0.037095,0,15211,54.207,13.889,-2.6143e-07,1.0402e-14,5.4143e-07,0.038926,1
15123,54.3,19.92,0,-0.037095,0,15211,54.207,13.889,-2.6143e-07,1.0402e-14,5.4143e-07,0.038926,1
15123,54.3,19.92,0,-0.037095,0,15211,54.207,13.889,-2.6143e-07,1.0402e-14,5.4143e-07,0.038926,1
15123,54.3,19.92,0,-0.037095,0,15211,54.207,13.889,-2.6143e-07,1.0402e-14,5.4143e-07,0.038926,1
15123,54.3,19.92,0,-0.037095,0,15211,54.207,13.889,-2.6143e-07,1.0402e-14,5.4143e-07,0.038926,1
15123,54.3,19.92,0,-0.037095,0,15211,54.207,13.889,-2.6143e-07,1.0402e-14,5.4143e-07,0.038926,1
15124,54.3,19.919,0,-0.037197,0,15211,54.207,13.889,-2.6143e-07,1.0402e-14,5.4143e-07,0.039283,1
15125,54.3,19.916,0,-0.03735,0,15211,54.207,13.889,-2.6143e-07,1.0402e-14,5.4143e-07,0.03983,1
15125,54.3,19.916,0,-0.03735,0,15211,54.207,13.889,-2.6143e-07,1.0402e-14,5.4143e-07,0.03983,1
15125,54.3,19.916,0,-0.03735,0,15211,54.207,13.889,-2.6143e-07,1.0402e-14,5.4143e-07,0.03983,1
15125,54.3,19.916,0,-0.03735,0,15211,54.207,13.889,-2.6143e-07,1.0402e-14,5.4143e-07,0.03983,1
15125,54.3,19.916,0,-0.03735,0,15211,54.207,13.889,-2.6143e-07,1.0402e-14,5.4143e-07,0.03983,1
15125,54.3,19.916,0,-0.03735,0,15211,54.207,13.889,-2.6143e-07,1.0402e-14,5.4143e-07,0.03983,1
15125,54.3,19.916,0,-0.03735,0,15211,54.207,13.889,-2.6143e-07,1.0402e-14,5.4143e-07,0.03983,1
15125,54.3,19.916,0,-0.0374,0,15211,54.207,13.889,-2.6143e-07,1.0402e-14,5.4143e-07,0.040016,1
15125,54.3,19.916,0,-0.0374,0,15211,54.207,13.889,-2.6143e-07,1.0402e-14,5.4143e-07,0.040016,1
15125,54.3,19.916,0,-0.0374,0,15211,54.207,13.889,-2.6143e-07,1.0402e-14,5.4143e-07,0.040016,1
15125,54.3,19.916,0,-0.0374,0,15212,54.207,13.889,-1.9872e-07,7.4004e-15,5.0443e-07,0.03925,1
15126,54.3,19.913,0,-0.037553,0,15212,54.207,13.889,-1.9872e-07,7.4004e-15,5.0443e-07,0.039796,1
15127,54.3,19.912,0,-0.037651,0,15213,54.207,13.889,-1.6994e-07,5.9168e-15,4.7054e-07,0.039779,1
15128,54.3,19.91,0,-0.037799,0,15214,54.207,13.889,-1.4346e-07,4.5869e-15,4.3111e-07,0.039947,1
15128,54.3,19.91,0,-0.037799,0,15214,54.207,13.889,-1.272e-07,3.8084e-15,4.0307e-07,0.039689,1
15128,54.3,19.91,0,-0.037799,0,15214,54.207,13.889,-1.272e-07,3.8084e-15,4.0307e-07,0.039689,1
15128,54.3,19.91,0,-0.037799,0,15214,54.207,13.889,-1.272e-07,3.8084e-15,4.0307e-07,0.039689,1
15128,54.3,19.91,0,-0.037799,0,15214,54.207,13.889,-1.272e-07,3.8084e-15,4.0307e-07,0.039689,1
15128,54.3,19.91,0,-0.037799,0,15215,54.207,13.889,-1.1949e-07,3.4537e-15,3.8878e-07,0.039562,1
15128,54.3,19.91,0,-0.037799,0,15215,54.207,13.889,-1.1949e-07,3.4537e-15,3.8878e-07,0.039562,1
15128,54.3,19.91,0,-0.037799,0,15215,54.207,13.889,-1.1949e-07,3.4537e-15,3.8878e-07,0.039562,1
15128,54.3,19.91,0,-0.037799,0,15215,54.207,13.889,-1.1949e-07,3.4537e-15,3.8878e-07,0.039562,1
15128,54.3,19.91,0,-0.037799,0,15215,54.207,13.889,-1.1949e-07,3.4537e-15,3.8878e-07,0.039562,1
15128,54.3,19.91,0,-0.037799,0,15215,54.207,13.889,-1.1949e-07,3.4537e-15,3.8878e-07,0.039562,1
15128,54.3,19.91,0,-0.037799,0,15215,54.207,13.889,-1.1949e-07,3.4537e-15,3.8878e-07,0.039562,1
15128,54.3,19.91,0,-0.037799,0,15215,54.207,13.889,-1.1949e-07,3.4537e-15,3.8878e-07,0.039562,1
15128,54.3,19.91,0,-0.037799,0,15215,54.207,13.889,-1.1949e-07,3.4537e-15,3.8878e-07,0.039562,1
15128,54.3,19.91,0,-0.037799,0,15215,54.207,13.889,-1.1949e-07,3.4537e-15,3.8878e-07,0.039562,1
15130,54.3,19.907,0,-0.037945,0,15215,54.207,13.889,-1.1949e-07,3.4537e-15,3.8878e-07,0.040117,1
15130,54.3,19.907,0,-0.037945,0,15215,54.207,13.889,-1.1949e-07,3.4537e-15,3.8878e-07,0.040117,1
15130,54.3,19.907,0,-0.037945,0,15215,54.207,13.889,-1.1949e-07,3.4537e-15,3.8878e-07,0.040117,1
15130,54.3,19.907,0,-0.037945,0,15215,54.207,13.889,-1.1949e-07,3.4537e-15,3.8878e-07,0.040117,1
15130,54.3,19.907,0,-0.037945,0,15215,54.207,13.889,-1.1949e-07,3.4537e-15,3.8878e-07,0.040117,1
15130,54.3,19.907,0,-0.037945,0,15215,54.207,13.889,-1.1949e-07,3.4537e-15,3.8878e-07,0.040117,1
15130,54.3,19.907,0,-0.037945,0,15215,54.207,13.889,-1.1949e-07,3.4537e-15,3.8878e-07,0.040117,1
15130,54.3,19.907,0,-0.037995,0,15215,54.207,13.889,-1.1949e-07,3.4537e-15,3.8878e-07,0.040305,1
15130,54.3,19.907,0,-0.037995,0,15215,54.207,13.889,-1.1949e-07,3.4537e-15,3.8878e-07,0.040305,1
15131,54.3,19.905,0,-0.038092,0,15216,54.207,13.889,-9.811e-08,2.5273e-15,3.456e-07,0.040288,1
15131,54.3,19.905,0,-0.038092,0,15217,54.207,13.889,-6.813e-08,1.4073e-15,2.7572e-07,0.039638,1
15131,54.3,19.905,0,-0.038092,0,15217,54.207,13.889,-6.813e-08,1.4073e-15,2.7572e-07,0.039638,1
15131,54.3,19.905,0,-0.038092,0,15217,54.207,13.889,-6.813e-08,1.4073e-15,2.7572e-07,0.039638,1
15131,54.3,19.905,0,-0.038092,0,15217,54.207,13.889,-6.813e-08,1.4073e-15,2.7572e-07,0.039638,1
15134,54.3,19.9,0,-0.038429,0,15217,54.207,13.889,-6.813e-08,1.4073e-15,2.7572e-07,0.040963,1
15134,54.3,19.9,0,-0.038429,0,15217,54.207,13.889,-6.813e-08,1.4073e-15,2.7572e-07,0.040963,1
15134,54.3,19.9,0,-0.038429,0,15217,54.207,13.889,-6.813e-08,1.4073e-15,2.7572e-07,0.040963,1
15134,54.3,19.9,0,-0.038429,0,15217,54.207,13.889,-6.813e-08,1.4073e-15,2.7572e-07,0.040963,1
15134,54.3,19.899,0,-0.038477,0,15217,54.207,13.889,-6.813e-08,1.4073e-15,2.7572e-07,0.04116,1
15134,54.3,19.899,0,-0.038477,0,15217,54.207,13.889,-6.813e-08,1.4073e-15,2.7572e-07,0.04116,1
15134,54.3,19.899,0,-0.038477,0,15217,54.207,13.889,-6.813e-08,1.4073e-15,2.7572e-07,0.04116,1
15134,54.3,19.899,0,-0.038477,0,15217,54.207,13.889,-6.813e-08,1.4073e-15,2.7572e-07,0.04116,1
15134,54.3,19.898,0,-0.038524,0,15217,54.207,13.889,-6.813e-08,1.4073e-15,2.7572e-07,0.041358,1
15134,54.3,19.898,0,-0.038524,0,15217,54.207,13.889,-6.813e-08,1.4073e-15,2.7572e-07,0.041358,1
15135,54.3,19.897,0,-0.038573,0,15217,54.207,13.889,-6.813e-08,1.4073e-15,2.7572e-07,0.041558,1
15135,54.3,19.897,0,-0.038573,0,15219,54.207,13.889,-3.7068e-08,5.3087e-16,1.8925e-07,0.040598,1
15136,54.3,19.895,0,-0.038714,0,15219,54.207,13.889,-3.7068e-08,5.3087e-16,1.8925e-07,0.041182,1
15136,54.3,19.895,0,-0.038714,0,15219,54.207,13.889,-3.7068e-08,5.3087e-16,1.8925e-07,0.041182,1
15137,54.3,19.893,0,-0.038808,0,15219,54.207,13.889,-3.7068e-08,5.3087e-16,1.8925e-07,0.041581,1
15137,54.3,19.893,0,-0.038808,0,15219,54.207,13.889,-3.7068e-08,5.3087e-16,1.8925e-07,0.041581,1
15137,54.3,19.893,0,-0.038808,0,15219,54.207,13.889,-3.7068e-08,5.3087e-16,1.8925e-07,0.041581,1
15137,54.3,19.893,0,-0.038808,0,15219,54.207,13.889,-3.7068e-08,5.3087e-16,1.8925e-07,0.041581,1
15137,54.3,19.893,0,-0.038808,0,15219,54.207,13.889,-3.7068e-08,5.3087e-16,1.8925e-07,0.041581,1
15137,54.3,19.893,0,-0.038856,0,15219,54.207,13.889,-3.7068e-08,5.3087e-16,1.8925e-07,0.041784,1
15137,54.3,19.893,0,-0.038856,0,15219,54.207,13.889,-3.7068e-08,5.3087e-16,1.8925e-07,0.041784,1
15138,54.3,19.892,0,-0.038902,0,15219,54.207,13.889,-3.7068e-08,5.3087e-16,1.8925e-07,0.041988,1
15138,54.3,19.892,0,-0.038902,0,15219,54.207,13.889,-3.7068e-08,5.3087e-16,1.8925e-07,0.041988,1
15138,54.3,19.892,0,-0.038902,0,15219,54.207,13.889,-3.7068e-08,5.3087e-16,1.8925e-07,0.041988,1
15138,54.3,19.892,0,-0.038902,0,15219,54.207,13.889,-3.7068e-08,5.3087e-16,1.8925e-07,0.041988,1
15138,54.3,19.891,0,-0.038949,0,15219,54.207,13.889,-3.7068e-08,5.3087e-16,1.8925e-07,0.042195,1
15138,54.3,19.891,0,-0.038949,0,15219,54.207,13.889,-3.7068e-08,5.3087e-16,1.8925e-07,0.042195,1
15139,54.3,19.89,0,-0.039041,0,15221,54.207,13.889,-1.442e-08,1.257e-16,1.1232e-07,0.041464,1
15139,54.3,19.89,0,-0.039041,0,15222,54.207,13.889,-1.0473e-08,7.9786e-17,9.6853e-08,0.041186,1
15139,54.3,19.89,0,-0.039041,0,15222,54.207,13.889,-1.0473e-08,7.9786e-17,9.6853e-08,0.041186,1
15139,54.3,19.89,0,-0.039041,0,15222,54.207,13.889,-1.0473e-08,7.9786e-17,9.6853e-08,0.041186,1
15139,54.3,19.89,0,-0.039041,0,15222,54.207,13.889,-1.0473e-08,7.9786e-17,9.6853e-08,0.041186,1
15139,54.3,19.89,0,-0.039041,0,15222,54.207,13.889,-7.0945e-09,4.7242e-17,8.2818e-08,0.040912,1
15139,54.3,19.89,0,-0.039041,0,15222,54.207,13.889,-7.0945e-09,4.7242e-17,8.2818e-08,0.040912,1
15139,54.3,19.89,0,-0.039041,0,15222,54.207,13.889,-7.0945e-09,4.7242e-17,8.2818e-08,0.040912,1
15139,54.3,19.89,0,-0.039041,0,15222,54.207,13.889,-7.0945e-09,4.7242e-17,8.2818e-08,0.040912,1
15139,54.3,19.89,0,-0.039041,0,15222,54.207,13.889,-5.601e-09,3.4971e-17,7.6319e-08,0.040776,1
15139,54.3,19.89,0,-0.039041,0,15222,54.207,13.889,-5.601e-09,3.4971e-17,7.6319e-08,0.040776,1
15139,54.3,19.89,0,-0.039041,0,15222,54.207,13.889,-5.601e-09,3.4971e-17,7.6319e-08,0.040776,1
15139,54.3,19.89,0,-0.039041,0,15223,54.207,13.889,-4.2292e-09,2.4906e-17,7.0155e-08,0.040641,1
15139,54.3,19.89,0,-0.039041,0,15223,54.207,13.889,-4.2292e-09,2.4906e-17,7.0155e-08,0.040641,1
15142,54.3,19.884,0,-0.03936,0,15223,54.207,13.889,-2.9724e-09,1.6743e-17,6.4317e-08,0.041891,1
15142,54.3,19.883,0,-0.039452,0,15224,54.207,13.889,-7.7933e-10,5.0736e-18,5.3581e-08,0.042014,1
15142,54.3,19.883,0,-0.039452,0,15224,54.207,13.889,1.0262e-09,-1.8573e-18,4.4034e-08,0.041729,1
15143,54.3,19.881,0,-0.039544,0,15224,54.207,13.889,1.0262e-09,-1.8573e-18,4.4034e-08,0.042139,1
15143,54.3,19.881,0,-0.039544,0,15224,54.207,13.889,1.0262e-09,-1.8573e-18,4.4034e-08,0.042139,1
15143,54.3,19.881,0,-0.039544,0,15224,54.207,13.889,1.0262e-09,-1.8573e-18,4.4034e-08,0.042139,1
15143,54.3,19.881,0,-0.039544,0,15224,54.207,13.889,1.0262e-09,-1.8573e-18,4.4034e-08,0.042139,1
15143,54.3,19.881,0,-0.039544,0,15224,54.207,13.889,1.0262e-09,-1.8573e-18,4.4034e-08,0.042139,1
15143,54.3,19.881,0,-0.039544,0,15224,54.207,13.889,1.0262e-09,-1.8573e-18,4.4034e-08,0.042139,1
15143,54.3,19.881,0,-0.039544,0,15224,54.207,13.889,1.0262e-09,-1.8573e-18,4.4034e-08,0.042139,1
15143,54.3,19.881,0,-0.039544,0,15224,54.207,13.889,1.0262e-09,-1.8573e-18,4.4034e-08,0.042139,1
15143,54.3,19.881,0,-0.039544,0,15224,54.207,13.889,1.0262e-09,-1.8573e-18,4.4034e-08,0.042139,1
15143,54.3,19.881,0,-0.039544,0,15225,54.207,13.889,2.4888e-09,-5.4662e-18,3.5595e-08,0.041852,1
15143,54.3,19.881,0,-0.039544,0,15225,54.207,13.889,2.4888e-09,-5.4662e-18,3.5595e-08,0.041852,1
15143,54.3,19.881,0,-0.039544,0,15225,54.207,13.889,2.4888e-09,-5.4662e-18,3.5595e-08,0.041852,1
15143,54.3,19.881,0,-0.039544,0,15225,54.207,13.889,2.4888e-09,-5.4662e-18,3.5595e-08,0.041852,1
15143,54.3,19.881,0,-0.039544,0,15225,54.207,13.889,2.4888e-09,-5.4662e-18,3.5595e-08,0.041852,1
15143,54.3,19.881,0,-0.039544,0,15225,54.207,13.889,2.4888e-09,-5.4662e-18,3.5595e-08,0.041852,1
15143,54.3,19.881,0,-0.039544,0,15225,54.207,13.889,2.4888e-09,-5.4662e-18,3.5595e-08,0.041852,1
15143,54.3,19.881,0,-0.039544,0,15225,54.207,13.889,2.4888e-09,-5.4662e-18,3.5595e-08,0.041852,1
15144,54.3,19.879,0,-0.039634,0,15225,54.207,13.889,2.4888e-09,-5.4662e-18,3.5595e-08,0.042264,1
15144,54.3,19.879,0,-0.039634,0,15225,54.207,13.889,2.4888e-09,-5.4662e-18,3.5595e-08,0.042264,1
15144,54.3,19.879,0,-0.039634,0,15225,54.207,13.889,2.4888e-09,-5.4662e-18,3.5595e-08,0.042264,1
15144,54.3,19.879,0,-0.039634,0,15225,54.207,13.889,2.4888e-09,-5.4662e-18,3.5595e-08,0.042264,1
15144,54.3,19.879,0,-0.039679,0,15225,54.207,13.889,2.4888e-09,-5.4662e-18,3.5595e-08,0.042473,1
15146,54.3,19.876,0,-0.039814,0,15226,54.207,13.889,4.5483e-09,-6.7725e-18,2.1718e-08,0.042516,1
15146,54.3,19.876,0,-0.039814,0,15227,54.207,13.889,5.4781e-09,-5.2381e-18,1.3619e-08,0.042079,1
15146,54.3,19.876,0,-0.039814,0,15227,54.207,13.889,5.8651e-09,-3.8134e-18,9.1739e-09,0.041793,1
15146,54.3,19.876,0,-0.039814,0,15227,54.207,13.889,5.8651e-09,-3.8134e-18,9.1739e-09,0.041793,1
15148,54.3,19.871,0,-0.040076,0,15227,54.207,13.889,5.8651e-09,-3.8134e-18,9.1739e-09,0.04305,1
15148,54.3,19.871,0,-0.040118,0,15227,54.207,13.889,5.8651e-09,-3.8134e-18,9.1739e-09,0.043266,1
15148,54.3,19.871,0,-0.040118,0,15227,54.207,13.889,5.8651e-09,-3.8134e-18,9.1739e-09,0.043266,1
15148,54.3,19.871,0,-0.040118,0,15227,54.207,13.889,5.8651e-09,-3.8134e-18,9.1739e-09,0.043266,1
15148,54.3,19.871,0,-0.040118,0,15227,54.207,13.889,5.8651e-09,-3.8134e-18,9.1739e-09,0.043266,1
15148,54.3,19.871,0,-0.040118,0,15227,54.207,13.889,5.8651e-09,-3.8134e-18,9.1739e-09,0.043266,1
15148,54.3,19.871,0,-0.040118,0,15227,54.207,13.889,5.8651e-09,-3.8134e-18,9.1739e-09,0.043266,1
15148,54.3,19.871,0,-0.040118,0,15227,54.207,13.889,5.8651e-09,-3.8134e-18,9.1739e-09,0.043266,1
15148,54.3,19.871,0,-0.040118,0,15227,54.207,13.889,5.8651e-09,-3.8134e-18,9.1739e-09,0.043266,1
15148,54.3,19.871,0,-0.040118,0,15227,54.207,13.889,5.8651e-09,-3.8134e-18,9.1739e-09,0.043266,1
15148,54.3,19.871,0,-0.040118,0,15227,54.207,13.889,5.8651e-09,-3.8134e-18,9.1739e-09,0.043266,1
15148,54.3,19.871,0,-0.040118,0,15228,54.207,13.889,6.202e-09,-9.9959e-19,2.2466e-09,0.042666,1
15148,54.3,19.871,0,-0.040118,0,15228,54.207,13.889,6.202e-09,-9.9959e-19,2.2466e-09,0.042666,1
15148,54.3,19.871,0,-0.040118,0,15228,54.207,13.889,6.202e-09,-9.9959e-19,2.2466e-09,0.042666,1
15149,54.3,19.869,0,-0.040206,0,15228,54.207,13.889,6.202e-09,-9.9959e-19,2.2466e-09,0.043094,1
15149,54.3,19.869,0,-0.040206,0,15228,54.207,13.889,6.202e-09,-9.9959e-19,2.2466e-09,0.043094,1
15149,54.3,19.869,0,-0.040206,0,15228,54.207,13.889,6.202e-09,-9.9959e-19,2.2466e-09,0.043094,1
15149,54.3,19.869,0,-0.040206,0,15228,54.207,13.889,6.202e-09,-9.9959e-19,2.2466e-09,0.043094,1
15149,54.3,19.869,0,-0.040206,0,15228,54.207,13.889,6.202e-09,-9.9959e-19,2.2466e-09,0.043094,1
15149,54.3,19.869,0,-0.040206,0,15228,54.207,13.889,6.202e-09,-9.9959e-19,2.2466e-09,0.043094,1
15149,54.3,19.869,0,-0.040206,0,15228,54.207,13.889,6.202e-09,-9.9959e-19,2.2466e-09,0.043094,1
15149,54.3,19.869,0,-0.040206,0,15228,54.207,13.889,6.202e-09,-9.9959e-19,2.2466e-09,0.043094,1
15149,54.3,19.869,0,-0.040206,0,15228,54.207,13.889,6.202e-09,-9.9959e-19,2.2466e-09,0.043094,1
15150,54.3,19.867,0,-0.040335,0,15229,54.207,13.889,6.1987e-09,1.6551e-19,-3.7062e-10,0.043443,1
15151,54.3,19.864,0,-0.040463,0,15230,54.207,13.889,5.9462e-09,1.8191e-18,-4.2189e-09,0.043487,1
15153,54.3,19.862,0,-0.040588,0,15231,54.207,13.889,5.7295e-09,2.3158e-18,-5.5598e-09,0.043843,1
15153,54.3,19.862,0,-0.040588,0,15231,54.207,13.889,5.7295e-09,2.3158e-18,-5.5598e-09,0.043843,1
15153,54.3,19.862,0,-0.040588,0,15232,54.207,13.889,5.1807e-09,2.7678e-18,-7.3169e-09,0.043226,1
15153,54.3,19.862,0,-0.040588,0,15232,54.207,13.889,5.1807e-09,2.7678e-18,-7.3169e-09,0.043226,1
15153,54.3,19.862,0,-0.040588,0,15232,54.207,13.889,5.0274e-09,2.7906e-18,-7.5946e-09,0.043074,1
15153,54.3,19.862,0,-0.040588,0,15232,54.207,13.889,5.0274e-09,2.7906e-18,-7.5946e-09,0.043074,1
15153,54.3,19.862,0,-0.040588,0,15232,54.207,13.889,5.0274e-09,2.7906e-18,-7.5946e-09,0.043074,1
15153,54.3,19.862,0,-0.040588,0,15232,54.207,13.889,5.0274e-09,2.7906e-18,-7.5946e-09,0.043074,1
15153,54.3,19.862,0,-0.040588,0,15232,54.207,13.889,5.0274e-09,2.7906e-18,-7.5946e-09,0.043074,1
15153,54.3,19.862,0,-0.040588,0,15232,54.207,13.889,5.0274e-09,2.7906e-18,-7.5946e-09,0.043074,1
15153,54.3,19.862,0,-0.040588,0,15232,54.207,13.889,5.0274e-09,2.7906e-18,-7.5946e-09,0.043074,1
15153,54.3,19.862,0,-0.040588,0,15232,54.207,13.889,5.0274e-09,2.7906e-18,-7.5946e-09,0.043074,1
15153,54.3,19.862,0,-0.040588,0,15232,54.207,13.889,5.0274e-09,2.7906e-18,-7.5946e-09,0.043074,1
15154,54.3,19.858,0,-0.040756,0,15232,54.207,13.889,5.0274e-09,2.7906e-18,-7.5946e-09,0.043955,1
15154,54.3,19.858,0,-0.040756,0,15232,54.207,13.889,5.0274e-09,2.7906e-18,-7.5946e-09,0.043955,1
15154,54.3,19.858,0,-0.040756,0,15232,54.207,13.889,5.0274e-09,2.7906e-18,-7.5946e-09,0.043955,1
15154,54.3,19.858,0,-0.040756,0,15232,54.207,13.889,5.0274e-09,2.7906e-18,-7.5946e-09,0.043955,1
15154,54.3,19.858,0,-0.040756,0,15232,54.207,13.889,5.0274e-09,2.7906e-18,-7.5946e-09,0.043955,1
15154,54.3,19.858,0,-0.040756,0,15232,54.207,13.889,5.0274e-09,2.7906e-18,-7.5946e-09,0.043955,1
15154,54.3,19.858,0,-0.040756,0,15232,54.207,13.889,5.0274e-09,2.7906e-18,-7.5946e-09,0.043955,1
15154,54.3,19.858,0,-0.040756,0,15232,54.207,13.889,5.0274e-09,2.7906e-18,-7.5946e-09,0.043955,1
15154,54.3,19.858,0,-0.040756,0,15232,54.207,13.889,5.0274e-09,2.7906e-18,-7.5946e-09,0.043955,1
15154,54.3,19.858,0,-0.040756,0,15232,54.207,13.889,5.0274e-09,2.7906e-18,-7.5946e-09,0.043955,1
15154,54.3,19.858,0,-0.040756,0,15232,54.207,13.889,4.7091e-09,2.7549e-18,-7.9897e-09,0.043643,1
15154,54.3,19.858,0,-0.040756,0,15232,54.207,13.889,4.7091e-09,2.7549e-18,-7.9897e-09,0.043643,1
15154,54.3,19.858,0,-0.040756,0,15232,54.207,13.889,4.7091e-09,2.7549e-18,-7.9897e-09,0.043643,1
15154,54.3,19.858,0,-0.040756,0,15232,54.207,13.889,4.7091e-09,2.7549e-18,-7.9897e-09,0.043643,1
15154,54.3,19.858,0,-0.040756,0,15232,54.207,13.889,4.7091e-09,2.7549e-18,-7.9897e-09,0.043643,1
15154,54.3,19.858,0,-0.040756,0,15232,54.207,13.889,4.7091e-09,2.7549e-18,-7.9897e-09,0.043643,1
15155,54.3,19.857,0,-0.040839,0,15232,54.207,13.889,4.7091e-09,2.7549e-18,-7.9897e-09,0.044091,1
15155,54.3,19.857,0,-0.040839,0,15234,54.207,13.889,3.8868e-09,2.3525e-18,-8.2319e-09,0.043314,1
15155,54.3,19.857,0,-0.040839,0,15234,54.207,13.889,3.8868e-09,2.3525e-18,-8.2319e-09,0.043314,1
15155,54.3,19.857,0,-0.040839,0,15234,54.207,13.889,3.8868e-09,2.3525e-18,-8.2319e-09,0.043314,1
15155,54.3,19.857,0,-0.040839,0,15234,54.207,13.889,3.8868e-09,2.3525e-18,-8.2319e-09,0.043314,1
15155,54.3,19.857,0,-0.040839,0,15234,54.207,13.889,3.8868e-09,2.3525e-18,-8.2319e-09,0.043314,1
15159,54.3,19.849,0,-0.041205,0,15235,54.207,13.889,3.402e-09,2.0069e-18,-8.005e-09,0.044874,1
15159,54.3,19.849,0,-0.041205,0,15235,54.207,13.889,3.402e-09,2.0069e-18,-8.005e-09,0.044874,1
15159,54.3,19.849,0,-0.041205,0,15235,54.207,13.889,3.402e-09,2.0069e-18,-8.005e-09,0.044874,1
15159,54.3,19.849,0,-0.041205,0,15235,54.207,13.889,3.402e-09,2.0069e-18,-8.005e-09,0.044874,1
15159,54.3,19.849,0,-0.041205,0,15236,54.207,13.889,2.6478e-09,1.4192e-18,-7.2461e-09,0.04407,1
15159,54.3,19.849,0,-0.041205,0,15236,54.207,13.889,2.6478e-09,1.4192e-18,-7.2461e-09,0.04407,1
15159,54.3,19.849,0,-0.041205,0,15236,54.207,13.889,2.6478e-09,1.4192e-18,-7.2461e-09,0.04407,1
15159,54.3,19.849,0,-0.041205,0,15236,54.207,13.889,2.6478e-09,1.4192e-18,-7.2461e-09,0.04407,1
15159,54.3,19.849,0,-0.041205,0,15236,54.207,13.889,2.6478e-09,1.4192e-18,-7.2461e-09,0.04407,1
15160,54.3,19.846,0,-0.041366,0,15236,54.207,13.889,2.6478e-09,1.4192e-18,-7.2461e-09,0.044992,1
15160,54.3,19.846,0,-0.041366,0,15236,54.207,13.889,2.6478e-09,1.4192e-18,-7.2461e-09,0.044992,1
15160,54.3,19.846,0,-0.041366,0,15236,54.207,13.889,2.6478e-09,1.4192e-18,-7.2461e-09,0.044992,1
15160,54.3,19.846,0,-0.041366,0,15237,54.207,13.889,2.2393e-09,1.1048e-18,-6.6544e-09,0.044503,1
15160,54.3,19.846,0,-0.041366,0,15237,54.207,13.889,2.2393e-09,1.1048e-18,-6.6544e-09,0.044503,1
15160,54.3,19.846,0,-0.041366,0,15237,54.207,13.889,2.2393e-09,1.1048e-18,-6.6544e-09,0.044503,1
15160,54.3,19.846,0,-0.041366,0,15237,54.207,13.889,2.2393e-09,1.1048e-18,-6.6544e-09,0.044503,1
15160,54.3,19.846,0,-0.041366,0,15237,54.207,13.889,2.2393e-09,1.1048e-18,-6.6544e-09,0.044503,1
15161,54.3,19.844,0,-0.041484,0,15237,54.207,13.889,2.2393e-09,1.1048e-18,-6.6544e-09,0.045205,1
15161,54.3,19.844,0,-0.041484,0,15237,54.207,13.889,1.9879e-09,9.1974e-19,-6.2306e-09,0.044874,1
15163,54.3,19.841,0,-0.041603,0,15237,54.207,13.889,1.9879e-09,9.1974e-19,-6.2306e-09,0.045588,1
15163,54.3,19.841,0,-0.041603,0,15237,54.207,13.889,1.9879e-09,9.1974e-19,-6.2306e-09,0.045588,1
15163,54.3,19.841,0,-0.041603,0,15238,54.207,13.889,1.6435e-09,6.8215e-19,-5.5755e-09,0.045086,1
15163,54.3,19.839,0,-0.04168,0,15238,54.207,13.889,1.6435e-09,6.8215e-19,-5.5755e-09,0.045564,1
15163,54.3,19.839,0,-0.04168,0,15238,54.207,13.889,1.6435e-09,6.8215e-19,-5.5755e-09,0.045564,1
15163,54.3,19.839,0,-0.04168,0,15239,54.207,13.889,1.3385e-09,4.9165e-19,-4.9208e-09,0.045063,1
15165,54.3,19.837,0,-0.041797,0,15239,54.207,13.889,1.3385e-09,4.9165e-19,-4.9208e-09,0.045782,1
15165,54.3,19.837,0,-0.041797,0,15239,54.207,13.889,1.3385e-09,4.9165e-19,-4.9208e-09,0.045782,1
15165,54.3,19.837,0,-0.041797,0,15239,54.207,13.889,1.3385e-09,4.9165e-19,-4.9208e-09,0.045782,1
15165,54.3,19.837,0,-0.041797,0,15239,54.207,13.889,1.3385e-09,4.9165e-19,-4.9208e-09,0.045782,1
15165,54.3,19.837,0,-0.041797,0,15239,54.207,13.889,1.3385e-09,4.9165e-19,-4.9208e-09,0.045782,1
15165,54.3,19.837,0,-0.041797,0,15240,54.207,13.889,1.1566e-09,3.8883e-19,-4.4945e-09,0.045443,1
15165,54.3,19.835,0,-0.041873,0,15240,54.207,13.889,1.1566e-09,3.8883e-19,-4.4945e-09,0.045928,1
15165,54.3,19.835,0,-0.041873,0,15240,54.207,13.889,1.1566e-09,3.8883e-19,-4.4945e-09,0.045928,1
15166,54.3,19.834,0,-0.041913,0,15240,54.207,13.889,1.1566e-09,3.8883e-19,-4.4945e-09,0.046175,1
15166,54.3,19.834,0,-0.041913,0,15240,54.207,13.889,1.1566e-09,3.8883e-19,-4.4945e-09,0.046175,1
15166,54.3,19.834,0,-0.041913,0,15240,54.207,13.889,1.1566e-09,3.8883e-19,-4.4945e-09,0.046175,1
15166,54.3,19.834,0,-0.041913,0,15240,54.207,13.889,1.1566e-09,3.8883e-19,-4.4945e-09,0.046175,1
15166,54.3,19.834,0,-0.041913,0,15240,54.207,13.889,1.1566e-09,3.8883e-19,-4.4945e-09,0.046175,1
15166,54.3,19.834,0,-0.041913,0,15240,54.207,13.889,1.1566e-09,3.8883e-19,-4.4945e-09,0.046175,1
15167,54.3,19.832,0,-0.042026,0,15241,54.207,13.889,9.1471e-10,2.6648e-19,-3.8815e-09,0.046398,1
15167,54.3,19.832,0,-0.042026,0,15241,54.207,13.889,9.1471e-10,2.6648e-19,-3.8815e-09,0.046398,1
15167,54.3,19.832,0,-0.042026,0,15241,54.207,13.889,9.1471e-10,2.6648e-19,-3.8815e-09,0.046398,1
15167,54.3,19.832,0,-0.042026,0,15241,54.207,13.889,9.1471e-10,2.6648e-19,-3.8815e-09,0.046398,1
15167,54.3,19.832,0,-0.042026,0,15241,54.207,13.889,9.1471e-10,2.6648e-19,-3.8815e-09,0.046398,1
15167,54.3,19.832,0,-0.042026,0,15241,54.207,13.889,9.1471e-10,2.6648e-19,-3.8815e-09,0.046398,1
15167,54.3,19.832,0,-0.042026,0,15241,54.207,13.889,9.1471e-10,2.6648e-19,-3.8815e-09,0.046398,1
15167,54.3,19.832,0,-0.042026,0,15241,54.207,13.889,9.1471e-10,2.6648e-19,-3.8815e-09,0.046398,1
15167,54.3,19.832,0,-0.042026,0,15241,54.207,13.889,7.0779e-10,1.7653e-19,-3.3093e-09,0.045879,1
15167,54.3,19.832,0,-0.042026,0,15241,54.207,13.889,7.0779e-10,1.7653e-19,-3.3093e-09,0.045879,1
15169,54.3,19.829,0,-0.042178,0,15242,54.207,13.889,6.4611e-10,1.5261e-19,-3.129e-09,0.0467,1
15169,54.3,19.829,0,-0.042178,0,15242,54.207,13.889,6.4611e-10,1.5261e-19,-3.129e-09,0.0467,1
15169,54.3,19.829,0,-0.042178,0,15242,54.207,13.889,6.4611e-10,1.5261e-19,-3.129e-09,0.0467,1
15169,54.3,19.829,0,-0.042178,0,15242,54.207,13.889,6.4611e-10,1.5261e-19,-3.129e-09,0.0467,1
15169,54.3,19.828,0,-0.042214,0,15242,54.207,13.889,6.4611e-10,1.5261e-19,-3.129e-09,0.046955,1
15169,54.3,19.828,0,-0.042214,0,15242,54.207,13.889,6.4611e-10,1.5261e-19,-3.129e-09,0.046955,1
15169,54.3,19.828,0,-0.042214,0,15243,54.207,13.889,3.4492e-10,5.717e-20,-2.166e-09,0.045903,1
15169,54.3,19.828,0,-0.042214,0,15243,54.207,13.889,3.4492e-10,5.717e-20,-2.166e-09,0.045903,1
15169,54.3,19.828,0,-0.042214,0,15244,54.207,13.889,3.0511e-10,4.7459e-20,-2.0259e-09,0.045732,1
15169,54.3,19.828,0,-0.042214,0,15244,54.207,13.889,3.0511e-10,4.7459e-20,-2.0259e-09,0.045732,1
15169,54.3,19.828,0,-0.042214,0,15244,54.207,13.889,3.0511e-10,4.7459e-20,-2.0259e-09,0.045732,1
15169,54.3,19.828,0,-0.042214,0,15244,54.207,13.889,3.0511e-10,4.7459e-20,-2.0259e-09,0.045732,1
15169,54.3,19.828,0,-0.042214,0,15244,54.207,13.889,3.0511e-10,4.7459e-20,-2.0259e-09,0.045732,1
15169,54.3,19.828,0,-0.042214,0,15244,54.207,13.889,3.0511e-10,4.7459e-20,-2.0259e-09,0.045732,1
15171,54.3,19.824,0,-0.042399,0,15244,54.207,13.889,3.0511e-10,4.7459e-20,-2.0259e-09,0.046979,1
15172,54.3,19.822,0,-0.042473,0,15244,54.207,13.889,2.3336e-10,3.1857e-20,-1.7629e-09,0.047133,1
15172,54.3,19.822,0,-0.042473,0,15244,54.207,13.889,2.3336e-10,3.1857e-20,-1.7629e-09,0.047133,1
15172,54.3,19.821,0,-0.042509,0,15244,54.207,13.889,2.3336e-10,3.1857e-20,-1.7629e-09,0.047393,1
15172,54.3,19.821,0,-0.042509,0,15244,54.207,13.889,2.3336e-10,3.1857e-20,-1.7629e-09,0.047393,1
15172,54.3,19.821,0,-0.042509,0,15244,54.207,13.889,2.3336e-10,3.1857e-20,-1.7629e-09,0.047393,1
15172,54.3,19.821,0,-0.042509,0,15244,54.207,13.889,2.3336e-10,3.1857e-20,-1.7629e-09,0.047393,1
15173,54.3,19.818,0,-0.042616,0,15244,54.207,13.889,2.3336e-10,3.1857e-20,-1.7629e-09,0.048188,1
15173,54.3,19.818,0,-0.042616,0,15244,54.207,13.889,2.3336e-10,3.1857e-20,-1.7629e-09,0.048188,1
15173,54.3,19.818,0,-0.042616,0,15244,54.207,13.889,2.3336e-10,3.1857e-20,-1.7629e-09,0.048188,1
15174,54.3,19.818,0,-0.042652,0,15244,54.207,13.889,2.3336e-10,3.1857e-20,-1.7629e-09,0.048459,1
15174,54.3,19.818,0,-0.042652,0,15244,54.207,13.889,2.3336e-10,3.1857e-20,-1.7629e-09,0.048459,1
15174,54.3,19.818,0,-0.042652,0,15244,54.207,13.889,2.3336e-10,3.1857e-20,-1.7629e-09,0.048459,1
15174,54.3,19.818,0,-0.042652,0,15244,54.207,13.889,2.3336e-10,3.1857e-20,-1.7629e-09,0.048459,1
15174,54.3,19.818,0,-0.042652,0,15244,54.207,13.889,2.3336e-10,3.1857e-20,-1.7629e-09,0.048459,1
15174,54.3,19.818,0,-0.042652,0,15246,54.207,13.889,5.3061e-11,4.6255e-21,-1.0162e-09,0.047158,1
15174,54.3,19.816,0,-0.042723,0,15246,54.207,13.889,5.3061e-11,4.6255e-21,-1.0162e-09,0.04768,1
15174,54.3,19.816,0,-0.042723,0,15246,54.207,13.889,5.3061e-11,4.6255e-21,-1.0162e-09,0.04768,1
15175,54.3,19.814,0,-0.042795,0,15247,54.207,13.889,1.8334e-11,1.6389e-21,-8.4869e-10,0.047838,1
15175,54.3,19.814,0,-0.042795,0,15247,54.207,13.889,1.8334e-11,1.6389e-21,-8.4869e-10,0.047838,1
15176,54.3,19.813,0,-0.044694,0,15247,54.207,13.889,1.8334e-11,1.6389e-21,-8.4869e-10,0.048105,1
15176,54.3,19.813,0,-0.044694,0,15248,54.207,13.889,-3.3658e-11,-1.1437e-21,-5.6769e-10,0.047364,1
15176,54.3,19.813,0,-0.044694,0,15248,54.207,13.889,-3.3658e-11,-1.1437e-21,-5.6769e-10,0.047364,1
15176,54.3,19.813,0,-0.044694,0,15248,54.207,13.889,-3.3658e-11,-1.1437e-21,-5.6769e-10,0.047364,1
15176,54.3,19.813,0,-0.044694,0,15248,54.207,13.889,-3.3658e-11,-1.1437e-21,-5.6769e-10,0.047364,1
15176,54.3,19.813,0,-0.044694,0,15248,54.207,13.889,-3.3658e-11,-1.1437e-21,-5.6769e-10,0.047364,1
15176,54.3,19.813,0,-0.044694,0,15248,54.207,13.889,-3.3658e-11,-1.1437e-21,-5.6769e-10,0.047364,1
15177,54.3,19.81,0,-0.057949,0,15248,54.207,13.889,-3.3658e-11,-1.1437e-21,-5.6769e-10,0.048158,1
15177,54.3,19.81,0,-0.057949,0,15248,54.207,13.889,-3.3658e-11,-1.1437e-21,-5.6769e-10,0.048158,1
15177,54.3,19.81,0,-0.057949,0,15248,54.207,13.889,-3.3658e-11,-1.1437e-21,-5.6769e-10,0.048158,1
15177,54.3,19.81,0,-0.057949,0,15248,54.207,13.889,-3.3658e-11,-1.1437e-21,-5.6769e-10,0.048158,1
15177,54.3,19.81,0,-0.057949,0,15248,54.207,13.889,-3.3658e-11,-1.1437e-21,-5.6769e-10,0.048158,1
15177,54.3,19.81,0,-0.057949,0,15248,54.207,13.889,-3.3658e-11,-1.1437e-21,-5.6769e-10,0.048158,1
15177,54.3,19.81,0,-0.057949,0,15248,54.207,13.889,-3.3658e-11,-1.1437e-21,-5.6769e-10,0.048158,1
15177,54.3,19.809,0,-0.062221,0,15248,54.207,13.889,-3.3658e-11,-1.1437e-21,-5.6769e-10,0.048428,1
15177,54.3,19.809,0,-0.062221,0,15248,54.207,13.889,-3.3658e-11,-1.1437e-21,-5.6769e-10,0.048428,1
15178,54.3,19.808,0,-0.066381,0,15248,54.207,13.889,-3.3658e-11,-1.1437e-21,-5.6769e-10,0.048702,1
15178,54.3,19.808,0,-0.066381,0,15248,54.207,13.889,-3.3658e-11,-1.1437e-21,-5.6769e-10,0.048702,1
15178,54.3,19.808,0,-0.066381,0,15248,54.207,13.889,-3.3658e-11,-1.1437e-21,-5.6769e-10,0.048702,1
15178,54.3,19.808,0,-0.066381,0,15248,54.207,13.889,-3.3658e-11,-1.1437e-21,-5.6769e-10,0.048702,1
15179,54.3,19.803,0,-0.078244,0,15248,54.207,13.889,-3.3658e-11,-1.1437e-21,-5.6769e-10,0.049542,1
15179,54.3,19.803,0,-0.078244,0,15248,54.207,13.889,-3.3658e-11,-1.1437e-21,-5.6769e-10,0.049542,1
15179,54.3,19.802,0,-0.082003,0,15248,54.207,13.889,-3.3658e-11,-1.1437e-21,-5.6769e-10,0.049828,1
15180,54.3,19.797,0,-0.092731,0,15250,54.207,13.889,-8.8316e-11,-9.564e-22,-1.5306e-10,0.048892,1
15180,54.3,19.797,0,-0.092731,0,15250,54.207,13.889,-8.8316e-11,-9.564e-22,-1.5306e-10,0.048892,1
15181,54.3,19.795,0,-0.096136,0,15250,54.207,13.889,-8.8316e-11,-9.564e-22,-1.5306e-10,0.049171,1
15181,54.3,19.795,0,-0.096136,0,15251,54.207,13.889,-9.3542e-11,-4.5103e-22,-6.7455e-11,0.048588,1
15182,54.3,19.791,0,-0.10271,0,15251,54.207,13.889,-9.3542e-11,-4.5103e-22,-6.7455e-11,0.049141,1
15182,54.3,19.791,0,-0.10271,0,15252,54.207,13.889,-9.4615e-11,-1.482e-22,-2.1805e-11,0.048751,1
15182,54.3,19.791,0,-0.10271,0,15252,54.207,13.889,-9.4615e-11,-1.482e-22,-2.1805e-11,0.048751,1
15182,54.3,19.791,0,-0.10271,0,15252,54.207,13.889,-9.4615e-11,-1.482e-22,-2.1805e-11,0.048751,1
15182,54.3,19.791,0,-0.10271,0,15252,54.207,13.889,-9.4615e-11,-1.482e-22,-2.1805e-11,0.048751,1
15182,54.3,19.791,0,-0.10271,0,15252,54.207,13.889,-9.4615e-11,-1.482e-22,-2.1805e-11,0.048751,1
15182,54.3,19.791,0,-0.10271,0,15252,54.207,13.889,-9.4615e-11,-1.482e-22,-2.1805e-11,0.048751,1
15182,54.3,19.791,0,-0.10271,0,15252,54.207,13.889,-9.4615e-11,-1.482e-22,-2.1805e-11,0.048751,1
15182,54.3,19.791,0,-0.10271,0,15252,54.207,13.889,-9.4555e-11,-1.3894e-23,-2.0413e-12,0.048559,1
15182,54.3,19.791,0,-0.10271,0,15252,54.207,13.889,-9.4555e-11,-1.3894e-23,-2.0413e-12,0.048559,1
15182,54.3,19.791,0,-0.10271,0,15252,54.207,13.889,-9.4555e-11,-1.3894e-23,-2.0413e-12,0.048559,1
15182,54.3,19.791,0,-0.10271,0,15252,54.207,13.889,-9.4555e-11,-1.3894e-23,-2.0413e-12,0.048559,1
15182,54.3,19.791,0,-0.10271,0,15252,54.207,13.889,-9.4555e-11,-1.3894e-23,-2.0413e-12,0.048559,1
15182,54.3,19.791,0,-0.10271,0,15252,54.207,13.889,-9.4555e-11,-1.3894e-23,-2.0413e-12,0.048559,1
15182,54.3,19.791,0,-0.10271,0,15252,54.207,13.889,-9.4555e-11,-1.3894e-23,-2.0413e-12,0.048559,1
15182,54.3,19.791,0,-0.10271,0,15252,54.207,13.889,-9.4147e-11,1.0728e-22,1.58e-11,0.048368,1
15182,54.3,19.791,0,-0.10271,0,15252,54.207,13.889,-9.4147e-11,1.0728e-22,1.58e-11,0.048368,1
15182,54.3,19.791,0,-0.10271,0,15252,54.207,13.889,-9.4147e-11,1.0728e-22,1.58e-11,0.048368,1
15182,54.3,19.791,0,-0.10271,0,15252,54.207,13.889,-9.4147e-11,1.0728e-22,1.58e-11,0.048368,1
15182,54.3,19.791,0,-0.10271,0,15252,54.207,13.889,-9.4147e-11,1.0728e-22,1.58e-11,0.048368,1
15182,54.3,19.791,0,-0.10271,0,15252,54.207,13.889,-9.4147e-11,1.0728e-22,1.58e-11,0.048368,1
15182,54.3,19.791,0,-0.10271,0,15252,54.207,13.889,-9.4147e-11,1.0728e-22,1.58e-11,0.048368,1
15184,54.3,19.777,0,-0.12068,0,15252,54.207,13.889,-9.3425e-11,2.1575e-22,3.1965e-11,0.049848,1
15186,54.3,19.767,0,-0.1314,0,15253,54.207,13.889,-8.9698e-11,4.6012e-22,7.0688e-11,0.050399,1
15186,54.3,19.767,0,-0.1314,0,15253,54.207,13.889,-8.9698e-11,4.6012e-22,7.0688e-11,0.050399,1
15186,54.3,19.764,0,-0.13394,0,15253,54.207,13.889,-8.9698e-11,4.6012e-22,7.0688e-11,0.050695,1
15186,54.3,19.764,0,-0.13394,0,15253,54.207,13.889,-8.9698e-11,4.6012e-22,7.0688e-11,0.050695,1
15186,54.3,19.764,0,-0.13394,0,15255,54.207,13.889,-7.5195e-11,6.4777e-22,1.178e-10,0.049272,1
15186,54.3,19.764,0,-0.13394,0,15255,54.207,13.889,-7.5195e-11,6.4777e-22,1.178e-10,0.049272,1
15186,54.3,19.764,0,-0.13394,0,15255,54.207,13.889,-7.5195e-11,6.4777e-22,1.178e-10,0.049272,1
15186,54.3,19.764,0,-0.13394,0,15255,54.207,13.889,-7.5195e-11,6.4777e-22,1.178e-10,0.049272,1
15186,54.3,19.764,0,-0.13394,0,15255,54.207,13.889,-7.5195e-11,6.4777e-22,1.178e-10,0.049272,1
15186,54.3,19.764,0,-0.13394,0,15255,54.207,13.889,-7.5195e-11,6.4777e-22,1.178e-10,0.049272,1
15186,54.3,19.764,0,-0.13394,0,15255,54.207,13.889,-7.5195e-11,6.4777e-22,1.178e-10,0.049272,1
15186,54.3,19.764,0,-0.13394,0,15255,54.207,13.889,-7.5195e-11,6.4777e-22,1.178e-10,0.049272,1
15186,54.3,19.764,0,-0.13394,0,15255,54.207,13.889,-7.5195e-11,6.4777e-22,1.178e-10,0.049272,1
15188,54.3,19.753,0,-0.14362,0,15255,54.207,13.889,-7.5195e-11,6.4777e-22,1.178e-10,0.050422,1
15188,54.3,19.753,0,-0.14362,0,15255,54.207,13.889,-7.5195e-11,6.4777e-22,1.178e-10,0.050422,1
15188,54.3,19.753,0,-0.14362,0,15255,54.207,13.889,-7.5195e-11,6.4777e-22,1.178e-10,0.050422,1
15188,54.3,19.753,0,-0.14362,0,15255,54.207,13.889,-7.5195e-11,6.4777e-22,1.178e-10,0.050422,1
15188,54.3,19.753,0,-0.14362,0,15255,54.207,13.889,-7.5195e-11,6.4777e-22,1.178e-10,0.050422,1
15188,54.3,19.753,0,-0.14362,0,15255,54.207,13.889,-7.5195e-11,6.4777e-22,1.178e-10,0.050422,1
15188,54.3,19.753,0,-0.14362,0,15255,54.207,13.889,-7.5195e-11,6.4777e-22,1.178e-10,0.050422,1
15188,54.3,19.753,0,-0.14362,0,15255,54.207,13.889,-7.5195e-11,6.4777e-22,1.178e-10,0.050422,1
15188,54.3,19.753,0,-0.14362,0,15255,54.207,13.889,-7.5195e-11,6.4777e-22,1.178e-10,0.050422,1
15188,54.3,19.753,0,-0.14362,0,15255,54.207,13.889,-7.5195e-11,6.4777e-22,1.178e-10,0.050422,1
15188,54.3,19.753,0,-0.14362,0,15256,54.207,13.889,-7.0293e-11,6.3319e-22,1.2296e-10,0.050012,1
15188,54.3,19.753,0,-0.14362,0,15256,54.207,13.889,-7.0293e-11,6.3319e-22,1.2296e-10,0.050012,1
15188,54.3,19.753,0,-0.14362,0,15256,54.207,13.889,-7.0293e-11,6.3319e-22,1.2296e-10,0.050012,1
15188,54.3,19.753,0,-0.14362,0,15256,54.207,13.889,-7.0293e-11,6.3319e-22,1.2296e-10,0.050012,1
15190,54.3,19.738,0,-0.16247,0,15256,54.207,13.889,-6.7796e-11,6.1859e-22,1.2444e-10,0.051287,1
15190,54.3,19.738,0,-0.16247,0,15257,54.207,13.889,-5.7757e-11,5.3101e-22,1.2499e-10,0.050445,1
15191,54.3,19.724,0,-0.17729,0,15257,54.207,13.889,-5.7757e-11,5.3101e-22,1.2499e-10,0.051649,1
15192,54.3,19.714,0,-0.18807,0,15259,54.207,13.889,-4.5732e-11,3.9407e-22,1.167e-10,0.051489,1
15192,54.3,19.714,0,-0.18807,0,15259,54.207,13.889,-4.1241e-11,3.4027e-22,1.1158e-10,0.051061,1
15192,54.3,19.714,0,-0.18807,0,15259,54.207,13.889,-4.1241e-11,3.4027e-22,1.1158e-10,0.051061,1
15192,54.3,19.714,0,-0.18807,0,15259,54.207,13.889,-4.1241e-11,3.4027e-22,1.1158e-10,0.051061,1
15192,54.3,19.714,0,-0.18807,0,15259,54.207,13.889,-4.1241e-11,3.4027e-22,1.1158e-10,0.051061,1
15192,54.3,19.714,0,-0.18807,0,15259,54.207,13.889,-4.1241e-11,3.4027e-22,1.1158e-10,0.051061,1
15192,54.3,19.714,0,-0.18807,0,15259,54.207,13.889,-4.1241e-11,3.4027e-22,1.1158e-10,0.051061,1
15192,54.3,19.714,0,-0.18807,0,15259,54.207,13.889,-4.1241e-11,3.4027e-22,1.1158e-10,0.051061,1
15193,54.3,19.706,0,-0.1951,0,15259,54.207,13.889,-4.1241e-11,3.4027e-22,1.1158e-10,0.05167,1
15193,54.3,19.706,0,-0.1951,0,15259,54.207,13.889,-4.1241e-11,3.4027e-22,1.1158e-10,0.05167,1
15193,54.3,19.706,0,-0.1951,0,15259,54.207,13.889,-4.1241e-11,3.4027e-22,1.1158e-10,0.05167,1
15193,54.3,19.706,0,-0.1951,0,15259,54.207,13.889,-4.1241e-11,3.4027e-22,1.1158e-10,0.05167,1
15193,54.3,19.706,0,-0.1951,0,15259,54.207,13.889,-4.1241e-11,3.4027e-22,1.1158e-10,0.05167,1
15193,54.3,19.706,0,-0.1951,0,15259,54.207,13.889,-4.1241e-11,3.4027e-22,1.1158e-10,0.05167,1
15193,54.3,19.706,0,-0.1951,0,15259,54.207,13.889,-4.1241e-11,3.4027e-22,1.1158e-10,0.05167,1
15193,54.3,19.706,0,-0.1951,0,15259,54.207,13.889,-4.1241e-11,3.4027e-22,1.1158e-10,0.05167,1
15193,54.3,19.706,0,-0.1951,0,15259,54.207,13.889,-4.1241e-11,3.4027e-22,1.1158e-10,0.05167,1
15193,54.3,19.706,0,-0.1951,0,15259,54.207,13.889,-4.1241e-11,3.4027e-22,1.1158e-10,0.05167,1
15193,54.3,19.706,0,-0.1951,0,15259,54.207,13.889,-4.1241e-11,3.4027e-22,1.1158e-10,0.05167,1
15193,54.3,19.706,0,-0.1951,0,15260,54.207,13.889,-3.6976e-11,2.8996e-22,1.0588e-10,0.05124,1
15193,54.3,19.706,0,-0.1951,0,15260,54.207,13.889,-3.6976e-11,2.8996e-22,1.0588e-10,0.05124,1
15193,54.3,19.706,0,-0.1951,0,15260,54.207,13.889,-3.6976e-11,2.8996e-22,1.0588e-10,0.05124,1
15193,54.3,19.706,0,-0.1951,0,15260,54.207,13.889,-3.6976e-11,2.8996e-22,1.0588e-10,0.05124,1
15194,54.3,19.698,0,-0.202,0,15260,54.207,13.889,-3.6976e-11,2.8996e-22,1.0588e-10,0.051853,1
15194,54.3,19.698,0,-0.202,0,15261,54.207,13.889,-3.105e-11,2.22e-22,9.6317e-11,0.051205,1
15195,54.3,19.685,0,-0.21214,0,15261,54.207,13.889,-3.105e-11,2.22e-22,9.6317e-11,0.052128,1
15197,54.3,19.663,0,-0.22845,0,15262,54.207,13.889,-2.4074e-11,1.488e-22,8.2989e-11,0.052819,1
15197,54.3,19.663,0,-0.22845,0,15262,54.207,13.889,-2.4074e-11,1.488e-22,8.2989e-11,0.052819,1
15198,54.3,19.654,0,-0.23478,0,15262,54.207,13.889,-2.4074e-11,1.488e-22,8.2989e-11,0.053469,1
15198,54.3,19.654,0,-0.23478,0,15262,54.207,13.889,-2.4074e-11,1.488e-22,8.2989e-11,0.053469,1
15198,54.3,19.654,0,-0.23478,0,15262,54.207,13.889,-2.4074e-11,1.488e-22,8.2989e-11,0.053469,1
15198,54.3,19.654,0,-0.23478,0,15262,54.207,13.889,-2.4074e-11,1.488e-22,8.2989e-11,0.053469,1
15198,54.3,19.654,0,-0.23478,0,15262,54.207,13.889,-2.4074e-11,1.488e-22,8.2989e-11,0.053469,1
15198,54.3,19.654,0,-0.23478,0,15262,54.207,13.889,-2.4074e-11,1.488e-22,8.2989e-11,0.053469,1
15198,54.3,19.654,0,-0.23478,0,15262,54.207,13.889,-2.4074e-11,1.488e-22,8.2989e-11,0.053469,1
15198,54.3,19.654,0,-0.23478,0,15263,54.207,13.889,-1.6835e-11,8.415e-23,6.6776e-11,0.052331,1
15198,54.3,19.654,0,-0.23478,0,15263,54.207,13.889,-1.6835e-11,8.415e-23,6.6776e-11,0.052331,1
15198,54.3,19.654,0,-0.23478,0,15263,54.207,13.889,-1.6835e-11,8.415e-23,6.6776e-11,0.052331,1
15198,54.3,19.654,0,-0.23478,0,15263,54.207,13.889,-1.6835e-11,8.415e-23,6.6776e-11,0.052331,1
15198,54.3,19.654,0,-0.23478,0,15263,54.207,13.889,-1.6835e-11,8.415e-23,6.6776e-11,0.052331,1
15198,54.3,19.654,0,-0.23478,0,15263,54.207,13.889,-1.6835e-11,8.415e-23,6.6776e-11,0.052331,1
15198,54.3,19.654,0,-0.23478,0,15263,54.207,13.889,-1.6835e-11,8.415e-23,6.6776e-11,0.052331,1
15198,54.3,19.654,0,-0.23478,0,15263,54.207,13.889,-1.6835e-11,8.415e-23,6.6776e-11,0.052331,1
15198,54.3,19.654,0,-0.23478,0,15263,54.207,13.889,-1.6835e-11,8.415e-23,6.6776e-11,0.052331,1
15199,54.3,19.645,0,-0.24101,0,15263,54.207,13.889,-1.6835e-11,8.415e-23,6.6776e-11,0.052969,1
15199,54.3,19.645,0,-0.24101,0,15263,54.207,13.889,-1.6835e-11,8.415e-23,6.6776e-11,0.052969,1
15199,54.3,19.645,0,-0.24101,0,15263,54.207,13.889,-1.6835e-11,8.415e-23,6.6776e-11,0.052969,1
15199,54.3,19.645,0,-0.24101,0,15263,54.207,13.889,-1.6835e-11,8.415e-23,6.6776e-11,0.052969,1
15199,54.3,19.645,0,-0.24101,0,15263,54.207,13.889,-1.6835e-11,8.415e-23,6.6776e-11,0.052969,1
15199,54.3,19.645,0,-0.24101,0,15263,54.207,13.889,-1.6835e-11,8.415e-23,6.6776e-11,0.052969,1
15199,54.3,19.645,0,-0.24101,0,15263,54.207,13.889,-1.6835e-11,8.415e-23,6.6776e-11,0.052969,1
15200,54.3,19.625,0,-0.25315,0,15264,54.207,13.889,-1.4381e-11,6.5353e-23,6.0564e-11,0.053817,1
15200,54.3,19.625,0,-0.25315,0,15264,54.207,13.889,-1.4381e-11,6.5353e-23,6.0564e-11,0.053817,1
15201,54.3,19.62,0,-0.25612,0,15264,54.207,13.889,-1.4381e-11,6.5353e-23,6.0564e-11,0.054152,1
15201,54.3,19.62,0,-0.25612,0,15264,54.207,13.889,-1.4381e-11,6.5353e-23,6.0564e-11,0.054152,1
15201,54.3,19.62,0,-0.25612,0,15264,54.207,13.889,-1.4381e-11,6.5353e-23,6.0564e-11,0.054152,1
15201,54.3,19.62,0,-0.25612,0,15266,54.207,13.889,-7.6182e-12,2.3674e-23,4.0958e-11,0.052532,1
15201,54.3,19.62,0,-0.25612,0,15266,54.207,13.889,-7.6182e-12,2.3674e-23,4.0958e-11,0.052532,1
15203,54.3,19.593,0,-0.2706,0,15266,54.207,13.889,-7.6182e-12,2.3674e-23,4.0958e-11,0.054166,1
15203,54.3,19.593,0,-0.2706,0,15266,54.207,13.889,-7.6182e-12,2.3674e-23,4.0958e-11,0.054166,1
15203,54.3,19.593,0,-0.2706,0,15267,54.207,13.889,-4.8583e-12,1.182e-23,3.172e-11,0.053228,1
15203,54.3,19.593,0,-0.2706,0,15267,54.207,13.889,-4.8583e-12,1.182e-23,3.172e-11,0.053228,1
15204,54.3,19.571,0,-0.28176,0,15267,54.207,13.889,-4.2764e-12,9.7499e-24,2.9615e-11,0.054319,1
15204,54.3,19.571,0,-0.28176,0,15267,54.207,13.889,-4.2764e-12,9.7499e-24,2.9615e-11,0.054319,1
15204,54.3,19.571,0,-0.28176,0,15267,54.207,13.889,-3.2289e-12,6.4532e-24,2.5711e-11,0.053843,1
15204,54.3,19.571,0,-0.28176,0,15267,54.207,13.889,-3.2289e-12,6.4532e-24,2.5711e-11,0.053843,1
15204,54.3,19.571,0,-0.28176,0,15267,54.207,13.889,-3.2289e-12,6.4532e-24,2.5711e-11,0.053843,1
15204,54.3,19.571,0,-0.28176,0,15267,54.207,13.889,-3.2289e-12,6.4532e-24,2.5711e-11,0.053843,1
15204,54.3,19.571,0,-0.28176,0,15268,54.207,13.889,-2.7594e-12,5.1593e-24,2.3898e-11,0.053608,1
15204,54.3,19.571,0,-0.28176,0,15268,54.207,13.889,-2.7594e-12,5.1593e-24,2.3898e-11,0.053608,1
15205,54.3,19.554,0,-0.28989,0,15268,54.207,13.889,-2.7594e-12,5.1593e-24,2.3898e-11,0.054615,1
15205,54.3,19.554,0,-0.28989,0,15268,54.207,13.889,-2.7594e-12,5.1593e-24,2.3898e-11,0.054615,1
15205,54.3,19.554,0,-0.28989,0,15268,54.207,13.889,-2.7594e-12,5.1593e-24,2.3898e-11,0.054615,1
15205,54.3,19.554,0,-0.28989,0,15268,54.207,13.889,-2.7594e-12,5.1593e-24,2.3898e-11,0.054615,1
15205,54.3,19.554,0,-0.28989,0,15268,54.207,13.889,-2.7594e-12,5.1593e-24,2.3898e-11,0.054615,1
15205,54.3,19.554,0,-0.28989,0,15268,54.207,13.889,-2.7594e-12,5.1593e-24,2.3898e-11,0.054615,1
15205,54.3,19.554,0,-0.28989,0,15268,54.207,13.889,-2.7594e-12,5.1593e-24,2.3898e-11,0.054615,1
15205,54.3,19.554,0,-0.28989,0,15268,54.207,13.889,-2.7594e-12,5.1593e-24,2.3898e-11,0.054615,1
15206,54.3,19.543,0,-0.2952,0,15268,54.207,13.889,-1.9223e-12,3.1451e-24,2.0531e-11,0.054813,1
15206,54.3,19.543,0,-0.2952,0,15268,54.207,13.889,-1.9223e-12,3.1451e-24,2.0531e-11,0.054813,1
15206,54.3,19.543,0,-0.2952,0,15269,54.207,13.889,-1.21e-12,1.7365e-24,1.7423e-11,0.054329,1
15207,54.3,19.531,0,-0.30043,0,15269,54.207,13.889,-1.21e-12,1.7365e-24,1.7423e-11,0.055013,1
15207,54.3,19.531,0,-0.30043,0,15269,54.207,13.889,-1.21e-12,1.7365e-24,1.7423e-11,0.055013,1
15208,54.3,19.518,0,-0.30557,0,15269,54.207,13.889,-1.21e-12,1.7365e-24,1.7423e-11,0.055714,1
15208,54.3,19.518,0,-0.30557,0,15269,54.207,13.889,-1.21e-12,1.7365e-24,1.7423e-11,0.055714,1
15208,54.3,19.518,0,-0.30557,0,15270,54.207,13.889,9.9717e-14,8.1382e-27,1.0999e-11,0.054479,1
15208,54.3,19.518,0,-0.30557,0,15270,54.207,13.889,9.9717e-14,8.1382e-27,1.0999e-11,0.054479,1
15208,54.3,19.518,0,-0.30557,0,15270,54.207,13.889,9.9717e-14,8.1382e-27,1.0999e-11,0.054479,1
15208,54.3,19.518,0,-0.30557,0,15270,54.207,13.889,9.9717e-14,8.1382e-27,1.0999e-11,0.054479,1
15208,54.3,19.518,0,-0.30557,0,15271,54.207,13.889,2.9443e-13,-1.4002e-25,1.0005e-11,0.054239,1
15208,54.3,19.518,0,-0.30557,0,15271,54.207,13.889,2.9443e-13,-1.4002e-25,1.0005e-11,0.054239,1
15208,54.3,19.518,0,-0.30557,0,15271,54.207,13.889,4.6938e-13,-2.4589e-25,9.0024e-12,0.054,1
15210,54.3,19.487,0,-0.31807,0,15271,54.207,13.889,4.6938e-13,-2.4589e-25,9.0024e-12,0.055719,1
15210,54.3,19.487,0,-0.31807,0,15271,54.207,13.889,4.6938e-13,-2.4589e-25,9.0024e-12,0.055719,1
15210,54.3,19.487,0,-0.31807,0,15271,54.207,13.889,7.6154e-13,-3.5352e-25,7.1116e-12,0.055219,1
15210,54.3,19.487,0,-0.31807,0,15272,54.207,13.889,9.917e-13,-3.7518e-25,5.5669e-12,0.054727,1
15210,54.3,19.487,0,-0.31807,0,15272,54.207,13.889,9.917e-13,-3.7518e-25,5.5669e-12,0.054727,1
15210,54.3,19.487,0,-0.31807,0,15272,54.207,13.889,9.917e-13,-3.7518e-25,5.5669e-12,0.054727,1
15210,54.3,19.487,0,-0.31807,0,15272,54.207,13.889,9.917e-13,-3.7518e-25,5.5669e-12,0.054727,1
15210,54.3,19.487,0,-0.31807,0,15272,54.207,13.889,9.917e-13,-3.7518e-25,5.5669e-12,0.054727,1
15210,54.3,19.487,0,-0.31807,0,15272,54.207,13.889,1.0879e-12,-3.7114e-25,4.9646e-12,0.054484,1
15210,54.3,19.487,0,-0.31807,0,15272,54.207,13.889,1.0879e-12,-3.7114e-25,4.9646e-12,0.054484,1
15210,54.3,19.487,0,-0.31807,0,15272,54.207,13.889,1.0879e-12,-3.7114e-25,4.9646e-12,0.054484,1
15210,54.3,19.487,0,-0.31807,0,15272,54.207,13.889,1.0879e-12,-3.7114e-25,4.9646e-12,0.054484,1
15210,54.3,19.487,0,-0.31807,0,15272,54.207,13.889,1.0879e-12,-3.7114e-25,4.9646e-12,0.054484,1
15210,54.3,19.487,0,-0.31807,0,15272,54.207,13.889,1.0879e-12,-3.7114e-25,4.9646e-12,0.054484,1
15211,54.3,19.455,0,-0.33008,0,15272,54.207,13.889,1.0879e-12,-3.7114e-25,4.9646e-12,0.056231,1
15212,54.3,19.448,0,-0.33242,0,15272,54.207,13.889,1.0879e-12,-3.7114e-25,4.9646e-12,0.056594,1
15212,54.3,19.448,0,-0.33242,0,15272,54.207,13.889,1.0879e-12,-3.7114e-25,4.9646e-12,0.056594,1
15212,54.3,19.448,0,-0.33242,0,15272,54.207,13.889,1.0879e-12,-3.7114e-25,4.9646e-12,0.056594,1
15212,54.3,19.442,0,-0.33475,0,15272,54.207,13.889,1.0879e-12,-3.7114e-25,4.9646e-12,0.056961,1
15212,54.3,19.442,0,-0.33475,0,15272,54.207,13.889,1.0879e-12,-3.7114e-25,4.9646e-12,0.056961,1
15212,54.3,19.442,0,-0.33475,0,15273,54.207,13.889,1.3367e-12,-2.2832e-25,2.416e-12,0.055925,1
15214,54.3,19.414,0,-0.34388,0,15273,54.207,13.889,1.3367e-12,-2.2832e-25,2.416e-12,0.057385,1
15214,54.3,19.414,0,-0.34388,0,15273,54.207,13.889,1.3367e-12,-2.2832e-25,2.416e-12,0.057385,1
15214,54.3,19.414,0,-0.34388,0,15274,54.207,13.889,1.4314e-12,-7.4849e-26,7.2998e-13,0.056333,1
15215,54.3,19.401,0,-0.34834,0,15274,54.207,13.889,1.4314e-12,-7.4849e-26,7.2998e-13,0.057064,1
15215,54.3,19.401,0,-0.34834,0,15274,54.207,13.889,1.4314e-12,-7.4849e-26,7.2998e-13,0.057064,1
15215,54.3,19.401,0,-0.34834,0,15275,54.207,13.889,1.4359e-12,-6.4118e-27,6.2044e-14,0.056539,1
15215,54.3,19.401,0,-0.34834,0,15275,54.207,13.889,1.4359e-12,-6.4118e-27,6.2044e-14,0.056539,1
15215,54.3,19.401,0,-0.34834,0,15275,54.207,13.889,1.4304e-12,2.1676e-26,-2.1017e-13,0.05628,1
15215,54.3,19.401,0,-0.34834,0,15275,54.207,13.889,1.4304e-12,2.1676e-26,-2.1017e-13,0.05628,1
15215,54.3,19.401,0,-0.34834,0,15276,54.207,13.889,1.4197e-12,4.7797e-26,-4.6606e-13,0.056024,1
