10.861,3.6184,24.968,34.545,-6.3239,37.489,-10.694,26.335,3.778,16.464,-2.7944,14.582,26.34,30.281,6.957,32.396
10.822,3.6809,24.732,34.569,-6.3931,37.55,-10.742,26.4,3.7535,16.492,-2.883,14.705,26.156,30.444,6.8975,32.556
10.822,3.6809,24.732,34.569,-6.3931,37.55,-10.742,26.4,3.7535,16.492,-2.883,14.705,26.156,30.444,6.8975,32.556
10.822,3.6809,24.732,34.569,-6.3931,37.55,-10.742,26.4,3.7535,16.492,-2.883,14.705,26.156,30.444,6.8975,32.556
10.784,3.7434,24.496,34.591,-6.4613,37.609,-10.788,26.464,3.7289,16.52,-2.9707,14.826,25.973,30.606,6.8378,32.715
10.784,3.7434,24.496,34.591,-6.4613,37.609,-10.788,26.464,3.7289,16.52,-2.9707,14.826,25.973,30.606,6.8378,32.715
10.784,3.7434,24.496,34.591,-6.4613,37.609,-10.788,26.464,3.7289,16.52,-2.9707,14.826,25.973,30.606,6.8378,32.715
10.706,3.8681,24.022,34.632,-6.595,37.721,-10.88,26.589,3.6794,16.574,-3.1429,15.066,25.61,30.93,6.7184,33.03
10.706,3.8681,24.022,34.632,-6.595,37.721,-10.88,26.589,3.6794,16.574,-3.1429,15.066,25.61,30.93,6.7184,33.03
10.706,3.8681,24.022,34.632,-6.595,37.721,-10.88,26.589,3.6794,16.574,-3.1429,15.066,25.61,30.93,6.7184,33.03
10.667,3.9304,23.784,34.651,-6.6605,37.775,-10.924,26.651,3.6546,16.6,-3.2275,15.184,25.429,31.092,6.6586,33.186
10.667,3.9304,23.784,34.651,-6.6605,37.775,-10.924,26.651,3.6546,16.6,-3.2275,15.184,25.429,31.092,6.6586,33.186
10.628,3.9925,23.546,34.668,-6.725,37.827,-10.968,26.712,3.6297,16.626,-3.3111,15.302,25.249,31.253,6.5987,33.341
10.588,4.0546,23.307,34.685,-6.7886,37.877,-11.01,26.772,3.6047,16.652,-3.3936,15.418,25.069,31.414,6.5388,33.496
10.549,4.1166,23.067,34.699,-6.8512,37.925,-11.052,26.832,3.5796,16.677,-3.4751,15.534,24.891,31.575,6.4788,33.649
10.549,4.1166,23.067,34.699,-6.8512,37.925,-11.052,26.832,3.5796,16.677,-3.4751,15.534,24.891,31.575,6.4788,33.649
10.549,4.1166,23.067,34.699,-6.8512,37.925,-11.052,26.832,3.5796,16.677,-3.4751,15.534,24.891,31.575,6.4788,33.649
10.549,4.1166,23.067,34.699,-6.8512,37.925,-11.052,26.832,3.5796,16.677,-3.4751,15.534,24.891,31.575,6.4788,33.649
10.509,4.1785,22.828,34.713,-6.9128,37.972,-11.093,26.89,3.5545,16.702,-3.5555,15.649,24.713,31.736,6.4188,33.802
10.509,4.1785,22.828,34.713,-6.9128,37.972,-11.093,26.89,3.5545,16.702,-3.5555,15.649,24.713,31.736,6.4188,33.802
10.509,4.1785,22.828,34.713,-6.9128,37.972,-11.093,26.89,3.5545,16.702,-3.5555,15.649,24.713,31.736,6.4188,33.802
10.429,4.3019,22.347,34.736,-7.0331,38.061,-11.173,27.005,3.504,16.75,-3.713,15.875,24.359,32.058,6.2987,34.105
10.429,4.3019,22.347,34.736,-7.0331,38.061,-11.173,27.005,3.504,16.75,-3.713,15.875,24.359,32.058,6.2987,34.105
10.389,4.3635,22.106,34.746,-7.0918,38.103,-11.211,27.061,3.4787,16.773,-3.7902,15.987,24.183,32.218,6.2385,34.255
10.389,4.3635,22.106,34.746,-7.0918,38.103,-11.211,27.061,3.4787,16.773,-3.7902,15.987,24.183,32.218,6.2385,34.255
10.389,4.3635,22.106,34.746,-7.0918,38.103,-11.211,27.061,3.4787,16.773,-3.7902,15.987,24.183,32.218,6.2385,34.255
10.348,4.4249,21.864,34.754,-7.1495,38.143,-11.248,27.117,3.4533,16.796,-3.8663,16.097,24.008,32.378,6.1784,34.404
10.348,4.4249,21.864,34.754,-7.1495,38.143,-11.248,27.117,3.4533,16.796,-3.8663,16.097,24.008,32.378,6.1784,34.404
10.348,4.4249,21.864,34.754,-7.1495,38.143,-11.248,27.117,3.4533,16.796,-3.8663,16.097,24.008,32.378,6.1784,34.404
10.267,4.5474,21.38,34.767,-7.2617,38.217,-11.321,27.226,3.4023,16.841,-4.0151,16.316,23.66,32.698,6.0579,34.7
10.267,4.5474,21.38,34.767,-7.2617,38.217,-11.321,27.226,3.4023,16.841,-4.0151,16.316,23.66,32.698,6.0579,34.7
10.226,4.6084,21.138,34.771,-7.3163,38.252,-11.355,27.279,3.3767,16.863,-4.0878,16.423,23.487,32.857,5.9977,34.846
10.226,4.6084,21.138,34.771,-7.3163,38.252,-11.355,27.279,3.3767,16.863,-4.0878,16.423,23.487,32.857,5.9977,34.846
10.185,4.6693,20.895,34.774,-7.3699,38.285,-11.389,27.331,3.3511,16.885,-4.1594,16.53,23.314,33.016,5.9374,34.992
10.185,4.6693,20.895,34.774,-7.3699,38.285,-11.389,27.331,3.3511,16.885,-4.1594,16.53,23.314,33.016,5.9374,34.992
10.144,4.7301,20.651,34.776,-7.4223,38.317,-11.422,27.383,3.3254,16.906,-4.2299,16.636,23.143,33.175,5.8771,35.136
10.144,4.7301,20.651,34.776,-7.4223,38.317,-11.422,27.383,3.3254,16.906,-4.2299,16.636,23.143,33.175,5.8771,35.136
10.102,4.7907,20.407,34.776,-7.4738,38.346,-11.454,27.434,3.2996,16.926,-4.2992,16.74,22.972,33.334,5.8168,35.28
10.102,4.7907,20.407,34.776,-7.4738,38.346,-11.454,27.434,3.2996,16.926,-4.2992,16.74,22.972,33.334,5.8168,35.28
10.061,4.8511,20.163,34.775,-7.5241,38.374,-11.485,27.484,3.2738,16.946,-4.3674,16.843,22.802,33.493,5.7565,35.423
10.061,4.8511,20.163,34.775,-7.5241,38.374,-11.485,27.484,3.2738,16.946,-4.3674,16.843,22.802,33.493,5.7565,35.423
10.019,4.9114,19.919,34.772,-7.5734,38.4,-11.515,27.533,3.2479,16.966,-4.4344,16.946,22.633,33.652,5.6961,35.565
10.019,4.9114,19.919,34.772,-7.5734,38.4,-11.515,27.533,3.2479,16.966,-4.4344,16.946,22.633,33.652,5.6961,35.565
10.019,4.9114,19.919,34.772,-7.5734,38.4,-11.515,27.533,3.2479,16.966,-4.4344,16.946,22.633,33.652,5.6961,35.565
9.9769,4.9716,19.674,34.769,-7.6216,38.424,-11.544,27.582,3.222,16.986,-4.5003,17.047,22.465,33.81,5.6358,35.705
9.9347,5.0315,19.429,34.763,-7.6687,38.447,-11.572,27.629,3.196,17.004,-4.5649,17.147,22.297,33.968,5.5754,35.845
9.9347,5.0315,19.429,34.763,-7.6687,38.447,-11.572,27.629,3.196,17.004,-4.5649,17.147,22.297,33.968,5.5754,35.845
9.8925,5.0913,19.184,34.757,-7.7147,38.468,-11.599,27.677,3.17,17.023,-4.6284,17.246,22.13,34.126,5.515,35.985
9.8925,5.0913,19.184,34.757,-7.7147,38.468,-11.599,27.677,3.17,17.023,-4.6284,17.246,22.13,34.126,5.515,35.985
9.85,5.1509,18.938,34.749,-7.7596,38.487,-11.625,27.723,3.1439,17.041,-4.6907,17.344,21.964,34.283,5.4546,36.123
9.85,5.1509,18.938,34.749,-7.7596,38.487,-11.625,27.723,3.1439,17.041,-4.6907,17.344,21.964,34.283,5.4546,36.123
9.85,5.1509,18.938,34.749,-7.7596,38.487,-11.625,27.723,3.1439,17.041,-4.6907,17.344,21.964,34.283,5.4546,36.123
9.85,5.1509,18.938,34.749,-7.7596,38.487,-11.625,27.723,3.1439,17.041,-4.6907,17.344,21.964,34.283,5.4546,36.123
9.7646,5.2696,18.447,34.728,-7.846,38.519,-11.674,27.813,3.0916,17.076,-4.8118,17.537,21.634,34.598,5.3338,36.396
9.7646,5.2696,18.447,34.728,-7.846,38.519,-11.674,27.813,3.0916,17.076,-4.8118,17.537,21.634,34.598,5.3338,36.396
9.7646,5.2696,18.447,34.728,-7.846,38.519,-11.674,27.813,3.0916,17.076,-4.8118,17.537,21.634,34.598,5.3338,36.396
9.7216,5.3287,18.2,34.716,-7.8875,38.533,-11.697,27.857,3.0654,17.092,-4.8705,17.632,21.47,34.755,5.2734,36.532
9.7216,5.3287,18.2,34.716,-7.8875,38.533,-11.697,27.857,3.0654,17.092,-4.8705,17.632,21.47,34.755,5.2734,36.532
9.7216,5.3287,18.2,34.716,-7.8875,38.533,-11.697,27.857,3.0654,17.092,-4.8705,17.632,21.47,34.755,5.2734,36.532
9.6351,5.4462,17.707,34.687,-7.9672,38.555,-11.74,27.942,3.0128,17.124,-4.9843,17.818,21.145,35.068,5.1527,36.799
9.6351,5.4462,17.707,34.687,-7.9672,38.555,-11.74,27.942,3.0128,17.124,-4.9843,17.818,21.145,35.068,5.1527,36.799
9.5916,5.5047,17.46,34.671,-8.0053,38.564,-11.76,27.984,2.9864,17.14,-5.0393,17.909,20.983,35.225,5.0923,36.932
9.5916,5.5047,17.46,34.671,-8.0053,38.564,-11.76,27.984,2.9864,17.14,-5.0393,17.909,20.983,35.225,5.0923,36.932
9.5479,5.5629,17.212,34.653,-8.0422,38.57,-11.779,28.025,2.96,17.155,-5.0931,17.999,20.822,35.381,5.0319,37.063
9.5479,5.5629,17.212,34.653,-8.0422,38.57,-11.779,28.025,2.96,17.155,-5.0931,17.999,20.822,35.381,5.0319,37.063
9.5479,5.5629,17.212,34.653,-8.0422,38.57,-11.779,28.025,2.96,17.155,-5.0931,17.999,20.822,35.381,5.0319,37.063
9.504,5.621,16.965,34.633,-8.078,38.575,-11.796,28.065,2.9336,17.169,-5.1457,18.088,20.662,35.537,4.9716,37.194
9.46,5.6788,16.717,34.613,-8.1126,38.578,-11.813,28.104,2.9071,17.183,-5.1971,18.176,20.503,35.692,4.9112,37.324
9.46,5.6788,16.717,34.613,-8.1126,38.578,-11.813,28.104,2.9071,17.183,-5.1971,18.176,20.503,35.692,4.9112,37.324
9.4158,5.7364,16.469,34.59,-8.146,38.58,-11.829,28.143,2.8806,17.197,-5.2472,18.262,20.345,35.848,4.8509,37.453
9.3713,5.7938,16.221,34.567,-8.1782,38.579,-11.843,28.181,2.8541,17.21,-5.296,18.348,20.187,36.003,4.7906,37.58
9.3713,5.7938,16.221,34.567,-8.1782,38.579,-11.843,28.181,2.8541,17.21,-5.296,18.348,20.187,36.003,4.7906,37.58
9.3713,5.7938,16.221,34.567,-8.1782,38.579,-11.843,28.181,2.8541,17.21,-5.296,18.348,20.187,36.003,4.7906,37.58
9.3268,5.851,15.973,34.541,-8.2093,38.577,-11.857,28.218,2.8275,17.223,-5.3436,18.432,20.031,36.158,4.7303,37.707
9.3268,5.851,15.973,34.541,-8.2093,38.577,-11.857,28.218,2.8275,17.223,-5.3436,18.432,20.031,36.158,4.7303,37.707
9.3268,5.851,15.973,34.541,-8.2093,38.577,-11.857,28.218,2.8275,17.223,-5.3436,18.432,20.031,36.158,4.7303,37.707
9.282,5.9079,15.725,34.515,-8.2391,38.573,-11.869,28.254,2.8009,17.235,-5.3899,18.515,19.875,36.313,4.67,37.833
9.237,5.9646,15.477,34.487,-8.2678,38.567,-11.881,28.29,2.7743,17.247,-5.435,18.597,19.72,36.467,4.6098,37.958
9.237,5.9646,15.477,34.487,-8.2678,38.567,-11.881,28.29,2.7743,17.247,-5.435,18.597,19.72,36.467,4.6098,37.958
9.1919,6.0211,15.228,34.457,-8.2952,38.56,-11.891,28.324,2.7476,17.258,-5.4788,18.678,19.565,36.622,4.5496,38.082
9.1919,6.0211,15.228,34.457,-8.2952,38.56,-11.891,28.324,2.7476,17.258,-5.4788,18.678,19.565,36.622,4.5496,38.082
9.1465,6.0773,14.979,34.426,-8.3214,38.551,-11.9,28.358,2.7209,17.269,-5.5213,18.757,19.412,36.776,4.4894,38.205
9.1465,6.0773,14.979,34.426,-8.3214,38.551,-11.9,28.358,2.7209,17.269,-5.5213,18.757,19.412,36.776,4.4894,38.205
9.101,6.1333,14.731,34.393,-8.3465,38.54,-11.908,28.392,2.6942,17.279,-5.5626,18.835,19.259,36.93,4.4292,38.327
9.101,6.1333,14.731,34.393,-8.3465,38.54,-11.908,28.392,2.6942,17.279,-5.5626,18.835,19.259,36.93,4.4292,38.327
9.0553,6.189,14.482,34.359,-8.3702,38.527,-11.915,28.424,2.6675,17.289,-5.6025,18.913,19.107,37.083,4.3691,38.448
9.0553,6.189,14.482,34.359,-8.3702,38.527,-11.915,28.424,2.6675,17.289,-5.6025,18.913,19.107,37.083,4.3691,38.448
9.0094,6.2445,14.233,34.324,-8.3928,38.512,-11.921,28.456,2.6407,17.299,-5.6412,18.988,18.956,37.237,4.309,38.569
9.0094,6.2445,14.233,34.324,-8.3928,38.512,-11.921,28.456,2.6407,17.299,-5.6412,18.988,18.956,37.237,4.309,38.569
8.9633,6.2997,13.984,34.286,-8.4141,38.496,-11.926,28.487,2.6139,17.308,-5.6786,19.063,18.806,37.39,4.2489,38.688
8.9633,6.2997,13.984,34.286,-8.4141,38.496,-11.926,28.487,2.6139,17.308,-5.6786,19.063,18.806,37.39,4.2489,38.688
8.9633,6.2997,13.984,34.286,-8.4141,38.496,-11.926,28.487,2.6139,17.308,-5.6786,19.063,18.806,37.39,4.2489,38.688
8.917,6.3546,13.735,34.248,-8.4342,38.478,-11.929,28.517,2.5871,17.316,-5.7146,19.136,18.657,37.543,4.1889,38.806
8.8706,6.4093,13.486,34.208,-8.4531,38.458,-11.932,28.546,2.5603,17.325,-5.7494,19.209,18.508,37.695,4.1289,38.923
8.8706,6.4093,13.486,34.208,-8.4531,38.458,-11.932,28.546,2.5603,17.325,-5.7494,19.209,18.508,37.695,4.1289,38.923
8.8239,6.4638,13.237,34.166,-8.4707,38.436,-11.933,28.575,2.5334,17.332,-5.7829,19.28,18.36,37.848,4.0689,39.04
8.8239,6.4638,13.237,34.166,-8.4707,38.436,-11.933,28.575,2.5334,17.332,-5.7829,19.28,18.36,37.848,4.0689,39.04
8.7771,6.5179,12.987,34.123,-8.4871,38.413,-11.933,28.603,2.5065,17.34,-5.8151,19.349,18.213,38,4.009,39.155
8.7771,6.5179,12.987,34.123,-8.4871,38.413,-11.933,28.603,2.5065,17.34,-5.8151,19.349,18.213,38,4.009,39.155
8.7771,6.5179,12.987,34.123,-8.4871,38.413,-11.933,28.603,2.5065,17.34,-5.8151,19.349,18.213,38,4.009,39.155
8.73,6.5718,12.738,34.079,-8.5022,38.388,-11.932,28.63,2.4796,17.346,-5.846,19.418,18.067,38.152,3.9491,39.27
8.73,6.5718,12.738,34.079,-8.5022,38.388,-11.932,28.63,2.4796,17.346,-5.846,19.418,18.067,38.152,3.9491,39.27
8.73,6.5718,12.738,34.079,-8.5022,38.388,-11.932,28.63,2.4796,17.346,-5.846,19.418,18.067,38.152,3.9491,39.27
8.6353,6.6787,12.24,33.985,-8.5286,38.332,-11.927,28.683,2.4258,17.358,-5.9038,19.551,17.777,38.455,3.8295,39.496
8.6353,6.6787,12.24,33.985,-8.5286,38.332,-11.927,28.683,2.4258,17.358,-5.9038,19.551,17.777,38.455,3.8295,39.496
8.6353,6.6787,12.24,33.985,-8.5286,38.332,-11.927,28.683,2.4258,17.358,-5.9038,19.551,17.777,38.455,3.8295,39.496
8.5877,6.7318,11.991,33.936,-8.5399,38.302,-11.922,28.708,2.3989,17.364,-5.9307,19.616,17.633,38.606,3.7698,39.607
8.5399,6.7845,11.742,33.885,-8.5499,38.27,-11.917,28.732,2.3719,17.369,-5.9563,19.679,17.49,38.757,3.7101,39.718
8.4919,6.837,11.492,33.833,-8.5587,38.236,-11.91,28.755,2.345,17.373,-5.9806,19.741,17.348,38.907,3.6505,39.828
8.4919,6.837,11.492,33.833,-8.5587,38.236,-11.91,28.755,2.345,17.373,-5.9806,19.741,17.348,38.907,3.6505,39.828
8.4437,6.8892,11.243,33.779,-8.5662,38.2,-11.902,28.778,2.318,17.377,-6.0036,19.802,17.207,39.058,3.5909,39.936
8.4437,6.8892,11.243,33.779,-8.5662,38.2,-11.902,28.778,2.318,17.377,-6.0036,19.802,17.207,39.058,3.5909,39.936
8.4437,6.8892,11.243,33.779,-8.5662,38.2,-11.902,28.778,2.318,17.377,-6.0036,19.802,17.207,39.058,3.5909,39.936
8.3953,6.9411,10.994,33.724,-8.5724,38.163,-11.893,28.8,2.291,17.381,-6.0252,19.862,17.067,39.208,3.5313,40.044
8.3953,6.9411,10.994,33.724,-8.5724,38.163,-11.893,28.8,2.291,17.381,-6.0252,19.862,17.067,39.208,3.5313,40.044
8.3953,6.9411,10.994,33.724,-8.5724,38.163,-11.893,28.8,2.291,17.381,-6.0252,19.862,17.067,39.208,3.5313,40.044
8.3466,6.9927,10.746,33.667,-8.5774,38.124,-11.883,28.822,2.2641,17.384,-6.0455,19.92,16.927,39.358,3.4719,40.151
8.2978,7.044,10.497,33.608,-8.581,38.083,-11.871,28.842,2.2371,17.386,-6.0645,19.977,16.788,39.507,3.4124,40.257
8.2978,7.044,10.497,33.608,-8.581,38.083,-11.871,28.842,2.2371,17.386,-6.0645,19.977,16.788,39.507,3.4124,40.257
8.2488,7.095,10.248,33.549,-8.5834,38.041,-11.858,28.862,2.2101,17.389,-6.0822,20.033,16.65,39.656,3.3531,40.362
8.2488,7.095,10.248,33.549,-8.5834,38.041,-11.858,28.862,2.2101,17.389,-6.0822,20.033,16.65,39.656,3.3531,40.362
8.1996,7.1456,9.9993,33.487,-8.5844,37.997,-11.845,28.881,2.1831,17.39,-6.0985,20.088,16.513,39.805,3.2937,40.466
8.1996,7.1456,9.9993,33.487,-8.5844,37.997,-11.845,28.881,2.1831,17.39,-6.0985,20.088,16.513,39.805,3.2937,40.466
8.1996,7.1456,9.9993,33.487,-8.5844,37.997,-11.845,28.881,2.1831,17.39,-6.0985,20.088,16.513,39.805,3.2937,40.466
8.1502,7.196,9.7508,33.424,-8.5842,37.951,-11.83,28.9,2.1561,17.391,-6.1135,20.141,16.377,39.954,3.2345,40.569
8.1006,7.2461,9.5024,33.36,-8.5827,37.903,-11.813,28.918,2.1291,17.392,-6.1272,20.193,16.241,40.103,3.1753,40.671
8.1006,7.2461,9.5024,33.36,-8.5827,37.903,-11.813,28.918,2.1291,17.392,-6.1272,20.193,16.241,40.103,3.1753,40.671
8.0508,7.2958,9.2542,33.293,-8.5799,37.854,-11.796,28.935,2.1021,17.392,-6.1396,20.243,16.107,40.251,3.1162,40.772
8.0508,7.2958,9.2542,33.293,-8.5799,37.854,-11.796,28.935,2.1021,17.392,-6.1396,20.243,16.107,40.251,3.1162,40.772
8.0008,7.3453,9.0061,33.226,-8.5757,37.803,-11.777,28.951,2.0751,17.392,-6.1506,20.293,15.973,40.399,3.0571,40.872
8.0008,7.3453,9.0061,33.226,-8.5757,37.803,-11.777,28.951,2.0751,17.392,-6.1506,20.293,15.973,40.399,3.0571,40.872
7.9505,7.3944,8.7581,33.157,-8.5703,37.75,-11.757,28.966,2.0481,17.392,-6.1603,20.341,15.84,40.546,2.9981,40.971
7.9505,7.3944,8.7581,33.157,-8.5703,37.75,-11.757,28.966,2.0481,17.392,-6.1603,20.341,15.84,40.546,2.9981,40.971
7.9001,7.4432,8.5103,33.086,-8.5636,37.696,-11.736,28.981,2.0211,17.39,-6.1686,20.388,15.707,40.693,2.9392,41.069
7.9001,7.4432,8.5103,33.086,-8.5636,37.696,-11.736,28.981,2.0211,17.39,-6.1686,20.388,15.707,40.693,2.9392,41.069
7.9001,7.4432,8.5103,33.086,-8.5636,37.696,-11.736,28.981,2.0211,17.39,-6.1686,20.388,15.707,40.693,2.9392,41.069
7.8495,7.4916,8.2627,33.014,-8.5556,37.64,-11.714,28.995,1.9942,17.389,-6.1756,20.433,15.576,40.84,2.8803,41.167
7.8495,7.4916,8.2627,33.014,-8.5556,37.64,-11.714,28.995,1.9942,17.389,-6.1756,20.433,15.576,40.84,2.8803,41.167
7.8495,7.4916,8.2627,33.014,-8.5556,37.64,-11.714,28.995,1.9942,17.389,-6.1756,20.433,15.576,40.84,2.8803,41.167
7.7476,7.5876,7.7681,32.864,-8.5356,37.522,-11.666,29.022,1.9402,17.384,-6.1856,20.52,15.316,41.134,2.7628,41.358
7.7476,7.5876,7.7681,32.864,-8.5356,37.522,-11.666,29.022,1.9402,17.384,-6.1856,20.52,15.316,41.134,2.7628,41.358
7.6964,7.6351,7.5211,32.787,-8.5236,37.461,-11.64,29.034,1.9133,17.381,-6.1887,20.562,15.187,41.28,2.7041,41.453
7.6964,7.6351,7.5211,32.787,-8.5236,37.461,-11.64,29.034,1.9133,17.381,-6.1887,20.562,15.187,41.28,2.7041,41.453
7.6449,7.6823,7.2743,32.709,-8.5104,37.398,-11.613,29.045,1.8863,17.377,-6.1903,20.602,15.058,41.426,2.6455,41.546
7.6449,7.6823,7.2743,32.709,-8.5104,37.398,-11.613,29.045,1.8863,17.377,-6.1903,20.602,15.058,41.426,2.6455,41.546
7.5933,7.7291,7.0277,32.629,-8.4958,37.334,-11.584,29.056,1.8594,17.373,-6.1907,20.641,14.931,41.571,2.587,41.639
7.5933,7.7291,7.0277,32.629,-8.4958,37.334,-11.584,29.056,1.8594,17.373,-6.1907,20.641,14.931,41.571,2.587,41.639
7.5414,7.7756,6.7814,32.547,-8.4799,37.268,-11.555,29.066,1.8325,17.369,-6.1897,20.679,14.805,41.716,2.5286,41.73
7.4894,7.8217,6.5353,32.464,-8.4628,37.2,-11.524,29.075,1.8056,17.364,-6.1874,20.715,14.679,41.861,2.4702,41.821
7.4894,7.8217,6.5353,32.464,-8.4628,37.2,-11.524,29.075,1.8056,17.364,-6.1874,20.715,14.679,41.861,2.4702,41.821
7.4894,7.8217,6.5353,32.464,-8.4628,37.2,-11.524,29.075,1.8056,17.364,-6.1874,20.715,14.679,41.861,2.4702,41.821
7.4371,7.8675,6.2895,32.379,-8.4443,37.131,-11.492,29.084,1.7787,17.359,-6.1838,20.75,14.554,42.006,2.4119,41.91
7.4371,7.8675,6.2895,32.379,-8.4443,37.131,-11.492,29.084,1.7787,17.359,-6.1838,20.75,14.554,42.006,2.4119,41.91
7.3846,7.913,6.0439,32.293,-8.4244,37.06,-11.459,29.092,1.7518,17.353,-6.1788,20.784,14.43,42.15,2.3537,41.999
7.3846,7.913,6.0439,32.293,-8.4244,37.06,-11.459,29.092,1.7518,17.353,-6.1788,20.784,14.43,42.15,2.3537,41.999
7.3846,7.913,6.0439,32.293,-8.4244,37.06,-11.459,29.092,1.7518,17.353,-6.1788,20.784,14.43,42.15,2.3537,41.999
7.3319,7.9581,5.7987,32.205,-8.4033,36.987,-11.425,29.099,1.7249,17.346,-6.1726,20.817,14.306,42.294,2.2955,42.087
7.3319,7.9581,5.7987,32.205,-8.4033,36.987,-11.425,29.099,1.7249,17.346,-6.1726,20.817,14.306,42.294,2.2955,42.087
7.3319,7.9581,5.7987,32.205,-8.4033,36.987,-11.425,29.099,1.7249,17.346,-6.1726,20.817,14.306,42.294,2.2955,42.087
7.2259,8.0473,5.309,32.024,-8.3571,36.837,-11.352,29.111,1.6713,17.332,-6.156,20.877,14.062,42.581,2.1795,42.26
7.2259,8.0473,5.309,32.024,-8.3571,36.837,-11.352,29.111,1.6713,17.332,-6.156,20.877,14.062,42.581,2.1795,42.26
7.1726,8.0913,5.0646,31.932,-8.3321,36.76,-11.314,29.116,1.6445,17.324,-6.1458,20.906,13.941,42.724,2.1216,42.345
7.1726,8.0913,5.0646,31.932,-8.3321,36.76,-11.314,29.116,1.6445,17.324,-6.1458,20.906,13.941,42.724,2.1216,42.345
7.1191,8.1351,4.8206,31.838,-8.3057,36.681,-11.275,29.121,1.6177,17.316,-6.1342,20.933,13.821,42.866,2.0637,42.429
7.1191,8.1351,4.8206,31.838,-8.3057,36.681,-11.275,29.121,1.6177,17.316,-6.1342,20.933,13.821,42.866,2.0637,42.429
7.0653,8.1784,4.5769,31.742,-8.278,36.6,-11.234,29.125,1.5909,17.307,-6.1214,20.959,13.702,43.009,2.006,42.512
7.0653,8.1784,4.5769,31.742,-8.278,36.6,-11.234,29.125,1.5909,17.307,-6.1214,20.959,13.702,43.009,2.006,42.512
7.0114,8.2214,4.3335,31.645,-8.2491,36.518,-11.193,29.128,1.5642,17.298,-6.1072,20.984,13.583,43.151,1.9483,42.594
7.0114,8.2214,4.3335,31.645,-8.2491,36.518,-11.193,29.128,1.5642,17.298,-6.1072,20.984,13.583,43.151,1.9483,42.594
6.9572,8.2641,4.0905,31.546,-8.2188,36.434,-11.15,29.13,1.5375,17.288,-6.0917,21.007,13.465,43.292,1.8907,42.675
6.9572,8.2641,4.0905,31.546,-8.2188,36.434,-11.15,29.13,1.5375,17.288,-6.0917,21.007,13.465,43.292,1.8907,42.675
6.9029,8.3064,3.8478,31.446,-8.1872,36.349,-11.105,29.132,1.5108,17.278,-6.0749,21.029,13.348,43.433,1.8332,42.755
6.9029,8.3064,3.8478,31.446,-8.1872,36.349,-11.105,29.132,1.5108,17.278,-6.0749,21.029,13.348,43.433,1.8332,42.755
6.8483,8.3483,3.6055,31.344,-8.1543,36.262,-11.06,29.133,1.4841,17.268,-6.0568,21.049,13.232,43.574,1.7758,42.834
6.8483,8.3483,3.6055,31.344,-8.1543,36.262,-11.06,29.133,1.4841,17.268,-6.0568,21.049,13.232,43.574,1.7758,42.834
6.8483,8.3483,3.6055,31.344,-8.1543,36.262,-11.06,29.133,1.4841,17.268,-6.0568,21.049,13.232,43.574,1.7758,42.834
6.7936,8.3899,3.3636,31.241,-8.1201,36.173,-11.013,29.134,1.4575,17.256,-6.0374,21.069,13.117,43.715,1.7185,42.913
6.7386,8.4311,3.1221,31.136,-8.0846,36.083,-10.966,29.134,1.4309,17.245,-6.0167,21.087,13.002,43.855,1.6612,42.99
6.7386,8.4311,3.1221,31.136,-8.0846,36.083,-10.966,29.134,1.4309,17.245,-6.0167,21.087,13.002,43.855,1.6612,42.99
6.6834,8.4719,2.881,31.03,-8.0477,35.992,-10.917,29.133,1.4043,17.233,-5.9947,21.104,12.888,43.995,1.604,43.066
6.6834,8.4719,2.881,31.03,-8.0477,35.992,-10.917,29.133,1.4043,17.233,-5.9947,21.104,12.888,43.995,1.604,43.066
6.628,8.5124,2.6402,30.922,-8.0096,35.899,-10.866,29.132,1.3778,17.22,-5.9714,21.119,12.775,44.134,1.547,43.142
6.628,8.5124,2.6402,30.922,-8.0096,35.899,-10.866,29.132,1.3778,17.22,-5.9714,21.119,12.775,44.134,1.547,43.142
6.5724,8.5525,2.3999,30.812,-7.9702,35.804,-10.815,29.13,1.3513,17.207,-5.9469,21.133,12.663,44.273,1.49,43.217
6.5724,8.5525,2.3999,30.812,-7.9702,35.804,-10.815,29.13,1.3513,17.207,-5.9469,21.133,12.663,44.273,1.49,43.217
6.5166,8.5922,2.1601,30.701,-7.9295,35.708,-10.762,29.127,1.3248,17.194,-5.9211,21.146,12.551,44.412,1.4331,43.29
6.5166,8.5922,2.1601,30.701,-7.9295,35.708,-10.762,29.127,1.3248,17.194,-5.9211,21.146,12.551,44.412,1.4331,43.29
6.4606,8.6316,1.9206,30.589,-7.8875,35.61,-10.708,29.123,1.2983,17.18,-5.8939,21.157,12.441,44.55,1.3762,43.363
6.4606,8.6316,1.9206,30.589,-7.8875,35.61,-10.708,29.123,1.2983,17.18,-5.8939,21.157,12.441,44.55,1.3762,43.363
6.4044,8.6706,1.6816,30.474,-7.8443,35.511,-10.653,29.119,1.2719,17.165,-5.8656,21.167,12.331,44.688,1.3195,43.435
6.4044,8.6706,1.6816,30.474,-7.8443,35.511,-10.653,29.119,1.2719,17.165,-5.8656,21.167,12.331,44.688,1.3195,43.435
6.3479,8.7092,1.4431,30.359,-7.7997,35.411,-10.597,29.115,1.2456,17.15,-5.8359,21.176,12.221,44.826,1.2629,43.505
6.3479,8.7092,1.4431,30.359,-7.7997,35.411,-10.597,29.115,1.2456,17.15,-5.8359,21.176,12.221,44.826,1.2629,43.505
6.2913,8.7474,1.205,30.242,-7.7538,35.309,-10.54,29.11,1.2192,17.135,-5.805,21.184,12.113,44.963,1.2063,43.575
6.2913,8.7474,1.205,30.242,-7.7538,35.309,-10.54,29.11,1.2192,17.135,-5.805,21.184,12.113,44.963,1.2063,43.575
6.2913,8.7474,1.205,30.242,-7.7538,35.309,-10.54,29.11,1.2192,17.135,-5.805,21.184,12.113,44.963,1.2063,43.575
6.2345,8.7853,0.9674,30.123,-7.7067,35.205,-10.481,29.104,1.1929,17.119,-5.7728,21.19,12.005,45.099,1.1498,43.644
6.1774,8.8228,0.73028,30.003,-7.6583,35.1,-10.421,29.097,1.1667,17.102,-5.7394,21.195,11.898,45.236,1.0935,43.712
6.1202,8.8599,0.49365,29.881,-7.6086,34.994,-10.36,29.09,1.1405,17.085,-5.7047,21.199,11.792,45.372,1.0372,43.779
6.1202,8.8599,0.49365,29.881,-7.6086,34.994,-10.36,29.09,1.1405,17.085,-5.7047,21.199,11.792,45.372,1.0372,43.779
6.1202,8.8599,0.49365,29.881,-7.6086,34.994,-10.36,29.09,1.1405,17.085,-5.7047,21.199,11.792,45.372,1.0372,43.779
6.0628,8.8966,0.25752,29.758,-7.5576,34.886,-10.298,29.082,1.1143,17.068,-5.6688,21.201,11.686,45.507,0.98098,43.846
6.0628,8.8966,0.25752,29.758,-7.5576,34.886,-10.298,29.082,1.1143,17.068,-5.6688,21.201,11.686,45.507,0.98098,43.846
6.0628,8.8966,0.25752,29.758,-7.5576,34.886,-10.298,29.082,1.1143,17.068,-5.6688,21.201,11.686,45.507,0.98098,43.846
6.0051,8.933,0.021892,29.634,-7.5054,34.776,-10.234,29.074,1.0882,17.05,-5.6317,21.202,11.581,45.642,0.92487,43.911
5.9473,8.969,-0.21321,29.508,-7.4519,34.666,-10.17,29.065,1.0621,17.032,-5.5933,21.202,11.477,45.777,0.86886,43.975
5.9473,8.969,-0.21321,29.508,-7.4519,34.666,-10.17,29.065,1.0621,17.032,-5.5933,21.202,11.477,45.777,0.86886,43.975
5.8892,9.0045,-0.44779,29.38,-7.3971,34.553,-10.104,29.055,1.036,17.013,-5.5537,21.2,11.374,45.911,0.81294,44.038
5.831,9.0398,-0.68184,29.251,-7.3411,34.44,-10.037,29.045,1.01,16.994,-5.5128,21.198,11.271,46.045,0.75711,44.101
5.831,9.0398,-0.68184,29.251,-7.3411,34.44,-10.037,29.045,1.01,16.994,-5.5128,21.198,11.271,46.045,0.75711,44.101
5.831,9.0398,-0.68184,29.251,-7.3411,34.44,-10.037,29.045,1.01,16.994,-5.5128,21.198,11.271,46.045,0.75711,44.101
5.7726,9.0746,-0.91534,29.121,-7.2838,34.325,-9.969,29.034,0.98407,16.974,-5.4708,21.194,11.169,46.179,0.70137,44.162
5.7726,9.0746,-0.91534,29.121,-7.2838,34.325,-9.969,29.034,0.98407,16.974,-5.4708,21.194,11.169,46.179,0.70137,44.162
5.7139,9.109,-1.1483,28.989,-7.2253,34.209,-9.8997,29.023,0.95816,16.954,-5.4275,21.188,11.068,46.312,0.64572,44.223
5.7139,9.109,-1.1483,28.989,-7.2253,34.209,-9.8997,29.023,0.95816,16.954,-5.4275,21.188,11.068,46.312,0.64572,44.223
5.7139,9.109,-1.1483,28.989,-7.2253,34.209,-9.8997,29.023,0.95816,16.954,-5.4275,21.188,11.068,46.312,0.64572,44.223
5.6551,9.1431,-1.3807,28.855,-7.1655,34.091,-9.8293,29.011,0.9323,16.933,-5.3831,21.182,10.968,46.444,0.59017,44.283
5.5961,9.1767,-1.6125,28.72,-7.1045,33.972,-9.7577,28.998,0.90649,16.912,-5.3374,21.174,10.868,46.576,0.53471,44.341
5.5961,9.1767,-1.6125,28.72,-7.1045,33.972,-9.7577,28.998,0.90649,16.912,-5.3374,21.174,10.868,46.576,0.53471,44.341
5.5369,9.21,-1.8438,28.584,-7.0422,33.851,-9.6849,28.985,0.88073,16.89,-5.2906,21.164,10.769,46.708,0.47934,44.399
5.4775,9.2429,-2.0744,28.446,-6.9787,33.73,-9.611,28.971,0.85502,16.868,-5.2426,21.154,10.671,46.839,0.42407,44.456
5.4775,9.2429,-2.0744,28.446,-6.9787,33.73,-9.611,28.971,0.85502,16.868,-5.2426,21.154,10.671,46.839,0.42407,44.456
5.4775,9.2429,-2.0744,28.446,-6.9787,33.73,-9.611,28.971,0.85502,16.868,-5.2426,21.154,10.671,46.839,0.42407,44.456
5.4179,9.2754,-2.3045,28.307,-6.914,33.607,-9.536,28.956,0.82937,16.845,-5.1934,21.142,10.573,46.97,0.36889,44.512
5.4179,9.2754,-2.3045,28.307,-6.914,33.607,-9.536,28.956,0.82937,16.845,-5.1934,21.142,10.573,46.97,0.36889,44.512
5.3581,9.3075,-2.534,28.167,-6.8481,33.482,-9.4598,28.941,0.80376,16.822,-5.143,21.129,10.476,47.1,0.31381,44.567
5.3581,9.3075,-2.534,28.167,-6.8481,33.482,-9.4598,28.941,0.80376,16.822,-5.143,21.129,10.476,47.1,0.31381,44.567
5.2981,9.3392,-2.7628,28.025,-6.7809,33.357,-9.3825,28.926,0.77821,16.798,-5.0915,21.115,10.38,47.23,0.25882,44.621
5.2981,9.3392,-2.7628,28.025,-6.7809,33.357,-9.3825,28.926,0.77821,16.798,-5.0915,21.115,10.38,47.23,0.25882,44.621
5.238,9.3706,-2.9911,27.881,-6.7125,33.23,-9.304,28.909,0.75272,16.774,-5.0389,21.099,10.284,47.359,0.20392,44.674
5.238,9.3706,-2.9911,27.881,-6.7125,33.23,-9.304,28.909,0.75272,16.774,-5.0389,21.099,10.284,47.359,0.20392,44.674
5.1777,9.4015,-3.2187,27.737,-6.6429,33.101,-9.2244,28.893,0.72728,16.749,-4.985,21.083,10.189,47.488,0.14912,44.726
5.1777,9.4015,-3.2187,27.737,-6.6429,33.101,-9.2244,28.893,0.72728,16.749,-4.985,21.083,10.189,47.488,0.14912,44.726
5.1171,9.4321,-3.4457,27.59,-6.5721,32.972,-9.1438,28.875,0.7019,16.724,-4.9301,21.065,10.095,47.616,0.094418,44.778
5.1171,9.4321,-3.4457,27.59,-6.5721,32.972,-9.1438,28.875,0.7019,16.724,-4.9301,21.065,10.095,47.616,0.094418,44.778
5.1171,9.4321,-3.4457,27.59,-6.5721,32.972,-9.1438,28.875,0.7019,16.724,-4.9301,21.065,10.095,47.616,0.094418,44.778
5.0564,9.4622,-3.672,27.443,-6.5001,32.841,-9.0619,28.857,0.67657,16.699,-4.874,21.045,10.002,47.744,0.039808,44.828
4.9956,9.492,-3.8977,27.294,-6.4269,32.709,-8.979,28.839,0.65131,16.673,-4.8168,21.025,9.9088,47.871,-0.014706,44.877
4.9956,9.492,-3.8977,27.294,-6.4269,32.709,-8.979,28.839,0.65131,16.673,-4.8168,21.025,9.9088,47.871,-0.014706,44.877
4.9345,9.5214,-4.1228,27.144,-6.3526,32.575,-8.895,28.82,0.6261,16.646,-4.7585,21.003,9.8166,47.998,-0.069124,44.926
4.9345,9.5214,-4.1228,27.144,-6.3526,32.575,-8.895,28.82,0.6261,16.646,-4.7585,21.003,9.8166,47.998,-0.069124,44.926
4.8733,9.5504,-4.3471,26.992,-6.277,32.441,-8.8099,28.8,0.60096,16.619,-4.699,20.98,9.7251,48.125,-0.12345,44.974
4.8733,9.5504,-4.3471,26.992,-6.277,32.441,-8.8099,28.8,0.60096,16.619,-4.699,20.98,9.7251,48.125,-0.12345,44.974
4.8119,9.5789,-4.5709,26.839,-6.2003,32.305,-8.7237,28.78,0.57588,16.592,-4.6385,20.956,9.6342,48.25,-0.17767,45.02
4.8119,9.5789,-4.5709,26.839,-6.2003,32.305,-8.7237,28.78,0.57588,16.592,-4.6385,20.956,9.6342,48.25,-0.17767,45.02
4.8119,9.5789,-4.5709,26.839,-6.2003,32.305,-8.7237,28.78,0.57588,16.592,-4.6385,20.956,9.6342,48.25,-0.17767,45.02
4.7503,9.6071,-4.7939,26.685,-6.1224,32.168,-8.6365,28.759,0.55086,16.564,-4.5769,20.93,9.544,48.376,-0.2318,45.066
4.7503,9.6071,-4.7939,26.685,-6.1224,32.168,-8.6365,28.759,0.55086,16.564,-4.5769,20.93,9.544,48.376,-0.2318,45.066
4.7503,9.6071,-4.7939,26.685,-6.1224,32.168,-8.6365,28.759,0.55086,16.564,-4.5769,20.93,9.544,48.376,-0.2318,45.066
4.6267,9.6623,-5.2379,26.372,-5.963,31.89,-8.4587,28.716,0.50101,16.506,-4.4504,20.876,9.3654,48.625,-0.33977,45.155
4.6267,9.6623,-5.2379,26.372,-5.963,31.89,-8.4587,28.716,0.50101,16.506,-4.4504,20.876,9.3654,48.625,-0.33977,45.155
4.5646,9.6893,-5.4589,26.214,-5.8817,31.75,-8.3682,28.693,0.47618,16.477,-4.3856,20.847,9.2771,48.748,-0.39361,45.198
4.5646,9.6893,-5.4589,26.214,-5.8817,31.75,-8.3682,28.693,0.47618,16.477,-4.3856,20.847,9.2771,48.748,-0.39361,45.198
4.5024,9.7159,-5.6792,26.054,-5.7991,31.608,-8.2767,28.67,0.45142,16.447,-4.3197,20.816,9.1894,48.872,-0.44736,45.24
4.5024,9.7159,-5.6792,26.054,-5.7991,31.608,-8.2767,28.67,0.45142,16.447,-4.3197,20.816,9.1894,48.872,-0.44736,45.24
4.5024,9.7159,-5.6792,26.054,-5.7991,31.608,-8.2767,28.67,0.45142,16.447,-4.3197,20.816,9.1894,48.872,-0.44736,45.24
4.44,9.7421,-5.8987,25.893,-5.7154,31.465,-8.1841,28.646,0.42673,16.417,-4.2528,20.785,9.1023,48.994,-0.501,45.281
4.3775,9.768,-6.1176,25.731,-5.6306,31.321,-8.0904,28.622,0.4021,16.386,-4.1848,20.752,9.0159,49.116,-0.55455,45.321
4.3775,9.768,-6.1176,25.731,-5.6306,31.321,-8.0904,28.622,0.4021,16.386,-4.1848,20.752,9.0159,49.116,-0.55455,45.321
4.3148,9.7934,-6.3357,25.567,-5.5447,31.176,-7.9958,28.598,0.37754,16.355,-4.1158,20.718,8.9301,49.238,-0.608,45.36
4.3148,9.7934,-6.3357,25.567,-5.5447,31.176,-7.9958,28.598,0.37754,16.355,-4.1158,20.718,8.9301,49.238,-0.608,45.36
4.252,9.8184,-6.5531,25.403,-5.4576,31.03,-7.9001,28.572,0.35306,16.323,-4.0458,20.683,8.8448,49.359,-0.66136,45.399
4.252,9.8184,-6.5531,25.403,-5.4576,31.03,-7.9001,28.572,0.35306,16.323,-4.0458,20.683,8.8448,49.359,-0.66136,45.399
4.252,9.8184,-6.5531,25.403,-5.4576,31.03,-7.9001,28.572,0.35306,16.323,-4.0458,20.683,8.8448,49.359,-0.66136,45.399
4.189,9.843,-6.7697,25.237,-5.3695,30.882,-7.8034,28.547,0.32864,16.29,-3.9748,20.647,8.7602,49.479,-0.71461,45.436
4.189,9.843,-6.7697,25.237,-5.3695,30.882,-7.8034,28.547,0.32864,16.29,-3.9748,20.647,8.7602,49.479,-0.71461,45.436
4.1258,9.8673,-6.9857,25.07,-5.2802,30.734,-7.7056,28.52,0.3043,16.258,-3.9028,20.609,8.6762,49.599,-0.76777,45.472
4.1258,9.8673,-6.9857,25.07,-5.2802,30.734,-7.7056,28.52,0.3043,16.258,-3.9028,20.609,8.6762,49.599,-0.76777,45.472
4.0626,9.8911,-7.2008,24.901,-5.1898,30.584,-7.6069,28.493,0.28003,16.224,-3.8298,20.57,8.5928,49.718,-0.82083,45.508
4.0626,9.8911,-7.2008,24.901,-5.1898,30.584,-7.6069,28.493,0.28003,16.224,-3.8298,20.57,8.5928,49.718,-0.82083,45.508
4.0626,9.8911,-7.2008,24.901,-5.1898,30.584,-7.6069,28.493,0.28003,16.224,-3.8298,20.57,8.5928,49.718,-0.82083,45.508
3.9356,9.9376,-7.6289,24.561,-5.0058,30.282,-7.4065,28.438,0.23171,16.157,-3.6808,20.489,8.4277,49.955,-0.92665,45.576
3.9356,9.9376,-7.6289,24.561,-5.0058,30.282,-7.4065,28.438,0.23171,16.157,-3.6808,20.489,8.4277,49.955,-0.92665,45.576
3.8719,9.9602,-7.8418,24.389,-4.9122,30.129,-7.3048,28.41,0.20767,16.122,-3.6049,20.447,8.3461,50.073,-0.97941,45.609
3.8719,9.9602,-7.8418,24.389,-4.9122,30.129,-7.3048,28.41,0.20767,16.122,-3.6049,20.447,8.3461,50.073,-0.97941,45.609
3.8719,9.9602,-7.8418,24.389,-4.9122,30.129,-7.3048,28.41,0.20767,16.122,-3.6049,20.447,8.3461,50.073,-0.97941,45.609
3.8081,9.9824,-8.0539,24.216,-4.8175,29.976,-7.2021,28.38,0.1837,16.087,-3.5281,20.404,8.265,50.19,-1.0321,45.641
3.7442,10.004,-8.2652,24.041,-4.7217,29.821,-7.0984,28.351,0.1598,16.051,-3.4503,20.359,8.1844,50.306,-1.0846,45.672
3.7442,10.004,-8.2652,24.041,-4.7217,29.821,-7.0984,28.351,0.1598,16.051,-3.4503,20.359,8.1844,50.306,-1.0846,45.672
3.6801,10.026,-8.4758,23.866,-4.6249,29.665,-6.9938,28.321,0.13599,16.015,-3.3715,20.314,8.1045,50.422,-1.1371,45.702
3.6801,10.026,-8.4758,23.866,-4.6249,29.665,-6.9938,28.321,0.13599,16.015,-3.3715,20.314,8.1045,50.422,-1.1371,45.702
3.6159,10.047,-8.6856,23.689,-4.527,29.508,-6.8883,28.29,0.11226,15.978,-3.2919,20.267,8.0251,50.537,-1.1895,45.731
3.6159,10.047,-8.6856,23.689,-4.527,29.508,-6.8883,28.29,0.11226,15.978,-3.2919,20.267,8.0251,50.537,-1.1895,45.731
3.5516,10.067,-8.8946,23.512,-4.4281,29.35,-6.7818,28.259,0.088602,15.941,-3.2113,20.219,7.9462,50.651,-1.2417,45.759
3.5516,10.067,-8.8946,23.512,-4.4281,29.35,-6.7818,28.259,0.088602,15.941,-3.2113,20.219,7.9462,50.651,-1.2417,45.759
3.4872,10.088,-9.1027,23.333,-4.3281,29.192,-6.6744,28.228,0.065028,15.904,-3.1299,20.17,7.8679,50.765,-1.2939,45.786
3.4872,10.088,-9.1027,23.333,-4.3281,29.192,-6.6744,28.228,0.065028,15.904,-3.1299,20.17,7.8679,50.765,-1.2939,45.786
3.4227,10.107,-9.3101,23.153,-4.2272,29.032,-6.5661,28.195,0.041537,15.866,-3.0476,20.12,7.7902,50.878,-1.346,45.813
3.4227,10.107,-9.3101,23.153,-4.2272,29.032,-6.5661,28.195,0.041537,15.866,-3.0476,20.12,7.7902,50.878,-1.346,45.813
3.3581,10.127,-9.5167,22.972,-4.1252,28.871,-6.4568,28.163,0.018128,15.827,-2.9644,20.068,7.713,50.991,-1.3979,45.838
3.3581,10.127,-9.5167,22.972,-4.1252,28.871,-6.4568,28.163,0.018128,15.827,-2.9644,20.068,7.713,50.991,-1.3979,45.838
3.3581,10.127,-9.5167,22.972,-4.1252,28.871,-6.4568,28.163,0.018128,15.827,-2.9644,20.068,7.713,50.991,-1.3979,45.838
3.2933,10.146,-9.7225,22.79,-4.0222,28.71,-6.3467,28.13,-0.0051975,15.788,-2.8803,20.016,7.6363,51.103,-1.4498,45.863
3.2285,10.165,-9.9274,22.607,-3.9182,28.547,-6.2356,28.096,-0.028438,15.749,-2.7954,19.962,7.5601,51.214,-1.5016,45.886
3.2285,10.165,-9.9274,22.607,-3.9182,28.547,-6.2356,28.096,-0.028438,15.749,-2.7954,19.962,7.5601,51.214,-1.5016,45.886
3.1636,10.183,-10.132,22.423,-3.8132,28.384,-6.1237,28.062,-0.051593,15.709,-2.7096,19.908,7.4845,51.325,-1.5532,45.909
3.1636,10.183,-10.132,22.423,-3.8132,28.384,-6.1237,28.062,-0.051593,15.709,-2.7096,19.908,7.4845,51.325,-1.5532,45.909
3.0986,10.201,-10.335,22.238,-3.7073,28.22,-6.0109,28.027,-0.074662,15.669,-2.623,19.852,7.4093,51.435,-1.6048,45.93
3.0986,10.201,-10.335,22.238,-3.7073,28.22,-6.0109,28.027,-0.074662,15.669,-2.623,19.852,7.4093,51.435,-1.6048,45.93
3.0335,10.218,-10.537,22.051,-3.6003,28.055,-5.8972,27.992,-0.097644,15.628,-2.5356,19.795,7.3347,51.544,-1.6562,45.951
3.0335,10.218,-10.537,22.051,-3.6003,28.055,-5.8972,27.992,-0.097644,15.628,-2.5356,19.795,7.3347,51.544,-1.6562,45.951
2.9683,10.235,-10.739,21.864,-3.4924,27.889,-5.7826,27.956,-0.12054,15.587,-2.4474,19.737,7.2606,51.652,-1.7076,45.971
2.9683,10.235,-10.739,21.864,-3.4924,27.889,-5.7826,27.956,-0.12054,15.587,-2.4474,19.737,7.2606,51.652,-1.7076,45.971
2.903,10.252,-10.94,21.676,-3.3836,27.722,-5.6673,27.92,-0.14334,15.545,-2.3584,19.678,7.187,51.76,-1.7588,45.99
2.903,10.252,-10.94,21.676,-3.3836,27.722,-5.6673,27.92,-0.14334,15.545,-2.3584,19.678,7.187,51.76,-1.7588,45.99
2.903,10.252,-10.94,21.676,-3.3836,27.722,-5.6673,27.92,-0.14334,15.545,-2.3584,19.678,7.187,51.76,-1.7588,45.99
2.8377,10.268,-11.14,21.487,-3.2738,27.554,-5.551,27.883,-0.16606,15.503,-2.2686,19.618,7.1138,51.868,-1.81,46.008
2.7723,10.284,-11.339,21.297,-3.163,27.385,-5.434,27.846,-0.18868,15.46,-2.178,19.557,7.0412,51.974,-1.861,46.025
2.7723,10.284,-11.339,21.297,-3.163,27.385,-5.434,27.846,-0.18868,15.46,-2.178,19.557,7.0412,51.974,-1.861,46.025
2.7068,10.299,-11.537,21.106,-3.0513,27.216,-5.3161,27.808,-0.21122,15.417,-2.0867,19.495,6.969,52.08,-1.9119,46.041
2.7068,10.299,-11.537,21.106,-3.0513,27.216,-5.3161,27.808,-0.21122,15.417,-2.0867,19.495,6.969,52.08,-1.9119,46.041
2.6413,10.315,-11.735,20.914,-2.9387,27.046,-5.1974,27.77,-0.23366,15.373,-1.9946,19.432,6.8973,52.185,-1.9628,46.056
2.6413,10.315,-11.735,20.914,-2.9387,27.046,-5.1974,27.77,-0.23366,15.373,-1.9946,19.432,6.8973,52.185,-1.9628,46.056
2.5757,10.329,-11.931,20.722,-2.8252,26.875,-5.078,27.731,-0.25601,15.329,-1.9018,19.368,6.8261,52.289,-2.0135,46.07
2.5757,10.329,-11.931,20.722,-2.8252,26.875,-5.078,27.731,-0.25601,15.329,-1.9018,19.368,6.8261,52.289,-2.0135,46.07
2.5757,10.329,-11.931,20.722,-2.8252,26.875,-5.078,27.731,-0.25601,15.329,-1.9018,19.368,6.8261,52.289,-2.0135,46.07
2.5101,10.343,-12.127,20.528,-2.7108,26.703,-4.9577,27.692,-0.27826,15.284,-1.8083,19.303,6.7553,52.393,-2.0641,46.083
2.4444,10.357,-12.322,20.333,-2.5955,26.531,-4.8366,27.652,-0.30042,15.239,-1.7141,19.236,6.685,52.496,-2.1146,46.095
2.4444,10.357,-12.322,20.333,-2.5955,26.531,-4.8366,27.652,-0.30042,15.239,-1.7141,19.236,6.685,52.496,-2.1146,46.095
2.3787,10.371,-12.516,20.138,-2.4793,26.357,-4.7148,27.612,-0.32248,15.194,-1.6191,19.169,6.6152,52.598,-2.165,46.107
2.3787,10.371,-12.516,20.138,-2.4793,26.357,-4.7148,27.612,-0.32248,15.194,-1.6191,19.169,6.6152,52.598,-2.165,46.107
2.3129,10.384,-12.709,19.942,-2.3622,26.183,-4.5923,27.572,-0.34445,15.148,-1.5235,19.101,6.5457,52.7,-2.2153,46.117
2.3129,10.384,-12.709,19.942,-2.3622,26.183,-4.5923,27.572,-0.34445,15.148,-1.5235,19.101,6.5457,52.7,-2.2153,46.117
2.3129,10.384,-12.709,19.942,-2.3622,26.183,-4.5923,27.572,-0.34445,15.148,-1.5235,19.101,6.5457,52.7,-2.2153,46.117
2.2471,10.397,-12.901,19.745,-2.2443,26.009,-4.4689,27.531,-0.36632,15.101,-1.4272,19.031,6.4768,52.801,-2.2655,46.127
2.2471,10.397,-12.901,19.745,-2.2443,26.009,-4.4689,27.531,-0.36632,15.101,-1.4272,19.031,6.4768,52.801,-2.2655,46.127
2.1813,10.409,-13.092,19.547,-2.1255,25.833,-4.3449,27.489,-0.38809,15.055,-1.3302,18.961,6.4082,52.901,-2.3156,46.135
2.1813,10.409,-13.092,19.547,-2.1255,25.833,-4.3449,27.489,-0.38809,15.055,-1.3302,18.961,6.4082,52.901,-2.3156,46.135
2.1813,10.409,-13.092,19.547,-2.1255,25.833,-4.3449,27.489,-0.38809,15.055,-1.3302,18.961,6.4082,52.901,-2.3156,46.135
2.1813,10.409,-13.092,19.547,-2.1255,25.833,-4.3449,27.489,-0.38809,15.055,-1.3302,18.961,6.4082,52.901,-2.3156,46.135
2.0495,10.432,-13.472,19.15,-1.8853,25.48,-4.0946,27.404,-0.43134,14.959,-1.1344,18.817,6.2724,53.099,-2.4155,46.15
2.0495,10.432,-13.472,19.15,-1.8853,25.48,-4.0946,27.404,-0.43134,14.959,-1.1344,18.817,6.2724,53.099,-2.4155,46.15
2.0495,10.432,-13.472,19.15,-1.8853,25.48,-4.0946,27.404,-0.43134,14.959,-1.1344,18.817,6.2724,53.099,-2.4155,46.15
1.9177,10.454,-13.849,18.749,-1.6419,25.125,-3.8415,27.318,-0.47419,14.862,-0.93603,18.67,6.1383,53.293,-2.5149,46.16
1.9177,10.454,-13.849,18.749,-1.6419,25.125,-3.8415,27.318,-0.47419,14.862,-0.93603,18.67,6.1383,53.293,-2.5149,46.16
1.8518,10.464,-14.036,18.547,-1.519,24.946,-3.714,27.274,-0.49546,14.813,-0.83595,18.595,6.0719,53.389,-2.5644,46.164
1.8518,10.464,-14.036,18.547,-1.519,24.946,-3.714,27.274,-0.49546,14.813,-0.83595,18.595,6.0719,53.389,-2.5644,46.164
1.7859,10.474,-14.222,18.345,-1.3952,24.766,-3.5857,27.229,-0.51663,14.764,-0.73529,18.519,6.0058,53.485,-2.6138,46.167
1.7859,10.474,-14.222,18.345,-1.3952,24.766,-3.5857,27.229,-0.51663,14.764,-0.73529,18.519,6.0058,53.485,-2.6138,46.167
1.7859,10.474,-14.222,18.345,-1.3952,24.766,-3.5857,27.229,-0.51663,14.764,-0.73529,18.519,6.0058,53.485,-2.6138,46.167
1.7201,10.484,-14.407,18.143,-1.2707,24.586,-3.4568,27.184,-0.5377,14.714,-0.63405,18.442,5.9401,53.58,-2.6631,46.169
1.7201,10.484,-14.407,18.143,-1.2707,24.586,-3.4568,27.184,-0.5377,14.714,-0.63405,18.442,5.9401,53.58,-2.6631,46.169
1.7201,10.484,-14.407,18.143,-1.2707,24.586,-3.4568,27.184,-0.5377,14.714,-0.63405,18.442,5.9401,53.58,-2.6631,46.169
1.5883,10.502,-14.775,17.735,-1.0193,24.225,-3.1971,27.093,-0.57952,14.612,-0.42992,18.285,5.81,53.766,-2.7614,46.17
1.5883,10.502,-14.775,17.735,-1.0193,24.225,-3.1971,27.093,-0.57952,14.612,-0.42992,18.285,5.81,53.766,-2.7614,46.17
1.5883,10.502,-14.775,17.735,-1.0193,24.225,-3.1971,27.093,-0.57952,14.612,-0.42992,18.285,5.81,53.766,-2.7614,46.17
1.5225,10.51,-14.957,17.531,-0.89248,24.043,-3.0663,27.046,-0.60027,14.561,-0.32704,18.205,5.7455,53.859,-2.8104,46.169
1.5225,10.51,-14.957,17.531,-0.89248,24.043,-3.0663,27.046,-0.60027,14.561,-0.32704,18.205,5.7455,53.859,-2.8104,46.169
1.4566,10.518,-15.139,17.325,-0.7649,23.86,-2.9349,27,-0.62091,14.509,-0.22365,18.124,5.6813,53.95,-2.8593,46.167
1.4566,10.518,-15.139,17.325,-0.7649,23.86,-2.9349,27,-0.62091,14.509,-0.22365,18.124,5.6813,53.95,-2.8593,46.167
1.4566,10.518,-15.139,17.325,-0.7649,23.86,-2.9349,27,-0.62091,14.509,-0.22365,18.124,5.6813,53.95,-2.8593,46.167
1.3251,10.532,-15.499,16.913,-0.50753,23.494,-2.6702,26.905,-0.66188,14.404,-0.015353,17.96,5.5541,54.131,-2.9566,46.16
1.3251,10.532,-15.499,16.913,-0.50753,23.494,-2.6702,26.905,-0.66188,14.404,-0.015353,17.96,5.5541,54.131,-2.9566,46.16
1.2594,10.539,-15.678,16.707,-0.37777,23.31,-2.537,26.856,-0.68221,14.351,0.089522,17.876,5.491,54.22,-3.0051,46.156
1.2594,10.539,-15.678,16.707,-0.37777,23.31,-2.537,26.856,-0.68221,14.351,0.089522,17.876,5.491,54.22,-3.0051,46.156
1.2594,10.539,-15.678,16.707,-0.37777,23.31,-2.537,26.856,-0.68221,14.351,0.089522,17.876,5.491,54.22,-3.0051,46.156
1.1938,10.545,-15.856,16.499,-0.24729,23.126,-2.4032,26.808,-0.70242,14.297,0.19486,17.792,5.4283,54.308,-3.0535,46.15
1.1282,10.551,-16.033,16.292,-0.11612,22.941,-2.2689,26.759,-0.72253,14.243,0.30066,17.707,5.3659,54.395,-3.1018,46.143
1.1282,10.551,-16.033,16.292,-0.11612,22.941,-2.2689,26.759,-0.72253,14.243,0.30066,17.707,5.3659,54.395,-3.1018,46.143
1.0627,10.557,-16.209,16.083,0.015733,22.755,-2.134,26.709,-0.74252,14.188,0.40689,17.621,5.3038,54.481,-3.1499,46.136
1.0627,10.557,-16.209,16.083,0.015733,22.755,-2.134,26.709,-0.74252,14.188,0.40689,17.621,5.3038,54.481,-3.1499,46.136
0.99719,10.562,-16.385,15.875,0.14827,22.569,-1.9986,26.659,-0.7624,14.133,0.51355,17.534,5.2421,54.567,-3.198,46.127
0.99719,10.562,-16.385,15.875,0.14827,22.569,-1.9986,26.659,-0.7624,14.133,0.51355,17.534,5.2421,54.567,-3.198,46.127
0.93179,10.567,-16.559,15.666,0.28146,22.383,-1.8627,26.608,-0.78217,14.078,0.62063,17.446,5.1807,54.652,-3.2459,46.118
0.93179,10.567,-16.559,15.666,0.28146,22.383,-1.8627,26.608,-0.78217,14.078,0.62063,17.446,5.1807,54.652,-3.2459,46.118
0.93179,10.567,-16.559,15.666,0.28146,22.383,-1.8627,26.608,-0.78217,14.078,0.62063,17.446,5.1807,54.652,-3.2459,46.118
0.86648,10.571,-16.732,15.456,0.41532,22.196,-1.7263,26.557,-0.80183,14.022,0.7281,17.358,5.1196,54.736,-3.2937,46.107
0.80125,10.575,-16.905,15.246,0.54981,22.009,-1.5893,26.506,-0.82138,13.966,0.83596,17.268,5.0588,54.819,-3.3413,46.096
0.80125,10.575,-16.905,15.246,0.54981,22.009,-1.5893,26.506,-0.82138,13.966,0.83596,17.268,5.0588,54.819,-3.3413,46.096
0.73611,10.579,-17.077,15.036,0.68494,21.821,-1.4519,26.454,-0.84081,13.909,0.94419,17.178,4.9984,54.901,-3.3889,46.083
0.73611,10.579,-17.077,15.036,0.68494,21.821,-1.4519,26.454,-0.84081,13.909,0.94419,17.178,4.9984,54.901,-3.3889,46.083
0.73611,10.579,-17.077,15.036,0.68494,21.821,-1.4519,26.454,-0.84081,13.909,0.94419,17.178,4.9984,54.901,-3.3889,46.083
0.67107,10.582,-17.247,14.825,0.8207,21.633,-1.314,26.402,-0.86013,13.852,1.0528,17.087,4.9382,54.982,-3.4363,46.07
0.67107,10.582,-17.247,14.825,0.8207,21.633,-1.314,26.402,-0.86013,13.852,1.0528,17.087,4.9382,54.982,-3.4363,46.07
0.67107,10.582,-17.247,14.825,0.8207,21.633,-1.314,26.402,-0.86013,13.852,1.0528,17.087,4.9382,54.982,-3.4363,46.07
0.54129,10.587,-17.586,14.403,1.094,21.256,-1.0369,26.295,-0.89842,13.737,1.271,16.903,4.8187,55.142,-3.5307,46.04
0.54129,10.587,-17.586,14.403,1.094,21.256,-1.0369,26.295,-0.89842,13.737,1.271,16.903,4.8187,55.142,-3.5307,46.04
0.47657,10.589,-17.754,14.192,1.2316,21.067,-0.89764,26.242,-0.9174,13.678,1.3806,16.809,4.7594,55.221,-3.5778,46.024
0.47657,10.589,-17.754,14.192,1.2316,21.067,-0.89764,26.242,-0.9174,13.678,1.3806,16.809,4.7594,55.221,-3.5778,46.024
0.41197,10.591,-17.921,13.98,1.3697,20.877,-0.75798,26.188,-0.93625,13.62,1.4905,16.715,4.7004,55.298,-3.6247,46.007
0.41197,10.591,-17.921,13.98,1.3697,20.877,-0.75798,26.188,-0.93625,13.62,1.4905,16.715,4.7004,55.298,-3.6247,46.007
0.3475,10.592,-18.088,13.768,1.5084,20.687,-0.6179,26.133,-0.95499,13.56,1.6006,16.62,4.6416,55.375,-3.6714,45.989
0.3475,10.592,-18.088,13.768,1.5084,20.687,-0.6179,26.133,-0.95499,13.56,1.6006,16.62,4.6416,55.375,-3.6714,45.989
0.28316,10.593,-18.253,13.556,1.6477,20.497,-0.47742,26.078,-0.97361,13.501,1.7111,16.524,4.5831,55.451,-3.7181,45.969
0.28316,10.593,-18.253,13.556,1.6477,20.497,-0.47742,26.078,-0.97361,13.501,1.7111,16.524,4.5831,55.451,-3.7181,45.969
0.21896,10.593,-18.417,13.344,1.7875,20.306,-0.33655,26.022,-0.99212,13.441,1.8218,16.428,4.5248,55.526,-3.7646,45.949
0.21896,10.593,-18.417,13.344,1.7875,20.306,-0.33655,26.022,-0.99212,13.441,1.8218,16.428,4.5248,55.526,-3.7646,45.949
0.21896,10.593,-18.417,13.344,1.7875,20.306,-0.33655,26.022,-0.99212,13.441,1.8218,16.428,4.5248,55.526,-3.7646,45.949
0.1549,10.593,-18.581,13.131,1.9279,20.116,-0.1953,25.966,-1.0105,13.38,1.9328,16.331,4.4668,55.6,-3.8109,45.928
0.090999,10.593,-18.743,12.919,2.0687,19.925,-0.053689,25.91,-1.0288,13.319,2.044,16.233,4.4091,55.673,-3.8572,45.906
0.090999,10.593,-18.743,12.919,2.0687,19.925,-0.053689,25.91,-1.0288,13.319,2.044,16.233,4.4091,55.673,-3.8572,45.906
0.02725,10.592,-18.905,12.706,2.2101,19.733,0.088274,25.853,-1.0469,13.258,2.1554,16.134,4.3516,55.746,-3.9033,45.883
0.02725,10.592,-18.905,12.706,2.2101,19.733,0.088274,25.853,-1.0469,13.258,2.1554,16.134,4.3516,55.746,-3.9033,45.883
-0.036335,10.591,-19.066,12.493,2.352,19.542,0.23058,25.796,-1.0649,13.196,2.267,16.035,4.2943,55.817,-3.9492,45.859
-0.036335,10.591,-19.066,12.493,2.352,19.542,0.23058,25.796,-1.0649,13.196,2.267,16.035,4.2943,55.817,-3.9492,45.859
-0.09975,10.589,-19.226,12.281,2.4944,19.35,0.37321,25.738,-1.0828,13.134,2.3788,15.935,4.2373,55.887,-3.9951,45.834
-0.09975,10.589,-19.226,12.281,2.4944,19.35,0.37321,25.738,-1.0828,13.134,2.3788,15.935,4.2373,55.887,-3.9951,45.834
-0.09975,10.589,-19.226,12.281,2.4944,19.35,0.37321,25.738,-1.0828,13.134,2.3788,15.935,4.2373,55.887,-3.9951,45.834
-0.16299,10.587,-19.385,12.068,2.6372,19.158,0.51615,25.68,-1.1006,13.072,2.4908,15.834,4.1805,55.957,-4.0408,45.808
-0.16299,10.587,-19.385,12.068,2.6372,19.158,0.51615,25.68,-1.1006,13.072,2.4908,15.834,4.1805,55.957,-4.0408,45.808
-0.16299,10.587,-19.385,12.068,2.6372,19.158,0.51615,25.68,-1.1006,13.072,2.4908,15.834,4.1805,55.957,-4.0408,45.808
-0.28891,10.582,-19.7,11.642,2.9244,18.773,0.80294,25.562,-1.1358,12.945,2.7153,15.631,4.0675,56.093,-4.1317,45.753
-0.28891,10.582,-19.7,11.642,2.9244,18.773,0.80294,25.562,-1.1358,12.945,2.7153,15.631,4.0675,56.093,-4.1317,45.753
-0.35159,10.579,-19.856,11.429,3.0686,18.58,0.94676,25.503,-1.1532,12.882,2.8278,15.528,4.0113,56.159,-4.177,45.724
-0.35159,10.579,-19.856,11.429,3.0686,18.58,0.94676,25.503,-1.1532,12.882,2.8278,15.528,4.0113,56.159,-4.177,45.724
-0.35159,10.579,-19.856,11.429,3.0686,18.58,0.94676,25.503,-1.1532,12.882,2.8278,15.528,4.0113,56.159,-4.177,45.724
-0.41406,10.576,-20.012,11.216,3.2133,18.387,1.0908,25.443,-1.1705,12.818,2.9404,15.425,3.9553,56.225,-4.2221,45.694
-0.41406,10.576,-20.012,11.216,3.2133,18.387,1.0908,25.443,-1.1705,12.818,2.9404,15.425,3.9553,56.225,-4.2221,45.694
-0.41406,10.576,-20.012,11.216,3.2133,18.387,1.0908,25.443,-1.1705,12.818,2.9404,15.425,3.9553,56.225,-4.2221,45.694
-0.53838,10.567,-20.32,10.791,3.5039,18.001,1.3798,25.321,-1.2048,12.688,3.1658,15.216,3.8439,56.353,-4.3118,45.631
-0.53838,10.567,-20.32,10.791,3.5039,18.001,1.3798,25.321,-1.2048,12.688,3.1658,15.216,3.8439,56.353,-4.3118,45.631
-0.60021,10.563,-20.473,10.578,3.6498,17.807,1.5246,25.26,-1.2217,12.623,3.2787,15.111,3.7885,56.416,-4.3565,45.598
-0.60021,10.563,-20.473,10.578,3.6498,17.807,1.5246,25.26,-1.2217,12.623,3.2787,15.111,3.7885,56.416,-4.3565,45.598
-0.66181,10.558,-20.625,10.366,3.7961,17.614,1.6696,25.198,-1.2385,12.557,3.3917,15.005,3.7332,56.477,-4.401,45.565
-0.66181,10.558,-20.625,10.366,3.7961,17.614,1.6696,25.198,-1.2385,12.557,3.3917,15.005,3.7332,56.477,-4.401,45.565
-0.72318,10.552,-20.776,10.154,3.9428,17.42,1.8148,25.136,-1.2551,12.491,3.5047,14.899,3.6782,56.538,-4.4454,45.53
-0.72318,10.552,-20.776,10.154,3.9428,17.42,1.8148,25.136,-1.2551,12.491,3.5047,14.899,3.6782,56.538,-4.4454,45.53
-0.72318,10.552,-20.776,10.154,3.9428,17.42,1.8148,25.136,-1.2551,12.491,3.5047,14.899,3.6782,56.538,-4.4454,45.53
-0.78431,10.546,-20.926,9.9417,4.0898,17.226,1.9603,25.073,-1.2717,12.425,3.6177,14.792,3.6233,56.598,-4.4896,45.494
-0.8452,10.54,-21.075,9.7298,4.2373,17.032,2.1059,25.01,-1.2881,12.358,3.7308,14.684,3.5685,56.656,-4.5336,45.457
-0.8452,10.54,-21.075,9.7298,4.2373,17.032,2.1059,25.01,-1.2881,12.358,3.7308,14.684,3.5685,56.656,-4.5336,45.457
-0.8452,10.54,-21.075,9.7298,4.2373,17.032,2.1059,25.01,-1.2881,12.358,3.7308,14.684,3.5685,56.656,-4.5336,45.457
-0.90583,10.533,-21.224,9.5182,4.385,16.839,2.2516,24.947,-1.3044,12.291,3.8438,14.576,3.5139,56.714,-4.5775,45.419
-0.90583,10.533,-21.224,9.5182,4.385,16.839,2.2516,24.947,-1.3044,12.291,3.8438,14.576,3.5139,56.714,-4.5775,45.419
-0.90583,10.533,-21.224,9.5182,4.385,16.839,2.2516,24.947,-1.3044,12.291,3.8438,14.576,3.5139,56.714,-4.5775,45.419
-1.0263,10.519,-21.518,9.0958,4.6815,16.45,2.5436,24.818,-1.3366,12.156,4.07,14.358,3.4052,56.827,-4.6648,45.341
-1.0263,10.519,-21.518,9.0958,4.6815,16.45,2.5436,24.818,-1.3366,12.156,4.07,14.358,3.4052,56.827,-4.6648,45.341
-1.0263,10.519,-21.518,9.0958,4.6815,16.45,2.5436,24.818,-1.3366,12.156,4.07,14.358,3.4052,56.827,-4.6648,45.341
-1.0862,10.511,-21.663,8.8851,4.8303,16.256,2.6898,24.753,-1.3525,12.088,4.183,14.248,3.3511,56.881,-4.7083,45.3
-1.1457,10.503,-21.808,8.6746,4.9793,16.062,2.8362,24.688,-1.3683,12.019,4.296,14.138,3.297,56.935,-4.7515,45.258
-1.1457,10.503,-21.808,8.6746,4.9793,16.062,2.8362,24.688,-1.3683,12.019,4.296,14.138,3.297,56.935,-4.7515,45.258
-1.205,10.494,-21.952,8.4646,5.1286,15.868,2.9826,24.622,-1.384,11.95,4.409,14.027,3.2431,56.987,-4.7946,45.215
-1.205,10.494,-21.952,8.4646,5.1286,15.868,2.9826,24.622,-1.384,11.95,4.409,14.027,3.2431,56.987,-4.7946,45.215
-1.264,10.485,-22.096,8.2549,5.2782,15.674,3.1291,24.556,-1.3995,11.881,4.5218,13.915,3.1894,57.039,-4.8375,45.171
-1.264,10.485,-22.096,8.2549,5.2782,15.674,3.1291,24.556,-1.3995,11.881,4.5218,13.915,3.1894,57.039,-4.8375,45.171
-1.264,10.485,-22.096,8.2549,5.2782,15.674,3.1291,24.556,-1.3995,11.881,4.5218,13.915,3.1894,57.039,-4.8375,45.171
-1.3227,10.476,-22.238,8.0456,5.4281,15.48,3.2757,24.49,-1.4149,11.811,4.6346,13.804,3.1357,57.09,-4.8803,45.127
-1.3227,10.476,-22.238,8.0456,5.4281,15.48,3.2757,24.49,-1.4149,11.811,4.6346,13.804,3.1357,57.09,-4.8803,45.127
-1.3811,10.466,-22.379,7.8367,5.5782,15.285,3.4224,24.423,-1.4302,11.741,4.7473,13.691,3.0822,57.139,-4.9228,45.081
-1.4391,10.456,-22.52,7.6282,5.7286,15.091,3.5691,24.355,-1.4453,11.671,4.8599,13.578,3.0287,57.188,-4.9652,45.034
-1.4391,10.456,-22.52,7.6282,5.7286,15.091,3.5691,24.355,-1.4453,11.671,4.8599,13.578,3.0287,57.188,-4.9652,45.034
-1.4969,10.445,-22.66,7.4202,5.8792,14.897,3.7159,24.287,-1.4603,11.6,4.9724,13.465,2.9754,57.235,-5.0075,44.986
-1.4969,10.445,-22.66,7.4202,5.8792,14.897,3.7159,24.287,-1.4603,11.6,4.9724,13.465,2.9754,57.235,-5.0075,44.986
-1.5543,10.434,-22.799,7.2128,6.03,14.703,3.8627,24.219,-1.4752,11.529,5.0847,13.351,2.9222,57.282,-5.0495,44.938
-1.5543,10.434,-22.799,7.2128,6.03,14.703,3.8627,24.219,-1.4752,11.529,5.0847,13.351,2.9222,57.282,-5.0495,44.938
-1.6114,10.423,-22.937,7.0058,6.181,14.509,4.0095,24.15,-1.49,11.458,5.1969,13.237,2.869,57.327,-5.0914,44.888
-1.6114,10.423,-22.937,7.0058,6.181,14.509,4.0095,24.15,-1.49,11.458,5.1969,13.237,2.869,57.327,-5.0914,44.888
-1.6114,10.423,-22.937,7.0058,6.181,14.509,4.0095,24.15,-1.49,11.458,5.1969,13.237,2.869,57.327,-5.0914,44.888
-1.6682,10.411,-23.074,6.7993,6.3323,14.315,4.1564,24.081,-1.5046,11.386,5.3089,13.122,2.8159,57.371,-5.1331,44.837
-1.6682,10.411,-23.074,6.7993,6.3323,14.315,4.1564,24.081,-1.5046,11.386,5.3089,13.122,2.8159,57.371,-5.1331,44.837
-1.6682,10.411,-23.074,6.7993,6.3323,14.315,4.1564,24.081,-1.5046,11.386,5.3089,13.122,2.8159,57.371,-5.1331,44.837
-1.7808,10.387,-23.346,6.3881,6.6353,13.927,4.4501,23.941,-1.5334,11.241,5.5324,12.892,2.71,57.457,-5.216,44.733
-1.8365,10.374,-23.481,6.1834,6.7871,13.734,4.5969,23.87,-1.5477,11.169,5.6439,12.776,2.6572,57.498,-5.2571,44.679
-1.8365,10.374,-23.481,6.1834,6.7871,13.734,4.5969,23.87,-1.5477,11.169,5.6439,12.776,2.6572,57.498,-5.2571,44.679
-1.8919,10.36,-23.615,5.9794,6.939,13.54,4.7437,23.799,-1.5618,11.096,5.7551,12.66,2.6044,57.538,-5.2981,44.624
-1.8919,10.36,-23.615,5.9794,6.939,13.54,4.7437,23.799,-1.5618,11.096,5.7551,12.66,2.6044,57.538,-5.2981,44.624
-1.8919,10.36,-23.615,5.9794,6.939,13.54,4.7437,23.799,-1.5618,11.096,5.7551,12.66,2.6044,57.538,-5.2981,44.624
-1.9469,10.347,-23.748,5.7759,7.0911,13.347,4.8904,23.728,-1.5757,11.022,5.8662,12.543,2.5517,57.577,-5.3389,44.568
-1.9469,10.347,-23.748,5.7759,7.0911,13.347,4.8904,23.728,-1.5757,11.022,5.8662,12.543,2.5517,57.577,-5.3389,44.568
-2.0015,10.333,-23.88,5.5732,7.2433,13.153,5.037,23.656,-1.5896,10.949,5.9769,12.426,2.499,57.615,-5.3795,44.511
-2.0015,10.333,-23.88,5.5732,7.2433,13.153,5.037,23.656,-1.5896,10.949,5.9769,12.426,2.499,57.615,-5.3795,44.511
-2.0558,10.318,-24.011,5.3711,7.3956,12.96,5.1836,23.584,-1.6033,10.875,6.0875,12.308,2.4464,57.652,-5.4199,44.454
-2.0558,10.318,-24.011,5.3711,7.3956,12.96,5.1836,23.584,-1.6033,10.875,6.0875,12.308,2.4464,57.652,-5.4199,44.454
-2.0558,10.318,-24.011,5.3711,7.3956,12.96,5.1836,23.584,-1.6033,10.875,6.0875,12.308,2.4464,57.652,-5.4199,44.454
-2.0558,10.318,-24.011,5.3711,7.3956,12.96,5.1836,23.584,-1.6033,10.875,6.0875,12.308,2.4464,57.652,-5.4199,44.454
-2.1632,10.288,-24.272,4.9691,7.7006,12.574,5.4766,23.438,-1.6303,10.726,6.3077,12.073,2.3413,57.722,-5.5001,44.335
-2.1632,10.288,-24.272,4.9691,7.7006,12.574,5.4766,23.438,-1.6303,10.726,6.3077,12.073,2.3413,57.722,-5.5001,44.335
-2.2163,10.273,-24.401,4.7693,7.8533,12.381,5.6229,23.364,-1.6436,10.651,6.4174,11.954,2.2888,57.756,-5.5399,44.274
-2.2163,10.273,-24.401,4.7693,7.8533,12.381,5.6229,23.364,-1.6436,10.651,6.4174,11.954,2.2888,57.756,-5.5399,44.274
-2.269,10.256,-24.529,4.5702,8.006,12.189,5.7691,23.29,-1.6568,10.576,6.5268,11.836,2.2363,57.788,-5.5796,44.213
-2.269,10.256,-24.529,4.5702,8.006,12.189,5.7691,23.29,-1.6568,10.576,6.5268,11.836,2.2363,57.788,-5.5796,44.213
-2.3212,10.24,-24.657,4.3719,8.1588,11.997,5.9151,23.215,-1.6698,10.5,6.6358,11.716,2.1838,57.82,-5.619,44.15
-2.3212,10.24,-24.657,4.3719,8.1588,11.997,5.9151,23.215,-1.6698,10.5,6.6358,11.716,2.1838,57.82,-5.619,44.15
-2.3731,10.223,-24.783,4.1745,8.3116,11.804,6.0611,23.14,-1.6827,10.425,6.7446,11.597,2.1314,57.85,-5.6582,44.086
-2.3731,10.223,-24.783,4.1745,8.3116,11.804,6.0611,23.14,-1.6827,10.425,6.7446,11.597,2.1314,57.85,-5.6582,44.086
-2.4246,10.206,-24.909,3.9779,8.4645,11.613,6.2068,23.065,-1.6955,10.349,6.853,11.478,2.079,57.879,-5.6972,44.021
-2.4246,10.206,-24.909,3.9779,8.4645,11.613,6.2068,23.065,-1.6955,10.349,6.853,11.478,2.079,57.879,-5.6972,44.021
-2.4246,10.206,-24.909,3.9779,8.4645,11.613,6.2068,23.065,-1.6955,10.349,6.853,11.478,2.079,57.879,-5.6972,44.021
-2.4756,10.189,-25.034,3.7821,8.6174,11.421,6.3524,22.989,-1.7082,10.272,6.961,11.358,2.0266,57.907,-5.736,43.955
-2.5262,10.171,-25.158,3.5872,8.7704,11.229,6.4979,22.913,-1.7207,10.196,7.0687,11.238,1.9742,57.934,-5.7746,43.889
-2.5764,10.152,-25.282,3.3933,8.9234,11.038,6.6431,22.836,-1.7331,10.119,7.176,11.117,1.9217,57.96,-5.813,43.821
-2.5764,10.152,-25.282,3.3933,8.9234,11.038,6.6431,22.836,-1.7331,10.119,7.176,11.117,1.9217,57.96,-5.813,43.821
-2.5764,10.152,-25.282,3.3933,8.9234,11.038,6.6431,22.836,-1.7331,10.119,7.176,11.117,1.9217,57.96,-5.813,43.821
-2.6261,10.134,-25.404,3.2002,9.0764,10.847,6.7882,22.759,-1.7453,10.042,7.2829,10.996,1.8693,57.985,-5.8512,43.752
-2.6261,10.134,-25.404,3.2002,9.0764,10.847,6.7882,22.759,-1.7453,10.042,7.2829,10.996,1.8693,57.985,-5.8512,43.752
-2.6754,10.114,-25.526,3.0081,9.2293,10.657,6.9331,22.681,-1.7574,9.9642,7.3894,10.876,1.8169,58.009,-5.8892,43.682
-2.6754,10.114,-25.526,3.0081,9.2293,10.657,6.9331,22.681,-1.7574,9.9642,7.3894,10.876,1.8169,58.009,-5.8892,43.682
-2.7242,10.095,-25.647,2.817,9.3823,10.466,7.0777,22.603,-1.7694,9.8865,7.4955,10.755,1.7645,58.031,-5.9269,43.612
-2.7242,10.095,-25.647,2.817,9.3823,10.466,7.0777,22.603,-1.7694,9.8865,7.4955,10.755,1.7645,58.031,-5.9269,43.612
-2.7726,10.075,-25.768,2.6268,9.5352,10.276,7.2221,22.524,-1.7812,9.8086,7.6011,10.633,1.712,58.053,-5.9645,43.54
-2.8205,10.055,-25.887,2.4377,9.6881,10.086,7.3663,22.446,-1.793,9.7304,7.7064,10.512,1.6595,58.073,-6.0018,43.467
-2.8205,10.055,-25.887,2.4377,9.6881,10.086,7.3663,22.446,-1.793,9.7304,7.7064,10.512,1.6595,58.073,-6.0018,43.467
-2.8205,10.055,-25.887,2.4377,9.6881,10.086,7.3663,22.446,-1.793,9.7304,7.7064,10.512,1.6595,58.073,-6.0018,43.467
-2.8679,10.034,-26.006,2.2496,9.841,9.8964,7.5102,22.366,-1.8045,9.652,7.8111,10.39,1.607,58.092,-6.0389,43.393
-2.8679,10.034,-26.006,2.2496,9.841,9.8964,7.5102,22.366,-1.8045,9.652,7.8111,10.39,1.607,58.092,-6.0389,43.393
-2.9149,10.013,-26.124,2.0625,9.9938,9.7071,7.6539,22.286,-1.816,9.5733,7.9154,10.268,1.5545,58.11,-6.0758,43.319
-2.9149,10.013,-26.124,2.0625,9.9938,9.7071,7.6539,22.286,-1.816,9.5733,7.9154,10.268,1.5545,58.11,-6.0758,43.319
-2.9614,9.9918,-26.241,1.8765,10.147,9.5181,7.7973,22.206,-1.8273,9.4944,8.0193,10.146,1.5019,58.127,-6.1124,43.243
-2.9614,9.9918,-26.241,1.8765,10.147,9.5181,7.7973,22.206,-1.8273,9.4944,8.0193,10.146,1.5019,58.127,-6.1124,43.243
-3.0074,9.97,-26.358,1.6915,10.299,9.3294,7.9404,22.125,-1.8385,9.4152,8.1226,10.024,1.4493,58.143,-6.1489,43.166
-3.0074,9.97,-26.358,1.6915,10.299,9.3294,7.9404,22.125,-1.8385,9.4152,8.1226,10.024,1.4493,58.143,-6.1489,43.166
-3.0529,9.9479,-26.474,1.5076,10.452,9.1411,8.0833,22.044,-1.8495,9.3358,8.2255,9.9018,1.3966,58.158,-6.1851,43.088
-3.0529,9.9479,-26.474,1.5076,10.452,9.1411,8.0833,22.044,-1.8495,9.3358,8.2255,9.9018,1.3966,58.158,-6.1851,43.088
-3.0979,9.9253,-26.589,1.3249,10.604,8.9531,8.2258,21.962,-1.8604,9.2562,8.3278,9.7794,1.3439,58.171,-6.2211,43.01
-3.0979,9.9253,-26.589,1.3249,10.604,8.9531,8.2258,21.962,-1.8604,9.2562,8.3278,9.7794,1.3439,58.171,-6.2211,43.01
-3.1424,9.9024,-26.703,1.1433,10.757,8.7654,8.3681,21.88,-1.8712,9.1763,8.4296,9.6569,1.2911,58.184,-6.2568,42.93
-3.1424,9.9024,-26.703,1.1433,10.757,8.7654,8.3681,21.88,-1.8712,9.1763,8.4296,9.6569,1.2911,58.184,-6.2568,42.93
-3.1424,9.9024,-26.703,1.1433,10.757,8.7654,8.3681,21.88,-1.8712,9.1763,8.4296,9.6569,1.2911,58.184,-6.2568,42.93
-3.1864,9.8791,-26.816,0.96282,10.909,8.5781,8.51,21.798,-1.8818,9.0962,8.5309,9.5342,1.2383,58.195,-6.2923,42.849
-3.1864,9.8791,-26.816,0.96282,10.909,8.5781,8.51,21.798,-1.8818,9.0962,8.5309,9.5342,1.2383,58.195,-6.2923,42.849
-3.1864,9.8791,-26.816,0.96282,10.909,8.5781,8.51,21.798,-1.8818,9.0962,8.5309,9.5342,1.2383,58.195,-6.2923,42.849
-3.273,9.8314,-27.041,0.60538,11.213,8.2046,8.7928,21.632,-1.9027,8.9354,8.7319,9.2887,1.1324,58.214,-6.3627,42.685
-3.273,9.8314,-27.041,0.60538,11.213,8.2046,8.7928,21.632,-1.9027,8.9354,8.7319,9.2887,1.1324,58.214,-6.3627,42.685
-3.3154,9.807,-27.152,0.42845,11.365,8.0183,8.9337,21.548,-1.9129,8.8547,8.8315,9.1658,1.0794,58.222,-6.3975,42.601
-3.3154,9.807,-27.152,0.42845,11.365,8.0183,8.9337,21.548,-1.9129,8.8547,8.8315,9.1658,1.0794,58.222,-6.3975,42.601
-3.3154,9.807,-27.152,0.42845,11.365,8.0183,8.9337,21.548,-1.9129,8.8547,8.8315,9.1658,1.0794,58.222,-6.3975,42.601
-3.3574,9.7822,-27.263,0.25273,11.517,7.8325,9.0742,21.464,-1.923,8.7738,8.9305,9.0429,1.0263,58.229,-6.432,42.517
-3.3574,9.7822,-27.263,0.25273,11.517,7.8325,9.0742,21.464,-1.923,8.7738,8.9305,9.0429,1.0263,58.229,-6.432,42.517
-3.3574,9.7822,-27.263,0.25273,11.517,7.8325,9.0742,21.464,-1.923,8.7738,8.9305,9.0429,1.0263,58.229,-6.432,42.517
-3.3988,9.757,-27.372,0.078234,11.668,7.647,9.2144,21.379,-1.933,8.6927,9.029,8.9199,0.9731,58.235,-6.4664,42.431
-3.3988,9.757,-27.372,0.078234,11.668,7.647,9.2144,21.379,-1.933,8.6927,9.029,8.9199,0.9731,58.235,-6.4664,42.431
-3.4801,9.7055,-27.59,-0.26702,11.971,7.2773,9.4936,21.208,-1.9525,8.5298,9.2241,8.6738,0.86648,58.242,-6.5343,42.257
-3.4801,9.7055,-27.59,-0.26702,11.971,7.2773,9.4936,21.208,-1.9525,8.5298,9.2241,8.6738,0.86648,58.242,-6.5343,42.257
-3.5199,9.6792,-27.697,-0.43775,12.122,7.093,9.6327,21.122,-1.962,8.4481,9.3208,8.5508,0.81304,58.244,-6.5679,42.169
-3.5199,9.6792,-27.697,-0.43775,12.122,7.093,9.6327,21.122,-1.962,8.4481,9.3208,8.5508,0.81304,58.244,-6.5679,42.169
-3.5592,9.6526,-27.804,-0.6072,12.272,6.9092,9.7713,21.036,-1.9714,8.3662,9.4168,8.4277,0.7595,58.245,-6.6013,42.08
-3.5592,9.6526,-27.804,-0.6072,12.272,6.9092,9.7713,21.036,-1.9714,8.3662,9.4168,8.4277,0.7595,58.245,-6.6013,42.08
-3.5592,9.6526,-27.804,-0.6072,12.272,6.9092,9.7713,21.036,-1.9714,8.3662,9.4168,8.4277,0.7595,58.245,-6.6013,42.08
-3.598,9.6255,-27.91,-0.77536,12.423,6.7257,9.9095,20.949,-1.9807,8.2842,9.5122,8.3047,0.70587,58.245,-6.6344,41.989
-3.6361,9.5981,-28.015,-0.9422,12.573,6.5427,10.047,20.861,-1.9899,8.2019,9.6069,8.1816,0.65213,58.244,-6.6673,41.898
-3.6738,9.5704,-28.12,-1.1077,12.723,6.3601,10.185,20.774,-1.9989,8.1195,9.701,8.0587,0.59829,58.241,-6.6999,41.806
-3.6738,9.5704,-28.12,-1.1077,12.723,6.3601,10.185,20.774,-1.9989,8.1195,9.701,8.0587,0.59829,58.241,-6.6999,41.806
-3.6738,9.5704,-28.12,-1.1077,12.723,6.3601,10.185,20.774,-1.9989,8.1195,9.701,8.0587,0.59829,58.241,-6.6999,41.806
-3.7109,9.5422,-28.224,-1.2719,12.873,6.178,10.322,20.685,-2.0078,8.037,9.7944,7.9357,0.54433,58.238,-6.7322,41.712
-3.7109,9.5422,-28.224,-1.2719,12.873,6.178,10.322,20.685,-2.0078,8.037,9.7944,7.9357,0.54433,58.238,-6.7322,41.712
-3.7474,9.5138,-28.327,-1.4348,13.023,5.9963,10.458,20.597,-2.0165,7.9543,9.8871,7.8128,0.49027,58.233,-6.7644,41.618
-3.7474,9.5138,-28.327,-1.4348,13.023,5.9963,10.458,20.597,-2.0165,7.9543,9.8871,7.8128,0.49027,58.233,-6.7644,41.618
-3.7474,9.5138,-28.327,-1.4348,13.023,5.9963,10.458,20.597,-2.0165,7.9543,9.8871,7.8128,0.49027,58.233,-6.7644,41.618
-3.7833,9.4849,-28.429,-1.5962,13.172,5.815,10.594,20.508,-2.0251,7.8714,9.9792,7.69,0.43609,58.227,-6.7962,41.523
-3.8187,9.4557,-28.531,-1.7564,13.322,5.6342,10.73,20.418,-2.0336,7.7883,10.071,7.5673,0.38179,58.22,-6.8278,41.427
-3.8187,9.4557,-28.531,-1.7564,13.322,5.6342,10.73,20.418,-2.0336,7.7883,10.071,7.5673,0.38179,58.22,-6.8278,41.427
-3.8535,9.4261,-28.632,-1.9151,13.47,5.4539,10.865,20.328,-2.0419,7.7052,10.161,7.4446,0.32736,58.212,-6.8591,41.33
-3.8535,9.4261,-28.632,-1.9151,13.47,5.4539,10.865,20.328,-2.0419,7.7052,10.161,7.4446,0.32736,58.212,-6.8591,41.33
-3.8878,9.3962,-28.732,-2.0724,13.619,5.274,10.999,20.238,-2.0501,7.6218,10.251,7.3221,0.27281,58.202,-6.8902,41.232
-3.8878,9.3962,-28.732,-2.0724,13.619,5.274,10.999,20.238,-2.0501,7.6218,10.251,7.3221,0.27281,58.202,-6.8902,41.232
-3.9214,9.3659,-28.831,-2.2284,13.767,5.0946,11.133,20.147,-2.0582,7.5384,10.34,7.1996,0.21813,58.192,-6.9211,41.133
-3.9214,9.3659,-28.831,-2.2284,13.767,5.0946,11.133,20.147,-2.0582,7.5384,10.34,7.1996,0.21813,58.192,-6.9211,41.133
-3.9545,9.3353,-28.93,-2.3829,13.915,4.9157,11.267,20.056,-2.0661,7.4548,10.429,7.0773,0.16332,58.18,-6.9516,41.034
-3.9545,9.3353,-28.93,-2.3829,13.915,4.9157,11.267,20.056,-2.0661,7.4548,10.429,7.0773,0.16332,58.18,-6.9516,41.034
-3.987,9.3043,-29.028,-2.5361,14.063,4.7372,11.4,19.964,-2.0739,7.3711,10.516,6.9552,0.10837,58.167,-6.9819,40.933
-3.987,9.3043,-29.028,-2.5361,14.063,4.7372,11.4,19.964,-2.0739,7.3711,10.516,6.9552,0.10837,58.167,-6.9819,40.933
-4.0189,9.273,-29.125,-2.6878,14.21,4.5592,11.533,19.872,-2.0816,7.2873,10.603,6.8331,0.053282,58.153,-7.012,40.832
-4.0189,9.273,-29.125,-2.6878,14.21,4.5592,11.533,19.872,-2.0816,7.2873,10.603,6.8331,0.053282,58.153,-7.012,40.832
-4.0502,9.2413,-29.222,-2.838,14.357,4.3818,11.665,19.779,-2.0891,7.2033,10.69,6.7113,-0.0019507,58.138,-7.0417,40.729
-4.0502,9.2413,-29.222,-2.838,14.357,4.3818,11.665,19.779,-2.0891,7.2033,10.69,6.7113,-0.0019507,58.138,-7.0417,40.729
-4.081,9.2093,-29.318,-2.9868,14.504,4.2048,11.797,19.686,-2.0965,7.1193,10.775,6.5896,-0.057329,58.121,-7.0713,40.626
-4.081,9.2093,-29.318,-2.9868,14.504,4.2048,11.797,19.686,-2.0965,7.1193,10.775,6.5896,-0.057329,58.121,-7.0713,40.626
-4.081,9.2093,-29.318,-2.9868,14.504,4.2048,11.797,19.686,-2.0965,7.1193,10.775,6.5896,-0.057329,58.121,-7.0713,40.626
-4.1111,9.1769,-29.413,-3.1342,14.651,4.0283,11.928,19.593,-2.1037,7.0351,10.86,6.4681,-0.11286,58.104,-7.1005,40.521
-4.1406,9.1442,-29.507,-3.2801,14.797,3.8523,12.058,19.499,-2.1108,6.9508,10.944,6.3468,-0.16854,58.085,-7.1295,40.416
-4.1406,9.1442,-29.507,-3.2801,14.797,3.8523,12.058,19.499,-2.1108,6.9508,10.944,6.3468,-0.16854,58.085,-7.1295,40.416
-4.1696,9.1111,-29.6,-3.4246,14.942,3.6768,12.188,19.405,-2.1178,6.8664,11.027,6.2257,-0.22437,58.065,-7.1582,40.31
-4.1696,9.1111,-29.6,-3.4246,14.942,3.6768,12.188,19.405,-2.1178,6.8664,11.027,6.2257,-0.22437,58.065,-7.1582,40.31
-4.1979,9.0778,-29.693,-3.5676,15.088,3.5019,12.317,19.31,-2.1246,6.782,11.109,6.1048,-0.28037,58.044,-7.1866,40.203
-4.1979,9.0778,-29.693,-3.5676,15.088,3.5019,12.317,19.31,-2.1246,6.782,11.109,6.1048,-0.28037,58.044,-7.1866,40.203
-4.2257,9.044,-29.785,-3.7091,15.233,3.3274,12.446,19.215,-2.1313,6.6974,11.19,5.9842,-0.33652,58.022,-7.2148,40.095
-4.2257,9.044,-29.785,-3.7091,15.233,3.3274,12.446,19.215,-2.1313,6.6974,11.19,5.9842,-0.33652,58.022,-7.2148,40.095
-4.2528,9.01,-29.877,-3.8492,15.377,3.1535,12.575,19.12,-2.1379,6.6128,11.271,5.8638,-0.39284,57.999,-7.2427,39.987
-4.2528,9.01,-29.877,-3.8492,15.377,3.1535,12.575,19.12,-2.1379,6.6128,11.271,5.8638,-0.39284,57.999,-7.2427,39.987
-4.2794,8.9756,-29.967,-3.9877,15.521,2.9801,12.702,19.024,-2.1443,6.5281,11.351,5.7436,-0.44933,57.974,-7.2703,39.877
-4.2794,8.9756,-29.967,-3.9877,15.521,2.9801,12.702,19.024,-2.1443,6.5281,11.351,5.7436,-0.44933,57.974,-7.2703,39.877
-4.3053,8.9409,-30.057,-4.1248,15.665,2.8072,12.829,18.927,-2.1506,6.4433,11.43,5.6238,-0.50599,57.949,-7.2977,39.767
-4.3306,8.9059,-30.146,-4.2603,15.809,2.6349,12.956,18.83,-2.1568,6.3585,11.508,5.5042,-0.56282,57.922,-7.3247,39.656
-4.3306,8.9059,-30.146,-4.2603,15.809,2.6349,12.956,18.83,-2.1568,6.3585,11.508,5.5042,-0.56282,57.922,-7.3247,39.656
-4.3306,8.9059,-30.146,-4.2603,15.809,2.6349,12.956,18.83,-2.1568,6.3585,11.508,5.5042,-0.56282,57.922,-7.3247,39.656
-4.3554,8.8705,-30.234,-4.3944,15.952,2.4631,13.082,18.733,-2.1628,6.2736,11.585,5.3848,-0.61982,57.894,-7.3515,39.543
-4.3554,8.8705,-30.234,-4.3944,15.952,2.4631,13.082,18.733,-2.1628,6.2736,11.585,5.3848,-0.61982,57.894,-7.3515,39.543
-4.3795,8.8349,-30.322,-4.527,16.094,2.2918,13.207,18.636,-2.1687,6.1886,11.662,5.2658,-0.67701,57.865,-7.3781,39.43
-4.3795,8.8349,-30.322,-4.527,16.094,2.2918,13.207,18.636,-2.1687,6.1886,11.662,5.2658,-0.67701,57.865,-7.3781,39.43
-4.403,8.7989,-30.409,-4.6581,16.236,2.1211,13.332,18.537,-2.1744,6.1036,11.737,5.1471,-0.73437,57.834,-7.4043,39.317
-4.403,8.7989,-30.409,-4.6581,16.236,2.1211,13.332,18.537,-2.1744,6.1036,11.737,5.1471,-0.73437,57.834,-7.4043,39.317
-4.4258,8.7626,-30.495,-4.7877,16.378,1.951,13.456,18.439,-2.18,6.0186,11.812,5.0287,-0.79192,57.803,-7.4303,39.202
-4.4258,8.7626,-30.495,-4.7877,16.378,1.951,13.456,18.439,-2.18,6.0186,11.812,5.0287,-0.79192,57.803,-7.4303,39.202
-4.4481,8.726,-30.58,-4.9157,16.519,1.7813,13.58,18.34,-2.1855,5.9335,11.886,4.9107,-0.84966,57.77,-7.456,39.087
-4.4481,8.726,-30.58,-4.9157,16.519,1.7813,13.58,18.34,-2.1855,5.9335,11.886,4.9107,-0.84966,57.77,-7.456,39.087
-4.4698,8.6891,-30.665,-5.0423,16.66,1.6123,13.703,18.241,-2.1909,5.8483,11.959,4.793,-0.90759,57.737,-7.4814,38.97
-4.4698,8.6891,-30.665,-5.0423,16.66,1.6123,13.703,18.241,-2.1909,5.8483,11.959,4.793,-0.90759,57.737,-7.4814,38.97
-4.4698,8.6891,-30.665,-5.0423,16.66,1.6123,13.703,18.241,-2.1909,5.8483,11.959,4.793,-0.90759,57.737,-7.4814,38.97
-4.4908,8.6519,-30.748,-5.1673,16.801,1.4438,13.825,18.141,-2.1961,5.7632,12.031,4.6757,-0.9657,57.702,-7.5065,38.853
-4.5113,8.6144,-30.831,-5.2909,16.94,1.2758,13.947,18.041,-2.2011,5.678,12.102,4.5587,-1.024,57.666,-7.5314,38.735
-4.5113,8.6144,-30.831,-5.2909,16.94,1.2758,13.947,18.041,-2.2011,5.678,12.102,4.5587,-1.024,57.666,-7.5314,38.735
-4.5311,8.5766,-30.914,-5.4129,17.08,1.1085,14.068,17.941,-2.206,5.5928,12.172,4.4421,-1.0825,57.629,-7.5559,38.617
-4.5311,8.5766,-30.914,-5.4129,17.08,1.1085,14.068,17.941,-2.206,5.5928,12.172,4.4421,-1.0825,57.629,-7.5559,38.617
-4.5503,8.5385,-30.995,-5.5334,17.219,0.94165,14.188,17.84,-2.2108,5.5075,12.241,4.3259,-1.1412,57.59,-7.5802,38.497
-4.5503,8.5385,-30.995,-5.5334,17.219,0.94165,14.188,17.84,-2.2108,5.5075,12.241,4.3259,-1.1412,57.59,-7.5802,38.497
-4.5689,8.5001,-31.076,-5.6524,17.357,0.77541,14.308,17.738,-2.2155,5.4223,12.31,4.2101,-1.2001,57.551,-7.6042,38.377
-4.5689,8.5001,-31.076,-5.6524,17.357,0.77541,14.308,17.738,-2.2155,5.4223,12.31,4.2101,-1.2001,57.551,-7.6042,38.377
-4.5689,8.5001,-31.076,-5.6524,17.357,0.77541,14.308,17.738,-2.2155,5.4223,12.31,4.2101,-1.2001,57.551,-7.6042,38.377
-4.5868,8.4614,-31.155,-5.7699,17.495,0.60975,14.427,17.637,-2.22,5.3371,12.377,4.0948,-1.2593,57.51,-7.628,38.256
-4.6042,8.4225,-31.235,-5.8859,17.633,0.44467,14.545,17.534,-2.2244,5.2518,12.444,3.9798,-1.3186,57.469,-7.6514,38.134
-4.6042,8.4225,-31.235,-5.8859,17.633,0.44467,14.545,17.534,-2.2244,5.2518,12.444,3.9798,-1.3186,57.469,-7.6514,38.134
-4.6042,8.4225,-31.235,-5.8859,17.633,0.44467,14.545,17.534,-2.2244,5.2518,12.444,3.9798,-1.3186,57.469,-7.6514,38.134
-4.6209,8.3832,-31.313,-6.0004,17.77,0.28017,14.663,17.432,-2.2286,5.1666,12.509,3.8653,-1.3781,57.426,-7.6746,38.012
-4.6209,8.3832,-31.313,-6.0004,17.77,0.28017,14.663,17.432,-2.2286,5.1666,12.509,3.8653,-1.3781,57.426,-7.6746,38.012
-4.6209,8.3832,-31.313,-6.0004,17.77,0.28017,14.663,17.432,-2.2286,5.1666,12.509,3.8653,-1.3781,57.426,-7.6746,38.012
-4.6526,8.304,-31.467,-6.2248,18.043,-0.047073,14.897,17.226,-2.2367,4.9962,12.638,3.6376,-1.4978,57.337,-7.72,37.764
-4.6526,8.304,-31.467,-6.2248,18.043,-0.047073,14.897,17.226,-2.2367,4.9962,12.638,3.6376,-1.4978,57.337,-7.72,37.764
-4.6675,8.2639,-31.543,-6.3348,18.178,-0.20981,15.012,17.122,-2.2405,4.911,12.7,3.5245,-1.558,57.29,-7.7423,37.64
-4.6818,8.2236,-31.618,-6.4433,18.313,-0.37195,15.127,17.018,-2.2442,4.8259,12.762,3.4119,-1.6184,57.243,-7.7643,37.514
-4.6818,8.2236,-31.618,-6.4433,18.313,-0.37195,15.127,17.018,-2.2442,4.8259,12.762,3.4119,-1.6184,57.243,-7.7643,37.514
-4.6954,8.183,-31.692,-6.5502,18.447,-0.5335,15.242,16.914,-2.2477,4.7408,12.823,3.2997,-1.679,57.195,-7.786,37.388
-4.6954,8.183,-31.692,-6.5502,18.447,-0.5335,15.242,16.914,-2.2477,4.7408,12.823,3.2997,-1.679,57.195,-7.786,37.388
-4.6954,8.183,-31.692,-6.5502,18.447,-0.5335,15.242,16.914,-2.2477,4.7408,12.823,3.2997,-1.679,57.195,-7.786,37.388
-4.7085,8.1422,-31.766,-6.6557,18.581,-0.69445,15.355,16.809,-2.2512,4.6557,12.883,3.1881,-1.7398,57.145,-7.8075,37.261
-4.7085,8.1422,-31.766,-6.6557,18.581,-0.69445,15.355,16.809,-2.2512,4.6557,12.883,3.1881,-1.7398,57.145,-7.8075,37.261
-4.721,8.1012,-31.838,-6.7597,18.715,-0.85479,15.468,16.704,-2.2544,4.5707,12.942,3.0769,-1.8008,57.094,-7.8286,37.133
-4.721,8.1012,-31.838,-6.7597,18.715,-0.85479,15.468,16.704,-2.2544,4.5707,12.942,3.0769,-1.8008,57.094,-7.8286,37.133
-4.721,8.1012,-31.838,-6.7597,18.715,-0.85479,15.468,16.704,-2.2544,4.5707,12.942,3.0769,-1.8008,57.094,-7.8286,37.133
-4.7328,8.0599,-31.91,-6.8622,18.847,-1.0145,15.581,16.598,-2.2576,4.4857,13,2.9663,-1.8621,57.043,-7.8495,37.005
-4.7328,8.0599,-31.91,-6.8622,18.847,-1.0145,15.581,16.598,-2.2576,4.4857,13,2.9663,-1.8621,57.043,-7.8495,37.005
-4.744,8.0183,-31.981,-6.9632,18.98,-1.1737,15.692,16.492,-2.2606,4.4008,13.057,2.8563,-1.9236,56.99,-7.8701,36.876
-4.744,8.0183,-31.981,-6.9632,18.98,-1.1737,15.692,16.492,-2.2606,4.4008,13.057,2.8563,-1.9236,56.99,-7.8701,36.876
-4.7547,7.9765,-32.051,-7.0628,19.111,-1.3322,15.803,16.386,-2.2634,4.316,13.112,2.7468,-1.9854,56.936,-7.8903,36.746
-4.7547,7.9765,-32.051,-7.0628,19.111,-1.3322,15.803,16.386,-2.2634,4.316,13.112,2.7468,-1.9854,56.936,-7.8903,36.746
-4.7547,7.9765,-32.051,-7.0628,19.111,-1.3322,15.803,16.386,-2.2634,4.316,13.112,2.7468,-1.9854,56.936,-7.8903,36.746
-4.7741,7.8923,-32.189,-7.2575,19.373,-1.6474,16.023,16.172,-2.2687,4.1465,13.221,2.5294,-2.1095,56.825,-7.93,36.484
-4.7741,7.8923,-32.189,-7.2575,19.373,-1.6474,16.023,16.172,-2.2687,4.1465,13.221,2.5294,-2.1095,56.825,-7.93,36.484
-4.7741,7.8923,-32.189,-7.2575,19.373,-1.6474,16.023,16.172,-2.2687,4.1465,13.221,2.5294,-2.1095,56.825,-7.93,36.484
-4.783,7.8498,-32.257,-7.3526,19.503,-1.8041,16.132,16.065,-2.2712,4.0618,13.274,2.4216,-2.172,56.767,-7.9494,36.353
-4.783,7.8498,-32.257,-7.3526,19.503,-1.8041,16.132,16.065,-2.2712,4.0618,13.274,2.4216,-2.172,56.767,-7.9494,36.353
-4.7912,7.8071,-32.323,-7.4463,19.632,-1.9601,16.24,15.957,-2.2735,3.9773,13.326,2.3144,-2.2347,56.709,-7.9685,36.22
-4.7988,7.7642,-32.389,-7.5386,19.761,-2.1156,16.347,15.849,-2.2757,3.8928,13.377,2.2078,-2.2976,56.65,-7.9874,36.087
-4.7988,7.7642,-32.389,-7.5386,19.761,-2.1156,16.347,15.849,-2.2757,3.8928,13.377,2.2078,-2.2976,56.65,-7.9874,36.087
-4.7988,7.7642,-32.389,-7.5386,19.761,-2.1156,16.347,15.849,-2.2757,3.8928,13.377,2.2078,-2.2976,56.65,-7.9874,36.087
-4.8059,7.7211,-32.454,-7.6294,19.889,-2.2704,16.454,15.741,-2.2777,3.8084,13.427,2.1018,-2.3608,56.589,-8.0059,35.954
-4.8059,7.7211,-32.454,-7.6294,19.889,-2.2704,16.454,15.741,-2.2777,3.8084,13.427,2.1018,-2.3608,56.589,-8.0059,35.954
-4.8059,7.7211,-32.454,-7.6294,19.889,-2.2704,16.454,15.741,-2.2777,3.8084,13.427,2.1018,-2.3608,56.589,-8.0059,35.954
-4.8059,7.7211,-32.454,-7.6294,19.889,-2.2704,16.454,15.741,-2.2777,3.8084,13.427,2.1018,-2.3608,56.589,-8.0059,35.954
-4.8182,7.6343,-32.582,-7.8067,20.144,-2.5781,16.665,15.523,-2.2814,3.64,13.524,1.8917,-2.4878,56.465,-8.0421,35.685
-4.8182,7.6343,-32.582,-7.8067,20.144,-2.5781,16.665,15.523,-2.2814,3.64,13.524,1.8917,-2.4878,56.465,-8.0421,35.685
-4.8182,7.6343,-32.582,-7.8067,20.144,-2.5781,16.665,15.523,-2.2814,3.64,13.524,1.8917,-2.4878,56.465,-8.0421,35.685
-4.8281,7.5467,-32.706,-7.9783,20.396,-2.8833,16.873,15.304,-2.2845,3.472,13.617,1.6842,-2.6159,56.336,-8.0771,35.413
-4.8281,7.5467,-32.706,-7.9783,20.396,-2.8833,16.873,15.304,-2.2845,3.472,13.617,1.6842,-2.6159,56.336,-8.0771,35.413
-4.8322,7.5026,-32.767,-8.062,20.521,-3.0349,16.976,15.194,-2.2858,3.3882,13.662,1.5814,-2.6803,56.271,-8.0941,35.276
-4.8322,7.5026,-32.767,-8.062,20.521,-3.0349,16.976,15.194,-2.2858,3.3882,13.662,1.5814,-2.6803,56.271,-8.0941,35.276
-4.8357,7.4584,-32.827,-8.1442,20.645,-3.1859,17.078,15.084,-2.287,3.3045,13.705,1.4793,-2.7449,56.204,-8.1109,35.139
-4.8357,7.4584,-32.827,-8.1442,20.645,-3.1859,17.078,15.084,-2.287,3.3045,13.705,1.4793,-2.7449,56.204,-8.1109,35.139
-4.8357,7.4584,-32.827,-8.1442,20.645,-3.1859,17.078,15.084,-2.287,3.3045,13.705,1.4793,-2.7449,56.204,-8.1109,35.139
-4.8387,7.4139,-32.886,-8.2251,20.769,-3.3363,17.18,14.973,-2.2881,3.221,13.748,1.3779,-2.8098,56.136,-8.1274,35.001
-4.8387,7.4139,-32.886,-8.2251,20.769,-3.3363,17.18,14.973,-2.2881,3.221,13.748,1.3779,-2.8098,56.136,-8.1274,35.001
-4.841,7.3693,-32.944,-8.3046,20.892,-3.486,17.281,14.862,-2.289,3.1375,13.79,1.2772,-2.875,56.067,-8.1435,34.863
-4.841,7.3693,-32.944,-8.3046,20.892,-3.486,17.281,14.862,-2.289,3.1375,13.79,1.2772,-2.875,56.067,-8.1435,34.863
-4.841,7.3693,-32.944,-8.3046,20.892,-3.486,17.281,14.862,-2.289,3.1375,13.79,1.2772,-2.875,56.067,-8.1435,34.863
-4.8441,7.2797,-33.057,-8.4595,21.137,-3.7835,17.48,14.639,-2.2904,2.9711,13.87,1.0779,-3.0061,55.926,-8.175,34.584
-4.8441,7.2797,-33.057,-8.4595,21.137,-3.7835,17.48,14.639,-2.2904,2.9711,13.87,1.0779,-3.0061,55.926,-8.175,34.584
-4.8447,7.2346,-33.113,-8.5349,21.258,-3.9313,17.579,14.527,-2.291,2.8881,13.909,0.97939,-3.072,55.854,-8.1903,34.444
-4.8447,7.2346,-33.113,-8.5349,21.258,-3.9313,17.579,14.527,-2.291,2.8881,13.909,0.97939,-3.072,55.854,-8.1903,34.444
-4.8448,7.1894,-33.167,-8.609,21.378,-4.0784,17.677,14.415,-2.2913,2.8053,13.946,0.88156,-3.1382,55.781,-8.2052,34.304
-4.8448,7.1894,-33.167,-8.609,21.378,-4.0784,17.677,14.415,-2.2913,2.8053,13.946,0.88156,-3.1382,55.781,-8.2052,34.304
-4.8443,7.1441,-33.221,-8.6817,21.498,-4.2249,17.774,14.303,-2.2916,2.7227,13.983,0.78448,-3.2047,55.707,-8.2199,34.163
-4.8443,7.1441,-33.221,-8.6817,21.498,-4.2249,17.774,14.303,-2.2916,2.7227,13.983,0.78448,-3.2047,55.707,-8.2199,34.163
-4.8433,7.0986,-33.273,-8.7531,21.617,-4.3707,17.87,14.19,-2.2917,2.6402,14.018,0.68816,-3.2714,55.632,-8.2343,34.021
-4.8433,7.0986,-33.273,-8.7531,21.617,-4.3707,17.87,14.19,-2.2917,2.6402,14.018,0.68816,-3.2714,55.632,-8.2343,34.021
-4.8418,7.053,-33.325,-8.8231,21.736,-4.5159,17.966,14.077,-2.2916,2.5579,14.053,0.59259,-3.3384,55.556,-8.2484,33.879
-4.8418,7.053,-33.325,-8.8231,21.736,-4.5159,17.966,14.077,-2.2916,2.5579,14.053,0.59259,-3.3384,55.556,-8.2484,33.879
-4.8396,7.0073,-33.376,-8.8918,21.854,-4.6604,18.06,13.963,-2.2914,2.4757,14.086,0.4978,-3.4057,55.479,-8.2622,33.737
-4.8396,7.0073,-33.376,-8.8918,21.854,-4.6604,18.06,13.963,-2.2914,2.4757,14.086,0.4978,-3.4057,55.479,-8.2622,33.737
-4.8396,7.0073,-33.376,-8.8918,21.854,-4.6604,18.06,13.963,-2.2914,2.4757,14.086,0.4978,-3.4057,55.479,-8.2622,33.737
-4.837,6.9614,-33.425,-8.9593,21.971,-4.8042,18.154,13.85,-2.2911,2.3938,14.118,0.4038,-3.4732,55.401,-8.2757,33.594
-4.837,6.9614,-33.425,-8.9593,21.971,-4.8042,18.154,13.85,-2.2911,2.3938,14.118,0.4038,-3.4732,55.401,-8.2757,33.594
-4.8338,6.9155,-33.474,-9.0254,22.087,-4.9474,18.248,13.736,-2.2907,2.312,14.15,0.31058,-3.541,55.322,-8.2888,33.45
-4.8338,6.9155,-33.474,-9.0254,22.087,-4.9474,18.248,13.736,-2.2907,2.312,14.15,0.31058,-3.541,55.322,-8.2888,33.45
-4.8338,6.9155,-33.474,-9.0254,22.087,-4.9474,18.248,13.736,-2.2907,2.312,14.15,0.31058,-3.541,55.322,-8.2888,33.45
-4.8258,6.8232,-33.569,-9.1538,22.318,-5.2317,18.432,13.507,-2.2893,2.1491,14.209,0.12656,-3.6774,55.162,-8.3143,33.162
-4.8258,6.8232,-33.569,-9.1538,22.318,-5.2317,18.432,13.507,-2.2893,2.1491,14.209,0.12656,-3.6774,55.162,-8.3143,33.162
-4.821,6.777,-33.615,-9.2161,22.432,-5.3729,18.523,13.392,-2.2885,2.068,14.237,0.035772,-3.7461,55.08,-8.3266,33.017
-4.821,6.777,-33.615,-9.2161,22.432,-5.3729,18.523,13.392,-2.2885,2.068,14.237,0.035772,-3.7461,55.08,-8.3266,33.017
-4.8156,6.7306,-33.661,-9.2772,22.546,-5.5134,18.614,13.277,-2.2874,1.987,14.264,-0.054187,-3.815,54.997,-8.3386,32.872
-4.8156,6.7306,-33.661,-9.2772,22.546,-5.5134,18.614,13.277,-2.2874,1.987,14.264,-0.054187,-3.815,54.997,-8.3386,32.872
-4.8098,6.6842,-33.705,-9.337,22.659,-5.6532,18.703,13.162,-2.2863,1.9063,14.29,-0.14331,-3.8841,54.913,-8.3502,32.726
-4.8098,6.6842,-33.705,-9.337,22.659,-5.6532,18.703,13.162,-2.2863,1.9063,14.29,-0.14331,-3.8841,54.913,-8.3502,32.726
-4.8034,6.6377,-33.748,-9.3956,22.771,-5.7924,18.792,13.047,-2.285,1.8258,14.315,-0.23159,-3.9536,54.829,-8.3616,32.58
-4.8034,6.6377,-33.748,-9.3956,22.771,-5.7924,18.792,13.047,-2.285,1.8258,14.315,-0.23159,-3.9536,54.829,-8.3616,32.58
-4.7965,6.5912,-33.79,-9.453,22.882,-5.9309,18.88,12.931,-2.2836,1.7455,14.339,-0.31902,-4.0233,54.743,-8.3727,32.433
-4.7965,6.5912,-33.79,-9.453,22.882,-5.9309,18.88,12.931,-2.2836,1.7455,14.339,-0.31902,-4.0233,54.743,-8.3727,32.433
-4.7965,6.5912,-33.79,-9.453,22.882,-5.9309,18.88,12.931,-2.2836,1.7455,14.339,-0.31902,-4.0233,54.743,-8.3727,32.433
-4.7891,6.5445,-33.831,-9.5091,22.993,-6.0687,18.967,12.815,-2.282,1.6655,14.362,-0.40558,-4.0933,54.657,-8.3834,32.286
-4.7812,6.4979,-33.872,-9.564,23.103,-6.2058,19.054,12.699,-2.2803,1.5856,14.384,-0.49128,-4.1636,54.569,-8.3939,32.139
-4.7812,6.4979,-33.872,-9.564,23.103,-6.2058,19.054,12.699,-2.2803,1.5856,14.384,-0.49128,-4.1636,54.569,-8.3939,32.139
-4.7729,6.4511,-33.911,-9.6178,23.212,-6.3423,19.14,12.583,-2.2785,1.5061,14.404,-0.57609,-4.2342,54.481,-8.404,31.991
-4.7729,6.4511,-33.911,-9.6178,23.212,-6.3423,19.14,12.583,-2.2785,1.5061,14.404,-0.57609,-4.2342,54.481,-8.404,31.991
-4.764,6.4043,-33.949,-9.6704,23.321,-6.4781,19.225,12.466,-2.2765,1.4268,14.424,-0.66002,-4.305,54.392,-8.4139,31.843
-4.764,6.4043,-33.949,-9.6704,23.321,-6.4781,19.225,12.466,-2.2765,1.4268,14.424,-0.66002,-4.305,54.392,-8.4139,31.843
-4.7546,6.3575,-33.987,-9.7218,23.428,-6.6132,19.309,12.349,-2.2744,1.3477,14.443,-0.74306,-4.3762,54.302,-8.4234,31.695
-4.7546,6.3575,-33.987,-9.7218,23.428,-6.6132,19.309,12.349,-2.2744,1.3477,14.443,-0.74306,-4.3762,54.302,-8.4234,31.695
-4.7447,6.3107,-34.023,-9.772,23.536,-6.7476,19.393,12.232,-2.2721,1.2689,14.46,-0.82519,-4.4476,54.211,-8.4326,31.546
-4.7447,6.3107,-34.023,-9.772,23.536,-6.7476,19.393,12.232,-2.2721,1.2689,14.46,-0.82519,-4.4476,54.211,-8.4326,31.546
-4.7344,6.2638,-34.059,-9.8211,23.642,-6.8813,19.476,12.115,-2.2697,1.1903,14.477,-0.90642,-4.5193,54.119,-8.4415,31.397
-4.7344,6.2638,-34.059,-9.8211,23.642,-6.8813,19.476,12.115,-2.2697,1.1903,14.477,-0.90642,-4.5193,54.119,-8.4415,31.397
-4.7344,6.2638,-34.059,-9.8211,23.642,-6.8813,19.476,12.115,-2.2697,1.1903,14.477,-0.90642,-4.5193,54.119,-8.4415,31.397
-4.7236,6.2169,-34.093,-9.8691,23.747,-7.0144,19.558,11.997,-2.2672,1.112,14.492,-0.98673,-4.5913,54.026,-8.4501,31.248
-4.7236,6.2169,-34.093,-9.8691,23.747,-7.0144,19.558,11.997,-2.2672,1.112,14.492,-0.98673,-4.5913,54.026,-8.4501,31.248
-4.7236,6.2169,-34.093,-9.8691,23.747,-7.0144,19.558,11.997,-2.2672,1.112,14.492,-0.98673,-4.5913,54.026,-8.4501,31.248
-4.7005,6.1231,-34.159,-9.9617,23.956,-7.2784,19.72,11.762,-2.2617,0.9563,14.52,-1.1446,-4.7361,53.838,-8.4664,30.948
-4.7005,6.1231,-34.159,-9.9617,23.956,-7.2784,19.72,11.762,-2.2617,0.9563,14.52,-1.1446,-4.7361,53.838,-8.4664,30.948
-4.6883,6.0762,-34.19,-10.006,24.059,-7.4094,19.8,11.644,-2.2588,0.87884,14.532,-1.2221,-4.809,53.743,-8.4741,30.798
-4.6883,6.0762,-34.19,-10.006,24.059,-7.4094,19.8,11.644,-2.2588,0.87884,14.532,-1.2221,-4.809,53.743,-8.4741,30.798
-4.6756,6.0293,-34.221,-10.05,24.162,-7.5397,19.879,11.526,-2.2557,0.80168,14.543,-1.2986,-4.8821,53.647,-8.4814,30.647
-4.6756,6.0293,-34.221,-10.05,24.162,-7.5397,19.879,11.526,-2.2557,0.80168,14.543,-1.2986,-4.8821,53.647,-8.4814,30.647
-4.6756,6.0293,-34.221,-10.05,24.162,-7.5397,19.879,11.526,-2.2557,0.80168,14.543,-1.2986,-4.8821,53.647,-8.4814,30.647
-4.6625,5.9824,-34.25,-10.092,24.263,-7.6694,19.957,11.407,-2.2525,0.7248,14.554,-1.3742,-4.9555,53.55,-8.4885,30.496
-4.6625,5.9824,-34.25,-10.092,24.263,-7.6694,19.957,11.407,-2.2525,0.7248,14.554,-1.3742,-4.9555,53.55,-8.4885,30.496
-4.6625,5.9824,-34.25,-10.092,24.263,-7.6694,19.957,11.407,-2.2525,0.7248,14.554,-1.3742,-4.9555,53.55,-8.4885,30.496
-4.6349,5.8887,-34.306,-10.174,24.464,-7.9265,20.112,11.17,-2.2456,0.57195,14.571,-1.5226,-5.1033,53.353,-8.5016,30.193
-4.6349,5.8887,-34.306,-10.174,24.464,-7.9265,20.112,11.17,-2.2456,0.57195,14.571,-1.5226,-5.1033,53.353,-8.5016,30.193
-4.6204,5.8419,-34.333,-10.213,24.564,-8.0541,20.188,11.051,-2.242,0.49598,14.578,-1.5953,-5.1776,53.254,-8.5077,30.042
-4.6204,5.8419,-34.333,-10.213,24.564,-8.0541,20.188,11.051,-2.242,0.49598,14.578,-1.5953,-5.1776,53.254,-8.5077,30.042
-4.6204,5.8419,-34.333,-10.213,24.564,-8.0541,20.188,11.051,-2.242,0.49598,14.578,-1.5953,-5.1776,53.254,-8.5077,30.042
-4.6056,5.7951,-34.358,-10.252,24.662,-8.1809,20.264,10.932,-2.2382,0.42032,14.584,-1.667,-5.2522,53.154,-8.5135,29.89
-4.6056,5.7951,-34.358,-10.252,24.662,-8.1809,20.264,10.932,-2.2382,0.42032,14.584,-1.667,-5.2522,53.154,-8.5135,29.89
-4.6056,5.7951,-34.358,-10.252,24.662,-8.1809,20.264,10.932,-2.2382,0.42032,14.584,-1.667,-5.2522,53.154,-8.5135,29.89
-4.5745,5.7017,-34.406,-10.325,24.857,-8.4326,20.413,10.693,-2.2303,0.26995,14.593,-1.8075,-5.4023,52.951,-8.5241,29.585
-4.5584,5.6551,-34.428,-10.361,24.953,-8.5573,20.486,10.574,-2.2261,0.19526,14.596,-1.8762,-5.4778,52.848,-8.529,29.433
-4.5584,5.6551,-34.428,-10.361,24.953,-8.5573,20.486,10.574,-2.2261,0.19526,14.596,-1.8762,-5.4778,52.848,-8.529,29.433
-4.5584,5.6551,-34.428,-10.361,24.953,-8.5573,20.486,10.574,-2.2261,0.19526,14.596,-1.8762,-5.4778,52.848,-8.529,29.433
-4.5418,5.6086,-34.449,-10.395,25.048,-8.6814,20.559,10.454,-2.2218,0.12089,14.598,-1.9439,-5.5535,52.745,-8.5335,29.28
-4.5418,5.6086,-34.449,-10.395,25.048,-8.6814,20.559,10.454,-2.2218,0.12089,14.598,-1.9439,-5.5535,52.745,-8.5335,29.28
-4.5418,5.6086,-34.449,-10.395,25.048,-8.6814,20.559,10.454,-2.2218,0.12089,14.598,-1.9439,-5.5535,52.745,-8.5335,29.28
-4.5249,5.5621,-34.47,-10.428,25.143,-8.8048,20.631,10.334,-2.2174,0.046853,14.599,-2.0106,-5.6296,52.641,-8.5377,29.127
-4.5249,5.5621,-34.47,-10.428,25.143,-8.8048,20.631,10.334,-2.2174,0.046853,14.599,-2.0106,-5.6296,52.641,-8.5377,29.127
-4.5075,5.5157,-34.489,-10.461,25.237,-8.9275,20.702,10.214,-2.2128,-0.026843,14.599,-2.0763,-5.706,52.536,-8.5416,28.973
-4.4897,5.4694,-34.507,-10.492,25.33,-9.0495,20.772,10.094,-2.2081,-0.10019,14.598,-2.141,-5.7826,52.431,-8.5451,28.82
-4.4897,5.4694,-34.507,-10.492,25.33,-9.0495,20.772,10.094,-2.2081,-0.10019,14.598,-2.141,-5.7826,52.431,-8.5451,28.82
-4.4716,5.4232,-34.525,-10.522,25.422,-9.1708,20.842,9.9742,-2.2032,-0.1732,14.595,-2.2047,-5.8596,52.324,-8.5483,28.666
-4.4716,5.4232,-34.525,-10.522,25.422,-9.1708,20.842,9.9742,-2.2032,-0.1732,14.595,-2.2047,-5.8596,52.324,-8.5483,28.666
-4.4531,5.377,-34.541,-10.552,25.513,-9.2914,20.911,9.8539,-2.1983,-0.24585,14.592,-2.2673,-5.9369,52.217,-8.5513,28.513
-4.4531,5.377,-34.541,-10.552,25.513,-9.2914,20.911,9.8539,-2.1983,-0.24585,14.592,-2.2673,-5.9369,52.217,-8.5513,28.513
-4.4342,5.331,-34.556,-10.581,25.604,-9.4113,20.98,9.7335,-2.1931,-0.31814,14.588,-2.3288,-6.0144,52.11,-8.5538,28.359
-4.4342,5.331,-34.556,-10.581,25.604,-9.4113,20.98,9.7335,-2.1931,-0.31814,14.588,-2.3288,-6.0144,52.11,-8.5538,28.359
-4.4149,5.2851,-34.57,-10.608,25.694,-9.5305,21.048,9.613,-2.1879,-0.39008,14.583,-2.3893,-6.0923,52.001,-8.5561,28.205
-4.4149,5.2851,-34.57,-10.608,25.694,-9.5305,21.048,9.613,-2.1879,-0.39008,14.583,-2.3893,-6.0923,52.001,-8.5561,28.205
-4.3953,5.2394,-34.583,-10.635,25.783,-9.649,21.115,9.4924,-2.1825,-0.46164,14.577,-2.4488,-6.1704,51.892,-8.558,28.05
-4.3953,5.2394,-34.583,-10.635,25.783,-9.649,21.115,9.4924,-2.1825,-0.46164,14.577,-2.4488,-6.1704,51.892,-8.558,28.05
-4.3753,5.1937,-34.596,-10.661,25.871,-9.7668,21.181,9.3718,-2.177,-0.53284,14.569,-2.5072,-6.2489,51.782,-8.5596,27.896
-4.3753,5.1937,-34.596,-10.661,25.871,-9.7668,21.181,9.3718,-2.177,-0.53284,14.569,-2.5072,-6.2489,51.782,-8.5596,27.896
-4.3549,5.1482,-34.607,-10.686,25.958,-9.8839,21.247,9.251,-2.1714,-0.60366,14.561,-2.5645,-6.3276,51.672,-8.5609,27.741
-4.3549,5.1482,-34.607,-10.686,25.958,-9.8839,21.247,9.251,-2.1714,-0.60366,14.561,-2.5645,-6.3276,51.672,-8.5609,27.741
-4.3342,5.1028,-34.617,-10.711,26.044,-10,21.312,9.1302,-2.1656,-0.6741,14.552,-2.6208,-6.4067,51.56,-8.5619,27.587
-4.3342,5.1028,-34.617,-10.711,26.044,-10,21.312,9.1302,-2.1656,-0.6741,14.552,-2.6208,-6.4067,51.56,-8.5619,27.587
-4.3342,5.1028,-34.617,-10.711,26.044,-10,21.312,9.1302,-2.1656,-0.6741,14.552,-2.6208,-6.4067,51.56,-8.5619,27.587
-4.3132,5.0576,-34.626,-10.734,26.13,-10.116,21.376,9.0092,-2.1597,-0.74416,14.542,-2.676,-6.486,51.449,-8.5625,27.432
-4.3132,5.0576,-34.626,-10.734,26.13,-10.116,21.376,9.0092,-2.1597,-0.74416,14.542,-2.676,-6.486,51.449,-8.5625,27.432
-4.3132,5.0576,-34.626,-10.734,26.13,-10.116,21.376,9.0092,-2.1597,-0.74416,14.542,-2.676,-6.486,51.449,-8.5625,27.432
-4.3132,5.0576,-34.626,-10.734,26.13,-10.116,21.376,9.0092,-2.1597,-0.74416,14.542,-2.676,-6.486,51.449,-8.5625,27.432
-4.2701,4.9675,-34.641,-10.779,26.299,-10.345,21.503,8.7672,-2.1475,-0.8831,14.519,-2.7832,-6.6456,51.223,-8.5628,27.122
-4.2701,4.9675,-34.641,-10.779,26.299,-10.345,21.503,8.7672,-2.1475,-0.8831,14.519,-2.7832,-6.6456,51.223,-8.5628,27.122
-4.248,4.9228,-34.647,-10.8,26.382,-10.459,21.565,8.6461,-2.1411,-0.95199,14.505,-2.8351,-6.7259,51.109,-8.5624,26.967
-4.2257,4.8782,-34.652,-10.82,26.465,-10.572,21.627,8.5249,-2.1347,-1.0205,14.491,-2.886,-6.8064,50.995,-8.5617,26.812
-4.2257,4.8782,-34.652,-10.82,26.465,-10.572,21.627,8.5249,-2.1347,-1.0205,14.491,-2.886,-6.8064,50.995,-8.5617,26.812
-4.203,4.8338,-34.656,-10.839,26.546,-10.684,21.688,8.4037,-2.1281,-1.0885,14.476,-2.9357,-6.8873,50.88,-8.5607,26.657
-4.203,4.8338,-34.656,-10.839,26.546,-10.684,21.688,8.4037,-2.1281,-1.0885,14.476,-2.9357,-6.8873,50.88,-8.5607,26.657
-4.203,4.8338,-34.656,-10.839,26.546,-10.684,21.688,8.4037,-2.1281,-1.0885,14.476,-2.9357,-6.8873,50.88,-8.5607,26.657
-4.18,4.7895,-34.659,-10.858,26.627,-10.796,21.748,8.2824,-2.1215,-1.1562,14.46,-2.9844,-6.9685,50.764,-8.5593,26.502
-4.18,4.7895,-34.659,-10.858,26.627,-10.796,21.748,8.2824,-2.1215,-1.1562,14.46,-2.9844,-6.9685,50.764,-8.5593,26.502
-4.1332,4.7017,-34.661,-10.893,26.786,-11.017,21.867,8.0398,-2.1077,-1.2903,14.425,-3.0784,-7.1317,50.531,-8.5555,26.191
-4.1332,4.7017,-34.661,-10.893,26.786,-11.017,21.867,8.0398,-2.1077,-1.2903,14.425,-3.0784,-7.1317,50.531,-8.5555,26.191
-4.1332,4.7017,-34.661,-10.893,26.786,-11.017,21.867,8.0398,-2.1077,-1.2903,14.425,-3.0784,-7.1317,50.531,-8.5555,26.191
-4.1093,4.658,-34.661,-10.909,26.864,-11.126,21.925,7.9184,-2.1006,-1.3567,14.407,-3.1237,-7.2137,50.414,-8.5532,26.036
-4.1093,4.658,-34.661,-10.909,26.864,-11.126,21.925,7.9184,-2.1006,-1.3567,14.407,-3.1237,-7.2137,50.414,-8.5532,26.036
-4.1093,4.658,-34.661,-10.909,26.864,-11.126,21.925,7.9184,-2.1006,-1.3567,14.407,-3.1237,-7.2137,50.414,-8.5532,26.036
-4.0851,4.6146,-34.66,-10.925,26.941,-11.235,21.983,7.7971,-2.0934,-1.4227,14.387,-3.168,-7.2961,50.296,-8.5504,25.881
-4.0851,4.6146,-34.66,-10.925,26.941,-11.235,21.983,7.7971,-2.0934,-1.4227,14.387,-3.168,-7.2961,50.296,-8.5504,25.881
-4.0607,4.5714,-34.658,-10.94,27.018,-11.343,22.04,7.6757,-2.0861,-1.4883,14.366,-3.2111,-7.3788,50.177,-8.5474,25.725
-4.036,4.5284,-34.655,-10.954,27.094,-11.45,22.097,7.5542,-2.0786,-1.5534,14.344,-3.2531,-7.4617,50.058,-8.544,25.57
-4.036,4.5284,-34.655,-10.954,27.094,-11.45,22.097,7.5542,-2.0786,-1.5534,14.344,-3.2531,-7.4617,50.058,-8.544,25.57
-4.011,4.4856,-34.65,-10.968,27.168,-11.557,22.153,7.4328,-2.071,-1.6181,14.322,-3.2939,-7.545,49.939,-8.5402,25.415
-4.011,4.4856,-34.65,-10.968,27.168,-11.557,22.153,7.4328,-2.071,-1.6181,14.322,-3.2939,-7.545,49.939,-8.5402,25.415
-3.9857,4.4431,-34.645,-10.981,27.242,-11.663,22.208,7.3114,-2.0633,-1.6823,14.298,-3.3337,-7.6286,49.819,-8.5362,25.259
-3.9857,4.4431,-34.645,-10.981,27.242,-11.663,22.208,7.3114,-2.0633,-1.6823,14.298,-3.3337,-7.6286,49.819,-8.5362,25.259
-3.9857,4.4431,-34.645,-10.981,27.242,-11.663,22.208,7.3114,-2.0633,-1.6823,14.298,-3.3337,-7.6286,49.819,-8.5362,25.259
-3.9602,4.4008,-34.639,-10.993,27.316,-11.768,22.263,7.19,-2.0555,-1.7462,14.274,-3.3723,-7.7125,49.698,-8.5317,25.104
-3.9345,4.3588,-34.631,-11.005,27.388,-11.873,22.317,7.0686,-2.0475,-1.8095,14.248,-3.4098,-7.7967,49.577,-8.527,24.948
-3.9345,4.3588,-34.631,-11.005,27.388,-11.873,22.317,7.0686,-2.0475,-1.8095,14.248,-3.4098,-7.7967,49.577,-8.527,24.948
-3.9085,4.317,-34.623,-11.016,27.46,-11.976,22.371,6.9472,-2.0394,-1.8724,14.222,-3.4461,-7.8811,49.455,-8.5219,24.793
-3.9085,4.317,-34.623,-11.016,27.46,-11.976,22.371,6.9472,-2.0394,-1.8724,14.222,-3.4461,-7.8811,49.455,-8.5219,24.793
-3.8822,4.2755,-34.614,-11.026,27.53,-12.08,22.424,6.8258,-2.0312,-1.9349,14.195,-3.4813,-7.9659,49.333,-8.5164,24.638
-3.8822,4.2755,-34.614,-11.026,27.53,-12.08,22.424,6.8258,-2.0312,-1.9349,14.195,-3.4813,-7.9659,49.333,-8.5164,24.638
-3.8558,4.2343,-34.604,-11.036,27.6,-12.182,22.476,6.7045,-2.0229,-1.9969,14.167,-3.5153,-8.051,49.21,-8.5106,24.482
-3.8558,4.2343,-34.604,-11.036,27.6,-12.182,22.476,6.7045,-2.0229,-1.9969,14.167,-3.5153,-8.051,49.21,-8.5106,24.482
-3.8558,4.2343,-34.604,-11.036,27.6,-12.182,22.476,6.7045,-2.0229,-1.9969,14.167,-3.5153,-8.051,49.21,-8.5106,24.482
-3.8291,4.1933,-34.592,-11.045,27.669,-12.284,22.528,6.5831,-2.0144,-2.0584,14.138,-3.5483,-8.1364,49.087,-8.5044,24.327
-3.8022,4.1526,-34.58,-11.054,27.737,-12.385,22.579,6.4619,-2.0058,-2.1195,14.108,-3.58,-8.2221,48.963,-8.4979,24.172
-3.8022,4.1526,-34.58,-11.054,27.737,-12.385,22.579,6.4619,-2.0058,-2.1195,14.108,-3.58,-8.2221,48.963,-8.4979,24.172
-3.775,4.1122,-34.567,-11.062,27.805,-12.485,22.63,6.3406,-1.9971,-2.1801,14.077,-3.6107,-8.3081,48.839,-8.4911,24.017
-3.775,4.1122,-34.567,-11.062,27.805,-12.485,22.63,6.3406,-1.9971,-2.1801,14.077,-3.6107,-8.3081,48.839,-8.4911,24.017
-3.7477,4.072,-34.552,-11.069,27.871,-12.585,22.68,6.2194,-1.9883,-2.2402,14.045,-3.6401,-8.3944,48.715,-8.4839,23.862
-3.7477,4.072,-34.552,-11.069,27.871,-12.585,22.68,6.2194,-1.9883,-2.2402,14.045,-3.6401,-8.3944,48.715,-8.4839,23.862
-3.7201,4.0322,-34.537,-11.076,27.937,-12.684,22.729,6.0983,-1.9794,-2.2999,14.013,-3.6685,-8.481,48.59,-8.4763,23.707
-3.7201,4.0322,-34.537,-11.076,27.937,-12.684,22.729,6.0983,-1.9794,-2.2999,14.013,-3.6685,-8.481,48.59,-8.4763,23.707
-3.6924,3.9927,-34.521,-11.082,28.002,-12.782,22.778,5.9772,-1.9703,-2.359,13.979,-3.6956,-8.568,48.464,-8.4684,23.552
-3.6924,3.9927,-34.521,-11.082,28.002,-12.782,22.778,5.9772,-1.9703,-2.359,13.979,-3.6956,-8.568,48.464,-8.4684,23.552
-3.6644,3.9535,-34.504,-11.088,28.066,-12.88,22.827,5.8562,-1.9612,-2.4177,13.945,-3.7216,-8.6552,48.339,-8.4602,23.397
-3.6644,3.9535,-34.504,-11.088,28.066,-12.88,22.827,5.8562,-1.9612,-2.4177,13.945,-3.7216,-8.6552,48.339,-8.4602,23.397
-3.6363,3.9146,-34.485,-11.093,28.129,-12.977,22.874,5.7352,-1.9519,-2.4759,13.91,-3.7465,-8.7427,48.212,-8.4516,23.242
-3.6363,3.9146,-34.485,-11.093,28.129,-12.977,22.874,5.7352,-1.9519,-2.4759,13.91,-3.7465,-8.7427,48.212,-8.4516,23.242
-3.608,3.876,-34.466,-11.098,28.191,-13.073,22.922,5.6144,-1.9425,-2.5336,13.874,-3.7702,-8.8305,48.086,-8.4426,23.087
-3.608,3.876,-34.466,-11.098,28.191,-13.073,22.922,5.6144,-1.9425,-2.5336,13.874,-3.7702,-8.8305,48.086,-8.4426,23.087
-3.5795,3.8377,-34.446,-11.102,28.253,-13.169,22.969,5.4936,-1.9329,-2.5908,13.837,-3.7928,-8.9187,47.959,-8.4333,22.933
-3.5795,3.8377,-34.446,-11.102,28.253,-13.169,22.969,5.4936,-1.9329,-2.5908,13.837,-3.7928,-8.9187,47.959,-8.4333,22.933
-3.5795,3.8377,-34.446,-11.102,28.253,-13.169,22.969,5.4936,-1.9329,-2.5908,13.837,-3.7928,-8.9187,47.959,-8.4333,22.933
-3.5508,3.7998,-34.425,-11.105,28.313,-13.264,23.015,5.3728,-1.9233,-2.6476,13.8,-3.8141,-9.0071,47.831,-8.4236,22.778
-3.522,3.7622,-34.403,-11.108,28.373,-13.358,23.061,5.2522,-1.9135,-2.7038,13.761,-3.8344,-9.0959,47.703,-8.4135,22.624
-3.522,3.7622,-34.403,-11.108,28.373,-13.358,23.061,5.2522,-1.9135,-2.7038,13.761,-3.8344,-9.0959,47.703,-8.4135,22.624
-3.493,3.7249,-34.38,-11.111,28.432,-13.452,23.106,5.1317,-1.9037,-2.7595,13.722,-3.8534,-9.1849,47.575,-8.4031,22.47
-3.493,3.7249,-34.38,-11.111,28.432,-13.452,23.106,5.1317,-1.9037,-2.7595,13.722,-3.8534,-9.1849,47.575,-8.4031,22.47
-3.4639,3.688,-34.355,-11.113,28.49,-13.544,23.151,5.0112,-1.8937,-2.8147,13.682,-3.8714,-9.2743,47.447,-8.3924,22.315
-3.4639,3.688,-34.355,-11.113,28.49,-13.544,23.151,5.0112,-1.8937,-2.8147,13.682,-3.8714,-9.2743,47.447,-8.3924,22.315
-3.4639,3.688,-34.355,-11.113,28.49,-13.544,23.151,5.0112,-1.8937,-2.8147,13.682,-3.8714,-9.2743,47.447,-8.3924,22.315
-3.4346,3.6515,-34.33,-11.115,28.548,-13.637,23.195,4.8909,-1.8836,-2.8695,13.641,-3.8881,-9.3639,47.318,-8.3813,22.161
-3.4346,3.6515,-34.33,-11.115,28.548,-13.637,23.195,4.8909,-1.8836,-2.8695,13.641,-3.8881,-9.3639,47.318,-8.3813,22.161
-3.4052,3.6153,-34.304,-11.116,28.604,-13.728,23.239,4.7707,-1.8734,-2.9237,13.6,-3.9037,-9.4539,47.189,-8.3698,22.008
-3.3756,3.5795,-34.278,-11.117,28.66,-13.819,23.282,4.6505,-1.863,-2.9774,13.557,-3.9181,-9.5442,47.059,-8.3579,21.854
-3.3756,3.5795,-34.278,-11.117,28.66,-13.819,23.282,4.6505,-1.863,-2.9774,13.557,-3.9181,-9.5442,47.059,-8.3579,21.854
-3.3459,3.544,-34.25,-11.118,28.715,-13.909,23.325,4.5306,-1.8526,-3.0305,13.514,-3.9314,-9.6347,46.929,-8.3457,21.7
-3.3459,3.544,-34.25,-11.118,28.715,-13.909,23.325,4.5306,-1.8526,-3.0305,13.514,-3.9314,-9.6347,46.929,-8.3457,21.7
-3.3161,3.5089,-34.221,-11.118,28.769,-13.999,23.367,4.4107,-1.8421,-3.0832,13.47,-3.9435,-9.7256,46.799,-8.3331,21.547
-3.3161,3.5089,-34.221,-11.118,28.769,-13.999,23.367,4.4107,-1.8421,-3.0832,13.47,-3.9435,-9.7256,46.799,-8.3331,21.547
-3.3161,3.5089,-34.221,-11.118,28.769,-13.999,23.367,4.4107,-1.8421,-3.0832,13.47,-3.9435,-9.7256,46.799,-8.3331,21.547
-3.2862,3.4742,-34.191,-11.117,28.822,-14.088,23.409,4.2909,-1.8314,-3.1353,13.425,-3.9544,-9.8168,46.669,-8.3202,21.394
-3.2862,3.4742,-34.191,-11.117,28.822,-14.088,23.409,4.2909,-1.8314,-3.1353,13.425,-3.9544,-9.8168,46.669,-8.3202,21.394
-3.2561,3.4399,-34.161,-11.116,28.874,-14.176,23.45,4.1713,-1.8207,-3.1869,13.38,-3.9642,-9.9083,46.538,-8.3069,21.241
-3.226,3.4059,-34.129,-11.115,28.926,-14.263,23.491,4.0519,-1.8098,-3.238,13.333,-3.9728,-10,46.407,-8.2932,21.088
-3.226,3.4059,-34.129,-11.115,28.926,-14.263,23.491,4.0519,-1.8098,-3.238,13.333,-3.9728,-10,46.407,-8.2932,21.088
-3.1957,3.3724,-34.097,-11.114,28.977,-14.35,23.531,3.9325,-1.7988,-3.2886,13.286,-3.9803,-10.092,46.276,-8.2792,20.935
-3.1957,3.3724,-34.097,-11.114,28.977,-14.35,23.531,3.9325,-1.7988,-3.2886,13.286,-3.9803,-10.092,46.276,-8.2792,20.935
-3.1654,3.3392,-34.063,-11.112,29.026,-14.436,23.571,3.8134,-1.7877,-3.3386,13.238,-3.9866,-10.185,46.144,-8.2648,20.782
-3.1654,3.3392,-34.063,-11.112,29.026,-14.436,23.571,3.8134,-1.7877,-3.3386,13.238,-3.9866,-10.185,46.144,-8.2648,20.782
-3.1349,3.3065,-34.029,-11.109,29.076,-14.522,23.611,3.6944,-1.7765,-3.3881,13.19,-3.9918,-10.277,46.012,-8.25,20.63
-3.1349,3.3065,-34.029,-11.109,29.076,-14.522,23.611,3.6944,-1.7765,-3.3881,13.19,-3.9918,-10.277,46.012,-8.25,20.63
-3.1044,3.2742,-33.994,-11.107,29.124,-14.607,23.65,3.5755,-1.7652,-3.4371,13.141,-3.9957,-10.37,45.88,-8.2348,20.478
-3.1044,3.2742,-33.994,-11.107,29.124,-14.607,23.65,3.5755,-1.7652,-3.4371,13.141,-3.9957,-10.37,45.88,-8.2348,20.478
-3.0737,3.2422,-33.958,-11.103,29.171,-14.691,23.689,3.4568,-1.7538,-3.4855,13.091,-3.9986,-10.464,45.748,-8.2193,20.326
-3.0737,3.2422,-33.958,-11.103,29.171,-14.691,23.689,3.4568,-1.7538,-3.4855,13.091,-3.9986,-10.464,45.748,-8.2193,20.326
-3.043,3.2107,-33.921,-11.1,29.218,-14.774,23.727,3.3383,-1.7423,-3.5334,13.04,-4.0003,-10.557,45.615,-8.2034,20.174
-3.043,3.2107,-33.921,-11.1,29.218,-14.774,23.727,3.3383,-1.7423,-3.5334,13.04,-4.0003,-10.557,45.615,-8.2034,20.174
-3.0123,3.1797,-33.883,-11.096,29.264,-14.857,23.765,3.2199,-1.7307,-3.5807,12.988,-4.0008,-10.651,45.482,-8.1871,20.022
-3.0123,3.1797,-33.883,-11.096,29.264,-14.857,23.765,3.2199,-1.7307,-3.5807,12.988,-4.0008,-10.651,45.482,-8.1871,20.022
-2.9814,3.149,-33.844,-11.092,29.309,-14.939,23.802,3.1017,-1.719,-3.6275,12.936,-4.0002,-10.746,45.349,-8.1705,19.871
-2.9814,3.149,-33.844,-11.092,29.309,-14.939,23.802,3.1017,-1.719,-3.6275,12.936,-4.0002,-10.746,45.349,-8.1705,19.871
-2.9814,3.149,-33.844,-11.092,29.309,-14.939,23.802,3.1017,-1.719,-3.6275,12.936,-4.0002,-10.746,45.349,-8.1705,19.871
-2.9506,3.1188,-33.804,-11.088,29.353,-15.021,23.839,2.9837,-1.7072,-3.6738,12.883,-3.9984,-10.84,45.216,-8.1534,19.72
-2.9196,3.089,-33.764,-11.083,29.396,-15.102,23.876,2.8659,-1.6953,-3.7195,12.83,-3.9955,-10.935,45.083,-8.136,19.569
-2.9196,3.089,-33.764,-11.083,29.396,-15.102,23.876,2.8659,-1.6953,-3.7195,12.83,-3.9955,-10.935,45.083,-8.136,19.569
-2.8886,3.0596,-33.723,-11.079,29.439,-15.182,23.912,2.7483,-1.6833,-3.7646,12.776,-3.9914,-11.03,44.949,-8.1183,19.418
-2.8886,3.0596,-33.723,-11.079,29.439,-15.182,23.912,2.7483,-1.6833,-3.7646,12.776,-3.9914,-11.03,44.949,-8.1183,19.418
-2.8576,3.0307,-33.68,-11.073,29.481,-15.262,23.948,2.6309,-1.6713,-3.8092,12.721,-3.9862,-11.126,44.816,-8.1001,19.267
-2.8576,3.0307,-33.68,-11.073,29.481,-15.262,23.948,2.6309,-1.6713,-3.8092,12.721,-3.9862,-11.126,44.816,-8.1001,19.267
-2.8265,3.0022,-33.637,-11.068,29.522,-15.341,23.984,2.5137,-1.6591,-3.8533,12.665,-3.9799,-11.221,44.682,-8.0816,19.117
-2.8265,3.0022,-33.637,-11.068,29.522,-15.341,23.984,2.5137,-1.6591,-3.8533,12.665,-3.9799,-11.221,44.682,-8.0816,19.117
-2.8265,3.0022,-33.637,-11.068,29.522,-15.341,23.984,2.5137,-1.6591,-3.8533,12.665,-3.9799,-11.221,44.682,-8.0816,19.117
-2.7954,2.9742,-33.593,-11.062,29.562,-15.419,24.019,2.3966,-1.6468,-3.8967,12.609,-3.9724,-11.318,44.548,-8.0626,18.967
-2.7954,2.9742,-33.593,-11.062,29.562,-15.419,24.019,2.3966,-1.6468,-3.8967,12.609,-3.9724,-11.318,44.548,-8.0626,18.967
-2.7954,2.9742,-33.593,-11.062,29.562,-15.419,24.019,2.3966,-1.6468,-3.8967,12.609,-3.9724,-11.318,44.548,-8.0626,18.967
-2.7331,2.9195,-33.503,-11.05,29.64,-15.574,24.088,2.1632,-1.6219,-3.982,12.495,-3.954,-11.511,44.279,-8.0237,18.667
-2.7019,2.8929,-33.457,-11.044,29.678,-15.65,24.122,2.0469,-1.6094,-4.0239,12.437,-3.9431,-11.608,44.145,-8.0036,18.518
-2.7019,2.8929,-33.457,-11.044,29.678,-15.65,24.122,2.0469,-1.6094,-4.0239,12.437,-3.9431,-11.608,44.145,-8.0036,18.518
-2.7019,2.8929,-33.457,-11.044,29.678,-15.65,24.122,2.0469,-1.6094,-4.0239,12.437,-3.9431,-11.608,44.145,-8.0036,18.518
-2.6707,2.8667,-33.41,-11.037,29.715,-15.726,24.156,1.9307,-1.5967,-4.0651,12.378,-3.9311,-11.705,44.01,-7.9832,18.369
-2.6707,2.8667,-33.41,-11.037,29.715,-15.726,24.156,1.9307,-1.5967,-4.0651,12.378,-3.9311,-11.705,44.01,-7.9832,18.369
-2.6707,2.8667,-33.41,-11.037,29.715,-15.726,24.156,1.9307,-1.5967,-4.0651,12.378,-3.9311,-11.705,44.01,-7.9832,18.369
-2.6395,2.841,-33.362,-11.03,29.751,-15.801,24.189,1.8148,-1.5839,-4.1058,12.319,-3.9179,-11.803,43.876,-7.9623,18.22
-2.6083,2.8157,-33.313,-11.023,29.787,-15.876,24.222,1.6991,-1.5711,-4.1459,12.259,-3.9037,-11.901,43.741,-7.9411,18.071
-2.6083,2.8157,-33.313,-11.023,29.787,-15.876,24.222,1.6991,-1.5711,-4.1459,12.259,-3.9037,-11.901,43.741,-7.9411,18.071
-2.5771,2.791,-33.263,-11.015,29.821,-15.95,24.255,1.5837,-1.5582,-4.1855,12.198,-3.8883,-11.999,43.606,-7.9195,17.923
-2.5771,2.791,-33.263,-11.015,29.821,-15.95,24.255,1.5837,-1.5582,-4.1855,12.198,-3.8883,-11.999,43.606,-7.9195,17.923
-2.5771,2.791,-33.263,-11.015,29.821,-15.95,24.255,1.5837,-1.5582,-4.1855,12.198,-3.8883,-11.999,43.606,-7.9195,17.923
-2.5771,2.791,-33.263,-11.015,29.821,-15.95,24.255,1.5837,-1.5582,-4.1855,12.198,-3.8883,-11.999,43.606,-7.9195,17.923
-2.5147,2.7429,-33.162,-11,29.888,-16.096,24.319,1.3535,-1.5321,-4.2629,12.076,-3.8542,-12.197,43.336,-7.8752,17.627
-2.5147,2.7429,-33.162,-11,29.888,-16.096,24.319,1.3535,-1.5321,-4.2629,12.076,-3.8542,-12.197,43.336,-7.8752,17.627
-2.5147,2.7429,-33.162,-11,29.888,-16.096,24.319,1.3535,-1.5321,-4.2629,12.076,-3.8542,-12.197,43.336,-7.8752,17.627
-2.4835,2.7196,-33.11,-10.992,29.921,-16.168,24.351,1.2387,-1.5189,-4.3007,12.013,-3.8355,-12.296,43.201,-7.8524,17.479
-2.4524,2.6967,-33.057,-10.984,29.952,-16.24,24.382,1.1243,-1.5056,-4.338,11.95,-3.8156,-12.395,43.066,-7.8293,17.332
-2.4524,2.6967,-33.057,-10.984,29.952,-16.24,24.382,1.1243,-1.5056,-4.338,11.95,-3.8156,-12.395,43.066,-7.8293,17.332
-2.4524,2.6967,-33.057,-10.984,29.952,-16.24,24.382,1.1243,-1.5056,-4.338,11.95,-3.8156,-12.395,43.066,-7.8293,17.332
-2.4212,2.6744,-33.003,-10.976,29.983,-16.31,24.413,1.0101,-1.4923,-4.3747,11.887,-3.7947,-12.495,42.93,-7.8058,17.185
-2.4212,2.6744,-33.003,-10.976,29.983,-16.31,24.413,1.0101,-1.4923,-4.3747,11.887,-3.7947,-12.495,42.93,-7.8058,17.185
-2.4212,2.6744,-33.003,-10.976,29.983,-16.31,24.413,1.0101,-1.4923,-4.3747,11.887,-3.7947,-12.495,42.93,-7.8058,17.185
-2.3591,2.6312,-32.894,-10.959,30.043,-16.45,24.475,0.78241,-1.4653,-4.4464,11.758,-3.7496,-12.696,42.66,-7.7575,16.892
-2.3591,2.6312,-32.894,-10.959,30.043,-16.45,24.475,0.78241,-1.4653,-4.4464,11.758,-3.7496,-12.696,42.66,-7.7575,16.892
-2.3281,2.6103,-32.838,-10.95,30.071,-16.519,24.505,0.66899,-1.4518,-4.4814,11.693,-3.7254,-12.797,42.525,-7.7328,16.745
-2.3281,2.6103,-32.838,-10.95,30.071,-16.519,24.505,0.66899,-1.4518,-4.4814,11.693,-3.7254,-12.797,42.525,-7.7328,16.745
-2.2971,2.59,-32.782,-10.941,30.099,-16.588,24.535,0.55584,-1.4381,-4.5158,11.628,-3.7001,-12.898,42.389,-7.7078,16.6
-2.2971,2.59,-32.782,-10.941,30.099,-16.588,24.535,0.55584,-1.4381,-4.5158,11.628,-3.7001,-12.898,42.389,-7.7078,16.6
-2.2662,2.5701,-32.725,-10.932,30.126,-16.656,24.565,0.44296,-1.4244,-4.5496,11.562,-3.6737,-12.999,42.254,-7.6823,16.454
-2.2662,2.5701,-32.725,-10.932,30.126,-16.656,24.565,0.44296,-1.4244,-4.5496,11.562,-3.6737,-12.999,42.254,-7.6823,16.454
-2.2353,2.5508,-32.667,-10.923,30.152,-16.723,24.594,0.33037,-1.4105,-4.5829,11.495,-3.6463,-13.101,42.119,-7.6564,16.308
-2.2353,2.5508,-32.667,-10.923,30.152,-16.723,24.594,0.33037,-1.4105,-4.5829,11.495,-3.6463,-13.101,42.119,-7.6564,16.308
-2.2045,2.532,-32.608,-10.914,30.178,-16.79,24.623,0.21805,-1.3966,-4.6155,11.428,-3.6178,-13.203,41.983,-7.6301,16.163
-2.2045,2.532,-32.608,-10.914,30.178,-16.79,24.623,0.21805,-1.3966,-4.6155,11.428,-3.6178,-13.203,41.983,-7.6301,16.163
-2.2045,2.532,-32.608,-10.914,30.178,-16.79,24.623,0.21805,-1.3966,-4.6155,11.428,-3.6178,-13.203,41.983,-7.6301,16.163
-2.1738,2.5136,-32.549,-10.904,30.203,-16.856,24.652,0.10603,-1.3827,-4.6476,11.36,-3.5882,-13.306,41.848,-7.6035,16.019
-2.1431,2.4958,-32.489,-10.895,30.227,-16.921,24.681,-0.0057073,-1.3686,-4.6792,11.292,-3.5576,-13.408,41.713,-7.5764,15.874
-2.1431,2.4958,-32.489,-10.895,30.227,-16.921,24.681,-0.0057073,-1.3686,-4.6792,11.292,-3.5576,-13.408,41.713,-7.5764,15.874
-2.1125,2.4785,-32.428,-10.885,30.25,-16.986,24.709,-0.11715,-1.3545,-4.7101,11.223,-3.5259,-13.511,41.577,-7.549,15.73
-2.1125,2.4785,-32.428,-10.885,30.25,-16.986,24.709,-0.11715,-1.3545,-4.7101,11.223,-3.5259,-13.511,41.577,-7.549,15.73
-2.082,2.4618,-32.367,-10.876,30.273,-17.05,24.738,-0.22829,-1.3404,-4.7404,11.154,-3.4932,-13.615,41.442,-7.5212,15.586
-2.082,2.4618,-32.367,-10.876,30.273,-17.05,24.738,-0.22829,-1.3404,-4.7404,11.154,-3.4932,-13.615,41.442,-7.5212,15.586
-2.082,2.4618,-32.367,-10.876,30.273,-17.05,24.738,-0.22829,-1.3404,-4.7404,11.154,-3.4932,-13.615,41.442,-7.5212,15.586
-2.0516,2.4455,-32.305,-10.866,30.295,-17.114,24.766,-0.33914,-1.3261,-4.7702,11.085,-3.4594,-13.719,41.307,-7.4929,15.442
-2.0516,2.4455,-32.305,-10.866,30.295,-17.114,24.766,-0.33914,-1.3261,-4.7702,11.085,-3.4594,-13.719,41.307,-7.4929,15.442
-2.0212,2.4298,-32.242,-10.856,30.316,-17.177,24.793,-0.44968,-1.3118,-4.7994,11.015,-3.4246,-13.823,41.172,-7.4643,15.299
-2.0212,2.4298,-32.242,-10.856,30.316,-17.177,24.793,-0.44968,-1.3118,-4.7994,11.015,-3.4246,-13.823,41.172,-7.4643,15.299
-1.991,2.4146,-32.179,-10.846,30.336,-17.24,24.821,-0.55991,-1.2974,-4.828,10.944,-3.3888,-13.927,41.037,-7.4353,15.156
-1.991,2.4146,-32.179,-10.846,30.336,-17.24,24.821,-0.55991,-1.2974,-4.828,10.944,-3.3888,-13.927,41.037,-7.4353,15.156
-1.9608,2.3999,-32.115,-10.836,30.356,-17.302,24.848,-0.66983,-1.283,-4.856,10.873,-3.3519,-14.032,40.902,-7.4059,15.013
-1.9608,2.3999,-32.115,-10.836,30.356,-17.302,24.848,-0.66983,-1.283,-4.856,10.873,-3.3519,-14.032,40.902,-7.4059,15.013
-1.9608,2.3999,-32.115,-10.836,30.356,-17.302,24.848,-0.66983,-1.283,-4.856,10.873,-3.3519,-14.032,40.902,-7.4059,15.013
-1.9008,2.3721,-31.985,-10.816,30.393,-17.424,24.902,-0.88873,-1.2539,-4.9104,10.73,-3.2751,-14.242,40.632,-7.3459,14.729
-1.9008,2.3721,-31.985,-10.816,30.393,-17.424,24.902,-0.88873,-1.2539,-4.9104,10.73,-3.2751,-14.242,40.632,-7.3459,14.729
-1.9008,2.3721,-31.985,-10.816,30.393,-17.424,24.902,-0.88873,-1.2539,-4.9104,10.73,-3.2751,-14.242,40.632,-7.3459,14.729
-1.871,2.359,-31.919,-10.806,30.411,-17.484,24.929,-0.9977,-1.2393,-4.9366,10.658,-3.2352,-14.348,40.497,-7.3153,14.587
-1.8413,2.3464,-31.852,-10.796,30.428,-17.544,24.956,-1.1064,-1.2246,-4.9623,10.585,-3.1942,-14.454,40.363,-7.2843,14.445
-1.8413,2.3464,-31.852,-10.796,30.428,-17.544,24.956,-1.1064,-1.2246,-4.9623,10.585,-3.1942,-14.454,40.363,-7.2843,14.445
-1.8116,2.3344,-31.785,-10.786,30.444,-17.603,24.982,-1.2147,-1.2099,-4.9875,10.512,-3.1523,-14.56,40.228,-7.2529,14.304
-1.8116,2.3344,-31.785,-10.786,30.444,-17.603,24.982,-1.2147,-1.2099,-4.9875,10.512,-3.1523,-14.56,40.228,-7.2529,14.304
-1.7822,2.3229,-31.717,-10.776,30.459,-17.662,25.008,-1.3227,-1.1951,-5.012,10.439,-3.1094,-14.667,40.094,-7.2211,14.163
-1.7822,2.3229,-31.717,-10.776,30.459,-17.662,25.008,-1.3227,-1.1951,-5.012,10.439,-3.1094,-14.667,40.094,-7.2211,14.163
-1.7528,2.3119,-31.649,-10.766,30.474,-17.72,25.035,-1.4303,-1.1803,-5.036,10.365,-3.0655,-14.774,39.96,-7.1889,14.023
-1.7528,2.3119,-31.649,-10.766,30.474,-17.72,25.035,-1.4303,-1.1803,-5.036,10.365,-3.0655,-14.774,39.96,-7.1889,14.023
-1.7528,2.3119,-31.649,-10.766,30.474,-17.72,25.035,-1.4303,-1.1803,-5.036,10.365,-3.0655,-14.774,39.96,-7.1889,14.023
-1.7236,2.3015,-31.58,-10.755,30.488,-17.778,25.06,-1.5377,-1.1654,-5.0593,10.291,-3.0207,-14.881,39.825,-7.1563,13.883
-1.6945,2.2916,-31.51,-10.745,30.501,-17.835,25.086,-1.6446,-1.1504,-5.0821,10.216,-2.9748,-14.989,39.692,-7.1233,13.743
-1.6945,2.2916,-31.51,-10.745,30.501,-17.835,25.086,-1.6446,-1.1504,-5.0821,10.216,-2.9748,-14.989,39.692,-7.1233,13.743
-1.6945,2.2916,-31.51,-10.745,30.501,-17.835,25.086,-1.6446,-1.1504,-5.0821,10.216,-2.9748,-14.989,39.692,-7.1233,13.743
-1.6655,2.2822,-31.44,-10.735,30.514,-17.891,25.112,-1.7513,-1.1354,-5.1043,10.141,-2.928,-15.097,39.558,-7.09,13.603
-1.6655,2.2822,-31.44,-10.735,30.514,-17.891,25.112,-1.7513,-1.1354,-5.1043,10.141,-2.928,-15.097,39.558,-7.09,13.603
-1.6367,2.2734,-31.37,-10.725,30.526,-17.947,25.137,-1.8576,-1.1204,-5.126,10.066,-2.8802,-15.205,39.424,-7.0562,13.464
-1.6367,2.2734,-31.37,-10.725,30.526,-17.947,25.137,-1.8576,-1.1204,-5.126,10.066,-2.8802,-15.205,39.424,-7.0562,13.464
-1.6081,2.2651,-31.299,-10.715,30.538,-18.002,25.162,-1.9636,-1.1053,-5.147,9.9904,-2.8315,-15.314,39.29,-7.022,13.325
-1.6081,2.2651,-31.299,-10.715,30.538,-18.002,25.162,-1.9636,-1.1053,-5.147,9.9904,-2.8315,-15.314,39.29,-7.022,13.325
-1.5796,2.2573,-31.227,-10.704,30.548,-18.057,25.188,-2.0692,-1.0901,-5.1675,9.9144,-2.7819,-15.423,39.157,-6.9874,13.186
-1.5796,2.2573,-31.227,-10.704,30.548,-18.057,25.188,-2.0692,-1.0901,-5.1675,9.9144,-2.7819,-15.423,39.157,-6.9874,13.186
-1.5512,2.2501,-31.155,-10.694,30.558,-18.112,25.213,-2.1744,-1.0749,-5.1874,9.8381,-2.7313,-15.532,39.024,-6.9525,13.048
-1.523,2.2434,-31.082,-10.684,30.568,-18.165,25.238,-2.2793,-1.0597,-5.2067,9.7615,-2.6798,-15.642,38.891,-6.9171,12.91
-1.523,2.2434,-31.082,-10.684,30.568,-18.165,25.238,-2.2793,-1.0597,-5.2067,9.7615,-2.6798,-15.642,38.891,-6.9171,12.91
-1.495,2.2373,-31.009,-10.674,30.576,-18.219,25.262,-2.3839,-1.0444,-5.2254,9.6846,-2.6273,-15.752,38.758,-6.8814,12.772
-1.495,2.2373,-31.009,-10.674,30.576,-18.219,25.262,-2.3839,-1.0444,-5.2254,9.6846,-2.6273,-15.752,38.758,-6.8814,12.772
-1.4672,2.2317,-30.935,-10.664,30.584,-18.271,25.287,-2.4881,-1.0291,-5.2436,9.6074,-2.574,-15.863,38.626,-6.8452,12.635
-1.4672,2.2317,-30.935,-10.664,30.584,-18.271,25.287,-2.4881,-1.0291,-5.2436,9.6074,-2.574,-15.863,38.626,-6.8452,12.635
-1.4672,2.2317,-30.935,-10.664,30.584,-18.271,25.287,-2.4881,-1.0291,-5.2436,9.6074,-2.574,-15.863,38.626,-6.8452,12.635
-1.4395,2.2266,-30.86,-10.654,30.592,-18.324,25.311,-2.5919,-1.0138,-5.2612,9.5298,-2.5197,-15.973,38.493,-6.8087,12.498
-1.412,2.2221,-30.786,-10.644,30.599,-18.375,25.336,-2.6954,-0.9984,-5.2782,9.452,-2.4646,-16.085,38.361,-6.7717,12.361
-1.412,2.2221,-30.786,-10.644,30.599,-18.375,25.336,-2.6954,-0.9984,-5.2782,9.452,-2.4646,-16.085,38.361,-6.7717,12.361
-1.3847,2.2181,-30.71,-10.634,30.605,-18.427,25.36,-2.7985,-0.98298,-5.2946,9.3739,-2.4086,-16.196,38.229,-6.7344,12.225
-1.3847,2.2181,-30.71,-10.634,30.605,-18.427,25.36,-2.7985,-0.98298,-5.2946,9.3739,-2.4086,-16.196,38.229,-6.7344,12.225
-1.3847,2.2181,-30.71,-10.634,30.605,-18.427,25.36,-2.7985,-0.98298,-5.2946,9.3739,-2.4086,-16.196,38.229,-6.7344,12.225
-1.3847,2.2181,-30.71,-10.634,30.605,-18.427,25.36,-2.7985,-0.98298,-5.2946,9.3739,-2.4086,-16.196,38.229,-6.7344,12.225
-1.3306,2.2118,-30.559,-10.614,30.615,-18.528,25.409,-3.0036,-0.95204,-5.3258,9.2168,-2.2938,-16.42,37.966,-6.6585,11.953
-1.3306,2.2118,-30.559,-10.614,30.615,-18.528,25.409,-3.0036,-0.95204,-5.3258,9.2168,-2.2938,-16.42,37.966,-6.6585,11.953
-1.3038,2.2094,-30.482,-10.604,30.619,-18.577,25.433,-3.1056,-0.93653,-5.3405,9.1379,-2.2352,-16.533,37.834,-6.62,11.817
-1.3038,2.2094,-30.482,-10.604,30.619,-18.577,25.433,-3.1056,-0.93653,-5.3405,9.1379,-2.2352,-16.533,37.834,-6.62,11.817
-1.2772,2.2076,-30.405,-10.595,30.623,-18.627,25.457,-3.2073,-0.92099,-5.3547,9.0587,-2.1757,-16.646,37.703,-6.5811,11.682
-1.2772,2.2076,-30.405,-10.595,30.623,-18.627,25.457,-3.2073,-0.92099,-5.3547,9.0587,-2.1757,-16.646,37.703,-6.5811,11.682
-1.2509,2.2063,-30.327,-10.585,30.626,-18.675,25.481,-3.3085,-0.90542,-5.3682,8.9793,-2.1153,-16.759,37.573,-6.5418,11.547
-1.2247,2.2056,-30.249,-10.575,30.628,-18.724,25.504,-3.4094,-0.88983,-5.3812,8.8997,-2.0541,-16.873,37.442,-6.502,11.413
-1.2247,2.2056,-30.249,-10.575,30.628,-18.724,25.504,-3.4094,-0.88983,-5.3812,8.8997,-2.0541,-16.873,37.442,-6.502,11.413
-1.2247,2.2056,-30.249,-10.575,30.628,-18.724,25.504,-3.4094,-0.88983,-5.3812,8.8997,-2.0541,-16.873,37.442,-6.502,11.413
-1.1988,2.2053,-30.171,-10.566,30.63,-18.771,25.528,-3.5099,-0.87421,-5.3937,8.8198,-1.992,-16.987,37.312,-6.4619,11.279
-1.1988,2.2053,-30.171,-10.566,30.63,-18.771,25.528,-3.5099,-0.87421,-5.3937,8.8198,-1.992,-16.987,37.312,-6.4619,11.279
-1.1988,2.2053,-30.171,-10.566,30.63,-18.771,25.528,-3.5099,-0.87421,-5.3937,8.8198,-1.992,-16.987,37.312,-6.4619,11.279
-1.173,2.2057,-30.092,-10.557,30.631,-18.819,25.552,-3.61,-0.85857,-5.4056,8.7397,-1.9292,-17.101,37.182,-6.4215,11.145
-1.173,2.2057,-30.092,-10.557,30.631,-18.819,25.552,-3.61,-0.85857,-5.4056,8.7397,-1.9292,-17.101,37.182,-6.4215,11.145
-1.1475,2.2065,-30.013,-10.547,30.631,-18.865,25.575,-3.7098,-0.84291,-5.4169,8.6594,-1.8655,-17.216,37.052,-6.3806,11.012
-1.1222,2.2079,-29.933,-10.538,30.631,-18.912,25.599,-3.8092,-0.82723,-5.4276,8.5788,-1.801,-17.331,36.923,-6.3393,10.878
-1.1222,2.2079,-29.933,-10.538,30.631,-18.912,25.599,-3.8092,-0.82723,-5.4276,8.5788,-1.801,-17.331,36.923,-6.3393,10.878
-1.0971,2.2098,-29.853,-10.529,30.63,-18.958,25.622,-3.9081,-0.81154,-5.4378,8.4981,-1.7357,-17.446,36.794,-6.2976,10.746
-1.0971,2.2098,-29.853,-10.529,30.63,-18.958,25.622,-3.9081,-0.81154,-5.4378,8.4981,-1.7357,-17.446,36.794,-6.2976,10.746
-1.0722,2.2123,-29.773,-10.52,30.629,-19.003,25.646,-4.0067,-0.79583,-5.4474,8.4172,-1.6697,-17.562,36.665,-6.2556,10.613
-1.0722,2.2123,-29.773,-10.52,30.629,-19.003,25.646,-4.0067,-0.79583,-5.4474,8.4172,-1.6697,-17.562,36.665,-6.2556,10.613
-1.0722,2.2123,-29.773,-10.52,30.629,-19.003,25.646,-4.0067,-0.79583,-5.4474,8.4172,-1.6697,-17.562,36.665,-6.2556,10.613
-1.0476,2.2152,-29.692,-10.511,30.627,-19.048,25.669,-4.1049,-0.78011,-5.4565,8.3361,-1.6028,-17.679,36.536,-6.2131,10.481
-1.0232,2.2188,-29.611,-10.503,30.625,-19.092,25.693,-4.2027,-0.76437,-5.465,8.2548,-1.5352,-17.795,36.408,-6.1703,10.349
-1.0232,2.2188,-29.611,-10.503,30.625,-19.092,25.693,-4.2027,-0.76437,-5.465,8.2548,-1.5352,-17.795,36.408,-6.1703,10.349
-0.99903,2.2228,-29.53,-10.494,30.622,-19.136,25.716,-4.3002,-0.74863,-5.4729,8.1734,-1.4668,-17.912,36.28,-6.1271,10.217
-0.99903,2.2228,-29.53,-10.494,30.622,-19.136,25.716,-4.3002,-0.74863,-5.4729,8.1734,-1.4668,-17.912,36.28,-6.1271,10.217
-0.99903,2.2228,-29.53,-10.494,30.622,-19.136,25.716,-4.3002,-0.74863,-5.4729,8.1734,-1.4668,-17.912,36.28,-6.1271,10.217
-0.97511,2.2274,-29.448,-10.485,30.618,-19.18,25.739,-4.3972,-0.73288,-5.4803,8.0918,-1.3977,-18.03,36.153,-6.0835,10.086
-0.97511,2.2274,-29.448,-10.485,30.618,-19.18,25.739,-4.3972,-0.73288,-5.4803,8.0918,-1.3977,-18.03,36.153,-6.0835,10.086
-0.97511,2.2274,-29.448,-10.485,30.618,-19.18,25.739,-4.3972,-0.73288,-5.4803,8.0918,-1.3977,-18.03,36.153,-6.0835,10.086
-0.92799,2.2381,-29.283,-10.469,30.609,-19.265,25.786,-4.5901,-0.70136,-5.4935,7.9282,-1.2572,-18.266,35.898,-5.9951,9.8247
-0.92799,2.2381,-29.283,-10.469,30.609,-19.265,25.786,-4.5901,-0.70136,-5.4935,7.9282,-1.2572,-18.266,35.898,-5.9951,9.8247
-0.92799,2.2381,-29.283,-10.469,30.609,-19.265,25.786,-4.5901,-0.70136,-5.4935,7.9282,-1.2572,-18.266,35.898,-5.9951,9.8247
-0.90481,2.2442,-29.201,-10.461,30.604,-19.308,25.809,-4.686,-0.68559,-5.4992,7.8461,-1.1859,-18.384,35.772,-5.9504,9.6944
-0.90481,2.2442,-29.201,-10.461,30.604,-19.308,25.809,-4.686,-0.68559,-5.4992,7.8461,-1.1859,-18.384,35.772,-5.9504,9.6944
-0.88188,2.2508,-29.118,-10.453,30.598,-19.349,25.832,-4.7814,-0.66983,-5.5044,7.764,-1.1139,-18.503,35.646,-5.9052,9.5645
-0.88188,2.2508,-29.118,-10.453,30.598,-19.349,25.832,-4.7814,-0.66983,-5.5044,7.764,-1.1139,-18.503,35.646,-5.9052,9.5645
-0.8368,2.2657,-28.951,-10.437,30.584,-19.431,25.879,-4.9712,-0.6383,-5.5132,7.5993,-0.9677,-18.742,35.394,-5.8138,9.3055
-0.8368,2.2657,-28.951,-10.437,30.584,-19.431,25.879,-4.9712,-0.6383,-5.5132,7.5993,-0.9677,-18.742,35.394,-5.8138,9.3055
-0.8368,2.2657,-28.951,-10.437,30.584,-19.431,25.879,-4.9712,-0.6383,-5.5132,7.5993,-0.9677,-18.742,35.394,-5.8138,9.3055
-0.81465,2.2739,-28.867,-10.43,30.577,-19.472,25.902,-5.0654,-0.62255,-5.5167,7.5167,-0.89358,-18.862,35.269,-5.7675,9.1766
-0.81465,2.2739,-28.867,-10.43,30.577,-19.472,25.902,-5.0654,-0.62255,-5.5167,7.5167,-0.89358,-18.862,35.269,-5.7675,9.1766
-0.81465,2.2739,-28.867,-10.43,30.577,-19.472,25.902,-5.0654,-0.62255,-5.5167,7.5167,-0.89358,-18.862,35.269,-5.7675,9.1766
-0.79277,2.2826,-28.783,-10.423,30.568,-19.512,25.925,-5.1593,-0.6068,-5.5198,7.4341,-0.81878,-18.983,35.144,-5.7209,9.0479
-0.79277,2.2826,-28.783,-10.423,30.568,-19.512,25.925,-5.1593,-0.6068,-5.5198,7.4341,-0.81878,-18.983,35.144,-5.7209,9.0479
-0.79277,2.2826,-28.783,-10.423,30.568,-19.512,25.925,-5.1593,-0.6068,-5.5198,7.4341,-0.81878,-18.983,35.144,-5.7209,9.0479
-0.74983,2.3016,-28.613,-10.408,30.55,-19.59,25.971,-5.3459,-0.57533,-5.5242,7.2686,-0.66721,-19.225,34.896,-5.6264,8.7915
-0.74983,2.3016,-28.613,-10.408,30.55,-19.59,25.971,-5.3459,-0.57533,-5.5242,7.2686,-0.66721,-19.225,34.896,-5.6264,8.7915
-0.72877,2.3119,-28.529,-10.401,30.541,-19.629,25.994,-5.4385,-0.55962,-5.5256,7.1857,-0.59045,-19.347,34.772,-5.5787,8.6638
-0.72877,2.3119,-28.529,-10.401,30.541,-19.629,25.994,-5.4385,-0.55962,-5.5256,7.1857,-0.59045,-19.347,34.772,-5.5787,8.6638
-0.708,2.3226,-28.443,-10.395,30.53,-19.667,26.018,-5.5308,-0.54392,-5.5265,7.1027,-0.51305,-19.469,34.649,-5.5305,8.5364
-0.708,2.3226,-28.443,-10.395,30.53,-19.667,26.018,-5.5308,-0.54392,-5.5265,7.1027,-0.51305,-19.469,34.649,-5.5305,8.5364
-0.6875,2.3339,-28.358,-10.388,30.52,-19.705,26.041,-5.6227,-0.52824,-5.5268,7.0197,-0.43503,-19.591,34.526,-5.482,8.4093
-0.6875,2.3339,-28.358,-10.388,30.52,-19.705,26.041,-5.6227,-0.52824,-5.5268,7.0197,-0.43503,-19.591,34.526,-5.482,8.4093
-0.6673,2.3456,-28.272,-10.382,30.508,-19.742,26.064,-5.7141,-0.51257,-5.5267,6.9366,-0.3564,-19.714,34.403,-5.4331,8.2826
-0.64738,2.3579,-28.186,-10.376,30.496,-19.779,26.087,-5.8052,-0.49693,-5.526,6.8535,-0.27717,-19.837,34.281,-5.3838,8.1561
-0.64738,2.3579,-28.186,-10.376,30.496,-19.779,26.087,-5.8052,-0.49693,-5.526,6.8535,-0.27717,-19.837,34.281,-5.3838,8.1561
-0.64738,2.3579,-28.186,-10.376,30.496,-19.779,26.087,-5.8052,-0.49693,-5.526,6.8535,-0.27717,-19.837,34.281,-5.3838,8.1561
-0.62776,2.3706,-28.1,-10.37,30.484,-19.816,26.111,-5.8959,-0.48131,-5.5247,6.7703,-0.19734,-19.961,34.16,-5.3342,8.03
-0.62776,2.3706,-28.1,-10.37,30.484,-19.816,26.111,-5.8959,-0.48131,-5.5247,6.7703,-0.19734,-19.961,34.16,-5.3342,8.03
-0.62776,2.3706,-28.1,-10.37,30.484,-19.816,26.111,-5.8959,-0.48131,-5.5247,6.7703,-0.19734,-19.961,34.16,-5.3342,8.03
-0.60844,2.3839,-28.014,-10.364,30.471,-19.852,26.134,-5.9861,-0.46572,-5.523,6.6871,-0.11692,-20.085,34.038,-5.2842,7.9042
-0.60844,2.3839,-28.014,-10.364,30.471,-19.852,26.134,-5.9861,-0.46572,-5.523,6.6871,-0.11692,-20.085,34.038,-5.2842,7.9042
-0.58942,2.3976,-27.928,-10.358,30.458,-19.888,26.157,-6.076,-0.45015,-5.5207,6.6038,-0.035939,-20.21,33.918,-5.2339,7.7786
-0.58942,2.3976,-27.928,-10.358,30.458,-19.888,26.157,-6.076,-0.45015,-5.5207,6.6038,-0.035939,-20.21,33.918,-5.2339,7.7786
