0.9636,-0.9995,0.9688,-0.5059,1.9463,-0.2904,2.3578,0.2905,1.3445,0.0094,-0.0662,-0.9834,1.0667,0.5801,1.3442,-0.5341
1.0035,-0.99,1.012,-0.5008,2.0045,-0.2844,2.4198,0.2912,1.3923,-0.0075,-0.0191,-0.9758,1.0972,0.5834,1.3812,-0.5275
1.0035,-0.99,1.012,-0.5008,2.0045,-0.2844,2.4198,0.2912,1.3923,-0.0075,-0.0191,-0.9758,1.0972,0.5834,1.3812,-0.5275
1.0285,-0.9841,1.0439,-0.5019,2.0337,-0.2814,2.4457,0.2992,1.3445,0.0094,0.0153,-0.9686,1.1279,0.5867,1.414,-0.5221
1.0285,-0.9841,1.0439,-0.5019,2.0337,-0.2814,2.4457,0.2992,1.3445,0.0094,0.0153,-0.9686,1.1279,0.5867,1.414,-0.5221
1.0285,-0.9841,1.0439,-0.5019,2.0337,-0.2814,2.4457,0.2992,1.3445,0.0094,0.0153,-0.9686,1.1279,0.5867,1.414,-0.5221
1.0412,-0.9857,1.0599,-0.5025,2.0442,-0.2785,2.4352,0.3142,1.3923,-0.0075,0.0318,-0.9672,1.1411,0.5914,1.4339,-0.5207
1.0412,-0.9857,1.0599,-0.5025,2.0442,-0.2785,2.4352,0.3142,1.3923,-0.0075,0.0318,-0.9672,1.1411,0.5914,1.4339,-0.5207
1.0567,-0.9912,1.0759,-0.5031,2.0608,-0.2843,2.4439,0.3169,1.5362,-0.0583,0.0448,-0.9669,1.1543,0.5961,1.4538,-0.5193
1.0567,-0.9912,1.0759,-0.5031,2.0608,-0.2843,2.4439,0.3169,1.5362,-0.0583,0.0448,-0.9669,1.1543,0.5961,1.4538,-0.5193
1.0671,-0.9978,1.0713,-0.4963,2.0608,-0.2843,2.4439,0.3169,1.5236,0.0123,0.0506,-0.9689,1.1609,0.5985,1.472,-0.5229
1.0671,-0.9978,1.0713,-0.4963,2.0608,-0.2843,2.4439,0.3169,1.5236,0.0123,0.0506,-0.9689,1.1609,0.5985,1.472,-0.5229
1.0544,-0.9962,1.0656,-0.4994,2.0503,-0.2873,2.4491,0.3093,1.5414,0.0392,0.0434,-0.9713,1.1543,0.5961,1.472,-0.5229
1.0544,-0.9962,1.0656,-0.4994,2.0503,-0.2873,2.4491,0.3093,1.5414,0.0392,0.0434,-0.9713,1.1543,0.5961,1.472,-0.5229
1.0544,-0.9962,1.0656,-0.4994,2.0503,-0.2873,2.4491,0.3093,1.5414,0.0392,0.0434,-0.9713,1.1543,0.5961,1.472,-0.5229
1.032,-1.006,1.0383,-0.505,2.0219,-0.3005,2.4232,0.3014,1.4449,0.0733,0.0228,-0.9858,1.1279,0.5867,1.4451,-0.5219
1.032,-1.006,1.0383,-0.505,2.0219,-0.3005,2.4232,0.3014,1.4449,0.0733,0.0228,-0.9858,1.1279,0.5867,1.4451,-0.5219
1.032,-1.006,1.0383,-0.505,2.0219,-0.3005,2.4232,0.3014,1.4449,0.0733,0.0228,-0.9858,1.1279,0.5867,1.4451,-0.5219
1.0197,-1.0134,1.027,-0.5112,2.001,-0.3064,2.3921,0.301,1.4578,0.0024,-0.0066,-0.9875,1.1081,0.5796,1.4278,-0.527
1.0201,-1.0224,1.0213,-0.5143,1.9853,-0.3108,2.3973,0.2935,1.4273,0.0463,-0.0253,-0.9857,1.1081,0.5796,1.4123,-0.5272
1.0024,-1.022,0.9951,-0.5101,1.9615,-0.3123,2.394,0.2833,1.4098,0.0193,-0.0418,-0.9872,1.1016,0.5772,1.3993,-0.531
1.0024,-1.022,0.9951,-0.5101,1.9615,-0.3123,2.394,0.2833,1.4098,0.0193,-0.0418,-0.9872,1.1016,0.5772,1.3993,-0.531
0.9847,-1.0216,0.9894,-0.5132,1.9459,-0.3167,2.3906,0.2732,1.4098,0.0193,-0.064,-0.9866,1.095,0.5748,1.3838,-0.5312
0.9847,-1.0216,0.9894,-0.5132,1.9459,-0.3167,2.3906,0.2732,1.4098,0.0193,-0.064,-0.9866,1.095,0.5748,1.3838,-0.5312
0.9847,-1.0216,0.9894,-0.5132,1.9459,-0.3167,2.3906,0.2732,1.4098,0.0193,-0.064,-0.9866,1.095,0.5748,1.3838,-0.5312
0.9671,-1.0213,0.9838,-0.5163,1.9303,-0.3211,2.3768,0.2781,1.3794,0.0632,-0.0711,-0.9889,1.1059,0.571,1.3795,-0.5325
0.9671,-1.0213,0.9838,-0.5163,1.9303,-0.3211,2.3768,0.2781,1.3794,0.0632,-0.0711,-0.9889,1.1059,0.571,1.3795,-0.5325
0.9671,-1.0213,0.9838,-0.5163,1.9303,-0.3211,2.3768,0.2781,1.3794,0.0632,-0.0711,-0.9889,1.1059,0.571,1.3795,-0.5325
0.9472,-1.026,0.9828,-0.5261,1.926,-0.3328,2.3458,0.2777,1.3489,0.1072,-0.0747,-0.9901,1.1016,0.5772,1.3752,-0.5338
0.9246,-1.0268,0.9772,-0.5291,1.9074,-0.3328,2.3235,0.2799,1.4273,0.0463,-0.0818,-0.9924,1.0907,0.581,1.3666,-0.5364
0.9246,-1.0268,0.9772,-0.5291,1.9074,-0.3328,2.3235,0.2799,1.4273,0.0463,-0.0818,-0.9924,1.0907,0.581,1.3666,-0.5364
0.9151,-1.0381,0.9669,-0.5255,1.897,-0.3357,2.3149,0.2773,1.4578,0.0024,-0.0889,-0.9947,1.0689,0.5887,1.3649,-0.5414
0.9151,-1.0381,0.9669,-0.5255,1.897,-0.3357,2.3149,0.2773,1.4578,0.0024,-0.0889,-0.9947,1.0689,0.5887,1.3649,-0.5414
0.8876,-1.04,0.951,-0.525,1.8815,-0.3401,2.2926,0.2795,1.4273,0.0463,-0.1075,-0.993,1.0624,0.5864,1.3631,-0.5464
0.8876,-1.04,0.951,-0.525,1.8815,-0.3401,2.2926,0.2795,1.4273,0.0463,-0.1075,-0.993,1.0624,0.5864,1.3631,-0.5464
0.8876,-1.04,0.951,-0.525,1.8815,-0.3401,2.2926,0.2795,1.4273,0.0463,-0.1075,-0.993,1.0624,0.5864,1.3631,-0.5464
0.8705,-1.0486,0.9249,-0.5208,1.8824,-0.3503,2.2893,0.2694,1.3794,0.0632,-0.1181,-0.9964,1.0601,0.5778,1.3477,-0.5465
0.8584,-1.056,0.9193,-0.5239,1.872,-0.3532,2.2808,0.2667,1.2968,0.0262,-0.1358,-1.0023,1.0253,0.5807,1.3236,-0.5493
0.8584,-1.056,0.9193,-0.5239,1.872,-0.3532,2.2808,0.2667,1.2968,0.0262,-0.1358,-1.0023,1.0253,0.5807,1.3236,-0.5493
0.8364,-1.0657,0.9025,-0.5331,1.8402,-0.3518,2.2637,0.2615,1.2622,-0.0273,-0.1499,-1.0069,1.0015,0.5798,1.3022,-0.5557
0.8364,-1.0657,0.9025,-0.5331,1.8402,-0.3518,2.2637,0.2615,1.2622,-0.0273,-0.1499,-1.0069,1.0015,0.5798,1.3022,-0.5557
0.8269,-1.0769,0.8811,-0.5357,1.8165,-0.3533,2.2467,0.2562,1.2148,-0.0105,-0.172,-1.0063,0.9992,0.5712,1.2825,-0.5572
0.8269,-1.0769,0.8811,-0.5357,1.8165,-0.3533,2.2467,0.2562,1.2148,-0.0105,-0.172,-1.0063,0.9992,0.5712,1.2825,-0.5572
0.8019,-1.0739,0.8652,-0.5351,1.7929,-0.3548,2.2519,0.2487,1.2449,-0.0539,-0.194,-1.0057,0.9862,0.5665,1.2655,-0.5623
0.8019,-1.0739,0.8652,-0.5351,1.7929,-0.3548,2.2519,0.2487,1.2449,-0.0539,-0.194,-1.0057,0.9862,0.5665,1.2655,-0.5623
0.8019,-1.0739,0.8652,-0.5351,1.7929,-0.3548,2.2519,0.2487,1.2449,-0.0539,-0.194,-1.0057,0.9862,0.5665,1.2655,-0.5623
0.7769,-1.0708,0.8439,-0.5377,1.7561,-0.355,2.2485,0.2387,1.2449,-0.0539,-0.2103,-1.0072,0.9797,0.5642,1.2501,-0.5625
0.747,-1.069,0.8226,-0.5402,1.7305,-0.3623,2.2264,0.2409,1.1976,-0.0372,-0.2414,-1.0058,0.9882,0.5518,1.2305,-0.5639
0.747,-1.069,0.8226,-0.5402,1.7305,-0.3623,2.2264,0.2409,1.1976,-0.0372,-0.2414,-1.0058,0.9882,0.5518,1.2305,-0.5639
0.7172,-1.0672,0.8115,-0.5464,1.705,-0.3696,2.1906,0.2479,1.1675,0.0062,-0.2612,-1.0084,0.9925,0.5456,1.2084,-0.5617
0.7172,-1.0672,0.8115,-0.5464,1.705,-0.3696,2.1906,0.2479,1.1675,0.0062,-0.2612,-1.0084,0.9925,0.5456,1.2084,-0.5617
0.7172,-1.0672,0.8115,-0.5464,1.705,-0.3696,2.1906,0.2479,1.1675,0.0062,-0.2612,-1.0084,0.9925,0.5456,1.2084,-0.5617
0.6928,-1.073,0.7948,-0.5556,1.6714,-0.3741,2.1413,0.2597,1.1504,-0.0205,-0.2843,-1.0122,0.9903,0.5371,1.1888,-0.5632
0.6928,-1.073,0.7948,-0.5556,1.6714,-0.3741,2.1413,0.2597,1.1504,-0.0205,-0.2843,-1.0122,0.9903,0.5371,1.1888,-0.5632
0.6928,-1.073,0.7948,-0.5556,1.6714,-0.3741,2.1413,0.2597,1.1504,-0.0205,-0.2843,-1.0122,0.9903,0.5371,1.1888,-0.5632
0.6393,-1.0859,0.7514,-0.5704,1.6126,-0.3858,2.0585,0.2609,1.2575,-0.1236,-0.3249,-1.0218,0.9341,0.5476,1.1388,-0.565
0.6393,-1.0859,0.7514,-0.5704,1.6126,-0.3858,2.0585,0.2609,1.2575,-0.1236,-0.3249,-1.0218,0.9341,0.5476,1.1388,-0.565
0.6393,-1.0859,0.7514,-0.5704,1.6126,-0.3858,2.0585,0.2609,1.2575,-0.1236,-0.3249,-1.0218,0.9341,0.5476,1.1388,-0.565
0.6269,-1.0845,0.7367,-0.5602,1.5994,-0.3844,2.0502,0.2582,1.2749,-0.0972,-0.3397,-1.019,0.9234,0.5514,1.1371,-0.57
0.6216,-1.0768,0.7321,-0.5535,1.6066,-0.3772,2.0637,0.2535,1.2449,-0.0539,-0.3328,-1.0166,0.9234,0.5514,1.1439,-0.5724
0.6216,-1.0768,0.7321,-0.5535,1.6066,-0.3772,2.0637,0.2535,1.2449,-0.0539,-0.3328,-1.0166,0.9234,0.5514,1.1439,-0.5724
0.6507,-1.0698,0.7588,-0.5479,1.6603,-0.3669,2.1024,0.2566,1.1846,0.0329,-0.2957,-1.0082,0.9471,0.5524,1.1744,-0.572
0.6507,-1.0698,0.7588,-0.5479,1.6603,-0.3669,2.1024,0.2566,1.1846,0.0329,-0.2957,-1.0082,0.9471,0.5524,1.1744,-0.572
0.7044,-1.0568,0.8068,-0.5397,1.7378,-0.355,2.1718,0.2601,1.2148,-0.0105,-0.2353,-0.9959,0.9882,0.5518,1.21,-0.5567
0.7044,-1.0568,0.8068,-0.5397,1.7378,-0.355,2.1718,0.2601,1.2148,-0.0105,-0.2353,-0.9959,0.9882,0.5518,1.21,-0.5567
0.7734,-1.0492,0.8652,-0.5351,1.8178,-0.3374,2.2364,0.2711,1.1675,0.0062,-0.1539,-0.9886,1.0251,0.5574,1.2595,-0.5462
0.7734,-1.0492,0.8652,-0.5351,1.8178,-0.3374,2.2364,0.2711,1.1675,0.0062,-0.1539,-0.9886,1.0251,0.5574,1.2595,-0.5462
0.7734,-1.0492,0.8652,-0.5351,1.8178,-0.3374,2.2364,0.2711,1.1675,0.0062,-0.1539,-0.9886,1.0251,0.5574,1.2595,-0.5462
0.8503,-1.0444,0.9342,-0.5342,1.8983,-0.3197,2.296,0.2896,1.2148,-0.0105,-0.0742,-0.9781,1.0687,0.5654,1.3202,-0.5368
0.9327,-1.0384,0.9894,-0.5132,1.9771,-0.3079,2.3697,0.3033,1.2622,-0.0273,-0.0151,-0.9627,1.1016,0.5772,1.37,-0.5263
0.9327,-1.0384,0.9894,-0.5132,1.9771,-0.3079,2.3697,0.3033,1.2622,-0.0273,-0.0151,-0.9627,1.1016,0.5772,1.37,-0.5263
0.9878,-1.0345,1.0279,-0.5014,2.0324,-0.2976,2.4405,0.3067,1.3096,-0.0441,0.0336,-0.9508,1.1322,0.5804,1.414,-0.5221
0.9878,-1.0345,1.0279,-0.5014,2.0324,-0.2976,2.4405,0.3067,1.3096,-0.0441,0.0336,-0.9508,1.1322,0.5804,1.414,-0.5221
1.0178,-1.0274,1.0553,-0.4958,2.0669,-0.2931,2.4942,0.3048,1.3747,-0.0342,0.0659,-0.9403,1.1629,0.5837,1.4581,-0.518
1.0178,-1.0274,1.0553,-0.4958,2.0669,-0.2931,2.4942,0.3048,1.3747,-0.0342,0.0659,-0.9403,1.1629,0.5837,1.4581,-0.518
1.0378,-1.0228,1.0769,-0.4932,2.0909,-0.2917,2.5341,0.3078,1.4225,-0.0511,0.0861,-0.9377,1.198,0.5807,1.4824,-0.5153
1.0378,-1.0228,1.0769,-0.4932,2.0909,-0.2917,2.5341,0.3078,1.4225,-0.0511,0.0861,-0.9377,1.198,0.5807,1.4824,-0.5153
1.0401,-1.0177,1.093,-0.4938,2.1076,-0.2975,2.5376,0.318,1.3747,-0.0342,0.0955,-0.9386,1.2133,0.5706,1.4911,-0.5127
1.0401,-1.0177,1.093,-0.4938,2.1076,-0.2975,2.5376,0.318,1.3747,-0.0342,0.0955,-0.9386,1.2133,0.5706,1.4911,-0.5127
1.0401,-1.0177,1.093,-0.4938,2.1076,-0.2975,2.5376,0.318,1.3747,-0.0342,0.0955,-0.9386,1.2133,0.5706,1.4911,-0.5127
1.0401,-1.0177,1.093,-0.4938,2.1076,-0.2975,2.5376,0.318,1.3747,-0.0342,0.0955,-0.9386,1.2133,0.5706,1.4911,-0.5127
1.0101,-1.0247,1.1013,-0.5171,2.0926,-0.3122,2.501,0.3252,1.3747,-0.0342,0.0942,-0.943,1.2199,0.5729,1.5049,-0.5176
1.0101,-1.0247,1.1013,-0.5171,2.0926,-0.3122,2.501,0.3252,1.3747,-0.0342,0.0942,-0.943,1.2199,0.5729,1.5049,-0.5176
1.0101,-1.0247,1.1013,-0.5171,2.0926,-0.3122,2.501,0.3252,1.3747,-0.0342,0.0942,-0.943,1.2199,0.5729,1.5049,-0.5176
0.9901,-1.0294,1.1003,-0.527,2.0716,-0.3181,2.4837,0.3199,1.4225,-0.0511,0.0892,-0.9485,1.2046,0.583,1.4963,-0.5202
0.9901,-1.0294,1.1003,-0.527,2.0716,-0.3181,2.4837,0.3199,1.4225,-0.0511,0.0892,-0.9485,1.2046,0.583,1.4963,-0.5202
0.9901,-1.0294,1.1003,-0.527,2.0716,-0.3181,2.4837,0.3199,1.4225,-0.0511,0.0892,-0.9485,1.2046,0.583,1.4963,-0.5202
0.9606,-1.0454,1.0636,-0.5191,2.0267,-0.3254,2.463,0.3044,1.4401,-0.0244,0.0721,-0.962,1.1828,0.5908,1.4884,-0.5315
0.9606,-1.0454,1.0636,-0.5191,2.0267,-0.3254,2.463,0.3044,1.4401,-0.0244,0.0721,-0.962,1.1828,0.5908,1.4884,-0.5315
0.956,-1.0554,1.0429,-0.5118,2.0193,-0.3327,2.463,0.3044,1.3923,-0.0075,0.0497,-0.9613,1.1652,0.5923,1.4893,-0.5403
0.956,-1.0554,1.0429,-0.5118,2.0193,-0.3327,2.463,0.3044,1.3923,-0.0075,0.0497,-0.9613,1.1652,0.5923,1.4893,-0.5403
0.9362,-1.0601,1.0316,-0.5179,2.0066,-0.3415,2.4543,0.3018,1.3141,0.0531,0.039,-0.9648,1.1477,0.5938,1.4806,-0.5429
0.9362,-1.0601,1.0316,-0.5179,2.0066,-0.3415,2.4543,0.3018,1.3141,0.0531,0.039,-0.9648,1.1477,0.5938,1.4806,-0.5429
0.9362,-1.0601,1.0316,-0.5179,2.0066,-0.3415,2.4543,0.3018,1.3141,0.0531,0.039,-0.9648,1.1477,0.5938,1.4806,-0.5429
0.9262,-1.0624,1.0316,-0.5179,2.0044,-0.3473,2.4543,0.3018,1.2492,0.0431,0.0246,-0.9695,1.1388,0.5828,1.465,-0.543
0.9262,-1.0624,1.0316,-0.5179,2.0044,-0.3473,2.4543,0.3018,1.2492,0.0431,0.0246,-0.9695,1.1388,0.5828,1.465,-0.543
0.919,-1.0686,1.0203,-0.5241,1.994,-0.3502,2.4318,0.3041,1.2795,-0.0006,0.0175,-0.9718,1.1431,0.5766,1.4537,-0.5418
0.919,-1.0686,1.0203,-0.5241,1.994,-0.3502,2.4318,0.3041,1.2795,-0.0006,0.0175,-0.9718,1.1431,0.5766,1.4537,-0.5418
0.9144,-1.0787,1.009,-0.5303,1.9753,-0.3502,2.4146,0.2988,1.327,-0.0174,0.0117,-0.9698,1.1388,0.5828,1.4442,-0.5356
0.8969,-1.0783,1.0034,-0.5333,1.9679,-0.3575,2.4284,0.2939,1.2795,-0.0006,0.0001,-0.9657,1.1431,0.5766,1.4425,-0.5407
0.8969,-1.0783,1.0034,-0.5333,1.9679,-0.3575,2.4284,0.2939,1.2795,-0.0006,0.0001,-0.9657,1.1431,0.5766,1.4425,-0.5407
0.8794,-1.078,0.9875,-0.5328,1.9493,-0.3575,2.4336,0.2864,1.2968,0.0262,-0.0115,-0.9616,1.154,0.5727,1.4356,-0.5382
0.8794,-1.078,0.9875,-0.5328,1.9493,-0.3575,2.4336,0.2864,1.2968,0.0262,-0.0115,-0.9616,1.154,0.5727,1.4356,-0.5382
0.8668,-1.0764,0.9865,-0.5426,1.9337,-0.3619,2.4198,0.2912,1.2968,0.0262,-0.0164,-0.9671,1.1583,0.5665,1.4313,-0.5395
0.8668,-1.0764,0.9865,-0.5426,1.9337,-0.3619,2.4198,0.2912,1.2968,0.0262,-0.0164,-0.9671,1.1583,0.5665,1.4313,-0.5395
0.8668,-1.0764,0.9865,-0.5426,1.9337,-0.3619,2.4198,0.2912,1.2968,0.0262,-0.0164,-0.9671,1.1583,0.5665,1.4313,-0.5395
0.847,-1.0811,0.9855,-0.5523,1.913,-0.3677,2.3887,0.2909,1.2968,0.0262,-0.0329,-0.9685,1.1474,0.5704,1.42,-0.5384
0.847,-1.0811,0.9855,-0.5523,1.913,-0.3677,2.3887,0.2909,1.2968,0.0262,-0.0329,-0.9685,1.1474,0.5704,1.42,-0.5384
0.8296,-1.0807,0.9845,-0.5621,1.8893,-0.3692,2.3749,0.2957,1.3141,0.0531,-0.0436,-0.972,1.1365,0.5742,1.4088,-0.5372
0.8296,-1.0807,0.9845,-0.5621,1.8893,-0.3692,2.3749,0.2957,1.3141,0.0531,-0.0436,-0.972,1.1365,0.5742,1.4088,-0.5372
0.8148,-1.0842,0.9584,-0.5579,1.8656,-0.3707,2.3526,0.298,1.3923,-0.0075,-0.0694,-0.9726,1.1256,0.5781,1.3933,-0.5374
0.8148,-1.0842,0.9584,-0.5579,1.8656,-0.3707,2.3526,0.298,1.3923,-0.0075,-0.0694,-0.9726,1.1256,0.5781,1.3933,-0.5374
0.8148,-1.0842,0.9584,-0.5579,1.8656,-0.3707,2.3526,0.298,1.3923,-0.0075,-0.0694,-0.9726,1.1256,0.5781,1.3933,-0.5374
0.7974,-1.0839,0.9332,-0.544,1.8337,-0.3693,2.3302,0.3002,1.4225,-0.0511,-0.0907,-0.9796,1.1059,0.571,1.3804,-0.5412
0.7876,-1.0862,0.9127,-0.5367,1.8153,-0.3693,2.3354,0.2927,1.3923,-0.0075,-0.1106,-0.9822,1.095,0.5748,1.3786,-0.5462
0.7876,-1.0862,0.9127,-0.5367,1.8153,-0.3693,2.3354,0.2927,1.3923,-0.0075,-0.1106,-0.9822,1.095,0.5748,1.3786,-0.5462
0.7653,-1.087,0.8969,-0.5362,1.8029,-0.378,2.3321,0.2825,1.3141,0.0531,-0.134,-0.986,1.0861,0.5639,1.3657,-0.5501
0.7457,-1.0917,0.8699,-0.5418,1.7935,-0.3911,2.3012,0.2821,1.2189,0.0868,-0.161,-0.9909,1.0622,0.563,1.3391,-0.5491
0.7457,-1.0917,0.8699,-0.5418,1.7935,-0.3911,2.3012,0.2821,1.2189,0.0868,-0.161,-0.9909,1.0622,0.563,1.3391,-0.5491
0.7234,-1.0925,0.8485,-0.5443,1.7729,-0.3969,2.2652,0.2892,1.1203,0.0228,-0.1856,-0.9991,1.036,0.5536,1.3108,-0.5531
0.7234,-1.0925,0.8485,-0.5443,1.7729,-0.3969,2.2652,0.2892,1.1203,0.0228,-0.1856,-0.9991,1.036,0.5536,1.3108,-0.5531
0.7039,-1.0972,0.842,-0.5572,1.7413,-0.3955,2.243,0.2914,1.0732,0.0395,-0.2067,-1.006,1.0078,0.5589,1.2843,-0.5522
0.7039,-1.0972,0.842,-0.5572,1.7413,-0.3955,2.243,0.2914,1.0732,0.0395,-0.2067,-1.006,1.0078,0.5589,1.2843,-0.5522
0.7039,-1.0972,0.842,-0.5572,1.7413,-0.3955,2.243,0.2914,1.0732,0.0395,-0.2067,-1.006,1.0078,0.5589,1.2843,-0.5522
0.6968,-1.1034,0.8263,-0.5566,1.7149,-0.3927,2.2345,0.2887,1.1333,-0.0472,-0.2322,-1.0066,0.9947,0.5542,1.2629,-0.5586
0.6968,-1.1034,0.8263,-0.5566,1.7149,-0.3927,2.2345,0.2887,1.1333,-0.0472,-0.2322,-1.0066,0.9947,0.5542,1.2629,-0.5586
0.6968,-1.1034,0.8263,-0.5566,1.7149,-0.3927,2.2345,0.2887,1.1333,-0.0472,-0.2322,-1.0066,0.9947,0.5542,1.2629,-0.5586
0.6773,-1.108,0.8152,-0.5628,1.6864,-0.3956,2.2312,0.2786,1.1333,-0.0472,-0.252,-1.0093,0.9709,0.5533,1.2458,-0.5638
0.6773,-1.108,0.8152,-0.5628,1.6864,-0.3956,2.2312,0.2786,1.1333,-0.0472,-0.252,-1.0093,0.9709,0.5533,1.2458,-0.5638
0.66,-1.1077,0.7939,-0.5653,1.655,-0.3943,2.2278,0.2685,1.1804,-0.0638,-0.2682,-1.0107,0.9752,0.5471,1.2305,-0.5639
0.6401,-1.1036,0.793,-0.575,1.6499,-0.3958,2.2142,0.2733,1.1333,-0.0472,-0.2795,-1.0067,0.9795,0.5409,1.2262,-0.5652
0.6401,-1.1036,0.793,-0.575,1.6499,-0.3958,2.2142,0.2733,1.1333,-0.0472,-0.2795,-1.0067,0.9795,0.5409,1.2262,-0.5652
0.6472,-1.0974,0.8133,-0.5822,1.6702,-0.3899,2.2175,0.2835,1.1504,-0.0205,-0.2471,-1.0038,1.0098,0.5442,1.2458,-0.5638
0.6472,-1.0974,0.8133,-0.5822,1.6702,-0.3899,2.2175,0.2835,1.1504,-0.0205,-0.2471,-1.0038,1.0098,0.5442,1.2458,-0.5638
0.6888,-1.0919,0.8457,-0.5736,1.7212,-0.3753,2.2652,0.2892,1.1675,0.0062,-0.1914,-0.9971,1.0468,0.5498,1.2851,-0.5609
0.6888,-1.0919,0.8457,-0.5736,1.7212,-0.3753,2.2652,0.2892,1.1675,0.0062,-0.1914,-0.9971,1.0468,0.5498,1.2851,-0.5609
0.7501,-1.0817,0.9042,-0.5691,1.799,-0.3635,2.3216,0.2976,1.2449,-0.0539,-0.127,-0.9837,1.0687,0.5654,1.3331,-0.5554
0.7501,-1.0817,0.9042,-0.5691,1.799,-0.3635,2.3216,0.2976,1.2449,-0.0539,-0.127,-0.9837,1.0687,0.5654,1.3331,-0.5554
0.8242,-1.073,0.9547,-0.5414,1.8793,-0.346,2.3817,0.3161,1.2922,-0.0707,-0.048,-0.9656,1.1081,0.5796,1.401,-0.5485
0.8242,-1.073,0.9547,-0.5414,1.8793,-0.346,2.3817,0.3161,1.2922,-0.0707,-0.048,-0.9656,1.1081,0.5796,1.401,-0.5485
0.8835,-1.059,1.01,-0.5205,1.955,-0.3298,2.442,0.3346,1.3572,-0.0609,0.0171,-0.9522,1.1454,0.5852,1.4598,-0.5355
0.8835,-1.059,1.01,-0.5205,1.955,-0.3298,2.442,0.3346,1.3572,-0.0609,0.0171,-0.9522,1.1454,0.5852,1.4598,-0.5355
0.8835,-1.059,1.01,-0.5205,1.955,-0.3298,2.442,0.3346,1.3572,-0.0609,0.0171,-0.9522,1.1454,0.5852,1.4598,-0.5355
0.9434,-1.0539,1.0533,-0.5154,2.0101,-0.3196,2.5132,0.3381,1.3141,0.0531,0.0695,-0.9391,1.1828,0.5908,1.5197,-0.5313
0.9909,-1.0473,1.0863,-0.5067,2.0716,-0.3181,2.5759,0.3388,1.2837,0.097,0.1063,-0.9351,1.2003,0.5893,1.5528,-0.526
0.9909,-1.0473,1.0863,-0.5067,2.0716,-0.3181,2.5759,0.3388,1.2837,0.097,0.1063,-0.9351,1.2003,0.5893,1.5528,-0.526
1.0159,-1.0415,1.1241,-0.5048,2.1145,-0.3166,2.6302,0.3368,1.2665,0.07,0.1324,-0.9345,1.2113,0.5854,1.5633,-0.5184
1.0236,-1.0442,1.1345,-0.5085,2.1281,-0.3181,2.6389,0.3395,1.2795,-0.0006,0.1455,-0.9343,1.2156,0.5792,1.5694,-0.512
1.0236,-1.0442,1.1345,-0.5085,2.1281,-0.3181,2.6389,0.3395,1.2795,-0.0006,0.1455,-0.9343,1.2156,0.5792,1.5694,-0.512
1.0236,-1.0442,1.1345,-0.5085,2.1281,-0.3181,2.6389,0.3395,1.2795,-0.0006,0.1455,-0.9343,1.2156,0.5792,1.5694,-0.512
1.0363,-1.0457,1.1449,-0.5121,2.125,-0.3137,2.6336,0.3471,1.2968,0.0262,0.1586,-0.934,1.2222,0.5815,1.5712,-0.507
1.0363,-1.0457,1.1449,-0.5121,2.125,-0.3137,2.6336,0.3471,1.2968,0.0262,0.1586,-0.934,1.2222,0.5815,1.5712,-0.507
1.039,-1.0496,1.1449,-0.5121,2.1198,-0.3152,2.6477,0.3421,1.327,-0.0174,0.1527,-0.9319,1.2222,0.5815,1.5738,-0.5107
1.039,-1.0496,1.1449,-0.5121,2.1198,-0.3152,2.6477,0.3421,1.327,-0.0174,0.1527,-0.9319,1.2222,0.5815,1.5738,-0.5107
1.029,-1.0519,1.1449,-0.5121,2.104,-0.3196,2.653,0.3345,1.327,-0.0174,0.1419,-0.9354,1.2375,0.5714,1.5764,-0.5145
1.0063,-1.0527,1.1278,-0.5214,2.083,-0.3254,2.6302,0.3368,1.3096,-0.0441,0.1275,-0.9401,1.2266,0.5753,1.5676,-0.5171
1.0063,-1.0527,1.1278,-0.5214,2.083,-0.3254,2.6302,0.3368,1.3096,-0.0441,0.1275,-0.9401,1.2266,0.5753,1.5676,-0.5171
0.9764,-1.0597,1.1154,-0.5374,2.0598,-0.3371,2.5986,0.3365,1.3096,-0.0441,0.1153,-0.948,1.2156,0.5792,1.5615,-0.5234
0.9764,-1.0597,1.1154,-0.5374,2.0598,-0.3371,2.5986,0.3365,1.3096,-0.0441,0.1153,-0.948,1.2156,0.5792,1.5615,-0.5234
0.9764,-1.0597,1.1154,-0.5374,2.0598,-0.3371,2.5986,0.3365,1.3096,-0.0441,0.1153,-0.948,1.2156,0.5792,1.5615,-0.5234
0.9538,-1.0605,1.0993,-0.5368,2.0388,-0.3429,2.5812,0.3312,1.3747,-0.0342,0.1009,-0.9527,1.2113,0.5854,1.5571,-0.5247
0.9538,-1.0605,1.0993,-0.5368,2.0388,-0.3429,2.5812,0.3312,1.3747,-0.0342,0.1009,-0.9527,1.2113,0.5854,1.5571,-0.5247
0.9415,-1.0678,1.073,-0.5325,2.0262,-0.3517,2.5724,0.3286,1.4225,-0.0511,0.0923,-0.9594,1.2046,0.583,1.5484,-0.5273
0.9415,-1.0678,1.073,-0.5325,2.0262,-0.3517,2.5724,0.3286,1.4225,-0.0511,0.0923,-0.9594,1.2046,0.583,1.5484,-0.5273
0.9316,-1.0702,1.0683,-0.5258,2.0157,-0.3546,2.5637,0.3259,1.3923,-0.0075,0.0757,-0.9608,1.1914,0.5783,1.5536,-0.5348
0.9316,-1.0702,1.0683,-0.5258,2.0157,-0.3546,2.5637,0.3259,1.3923,-0.0075,0.0757,-0.9608,1.1914,0.5783,1.5536,-0.5348
0.9243,-1.0764,1.0626,-0.5289,2.0083,-0.3619,2.555,0.3233,1.3141,0.0531,0.0685,-0.9631,1.1848,0.5759,1.5562,-0.5385
0.9167,-1.0737,1.0523,-0.5252,2.0113,-0.3662,2.5498,0.3309,1.236,0.1139,0.0613,-0.9655,1.1825,0.5674,1.5423,-0.5336
0.9167,-1.0737,1.0523,-0.5252,2.0113,-0.3662,2.5498,0.3309,1.236,0.1139,0.0613,-0.9655,1.1825,0.5674,1.5423,-0.5336
0.9167,-1.0737,1.0523,-0.5252,2.0113,-0.3662,2.5498,0.3309,1.236,0.1139,0.0613,-0.9655,1.1825,0.5674,1.5423,-0.5336
0.9144,-1.0787,1.0513,-0.535,2.0091,-0.3721,2.555,0.3233,1.2492,0.0431,0.0542,-0.9678,1.1759,0.565,1.5336,-0.5362
0.9045,-1.081,1.0503,-0.5448,1.9874,-0.3677,2.541,0.3282,1.2492,0.0431,0.0528,-0.9722,1.1692,0.5627,1.5223,-0.535
0.9045,-1.081,1.0503,-0.5448,1.9874,-0.3677,2.541,0.3282,1.2492,0.0431,0.0528,-0.9722,1.1692,0.5627,1.5223,-0.535
0.9045,-1.081,1.0503,-0.5448,1.9874,-0.3677,2.541,0.3282,1.2492,0.0431,0.0528,-0.9722,1.1692,0.5627,1.5223,-0.535
0.9049,-1.0899,1.039,-0.551,1.9658,-0.3633,2.5323,0.3256,1.2492,0.0431,0.0421,-0.9756,1.1626,0.5603,1.511,-0.5338
0.9049,-1.0899,1.039,-0.551,1.9658,-0.3633,2.5323,0.3256,1.2492,0.0431,0.0421,-0.9756,1.1626,0.5603,1.511,-0.5338
0.9026,-1.0949,1.0333,-0.554,1.9419,-0.3648,2.5237,0.3229,1.2968,0.0262,0.0305,-0.9715,1.1583,0.5665,1.5066,-0.5351
0.8927,-1.0972,1.0127,-0.5468,1.91,-0.3634,2.5202,0.3127,1.2968,0.0262,0.0059,-0.9677,1.1517,0.5642,1.4936,-0.539
0.8927,-1.0972,1.0127,-0.5468,1.91,-0.3634,2.5202,0.3127,1.2968,0.0262,0.0059,-0.9677,1.1517,0.5642,1.4936,-0.539
0.8775,-1.0918,1.0127,-0.5468,1.8944,-0.3677,2.5202,0.3127,1.3141,0.0531,-0.0106,-0.9692,1.1626,0.5603,1.4849,-0.5416
0.8775,-1.0918,1.0127,-0.5468,1.8944,-0.3677,2.5202,0.3127,1.3141,0.0531,-0.0106,-0.9692,1.1626,0.5603,1.4849,-0.5416
0.8775,-1.0918,1.0127,-0.5468,1.8944,-0.3677,2.5202,0.3127,1.3141,0.0531,-0.0106,-0.9692,1.1626,0.5603,1.4849,-0.5416
0.8524,-1.0888,1.0014,-0.5529,1.8737,-0.3736,2.5115,0.3101,1.2968,0.0262,-0.0342,-0.9729,1.1669,0.5541,1.465,-0.543
0.8524,-1.0888,1.0014,-0.5529,1.8737,-0.3736,2.5115,0.3101,1.2968,0.0262,-0.0342,-0.9729,1.1669,0.5541,1.465,-0.543
0.8524,-1.0888,1.0014,-0.5529,1.8737,-0.3736,2.5115,0.3101,1.2968,0.0262,-0.0342,-0.9729,1.1669,0.5541,1.465,-0.543
0.8175,-1.0881,0.9845,-0.5621,1.8479,-0.3808,2.4611,0.3222,1.2968,0.0262,-0.052,-0.9787,1.1537,0.5494,1.4477,-0.5481
0.8175,-1.0881,0.9845,-0.5621,1.8479,-0.3808,2.4611,0.3222,1.2968,0.0262,-0.052,-0.9787,1.1537,0.5494,1.4477,-0.5481
0.7532,-1.0944,0.9564,-0.5774,1.7862,-0.3983,2.3817,0.3161,1.2795,-0.0006,-0.0933,-0.9883,1.1102,0.5648,1.4122,-0.5497
0.7532,-1.0944,0.9564,-0.5774,1.7862,-0.3983,2.3817,0.3161,1.2795,-0.0006,-0.0933,-0.9883,1.1102,0.5648,1.4122,-0.5497
0.7532,-1.0944,0.9564,-0.5774,1.7862,-0.3983,2.3817,0.3161,1.2795,-0.0006,-0.0933,-0.9883,1.1102,0.5648,1.4122,-0.5497
0.7336,-1.099,0.9303,-0.5732,1.7576,-0.4012,2.3645,0.3108,1.2795,-0.0006,-0.1132,-0.9909,1.0818,0.5701,1.395,-0.5548
0.7336,-1.099,0.9303,-0.5732,1.7576,-0.4012,2.3645,0.3108,1.2795,-0.0006,-0.1132,-0.9909,1.0818,0.5701,1.395,-0.5548
0.7336,-1.099,0.9303,-0.5732,1.7576,-0.4012,2.3645,0.3108,1.2795,-0.0006,-0.1132,-0.9909,1.0818,0.5701,1.395,-0.5548
0.719,-1.1025,0.9052,-0.5593,1.7392,-0.4013,2.3473,0.3055,1.2922,-0.0707,-0.1424,-0.9927,1.047,0.5731,1.3778,-0.56
0.6946,-1.1084,0.8791,-0.5552,1.7137,-0.4085,2.3302,0.3002,1.232,0.0162,-0.1645,-0.9921,1.0405,0.5707,1.3717,-0.5663
0.6773,-1.108,0.8634,-0.5546,1.6983,-0.4129,2.3269,0.29,1.1675,0.0062,-0.1971,-0.995,1.0209,0.5636,1.3545,-0.5714
0.6773,-1.108,0.8634,-0.5546,1.6983,-0.4129,2.3269,0.29,1.1675,0.0062,-0.1971,-0.995,1.0209,0.5636,1.3545,-0.5714
0.6773,-1.108,0.8634,-0.5546,1.6983,-0.4129,2.3269,0.29,1.1675,0.0062,-0.1971,-0.995,1.0209,0.5636,1.3545,-0.5714
0.6578,-1.1127,0.8466,-0.5638,1.678,-0.4187,2.3045,0.2923,1.1033,-0.0039,-0.2182,-1.002,1.0055,0.5504,1.3211,-0.568
0.6578,-1.1127,0.8466,-0.5638,1.678,-0.4187,2.3045,0.2923,1.1033,-0.0039,-0.2182,-1.002,1.0055,0.5504,1.3211,-0.568
0.6578,-1.1127,0.8466,-0.5638,1.678,-0.4187,2.3045,0.2923,1.1033,-0.0039,-0.2182,-1.002,1.0055,0.5504,1.3211,-0.568
0.6578,-1.1127,0.8466,-0.5638,1.678,-0.4187,2.3045,0.2923,1.1033,-0.0039,-0.2182,-1.002,1.0055,0.5504,1.3211,-0.568
0.6481,-1.115,0.8253,-0.5664,1.6508,-0.4058,2.3097,0.2848,1.0394,-0.014,-0.2287,-1.0055,0.9925,0.5456,1.2962,-0.562
0.6481,-1.115,0.8253,-0.5664,1.6508,-0.4058,2.3097,0.2848,1.0394,-0.014,-0.2287,-1.0055,0.9925,0.5456,1.2962,-0.562
0.6481,-1.115,0.8253,-0.5664,1.6508,-0.4058,2.3097,0.2848,1.0394,-0.014,-0.2287,-1.0055,0.9925,0.5456,1.2962,-0.562
0.6826,-1.1157,0.8513,-0.5705,1.6732,-0.3942,2.3269,0.29,1.1162,-0.0737,-0.2041,-0.9974,1.0098,0.5442,1.3159,-0.5606
0.7367,-1.1117,0.8838,-0.5618,1.7374,-0.3811,2.3835,0.2984,1.2103,-0.1069,-0.1548,-0.9811,1.0468,0.5498,1.364,-0.5551
0.7367,-1.1117,0.8838,-0.5618,1.7374,-0.3811,2.3835,0.2984,1.2103,-0.1069,-0.1548,-0.9811,1.0468,0.5498,1.364,-0.5551
0.7367,-1.1117,0.8838,-0.5618,1.7374,-0.3811,2.3835,0.2984,1.2103,-0.1069,-0.1548,-0.9811,1.0468,0.5498,1.364,-0.5551
0.7902,-1.0901,0.9435,-0.5476,1.8093,-0.3606,2.4768,0.2995,1.1804,-0.0638,-0.0925,-0.9645,1.0904,0.5577,1.4166,-0.5484
0.7902,-1.0901,0.9435,-0.5476,1.8093,-0.3606,2.4768,0.2995,1.1804,-0.0638,-0.0925,-0.9645,1.0904,0.5577,1.4166,-0.5484
0.7902,-1.0901,0.9435,-0.5476,1.8093,-0.3606,2.4768,0.2995,1.1804,-0.0638,-0.0925,-0.9645,1.0904,0.5577,1.4166,-0.5484
0.8983,-1.0555,1.0466,-0.5283,1.9528,-0.3357,2.5899,0.3339,1.232,0.0162,0.0435,-0.9397,1.2043,0.5596,1.5284,-0.5287
0.8983,-1.0555,1.0466,-0.5283,1.9528,-0.3357,2.5899,0.3339,1.232,0.0162,0.0435,-0.9397,1.2043,0.5596,1.5284,-0.5287
0.8983,-1.0555,1.0466,-0.5283,1.9528,-0.3357,2.5899,0.3339,1.232,0.0162,0.0435,-0.9397,1.2043,0.5596,1.5284,-0.5287
0.9407,-1.05,1.0947,-0.53,2.0058,-0.3312,2.6196,0.3521,1.2492,0.0431,0.0933,-0.9354,1.2242,0.5667,1.5702,-0.5208
0.9683,-1.0481,1.1371,-0.5349,2.0349,-0.3283,2.6371,0.3574,1.2968,0.0262,0.1288,-0.9357,1.2332,0.5776,1.5921,-0.5144
0.9683,-1.0481,1.1371,-0.5349,2.0349,-0.3283,2.6371,0.3574,1.2968,0.0262,0.1288,-0.9357,1.2332,0.5776,1.5921,-0.5144
0.9909,-1.0473,1.1693,-0.5361,2.0703,-0.3342,2.6406,0.3676,1.3923,-0.0075,0.1514,-0.9363,1.2245,0.5901,1.6122,-0.513
0.9909,-1.0473,1.1693,-0.5361,2.0703,-0.3342,2.6406,0.3676,1.3923,-0.0075,0.1514,-0.9363,1.2245,0.5901,1.6122,-0.513
1.0036,-1.0488,1.175,-0.533,2.0755,-0.3327,2.6406,0.3676,1.4401,-0.0244,0.155,-0.9352,1.2245,0.5901,1.6236,-0.5142
1.0036,-1.0488,1.175,-0.533,2.0755,-0.3327,2.6406,0.3676,1.4401,-0.0244,0.155,-0.9352,1.2245,0.5901,1.6236,-0.5142
1.0009,-1.045,1.1657,-0.5195,2.0838,-0.3356,2.6494,0.3703,1.4098,0.0193,0.155,-0.9352,1.2136,0.594,1.6332,-0.5204
1.0009,-1.045,1.1657,-0.5195,2.0838,-0.3356,2.6494,0.3703,1.4098,0.0193,0.155,-0.9352,1.2136,0.594,1.6332,-0.5204
0.9986,-1.05,1.16,-0.5226,2.0816,-0.3415,2.6459,0.36,1.3619,0.0363,0.15,-0.9407,1.2046,0.583,1.6218,-0.5192
0.9986,-1.05,1.16,-0.5226,2.0816,-0.3415,2.6459,0.36,1.3619,0.0363,0.15,-0.9407,1.2046,0.583,1.6218,-0.5192
0.9913,-1.0562,1.1439,-0.522,2.0659,-0.3459,2.6371,0.3574,1.2968,0.0262,0.1436,-0.9507,1.1914,0.5783,1.6087,-0.5231
0.9913,-1.0562,1.1439,-0.522,2.0659,-0.3459,2.6371,0.3574,1.2968,0.0262,0.1436,-0.9507,1.1914,0.5783,1.6087,-0.5231
0.979,-1.0636,1.1325,-0.5281,2.0471,-0.3458,2.6336,0.3471,1.327,-0.0174,0.1292,-0.9554,1.1891,0.5697,1.5885,-0.5245
0.9668,-1.0709,1.1164,-0.5275,2.0231,-0.3473,2.6161,0.3418,1.2795,-0.0006,0.1126,-0.9568,1.1715,0.5712,1.5754,-0.5283
0.9668,-1.0709,1.1164,-0.5275,2.0231,-0.3473,2.6161,0.3418,1.2795,-0.0006,0.1126,-0.9568,1.1715,0.5712,1.5754,-0.5283
0.9519,-1.0744,1.1003,-0.527,2.0022,-0.3531,2.6074,0.3392,1.327,-0.0174,0.0937,-0.955,1.1715,0.5712,1.5693,-0.5347
0.9519,-1.0744,1.1003,-0.527,2.0022,-0.3531,2.6074,0.3392,1.327,-0.0174,0.0937,-0.955,1.1715,0.5712,1.5693,-0.5347
0.9519,-1.0744,1.1003,-0.527,2.0022,-0.3531,2.6074,0.3392,1.327,-0.0174,0.0937,-0.955,1.1715,0.5712,1.5693,-0.5347
0.9343,-1.074,1.089,-0.5331,1.9948,-0.3604,2.6179,0.324,1.327,-0.0174,0.0851,-0.9617,1.1868,0.5611,1.5632,-0.541
0.9343,-1.074,1.089,-0.5331,1.9948,-0.3604,2.6179,0.324,1.327,-0.0174,0.0851,-0.9617,1.1868,0.5611,1.5632,-0.541
0.9167,-1.0737,1.073,-0.5325,1.9844,-0.3633,2.6144,0.3137,1.327,-0.0174,0.0721,-0.962,1.1911,0.5549,1.557,-0.5473
0.9068,-1.076,1.0673,-0.5356,1.974,-0.3662,2.6004,0.3187,1.3096,-0.0441,0.0578,-0.9666,1.1997,0.5425,1.5414,-0.5474
0.9068,-1.076,1.0673,-0.5356,1.974,-0.3662,2.6004,0.3187,1.3096,-0.0441,0.0578,-0.9666,1.1997,0.5425,1.5414,-0.5474
0.9068,-1.076,1.0673,-0.5356,1.974,-0.3662,2.6004,0.3187,1.3096,-0.0441,0.0578,-0.9666,1.1997,0.5425,1.5414,-0.5474
0.887,-1.0807,1.0709,-0.5521,1.9532,-0.372,2.5637,0.3259,1.327,-0.0174,0.0542,-0.9678,1.2063,0.5449,1.5414,-0.5474
0.887,-1.0807,1.0709,-0.5521,1.9532,-0.372,2.5637,0.3259,1.327,-0.0174,0.0542,-0.9678,1.2063,0.5449,1.5414,-0.5474
0.887,-1.0807,1.0709,-0.5521,1.9532,-0.372,2.5637,0.3259,1.327,-0.0174,0.0542,-0.9678,1.2063,0.5449,1.5414,-0.5474
0.8721,-1.0841,1.0699,-0.5619,1.9264,-0.3692,2.5323,0.3256,1.327,-0.0174,0.047,-0.9701,1.1954,0.5487,1.537,-0.5487
0.8721,-1.0841,1.0699,-0.5619,1.9264,-0.3692,2.5323,0.3256,1.327,-0.0174,0.047,-0.9701,1.1954,0.5487,1.537,-0.5487
0.8721,-1.0841,1.0699,-0.5619,1.9264,-0.3692,2.5323,0.3256,1.327,-0.0174,0.047,-0.9701,1.1954,0.5487,1.537,-0.5487
0.8699,-1.0892,1.0756,-0.5588,1.9182,-0.3663,2.5323,0.3256,1.3747,-0.0342,0.034,-0.9704,1.1692,0.5627,1.5214,-0.5488
0.8699,-1.0892,1.0756,-0.5588,1.9182,-0.3663,2.5323,0.3256,1.3747,-0.0342,0.034,-0.9704,1.1692,0.5627,1.5214,-0.5488
0.8699,-1.0892,1.0756,-0.5588,1.9182,-0.3663,2.5323,0.3256,1.3747,-0.0342,0.034,-0.9704,1.1692,0.5627,1.5214,-0.5488
0.8653,-1.0992,1.0297,-0.5375,1.8893,-0.3692,2.5097,0.3279,1.3747,-0.0342,0.0126,-0.9774,1.1451,0.5618,1.5109,-0.5564
0.8653,-1.0992,1.0297,-0.5375,1.8893,-0.3692,2.5097,0.3279,1.3747,-0.0342,0.0126,-0.9774,1.1451,0.5618,1.5109,-0.5564
0.8653,-1.0992,1.0297,-0.5375,1.8893,-0.3692,2.5097,0.3279,1.3747,-0.0342,0.0126,-0.9774,1.1451,0.5618,1.5109,-0.5564
0.8331,-1.1023,0.9921,-0.5395,1.8613,-0.3823,2.4889,0.3124,1.2492,0.0431,-0.0182,-0.9834,1.1145,0.5586,1.4797,-0.5566
0.8331,-1.1023,0.9921,-0.5395,1.8613,-0.3823,2.4889,0.3124,1.2492,0.0431,-0.0182,-0.9834,1.1145,0.5586,1.4797,-0.5566
0.8331,-1.1023,0.9921,-0.5395,1.8613,-0.3823,2.4889,0.3124,1.2492,0.0431,-0.0182,-0.9834,1.1145,0.5586,1.4797,-0.5566
0.8206,-1.1008,0.9865,-0.5426,1.8509,-0.3852,2.4803,0.3097,1.2622,-0.0273,-0.036,-0.9892,1.1056,0.5477,1.4597,-0.558
0.8058,-1.1043,0.9752,-0.5487,1.8273,-0.3867,2.463,0.3044,1.2622,-0.0273,-0.056,-0.9918,1.0816,0.5468,1.4399,-0.5594
0.8058,-1.1043,0.9752,-0.5487,1.8273,-0.3867,2.463,0.3044,1.2622,-0.0273,-0.056,-0.9918,1.0816,0.5468,1.4399,-0.5594
0.7937,-1.1116,0.9537,-0.5512,1.7874,-0.3824,2.4543,0.3018,1.232,0.0162,-0.0747,-0.9901,1.0793,0.5383,1.4243,-0.5596
0.7937,-1.1116,0.9537,-0.5512,1.7874,-0.3824,2.4543,0.3018,1.232,0.0162,-0.0747,-0.9901,1.0793,0.5383,1.4243,-0.5596
0.7688,-1.1086,0.9379,-0.5507,1.7618,-0.3897,2.4509,0.2916,1.2017,0.0598,-0.0969,-0.9895,1.0793,0.5383,1.4114,-0.5634
0.7688,-1.1086,0.9379,-0.5507,1.7618,-0.3897,2.4509,0.2916,1.2017,0.0598,-0.0969,-0.9895,1.0793,0.5383,1.4114,-0.5634
0.7514,-1.1082,0.9164,-0.5532,1.7332,-0.3926,2.4284,0.2939,1.232,0.0162,-0.1168,-0.9921,1.0662,0.5336,1.3915,-0.5648
0.7514,-1.1082,0.9164,-0.5532,1.7332,-0.3926,2.4284,0.2939,1.232,0.0162,-0.1168,-0.9921,1.0662,0.5336,1.3915,-0.5648
0.7514,-1.1082,0.9164,-0.5532,1.7332,-0.3926,2.4284,0.2939,1.232,0.0162,-0.1168,-0.9921,1.0662,0.5336,1.3915,-0.5648
0.7167,-1.1075,0.8996,-0.5624,1.7056,-0.4057,2.3973,0.2935,1.2017,0.0598,-0.1389,-0.9915,1.0705,0.5274,1.3786,-0.5687
0.7167,-1.1075,0.8996,-0.5624,1.7056,-0.4057,2.3973,0.2935,1.2017,0.0598,-0.1389,-0.9915,1.0705,0.5274,1.3786,-0.5687
0.6627,-1.1115,0.8875,-0.5782,1.6487,-0.4116,2.3164,0.3051,1.232,0.0162,-0.1821,-0.9979,1.038,0.5389,1.3348,-0.5728
0.6627,-1.1115,0.8875,-0.5782,1.6487,-0.4116,2.3164,0.3051,1.232,0.0162,-0.1821,-0.9979,1.038,0.5389,1.3348,-0.5728
0.6627,-1.1115,0.8875,-0.5782,1.6487,-0.4116,2.3164,0.3051,1.232,0.0162,-0.1821,-0.9979,1.038,0.5389,1.3348,-0.5728
0.6481,-1.115,0.867,-0.571,1.6326,-0.4059,2.2993,0.2998,1.2622,-0.0273,-0.1949,-0.9982,1.0272,0.5427,1.3262,-0.5754
0.6481,-1.115,0.867,-0.571,1.6326,-0.4059,2.2993,0.2998,1.2622,-0.0273,-0.1949,-0.9982,1.0272,0.5427,1.3262,-0.5754
0.6481,-1.115,0.867,-0.571,1.6326,-0.4059,2.2993,0.2998,1.2622,-0.0273,-0.1949,-0.9982,1.0272,0.5427,1.3262,-0.5754
0.6552,-1.1089,0.868,-0.5613,1.6609,-0.4029,2.3079,0.3024,1.2622,-0.0273,-0.1878,-0.9959,1.0229,0.5489,1.3331,-0.5778
0.6552,-1.1089,0.868,-0.5613,1.6609,-0.4029,2.3079,0.3024,1.2622,-0.0273,-0.1878,-0.9959,1.0229,0.5489,1.3331,-0.5778
0.687,-1.1057,0.8847,-0.5521,1.7098,-0.3941,2.344,0.2953,1.2492,0.0431,-0.1468,-0.9863,1.0642,0.5483,1.3726,-0.575
0.7385,-1.0979,0.9174,-0.5434,1.7823,-0.3838,2.3921,0.301,1.2017,0.0598,-0.0871,-0.9784,1.0947,0.5515,1.407,-0.5647
0.8,-1.0877,0.9603,-0.5384,1.8552,-0.3736,2.4405,0.3067,1.1846,0.0329,-0.02,-0.9683,1.1253,0.5547,1.4477,-0.5481
0.8,-1.0877,0.9603,-0.5384,1.8552,-0.3736,2.4405,0.3067,1.1846,0.0329,-0.02,-0.9683,1.1253,0.5547,1.4477,-0.5481
0.8,-1.0877,0.9603,-0.5384,1.8552,-0.3736,2.4405,0.3067,1.1846,0.0329,-0.02,-0.9683,1.1253,0.5547,1.4477,-0.5481
0.8619,-1.0776,1.0147,-0.5272,1.9255,-0.359,2.501,0.3252,1.1675,0.0062,0.0425,-0.9637,1.1494,0.5556,1.4867,-0.5365
0.8619,-1.0776,1.0147,-0.5272,1.9255,-0.359,2.501,0.3252,1.1675,0.0062,0.0425,-0.9637,1.1494,0.5556,1.4867,-0.5365
0.8619,-1.0776,1.0147,-0.5272,1.9255,-0.359,2.501,0.3252,1.1675,0.0062,0.0425,-0.9637,1.1494,0.5556,1.4867,-0.5365
0.914,-1.0698,1.0636,-0.5191,1.9745,-0.34,2.5532,0.3411,1.1504,-0.0205,0.0995,-0.957,1.1692,0.5627,1.524,-0.53
0.914,-1.0698,1.0636,-0.5191,1.9745,-0.34,2.5532,0.3411,1.1504,-0.0205,0.0995,-0.957,1.1692,0.5627,1.524,-0.53
0.914,-1.0698,1.0636,-0.5191,1.9745,-0.34,2.5532,0.3411,1.1504,-0.0205,0.0995,-0.957,1.1692,0.5627,1.524,-0.53
0.9564,-1.0644,1.1013,-0.5171,2.011,-0.3298,2.5794,0.3491,1.1504,-0.0205,0.14,-0.9519,1.1782,0.5736,1.5571,-0.5247
0.9564,-1.0644,1.1013,-0.5171,2.011,-0.3298,2.5794,0.3491,1.1504,-0.0205,0.14,-0.9519,1.1782,0.5736,1.5571,-0.5247
1.022,-1.0671,1.1553,-0.5158,2.0476,-0.3195,2.6424,0.3498,1.2449,-0.0539,0.1762,-0.9402,1.1914,0.5783,1.6069,-0.5281
1.022,-1.0671,1.1553,-0.5158,2.0476,-0.3195,2.6424,0.3498,1.2449,-0.0539,0.1762,-0.9402,1.1914,0.5783,1.6069,-0.5281
1.0193,-1.0632,1.161,-0.5127,2.0424,-0.321,2.6652,0.3474,1.2922,-0.0707,0.1776,-0.9358,1.2023,0.5744,1.6183,-0.5293
1.0193,-1.0632,1.161,-0.5127,2.0424,-0.321,2.6652,0.3474,1.2922,-0.0707,0.1776,-0.9358,1.2023,0.5744,1.6183,-0.5293
1.0193,-1.0632,1.161,-0.5127,2.0424,-0.321,2.6652,0.3474,1.2922,-0.0707,0.1776,-0.9358,1.2023,0.5744,1.6183,-0.5293
1.0117,-1.0605,1.161,-0.5127,2.0402,-0.3269,2.6846,0.3348,1.3572,-0.0609,0.1717,-0.9337,1.2242,0.5667,1.6252,-0.5318
1.0117,-1.0605,1.161,-0.5127,2.0402,-0.3269,2.6846,0.3348,1.3572,-0.0609,0.1717,-0.9337,1.2242,0.5667,1.6252,-0.5318
0.9913,-1.0562,1.1449,-0.5121,2.0358,-0.3385,2.6652,0.3474,1.2795,-0.0006,0.1608,-0.9372,1.2286,0.5605,1.6139,-0.5306
0.9714,-1.0609,1.1335,-0.5183,2.0097,-0.3458,2.6284,0.3547,1.2968,0.0262,0.1441,-0.9387,1.2395,0.5566,1.5999,-0.5257
0.9714,-1.0609,1.1335,-0.5183,2.0097,-0.3458,2.6284,0.3547,1.2968,0.0262,0.1441,-0.9387,1.2395,0.5566,1.5999,-0.5257
0.9465,-1.0667,1.1221,-0.5245,1.9866,-0.3575,2.5968,0.3544,1.3445,0.0094,0.1261,-0.9445,1.2329,0.5543,1.5868,-0.5295
0.9465,-1.0667,1.1221,-0.5245,1.9866,-0.3575,2.5968,0.3544,1.3445,0.0094,0.1261,-0.9445,1.2329,0.5543,1.5868,-0.5295
0.9392,-1.0729,1.1268,-0.5312,1.971,-0.3619,2.5654,0.354,1.3572,-0.0609,0.1081,-0.9503,1.2043,0.5596,1.5667,-0.5309
0.932,-1.0791,1.1211,-0.5343,1.9636,-0.3691,2.5479,0.3487,1.3747,-0.0342,0.0995,-0.957,1.1825,0.5674,1.558,-0.5335
0.932,-1.0791,1.1211,-0.5343,1.9636,-0.3691,2.5479,0.3487,1.3747,-0.0342,0.0995,-0.957,1.1825,0.5674,1.558,-0.5335
0.932,-1.0791,1.1211,-0.5343,1.9636,-0.3691,2.5479,0.3487,1.3747,-0.0342,0.0995,-0.957,1.1825,0.5674,1.558,-0.5335
0.9171,-1.0826,1.0957,-0.5202,1.9532,-0.372,2.5445,0.3384,1.4401,-0.0244,0.0982,-0.9614,1.1825,0.5674,1.5632,-0.541
0.9171,-1.0826,1.0957,-0.5202,1.9532,-0.372,2.5445,0.3384,1.4401,-0.0244,0.0982,-0.9614,1.1825,0.5674,1.5632,-0.541
0.9095,-1.0799,1.091,-0.5135,1.9562,-0.3764,2.5445,0.3384,1.4098,0.0193,0.0887,-0.9605,1.1759,0.565,1.5658,-0.5447
0.9095,-1.0799,1.091,-0.5135,1.9562,-0.3764,2.5445,0.3384,1.4098,0.0193,0.0887,-0.9605,1.1759,0.565,1.5658,-0.5447
0.9045,-1.081,1.091,-0.5135,1.9644,-0.3793,2.5445,0.3384,1.3141,0.0531,0.0815,-0.9629,1.1626,0.5603,1.5544,-0.5435
0.9045,-1.081,1.091,-0.5135,1.9644,-0.3793,2.5445,0.3384,1.3141,0.0531,0.0815,-0.9629,1.1626,0.5603,1.5544,-0.5435
0.8996,-1.0822,1.0957,-0.5202,1.951,-0.3779,2.5498,0.3309,1.327,-0.0174,0.0824,-0.9705,1.1428,0.5532,1.5414,-0.5474
0.8996,-1.0822,1.0957,-0.5202,1.951,-0.3779,2.5498,0.3309,1.327,-0.0174,0.0824,-0.9705,1.1428,0.5532,1.5414,-0.5474
0.887,-1.0807,1.0796,-0.5196,1.9316,-0.3677,2.541,0.3282,1.2622,-0.0273,0.0752,-0.9728,1.1362,0.5509,1.5275,-0.5425
0.887,-1.0807,1.0796,-0.5196,1.9316,-0.3677,2.541,0.3282,1.2622,-0.0273,0.0752,-0.9728,1.1362,0.5509,1.5275,-0.5425
0.887,-1.0807,1.0796,-0.5196,1.9316,-0.3677,2.541,0.3282,1.2622,-0.0273,0.0752,-0.9728,1.1362,0.5509,1.5275,-0.5425
0.8897,-1.0845,1.074,-0.5227,1.9121,-0.3575,2.5358,0.3358,1.2795,-0.0006,0.0716,-0.9739,1.1253,0.5547,1.5231,-0.5438
0.8897,-1.0845,1.074,-0.5227,1.9121,-0.3575,2.5358,0.3358,1.2795,-0.0006,0.0716,-0.9739,1.1253,0.5547,1.5231,-0.5438
0.8798,-1.0868,1.0326,-0.5081,1.8832,-0.3605,2.541,0.3282,1.232,0.0162,0.0376,-0.9692,1.1188,0.5524,1.4988,-0.5465
0.8798,-1.0868,1.0326,-0.5081,1.8832,-0.3605,2.541,0.3282,1.232,0.0162,0.0376,-0.9692,1.1188,0.5524,1.4988,-0.5465
0.8798,-1.0868,1.0326,-0.5081,1.8832,-0.3605,2.541,0.3282,1.232,0.0162,0.0376,-0.9692,1.1188,0.5524,1.4988,-0.5465
0.8699,-1.0892,1.0166,-0.5075,1.8595,-0.362,2.5323,0.3256,1.2795,-0.0006,0.0166,-0.9642,1.1188,0.5524,1.4901,-0.549
0.8699,-1.0892,1.0166,-0.5075,1.8595,-0.362,2.5323,0.3256,1.2795,-0.0006,0.0166,-0.9642,1.1188,0.5524,1.4901,-0.549
0.8398,-1.0873,0.9997,-0.5168,1.8337,-0.3693,2.515,0.3203,1.2622,-0.0273,-0.0093,-0.9648,1.1165,0.5438,1.4771,-0.5529
0.8398,-1.0873,0.9997,-0.5168,1.8337,-0.3693,2.515,0.3203,1.2622,-0.0273,-0.0093,-0.9648,1.1165,0.5438,1.4771,-0.5529
0.8126,-1.0892,0.9931,-0.5297,1.8162,-0.3794,2.4784,0.3275,1.2622,-0.0273,-0.0293,-0.9674,1.1208,0.5376,1.4572,-0.5543
0.8126,-1.0892,0.9931,-0.5297,1.8162,-0.3794,2.4784,0.3275,1.2622,-0.0273,-0.0293,-0.9674,1.1208,0.5376,1.4572,-0.5543
0.8126,-1.0892,0.9931,-0.5297,1.8162,-0.3794,2.4784,0.3275,1.2622,-0.0273,-0.0293,-0.9674,1.1208,0.5376,1.4572,-0.5543
0.7777,-1.0885,0.9818,-0.5359,1.7823,-0.3838,2.4473,0.3271,1.2449,-0.0539,-0.0507,-0.9744,1.0967,0.5368,1.4329,-0.557
0.7777,-1.0885,0.9818,-0.5359,1.7823,-0.3838,2.4473,0.3271,1.2449,-0.0539,-0.0507,-0.9744,1.0967,0.5368,1.4329,-0.557
0.7777,-1.0885,0.9818,-0.5359,1.7823,-0.3838,2.4473,0.3271,1.2449,-0.0539,-0.0507,-0.9744,1.0967,0.5368,1.4329,-0.557
0.7359,-1.094,0.9547,-0.5414,1.7251,-0.3898,2.3937,0.3289,1.3397,-0.0874,-0.0977,-0.9819,1.0533,0.5521,1.3958,-0.5635
0.7359,-1.094,0.9547,-0.5414,1.7251,-0.3898,2.3937,0.3289,1.3397,-0.0874,-0.0977,-0.9819,1.0533,0.5521,1.3958,-0.5635
0.7163,-1.0987,0.9286,-0.5373,1.6996,-0.397,2.3679,0.321,1.327,-0.0174,-0.1177,-0.9845,1.0251,0.5574,1.3898,-0.5698
0.7163,-1.0987,0.9286,-0.5373,1.6996,-0.397,2.3679,0.321,1.327,-0.0174,-0.1177,-0.9845,1.0251,0.5574,1.3898,-0.5698
0.6941,-1.0995,0.9025,-0.5331,1.6762,-0.3986,2.3593,0.3183,1.2968,0.0262,-0.1433,-0.9851,1.0164,0.5465,1.3769,-0.5737
0.6941,-1.0995,0.9025,-0.5331,1.6762,-0.3986,2.3593,0.3183,1.2968,0.0262,-0.1433,-0.9851,1.0164,0.5465,1.3769,-0.5737
0.6941,-1.0995,0.9025,-0.5331,1.6762,-0.3986,2.3593,0.3183,1.2968,0.0262,-0.1433,-0.9851,1.0164,0.5465,1.3769,-0.5737
0.6795,-1.103,0.8811,-0.5357,1.672,-0.4101,2.3369,0.3205,1.1846,0.0329,-0.1667,-0.9889,0.9968,0.5395,1.3545,-0.5714
0.6795,-1.103,0.8811,-0.5357,1.672,-0.4101,2.3369,0.3205,1.1846,0.0329,-0.1667,-0.9889,0.9968,0.5395,1.3545,-0.5714
0.7043,-1.106,0.8913,-0.5393,1.6885,-0.3899,2.3265,0.3356,1.1203,0.0228,-0.1318,-0.9892,1.0119,0.5295,1.3537,-0.5627
0.7043,-1.106,0.8913,-0.5393,1.6885,-0.3899,2.3265,0.3356,1.1203,0.0228,-0.1318,-0.9892,1.0119,0.5295,1.3537,-0.5627
0.7043,-1.106,0.8913,-0.5393,1.6885,-0.3899,2.3265,0.3356,1.1203,0.0228,-0.1318,-0.9892,1.0119,0.5295,1.3537,-0.5627
0.7634,-1.1009,0.9342,-0.5342,1.7447,-0.3738,2.3884,0.3365,1.1846,0.0329,-0.0765,-0.9749,1.0488,0.5351,1.3907,-0.5561
0.7634,-1.1009,0.9342,-0.5342,1.7447,-0.3738,2.3884,0.3365,1.1846,0.0329,-0.0765,-0.9749,1.0488,0.5351,1.3907,-0.5561
0.7634,-1.1009,0.9342,-0.5342,1.7447,-0.3738,2.3884,0.3365,1.1846,0.0329,-0.0765,-0.9749,1.0488,0.5351,1.3907,-0.5561
0.8251,-1.0908,0.9781,-0.5193,1.8062,-0.3563,2.4454,0.3449,1.232,0.0162,-0.016,-0.9551,1.0925,0.543,1.4364,-0.547
0.8251,-1.0908,0.9781,-0.5193,1.8062,-0.3563,2.4454,0.3449,1.232,0.0162,-0.016,-0.9551,1.0925,0.543,1.4364,-0.547
0.8843,-1.0768,1.0316,-0.5179,1.8711,-0.3431,2.5166,0.3483,1.2665,0.07,0.0565,-0.9394,1.1362,0.5509,1.491,-0.5352
0.8843,-1.0768,1.0316,-0.5179,1.8711,-0.3431,2.5166,0.3483,1.2665,0.07,0.0565,-0.9394,1.1362,0.5509,1.491,-0.5352
0.8843,-1.0768,1.0316,-0.5179,1.8711,-0.3431,2.5166,0.3483,1.2665,0.07,0.0565,-0.9394,1.1362,0.5509,1.491,-0.5352
0.9752,-1.0329,1.1308,-0.4918,1.9945,-0.324,2.6459,0.36,1.3489,0.1072,0.1713,-0.914,1.2176,0.5643,1.5903,-0.5194
0.9752,-1.0329,1.1308,-0.4918,1.9945,-0.324,2.6459,0.36,1.3489,0.1072,0.1713,-0.914,1.2176,0.5643,1.5903,-0.5194
1.0101,-1.0247,1.1583,-0.4862,2.0371,-0.3225,2.6669,0.3756,1.3662,0.1344,0.2084,-0.91,1.2638,0.5574,1.6236,-0.5142
1.0101,-1.0247,1.1583,-0.4862,2.0371,-0.3225,2.6669,0.3756,1.3662,0.1344,0.2084,-0.91,1.2638,0.5574,1.6236,-0.5142
1.0101,-1.0247,1.1583,-0.4862,2.0371,-0.3225,2.6669,0.3756,1.3662,0.1344,0.2084,-0.91,1.2638,0.5574,1.6236,-0.5142
1.0328,-1.0239,1.1802,-0.4837,2.0694,-0.3239,2.6845,0.381,1.3968,0.0903,0.2406,-0.9115,1.3034,0.5481,1.6481,-0.5115
1.0405,-1.0267,1.1906,-0.4874,2.086,-0.3298,2.688,0.3913,1.3968,0.0903,0.2575,-0.9101,1.3211,0.5466,1.671,-0.5139
1.0405,-1.0267,1.1906,-0.4874,2.086,-0.3298,2.688,0.3913,1.3968,0.0903,0.2575,-0.9101,1.3211,0.5466,1.671,-0.5139
1.0509,-1.0333,1.2115,-0.4948,2.0891,-0.3342,2.6827,0.3989,1.3968,0.0903,0.2693,-0.9143,1.3211,0.5466,1.6798,-0.5113
1.0509,-1.0333,1.2115,-0.4948,2.0891,-0.3342,2.6827,0.3989,1.3968,0.0903,0.2693,-0.9143,1.3211,0.5466,1.6798,-0.5113
1.0436,-1.0395,1.2162,-0.5016,2.0755,-0.3327,2.6651,0.3936,1.4273,0.0463,0.2679,-0.9187,1.2881,0.5582,1.6754,-0.5126
1.0436,-1.0395,1.2162,-0.5016,2.0755,-0.3327,2.6651,0.3936,1.4273,0.0463,0.2679,-0.9187,1.2881,0.5582,1.6754,-0.5126
1.0436,-1.0395,1.2162,-0.5016,2.0755,-0.3327,2.6651,0.3936,1.4273,0.0463,0.2679,-0.9187,1.2881,0.5582,1.6754,-0.5126
1.0413,-1.0446,1.2162,-0.5016,2.065,-0.3356,2.6564,0.3909,1.4754,0.0293,0.2606,-0.9211,1.2771,0.5621,1.664,-0.5114
1.0413,-1.0446,1.2162,-0.5016,2.065,-0.3356,2.6564,0.3909,1.4754,0.0293,0.2606,-0.9211,1.2771,0.5621,1.664,-0.5114
1.0367,-1.0547,1.201,-0.4911,2.0515,-0.3342,2.6617,0.3833,1.4625,0.1004,0.2474,-0.9213,1.2508,0.5761,1.6666,-0.5151
1.0367,-1.0547,1.201,-0.4911,2.0515,-0.3342,2.6617,0.3833,1.4625,0.1004,0.2474,-0.9213,1.2508,0.5761,1.6666,-0.5151
1.0367,-1.0547,1.201,-0.4911,2.0515,-0.3342,2.6617,0.3833,1.4625,0.1004,0.2474,-0.9213,1.2508,0.5761,1.6666,-0.5151
1.0367,-1.0547,1.201,-0.4911,2.0515,-0.3342,2.6617,0.3833,1.4625,0.1004,0.2474,-0.9213,1.2508,0.5761,1.6666,-0.5151
1.009,-1.0566,1.1849,-0.4905,2.0366,-0.3488,2.6494,0.3703,1.3968,0.0903,0.2065,-0.9265,1.2199,0.5729,1.6516,-0.5241
1.009,-1.0566,1.1849,-0.4905,2.0366,-0.3488,2.6494,0.3703,1.3968,0.0903,0.2065,-0.9265,1.2199,0.5729,1.6516,-0.5241
0.994,-1.0601,1.1688,-0.4899,2.0179,-0.3488,2.6459,0.36,1.2665,0.07,0.1907,-0.9356,1.1891,0.5697,1.6244,-0.523
0.984,-1.0624,1.1526,-0.4893,2.0075,-0.3517,2.6231,0.3623,1.327,-0.0174,0.1798,-0.9391,1.1715,0.5712,1.6113,-0.5268
0.984,-1.0624,1.1526,-0.4893,2.0075,-0.3517,2.6231,0.3623,1.327,-0.0174,0.1798,-0.9391,1.1715,0.5712,1.6113,-0.5268
0.9867,-1.0663,1.1526,-0.4893,1.9992,-0.3488,2.6231,0.3623,1.2622,-0.0273,0.1644,-0.9361,1.1649,0.5689,1.6095,-0.5319
0.9867,-1.0663,1.1526,-0.4893,1.9992,-0.3488,2.6231,0.3623,1.2622,-0.0273,0.1644,-0.9361,1.1649,0.5689,1.6095,-0.5319
0.9867,-1.0663,1.1526,-0.4893,1.9992,-0.3488,2.6231,0.3623,1.2622,-0.0273,0.1644,-0.9361,1.1649,0.5689,1.6095,-0.5319
0.979,-1.0636,1.1469,-0.4924,1.9805,-0.3488,2.6424,0.3498,1.3096,-0.0441,0.1608,-0.9372,1.1649,0.5689,1.6051,-0.5332
0.979,-1.0636,1.1469,-0.4924,1.9805,-0.3488,2.6424,0.3498,1.3096,-0.0441,0.1608,-0.9372,1.1649,0.5689,1.6051,-0.5332
0.9587,-1.0593,1.1459,-0.5023,1.9597,-0.3546,2.6336,0.3471,1.2795,-0.0006,0.1441,-0.9387,1.1735,0.5564,1.5964,-0.5357
0.9587,-1.0593,1.1459,-0.5023,1.9597,-0.3546,2.6336,0.3471,1.2795,-0.0006,0.1441,-0.9387,1.1735,0.5564,1.5964,-0.5357
0.9587,-1.0593,1.1459,-0.5023,1.9597,-0.3546,2.6336,0.3471,1.2795,-0.0006,0.1441,-0.9387,1.1735,0.5564,1.5964,-0.5357
0.9538,-1.0605,1.1402,-0.5054,1.9411,-0.3546,2.6196,0.3521,1.3572,-0.0609,0.1333,-0.9422,1.1669,0.5541,1.5806,-0.5358
0.9538,-1.0605,1.1402,-0.5054,1.9411,-0.3546,2.6196,0.3521,1.3572,-0.0609,0.1333,-0.9422,1.1669,0.5541,1.5806,-0.5358
0.9538,-1.0605,1.1402,-0.5054,1.9411,-0.3546,2.6196,0.3521,1.3572,-0.0609,0.1333,-0.9422,1.1669,0.5541,1.5806,-0.5358
0.9438,-1.0628,1.1402,-0.5054,1.9285,-0.3633,2.5916,0.362,1.4049,-0.0777,0.1225,-0.9457,1.1603,0.5517,1.5719,-0.5384
0.9438,-1.0628,1.1402,-0.5054,1.9285,-0.3633,2.5916,0.362,1.4049,-0.0777,0.1225,-0.9457,1.1603,0.5517,1.5719,-0.5384
0.9438,-1.0628,1.1402,-0.5054,1.9285,-0.3633,2.5916,0.362,1.4049,-0.0777,0.1225,-0.9457,1.1603,0.5517,1.5719,-0.5384
0.919,-1.0686,1.1034,-0.4975,1.8841,-0.3706,2.5654,0.354,1.3619,0.0363,0.095,-0.9506,1.1362,0.5509,1.5614,-0.546
0.919,-1.0686,1.1034,-0.4975,1.8841,-0.3706,2.5654,0.354,1.3619,0.0363,0.095,-0.9506,1.1362,0.5509,1.5614,-0.546
0.9014,-1.0683,1.093,-0.4938,1.8737,-0.3736,2.5567,0.3513,1.2837,0.097,0.0748,-0.9532,1.1188,0.5524,1.5388,-0.5437
0.9014,-1.0683,1.093,-0.4938,1.8737,-0.3736,2.5567,0.3513,1.2837,0.097,0.0748,-0.9532,1.1188,0.5524,1.5388,-0.5437
0.9014,-1.0683,1.093,-0.4938,1.8737,-0.3736,2.5567,0.3513,1.2837,0.097,0.0748,-0.9532,1.1188,0.5524,1.5388,-0.5437
0.8866,-1.0718,1.0816,-0.5,1.8582,-0.3779,2.5253,0.351,1.2665,0.07,0.0569,-0.959,1.099,0.5453,1.5118,-0.5426
0.8866,-1.0718,1.0816,-0.5,1.8582,-0.3779,2.5253,0.351,1.2665,0.07,0.0569,-0.959,1.099,0.5453,1.5118,-0.5426
0.8296,-1.0807,1.0223,-0.5045,1.7712,-0.3766,2.4871,0.3301,1.1714,0.1036,0.0144,-0.961,1.0793,0.5383,1.4676,-0.5467
0.8296,-1.0807,1.0223,-0.5045,1.7712,-0.3766,2.4871,0.3301,1.1714,0.1036,0.0144,-0.961,1.0793,0.5383,1.4676,-0.5467
0.8046,-1.0777,1.0007,-0.507,1.7374,-0.3811,2.4837,0.3199,1.2017,0.0598,-0.0115,-0.9616,1.0619,0.5398,1.4433,-0.5494
0.8046,-1.0777,1.0007,-0.507,1.7374,-0.3811,2.4837,0.3199,1.2017,0.0598,-0.0115,-0.9616,1.0619,0.5398,1.4433,-0.5494
0.8046,-1.0777,1.0007,-0.507,1.7374,-0.3811,2.4837,0.3199,1.2017,0.0598,-0.0115,-0.9616,1.0619,0.5398,1.4433,-0.5494
0.7822,-1.0785,0.9791,-0.5095,1.7089,-0.384,2.4611,0.3222,1.1846,0.0329,-0.0374,-0.9621,1.0488,0.5351,1.4286,-0.5583
0.7822,-1.0785,0.9791,-0.5095,1.7089,-0.384,2.4611,0.3222,1.1846,0.0329,-0.0374,-0.9621,1.0488,0.5351,1.4286,-0.5583
0.7822,-1.0785,0.9791,-0.5095,1.7089,-0.384,2.4611,0.3222,1.1846,0.0329,-0.0374,-0.9621,1.0488,0.5351,1.4286,-0.5583
0.7577,-1.0844,0.9622,-0.5188,1.6834,-0.3913,2.4161,0.3267,1.2017,0.0598,-0.0574,-0.9647,1.0639,0.5251,1.4157,-0.5621
0.7354,-1.0852,0.951,-0.525,1.6681,-0.3957,2.3884,0.3365,1.1846,0.0329,-0.0809,-0.9685,1.0617,0.5165,1.3958,-0.5635
0.7354,-1.0852,0.951,-0.525,1.6681,-0.3957,2.3884,0.3365,1.1846,0.0329,-0.0809,-0.9685,1.0617,0.5165,1.3958,-0.5635
0.7354,-1.0852,0.9659,-0.5353,1.6732,-0.3942,2.3798,0.3338,1.1846,0.0329,-0.0938,-0.9688,1.0508,0.5204,1.3778,-0.56
0.7354,-1.0852,0.9659,-0.5353,1.6732,-0.3942,2.3798,0.3338,1.1846,0.0329,-0.0938,-0.9688,1.0508,0.5204,1.3778,-0.56
0.7675,-1.082,0.9828,-0.5261,1.7059,-0.3797,2.4056,0.3418,1.2148,-0.0105,-0.0796,-0.9642,1.0531,0.5289,1.3795,-0.555
0.7675,-1.082,0.9828,-0.5261,1.7059,-0.3797,2.4056,0.3418,1.2148,-0.0105,-0.0796,-0.9642,1.0531,0.5289,1.3795,-0.555
0.7675,-1.082,0.9828,-0.5261,1.7059,-0.3797,2.4056,0.3418,1.2148,-0.0105,-0.0796,-0.9642,1.0531,0.5289,1.3795,-0.555
0.7675,-1.082,0.9828,-0.5261,1.7059,-0.3797,2.4056,0.3418,1.2148,-0.0105,-0.0796,-0.9642,1.0531,0.5289,1.3795,-0.555
0.8961,-1.0605,1.0666,-0.4896,1.8587,-0.3518,2.5287,0.3612,1.3445,0.0094,0.0233,-0.9423,1.1013,0.5539,1.4771,-0.5529
0.8961,-1.0605,1.0666,-0.4896,1.8587,-0.3518,2.5287,0.3612,1.3445,0.0094,0.0233,-0.9423,1.1013,0.5539,1.4771,-0.5529
0.9606,-1.0454,1.1214,-0.4783,1.9454,-0.343,2.6038,0.3749,1.3315,0.0801,0.0888,-0.9289,1.1319,0.5571,1.5275,-0.5425
0.9606,-1.0454,1.1214,-0.4783,1.9454,-0.343,2.6038,0.3749,1.3315,0.0801,0.0888,-0.9289,1.1319,0.5571,1.5275,-0.5425
0.9606,-1.0454,1.1214,-0.4783,1.9454,-0.343,2.6038,0.3749,1.3315,0.0801,0.0888,-0.9289,1.1319,0.5571,1.5275,-0.5425
1.0182,-1.0364,1.1708,-0.4701,2.0058,-0.3312,2.6476,0.3882,1.301,0.1241,0.1568,-0.9187,1.1692,0.5627,1.5754,-0.5283
1.0182,-1.0364,1.1708,-0.4701,2.0058,-0.3312,2.6476,0.3882,1.301,0.1241,0.1568,-0.9187,1.1692,0.5627,1.5754,-0.5283
1.0182,-1.0364,1.1708,-0.4701,2.0058,-0.3312,2.6476,0.3882,1.301,0.1241,0.1568,-0.9187,1.1692,0.5627,1.5754,-0.5283
1.1015,-1.0306,1.2365,-0.4626,2.0738,-0.3122,2.7286,0.3943,1.3315,0.0801,0.267,-0.911,1.2176,0.5643,1.6481,-0.5115
1.1015,-1.0306,1.2365,-0.4626,2.0738,-0.3122,2.7286,0.3943,1.3315,0.0801,0.267,-0.911,1.2176,0.5643,1.6481,-0.5115
1.1216,-1.0259,1.2585,-0.4601,2.0896,-0.3078,2.7605,0.3946,1.3315,0.0801,0.2962,-0.9017,1.2309,0.5691,1.6701,-0.505
1.1216,-1.0259,1.2585,-0.4601,2.0896,-0.3078,2.7605,0.3946,1.3315,0.0801,0.2962,-0.9017,1.2309,0.5691,1.6701,-0.505
1.1213,-1.0169,1.2643,-0.457,2.0979,-0.3108,2.7835,0.3922,1.301,0.1241,0.3108,-0.897,1.2485,0.5675,1.686,-0.5049
1.1213,-1.0169,1.2643,-0.457,2.0979,-0.3108,2.7835,0.3922,1.301,0.1241,0.3108,-0.897,1.2485,0.5675,1.686,-0.5049
1.1162,-1.0181,1.2795,-0.4675,2.0957,-0.3166,2.7835,0.3922,1.3968,0.0903,0.3241,-0.8968,1.2771,0.5621,1.7018,-0.5048
1.1162,-1.0181,1.2795,-0.4675,2.0957,-0.3166,2.7835,0.3922,1.3968,0.0903,0.3241,-0.8968,1.2771,0.5621,1.7018,-0.5048
1.0984,-1.0177,1.2889,-0.4811,2.0882,-0.3239,2.7605,0.3946,1.3968,0.0903,0.33,-0.8989,1.2881,0.5582,1.7018,-0.5048
1.0911,-1.0239,1.2832,-0.4842,2.0725,-0.3283,2.7375,0.3969,1.3794,0.0632,0.319,-0.9024,1.2661,0.566,1.6956,-0.5112
1.0911,-1.0239,1.2832,-0.4842,2.0725,-0.3283,2.7375,0.3969,1.3794,0.0632,0.319,-0.9024,1.2661,0.566,1.6956,-0.5112
1.081,-1.0263,1.2784,-0.4774,2.0537,-0.3283,2.7286,0.3943,1.3968,0.0903,0.3117,-0.9047,1.2618,0.5723,1.6912,-0.5125
1.0687,-1.0337,1.247,-0.4663,2.0327,-0.3342,2.711,0.3889,1.4449,0.0733,0.2971,-0.9094,1.2551,0.5699,1.685,-0.5188
1.0687,-1.0337,1.247,-0.4663,2.0327,-0.3342,2.711,0.3889,1.4449,0.0733,0.2971,-0.9094,1.2551,0.5699,1.685,-0.5188
1.0687,-1.0337,1.247,-0.4663,2.0327,-0.3342,2.711,0.3889,1.4449,0.0733,0.2971,-0.9094,1.2551,0.5699,1.685,-0.5188
1.0536,-1.0372,1.2308,-0.4657,2.0171,-0.3385,2.7128,0.371,1.4625,0.1004,0.2802,-0.9108,1.2442,0.5738,1.6876,-0.5226
1.0536,-1.0372,1.2308,-0.4657,2.0171,-0.3385,2.7128,0.371,1.4625,0.1004,0.2802,-0.9108,1.2442,0.5738,1.6876,-0.5226
1.0536,-1.0372,1.2308,-0.4657,2.0171,-0.3385,2.7128,0.371,1.4625,0.1004,0.2802,-0.9108,1.2442,0.5738,1.6876,-0.5226
1.0409,-1.0356,1.2203,-0.462,2.0231,-0.3473,2.6986,0.376,1.4318,0.1446,0.2597,-0.9134,1.2418,0.5652,1.6814,-0.5289
1.0409,-1.0356,1.2203,-0.462,2.0231,-0.3473,2.6986,0.376,1.4318,0.1446,0.2597,-0.9134,1.2418,0.5652,1.6814,-0.5289
1.0259,-1.0391,1.2088,-0.4682,2.0075,-0.3517,2.681,0.3707,1.4143,0.1174,0.2451,-0.918,1.2286,0.5605,1.6656,-0.529
1.0259,-1.0391,1.2088,-0.4682,2.0075,-0.3517,2.681,0.3707,1.4143,0.1174,0.2451,-0.918,1.2286,0.5605,1.6656,-0.529
1.0259,-1.0391,1.2088,-0.4682,2.0075,-0.3517,2.681,0.3707,1.4143,0.1174,0.2451,-0.918,1.2286,0.5605,1.6656,-0.529
1.0259,-1.0391,1.2088,-0.4682,2.0075,-0.3517,2.681,0.3707,1.4143,0.1174,0.2451,-0.918,1.2286,0.5605,1.6656,-0.529
1.0236,-1.0442,1.1927,-0.4676,1.9858,-0.3473,2.6669,0.3756,1.3141,0.0531,0.2292,-0.9271,1.202,0.5511,1.634,-0.5292
1.0236,-1.0442,1.1927,-0.4676,1.9858,-0.3473,2.6669,0.3756,1.3141,0.0531,0.2292,-0.9271,1.202,0.5511,1.634,-0.5292
1.0236,-1.0442,1.1927,-0.4676,1.9858,-0.3473,2.6669,0.3756,1.3141,0.0531,0.2292,-0.9271,1.202,0.5511,1.634,-0.5292
1.0263,-1.048,1.1869,-0.4707,1.9671,-0.3473,2.6529,0.3806,1.327,-0.0174,0.2242,-0.9327,1.1735,0.5564,1.6113,-0.5268
1.024,-1.0531,1.1812,-0.4738,1.9485,-0.3473,2.6722,0.368,1.3096,-0.0441,0.2088,-0.9297,1.1669,0.5541,1.6095,-0.5319
1.0163,-1.0504,1.1812,-0.4738,1.935,-0.3459,2.6916,0.3554,1.3572,-0.0609,0.197,-0.9256,1.156,0.5579,1.6051,-0.5332
1.0163,-1.0504,1.1812,-0.4738,1.935,-0.3459,2.6916,0.3554,1.3572,-0.0609,0.197,-0.9256,1.156,0.5579,1.6051,-0.5332
1.0163,-1.0504,1.1812,-0.4738,1.935,-0.3459,2.6916,0.3554,1.3572,-0.0609,0.197,-0.9256,1.156,0.5579,1.6051,-0.5332
1.0009,-1.045,1.1755,-0.4769,1.9113,-0.3474,2.6828,0.3527,1.3572,-0.0609,0.1862,-0.9291,1.1494,0.5556,1.5894,-0.5333
1.0009,-1.045,1.1755,-0.4769,1.9113,-0.3474,2.6828,0.3527,1.3572,-0.0609,0.1862,-0.9291,1.1494,0.5556,1.5894,-0.5333
1.0009,-1.045,1.1755,-0.4769,1.9113,-0.3474,2.6828,0.3527,1.3572,-0.0609,0.1862,-0.9291,1.1494,0.5556,1.5894,-0.5333
0.9756,-1.0419,1.1536,-0.4795,1.8854,-0.3547,2.6459,0.36,1.3445,0.0094,0.1672,-0.9273,1.1537,0.5494,1.578,-0.5321
0.948,-1.0438,1.1573,-0.4961,1.8595,-0.362,2.6231,0.3623,1.3141,0.0531,0.1482,-0.9255,1.1537,0.5494,1.5597,-0.5284
0.948,-1.0438,1.1573,-0.4961,1.8595,-0.362,2.6231,0.3623,1.3141,0.0531,0.1482,-0.9255,1.1537,0.5494,1.5597,-0.5284
0.9254,-1.0446,1.1563,-0.506,1.8307,-0.3649,2.5916,0.362,1.3141,0.0531,0.1279,-0.9281,1.1471,0.547,1.5466,-0.5323
0.9254,-1.0446,1.1563,-0.506,1.8307,-0.3649,2.5916,0.362,1.3141,0.0531,0.1279,-0.9281,1.1471,0.547,1.5466,-0.5323
0.9029,-1.0454,1.1402,-0.5054,1.8101,-0.3708,2.5688,0.3643,1.3619,0.0363,0.1158,-0.936,1.1296,0.5485,1.5266,-0.5337
0.9029,-1.0454,1.1402,-0.5054,1.8101,-0.3708,2.5688,0.3643,1.3619,0.0363,0.1158,-0.936,1.1296,0.5485,1.5266,-0.5337
0.8831,-1.0501,1.109,-0.4944,1.7784,-0.3694,2.5374,0.3639,1.4098,0.0193,0.0897,-0.9365,1.1079,0.5562,1.5092,-0.5389
0.8831,-1.0501,1.109,-0.4944,1.7784,-0.3694,2.5374,0.3639,1.4098,0.0193,0.0897,-0.9365,1.1079,0.5562,1.5092,-0.5389
0.8606,-1.0509,1.0826,-0.4901,1.763,-0.3738,2.534,0.3536,1.4098,0.0193,0.0695,-0.9391,1.0839,0.5554,1.4962,-0.5427
0.8606,-1.0509,1.0826,-0.4901,1.763,-0.3738,2.534,0.3536,1.4098,0.0193,0.0695,-0.9391,1.0839,0.5554,1.4962,-0.5427
0.8606,-1.0509,1.0826,-0.4901,1.763,-0.3738,2.534,0.3536,1.4098,0.0193,0.0695,-0.9391,1.0839,0.5554,1.4962,-0.5427
0.8458,-1.0545,1.0666,-0.4896,1.7426,-0.3796,2.5026,0.3532,1.3794,0.0632,0.0399,-0.9408,1.0708,0.5506,1.4858,-0.5503
0.8458,-1.0545,1.0666,-0.4896,1.7426,-0.3796,2.5026,0.3532,1.3794,0.0632,0.0399,-0.9408,1.0708,0.5506,1.4858,-0.5503
0.8458,-1.0545,1.0666,-0.4896,1.7426,-0.3796,2.5026,0.3532,1.3794,0.0632,0.0399,-0.9408,1.0708,0.5506,1.4858,-0.5503
0.801,-1.0561,1.0392,-0.4952,1.6987,-0.387,2.4627,0.3502,1.2837,0.097,0.0005,-0.9537,1.0423,0.5327,1.4278,-0.5495
0.801,-1.0561,1.0392,-0.4952,1.6987,-0.387,2.4627,0.3502,1.2837,0.097,0.0005,-0.9537,1.0423,0.5327,1.4278,-0.5495
0.784,-1.0646,1.0176,-0.4977,1.6672,-0.3856,2.4402,0.3524,1.2017,0.0598,-0.0209,-0.9607,1.0269,0.5195,1.3941,-0.5461
0.784,-1.0646,1.0176,-0.4977,1.6672,-0.3856,2.4402,0.3524,1.2017,0.0598,-0.0209,-0.9607,1.0269,0.5195,1.3941,-0.5461
0.784,-1.0646,1.0176,-0.4977,1.6672,-0.3856,2.4402,0.3524,1.2017,0.0598,-0.0209,-0.9607,1.0269,0.5195,1.3941,-0.5461
0.7742,-1.067,1.0017,-0.4972,1.6349,-0.3742,2.4177,0.3547,1.1373,0.0497,-0.0423,-0.9677,1.0031,0.5186,1.37,-0.5488
0.7742,-1.067,1.0017,-0.4972,1.6349,-0.3742,2.4177,0.3547,1.1373,0.0497,-0.0423,-0.9677,1.0031,0.5186,1.37,-0.5488
0.7845,-1.0735,0.997,-0.4904,1.6289,-0.3656,2.4177,0.3547,1.1675,0.0062,-0.0587,-0.9691,0.9858,0.5201,1.3503,-0.5503
0.7845,-1.0735,0.997,-0.4904,1.6289,-0.3656,2.4177,0.3547,1.1675,0.0062,-0.0587,-0.9691,0.9858,0.5201,1.3503,-0.5503
0.7845,-1.0735,0.997,-0.4904,1.6289,-0.3656,2.4177,0.3547,1.1675,0.0062,-0.0587,-0.9691,0.9858,0.5201,1.3503,-0.5503
0.8561,-1.061,1.0309,-0.4718,1.7134,-0.3464,2.5113,0.3559,1.2795,-0.0006,-0.0298,-0.9478,1.0161,0.5233,1.3606,-0.5427
0.8561,-1.061,1.0309,-0.4718,1.7134,-0.3464,2.5113,0.3559,1.2795,-0.0006,-0.0298,-0.9478,1.0161,0.5233,1.3606,-0.5427
0.8561,-1.061,1.0309,-0.4718,1.7134,-0.3464,2.5113,0.3559,1.2795,-0.0006,-0.0298,-0.9478,1.0161,0.5233,1.3606,-0.5427
0.9205,-1.0458,1.0856,-0.4605,1.7912,-0.3345,2.6056,0.357,1.2795,-0.0006,0.018,-0.9282,1.0531,0.5289,1.4071,-0.5422
0.9205,-1.0458,1.0856,-0.4605,1.7912,-0.3345,2.6056,0.357,1.2795,-0.0006,0.018,-0.9282,1.0531,0.5289,1.4071,-0.5422
0.9775,-1.0279,1.1452,-0.456,1.8724,-0.327,2.6722,0.368,1.327,-0.0174,0.0834,-0.9148,1.0902,0.5344,1.4641,-0.5342
0.9775,-1.0279,1.1452,-0.456,1.8724,-0.327,2.6722,0.368,1.327,-0.0174,0.0834,-0.9148,1.0902,0.5344,1.4641,-0.5342
1.0247,-1.0123,1.1947,-0.4478,1.9407,-0.3182,2.7304,0.3763,1.3141,0.0531,0.1551,-0.9034,1.1405,0.5447,1.5284,-0.5287
1.0648,-1.0029,1.2433,-0.4496,1.9853,-0.3108,2.7605,0.3946,1.3141,0.0531,0.2126,-0.8967,1.1865,0.5378,1.5702,-0.5208
1.0648,-1.0029,1.2433,-0.4496,1.9853,-0.3108,2.7605,0.3946,1.3141,0.0531,0.2126,-0.8967,1.1865,0.5378,1.5702,-0.5208
1.0876,-1.0021,1.2805,-0.4576,2.0093,-0.3093,2.7587,0.4126,1.3315,0.0801,0.2593,-0.8936,1.2282,0.5371,1.6078,-0.5143
1.0876,-1.0021,1.2805,-0.4576,2.0093,-0.3093,2.7587,0.4126,1.3315,0.0801,0.2593,-0.8936,1.2282,0.5371,1.6078,-0.5143
1.0976,-0.9997,1.312,-0.4687,2.0167,-0.302,2.7675,0.4153,1.3315,0.0801,0.299,-0.8928,1.2415,0.5418,1.6271,-0.5041
1.0976,-0.9997,1.312,-0.4687,2.0167,-0.302,2.7675,0.4153,1.3315,0.0801,0.299,-0.8928,1.2415,0.5418,1.6271,-0.5041
1.1104,-1.0013,1.3283,-0.4693,2.0302,-0.3034,2.7764,0.418,1.3794,0.0632,0.3159,-0.8914,1.2395,0.5566,1.6473,-0.5027
1.1104,-1.0013,1.3283,-0.4693,2.0302,-0.3034,2.7764,0.418,1.3794,0.0632,0.3159,-0.8914,1.2395,0.5566,1.6473,-0.5027
1.1182,-1.004,1.3084,-0.4519,2.0219,-0.3005,2.7906,0.4129,1.3968,0.0903,0.3314,-0.8944,1.2309,0.5691,1.6561,-0.5001
1.1182,-1.004,1.3084,-0.4519,2.0219,-0.3005,2.7906,0.4129,1.3968,0.0903,0.3314,-0.8944,1.2309,0.5691,1.6561,-0.5001
1.1236,-1.0118,1.2931,-0.4414,2.0197,-0.3064,2.7959,0.4053,1.5236,0.0123,0.3337,-0.8977,1.2199,0.5729,1.6631,-0.5026
1.1186,-1.013,1.2931,-0.4414,2.0093,-0.3093,2.8013,0.3976,1.5108,0.0833,0.33,-0.8989,1.209,0.5768,1.6727,-0.5088
1.1186,-1.013,1.2931,-0.4414,2.0093,-0.3093,2.8013,0.3976,1.5108,0.0833,0.33,-0.8989,1.209,0.5768,1.6727,-0.5088
1.1186,-1.013,1.2931,-0.4414,2.0093,-0.3093,2.8013,0.3976,1.5108,0.0833,0.33,-0.8989,1.209,0.5768,1.6727,-0.5088
1.0957,-1.0138,1.2768,-0.4408,1.9936,-0.3137,2.7835,0.3922,1.4801,0.1276,0.3131,-0.9003,1.2023,0.5744,1.671,-0.5139
1.0957,-1.0138,1.2768,-0.4408,1.9936,-0.3137,2.7835,0.3922,1.4801,0.1276,0.3131,-0.9003,1.2023,0.5744,1.671,-0.5139
1.0957,-1.0138,1.2768,-0.4408,1.9936,-0.3137,2.7835,0.3922,1.4801,0.1276,0.3131,-0.9003,1.2023,0.5744,1.671,-0.5139
1.0857,-1.0161,1.2606,-0.4402,1.9892,-0.3254,2.7551,0.4023,1.4185,0.2164,0.2962,-0.9017,1.2067,0.5682,1.6622,-0.5164
1.0857,-1.0161,1.2606,-0.4402,1.9892,-0.3254,2.7551,0.4023,1.4185,0.2164,0.2962,-0.9017,1.2067,0.5682,1.6622,-0.5164
1.0857,-1.0161,1.2606,-0.4402,1.9892,-0.3254,2.7551,0.4023,1.4185,0.2164,0.2962,-0.9017,1.2067,0.5682,1.6622,-0.5164
1.0683,-1.0247,1.2538,-0.4533,1.9602,-0.3284,2.7233,0.4019,1.3662,0.1344,0.2597,-0.9134,1.1779,0.5502,1.6122,-0.513
1.0683,-1.0247,1.2538,-0.4533,1.9602,-0.3284,2.7233,0.4019,1.3662,0.1344,0.2597,-0.9134,1.1779,0.5502,1.6122,-0.513
1.0687,-1.0337,1.2527,-0.4632,1.9385,-0.324,2.7004,0.4043,1.3794,0.0632,0.2533,-0.9234,1.1646,0.5455,1.5947,-0.5181
1.0687,-1.0337,1.2527,-0.4632,1.9385,-0.324,2.7004,0.4043,1.3794,0.0632,0.2533,-0.9234,1.1646,0.5455,1.5947,-0.5181
1.0613,-1.0399,1.2365,-0.4626,1.9147,-0.3255,2.688,0.3913,1.4098,0.0193,0.2401,-0.9236,1.158,0.5432,1.579,-0.5183
1.0613,-1.0399,1.2365,-0.4626,1.9147,-0.3255,2.688,0.3913,1.4098,0.0193,0.2401,-0.9236,1.158,0.5432,1.579,-0.5183
1.0486,-1.0383,1.2308,-0.4657,1.8961,-0.3255,2.7075,0.3786,1.4273,0.0463,0.2342,-0.9216,1.1537,0.5494,1.5702,-0.5208
1.0486,-1.0383,1.2308,-0.4657,1.8961,-0.3255,2.7075,0.3786,1.4273,0.0463,0.2342,-0.9216,1.1537,0.5494,1.5702,-0.5208
1.0409,-1.0356,1.2308,-0.4657,1.8858,-0.3285,2.6986,0.376,1.3794,0.0632,0.2188,-0.9186,1.1428,0.5532,1.5685,-0.5259
1.0409,-1.0356,1.2308,-0.4657,1.8858,-0.3285,2.6986,0.376,1.3794,0.0632,0.2188,-0.9186,1.1428,0.5532,1.5685,-0.5259
1.0178,-1.0274,1.2297,-0.4756,1.8672,-0.3285,2.6986,0.376,1.3968,0.0903,0.2152,-0.9197,1.1537,0.5494,1.5641,-0.5272
1.0178,-1.0274,1.2297,-0.4756,1.8672,-0.3285,2.6986,0.376,1.3968,0.0903,0.2152,-0.9197,1.1537,0.5494,1.5641,-0.5272
1.0028,-1.031,1.2183,-0.4818,1.8435,-0.33,2.6617,0.3833,1.3489,0.1072,0.1962,-0.9179,1.1537,0.5494,1.5554,-0.5297
0.9802,-1.0318,1.2172,-0.4917,1.8229,-0.3359,2.6441,0.3779,1.3968,0.0903,0.1831,-0.9182,1.158,0.5432,1.5466,-0.5323
0.9802,-1.0318,1.2172,-0.4917,1.8229,-0.3359,2.6441,0.3779,1.3968,0.0903,0.1831,-0.9182,1.158,0.5432,1.5466,-0.5323
0.9802,-1.0318,1.2172,-0.4917,1.8229,-0.3359,2.6441,0.3779,1.3968,0.0903,0.1831,-0.9182,1.158,0.5432,1.5466,-0.5323
0.9702,-1.0341,1.2125,-0.4849,1.8126,-0.3388,2.6213,0.3802,1.3794,0.0632,0.1744,-0.9249,1.1471,0.547,1.531,-0.5324
0.9702,-1.0341,1.2125,-0.4849,1.8126,-0.3388,2.6213,0.3802,1.3794,0.0632,0.1744,-0.9249,1.1471,0.547,1.531,-0.5324
0.9552,-1.0376,1.1916,-0.4775,1.789,-0.3403,2.6038,0.3749,1.3968,0.0903,0.1555,-0.9231,1.1362,0.5509,1.5127,-0.5288
0.9552,-1.0376,1.1916,-0.4775,1.789,-0.3403,2.6038,0.3749,1.3968,0.0903,0.1555,-0.9231,1.1362,0.5509,1.5127,-0.5288
0.9327,-1.0384,1.1651,-0.4732,1.7685,-0.3462,2.5863,0.3696,1.4578,0.0024,0.1316,-0.9269,1.1122,0.55,1.4884,-0.5315
0.9205,-1.0458,1.1338,-0.4622,1.745,-0.3477,2.5828,0.3593,1.4578,0.0024,0.1135,-0.9327,1.0947,0.5515,1.4754,-0.5354
0.9205,-1.0458,1.1338,-0.4622,1.745,-0.3477,2.5828,0.3593,1.4578,0.0024,0.1135,-0.9327,1.0947,0.5515,1.4754,-0.5354
0.8979,-1.0466,1.112,-0.4648,1.7327,-0.3565,2.5654,0.354,1.3662,0.1344,0.0933,-0.9354,1.0882,0.5492,1.4667,-0.538
0.8979,-1.0466,1.112,-0.4648,1.7327,-0.3565,2.5654,0.354,1.3662,0.1344,0.0933,-0.9354,1.0882,0.5492,1.4667,-0.538
0.8979,-1.0466,1.112,-0.4648,1.7327,-0.3565,2.5654,0.354,1.3662,0.1344,0.0933,-0.9354,1.0882,0.5492,1.4667,-0.538
0.8755,-1.0474,1.0903,-0.4673,1.7122,-0.3623,2.5479,0.3487,1.301,0.1241,0.0578,-0.935,1.0685,0.5421,1.4399,-0.5369
0.8755,-1.0474,1.0903,-0.4673,1.7122,-0.3623,2.5479,0.3487,1.301,0.1241,0.0578,-0.935,1.0685,0.5421,1.4399,-0.5369
0.8755,-1.0474,1.0903,-0.4673,1.7122,-0.3623,2.5479,0.3487,1.301,0.1241,0.0578,-0.935,1.0685,0.5421,1.4399,-0.5369
0.853,-1.0482,1.0685,-0.4698,1.6807,-0.361,2.5113,0.3559,1.236,0.1139,0.0385,-0.9452,1.038,0.5389,1.4157,-0.5396
0.8409,-1.0556,1.0619,-0.4828,1.6493,-0.3597,2.494,0.3506,1.1714,0.1036,0.0171,-0.9522,1.0141,0.538,1.3847,-0.5399
0.8337,-1.0618,1.0459,-0.4822,1.6149,-0.3541,2.4853,0.3479,1.2017,0.0598,-0.0088,-0.9528,1.0011,0.5333,1.3606,-0.5427
0.8337,-1.0618,1.0459,-0.4822,1.6149,-0.3541,2.4853,0.3479,1.2017,0.0598,-0.0088,-0.9528,1.0011,0.5333,1.3606,-0.5427
0.8337,-1.0618,1.0459,-0.4822,1.6149,-0.3541,2.4853,0.3479,1.2017,0.0598,-0.0088,-0.9528,1.0011,0.5333,1.3606,-0.5427
0.8037,-1.06,1.0242,-0.4848,1.5896,-0.3614,2.4819,0.3377,1.2492,0.0431,-0.0369,-0.9502,0.9837,0.5348,1.3477,-0.5465
0.8037,-1.06,1.0242,-0.4848,1.5896,-0.3614,2.4819,0.3377,1.2492,0.0431,-0.0369,-0.9502,0.9837,0.5348,1.3477,-0.5465
0.7809,-1.0519,1.0083,-0.4842,1.5714,-0.3615,2.4819,0.3377,1.232,0.0162,-0.0627,-0.9508,0.9599,0.5339,1.3236,-0.5493
0.7809,-1.0519,1.0083,-0.4842,1.5714,-0.3615,2.4819,0.3377,1.232,0.0162,-0.0627,-0.9508,0.9599,0.5339,1.3236,-0.5493
0.7809,-1.0519,1.0083,-0.4842,1.5714,-0.3615,2.4819,0.3377,1.232,0.0162,-0.0627,-0.9508,0.9599,0.5339,1.3236,-0.5493
0.7684,-1.0504,1.0026,-0.4873,1.5663,-0.363,2.4732,0.335,1.232,0.0162,-0.0756,-0.951,0.9642,0.5277,1.3056,-0.5457
0.7684,-1.0504,1.0026,-0.4873,1.5663,-0.363,2.4732,0.335,1.232,0.0162,-0.0756,-0.951,0.9642,0.5277,1.3056,-0.5457
0.8328,-1.044,1.0666,-0.4896,1.6373,-0.3424,2.4921,0.3684,1.2148,-0.0105,-0.0578,-0.9452,0.9923,0.5224,1.3005,-0.5383
0.8328,-1.044,1.0666,-0.4896,1.6373,-0.3424,2.4921,0.3684,1.2148,-0.0105,-0.0578,-0.9452,0.9923,0.5224,1.3005,-0.5383
0.8328,-1.044,1.0666,-0.4896,1.6373,-0.3424,2.4921,0.3684,1.2148,-0.0105,-0.0578,-0.9452,0.9923,0.5224,1.3005,-0.5383
0.8899,-1.035,1.1157,-0.4814,1.7014,-0.3291,2.5356,0.3818,1.2622,-0.0273,-0.0012,-0.9385,1.0141,0.538,1.3305,-0.5292
0.8899,-1.035,1.1157,-0.4814,1.7014,-0.3291,2.5356,0.3818,1.2622,-0.0273,-0.0012,-0.9385,1.0141,0.538,1.3305,-0.5292
0.8899,-1.035,1.1157,-0.4814,1.7014,-0.3291,2.5356,0.3818,1.2622,-0.0273,-0.0012,-0.9385,1.0141,0.538,1.3305,-0.5292
0.9548,-1.0287,1.1604,-0.4665,1.7658,-0.3157,2.5879,0.3978,1.3572,-0.0609,0.0641,-0.925,1.0468,0.5498,1.3717,-0.5213
0.9548,-1.0287,1.1604,-0.4665,1.7658,-0.3157,2.5879,0.3978,1.3572,-0.0609,0.0641,-0.925,1.0468,0.5498,1.3717,-0.5213
0.9548,-1.0287,1.1604,-0.4665,1.7658,-0.3157,2.5879,0.3978,1.3572,-0.0609,0.0641,-0.925,1.0468,0.5498,1.3717,-0.5213
1.037,-1.0048,1.2338,-0.4359,1.8667,-0.292,2.695,0.4119,1.4881,-0.0413,0.1958,-0.8982,1.1059,0.571,1.4676,-0.5016
1.037,-1.0048,1.2338,-0.4359,1.8667,-0.292,2.695,0.4119,1.4881,-0.0413,0.1958,-0.8982,1.1059,0.571,1.4676,-0.5016
1.0671,-0.9978,1.2569,-0.4234,1.909,-0.2904,2.7498,0.4099,1.4754,0.0293,0.2344,-0.8897,1.1147,0.5819,1.5215,-0.5036
1.0671,-0.9978,1.2569,-0.4234,1.909,-0.2904,2.7498,0.4099,1.4754,0.0293,0.2344,-0.8897,1.1147,0.5819,1.5215,-0.5036
1.0872,-0.9931,1.2789,-0.4209,1.9411,-0.2918,2.7959,0.4053,1.3662,0.1344,0.2644,-0.888,1.1388,0.5828,1.5459,-0.5009
1.0872,-0.9931,1.2789,-0.4209,1.9411,-0.2918,2.7959,0.4053,1.3662,0.1344,0.2644,-0.888,1.1388,0.5828,1.5459,-0.5009
1.0922,-0.9919,1.2999,-0.4283,1.9545,-0.2933,2.8048,0.4079,1.3662,0.1344,0.2812,-0.8866,1.1497,0.5789,1.5633,-0.4957
1.0922,-0.9919,1.2999,-0.4283,1.9545,-0.2933,2.8048,0.4079,1.3662,0.1344,0.2812,-0.8866,1.1497,0.5789,1.5633,-0.4957
1.0922,-0.9919,1.2999,-0.4283,1.9545,-0.2933,2.8048,0.4079,1.3662,0.1344,0.2812,-0.8866,1.1497,0.5789,1.5633,-0.4957
1.0872,-0.9931,1.2999,-0.4283,1.9432,-0.286,2.8102,0.4002,1.3315,0.0801,0.2858,-0.8931,1.1517,0.5642,1.559,-0.497
1.0872,-0.9931,1.2999,-0.4283,1.9432,-0.286,2.8102,0.4002,1.3315,0.0801,0.2858,-0.8931,1.1517,0.5642,1.559,-0.497
1.0926,-1.0009,1.2941,-0.4315,1.9215,-0.2816,2.8013,0.3976,1.2665,0.07,0.2925,-0.9029,1.1451,0.5618,1.5476,-0.4958
1.0926,-1.0009,1.2941,-0.4315,1.9215,-0.2816,2.8013,0.3976,1.2665,0.07,0.2925,-0.9029,1.1451,0.5618,1.5476,-0.4958
1.0756,-1.0185,1.2606,-0.4402,1.8719,-0.2905,2.7605,0.3946,1.3619,0.0363,0.2602,-0.9013,1.1451,0.5618,1.5206,-0.4948
1.0756,-1.0185,1.2606,-0.4402,1.8719,-0.2905,2.7605,0.3946,1.3619,0.0363,0.2602,-0.9013,1.1451,0.5618,1.5206,-0.4948
1.0756,-1.0185,1.2606,-0.4402,1.8719,-0.2905,2.7605,0.3946,1.3619,0.0363,0.2602,-0.9013,1.1451,0.5618,1.5206,-0.4948
1.0579,-1.0181,1.2548,-0.4433,1.8594,-0.2994,2.7658,0.3869,1.3445,0.0094,0.2316,-0.8985,1.1276,0.5633,1.4937,-0.4938
1.0579,-1.0181,1.2548,-0.4433,1.8594,-0.2994,2.7658,0.3869,1.3445,0.0094,0.2316,-0.8985,1.1276,0.5633,1.4937,-0.4938
1.0579,-1.0181,1.2548,-0.4433,1.8594,-0.2994,2.7658,0.3869,1.3445,0.0094,0.2316,-0.8985,1.1276,0.5633,1.4937,-0.4938
1.0324,-1.015,1.2386,-0.4427,1.8469,-0.3082,2.7622,0.3766,1.3619,0.0363,0.2126,-0.8967,1.1319,0.5571,1.485,-0.4964
1.0324,-1.015,1.2386,-0.4427,1.8469,-0.3082,2.7622,0.3766,1.3619,0.0363,0.2126,-0.8967,1.1319,0.5571,1.485,-0.4964
1.0324,-1.015,1.2386,-0.4427,1.8469,-0.3082,2.7622,0.3766,1.3619,0.0363,0.2126,-0.8967,1.1319,0.5571,1.485,-0.4964
0.9843,-1.0127,1.226,-0.4589,1.8078,-0.3141,2.7022,0.3863,1.3794,0.0632,0.1849,-0.9017,1.1362,0.5509,1.4676,-0.5016
0.9843,-1.0127,1.226,-0.4589,1.8078,-0.3141,2.7022,0.3863,1.3794,0.0632,0.1849,-0.9017,1.1362,0.5509,1.4676,-0.5016
0.9694,-1.0162,1.225,-0.4688,1.7894,-0.3142,2.6704,0.3859,1.3794,0.0632,0.1799,-0.9073,1.1405,0.5447,1.4633,-0.5029
0.9694,-1.0162,1.225,-0.4688,1.7894,-0.3142,2.6704,0.3859,1.3794,0.0632,0.1799,-0.9073,1.1405,0.5447,1.4633,-0.5029
0.9644,-1.0174,1.225,-0.4688,1.7761,-0.3128,2.6617,0.3833,1.3794,0.0632,0.1727,-0.9096,1.1253,0.5547,1.452,-0.5017
0.9644,-1.0174,1.225,-0.4688,1.7761,-0.3128,2.6617,0.3833,1.3794,0.0632,0.1727,-0.9096,1.1253,0.5547,1.452,-0.5017
0.9644,-1.0174,1.225,-0.4688,1.7761,-0.3128,2.6617,0.3833,1.3794,0.0632,0.1727,-0.9096,1.1253,0.5547,1.452,-0.5017
0.9544,-1.0197,1.225,-0.4688,1.7658,-0.3157,2.6476,0.3882,1.4273,0.0463,0.1713,-0.914,1.1036,0.5624,1.4451,-0.4993
0.9468,-1.017,1.2099,-0.4583,1.7607,-0.3172,2.6476,0.3882,1.4754,0.0293,0.1582,-0.9143,1.0927,0.5663,1.4408,-0.5006
0.9368,-1.0194,1.1937,-0.4577,1.7423,-0.3173,2.6247,0.3905,1.3968,0.0903,0.151,-0.9166,1.0644,0.5716,1.446,-0.508
0.9368,-1.0194,1.1937,-0.4577,1.7423,-0.3173,2.6247,0.3905,1.3968,0.0903,0.151,-0.9166,1.0644,0.5716,1.446,-0.508
0.9368,-1.0194,1.1937,-0.4577,1.7423,-0.3173,2.6247,0.3905,1.3968,0.0903,0.151,-0.9166,1.0644,0.5716,1.446,-0.508
0.9269,-1.0217,1.1822,-0.4639,1.7351,-0.3246,2.616,0.3879,1.3662,0.1344,0.1343,-0.9181,1.0579,0.5692,1.4347,-0.5069
0.9269,-1.0217,1.1822,-0.4639,1.7351,-0.3246,2.616,0.3879,1.3662,0.1344,0.1343,-0.9181,1.0579,0.5692,1.4347,-0.5069
0.9269,-1.0217,1.1822,-0.4639,1.7351,-0.3246,2.616,0.3879,1.3662,0.1344,0.1343,-0.9181,1.0579,0.5692,1.4347,-0.5069
0.9169,-1.0241,1.1604,-0.4665,1.7116,-0.3261,2.6072,0.3852,1.3183,0.1513,0.1176,-0.9195,1.0513,0.5669,1.4166,-0.5033
0.9097,-1.0303,1.1489,-0.4727,1.6851,-0.3233,2.5897,0.3799,1.2532,0.141,0.1032,-0.9242,1.0425,0.5559,1.3872,-0.4986
0.9097,-1.0303,1.1489,-0.4727,1.6851,-0.3233,2.5897,0.3799,1.2532,0.141,0.1032,-0.9242,1.0425,0.5559,1.3872,-0.4986
0.9047,-1.0315,1.1432,-0.4758,1.6669,-0.3234,2.581,0.3772,1.236,0.1139,0.083,-0.9268,1.0294,0.5512,1.3717,-0.4987
0.9047,-1.0315,1.1432,-0.4758,1.6669,-0.3234,2.581,0.3772,1.236,0.1139,0.083,-0.9268,1.0294,0.5512,1.3717,-0.4987
0.9047,-1.0315,1.1432,-0.4758,1.6669,-0.3234,2.581,0.3772,1.236,0.1139,0.083,-0.9268,1.0294,0.5512,1.3717,-0.4987
0.8899,-1.035,1.1271,-0.4752,1.6354,-0.3221,2.5775,0.3669,1.2665,0.07,0.0605,-0.9262,1.0229,0.5489,1.3519,-0.5002
0.8899,-1.035,1.1271,-0.4752,1.6354,-0.3221,2.5775,0.3669,1.2665,0.07,0.0605,-0.9262,1.0229,0.5489,1.3519,-0.5002
0.8899,-1.035,1.1271,-0.4752,1.6354,-0.3221,2.5775,0.3669,1.2665,0.07,0.0605,-0.9262,1.0229,0.5489,1.3519,-0.5002
0.8347,-1.0301,1.0987,-0.4907,1.5736,-0.3297,2.5287,0.3612,1.2665,0.07,0.018,-0.9282,1.0098,0.5442,1.3124,-0.5031
0.8347,-1.0301,1.0987,-0.4907,1.5736,-0.3297,2.5287,0.3612,1.2665,0.07,0.018,-0.9282,1.0098,0.5442,1.3124,-0.5031
0.8347,-1.0301,1.0987,-0.4907,1.5736,-0.3297,2.5287,0.3612,1.2665,0.07,0.018,-0.9282,1.0098,0.5442,1.3124,-0.5031
0.7676,-1.0326,1.0599,-0.5025,1.5101,-0.3431,2.4609,0.368,1.2189,0.0868,-0.0258,-0.9347,1.0053,0.5271,1.2756,-0.5098
0.7676,-1.0326,1.0599,-0.5025,1.5101,-0.3431,2.4609,0.368,1.2189,0.0868,-0.0258,-0.9347,1.0053,0.5271,1.2756,-0.5098
0.743,-1.0385,1.0383,-0.505,1.477,-0.3477,2.4072,0.3698,1.2492,0.0431,-0.0414,-0.9437,0.9837,0.5348,1.2491,-0.5089
0.743,-1.0385,1.0383,-0.505,1.477,-0.3477,2.4072,0.3698,1.2492,0.0431,-0.0414,-0.9437,0.9837,0.5348,1.2491,-0.5089
0.743,-1.0385,1.0383,-0.505,1.477,-0.3477,2.4072,0.3698,1.2492,0.0431,-0.0414,-0.9437,0.9837,0.5348,1.2491,-0.5089
0.7257,-1.0382,1.0233,-0.4946,1.464,-0.3463,2.4124,0.3622,1.2492,0.0431,-0.0672,-0.9443,0.9664,0.5362,1.2226,-0.508
0.7257,-1.0382,1.0233,-0.4946,1.464,-0.3463,2.4124,0.3622,1.2492,0.0431,-0.0672,-0.9443,0.9664,0.5362,1.2226,-0.508
0.723,-1.0344,1.013,-0.491,1.469,-0.3449,2.4124,0.3622,1.2492,0.0431,-0.0894,-0.9438,0.9492,0.5377,1.2167,-0.5143
0.723,-1.0344,1.013,-0.491,1.469,-0.3449,2.4124,0.3622,1.2492,0.0431,-0.0894,-0.9438,0.9492,0.5377,1.2167,-0.5143
0.7551,-1.0311,1.0196,-0.478,1.5122,-0.3373,2.4435,0.3627,1.2189,0.0868,-0.0823,-0.9414,0.9557,0.54,1.2278,-0.5154
0.7551,-1.0311,1.0196,-0.478,1.5122,-0.3373,2.4435,0.3627,1.2189,0.0868,-0.0823,-0.9414,0.9557,0.54,1.2278,-0.5154
0.7944,-1.0217,1.0572,-0.476,1.5787,-0.3282,2.4834,0.3657,1.1579,0.1747,-0.0538,-0.932,0.9795,0.5409,1.2448,-0.5102
0.8562,-1.0114,1.1016,-0.4611,1.6608,-0.3147,2.5443,0.3844,1.141,0.1474,-0.003,-0.9232,1.0033,0.5418,1.2747,-0.5011
0.8562,-1.0114,1.1016,-0.4611,1.6608,-0.3147,2.5443,0.3844,1.141,0.1474,-0.003,-0.9232,1.0033,0.5418,1.2747,-0.5011
0.8562,-1.0114,1.1016,-0.4611,1.6608,-0.3147,2.5443,0.3844,1.141,0.1474,-0.003,-0.9232,1.0033,0.5418,1.2747,-0.5011
0.926,-1.0038,1.1557,-0.4597,1.7221,-0.297,2.6019,0.3928,1.141,0.1474,0.0646,-0.913,1.0294,0.5512,1.3106,-0.4856
0.926,-1.0038,1.1557,-0.4597,1.7221,-0.297,2.6019,0.3928,1.141,0.1474,0.0646,-0.913,1.0294,0.5512,1.3106,-0.4856
0.926,-1.0038,1.1557,-0.4597,1.7221,-0.297,2.6019,0.3928,1.141,0.1474,0.0646,-0.913,1.0294,0.5512,1.3106,-0.4856
0.9835,-0.9948,1.2156,-0.4552,1.7785,-0.2807,2.6739,0.3962,1.1544,0.0766,0.1347,-0.906,1.0599,0.5545,1.3562,-0.4763
0.9835,-0.9948,1.2156,-0.4552,1.7785,-0.2807,2.6739,0.3962,1.1544,0.0766,0.1347,-0.906,1.0599,0.5545,1.3562,-0.4763
0.9835,-0.9948,1.2156,-0.4552,1.7785,-0.2807,2.6739,0.3962,1.1544,0.0766,0.1347,-0.906,1.0599,0.5545,1.3562,-0.4763
1.0613,-0.981,1.2663,-0.4371,1.8239,-0.2571,2.7782,0.3999,1.2968,0.0262,0.2299,-0.8832,1.1102,0.5648,1.4304,-0.4629
1.0613,-0.981,1.2663,-0.4371,1.8239,-0.2571,2.7782,0.3999,1.2968,0.0262,0.2299,-0.8832,1.1102,0.5648,1.4304,-0.4629
1.0787,-0.9723,1.2836,-0.4277,1.8475,-0.2555,2.819,0.4029,1.3923,-0.0075,0.2612,-0.877,1.1299,0.5719,1.4685,-0.465
1.0759,-0.9684,1.2989,-0.4383,1.8506,-0.2599,2.8137,0.4106,1.4273,0.0463,0.2795,-0.8711,1.1649,0.5689,1.4885,-0.4636
1.0759,-0.9684,1.2989,-0.4383,1.8506,-0.2599,2.8137,0.4106,1.4273,0.0463,0.2795,-0.8711,1.1649,0.5689,1.4885,-0.4636
1.0759,-0.9684,1.2989,-0.4383,1.8506,-0.2599,2.8137,0.4106,1.4273,0.0463,0.2795,-0.8711,1.1649,0.5689,1.4885,-0.4636
1.0787,-0.9723,1.3141,-0.4488,1.8372,-0.2585,2.7995,0.4156,1.4098,0.0193,0.2831,-0.87,1.1759,0.565,1.4928,-0.4623
1.0787,-0.9723,1.3141,-0.4488,1.8372,-0.2585,2.7995,0.4156,1.4098,0.0193,0.2831,-0.87,1.1759,0.565,1.4928,-0.4623
1.0763,-0.9774,1.3141,-0.4488,1.8351,-0.2643,2.7853,0.4206,1.4578,0.0024,0.2854,-0.8732,1.1715,0.5712,1.4928,-0.4623
1.0763,-0.9774,1.3141,-0.4488,1.8351,-0.2643,2.7853,0.4206,1.4578,0.0024,0.2854,-0.8732,1.1715,0.5712,1.4928,-0.4623
1.0586,-0.9771,1.3084,-0.4519,1.8196,-0.2688,2.7675,0.4153,1.5058,-0.0146,0.284,-0.8777,1.1563,0.5813,1.4789,-0.4574
1.0586,-0.9771,1.3084,-0.4519,1.8196,-0.2688,2.7675,0.4153,1.5058,-0.0146,0.284,-0.8777,1.1563,0.5813,1.4789,-0.4574
1.0435,-0.9806,1.2873,-0.4445,1.799,-0.2747,2.7498,0.4099,1.5236,0.0123,0.2671,-0.8791,1.1388,0.5828,1.4703,-0.46
1.0435,-0.9806,1.2873,-0.4445,1.799,-0.2747,2.7498,0.4099,1.5236,0.0123,0.2671,-0.8791,1.1388,0.5828,1.4703,-0.46
1.0335,-0.983,1.2816,-0.4476,1.7887,-0.2777,2.7463,0.3996,1.4754,0.0293,0.2526,-0.8838,1.1322,0.5804,1.4616,-0.4626
1.0335,-0.983,1.2816,-0.4476,1.7887,-0.2777,2.7463,0.3996,1.4754,0.0293,0.2526,-0.8838,1.1322,0.5804,1.4616,-0.4626
1.0335,-0.983,1.2816,-0.4476,1.7887,-0.2777,2.7463,0.3996,1.4754,0.0293,0.2526,-0.8838,1.1322,0.5804,1.4616,-0.4626
1.0108,-0.9838,1.2758,-0.4507,1.7845,-0.2894,2.7233,0.4019,1.4449,0.0733,0.2321,-0.8864,1.119,0.5757,1.4529,-0.4652
1.0108,-0.9838,1.2758,-0.4507,1.7845,-0.2894,2.7233,0.4019,1.4449,0.0733,0.2321,-0.8864,1.119,0.5757,1.4529,-0.4652
1.0035,-0.99,1.2643,-0.457,1.7742,-0.2924,2.7057,0.3966,1.3662,0.1344,0.2153,-0.8879,1.1016,0.5772,1.4347,-0.4616
0.9858,-0.9897,1.2585,-0.4601,1.7528,-0.2881,2.6969,0.3939,1.301,0.1241,0.2089,-0.8979,1.1036,0.5624,1.4122,-0.4593
0.9858,-0.9897,1.2585,-0.4601,1.7528,-0.2881,2.6969,0.3939,1.301,0.1241,0.2089,-0.8979,1.1036,0.5624,1.4122,-0.4593
0.9912,-0.9975,1.2527,-0.4632,1.7395,-0.2867,2.688,0.3913,1.236,0.1139,0.198,-0.9014,1.0861,0.5639,1.3923,-0.4608
0.9889,-1.0025,1.247,-0.4663,1.7262,-0.2853,2.6933,0.3836,1.2665,0.07,0.1908,-0.9038,1.0796,0.5615,1.3742,-0.4572
0.9889,-1.0025,1.247,-0.4663,1.7262,-0.2853,2.6933,0.3836,1.2665,0.07,0.1908,-0.9038,1.0796,0.5615,1.3742,-0.4572
0.9889,-1.0025,1.247,-0.4663,1.7262,-0.2853,2.6933,0.3836,1.2665,0.07,0.1908,-0.9038,1.0796,0.5615,1.3742,-0.4572
0.9762,-1.001,1.226,-0.4589,1.716,-0.2883,2.7128,0.371,1.2492,0.0431,0.1754,-0.9008,1.0796,0.5615,1.3656,-0.4598
0.9762,-1.001,1.226,-0.4589,1.716,-0.2883,2.7128,0.371,1.2492,0.0431,0.1754,-0.9008,1.0796,0.5615,1.3656,-0.4598
0.9762,-1.001,1.226,-0.4589,1.716,-0.2883,2.7128,0.371,1.2492,0.0431,0.1754,-0.9008,1.0796,0.5615,1.3656,-0.4598
0.9609,-0.9956,1.2203,-0.462,1.6977,-0.2884,2.7181,0.3633,1.2665,0.07,0.1614,-0.8934,1.0796,0.5615,1.3613,-0.4612
0.9405,-0.9913,1.1994,-0.4546,1.6875,-0.2913,2.7092,0.3607,1.2968,0.0262,0.1483,-0.8937,1.073,0.5592,1.3527,-0.4638
0.9405,-0.9913,1.1994,-0.4546,1.6875,-0.2913,2.7092,0.3607,1.2968,0.0262,0.1483,-0.8937,1.073,0.5592,1.3527,-0.4638
0.9229,-0.991,1.1984,-0.4645,1.6722,-0.2958,2.6898,0.3733,1.2968,0.0262,0.1375,-0.8972,1.0773,0.553,1.3467,-0.4701
0.9229,-0.991,1.1984,-0.4645,1.6722,-0.2958,2.6898,0.3733,1.2968,0.0262,0.1375,-0.8972,1.0773,0.553,1.3467,-0.4701
0.8927,-0.9891,1.1869,-0.4707,1.6437,-0.2988,2.6529,0.3806,1.2968,0.0262,0.1149,-0.8966,1.0816,0.5468,1.3286,-0.4666
0.8927,-0.9891,1.1869,-0.4707,1.6437,-0.2988,2.6529,0.3806,1.2968,0.0262,0.1149,-0.8966,1.0816,0.5468,1.3286,-0.4666
0.8805,-0.9966,1.1755,-0.4769,1.6123,-0.2976,2.616,0.3879,1.2968,0.0262,0.1005,-0.9013,1.0642,0.5483,1.3131,-0.4668
0.8805,-0.9966,1.1755,-0.4769,1.6123,-0.2976,2.616,0.3879,1.2968,0.0262,0.1005,-0.9013,1.0642,0.5483,1.3131,-0.4668
0.8805,-0.9966,1.1755,-0.4769,1.6123,-0.2976,2.616,0.3879,1.2968,0.0262,0.1005,-0.9013,1.0642,0.5483,1.3131,-0.4668
0.8657,-1.0001,1.1594,-0.4764,1.592,-0.3035,2.5985,0.3825,1.3445,0.0094,0.0803,-0.9039,1.0425,0.5559,1.2908,-0.4645
0.8657,-1.0001,1.1594,-0.4764,1.592,-0.3035,2.5985,0.3825,1.3445,0.0094,0.0803,-0.9039,1.0425,0.5559,1.2908,-0.4645
0.8657,-1.0001,1.1594,-0.4764,1.592,-0.3035,2.5985,0.3825,1.3445,0.0094,0.0803,-0.9039,1.0425,0.5559,1.2908,-0.4645
0.8657,-1.0001,1.1594,-0.4764,1.592,-0.3035,2.5985,0.3825,1.3445,0.0094,0.0803,-0.9039,1.0425,0.5559,1.2908,-0.4645
0.8334,-1.0033,1.1167,-0.4715,1.5485,-0.311,2.5583,0.3795,1.3619,0.0363,0.0457,-0.9112,1.0078,0.5589,1.2737,-0.4698
0.8334,-1.0033,1.1167,-0.4715,1.5485,-0.311,2.5583,0.3795,1.3619,0.0363,0.0457,-0.9112,1.0078,0.5589,1.2737,-0.4698
0.8334,-1.0033,1.1167,-0.4715,1.5485,-0.311,2.5583,0.3795,1.3619,0.0363,0.0457,-0.9112,1.0078,0.5589,1.2737,-0.4698
0.8011,-1.0065,1.0789,-0.4735,1.4992,-0.31,2.5182,0.3764,1.2795,-0.0006,0.0005,-0.9221,0.9687,0.5447,1.2275,-0.4703
0.8011,-1.0065,1.0789,-0.4735,1.4992,-0.31,2.5182,0.3764,1.2795,-0.0006,0.0005,-0.9221,0.9687,0.5447,1.2275,-0.4703
0.8011,-1.0065,1.0789,-0.4735,1.4992,-0.31,2.5182,0.3764,1.2795,-0.0006,0.0005,-0.9221,0.9687,0.5447,1.2275,-0.4703
0.7863,-1.0101,1.0572,-0.476,1.4681,-0.3087,2.5008,0.3711,1.232,0.0162,-0.0173,-0.9279,0.9557,0.54,1.2053,-0.4681
0.7863,-1.0101,1.0572,-0.476,1.4681,-0.3087,2.5008,0.3711,1.232,0.0162,-0.0173,-0.9279,0.9557,0.54,1.2053,-0.4681
0.7863,-1.0101,1.0572,-0.476,1.4681,-0.3087,2.5008,0.3711,1.232,0.0162,-0.0173,-0.9279,0.9557,0.54,1.2053,-0.4681
0.7863,-1.0101,1.0572,-0.476,1.4681,-0.3087,2.5008,0.3711,1.232,0.0162,-0.0173,-0.9279,0.9557,0.54,1.2053,-0.4681
0.739,-1.008,1.0242,-0.4848,1.4041,-0.3122,2.48,0.3555,1.1714,0.1036,-0.0654,-0.9279,0.9254,0.5368,1.1619,-0.4725
0.739,-1.008,1.0242,-0.4848,1.4041,-0.3122,2.48,0.3555,1.1714,0.1036,-0.0654,-0.9279,0.9254,0.5368,1.1619,-0.4725
0.739,-1.008,1.0242,-0.4848,1.4041,-0.3122,2.48,0.3555,1.1714,0.1036,-0.0654,-0.9279,0.9254,0.5368,1.1619,-0.4725
0.7065,-1.0023,1.012,-0.5008,1.3911,-0.3108,2.4488,0.3551,1.124,0.1203,-0.1063,-0.9257,0.9404,0.5268,1.122,-0.4668
0.7065,-1.0023,1.012,-0.5008,1.3911,-0.3108,2.4488,0.3551,1.124,0.1203,-0.1063,-0.9257,0.9404,0.5268,1.122,-0.4668
0.7386,-0.9991,1.0392,-0.4952,1.4341,-0.3032,2.4609,0.368,1.1544,0.0766,-0.0957,-0.9221,0.9577,0.5254,1.1288,-0.4692
0.7386,-0.9991,1.0392,-0.4952,1.4341,-0.3032,2.4609,0.368,1.1544,0.0766,-0.0957,-0.9221,0.9577,0.5254,1.1288,-0.4692
0.7386,-0.9991,1.0392,-0.4952,1.4341,-0.3032,2.4609,0.368,1.1544,0.0766,-0.0957,-0.9221,0.9577,0.5254,1.1288,-0.4692
0.7903,-0.9911,1.0779,-0.4834,1.4973,-0.2897,2.5095,0.3738,1.2492,0.0431,-0.0579,-0.9136,0.9687,0.5447,1.1457,-0.4639
0.7903,-0.9911,1.0779,-0.4834,1.4973,-0.2897,2.5095,0.3738,1.2492,0.0431,-0.0579,-0.9136,0.9687,0.5447,1.1457,-0.4639
0.7903,-0.9911,1.0779,-0.4834,1.4973,-0.2897,2.5095,0.3738,1.2492,0.0431,-0.0579,-0.9136,0.9687,0.5447,1.1457,-0.4639
0.9193,-0.9691,1.1832,-0.454,1.6399,-0.2581,2.6476,0.3882,1.3141,0.0531,0.074,-0.8821,1.0491,0.5583,1.259,-0.4561
0.9193,-0.9691,1.1832,-0.454,1.6399,-0.2581,2.6476,0.3882,1.3141,0.0531,0.074,-0.8821,1.0491,0.5583,1.259,-0.4561
0.9718,-0.9612,1.2271,-0.449,1.7102,-0.2532,2.711,0.3889,1.301,0.1241,0.1398,-0.8685,1.0818,0.5701,1.3156,-0.4478
0.9718,-0.9612,1.2271,-0.449,1.7102,-0.2532,2.711,0.3889,1.301,0.1241,0.1398,-0.8685,1.0818,0.5701,1.3156,-0.4478
0.9718,-0.9612,1.2271,-0.449,1.7102,-0.2532,2.711,0.3889,1.301,0.1241,0.1398,-0.8685,1.0818,0.5701,1.3156,-0.4478
1.0145,-0.9556,1.2606,-0.4402,1.7624,-0.2485,2.741,0.4073,1.2837,0.097,0.1972,-0.8618,1.1167,0.5671,1.3543,-0.436
1.0573,-0.95,1.2989,-0.4383,1.8035,-0.2366,2.7906,0.4129,1.236,0.1139,0.244,-0.8586,1.1299,0.5719,1.3844,-0.4268
1.0573,-0.95,1.2989,-0.4383,1.8035,-0.2366,2.7906,0.4129,1.236,0.1139,0.244,-0.8586,1.1299,0.5719,1.3844,-0.4268
1.0852,-0.948,1.3257,-0.4426,1.8189,-0.2321,2.803,0.426,1.2665,0.07,0.2836,-0.8578,1.1431,0.5766,1.4103,-0.4189
1.0852,-0.948,1.3257,-0.4426,1.8189,-0.2321,2.803,0.426,1.2665,0.07,0.2836,-0.8578,1.1431,0.5766,1.4103,-0.4189
1.1108,-0.9511,1.342,-0.4432,1.8293,-0.2291,2.8262,0.4236,1.3141,0.0531,0.3101,-0.8573,1.1497,0.5789,1.4233,-0.415
1.1108,-0.9511,1.342,-0.4432,1.8293,-0.2291,2.8262,0.4236,1.3141,0.0531,0.3101,-0.8573,1.1497,0.5789,1.4233,-0.415
1.1158,-0.9499,1.3526,-0.4469,1.8293,-0.2291,2.8493,0.4213,1.3619,0.0363,0.3166,-0.8472,1.152,0.5875,1.4389,-0.4148
1.1158,-0.9499,1.3526,-0.4469,1.8293,-0.2291,2.8493,0.4213,1.3619,0.0363,0.3166,-0.8472,1.152,0.5875,1.4389,-0.4148
1.1154,-0.9409,1.3584,-0.4438,1.8293,-0.2291,2.8636,0.4162,1.3794,0.0632,0.3239,-0.8448,1.1629,0.5837,1.4545,-0.4146
1.1154,-0.9409,1.3584,-0.4438,1.8293,-0.2291,2.8636,0.4162,1.3794,0.0632,0.3239,-0.8448,1.1629,0.5837,1.4545,-0.4146
1.0976,-0.9405,1.3573,-0.4538,1.8086,-0.2351,2.8493,0.4213,1.3794,0.0632,0.3143,-0.8439,1.1738,0.5798,1.4545,-0.4146
1.0875,-0.9429,1.3621,-0.4606,1.7932,-0.2396,2.8262,0.4236,1.3968,0.0903,0.3129,-0.8484,1.1957,0.5721,1.4545,-0.4146
1.0875,-0.9429,1.3621,-0.4606,1.7932,-0.2396,2.8262,0.4236,1.3968,0.0903,0.3129,-0.8484,1.1957,0.5721,1.4545,-0.4146
1.0875,-0.9429,1.3621,-0.4606,1.7932,-0.2396,2.8262,0.4236,1.3968,0.0903,0.3129,-0.8484,1.1957,0.5721,1.4545,-0.4146
1.0674,-0.9476,1.3563,-0.4637,1.7645,-0.2427,2.7942,0.4233,1.4273,0.0463,0.3005,-0.8564,1.1825,0.5674,1.4346,-0.4161
1.0674,-0.9476,1.3563,-0.4637,1.7645,-0.2427,2.7942,0.4233,1.4273,0.0463,0.3005,-0.8564,1.1825,0.5674,1.4346,-0.4161
1.0674,-0.9476,1.3563,-0.4637,1.7645,-0.2427,2.7942,0.4233,1.4273,0.0463,0.3005,-0.8564,1.1825,0.5674,1.4346,-0.4161
1.0573,-0.95,1.3457,-0.46,1.7572,-0.25,2.7853,0.4206,1.5058,-0.0146,0.2823,-0.8622,1.1715,0.5712,1.419,-0.4163
1.0573,-0.95,1.3457,-0.46,1.7572,-0.25,2.7853,0.4206,1.5058,-0.0146,0.2823,-0.8622,1.1715,0.5712,1.419,-0.4163
1.0423,-0.9536,1.3294,-0.4594,1.7418,-0.2545,2.7675,0.4153,1.4754,0.0293,0.2677,-0.867,1.1497,0.5789,1.413,-0.4227
1.0423,-0.9536,1.3294,-0.4594,1.7418,-0.2545,2.7675,0.4153,1.4754,0.0293,0.2677,-0.867,1.1497,0.5789,1.413,-0.4227
1.0295,-0.952,1.3189,-0.4557,1.7479,-0.2633,2.7729,0.4076,1.4449,0.0733,0.259,-0.8738,1.1431,0.5766,1.4043,-0.4253
1.0172,-0.9595,1.3073,-0.4619,1.7325,-0.2677,2.7605,0.3946,1.3489,0.1072,0.2444,-0.8785,1.1342,0.5656,1.3887,-0.4255
1.0172,-0.9595,1.3073,-0.4619,1.7325,-0.2677,2.7605,0.3946,1.3489,0.1072,0.2444,-0.8785,1.1342,0.5656,1.3887,-0.4255
1.0249,-0.9622,1.3073,-0.4619,1.7325,-0.2677,2.7605,0.3946,1.3619,0.0363,0.2394,-0.8841,1.121,0.5609,1.3732,-0.4257
1.0249,-0.9622,1.3073,-0.4619,1.7325,-0.2677,2.7605,0.3946,1.3619,0.0363,0.2394,-0.8841,1.121,0.5609,1.3732,-0.4257
1.0227,-0.9673,1.291,-0.4613,1.7193,-0.2663,2.78,0.3819,1.2968,0.0262,0.2321,-0.8864,1.1079,0.5562,1.3577,-0.4259
1.0227,-0.9673,1.291,-0.4613,1.7193,-0.2663,2.78,0.3819,1.2968,0.0262,0.2321,-0.8864,1.1079,0.5562,1.3577,-0.4259
1.0227,-0.9673,1.291,-0.4613,1.7193,-0.2663,2.78,0.3819,1.2968,0.0262,0.2321,-0.8864,1.1079,0.5562,1.3577,-0.4259
1.0149,-0.9646,1.2853,-0.4644,1.7009,-0.2664,2.7711,0.3793,1.327,-0.0174,0.2167,-0.8834,1.1013,0.5539,1.3491,-0.4285
1.0149,-0.9646,1.2853,-0.4644,1.7009,-0.2664,2.7711,0.3793,1.327,-0.0174,0.2167,-0.8834,1.1013,0.5539,1.3491,-0.4285
1.0149,-0.9646,1.2853,-0.4644,1.7009,-0.2664,2.7711,0.3793,1.327,-0.0174,0.2167,-0.8834,1.1013,0.5539,1.3491,-0.4285
0.9696,-0.9663,1.2459,-0.4762,1.649,-0.2711,2.7163,0.3813,1.327,-0.0174,0.1881,-0.8807,1.1122,0.55,1.3379,-0.4274
0.9519,-0.9659,1.2402,-0.4793,1.6337,-0.2756,2.7075,0.3786,1.327,-0.0174,0.1714,-0.8822,1.1013,0.5539,1.3224,-0.4276
0.9519,-0.9659,1.2402,-0.4793,1.6337,-0.2756,2.7075,0.3786,1.327,-0.0174,0.1714,-0.8822,1.1013,0.5539,1.3224,-0.4276
0.9519,-0.9659,1.2402,-0.4793,1.6337,-0.2756,2.7075,0.3786,1.327,-0.0174,0.1714,-0.8822,1.1013,0.5539,1.3224,-0.4276
0.9343,-0.9656,1.224,-0.4787,1.6104,-0.2772,2.6845,0.381,1.327,-0.0174,0.151,-0.8848,1.1013,0.5539,1.3043,-0.424
0.9343,-0.9656,1.224,-0.4787,1.6104,-0.2772,2.6845,0.381,1.327,-0.0174,0.151,-0.8848,1.1013,0.5539,1.3043,-0.424
0.9243,-0.968,1.2088,-0.4682,1.5952,-0.2817,2.6898,0.3733,1.3923,-0.0075,0.1343,-0.8863,1.0861,0.5639,1.2957,-0.4267
0.9243,-0.968,1.2088,-0.4682,1.5952,-0.2817,2.6898,0.3733,1.3923,-0.0075,0.1343,-0.8863,1.0861,0.5639,1.2957,-0.4267
0.9067,-0.9676,1.1927,-0.4676,1.5769,-0.2818,2.6757,0.3783,1.4098,0.0193,0.1177,-0.8877,1.0753,0.5677,1.2914,-0.428
0.8891,-0.9673,1.1708,-0.4701,1.5567,-0.2878,2.6388,0.3856,1.3968,0.0903,0.1032,-0.8924,1.0687,0.5654,1.2897,-0.4331
0.8891,-0.9673,1.1708,-0.4701,1.5567,-0.2878,2.6388,0.3856,1.3968,0.0903,0.1032,-0.8924,1.0687,0.5654,1.2897,-0.4331
0.8891,-0.9673,1.1708,-0.4701,1.5567,-0.2878,2.6388,0.3856,1.3968,0.0903,0.1032,-0.8924,1.0687,0.5654,1.2897,-0.4331
0.8743,-0.9709,1.1546,-0.4696,1.5416,-0.2922,2.616,0.3879,1.3315,0.0801,0.0794,-0.8962,1.0491,0.5583,1.2632,-0.4322
0.8743,-0.9709,1.1546,-0.4696,1.5416,-0.2922,2.616,0.3879,1.3315,0.0801,0.0794,-0.8962,1.0491,0.5583,1.2632,-0.4322
0.8594,-0.9744,1.1328,-0.4721,1.5104,-0.291,2.5844,0.3875,1.2665,0.07,0.0578,-0.9033,1.0337,0.5451,1.2298,-0.4288
0.8594,-0.9744,1.1328,-0.4721,1.5104,-0.291,2.5844,0.3875,1.2665,0.07,0.0578,-0.9033,1.0337,0.5451,1.2298,-0.4288
0.8594,-0.9744,1.1328,-0.4721,1.5104,-0.291,2.5844,0.3875,1.2665,0.07,0.0578,-0.9033,1.0337,0.5451,1.2298,-0.4288
0.8473,-0.9819,1.1214,-0.4783,1.4792,-0.2898,2.567,0.3822,1.2492,0.0431,0.0341,-0.9071,1.0141,0.538,1.2016,-0.433
0.8473,-0.9819,1.1214,-0.4783,1.4792,-0.2898,2.567,0.3822,1.2492,0.0431,0.0341,-0.9071,1.0141,0.538,1.2016,-0.433
0.8473,-0.9819,1.1214,-0.4783,1.4792,-0.2898,2.567,0.3822,1.2492,0.0431,0.0341,-0.9071,1.0141,0.538,1.2016,-0.433
0.8047,-0.9785,1.0779,-0.4834,1.4231,-0.2961,2.5461,0.3665,1.2492,0.0431,-0.012,-0.9103,0.9903,0.5371,1.1624,-0.4361
0.7796,-0.9755,1.0713,-0.4963,1.4001,-0.2977,2.5287,0.3612,1.2189,0.0868,-0.0321,-0.913,0.9945,0.531,1.1497,-0.44
0.7796,-0.9755,1.0713,-0.4963,1.4001,-0.2977,2.5287,0.3612,1.2189,0.0868,-0.0321,-0.913,0.9945,0.531,1.1497,-0.44
0.7796,-0.9755,1.0713,-0.4963,1.4001,-0.2977,2.5287,0.3612,1.2189,0.0868,-0.0321,-0.913,0.9945,0.531,1.1497,-0.44
0.7671,-0.974,1.0853,-0.5166,1.3951,-0.2992,2.4974,0.3608,1.2492,0.0431,-0.0485,-0.9145,0.9923,0.5224,1.1344,-0.4403
0.7671,-0.974,1.0853,-0.5166,1.3951,-0.2992,2.4974,0.3608,1.2492,0.0431,-0.0485,-0.9145,0.9923,0.5224,1.1344,-0.4403
0.7671,-0.974,1.0853,-0.5166,1.3951,-0.2992,2.4974,0.3608,1.2492,0.0431,-0.0485,-0.9145,0.9923,0.5224,1.1344,-0.4403
0.7867,-0.9693,1.1127,-0.511,1.4221,-0.286,2.5234,0.3688,1.2665,0.07,-0.0379,-0.9109,1.0053,0.5271,1.1387,-0.439
0.7867,-0.9693,1.1127,-0.511,1.4221,-0.286,2.5234,0.3688,1.2665,0.07,-0.0379,-0.9109,1.0053,0.5271,1.1387,-0.439
0.7867,-0.9693,1.1127,-0.511,1.4221,-0.286,2.5234,0.3688,1.2665,0.07,-0.0379,-0.9109,1.0053,0.5271,1.1387,-0.439
0.8986,-0.9559,1.1859,-0.4806,1.5437,-0.2602,2.6072,0.3852,1.4401,-0.0244,0.0489,-0.8903,1.0619,0.5398,1.199,-0.4293
0.8986,-0.9559,1.1859,-0.4806,1.5437,-0.2602,2.6072,0.3852,1.4401,-0.0244,0.0489,-0.8903,1.0619,0.5398,1.199,-0.4293
0.9533,-0.9428,1.2308,-0.4657,1.6126,-0.2451,2.688,0.3913,1.4578,0.0024,0.1145,-0.8768,1.0947,0.5515,1.258,-0.4247
0.9533,-0.9428,1.2308,-0.4657,1.6126,-0.2451,2.688,0.3913,1.4578,0.0024,0.1145,-0.8768,1.0947,0.5515,1.258,-0.4247
1.0109,-0.9336,1.2758,-0.4507,1.6909,-0.2431,2.7463,0.3996,1.4625,0.1004,0.19,-0.8642,1.1494,0.5556,1.3214,-0.4188
1.0109,-0.9336,1.2758,-0.4507,1.6909,-0.2431,2.7463,0.3996,1.4625,0.1004,0.19,-0.8642,1.1494,0.5556,1.3214,-0.4188
1.0109,-0.9336,1.2758,-0.4507,1.6909,-0.2431,2.7463,0.3996,1.4625,0.1004,0.19,-0.8642,1.1494,0.5556,1.3214,-0.4188
1.0538,-0.928,1.2978,-0.4482,1.746,-0.2428,2.7871,0.4026,1.4143,0.1174,0.2418,-0.8553,1.1911,0.5549,1.3671,-0.4093
1.0538,-0.928,1.2978,-0.4482,1.746,-0.2428,2.7871,0.4026,1.4143,0.1174,0.2418,-0.8553,1.1911,0.5549,1.3671,-0.4093
1.0538,-0.928,1.2978,-0.4482,1.746,-0.2428,2.7871,0.4026,1.4143,0.1174,0.2418,-0.8553,1.1911,0.5549,1.3671,-0.4093
1.1196,-0.9216,1.3631,-0.4507,1.7995,-0.2219,2.8351,0.4263,1.3315,0.0801,0.3211,-0.8537,1.2067,0.5682,1.4146,-0.3948
1.1196,-0.9216,1.3631,-0.4507,1.7995,-0.2219,2.8351,0.4263,1.3315,0.0801,0.3211,-0.8537,1.2067,0.5682,1.4146,-0.3948
1.1531,-0.9275,1.3748,-0.4445,1.8068,-0.2145,2.8725,0.4189,1.3141,0.0531,0.3403,-0.8556,1.2176,0.5643,1.4232,-0.3922
1.1531,-0.9275,1.3748,-0.4445,1.8068,-0.2145,2.8725,0.4189,1.3141,0.0531,0.3403,-0.8556,1.2176,0.5643,1.4232,-0.3922
1.1632,-0.9251,1.3911,-0.4451,1.8037,-0.2101,2.8957,0.4165,1.3923,-0.0075,0.3454,-0.8499,1.2176,0.5643,1.4319,-0.3895
1.1632,-0.9251,1.3911,-0.4451,1.8037,-0.2101,2.8957,0.4165,1.3923,-0.0075,0.3454,-0.8499,1.2176,0.5643,1.4319,-0.3895
1.1554,-0.9223,1.3853,-0.4482,1.7986,-0.2116,2.8868,0.4138,1.4098,0.0193,0.349,-0.8488,1.2242,0.5667,1.4501,-0.3931
1.1554,-0.9223,1.3853,-0.4482,1.7986,-0.2116,2.8868,0.4138,1.4098,0.0193,0.349,-0.8488,1.2242,0.5667,1.4501,-0.3931
1.1453,-0.9247,1.3689,-0.4476,1.778,-0.2176,2.8868,0.4138,1.4098,0.0193,0.3394,-0.8478,1.2286,0.5605,1.4458,-0.3944
1.1453,-0.9247,1.3689,-0.4476,1.778,-0.2176,2.8868,0.4138,1.4098,0.0193,0.3394,-0.8478,1.2286,0.5605,1.4458,-0.3944
1.1251,-0.9295,1.3726,-0.4643,1.7635,-0.2324,2.8689,0.4085,1.4273,0.0463,0.3344,-0.8535,1.2286,0.5605,1.4458,-0.3944
1.1099,-0.933,1.3668,-0.4674,1.7481,-0.2369,2.8458,0.4109,1.4578,0.0024,0.322,-0.8615,1.2176,0.5643,1.4302,-0.3946
1.1099,-0.933,1.3668,-0.4674,1.7481,-0.2369,2.8458,0.4109,1.4578,0.0024,0.322,-0.8615,1.2176,0.5643,1.4302,-0.3946
1.1099,-0.933,1.3668,-0.4674,1.7481,-0.2369,2.8458,0.4109,1.4578,0.0024,0.322,-0.8615,1.2176,0.5643,1.4302,-0.3946
1.1026,-0.9393,1.3563,-0.4637,1.7409,-0.2443,2.8422,0.4005,1.5058,-0.0146,0.3073,-0.8662,1.211,0.562,1.4172,-0.3986
1.1026,-0.9393,1.3563,-0.4637,1.7409,-0.2443,2.8422,0.4005,1.5058,-0.0146,0.3073,-0.8662,1.211,0.562,1.4172,-0.3986
1.0848,-0.939,1.3457,-0.46,1.7255,-0.2488,2.8244,0.3952,1.554,-0.0316,0.2927,-0.8709,1.1934,0.5635,1.4111,-0.405
1.0848,-0.939,1.3457,-0.46,1.7255,-0.2488,2.8244,0.3952,1.554,-0.0316,0.2927,-0.8709,1.1934,0.5635,1.4111,-0.405
1.072,-0.9374,1.3352,-0.4563,1.7316,-0.2575,2.8244,0.3952,1.4754,0.0293,0.2758,-0.8723,1.1759,0.565,1.4051,-0.4114
1.0619,-0.9398,1.3399,-0.4631,1.7214,-0.2605,2.8155,0.3925,1.4273,0.0463,0.2612,-0.877,1.1669,0.5541,1.3922,-0.4154
1.0619,-0.9398,1.3399,-0.4631,1.7214,-0.2605,2.8155,0.3925,1.4273,0.0463,0.2612,-0.877,1.1669,0.5541,1.3922,-0.4154
1.0619,-0.9398,1.3399,-0.4631,1.7214,-0.2605,2.8155,0.3925,1.4273,0.0463,0.2612,-0.877,1.1669,0.5541,1.3922,-0.4154
1.0492,-0.9382,1.3236,-0.4625,1.7051,-0.2547,2.8066,0.3899,1.4098,0.0193,0.2526,-0.8838,1.1537,0.5494,1.3766,-0.4155
1.0492,-0.9382,1.3236,-0.4625,1.7051,-0.2547,2.8066,0.3899,1.4098,0.0193,0.2526,-0.8838,1.1537,0.5494,1.3766,-0.4155
1.0442,-0.9394,1.3131,-0.4588,1.6948,-0.2577,2.8119,0.3822,1.4098,0.0193,0.2476,-0.8894,1.1471,0.547,1.3654,-0.4144
1.0442,-0.9394,1.3131,-0.4588,1.6948,-0.2577,2.8119,0.3822,1.4098,0.0193,0.2476,-0.8894,1.1471,0.547,1.3654,-0.4144
1.0314,-0.9379,1.2968,-0.4582,1.6816,-0.2563,2.8119,0.3822,1.4401,-0.0244,0.238,-0.8885,1.1557,0.5346,1.3568,-0.4171
1.0314,-0.9379,1.2968,-0.4582,1.6816,-0.2563,2.8119,0.3822,1.4401,-0.0244,0.238,-0.8885,1.1557,0.5346,1.3568,-0.4171
1.0314,-0.9379,1.2968,-0.4582,1.6816,-0.2563,2.8119,0.3822,1.4401,-0.0244,0.238,-0.8885,1.1557,0.5346,1.3568,-0.4171
1.0214,-0.9403,1.2957,-0.4681,1.6744,-0.2637,2.7977,0.3872,1.4098,0.0193,0.2285,-0.8876,1.1666,0.5308,1.3525,-0.4184
1.0214,-0.9403,1.2957,-0.4681,1.6744,-0.2637,2.7977,0.3872,1.4098,0.0193,0.2285,-0.8876,1.1666,0.5308,1.3525,-0.4184
1.0214,-0.9403,1.2957,-0.4681,1.6744,-0.2637,2.7977,0.3872,1.4098,0.0193,0.2285,-0.8876,1.1666,0.5308,1.3525,-0.4184
0.9864,-0.9486,1.2564,-0.4799,1.6226,-0.2684,2.7481,0.3816,1.3923,-0.0075,0.203,-0.8958,1.1491,0.5323,1.3214,-0.4188
0.9764,-0.951,1.2412,-0.4694,1.5962,-0.2657,2.7481,0.3816,1.4401,-0.0244,0.1827,-0.8984,1.1382,0.5361,1.306,-0.419
0.9764,-0.951,1.2412,-0.4694,1.5962,-0.2657,2.7481,0.3816,1.4401,-0.0244,0.1827,-0.8984,1.1382,0.5361,1.306,-0.419
0.9764,-0.951,1.2412,-0.4694,1.5962,-0.2657,2.7481,0.3816,1.4401,-0.0244,0.1827,-0.8984,1.1382,0.5361,1.306,-0.419
0.9614,-0.9546,1.2297,-0.4756,1.573,-0.2673,2.7304,0.3763,1.3923,-0.0075,0.1564,-0.899,1.1317,0.5338,1.2931,-0.4229
0.9614,-0.9546,1.2297,-0.4756,1.573,-0.2673,2.7304,0.3763,1.3923,-0.0075,0.1564,-0.899,1.1317,0.5338,1.2931,-0.4229
0.9614,-0.9546,1.2297,-0.4756,1.573,-0.2673,2.7304,0.3763,1.3923,-0.0075,0.1564,-0.899,1.1317,0.5338,1.2931,-0.4229
0.9415,-0.9593,1.2031,-0.4713,1.5527,-0.2733,2.6933,0.3836,1.3619,0.0363,0.1325,-0.9028,1.1185,0.5291,1.2777,-0.4231
0.9266,-0.9629,1.1963,-0.4843,1.5295,-0.2749,2.6757,0.3783,1.3619,0.0363,0.1086,-0.9066,1.0902,0.5344,1.2554,-0.4209
0.9266,-0.9629,1.1963,-0.4843,1.5295,-0.2749,2.6757,0.3783,1.3619,0.0363,0.1086,-0.9066,1.0902,0.5344,1.2554,-0.4209
0.9193,-0.9691,1.1802,-0.4837,1.5034,-0.2722,2.6669,0.3756,1.2968,0.0262,0.0906,-0.9124,1.0705,0.5274,1.2314,-0.4238
0.9017,-0.9688,1.1688,-0.4899,1.4752,-0.2753,2.6494,0.3703,1.3445,0.0094,0.074,-0.9139,1.0639,0.5251,1.216,-0.424
0.9017,-0.9688,1.1688,-0.4899,1.4752,-0.2753,2.6494,0.3703,1.3445,0.0094,0.074,-0.9139,1.0639,0.5251,1.216,-0.424
0.9017,-0.9688,1.1688,-0.4899,1.4752,-0.2753,2.6494,0.3703,1.3445,0.0094,0.074,-0.9139,1.0639,0.5251,1.216,-0.424
0.8765,-0.9658,1.1469,-0.4924,1.4551,-0.2813,2.6406,0.3676,1.3445,0.0094,0.0457,-0.9112,1.0551,0.5142,1.199,-0.4293
0.8765,-0.9658,1.1469,-0.4924,1.4551,-0.2813,2.6406,0.3676,1.3445,0.0094,0.0457,-0.9112,1.0551,0.5142,1.199,-0.4293
0.8765,-0.9658,1.1469,-0.4924,1.4551,-0.2813,2.6406,0.3676,1.3445,0.0094,0.0457,-0.9112,1.0551,0.5142,1.199,-0.4293
0.8414,-0.9651,1.1298,-0.5017,1.4251,-0.2903,2.6003,0.3646,1.3141,0.0531,0.0256,-0.9139,1.0486,0.5119,1.1863,-0.4332
0.8414,-0.9651,1.1298,-0.5017,1.4251,-0.2903,2.6003,0.3646,1.3141,0.0531,0.0256,-0.9139,1.0486,0.5119,1.1863,-0.4332
0.8064,-0.9645,1.1127,-0.511,1.3921,-0.2949,2.5601,0.3616,1.3141,0.0531,0.0077,-0.9197,1.042,0.5095,1.1693,-0.4385
0.8064,-0.9645,1.1127,-0.511,1.3921,-0.2949,2.5601,0.3616,1.3141,0.0531,0.0077,-0.9197,1.042,0.5095,1.1693,-0.4385
0.7917,-0.9681,1.1127,-0.511,1.3742,-0.2951,2.5321,0.3715,1.3141,0.0531,-0.016,-0.9235,1.0312,0.5133,1.1497,-0.44
0.7917,-0.9681,1.1127,-0.511,1.3742,-0.2951,2.5321,0.3715,1.3141,0.0531,-0.016,-0.9235,1.0312,0.5133,1.1497,-0.44
0.7917,-0.9681,1.1127,-0.511,1.3742,-0.2951,2.5321,0.3715,1.3141,0.0531,-0.016,-0.9235,1.0312,0.5133,1.1497,-0.44
0.7693,-0.969,1.0759,-0.5031,1.3642,-0.2981,2.4921,0.3684,1.3445,0.0094,-0.0561,-0.9288,0.9966,0.5163,1.1243,-0.448
0.7693,-0.969,1.0759,-0.5031,1.3642,-0.2981,2.4921,0.3684,1.3445,0.0094,-0.0561,-0.9288,0.9966,0.5163,1.1243,-0.448
0.7693,-0.969,1.0759,-0.5031,1.3642,-0.2981,2.4921,0.3684,1.3445,0.0094,-0.0561,-0.9288,0.9966,0.5163,1.1243,-0.448
0.789,-0.9642,1.0873,-0.4969,1.3991,-0.2876,2.5287,0.3612,1.2665,0.07,-0.0525,-0.9276,1.0073,0.5125,1.1243,-0.448
0.789,-0.9642,1.0873,-0.4969,1.3991,-0.2876,2.5287,0.3612,1.2665,0.07,-0.0525,-0.9276,1.0073,0.5125,1.1243,-0.448
0.9058,-0.9496,1.1755,-0.4769,1.5195,-0.2517,2.6494,0.3703,1.232,0.0162,0.035,-0.9147,1.0443,0.518,1.1693,-0.4385
0.9058,-0.9496,1.1755,-0.4769,1.5195,-0.2517,2.6494,0.3703,1.232,0.0162,0.035,-0.9147,1.0443,0.518,1.1693,-0.4385
0.9058,-0.9496,1.1755,-0.4769,1.5195,-0.2517,2.6494,0.3703,1.232,0.0162,0.035,-0.9147,1.0443,0.518,1.1693,-0.4385
0.9683,-0.9392,1.2146,-0.4651,1.5802,-0.2337,2.7163,0.3813,1.2795,-0.0006,0.1122,-0.9054,1.0813,0.5236,1.2212,-0.4315
0.9683,-0.9392,1.2146,-0.4651,1.5802,-0.2337,2.7163,0.3813,1.2795,-0.0006,0.1122,-0.9054,1.0813,0.5236,1.2212,-0.4315
0.9683,-0.9392,1.2146,-0.4651,1.5802,-0.2337,2.7163,0.3813,1.2795,-0.0006,0.1122,-0.9054,1.0813,0.5236,1.2212,-0.4315
1.0132,-0.9285,1.2632,-0.4669,1.637,-0.2274,2.7605,0.3946,1.3445,0.0094,0.1736,-0.8854,1.1317,0.5338,1.2751,-0.4194
1.0132,-0.9285,1.2632,-0.4669,1.637,-0.2274,2.7605,0.3946,1.3445,0.0094,0.1736,-0.8854,1.1317,0.5338,1.2751,-0.4194
1.0132,-0.9285,1.2632,-0.4669,1.637,-0.2274,2.7605,0.3946,1.3445,0.0094,0.1736,-0.8854,1.1317,0.5338,1.2751,-0.4194
1.089,-0.9197,1.3505,-0.4668,1.7094,-0.2166,2.8315,0.4159,1.4401,-0.0244,0.2677,-0.867,1.1931,0.5402,1.3558,-0.4082
1.1118,-0.9188,1.3631,-0.4507,1.7329,-0.215,2.8636,0.4162,1.5184,-0.085,0.3,-0.8685,1.1997,0.5425,1.3757,-0.4067
1.1118,-0.9188,1.3631,-0.4507,1.7329,-0.215,2.8636,0.4162,1.5184,-0.085,0.3,-0.8685,1.1997,0.5425,1.3757,-0.4067
1.1247,-0.9204,1.3689,-0.4476,1.7462,-0.2164,2.8725,0.4189,1.5664,-0.102,0.3169,-0.8671,1.1954,0.5487,1.3886,-0.4027
1.1247,-0.9204,1.3689,-0.4476,1.7462,-0.2164,2.8725,0.4189,1.5664,-0.102,0.3169,-0.8671,1.1954,0.5487,1.3886,-0.4027
1.1219,-0.9165,1.3748,-0.4445,1.7544,-0.2193,2.8868,0.4138,1.5236,0.0123,0.3242,-0.8647,1.202,0.5511,1.4085,-0.4012
1.1219,-0.9165,1.3748,-0.4445,1.7544,-0.2193,2.8868,0.4138,1.5236,0.0123,0.3242,-0.8647,1.202,0.5511,1.4085,-0.4012
1.1169,-0.9177,1.3689,-0.4476,1.7523,-0.2251,2.8779,0.4112,1.4449,0.0733,0.3229,-0.8692,1.1954,0.5487,1.4111,-0.405
1.1169,-0.9177,1.3689,-0.4476,1.7523,-0.2251,2.8779,0.4112,1.4449,0.0733,0.3229,-0.8692,1.1954,0.5487,1.4111,-0.405
1.1068,-0.92,1.3631,-0.4507,1.742,-0.2281,2.8689,0.4085,1.3968,0.0903,0.3215,-0.8736,1.1997,0.5425,1.4068,-0.4063
1.1068,-0.92,1.3631,-0.4507,1.742,-0.2281,2.8689,0.4085,1.3968,0.0903,0.3215,-0.8736,1.1997,0.5425,1.4068,-0.4063
1.1022,-0.9303,1.3515,-0.4569,1.7155,-0.2254,2.8511,0.4032,1.3619,0.0363,0.315,-0.8837,1.1822,0.544,1.3869,-0.4078
1.1022,-0.9303,1.3515,-0.4569,1.7155,-0.2254,2.8511,0.4032,1.3619,0.0363,0.315,-0.8837,1.1822,0.544,1.3869,-0.4078
1.0843,-0.9299,1.3304,-0.4494,1.7052,-0.2284,2.8511,0.4032,1.3619,0.0363,0.3004,-0.8884,1.1756,0.5417,1.3714,-0.408
1.0843,-0.9299,1.3304,-0.4494,1.7052,-0.2284,2.8511,0.4032,1.3619,0.0363,0.3004,-0.8884,1.1756,0.5417,1.3714,-0.408
1.072,-0.9374,1.3341,-0.4662,1.6848,-0.2344,2.8671,0.3801,1.3445,0.0094,0.2753,-0.8845,1.1689,0.5393,1.3541,-0.4133
1.0492,-0.9382,1.3168,-0.4755,1.6725,-0.2432,2.8635,0.3698,1.3923,-0.0075,0.2621,-0.8847,1.1732,0.5331,1.3525,-0.4184
1.0492,-0.9382,1.3168,-0.4755,1.6725,-0.2432,2.8635,0.3698,1.3923,-0.0075,0.2621,-0.8847,1.1732,0.5331,1.3525,-0.4184
1.0492,-0.9382,1.3168,-0.4755,1.6725,-0.2432,2.8635,0.3698,1.3923,-0.0075,0.2621,-0.8847,1.1732,0.5331,1.3525,-0.4184
1.0341,-0.9418,1.3052,-0.4817,1.6572,-0.2477,2.835,0.3798,1.3923,-0.0075,0.2453,-0.8862,1.1775,0.5269,1.3396,-0.4223
1.0341,-0.9418,1.3052,-0.4817,1.6572,-0.2477,2.835,0.3798,1.3923,-0.0075,0.2453,-0.8862,1.1775,0.5269,1.3396,-0.4223
1.0191,-0.9454,1.3041,-0.4916,1.642,-0.2522,2.8119,0.3822,1.3923,-0.0075,0.2344,-0.8897,1.1775,0.5269,1.331,-0.425
1.0191,-0.9454,1.3041,-0.4916,1.642,-0.2522,2.8119,0.3822,1.3923,-0.0075,0.2344,-0.8897,1.1775,0.5269,1.331,-0.425
1.0168,-0.9505,1.2936,-0.4879,1.6288,-0.2508,2.803,0.3796,1.4401,-0.0244,0.233,-0.8941,1.1732,0.5331,1.3241,-0.4225
1.0168,-0.9505,1.2936,-0.4879,1.6288,-0.2508,2.803,0.3796,1.4401,-0.0244,0.233,-0.8941,1.1732,0.5331,1.3241,-0.4225
1.0068,-0.9529,1.2832,-0.4842,1.6186,-0.2538,2.7888,0.3846,1.4881,-0.0413,0.228,-0.8997,1.1732,0.5331,1.3224,-0.4276
1.0068,-0.9529,1.2832,-0.4842,1.6186,-0.2538,2.7888,0.3846,1.4881,-0.0413,0.228,-0.8997,1.1732,0.5331,1.3224,-0.4276
0.9968,-0.9552,1.2622,-0.4768,1.6054,-0.2525,2.78,0.3819,1.5184,-0.085,0.2171,-0.9032,1.1557,0.5346,1.3138,-0.4302
0.9968,-0.9552,1.2622,-0.4768,1.6054,-0.2525,2.78,0.3819,1.5184,-0.085,0.2171,-0.9032,1.1557,0.5346,1.3138,-0.4302
0.9868,-0.9576,1.2412,-0.4694,1.5953,-0.2555,2.7711,0.3793,1.5058,-0.0146,0.2134,-0.9044,1.1514,0.5408,1.3207,-0.4327
0.9868,-0.9576,1.2412,-0.4694,1.5953,-0.2555,2.7711,0.3793,1.5058,-0.0146,0.2134,-0.9044,1.1514,0.5408,1.3207,-0.4327
0.9868,-0.9576,1.2412,-0.4694,1.5953,-0.2555,2.7711,0.3793,1.5058,-0.0146,0.2134,-0.9044,1.1514,0.5408,1.3207,-0.4327
0.9768,-0.96,1.2297,-0.4756,1.5851,-0.2585,2.7481,0.3816,1.3968,0.0903,0.1944,-0.9026,1.1491,0.5323,1.319,-0.4377
0.9768,-0.96,1.2297,-0.4756,1.5851,-0.2585,2.7481,0.3816,1.3968,0.0903,0.1944,-0.9026,1.1491,0.5323,1.319,-0.4377
0.9669,-0.9624,1.224,-0.4787,1.572,-0.2571,2.7339,0.3866,1.3794,0.0632,0.1799,-0.9073,1.1251,0.5315,1.3035,-0.4379
0.9623,-0.9725,1.223,-0.4886,1.5457,-0.2544,2.7304,0.3763,1.3315,0.0801,0.1713,-0.914,1.1119,0.5268,1.2786,-0.4319
0.9523,-0.9749,1.2125,-0.4849,1.5225,-0.256,2.7163,0.3813,1.3141,0.0531,0.1546,-0.9155,1.1053,0.5244,1.2658,-0.4359
0.9523,-0.9749,1.2125,-0.4849,1.5225,-0.256,2.7163,0.3813,1.3141,0.0531,0.1546,-0.9155,1.1053,0.5244,1.2658,-0.4359
0.9523,-0.9749,1.2125,-0.4849,1.5225,-0.256,2.7163,0.3813,1.3141,0.0531,0.1546,-0.9155,1.1053,0.5244,1.2658,-0.4359
0.9297,-0.9758,1.201,-0.4911,1.4913,-0.2548,2.7128,0.371,1.2837,0.097,0.1356,-0.9137,1.0988,0.5221,1.2435,-0.4337
0.9297,-0.9758,1.201,-0.4911,1.4913,-0.2548,2.7128,0.371,1.2837,0.097,0.1356,-0.9137,1.0988,0.5221,1.2435,-0.4337
0.8968,-0.97,1.1849,-0.4905,1.4712,-0.2608,2.6951,0.3657,1.2837,0.097,0.1154,-0.9163,1.0922,0.5197,1.2264,-0.439
0.8968,-0.97,1.1849,-0.4905,1.4712,-0.2608,2.6951,0.3657,1.2837,0.097,0.1154,-0.9163,1.0922,0.5197,1.2264,-0.439
0.8968,-0.97,1.1849,-0.4905,1.4712,-0.2608,2.6951,0.3657,1.2837,0.097,0.1154,-0.9163,1.0922,0.5197,1.2264,-0.439
0.8644,-0.9732,1.1677,-0.4998,1.4461,-0.2683,2.6494,0.3703,1.2665,0.07,0.0893,-0.9168,1.0856,0.5174,1.2068,-0.4405
0.8396,-0.9792,1.161,-0.5127,1.4241,-0.2801,2.6038,0.3749,1.3141,0.0531,0.0749,-0.9215,1.0899,0.5112,1.1915,-0.4407
0.8396,-0.9792,1.161,-0.5127,1.4241,-0.2801,2.6038,0.3749,1.3141,0.0531,0.0749,-0.9215,1.0899,0.5112,1.1915,-0.4407
0.8073,-0.9824,1.1439,-0.522,1.3961,-0.2833,2.5583,0.3795,1.2492,0.0431,0.0511,-0.9253,1.0833,0.5089,1.1745,-0.446
0.8073,-0.9824,1.1439,-0.522,1.3961,-0.2833,2.5583,0.3795,1.2492,0.0431,0.0511,-0.9253,1.0833,0.5089,1.1745,-0.446
0.8073,-0.9824,1.1439,-0.522,1.3961,-0.2833,2.5583,0.3795,1.2492,0.0431,0.0511,-0.9253,1.0833,0.5089,1.1745,-0.446
0.7877,-0.9872,1.1221,-0.5245,1.3682,-0.2865,2.5269,0.3791,1.2968,0.0262,0.0332,-0.9312,1.0659,0.5104,1.1643,-0.4536
0.768,-0.9919,1.0957,-0.5202,1.3423,-0.2838,2.5042,0.3814,1.3747,-0.0342,0.0072,-0.9317,1.0443,0.518,1.1448,-0.4552
0.768,-0.9919,1.0957,-0.5202,1.3423,-0.2838,2.5042,0.3814,1.3747,-0.0342,0.0072,-0.9317,1.0443,0.518,1.1448,-0.4552
0.7457,-0.9928,1.075,-0.5129,1.3293,-0.2825,2.4868,0.376,1.3572,-0.0609,-0.028,-0.9314,1.0096,0.521,1.121,-0.458
0.7457,-0.9928,1.075,-0.5129,1.3293,-0.2825,2.4868,0.376,1.3572,-0.0609,-0.028,-0.9314,1.0096,0.521,1.121,-0.458
0.7533,-0.9955,1.0656,-0.4994,1.3393,-0.2795,2.5008,0.3711,1.4049,-0.0777,-0.0396,-0.9274,1.0096,0.521,1.121,-0.458
0.7533,-0.9955,1.0656,-0.4994,1.3393,-0.2795,2.5008,0.3711,1.4049,-0.0777,-0.0396,-0.9274,1.0096,0.521,1.121,-0.458
0.7854,-0.9922,1.0826,-0.4901,1.3901,-0.2747,2.5461,0.3665,1.3747,-0.0342,-0.0267,-0.9271,1.0096,0.521,1.1321,-0.4591
0.7854,-0.9922,1.0826,-0.4901,1.3901,-0.2747,2.5461,0.3665,1.3747,-0.0342,-0.0267,-0.9271,1.0096,0.521,1.1321,-0.4591
0.8298,-0.9816,1.1204,-0.4882,1.4532,-0.261,2.6038,0.3749,1.2795,-0.0006,0.0099,-0.923,1.0378,0.5157,1.1558,-0.4563
0.8298,-0.9816,1.1204,-0.4882,1.4532,-0.261,2.6038,0.3749,1.2795,-0.0006,0.0099,-0.923,1.0378,0.5157,1.1558,-0.4563
0.8298,-0.9816,1.1204,-0.4882,1.4532,-0.261,2.6038,0.3749,1.2795,-0.0006,0.0099,-0.923,1.0378,0.5157,1.1558,-0.4563
0.8918,-0.9712,1.1651,-0.4732,1.5216,-0.2458,2.6651,0.3936,1.2492,0.0431,0.0704,-0.9151,1.0617,0.5165,1.1855,-0.4471
0.8918,-0.9712,1.1651,-0.4732,1.5216,-0.2458,2.6651,0.3936,1.2492,0.0431,0.0704,-0.9151,1.0617,0.5165,1.1855,-0.4471
0.8918,-0.9712,1.1651,-0.4732,1.5216,-0.2458,2.6651,0.3936,1.2492,0.0431,0.0704,-0.9151,1.0617,0.5165,1.1855,-0.4471
1.0072,-0.9619,1.2575,-0.47,1.6309,-0.2186,2.7817,0.4103,1.1976,-0.0372,0.1958,-0.8982,1.1228,0.5229,1.2606,-0.4284
1.0072,-0.9619,1.2575,-0.47,1.6309,-0.2186,2.7817,0.4103,1.1976,-0.0372,0.1958,-0.8982,1.1228,0.5229,1.2606,-0.4284
1.0373,-0.9548,1.2853,-0.4644,1.6615,-0.2096,2.8511,0.4032,1.2622,-0.0273,0.2526,-0.8838,1.16,0.5284,1.3017,-0.4203
1.0373,-0.9548,1.2853,-0.4644,1.6615,-0.2096,2.8511,0.4032,1.2622,-0.0273,0.2526,-0.8838,1.16,0.5284,1.3017,-0.4203
1.0373,-0.9548,1.2853,-0.4644,1.6615,-0.2096,2.8511,0.4032,1.2622,-0.0273,0.2526,-0.8838,1.16,0.5284,1.3017,-0.4203
1.0373,-0.9548,1.2853,-0.4644,1.6615,-0.2096,2.8511,0.4032,1.2622,-0.0273,0.2526,-0.8838,1.16,0.5284,1.3017,-0.4203
1.0619,-0.9398,1.3236,-0.4625,1.7063,-0.2122,2.91,0.4115,1.4049,-0.0777,0.3059,-0.8706,1.2083,0.5301,1.3558,-0.4082
1.0619,-0.9398,1.3236,-0.4625,1.7063,-0.2122,2.91,0.4115,1.4049,-0.0777,0.3059,-0.8706,1.2083,0.5301,1.3558,-0.4082
1.0697,-0.9425,1.3341,-0.4662,1.7094,-0.2166,2.9047,0.4192,1.4049,-0.0777,0.3155,-0.8715,1.2259,0.5286,1.3714,-0.408
1.0697,-0.9425,1.3341,-0.4662,1.7094,-0.2166,2.9047,0.4192,1.4049,-0.0777,0.3155,-0.8715,1.2259,0.5286,1.3714,-0.408
1.0674,-0.9476,1.3294,-0.4594,1.7043,-0.2181,2.9047,0.4192,1.4225,-0.0511,0.3237,-0.8769,1.2259,0.5286,1.3783,-0.4105
1.0573,-0.95,1.3294,-0.4594,1.6971,-0.2255,2.8904,0.4242,1.4527,-0.0946,0.3223,-0.8814,1.2149,0.5324,1.374,-0.4118
1.0573,-0.95,1.3294,-0.4594,1.6971,-0.2255,2.8904,0.4242,1.4527,-0.0946,0.3223,-0.8814,1.2149,0.5324,1.374,-0.4118
1.0573,-0.95,1.3294,-0.4594,1.6971,-0.2255,2.8904,0.4242,1.4527,-0.0946,0.3223,-0.8814,1.2149,0.5324,1.374,-0.4118
1.0473,-0.9524,1.3294,-0.4594,1.692,-0.227,2.8814,0.4216,1.4401,-0.0244,0.315,-0.8837,1.1997,0.5425,1.3766,-0.4155
1.0473,-0.9524,1.3294,-0.4594,1.692,-0.227,2.8814,0.4216,1.4401,-0.0244,0.315,-0.8837,1.1997,0.5425,1.3766,-0.4155
1.0323,-0.9559,1.3236,-0.4625,1.6818,-0.23,2.8725,0.4189,1.3619,0.0363,0.2908,-0.8875,1.1908,0.5316,1.3568,-0.4171
1.0323,-0.9559,1.3236,-0.4625,1.6818,-0.23,2.8725,0.4189,1.3619,0.0363,0.2908,-0.8875,1.1908,0.5316,1.3568,-0.4171
1.0323,-0.9559,1.3236,-0.4625,1.6818,-0.23,2.8725,0.4189,1.3619,0.0363,0.2908,-0.8875,1.1908,0.5316,1.3568,-0.4171
1.0323,-0.9559,1.3236,-0.4625,1.6818,-0.23,2.8725,0.4189,1.3619,0.0363,0.2908,-0.8875,1.1908,0.5316,1.3568,-0.4171
0.9999,-0.9682,1.29,-0.4712,1.637,-0.2274,2.8226,0.4133,1.327,-0.0174,0.2661,-0.9034,1.16,0.5284,1.331,-0.425
0.9999,-0.9682,1.29,-0.4712,1.637,-0.2274,2.8226,0.4133,1.327,-0.0174,0.2661,-0.9034,1.16,0.5284,1.331,-0.425
0.9949,-0.9693,1.29,-0.4712,1.6319,-0.2289,2.8422,0.4005,1.3096,-0.0441,0.2493,-0.9048,1.1468,0.5238,1.3112,-0.4265
0.9949,-0.9693,1.29,-0.4712,1.6319,-0.2289,2.8422,0.4005,1.3096,-0.0441,0.2493,-0.9048,1.1468,0.5238,1.3112,-0.4265
0.9773,-0.969,1.2727,-0.4805,1.6167,-0.2334,2.8386,0.3902,1.3572,-0.0609,0.2398,-0.9039,1.1511,0.5176,1.3095,-0.4315
0.9773,-0.969,1.2727,-0.4805,1.6167,-0.2334,2.8386,0.3902,1.3572,-0.0609,0.2398,-0.9039,1.1511,0.5176,1.3095,-0.4315
0.9646,-0.9675,1.2517,-0.4731,1.6146,-0.2393,2.819,0.4029,1.3572,-0.0609,0.2243,-0.9009,1.1511,0.5176,1.3009,-0.4342
0.9646,-0.9675,1.2517,-0.4731,1.6146,-0.2393,2.819,0.4029,1.3572,-0.0609,0.2243,-0.9009,1.1511,0.5176,1.3009,-0.4342
0.9646,-0.9675,1.2517,-0.4731,1.6146,-0.2393,2.819,0.4029,1.3572,-0.0609,0.2243,-0.9009,1.1511,0.5176,1.3009,-0.4342
0.9523,-0.9749,1.2449,-0.4861,1.5943,-0.2453,2.7959,0.4053,1.3096,-0.0441,0.2171,-0.9032,1.1663,0.5076,1.2897,-0.4331
0.9523,-0.9749,1.2449,-0.4861,1.5943,-0.2453,2.7959,0.4053,1.3096,-0.0441,0.2171,-0.9032,1.1663,0.5076,1.2897,-0.4331
0.9523,-0.9749,1.2449,-0.4861,1.5943,-0.2453,2.7959,0.4053,1.3096,-0.0441,0.2171,-0.9032,1.1663,0.5076,1.2897,-0.4331
0.9198,-0.9781,1.2439,-0.496,1.5609,-0.2499,2.7587,0.4126,1.2795,-0.0006,0.2025,-0.9079,1.1577,0.5199,1.2812,-0.4357
0.9198,-0.9781,1.2439,-0.496,1.5609,-0.2499,2.7587,0.4126,1.2795,-0.0006,0.2025,-0.9079,1.1577,0.5199,1.2812,-0.4357
0.9125,-0.9844,1.2277,-0.4954,1.5457,-0.2544,2.764,0.4049,1.3747,-0.0342,0.193,-0.907,1.1425,0.53,1.2743,-0.4333
0.9125,-0.9844,1.2277,-0.4954,1.5457,-0.2544,2.764,0.4049,1.3747,-0.0342,0.193,-0.907,1.1425,0.53,1.2743,-0.4333
0.8977,-0.9879,1.2068,-0.488,1.5356,-0.2574,2.764,0.4049,1.3747,-0.0342,0.1763,-0.9084,1.1359,0.5276,1.2726,-0.4383
0.8977,-0.9879,1.2068,-0.488,1.5356,-0.2574,2.764,0.4049,1.3747,-0.0342,0.1763,-0.9084,1.1359,0.5276,1.2726,-0.4383
0.8977,-0.9879,1.2068,-0.488,1.5356,-0.2574,2.764,0.4049,1.3747,-0.0342,0.1763,-0.9084,1.1359,0.5276,1.2726,-0.4383
0.8652,-0.9912,1.1792,-0.4936,1.5054,-0.2664,2.7463,0.3996,1.2968,0.0262,0.1437,-0.919,1.1096,0.5182,1.2444,-0.4425
0.8652,-0.9912,1.1792,-0.4936,1.5054,-0.2664,2.7463,0.3996,1.2968,0.0262,0.1437,-0.919,1.1096,0.5182,1.2444,-0.4425
0.8652,-0.9912,1.1792,-0.4936,1.5054,-0.2664,2.7463,0.3996,1.2968,0.0262,0.1437,-0.919,1.1096,0.5182,1.2444,-0.4425
0.8531,-0.9986,1.1573,-0.4961,1.4793,-0.2637,2.7233,0.4019,1.2622,-0.0273,0.1235,-0.9216,1.1008,0.5074,1.2179,-0.4416
0.8531,-0.9986,1.1573,-0.4961,1.4793,-0.2637,2.7233,0.4019,1.2622,-0.0273,0.1235,-0.9216,1.1008,0.5074,1.2179,-0.4416
0.8307,-0.9994,1.1459,-0.5023,1.4532,-0.261,2.7145,0.3993,1.2622,-0.0273,0.109,-0.9263,1.0833,0.5089,1.1983,-0.4431
0.8307,-0.9994,1.1459,-0.5023,1.4532,-0.261,2.7145,0.3993,1.2622,-0.0273,0.109,-0.9263,1.0833,0.5089,1.1983,-0.4431
0.8083,-1.0003,1.1298,-0.5017,1.4121,-0.2628,2.6969,0.3939,1.2622,-0.0273,0.0888,-0.9289,1.0811,0.5004,1.1745,-0.446
0.8083,-1.0003,1.1298,-0.5017,1.4121,-0.2628,2.6969,0.3939,1.2622,-0.0273,0.0888,-0.9289,1.0811,0.5004,1.1745,-0.446
0.8083,-1.0003,1.1298,-0.5017,1.4121,-0.2628,2.6969,0.3939,1.2622,-0.0273,0.0888,-0.9289,1.0811,0.5004,1.1745,-0.446
0.7783,-0.9985,1.108,-0.5042,1.3841,-0.266,2.688,0.3913,1.2622,-0.0273,0.0641,-0.925,1.0745,0.498,1.1591,-0.4462
0.7461,-1.0017,1.092,-0.5036,1.3592,-0.2735,2.6598,0.4012,1.232,0.0162,0.0498,-0.9297,1.0853,0.4942,1.1438,-0.4464
0.7141,-1.005,1.075,-0.5129,1.3264,-0.2782,2.6141,0.4058,1.2148,-0.0105,0.0238,-0.9303,1.0679,0.4957,1.1269,-0.4517
0.7141,-1.005,1.075,-0.5129,1.3264,-0.2782,2.6141,0.4058,1.2148,-0.0105,0.0238,-0.9303,1.0679,0.4957,1.1269,-0.4517
0.7141,-1.005,1.075,-0.5129,1.3264,-0.2782,2.6141,0.4058,1.2148,-0.0105,0.0238,-0.9303,1.0679,0.4957,1.1269,-0.4517
0.6999,-1.0175,1.0543,-0.5056,1.2986,-0.2814,2.5913,0.4081,1.2449,-0.0539,0.0001,-0.9341,1.0506,0.4972,1.1074,-0.4532
0.6999,-1.0175,1.0543,-0.5056,1.2986,-0.2814,2.5913,0.4081,1.2449,-0.0539,0.0001,-0.9341,1.0506,0.4972,1.1074,-0.4532
0.6728,-1.0195,1.0383,-0.505,1.2837,-0.2859,2.5686,0.4104,1.3096,-0.0441,-0.02,-0.9367,1.0247,0.511,1.0922,-0.4535
0.6728,-1.0195,1.0383,-0.505,1.2837,-0.2859,2.5686,0.4104,1.3096,-0.0441,-0.02,-0.9367,1.0247,0.511,1.0922,-0.4535
0.6728,-1.0195,1.0383,-0.505,1.2837,-0.2859,2.5686,0.4104,1.3096,-0.0441,-0.02,-0.9367,1.0247,0.511,1.0922,-0.4535
0.663,-1.0219,1.0279,-0.5014,1.2886,-0.2844,2.5826,0.4054,1.2622,-0.0273,-0.04,-0.9393,1.0116,0.5063,1.0863,-0.4598
0.6679,-1.0207,1.0279,-0.5014,1.3224,-0.2898,2.6001,0.4108,1.2148,-0.0105,-0.053,-0.9396,1.0094,0.4978,1.0753,-0.4587
0.6679,-1.0207,1.0279,-0.5014,1.3224,-0.2898,2.6001,0.4108,1.2148,-0.0105,-0.053,-0.9396,1.0094,0.4978,1.0753,-0.4587
0.6972,-1.0136,1.0599,-0.5025,1.3592,-0.2735,2.6404,0.4139,1.1976,-0.0372,-0.0365,-0.9382,1.0201,0.494,1.0769,-0.4537
0.6972,-1.0136,1.0599,-0.5025,1.3592,-0.2735,2.6404,0.4139,1.1976,-0.0372,-0.0365,-0.9382,1.0201,0.494,1.0769,-0.4537
0.7564,-1.0083,1.1034,-0.4975,1.4221,-0.2598,2.6932,0.4299,1.1504,-0.0205,0.0072,-0.9317,1.0332,0.4987,1.0938,-0.4484
0.7564,-1.0083,1.1034,-0.4975,1.4221,-0.2598,2.6932,0.4299,1.1504,-0.0205,0.0072,-0.9317,1.0332,0.4987,1.0938,-0.4484
0.8159,-1.003,1.1479,-0.4826,1.4954,-0.2432,2.7692,0.4437,1.1504,-0.0205,0.0726,-0.9183,1.0702,0.5042,1.137,-0.444
0.8159,-1.003,1.1479,-0.4826,1.4954,-0.2432,2.7692,0.4437,1.1504,-0.0205,0.0726,-0.9183,1.0702,0.5042,1.137,-0.444
0.8159,-1.003,1.1479,-0.4826,1.4954,-0.2432,2.7692,0.4437,1.1504,-0.0205,0.0726,-0.9183,1.0702,0.5042,1.137,-0.444
0.8679,-0.995,1.1974,-0.4744,1.562,-0.2338,2.8654,0.4447,1.1976,-0.0372,0.1397,-0.9004,1.103,0.5159,1.1889,-0.437
0.8679,-0.995,1.1974,-0.4744,1.562,-0.2338,2.8654,0.4447,1.1976,-0.0372,0.1397,-0.9004,1.103,0.5159,1.1889,-0.437
0.8679,-0.995,1.1974,-0.4744,1.562,-0.2338,2.8654,0.4447,1.1976,-0.0372,0.1397,-0.9004,1.103,0.5159,1.1889,-0.437
0.9428,-0.9863,1.2947,-0.478,1.6492,-0.2185,2.9496,0.4793,1.2449,-0.0539,0.2553,-0.8749,1.1927,0.5169,1.2819,-0.4218
0.9428,-0.9863,1.2947,-0.478,1.6492,-0.2185,2.9496,0.4793,1.2449,-0.0539,0.2553,-0.8749,1.1927,0.5169,1.2819,-0.4218
0.9731,-0.9881,1.3273,-0.4792,1.6778,-0.2154,2.9766,0.4874,1.2922,-0.0707,0.3023,-0.8718,1.2192,0.5262,1.3146,-0.4163
0.9731,-0.9881,1.3273,-0.4792,1.6778,-0.2154,2.9766,0.4874,1.2922,-0.0707,0.3023,-0.8718,1.2192,0.5262,1.3146,-0.4163
0.9831,-0.9858,1.3446,-0.4699,1.6931,-0.2108,3.009,0.4877,1.3572,-0.0609,0.3302,-0.8668,1.2348,0.5395,1.3498,-0.4146
0.9831,-0.9858,1.3446,-0.4699,1.6931,-0.2108,3.009,0.4877,1.3572,-0.0609,0.3302,-0.8668,1.2348,0.5395,1.3498,-0.4146
0.9931,-0.9834,1.3505,-0.4668,1.7063,-0.2122,3.0325,0.4853,1.4527,-0.0946,0.3471,-0.8654,1.2415,0.5418,1.3628,-0.4106
0.9931,-0.9834,1.3505,-0.4668,1.7063,-0.2122,3.0325,0.4853,1.4527,-0.0946,0.3471,-0.8654,1.2415,0.5418,1.3628,-0.4106
0.9981,-0.9822,1.3515,-0.4569,1.7196,-0.2136,3.056,0.4829,1.4527,-0.0946,0.3471,-0.8654,1.2348,0.5395,1.3766,-0.4155
0.9981,-0.9822,1.3515,-0.4569,1.7196,-0.2136,3.056,0.4829,1.4527,-0.0946,0.3471,-0.8654,1.2348,0.5395,1.3766,-0.4155
0.9958,-0.9873,1.3515,-0.4569,1.7175,-0.2195,3.0361,0.4958,1.3923,-0.0075,0.3494,-0.8687,1.2458,0.5356,1.3809,-0.4142
0.9958,-0.9873,1.3515,-0.4569,1.7175,-0.2195,3.0361,0.4958,1.3923,-0.0075,0.3494,-0.8687,1.2458,0.5356,1.3809,-0.4142
0.9831,-0.9858,1.3621,-0.4606,1.7124,-0.221,3.0506,0.4907,1.3747,-0.0342,0.3443,-0.8743,1.2325,0.5309,1.3766,-0.4155
0.9831,-0.9858,1.3621,-0.4606,1.7124,-0.221,3.0506,0.4907,1.3747,-0.0342,0.3443,-0.8743,1.2325,0.5309,1.3766,-0.4155
0.9731,-0.9881,1.3563,-0.4637,1.694,-0.2211,3.0361,0.4958,1.3096,-0.0441,0.3379,-0.8844,1.2302,0.5224,1.3585,-0.412
0.9731,-0.9881,1.3563,-0.4637,1.694,-0.2211,3.0361,0.4958,1.3096,-0.0441,0.3379,-0.8844,1.2302,0.5224,1.3585,-0.412
0.9731,-0.9881,1.3563,-0.4637,1.694,-0.2211,3.0361,0.4958,1.3096,-0.0441,0.3379,-0.8844,1.2302,0.5224,1.3585,-0.412
0.9658,-0.9944,1.3399,-0.4631,1.6787,-0.2256,3.0271,0.4931,1.3096,-0.0441,0.3328,-0.89,1.2302,0.5224,1.3472,-0.4108
0.9636,-0.9995,1.3294,-0.4594,1.6685,-0.2286,3.0361,0.4958,1.3096,-0.0441,0.31,-0.8893,1.2169,0.5177,1.3369,-0.4186
0.9459,-0.9991,1.3131,-0.4588,1.6532,-0.2331,3.0416,0.488,1.2795,-0.0006,0.2945,-0.8863,1.206,0.5216,1.3284,-0.4212
0.9459,-0.9991,1.3131,-0.4588,1.6532,-0.2331,3.0416,0.488,1.2795,-0.0006,0.2945,-0.8863,1.206,0.5216,1.3284,-0.4212
0.9459,-0.9991,1.3131,-0.4588,1.6532,-0.2331,3.0416,0.488,1.2795,-0.0006,0.2945,-0.8863,1.206,0.5216,1.3284,-0.4212
0.9233,-0.9999,1.3062,-0.4718,1.641,-0.242,3.0325,0.4853,1.2795,-0.0006,0.2776,-0.8877,1.2103,0.5154,1.3224,-0.4276
0.9233,-0.9999,1.3062,-0.4718,1.641,-0.242,3.0325,0.4853,1.2795,-0.0006,0.2776,-0.8877,1.2103,0.5154,1.3224,-0.4276
0.9233,-0.9999,1.3062,-0.4718,1.641,-0.242,3.0325,0.4853,1.2795,-0.0006,0.2776,-0.8877,1.2103,0.5154,1.3224,-0.4276
0.8931,-0.9981,1.2947,-0.478,1.6227,-0.2421,3.009,0.4877,1.2922,-0.0707,0.2548,-0.8871,1.2189,0.503,1.3121,-0.4353
0.8931,-0.9981,1.2947,-0.478,1.6227,-0.2421,3.009,0.4877,1.2922,-0.0707,0.2548,-0.8871,1.2189,0.503,1.3121,-0.4353
0.8931,-0.9981,1.2947,-0.478,1.6227,-0.2421,3.009,0.4877,1.2922,-0.0707,0.2548,-0.8871,1.2189,0.503,1.3121,-0.4353
0.8711,-1.0079,1.2784,-0.4774,1.5892,-0.2468,3,0.485,1.3397,-0.0874,0.2448,-0.8983,1.2037,0.513,1.2992,-0.4392
0.8711,-1.0079,1.2784,-0.4774,1.5892,-0.2468,3,0.485,1.3397,-0.0874,0.2448,-0.8983,1.2037,0.513,1.2992,-0.4392
0.8688,-1.0129,1.2622,-0.4768,1.5791,-0.2497,3,0.485,1.3572,-0.0609,0.2375,-0.9006,1.1994,0.5192,1.3061,-0.4417
0.8688,-1.0129,1.2622,-0.4768,1.5791,-0.2497,3,0.485,1.3572,-0.0609,0.2375,-0.9006,1.1994,0.5192,1.3061,-0.4417
0.8688,-1.0129,1.2622,-0.4768,1.5791,-0.2497,3,0.485,1.3572,-0.0609,0.2375,-0.9006,1.1994,0.5192,1.3061,-0.4417
0.8688,-1.0129,1.2622,-0.4768,1.5791,-0.2497,3,0.485,1.3572,-0.0609,0.2375,-0.9006,1.1994,0.5192,1.3061,-0.4417
0.849,-1.0176,1.2459,-0.4762,1.5589,-0.2557,2.9712,0.4952,1.327,-0.0174,0.2157,-0.9076,1.1709,0.5246,1.2975,-0.4443
0.849,-1.0176,1.2459,-0.4762,1.5589,-0.2557,2.9712,0.4952,1.327,-0.0174,0.2157,-0.9076,1.1709,0.5246,1.2975,-0.4443
0.8392,-1.02,1.2297,-0.4756,1.5326,-0.253,2.9622,0.4925,1.3096,-0.0441,0.2012,-0.9123,1.162,0.5137,1.2821,-0.4445
0.8392,-1.02,1.2297,-0.4756,1.5326,-0.253,2.9622,0.4925,1.3096,-0.0441,0.2012,-0.9123,1.162,0.5137,1.2821,-0.4445
0.8342,-1.0212,1.224,-0.4787,1.5145,-0.2532,2.9478,0.4976,1.2922,-0.0707,0.1844,-0.9138,1.1577,0.5199,1.2615,-0.4372
0.8342,-1.0212,1.224,-0.4787,1.5145,-0.2532,2.9478,0.4976,1.2922,-0.0707,0.1844,-0.9138,1.1577,0.5199,1.2615,-0.4372
0.8167,-1.0208,1.2078,-0.4781,1.4913,-0.2548,2.9532,0.4898,1.2622,-0.0273,0.1654,-0.912,1.1445,0.5152,1.2487,-0.4412
0.8167,-1.0208,1.2078,-0.4781,1.4913,-0.2548,2.9532,0.4898,1.2622,-0.0273,0.1654,-0.912,1.1445,0.5152,1.2487,-0.4412
0.7966,-1.0167,1.1916,-0.4775,1.4632,-0.258,2.9442,0.4871,1.2148,-0.0105,0.1392,-0.9125,1.1271,0.5167,1.2333,-0.4414
0.7966,-1.0167,1.1916,-0.4775,1.4632,-0.258,2.9442,0.4871,1.2148,-0.0105,0.1392,-0.9125,1.1271,0.5167,1.2333,-0.4414
0.7966,-1.0167,1.1916,-0.4775,1.4632,-0.258,2.9442,0.4871,1.2148,-0.0105,0.1392,-0.9125,1.1271,0.5167,1.2333,-0.4414
0.7694,-1.0187,1.1802,-0.4837,1.4381,-0.2655,2.9119,0.4868,1.232,0.0162,0.1167,-0.9119,1.1313,0.5106,1.2179,-0.4416
0.7694,-1.0187,1.1802,-0.4837,1.4381,-0.2655,2.9119,0.4868,1.232,0.0162,0.1167,-0.9119,1.1313,0.5106,1.2179,-0.4416
0.747,-1.0196,1.1792,-0.4936,1.4181,-0.2715,2.8832,0.4969,1.2148,-0.0105,0.0929,-0.9157,1.1182,0.5059,1.2051,-0.4455
0.7323,-1.0231,1.163,-0.493,1.3901,-0.2747,2.8599,0.4993,1.232,0.0162,0.0726,-0.9183,1.1073,0.5097,1.1898,-0.4457
0.7323,-1.0231,1.163,-0.493,1.3901,-0.2747,2.8599,0.4993,1.232,0.0162,0.0726,-0.9183,1.1073,0.5097,1.1898,-0.4457
0.7052,-1.0252,1.1318,-0.482,1.3622,-0.2778,2.8421,0.4939,1.232,0.0162,0.0466,-0.9189,1.0899,0.5112,1.1702,-0.4473
0.7052,-1.0252,1.1318,-0.482,1.3622,-0.2778,2.8421,0.4939,1.232,0.0162,0.0466,-0.9189,1.0899,0.5112,1.1702,-0.4473
0.683,-1.026,1.111,-0.4746,1.3502,-0.2866,2.8153,0.4858,1.232,0.0162,0.0229,-0.9227,1.0725,0.5127,1.1643,-0.4536
0.683,-1.026,1.111,-0.4746,1.3502,-0.2866,2.8153,0.4858,1.232,0.0162,0.0229,-0.9227,1.0725,0.5127,1.1643,-0.4536
0.6657,-1.0257,1.095,-0.4741,1.3353,-0.2911,2.8065,0.4831,1.232,0.0162,-0.0008,-0.9265,1.0594,0.508,1.1448,-0.4552
0.6657,-1.0257,1.095,-0.4741,1.3353,-0.2911,2.8065,0.4831,1.232,0.0162,-0.0008,-0.9265,1.0594,0.508,1.1448,-0.4552
0.6657,-1.0257,1.095,-0.4741,1.3353,-0.2911,2.8065,0.4831,1.232,0.0162,-0.0008,-0.9265,1.0594,0.508,1.1448,-0.4552
0.6387,-1.0278,1.0779,-0.4834,1.3075,-0.2943,2.7744,0.4827,1.1675,0.0062,-0.028,-0.9314,1.0355,0.5072,1.1253,-0.4567
