11097,54.3,19.986,0,0.009643,0,11315,50.837,0,0,0,0,0.0078242,0
11097,54.3,19.986,0,0.009643,0,11315,50.837,0,0,0,0,0.0078242,0
11097,54.3,19.986,0,0.009643,0,11315,50.837,0,0,0,0,0.0078242,0
11097,54.3,19.986,0,0.009643,0,11315,50.837,0,0,0,0,0.0078242,0
11097,54.3,19.986,0,0.009643,0,11315,50.837,0,0,0,0,0.0078242,0
11097,54.3,19.986,0,0.009643,0,11315,50.837,0,0,0,0,0.0078242,0
11097,54.3,19.986,0,0.009643,0,11315,50.837,0,0,0,0,0.0078242,0
11098,54.3,19.986,0,0.0081831,0,11315,50.837,0,0,0,0,0.0078674,0
11098,54.3,19.986,0,0.0081831,0,11315,50.837,0,0,0,0,0.0078674,0
11098,54.3,19.986,0,0.0081831,0,11315,50.837,0,0,0,0,0.0078674,0
11098,54.3,19.986,0,0.0081831,0,11315,50.837,0,0,0,0,0.0078674,0
11098,54.3,19.986,0,0.0081831,0,11315,50.837,0,0,0,0,0.0078674,0
11099,54.3,19.987,0,0.006771,0,11315,50.837,0,0,0,0,0.0079112,0
11101,54.3,19.987,0,0.0054021,0,11315,50.837,0,0,0,0,0.0079555,0
11101,54.3,19.987,0,0.0054021,0,11315,50.837,0,0,0,0,0.0079555,0
11101,54.3,19.987,0,0.0054021,0,11315,50.837,0,0,0,0,0.0079555,0
11101,54.3,19.987,0,0.0054021,0,11315,50.837,0,0,0,0,0.0079555,0
11101,54.3,19.987,0,0.0054021,0,11315,50.837,0,0,0,0,0.0079555,0
11101,54.3,19.987,0,0.0054021,0,11315,50.837,0,0,0,0,0.0079555,0
11101,54.3,19.987,0,0.0054021,0,11315,50.837,0,0,0,0,0.0079555,0
11101,54.3,19.987,0,0.0054021,0,11315,50.837,0,0,0,0,0.0079555,0
11101,54.3,19.987,0,0.0054021,0,11315,50.837,0,0,0,0,0.0079555,0
11101,54.3,19.987,0,0.0054021,0,11315,50.837,0,0,0,0,0.0079555,0
11101,54.3,19.987,0,0.0054021,0,11315,50.837,0,0,0,0,0.0079555,0
11101,54.3,19.987,0,0.0054021,0,11315,50.837,0,0,0,0,0.0079555,0
11102,54.3,19.987,0,0.0040754,0,11315,50.837,0,0,0,0,0.0080002,0
11102,54.3,19.987,0,0.0040754,0,11315,50.837,0,0,0,0,0.0080002,0
11102,54.3,19.987,0,0.0040754,0,11315,50.837,0,0,0,0,0.0080002,0
11102,54.3,19.987,0,0.0040754,0,11315,50.837,0,0,0,0,0.0080002,0
11102,54.3,19.987,0,0.0040754,0,11315,50.837,0,0,0,0,0.0080002,0
11102,54.3,19.987,0,0.0040754,0,11315,50.837,0,0,0,0,0.0080002,0
11102,54.3,19.987,0,0.0040754,0,11315,50.837,0,0,0,0,0.0080002,0
11102,54.3,19.987,0,0.0040754,0,11315,50.837,0,0,0,0,0.0080002,0
11102,54.3,19.987,0,0.0040754,0,11315,50.837,0,0,0,0,0.0080002,0
11102,54.3,19.987,0,0.0040754,0,11315,50.837,0,0,0,0,0.0080002,0
11102,54.3,19.987,0,0.0040754,0,11315,50.837,0,0,0,0,0.0080002,0
11102,54.3,19.987,0,0.0040754,0,11315,50.837,0,0,0,0,0.0080002,0
11103,54.3,19.987,0,0.0032133,0,11315,50.837,0,0,0,0,0.0080304,0
11103,54.3,19.987,0,0.0032133,0,11315,50.837,0,0,0,0,0.0080304,0
11103,54.3,19.987,0,0.0032133,0,11315,50.837,0,0,0,0,0.0080304,0
11105,54.3,19.988,0,0.0011367,0,11315,50.837,0,0,0,0,0.0081067,0
11106,54.3,19.988,0,-0.0010594,0,11315,50.837,0,0,0,0,0.0081688,0
11107,54.3,19.988,0,-0.0028599,0,11315,50.837,0,0,0,0,0.0082002,0
11107,54.3,19.988,0,-0.0028599,0,11315,50.837,0,0,0,0,0.0082002,0
11107,54.3,19.988,0,-0.0028599,0,11315,50.837,0,0,0,0,0.0082002,0
11107,54.3,19.988,0,-0.0028599,0,11315,50.837,0,0,0,0,0.0082002,0
11107,54.3,19.988,0,-0.0028599,0,11315,50.837,0,0,0,0,0.0082002,0
11107,54.3,19.988,0,-0.0028599,0,11315,50.837,0,0,0,0,0.0082002,0
11107,54.3,19.988,0,-0.0028599,0,11315,50.837,0,0,0,0,0.0082002,0
11107,54.3,19.988,0,-0.0028599,0,11315,50.837,0,0,0,0,0.0082002,0
11107,54.3,19.988,0,-0.0028599,0,11315,50.837,0,0,0,0,0.0082002,0
11107,54.3,19.988,0,-0.0028599,0,11315,50.837,0,0,0,0,0.0082002,0
11107,54.3,19.988,0,-0.0028599,0,11315,50.837,0,0,0,0,0.0082002,0
11107,54.3,19.988,0,-0.0028599,0,11315,50.837,0,0,0,0,0.0082002,0
11107,54.3,19.988,0,-0.0028599,0,11315,50.837,0,0,0,0,0.0082002,0
11107,54.3,19.988,0,-0.0028599,0,11315,50.837,0,0,0,0,0.0082002,0
11107,54.3,19.988,0,-0.0028599,0,11315,50.837,0,0,0,0,0.0082002,0
11107,54.3,19.988,0,-0.0028599,0,11315,50.837,0,0,0,0,0.0082002,0
11107,54.3,19.988,0,-0.0028599,0,11315,50.837,0,0,0,0,0.0082002,0
11107,54.3,19.988,0,-0.0028599,0,11315,50.837,0,0,0,0,0.0082002,0
11108,54.3,19.987,0,-0.0045693,0,11315,50.837,0,0,0,0,0.0082318,0
11108,54.3,19.987,0,-0.0045693,0,11315,50.837,0,0,0,0,0.0082318,0
11108,54.3,19.987,0,-0.0045693,0,11315,50.837,0,0,0,0,0.0082318,0
11108,54.3,19.987,0,-0.0045693,0,11315,50.837,0,0,0,0,0.0082318,0
11108,54.3,19.987,0,-0.0045693,0,11315,50.837,0,0,0,0,0.0082318,0
11108,54.3,19.987,0,-0.0045693,0,11315,50.837,0,0,0,0,0.0082318,0
11109,54.3,19.987,0,-0.0069596,0,11315,50.837,0,0,0,0,0.0082798,0
11109,54.3,19.987,0,-0.0069596,0,11315,50.837,0,0,0,0,0.0082798,0
11111,54.3,19.986,0,-0.0098478,0,11315,50.837,0,0,0,0,0.0083445,0
11111,54.3,19.986,0,-0.011177,0,11315,50.837,0,0,0,0,0.0083773,0
11111,54.3,19.986,0,-0.011177,0,11315,50.837,0,0,0,0,0.0083773,0
11111,54.3,19.986,0,-0.011177,0,11315,50.837,0,0,0,0,0.0083773,0
11111,54.3,19.986,0,-0.011177,0,11315,50.837,0,0,0,0,0.0083773,0
11111,54.3,19.986,0,-0.011177,0,11315,50.837,0,0,0,0,0.0083773,0
11111,54.3,19.986,0,-0.011177,0,11315,50.837,0,0,0,0,0.0083773,0
11111,54.3,19.986,0,-0.011177,0,11315,50.837,0,0,0,0,0.0083773,0
11111,54.3,19.986,0,-0.011177,0,11315,50.837,0,0,0,0,0.0083773,0
11111,54.3,19.986,0,-0.011177,0,11315,50.837,0,0,0,0,0.0083773,0
11111,54.3,19.986,0,-0.011177,0,11315,50.837,0,0,0,0,0.0083773,0
11111,54.3,19.986,0,-0.011177,0,11315,50.837,0,0,0,0,0.0083773,0
11111,54.3,19.986,0,-0.011177,0,11315,50.837,0,0,0,0,0.0083773,0
11111,54.3,19.986,0,-0.011177,0,11315,50.837,0,0,0,0,0.0083773,0
11111,54.3,19.986,0,-0.011177,0,11315,50.837,0,0,0,0,0.0083773,0
11111,54.3,19.986,0,-0.011177,0,11315,50.837,0,0,0,0,0.0083773,0
11111,54.3,19.986,0,-0.011177,0,11315,50.837,0,0,0,0,0.0083773,0
11111,54.3,19.986,0,-0.011177,0,11315,50.837,0,0,0,0,0.0083773,0
11113,54.3,19.985,0,-0.014195,0,11315,50.837,0,0,0,0,0.0084604,0
11113,54.3,19.985,0,-0.014195,0,11315,50.837,0,0,0,0,0.0084604,0
11113,54.3,19.985,0,-0.014195,0,11315,50.837,0,0,0,0,0.0084604,0
11113,54.3,19.985,0,-0.014195,0,11315,50.837,0,0,0,0,0.0084604,0
11113,54.3,19.985,0,-0.014195,0,11315,50.837,0,0,0,0,0.0084604,0
11113,54.3,19.985,0,-0.014195,0,11315,50.837,0,0,0,0,0.0084604,0
11113,54.3,19.985,0,-0.014195,0,11315,50.837,0,0,0,0,0.0084604,0
11113,54.3,19.985,0,-0.014195,0,11315,50.837,0,0,0,0,0.0084604,0
11113,54.3,19.985,0,-0.014195,0,11315,50.837,0,0,0,0,0.0084604,0
11115,54.3,19.984,0,-0.015819,0,11315,50.837,0,0,0,0,0.008511,0
11116,54.3,19.982,0,-0.017791,0,11315,50.837,0,0,0,0,0.0085795,0
11118,54.3,19.981,0,-0.019567,0,11315,50.837,0,0,0,0,0.008649,0
11118,54.3,19.981,0,-0.019567,0,11315,50.837,0,0,0,0,0.008649,0
11118,54.3,19.981,0,-0.019567,0,11315,50.837,0,0,0,0,0.008649,0
11118,54.3,19.981,0,-0.019567,0,11315,50.837,0,0,0,0,0.008649,0
11118,54.3,19.981,0,-0.019567,0,11315,50.837,0,0,0,0,0.008649,0
11118,54.3,19.981,0,-0.019567,0,11315,50.837,0,0,0,0,0.008649,0
11118,54.3,19.981,0,-0.019567,0,11315,50.837,0,0,0,0,0.008649,0
11118,54.3,19.981,0,-0.019567,0,11315,50.837,0,0,0,0,0.008649,0
11118,54.3,19.981,0,-0.019567,0,11315,50.837,0,0,0,0,0.008649,0
11118,54.3,19.981,0,-0.019567,0,11315,50.837,0,0,0,0,0.008649,0
11119,54.3,19.98,0,-0.020389,0,11315,50.837,0,0,0,0,0.0086842,0
11119,54.3,19.98,0,-0.020389,0,11315,50.837,0,0,0,0,0.0086842,0
11119,54.3,19.98,0,-0.020389,0,11315,50.837,0,0,0,0,0.0086842,0
11119,54.3,19.98,0,-0.020389,0,11315,50.837,0,0,0,0,0.0086842,0
11119,54.3,19.98,0,-0.020389,0,11315,50.837,0,0,0,0,0.0086842,0
11119,54.3,19.98,0,-0.020389,0,11315,50.837,0,0,0,0,0.0086842,0
11119,54.3,19.98,0,-0.020389,0,11315,50.837,0,0,0,0,0.0086842,0
11119,54.3,19.98,0,-0.020389,0,11315,50.837,0,0,0,0,0.0086842,0
11119,54.3,19.98,0,-0.020389,0,11315,50.837,0,0,0,0,0.0086842,0
11119,54.3,19.98,0,-0.020389,0,11315,50.837,0,0,0,0,0.0086842,0
11119,54.3,19.98,0,-0.020389,0,11315,50.837,0,0,0,0,0.0086842,0
11119,54.3,19.98,0,-0.020389,0,11315,50.837,0,0,0,0,0.0086842,0
11119,54.3,19.98,0,-0.020389,0,11315,50.837,0,0,0,0,0.0086842,0
11119,54.3,19.98,0,-0.020389,0,11315,50.837,0,0,0,0,0.0086842,0
11119,54.3,19.98,0,-0.020389,0,11315,50.837,0,0,0,0,0.0086842,0
11119,54.3,19.98,0,-0.020389,0,11315,50.837,0,0,0,0,0.0086842,0
11119,54.3,19.979,0,-0.021168,0,11315,50.837,0,0,0,0,0.0087197,0
11119,54.3,19.979,0,-0.021168,0,11315,50.837,0,0,0,0,0.0087197,0
11121,54.3,19.978,0,-0.022612,0,11315,50.837,0,0,0,0,0.0087916,0
11123,54.3,19.976,0,-0.023918,0,11315,50.837,0,0,0,0,0.0088646,0
11123,54.3,19.976,0,-0.023918,0,11315,50.837,0,0,0,0,0.0088646,0
11123,54.3,19.976,0,-0.023918,0,11315,50.837,0,0,0,0,0.0088646,0
11123,54.3,19.976,0,-0.023918,0,11315,50.837,0,0,0,0,0.0088646,0
11123,54.3,19.976,0,-0.023918,0,11315,50.837,0,0,0,0,0.0088646,0
11123,54.3,19.976,0,-0.023918,0,11315,50.837,0,0,0,0,0.0088646,0
11123,54.3,19.976,0,-0.023918,0,11315,50.837,0,0,0,0,0.0088646,0
11123,54.3,19.976,0,-0.023918,0,11315,50.837,0,0,0,0,0.0088646,0
11123,54.3,19.976,0,-0.023918,0,11315,50.837,0,0,0,0,0.0088646,0
11124,54.3,19.974,0,-0.025102,0,11315,50.837,0,0,0,0,0.0089388,0
11124,54.3,19.974,0,-0.025102,0,11315,50.837,0,0,0,0,0.0089388,0
11124,54.3,19.974,0,-0.025102,0,11315,50.837,0,0,0,0,0.0089388,0
11124,54.3,19.974,0,-0.025102,0,11315,50.837,0,0,0,0,0.0089388,0
11124,54.3,19.974,0,-0.025102,0,11315,50.837,0,0,0,0,0.0089388,0
11124,54.3,19.974,0,-0.025102,0,11315,50.837,0,0,0,0,0.0089388,0
11124,54.3,19.974,0,-0.025102,0,11315,50.837,0,0,0,0,0.0089388,0
11124,54.3,19.974,0,-0.025102,0,11315,50.837,0,0,0,0,0.0089388,0
11124,54.3,19.974,0,-0.025102,0,11315,50.837,0,0,0,0,0.0089388,0
11124,54.3,19.974,0,-0.025102,0,11315,50.837,0,0,0,0,0.0089388,0
11124,54.3,19.974,0,-0.025102,0,11315,50.837,0,0,0,0,0.0089388,0
11124,54.3,19.974,0,-0.025102,0,11315,50.837,0,0,0,0,0.0089388,0
11124,54.3,19.974,0,-0.025102,0,11315,50.837,0,0,0,0,0.0089388,0
11124,54.3,19.974,0,-0.025102,0,11315,50.837,0,0,0,0,0.0089388,0
11124,54.3,19.974,0,-0.025102,0,11315,50.837,0,0,0,0,0.0089388,0
11124,54.3,19.974,0,-0.025102,0,11315,50.837,0,0,0,0,0.0089388,0
11126,54.3,19.971,0,-0.026427,0,11315,50.837,0,0,0,0,0.0090334,0
11126,54.3,19.971,0,-0.026427,0,11315,50.837,0,0,0,0,0.0090334,0
11126,54.3,19.971,0,-0.026427,0,11315,50.837,0,0,0,0,0.0090334,0
11126,54.3,19.971,0,-0.026427,0,11315,50.837,0,0,0,0,0.0090334,0
11126,54.3,19.971,0,-0.026427,0,11315,50.837,0,0,0,0,0.0090334,0
11127,54.3,19.97,0,-0.027153,0,11315,50.837,0,0,0,0,0.0090911,0
11127,54.3,19.97,0,-0.027153,0,11315,50.837,0,0,0,0,0.0090911,0
11129,54.3,19.967,0,-0.028257,0,11315,50.837,0,0,0,0,0.0091889,0
11129,54.3,19.967,0,-0.028257,0,11315,50.837,0,0,0,0,0.0091889,0
11130,54.3,19.966,0,-0.028462,0,11315,50.837,0,0,0,0,0.0092088,0
11130,54.3,19.966,0,-0.028462,0,11315,50.837,0,0,0,0,0.0092088,0
11131,54.3,19.965,0,-0.028863,0,11315,50.837,0,0,0,0,0.0092486,0
11131,54.3,19.965,0,-0.028863,0,11315,50.837,0,0,0,0,0.0092486,0
11131,54.3,19.965,0,-0.028863,0,11315,50.837,0,0,0,0,0.0092486,0
11131,54.3,19.965,0,-0.028863,0,11315,50.837,0,0,0,0,0.0092486,0
11131,54.3,19.965,0,-0.028863,0,11315,50.837,0,0,0,0,0.0092486,0
11131,54.3,19.965,0,-0.028863,0,11315,50.837,0,0,0,0,0.0092486,0
11131,54.3,19.965,0,-0.028863,0,11315,50.837,0,0,0,0,0.0092486,0
11131,54.3,19.965,0,-0.028863,0,11315,50.837,0,0,0,0,0.0092486,0
11131,54.3,19.965,0,-0.028863,0,11315,50.837,0,0,0,0,0.0092486,0
11131,54.3,19.965,0,-0.028863,0,11315,50.837,0,0,0,0,0.0092486,0
11131,54.3,19.965,0,-0.028863,0,11315,50.837,0,0,0,0,0.0092486,0
11131,54.3,19.965,0,-0.028863,0,11315,50.837,0,0,0,0,0.0092486,0
11131,54.3,19.965,0,-0.028863,0,11315,50.837,0,0,0,0,0.0092486,0
11131,54.3,19.965,0,-0.028863,0,11315,50.837,0,0,0,0,0.0092486,0
11131,54.3,19.965,0,-0.028863,0,11315,50.837,0,0,0,0,0.0092486,0
11131,54.3,19.965,0,-0.028863,0,11315,50.837,0,0,0,0,0.0092486,0
11131,54.3,19.965,0,-0.028863,0,11315,50.837,0,0,0,0,0.0092486,0
11131,54.3,19.965,0,-0.028863,0,11315,50.837,0,0,0,0,0.0092486,0
11131,54.3,19.965,0,-0.028863,0,11315,50.837,0,0,0,0,0.0092486,0
11133,54.3,19.962,0,-0.029783,0,11315,50.837,0,0,0,0,0.0093499,0
11134,54.3,19.96,0,-0.030293,0,11315,50.837,0,0,0,0,0.0094117,0
11134,54.3,19.96,0,-0.030457,0,11315,50.837,0,0,0,0,0.0094325,0
11134,54.3,19.96,0,-0.030457,0,11315,50.837,0,0,0,0,0.0094325,0
11135,54.3,19.958,0,-0.030926,0,11315,50.837,0,0,0,0,0.0094954,0
11135,54.3,19.958,0,-0.030926,0,11315,50.837,0,0,0,0,0.0094954,0
11135,54.3,19.958,0,-0.030926,0,11315,50.837,0,0,0,0,0.0094954,0
11135,54.3,19.958,0,-0.030926,0,11315,50.837,0,0,0,0,0.0094954,0
11135,54.3,19.958,0,-0.030926,0,11315,50.837,0,0,0,0,0.0094954,0
11135,54.3,19.958,0,-0.030926,0,11315,50.837,0,0,0,0,0.0094954,0
11135,54.3,19.958,0,-0.030926,0,11315,50.837,0,0,0,0,0.0094954,0
11135,54.3,19.958,0,-0.030926,0,11315,50.837,0,0,0,0,0.0094954,0
11135,54.3,19.958,0,-0.030926,0,11315,50.837,0,0,0,0,0.0094954,0
11135,54.3,19.958,0,-0.030926,0,11315,50.837,0,0,0,0,0.0094954,0
11135,54.3,19.958,0,-0.030926,0,11315,50.837,0,0,0,0,0.0094954,0
11135,54.3,19.958,0,-0.030926,0,11315,50.837,0,0,0,0,0.0094954,0
11135,54.3,19.958,0,-0.030926,0,11315,50.837,0,0,0,0,0.0094954,0
11135,54.3,19.958,0,-0.030926,0,11315,50.837,0,0,0,0,0.0094954,0
11135,54.3,19.958,0,-0.030926,0,11315,50.837,0,0,0,0,0.0094954,0
11135,54.3,19.958,0,-0.030926,0,11315,50.837,0,0,0,0,0.0094954,0
11135,54.3,19.958,0,-0.030926,0,11315,50.837,0,0,0,0,0.0094954,0
11135,54.3,19.958,0,-0.030926,0,11315,50.837,0,0,0,0,0.0094954,0
11135,54.3,19.958,0,-0.030926,0,11315,50.837,0,0,0,0,0.0094954,0
11136,54.3,19.957,0,-0.031226,0,11315,50.837,0,0,0,0,0.0095378,0
11136,54.3,19.957,0,-0.031226,0,11315,50.837,0,0,0,0,0.0095378,0
11136,54.3,19.957,0,-0.031226,0,11315,50.837,0,0,0,0,0.0095378,0
11136,54.3,19.957,0,-0.031226,0,11315,50.837,0,0,0,0,0.0095378,0
11136,54.3,19.957,0,-0.031226,0,11315,50.837,0,0,0,0,0.0095378,0
11136,54.3,19.957,0,-0.031226,0,11315,50.837,0,0,0,0,0.0095378,0
11136,54.3,19.957,0,-0.031226,0,11315,50.837,0,0,0,0,0.0095378,0
11136,54.3,19.957,0,-0.031226,0,11315,50.837,0,0,0,0,0.0095378,0
11138,54.3,19.953,0,-0.031925,0,11315,50.837,0,0,0,0,0.0096454,0
11139,54.3,19.952,0,-0.032186,0,11315,50.837,0,0,0,0,0.0096891,0
11140,54.3,19.95,0,-0.032564,0,11315,50.837,0,0,0,0,0.0097555,0
11140,54.3,19.95,0,-0.032564,0,11315,50.837,0,0,0,0,0.0097555,0
11140,54.3,19.95,0,-0.032564,0,11315,50.837,0,0,0,0,0.0097555,0
11140,54.3,19.95,0,-0.032564,0,11315,50.837,0,0,0,0,0.0097555,0
11140,54.3,19.95,0,-0.032564,0,11315,50.837,0,0,0,0,0.0097555,0
11140,54.3,19.95,0,-0.032564,0,11315,50.837,0,0,0,0,0.0097555,0
11140,54.3,19.95,0,-0.032564,0,11315,50.837,0,0,0,0,0.0097555,0
11140,54.3,19.95,0,-0.032564,0,11315,50.837,0,0,0,0,0.0097555,0
11140,54.3,19.95,0,-0.032564,0,11315,50.837,0,0,0,0,0.0097555,0
11140,54.3,19.95,0,-0.032564,0,11315,50.837,0,0,0,0,0.0097555,0
11140,54.3,19.95,0,-0.032564,0,11315,50.837,0,0,0,0,0.0097555,0
11140,54.3,19.95,0,-0.032564,0,11315,50.837,0,0,0,0,0.0097555,0
11140,54.3,19.95,0,-0.032564,0,11315,50.837,0,0,0,0,0.0097555,0
11140,54.3,19.95,0,-0.032564,0,11315,50.837,0,0,0,0,0.0097555,0
11140,54.3,19.95,0,-0.032564,0,11315,50.837,0,0,0,0,0.0097555,0
11140,54.3,19.95,0,-0.032564,0,11315,50.837,0,0,0,0,0.0097555,0
11142,54.3,19.947,0,-0.033147,0,11315,50.837,0,0,0,0,0.0098681,0
11142,54.3,19.947,0,-0.033147,0,11315,50.837,0,0,0,0,0.0098681,0
11142,54.3,19.947,0,-0.033147,0,11315,50.837,0,0,0,0,0.0098681,0
11142,54.3,19.947,0,-0.033147,0,11315,50.837,0,0,0,0,0.0098681,0
11142,54.3,19.947,0,-0.033147,0,11315,50.837,0,0,0,0,0.0098681,0
11142,54.3,19.947,0,-0.033147,0,11315,50.837,0,0,0,0,0.0098681,0
11142,54.3,19.947,0,-0.033147,0,11315,50.837,0,0,0,0,0.0098681,0
11143,54.3,19.946,0,-0.033258,0,11315,50.837,0,0,0,0,0.0098909,0
11143,54.3,19.946,0,-0.033258,0,11315,50.837,0,0,0,0,0.0098909,0
11143,54.3,19.946,0,-0.033258,0,11315,50.837,0,0,0,0,0.0098909,0
11144,54.3,19.944,0,-0.033583,0,11315,50.837,0,0,0,0,0.0099601,0
11145,54.3,19.942,0,-0.033991,0,11315,50.837,0,0,0,0,0.010054,0
11145,54.3,19.942,0,-0.033991,0,11315,50.837,0,0,0,0,0.010054,0
11145,54.3,19.942,0,-0.033991,0,11315,50.837,0,0,0,0,0.010054,0
11145,54.3,19.942,0,-0.033991,0,11315,50.837,0,0,0,0,0.010054,0
11145,54.3,19.942,0,-0.033991,0,11315,50.837,0,0,0,0,0.010054,0
11145,54.3,19.942,0,-0.033991,0,11315,50.837,0,0,0,0,0.010054,0
11145,54.3,19.942,0,-0.033991,0,11315,50.837,0,0,0,0,0.010054,0
11147,54.3,19.939,0,-0.034375,0,11315,50.837,0,0,0,0,0.010149,0
11147,54.3,19.939,0,-0.034375,0,11315,50.837,0,0,0,0,0.010149,0
11147,54.3,19.938,0,-0.034468,0,11315,50.837,0,0,0,0,0.010173,0
11147,54.3,19.938,0,-0.034468,0,11315,50.837,0,0,0,0,0.010173,0
11147,54.3,19.938,0,-0.034468,0,11315,50.837,0,0,0,0,0.010173,0
11147,54.3,19.938,0,-0.034468,0,11315,50.837,0,0,0,0,0.010173,0
11147,54.3,19.938,0,-0.034468,0,11315,50.837,0,0,0,0,0.010173,0
11147,54.3,19.938,0,-0.034468,0,11315,50.837,0,0,0,0,0.010173,0
11147,54.3,19.938,0,-0.034468,0,11315,50.837,0,0,0,0,0.010173,0
11147,54.3,19.938,0,-0.034468,0,11315,50.837,0,0,0,0,0.010173,0
11147,54.3,19.938,0,-0.034468,0,11315,50.837,0,0,0,0,0.010173,0
11147,54.3,19.938,0,-0.034468,0,11315,50.837,0,0,0,0,0.010173,0
11147,54.3,19.938,0,-0.034468,0,11315,50.837,0,0,0,0,0.010173,0
11147,54.3,19.938,0,-0.034468,0,11315,50.837,0,0,0,0,0.010173,0
11148,54.3,19.936,0,-0.034739,0,11315,50.837,0,0,0,0,0.010246,0
11148,54.3,19.936,0,-0.034739,0,11315,50.837,0,0,0,0,0.010246,0
11150,54.3,19.933,0,-0.035083,0,11315,50.837,0,0,0,0,0.010346,0
11150,54.3,19.933,0,-0.035083,0,11315,50.837,0,0,0,0,0.010346,0
11150,54.3,19.933,0,-0.035083,0,11315,50.837,0,0,0,0,0.010346,0
11150,54.3,19.933,0,-0.035083,0,11315,50.837,0,0,0,0,0.010346,0
11150,54.3,19.933,0,-0.035083,0,11315,50.837,0,0,0,0,0.010346,0
11150,54.3,19.933,0,-0.035083,0,11315,50.837,0,0,0,0,0.010346,0
11150,54.3,19.933,0,-0.035083,0,11315,50.837,0,0,0,0,0.010346,0
11150,54.3,19.933,0,-0.035083,0,11315,50.837,0,0,0,0,0.010346,0
11150,54.3,19.933,0,-0.035083,0,11315,50.837,0,0,0,0,0.010346,0
11150,54.3,19.933,0,-0.035083,0,11315,50.837,0,0,0,0,0.010346,0
11150,54.3,19.933,0,-0.035083,0,11315,50.837,0,0,0,0,0.010346,0
11150,54.3,19.933,0,-0.035083,0,11315,50.837,0,0,0,0,0.010346,0
11150,54.3,19.933,0,-0.035083,0,11315,50.837,0,0,0,0,0.010346,0
11150,54.3,19.933,0,-0.035083,0,11315,50.837,0,0,0,0,0.010346,0
11150,54.3,19.933,0,-0.035083,0,11315,50.837,0,0,0,0,0.010346,0
11150,54.3,19.933,0,-0.035083,0,11315,50.837,0,0,0,0,0.010346,0
11150,54.3,19.933,0,-0.035083,0,11315,50.837,0,0,0,0,0.010346,0
11152,54.3,19.93,0,-0.035493,0,11315,50.837,0,0,0,0,0.010472,0
11152,54.3,19.93,0,-0.035493,0,11315,50.837,0,0,0,0,0.010472,0
11152,54.3,19.93,0,-0.035493,0,11315,50.837,0,0,0,0,0.010472,0
11152,54.3,19.93,0,-0.035493,0,11315,50.837,0,0,0,0,0.010472,0
11152,54.3,19.93,0,-0.035493,0,11315,50.837,0,0,0,0,0.010472,0
11152,54.3,19.93,0,-0.035493,0,11315,50.837,0,0,0,0,0.010472,0
11152,54.3,19.93,0,-0.035493,0,11315,50.837,0,0,0,0,0.010472,0
11153,54.3,19.928,0,-0.035725,0,11315,50.837,0,0,0,0,0.01055,0
11153,54.3,19.928,0,-0.035725,0,11315,50.837,0,0,0,0,0.01055,0
11153,54.3,19.928,0,-0.035725,0,11315,50.837,0,0,0,0,0.01055,0
11155,54.3,19.924,0,-0.036099,0,11315,50.837,0,0,0,0,0.010681,0
11155,54.3,19.924,0,-0.036099,0,11315,50.837,0,0,0,0,0.010681,0
11156,54.3,19.922,0,-0.036314,0,11315,50.837,0,0,0,0,0.010762,0
11156,54.3,19.922,0,-0.036314,0,11315,50.837,0,0,0,0,0.010762,0
11156,54.3,19.922,0,-0.036314,0,11315,50.837,0,0,0,0,0.010762,0
11156,54.3,19.922,0,-0.036314,0,11315,50.837,0,0,0,0,0.010762,0
11156,54.3,19.922,0,-0.036314,0,11315,50.837,0,0,0,0,0.010762,0
11156,54.3,19.922,0,-0.036314,0,11315,50.837,0,0,0,0,0.010762,0
11157,54.3,19.921,0,-0.036384,0,11315,50.837,0,0,0,0,0.010789,0
11157,54.3,19.921,0,-0.036384,0,11315,50.837,0,0,0,0,0.010789,0
11157,54.3,19.921,0,-0.036384,0,11315,50.837,0,0,0,0,0.010789,0
11157,54.3,19.92,0,-0.036454,0,11315,50.837,0,0,0,0,0.010816,0
11158,54.3,19.92,0,-0.036524,0,11315,50.837,0,0,0,0,0.010844,0
11158,54.3,19.92,0,-0.036524,0,11315,50.837,0,0,0,0,0.010844,0
11158,54.3,19.918,0,-0.036658,0,11315,50.837,0,0,0,0,0.010899,0
11158,54.3,19.918,0,-0.036658,0,11315,50.837,0,0,0,0,0.010899,0
11159,54.3,19.917,0,-0.036792,0,11315,50.837,0,0,0,0,0.010955,0
11160,54.3,19.916,0,-0.036857,0,11315,50.837,0,0,0,0,0.010983,0
11160,54.3,19.916,0,-0.036857,0,11315,50.837,0,0,0,0,0.010983,0
11160,54.3,19.915,0,-0.036924,0,11315,50.837,0,0,0,0,0.011011,0
11160,54.3,19.915,0,-0.036924,0,11315,50.837,0,0,0,0,0.011011,0
11160,54.3,19.915,0,-0.036924,0,11315,50.837,0,0,0,0,0.011011,0
11160,54.3,19.915,0,-0.036924,0,11315,50.837,0,0,0,0,0.011011,0
11160,54.3,19.915,0,-0.036924,0,11315,50.837,0,0,0,0,0.011011,0
11160,54.3,19.915,0,-0.036924,0,11315,50.837,0,0,0,0,0.011011,0
11160,54.3,19.915,0,-0.036924,0,11315,50.837,0,0,0,0,0.011011,0
11160,54.3,19.915,0,-0.036989,0,11315,50.837,0,0,0,0,0.011039,0
11160,54.3,19.915,0,-0.036989,0,11315,50.837,0,0,0,0,0.011039,0
11160,54.3,19.915,0,-0.036989,0,11315,50.837,0,0,0,0,0.011039,0
11160,54.3,19.915,0,-0.036989,0,11315,50.837,0,0,0,0,0.011039,0
11160,54.3,19.915,0,-0.036989,0,11315,50.837,0,0,0,0,0.011039,0
11160,54.3,19.915,0,-0.036989,0,11315,50.837,0,0,0,0,0.011039,0
11160,54.3,19.915,0,-0.036989,0,11315,50.837,0,0,0,0,0.011039,0
11160,54.3,19.915,0,-0.036989,0,11315,50.837,0,0,0,0,0.011039,0
11160,54.3,19.915,0,-0.036989,0,11315,50.837,0,0,0,0,0.011039,0
11161,54.3,19.914,0,-0.037052,0,11315,50.837,0,0,0,0,0.011068,0
11161,54.3,19.914,0,-0.037052,0,11315,50.837,0,0,0,0,0.011068,0
11161,54.3,19.914,0,-0.037052,0,11315,50.837,0,0,0,0,0.011068,0
11161,54.3,19.914,0,-0.037052,0,11315,50.837,0,0,0,0,0.011068,0
11162,54.3,19.911,0,-0.0373,0,11315,50.837,0,0,0,0,0.011184,0
11162,54.3,19.911,0,-0.0373,0,11315,50.837,0,0,0,0,0.011184,0
11162,54.3,19.911,0,-0.0373,0,11315,50.837,0,0,0,0,0.011184,0
11162,54.3,19.911,0,-0.0373,0,11315,50.837,0,0,0,0,0.011184,0
11162,54.3,19.911,0,-0.0373,0,11315,50.837,0,0,0,0,0.011184,0
11164,54.3,19.909,0,-0.037485,0,11315,50.837,0,0,0,0,0.011272,0
11164,54.3,19.907,0,-0.037604,0,11315,50.837,0,0,0,0,0.011332,0
11164,54.3,19.907,0,-0.037604,0,11315,50.837,0,0,0,0,0.011332,0
11166,54.3,19.904,0,-0.037839,0,11315,50.837,0,0,0,0,0.011453,0
11166,54.3,19.904,0,-0.037839,0,11315,50.837,0,0,0,0,0.011453,0
11166,54.3,19.904,0,-0.037839,0,11315,50.837,0,0,0,0,0.011453,0
11166,54.3,19.904,0,-0.037839,0,11315,50.837,0,0,0,0,0.011453,0
11166,54.3,19.904,0,-0.037839,0,11315,50.837,0,0,0,0,0.011453,0
11166,54.3,19.904,0,-0.037839,0,11315,50.837,0,0,0,0,0.011453,0
11166,54.3,19.904,0,-0.037839,0,11315,50.837,0,0,0,0,0.011453,0
11166,54.3,19.904,0,-0.037839,0,11315,50.837,0,0,0,0,0.011453,0
11166,54.3,19.904,0,-0.037839,0,11315,50.837,0,0,0,0,0.011453,0
11166,54.3,19.904,0,-0.037839,0,11315,50.837,0,0,0,0,0.011453,0
11166,54.3,19.904,0,-0.037839,0,11315,50.837,0,0,0,0,0.011453,0
11166,54.3,19.904,0,-0.037839,0,11315,50.837,0,0,0,0,0.011453,0
11166,54.3,19.904,0,-0.037839,0,11315,50.837,0,0,0,0,0.011453,0
11166,54.3,19.904,0,-0.037839,0,11315,50.837,0,0,0,0,0.011453,0
11166,54.3,19.904,0,-0.037839,0,11315,50.837,0,0,0,0,0.011453,0
11166,54.3,19.904,0,-0.037839,0,11315,50.837,0,0,0,0,0.011453,0
11166,54.3,19.904,0,-0.037839,0,11315,50.837,0,0,0,0,0.011453,0
11166,54.3,19.904,0,-0.037839,0,11315,50.837,0,0,0,0,0.011453,0
11166,54.3,19.904,0,-0.037839,0,11315,50.837,0,0,0,0,0.011453,0
11166,54.3,19.904,0,-0.037839,0,11315,50.837,0,0,0,0,0.011453,0
11167,54.3,19.903,0,-0.037955,0,11315,50.837,0,0,0,0,0.011514,0
11167,54.3,19.903,0,-0.037955,0,11315,50.837,0,0,0,0,0.011514,0
11167,54.3,19.903,0,-0.037955,0,11315,50.837,0,0,0,0,0.011514,0
11167,54.3,19.903,0,-0.037955,0,11315,50.837,0,0,0,0,0.011514,0
11167,54.3,19.903,0,-0.037955,0,11315,50.837,0,0,0,0,0.011514,0
11167,54.3,19.903,0,-0.037955,0,11315,50.837,0,0,0,0,0.011514,0
11167,54.3,19.903,0,-0.037955,0,11315,50.837,0,0,0,0,0.011514,0
11169,54.3,19.899,0,-0.038236,0,11315,50.837,0,0,0,0,0.011671,0
11169,54.3,19.899,0,-0.038236,0,11315,50.837,0,0,0,0,0.011671,0
11170,54.3,19.897,0,-0.038345,0,11315,50.837,0,0,0,0,0.011735,0
11170,54.3,19.897,0,-0.038345,0,11315,50.837,0,0,0,0,0.011735,0
11171,54.3,19.895,0,-0.038508,0,11315,50.837,0,0,0,0,0.011832,0
11172,54.3,19.893,0,-0.038615,0,11315,50.837,0,0,0,0,0.011898,0
11172,54.3,19.893,0,-0.038615,0,11315,50.837,0,0,0,0,0.011898,0
11172,54.3,19.892,0,-0.038719,0,11315,50.837,0,0,0,0,0.011964,0
11172,54.3,19.892,0,-0.038719,0,11315,50.837,0,0,0,0,0.011964,0
11172,54.3,19.892,0,-0.038719,0,11315,50.837,0,0,0,0,0.011964,0
11172,54.3,19.892,0,-0.038719,0,11315,50.837,0,0,0,0,0.011964,0
11172,54.3,19.892,0,-0.038719,0,11315,50.837,0,0,0,0,0.011964,0
11172,54.3,19.892,0,-0.038719,0,11315,50.837,0,0,0,0,0.011964,0
11172,54.3,19.892,0,-0.038719,0,11315,50.837,0,0,0,0,0.011964,0
11172,54.3,19.892,0,-0.038719,0,11315,50.837,0,0,0,0,0.011964,0
11172,54.3,19.892,0,-0.038719,0,11315,50.837,0,0,0,0,0.011964,0
11172,54.3,19.892,0,-0.038719,0,11315,50.837,0,0,0,0,0.011964,0
11172,54.3,19.892,0,-0.038719,0,11315,50.837,0,0,0,0,0.011964,0
11172,54.3,19.892,0,-0.038719,0,11315,50.837,0,0,0,0,0.011964,0
11172,54.3,19.892,0,-0.038719,0,11315,50.837,0,0,0,0,0.011964,0
11172,54.3,19.892,0,-0.038719,0,11315,50.837,0,0,0,0,0.011964,0
11173,54.3,19.89,0,-0.038823,0,11315,50.837,0,0,0,0,0.012031,0
11173,54.3,19.89,0,-0.038823,0,11315,50.837,0,0,0,0,0.012031,0
11173,54.3,19.89,0,-0.038823,0,11315,50.837,0,0,0,0,0.012031,0
11173,54.3,19.89,0,-0.038823,0,11315,50.837,0,0,0,0,0.012031,0
11173,54.3,19.89,0,-0.038823,0,11315,50.837,0,0,0,0,0.012031,0
11173,54.3,19.89,0,-0.038823,0,11315,50.837,0,0,0,0,0.012031,0
11173,54.3,19.89,0,-0.038823,0,11315,50.837,0,0,0,0,0.012031,0
11174,54.3,19.889,0,-0.038875,0,11315,50.837,0,0,0,0,0.012065,0
11174,54.3,19.889,0,-0.038875,0,11315,50.837,0,0,0,0,0.012065,0
11174,54.3,19.889,0,-0.038875,0,11315,50.837,0,0,0,0,0.012065,0
11174,54.3,19.889,0,-0.038875,0,11315,50.837,0,0,0,0,0.012065,0
11174,54.3,19.889,0,-0.038875,0,11315,50.837,0,0,0,0,0.012065,0
11176,54.3,19.885,0,-0.039178,0,11315,50.837,0,0,0,0,0.012272,0
11176,54.3,19.885,0,-0.039178,0,11315,50.837,0,0,0,0,0.012272,0
11176,54.3,19.884,0,-0.039228,0,11315,50.837,0,0,0,0,0.012308,0
11176,54.3,19.884,0,-0.039228,0,11315,50.837,0,0,0,0,0.012308,0
11176,54.3,19.884,0,-0.039228,0,11315,50.837,0,0,0,0,0.012308,0
11176,54.3,19.884,0,-0.039228,0,11315,50.837,0,0,0,0,0.012308,0
11176,54.3,19.884,0,-0.039228,0,11315,50.837,0,0,0,0,0.012308,0
11178,54.3,19.88,0,-0.03947,0,11315,50.837,0,0,0,0,0.012487,0
11178,54.3,19.88,0,-0.03947,0,11315,50.837,0,0,0,0,0.012487,0
11178,54.3,19.88,0,-0.03947,0,11315,50.837,0,0,0,0,0.012487,0
11178,54.3,19.88,0,-0.03947,0,11315,50.837,0,0,0,0,0.012487,0
11178,54.3,19.88,0,-0.03947,0,11315,50.837,0,0,0,0,0.012487,0
11180,54.3,19.877,0,-0.03966,0,11315,50.837,0,0,0,0,0.012634,0
11180,54.3,19.877,0,-0.03966,0,11315,50.837,0,0,0,0,0.012634,0
11180,54.3,19.877,0,-0.03966,0,11315,50.837,0,0,0,0,0.012634,0
11180,54.3,19.877,0,-0.03966,0,11315,50.837,0,0,0,0,0.012634,0
11180,54.3,19.877,0,-0.03966,0,11315,50.837,0,0,0,0,0.012634,0
11180,54.3,19.877,0,-0.03966,0,11315,50.837,0,0,0,0,0.012634,0
11180,54.3,19.877,0,-0.03966,0,11315,50.837,0,0,0,0,0.012634,0
11180,54.3,19.877,0,-0.03966,0,11315,50.837,0,0,0,0,0.012634,0
11180,54.3,19.877,0,-0.03966,0,11315,50.837,0,0,0,0,0.012634,0
11180,54.3,19.876,0,-0.039708,0,11315,50.837,0,0,0,0,0.012671,0
11180,54.3,19.876,0,-0.039708,0,11315,50.837,0,0,0,0,0.012671,0
11181,54.3,19.875,0,-0.039754,0,11315,50.837,0,0,0,0,0.012709,0
11181,54.3,19.875,0,-0.039754,0,11315,50.837,0,0,0,0,0.012709,0
11181,54.3,19.875,0,-0.039754,0,11315,50.837,0,0,0,0,0.012709,0
11181,54.3,19.875,0,-0.039754,0,11315,50.837,0,0,0,0,0.012709,0
11181,54.3,19.875,0,-0.039754,0,11315,50.837,0,0,0,0,0.012709,0
11181,54.3,19.875,0,-0.039754,0,11315,50.837,0,0,0,0,0.012709,0
11181,54.3,19.875,0,-0.039802,0,11315,50.837,0,0,0,0,0.012747,0
11183,54.3,19.871,0,-0.039986,0,11315,50.837,0,0,0,0,0.0129,0
11183,54.3,19.871,0,-0.039986,0,11315,50.837,0,0,0,0,0.0129,0
11183,54.3,19.871,0,-0.039986,0,11315,50.837,0,0,0,0,0.0129,0
11183,54.3,19.871,0,-0.039986,0,11315,50.837,0,0,0,0,0.0129,0
11183,54.3,19.871,0,-0.039986,0,11315,50.837,0,0,0,0,0.0129,0
11184,54.3,19.869,0,-0.040121,0,11315,50.837,0,0,0,0,0.013017,0
11184,54.3,19.869,0,-0.040121,0,11315,50.837,0,0,0,0,0.013017,0
11184,54.3,19.869,0,-0.040121,0,11315,50.837,0,0,0,0,0.013017,0
11184,54.3,19.869,0,-0.040121,0,11315,50.837,0,0,0,0,0.013017,0
11184,54.3,19.869,0,-0.040121,0,11315,50.837,0,0,0,0,0.013017,0
11184,54.3,19.869,0,-0.040121,0,11315,50.837,0,0,0,0,0.013017,0
11184,54.3,19.869,0,-0.040121,0,11315,50.837,0,0,0,0,0.013017,0
11184,54.3,19.869,0,-0.040121,0,11315,50.837,0,0,0,0,0.013017,0
11184,54.3,19.869,0,-0.040121,0,11315,50.837,0,0,0,0,0.013017,0
11184,54.3,19.869,0,-0.040121,0,11315,50.837,0,0,0,0,0.013017,0
11186,54.3,19.866,0,-0.040304,0,11315,50.837,0,0,0,0,0.013177,0
11186,54.3,19.866,0,-0.040304,0,11315,50.837,0,0,0,0,0.013177,0
11186,54.3,19.866,0,-0.040304,0,11315,50.837,0,0,0,0,0.013177,0
11186,54.3,19.866,0,-0.040304,0,11315,50.837,0,0,0,0,0.013177,0
11186,54.3,19.866,0,-0.040304,0,11315,50.837,0,0,0,0,0.013177,0
11186,54.3,19.866,0,-0.040304,0,11315,50.837,0,0,0,0,0.013177,0
11186,54.3,19.865,0,-0.040348,0,11315,50.837,0,0,0,0,0.013218,0
11186,54.3,19.865,0,-0.040348,0,11315,50.837,0,0,0,0,0.013218,0
11186,54.3,19.865,0,-0.040348,0,11315,50.837,0,0,0,0,0.013218,0
11186,54.3,19.865,0,-0.040348,0,11315,50.837,0,0,0,0,0.013218,0
11186,54.3,19.865,0,-0.040348,0,11315,50.837,0,0,0,0,0.013218,0
11186,54.3,19.865,0,-0.040348,0,11315,50.837,0,0,0,0,0.013218,0
11186,54.3,19.865,0,-0.040348,0,11315,50.837,0,0,0,0,0.013218,0
11186,54.3,19.865,0,-0.040348,0,11315,50.837,0,0,0,0,0.013218,0
11186,54.3,19.865,0,-0.040348,0,11315,50.837,0,0,0,0,0.013218,0
11186,54.3,19.865,0,-0.040348,0,11315,50.837,0,0,0,0,0.013218,0
11186,54.3,19.865,0,-0.040348,0,11315,50.837,0,0,0,0,0.013218,0
11186,54.3,19.865,0,-0.040348,0,11315,50.837,0,0,0,0,0.013218,0
11189,54.3,19.859,0,-0.040656,0,11315,50.837,0,0,0,0,0.013509,0
11189,54.3,19.859,0,-0.040656,0,11315,50.837,0,0,0,0,0.013509,0
11189,54.3,19.859,0,-0.040656,0,11315,50.837,0,0,0,0,0.013509,0
11190,54.3,19.856,0,-0.040826,0,11315,50.837,0,0,0,0,0.013681,0
11190,54.3,19.856,0,-0.040826,0,11315,50.837,0,0,0,0,0.013681,0
11190,54.3,19.856,0,-0.040826,0,11315,50.837,0,0,0,0,0.013681,0
11190,54.3,19.856,0,-0.040826,0,11315,50.837,0,0,0,0,0.013681,0
11190,54.3,19.856,0,-0.040826,0,11315,50.837,0,0,0,0,0.013681,0
11190,54.3,19.856,0,-0.040826,0,11315,50.837,0,0,0,0,0.013681,0
11190,54.3,19.856,0,-0.040826,0,11315,50.837,0,0,0,0,0.013681,0
11190,54.3,19.856,0,-0.040826,0,11315,50.837,0,0,0,0,0.013681,0
11190,54.3,19.856,0,-0.040826,0,11315,50.837,0,0,0,0,0.013681,0
11190,54.3,19.856,0,-0.040826,0,11315,50.837,0,0,0,0,0.013681,0
11190,54.3,19.856,0,-0.040826,0,11315,50.837,0,0,0,0,0.013681,0
11191,54.3,19.854,0,-0.040954,0,11315,50.837,0,0,0,0,0.013813,0
11191,54.3,19.854,0,-0.040954,0,11315,50.837,0,0,0,0,0.013813,0
11191,54.3,19.854,0,-0.040954,0,11315,50.837,0,0,0,0,0.013813,0
11191,54.3,19.854,0,-0.040954,0,11315,50.837,0,0,0,0,0.013813,0
11191,54.3,19.854,0,-0.040954,0,11315,50.837,0,0,0,0,0.013813,0
11191,54.3,19.854,0,-0.040954,0,11315,50.837,0,0,0,0,0.013813,0
11191,54.3,19.854,0,-0.040954,0,11315,50.837,0,0,0,0,0.013813,0
11191,54.3,19.854,0,-0.040954,0,11315,50.837,0,0,0,0,0.013813,0
11191,54.3,19.854,0,-0.040954,0,11315,50.837,0,0,0,0,0.013813,0
11191,54.3,19.854,0,-0.040954,0,11315,50.837,0,0,0,0,0.013813,0
11191,54.3,19.854,0,-0.040954,0,11315,50.837,0,0,0,0,0.013813,0
11191,54.3,19.854,0,-0.040954,0,11315,50.837,0,0,0,0,0.013813,0
11192,54.3,19.852,0,-0.041038,0,11315,50.837,0,0,0,0,0.013902,0
11192,54.3,19.852,0,-0.041038,0,11315,50.837,0,0,0,0,0.013902,0
11192,54.3,19.852,0,-0.041038,0,11315,50.837,0,0,0,0,0.013902,0
11195,54.3,19.845,0,-0.041365,0,11315,50.837,0,0,0,0,0.014272,0
11196,54.3,19.844,0,-0.041444,0,11315,50.837,0,0,0,0,0.014367,0
11197,54.3,19.843,0,-0.041484,0,11315,50.837,0,0,0,0,0.014415,0
11197,54.3,19.843,0,-0.041484,0,11315,50.837,0,0,0,0,0.014415,0
11197,54.3,19.843,0,-0.041484,0,11315,50.837,0,0,0,0,0.014415,0
11197,54.3,19.843,0,-0.041484,0,11315,50.837,0,0,0,0,0.014415,0
11197,54.3,19.843,0,-0.041484,0,11315,50.837,0,0,0,0,0.014415,0
11197,54.3,19.843,0,-0.041484,0,11315,50.837,0,0,0,0,0.014415,0
11197,54.3,19.843,0,-0.041484,0,11315,50.837,0,0,0,0,0.014415,0
11197,54.3,19.843,0,-0.041484,0,11315,50.837,0,0,0,0,0.014415,0
11197,54.3,19.843,0,-0.041484,0,11315,50.837,0,0,0,0,0.014415,0
11197,54.3,19.843,0,-0.041484,0,11315,50.837,0,0,0,0,0.014415,0
11197,54.3,19.843,0,-0.041484,0,11315,50.837,0,0,0,0,0.014415,0
11197,54.3,19.843,0,-0.041484,0,11315,50.837,0,0,0,0,0.014415,0
11197,54.3,19.843,0,-0.041484,0,11315,50.837,0,0,0,0,0.014415,0
11197,54.3,19.843,0,-0.041484,0,11315,50.837,0,0,0,0,0.014415,0
11197,54.3,19.843,0,-0.041484,0,11315,50.837,0,0,0,0,0.014415,0
11197,54.3,19.843,0,-0.041484,0,11315,50.837,0,0,0,0,0.014415,0
11197,54.3,19.843,0,-0.041484,0,11315,50.837,0,0,0,0,0.014415,0
11197,54.3,19.843,0,-0.041484,0,11315,50.837,0,0,0,0,0.014415,0
11197,54.3,19.843,0,-0.041484,0,11315,50.837,0,0,0,0,0.014415,0
11197,54.3,19.843,0,-0.041484,0,11315,50.837,0,0,0,0,0.014415,0
11197,54.3,19.841,0,-0.041564,0,11315,50.837,0,0,0,0,0.014513,0
11197,54.3,19.841,0,-0.041564,0,11315,50.837,0,0,0,0,0.014513,0
11197,54.3,19.841,0,-0.041564,0,11315,50.837,0,0,0,0,0.014513,0
11197,54.3,19.841,0,-0.041564,0,11315,50.837,0,0,0,0,0.014513,0
11197,54.3,19.841,0,-0.041564,0,11315,50.837,0,0,0,0,0.014513,0
11197,54.3,19.841,0,-0.041564,0,11315,50.837,0,0,0,0,0.014513,0
11197,54.3,19.841,0,-0.041564,0,11315,50.837,0,0,0,0,0.014513,0
11199,54.3,19.838,0,-0.041723,0,11315,50.837,0,0,0,0,0.014711,0
11201,54.3,19.834,0,-0.041878,0,11315,50.837,0,0,0,0,0.014915,0
11201,54.3,19.834,0,-0.041878,0,11315,50.837,0,0,0,0,0.014915,0
11202,54.3,19.831,0,-0.042029,0,11315,50.837,0,0,0,0,0.015125,0
11202,54.3,19.831,0,-0.042029,0,11315,50.837,0,0,0,0,0.015125,0
11202,54.3,19.831,0,-0.042029,0,11315,50.837,0,0,0,0,0.015125,0
11202,54.3,19.831,0,-0.042029,0,11315,50.837,0,0,0,0,0.015125,0
11202,54.3,19.831,0,-0.042029,0,11315,50.837,0,0,0,0,0.015125,0
11202,54.3,19.831,0,-0.042029,0,11315,50.837,0,0,0,0,0.015125,0
11202,54.3,19.831,0,-0.042029,0,11315,50.837,0,0,0,0,0.015125,0
11202,54.3,19.831,0,-0.042029,0,11315,50.837,0,0,0,0,0.015125,0
11202,54.3,19.831,0,-0.042029,0,11315,50.837,0,0,0,0,0.015125,0
11202,54.3,19.831,0,-0.042029,0,11315,50.837,0,0,0,0,0.015125,0
11202,54.3,19.831,0,-0.042029,0,11315,50.837,0,0,0,0,0.015125,0
11203,54.3,19.829,0,-0.042103,0,11315,50.837,0,0,0,0,0.015232,0
11203,54.3,19.829,0,-0.042103,0,11315,50.837,0,0,0,0,0.015232,0
11203,54.3,19.829,0,-0.042103,0,11315,50.837,0,0,0,0,0.015232,0
11203,54.3,19.829,0,-0.042103,0,11315,50.837,0,0,0,0,0.015232,0
11203,54.3,19.829,0,-0.042103,0,11315,50.837,0,0,0,0,0.015232,0
11203,54.3,19.829,0,-0.042103,0,11315,50.837,0,0,0,0,0.015232,0
11203,54.3,19.829,0,-0.042103,0,11315,50.837,0,0,0,0,0.015232,0
11203,54.3,19.829,0,-0.042103,0,11315,50.837,0,0,0,0,0.015232,0
11203,54.3,19.829,0,-0.042103,0,11315,50.837,0,0,0,0,0.015232,0
11203,54.3,19.829,0,-0.042103,0,11315,50.837,0,0,0,0,0.015232,0
11203,54.3,19.829,0,-0.042103,0,11315,50.837,0,0,0,0,0.015232,0
11204,54.3,19.828,0,-0.042179,0,11315,50.837,0,0,0,0,0.015341,0
11205,54.3,19.824,0,-0.042327,0,11315,50.837,0,0,0,0,0.015563,0
11207,54.3,19.821,0,-0.042473,0,11315,50.837,0,0,0,0,0.015791,0
11207,54.3,19.821,0,-0.042473,0,11315,50.837,0,0,0,0,0.015791,0
11207,54.3,19.821,0,-0.042473,0,11315,50.837,0,0,0,0,0.015791,0
11207,54.3,19.821,0,-0.042473,0,11315,50.837,0,0,0,0,0.015791,0
11207,54.3,19.821,0,-0.042473,0,11315,50.837,0,0,0,0,0.015791,0
11207,54.3,19.821,0,-0.042473,0,11315,50.837,0,0,0,0,0.015791,0
11207,54.3,19.821,0,-0.042473,0,11315,50.837,0,0,0,0,0.015791,0
11207,54.3,19.821,0,-0.042473,0,11315,50.837,0,0,0,0,0.015791,0
11207,54.3,19.821,0,-0.042473,0,11315,50.837,0,0,0,0,0.015791,0
11207,54.3,19.821,0,-0.042473,0,11315,50.837,0,0,0,0,0.015791,0
11207,54.3,19.821,0,-0.042473,0,11315,50.837,0,0,0,0,0.015791,0
11207,54.3,19.821,0,-0.042473,0,11315,50.837,0,0,0,0,0.015791,0
11208,54.3,19.818,0,-0.04258,0,11315,50.837,0,0,0,0,0.015967,0
11208,54.3,19.818,0,-0.04258,0,11315,50.837,0,0,0,0,0.015967,0
11208,54.3,19.818,0,-0.04258,0,11315,50.837,0,0,0,0,0.015967,0
11208,54.3,19.818,0,-0.04258,0,11315,50.837,0,0,0,0,0.015967,0
11208,54.3,19.818,0,-0.04258,0,11315,50.837,0,0,0,0,0.015967,0
11208,54.3,19.818,0,-0.04258,0,11315,50.837,0,0,0,0,0.015967,0
11208,54.3,19.818,0,-0.04258,0,11315,50.837,0,0,0,0,0.015967,0
11208,54.3,19.818,0,-0.04258,0,11315,50.837,0,0,0,0,0.015967,0
11208,54.3,19.818,0,-0.04258,0,11315,50.837,0,0,0,0,0.015967,0
11208,54.3,19.818,0,-0.04258,0,11315,50.837,0,0,0,0,0.015967,0
11208,54.3,19.818,0,-0.04258,0,11315,50.837,0,0,0,0,0.015967,0
11208,54.3,19.818,0,-0.04258,0,11315,50.837,0,0,0,0,0.015967,0
11208,54.3,19.818,0,-0.04258,0,11315,50.837,0,0,0,0,0.015967,0
11208,54.3,19.818,0,-0.04258,0,11315,50.837,0,0,0,0,0.015967,0
11210,54.3,19.814,0,-0.042757,0,11315,50.837,0,0,0,0,0.016269,0
11211,54.3,19.812,0,-0.04286,0,11315,50.837,0,0,0,0,0.016455,0
11211,54.3,19.812,0,-0.04286,0,11315,50.837,0,0,0,0,0.016455,0
11211,54.3,19.812,0,-0.04286,0,11315,50.837,0,0,0,0,0.016455,0
11211,54.3,19.812,0,-0.04286,0,11315,50.837,0,0,0,0,0.016455,0
11211,54.3,19.812,0,-0.04286,0,11315,50.837,0,0,0,0,0.016455,0
11211,54.3,19.812,0,-0.04286,0,11315,50.837,0,0,0,0,0.016455,0
11211,54.3,19.812,0,-0.04286,0,11315,50.837,0,0,0,0,0.016455,0
11211,54.3,19.812,0,-0.04286,0,11315,50.837,0,0,0,0,0.016455,0
11211,54.3,19.812,0,-0.04286,0,11315,50.837,0,0,0,0,0.016455,0
11211,54.3,19.812,0,-0.04286,0,11315,50.837,0,0,0,0,0.016455,0
11213,54.3,19.807,0,-0.043031,0,11315,50.837,0,0,0,0,0.016776,0
11213,54.3,19.807,0,-0.043031,0,11315,50.837,0,0,0,0,0.016776,0
11213,54.3,19.807,0,-0.043031,0,11315,50.837,0,0,0,0,0.016776,0
11213,54.3,19.807,0,-0.043031,0,11315,50.837,0,0,0,0,0.016776,0
11213,54.3,19.807,0,-0.043031,0,11315,50.837,0,0,0,0,0.016776,0
11213,54.3,19.807,0,-0.043031,0,11315,50.837,0,0,0,0,0.016776,0
11213,54.3,19.807,0,-0.043031,0,11315,50.837,0,0,0,0,0.016776,0
11213,54.3,19.807,0,-0.043031,0,11315,50.837,0,0,0,0,0.016776,0
11213,54.3,19.807,0,-0.043031,0,11315,50.837,0,0,0,0,0.016776,0
11213,54.3,19.807,0,-0.043031,0,11315,50.837,0,0,0,0,0.016776,0
11213,54.3,19.807,0,-0.043031,0,11315,50.837,0,0,0,0,0.016776,0
11213,54.3,19.807,0,-0.043031,0,11315,50.837,0,0,0,0,0.016776,0
11215,54.3,19.803,0,-0.043199,0,11315,50.837,0,0,0,0,0.017109,0
11215,54.3,19.803,0,-0.043199,0,11315,50.837,0,0,0,0,0.017109,0
11215,54.3,19.803,0,-0.043199,0,11315,50.837,0,0,0,0,0.017109,0
11217,54.3,19.799,0,-0.043362,0,11315,50.837,0,0,0,0,0.017456,0
11217,54.3,19.799,0,-0.043362,0,11315,50.837,0,0,0,0,0.017456,0
11217,54.3,19.799,0,-0.043362,0,11315,50.837,0,0,0,0,0.017456,0
11218,54.3,19.798,0,-0.043395,0,11315,50.837,0,0,0,0,0.017527,0
11218,54.3,19.798,0,-0.043395,0,11315,50.837,0,0,0,0,0.017527,0
11218,54.3,19.798,0,-0.043395,0,11315,50.837,0,0,0,0,0.017527,0
11218,54.3,19.798,0,-0.043395,0,11315,50.837,0,0,0,0,0.017527,0
11218,54.3,19.798,0,-0.043395,0,11315,50.837,0,0,0,0,0.017527,0
11218,54.3,19.798,0,-0.043395,0,11315,50.837,0,0,0,0,0.017527,0
11218,54.3,19.797,0,-0.043426,0,11315,50.837,0,0,0,0,0.017598,0
11218,54.3,19.797,0,-0.043426,0,11315,50.837,0,0,0,0,0.017598,0
11218,54.3,19.797,0,-0.043426,0,11315,50.837,0,0,0,0,0.017598,0
11218,54.3,19.797,0,-0.043426,0,11315,50.837,0,0,0,0,0.017598,0
11218,54.3,19.797,0,-0.043426,0,11315,50.837,0,0,0,0,0.017598,0
11218,54.3,19.797,0,-0.043426,0,11315,50.837,0,0,0,0,0.017598,0
11218,54.3,19.797,0,-0.043426,0,11315,50.837,0,0,0,0,0.017598,0
11218,54.3,19.797,0,-0.043426,0,11315,50.837,0,0,0,0,0.017598,0
11218,54.3,19.797,0,-0.043426,0,11315,50.837,0,0,0,0,0.017598,0
11219,54.3,19.795,0,-0.04349,0,11315,50.837,0,0,0,0,0.017743,0
11219,54.3,19.795,0,-0.04349,0,11315,50.837,0,0,0,0,0.017743,0
11220,54.3,19.793,0,-0.043585,0,11315,50.837,0,0,0,0,0.017965,0
11220,54.3,19.793,0,-0.043585,0,11315,50.837,0,0,0,0,0.017965,0
11220,54.3,19.793,0,-0.043585,0,11315,50.837,0,0,0,0,0.017965,0
11220,54.3,19.793,0,-0.043585,0,11315,50.837,0,0,0,0,0.017965,0
11221,54.3,19.79,0,-0.043677,0,11315,50.837,0,0,0,0,0.018193,0
11221,54.3,19.79,0,-0.043677,0,11315,50.837,0,0,0,0,0.018193,0
11221,54.3,19.79,0,-0.043677,0,11315,50.837,0,0,0,0,0.018193,0
11221,54.3,19.79,0,-0.043677,0,11315,50.837,0,0,0,0,0.018193,0
11221,54.3,19.79,0,-0.043677,0,11315,50.837,0,0,0,0,0.018193,0
11223,54.3,19.786,0,-0.043804,0,11315,50.837,0,0,0,0,0.018505,0
11223,54.3,19.786,0,-0.043804,0,11315,50.837,0,0,0,0,0.018505,0
11223,54.3,19.786,0,-0.043834,0,11315,50.837,0,0,0,0,0.018585,0
11223,54.3,19.786,0,-0.043834,0,11315,50.837,0,0,0,0,0.018585,0
11223,54.3,19.786,0,-0.043834,0,11315,50.837,0,0,0,0,0.018585,0
11224,54.3,19.785,0,-0.043864,0,11315,50.837,0,0,0,0,0.018665,0
11224,54.3,19.785,0,-0.043864,0,11315,50.837,0,0,0,0,0.018665,0
11224,54.3,19.785,0,-0.043864,0,11315,50.837,0,0,0,0,0.018665,0
11224,54.3,19.785,0,-0.043864,0,11315,50.837,0,0,0,0,0.018665,0
11224,54.3,19.785,0,-0.043864,0,11315,50.837,0,0,0,0,0.018665,0
11224,54.3,19.785,0,-0.043864,0,11315,50.837,0,0,0,0,0.018665,0
11224,54.3,19.785,0,-0.043864,0,11315,50.837,0,0,0,0,0.018665,0
11224,54.3,19.785,0,-0.043864,0,11315,50.837,0,0,0,0,0.018665,0
11224,54.3,19.785,0,-0.043864,0,11315,50.837,0,0,0,0,0.018665,0
11224,54.3,19.785,0,-0.043864,0,11315,50.837,0,0,0,0,0.018665,0
11224,54.3,19.785,0,-0.043864,0,11315,50.837,0,0,0,0,0.018665,0
11225,54.3,19.782,0,-0.043956,0,11315,50.837,0,0,0,0,0.018911,0
11225,54.3,19.781,0,-0.043986,0,11315,50.837,0,0,0,0,0.018994,0
11226,54.3,19.78,0,-0.044015,0,11315,50.837,0,0,0,0,0.019078,0
11226,54.3,19.78,0,-0.044015,0,11315,50.837,0,0,0,0,0.019078,0
11227,54.3,19.778,0,-0.044104,0,11315,50.837,0,0,0,0,0.019335,0
11227,54.3,19.778,0,-0.044104,0,11315,50.837,0,0,0,0,0.019335,0
11227,54.3,19.778,0,-0.044104,0,11315,50.837,0,0,0,0,0.019335,0
11228,54.3,19.776,0,-0.044162,0,11315,50.837,0,0,0,0,0.01951,0
11228,54.3,19.776,0,-0.044162,0,11315,50.837,0,0,0,0,0.01951,0
11228,54.3,19.776,0,-0.044162,0,11315,50.837,0,0,0,0,0.01951,0
11228,54.3,19.776,0,-0.044162,0,11315,50.837,0,0,0,0,0.01951,0
11228,54.3,19.776,0,-0.044162,0,11315,50.837,0,0,0,0,0.01951,0
11228,54.3,19.776,0,-0.044162,0,11315,50.837,0,0,0,0,0.01951,0
11228,54.3,19.776,0,-0.044162,0,11315,50.837,0,0,0,0,0.01951,0
11228,54.3,19.776,0,-0.044162,0,11315,50.837,0,0,0,0,0.01951,0
11228,54.3,19.776,0,-0.044162,0,11315,50.837,0,0,0,0,0.01951,0
11228,54.3,19.776,0,-0.044162,0,11315,50.837,0,0,0,0,0.01951,0
11228,54.3,19.776,0,-0.044162,0,11315,50.837,0,0,0,0,0.01951,0
11228,54.3,19.776,0,-0.044162,0,11315,50.837,0,0,0,0,0.01951,0
11228,54.3,19.776,0,-0.044162,0,11315,50.837,0,0,0,0,0.01951,0
11228,54.3,19.776,0,-0.044162,0,11315,50.837,0,0,0,0,0.01951,0
11228,54.3,19.776,0,-0.044162,0,11315,50.837,0,0,0,0,0.01951,0
11228,54.3,19.776,0,-0.044162,0,11315,50.837,0,0,0,0,0.01951,0
11228,54.3,19.776,0,-0.044162,0,11315,50.837,0,0,0,0,0.01951,0
11228,54.3,19.776,0,-0.044162,0,11315,50.837,0,0,0,0,0.01951,0
11228,54.3,19.776,0,-0.044162,0,11315,50.837,0,0,0,0,0.01951,0
11230,54.3,19.771,0,-0.044331,0,11315,50.837,0,0,0,0,0.020054,0
11231,54.3,19.768,0,-0.044415,0,11315,50.837,0,0,0,0,0.020337,0
11231,54.3,19.768,0,-0.044415,0,11315,50.837,0,0,0,0,0.020337,0
11231,54.3,19.768,0,-0.044415,0,11315,50.837,0,0,0,0,0.020337,0
11231,54.3,19.768,0,-0.044415,0,11315,50.837,0,0,0,0,0.020337,0
11231,54.3,19.768,0,-0.044415,0,11315,50.837,0,0,0,0,0.020337,0
11231,54.3,19.768,0,-0.044415,0,11315,50.837,0,0,0,0,0.020337,0
11231,54.3,19.768,0,-0.044415,0,11315,50.837,0,0,0,0,0.020337,0
11231,54.3,19.768,0,-0.044415,0,11315,50.837,0,0,0,0,0.020337,0
11231,54.3,19.768,0,-0.044415,0,11315,50.837,0,0,0,0,0.020337,0
11231,54.3,19.768,0,-0.044415,0,11315,50.837,0,0,0,0,0.020337,0
11231,54.3,19.768,0,-0.044415,0,11315,50.837,0,0,0,0,0.020337,0
11231,54.3,19.768,0,-0.044415,0,11315,50.837,0,0,0,0,0.020337,0
11233,54.3,19.764,0,-0.044524,0,11315,50.837,0,0,0,0,0.020728,0
11233,54.3,19.764,0,-0.044524,0,11315,50.837,0,0,0,0,0.020728,0
11233,54.3,19.764,0,-0.044524,0,11315,50.837,0,0,0,0,0.020728,0
11233,54.3,19.764,0,-0.044524,0,11315,50.837,0,0,0,0,0.020728,0
11233,54.3,19.764,0,-0.044524,0,11315,50.837,0,0,0,0,0.020728,0
11233,54.3,19.764,0,-0.044524,0,11315,50.837,0,0,0,0,0.020728,0
11233,54.3,19.764,0,-0.044524,0,11315,50.837,0,0,0,0,0.020728,0
11233,54.3,19.764,0,-0.044524,0,11315,50.837,0,0,0,0,0.020728,0
11233,54.3,19.764,0,-0.044524,0,11315,50.837,0,0,0,0,0.020728,0
11233,54.3,19.764,0,-0.044524,0,11315,50.837,0,0,0,0,0.020728,0
11233,54.3,19.764,0,-0.044524,0,11315,50.837,0,0,0,0,0.020728,0
11233,54.3,19.764,0,-0.044524,0,11315,50.837,0,0,0,0,0.020728,0
11233,54.3,19.764,0,-0.044524,0,11315,50.837,0,0,0,0,0.020728,0
11233,54.3,19.763,0,-0.044578,0,11315,50.837,0,0,0,0,0.020929,0
11233,54.3,19.763,0,-0.044578,0,11315,50.837,0,0,0,0,0.020929,0
11235,54.3,19.759,0,-0.044683,0,11315,50.837,0,0,0,0,0.021343,0
11237,54.3,19.755,0,-0.044787,0,11315,50.837,0,0,0,0,0.021773,0
11237,54.3,19.755,0,-0.044787,0,11315,50.837,0,0,0,0,0.021773,0
11237,54.3,19.755,0,-0.044787,0,11315,50.837,0,0,0,0,0.021773,0
11238,54.3,19.753,0,-0.044865,0,11315,50.837,0,0,0,0,0.022107,0
11238,54.3,19.753,0,-0.044865,0,11315,50.837,0,0,0,0,0.022107,0
11238,54.3,19.753,0,-0.044865,0,11315,50.837,0,0,0,0,0.022107,0
11238,54.3,19.753,0,-0.044865,0,11315,50.837,0,0,0,0,0.022107,0
11238,54.3,19.753,0,-0.044865,0,11315,50.837,0,0,0,0,0.022107,0
11238,54.3,19.753,0,-0.044865,0,11315,50.837,0,0,0,0,0.022107,0
11238,54.3,19.753,0,-0.044865,0,11315,50.837,0,0,0,0,0.022107,0
11238,54.3,19.753,0,-0.044865,0,11315,50.837,0,0,0,0,0.022107,0
11238,54.3,19.753,0,-0.044865,0,11315,50.837,0,0,0,0,0.022107,0
11238,54.3,19.753,0,-0.044865,0,11315,50.837,0,0,0,0,0.022107,0
11238,54.3,19.753,0,-0.044865,0,11315,50.837,0,0,0,0,0.022107,0
11238,54.3,19.753,0,-0.044865,0,11315,50.837,0,0,0,0,0.022107,0
11238,54.3,19.753,0,-0.044865,0,11315,50.837,0,0,0,0,0.022107,0
11238,54.3,19.753,0,-0.044865,0,11315,50.837,0,0,0,0,0.022107,0
11238,54.3,19.753,0,-0.044865,0,11315,50.837,0,0,0,0,0.022107,0
11238,54.3,19.753,0,-0.044865,0,11315,50.837,0,0,0,0,0.022107,0
11238,54.3,19.753,0,-0.044865,0,11315,50.837,0,0,0,0,0.022107,0
11238,54.3,19.753,0,-0.044865,0,11315,50.837,0,0,0,0,0.022107,0
11239,54.3,19.751,0,-0.044916,0,11315,50.837,0,0,0,0,0.022336,0
11239,54.3,19.751,0,-0.044916,0,11315,50.837,0,0,0,0,0.022336,0
11239,54.3,19.751,0,-0.044916,0,11315,50.837,0,0,0,0,0.022336,0
11239,54.3,19.751,0,-0.044916,0,11315,50.837,0,0,0,0,0.022336,0
11239,54.3,19.751,0,-0.044916,0,11315,50.837,0,0,0,0,0.022336,0
11239,54.3,19.751,0,-0.044916,0,11315,50.837,0,0,0,0,0.022336,0
11239,54.3,19.751,0,-0.044916,0,11315,50.837,0,0,0,0,0.022336,0
11241,54.3,19.746,0,-0.045038,0,11315,50.837,0,0,0,0,0.022928,0
11241,54.3,19.746,0,-0.045038,0,11315,50.837,0,0,0,0,0.022928,0
11241,54.3,19.745,0,-0.045086,0,11315,50.837,0,0,0,0,0.023174,0
11243,54.3,19.742,0,-0.045158,0,11315,50.837,0,0,0,0,0.023553,0
11243,54.3,19.742,0,-0.045158,0,11315,50.837,0,0,0,0,0.023553,0
11243,54.3,19.742,0,-0.045158,0,11315,50.837,0,0,0,0,0.023553,0
11243,54.3,19.742,0,-0.045158,0,11315,50.837,0,0,0,0,0.023553,0
11243,54.3,19.742,0,-0.045158,0,11315,50.837,0,0,0,0,0.023553,0
11243,54.3,19.742,0,-0.045158,0,11315,50.837,0,0,0,0,0.023553,0
11243,54.3,19.742,0,-0.045158,0,11315,50.837,0,0,0,0,0.023553,0
11243,54.3,19.742,0,-0.045158,0,11315,50.837,0,0,0,0,0.023553,0
11243,54.3,19.742,0,-0.045158,0,11315,50.837,0,0,0,0,0.023553,0
11243,54.3,19.742,0,-0.045158,0,11315,50.837,0,0,0,0,0.023553,0
11243,54.3,19.742,0,-0.045158,0,11315,50.837,0,0,0,0,0.023553,0
11243,54.3,19.742,0,-0.045158,0,11315,50.837,0,0,0,0,0.023553,0
11243,54.3,19.742,0,-0.045158,0,11315,50.837,0,0,0,0,0.023553,0
11243,54.3,19.742,0,-0.045158,0,11315,50.837,0,0,0,0,0.023553,0
11243,54.3,19.742,0,-0.045158,0,11315,50.837,0,0,0,0,0.023553,0
11243,54.3,19.742,0,-0.045158,0,11315,50.837,0,0,0,0,0.023553,0
11245,54.3,19.737,0,-0.045274,0,11315,50.837,0,0,0,0,0.024212,0
11245,54.3,19.737,0,-0.045274,0,11315,50.837,0,0,0,0,0.024212,0
11245,54.3,19.737,0,-0.045274,0,11315,50.837,0,0,0,0,0.024212,0
11245,54.3,19.737,0,-0.045274,0,11315,50.837,0,0,0,0,0.024212,0
11246,54.3,19.735,0,-0.045342,0,11315,50.837,0,0,0,0,0.024626,0
11247,54.3,19.731,0,-0.04543,0,11315,50.837,0,0,0,0,0.0252,0
11247,54.3,19.731,0,-0.04543,0,11315,50.837,0,0,0,0,0.0252,0
11247,54.3,19.731,0,-0.04543,0,11315,50.837,0,0,0,0,0.0252,0
11247,54.3,19.731,0,-0.04543,0,11315,50.837,0,0,0,0,0.0252,0
11247,54.3,19.731,0,-0.04543,0,11315,50.837,0,0,0,0,0.0252,0
11247,54.3,19.731,0,-0.04543,0,11315,50.837,0,0,0,0,0.0252,0
11247,54.3,19.731,0,-0.04543,0,11315,50.837,0,0,0,0,0.0252,0
11247,54.3,19.731,0,-0.04543,0,11315,50.837,0,0,0,0,0.0252,0
11247,54.3,19.731,0,-0.04543,0,11315,50.837,0,0,0,0,0.0252,0
11247,54.3,19.731,0,-0.04543,0,11315,50.837,0,0,0,0,0.0252,0
11247,54.3,19.731,0,-0.04543,0,11315,50.837,0,0,0,0,0.0252,0
11247,54.3,19.731,0,-0.04543,0,11315,50.837,0,0,0,0,0.0252,0
11247,54.3,19.731,0,-0.04543,0,11315,50.837,0,0,0,0,0.0252,0
11247,54.3,19.731,0,-0.04543,0,11315,50.837,0,0,0,0,0.0252,0
11247,54.3,19.731,0,-0.04543,0,11315,50.837,0,0,0,0,0.0252,0
11247,54.3,19.731,0,-0.04543,0,11315,50.837,0,0,0,0,0.0252,0
11247,54.3,19.731,0,-0.04543,0,11315,50.837,0,0,0,0,0.0252,0
11247,54.3,19.731,0,-0.04543,0,11315,50.837,0,0,0,0,0.0252,0
11247,54.3,19.731,0,-0.04543,0,11315,50.837,0,0,0,0,0.0252,0
11247,54.3,19.731,0,-0.04543,0,11315,50.837,0,0,0,0,0.0252,0
11247,54.3,19.731,0,-0.04543,0,11315,50.837,0,0,0,0,0.0252,0
11249,54.3,19.727,0,-0.045518,0,11315,50.837,0,0,0,0,0.025801,0
11250,54.3,19.725,0,-0.045583,0,11315,50.837,0,0,0,0,0.026271,0
11250,54.3,19.725,0,-0.045583,0,11315,50.837,0,0,0,0,0.026271,0
11252,54.3,19.721,0,-0.045665,0,11315,50.837,0,0,0,0,0.026924,0
11252,54.3,19.719,0,-0.045706,0,11315,50.837,0,0,0,0,0.027263,0
11252,54.3,19.719,0,-0.045706,0,11315,50.837,0,0,0,0,0.027263,0
11252,54.3,19.719,0,-0.045706,0,11315,50.837,0,0,0,0,0.027263,0
11252,54.3,19.719,0,-0.045706,0,11315,50.837,0,0,0,0,0.027263,0
11252,54.3,19.719,0,-0.045706,0,11315,50.837,0,0,0,0,0.027263,0
11252,54.3,19.719,0,-0.045706,0,11315,50.837,0,0,0,0,0.027263,0
11252,54.3,19.719,0,-0.045706,0,11315,50.837,0,0,0,0,0.027263,0
11253,54.3,19.718,0,-0.045726,0,11315,50.837,0,0,0,0,0.027436,0
11253,54.3,19.718,0,-0.045726,0,11315,50.837,0,0,0,0,0.027436,0
11253,54.3,19.718,0,-0.045726,0,11315,50.837,0,0,0,0,0.027436,0
11253,54.3,19.718,0,-0.045726,0,11315,50.837,0,0,0,0,0.027436,0
11253,54.3,19.718,0,-0.045726,0,11315,50.837,0,0,0,0,0.027436,0
11253,54.3,19.718,0,-0.045726,0,11315,50.837,0,0,0,0,0.027436,0
11253,54.3,19.718,0,-0.045726,0,11315,50.837,0,0,0,0,0.027436,0
11253,54.3,19.718,0,-0.045726,0,11315,50.837,0,0,0,0,0.027436,0
11253,54.3,19.717,0,-0.045746,0,11315,50.837,0,0,0,0,0.027611,0
11253,54.3,19.717,0,-0.045746,0,11315,50.837,0,0,0,0,0.027611,0
11253,54.3,19.717,0,-0.045746,0,11315,50.837,0,0,0,0,0.027611,0
11253,54.3,19.717,0,-0.045746,0,11315,50.837,0,0,0,0,0.027611,0
11253,54.3,19.717,0,-0.045746,0,11315,50.837,0,0,0,0,0.027611,0
11253,54.3,19.717,0,-0.045746,0,11315,50.837,0,0,0,0,0.027611,0
11254,54.3,19.716,0,-0.045767,0,11315,50.837,0,0,0,0,0.027788,0
11255,54.3,19.714,0,-0.045823,0,11315,50.837,0,0,0,0,0.028334,0
11255,54.3,19.714,0,-0.045823,0,11315,50.837,0.12,-7.6481e-06,4,-0.00045604,0.028503,0
11255,54.3,19.714,0,-0.045823,0,11315,50.837,0.12,-7.6481e-06,4,-0.00045604,0.028503,0
11257,54.3,19.708,0,-0.045936,0,11315,50.837,0.2,-3.9105e-05,4,-0.0017166,0.029784,0
11257,54.3,19.708,0,-0.045936,0,11315,50.837,0.44,-0.00042598,4,-0.0097399,0.030133,0
11257,54.3,19.708,0,-0.045936,0,11315,50.837,0.44,-0.00042598,4,-0.0097399,0.030133,0
11257,54.3,19.708,0,-0.045936,0,11315,50.837,0.44,-0.00042598,4,-0.0097399,0.030133,0
11257,54.3,19.708,0,-0.045936,0,11315,50.837,0.44,-0.00042598,4,-0.0097399,0.030133,0
11257,54.3,19.708,0,-0.045936,0,11315,50.837,0.44,-0.00042598,4,-0.0097399,0.030133,0
11257,54.3,19.708,0,-0.045936,0,11315,50.837,0.44,-0.00042598,4,-0.0097399,0.030133,0
11257,54.3,19.708,0,-0.045936,0,11315,50.837,0.44,-0.00042598,4,-0.0097399,0.030133,0
11257,54.3,19.708,0,-0.045936,0,11315,50.837,0.44,-0.00042598,4,-0.0097399,0.030133,0
11257,54.3,19.708,0,-0.045936,0,11315,50.837,0.44,-0.00042598,4,-0.0097399,0.030133,0
11258,54.3,19.706,0,-0.045973,0,11315,50.837,0.44,-0.00042598,4,-0.0097399,0.030549,0
11258,54.3,19.706,0,-0.045973,0,11315,50.837,0.44,-0.00042598,4,-0.0097399,0.030549,0
11258,54.3,19.706,0,-0.045973,0,11315,50.837,0.44,-0.00042598,4,-0.0097399,0.030549,0
11258,54.3,19.706,0,-0.045973,0,11315,50.837,0.44,-0.00042598,4,-0.0097399,0.030549,0
11258,54.3,19.706,0,-0.045973,0,11315,50.837,0.44,-0.00042598,4,-0.0097399,0.030549,0
11258,54.3,19.706,0,-0.045973,0,11315,50.837,0.44,-0.00042598,4,-0.0097399,0.030549,0
11258,54.3,19.706,0,-0.045973,0,11315,50.837,0.44,-0.00042598,4,-0.0097399,0.030549,0
11258,54.3,19.706,0,-0.045973,0,11315,50.837,0.44,-0.00042598,4,-0.0097399,0.030549,0
11258,54.3,19.706,0,-0.045973,0,11315,50.837,0.44,-0.00042598,4,-0.0097399,0.030549,0
11258,54.3,19.706,0,-0.045973,0,11315,50.837,0.44,-0.00042598,4,-0.0097399,0.030549,0
11258,54.3,19.706,0,-0.045973,0,11315,50.837,0.6,-0.0010364,4,-0.017867,0.030783,0
11258,54.3,19.706,0,-0.045973,0,11315,50.837,0.6,-0.0010364,4,-0.017867,0.030783,0
11258,54.3,19.706,0,-0.045973,0,11315,50.837,0.6,-0.0010364,4,-0.017867,0.030783,0
11259,54.3,19.705,0,-0.046008,0,11315,50.837,0.6,-0.0010364,4,-0.017867,0.031213,0
11260,54.3,19.701,0,-0.046077,0,11315,50.837,0.91999,-0.0034721,3.9999,-0.039813,0.032591,0
11262,54.3,19.697,0,-0.046147,0,11315,50.837,1.16,-0.0065992,3.9997,-0.059766,0.033919,0
11263,54.3,19.695,0,-0.046178,0,11315,50.836,1.4,-0.010972,3.9995,-0.081056,0.03479,0
11263,54.3,19.695,0,-0.046178,0,11315,50.836,1.4,-0.010972,3.9995,-0.081056,0.03479,0
11263,54.3,19.695,0,-0.046178,0,11315,50.836,1.4,-0.010972,3.9995,-0.081056,0.03479,0
11263,54.3,19.695,0,-0.046178,0,11315,50.836,1.4,-0.010972,3.9995,-0.081056,0.03479,0
11263,54.3,19.695,0,-0.046178,0,11315,50.836,1.4,-0.010972,3.9995,-0.081056,0.03479,0
11263,54.3,19.695,0,-0.046178,0,11315,50.836,1.4,-0.010972,3.9995,-0.081056,0.03479,0
11263,54.3,19.695,0,-0.046178,0,11315,50.836,1.4,-0.010972,3.9995,-0.081056,0.03479,0
11263,54.3,19.695,0,-0.046178,0,11315,50.836,1.4,-0.010972,3.9995,-0.081056,0.03479,0
11263,54.3,19.695,0,-0.046178,0,11315,50.836,1.5599,-0.01459,3.9993,-0.095207,0.03503,0
11263,54.3,19.695,0,-0.046178,0,11315,50.836,1.5599,-0.01459,3.9993,-0.095207,0.03503,0
11263,54.3,19.695,0,-0.046178,0,11315,50.836,1.5599,-0.01459,3.9993,-0.095207,0.03503,0
11263,54.3,19.695,0,-0.046178,0,11315,50.836,1.5599,-0.01459,3.9993,-0.095207,0.03503,0
11263,54.3,19.695,0,-0.046178,0,11315,50.836,1.5599,-0.01459,3.9993,-0.095207,0.03503,0
11263,54.3,19.695,0,-0.046178,0,11315,50.836,1.5599,-0.01459,3.9993,-0.095207,0.03503,0
11263,54.3,19.695,0,-0.046178,0,11315,50.836,1.5599,-0.01459,3.9993,-0.095207,0.03503,0
11263,54.3,19.695,0,-0.046178,0,11315,50.836,1.5599,-0.01459,3.9993,-0.095207,0.03503,0
11263,54.3,19.695,0,-0.046178,0,11315,50.836,1.5599,-0.01459,3.9993,-0.095207,0.03503,0
11263,54.3,19.693,0,-0.046211,0,11315,50.836,1.5599,-0.01459,3.9993,-0.095207,0.035561,0
11263,54.3,19.693,0,-0.046211,0,11315,50.836,1.5599,-0.01459,3.9993,-0.095207,0.035561,0
11263,54.3,19.693,0,-0.046211,0,11315,50.836,1.5599,-0.01459,3.9993,-0.095207,0.035561,0
11263,54.3,19.693,0,-0.046211,0,11315,50.836,1.5599,-0.01459,3.9993,-0.095207,0.035561,0
11263,54.3,19.693,0,-0.046211,0,11315,50.836,1.5599,-0.01459,3.9993,-0.095207,0.035561,0
11264,54.3,19.693,0,-0.046228,0,11315,50.836,1.5599,-0.01459,3.9993,-0.095207,0.035832,0
11265,54.3,19.69,0,-0.046275,0,11315,50.834,1.8799,-0.023422,3.9988,-0.12133,0.037161,0
11267,54.3,19.686,0,-0.046339,0,11315,50.833,2.1198,-0.031259,3.9984,-0.13738,0.038723,0
11267,54.3,19.686,0,-0.046339,0,11316,50.83,2.4396,-0.042878,3.998,-0.15193,0.0392,0
11267,54.3,19.686,0,-0.046339,0,11316,50.83,2.4396,-0.042878,3.998,-0.15193,0.0392,0
11268,54.3,19.683,0,-0.046382,0,11316,50.83,2.4396,-0.042878,3.998,-0.15193,0.040163,0
11268,54.3,19.683,0,-0.046382,0,11316,50.83,2.4396,-0.042878,3.998,-0.15193,0.040163,0
11268,54.3,19.683,0,-0.046382,0,11316,50.83,2.4396,-0.042878,3.998,-0.15193,0.040163,0
11268,54.3,19.683,0,-0.046382,0,11316,50.83,2.4396,-0.042878,3.998,-0.15193,0.040163,0
11268,54.3,19.683,0,-0.046382,0,11316,50.83,2.4396,-0.042878,3.998,-0.15193,0.040163,0
11268,54.3,19.683,0,-0.046382,0,11316,50.83,2.4396,-0.042878,3.998,-0.15193,0.040163,0
11268,54.3,19.683,0,-0.046382,0,11316,50.83,2.4396,-0.042878,3.998,-0.15193,0.040163,0
11268,54.3,19.683,0,-0.046382,0,11316,50.83,2.4396,-0.042878,3.998,-0.15193,0.040163,0
11268,54.3,19.683,0,-0.046382,0,11316,50.83,2.4396,-0.042878,3.998,-0.15193,0.040163,0
11268,54.3,19.683,0,-0.046382,0,11316,50.83,2.4396,-0.042878,3.998,-0.15193,0.040163,0
11268,54.3,19.683,0,-0.046382,0,11316,50.83,2.4396,-0.042878,3.998,-0.15193,0.040163,0
11268,54.3,19.683,0,-0.046382,0,11316,50.828,2.5995,-0.048993,3.9978,-0.15574,0.040399,0
11268,54.3,19.683,0,-0.046382,0,11316,50.828,2.5995,-0.048993,3.9978,-0.15574,0.040399,0
11268,54.3,19.683,0,-0.046382,0,11316,50.828,2.5995,-0.048993,3.9978,-0.15574,0.040399,0
11268,54.3,19.683,0,-0.046382,0,11316,50.828,2.5995,-0.048993,3.9978,-0.15574,0.040399,0
11268,54.3,19.683,0,-0.046382,0,11316,50.828,2.5995,-0.048993,3.9978,-0.15574,0.040399,0
11268,54.3,19.683,0,-0.046382,0,11316,50.828,2.5995,-0.048993,3.9978,-0.15574,0.040399,0
11269,54.3,19.681,0,-0.046412,0,11316,50.828,2.5995,-0.048993,3.9978,-0.15574,0.04107,0
11269,54.3,19.681,0,-0.046412,0,11316,50.828,2.5995,-0.048993,3.9978,-0.15574,0.04107,0
11269,54.3,19.681,0,-0.046412,0,11316,50.828,2.5995,-0.048993,3.9978,-0.15574,0.04107,0
11270,54.3,19.679,0,-0.046453,0,11316,50.826,2.7594,-0.055182,3.9977,-0.15708,0.042358,0
11270,54.3,19.679,0,-0.046453,0,11316,50.826,2.7594,-0.055182,3.9977,-0.15708,0.042358,0
11272,54.3,19.674,0,-0.046523,0,11316,50.821,3.0793,-0.067391,3.9976,-0.15223,0.04471,0
11272,54.3,19.674,0,-0.046523,0,11316,50.821,3.0793,-0.067391,3.9976,-0.15223,0.04471,0
11272,54.3,19.673,0,-0.046535,0,11316,50.821,3.0793,-0.067391,3.9976,-0.15223,0.045108,0
11272,54.3,19.673,0,-0.046535,0,11316,50.813,3.479,-0.081348,3.998,-0.13298,0.045676,0
11272,54.3,19.673,0,-0.046535,0,11316,50.813,3.479,-0.081348,3.998,-0.13298,0.045676,0
11273,54.3,19.671,0,-0.04656,0,11316,50.813,3.479,-0.081348,3.998,-0.13298,0.046497,0
11273,54.3,19.671,0,-0.04656,0,11316,50.813,3.479,-0.081348,3.998,-0.13298,0.046497,0
11273,54.3,19.671,0,-0.04656,0,11316,50.813,3.479,-0.081348,3.998,-0.13298,0.046497,0
11273,54.3,19.671,0,-0.04656,0,11316,50.813,3.479,-0.081348,3.998,-0.13298,0.046497,0
11273,54.3,19.671,0,-0.04656,0,11316,50.813,3.479,-0.081348,3.998,-0.13298,0.046497,0
11273,54.3,19.671,0,-0.04656,0,11316,50.813,3.479,-0.081348,3.998,-0.13298,0.046497,0
11273,54.3,19.671,0,-0.04656,0,11316,50.813,3.479,-0.081348,3.998,-0.13298,0.046497,0
11273,54.3,19.67,0,-0.046572,0,11316,50.813,3.479,-0.081348,3.998,-0.13298,0.046918,0
11273,54.3,19.67,0,-0.046572,0,11316,50.813,3.479,-0.081348,3.998,-0.13298,0.046918,0
11273,54.3,19.67,0,-0.046572,0,11316,50.813,3.479,-0.081348,3.998,-0.13298,0.046918,0
11273,54.3,19.67,0,-0.046572,0,11316,50.813,3.479,-0.081348,3.998,-0.13298,0.046918,0
11273,54.3,19.67,0,-0.046572,0,11316,50.813,3.479,-0.081348,3.998,-0.13298,0.046918,0
11273,54.3,19.67,0,-0.046572,0,11316,50.813,3.479,-0.081348,3.998,-0.13298,0.046918,0
11273,54.3,19.67,0,-0.046572,0,11316,50.813,3.479,-0.081348,3.998,-0.13298,0.046918,0
11274,54.3,19.669,0,-0.046585,0,11316,50.813,3.479,-0.081348,3.998,-0.13298,0.047347,0
11274,54.3,19.669,0,-0.046585,0,11316,50.813,3.479,-0.081348,3.998,-0.13298,0.047347,0
11274,54.3,19.669,0,-0.046585,0,11316,50.813,3.479,-0.081348,3.998,-0.13298,0.047347,0
11274,54.3,19.669,0,-0.046585,0,11316,50.813,3.479,-0.081348,3.998,-0.13298,0.047347,0
11274,54.3,19.669,0,-0.046585,0,11317,50.806,3.7989,-0.090659,3.9985,-0.10888,0.047784,0
11275,54.3,19.666,0,-0.046634,0,11317,50.806,3.7989,-0.090659,3.9985,-0.10888,0.049585,0
11276,54.3,19.665,0,-0.046645,0,11317,50.806,3.7989,-0.090659,3.9985,-0.10888,0.050057,0
11277,54.3,19.662,0,-0.04668,0,11317,50.795,4.2788,-0.10041,3.9996,-0.06337,0.052142,0
11277,54.3,19.662,0,-0.04668,0,11317,50.795,4.2788,-0.10041,3.9996,-0.06337,0.052142,0
11278,54.3,19.66,0,-0.046704,0,11317,50.791,4.4388,-0.1024,4,-0.046928,0.053362,0
11278,54.3,19.66,0,-0.046704,0,11317,50.791,4.4388,-0.1024,4,-0.046928,0.053362,0
11278,54.3,19.66,0,-0.046704,0,11317,50.791,4.4388,-0.1024,4,-0.046928,0.053362,0
11278,54.3,19.66,0,-0.046704,0,11317,50.791,4.4388,-0.1024,4,-0.046928,0.053362,0
11278,54.3,19.66,0,-0.046704,0,11317,50.791,4.4388,-0.1024,4,-0.046928,0.053362,0
11278,54.3,19.66,0,-0.046704,0,11317,50.791,4.4388,-0.1024,4,-0.046928,0.053362,0
11278,54.3,19.66,0,-0.046704,0,11317,50.791,4.4388,-0.1024,4,-0.046928,0.053362,0
11278,54.3,19.659,0,-0.046714,0,11317,50.791,4.4388,-0.1024,4,-0.046928,0.05389,0
11278,54.3,19.659,0,-0.046714,0,11317,50.791,4.4388,-0.1024,4,-0.046928,0.05389,0
11278,54.3,19.659,0,-0.046714,0,11317,50.791,4.4388,-0.1024,4,-0.046928,0.05389,0
11278,54.3,19.659,0,-0.046714,0,11317,50.791,4.4388,-0.1024,4,-0.046928,0.05389,0
11278,54.3,19.659,0,-0.046714,0,11317,50.791,4.4388,-0.1024,4,-0.046928,0.05389,0
11278,54.3,19.659,0,-0.046714,0,11317,50.791,4.4388,-0.1024,4,-0.046928,0.05389,0
11278,54.3,19.659,0,-0.046714,0,11317,50.791,4.4388,-0.1024,4,-0.046928,0.05389,0
11278,54.3,19.658,0,-0.046724,0,11317,50.791,4.4388,-0.1024,4,-0.046928,0.054429,0
11278,54.3,19.658,0,-0.046724,0,11317,50.791,4.4388,-0.1024,4,-0.046928,0.054429,0
11278,54.3,19.658,0,-0.046724,0,11317,50.791,4.4388,-0.1024,4,-0.046928,0.054429,0
11278,54.3,19.658,0,-0.046724,0,11317,50.791,4.4388,-0.1024,4,-0.046928,0.054429,0
11278,54.3,19.658,0,-0.046724,0,11317,50.791,4.4388,-0.1024,4,-0.046928,0.054429,0
11278,54.3,19.658,0,-0.046724,0,11317,50.791,4.4388,-0.1024,4,-0.046928,0.054429,0
11278,54.3,19.658,0,-0.046724,0,11317,50.791,4.4388,-0.1024,4,-0.046928,0.054429,0
11279,54.3,19.657,0,-0.046734,0,11317,50.791,4.4388,-0.1024,4,-0.046928,0.054979,0
11280,54.3,19.654,0,-0.046765,0,11318,50.778,4.9189,-0.10398,4.0013,0.019354,0.057216,0
11280,54.3,19.654,0,-0.046765,0,11318,50.77,5.2392,-0.0943,4.0041,0.18728,0.057524,0
11280,54.3,19.654,0,-0.046765,0,11318,50.77,5.2392,-0.0943,4.0041,0.18728,0.057524,0
11280,54.3,19.654,0,-0.046765,0,11318,50.77,5.2392,-0.0943,4.0041,0.18728,0.057524,0
11280,54.3,19.654,0,-0.046765,0,11318,50.77,5.2392,-0.0943,4.0041,0.18728,0.057524,0
11280,54.3,19.654,0,-0.046765,0,11318,50.77,5.2392,-0.0943,4.0041,0.18728,0.057524,0
11280,54.3,19.654,0,-0.046765,0,11319,50.765,5.4795,-0.074307,4.0061,0.39638,0.057736,0
11280,54.3,19.654,0,-0.046765,0,11319,50.764,5.5596,-0.064438,4.0063,0.48025,0.057803,0
11280,54.3,19.654,0,-0.046765,0,11319,50.764,5.5596,-0.064438,4.0063,0.48025,0.057803,0
11280,54.3,19.654,0,-0.046765,0,11319,50.764,5.5596,-0.064438,4.0063,0.48025,0.057803,0
11280,54.3,19.654,0,-0.046765,0,11319,50.764,5.5596,-0.064438,4.0063,0.48025,0.057803,0
11280,54.3,19.654,0,-0.046765,0,11319,50.764,5.5596,-0.064438,4.0063,0.48025,0.057803,0
11280,54.3,19.654,0,-0.046765,0,11319,50.764,5.5596,-0.064438,4.0063,0.48025,0.057803,0
11280,54.3,19.654,0,-0.046765,0,11319,50.764,5.5596,-0.064438,4.0063,0.48025,0.057803,0
11280,54.3,19.654,0,-0.046765,0,11319,50.764,5.5596,-0.064438,4.0063,0.48025,0.057803,0
11280,54.3,19.654,0,-0.046765,0,11319,50.764,5.5596,-0.064438,4.0063,0.48025,0.057803,0
11283,54.3,19.647,0,-0.04684,0,11319,50.764,5.5596,-0.064438,4.0063,0.48025,0.062847,0
11284,54.3,19.645,0,-0.046858,0,11319,50.762,5.7199,-0.039136,4.0055,0.66668,0.06435,0
11284,54.3,19.645,0,-0.046858,0,11319,50.762,5.7199,-0.039136,4.0055,0.66668,0.06435,0
11284,54.3,19.645,0,-0.046858,0,11319,50.762,5.7199,-0.039136,4.0055,0.66668,0.06435,0
11284,54.3,19.644,0,-0.046868,0,11319,50.762,5.7199,-0.039136,4.0055,0.66668,0.06507,0
11285,54.3,19.642,0,-0.046887,0,11319,50.762,5.7199,-0.039136,4.0055,0.66668,0.066559,0
11285,54.3,19.642,0,-0.046887,0,11319,50.762,5.7199,-0.039136,4.0055,0.66668,0.066559,0
11285,54.3,19.642,0,-0.046887,0,11320,50.765,6.1994,0.088246,3.984,1.3377,0.066775,0
11285,54.3,19.642,0,-0.046887,0,11320,50.765,6.1994,0.088246,3.984,1.3377,0.066775,0
11285,54.3,19.642,0,-0.046887,0,11320,50.765,6.1994,0.088246,3.984,1.3377,0.066775,0
11285,54.3,19.642,0,-0.046887,0,11320,50.765,6.1994,0.088246,3.984,1.3377,0.066775,0
11285,54.3,19.642,0,-0.046887,0,11320,50.765,6.1994,0.088246,3.984,1.3377,0.066775,0
11285,54.3,19.642,0,-0.046887,0,11320,50.765,6.1994,0.088246,3.984,1.3377,0.066775,0
11285,54.3,19.642,0,-0.046887,0,11320,50.765,6.1994,0.088246,3.984,1.3377,0.066775,0
11287,54.3,19.638,0,-0.046917,0,11320,50.767,6.2789,0.1177,3.9764,1.4597,0.069925,0
11287,54.3,19.638,0,-0.046917,0,11320,50.767,6.2789,0.1177,3.9764,1.4597,0.069925,0
11287,54.3,19.638,0,-0.046917,0,11320,50.767,6.2789,0.1177,3.9764,1.4597,0.069925,0
11287,54.3,19.638,0,-0.046925,0,11320,50.767,6.2789,0.1177,3.9764,1.4597,0.070752,0
11287,54.3,19.638,0,-0.046925,0,11320,50.767,6.2789,0.1177,3.9764,1.4597,0.070752,0
11287,54.3,19.637,0,-0.046932,0,11320,50.767,6.2789,0.1177,3.9764,1.4597,0.071597,0
11287,54.3,19.637,0,-0.046932,0,11320,50.767,6.2789,0.1177,3.9764,1.4597,0.071597,0
11287,54.3,19.637,0,-0.046932,0,11321,50.795,6.7512,0.34592,3.8986,2.1985,0.071603,0
11287,54.3,19.637,0,-0.046932,0,11321,50.795,6.7512,0.34592,3.8986,2.1985,0.071603,0
11287,54.3,19.637,0,-0.046932,0,11321,50.795,6.7512,0.34592,3.8986,2.1985,0.071603,0
11287,54.3,19.637,0,-0.046932,0,11321,50.795,6.7512,0.34592,3.8986,2.1985,0.071603,0
11287,54.3,19.637,0,-0.046932,0,11321,50.795,6.7512,0.34592,3.8986,2.1985,0.071603,0
11289,54.3,19.633,0,-0.046962,0,11321,50.795,6.7512,0.34592,3.8986,2.1985,0.07511,0
11289,54.3,19.633,0,-0.046962,0,11321,50.795,6.7512,0.34592,3.8986,2.1985,0.07511,0
11289,54.3,19.632,0,-0.04697,0,11321,50.795,6.7512,0.34592,3.8986,2.1985,0.076041,0
11289,54.3,19.632,0,-0.04697,0,11321,50.795,6.7512,0.34592,3.8986,2.1985,0.076041,0
11289,54.3,19.632,0,-0.04697,0,11321,50.795,6.7512,0.34592,3.8986,2.1985,0.076041,0
11290,54.3,19.631,0,-0.046977,0,11321,50.795,6.7512,0.34592,3.8986,2.1985,0.076995,0
11290,54.3,19.63,0,-0.046985,0,11321,50.795,6.7512,0.34592,3.8986,2.1985,0.077973,0
11291,54.3,19.627,0,-0.047,0,11321,50.856,7.2101,0.65775,3.7642,2.8632,0.080682,0
11291,54.3,19.627,0,-0.047,0,11321,50.856,7.2101,0.65775,3.7642,2.8632,0.080682,0
11292,54.3,19.626,0,-0.047006,0,11321,50.856,7.2101,0.65775,3.7642,2.8632,0.081732,0
11292,54.3,19.626,0,-0.047006,0,11321,50.856,7.2101,0.65775,3.7642,2.8632,0.081732,0
11292,54.3,19.625,0,-0.047011,0,11321,50.856,7.2101,0.65775,3.7642,2.8632,0.082808,0
11292,54.3,19.625,0,-0.047011,0,11321,50.856,7.2101,0.65775,3.7642,2.8632,0.082808,0
11292,54.3,19.625,0,-0.047011,0,11321,50.856,7.2101,0.65775,3.7642,2.8632,0.082808,0
11292,54.3,19.625,0,-0.047011,0,11321,50.856,7.2101,0.65775,3.7642,2.8632,0.082808,0
11292,54.3,19.625,0,-0.047011,0,11321,50.856,7.2101,0.65775,3.7642,2.8632,0.082808,0
11292,54.3,19.625,0,-0.047011,0,11321,50.856,7.2101,0.65775,3.7642,2.8632,0.082808,0
11292,54.3,19.625,0,-0.047011,0,11321,50.856,7.2101,0.65775,3.7642,2.8632,0.082808,0
11292,54.3,19.625,0,-0.047011,0,11321,50.856,7.2101,0.65775,3.7642,2.8632,0.082808,0
11292,54.3,19.625,0,-0.047011,0,11321,50.856,7.2101,0.65775,3.7642,2.8632,0.082808,0
11292,54.3,19.625,0,-0.047011,0,11321,50.856,7.2101,0.65775,3.7642,2.8632,0.082808,0
11292,54.3,19.625,0,-0.047011,0,11321,50.856,7.2101,0.65775,3.7642,2.8632,0.082808,0
11292,54.3,19.625,0,-0.047011,0,11322,50.919,7.5057,0.90467,3.6512,3.2191,0.082432,0
11292,54.3,19.625,0,-0.047011,0,11322,50.919,7.5057,0.90467,3.6512,3.2191,0.082432,0
11292,54.3,19.625,0,-0.047011,0,11322,50.919,7.5057,0.90467,3.6512,3.2191,0.082432,0
11292,54.3,19.625,0,-0.047011,0,11322,50.919,7.5057,0.90467,3.6512,3.2191,0.082432,0
11292,54.3,19.625,0,-0.047011,0,11322,50.919,7.5057,0.90467,3.6512,3.2191,0.082432,0
11292,54.3,19.625,0,-0.047011,0,11322,50.919,7.5057,0.90467,3.6512,3.2191,0.082432,0
11292,54.3,19.625,0,-0.047011,0,11322,50.919,7.5057,0.90467,3.6512,3.2191,0.082432,0
11292,54.3,19.625,0,-0.047011,0,11322,50.938,7.5782,0.97038,3.6213,3.2946,0.082329,0
11293,54.3,19.623,0,-0.047027,0,11322,50.938,7.5782,0.97038,3.6213,3.2946,0.085632,0
11295,54.3,19.618,0,-0.047054,0,11323,51.028,7.862,1.2457,3.5004,3.5382,0.091062,0
11296,54.3,19.616,0,-0.047064,0,11323,51.028,7.862,1.2457,3.5004,3.5382,0.093686,0
11296,54.3,19.616,0,-0.047064,0,11324,51.171,8.2075,1.5895,3.4435,3.2997,0.092655,0
11296,54.3,19.616,0,-0.047064,0,11324,51.204,8.2766,1.6529,3.4445,3.2145,0.092446,0
11296,54.3,19.616,0,-0.047064,0,11324,51.204,8.2766,1.6529,3.4445,3.2145,0.092446,0
11296,54.3,19.616,0,-0.047064,0,11324,51.204,8.2766,1.6529,3.4445,3.2145,0.092446,0
11296,54.3,19.616,0,-0.047064,0,11324,51.204,8.2766,1.6529,3.4445,3.2145,0.092446,0
11296,54.3,19.616,0,-0.047064,0,11324,51.204,8.2766,1.6529,3.4445,3.2145,0.092446,0
11296,54.3,19.616,0,-0.047064,0,11324,51.204,8.2766,1.6529,3.4445,3.2145,0.092446,0
11296,54.3,19.616,0,-0.047064,0,11324,51.204,8.2766,1.6529,3.4445,3.2145,0.092446,0
11296,54.3,19.616,0,-0.047064,0,11324,51.204,8.2766,1.6529,3.4445,3.2145,0.092446,0
11296,54.3,19.616,0,-0.047064,0,11324,51.204,8.2766,1.6529,3.4445,3.2145,0.092446,0
11297,54.3,19.613,0,-0.047077,0,11324,51.204,8.2766,1.6529,3.4445,3.2145,0.096479,0
11297,54.3,19.613,0,-0.047077,0,11324,51.204,8.2766,1.6529,3.4445,3.2145,0.096479,0
11297,54.3,19.613,0,-0.047077,0,11324,51.204,8.2766,1.6529,3.4445,3.2145,0.096479,0
11297,54.3,19.613,0,-0.047077,0,11324,51.204,8.2766,1.6529,3.4445,3.2145,0.096479,0
11297,54.3,19.613,0,-0.047077,0,11324,51.204,8.2766,1.6529,3.4445,3.2145,0.096479,0
11297,54.3,19.613,0,-0.047077,0,11324,51.204,8.2766,1.6529,3.4445,3.2145,0.096479,0
11297,54.3,19.613,0,-0.047077,0,11324,51.204,8.2766,1.6529,3.4445,3.2145,0.096479,0
11297,54.3,19.613,0,-0.047077,0,11324,51.204,8.2766,1.6529,3.4445,3.2145,0.096479,0
11297,54.3,19.613,0,-0.047077,0,11324,51.204,8.2766,1.6529,3.4445,3.2145,0.096479,0
11297,54.3,19.613,0,-0.047077,0,11324,51.204,8.2766,1.6529,3.4445,3.2145,0.096479,0
11297,54.3,19.613,0,-0.047077,0,11324,51.204,8.2766,1.6529,3.4445,3.2145,0.096479,0
11297,54.3,19.613,0,-0.047077,0,11324,51.273,8.4148,1.7753,3.4479,3.0641,0.095997,0
11297,54.3,19.613,0,-0.047077,0,11324,51.273,8.4148,1.7753,3.4479,3.0641,0.095997,0
11298,54.3,19.611,0,-0.047082,0,11324,51.273,8.4148,1.7753,3.4479,3.0641,0.098836,0
11300,54.3,19.607,0,-0.047092,0,11325,51.425,8.6917,2.0051,3.4593,2.8189,0.10376,0
11302,54.3,19.603,0,-0.047103,0,11325,51.551,8.9002,2.1663,3.4717,2.665,0.11115,0
11302,54.3,19.603,0,-0.047103,0,11325,51.551,8.9002,2.1663,3.4717,2.665,0.11115,0
11302,54.3,19.603,0,-0.047103,0,11326,51.733,9.1795,2.3681,3.4939,2.4794,0.10956,0
11302,54.3,19.603,0,-0.047103,0,11326,51.733,9.1795,2.3681,3.4939,2.4794,0.10956,0
11302,54.3,19.603,0,-0.047103,0,11326,51.733,9.1795,2.3681,3.4939,2.4794,0.10956,0
11302,54.3,19.603,0,-0.047103,0,11326,51.733,9.1795,2.3681,3.4939,2.4794,0.10956,0
11302,54.3,19.603,0,-0.047103,0,11326,51.733,9.1795,2.3681,3.4939,2.4794,0.10956,0
11302,54.3,19.603,0,-0.047103,0,11326,51.733,9.1795,2.3681,3.4939,2.4794,0.10956,0
11302,54.3,19.603,0,-0.047103,0,11326,51.733,9.1795,2.3681,3.4939,2.4794,0.10956,0
11302,54.3,19.603,0,-0.047103,0,11326,51.733,9.1795,2.3681,3.4939,2.4794,0.10956,0
11302,54.3,19.603,0,-0.047103,0,11326,51.733,9.1795,2.3681,3.4939,2.4794,0.10956,0
11302,54.3,19.603,0,-0.047103,0,11326,51.733,9.1795,2.3681,3.4939,2.4794,0.10956,0
11302,54.3,19.601,0,-0.047107,0,11326,51.733,9.1795,2.3681,3.4939,2.4794,0.11313,0
11302,54.3,19.601,0,-0.047107,0,11326,51.733,9.1795,2.3681,3.4939,2.4794,0.11313,0
11302,54.3,19.601,0,-0.047107,0,11326,51.733,9.1795,2.3681,3.4939,2.4794,0.11313,0
11302,54.3,19.601,0,-0.047107,0,11326,51.733,9.1795,2.3681,3.4939,2.4794,0.11313,0
11302,54.3,19.601,0,-0.047107,0,11326,51.733,9.1795,2.3681,3.4939,2.4794,0.11313,0
11302,54.3,19.601,0,-0.047107,0,11326,51.733,9.1795,2.3681,3.4939,2.4794,0.11313,0
11302,54.3,19.601,0,-0.047107,0,11326,51.733,9.1795,2.3681,3.4939,2.4794,0.11313,0
11302,54.3,19.601,0,-0.047107,0,11326,51.733,9.1795,2.3681,3.4939,2.4794,0.11313,0
11302,54.3,19.601,0,-0.047107,0,11326,51.733,9.1795,2.3681,3.4939,2.4794,0.11313,0
11302,54.3,19.601,0,-0.047107,0,11326,51.83,9.3199,2.4637,3.5077,2.3902,0.11227,0
11302,54.3,19.601,0,-0.047107,0,11326,51.83,9.3199,2.4637,3.5077,2.3902,0.11227,0
11302,54.3,19.601,0,-0.047107,0,11326,51.83,9.3199,2.4637,3.5077,2.3902,0.11227,0
11303,54.3,19.599,0,-0.04711,0,11326,51.83,9.3199,2.4637,3.5077,2.3902,0.11599,0
11303,54.3,19.599,0,-0.04711,0,11327,52.088,9.6737,2.6873,3.5508,2.1671,0.11366,0
11303,54.3,19.599,0,-0.04711,0,11327,52.088,9.6737,2.6873,3.5508,2.1671,0.11366,0
11305,54.3,18.698,0,-10,0,11327,52.088,9.6737,2.6873,3.5508,2.1671,0.12332,0
11305,54.3,18.698,0,-10,0,11328,52.31,9.9603,2.8499,3.5945,1.9813,0.12105,0
11305,54.3,18.698,0,-10,0,11328,52.31,9.9603,2.8499,3.5945,1.9813,0.12105,0
11305,54.3,18.698,0,-10,0,11328,52.368,10.033,2.8882,3.6066,1.9333,0.12049,0
11307,54.3,17.698,0,-10,0,11328,52.368,10.033,2.8882,3.6066,1.9333,0.1306,0
11307,54.3,17.498,0,-10,0,11328,52.368,10.033,2.8882,3.6066,1.9333,0.13276,0
11307,54.3,17.498,0,-10,0,11328,52.368,10.033,2.8882,3.6066,1.9333,0.13276,0
11307,54.3,17.498,0,-10,0,11328,52.368,10.033,2.8882,3.6066,1.9333,0.13276,0
11307,54.3,17.498,0,-10,0,11328,52.368,10.033,2.8882,3.6066,1.9333,0.13276,0
11307,54.3,17.498,0,-10,0,11329,52.545,10.251,2.9972,3.6462,1.7845,0.13062,0
11307,54.3,17.498,0,-10,0,11329,52.605,10.324,3.0315,3.6603,1.7332,0.12993,0
11307,54.3,17.498,0,-10,0,11329,52.605,10.324,3.0315,3.6603,1.7332,0.12993,0
11307,54.3,17.498,0,-10,0,11329,52.605,10.324,3.0315,3.6603,1.7332,0.12993,0
11307,54.3,17.498,0,-10,0,11329,52.605,10.324,3.0315,3.6603,1.7332,0.12993,0
11307,54.3,17.498,0,-10,0,11329,52.605,10.324,3.0315,3.6603,1.7332,0.12993,0
11307,54.3,17.498,0,-10,0,11329,52.605,10.324,3.0315,3.6603,1.7332,0.12993,0
11307,54.3,17.498,0,-10,0,11329,52.605,10.324,3.0315,3.6603,1.7332,0.12993,0
11308,54.3,16.898,0,-10,0,11329,52.605,10.324,3.0315,3.6603,1.7332,0.13629,0
11309,54.3,16.698,0,-10,0,11329,52.605,10.324,3.0315,3.6603,1.7332,0.1385,0
11309,54.3,16.698,0,-10,0,11330,52.79,10.546,3.1282,3.7055,1.5743,0.13607,0
11309,54.3,16.698,0,-10,0,11330,52.79,10.546,3.1282,3.7055,1.5743,0.13607,0
11309,54.3,16.698,0,-10,0,11330,52.79,10.546,3.1282,3.7055,1.5743,0.13607,0
11309,54.3,16.698,0,-10,0,11330,52.79,10.546,3.1282,3.7055,1.5743,0.13607,0
11309,54.3,16.698,0,-10,0,11330,52.79,10.546,3.1282,3.7055,1.5743,0.13607,0
11309,54.3,16.698,0,-10,0,11330,52.79,10.546,3.1282,3.7055,1.5743,0.13607,0
11309,54.3,16.298,0,-10,0,11330,52.79,10.546,3.1282,3.7055,1.5743,0.14042,0
11309,54.3,16.298,0,-10,0,11331,53.044,10.643,3.19,-0.12603,0.42111,0.13568,0
11309,54.3,16.298,0,-10,0,11331,53.044,10.643,3.19,-0.12603,0.42111,0.13568,0
11309,54.3,16.298,0,-10,0,11331,53.044,10.643,3.19,-0.12603,0.42111,0.13568,0
11309,54.3,16.298,0,-10,0,11331,53.044,10.643,3.19,-0.12603,0.42111,0.13568,0
11309,54.3,16.298,0,-10,0,11331,53.044,10.643,3.19,-0.12603,0.42111,0.13568,0
11309,54.3,16.298,0,-10,0,11331,53.044,10.643,3.19,-0.12603,0.42111,0.13568,0
11309,54.3,16.298,0,-10,0,11331,53.044,10.643,3.19,-0.12603,0.42111,0.13568,0
11311,54.3,15.498,0,-10,0,11331,53.044,10.643,3.19,-0.12603,0.42111,0.14423,0
11311,54.3,15.498,0,-10,0,11331,53.044,10.643,3.19,-0.12603,0.42111,0.14423,0
11311,54.3,15.298,0,-10,0,11331,53.044,10.643,3.19,-0.12603,0.42111,0.14647,0
11311,54.3,15.298,0,-10,0,11331,53.044,10.643,3.19,-0.12603,0.42111,0.14647,0
11311,54.3,15.298,0,-10,0,11331,53.301,10.632,3.2292,-0.15443,0.5093,0.14052,0
11311,54.3,15.298,0,-10,0,11331,53.301,10.632,3.2292,-0.15443,0.5093,0.14052,0
11313,54.3,14.101,0,-9.7455,0,11332,53.365,10.628,3.2396,-0.15674,0.51514,0.15192,0
11313,54.3,13.91,0,-9.3622,0,11332,53.365,10.628,3.2396,-0.15674,0.51514,0.15418,0
11313,54.3,13.726,0,-8.9874,0,11332,53.365,10.628,3.2396,-0.15674,0.51514,0.15647,0
11313,54.3,13.726,0,-8.9874,0,11332,53.365,10.628,3.2396,-0.15674,0.51514,0.15647,0
11313,54.3,13.55,0,-8.6295,0,11332,53.365,10.628,3.2396,-0.15674,0.51514,0.15881,0
11313,54.3,13.55,0,-8.6295,0,11332,53.365,10.628,3.2396,-0.15674,0.51514,0.15881,0
11313,54.3,13.55,0,-8.6295,0,11332,53.365,10.628,3.2396,-0.15674,0.51514,0.15881,0
11313,54.3,13.55,0,-8.6295,0,11332,53.365,10.628,3.2396,-0.15674,0.51514,0.15881,0
11313,54.3,13.55,0,-8.6295,0,11332,53.365,10.628,3.2396,-0.15674,0.51514,0.15881,0
11313,54.3,13.55,0,-8.6295,0,11332,53.365,10.628,3.2396,-0.15674,0.51514,0.15881,0
11313,54.3,13.55,0,-8.6295,0,11332,53.365,10.628,3.2396,-0.15674,0.51514,0.15881,0
11313,54.3,13.55,0,-8.6295,0,11332,53.365,10.628,3.2396,-0.15674,0.51514,0.15881,0
11313,54.3,13.55,0,-8.6295,0,11332,53.365,10.628,3.2396,-0.15674,0.51514,0.15881,0
11313,54.3,13.55,0,-8.6295,0,11332,53.365,10.628,3.2396,-0.15674,0.51514,0.15881,0
11313,54.3,13.55,0,-8.6295,0,11333,53.824,10.608,3.3056,-0.12837,0.41253,0.14691,0
11313,54.3,13.55,0,-8.6295,0,11333,53.824,10.608,3.3056,-0.12837,0.41253,0.14691,0
11313,54.3,13.55,0,-8.6295,0,11333,53.824,10.608,3.3056,-0.12837,0.41253,0.14691,0
11313,54.3,13.55,0,-8.6295,0,11333,53.824,10.608,3.3056,-0.12837,0.41253,0.14691,0
11313,54.3,13.55,0,-8.6295,0,11333,53.824,10.608,3.3056,-0.12837,0.41253,0.14691,0
11313,54.3,13.55,0,-8.6295,0,11333,53.824,10.608,3.3056,-0.12837,0.41253,0.14691,0
11313,54.3,13.55,0,-8.6295,0,11333,53.824,10.608,3.3056,-0.12837,0.41253,0.14691,0
11313,54.3,13.55,0,-8.6295,0,11333,53.824,10.608,3.3056,-0.12837,0.41253,0.14691,0
11313,54.3,13.55,0,-8.6295,0,11333,53.824,10.608,3.3056,-0.12837,0.41253,0.14691,0
11314,54.3,13.218,0,-7.9698,0,11333,53.824,10.608,3.3056,-0.12837,0.41253,0.15101,0
11314,54.3,13.062,0,-7.6657,0,11333,53.824,10.608,3.3056,-0.12837,0.41253,0.15311,0
11314,54.3,13.062,0,-7.6657,0,11333,53.824,10.608,3.3056,-0.12837,0.41253,0.15311,0
11315,54.3,12.493,0,-6.5937,0,11334,54.09,10.6,3.3309,-0.083478,0.26589,0.15452,0
11315,54.3,12.493,0,-6.5937,0,11334,54.09,10.6,3.3309,-0.083478,0.26589,0.15452,0
11316,54.3,12.002,0,-5.7092,0,11335,54.424,10.597,3.342,-0.0061722,0.019572,0.15384,0
11316,54.3,12.002,0,-5.7092,0,11335,54.557,10.598,3.3388,0.029657,-0.094104,0.15045,0
11316,54.3,12.002,0,-5.7092,0,11335,54.557,10.598,3.3388,0.029657,-0.094104,0.15045,0
11316,54.3,12.002,0,-5.7092,0,11336,54.624,10.599,3.3354,0.048365,-0.15361,0.14881,0
11316,54.3,12.002,0,-5.7092,0,11336,54.624,10.599,3.3354,0.048365,-0.15361,0.14881,0
11316,54.3,12.002,0,-5.7092,0,11336,54.624,10.599,3.3354,0.048365,-0.15361,0.14881,0
11316,54.3,12.002,0,-5.7092,0,11336,54.624,10.599,3.3354,0.048365,-0.15361,0.14881,0
11316,54.3,12.002,0,-5.7092,0,11336,54.624,10.599,3.3354,0.048365,-0.15361,0.14881,0
11316,54.3,12.002,0,-5.7092,0,11336,54.624,10.599,3.3354,0.048365,-0.15361,0.14881,0
11316,54.3,12.002,0,-5.7092,0,11336,54.624,10.599,3.3354,0.048365,-0.15361,0.14881,0
11316,54.3,12.002,0,-5.7092,0,11336,54.691,10.6,3.3308,0.067516,-0.21471,0.1472,0
11316,54.3,12.002,0,-5.7092,0,11336,54.691,10.6,3.3308,0.067516,-0.21471,0.1472,0
11316,54.3,12.002,0,-5.7092,0,11336,54.691,10.6,3.3308,0.067516,-0.21471,0.1472,0
11316,54.3,12.002,0,-5.7092,0,11336,54.691,10.6,3.3308,0.067516,-0.21471,0.1472,0
11316,54.3,12.002,0,-5.7092,0,11336,54.691,10.6,3.3308,0.067516,-0.21471,0.1472,0
11316,54.3,12.002,0,-5.7092,0,11336,54.691,10.6,3.3308,0.067516,-0.21471,0.1472,0
11316,54.3,12.002,0,-5.7092,0,11336,54.691,10.6,3.3308,0.067516,-0.21471,0.1472,0
11316,54.3,12.002,0,-5.7092,0,11336,54.691,10.6,3.3308,0.067516,-0.21471,0.1472,0
11316,54.3,12.002,0,-5.7092,0,11336,54.691,10.6,3.3308,0.067516,-0.21471,0.1472,0
11317,54.3,11.576,0,-4.9686,0,11336,54.691,10.6,3.3308,0.067516,-0.21471,0.1546,0
11317,54.3,11.576,0,-4.9686,0,11336,54.691,10.6,3.3308,0.067516,-0.21471,0.1546,0
11317,54.3,11.478,0,-4.802,0,11336,54.691,10.6,3.3308,0.067516,-0.21471,0.15653,0
11318,54.3,11.204,0,-4.3408,0,11337,54.956,10.61,3.2996,0.1473,-0.47291,0.1551,0
11318,54.3,11.204,0,-4.3408,0,11337,55.087,10.617,3.2759,0.18823,-0.60881,0.15165,0
11319,54.3,10.88,0,-3.6668,0,11337,55.087,10.617,3.2759,0.18823,-0.60881,0.15899,0
11319,54.3,10.88,0,-3.6668,0,11337,55.087,10.617,3.2759,0.18823,-0.60881,0.15899,0
11319,54.3,10.88,0,-3.6668,0,11338,55.346,10.637,3.2118,0.26973,-0.89057,0.15191,0
11319,54.3,10.88,0,-3.6668,0,11338,55.346,10.637,3.2118,0.26973,-0.89057,0.15191,0
11319,54.3,10.88,0,-3.6668,0,11338,55.41,10.643,3.1922,0.28968,-0.96261,0.15024,0
11319,54.3,10.88,0,-3.6668,0,11338,55.41,10.643,3.1922,0.28968,-0.96261,0.15024,0
11319,54.3,10.88,0,-3.6668,0,11338,55.41,10.643,3.1922,0.28968,-0.96261,0.15024,0
11319,54.3,10.88,0,-3.6668,0,11338,55.41,10.643,3.1922,0.28968,-0.96261,0.15024,0
11319,54.3,10.88,0,-3.6668,0,11338,55.41,10.643,3.1922,0.28968,-0.96261,0.15024,0
11319,54.3,10.88,0,-3.6668,0,11338,55.41,10.643,3.1922,0.28968,-0.96261,0.15024,0
11319,54.3,10.88,0,-3.6668,0,11338,55.41,10.643,3.1922,0.28968,-0.96261,0.15024,0
11319,54.3,10.88,0,-3.6668,0,11338,55.474,10.649,3.1711,0.30935,-1.0351,0.14861,0
11319,54.3,10.88,0,-3.6668,0,11339,55.537,10.656,3.1486,0.32867,-1.1081,0.14702,0
11319,54.3,10.88,0,-3.6668,0,11339,55.537,10.656,3.1486,0.32867,-1.1081,0.14702,0
11319,54.3,10.88,0,-3.6668,0,11339,55.537,10.656,3.1486,0.32867,-1.1081,0.14702,0
11319,54.3,10.88,0,-3.6668,0,11339,55.537,10.656,3.1486,0.32867,-1.1081,0.14702,0
11319,54.3,10.88,0,-3.6668,0,11339,55.537,10.656,3.1486,0.32867,-1.1081,0.14702,0
11319,54.3,10.88,0,-3.6668,0,11339,55.6,10.663,3.1246,0.3476,-1.1813,0.14546,0
11319,54.3,10.88,0,-3.6668,0,11339,55.723,10.678,3.0722,0.38405,-1.3286,0.14245,0
11321,54.3,10.469,0,-1.6577,0,11339,55.723,10.678,3.0722,0.38405,-1.3286,0.15536,0
11321,54.3,10.409,0,-1.3506,0,11340,55.845,10.695,3.0139,0.41827,-1.4764,0.15528,0
11321,54.3,10.409,0,-1.3506,0,11340,55.845,10.695,3.0139,0.41827,-1.4764,0.15528,0
11321,54.3,10.409,0,-1.3506,0,11340,55.964,10.712,2.9497,0.44985,-1.6241,0.15184,0
11321,54.3,10.409,0,-1.3506,0,11340,56.022,10.722,2.9154,0.46452,-1.6977,0.15019,0
11321,54.3,10.409,0,-1.3506,0,11340,56.022,10.722,2.9154,0.46452,-1.6977,0.15019,0
11321,54.3,10.409,0,-1.3506,0,11340,56.022,10.722,2.9154,0.46452,-1.6977,0.15019,0
11321,54.3,10.409,0,-1.3506,0,11341,56.08,10.731,2.8796,0.4784,-1.7712,0.14856,0
11321,54.3,10.409,0,-1.3506,0,11341,56.08,10.731,2.8796,0.4784,-1.7712,0.14856,0
11321,54.3,10.409,0,-1.3506,0,11341,56.08,10.731,2.8796,0.4784,-1.7712,0.14856,0
11321,54.3,10.409,0,-1.3506,0,11341,56.08,10.731,2.8796,0.4784,-1.7712,0.14856,0
11321,54.3,10.409,0,-1.3506,0,11341,56.08,10.731,2.8796,0.4784,-1.7712,0.14856,0
11321,54.3,10.409,0,-1.3506,0,11341,56.08,10.731,2.8796,0.4784,-1.7712,0.14856,0
11322,54.3,10.447,0,3.2543,0,11341,56.08,10.731,2.8796,0.4784,-1.7712,0.15509,0
11322,54.3,10.447,0,3.2543,0,11341,56.08,10.731,2.8796,0.4784,-1.7712,0.15509,0
11322,54.3,10.447,0,3.2543,0,11341,56.08,10.731,2.8796,0.4784,-1.7712,0.15509,0
11322,54.3,10.447,0,3.2543,0,11341,56.08,10.731,2.8796,0.4784,-1.7712,0.15509,0
11322,54.3,10.447,0,3.2543,0,11341,56.08,10.731,2.8796,0.4784,-1.7712,0.15509,0
11322,54.3,10.447,0,3.2543,0,11341,56.08,10.731,2.8796,0.4784,-1.7712,0.15509,0
11322,54.3,10.447,0,3.2543,0,11341,56.08,10.731,2.8796,0.4784,-1.7712,0.15509,0
11322,54.3,10.447,0,3.2543,0,11341,56.08,10.731,2.8796,0.4784,-1.7712,0.15509,0
11322,54.3,10.447,0,3.2543,0,11341,56.08,10.731,2.8796,0.4784,-1.7712,0.15509,0
11322,54.3,10.447,0,3.2543,0,11341,56.08,10.731,2.8796,0.4784,-1.7712,0.15509,0
11322,54.3,10.447,0,3.2543,0,11341,56.08,10.731,2.8796,0.4784,-1.7712,0.15509,0
11322,54.3,10.447,0,3.2543,0,11341,56.193,10.752,2.8037,0.50357,-1.9171,0.15166,0
11322,54.3,10.577,0,3.2447,0,11341,56.193,10.752,2.8037,0.50357,-1.9171,0.15502,0
11322,54.3,10.577,0,3.2447,0,11341,56.193,10.752,2.8037,0.50357,-1.9171,0.15502,0
11322,54.3,10.577,0,3.2447,0,11342,56.357,10.783,2.679,0.53427,-2.1325,0.14996,0
11323,54.3,10.771,0,3.222,0,11342,56.357,10.783,2.679,0.53427,-2.1325,0.155,0
11324,54.3,10.963,0,3.1983,0,11342,56.357,10.783,2.679,0.53427,-2.1325,0.1605,0
11324,54.3,10.963,0,3.1983,0,11343,56.661,10.851,2.392,0.56702,-2.5438,0.15001,0
11324,54.3,11.154,0,3.1735,0,11343,56.661,10.851,2.392,0.56702,-2.5438,0.15521,0
11324,54.3,11.154,0,3.1735,0,11343,56.661,10.851,2.392,0.56702,-2.5438,0.15521,0
11325,54.3,11.218,0,3.165,0,11343,56.661,10.851,2.392,0.56702,-2.5438,0.15705,0
11325,54.3,11.218,0,3.165,0,11343,56.661,10.851,2.392,0.56702,-2.5438,0.15705,0
11325,54.3,11.218,0,3.165,0,11344,56.798,10.885,2.2307,0.56779,-2.7356,0.15186,0
11325,54.3,11.218,0,3.165,0,11344,56.798,10.885,2.2307,0.56779,-2.7356,0.15186,0
11325,54.3,11.218,0,3.165,0,11344,56.798,10.885,2.2307,0.56779,-2.7356,0.15186,0
11325,54.3,11.218,0,3.165,0,11344,56.798,10.885,2.2307,0.56779,-2.7356,0.15186,0
11325,54.3,11.344,0,3.1477,0,11344,56.798,10.885,2.2307,0.56779,-2.7356,0.15543,0
11325,54.3,11.344,0,3.1477,0,11344,56.798,10.885,2.2307,0.56779,-2.7356,0.15543,0
11325,54.3,11.407,0,3.1388,0,11344,56.798,10.885,2.2307,0.56779,-2.7356,0.1573,0
11325,54.3,11.407,0,3.1388,0,11344,56.798,10.885,2.2307,0.56779,-2.7356,0.1573,0
11325,54.3,11.407,0,3.1388,0,11344,56.798,10.885,2.2307,0.56779,-2.7356,0.1573,0
11325,54.3,11.407,0,3.1388,0,11344,56.798,10.885,2.2307,0.56779,-2.7356,0.1573,0
11325,54.3,11.47,0,3.1298,0,11344,56.798,10.885,2.2307,0.56779,-2.7356,0.15922,0
11325,54.3,11.47,0,3.1298,0,11344,56.798,10.885,2.2307,0.56779,-2.7356,0.15922,0
11326,54.3,11.532,0,3.1207,0,11344,56.798,10.885,2.2307,0.56779,-2.7356,0.1612,0
11326,54.3,11.657,0,3.1021,0,11345,57.006,10.941,1.9379,0.54502,-3.0281,0.15597,0
11326,54.3,11.657,0,3.1021,0,11345,57.006,10.941,1.9379,0.54502,-3.0281,0.15597,0
11326,54.3,11.657,0,3.1021,0,11345,57.08,10.962,1.8131,0.52756,-3.134,0.15252,0
11327,54.3,11.78,0,3.0831,0,11345,57.08,10.962,1.8131,0.52756,-3.134,0.15625,0
11327,54.3,11.78,0,3.0831,0,11346,57.149,10.983,1.6852,0.50093,-3.2024,0.15278,0
11327,54.3,11.78,0,3.0831,0,11346,57.149,10.983,1.6852,0.50093,-3.2024,0.15278,0
11327,54.3,11.78,0,3.0831,0,11346,57.149,10.983,1.6852,0.50093,-3.2024,0.15278,0
11327,54.3,11.78,0,3.0831,0,11346,57.149,10.983,1.6852,0.50093,-3.2024,0.15278,0
11327,54.3,11.78,0,3.0831,0,11346,57.149,10.983,1.6852,0.50093,-3.2024,0.15278,0
11327,54.3,11.78,0,3.0831,0,11346,57.149,10.983,1.6852,0.50093,-3.2024,0.15278,0
11327,54.3,11.78,0,3.0831,0,11346,57.149,10.983,1.6852,0.50093,-3.2024,0.15278,0
11327,54.3,11.78,0,3.0831,0,11346,57.149,10.983,1.6852,0.50093,-3.2024,0.15278,0
11327,54.3,11.78,0,3.0831,0,11346,57.149,10.983,1.6852,0.50093,-3.2024,0.15278,0
11327,54.3,11.903,0,3.0635,0,11346,57.149,10.983,1.6852,0.50093,-3.2024,0.15655,0
11327,54.3,11.903,0,3.0635,0,11346,57.149,10.983,1.6852,0.50093,-3.2024,0.15655,0
11327,54.3,11.903,0,3.0635,0,11346,57.149,10.983,1.6852,0.50093,-3.2024,0.15655,0
11327,54.3,11.903,0,3.0635,0,11346,57.149,10.983,1.6852,0.50093,-3.2024,0.15655,0
11327,54.3,11.903,0,3.0635,0,11346,57.149,10.983,1.6852,0.50093,-3.2024,0.15655,0
11327,54.3,11.964,0,3.0536,0,11346,57.149,10.983,1.6852,0.50093,-3.2024,0.15852,0
11327,54.3,11.964,0,3.0536,0,11346,57.149,10.983,1.6852,0.50093,-3.2024,0.15852,0
11327,54.3,11.964,0,3.0536,0,11346,57.149,10.983,1.6852,0.50093,-3.2024,0.15852,0
11327,54.3,11.964,0,3.0536,0,11346,57.244,11.01,1.4928,0.44264,-3.1951,0.15323,0
11328,54.3,12.147,0,3.023,0,11346,57.244,11.01,1.4928,0.44264,-3.1951,0.15907,0
11329,54.3,12.387,0,2.9805,0,11347,57.352,11.041,1.2451,0.35067,-3.0346,0.15992,0
11329,54.3,12.387,0,2.9805,0,11347,57.352,11.041,1.2451,0.35067,-3.0346,0.15992,0
11329,54.3,12.446,0,2.9696,0,11347,57.352,11.041,1.2451,0.35067,-3.0346,0.16204,0
11329,54.3,12.446,0,2.9696,0,11348,57.441,11.065,1.0168,0.26097,-2.7641,0.15471,0
11329,54.3,12.446,0,2.9696,0,11348,57.441,11.065,1.0168,0.26097,-2.7641,0.15471,0
11329,54.3,12.446,0,2.9696,0,11348,57.441,11.065,1.0168,0.26097,-2.7641,0.15471,0
11329,54.3,12.446,0,2.9696,0,11348,57.441,11.065,1.0168,0.26097,-2.7641,0.15471,0
11329,54.3,12.446,0,2.9696,0,11348,57.441,11.065,1.0168,0.26097,-2.7641,0.15471,0
11329,54.3,12.446,0,2.9696,0,11348,57.461,11.069,0.96344,0.24034,-2.6858,0.15297,0
11329,54.3,12.446,0,2.9696,0,11348,57.461,11.069,0.96344,0.24034,-2.6858,0.15297,0
11329,54.3,12.446,0,2.9696,0,11348,57.461,11.069,0.96344,0.24034,-2.6858,0.15297,0
11329,54.3,12.446,0,2.9696,0,11348,57.461,11.069,0.96344,0.24034,-2.6858,0.15297,0
11329,54.3,12.446,0,2.9696,0,11348,57.461,11.069,0.96344,0.24034,-2.6858,0.15297,0
11329,54.3,12.446,0,2.9696,0,11348,57.461,11.069,0.96344,0.24034,-2.6858,0.15297,0
11330,54.3,12.623,0,2.9362,0,11348,57.461,11.069,0.96344,0.24034,-2.6858,0.15901,0
11330,54.3,12.623,0,2.9362,0,11348,57.461,11.069,0.96344,0.24034,-2.6858,0.15901,0
11330,54.3,12.623,0,2.9362,0,11348,57.461,11.069,0.96344,0.24034,-2.6858,0.15901,0
11330,54.3,12.623,0,2.9362,0,11348,57.461,11.069,0.96344,0.24034,-2.6858,0.15901,0
11330,54.3,12.623,0,2.9362,0,11348,57.461,11.069,0.96344,0.24034,-2.6858,0.15901,0
11330,54.3,12.623,0,2.9362,0,11348,57.461,11.069,0.96344,0.24034,-2.6858,0.15901,0
11330,54.3,12.623,0,2.9362,0,11348,57.461,11.069,0.96344,0.24034,-2.6858,0.15901,0
11330,54.3,12.623,0,2.9362,0,11349,57.497,11.078,0.86174,0.20192,-2.5214,0.15539,0
11331,54.3,12.799,0,2.9018,0,11349,57.497,11.078,0.86174,0.20192,-2.5214,0.1617,0
11331,54.3,12.799,0,2.9018,0,11349,57.497,11.078,0.86174,0.20192,-2.5214,0.1617,0
11331,54.3,12.799,0,2.9018,0,11349,57.497,11.078,0.86174,0.20192,-2.5214,0.1617,0
11331,54.3,12.799,0,2.9018,0,11349,57.497,11.078,0.86174,0.20192,-2.5214,0.1617,0
11331,54.3,12.799,0,2.9018,0,11349,57.497,11.078,0.86174,0.20192,-2.5214,0.1617,0
11332,54.3,12.972,0,2.8664,0,11349,57.497,11.078,0.86174,0.20192,-2.5214,0.16862,0
11332,54.3,13.029,0,2.8543,0,11349,57.497,11.078,0.86174,0.20192,-2.5214,0.17108,0
11332,54.3,13.029,0,2.8543,0,11350,57.604,11.099,0.52379,0.089551,-1.8332,0.15548,0
11333,54.3,13.199,0,2.8176,0,11350,57.604,11.099,0.52379,0.089551,-1.8332,0.16199,0
11333,54.3,13.311,0,2.7926,0,11351,57.624,11.102,0.45626,0.071076,-1.6683,0.16271,0
11333,54.3,13.311,0,2.7926,0,11351,57.624,11.102,0.45626,0.071076,-1.6683,0.16271,0
11333,54.3,13.311,0,2.7926,0,11351,57.64,11.104,0.39509,0.055789,-1.5102,0.15892,0
11333,54.3,13.311,0,2.7926,0,11351,57.64,11.104,0.39509,0.055789,-1.5102,0.15892,0
11333,54.3,13.311,0,2.7926,0,11351,57.64,11.104,0.39509,0.055789,-1.5102,0.15892,0
11333,54.3,13.311,0,2.7926,0,11351,57.64,11.104,0.39509,0.055789,-1.5102,0.15892,0
11333,54.3,13.311,0,2.7926,0,11351,57.64,11.104,0.39509,0.055789,-1.5102,0.15892,0
11333,54.3,13.311,0,2.7926,0,11351,57.64,11.104,0.39509,0.055789,-1.5102,0.15892,0
11333,54.3,13.311,0,2.7926,0,11351,57.64,11.104,0.39509,0.055789,-1.5102,0.15892,0
11333,54.3,13.311,0,2.7926,0,11352,57.648,11.105,0.36679,0.049219,-1.434,0.15709,0
11333,54.3,13.311,0,2.7926,0,11352,57.648,11.105,0.36679,0.049219,-1.434,0.15709,0
11333,54.3,13.311,0,2.7926,0,11352,57.648,11.105,0.36679,0.049219,-1.434,0.15709,0
11333,54.3,13.311,0,2.7926,0,11352,57.648,11.105,0.36679,0.049219,-1.434,0.15709,0
11333,54.3,13.311,0,2.7926,0,11352,57.648,11.105,0.36679,0.049219,-1.434,0.15709,0
11333,54.3,13.311,0,2.7926,0,11352,57.648,11.105,0.36679,0.049219,-1.434,0.15709,0
11333,54.3,13.311,0,2.7926,0,11352,57.648,11.105,0.36679,0.049219,-1.434,0.15709,0
11333,54.3,13.311,0,2.7926,0,11352,57.648,11.105,0.36679,0.049219,-1.434,0.15709,0
11334,54.3,13.478,0,2.7543,0,11352,57.648,11.105,0.36679,0.049219,-1.434,0.16387,0
11334,54.3,13.478,0,2.7543,0,11352,57.648,11.105,0.36679,0.049219,-1.434,0.16387,0
11334,54.3,13.478,0,2.7543,0,11352,57.648,11.105,0.36679,0.049219,-1.434,0.16387,0
11334,54.3,13.478,0,2.7543,0,11352,57.648,11.105,0.36679,0.049219,-1.434,0.16387,0
11334,54.3,13.478,0,2.7543,0,11352,57.648,11.105,0.36679,0.049219,-1.434,0.16387,0
11334,54.3,13.478,0,2.7543,0,11352,57.648,11.105,0.36679,0.049219,-1.434,0.16387,0
11334,54.3,13.478,0,2.7543,0,11352,57.648,11.105,0.36679,0.049219,-1.434,0.16387,0
11334,54.3,13.533,0,2.7413,0,11352,57.648,11.105,0.36679,0.049219,-1.434,0.16628,0
11334,54.3,13.533,0,2.7413,0,11352,57.648,11.105,0.36679,0.049219,-1.434,0.16628,0
11334,54.3,13.533,0,2.7413,0,11353,57.678,11.108,0.24647,0.025161,-1.0861,0.15675,0
11336,54.3,13.91,0,2.648,0,11353,57.686,11.109,0.20736,0.018814,-0.96322,0.16958,0
11336,54.3,13.91,0,2.648,0,11353,57.686,11.109,0.20736,0.018814,-0.96322,0.16958,0
11337,54.3,14.068,0,2.6066,0,11354,57.697,11.11,0.15716,0.011841,-0.79664,0.17119,0
11337,54.3,14.068,0,2.6066,0,11354,57.705,11.111,0.11602,0.0071782,-0.65088,0.16502,0
11337,54.3,14.068,0,2.6066,0,11354,57.705,11.111,0.11602,0.0071782,-0.65088,0.16502,0
11337,54.3,14.068,0,2.6066,0,11355,57.707,11.111,0.10411,0.0060169,-0.60675,0.16306,0
11337,54.3,14.068,0,2.6066,0,11355,57.707,11.111,0.10411,0.0060169,-0.60675,0.16306,0
11337,54.3,14.068,0,2.6066,0,11355,57.707,11.111,0.10411,0.0060169,-0.60675,0.16306,0
11337,54.3,14.068,0,2.6066,0,11355,57.707,11.111,0.10411,0.0060169,-0.60675,0.16306,0
11337,54.3,14.068,0,2.6066,0,11355,57.707,11.111,0.10411,0.0060169,-0.60675,0.16306,0
11337,54.3,14.068,0,2.6066,0,11355,57.707,11.111,0.10411,0.0060169,-0.60675,0.16306,0
11337,54.3,14.068,0,2.6066,0,11355,57.707,11.111,0.10411,0.0060169,-0.60675,0.16306,0
11337,54.3,14.068,0,2.6066,0,11355,57.709,11.111,0.093028,0.0050158,-0.56477,0.16115,0
11337,54.3,14.068,0,2.6066,0,11355,57.709,11.111,0.093028,0.0050158,-0.56477,0.16115,0
11337,54.3,14.068,0,2.6066,0,11355,57.709,11.111,0.093028,0.0050158,-0.56477,0.16115,0
11337,54.3,14.068,0,2.6066,0,11355,57.709,11.111,0.093028,0.0050158,-0.56477,0.16115,0
11337,54.3,14.068,0,2.6066,0,11355,57.709,11.111,0.093028,0.0050158,-0.56477,0.16115,0
11337,54.3,14.068,0,2.6066,0,11355,57.709,11.111,0.093028,0.0050158,-0.56477,0.16115,0
11337,54.3,14.068,0,2.6066,0,11355,57.709,11.111,0.093028,0.0050158,-0.56477,0.16115,0
11337,54.3,14.068,0,2.6066,0,11355,57.709,11.111,0.093028,0.0050158,-0.56477,0.16115,0
11337,54.3,14.068,0,2.6066,0,11355,57.709,11.111,0.093028,0.0050158,-0.56477,0.16115,0
11338,54.3,14.274,0,2.5504,0,11355,57.709,11.111,0.093028,0.0050158,-0.56477,0.17138,0
11338,54.3,14.274,0,2.5504,0,11355,57.709,11.111,0.093028,0.0050158,-0.56477,0.17138,0
11338,54.3,14.274,0,2.5504,0,11355,57.709,11.111,0.093028,0.0050158,-0.56477,0.17138,0
11339,54.3,14.426,0,2.5075,0,11355,57.712,11.111,0.073182,0.0034216,-0.48706,0.17545,0
11339,54.3,14.426,0,2.5075,0,11355,57.712,11.111,0.073182,0.0034216,-0.48706,0.17545,0
11340,54.3,14.624,0,2.4492,0,11356,57.716,11.111,0.048625,0.0018193,-0.3852,0.18054,0
11340,54.3,14.624,0,2.4492,0,11356,57.716,11.111,0.048625,0.0018193,-0.3852,0.18054,0
11340,54.3,14.624,0,2.4492,0,11357,57.718,11.111,0.024088,0.00066218,-0.27422,0.17157,0
11340,54.3,14.624,0,2.4492,0,11357,57.718,11.111,0.024088,0.00066218,-0.27422,0.17157,0
11341,54.3,14.769,0,2.4049,0,11357,57.718,11.111,0.024088,0.00066218,-0.27422,0.18045,0
11341,54.3,14.769,0,2.4049,0,11357,57.718,11.111,0.024088,0.00066218,-0.27422,0.18045,0
11341,54.3,14.769,0,2.4049,0,11357,57.718,11.111,0.024088,0.00066218,-0.27422,0.18045,0
11341,54.3,14.769,0,2.4049,0,11357,57.718,11.111,0.024088,0.00066218,-0.27422,0.18045,0
11341,54.3,14.769,0,2.4049,0,11357,57.718,11.111,0.024088,0.00066218,-0.27422,0.18045,0
11341,54.3,14.769,0,2.4049,0,11357,57.718,11.111,0.024088,0.00066218,-0.27422,0.18045,0
11341,54.3,14.769,0,2.4049,0,11358,57.719,11.111,0.010707,0.00023852,-0.20736,0.17366,0
11341,54.3,14.769,0,2.4049,0,11358,57.719,11.111,0.010707,0.00023852,-0.20736,0.17366,0
11341,54.3,14.769,0,2.4049,0,11358,57.719,11.111,0.010707,0.00023852,-0.20736,0.17366,0
11341,54.3,14.769,0,2.4049,0,11358,57.719,11.111,0.010707,0.00023852,-0.20736,0.17366,0
11341,54.3,14.769,0,2.4049,0,11358,57.719,11.111,0.010707,0.00023852,-0.20736,0.17366,0
11341,54.3,14.769,0,2.4049,0,11358,57.719,11.111,0.010707,0.00023852,-0.20736,0.17366,0
11342,54.3,14.865,0,2.3751,0,11358,57.719,11.111,0.010707,0.00023852,-0.20736,0.17967,0
11342,54.3,14.912,0,2.3601,0,11358,57.719,11.111,0.010707,0.00023852,-0.20736,0.18285,0
11342,54.3,14.912,0,2.3601,0,11358,57.719,11.111,0.010707,0.00023852,-0.20736,0.18285,0
11342,54.3,14.912,0,2.3601,0,11358,57.719,11.111,0.010707,0.00023852,-0.20736,0.18285,0
11342,54.3,14.912,0,2.3601,0,11358,57.719,11.111,0.010707,0.00023852,-0.20736,0.18285,0
11342,54.3,14.912,0,2.3601,0,11358,57.719,11.111,0.010707,0.00023852,-0.20736,0.18285,0
11342,54.3,14.912,0,2.3601,0,11359,57.72,11.111,-0.0042387,-3.3157e-05,-0.12207,0.17152,0
11343,54.3,15.099,0,2.2997,0,11359,57.72,11.111,-0.0042387,-3.3157e-05,-0.12207,0.18382,0
11343,54.3,15.099,0,2.2997,0,11359,57.72,11.111,-0.0042387,-3.3157e-05,-0.12207,0.18382,0
11343,54.3,15.099,0,2.2997,0,11359,57.719,11.111,-0.0098072,-6.779e-05,-0.083997,0.17679,0
11343,54.3,15.099,0,2.2997,0,11359,57.719,11.111,-0.0098072,-6.779e-05,-0.083997,0.17679,0
11343,54.3,15.099,0,2.2997,0,11359,57.719,11.111,-0.0098072,-6.779e-05,-0.083997,0.17679,0
11343,54.3,15.099,0,2.2997,0,11359,57.719,11.111,-0.0098072,-6.779e-05,-0.083997,0.17679,0
11343,54.3,15.099,0,2.2997,0,11359,57.719,11.111,-0.0098072,-6.779e-05,-0.083997,0.17679,0
11344,54.3,15.28,0,2.2387,0,11360,57.719,11.111,-0.011215,-6.9028e-05,-0.07316,0.18747,0
11344,54.3,15.28,0,2.2387,0,11360,57.718,11.111,-0.01346,-6.2756e-05,-0.053969,0.18254,0
11344,54.3,15.28,0,2.2387,0,11360,57.718,11.111,-0.01346,-6.2756e-05,-0.053969,0.18254,0
11344,54.3,15.28,0,2.2387,0,11360,57.718,11.111,-0.01346,-6.2756e-05,-0.053969,0.18254,0
11344,54.3,15.28,0,2.2387,0,11360,57.718,11.111,-0.01346,-6.2756e-05,-0.053969,0.18254,0
11344,54.3,15.28,0,2.2387,0,11360,57.718,11.111,-0.014327,-5.6832e-05,-0.045521,0.18017,0
11344,54.3,15.28,0,2.2387,0,11361,57.718,11.111,-0.015621,-4.2311e-05,-0.030699,0.1756,0
11346,54.3,15.5,0,2.1617,0,11361,57.718,11.111,-0.015621,-4.2311e-05,-0.030699,0.19247,0
11346,54.3,15.5,0,2.1617,0,11361,57.718,11.111,-0.015621,-4.2311e-05,-0.030699,0.19247,0
11346,54.3,15.5,0,2.1617,0,11361,57.718,11.111,-0.015621,-4.2311e-05,-0.030699,0.19247,0
11346,54.3,15.5,0,2.1617,0,11361,57.718,11.111,-0.015621,-4.2311e-05,-0.030699,0.19247,0
11346,54.3,15.5,0,2.1617,0,11361,57.718,11.111,-0.015621,-4.2311e-05,-0.030699,0.19247,0
11346,54.3,15.5,0,2.1617,0,11361,57.718,11.111,-0.015621,-4.2311e-05,-0.030699,0.19247,0
11346,54.3,15.586,0,2.1308,0,11361,57.717,11.111,-0.01641,-2.6822e-05,-0.018366,0.19461,0
11347,54.3,15.629,0,2.1153,0,11361,57.717,11.111,-0.01641,-2.6822e-05,-0.018366,0.1985,0
11347,54.3,15.629,0,2.1153,0,11361,57.717,11.111,-0.01641,-2.6822e-05,-0.018366,0.1985,0
11347,54.3,15.629,0,2.1153,0,11361,57.717,11.111,-0.01641,-2.6822e-05,-0.018366,0.1985,0
11347,54.3,15.629,0,2.1153,0,11361,57.717,11.111,-0.01641,-2.6822e-05,-0.018366,0.1985,0
11347,54.3,15.629,0,2.1153,0,11361,57.717,11.111,-0.01641,-2.6822e-05,-0.018366,0.1985,0
11347,54.3,15.629,0,2.1153,0,11361,57.717,11.111,-0.01641,-2.6822e-05,-0.018366,0.1985,0
11347,54.3,15.629,0,2.1153,0,11361,57.717,11.111,-0.01641,-2.6822e-05,-0.018366,0.1985,0
11347,54.3,15.629,0,2.1153,0,11361,57.717,11.111,-0.01641,-2.6822e-05,-0.018366,0.1985,0
11347,54.3,15.629,0,2.1153,0,11362,57.716,11.111,-0.016838,-5.8594e-06,-0.0038754,0.19038,0
11348,54.3,15.754,0,2.0687,0,11362,57.716,11.111,-0.016838,-5.8594e-06,-0.0038754,0.20206,0
11348,54.3,15.754,0,2.0687,0,11362,57.716,11.111,-0.016838,-5.8594e-06,-0.0038754,0.20206,0
11348,54.3,15.754,0,2.0687,0,11362,57.715,11.111,-0.016581,9.9084e-06,0.0066132,0.19365,0
11348,54.3,15.754,0,2.0687,0,11362,57.715,11.111,-0.016581,9.9084e-06,0.0066132,0.19365,0
11348,54.3,15.754,0,2.0687,0,11362,57.715,11.111,-0.016581,9.9084e-06,0.0066132,0.19365,0
11348,54.3,15.754,0,2.0687,0,11362,57.715,11.111,-0.016581,9.9084e-06,0.0066132,0.19365,0
11348,54.3,15.754,0,2.0687,0,11363,57.715,11.111,-0.01638,1.3877e-05,0.00936,0.191,0
11349,54.3,15.957,0,1.991,0,11363,57.715,11.111,-0.01638,1.3877e-05,0.00936,0.21162,0
11349,54.3,15.957,0,1.991,0,11363,57.715,11.111,-0.01638,1.3877e-05,0.00936,0.21162,0
11349,54.3,15.957,0,1.991,0,11363,57.715,11.111,-0.01638,1.3877e-05,0.00936,0.21162,0
11350,54.3,15.997,0,1.9754,0,11363,57.715,11.111,-0.01638,1.3877e-05,0.00936,0.2163,0
11350,54.3,15.997,0,1.9754,0,11363,57.715,11.111,-0.01638,1.3877e-05,0.00936,0.2163,0
11350,54.3,15.997,0,1.9754,0,11363,57.715,11.111,-0.01638,1.3877e-05,0.00936,0.2163,0
11350,54.3,15.997,0,1.9754,0,11363,57.715,11.111,-0.01638,1.3877e-05,0.00936,0.2163,0
11350,54.3,16.075,0,1.9444,0,11364,57.713,11.111,-0.014786,2.51e-05,0.018627,0.2095,0
11351,54.3,16.114,0,1.9289,0,11364,57.713,11.111,-0.014786,2.51e-05,0.018627,0.21412,0
11351,54.3,16.114,0,1.9289,0,11364,57.713,11.111,-0.014786,2.51e-05,0.018627,0.21412,0
11351,54.3,16.152,0,1.9134,0,11364,57.713,11.111,-0.014786,2.51e-05,0.018627,0.21895,0
11351,54.3,16.152,0,1.9134,0,11364,57.713,11.111,-0.014786,2.51e-05,0.018627,0.21895,0
11351,54.3,16.152,0,1.9134,0,11364,57.713,11.111,-0.014786,2.51e-05,0.018627,0.21895,0
11351,54.3,16.152,0,1.9134,0,11365,57.712,11.111,-0.013093,2.6308e-05,0.021957,0.20612,0
11352,54.3,16.228,0,1.8824,0,11365,57.712,11.111,-0.013093,2.6308e-05,0.021957,0.21533,0
11352,54.3,16.228,0,1.8824,0,11365,57.712,11.111,-0.013093,2.6308e-05,0.021957,0.21533,0
11352,54.3,16.266,0,1.8669,0,11365,57.712,11.111,-0.013093,2.6308e-05,0.021957,0.22025,0
11352,54.3,16.266,0,1.8669,0,11365,57.712,11.111,-0.013093,2.6308e-05,0.021957,0.22025,0
11352,54.3,16.303,0,1.8515,0,11365,57.712,11.111,-0.013093,2.6308e-05,0.021957,0.22539,0
11352,54.3,16.303,0,1.8515,0,11365,57.712,11.111,-0.013093,2.6308e-05,0.021957,0.22539,0
11352,54.3,16.303,0,1.8515,0,11366,57.711,11.111,-0.011275,2.3656e-05,0.02285,0.21186,0
11353,54.3,16.376,0,1.8207,0,11366,57.711,11.111,-0.011275,2.3656e-05,0.02285,0.22166,0
11353,54.3,16.413,0,1.8053,0,11366,57.711,11.111,-0.011275,2.3656e-05,0.02285,0.2269,0
11353,54.3,16.413,0,1.8053,0,11366,57.711,11.111,-0.011275,2.3656e-05,0.02285,0.2269,0
11353,54.3,16.413,0,1.8053,0,11366,57.711,11.111,-0.011275,2.3656e-05,0.02285,0.2269,0
11354,54.3,16.449,0,1.79,0,11366,57.711,11.111,-0.011275,2.3656e-05,0.02285,0.23239,0
11354,54.3,16.449,0,1.79,0,11366,57.71,11.111,-0.0094778,1.9322e-05,0.022134,0.21808,0
11354,54.3,16.449,0,1.79,0,11366,57.71,11.111,-0.0094778,1.9322e-05,0.022134,0.21808,0
11354,54.3,16.449,0,1.79,0,11366,57.71,11.111,-0.0094778,1.9322e-05,0.022134,0.21808,0
11354,54.3,16.449,0,1.79,0,11366,57.71,11.111,-0.0094778,1.9322e-05,0.022134,0.21808,0
11354,54.3,16.449,0,1.79,0,11366,57.71,11.111,-0.0094778,1.9322e-05,0.022134,0.21808,0
11354,54.3,16.449,0,1.79,0,11366,57.71,11.111,-0.0094778,1.9322e-05,0.022134,0.21808,0
11354,54.3,16.52,0,1.7594,0,11366,57.71,11.111,-0.0094778,1.9322e-05,0.022134,0.22854,0
11354,54.3,16.52,0,1.7594,0,11366,57.71,11.111,-0.0094778,1.9322e-05,0.022134,0.22854,0
11354,54.3,16.52,0,1.7594,0,11366,57.71,11.111,-0.0094778,1.9322e-05,0.022134,0.22854,0
11354,54.3,16.52,0,1.7594,0,11367,57.71,11.111,-0.0086183,1.699e-05,0.021375,0.22139,0
11354,54.3,16.52,0,1.7594,0,11367,57.71,11.111,-0.0086183,1.699e-05,0.021375,0.22139,0
11355,54.3,16.589,0,1.7289,0,11367,57.71,11.111,-0.0086183,1.699e-05,0.021375,0.2322,0
11355,54.3,16.589,0,1.7289,0,11367,57.71,11.111,-0.0086183,1.699e-05,0.021375,0.2322,0
11355,54.3,16.589,0,1.7289,0,11367,57.71,11.111,-0.0086183,1.699e-05,0.021375,0.2322,0
11356,54.3,16.692,0,1.6835,0,11367,57.709,11.111,-0.0077958,1.4711e-05,0.020432,0.24203,0
11356,54.3,16.692,0,1.6835,0,11368,57.709,10.871,-0.006508,-4,0.020648,0.22777,0
11356,54.3,16.692,0,1.6835,0,11368,57.709,10.871,-0.006508,-4,0.020648,0.22777,0
11356,54.3,16.692,0,1.6835,0,11368,57.709,10.871,-0.006508,-4,0.020648,0.22777,0
11356,54.3,16.692,0,1.6835,0,11368,57.709,10.791,-0.0061145,-4,0.019765,0.22336,0
11357,54.3,16.791,0,1.6385,0,11368,57.709,10.791,-0.0061145,-4,0.019765,0.2407,0
11357,54.3,16.791,0,1.6385,0,11368,57.709,10.791,-0.0061145,-4,0.019765,0.2407,0
11357,54.3,16.791,0,1.6385,0,11369,57.709,10.631,-0.0053797,-4,0.018033,0.23123,0
11357,54.3,16.791,0,1.6385,0,11369,57.709,10.631,-0.0053797,-4,0.018033,0.23123,0
11357,54.3,16.791,0,1.6385,0,11369,57.709,10.631,-0.0053797,-4,0.018033,0.23123,0
11357,54.3,16.791,0,1.6385,0,11369,57.709,10.631,-0.0053797,-4,0.018033,0.23123,0
11357,54.3,16.791,0,1.6385,0,11369,57.709,10.631,-0.0053797,-4,0.018033,0.23123,0
11357,54.3,16.791,0,1.6385,0,11369,57.709,10.631,-0.0053797,-4,0.018033,0.23123,0
11357,54.3,16.791,0,1.6385,0,11369,57.709,10.551,-0.0050379,-4,0.01719,0.22674,0
11358,54.3,16.888,0,1.5939,0,11369,57.709,10.551,-0.0050379,-4,0.01719,0.24492,0
11358,54.3,16.888,0,1.5939,0,11369,57.709,10.551,-0.0050379,-4,0.01719,0.24492,0
11358,54.3,16.888,0,1.5939,0,11369,57.709,10.551,-0.0050379,-4,0.01719,0.24492,0
11358,54.3,16.888,0,1.5939,0,11369,57.709,10.551,-0.0050379,-4,0.01719,0.24492,0
11358,54.3,16.888,0,1.5939,0,11369,57.709,10.551,-0.0050379,-4,0.01719,0.24492,0
11358,54.3,16.888,0,1.5939,0,11369,57.709,10.551,-0.0050379,-4,0.01719,0.24492,0
11358,54.3,16.92,0,1.5792,0,11369,57.709,10.551,-0.0050379,-4,0.01719,0.25162,0
11358,54.3,16.92,0,1.5792,0,11369,57.709,10.551,-0.0050379,-4,0.01719,0.25162,0
11359,54.3,16.952,0,1.5645,0,11369,57.709,10.551,-0.0050379,-4,0.01719,0.25867,0
11360,54.3,17.044,0,1.5207,0,11370,57.708,10.151,-0.003568,-4,0.013266,0.25349,0
11360,54.3,17.104,0,1.4918,0,11370,57.708,10.151,-0.003568,-4,0.013266,0.26856,0
11361,54.3,17.164,0,1.4631,0,11371,57.708,9.8311,-0.0026525,-4,0.010541,0.26195,0
11361,54.3,17.164,0,1.4631,0,11371,57.708,9.8311,-0.0026525,-4,0.010541,0.26195,0
11361,54.3,17.164,0,1.4631,0,11371,57.708,9.8311,-0.0026525,-4,0.010541,0.26195,0
11361,54.3,17.164,0,1.4631,0,11371,57.708,9.8311,-0.0026525,-4,0.010541,0.26195,0
11361,54.3,17.164,0,1.4631,0,11371,57.708,9.8311,-0.0026525,-4,0.010541,0.26195,0
11361,54.3,17.164,0,1.4631,0,11371,57.708,9.8311,-0.0026525,-4,0.010541,0.26195,0
11361,54.3,17.164,0,1.4631,0,11371,57.708,9.8311,-0.0026525,-4,0.010541,0.26195,0
11361,54.3,17.164,0,1.4631,0,11371,57.708,9.8311,-0.0026525,-4,0.010541,0.26195,0
11361,54.3,17.164,0,1.4631,0,11371,57.708,9.8311,-0.0026525,-4,0.010541,0.26195,0
11361,54.3,17.164,0,1.4631,0,11371,57.708,9.8311,-0.0026525,-4,0.010541,0.26195,0
11361,54.3,17.164,0,1.4631,0,11371,57.708,9.6711,-0.0022707,-4,0.009328,0.2515,0
11361,54.3,17.164,0,1.4631,0,11371,57.708,9.6711,-0.0022707,-4,0.009328,0.2515,0
11361,54.3,17.164,0,1.4631,0,11371,57.708,9.6711,-0.0022707,-4,0.009328,0.2515,0
11361,54.3,17.164,0,1.4631,0,11371,57.708,9.6711,-0.0022707,-4,0.009328,0.2515,0
11361,54.3,17.164,0,1.4631,0,11371,57.708,9.6711,-0.0022707,-4,0.009328,0.2515,0
11361,54.3,17.164,0,1.4631,0,11371,57.708,9.6711,-0.0022707,-4,0.009328,0.2515,0
11361,54.3,17.164,0,1.4631,0,11371,57.708,9.6711,-0.0022707,-4,0.009328,0.2515,0
11361,54.3,17.164,0,1.4631,0,11371,57.708,9.6711,-0.0022707,-4,0.009328,0.2515,0
11361,54.3,17.164,0,1.4631,0,11371,57.708,9.6711,-0.0022707,-4,0.009328,0.2515,0
11362,54.3,17.221,0,1.4347,0,11371,57.708,9.6711,-0.0022707,-4,0.009328,0.26681,0
11362,54.3,17.221,0,1.4347,0,11371,57.708,9.6711,-0.0022707,-4,0.009328,0.26681,0
11362,54.3,17.221,0,1.4347,0,11371,57.708,9.6711,-0.0022707,-4,0.009328,0.26681,0
11362,54.3,17.221,0,1.4347,0,11371,57.708,9.6711,-0.0022707,-4,0.009328,0.26681,0
11362,54.3,17.221,0,1.4347,0,11371,57.708,9.5111,-0.0019343,-4,0.0082143,0.25613,0
11363,54.3,17.334,0,1.3788,0,11371,57.708,9.5111,-0.0019343,-4,0.0082143,0.29003,0
11364,54.3,17.442,0,1.324,0,11372,57.708,9.1911,-0.0013818,-4,0.006277,0.30408,0
11365,54.3,17.495,0,1.297,0,11373,57.707,8.8711,-0.00096514,-4,0.0047012,0.29895,0
11365,54.3,17.495,0,1.297,0,11373,57.707,8.8711,-0.00096514,-4,0.0047012,0.29895,0
11365,54.3,17.495,0,1.297,0,11373,57.707,8.7111,-0.00079918,-4,0.0040367,0.28673,0
11365,54.3,17.495,0,1.297,0,11373,57.707,8.6311,-0.00072543,-4,0.003733,0.28094,0
11365,54.3,17.495,0,1.297,0,11373,57.707,8.6311,-0.00072543,-4,0.003733,0.28094,0
11365,54.3,17.495,0,1.297,0,11373,57.707,8.6311,-0.00072543,-4,0.003733,0.28094,0
11365,54.3,17.495,0,1.297,0,11373,57.707,8.6311,-0.00072543,-4,0.003733,0.28094,0
11365,54.3,17.495,0,1.297,0,11373,57.707,8.6311,-0.00072543,-4,0.003733,0.28094,0
11365,54.3,17.495,0,1.297,0,11373,57.707,8.6311,-0.00072543,-4,0.003733,0.28094,0
11365,54.3,17.495,0,1.297,0,11373,57.707,8.6311,-0.00072543,-4,0.003733,0.28094,0
11365,54.3,17.495,0,1.297,0,11373,57.707,8.6311,-0.00072543,-4,0.003733,0.28094,0
11365,54.3,17.495,0,1.297,0,11373,57.707,8.6311,-0.00072543,-4,0.003733,0.28094,0
11366,54.3,17.571,0,1.2559,0,11373,57.707,8.6311,-0.00072543,-4,0.003733,0.31182,0
11366,54.3,17.571,0,1.2559,0,11373,57.707,8.6311,-0.00072543,-4,0.003733,0.31182,0
11366,54.3,17.571,0,1.2559,0,11373,57.707,8.6311,-0.00072543,-4,0.003733,0.31182,0
11366,54.3,17.571,0,1.2559,0,11373,57.707,8.6311,-0.00072543,-4,0.003733,0.31182,0
11366,54.3,17.571,0,1.2559,0,11373,57.707,8.6311,-0.00072543,-4,0.003733,0.31182,0
11366,54.3,17.571,0,1.2559,0,11373,57.707,8.6311,-0.00072543,-4,0.003733,0.31182,0
11366,54.3,17.571,0,1.2559,0,11373,57.707,8.6311,-0.00072543,-4,0.003733,0.31182,0
11366,54.3,17.571,0,1.2559,0,11373,57.707,8.6311,-0.00072543,-4,0.003733,0.31182,0
11366,54.3,17.571,0,1.2559,0,11373,57.707,8.6311,-0.00072543,-4,0.003733,0.31182,0
11366,54.3,17.571,0,1.2559,0,11373,57.707,8.6311,-0.00072543,-4,0.003733,0.31182,0
11366,54.3,17.571,0,1.2559,0,11373,57.707,8.6311,-0.00072543,-4,0.003733,0.31182,0
11366,54.3,17.571,0,1.2559,0,11374,57.707,8.4711,-0.00059457,-4,0.003179,0.29899,0
11366,54.3,17.571,0,1.2559,0,11374,57.707,8.4711,-0.00059457,-4,0.003179,0.29899,0
11367,54.3,17.621,0,1.2261,0,11374,57.707,8.4711,-0.00059457,-4,0.003179,0.32145,0
11367,54.3,17.621,0,1.2261,0,11374,57.707,8.1511,-0.00039027,-4,0.0022647,0.29581,0
11368,54.3,17.717,0,1.1683,0,11374,57.707,8.1511,-0.00039027,-4,0.0022647,0.34356,0
11370,54.3,17.83,0,1.0997,0,11375,57.707,7.8311,-0.00024904,-4,0.0015287,0.3856,0
11370,54.3,17.83,0,1.0997,0,11375,57.707,7.8311,-0.00024904,-4,0.0015287,0.3856,0
11370,54.3,17.852,0,1.0865,0,11375,57.707,7.8311,-0.00024904,-4,0.0015287,0.40192,0
11370,54.3,17.852,0,1.0865,0,11375,57.707,7.8311,-0.00024904,-4,0.0015287,0.40192,0
11370,54.3,17.852,0,1.0865,0,11375,57.707,7.8311,-0.00024904,-4,0.0015287,0.40192,0
11370,54.3,17.852,0,1.0865,0,11375,57.707,7.8311,-0.00024904,-4,0.0015287,0.40192,0
11370,54.3,17.852,0,1.0865,0,11375,57.707,7.8311,-0.00024904,-4,0.0015287,0.40192,0
11370,54.3,17.852,0,1.0865,0,11375,57.707,7.8311,-0.00024904,-4,0.0015287,0.40192,0
11370,54.3,17.852,0,1.0865,0,11376,57.707,7.5111,-0.00015621,-4,0.0010011,0.36931,0
11370,54.3,17.852,0,1.0865,0,11376,57.707,7.5111,-0.00015621,-4,0.0010011,0.36931,0
11370,54.3,17.852,0,1.0865,0,11376,57.707,7.5111,-0.00015621,-4,0.0010011,0.36931,0
11370,54.3,17.852,0,1.0865,0,11376,57.707,7.5111,-0.00015621,-4,0.0010011,0.36931,0
11370,54.3,17.852,0,1.0865,0,11376,57.707,7.5111,-0.00015621,-4,0.0010011,0.36931,0
11370,54.3,17.852,0,1.0865,0,11376,57.707,7.5111,-0.00015621,-4,0.0010011,0.36931,0
11370,54.3,17.852,0,1.0865,0,11376,57.707,7.5111,-0.00015621,-4,0.0010011,0.36931,0
11370,54.3,17.852,0,1.0865,0,11376,57.707,7.5111,-0.00015621,-4,0.0010011,0.36931,0
11371,54.3,17.895,0,1.0604,0,11376,57.707,7.5111,-0.00015621,-4,0.0010011,0.40147,0
11371,54.3,17.895,0,1.0604,0,11376,57.707,7.5111,-0.00015621,-4,0.0010011,0.40147,0
11371,54.3,17.895,0,1.0604,0,11376,57.707,7.5111,-0.00015621,-4,0.0010011,0.40147,0
11371,54.3,17.916,0,1.0476,0,11376,57.707,7.5111,-0.00015621,-4,0.0010011,0.41862,0
11371,54.3,17.916,0,1.0476,0,11376,57.707,7.1911,-9.5831e-05,-4,0.00064849,0.38571,0
11371,54.3,17.916,0,1.0476,0,11376,57.707,7.1911,-9.5831e-05,-4,0.00064849,0.38571,0
11371,54.3,17.916,0,1.0476,0,11376,57.707,7.1911,-9.5831e-05,-4,0.00064849,0.38571,0
11371,54.3,17.916,0,1.0476,0,11376,57.707,7.1911,-9.5831e-05,-4,0.00064849,0.38571,0
11371,54.3,17.916,0,1.0476,0,11376,57.707,7.1911,-9.5831e-05,-4,0.00064849,0.38571,0
11371,54.3,17.916,0,1.0476,0,11376,57.707,7.1911,-9.5831e-05,-4,0.00064849,0.38571,0
11374,54.3,18.037,0,0.97379,0,11377,57.707,6.9511,-6.5137e-05,-4,0.00046472,0.46646,0
11374,54.3,18.037,0,0.97379,0,11377,57.707,6.9511,-6.5137e-05,-4,0.00046472,0.46646,0
11374,54.3,18.037,0,0.97379,0,11377,57.707,6.9511,-6.5137e-05,-4,0.00046472,0.46646,0
11374,54.3,18.037,0,0.97379,0,11377,57.707,6.7111,-4.3247e-05,-4,0.00033064,0.4422,0
11374,54.3,18.037,0,0.97379,0,11377,57.707,6.7111,-4.3247e-05,-4,0.00033064,0.4422,0
11375,54.3,18.113,0,0.92734,0,11377,57.707,6.6311,-3.7472e-05,-4,0.00029465,0.50237,0
11375,54.3,18.113,0,0.92734,0,11378,57.707,6.4711,-2.776e-05,-4,0.0002333,0.48926,0
11375,54.3,18.113,0,0.92734,0,11378,57.707,6.4711,-2.776e-05,-4,0.0002333,0.48926,0
11376,54.3,18.168,0,0.8939,0,11378,57.707,6.4711,-2.776e-05,-4,0.0002333,0.52348,0
11376,54.3,18.168,0,0.8939,0,11378,57.707,6.4711,-2.776e-05,-4,0.0002333,0.52348,0
11377,54.3,18.185,0,0.883,0,11378,57.707,6.4711,-2.776e-05,-4,0.0002333,0.526,0
11377,54.3,18.185,0,0.883,0,11378,57.707,6.4711,-2.776e-05,-4,0.0002333,0.526,0
11377,54.3,18.185,0,0.883,0,11378,57.707,6.4711,-2.776e-05,-4,0.0002333,0.526,0
11377,54.3,18.185,0,0.883,0,11378,57.707,6.4711,-2.776e-05,-4,0.0002333,0.526,0
11377,54.3,18.185,0,0.883,0,11378,57.707,6.4711,-2.776e-05,-4,0.0002333,0.526,0
11377,54.3,18.185,0,0.883,0,11378,57.707,6.4711,-2.776e-05,-4,0.0002333,0.526,0
11377,54.3,18.185,0,0.883,0,11378,57.707,6.4711,-2.776e-05,-4,0.0002333,0.526,0
11377,54.3,18.185,0,0.883,0,11378,57.707,6.4711,-2.776e-05,-4,0.0002333,0.526,0
11377,54.3,18.185,0,0.883,0,11378,57.707,6.4711,-2.776e-05,-4,0.0002333,0.526,0
11377,54.3,18.185,0,0.883,0,11378,57.707,6.4711,-2.776e-05,-4,0.0002333,0.526,0
11377,54.3,18.185,0,0.883,0,11378,57.707,6.1511,-1.4079e-05,-4,0.00014425,0.51763,0
11377,54.3,18.185,0,0.883,0,11378,57.707,6.1511,-1.4079e-05,-4,0.00014425,0.51763,0
11377,54.3,18.185,0,0.883,0,11378,57.707,6.1511,-1.4079e-05,-4,0.00014425,0.51763,0
11377,54.3,18.185,0,0.883,0,11378,57.707,6.1511,-1.4079e-05,-4,0.00014425,0.51763,0
11377,54.3,18.185,0,0.883,0,11378,57.707,6.1511,-1.4079e-05,-4,0.00014425,0.51763,0
11377,54.3,18.185,0,0.883,0,11378,57.707,6.1511,-1.4079e-05,-4,0.00014425,0.51763,0
11377,54.3,18.185,0,0.883,0,11378,57.707,6.1511,-1.4079e-05,-4,0.00014425,0.51763,0
11377,54.3,18.185,0,0.883,0,11378,57.707,6.0711,-1.1584e-05,-4,0.00012747,0.51384,0
11377,54.3,18.185,0,0.883,0,11378,57.707,6.0711,-1.1584e-05,-4,0.00012747,0.51384,0
11378,54.3,18.237,0,0.85108,0,11378,57.707,6.0711,-1.1584e-05,-4,0.00012747,0.51881,0
11379,54.3,18.304,0,0.81022,0,11379,57.707,5.7511,-4.2493e-06,-4,7.6354e-05,0.51448,0
11381,54.3,18.367,0,0.77124,0,11379,57.707,5.5911,-1.805e-06,-4,5.8289e-05,0.50837,0
11381,54.3,18.367,0,0.77124,0,11379,57.707,5.5911,-1.805e-06,-4,5.8289e-05,0.50837,0
11381,54.3,18.367,0,0.77124,0,11379,57.707,5.2711,1.4175e-06,-4,3.2612e-05,0.51476,0
11381,54.3,18.367,0,0.77124,0,11379,57.707,5.2711,1.4175e-06,-4,3.2612e-05,0.51476,0
11381,54.3,18.367,0,0.77124,0,11379,57.707,5.2711,1.4175e-06,-4,3.2612e-05,0.51476,0
11381,54.3,18.367,0,0.77124,0,11379,57.707,5.2711,1.4175e-06,-4,3.2612e-05,0.51476,0
11381,54.3,18.367,0,0.77124,0,11379,57.707,5.2711,1.4175e-06,-4,3.2612e-05,0.51476,0
11381,54.3,18.367,0,0.77124,0,11379,57.707,5.2711,1.4175e-06,-4,3.2612e-05,0.51476,0
11381,54.3,18.367,0,0.77124,0,11379,57.707,5.2711,1.4175e-06,-4,3.2612e-05,0.51476,0
11381,54.3,18.367,0,0.77124,0,11379,57.707,5.2711,1.4175e-06,-4,3.2612e-05,0.51476,0
11381,54.3,18.367,0,0.77124,0,11379,57.707,5.2711,1.4175e-06,-4,3.2612e-05,0.51476,0
11381,54.3,18.367,0,0.77124,0,11379,57.707,5.2711,1.4175e-06,-4,3.2612e-05,0.51476,0
11381,54.3,18.398,0,0.75243,0,11379,57.707,5.2711,1.4175e-06,-4,3.2612e-05,0.49454,0
11381,54.3,18.398,0,0.75243,0,11379,57.707,5.2711,1.4175e-06,-4,3.2612e-05,0.49454,0
11381,54.3,18.398,0,0.75243,0,11379,57.707,5.2711,1.4175e-06,-4,3.2612e-05,0.49454,0
11381,54.3,18.398,0,0.75243,0,11379,57.707,5.2711,1.4175e-06,-4,3.2612e-05,0.49454,0
11381,54.3,18.398,0,0.75243,0,11379,57.707,5.2711,1.4175e-06,-4,3.2612e-05,0.49454,0
11381,54.3,18.398,0,0.75243,0,11379,57.707,5.2711,1.4175e-06,-4,3.2612e-05,0.49454,0
11381,54.3,18.398,0,0.75243,0,11379,57.707,5.2711,1.4175e-06,-4,3.2612e-05,0.49454,0
11381,54.3,18.398,0,0.75243,0,11379,57.707,5.2711,1.4175e-06,-4,3.2612e-05,0.49454,0
11381,54.3,18.398,0,0.75243,0,11379,57.707,5.2711,1.4175e-06,-4,3.2612e-05,0.49454,0
11381,54.3,18.398,0,0.75243,0,11379,57.707,5.2711,1.4175e-06,-4,3.2612e-05,0.49454,0
11381,54.3,18.398,0,0.75243,0,11380,57.707,5.1111,2.42e-06,-4,2.3676e-05,0.50005,0
11381,54.3,18.398,0,0.75243,0,11380,57.707,5.1111,2.42e-06,-4,2.3676e-05,0.50005,0
11381,54.3,18.398,0,0.75243,0,11380,57.707,5.1111,2.42e-06,-4,2.3676e-05,0.50005,0
11382,54.3,18.427,0,0.73406,0,11380,57.707,5.1111,2.42e-06,-4,2.3676e-05,0.46966,0
11382,54.3,18.427,0,0.73406,0,11380,57.707,4.7111,3.7826e-06,-4,8.9379e-06,0.48615,0
11382,54.3,18.427,0,0.73406,0,11380,57.707,4.7111,3.7826e-06,-4,8.9379e-06,0.48615,0
11384,54.3,18.512,0,0.68148,0,11380,57.707,4.7111,3.7826e-06,-4,8.9379e-06,0.3777,0
11384,54.3,18.512,0,0.68148,0,11380,57.707,4.3111,4.1443e-06,-4,1.1928e-06,0.39389,0
11384,54.3,18.512,0,0.68148,0,11380,57.707,4.3111,4.1443e-06,-4,1.1928e-06,0.39389,0
11384,54.3,18.512,0,0.68148,0,11381,57.707,4.2311,4.1444e-06,-4,1.8473e-07,0.39701,0
11384,54.3,18.512,0,0.68148,0,11381,57.707,4.1511,4.1274e-06,-4,-6.8782e-07,0.40008,0
11384,54.3,18.512,0,0.68148,0,11381,57.707,4.0711,4.0958e-06,-4,-1.4402e-06,0.4031,0
11384,54.3,18.512,0,0.68148,0,11381,57.707,4.0711,4.0958e-06,-4,-1.4402e-06,0.4031,0
11384,54.3,18.512,0,0.68148,0,11381,57.707,4.0711,4.0958e-06,-4,-1.4402e-06,0.4031,0
11384,54.3,18.512,0,0.68148,0,11381,57.707,4.0711,4.0958e-06,-4,-1.4402e-06,0.4031,0
11384,54.3,18.512,0,0.68148,0,11381,57.707,4.0711,4.0958e-06,-4,-1.4402e-06,0.4031,0
11384,54.3,18.512,0,0.68148,0,11381,57.707,4.0711,4.0958e-06,-4,-1.4402e-06,0.4031,0
11384,54.3,18.512,0,0.68148,0,11381,57.707,4.0711,4.0958e-06,-4,-1.4402e-06,0.4031,0
11384,54.3,18.512,0,0.68148,0,11381,57.707,4.0711,4.0958e-06,-4,-1.4402e-06,0.4031,0
11384,54.3,18.512,0,0.68148,0,11381,57.707,4.0711,4.0958e-06,-4,-1.4402e-06,0.4031,0
11384,54.3,18.512,0,0.68148,0,11381,57.707,4.0711,4.0958e-06,-4,-1.4402e-06,0.4031,0
11387,54.3,18.604,0,0.6247,0,11381,57.707,4.0711,4.0958e-06,-4,-1.4402e-06,0.29102,0
11387,54.3,18.616,0,0.61697,0,11381,57.707,4.0711,4.0958e-06,-4,-1.4402e-06,0.27869,0
11387,54.3,18.616,0,0.61697,0,11381,57.707,4.0711,4.0958e-06,-4,-1.4402e-06,0.27869,0
11387,54.3,18.616,0,0.61697,0,11381,57.707,4.0711,4.0958e-06,-4,-1.4402e-06,0.27869,0
11387,54.3,18.616,0,0.61697,0,11381,57.707,4.0711,4.0958e-06,-4,-1.4402e-06,0.27869,0
11387,54.3,18.616,0,0.61697,0,11381,57.707,4.0711,4.0958e-06,-4,-1.4402e-06,0.27869,0
11387,54.3,18.616,0,0.61697,0,11381,57.707,4.0711,4.0958e-06,-4,-1.4402e-06,0.27869,0
11387,54.3,18.616,0,0.61697,0,11381,57.707,4.0711,4.0958e-06,-4,-1.4402e-06,0.27869,0
11387,54.3,18.616,0,0.61697,0,11381,57.707,4.0711,4.0958e-06,-4,-1.4402e-06,0.27869,0
11387,54.3,18.616,0,0.61697,0,11381,57.707,4.0711,4.0958e-06,-4,-1.4402e-06,0.27869,0
11387,54.3,18.616,0,0.61697,0,11381,57.707,4.0711,4.0958e-06,-4,-1.4402e-06,0.27869,0
11387,54.3,18.616,0,0.61697,0,11381,57.707,4.0711,4.0958e-06,-4,-1.4402e-06,0.27869,0
11387,54.3,18.616,0,0.61697,0,11381,57.707,3.8311,3.9324e-06,-4,-3.1057e-06,0.28344,0
11389,54.3,18.676,0,0.57969,0,11381,57.707,3.8311,3.9324e-06,-4,-3.1057e-06,0.23119,0
11389,54.3,18.676,0,0.57969,0,11381,57.707,3.8311,3.9324e-06,-4,-3.1057e-06,0.23119,0
11389,54.3,18.676,0,0.57969,0,11381,57.707,3.4311,3.5202e-06,-4,-4.5032e-06,0.23565,0
11391,54.3,18.721,0,0.55143,0,11381,57.707,3.3511,3.4263e-06,-4,-4.6431e-06,0.20378,0
11392,54.3,18.754,0,0.53112,0,11382,57.707,3.0311,3.036e-06,-4,-4.9083e-06,0.18552,0
11392,54.3,18.764,0,0.52451,0,11382,57.707,3.0311,3.036e-06,-4,-4.9083e-06,0.17959,0
11392,54.3,18.764,0,0.52451,0,11382,57.707,3.0311,3.036e-06,-4,-4.9083e-06,0.17959,0
