23185,54.222,16.309,2.5467e-05,1.8489,2.8871e-06,23549,54.503,0,0,0,0,0.004688,2
23185,54.222,16.309,2.5467e-05,1.8489,2.8871e-06,23549,54.503,0,0,0,0,0.004688,2
23186,54.222,16.383,2.5582e-05,1.8181,2.839e-06,23549,54.503,0,0,0,0,0.0046965,2
23186,54.222,16.383,2.5582e-05,1.8181,2.839e-06,23549,54.503,0,0,0,0,0.0046965,2
23186,54.222,16.383,2.5582e-05,1.8181,2.839e-06,23549,54.503,0,0,0,0,0.0046965,2
23186,54.222,16.383,2.5582e-05,1.8181,2.839e-06,23549,54.503,0,0,0,0,0.0046965,2
23186,54.222,16.383,2.5582e-05,1.8181,2.839e-06,23549,54.503,0,0,0,0,0.0046965,2
23186,54.222,16.383,2.5582e-05,1.8181,2.839e-06,23549,54.503,0,0,0,0,0.0046965,2
23186,54.222,16.383,2.5582e-05,1.8181,2.839e-06,23549,54.503,0,0,0,0,0.0046965,2
23186,54.222,16.383,2.5582e-05,1.8181,2.839e-06,23549,54.503,0,0,0,0,0.0046965,2
23186,54.222,16.383,2.5582e-05,1.8181,2.839e-06,23549,54.503,0,0,0,0,0.0046965,2
23186,54.222,16.383,2.5582e-05,1.8181,2.839e-06,23549,54.503,0,0,0,0,0.0046965,2
23188,54.222,16.561,2.586e-05,1.7416,2.7195e-06,23549,54.503,0,0,0,0,0.0047179,2
23188,54.222,16.561,2.586e-05,1.7416,2.7195e-06,23549,54.503,0,0,0,0,0.0047179,2
23189,54.222,16.697,2.6073e-05,1.681,2.6249e-06,23549,54.503,0,0,0,0,0.0047353,2
23189,54.222,16.697,2.6073e-05,1.681,2.6249e-06,23549,54.503,0,0,0,0,0.0047353,2
23189,54.222,16.697,2.6073e-05,1.681,2.6249e-06,23549,54.503,0,0,0,0,0.0047353,2
23189,54.222,16.697,2.6073e-05,1.681,2.6249e-06,23549,54.503,0,0,0,0,0.0047353,2
23189,54.222,16.697,2.6073e-05,1.681,2.6249e-06,23549,54.503,0,0,0,0,0.0047353,2
23189,54.222,16.697,2.6073e-05,1.681,2.6249e-06,23549,54.503,0,0,0,0,0.0047353,2
23189,54.222,16.697,2.6073e-05,1.681,2.6249e-06,23549,54.503,0,0,0,0,0.0047353,2
23189,54.222,16.697,2.6073e-05,1.681,2.6249e-06,23549,54.503,0,0,0,0,0.0047353,2
23189,54.222,16.697,2.6073e-05,1.681,2.6249e-06,23549,54.503,0,0,0,0,0.0047353,2
23189,54.222,16.697,2.6073e-05,1.681,2.6249e-06,23549,54.503,0,0,0,0,0.0047353,2
23189,54.222,16.697,2.6073e-05,1.681,2.6249e-06,23549,54.503,0,0,0,0,0.0047353,2
23189,54.222,16.697,2.6073e-05,1.681,2.6249e-06,23549,54.503,0,0,0,0,0.0047353,2
23189,54.222,16.697,2.6073e-05,1.681,2.6249e-06,23549,54.503,0,0,0,0,0.0047353,2
23189,54.222,16.697,2.6073e-05,1.681,2.6249e-06,23549,54.503,0,0,0,0,0.0047353,2
23189,54.222,16.697,2.6073e-05,1.681,2.6249e-06,23549,54.503,0,0,0,0,0.0047353,2
23189,54.222,16.697,2.6073e-05,1.681,2.6249e-06,23549,54.503,0,0,0,0,0.0047353,2
23189,54.222,16.697,2.6073e-05,1.681,2.6249e-06,23549,54.503,0,0,0,0,0.0047353,2
23190,54.222,16.797,2.6229e-05,1.636,2.5547e-06,23549,54.503,0,0,0,0,0.0047486,2
23190,54.222,16.797,2.6229e-05,1.636,2.5547e-06,23549,54.503,0,0,0,0,0.0047486,2
23190,54.222,16.797,2.6229e-05,1.636,2.5547e-06,23549,54.503,0,0,0,0,0.0047486,2
23191,54.222,16.894,2.638e-05,1.5914,2.4851e-06,23549,54.503,0,0,0,0,0.004762,2
23191,54.222,16.894,2.638e-05,1.5914,2.4851e-06,23549,54.503,0,0,0,0,0.004762,2
23192,54.222,16.957,2.6479e-05,1.562,2.4391e-06,23549,54.503,0,0,0,0,0.004771,2
23193,54.222,17.049,2.6623e-05,1.5182,2.3708e-06,23549,54.503,0,0,0,0,0.0047847,2
23193,54.222,17.049,2.6623e-05,1.5182,2.3708e-06,23549,54.503,0,0,0,0,0.0047847,2
23193,54.222,17.049,2.6623e-05,1.5182,2.3708e-06,23549,54.503,0,0,0,0,0.0047847,2
23193,54.222,17.049,2.6623e-05,1.5182,2.3708e-06,23549,54.503,0,0,0,0,0.0047847,2
23193,54.222,17.049,2.6623e-05,1.5182,2.3708e-06,23549,54.503,0,0,0,0,0.0047847,2
23193,54.222,17.049,2.6623e-05,1.5182,2.3708e-06,23549,54.503,0,0,0,0,0.0047847,2
23193,54.222,17.049,2.6623e-05,1.5182,2.3708e-06,23549,54.503,0,0,0,0,0.0047847,2
23193,54.222,17.049,2.6623e-05,1.5182,2.3708e-06,23549,54.503,0,0,0,0,0.0047847,2
23193,54.222,17.049,2.6623e-05,1.5182,2.3708e-06,23549,54.503,0,0,0,0,0.0047847,2
23194,54.222,17.168,2.6809e-05,1.4607,2.281e-06,23549,54.503,0,0,0,0,0.0048031,2
23194,54.222,17.168,2.6809e-05,1.4607,2.281e-06,23549,54.503,0,0,0,0,0.0048031,2
23194,54.222,17.168,2.6809e-05,1.4607,2.281e-06,23549,54.503,0,0,0,0,0.0048031,2
23194,54.222,17.168,2.6809e-05,1.4607,2.281e-06,23549,54.503,0,0,0,0,0.0048031,2
23194,54.222,17.168,2.6809e-05,1.4607,2.281e-06,23549,54.503,0,0,0,0,0.0048031,2
23194,54.222,17.168,2.6809e-05,1.4607,2.281e-06,23549,54.503,0,0,0,0,0.0048031,2
23194,54.222,17.168,2.6809e-05,1.4607,2.281e-06,23549,54.503,0,0,0,0,0.0048031,2
23196,54.222,17.283,2.6988e-05,1.4043,2.1928e-06,23549,54.503,0,0,0,0,0.0048218,2
23196,54.222,17.283,2.6988e-05,1.4043,2.1928e-06,23549,54.503,0,0,0,0,0.0048218,2
23196,54.222,17.283,2.6988e-05,1.4043,2.1928e-06,23549,54.503,0,0,0,0,0.0048218,2
23196,54.222,17.283,2.6988e-05,1.4043,2.1928e-06,23549,54.503,0,0,0,0,0.0048218,2
23196,54.222,17.311,2.7031e-05,1.3903,2.171e-06,23549,54.503,0,0,0,0,0.0048266,2
23196,54.222,17.311,2.7031e-05,1.3903,2.171e-06,23549,54.503,0,0,0,0,0.0048266,2
23196,54.222,17.311,2.7031e-05,1.3903,2.171e-06,23549,54.503,0,0,0,0,0.0048266,2
23196,54.222,17.339,2.7075e-05,1.3765,2.1494e-06,23549,54.503,0,0,0,0,0.0048313,2
23196,54.222,17.339,2.7075e-05,1.3765,2.1494e-06,23549,54.503,0,0,0,0,0.0048313,2
23197,54.222,17.366,2.7117e-05,1.3627,2.1278e-06,23549,54.503,0,0,0,0,0.0048361,2
23197,54.222,17.366,2.7117e-05,1.3627,2.1278e-06,23549,54.503,0,0,0,0,0.0048361,2
23197,54.222,17.42,2.7202e-05,1.3353,2.0851e-06,23549,54.503,0,0,0,0,0.0048456,2
23197,54.222,17.42,2.7202e-05,1.3353,2.0851e-06,23549,54.503,0,0,0,0,0.0048456,2
23197,54.222,17.42,2.7202e-05,1.3353,2.0851e-06,23549,54.503,0,0,0,0,0.0048456,2
23197,54.222,17.42,2.7202e-05,1.3353,2.0851e-06,23549,54.503,0,0,0,0,0.0048456,2
23197,54.222,17.42,2.7202e-05,1.3353,2.0851e-06,23549,54.503,0,0,0,0,0.0048456,2
23197,54.222,17.42,2.7202e-05,1.3353,2.0851e-06,23549,54.503,0,0,0,0,0.0048456,2
23197,54.222,17.42,2.7202e-05,1.3353,2.0851e-06,23549,54.503,0,0,0,0,0.0048456,2
23197,54.222,17.42,2.7202e-05,1.3353,2.0851e-06,23549,54.503,0,0,0,0,0.0048456,2
23197,54.222,17.42,2.7202e-05,1.3353,2.0851e-06,23549,54.503,0,0,0,0,0.0048456,2
23197,54.222,17.42,2.7202e-05,1.3353,2.0851e-06,23549,54.503,0,0,0,0,0.0048456,2
23197,54.222,17.42,2.7202e-05,1.3353,2.0851e-06,23549,54.503,0,0,0,0,0.0048456,2
23197,54.222,17.42,2.7202e-05,1.3353,2.0851e-06,23549,54.503,0,0,0,0,0.0048456,2
23197,54.222,17.42,2.7202e-05,1.3353,2.0851e-06,23549,54.503,0,0,0,0,0.0048456,2
23197,54.222,17.42,2.7202e-05,1.3353,2.0851e-06,23549,54.503,0,0,0,0,0.0048456,2
23197,54.222,17.42,2.7202e-05,1.3353,2.0851e-06,23549,54.503,0,0,0,0,0.0048456,2
23197,54.222,17.42,2.7202e-05,1.3353,2.0851e-06,23549,54.503,0,0,0,0,0.0048456,2
23197,54.222,17.42,2.7202e-05,1.3353,2.0851e-06,23549,54.503,0,0,0,0,0.0048456,2
23197,54.222,17.42,2.7202e-05,1.3353,2.0851e-06,23549,54.503,0,0,0,0,0.0048456,2
23197,54.222,17.42,2.7202e-05,1.3353,2.0851e-06,23549,54.503,0,0,0,0,0.0048456,2
23199,54.222,17.55,2.7405e-05,1.2681,1.9802e-06,23549,54.503,0,0,0,0,0.0048698,2
23199,54.222,17.55,2.7405e-05,1.2681,1.9802e-06,23549,54.503,0,0,0,0,0.0048698,2
23199,54.222,17.55,2.7405e-05,1.2681,1.9802e-06,23549,54.503,0,0,0,0,0.0048698,2
23199,54.222,17.55,2.7405e-05,1.2681,1.9802e-06,23549,54.503,0,0,0,0,0.0048698,2
23200,54.222,17.625,2.7522e-05,1.2236,1.9107e-06,23549,54.503,0,0,0,0,0.0048845,2
23200,54.222,17.625,2.7522e-05,1.2236,1.9107e-06,23549,54.503,0,0,0,0,0.0048845,2
23200,54.222,17.625,2.7522e-05,1.2236,1.9107e-06,23549,54.503,0,0,0,0,0.0048845,2
23200,54.222,17.625,2.7522e-05,1.2236,1.9107e-06,23549,54.503,0,0,0,0,0.0048845,2
23202,54.222,17.744,2.7707e-05,1.1519,1.7988e-06,23549,54.503,0,0,0,0,0.0049094,2
23202,54.222,17.744,2.7707e-05,1.1519,1.7988e-06,23549,54.503,0,0,0,0,0.0049094,2
23202,54.222,17.744,2.7707e-05,1.1519,1.7988e-06,23549,54.503,0,0,0,0,0.0049094,2
23202,54.222,17.744,2.7707e-05,1.1519,1.7988e-06,23549,54.503,0,0,0,0,0.0049094,2
23202,54.222,17.744,2.7707e-05,1.1519,1.7988e-06,23549,54.503,0,0,0,0,0.0049094,2
23203,54.222,17.812,2.7813e-05,1.1109,1.7346e-06,23549,54.503,0,0,0,0,0.0049245,2
23203,54.222,17.812,2.7813e-05,1.1109,1.7346e-06,23549,54.503,0,0,0,0,0.0049245,2
23203,54.222,17.812,2.7813e-05,1.1109,1.7346e-06,23549,54.503,0,0,0,0,0.0049245,2
23203,54.222,17.812,2.7813e-05,1.1109,1.7346e-06,23549,54.503,0,0,0,0,0.0049245,2
23203,54.222,17.812,2.7813e-05,1.1109,1.7346e-06,23549,54.503,0,0,0,0,0.0049245,2
23203,54.222,17.812,2.7813e-05,1.1109,1.7346e-06,23549,54.503,0,0,0,0,0.0049245,2
23204,54.222,17.877,2.7915e-05,1.0712,1.6727e-06,23549,54.503,0,0,0,0,0.0049398,2
23204,54.222,17.877,2.7915e-05,1.0712,1.6727e-06,23549,54.503,0,0,0,0,0.0049398,2
23204,54.222,17.877,2.7915e-05,1.0712,1.6727e-06,23549,54.503,0,0,0,0,0.0049398,2
23204,54.222,17.877,2.7915e-05,1.0712,1.6727e-06,23549,54.503,0,0,0,0,0.0049398,2
23205,54.222,17.919,2.7981e-05,1.0455,1.6325e-06,23549,54.503,0,0,0,0,0.0049501,2
23205,54.222,17.919,2.7981e-05,1.0455,1.6325e-06,23549,54.503,0,0,0,0,0.0049501,2
23205,54.222,17.919,2.7981e-05,1.0455,1.6325e-06,23549,54.503,0,0,0,0,0.0049501,2
23205,54.222,17.94,2.8014e-05,1.0328,1.6128e-06,23549,54.503,0,0,0,0,0.0049552,2
23205,54.222,17.94,2.8014e-05,1.0328,1.6128e-06,23549,54.503,0,0,0,0,0.0049552,2
23205,54.222,17.961,2.8046e-05,1.0203,1.5933e-06,23549,54.503,0,0,0,0,0.0049604,2
23205,54.222,17.961,2.8046e-05,1.0203,1.5933e-06,23549,54.503,0,0,0,0,0.0049604,2
23205,54.222,17.961,2.8046e-05,1.0203,1.5933e-06,23549,54.503,0,0,0,0,0.0049604,2
23205,54.222,17.961,2.8046e-05,1.0203,1.5933e-06,23549,54.503,0,0,0,0,0.0049604,2
23205,54.222,17.961,2.8046e-05,1.0203,1.5933e-06,23549,54.503,0,0,0,0,0.0049604,2
23207,54.222,18.021,2.814e-05,0.98372,1.5361e-06,23549,54.503,0,0,0,0,0.004976,2
23207,54.222,18.021,2.814e-05,0.98372,1.5361e-06,23549,54.503,0,0,0,0,0.004976,2
23207,54.222,18.04,2.817e-05,0.97179,1.5175e-06,23549,54.503,0,0,0,0,0.0049813,2
23207,54.222,18.04,2.817e-05,0.97179,1.5175e-06,23549,54.503,0,0,0,0,0.0049813,2
23207,54.222,18.04,2.817e-05,0.97179,1.5175e-06,23549,54.503,0,0,0,0,0.0049813,2
23207,54.222,18.04,2.817e-05,0.97179,1.5175e-06,23549,54.503,0,0,0,0,0.0049813,2
23207,54.222,18.06,2.82e-05,0.96,1.4991e-06,23549,54.503,0,0,0,0,0.0049865,2
23207,54.222,18.06,2.82e-05,0.96,1.4991e-06,23549,54.503,0,0,0,0,0.0049865,2
23207,54.222,18.06,2.82e-05,0.96,1.4991e-06,23549,54.503,0,0,0,0,0.0049865,2
23207,54.222,18.06,2.82e-05,0.96,1.4991e-06,23549,54.503,0,0,0,0,0.0049865,2
23207,54.222,18.06,2.82e-05,0.96,1.4991e-06,23549,54.503,0,0,0,0,0.0049865,2
23207,54.222,18.06,2.82e-05,0.96,1.4991e-06,23549,54.503,0,0,0,0,0.0049865,2
23207,54.222,18.06,2.82e-05,0.96,1.4991e-06,23549,54.503,0,0,0,0,0.0049865,2
23207,54.222,18.06,2.82e-05,0.96,1.4991e-06,23549,54.503,0,0,0,0,0.0049865,2
23209,54.222,18.135,2.8318e-05,0.91418,1.4275e-06,23549,54.503,0,0,0,0,0.0050077,2
23209,54.222,18.135,2.8318e-05,0.91418,1.4275e-06,23549,54.503,0,0,0,0,0.0050077,2
23209,54.222,18.135,2.8318e-05,0.91418,1.4275e-06,23549,54.503,0,0,0,0,0.0050077,2
23209,54.222,18.135,2.8318e-05,0.91418,1.4275e-06,23549,54.503,0,0,0,0,0.0050077,2
23209,54.222,18.135,2.8318e-05,0.91418,1.4275e-06,23549,54.503,0,0,0,0,0.0050077,2
23210,54.222,18.206,2.8429e-05,0.87044,1.3592e-06,23549,54.503,0,0,0,0,0.0050292,2
23210,54.222,18.206,2.8429e-05,0.87044,1.3592e-06,23549,54.503,0,0,0,0,0.0050292,2
23210,54.222,18.206,2.8429e-05,0.87044,1.3592e-06,23549,54.503,0,0,0,0,0.0050292,2
23210,54.222,18.206,2.8429e-05,0.87044,1.3592e-06,23549,54.503,0,0,0,0,0.0050292,2
23210,54.222,18.206,2.8429e-05,0.87044,1.3592e-06,23549,54.503,0,0,0,0,0.0050292,2
23210,54.222,18.223,2.8456e-05,0.85982,1.3426e-06,23549,54.503,0,0,0,0,0.0050346,2
23210,54.222,18.223,2.8456e-05,0.85982,1.3426e-06,23549,54.503,0,0,0,0,0.0050346,2
23211,54.222,18.24,2.8483e-05,0.84932,1.3262e-06,23549,54.503,0,0,0,0,0.0050401,2
23211,54.222,18.24,2.8483e-05,0.84932,1.3262e-06,23549,54.503,0,0,0,0,0.0050401,2
23211,54.222,18.24,2.8483e-05,0.84932,1.3262e-06,23549,54.503,0,0,0,0,0.0050401,2
23211,54.222,18.24,2.8483e-05,0.84932,1.3262e-06,23549,54.503,0,0,0,0,0.0050401,2
23211,54.222,18.24,2.8483e-05,0.84932,1.3262e-06,23549,54.503,0,0,0,0,0.0050401,2
23211,54.222,18.24,2.8483e-05,0.84932,1.3262e-06,23549,54.503,0,0,0,0,0.0050401,2
23211,54.222,18.24,2.8483e-05,0.84932,1.3262e-06,23549,54.503,0,0,0,0,0.0050401,2
23211,54.222,18.24,2.8483e-05,0.84932,1.3262e-06,23549,54.503,0,0,0,0,0.0050401,2
23211,54.222,18.24,2.8483e-05,0.84932,1.3262e-06,23549,54.503,0,0,0,0,0.0050401,2
23211,54.222,18.24,2.8483e-05,0.84932,1.3262e-06,23549,54.503,0,0,0,0,0.0050401,2
23213,54.222,18.339,2.8636e-05,0.78886,1.2318e-06,23549,54.503,0,0,0,0,0.005073,2
23213,54.222,18.339,2.8636e-05,0.78886,1.2318e-06,23549,54.503,0,0,0,0,0.005073,2
23213,54.222,18.339,2.8636e-05,0.78886,1.2318e-06,23549,54.503,0,0,0,0,0.005073,2
23213,54.222,18.339,2.8636e-05,0.78886,1.2318e-06,23549,54.503,0,0,0,0,0.005073,2
23213,54.222,18.339,2.8636e-05,0.78886,1.2318e-06,23549,54.503,0,0,0,0,0.005073,2
23214,54.222,18.37,2.8685e-05,0.76964,1.2018e-06,23549,54.503,0,0,0,0,0.0050841,2
23214,54.222,18.37,2.8685e-05,0.76964,1.2018e-06,23549,54.503,0,0,0,0,0.0050841,2
23214,54.222,18.37,2.8685e-05,0.76964,1.2018e-06,23549,54.503,0,0,0,0,0.0050841,2
23214,54.222,18.37,2.8685e-05,0.76964,1.2018e-06,23549,54.503,0,0,0,0,0.0050841,2
23214,54.222,18.37,2.8685e-05,0.76964,1.2018e-06,23549,54.503,0,0,0,0,0.0050841,2
23214,54.222,18.37,2.8685e-05,0.76964,1.2018e-06,23549,54.503,0,0,0,0,0.0050841,2
23214,54.222,18.37,2.8685e-05,0.76964,1.2018e-06,23549,54.503,0,0,0,0,0.0050841,2
23215,54.222,18.4,2.8732e-05,0.75086,1.1725e-06,23549,54.503,0,0,0,0,0.0050952,2
23215,54.222,18.4,2.8732e-05,0.75086,1.1725e-06,23549,54.503,0,0,0,0,0.0050952,2
23215,54.222,18.4,2.8732e-05,0.75086,1.1725e-06,23549,54.503,0,0,0,0,0.0050952,2
23215,54.222,18.43,2.8779e-05,0.73252,1.1439e-06,23549,54.503,0,0,0,0,0.0051065,2
23216,54.222,18.444,2.8801e-05,0.72352,1.1298e-06,23549,54.503,0,0,0,0,0.0051121,2
23216,54.222,18.444,2.8801e-05,0.72352,1.1298e-06,23549,54.503,0,0,0,0,0.0051121,2
23216,54.222,18.444,2.8801e-05,0.72352,1.1298e-06,23549,54.503,0,0,0,0,0.0051121,2
23216,54.222,18.473,2.8846e-05,0.70582,1.1022e-06,23549,54.503,0,0,0,0,0.0051235,2
23217,54.222,18.501,2.8889e-05,0.68854,1.0752e-06,23549,54.503,0,0,0,0,0.0051349,2
23217,54.222,18.501,2.8889e-05,0.68854,1.0752e-06,23549,54.503,0,0,0,0,0.0051349,2
23217,54.222,18.501,2.8889e-05,0.68854,1.0752e-06,23549,54.503,0,0,0,0,0.0051349,2
23217,54.222,18.501,2.8889e-05,0.68854,1.0752e-06,23549,54.503,0,0,0,0,0.0051349,2
23217,54.222,18.501,2.8889e-05,0.68854,1.0752e-06,23549,54.503,0,0,0,0,0.0051349,2
23217,54.222,18.501,2.8889e-05,0.68854,1.0752e-06,23549,54.503,0,0,0,0,0.0051349,2
23217,54.222,18.501,2.8889e-05,0.68854,1.0752e-06,23549,54.503,0,0,0,0,0.0051349,2
23217,54.222,18.501,2.8889e-05,0.68854,1.0752e-06,23549,54.503,0,0,0,0,0.0051349,2
23217,54.222,18.515,2.8911e-05,0.68005,1.0619e-06,23549,54.503,0,0,0,0,0.0051406,2
23217,54.222,18.515,2.8911e-05,0.68005,1.0619e-06,23549,54.503,0,0,0,0,0.0051406,2
23217,54.222,18.515,2.8911e-05,0.68005,1.0619e-06,23549,54.503,0,0,0,0,0.0051406,2
23217,54.222,18.515,2.8911e-05,0.68005,1.0619e-06,23549,54.503,0,0,0,0,0.0051406,2
23217,54.222,18.515,2.8911e-05,0.68005,1.0619e-06,23549,54.503,0,0,0,0,0.0051406,2
23217,54.222,18.515,2.8911e-05,0.68005,1.0619e-06,23549,54.503,0,0,0,0,0.0051406,2
23217,54.222,18.515,2.8911e-05,0.68005,1.0619e-06,23549,54.503,0,0,0,0,0.0051406,2
23217,54.222,18.515,2.8911e-05,0.68005,1.0619e-06,23549,54.503,0,0,0,0,0.0051406,2
23217,54.222,18.515,2.8911e-05,0.68005,1.0619e-06,23549,54.503,0,0,0,0,0.0051406,2
23218,54.222,18.541,2.8953e-05,0.66338,1.0359e-06,23549,54.503,0,0,0,0,0.0051521,2
23218,54.222,18.541,2.8953e-05,0.66338,1.0359e-06,23549,54.503,0,0,0,0,0.0051521,2
23220,54.222,18.593,2.9034e-05,0.6312,9.8563e-07,23549,54.503,0,0,0,0,0.0051754,2
23220,54.222,18.593,2.9034e-05,0.6312,9.8563e-07,23549,54.503,0,0,0,0,0.0051754,2
23221,54.222,18.63,2.9092e-05,0.60806,9.4949e-07,23549,54.503,0,0,0,0,0.005193,2
23221,54.222,18.63,2.9092e-05,0.60806,9.4949e-07,23549,54.503,0,0,0,0,0.005193,2
23221,54.222,18.63,2.9092e-05,0.60806,9.4949e-07,23549,54.503,0,0,0,0,0.005193,2
23221,54.222,18.63,2.9092e-05,0.60806,9.4949e-07,23549,54.503,0,0,0,0,0.005193,2
23221,54.222,18.63,2.9092e-05,0.60806,9.4949e-07,23549,54.503,0,0,0,0,0.005193,2
23221,54.222,18.63,2.9092e-05,0.60806,9.4949e-07,23549,54.503,0,0,0,0,0.005193,2
23221,54.222,18.63,2.9092e-05,0.60806,9.4949e-07,23549,54.503,0,0,0,0,0.005193,2
23221,54.222,18.63,2.9092e-05,0.60806,9.4949e-07,23549,54.503,0,0,0,0,0.005193,2
23221,54.222,18.63,2.9092e-05,0.60806,9.4949e-07,23549,54.503,0,0,0,0,0.005193,2
23221,54.222,18.63,2.9092e-05,0.60806,9.4949e-07,23549,54.503,0,0,0,0,0.005193,2
23221,54.222,18.63,2.9092e-05,0.60806,9.4949e-07,23549,54.503,0,0,0,0,0.005193,2
23221,54.222,18.63,2.9092e-05,0.60806,9.4949e-07,23549,54.503,0,0,0,0,0.005193,2
23221,54.222,18.63,2.9092e-05,0.60806,9.4949e-07,23549,54.503,0,0,0,0,0.005193,2
23221,54.222,18.63,2.9092e-05,0.60806,9.4949e-07,23549,54.503,0,0,0,0,0.005193,2
23221,54.222,18.63,2.9092e-05,0.60806,9.4949e-07,23549,54.503,0,0,0,0,0.005193,2
23221,54.222,18.63,2.9092e-05,0.60806,9.4949e-07,23549,54.503,0,0,0,0,0.005193,2
23221,54.222,18.63,2.9092e-05,0.60806,9.4949e-07,23549,54.503,0,0,0,0,0.005193,2
23222,54.222,18.678,2.9166e-05,0.57847,9.0329e-07,23549,54.503,0,0,0,0,0.0052167,2
23222,54.222,18.678,2.9166e-05,0.57847,9.0329e-07,23549,54.503,0,0,0,0,0.0052167,2
23222,54.222,18.678,2.9166e-05,0.57847,9.0329e-07,23549,54.503,0,0,0,0,0.0052167,2
23222,54.222,18.678,2.9166e-05,0.57847,9.0329e-07,23549,54.503,0,0,0,0,0.0052167,2
23222,54.222,18.678,2.9166e-05,0.57847,9.0329e-07,23549,54.503,0,0,0,0,0.0052167,2
23222,54.222,18.678,2.9166e-05,0.57847,9.0329e-07,23549,54.503,0,0,0,0,0.0052167,2
23225,54.222,18.755,2.9287e-05,0.53,8.2761e-07,23549,54.503,0,0,0,0,0.0052588,2
23225,54.222,18.755,2.9287e-05,0.53,8.2761e-07,23549,54.503,0,0,0,0,0.0052588,2
23225,54.222,18.755,2.9287e-05,0.53,8.2761e-07,23549,54.503,0,0,0,0,0.0052588,2
23225,54.222,18.755,2.9287e-05,0.53,8.2761e-07,23549,54.503,0,0,0,0,0.0052588,2
23225,54.222,18.755,2.9287e-05,0.53,8.2761e-07,23549,54.503,0,0,0,0,0.0052588,2
23225,54.222,18.755,2.9287e-05,0.53,8.2761e-07,23549,54.503,0,0,0,0,0.0052588,2
23225,54.222,18.755,2.9287e-05,0.53,8.2761e-07,23549,54.503,0,0,0,0,0.0052588,2
23226,54.222,18.797,2.9351e-05,0.5041,7.8716e-07,23549,54.503,0,0,0,0,0.0052833,2
23226,54.222,18.797,2.9351e-05,0.5041,7.8716e-07,23549,54.503,0,0,0,0,0.0052833,2
23227,54.222,18.807,2.9367e-05,0.49781,7.7735e-07,23549,54.503,0,0,0,0,0.0052895,2
23227,54.222,18.807,2.9367e-05,0.49781,7.7735e-07,23549,54.503,0,0,0,0,0.0052895,2
23227,54.222,18.807,2.9367e-05,0.49781,7.7735e-07,23549,54.503,0,0,0,0,0.0052895,2
23227,54.222,18.807,2.9367e-05,0.49781,7.7735e-07,23549,54.503,0,0,0,0,0.0052895,2
23227,54.222,18.807,2.9367e-05,0.49781,7.7735e-07,23549,54.503,0,0,0,0,0.0052895,2
23227,54.222,18.807,2.9367e-05,0.49781,7.7735e-07,23549,54.503,0,0,0,0,0.0052895,2
23228,54.222,18.836,2.9413e-05,0.47942,7.4862e-07,23549,54.503,0,0,0,0,0.0053081,2
23228,54.222,18.836,2.9413e-05,0.47942,7.4862e-07,23549,54.503,0,0,0,0,0.0053081,2
23228,54.222,18.836,2.9413e-05,0.47942,7.4862e-07,23549,54.503,0,0,0,0,0.0053081,2
23228,54.222,18.836,2.9413e-05,0.47942,7.4862e-07,23549,54.503,0,0,0,0,0.0053081,2
23229,54.222,18.855,2.9442e-05,0.46752,7.3005e-07,23549,54.503,0,0,0,0,0.0053206,2
23229,54.222,18.855,2.9442e-05,0.46752,7.3005e-07,23549,54.503,0,0,0,0,0.0053206,2
23229,54.222,18.855,2.9442e-05,0.46752,7.3005e-07,23549,54.503,0,0,0,0,0.0053206,2
23229,54.222,18.855,2.9442e-05,0.46752,7.3005e-07,23549,54.503,0,0,0,0,0.0053206,2
23229,54.222,18.855,2.9442e-05,0.46752,7.3005e-07,23549,54.503,0,0,0,0,0.0053206,2
23229,54.222,18.855,2.9442e-05,0.46752,7.3005e-07,23549,54.503,0,0,0,0,0.0053206,2
23229,54.222,18.864,2.9457e-05,0.46168,7.2093e-07,23549,54.503,0,0,0,0,0.0053268,2
23229,54.222,18.864,2.9457e-05,0.46168,7.2093e-07,23549,54.503,0,0,0,0,0.0053268,2
23229,54.222,18.873,2.9471e-05,0.45592,7.1192e-07,23549,54.503,0,0,0,0,0.0053331,2
23229,54.222,18.873,2.9471e-05,0.45592,7.1192e-07,23549,54.503,0,0,0,0,0.0053331,2
23229,54.222,18.873,2.9471e-05,0.45592,7.1192e-07,23549,54.503,0,0,0,0,0.0053331,2
23229,54.222,18.873,2.9471e-05,0.45592,7.1192e-07,23549,54.503,0,0,0,0,0.0053331,2
23229,54.222,18.873,2.9471e-05,0.45592,7.1192e-07,23549,54.503,0,0,0,0,0.0053331,2
23231,54.222,18.909,2.9527e-05,0.43353,6.7697e-07,23549,54.503,0,0,0,0,0.0053585,2
23231,54.222,18.909,2.9527e-05,0.43353,6.7697e-07,23549,54.503,0,0,0,0,0.0053585,2
23231,54.222,18.909,2.9527e-05,0.43353,6.7697e-07,23549,54.503,0,0,0,0,0.0053585,2
23231,54.222,18.909,2.9527e-05,0.43353,6.7697e-07,23549,54.503,0,0,0,0,0.0053585,2
23231,54.222,18.909,2.9527e-05,0.43353,6.7697e-07,23549,54.503,0,0,0,0,0.0053585,2
23231,54.222,18.909,2.9527e-05,0.43353,6.7697e-07,23549,54.503,0,0,0,0,0.0053585,2
23231,54.222,18.909,2.9527e-05,0.43353,6.7697e-07,23549,54.503,0,0,0,0,0.0053585,2
23231,54.222,18.909,2.9527e-05,0.43353,6.7697e-07,23549,54.503,0,0,0,0,0.0053585,2
23231,54.222,18.909,2.9527e-05,0.43353,6.7697e-07,23549,54.503,0,0,0,0,0.0053585,2
23232,54.222,18.935,2.9567e-05,0.41745,6.5186e-07,23549,54.503,0,0,0,0,0.0053776,2
23232,54.222,18.935,2.9567e-05,0.41745,6.5186e-07,23549,54.503,0,0,0,0,0.0053776,2
23232,54.222,18.935,2.9567e-05,0.41745,6.5186e-07,23549,54.503,0,0,0,0,0.0053776,2
23232,54.222,18.935,2.9567e-05,0.41745,6.5186e-07,23549,54.503,0,0,0,0,0.0053776,2
23234,54.222,18.967,2.9618e-05,0.39691,6.1978e-07,23549,54.503,0,0,0,0,0.0054035,2
23234,54.222,18.967,2.9618e-05,0.39691,6.1978e-07,23549,54.503,0,0,0,0,0.0054035,2
23234,54.222,18.967,2.9618e-05,0.39691,6.1978e-07,23549,54.503,0,0,0,0,0.0054035,2
23234,54.222,18.967,2.9618e-05,0.39691,6.1978e-07,23549,54.503,0,0,0,0,0.0054035,2
23234,54.222,18.967,2.9618e-05,0.39691,6.1978e-07,23549,54.503,0,0,0,0,0.0054035,2
23234,54.222,18.967,2.9618e-05,0.39691,6.1978e-07,23549,54.503,0,0,0,0,0.0054035,2
23234,54.222,18.967,2.9618e-05,0.39691,6.1978e-07,23549,54.503,0,0,0,0,0.0054035,2
23234,54.222,18.967,2.9618e-05,0.39691,6.1978e-07,23549,54.503,0,0,0,0,0.0054035,2
23234,54.222,18.967,2.9618e-05,0.39691,6.1978e-07,23549,54.503,0,0,0,0,0.0054035,2
23234,54.222,18.967,2.9618e-05,0.39691,6.1978e-07,23549,54.503,0,0,0,0,0.0054035,2
23234,54.222,18.967,2.9618e-05,0.39691,6.1978e-07,23549,54.503,0,0,0,0,0.0054035,2
23234,54.222,18.967,2.9618e-05,0.39691,6.1978e-07,23549,54.503,0,0,0,0,0.0054035,2
23234,54.222,18.967,2.9618e-05,0.39691,6.1978e-07,23549,54.503,0,0,0,0,0.0054035,2
23234,54.222,18.967,2.9618e-05,0.39691,6.1978e-07,23549,54.503,0,0,0,0,0.0054035,2
23234,54.222,18.967,2.9618e-05,0.39691,6.1978e-07,23549,54.503,0,0,0,0,0.0054035,2
23234,54.222,18.967,2.9618e-05,0.39691,6.1978e-07,23549,54.503,0,0,0,0,0.0054035,2
23234,54.222,18.967,2.9618e-05,0.39691,6.1978e-07,23549,54.503,0,0,0,0,0.0054035,2
23234,54.222,18.967,2.9618e-05,0.39691,6.1978e-07,23549,54.503,0,0,0,0,0.0054035,2
23234,54.222,18.967,2.9618e-05,0.39691,6.1978e-07,23549,54.503,0,0,0,0,0.0054035,2
23234,54.222,18.967,2.9618e-05,0.39691,6.1978e-07,23549,54.503,0,0,0,0,0.0054035,2
23234,54.222,18.967,2.9618e-05,0.39691,6.1978e-07,23549,54.503,0,0,0,0,0.0054035,2
23237,54.222,19.028,2.9712e-05,0.35874,5.6018e-07,23549,54.503,0,0,0,0,0.005456,2
23237,54.222,19.035,2.9723e-05,0.35423,5.5314e-07,23549,54.503,0,0,0,0,0.0054627,2
23238,54.222,19.056,2.9756e-05,0.34103,5.3252e-07,23549,54.503,0,0,0,0,0.0054828,2
23238,54.222,19.056,2.9756e-05,0.34103,5.3252e-07,23549,54.503,0,0,0,0,0.0054828,2
23238,54.222,19.056,2.9756e-05,0.34103,5.3252e-07,23549,54.503,0,0,0,0,0.0054828,2
23238,54.222,19.056,2.9756e-05,0.34103,5.3252e-07,23549,54.503,0,0,0,0,0.0054828,2
23238,54.222,19.056,2.9756e-05,0.34103,5.3252e-07,23549,54.503,0,0,0,0,0.0054828,2
23239,54.222,19.059,2.9761e-05,-0.00086751,-1.3557e-09,23549,54.503,0,0,0,0,0.0054962,2
23239,54.222,19.059,2.9761e-05,-0.00086751,-1.3557e-09,23549,54.503,0,0,0,0,0.0054962,2
23239,54.222,19.059,2.9761e-05,-0.00086751,-1.3557e-09,23549,54.503,0,0,0,0,0.0054962,2
23239,54.222,19.059,2.9761e-05,-0.00086751,-1.3557e-09,23549,54.503,0,0,0,0,0.0054962,2
23239,54.222,19.059,2.9761e-05,-0.00086751,-1.3557e-09,23549,54.503,0,0,0,0,0.0054962,2
23239,54.222,19.059,2.9761e-05,-0.00086751,-1.3557e-09,23549,54.503,0,0,0,0,0.0054962,2
23239,54.222,19.059,2.9761e-05,-0.00086751,-1.3557e-09,23549,54.503,0,0,0,0,0.0054962,2
23239,54.222,19.059,2.9761e-05,-0.00086751,-1.3557e-09,23549,54.503,0,0,0,0,0.0054962,2
23239,54.222,19.059,2.9761e-05,-0.00086751,-1.3557e-09,23549,54.503,0,0,0,0,0.0054962,2
23239,54.222,19.059,2.9761e-05,-0.00086751,-1.3557e-09,23549,54.503,0,0,0,0,0.0054962,2
23239,54.222,19.059,2.9761e-05,-0.00086751,-1.3557e-09,23549,54.503,0,0,0,0,0.0054962,2
23240,54.222,19.059,2.9761e-05,-0.0065187,-1.018e-08,23549,54.503,0,0,0,0,0.0055098,2
23240,54.222,19.059,2.9761e-05,-0.0065187,-1.018e-08,23549,54.503,0,0,0,0,0.0055098,2
23240,54.222,19.059,2.9761e-05,-0.0065187,-1.018e-08,23549,54.503,0,0,0,0,0.0055098,2
23242,54.222,19.058,2.976e-05,-0.0066858,-1.0441e-08,23549,54.503,0,0,0,0,0.0055439,2
23242,54.222,19.058,2.976e-05,-0.0066858,-1.0441e-08,23549,54.503,0,0,0,0,0.0055439,2
23242,54.222,19.058,2.976e-05,-0.0066858,-1.0441e-08,23549,54.503,0,0,0,0,0.0055439,2
23242,54.222,19.058,2.976e-05,-0.0066858,-1.0441e-08,23549,54.503,0,0,0,0,0.0055439,2
23242,54.222,19.058,2.976e-05,-0.0066858,-1.0441e-08,23549,54.503,0,0,0,0,0.0055439,2
23242,54.222,19.058,2.976e-05,-0.0066858,-1.0441e-08,23549,54.503,0,0,0,0,0.0055439,2
23243,54.222,19.058,2.9759e-05,-0.0066937,-1.0453e-08,23549,54.503,0,0,0,0,0.0055646,2
23243,54.222,19.058,2.9759e-05,-0.0066937,-1.0453e-08,23549,54.503,0,0,0,0,0.0055646,2
23243,54.222,19.058,2.9759e-05,-0.0066914,-1.045e-08,23549,54.503,0,0,0,0,0.0055715,2
23243,54.222,19.058,2.9759e-05,-0.0066914,-1.045e-08,23549,54.503,0,0,0,0,0.0055715,2
23243,54.222,19.058,2.9759e-05,-0.0066914,-1.045e-08,23549,54.503,0,0,0,0,0.0055715,2
23243,54.222,19.058,2.9759e-05,-0.0066914,-1.045e-08,23549,54.503,0,0,0,0,0.0055715,2
23243,54.222,19.058,2.9759e-05,-0.0066914,-1.045e-08,23549,54.503,0,0,0,0,0.0055715,2
23243,54.222,19.058,2.9759e-05,-0.0066914,-1.045e-08,23549,54.503,0,0,0,0,0.0055715,2
23243,54.222,19.058,2.9759e-05,-0.0066914,-1.045e-08,23549,54.503,0,0,0,0,0.0055715,2
23244,54.222,19.057,2.9759e-05,-0.0066868,-1.0443e-08,23549,54.503,0,0,0,0,0.0055785,2
23244,54.222,19.057,2.9759e-05,-0.0066868,-1.0443e-08,23549,54.503,0,0,0,0,0.0055785,2
23244,54.222,19.057,2.9759e-05,-0.0066868,-1.0443e-08,23549,54.503,0,0,0,0,0.0055785,2
23244,54.222,19.057,2.9758e-05,-0.0066701,-1.0417e-08,23549,54.503,0,0,0,0,0.0055924,2
23244,54.222,19.057,2.9758e-05,-0.0066701,-1.0417e-08,23549,54.503,0,0,0,0,0.0055924,2
23244,54.222,19.057,2.9758e-05,-0.0066701,-1.0417e-08,23549,54.503,0,0,0,0,0.0055924,2
23244,54.222,19.057,2.9758e-05,-0.0066701,-1.0417e-08,23549,54.503,0,0,0,0,0.0055924,2
23244,54.222,19.057,2.9758e-05,-0.0066701,-1.0417e-08,23549,54.503,0,0,0,0,0.0055924,2
23244,54.222,19.057,2.9758e-05,-0.0066701,-1.0417e-08,23549,54.503,0,0,0,0,0.0055924,2
23244,54.222,19.057,2.9758e-05,-0.0066701,-1.0417e-08,23549,54.503,0,0,0,0,0.0055924,2
23244,54.222,19.057,2.9758e-05,-0.0066701,-1.0417e-08,23549,54.503,0,0,0,0,0.0055924,2
23246,54.222,19.057,2.9757e-05,-0.0065859,-1.0285e-08,23549,54.503,0,0,0,0,0.0056276,2
23247,54.222,19.056,2.9757e-05,-0.0065646,-1.0252e-08,23549,54.503,0,0,0,0,0.0056347,2
23247,54.222,19.056,2.9757e-05,-0.0065646,-1.0252e-08,23549,54.503,0,0,0,0,0.0056347,2
23247,54.222,19.056,2.9757e-05,-0.0065646,-1.0252e-08,23549,54.503,0,0,0,0,0.0056347,2
23247,54.222,19.056,2.9757e-05,-0.0065646,-1.0252e-08,23549,54.503,0,0,0,0,0.0056347,2
23247,54.222,19.056,2.9757e-05,-0.0065646,-1.0252e-08,23549,54.503,0,0,0,0,0.0056347,2
23247,54.222,19.056,2.9757e-05,-0.0065646,-1.0252e-08,23549,54.503,0,0,0,0,0.0056347,2
23247,54.222,19.056,2.9757e-05,-0.0065646,-1.0252e-08,23549,54.503,0,0,0,0,0.0056347,2
23247,54.222,19.056,2.9757e-05,-0.0065146,-1.0174e-08,23549,54.503,0,0,0,0,0.0056489,2
23247,54.222,19.056,2.9757e-05,-0.0065146,-1.0174e-08,23549,54.503,0,0,0,0,0.0056489,2
23247,54.222,19.056,2.9757e-05,-0.0065146,-1.0174e-08,23549,54.503,0,0,0,0,0.0056489,2
23247,54.222,19.056,2.9757e-05,-0.0065146,-1.0174e-08,23549,54.503,0,0,0,0,0.0056489,2
23247,54.222,19.056,2.9757e-05,-0.0065146,-1.0174e-08,23549,54.503,0,0,0,0,0.0056489,2
23247,54.222,19.056,2.9757e-05,-0.0065146,-1.0174e-08,23549,54.503,0,0,0,0,0.0056489,2
23247,54.222,19.056,2.9757e-05,-0.0065146,-1.0174e-08,23549,54.503,0,0,0,0,0.0056489,2
23248,54.222,19.056,2.9756e-05,-0.0064578,-1.0085e-08,23549,54.503,0,0,0,0,0.0056632,2
23248,54.222,19.056,2.9756e-05,-0.0064578,-1.0085e-08,23549,54.503,0,0,0,0,0.0056632,2
23248,54.222,19.056,2.9756e-05,-0.0064271,-1.0037e-08,23549,54.503,0,0,0,0,0.0056704,2
23248,54.222,19.056,2.9756e-05,-0.0064271,-1.0037e-08,23549,54.503,0,0,0,0,0.0056704,2
23248,54.222,19.056,2.9756e-05,-0.0064271,-1.0037e-08,23549,54.503,0,0,0,0,0.0056704,2
23250,54.222,19.055,2.9755e-05,-0.0063234,-9.8748e-09,23549,54.503,0,0,0,0,0.0056921,2
23250,54.222,19.055,2.9755e-05,-0.0063234,-9.8748e-09,23549,54.503,0,0,0,0,0.0056921,2
23250,54.222,19.055,2.9755e-05,-0.0063234,-9.8748e-09,23549,54.503,0,0,0,0,0.0056921,2
23251,54.222,19.055,2.9755e-05,-0.006209,-9.6961e-09,23549,54.503,0,0,0,0,0.0057139,2
23251,54.222,19.055,2.9755e-05,-0.006209,-9.6961e-09,23549,54.503,0,0,0,0,0.0057139,2
23251,54.222,19.055,2.9755e-05,-0.0061669,-9.6303e-09,23549,54.503,0,0,0,0,0.0057212,2
23251,54.222,19.055,2.9755e-05,-0.0061669,-9.6303e-09,23549,54.503,0,0,0,0,0.0057212,2
23251,54.222,19.055,2.9755e-05,-0.0061669,-9.6303e-09,23549,54.503,0,0,0,0,0.0057212,2
23251,54.222,19.055,2.9755e-05,-0.0061669,-9.6303e-09,23549,54.503,0,0,0,0,0.0057212,2
23251,54.222,19.055,2.9755e-05,-0.0061669,-9.6303e-09,23549,54.503,0,0,0,0,0.0057212,2
23252,54.222,19.055,2.9754e-05,-0.0060375,-9.428e-09,23549,54.503,0,0,0,0,0.0057432,2
23252,54.222,19.055,2.9754e-05,-0.0060375,-9.428e-09,23549,54.503,0,0,0,0,0.0057432,2
23253,54.222,19.054,2.9754e-05,-0.0059914,-9.3559e-09,23549,54.503,0,0,0,0,0.0057506,2
23253,54.222,19.054,2.9754e-05,-0.0059914,-9.3559e-09,23549,54.503,0,0,0,0,0.0057506,2
23253,54.222,19.054,2.9754e-05,-0.0059428,-9.28e-09,23549,54.503,0,0,0,0,0.005758,2
23253,54.222,19.054,2.9754e-05,-0.0059428,-9.28e-09,23549,54.503,0,0,0,0,0.005758,2
23253,54.222,19.054,2.9754e-05,-0.0059428,-9.28e-09,23549,54.503,0,0,0,0,0.005758,2
23253,54.222,19.054,2.9754e-05,-0.0059428,-9.28e-09,23549,54.503,0,0,0,0,0.005758,2
23254,54.222,19.054,2.9753e-05,-0.0058439,-9.1256e-09,23549,54.503,0,0,0,0,0.0057728,2
23254,54.222,19.054,2.9753e-05,-0.0058439,-9.1256e-09,23549,54.503,0,0,0,0,0.0057728,2
23254,54.222,19.054,2.9753e-05,-0.0057937,-9.0471e-09,23549,54.503,0,0,0,0,0.0057803,2
23254,54.222,19.054,2.9753e-05,-0.0057937,-9.0471e-09,23549,54.503,0,0,0,0,0.0057803,2
23255,54.222,19.054,2.9753e-05,-0.005741,-8.9647e-09,23549,54.503,0,0,0,0,0.0057878,2
23255,54.222,19.054,2.9753e-05,-0.005741,-8.9647e-09,23549,54.503,0,0,0,0,0.0057878,2
23255,54.222,19.054,2.9753e-05,-0.005741,-8.9647e-09,23549,54.503,0,0,0,0,0.0057878,2
23255,54.222,19.054,2.9753e-05,-0.005741,-8.9647e-09,23549,54.503,0,0,0,0,0.0057878,2
23255,54.222,19.054,2.9753e-05,-0.005741,-8.9647e-09,23549,54.503,0,0,0,0,0.0057878,2
23255,54.222,19.054,2.9753e-05,-0.005741,-8.9647e-09,23549,54.503,0,0,0,0,0.0057878,2
23255,54.222,19.054,2.9753e-05,-0.005741,-8.9647e-09,23549,54.503,0,0,0,0,0.0057878,2
23255,54.222,19.054,2.9753e-05,-0.005741,-8.9647e-09,23549,54.503,0,0,0,0,0.0057878,2
23255,54.222,19.054,2.9753e-05,-0.005741,-8.9647e-09,23549,54.503,0,0,0,0,0.0057878,2
23255,54.222,19.054,2.9753e-05,-0.005741,-8.9647e-09,23549,54.503,0,0,0,0,0.0057878,2
23255,54.222,19.054,2.9753e-05,-0.005741,-8.9647e-09,23549,54.503,0,0,0,0,0.0057878,2
23255,54.222,19.054,2.9753e-05,-0.005741,-8.9647e-09,23549,54.503,0,0,0,0,0.0057878,2
23255,54.222,19.054,2.9753e-05,-0.005741,-8.9647e-09,23549,54.503,0,0,0,0,0.0057878,2
23257,54.222,19.053,2.9752e-05,-0.0054162,-8.4572e-09,23549,54.503,0,0,0,0,0.0058331,2
23257,54.222,19.053,2.9752e-05,-0.0053578,-8.3659e-09,23549,54.503,0,0,0,0,0.0058407,2
23257,54.222,19.053,2.9752e-05,-0.0053578,-8.3659e-09,23549,54.503,0,0,0,0,0.0058407,2
23258,54.222,19.053,2.9752e-05,-0.0052997,-8.2752e-09,23549,54.503,0,0,0,0,0.0058483,2
23258,54.222,19.053,2.9752e-05,-0.0052997,-8.2752e-09,23549,54.503,0,0,0,0,0.0058483,2
23258,54.222,19.053,2.9752e-05,-0.0052997,-8.2752e-09,23549,54.503,0,0,0,0,0.0058483,2
23258,54.222,19.053,2.9751e-05,-0.0052421,-8.1851e-09,23549,54.503,0,0,0,0,0.005856,2
23258,54.222,19.053,2.9751e-05,-0.005182,-8.0912e-09,23549,54.503,0,0,0,0,0.0058636,2
23258,54.222,19.053,2.9751e-05,-0.005182,-8.0912e-09,23549,54.503,0,0,0,0,0.0058636,2
23259,54.222,19.053,2.9751e-05,-0.0051223,-7.9979e-09,23549,54.503,0,0,0,0,0.0058713,2
23259,54.222,19.053,2.9751e-05,-0.0051223,-7.9979e-09,23549,54.503,0,0,0,0,0.0058713,2
23259,54.222,19.053,2.9751e-05,-0.0051223,-7.9979e-09,23549,54.503,0,0,0,0,0.0058713,2
23259,54.222,19.053,2.9751e-05,-0.0051223,-7.9979e-09,23549,54.503,0,0,0,0,0.0058713,2
23259,54.222,19.053,2.9751e-05,-0.0051223,-7.9979e-09,23549,54.503,0,0,0,0,0.0058713,2
23259,54.222,19.053,2.9751e-05,-0.0051223,-7.9979e-09,23549,54.503,0,0,0,0,0.0058713,2
23259,54.222,19.053,2.9751e-05,-0.0051223,-7.9979e-09,23549,54.503,0,0,0,0,0.0058713,2
23259,54.222,19.053,2.9751e-05,-0.0051223,-7.9979e-09,23549,54.503,0,0,0,0,0.0058713,2
23259,54.222,19.053,2.9751e-05,-0.0051223,-7.9979e-09,23549,54.503,0,0,0,0,0.0058713,2
23260,54.222,19.052,2.975e-05,-0.0048732,-7.6087e-09,23549,54.503,0,0,0,0,0.0059023,2
23260,54.222,19.052,2.975e-05,-0.0048732,-7.6087e-09,23549,54.503,0,0,0,0,0.0059023,2
23261,54.222,19.052,2.975e-05,-0.0048098,-7.5096e-09,23549,54.503,0,0,0,0,0.0059101,2
23261,54.222,19.052,2.975e-05,-0.0047467,-7.4112e-09,23549,54.503,0,0,0,0,0.0059179,2
23261,54.222,19.052,2.975e-05,-0.0047467,-7.4112e-09,23549,54.503,0,0,0,0,0.0059179,2
23261,54.222,19.052,2.975e-05,-0.0047467,-7.4112e-09,23549,54.503,0,0,0,0,0.0059179,2
23261,54.222,19.052,2.975e-05,-0.0047467,-7.4112e-09,23549,54.503,0,0,0,0,0.0059179,2
23261,54.222,19.052,2.975e-05,-0.0047467,-7.4112e-09,23549,54.503,0,0,0,0,0.0059179,2
23261,54.222,19.052,2.975e-05,-0.0047467,-7.4112e-09,23549,54.503,0,0,0,0,0.0059179,2
23261,54.222,19.052,2.975e-05,-0.0047467,-7.4112e-09,23549,54.503,0,0,0,0,0.0059179,2
23261,54.222,19.052,2.975e-05,-0.0047467,-7.4112e-09,23549,54.503,0,0,0,0,0.0059179,2
23261,54.222,19.052,2.975e-05,-0.0047467,-7.4112e-09,23549,54.503,0,0,0,0,0.0059179,2
23261,54.222,19.052,2.975e-05,-0.0047467,-7.4112e-09,23549,54.503,0,0,0,0,0.0059179,2
23261,54.222,19.052,2.975e-05,-0.0047467,-7.4112e-09,23549,54.503,0,0,0,0,0.0059179,2
23261,54.222,19.052,2.975e-05,-0.0047467,-7.4112e-09,23549,54.503,0,0,0,0,0.0059179,2
23261,54.222,19.052,2.975e-05,-0.0047467,-7.4112e-09,23549,54.503,0,0,0,0,0.0059179,2
23261,54.222,19.052,2.975e-05,-0.0047467,-7.4112e-09,23549,54.503,0,0,0,0,0.0059179,2
23261,54.222,19.052,2.975e-05,-0.0047467,-7.4112e-09,23549,54.503,0,0,0,0,0.0059179,2
23261,54.222,19.052,2.975e-05,-0.0047467,-7.4112e-09,23549,54.503,0,0,0,0,0.0059179,2
23261,54.222,19.052,2.975e-05,-0.0047467,-7.4112e-09,23549,54.503,0,0,0,0,0.0059179,2
23263,54.222,19.051,2.9749e-05,-0.0043512,-6.7934e-09,23549,54.503,0,0,0,0,0.0059653,2
23264,54.222,19.051,2.9749e-05,-0.0042824,-6.6859e-09,23549,54.503,0,0,0,0,0.0059732,2
23264,54.222,19.051,2.9749e-05,-0.0042824,-6.6859e-09,23549,54.503,0,0,0,0,0.0059732,2
23264,54.222,19.051,2.9749e-05,-0.0042824,-6.6859e-09,23549,54.503,0,0,0,0,0.0059732,2
23264,54.222,19.051,2.9749e-05,-0.004214,-6.579e-09,23549,54.503,0,0,0,0,0.0059812,2
23264,54.222,19.051,2.9749e-05,-0.004214,-6.579e-09,23549,54.503,0,0,0,0,0.0059812,2
23265,54.222,19.051,2.9749e-05,-0.0040054,-6.2532e-09,23549,54.503,0,0,0,0,0.0060053,2
23265,54.222,19.051,2.9749e-05,-0.0040054,-6.2532e-09,23549,54.503,0,0,0,0,0.0060053,2
23265,54.222,19.051,2.9749e-05,-0.0040054,-6.2532e-09,23549,54.503,0,0,0,0,0.0060053,2
23265,54.222,19.051,2.9749e-05,-0.0040054,-6.2532e-09,23549,54.503,0,0,0,0,0.0060053,2
23265,54.222,19.051,2.9749e-05,-0.0040054,-6.2532e-09,23549,54.503,0,0,0,0,0.0060053,2
23265,54.222,19.051,2.9749e-05,-0.0040054,-6.2532e-09,23549,54.503,0,0,0,0,0.0060053,2
23265,54.222,19.051,2.9749e-05,-0.0040054,-6.2532e-09,23549,54.503,0,0,0,0,0.0060053,2
23267,54.222,19.051,2.9748e-05,-0.0037232,-5.8126e-09,23549,54.503,0,0,0,0,0.0060377,2
23267,54.222,19.051,2.9748e-05,-0.0037232,-5.8126e-09,23549,54.503,0,0,0,0,0.0060377,2
23267,54.222,19.051,2.9748e-05,-0.0036522,-5.7018e-09,23549,54.503,0,0,0,0,0.0060458,2
23267,54.222,19.051,2.9748e-05,-0.0036522,-5.7018e-09,23549,54.503,0,0,0,0,0.0060458,2
23267,54.222,19.051,2.9748e-05,-0.0036522,-5.7018e-09,23549,54.503,0,0,0,0,0.0060458,2
23268,54.222,19.051,2.9748e-05,-0.0035816,-5.5916e-09,23549,54.503,0,0,0,0,0.006054,2
23268,54.222,19.051,2.9748e-05,-0.0035816,-5.5916e-09,23549,54.503,0,0,0,0,0.006054,2
23268,54.222,19.051,2.9748e-05,-0.0035086,-5.4775e-09,23549,54.503,0,0,0,0,0.0060622,2
23268,54.222,19.05,2.9748e-05,-0.0034359,-5.3641e-09,23549,54.503,0,0,0,0,0.0060705,2
23268,54.222,19.05,2.9748e-05,-0.0034359,-5.3641e-09,23549,54.503,0,0,0,0,0.0060705,2
23269,54.222,19.05,2.9748e-05,-0.0033637,-5.2512e-09,23549,54.503,0,0,0,0,0.0060787,2
23269,54.222,19.05,2.9748e-05,-0.0033637,-5.2512e-09,23549,54.503,0,0,0,0,0.0060787,2
23269,54.222,19.05,2.9747e-05,-0.0032918,-5.139e-09,23549,54.503,0,0,0,0,0.006087,2
23269,54.222,19.05,2.9747e-05,-0.0032918,-5.139e-09,23549,54.503,0,0,0,0,0.006087,2
23269,54.222,19.05,2.9747e-05,-0.0032174,-5.023e-09,23549,54.503,0,0,0,0,0.0060953,2
23269,54.222,19.05,2.9747e-05,-0.0032174,-5.023e-09,23549,54.503,0,0,0,0,0.0060953,2
23269,54.222,19.05,2.9747e-05,-0.0032174,-5.023e-09,23549,54.503,0,0,0,0,0.0060953,2
23269,54.222,19.05,2.9747e-05,-0.0032174,-5.023e-09,23549,54.503,0,0,0,0,0.0060953,2
23269,54.222,19.05,2.9747e-05,-0.0032174,-5.023e-09,23549,54.503,0,0,0,0,0.0060953,2
23269,54.222,19.05,2.9747e-05,-0.0032174,-5.023e-09,23549,54.503,0,0,0,0,0.0060953,2
23269,54.222,19.05,2.9747e-05,-0.0032174,-5.023e-09,23549,54.503,0,0,0,0,0.0060953,2
23269,54.222,19.05,2.9747e-05,-0.0032174,-5.023e-09,23549,54.503,0,0,0,0,0.0060953,2
23271,54.222,19.05,2.9747e-05,-0.0029212,-4.5605e-09,23549,54.503,0,0,0,0,0.0061286,2
23271,54.222,19.05,2.9747e-05,-0.0029212,-4.5605e-09,23549,54.503,0,0,0,0,0.0061286,2
23271,54.222,19.05,2.9747e-05,-0.0029212,-4.5605e-09,23549,54.503,0,0,0,0,0.0061286,2
23271,54.222,19.05,2.9747e-05,-0.0029212,-4.5605e-09,23549,54.503,0,0,0,0,0.0061286,2
23271,54.222,19.05,2.9747e-05,-0.0029212,-4.5605e-09,23549,54.503,0,0,0,0,0.0061286,2
23271,54.222,19.05,2.9747e-05,-0.0029212,-4.5605e-09,23549,54.503,0,0,0,0,0.0061286,2
23271,54.222,19.05,2.9747e-05,-0.0029212,-4.5605e-09,23549,54.503,0,0,0,0,0.0061286,2
23271,54.222,19.05,2.9747e-05,-0.0029212,-4.5605e-09,23549,54.503,0,0,0,0,0.0061286,2
23271,54.222,19.05,2.9747e-05,-0.0029212,-4.5605e-09,23549,54.503,0,0,0,0,0.0061286,2
23271,54.222,19.05,2.9747e-05,-0.0029212,-4.5605e-09,23549,54.503,0,0,0,0,0.0061286,2
23271,54.222,19.05,2.9747e-05,-0.0029212,-4.5605e-09,23549,54.503,0,0,0,0,0.0061286,2
23271,54.222,19.05,2.9747e-05,-0.0029212,-4.5605e-09,23549,54.503,0,0,0,0,0.0061286,2
23271,54.222,19.05,2.9747e-05,-0.0029212,-4.5605e-09,23549,54.503,0,0,0,0,0.0061286,2
23271,54.222,19.05,2.9747e-05,-0.0029212,-4.5605e-09,23549,54.503,0,0,0,0,0.0061286,2
23272,54.222,19.05,2.9747e-05,-0.0026226,-4.0944e-09,23549,54.503,0,0,0,0,0.0061624,2
23272,54.222,19.05,2.9747e-05,-0.0026226,-4.0944e-09,23549,54.503,0,0,0,0,0.0061624,2
23274,54.222,19.05,2.9746e-05,-0.0023942,-3.7379e-09,23549,54.503,0,0,0,0,0.006188,2
23274,54.222,19.05,2.9746e-05,-0.0023942,-3.7379e-09,23549,54.503,0,0,0,0,0.006188,2
23274,54.222,19.05,2.9746e-05,-0.0023942,-3.7379e-09,23549,54.503,0,0,0,0,0.006188,2
23274,54.222,19.05,2.9746e-05,-0.0023189,-3.6203e-09,23549,54.503,0,0,0,0,0.0061965,2
23274,54.222,19.05,2.9746e-05,-0.0022411,-3.4989e-09,23549,54.503,0,0,0,0,0.0062051,2
23274,54.222,19.05,2.9746e-05,-0.0022411,-3.4989e-09,23549,54.503,0,0,0,0,0.0062051,2
23275,54.222,19.049,2.9746e-05,-0.0020866,-3.2578e-09,23549,54.503,0,0,0,0,0.0062224,2
23276,54.222,19.049,2.9746e-05,-0.00201,-3.1382e-09,23549,54.503,0,0,0,0,0.006231,2
23276,54.222,19.049,2.9746e-05,-0.00201,-3.1382e-09,23549,54.503,0,0,0,0,0.006231,2
23276,54.222,19.049,2.9746e-05,-0.00201,-3.1382e-09,23549,54.503,0,0,0,0,0.006231,2
23276,54.222,19.049,2.9746e-05,-0.00201,-3.1382e-09,23549,54.503,0,0,0,0,0.006231,2
23276,54.222,19.049,2.9746e-05,-0.00201,-3.1382e-09,23549,54.503,0,0,0,0,0.006231,2
23276,54.222,19.049,2.9746e-05,-0.00201,-3.1382e-09,23549,54.503,0,0,0,0,0.006231,2
23276,54.222,19.049,2.9746e-05,-0.00201,-3.1382e-09,23549,54.503,0,0,0,0,0.006231,2
23276,54.222,19.049,2.9746e-05,-0.00201,-3.1382e-09,23549,54.503,0,0,0,0,0.006231,2
23276,54.222,19.049,2.9746e-05,-0.00201,-3.1382e-09,23549,54.503,0,0,0,0,0.006231,2
23276,54.222,19.049,2.9746e-05,-0.00201,-3.1382e-09,23549,54.503,0,0,0,0,0.006231,2
23276,54.222,19.049,2.9746e-05,-0.00201,-3.1382e-09,23549,54.503,0,0,0,0,0.006231,2
23276,54.222,19.049,2.9746e-05,-0.00201,-3.1382e-09,23549,54.503,0,0,0,0,0.006231,2
23276,54.222,19.049,2.9746e-05,-0.00201,-3.1382e-09,23549,54.503,0,0,0,0,0.006231,2
23276,54.222,19.049,2.9746e-05,-0.00201,-3.1382e-09,23549,54.503,0,0,0,0,0.006231,2
23276,54.222,19.049,2.9746e-05,-0.00201,-3.1382e-09,23549,54.503,0,0,0,0,0.006231,2
23276,54.222,19.049,2.9746e-05,-0.00201,-3.1382e-09,23549,54.503,0,0,0,0,0.006231,2
23277,54.223,19.049,2.9746e-05,-0.0017796,-2.7786e-09,23549,54.503,0,0,0,0,0.0062572,2
23277,54.223,19.049,2.9746e-05,-0.0017796,-2.7786e-09,23549,54.503,0,0,0,0,0.0062572,2
23277,54.223,19.049,2.9746e-05,-0.0017796,-2.7786e-09,23549,54.503,0,0,0,0,0.0062572,2
23277,54.223,19.049,2.9746e-05,-0.0017796,-2.7786e-09,23549,54.503,0,0,0,0,0.0062572,2
23277,54.223,19.049,2.9746e-05,-0.0017796,-2.7786e-09,23549,54.503,0,0,0,0,0.0062572,2
23278,54.223,19.049,2.9746e-05,-0.0014703,-2.2958e-09,23549,54.503,0,0,0,0,0.0062924,2
23278,54.223,19.049,2.9746e-05,-0.0014703,-2.2958e-09,23549,54.503,0,0,0,0,0.0062924,2
23278,54.223,19.049,2.9746e-05,-0.0014703,-2.2958e-09,23549,54.503,0,0,0,0,0.0062924,2
23279,54.223,19.049,2.9746e-05,-0.0012339,-1.9267e-09,23549,54.503,0,0,0,0,0.006319,2
23280,54.223,19.049,2.9745e-05,-0.0010782,-1.6838e-09,23549,54.503,0,0,0,0,0.0063369,2
23280,54.223,19.049,2.9745e-05,-0.0010782,-1.6838e-09,23549,54.503,0,0,0,0,0.0063369,2
23280,54.223,19.049,2.9745e-05,-0.0010782,-1.6838e-09,23549,54.503,0,0,0,0,0.0063369,2
23280,54.223,19.049,2.9745e-05,-0.0010782,-1.6838e-09,23549,54.503,0,0,0,0,0.0063369,2
23280,54.223,19.049,2.9745e-05,-0.0010782,-1.6838e-09,23549,54.503,0,0,0,0,0.0063369,2
23280,54.223,19.049,2.9745e-05,-0.0010782,-1.6838e-09,23549,54.503,0,0,0,0,0.0063369,2
23280,54.223,19.049,2.9745e-05,-0.0010782,-1.6838e-09,23549,54.503,0,0,0,0,0.0063369,2
23280,54.223,19.049,2.9745e-05,-0.0010782,-1.6838e-09,23549,54.503,0,0,0,0,0.0063369,2
23282,54.223,19.049,2.9745e-05,-0.00076021,-1.1875e-09,23549,54.503,0,0,0,0,0.006373,2
23282,54.223,19.049,2.9745e-05,-0.00076021,-1.1875e-09,23549,54.503,0,0,0,0,0.006373,2
23282,54.223,19.049,2.9745e-05,-0.00076021,-1.1875e-09,23549,54.503,0,0,0,0,0.006373,2
23282,54.223,19.049,2.9745e-05,-0.00076021,-1.1875e-09,23549,54.503,0,0,0,0,0.006373,2
23282,54.223,19.049,2.9745e-05,-0.00076021,-1.1875e-09,23549,54.503,0,0,0,0,0.006373,2
23282,54.223,19.049,2.9745e-05,-0.00076021,-1.1875e-09,23549,54.503,0,0,0,0,0.006373,2
23282,54.223,19.049,2.9745e-05,-0.00076021,-1.1875e-09,23549,54.503,0,0,0,0,0.006373,2
23282,54.223,19.049,2.9745e-05,-0.00076021,-1.1875e-09,23549,54.503,0,0,0,0,0.006373,2
23283,54.223,19.049,2.9745e-05,-0.00044278,-6.9203e-10,23549,54.503,0,0,0,0,0.0064095,2
23283,54.223,19.049,2.9745e-05,-0.00044278,-6.9203e-10,23549,54.503,0,0,0,0,0.0064095,2
23283,54.223,19.049,2.9745e-05,-0.00044278,-6.9203e-10,23549,54.503,0,0,0,0,0.0064095,2
23283,54.223,19.049,2.9745e-05,-0.00044278,-6.9203e-10,23549,54.503,0,0,0,0,0.0064095,2
23283,54.223,19.049,2.9745e-05,-0.00044278,-6.9203e-10,23549,54.503,0,0,0,0,0.0064095,2
23283,54.223,19.049,2.9745e-05,-0.00044278,-6.9203e-10,23549,54.503,0,0,0,0,0.0064095,2
23283,54.223,19.049,2.9745e-05,-0.00044278,-6.9203e-10,23549,54.503,0,0,0,0,0.0064095,2
23283,54.223,19.049,2.9745e-05,-0.00044278,-6.9203e-10,23549,54.503,0,0,0,0,0.0064095,2
23283,54.223,19.049,2.9745e-05,-0.00044278,-6.9203e-10,23549,54.503,0,0,0,0,0.0064095,2
23283,54.223,19.049,2.9745e-05,-0.00044278,-6.9203e-10,23549,54.503,0,0,0,0,0.0064095,2
23283,54.223,19.049,2.9745e-05,-0.00044278,-6.9203e-10,23549,54.503,0,0,0,0,0.0064095,2
23283,54.223,19.049,2.9745e-05,-0.00044278,-6.9203e-10,23549,54.503,0,0,0,0,0.0064095,2
23283,54.223,19.049,2.9745e-05,-0.00044278,-6.9203e-10,23549,54.503,0,0,0,0,0.0064095,2
23283,54.223,19.049,2.9745e-05,-0.00044278,-6.9203e-10,23549,54.503,0,0,0,0,0.0064095,2
23283,54.223,19.049,2.9745e-05,-0.00044278,-6.9203e-10,23549,54.503,0,0,0,0,0.0064095,2
23285,54.223,19.049,2.9745e-05,-0.00012596,-1.9752e-10,23549,54.503,0,0,0,0,0.0064465,2
23285,54.223,19.049,2.9745e-05,-0.00012596,-1.9752e-10,23549,54.503,0,0,0,0,0.0064465,2
23285,54.223,19.049,2.9745e-05,-0.00012596,-1.9752e-10,23549,54.503,0,0,0,0,0.0064465,2
23286,54.223,19.049,2.9745e-05,5.1933e-05,8.0183e-11,23549,54.503,0,0,0,0,0.0064744,2
23286,54.223,19.049,2.9745e-05,5.1933e-05,8.0183e-11,23549,54.503,0,0,0,0,0.0064744,2
23286,54.223,19.049,2.9745e-05,5.1933e-05,8.0183e-11,23549,54.503,0,0,0,0,0.0064744,2
23286,54.223,19.049,2.9745e-05,5.1933e-05,8.0183e-11,23549,54.503,0,0,0,0,0.0064744,2
23287,54.223,19.049,2.9745e-05,0.00019894,3.096e-10,23549,54.503,0,0,0,0,0.0065121,2
23288,54.223,19.049,2.9745e-05,0.0002378,3.7025e-10,23549,54.503,0,0,0,0,0.0065216,2
23288,54.223,19.049,2.9745e-05,0.0002378,3.7025e-10,23549,54.503,0,0,0,0,0.0065216,2
23288,54.223,19.049,2.9745e-05,0.0002378,3.7025e-10,23549,54.503,0,0,0,0,0.0065216,2
23288,54.223,19.049,2.9745e-05,0.0002378,3.7025e-10,23549,54.503,0,0,0,0,0.0065216,2
23288,54.223,19.049,2.9745e-05,0.0002378,3.7025e-10,23549,54.503,0,0,0,0,0.0065216,2
23288,54.223,19.049,2.9745e-05,0.0002378,3.7025e-10,23549,54.503,0,0,0,0,0.0065216,2
23288,54.223,19.049,2.9745e-05,0.0002378,3.7025e-10,23549,54.503,0,0,0,0,0.0065216,2
23288,54.223,19.049,2.9745e-05,0.0002378,3.7025e-10,23549,54.503,0,0,0,0,0.0065216,2
23288,54.223,19.049,2.9745e-05,0.0002378,3.7025e-10,23549,54.503,0,0,0,0,0.0065216,2
23288,54.223,19.049,2.9745e-05,0.0002378,3.7025e-10,23549,54.503,0,0,0,0,0.0065216,2
23288,54.223,19.049,2.9745e-05,0.0002378,3.7025e-10,23549,54.503,0,0,0,0,0.0065216,2
23288,54.223,19.049,2.9745e-05,0.0002378,3.7025e-10,23549,54.503,0,0,0,0,0.0065216,2
23288,54.223,19.049,2.9745e-05,0.0002378,3.7025e-10,23549,54.503,0,0,0,0,0.0065216,2
23288,54.223,19.049,2.9745e-05,0.0002378,3.7025e-10,23549,54.503,0,0,0,0,0.0065216,2
23288,54.223,19.049,2.9745e-05,0.0002378,3.7025e-10,23549,54.503,0,0,0,0,0.0065216,2
23288,54.223,19.049,2.9745e-05,0.0002378,3.7025e-10,23549,54.503,0,0,0,0,0.0065216,2
23289,54.223,19.049,2.9745e-05,0.00035585,5.5453e-10,23549,54.503,0,0,0,0,0.0065503,2
23289,54.223,19.049,2.9745e-05,0.00035585,5.5453e-10,23549,54.503,0,0,0,0,0.0065503,2
23289,54.223,19.049,2.9745e-05,0.00035585,5.5453e-10,23549,54.503,0,0,0,0,0.0065503,2
23289,54.223,19.049,2.9745e-05,0.00035585,5.5453e-10,23549,54.503,0,0,0,0,0.0065503,2
23289,54.223,19.049,2.9745e-05,0.00035585,5.5453e-10,23549,54.503,0,0,0,0,0.0065503,2
23289,54.223,19.049,2.9745e-05,0.00035585,5.5453e-10,23549,54.503,0,0,0,0,0.0065503,2
23289,54.223,19.049,2.9745e-05,0.00035585,5.5453e-10,23549,54.503,0,0,0,0,0.0065503,2
23292,54.223,19.049,2.9745e-05,0.00065098,1.0154e-09,23549,54.503,0,0,0,0,0.0066181,2
23292,54.223,19.049,2.9745e-05,0.00065098,1.0154e-09,23549,54.503,0,0,0,0,0.0066181,2
23292,54.223,19.049,2.9745e-05,0.00065098,1.0154e-09,23549,54.503,0,0,0,0,0.0066181,2
23292,54.223,19.049,2.9745e-05,0.00065098,1.0154e-09,23549,54.503,0,0,0,0,0.0066181,2
23292,54.223,19.049,2.9745e-05,0.00065098,1.0154e-09,23549,54.503,0,0,0,0,0.0066181,2
23293,54.223,19.049,2.9746e-05,0.00083061,1.2959e-09,23549,54.503,0,0,0,0,0.0066574,2
23293,54.223,19.049,2.9746e-05,0.00083061,1.2959e-09,23549,54.503,0,0,0,0,0.0066574,2
23293,54.223,19.049,2.9746e-05,0.00083061,1.2959e-09,23549,54.503,0,0,0,0,0.0066574,2
23293,54.223,19.049,2.9746e-05,0.00083061,1.2959e-09,23549,54.503,0,0,0,0,0.0066574,2
23293,54.223,19.049,2.9746e-05,0.00083061,1.2959e-09,23549,54.503,0,0,0,0,0.0066574,2
23293,54.223,19.049,2.9746e-05,0.00083061,1.2959e-09,23549,54.503,0,0,0,0,0.0066574,2
23293,54.223,19.049,2.9746e-05,0.00083061,1.2959e-09,23549,54.503,0,0,0,0,0.0066574,2
23293,54.223,19.049,2.9746e-05,0.00083061,1.2959e-09,23549,54.503,0,0,0,0,0.0066574,2
23293,54.223,19.049,2.9746e-05,0.00083061,1.2959e-09,23549,54.503,0,0,0,0,0.0066574,2
23293,54.223,19.049,2.9746e-05,0.00083061,1.2959e-09,23549,54.503,0,0,0,0,0.0066574,2
23293,54.223,19.049,2.9746e-05,0.00083061,1.2959e-09,23549,54.503,0,0,0,0,0.0066574,2
23293,54.223,19.049,2.9746e-05,0.00083061,1.2959e-09,23549,54.503,0,0,0,0,0.0066574,2
23293,54.223,19.049,2.9746e-05,0.00083061,1.2959e-09,23549,54.503,0,0,0,0,0.0066574,2
23294,54.223,19.049,2.9746e-05,0.00097172,1.5163e-09,23549,54.503,0,0,0,0,0.0066873,2
23294,54.223,19.049,2.9746e-05,0.00097172,1.5163e-09,23549,54.503,0,0,0,0,0.0066873,2
23294,54.223,19.049,2.9746e-05,0.00097172,1.5163e-09,23549,54.503,0,0,0,0,0.0066873,2
23294,54.223,19.049,2.9746e-05,0.00097172,1.5163e-09,23549,54.503,0,0,0,0,0.0066873,2
23295,54.223,19.049,2.9746e-05,0.0010683,1.6672e-09,23549,54.503,0,0,0,0,0.0067073,2
23295,54.223,19.049,2.9746e-05,0.0010683,1.6672e-09,23549,54.503,0,0,0,0,0.0067073,2
23296,54.223,19.049,2.9746e-05,0.0011667,1.8209e-09,23549,54.503,0,0,0,0,0.0067275,2
23296,54.223,19.049,2.9746e-05,0.0011667,1.8209e-09,23549,54.503,0,0,0,0,0.0067275,2
23296,54.223,19.049,2.9746e-05,0.0011667,1.8209e-09,23549,54.503,0,0,0,0,0.0067275,2
23297,54.223,19.049,2.9746e-05,0.001318,2.0573e-09,23549,54.503,0,0,0,0,0.006758,2
23297,54.223,19.049,2.9746e-05,0.001318,2.0573e-09,23549,54.503,0,0,0,0,0.006758,2
23297,54.223,19.049,2.9746e-05,0.001318,2.0573e-09,23549,54.503,0,0,0,0,0.006758,2
23297,54.223,19.049,2.9746e-05,0.001318,2.0573e-09,23549,54.503,0,0,0,0,0.006758,2
23298,54.223,19.049,2.9746e-05,0.0014197,2.2161e-09,23549,54.503,0,0,0,0,0.0067784,2
23298,54.223,19.049,2.9746e-05,0.0014715,2.2971e-09,23549,54.503,0,0,0,0,0.0067887,2
23298,54.223,19.049,2.9746e-05,0.0014715,2.2971e-09,23549,54.503,0,0,0,0,0.0067887,2
23298,54.223,19.049,2.9746e-05,0.0015232,2.3778e-09,23549,54.503,0,0,0,0,0.006799,2
23298,54.223,19.049,2.9746e-05,0.0015232,2.3778e-09,23549,54.503,0,0,0,0,0.006799,2
23299,54.223,19.049,2.9746e-05,0.0015759,2.4602e-09,23549,54.503,0,0,0,0,0.0068094,2
23299,54.223,19.049,2.9746e-05,0.0015759,2.4602e-09,23549,54.503,0,0,0,0,0.0068094,2
23299,54.223,19.049,2.9746e-05,0.0015759,2.4602e-09,23549,54.503,0,0,0,0,0.0068094,2
23299,54.223,19.049,2.9746e-05,0.0016285,2.5423e-09,23549,54.503,0,0,0,0,0.0068198,2
23300,54.223,19.049,2.9746e-05,0.0016821,2.6261e-09,23549,54.503,0,0,0,0,0.0068302,2
23300,54.223,19.049,2.9746e-05,0.0016821,2.6261e-09,23549,54.503,0,0,0,0,0.0068302,2
23300,54.223,19.049,2.9746e-05,0.0016821,2.6261e-09,23549,54.503,0,0,0,0,0.0068302,2
23300,54.223,19.05,2.9746e-05,0.0017356,2.7097e-09,23549,54.503,0,0,0,0,0.0068406,2
23300,54.223,19.05,2.9746e-05,0.0017901,2.7949e-09,23549,54.503,0,0,0,0,0.0068511,2
23300,54.223,19.05,2.9746e-05,0.0017901,2.7949e-09,23549,54.503,0,0,0,0,0.0068511,2
23301,54.223,19.05,2.9746e-05,0.0018445,2.8799e-09,23549,54.503,0,0,0,0,0.0068616,2
23301,54.223,19.05,2.9746e-05,0.0018445,2.8799e-09,23549,54.503,0,0,0,0,0.0068616,2
23301,54.223,19.05,2.9746e-05,0.0018445,2.8799e-09,23549,54.503,0,0,0,0,0.0068616,2
23301,54.223,19.05,2.9746e-05,0.0018999,2.9665e-09,23549,54.503,0,0,0,0,0.0068721,2
23301,54.223,19.05,2.9746e-05,0.0019552,3.0529e-09,23549,54.503,0,0,0,0,0.0068827,2
23301,54.223,19.05,2.9746e-05,0.0019552,3.0529e-09,23549,54.503,0,0,0,0,0.0068827,2
23301,54.223,19.05,2.9746e-05,0.0019552,3.0529e-09,23549,54.503,0,0,0,0,0.0068827,2
23301,54.223,19.05,2.9746e-05,0.0019552,3.0529e-09,23549,54.503,0,0,0,0,0.0068827,2
23301,54.223,19.05,2.9746e-05,0.0019552,3.0529e-09,23549,54.503,0,0,0,0,0.0068827,2
23302,54.223,19.05,2.9747e-05,0.0020665,3.2267e-09,23549,54.503,0,0,0,0,0.0069039,2
23302,54.223,19.05,2.9747e-05,0.0020665,3.2267e-09,23549,54.503,0,0,0,0,0.0069039,2
23303,54.223,19.05,2.9747e-05,0.0021224,3.3142e-09,23549,54.503,0,0,0,0,0.0069146,2
23303,54.223,19.05,2.9747e-05,0.0021795,3.4033e-09,23549,54.503,0,0,0,0,0.0069253,2
23303,54.223,19.05,2.9747e-05,0.0021795,3.4033e-09,23549,54.503,0,0,0,0,0.0069253,2
23303,54.223,19.05,2.9747e-05,0.0021795,3.4033e-09,23549,54.503,0,0,0,0,0.0069253,2
23303,54.223,19.05,2.9747e-05,0.0021795,3.4033e-09,23549,54.503,0,0,0,0,0.0069253,2
23303,54.223,19.05,2.9747e-05,0.0021795,3.4033e-09,23549,54.503,0,0,0,0,0.0069253,2
23304,54.223,19.05,2.9747e-05,0.0022931,3.5808e-09,23549,54.503,0,0,0,0,0.0069468,2
23304,54.223,19.05,2.9747e-05,0.0022931,3.5808e-09,23549,54.503,0,0,0,0,0.0069468,2
23304,54.223,19.05,2.9747e-05,0.0022931,3.5808e-09,23549,54.503,0,0,0,0,0.0069468,2
23304,54.223,19.05,2.9747e-05,0.0024085,3.7611e-09,23549,54.503,0,0,0,0,0.0069684,2
23304,54.223,19.05,2.9747e-05,0.0024085,3.7611e-09,23549,54.503,0,0,0,0,0.0069684,2
23304,54.223,19.05,2.9747e-05,0.0024085,3.7611e-09,23549,54.503,0,0,0,0,0.0069684,2
23305,54.223,19.05,2.9747e-05,0.0024672,3.8528e-09,23549,54.503,0,0,0,0,0.0069793,2
23305,54.223,19.05,2.9747e-05,0.0024672,3.8528e-09,23549,54.503,0,0,0,0,0.0069793,2
23305,54.223,19.05,2.9747e-05,0.0024672,3.8528e-09,23549,54.503,0,0,0,0,0.0069793,2
23305,54.223,19.05,2.9747e-05,0.0024672,3.8528e-09,23549,54.503,0,0,0,0,0.0069793,2
23305,54.223,19.05,2.9747e-05,0.0024672,3.8528e-09,23549,54.503,0,0,0,0,0.0069793,2
23306,54.223,19.05,2.9747e-05,0.0026433,4.1281e-09,23549,54.503,0,0,0,0,0.0070121,2
23306,54.223,19.05,2.9747e-05,0.0026433,4.1281e-09,23549,54.503,0,0,0,0,0.0070121,2
23306,54.223,19.05,2.9747e-05,0.0026433,4.1281e-09,23549,54.503,0,0,0,0,0.0070121,2
23306,54.223,19.05,2.9747e-05,0.0026433,4.1281e-09,23549,54.503,0,0,0,0,0.0070121,2
23306,54.223,19.05,2.9747e-05,0.0027025,4.2206e-09,23549,54.503,0,0,0,0,0.0070231,2
23306,54.223,19.05,2.9747e-05,0.0027025,4.2206e-09,23549,54.503,0,0,0,0,0.0070231,2
23306,54.223,19.05,2.9747e-05,0.0027025,4.2206e-09,23549,54.503,0,0,0,0,0.0070231,2
23306,54.223,19.05,2.9747e-05,0.0027025,4.2206e-09,23549,54.503,0,0,0,0,0.0070231,2
23306,54.223,19.05,2.9747e-05,0.0027025,4.2206e-09,23549,54.503,0,0,0,0,0.0070231,2
23307,54.223,19.05,2.9748e-05,0.0028229,4.4087e-09,23549,54.503,0,0,0,0,0.0070452,2
23307,54.223,19.05,2.9748e-05,0.0028229,4.4087e-09,23549,54.503,0,0,0,0,0.0070452,2
23308,54.223,19.05,2.9748e-05,0.0028828,4.5023e-09,23549,54.503,0,0,0,0,0.0070563,2
23308,54.223,19.05,2.9748e-05,0.0028828,4.5023e-09,23549,54.503,0,0,0,0,0.0070563,2
23308,54.223,19.051,2.9748e-05,0.0030046,4.6925e-09,23549,54.503,0,0,0,0,0.0070787,2
23308,54.223,19.051,2.9748e-05,0.0030046,4.6925e-09,23549,54.503,0,0,0,0,0.0070787,2
23308,54.223,19.051,2.9748e-05,0.0030046,4.6925e-09,23549,54.503,0,0,0,0,0.0070787,2
23308,54.223,19.051,2.9748e-05,0.0030046,4.6925e-09,23549,54.503,0,0,0,0,0.0070787,2
23308,54.223,19.051,2.9748e-05,0.0030046,4.6925e-09,23549,54.503,0,0,0,0,0.0070787,2
23309,54.223,19.051,2.9748e-05,0.0031884,4.9796e-09,23549,54.503,0,0,0,0,0.0071124,2
23309,54.223,19.051,2.9748e-05,0.0031884,4.9796e-09,23549,54.503,0,0,0,0,0.0071124,2
23309,54.223,19.051,2.9748e-05,0.0031884,4.9796e-09,23549,54.503,0,0,0,0,0.0071124,2
23309,54.223,19.051,2.9748e-05,0.0031884,4.9796e-09,23549,54.503,0,0,0,0,0.0071124,2
23309,54.223,19.051,2.9748e-05,0.0031884,4.9796e-09,23549,54.503,0,0,0,0,0.0071124,2
23310,54.223,19.051,2.9748e-05,0.0033133,5.1747e-09,23549,54.503,0,0,0,0,0.0071351,2
23311,54.223,19.051,2.9748e-05,0.0033755,5.2719e-09,23549,54.503,0,0,0,0,0.0071465,2
23311,54.223,19.051,2.9748e-05,0.0033755,5.2719e-09,23549,54.503,0,0,0,0,0.0071465,2
23311,54.223,19.051,2.9749e-05,0.0034388,5.3707e-09,23549,54.503,0,0,0,0,0.0071579,2
23311,54.223,19.051,2.9749e-05,0.0034388,5.3707e-09,23549,54.503,0,0,0,0,0.0071579,2
23311,54.223,19.051,2.9749e-05,0.0035019,5.4692e-09,23549,54.503,0,0,0,0,0.0071694,2
23311,54.223,19.051,2.9749e-05,0.0035019,5.4692e-09,23549,54.503,0,0,0,0,0.0071694,2
23311,54.223,19.051,2.9749e-05,0.0035019,5.4692e-09,23549,54.503,0,0,0,0,0.0071694,2
23311,54.223,19.051,2.9749e-05,0.0035019,5.4692e-09,23549,54.503,0,0,0,0,0.0071694,2
23312,54.223,19.051,2.9749e-05,0.0035647,5.5674e-09,23549,54.503,0,0,0,0,0.0071809,2
23312,54.223,19.051,2.9749e-05,0.0035647,5.5674e-09,23549,54.503,0,0,0,0,0.0071809,2
23312,54.223,19.051,2.9749e-05,0.0035647,5.5674e-09,23549,54.503,0,0,0,0,0.0071809,2
23312,54.223,19.051,2.9749e-05,0.0035647,5.5674e-09,23549,54.503,0,0,0,0,0.0071809,2
23312,54.223,19.051,2.9749e-05,0.0035647,5.5674e-09,23549,54.503,0,0,0,0,0.0071809,2
23312,54.223,19.051,2.9749e-05,0.0035647,5.5674e-09,23549,54.503,0,0,0,0,0.0071809,2
23312,54.223,19.051,2.9749e-05,0.0035647,5.5674e-09,23549,54.503,0,0,0,0,0.0071809,2
23312,54.223,19.051,2.9749e-05,0.0035647,5.5674e-09,23549,54.503,0,0,0,0,0.0071809,2
23312,54.223,19.051,2.9749e-05,0.0035647,5.5674e-09,23549,54.503,0,0,0,0,0.0071809,2
23312,54.223,19.051,2.9749e-05,0.0035647,5.5674e-09,23549,54.503,0,0,0,0,0.0071809,2
23312,54.223,19.051,2.9749e-05,0.0035647,5.5674e-09,23549,54.503,0,0,0,0,0.0071809,2
23314,54.223,19.052,2.9749e-05,0.0039494,6.1681e-09,23549,54.503,0,0,0,0,0.0072507,2
23314,54.223,19.052,2.9749e-05,0.0039494,6.1681e-09,23549,54.503,0,0,0,0,0.0072507,2
23314,54.223,19.052,2.9749e-05,0.0039494,6.1681e-09,23549,54.503,0,0,0,0,0.0072507,2
23314,54.223,19.052,2.9749e-05,0.0039494,6.1681e-09,23549,54.503,0,0,0,0,0.0072507,2
23315,54.223,19.052,2.975e-05,0.0040798,6.3719e-09,23549,54.503,0,0,0,0,0.0072743,2
23315,54.223,19.052,2.975e-05,0.0041448,6.4733e-09,23549,54.503,0,0,0,0,0.0072861,2
23315,54.223,19.052,2.975e-05,0.0041448,6.4733e-09,23549,54.503,0,0,0,0,0.0072861,2
23315,54.223,19.052,2.975e-05,0.0041448,6.4733e-09,23549,54.503,0,0,0,0,0.0072861,2
23316,54.223,19.052,2.975e-05,0.0042108,6.5763e-09,23549,54.503,0,0,0,0,0.007298,2
23316,54.223,19.052,2.975e-05,0.0042108,6.5763e-09,23549,54.503,0,0,0,0,0.007298,2
23316,54.223,19.052,2.975e-05,0.0042766,6.6791e-09,23549,54.503,0,0,0,0,0.0073099,2
23316,54.223,19.052,2.975e-05,0.0043422,6.7815e-09,23549,54.503,0,0,0,0,0.0073219,2
23316,54.223,19.052,2.975e-05,0.0043422,6.7815e-09,23549,54.503,0,0,0,0,0.0073219,2
23317,54.223,19.052,2.975e-05,0.0044089,6.8856e-09,23549,54.503,0,0,0,0,0.0073339,2
23317,54.223,19.052,2.975e-05,0.0044089,6.8856e-09,23549,54.503,0,0,0,0,0.0073339,2
23317,54.223,19.052,2.9751e-05,0.0044753,6.9895e-09,23549,54.503,0,0,0,0,0.0073459,2
23317,54.223,19.052,2.9751e-05,0.0044753,6.9895e-09,23549,54.503,0,0,0,0,0.0073459,2
23317,54.223,19.052,2.9751e-05,0.0044753,6.9895e-09,23549,54.503,0,0,0,0,0.0073459,2
23317,54.223,19.052,2.9751e-05,0.0044753,6.9895e-09,23549,54.503,0,0,0,0,0.0073459,2
23317,54.223,19.052,2.9751e-05,0.0044753,6.9895e-09,23549,54.503,0,0,0,0,0.0073459,2
23317,54.223,19.052,2.9751e-05,0.0044753,6.9895e-09,23549,54.503,0,0,0,0,0.0073459,2
23318,54.223,19.052,2.9751e-05,0.0046077,7.1961e-09,23549,54.503,0,0,0,0,0.0073701,2
23318,54.223,19.052,2.9751e-05,0.0046077,7.1961e-09,23549,54.503,0,0,0,0,0.0073701,2
23318,54.223,19.052,2.9751e-05,0.0046077,7.1961e-09,23549,54.503,0,0,0,0,0.0073701,2
23318,54.223,19.052,2.9751e-05,0.0046077,7.1961e-09,23549,54.503,0,0,0,0,0.0073701,2
23318,54.223,19.052,2.9751e-05,0.0046077,7.1961e-09,23549,54.503,0,0,0,0,0.0073701,2
23318,54.223,19.052,2.9751e-05,0.0046077,7.1961e-09,23549,54.503,0,0,0,0,0.0073701,2
23318,54.223,19.052,2.9751e-05,0.0046077,7.1961e-09,23549,54.503,0,0,0,0,0.0073701,2
23319,54.223,19.053,2.9751e-05,0.0048764,7.6155e-09,23549,54.503,0,0,0,0,0.007419,2
23319,54.223,19.053,2.9751e-05,0.0048764,7.6155e-09,23549,54.503,0,0,0,0,0.007419,2
23319,54.223,19.053,2.9751e-05,0.0048764,7.6155e-09,23549,54.503,0,0,0,0,0.007419,2
23319,54.223,19.053,2.9751e-05,0.0048764,7.6155e-09,23549,54.503,0,0,0,0,0.007419,2
23319,54.223,19.053,2.9751e-05,0.0048764,7.6155e-09,23549,54.503,0,0,0,0,0.007419,2
23319,54.223,19.053,2.9751e-05,0.0048764,7.6155e-09,23549,54.503,0,0,0,0,0.007419,2
23319,54.223,19.053,2.9751e-05,0.0048764,7.6155e-09,23549,54.503,0,0,0,0,0.007419,2
23319,54.223,19.053,2.9751e-05,0.0048764,7.6155e-09,23549,54.503,0,0,0,0,0.007419,2
23320,54.223,19.053,2.9752e-05,0.0050799,7.9332e-09,23549,54.503,0,0,0,0,0.0074561,2
23320,54.223,19.053,2.9752e-05,0.0050799,7.9332e-09,23549,54.503,0,0,0,0,0.0074561,2
23320,54.223,19.053,2.9752e-05,0.0050799,7.9332e-09,23549,54.503,0,0,0,0,0.0074561,2
23320,54.223,19.053,2.9752e-05,0.0050799,7.9332e-09,23549,54.503,0,0,0,0,0.0074561,2
23320,54.223,19.053,2.9752e-05,0.0050799,7.9332e-09,23549,54.503,0,0,0,0,0.0074561,2
23322,54.223,19.054,2.9753e-05,0.005353,8.3596e-09,23549,54.503,0,0,0,0,0.0075061,2
23322,54.223,19.054,2.9753e-05,0.005353,8.3596e-09,23549,54.503,0,0,0,0,0.0075061,2
23322,54.223,19.054,2.9753e-05,0.005353,8.3596e-09,23549,54.503,0,0,0,0,0.0075061,2
23323,54.223,19.054,2.9753e-05,0.0054903,8.5739e-09,23549,54.503,0,0,0,0,0.0075314,2
23323,54.223,19.054,2.9753e-05,0.0054903,8.5739e-09,23549,54.503,0,0,0,0,0.0075314,2
23323,54.223,19.054,2.9753e-05,0.0054903,8.5739e-09,23549,54.503,0,0,0,0,0.0075314,2
23323,54.223,19.054,2.9753e-05,0.0054903,8.5739e-09,23549,54.503,0,0,0,0,0.0075314,2
23323,54.223,19.054,2.9753e-05,0.0054903,8.5739e-09,23549,54.503,0,0,0,0,0.0075314,2
23323,54.223,19.054,2.9753e-05,0.0054903,8.5739e-09,23549,54.503,0,0,0,0,0.0075314,2
23323,54.223,19.054,2.9753e-05,0.0054903,8.5739e-09,23549,54.503,0,0,0,0,0.0075314,2
23323,54.223,19.054,2.9753e-05,0.0054903,8.5739e-09,23549,54.503,0,0,0,0,0.0075314,2
23323,54.223,19.054,2.9753e-05,0.0054903,8.5739e-09,23549,54.503,0,0,0,0,0.0075314,2
23323,54.223,19.054,2.9753e-05,0.0054903,8.5739e-09,23549,54.503,0,0,0,0,0.0075314,2
23323,54.223,19.054,2.9753e-05,0.0054903,8.5739e-09,23549,54.503,0,0,0,0,0.0075314,2
23323,54.223,19.054,2.9753e-05,0.0054903,8.5739e-09,23549,54.503,0,0,0,0,0.0075314,2
23323,54.223,19.054,2.9753e-05,0.0054903,8.5739e-09,23549,54.503,0,0,0,0,0.0075314,2
23324,54.223,19.054,2.9753e-05,0.0056984,8.8988e-09,23549,54.503,0,0,0,0,0.0075696,2
23324,54.223,19.054,2.9753e-05,0.0056984,8.8988e-09,23549,54.503,0,0,0,0,0.0075696,2
23324,54.223,19.054,2.9753e-05,0.0056984,8.8988e-09,23549,54.503,0,0,0,0,0.0075696,2
23324,54.223,19.054,2.9753e-05,0.0056984,8.8988e-09,23549,54.503,0,0,0,0,0.0075696,2
23325,54.223,19.054,2.9754e-05,0.0058374,9.1157e-09,23549,54.503,0,0,0,0,0.0075953,2
23325,54.223,19.054,2.9754e-05,0.0059072,9.2247e-09,23549,54.503,0,0,0,0,0.0076082,2
23325,54.223,19.054,2.9754e-05,0.0059072,9.2247e-09,23549,54.503,0,0,0,0,0.0076082,2
23325,54.223,19.054,2.9754e-05,0.0059072,9.2247e-09,23549,54.503,0,0,0,0,0.0076082,2
23325,54.223,19.054,2.9754e-05,0.0059072,9.2247e-09,23549,54.503,0,0,0,0,0.0076082,2
23325,54.223,19.054,2.9754e-05,0.0059072,9.2247e-09,23549,54.503,0,0,0,0,0.0076082,2
23325,54.223,19.054,2.9754e-05,0.0059072,9.2247e-09,23549,54.503,0,0,0,0,0.0076082,2
23327,54.223,19.055,2.9755e-05,0.0062569,9.7705e-09,23549,54.503,0,0,0,0,0.0076735,2
23327,54.223,19.055,2.9755e-05,0.0062569,9.7705e-09,23549,54.503,0,0,0,0,0.0076735,2
23327,54.223,19.055,2.9755e-05,0.0062569,9.7705e-09,23549,54.503,0,0,0,0,0.0076735,2
23327,54.223,19.055,2.9755e-05,0.0062569,9.7705e-09,23549,54.503,0,0,0,0,0.0076735,2
23327,54.223,19.055,2.9755e-05,0.0062569,9.7705e-09,23549,54.503,0,0,0,0,0.0076735,2
23327,54.223,19.055,2.9755e-05,0.0062569,9.7705e-09,23549,54.503,0,0,0,0,0.0076735,2
23327,54.223,19.055,2.9755e-05,0.0062569,9.7705e-09,23549,54.503,0,0,0,0,0.0076735,2
23327,54.223,19.055,2.9755e-05,0.0062569,9.7705e-09,23549,54.503,0,0,0,0,0.0076735,2
23327,54.223,19.055,2.9755e-05,0.0062569,9.7705e-09,23549,54.503,0,0,0,0,0.0076735,2
23328,54.223,19.055,2.9755e-05,0.0064683,1.01e-08,23549,54.503,0,0,0,0,0.0077132,2
23328,54.223,19.055,2.9755e-05,0.0064683,1.01e-08,23549,54.503,0,0,0,0,0.0077132,2
23328,54.223,19.055,2.9755e-05,0.0064683,1.01e-08,23549,54.503,0,0,0,0,0.0077132,2
23328,54.223,19.055,2.9755e-05,0.0064683,1.01e-08,23549,54.503,0,0,0,0,0.0077132,2
23329,54.223,19.056,2.9756e-05,0.0066816,1.0433e-08,23549,54.503,0,0,0,0,0.0077533,2
23329,54.223,19.056,2.9756e-05,0.0066816,1.0433e-08,23549,54.503,0,0,0,0,0.0077533,2
23330,54.223,19.056,2.9757e-05,0.0068235,1.0655e-08,23549,54.503,0,0,0,0,0.0077803,2
23330,54.223,19.056,2.9757e-05,0.0068235,1.0655e-08,23549,54.503,0,0,0,0,0.0077803,2
23330,54.223,19.056,2.9757e-05,0.0068235,1.0655e-08,23549,54.503,0,0,0,0,0.0077803,2
23330,54.223,19.056,2.9757e-05,0.0068235,1.0655e-08,23549,54.503,0,0,0,0,0.0077803,2
23330,54.223,19.056,2.9757e-05,0.0068235,1.0655e-08,23549,54.503,0,0,0,0,0.0077803,2
23330,54.223,19.056,2.9757e-05,0.0068235,1.0655e-08,23549,54.503,0,0,0,0,0.0077803,2
23330,54.223,19.056,2.9757e-05,0.0068235,1.0655e-08,23549,54.503,0,0,0,0,0.0077803,2
23330,54.223,19.056,2.9757e-05,0.0068235,1.0655e-08,23549,54.503,0,0,0,0,0.0077803,2
23330,54.223,19.056,2.9757e-05,0.0068235,1.0655e-08,23549,54.503,0,0,0,0,0.0077803,2
23330,54.223,19.056,2.9757e-05,0.0068235,1.0655e-08,23549,54.503,0,0,0,0,0.0077803,2
23330,54.223,19.056,2.9757e-05,0.0068235,1.0655e-08,23549,54.503,0,0,0,0,0.0077803,2
23330,54.223,19.056,2.9757e-05,0.0068235,1.0655e-08,23549,54.503,0,0,0,0,0.0077803,2
23330,54.223,19.056,2.9757e-05,0.0068235,1.0655e-08,23549,54.503,0,0,0,0,0.0077803,2
23330,54.223,19.056,2.9757e-05,0.0068235,1.0655e-08,23549,54.503,0,0,0,0,0.0077803,2
23333,54.223,19.057,2.9758e-05,0.0073262,1.1439e-08,23549,54.503,0,0,0,0,0.0078761,2
23333,54.223,19.057,2.9758e-05,0.0073262,1.1439e-08,23549,54.503,0,0,0,0,0.0078761,2
23333,54.223,19.057,2.9758e-05,0.0073262,1.1439e-08,23549,54.503,0,0,0,0,0.0078761,2
23333,54.223,19.057,2.9758e-05,0.0073262,1.1439e-08,23549,54.503,0,0,0,0,0.0078761,2
23333,54.223,19.057,2.9759e-05,0.0074705,1.1665e-08,23549,54.503,0,0,0,0,0.007904,2
23334,54.223,19.058,2.9759e-05,0.007543,1.1778e-08,23549,54.503,0,0,0,0,0.007918,2
23334,54.223,19.058,2.9759e-05,0.007543,1.1778e-08,23549,54.503,0,0,0,0,0.007918,2
23334,54.223,19.058,2.9759e-05,0.007543,1.1778e-08,23549,54.503,0,0,0,0,0.007918,2
23334,54.223,19.058,2.9759e-05,0.007543,1.1778e-08,23549,54.503,0,0,0,0,0.007918,2
23334,54.223,19.058,2.9759e-05,0.007543,1.1778e-08,23549,54.503,0,0,0,0,0.007918,2
23334,54.223,19.058,2.9759e-05,0.007543,1.1778e-08,23549,54.503,0,0,0,0,0.007918,2
23334,54.223,19.058,2.9759e-05,0.007543,1.1778e-08,23549,54.503,0,0,0,0,0.007918,2
23334,54.223,19.058,2.9759e-05,0.007543,1.1778e-08,23549,54.503,0,0,0,0,0.007918,2
23334,54.223,19.058,2.9759e-05,0.007543,1.1778e-08,23549,54.503,0,0,0,0,0.007918,2
23335,54.223,19.058,2.9759e-05,0.0076873,1.2003e-08,23549,54.503,0,0,0,0,0.0079461,2
23335,54.223,19.058,2.9759e-05,0.0076873,1.2003e-08,23549,54.503,0,0,0,0,0.0079461,2
23335,54.223,19.058,2.9759e-05,0.0076873,1.2003e-08,23549,54.503,0,0,0,0,0.0079461,2
23335,54.223,19.058,2.9759e-05,0.0076873,1.2003e-08,23549,54.503,0,0,0,0,0.0079461,2
23335,54.223,19.058,2.9759e-05,0.0076873,1.2003e-08,23549,54.503,0,0,0,0,0.0079461,2
23335,54.223,19.058,2.9759e-05,0.0076873,1.2003e-08,23549,54.503,0,0,0,0,0.0079461,2
23335,54.223,19.058,2.9759e-05,0.0076873,1.2003e-08,23549,54.503,0,0,0,0,0.0079461,2
23335,54.223,19.058,2.9759e-05,0.0076873,1.2003e-08,23549,54.503,0,0,0,0,0.0079461,2
23336,54.223,19.058,2.976e-05,0.0079059,1.2344e-08,23549,54.503,0,0,0,0,0.0079887,2
23336,54.223,19.059,2.976e-05,0.0080506,1.257e-08,23549,54.503,0,0,0,0,0.0080173,2
23336,54.223,19.059,2.976e-05,0.0080506,1.257e-08,23549,54.503,0,0,0,0,0.0080173,2
23336,54.223,19.059,2.976e-05,0.0080506,1.257e-08,23549,54.503,0,0,0,0,0.0080173,2
23336,54.223,19.059,2.976e-05,0.0080506,1.257e-08,23549,54.503,0,0,0,0,0.0080173,2
23338,54.223,19.059,2.9761e-05,0.0082696,1.2912e-08,23549,54.503,0,0,0,0,0.0080606,2
23338,54.223,19.059,2.9761e-05,0.0082696,1.2912e-08,23549,54.503,0,0,0,0,0.0080606,2
23338,54.223,19.059,2.9761e-05,0.0082696,1.2912e-08,23549,54.503,0,0,0,0,0.0080606,2
23338,54.223,19.059,2.9761e-05,0.0082696,1.2912e-08,23549,54.503,0,0,0,0,0.0080606,2
23338,54.223,19.059,2.9761e-05,0.0082696,1.2912e-08,23549,54.503,0,0,0,0,0.0080606,2
23338,54.223,19.059,2.9761e-05,0.0082696,1.2912e-08,23549,54.503,0,0,0,0,0.0080606,2
23338,54.223,19.059,2.9761e-05,0.0082696,1.2912e-08,23549,54.503,0,0,0,0,0.0080606,2
23338,54.223,19.059,2.9761e-05,0.0082696,1.2912e-08,23549,54.503,0,0,0,0,0.0080606,2
23338,54.223,19.059,2.9761e-05,0.0082696,1.2912e-08,23549,54.503,0,0,0,0,0.0080606,2
23338,54.223,19.059,2.9761e-05,0.0082696,1.2912e-08,23549,54.503,0,0,0,0,0.0080606,2
23338,54.223,19.059,2.9762e-05,0.0084158,1.314e-08,23549,54.503,0,0,0,0,0.0080898,2
23338,54.223,19.059,2.9762e-05,0.0084158,1.314e-08,23549,54.503,0,0,0,0,0.0080898,2
23338,54.223,19.059,2.9762e-05,0.0084158,1.314e-08,23549,54.503,0,0,0,0,0.0080898,2
23338,54.223,19.059,2.9762e-05,0.0084158,1.314e-08,23549,54.503,0,0,0,0,0.0080898,2
23338,54.223,19.059,2.9762e-05,0.0084158,1.314e-08,23549,54.503,0,0,0,0,0.0080898,2
23339,54.223,19.06,2.9762e-05,0.0085623,1.3369e-08,23549,54.503,0,0,0,0,0.0081192,2
23339,54.223,19.06,2.9762e-05,0.0085623,1.3369e-08,23549,54.503,0,0,0,0,0.0081192,2
23339,54.223,19.06,2.9762e-05,0.0085623,1.3369e-08,23549,54.503,0,0,0,0,0.0081192,2
23340,54.223,19.06,2.9763e-05,0.0086352,1.3483e-08,23549,54.503,0,0,0,0,0.0081339,2
23340,54.223,19.06,2.9763e-05,0.0086352,1.3483e-08,23549,54.503,0,0,0,0,0.0081339,2
23341,54.223,19.061,2.9764e-05,0.0089296,1.3942e-08,23549,54.503,0,0,0,0,0.0081935,2
23342,54.223,19.061,2.9764e-05,0.009078,1.4174e-08,23549,54.503,0,0,0,0,0.0082237,2
23342,54.223,19.061,2.9764e-05,0.009078,1.4174e-08,23549,54.503,0,0,0,0,0.0082237,2
23342,54.223,19.061,2.9764e-05,0.009078,1.4174e-08,23549,54.503,0,0,0,0,0.0082237,2
23342,54.223,19.061,2.9764e-05,0.009078,1.4174e-08,23549,54.503,0,0,0,0,0.0082237,2
23342,54.223,19.061,2.9764e-05,0.009078,1.4174e-08,23549,54.503,0,0,0,0,0.0082237,2
23342,54.223,19.061,2.9764e-05,0.009078,1.4174e-08,23549,54.503,0,0,0,0,0.0082237,2
23343,54.223,19.062,2.9765e-05,0.0092987,1.4519e-08,23549,54.503,0,0,0,0,0.0082693,2
23343,54.223,19.062,2.9765e-05,0.0092987,1.4519e-08,23549,54.503,0,0,0,0,0.0082693,2
23343,54.223,19.062,2.9765e-05,0.0092987,1.4519e-08,23549,54.503,0,0,0,0,0.0082693,2
23343,54.223,19.062,2.9765e-05,0.0092987,1.4519e-08,23549,54.503,0,0,0,0,0.0082693,2
23343,54.223,19.062,2.9765e-05,0.0092987,1.4519e-08,23549,54.503,0,0,0,0,0.0082693,2
23343,54.223,19.062,2.9765e-05,0.0092987,1.4519e-08,23549,54.503,0,0,0,0,0.0082693,2
23343,54.223,19.062,2.9765e-05,0.0092987,1.4519e-08,23549,54.503,0,0,0,0,0.0082693,2
23343,54.223,19.062,2.9765e-05,0.0092987,1.4519e-08,23549,54.503,0,0,0,0,0.0082693,2
23343,54.223,19.062,2.9765e-05,0.0092987,1.4519e-08,23549,54.503,0,0,0,0,0.0082693,2
23343,54.223,19.062,2.9765e-05,0.0092987,1.4519e-08,23549,54.503,0,0,0,0,0.0082693,2
23344,54.223,19.062,2.9766e-05,0.0094473,1.4751e-08,23549,54.503,0,0,0,0,0.0083,2
23344,54.223,19.062,2.9766e-05,0.0094473,1.4751e-08,23549,54.503,0,0,0,0,0.0083,2
23344,54.223,19.062,2.9766e-05,0.0094473,1.4751e-08,23549,54.503,0,0,0,0,0.0083,2
23344,54.223,19.062,2.9766e-05,0.0094473,1.4751e-08,23549,54.503,0,0,0,0,0.0083,2
23344,54.223,19.062,2.9766e-05,0.0094473,1.4751e-08,23549,54.503,0,0,0,0,0.0083,2
23344,54.223,19.062,2.9766e-05,0.0094473,1.4751e-08,23549,54.503,0,0,0,0,0.0083,2
23344,54.223,19.062,2.9766e-05,0.0094473,1.4751e-08,23549,54.503,0,0,0,0,0.0083,2
23346,54.223,19.063,2.9767e-05,0.0098922,1.5446e-08,23549,54.503,0,0,0,0,0.0083934,2
23346,54.223,19.063,2.9767e-05,0.0098922,1.5446e-08,23549,54.503,0,0,0,0,0.0083934,2
23346,54.223,19.063,2.9767e-05,0.0098922,1.5446e-08,23549,54.503,0,0,0,0,0.0083934,2
23346,54.223,19.063,2.9767e-05,0.0098922,1.5446e-08,23549,54.503,0,0,0,0,0.0083934,2
23347,54.223,19.064,2.9768e-05,0.010041,1.5678e-08,23549,54.503,0,0,0,0,0.0084251,2
23347,54.223,19.064,2.9768e-05,0.010041,1.5678e-08,23549,54.503,0,0,0,0,0.0084251,2
23347,54.223,19.064,2.9768e-05,0.010041,1.5678e-08,23549,54.503,0,0,0,0,0.0084251,2
23347,54.223,19.064,2.9768e-05,0.010115,1.5794e-08,23549,54.503,0,0,0,0,0.008441,2
23347,54.223,19.064,2.9768e-05,0.010115,1.5794e-08,23549,54.503,0,0,0,0,0.008441,2
23348,54.223,19.064,2.9769e-05,0.01019,1.591e-08,23549,54.503,0,0,0,0,0.0084569,2
23348,54.223,19.064,2.9769e-05,0.01019,1.591e-08,23549,54.503,0,0,0,0,0.0084569,2
23348,54.223,19.064,2.9769e-05,0.01019,1.591e-08,23549,54.503,0,0,0,0,0.0084569,2
23348,54.223,19.064,2.9769e-05,0.01019,1.591e-08,23549,54.503,0,0,0,0,0.0084569,2
23348,54.223,19.064,2.9769e-05,0.01019,1.591e-08,23549,54.503,0,0,0,0,0.0084569,2
23348,54.223,19.064,2.9769e-05,0.010339,1.6143e-08,23549,54.503,0,0,0,0,0.008489,2
23348,54.223,19.064,2.9769e-05,0.010339,1.6143e-08,23549,54.503,0,0,0,0,0.008489,2
23348,54.223,19.064,2.9769e-05,0.010339,1.6143e-08,23549,54.503,0,0,0,0,0.008489,2
23349,54.223,19.065,2.977e-05,0.010488,1.6377e-08,23549,54.503,0,0,0,0,0.0085214,2
23349,54.223,19.065,2.977e-05,0.010488,1.6377e-08,23549,54.503,0,0,0,0,0.0085214,2
23349,54.223,19.065,2.977e-05,0.010488,1.6377e-08,23549,54.503,0,0,0,0,0.0085214,2
23349,54.223,19.065,2.977e-05,0.010488,1.6377e-08,23549,54.503,0,0,0,0,0.0085214,2
23350,54.223,19.065,2.9771e-05,0.010637,1.6609e-08,23549,54.503,0,0,0,0,0.008554,2
23350,54.223,19.065,2.9771e-05,0.010637,1.6609e-08,23549,54.503,0,0,0,0,0.008554,2
23351,54.223,19.066,2.9771e-05,0.010786,1.6843e-08,23549,54.503,0,0,0,0,0.0085869,2
23351,54.223,19.066,2.9772e-05,0.010861,1.696e-08,23549,54.503,0,0,0,0,0.0086034,2
23351,54.223,19.066,2.9772e-05,0.010861,1.696e-08,23549,54.503,0,0,0,0,0.0086034,2
23351,54.223,19.066,2.9772e-05,0.010861,1.696e-08,23549,54.503,0,0,0,0,0.0086034,2
23351,54.223,19.066,2.9772e-05,0.010861,1.696e-08,23549,54.503,0,0,0,0,0.0086034,2
23351,54.223,19.066,2.9772e-05,0.010861,1.696e-08,23549,54.503,0,0,0,0,0.0086034,2
23351,54.223,19.066,2.9772e-05,0.010861,1.696e-08,23549,54.503,0,0,0,0,0.0086034,2
23351,54.223,19.066,2.9772e-05,0.010861,1.696e-08,23549,54.503,0,0,0,0,0.0086034,2
23351,54.223,19.066,2.9772e-05,0.010861,1.696e-08,23549,54.503,0,0,0,0,0.0086034,2
23352,54.223,19.066,2.9772e-05,0.011011,1.7193e-08,23549,54.503,0,0,0,0,0.0086366,2
23352,54.223,19.066,2.9772e-05,0.011011,1.7193e-08,23549,54.503,0,0,0,0,0.0086366,2
23352,54.223,19.066,2.9772e-05,0.011011,1.7193e-08,23549,54.503,0,0,0,0,0.0086366,2
23352,54.223,19.066,2.9772e-05,0.011011,1.7193e-08,23549,54.503,0,0,0,0,0.0086366,2
23352,54.223,19.066,2.9772e-05,0.011011,1.7193e-08,23549,54.503,0,0,0,0,0.0086366,2
23352,54.223,19.066,2.9772e-05,0.011011,1.7193e-08,23549,54.503,0,0,0,0,0.0086366,2
23352,54.223,19.066,2.9772e-05,0.011011,1.7193e-08,23549,54.503,0,0,0,0,0.0086366,2
23352,54.223,19.066,2.9772e-05,0.011011,1.7193e-08,23549,54.503,0,0,0,0,0.0086366,2
23352,54.223,19.066,2.9772e-05,0.011011,1.7193e-08,23549,54.503,0,0,0,0,0.0086366,2
23352,54.223,19.066,2.9772e-05,0.011011,1.7193e-08,23549,54.503,0,0,0,0,0.0086366,2
23352,54.223,19.066,2.9772e-05,0.011011,1.7193e-08,23549,54.503,0,0,0,0,0.0086366,2
23353,54.223,19.067,2.9774e-05,0.01131,1.7661e-08,23549,54.503,0,0,0,0,0.0087039,2
23353,54.223,19.067,2.9774e-05,0.01131,1.7661e-08,23549,54.503,0,0,0,0,0.0087039,2
23353,54.223,19.067,2.9774e-05,0.01131,1.7661e-08,23549,54.503,0,0,0,0,0.0087039,2
23355,54.223,19.068,2.9775e-05,0.01161,1.8129e-08,23549,54.503,0,0,0,0,0.0087722,2
23355,54.223,19.068,2.9775e-05,0.01161,1.8129e-08,23549,54.503,0,0,0,0,0.0087722,2
23355,54.223,19.068,2.9775e-05,0.01161,1.8129e-08,23549,54.503,0,0,0,0,0.0087722,2
23355,54.223,19.068,2.9775e-05,0.01161,1.8129e-08,23549,54.503,0,0,0,0,0.0087722,2
23355,54.223,19.068,2.9775e-05,0.01161,1.8129e-08,23549,54.503,0,0,0,0,0.0087722,2
23356,54.223,19.069,2.9776e-05,0.011835,1.848e-08,23549,54.503,0,0,0,0,0.0088241,2
23356,54.223,19.069,2.9776e-05,0.011835,1.848e-08,23549,54.503,0,0,0,0,0.0088241,2
23356,54.223,19.069,2.9777e-05,0.011909,1.8597e-08,23549,54.503,0,0,0,0,0.0088416,2
23356,54.223,19.069,2.9777e-05,0.011909,1.8597e-08,23549,54.503,0,0,0,0,0.0088416,2
23356,54.223,19.069,2.9777e-05,0.011909,1.8597e-08,23549,54.503,0,0,0,0,0.0088416,2
23357,54.223,19.069,2.9777e-05,0.011984,1.8714e-08,23549,54.503,0,0,0,0,0.0088591,2
23357,54.223,19.069,2.9777e-05,0.01206,1.8832e-08,23549,54.503,0,0,0,0,0.0088767,2
23357,54.223,19.07,2.9778e-05,0.012135,1.895e-08,23549,54.503,0,0,0,0,0.0088943,2
23357,54.223,19.07,2.9778e-05,0.012135,1.895e-08,23549,54.503,0,0,0,0,0.0088943,2
23357,54.223,19.07,2.9778e-05,0.012135,1.895e-08,23549,54.503,0,0,0,0,0.0088943,2
23357,54.223,19.07,2.9778e-05,0.012135,1.895e-08,23549,54.503,0,0,0,0,0.0088943,2
23357,54.223,19.07,2.9778e-05,0.012135,1.895e-08,23549,54.503,0,0,0,0,0.0088943,2
23358,54.223,19.07,2.9779e-05,0.012285,1.9184e-08,23549,54.503,0,0,0,0,0.0089299,2
23358,54.223,19.07,2.9779e-05,0.012285,1.9184e-08,23549,54.503,0,0,0,0,0.0089299,2
23358,54.223,19.07,2.9779e-05,0.012285,1.9184e-08,23549,54.503,0,0,0,0,0.0089299,2
23358,54.223,19.07,2.9779e-05,0.012285,1.9184e-08,23549,54.503,0,0,0,0,0.0089299,2
23358,54.223,19.07,2.9779e-05,0.012285,1.9184e-08,23549,54.503,0,0,0,0,0.0089299,2
23358,54.223,19.07,2.9779e-05,0.012285,1.9184e-08,23549,54.503,0,0,0,0,0.0089299,2
23358,54.223,19.07,2.9779e-05,0.012285,1.9184e-08,23549,54.503,0,0,0,0,0.0089299,2
23358,54.223,19.07,2.9779e-05,0.012285,1.9184e-08,23549,54.503,0,0,0,0,0.0089299,2
23359,54.223,19.07,2.9779e-05,0.012359,1.93e-08,23549,54.503,0,0,0,0,0.0089478,2
23359,54.223,19.07,2.9779e-05,0.012359,1.93e-08,23549,54.503,0,0,0,0,0.0089478,2
23359,54.223,19.071,2.978e-05,0.01251,1.9536e-08,23549,54.503,0,0,0,0,0.0089837,2
23359,54.223,19.071,2.978e-05,0.01251,1.9536e-08,23549,54.503,0,0,0,0,0.0089837,2
23359,54.223,19.071,2.978e-05,0.01251,1.9536e-08,23549,54.503,0,0,0,0,0.0089837,2
23360,54.223,19.072,2.9781e-05,0.012734,1.9886e-08,23549,54.503,0,0,0,0,0.0090382,2
23361,54.223,19.072,2.9781e-05,0.01281,2.0004e-08,23549,54.503,0,0,0,0,0.0090565,2
23361,54.223,19.072,2.9781e-05,0.01281,2.0004e-08,23549,54.503,0,0,0,0,0.0090565,2
23361,54.223,19.072,2.9782e-05,0.012885,2.0122e-08,23549,54.503,0,0,0,0,0.0090749,2
23361,54.223,19.072,2.9782e-05,0.012885,2.0122e-08,23549,54.503,0,0,0,0,0.0090749,2
23361,54.223,19.072,2.9782e-05,0.012885,2.0122e-08,23549,54.503,0,0,0,0,0.0090749,2
23361,54.223,19.072,2.9782e-05,0.012885,2.0122e-08,23549,54.503,0,0,0,0,0.0090749,2
23361,54.223,19.072,2.9782e-05,0.012885,2.0122e-08,23549,54.503,0,0,0,0,0.0090749,2
23361,54.223,19.072,2.9782e-05,0.012885,2.0122e-08,23549,54.503,0,0,0,0,0.0090749,2
23361,54.223,19.072,2.9782e-05,0.012885,2.0122e-08,23549,54.503,0,0,0,0,0.0090749,2
23361,54.223,19.072,2.9782e-05,0.012885,2.0122e-08,23549,54.503,0,0,0,0,0.0090749,2
23362,54.223,19.073,2.9782e-05,0.013035,2.0355e-08,23549,54.503,0,0,0,0,0.0091119,2
23362,54.223,19.073,2.9782e-05,0.013035,2.0355e-08,23549,54.503,0,0,0,0,0.0091119,2
23362,54.223,19.073,2.9782e-05,0.013035,2.0355e-08,23549,54.503,0,0,0,0,0.0091119,2
23363,54.223,19.073,2.9783e-05,0.013185,2.0589e-08,23549,54.503,0,0,0,0,0.0091492,2
23363,54.223,19.073,2.9783e-05,0.013185,2.0589e-08,23549,54.503,0,0,0,0,0.0091492,2
23363,54.223,19.073,2.9783e-05,0.013185,2.0589e-08,23549,54.503,0,0,0,0,0.0091492,2
23363,54.223,19.073,2.9783e-05,0.013185,2.0589e-08,23549,54.503,0,0,0,0,0.0091492,2
23363,54.223,19.073,2.9783e-05,0.013185,2.0589e-08,23549,54.503,0,0,0,0,0.0091492,2
23363,54.223,19.073,2.9783e-05,0.013185,2.0589e-08,23549,54.503,0,0,0,0,0.0091492,2
23363,54.223,19.073,2.9783e-05,0.013185,2.0589e-08,23549,54.503,0,0,0,0,0.0091492,2
23363,54.223,19.073,2.9783e-05,0.013185,2.0589e-08,23549,54.503,0,0,0,0,0.0091492,2
23363,54.223,19.073,2.9783e-05,0.013185,2.0589e-08,23549,54.503,0,0,0,0,0.0091492,2
23363,54.223,19.073,2.9783e-05,0.013185,2.0589e-08,23549,54.503,0,0,0,0,0.0091492,2
23363,54.223,19.073,2.9783e-05,0.013185,2.0589e-08,23549,54.503,0,0,0,0,0.0091492,2
23365,54.223,19.075,2.9785e-05,0.01356,2.1175e-08,23549,54.503,0,0,0,0,0.0092438,2
23365,54.223,19.075,2.9785e-05,0.01356,2.1175e-08,23549,54.503,0,0,0,0,0.0092438,2
23365,54.223,19.075,2.9785e-05,0.01356,2.1175e-08,23549,54.503,0,0,0,0,0.0092438,2
23365,54.223,19.075,2.9785e-05,0.01356,2.1175e-08,23549,54.503,0,0,0,0,0.0092438,2
23365,54.223,19.075,2.9785e-05,0.01356,2.1175e-08,23549,54.503,0,0,0,0,0.0092438,2
23366,54.223,19.075,2.9787e-05,0.013784,2.1525e-08,23549,54.503,0,0,0,0,0.0093015,2
23367,54.223,19.076,2.9788e-05,0.013935,2.1761e-08,23549,54.503,0,0,0,0,0.0093404,2
23367,54.223,19.076,2.9788e-05,0.013935,2.1761e-08,23549,54.503,0,0,0,0,0.0093404,2
23367,54.223,19.076,2.9788e-05,0.013935,2.1761e-08,23549,54.503,0,0,0,0,0.0093404,2
23367,54.223,19.076,2.9788e-05,0.013935,2.1761e-08,23549,54.503,0,0,0,0,0.0093404,2
23367,54.223,19.076,2.9788e-05,0.013935,2.1761e-08,23549,54.503,0,0,0,0,0.0093404,2
23367,54.223,19.076,2.9788e-05,0.013935,2.1761e-08,23549,54.503,0,0,0,0,0.0093404,2
23367,54.223,19.076,2.9788e-05,0.013935,2.1761e-08,23549,54.503,0,0,0,0,0.0093404,2
23367,54.223,19.076,2.9788e-05,0.013935,2.1761e-08,23549,54.503,0,0,0,0,0.0093404,2
23367,54.223,19.076,2.9788e-05,0.013935,2.1761e-08,23549,54.503,0,0,0,0,0.0093404,2
23367,54.223,19.076,2.9788e-05,0.013935,2.1761e-08,23549,54.503,0,0,0,0,0.0093404,2
23367,54.223,19.076,2.9788e-05,0.013935,2.1761e-08,23549,54.503,0,0,0,0,0.0093404,2
23368,54.223,19.077,2.9789e-05,0.014234,2.2228e-08,23549,54.503,0,0,0,0,0.0094192,2
23368,54.223,19.077,2.9789e-05,0.014234,2.2228e-08,23549,54.503,0,0,0,0,0.0094192,2
23368,54.223,19.077,2.9789e-05,0.014234,2.2228e-08,23549,54.503,0,0,0,0,0.0094192,2
23369,54.223,19.077,2.979e-05,0.014309,2.2345e-08,23549,54.503,0,0,0,0,0.0094391,2
23369,54.223,19.077,2.979e-05,0.014309,2.2345e-08,23549,54.503,0,0,0,0,0.0094391,2
23369,54.223,19.078,2.979e-05,0.014384,2.2461e-08,23549,54.503,0,0,0,0,0.009459,2
23369,54.223,19.078,2.979e-05,0.014384,2.2461e-08,23549,54.503,0,0,0,0,0.009459,2
23369,54.223,19.078,2.9791e-05,0.014458,2.2578e-08,23549,54.503,0,0,0,0,0.0094791,2
23369,54.223,19.078,2.9791e-05,0.014458,2.2578e-08,23549,54.503,0,0,0,0,0.0094791,2
23370,54.223,19.079,2.9792e-05,0.014609,2.2813e-08,23549,54.503,0,0,0,0,0.0095195,2
23371,54.223,19.079,2.9792e-05,0.014758,2.3046e-08,23549,54.503,0,0,0,0,0.0095602,2
23371,54.223,19.079,2.9792e-05,0.014758,2.3046e-08,23549,54.503,0,0,0,0,0.0095602,2
23371,54.223,19.079,2.9792e-05,0.014758,2.3046e-08,23549,54.503,0,0,0,0,0.0095602,2
23371,54.223,19.079,2.9793e-05,0.014832,2.3162e-08,23549,54.503,0,0,0,0,0.0095807,2
23371,54.223,19.079,2.9793e-05,0.014832,2.3162e-08,23549,54.503,0,0,0,0,0.0095807,2
23372,54.223,19.08,2.9793e-05,0.014908,2.3279e-08,23549,54.503,0,0,0,0,0.0096013,2
23372,54.223,19.08,2.9793e-05,0.014908,2.3279e-08,23549,54.503,0,0,0,0,0.0096013,2
23372,54.223,19.08,2.9793e-05,0.014908,2.3279e-08,23549,54.503,0,0,0,0,0.0096013,2
23372,54.223,19.08,2.9793e-05,0.014908,2.3279e-08,23549,54.503,0,0,0,0,0.0096013,2
23372,54.223,19.08,2.9793e-05,0.014908,2.3279e-08,23549,54.503,0,0,0,0,0.0096013,2
23372,54.223,19.08,2.9793e-05,0.014908,2.3279e-08,23549,54.503,0,0,0,0,0.0096013,2
23372,54.223,19.08,2.9793e-05,0.014908,2.3279e-08,23549,54.503,0,0,0,0,0.0096013,2
23372,54.223,19.08,2.9793e-05,0.014908,2.3279e-08,23549,54.503,0,0,0,0,0.0096013,2
23372,54.223,19.08,2.9793e-05,0.014908,2.3279e-08,23549,54.503,0,0,0,0,0.0096013,2
23372,54.223,19.08,2.9793e-05,0.014908,2.3279e-08,23549,54.503,0,0,0,0,0.0096013,2
23372,54.223,19.08,2.9794e-05,0.015057,2.3513e-08,23549,54.503,0,0,0,0,0.0096428,2
23372,54.223,19.08,2.9794e-05,0.015057,2.3513e-08,23549,54.503,0,0,0,0,0.0096428,2
23372,54.223,19.08,2.9794e-05,0.015057,2.3513e-08,23549,54.503,0,0,0,0,0.0096428,2
23372,54.223,19.08,2.9794e-05,0.015057,2.3513e-08,23549,54.503,0,0,0,0,0.0096428,2
23372,54.223,19.08,2.9794e-05,0.015057,2.3513e-08,23549,54.503,0,0,0,0,0.0096428,2
23373,54.223,19.081,2.9795e-05,0.015132,2.3629e-08,23549,54.503,0,0,0,0,0.0096636,2
23373,54.223,19.081,2.9795e-05,0.015132,2.3629e-08,23549,54.503,0,0,0,0,0.0096636,2
23374,54.223,19.082,2.9796e-05,0.015357,2.398e-08,23549,54.503,0,0,0,0,0.0097267,2
23374,54.223,19.082,2.9796e-05,0.015357,2.398e-08,23549,54.503,0,0,0,0,0.0097267,2
23374,54.223,19.082,2.9796e-05,0.015357,2.398e-08,23549,54.503,0,0,0,0,0.0097267,2
23374,54.223,19.082,2.9796e-05,0.015357,2.398e-08,23549,54.503,0,0,0,0,0.0097267,2
23374,54.223,19.082,2.9796e-05,0.015357,2.398e-08,23549,54.503,0,0,0,0,0.0097267,2
23374,54.223,19.082,2.9796e-05,0.015357,2.398e-08,23549,54.503,0,0,0,0,0.0097267,2
23374,54.223,19.082,2.9796e-05,0.015357,2.398e-08,23549,54.503,0,0,0,0,0.0097267,2
23376,54.223,19.083,2.9799e-05,0.015804,2.4678e-08,23549,54.503,0,0,0,0,0.0098555,2
23376,54.223,19.083,2.9799e-05,0.015804,2.4678e-08,23549,54.503,0,0,0,0,0.0098555,2
23376,54.223,19.083,2.9799e-05,0.015804,2.4678e-08,23549,54.503,0,0,0,0,0.0098555,2
23376,54.223,19.083,2.9799e-05,0.015804,2.4678e-08,23549,54.503,0,0,0,0,0.0098555,2
23377,54.223,19.084,2.98e-05,0.015878,2.4794e-08,23549,54.503,0,0,0,0,0.0098773,2
23377,54.223,19.084,2.98e-05,0.015878,2.4794e-08,23549,54.503,0,0,0,0,0.0098773,2
23377,54.223,19.084,2.98e-05,0.015878,2.4794e-08,23549,54.503,0,0,0,0,0.0098773,2
23377,54.223,19.084,2.98e-05,0.015878,2.4794e-08,23549,54.503,0,0,0,0,0.0098773,2
23377,54.223,19.084,2.98e-05,0.015878,2.4794e-08,23549,54.503,0,0,0,0,0.0098773,2
23377,54.223,19.084,2.98e-05,0.015878,2.4794e-08,23549,54.503,0,0,0,0,0.0098773,2
23377,54.223,19.084,2.98e-05,0.015878,2.4794e-08,23549,54.503,0,0,0,0,0.0098773,2
23377,54.223,19.084,2.98e-05,0.015878,2.4794e-08,23549,54.503,0,0,0,0,0.0098773,2
23377,54.223,19.084,2.98e-05,0.015878,2.4794e-08,23549,54.503,0,0,0,0,0.0098773,2
23377,54.223,19.084,2.98e-05,0.015878,2.4794e-08,23549,54.503,0,0,0,0,0.0098773,2
23377,54.223,19.084,2.98e-05,0.015878,2.4794e-08,23549,54.503,0,0,0,0,0.0098773,2
23379,54.223,19.086,2.9803e-05,0.016325,2.5492e-08,23549,54.503,0,0,0,0,0.01001,2
23380,54.223,19.086,2.9804e-05,0.016473,2.5723e-08,23549,54.503,0,0,0,0,0.010055,2
23380,54.223,19.086,2.9804e-05,0.016473,2.5723e-08,23549,54.503,0,0,0,0,0.010055,2
23380,54.223,19.086,2.9804e-05,0.016473,2.5723e-08,23549,54.503,0,0,0,0,0.010055,2
23380,54.223,19.086,2.9804e-05,0.016473,2.5723e-08,23549,54.503,0,0,0,0,0.010055,2
23380,54.223,19.086,2.9804e-05,0.016473,2.5723e-08,23549,54.503,0,0,0,0,0.010055,2
23380,54.223,19.086,2.9804e-05,0.016473,2.5723e-08,23549,54.503,0,0,0,0,0.010055,2
23380,54.223,19.086,2.9804e-05,0.016473,2.5723e-08,23549,54.503,0,0,0,0,0.010055,2
23380,54.223,19.086,2.9804e-05,0.016473,2.5723e-08,23549,54.503,0,0,0,0,0.010055,2
23380,54.223,19.086,2.9804e-05,0.016473,2.5723e-08,23549,54.503,0,0,0,0,0.010055,2
23380,54.223,19.086,2.9804e-05,0.016473,2.5723e-08,23549,54.503,0,0,0,0,0.010055,2
23380,54.223,19.086,2.9804e-05,0.016473,2.5723e-08,23549,54.503,0,0,0,0,0.010055,2
23380,54.223,19.087,2.9805e-05,0.016622,2.5955e-08,23549,54.503,0,0,0,0,0.010101,2
23380,54.223,19.087,2.9805e-05,0.016622,2.5955e-08,23549,54.503,0,0,0,0,0.010101,2
23380,54.223,19.087,2.9805e-05,0.016622,2.5955e-08,23549,54.503,0,0,0,0,0.010101,2
23380,54.223,19.087,2.9805e-05,0.016622,2.5955e-08,23549,54.503,0,0,0,0,0.010101,2
23380,54.223,19.087,2.9805e-05,0.016622,2.5955e-08,23549,54.503,0,0,0,0,0.010101,2
23380,54.223,19.087,2.9805e-05,0.016622,2.5955e-08,23549,54.503,0,0,0,0,0.010101,2
23380,54.223,19.087,2.9805e-05,0.016622,2.5955e-08,23549,54.503,0,0,0,0,0.010101,2
23380,54.223,19.087,2.9805e-05,0.016622,2.5955e-08,23549,54.503,0,0,0,0,0.010101,2
23380,54.223,19.087,2.9805e-05,0.016622,2.5955e-08,23549,54.503,0,0,0,0,0.010101,2
23380,54.223,19.087,2.9805e-05,0.016622,2.5955e-08,23549,54.503,0,0,0,0,0.010101,2
23380,54.223,19.087,2.9805e-05,0.016622,2.5955e-08,23549,54.503,0,0,0,0,0.010101,2
23382,54.223,19.089,2.9807e-05,0.016993,2.6534e-08,23549,54.503,0,0,0,0,0.010216,2
23383,54.223,19.09,2.9809e-05,0.017214,2.6879e-08,23549,54.503,0,0,0,0,0.010287,2
23383,54.223,19.09,2.9809e-05,0.017214,2.6879e-08,23549,54.503,0,0,0,0,0.010287,2
23383,54.223,19.09,2.9809e-05,0.017214,2.6879e-08,23549,54.503,0,0,0,0,0.010287,2
23385,54.223,19.091,2.9811e-05,0.017436,2.7226e-08,23549,54.503,0,0,0,0,0.010358,2
23385,54.223,19.091,2.9811e-05,0.017436,2.7226e-08,23549,54.503,0,0,0,0,0.010358,2
23385,54.223,19.091,2.9811e-05,0.017436,2.7226e-08,23549,54.503,0,0,0,0,0.010358,2
23385,54.223,19.091,2.9811e-05,0.017436,2.7226e-08,23549,54.503,0,0,0,0,0.010358,2
23385,54.223,19.091,2.9811e-05,0.017436,2.7226e-08,23549,54.503,0,0,0,0,0.010358,2
23385,54.223,19.091,2.9811e-05,0.017436,2.7226e-08,23549,54.503,0,0,0,0,0.010358,2
23385,54.223,19.091,2.9811e-05,0.017436,2.7226e-08,23549,54.503,0,0,0,0,0.010358,2
23385,54.223,19.091,2.9811e-05,0.017436,2.7226e-08,23549,54.503,0,0,0,0,0.010358,2
23385,54.223,19.091,2.9811e-05,0.017436,2.7226e-08,23549,54.503,0,0,0,0,0.010358,2
23385,54.223,19.091,2.9811e-05,0.017436,2.7226e-08,23549,54.503,0,0,0,0,0.010358,2
23385,54.223,19.091,2.9811e-05,0.017436,2.7226e-08,23549,54.503,0,0,0,0,0.010358,2
23385,54.223,19.091,2.9811e-05,0.017436,2.7226e-08,23549,54.503,0,0,0,0,0.010358,2
23385,54.223,19.091,2.9811e-05,0.017436,2.7226e-08,23549,54.503,0,0,0,0,0.010358,2
23385,54.223,19.091,2.9811e-05,0.017436,2.7226e-08,23549,54.503,0,0,0,0,0.010358,2
23385,54.223,19.091,2.9811e-05,0.017436,2.7226e-08,23549,54.503,0,0,0,0,0.010358,2
23385,54.223,19.091,2.9811e-05,0.017436,2.7226e-08,23549,54.503,0,0,0,0,0.010358,2
23385,54.223,19.091,2.9811e-05,0.017436,2.7226e-08,23549,54.503,0,0,0,0,0.010358,2
23386,54.223,19.092,2.9813e-05,0.017805,2.7801e-08,23549,54.503,0,0,0,0,0.01048,2
23386,54.223,19.092,2.9813e-05,0.017805,2.7801e-08,23549,54.503,0,0,0,0,0.01048,2
23386,54.223,19.092,2.9813e-05,0.017805,2.7801e-08,23549,54.503,0,0,0,0,0.01048,2
23388,54.223,19.094,2.9816e-05,0.018098,2.826e-08,23549,54.503,0,0,0,0,0.010579,2
23388,54.223,19.094,2.9816e-05,0.018098,2.826e-08,23549,54.503,0,0,0,0,0.010579,2
23388,54.223,19.094,2.9816e-05,0.018098,2.826e-08,23549,54.503,0,0,0,0,0.010579,2
23388,54.223,19.094,2.9816e-05,0.018098,2.826e-08,23549,54.503,0,0,0,0,0.010579,2
23388,54.223,19.094,2.9816e-05,0.018098,2.826e-08,23549,54.503,0,0,0,0,0.010579,2
23388,54.223,19.094,2.9816e-05,0.018098,2.826e-08,23549,54.503,0,0,0,0,0.010579,2
23388,54.223,19.094,2.9816e-05,0.018098,2.826e-08,23549,54.503,0,0,0,0,0.010579,2
23388,54.223,19.094,2.9816e-05,0.018098,2.826e-08,23549,54.503,0,0,0,0,0.010579,2
23388,54.223,19.094,2.9816e-05,0.018098,2.826e-08,23549,54.503,0,0,0,0,0.010579,2
23390,54.223,19.095,2.9818e-05,0.018392,2.8718e-08,23549,54.503,0,0,0,0,0.01068,2
23390,54.223,19.095,2.9818e-05,0.018392,2.8718e-08,23549,54.503,0,0,0,0,0.01068,2
23390,54.223,19.095,2.9818e-05,0.018392,2.8718e-08,23549,54.503,0,0,0,0,0.01068,2
23390,54.223,19.095,2.9818e-05,0.018392,2.8718e-08,23549,54.503,0,0,0,0,0.01068,2
23390,54.223,19.095,2.9818e-05,0.018392,2.8718e-08,23549,54.503,0,0,0,0,0.01068,2
23390,54.223,19.095,2.9818e-05,0.018392,2.8718e-08,23549,54.503,0,0,0,0,0.01068,2
23390,54.223,19.095,2.9818e-05,0.018392,2.8718e-08,23549,54.503,0,0,0,0,0.01068,2
23390,54.223,19.096,2.9818e-05,0.018465,2.8832e-08,23549,54.503,0,0,0,0,0.010706,2
23390,54.223,19.096,2.9818e-05,0.018465,2.8832e-08,23549,54.503,0,0,0,0,0.010706,2
23390,54.223,19.096,2.9818e-05,0.018465,2.8832e-08,23549,54.503,0,0,0,0,0.010706,2
23390,54.223,19.096,2.9818e-05,0.018465,2.8832e-08,23549,54.503,0,0,0,0,0.010706,2
23390,54.223,19.096,2.9818e-05,0.018465,2.8832e-08,23549,54.503,0,0,0,0,0.010706,2
23390,54.223,19.096,2.9818e-05,0.018465,2.8832e-08,23549,54.503,0,0,0,0,0.010706,2
23391,54.223,19.097,2.982e-05,0.018685,2.9176e-08,23549,54.503,0,0,0,0,0.010784,2
23392,54.223,19.098,2.9822e-05,0.018904,2.9518e-08,23549,54.503,0,0,0,0,0.010862,2
23392,54.223,19.098,2.9822e-05,0.018904,2.9518e-08,23549,54.503,0,0,0,0,0.010862,2
23393,54.223,19.098,2.9823e-05,0.018977,2.9632e-08,23549,54.503,0,0,0,0,0.010889,2
23393,54.223,19.099,2.9824e-05,0.019122,2.9858e-08,23549,54.503,0,0,0,0,0.010942,2
23393,54.223,19.099,2.9824e-05,0.019122,2.9858e-08,23549,54.503,0,0,0,0,0.010942,2
23393,54.223,19.099,2.9824e-05,0.019122,2.9858e-08,23549,54.503,0,0,0,0,0.010942,2
23393,54.223,19.099,2.9824e-05,0.019122,2.9858e-08,23549,54.503,0,0,0,0,0.010942,2
23393,54.223,19.099,2.9824e-05,0.019122,2.9858e-08,23549,54.503,0,0,0,0,0.010942,2
23393,54.223,19.099,2.9824e-05,0.019122,2.9858e-08,23549,54.503,0,0,0,0,0.010942,2
23393,54.223,19.099,2.9824e-05,0.019122,2.9858e-08,23549,54.503,0,0,0,0,0.010942,2
23393,54.223,19.099,2.9824e-05,0.019122,2.9858e-08,23549,54.503,0,0,0,0,0.010942,2
23393,54.223,19.099,2.9824e-05,0.019122,2.9858e-08,23549,54.503,0,0,0,0,0.010942,2
23393,54.223,19.099,2.9824e-05,0.019122,2.9858e-08,23549,54.503,0,0,0,0,0.010942,2
23393,54.223,19.099,2.9824e-05,0.019122,2.9858e-08,23549,54.503,0,0,0,0,0.010942,2
23393,54.223,19.099,2.9824e-05,0.019122,2.9858e-08,23549,54.503,0,0,0,0,0.010942,2
23393,54.223,19.099,2.9824e-05,0.019122,2.9858e-08,23549,54.503,0,0,0,0,0.010942,2
23393,54.223,19.099,2.9824e-05,0.019122,2.9858e-08,23549,54.503,0,0,0,0,0.010942,2
23393,54.223,19.099,2.9824e-05,0.019122,2.9858e-08,23549,54.503,0,0,0,0,0.010942,2
23393,54.223,19.099,2.9824e-05,0.019122,2.9858e-08,23549,54.503,0,0,0,0,0.010942,2
23393,54.223,19.099,2.9824e-05,0.019122,2.9858e-08,23549,54.503,0,0,0,0,0.010942,2
23393,54.223,19.099,2.9824e-05,0.019122,2.9858e-08,23549,54.503,0,0,0,0,0.010942,2
23393,54.223,19.099,2.9824e-05,0.019122,2.9858e-08,23549,54.503,0,0,0,0,0.010942,2
23395,54.223,19.101,2.9827e-05,0.019486,3.0427e-08,23549,54.503,0,0,0,0,0.011078,2
23395,54.223,19.101,2.9827e-05,0.019486,3.0427e-08,23549,54.503,0,0,0,0,0.011078,2
23396,54.223,19.102,2.9829e-05,0.019704,3.0766e-08,23549,54.503,0,0,0,0,0.011161,2
23397,54.223,19.103,2.9829e-05,0.019777,3.088e-08,23549,54.503,0,0,0,0,0.011189,2
23397,54.223,19.103,2.9829e-05,0.019777,3.088e-08,23549,54.503,0,0,0,0,0.011189,2
23397,54.223,19.103,2.9829e-05,0.019777,3.088e-08,23549,54.503,0,0,0,0,0.011189,2
23397,54.223,19.103,2.9829e-05,0.019777,3.088e-08,23549,54.503,0,0,0,0,0.011189,2
23397,54.223,19.103,2.9829e-05,0.019777,3.088e-08,23549,54.503,0,0,0,0,0.011189,2
23397,54.223,19.103,2.9829e-05,0.019777,3.088e-08,23549,54.503,0,0,0,0,0.011189,2
23397,54.223,19.103,2.9829e-05,0.019777,3.088e-08,23549,54.503,0,0,0,0,0.011189,2
23397,54.223,19.103,2.9829e-05,0.019777,3.088e-08,23549,54.503,0,0,0,0,0.011189,2
23397,54.223,19.103,2.9829e-05,0.019777,3.088e-08,23549,54.503,0,0,0,0,0.011189,2
23397,54.223,19.103,2.9829e-05,0.019777,3.088e-08,23549,54.503,0,0,0,0,0.011189,2
23397,54.223,19.103,2.9829e-05,0.019777,3.088e-08,23549,54.503,0,0,0,0,0.011189,2
23397,54.223,19.103,2.9829e-05,0.019777,3.088e-08,23549,54.503,0,0,0,0,0.011189,2
23397,54.223,19.103,2.9829e-05,0.019777,3.088e-08,23549,54.503,0,0,0,0,0.011189,2
23397,54.223,19.103,2.9829e-05,0.019777,3.088e-08,23549,54.503,0,0,0,0,0.011189,2
23397,54.223,19.103,2.9829e-05,0.019777,3.088e-08,23549,54.503,0,0,0,0,0.011189,2
23397,54.223,19.103,2.9829e-05,0.019777,3.088e-08,23549,54.503,0,0,0,0,0.011189,2
23399,54.223,19.105,2.9832e-05,0.020137,3.1444e-08,23549,54.503,0,0,0,0,0.011331,2
23399,54.223,19.105,2.9832e-05,0.020137,3.1444e-08,23549,54.503,0,0,0,0,0.011331,2
23399,54.223,19.105,2.9834e-05,0.020281,3.1669e-08,23549,54.503,0,0,0,0,0.011389,2
23399,54.223,19.105,2.9834e-05,0.020281,3.1669e-08,23549,54.503,0,0,0,0,0.011389,2
23399,54.223,19.105,2.9834e-05,0.020281,3.1669e-08,23549,54.503,0,0,0,0,0.011389,2
23401,54.223,19.107,2.9835e-05,0.020497,3.2006e-08,23549,54.503,0,0,0,0,0.011477,2
23401,54.223,19.107,2.9835e-05,0.020497,3.2006e-08,23549,54.503,0,0,0,0,0.011477,2
23401,54.223,19.107,2.9835e-05,0.020497,3.2006e-08,23549,54.503,0,0,0,0,0.011477,2
23401,54.223,19.107,2.9835e-05,0.020497,3.2006e-08,23549,54.503,0,0,0,0,0.011477,2
23401,54.223,19.107,2.9835e-05,0.020497,3.2006e-08,23549,54.503,0,0,0,0,0.011477,2
23401,54.223,19.107,2.9835e-05,0.020497,3.2006e-08,23549,54.503,0,0,0,0,0.011477,2
23401,54.223,19.107,2.9835e-05,0.020497,3.2006e-08,23549,54.503,0,0,0,0,0.011477,2
23401,54.223,19.107,2.9835e-05,0.020497,3.2006e-08,23549,54.503,0,0,0,0,0.011477,2
23401,54.223,19.107,2.9835e-05,0.020497,3.2006e-08,23549,54.503,0,0,0,0,0.011477,2
23401,54.223,19.107,2.9835e-05,0.020497,3.2006e-08,23549,54.503,0,0,0,0,0.011477,2
23401,54.223,19.107,2.9835e-05,0.020497,3.2006e-08,23549,54.503,0,0,0,0,0.011477,2
23401,54.223,19.107,2.9835e-05,0.020497,3.2006e-08,23549,54.503,0,0,0,0,0.011477,2
23401,54.223,19.107,2.9835e-05,0.020497,3.2006e-08,23549,54.503,0,0,0,0,0.011477,2
23401,54.223,19.107,2.9835e-05,0.020497,3.2006e-08,23549,54.503,0,0,0,0,0.011477,2
23404,54.223,19.11,2.9841e-05,0.021069,3.29e-08,23549,54.503,0,0,0,0,0.011718,2
23404,54.223,19.11,2.9841e-05,0.021069,3.29e-08,23549,54.503,0,0,0,0,0.011718,2
23404,54.223,19.11,2.9841e-05,0.021069,3.29e-08,23549,54.503,0,0,0,0,0.011718,2
23404,54.223,19.11,2.9841e-05,0.021069,3.29e-08,23549,54.503,0,0,0,0,0.011718,2
23404,54.223,19.11,2.9841e-05,0.021069,3.29e-08,23549,54.503,0,0,0,0,0.011718,2
23404,54.223,19.111,2.9842e-05,0.021211,3.3122e-08,23549,54.503,0,0,0,0,0.01178,2
23405,54.223,19.111,2.9843e-05,0.021283,3.3234e-08,23549,54.503,0,0,0,0,0.011811,2
23405,54.223,19.111,2.9843e-05,0.021283,3.3234e-08,23549,54.503,0,0,0,0,0.011811,2
23405,54.223,19.111,2.9843e-05,0.021283,3.3234e-08,23549,54.503,0,0,0,0,0.011811,2
23405,54.223,19.111,2.9843e-05,0.021283,3.3234e-08,23549,54.503,0,0,0,0,0.011811,2
23405,54.223,19.111,2.9843e-05,0.021283,3.3234e-08,23549,54.503,0,0,0,0,0.011811,2
23405,54.223,19.111,2.9843e-05,0.021283,3.3234e-08,23549,54.503,0,0,0,0,0.011811,2
23405,54.223,19.111,2.9843e-05,0.021283,3.3234e-08,23549,54.503,0,0,0,0,0.011811,2
23405,54.223,19.111,2.9843e-05,0.021283,3.3234e-08,23549,54.503,0,0,0,0,0.011811,2
23405,54.223,19.112,2.9843e-05,0.021354,3.3345e-08,23549,54.503,0,0,0,0,0.011842,2
23405,54.223,19.112,2.9843e-05,0.021354,3.3345e-08,23549,54.503,0,0,0,0,0.011842,2
23405,54.223,19.112,2.9843e-05,0.021354,3.3345e-08,23549,54.503,0,0,0,0,0.011842,2
23405,54.223,19.112,2.9843e-05,0.021354,3.3345e-08,23549,54.503,0,0,0,0,0.011842,2
23405,54.223,19.112,2.9843e-05,0.021354,3.3345e-08,23549,54.503,0,0,0,0,0.011842,2
23405,54.223,19.112,2.9843e-05,0.021354,3.3345e-08,23549,54.503,0,0,0,0,0.011842,2
23405,54.223,19.112,2.9843e-05,0.021354,3.3345e-08,23549,54.503,0,0,0,0,0.011842,2
23405,54.223,19.112,2.9843e-05,0.021354,3.3345e-08,23549,54.503,0,0,0,0,0.011842,2
23405,54.223,19.112,2.9843e-05,0.021354,3.3345e-08,23549,54.503,0,0,0,0,0.011842,2
23406,54.223,19.113,2.9845e-05,0.021567,3.3678e-08,23549,54.503,0,0,0,0,0.011938,2
23406,54.223,19.113,2.9845e-05,0.021567,3.3678e-08,23549,54.503,0,0,0,0,0.011938,2
23407,54.223,19.114,2.9847e-05,0.021779,3.4009e-08,23549,54.503,0,0,0,0,0.012034,2
23408,54.223,19.115,2.9848e-05,0.02185,3.412e-08,23549,54.503,0,0,0,0,0.012067,2
23408,54.223,19.115,2.9848e-05,0.02185,3.412e-08,23549,54.503,0,0,0,0,0.012067,2
23408,54.223,19.115,2.9848e-05,0.02185,3.412e-08,23549,54.503,0,0,0,0,0.012067,2
23408,54.223,19.115,2.9848e-05,0.02185,3.412e-08,23549,54.503,0.44,-0.00078461,4,-0.01946,0.012333,2
23409,54.223,19.116,2.9851e-05,0.022133,3.4563e-08,23549,54.503,0.44,-0.00078461,4,-0.01946,0.012468,2
23409,54.223,19.116,2.9851e-05,0.022133,3.4563e-08,23549,54.503,0.44,-0.00078461,4,-0.01946,0.012468,2
23409,54.223,19.116,2.9851e-05,0.022133,3.4563e-08,23549,54.503,0.44,-0.00078461,4,-0.01946,0.012468,2
23409,54.223,19.116,2.9851e-05,0.022133,3.4563e-08,23549,54.503,0.75999,-0.0042969,3.9997,-0.061866,0.012665,2
23409,54.223,19.116,2.9851e-05,0.022133,3.4563e-08,23549,54.503,0.75999,-0.0042969,3.9997,-0.061866,0.012665,2
23409,54.223,19.116,2.9851e-05,0.022133,3.4563e-08,23549,54.503,0.75999,-0.0042969,3.9997,-0.061866,0.012665,2
23409,54.223,19.116,2.9851e-05,0.022133,3.4563e-08,23549,54.503,0.75999,-0.0042969,3.9997,-0.061866,0.012665,2
23409,54.223,19.116,2.9851e-05,0.022133,3.4563e-08,23549,54.503,0.75999,-0.0042969,3.9997,-0.061866,0.012665,2
23409,54.223,19.116,2.9851e-05,0.022133,3.4563e-08,23549,54.503,0.75999,-0.0042969,3.9997,-0.061866,0.012665,2
23409,54.223,19.116,2.9851e-05,0.022133,3.4563e-08,23549,54.503,0.75999,-0.0042969,3.9997,-0.061866,0.012665,2
23409,54.223,19.116,2.9851e-05,0.022133,3.4563e-08,23549,54.502,0.83998,-0.0057644,3.9996,-0.074836,0.012714,2
23409,54.223,19.116,2.9851e-05,0.022133,3.4563e-08,23549,54.502,0.91997,-0.0075054,3.9994,-0.088651,0.012763,2
23409,54.223,19.116,2.9851e-05,0.022133,3.4563e-08,23549,54.502,0.91997,-0.0075054,3.9994,-0.088651,0.012763,2
23409,54.223,19.116,2.9851e-05,0.022133,3.4563e-08,23549,54.502,0.99995,-0.0095344,3.9992,-0.1032,0.012813,2
23411,54.223,19.119,2.9854e-05,0.022486,3.5113e-08,23549,54.502,0.99995,-0.0095344,3.9992,-0.1032,0.01299,2
23411,54.223,19.119,2.9854e-05,0.022486,3.5113e-08,23549,54.502,1.1599,-0.014502,3.9987,-0.13398,0.013091,2
23412,54.223,19.12,2.9856e-05,0.022696,3.5442e-08,23549,54.502,1.1599,-0.014502,3.9987,-0.13398,0.0132,2
23412,54.223,19.12,2.9856e-05,0.022696,3.5442e-08,23549,54.5,1.3998,-0.024332,3.9975,-0.18245,0.013352,2
23412,54.223,19.12,2.9856e-05,0.022696,3.5442e-08,23549,54.5,1.3998,-0.024332,3.9975,-0.18245,0.013352,2
23412,54.223,19.12,2.9856e-05,0.022696,3.5442e-08,23549,54.5,1.3998,-0.024332,3.9975,-0.18245,0.013352,2
23412,54.223,19.12,2.9856e-05,0.022696,3.5442e-08,23549,54.5,1.4797,-0.028252,3.997,-0.19869,0.013403,2
23412,54.223,19.12,2.9856e-05,0.022696,3.5442e-08,23549,54.5,1.4797,-0.028252,3.997,-0.19869,0.013403,2
23412,54.223,19.12,2.9856e-05,0.022696,3.5442e-08,23549,54.499,1.5597,-0.032489,3.9965,-0.21474,0.013453,2
23412,54.223,19.12,2.9856e-05,0.022696,3.5442e-08,23549,54.499,1.5597,-0.032489,3.9965,-0.21474,0.013453,2
23412,54.223,19.12,2.9856e-05,0.022696,3.5442e-08,23549,54.499,1.5597,-0.032489,3.9965,-0.21474,0.013453,2
23412,54.223,19.12,2.9856e-05,0.022696,3.5442e-08,23549,54.499,1.5597,-0.032489,3.9965,-0.21474,0.013453,2
23412,54.223,19.12,2.9856e-05,0.022696,3.5442e-08,23549,54.499,1.5597,-0.032489,3.9965,-0.21474,0.013453,2
23414,54.223,19.122,2.9859e-05,0.022976,3.5879e-08,23549,54.499,1.5597,-0.032489,3.9965,-0.21474,0.013605,2
23414,54.223,19.122,2.9859e-05,0.022976,3.5879e-08,23549,54.499,1.5597,-0.032489,3.9965,-0.21474,0.013605,2
23414,54.223,19.122,2.986e-05,0.023045,3.5987e-08,23549,54.499,1.5597,-0.032489,3.9965,-0.21474,0.013644,2
23415,54.223,19.123,2.9861e-05,0.023115,3.6095e-08,23549,54.499,1.5597,-0.032489,3.9965,-0.21474,0.013682,2
23415,54.223,19.123,2.9861e-05,0.023115,3.6095e-08,23549,54.499,1.5597,-0.032489,3.9965,-0.21474,0.013682,2
23415,54.223,19.123,2.9861e-05,0.023115,3.6095e-08,23549,54.499,1.5597,-0.032489,3.9965,-0.21474,0.013682,2
23415,54.223,19.123,2.9861e-05,0.023115,3.6095e-08,23549,54.499,1.5597,-0.032489,3.9965,-0.21474,0.013682,2
23416,54.223,19.124,2.9863e-05,0.023323,3.6421e-08,23550,54.496,1.8793,-0.052451,3.994,-0.27452,0.014008,2
23416,54.223,19.124,2.9863e-05,0.023323,3.6421e-08,23550,54.496,1.8793,-0.052451,3.994,-0.27452,0.014008,2
23416,54.223,19.124,2.9863e-05,0.023323,3.6421e-08,23550,54.492,2.1188,-0.070206,3.992,-0.31143,0.014164,2
23416,54.223,19.124,2.9863e-05,0.023323,3.6421e-08,23550,54.492,2.1188,-0.070206,3.992,-0.31143,0.014164,2
23416,54.223,19.124,2.9863e-05,0.023323,3.6421e-08,23550,54.492,2.1188,-0.070206,3.992,-0.31143,0.014164,2
23416,54.223,19.124,2.9863e-05,0.023323,3.6421e-08,23550,54.492,2.1188,-0.070206,3.992,-0.31143,0.014164,2
23416,54.223,19.124,2.9863e-05,0.023323,3.6421e-08,23550,54.492,2.1188,-0.070206,3.992,-0.31143,0.014164,2
23416,54.223,19.124,2.9863e-05,0.023323,3.6421e-08,23550,54.492,2.1188,-0.070206,3.992,-0.31143,0.014164,2
23416,54.223,19.124,2.9863e-05,0.023323,3.6421e-08,23550,54.492,2.1188,-0.070206,3.992,-0.31143,0.014164,2
23416,54.223,19.124,2.9863e-05,0.023323,3.6421e-08,23550,54.492,2.1188,-0.070206,3.992,-0.31143,0.014164,2
23417,54.223,19.125,2.9864e-05,0.023463,3.6639e-08,23550,54.492,2.1188,-0.070206,3.992,-0.31143,0.014245,2
23417,54.223,19.125,2.9864e-05,0.023463,3.6639e-08,23550,54.492,2.1188,-0.070206,3.992,-0.31143,0.014245,2
23417,54.223,19.125,2.9864e-05,0.023463,3.6639e-08,23550,54.489,2.2785,-0.083085,3.9908,-0.33075,0.01435,2
23417,54.223,19.125,2.9864e-05,0.023463,3.6639e-08,23550,54.487,2.3583,-0.089769,3.9902,-0.3386,0.014402,2
23418,54.223,19.127,2.9867e-05,0.02367,3.6963e-08,23550,54.487,2.3583,-0.089769,3.9902,-0.3386,0.014528,2
23418,54.223,19.127,2.9867e-05,0.02367,3.6963e-08,23550,54.481,2.5977,-0.11048,3.9887,-0.35417,0.014686,2
23419,54.223,19.128,2.9869e-05,0.023877,3.7286e-08,23550,54.481,2.5977,-0.11048,3.9887,-0.35417,0.014815,2
23419,54.223,19.128,2.9869e-05,0.023877,3.7286e-08,23550,54.476,2.7572,-0.12457,3.988,-0.35757,0.014921,2
23419,54.223,19.128,2.9869e-05,0.023877,3.7286e-08,23550,54.476,2.7572,-0.12457,3.988,-0.35757,0.014921,2
23419,54.223,19.128,2.9869e-05,0.023877,3.7286e-08,23550,54.474,2.8369,-0.13161,3.9878,-0.35712,0.014974,2
23419,54.223,19.128,2.9869e-05,0.023877,3.7286e-08,23550,54.474,2.8369,-0.13161,3.9878,-0.35712,0.014974,2
23419,54.223,19.128,2.9869e-05,0.023877,3.7286e-08,23550,54.474,2.8369,-0.13161,3.9878,-0.35712,0.014974,2
23419,54.223,19.128,2.9869e-05,0.023877,3.7286e-08,23550,54.474,2.8369,-0.13161,3.9878,-0.35712,0.014974,2
23419,54.223,19.128,2.9869e-05,0.023877,3.7286e-08,23550,54.471,2.9167,-0.13861,3.9877,-0.35524,0.015028,2
23419,54.223,19.128,2.9869e-05,0.023877,3.7286e-08,23550,54.471,2.9167,-0.13861,3.9877,-0.35524,0.015028,2
23419,54.223,19.128,2.9869e-05,0.023877,3.7286e-08,23550,54.471,2.9167,-0.13861,3.9877,-0.35524,0.015028,2
23419,54.223,19.128,2.9869e-05,0.023877,3.7286e-08,23550,54.471,2.9167,-0.13861,3.9877,-0.35524,0.015028,2
23419,54.223,19.128,2.9869e-05,0.023877,3.7286e-08,23550,54.468,2.9965,-0.14555,3.9877,-0.35194,0.015081,2
23419,54.223,19.128,2.9869e-05,0.023877,3.7286e-08,23550,54.468,2.9965,-0.14555,3.9877,-0.35194,0.015081,2
23419,54.223,19.128,2.9869e-05,0.023877,3.7286e-08,23550,54.468,2.9965,-0.14555,3.9877,-0.35194,0.015081,2
23419,54.223,19.128,2.9869e-05,0.023877,3.7286e-08,23550,54.465,3.0762,-0.15239,3.9878,-0.34724,0.015134,2
23419,54.223,19.128,2.9869e-05,0.023877,3.7286e-08,23550,54.465,3.0762,-0.15239,3.9878,-0.34724,0.015134,2
23419,54.223,19.128,2.9869e-05,0.023877,3.7286e-08,23550,54.462,3.156,-0.15912,3.9879,-0.34118,0.015187,2
23422,54.223,19.131,2.9874e-05,0.024358,3.8036e-08,23550,54.462,3.156,-0.15912,3.9879,-0.34118,0.015503,2
23422,54.223,19.132,2.9876e-05,0.024495,3.825e-08,23551,54.456,3.3155,-0.17209,3.9886,-0.32514,0.015705,2
23422,54.223,19.132,2.9876e-05,0.024495,3.825e-08,23551,54.448,3.4751,-0.18428,3.9895,-0.30422,0.015814,2
23422,54.223,19.132,2.9876e-05,0.024495,3.825e-08,23551,54.448,3.4751,-0.18428,3.9895,-0.30422,0.015814,2
23422,54.223,19.132,2.9876e-05,0.024495,3.825e-08,23551,54.445,3.5549,-0.19003,3.9901,-0.29208,0.015868,2
23424,54.223,19.134,2.9878e-05,0.0247,3.857e-08,23551,54.445,3.5549,-0.19003,3.9901,-0.29208,0.016012,2
23424,54.223,19.134,2.9878e-05,0.0247,3.857e-08,23551,54.445,3.5549,-0.19003,3.9901,-0.29208,0.016012,2
23424,54.223,19.134,2.9878e-05,0.0247,3.857e-08,23551,54.445,3.5549,-0.19003,3.9901,-0.29208,0.016012,2
23424,54.223,19.134,2.9878e-05,0.0247,3.857e-08,23551,54.445,3.5549,-0.19003,3.9901,-0.29208,0.016012,2
23424,54.223,19.134,2.9878e-05,0.0247,3.857e-08,23551,54.445,3.5549,-0.19003,3.9901,-0.29208,0.016012,2
23424,54.223,19.134,2.9878e-05,0.0247,3.857e-08,23551,54.445,3.5549,-0.19003,3.9901,-0.29208,0.016012,2
23424,54.223,19.134,2.9878e-05,0.0247,3.857e-08,23551,54.445,3.5549,-0.19003,3.9901,-0.29208,0.016012,2
23424,54.223,19.134,2.9878e-05,0.0247,3.857e-08,23551,54.445,3.5549,-0.19003,3.9901,-0.29208,0.016012,2
23424,54.223,19.134,2.9878e-05,0.0247,3.857e-08,23551,54.445,3.5549,-0.19003,3.9901,-0.29208,0.016012,2
23424,54.223,19.134,2.9878e-05,0.0247,3.857e-08,23551,54.445,3.5549,-0.19003,3.9901,-0.29208,0.016012,2
23424,54.223,19.134,2.9878e-05,0.0247,3.857e-08,23551,54.445,3.5549,-0.19003,3.9901,-0.29208,0.016012,2
23424,54.223,19.134,2.9878e-05,0.0247,3.857e-08,23551,54.437,3.7146,-0.20072,3.9915,-0.26482,0.016122,2
23424,54.223,19.134,2.9878e-05,0.0247,3.857e-08,23551,54.433,3.7944,-0.20562,3.9923,-0.24985,0.016177,2
23424,54.223,19.134,2.9878e-05,0.0247,3.857e-08,23551,54.433,3.7944,-0.20562,3.9923,-0.24985,0.016177,2
23424,54.223,19.134,2.9878e-05,0.0247,3.857e-08,23551,54.433,3.7944,-0.20562,3.9923,-0.24985,0.016177,2
23424,54.223,19.134,2.9878e-05,0.0247,3.857e-08,23551,54.433,3.7944,-0.20562,3.9923,-0.24985,0.016177,2
23425,54.223,19.136,2.9882e-05,0.025039,3.9099e-08,23551,54.429,3.8743,-0.21022,3.9932,-0.2341,0.016479,2
23425,54.223,19.136,2.9882e-05,0.025039,3.9099e-08,23551,54.407,4.2739,-0.2281,3.9979,-0.14667,0.016757,2
23425,54.223,19.136,2.9882e-05,0.025039,3.9099e-08,23551,54.407,4.2739,-0.2281,3.9979,-0.14667,0.016757,2
23425,54.223,19.136,2.9882e-05,0.025039,3.9099e-08,23551,54.407,4.2739,-0.2281,3.9979,-0.14667,0.016757,2
23425,54.223,19.136,2.9882e-05,0.025039,3.9099e-08,23551,54.407,4.2739,-0.2281,3.9979,-0.14667,0.016757,2
23425,54.223,19.136,2.9882e-05,0.025039,3.9099e-08,23551,54.407,4.2739,-0.2281,3.9979,-0.14667,0.016757,2
23425,54.223,19.136,2.9882e-05,0.025039,3.9099e-08,23551,54.407,4.2739,-0.2281,3.9979,-0.14667,0.016757,2
23425,54.223,19.136,2.9882e-05,0.025039,3.9099e-08,23551,54.407,4.2739,-0.2281,3.9979,-0.14667,0.016757,2
23427,54.223,19.139,2.9886e-05,0.025377,3.9627e-08,23552,54.402,4.3539,-0.2306,3.9988,-0.12807,0.017072,2
23427,54.223,19.139,2.9886e-05,0.025377,3.9627e-08,23552,54.402,4.3539,-0.2306,3.9988,-0.12807,0.017072,2
23427,54.223,19.139,2.9886e-05,0.025377,3.9627e-08,23552,54.402,4.3539,-0.2306,3.9988,-0.12807,0.017072,2
23427,54.223,19.139,2.9886e-05,0.025377,3.9627e-08,23552,54.393,4.5139,-0.23448,4.0007,-0.090435,0.017184,2
23427,54.223,19.139,2.9886e-05,0.025377,3.9627e-08,23552,54.393,4.5139,-0.23448,4.0007,-0.090435,0.017184,2
23427,54.223,19.139,2.9886e-05,0.025377,3.9627e-08,23552,54.393,4.5139,-0.23448,4.0007,-0.090435,0.017184,2
23427,54.223,19.139,2.9886e-05,0.025377,3.9627e-08,23552,54.393,4.5139,-0.23448,4.0007,-0.090435,0.017184,2
23427,54.223,19.139,2.9886e-05,0.025377,3.9627e-08,23552,54.383,4.674,-0.23687,4.0025,-0.052779,0.017297,2
23429,54.223,19.141,2.9889e-05,0.025646,4.0047e-08,23552,54.383,4.674,-0.23687,4.0025,-0.052779,0.017512,2
23429,54.223,19.141,2.989e-05,0.025713,4.0151e-08,23552,54.383,4.674,-0.23687,4.0025,-0.052779,0.017567,2
23429,54.223,19.141,2.989e-05,0.025713,4.0151e-08,23552,54.369,4.9143,-0.23772,4.0049,0.0024114,0.017738,2
23430,54.223,19.142,2.9891e-05,0.025846,4.0359e-08,23552,54.369,4.9143,-0.23772,4.0049,0.0024114,0.017849,2
23430,54.223,19.142,2.9891e-05,0.025846,4.0359e-08,23552,54.36,5.0745,-0.23653,4.0062,0.037547,0.017963,2
23430,54.223,19.142,2.9891e-05,0.025846,4.0359e-08,23552,54.36,5.0745,-0.23653,4.0062,0.037547,0.017963,2
23430,54.223,19.142,2.9891e-05,0.025846,4.0359e-08,23552,54.36,5.0745,-0.23653,4.0062,0.037547,0.017963,2
23430,54.223,19.142,2.9891e-05,0.025846,4.0359e-08,23552,54.36,5.0745,-0.23653,4.0062,0.037547,0.017963,2
23430,54.223,19.142,2.9891e-05,0.025846,4.0359e-08,23552,54.355,5.1546,-0.23543,4.0068,0.054437,0.01802,2
23430,54.223,19.142,2.9891e-05,0.025846,4.0359e-08,23552,54.355,5.1546,-0.23543,4.0068,0.054437,0.01802,2
23430,54.223,19.142,2.9891e-05,0.025846,4.0359e-08,23552,54.355,5.1546,-0.23543,4.0068,0.054437,0.01802,2
23430,54.223,19.142,2.9891e-05,0.025846,4.0359e-08,23552,54.355,5.1546,-0.23543,4.0068,0.054437,0.01802,2
23430,54.223,19.142,2.9891e-05,0.025846,4.0359e-08,23552,54.355,5.1546,-0.23543,4.0068,0.054437,0.01802,2
23430,54.223,19.142,2.9891e-05,0.025846,4.0359e-08,23552,54.355,5.1546,-0.23543,4.0068,0.054437,0.01802,2
23431,54.223,19.144,2.9894e-05,0.026046,4.0671e-08,23552,54.355,5.1546,-0.23543,4.0068,0.054437,0.018191,2
23431,54.223,19.144,2.9894e-05,0.026046,4.0671e-08,23552,54.355,5.1546,-0.23543,4.0068,0.054437,0.018191,2
23431,54.223,19.144,2.9894e-05,0.026046,4.0671e-08,23552,54.355,5.1546,-0.23543,4.0068,0.054437,0.018191,2
23432,54.223,19.144,2.9894e-05,0.026113,4.0775e-08,23552,54.355,5.1546,-0.23543,4.0068,0.054437,0.018248,2
23432,54.223,19.144,2.9894e-05,0.026113,4.0775e-08,23553,54.341,5.3951,-0.23024,4.0081,0.1018,0.018421,2
23432,54.223,19.146,2.9896e-05,0.026246,4.0983e-08,23553,54.341,5.3951,-0.23024,4.0081,0.1018,0.018538,2
23432,54.223,19.146,2.9896e-05,0.026246,4.0983e-08,23553,54.332,5.5554,-0.22533,4.0087,0.13021,0.018653,2
23433,54.223,19.147,2.9898e-05,0.026378,4.119e-08,23553,54.332,5.5554,-0.22533,4.0087,0.13021,0.018772,2
23434,54.223,19.148,2.9899e-05,0.02651,4.1396e-08,23553,54.323,5.7158,-0.21939,4.0091,0.1558,0.019009,2
23434,54.223,19.148,2.9899e-05,0.02651,4.1396e-08,23553,54.323,5.7158,-0.21939,4.0091,0.1558,0.019009,2
23434,54.223,19.148,2.99e-05,0.026576,4.1498e-08,23553,54.323,5.7158,-0.21939,4.0091,0.1558,0.01907,2
23434,54.223,19.148,2.99e-05,0.026576,4.1498e-08,23553,54.323,5.7158,-0.21939,4.0091,0.1558,0.01907,2
23434,54.223,19.148,2.99e-05,0.026576,4.1498e-08,23553,54.323,5.7158,-0.21939,4.0091,0.1558,0.01907,2
23434,54.223,19.148,2.99e-05,0.026576,4.1498e-08,23553,54.323,5.7158,-0.21939,4.0091,0.1558,0.01907,2
23435,54.223,19.149,2.9901e-05,0.026642,4.16e-08,23553,54.323,5.7158,-0.21939,4.0091,0.1558,0.019132,2
23435,54.223,19.149,2.9901e-05,0.026642,4.16e-08,23553,54.323,5.7158,-0.21939,4.0091,0.1558,0.019132,2
23435,54.223,19.149,2.9901e-05,0.026642,4.16e-08,23553,54.323,5.7158,-0.21939,4.0091,0.1558,0.019132,2
23435,54.223,19.149,2.9901e-05,0.026642,4.16e-08,23553,54.323,5.7158,-0.21939,4.0091,0.1558,0.019132,2
23435,54.223,19.149,2.9901e-05,0.026642,4.16e-08,23553,54.323,5.7158,-0.21939,4.0091,0.1558,0.019132,2
23435,54.223,19.149,2.9901e-05,0.026642,4.16e-08,23553,54.323,5.7158,-0.21939,4.0091,0.1558,0.019132,2
23435,54.223,19.149,2.9901e-05,0.026642,4.16e-08,23553,54.323,5.7158,-0.21939,4.0091,0.1558,0.019132,2
23435,54.223,19.149,2.9901e-05,0.026642,4.16e-08,23553,54.323,5.7158,-0.21939,4.0091,0.1558,0.019132,2
23435,54.223,19.149,2.9901e-05,0.026642,4.16e-08,23553,54.323,5.7158,-0.21939,4.0091,0.1558,0.019132,2
23435,54.223,19.149,2.9901e-05,0.026642,4.16e-08,23553,54.323,5.7158,-0.21939,4.0091,0.1558,0.019132,2
23435,54.223,19.149,2.9901e-05,0.026642,4.16e-08,23553,54.323,5.7158,-0.21939,4.0091,0.1558,0.019132,2
23435,54.223,19.149,2.9901e-05,0.026642,4.16e-08,23554,54.306,6.0365,-0.20489,4.0092,0.1979,0.019365,2
23435,54.223,19.149,2.9901e-05,0.026642,4.16e-08,23554,54.306,6.0365,-0.20489,4.0092,0.1979,0.019365,2
23435,54.223,19.149,2.9901e-05,0.026642,4.16e-08,23554,54.298,6.1969,-0.19656,4.009,0.21427,0.01948,2
23435,54.223,19.149,2.9901e-05,0.026642,4.16e-08,23554,54.298,6.1969,-0.19656,4.009,0.21427,0.01948,2
23435,54.223,19.149,2.9901e-05,0.026642,4.16e-08,23554,54.298,6.1969,-0.19656,4.009,0.21427,0.01948,2
23435,54.223,19.149,2.9901e-05,0.026642,4.16e-08,23554,54.298,6.1969,-0.19656,4.009,0.21427,0.01948,2
23437,54.223,19.152,2.9907e-05,0.027101,4.2318e-08,23554,54.295,6.2771,-0.19219,4.0088,0.22128,0.019987,2
23437,54.223,19.152,2.9907e-05,0.027101,4.2318e-08,23554,54.295,6.2771,-0.19219,4.0088,0.22128,0.019987,2
23437,54.223,19.152,2.9907e-05,0.027101,4.2318e-08,23555,54.277,6.6779,-0.1688,4.0077,0.24503,0.020279,2
23437,54.223,19.152,2.9907e-05,0.027101,4.2318e-08,23555,54.273,6.758,-0.16391,4.0074,0.24762,0.020337,2
23437,54.223,19.152,2.9907e-05,0.027101,4.2318e-08,23555,54.27,6.8382,-0.15899,4.0071,0.24955,0.020395,2
23439,54.223,19.155,2.9911e-05,0.027426,4.2825e-08,23555,54.27,6.8382,-0.15899,4.0071,0.24955,0.020733,2
23439,54.223,19.155,2.9911e-05,0.027426,4.2825e-08,23555,54.27,6.8382,-0.15899,4.0071,0.24955,0.020733,2
23439,54.223,19.155,2.9911e-05,0.027426,4.2825e-08,23555,54.264,6.9984,-0.14909,4.0064,0.25147,0.02085,2
23439,54.223,19.155,2.9911e-05,0.027426,4.2825e-08,23555,54.264,6.9984,-0.14909,4.0064,0.25147,0.02085,2
23439,54.223,19.155,2.9911e-05,0.027426,4.2825e-08,23555,54.264,6.9984,-0.14909,4.0064,0.25147,0.02085,2
23439,54.223,19.155,2.9911e-05,0.027426,4.2825e-08,23555,54.264,6.9984,-0.14909,4.0064,0.25147,0.02085,2
23439,54.223,19.155,2.9911e-05,0.027426,4.2825e-08,23555,54.264,6.9984,-0.14909,4.0064,0.25147,0.02085,2
23439,54.223,19.155,2.9911e-05,0.027426,4.2825e-08,23555,54.264,6.9984,-0.14909,4.0064,0.25147,0.02085,2
23439,54.223,19.155,2.9911e-05,0.027426,4.2825e-08,23555,54.264,6.9984,-0.14909,4.0064,0.25147,0.02085,2
23439,54.223,19.155,2.9911e-05,0.027426,4.2825e-08,23555,54.261,7.0785,-0.14414,4.0061,0.25153,0.020908,2
23439,54.223,19.155,2.9911e-05,0.027426,4.2825e-08,23555,54.261,7.0785,-0.14414,4.0061,0.25153,0.020908,2
23439,54.223,19.155,2.9911e-05,0.027426,4.2825e-08,23555,54.261,7.0785,-0.14414,4.0061,0.25153,0.020908,2
23439,54.223,19.155,2.9911e-05,0.027426,4.2825e-08,23555,54.261,7.0785,-0.14414,4.0061,0.25153,0.020908,2
23440,54.223,19.157,2.9914e-05,0.02762,4.3128e-08,23555,54.261,7.0785,-0.14414,4.0061,0.25153,0.021117,2
23440,54.223,19.157,2.9914e-05,0.02762,4.3128e-08,23555,54.261,7.0785,-0.14414,4.0061,0.25153,0.021117,2
23441,54.223,19.157,2.9915e-05,0.027684,4.3228e-08,23555,54.261,7.0785,-0.14414,4.0061,0.25153,0.021187,2
23442,54.223,19.159,2.9917e-05,0.027877,4.353e-08,23556,54.253,7.3189,-0.12938,4.0052,0.24839,0.021579,2
23442,54.223,19.159,2.9917e-05,0.027877,4.353e-08,23556,54.253,7.3189,-0.12938,4.0052,0.24839,0.021579,2
23443,54.223,19.16,2.9919e-05,0.028006,4.3731e-08,23556,54.246,7.5591,-0.115,4.0042,0.24091,0.021901,2
23443,54.223,19.16,2.9919e-05,0.028006,4.3731e-08,23556,54.246,7.5591,-0.115,4.0042,0.24091,0.021901,2
23443,54.223,19.161,2.992e-05,0.02807,4.383e-08,23556,54.246,7.5591,-0.115,4.0042,0.24091,0.021975,2
23443,54.223,19.161,2.992e-05,0.02807,4.383e-08,23556,54.246,7.5591,-0.115,4.0042,0.24091,0.021975,2
23443,54.223,19.161,2.992e-05,0.02807,4.383e-08,23556,54.246,7.5591,-0.115,4.0042,0.24091,0.021975,2
23443,54.223,19.161,2.992e-05,0.02807,4.383e-08,23556,54.246,7.5591,-0.115,4.0042,0.24091,0.021975,2
23443,54.223,19.161,2.992e-05,0.02807,4.383e-08,23556,54.246,7.5591,-0.115,4.0042,0.24091,0.021975,2
23443,54.223,19.161,2.992e-05,0.02807,4.383e-08,23556,54.246,7.5591,-0.115,4.0042,0.24091,0.021975,2
23443,54.223,19.161,2.992e-05,0.02807,4.383e-08,23556,54.246,7.5591,-0.115,4.0042,0.24091,0.021975,2
23443,54.223,19.161,2.992e-05,0.02807,4.383e-08,23556,54.246,7.5591,-0.115,4.0042,0.24091,0.021975,2
23443,54.223,19.161,2.992e-05,0.02807,4.383e-08,23556,54.246,7.5591,-0.115,4.0042,0.24091,0.021975,2
23443,54.223,19.161,2.992e-05,0.02807,4.383e-08,23556,54.246,7.5591,-0.115,4.0042,0.24091,0.021975,2
23443,54.223,19.161,2.992e-05,0.02807,4.383e-08,23557,54.239,7.7993,-0.1012,4.0034,0.22988,0.02215,2
23443,54.223,19.161,2.992e-05,0.02807,4.383e-08,23557,54.239,7.7993,-0.1012,4.0034,0.22988,0.02215,2
23443,54.223,19.161,2.992e-05,0.02807,4.383e-08,23557,54.239,7.7993,-0.1012,4.0034,0.22988,0.02215,2
23443,54.223,19.161,2.992e-05,0.02807,4.383e-08,23557,54.239,7.7993,-0.1012,4.0034,0.22988,0.02215,2
23443,54.223,19.161,2.992e-05,0.02807,4.383e-08,23557,54.239,7.7993,-0.1012,4.0034,0.22988,0.02215,2
23443,54.223,19.161,2.992e-05,0.02807,4.383e-08,23557,54.239,7.7993,-0.1012,4.0034,0.22988,0.02215,2
23444,54.223,19.162,2.9922e-05,0.028198,4.403e-08,23557,54.239,7.7993,-0.1012,4.0034,0.22988,0.022301,2
23444,54.223,19.162,2.9923e-05,0.028261,4.413e-08,23557,54.239,7.7993,-0.1012,4.0034,0.22988,0.022377,2
23446,54.223,19.165,2.9926e-05,0.028516,4.4528e-08,23557,54.232,8.1196,-0.08404,4.0025,0.21096,0.02292,2
23447,54.223,19.166,2.9929e-05,0.028706,4.4824e-08,23558,54.228,8.3597,-0.072345,4.0019,0.19256,0.023334,2
23447,54.223,19.166,2.9929e-05,0.028706,4.4824e-08,23558,54.228,8.3597,-0.072345,4.0019,0.19256,0.023334,2
23447,54.223,19.166,2.9929e-05,0.028706,4.4824e-08,23558,54.228,8.3597,-0.072345,4.0019,0.19256,0.023334,2
