5731.4,54.3,19.183,0,-0.031081,0,5860.3,48.53,0,0,0,0,0.013216,2
5731.4,54.3,19.183,0,-0.031081,0,5860.3,48.53,0,0,0,0,0.013216,2
5731.4,54.3,19.183,0,-0.031081,0,5860.3,48.53,0,0,0,0,0.013216,2
5731.4,54.3,19.183,0,-0.031081,0,5860.3,48.53,0,0,0,0,0.013216,2
5731.4,54.3,19.183,0,-0.031081,0,5860.3,48.53,0,0,0,0,0.013216,2
5731.4,54.3,19.183,0,-0.031081,0,5860.3,48.53,0,0,0,0,0.013216,2
5731.4,54.3,19.183,0,-0.031081,0,5860.3,48.53,0,0,0,0,0.013216,2
5732.6,54.3,19.181,0,-0.030894,0,5860.3,48.53,0,0,0,0,0.013335,2
5732.6,54.3,19.181,0,-0.030894,0,5860.3,48.53,0,0,0,0,0.013335,2
5733,54.3,19.18,0,-0.030831,0,5860.3,48.53,0,0,0,0,0.013375,2
5733,54.3,19.18,0,-0.030831,0,5860.3,48.53,0,0,0,0,0.013375,2
5733,54.3,19.18,0,-0.030831,0,5860.3,48.53,0,0,0,0,0.013375,2
5733,54.3,19.18,0,-0.030831,0,5860.3,48.53,0,0,0,0,0.013375,2
5733,54.3,19.18,0,-0.030831,0,5860.3,48.53,0,0,0,0,0.013375,2
5735.3,54.3,19.177,0,-0.030455,0,5860.3,48.53,0,0,0,0,0.01362,2
5735.7,54.3,19.176,0,-0.030393,0,5860.3,48.53,0,0,0,0,0.013662,2
5735.7,54.3,19.176,0,-0.030393,0,5860.3,48.53,0,0,0,0,0.013662,2
5735.7,54.3,19.176,0,-0.030393,0,5860.3,48.53,0,0,0,0,0.013662,2
5735.7,54.3,19.176,0,-0.030393,0,5860.3,48.53,0,0,0,0,0.013662,2
5736,54.3,19.176,0,-0.03033,0,5860.3,48.53,0,0,0,0,0.013704,2
5736,54.3,19.176,0,-0.03033,0,5860.3,48.53,0,0,0,0,0.013704,2
5736,54.3,19.176,0,-0.03033,0,5860.3,48.53,0,0,0,0,0.013704,2
5736,54.3,19.176,0,-0.03033,0,5860.3,48.53,0,0,0,0,0.013704,2
5736.4,54.3,19.175,0,-0.030267,0,5860.3,48.53,0,0,0,0,0.013746,2
5736.4,54.3,19.175,0,-0.030267,0,5860.3,48.53,0,0,0,0,0.013746,2
5736.4,54.3,19.175,0,-0.030267,0,5860.3,48.53,0,0,0,0,0.013746,2
5736.4,54.3,19.175,0,-0.030267,0,5860.3,48.53,0,0,0,0,0.013746,2
5736.4,54.3,19.175,0,-0.030267,0,5860.3,48.53,0,0,0,0,0.013746,2
5736.4,54.3,19.175,0,-0.030267,0,5860.3,48.53,0,0,0,0,0.013746,2
5736.4,54.3,19.175,0,-0.030267,0,5860.3,48.53,0,0,0,0,0.013746,2
5736.4,54.3,19.175,0,-0.030267,0,5860.3,48.53,0,0,0,0,0.013746,2
5737.2,54.3,19.174,0,-0.03014,0,5860.3,48.53,0,0,0,0,0.013832,2
5737.2,54.3,19.174,0,-0.03014,0,5860.3,48.53,0,0,0,0,0.013832,2
5738,54.3,19.173,0,-0.030015,0,5860.3,48.53,0,0,0,0,0.013918,2
5738,54.3,19.173,0,-0.030015,0,5860.3,48.53,0,0,0,0,0.013918,2
5738,54.3,19.173,0,-0.030015,0,5860.3,48.53,0,0,0,0,0.013918,2
5739.5,54.3,19.17,0,-0.02976,0,5860.3,48.53,0,0,0,0,0.014095,2
5739.5,54.3,19.17,0,-0.02976,0,5860.3,48.53,0,0,0,0,0.014095,2
5739.5,54.3,19.17,0,-0.02976,0,5860.3,48.53,0,0,0,0,0.014095,2
5739.9,54.3,19.17,0,-0.029696,0,5860.3,48.53,0,0,0,0,0.014139,2
5739.9,54.3,19.17,0,-0.029696,0,5860.3,48.53,0,0,0,0,0.014139,2
5739.9,54.3,19.17,0,-0.029696,0,5860.3,48.53,0,0,0,0,0.014139,2
5739.9,54.3,19.17,0,-0.029696,0,5860.3,48.53,0,0,0,0,0.014139,2
5739.9,54.3,19.17,0,-0.029696,0,5860.3,48.53,0,0,0,0,0.014139,2
5739.9,54.3,19.17,0,-0.029696,0,5860.3,48.53,0,0,0,0,0.014139,2
5739.9,54.3,19.17,0,-0.029696,0,5860.3,48.53,0,0,0,0,0.014139,2
5739.9,54.3,19.17,0,-0.029696,0,5860.3,48.53,0,0,0,0,0.014139,2
5739.9,54.3,19.17,0,-0.029696,0,5860.3,48.53,0,0,0,0,0.014139,2
5739.9,54.3,19.17,0,-0.029696,0,5860.3,48.53,0,0,0,0,0.014139,2
5739.9,54.3,19.17,0,-0.029696,0,5860.3,48.53,0,0,0,0,0.014139,2
5739.9,54.3,19.17,0,-0.029696,0,5860.3,48.53,0,0,0,0,0.014139,2
5739.9,54.3,19.17,0,-0.029696,0,5860.3,48.53,0,0,0,0,0.014139,2
5742.2,54.3,19.166,0,-0.029311,0,5860.3,48.53,0,0,0,0,0.014414,2
5742.2,54.3,19.166,0,-0.029311,0,5860.3,48.53,0,0,0,0,0.014414,2
5742.2,54.3,19.166,0,-0.029311,0,5860.3,48.53,0,0,0,0,0.014414,2
5742.2,54.3,19.166,0,-0.029311,0,5860.3,48.53,0,0,0,0,0.014414,2
5742.2,54.3,19.166,0,-0.029311,0,5860.3,48.53,0,0,0,0,0.014414,2
5743.3,54.3,19.164,0,-0.029117,0,5860.3,48.53,0,0,0,0,0.014555,2
5743.3,54.3,19.164,0,-0.029117,0,5860.3,48.53,0,0,0,0,0.014555,2
5743.3,54.3,19.164,0,-0.029117,0,5860.3,48.53,0,0,0,0,0.014555,2
5743.3,54.3,19.164,0,-0.029117,0,5860.3,48.53,0,0,0,0,0.014555,2
5743.3,54.3,19.164,0,-0.029117,0,5860.3,48.53,0,0,0,0,0.014555,2
5743.3,54.3,19.164,0,-0.029117,0,5860.3,48.53,0,0,0,0,0.014555,2
5743.3,54.3,19.164,0,-0.029117,0,5860.3,48.53,0,0,0,0,0.014555,2
5743.3,54.3,19.164,0,-0.029117,0,5860.3,48.53,0,0,0,0,0.014555,2
5744.5,54.3,19.163,0,-0.028922,0,5860.3,48.53,0,0,0,0,0.014699,2
5744.5,54.3,19.163,0,-0.028922,0,5860.3,48.53,0,0,0,0,0.014699,2
5744.5,54.3,19.163,0,-0.028922,0,5860.3,48.53,0,0,0,0,0.014699,2
5744.9,54.3,19.162,0,-0.028858,0,5860.3,48.53,0,0,0,0,0.014748,2
5745.2,54.3,19.161,0,-0.028792,0,5860.3,48.53,0,0,0,0,0.014797,2
5746,54.3,19.16,0,-0.028661,0,5860.3,48.53,0,0,0,0,0.014896,2
5746,54.3,19.16,0,-0.028661,0,5860.3,48.53,0,0,0,0,0.014896,2
5746.4,54.3,19.16,0,-0.028595,0,5860.3,48.53,0,0,0,0,0.014946,2
5746.4,54.3,19.16,0,-0.028595,0,5860.3,48.53,0,0,0,0,0.014946,2
5746.4,54.3,19.16,0,-0.028595,0,5860.3,48.53,0,0,0,0,0.014946,2
5746.4,54.3,19.16,0,-0.028595,0,5860.3,48.53,0,0,0,0,0.014946,2
5746.4,54.3,19.16,0,-0.028595,0,5860.3,48.53,0,0,0,0,0.014946,2
5746.4,54.3,19.16,0,-0.028595,0,5860.3,48.53,0,0,0,0,0.014946,2
5746.4,54.3,19.16,0,-0.028595,0,5860.3,48.53,0,0,0,0,0.014946,2
5746.4,54.3,19.16,0,-0.028595,0,5860.3,48.53,0,0,0,0,0.014946,2
5747.2,54.3,19.158,0,-0.028464,0,5860.3,48.53,0,0,0,0,0.015047,2
5747.2,54.3,19.158,0,-0.028464,0,5860.3,48.53,0,0,0,0,0.015047,2
5747.2,54.3,19.158,0,-0.028464,0,5860.3,48.53,0,0,0,0,0.015047,2
5747.2,54.3,19.158,0,-0.028464,0,5860.3,48.53,0,0,0,0,0.015047,2
5747.2,54.3,19.158,0,-0.028464,0,5860.3,48.53,0,0,0,0,0.015047,2
5747.9,54.3,19.157,0,-0.028333,0,5860.3,48.53,0,0,0,0,0.015149,2
5747.9,54.3,19.157,0,-0.028333,0,5860.3,48.53,0,0,0,0,0.015149,2
5748.7,54.3,19.156,0,-0.028203,0,5860.3,48.53,0,0,0,0,0.015253,2
5749.5,54.3,19.155,0,-0.02807,0,5860.3,48.53,0,0,0,0,0.015358,2
5749.5,54.3,19.155,0,-0.02807,0,5860.3,48.53,0,0,0,0,0.015358,2
5749.5,54.3,19.155,0,-0.02807,0,5860.3,48.53,0,0,0,0,0.015358,2
5749.5,54.3,19.155,0,-0.02807,0,5860.3,48.53,0,0,0,0,0.015358,2
5749.5,54.3,19.155,0,-0.02807,0,5860.3,48.53,0,0,0,0,0.015358,2
5749.5,54.3,19.155,0,-0.02807,0,5860.3,48.53,0,0,0,0,0.015358,2
5749.5,54.3,19.155,0,-0.02807,0,5860.3,48.53,0,0,0,0,0.015358,2
5749.5,54.3,19.155,0,-0.02807,0,5860.3,48.53,0,0,0,0,0.015358,2
5749.5,54.3,19.155,0,-0.02807,0,5860.3,48.53,0,0,0,0,0.015358,2
5749.5,54.3,19.155,0,-0.02807,0,5860.3,48.53,0,0,0,0,0.015358,2
5749.5,54.3,19.155,0,-0.02807,0,5860.3,48.53,0,0,0,0,0.015358,2
5749.5,54.3,19.155,0,-0.02807,0,5860.3,48.53,0,0,0,0,0.015358,2
5749.5,54.3,19.155,0,-0.02807,0,5860.3,48.53,0,0,0,0,0.015358,2
5749.5,54.3,19.155,0,-0.02807,0,5860.3,48.53,0,0,0,0,0.015358,2
5749.5,54.3,19.155,0,-0.02807,0,5860.3,48.53,0,0,0,0,0.015358,2
5749.5,54.3,19.155,0,-0.02807,0,5860.3,48.53,0,0,0,0,0.015358,2
5749.5,54.3,19.155,0,-0.02807,0,5860.3,48.53,0,0,0,0,0.015358,2
5749.5,54.3,19.155,0,-0.02807,0,5860.3,48.53,0,0,0,0,0.015358,2
5751.4,54.3,19.152,0,-0.027738,0,5860.3,48.53,0,0,0,0,0.015627,2
5751.4,54.3,19.152,0,-0.027738,0,5860.3,48.53,0,0,0,0,0.015627,2
5751.4,54.3,19.152,0,-0.027738,0,5860.3,48.53,0,0,0,0,0.015627,2
5751.4,54.3,19.152,0,-0.027738,0,5860.3,48.53,0,0,0,0,0.015627,2
5752.5,54.3,19.151,0,-0.027536,0,5860.3,48.53,0,0,0,0,0.015794,2
5754.1,54.3,19.148,0,-0.027268,0,5860.3,48.53,0,0,0,0,0.016021,2
5754.1,54.3,19.148,0,-0.027268,0,5860.3,48.53,0,0,0,0,0.016021,2
5754.1,54.3,19.148,0,-0.027268,0,5860.3,48.53,0,0,0,0,0.016021,2
5754.1,54.3,19.148,0,-0.027268,0,5860.3,48.53,0,0,0,0,0.016021,2
5754.1,54.3,19.148,0,-0.027268,0,5860.3,48.53,0,0,0,0,0.016021,2
5754.1,54.3,19.148,0,-0.027268,0,5860.3,48.53,0,0,0,0,0.016021,2
5754.1,54.3,19.148,0,-0.027268,0,5860.3,48.53,0,0,0,0,0.016021,2
5754.1,54.3,19.148,0,-0.027268,0,5860.3,48.53,0,0,0,0,0.016021,2
5754.1,54.3,19.148,0,-0.027268,0,5860.3,48.53,0,0,0,0,0.016021,2
5754.1,54.3,19.148,0,-0.027268,0,5860.3,48.53,0,0,0,0,0.016021,2
5754.1,54.3,19.148,0,-0.027268,0,5860.3,48.53,0,0,0,0,0.016021,2
5754.1,54.3,19.148,0,-0.027268,0,5860.3,48.53,0,0,0,0,0.016021,2
5755.2,54.3,19.147,0,-0.027066,0,5860.3,48.53,0,0,0,0,0.016195,2
5755.2,54.3,19.147,0,-0.027066,0,5860.3,48.53,0,0,0,0,0.016195,2
5755.2,54.3,19.147,0,-0.027066,0,5860.3,48.53,0,0,0,0,0.016195,2
5755.2,54.3,19.147,0,-0.027066,0,5860.3,48.53,0,0,0,0,0.016195,2
5755.2,54.3,19.147,0,-0.027066,0,5860.3,48.53,0,0,0,0,0.016195,2
5755.2,54.3,19.147,0,-0.027066,0,5860.3,48.53,0,0,0,0,0.016195,2
5755.2,54.3,19.147,0,-0.027066,0,5860.3,48.53,0,0,0,0,0.016195,2
5755.2,54.3,19.147,0,-0.027066,0,5860.3,48.53,0,0,0,0,0.016195,2
5755.2,54.3,19.147,0,-0.027066,0,5860.3,48.53,0,0,0,0,0.016195,2
5755.2,54.3,19.147,0,-0.027066,0,5860.3,48.53,0,0,0,0,0.016195,2
5755.2,54.3,19.147,0,-0.027066,0,5860.3,48.53,0,0,0,0,0.016195,2
5755.2,54.3,19.147,0,-0.027066,0,5860.3,48.53,0,0,0,0,0.016195,2
5755.2,54.3,19.147,0,-0.027066,0,5860.3,48.53,0,0,0,0,0.016195,2
5757.1,54.3,19.144,0,-0.026729,0,5860.3,48.53,0,0,0,0,0.016495,2
5757.1,54.3,19.144,0,-0.026729,0,5860.3,48.53,0,0,0,0,0.016495,2
5757.1,54.3,19.144,0,-0.026729,0,5860.3,48.53,0,0,0,0,0.016495,2
5759,54.3,19.141,0,-0.02639,0,5860.3,48.53,0,0,0,0,0.016805,2
5759,54.3,19.141,0,-0.02639,0,5860.3,48.53,0,0,0,0,0.016805,2
5759.4,54.3,19.141,0,-0.026321,0,5860.3,48.53,0,0,0,0,0.016869,2
5759.4,54.3,19.141,0,-0.026321,0,5860.3,48.53,0,0,0,0,0.016869,2
5759.4,54.3,19.141,0,-0.026321,0,5860.3,48.53,0,0,0,0,0.016869,2
5760.2,54.3,19.14,0,-0.026185,0,5860.3,48.53,0,0,0,0,0.016997,2
5760.2,54.3,19.14,0,-0.026185,0,5860.3,48.53,0,0,0,0,0.016997,2
5760.2,54.3,19.14,0,-0.026185,0,5860.3,48.53,0,0,0,0,0.016997,2
5760.2,54.3,19.14,0,-0.026185,0,5860.3,48.53,0,0,0,0,0.016997,2
5760.2,54.3,19.14,0,-0.026185,0,5860.3,48.53,0,0,0,0,0.016997,2
5760.2,54.3,19.14,0,-0.026185,0,5860.3,48.53,0,0,0,0,0.016997,2
5760.2,54.3,19.14,0,-0.026185,0,5860.3,48.53,0,0,0,0,0.016997,2
5760.2,54.3,19.14,0,-0.026185,0,5860.3,48.53,0,0,0,0,0.016997,2
5761.3,54.3,19.138,0,-0.025979,0,5860.3,48.53,0,0,0,0,0.017194,2
5761.7,54.3,19.138,0,-0.025911,0,5860.3,48.53,0,0,0,0,0.01726,2
5762.5,54.3,19.137,0,-0.025773,0,5860.3,48.53,0,0,0,0,0.017395,2
5762.5,54.3,19.137,0,-0.025773,0,5860.3,48.53,0,0,0,0,0.017395,2
5762.5,54.3,19.137,0,-0.025773,0,5860.3,48.53,0,0,0,0,0.017395,2
5762.9,54.3,19.136,0,-0.025705,0,5860.3,48.53,0,0,0,0,0.017463,2
5762.9,54.3,19.136,0,-0.025705,0,5860.3,48.53,0,0,0,0,0.017463,2
5762.9,54.3,19.136,0,-0.025705,0,5860.3,48.53,0,0,0,0,0.017463,2
5762.9,54.3,19.136,0,-0.025705,0,5860.3,48.53,0,0,0,0,0.017463,2
5762.9,54.3,19.136,0,-0.025705,0,5860.3,48.53,0,0,0,0,0.017463,2
5762.9,54.3,19.136,0,-0.025705,0,5860.3,48.53,0,0,0,0,0.017463,2
5762.9,54.3,19.136,0,-0.025705,0,5860.3,48.53,0,0,0,0,0.017463,2
5762.9,54.3,19.136,0,-0.025705,0,5860.3,48.53,0,0,0,0,0.017463,2
5762.9,54.3,19.136,0,-0.025705,0,5860.3,48.53,0,0,0,0,0.017463,2
5762.9,54.3,19.136,0,-0.025705,0,5860.3,48.53,0,0,0,0,0.017463,2
5762.9,54.3,19.136,0,-0.025705,0,5860.3,48.53,0,0,0,0,0.017463,2
5762.9,54.3,19.136,0,-0.025705,0,5860.3,48.53,0,0,0,0,0.017463,2
5762.9,54.3,19.136,0,-0.025705,0,5860.3,48.53,0,0,0,0,0.017463,2
5762.9,54.3,19.136,0,-0.025705,0,5860.3,48.53,0,0,0,0,0.017463,2
5762.9,54.3,19.136,0,-0.025705,0,5860.3,48.53,0,0,0,0,0.017463,2
5764.8,54.3,19.134,0,-0.025358,0,5860.3,48.53,0,0,0,0,0.017812,2
5765.5,54.3,19.133,0,-0.025219,0,5860.3,48.53,0,0,0,0,0.017955,2
5765.5,54.3,19.133,0,-0.025219,0,5860.3,48.53,0,0,0,0,0.017955,2
5765.5,54.3,19.133,0,-0.025219,0,5860.3,48.53,0,0,0,0,0.017955,2
5765.5,54.3,19.133,0,-0.025219,0,5860.3,48.53,0,0,0,0,0.017955,2
5766.7,54.3,19.131,0,-0.025008,0,5860.3,48.53,0,0,0,0,0.018174,2
5766.7,54.3,19.131,0,-0.025008,0,5860.3,48.53,0,0,0,0,0.018174,2
5766.7,54.3,19.131,0,-0.025008,0,5860.3,48.53,0,0,0,0,0.018174,2
5766.7,54.3,19.131,0,-0.025008,0,5860.3,48.53,0,0,0,0,0.018174,2
5766.7,54.3,19.131,0,-0.025008,0,5860.3,48.53,0,0,0,0,0.018174,2
5766.7,54.3,19.131,0,-0.025008,0,5860.3,48.53,0,0,0,0,0.018174,2
5766.7,54.3,19.131,0,-0.025008,0,5860.3,48.53,0,0,0,0,0.018174,2
5766.7,54.3,19.131,0,-0.025008,0,5860.3,48.53,0,0,0,0,0.018174,2
5766.7,54.3,19.131,0,-0.025008,0,5860.3,48.53,0,0,0,0,0.018174,2
5766.7,54.3,19.131,0,-0.025008,0,5860.3,48.53,0,0,0,0,0.018174,2
5766.7,54.3,19.131,0,-0.025008,0,5860.3,48.53,0,0,0,0,0.018174,2
5766.7,54.3,19.131,0,-0.025008,0,5860.3,48.53,0,0,0,0,0.018174,2
5766.7,54.3,19.131,0,-0.025008,0,5860.3,48.53,0,0,0,0,0.018174,2
5766.7,54.3,19.131,0,-0.025008,0,5860.3,48.53,0,0,0,0,0.018174,2
5766.7,54.3,19.131,0,-0.025008,0,5860.3,48.53,0,0,0,0,0.018174,2
5766.7,54.3,19.131,0,-0.025008,0,5860.3,48.53,0,0,0,0,0.018174,2
5768.6,54.3,19.129,0,-0.024659,0,5860.3,48.53,0,0,0,0,0.018552,2
5769.7,54.3,19.127,0,-0.024448,0,5860.3,48.53,0,0,0,0,0.018786,2
5769.7,54.3,19.127,0,-0.024448,0,5860.3,48.53,0,0,0,0,0.018786,2
5769.7,54.3,19.127,0,-0.024448,0,5860.3,48.53,0,0,0,0,0.018786,2
5769.7,54.3,19.127,0,-0.024448,0,5860.3,48.53,0,0,0,0,0.018786,2
5770.9,54.3,19.126,0,-0.024237,0,5860.3,48.53,0,0,0,0,0.019026,2
5770.9,54.3,19.126,0,-0.024237,0,5860.3,48.53,0,0,0,0,0.019026,2
5770.9,54.3,19.126,0,-0.024237,0,5860.3,48.53,0,0,0,0,0.019026,2
5770.9,54.3,19.126,0,-0.024237,0,5860.3,48.53,0,0,0,0,0.019026,2
5770.9,54.3,19.126,0,-0.024237,0,5860.3,48.53,0,0,0,0,0.019026,2
5770.9,54.3,19.126,0,-0.024237,0,5860.3,48.53,0,0,0,0,0.019026,2
5770.9,54.3,19.126,0,-0.024237,0,5860.3,48.53,0,0,0,0,0.019026,2
5770.9,54.3,19.126,0,-0.024237,0,5860.3,48.53,0,0,0,0,0.019026,2
5770.9,54.3,19.126,0,-0.024237,0,5860.3,48.53,0,0,0,0,0.019026,2
5770.9,54.3,19.126,0,-0.024237,0,5860.3,48.53,0,0,0,0,0.019026,2
5770.9,54.3,19.126,0,-0.024237,0,5860.3,48.53,0,0,0,0,0.019026,2
5770.9,54.3,19.126,0,-0.024237,0,5860.3,48.53,0,0,0,0,0.019026,2
5770.9,54.3,19.126,0,-0.024237,0,5860.3,48.53,0,0,0,0,0.019026,2
5770.9,54.3,19.126,0,-0.024237,0,5860.3,48.53,0,0,0,0,0.019026,2
5770.9,54.3,19.126,0,-0.024237,0,5860.3,48.53,0,0,0,0,0.019026,2
5770.9,54.3,19.126,0,-0.024237,0,5860.3,48.53,0,0,0,0,0.019026,2
5770.9,54.3,19.126,0,-0.024237,0,5860.3,48.53,0,0,0,0,0.019026,2
5770.9,54.3,19.126,0,-0.024237,0,5860.3,48.53,0,0,0,0,0.019026,2
5772.8,54.3,19.123,0,-0.023882,0,5860.3,48.53,0,0,0,0,0.01944,2
5772.8,54.3,19.123,0,-0.023882,0,5860.3,48.53,0,0,0,0,0.01944,2
5774,54.3,19.122,0,-0.023667,0,5860.3,48.53,0,0,0,0,0.019697,2
5774,54.3,19.122,0,-0.023667,0,5860.3,48.53,0,0,0,0,0.019697,2
5774,54.3,19.122,0,-0.023667,0,5860.3,48.53,0,0,0,0,0.019697,2
5774,54.3,19.122,0,-0.023667,0,5860.3,48.53,0,0,0,0,0.019697,2
5774,54.3,19.122,0,-0.023667,0,5860.3,48.53,0,0,0,0,0.019697,2
5774,54.3,19.122,0,-0.023667,0,5860.3,48.53,0,0,0,0,0.019697,2
5774,54.3,19.122,0,-0.023667,0,5860.3,48.53,0,0,0,0,0.019697,2
5774,54.3,19.122,0,-0.023667,0,5860.3,48.53,0,0,0,0,0.019697,2
5774,54.3,19.122,0,-0.023667,0,5860.3,48.53,0,0,0,0,0.019697,2
5774,54.3,19.122,0,-0.023667,0,5860.3,48.53,0,0,0,0,0.019697,2
5774,54.3,19.122,0,-0.023667,0,5860.3,48.53,0,0,0,0,0.019697,2
5774,54.3,19.122,0,-0.023667,0,5860.3,48.53,0,0,0,0,0.019697,2
5774,54.3,19.122,0,-0.023667,0,5860.3,48.53,0,0,0,0,0.019697,2
5774,54.3,19.122,0,-0.023667,0,5860.3,48.53,0,0,0,0,0.019697,2
5774,54.3,19.122,0,-0.023667,0,5860.3,48.53,0,0,0,0,0.019697,2
5774,54.3,19.122,0,-0.023667,0,5860.3,48.53,0,0,0,0,0.019697,2
5774,54.3,19.122,0,-0.023667,0,5860.3,48.53,0,0,0,0,0.019697,2
5774,54.3,19.122,0,-0.023667,0,5860.3,48.53,0,0,0,0,0.019697,2
5774,54.3,19.122,0,-0.023667,0,5860.3,48.53,0,0,0,0,0.019697,2
5774,54.3,19.122,0,-0.023667,0,5860.3,48.53,0,0,0,0,0.019697,2
5776.6,54.3,19.119,0,-0.023165,0,5860.3,48.53,0,0,0,0,0.020324,2
5776.6,54.3,19.119,0,-0.023165,0,5860.3,48.53,0,0,0,0,0.020324,2
5776.6,54.3,19.119,0,-0.023165,0,5860.3,48.53,0,0,0,0,0.020324,2
5776.6,54.3,19.119,0,-0.023165,0,5860.3,48.53,0,0,0,0,0.020324,2
5779.3,54.3,19.115,0,-0.02266,0,5860.3,48.53,0,0,0,0,0.020992,2
5779.3,54.3,19.115,0,-0.02266,0,5860.3,48.53,0,0,0,0,0.020992,2
5779.3,54.3,19.115,0,-0.02266,0,5860.3,48.53,0,0,0,0,0.020992,2
5779.7,54.3,19.115,0,-0.022587,0,5860.3,48.53,0,0,0,0,0.021091,2
5779.7,54.3,19.115,0,-0.022587,0,5860.3,48.53,0,0,0,0,0.021091,2
5779.7,54.3,19.115,0,-0.022587,0,5860.3,48.53,0,0,0,0,0.021091,2
5779.7,54.3,19.115,0,-0.022587,0,5860.3,48.53,0,0,0,0,0.021091,2
5779.7,54.3,19.115,0,-0.022587,0,5860.3,48.53,0,0,0,0,0.021091,2
5779.7,54.3,19.115,0,-0.022587,0,5860.3,48.53,0,0,0,0,0.021091,2
5779.7,54.3,19.115,0,-0.022587,0,5860.3,48.53,0,0,0,0,0.021091,2
5779.7,54.3,19.115,0,-0.022587,0,5860.3,48.53,0,0,0,0,0.021091,2
5779.7,54.3,19.115,0,-0.022587,0,5860.3,48.53,0,0,0,0,0.021091,2
5780.1,54.3,19.115,0,-0.022515,0,5860.3,48.53,0,0,0,0,0.021191,2
5780.1,54.3,19.115,0,-0.022515,0,5860.3,48.53,0,0,0,0,0.021191,2
5780.1,54.3,19.115,0,-0.022515,0,5860.3,48.53,0,0,0,0,0.021191,2
5780.1,54.3,19.115,0,-0.022515,0,5860.3,48.53,0,0,0,0,0.021191,2
5780.1,54.3,19.115,0,-0.022515,0,5860.3,48.53,0,0,0,0,0.021191,2
5780.1,54.3,19.115,0,-0.022515,0,5860.3,48.53,0,0,0,0,0.021191,2
5780.1,54.3,19.115,0,-0.022515,0,5860.3,48.53,0,0,0,0,0.021191,2
5780.1,54.3,19.115,0,-0.022515,0,5860.3,48.53,0,0,0,0,0.021191,2
5780.8,54.3,19.114,0,-0.022372,0,5860.3,48.53,0,0,0,0,0.021394,2
5782.4,54.3,19.112,0,-0.022083,0,5860.3,48.53,0,0,0,0,0.021811,2
5782.4,54.3,19.112,0,-0.022083,0,5860.3,48.53,0,0,0,0,0.021811,2
5782.4,54.3,19.112,0,-0.022083,0,5860.3,48.53,0,0,0,0,0.021811,2
5782.4,54.3,19.112,0,-0.022083,0,5860.3,48.53,0,0,0,0,0.021811,2
5782.4,54.3,19.112,0,-0.022083,0,5860.3,48.53,0,0,0,0,0.021811,2
5783.9,54.3,19.11,0,-0.021793,0,5860.3,48.53,0,0,0,0,0.022245,2
5783.9,54.3,19.11,0,-0.021793,0,5860.3,48.53,0,0,0,0,0.022245,2
5783.9,54.3,19.11,0,-0.021793,0,5860.3,48.53,0,0,0,0,0.022245,2
5783.9,54.3,19.11,0,-0.021793,0,5860.3,48.53,0,0,0,0,0.022245,2
5783.9,54.3,19.11,0,-0.021793,0,5860.3,48.53,0,0,0,0,0.022245,2
5783.9,54.3,19.11,0,-0.021793,0,5860.3,48.53,0,0,0,0,0.022245,2
5783.9,54.3,19.11,0,-0.021793,0,5860.3,48.53,0,0,0,0,0.022245,2
5783.9,54.3,19.11,0,-0.021793,0,5860.3,48.53,0,0,0,0,0.022245,2
5783.9,54.3,19.11,0,-0.021793,0,5860.3,48.53,0,0,0,0,0.022245,2
5783.9,54.3,19.11,0,-0.021793,0,5860.3,48.53,0,0,0,0,0.022245,2
5783.9,54.3,19.11,0,-0.021793,0,5860.3,48.53,0,0,0,0,0.022245,2
5783.9,54.3,19.11,0,-0.021793,0,5860.3,48.53,0,0,0,0,0.022245,2
5783.9,54.3,19.11,0,-0.021793,0,5860.3,48.53,0,0,0,0,0.022245,2
5785,54.3,19.109,0,-0.021573,0,5860.3,48.53,0,0,0,0,0.022582,2
5785.8,54.3,19.108,0,-0.021426,0,5860.3,48.53,0,0,0,0,0.022812,2
5785.8,54.3,19.108,0,-0.021426,0,5860.3,48.53,0,0,0,0,0.022812,2
5785.8,54.3,19.108,0,-0.021426,0,5860.3,48.53,0,0,0,0,0.022812,2
5785.8,54.3,19.108,0,-0.021426,0,5860.3,48.53,0,0,0,0,0.022812,2
5785.8,54.3,19.108,0,-0.021426,0,5860.3,48.53,0,0,0,0,0.022812,2
5785.8,54.3,19.108,0,-0.021426,0,5860.3,48.53,0,0,0,0,0.022812,2
5785.8,54.3,19.108,0,-0.021426,0,5860.3,48.53,0,0,0,0,0.022812,2
5785.8,54.3,19.108,0,-0.021426,0,5860.3,48.53,0,0,0,0,0.022812,2
5785.8,54.3,19.108,0,-0.021426,0,5860.3,48.53,0,0,0,0,0.022812,2
5785.8,54.3,19.108,0,-0.021426,0,5860.3,48.53,0,0,0,0,0.022812,2
5785.8,54.3,19.108,0,-0.021426,0,5860.3,48.53,0,0,0,0,0.022812,2
5785.8,54.3,19.108,0,-0.021426,0,5860.3,48.53,0,0,0,0,0.022812,2
5785.8,54.3,19.108,0,-0.021426,0,5860.3,48.53,0,0,0,0,0.022812,2
5785.8,54.3,19.108,0,-0.021426,0,5860.3,48.53,0,0,0,0,0.022812,2
5785.8,54.3,19.108,0,-0.021426,0,5860.3,48.53,0,0,0,0,0.022812,2
5788.1,54.3,19.105,0,-0.020983,0,5860.3,48.53,0,0,0,0,0.023532,2
5788.1,54.3,19.105,0,-0.020983,0,5860.3,48.53,0,0,0,0,0.023532,2
5788.1,54.3,19.105,0,-0.020983,0,5860.3,48.53,0,0,0,0,0.023532,2
5788.1,54.3,19.105,0,-0.020983,0,5860.3,48.53,0,0,0,0,0.023532,2
5788.1,54.3,19.105,0,-0.020983,0,5860.3,48.53,0,0,0,0,0.023532,2
5788.1,54.3,19.105,0,-0.020983,0,5860.3,48.53,0,0,0,0,0.023532,2
5788.1,54.3,19.105,0,-0.020983,0,5860.3,48.53,0,0,0,0,0.023532,2
5790.4,54.3,19.103,0,-0.020542,0,5860.3,48.53,0,0,0,0,0.024298,2
5790.4,54.3,19.103,0,-0.020542,0,5860.3,48.53,0,0,0,0,0.024298,2
5790.4,54.3,19.103,0,-0.020542,0,5860.3,48.53,0,0,0,0,0.024298,2
5790.4,54.3,19.103,0,-0.020542,0,5860.3,48.53,0,0,0,0,0.024298,2
5790.4,54.3,19.103,0,-0.020542,0,5860.3,48.53,0,0,0,0,0.024298,2
5790.4,54.3,19.103,0,-0.020542,0,5860.3,48.53,0,0,0,0,0.024298,2
5790.4,54.3,19.103,0,-0.020542,0,5860.3,48.53,0,0,0,0,0.024298,2
5790.4,54.3,19.103,0,-0.020542,0,5860.3,48.53,0,0,0,0,0.024298,2
5791.5,54.3,19.102,0,-0.020317,0,5860.3,48.53,0,0,0,0,0.0247,2
5791.5,54.3,19.102,0,-0.020317,0,5860.3,48.53,0,0,0,0,0.0247,2
5791.5,54.3,19.102,0,-0.020317,0,5860.3,48.53,0,0,0,0,0.0247,2
5791.5,54.3,19.102,0,-0.020317,0,5860.3,48.53,0,0,0,0,0.0247,2
5791.5,54.3,19.102,0,-0.020317,0,5860.3,48.53,0,0,0,0,0.0247,2
5791.5,54.3,19.102,0,-0.020317,0,5860.3,48.53,0,0,0,0,0.0247,2
5791.5,54.3,19.102,0,-0.020317,0,5860.3,48.53,0,0,0,0,0.0247,2
5791.5,54.3,19.102,0,-0.020317,0,5860.3,48.53,0,0,0,0,0.0247,2
5793.1,54.3,19.1,0,-0.020021,0,5860.3,48.53,0,0,0,0,0.025257,2
5793.1,54.3,19.1,0,-0.020021,0,5860.3,48.53,0,0,0,0,0.025257,2
5793.8,54.3,19.099,0,-0.019873,0,5860.3,48.53,0,0,0,0,0.025545,2
5793.8,54.3,19.099,0,-0.019873,0,5860.3,48.53,0,0,0,0,0.025545,2
5793.8,54.3,19.099,0,-0.019873,0,5860.3,48.53,0,0,0,0,0.025545,2
5793.8,54.3,19.099,0,-0.019873,0,5860.3,48.53,0,0,0,0,0.025545,2
5794.6,54.3,19.099,0,-0.019722,0,5860.3,48.53,0,0,0,0,0.02584,2
5794.6,54.3,19.099,0,-0.019722,0,5860.3,48.53,0,0,0,0,0.02584,2
5794.6,54.3,19.099,0,-0.019722,0,5860.3,48.53,0,0,0,0,0.02584,2
5794.6,54.3,19.099,0,-0.019722,0,5860.3,48.53,0,0,0,0,0.02584,2
5794.6,54.3,19.099,0,-0.019722,0,5860.3,48.53,0,0,0,0,0.02584,2
5794.6,54.3,19.099,0,-0.019722,0,5860.3,48.53,0,0,0,0,0.02584,2
5794.6,54.3,19.099,0,-0.019722,0,5860.3,48.53,0,0,0,0,0.02584,2
5794.6,54.3,19.099,0,-0.019722,0,5860.3,48.53,0,0,0,0,0.02584,2
5794.6,54.3,19.099,0,-0.019722,0,5860.3,48.53,0,0,0,0,0.02584,2
5794.6,54.3,19.099,0,-0.019722,0,5860.3,48.53,0,0,0,0,0.02584,2
5794.6,54.3,19.099,0,-0.019722,0,5860.3,48.53,0,0,0,0,0.02584,2
5794.6,54.3,19.099,0,-0.019722,0,5860.3,48.53,0,0,0,0,0.02584,2
5794.6,54.3,19.099,0,-0.019722,0,5860.3,48.53,0,0,0,0,0.02584,2
5794.6,54.3,19.099,0,-0.019722,0,5860.3,48.53,0,0,0,0,0.02584,2
5794.6,54.3,19.099,0,-0.019722,0,5860.3,48.53,0,0,0,0,0.02584,2
5794.6,54.3,19.099,0,-0.019722,0,5860.3,48.53,0,0,0,0,0.02584,2
5794.6,54.3,19.099,0,-0.019722,0,5860.3,48.53,0,0,0,0,0.02584,2
5794.6,54.3,19.099,0,-0.019722,0,5860.3,48.53,0,0,0,0,0.02584,2
5794.6,54.3,19.099,0,-0.019722,0,5860.3,48.53,0,0,0,0,0.02584,2
5798.8,54.3,19.094,0,-0.018898,0,5860.3,48.53,0,0,0,0,0.027589,2
5799.2,54.3,19.094,0,-0.018823,0,5860.3,48.53,0,0,0,0,0.02776,2
5799.2,54.3,19.094,0,-0.018823,0,5860.3,48.53,0,0,0,0,0.02776,2
5799.2,54.3,19.094,0,-0.018823,0,5860.3,48.53,0,0,0,0,0.02776,2
5799.2,54.3,19.094,0,-0.018823,0,5860.3,48.53,0,0,0,0,0.02776,2
5799.2,54.3,19.094,0,-0.018823,0,5860.3,48.53,0,0,0,0,0.02776,2
5799.2,54.3,19.094,0,-0.018823,0,5860.3,48.53,0,0,0,0,0.02776,2
5799.2,54.3,19.094,0,-0.018823,0,5860.3,48.53,0,0,0,0,0.02776,2
5799.2,54.3,19.094,0,-0.018823,0,5860.3,48.53,0,0,0,0,0.02776,2
5799.2,54.3,19.094,0,-0.018823,0,5860.3,48.53,0,0,0,0,0.02776,2
5799.2,54.3,19.094,0,-0.018823,0,5860.3,48.53,0,0,0,0,0.02776,2
5799.2,54.3,19.094,0,-0.018823,0,5860.3,48.53,0,0,0,0,0.02776,2
5799.2,54.3,19.094,0,-0.018823,0,5860.3,48.53,0,0,0,0,0.02776,2
5799.2,54.3,19.094,0,-0.018823,0,5860.3,48.53,0,0,0,0,0.02776,2
5799.2,54.3,19.094,0,-0.018823,0,5860.3,48.53,0,0,0,0,0.02776,2
5799.2,54.3,19.094,0,-0.018823,0,5860.3,48.53,0,0,0,0,0.02776,2
5799.2,54.3,19.094,0,-0.018823,0,5860.3,48.53,0,0,0,0,0.02776,2
5799.2,54.3,19.094,0,-0.018823,0,5860.3,48.53,0,0,0,0,0.02776,2
5799.2,54.3,19.094,0,-0.018823,0,5860.3,48.53,0,0,0,0,0.02776,2
5800.3,54.3,19.093,0,-0.018595,0,5860.3,48.53,0,0,0,0,0.028285,2
5800.3,54.3,19.093,0,-0.018595,0,5860.3,48.53,0,0,0,0,0.028285,2
5800.3,54.3,19.093,0,-0.018595,0,5860.3,48.53,0,0,0,0,0.028285,2
5800.3,54.3,19.093,0,-0.018595,0,5860.3,48.53,0,0,0,0,0.028285,2
5802.2,54.3,19.091,0,-0.018216,0,5860.3,48.53,0,0,0,0,0.029206,2
5802.2,54.3,19.091,0,-0.018216,0,5860.3,48.53,0,0,0,0,0.029206,2
5802.2,54.3,19.091,0,-0.018216,0,5860.3,48.53,0,0,0,0,0.029206,2
5802.2,54.3,19.091,0,-0.018216,0,5860.3,48.53,0,0,0,0,0.029206,2
5802.2,54.3,19.091,0,-0.018216,0,5860.3,48.53,0,0,0,0,0.029206,2
5802.2,54.3,19.091,0,-0.018216,0,5860.3,48.53,0,0,0,0,0.029206,2
5802.2,54.3,19.091,0,-0.018216,0,5860.3,48.53,0,0,0,0,0.029206,2
5802.2,54.3,19.091,0,-0.018216,0,5860.3,48.53,0,0,0,0,0.029206,2
5802.2,54.3,19.091,0,-0.018216,0,5860.3,48.53,0,0,0,0,0.029206,2
5802.2,54.3,19.091,0,-0.018216,0,5860.3,48.53,0,0,0,0,0.029206,2
5803.8,54.3,19.089,0,-0.017912,0,5860.3,48.53,0,0,0,0,0.029987,2
5803.8,54.3,19.089,0,-0.017912,0,5860.3,48.53,0,0,0,0,0.029987,2
5803.8,54.3,19.089,0,-0.017912,0,5860.3,48.53,0,0,0,0,0.029987,2
5803.8,54.3,19.089,0,-0.017912,0,5860.3,48.53,0,0,0,0,0.029987,2
5803.8,54.3,19.089,0,-0.017912,0,5860.3,48.53,0,0,0,0,0.029987,2
5804.9,54.3,19.088,0,-0.017685,0,5860.3,48.53,0,0,0,0,0.0306,2
5806.1,54.3,19.087,0,-0.017455,0,5860.3,48.53,0,0,0,0,0.031238,2
5806.1,54.3,19.087,0,-0.017455,0,5860.3,48.53,0,0,0,0,0.031238,2
5806.1,54.3,19.087,0,-0.017455,0,5860.3,48.776,0,0,0,0,0.031253,2
5806.1,54.3,19.087,0,-0.017455,0,5860.3,48.836,0,0,0,0,0.031257,2
5806.1,54.3,19.087,0,-0.017455,0,5860.3,48.836,0,0,0,0,0.031257,2
5806.1,54.3,19.087,0,-0.017455,0,5860.3,48.836,0,0,0,0,0.031257,2
5806.1,54.3,19.087,0,-0.017455,0,5860.3,48.836,0,0,0,0,0.031257,2
5806.1,54.3,19.087,0,-0.017455,0,5860.3,48.836,0,0,0,0,0.031257,2
5806.1,54.3,19.087,0,-0.017455,0,5860.3,48.897,0,0,0,0,0.03126,2
5806.1,54.3,19.087,0,-0.017455,0,5860.3,48.957,0,0,0,0,0.031264,2
5806.1,54.3,19.087,0,-0.017455,0,5860.3,48.957,0,0,0,0,0.031264,2
5806.1,54.3,19.087,0,-0.017455,0,5860.3,48.957,0,0,0,0,0.031264,2
5806.1,54.3,19.087,0,-0.017455,0,5860.3,48.957,0,0,0,0,0.031264,2
5806.1,54.3,19.087,0,-0.017455,0,5860.3,48.957,0,0,0,0,0.031264,2
5806.1,54.3,19.087,0,-0.017455,0,5860.3,48.957,0,0,0,0,0.031264,2
5806.1,54.3,19.087,0,-0.017455,0,5860.3,48.957,0,0,0,0,0.031264,2
5806.1,54.3,19.087,0,-0.017455,0,5860.3,49.018,-0.012207,4.0679,-0.10173,33.899,0.031248,2
5808.3,54.3,19.085,0,-0.016996,0,5860.3,49.018,-0.012207,4.0679,-0.10173,33.899,0.032611,2
5808.3,54.3,19.085,0,-0.016996,0,5860.3,49.018,-0.012207,4.0679,-0.10173,33.899,0.032611,2
5808.3,54.3,19.085,0,-0.016996,0,5860.3,49.139,-0.012207,4.0679,-0.10173,33.899,0.03262,2
5808.3,54.3,19.085,0,-0.016996,0,5860.3,49.139,-0.012207,4.0679,-0.10173,33.899,0.03262,2
5809.9,54.3,19.084,0,-0.016688,0,5860.3,49.2,-0.012207,4.0679,-0.10173,33.899,0.033601,2
5809.9,54.3,19.084,0,-0.016688,0,5860.3,49.2,-0.012207,4.0679,-0.10173,33.899,0.033601,2
5809.9,54.3,19.084,0,-0.016688,0,5860.3,49.382,-0.016276,3.0305,-0.033908,-8.6451,0.033606,2
5809.9,54.3,19.084,0,-0.016688,0,5860.3,49.382,-0.016276,3.0305,-0.033908,-8.6451,0.033606,2
5809.9,54.3,19.084,0,-0.016688,0,5860.3,49.442,-0.016276,3.0305,-0.033908,-8.6451,0.033611,2
5809.9,54.3,19.084,0,-0.016688,0,5860.3,49.503,-0.016276,3.0305,-0.033908,-8.6451,0.033614,2
5809.9,54.3,19.084,0,-0.016688,0,5860.3,49.503,-0.016276,3.0305,-0.033908,-8.6451,0.033614,2
5809.9,54.3,19.084,0,-0.016688,0,5860.3,49.563,-0.016276,3.0305,-0.033908,-8.6451,0.033619,2
5809.9,54.3,19.084,0,-0.016688,0,5860.3,49.563,-0.016276,3.0305,-0.033908,-8.6451,0.033619,2
5809.9,54.3,19.084,0,-0.016688,0,5860.3,49.563,-0.016276,3.0305,-0.033908,-8.6451,0.033619,2
5811.8,54.3,19.082,0,-0.016303,0,5860.3,49.563,-0.016276,3.0305,-0.033908,-8.6451,0.034928,2
5812.2,54.3,19.082,0,-0.016226,0,5860.3,49.563,-0.016276,3.0305,-0.033908,-8.6451,0.035202,2
5812.2,54.3,19.082,0,-0.016226,0,5860.3,49.563,-0.016276,3.0305,-0.033908,-8.6451,0.035202,2
5812.2,54.3,19.082,0,-0.016226,0,5860.3,49.563,-0.016276,3.0305,-0.033908,-8.6451,0.035202,2
5812.5,54.3,19.082,0,-0.01615,0,5860.3,49.563,-0.016276,3.0305,-0.033908,-8.6451,0.03548,2
5812.5,54.3,19.082,0,-0.01615,0,5860.3,49.806,-0.016276,3.0305,0,0.00026491,0.035498,2
5812.5,54.3,19.082,0,-0.01615,0,5860.3,49.806,-0.016276,3.0305,0,0.00026491,0.035498,2
5812.5,54.3,19.082,0,-0.01615,0,5860.3,49.806,-0.016276,3.0305,0,0.00026491,0.035498,2
5812.5,54.3,19.082,0,-0.01615,0,5860.3,49.806,-0.016276,3.0305,0,0.00026491,0.035498,2
5812.5,54.3,19.082,0,-0.01615,0,5860.3,49.867,-0.016276,3.0305,0,0.00026491,0.035503,2
5812.5,54.3,19.082,0,-0.01615,0,5860.3,49.867,-0.016276,3.0305,0,0.00026491,0.035503,2
5813.7,54.3,19.081,0,-0.015915,0,5860.3,49.867,-0.016276,3.0305,0,0.00026491,0.036367,2
5813.7,54.3,19.081,0,-0.015915,0,5860.3,49.867,-0.016276,3.0305,0,0.00026491,0.036367,2
5813.7,54.3,19.081,0,-0.015915,0,5860.3,49.867,-0.016276,3.0305,0,0.00026491,0.036367,2
5813.7,54.3,19.081,0,-0.015915,0,5860.3,49.988,-0.016276,3.0305,0,0.00026491,0.036376,2
5813.7,54.3,19.081,0,-0.015915,0,5860.3,49.988,-0.016276,3.0305,0,0.00026491,0.036376,2
5813.7,54.3,19.081,0,-0.015915,0,5860.3,49.988,-0.016276,3.0305,0,0.00026491,0.036376,2
5813.7,54.3,19.081,0,-0.015915,0,5860.3,49.988,-0.016276,3.0305,0,0.00026491,0.036376,2
5813.7,54.3,19.081,0,-0.015915,0,5860.3,50.109,-0.012207,3.0305,0.033908,0,0.036392,2
5813.7,54.3,19.081,0,-0.015915,0,5860.3,50.17,-0.012207,3.0305,0.033908,0,0.036397,2
5813.7,54.3,19.081,0,-0.015915,0,5860.3,50.17,-0.012207,3.0305,0.033908,0,0.036397,2
5813.7,54.3,19.081,0,-0.015915,0,5860.3,50.23,-0.012207,3.0305,0.033908,0,0.036401,2
5813.7,54.3,19.081,0,-0.015915,0,5860.3,50.23,-0.012207,3.0305,0.033908,0,0.036401,2
5813.7,54.3,19.081,0,-0.015915,0,5860.3,50.23,-0.012207,3.0305,0.033908,0,0.036401,2
5816.4,54.3,19.078,0,-0.015374,0,5860.3,50.291,-0.012207,3.0305,0.033908,0,0.0386,2
5816.4,54.3,19.078,0,-0.015374,0,5860.3,50.291,-0.012207,3.0305,0.033908,0,0.0386,2
5816.4,54.3,19.078,0,-0.015374,0,5860.3,50.291,-0.012207,3.0305,0.033908,0,0.0386,2
5816.4,54.3,19.078,0,-0.015374,0,5860.3,50.291,-0.012207,3.0305,0.033908,0,0.0386,2
5816.7,54.3,19.078,0,-0.015297,0,5860.3,50.291,-0.012207,3.0305,0.033908,0,0.038935,2
5816.7,54.3,19.078,0,-0.015297,0,5860.3,50.473,-0.016276,3.0305,-0.033908,0,0.038942,2
5817.5,54.3,19.078,0,-0.01514,0,5860.3,50.473,-0.016276,3.0305,-0.033908,0,0.039631,2
5817.5,54.3,19.078,0,-0.01514,0,5860.3,50.473,-0.016276,3.0305,-0.033908,0,0.039631,2
5817.5,54.3,19.078,0,-0.01514,0,5860.3,50.473,-0.016276,3.0305,-0.033908,0,0.039631,2
5817.5,54.3,19.078,0,-0.01514,0,5860.3,50.473,-0.016276,3.0305,-0.033908,0,0.039631,2
5817.5,54.3,19.078,0,-0.01514,0,5860.3,50.473,-0.016276,3.0305,-0.033908,0,0.039631,2
5817.5,54.3,19.078,0,-0.01514,0,5860.3,50.473,-0.016276,3.0305,-0.033908,0,0.039631,2
5817.9,54.3,19.077,0,-0.015062,0,5860.3,50.473,-0.016276,3.0305,-0.033908,0,0.039984,2
5817.9,54.3,19.077,0,-0.015062,0,5860.3,50.473,-0.016276,3.0305,-0.033908,0,0.039984,2
5817.9,54.3,19.077,0,-0.015062,0,5860.3,50.654,-0.016276,3.0305,-0.033908,0,0.04,2
5818.6,54.3,19.077,0,-0.014907,0,5860.3,50.654,-0.016276,3.0305,-0.033908,0,0.040727,2
5818.6,54.3,19.077,0,-0.014907,0,5860.3,50.654,-0.016276,3.0305,-0.033908,0,0.040727,2
5818.6,54.3,19.077,0,-0.014907,0,5860.3,50.776,-0.016276,3.0305,-0.033908,0,0.040738,2
5819.8,54.3,19.076,0,-0.01467,0,5860.3,50.776,-0.016276,3.0305,-0.033908,0,0.04188,2
5820.2,54.3,19.075,0,-0.014592,0,5860.3,50.776,-0.016276,3.0305,-0.033908,0,0.042275,2
5820.2,54.3,19.075,0,-0.014592,0,5860.3,51.018,-0.016276,3.0305,0,0,0.042297,2
5820.2,54.3,19.075,0,-0.014592,0,5860.3,51.018,-0.016276,3.0305,0,0,0.042297,2
5820.2,54.3,19.075,0,-0.014592,0,5860.3,51.018,-0.016276,3.0305,0,0,0.042297,2
5820.2,54.3,19.075,0,-0.014592,0,5860.3,51.079,-0.016276,3.0305,0,0,0.042303,2
5820.2,54.3,19.075,0,-0.014592,0,5860.3,51.079,-0.016276,3.0305,0,0,0.042303,2
5820.2,54.3,19.075,0,-0.014592,0,5860.3,51.139,-0.016276,3.0305,0,0,0.042309,2
5820.2,54.3,19.075,0,-0.014592,0,5860.3,51.139,-0.016276,3.0305,0,0,0.042309,2
5820.2,54.3,19.075,0,-0.014592,0,5860.3,51.139,-0.016276,3.0305,0,0,0.042309,2
5820.2,54.3,19.075,0,-0.014592,0,5860.3,51.139,-0.016276,3.0305,0,0,0.042309,2
5820.2,54.3,19.075,0,-0.014592,0,5860.3,51.139,-0.016276,3.0305,0,0,0.042309,2
5820.2,54.3,19.075,0,-0.014592,0,5860.3,51.139,-0.016276,3.0305,0,0,0.042309,2
5820.2,54.3,19.075,0,-0.014592,0,5860.3,51.139,-0.016276,3.0305,0,0,0.042309,2
5820.2,54.3,19.075,0,-0.014592,0,5860.3,51.139,-0.016276,3.0305,0,0,0.042309,2
5820.2,54.3,19.075,0,-0.014592,0,5860.3,51.139,-0.016276,3.0305,0,0,0.042309,2
5821.7,54.3,19.074,0,-0.014279,0,5860.3,51.139,-0.016276,3.0305,0,0,0.04397,2
5821.7,54.3,19.074,0,-0.014279,0,5860.3,51.261,-0.012207,3.0305,0.033908,0,0.04399,2
5821.7,54.3,19.074,0,-0.014279,0,5860.3,51.261,-0.012207,3.0305,0.033908,0,0.04399,2
5821.7,54.3,19.074,0,-0.014279,0,5860.3,51.321,-0.012207,3.0305,0.033908,0,0.043995,2
5823.6,54.3,19.073,0,-0.013888,0,5860.3,51.382,-0.012207,3.0305,0.033908,0,0.046273,2
5824.4,54.3,19.072,0,-0.01373,0,5860.3,51.564,-0.016276,3.0305,-0.033908,0,0.04726,2
5824.4,54.3,19.072,0,-0.01373,0,5860.3,51.685,-0.016276,3.0305,-0.033908,0,0.047272,2
5824.4,54.3,19.072,0,-0.01373,0,5860.3,51.685,-0.016276,3.0305,-0.033908,0,0.047272,2
5824.4,54.3,19.072,0,-0.01373,0,5860.3,51.685,-0.016276,3.0305,-0.033908,0,0.047272,2
5824.4,54.3,19.072,0,-0.01373,0,5860.3,51.685,-0.016276,3.0305,-0.033908,0,0.047272,2
5824.4,54.3,19.072,0,-0.01373,0,5860.3,51.685,-0.016276,3.0305,-0.033908,0,0.047272,2
5824.4,54.3,19.072,0,-0.01373,0,5860.3,51.685,-0.016276,3.0305,-0.033908,0,0.047272,2
5824.4,54.3,19.072,0,-0.01373,0,5860.3,51.685,-0.016276,3.0305,-0.033908,0,0.047272,2
5824.4,54.3,19.072,0,-0.01373,0,5860.3,51.685,-0.016276,3.0305,-0.033908,0,0.047272,2
5824.4,54.3,19.072,0,-0.01373,0,5860.3,51.685,-0.016276,3.0305,-0.033908,0,0.047272,2
5824.4,54.3,19.072,0,-0.01373,0,5860.3,51.685,-0.016276,3.0305,-0.033908,0,0.047272,2
5825.1,54.3,19.072,0,-0.013574,0,5860.3,51.685,-0.016276,3.0305,-0.033908,0,0.048292,2
5825.1,54.3,19.072,0,-0.013574,0,5860.3,51.685,-0.016276,3.0305,-0.033908,0,0.048292,2
5825.1,54.3,19.072,0,-0.013574,0,5860.3,51.685,-0.016276,3.0305,-0.033908,0,0.048292,2
5825.1,54.3,19.072,0,-0.013574,0,5860.3,51.685,-0.016276,3.0305,-0.033908,0,0.048292,2
5825.1,54.3,19.072,0,-0.013574,0,5860.3,51.685,-0.016276,3.0305,-0.033908,0,0.048292,2
5825.1,54.3,19.072,0,-0.013574,0,5860.3,51.685,-0.016276,3.0305,-0.033908,0,0.048292,2
5825.1,54.3,19.072,0,-0.013574,0,5860.3,51.685,-0.016276,3.0305,-0.033908,0,0.048292,2
5825.1,54.3,19.072,0,-0.013574,0,5860.3,51.685,-0.016276,3.0305,-0.033908,0,0.048292,2
5825.1,54.3,19.072,0,-0.013574,0,5860.3,51.685,-0.016276,3.0305,-0.033908,0,0.048292,2
5825.1,54.3,19.072,0,-0.013574,0,5860.3,51.806,-0.016276,3.0305,-0.033908,0,0.048304,2
5825.1,54.3,19.072,0,-0.013574,0,5860.3,51.806,-0.016276,3.0305,-0.033908,0,0.048304,2
5827,54.3,19.07,0,-0.013178,0,5860.3,51.867,-0.016276,3.0305,-0.033908,0,0.051065,2
5828.2,54.3,19.07,0,-0.012941,0,5860.3,52.109,-0.012207,3.0305,0.033908,0,0.052915,2
5828.2,54.3,19.07,0,-0.012941,0,5860.3,52.352,-0.016276,3.0305,-0.033908,0,0.052932,2
5828.2,54.3,19.07,0,-0.012941,0,5860.3,52.412,-0.016276,3.0305,-0.033908,0,0.052938,2
5828.2,54.3,19.07,0,-0.012941,0,5860.3,52.412,-0.016276,3.0305,-0.033908,0,0.052938,2
5828.2,54.3,19.07,0,-0.012941,0,5860.3,52.412,-0.016276,3.0305,-0.033908,0,0.052938,2
5828.2,54.3,19.07,0,-0.012941,0,5860.3,52.412,-0.016276,3.0305,-0.033908,0,0.052938,2
5828.2,54.3,19.07,0,-0.012941,0,5860.3,52.412,-0.016276,3.0305,-0.033908,0,0.052938,2
5828.2,54.3,19.07,0,-0.012941,0,5860.3,52.412,-0.016276,3.0305,-0.033908,0,0.052938,2
5828.2,54.3,19.07,0,-0.012941,0,5860.3,52.412,-0.016276,3.0305,-0.033908,0,0.052938,2
5828.2,54.3,19.07,0,-0.012941,0,5860.3,52.412,-0.016276,3.0305,-0.033908,0,0.052938,2
5828.2,54.3,19.07,0,-0.012941,0,5860.3,52.412,-0.016276,3.0305,-0.033908,0,0.052938,2
5829.7,54.3,19.069,0,-0.012626,0,5860.3,52.412,-0.016276,3.0305,-0.033908,0,0.055567,2
5829.7,54.3,19.069,0,-0.012626,0,5860.3,52.412,-0.016276,3.0305,-0.033908,0,0.055567,2
5829.7,54.3,19.069,0,-0.012626,0,5860.3,52.412,-0.016276,3.0305,-0.033908,0,0.055567,2
5829.7,54.3,19.069,0,-0.012626,0,5860.3,52.412,-0.016276,3.0305,-0.033908,0,0.055567,2
5829.7,54.3,19.069,0,-0.012626,0,5860.3,52.412,-0.016276,3.0305,-0.033908,0,0.055567,2
5829.7,54.3,19.069,0,-0.012626,0,5860.3,52.412,-0.016276,3.0305,-0.033908,0,0.055567,2
5829.7,54.3,19.069,0,-0.012626,0,5860.3,52.412,-0.016276,3.0305,-0.033908,0,0.055567,2
5829.7,54.3,19.069,0,-0.012626,0,5860.3,52.412,-0.016276,3.0305,-0.033908,0,0.055567,2
5829.7,54.3,19.069,0,-0.012626,0,5860.3,52.412,-0.016276,3.0305,-0.033908,0,0.055567,2
5829.7,54.3,19.069,0,-0.012626,0,5860.3,52.412,-0.016276,3.0305,-0.033908,0,0.055567,2
5829.7,54.3,19.069,0,-0.012626,0,5860.3,52.533,-0.016276,3.0305,-0.033908,0,0.055581,2
5829.7,54.3,19.069,0,-0.012626,0,5860.3,52.533,-0.016276,3.0305,-0.033908,0,0.055581,2
5831.6,54.3,19.067,0,-0.012229,0,5860.3,52.594,-0.016276,3.0305,-0.033908,0,0.05927,2
5831.6,54.3,19.067,0,-0.012229,0,5860.3,52.594,-0.016276,3.0305,-0.033908,0,0.05927,2
5833.1,54.3,19.066,0,-0.01191,0,5860.3,52.836,-0.016276,3.0305,0,0,0.062621,2
5833.1,54.3,19.066,0,-0.01191,0,5860.3,52.836,-0.016276,3.0305,0,0,0.062621,2
5833.9,54.3,18.966,0,-10,0,5860.3,53.079,-0.012207,3.0305,0.033908,-0.00026491,0.064468,2
5833.9,54.3,18.966,0,-10,0,5860.3,53.079,-0.012207,3.0305,0.033908,-0.00026491,0.064468,2
5833.9,54.3,18.966,0,-10,0,5860.3,53.079,-0.012207,3.0305,0.033908,-0.00026491,0.064468,2
5833.9,54.3,18.966,0,-10,0,5860.3,53.079,-0.012207,3.0305,0.033908,-0.00026491,0.064468,2
5833.9,54.3,18.966,0,-10,0,5860.3,53.079,-0.012207,3.0305,0.033908,-0.00026491,0.064468,2
5833.9,54.3,18.966,0,-10,0,5860.3,53.079,-0.012207,3.0305,0.033908,-0.00026491,0.064468,2
5833.9,54.3,18.966,0,-10,0,5860.3,53.079,-0.012207,3.0305,0.033908,-0.00026491,0.064468,2
5833.9,54.3,18.966,0,-10,0,5860.3,53.2,-0.012207,3.0305,0.033908,-0.00026491,0.064482,2
5833.9,54.3,18.966,0,-10,0,5860.3,53.2,-0.012207,3.0305,0.033908,-0.00026491,0.064482,2
5833.9,54.3,18.966,0,-10,0,5860.3,53.2,-0.012207,3.0305,0.033908,-0.00026491,0.064482,2
5833.9,54.3,18.966,0,-10,0,5860.3,53.2,-0.012207,3.0305,0.033908,-0.00026491,0.064482,2
5834.7,54.3,18.566,0,-10,0,5860.3,53.2,-0.012207,3.0305,0.033908,-0.00026491,0.066366,2
5834.7,54.3,18.566,0,-10,0,5860.3,53.2,-0.012207,3.0305,0.033908,-0.00026491,0.066366,2
5834.7,54.3,18.566,0,-10,0,5860.3,53.2,-0.012207,3.0305,0.033908,-0.00026491,0.066366,2
5834.7,54.3,18.566,0,-10,0,5860.3,53.2,-0.012207,3.0305,0.033908,-0.00026491,0.066366,2
5834.7,54.3,18.566,0,-10,0,5860.3,53.2,-0.012207,3.0305,0.033908,-0.00026491,0.066366,2
5834.7,54.3,18.566,0,-10,0,5860.3,53.2,-0.012207,3.0305,0.033908,-0.00026491,0.066366,2
5834.7,54.3,18.566,0,-10,0,5860.3,53.2,-0.012207,3.0305,0.033908,-0.00026491,0.066366,2
5835,54.3,18.366,0,-10,0,5860.3,53.2,-0.012207,3.0305,0.033908,-0.00026491,0.067333,2
5835,54.3,18.366,0,-10,0,5860.3,53.2,-0.012207,3.0305,0.033908,-0.00026491,0.067333,2
5835,54.3,18.366,0,-10,0,5860.3,53.443,-0.016276,3.0305,-0.033908,0.00026491,0.067349,2
5836.5,54.3,17.566,0,-10,0,5860.3,53.503,-0.016276,3.0305,-0.033908,0.00026491,0.07141,2
5836.5,54.3,17.566,0,-10,0,5860.3,53.503,-0.016276,3.0305,-0.033908,0.00026491,0.07141,2
5837.8,54.3,16.766,0,-10,0,5860.3,53.746,-0.016276,3.0305,0,0,0.075798,2
5837.8,54.3,16.766,0,-10,0,5860.3,53.867,-0.016276,3.0305,0,0,0.075809,2
5837.8,54.3,16.766,0,-10,0,5860.3,53.867,-0.016276,3.0305,0,0,0.075809,2
5837.8,54.3,16.766,0,-10,0,5860.3,53.867,-0.016276,3.0305,0,0,0.075809,2
5837.8,54.3,16.766,0,-10,0,5860.3,53.867,-0.016276,3.0305,0,0,0.075809,2
5837.8,54.3,16.766,0,-10,0,5860.3,53.867,-0.016276,3.0305,0,0,0.075809,2
5837.8,54.3,16.766,0,-10,0,5860.3,53.867,-0.016276,3.0305,0,0,0.075809,2
5837.8,54.3,16.766,0,-10,0,5860.3,53.867,-0.016276,3.0305,0,0,0.075809,2
5837.8,54.3,16.766,0,-10,0,5860.3,53.867,-0.016276,3.0305,0,0,0.075809,2
5837.8,54.3,16.766,0,-10,0,5860.3,53.867,-0.016276,3.0305,0,0,0.075809,2
5838.5,54.3,16.366,0,-10,0,5860.3,53.867,-0.016276,3.0305,0,0,0.078111,2
5838.5,54.3,16.366,0,-10,0,5860.3,53.867,-0.016276,3.0305,0,0,0.078111,2
5838.5,54.3,16.366,0,-10,0,5860.3,53.867,-0.016276,3.0305,0,0,0.078111,2
5838.5,54.3,16.366,0,-10,0,5860.3,53.867,-0.016276,3.0305,0,0,0.078111,2
5838.5,54.3,16.366,0,-10,0,5860.3,53.867,-0.016276,3.0305,0,0,0.078111,2
5838.5,54.3,16.366,0,-10,0,5860.3,53.867,-0.016276,3.0305,0,0,0.078111,2
5838.5,54.3,16.366,0,-10,0,5860.3,53.867,-0.016276,3.0305,0,0,0.078111,2
5838.8,54.3,16.166,0,-10,0,5860.3,53.867,-0.016276,3.0305,0,0,0.079294,2
5839.1,54.3,15.966,0,-10,0,5860.3,53.867,-0.016276,3.0305,0,0,0.080498,2
5840.1,54.3,15.366,0,-10,0,5860.3,54.17,-0.012207,3.0305,0.033908,0,0.084279,2
5840.1,54.3,15.366,0,-10,0,5860.3,54.17,-0.012207,3.0305,0.033908,0,0.084279,2
5841.3,54.3,14.566,0,-10,0,5860.3,54.352,-0.012207,3.0305,0.033908,0,0.08959,2
5841.3,54.3,14.566,0,-10,0,5860.3,54.352,-0.012207,3.0305,0.033908,0,0.08959,2
5841.3,54.3,14.566,0,-10,0,5860.3,54.352,-0.012207,3.0305,0.033908,0,0.08959,2
5841.3,54.3,14.566,0,-10,0,5860.3,54.352,-0.012207,3.0305,0.033908,0,0.08959,2
5841.3,54.3,14.566,0,-10,0,5860.3,54.352,-0.012207,3.0305,0.033908,0,0.08959,2
5841.3,54.3,14.566,0,-10,0,5860.3,54.352,-0.012207,3.0305,0.033908,0,0.08959,2
5841.3,54.3,14.566,0,-10,0,5860.3,54.352,-0.012207,3.0305,0.033908,0,0.08959,2
5841.3,54.3,14.566,0,-10,0,5860.3,54.352,-0.012207,3.0305,0.033908,0,0.08959,2
5841.3,54.3,14.566,0,-10,0,5860.3,54.534,-0.016276,3.0305,-0.033908,0,0.089568,2
5841.3,54.3,14.566,0,-10,0,5860.3,54.534,-0.016276,3.0305,-0.033908,0,0.089568,2
5841.3,54.3,14.566,0,-10,0,5860.3,54.534,-0.016276,3.0305,-0.033908,0,0.089568,2
5841.9,54.3,14.166,0,-10,0,5860.3,54.534,-0.016276,3.0305,-0.033908,0,0.092358,2
5841.9,54.3,14.166,0,-10,0,5860.3,54.534,-0.016276,3.0305,-0.033908,0,0.092358,2
5841.9,54.3,14.166,0,-10,0,5860.3,54.534,-0.016276,3.0305,-0.033908,0,0.092358,2
5841.9,54.3,14.166,0,-10,0,5860.3,54.534,-0.016276,3.0305,-0.033908,0,0.092358,2
5841.9,54.3,14.166,0,-10,0,5860.3,54.534,-0.016276,3.0305,-0.033908,0,0.092358,2
5841.9,54.3,14.166,0,-10,0,5860.3,54.534,-0.016276,3.0305,-0.033908,0,0.092358,2
5841.9,54.3,14.166,0,-10,0,5860.3,54.534,-0.016276,3.0305,-0.033908,0,0.092358,2
5841.9,54.3,14.166,0,-10,0,5860.3,54.655,-0.016276,3.0305,-0.033908,0,0.092353,2
5843,54.3,13.366,0,-10,0,5860.3,54.655,-0.016276,3.0305,-0.033908,0,0.098216,2
5843,54.3,13.366,0,-10,0,5860.3,54.655,-0.016276,3.0305,-0.033908,0,0.098216,2
5843,54.3,13.366,0,-10,0,5860.3,54.655,-0.016276,3.0305,-0.033908,0,0.098216,2
5843,54.3,13.366,0,-10,0,5860.3,54.655,-0.016276,3.0305,-0.033908,0,0.098216,2
5843.2,54.3,13.166,0,-10,0,5860.3,54.655,-0.016276,3.0305,-0.033908,0,0.099741,2
5843.2,54.3,13.166,0,-10,0,5860.3,54.655,-0.016276,3.0305,-0.033908,0,0.099741,2
5844.2,54.3,12.366,0,-10,0,5860.3,54.958,-0.016276,3.0305,0,0,0.10603,2
5844.2,54.3,12.366,0,-10,0,5860.3,54.958,-0.016276,3.0305,0,0,0.10603,2
5844.2,54.3,12.366,0,-10,0,5860.3,54.958,-0.016276,3.0305,0,0,0.10603,2
5844.2,54.3,12.366,0,-10,0,5860.3,54.958,-0.016276,3.0305,0,0,0.10603,2
5844.2,54.3,12.366,0,-10,0,5860.3,54.958,-0.016276,3.0305,0,0,0.10603,2
5844.5,54.3,12.166,0,-10,0,5860.3,54.958,-0.016276,3.0305,0,0,0.10767,2
5844.5,54.3,12.166,0,-10,0,5860.3,55.261,-0.012207,3.0305,0.033908,0,0.1076,2
5845,54.3,11.766,0,-10,0,5860.3,55.261,-0.012207,3.0305,0.033908,0,0.11095,2
5845,54.3,11.766,0,-10,0,5860.3,55.261,-0.012207,3.0305,0.033908,0,0.11095,2
5845,54.3,11.766,0,-10,0,5860.3,55.261,-0.012207,3.0305,0.033908,0,0.11095,2
5845,54.3,11.766,0,-10,0,5860.3,55.261,-0.012207,3.0305,0.033908,0,0.11095,2
5845,54.3,11.766,0,-10,0,5860.3,55.261,-0.012207,3.0305,0.033908,0,0.11095,2
5845.2,54.3,11.566,0,-10,0,5860.3,55.261,-0.012207,3.0305,0.033908,0,0.11265,2
5845.2,54.3,11.566,0,-10,0,5860.3,55.261,-0.012207,3.0305,0.033908,0,0.11265,2
5845.2,54.3,11.566,0,-10,0,5860.3,55.503,-0.012207,3.0305,0.033908,0,0.11253,2
5845.2,54.3,11.566,0,-10,0,5860.3,55.503,-0.012207,3.0305,0.033908,0,0.11253,2
5845.9,54.3,10.966,0,-10,0,5860.3,55.503,-0.012207,3.0305,0.033908,0,0.11777,2
5846.1,54.3,10.766,0,-10,0,5860.3,55.503,-0.012207,3.0305,0.033908,0,0.11956,2
5846.5,54.3,10.498,0,3.2069,0,5860.3,55.685,-0.016276,3.0305,-0.033908,0,0.12304,2
5846.5,54.3,10.498,0,3.2069,0,5860.3,55.685,-0.016276,3.0305,-0.033908,0,0.12304,2
5846.5,54.3,10.498,0,3.2069,0,5860.3,55.685,-0.016276,3.0305,-0.033908,0,0.12304,2
5846.9,54.3,10.627,0,3.2388,0,5860.3,55.806,-0.016276,3.0305,-0.033908,0,0.12678,2
5846.9,54.3,10.627,0,3.2388,0,5860.3,55.806,-0.016276,3.0305,-0.033908,0,0.12678,2
5846.9,54.3,10.627,0,3.2388,0,5860.3,55.806,-0.016276,3.0305,-0.033908,0,0.12678,2
5846.9,54.3,10.627,0,3.2388,0,5860.3,55.806,-0.016276,3.0305,-0.033908,0,0.12678,2
5846.9,54.3,10.627,0,3.2388,0,5860.3,55.806,-0.016276,3.0305,-0.033908,0,0.12678,2
5846.9,54.3,10.627,0,3.2388,0,5860.3,55.806,-0.016276,3.0305,-0.033908,0,0.12678,2
5846.9,54.3,10.627,0,3.2388,0,5860.3,55.806,-0.016276,3.0305,-0.033908,0,0.12678,2
5846.9,54.3,10.627,0,3.2388,0,5860.3,55.806,-0.016276,3.0305,-0.033908,0,0.12678,2
5846.9,54.3,10.627,0,3.2388,0,5860.3,55.806,-0.016276,3.0305,-0.033908,0,0.12678,2
5846.9,54.3,10.627,0,3.2388,0,5860.3,55.806,-0.016276,3.0305,-0.033908,0,0.12678,2
5846.9,54.3,10.627,0,3.2388,0,5860.3,55.928,-0.012207,3.0305,0.033908,0,0.12667,2
5846.9,54.3,10.627,0,3.2388,0,5860.3,55.928,-0.012207,3.0305,0.033908,0,0.12667,2
5846.9,54.3,10.627,0,3.2388,0,5860.3,55.928,-0.012207,3.0305,0.033908,0,0.12667,2
5846.9,54.3,10.627,0,3.2388,0,5860.3,55.988,-0.012207,3.0305,0.033908,0,0.12661,2
5846.9,54.3,10.627,0,3.2388,0,5860.3,55.988,-0.012207,3.0305,0.033908,0,0.12661,2
5847.6,54.3,10.821,0,3.216,0,5860.3,55.988,-0.012207,3.0305,0.033908,0,0.13291,2
5847.6,54.3,10.821,0,3.216,0,5860.3,56.17,-0.012207,3.0305,0.033908,0,0.13266,2
5848.5,54.3,11.077,0,3.1837,0,5860.3,56.17,-0.012207,3.0305,0.033908,0,0.14225,2
5848.7,54.3,11.141,0,3.1754,0,5860.3,56.17,-0.012207,3.0305,0.033908,0,0.1449,2
5848.9,54.3,11.204,0,3.1669,0,5860.3,56.17,-0.012207,3.0305,0.033908,0,0.14767,2
5848.9,54.3,11.204,0,3.1669,0,5860.3,56.17,-0.012207,3.0305,0.033908,0,0.14767,2
5848.9,54.3,11.204,0,3.1669,0,5860.3,56.473,-0.016276,3.0305,-0.033908,-0.00026491,0.14699,2
5848.9,54.3,11.204,0,3.1669,0,5860.3,56.473,-0.016276,3.0305,-0.033908,-0.00026491,0.14699,2
5848.9,54.3,11.204,0,3.1669,0,5860.3,56.473,-0.016276,3.0305,-0.033908,-0.00026491,0.14699,2
5848.9,54.3,11.204,0,3.1669,0,5860.3,56.534,-0.016276,3.0305,-0.033908,-0.00026491,0.14684,2
5848.9,54.3,11.204,0,3.1669,0,5860.3,56.534,-0.016276,3.0305,-0.033908,-0.00026491,0.14684,2
5848.9,54.3,11.204,0,3.1669,0,5860.3,56.534,-0.016276,3.0305,-0.033908,-0.00026491,0.14684,2
5848.9,54.3,11.204,0,3.1669,0,5860.3,56.534,-0.016276,3.0305,-0.033908,-0.00026491,0.14684,2
5848.9,54.3,11.204,0,3.1669,0,5860.3,56.534,-0.016276,3.0305,-0.033908,-0.00026491,0.14684,2
5848.9,54.3,11.204,0,3.1669,0,5860.3,56.534,-0.016276,3.0305,-0.033908,-0.00026491,0.14684,2
5848.9,54.3,11.204,0,3.1669,0,5860.3,56.534,-0.016276,3.0305,-0.033908,-0.00026491,0.14684,2
5848.9,54.3,11.204,0,3.1669,0,5860.3,56.534,-0.016276,3.0305,-0.033908,-0.00026491,0.14684,2
5848.9,54.3,11.204,0,3.1669,0,5860.3,56.534,-0.016276,3.0305,-0.033908,-0.00026491,0.14684,2
5849.6,54.3,11.393,0,3.1408,0,5860.3,56.534,-0.016276,3.0305,-0.033908,-0.00026491,0.15576,2
5849.6,54.3,11.393,0,3.1408,0,5860.3,56.534,-0.016276,3.0305,-0.033908,-0.00026491,0.15576,2
5849.6,54.3,11.393,0,3.1408,0,5860.3,56.534,-0.016276,3.0305,-0.033908,-0.00026491,0.15576,2
5849.6,54.3,11.393,0,3.1408,0,5860.3,56.534,-0.016276,3.0305,-0.033908,-0.00026491,0.15576,2
5849.8,54.3,11.456,0,3.1318,0,5860.3,56.534,-0.016276,3.0305,-0.033908,-0.00026491,0.15901,2
5849.8,54.3,11.456,0,3.1318,0,5860.3,56.534,-0.016276,3.0305,-0.033908,-0.00026491,0.15901,2
5849.8,54.3,11.456,0,3.1318,0,5860.3,56.715,-0.016276,3.0305,0,0.00026491,0.15844,2
5849.8,54.3,11.456,0,3.1318,0,5860.3,56.715,-0.016276,3.0305,0,0.00026491,0.15844,2
5851,54.3,11.767,0,3.0852,0,5860.3,56.897,-0.016276,3.0305,0,0.00026491,0.17617,2
5851,54.3,11.767,0,3.0852,0,5860.3,56.897,-0.016276,3.0305,0,0.00026491,0.17617,2
5851,54.3,11.767,0,3.0852,0,5860.3,57.079,-0.012207,3.0305,0.033908,0,0.1753,2
5851.7,54.3,11.951,0,3.0557,0,5860.3,57.079,-0.012207,3.0305,0.033908,0,0.18848,2
5851.7,54.3,11.951,0,3.0557,0,5860.3,57.079,-0.012207,3.0305,0.033908,0,0.18848,2
5851.7,54.3,11.951,0,3.0557,0,5860.3,57.079,-0.012207,3.0305,0.033908,0,0.18848,2
5851.7,54.3,11.951,0,3.0557,0,5860.3,57.079,-0.012207,3.0305,0.033908,0,0.18848,2
5851.9,54.3,12.012,0,3.0457,0,5860.3,57.079,-0.012207,3.0305,0.033908,0,0.19335,2
5851.9,54.3,12.012,0,3.0457,0,5860.3,57.079,-0.012207,3.0305,0.033908,0,0.19335,2
5851.9,54.3,12.012,0,3.0457,0,5860.3,57.079,-0.012207,3.0305,0.033908,0,0.19335,2
5851.9,54.3,12.012,0,3.0457,0,5860.3,57.261,-0.012207,3.0305,0.033908,0,0.19209,2
5852.6,54.3,12.194,0,3.0148,0,5860.3,57.322,-0.012207,3.0305,0.033908,0,0.2075,2
5852.6,54.3,12.194,0,3.0148,0,5860.3,57.443,-0.016276,3.0305,-0.033908,0,0.20634,2
5852.6,54.3,12.194,0,3.0148,0,5860.3,57.443,-0.016276,3.0305,-0.033908,0,0.20634,2
5852.6,54.3,12.194,0,3.0148,0,5860.3,57.503,-0.016276,3.0305,-0.033908,0,0.20576,2
5853.4,54.3,12.374,0,2.9829,0,5860.3,57.503,-0.016276,3.0305,-0.033908,0,0.22401,2
5853.4,54.3,12.374,0,2.9829,0,5860.3,57.503,-0.016276,3.0305,-0.033908,0,0.22401,2
5853.4,54.3,12.374,0,2.9829,0,5860.3,57.503,-0.016276,3.0305,-0.033908,0,0.22401,2
5853.4,54.3,12.374,0,2.9829,0,5860.3,57.503,-0.016276,3.0305,-0.033908,0,0.22401,2
5853.4,54.3,12.374,0,2.9829,0,5860.3,57.503,-0.016276,3.0305,-0.033908,0,0.22401,2
5853.4,54.3,12.374,0,2.9829,0,5860.3,57.503,-0.016276,3.0305,-0.033908,0,0.22401,2
5853.4,54.3,12.374,0,2.9829,0,5860.3,57.503,-0.016276,3.0305,-0.033908,0,0.22401,2
5853.4,54.3,12.374,0,2.9829,0,5860.3,57.503,-0.016276,3.0305,-0.033908,0,0.22401,2
5853.4,54.3,12.374,0,2.9829,0,5860.3,57.503,-0.016276,3.0305,-0.033908,0,0.22401,2
5853.4,54.3,12.374,0,2.9829,0,5860.3,57.503,-0.016276,3.0305,-0.033908,0,0.22401,2
5853.4,54.3,12.374,0,2.9829,0,5860.3,57.625,-0.016276,3.0305,-0.033908,0,0.22251,2
5853.4,54.3,12.374,0,2.9829,0,5860.3,57.625,-0.016276,3.0305,-0.033908,0,0.22251,2
5853.4,54.3,12.374,0,2.9829,0,5860.3,57.625,-0.016276,3.0305,-0.033908,0,0.22251,2
5853.4,54.3,12.374,0,2.9829,0,5860.3,57.625,-0.016276,3.0305,-0.033908,0,0.22251,2
5853.4,54.3,12.374,0,2.9829,0,5860.3,57.625,-0.016276,3.0305,-0.033908,0,0.22251,2
5853.4,54.3,12.374,0,2.9829,0,5860.3,57.625,-0.016276,3.0305,-0.033908,0,0.22251,2
5853.4,54.3,12.374,0,2.9829,0,5860.3,57.625,-0.016276,3.0305,-0.033908,0,0.22251,2
5853.4,54.3,12.374,0,2.9829,0,5860.3,57.685,-0.016276,3.0305,-0.033908,0,0.22175,2
5853.4,54.3,12.374,0,2.9829,0,5860.3,57.685,-0.016276,3.0305,-0.033908,0,0.22175,2
5854.9,54.3,12.728,0,2.9159,0,5860.3,57.746,-0.016276,3.0305,0,0,0.26632,2
5855.1,54.3,12.786,0,2.9043,0,5860.3,57.746,-0.016276,3.0305,0,0,0.27551,2
5855.9,54.3,12.959,0,2.869,0,5860.3,58.049,-0.016276,3.0305,0,0,0.29627,2
5855.9,54.3,12.959,0,2.869,0,5860.3,58.049,-0.016276,3.0305,0,0,0.29627,2
5855.9,54.3,12.959,0,2.869,0,5860.3,58.231,-0.012207,3.0305,0.033908,0,0.29027,2
5855.9,54.3,12.959,0,2.869,0,5860.3,58.231,-0.012207,3.0305,0.033908,0,0.29027,2
5855.9,54.3,12.959,0,2.869,0,5860.3,58.231,-0.012207,3.0305,0.033908,0,0.29027,2
5855.9,54.3,12.959,0,2.869,0,5860.3,58.231,-0.012207,3.0305,0.033908,0,0.29027,2
5855.9,54.3,12.959,0,2.869,0,5860.3,58.231,-0.012207,3.0305,0.033908,0,0.29027,2
5855.9,54.3,12.959,0,2.869,0,5860.3,58.231,-0.012207,3.0305,0.033908,0,0.29027,2
5855.9,54.3,12.959,0,2.869,0,5860.3,58.291,-0.012207,3.0305,0.033908,0,0.28829,2
5855.9,54.3,12.959,0,2.869,0,5860.3,58.291,-0.012207,3.0305,0.033908,0,0.28829,2
5855.9,54.3,12.959,0,2.869,0,5860.3,58.291,-0.012207,3.0305,0.033908,0,0.28829,2
5855.9,54.3,12.959,0,2.869,0,5860.3,58.291,-0.012207,3.0305,0.033908,0,0.28829,2
5855.9,54.3,12.959,0,2.869,0,5860.3,58.291,-0.012207,3.0305,0.033908,0,0.28829,2
5855.9,54.3,12.959,0,2.869,0,5860.3,58.291,-0.012207,3.0305,0.033908,0,0.28829,2
5855.9,54.3,12.959,0,2.869,0,5860.3,58.291,-0.012207,3.0305,0.033908,0,0.28829,2
5855.9,54.3,12.959,0,2.869,0,5860.3,58.291,-0.012207,3.0305,0.033908,0,0.28829,2
5855.9,54.3,12.959,0,2.869,0,5860.3,58.291,-0.012207,3.0305,0.033908,0,0.28829,2
5856.7,54.3,13.13,0,2.8326,0,5860.3,58.291,-0.012207,3.0305,0.033908,0,0.31795,2
5856.7,54.3,13.13,0,2.8326,0,5860.3,58.291,-0.012207,3.0305,0.033908,0,0.31795,2
5857,54.3,13.187,0,2.8203,0,5860.3,58.291,-0.012207,3.0305,0.033908,0,0.3285,2
5857,54.3,13.187,0,2.8203,0,5860.3,58.291,-0.012207,3.0305,0.033908,0,0.3285,2
5858,54.3,13.41,0,2.7699,0,5860.3,58.534,-0.016276,3.0305,-0.033908,0,0.35548,2
5858,54.3,13.41,0,2.7699,0,5860.3,58.534,-0.016276,3.0305,-0.033908,0,0.35548,2
5858,54.3,13.41,0,2.7699,0,5860.3,58.776,-0.016276,3.0305,-0.033908,0,0.34025,2
5858.8,54.3,13.575,0,2.7311,0,5860.3,58.776,-0.016276,3.0305,-0.033908,0,0.36254,2
5858.8,54.3,13.575,0,2.7311,0,5860.3,58.897,-0.012207,3.0305,0.033908,0,0.35388,2
5858.8,54.3,13.575,0,2.7311,0,5860.3,58.897,-0.012207,3.0305,0.033908,0,0.35388,2
5859.4,54.3,13.684,0,2.7048,0,5860.3,58.897,-0.012207,3.0305,0.033908,0,0.36401,2
5859.4,54.3,13.684,0,2.7048,0,5860.3,58.897,-0.012207,3.0305,0.033908,0,0.36401,2
5859.7,54.3,13.738,0,2.6915,0,5860.3,58.897,-0.012207,3.0305,0.033908,0,0.36751,2
5859.7,54.3,13.738,0,2.6915,0,5860.3,58.897,-0.012207,3.0305,0.033908,0,0.36751,2
5859.7,54.3,13.738,0,2.6915,0,5860.3,58.897,-0.012207,3.0305,0.033908,0,0.36751,2
5859.7,54.3,13.738,0,2.6915,0,5860.3,58.897,-0.012207,3.0305,0.033908,0,0.36751,2
5859.7,54.3,13.738,0,2.6915,0,5860.3,58.897,-0.012207,3.0305,0.033908,0,0.36751,2
5859.7,54.3,13.738,0,2.6915,0,5860.3,58.897,-0.012207,3.0305,0.033908,0,0.36751,2
5859.7,54.3,13.738,0,2.6915,0,5860.3,59.079,-0.012207,3.0305,0.033908,0,0.35378,2
5859.7,54.3,13.738,0,2.6915,0,5860.3,59.079,-0.012207,3.0305,0.033908,0,0.35378,2
5859.7,54.3,13.738,0,2.6915,0,5860.3,59.14,-0.012207,3.0305,0.033908,0,0.34942,2
5859.7,54.3,13.738,0,2.6915,0,5860.3,59.14,-0.012207,3.0305,0.033908,0,0.34942,2
5859.7,54.3,13.738,0,2.6915,0,5860.3,59.201,-0.016276,3.0305,-0.033908,0,0.34516,2
5859.7,54.3,13.738,0,2.6915,0,5860.3,59.201,-0.016276,3.0305,-0.033908,0,0.34516,2
5859.7,54.3,13.738,0,2.6915,0,5860.3,59.201,-0.016276,3.0305,-0.033908,0,0.34516,2
5859.7,54.3,13.738,0,2.6915,0,5860.3,59.261,-0.016276,3.0305,-0.033908,0,0.34101,2
5861.3,54.3,14.056,0,2.6097,0,5860.3,59.261,-0.016276,3.0305,-0.033908,0,0.33616,2
5861.3,54.3,14.056,0,2.6097,0,5860.3,59.443,-0.016276,3.0305,-0.033908,0,0.32475,2
5861.3,54.3,14.056,0,2.6097,0,5860.3,59.443,-0.016276,3.0305,-0.033908,0,0.32475,2
5861.3,54.3,14.056,0,2.6097,0,5860.3,59.504,-0.016276,3.0305,-0.033908,0,0.32111,2
5861.3,54.3,14.056,0,2.6097,0,5860.3,59.504,-0.016276,3.0305,-0.033908,0,0.32111,2
5861.3,54.3,14.056,0,2.6097,0,5860.3,59.504,-0.016276,3.0305,-0.033908,0,0.32111,2
5861.3,54.3,14.056,0,2.6097,0,5860.3,59.504,-0.016276,3.0305,-0.033908,0,0.32111,2
5862.5,54.3,14.263,0,2.5535,0,5860.3,59.564,-0.016276,3.0305,0,0,0.29905,2
5862.5,54.3,14.263,0,2.5535,0,5860.3,59.564,-0.016276,3.0305,0,0,0.29905,2
5862.5,54.3,14.263,0,2.5535,0,5860.3,59.564,-0.016276,3.0305,0,0,0.29905,2
5862.5,54.3,14.263,0,2.5535,0,5860.3,59.564,-0.016276,3.0305,0,0,0.29905,2
5862.7,54.3,14.314,0,2.5393,0,5860.3,59.564,-0.016276,3.0305,0,0,0.2931,2
5862.7,54.3,14.314,0,2.5393,0,5860.3,59.564,-0.016276,3.0305,0,0,0.2931,2
5863.3,54.3,14.415,0,2.5106,0,5860.3,59.564,-0.016276,3.0305,0,0,0.28024,2
5863.3,54.3,14.415,0,2.5106,0,5860.3,59.564,-0.016276,3.0305,0,0,0.28024,2
5863.3,54.3,14.415,0,2.5106,0,5860.3,59.564,-0.016276,3.0305,0,0,0.28024,2
5863.3,54.3,14.415,0,2.5106,0,5860.3,59.564,-0.016276,3.0305,0,0,0.28024,2
5863.3,54.3,14.415,0,2.5106,0,5860.3,59.564,-0.016276,3.0305,0,0,0.28024,2
5863.3,54.3,14.415,0,2.5106,0,5860.3,59.564,-0.016276,3.0305,0,0,0.28024,2
5863.3,54.3,14.415,0,2.5106,0,5860.3,59.564,-0.016276,3.0305,0,0,0.28024,2
5863.6,54.3,14.465,0,2.4962,0,5860.3,59.564,-0.016276,3.0305,0,0,0.2735,2
5863.6,54.3,14.465,0,2.4962,0,5860.3,59.928,-0.012207,3.0305,0.033908,-0.00026491,0.26054,2
5864.2,54.3,14.564,0,2.4671,0,5860.3,59.928,-0.012207,3.0305,0.033908,-0.00026491,0.24859,2
5864.2,54.3,14.564,0,2.4671,0,5860.3,59.928,-0.012207,3.0305,0.033908,-0.00026491,0.24859,2
5864.5,54.3,14.613,0,2.4524,0,5860.3,59.928,-0.012207,3.0305,0.033908,-0.00026491,0.24254,2
5865.4,54.3,14.759,0,2.4082,0,5860.3,60.17,-0.012207,3.0305,0.033908,-0.00026491,0.21934,2
5865.4,54.3,14.759,0,2.4082,0,5860.3,60.17,-0.012207,3.0305,0.033908,-0.00026491,0.21934,2
5865.4,54.3,14.759,0,2.4082,0,5860.3,60.17,-0.012207,3.0305,0.033908,-0.00026491,0.21934,2
5865.4,54.3,14.759,0,2.4082,0,5860.3,60.291,-0.016276,3.0305,-0.033908,0.00026491,0.21674,2
5865.4,54.3,14.759,0,2.4082,0,5860.3,60.291,-0.016276,3.0305,-0.033908,0.00026491,0.21674,2
5865.4,54.3,14.759,0,2.4082,0,5860.3,60.291,-0.016276,3.0305,-0.033908,0.00026491,0.21674,2
5865.4,54.3,14.759,0,2.4082,0,5860.3,60.291,-0.016276,3.0305,-0.033908,0.00026491,0.21674,2
5865.4,54.3,14.759,0,2.4082,0,5860.3,60.352,-0.016276,3.0305,-0.033908,0.00026491,0.21546,2
5865.4,54.3,14.759,0,2.4082,0,5860.3,60.352,-0.016276,3.0305,-0.033908,0.00026491,0.21546,2
5865.4,54.3,14.759,0,2.4082,0,5860.3,60.352,-0.016276,3.0305,-0.033908,0.00026491,0.21546,2
5865.4,54.3,14.759,0,2.4082,0,5860.3,60.352,-0.016276,3.0305,-0.033908,0.00026491,0.21546,2
5865.4,54.3,14.759,0,2.4082,0,5860.3,60.352,-0.016276,3.0305,-0.033908,0.00026491,0.21546,2
5865.4,54.3,14.759,0,2.4082,0,5860.3,60.352,-0.016276,3.0305,-0.033908,0.00026491,0.21546,2
5865.4,54.3,14.759,0,2.4082,0,5860.3,60.352,-0.016276,3.0305,-0.033908,0.00026491,0.21546,2
5865.4,54.3,14.759,0,2.4082,0,5860.3,60.352,-0.016276,3.0305,-0.033908,0.00026491,0.21546,2
5865.4,54.3,14.759,0,2.4082,0,5860.3,60.352,-0.016276,3.0305,-0.033908,0.00026491,0.21546,2
5866.5,54.3,14.949,0,2.3484,0,5860.3,60.413,-0.016276,3.0305,-0.033908,0.00026491,0.19444,2
5867.1,54.3,15.043,0,2.3182,0,5860.3,60.534,-0.016276,3.0305,-0.033908,0.00026491,0.18353,2
5868.1,54.3,15.18,0,2.2726,0,5860.3,60.655,-0.016276,3.0305,0,0,0.16951,2
5868.1,54.3,15.18,0,2.2726,0,5860.3,60.655,-0.016276,3.0305,0,0,0.16951,2
5868.1,54.3,15.18,0,2.2726,0,5860.3,60.837,-0.016276,3.0305,0,0,0.16757,2
5868.1,54.3,15.18,0,2.2726,0,5860.3,60.898,-0.016276,3.0305,0,0,0.16693,2
5868.1,54.3,15.18,0,2.2726,0,5860.3,60.898,-0.016276,3.0305,0,0,0.16693,2
5868.1,54.3,15.18,0,2.2726,0,5860.3,60.898,-0.016276,3.0305,0,0,0.16693,2
5868.1,54.3,15.18,0,2.2726,0,5860.3,60.898,-0.016276,3.0305,0,0,0.16693,2
5868.1,54.3,15.18,0,2.2726,0,5860.3,60.898,-0.016276,3.0305,0,0,0.16693,2
5868.1,54.3,15.18,0,2.2726,0,5860.3,60.898,-0.016276,3.0305,0,0,0.16693,2
5868.1,54.3,15.18,0,2.2726,0,5860.3,60.898,-0.016276,3.0305,0,0,0.16693,2
5868.1,54.3,15.18,0,2.2726,0,5860.3,60.898,-0.016276,3.0305,0,0,0.16693,2
5868.1,54.3,15.18,0,2.2726,0,5860.3,60.898,-0.016276,3.0305,0,0,0.16693,2
5868.1,54.3,15.18,0,2.2726,0,5860.3,60.898,-0.016276,3.0305,0,0,0.16693,2
5869,54.3,15.315,0,2.2267,0,5860.3,60.898,-0.016276,3.0305,0,0,0.15601,2
5869,54.3,15.315,0,2.2267,0,5860.3,60.898,-0.016276,3.0305,0,0,0.15601,2
5869,54.3,15.315,0,2.2267,0,5860.3,60.898,-0.016276,3.0305,0,0,0.15601,2
5869,54.3,15.315,0,2.2267,0,5860.3,60.898,-0.016276,3.0305,0,0,0.15601,2
5869,54.3,15.315,0,2.2267,0,5860.3,60.898,-0.016276,3.0305,0,0,0.15601,2
5869,54.3,15.315,0,2.2267,0,5860.3,60.898,-0.016276,3.0305,0,0,0.15601,2
5869.3,54.3,15.36,0,2.2113,0,5860.3,60.898,-0.016276,3.0305,0,0,0.15257,2
5869.3,54.3,15.36,0,2.2113,0,5860.3,60.898,-0.016276,3.0305,0,0,0.15257,2
5869.6,54.3,15.404,0,2.196,0,5860.3,60.898,-0.016276,3.0305,0,0,0.14923,2
5870.8,54.3,15.577,0,2.1342,0,5860.3,61.201,-0.012207,3.0305,0.033908,0,0.1351,2
5870.8,54.3,15.577,0,2.1342,0,5860.3,61.201,-0.012207,3.0305,0.033908,0,0.1351,2
5870.8,54.3,15.577,0,2.1342,0,5860.3,61.201,-0.012207,3.0305,0.033908,0,0.1351,2
5870.8,54.3,15.577,0,2.1342,0,5860.3,61.504,-0.016276,3.0305,-0.033908,0,0.13329,2
5870.8,54.3,15.577,0,2.1342,0,5860.3,61.504,-0.016276,3.0305,-0.033908,0,0.13329,2
5870.8,54.3,15.577,0,2.1342,0,5860.3,61.564,-0.016276,3.0305,-0.033908,0,0.13293,2
5870.8,54.3,15.577,0,2.1342,0,5860.3,61.564,-0.016276,3.0305,-0.033908,0,0.13293,2
5870.8,54.3,15.577,0,2.1342,0,5860.3,61.564,-0.016276,3.0305,-0.033908,0,0.13293,2
5870.8,54.3,15.577,0,2.1342,0,5860.3,61.564,-0.016276,3.0305,-0.033908,0,0.13293,2
5870.8,54.3,15.577,0,2.1342,0,5860.3,61.564,-0.016276,3.0305,-0.033908,0,0.13293,2
5870.8,54.3,15.577,0,2.1342,0,5860.3,61.564,-0.016276,3.0305,-0.033908,0,0.13293,2
5870.8,54.3,15.577,0,2.1342,0,5860.3,61.564,-0.016276,3.0305,-0.033908,0,0.13293,2
5870.8,54.3,15.577,0,2.1342,0,5860.3,61.564,-0.016276,3.0305,-0.033908,0,0.13293,2
5870.8,54.3,15.577,0,2.1342,0,5860.3,61.564,-0.016276,3.0305,-0.033908,0,0.13293,2
5872.4,54.3,15.786,0,2.0566,0,5860.3,61.564,-0.016276,3.0305,-0.033908,0,0.12051,2
5872.4,54.3,15.786,0,2.0566,0,5860.3,61.564,-0.016276,3.0305,-0.033908,0,0.12051,2
5872.4,54.3,15.786,0,2.0566,0,5860.3,61.564,-0.016276,3.0305,-0.033908,0,0.12051,2
5872.4,54.3,15.786,0,2.0566,0,5860.3,61.686,-0.016276,3.0305,-0.033908,0,0.11998,2
5872.4,54.3,15.786,0,2.0566,0,5860.3,61.686,-0.016276,3.0305,-0.033908,0,0.11998,2
5872.4,54.3,15.786,0,2.0566,0,5860.3,61.746,-0.016276,3.0305,0,0,0.11971,2
5874,54.3,15.988,0,1.9788,0,5860.3,61.807,-0.016276,3.0305,0,0,0.10895,2
5874.9,54.3,16.106,0,1.9323,0,5860.3,61.989,-0.016276,3.0305,0,0,0.1028,2
5875.3,54.3,16.144,0,1.9167,0,5860.3,61.989,-0.016276,3.0305,0,0,0.10105,2
5875.3,54.3,16.144,0,1.9167,0,5860.3,61.989,-0.016276,3.0305,0,0,0.10105,2
5875.3,54.3,16.144,0,1.9167,0,5860.3,61.989,-0.016276,3.0305,0,0,0.10105,2
5875.3,54.3,16.144,0,1.9167,0,5860.3,61.989,-0.016276,3.0305,0,0,0.10105,2
5875.3,54.3,16.144,0,1.9167,0,5860.3,61.989,-0.016276,3.0305,0,0,0.10105,2
5875.3,54.3,16.144,0,1.9167,0,5860.3,61.989,-0.016276,3.0305,0,0,0.10105,2
5875.3,54.3,16.144,0,1.9167,0,5860.3,61.989,-0.016276,3.0305,0,0,0.10105,2
5875.3,54.3,16.144,0,1.9167,0,5860.3,61.989,-0.016276,3.0305,0,0,0.10105,2
5875.3,54.3,16.144,0,1.9167,0,5860.3,61.989,-0.016276,3.0305,0,0,0.10105,2
5875.3,54.3,16.144,0,1.9167,0,5860.3,62.231,-0.012207,3.0305,0.033908,0,0.1004,2
5875.3,54.3,16.144,0,1.9167,0,5860.3,62.231,-0.012207,3.0305,0.033908,0,0.1004,2
5875.3,54.3,16.144,0,1.9167,0,5860.3,62.231,-0.012207,3.0305,0.033908,0,0.1004,2
5875.3,54.3,16.144,0,1.9167,0,5860.3,62.231,-0.012207,3.0305,0.033908,0,0.1004,2
5875.3,54.3,16.144,0,1.9167,0,5860.3,62.231,-0.012207,3.0305,0.033908,0,0.1004,2
5875.3,54.3,16.144,0,1.9167,0,5860.3,62.231,-0.012207,3.0305,0.033908,0,0.1004,2
5875.3,54.3,16.144,0,1.9167,0,5860.3,62.231,-0.012207,3.0305,0.033908,0,0.1004,2
5875.3,54.3,16.144,0,1.9167,0,5860.3,62.231,-0.012207,3.0305,0.033908,0,0.1004,2
5875.3,54.3,16.144,0,1.9167,0,5860.3,62.231,-0.012207,3.0305,0.033908,0,0.1004,2
5875.9,54.3,16.22,0,1.8858,0,5860.3,62.231,-0.012207,3.0305,0.033908,0,0.097109,2
5875.9,54.3,16.22,0,1.8858,0,5860.3,62.231,-0.012207,3.0305,0.033908,0,0.097109,2
5876.9,54.3,16.332,0,1.8394,0,5860.3,62.352,-0.012207,3.0305,0.033908,0,0.092222,2
5876.9,54.3,16.332,0,1.8394,0,5860.3,62.534,-0.016276,3.0305,-0.033908,0,0.091806,2
5877.5,54.3,16.405,0,1.8087,0,5860.3,62.534,-0.016276,3.0305,-0.033908,0,0.088982,2
5878.5,54.3,16.512,0,1.7627,0,5860.3,62.716,-0.016276,3.0305,-0.033908,0,0.084681,2
5878.5,54.3,16.512,0,1.7627,0,5860.3,62.837,-0.012207,3.0305,0.033908,0,0.084481,2
5878.5,54.3,16.512,0,1.7627,0,5860.3,62.837,-0.012207,3.0305,0.033908,0,0.084481,2
5878.5,54.3,16.512,0,1.7627,0,5860.3,62.837,-0.012207,3.0305,0.033908,0,0.084481,2
5878.5,54.3,16.512,0,1.7627,0,5860.3,62.898,-0.012207,3.0305,0.033908,0,0.084371,2
5878.5,54.3,16.512,0,1.7627,0,5860.3,62.958,-0.012207,3.0305,0.033908,0,0.084262,2
5878.5,54.3,16.512,0,1.7627,0,5860.3,62.958,-0.012207,3.0305,0.033908,0,0.084262,2
5878.5,54.3,16.512,0,1.7627,0,5860.3,62.958,-0.012207,3.0305,0.033908,0,0.084262,2
5878.5,54.3,16.512,0,1.7627,0,5860.3,62.958,-0.012207,3.0305,0.033908,0,0.084262,2
5878.5,54.3,16.512,0,1.7627,0,5860.3,62.958,-0.012207,3.0305,0.033908,0,0.084262,2
5878.5,54.3,16.512,0,1.7627,0,5860.3,62.958,-0.012207,3.0305,0.033908,0,0.084262,2
5878.5,54.3,16.512,0,1.7627,0,5860.3,62.958,-0.012207,3.0305,0.033908,0,0.084262,2
5878.5,54.3,16.512,0,1.7627,0,5860.3,62.958,-0.012207,3.0305,0.033908,0,0.084262,2
5878.5,54.3,16.512,0,1.7627,0,5860.3,63.019,-0.012207,3.0305,0.033908,0,0.084153,2
5878.5,54.3,16.512,0,1.7627,0,5860.3,63.08,-0.012207,3.0305,0.033908,0,0.084043,2
5878.5,54.3,16.512,0,1.7627,0,5860.3,63.08,-0.012207,3.0305,0.033908,0,0.084043,2
5878.5,54.3,16.512,0,1.7627,0,5860.3,63.08,-0.012207,3.0305,0.033908,0,0.084043,2
5878.5,54.3,16.512,0,1.7627,0,5860.3,63.08,-0.012207,3.0305,0.033908,0,0.084043,2
5878.5,54.3,16.512,0,1.7627,0,5860.3,63.08,-0.012207,3.0305,0.033908,0,0.084043,2
5878.5,54.3,16.512,0,1.7627,0,5860.3,63.08,-0.012207,3.0305,0.033908,0,0.084043,2
5878.5,54.3,16.512,0,1.7627,0,5860.3,63.08,-0.012207,3.0305,0.033908,0,0.084043,2
5878.5,54.3,16.512,0,1.7627,0,5860.3,63.08,-0.012207,3.0305,0.033908,0,0.084043,2
5878.5,54.3,16.512,0,1.7627,0,5860.3,63.08,-0.012207,3.0305,0.033908,0,0.084043,2
5878.5,54.3,16.512,0,1.7627,0,5860.3,63.08,-0.012207,3.0305,0.033908,0,0.084043,2
5880.5,54.3,16.718,0,1.6718,0,5860.3,63.08,-0.012207,3.0305,0.033908,0,0.07714,2
5880.5,54.3,16.718,0,1.6718,0,5860.3,63.08,-0.012207,3.0305,0.033908,0,0.07714,2
5880.5,54.3,16.718,0,1.6718,0,5860.3,63.322,-0.016276,3.0305,-0.033908,-0.00026491,0.076784,2
5881.9,54.3,16.849,0,1.612,0,5860.3,63.322,-0.016276,3.0305,-0.033908,-0.00026491,0.072741,2
5882.2,54.3,16.881,0,1.5972,0,5860.3,63.322,-0.016276,3.0305,-0.033908,-0.00026491,0.071786,2
5882.2,54.3,16.881,0,1.5972,0,5860.3,63.564,-0.016276,3.0305,0,0.00026491,0.071501,2
5883.6,54.3,17.007,0,1.5384,0,5860.3,63.564,-0.016276,3.0305,0,0.00026491,0.067925,2
5883.6,54.3,17.007,0,1.5384,0,5860.3,63.564,-0.016276,3.0305,0,0.00026491,0.067925,2
5883.6,54.3,17.007,0,1.5384,0,5860.3,63.746,-0.016276,3.0305,0,0.00026491,0.067739,2
5883.6,54.3,17.007,0,1.5384,0,5860.3,63.746,-0.016276,3.0305,0,0.00026491,0.067739,2
5883.6,54.3,17.007,0,1.5384,0,5860.3,63.807,-0.016276,3.0305,0,0.00026491,0.067678,2
5883.6,54.3,17.007,0,1.5384,0,5860.3,63.807,-0.016276,3.0305,0,0.00026491,0.067678,2
5883.6,54.3,17.007,0,1.5384,0,5860.3,63.807,-0.016276,3.0305,0,0.00026491,0.067678,2
5883.6,54.3,17.007,0,1.5384,0,5860.3,63.807,-0.016276,3.0305,0,0.00026491,0.067678,2
5883.6,54.3,17.007,0,1.5384,0,5860.3,63.807,-0.016276,3.0305,0,0.00026491,0.067678,2
5883.6,54.3,17.007,0,1.5384,0,5860.3,63.807,-0.016276,3.0305,0,0.00026491,0.067678,2
5883.6,54.3,17.007,0,1.5384,0,5860.3,63.868,-0.016276,3.0305,0,0.00026491,0.067615,2
5883.6,54.3,17.007,0,1.5384,0,5860.3,63.868,-0.016276,3.0305,0,0.00026491,0.067615,2
5883.6,54.3,17.007,0,1.5384,0,5860.3,63.928,-0.012207,3.0305,0.033908,0,0.067566,2
5883.6,54.3,17.007,0,1.5384,0,5860.3,63.928,-0.012207,3.0305,0.033908,0,0.067566,2
5883.6,54.3,17.007,0,1.5384,0,5860.3,63.928,-0.012207,3.0305,0.033908,0,0.067566,2
5883.6,54.3,17.007,0,1.5384,0,5860.3,63.928,-0.012207,3.0305,0.033908,0,0.067566,2
5883.6,54.3,17.007,0,1.5384,0,5860.3,63.928,-0.012207,3.0305,0.033908,0,0.067566,2
5883.6,54.3,17.007,0,1.5384,0,5860.3,63.989,-0.012207,3.0305,0.033908,0,0.067503,2
5883.6,54.3,17.007,0,1.5384,0,5860.3,63.989,-0.012207,3.0305,0.033908,0,0.067503,2
5883.6,54.3,17.007,0,1.5384,0,5860.2,64.171,-0.012207,3.0305,0.033908,0,0.067313,2
5883.6,54.3,17.007,0,1.5384,0,5860.2,64.171,-0.012207,3.0305,0.033908,0,0.067313,2
5883.6,54.3,17.007,0,1.5384,0,5860.2,64.231,-0.012207,3.0305,0.033908,0,0.06725,2
5883.6,54.3,17.007,0,1.5384,0,5860.2,64.231,-0.012207,3.0305,0.033908,0,0.06725,2
5883.6,54.3,17.007,0,1.5384,0,5860.2,64.292,-0.016276,3.0305,-0.033908,0,0.067173,2
5887.3,54.3,17.328,0,1.3818,0,5860.2,64.292,-0.016276,3.0305,-0.033908,0,0.059006,2
5887.3,54.3,17.328,0,1.3818,0,5860.2,64.292,-0.016276,3.0305,-0.033908,0,0.059006,2
5887.3,54.3,17.328,0,1.3818,0,5860.2,64.292,-0.016276,3.0305,-0.033908,0,0.059006,2
5887.7,54.3,17.355,0,1.368,0,5860.2,64.292,-0.016276,3.0305,-0.033908,0,0.058347,2
5887.7,54.3,17.355,0,1.368,0,5860.2,64.474,-0.016276,3.0305,-0.033908,0,0.058221,2
5888.4,54.3,17.41,0,1.3406,0,5860.2,64.474,-0.016276,3.0305,-0.033908,0,0.05695,2
5888.4,54.3,17.41,0,1.3406,0,5860.2,64.474,-0.016276,3.0305,-0.033908,0,0.05695,2
5888.4,54.3,17.41,0,1.3406,0,5860.2,64.595,-0.016276,3.0305,-0.033908,0,0.05687,2
5888.4,54.3,17.41,0,1.3406,0,5860.2,64.595,-0.016276,3.0305,-0.033908,0,0.05687,2
5889.1,54.3,17.463,0,1.3134,0,5860.2,64.595,-0.016276,3.0305,-0.033908,0,0.055652,2
5889.1,54.3,17.463,0,1.3134,0,5860.2,64.595,-0.016276,3.0305,-0.033908,0,0.055652,2
5889.1,54.3,17.463,0,1.3134,0,5860.2,64.595,-0.016276,3.0305,-0.033908,0,0.055652,2
5889.1,54.3,17.463,0,1.3134,0,5860.2,64.595,-0.016276,3.0305,-0.033908,0,0.055652,2
5889.1,54.3,17.463,0,1.3134,0,5860.2,64.595,-0.016276,3.0305,-0.033908,0,0.055652,2
5889.4,54.3,17.489,0,1.3,0,5860.2,64.595,-0.016276,3.0305,-0.033908,0,0.055059,2
5889.8,54.3,17.515,0,1.2866,0,5860.2,64.595,-0.016276,3.0305,-0.033908,0,0.054478,2
5889.8,54.3,17.515,0,1.2866,0,5860.2,64.595,-0.016276,3.0305,-0.033908,0,0.054478,2
5889.8,54.3,17.515,0,1.2866,0,5860.2,64.837,-0.016276,3.0305,0,0,0.054336,2
5889.8,54.3,17.515,0,1.2866,0,5860.2,64.898,-0.016276,3.0305,0,0,0.0543,2
5891.2,54.3,17.615,0,1.2293,0,5860.2,64.898,-0.016276,3.0305,0,0,0.052098,2
5891.2,54.3,17.615,0,1.2293,0,5860.2,64.898,-0.016276,3.0305,0,0,0.052098,2
5891.2,54.3,17.615,0,1.2293,0,5860.2,64.898,-0.016276,3.0305,0,0,0.052098,2
5891.2,54.3,17.615,0,1.2293,0,5860.2,64.898,-0.016276,3.0305,0,0,0.052098,2
5891.2,54.3,17.615,0,1.2293,0,5860.2,64.898,-0.016276,3.0305,0,0,0.052098,2
5891.2,54.3,17.615,0,1.2293,0,5860.2,64.898,-0.016276,3.0305,0,0,0.052098,2
5891.2,54.3,17.615,0,1.2293,0,5860.2,64.898,-0.016276,3.0305,0,0,0.052098,2
5891.2,54.3,17.615,0,1.2293,0,5860.2,65.08,-0.012207,3.0305,0.033908,0,0.052012,2
5891.2,54.3,17.615,0,1.2293,0,5860.2,65.08,-0.012207,3.0305,0.033908,0,0.052012,2
5891.2,54.3,17.615,0,1.2293,0,5860.2,65.14,-0.012207,3.0305,0.033908,0,0.05198,2
5891.2,54.3,17.615,0,1.2293,0,5860.2,65.14,-0.012207,3.0305,0.033908,0,0.05198,2
5891.2,54.3,17.615,0,1.2293,0,5860.2,65.14,-0.012207,3.0305,0.033908,0,0.05198,2
5891.2,54.3,17.615,0,1.2293,0,5860.2,65.14,-0.012207,3.0305,0.033908,0,0.05198,2
5893,54.3,17.735,0,1.1573,0,5860.2,65.201,-0.012207,3.0305,0.033908,0,0.049428,2
5893,54.3,17.735,0,1.1573,0,5860.2,65.201,-0.012207,3.0305,0.033908,0,0.049428,2
5893,54.3,17.735,0,1.1573,0,5860.2,65.383,-0.016276,3.0305,-0.033908,0,0.049334,2
5893,54.3,17.735,0,1.1573,0,5860.2,65.383,-0.016276,3.0305,-0.033908,0,0.049334,2
5894,54.3,17.803,0,1.1161,0,5860.2,65.443,-0.016276,3.0305,-0.033908,0,0.047904,2
5894,54.3,17.803,0,1.1161,0,5860.2,65.565,-0.016276,3.0305,-0.033908,0,0.047852,2
5894,54.3,17.803,0,1.1161,0,5860.2,65.565,-0.016276,3.0305,-0.033908,0,0.047852,2
5894,54.3,17.803,0,1.1161,0,5860.2,65.565,-0.016276,3.0305,-0.033908,0,0.047852,2
5894,54.3,17.803,0,1.1161,0,5860.2,65.625,-0.016276,3.0305,-0.033908,0,0.047826,2
5894,54.3,17.803,0,1.1161,0,5860.2,65.625,-0.016276,3.0305,-0.033908,0,0.047826,2
5894,54.3,17.803,0,1.1161,0,5860.2,65.625,-0.016276,3.0305,-0.033908,0,0.047826,2
5894,54.3,17.803,0,1.1161,0,5860.2,65.686,-0.016276,3.0305,-0.033908,0,0.0478,2
5894,54.3,17.803,0,1.1161,0,5860.2,65.686,-0.016276,3.0305,-0.033908,0,0.0478,2
5894,54.3,17.803,0,1.1161,0,5860.2,65.686,-0.016276,3.0305,-0.033908,0,0.0478,2
5894,54.3,17.803,0,1.1161,0,5860.2,65.686,-0.016276,3.0305,-0.033908,0,0.0478,2
5894,54.3,17.803,0,1.1161,0,5860.2,65.686,-0.016276,3.0305,-0.033908,0,0.0478,2
5894,54.3,17.803,0,1.1161,0,5860.2,65.686,-0.016276,3.0305,-0.033908,0,0.0478,2
5894,54.3,17.803,0,1.1161,0,5860.2,65.686,-0.016276,3.0305,-0.033908,0,0.0478,2
5894,54.3,17.803,0,1.1161,0,5860.2,65.686,-0.016276,3.0305,-0.033908,0,0.0478,2
5894,54.3,17.803,0,1.1161,0,5860.2,65.686,-0.016276,3.0305,-0.033908,0,0.0478,2
5895.4,54.3,17.89,0,1.0632,0,5860.2,65.686,-0.016276,3.0305,-0.033908,0,0.046048,2
5896.2,54.3,17.932,0,1.0377,0,5860.2,65.807,-0.016276,3.0305,0,0,0.04517,2
5896.2,54.3,17.932,0,1.0377,0,5860.2,65.807,-0.016276,3.0305,0,0,0.04517,2
5896.2,54.3,17.932,0,1.0377,0,5860.2,65.807,-0.016276,3.0305,0,0,0.04517,2
5896.2,54.3,17.932,0,1.0377,0,5860.2,65.807,-0.016276,3.0305,0,0,0.04517,2
5896.5,54.3,17.953,0,1.0252,0,5860.2,65.807,-0.016276,3.0305,0,0,0.044764,2
5898,54.3,18.033,0,0.9764,0,5860.2,66.049,-0.016276,3.0305,0,0,0.043124,2
5898,54.3,18.033,0,0.9764,0,5860.2,66.049,-0.016276,3.0305,0,0,0.043124,2
5898,54.3,18.033,0,0.9764,0,5860.2,66.049,-0.016276,3.0305,0,0,0.043124,2
5898,54.3,18.033,0,0.9764,0,5860.2,66.049,-0.016276,3.0305,0,0,0.043124,2
5898,54.3,18.033,0,0.9764,0,5860.2,66.049,-0.016276,3.0305,0,0,0.043124,2
5898,54.3,18.033,0,0.9764,0,5860.2,66.049,-0.016276,3.0305,0,0,0.043124,2
5898,54.3,18.033,0,0.9764,0,5860.2,66.049,-0.016276,3.0305,0,0,0.043124,2
5898,54.3,18.033,0,0.9764,0,5860.2,66.049,-0.016276,3.0305,0,0,0.043124,2
5898.3,54.3,18.052,0,0.96455,0,5860.2,66.049,-0.016276,3.0305,0,0,0.042751,2
5898.3,54.3,18.052,0,0.96455,0,5860.2,66.049,-0.016276,3.0305,0,0,0.042751,2
5898.3,54.3,18.052,0,0.96455,0,5860.2,66.292,-0.012207,3.0305,0.033908,0,0.042681,2
5899,54.3,18.09,0,0.94127,0,5860.2,66.292,-0.012207,3.0305,0.033908,0,0.041956,2
5899.4,54.3,18.109,0,0.92983,0,5860.2,66.292,-0.012207,3.0305,0.033908,0,0.041601,2
5900.5,54.3,18.164,0,0.8963,0,5860.2,66.534,-0.016276,3.0305,-0.033908,0,0.040493,2
5900.5,54.3,18.164,0,0.8963,0,5860.2,66.656,-0.016276,3.0305,-0.033908,0,0.040458,2
5900.5,54.3,18.164,0,0.8963,0,5860.2,66.656,-0.016276,3.0305,-0.033908,0,0.040458,2
5901.2,54.3,18.199,0,0.87459,0,5860.2,66.656,-0.016276,3.0305,-0.033908,0,0.039801,2
5901.2,54.3,18.199,0,0.87459,0,5860.2,66.656,-0.016276,3.0305,-0.033908,0,0.039801,2
5901.2,54.3,18.199,0,0.87459,0,5860.2,66.656,-0.016276,3.0305,-0.033908,0,0.039801,2
5901.2,54.3,18.199,0,0.87459,0,5860.2,66.656,-0.016276,3.0305,-0.033908,0,0.039801,2
5901.2,54.3,18.199,0,0.87459,0,5860.2,66.656,-0.016276,3.0305,-0.033908,0,0.039801,2
5901.2,54.3,18.199,0,0.87459,0,5860.2,66.656,-0.016276,3.0305,-0.033908,0,0.039801,2
5901.2,54.3,18.199,0,0.87459,0,5860.2,66.656,-0.016276,3.0305,-0.033908,0,0.039801,2
5901.2,54.3,18.199,0,0.87459,0,5860.2,66.656,-0.016276,3.0305,-0.033908,0,0.039801,2
5901.2,54.3,18.199,0,0.87459,0,5860.2,66.656,-0.016276,3.0305,-0.033908,0,0.039801,2
5901.2,54.3,18.199,0,0.87459,0,5860.2,66.656,-0.016276,3.0305,-0.033908,0,0.039801,2
5901.2,54.3,18.199,0,0.87459,0,5860.2,66.777,-0.016276,3.0305,-0.033908,0,0.039768,2
5901.2,54.3,18.199,0,0.87459,0,5860.2,66.777,-0.016276,3.0305,-0.033908,0,0.039768,2
5901.2,54.3,18.199,0,0.87459,0,5860.2,66.777,-0.016276,3.0305,-0.033908,0,0.039768,2
5901.2,54.3,18.199,0,0.87459,0,5860.2,66.777,-0.016276,3.0305,-0.033908,0,0.039768,2
5901.2,54.3,18.199,0,0.87459,0,5860.2,66.837,-0.012207,3.0305,0.033908,0,0.039759,2
5901.2,54.3,18.199,0,0.87459,0,5860.2,66.837,-0.012207,3.0305,0.033908,0,0.039759,2
5901.2,54.3,18.199,0,0.87459,0,5860.2,66.837,-0.012207,3.0305,0.033908,0,0.039759,2
5901.2,54.3,18.199,0,0.87459,0,5860.2,66.837,-0.012207,3.0305,0.033908,0,0.039759,2
5901.2,54.3,18.199,0,0.87459,0,5860.2,66.898,-0.012207,3.0305,0.033908,0,0.039742,2
5901.2,54.3,18.199,0,0.87459,0,5860.2,66.898,-0.012207,3.0305,0.033908,0,0.039742,2
5901.2,54.3,18.199,0,0.87459,0,5860.2,66.898,-0.012207,3.0305,0.033908,0,0.039742,2
5903.8,54.3,18.317,0,0.80247,0,5860.2,66.898,-0.012207,3.0305,0.033908,0,0.037594,2
5904.5,54.3,18.348,0,0.78293,0,5860.2,67.201,-0.016276,3.0305,-0.033908,0,0.036943,2
5904.5,54.3,18.348,0,0.78293,0,5860.2,67.201,-0.016276,3.0305,-0.033908,0,0.036943,2
