61.522,76.537,45.182,35.036,51.363,85.251,3.4348,25.648,-7.6147,34.48,-61.845,40.441,-4.736,61.334,-20.794,55.752
61.522,76.537,45.182,35.036,51.363,85.251,3.4348,25.648,-7.6147,34.48,-61.845,40.441,-4.736,61.334,-20.794,55.752
61.522,76.537,45.182,35.036,51.363,85.251,3.4348,25.648,-7.6147,34.48,-61.845,40.441,-4.736,61.334,-20.794,55.752
61.21,76.32,45.019,34.828,51.183,85.001,3.4766,25.622,-7.7508,34.284,-61.771,40.188,-4.8417,61.05,-20.763,55.526
61.21,76.32,45.019,34.828,51.183,85.001,3.4766,25.622,-7.7508,34.284,-61.771,40.188,-4.8417,61.05,-20.763,55.526
60.897,76.102,44.856,34.619,51.002,84.749,3.5182,25.594,-7.8869,34.088,-61.696,39.934,-4.9469,60.765,-20.731,55.298
60.897,76.102,44.856,34.619,51.002,84.749,3.5182,25.594,-7.8869,34.088,-61.696,39.934,-4.9469,60.765,-20.731,55.298
60.897,76.102,44.856,34.619,51.002,84.749,3.5182,25.594,-7.8869,34.088,-61.696,39.934,-4.9469,60.765,-20.731,55.298
60.267,75.659,44.527,34.199,50.639,84.239,3.6007,25.533,-8.1593,33.692,-61.543,39.422,-5.1559,60.19,-20.665,54.836
60.267,75.659,44.527,34.199,50.639,84.239,3.6007,25.533,-8.1593,33.692,-61.543,39.422,-5.1559,60.19,-20.665,54.836
59.95,75.436,44.362,33.988,50.456,83.981,3.6416,25.501,-8.2954,33.493,-61.464,39.163,-5.2597,59.9,-20.632,54.603
59.95,75.436,44.362,33.988,50.456,83.981,3.6416,25.501,-8.2954,33.493,-61.464,39.163,-5.2597,59.9,-20.632,54.603
59.633,75.211,44.196,33.775,50.272,83.721,3.6823,25.466,-8.4316,33.293,-61.384,38.903,-5.3629,59.608,-20.598,54.367
59.633,75.211,44.196,33.775,50.272,83.721,3.6823,25.466,-8.4316,33.293,-61.384,38.903,-5.3629,59.608,-20.598,54.367
59.313,74.984,44.03,33.562,50.087,83.46,3.7228,25.431,-8.5677,33.092,-61.303,38.641,-5.4657,59.315,-20.564,54.13
58.993,74.756,43.863,33.349,49.902,83.197,3.7631,25.393,-8.7037,32.89,-61.221,38.377,-5.5679,59.02,-20.529,53.891
58.993,74.756,43.863,33.349,49.902,83.197,3.7631,25.393,-8.7037,32.89,-61.221,38.377,-5.5679,59.02,-20.529,53.891
58.672,74.526,43.695,33.134,49.716,82.932,3.8032,25.354,-8.8397,32.687,-61.138,38.112,-5.6696,58.723,-20.493,53.65
58.672,74.526,43.695,33.134,49.716,82.932,3.8032,25.354,-8.8397,32.687,-61.138,38.112,-5.6696,58.723,-20.493,53.65
58.672,74.526,43.695,33.134,49.716,82.932,3.8032,25.354,-8.8397,32.687,-61.138,38.112,-5.6696,58.723,-20.493,53.65
58.349,74.294,43.527,32.919,49.529,82.665,3.8432,25.313,-8.9757,32.483,-61.053,37.845,-5.7708,58.425,-20.457,53.407
58.349,74.294,43.527,32.919,49.529,82.665,3.8432,25.313,-8.9757,32.483,-61.053,37.845,-5.7708,58.425,-20.457,53.407
58.349,74.294,43.527,32.919,49.529,82.665,3.8432,25.313,-8.9757,32.483,-61.053,37.845,-5.7708,58.425,-20.457,53.407
58.026,74.061,43.358,32.702,49.341,82.397,3.8829,25.271,-9.1115,32.278,-60.967,37.576,-5.8714,58.126,-20.421,53.162
57.701,73.827,43.189,32.485,49.152,82.127,3.9225,25.227,-9.2473,32.073,-60.88,37.306,-5.9715,57.825,-20.384,52.916
57.701,73.827,43.189,32.485,49.152,82.127,3.9225,25.227,-9.2473,32.073,-60.88,37.306,-5.9715,57.825,-20.384,52.916
57.375,73.591,43.019,32.268,48.963,81.855,3.962,25.182,-9.3829,31.866,-60.791,37.034,-6.071,57.522,-20.346,52.667
57.375,73.591,43.019,32.268,48.963,81.855,3.962,25.182,-9.3829,31.866,-60.791,37.034,-6.071,57.522,-20.346,52.667
57.048,73.353,42.849,32.049,48.773,81.581,4.0013,25.134,-9.5184,31.659,-60.701,36.761,-6.1699,57.217,-20.308,52.417
57.048,73.353,42.849,32.049,48.773,81.581,4.0013,25.134,-9.5184,31.659,-60.701,36.761,-6.1699,57.217,-20.308,52.417
56.72,73.114,42.678,31.83,48.582,81.306,4.0405,25.086,-9.6538,31.45,-60.61,36.486,-6.2683,56.912,-20.269,52.164
56.72,73.114,42.678,31.83,48.582,81.306,4.0405,25.086,-9.6538,31.45,-60.61,36.486,-6.2683,56.912,-20.269,52.164
56.391,72.873,42.507,31.609,48.391,81.028,4.0796,25.035,-9.7891,31.241,-60.517,36.21,-6.366,56.604,-20.229,51.91
56.391,72.873,42.507,31.609,48.391,81.028,4.0796,25.035,-9.7891,31.241,-60.517,36.21,-6.366,56.604,-20.229,51.91
56.061,72.631,42.335,31.388,48.199,80.75,4.1185,24.983,-9.9242,31.031,-60.423,35.932,-6.4632,56.295,-20.189,51.654
56.061,72.631,42.335,31.388,48.199,80.75,4.1185,24.983,-9.9242,31.031,-60.423,35.932,-6.4632,56.295,-20.189,51.654
55.73,72.387,42.163,31.166,48.006,80.469,4.1573,24.929,-10.059,30.82,-60.328,35.652,-6.5598,55.984,-20.149,51.396
55.73,72.387,42.163,31.166,48.006,80.469,4.1573,24.929,-10.059,30.82,-60.328,35.652,-6.5598,55.984,-20.149,51.396
55.398,72.142,41.99,30.944,47.812,80.187,4.1961,24.874,-10.194,30.608,-60.231,35.371,-6.6557,55.672,-20.107,51.136
55.398,72.142,41.99,30.944,47.812,80.187,4.1961,24.874,-10.194,30.608,-60.231,35.371,-6.6557,55.672,-20.107,51.136
55.064,71.895,41.817,30.72,47.618,79.903,4.2347,24.816,-10.328,30.395,-60.134,35.088,-6.7511,55.359,-20.065,50.874
55.064,71.895,41.817,30.72,47.618,79.903,4.2347,24.816,-10.328,30.395,-60.134,35.088,-6.7511,55.359,-20.065,50.874
55.064,71.895,41.817,30.72,47.618,79.903,4.2347,24.816,-10.328,30.395,-60.134,35.088,-6.7511,55.359,-20.065,50.874
54.73,71.647,41.643,30.496,47.423,79.618,4.2732,24.757,-10.463,30.181,-60.034,34.804,-6.8458,55.043,-20.023,50.61
54.395,71.398,41.469,30.271,47.227,79.33,4.3117,24.697,-10.597,29.966,-59.934,34.518,-6.9398,54.726,-19.979,50.344
54.395,71.398,41.469,30.271,47.227,79.33,4.3117,24.697,-10.597,29.966,-59.934,34.518,-6.9398,54.726,-19.979,50.344
54.058,71.147,41.295,30.045,47.031,79.042,4.3501,24.635,-10.731,29.751,-59.832,34.23,-7.0332,54.408,-19.935,50.077
54.058,71.147,41.295,30.045,47.031,79.042,4.3501,24.635,-10.731,29.751,-59.832,34.23,-7.0332,54.408,-19.935,50.077
53.721,70.894,41.12,29.818,46.834,78.751,4.3885,24.571,-10.864,29.534,-59.728,33.941,-7.126,54.088,-19.89,49.807
53.721,70.894,41.12,29.818,46.834,78.751,4.3885,24.571,-10.864,29.534,-59.728,33.941,-7.126,54.088,-19.89,49.807
53.383,70.641,40.945,29.591,46.636,78.459,4.4268,24.505,-10.998,29.317,-59.624,33.651,-7.2181,53.767,-19.845,49.536
53.383,70.641,40.945,29.591,46.636,78.459,4.4268,24.505,-10.998,29.317,-59.624,33.651,-7.2181,53.767,-19.845,49.536
53.383,70.641,40.945,29.591,46.636,78.459,4.4268,24.505,-10.998,29.317,-59.624,33.651,-7.2181,53.767,-19.845,49.536
53.044,70.385,40.769,29.362,46.438,78.165,4.465,24.438,-11.131,29.098,-59.518,33.359,-7.3095,53.444,-19.798,49.263
53.044,70.385,40.769,29.362,46.438,78.165,4.465,24.438,-11.131,29.098,-59.518,33.359,-7.3095,53.444,-19.798,49.263
53.044,70.385,40.769,29.362,46.438,78.165,4.465,24.438,-11.131,29.098,-59.518,33.359,-7.3095,53.444,-19.798,49.263
52.704,70.129,40.593,29.133,46.239,77.87,4.5033,24.369,-11.264,28.879,-59.41,33.065,-7.4003,53.12,-19.751,48.987
52.704,70.129,40.593,29.133,46.239,77.87,4.5033,24.369,-11.264,28.879,-59.41,33.065,-7.4003,53.12,-19.751,48.987
52.02,69.611,40.24,28.673,45.839,77.275,4.5796,24.225,-11.528,28.438,-59.191,32.473,-7.5797,52.466,-19.655,48.431
52.02,69.611,40.24,28.673,45.839,77.275,4.5796,24.225,-11.528,28.438,-59.191,32.473,-7.5797,52.466,-19.655,48.431
51.677,69.351,40.063,28.442,45.638,76.975,4.6178,24.151,-11.66,28.216,-59.079,32.175,-7.6684,52.138,-19.606,48.15
51.677,69.351,40.063,28.442,45.638,76.975,4.6178,24.151,-11.66,28.216,-59.079,32.175,-7.6684,52.138,-19.606,48.15
51.334,69.088,39.886,28.209,45.436,76.674,4.656,24.075,-11.792,27.993,-58.966,31.876,-7.7563,51.807,-19.555,47.868
51.334,69.088,39.886,28.209,45.436,76.674,4.656,24.075,-11.792,27.993,-58.966,31.876,-7.7563,51.807,-19.555,47.868
50.989,68.825,39.708,27.976,45.234,76.371,4.6941,23.997,-11.923,27.77,-58.852,31.575,-7.8436,51.475,-19.505,47.583
50.643,68.56,39.531,27.743,45.031,76.066,4.7323,23.918,-12.054,27.545,-58.736,31.272,-7.9301,51.142,-19.453,47.296
50.643,68.56,39.531,27.743,45.031,76.066,4.7323,23.918,-12.054,27.545,-58.736,31.272,-7.9301,51.142,-19.453,47.296
50.643,68.56,39.531,27.743,45.031,76.066,4.7323,23.918,-12.054,27.545,-58.736,31.272,-7.9301,51.142,-19.453,47.296
50.297,68.294,39.352,27.508,44.828,75.76,4.7705,23.837,-12.185,27.32,-58.618,30.968,-8.0159,50.807,-19.4,47.008
50.297,68.294,39.352,27.508,44.828,75.76,4.7705,23.837,-12.185,27.32,-58.618,30.968,-8.0159,50.807,-19.4,47.008
49.95,68.027,39.174,27.273,44.624,75.453,4.8088,23.754,-12.315,27.094,-58.499,30.663,-8.1009,50.471,-19.347,46.718
49.95,68.027,39.174,27.273,44.624,75.453,4.8088,23.754,-12.315,27.094,-58.499,30.663,-8.1009,50.471,-19.347,46.718
49.601,67.758,38.995,27.037,44.419,75.144,4.847,23.669,-12.445,26.867,-58.379,30.356,-8.1852,50.134,-19.292,46.425
49.601,67.758,38.995,27.037,44.419,75.144,4.847,23.669,-12.445,26.867,-58.379,30.356,-8.1852,50.134,-19.292,46.425
49.252,67.488,38.816,26.8,44.214,74.833,4.8854,23.583,-12.574,26.639,-58.258,30.047,-8.2688,49.795,-19.237,46.131
49.252,67.488,38.816,26.8,44.214,74.833,4.8854,23.583,-12.574,26.639,-58.258,30.047,-8.2688,49.795,-19.237,46.131
48.903,67.217,38.637,26.563,44.008,74.521,4.9237,23.495,-12.703,26.41,-58.134,29.738,-8.3516,49.454,-19.181,45.835
48.903,67.217,38.637,26.563,44.008,74.521,4.9237,23.495,-12.703,26.41,-58.134,29.738,-8.3516,49.454,-19.181,45.835
48.552,66.944,38.458,26.324,43.801,74.208,4.9622,23.405,-12.832,26.18,-58.01,29.426,-8.4336,49.112,-19.124,45.538
48.552,66.944,38.458,26.324,43.801,74.208,4.9622,23.405,-12.832,26.18,-58.01,29.426,-8.4336,49.112,-19.124,45.538
48.201,66.671,38.278,26.085,43.594,73.893,5.0007,23.313,-12.96,25.95,-57.884,29.114,-8.5148,48.769,-19.066,45.238
48.201,66.671,38.278,26.085,43.594,73.893,5.0007,23.313,-12.96,25.95,-57.884,29.114,-8.5148,48.769,-19.066,45.238
47.848,66.396,38.098,25.845,43.387,73.577,5.0392,23.22,-13.087,25.719,-57.756,28.8,-8.5953,48.424,-19.007,44.936
47.848,66.396,38.098,25.845,43.387,73.577,5.0392,23.22,-13.087,25.719,-57.756,28.8,-8.5953,48.424,-19.007,44.936
47.495,66.12,37.918,25.605,43.179,73.259,5.0779,23.125,-13.215,25.486,-57.627,28.484,-8.675,48.078,-18.948,44.633
47.495,66.12,37.918,25.605,43.179,73.259,5.0779,23.125,-13.215,25.486,-57.627,28.484,-8.675,48.078,-18.948,44.633
47.495,66.12,37.918,25.605,43.179,73.259,5.0779,23.125,-13.215,25.486,-57.627,28.484,-8.675,48.078,-18.948,44.633
47.142,65.842,37.738,25.364,42.97,72.94,5.1167,23.028,-13.341,25.254,-57.497,28.168,-8.7539,47.731,-18.887,44.327
47.142,65.842,37.738,25.364,42.97,72.94,5.1167,23.028,-13.341,25.254,-57.497,28.168,-8.7539,47.731,-18.887,44.327
47.142,65.842,37.738,25.364,42.97,72.94,5.1167,23.028,-13.341,25.254,-57.497,28.168,-8.7539,47.731,-18.887,44.327
46.432,65.284,37.377,24.879,42.551,72.298,5.1945,22.829,-13.593,24.785,-57.231,27.53,-8.9093,47.032,-18.763,43.711
46.432,65.284,37.377,24.879,42.551,72.298,5.1945,22.829,-13.593,24.785,-57.231,27.53,-8.9093,47.032,-18.763,43.711
46.432,65.284,37.377,24.879,42.551,72.298,5.1945,22.829,-13.593,24.785,-57.231,27.53,-8.9093,47.032,-18.763,43.711
46.076,65.003,37.196,24.636,42.341,71.975,5.2335,22.727,-13.719,24.55,-57.096,27.209,-8.9857,46.68,-18.699,43.4
46.076,65.003,37.196,24.636,42.341,71.975,5.2335,22.727,-13.719,24.55,-57.096,27.209,-8.9857,46.68,-18.699,43.4
45.72,64.721,37.015,24.392,42.13,71.651,5.2727,22.623,-13.843,24.314,-56.96,26.887,-9.0614,46.327,-18.635,43.088
45.72,64.721,37.015,24.392,42.13,71.651,5.2727,22.623,-13.843,24.314,-56.96,26.887,-9.0614,46.327,-18.635,43.088
45.72,64.721,37.015,24.392,42.13,71.651,5.2727,22.623,-13.843,24.314,-56.96,26.887,-9.0614,46.327,-18.635,43.088
45.004,64.153,36.653,23.901,41.707,70.998,5.3515,22.41,-14.091,23.839,-56.683,26.239,-9.2102,45.618,-18.502,42.457
45.004,64.153,36.653,23.901,41.707,70.998,5.3515,22.41,-14.091,23.839,-56.683,26.239,-9.2102,45.618,-18.502,42.457
45.004,64.153,36.653,23.901,41.707,70.998,5.3515,22.41,-14.091,23.839,-56.683,26.239,-9.2102,45.618,-18.502,42.457
44.645,63.868,36.472,23.655,41.495,70.67,5.3911,22.301,-14.214,23.6,-56.542,25.912,-9.2833,45.261,-18.435,42.139
44.645,63.868,36.472,23.655,41.495,70.67,5.3911,22.301,-14.214,23.6,-56.542,25.912,-9.2833,45.261,-18.435,42.139
44.286,63.581,36.291,23.408,41.282,70.34,5.4309,22.19,-14.337,23.361,-56.399,25.585,-9.3557,44.903,-18.366,41.819
43.926,63.294,36.109,23.16,41.069,70.01,5.4708,22.077,-14.459,23.121,-56.256,25.256,-9.4271,44.543,-18.297,41.497
43.926,63.294,36.109,23.16,41.069,70.01,5.4708,22.077,-14.459,23.121,-56.256,25.256,-9.4271,44.543,-18.297,41.497
43.565,63.005,35.928,22.912,40.855,69.678,5.5109,21.963,-14.58,22.88,-56.11,24.926,-9.4977,44.183,-18.226,41.173
43.565,63.005,35.928,22.912,40.855,69.678,5.5109,21.963,-14.58,22.88,-56.11,24.926,-9.4977,44.183,-18.226,41.173
43.565,63.005,35.928,22.912,40.855,69.678,5.5109,21.963,-14.58,22.88,-56.11,24.926,-9.4977,44.183,-18.226,41.173
43.204,62.715,35.747,22.663,40.641,69.344,5.5511,21.847,-14.701,22.638,-55.963,24.595,-9.5675,43.821,-18.154,40.848
43.204,62.715,35.747,22.663,40.641,69.344,5.5511,21.847,-14.701,22.638,-55.963,24.595,-9.5675,43.821,-18.154,40.848
43.204,62.715,35.747,22.663,40.641,69.344,5.5511,21.847,-14.701,22.638,-55.963,24.595,-9.5675,43.821,-18.154,40.848
42.48,62.133,35.383,22.163,40.211,68.674,5.6321,21.609,-14.941,22.152,-55.665,23.929,-9.7043,43.093,-18.008,40.192
42.48,62.133,35.383,22.163,40.211,68.674,5.6321,21.609,-14.941,22.152,-55.665,23.929,-9.7043,43.093,-18.008,40.192
42.117,61.84,35.202,21.912,39.995,68.337,5.6729,21.488,-15.06,21.909,-55.513,23.594,-9.7714,42.728,-17.933,39.861
41.753,61.546,35.02,21.661,39.779,67.999,5.7139,21.365,-15.178,21.664,-55.36,23.258,-9.8377,42.361,-17.857,39.528
41.753,61.546,35.02,21.661,39.779,67.999,5.7139,21.365,-15.178,21.664,-55.36,23.258,-9.8377,42.361,-17.857,39.528
41.389,61.251,34.839,21.408,39.563,67.66,5.7551,21.24,-15.296,21.419,-55.206,22.921,-9.903,41.993,-17.779,39.194
41.389,61.251,34.839,21.408,39.563,67.66,5.7551,21.24,-15.296,21.419,-55.206,22.921,-9.903,41.993,-17.779,39.194
41.389,61.251,34.839,21.408,39.563,67.66,5.7551,21.24,-15.296,21.419,-55.206,22.921,-9.903,41.993,-17.779,39.194
41.024,60.955,34.657,21.155,39.346,67.319,5.7966,21.114,-15.413,21.172,-55.05,22.582,-9.9675,41.624,-17.701,38.858
41.024,60.955,34.657,21.155,39.346,67.319,5.7966,21.114,-15.413,21.172,-55.05,22.582,-9.9675,41.624,-17.701,38.858
41.024,60.955,34.657,21.155,39.346,67.319,5.7966,21.114,-15.413,21.172,-55.05,22.582,-9.9675,41.624,-17.701,38.858
40.659,60.659,34.475,20.902,39.128,66.978,5.8382,20.986,-15.529,20.926,-54.892,22.242,-10.031,41.253,-17.622,38.52
40.293,60.361,34.294,20.648,38.911,66.635,5.88,20.856,-15.645,20.678,-54.733,21.902,-10.094,40.882,-17.541,38.181
40.293,60.361,34.294,20.648,38.911,66.635,5.88,20.856,-15.645,20.678,-54.733,21.902,-10.094,40.882,-17.541,38.181
39.927,60.062,34.112,20.393,38.692,66.292,5.9221,20.724,-15.76,20.43,-54.572,21.56,-10.155,40.509,-17.459,37.84
39.927,60.062,34.112,20.393,38.692,66.292,5.9221,20.724,-15.76,20.43,-54.572,21.56,-10.155,40.509,-17.459,37.84
39.56,59.763,33.931,20.137,38.474,65.947,5.9645,20.591,-15.874,20.181,-54.41,21.216,-10.216,40.135,-17.377,37.497
39.56,59.763,33.931,20.137,38.474,65.947,5.9645,20.591,-15.874,20.181,-54.41,21.216,-10.216,40.135,-17.377,37.497
39.193,59.462,33.749,19.882,38.255,65.601,6.007,20.456,-15.987,19.932,-54.246,20.872,-10.276,39.76,-17.293,37.152
39.193,59.462,33.749,19.882,38.255,65.601,6.007,20.456,-15.987,19.932,-54.246,20.872,-10.276,39.76,-17.293,37.152
38.825,59.161,33.568,19.625,38.035,65.254,6.0498,20.319,-16.1,19.681,-54.081,20.527,-10.335,39.384,-17.207,36.806
38.825,59.161,33.568,19.625,38.035,65.254,6.0498,20.319,-16.1,19.681,-54.081,20.527,-10.335,39.384,-17.207,36.806
38.457,58.859,33.386,19.368,37.816,64.906,6.0929,20.181,-16.212,19.431,-53.914,20.181,-10.393,39.007,-17.121,36.458
38.457,58.859,33.386,19.368,37.816,64.906,6.0929,20.181,-16.212,19.431,-53.914,20.181,-10.393,39.007,-17.121,36.458
38.088,58.556,33.205,19.11,37.595,64.557,6.1362,20.04,-16.323,19.179,-53.746,19.833,-10.45,38.628,-17.033,36.108
38.088,58.556,33.205,19.11,37.595,64.557,6.1362,20.04,-16.323,19.179,-53.746,19.833,-10.45,38.628,-17.033,36.108
37.719,58.252,33.024,18.852,37.375,64.207,6.1798,19.899,-16.434,18.927,-53.576,19.485,-10.506,38.249,-16.945,35.757
37.719,58.252,33.024,18.852,37.375,64.207,6.1798,19.899,-16.434,18.927,-53.576,19.485,-10.506,38.249,-16.945,35.757
37.719,58.252,33.024,18.852,37.375,64.207,6.1798,19.899,-16.434,18.927,-53.576,19.485,-10.506,38.249,-16.945,35.757
37.35,57.947,32.843,18.593,37.154,63.857,6.2237,19.755,-16.544,18.674,-53.405,19.135,-10.562,37.869,-16.855,35.403
37.35,57.947,32.843,18.593,37.154,63.857,6.2237,19.755,-16.544,18.674,-53.405,19.135,-10.562,37.869,-16.855,35.403
36.98,57.642,32.662,18.333,36.933,63.505,6.2679,19.61,-16.653,18.421,-53.232,18.785,-10.616,37.487,-16.764,35.049
36.61,57.335,32.481,18.073,36.711,63.152,6.3123,19.463,-16.761,18.167,-53.057,18.433,-10.669,37.105,-16.671,34.693
36.61,57.335,32.481,18.073,36.711,63.152,6.3123,19.463,-16.761,18.167,-53.057,18.433,-10.669,37.105,-16.671,34.693
36.239,57.028,32.301,17.813,36.489,62.798,6.357,19.315,-16.868,17.912,-52.881,18.081,-10.721,36.722,-16.578,34.335
36.239,57.028,32.301,17.813,36.489,62.798,6.357,19.315,-16.868,17.912,-52.881,18.081,-10.721,36.722,-16.578,34.335
36.239,57.028,32.301,17.813,36.489,62.798,6.357,19.315,-16.868,17.912,-52.881,18.081,-10.721,36.722,-16.578,34.335
35.868,56.72,32.12,17.552,36.267,62.443,6.4021,19.164,-16.975,17.657,-52.704,17.727,-10.773,36.337,-16.483,33.975
35.868,56.72,32.12,17.552,36.267,62.443,6.4021,19.164,-16.975,17.657,-52.704,17.727,-10.773,36.337,-16.483,33.975
35.497,56.412,31.94,17.29,36.044,62.088,6.4474,19.013,-17.081,17.401,-52.525,17.373,-10.823,35.952,-16.387,33.614
35.497,56.412,31.94,17.29,36.044,62.088,6.4474,19.013,-17.081,17.401,-52.525,17.373,-10.823,35.952,-16.387,33.614
35.125,56.102,31.76,17.028,35.821,61.731,6.493,18.859,-17.186,17.145,-52.344,17.017,-10.873,35.565,-16.289,33.251
34.753,55.792,31.58,16.766,35.598,61.374,6.5389,18.704,-17.29,16.888,-52.162,16.661,-10.921,35.178,-16.191,32.887
34.753,55.792,31.58,16.766,35.598,61.374,6.5389,18.704,-17.29,16.888,-52.162,16.661,-10.921,35.178,-16.191,32.887
34.38,55.482,31.4,16.503,35.374,61.016,6.5852,18.547,-17.393,16.631,-51.978,16.304,-10.969,34.79,-16.091,32.521
34.38,55.482,31.4,16.503,35.374,61.016,6.5852,18.547,-17.393,16.631,-51.978,16.304,-10.969,34.79,-16.091,32.521
34.008,55.17,31.22,16.239,35.15,60.657,6.6318,18.389,-17.495,16.373,-51.793,15.946,-11.015,34.401,-15.989,32.154
34.008,55.17,31.22,16.239,35.15,60.657,6.6318,18.389,-17.495,16.373,-51.793,15.946,-11.015,34.401,-15.989,32.154
34.008,55.17,31.22,16.239,35.15,60.657,6.6318,18.389,-17.495,16.373,-51.793,15.946,-11.015,34.401,-15.989,32.154
33.635,54.858,31.041,15.975,34.926,60.297,6.6787,18.229,-17.597,16.114,-51.606,15.587,-11.061,34.011,-15.887,31.785
33.262,54.545,30.862,15.711,34.702,59.936,6.7259,18.067,-17.697,15.855,-51.417,15.227,-11.105,33.62,-15.783,31.414
33.262,54.545,30.862,15.711,34.702,59.936,6.7259,18.067,-17.697,15.855,-51.417,15.227,-11.105,33.62,-15.783,31.414
32.888,54.232,30.683,15.446,34.477,59.575,6.7735,17.904,-17.797,15.596,-51.228,14.867,-11.149,33.228,-15.678,31.043
32.888,54.232,30.683,15.446,34.477,59.575,6.7735,17.904,-17.797,15.596,-51.228,14.867,-11.149,33.228,-15.678,31.043
32.514,53.918,30.504,15.18,34.252,59.213,6.8214,17.739,-17.896,15.336,-51.036,14.505,-11.192,32.835,-15.572,30.669
32.514,53.918,30.504,15.18,34.252,59.213,6.8214,17.739,-17.896,15.336,-51.036,14.505,-11.192,32.835,-15.572,30.669
32.14,53.603,30.326,14.915,34.026,58.85,6.8696,17.573,-17.994,15.076,-50.843,14.143,-11.233,32.442,-15.464,30.294
32.14,53.603,30.326,14.915,34.026,58.85,6.8696,17.573,-17.994,15.076,-50.843,14.143,-11.233,32.442,-15.464,30.294
31.766,53.288,30.147,14.648,33.801,58.486,6.9182,17.405,-18.091,14.815,-50.649,13.78,-11.274,32.048,-15.355,29.918
31.766,53.288,30.147,14.648,33.801,58.486,6.9182,17.405,-18.091,14.815,-50.649,13.78,-11.274,32.048,-15.355,29.918
31.766,53.288,30.147,14.648,33.801,58.486,6.9182,17.405,-18.091,14.815,-50.649,13.78,-11.274,32.048,-15.355,29.918
31.392,52.972,29.97,14.382,33.575,58.122,6.9672,17.236,-18.187,14.553,-50.453,13.416,-11.313,31.653,-15.245,29.54
31.392,52.972,29.97,14.382,33.575,58.122,6.9672,17.236,-18.187,14.553,-50.453,13.416,-11.313,31.653,-15.245,29.54
31.392,52.972,29.97,14.382,33.575,58.122,6.9672,17.236,-18.187,14.553,-50.453,13.416,-11.313,31.653,-15.245,29.54
31.017,52.656,29.792,14.115,33.349,57.757,7.0165,17.065,-18.282,14.291,-50.255,13.052,-11.352,31.257,-15.133,29.161
31.017,52.656,29.792,14.115,33.349,57.757,7.0165,17.065,-18.282,14.291,-50.255,13.052,-11.352,31.257,-15.133,29.161
30.267,52.021,29.437,13.579,32.896,57.025,7.1162,16.718,-18.47,13.767,-49.855,12.32,-11.426,30.463,-14.906,28.398
30.267,52.021,29.437,13.579,32.896,57.025,7.1162,16.718,-18.47,13.767,-49.855,12.32,-11.426,30.463,-14.906,28.398
29.892,51.704,29.26,13.311,32.669,56.657,7.1666,16.542,-18.562,13.503,-49.653,11.954,-11.462,30.065,-14.79,28.015
29.892,51.704,29.26,13.311,32.669,56.657,7.1666,16.542,-18.562,13.503,-49.653,11.954,-11.462,30.065,-14.79,28.015
29.892,51.704,29.26,13.311,32.669,56.657,7.1666,16.542,-18.562,13.503,-49.653,11.954,-11.462,30.065,-14.79,28.015
29.517,51.385,29.084,13.043,32.442,56.29,7.2174,16.365,-18.653,13.24,-49.45,11.586,-11.496,29.666,-14.673,27.63
29.517,51.385,29.084,13.043,32.442,56.29,7.2174,16.365,-18.653,13.24,-49.45,11.586,-11.496,29.666,-14.673,27.63
29.142,51.066,28.908,12.774,32.214,55.921,7.2686,16.186,-18.744,12.976,-49.245,11.218,-11.53,29.267,-14.555,27.244
28.766,50.747,28.732,12.505,31.987,55.553,7.3201,16.006,-18.833,12.712,-49.038,10.85,-11.562,28.867,-14.435,26.856
28.766,50.747,28.732,12.505,31.987,55.553,7.3201,16.006,-18.833,12.712,-49.038,10.85,-11.562,28.867,-14.435,26.856
28.766,50.747,28.732,12.505,31.987,55.553,7.3201,16.006,-18.833,12.712,-49.038,10.85,-11.562,28.867,-14.435,26.856
28.391,50.427,28.556,12.235,31.759,55.183,7.3721,15.825,-18.922,12.447,-48.83,10.481,-11.594,28.466,-14.314,26.467
28.391,50.427,28.556,12.235,31.759,55.183,7.3721,15.825,-18.922,12.447,-48.83,10.481,-11.594,28.466,-14.314,26.467
28.391,50.427,28.556,12.235,31.759,55.183,7.3721,15.825,-18.922,12.447,-48.83,10.481,-11.594,28.466,-14.314,26.467
27.639,49.786,28.206,11.695,31.303,54.443,7.4771,15.457,-19.095,11.917,-48.409,9.7405,-11.653,27.663,-14.068,25.686
27.639,49.786,28.206,11.695,31.303,54.443,7.4771,15.457,-19.095,11.917,-48.409,9.7405,-11.653,27.663,-14.068,25.686
27.639,49.786,28.206,11.695,31.303,54.443,7.4771,15.457,-19.095,11.917,-48.409,9.7405,-11.653,27.663,-14.068,25.686
27.263,49.465,28.032,11.425,31.075,54.071,7.5302,15.271,-19.181,11.652,-48.196,9.3695,-11.682,27.26,-13.943,25.293
26.888,49.144,27.857,11.154,30.846,53.7,7.5837,15.083,-19.265,11.386,-47.982,8.9981,-11.709,26.857,-13.816,24.899
26.888,49.144,27.857,11.154,30.846,53.7,7.5837,15.083,-19.265,11.386,-47.982,8.9981,-11.709,26.857,-13.816,24.899
26.512,48.822,27.684,10.883,30.618,53.328,7.6376,14.894,-19.348,11.12,-47.766,8.6261,-11.736,26.453,-13.688,24.504
26.512,48.822,27.684,10.883,30.618,53.328,7.6376,14.894,-19.348,11.12,-47.766,8.6261,-11.736,26.453,-13.688,24.504
26.136,48.5,27.51,10.612,30.389,52.955,7.6919,14.704,-19.43,10.853,-47.549,8.2537,-11.761,26.049,-13.559,24.107
26.136,48.5,27.51,10.612,30.389,52.955,7.6919,14.704,-19.43,10.853,-47.549,8.2537,-11.761,26.049,-13.559,24.107
26.136,48.5,27.51,10.612,30.389,52.955,7.6919,14.704,-19.43,10.853,-47.549,8.2537,-11.761,26.049,-13.559,24.107
25.76,48.178,27.337,10.34,30.16,52.582,7.7466,14.512,-19.512,10.587,-47.331,7.8808,-11.785,25.645,-13.428,23.71
25.76,48.178,27.337,10.34,30.16,52.582,7.7466,14.512,-19.512,10.587,-47.331,7.8808,-11.785,25.645,-13.428,23.71
25.384,47.855,27.165,10.068,29.93,52.209,7.8017,14.319,-19.592,10.32,-47.111,7.5074,-11.808,25.239,-13.296,23.311
25.008,47.532,26.992,9.7966,29.701,51.835,7.8572,14.125,-19.671,10.053,-46.889,7.1336,-11.831,24.834,-13.162,22.911
25.008,47.532,26.992,9.7966,29.701,51.835,7.8572,14.125,-19.671,10.053,-46.889,7.1336,-11.831,24.834,-13.162,22.911
24.632,47.209,26.821,9.5244,29.472,51.461,7.9132,13.929,-19.749,9.7854,-46.666,6.7594,-11.852,24.428,-13.027,22.51
24.632,47.209,26.821,9.5244,29.472,51.461,7.9132,13.929,-19.749,9.7854,-46.666,6.7594,-11.852,24.428,-13.027,22.51
24.256,46.885,26.649,9.2521,29.242,51.086,7.9695,13.732,-19.826,9.5179,-46.442,6.3848,-11.872,24.021,-12.891,22.107
24.256,46.885,26.649,9.2521,29.242,51.086,7.9695,13.732,-19.826,9.5179,-46.442,6.3848,-11.872,24.021,-12.891,22.107
24.256,46.885,26.649,9.2521,29.242,51.086,7.9695,13.732,-19.826,9.5179,-46.442,6.3848,-11.872,24.021,-12.891,22.107
23.881,46.561,26.478,8.9796,29.012,50.711,8.0263,13.533,-19.901,9.2502,-46.216,6.0099,-11.891,23.614,-12.753,21.704
23.505,46.237,26.308,8.707,28.782,50.336,8.0835,13.333,-19.976,8.9823,-45.988,5.6346,-11.909,23.207,-12.614,21.3
23.505,46.237,26.308,8.707,28.782,50.336,8.0835,13.333,-19.976,8.9823,-45.988,5.6346,-11.909,23.207,-12.614,21.3
23.129,45.913,26.138,8.4342,28.552,49.961,8.1411,13.132,-20.05,8.7142,-45.759,5.2589,-11.926,22.799,-12.473,20.894
23.129,45.913,26.138,8.4342,28.552,49.961,8.1411,13.132,-20.05,8.7142,-45.759,5.2589,-11.926,22.799,-12.473,20.894
22.754,45.589,25.968,8.1612,28.322,49.585,8.1992,12.929,-20.122,8.446,-45.529,4.883,-11.942,22.391,-12.331,20.487
22.754,45.589,25.968,8.1612,28.322,49.585,8.1992,12.929,-20.122,8.446,-45.529,4.883,-11.942,22.391,-12.331,20.487
22.754,45.589,25.968,8.1612,28.322,49.585,8.1992,12.929,-20.122,8.446,-45.529,4.883,-11.942,22.391,-12.331,20.487
22.378,45.264,25.799,7.8882,28.092,49.209,8.2576,12.726,-20.194,8.1777,-45.297,4.5068,-11.957,21.983,-12.188,20.08
22.003,44.939,25.63,7.615,27.861,48.832,8.3165,12.521,-20.264,7.9093,-45.064,4.1304,-11.971,21.574,-12.043,19.671
22.003,44.939,25.63,7.615,27.861,48.832,8.3165,12.521,-20.264,7.9093,-45.064,4.1304,-11.971,21.574,-12.043,19.671
22.003,44.939,25.63,7.615,27.861,48.832,8.3165,12.521,-20.264,7.9093,-45.064,4.1304,-11.971,21.574,-12.043,19.671
21.628,44.615,25.462,7.3417,27.631,48.456,8.3759,12.314,-20.333,7.6408,-44.83,3.7537,-11.984,21.165,-11.897,19.262
21.253,44.29,25.294,7.0684,27.4,48.079,8.4356,12.107,-20.401,7.3722,-44.594,3.3768,-11.995,20.756,-11.749,18.851
21.253,44.29,25.294,7.0684,27.4,48.079,8.4356,12.107,-20.401,7.3722,-44.594,3.3768,-11.995,20.756,-11.749,18.851
21.253,44.29,25.294,7.0684,27.4,48.079,8.4356,12.107,-20.401,7.3722,-44.594,3.3768,-11.995,20.756,-11.749,18.851
20.878,43.965,25.127,6.7949,27.17,47.702,8.4958,11.898,-20.468,7.1035,-44.356,2.9997,-12.006,20.346,-11.6,18.439
20.878,43.965,25.127,6.7949,27.17,47.702,8.4958,11.898,-20.468,7.1035,-44.356,2.9997,-12.006,20.346,-11.6,18.439
20.504,43.64,24.96,6.5215,26.939,47.324,8.5564,11.688,-20.533,6.8348,-44.117,2.6225,-12.016,19.937,-11.449,18.027
20.504,43.64,24.96,6.5215,26.939,47.324,8.5564,11.688,-20.533,6.8348,-44.117,2.6225,-12.016,19.937,-11.449,18.027
20.129,43.314,24.794,6.248,26.708,46.947,8.6175,11.477,-20.598,6.5661,-43.877,2.2451,-12.025,19.527,-11.297,17.614
20.129,43.314,24.794,6.248,26.708,46.947,8.6175,11.477,-20.598,6.5661,-43.877,2.2451,-12.025,19.527,-11.297,17.614
19.755,42.989,24.628,5.9744,26.477,46.569,8.6789,11.264,-20.661,6.2973,-43.636,1.8676,-12.032,19.117,-11.144,17.199
19.755,42.989,24.628,5.9744,26.477,46.569,8.6789,11.264,-20.661,6.2973,-43.636,1.8676,-12.032,19.117,-11.144,17.199
19.381,42.664,24.463,5.7009,26.246,46.192,8.7408,11.051,-20.723,6.0286,-43.393,1.49,-12.039,18.707,-10.989,16.784
19.381,42.664,24.463,5.7009,26.246,46.192,8.7408,11.051,-20.723,6.0286,-43.393,1.49,-12.039,18.707,-10.989,16.784
19.381,42.664,24.463,5.7009,26.246,46.192,8.7408,11.051,-20.723,6.0286,-43.393,1.49,-12.039,18.707,-10.989,16.784
19.007,42.339,24.298,5.4273,26.015,45.814,8.8032,10.836,-20.784,5.7598,-43.148,1.1123,-12.044,18.297,-10.833,16.368
19.007,42.339,24.298,5.4273,26.015,45.814,8.8032,10.836,-20.784,5.7598,-43.148,1.1123,-12.044,18.297,-10.833,16.368
19.007,42.339,24.298,5.4273,26.015,45.814,8.8032,10.836,-20.784,5.7598,-43.148,1.1123,-12.044,18.297,-10.833,16.368
18.26,41.688,23.97,4.8803,25.553,45.058,8.9292,10.403,-20.903,5.2225,-42.655,0.35676,-12.052,17.476,-10.516,15.534
18.26,41.688,23.97,4.8803,25.553,45.058,8.9292,10.403,-20.903,5.2225,-42.655,0.35676,-12.052,17.476,-10.516,15.534
17.887,41.363,23.807,4.6068,25.321,44.68,8.9929,10.185,-20.96,4.9539,-42.407,-0.021015,-12.055,17.065,-10.355,15.116
17.515,41.038,23.645,4.3334,25.09,44.302,9.0569,9.966,-21.016,4.6853,-42.157,-0.39878,-12.056,16.655,-10.193,14.697
17.515,41.038,23.645,4.3334,25.09,44.302,9.0569,9.966,-21.016,4.6853,-42.157,-0.39878,-12.056,16.655,-10.193,14.697
17.142,40.713,23.482,4.0601,24.859,43.924,9.1215,9.7458,-21.071,4.4169,-41.906,-0.7765,-12.056,16.244,-10.03,14.277
17.142,40.713,23.482,4.0601,24.859,43.924,9.1215,9.7458,-21.071,4.4169,-41.906,-0.7765,-12.056,16.244,-10.03,14.277
17.142,40.713,23.482,4.0601,24.859,43.924,9.1215,9.7458,-21.071,4.4169,-41.906,-0.7765,-12.056,16.244,-10.03,14.277
16.77,40.388,23.321,3.7869,24.628,43.546,9.1864,9.5245,-21.125,4.1486,-41.654,-1.1542,-12.056,15.833,-9.8646,13.856
16.77,40.388,23.321,3.7869,24.628,43.546,9.1864,9.5245,-21.125,4.1486,-41.654,-1.1542,-12.056,15.833,-9.8646,13.856
16.398,40.063,23.16,3.5138,24.396,43.167,9.2518,9.3022,-21.178,3.8805,-41.4,-1.5317,-12.054,15.423,-9.6983,13.435
16.398,40.063,23.16,3.5138,24.396,43.167,9.2518,9.3022,-21.178,3.8805,-41.4,-1.5317,-12.054,15.423,-9.6983,13.435
16.398,40.063,23.16,3.5138,24.396,43.167,9.2518,9.3022,-21.178,3.8805,-41.4,-1.5317,-12.054,15.423,-9.6983,13.435
15.656,39.413,22.84,2.9679,23.934,42.411,9.3839,8.8545,-21.279,3.3446,-40.888,-2.2865,-12.047,14.602,-9.3614,12.591
15.656,39.413,22.84,2.9679,23.934,42.411,9.3839,8.8545,-21.279,3.3446,-40.888,-2.2865,-12.047,14.602,-9.3614,12.591
15.285,39.089,22.681,2.6952,23.702,42.034,9.4506,8.6291,-21.328,3.0769,-40.631,-2.6637,-12.043,14.192,-9.1908,12.168
15.285,39.089,22.681,2.6952,23.702,42.034,9.4506,8.6291,-21.328,3.0769,-40.631,-2.6637,-12.043,14.192,-9.1908,12.168
15.285,39.089,22.681,2.6952,23.702,42.034,9.4506,8.6291,-21.328,3.0769,-40.631,-2.6637,-12.043,14.192,-9.1908,12.168
14.914,38.765,22.522,2.4227,23.471,41.656,9.5178,8.4028,-21.376,2.8095,-40.372,-3.0406,-12.037,13.781,-9.0187,11.744
14.544,38.441,22.364,2.1503,23.239,41.278,9.5853,8.1756,-21.422,2.5422,-40.111,-3.4174,-12.03,13.371,-8.8453,11.32
14.544,38.441,22.364,2.1503,23.239,41.278,9.5853,8.1756,-21.422,2.5422,-40.111,-3.4174,-12.03,13.371,-8.8453,11.32
14.175,38.117,22.207,1.8782,23.008,40.901,9.6533,7.9474,-21.468,2.2752,-39.85,-3.794,-12.022,12.962,-8.6704,10.895
14.175,38.117,22.207,1.8782,23.008,40.901,9.6533,7.9474,-21.468,2.2752,-39.85,-3.794,-12.022,12.962,-8.6704,10.895
14.175,38.117,22.207,1.8782,23.008,40.901,9.6533,7.9474,-21.468,2.2752,-39.85,-3.794,-12.022,12.962,-8.6704,10.895
13.805,37.793,22.05,1.6062,22.777,40.523,9.7217,7.7183,-21.512,2.0084,-39.587,-4.1703,-12.013,12.552,-8.4941,10.469
13.805,37.793,22.05,1.6062,22.777,40.523,9.7217,7.7183,-21.512,2.0084,-39.587,-4.1703,-12.013,12.552,-8.4941,10.469
13.437,37.47,21.894,1.3345,22.545,40.146,9.7906,7.4883,-21.554,1.7419,-39.323,-4.5463,-12.003,12.142,-8.3164,10.044
13.437,37.47,21.894,1.3345,22.545,40.146,9.7906,7.4883,-21.554,1.7419,-39.323,-4.5463,-12.003,12.142,-8.3164,10.044
13.068,37.147,21.738,1.063,22.314,39.769,9.8599,7.2574,-21.596,1.4757,-39.058,-4.922,-11.992,11.733,-8.1373,9.6172
12.7,36.824,21.583,0.79181,22.083,39.392,9.9296,7.0257,-21.636,1.2098,-38.791,-5.2974,-11.98,11.324,-7.9568,9.1905
12.7,36.824,21.583,0.79181,22.083,39.392,9.9296,7.0257,-21.636,1.2098,-38.791,-5.2974,-11.98,11.324,-7.9568,9.1905
12.333,36.502,21.429,0.52088,21.851,39.016,9.9997,6.7931,-21.675,0.94421,-38.524,-5.6724,-11.967,10.916,-7.7749,8.7633
12.333,36.502,21.429,0.52088,21.851,39.016,9.9997,6.7931,-21.675,0.94421,-38.524,-5.6724,-11.967,10.916,-7.7749,8.7633
11.966,36.179,21.275,0.25024,21.62,38.639,10.07,6.5597,-21.712,0.67896,-38.255,-6.0471,-11.953,10.507,-7.5915,8.3357
11.966,36.179,21.275,0.25024,21.62,38.639,10.07,6.5597,-21.712,0.67896,-38.255,-6.0471,-11.953,10.507,-7.5915,8.3357
11.966,36.179,21.275,0.25024,21.62,38.639,10.07,6.5597,-21.712,0.67896,-38.255,-6.0471,-11.953,10.507,-7.5915,8.3357
11.6,35.858,21.122,-0.02009,21.389,38.263,10.141,6.3255,-21.749,0.41406,-37.985,-6.4213,-11.938,10.099,-7.4068,7.9077
11.6,35.858,21.122,-0.02009,21.389,38.263,10.141,6.3255,-21.749,0.41406,-37.985,-6.4213,-11.938,10.099,-7.4068,7.9077
11.234,35.536,20.969,-0.29009,21.158,37.888,10.213,6.0905,-21.784,0.14954,-37.713,-6.7951,-11.922,9.6916,-7.2206,7.4794
10.868,35.215,20.817,-0.55976,20.927,37.512,10.284,5.8547,-21.818,-0.11458,-37.441,-7.1685,-11.905,9.2844,-7.0331,7.0508
10.868,35.215,20.817,-0.55976,20.927,37.512,10.284,5.8547,-21.818,-0.11458,-37.441,-7.1685,-11.905,9.2844,-7.0331,7.0508
10.868,35.215,20.817,-0.55976,20.927,37.512,10.284,5.8547,-21.818,-0.11458,-37.441,-7.1685,-11.905,9.2844,-7.0331,7.0508
10.503,34.894,20.666,-0.82906,20.696,37.137,10.357,5.6182,-21.85,-0.3783,-37.167,-7.5414,-11.887,8.8775,-6.8442,6.6219
10.139,34.574,20.516,-1.098,20.465,36.762,10.429,5.3809,-21.881,-0.64159,-36.892,-7.9138,-11.868,8.4711,-6.6539,6.1927
10.139,34.574,20.516,-1.098,20.465,36.762,10.429,5.3809,-21.881,-0.64159,-36.892,-7.9138,-11.868,8.4711,-6.6539,6.1927
10.139,34.574,20.516,-1.098,20.465,36.762,10.429,5.3809,-21.881,-0.64159,-36.892,-7.9138,-11.868,8.4711,-6.6539,6.1927
9.7749,34.254,20.366,-1.3665,20.234,36.388,10.502,5.1429,-21.911,-0.90444,-36.616,-8.2857,-11.848,8.0652,-6.4622,5.7633
9.7749,34.254,20.366,-1.3665,20.234,36.388,10.502,5.1429,-21.911,-0.90444,-36.616,-8.2857,-11.848,8.0652,-6.4622,5.7633
9.7749,34.254,20.366,-1.3665,20.234,36.388,10.502,5.1429,-21.911,-0.90444,-36.616,-8.2857,-11.848,8.0652,-6.4622,5.7633
9.7749,34.254,20.366,-1.3665,20.234,36.388,10.502,5.1429,-21.911,-0.90444,-36.616,-8.2857,-11.848,8.0652,-6.4622,5.7633
9.0489,33.616,20.068,-1.9024,19.772,35.64,10.649,4.665,-21.967,-1.4287,-36.061,-9.0278,-11.805,7.2548,-6.0748,4.9038
9.0489,33.616,20.068,-1.9024,19.772,35.64,10.649,4.665,-21.967,-1.4287,-36.061,-9.0278,-11.805,7.2548,-6.0748,4.9038
8.6868,33.298,19.92,-2.1696,19.541,35.267,10.724,4.425,-21.994,-1.6901,-35.782,-9.398,-11.782,6.8503,-5.879,4.4738
8.3252,32.98,19.773,-2.4364,19.311,34.894,10.798,4.1844,-22.018,-1.951,-35.501,-9.7675,-11.758,6.4465,-5.6818,4.0436
8.3252,32.98,19.773,-2.4364,19.311,34.894,10.798,4.1844,-22.018,-1.951,-35.501,-9.7675,-11.758,6.4465,-5.6818,4.0436
8.3252,32.98,19.773,-2.4364,19.311,34.894,10.798,4.1844,-22.018,-1.951,-35.501,-9.7675,-11.758,6.4465,-5.6818,4.0436
7.9643,32.662,19.626,-2.7028,19.08,34.522,10.873,3.9432,-22.042,-2.2113,-35.22,-10.136,-11.733,6.0432,-5.4833,3.6133
7.9643,32.662,19.626,-2.7028,19.08,34.522,10.873,3.9432,-22.042,-2.2113,-35.22,-10.136,-11.733,6.0432,-5.4833,3.6133
7.604,32.345,19.48,-2.9686,18.85,34.15,10.949,3.7013,-22.064,-2.4711,-34.937,-10.505,-11.707,5.6405,-5.2835,3.183
7.604,32.345,19.48,-2.9686,18.85,34.15,10.949,3.7013,-22.064,-2.4711,-34.937,-10.505,-11.707,5.6405,-5.2835,3.183
7.2443,32.029,19.335,-3.234,18.619,33.779,11.024,3.459,-22.085,-2.7304,-34.654,-10.872,-11.68,5.2384,-5.0823,2.7525
7.2443,32.029,19.335,-3.234,18.619,33.779,11.024,3.459,-22.085,-2.7304,-34.654,-10.872,-11.68,5.2384,-5.0823,2.7525
6.8852,31.713,19.191,-3.4988,18.389,33.408,11.101,3.216,-22.104,-2.989,-34.369,-11.239,-11.653,4.837,-4.8797,2.3221
6.5268,31.398,19.047,-3.7631,18.159,33.038,11.177,2.9725,-22.123,-3.247,-34.083,-11.605,-11.624,4.4363,-4.6759,1.8916
6.5268,31.398,19.047,-3.7631,18.159,33.038,11.177,2.9725,-22.123,-3.247,-34.083,-11.605,-11.624,4.4363,-4.6759,1.8916
6.1691,31.083,18.904,-4.0268,17.929,32.668,11.254,2.7286,-22.14,-3.5044,-33.796,-11.97,-11.594,4.0363,-4.4707,1.4611
6.1691,31.083,18.904,-4.0268,17.929,32.668,11.254,2.7286,-22.14,-3.5044,-33.796,-11.97,-11.594,4.0363,-4.4707,1.4611
6.1691,31.083,18.904,-4.0268,17.929,32.668,11.254,2.7286,-22.14,-3.5044,-33.796,-11.97,-11.594,4.0363,-4.4707,1.4611
5.8121,30.769,18.761,-4.2899,17.699,32.299,11.331,2.4841,-22.155,-3.7612,-33.509,-12.335,-11.563,3.637,-4.2642,1.0307
5.8121,30.769,18.761,-4.2899,17.699,32.299,11.331,2.4841,-22.155,-3.7612,-33.509,-12.335,-11.563,3.637,-4.2642,1.0307
5.4557,30.456,18.619,-4.5525,17.469,31.93,11.409,2.2392,-22.17,-4.0173,-33.22,-12.698,-11.532,3.2384,-4.0564,0.60038
5.1001,30.143,18.478,-4.8144,17.239,31.562,11.487,1.9938,-22.182,-4.2727,-32.93,-13.061,-11.499,2.8407,-3.8472,0.17013
5.1001,30.143,18.478,-4.8144,17.239,31.562,11.487,1.9938,-22.182,-4.2727,-32.93,-13.061,-11.499,2.8407,-3.8472,0.17013
4.7451,29.831,18.338,-5.0757,17.009,31.195,11.565,1.748,-22.194,-4.5274,-32.639,-13.423,-11.465,2.4437,-3.6368,-0.26
4.7451,29.831,18.338,-5.0757,17.009,31.195,11.565,1.748,-22.194,-4.5274,-32.639,-13.423,-11.465,2.4437,-3.6368,-0.26
4.7451,29.831,18.338,-5.0757,17.009,31.195,11.565,1.748,-22.194,-4.5274,-32.639,-13.423,-11.465,2.4437,-3.6368,-0.26
4.3909,29.52,18.198,-5.3364,16.78,30.828,11.644,1.5017,-22.205,-4.7814,-32.348,-13.784,-11.431,2.0476,-3.4251,-0.68997
4.3909,29.52,18.198,-5.3364,16.78,30.828,11.644,1.5017,-22.205,-4.7814,-32.348,-13.784,-11.431,2.0476,-3.4251,-0.68997
4.0375,29.209,18.059,-5.5964,16.55,30.462,11.723,1.2551,-22.214,-5.0346,-32.055,-14.144,-11.395,1.6523,-3.2121,-1.1198
4.0375,29.209,18.059,-5.5964,16.55,30.462,11.723,1.2551,-22.214,-5.0346,-32.055,-14.144,-11.395,1.6523,-3.2121,-1.1198
3.6847,28.899,17.921,-5.8558,16.321,30.097,11.802,1.0081,-22.221,-5.2871,-31.762,-14.503,-11.359,1.2578,-2.9978,-1.5494
3.6847,28.899,17.921,-5.8558,16.321,30.097,11.802,1.0081,-22.221,-5.2871,-31.762,-14.503,-11.359,1.2578,-2.9978,-1.5494
3.3328,28.59,17.783,-6.1144,16.092,29.733,11.882,0.76083,-22.228,-5.5388,-31.467,-14.862,-11.322,0.86433,-2.7823,-1.9787
3.3328,28.59,17.783,-6.1144,16.092,29.733,11.882,0.76083,-22.228,-5.5388,-31.467,-14.862,-11.322,0.86433,-2.7823,-1.9787
2.9816,28.282,17.647,-6.3723,15.863,29.369,11.962,0.51319,-22.233,-5.7898,-31.172,-15.219,-11.284,0.47173,-2.5655,-2.4078
2.9816,28.282,17.647,-6.3723,15.863,29.369,11.962,0.51319,-22.233,-5.7898,-31.172,-15.219,-11.284,0.47173,-2.5655,-2.4078
2.6311,27.974,17.511,-6.6295,15.634,29.005,12.042,0.26525,-22.236,-6.0399,-30.875,-15.575,-11.245,0.080086,-2.3475,-2.8366
2.6311,27.974,17.511,-6.6295,15.634,29.005,12.042,0.26525,-22.236,-6.0399,-30.875,-15.575,-11.245,0.080086,-2.3475,-2.8366
2.2815,27.667,17.375,-6.886,15.406,28.643,12.123,0.017027,-22.239,-6.2892,-30.578,-15.93,-11.205,-0.31059,-2.1282,-3.2651
2.2815,27.667,17.375,-6.886,15.406,28.643,12.123,0.017027,-22.239,-6.2892,-30.578,-15.93,-11.205,-0.31059,-2.1282,-3.2651
1.9327,27.361,17.241,-7.1417,15.177,28.281,12.204,-0.23145,-22.24,-6.5376,-30.28,-16.284,-11.164,-0.70027,-1.9076,-3.6933
1.9327,27.361,17.241,-7.1417,15.177,28.281,12.204,-0.23145,-22.24,-6.5376,-30.28,-16.284,-11.164,-0.70027,-1.9076,-3.6933
1.5847,27.056,17.107,-7.3966,14.949,27.92,12.285,-0.48016,-22.24,-6.7852,-29.981,-16.637,-11.122,-1.0889,-1.6859,-4.1211
1.2375,26.751,16.973,-7.6508,14.72,27.56,12.367,-0.72909,-22.238,-7.0319,-29.682,-16.989,-11.079,-1.4765,-1.4629,-4.5485
1.2375,26.751,16.973,-7.6508,14.72,27.56,12.367,-0.72909,-22.238,-7.0319,-29.682,-16.989,-11.079,-1.4765,-1.4629,-4.5485
0.89113,26.448,16.841,-7.9041,14.492,27.201,12.449,-0.97822,-22.235,-7.2778,-29.381,-17.34,-11.035,-1.8631,-1.2388,-4.9755
0.89113,26.448,16.841,-7.9041,14.492,27.201,12.449,-0.97822,-22.235,-7.2778,-29.381,-17.34,-11.035,-1.8631,-1.2388,-4.9755
0.89113,26.448,16.841,-7.9041,14.492,27.201,12.449,-0.97822,-22.235,-7.2778,-29.381,-17.34,-11.035,-1.8631,-1.2388,-4.9755
0.54562,26.145,16.709,-8.1566,14.264,26.843,12.531,-1.2275,-22.231,-7.5226,-29.08,-17.689,-10.991,-2.2485,-1.0134,-5.402
0.54562,26.145,16.709,-8.1566,14.264,26.843,12.531,-1.2275,-22.231,-7.5226,-29.08,-17.689,-10.991,-2.2485,-1.0134,-5.402
0.20097,25.843,16.578,-8.4082,14.037,26.485,12.613,-1.477,-22.226,-7.7666,-28.778,-18.037,-10.946,-2.6329,-0.78686,-5.828
0.20097,25.843,16.578,-8.4082,14.037,26.485,12.613,-1.477,-22.226,-7.7666,-28.778,-18.037,-10.946,-2.6329,-0.78686,-5.828
-0.14282,25.542,16.448,-8.659,13.809,26.129,12.696,-1.7265,-22.219,-8.0096,-28.475,-18.384,-10.899,-3.0161,-0.55913,-6.2535
-0.14282,25.542,16.448,-8.659,13.809,26.129,12.696,-1.7265,-22.219,-8.0096,-28.475,-18.384,-10.899,-3.0161,-0.55913,-6.2535
-0.48572,25.242,16.318,-8.9089,13.582,25.773,12.779,-1.9762,-22.211,-8.2516,-28.171,-18.73,-10.852,-3.3981,-0.33024,-6.6785
-0.48572,25.242,16.318,-8.9089,13.582,25.773,12.779,-1.9762,-22.211,-8.2516,-28.171,-18.73,-10.852,-3.3981,-0.33024,-6.6785
-0.82775,24.943,16.189,-9.1579,13.354,25.418,12.862,-2.226,-22.201,-8.4927,-27.867,-19.075,-10.804,-3.7789,-0.10019,-7.103
-0.82775,24.943,16.189,-9.1579,13.354,25.418,12.862,-2.226,-22.201,-8.4927,-27.867,-19.075,-10.804,-3.7789,-0.10019,-7.103
-1.1689,24.645,16.061,-9.4059,13.127,25.064,12.946,-2.4758,-22.191,-8.7327,-27.561,-19.418,-10.756,-4.1585,0.131,-7.5268
-1.5091,24.348,15.934,-9.6531,12.9,24.711,13.03,-2.7256,-22.179,-8.9717,-27.256,-19.76,-10.706,-4.5369,0.36333,-7.95
-1.5091,24.348,15.934,-9.6531,12.9,24.711,13.03,-2.7256,-22.179,-8.9717,-27.256,-19.76,-10.706,-4.5369,0.36333,-7.95
-1.5091,24.348,15.934,-9.6531,12.9,24.711,13.03,-2.7256,-22.179,-8.9717,-27.256,-19.76,-10.706,-4.5369,0.36333,-7.95
-1.8484,24.052,15.807,-9.8993,12.674,24.359,13.114,-2.9755,-22.165,-9.2096,-26.949,-20.1,-10.656,-4.914,0.59678,-8.3726
-1.8484,24.052,15.807,-9.8993,12.674,24.359,13.114,-2.9755,-22.165,-9.2096,-26.949,-20.1,-10.656,-4.914,0.59678,-8.3726
-2.1868,23.756,15.681,-10.144,12.447,24.008,13.198,-3.2254,-22.15,-9.4465,-26.642,-20.44,-10.604,-5.2899,0.83135,-8.7945
-2.1868,23.756,15.681,-10.144,12.447,24.008,13.198,-3.2254,-22.15,-9.4465,-26.642,-20.44,-10.604,-5.2899,0.83135,-8.7945
-2.1868,23.756,15.681,-10.144,12.447,24.008,13.198,-3.2254,-22.15,-9.4465,-26.642,-20.44,-10.604,-5.2899,0.83135,-8.7945
-2.5242,23.462,15.556,-10.389,12.221,23.658,13.282,-3.4752,-22.134,-9.6824,-26.334,-20.778,-10.552,-5.6644,1.067,-9.2157
-2.8607,23.169,15.432,-10.632,11.995,23.309,13.367,-3.725,-22.117,-9.9171,-26.025,-21.114,-10.499,-6.0376,1.3038,-9.6362
-3.1962,22.877,15.308,-10.874,11.769,22.961,13.452,-3.9748,-22.099,-10.151,-25.716,-21.449,-10.446,-6.4094,1.5416,-10.056
-3.1962,22.877,15.308,-10.874,11.769,22.961,13.452,-3.9748,-22.099,-10.151,-25.716,-21.449,-10.446,-6.4094,1.5416,-10.056
-3.1962,22.877,15.308,-10.874,11.769,22.961,13.452,-3.9748,-22.099,-10.151,-25.716,-21.449,-10.446,-6.4094,1.5416,-10.056
-3.5308,22.586,15.185,-11.115,11.543,22.614,13.537,-4.2244,-22.079,-10.383,-25.406,-21.782,-10.391,-6.7799,1.7805,-10.475
-3.5308,22.586,15.185,-11.115,11.543,22.614,13.537,-4.2244,-22.079,-10.383,-25.406,-21.782,-10.391,-6.7799,1.7805,-10.475
-3.8644,22.296,15.063,-11.356,11.317,22.269,13.622,-4.4739,-22.057,-10.614,-25.096,-22.114,-10.336,-7.1489,2.0205,-10.893
-3.8644,22.296,15.063,-11.356,11.317,22.269,13.622,-4.4739,-22.057,-10.614,-25.096,-22.114,-10.336,-7.1489,2.0205,-10.893
-3.8644,22.296,15.063,-11.356,11.317,22.269,13.622,-4.4739,-22.057,-10.614,-25.096,-22.114,-10.336,-7.1489,2.0205,-10.893
-4.197,22.007,14.942,-11.595,11.092,21.924,13.708,-4.7233,-22.035,-10.845,-24.785,-22.445,-10.28,-7.5166,2.2615,-11.31
-4.197,22.007,14.942,-11.595,11.092,21.924,13.708,-4.7233,-22.035,-10.845,-24.785,-22.445,-10.28,-7.5166,2.2615,-11.31
-4.8592,21.433,14.701,-12.069,10.642,21.238,13.879,-5.2215,-21.986,-11.301,-24.161,-23.101,-10.165,-8.2475,2.7466,-12.142
-4.8592,21.433,14.701,-12.069,10.642,21.238,13.879,-5.2215,-21.986,-11.301,-24.161,-23.101,-10.165,-8.2475,2.7466,-12.142
-5.1888,21.147,14.582,-12.305,10.417,20.896,13.965,-5.4704,-21.96,-11.528,-23.848,-23.427,-10.107,-8.6107,2.9906,-12.557
-5.1888,21.147,14.582,-12.305,10.417,20.896,13.965,-5.4704,-21.96,-11.528,-23.848,-23.427,-10.107,-8.6107,2.9906,-12.557
-5.5173,20.863,14.463,-12.54,10.193,20.556,14.052,-5.719,-21.932,-11.753,-23.535,-23.751,-10.047,-8.9723,3.2357,-12.97
-5.5173,20.863,14.463,-12.54,10.193,20.556,14.052,-5.719,-21.932,-11.753,-23.535,-23.751,-10.047,-8.9723,3.2357,-12.97
-5.5173,20.863,14.463,-12.54,10.193,20.556,14.052,-5.719,-21.932,-11.753,-23.535,-23.751,-10.047,-8.9723,3.2357,-12.97
-5.5173,20.863,14.463,-12.54,10.193,20.556,14.052,-5.719,-21.932,-11.753,-23.535,-23.751,-10.047,-8.9723,3.2357,-12.97
-5.8449,20.579,14.346,-12.773,9.9684,20.217,14.138,-5.9673,-21.903,-11.977,-23.221,-24.074,-9.9874,-9.3325,3.4817,-13.383
-6.1714,20.297,14.229,-13.006,9.7443,19.879,14.224,-6.2154,-21.873,-12.2,-22.907,-24.395,-9.9267,-9.6911,3.7287,-13.795
-6.4968,20.016,14.113,-13.237,9.5204,19.542,14.311,-6.4632,-21.841,-12.422,-22.592,-24.714,-9.8652,-10.048,3.9767,-14.205
-6.4968,20.016,14.113,-13.237,9.5204,19.542,14.311,-6.4632,-21.841,-12.422,-22.592,-24.714,-9.8652,-10.048,3.9767,-14.205
-6.8212,19.737,13.997,-13.467,9.2968,19.207,14.398,-6.7107,-21.808,-12.642,-22.277,-25.031,-9.803,-10.403,4.2256,-14.615
-6.8212,19.737,13.997,-13.467,9.2968,19.207,14.398,-6.7107,-21.808,-12.642,-22.277,-25.031,-9.803,-10.403,4.2256,-14.615
-6.8212,19.737,13.997,-13.467,9.2968,19.207,14.398,-6.7107,-21.808,-12.642,-22.277,-25.031,-9.803,-10.403,4.2256,-14.615
-7.1445,19.458,13.882,-13.695,9.0733,18.873,14.485,-6.9578,-21.774,-12.861,-21.961,-25.347,-9.7401,-10.757,4.4754,-15.023
-7.1445,19.458,13.882,-13.695,9.0733,18.873,14.485,-6.9578,-21.774,-12.861,-21.961,-25.347,-9.7401,-10.757,4.4754,-15.023
-7.4668,19.181,13.768,-13.923,8.8501,18.54,14.571,-7.2045,-21.739,-13.078,-21.645,-25.661,-9.6765,-11.109,4.7261,-15.431
-7.4668,19.181,13.768,-13.923,8.8501,18.54,14.571,-7.2045,-21.739,-13.078,-21.645,-25.661,-9.6765,-11.109,4.7261,-15.431
-7.7879,18.905,13.655,-14.149,8.6271,18.208,14.658,-7.4509,-21.702,-13.294,-21.329,-25.973,-9.6121,-11.46,4.9777,-15.837
-7.7879,18.905,13.655,-14.149,8.6271,18.208,14.658,-7.4509,-21.702,-13.294,-21.329,-25.973,-9.6121,-11.46,4.9777,-15.837
-8.108,18.631,13.543,-14.374,8.4044,17.877,14.746,-7.6969,-21.665,-13.509,-21.012,-26.284,-9.5471,-11.808,5.2302,-16.242
-8.108,18.631,13.543,-14.374,8.4044,17.877,14.746,-7.6969,-21.665,-13.509,-21.012,-26.284,-9.5471,-11.808,5.2302,-16.242
-8.427,18.357,13.431,-14.598,8.1818,17.548,14.833,-7.9424,-21.625,-13.723,-20.695,-26.592,-9.4813,-12.155,5.4836,-16.646
-8.427,18.357,13.431,-14.598,8.1818,17.548,14.833,-7.9424,-21.625,-13.723,-20.695,-26.592,-9.4813,-12.155,5.4836,-16.646
-8.7448,18.085,13.32,-14.82,7.9595,17.22,14.92,-8.1875,-21.585,-13.935,-20.377,-26.899,-9.4149,-12.501,5.7379,-17.048
-8.7448,18.085,13.32,-14.82,7.9595,17.22,14.92,-8.1875,-21.585,-13.935,-20.377,-26.899,-9.4149,-12.501,5.7379,-17.048
-9.0616,17.814,13.209,-15.041,7.7374,16.894,15.007,-8.4321,-21.543,-14.145,-20.059,-27.204,-9.3478,-12.844,5.9929,-17.45
-9.0616,17.814,13.209,-15.041,7.7374,16.894,15.007,-8.4321,-21.543,-14.145,-20.059,-27.204,-9.3478,-12.844,5.9929,-17.45
-9.3772,17.545,13.1,-15.261,7.5156,16.568,15.095,-8.6763,-21.501,-14.354,-19.741,-27.507,-9.2801,-13.186,6.2488,-17.85
-9.6917,17.277,12.991,-15.479,7.294,16.245,15.182,-8.9199,-21.457,-14.562,-19.422,-27.808,-9.2116,-13.526,6.5056,-18.248
-9.6917,17.277,12.991,-15.479,7.294,16.245,15.182,-8.9199,-21.457,-14.562,-19.422,-27.808,-9.2116,-13.526,6.5056,-18.248
-9.6917,17.277,12.991,-15.479,7.294,16.245,15.182,-8.9199,-21.457,-14.562,-19.422,-27.808,-9.2116,-13.526,6.5056,-18.248
-10.005,17.01,12.883,-15.696,7.0726,15.922,15.27,-9.1629,-21.411,-14.768,-19.103,-28.107,-9.1425,-13.864,6.7631,-18.646
-10.005,17.01,12.883,-15.696,7.0726,15.922,15.27,-9.1629,-21.411,-14.768,-19.103,-28.107,-9.1425,-13.864,6.7631,-18.646
-10.317,16.744,12.776,-15.912,6.8515,15.601,15.357,-9.4054,-21.365,-14.973,-18.784,-28.404,-9.0728,-14.2,7.0214,-19.042
-10.317,16.744,12.776,-15.912,6.8515,15.601,15.357,-9.4054,-21.365,-14.973,-18.784,-28.404,-9.0728,-14.2,7.0214,-19.042
-10.317,16.744,12.776,-15.912,6.8515,15.601,15.357,-9.4054,-21.365,-14.973,-18.784,-28.404,-9.0728,-14.2,7.0214,-19.042
-10.628,16.48,12.669,-16.126,6.6306,15.281,15.444,-9.6473,-21.317,-15.176,-18.465,-28.7,-9.0024,-14.534,7.2804,-19.437
-10.938,16.218,12.563,-16.339,6.41,14.963,15.532,-9.8886,-21.268,-15.378,-18.145,-28.993,-8.9314,-14.867,7.5402,-19.83
-10.938,16.218,12.563,-16.339,6.41,14.963,15.532,-9.8886,-21.268,-15.378,-18.145,-28.993,-8.9314,-14.867,7.5402,-19.83
-11.247,15.956,12.458,-16.55,6.1896,14.646,15.619,-10.129,-21.218,-15.578,-17.826,-29.284,-8.8598,-15.197,7.8007,-20.222
-11.247,15.956,12.458,-16.55,6.1896,14.646,15.619,-10.129,-21.218,-15.578,-17.826,-29.284,-8.8598,-15.197,7.8007,-20.222
-11.554,15.696,12.354,-16.76,5.9694,14.331,15.707,-10.369,-21.167,-15.777,-17.505,-29.573,-8.7876,-15.526,8.062,-20.612
-11.861,15.438,12.25,-16.969,5.7495,14.017,15.794,-10.609,-21.114,-15.974,-17.185,-29.86,-8.7148,-15.852,8.3239,-21.001
-11.861,15.438,12.25,-16.969,5.7495,14.017,15.794,-10.609,-21.114,-15.974,-17.185,-29.86,-8.7148,-15.852,8.3239,-21.001
-11.861,15.438,12.25,-16.969,5.7495,14.017,15.794,-10.609,-21.114,-15.974,-17.185,-29.86,-8.7148,-15.852,8.3239,-21.001
-12.166,15.181,12.147,-17.176,5.5299,13.704,15.882,-10.847,-21.06,-16.17,-16.865,-30.145,-8.6413,-16.177,8.5866,-21.388
-12.166,15.181,12.147,-17.176,5.5299,13.704,15.882,-10.847,-21.06,-16.17,-16.865,-30.145,-8.6413,-16.177,8.5866,-21.388
-12.47,14.925,12.045,-17.381,5.3105,13.393,15.969,-11.085,-21.005,-16.364,-16.544,-30.428,-8.5673,-16.5,8.8499,-21.774
-12.773,14.671,11.943,-17.585,5.0913,13.083,16.056,-11.322,-20.949,-16.556,-16.224,-30.709,-8.4928,-16.82,9.1138,-22.158
-12.773,14.671,11.943,-17.585,5.0913,13.083,16.056,-11.322,-20.949,-16.556,-16.224,-30.709,-8.4928,-16.82,9.1138,-22.158
-13.074,14.419,11.842,-17.788,4.8724,12.775,16.143,-11.559,-20.892,-16.747,-15.903,-30.988,-8.4176,-17.139,9.3784,-22.541
-13.074,14.419,11.842,-17.788,4.8724,12.775,16.143,-11.559,-20.892,-16.747,-15.903,-30.988,-8.4176,-17.139,9.3784,-22.541
-13.375,14.167,11.742,-17.989,4.6538,12.469,16.23,-11.794,-20.834,-16.936,-15.582,-31.264,-8.3419,-17.456,9.6437,-22.921
-13.375,14.167,11.742,-17.989,4.6538,12.469,16.23,-11.794,-20.834,-16.936,-15.582,-31.264,-8.3419,-17.456,9.6437,-22.921
-13.375,14.167,11.742,-17.989,4.6538,12.469,16.23,-11.794,-20.834,-16.936,-15.582,-31.264,-8.3419,-17.456,9.6437,-22.921
-13.674,13.918,11.643,-18.188,4.4354,12.164,16.317,-12.029,-20.774,-17.123,-15.261,-31.538,-8.2656,-17.77,9.9095,-23.301
-13.674,13.918,11.643,-18.188,4.4354,12.164,16.317,-12.029,-20.774,-17.123,-15.261,-31.538,-8.2656,-17.77,9.9095,-23.301
-13.674,13.918,11.643,-18.188,4.4354,12.164,16.317,-12.029,-20.774,-17.123,-15.261,-31.538,-8.2656,-17.77,9.9095,-23.301
-13.971,13.67,11.544,-18.386,4.2173,11.86,16.404,-12.263,-20.713,-17.309,-14.94,-31.81,-8.1888,-18.082,10.176,-23.678
-13.971,13.67,11.544,-18.386,4.2173,11.86,16.404,-12.263,-20.713,-17.309,-14.94,-31.81,-8.1888,-18.082,10.176,-23.678
-14.564,13.178,11.349,-18.777,3.7818,11.258,16.578,-12.729,-20.589,-17.676,-14.298,-32.348,-8.0336,-18.701,10.71,-24.428
-14.564,13.178,11.349,-18.777,3.7818,11.258,16.578,-12.729,-20.589,-17.676,-14.298,-32.348,-8.0336,-18.701,10.71,-24.428
-14.564,13.178,11.349,-18.777,3.7818,11.258,16.578,-12.729,-20.589,-17.676,-14.298,-32.348,-8.0336,-18.701,10.71,-24.428
-14.858,12.934,11.253,-18.97,3.5644,10.959,16.664,-12.96,-20.524,-17.856,-13.977,-32.613,-7.9552,-19.007,10.978,-24.801
-14.858,12.934,11.253,-18.97,3.5644,10.959,16.664,-12.96,-20.524,-17.856,-13.977,-32.613,-7.9552,-19.007,10.978,-24.801
-15.151,12.692,11.157,-19.161,3.3473,10.662,16.751,-13.19,-20.459,-18.035,-13.656,-32.876,-7.8763,-19.31,11.247,-25.171
-15.151,12.692,11.157,-19.161,3.3473,10.662,16.751,-13.19,-20.459,-18.035,-13.656,-32.876,-7.8763,-19.31,11.247,-25.171
-15.442,12.452,11.062,-19.351,3.1305,10.367,16.837,-13.42,-20.393,-18.212,-13.335,-33.137,-7.797,-19.612,11.516,-25.54
-15.733,12.213,10.967,-19.539,2.9139,10.073,16.923,-13.648,-20.325,-18.388,-13.014,-33.395,-7.7171,-19.911,11.786,-25.907
-15.733,12.213,10.967,-19.539,2.9139,10.073,16.923,-13.648,-20.325,-18.388,-13.014,-33.395,-7.7171,-19.911,11.786,-25.907
-16.022,11.976,10.873,-19.725,2.6976,9.7806,17.009,-13.876,-20.257,-18.562,-12.693,-33.651,-7.6367,-20.209,12.056,-26.272
-16.022,11.976,10.873,-19.725,2.6976,9.7806,17.009,-13.876,-20.257,-18.562,-12.693,-33.651,-7.6367,-20.209,12.056,-26.272
-16.022,11.976,10.873,-19.725,2.6976,9.7806,17.009,-13.876,-20.257,-18.562,-12.693,-33.651,-7.6367,-20.209,12.056,-26.272
-16.309,11.74,10.78,-19.91,2.4815,9.49,17.094,-14.103,-20.187,-18.734,-12.372,-33.905,-7.5559,-20.504,12.326,-26.635
-16.309,11.74,10.78,-19.91,2.4815,9.49,17.094,-14.103,-20.187,-18.734,-12.372,-33.905,-7.5559,-20.504,12.326,-26.635
-16.596,11.506,10.688,-20.093,2.2657,9.201,17.18,-14.328,-20.116,-18.904,-12.052,-34.156,-7.4747,-20.796,12.597,-26.997
-16.596,11.506,10.688,-20.093,2.2657,9.201,17.18,-14.328,-20.116,-18.904,-12.052,-34.156,-7.4747,-20.796,12.597,-26.997
-16.881,11.273,10.596,-20.275,2.0502,8.9137,17.265,-14.553,-20.045,-19.072,-11.731,-34.405,-7.3929,-21.087,12.868,-27.356
-17.165,11.043,10.506,-20.454,1.835,8.6281,17.35,-14.776,-19.972,-19.239,-11.411,-34.651,-7.3108,-21.375,13.14,-27.714
-17.165,11.043,10.506,-20.454,1.835,8.6281,17.35,-14.776,-19.972,-19.239,-11.411,-34.651,-7.3108,-21.375,13.14,-27.714
-17.165,11.043,10.506,-20.454,1.835,8.6281,17.35,-14.776,-19.972,-19.239,-11.411,-34.651,-7.3108,-21.375,13.14,-27.714
-17.448,10.813,10.415,-20.632,1.62,8.3442,17.435,-14.998,-19.898,-19.403,-11.091,-34.895,-7.2282,-21.66,13.412,-28.069
-17.448,10.813,10.415,-20.632,1.62,8.3442,17.435,-14.998,-19.898,-19.403,-11.091,-34.895,-7.2282,-21.66,13.412,-28.069
-17.729,10.586,10.326,-20.808,1.4053,8.062,17.52,-15.22,-19.823,-19.566,-10.77,-35.136,-7.1452,-21.944,13.684,-28.422
-17.729,10.586,10.326,-20.808,1.4053,8.062,17.52,-15.22,-19.823,-19.566,-10.77,-35.136,-7.1452,-21.944,13.684,-28.422
-18.009,10.36,10.237,-20.983,1.1908,7.7815,17.604,-15.44,-19.747,-19.727,-10.451,-35.375,-7.0618,-22.225,13.957,-28.774
-18.288,10.136,10.148,-21.155,0.97663,7.5027,17.688,-15.659,-19.67,-19.887,-10.131,-35.612,-6.9779,-22.504,14.23,-29.123
-18.288,10.136,10.148,-21.155,0.97663,7.5027,17.688,-15.659,-19.67,-19.887,-10.131,-35.612,-6.9779,-22.504,14.23,-29.123
-18.288,10.136,10.148,-21.155,0.97663,7.5027,17.688,-15.659,-19.67,-19.887,-10.131,-35.612,-6.9779,-22.504,14.23,-29.123
-18.565,9.9133,10.061,-21.326,0.76271,7.2257,17.772,-15.876,-19.592,-20.044,-9.8115,-35.846,-6.8937,-22.78,14.503,-29.47
-18.565,9.9133,10.061,-21.326,0.76271,7.2257,17.772,-15.876,-19.592,-20.044,-9.8115,-35.846,-6.8937,-22.78,14.503,-29.47
-18.841,9.6925,9.974,-21.495,0.54907,6.9504,17.855,-16.093,-19.513,-20.199,-9.4923,-36.077,-6.8091,-23.054,14.777,-29.815
-18.841,9.6925,9.974,-21.495,0.54907,6.9504,17.855,-16.093,-19.513,-20.199,-9.4923,-36.077,-6.8091,-23.054,14.777,-29.815
-19.116,9.4734,9.8878,-21.662,0.3357,6.6768,17.938,-16.308,-19.433,-20.353,-9.1734,-36.306,-6.7242,-23.325,15.05,-30.158
-19.116,9.4734,9.8878,-21.662,0.3357,6.6768,17.938,-16.308,-19.433,-20.353,-9.1734,-36.306,-6.7242,-23.325,15.05,-30.158
-19.39,9.2559,9.8022,-21.827,0.1226,6.4051,18.021,-16.522,-19.352,-20.504,-8.8548,-36.533,-6.6388,-23.594,15.325,-30.499
-19.39,9.2559,9.8022,-21.827,0.1226,6.4051,18.021,-16.522,-19.352,-20.504,-8.8548,-36.533,-6.6388,-23.594,15.325,-30.499
-19.662,9.0402,9.7172,-21.991,-0.090237,6.1351,18.103,-16.735,-19.269,-20.654,-8.5365,-36.756,-6.5531,-23.861,15.599,-30.838
-19.662,9.0402,9.7172,-21.991,-0.090237,6.1351,18.103,-16.735,-19.269,-20.654,-8.5365,-36.756,-6.5531,-23.861,15.599,-30.838
-19.932,8.8262,9.633,-22.153,-0.3028,5.8669,18.186,-16.947,-19.186,-20.802,-8.2185,-36.977,-6.4671,-24.125,15.873,-31.174
-20.202,8.614,9.5493,-22.312,-0.51509,5.6006,18.267,-17.157,-19.102,-20.948,-7.9009,-37.196,-6.3808,-24.387,16.148,-31.509
-20.202,8.614,9.5493,-22.312,-0.51509,5.6006,18.267,-17.157,-19.102,-20.948,-7.9009,-37.196,-6.3808,-24.387,16.148,-31.509
-20.202,8.614,9.5493,-22.312,-0.51509,5.6006,18.267,-17.157,-19.102,-20.948,-7.9009,-37.196,-6.3808,-24.387,16.148,-31.509
-20.47,8.4035,9.4664,-22.47,-0.7271,5.336,18.349,-17.366,-19.018,-21.092,-7.5836,-37.412,-6.2941,-24.646,16.423,-31.841
-20.47,8.4035,9.4664,-22.47,-0.7271,5.336,18.349,-17.366,-19.018,-21.092,-7.5836,-37.412,-6.2941,-24.646,16.423,-31.841
-20.737,8.1947,9.384,-22.626,-0.93885,5.0732,18.43,-17.574,-18.932,-21.233,-7.2667,-37.625,-6.2071,-24.902,16.698,-32.17
-20.737,8.1947,9.384,-22.626,-0.93885,5.0732,18.43,-17.574,-18.932,-21.233,-7.2667,-37.625,-6.2071,-24.902,16.698,-32.17
-21.002,7.9877,9.3023,-22.78,-1.1503,4.8123,18.51,-17.78,-18.845,-21.373,-6.9502,-37.836,-6.1198,-25.157,16.973,-32.498
-21.002,7.9877,9.3023,-22.78,-1.1503,4.8123,18.51,-17.78,-18.845,-21.373,-6.9502,-37.836,-6.1198,-25.157,16.973,-32.498
-21.266,7.7825,9.2213,-22.932,-1.3615,4.5532,18.591,-17.985,-18.757,-21.511,-6.6341,-38.043,-6.0322,-25.408,17.248,-32.823
-21.266,7.7825,9.2213,-22.932,-1.3615,4.5532,18.591,-17.985,-18.757,-21.511,-6.6341,-38.043,-6.0322,-25.408,17.248,-32.823
-21.529,7.5791,9.1408,-23.083,-1.5724,4.296,18.67,-18.188,-18.669,-21.647,-6.3185,-38.248,-5.9443,-25.657,17.523,-33.146
-21.529,7.5791,9.1408,-23.083,-1.5724,4.296,18.67,-18.188,-18.669,-21.647,-6.3185,-38.248,-5.9443,-25.657,17.523,-33.146
-21.79,7.3774,9.061,-23.231,-1.7831,4.0406,18.75,-18.391,-18.579,-21.781,-6.0033,-38.451,-5.8562,-25.904,17.798,-33.466
-21.79,7.3774,9.061,-23.231,-1.7831,4.0406,18.75,-18.391,-18.579,-21.781,-6.0033,-38.451,-5.8562,-25.904,17.798,-33.466
-22.05,7.1775,8.9818,-23.377,-1.9935,3.7871,18.829,-18.591,-18.489,-21.913,-5.6886,-38.651,-5.7678,-26.147,18.074,-33.784
-22.05,7.1775,8.9818,-23.377,-1.9935,3.7871,18.829,-18.591,-18.489,-21.913,-5.6886,-38.651,-5.7678,-26.147,18.074,-33.784
-22.309,6.9794,8.9032,-23.522,-2.2036,3.5354,18.907,-18.79,-18.397,-22.043,-5.3743,-38.848,-5.6791,-26.389,18.349,-34.1
-22.309,6.9794,8.9032,-23.522,-2.2036,3.5354,18.907,-18.79,-18.397,-22.043,-5.3743,-38.848,-5.6791,-26.389,18.349,-34.1
-22.566,6.7832,8.8253,-23.664,-2.4134,3.2857,18.985,-18.988,-18.305,-22.171,-5.0606,-39.042,-5.5902,-26.627,18.624,-34.413
-22.822,6.5887,8.7479,-23.804,-2.623,3.0378,19.063,-19.184,-18.212,-22.297,-4.7474,-39.233,-5.5011,-26.863,18.9,-34.724
-22.822,6.5887,8.7479,-23.804,-2.623,3.0378,19.063,-19.184,-18.212,-22.297,-4.7474,-39.233,-5.5011,-26.863,18.9,-34.724
-22.822,6.5887,8.7479,-23.804,-2.623,3.0378,19.063,-19.184,-18.212,-22.297,-4.7474,-39.233,-5.5011,-26.863,18.9,-34.724
-23.076,6.3961,8.6712,-23.943,-2.8323,2.7918,19.14,-19.379,-18.118,-22.421,-4.4347,-39.422,-5.4117,-27.097,19.175,-35.032
-23.076,6.3961,8.6712,-23.943,-2.8323,2.7918,19.14,-19.379,-18.118,-22.421,-4.4347,-39.422,-5.4117,-27.097,19.175,-35.032
-23.329,6.2053,8.595,-24.079,-3.0413,2.5478,19.217,-19.572,-18.024,-22.542,-4.1226,-39.607,-5.3221,-27.328,19.45,-35.338
-23.329,6.2053,8.595,-24.079,-3.0413,2.5478,19.217,-19.572,-18.024,-22.542,-4.1226,-39.607,-5.3221,-27.328,19.45,-35.338
-23.581,6.0163,8.5195,-24.213,-3.25,2.3056,19.293,-19.764,-17.928,-22.662,-3.8111,-39.79,-5.2324,-27.556,19.725,-35.641
-23.581,6.0163,8.5195,-24.213,-3.25,2.3056,19.293,-19.764,-17.928,-22.662,-3.8111,-39.79,-5.2324,-27.556,19.725,-35.641
-23.831,5.8292,8.4445,-24.346,-3.4585,2.0654,19.368,-19.954,-17.832,-22.78,-3.5002,-39.97,-5.1424,-27.781,20,-35.942
-23.831,5.8292,8.4445,-24.346,-3.4585,2.0654,19.368,-19.954,-17.832,-22.78,-3.5002,-39.97,-5.1424,-27.781,20,-35.942
-23.831,5.8292,8.4445,-24.346,-3.4585,2.0654,19.368,-19.954,-17.832,-22.78,-3.5002,-39.97,-5.1424,-27.781,20,-35.942
-24.08,5.6439,8.3702,-24.476,-3.6667,1.8271,19.443,-20.143,-17.735,-22.895,-3.1899,-40.148,-5.0522,-28.004,20.275,-36.24
-24.08,5.6439,8.3702,-24.476,-3.6667,1.8271,19.443,-20.143,-17.735,-22.895,-3.1899,-40.148,-5.0522,-28.004,20.275,-36.24
-24.08,5.6439,8.3702,-24.476,-3.6667,1.8271,19.443,-20.143,-17.735,-22.895,-3.1899,-40.148,-5.0522,-28.004,20.275,-36.24
-24.574,5.2789,8.2232,-24.73,-4.0823,1.3564,19.592,-20.515,-17.538,-23.12,-2.5712,-40.494,-4.8715,-28.441,20.824,-36.829
-24.574,5.2789,8.2232,-24.73,-4.0823,1.3564,19.592,-20.515,-17.538,-23.12,-2.5712,-40.494,-4.8715,-28.441,20.824,-36.829
-24.574,5.2789,8.2232,-24.73,-4.0823,1.3564,19.592,-20.515,-17.538,-23.12,-2.5712,-40.494,-4.8715,-28.441,20.824,-36.829
-24.819,5.0992,8.1505,-24.854,-4.2896,1.1239,19.665,-20.698,-17.439,-23.229,-2.2628,-40.662,-4.7808,-28.656,21.099,-37.12
-24.819,5.0992,8.1505,-24.854,-4.2896,1.1239,19.665,-20.698,-17.439,-23.229,-2.2628,-40.662,-4.7808,-28.656,21.099,-37.12
-25.304,4.7455,8.0069,-25.096,-4.7036,0.66492,19.81,-21.06,-17.237,-23.441,-1.6481,-40.991,-4.5992,-29.077,21.647,-37.693
-25.304,4.7455,8.0069,-25.096,-4.7036,0.66492,19.81,-21.06,-17.237,-23.441,-1.6481,-40.991,-4.5992,-29.077,21.647,-37.693
-25.304,4.7455,8.0069,-25.096,-4.7036,0.66492,19.81,-21.06,-17.237,-23.441,-1.6481,-40.991,-4.5992,-29.077,21.647,-37.693
-25.545,4.5714,7.936,-25.214,-4.9101,0.43837,19.882,-21.239,-17.136,-23.544,-1.3419,-41.151,-4.5082,-29.283,21.92,-37.975
-25.545,4.5714,7.936,-25.214,-4.9101,0.43837,19.882,-21.239,-17.136,-23.544,-1.3419,-41.151,-4.5082,-29.283,21.92,-37.975
-25.784,4.3992,7.8656,-25.33,-5.1164,0.2138,19.953,-21.416,-17.033,-23.645,-1.0363,-41.308,-4.4171,-29.486,22.194,-38.255
-25.784,4.3992,7.8656,-25.33,-5.1164,0.2138,19.953,-21.416,-17.033,-23.645,-1.0363,-41.308,-4.4171,-29.486,22.194,-38.255
-26.022,4.229,7.7958,-25.443,-5.3224,-0.0087838,20.023,-21.591,-16.93,-23.743,-0.73158,-41.462,-4.3258,-29.687,22.467,-38.532
-26.022,4.229,7.7958,-25.443,-5.3224,-0.0087838,20.023,-21.591,-16.93,-23.743,-0.73158,-41.462,-4.3258,-29.687,22.467,-38.532
-26.258,4.0606,7.7265,-25.554,-5.5282,-0.22938,20.093,-21.764,-16.827,-23.84,-0.42758,-41.613,-4.2345,-29.885,22.739,-38.806
-26.493,3.8941,7.6577,-25.664,-5.7336,-0.44797,20.162,-21.936,-16.722,-23.934,-0.12437,-41.761,-4.1432,-30.08,23.012,-39.078
-26.493,3.8941,7.6577,-25.664,-5.7336,-0.44797,20.162,-21.936,-16.722,-23.934,-0.12437,-41.761,-4.1432,-30.08,23.012,-39.078
-26.493,3.8941,7.6577,-25.664,-5.7336,-0.44797,20.162,-21.936,-16.722,-23.934,-0.12437,-41.761,-4.1432,-30.08,23.012,-39.078
-26.727,3.7296,7.5895,-25.771,-5.9388,-0.66456,20.23,-22.106,-16.617,-24.026,0.17803,-41.906,-4.0517,-30.273,23.284,-39.347
-26.727,3.7296,7.5895,-25.771,-5.9388,-0.66456,20.23,-22.106,-16.617,-24.026,0.17803,-41.906,-4.0517,-30.273,23.284,-39.347
-26.959,3.5669,7.5218,-25.876,-6.1438,-0.87914,20.298,-22.274,-16.511,-24.116,0.47961,-42.048,-3.9602,-30.462,23.555,-39.613
-26.959,3.5669,7.5218,-25.876,-6.1438,-0.87914,20.298,-22.274,-16.511,-24.116,0.47961,-42.048,-3.9602,-30.462,23.555,-39.613
-27.19,3.4062,7.4546,-25.978,-6.3484,-1.0917,20.365,-22.44,-16.405,-24.204,0.78035,-42.187,-3.8687,-30.649,23.827,-39.876
-27.19,3.4062,7.4546,-25.978,-6.3484,-1.0917,20.365,-22.44,-16.405,-24.204,0.78035,-42.187,-3.8687,-30.649,23.827,-39.876
-27.419,3.2474,7.3879,-26.079,-6.5528,-1.3022,20.432,-22.604,-16.298,-24.29,1.0802,-42.323,-3.7771,-30.833,24.097,-40.137
-27.647,3.0905,7.3218,-26.177,-6.757,-1.5108,20.497,-22.767,-16.19,-24.373,1.3792,-42.456,-3.6855,-31.014,24.368,-40.395
-27.647,3.0905,7.3218,-26.177,-6.757,-1.5108,20.497,-22.767,-16.19,-24.373,1.3792,-42.456,-3.6855,-31.014,24.368,-40.395
-27.647,3.0905,7.3218,-26.177,-6.757,-1.5108,20.497,-22.767,-16.19,-24.373,1.3792,-42.456,-3.6855,-31.014,24.368,-40.395
-27.874,2.9356,7.2561,-26.273,-6.9608,-1.7172,20.562,-22.927,-16.082,-24.454,1.6774,-42.586,-3.5939,-31.192,24.638,-40.649
-27.874,2.9356,7.2561,-26.273,-6.9608,-1.7172,20.562,-22.927,-16.082,-24.454,1.6774,-42.586,-3.5939,-31.192,24.638,-40.649
-28.099,2.7826,7.191,-26.367,-7.1644,-1.9217,20.627,-23.086,-15.973,-24.533,1.9746,-42.713,-3.5023,-31.368,24.907,-40.901
-28.099,2.7826,7.191,-26.367,-7.1644,-1.9217,20.627,-23.086,-15.973,-24.533,1.9746,-42.713,-3.5023,-31.368,24.907,-40.901
-28.099,2.7826,7.191,-26.367,-7.1644,-1.9217,20.627,-23.086,-15.973,-24.533,1.9746,-42.713,-3.5023,-31.368,24.907,-40.901
-28.323,2.6315,7.1263,-26.459,-7.3677,-2.1241,20.69,-23.243,-15.864,-24.61,2.2709,-42.837,-3.4107,-31.54,25.176,-41.15
-28.323,2.6315,7.1263,-26.459,-7.3677,-2.1241,20.69,-23.243,-15.864,-24.61,2.2709,-42.837,-3.4107,-31.54,25.176,-41.15
-28.545,2.4824,7.0622,-26.549,-7.5708,-2.3245,20.753,-23.398,-15.754,-24.685,2.5662,-42.957,-3.3191,-31.71,25.444,-41.397
-28.545,2.4824,7.0622,-26.549,-7.5708,-2.3245,20.753,-23.398,-15.754,-24.685,2.5662,-42.957,-3.3191,-31.71,25.444,-41.397
-28.545,2.4824,7.0622,-26.549,-7.5708,-2.3245,20.753,-23.398,-15.754,-24.685,2.5662,-42.957,-3.3191,-31.71,25.444,-41.397
-28.986,2.19,6.9353,-26.721,-7.9761,-2.7191,20.876,-23.702,-15.532,-24.827,3.154,-43.19,-3.136,-32.04,25.979,-41.88
-28.986,2.19,6.9353,-26.721,-7.9761,-2.7191,20.876,-23.702,-15.532,-24.827,3.154,-43.19,-3.136,-32.04,25.979,-41.88
-29.204,2.0468,6.8726,-26.804,-8.1783,-2.9133,20.936,-23.851,-15.421,-24.895,3.4464,-43.301,-3.0446,-32.201,26.246,-42.118
-29.204,2.0468,6.8726,-26.804,-8.1783,-2.9133,20.936,-23.851,-15.421,-24.895,3.4464,-43.301,-3.0446,-32.201,26.246,-42.118
-29.421,1.9055,6.8104,-26.884,-8.3803,-3.1054,20.996,-23.998,-15.309,-24.961,3.7378,-43.409,-2.9532,-32.359,26.512,-42.352
-29.421,1.9055,6.8104,-26.884,-8.3803,-3.1054,20.996,-23.998,-15.309,-24.961,3.7378,-43.409,-2.9532,-32.359,26.512,-42.352
-29.637,1.7661,6.7486,-26.963,-8.5821,-3.2955,21.055,-24.143,-15.196,-25.025,4.0282,-43.515,-2.8618,-32.514,26.777,-42.584
-29.637,1.7661,6.7486,-26.963,-8.5821,-3.2955,21.055,-24.143,-15.196,-25.025,4.0282,-43.515,-2.8618,-32.514,26.777,-42.584
-29.851,1.6287,6.6872,-27.039,-8.7835,-3.4835,21.113,-24.286,-15.083,-25.086,4.3176,-43.617,-2.7706,-32.666,27.042,-42.812
-29.851,1.6287,6.6872,-27.039,-8.7835,-3.4835,21.113,-24.286,-15.083,-25.086,4.3176,-43.617,-2.7706,-32.666,27.042,-42.812
-30.063,1.4933,6.6264,-27.112,-8.9847,-3.6694,21.17,-24.427,-14.969,-25.145,4.6059,-43.716,-2.6794,-32.816,27.306,-43.038
-30.063,1.4933,6.6264,-27.112,-8.9847,-3.6694,21.17,-24.427,-14.969,-25.145,4.6059,-43.716,-2.6794,-32.816,27.306,-43.038
-30.275,1.3598,6.5659,-27.184,-9.1857,-3.8533,21.226,-24.566,-14.855,-25.202,4.8931,-43.812,-2.5884,-32.962,27.569,-43.26
-30.275,1.3598,6.5659,-27.184,-9.1857,-3.8533,21.226,-24.566,-14.855,-25.202,4.8931,-43.812,-2.5884,-32.962,27.569,-43.26
-30.484,1.2284,6.5059,-27.253,-9.3863,-4.0351,21.282,-24.703,-14.741,-25.257,5.1793,-43.904,-2.4975,-33.105,27.832,-43.479
-30.484,1.2284,6.5059,-27.253,-9.3863,-4.0351,21.282,-24.703,-14.741,-25.257,5.1793,-43.904,-2.4975,-33.105,27.832,-43.479
-30.693,1.0988,6.4464,-27.32,-9.5867,-4.2148,21.337,-24.838,-14.626,-25.309,5.4643,-43.994,-2.4066,-33.246,28.094,-43.696
-30.693,1.0988,6.4464,-27.32,-9.5867,-4.2148,21.337,-24.838,-14.626,-25.309,5.4643,-43.994,-2.4066,-33.246,28.094,-43.696
-30.9,0.9713,6.3872,-27.385,-9.7869,-4.3924,21.39,-24.971,-14.511,-25.359,5.7482,-44.08,-2.316,-33.383,28.355,-43.909
-30.9,0.9713,6.3872,-27.385,-9.7869,-4.3924,21.39,-24.971,-14.511,-25.359,5.7482,-44.08,-2.316,-33.383,28.355,-43.909
-31.106,0.84574,6.3285,-27.447,-9.9868,-4.568,21.443,-25.102,-14.395,-25.407,6.031,-44.164,-2.2255,-33.518,28.615,-44.119
-31.106,0.84574,6.3285,-27.447,-9.9868,-4.568,21.443,-25.102,-14.395,-25.407,6.031,-44.164,-2.2255,-33.518,28.615,-44.119
-31.31,0.72215,6.2702,-27.507,-10.186,-4.7414,21.495,-25.23,-14.279,-25.453,6.3127,-44.244,-2.1351,-33.649,28.875,-44.326
-31.31,0.72215,6.2702,-27.507,-10.186,-4.7414,21.495,-25.23,-14.279,-25.453,6.3127,-44.244,-2.1351,-33.649,28.875,-44.326
-31.513,0.60054,6.2123,-27.564,-10.386,-4.9128,21.546,-25.357,-14.163,-25.496,6.5931,-44.321,-2.0449,-33.778,29.133,-44.53
-31.513,0.60054,6.2123,-27.564,-10.386,-4.9128,21.546,-25.357,-14.163,-25.496,6.5931,-44.321,-2.0449,-33.778,29.133,-44.53
-31.714,0.4809,6.1548,-27.62,-10.585,-5.0821,21.596,-25.481,-14.046,-25.537,6.8724,-44.394,-1.9549,-33.904,29.391,-44.731
-31.714,0.4809,6.1548,-27.62,-10.585,-5.0821,21.596,-25.481,-14.046,-25.537,6.8724,-44.394,-1.9549,-33.904,29.391,-44.731
-31.915,0.36325,6.0978,-27.673,-10.784,-5.2492,21.646,-25.603,-13.929,-25.576,7.1505,-44.465,-1.865,-34.027,29.648,-44.929
-31.915,0.36325,6.0978,-27.673,-10.784,-5.2492,21.646,-25.603,-13.929,-25.576,7.1505,-44.465,-1.865,-34.027,29.648,-44.929
-32.113,0.24758,6.0411,-27.724,-10.982,-5.4143,21.694,-25.723,-13.812,-25.613,7.4274,-44.532,-1.7754,-34.146,29.904,-45.124
-32.113,0.24758,6.0411,-27.724,-10.982,-5.4143,21.694,-25.723,-13.812,-25.613,7.4274,-44.532,-1.7754,-34.146,29.904,-45.124
-32.311,0.1339,5.9847,-27.772,-11.181,-5.5773,21.741,-25.841,-13.694,-25.648,7.7031,-44.596,-1.686,-34.263,30.159,-45.315
-32.311,0.1339,5.9847,-27.772,-11.181,-5.5773,21.741,-25.841,-13.694,-25.648,7.7031,-44.596,-1.686,-34.263,30.159,-45.315
-32.507,0.022195,5.9288,-27.818,-11.379,-5.7382,21.788,-25.957,-13.576,-25.68,7.9775,-44.657,-1.5968,-34.377,30.413,-45.504
-32.507,0.022195,5.9288,-27.818,-11.379,-5.7382,21.788,-25.957,-13.576,-25.68,7.9775,-44.657,-1.5968,-34.377,30.413,-45.504
-32.702,-0.087524,5.8732,-27.862,-11.577,-5.897,21.833,-26.07,-13.458,-25.71,8.2507,-44.715,-1.5078,-34.488,30.666,-45.689
-32.702,-0.087524,5.8732,-27.862,-11.577,-5.897,21.833,-26.07,-13.458,-25.71,8.2507,-44.715,-1.5078,-34.488,30.666,-45.689
-32.895,-0.19526,5.818,-27.903,-11.774,-6.0537,21.878,-26.181,-13.339,-25.738,8.5226,-44.769,-1.4191,-34.595,30.919,-45.871
-32.895,-0.19526,5.818,-27.903,-11.774,-6.0537,21.878,-26.181,-13.339,-25.738,8.5226,-44.769,-1.4191,-34.595,30.919,-45.871
-33.087,-0.30101,5.7632,-27.942,-11.972,-6.2082,21.921,-26.29,-13.22,-25.763,8.7932,-44.82,-1.3306,-34.7,31.17,-46.05
-33.087,-0.30101,5.7632,-27.942,-11.972,-6.2082,21.921,-26.29,-13.22,-25.763,8.7932,-44.82,-1.3306,-34.7,31.17,-46.05
-33.277,-0.40477,5.7087,-27.978,-12.169,-6.3607,21.964,-26.397,-13.101,-25.786,9.0625,-44.868,-1.2424,-34.802,31.42,-46.225
-33.277,-0.40477,5.7087,-27.978,-12.169,-6.3607,21.964,-26.397,-13.101,-25.786,9.0625,-44.868,-1.2424,-34.802,31.42,-46.225
-33.277,-0.40477,5.7087,-27.978,-12.169,-6.3607,21.964,-26.397,-13.101,-25.786,9.0625,-44.868,-1.2424,-34.802,31.42,-46.225
-33.467,-0.50656,5.6546,-28.013,-12.365,-6.5111,22.005,-26.501,-12.982,-25.807,9.3306,-44.913,-1.1545,-34.901,31.669,-46.398
-33.654,-0.60635,5.6008,-28.044,-12.562,-6.6594,22.046,-26.604,-12.862,-25.826,9.5972,-44.955,-1.0668,-34.997,31.917,-46.567
-33.654,-0.60635,5.6008,-28.044,-12.562,-6.6594,22.046,-26.604,-12.862,-25.826,9.5972,-44.955,-1.0668,-34.997,31.917,-46.567
-33.841,-0.70416,5.5473,-28.074,-12.758,-6.8055,22.085,-26.704,-12.743,-25.842,9.8626,-44.993,-0.97943,-35.09,32.164,-46.733
-33.841,-0.70416,5.5473,-28.074,-12.758,-6.8055,22.085,-26.704,-12.743,-25.842,9.8626,-44.993,-0.97943,-35.09,32.164,-46.733
-34.026,-0.79999,5.4942,-28.101,-12.954,-6.9496,22.124,-26.801,-12.623,-25.857,10.127,-45.028,-0.89237,-35.18,32.41,-46.895
-34.026,-0.79999,5.4942,-28.101,-12.954,-6.9496,22.124,-26.801,-12.623,-25.857,10.127,-45.028,-0.89237,-35.18,32.41,-46.895
-34.21,-0.89384,5.4414,-28.126,-13.15,-7.0916,22.161,-26.897,-12.503,-25.869,10.389,-45.06,-0.80562,-35.267,32.655,-47.055
-34.21,-0.89384,5.4414,-28.126,-13.15,-7.0916,22.161,-26.897,-12.503,-25.869,10.389,-45.06,-0.80562,-35.267,32.655,-47.055
-34.21,-0.89384,5.4414,-28.126,-13.15,-7.0916,22.161,-26.897,-12.503,-25.869,10.389,-45.06,-0.80562,-35.267,32.655,-47.055
-34.392,-0.9857,5.3889,-28.148,-13.346,-7.2314,22.197,-26.99,-12.382,-25.878,10.65,-45.088,-0.7192,-35.351,32.899,-47.211
-34.573,-1.0756,5.3367,-28.168,-13.541,-7.3692,22.233,-27.08,-12.262,-25.886,10.91,-45.114,-0.63311,-35.432,33.141,-47.364
-34.573,-1.0756,5.3367,-28.168,-13.541,-7.3692,22.233,-27.08,-12.262,-25.886,10.91,-45.114,-0.63311,-35.432,33.141,-47.364
-34.753,-1.1635,5.2848,-28.186,-13.736,-7.5048,22.267,-27.169,-12.141,-25.891,11.169,-45.136,-0.54736,-35.509,33.382,-47.513
-34.753,-1.1635,5.2848,-28.186,-13.736,-7.5048,22.267,-27.169,-12.141,-25.891,11.169,-45.136,-0.54736,-35.509,33.382,-47.513
-34.932,-1.2494,5.2332,-28.201,-13.931,-7.6384,22.3,-27.255,-12.021,-25.894,11.426,-45.155,-0.46197,-35.584,33.622,-47.659
-34.932,-1.2494,5.2332,-28.201,-13.931,-7.6384,22.3,-27.255,-12.021,-25.894,11.426,-45.155,-0.46197,-35.584,33.622,-47.659
-35.109,-1.3333,5.1819,-28.214,-14.126,-7.7698,22.332,-27.338,-11.9,-25.895,11.681,-45.17,-0.37695,-35.656,33.861,-47.802
-35.109,-1.3333,5.1819,-28.214,-14.126,-7.7698,22.332,-27.338,-11.9,-25.895,11.681,-45.17,-0.37695,-35.656,33.861,-47.802
-35.109,-1.3333,5.1819,-28.214,-14.126,-7.7698,22.332,-27.338,-11.9,-25.895,11.681,-45.17,-0.37695,-35.656,33.861,-47.802
-35.284,-1.4153,5.1308,-28.224,-14.32,-7.8992,22.363,-27.42,-11.779,-25.894,11.935,-45.183,-0.2923,-35.725,34.099,-47.942
-35.459,-1.4953,5.0801,-28.232,-14.514,-8.0264,22.393,-27.499,-11.658,-25.89,12.188,-45.192,-0.20804,-35.791,34.335,-48.078
-35.459,-1.4953,5.0801,-28.232,-14.514,-8.0264,22.393,-27.499,-11.658,-25.89,12.188,-45.192,-0.20804,-35.791,34.335,-48.078
-35.632,-1.5733,5.0296,-28.238,-14.708,-8.1515,22.422,-27.575,-11.537,-25.884,12.439,-45.197,-0.12417,-35.854,34.57,-48.211
-35.804,-1.6494,4.9794,-28.241,-14.901,-8.2746,22.45,-27.649,-11.416,-25.876,12.689,-45.2,-0.040709,-35.914,34.804,-48.341
-35.804,-1.6494,4.9794,-28.241,-14.901,-8.2746,22.45,-27.649,-11.416,-25.876,12.689,-45.2,-0.040709,-35.914,34.804,-48.341
-35.804,-1.6494,4.9794,-28.241,-14.901,-8.2746,22.45,-27.649,-11.416,-25.876,12.689,-45.2,-0.040709,-35.914,34.804,-48.341
-35.974,-1.7235,4.9294,-28.242,-15.095,-8.3955,22.476,-27.721,-11.295,-25.866,12.937,-45.199,0.042337,-35.971,35.036,-48.468
-35.974,-1.7235,4.9294,-28.242,-15.095,-8.3955,22.476,-27.721,-11.295,-25.866,12.937,-45.199,0.042337,-35.971,35.036,-48.468
-36.143,-1.7956,4.8797,-28.24,-15.288,-8.5144,22.502,-27.79,-11.174,-25.853,13.184,-45.195,0.12496,-36.025,35.267,-48.591
-36.143,-1.7956,4.8797,-28.24,-15.288,-8.5144,22.502,-27.79,-11.174,-25.853,13.184,-45.195,0.12496,-36.025,35.267,-48.591
-36.311,-1.8657,4.8302,-28.236,-15.481,-8.6312,22.526,-27.857,-11.053,-25.838,13.429,-45.188,0.20714,-36.077,35.497,-48.71
-36.311,-1.8657,4.8302,-28.236,-15.481,-8.6312,22.526,-27.857,-11.053,-25.838,13.429,-45.188,0.20714,-36.077,35.497,-48.71
-36.478,-1.9339,4.781,-28.23,-15.673,-8.7459,22.549,-27.922,-10.932,-25.821,13.672,-45.177,0.28888,-36.125,35.725,-48.827
-36.643,-2.0002,4.7319,-28.221,-15.866,-8.8584,22.571,-27.984,-10.811,-25.802,13.914,-45.163,0.37016,-36.17,35.952,-48.94
-36.643,-2.0002,4.7319,-28.221,-15.866,-8.8584,22.571,-27.984,-10.811,-25.802,13.914,-45.163,0.37016,-36.17,35.952,-48.94
-36.643,-2.0002,4.7319,-28.221,-15.866,-8.8584,22.571,-27.984,-10.811,-25.802,13.914,-45.163,0.37016,-36.17,35.952,-48.94
-36.807,-2.0644,4.6832,-28.21,-16.058,-8.969,22.592,-28.044,-10.69,-25.781,14.155,-45.146,0.45098,-36.212,36.177,-49.049
-36.807,-2.0644,4.6832,-28.21,-16.058,-8.969,22.592,-28.044,-10.69,-25.781,14.155,-45.146,0.45098,-36.212,36.177,-49.049
-36.807,-2.0644,4.6832,-28.21,-16.058,-8.969,22.592,-28.044,-10.69,-25.781,14.155,-45.146,0.45098,-36.212,36.177,-49.049
-36.97,-2.1268,4.6346,-28.197,-16.25,-9.0774,22.612,-28.101,-10.569,-25.757,14.394,-45.126,0.53132,-36.251,36.401,-49.155
-37.131,-2.1871,4.5862,-28.181,-16.442,-9.1837,22.63,-28.156,-10.448,-25.731,14.631,-45.103,0.61117,-36.287,36.624,-49.258
-37.291,-2.2456,4.538,-28.162,-16.633,-9.288,22.647,-28.208,-10.327,-25.704,14.867,-45.076,0.69053,-36.321,36.845,-49.358
-37.291,-2.2456,4.538,-28.162,-16.633,-9.288,22.647,-28.208,-10.327,-25.704,14.867,-45.076,0.69053,-36.321,36.845,-49.358
-37.291,-2.2456,4.538,-28.162,-16.633,-9.288,22.647,-28.208,-10.327,-25.704,14.867,-45.076,0.69053,-36.321,36.845,-49.358
-37.45,-2.3021,4.49,-28.141,-16.824,-9.3902,22.663,-28.258,-10.207,-25.673,15.101,-45.046,0.76938,-36.351,37.065,-49.454
-37.45,-2.3021,4.49,-28.141,-16.824,-9.3902,22.663,-28.258,-10.207,-25.673,15.101,-45.046,0.76938,-36.351,37.065,-49.454
-37.608,-2.3566,4.4422,-28.118,-17.015,-9.4903,22.678,-28.305,-10.086,-25.641,15.333,-45.012,0.84772,-36.378,37.283,-49.547
-37.608,-2.3566,4.4422,-28.118,-17.015,-9.4903,22.678,-28.305,-10.086,-25.641,15.333,-45.012,0.84772,-36.378,37.283,-49.547
-37.608,-2.3566,4.4422,-28.118,-17.015,-9.4903,22.678,-28.305,-10.086,-25.641,15.333,-45.012,0.84772,-36.378,37.283,-49.547
-37.764,-2.4092,4.3946,-28.093,-17.206,-9.5884,22.692,-28.35,-9.9656,-25.607,15.564,-44.976,0.92553,-36.403,37.499,-49.636
-37.919,-2.4599,4.3472,-28.065,-17.396,-9.6844,22.704,-28.392,-9.8452,-25.57,15.794,-44.936,1.0028,-36.424,37.714,-49.722
-37.919,-2.4599,4.3472,-28.065,-17.396,-9.6844,22.704,-28.392,-9.8452,-25.57,15.794,-44.936,1.0028,-36.424,37.714,-49.722
-38.073,-2.5087,4.2999,-28.034,-17.587,-9.7783,22.716,-28.432,-9.7251,-25.531,16.021,-44.893,1.0795,-36.443,37.927,-49.804
-38.073,-2.5087,4.2999,-28.034,-17.587,-9.7783,22.716,-28.432,-9.7251,-25.531,16.021,-44.893,1.0795,-36.443,37.927,-49.804
-38.225,-2.5555,4.2528,-28.001,-17.777,-9.8702,22.726,-28.469,-9.605,-25.49,16.247,-44.847,1.1557,-36.458,38.139,-49.884
-38.225,-2.5555,4.2528,-28.001,-17.777,-9.8702,22.726,-28.469,-9.605,-25.49,16.247,-44.847,1.1557,-36.458,38.139,-49.884
-38.377,-2.6004,4.2058,-27.966,-17.966,-9.96,22.734,-28.504,-9.4852,-25.447,16.471,-44.797,1.2313,-36.471,38.349,-49.959
-38.377,-2.6004,4.2058,-27.966,-17.966,-9.96,22.734,-28.504,-9.4852,-25.447,16.471,-44.797,1.2313,-36.471,38.349,-49.959
-38.377,-2.6004,4.2058,-27.966,-17.966,-9.96,22.734,-28.504,-9.4852,-25.447,16.471,-44.797,1.2313,-36.471,38.349,-49.959
-38.527,-2.6434,4.159,-27.929,-18.156,-10.048,22.742,-28.536,-9.3655,-25.402,16.694,-44.744,1.3064,-36.481,38.558,-50.032
-38.676,-2.6845,4.1123,-27.889,-18.345,-10.133,22.748,-28.566,-9.2461,-25.354,16.914,-44.688,1.3809,-36.488,38.764,-50.101
-38.676,-2.6845,4.1123,-27.889,-18.345,-10.133,22.748,-28.566,-9.2461,-25.354,16.914,-44.688,1.3809,-36.488,38.764,-50.101
-38.823,-2.7237,4.0657,-27.846,-18.534,-10.217,22.753,-28.593,-9.1268,-25.305,17.133,-44.629,1.4547,-36.492,38.97,-50.166
-38.823,-2.7237,4.0657,-27.846,-18.534,-10.217,22.753,-28.593,-9.1268,-25.305,17.133,-44.629,1.4547,-36.492,38.97,-50.166
-38.97,-2.761,4.0193,-27.802,-18.723,-10.299,22.757,-28.618,-9.0078,-25.253,17.351,-44.566,1.528,-36.493,39.173,-50.228
-38.97,-2.761,4.0193,-27.802,-18.723,-10.299,22.757,-28.618,-9.0078,-25.253,17.351,-44.566,1.528,-36.493,39.173,-50.228
-39.115,-2.7964,3.973,-27.754,-18.912,-10.378,22.76,-28.64,-8.8891,-25.199,17.566,-44.501,1.6007,-36.491,39.375,-50.287
-39.115,-2.7964,3.973,-27.754,-18.912,-10.378,22.76,-28.64,-8.8891,-25.199,17.566,-44.501,1.6007,-36.491,39.375,-50.287
-39.115,-2.7964,3.973,-27.754,-18.912,-10.378,22.76,-28.64,-8.8891,-25.199,17.566,-44.501,1.6007,-36.491,39.375,-50.287
-39.259,-2.8299,3.9268,-27.705,-19.1,-10.456,22.761,-28.66,-8.7706,-25.144,17.78,-44.432,1.6727,-36.486,39.575,-50.342
-39.259,-2.8299,3.9268,-27.705,-19.1,-10.456,22.761,-28.66,-8.7706,-25.144,17.78,-44.432,1.6727,-36.486,39.575,-50.342
-39.401,-2.8616,3.8806,-27.653,-19.289,-10.532,22.761,-28.677,-8.6523,-25.086,17.992,-44.36,1.7441,-36.479,39.773,-50.394
-39.401,-2.8616,3.8806,-27.653,-19.289,-10.532,22.761,-28.677,-8.6523,-25.086,17.992,-44.36,1.7441,-36.479,39.773,-50.394
-39.401,-2.8616,3.8806,-27.653,-19.289,-10.532,22.761,-28.677,-8.6523,-25.086,17.992,-44.36,1.7441,-36.479,39.773,-50.394
-39.683,-2.9192,3.7887,-27.542,-19.664,-10.677,22.757,-28.703,-8.4168,-24.963,18.411,-44.206,1.885,-36.455,40.164,-50.488
-39.683,-2.9192,3.7887,-27.542,-19.664,-10.677,22.757,-28.703,-8.4168,-24.963,18.411,-44.206,1.885,-36.455,40.164,-50.488
-39.822,-2.9452,3.7429,-27.483,-19.852,-10.746,22.753,-28.712,-8.2994,-24.899,18.618,-44.124,1.9545,-36.439,40.357,-50.53
-39.822,-2.9452,3.7429,-27.483,-19.852,-10.746,22.753,-28.712,-8.2994,-24.899,18.618,-44.124,1.9545,-36.439,40.357,-50.53
-39.822,-2.9452,3.7429,-27.483,-19.852,-10.746,22.753,-28.712,-8.2994,-24.899,18.618,-44.124,1.9545,-36.439,40.357,-50.53
-39.96,-2.9694,3.6971,-27.421,-20.039,-10.814,22.748,-28.719,-8.1824,-24.833,18.823,-44.039,2.0233,-36.42,40.548,-50.568
-40.097,-2.9917,3.6514,-27.358,-20.226,-10.879,22.741,-28.723,-8.0658,-24.765,19.026,-43.951,2.0914,-36.398,40.738,-50.603
-40.097,-2.9917,3.6514,-27.358,-20.226,-10.879,22.741,-28.723,-8.0658,-24.765,19.026,-43.951,2.0914,-36.398,40.738,-50.603
-40.233,-3.0121,3.6057,-27.291,-20.413,-10.943,22.734,-28.725,-7.9494,-24.694,19.228,-43.86,2.1588,-36.374,40.925,-50.634
-40.233,-3.0121,3.6057,-27.291,-20.413,-10.943,22.734,-28.725,-7.9494,-24.694,19.228,-43.86,2.1588,-36.374,40.925,-50.634
-40.367,-3.0307,3.5601,-27.223,-20.6,-11.004,22.724,-28.724,-7.8335,-24.622,19.427,-43.765,2.2256,-36.346,41.111,-50.662
-40.501,-3.0475,3.5146,-27.152,-20.786,-11.064,22.714,-28.721,-7.7179,-24.547,19.625,-43.668,2.2916,-36.316,41.295,-50.687
-40.501,-3.0475,3.5146,-27.152,-20.786,-11.064,22.714,-28.721,-7.7179,-24.547,19.625,-43.668,2.2916,-36.316,41.295,-50.687
-40.501,-3.0475,3.5146,-27.152,-20.786,-11.064,22.714,-28.721,-7.7179,-24.547,19.625,-43.668,2.2916,-36.316,41.295,-50.687
-40.633,-3.0624,3.469,-27.079,-20.972,-11.122,22.702,-28.714,-7.6027,-24.471,19.821,-43.567,2.357,-36.283,41.476,-50.708
-40.633,-3.0624,3.469,-27.079,-20.972,-11.122,22.702,-28.714,-7.6027,-24.471,19.821,-43.567,2.357,-36.283,41.476,-50.708
-40.633,-3.0624,3.469,-27.079,-20.972,-11.122,22.702,-28.714,-7.6027,-24.471,19.821,-43.567,2.357,-36.283,41.476,-50.708
-40.764,-3.0755,3.4236,-27.003,-21.158,-11.177,22.689,-28.706,-7.488,-24.393,20.015,-43.463,2.4216,-36.247,41.656,-50.726
-40.764,-3.0755,3.4236,-27.003,-21.158,-11.177,22.689,-28.706,-7.488,-24.393,20.015,-43.463,2.4216,-36.247,41.656,-50.726
-40.894,-3.0869,3.3781,-26.925,-21.344,-11.231,22.675,-28.695,-7.3736,-24.312,20.207,-43.356,2.4855,-36.209,41.834,-50.741
-40.894,-3.0869,3.3781,-26.925,-21.344,-11.231,22.675,-28.695,-7.3736,-24.312,20.207,-43.356,2.4855,-36.209,41.834,-50.741
-40.894,-3.0869,3.3781,-26.925,-21.344,-11.231,22.675,-28.695,-7.3736,-24.312,20.207,-43.356,2.4855,-36.209,41.834,-50.741
-41.15,-3.1041,3.2872,-26.762,-21.715,-11.332,22.642,-28.664,-7.1462,-24.145,20.586,-43.133,2.611,-36.123,42.184,-50.759
-41.15,-3.1041,3.2872,-26.762,-21.715,-11.332,22.642,-28.664,-7.1462,-24.145,20.586,-43.133,2.611,-36.123,42.184,-50.759
-41.15,-3.1041,3.2872,-26.762,-21.715,-11.332,22.642,-28.664,-7.1462,-24.145,20.586,-43.133,2.611,-36.123,42.184,-50.759
-41.276,-3.11,3.2418,-26.677,-21.9,-11.38,22.623,-28.645,-7.0332,-24.059,20.773,-43.016,2.6727,-36.076,42.356,-50.764
-41.402,-3.1141,3.1963,-26.59,-22.085,-11.426,22.604,-28.624,-6.9207,-23.97,20.957,-42.897,2.7335,-36.027,42.527,-50.765
-41.526,-3.1164,3.1509,-26.501,-22.269,-11.47,22.583,-28.599,-6.8086,-23.88,21.14,-42.774,2.7937,-35.975,42.695,-50.762
-41.526,-3.1164,3.1509,-26.501,-22.269,-11.47,22.583,-28.599,-6.8086,-23.88,21.14,-42.774,2.7937,-35.975,42.695,-50.762
-41.526,-3.1164,3.1509,-26.501,-22.269,-11.47,22.583,-28.599,-6.8086,-23.88,21.14,-42.774,2.7937,-35.975,42.695,-50.762
-41.649,-3.117,3.1054,-26.409,-22.454,-11.512,22.56,-28.573,-6.697,-23.788,21.321,-42.648,2.853,-35.92,42.861,-50.756
-41.649,-3.117,3.1054,-26.409,-22.454,-11.512,22.56,-28.573,-6.697,-23.788,21.321,-42.648,2.853,-35.92,42.861,-50.756
-41.771,-3.1158,3.0599,-26.314,-22.638,-11.552,22.536,-28.543,-6.586,-23.693,21.5,-42.52,2.9115,-35.862,43.025,-50.747
-41.771,-3.1158,3.0599,-26.314,-22.638,-11.552,22.536,-28.543,-6.586,-23.693,21.5,-42.52,2.9115,-35.862,43.025,-50.747
-41.771,-3.1158,3.0599,-26.314,-22.638,-11.552,22.536,-28.543,-6.586,-23.693,21.5,-42.52,2.9115,-35.862,43.025,-50.747
-41.892,-3.1129,3.0143,-26.218,-22.822,-11.59,22.511,-28.511,-6.4754,-23.597,21.677,-42.388,2.9693,-35.801,43.187,-50.735
-42.012,-3.1082,2.9687,-26.119,-23.005,-11.627,22.484,-28.477,-6.3654,-23.499,21.852,-42.253,3.0262,-35.738,43.347,-50.719
-42.131,-3.1018,2.9231,-26.018,-23.189,-11.661,22.457,-28.439,-6.2559,-23.399,22.025,-42.115,3.0823,-35.673,43.504,-50.7
-42.131,-3.1018,2.9231,-26.018,-23.189,-11.661,22.457,-28.439,-6.2559,-23.399,22.025,-42.115,3.0823,-35.673,43.504,-50.7
-42.131,-3.1018,2.9231,-26.018,-23.189,-11.661,22.457,-28.439,-6.2559,-23.399,22.025,-42.115,3.0823,-35.673,43.504,-50.7
-42.249,-3.0936,2.8774,-25.915,-23.372,-11.694,22.427,-28.4,-6.147,-23.298,22.197,-41.974,3.1376,-35.604,43.66,-50.677
-42.249,-3.0936,2.8774,-25.915,-23.372,-11.694,22.427,-28.4,-6.147,-23.298,22.197,-41.974,3.1376,-35.604,43.66,-50.677
-42.366,-3.0837,2.8317,-25.809,-23.555,-11.724,22.397,-28.357,-6.0387,-23.194,22.366,-41.83,3.1921,-35.533,43.814,-50.651
-42.366,-3.0837,2.8317,-25.809,-23.555,-11.724,22.397,-28.357,-6.0387,-23.194,22.366,-41.83,3.1921,-35.533,43.814,-50.651
-42.366,-3.0837,2.8317,-25.809,-23.555,-11.724,22.397,-28.357,-6.0387,-23.194,22.366,-41.83,3.1921,-35.533,43.814,-50.651
-42.481,-3.0721,2.7858,-25.701,-23.738,-11.753,22.365,-28.312,-5.9309,-23.088,22.533,-41.683,3.2457,-35.46,43.965,-50.622
-42.596,-3.0589,2.7399,-25.591,-23.921,-11.78,22.331,-28.265,-5.8238,-22.981,22.698,-41.533,3.2985,-35.384,44.114,-50.589
-42.596,-3.0589,2.7399,-25.591,-23.921,-11.78,22.331,-28.265,-5.8238,-22.981,22.698,-41.533,3.2985,-35.384,44.114,-50.589
-42.596,-3.0589,2.7399,-25.591,-23.921,-11.78,22.331,-28.265,-5.8238,-22.981,22.698,-41.533,3.2985,-35.384,44.114,-50.589
-42.71,-3.0439,2.6939,-25.479,-24.103,-11.805,22.296,-28.214,-5.7172,-22.872,22.862,-41.379,3.3504,-35.305,44.262,-50.554
-42.71,-3.0439,2.6939,-25.479,-24.103,-11.805,22.296,-28.214,-5.7172,-22.872,22.862,-41.379,3.3504,-35.305,44.262,-50.554
-42.822,-3.0272,2.6478,-25.364,-24.286,-11.829,22.26,-28.162,-5.6113,-22.761,23.023,-41.223,3.4015,-35.223,44.407,-50.514
-42.934,-3.0089,2.6016,-25.247,-24.468,-11.85,22.222,-28.106,-5.506,-22.648,23.183,-41.064,3.4517,-35.139,44.549,-50.472
-42.934,-3.0089,2.6016,-25.247,-24.468,-11.85,22.222,-28.106,-5.506,-22.648,23.183,-41.064,3.4517,-35.139,44.549,-50.472
-43.044,-2.9889,2.5553,-25.128,-24.649,-11.87,22.184,-28.048,-5.4013,-22.533,23.34,-40.902,3.501,-35.053,44.69,-50.426
-43.044,-2.9889,2.5553,-25.128,-24.649,-11.87,22.184,-28.048,-5.4013,-22.533,23.34,-40.902,3.501,-35.053,44.69,-50.426
-43.154,-2.9672,2.5089,-25.007,-24.831,-11.887,22.143,-27.988,-5.2973,-22.417,23.495,-40.737,3.5494,-34.964,44.828,-50.377
-43.154,-2.9672,2.5089,-25.007,-24.831,-11.887,22.143,-27.988,-5.2973,-22.417,23.495,-40.737,3.5494,-34.964,44.828,-50.377
-43.262,-2.9439,2.4624,-24.883,-25.012,-11.903,22.101,-27.925,-5.194,-22.299,23.649,-40.569,3.5969,-34.872,44.964,-50.325
-43.37,-2.9189,2.4157,-24.757,-25.194,-11.917,22.058,-27.859,-5.0913,-22.179,23.8,-40.399,3.6435,-34.778,45.098,-50.269
-43.37,-2.9189,2.4157,-24.757,-25.194,-11.917,22.058,-27.859,-5.0913,-22.179,23.8,-40.399,3.6435,-34.778,45.098,-50.269
-43.37,-2.9189,2.4157,-24.757,-25.194,-11.917,22.058,-27.859,-5.0913,-22.179,23.8,-40.399,3.6435,-34.778,45.098,-50.269
-43.476,-2.8924,2.3689,-24.63,-25.375,-11.93,22.014,-27.791,-4.9893,-22.057,23.949,-40.225,3.6892,-34.682,45.23,-50.21
-43.476,-2.8924,2.3689,-24.63,-25.375,-11.93,22.014,-27.791,-4.9893,-22.057,23.949,-40.225,3.6892,-34.682,45.23,-50.21
-43.582,-2.8642,2.322,-24.499,-25.555,-11.94,21.968,-27.72,-4.8881,-21.934,24.097,-40.048,3.734,-34.583,45.359,-50.148
-43.582,-2.8642,2.322,-24.499,-25.555,-11.94,21.968,-27.72,-4.8881,-21.934,24.097,-40.048,3.734,-34.583,45.359,-50.148
-43.582,-2.8642,2.322,-24.499,-25.555,-11.94,21.968,-27.72,-4.8881,-21.934,24.097,-40.048,3.734,-34.583,45.359,-50.148
-43.687,-2.8344,2.2749,-24.367,-25.736,-11.949,21.92,-27.647,-4.7875,-21.809,24.242,-39.869,3.7779,-34.481,45.487,-50.083
-43.687,-2.8344,2.2749,-24.367,-25.736,-11.949,21.92,-27.647,-4.7875,-21.809,24.242,-39.869,3.7779,-34.481,45.487,-50.083
-43.687,-2.8344,2.2749,-24.367,-25.736,-11.949,21.92,-27.647,-4.7875,-21.809,24.242,-39.869,3.7779,-34.481,45.487,-50.083
-43.893,-2.77,2.1802,-24.096,-26.096,-11.962,21.822,-27.492,-4.5886,-21.553,24.527,-39.501,3.8628,-34.271,45.734,-49.943
-43.893,-2.77,2.1802,-24.096,-26.096,-11.962,21.822,-27.492,-4.5886,-21.553,24.527,-39.501,3.8628,-34.271,45.734,-49.943
-43.893,-2.77,2.1802,-24.096,-26.096,-11.962,21.822,-27.492,-4.5886,-21.553,24.527,-39.501,3.8628,-34.271,45.734,-49.943
-43.995,-2.7355,2.1326,-23.957,-26.276,-11.965,21.77,-27.411,-4.4903,-21.423,24.666,-39.313,3.9038,-34.162,45.854,-49.868
-43.995,-2.7355,2.1326,-23.957,-26.276,-11.965,21.77,-27.411,-4.4903,-21.423,24.666,-39.313,3.9038,-34.162,45.854,-49.868
-44.096,-2.6994,2.0848,-23.816,-26.456,-11.967,21.717,-27.328,-4.3927,-21.291,24.803,-39.122,3.9439,-34.051,45.972,-49.79
-44.195,-2.6617,2.0368,-23.673,-26.635,-11.967,21.663,-27.241,-4.2959,-21.158,24.938,-38.928,3.983,-33.937,46.087,-49.708
-44.195,-2.6617,2.0368,-23.673,-26.635,-11.967,21.663,-27.241,-4.2959,-21.158,24.938,-38.928,3.983,-33.937,46.087,-49.708
-44.294,-2.6225,1.9886,-23.528,-26.814,-11.965,21.607,-27.153,-4.1998,-21.023,25.071,-38.732,4.0211,-33.822,46.201,-49.624
-44.294,-2.6225,1.9886,-23.528,-26.814,-11.965,21.607,-27.153,-4.1998,-21.023,25.071,-38.732,4.0211,-33.822,46.201,-49.624
-44.392,-2.5818,1.9403,-23.381,-26.994,-11.962,21.55,-27.061,-4.1046,-20.886,25.202,-38.532,4.0582,-33.703,46.311,-49.536
-44.392,-2.5818,1.9403,-23.381,-26.994,-11.962,21.55,-27.061,-4.1046,-20.886,25.202,-38.532,4.0582,-33.703,46.311,-49.536
-44.49,-2.5395,1.8917,-23.232,-27.172,-11.957,21.491,-26.968,-4.0102,-20.748,25.331,-38.33,4.0944,-33.583,46.42,-49.445
-44.49,-2.5395,1.8917,-23.232,-27.172,-11.957,21.491,-26.968,-4.0102,-20.748,25.331,-38.33,4.0944,-33.583,46.42,-49.445
-44.49,-2.5395,1.8917,-23.232,-27.172,-11.957,21.491,-26.968,-4.0102,-20.748,25.331,-38.33,4.0944,-33.583,46.42,-49.445
-44.586,-2.4958,1.8429,-23.08,-27.351,-11.95,21.431,-26.871,-3.9166,-20.608,25.457,-38.125,4.1295,-33.46,46.526,-49.351
-44.681,-2.4505,1.7938,-22.927,-27.529,-11.942,21.37,-26.773,-3.8238,-20.467,25.582,-37.918,4.1637,-33.335,46.63,-49.254
-44.681,-2.4505,1.7938,-22.927,-27.529,-11.942,21.37,-26.773,-3.8238,-20.467,25.582,-37.918,4.1637,-33.335,46.63,-49.254
-44.776,-2.4038,1.7446,-22.771,-27.708,-11.932,21.307,-26.671,-3.7318,-20.324,25.705,-37.707,4.1968,-33.207,46.731,-49.154
-44.776,-2.4038,1.7446,-22.771,-27.708,-11.932,21.307,-26.671,-3.7318,-20.324,25.705,-37.707,4.1968,-33.207,46.731,-49.154
-44.776,-2.4038,1.7446,-22.771,-27.708,-11.932,21.307,-26.671,-3.7318,-20.324,25.705,-37.707,4.1968,-33.207,46.731,-49.154
-44.869,-2.3556,1.6951,-22.614,-27.885,-11.92,21.243,-26.567,-3.6407,-20.179,25.825,-37.494,4.229,-33.078,46.83,-49.051
-44.869,-2.3556,1.6951,-22.614,-27.885,-11.92,21.243,-26.567,-3.6407,-20.179,25.825,-37.494,4.229,-33.078,46.83,-49.051
-44.962,-2.3059,1.6453,-22.454,-28.063,-11.907,21.177,-26.461,-3.5505,-20.033,25.943,-37.278,4.2601,-32.946,46.926,-48.945
-44.962,-2.3059,1.6453,-22.454,-28.063,-11.907,21.177,-26.461,-3.5505,-20.033,25.943,-37.278,4.2601,-32.946,46.926,-48.945
-45.054,-2.2548,1.5953,-22.292,-28.241,-11.892,21.111,-26.352,-3.4611,-19.886,26.06,-37.06,4.2901,-32.812,47.02,-48.835
-45.054,-2.2548,1.5953,-22.292,-28.241,-11.892,21.111,-26.352,-3.4611,-19.886,26.06,-37.06,4.2901,-32.812,47.02,-48.835
-45.145,-2.2022,1.545,-22.129,-28.418,-11.875,21.042,-26.241,-3.3726,-19.737,26.174,-36.839,4.3192,-32.675,47.111,-48.723
-45.145,-2.2022,1.545,-22.129,-28.418,-11.875,21.042,-26.241,-3.3726,-19.737,26.174,-36.839,4.3192,-32.675,47.111,-48.723
-45.235,-2.1483,1.4945,-21.963,-28.595,-11.857,20.972,-26.127,-3.285,-19.586,26.286,-36.615,4.3471,-32.537,47.2,-48.607
-45.235,-2.1483,1.4945,-21.963,-28.595,-11.857,20.972,-26.127,-3.285,-19.586,26.286,-36.615,4.3471,-32.537,47.2,-48.607
-45.235,-2.1483,1.4945,-21.963,-28.595,-11.857,20.972,-26.127,-3.285,-19.586,26.286,-36.615,4.3471,-32.537,47.2,-48.607
-45.413,-2.0361,1.3926,-21.626,-28.949,-11.816,20.829,-25.892,-3.1125,-19.281,26.504,-36.16,4.3999,-32.253,47.371,-48.367
-45.413,-2.0361,1.3926,-21.626,-28.949,-11.816,20.829,-25.892,-3.1125,-19.281,26.504,-36.16,4.3999,-32.253,47.371,-48.367
-45.413,-2.0361,1.3926,-21.626,-28.949,-11.816,20.829,-25.892,-3.1125,-19.281,26.504,-36.16,4.3999,-32.253,47.371,-48.367
-45.501,-1.9779,1.3412,-21.454,-29.125,-11.793,20.755,-25.771,-3.0276,-19.126,26.609,-35.928,4.4247,-32.108,47.452,-48.243
-45.588,-1.9184,1.2895,-21.28,-29.302,-11.768,20.679,-25.647,-2.9437,-18.97,26.713,-35.694,4.4485,-31.961,47.531,-48.115
-45.588,-1.9184,1.2895,-21.28,-29.302,-11.768,20.679,-25.647,-2.9437,-18.97,26.713,-35.694,4.4485,-31.961,47.531,-48.115
-45.674,-1.8575,1.2375,-21.105,-29.478,-11.742,20.602,-25.521,-2.8606,-18.813,26.814,-35.457,4.4711,-31.812,47.608,-47.985
-45.674,-1.8575,1.2375,-21.105,-29.478,-11.742,20.602,-25.521,-2.8606,-18.813,26.814,-35.457,4.4711,-31.812,47.608,-47.985
-45.759,-1.7953,1.1852,-20.927,-29.654,-11.715,20.524,-25.392,-2.7786,-18.654,26.914,-35.218,4.4927,-31.661,47.682,-47.851
-45.759,-1.7953,1.1852,-20.927,-29.654,-11.715,20.524,-25.392,-2.7786,-18.654,26.914,-35.218,4.4927,-31.661,47.682,-47.851
-45.844,-1.7317,1.1326,-20.748,-29.829,-11.685,20.445,-25.261,-2.6975,-18.494,27.011,-34.976,4.5131,-31.508,47.753,-47.715
-45.844,-1.7317,1.1326,-20.748,-29.829,-11.685,20.445,-25.261,-2.6975,-18.494,27.011,-34.976,4.5131,-31.508,47.753,-47.715
-45.844,-1.7317,1.1326,-20.748,-29.829,-11.685,20.445,-25.261,-2.6975,-18.494,27.011,-34.976,4.5131,-31.508,47.753,-47.715
-45.927,-1.6668,1.0796,-20.567,-30.005,-11.655,20.364,-25.128,-2.6174,-18.332,27.106,-34.732,4.5325,-31.353,47.822,-47.576
-46.01,-1.6006,1.0263,-20.384,-30.18,-11.623,20.281,-24.992,-2.5382,-18.169,27.199,-34.485,4.5507,-31.195,47.889,-47.434
-46.01,-1.6006,1.0263,-20.384,-30.18,-11.623,20.281,-24.992,-2.5382,-18.169,27.199,-34.485,4.5507,-31.195,47.889,-47.434
-46.092,-1.5331,0.97266,-20.199,-30.355,-11.589,20.198,-24.854,-2.4601,-18.005,27.29,-34.236,4.5679,-31.036,47.952,-47.289
-46.092,-1.5331,0.97266,-20.199,-30.355,-11.589,20.198,-24.854,-2.4601,-18.005,27.29,-34.236,4.5679,-31.036,47.952,-47.289
-46.174,-1.4643,0.91867,-20.012,-30.53,-11.554,20.112,-24.713,-2.3829,-17.84,27.378,-33.984,4.5839,-30.875,48.014,-47.141
-46.174,-1.4643,0.91867,-20.012,-30.53,-11.554,20.112,-24.713,-2.3829,-17.84,27.378,-33.984,4.5839,-30.875,48.014,-47.141
-46.255,-1.3943,0.86433,-19.823,-30.704,-11.517,20.026,-24.57,-2.3068,-17.673,27.465,-33.73,4.5988,-30.712,48.072,-46.99
-46.255,-1.3943,0.86433,-19.823,-30.704,-11.517,20.026,-24.57,-2.3068,-17.673,27.465,-33.73,4.5988,-30.712,48.072,-46.99
-46.255,-1.3943,0.86433,-19.823,-30.704,-11.517,20.026,-24.57,-2.3068,-17.673,27.465,-33.73,4.5988,-30.712,48.072,-46.99
-46.335,-1.323,0.80962,-19.633,-30.879,-11.479,19.938,-24.425,-2.2317,-17.505,27.549,-33.474,4.6125,-30.547,48.128,-46.836
-46.335,-1.323,0.80962,-19.633,-30.879,-11.479,19.938,-24.425,-2.2317,-17.505,27.549,-33.474,4.6125,-30.547,48.128,-46.836
-46.414,-1.2505,0.75454,-19.44,-31.053,-11.439,19.849,-24.277,-2.1576,-17.336,27.631,-33.215,4.6251,-30.38,48.182,-46.68
-46.414,-1.2505,0.75454,-19.44,-31.053,-11.439,19.849,-24.277,-2.1576,-17.336,27.631,-33.215,4.6251,-30.38,48.182,-46.68
-46.492,-1.1768,0.69908,-19.246,-31.227,-11.398,19.758,-24.127,-2.0845,-17.166,27.711,-32.953,4.6366,-30.211,48.233,-46.521
-46.57,-1.1018,0.64323,-19.05,-31.4,-11.356,19.666,-23.975,-2.0125,-16.995,27.789,-32.69,4.6469,-30.041,48.281,-46.359
-46.57,-1.1018,0.64323,-19.05,-31.4,-11.356,19.666,-23.975,-2.0125,-16.995,27.789,-32.69,4.6469,-30.041,48.281,-46.359
-46.647,-1.0257,0.58699,-18.853,-31.574,-11.312,19.572,-23.82,-1.9416,-16.822,27.865,-32.424,4.6561,-29.868,48.327,-46.195
