11095,54.3,19.985,0,0.011662,0,11315,50.837,0,0,0,0,0.0077672,1
11095,54.3,19.985,0,0.011662,0,11315,50.837,0,0,0,0,0.0077672,1
11095,54.3,19.985,0,0.011662,0,11315,50.837,0,0,0,0,0.0077672,1
11095,54.3,19.985,0,0.011662,0,11315,50.837,0,0,0,0,0.0077672,1
11095,54.3,19.985,0,0.011662,0,11315,50.837,0,0,0,0,0.0077672,1
11097,54.3,19.986,0,0.0091515,0,11315,50.837,0,0,0,0,0.0078385,1
11099,54.3,19.986,0,0.0077075,0,11315,50.837,0,0,0,0,0.007882,1
11099,54.3,19.986,0,0.0077075,0,11315,50.837,0,0,0,0,0.007882,1
11099,54.3,19.986,0,0.0077075,0,11315,50.837,0,0,0,0,0.007882,1
11100,54.3,19.987,0,0.0063102,0,11315,50.837,0,0,0,0,0.0079259,1
11100,54.3,19.987,0,0.0063102,0,11315,50.837,0,0,0,0,0.0079259,1
11100,54.3,19.987,0,0.0063102,0,11315,50.837,0,0,0,0,0.0079259,1
11100,54.3,19.987,0,0.0063102,0,11315,50.837,0,0,0,0,0.0079259,1
11100,54.3,19.987,0,0.0063102,0,11315,50.837,0,0,0,0,0.0079259,1
11100,54.3,19.987,0,0.0063102,0,11315,50.837,0,0,0,0,0.0079259,1
11100,54.3,19.987,0,0.0063102,0,11315,50.837,0,0,0,0,0.0079259,1
11100,54.3,19.987,0,0.0063102,0,11315,50.837,0,0,0,0,0.0079259,1
11100,54.3,19.987,0,0.0063102,0,11315,50.837,0,0,0,0,0.0079259,1
11100,54.3,19.987,0,0.0063102,0,11315,50.837,0,0,0,0,0.0079259,1
11101,54.3,19.987,0,0.0054021,0,11315,50.837,0,0,0,0,0.0079555,1
11101,54.3,19.987,0,0.0054021,0,11315,50.837,0,0,0,0,0.0079555,1
11101,54.3,19.987,0,0.0049549,0,11315,50.837,0,0,0,0,0.0079703,1
11101,54.3,19.987,0,0.0049549,0,11315,50.837,0,0,0,0,0.0079703,1
11101,54.3,19.987,0,0.0049549,0,11315,50.837,0,0,0,0,0.0079703,1
11101,54.3,19.987,0,0.0049549,0,11315,50.837,0,0,0,0,0.0079703,1
11101,54.3,19.987,0,0.0049549,0,11315,50.837,0,0,0,0,0.0079703,1
11101,54.3,19.987,0,0.0049549,0,11315,50.837,0,0,0,0,0.0079703,1
11101,54.3,19.987,0,0.0049549,0,11315,50.837,0,0,0,0,0.0079703,1
11101,54.3,19.987,0,0.0049549,0,11315,50.837,0,0,0,0,0.0079703,1
11101,54.3,19.987,0,0.0049549,0,11315,50.837,0,0,0,0,0.0079703,1
11101,54.3,19.987,0,0.0049549,0,11315,50.837,0,0,0,0,0.0079703,1
11103,54.3,19.987,0,0.0032133,0,11315,50.837,0,0,0,0,0.0080304,1
11103,54.3,19.987,0,0.0032133,0,11315,50.837,0,0,0,0,0.0080304,1
11103,54.3,19.988,0,0.0023698,0,11315,50.837,0,0,0,0,0.0080607,1
11104,54.3,19.988,0,0.001955,0,11315,50.837,0,0,0,0,0.008076,1
11104,54.3,19.988,0,0.001955,0,11315,50.837,0,0,0,0,0.008076,1
11104,54.3,19.988,0,0.001955,0,11315,50.837,0,0,0,0,0.008076,1
11104,54.3,19.988,0,0.001955,0,11315,50.837,0,0,0,0,0.008076,1
11104,54.3,19.988,0,0.001955,0,11315,50.837,0,0,0,0,0.008076,1
11104,54.3,19.988,0,0.001955,0,11315,50.837,0,0,0,0,0.008076,1
11104,54.3,19.988,0,0.001955,0,11315,50.837,0,0,0,0,0.008076,1
11104,54.3,19.988,0,0.001955,0,11315,50.837,0,0,0,0,0.008076,1
11104,54.3,19.988,0,0.001955,0,11315,50.837,0,0,0,0,0.008076,1
11104,54.3,19.988,0,0.001955,0,11315,50.837,0,0,0,0,0.008076,1
11106,54.3,19.988,0,-0.00013846,0,11315,50.837,0,0,0,0,0.0081531,1
11106,54.3,19.988,0,-0.00013846,0,11315,50.837,0,0,0,0,0.0081531,1
11106,54.3,19.988,0,-0.00013846,0,11315,50.837,0,0,0,0,0.0081531,1
11106,54.3,19.988,0,-0.00013846,0,11315,50.837,0,0,0,0,0.0081531,1
11106,54.3,19.988,0,-0.00013846,0,11315,50.837,0,0,0,0,0.0081531,1
11106,54.3,19.988,0,-0.00013846,0,11315,50.837,0,0,0,0,0.0081531,1
11106,54.3,19.988,0,-0.00013846,0,11315,50.837,0,0,0,0,0.0081531,1
11106,54.3,19.988,0,-0.00013846,0,11315,50.837,0,0,0,0,0.0081531,1
11106,54.3,19.988,0,-0.00013846,0,11315,50.837,0,0,0,0,0.0081531,1
11106,54.3,19.988,0,-0.00013846,0,11315,50.837,0,0,0,0,0.0081531,1
11106,54.3,19.988,0,-0.00013846,0,11315,50.837,0,0,0,0,0.0081531,1
11106,54.3,19.988,0,-0.00013846,0,11315,50.837,0,0,0,0,0.0081531,1
11106,54.3,19.988,0,-0.00013846,0,11315,50.837,0,0,0,0,0.0081531,1
11107,54.3,19.988,0,-0.0019683,0,11315,50.837,0,0,0,0,0.0081844,1
11107,54.3,19.988,0,-0.0019683,0,11315,50.837,0,0,0,0,0.0081844,1
11107,54.3,19.988,0,-0.0019683,0,11315,50.837,0,0,0,0,0.0081844,1
11108,54.3,19.987,0,-0.005387,0,11315,50.837,0,0,0,0,0.0082477,1
11110,54.3,19.987,0,-0.0091558,0,11315,50.837,0,0,0,0,0.0083282,1
11110,54.3,19.987,0,-0.0091558,0,11315,50.837,0,0,0,0,0.0083282,1
11110,54.3,19.987,0,-0.0091558,0,11315,50.837,0,0,0,0,0.0083282,1
11110,54.3,19.987,0,-0.0091558,0,11315,50.837,0,0,0,0,0.0083282,1
11110,54.3,19.987,0,-0.0091558,0,11315,50.837,0,0,0,0,0.0083282,1
11111,54.3,19.986,0,-0.011177,0,11315,50.837,0,0,0,0,0.0083773,1
11111,54.3,19.986,0,-0.011177,0,11315,50.837,0,0,0,0,0.0083773,1
11111,54.3,19.986,0,-0.011177,0,11315,50.837,0,0,0,0,0.0083773,1
11111,54.3,19.986,0,-0.011177,0,11315,50.837,0,0,0,0,0.0083773,1
11111,54.3,19.986,0,-0.011177,0,11315,50.837,0,0,0,0,0.0083773,1
11111,54.3,19.986,0,-0.011177,0,11315,50.837,0,0,0,0,0.0083773,1
11111,54.3,19.986,0,-0.011177,0,11315,50.837,0,0,0,0,0.0083773,1
11112,54.3,19.986,0,-0.011814,0,11315,50.837,0,0,0,0,0.0083938,1
11112,54.3,19.986,0,-0.011814,0,11315,50.837,0,0,0,0,0.0083938,1
11112,54.3,19.985,0,-0.012434,0,11315,50.837,0,0,0,0,0.0084103,1
11112,54.3,19.985,0,-0.012434,0,11315,50.837,0,0,0,0,0.0084103,1
11112,54.3,19.985,0,-0.012434,0,11315,50.837,0,0,0,0,0.0084103,1
11112,54.3,19.985,0,-0.012434,0,11315,50.837,0,0,0,0,0.0084103,1
11112,54.3,19.985,0,-0.012434,0,11315,50.837,0,0,0,0,0.0084103,1
11112,54.3,19.985,0,-0.012434,0,11315,50.837,0,0,0,0,0.0084103,1
11112,54.3,19.985,0,-0.012434,0,11315,50.837,0,0,0,0,0.0084103,1
11112,54.3,19.985,0,-0.012434,0,11315,50.837,0,0,0,0,0.0084103,1
11112,54.3,19.985,0,-0.012434,0,11315,50.837,0,0,0,0,0.0084103,1
11114,54.3,19.984,0,-0.014751,0,11315,50.837,0,0,0,0,0.0084772,1
11114,54.3,19.984,0,-0.014751,0,11315,50.837,0,0,0,0,0.0084772,1
11114,54.3,19.984,0,-0.014751,0,11315,50.837,0,0,0,0,0.0084772,1
11114,54.3,19.984,0,-0.015293,0,11315,50.837,0,0,0,0,0.0084941,1
11115,54.3,19.984,0,-0.015819,0,11315,50.837,0,0,0,0,0.008511,1
11115,54.3,19.984,0,-0.015819,0,11315,50.837,0,0,0,0,0.008511,1
11115,54.3,19.984,0,-0.015819,0,11315,50.837,0,0,0,0,0.008511,1
11115,54.3,19.984,0,-0.015819,0,11315,50.837,0,0,0,0,0.008511,1
11115,54.3,19.984,0,-0.015819,0,11315,50.837,0,0,0,0,0.008511,1
11115,54.3,19.984,0,-0.015819,0,11315,50.837,0,0,0,0,0.008511,1
11115,54.3,19.984,0,-0.015819,0,11315,50.837,0,0,0,0,0.008511,1
11116,54.3,19.982,0,-0.017791,0,11315,50.837,0,0,0,0,0.0085795,1
11116,54.3,19.982,0,-0.017791,0,11315,50.837,0,0,0,0,0.0085795,1
11116,54.3,19.982,0,-0.017791,0,11315,50.837,0,0,0,0,0.0085795,1
11116,54.3,19.982,0,-0.017791,0,11315,50.837,0,0,0,0,0.0085795,1
11116,54.3,19.982,0,-0.017791,0,11315,50.837,0,0,0,0,0.0085795,1
11116,54.3,19.982,0,-0.017791,0,11315,50.837,0,0,0,0,0.0085795,1
11116,54.3,19.982,0,-0.017791,0,11315,50.837,0,0,0,0,0.0085795,1
11116,54.3,19.982,0,-0.017791,0,11315,50.837,0,0,0,0,0.0085795,1
11116,54.3,19.982,0,-0.017791,0,11315,50.837,0,0,0,0,0.0085795,1
11116,54.3,19.982,0,-0.017791,0,11315,50.837,0,0,0,0,0.0085795,1
11116,54.3,19.982,0,-0.017791,0,11315,50.837,0,0,0,0,0.0085795,1
11116,54.3,19.982,0,-0.017791,0,11315,50.837,0,0,0,0,0.0085795,1
11116,54.3,19.982,0,-0.017791,0,11315,50.837,0,0,0,0,0.0085795,1
11118,54.3,19.981,0,-0.019984,0,11315,50.837,0,0,0,0,0.0086666,1
11118,54.3,19.981,0,-0.019984,0,11315,50.837,0,0,0,0,0.0086666,1
11118,54.3,19.981,0,-0.019984,0,11315,50.837,0,0,0,0,0.0086666,1
11118,54.3,19.981,0,-0.019984,0,11315,50.837,0,0,0,0,0.0086666,1
11118,54.3,19.981,0,-0.019984,0,11315,50.837,0,0,0,0,0.0086666,1
11118,54.3,19.981,0,-0.019984,0,11315,50.837,0,0,0,0,0.0086666,1
11118,54.3,19.981,0,-0.019984,0,11315,50.837,0,0,0,0,0.0086666,1
11118,54.3,19.981,0,-0.019984,0,11315,50.837,0,0,0,0,0.0086666,1
11120,54.3,19.979,0,-0.021543,0,11315,50.837,0,0,0,0,0.0087376,1
11121,54.3,19.978,0,-0.022265,0,11315,50.837,0,0,0,0,0.0087735,1
11121,54.3,19.978,0,-0.022612,0,11315,50.837,0,0,0,0,0.0087916,1
11122,54.3,19.976,0,-0.023603,0,11315,50.837,0,0,0,0,0.0088462,1
11122,54.3,19.976,0,-0.023603,0,11315,50.837,0,0,0,0,0.0088462,1
11122,54.3,19.976,0,-0.023603,0,11315,50.837,0,0,0,0,0.0088462,1
11123,54.3,19.976,0,-0.023918,0,11315,50.837,0,0,0,0,0.0088646,1
11123,54.3,19.976,0,-0.023918,0,11315,50.837,0,0,0,0,0.0088646,1
11123,54.3,19.976,0,-0.023918,0,11315,50.837,0,0,0,0,0.0088646,1
11123,54.3,19.976,0,-0.023918,0,11315,50.837,0,0,0,0,0.0088646,1
11123,54.3,19.976,0,-0.023918,0,11315,50.837,0,0,0,0,0.0088646,1
11123,54.3,19.976,0,-0.023918,0,11315,50.837,0,0,0,0,0.0088646,1
11123,54.3,19.976,0,-0.023918,0,11315,50.837,0,0,0,0,0.0088646,1
11123,54.3,19.976,0,-0.023918,0,11315,50.837,0,0,0,0,0.0088646,1
11123,54.3,19.976,0,-0.023918,0,11315,50.837,0,0,0,0,0.0088646,1
11123,54.3,19.976,0,-0.023918,0,11315,50.837,0,0,0,0,0.0088646,1
11123,54.3,19.976,0,-0.023918,0,11315,50.837,0,0,0,0,0.0088646,1
11123,54.3,19.976,0,-0.023918,0,11315,50.837,0,0,0,0,0.0088646,1
11123,54.3,19.976,0,-0.023918,0,11315,50.837,0,0,0,0,0.0088646,1
11123,54.3,19.976,0,-0.023918,0,11315,50.837,0,0,0,0,0.0088646,1
11123,54.3,19.976,0,-0.023918,0,11315,50.837,0,0,0,0,0.0088646,1
11123,54.3,19.976,0,-0.023918,0,11315,50.837,0,0,0,0,0.0088646,1
11123,54.3,19.976,0,-0.023918,0,11315,50.837,0,0,0,0,0.0088646,1
11123,54.3,19.976,0,-0.023918,0,11315,50.837,0,0,0,0,0.0088646,1
11123,54.3,19.976,0,-0.023918,0,11315,50.837,0,0,0,0,0.0088646,1
11123,54.3,19.975,0,-0.024525,0,11315,50.837,0,0,0,0,0.0089016,1
11123,54.3,19.975,0,-0.024525,0,11315,50.837,0,0,0,0,0.0089016,1
11124,54.3,19.974,0,-0.024818,0,11315,50.837,0,0,0,0,0.0089202,1
11124,54.3,19.974,0,-0.024818,0,11315,50.837,0,0,0,0,0.0089202,1
11124,54.3,19.974,0,-0.024818,0,11315,50.837,0,0,0,0,0.0089202,1
11127,54.3,19.97,0,-0.027153,0,11315,50.837,0,0,0,0,0.0090911,1
11127,54.3,19.97,0,-0.027153,0,11315,50.837,0,0,0,0,0.0090911,1
11128,54.3,19.969,0,-0.027383,0,11315,50.837,0,0,0,0,0.0091105,1
11128,54.3,19.969,0,-0.027383,0,11315,50.837,0,0,0,0,0.0091105,1
11128,54.3,19.969,0,-0.027383,0,11315,50.837,0,0,0,0,0.0091105,1
11128,54.3,19.969,0,-0.027383,0,11315,50.837,0,0,0,0,0.0091105,1
11128,54.3,19.969,0,-0.027383,0,11315,50.837,0,0,0,0,0.0091105,1
11128,54.3,19.969,0,-0.027383,0,11315,50.837,0,0,0,0,0.0091105,1
11128,54.3,19.969,0,-0.027383,0,11315,50.837,0,0,0,0,0.0091105,1
11128,54.3,19.969,0,-0.027383,0,11315,50.837,0,0,0,0,0.0091105,1
11128,54.3,19.968,0,-0.02761,0,11315,50.837,0,0,0,0,0.00913,1
11128,54.3,19.968,0,-0.02761,0,11315,50.837,0,0,0,0,0.00913,1
11128,54.3,19.968,0,-0.02761,0,11315,50.837,0,0,0,0,0.00913,1
11128,54.3,19.968,0,-0.02761,0,11315,50.837,0,0,0,0,0.00913,1
11128,54.3,19.968,0,-0.02761,0,11315,50.837,0,0,0,0,0.00913,1
11128,54.3,19.968,0,-0.02761,0,11315,50.837,0,0,0,0,0.00913,1
11128,54.3,19.968,0,-0.02761,0,11315,50.837,0,0,0,0,0.00913,1
11129,54.3,19.968,0,-0.02783,0,11315,50.837,0,0,0,0,0.0091496,1
11129,54.3,19.968,0,-0.02783,0,11315,50.837,0,0,0,0,0.0091496,1
11129,54.3,19.967,0,-0.028047,0,11315,50.837,0,0,0,0,0.0091692,1
11129,54.3,19.967,0,-0.028047,0,11315,50.837,0,0,0,0,0.0091692,1
11131,54.3,19.964,0,-0.029242,0,11315,50.837,0,0,0,0,0.0092889,1
11132,54.3,19.963,0,-0.029606,0,11315,50.837,0,0,0,0,0.0093295,1
11132,54.3,19.963,0,-0.029606,0,11315,50.837,0,0,0,0,0.0093295,1
11132,54.3,19.963,0,-0.029606,0,11315,50.837,0,0,0,0,0.0093295,1
11132,54.3,19.963,0,-0.029606,0,11315,50.837,0,0,0,0,0.0093295,1
11132,54.3,19.963,0,-0.029606,0,11315,50.837,0,0,0,0,0.0093295,1
11132,54.3,19.963,0,-0.029606,0,11315,50.837,0,0,0,0,0.0093295,1
11132,54.3,19.963,0,-0.029606,0,11315,50.837,0,0,0,0,0.0093295,1
11132,54.3,19.963,0,-0.029606,0,11315,50.837,0,0,0,0,0.0093295,1
11132,54.3,19.963,0,-0.029606,0,11315,50.837,0,0,0,0,0.0093295,1
11132,54.3,19.963,0,-0.029606,0,11315,50.837,0,0,0,0,0.0093295,1
11132,54.3,19.963,0,-0.029606,0,11315,50.837,0,0,0,0,0.0093295,1
11132,54.3,19.963,0,-0.029606,0,11315,50.837,0,0,0,0,0.0093295,1
11132,54.3,19.963,0,-0.029606,0,11315,50.837,0,0,0,0,0.0093295,1
11132,54.3,19.963,0,-0.029606,0,11315,50.837,0,0,0,0,0.0093295,1
11132,54.3,19.963,0,-0.029606,0,11315,50.837,0,0,0,0,0.0093295,1
11132,54.3,19.963,0,-0.029606,0,11315,50.837,0,0,0,0,0.0093295,1
11132,54.3,19.963,0,-0.029606,0,11315,50.837,0,0,0,0,0.0093295,1
11133,54.3,19.962,0,-0.029955,0,11315,50.837,0,0,0,0,0.0093704,1
11133,54.3,19.962,0,-0.029955,0,11315,50.837,0,0,0,0,0.0093704,1
11133,54.3,19.962,0,-0.029955,0,11315,50.837,0,0,0,0,0.0093704,1
11133,54.3,19.962,0,-0.029955,0,11315,50.837,0,0,0,0,0.0093704,1
11133,54.3,19.962,0,-0.029955,0,11315,50.837,0,0,0,0,0.0093704,1
11133,54.3,19.962,0,-0.029955,0,11315,50.837,0,0,0,0,0.0093704,1
11133,54.3,19.962,0,-0.029955,0,11315,50.837,0,0,0,0,0.0093704,1
11134,54.3,19.96,0,-0.030457,0,11315,50.837,0,0,0,0,0.0094325,1
11134,54.3,19.96,0,-0.030457,0,11315,50.837,0,0,0,0,0.0094325,1
11135,54.3,19.958,0,-0.030926,0,11315,50.837,0,0,0,0,0.0094954,1
11135,54.3,19.958,0,-0.030926,0,11315,50.837,0,0,0,0,0.0094954,1
11137,54.3,19.955,0,-0.031653,0,11315,50.837,0,0,0,0,0.0096021,1
11138,54.3,19.954,0,-0.03179,0,11315,50.837,0,0,0,0,0.0096237,1
11138,54.3,19.954,0,-0.03179,0,11315,50.837,0,0,0,0,0.0096237,1
11138,54.3,19.953,0,-0.031925,0,11315,50.837,0,0,0,0,0.0096454,1
11138,54.3,19.953,0,-0.031925,0,11315,50.837,0,0,0,0,0.0096454,1
11138,54.3,19.953,0,-0.031925,0,11315,50.837,0,0,0,0,0.0096454,1
11138,54.3,19.953,0,-0.031925,0,11315,50.837,0,0,0,0,0.0096454,1
11138,54.3,19.953,0,-0.031925,0,11315,50.837,0,0,0,0,0.0096454,1
11138,54.3,19.953,0,-0.031925,0,11315,50.837,0,0,0,0,0.0096454,1
11138,54.3,19.953,0,-0.031925,0,11315,50.837,0,0,0,0,0.0096454,1
11138,54.3,19.953,0,-0.031925,0,11315,50.837,0,0,0,0,0.0096454,1
11138,54.3,19.953,0,-0.031925,0,11315,50.837,0,0,0,0,0.0096454,1
11138,54.3,19.953,0,-0.031925,0,11315,50.837,0,0,0,0,0.0096454,1
11138,54.3,19.953,0,-0.031925,0,11315,50.837,0,0,0,0,0.0096454,1
11138,54.3,19.953,0,-0.031925,0,11315,50.837,0,0,0,0,0.0096454,1
11138,54.3,19.953,0,-0.031925,0,11315,50.837,0,0,0,0,0.0096454,1
11138,54.3,19.953,0,-0.031925,0,11315,50.837,0,0,0,0,0.0096454,1
11138,54.3,19.953,0,-0.031925,0,11315,50.837,0,0,0,0,0.0096454,1
11138,54.3,19.953,0,-0.031925,0,11315,50.837,0,0,0,0,0.0096454,1
11138,54.3,19.953,0,-0.031925,0,11315,50.837,0,0,0,0,0.0096454,1
11139,54.3,19.952,0,-0.032186,0,11315,50.837,0,0,0,0,0.0096891,1
11139,54.3,19.952,0,-0.032186,0,11315,50.837,0,0,0,0,0.0096891,1
11139,54.3,19.952,0,-0.032315,0,11315,50.837,0,0,0,0,0.0097112,1
11141,54.3,19.949,0,-0.032802,0,11315,50.837,0,0,0,0,0.0098002,1
11141,54.3,19.949,0,-0.032802,0,11315,50.837,0,0,0,0,0.0098002,1
11141,54.3,19.949,0,-0.032802,0,11315,50.837,0,0,0,0,0.0098002,1
11141,54.3,19.949,0,-0.032802,0,11315,50.837,0,0,0,0,0.0098002,1
11141,54.3,19.949,0,-0.032802,0,11315,50.837,0,0,0,0,0.0098002,1
11141,54.3,19.949,0,-0.032802,0,11315,50.837,0,0,0,0,0.0098002,1
11141,54.3,19.949,0,-0.032802,0,11315,50.837,0,0,0,0,0.0098002,1
11141,54.3,19.949,0,-0.032802,0,11315,50.837,0,0,0,0,0.0098002,1
11141,54.3,19.949,0,-0.032802,0,11315,50.837,0,0,0,0,0.0098002,1
11141,54.3,19.949,0,-0.032802,0,11315,50.837,0,0,0,0,0.0098002,1
11141,54.3,19.949,0,-0.032802,0,11315,50.837,0,0,0,0,0.0098002,1
11141,54.3,19.949,0,-0.032802,0,11315,50.837,0,0,0,0,0.0098002,1
11143,54.3,19.945,0,-0.033476,0,11315,50.837,0,0,0,0,0.0099369,1
11143,54.3,19.945,0,-0.033476,0,11315,50.837,0,0,0,0,0.0099369,1
11143,54.3,19.945,0,-0.033476,0,11315,50.837,0,0,0,0,0.0099369,1
11143,54.3,19.945,0,-0.033476,0,11315,50.837,0,0,0,0,0.0099369,1
11143,54.3,19.945,0,-0.033476,0,11315,50.837,0,0,0,0,0.0099369,1
11143,54.3,19.945,0,-0.033476,0,11315,50.837,0,0,0,0,0.0099369,1
11143,54.3,19.945,0,-0.033476,0,11315,50.837,0,0,0,0,0.0099369,1
11143,54.3,19.945,0,-0.033476,0,11315,50.837,0,0,0,0,0.0099369,1
11144,54.3,19.944,0,-0.033689,0,11315,50.837,0,0,0,0,0.0099833,1
11145,54.3,19.943,0,-0.033791,0,11315,50.837,0,0,0,0,0.010007,1
11145,54.3,19.943,0,-0.033791,0,11315,50.837,0,0,0,0,0.010007,1
11146,54.3,19.941,0,-0.034089,0,11315,50.837,0,0,0,0,0.010077,1
11147,54.3,19.94,0,-0.034281,0,11315,50.837,0,0,0,0,0.010125,1
11147,54.3,19.94,0,-0.034281,0,11315,50.837,0,0,0,0,0.010125,1
11147,54.3,19.94,0,-0.034281,0,11315,50.837,0,0,0,0,0.010125,1
11147,54.3,19.938,0,-0.034468,0,11315,50.837,0,0,0,0,0.010173,1
11147,54.3,19.938,0,-0.034468,0,11315,50.837,0,0,0,0,0.010173,1
11147,54.3,19.938,0,-0.034468,0,11315,50.837,0,0,0,0,0.010173,1
11147,54.3,19.938,0,-0.034468,0,11315,50.837,0,0,0,0,0.010173,1
11147,54.3,19.938,0,-0.034468,0,11315,50.837,0,0,0,0,0.010173,1
11147,54.3,19.938,0,-0.034468,0,11315,50.837,0,0,0,0,0.010173,1
11147,54.3,19.938,0,-0.034468,0,11315,50.837,0,0,0,0,0.010173,1
11148,54.3,19.937,0,-0.03456,0,11315,50.837,0,0,0,0,0.010198,1
11148,54.3,19.937,0,-0.03456,0,11315,50.837,0,0,0,0,0.010198,1
11148,54.3,19.937,0,-0.03456,0,11315,50.837,0,0,0,0,0.010198,1
11148,54.3,19.937,0,-0.03456,0,11315,50.837,0,0,0,0,0.010198,1
11148,54.3,19.937,0,-0.03456,0,11315,50.837,0,0,0,0,0.010198,1
11148,54.3,19.937,0,-0.03456,0,11315,50.837,0,0,0,0,0.010198,1
11148,54.3,19.937,0,-0.03456,0,11315,50.837,0,0,0,0,0.010198,1
11148,54.3,19.937,0,-0.03456,0,11315,50.837,0,0,0,0,0.010198,1
11148,54.3,19.937,0,-0.03456,0,11315,50.837,0,0,0,0,0.010198,1
11148,54.3,19.937,0,-0.03456,0,11315,50.837,0,0,0,0,0.010198,1
11148,54.3,19.937,0,-0.03456,0,11315,50.837,0,0,0,0,0.010198,1
11148,54.3,19.937,0,-0.03456,0,11315,50.837,0,0,0,0,0.010198,1
11148,54.3,19.937,0,-0.03456,0,11315,50.837,0,0,0,0,0.010198,1
11150,54.3,19.934,0,-0.034999,0,11315,50.837,0,0,0,0,0.010321,1
11150,54.3,19.933,0,-0.035165,0,11315,50.837,0,0,0,0,0.010371,1
11152,54.3,19.93,0,-0.035413,0,11315,50.837,0,0,0,0,0.010447,1
11152,54.3,19.93,0,-0.035413,0,11315,50.837,0,0,0,0,0.010447,1
11152,54.3,19.93,0,-0.035413,0,11315,50.837,0,0,0,0,0.010447,1
11152,54.3,19.93,0,-0.035413,0,11315,50.837,0,0,0,0,0.010447,1
11152,54.3,19.93,0,-0.035413,0,11315,50.837,0,0,0,0,0.010447,1
11152,54.3,19.93,0,-0.035413,0,11315,50.837,0,0,0,0,0.010447,1
11152,54.3,19.93,0,-0.035413,0,11315,50.837,0,0,0,0,0.010447,1
11152,54.3,19.93,0,-0.035413,0,11315,50.837,0,0,0,0,0.010447,1
11152,54.3,19.93,0,-0.035413,0,11315,50.837,0,0,0,0,0.010447,1
11152,54.3,19.93,0,-0.035413,0,11315,50.837,0,0,0,0,0.010447,1
11152,54.3,19.93,0,-0.035413,0,11315,50.837,0,0,0,0,0.010447,1
11152,54.3,19.93,0,-0.035413,0,11315,50.837,0,0,0,0,0.010447,1
11152,54.3,19.93,0,-0.035413,0,11315,50.837,0,0,0,0,0.010447,1
11152,54.3,19.93,0,-0.035413,0,11315,50.837,0,0,0,0,0.010447,1
11152,54.3,19.93,0,-0.035413,0,11315,50.837,0,0,0,0,0.010447,1
11152,54.3,19.93,0,-0.035413,0,11315,50.837,0,0,0,0,0.010447,1
11153,54.3,19.928,0,-0.035649,0,11315,50.837,0,0,0,0,0.010524,1
11153,54.3,19.928,0,-0.035649,0,11315,50.837,0,0,0,0,0.010524,1
11153,54.3,19.928,0,-0.035649,0,11315,50.837,0,0,0,0,0.010524,1
11153,54.3,19.928,0,-0.035649,0,11315,50.837,0,0,0,0,0.010524,1
11153,54.3,19.928,0,-0.035649,0,11315,50.837,0,0,0,0,0.010524,1
11153,54.3,19.928,0,-0.035649,0,11315,50.837,0,0,0,0,0.010524,1
11153,54.3,19.928,0,-0.035649,0,11315,50.837,0,0,0,0,0.010524,1
11153,54.3,19.928,0,-0.035649,0,11315,50.837,0,0,0,0,0.010524,1
11153,54.3,19.928,0,-0.035649,0,11315,50.837,0,0,0,0,0.010524,1
11153,54.3,19.928,0,-0.035649,0,11315,50.837,0,0,0,0,0.010524,1
11153,54.3,19.928,0,-0.035649,0,11315,50.837,0,0,0,0,0.010524,1
11156,54.3,19.923,0,-0.036172,0,11315,50.837,0,0,0,0,0.010708,1
11157,54.3,19.92,0,-0.036454,0,11315,50.837,0,0,0,0,0.010816,1
11158,54.3,19.92,0,-0.036524,0,11315,50.837,0,0,0,0,0.010844,1
11158,54.3,19.919,0,-0.036591,0,11315,50.837,0,0,0,0,0.010871,1
11158,54.3,19.919,0,-0.036591,0,11315,50.837,0,0,0,0,0.010871,1
11158,54.3,19.919,0,-0.036591,0,11315,50.837,0,0,0,0,0.010871,1
11158,54.3,19.919,0,-0.036591,0,11315,50.837,0,0,0,0,0.010871,1
11158,54.3,19.919,0,-0.036591,0,11315,50.837,0,0,0,0,0.010871,1
11158,54.3,19.919,0,-0.036591,0,11315,50.837,0,0,0,0,0.010871,1
11158,54.3,19.919,0,-0.036591,0,11315,50.837,0,0,0,0,0.010871,1
11158,54.3,19.919,0,-0.036591,0,11315,50.837,0,0,0,0,0.010871,1
11158,54.3,19.919,0,-0.036591,0,11315,50.837,0,0,0,0,0.010871,1
11158,54.3,19.919,0,-0.036591,0,11315,50.837,0,0,0,0,0.010871,1
11158,54.3,19.919,0,-0.036591,0,11315,50.837,0,0,0,0,0.010871,1
11158,54.3,19.919,0,-0.036591,0,11315,50.837,0,0,0,0,0.010871,1
11158,54.3,19.919,0,-0.036591,0,11315,50.837,0,0,0,0,0.010871,1
11158,54.3,19.919,0,-0.036591,0,11315,50.837,0,0,0,0,0.010871,1
11158,54.3,19.919,0,-0.036591,0,11315,50.837,0,0,0,0,0.010871,1
11158,54.3,19.919,0,-0.036591,0,11315,50.837,0,0,0,0,0.010871,1
11158,54.3,19.919,0,-0.036591,0,11315,50.837,0,0,0,0,0.010871,1
11158,54.3,19.919,0,-0.036591,0,11315,50.837,0,0,0,0,0.010871,1
11158,54.3,19.919,0,-0.036591,0,11315,50.837,0,0,0,0,0.010871,1
11159,54.3,19.917,0,-0.036726,0,11315,50.837,0,0,0,0,0.010927,1
11159,54.3,19.917,0,-0.036726,0,11315,50.837,0,0,0,0,0.010927,1
11159,54.3,19.917,0,-0.036726,0,11315,50.837,0,0,0,0,0.010927,1
11159,54.3,19.917,0,-0.036726,0,11315,50.837,0,0,0,0,0.010927,1
11159,54.3,19.917,0,-0.036726,0,11315,50.837,0,0,0,0,0.010927,1
11159,54.3,19.917,0,-0.036726,0,11315,50.837,0,0,0,0,0.010927,1
11159,54.3,19.917,0,-0.036726,0,11315,50.837,0,0,0,0,0.010927,1
11160,54.3,19.915,0,-0.036989,0,11315,50.837,0,0,0,0,0.011039,1
11162,54.3,19.912,0,-0.037178,0,11315,50.837,0,0,0,0,0.011125,1
11163,54.3,19.909,0,-0.037423,0,11315,50.837,0,0,0,0,0.011242,1
11163,54.3,19.909,0,-0.037423,0,11315,50.837,0,0,0,0,0.011242,1
11163,54.3,19.909,0,-0.037423,0,11315,50.837,0,0,0,0,0.011242,1
11163,54.3,19.909,0,-0.037423,0,11315,50.837,0,0,0,0,0.011242,1
11163,54.3,19.909,0,-0.037423,0,11315,50.837,0,0,0,0,0.011242,1
11163,54.3,19.909,0,-0.037423,0,11315,50.837,0,0,0,0,0.011242,1
11163,54.3,19.909,0,-0.037423,0,11315,50.837,0,0,0,0,0.011242,1
11163,54.3,19.909,0,-0.037423,0,11315,50.837,0,0,0,0,0.011242,1
11163,54.3,19.909,0,-0.037423,0,11315,50.837,0,0,0,0,0.011242,1
11163,54.3,19.909,0,-0.037423,0,11315,50.837,0,0,0,0,0.011242,1
11163,54.3,19.909,0,-0.037423,0,11315,50.837,0,0,0,0,0.011242,1
11163,54.3,19.909,0,-0.037423,0,11315,50.837,0,0,0,0,0.011242,1
11164,54.3,19.907,0,-0.037604,0,11315,50.837,0,0,0,0,0.011332,1
11164,54.3,19.907,0,-0.037604,0,11315,50.837,0,0,0,0,0.011332,1
11164,54.3,19.907,0,-0.037604,0,11315,50.837,0,0,0,0,0.011332,1
11164,54.3,19.907,0,-0.037604,0,11315,50.837,0,0,0,0,0.011332,1
11164,54.3,19.907,0,-0.037604,0,11315,50.837,0,0,0,0,0.011332,1
11164,54.3,19.907,0,-0.037604,0,11315,50.837,0,0,0,0,0.011332,1
11164,54.3,19.907,0,-0.037604,0,11315,50.837,0,0,0,0,0.011332,1
11164,54.3,19.907,0,-0.037604,0,11315,50.837,0,0,0,0,0.011332,1
11164,54.3,19.907,0,-0.037604,0,11315,50.837,0,0,0,0,0.011332,1
11164,54.3,19.907,0,-0.037604,0,11315,50.837,0,0,0,0,0.011332,1
11164,54.3,19.907,0,-0.037604,0,11315,50.837,0,0,0,0,0.011332,1
11164,54.3,19.907,0,-0.037604,0,11315,50.837,0,0,0,0,0.011332,1
11164,54.3,19.907,0,-0.037604,0,11315,50.837,0,0,0,0,0.011332,1
11164,54.3,19.907,0,-0.037604,0,11315,50.837,0,0,0,0,0.011332,1
11165,54.3,19.906,0,-0.037723,0,11315,50.837,0,0,0,0,0.011392,1
11167,54.3,19.903,0,-0.037955,0,11315,50.837,0,0,0,0,0.011514,1
11168,54.3,19.9,0,-0.038124,0,11315,50.837,0,0,0,0,0.011608,1
11168,54.3,19.9,0,-0.038124,0,11315,50.837,0,0,0,0,0.011608,1
11169,54.3,19.899,0,-0.038236,0,11315,50.837,0,0,0,0,0.011671,1
11169,54.3,19.899,0,-0.038236,0,11315,50.837,0,0,0,0,0.011671,1
11170,54.3,19.897,0,-0.038345,0,11315,50.837,0,0,0,0,0.011735,1
11170,54.3,19.897,0,-0.038345,0,11315,50.837,0,0,0,0,0.011735,1
11170,54.3,19.897,0,-0.038345,0,11315,50.837,0,0,0,0,0.011735,1
11170,54.3,19.897,0,-0.038345,0,11315,50.837,0,0,0,0,0.011735,1
11170,54.3,19.897,0,-0.038345,0,11315,50.837,0,0,0,0,0.011735,1
11170,54.3,19.897,0,-0.038345,0,11315,50.837,0,0,0,0,0.011735,1
11170,54.3,19.896,0,-0.0384,0,11315,50.837,0,0,0,0,0.011767,1
11170,54.3,19.896,0,-0.0384,0,11315,50.837,0,0,0,0,0.011767,1
11170,54.3,19.896,0,-0.0384,0,11315,50.837,0,0,0,0,0.011767,1
11170,54.3,19.896,0,-0.0384,0,11315,50.837,0,0,0,0,0.011767,1
11170,54.3,19.896,0,-0.0384,0,11315,50.837,0,0,0,0,0.011767,1
11170,54.3,19.896,0,-0.0384,0,11315,50.837,0,0,0,0,0.011767,1
11170,54.3,19.896,0,-0.0384,0,11315,50.837,0,0,0,0,0.011767,1
11170,54.3,19.896,0,-0.038453,0,11315,50.837,0,0,0,0,0.0118,1
11170,54.3,19.896,0,-0.038453,0,11315,50.837,0,0,0,0,0.0118,1
11170,54.3,19.896,0,-0.038453,0,11315,50.837,0,0,0,0,0.0118,1
11170,54.3,19.896,0,-0.038453,0,11315,50.837,0,0,0,0,0.0118,1
11170,54.3,19.896,0,-0.038453,0,11315,50.837,0,0,0,0,0.0118,1
11170,54.3,19.896,0,-0.038453,0,11315,50.837,0,0,0,0,0.0118,1
11171,54.3,19.895,0,-0.038508,0,11315,50.837,0,0,0,0,0.011832,1
11171,54.3,19.895,0,-0.038508,0,11315,50.837,0,0,0,0,0.011832,1
11171,54.3,19.895,0,-0.038508,0,11315,50.837,0,0,0,0,0.011832,1
11173,54.3,19.891,0,-0.038772,0,11315,50.837,0,0,0,0,0.011998,1
11174,54.3,19.889,0,-0.038875,0,11315,50.837,0,0,0,0,0.012065,1
11175,54.3,19.887,0,-0.039028,0,11315,50.837,0,0,0,0,0.012168,1
11175,54.3,19.887,0,-0.039028,0,11315,50.837,0,0,0,0,0.012168,1
11175,54.3,19.887,0,-0.039028,0,11315,50.837,0,0,0,0,0.012168,1
11175,54.3,19.887,0,-0.039028,0,11315,50.837,0,0,0,0,0.012168,1
11175,54.3,19.887,0,-0.039028,0,11315,50.837,0,0,0,0,0.012168,1
11175,54.3,19.887,0,-0.039028,0,11315,50.837,0,0,0,0,0.012168,1
11175,54.3,19.887,0,-0.039028,0,11315,50.837,0,0,0,0,0.012168,1
11175,54.3,19.887,0,-0.039028,0,11315,50.837,0,0,0,0,0.012168,1
11175,54.3,19.887,0,-0.039028,0,11315,50.837,0,0,0,0,0.012168,1
11175,54.3,19.887,0,-0.039028,0,11315,50.837,0,0,0,0,0.012168,1
11175,54.3,19.887,0,-0.039028,0,11315,50.837,0,0,0,0,0.012168,1
11175,54.3,19.887,0,-0.039028,0,11315,50.837,0,0,0,0,0.012168,1
11175,54.3,19.887,0,-0.039028,0,11315,50.837,0,0,0,0,0.012168,1
11175,54.3,19.887,0,-0.039028,0,11315,50.837,0,0,0,0,0.012168,1
11175,54.3,19.887,0,-0.039028,0,11315,50.837,0,0,0,0,0.012168,1
11175,54.3,19.887,0,-0.039028,0,11315,50.837,0,0,0,0,0.012168,1
11175,54.3,19.887,0,-0.039028,0,11315,50.837,0,0,0,0,0.012168,1
11175,54.3,19.887,0,-0.039028,0,11315,50.837,0,0,0,0,0.012168,1
11176,54.3,19.886,0,-0.03913,0,11315,50.837,0,0,0,0,0.012237,1
11176,54.3,19.886,0,-0.03913,0,11315,50.837,0,0,0,0,0.012237,1
11176,54.3,19.886,0,-0.03913,0,11315,50.837,0,0,0,0,0.012237,1
11176,54.3,19.886,0,-0.03913,0,11315,50.837,0,0,0,0,0.012237,1
11176,54.3,19.886,0,-0.03913,0,11315,50.837,0,0,0,0,0.012237,1
11176,54.3,19.886,0,-0.03913,0,11315,50.837,0,0,0,0,0.012237,1
11177,54.3,19.883,0,-0.039276,0,11315,50.837,0,0,0,0,0.012343,1
11177,54.3,19.882,0,-0.039326,0,11315,50.837,0,0,0,0,0.012379,1
11177,54.3,19.882,0,-0.039326,0,11315,50.837,0,0,0,0,0.012379,1
11180,54.3,19.877,0,-0.03966,0,11315,50.837,0,0,0,0,0.012634,1
11180,54.3,19.877,0,-0.03966,0,11315,50.837,0,0,0,0,0.012634,1
11180,54.3,19.877,0,-0.03966,0,11315,50.837,0,0,0,0,0.012634,1
11180,54.3,19.877,0,-0.03966,0,11315,50.837,0,0,0,0,0.012634,1
11180,54.3,19.876,0,-0.039708,0,11315,50.837,0,0,0,0,0.012671,1
11180,54.3,19.876,0,-0.039708,0,11315,50.837,0,0,0,0,0.012671,1
11180,54.3,19.876,0,-0.039708,0,11315,50.837,0,0,0,0,0.012671,1
11180,54.3,19.876,0,-0.039708,0,11315,50.837,0,0,0,0,0.012671,1
11180,54.3,19.876,0,-0.039708,0,11315,50.837,0,0,0,0,0.012671,1
11180,54.3,19.876,0,-0.039708,0,11315,50.837,0,0,0,0,0.012671,1
11180,54.3,19.876,0,-0.039708,0,11315,50.837,0,0,0,0,0.012671,1
11180,54.3,19.876,0,-0.039708,0,11315,50.837,0,0,0,0,0.012671,1
11181,54.3,19.875,0,-0.039754,0,11315,50.837,0,0,0,0,0.012709,1
11181,54.3,19.875,0,-0.039754,0,11315,50.837,0,0,0,0,0.012709,1
11181,54.3,19.875,0,-0.039754,0,11315,50.837,0,0,0,0,0.012709,1
11181,54.3,19.875,0,-0.039754,0,11315,50.837,0,0,0,0,0.012709,1
11181,54.3,19.875,0,-0.039754,0,11315,50.837,0,0,0,0,0.012709,1
11181,54.3,19.875,0,-0.039754,0,11315,50.837,0,0,0,0,0.012709,1
11181,54.3,19.875,0,-0.039754,0,11315,50.837,0,0,0,0,0.012709,1
11181,54.3,19.875,0,-0.039802,0,11315,50.837,0,0,0,0,0.012747,1
11181,54.3,19.875,0,-0.039802,0,11315,50.837,0,0,0,0,0.012747,1
11182,54.3,19.873,0,-0.039894,0,11315,50.837,0,0,0,0,0.012823,1
11182,54.3,19.873,0,-0.039894,0,11315,50.837,0,0,0,0,0.012823,1
11184,54.3,19.868,0,-0.040166,0,11315,50.837,0,0,0,0,0.013057,1
11184,54.3,19.868,0,-0.040166,0,11315,50.837,0,0,0,0,0.013057,1
11184,54.3,19.868,0,-0.040166,0,11315,50.837,0,0,0,0,0.013057,1
11184,54.3,19.868,0,-0.040166,0,11315,50.837,0,0,0,0,0.013057,1
11184,54.3,19.868,0,-0.040166,0,11315,50.837,0,0,0,0,0.013057,1
11184,54.3,19.868,0,-0.040166,0,11315,50.837,0,0,0,0,0.013057,1
11184,54.3,19.868,0,-0.040166,0,11315,50.837,0,0,0,0,0.013057,1
11184,54.3,19.868,0,-0.040166,0,11315,50.837,0,0,0,0,0.013057,1
11184,54.3,19.868,0,-0.040166,0,11315,50.837,0,0,0,0,0.013057,1
11184,54.3,19.868,0,-0.040166,0,11315,50.837,0,0,0,0,0.013057,1
11184,54.3,19.868,0,-0.040166,0,11315,50.837,0,0,0,0,0.013057,1
11184,54.3,19.868,0,-0.040166,0,11315,50.837,0,0,0,0,0.013057,1
11184,54.3,19.868,0,-0.040166,0,11315,50.837,0,0,0,0,0.013057,1
11184,54.3,19.868,0,-0.040166,0,11315,50.837,0,0,0,0,0.013057,1
11184,54.3,19.868,0,-0.040166,0,11315,50.837,0,0,0,0,0.013057,1
11184,54.3,19.868,0,-0.040166,0,11315,50.837,0,0,0,0,0.013057,1
11186,54.3,19.866,0,-0.040304,0,11315,50.837,0,0,0,0,0.013177,1
11186,54.3,19.866,0,-0.040304,0,11315,50.837,0,0,0,0,0.013177,1
11186,54.3,19.866,0,-0.040304,0,11315,50.837,0,0,0,0,0.013177,1
11186,54.3,19.866,0,-0.040304,0,11315,50.837,0,0,0,0,0.013177,1
11186,54.3,19.866,0,-0.040304,0,11315,50.837,0,0,0,0,0.013177,1
11186,54.3,19.866,0,-0.040304,0,11315,50.837,0,0,0,0,0.013177,1
11186,54.3,19.866,0,-0.040304,0,11315,50.837,0,0,0,0,0.013177,1
11186,54.3,19.866,0,-0.040304,0,11315,50.837,0,0,0,0,0.013177,1
11187,54.3,19.863,0,-0.040437,0,11315,50.837,0,0,0,0,0.013299,1
11188,54.3,19.861,0,-0.04057,0,11315,50.837,0,0,0,0,0.013424,1
11189,54.3,19.859,0,-0.040656,0,11315,50.837,0,0,0,0,0.013509,1
11189,54.3,19.859,0,-0.040656,0,11315,50.837,0,0,0,0,0.013509,1
11189,54.3,19.859,0,-0.040656,0,11315,50.837,0,0,0,0,0.013509,1
11189,54.3,19.859,0,-0.040656,0,11315,50.837,0,0,0,0,0.013509,1
11189,54.3,19.859,0,-0.040656,0,11315,50.837,0,0,0,0,0.013509,1
11189,54.3,19.859,0,-0.040656,0,11315,50.837,0,0,0,0,0.013509,1
11189,54.3,19.859,0,-0.040656,0,11315,50.837,0,0,0,0,0.013509,1
11189,54.3,19.859,0,-0.040656,0,11315,50.837,0,0,0,0,0.013509,1
11189,54.3,19.859,0,-0.040656,0,11315,50.837,0,0,0,0,0.013509,1
11189,54.3,19.859,0,-0.040656,0,11315,50.837,0,0,0,0,0.013509,1
11189,54.3,19.859,0,-0.040656,0,11315,50.837,0,0,0,0,0.013509,1
11189,54.3,19.859,0,-0.040656,0,11315,50.837,0,0,0,0,0.013509,1
11189,54.3,19.859,0,-0.040656,0,11315,50.837,0,0,0,0,0.013509,1
11189,54.3,19.859,0,-0.040656,0,11315,50.837,0,0,0,0,0.013509,1
11189,54.3,19.859,0,-0.040656,0,11315,50.837,0,0,0,0,0.013509,1
11189,54.3,19.859,0,-0.040656,0,11315,50.837,0,0,0,0,0.013509,1
11191,54.3,19.855,0,-0.040869,0,11315,50.837,0,0,0,0,0.013725,1
11191,54.3,19.855,0,-0.040869,0,11315,50.837,0,0,0,0,0.013725,1
11191,54.3,19.855,0,-0.040869,0,11315,50.837,0,0,0,0,0.013725,1
11191,54.3,19.855,0,-0.040869,0,11315,50.837,0,0,0,0,0.013725,1
11191,54.3,19.855,0,-0.040869,0,11315,50.837,0,0,0,0,0.013725,1
11191,54.3,19.855,0,-0.040869,0,11315,50.837,0,0,0,0,0.013725,1
11191,54.3,19.855,0,-0.040869,0,11315,50.837,0,0,0,0,0.013725,1
11191,54.3,19.854,0,-0.040911,0,11315,50.837,0,0,0,0,0.013769,1
11191,54.3,19.854,0,-0.040911,0,11315,50.837,0,0,0,0,0.013769,1
11191,54.3,19.854,0,-0.040911,0,11315,50.837,0,0,0,0,0.013769,1
11191,54.3,19.854,0,-0.040911,0,11315,50.837,0,0,0,0,0.013769,1
11193,54.3,19.849,0,-0.04116,0,11315,50.837,0,0,0,0,0.014038,1
11193,54.3,19.849,0,-0.04116,0,11315,50.837,0,0,0,0,0.014038,1
11195,54.3,19.846,0,-0.041325,0,11315,50.837,0,0,0,0,0.014224,1
11195,54.3,19.846,0,-0.041325,0,11315,50.837,0,0,0,0,0.014224,1
11195,54.3,19.846,0,-0.041325,0,11315,50.837,0,0,0,0,0.014224,1
11195,54.3,19.846,0,-0.041325,0,11315,50.837,0,0,0,0,0.014224,1
11195,54.3,19.845,0,-0.041365,0,11315,50.837,0,0,0,0,0.014272,1
11195,54.3,19.845,0,-0.041365,0,11315,50.837,0,0,0,0,0.014272,1
11195,54.3,19.845,0,-0.041365,0,11315,50.837,0,0,0,0,0.014272,1
11196,54.3,19.844,0,-0.041444,0,11315,50.837,0,0,0,0,0.014367,1
11196,54.3,19.844,0,-0.041444,0,11315,50.837,0,0,0,0,0.014367,1
11196,54.3,19.844,0,-0.041444,0,11315,50.837,0,0,0,0,0.014367,1
11196,54.3,19.844,0,-0.041444,0,11315,50.837,0,0,0,0,0.014367,1
11196,54.3,19.844,0,-0.041444,0,11315,50.837,0,0,0,0,0.014367,1
11196,54.3,19.844,0,-0.041444,0,11315,50.837,0,0,0,0,0.014367,1
11196,54.3,19.844,0,-0.041444,0,11315,50.837,0,0,0,0,0.014367,1
11196,54.3,19.844,0,-0.041444,0,11315,50.837,0,0,0,0,0.014367,1
11197,54.3,19.842,0,-0.041525,0,11315,50.837,0,0,0,0,0.014464,1
11197,54.3,19.842,0,-0.041525,0,11315,50.837,0,0,0,0,0.014464,1
11197,54.3,19.841,0,-0.041564,0,11315,50.837,0,0,0,0,0.014513,1
11198,54.3,19.84,0,-0.041605,0,11315,50.837,0,0,0,0,0.014562,1
11198,54.3,19.84,0,-0.041605,0,11315,50.837,0,0,0,0,0.014562,1
11198,54.3,19.84,0,-0.041605,0,11315,50.837,0,0,0,0,0.014562,1
11198,54.3,19.84,0,-0.041605,0,11315,50.837,0,0,0,0,0.014562,1
11198,54.3,19.84,0,-0.041605,0,11315,50.837,0,0,0,0,0.014562,1
11198,54.3,19.84,0,-0.041605,0,11315,50.837,0,0,0,0,0.014562,1
11198,54.3,19.84,0,-0.041605,0,11315,50.837,0,0,0,0,0.014562,1
11198,54.3,19.84,0,-0.041605,0,11315,50.837,0,0,0,0,0.014562,1
11198,54.3,19.84,0,-0.041605,0,11315,50.837,0,0,0,0,0.014562,1
11198,54.3,19.84,0,-0.041605,0,11315,50.837,0,0,0,0,0.014562,1
11198,54.3,19.84,0,-0.041605,0,11315,50.837,0,0,0,0,0.014562,1
11198,54.3,19.84,0,-0.041605,0,11315,50.837,0,0,0,0,0.014562,1
11198,54.3,19.84,0,-0.041605,0,11315,50.837,0,0,0,0,0.014562,1
11198,54.3,19.84,0,-0.041605,0,11315,50.837,0,0,0,0,0.014562,1
11198,54.3,19.84,0,-0.041605,0,11315,50.837,0,0,0,0,0.014562,1
11198,54.3,19.84,0,-0.041605,0,11315,50.837,0,0,0,0,0.014562,1
11198,54.3,19.84,0,-0.041605,0,11315,50.837,0,0,0,0,0.014562,1
11198,54.3,19.84,0,-0.041605,0,11315,50.837,0,0,0,0,0.014562,1
11198,54.3,19.84,0,-0.041605,0,11315,50.837,0,0,0,0,0.014562,1
11200,54.3,19.835,0,-0.041839,0,11315,50.837,0,0,0,0,0.014864,1
11201,54.3,19.833,0,-0.041953,0,11315,50.837,0,0,0,0,0.01502,1
11201,54.3,19.833,0,-0.041953,0,11315,50.837,0,0,0,0,0.01502,1
11201,54.3,19.833,0,-0.041953,0,11315,50.837,0,0,0,0,0.01502,1
11201,54.3,19.833,0,-0.041953,0,11315,50.837,0,0,0,0,0.01502,1
11203,54.3,19.829,0,-0.04214,0,11315,50.837,0,0,0,0,0.015286,1
11203,54.3,19.829,0,-0.04214,0,11315,50.837,0,0,0,0,0.015286,1
11203,54.3,19.829,0,-0.04214,0,11315,50.837,0,0,0,0,0.015286,1
11203,54.3,19.829,0,-0.04214,0,11315,50.837,0,0,0,0,0.015286,1
11203,54.3,19.829,0,-0.04214,0,11315,50.837,0,0,0,0,0.015286,1
11203,54.3,19.829,0,-0.04214,0,11315,50.837,0,0,0,0,0.015286,1
11203,54.3,19.829,0,-0.04214,0,11315,50.837,0,0,0,0,0.015286,1
11203,54.3,19.829,0,-0.04214,0,11315,50.837,0,0,0,0,0.015286,1
11203,54.3,19.829,0,-0.04214,0,11315,50.837,0,0,0,0,0.015286,1
11205,54.3,19.826,0,-0.042252,0,11315,50.837,0,0,0,0,0.015451,1
11205,54.3,19.826,0,-0.042252,0,11315,50.837,0,0,0,0,0.015451,1
11205,54.3,19.826,0,-0.042252,0,11315,50.837,0,0,0,0,0.015451,1
11205,54.3,19.826,0,-0.042252,0,11315,50.837,0,0,0,0,0.015451,1
11205,54.3,19.826,0,-0.042252,0,11315,50.837,0,0,0,0,0.015451,1
11205,54.3,19.826,0,-0.042252,0,11315,50.837,0,0,0,0,0.015451,1
11205,54.3,19.826,0,-0.042252,0,11315,50.837,0,0,0,0,0.015451,1
11205,54.3,19.826,0,-0.042252,0,11315,50.837,0,0,0,0,0.015451,1
11205,54.3,19.826,0,-0.042252,0,11315,50.837,0,0,0,0,0.015451,1
11205,54.3,19.826,0,-0.042252,0,11315,50.837,0,0,0,0,0.015451,1
11205,54.3,19.826,0,-0.042252,0,11315,50.837,0,0,0,0,0.015451,1
11205,54.3,19.826,0,-0.042252,0,11315,50.837,0,0,0,0,0.015451,1
11205,54.3,19.826,0,-0.042252,0,11315,50.837,0,0,0,0,0.015451,1
11205,54.3,19.826,0,-0.042252,0,11315,50.837,0,0,0,0,0.015451,1
11205,54.3,19.826,0,-0.042252,0,11315,50.837,0,0,0,0,0.015451,1
11205,54.3,19.826,0,-0.042252,0,11315,50.837,0,0,0,0,0.015451,1
11205,54.3,19.826,0,-0.042252,0,11315,50.837,0,0,0,0,0.015451,1
11205,54.3,19.826,0,-0.042252,0,11315,50.837,0,0,0,0,0.015451,1
11205,54.3,19.826,0,-0.042252,0,11315,50.837,0,0,0,0,0.015451,1
11205,54.3,19.826,0,-0.042252,0,11315,50.837,0,0,0,0,0.015451,1
11208,54.3,19.819,0,-0.042545,0,11315,50.837,0,0,0,0,0.015908,1
11208,54.3,19.818,0,-0.04258,0,11315,50.837,0,0,0,0,0.015967,1
11209,54.3,19.817,0,-0.042651,0,11315,50.837,0,0,0,0,0.016087,1
11209,54.3,19.817,0,-0.042651,0,11315,50.837,0,0,0,0,0.016087,1
11209,54.3,19.817,0,-0.042651,0,11315,50.837,0,0,0,0,0.016087,1
11209,54.3,19.817,0,-0.042651,0,11315,50.837,0,0,0,0,0.016087,1
11209,54.3,19.817,0,-0.042651,0,11315,50.837,0,0,0,0,0.016087,1
11209,54.3,19.817,0,-0.042651,0,11315,50.837,0,0,0,0,0.016087,1
11209,54.3,19.817,0,-0.042651,0,11315,50.837,0,0,0,0,0.016087,1
11209,54.3,19.817,0,-0.042651,0,11315,50.837,0,0,0,0,0.016087,1
11209,54.3,19.817,0,-0.042651,0,11315,50.837,0,0,0,0,0.016087,1
11209,54.3,19.817,0,-0.042651,0,11315,50.837,0,0,0,0,0.016087,1
11209,54.3,19.817,0,-0.042651,0,11315,50.837,0,0,0,0,0.016087,1
11209,54.3,19.817,0,-0.042651,0,11315,50.837,0,0,0,0,0.016087,1
11209,54.3,19.817,0,-0.042651,0,11315,50.837,0,0,0,0,0.016087,1
11209,54.3,19.817,0,-0.042651,0,11315,50.837,0,0,0,0,0.016087,1
11209,54.3,19.817,0,-0.042651,0,11315,50.837,0,0,0,0,0.016087,1
11209,54.3,19.817,0,-0.042651,0,11315,50.837,0,0,0,0,0.016087,1
11211,54.3,19.812,0,-0.042827,0,11315,50.837,0,0,0,0,0.016393,1
11211,54.3,19.812,0,-0.042827,0,11315,50.837,0,0,0,0,0.016393,1
11211,54.3,19.812,0,-0.042827,0,11315,50.837,0,0,0,0,0.016393,1
11211,54.3,19.812,0,-0.042827,0,11315,50.837,0,0,0,0,0.016393,1
11211,54.3,19.812,0,-0.042827,0,11315,50.837,0,0,0,0,0.016393,1
11211,54.3,19.812,0,-0.042827,0,11315,50.837,0,0,0,0,0.016393,1
11211,54.3,19.812,0,-0.042827,0,11315,50.837,0,0,0,0,0.016393,1
11211,54.3,19.812,0,-0.04286,0,11315,50.837,0,0,0,0,0.016455,1
11211,54.3,19.812,0,-0.04286,0,11315,50.837,0,0,0,0,0.016455,1
11212,54.3,19.809,0,-0.042963,0,11315,50.837,0,0,0,0,0.016646,1
11214,54.3,19.806,0,-0.043098,0,11315,50.837,0,0,0,0,0.016908,1
11214,54.3,19.806,0,-0.043098,0,11315,50.837,0,0,0,0,0.016908,1
11215,54.3,19.803,0,-0.043199,0,11315,50.837,0,0,0,0,0.017109,1
11215,54.3,19.803,0,-0.043199,0,11315,50.837,0,0,0,0,0.017109,1
11215,54.3,19.803,0,-0.043199,0,11315,50.837,0,0,0,0,0.017109,1
11215,54.3,19.803,0,-0.043199,0,11315,50.837,0,0,0,0,0.017109,1
11215,54.3,19.803,0,-0.043199,0,11315,50.837,0,0,0,0,0.017109,1
11215,54.3,19.803,0,-0.043199,0,11315,50.837,0,0,0,0,0.017109,1
11215,54.3,19.803,0,-0.043199,0,11315,50.837,0,0,0,0,0.017109,1
11215,54.3,19.803,0,-0.043199,0,11315,50.837,0,0,0,0,0.017109,1
11215,54.3,19.803,0,-0.043199,0,11315,50.837,0,0,0,0,0.017109,1
11215,54.3,19.803,0,-0.043199,0,11315,50.837,0,0,0,0,0.017109,1
11216,54.3,19.801,0,-0.043266,0,11315,50.837,0,0,0,0,0.017246,1
11216,54.3,19.801,0,-0.043266,0,11315,50.837,0,0,0,0,0.017246,1
11216,54.3,19.801,0,-0.043266,0,11315,50.837,0,0,0,0,0.017246,1
11216,54.3,19.801,0,-0.043266,0,11315,50.837,0,0,0,0,0.017246,1
11216,54.3,19.801,0,-0.043266,0,11315,50.837,0,0,0,0,0.017246,1
11216,54.3,19.801,0,-0.043266,0,11315,50.837,0,0,0,0,0.017246,1
11216,54.3,19.801,0,-0.043266,0,11315,50.837,0,0,0,0,0.017246,1
11216,54.3,19.801,0,-0.043266,0,11315,50.837,0,0,0,0,0.017246,1
11216,54.3,19.801,0,-0.043266,0,11315,50.837,0,0,0,0,0.017246,1
11216,54.3,19.801,0,-0.043266,0,11315,50.837,0,0,0,0,0.017246,1
11216,54.3,19.801,0,-0.043266,0,11315,50.837,0,0,0,0,0.017246,1
11216,54.3,19.801,0,-0.043266,0,11315,50.837,0,0,0,0,0.017246,1
11216,54.3,19.801,0,-0.043266,0,11315,50.837,0,0,0,0,0.017246,1
11216,54.3,19.801,0,-0.043266,0,11315,50.837,0,0,0,0,0.017246,1
11218,54.3,19.797,0,-0.043426,0,11315,50.837,0,0,0,0,0.017598,1
11219,54.3,19.794,0,-0.043521,0,11315,50.837,0,0,0,0,0.017817,1
11220,54.3,19.792,0,-0.043615,0,11315,50.837,0,0,0,0,0.01804,1
11220,54.3,19.792,0,-0.043615,0,11315,50.837,0,0,0,0,0.01804,1
11220,54.3,19.792,0,-0.043615,0,11315,50.837,0,0,0,0,0.01804,1
11220,54.3,19.792,0,-0.043615,0,11315,50.837,0,0,0,0,0.01804,1
11220,54.3,19.792,0,-0.043615,0,11315,50.837,0,0,0,0,0.01804,1
11220,54.3,19.792,0,-0.043615,0,11315,50.837,0,0,0,0,0.01804,1
11220,54.3,19.792,0,-0.043615,0,11315,50.837,0,0,0,0,0.01804,1
11220,54.3,19.792,0,-0.043615,0,11315,50.837,0,0,0,0,0.01804,1
11220,54.3,19.792,0,-0.043615,0,11315,50.837,0,0,0,0,0.01804,1
11220,54.3,19.792,0,-0.043615,0,11315,50.837,0,0,0,0,0.01804,1
11220,54.3,19.792,0,-0.043615,0,11315,50.837,0,0,0,0,0.01804,1
11220,54.3,19.792,0,-0.043615,0,11315,50.837,0,0,0,0,0.01804,1
11222,54.3,19.789,0,-0.04371,0,11315,50.837,0,0,0,0,0.01827,1
11222,54.3,19.789,0,-0.04371,0,11315,50.837,0,0,0,0,0.01827,1
11222,54.3,19.789,0,-0.04371,0,11315,50.837,0,0,0,0,0.01827,1
11222,54.3,19.789,0,-0.04371,0,11315,50.837,0,0,0,0,0.01827,1
11222,54.3,19.789,0,-0.04371,0,11315,50.837,0,0,0,0,0.01827,1
11222,54.3,19.789,0,-0.04371,0,11315,50.837,0,0,0,0,0.01827,1
11222,54.3,19.789,0,-0.04371,0,11315,50.837,0,0,0,0,0.01827,1
11222,54.3,19.789,0,-0.04371,0,11315,50.837,0,0,0,0,0.01827,1
11222,54.3,19.789,0,-0.04371,0,11315,50.837,0,0,0,0,0.01827,1
11222,54.3,19.789,0,-0.04371,0,11315,50.837,0,0,0,0,0.01827,1
11222,54.3,19.789,0,-0.04371,0,11315,50.837,0,0,0,0,0.01827,1
11222,54.3,19.789,0,-0.04371,0,11315,50.837,0,0,0,0,0.01827,1
11222,54.3,19.789,0,-0.04371,0,11315,50.837,0,0,0,0,0.01827,1
11222,54.3,19.787,0,-0.043772,0,11315,50.837,0,0,0,0,0.018426,1
11222,54.3,19.787,0,-0.043772,0,11315,50.837,0,0,0,0,0.018426,1
11224,54.3,19.784,0,-0.043896,0,11315,50.837,0,0,0,0,0.018746,1
11226,54.3,19.78,0,-0.044015,0,11315,50.837,0,0,0,0,0.019078,1
11226,54.3,19.779,0,-0.044075,0,11315,50.837,0,0,0,0,0.019248,1
11226,54.3,19.779,0,-0.044075,0,11315,50.837,0,0,0,0,0.019248,1
11227,54.3,19.778,0,-0.044104,0,11315,50.837,0,0,0,0,0.019335,1
11227,54.3,19.778,0,-0.044104,0,11315,50.837,0,0,0,0,0.019335,1
11227,54.3,19.778,0,-0.044104,0,11315,50.837,0,0,0,0,0.019335,1
11227,54.3,19.778,0,-0.044104,0,11315,50.837,0,0,0,0,0.019335,1
11227,54.3,19.778,0,-0.044104,0,11315,50.837,0,0,0,0,0.019335,1
11227,54.3,19.778,0,-0.044104,0,11315,50.837,0,0,0,0,0.019335,1
11227,54.3,19.778,0,-0.044104,0,11315,50.837,0,0,0,0,0.019335,1
11227,54.3,19.778,0,-0.044104,0,11315,50.837,0,0,0,0,0.019335,1
11227,54.3,19.778,0,-0.044104,0,11315,50.837,0,0,0,0,0.019335,1
11227,54.3,19.778,0,-0.044104,0,11315,50.837,0,0,0,0,0.019335,1
11227,54.3,19.778,0,-0.044104,0,11315,50.837,0,0,0,0,0.019335,1
11227,54.3,19.778,0,-0.044104,0,11315,50.837,0,0,0,0,0.019335,1
11227,54.3,19.778,0,-0.044104,0,11315,50.837,0,0,0,0,0.019335,1
11227,54.3,19.778,0,-0.044104,0,11315,50.837,0,0,0,0,0.019335,1
11227,54.3,19.778,0,-0.044104,0,11315,50.837,0,0,0,0,0.019335,1
11227,54.3,19.778,0,-0.044104,0,11315,50.837,0,0,0,0,0.019335,1
11227,54.3,19.778,0,-0.044104,0,11315,50.837,0,0,0,0,0.019335,1
11227,54.3,19.778,0,-0.044104,0,11315,50.837,0,0,0,0,0.019335,1
11227,54.3,19.778,0,-0.044104,0,11315,50.837,0,0,0,0,0.019335,1
11227,54.3,19.778,0,-0.044104,0,11315,50.837,0,0,0,0,0.019335,1
11228,54.3,19.776,0,-0.044162,0,11315,50.837,0,0,0,0,0.01951,1
11228,54.3,19.776,0,-0.044162,0,11315,50.837,0,0,0,0,0.01951,1
11229,54.3,19.772,0,-0.044275,0,11315,50.837,0,0,0,0,0.019869,1
11230,54.3,19.77,0,-0.04436,0,11315,50.837,0,0,0,0,0.020147,1
11230,54.3,19.77,0,-0.04436,0,11315,50.837,0,0,0,0,0.020147,1
11230,54.3,19.77,0,-0.04436,0,11315,50.837,0,0,0,0,0.020147,1
11230,54.3,19.77,0,-0.04436,0,11315,50.837,0,0,0,0,0.020147,1
11230,54.3,19.77,0,-0.04436,0,11315,50.837,0,0,0,0,0.020147,1
11230,54.3,19.77,0,-0.04436,0,11315,50.837,0,0,0,0,0.020147,1
11230,54.3,19.77,0,-0.04436,0,11315,50.837,0,0,0,0,0.020147,1
11230,54.3,19.77,0,-0.04436,0,11315,50.837,0,0,0,0,0.020147,1
11230,54.3,19.77,0,-0.04436,0,11315,50.837,0,0,0,0,0.020147,1
11230,54.3,19.77,0,-0.04436,0,11315,50.837,0,0,0,0,0.020147,1
11230,54.3,19.77,0,-0.04436,0,11315,50.837,0,0,0,0,0.020147,1
11230,54.3,19.77,0,-0.04436,0,11315,50.837,0,0,0,0,0.020147,1
11230,54.3,19.77,0,-0.04436,0,11315,50.837,0,0,0,0,0.020147,1
11232,54.3,19.765,0,-0.044496,0,11315,50.837,0,0,0,0,0.020629,1
11232,54.3,19.765,0,-0.044496,0,11315,50.837,0,0,0,0,0.020629,1
11232,54.3,19.765,0,-0.044496,0,11315,50.837,0,0,0,0,0.020629,1
11232,54.3,19.765,0,-0.044496,0,11315,50.837,0,0,0,0,0.020629,1
11232,54.3,19.765,0,-0.044496,0,11315,50.837,0,0,0,0,0.020629,1
11232,54.3,19.765,0,-0.044496,0,11315,50.837,0,0,0,0,0.020629,1
11232,54.3,19.765,0,-0.044496,0,11315,50.837,0,0,0,0,0.020629,1
11232,54.3,19.765,0,-0.044496,0,11315,50.837,0,0,0,0,0.020629,1
11232,54.3,19.765,0,-0.044496,0,11315,50.837,0,0,0,0,0.020629,1
11232,54.3,19.765,0,-0.044496,0,11315,50.837,0,0,0,0,0.020629,1
11232,54.3,19.765,0,-0.044496,0,11315,50.837,0,0,0,0,0.020629,1
11232,54.3,19.765,0,-0.044496,0,11315,50.837,0,0,0,0,0.020629,1
11233,54.3,19.763,0,-0.044552,0,11315,50.837,0,0,0,0,0.020828,1
11233,54.3,19.763,0,-0.044552,0,11315,50.837,0,0,0,0,0.020828,1
11233,54.3,19.763,0,-0.044552,0,11315,50.837,0,0,0,0,0.020828,1
11235,54.3,19.759,0,-0.044683,0,11315,50.837,0,0,0,0,0.021343,1
11235,54.3,19.759,0,-0.044683,0,11315,50.837,0,0,0,0,0.021343,1
11237,54.3,19.755,0,-0.044814,0,11315,50.837,0,0,0,0,0.021883,1
11237,54.3,19.755,0,-0.044814,0,11315,50.837,0,0,0,0,0.021883,1
11237,54.3,19.755,0,-0.044814,0,11315,50.837,0,0,0,0,0.021883,1
11237,54.3,19.755,0,-0.044814,0,11315,50.837,0,0,0,0,0.021883,1
11237,54.3,19.754,0,-0.044841,0,11315,50.837,0,0,0,0,0.021995,1
11237,54.3,19.754,0,-0.044841,0,11315,50.837,0,0,0,0,0.021995,1
11238,54.3,19.753,0,-0.044865,0,11315,50.837,0,0,0,0,0.022107,1
11238,54.3,19.753,0,-0.044865,0,11315,50.837,0,0,0,0,0.022107,1
11238,54.3,19.753,0,-0.044865,0,11315,50.837,0,0,0,0,0.022107,1
11238,54.3,19.753,0,-0.044865,0,11315,50.837,0,0,0,0,0.022107,1
11238,54.3,19.753,0,-0.044865,0,11315,50.837,0,0,0,0,0.022107,1
11238,54.3,19.753,0,-0.044865,0,11315,50.837,0,0,0,0,0.022107,1
11238,54.3,19.753,0,-0.044865,0,11315,50.837,0,0,0,0,0.022107,1
11238,54.3,19.753,0,-0.044865,0,11315,50.837,0,0,0,0,0.022107,1
11238,54.3,19.753,0,-0.044865,0,11315,50.837,0,0,0,0,0.022107,1
11239,54.3,19.751,0,-0.044916,0,11315,50.837,0,0,0,0,0.022336,1
11239,54.3,19.751,0,-0.044916,0,11315,50.837,0,0,0,0,0.022336,1
11239,54.3,19.751,0,-0.044916,0,11315,50.837,0,0,0,0,0.022336,1
11239,54.3,19.751,0,-0.044916,0,11315,50.837,0,0,0,0,0.022336,1
11239,54.3,19.751,0,-0.044916,0,11315,50.837,0,0,0,0,0.022336,1
11241,54.3,19.746,0,-0.045062,0,11315,50.837,0,0,0,0,0.023051,1
11241,54.3,19.746,0,-0.045062,0,11315,50.837,0,0,0,0,0.023051,1
11241,54.3,19.746,0,-0.045062,0,11315,50.837,0,0,0,0,0.023051,1
11241,54.3,19.746,0,-0.045062,0,11315,50.837,0,0,0,0,0.023051,1
11241,54.3,19.746,0,-0.045062,0,11315,50.837,0,0,0,0,0.023051,1
11241,54.3,19.746,0,-0.045062,0,11315,50.837,0,0,0,0,0.023051,1
11241,54.3,19.746,0,-0.045062,0,11315,50.837,0,0,0,0,0.023051,1
11241,54.3,19.746,0,-0.045062,0,11315,50.837,0,0,0,0,0.023051,1
11241,54.3,19.745,0,-0.045086,0,11315,50.837,0,0,0,0,0.023174,1
11241,54.3,19.745,0,-0.045086,0,11315,50.837,0,0,0,0,0.023174,1
11241,54.3,19.745,0,-0.045086,0,11315,50.837,0,0,0,0,0.023174,1
11241,54.3,19.745,0,-0.045086,0,11315,50.837,0,0,0,0,0.023174,1
11241,54.3,19.745,0,-0.045086,0,11315,50.837,0,0,0,0,0.023174,1
11241,54.3,19.745,0,-0.045086,0,11315,50.837,0,0,0,0,0.023174,1
11241,54.3,19.745,0,-0.045086,0,11315,50.837,0,0,0,0,0.023174,1
11241,54.3,19.745,0,-0.045086,0,11315,50.837,0,0,0,0,0.023174,1
11241,54.3,19.745,0,-0.045086,0,11315,50.837,0,0,0,0,0.023174,1
11241,54.3,19.745,0,-0.045086,0,11315,50.837,0,0,0,0,0.023174,1
11242,54.3,19.743,0,-0.045134,0,11315,50.837,0,0,0,0,0.023425,1
11242,54.3,19.743,0,-0.045134,0,11315,50.837,0,0,0,0,0.023425,1
11243,54.3,19.74,0,-0.045206,0,11315,50.837,0,0,0,0,0.023812,1
11243,54.3,19.74,0,-0.045206,0,11315,50.837,0,0,0,0,0.023812,1
11244,54.3,19.739,0,-0.045228,0,11315,50.837,0,0,0,0,0.023944,1
11245,54.3,19.737,0,-0.045298,0,11315,50.837,0,0,0,0,0.024349,1
11245,54.3,19.737,0,-0.045298,0,11315,50.837,0,0,0,0,0.024349,1
11246,54.3,19.735,0,-0.045342,0,11315,50.837,0,0,0,0,0.024626,1
11246,54.3,19.735,0,-0.045342,0,11315,50.837,0,0,0,0,0.024626,1
11246,54.3,19.735,0,-0.045342,0,11315,50.837,0,0,0,0,0.024626,1
11246,54.3,19.735,0,-0.045342,0,11315,50.837,0,0,0,0,0.024626,1
11246,54.3,19.735,0,-0.045342,0,11315,50.837,0,0,0,0,0.024626,1
11246,54.3,19.735,0,-0.045342,0,11315,50.837,0,0,0,0,0.024626,1
11246,54.3,19.735,0,-0.045342,0,11315,50.837,0,0,0,0,0.024626,1
11246,54.3,19.735,0,-0.045342,0,11315,50.837,0,0,0,0,0.024626,1
11246,54.3,19.735,0,-0.045342,0,11315,50.837,0,0,0,0,0.024626,1
11246,54.3,19.735,0,-0.045342,0,11315,50.837,0,0,0,0,0.024626,1
11246,54.3,19.735,0,-0.045342,0,11315,50.837,0,0,0,0,0.024626,1
11247,54.3,19.732,0,-0.045408,0,11315,50.837,0,0,0,0,0.025054,1
11247,54.3,19.732,0,-0.045408,0,11315,50.837,0,0,0,0,0.025054,1
11247,54.3,19.732,0,-0.045408,0,11315,50.837,0,0,0,0,0.025054,1
11247,54.3,19.732,0,-0.045408,0,11315,50.837,0,0,0,0,0.025054,1
11247,54.3,19.732,0,-0.045408,0,11315,50.837,0,0,0,0,0.025054,1
11247,54.3,19.732,0,-0.045408,0,11315,50.837,0,0,0,0,0.025054,1
11247,54.3,19.732,0,-0.045408,0,11315,50.837,0,0,0,0,0.025054,1
11247,54.3,19.732,0,-0.045408,0,11315,50.837,0,0,0,0,0.025054,1
11247,54.3,19.732,0,-0.045408,0,11315,50.837,0,0,0,0,0.025054,1
11247,54.3,19.732,0,-0.045408,0,11315,50.837,0,0,0,0,0.025054,1
11247,54.3,19.732,0,-0.045408,0,11315,50.837,0,0,0,0,0.025054,1
11247,54.3,19.732,0,-0.045408,0,11315,50.837,0,0,0,0,0.025054,1
11247,54.3,19.732,0,-0.045408,0,11315,50.837,0,0,0,0,0.025054,1
11247,54.3,19.732,0,-0.045408,0,11315,50.837,0,0,0,0,0.025054,1
11248,54.3,19.73,0,-0.045452,0,11315,50.837,0,0,0,0,0.025347,1
11248,54.3,19.73,0,-0.045452,0,11315,50.837,0,0,0,0,0.025347,1
11249,54.3,19.727,0,-0.045539,0,11315,50.837,0,0,0,0,0.025956,1
11251,54.3,19.723,0,-0.045623,0,11315,50.837,0,0,0,0,0.026594,1
11252,54.3,19.721,0,-0.045665,0,11315,50.837,0,0,0,0,0.026924,1
11252,54.3,19.721,0,-0.045665,0,11315,50.837,0,0,0,0,0.026924,1
11252,54.3,19.721,0,-0.045665,0,11315,50.837,0,0,0,0,0.026924,1
11252,54.3,19.721,0,-0.045665,0,11315,50.837,0,0,0,0,0.026924,1
11252,54.3,19.721,0,-0.045665,0,11315,50.837,0,0,0,0,0.026924,1
11252,54.3,19.721,0,-0.045665,0,11315,50.837,0,0,0,0,0.026924,1
11252,54.3,19.721,0,-0.045665,0,11315,50.837,0,0,0,0,0.026924,1
11252,54.3,19.721,0,-0.045665,0,11315,50.837,0,0,0,0,0.026924,1
11252,54.3,19.721,0,-0.045665,0,11315,50.837,0,0,0,0,0.026924,1
11252,54.3,19.721,0,-0.045665,0,11315,50.837,0,0,0,0,0.026924,1
11252,54.3,19.721,0,-0.045665,0,11315,50.837,0,0,0,0,0.026924,1
11252,54.3,19.721,0,-0.045665,0,11315,50.837,0,0,0,0,0.026924,1
11252,54.3,19.721,0,-0.045665,0,11315,50.837,0,0,0,0,0.026924,1
11253,54.3,19.718,0,-0.045726,0,11315,50.837,0,0,0,0,0.027436,1
11253,54.3,19.718,0,-0.045726,0,11315,50.837,0,0,0,0,0.027436,1
11253,54.3,19.718,0,-0.045726,0,11315,50.837,0,0,0,0,0.027436,1
11253,54.3,19.718,0,-0.045726,0,11315,50.837,0,0,0,0,0.027436,1
11253,54.3,19.718,0,-0.045726,0,11315,50.837,0,0,0,0,0.027436,1
11253,54.3,19.718,0,-0.045726,0,11315,50.837,0,0,0,0,0.027436,1
11253,54.3,19.718,0,-0.045726,0,11315,50.837,0,0,0,0,0.027436,1
11253,54.3,19.718,0,-0.045726,0,11315,50.837,0,0,0,0,0.027436,1
11253,54.3,19.718,0,-0.045726,0,11315,50.837,0,0,0,0,0.027436,1
11253,54.3,19.718,0,-0.045726,0,11315,50.837,0,0,0,0,0.027436,1
11253,54.3,19.718,0,-0.045726,0,11315,50.837,0,0,0,0,0.027436,1
11253,54.3,19.718,0,-0.045726,0,11315,50.837,0,0,0,0,0.027436,1
11254,54.3,19.716,0,-0.045767,0,11315,50.837,0,0,0,0,0.027788,1
11254,54.3,19.716,0,-0.045767,0,11315,50.837,0,0,0,0,0.027788,1
11254,54.3,19.716,0,-0.045767,0,11315,50.837,0,0,0,0,0.027788,1
11254,54.3,19.716,0,-0.045767,0,11315,50.837,0,0,0,0,0.027788,1
11254,54.3,19.716,0,-0.045767,0,11315,50.837,0,0,0,0,0.027788,1
11256,54.3,19.71,0,-0.045899,0,11315,50.837,0,0,0,0,0.029095,1
11256,54.3,19.71,0,-0.045899,0,11315,50.837,0,0,0,0,0.029095,1
11256,54.3,19.71,0,-0.045899,0,11315,50.837,0.36,-0.00023826,4,-0.00652,0.029614,1
11256,54.3,19.71,0,-0.045899,0,11315,50.837,0.36,-0.00023826,4,-0.00652,0.029614,1
11256,54.3,19.71,0,-0.045899,0,11315,50.837,0.44,-0.00042598,4,-0.0097399,0.029729,1
11256,54.3,19.71,0,-0.045899,0,11315,50.837,0.44,-0.00042598,4,-0.0097399,0.029729,1
11256,54.3,19.71,0,-0.045899,0,11315,50.837,0.44,-0.00042598,4,-0.0097399,0.029729,1
11256,54.3,19.71,0,-0.045899,0,11315,50.837,0.44,-0.00042598,4,-0.0097399,0.029729,1
11256,54.3,19.71,0,-0.045899,0,11315,50.837,0.44,-0.00042598,4,-0.0097399,0.029729,1
11258,54.3,19.705,0,-0.04599,0,11315,50.837,0.52,-0.00068843,4,-0.013533,0.030879,1
11258,54.3,19.705,0,-0.04599,0,11315,50.837,0.68,-0.00148,4,-0.022705,0.031113,1
11258,54.3,19.705,0,-0.04599,0,11315,50.837,0.68,-0.00148,4,-0.022705,0.031113,1
11258,54.3,19.705,0,-0.04599,0,11315,50.837,0.68,-0.00148,4,-0.022705,0.031113,1
11258,54.3,19.705,0,-0.04599,0,11315,50.837,0.68,-0.00148,4,-0.022705,0.031113,1
11258,54.3,19.705,0,-0.04599,0,11315,50.837,0.76,-0.0020284,3.9999,-0.028006,0.03123,1
11258,54.3,19.705,0,-0.04599,0,11315,50.837,0.76,-0.0020284,3.9999,-0.028006,0.03123,1
11260,54.3,19.701,0,-0.046077,0,11315,50.837,0.84,-0.00269,3.9999,-0.033725,0.032471,1
11260,54.3,19.701,0,-0.046077,0,11315,50.837,0.84,-0.00269,3.9999,-0.033725,0.032471,1
11260,54.3,19.701,0,-0.046077,0,11315,50.837,0.84,-0.00269,3.9999,-0.033725,0.032471,1
11260,54.3,19.701,0,-0.046077,0,11315,50.837,0.84,-0.00269,3.9999,-0.033725,0.032471,1
11260,54.3,19.701,0,-0.046077,0,11315,50.837,0.84,-0.00269,3.9999,-0.033725,0.032471,1
11260,54.3,19.701,0,-0.046077,0,11315,50.837,0.84,-0.00269,3.9999,-0.033725,0.032471,1
11260,54.3,19.701,0,-0.046077,0,11315,50.837,0.84,-0.00269,3.9999,-0.033725,0.032471,1
11261,54.3,19.7,0,-0.046094,0,11315,50.837,0.84,-0.00269,3.9999,-0.033725,0.032706,1
11261,54.3,19.698,0,-0.046129,0,11315,50.837,1.16,-0.0065992,3.9997,-0.059766,0.03367,1
11261,54.3,19.698,0,-0.046129,0,11315,50.837,1.16,-0.0065992,3.9997,-0.059766,0.03367,1
11261,54.3,19.698,0,-0.046129,0,11315,50.837,1.16,-0.0065992,3.9997,-0.059766,0.03367,1
11261,54.3,19.698,0,-0.046129,0,11315,50.837,1.16,-0.0065992,3.9997,-0.059766,0.03367,1
11261,54.3,19.698,0,-0.046129,0,11315,50.837,1.16,-0.0065992,3.9997,-0.059766,0.03367,1
11261,54.3,19.698,0,-0.046129,0,11315,50.837,1.16,-0.0065992,3.9997,-0.059766,0.03367,1
11261,54.3,19.698,0,-0.046129,0,11315,50.837,1.16,-0.0065992,3.9997,-0.059766,0.03367,1
11262,54.3,19.697,0,-0.046147,0,11315,50.837,1.16,-0.0065992,3.9997,-0.059766,0.033919,1
11262,54.3,19.697,0,-0.046147,0,11315,50.837,1.16,-0.0065992,3.9997,-0.059766,0.033919,1
11262,54.3,19.697,0,-0.046147,0,11315,50.836,1.5599,-0.01459,3.9993,-0.095207,0.034514,1
11262,54.3,19.697,0,-0.046147,0,11315,50.836,1.5599,-0.01459,3.9993,-0.095207,0.034514,1
11262,54.3,19.697,0,-0.046147,0,11315,50.836,1.5599,-0.01459,3.9993,-0.095207,0.034514,1
11262,54.3,19.697,0,-0.046147,0,11315,50.836,1.5599,-0.01459,3.9993,-0.095207,0.034514,1
11262,54.3,19.697,0,-0.046147,0,11315,50.836,1.5599,-0.01459,3.9993,-0.095207,0.034514,1
11262,54.3,19.697,0,-0.046147,0,11315,50.836,1.5599,-0.01459,3.9993,-0.095207,0.034514,1
11262,54.3,19.697,0,-0.046147,0,11315,50.836,1.5599,-0.01459,3.9993,-0.095207,0.034514,1
11262,54.3,19.697,0,-0.046147,0,11315,50.836,1.5599,-0.01459,3.9993,-0.095207,0.034514,1
11262,54.3,19.697,0,-0.046147,0,11315,50.836,1.5599,-0.01459,3.9993,-0.095207,0.034514,1
11263,54.3,19.693,0,-0.046211,0,11315,50.836,1.5599,-0.01459,3.9993,-0.095207,0.035561,1
11265,54.3,19.691,0,-0.04626,0,11315,50.836,1.5599,-0.01459,3.9993,-0.095207,0.036388,1
11265,54.3,19.691,0,-0.04626,0,11315,50.836,1.5599,-0.01459,3.9993,-0.095207,0.036388,1
11265,54.3,19.69,0,-0.046275,0,11315,50.836,1.5599,-0.01459,3.9993,-0.095207,0.036673,1
11266,54.3,19.688,0,-0.046307,0,11315,50.836,1.5599,-0.01459,3.9993,-0.095207,0.037255,1
11266,54.3,19.688,0,-0.046307,0,11316,50.831,2.2797,-0.036936,3.9982,-0.14575,0.038349,1
11267,54.3,19.685,0,-0.046353,0,11316,50.831,2.2797,-0.036936,3.9982,-0.14575,0.039278,1
11267,54.3,19.685,0,-0.046353,0,11316,50.831,2.2797,-0.036936,3.9982,-0.14575,0.039278,1
11267,54.3,19.685,0,-0.046353,0,11316,50.831,2.2797,-0.036936,3.9982,-0.14575,0.039278,1
11267,54.3,19.685,0,-0.046353,0,11316,50.83,2.4396,-0.042878,3.998,-0.15193,0.039516,1
11267,54.3,19.685,0,-0.046353,0,11316,50.83,2.4396,-0.042878,3.998,-0.15193,0.039516,1
11267,54.3,19.685,0,-0.046353,0,11316,50.83,2.4396,-0.042878,3.998,-0.15193,0.039516,1
11267,54.3,19.685,0,-0.046353,0,11316,50.83,2.4396,-0.042878,3.998,-0.15193,0.039516,1
11267,54.3,19.685,0,-0.046353,0,11316,50.83,2.4396,-0.042878,3.998,-0.15193,0.039516,1
11267,54.3,19.685,0,-0.046353,0,11316,50.83,2.4396,-0.042878,3.998,-0.15193,0.039516,1
11267,54.3,19.685,0,-0.046353,0,11316,50.83,2.4396,-0.042878,3.998,-0.15193,0.039516,1
11267,54.3,19.685,0,-0.046353,0,11316,50.83,2.4396,-0.042878,3.998,-0.15193,0.039516,1
11267,54.3,19.685,0,-0.046353,0,11316,50.83,2.4396,-0.042878,3.998,-0.15193,0.039516,1
11268,54.3,19.683,0,-0.046382,0,11316,50.83,2.4396,-0.042878,3.998,-0.15193,0.040163,1
11268,54.3,19.683,0,-0.046382,0,11316,50.83,2.4396,-0.042878,3.998,-0.15193,0.040163,1
11268,54.3,19.683,0,-0.046382,0,11316,50.83,2.4396,-0.042878,3.998,-0.15193,0.040163,1
11268,54.3,19.683,0,-0.046382,0,11316,50.83,2.4396,-0.042878,3.998,-0.15193,0.040163,1
11268,54.3,19.683,0,-0.046382,0,11316,50.83,2.4396,-0.042878,3.998,-0.15193,0.040163,1
11268,54.3,19.683,0,-0.046382,0,11316,50.83,2.4396,-0.042878,3.998,-0.15193,0.040163,1
11268,54.3,19.682,0,-0.046397,0,11316,50.83,2.4396,-0.042878,3.998,-0.15193,0.040494,1
11268,54.3,19.682,0,-0.046397,0,11316,50.827,2.6795,-0.052084,3.9977,-0.15672,0.04085,1
11268,54.3,19.682,0,-0.046397,0,11316,50.827,2.6795,-0.052084,3.9977,-0.15672,0.04085,1
11268,54.3,19.682,0,-0.046397,0,11316,50.827,2.6795,-0.052084,3.9977,-0.15672,0.04085,1
11270,54.3,19.678,0,-0.046467,0,11316,50.826,2.7594,-0.055182,3.9977,-0.15708,0.04272,1
11271,54.3,19.675,0,-0.046509,0,11316,50.821,3.0793,-0.067391,3.9976,-0.15223,0.044319,1
11271,54.3,19.675,0,-0.046509,0,11316,50.821,3.0793,-0.067391,3.9976,-0.15223,0.044319,1
11272,54.3,19.674,0,-0.046523,0,11316,50.821,3.0793,-0.067391,3.9976,-0.15223,0.04471,1
11272,54.3,19.674,0,-0.046523,0,11316,50.815,3.3991,-0.078731,3.9979,-0.1379,0.045166,1
11272,54.3,19.674,0,-0.046523,0,11316,50.815,3.3991,-0.078731,3.9979,-0.1379,0.045166,1
11273,54.3,19.672,0,-0.046547,0,11316,50.815,3.3991,-0.078731,3.9979,-0.1379,0.045971,1
11273,54.3,19.672,0,-0.046547,0,11316,50.815,3.3991,-0.078731,3.9979,-0.1379,0.045971,1
11273,54.3,19.672,0,-0.046547,0,11316,50.815,3.3991,-0.078731,3.9979,-0.1379,0.045971,1
11273,54.3,19.672,0,-0.046547,0,11316,50.815,3.3991,-0.078731,3.9979,-0.1379,0.045971,1
11273,54.3,19.672,0,-0.046547,0,11316,50.815,3.3991,-0.078731,3.9979,-0.1379,0.045971,1
11273,54.3,19.672,0,-0.046547,0,11316,50.815,3.3991,-0.078731,3.9979,-0.1379,0.045971,1
11273,54.3,19.672,0,-0.046547,0,11316,50.815,3.3991,-0.078731,3.9979,-0.1379,0.045971,1
11273,54.3,19.672,0,-0.046547,0,11316,50.815,3.3991,-0.078731,3.9979,-0.1379,0.045971,1
11273,54.3,19.672,0,-0.046547,0,11316,50.815,3.3991,-0.078731,3.9979,-0.1379,0.045971,1
11273,54.3,19.672,0,-0.046547,0,11316,50.811,3.559,-0.083858,3.9981,-0.12759,0.046193,1
11273,54.3,19.672,0,-0.046547,0,11316,50.811,3.559,-0.083858,3.9981,-0.12759,0.046193,1
11273,54.3,19.672,0,-0.046547,0,11316,50.811,3.559,-0.083858,3.9981,-0.12759,0.046193,1
11273,54.3,19.672,0,-0.046547,0,11316,50.811,3.559,-0.083858,3.9981,-0.12759,0.046193,1
11273,54.3,19.672,0,-0.046547,0,11316,50.811,3.559,-0.083858,3.9981,-0.12759,0.046193,1
11273,54.3,19.672,0,-0.046547,0,11316,50.811,3.559,-0.083858,3.9981,-0.12759,0.046193,1
11273,54.3,19.672,0,-0.046547,0,11316,50.811,3.559,-0.083858,3.9981,-0.12759,0.046193,1
11273,54.3,19.672,0,-0.046547,0,11316,50.811,3.559,-0.083858,3.9981,-0.12759,0.046193,1
11273,54.3,19.672,0,-0.046547,0,11317,50.81,3.639,-0.086251,3.9982,-0.12176,0.046302,1
11273,54.3,19.672,0,-0.046547,0,11317,50.81,3.639,-0.086251,3.9982,-0.12176,0.046302,1
11273,54.3,19.672,0,-0.046547,0,11317,50.806,3.7989,-0.090659,3.9985,-0.10888,0.046517,1
11273,54.3,19.672,0,-0.046547,0,11317,50.806,3.7989,-0.090659,3.9985,-0.10888,0.046517,1
11275,54.3,19.666,0,-0.046634,0,11317,50.806,3.7989,-0.090659,3.9985,-0.10888,0.049585,1
11276,54.3,19.665,0,-0.046645,0,11317,50.806,3.7989,-0.090659,3.9985,-0.10888,0.050057,1
11276,54.3,19.665,0,-0.046645,0,11317,50.793,4.3588,-0.10149,3.9998,-0.055184,0.05077,1
11276,54.3,19.665,0,-0.046645,0,11317,50.793,4.3588,-0.10149,3.9998,-0.055184,0.05077,1
11276,54.3,19.665,0,-0.046645,0,11317,50.791,4.4388,-0.1024,4,-0.046928,0.050866,1
11276,54.3,19.665,0,-0.046645,0,11317,50.791,4.4388,-0.1024,4,-0.046928,0.050866,1
11276,54.3,19.665,0,-0.046645,0,11317,50.789,4.5188,-0.10315,4.0002,-0.03864,0.05096,1
11276,54.3,19.665,0,-0.046645,0,11317,50.789,4.5188,-0.10315,4.0002,-0.03864,0.05096,1
11276,54.3,19.665,0,-0.046645,0,11317,50.789,4.5188,-0.10315,4.0002,-0.03864,0.05096,1
11276,54.3,19.665,0,-0.046645,0,11317,50.789,4.5188,-0.10315,4.0002,-0.03864,0.05096,1
11276,54.3,19.665,0,-0.046645,0,11317,50.789,4.5188,-0.10315,4.0002,-0.03864,0.05096,1
11276,54.3,19.665,0,-0.046645,0,11317,50.789,4.5188,-0.10315,4.0002,-0.03864,0.05096,1
11276,54.3,19.665,0,-0.046645,0,11318,50.787,4.5988,-0.10374,4.0003,-0.030355,0.051053,1
11276,54.3,19.665,0,-0.046645,0,11318,50.787,4.5988,-0.10374,4.0003,-0.030355,0.051053,1
11276,54.3,19.665,0,-0.046645,0,11318,50.787,4.5988,-0.10374,4.0003,-0.030355,0.051053,1
11276,54.3,19.665,0,-0.046645,0,11318,50.787,4.5988,-0.10374,4.0003,-0.030355,0.051053,1
11276,54.3,19.665,0,-0.046645,0,11318,50.787,4.5988,-0.10374,4.0003,-0.030355,0.051053,1
11276,54.3,19.665,0,-0.046645,0,11318,50.785,4.6788,-0.10416,4.0005,-0.022108,0.051144,1
11276,54.3,19.665,0,-0.046645,0,11318,50.782,4.7589,-0.10443,4.0007,-0.013932,0.051234,1
11276,54.3,19.665,0,-0.046645,0,11318,50.782,4.7589,-0.10443,4.0007,-0.013932,0.051234,1
11280,54.3,19.654,0,-0.046765,0,11318,50.778,4.9189,-0.10398,4.0013,0.019354,0.057216,1
11280,54.3,19.654,0,-0.046765,0,11318,50.774,5.079,-0.10105,4.0026,0.086701,0.057373,1
11281,54.3,19.653,0,-0.046786,0,11318,50.774,5.079,-0.10105,4.0026,0.086701,0.058569,1
11281,54.3,19.653,0,-0.046786,0,11318,50.77,5.2392,-0.0943,4.0041,0.18728,0.058716,1
11281,54.3,19.653,0,-0.046786,0,11318,50.77,5.2392,-0.0943,4.0041,0.18728,0.058716,1
11281,54.3,19.653,0,-0.046786,0,11318,50.77,5.2392,-0.0943,4.0041,0.18728,0.058716,1
11281,54.3,19.653,0,-0.046786,0,11318,50.769,5.3193,-0.0891,4.0049,0.24952,0.058786,1
11281,54.3,19.653,0,-0.046786,0,11318,50.769,5.3193,-0.0891,4.0049,0.24952,0.058786,1
11281,54.3,19.653,0,-0.046786,0,11318,50.769,5.3193,-0.0891,4.0049,0.24952,0.058786,1
11281,54.3,19.653,0,-0.046786,0,11318,50.769,5.3193,-0.0891,4.0049,0.24952,0.058786,1
11281,54.3,19.653,0,-0.046786,0,11318,50.769,5.3193,-0.0891,4.0049,0.24952,0.058786,1
11281,54.3,19.653,0,-0.046786,0,11318,50.769,5.3193,-0.0891,4.0049,0.24952,0.058786,1
11281,54.3,19.653,0,-0.046786,0,11318,50.769,5.3193,-0.0891,4.0049,0.24952,0.058786,1
11281,54.3,19.653,0,-0.046786,0,11318,50.769,5.3193,-0.0891,4.0049,0.24952,0.058786,1
11282,54.3,19.65,0,-0.046814,0,11318,50.769,5.3193,-0.0891,4.0049,0.24952,0.060666,1
11282,54.3,19.65,0,-0.046814,0,11318,50.769,5.3193,-0.0891,4.0049,0.24952,0.060666,1
11282,54.3,19.65,0,-0.046814,0,11318,50.769,5.3193,-0.0891,4.0049,0.24952,0.060666,1
11282,54.3,19.65,0,-0.046814,0,11318,50.769,5.3193,-0.0891,4.0049,0.24952,0.060666,1
11282,54.3,19.65,0,-0.046814,0,11318,50.769,5.3193,-0.0891,4.0049,0.24952,0.060666,1
11282,54.3,19.65,0,-0.046814,0,11318,50.769,5.3193,-0.0891,4.0049,0.24952,0.060666,1
11282,54.3,19.65,0,-0.046814,0,11318,50.769,5.3193,-0.0891,4.0049,0.24952,0.060666,1
11282,54.3,19.65,0,-0.046814,0,11318,50.769,5.3193,-0.0891,4.0049,0.24952,0.060666,1
11282,54.3,19.65,0,-0.046814,0,11318,50.769,5.3193,-0.0891,4.0049,0.24952,0.060666,1
11282,54.3,19.65,0,-0.046814,0,11319,50.765,5.4795,-0.074307,4.0061,0.39638,0.060795,1
11283,54.3,19.648,0,-0.046831,0,11319,50.765,5.4795,-0.074307,4.0061,0.39638,0.06211,1
11284,54.3,19.644,0,-0.046868,0,11319,50.762,5.7199,-0.039136,4.0055,0.66668,0.06507,1
11284,54.3,19.644,0,-0.046868,0,11319,50.762,5.7199,-0.039136,4.0055,0.66668,0.06507,1
11284,54.3,19.644,0,-0.046868,0,11319,50.761,5.96,0.014304,3.9993,0.98546,0.065201,1
11286,54.3,19.64,0,-0.046903,0,11319,50.761,5.96,0.014304,3.9993,0.98546,0.068223,1
11286,54.3,19.64,0,-0.046903,0,11320,50.767,6.2789,0.1177,3.9764,1.4597,0.068329,1
11286,54.3,19.64,0,-0.046903,0,11320,50.767,6.2789,0.1177,3.9764,1.4597,0.068329,1
11286,54.3,19.64,0,-0.046903,0,11320,50.767,6.2789,0.1177,3.9764,1.4597,0.068329,1
11286,54.3,19.64,0,-0.046903,0,11320,50.767,6.2789,0.1177,3.9764,1.4597,0.068329,1
11286,54.3,19.64,0,-0.046903,0,11320,50.767,6.2789,0.1177,3.9764,1.4597,0.068329,1
11286,54.3,19.64,0,-0.046903,0,11320,50.767,6.2789,0.1177,3.9764,1.4597,0.068329,1
11286,54.3,19.64,0,-0.046903,0,11320,50.767,6.2789,0.1177,3.9764,1.4597,0.068329,1
11286,54.3,19.64,0,-0.046903,0,11320,50.767,6.2789,0.1177,3.9764,1.4597,0.068329,1
11286,54.3,19.64,0,-0.046903,0,11320,50.767,6.2789,0.1177,3.9764,1.4597,0.068329,1
11287,54.3,19.638,0,-0.046917,0,11320,50.767,6.2789,0.1177,3.9764,1.4597,0.069925,1
11287,54.3,19.638,0,-0.046917,0,11320,50.767,6.2789,0.1177,3.9764,1.4597,0.069925,1
11287,54.3,19.638,0,-0.046917,0,11320,50.767,6.2789,0.1177,3.9764,1.4597,0.069925,1
11287,54.3,19.638,0,-0.046925,0,11320,50.767,6.2789,0.1177,3.9764,1.4597,0.070752,1
11287,54.3,19.638,0,-0.046925,0,11320,50.767,6.2789,0.1177,3.9764,1.4597,0.070752,1
11287,54.3,19.638,0,-0.046925,0,11320,50.767,6.2789,0.1177,3.9764,1.4597,0.070752,1
11287,54.3,19.638,0,-0.046925,0,11320,50.767,6.2789,0.1177,3.9764,1.4597,0.070752,1
11287,54.3,19.638,0,-0.046925,0,11320,50.767,6.2789,0.1177,3.9764,1.4597,0.070752,1
11287,54.3,19.638,0,-0.046925,0,11320,50.767,6.2789,0.1177,3.9764,1.4597,0.070752,1
11287,54.3,19.638,0,-0.046925,0,11320,50.767,6.2789,0.1177,3.9764,1.4597,0.070752,1
11287,54.3,19.638,0,-0.046925,0,11320,50.767,6.2789,0.1177,3.9764,1.4597,0.070752,1
11287,54.3,19.637,0,-0.046932,0,11320,50.767,6.2789,0.1177,3.9764,1.4597,0.071597,1
11287,54.3,19.637,0,-0.046932,0,11320,50.767,6.2789,0.1177,3.9764,1.4597,0.071597,1
11287,54.3,19.637,0,-0.046932,0,11321,50.803,6.8288,0.39238,3.8799,2.3174,0.071593,1
11289,54.3,19.632,0,-0.04697,0,11321,50.803,6.8288,0.39238,3.8799,2.3174,0.076012,1
11290,54.3,19.631,0,-0.046977,0,11321,50.803,6.8288,0.39238,3.8799,2.3174,0.076961,1
11290,54.3,19.631,0,-0.046977,0,11321,50.843,7.1348,0.60052,3.7901,2.7619,0.076791,1
11291,54.3,19.628,0,-0.046995,0,11321,50.843,7.1348,0.60052,3.7901,2.7619,0.079726,1
11292,54.3,19.626,0,-0.047006,0,11322,50.87,7.2849,0.71688,3.7373,2.9598,0.08165,1
11292,54.3,19.626,0,-0.047006,0,11322,50.87,7.2849,0.71688,3.7373,2.9598,0.08165,1
11292,54.3,19.626,0,-0.047006,0,11322,50.87,7.2849,0.71688,3.7373,2.9598,0.08165,1
11292,54.3,19.626,0,-0.047006,0,11322,50.87,7.2849,0.71688,3.7373,2.9598,0.08165,1
11292,54.3,19.626,0,-0.047006,0,11322,50.87,7.2849,0.71688,3.7373,2.9598,0.08165,1
11292,54.3,19.626,0,-0.047006,0,11322,50.87,7.2849,0.71688,3.7373,2.9598,0.08165,1
11292,54.3,19.626,0,-0.047006,0,11322,50.87,7.2849,0.71688,3.7373,2.9598,0.08165,1
11292,54.3,19.625,0,-0.047011,0,11322,50.87,7.2849,0.71688,3.7373,2.9598,0.08272,1
11292,54.3,19.625,0,-0.047011,0,11322,50.87,7.2849,0.71688,3.7373,2.9598,0.08272,1
11292,54.3,19.625,0,-0.047011,0,11322,50.87,7.2849,0.71688,3.7373,2.9598,0.08272,1
11292,54.3,19.625,0,-0.047011,0,11322,50.87,7.2849,0.71688,3.7373,2.9598,0.08272,1
11292,54.3,19.625,0,-0.047011,0,11322,50.87,7.2849,0.71688,3.7373,2.9598,0.08272,1
11292,54.3,19.625,0,-0.047011,0,11322,50.87,7.2849,0.71688,3.7373,2.9598,0.08272,1
11292,54.3,19.625,0,-0.047011,0,11322,50.87,7.2849,0.71688,3.7373,2.9598,0.08272,1
11293,54.3,19.624,0,-0.047016,0,11322,50.87,7.2849,0.71688,3.7373,2.9598,0.083818,1
11293,54.3,19.624,0,-0.047016,0,11322,50.87,7.2849,0.71688,3.7373,2.9598,0.083818,1
11293,54.3,19.624,0,-0.047016,0,11322,50.87,7.2849,0.71688,3.7373,2.9598,0.083818,1
11293,54.3,19.624,0,-0.047016,0,11322,50.87,7.2849,0.71688,3.7373,2.9598,0.083818,1
11293,54.3,19.624,0,-0.047016,0,11322,50.87,7.2849,0.71688,3.7373,2.9598,0.083818,1
11293,54.3,19.624,0,-0.047016,0,11322,50.87,7.2849,0.71688,3.7373,2.9598,0.083818,1
11293,54.3,19.623,0,-0.047021,0,11322,50.87,7.2849,0.71688,3.7373,2.9598,0.084946,1
11293,54.3,19.623,0,-0.047021,0,11322,50.87,7.2849,0.71688,3.7373,2.9598,0.084946,1
11293,54.3,19.623,0,-0.047021,0,11322,50.98,7.7213,1.1058,3.5607,3.4283,0.084257,1
11294,54.3,19.621,0,-0.047037,0,11322,50.98,7.7213,1.1058,3.5607,3.4283,0.087694,1
11294,54.3,19.621,0,-0.047037,0,11322,50.98,7.7213,1.1058,3.5607,3.4283,0.087694,1
11294,54.3,19.621,0,-0.047037,0,11323,51.081,8.0004,1.3888,3.4444,3.6088,0.08707,1
11296,54.3,19.615,0,-0.04707,0,11323,51.11,8.0695,1.4576,3.4433,3.4954,0.094408,1
11296,54.3,19.615,0,-0.04707,0,11324,51.204,8.2766,1.6529,3.4445,3.2145,0.093753,1
11296,54.3,19.615,0,-0.04707,0,11324,51.204,8.2766,1.6529,3.4445,3.2145,0.093753,1
11296,54.3,19.615,0,-0.04707,0,11324,51.204,8.2766,1.6529,3.4445,3.2145,0.093753,1
11296,54.3,19.615,0,-0.04707,0,11324,51.204,8.2766,1.6529,3.4445,3.2145,0.093753,1
11296,54.3,19.615,0,-0.04707,0,11324,51.238,8.3457,1.7148,3.446,3.1363,0.093534,1
11296,54.3,19.615,0,-0.04707,0,11324,51.238,8.3457,1.7148,3.446,3.1363,0.093534,1
11296,54.3,19.615,0,-0.04707,0,11324,51.273,8.4148,1.7753,3.4479,3.0641,0.093314,1
11296,54.3,19.615,0,-0.04707,0,11324,51.273,8.4148,1.7753,3.4479,3.0641,0.093314,1
11296,54.3,19.615,0,-0.04707,0,11324,51.273,8.4148,1.7753,3.4479,3.0641,0.093314,1
11296,54.3,19.615,0,-0.04707,0,11324,51.273,8.4148,1.7753,3.4479,3.0641,0.093314,1
11296,54.3,19.615,0,-0.04707,0,11324,51.273,8.4148,1.7753,3.4479,3.0641,0.093314,1
11296,54.3,19.615,0,-0.04707,0,11324,51.273,8.4148,1.7753,3.4479,3.0641,0.093314,1
11296,54.3,19.615,0,-0.04707,0,11324,51.273,8.4148,1.7753,3.4479,3.0641,0.093314,1
11296,54.3,19.615,0,-0.04707,0,11324,51.273,8.4148,1.7753,3.4479,3.0641,0.093314,1
11296,54.3,19.615,0,-0.04707,0,11324,51.273,8.4148,1.7753,3.4479,3.0641,0.093314,1
11298,54.3,19.611,0,-0.047082,0,11324,51.273,8.4148,1.7753,3.4479,3.0641,0.098836,1
11298,54.3,19.611,0,-0.047082,0,11324,51.347,8.5532,1.8925,3.4528,2.9341,0.098305,1
11298,54.3,19.611,0,-0.047082,0,11324,51.347,8.5532,1.8925,3.4528,2.9341,0.098305,1
11298,54.3,19.611,0,-0.047082,0,11324,51.347,8.5532,1.8925,3.4528,2.9341,0.098305,1
11298,54.3,19.611,0,-0.047082,0,11324,51.347,8.5532,1.8925,3.4528,2.9341,0.098305,1
11298,54.3,19.611,0,-0.047082,0,11325,51.386,8.6224,1.9493,3.4559,2.8749,0.098039,1
11300,54.3,19.606,0,-0.047097,0,11325,51.425,8.6917,2.0051,3.4593,2.8189,0.10704,1
11300,54.3,19.606,0,-0.047097,0,11325,51.595,8.9698,2.2181,3.4766,2.6171,0.10564,1
11302,54.3,19.603,0,-0.047103,0,11326,51.64,9.0396,2.269,3.4819,2.5704,0.11035,1
11302,54.3,19.603,0,-0.047103,0,11326,51.64,9.0396,2.269,3.4819,2.5704,0.11035,1
11302,54.3,19.603,0,-0.047103,0,11326,51.733,9.1795,2.3681,3.4939,2.4794,0.10956,1
11302,54.3,19.603,0,-0.047103,0,11326,51.733,9.1795,2.3681,3.4939,2.4794,0.10956,1
11302,54.3,19.603,0,-0.047103,0,11326,51.733,9.1795,2.3681,3.4939,2.4794,0.10956,1
11302,54.3,19.603,0,-0.047103,0,11326,51.733,9.1795,2.3681,3.4939,2.4794,0.10956,1
11302,54.3,19.603,0,-0.047103,0,11326,51.733,9.1795,2.3681,3.4939,2.4794,0.10956,1
11302,54.3,19.603,0,-0.047103,0,11326,51.733,9.1795,2.3681,3.4939,2.4794,0.10956,1
11302,54.3,19.603,0,-0.047103,0,11326,51.733,9.1795,2.3681,3.4939,2.4794,0.10956,1
11302,54.3,19.603,0,-0.047103,0,11326,51.733,9.1795,2.3681,3.4939,2.4794,0.10956,1
11302,54.3,19.603,0,-0.047103,0,11326,51.733,9.1795,2.3681,3.4939,2.4794,0.10956,1
11302,54.3,19.601,0,-0.047107,0,11326,51.733,9.1795,2.3681,3.4939,2.4794,0.11313,1
11302,54.3,19.601,0,-0.047107,0,11326,51.733,9.1795,2.3681,3.4939,2.4794,0.11313,1
11302,54.3,19.601,0,-0.047107,0,11326,51.733,9.1795,2.3681,3.4939,2.4794,0.11313,1
11302,54.3,19.601,0,-0.047107,0,11326,51.733,9.1795,2.3681,3.4939,2.4794,0.11313,1
11302,54.3,19.601,0,-0.047107,0,11326,51.733,9.1795,2.3681,3.4939,2.4794,0.11313,1
11302,54.3,19.601,0,-0.047107,0,11326,51.733,9.1795,2.3681,3.4939,2.4794,0.11313,1
11302,54.3,19.601,0,-0.047107,0,11326,51.733,9.1795,2.3681,3.4939,2.4794,0.11313,1
11302,54.3,19.601,0,-0.047107,0,11326,51.733,9.1795,2.3681,3.4939,2.4794,0.11313,1
11302,54.3,19.601,0,-0.047107,0,11326,51.733,9.1795,2.3681,3.4939,2.4794,0.11313,1
11302,54.3,19.601,0,-0.047107,0,11326,51.733,9.1795,2.3681,3.4939,2.4794,0.11313,1
11302,54.3,19.601,0,-0.047107,0,11326,51.83,9.3199,2.4637,3.5077,2.3902,0.11227,1
11302,54.3,19.601,0,-0.047107,0,11326,51.83,9.3199,2.4637,3.5077,2.3902,0.11227,1
11302,54.3,19.601,0,-0.047107,0,11326,51.83,9.3199,2.4637,3.5077,2.3902,0.11227,1
11303,54.3,19.599,0,-0.04711,0,11326,51.83,9.3199,2.4637,3.5077,2.3902,0.11599,1
11303,54.3,19.599,0,-0.04711,0,11326,51.83,9.3199,2.4637,3.5077,2.3902,0.11599,1
11305,54.3,18.898,0,-10,0,11327,52.035,9.6026,2.6443,3.5412,2.2122,0.12186,1
11306,54.3,18.298,0,-10,0,11327,52.035,9.6026,2.6443,3.5412,2.2122,0.12813,1
11306,54.3,18.298,0,-10,0,11327,52.035,9.6026,2.6443,3.5412,2.2122,0.12813,1
11307,54.3,17.898,0,-10,0,11328,52.31,9.9603,2.8499,3.5945,1.9813,0.12916,1
11307,54.3,17.898,0,-10,0,11329,52.426,10.105,2.9255,3.6193,1.8845,0.12784,1
11307,54.3,17.498,0,-10,0,11329,52.426,10.105,2.9255,3.6193,1.8845,0.13204,1
11307,54.3,17.498,0,-10,0,11329,52.426,10.105,2.9255,3.6193,1.8845,0.13204,1
11307,54.3,17.498,0,-10,0,11329,52.426,10.105,2.9255,3.6193,1.8845,0.13204,1
11307,54.3,17.498,0,-10,0,11329,52.426,10.105,2.9255,3.6193,1.8845,0.13204,1
11307,54.3,17.498,0,-10,0,11329,52.426,10.105,2.9255,3.6193,1.8845,0.13204,1
11307,54.3,17.498,0,-10,0,11329,52.426,10.105,2.9255,3.6193,1.8845,0.13204,1
11308,54.3,17.298,0,-10,0,11329,52.426,10.105,2.9255,3.6193,1.8845,0.13421,1
11308,54.3,17.298,0,-10,0,11329,52.426,10.105,2.9255,3.6193,1.8845,0.13421,1
11308,54.3,17.298,0,-10,0,11329,52.426,10.105,2.9255,3.6193,1.8845,0.13421,1
11308,54.3,17.298,0,-10,0,11329,52.426,10.105,2.9255,3.6193,1.8845,0.13421,1
11308,54.3,17.298,0,-10,0,11329,52.426,10.105,2.9255,3.6193,1.8845,0.13421,1
11308,54.3,17.298,0,-10,0,11329,52.426,10.105,2.9255,3.6193,1.8845,0.13421,1
11308,54.3,17.298,0,-10,0,11329,52.426,10.105,2.9255,3.6193,1.8845,0.13421,1
11308,54.3,17.098,0,-10,0,11329,52.426,10.105,2.9255,3.6193,1.8845,0.13643,1
11308,54.3,17.098,0,-10,0,11329,52.426,10.105,2.9255,3.6193,1.8845,0.13643,1
11308,54.3,17.098,0,-10,0,11329,52.426,10.105,2.9255,3.6193,1.8845,0.13643,1
11308,54.3,17.098,0,-10,0,11329,52.426,10.105,2.9255,3.6193,1.8845,0.13643,1
11308,54.3,17.098,0,-10,0,11329,52.426,10.105,2.9255,3.6193,1.8845,0.13643,1
11308,54.3,17.098,0,-10,0,11329,52.426,10.105,2.9255,3.6193,1.8845,0.13643,1
11308,54.3,16.898,0,-10,0,11329,52.426,10.105,2.9255,3.6193,1.8845,0.13869,1
11308,54.3,16.898,0,-10,0,11330,52.79,10.546,3.1282,3.7055,1.5743,0.13396,1
11308,54.3,16.898,0,-10,0,11330,52.853,10.62,3.1582,3.7214,1.5195,0.1332,1
11310,54.3,15.698,0,-10,0,11330,52.853,10.62,3.1582,3.7214,1.5195,0.14629,1
11311,54.3,15.498,0,-10,0,11330,52.853,10.62,3.1582,3.7214,1.5195,0.14862,1
11311,54.3,15.498,0,-10,0,11330,52.853,10.62,3.1582,3.7214,1.5195,0.14862,1
11311,54.3,15.498,0,-10,0,11331,53.236,10.635,3.219,-0.15029,0.49735,0.13986,1
11311,54.3,14.898,0,-10,0,11331,53.236,10.635,3.219,-0.15029,0.49735,0.14628,1
11311,54.3,14.898,0,-10,0,11331,53.236,10.635,3.219,-0.15029,0.49735,0.14628,1
11311,54.3,14.898,0,-10,0,11331,53.236,10.635,3.219,-0.15029,0.49735,0.14628,1
11311,54.3,14.898,0,-10,0,11331,53.236,10.635,3.219,-0.15029,0.49735,0.14628,1
11311,54.3,14.898,0,-10,0,11331,53.236,10.635,3.219,-0.15029,0.49735,0.14628,1
11311,54.3,14.898,0,-10,0,11331,53.236,10.635,3.219,-0.15029,0.49735,0.14628,1
11311,54.3,14.898,0,-10,0,11331,53.236,10.635,3.219,-0.15029,0.49735,0.14628,1
11312,54.3,14.698,0,-10,0,11331,53.236,10.635,3.219,-0.15029,0.49735,0.14849,1
11312,54.3,14.698,0,-10,0,11331,53.236,10.635,3.219,-0.15029,0.49735,0.14849,1
11312,54.3,14.698,0,-10,0,11331,53.236,10.635,3.219,-0.15029,0.49735,0.14849,1
11312,54.3,14.498,0,-10,0,11331,53.236,10.635,3.219,-0.15029,0.49735,0.15073,1
11312,54.3,14.498,0,-10,0,11331,53.236,10.635,3.219,-0.15029,0.49735,0.15073,1
11312,54.3,14.498,0,-10,0,11331,53.236,10.635,3.219,-0.15029,0.49735,0.15073,1
11312,54.3,14.498,0,-10,0,11331,53.236,10.635,3.219,-0.15029,0.49735,0.15073,1
11312,54.3,14.498,0,-10,0,11331,53.236,10.635,3.219,-0.15029,0.49735,0.15073,1
11312,54.3,14.498,0,-10,0,11331,53.236,10.635,3.219,-0.15029,0.49735,0.15073,1
11312,54.3,14.498,0,-10,0,11331,53.236,10.635,3.219,-0.15029,0.49735,0.15073,1
11312,54.3,14.498,0,-10,0,11332,53.495,10.622,3.2601,-0.15622,0.50987,0.14441,1
11312,54.3,14.498,0,-10,0,11332,53.495,10.622,3.2601,-0.15622,0.50987,0.14441,1
11313,54.3,13.726,0,-8.9874,0,11332,53.495,10.622,3.2601,-0.15622,0.50987,0.153,1
11313,54.3,13.55,0,-8.6295,0,11332,53.495,10.622,3.2601,-0.15622,0.50987,0.15523,1
11314,54.3,13.381,0,-8.2906,0,11332,53.495,10.622,3.2601,-0.15622,0.50987,0.1575,1
11314,54.3,12.912,0,-7.3771,0,11334,53.957,10.604,3.3198,-0.10812,0.34573,0.15179,1
11314,54.3,12.912,0,-7.3771,0,11334,54.09,10.6,3.3309,-0.083478,0.26589,0.14849,1
11314,54.3,12.912,0,-7.3771,0,11334,54.09,10.6,3.3309,-0.083478,0.26589,0.14849,1
11314,54.3,12.912,0,-7.3771,0,11334,54.09,10.6,3.3309,-0.083478,0.26589,0.14849,1
11314,54.3,12.912,0,-7.3771,0,11334,54.09,10.6,3.3309,-0.083478,0.26589,0.14849,1
11314,54.3,12.912,0,-7.3771,0,11334,54.09,10.6,3.3309,-0.083478,0.26589,0.14849,1
11314,54.3,12.912,0,-7.3771,0,11334,54.09,10.6,3.3309,-0.083478,0.26589,0.14849,1
11314,54.3,12.912,0,-7.3771,0,11334,54.09,10.6,3.3309,-0.083478,0.26589,0.14849,1
11314,54.3,12.912,0,-7.3771,0,11334,54.156,10.599,3.3351,-0.069679,0.2216,0.14689,1
11314,54.3,12.912,0,-7.3771,0,11334,54.156,10.599,3.3351,-0.069679,0.2216,0.14689,1
11314,54.3,12.912,0,-7.3771,0,11334,54.156,10.599,3.3351,-0.069679,0.2216,0.14689,1
11314,54.3,12.912,0,-7.3771,0,11334,54.156,10.599,3.3351,-0.069679,0.2216,0.14689,1
11314,54.3,12.912,0,-7.3771,0,11334,54.156,10.599,3.3351,-0.069679,0.2216,0.14689,1
11314,54.3,12.912,0,-7.3771,0,11334,54.156,10.599,3.3351,-0.069679,0.2216,0.14689,1
11314,54.3,12.912,0,-7.3771,0,11334,54.156,10.599,3.3351,-0.069679,0.2216,0.14689,1
11314,54.3,12.912,0,-7.3771,0,11334,54.156,10.599,3.3351,-0.069679,0.2216,0.14689,1
11315,54.3,12.493,0,-6.5937,0,11334,54.156,10.599,3.3351,-0.069679,0.2216,0.15279,1
11315,54.3,12.493,0,-6.5937,0,11334,54.156,10.599,3.3351,-0.069679,0.2216,0.15279,1
11315,54.3,12.493,0,-6.5937,0,11334,54.156,10.599,3.3351,-0.069679,0.2216,0.15279,1
11315,54.3,12.493,0,-6.5937,0,11334,54.156,10.599,3.3351,-0.069679,0.2216,0.15279,1
11315,54.3,12.493,0,-6.5937,0,11334,54.156,10.599,3.3351,-0.069679,0.2216,0.15279,1
11315,54.3,12.493,0,-6.5937,0,11334,54.156,10.599,3.3351,-0.069679,0.2216,0.15279,1
11315,54.3,12.493,0,-6.5937,0,11334,54.156,10.599,3.3351,-0.069679,0.2216,0.15279,1
11315,54.3,12.493,0,-6.5937,0,11334,54.156,10.599,3.3351,-0.069679,0.2216,0.15279,1
11315,54.3,12.493,0,-6.5937,0,11334,54.156,10.599,3.3351,-0.069679,0.2216,0.15279,1
11316,54.3,12.118,0,-5.9153,0,11335,54.29,10.597,3.3406,-0.039457,0.12522,0.15536,1
11317,54.3,11.677,0,-5.1421,0,11335,54.49,10.597,3.341,0.011457,-0.036334,0.15802,1
11317,54.3,11.677,0,-5.1421,0,11336,54.757,10.602,3.325,0.087049,-0.27731,0.15102,1
11318,54.3,11.292,0,-4.4885,0,11336,54.757,10.602,3.325,0.087049,-0.27731,0.15861,1
11318,54.3,11.292,0,-4.4885,0,11336,54.757,10.602,3.325,0.087049,-0.27731,0.15861,1
11318,54.3,11.292,0,-4.4885,0,11337,55.022,10.613,3.2884,0.16773,-0.54037,0.15156,1
11318,54.3,11.292,0,-4.4885,0,11337,55.022,10.613,3.2884,0.16773,-0.54037,0.15156,1
11318,54.3,11.292,0,-4.4885,0,11337,55.022,10.613,3.2884,0.16773,-0.54037,0.15156,1
11318,54.3,11.292,0,-4.4885,0,11337,55.022,10.613,3.2884,0.16773,-0.54037,0.15156,1
11318,54.3,11.292,0,-4.4885,0,11337,55.022,10.613,3.2884,0.16773,-0.54037,0.15156,1
11318,54.3,11.292,0,-4.4885,0,11337,55.022,10.613,3.2884,0.16773,-0.54037,0.15156,1
11318,54.3,11.292,0,-4.4885,0,11337,55.022,10.613,3.2884,0.16773,-0.54037,0.15156,1
11318,54.3,11.292,0,-4.4885,0,11337,55.022,10.613,3.2884,0.16773,-0.54037,0.15156,1
11318,54.3,11.292,0,-4.4885,0,11337,55.022,10.613,3.2884,0.16773,-0.54037,0.15156,1
11318,54.3,11.119,0,-4.1986,0,11337,55.022,10.613,3.2884,0.16773,-0.54037,0.15519,1
11318,54.3,11.119,0,-4.1986,0,11337,55.022,10.613,3.2884,0.16773,-0.54037,0.15519,1
11318,54.3,11.119,0,-4.1986,0,11337,55.022,10.613,3.2884,0.16773,-0.54037,0.15519,1
11318,54.3,11.119,0,-4.1986,0,11337,55.022,10.613,3.2884,0.16773,-0.54037,0.15519,1
11318,54.3,11.119,0,-4.1986,0,11337,55.022,10.613,3.2884,0.16773,-0.54037,0.15519,1
11318,54.3,11.119,0,-4.1986,0,11337,55.022,10.613,3.2884,0.16773,-0.54037,0.15519,1
11318,54.3,11.119,0,-4.1986,0,11337,55.022,10.613,3.2884,0.16773,-0.54037,0.15519,1
11318,54.3,11.119,0,-4.1986,0,11337,55.022,10.613,3.2884,0.16773,-0.54037,0.15519,1
11318,54.3,11.119,0,-4.1986,0,11337,55.022,10.613,3.2884,0.16773,-0.54037,0.15519,1
11318,54.3,11.119,0,-4.1986,0,11337,55.152,10.621,3.262,0.20874,-0.67813,0.15174,1
11318,54.3,11.119,0,-4.1986,0,11337,55.152,10.621,3.262,0.20874,-0.67813,0.15174,1
11318,54.3,11.119,0,-4.1986,0,11337,55.152,10.621,3.262,0.20874,-0.67813,0.15174,1
11319,54.3,10.956,0,-3.9119,0,11337,55.152,10.621,3.262,0.20874,-0.67813,0.15532,1
11319,54.3,10.956,0,-3.9119,0,11337,55.152,10.621,3.262,0.20874,-0.67813,0.15532,1
11319,54.3,10.956,0,-3.9119,0,11338,55.474,10.649,3.1711,0.30935,-1.0351,0.14698,1
11320,54.3,10.634,0,-2.5156,0,11338,55.474,10.649,3.1711,0.30935,-1.0351,0.15543,1
11320,54.3,10.634,0,-2.5156,0,11338,55.474,10.649,3.1711,0.30935,-1.0351,0.15543,1
11320,54.3,10.634,0,-2.5156,0,11339,55.723,10.678,3.0722,0.38405,-1.3286,0.14869,1
11320,54.3,10.634,0,-2.5156,0,11340,55.845,10.695,3.0139,0.41827,-1.4764,0.14554,1
11320,54.3,10.634,0,-2.5156,0,11340,55.845,10.695,3.0139,0.41827,-1.4764,0.14554,1
11320,54.3,10.634,0,-2.5156,0,11340,55.905,10.703,2.9826,0.43441,-1.5503,0.14401,1
11320,54.3,10.634,0,-2.5156,0,11340,55.905,10.703,2.9826,0.43441,-1.5503,0.14401,1
11320,54.3,10.634,0,-2.5156,0,11340,55.905,10.703,2.9826,0.43441,-1.5503,0.14401,1
11320,54.3,10.634,0,-2.5156,0,11340,55.905,10.703,2.9826,0.43441,-1.5503,0.14401,1
11320,54.3,10.634,0,-2.5156,0,11340,55.905,10.703,2.9826,0.43441,-1.5503,0.14401,1
11320,54.3,10.634,0,-2.5156,0,11340,55.905,10.703,2.9826,0.43441,-1.5503,0.14401,1
11320,54.3,10.634,0,-2.5156,0,11340,55.905,10.703,2.9826,0.43441,-1.5503,0.14401,1
11320,54.3,10.634,0,-2.5156,0,11340,55.964,10.712,2.9497,0.44985,-1.6241,0.14253,1
11320,54.3,10.634,0,-2.5156,0,11340,56.022,10.722,2.9154,0.46452,-1.6977,0.14107,1
11320,54.3,10.634,0,-2.5156,0,11340,56.022,10.722,2.9154,0.46452,-1.6977,0.14107,1
11320,54.3,10.634,0,-2.5156,0,11341,56.08,10.731,2.8796,0.4784,-1.7712,0.13964,1
11320,54.3,10.634,0,-2.5156,0,11341,56.08,10.731,2.8796,0.4784,-1.7712,0.13964,1
11320,54.3,10.634,0,-2.5156,0,11341,56.137,10.741,2.8424,0.49143,-1.8443,0.13825,1
11322,54.3,10.577,0,3.2447,0,11341,56.137,10.741,2.8424,0.49143,-1.8443,0.15679,1
11322,54.3,10.577,0,3.2447,0,11341,56.137,10.741,2.8424,0.49143,-1.8443,0.15679,1
11322,54.3,10.577,0,3.2447,0,11341,56.303,10.773,2.722,0.52503,-2.0613,0.15161,1
11322,54.3,10.577,0,3.2447,0,11341,56.303,10.773,2.722,0.52503,-2.0613,0.15161,1
11322,54.3,10.577,0,3.2447,0,11342,56.357,10.783,2.679,0.53427,-2.1325,0.14996,1
11322,54.3,10.577,0,3.2447,0,11342,56.41,10.794,2.6346,0.54248,-2.2031,0.14834,1
11322,54.3,10.577,0,3.2447,0,11342,56.41,10.794,2.6346,0.54248,-2.2031,0.14834,1
11322,54.3,10.577,0,3.2447,0,11342,56.41,10.794,2.6346,0.54248,-2.2031,0.14834,1
11322,54.3,10.577,0,3.2447,0,11342,56.41,10.794,2.6346,0.54248,-2.2031,0.14834,1
11322,54.3,10.577,0,3.2447,0,11342,56.41,10.794,2.6346,0.54248,-2.2031,0.14834,1
11322,54.3,10.577,0,3.2447,0,11342,56.41,10.794,2.6346,0.54248,-2.2031,0.14834,1
11323,54.3,10.835,0,3.2142,0,11342,56.41,10.794,2.6346,0.54248,-2.2031,0.15502,1
11323,54.3,10.835,0,3.2142,0,11342,56.41,10.794,2.6346,0.54248,-2.2031,0.15502,1
11323,54.3,10.835,0,3.2142,0,11342,56.41,10.794,2.6346,0.54248,-2.2031,0.15502,1
11323,54.3,10.899,0,3.2063,0,11342,56.41,10.794,2.6346,0.54248,-2.2031,0.1568,1
11324,54.3,10.963,0,3.1983,0,11342,56.41,10.794,2.6346,0.54248,-2.2031,0.15864,1
11324,54.3,10.963,0,3.1983,0,11342,56.41,10.794,2.6346,0.54248,-2.2031,0.15864,1
11324,54.3,10.963,0,3.1983,0,11342,56.41,10.794,2.6346,0.54248,-2.2031,0.15864,1
11324,54.3,10.963,0,3.1983,0,11342,56.41,10.794,2.6346,0.54248,-2.2031,0.15864,1
11324,54.3,11.091,0,3.1819,0,11342,56.41,10.794,2.6346,0.54248,-2.2031,0.16249,1
11324,54.3,11.091,0,3.1819,0,11343,56.708,10.862,2.3395,0.56847,-2.6089,0.15174,1
11325,54.3,11.218,0,3.165,0,11343,56.708,10.862,2.3395,0.56847,-2.6089,0.15528,1
11325,54.3,11.218,0,3.165,0,11344,56.798,10.885,2.2307,0.56779,-2.7356,0.15186,1
11325,54.3,11.218,0,3.165,0,11344,56.798,10.885,2.2307,0.56779,-2.7356,0.15186,1
11325,54.3,11.218,0,3.165,0,11344,56.842,10.896,2.1745,0.56565,-2.797,0.1502,1
11325,54.3,11.407,0,3.1388,0,11344,56.842,10.896,2.1745,0.56565,-2.797,0.15552,1
11325,54.3,11.47,0,3.1298,0,11344,56.842,10.896,2.1745,0.56565,-2.797,0.1574,1
11325,54.3,11.47,0,3.1298,0,11344,56.842,10.896,2.1745,0.56565,-2.797,0.1574,1
11325,54.3,11.47,0,3.1298,0,11344,56.842,10.896,2.1745,0.56565,-2.797,0.1574,1
11325,54.3,11.47,0,3.1298,0,11344,56.842,10.896,2.1745,0.56565,-2.797,0.1574,1
11325,54.3,11.47,0,3.1298,0,11344,56.842,10.896,2.1745,0.56565,-2.797,0.1574,1
11325,54.3,11.47,0,3.1298,0,11344,56.842,10.896,2.1745,0.56565,-2.797,0.1574,1
11325,54.3,11.47,0,3.1298,0,11344,56.842,10.896,2.1745,0.56565,-2.797,0.1574,1
11325,54.3,11.47,0,3.1298,0,11344,56.842,10.896,2.1745,0.56565,-2.797,0.1574,1
11326,54.3,11.532,0,3.1207,0,11344,56.842,10.896,2.1745,0.56565,-2.797,0.15933,1
11326,54.3,11.594,0,3.1115,0,11344,56.842,10.896,2.1745,0.56565,-2.797,0.16133,1
11326,54.3,11.594,0,3.1115,0,11344,56.842,10.896,2.1745,0.56565,-2.797,0.16133,1
11326,54.3,11.594,0,3.1115,0,11344,56.842,10.896,2.1745,0.56565,-2.797,0.16133,1
11326,54.3,11.594,0,3.1115,0,11344,56.842,10.896,2.1745,0.56565,-2.797,0.16133,1
11326,54.3,11.594,0,3.1115,0,11344,56.842,10.896,2.1745,0.56565,-2.797,0.16133,1
11326,54.3,11.594,0,3.1115,0,11344,56.842,10.896,2.1745,0.56565,-2.797,0.16133,1
11326,54.3,11.594,0,3.1115,0,11344,56.842,10.896,2.1745,0.56565,-2.797,0.16133,1
11326,54.3,11.594,0,3.1115,0,11344,56.842,10.896,2.1745,0.56565,-2.797,0.16133,1
11326,54.3,11.594,0,3.1115,0,11344,56.842,10.896,2.1745,0.56565,-2.797,0.16133,1
11327,54.3,11.842,0,3.0733,0,11345,57.043,10.952,1.876,0.53687,-3.082,0.16003,1
11327,54.3,11.842,0,3.0733,0,11345,57.043,10.952,1.876,0.53687,-3.082,0.16003,1
11327,54.3,11.842,0,3.0733,0,11345,57.043,10.952,1.876,0.53687,-3.082,0.16003,1
11327,54.3,11.903,0,3.0635,0,11345,57.043,10.952,1.876,0.53687,-3.082,0.16208,1
11327,54.3,11.903,0,3.0635,0,11345,57.043,10.952,1.876,0.53687,-3.082,0.16208,1
11327,54.3,11.964,0,3.0536,0,11345,57.043,10.952,1.876,0.53687,-3.082,0.1642,1
11327,54.3,11.964,0,3.0536,0,11345,57.043,10.952,1.876,0.53687,-3.082,0.1642,1
11327,54.3,11.964,0,3.0536,0,11347,57.3,11.027,1.3671,0.39741,-3.1325,0.14988,1
11327,54.3,11.964,0,3.0536,0,11347,57.3,11.027,1.3671,0.39741,-3.1325,0.14988,1
11327,54.3,11.964,0,3.0536,0,11347,57.3,11.027,1.3671,0.39741,-3.1325,0.14988,1
11327,54.3,11.964,0,3.0536,0,11347,57.3,11.027,1.3671,0.39741,-3.1325,0.14988,1
11327,54.3,11.964,0,3.0536,0,11347,57.3,11.027,1.3671,0.39741,-3.1325,0.14988,1
11327,54.3,11.964,0,3.0536,0,11347,57.3,11.027,1.3671,0.39741,-3.1325,0.14988,1
11327,54.3,11.964,0,3.0536,0,11347,57.3,11.027,1.3671,0.39741,-3.1325,0.14988,1
11329,54.3,12.267,0,3.002,0,11347,57.327,11.034,1.3056,0.37407,-3.0874,0.15765,1
11329,54.3,12.267,0,3.002,0,11347,57.376,11.048,1.186,0.32746,-2.9749,0.1541,1
11329,54.3,12.267,0,3.002,0,11348,57.399,11.054,1.1281,0.30466,-2.9094,0.15238,1
11329,54.3,12.267,0,3.002,0,11348,57.421,11.059,1.0717,0.28245,-2.8389,0.1507,1
11330,54.3,12.565,0,2.9475,0,11348,57.421,11.059,1.0717,0.28245,-2.8389,0.16063,1
11330,54.3,12.623,0,2.9362,0,11348,57.421,11.059,1.0717,0.28245,-2.8389,0.1628,1
11330,54.3,12.623,0,2.9362,0,11348,57.421,11.059,1.0717,0.28245,-2.8389,0.1628,1
11330,54.3,12.623,0,2.9362,0,11348,57.421,11.059,1.0717,0.28245,-2.8389,0.1628,1
11330,54.3,12.623,0,2.9362,0,11348,57.421,11.059,1.0717,0.28245,-2.8389,0.1628,1
11330,54.3,12.623,0,2.9362,0,11348,57.421,11.059,1.0717,0.28245,-2.8389,0.1628,1
11330,54.3,12.623,0,2.9362,0,11348,57.421,11.059,1.0717,0.28245,-2.8389,0.1628,1
11330,54.3,12.623,0,2.9362,0,11348,57.421,11.059,1.0717,0.28245,-2.8389,0.1628,1
11330,54.3,12.623,0,2.9362,0,11348,57.421,11.059,1.0717,0.28245,-2.8389,0.1628,1
11330,54.3,12.623,0,2.9362,0,11348,57.421,11.059,1.0717,0.28245,-2.8389,0.1628,1
11330,54.3,12.623,0,2.9362,0,11348,57.421,11.059,1.0717,0.28245,-2.8389,0.1628,1
11330,54.3,12.623,0,2.9362,0,11349,57.497,11.078,0.86174,0.20192,-2.5214,0.15539,1
11330,54.3,12.623,0,2.9362,0,11349,57.497,11.078,0.86174,0.20192,-2.5214,0.15539,1
11330,54.3,12.623,0,2.9362,0,11349,57.497,11.078,0.86174,0.20192,-2.5214,0.15539,1
11330,54.3,12.623,0,2.9362,0,11349,57.497,11.078,0.86174,0.20192,-2.5214,0.15539,1
11330,54.3,12.623,0,2.9362,0,11349,57.497,11.078,0.86174,0.20192,-2.5214,0.15539,1
11330,54.3,12.623,0,2.9362,0,11349,57.497,11.078,0.86174,0.20192,-2.5214,0.15539,1
11330,54.3,12.623,0,2.9362,0,11349,57.497,11.078,0.86174,0.20192,-2.5214,0.15539,1
11330,54.3,12.623,0,2.9362,0,11349,57.497,11.078,0.86174,0.20192,-2.5214,0.15539,1
11331,54.3,12.74,0,2.9134,0,11349,57.497,11.078,0.86174,0.20192,-2.5214,0.15953,1
11331,54.3,12.74,0,2.9134,0,11349,57.497,11.078,0.86174,0.20192,-2.5214,0.15953,1
11331,54.3,12.914,0,2.8783,0,11349,57.529,11.085,0.76687,0.16761,-2.3503,0.16229,1
11332,54.3,13.086,0,2.8422,0,11350,57.582,11.095,0.59796,0.11159,-2.0033,0.16131,1
11332,54.3,13.086,0,2.8422,0,11351,57.624,11.102,0.45626,0.071076,-1.6683,0.15403,1
11332,54.3,13.086,0,2.8422,0,11351,57.624,11.102,0.45626,0.071076,-1.6683,0.15403,1
11332,54.3,13.086,0,2.8422,0,11351,57.624,11.102,0.45626,0.071076,-1.6683,0.15403,1
11332,54.3,13.086,0,2.8422,0,11351,57.624,11.102,0.45626,0.071076,-1.6683,0.15403,1
11332,54.3,13.086,0,2.8422,0,11351,57.624,11.102,0.45626,0.071076,-1.6683,0.15403,1
11332,54.3,13.086,0,2.8422,0,11351,57.632,11.103,0.4249,0.063059,-1.5883,0.1523,1
11332,54.3,13.086,0,2.8422,0,11351,57.632,11.103,0.4249,0.063059,-1.5883,0.1523,1
11332,54.3,13.086,0,2.8422,0,11351,57.632,11.103,0.4249,0.063059,-1.5883,0.1523,1
11332,54.3,13.086,0,2.8422,0,11351,57.632,11.103,0.4249,0.063059,-1.5883,0.1523,1
11332,54.3,13.086,0,2.8422,0,11351,57.632,11.103,0.4249,0.063059,-1.5883,0.1523,1
11332,54.3,13.086,0,2.8422,0,11351,57.632,11.103,0.4249,0.063059,-1.5883,0.1523,1
11332,54.3,13.086,0,2.8422,0,11351,57.632,11.103,0.4249,0.063059,-1.5883,0.1523,1
11332,54.3,13.086,0,2.8422,0,11351,57.632,11.103,0.4249,0.063059,-1.5883,0.1523,1
11333,54.3,13.367,0,2.7799,0,11351,57.632,11.103,0.4249,0.063059,-1.5883,0.16309,1
11333,54.3,13.367,0,2.7799,0,11351,57.632,11.103,0.4249,0.063059,-1.5883,0.16309,1
11333,54.3,13.367,0,2.7799,0,11351,57.632,11.103,0.4249,0.063059,-1.5883,0.16309,1
11333,54.3,13.367,0,2.7799,0,11351,57.632,11.103,0.4249,0.063059,-1.5883,0.16309,1
11333,54.3,13.367,0,2.7799,0,11351,57.632,11.103,0.4249,0.063059,-1.5883,0.16309,1
11333,54.3,13.367,0,2.7799,0,11351,57.632,11.103,0.4249,0.063059,-1.5883,0.16309,1
11333,54.3,13.367,0,2.7799,0,11351,57.632,11.103,0.4249,0.063059,-1.5883,0.16309,1
11334,54.3,13.422,0,2.7671,0,11351,57.632,11.103,0.4249,0.063059,-1.5883,0.16545,1
11334,54.3,13.422,0,2.7671,0,11352,57.655,11.106,0.33996,0.043297,-1.36,0.15965,1
11334,54.3,13.422,0,2.7671,0,11352,57.655,11.106,0.33996,0.043297,-1.36,0.15965,1
11334,54.3,13.422,0,2.7671,0,11352,57.655,11.106,0.33996,0.043297,-1.36,0.15965,1
11335,54.3,13.696,0,2.7019,0,11352,57.672,11.108,0.26786,0.028952,-1.1511,0.16559,1
11336,54.3,13.91,0,2.648,0,11353,57.682,11.109,0.22632,0.021794,-1.0235,0.1717,1
11336,54.3,13.91,0,2.648,0,11353,57.682,11.109,0.22632,0.021794,-1.0235,0.1717,1
11336,54.3,13.91,0,2.648,0,11353,57.682,11.109,0.22632,0.021794,-1.0235,0.1717,1
11336,54.3,13.91,0,2.648,0,11353,57.682,11.109,0.22632,0.021794,-1.0235,0.1717,1
11336,54.3,13.91,0,2.648,0,11353,57.682,11.109,0.22632,0.021794,-1.0235,0.1717,1
11336,54.3,13.91,0,2.648,0,11353,57.682,11.109,0.22632,0.021794,-1.0235,0.1717,1
11336,54.3,13.91,0,2.648,0,11353,57.682,11.109,0.22632,0.021794,-1.0235,0.1717,1
11336,54.3,13.91,0,2.648,0,11353,57.682,11.109,0.22632,0.021794,-1.0235,0.1717,1
11337,54.3,14.015,0,2.6205,0,11354,57.697,11.11,0.15716,0.011841,-0.79664,0.16855,1
11337,54.3,14.015,0,2.6205,0,11354,57.697,11.11,0.15716,0.011841,-0.79664,0.16855,1
11337,54.3,14.015,0,2.6205,0,11354,57.697,11.11,0.15716,0.011841,-0.79664,0.16855,1
11337,54.3,14.015,0,2.6205,0,11354,57.697,11.11,0.15716,0.011841,-0.79664,0.16855,1
11337,54.3,14.015,0,2.6205,0,11354,57.697,11.11,0.15716,0.011841,-0.79664,0.16855,1
11337,54.3,14.015,0,2.6205,0,11354,57.697,11.11,0.15716,0.011841,-0.79664,0.16855,1
11337,54.3,14.015,0,2.6205,0,11354,57.697,11.11,0.15716,0.011841,-0.79664,0.16855,1
11337,54.3,14.015,0,2.6205,0,11354,57.697,11.11,0.15716,0.011841,-0.79664,0.16855,1
11337,54.3,14.015,0,2.6205,0,11354,57.697,11.11,0.15716,0.011841,-0.79664,0.16855,1
11337,54.3,14.015,0,2.6205,0,11354,57.697,11.11,0.15716,0.011841,-0.79664,0.16855,1
11337,54.3,14.015,0,2.6205,0,11354,57.703,11.11,0.12881,0.0085205,-0.69721,0.16451,1
11337,54.3,14.12,0,2.5927,0,11354,57.703,11.11,0.12881,0.0085205,-0.69721,0.16964,1
11337,54.3,14.12,0,2.5927,0,11354,57.703,11.11,0.12881,0.0085205,-0.69721,0.16964,1
11337,54.3,14.12,0,2.5927,0,11355,57.709,11.111,0.093028,0.0050158,-0.56477,0.16358,1
11339,54.3,14.375,0,2.5218,0,11355,57.711,11.111,0.082732,0.0041564,-0.52489,0.1748,1
11340,54.3,14.525,0,2.4785,0,11356,57.716,11.111,0.048625,0.0018193,-0.3852,0.17456,1
11340,54.3,14.525,0,2.4785,0,11356,57.716,11.111,0.048625,0.0018193,-0.3852,0.17456,1
11340,54.3,14.525,0,2.4785,0,11356,57.717,11.111,0.035298,0.0011327,-0.32638,0.17026,1
11340,54.3,14.525,0,2.4785,0,11356,57.717,11.111,0.035298,0.0011327,-0.32638,0.17026,1
11340,54.3,14.525,0,2.4785,0,11356,57.717,11.111,0.035298,0.0011327,-0.32638,0.17026,1
11340,54.3,14.525,0,2.4785,0,11356,57.717,11.111,0.035298,0.0011327,-0.32638,0.17026,1
11340,54.3,14.525,0,2.4785,0,11356,57.717,11.111,0.035298,0.0011327,-0.32638,0.17026,1
11340,54.3,14.525,0,2.4785,0,11356,57.717,11.111,0.035298,0.0011327,-0.32638,0.17026,1
11340,54.3,14.525,0,2.4785,0,11356,57.717,11.111,0.035298,0.0011327,-0.32638,0.17026,1
11340,54.3,14.525,0,2.4785,0,11356,57.717,11.111,0.035298,0.0011327,-0.32638,0.17026,1
11340,54.3,14.525,0,2.4785,0,11356,57.717,11.111,0.035298,0.0011327,-0.32638,0.17026,1
11340,54.3,14.624,0,2.4492,0,11356,57.717,11.111,0.035298,0.0011327,-0.32638,0.17594,1
11340,54.3,14.624,0,2.4492,0,11356,57.717,11.111,0.035298,0.0011327,-0.32638,0.17594,1
11340,54.3,14.624,0,2.4492,0,11356,57.717,11.111,0.035298,0.0011327,-0.32638,0.17594,1
11340,54.3,14.624,0,2.4492,0,11356,57.717,11.111,0.035298,0.0011327,-0.32638,0.17594,1
11340,54.3,14.624,0,2.4492,0,11356,57.717,11.111,0.035298,0.0011327,-0.32638,0.17594,1
11340,54.3,14.624,0,2.4492,0,11356,57.717,11.111,0.035298,0.0011327,-0.32638,0.17594,1
11340,54.3,14.624,0,2.4492,0,11356,57.717,11.111,0.035298,0.0011327,-0.32638,0.17594,1
11340,54.3,14.624,0,2.4492,0,11356,57.717,11.111,0.035298,0.0011327,-0.32638,0.17594,1
11340,54.3,14.624,0,2.4492,0,11356,57.717,11.111,0.035298,0.0011327,-0.32638,0.17594,1
11340,54.3,14.624,0,2.4492,0,11356,57.717,11.111,0.035298,0.0011327,-0.32638,0.17594,1
11340,54.3,14.624,0,2.4492,0,11357,57.718,11.111,0.024088,0.00066218,-0.27422,0.17157,1
11340,54.3,14.624,0,2.4492,0,11357,57.718,11.111,0.024088,0.00066218,-0.27422,0.17157,1
11340,54.3,14.624,0,2.4492,0,11357,57.718,11.111,0.024088,0.00066218,-0.27422,0.17157,1
11340,54.3,14.624,0,2.4492,0,11357,57.718,11.111,0.024088,0.00066218,-0.27422,0.17157,1
11340,54.3,14.624,0,2.4492,0,11357,57.718,11.111,0.024088,0.00066218,-0.27422,0.17157,1
11340,54.3,14.624,0,2.4492,0,11357,57.718,11.111,0.024088,0.00066218,-0.27422,0.17157,1
11340,54.3,14.624,0,2.4492,0,11357,57.718,11.111,0.024088,0.00066218,-0.27422,0.17157,1
11342,54.3,14.865,0,2.3751,0,11358,57.719,11.111,0.010707,0.00023852,-0.20736,0.17967,1
11342,54.3,14.865,0,2.3751,0,11358,57.72,11.111,0.0037493,8.3135e-05,-0.16963,0.17512,1
11343,54.3,15.099,0,2.2997,0,11358,57.72,11.111,0.0037493,8.3135e-05,-0.16963,0.19142,1
11344,54.3,15.235,0,2.254,0,11359,57.719,11.111,-0.008187,-6.2288e-05,-0.095727,0.18906,1
11344,54.3,15.235,0,2.254,0,11359,57.719,11.111,-0.008187,-6.2288e-05,-0.095727,0.18906,1
11344,54.3,15.235,0,2.254,0,11360,57.719,11.111,-0.012427,-6.7059e-05,-0.063167,0.18165,1
11344,54.3,15.235,0,2.254,0,11360,57.719,11.111,-0.012427,-6.7059e-05,-0.063167,0.18165,1
11344,54.3,15.235,0,2.254,0,11360,57.719,11.111,-0.012427,-6.7059e-05,-0.063167,0.18165,1
11344,54.3,15.235,0,2.254,0,11360,57.719,11.111,-0.012427,-6.7059e-05,-0.063167,0.18165,1
11344,54.3,15.235,0,2.254,0,11360,57.719,11.111,-0.012427,-6.7059e-05,-0.063167,0.18165,1
11344,54.3,15.235,0,2.254,0,11360,57.719,11.111,-0.012427,-6.7059e-05,-0.063167,0.18165,1
11344,54.3,15.235,0,2.254,0,11360,57.719,11.111,-0.012427,-6.7059e-05,-0.063167,0.18165,1
11344,54.3,15.235,0,2.254,0,11360,57.718,11.111,-0.01346,-6.2756e-05,-0.053969,0.1793,1
11344,54.3,15.235,0,2.254,0,11360,57.718,11.111,-0.01346,-6.2756e-05,-0.053969,0.1793,1
11344,54.3,15.235,0,2.254,0,11360,57.718,11.111,-0.01346,-6.2756e-05,-0.053969,0.1793,1
11344,54.3,15.235,0,2.254,0,11360,57.718,11.111,-0.01346,-6.2756e-05,-0.053969,0.1793,1
11344,54.3,15.235,0,2.254,0,11360,57.718,11.111,-0.01346,-6.2756e-05,-0.053969,0.1793,1
11344,54.3,15.235,0,2.254,0,11360,57.718,11.111,-0.01346,-6.2756e-05,-0.053969,0.1793,1
11344,54.3,15.235,0,2.254,0,11360,57.718,11.111,-0.01346,-6.2756e-05,-0.053969,0.1793,1
11344,54.3,15.235,0,2.254,0,11360,57.718,11.111,-0.01346,-6.2756e-05,-0.053969,0.1793,1
11345,54.3,15.369,0,2.208,0,11360,57.718,11.111,-0.01346,-6.2756e-05,-0.053969,0.18941,1
11345,54.3,15.369,0,2.208,0,11360,57.718,11.111,-0.01346,-6.2756e-05,-0.053969,0.18941,1
11345,54.3,15.369,0,2.208,0,11360,57.718,11.111,-0.01346,-6.2756e-05,-0.053969,0.18941,1
11345,54.3,15.369,0,2.208,0,11360,57.718,11.111,-0.01346,-6.2756e-05,-0.053969,0.18941,1
11345,54.3,15.369,0,2.208,0,11360,57.718,11.111,-0.01346,-6.2756e-05,-0.053969,0.18941,1
11345,54.3,15.369,0,2.208,0,11360,57.718,11.111,-0.01346,-6.2756e-05,-0.053969,0.18941,1
11345,54.3,15.369,0,2.208,0,11360,57.718,11.111,-0.01346,-6.2756e-05,-0.053969,0.18941,1
11345,54.3,15.413,0,2.1926,0,11360,57.718,11.111,-0.01346,-6.2756e-05,-0.053969,0.19304,1
11345,54.3,15.413,0,2.1926,0,11360,57.718,11.111,-0.01346,-6.2756e-05,-0.053969,0.19304,1
11345,54.3,15.413,0,2.1926,0,11361,57.717,11.111,-0.01641,-2.6822e-05,-0.018366,0.18051,1
11347,54.3,15.713,0,2.0842,0,11362,57.716,11.111,-0.016783,-1.2353e-05,-0.0082183,0.20085,1
11348,54.3,15.836,0,2.0376,0,11362,57.715,11.111,-0.01673,5.2965e-06,0.0035104,0.20455,1
11348,54.3,15.836,0,2.0376,0,11362,57.715,11.111,-0.01673,5.2965e-06,0.0035104,0.20455,1
11348,54.3,15.836,0,2.0376,0,11363,57.714,11.111,-0.016132,1.7224e-05,0.011777,0.19595,1
11348,54.3,15.836,0,2.0376,0,11363,57.714,11.111,-0.016132,1.7224e-05,0.011777,0.19595,1
11348,54.3,15.836,0,2.0376,0,11363,57.714,11.111,-0.015843,1.9979e-05,0.01389,0.19324,1
11348,54.3,15.836,0,2.0376,0,11363,57.714,11.111,-0.015843,1.9979e-05,0.01389,0.19324,1
11348,54.3,15.836,0,2.0376,0,11363,57.714,11.111,-0.015843,1.9979e-05,0.01389,0.19324,1
11348,54.3,15.836,0,2.0376,0,11363,57.714,11.111,-0.015843,1.9979e-05,0.01389,0.19324,1
11348,54.3,15.836,0,2.0376,0,11363,57.714,11.111,-0.015843,1.9979e-05,0.01389,0.19324,1
11348,54.3,15.836,0,2.0376,0,11363,57.714,11.111,-0.015843,1.9979e-05,0.01389,0.19324,1
11348,54.3,15.836,0,2.0376,0,11363,57.714,11.111,-0.015843,1.9979e-05,0.01389,0.19324,1
11348,54.3,15.836,0,2.0376,0,11363,57.714,11.111,-0.015843,1.9979e-05,0.01389,0.19324,1
11349,54.3,15.957,0,1.991,0,11363,57.714,11.111,-0.015843,1.9979e-05,0.01389,0.20543,1
11349,54.3,15.957,0,1.991,0,11363,57.714,11.111,-0.015843,1.9979e-05,0.01389,0.20543,1
11349,54.3,15.957,0,1.991,0,11363,57.714,11.111,-0.015843,1.9979e-05,0.01389,0.20543,1
11349,54.3,15.957,0,1.991,0,11363,57.714,11.111,-0.015843,1.9979e-05,0.01389,0.20543,1
11349,54.3,15.957,0,1.991,0,11363,57.714,11.111,-0.015843,1.9979e-05,0.01389,0.20543,1
11349,54.3,15.957,0,1.991,0,11363,57.714,11.111,-0.015843,1.9979e-05,0.01389,0.20543,1
11349,54.3,15.957,0,1.991,0,11363,57.714,11.111,-0.015843,1.9979e-05,0.01389,0.20543,1
11349,54.3,15.957,0,1.991,0,11363,57.714,11.111,-0.015843,1.9979e-05,0.01389,0.20543,1
11349,54.3,15.957,0,1.991,0,11363,57.714,11.111,-0.015843,1.9979e-05,0.01389,0.20543,1
11349,54.3,15.957,0,1.991,0,11363,57.714,11.111,-0.015843,1.9979e-05,0.01389,0.20543,1
11349,54.3,15.957,0,1.991,0,11364,57.713,11.111,-0.015165,2.3872e-05,0.017293,0.19958,1
11349,54.3,15.957,0,1.991,0,11364,57.713,11.111,-0.015165,2.3872e-05,0.017293,0.19958,1
11349,54.3,15.957,0,1.991,0,11364,57.713,11.111,-0.015165,2.3872e-05,0.017293,0.19958,1
11349,54.3,15.957,0,1.991,0,11364,57.713,11.111,-0.015165,2.3872e-05,0.017293,0.19958,1
11351,54.3,16.152,0,1.9134,0,11364,57.713,11.111,-0.014786,2.51e-05,0.018627,0.21895,1
11351,54.3,16.152,0,1.9134,0,11365,57.712,11.111,-0.013093,2.6308e-05,0.021957,0.20612,1
11352,54.3,16.303,0,1.8515,0,11365,57.712,11.111,-0.013093,2.6308e-05,0.021957,0.22539,1
11352,54.3,16.303,0,1.8515,0,11365,57.712,11.111,-0.013093,2.6308e-05,0.021957,0.22539,1
11353,54.3,16.413,0,1.8053,0,11366,57.711,11.111,-0.011275,2.3656e-05,0.02285,0.2269,1
11353,54.3,16.413,0,1.8053,0,11366,57.711,11.111,-0.011275,2.3656e-05,0.02285,0.2269,1
11353,54.3,16.413,0,1.8053,0,11366,57.711,11.111,-0.011275,2.3656e-05,0.02285,0.2269,1
11353,54.3,16.413,0,1.8053,0,11366,57.711,11.111,-0.011275,2.3656e-05,0.02285,0.2269,1
11353,54.3,16.413,0,1.8053,0,11366,57.711,11.111,-0.011275,2.3656e-05,0.02285,0.2269,1
11353,54.3,16.413,0,1.8053,0,11366,57.711,11.111,-0.011275,2.3656e-05,0.02285,0.2269,1
11353,54.3,16.413,0,1.8053,0,11366,57.711,11.111,-0.011275,2.3656e-05,0.02285,0.2269,1
11353,54.3,16.413,0,1.8053,0,11366,57.711,11.111,-0.011275,2.3656e-05,0.02285,0.2269,1
11353,54.3,16.413,0,1.8053,0,11366,57.71,11.111,-0.0099191,2.0474e-05,0.022427,0.21648,1
11353,54.3,16.413,0,1.8053,0,11366,57.71,11.111,-0.0099191,2.0474e-05,0.022427,0.21648,1
11353,54.3,16.413,0,1.8053,0,11366,57.71,11.111,-0.0099191,2.0474e-05,0.022427,0.21648,1
11353,54.3,16.413,0,1.8053,0,11366,57.71,11.111,-0.0099191,2.0474e-05,0.022427,0.21648,1
11353,54.3,16.413,0,1.8053,0,11366,57.71,11.111,-0.0099191,2.0474e-05,0.022427,0.21648,1
11353,54.3,16.413,0,1.8053,0,11366,57.71,11.111,-0.0099191,2.0474e-05,0.022427,0.21648,1
11354,54.3,16.484,0,1.7747,0,11366,57.71,11.111,-0.0099191,2.0474e-05,0.022427,0.22676,1
11354,54.3,16.484,0,1.7747,0,11366,57.71,11.111,-0.0099191,2.0474e-05,0.022427,0.22676,1
11354,54.3,16.484,0,1.7747,0,11366,57.71,11.111,-0.0099191,2.0474e-05,0.022427,0.22676,1
11354,54.3,16.484,0,1.7747,0,11366,57.71,11.111,-0.0099191,2.0474e-05,0.022427,0.22676,1
11354,54.3,16.484,0,1.7747,0,11366,57.71,11.111,-0.0099191,2.0474e-05,0.022427,0.22676,1
11354,54.3,16.484,0,1.7747,0,11366,57.71,11.111,-0.0099191,2.0474e-05,0.022427,0.22676,1
11354,54.3,16.484,0,1.7747,0,11366,57.71,11.111,-0.0099191,2.0474e-05,0.022427,0.22676,1
11354,54.3,16.52,0,1.7594,0,11366,57.71,11.111,-0.0099191,2.0474e-05,0.022427,0.23227,1
11354,54.3,16.52,0,1.7594,0,11367,57.709,11.111,-0.0077958,1.4711e-05,0.020432,0.21466,1
11354,54.3,16.52,0,1.7594,0,11367,57.709,11.111,-0.0077958,1.4711e-05,0.020432,0.21466,1
11354,54.3,16.52,0,1.7594,0,11368,57.709,11.031,-0.0073483,-4,0.022436,0.21062,1
11356,54.3,16.725,0,1.6685,0,11368,57.709,11.031,-0.0073483,-4,0.022436,0.24319,1
11356,54.3,16.725,0,1.6685,0,11368,57.709,11.031,-0.0073483,-4,0.022436,0.24319,1
11356,54.3,16.725,0,1.6685,0,11369,57.709,10.631,-0.0053797,-4,0.018033,0.22014,1
11358,54.3,16.856,0,1.6087,0,11369,57.709,10.631,-0.0053797,-4,0.018033,0.24344,1
11358,54.3,16.856,0,1.6087,0,11369,57.709,10.631,-0.0053797,-4,0.018033,0.24344,1
11358,54.3,16.888,0,1.5939,0,11369,57.709,10.631,-0.0053797,-4,0.018033,0.25003,1
11358,54.3,16.888,0,1.5939,0,11369,57.709,10.631,-0.0053797,-4,0.018033,0.25003,1
11358,54.3,16.92,0,1.5792,0,11369,57.709,10.631,-0.0053797,-4,0.018033,0.25696,1
11358,54.3,16.92,0,1.5792,0,11369,57.708,10.311,-0.0041097,-4,0.014771,0.23674,1
11358,54.3,16.92,0,1.5792,0,11369,57.708,10.311,-0.0041097,-4,0.014771,0.23674,1
11358,54.3,16.92,0,1.5792,0,11369,57.708,10.311,-0.0041097,-4,0.014771,0.23674,1
11358,54.3,16.92,0,1.5792,0,11369,57.708,10.311,-0.0041097,-4,0.014771,0.23674,1
11358,54.3,16.92,0,1.5792,0,11369,57.708,10.311,-0.0041097,-4,0.014771,0.23674,1
11358,54.3,16.92,0,1.5792,0,11369,57.708,10.311,-0.0041097,-4,0.014771,0.23674,1
11358,54.3,16.92,0,1.5792,0,11369,57.708,10.311,-0.0041097,-4,0.014771,0.23674,1
11359,54.3,16.983,0,1.5498,0,11369,57.708,10.311,-0.0041097,-4,0.014771,0.24981,1
11359,54.3,17.014,0,1.5352,0,11369,57.708,10.311,-0.0041097,-4,0.014771,0.25688,1
11359,54.3,17.014,0,1.5352,0,11369,57.708,10.311,-0.0041097,-4,0.014771,0.25688,1
11359,54.3,17.014,0,1.5352,0,11369,57.708,10.311,-0.0041097,-4,0.014771,0.25688,1
11359,54.3,17.014,0,1.5352,0,11369,57.708,10.311,-0.0041097,-4,0.014771,0.25688,1
11360,54.3,17.044,0,1.5207,0,11369,57.708,10.311,-0.0041097,-4,0.014771,0.26432,1
11360,54.3,17.044,0,1.5207,0,11369,57.708,10.311,-0.0041097,-4,0.014771,0.26432,1
11360,54.3,17.044,0,1.5207,0,11369,57.708,10.311,-0.0041097,-4,0.014771,0.26432,1
11361,54.3,17.134,0,1.4774,0,11370,57.708,9.9911,-0.0030836,-4,0.011854,0.26516,1
11361,54.3,17.134,0,1.4774,0,11370,57.708,9.9911,-0.0030836,-4,0.011854,0.26516,1
11361,54.3,17.134,0,1.4774,0,11371,57.708,9.7511,-0.0024557,-4,0.0099221,0.24935,1
11361,54.3,17.134,0,1.4774,0,11371,57.708,9.7511,-0.0024557,-4,0.0099221,0.24935,1
11361,54.3,17.134,0,1.4774,0,11371,57.708,9.5911,-0.0020971,-4,0.0087588,0.23974,1
11361,54.3,17.134,0,1.4774,0,11371,57.708,9.5911,-0.0020971,-4,0.0087588,0.23974,1
11361,54.3,17.134,0,1.4774,0,11371,57.708,9.5111,-0.0019343,-4,0.0082143,0.23518,1
11361,54.3,17.134,0,1.4774,0,11371,57.708,9.5111,-0.0019343,-4,0.0082143,0.23518,1
11361,54.3,17.134,0,1.4774,0,11371,57.708,9.5111,-0.0019343,-4,0.0082143,0.23518,1
11361,54.3,17.134,0,1.4774,0,11371,57.708,9.5111,-0.0019343,-4,0.0082143,0.23518,1
11361,54.3,17.134,0,1.4774,0,11371,57.708,9.5111,-0.0019343,-4,0.0082143,0.23518,1
11361,54.3,17.134,0,1.4774,0,11371,57.708,9.5111,-0.0019343,-4,0.0082143,0.23518,1
11362,54.3,17.278,0,1.4066,0,11371,57.708,9.5111,-0.0019343,-4,0.0082143,0.27212,1
11362,54.3,17.278,0,1.4066,0,11371,57.708,9.5111,-0.0019343,-4,0.0082143,0.27212,1
11363,54.3,17.306,0,1.3927,0,11371,57.708,9.5111,-0.0019343,-4,0.0082143,0.28082,1
11363,54.3,17.334,0,1.3788,0,11371,57.708,9.5111,-0.0019343,-4,0.0082143,0.29003,1
11363,54.3,17.334,0,1.3788,0,11371,57.708,9.5111,-0.0019343,-4,0.0082143,0.29003,1
11363,54.3,17.361,0,1.365,0,11371,57.708,9.5111,-0.0019343,-4,0.0082143,0.2998,1
11364,54.3,17.442,0,1.324,0,11373,57.708,9.0311,-0.0011583,-4,0.0054462,0.2913,1
11364,54.3,17.442,0,1.324,0,11373,57.708,9.0311,-0.0011583,-4,0.0054462,0.2913,1
11364,54.3,17.442,0,1.324,0,11373,57.708,9.0311,-0.0011583,-4,0.0054462,0.2913,1
11365,54.3,17.468,0,1.3105,0,11373,57.708,9.0311,-0.0011583,-4,0.0054462,0.3014,1
11365,54.3,17.495,0,1.297,0,11373,57.708,9.0311,-0.0011583,-4,0.0054462,0.31212,1
11365,54.3,17.495,0,1.297,0,11373,57.708,9.0311,-0.0011583,-4,0.0054462,0.31212,1
11365,54.3,17.495,0,1.297,0,11373,57.708,9.0311,-0.0011583,-4,0.0054462,0.31212,1
11365,54.3,17.495,0,1.297,0,11373,57.708,9.0311,-0.0011583,-4,0.0054462,0.31212,1
11365,54.3,17.495,0,1.297,0,11373,57.708,9.0311,-0.0011583,-4,0.0054462,0.31212,1
11365,54.3,17.495,0,1.297,0,11373,57.708,9.0311,-0.0011583,-4,0.0054462,0.31212,1
11365,54.3,17.495,0,1.297,0,11373,57.708,9.0311,-0.0011583,-4,0.0054462,0.31212,1
11365,54.3,17.495,0,1.297,0,11373,57.708,9.0311,-0.0011583,-4,0.0054462,0.31212,1
11365,54.3,17.495,0,1.297,0,11373,57.708,9.0311,-0.0011583,-4,0.0054462,0.31212,1
11365,54.3,17.495,0,1.297,0,11373,57.708,9.0311,-0.0011583,-4,0.0054462,0.31212,1
11365,54.3,17.495,0,1.297,0,11373,57.707,8.7111,-0.00079918,-4,0.0040367,0.28673,1
11365,54.3,17.495,0,1.297,0,11373,57.707,8.7111,-0.00079918,-4,0.0040367,0.28673,1
11365,54.3,17.495,0,1.297,0,11373,57.707,8.6311,-0.00072543,-4,0.003733,0.28094,1
11365,54.3,17.495,0,1.297,0,11373,57.707,8.6311,-0.00072543,-4,0.003733,0.28094,1
11365,54.3,17.495,0,1.297,0,11373,57.707,8.6311,-0.00072543,-4,0.003733,0.28094,1
11365,54.3,17.495,0,1.297,0,11373,57.707,8.6311,-0.00072543,-4,0.003733,0.28094,1
11365,54.3,17.495,0,1.297,0,11373,57.707,8.6311,-0.00072543,-4,0.003733,0.28094,1
11365,54.3,17.495,0,1.297,0,11373,57.707,8.6311,-0.00072543,-4,0.003733,0.28094,1
11365,54.3,17.495,0,1.297,0,11373,57.707,8.6311,-0.00072543,-4,0.003733,0.28094,1
11365,54.3,17.495,0,1.297,0,11373,57.707,8.6311,-0.00072543,-4,0.003733,0.28094,1
11365,54.3,17.495,0,1.297,0,11373,57.707,8.6311,-0.00072543,-4,0.003733,0.28094,1
11365,54.3,17.495,0,1.297,0,11373,57.707,8.6311,-0.00072543,-4,0.003733,0.28094,1
11365,54.3,17.495,0,1.297,0,11374,57.707,8.5511,-0.00065734,-4,0.0034473,0.27537,1
11367,54.3,17.645,0,1.2114,0,11374,57.707,8.5511,-0.00065734,-4,0.0034473,0.34113,1
11367,54.3,17.645,0,1.2114,0,11374,57.707,8.2311,-0.00043493,-4,0.0024708,0.31308,1
11368,54.3,17.693,0,1.1825,0,11374,57.707,8.2311,-0.00043493,-4,0.0024708,0.33765,1
11370,54.3,17.808,0,1.1131,0,11375,57.707,8.0711,-0.00034942,-4,0.0020724,0.39492,1
11370,54.3,17.808,0,1.1131,0,11375,57.707,8.0711,-0.00034942,-4,0.0020724,0.39492,1
11370,54.3,17.808,0,1.1131,0,11375,57.707,7.6711,-0.00019771,-4,0.0012387,0.35474,1
11370,54.3,17.808,0,1.1131,0,11375,57.707,7.6711,-0.00019771,-4,0.0012387,0.35474,1
11370,54.3,17.808,0,1.1131,0,11375,57.707,7.6711,-0.00019771,-4,0.0012387,0.35474,1
11370,54.3,17.808,0,1.1131,0,11375,57.707,7.6711,-0.00019771,-4,0.0012387,0.35474,1
11370,54.3,17.808,0,1.1131,0,11375,57.707,7.6711,-0.00019771,-4,0.0012387,0.35474,1
11370,54.3,17.808,0,1.1131,0,11375,57.707,7.6711,-0.00019771,-4,0.0012387,0.35474,1
11370,54.3,17.808,0,1.1131,0,11375,57.707,7.6711,-0.00019771,-4,0.0012387,0.35474,1
11370,54.3,17.808,0,1.1131,0,11376,57.707,7.5911,-0.00017585,-4,0.001114,0.34745,1
11370,54.3,17.808,0,1.1131,0,11376,57.707,7.5911,-0.00017585,-4,0.001114,0.34745,1
11370,54.3,17.808,0,1.1131,0,11376,57.707,7.5911,-0.00017585,-4,0.001114,0.34745,1
11370,54.3,17.808,0,1.1131,0,11376,57.707,7.5911,-0.00017585,-4,0.001114,0.34745,1
11370,54.3,17.808,0,1.1131,0,11376,57.707,7.5911,-0.00017585,-4,0.001114,0.34745,1
11370,54.3,17.808,0,1.1131,0,11376,57.707,7.5911,-0.00017585,-4,0.001114,0.34745,1
11370,54.3,17.808,0,1.1131,0,11376,57.707,7.5911,-0.00017585,-4,0.001114,0.34745,1
11370,54.3,17.808,0,1.1131,0,11376,57.707,7.5911,-0.00017585,-4,0.001114,0.34745,1
11370,54.3,17.808,0,1.1131,0,11376,57.707,7.5911,-0.00017585,-4,0.001114,0.34745,1
11370,54.3,17.808,0,1.1131,0,11376,57.707,7.5911,-0.00017585,-4,0.001114,0.34745,1
11370,54.3,17.808,0,1.1131,0,11376,57.707,7.5111,-0.00015621,-4,0.0010011,0.34039,1
11370,54.3,17.808,0,1.1131,0,11376,57.707,7.5111,-0.00015621,-4,0.0010011,0.34039,1
11371,54.3,17.895,0,1.0604,0,11376,57.707,7.5111,-0.00015621,-4,0.0010011,0.40147,1
11371,54.3,17.895,0,1.0604,0,11376,57.707,7.5111,-0.00015621,-4,0.0010011,0.40147,1
11371,54.3,17.895,0,1.0604,0,11376,57.707,7.1911,-9.5831e-05,-4,0.00064849,0.3698,1
11371,54.3,17.895,0,1.0604,0,11376,57.707,7.1911,-9.5831e-05,-4,0.00064849,0.3698,1
11371,54.3,17.895,0,1.0604,0,11376,57.707,7.1911,-9.5831e-05,-4,0.00064849,0.3698,1
11371,54.3,17.895,0,1.0604,0,11376,57.707,7.1911,-9.5831e-05,-4,0.00064849,0.3698,1
11371,54.3,17.895,0,1.0604,0,11377,57.707,6.9511,-6.5137e-05,-4,0.00046472,0.34841,1
11374,54.3,18.056,0,0.96198,0,11377,57.707,6.9511,-6.5137e-05,-4,0.00046472,0.48375,1
11374,54.3,18.056,0,0.96198,0,11377,57.707,6.7111,-4.3247e-05,-4,0.00033064,0.46027,1
11374,54.3,18.056,0,0.96198,0,11377,57.707,6.7111,-4.3247e-05,-4,0.00033064,0.46027,1
11374,54.3,18.056,0,0.96198,0,11377,57.707,6.6311,-3.7472e-05,-4,0.00029465,0.45236,1
11374,54.3,18.056,0,0.96198,0,11377,57.707,6.6311,-3.7472e-05,-4,0.00029465,0.45236,1
11374,54.3,18.056,0,0.96198,0,11378,57.707,6.4711,-2.776e-05,-4,0.0002333,0.43666,1
11374,54.3,18.056,0,0.96198,0,11378,57.707,6.4711,-2.776e-05,-4,0.0002333,0.43666,1
11374,54.3,18.056,0,0.96198,0,11378,57.707,6.4711,-2.776e-05,-4,0.0002333,0.43666,1
11374,54.3,18.056,0,0.96198,0,11378,57.707,6.4711,-2.776e-05,-4,0.0002333,0.43666,1
11374,54.3,18.056,0,0.96198,0,11378,57.707,6.4711,-2.776e-05,-4,0.0002333,0.43666,1
11374,54.3,18.056,0,0.96198,0,11378,57.707,6.4711,-2.776e-05,-4,0.0002333,0.43666,1
11376,54.3,18.15,0,0.90492,0,11378,57.707,6.4711,-2.776e-05,-4,0.0002333,0.5158,1
11376,54.3,18.15,0,0.90492,0,11378,57.707,6.4711,-2.776e-05,-4,0.0002333,0.5158,1
11376,54.3,18.15,0,0.90492,0,11378,57.707,6.4711,-2.776e-05,-4,0.0002333,0.5158,1
11376,54.3,18.168,0,0.8939,0,11378,57.707,6.4711,-2.776e-05,-4,0.0002333,0.52348,1
11376,54.3,18.168,0,0.8939,0,11378,57.707,6.4711,-2.776e-05,-4,0.0002333,0.52348,1
11377,54.3,18.185,0,0.883,0,11378,57.707,6.4711,-2.776e-05,-4,0.0002333,0.526,1
11377,54.3,18.185,0,0.883,0,11378,57.707,6.4711,-2.776e-05,-4,0.0002333,0.526,1
11377,54.3,18.22,0,0.8616,0,11378,57.707,6.4711,-2.776e-05,-4,0.0002333,0.51294,1
11377,54.3,18.22,0,0.8616,0,11378,57.707,6.4711,-2.776e-05,-4,0.0002333,0.51294,1
11378,54.3,18.254,0,0.84069,0,11378,57.707,5.9911,-9.3829e-06,-4,0.00011246,0.51241,1
11378,54.3,18.254,0,0.84069,0,11379,57.707,5.8311,-5.7422e-06,-4,8.7057e-05,0.51765,1
11378,54.3,18.254,0,0.84069,0,11379,57.707,5.8311,-5.7422e-06,-4,8.7057e-05,0.51765,1
11378,54.3,18.254,0,0.84069,0,11379,57.707,5.8311,-5.7422e-06,-4,8.7057e-05,0.51765,1
11378,54.3,18.254,0,0.84069,0,11379,57.707,5.7511,-4.2493e-06,-4,7.6354e-05,0.51905,1
11378,54.3,18.254,0,0.84069,0,11379,57.707,5.7511,-4.2493e-06,-4,7.6354e-05,0.51905,1
11378,54.3,18.254,0,0.84069,0,11379,57.707,5.6711,-2.9437e-06,-4,6.6804e-05,0.51969,1
11378,54.3,18.254,0,0.84069,0,11379,57.707,5.6711,-2.9437e-06,-4,6.6804e-05,0.51969,1
11378,54.3,18.254,0,0.84069,0,11379,57.707,5.6711,-2.9437e-06,-4,6.6804e-05,0.51969,1
11378,54.3,18.254,0,0.84069,0,11379,57.707,5.6711,-2.9437e-06,-4,6.6804e-05,0.51969,1
11378,54.3,18.254,0,0.84069,0,11379,57.707,5.6711,-2.9437e-06,-4,6.6804e-05,0.51969,1
11379,54.3,18.32,0,0.8003,0,11379,57.707,5.6711,-2.9437e-06,-4,6.6804e-05,0.51866,1
11379,54.3,18.32,0,0.8003,0,11379,57.707,5.6711,-2.9437e-06,-4,6.6804e-05,0.51866,1
11379,54.3,18.32,0,0.8003,0,11379,57.707,5.6711,-2.9437e-06,-4,6.6804e-05,0.51866,1
11379,54.3,18.32,0,0.8003,0,11379,57.707,5.5111,-8.1512e-07,-4,5.0704e-05,0.51433,1
11379,54.3,18.32,0,0.8003,0,11379,57.707,5.5111,-8.1512e-07,-4,5.0704e-05,0.51433,1
11380,54.3,18.352,0,0.78082,0,11379,57.707,5.5111,-8.1512e-07,-4,5.0704e-05,0.51741,1
11380,54.3,18.352,0,0.78082,0,11379,57.707,5.5111,-8.1512e-07,-4,5.0704e-05,0.51741,1
11380,54.3,18.352,0,0.78082,0,11379,57.707,5.5111,-8.1512e-07,-4,5.0704e-05,0.51741,1
11381,54.3,18.398,0,0.75243,0,11379,57.707,5.5111,-8.1512e-07,-4,5.0704e-05,0.48445,1
11382,54.3,18.413,0,0.74319,0,11379,57.707,5.5111,-8.1512e-07,-4,5.0704e-05,0.46756,1
11382,54.3,18.413,0,0.74319,0,11379,57.707,5.5111,-8.1512e-07,-4,5.0704e-05,0.46756,1
11382,54.3,18.413,0,0.74319,0,11379,57.707,5.5111,-8.1512e-07,-4,5.0704e-05,0.46756,1
11382,54.3,18.413,0,0.74319,0,11379,57.707,5.5111,-8.1512e-07,-4,5.0704e-05,0.46756,1
11382,54.3,18.413,0,0.74319,0,11380,57.707,5.0311,2.8072e-06,-4,1.9957e-05,0.48926,1
11383,54.3,18.456,0,0.71611,0,11380,57.707,4.9511,3.1299e-06,-4,1.6667e-05,0.44086,1
11383,54.3,18.456,0,0.71611,0,11380,57.707,4.9511,3.1299e-06,-4,1.6667e-05,0.44086,1
11383,54.3,18.456,0,0.71611,0,11380,57.707,4.9511,3.1299e-06,-4,1.6667e-05,0.44086,1
11383,54.3,18.456,0,0.71611,0,11380,57.707,4.9511,3.1299e-06,-4,1.6667e-05,0.44086,1
11383,54.3,18.456,0,0.71611,0,11380,57.707,4.9511,3.1299e-06,-4,1.6667e-05,0.44086,1
11383,54.3,18.485,0,0.69859,0,11380,57.707,4.7911,3.6112e-06,-4,1.1196e-05,0.41073,1
11383,54.3,18.485,0,0.69859,0,11380,57.707,4.7911,3.6112e-06,-4,1.1196e-05,0.41073,1
11383,54.3,18.485,0,0.69859,0,11380,57.707,4.7911,3.6112e-06,-4,1.1196e-05,0.41073,1
11383,54.3,18.485,0,0.69859,0,11380,57.707,4.7911,3.6112e-06,-4,1.1196e-05,0.41073,1
11384,54.3,18.499,0,0.68998,0,11380,57.707,4.7911,3.6112e-06,-4,1.1196e-05,0.39222,1
11384,54.3,18.499,0,0.68998,0,11380,57.707,4.7911,3.6112e-06,-4,1.1196e-05,0.39222,1
11384,54.3,18.499,0,0.68998,0,11380,57.707,4.7911,3.6112e-06,-4,1.1196e-05,0.39222,1
11384,54.3,18.499,0,0.68998,0,11380,57.707,4.5511,4.0135e-06,-4,5.2108e-06,0.40264,1
11385,54.3,18.526,0,0.67307,0,11380,57.707,4.5511,4.0135e-06,-4,5.2108e-06,0.36664,1
11385,54.3,18.526,0,0.67307,0,11380,57.707,4.5511,4.0135e-06,-4,5.2108e-06,0.36664,1
11385,54.3,18.526,0,0.67307,0,11380,57.707,4.5511,4.0135e-06,-4,5.2108e-06,0.36664,1
11385,54.3,18.552,0,0.65656,0,11380,57.707,4.3911,4.1245e-06,-4,2.3534e-06,0.33931,1
11385,54.3,18.552,0,0.65656,0,11381,57.707,4.2311,4.1444e-06,-4,1.8473e-07,0.34449,1
11386,54.3,18.578,0,0.64044,0,11381,57.707,4.2311,4.1444e-06,-4,1.8473e-07,0.31408,1
11386,54.3,18.578,0,0.64044,0,11381,57.707,4.2311,4.1444e-06,-4,1.8473e-07,0.31408,1
11386,54.3,18.591,0,0.63252,0,11381,57.707,4.2311,4.1444e-06,-4,1.8473e-07,0.3003,1
11386,54.3,18.591,0,0.63252,0,11381,57.707,3.9911,4.0515e-06,-4,-2.086e-06,0.30618,1
11386,54.3,18.591,0,0.63252,0,11381,57.707,3.9911,4.0515e-06,-4,-2.086e-06,0.30618,1
11386,54.3,18.591,0,0.63252,0,11381,57.707,3.9911,4.0515e-06,-4,-2.086e-06,0.30618,1
11386,54.3,18.591,0,0.63252,0,11381,57.707,3.9911,4.0515e-06,-4,-2.086e-06,0.30618,1
11386,54.3,18.591,0,0.63252,0,11381,57.707,3.9911,4.0515e-06,-4,-2.086e-06,0.30618,1
11386,54.3,18.591,0,0.63252,0,11381,57.707,3.9911,4.0515e-06,-4,-2.086e-06,0.30618,1
11386,54.3,18.591,0,0.63252,0,11381,57.707,3.9911,4.0515e-06,-4,-2.086e-06,0.30618,1
11386,54.3,18.591,0,0.63252,0,11381,57.707,3.9911,4.0515e-06,-4,-2.086e-06,0.30618,1
11386,54.3,18.591,0,0.63252,0,11381,57.707,3.9111,3.9965e-06,-4,-2.6376e-06,0.30809,1
11386,54.3,18.591,0,0.63252,0,11381,57.707,3.9111,3.9965e-06,-4,-2.6376e-06,0.30809,1
11386,54.3,18.591,0,0.63252,0,11381,57.707,3.9111,3.9965e-06,-4,-2.6376e-06,0.30809,1
11388,54.3,18.628,0,0.60933,0,11381,57.707,3.9111,3.9965e-06,-4,-2.6376e-06,0.27008,1
11388,54.3,18.628,0,0.60933,0,11381,57.707,3.9111,3.9965e-06,-4,-2.6376e-06,0.27008,1
11388,54.3,18.628,0,0.60933,0,11381,57.707,3.9111,3.9965e-06,-4,-2.6376e-06,0.27008,1
11388,54.3,18.628,0,0.60933,0,11381,57.707,3.9111,3.9965e-06,-4,-2.6376e-06,0.27008,1
11388,54.3,18.628,0,0.60933,0,11381,57.707,3.9111,3.9965e-06,-4,-2.6376e-06,0.27008,1
11388,54.3,18.628,0,0.60933,0,11381,57.707,3.9111,3.9965e-06,-4,-2.6376e-06,0.27008,1
11388,54.3,18.628,0,0.60933,0,11381,57.707,3.9111,3.9965e-06,-4,-2.6376e-06,0.27008,1
11389,54.3,18.664,0,0.58697,0,11381,57.707,3.7511,3.8607e-06,-4,-3.5003e-06,0.24129,1
11389,54.3,18.664,0,0.58697,0,11381,57.707,3.7511,3.8607e-06,-4,-3.5003e-06,0.24129,1
11390,54.3,18.699,0,0.56539,0,11381,57.707,3.5111,3.6113e-06,-4,-4.3248e-06,0.2177,1
11390,54.3,18.699,0,0.56539,0,11381,57.707,3.5111,3.6113e-06,-4,-4.3248e-06,0.2177,1
11390,54.3,18.699,0,0.56539,0,11381,57.707,3.5111,3.6113e-06,-4,-4.3248e-06,0.2177,1
11390,54.3,18.699,0,0.56539,0,11381,57.707,3.5111,3.6113e-06,-4,-4.3248e-06,0.2177,1
11391,54.3,18.721,0,0.55143,0,11381,57.707,3.5111,3.6113e-06,-4,-4.3248e-06,0.20271,1
11391,54.3,18.721,0,0.55143,0,11381,57.707,3.5111,3.6113e-06,-4,-4.3248e-06,0.20271,1
11391,54.3,18.721,0,0.55143,0,11382,57.707,3.1111,3.1349e-06,-4,-4.8784e-06,0.20523,1
11391,54.3,18.721,0,0.55143,0,11382,57.707,3.0311,3.036e-06,-4,-4.9083e-06,0.20567,1
11391,54.3,18.721,0,0.55143,0,11382,57.707,3.0311,3.036e-06,-4,-4.9083e-06,0.20567,1
11391,54.3,18.721,0,0.55143,0,11382,57.707,3.0311,3.036e-06,-4,-4.9083e-06,0.20567,1
