9.8388,-46.001,23.952,-72.035,67.945,-102.41,80.568,-104.16,18.699,-62.591,89.183,-91.052,97.398,-109.23,88.791,-69.603
9.8388,-46.001,23.952,-72.035,67.945,-102.41,80.568,-104.16,18.699,-62.591,89.183,-91.052,97.398,-109.23,88.791,-69.603
9.7708,-45.476,23.84,-71.352,67.831,-101.72,80.43,-103.32,18.646,-61.96,88.926,-90.629,97.086,-108.51,88.554,-69.177
9.7708,-45.476,23.84,-71.352,67.831,-101.72,80.43,-103.32,18.646,-61.96,88.926,-90.629,97.086,-108.51,88.554,-69.177
9.7708,-45.476,23.84,-71.352,67.831,-101.72,80.43,-103.32,18.646,-61.96,88.926,-90.629,97.086,-108.51,88.554,-69.177
9.7024,-44.949,23.729,-70.667,67.714,-101.02,80.29,-102.48,18.593,-61.325,88.667,-90.2,96.774,-107.78,88.314,-68.748
9.7024,-44.949,23.729,-70.667,67.714,-101.02,80.29,-102.48,18.593,-61.325,88.667,-90.2,96.774,-107.78,88.314,-68.748
9.7024,-44.949,23.729,-70.667,67.714,-101.02,80.29,-102.48,18.593,-61.325,88.667,-90.2,96.774,-107.78,88.314,-68.748
9.5643,-43.89,23.504,-69.292,67.471,-99.616,80.004,-100.78,18.484,-60.046,88.141,-89.329,96.148,-106.32,87.828,-67.878
9.5643,-43.89,23.504,-69.292,67.471,-99.616,80.004,-100.78,18.484,-60.046,88.141,-89.329,96.148,-106.32,87.828,-67.878
9.4945,-43.359,23.391,-68.603,67.345,-98.906,79.859,-99.929,18.428,-59.402,87.874,-88.886,95.834,-105.59,87.581,-67.438
9.4945,-43.359,23.391,-68.603,67.345,-98.906,79.859,-99.929,18.428,-59.402,87.874,-88.886,95.834,-105.59,87.581,-67.438
9.4243,-42.826,23.278,-67.912,67.217,-98.191,79.712,-99.072,18.372,-58.755,87.604,-88.439,95.519,-104.85,87.331,-66.994
9.3537,-42.291,23.164,-67.219,67.086,-97.472,79.563,-98.211,18.315,-58.104,87.331,-87.988,95.203,-104.11,87.079,-66.546
9.3537,-42.291,23.164,-67.219,67.086,-97.472,79.563,-98.211,18.315,-58.104,87.331,-87.988,95.203,-104.11,87.079,-66.546
9.3537,-42.291,23.164,-67.219,67.086,-97.472,79.563,-98.211,18.315,-58.104,87.331,-87.988,95.203,-104.11,87.079,-66.546
9.2826,-41.755,23.05,-66.525,66.952,-96.749,79.412,-97.348,18.257,-57.451,87.056,-87.531,94.887,-103.36,86.825,-66.094
9.2826,-41.755,23.05,-66.525,66.952,-96.749,79.412,-97.348,18.257,-57.451,87.056,-87.531,94.887,-103.36,86.825,-66.094
9.211,-41.218,22.935,-65.83,66.816,-96.021,79.26,-96.48,18.199,-56.795,86.778,-87.071,94.57,-102.62,86.568,-65.639
9.211,-41.218,22.935,-65.83,66.816,-96.021,79.26,-96.48,18.199,-56.795,86.778,-87.071,94.57,-102.62,86.568,-65.639
9.1391,-40.679,22.82,-65.133,66.677,-95.288,79.106,-95.61,18.139,-56.136,86.497,-86.605,94.253,-101.87,86.308,-65.18
9.1391,-40.679,22.82,-65.133,66.677,-95.288,79.106,-95.61,18.139,-56.136,86.497,-86.605,94.253,-101.87,86.308,-65.18
9.0666,-40.139,22.705,-64.435,66.535,-94.552,78.95,-94.736,18.079,-55.473,86.213,-86.136,93.934,-101.11,86.047,-64.718
9.0666,-40.139,22.705,-64.435,66.535,-94.552,78.95,-94.736,18.079,-55.473,86.213,-86.136,93.934,-101.11,86.047,-64.718
8.9938,-39.597,22.589,-63.736,66.39,-93.811,78.792,-93.859,18.019,-54.808,85.927,-85.662,93.615,-100.35,85.782,-64.252
8.9938,-39.597,22.589,-63.736,66.39,-93.811,78.792,-93.859,18.019,-54.808,85.927,-85.662,93.615,-100.35,85.782,-64.252
8.9204,-39.054,22.473,-63.035,66.243,-93.065,78.632,-92.978,17.957,-54.14,85.639,-85.183,93.296,-99.592,85.516,-63.782
8.9204,-39.054,22.473,-63.035,66.243,-93.065,78.632,-92.978,17.957,-54.14,85.639,-85.183,93.296,-99.592,85.516,-63.782
8.8467,-38.51,22.357,-62.334,66.093,-92.316,78.471,-92.094,17.895,-53.469,85.347,-84.7,92.976,-98.828,85.246,-63.309
8.8467,-38.51,22.357,-62.334,66.093,-92.316,78.471,-92.094,17.895,-53.469,85.347,-84.7,92.976,-98.828,85.246,-63.309
8.7725,-37.965,22.241,-61.631,65.94,-91.562,78.307,-91.207,17.832,-52.796,85.053,-84.212,92.655,-98.06,84.975,-62.833
8.7725,-37.965,22.241,-61.631,65.94,-91.562,78.307,-91.207,17.832,-52.796,85.053,-84.212,92.655,-98.06,84.975,-62.833
8.6978,-37.418,22.124,-60.926,65.785,-90.804,78.142,-90.317,17.768,-52.119,84.757,-83.721,92.334,-97.29,84.701,-62.353
8.6978,-37.418,22.124,-60.926,65.785,-90.804,78.142,-90.317,17.768,-52.119,84.757,-83.721,92.334,-97.29,84.701,-62.353
8.6227,-36.87,22.006,-60.221,65.627,-90.042,77.975,-89.424,17.704,-51.44,84.458,-83.225,92.012,-96.517,84.424,-61.87
8.6227,-36.87,22.006,-60.221,65.627,-90.042,77.975,-89.424,17.704,-51.44,84.458,-83.225,92.012,-96.517,84.424,-61.87
8.5472,-36.321,21.889,-59.514,65.467,-89.276,77.807,-88.527,17.638,-50.758,84.156,-82.724,91.689,-95.741,84.145,-61.383
8.5472,-36.321,21.889,-59.514,65.467,-89.276,77.807,-88.527,17.638,-50.758,84.156,-82.724,91.689,-95.741,84.145,-61.383
8.4712,-35.77,21.771,-58.806,65.303,-88.506,77.636,-87.627,17.573,-50.074,83.851,-82.219,91.366,-94.961,83.864,-60.893
8.4712,-35.77,21.771,-58.806,65.303,-88.506,77.636,-87.627,17.573,-50.074,83.851,-82.219,91.366,-94.961,83.864,-60.893
8.3947,-35.218,21.653,-58.098,65.138,-87.732,77.464,-86.725,17.506,-49.387,83.544,-81.711,91.042,-94.179,83.58,-60.399
8.3947,-35.218,21.653,-58.098,65.138,-87.732,77.464,-86.725,17.506,-49.387,83.544,-81.711,91.042,-94.179,83.58,-60.399
8.3178,-34.665,21.535,-57.388,64.969,-86.953,77.29,-85.819,17.438,-48.697,83.235,-81.197,90.718,-93.394,83.294,-59.902
8.2405,-34.111,21.416,-56.677,64.798,-86.171,77.114,-84.91,17.37,-48.005,82.923,-80.68,90.393,-92.607,83.006,-59.402
8.2405,-34.111,21.416,-56.677,64.798,-86.171,77.114,-84.91,17.37,-48.005,82.923,-80.68,90.393,-92.607,83.006,-59.402
8.2405,-34.111,21.416,-56.677,64.798,-86.171,77.114,-84.91,17.37,-48.005,82.923,-80.68,90.393,-92.607,83.006,-59.402
8.1627,-33.556,21.297,-55.965,64.625,-85.385,76.936,-83.998,17.301,-47.31,82.608,-80.159,90.068,-91.816,82.715,-58.899
8.1627,-33.556,21.297,-55.965,64.625,-85.385,76.936,-83.998,17.301,-47.31,82.608,-80.159,90.068,-91.816,82.715,-58.899
8.0844,-33,21.178,-55.252,64.448,-84.595,76.757,-83.083,17.232,-46.613,82.291,-79.633,89.742,-91.023,82.421,-58.392
8.0844,-33,21.178,-55.252,64.448,-84.595,76.757,-83.083,17.232,-46.613,82.291,-79.633,89.742,-91.023,82.421,-58.392
8.0057,-32.442,21.058,-54.538,64.27,-83.802,76.575,-82.165,17.161,-45.913,81.971,-79.103,89.415,-90.227,82.126,-57.883
8.0057,-32.442,21.058,-54.538,64.27,-83.802,76.575,-82.165,17.161,-45.913,81.971,-79.103,89.415,-90.227,82.126,-57.883
7.9266,-31.884,20.938,-53.823,64.088,-83.004,76.392,-81.245,17.09,-45.21,81.649,-78.569,89.088,-89.429,81.827,-57.37
7.847,-31.324,20.818,-53.108,63.904,-82.203,76.207,-80.321,17.018,-44.506,81.324,-78.031,88.761,-88.628,81.527,-56.854
7.847,-31.324,20.818,-53.108,63.904,-82.203,76.207,-80.321,17.018,-44.506,81.324,-78.031,88.761,-88.628,81.527,-56.854
7.847,-31.324,20.818,-53.108,63.904,-82.203,76.207,-80.321,17.018,-44.506,81.324,-78.031,88.761,-88.628,81.527,-56.854
7.847,-31.324,20.818,-53.108,63.904,-82.203,76.207,-80.321,17.018,-44.506,81.324,-78.031,88.761,-88.628,81.527,-56.854
7.767,-30.763,20.698,-52.391,63.718,-81.398,76.02,-79.395,16.946,-43.799,80.996,-77.49,88.433,-87.824,81.224,-56.334
7.767,-30.763,20.698,-52.391,63.718,-81.398,76.02,-79.395,16.946,-43.799,80.996,-77.49,88.433,-87.824,81.224,-56.334
7.767,-30.763,20.698,-52.391,63.718,-81.398,76.02,-79.395,16.946,-43.799,80.996,-77.49,88.433,-87.824,81.224,-56.334
7.6056,-29.639,20.457,-50.956,63.338,-79.777,75.641,-77.534,16.798,-42.378,80.334,-76.394,87.775,-86.21,80.611,-55.287
7.6056,-29.639,20.457,-50.956,63.338,-79.777,75.641,-77.534,16.798,-42.378,80.334,-76.394,87.775,-86.21,80.611,-55.287
7.5242,-29.076,20.336,-50.237,63.144,-78.961,75.449,-76.599,16.723,-41.664,79.999,-75.84,87.446,-85.399,80.301,-54.758
7.5242,-29.076,20.336,-50.237,63.144,-78.961,75.449,-76.599,16.723,-41.664,79.999,-75.84,87.446,-85.399,80.301,-54.758
7.5242,-29.076,20.336,-50.237,63.144,-78.961,75.449,-76.599,16.723,-41.664,79.999,-75.84,87.446,-85.399,80.301,-54.758
7.4423,-28.511,20.215,-49.517,62.947,-78.142,75.255,-75.662,16.647,-40.948,79.662,-75.282,87.116,-84.586,79.989,-54.227
7.4423,-28.511,20.215,-49.517,62.947,-78.142,75.255,-75.662,16.647,-40.948,79.662,-75.282,87.116,-84.586,79.989,-54.227
7.4423,-28.511,20.215,-49.517,62.947,-78.142,75.255,-75.662,16.647,-40.948,79.662,-75.282,87.116,-84.586,79.989,-54.227
7.2773,-27.379,19.972,-48.075,62.547,-76.492,74.861,-73.779,16.494,-39.509,78.98,-74.156,86.454,-82.953,79.357,-53.155
7.2773,-27.379,19.972,-48.075,62.547,-76.492,74.861,-73.779,16.494,-39.509,78.98,-74.156,86.454,-82.953,79.357,-53.155
7.2773,-27.379,19.972,-48.075,62.547,-76.492,74.861,-73.779,16.494,-39.509,78.98,-74.156,86.454,-82.953,79.357,-53.155
7.1941,-26.812,19.85,-47.353,62.343,-75.663,74.662,-72.834,16.416,-38.787,78.636,-73.586,86.123,-82.133,79.038,-52.615
7.1105,-26.244,19.728,-46.631,62.137,-74.829,74.46,-71.886,16.338,-38.062,78.288,-73.013,85.791,-81.312,78.716,-52.072
7.0264,-25.675,19.606,-45.908,61.928,-73.993,74.257,-70.936,16.258,-37.335,77.939,-72.437,85.459,-80.487,78.392,-51.527
7.0264,-25.675,19.606,-45.908,61.928,-73.993,74.257,-70.936,16.258,-37.335,77.939,-72.437,85.459,-80.487,78.392,-51.527
6.9419,-25.105,19.484,-45.184,61.717,-73.153,74.052,-69.983,16.178,-36.607,77.587,-71.856,85.126,-79.661,78.066,-50.978
6.9419,-25.105,19.484,-45.184,61.717,-73.153,74.052,-69.983,16.178,-36.607,77.587,-71.856,85.126,-79.661,78.066,-50.978
6.9419,-25.105,19.484,-45.184,61.717,-73.153,74.052,-69.983,16.178,-36.607,77.587,-71.856,85.126,-79.661,78.066,-50.978
6.8569,-24.534,19.362,-44.46,61.503,-72.31,73.846,-69.027,16.097,-35.876,77.233,-71.272,84.793,-78.833,77.737,-50.427
6.8569,-24.534,19.362,-44.46,61.503,-72.31,73.846,-69.027,16.097,-35.876,77.233,-71.272,84.793,-78.833,77.737,-50.427
6.8569,-24.534,19.362,-44.46,61.503,-72.31,73.846,-69.027,16.097,-35.876,77.233,-71.272,84.793,-78.833,77.737,-50.427
6.7714,-23.963,19.239,-43.735,61.287,-71.464,73.637,-68.069,16.016,-35.144,76.876,-70.685,84.46,-78.003,77.406,-49.872
6.6856,-23.391,19.116,-43.01,61.068,-70.614,73.427,-67.109,15.933,-34.409,76.517,-70.093,84.126,-77.171,77.073,-49.316
6.6856,-23.391,19.116,-43.01,61.068,-70.614,73.427,-67.109,15.933,-34.409,76.517,-70.093,84.126,-77.171,77.073,-49.316
6.5992,-22.818,18.993,-42.284,60.848,-69.762,73.214,-66.147,15.85,-33.673,76.156,-69.498,83.792,-76.338,76.738,-48.756
6.5992,-22.818,18.993,-42.284,60.848,-69.762,73.214,-66.147,15.85,-33.673,76.156,-69.498,83.792,-76.338,76.738,-48.756
6.5124,-22.244,18.87,-41.558,60.624,-68.906,73,-65.182,15.766,-32.935,75.792,-68.9,83.457,-75.502,76.4,-48.194
6.5124,-22.244,18.87,-41.558,60.624,-68.906,73,-65.182,15.766,-32.935,75.792,-68.9,83.457,-75.502,76.4,-48.194
6.4252,-21.67,18.747,-40.831,60.399,-68.047,72.785,-64.215,15.682,-32.195,75.426,-68.298,83.122,-74.665,76.06,-47.629
6.4252,-21.67,18.747,-40.831,60.399,-68.047,72.785,-64.215,15.682,-32.195,75.426,-68.298,83.122,-74.665,76.06,-47.629
6.3375,-21.095,18.623,-40.104,60.171,-67.186,72.567,-63.245,15.596,-31.454,75.057,-67.693,82.787,-73.826,75.718,-47.062
6.3375,-21.095,18.623,-40.104,60.171,-67.186,72.567,-63.245,15.596,-31.454,75.057,-67.693,82.787,-73.826,75.718,-47.062
6.3375,-21.095,18.623,-40.104,60.171,-67.186,72.567,-63.245,15.596,-31.454,75.057,-67.693,82.787,-73.826,75.718,-47.062
6.2493,-20.519,18.5,-39.377,59.941,-66.321,72.348,-62.274,15.51,-30.711,74.686,-67.084,82.451,-72.985,75.373,-46.492
6.2493,-20.519,18.5,-39.377,59.941,-66.321,72.348,-62.274,15.51,-30.711,74.686,-67.084,82.451,-72.985,75.373,-46.492
6.2493,-20.519,18.5,-39.377,59.941,-66.321,72.348,-62.274,15.51,-30.711,74.686,-67.084,82.451,-72.985,75.373,-46.492
6.0717,-19.366,18.253,-37.921,59.473,-64.583,71.903,-60.324,15.336,-29.219,73.938,-65.856,81.779,-71.299,74.677,-45.345
6.0717,-19.366,18.253,-37.921,59.473,-64.583,71.903,-60.324,15.336,-29.219,73.938,-65.856,81.779,-71.299,74.677,-45.345
6.0717,-19.366,18.253,-37.921,59.473,-64.583,71.903,-60.324,15.336,-29.219,73.938,-65.856,81.779,-71.299,74.677,-45.345
5.9822,-18.789,18.129,-37.193,59.236,-63.71,71.679,-59.346,15.248,-28.472,73.56,-65.237,81.442,-70.454,74.326,-44.768
5.9822,-18.789,18.129,-37.193,59.236,-63.71,71.679,-59.346,15.248,-28.472,73.56,-65.237,81.442,-70.454,74.326,-44.768
5.8923,-18.211,18.005,-36.464,58.997,-62.834,71.452,-58.366,15.158,-27.722,73.18,-64.615,81.105,-69.607,73.972,-44.189
5.8923,-18.211,18.005,-36.464,58.997,-62.834,71.452,-58.366,15.158,-27.722,73.18,-64.615,81.105,-69.607,73.972,-44.189
5.8019,-17.632,17.881,-35.736,58.755,-61.955,71.223,-57.384,15.069,-26.971,72.798,-63.99,80.768,-68.759,73.617,-43.607
5.8019,-17.632,17.881,-35.736,58.755,-61.955,71.223,-57.384,15.069,-26.971,72.798,-63.99,80.768,-68.759,73.617,-43.607
5.711,-17.053,17.756,-35.007,58.511,-61.074,70.993,-56.4,14.978,-26.219,72.414,-63.361,80.43,-67.909,73.259,-43.023
5.711,-17.053,17.756,-35.007,58.511,-61.074,70.993,-56.4,14.978,-26.219,72.414,-63.361,80.43,-67.909,73.259,-43.023
5.711,-17.053,17.756,-35.007,58.511,-61.074,70.993,-56.4,14.978,-26.219,72.414,-63.361,80.43,-67.909,73.259,-43.023
5.528,-15.894,17.508,-33.548,58.017,-59.303,70.527,-54.426,14.795,-24.71,71.638,-62.094,79.754,-66.206,72.537,-41.848
5.528,-15.894,17.508,-33.548,58.017,-59.303,70.527,-54.426,14.795,-24.71,71.638,-62.094,79.754,-66.206,72.537,-41.848
5.528,-15.894,17.508,-33.548,58.017,-59.303,70.527,-54.426,14.795,-24.71,71.638,-62.094,79.754,-66.206,72.537,-41.848
5.4358,-15.313,17.383,-32.819,57.766,-58.414,70.292,-53.436,14.702,-23.953,71.247,-61.456,79.416,-65.353,72.172,-41.257
5.3432,-14.733,17.259,-32.09,57.513,-57.522,70.054,-52.444,14.608,-23.195,70.853,-60.815,79.077,-64.499,71.805,-40.664
5.2501,-14.151,17.134,-31.36,57.258,-56.628,69.815,-51.451,14.514,-22.436,70.458,-60.17,78.738,-63.643,71.437,-40.069
5.2501,-14.151,17.134,-31.36,57.258,-56.628,69.815,-51.451,14.514,-22.436,70.458,-60.17,78.738,-63.643,71.437,-40.069
5.2501,-14.151,17.134,-31.36,57.258,-56.628,69.815,-51.451,14.514,-22.436,70.458,-60.17,78.738,-63.643,71.437,-40.069
5.2501,-14.151,17.134,-31.36,57.258,-56.628,69.815,-51.451,14.514,-22.436,70.458,-60.17,78.738,-63.643,71.437,-40.069
5.1565,-13.57,17.009,-30.631,57.001,-55.732,69.574,-50.456,14.419,-21.676,70.06,-59.523,78.399,-62.787,71.066,-39.471
5.1565,-13.57,17.009,-30.631,57.001,-55.732,69.574,-50.456,14.419,-21.676,70.06,-59.523,78.399,-62.787,71.066,-39.471
5.1565,-13.57,17.009,-30.631,57.001,-55.732,69.574,-50.456,14.419,-21.676,70.06,-59.523,78.399,-62.787,71.066,-39.471
4.9681,-12.406,16.76,-29.172,56.48,-53.931,69.087,-48.46,14.227,-20.152,69.258,-58.22,77.72,-61.071,70.317,-38.271
4.9681,-12.406,16.76,-29.172,56.48,-53.931,69.087,-48.46,14.227,-20.152,69.258,-58.22,77.72,-61.071,70.317,-38.271
4.8732,-11.823,16.635,-28.443,56.216,-53.028,68.841,-47.46,14.129,-19.389,68.854,-57.564,77.38,-60.211,69.94,-37.668
4.7779,-11.241,16.51,-27.714,55.95,-52.122,68.593,-46.458,14.031,-18.624,68.448,-56.905,77.04,-59.351,69.561,-37.062
4.7779,-11.241,16.51,-27.714,55.95,-52.122,68.593,-46.458,14.031,-18.624,68.448,-56.905,77.04,-59.351,69.561,-37.062
4.6821,-10.658,16.385,-26.985,55.683,-51.214,68.343,-45.454,13.933,-17.859,68.039,-56.243,76.7,-58.49,69.179,-36.455
4.6821,-10.658,16.385,-26.985,55.683,-51.214,68.343,-45.454,13.933,-17.859,68.039,-56.243,76.7,-58.49,69.179,-36.455
4.6821,-10.658,16.385,-26.985,55.683,-51.214,68.343,-45.454,13.933,-17.859,68.039,-56.243,76.7,-58.49,69.179,-36.455
4.5859,-10.074,16.26,-26.256,55.413,-50.304,68.091,-44.45,13.833,-17.092,67.629,-55.579,76.36,-57.628,68.795,-35.847
4.5859,-10.074,16.26,-26.256,55.413,-50.304,68.091,-44.45,13.833,-17.092,67.629,-55.579,76.36,-57.628,68.795,-35.847
4.4892,-9.4909,16.135,-25.527,55.14,-49.392,67.838,-43.443,13.733,-16.325,67.216,-54.911,76.019,-56.766,68.41,-35.236
4.4892,-9.4909,16.135,-25.527,55.14,-49.392,67.838,-43.443,13.733,-16.325,67.216,-54.911,76.019,-56.766,68.41,-35.236
4.3921,-8.9072,16.01,-24.799,54.866,-48.478,67.583,-42.435,13.632,-15.557,66.801,-54.241,75.679,-55.903,68.022,-34.623
4.3921,-8.9072,16.01,-24.799,54.866,-48.478,67.583,-42.435,13.632,-15.557,66.801,-54.241,75.679,-55.903,68.022,-34.623
4.2946,-8.3235,15.885,-24.07,54.59,-47.561,67.326,-41.426,13.53,-14.788,66.384,-53.569,75.338,-55.039,67.632,-34.009
4.1966,-7.7395,15.76,-23.342,54.312,-46.643,67.067,-40.415,13.428,-14.018,65.965,-52.894,74.997,-54.175,67.24,-33.393
4.1966,-7.7395,15.76,-23.342,54.312,-46.643,67.067,-40.415,13.428,-14.018,65.965,-52.894,74.997,-54.175,67.24,-33.393
4.0981,-7.1555,15.635,-22.615,54.031,-45.723,66.807,-39.404,13.324,-13.248,65.545,-52.216,74.656,-53.31,66.846,-32.776
4.0981,-7.1555,15.635,-22.615,54.031,-45.723,66.807,-39.404,13.324,-13.248,65.545,-52.216,74.656,-53.31,66.846,-32.776
4.0981,-7.1555,15.635,-22.615,54.031,-45.723,66.807,-39.404,13.324,-13.248,65.545,-52.216,74.656,-53.31,66.846,-32.776
3.9993,-6.5714,15.51,-21.887,53.749,-44.801,66.545,-38.39,13.22,-12.476,65.122,-51.536,74.315,-52.445,66.45,-32.156
3.9993,-6.5714,15.51,-21.887,53.749,-44.801,66.545,-38.39,13.22,-12.476,65.122,-51.536,74.315,-52.445,66.45,-32.156
3.9993,-6.5714,15.51,-21.887,53.749,-44.801,66.545,-38.39,13.22,-12.476,65.122,-51.536,74.315,-52.445,66.45,-32.156
3.8999,-5.9873,15.385,-21.161,53.465,-43.878,66.281,-37.376,13.116,-11.705,64.697,-50.853,73.973,-51.579,66.052,-31.536
3.8002,-5.4031,15.259,-20.434,53.179,-42.952,66.016,-36.36,13.01,-10.932,64.27,-50.167,73.632,-50.714,65.652,-30.913
3.8002,-5.4031,15.259,-20.434,53.179,-42.952,66.016,-36.36,13.01,-10.932,64.27,-50.167,73.632,-50.714,65.652,-30.913
3.7,-4.8189,15.134,-19.708,52.89,-42.025,65.748,-35.344,12.904,-10.159,63.841,-49.48,73.29,-49.848,65.25,-30.289
3.7,-4.8189,15.134,-19.708,52.89,-42.025,65.748,-35.344,12.904,-10.159,63.841,-49.48,73.29,-49.848,65.25,-30.289
3.5993,-4.2347,15.009,-18.982,52.6,-41.096,65.479,-34.326,12.797,-9.3856,63.41,-48.79,72.949,-48.981,64.846,-29.664
3.5993,-4.2347,15.009,-18.982,52.6,-41.096,65.479,-34.326,12.797,-9.3856,63.41,-48.79,72.949,-48.981,64.846,-29.664
3.4983,-3.6506,14.884,-18.257,52.308,-40.166,65.209,-33.307,12.69,-8.6117,62.977,-48.097,72.607,-48.115,64.44,-29.037
3.4983,-3.6506,14.884,-18.257,52.308,-40.166,65.209,-33.307,12.69,-8.6117,62.977,-48.097,72.607,-48.115,64.44,-29.037
3.3967,-3.0665,14.759,-17.532,52.014,-39.233,64.936,-32.287,12.581,-7.8373,62.542,-47.403,72.265,-47.248,64.032,-28.409
3.3967,-3.0665,14.759,-17.532,52.014,-39.233,64.936,-32.287,12.581,-7.8373,62.542,-47.403,72.265,-47.248,64.032,-28.409
3.2948,-2.4825,14.634,-16.808,51.718,-38.3,64.662,-31.266,12.472,-7.0626,62.106,-46.706,71.923,-46.382,63.622,-27.78
3.1924,-1.8986,14.509,-16.085,51.42,-37.365,64.386,-30.244,12.363,-6.2875,61.667,-46.006,71.582,-45.515,63.21,-27.149
3.1924,-1.8986,14.509,-16.085,51.42,-37.365,64.386,-30.244,12.363,-6.2875,61.667,-46.006,71.582,-45.515,63.21,-27.149
3.1924,-1.8986,14.509,-16.085,51.42,-37.365,64.386,-30.244,12.363,-6.2875,61.667,-46.006,71.582,-45.515,63.21,-27.149
3.0896,-1.3149,14.384,-15.362,51.12,-36.428,64.108,-29.221,12.252,-5.5121,61.226,-45.305,71.24,-44.649,62.796,-26.517
3.0896,-1.3149,14.384,-15.362,51.12,-36.428,64.108,-29.221,12.252,-5.5121,61.226,-45.305,71.24,-44.649,62.796,-26.517
2.9863,-0.73128,14.259,-14.639,50.819,-35.491,63.829,-28.198,12.141,-4.7365,60.784,-44.601,70.898,-43.782,62.38,-25.884
2.9863,-0.73128,14.259,-14.639,50.819,-35.491,63.829,-28.198,12.141,-4.7365,60.784,-44.601,70.898,-43.782,62.38,-25.884
2.9863,-0.73128,14.259,-14.639,50.819,-35.491,63.829,-28.198,12.141,-4.7365,60.784,-44.601,70.898,-43.782,62.38,-25.884
2.8826,-0.14788,14.134,-13.918,50.515,-34.551,63.548,-27.173,12.029,-3.9607,60.34,-43.896,70.556,-42.916,61.963,-25.25
2.7785,0.43531,14.009,-13.197,50.21,-33.611,63.265,-26.148,11.916,-3.1848,59.893,-43.188,70.214,-42.05,61.543,-24.614
2.674,1.0183,13.884,-12.477,49.903,-32.669,62.981,-25.122,11.803,-2.4087,59.445,-42.479,69.872,-41.184,61.122,-23.978
2.674,1.0183,13.884,-12.477,49.903,-32.669,62.981,-25.122,11.803,-2.4087,59.445,-42.479,69.872,-41.184,61.122,-23.978
2.569,1.601,13.759,-11.757,49.594,-31.726,62.695,-24.095,11.689,-1.6326,58.996,-41.767,69.53,-40.318,60.698,-23.34
2.569,1.601,13.759,-11.757,49.594,-31.726,62.695,-24.095,11.689,-1.6326,58.996,-41.767,69.53,-40.318,60.698,-23.34
2.569,1.601,13.759,-11.757,49.594,-31.726,62.695,-24.095,11.689,-1.6326,58.996,-41.767,69.53,-40.318,60.698,-23.34
2.4636,2.1834,13.634,-11.038,49.283,-30.782,62.407,-23.068,11.574,-0.85644,58.544,-41.053,69.188,-39.453,60.273,-22.702
2.4636,2.1834,13.634,-11.038,49.283,-30.782,62.407,-23.068,11.574,-0.85644,58.544,-41.053,69.188,-39.453,60.273,-22.702
2.3578,2.7655,13.509,-10.32,48.971,-29.837,62.118,-22.04,11.458,-0.080312,58.09,-40.338,68.846,-38.588,59.846,-22.062
2.3578,2.7655,13.509,-10.32,48.971,-29.837,62.118,-22.04,11.458,-0.080312,58.09,-40.338,68.846,-38.588,59.846,-22.062
2.3578,2.7655,13.509,-10.32,48.971,-29.837,62.118,-22.04,11.458,-0.080312,58.09,-40.338,68.846,-38.588,59.846,-22.062
2.2515,3.3473,13.385,-9.6031,48.656,-28.891,61.827,-21.012,11.342,0.69574,57.635,-39.621,68.504,-37.724,59.417,-21.422
2.2515,3.3473,13.385,-9.6031,48.656,-28.891,61.827,-21.012,11.342,0.69574,57.635,-39.621,68.504,-37.724,59.417,-21.422
2.2515,3.3473,13.385,-9.6031,48.656,-28.891,61.827,-21.012,11.342,0.69574,57.635,-39.621,68.504,-37.724,59.417,-21.422
2.0378,4.5098,13.136,-8.1715,48.023,-26.996,61.239,-18.953,11.107,2.2475,56.719,-38.181,67.821,-35.997,58.554,-20.138
2.0378,4.5098,13.136,-8.1715,48.023,-26.996,61.239,-18.953,11.107,2.2475,56.719,-38.181,67.821,-35.997,58.554,-20.138
1.9303,5.0905,13.011,-7.457,47.703,-26.047,60.943,-17.924,10.989,3.0231,56.259,-37.458,67.479,-35.135,58.12,-19.495
1.9303,5.0905,13.011,-7.457,47.703,-26.047,60.943,-17.924,10.989,3.0231,56.259,-37.458,67.479,-35.135,58.12,-19.495
1.9303,5.0905,13.011,-7.457,47.703,-26.047,60.943,-17.924,10.989,3.0231,56.259,-37.458,67.479,-35.135,58.12,-19.495
1.8223,5.6707,12.887,-6.7434,47.382,-25.097,60.646,-16.893,10.87,3.7984,55.797,-36.734,67.138,-34.273,57.684,-18.852
1.714,6.2505,12.762,-6.0309,47.059,-24.147,60.346,-15.863,10.75,4.5734,55.333,-36.008,66.796,-33.412,57.246,-18.207
1.714,6.2505,12.762,-6.0309,47.059,-24.147,60.346,-15.863,10.75,4.5734,55.333,-36.008,66.796,-33.412,57.246,-18.207
1.714,6.2505,12.762,-6.0309,47.059,-24.147,60.346,-15.863,10.75,4.5734,55.333,-36.008,66.796,-33.412,57.246,-18.207
1.6052,6.8298,12.638,-5.3193,46.735,-23.195,60.045,-14.832,10.629,5.3481,54.867,-35.281,66.455,-32.551,56.806,-17.562
1.6052,6.8298,12.638,-5.3193,46.735,-23.195,60.045,-14.832,10.629,5.3481,54.867,-35.281,66.455,-32.551,56.806,-17.562
1.6052,6.8298,12.638,-5.3193,46.735,-23.195,60.045,-14.832,10.629,5.3481,54.867,-35.281,66.455,-32.551,56.806,-17.562
1.3865,7.9869,12.39,-3.8993,46.081,-21.291,59.438,-12.77,10.386,6.8964,53.931,-33.821,65.772,-30.833,55.922,-16.27
1.3865,7.9869,12.39,-3.8993,46.081,-21.291,59.438,-12.77,10.386,6.8964,53.931,-33.821,65.772,-30.833,55.922,-16.27
1.2765,8.5646,12.266,-3.1908,45.751,-20.337,59.133,-11.738,10.264,7.6698,53.46,-33.089,65.431,-29.976,55.477,-15.624
1.2765,8.5646,12.266,-3.1908,45.751,-20.337,59.133,-11.738,10.264,7.6698,53.46,-33.089,65.431,-29.976,55.477,-15.624
1.1661,9.1417,12.142,-2.4835,45.42,-19.384,58.825,-10.707,10.14,8.4427,52.988,-32.356,65.09,-29.119,55.03,-14.976
1.1661,9.1417,12.142,-2.4835,45.42,-19.384,58.825,-10.707,10.14,8.4427,52.988,-32.356,65.09,-29.119,55.03,-14.976
1.0553,9.7183,12.018,-1.7774,45.088,-18.429,58.516,-9.6749,10.016,9.2151,52.514,-31.621,64.749,-28.263,54.582,-14.329
1.0553,9.7183,12.018,-1.7774,45.088,-18.429,58.516,-9.6749,10.016,9.2151,52.514,-31.621,64.749,-28.263,54.582,-14.329
0.94406,10.294,11.894,-1.0724,44.753,-17.474,58.206,-8.6432,9.8918,9.9868,52.038,-30.885,64.409,-27.409,54.132,-13.681
0.94406,10.294,11.894,-1.0724,44.753,-17.474,58.206,-8.6432,9.8918,9.9868,52.038,-30.885,64.409,-27.409,54.132,-13.681
0.83245,10.87,11.77,-0.3686,44.418,-16.519,57.893,-7.6115,9.7664,10.758,51.561,-30.148,64.068,-26.556,53.681,-13.032
0.83245,10.87,11.77,-0.3686,44.418,-16.519,57.893,-7.6115,9.7664,10.758,51.561,-30.148,64.068,-26.556,53.681,-13.032
0.72044,11.444,11.647,0.33397,44.08,-15.564,57.58,-6.5799,9.6404,11.528,51.083,-29.41,63.728,-25.703,53.228,-12.383
0.72044,11.444,11.647,0.33397,44.08,-15.564,57.58,-6.5799,9.6404,11.528,51.083,-29.41,63.728,-25.703,53.228,-12.383
0.60803,12.018,11.523,1.0353,43.742,-14.608,57.264,-5.5484,9.5138,12.298,50.602,-28.67,63.388,-24.852,52.773,-11.734
0.49523,12.591,11.4,1.7353,43.401,-13.652,56.947,-4.517,9.3864,13.067,50.121,-27.929,63.048,-24.003,52.317,-11.085
0.49523,12.591,11.4,1.7353,43.401,-13.652,56.947,-4.517,9.3864,13.067,50.121,-27.929,63.048,-24.003,52.317,-11.085
0.49523,12.591,11.4,1.7353,43.401,-13.652,56.947,-4.517,9.3864,13.067,50.121,-27.929,63.048,-24.003,52.317,-11.085
0.38204,13.164,11.277,2.4341,43.06,-12.695,56.629,-3.4858,9.2584,13.835,49.637,-27.187,62.708,-23.155,51.858,-10.435
0.38204,13.164,11.277,2.4341,43.06,-12.695,56.629,-3.4858,9.2584,13.835,49.637,-27.187,62.708,-23.155,51.858,-10.435
0.26845,13.735,11.154,3.1315,42.716,-11.739,56.309,-2.4548,9.1297,14.602,49.153,-26.444,62.368,-22.308,51.399,-9.7857
0.26845,13.735,11.154,3.1315,42.716,-11.739,56.309,-2.4548,9.1297,14.602,49.153,-26.444,62.368,-22.308,51.399,-9.7857
0.15447,14.306,11.031,3.8275,42.372,-10.782,55.987,-1.4241,9.0003,15.368,48.666,-25.7,62.029,-21.462,50.938,-9.136
0.15447,14.306,11.031,3.8275,42.372,-10.782,55.987,-1.4241,9.0003,15.368,48.666,-25.7,62.029,-21.462,50.938,-9.136
0.040114,14.876,10.908,4.5222,42.025,-9.8256,55.664,-0.39373,8.8703,16.134,48.179,-24.955,61.69,-20.618,50.475,-8.4861
0.040114,14.876,10.908,4.5222,42.025,-9.8256,55.664,-0.39373,8.8703,16.134,48.179,-24.955,61.69,-20.618,50.475,-8.4861
-0.074631,15.446,10.785,5.2154,41.678,-8.8689,55.339,0.63629,8.7396,16.898,47.689,-24.209,61.351,-19.776,50.011,-7.8363
-0.074631,15.446,10.785,5.2154,41.678,-8.8689,55.339,0.63629,8.7396,16.898,47.689,-24.209,61.351,-19.776,50.011,-7.8363
-0.18976,16.014,10.662,5.9072,41.329,-7.9123,55.013,1.6659,8.6083,17.661,47.199,-23.462,61.013,-18.936,49.545,-7.1865
-0.18976,16.014,10.662,5.9072,41.329,-7.9123,55.013,1.6659,8.6083,17.661,47.199,-23.462,61.013,-18.936,49.545,-7.1865
-0.30526,16.582,10.54,6.5976,40.979,-6.9557,54.685,2.6951,8.4764,18.423,46.707,-22.714,60.674,-18.096,49.078,-6.5368
-0.30526,16.582,10.54,6.5976,40.979,-6.9557,54.685,2.6951,8.4764,18.423,46.707,-22.714,60.674,-18.096,49.078,-6.5368
-0.30526,16.582,10.54,6.5976,40.979,-6.9557,54.685,2.6951,8.4764,18.423,46.707,-22.714,60.674,-18.096,49.078,-6.5368
-0.42114,17.148,10.417,7.2864,40.627,-5.9993,54.356,3.7237,8.3437,19.184,46.213,-21.965,60.336,-17.259,48.609,-5.8871
-0.42114,17.148,10.417,7.2864,40.627,-5.9993,54.356,3.7237,8.3437,19.184,46.213,-21.965,60.336,-17.259,48.609,-5.8871
-0.53739,17.714,10.295,7.9737,40.274,-5.043,54.026,4.7519,8.2105,19.944,45.718,-21.216,59.998,-16.424,48.139,-5.2377
-0.53739,17.714,10.295,7.9737,40.274,-5.043,54.026,4.7519,8.2105,19.944,45.718,-21.216,59.998,-16.424,48.139,-5.2377
-0.77101,18.842,10.051,9.3437,39.563,-3.1312,53.36,6.8063,7.9421,21.46,44.725,-19.715,59.323,-14.758,47.194,-3.9394
-0.77101,18.842,10.051,9.3437,39.563,-3.1312,53.36,6.8063,7.9421,21.46,44.725,-19.715,59.323,-14.758,47.194,-3.9394
-0.77101,18.842,10.051,9.3437,39.563,-3.1312,53.36,6.8063,7.9421,21.46,44.725,-19.715,59.323,-14.758,47.194,-3.9394
-0.88836,19.405,9.929,10.026,39.206,-2.1757,53.025,7.8326,7.8069,22.216,44.226,-18.964,58.986,-13.928,46.719,-3.2906
-0.88836,19.405,9.929,10.026,39.206,-2.1757,53.025,7.8326,7.8069,22.216,44.226,-18.964,58.986,-13.928,46.719,-3.2906
-0.88836,19.405,9.929,10.026,39.206,-2.1757,53.025,7.8326,7.8069,22.216,44.226,-18.964,58.986,-13.928,46.719,-3.2906
-1.0061,19.967,9.8073,10.707,38.848,-1.2206,52.688,8.8581,7.6711,22.971,43.726,-18.212,58.65,-13.1,46.243,-2.6422
-1.1242,20.527,9.6858,11.387,38.488,-0.26597,52.35,9.8829,7.5347,23.724,43.224,-17.46,58.313,-12.274,45.765,-1.9941
-1.2426,21.087,9.5643,12.064,38.127,0.68823,52.01,10.907,7.3977,24.476,42.721,-16.707,57.977,-11.45,45.287,-1.3465
-1.2426,21.087,9.5643,12.064,38.127,0.68823,52.01,10.907,7.3977,24.476,42.721,-16.707,57.977,-11.45,45.287,-1.3465
-1.2426,21.087,9.5643,12.064,38.127,0.68823,52.01,10.907,7.3977,24.476,42.721,-16.707,57.977,-11.45,45.287,-1.3465
-1.3614,21.645,9.443,12.74,37.765,1.6419,51.669,11.93,7.2601,25.226,42.217,-15.953,57.642,-10.629,44.806,-0.69933
-1.3614,21.645,9.443,12.74,37.765,1.6419,51.669,11.93,7.2601,25.226,42.217,-15.953,57.642,-10.629,44.806,-0.69933
-1.4805,22.203,9.3219,13.414,37.402,2.595,51.327,12.952,7.1218,25.975,41.712,-15.2,57.306,-9.809,44.325,-0.05265
-1.4805,22.203,9.3219,13.414,37.402,2.595,51.327,12.952,7.1218,25.975,41.712,-15.2,57.306,-9.809,44.325,-0.05265
-1.6,22.759,9.2009,14.087,37.037,3.5476,50.983,13.974,6.983,26.722,41.205,-14.445,56.972,-8.9916,43.842,0.59349
-1.6,22.759,9.2009,14.087,37.037,3.5476,50.983,13.974,6.983,26.722,41.205,-14.445,56.972,-8.9916,43.842,0.59349
-1.7198,23.314,9.0801,14.757,36.672,4.4994,50.638,14.994,6.8435,27.467,40.698,-13.691,56.637,-8.1765,43.358,1.239
-1.84,23.868,8.9594,15.426,36.305,5.4506,50.291,16.013,6.7035,28.211,40.189,-12.936,56.303,-7.3637,42.872,1.884
-1.84,23.868,8.9594,15.426,36.305,5.4506,50.291,16.013,6.7035,28.211,40.189,-12.936,56.303,-7.3637,42.872,1.884
-1.84,23.868,8.9594,15.426,36.305,5.4506,50.291,16.013,6.7035,28.211,40.189,-12.936,56.303,-7.3637,42.872,1.884
-1.9605,24.42,8.8389,16.093,35.936,6.401,49.943,17.032,6.5628,28.953,39.678,-12.181,55.969,-6.5533,42.386,2.5282
-1.9605,24.42,8.8389,16.093,35.936,6.401,49.943,17.032,6.5628,28.953,39.678,-12.181,55.969,-6.5533,42.386,2.5282
-2.0814,24.972,8.7186,16.758,35.567,7.3506,49.594,18.049,6.4216,29.694,39.167,-11.426,55.635,-5.7453,41.898,3.1718
-2.0814,24.972,8.7186,16.758,35.567,7.3506,49.594,18.049,6.4216,29.694,39.167,-11.426,55.635,-5.7453,41.898,3.1718
-2.0814,24.972,8.7186,16.758,35.567,7.3506,49.594,18.049,6.4216,29.694,39.167,-11.426,55.635,-5.7453,41.898,3.1718
-2.2025,25.522,8.5984,17.421,35.197,8.2993,49.243,19.065,6.2798,30.432,38.655,-10.671,55.302,-4.9397,41.408,3.8146
-2.2025,25.522,8.5984,17.421,35.197,8.2993,49.243,19.065,6.2798,30.432,38.655,-10.671,55.302,-4.9397,41.408,3.8146
-2.2025,25.522,8.5984,17.421,35.197,8.2993,49.243,19.065,6.2798,30.432,38.655,-10.671,55.302,-4.9397,41.408,3.8146
-2.4459,26.618,8.3585,18.742,34.453,10.194,48.537,21.093,5.9945,31.904,37.626,-9.1597,54.637,-3.3362,40.426,5.0977
-2.4459,26.618,8.3585,18.742,34.453,10.194,48.537,21.093,5.9945,31.904,37.626,-9.1597,54.637,-3.3362,40.426,5.0977
-2.568,27.164,8.2388,19.399,34.079,11.14,48.182,22.105,5.851,32.637,37.111,-8.4042,54.306,-2.5383,39.933,5.7379
-2.6905,27.709,8.1193,20.055,33.705,12.085,47.826,23.116,5.7069,33.368,36.594,-7.6488,53.974,-1.743,39.439,6.3773
-2.6905,27.709,8.1193,20.055,33.705,12.085,47.826,23.116,5.7069,33.368,36.594,-7.6488,53.974,-1.743,39.439,6.3773
-2.6905,27.709,8.1193,20.055,33.705,12.085,47.826,23.116,5.7069,33.368,36.594,-7.6488,53.974,-1.743,39.439,6.3773
-2.8133,28.253,8,20.708,33.329,13.029,47.469,24.126,5.5622,34.097,36.076,-6.8934,53.643,-0.95046,38.944,7.0157
-2.8133,28.253,8,20.708,33.329,13.029,47.469,24.126,5.5622,34.097,36.076,-6.8934,53.643,-0.95046,38.944,7.0157
-2.8133,28.253,8,20.708,33.329,13.029,47.469,24.126,5.5622,34.097,36.076,-6.8934,53.643,-0.95046,38.944,7.0157
-2.9364,28.795,7.8808,21.36,32.952,13.972,47.11,25.134,5.417,34.824,35.557,-6.1381,53.313,-0.16065,38.447,7.653
-2.9364,28.795,7.8808,21.36,32.952,13.972,47.11,25.134,5.417,34.824,35.557,-6.1381,53.313,-0.16065,38.447,7.653
-3.1834,29.875,7.643,22.656,32.196,15.853,46.388,27.146,5.125,36.271,34.516,-4.6281,52.653,1.4105,37.451,8.9245
-3.1834,29.875,7.643,22.656,32.196,15.853,46.388,27.146,5.125,36.271,34.516,-4.6281,52.653,1.4105,37.451,8.9245
-3.1834,29.875,7.643,22.656,32.196,15.853,46.388,27.146,5.125,36.271,34.516,-4.6281,52.653,1.4105,37.451,8.9245
-3.3074,30.412,7.5244,23.301,31.816,16.792,46.025,28.15,4.9782,36.992,33.994,-3.8735,52.324,2.1918,36.951,9.5586
-3.3074,30.412,7.5244,23.301,31.816,16.792,46.025,28.15,4.9782,36.992,33.994,-3.8735,52.324,2.1918,36.951,9.5586
-3.3074,30.412,7.5244,23.301,31.816,16.792,46.025,28.15,4.9782,36.992,33.994,-3.8735,52.324,2.1918,36.951,9.5586
-3.4317,30.949,7.4059,23.944,31.435,17.73,45.661,29.152,4.8309,37.71,33.472,-3.1191,51.995,2.9702,36.451,10.191
-3.4317,30.949,7.4059,23.944,31.435,17.73,45.661,29.152,4.8309,37.71,33.472,-3.1191,51.995,2.9702,36.451,10.191
-3.6812,32.016,7.1695,25.224,30.671,19.601,44.929,31.151,4.5347,39.14,32.423,-1.6114,51.34,4.5179,35.446,11.454
-3.6812,32.016,7.1695,25.224,30.671,19.601,44.929,31.151,4.5347,39.14,32.423,-1.6114,51.34,4.5179,35.446,11.454
-3.8063,32.548,7.0516,25.86,30.288,20.535,44.561,32.149,4.3858,39.851,31.898,-0.85821,51.012,5.2872,34.942,12.083
-3.8063,32.548,7.0516,25.86,30.288,20.535,44.561,32.149,4.3858,39.851,31.898,-0.85821,51.012,5.2872,34.942,12.083
-3.8063,32.548,7.0516,25.86,30.288,20.535,44.561,32.149,4.3858,39.851,31.898,-0.85821,51.012,5.2872,34.942,12.083
-3.9318,33.078,6.9339,26.494,29.903,21.467,44.192,33.144,4.2364,40.56,31.371,-0.10544,50.686,6.0534,34.437,12.71
-3.9318,33.078,6.9339,26.494,29.903,21.467,44.192,33.144,4.2364,40.56,31.371,-0.10544,50.686,6.0534,34.437,12.71
-4.0575,33.607,6.8164,27.126,29.518,22.398,43.822,34.138,4.0865,41.267,30.844,0.64681,50.36,6.8165,33.931,13.337
-4.1835,34.133,6.699,27.756,29.132,23.326,43.45,35.129,3.9361,41.971,30.316,1.3985,50.034,7.5763,33.424,13.962
-4.1835,34.133,6.699,27.756,29.132,23.326,43.45,35.129,3.9361,41.971,30.316,1.3985,50.034,7.5763,33.424,13.962
-4.3097,34.659,6.5819,28.383,28.745,24.254,43.077,36.119,3.7852,42.672,29.787,2.1496,49.709,8.3329,32.917,14.585
-4.3097,34.659,6.5819,28.383,28.745,24.254,43.077,36.119,3.7852,42.672,29.787,2.1496,49.709,8.3329,32.917,14.585
-4.3097,34.659,6.5819,28.383,28.745,24.254,43.077,36.119,3.7852,42.672,29.787,2.1496,49.709,8.3329,32.917,14.585
-4.4362,35.182,6.4649,29.008,28.358,25.179,42.703,37.107,3.6339,43.371,29.257,2.9001,49.385,9.0862,32.408,15.207
-4.4362,35.182,6.4649,29.008,28.358,25.179,42.703,37.107,3.6339,43.371,29.257,2.9001,49.385,9.0862,32.408,15.207
-4.563,35.704,6.3482,29.631,27.969,26.103,42.328,38.093,3.482,44.068,28.726,3.6499,49.061,9.8361,31.898,15.828
-4.563,35.704,6.3482,29.631,27.969,26.103,42.328,38.093,3.482,44.068,28.726,3.6499,49.061,9.8361,31.898,15.828
-4.563,35.704,6.3482,29.631,27.969,26.103,42.328,38.093,3.482,44.068,28.726,3.6499,49.061,9.8361,31.898,15.828
-4.69,36.224,6.2316,30.251,27.58,27.025,41.952,39.077,3.3297,44.762,28.195,4.399,48.738,10.583,31.388,16.447
-4.69,36.224,6.2316,30.251,27.58,27.025,41.952,39.077,3.3297,44.762,28.195,4.399,48.738,10.583,31.388,16.447
-4.69,36.224,6.2316,30.251,27.58,27.025,41.952,39.077,3.3297,44.762,28.195,4.399,48.738,10.583,31.388,16.447
-4.69,36.224,6.2316,30.251,27.58,27.025,41.952,39.077,3.3297,44.762,28.195,4.399,48.738,10.583,31.388,16.447
-4.9448,37.259,5.9991,31.485,26.8,28.864,41.196,41.039,3.0237,46.141,27.13,5.8948,48.093,12.066,30.364,17.679
-4.9448,37.259,5.9991,31.485,26.8,28.864,41.196,41.039,3.0237,46.141,27.13,5.8948,48.093,12.066,30.364,17.679
-4.9448,37.259,5.9991,31.485,26.8,28.864,41.196,41.039,3.0237,46.141,27.13,5.8948,48.093,12.066,30.364,17.679
-5.2005,38.287,5.7674,32.709,26.016,30.695,40.435,42.993,2.716,47.51,26.062,7.3873,47.45,13.534,29.337,18.905
-5.2005,38.287,5.7674,32.709,26.016,30.695,40.435,42.993,2.716,47.51,26.062,7.3873,47.45,13.534,29.337,18.905
-5.3287,38.798,5.6518,33.317,25.623,31.608,40.053,43.966,2.5614,48.19,25.527,8.1322,47.13,14.264,28.823,19.515
-5.3287,38.798,5.6518,33.317,25.623,31.608,40.053,43.966,2.5614,48.19,25.527,8.1322,47.13,14.264,28.823,19.515
-5.4571,39.308,5.5364,33.922,25.23,32.519,39.67,44.938,2.4064,48.867,24.992,8.876,46.81,14.989,28.307,20.124
-5.4571,39.308,5.5364,33.922,25.23,32.519,39.67,44.938,2.4064,48.867,24.992,8.876,46.81,14.989,28.307,20.124
-5.4571,39.308,5.5364,33.922,25.23,32.519,39.67,44.938,2.4064,48.867,24.992,8.876,46.81,14.989,28.307,20.124
-5.5858,39.815,5.4213,34.525,24.835,33.427,39.285,45.907,2.251,49.541,24.456,9.6189,46.491,15.711,27.791,20.73
-5.5858,39.815,5.4213,34.525,24.835,33.427,39.285,45.907,2.251,49.541,24.456,9.6189,46.491,15.711,27.791,20.73
-5.5858,39.815,5.4213,34.525,24.835,33.427,39.285,45.907,2.251,49.541,24.456,9.6189,46.491,15.711,27.791,20.73
-5.8438,40.825,5.1916,35.724,24.045,35.238,38.514,47.838,1.939,50.881,23.382,11.101,45.854,17.143,26.757,21.938
-5.8438,40.825,5.1916,35.724,24.045,35.238,38.514,47.838,1.939,50.881,23.382,11.101,45.854,17.143,26.757,21.938
-5.8438,40.825,5.1916,35.724,24.045,35.238,38.514,47.838,1.939,50.881,23.382,11.101,45.854,17.143,26.757,21.938
-5.9731,41.327,5.0771,36.32,23.649,36.14,38.126,48.8,1.7824,51.547,22.844,11.841,45.537,17.854,26.239,22.539
-5.9731,41.327,5.0771,36.32,23.649,36.14,38.126,48.8,1.7824,51.547,22.844,11.841,45.537,17.854,26.239,22.539
-6.1026,41.827,4.9627,36.912,23.252,37.04,37.738,49.759,1.6254,52.209,22.305,12.579,45.221,18.56,25.72,23.137
-6.2323,42.325,4.8486,37.503,22.855,37.938,37.348,50.716,1.468,52.868,21.766,13.317,44.905,19.263,25.2,23.734
-6.3622,42.821,4.7347,38.09,22.457,38.833,36.957,51.67,1.3102,53.524,21.227,14.053,44.589,19.962,24.68,24.328
-6.3622,42.821,4.7347,38.09,22.457,38.833,36.957,51.67,1.3102,53.524,21.227,14.053,44.589,19.962,24.68,24.328
-6.3622,42.821,4.7347,38.09,22.457,38.833,36.957,51.67,1.3102,53.524,21.227,14.053,44.589,19.962,24.68,24.328
-6.4922,43.315,4.6211,38.675,22.059,39.726,36.566,52.622,1.1521,54.177,20.687,14.787,44.275,20.657,24.159,24.921
-6.4922,43.315,4.6211,38.675,22.059,39.726,36.566,52.622,1.1521,54.177,20.687,14.787,44.275,20.657,24.159,24.921
-6.4922,43.315,4.6211,38.675,22.059,39.726,36.566,52.622,1.1521,54.177,20.687,14.787,44.275,20.657,24.159,24.921
-6.6225,43.807,4.5076,39.257,21.66,40.617,36.173,53.572,0.99355,54.827,20.146,15.521,43.961,21.348,23.638,25.511
-6.7529,44.297,4.3943,39.837,21.261,41.505,35.779,54.518,0.83468,55.474,19.605,16.253,43.648,22.035,23.116,26.099
-6.8835,44.785,4.2813,40.414,20.861,42.39,35.385,55.463,0.67547,56.117,19.064,16.983,43.335,22.718,22.593,26.685
-6.8835,44.785,4.2813,40.414,20.861,42.39,35.385,55.463,0.67547,56.117,19.064,16.983,43.335,22.718,22.593,26.685
-6.8835,44.785,4.2813,40.414,20.861,42.39,35.385,55.463,0.67547,56.117,19.064,16.983,43.335,22.718,22.593,26.685
-7.0143,45.271,4.1685,40.988,20.461,43.274,34.989,56.404,0.51591,56.757,18.522,17.712,43.023,23.397,22.07,27.268
-7.0143,45.271,4.1685,40.988,20.461,43.274,34.989,56.404,0.51591,56.757,18.522,17.712,43.023,23.397,22.07,27.268
-7.0143,45.271,4.1685,40.988,20.461,43.274,34.989,56.404,0.51591,56.757,18.522,17.712,43.023,23.397,22.07,27.268
-7.1453,45.754,4.0559,41.559,20.06,44.154,34.592,57.343,0.35602,57.394,17.98,18.44,42.712,24.071,21.546,27.849
-7.1453,45.754,4.0559,41.559,20.06,44.154,34.592,57.343,0.35602,57.394,17.98,18.44,42.712,24.071,21.546,27.849
-7.2764,46.236,3.9435,42.128,19.659,45.032,34.195,58.278,0.19581,58.027,17.437,19.166,42.402,24.742,21.022,28.428
-7.4076,46.716,3.8313,42.693,19.257,45.907,33.796,59.211,0.03528,58.657,16.895,19.89,42.092,25.408,20.498,29.004
-7.4076,46.716,3.8313,42.693,19.257,45.907,33.796,59.211,0.03528,58.657,16.895,19.89,42.092,25.408,20.498,29.004
-7.539,47.193,3.7194,43.256,18.855,46.78,33.397,60.142,-0.12556,59.283,16.351,20.613,41.783,26.07,19.973,29.578
-7.539,47.193,3.7194,43.256,18.855,46.78,33.397,60.142,-0.12556,59.283,16.351,20.613,41.783,26.07,19.973,29.578
-7.6705,47.668,3.6077,43.816,18.453,47.65,32.997,61.069,-0.2867,59.906,15.808,21.334,41.475,26.728,19.448,30.15
-7.6705,47.668,3.6077,43.816,18.453,47.65,32.997,61.069,-0.2867,59.906,15.808,21.334,41.475,26.728,19.448,30.15
-7.6705,47.668,3.6077,43.816,18.453,47.65,32.997,61.069,-0.2867,59.906,15.808,21.334,41.475,26.728,19.448,30.15
-7.8022,48.141,3.4962,44.373,18.05,48.517,32.595,61.993,-0.44813,60.526,15.264,22.054,41.168,27.381,18.922,30.718
-7.8022,48.141,3.4962,44.373,18.05,48.517,32.595,61.993,-0.44813,60.526,15.264,22.054,41.168,27.381,18.922,30.718
-7.934,48.612,3.3849,44.928,17.647,49.381,32.193,62.915,-0.60985,61.142,14.72,22.771,40.861,28.03,18.396,31.285
-8.0659,49.081,3.2739,45.479,17.244,50.243,31.79,63.833,-0.77184,61.754,14.176,23.487,40.555,28.675,17.869,31.849
-8.0659,49.081,3.2739,45.479,17.244,50.243,31.79,63.833,-0.77184,61.754,14.176,23.487,40.555,28.675,17.869,31.849
-8.198,49.547,3.1631,46.028,16.84,51.102,31.386,64.748,-0.9341,62.363,13.631,24.202,40.25,29.315,17.342,32.41
-8.198,49.547,3.1631,46.028,16.84,51.102,31.386,64.748,-0.9341,62.363,13.631,24.202,40.25,29.315,17.342,32.41
-8.3301,50.011,3.0525,46.573,16.436,51.957,30.982,65.661,-1.0966,62.968,13.086,24.914,39.946,29.951,16.815,32.968
-8.3301,50.011,3.0525,46.573,16.436,51.957,30.982,65.661,-1.0966,62.968,13.086,24.914,39.946,29.951,16.815,32.968
-8.4624,50.473,2.9421,47.116,16.032,52.81,30.576,66.57,-1.2594,63.569,12.542,25.624,39.642,30.582,16.288,33.524
-8.4624,50.473,2.9421,47.116,16.032,52.81,30.576,66.57,-1.2594,63.569,12.542,25.624,39.642,30.582,16.288,33.524
-8.5947,50.932,2.832,47.656,15.627,53.66,30.17,67.476,-1.4224,64.167,11.996,26.333,39.339,31.209,15.76,34.077
-8.5947,50.932,2.832,47.656,15.627,53.66,30.17,67.476,-1.4224,64.167,11.996,26.333,39.339,31.209,15.76,34.077
-8.7272,51.389,2.7221,48.193,15.222,54.507,29.763,68.379,-1.5856,64.761,11.451,27.04,39.037,31.831,15.232,34.627
-8.7272,51.389,2.7221,48.193,15.222,54.507,29.763,68.379,-1.5856,64.761,11.451,27.04,39.037,31.831,15.232,34.627
-8.8598,51.844,2.6124,48.726,14.817,55.35,29.355,69.279,-1.7491,65.351,10.906,27.744,38.736,32.449,14.704,35.175
-8.8598,51.844,2.6124,48.726,14.817,55.35,29.355,69.279,-1.7491,65.351,10.906,27.744,38.736,32.449,14.704,35.175
-8.9924,52.297,2.503,49.257,14.412,56.191,28.946,70.175,-1.9128,65.937,10.36,28.447,38.435,33.062,14.175,35.719
-8.9924,52.297,2.503,49.257,14.412,56.191,28.946,70.175,-1.9128,65.937,10.36,28.447,38.435,33.062,14.175,35.719
-9.1251,52.747,2.3938,49.785,14.006,57.028,28.536,71.068,-2.0767,66.52,9.815,29.147,38.136,33.67,13.646,36.261
-9.1251,52.747,2.3938,49.785,14.006,57.028,28.536,71.068,-2.0767,66.52,9.815,29.147,38.136,33.67,13.646,36.261
-9.1251,52.747,2.3938,49.785,14.006,57.028,28.536,71.068,-2.0767,66.52,9.815,29.147,38.136,33.67,13.646,36.261
-9.2579,53.195,2.2848,50.309,13.601,57.863,28.126,71.958,-2.2408,67.098,9.2694,29.846,37.837,34.274,13.118,36.8
-9.3908,53.64,2.1761,50.831,13.195,58.694,27.715,72.845,-2.405,67.673,8.7237,30.542,37.539,34.873,12.589,37.336
-9.5237,54.083,2.0676,51.35,12.789,59.522,27.303,73.728,-2.5695,68.244,8.1781,31.236,37.242,35.467,12.059,37.869
-9.5237,54.083,2.0676,51.35,12.789,59.522,27.303,73.728,-2.5695,68.244,8.1781,31.236,37.242,35.467,12.059,37.869
-9.5237,54.083,2.0676,51.35,12.789,59.522,27.303,73.728,-2.5695,68.244,8.1781,31.236,37.242,35.467,12.059,37.869
-9.6567,54.524,1.9593,51.865,12.383,60.346,26.891,74.608,-2.7341,68.811,7.6325,31.928,36.945,36.057,11.53,38.399
-9.6567,54.524,1.9593,51.865,12.383,60.346,26.891,74.608,-2.7341,68.811,7.6325,31.928,36.945,36.057,11.53,38.399
-9.6567,54.524,1.9593,51.865,12.383,60.346,26.891,74.608,-2.7341,68.811,7.6325,31.928,36.945,36.057,11.53,38.399
-9.6567,54.524,1.9593,51.865,12.383,60.346,26.891,74.608,-2.7341,68.811,7.6325,31.928,36.945,36.057,11.53,38.399
-9.9228,55.398,1.7435,52.887,11.57,61.986,26.064,76.357,-3.0638,69.932,6.5413,33.305,36.355,37.221,10.472,39.449
-9.9228,55.398,1.7435,52.887,11.57,61.986,26.064,76.357,-3.0638,69.932,6.5413,33.305,36.355,37.221,10.472,39.449
-10.056,55.831,1.636,53.393,11.164,62.8,25.649,77.226,-3.2289,70.487,5.9958,33.99,36.061,37.796,9.9422,39.97
-10.056,55.831,1.636,53.393,11.164,62.8,25.649,77.226,-3.2289,70.487,5.9958,33.99,36.061,37.796,9.9422,39.97
-10.056,55.831,1.636,53.393,11.164,62.8,25.649,77.226,-3.2289,70.487,5.9958,33.99,36.061,37.796,9.9422,39.97
-10.189,56.261,1.5287,53.896,10.757,63.611,25.234,78.092,-3.3941,71.038,5.4504,34.673,35.768,38.367,9.4127,40.488
-10.189,56.261,1.5287,53.896,10.757,63.611,25.234,78.092,-3.3941,71.038,5.4504,34.673,35.768,38.367,9.4127,40.488
-10.455,57.115,1.3148,54.892,9.9442,65.223,24.402,79.813,-3.7249,72.127,4.3599,36.031,35.185,39.492,8.3539,41.513
-10.455,57.115,1.3148,54.892,9.9442,65.223,24.402,79.813,-3.7249,72.127,4.3599,36.031,35.185,39.492,8.3539,41.513
-10.455,57.115,1.3148,54.892,9.9442,65.223,24.402,79.813,-3.7249,72.127,4.3599,36.031,35.185,39.492,8.3539,41.513
-10.589,57.538,1.2082,55.386,9.5377,66.024,23.985,80.668,-3.8904,72.665,3.8148,36.707,34.895,40.047,7.8245,42.021
-10.589,57.538,1.2082,55.386,9.5377,66.024,23.985,80.668,-3.8904,72.665,3.8148,36.707,34.895,40.047,7.8245,42.021
-10.589,57.538,1.2082,55.386,9.5377,66.024,23.985,80.668,-3.8904,72.665,3.8148,36.707,34.895,40.047,7.8245,42.021
-10.722,57.959,1.1019,55.876,9.1311,66.821,23.567,81.519,-4.0561,73.2,3.2699,37.38,34.605,40.598,7.2952,42.526
-10.722,57.959,1.1019,55.876,9.1311,66.821,23.567,81.519,-4.0561,73.2,3.2699,37.38,34.605,40.598,7.2952,42.526
-10.722,57.959,1.1019,55.876,9.1311,66.821,23.567,81.519,-4.0561,73.2,3.2699,37.38,34.605,40.598,7.2952,42.526
-10.988,58.792,0.8899,56.847,8.318,68.405,22.729,83.211,-4.3876,74.255,2.1808,38.718,34.029,41.683,6.2369,43.526
-10.988,58.792,0.8899,56.847,8.318,68.405,22.729,83.211,-4.3876,74.255,2.1808,38.718,34.029,41.683,6.2369,43.526
-11.121,59.205,0.78429,57.328,7.9115,69.191,22.31,84.051,-4.5535,74.777,1.6366,39.383,33.742,42.219,5.7079,44.02
-11.121,59.205,0.78429,57.328,7.9115,69.191,22.31,84.051,-4.5535,74.777,1.6366,39.383,33.742,42.219,5.7079,44.02
-11.255,59.615,0.67892,57.805,7.5051,69.974,21.89,84.888,-4.7194,75.294,1.0926,40.046,33.456,42.749,5.1791,44.512
-11.255,59.615,0.67892,57.805,7.5051,69.974,21.89,84.888,-4.7194,75.294,1.0926,40.046,33.456,42.749,5.1791,44.512
-11.388,60.023,0.57381,58.279,7.0987,70.753,21.469,85.72,-4.8854,75.807,0.54885,40.706,33.171,43.274,4.6504,45
-11.388,60.023,0.57381,58.279,7.0987,70.753,21.469,85.72,-4.8854,75.807,0.54885,40.706,33.171,43.274,4.6504,45
-11.521,60.428,0.46894,58.75,6.6925,71.528,21.048,86.549,-5.0514,76.315,0.0054294,41.364,32.887,43.793,4.122,45.484
-11.521,60.428,0.46894,58.75,6.6925,71.528,21.048,86.549,-5.0514,76.315,0.0054294,41.364,32.887,43.793,4.122,45.484
-11.654,60.83,0.36432,59.217,6.2863,72.3,20.626,87.374,-5.2174,76.82,-0.53768,42.018,32.604,44.308,3.5937,45.965
-11.654,60.83,0.36432,59.217,6.2863,72.3,20.626,87.374,-5.2174,76.82,-0.53768,42.018,32.604,44.308,3.5937,45.965
-11.787,61.23,0.25995,59.682,5.8803,73.068,20.204,88.195,-5.3835,77.319,-1.0804,42.67,32.322,44.818,3.0657,46.443
-11.787,61.23,0.25995,59.682,5.8803,73.068,20.204,88.195,-5.3835,77.319,-1.0804,42.67,32.322,44.818,3.0657,46.443
-11.92,61.626,0.15582,60.143,5.4745,73.832,19.782,89.012,-5.5495,77.815,-1.6229,43.32,32.041,45.322,2.538,46.917
-11.92,61.626,0.15582,60.143,5.4745,73.832,19.782,89.012,-5.5495,77.815,-1.6229,43.32,32.041,45.322,2.538,46.917
-12.053,62.021,0.051952,60.6,5.0688,74.592,19.358,89.826,-5.7156,78.306,-2.1649,43.966,31.76,45.821,2.0105,47.387
-12.053,62.021,0.051952,60.6,5.0688,74.592,19.358,89.826,-5.7156,78.306,-2.1649,43.966,31.76,45.821,2.0105,47.387
-12.186,62.412,-0.051668,61.055,4.6632,75.348,18.935,90.635,-5.8816,78.792,-2.7065,44.61,31.481,46.315,1.4833,47.854
-12.186,62.412,-0.051668,61.055,4.6632,75.348,18.935,90.635,-5.8816,78.792,-2.7065,44.61,31.481,46.315,1.4833,47.854
-12.319,62.801,-0.15504,61.505,4.2579,76.1,18.511,91.44,-6.0476,79.274,-3.2478,45.25,31.202,46.803,0.95652,48.317
-12.451,63.187,-0.25815,61.953,3.8527,76.849,18.086,92.241,-6.2136,79.752,-3.7885,45.888,30.925,47.287,0.43004,48.777
-12.451,63.187,-0.25815,61.953,3.8527,76.849,18.086,92.241,-6.2136,79.752,-3.7885,45.888,30.925,47.287,0.43004,48.777
-12.584,63.57,-0.36101,62.397,3.4478,77.593,17.661,93.039,-6.3795,80.225,-4.3289,46.523,30.648,47.765,-0.096068,49.233
-12.584,63.57,-0.36101,62.397,3.4478,77.593,17.661,93.039,-6.3795,80.225,-4.3289,46.523,30.648,47.765,-0.096068,49.233
-12.584,63.57,-0.36101,62.397,3.4478,77.593,17.661,93.039,-6.3795,80.225,-4.3289,46.523,30.648,47.765,-0.096068,49.233
-12.717,63.951,-0.46362,62.838,3.0431,78.333,17.236,93.832,-6.5454,80.693,-4.8687,47.155,30.372,48.237,-0.62178,49.685
-12.717,63.951,-0.46362,62.838,3.0431,78.333,17.236,93.832,-6.5454,80.693,-4.8687,47.155,30.372,48.237,-0.62178,49.685
-12.849,64.329,-0.56597,63.276,2.6387,79.07,16.81,94.621,-6.7112,81.157,-5.4081,47.784,30.098,48.704,-1.1471,50.134
-12.982,64.704,-0.66806,63.71,2.2345,79.802,16.384,95.406,-6.8769,81.617,-5.9469,48.41,29.824,49.166,-1.672,50.579
-12.982,64.704,-0.66806,63.71,2.2345,79.802,16.384,95.406,-6.8769,81.617,-5.9469,48.41,29.824,49.166,-1.672,50.579
-13.114,65.076,-0.7699,64.141,1.8307,80.53,15.958,96.186,-7.0425,82.071,-6.4851,49.033,29.551,49.623,-2.1964,51.02
-13.114,65.076,-0.7699,64.141,1.8307,80.53,15.958,96.186,-7.0425,82.071,-6.4851,49.033,29.551,49.623,-2.1964,51.02
-13.114,65.076,-0.7699,64.141,1.8307,80.53,15.958,96.186,-7.0425,82.071,-6.4851,49.033,29.551,49.623,-2.1964,51.02
-13.246,65.445,-0.87148,64.568,1.4271,81.255,15.531,96.963,-7.208,82.521,-7.0229,49.653,29.279,50.074,-2.7203,51.457
-13.246,65.445,-0.87148,64.568,1.4271,81.255,15.531,96.963,-7.208,82.521,-7.0229,49.653,29.279,50.074,-2.7203,51.457
-13.378,65.812,-0.9728,64.992,1.0238,81.975,15.104,97.735,-7.3735,82.967,-7.56,50.27,29.008,50.52,-3.2437,51.89
-13.51,66.176,-1.0739,65.412,0.62087,82.691,14.676,98.504,-7.5388,83.408,-8.0965,50.884,28.738,50.96,-3.7666,52.32
-13.51,66.176,-1.0739,65.412,0.62087,82.691,14.676,98.504,-7.5388,83.408,-8.0965,50.884,28.738,50.96,-3.7666,52.32
-13.642,66.537,-1.1747,65.83,0.21828,83.402,14.249,99.268,-7.7039,83.844,-8.6324,51.494,28.469,51.395,-4.289,52.745
-13.642,66.537,-1.1747,65.83,0.21828,83.402,14.249,99.268,-7.7039,83.844,-8.6324,51.494,28.469,51.395,-4.289,52.745
-13.642,66.537,-1.1747,65.83,0.21828,83.402,14.249,99.268,-7.7039,83.844,-8.6324,51.494,28.469,51.395,-4.289,52.745
-13.774,66.895,-1.2752,66.243,-0.18396,84.11,13.821,100.03,-7.8689,84.275,-9.1676,52.102,28.201,51.824,-4.8108,53.167
-13.774,66.895,-1.2752,66.243,-0.18396,84.11,13.821,100.03,-7.8689,84.275,-9.1676,52.102,28.201,51.824,-4.8108,53.167
-13.774,66.895,-1.2752,66.243,-0.18396,84.11,13.821,100.03,-7.8689,84.275,-9.1676,52.102,28.201,51.824,-4.8108,53.167
-13.905,67.25,-1.3755,66.653,-0.58582,84.813,13.392,100.78,-8.0338,84.702,-9.7022,52.706,27.934,52.248,-5.332,53.585
-13.905,67.25,-1.3755,66.653,-0.58582,84.813,13.392,100.78,-8.0338,84.702,-9.7022,52.706,27.934,52.248,-5.332,53.585
-14.037,67.602,-1.4755,67.06,-0.98729,85.513,12.964,101.53,-8.1985,85.124,-10.236,53.307,27.668,52.666,-5.8526,53.999
-14.168,67.952,-1.5752,67.463,-1.3884,86.207,12.535,102.28,-8.3631,85.541,-10.769,53.905,27.403,53.079,-6.3725,54.409
-14.168,67.952,-1.5752,67.463,-1.3884,86.207,12.535,102.28,-8.3631,85.541,-10.769,53.905,27.403,53.079,-6.3725,54.409
-14.299,68.298,-1.6747,67.863,-1.789,86.898,12.106,103.02,-8.5274,85.953,-11.302,54.499,27.139,53.486,-6.8918,54.815
-14.299,68.298,-1.6747,67.863,-1.789,86.898,12.106,103.02,-8.5274,85.953,-11.302,54.499,27.139,53.486,-6.8918,54.815
-14.43,68.642,-1.7739,68.26,-2.1892,87.584,11.676,103.76,-8.6916,86.361,-11.833,55.09,26.876,53.888,-7.4104,55.216
-14.43,68.642,-1.7739,68.26,-2.1892,87.584,11.676,103.76,-8.6916,86.361,-11.833,55.09,26.876,53.888,-7.4104,55.216
-14.561,68.983,-1.8729,68.653,-2.589,88.266,11.247,104.49,-8.8555,86.764,-12.364,55.678,26.614,54.284,-7.9284,55.614
-14.561,68.983,-1.8729,68.653,-2.589,88.266,11.247,104.49,-8.8555,86.764,-12.364,55.678,26.614,54.284,-7.9284,55.614
-14.691,69.321,-1.9716,69.042,-2.9883,88.944,10.817,105.22,-9.0192,87.162,-12.895,56.263,26.353,54.675,-8.4456,56.008
-14.691,69.321,-1.9716,69.042,-2.9883,88.944,10.817,105.22,-9.0192,87.162,-12.895,56.263,26.353,54.675,-8.4456,56.008
-14.822,69.656,-2.07,69.428,-3.3871,89.617,10.387,105.95,-9.1827,87.555,-13.424,56.844,26.093,55.06,-8.962,56.398
-14.822,69.656,-2.07,69.428,-3.3871,89.617,10.387,105.95,-9.1827,87.555,-13.424,56.844,26.093,55.06,-8.962,56.398
-14.952,69.988,-2.1681,69.81,-3.7854,90.286,9.957,106.67,-9.346,87.943,-13.952,57.422,25.834,55.439,-9.4777,56.783
-14.952,69.988,-2.1681,69.81,-3.7854,90.286,9.957,106.67,-9.346,87.943,-13.952,57.422,25.834,55.439,-9.4777,56.783
-15.082,70.317,-2.266,70.189,-4.1833,90.95,9.5267,107.38,-9.509,88.327,-14.48,57.996,25.576,55.813,-9.9926,57.165
-15.082,70.317,-2.266,70.189,-4.1833,90.95,9.5267,107.38,-9.509,88.327,-14.48,57.996,25.576,55.813,-9.9926,57.165
-15.212,70.643,-2.3636,70.565,-4.5806,91.61,9.0963,108.1,-9.6717,88.705,-15.007,58.567,25.319,56.182,-10.507,57.542
-15.212,70.643,-2.3636,70.565,-4.5806,91.61,9.0963,108.1,-9.6717,88.705,-15.007,58.567,25.319,56.182,-10.507,57.542
-15.341,70.966,-2.4609,70.937,-4.9773,92.265,8.6658,108.8,-9.8341,89.079,-15.533,59.134,25.063,56.544,-11.02,57.915
-15.341,70.966,-2.4609,70.937,-4.9773,92.265,8.6658,108.8,-9.8341,89.079,-15.533,59.134,25.063,56.544,-11.02,57.915
-15.341,70.966,-2.4609,70.937,-4.9773,92.265,8.6658,108.8,-9.8341,89.079,-15.533,59.134,25.063,56.544,-11.02,57.915
-15.471,71.286,-2.558,71.305,-5.3735,92.916,8.2352,109.51,-9.9963,89.448,-16.058,59.698,24.809,56.901,-11.532,58.284
-15.471,71.286,-2.558,71.305,-5.3735,92.916,8.2352,109.51,-9.9963,89.448,-16.058,59.698,24.809,56.901,-11.532,58.284
-15.729,71.917,-2.7513,72.032,-6.1642,94.205,7.3737,110.9,-10.32,90.17,-17.105,60.816,24.302,57.598,-12.555,59.009
-15.729,71.917,-2.7513,72.032,-6.1642,94.205,7.3737,110.9,-10.32,90.17,-17.105,60.816,24.302,57.598,-12.555,59.009
-15.729,71.917,-2.7513,72.032,-6.1642,94.205,7.3737,110.9,-10.32,90.17,-17.105,60.816,24.302,57.598,-12.555,59.009
-15.857,72.229,-2.8475,72.39,-6.5587,94.842,6.9428,111.58,-10.481,90.524,-17.627,61.369,24.05,57.939,-13.064,59.366
-15.857,72.229,-2.8475,72.39,-6.5587,94.842,6.9428,111.58,-10.481,90.524,-17.627,61.369,24.05,57.939,-13.064,59.366
-15.857,72.229,-2.8475,72.39,-6.5587,94.842,6.9428,111.58,-10.481,90.524,-17.627,61.369,24.05,57.939,-13.064,59.366
-15.986,72.537,-2.9435,72.744,-6.9526,95.475,6.5119,112.27,-10.642,90.873,-18.148,61.919,23.799,58.273,-13.573,59.718
-16.114,72.842,-3.0391,73.095,-7.3458,96.103,6.081,112.95,-10.802,91.217,-18.668,62.465,23.549,58.602,-14.081,60.065
-16.242,73.144,-3.1345,73.442,-7.7384,96.727,5.65,113.62,-10.963,91.556,-19.187,63.008,23.3,58.925,-14.588,60.409
-16.242,73.144,-3.1345,73.442,-7.7384,96.727,5.65,113.62,-10.963,91.556,-19.187,63.008,23.3,58.925,-14.588,60.409
-16.369,73.443,-3.2296,73.786,-8.1304,97.346,5.219,114.29,-11.123,91.89,-19.705,63.547,23.053,59.242,-15.094,60.748
-16.369,73.443,-3.2296,73.786,-8.1304,97.346,5.219,114.29,-11.123,91.89,-19.705,63.547,23.053,59.242,-15.094,60.748
-16.369,73.443,-3.2296,73.786,-8.1304,97.346,5.219,114.29,-11.123,91.89,-19.705,63.547,23.053,59.242,-15.094,60.748
-16.497,73.74,-3.3245,74.126,-8.5217,97.961,4.788,114.96,-11.282,92.22,-20.222,64.082,22.806,59.554,-15.599,61.082
-16.497,73.74,-3.3245,74.126,-8.5217,97.961,4.788,114.96,-11.282,92.22,-20.222,64.082,22.806,59.554,-15.599,61.082
-16.497,73.74,-3.3245,74.126,-8.5217,97.961,4.788,114.96,-11.282,92.22,-20.222,64.082,22.806,59.554,-15.599,61.082
-16.624,74.033,-3.419,74.463,-8.9123,98.571,4.357,115.62,-11.441,92.544,-20.738,64.614,22.56,59.86,-16.102,61.413
-16.75,74.323,-3.5133,74.796,-9.3022,99.176,3.9261,116.28,-11.6,92.863,-21.253,65.142,22.316,60.16,-16.605,61.739
-16.877,74.61,-3.6072,75.126,-9.6914,99.776,3.4952,116.93,-11.758,93.177,-21.766,65.666,22.072,60.455,-17.107,62.06
-16.877,74.61,-3.6072,75.126,-9.6914,99.776,3.4952,116.93,-11.758,93.177,-21.766,65.666,22.072,60.455,-17.107,62.06
-16.877,74.61,-3.6072,75.126,-9.6914,99.776,3.4952,116.93,-11.758,93.177,-21.766,65.666,22.072,60.455,-17.107,62.06
-17.003,74.894,-3.7009,75.452,-10.08,100.37,3.0644,117.57,-11.916,93.486,-22.279,66.187,21.829,60.744,-17.607,62.378
-17.003,74.894,-3.7009,75.452,-10.08,100.37,3.0644,117.57,-11.916,93.486,-22.279,66.187,21.829,60.744,-17.607,62.378
-17.003,74.894,-3.7009,75.452,-10.08,100.37,3.0644,117.57,-11.916,93.486,-22.279,66.187,21.829,60.744,-17.607,62.378
-17.129,75.175,-3.7943,75.775,-10.468,100.96,2.6336,118.22,-12.073,93.789,-22.79,66.704,21.588,61.027,-18.107,62.69
-17.255,75.452,-3.8875,76.094,-10.855,101.55,2.2029,118.85,-12.23,94.088,-23.3,67.217,21.347,61.305,-18.605,62.999
-17.255,75.452,-3.8875,76.094,-10.855,101.55,2.2029,118.85,-12.23,94.088,-23.3,67.217,21.347,61.305,-18.605,62.999
-17.38,75.727,-3.9803,76.409,-11.241,102.13,1.7724,119.49,-12.387,94.382,-23.809,67.726,21.108,61.576,-19.102,63.303
-17.38,75.727,-3.9803,76.409,-11.241,102.13,1.7724,119.49,-12.387,94.382,-23.809,67.726,21.108,61.576,-19.102,63.303
-17.505,75.999,-4.0728,76.721,-11.626,102.71,1.3419,120.11,-12.543,94.671,-24.317,68.231,20.87,61.843,-19.598,63.602
-17.505,75.999,-4.0728,76.721,-11.626,102.71,1.3419,120.11,-12.543,94.671,-24.317,68.231,20.87,61.843,-19.598,63.602
-17.63,76.267,-4.165,77.03,-12.011,103.28,0.91162,120.74,-12.698,94.955,-24.823,68.733,20.632,62.103,-20.092,63.897
-17.63,76.267,-4.165,77.03,-12.011,103.28,0.91162,120.74,-12.698,94.955,-24.823,68.733,20.632,62.103,-20.092,63.897
-17.754,76.533,-4.257,77.335,-12.395,103.85,0.48145,121.35,-12.853,95.233,-25.328,69.231,20.396,62.358,-20.586,64.187
-17.754,76.533,-4.257,77.335,-12.395,103.85,0.48145,121.35,-12.853,95.233,-25.328,69.231,20.396,62.358,-20.586,64.187
-17.878,76.795,-4.3486,77.636,-12.778,104.41,0.051432,121.97,-13.008,95.507,-25.832,69.725,20.161,62.607,-21.078,64.473
-17.878,76.795,-4.3486,77.636,-12.778,104.41,0.051432,121.97,-13.008,95.507,-25.832,69.725,20.161,62.607,-21.078,64.473
-17.878,76.795,-4.3486,77.636,-12.778,104.41,0.051432,121.97,-13.008,95.507,-25.832,69.725,20.161,62.607,-21.078,64.473
-18.001,77.055,-4.44,77.934,-13.16,104.97,-0.37841,122.58,-13.162,95.775,-26.334,70.215,19.926,62.85,-21.569,64.755
-18.001,77.055,-4.44,77.934,-13.16,104.97,-0.37841,122.58,-13.162,95.775,-26.334,70.215,19.926,62.85,-21.569,64.755
-18.001,77.055,-4.44,77.934,-13.16,104.97,-0.37841,122.58,-13.162,95.775,-26.334,70.215,19.926,62.85,-21.569,64.755
-18.248,77.564,-4.6218,78.519,-13.922,106.07,-1.2375,123.78,-13.468,96.297,-27.335,71.184,19.461,63.319,-22.547,65.304
-18.248,77.564,-4.6218,78.519,-13.922,106.07,-1.2375,123.78,-13.468,96.297,-27.335,71.184,19.461,63.319,-22.547,65.304
-18.37,77.814,-4.7123,78.806,-14.302,106.61,-1.6667,124.37,-13.621,96.55,-27.834,71.662,19.23,63.545,-23.034,65.571
-18.37,77.814,-4.7123,78.806,-14.302,106.61,-1.6667,124.37,-13.621,96.55,-27.834,71.662,19.23,63.545,-23.034,65.571
-18.492,78.061,-4.8024,79.09,-14.681,107.15,-2.0958,124.96,-13.772,96.798,-28.331,72.137,19,63.766,-23.519,65.834
-18.492,78.061,-4.8024,79.09,-14.681,107.15,-2.0958,124.96,-13.772,96.798,-28.331,72.137,19,63.766,-23.519,65.834
-18.492,78.061,-4.8024,79.09,-14.681,107.15,-2.0958,124.96,-13.772,96.798,-28.331,72.137,19,63.766,-23.519,65.834
-18.614,78.305,-4.8923,79.37,-15.059,107.69,-2.5245,125.55,-13.924,97.041,-28.827,72.608,18.771,63.981,-24.003,66.093
-18.614,78.305,-4.8923,79.37,-15.059,107.69,-2.5245,125.55,-13.924,97.041,-28.827,72.608,18.771,63.981,-24.003,66.093
-18.857,78.784,-5.0711,79.92,-15.812,108.74,-3.3813,126.7,-14.224,97.511,-29.814,73.537,18.316,64.393,-24.967,66.596
-18.857,78.784,-5.0711,79.92,-15.812,108.74,-3.3813,126.7,-14.224,97.511,-29.814,73.537,18.316,64.393,-24.967,66.596
-18.857,78.784,-5.0711,79.92,-15.812,108.74,-3.3813,126.7,-14.224,97.511,-29.814,73.537,18.316,64.393,-24.967,66.596
-18.977,79.018,-5.16,80.19,-16.187,109.26,-3.8092,127.27,-14.374,97.739,-30.305,73.996,18.09,64.59,-25.447,66.841
-18.977,79.018,-5.16,80.19,-16.187,109.26,-3.8092,127.27,-14.374,97.739,-30.305,73.996,18.09,64.59,-25.447,66.841
-18.977,79.018,-5.16,80.19,-16.187,109.26,-3.8092,127.27,-14.374,97.739,-30.305,73.996,18.09,64.59,-25.447,66.841
-19.097,79.25,-5.2487,80.456,-16.561,109.77,-4.2369,127.84,-14.523,97.961,-30.795,74.451,17.866,64.782,-25.926,67.081
-19.217,79.478,-5.337,80.718,-16.935,110.28,-4.6642,128.4,-14.671,98.178,-31.283,74.902,17.642,64.969,-26.403,67.316
-19.337,79.703,-5.425,80.977,-17.307,110.79,-5.0912,128.95,-14.819,98.391,-31.77,75.349,17.419,65.149,-26.878,67.547
-19.337,79.703,-5.425,80.977,-17.307,110.79,-5.0912,128.95,-14.819,98.391,-31.77,75.349,17.419,65.149,-26.878,67.547
-19.456,79.925,-5.5127,81.233,-17.678,111.29,-5.5179,129.5,-14.965,98.598,-32.256,75.791,17.198,65.324,-27.352,67.773
-19.456,79.925,-5.5127,81.233,-17.678,111.29,-5.5179,129.5,-14.965,98.598,-32.256,75.791,17.198,65.324,-27.352,67.773
-19.456,79.925,-5.5127,81.233,-17.678,111.29,-5.5179,129.5,-14.965,98.598,-32.256,75.791,17.198,65.324,-27.352,67.773
-19.574,80.144,-5.6001,81.485,-18.049,111.78,-5.9442,130.05,-15.112,98.8,-32.739,76.23,16.977,65.493,-27.825,67.995
-19.574,80.144,-5.6001,81.485,-18.049,111.78,-5.9442,130.05,-15.112,98.8,-32.739,76.23,16.977,65.493,-27.825,67.995
-19.692,80.36,-5.6872,81.734,-18.418,112.27,-6.3702,130.59,-15.257,98.997,-33.222,76.665,16.757,65.657,-28.295,68.211
-19.81,80.573,-5.7739,81.979,-18.786,112.75,-6.7957,131.12,-15.402,99.188,-33.702,77.096,16.539,65.815,-28.765,68.424
-19.81,80.573,-5.7739,81.979,-18.786,112.75,-6.7957,131.12,-15.402,99.188,-33.702,77.096,16.539,65.815,-28.765,68.424
-19.81,80.573,-5.7739,81.979,-18.786,112.75,-6.7957,131.12,-15.402,99.188,-33.702,77.096,16.539,65.815,-28.765,68.424
-19.927,80.782,-5.8604,82.221,-19.154,113.23,-7.2209,131.65,-15.546,99.375,-34.181,77.522,16.322,65.967,-29.232,68.631
-19.927,80.782,-5.8604,82.221,-19.154,113.23,-7.2209,131.65,-15.546,99.375,-34.181,77.522,16.322,65.967,-29.232,68.631
-20.044,80.989,-5.9465,82.459,-19.52,113.71,-7.6457,132.18,-15.69,99.556,-34.659,77.945,16.105,66.114,-29.698,68.834
-20.044,80.989,-5.9465,82.459,-19.52,113.71,-7.6457,132.18,-15.69,99.556,-34.659,77.945,16.105,66.114,-29.698,68.834
-20.044,80.989,-5.9465,82.459,-19.52,113.71,-7.6457,132.18,-15.69,99.556,-34.659,77.945,16.105,66.114,-29.698,68.834
-20.16,81.192,-6.0323,82.693,-19.885,114.18,-8.07,132.7,-15.832,99.733,-35.134,78.364,15.89,66.255,-30.163,69.031
-20.16,81.192,-6.0323,82.693,-19.885,114.18,-8.07,132.7,-15.832,99.733,-35.134,78.364,15.89,66.255,-30.163,69.031
-20.276,81.392,-6.1177,82.925,-20.249,114.65,-8.4939,133.22,-15.974,99.904,-35.608,78.778,15.675,66.39,-30.625,69.225
-20.392,81.59,-6.2029,83.152,-20.612,115.11,-8.9174,133.73,-16.116,100.07,-36.081,79.188,15.462,66.52,-31.086,69.413
-20.392,81.59,-6.2029,83.152,-20.612,115.11,-8.9174,133.73,-16.116,100.07,-36.081,79.188,15.462,66.52,-31.086,69.413
-20.506,81.784,-6.2877,83.377,-20.974,115.56,-9.3404,134.23,-16.256,100.23,-36.551,79.595,15.25,66.644,-31.546,69.597
-20.506,81.784,-6.2877,83.377,-20.974,115.56,-9.3404,134.23,-16.256,100.23,-36.551,79.595,15.25,66.644,-31.546,69.597
-20.621,81.974,-6.3722,83.598,-21.335,116.01,-9.7629,134.73,-16.396,100.39,-37.02,79.997,15.039,66.763,-32.003,69.776
-20.621,81.974,-6.3722,83.598,-21.335,116.01,-9.7629,134.73,-16.396,100.39,-37.02,79.997,15.039,66.763,-32.003,69.776
-20.735,82.162,-6.4564,83.815,-21.695,116.46,-10.185,135.23,-16.535,100.54,-37.488,80.395,14.829,66.876,-32.459,69.95
-20.735,82.162,-6.4564,83.815,-21.695,116.46,-10.185,135.23,-16.535,100.54,-37.488,80.395,14.829,66.876,-32.459,69.95
-20.848,82.347,-6.5402,84.029,-22.054,116.9,-10.606,135.72,-16.673,100.68,-37.953,80.789,14.619,66.984,-32.913,70.12
-20.848,82.347,-6.5402,84.029,-22.054,116.9,-10.606,135.72,-16.673,100.68,-37.953,80.789,14.619,66.984,-32.913,70.12
-20.961,82.528,-6.6237,84.24,-22.411,117.33,-11.027,136.21,-16.81,100.82,-38.417,81.179,14.411,67.086,-33.365,70.285
-20.961,82.528,-6.6237,84.24,-22.411,117.33,-11.027,136.21,-16.81,100.82,-38.417,81.179,14.411,67.086,-33.365,70.285
-21.074,82.707,-6.7069,84.447,-22.768,117.76,-11.448,136.69,-16.947,100.96,-38.879,81.565,14.204,67.182,-33.816,70.445
-21.074,82.707,-6.7069,84.447,-22.768,117.76,-11.448,136.69,-16.947,100.96,-38.879,81.565,14.204,67.182,-33.816,70.445
-21.186,82.882,-6.7898,84.651,-23.123,118.19,-11.868,137.17,-17.082,101.09,-39.339,81.946,13.998,67.273,-34.265,70.6
-21.186,82.882,-6.7898,84.651,-23.123,118.19,-11.868,137.17,-17.082,101.09,-39.339,81.946,13.998,67.273,-34.265,70.6
-21.297,83.054,-6.8723,84.851,-23.477,118.61,-12.287,137.64,-17.217,101.22,-39.797,82.324,13.793,67.358,-34.712,70.75
-21.297,83.054,-6.8723,84.851,-23.477,118.61,-12.287,137.64,-17.217,101.22,-39.797,82.324,13.793,67.358,-34.712,70.75
-21.408,83.223,-6.9544,85.048,-23.83,119.02,-12.706,138.1,-17.351,101.34,-40.254,82.697,13.589,67.438,-35.157,70.896
-21.408,83.223,-6.9544,85.048,-23.83,119.02,-12.706,138.1,-17.351,101.34,-40.254,82.697,13.589,67.438,-35.157,70.896
-21.519,83.389,-7.0363,85.242,-24.181,119.43,-13.124,138.56,-17.484,101.45,-40.708,83.066,13.386,67.513,-35.6,71.037
-21.519,83.389,-7.0363,85.242,-24.181,119.43,-13.124,138.56,-17.484,101.45,-40.708,83.066,13.386,67.513,-35.6,71.037
-21.519,83.389,-7.0363,85.242,-24.181,119.43,-13.124,138.56,-17.484,101.45,-40.708,83.066,13.386,67.513,-35.6,71.037
-21.628,83.552,-7.1178,85.432,-24.532,119.84,-13.542,139.02,-17.616,101.56,-41.161,83.431,13.185,67.582,-36.041,71.173
-21.628,83.552,-7.1178,85.432,-24.532,119.84,-13.542,139.02,-17.616,101.56,-41.161,83.431,13.185,67.582,-36.041,71.173
-21.628,83.552,-7.1178,85.432,-24.532,119.84,-13.542,139.02,-17.616,101.56,-41.161,83.431,13.185,67.582,-36.041,71.173
-21.847,83.869,-7.2797,85.802,-25.229,120.64,-14.376,139.92,-17.878,101.77,-42.061,84.149,12.784,67.703,-36.918,71.431
-21.847,83.869,-7.2797,85.802,-25.229,120.64,-14.376,139.92,-17.878,101.77,-42.061,84.149,12.784,67.703,-36.918,71.431
-21.955,84.022,-7.3602,85.982,-25.576,121.03,-14.791,140.36,-18.008,101.86,-42.508,84.501,12.585,67.756,-37.353,71.553
-22.063,84.173,-7.4403,86.159,-25.922,121.41,-15.206,140.8,-18.136,101.95,-42.953,84.849,12.387,67.803,-37.787,71.67
-22.063,84.173,-7.4403,86.159,-25.922,121.41,-15.206,140.8,-18.136,101.95,-42.953,84.849,12.387,67.803,-37.787,71.67
-22.063,84.173,-7.4403,86.159,-25.922,121.41,-15.206,140.8,-18.136,101.95,-42.953,84.849,12.387,67.803,-37.787,71.67
-22.17,84.32,-7.52,86.333,-26.266,121.79,-15.621,141.23,-18.264,102.04,-43.397,85.194,12.19,67.845,-38.218,71.782
-22.17,84.32,-7.52,86.333,-26.266,121.79,-15.621,141.23,-18.264,102.04,-43.397,85.194,12.19,67.845,-38.218,71.782
-22.276,84.464,-7.5994,86.503,-26.609,122.17,-16.035,141.66,-18.391,102.12,-43.838,85.534,11.995,67.881,-38.648,71.89
-22.276,84.464,-7.5994,86.503,-26.609,122.17,-16.035,141.66,-18.391,102.12,-43.838,85.534,11.995,67.881,-38.648,71.89
-22.382,84.605,-7.6785,86.67,-26.951,122.54,-16.448,142.08,-18.517,102.19,-44.277,85.869,11.8,67.913,-39.075,71.993
-22.382,84.605,-7.6785,86.67,-26.951,122.54,-16.448,142.08,-18.517,102.19,-44.277,85.869,11.8,67.913,-39.075,71.993
-22.382,84.605,-7.6785,86.67,-26.951,122.54,-16.448,142.08,-18.517,102.19,-44.277,85.869,11.8,67.913,-39.075,71.993
-22.488,84.744,-7.7572,86.833,-27.291,122.91,-16.86,142.5,-18.641,102.26,-44.714,86.201,11.606,67.938,-39.501,72.091
-22.488,84.744,-7.7572,86.833,-27.291,122.91,-16.86,142.5,-18.641,102.26,-44.714,86.201,11.606,67.938,-39.501,72.091
-22.593,84.879,-7.8356,86.994,-27.631,123.27,-17.272,142.91,-18.765,102.33,-45.15,86.529,11.413,67.959,-39.924,72.184
-22.697,85.011,-7.9136,87.151,-27.968,123.62,-17.683,143.32,-18.888,102.39,-45.583,86.852,11.222,67.974,-40.346,72.272
-22.697,85.011,-7.9136,87.151,-27.968,123.62,-17.683,143.32,-18.888,102.39,-45.583,86.852,11.222,67.974,-40.346,72.272
-22.801,85.14,-7.9912,87.304,-28.305,123.97,-18.094,143.72,-19.01,102.44,-46.014,87.171,11.031,67.984,-40.765,72.356
-22.801,85.14,-7.9912,87.304,-28.305,123.97,-18.094,143.72,-19.01,102.44,-46.014,87.171,11.031,67.984,-40.765,72.356
-22.904,85.266,-8.0685,87.455,-28.64,124.32,-18.503,144.12,-19.131,102.49,-46.443,87.486,10.841,67.988,-41.182,72.434
-22.904,85.266,-8.0685,87.455,-28.64,124.32,-18.503,144.12,-19.131,102.49,-46.443,87.486,10.841,67.988,-41.182,72.434
-23.006,85.388,-8.1454,87.602,-28.974,124.66,-18.912,144.51,-19.251,102.54,-46.87,87.797,10.652,67.988,-41.597,72.508
-23.006,85.388,-8.1454,87.602,-28.974,124.66,-18.912,144.51,-19.251,102.54,-46.87,87.797,10.652,67.988,-41.597,72.508
-23.108,85.508,-8.2219,87.746,-29.307,125,-19.32,144.9,-19.37,102.58,-47.295,88.103,10.464,67.982,-42.01,72.578
-23.209,85.625,-8.2981,87.887,-29.638,125.33,-19.727,145.28,-19.487,102.62,-47.718,88.405,10.278,67.971,-42.421,72.642
-23.209,85.625,-8.2981,87.887,-29.638,125.33,-19.727,145.28,-19.487,102.62,-47.718,88.405,10.278,67.971,-42.421,72.642
-23.209,85.625,-8.2981,87.887,-29.638,125.33,-19.727,145.28,-19.487,102.62,-47.718,88.405,10.278,67.971,-42.421,72.642
-23.31,85.739,-8.3739,88.025,-29.968,125.66,-20.134,145.66,-19.604,102.65,-48.139,88.704,10.092,67.955,-42.829,72.702
-23.31,85.739,-8.3739,88.025,-29.968,125.66,-20.134,145.66,-19.604,102.65,-48.139,88.704,10.092,67.955,-42.829,72.702
-23.41,85.849,-8.4494,88.159,-30.296,125.98,-20.539,146.03,-19.72,102.67,-48.557,88.998,9.9071,67.933,-43.236,72.756
-23.41,85.849,-8.4494,88.159,-30.296,125.98,-20.539,146.03,-19.72,102.67,-48.557,88.998,9.9071,67.933,-43.236,72.756
-23.41,85.849,-8.4494,88.159,-30.296,125.98,-20.539,146.03,-19.72,102.67,-48.557,88.998,9.9071,67.933,-43.236,72.756
-23.51,85.957,-8.5245,88.29,-30.624,126.29,-20.944,146.4,-19.834,102.69,-48.974,89.288,9.7232,67.907,-43.64,72.807
-23.609,86.062,-8.5992,88.418,-30.949,126.61,-21.348,146.76,-19.948,102.71,-49.388,89.573,9.5404,67.875,-44.042,72.852
-23.707,86.163,-8.6735,88.543,-31.274,126.91,-21.752,147.12,-20.06,102.72,-49.8,89.855,9.3585,67.838,-44.442,72.892
-23.707,86.163,-8.6735,88.543,-31.274,126.91,-21.752,147.12,-20.06,102.72,-49.8,89.855,9.3585,67.838,-44.442,72.892
-23.707,86.163,-8.6735,88.543,-31.274,126.91,-21.752,147.12,-20.06,102.72,-49.8,89.855,9.3585,67.838,-44.442,72.892
-23.804,86.262,-8.7475,88.665,-31.597,127.21,-22.154,147.48,-20.172,102.73,-50.21,90.132,9.1776,67.796,-44.839,72.928
-23.804,86.262,-8.7475,88.665,-31.597,127.21,-22.154,147.48,-20.172,102.73,-50.21,90.132,9.1776,67.796,-44.839,72.928
-23.901,86.358,-8.8211,88.784,-31.918,127.51,-22.555,147.83,-20.282,102.73,-50.618,90.405,8.9977,67.75,-45.234,72.959
-23.901,86.358,-8.8211,88.784,-31.918,127.51,-22.555,147.83,-20.282,102.73,-50.618,90.405,8.9977,67.75,-45.234,72.959
-23.901,86.358,-8.8211,88.784,-31.918,127.51,-22.555,147.83,-20.282,102.73,-50.618,90.405,8.9977,67.75,-45.234,72.959
-23.998,86.45,-8.8943,88.899,-32.238,127.8,-22.956,148.17,-20.391,102.73,-51.023,90.674,8.8187,67.698,-45.627,72.986
-23.998,86.45,-8.8943,88.899,-32.238,127.8,-22.956,148.17,-20.391,102.73,-51.023,90.674,8.8187,67.698,-45.627,72.986
-23.998,86.45,-8.8943,88.899,-32.238,127.8,-22.956,148.17,-20.391,102.73,-51.023,90.674,8.8187,67.698,-45.627,72.986
-24.188,86.627,-9.0396,89.121,-32.874,128.37,-23.755,148.84,-20.606,102.71,-51.828,91.2,8.4636,67.579,-46.406,73.024
-24.188,86.627,-9.0396,89.121,-32.874,128.37,-23.755,148.84,-20.606,102.71,-51.828,91.2,8.4636,67.579,-46.406,73.024
-24.188,86.627,-9.0396,89.121,-32.874,128.37,-23.755,148.84,-20.606,102.71,-51.828,91.2,8.4636,67.579,-46.406,73.024
-24.283,86.71,-9.1116,89.227,-33.19,128.65,-24.153,149.17,-20.712,102.69,-52.226,91.456,8.2875,67.512,-46.792,73.036
-24.283,86.71,-9.1116,89.227,-33.19,128.65,-24.153,149.17,-20.712,102.69,-52.226,91.456,8.2875,67.512,-46.792,73.036
-24.376,86.791,-9.1833,89.33,-33.504,128.92,-24.55,149.5,-20.816,102.67,-52.623,91.709,8.1123,67.44,-47.176,73.043
-24.376,86.791,-9.1833,89.33,-33.504,128.92,-24.55,149.5,-20.816,102.67,-52.623,91.709,8.1123,67.44,-47.176,73.043
-24.469,86.869,-9.2546,89.43,-33.817,129.19,-24.946,149.82,-20.92,102.64,-53.017,91.957,7.9381,67.364,-47.557,73.046
-24.562,86.944,-9.3255,89.527,-34.128,129.46,-25.341,150.14,-21.022,102.61,-53.409,92.201,7.7649,67.282,-47.936,73.044
-24.653,87.016,-9.396,89.622,-34.438,129.71,-25.735,150.45,-21.123,102.57,-53.799,92.441,7.5925,67.196,-48.313,73.037
-24.653,87.016,-9.396,89.622,-34.438,129.71,-25.735,150.45,-21.123,102.57,-53.799,92.441,7.5925,67.196,-48.313,73.037
-24.744,87.085,-9.4662,89.713,-34.746,129.97,-26.129,150.75,-21.223,102.53,-54.186,92.677,7.4212,67.104,-48.687,73.025
-24.744,87.085,-9.4662,89.713,-34.746,129.97,-26.129,150.75,-21.223,102.53,-54.186,92.677,7.4212,67.104,-48.687,73.025
-24.744,87.085,-9.4662,89.713,-34.746,129.97,-26.129,150.75,-21.223,102.53,-54.186,92.677,7.4212,67.104,-48.687,73.025
-24.835,87.151,-9.5359,89.801,-35.053,130.22,-26.521,151.06,-21.321,102.49,-54.571,92.908,7.2507,67.008,-49.059,73.009
-24.835,87.151,-9.5359,89.801,-35.053,130.22,-26.521,151.06,-21.321,102.49,-54.571,92.908,7.2507,67.008,-49.059,73.009
-24.835,87.151,-9.5359,89.801,-35.053,130.22,-26.521,151.06,-21.321,102.49,-54.571,92.908,7.2507,67.008,-49.059,73.009
-24.924,87.214,-9.6052,89.886,-35.358,130.46,-26.912,151.35,-21.419,102.44,-54.953,93.136,7.0812,66.907,-49.428,72.988
-25.013,87.274,-9.6742,89.968,-35.662,130.7,-27.303,151.64,-21.515,102.38,-55.334,93.359,6.9126,66.802,-49.795,72.963
-25.101,87.331,-9.7427,90.047,-35.965,130.93,-27.692,151.93,-21.61,102.32,-55.711,93.579,6.7449,66.692,-50.159,72.932
-25.101,87.331,-9.7427,90.047,-35.965,130.93,-27.692,151.93,-21.61,102.32,-55.711,93.579,6.7449,66.692,-50.159,72.932
-25.189,87.386,-9.8109,90.124,-36.265,131.16,-28.08,152.21,-21.704,102.26,-56.087,93.794,6.5782,66.577,-50.521,72.898
-25.189,87.386,-9.8109,90.124,-36.265,131.16,-28.08,152.21,-21.704,102.26,-56.087,93.794,6.5782,66.577,-50.521,72.898
-25.189,87.386,-9.8109,90.124,-36.265,131.16,-28.08,152.21,-21.704,102.26,-56.087,93.794,6.5782,66.577,-50.521,72.898
-25.276,87.437,-9.8786,90.197,-36.564,131.39,-28.468,152.49,-21.796,102.19,-56.46,94.005,6.4123,66.457,-50.88,72.858
-25.276,87.437,-9.8786,90.197,-36.564,131.39,-28.468,152.49,-21.796,102.19,-56.46,94.005,6.4123,66.457,-50.88,72.858
-25.362,87.486,-9.946,90.268,-36.862,131.61,-28.854,152.77,-21.887,102.12,-56.831,94.212,6.2474,66.333,-51.237,72.814
-25.362,87.486,-9.946,90.268,-36.862,131.61,-28.854,152.77,-21.887,102.12,-56.831,94.212,6.2474,66.333,-51.237,72.814
-25.447,87.532,-10.013,90.335,-37.158,131.83,-29.239,153.04,-21.977,102.04,-57.199,94.415,6.0834,66.204,-51.592,72.765
-25.447,87.532,-10.013,90.335,-37.158,131.83,-29.239,153.04,-21.977,102.04,-57.199,94.415,6.0834,66.204,-51.592,72.765
-25.532,87.575,-10.079,90.4,-37.453,132.04,-29.624,153.3,-22.066,101.96,-57.565,94.614,5.9203,66.07,-51.944,72.711
-25.532,87.575,-10.079,90.4,-37.453,132.04,-29.624,153.3,-22.066,101.96,-57.565,94.614,5.9203,66.07,-51.944,72.711
-25.616,87.615,-10.146,90.462,-37.746,132.24,-30.007,153.56,-22.153,101.87,-57.928,94.809,5.7581,65.932,-52.293,72.653
-25.616,87.615,-10.146,90.462,-37.746,132.24,-30.007,153.56,-22.153,101.87,-57.928,94.809,5.7581,65.932,-52.293,72.653
-25.699,87.653,-10.211,90.521,-38.037,132.44,-30.389,153.82,-22.239,101.78,-58.289,95,5.5967,65.79,-52.64,72.591
-25.699,87.653,-10.211,90.521,-38.037,132.44,-30.389,153.82,-22.239,101.78,-58.289,95,5.5967,65.79,-52.64,72.591
-25.782,87.687,-10.277,90.577,-38.327,132.64,-30.77,154.07,-22.324,101.69,-58.648,95.187,5.4363,65.643,-52.984,72.523
-25.782,87.687,-10.277,90.577,-38.327,132.64,-30.77,154.07,-22.324,101.69,-58.648,95.187,5.4363,65.643,-52.984,72.523
-25.864,87.719,-10.342,90.631,-38.615,132.83,-31.15,154.31,-22.407,101.59,-59.004,95.37,5.2768,65.491,-53.326,72.451
-25.864,87.719,-10.342,90.631,-38.615,132.83,-31.15,154.31,-22.407,101.59,-59.004,95.37,5.2768,65.491,-53.326,72.451
-25.945,87.748,-10.406,90.681,-38.901,133.02,-31.529,154.56,-22.49,101.48,-59.357,95.548,5.1181,65.335,-53.665,72.375
-25.945,87.748,-10.406,90.681,-38.901,133.02,-31.529,154.56,-22.49,101.48,-59.357,95.548,5.1181,65.335,-53.665,72.375
-26.025,87.774,-10.47,90.729,-39.186,133.2,-31.907,154.79,-22.57,101.38,-59.708,95.723,4.9603,65.175,-54.001,72.294
-26.025,87.774,-10.47,90.729,-39.186,133.2,-31.907,154.79,-22.57,101.38,-59.708,95.723,4.9603,65.175,-54.001,72.294
-26.025,87.774,-10.47,90.729,-39.186,133.2,-31.907,154.79,-22.57,101.38,-59.708,95.723,4.9603,65.175,-54.001,72.294
-26.105,87.797,-10.534,90.775,-39.47,133.38,-32.284,155.03,-22.65,101.26,-60.056,95.894,4.8034,65.01,-54.335,72.208
-26.105,87.797,-10.534,90.775,-39.47,133.38,-32.284,155.03,-22.65,101.26,-60.056,95.894,4.8034,65.01,-54.335,72.208
-26.184,87.818,-10.597,90.817,-39.751,133.56,-32.659,155.25,-22.728,101.15,-60.402,96.061,4.6474,64.841,-54.666,72.118
-26.262,87.836,-10.66,90.857,-40.031,133.73,-33.034,155.48,-22.805,101.03,-60.746,96.223,4.4923,64.668,-54.995,72.024
-26.262,87.836,-10.66,90.857,-40.031,133.73,-33.034,155.48,-22.805,101.03,-60.746,96.223,4.4923,64.668,-54.995,72.024
-26.339,87.851,-10.722,90.894,-40.31,133.89,-33.407,155.7,-22.88,100.9,-61.087,96.382,4.338,64.49,-55.321,71.924
-26.416,87.863,-10.784,90.928,-40.587,134.05,-33.779,155.91,-22.954,100.77,-61.425,96.537,4.1845,64.308,-55.644,71.821
-26.416,87.863,-10.784,90.928,-40.587,134.05,-33.779,155.91,-22.954,100.77,-61.425,96.537,4.1845,64.308,-55.644,71.821
-26.416,87.863,-10.784,90.928,-40.587,134.05,-33.779,155.91,-22.954,100.77,-61.425,96.537,4.1845,64.308,-55.644,71.821
-26.492,87.873,-10.846,90.96,-40.862,134.21,-34.15,156.12,-23.027,100.64,-61.761,96.688,4.032,64.122,-55.964,71.713
-26.492,87.873,-10.846,90.96,-40.862,134.21,-34.15,156.12,-23.027,100.64,-61.761,96.688,4.032,64.122,-55.964,71.713
-26.492,87.873,-10.846,90.96,-40.862,134.21,-34.15,156.12,-23.027,100.64,-61.761,96.688,4.032,64.122,-55.964,71.713
-26.567,87.88,-10.907,90.989,-41.135,134.36,-34.52,156.33,-23.098,100.5,-62.094,96.835,3.8803,63.932,-56.282,71.6
-26.567,87.88,-10.907,90.989,-41.135,134.36,-34.52,156.33,-23.098,100.5,-62.094,96.835,3.8803,63.932,-56.282,71.6
-26.641,87.884,-10.968,91.016,-41.407,134.51,-34.889,156.53,-23.168,100.36,-62.425,96.978,3.7294,63.738,-56.597,71.483
-26.641,87.884,-10.968,91.016,-41.407,134.51,-34.889,156.53,-23.168,100.36,-62.425,96.978,3.7294,63.738,-56.597,71.483
-26.788,87.884,-11.088,91.061,-41.946,134.79,-35.623,156.92,-23.303,100.06,-63.078,97.252,3.4302,63.336,-57.22,71.235
-26.788,87.884,-11.088,91.061,-41.946,134.79,-35.623,156.92,-23.303,100.06,-63.078,97.252,3.4302,63.336,-57.22,71.235
-26.788,87.884,-11.088,91.061,-41.946,134.79,-35.623,156.92,-23.303,100.06,-63.078,97.252,3.4302,63.336,-57.22,71.235
-26.86,87.88,-11.147,91.079,-42.213,134.92,-35.988,157.11,-23.369,99.908,-63.401,97.383,3.2818,63.13,-57.527,71.105
-26.86,87.88,-11.147,91.079,-42.213,134.92,-35.988,157.11,-23.369,99.908,-63.401,97.383,3.2818,63.13,-57.527,71.105
-26.931,87.874,-11.206,91.096,-42.478,135.05,-36.352,157.3,-23.433,99.749,-63.722,97.511,3.1343,62.919,-57.831,70.97
-26.931,87.874,-11.206,91.096,-42.478,135.05,-36.352,157.3,-23.433,99.749,-63.722,97.511,3.1343,62.919,-57.831,70.97
-27.002,87.865,-11.265,91.109,-42.741,135.17,-36.715,157.48,-23.496,99.587,-64.039,97.634,2.9876,62.704,-58.132,70.831
-27.072,87.853,-11.323,91.12,-43.003,135.3,-37.076,157.65,-23.558,99.421,-64.354,97.754,2.8417,62.486,-58.431,70.687
-27.072,87.853,-11.323,91.12,-43.003,135.3,-37.076,157.65,-23.558,99.421,-64.354,97.754,2.8417,62.486,-58.431,70.687
-27.072,87.853,-11.323,91.12,-43.003,135.3,-37.076,157.65,-23.558,99.421,-64.354,97.754,2.8417,62.486,-58.431,70.687
-27.141,87.839,-11.381,91.129,-43.263,135.41,-37.437,157.83,-23.618,99.25,-64.667,97.87,2.6967,62.263,-58.727,70.539
-27.141,87.839,-11.381,91.129,-43.263,135.41,-37.437,157.83,-23.618,99.25,-64.667,97.87,2.6967,62.263,-58.727,70.539
-27.141,87.839,-11.381,91.129,-43.263,135.41,-37.437,157.83,-23.618,99.25,-64.667,97.87,2.6967,62.263,-58.727,70.539
-27.209,87.822,-11.438,91.135,-43.521,135.52,-37.796,157.99,-23.676,99.076,-64.976,97.982,2.5524,62.037,-59.02,70.387
-27.276,87.802,-11.495,91.139,-43.778,135.63,-38.154,158.16,-23.733,98.898,-65.283,98.09,2.409,61.806,-59.311,70.231
-27.276,87.802,-11.495,91.139,-43.778,135.63,-38.154,158.16,-23.733,98.898,-65.283,98.09,2.409,61.806,-59.311,70.231
-27.343,87.78,-11.551,91.14,-44.032,135.73,-38.51,158.32,-23.789,98.716,-65.588,98.195,2.2664,61.572,-59.598,70.07
-27.343,87.78,-11.551,91.14,-44.032,135.73,-38.51,158.32,-23.789,98.716,-65.588,98.195,2.2664,61.572,-59.598,70.07
-27.409,87.755,-11.607,91.139,-44.286,135.83,-38.866,158.47,-23.843,98.53,-65.89,98.295,2.1246,61.334,-59.883,69.905
-27.409,87.755,-11.607,91.139,-44.286,135.83,-38.866,158.47,-23.843,98.53,-65.89,98.295,2.1246,61.334,-59.883,69.905
-27.474,87.728,-11.663,91.135,-44.537,135.93,-39.22,158.62,-23.896,98.34,-66.189,98.392,1.9836,61.092,-60.165,69.735
-27.474,87.728,-11.663,91.135,-44.537,135.93,-39.22,158.62,-23.896,98.34,-66.189,98.392,1.9836,61.092,-60.165,69.735
-27.538,87.698,-11.718,91.13,-44.787,136.02,-39.573,158.77,-23.947,98.147,-66.485,98.485,1.8434,60.847,-60.444,69.561
-27.538,87.698,-11.718,91.13,-44.787,136.02,-39.573,158.77,-23.947,98.147,-66.485,98.485,1.8434,60.847,-60.444,69.561
-27.602,87.666,-11.773,91.121,-45.034,136.1,-39.924,158.91,-23.996,97.949,-66.779,98.575,1.7039,60.598,-60.72,69.383
-27.602,87.666,-11.773,91.121,-45.034,136.1,-39.924,158.91,-23.996,97.949,-66.779,98.575,1.7039,60.598,-60.72,69.383
-27.665,87.631,-11.827,91.111,-45.281,136.19,-40.275,159.05,-24.045,97.748,-67.07,98.66,1.5653,60.345,-60.994,69.201
-27.665,87.631,-11.827,91.111,-45.281,136.19,-40.275,159.05,-24.045,97.748,-67.07,98.66,1.5653,60.345,-60.994,69.201
-27.726,87.594,-11.881,91.098,-45.525,136.26,-40.624,159.19,-24.091,97.543,-67.358,98.742,1.4274,60.089,-61.264,69.015
-27.726,87.594,-11.881,91.098,-45.525,136.26,-40.624,159.19,-24.091,97.543,-67.358,98.742,1.4274,60.089,-61.264,69.015
-27.788,87.554,-11.934,91.082,-45.768,136.34,-40.972,159.32,-24.137,97.335,-67.644,98.821,1.2904,59.829,-61.532,68.824
-27.788,87.554,-11.934,91.082,-45.768,136.34,-40.972,159.32,-24.137,97.335,-67.644,98.821,1.2904,59.829,-61.532,68.824
-27.848,87.512,-11.987,91.065,-46.009,136.41,-41.318,159.45,-24.18,97.122,-67.927,98.895,1.1541,59.566,-61.797,68.629
-27.848,87.512,-11.987,91.065,-46.009,136.41,-41.318,159.45,-24.18,97.122,-67.927,98.895,1.1541,59.566,-61.797,68.629
-27.907,87.467,-12.039,91.045,-46.248,136.47,-41.663,159.57,-24.222,96.907,-68.207,98.966,1.0185,59.299,-62.059,68.43
-27.907,87.467,-12.039,91.045,-46.248,136.47,-41.663,159.57,-24.222,96.907,-68.207,98.966,1.0185,59.299,-62.059,68.43
-27.966,87.42,-12.091,91.023,-46.485,136.54,-42.007,159.69,-24.263,96.687,-68.484,99.033,0.88377,59.028,-62.318,68.227
-28.024,87.371,-12.143,90.999,-46.721,136.59,-42.35,159.8,-24.302,96.464,-68.759,99.097,0.74976,58.754,-62.574,68.02
-28.024,87.371,-12.143,90.999,-46.721,136.59,-42.35,159.8,-24.302,96.464,-68.759,99.097,0.74976,58.754,-62.574,68.02
-28.024,87.371,-12.143,90.999,-46.721,136.59,-42.35,159.8,-24.302,96.464,-68.759,99.097,0.74976,58.754,-62.574,68.02
-28.081,87.318,-12.194,90.972,-46.954,136.65,-42.691,159.91,-24.34,96.238,-69.031,99.157,0.61652,58.477,-62.827,67.809
-28.081,87.318,-12.194,90.972,-46.954,136.65,-42.691,159.91,-24.34,96.238,-69.031,99.157,0.61652,58.477,-62.827,67.809
-28.137,87.264,-12.244,90.944,-47.186,136.7,-43.031,160.02,-24.376,96.007,-69.3,99.214,0.48403,58.197,-63.077,67.593
-28.137,87.264,-12.244,90.944,-47.186,136.7,-43.031,160.02,-24.376,96.007,-69.3,99.214,0.48403,58.197,-63.077,67.593
-28.137,87.264,-12.244,90.944,-47.186,136.7,-43.031,160.02,-24.376,96.007,-69.3,99.214,0.48403,58.197,-63.077,67.593
-28.193,87.207,-12.295,90.913,-47.417,136.74,-43.37,160.13,-24.411,95.774,-69.566,99.266,0.35229,57.913,-63.325,67.374
-28.193,87.207,-12.295,90.913,-47.417,136.74,-43.37,160.13,-24.411,95.774,-69.566,99.266,0.35229,57.913,-63.325,67.374
-28.301,87.087,-12.394,90.845,-47.872,136.82,-44.043,160.32,-24.475,95.296,-70.091,99.362,0.091052,57.335,-63.811,66.923
-28.301,87.087,-12.394,90.845,-47.872,136.82,-44.043,160.32,-24.475,95.296,-70.091,99.362,0.091052,57.335,-63.811,66.923
-28.354,87.023,-12.442,90.808,-48.096,136.85,-44.378,160.41,-24.505,95.052,-70.349,99.404,-0.038459,57.041,-64.049,66.692
-28.354,87.023,-12.442,90.808,-48.096,136.85,-44.378,160.41,-24.505,95.052,-70.349,99.404,-0.038459,57.041,-64.049,66.692
-28.354,87.023,-12.442,90.808,-48.096,136.85,-44.378,160.41,-24.505,95.052,-70.349,99.404,-0.038459,57.041,-64.049,66.692
-28.406,86.956,-12.491,90.768,-48.319,136.88,-44.711,160.5,-24.533,94.805,-70.605,99.443,-0.16723,56.745,-64.285,66.456
-28.406,86.956,-12.491,90.768,-48.319,136.88,-44.711,160.5,-24.533,94.805,-70.605,99.443,-0.16723,56.745,-64.285,66.456
-28.406,86.956,-12.491,90.768,-48.319,136.88,-44.711,160.5,-24.533,94.805,-70.605,99.443,-0.16723,56.745,-64.285,66.456
-28.458,86.888,-12.539,90.727,-48.541,136.91,-45.043,160.59,-24.56,94.554,-70.857,99.478,-0.29528,56.445,-64.518,66.217
-28.458,86.888,-12.539,90.727,-48.541,136.91,-45.043,160.59,-24.56,94.554,-70.857,99.478,-0.29528,56.445,-64.518,66.217
-28.508,86.817,-12.586,90.684,-48.76,136.93,-45.373,160.67,-24.585,94.3,-71.107,99.51,-0.4226,56.142,-64.747,65.973
-28.508,86.817,-12.586,90.684,-48.76,136.93,-45.373,160.67,-24.585,94.3,-71.107,99.51,-0.4226,56.142,-64.747,65.973
-28.558,86.744,-12.633,90.638,-48.978,136.95,-45.703,160.75,-24.609,94.043,-71.354,99.538,-0.5492,55.835,-64.974,65.726
-28.558,86.744,-12.633,90.638,-48.978,136.95,-45.703,160.75,-24.609,94.043,-71.354,99.538,-0.5492,55.835,-64.974,65.726
-28.607,86.669,-12.68,90.591,-49.193,136.96,-46.031,160.82,-24.631,93.783,-71.599,99.563,-0.67508,55.526,-65.198,65.475
-28.607,86.669,-12.68,90.591,-49.193,136.96,-46.031,160.82,-24.631,93.783,-71.599,99.563,-0.67508,55.526,-65.198,65.475
-28.607,86.669,-12.68,90.591,-49.193,136.96,-46.031,160.82,-24.631,93.783,-71.599,99.563,-0.67508,55.526,-65.198,65.475
-28.702,86.511,-12.771,90.49,-49.619,136.98,-46.682,160.96,-24.671,93.252,-72.079,99.602,-0.92469,54.899,-65.636,64.961
-28.702,86.511,-12.771,90.49,-49.619,136.98,-46.682,160.96,-24.671,93.252,-72.079,99.602,-0.92469,54.899,-65.636,64.961
-28.748,86.429,-12.816,90.437,-49.83,136.98,-47.006,161.02,-24.688,92.982,-72.315,99.617,-1.0484,54.581,-65.851,64.698
-28.748,86.429,-12.816,90.437,-49.83,136.98,-47.006,161.02,-24.688,92.982,-72.315,99.617,-1.0484,54.581,-65.851,64.698
-28.748,86.429,-12.816,90.437,-49.83,136.98,-47.006,161.02,-24.688,92.982,-72.315,99.617,-1.0484,54.581,-65.851,64.698
-28.794,86.344,-12.861,90.382,-50.038,136.98,-47.328,161.08,-24.704,92.709,-72.548,99.628,-1.1715,54.26,-66.063,64.432
-28.794,86.344,-12.861,90.382,-50.038,136.98,-47.328,161.08,-24.704,92.709,-72.548,99.628,-1.1715,54.26,-66.063,64.432
-28.794,86.344,-12.861,90.382,-50.038,136.98,-47.328,161.08,-24.704,92.709,-72.548,99.628,-1.1715,54.26,-66.063,64.432
-28.883,86.169,-12.949,90.265,-50.449,136.97,-47.969,161.19,-24.731,92.154,-73.006,99.641,-1.4155,53.61,-66.477,63.887
-28.883,86.169,-12.949,90.265,-50.449,136.97,-47.969,161.19,-24.731,92.154,-73.006,99.641,-1.4155,53.61,-66.477,63.887
-28.926,86.078,-12.993,90.205,-50.652,136.96,-48.287,161.24,-24.742,91.871,-73.23,99.642,-1.5364,53.281,-66.68,63.61
-28.926,86.078,-12.993,90.205,-50.652,136.96,-48.287,161.24,-24.742,91.871,-73.23,99.642,-1.5364,53.281,-66.68,63.61
-28.968,85.985,-13.035,90.142,-50.853,136.94,-48.604,161.28,-24.751,91.586,-73.452,99.641,-1.6567,52.948,-66.88,63.328
-29.009,85.89,-13.078,90.077,-51.052,136.92,-48.92,161.33,-24.759,91.298,-73.671,99.635,-1.7763,52.614,-67.076,63.043
-29.009,85.89,-13.078,90.077,-51.052,136.92,-48.92,161.33,-24.759,91.298,-73.671,99.635,-1.7763,52.614,-67.076,63.043
-29.009,85.89,-13.078,90.077,-51.052,136.92,-48.92,161.33,-24.759,91.298,-73.671,99.635,-1.7763,52.614,-67.076,63.043
-29.05,85.793,-13.12,90.011,-51.25,136.9,-49.234,161.36,-24.765,91.006,-73.887,99.627,-1.8952,52.276,-67.27,62.754
-29.05,85.793,-13.12,90.011,-51.25,136.9,-49.234,161.36,-24.765,91.006,-73.887,99.627,-1.8952,52.276,-67.27,62.754
-29.09,85.693,-13.161,89.943,-51.445,136.87,-49.546,161.4,-24.77,90.712,-74.101,99.615,-2.0135,51.936,-67.46,62.461
-29.09,85.693,-13.161,89.943,-51.445,136.87,-49.546,161.4,-24.77,90.712,-74.101,99.615,-2.0135,51.936,-67.46,62.461
-29.128,85.592,-13.202,89.873,-51.639,136.84,-49.857,161.43,-24.773,90.415,-74.311,99.6,-2.131,51.594,-67.648,62.165
-29.128,85.592,-13.202,89.873,-51.639,136.84,-49.857,161.43,-24.773,90.415,-74.311,99.6,-2.131,51.594,-67.648,62.165
-29.166,85.488,-13.243,89.801,-51.831,136.81,-50.167,161.46,-24.774,90.115,-74.519,99.582,-2.2479,51.249,-67.833,61.865
-29.166,85.488,-13.243,89.801,-51.831,136.81,-50.167,161.46,-24.774,90.115,-74.519,99.582,-2.2479,51.249,-67.833,61.865
-29.204,85.382,-13.283,89.728,-52.021,136.78,-50.476,161.49,-24.774,89.813,-74.724,99.561,-2.3641,50.901,-68.014,61.562
-29.204,85.382,-13.283,89.728,-52.021,136.78,-50.476,161.49,-24.774,89.813,-74.724,99.561,-2.3641,50.901,-68.014,61.562
-29.24,85.275,-13.322,89.653,-52.209,136.74,-50.783,161.51,-24.773,89.507,-74.926,99.537,-2.4797,50.551,-68.192,61.255
-29.24,85.275,-13.322,89.653,-52.209,136.74,-50.783,161.51,-24.773,89.507,-74.926,99.537,-2.4797,50.551,-68.192,61.255
-29.24,85.275,-13.322,89.653,-52.209,136.74,-50.783,161.51,-24.773,89.507,-74.926,99.537,-2.4797,50.551,-68.192,61.255
-29.275,85.165,-13.361,89.576,-52.395,136.69,-51.088,161.53,-24.769,89.199,-75.126,99.509,-2.5946,50.199,-68.368,60.944
-29.275,85.165,-13.361,89.576,-52.395,136.69,-51.088,161.53,-24.769,89.199,-75.126,99.509,-2.5946,50.199,-68.368,60.944
-29.31,85.053,-13.4,89.498,-52.579,136.64,-51.392,161.54,-24.764,88.888,-75.322,99.479,-2.7089,49.844,-68.54,60.63
-29.344,84.94,-13.438,89.418,-52.762,136.59,-51.695,161.56,-24.758,88.575,-75.516,99.445,-2.8225,49.487,-68.709,60.313
-29.377,84.824,-13.476,89.336,-52.942,136.54,-51.997,161.56,-24.749,88.259,-75.707,99.408,-2.9355,49.127,-68.875,59.992
-29.377,84.824,-13.476,89.336,-52.942,136.54,-51.997,161.56,-24.749,88.259,-75.707,99.408,-2.9355,49.127,-68.875,59.992
-29.377,84.824,-13.476,89.336,-52.942,136.54,-51.997,161.56,-24.749,88.259,-75.707,99.408,-2.9355,49.127,-68.875,59.992
-29.409,84.706,-13.513,89.253,-53.121,136.48,-52.296,161.57,-24.739,87.94,-75.895,99.369,-3.0478,48.766,-69.038,59.668
-29.409,84.706,-13.513,89.253,-53.121,136.48,-52.296,161.57,-24.739,87.94,-75.895,99.369,-3.0478,48.766,-69.038,59.668
-29.409,84.706,-13.513,89.253,-53.121,136.48,-52.296,161.57,-24.739,87.94,-75.895,99.369,-3.0478,48.766,-69.038,59.668
-29.44,84.586,-13.55,89.168,-53.298,136.42,-52.595,161.57,-24.728,87.619,-76.08,99.326,-3.1595,48.402,-69.198,59.34
-29.44,84.586,-13.55,89.168,-53.298,136.42,-52.595,161.57,-24.728,87.619,-76.08,99.326,-3.1595,48.402,-69.198,59.34
-29.5,84.341,-13.622,88.994,-53.646,136.29,-53.188,161.57,-24.7,86.969,-76.442,99.231,-3.381,47.667,-69.509,58.674
-29.5,84.341,-13.622,88.994,-53.646,136.29,-53.188,161.57,-24.7,86.969,-76.442,99.231,-3.381,47.667,-69.509,58.674
-29.529,84.216,-13.658,88.905,-53.817,136.22,-53.482,161.57,-24.684,86.64,-76.618,99.18,-3.4908,47.297,-69.66,58.336
-29.529,84.216,-13.658,88.905,-53.817,136.22,-53.482,161.57,-24.684,86.64,-76.618,99.18,-3.4908,47.297,-69.66,58.336
-29.557,84.088,-13.693,88.814,-53.986,136.15,-53.775,161.56,-24.666,86.308,-76.792,99.125,-3.6,46.924,-69.808,57.995
-29.557,84.088,-13.693,88.814,-53.986,136.15,-53.775,161.56,-24.666,86.308,-76.792,99.125,-3.6,46.924,-69.808,57.995
-29.557,84.088,-13.693,88.814,-53.986,136.15,-53.775,161.56,-24.666,86.308,-76.792,99.125,-3.6,46.924,-69.808,57.995
-29.584,83.959,-13.727,88.721,-54.154,136.07,-54.066,161.55,-24.646,85.975,-76.963,99.067,-3.7086,46.55,-69.952,57.651
-29.584,83.959,-13.727,88.721,-54.154,136.07,-54.066,161.55,-24.646,85.975,-76.963,99.067,-3.7086,46.55,-69.952,57.651
-29.61,83.828,-13.761,88.628,-54.319,136,-54.356,161.53,-24.625,85.639,-77.131,99.007,-3.8165,46.173,-70.094,57.303
-29.61,83.828,-13.761,88.628,-54.319,136,-54.356,161.53,-24.625,85.639,-77.131,99.007,-3.8165,46.173,-70.094,57.303
-29.635,83.695,-13.795,88.532,-54.483,135.91,-54.644,161.51,-24.603,85.3,-77.297,98.944,-3.9238,45.795,-70.232,56.952
-29.66,83.56,-13.828,88.436,-54.645,135.83,-54.931,161.49,-24.578,84.96,-77.459,98.878,-4.0306,45.414,-70.367,56.598
-29.66,83.56,-13.828,88.436,-54.645,135.83,-54.931,161.49,-24.578,84.96,-77.459,98.878,-4.0306,45.414,-70.367,56.598
-29.684,83.424,-13.861,88.338,-54.805,135.74,-55.217,161.47,-24.552,84.617,-77.619,98.809,-4.1367,45.032,-70.5,56.241
-29.684,83.424,-13.861,88.338,-54.805,135.74,-55.217,161.47,-24.552,84.617,-77.619,98.809,-4.1367,45.032,-70.5,56.241
-29.684,83.424,-13.861,88.338,-54.805,135.74,-55.217,161.47,-24.552,84.617,-77.619,98.809,-4.1367,45.032,-70.5,56.241
-29.706,83.286,-13.893,88.238,-54.963,135.65,-55.501,161.44,-24.524,84.272,-77.776,98.737,-4.2422,44.648,-70.629,55.88
-29.706,83.286,-13.893,88.238,-54.963,135.65,-55.501,161.44,-24.524,84.272,-77.776,98.737,-4.2422,44.648,-70.629,55.88
-29.728,83.145,-13.924,88.137,-55.119,135.55,-55.784,161.41,-24.495,83.924,-77.93,98.662,-4.3472,44.262,-70.755,55.517
-29.728,83.145,-13.924,88.137,-55.119,135.55,-55.784,161.41,-24.495,83.924,-77.93,98.662,-4.3472,44.262,-70.755,55.517
-29.749,83.004,-13.956,88.035,-55.273,135.46,-56.065,161.38,-24.464,83.575,-78.081,98.585,-4.4515,43.874,-70.878,55.15
-29.749,83.004,-13.956,88.035,-55.273,135.46,-56.065,161.38,-24.464,83.575,-78.081,98.585,-4.4515,43.874,-70.878,55.15
-29.77,82.86,-13.986,87.932,-55.426,135.35,-56.345,161.35,-24.432,83.223,-78.23,98.505,-4.5552,43.485,-70.998,54.78
-29.77,82.86,-13.986,87.932,-55.426,135.35,-56.345,161.35,-24.432,83.223,-78.23,98.505,-4.5552,43.485,-70.998,54.78
