21411,54.3,16.838,0,1.6174,0,21642,54.112,0,0,0,0,0.0073962,1
21412,54.3,16.902,0,1.5878,0,21642,54.112,0,0,0,0,0.0074179,1
21412,54.3,16.902,0,1.5878,0,21642,54.112,0,0,0,0,0.0074179,1
21412,54.3,16.902,0,1.5878,0,21642,54.112,0,0,0,0,0.0074179,1
21412,54.3,16.902,0,1.5878,0,21642,54.112,0,0,0,0,0.0074179,1
21412,54.3,16.902,0,1.5878,0,21642,54.112,0,0,0,0,0.0074179,1
21412,54.3,16.902,0,1.5878,0,21642,54.112,0,0,0,0,0.0074179,1
21412,54.3,16.902,0,1.5878,0,21642,54.112,0,0,0,0,0.0074179,1
21412,54.3,16.933,0,1.5731,0,21642,54.112,0,0,0,0,0.0074288,1
21414,54.3,17.057,0,1.5147,0,21642,54.112,0,0,0,0,0.0074731,1
21414,54.3,17.057,0,1.5147,0,21642,54.112,0,0,0,0,0.0074731,1
21415,54.3,17.146,0,1.4715,0,21642,54.112,0,0,0,0,0.0075068,1
21415,54.3,17.146,0,1.4715,0,21642,54.112,0,0,0,0,0.0075068,1
21415,54.3,17.146,0,1.4715,0,21642,54.112,0,0,0,0,0.0075068,1
21415,54.3,17.146,0,1.4715,0,21642,54.112,0,0,0,0,0.0075068,1
21415,54.3,17.146,0,1.4715,0,21642,54.112,0,0,0,0,0.0075068,1
21415,54.3,17.146,0,1.4715,0,21642,54.112,0,0,0,0,0.0075068,1
21415,54.3,17.146,0,1.4715,0,21642,54.112,0,0,0,0,0.0075068,1
21415,54.3,17.146,0,1.4715,0,21642,54.112,0,0,0,0,0.0075068,1
21415,54.3,17.146,0,1.4715,0,21642,54.112,0,0,0,0,0.0075068,1
21415,54.3,17.146,0,1.4715,0,21642,54.112,0,0,0,0,0.0075068,1
21415,54.3,17.146,0,1.4715,0,21642,54.112,0,0,0,0,0.0075068,1
21417,54.3,17.29,0,1.4008,0,21642,54.112,0,0,0,0,0.0075642,1
21417,54.3,17.29,0,1.4008,0,21642,54.112,0,0,0,0,0.0075642,1
21417,54.3,17.29,0,1.4008,0,21642,54.112,0,0,0,0,0.0075642,1
21417,54.3,17.29,0,1.4008,0,21642,54.112,0,0,0,0,0.0075642,1
21417,54.3,17.29,0,1.4008,0,21642,54.112,0,0,0,0,0.0075642,1
21417,54.3,17.29,0,1.4008,0,21642,54.112,0,0,0,0,0.0075642,1
21417,54.3,17.29,0,1.4008,0,21642,54.112,0,0,0,0,0.0075642,1
21417,54.3,17.29,0,1.4008,0,21642,54.112,0,0,0,0,0.0075642,1
21417,54.3,17.29,0,1.4008,0,21642,54.112,0,0,0,0,0.0075642,1
21417,54.3,17.29,0,1.4008,0,21642,54.112,0,0,0,0,0.0075642,1
21417,54.3,17.29,0,1.4008,0,21642,54.112,0,0,0,0,0.0075642,1
21417,54.3,17.29,0,1.4008,0,21642,54.112,0,0,0,0,0.0075642,1
21417,54.3,17.29,0,1.4008,0,21642,54.112,0,0,0,0,0.0075642,1
21417,54.3,17.29,0,1.4008,0,21642,54.112,0,0,0,0,0.0075642,1
21417,54.3,17.29,0,1.4008,0,21642,54.112,0,0,0,0,0.0075642,1
21417,54.3,17.29,0,1.4008,0,21642,54.112,0,0,0,0,0.0075642,1
21417,54.3,17.29,0,1.4008,0,21642,54.112,0,0,0,0,0.0075642,1
21417,54.3,17.29,0,1.4008,0,21642,54.112,0,0,0,0,0.0075642,1
21418,54.3,17.427,0,1.3319,0,21642,54.112,0,0,0,0,0.0076229,1
21418,54.3,17.427,0,1.3319,0,21642,54.112,0,0,0,0,0.0076229,1
21418,54.3,17.427,0,1.3319,0,21642,54.112,0,0,0,0,0.0076229,1
21420,54.3,17.556,0,1.2648,0,21642,54.112,0,0,0,0,0.007683,1
21421,54.3,17.655,0,1.2053,0,21642,54.112,0,0,0,0,0.0077321,1
21421,54.3,17.655,0,1.2053,0,21642,54.112,0,0,0,0,0.0077321,1
21421,54.3,17.655,0,1.2053,0,21642,54.112,0,0,0,0,0.0077321,1
21421,54.3,17.655,0,1.2053,0,21642,54.112,0,0,0,0,0.0077321,1
21421,54.3,17.655,0,1.2053,0,21642,54.112,0,0,0,0,0.0077321,1
21421,54.3,17.655,0,1.2053,0,21642,54.112,0,0,0,0,0.0077321,1
21421,54.3,17.655,0,1.2053,0,21642,54.112,0,0,0,0,0.0077321,1
21422,54.3,17.679,0,1.1909,0,21642,54.112,0,0,0,0,0.0077445,1
21422,54.3,17.679,0,1.1909,0,21642,54.112,0,0,0,0,0.0077445,1
21422,54.3,17.679,0,1.1909,0,21642,54.112,0,0,0,0,0.0077445,1
21422,54.3,17.679,0,1.1909,0,21642,54.112,0,0,0,0,0.0077445,1
21422,54.3,17.679,0,1.1909,0,21642,54.112,0,0,0,0,0.0077445,1
21422,54.3,17.679,0,1.1909,0,21642,54.112,0,0,0,0,0.0077445,1
21422,54.3,17.679,0,1.1909,0,21642,54.112,0,0,0,0,0.0077445,1
21422,54.3,17.679,0,1.1909,0,21642,54.112,0,0,0,0,0.0077445,1
21422,54.3,17.679,0,1.1909,0,21642,54.112,0,0,0,0,0.0077445,1
21422,54.3,17.679,0,1.1909,0,21642,54.112,0,0,0,0,0.0077445,1
21422,54.3,17.679,0,1.1909,0,21642,54.112,0,0,0,0,0.0077445,1
21423,54.3,17.726,0,1.1625,0,21642,54.112,0,0,0,0,0.0077695,1
21423,54.3,17.726,0,1.1625,0,21642,54.112,0,0,0,0,0.0077695,1
21423,54.3,17.726,0,1.1625,0,21642,54.112,0,0,0,0,0.0077695,1
21423,54.3,17.772,0,1.1347,0,21642,54.112,0,0,0,0,0.0077947,1
21423,54.3,17.772,0,1.1347,0,21642,54.112,0,0,0,0,0.0077947,1
21424,54.3,17.817,0,1.1075,0,21642,54.112,0,0,0,0,0.0078201,1
21424,54.3,17.817,0,1.1075,0,21642,54.112,0,0,0,0,0.0078201,1
21425,54.3,17.904,0,1.0551,0,21642,54.112,0,0,0,0,0.0078717,1
21425,54.3,17.904,0,1.0551,0,21642,54.112,0,0,0,0,0.0078717,1
21425,54.3,17.904,0,1.0551,0,21642,54.112,0,0,0,0,0.0078717,1
21425,54.3,17.904,0,1.0551,0,21642,54.112,0,0,0,0,0.0078717,1
21425,54.3,17.904,0,1.0551,0,21642,54.112,0,0,0,0,0.0078717,1
21425,54.3,17.904,0,1.0551,0,21642,54.112,0,0,0,0,0.0078717,1
21425,54.3,17.904,0,1.0551,0,21642,54.112,0,0,0,0,0.0078717,1
21425,54.3,17.904,0,1.0551,0,21642,54.112,0,0,0,0,0.0078717,1
21425,54.3,17.904,0,1.0551,0,21642,54.112,0,0,0,0,0.0078717,1
21425,54.3,17.904,0,1.0551,0,21642,54.112,0,0,0,0,0.0078717,1
21425,54.3,17.904,0,1.0551,0,21642,54.112,0,0,0,0,0.0078717,1
21425,54.3,17.904,0,1.0551,0,21642,54.112,0,0,0,0,0.0078717,1
21425,54.3,17.904,0,1.0551,0,21642,54.112,0,0,0,0,0.0078717,1
21425,54.3,17.904,0,1.0551,0,21642,54.112,0,0,0,0,0.0078717,1
21425,54.3,17.904,0,1.0551,0,21642,54.112,0,0,0,0,0.0078717,1
21425,54.3,17.904,0,1.0551,0,21642,54.112,0,0,0,0,0.0078717,1
21425,54.3,17.904,0,1.0551,0,21642,54.112,0,0,0,0,0.0078717,1
21425,54.3,17.904,0,1.0551,0,21642,54.112,0,0,0,0,0.0078717,1
21425,54.3,17.904,0,1.0551,0,21642,54.112,0,0,0,0,0.0078717,1
21425,54.3,17.904,0,1.0551,0,21642,54.112,0,0,0,0,0.0078717,1
21425,54.3,17.904,0,1.0551,0,21642,54.112,0,0,0,0,0.0078717,1
21425,54.3,17.904,0,1.0551,0,21642,54.112,0,0,0,0,0.0078717,1
21428,54.3,18.045,0,0.96887,0,21642,54.112,0,0,0,0,0.0079642,1
21429,54.3,18.121,0,0.92264,0,21642,54.112,0,0,0,0,0.0080184,1
21429,54.3,18.121,0,0.92264,0,21642,54.112,0,0,0,0,0.0080184,1
21430,54.3,18.139,0,0.91142,0,21642,54.112,0,0,0,0,0.0080321,1
21430,54.3,18.139,0,0.91142,0,21642,54.112,0,0,0,0,0.0080321,1
21430,54.3,18.139,0,0.91142,0,21642,54.112,0,0,0,0,0.0080321,1
21430,54.3,18.139,0,0.91142,0,21642,54.112,0,0,0,0,0.0080321,1
21430,54.3,18.139,0,0.91142,0,21642,54.112,0,0,0,0,0.0080321,1
21430,54.3,18.139,0,0.91142,0,21642,54.112,0,0,0,0,0.0080321,1
21430,54.3,18.139,0,0.91142,0,21642,54.112,0,0,0,0,0.0080321,1
21430,54.3,18.139,0,0.91142,0,21642,54.112,0,0,0,0,0.0080321,1
21430,54.3,18.139,0,0.91142,0,21642,54.112,0,0,0,0,0.0080321,1
21430,54.3,18.139,0,0.91142,0,21642,54.112,0,0,0,0,0.0080321,1
21430,54.3,18.139,0,0.91142,0,21642,54.112,0,0,0,0,0.0080321,1
21431,54.3,18.21,0,0.8678,0,21642,54.112,0,0,0,0,0.0080875,1
21431,54.3,18.21,0,0.8678,0,21642,54.112,0,0,0,0,0.0080875,1
21431,54.3,18.21,0,0.8678,0,21642,54.112,0,0,0,0,0.0080875,1
21431,54.3,18.21,0,0.8678,0,21642,54.112,0,0,0,0,0.0080875,1
21431,54.3,18.21,0,0.8678,0,21642,54.112,0,0,0,0,0.0080875,1
21431,54.3,18.21,0,0.8678,0,21642,54.112,0,0,0,0,0.0080875,1
21431,54.3,18.21,0,0.8678,0,21642,54.112,0,0,0,0,0.0080875,1
21431,54.3,18.21,0,0.8678,0,21642,54.112,0,0,0,0,0.0080875,1
21431,54.3,18.21,0,0.8678,0,21642,54.112,0,0,0,0,0.0080875,1
21431,54.3,18.21,0,0.8678,0,21642,54.112,0,0,0,0,0.0080875,1
21431,54.3,18.21,0,0.8678,0,21642,54.112,0,0,0,0,0.0080875,1
21431,54.3,18.21,0,0.8678,0,21642,54.112,0,0,0,0,0.0080875,1
21433,54.3,18.278,0,0.82618,0,21642,54.112,0,0,0,0,0.0081439,1
21434,54.3,18.327,0,0.79622,0,21642,54.112,0,0,0,0,0.0081868,1
21434,54.3,18.327,0,0.79622,0,21642,54.112,0,0,0,0,0.0081868,1
21434,54.3,18.327,0,0.79622,0,21642,54.112,0,0,0,0,0.0081868,1
21434,54.3,18.327,0,0.79622,0,21642,54.112,0,0,0,0,0.0081868,1
21434,54.3,18.327,0,0.79622,0,21642,54.112,0,0,0,0,0.0081868,1
21434,54.3,18.327,0,0.79622,0,21642,54.112,0,0,0,0,0.0081868,1
21434,54.3,18.327,0,0.79622,0,21642,54.112,0,0,0,0,0.0081868,1
21434,54.3,18.327,0,0.79622,0,21642,54.112,0,0,0,0,0.0081868,1
21434,54.3,18.327,0,0.79622,0,21642,54.112,0,0,0,0,0.0081868,1
21434,54.3,18.327,0,0.79622,0,21642,54.112,0,0,0,0,0.0081868,1
21434,54.3,18.327,0,0.79622,0,21642,54.112,0,0,0,0,0.0081868,1
21434,54.3,18.327,0,0.79622,0,21642,54.112,0,0,0,0,0.0081868,1
21434,54.3,18.327,0,0.79622,0,21642,54.112,0,0,0,0,0.0081868,1
21434,54.3,18.327,0,0.79622,0,21642,54.112,0,0,0,0,0.0081868,1
21434,54.3,18.327,0,0.79622,0,21642,54.112,0,0,0,0,0.0081868,1
21434,54.3,18.327,0,0.79622,0,21642,54.112,0,0,0,0,0.0081868,1
21434,54.3,18.327,0,0.79622,0,21642,54.112,0,0,0,0,0.0081868,1
21434,54.3,18.327,0,0.79622,0,21642,54.112,0,0,0,0,0.0081868,1
21434,54.3,18.327,0,0.79622,0,21642,54.112,0,0,0,0,0.0081868,1
21434,54.3,18.327,0,0.79622,0,21642,54.112,0,0,0,0,0.0081868,1
21434,54.3,18.327,0,0.79622,0,21642,54.112,0,0,0,0,0.0081868,1
21434,54.3,18.327,0,0.79622,0,21642,54.112,0,0,0,0,0.0081868,1
21436,54.3,18.433,0,0.73029,0,21642,54.112,0,0,0,0,0.0082893,1
21436,54.3,18.433,0,0.73029,0,21642,54.112,0,0,0,0,0.0082893,1
21437,54.3,18.462,0,0.71243,0,21642,54.112,0,0,0,0,0.0083191,1
21437,54.3,18.462,0,0.71243,0,21642,54.112,0,0,0,0,0.0083191,1
21439,54.3,18.531,0,0.66961,0,21642,54.112,0,0,0,0,0.0083949,1
21439,54.3,18.531,0,0.66961,0,21642,54.112,0,0,0,0,0.0083949,1
21439,54.3,18.531,0,0.66961,0,21642,54.112,0,0,0,0,0.0083949,1
21440,54.3,18.571,0,0.64511,0,21642,54.112,0,0,0,0,0.0084411,1
21440,54.3,18.571,0,0.64511,0,21642,54.112,0,0,0,0,0.0084411,1
21440,54.3,18.571,0,0.64511,0,21642,54.112,0,0,0,0,0.0084411,1
21440,54.3,18.571,0,0.64511,0,21642,54.112,0,0,0,0,0.0084411,1
21440,54.3,18.571,0,0.64511,0,21642,54.112,0,0,0,0,0.0084411,1
21440,54.3,18.571,0,0.64511,0,21642,54.112,0,0,0,0,0.0084411,1
21440,54.3,18.584,0,0.63714,0,21642,54.112,0,0,0,0,0.0084567,1
21440,54.3,18.584,0,0.63714,0,21642,54.112,0,0,0,0,0.0084567,1
21440,54.3,18.584,0,0.63714,0,21642,54.112,0,0,0,0,0.0084567,1
21440,54.3,18.584,0,0.63714,0,21642,54.112,0,0,0,0,0.0084567,1
21440,54.3,18.584,0,0.63714,0,21642,54.112,0,0,0,0,0.0084567,1
21440,54.3,18.584,0,0.63714,0,21642,54.112,0,0,0,0,0.0084567,1
21440,54.3,18.584,0,0.63714,0,21642,54.112,0,0,0,0,0.0084567,1
21440,54.3,18.584,0,0.63714,0,21642,54.112,0,0,0,0,0.0084567,1
21441,54.3,18.596,0,0.62926,0,21642,54.112,0,0,0,0,0.0084723,1
21441,54.3,18.596,0,0.62926,0,21642,54.112,0,0,0,0,0.0084723,1
21441,54.3,18.596,0,0.62926,0,21642,54.112,0,0,0,0,0.0084723,1
21441,54.3,18.596,0,0.62926,0,21642,54.112,0,0,0,0,0.0084723,1
21442,54.3,18.645,0,0.59868,0,21642,54.112,0,0,0,0,0.0085355,1
21444,54.3,18.692,0,0.56953,0,21642,54.112,0,0,0,0,0.0085998,1
21444,54.3,18.692,0,0.56953,0,21642,54.112,0,0,0,0,0.0085998,1
21444,54.3,18.692,0,0.56953,0,21642,54.112,0,0,0,0,0.0085998,1
21444,54.3,18.692,0,0.56953,0,21642,54.112,0,0,0,0,0.0085998,1
21444,54.3,18.692,0,0.56953,0,21642,54.112,0,0,0,0,0.0085998,1
21444,54.3,18.692,0,0.56953,0,21642,54.112,0,0,0,0,0.0085998,1
21444,54.3,18.692,0,0.56953,0,21642,54.112,0,0,0,0,0.0085998,1
21444,54.3,18.703,0,0.56246,0,21642,54.112,0,0,0,0,0.0086161,1
21444,54.3,18.703,0,0.56246,0,21642,54.112,0,0,0,0,0.0086161,1
21444,54.3,18.703,0,0.56246,0,21642,54.112,0,0,0,0,0.0086161,1
21444,54.3,18.703,0,0.56246,0,21642,54.112,0,0,0,0,0.0086161,1
21444,54.3,18.703,0,0.56246,0,21642,54.112,0,0,0,0,0.0086161,1
21444,54.3,18.703,0,0.56246,0,21642,54.112,0,0,0,0,0.0086161,1
21444,54.3,18.703,0,0.56246,0,21642,54.112,0,0,0,0,0.0086161,1
21444,54.3,18.703,0,0.56246,0,21642,54.112,0,0,0,0,0.0086161,1
21444,54.3,18.703,0,0.56246,0,21642,54.112,0,0,0,0,0.0086161,1
21444,54.3,18.703,0,0.56246,0,21642,54.112,0,0,0,0,0.0086161,1
21444,54.3,18.703,0,0.56246,0,21642,54.112,0,0,0,0,0.0086161,1
21445,54.3,18.726,0,0.54857,0,21642,54.112,0,0,0,0,0.0086488,1
21445,54.3,18.737,0,0.54175,0,21642,54.112,0,0,0,0,0.0086652,1
21446,54.3,18.768,0,0.52179,0,21642,54.112,0,0,0,0,0.0087151,1
21447,54.3,18.799,0,0.50253,0,21642,54.112,0,0,0,0,0.0087656,1
21447,54.3,18.799,0,0.50253,0,21642,54.112,0,0,0,0,0.0087656,1
21448,54.3,18.819,0,0.49008,0,21642,54.112,0,0,0,0,0.0087996,1
21448,54.3,18.819,0,0.49008,0,21642,54.112,0,0,0,0,0.0087996,1
21448,54.3,18.819,0,0.49008,0,21642,54.112,0,0,0,0,0.0087996,1
21448,54.3,18.819,0,0.49008,0,21642,54.112,0,0,0,0,0.0087996,1
21448,54.3,18.819,0,0.49008,0,21642,54.112,0,0,0,0,0.0087996,1
21448,54.3,18.819,0,0.49008,0,21642,54.112,0,0,0,0,0.0087996,1
21448,54.3,18.819,0,0.49008,0,21642,54.112,0,0,0,0,0.0087996,1
21448,54.3,18.819,0,0.49008,0,21642,54.112,0,0,0,0,0.0087996,1
21448,54.3,18.819,0,0.49008,0,21642,54.112,0,0,0,0,0.0087996,1
21448,54.3,18.819,0,0.49008,0,21642,54.112,0,0,0,0,0.0087996,1
21448,54.3,18.819,0,0.49008,0,21642,54.112,0,0,0,0,0.0087996,1
21448,54.3,18.819,0,0.49008,0,21642,54.112,0,0,0,0,0.0087996,1
21448,54.3,18.819,0,0.49008,0,21642,54.112,0,0,0,0,0.0087996,1
21448,54.3,18.819,0,0.49008,0,21642,54.112,0,0,0,0,0.0087996,1
21448,54.3,18.819,0,0.49008,0,21642,54.112,0,0,0,0,0.0087996,1
21448,54.3,18.819,0,0.49008,0,21642,54.112,0,0,0,0,0.0087996,1
21448,54.3,18.819,0,0.49008,0,21642,54.112,0,0,0,0,0.0087996,1
21448,54.3,18.819,0,0.49008,0,21642,54.112,0,0,0,0,0.0087996,1
21449,54.3,18.838,0,0.47793,0,21642,54.112,0,0,0,0,0.0088339,1
21449,54.3,18.838,0,0.47793,0,21642,54.112,0,0,0,0,0.0088339,1
21449,54.3,18.838,0,0.47793,0,21642,54.112,0,0,0,0,0.0088339,1
21449,54.3,18.838,0,0.47793,0,21642,54.112,0,0,0,0,0.0088339,1
21449,54.3,18.838,0,0.47793,0,21642,54.112,0,0,0,0,0.0088339,1
21449,54.3,18.838,0,0.47793,0,21642,54.112,0,0,0,0,0.0088339,1
21449,54.3,18.838,0,0.47793,0,21642,54.112,0,0,0,0,0.0088339,1
21449,54.3,18.838,0,0.47793,0,21642,54.112,0,0,0,0,0.0088339,1
21449,54.3,18.838,0,0.47793,0,21642,54.112,0,0,0,0,0.0088339,1
21451,54.3,18.876,0,0.4545,0,21642,54.112,0,0,0,0,0.0089035,1
21451,54.3,18.876,0,0.4545,0,21642,54.112,0,0,0,0,0.0089035,1
21451,54.3,18.894,0,0.4432,0,21642,54.112,0,0,0,0,0.0089388,1
21451,54.3,18.894,0,0.4432,0,21642,54.112,0,0,0,0,0.0089388,1
21453,54.3,18.937,0,0.41615,0,21642,54.112,0,0,0,0,0.0090283,1
21453,54.3,18.937,0,0.41615,0,21642,54.112,0,0,0,0,0.0090283,1
21453,54.3,18.937,0,0.41615,0,21642,54.112,0,0,0,0,0.0090283,1
21453,54.3,18.937,0,0.41615,0,21642,54.112,0,0,0,0,0.0090283,1
21453,54.3,18.937,0,0.41615,0,21642,54.112,0,0,0,0,0.0090283,1
21453,54.3,18.937,0,0.41615,0,21642,54.112,0,0,0,0,0.0090283,1
21453,54.3,18.937,0,0.41615,0,21642,54.112,0,0,0,0,0.0090283,1
21453,54.3,18.937,0,0.41615,0,21642,54.112,0,0,0,0,0.0090283,1
21453,54.3,18.937,0,0.41615,0,21642,54.112,0,0,0,0,0.0090283,1
21455,54.3,18.969,0,0.39567,0,21642,54.112,0,0,0,0,0.0091014,1
21455,54.3,18.969,0,0.39567,0,21642,54.112,0,0,0,0,0.0091014,1
21455,54.3,18.969,0,0.39567,0,21642,54.112,0,0,0,0,0.0091014,1
21455,54.3,18.969,0,0.39567,0,21642,54.112,0,0,0,0,0.0091014,1
21455,54.3,18.969,0,0.39567,0,21642,54.112,0,0,0,0,0.0091014,1
21455,54.3,18.969,0,0.39567,0,21642,54.112,0,0,0,0,0.0091014,1
21455,54.3,18.969,0,0.39567,0,21642,54.112,0,0,0,0,0.0091014,1
21455,54.3,18.977,0,0.39071,0,21642,54.112,0,0,0,0,0.0091199,1
21455,54.3,18.977,0,0.39071,0,21642,54.112,0,0,0,0,0.0091199,1
21455,54.3,18.977,0,0.39071,0,21642,54.112,0,0,0,0,0.0091199,1
21455,54.3,18.977,0,0.39071,0,21642,54.112,0,0,0,0,0.0091199,1
21456,54.3,19,0,0.37618,0,21642,54.112,0,0,0,0,0.0091758,1
21456,54.3,19,0,0.37618,0,21642,54.112,0,0,0,0,0.0091758,1
21456,54.3,19,0,0.37618,0,21642,54.112,0,0,0,0,0.0091758,1
21456,54.3,19,0,0.37618,0,21642,54.112,0,0,0,0,0.0091758,1
21456,54.3,19,0,0.37618,0,21642,54.112,0,0,0,0,0.0091758,1
21458,54.3,19.029,0,0.35762,0,21642,54.112,0,0,0,0,0.0092515,1
21458,54.3,19.029,0,0.35762,0,21642,54.112,0,0,0,0,0.0092515,1
21458,54.3,19.043,0,0.34868,0,21642,54.112,0,0,0,0,0.0092899,1
21459,54.3,19.057,0,0.33996,0,21642,54.112,0,0,0,0,0.0093286,1
21459,54.3,19.057,0,0.33996,0,21642,54.112,0,0,0,0,0.0093286,1
21459,54.3,19.057,0,0.33996,0,21642,54.112,0,0,0,0,0.0093286,1
21459,54.3,19.057,0,0.33996,0,21642,54.112,0,0,0,0,0.0093286,1
21459,54.3,19.057,0,0.33996,0,21642,54.112,0,0,0,0,0.0093286,1
21459,54.3,19.057,0,0.33996,0,21642,54.112,0,0,0,0,0.0093286,1
21459,54.3,19.057,0,0.33996,0,21642,54.112,0,0,0,0,0.0093286,1
21459,54.3,19.057,0,0.33996,0,21642,54.112,0,0,0,0,0.0093286,1
21460,54.3,19.079,0,0.60102,0,21642,54.112,0,0,0,0,0.0093677,1
21460,54.3,19.079,0,0.60102,0,21642,54.112,0,0,0,0,0.0093677,1
21460,54.3,19.079,0,0.60102,0,21642,54.112,0,0,0,0,0.0093677,1
21460,54.3,19.079,0,0.60102,0,21642,54.112,0,0,0,0,0.0093677,1
21460,54.3,19.079,0,0.60102,0,21642,54.112,0,0,0,0,0.0093677,1
21460,54.3,19.079,0,0.60102,0,21642,54.112,0,0,0,0,0.0093677,1
21460,54.3,19.079,0,0.60102,0,21642,54.112,0,0,0,0,0.0093677,1
21460,54.3,19.079,0,0.60102,0,21642,54.112,0,0,0,0,0.0093677,1
21460,54.3,19.079,0,0.60102,0,21642,54.112,0,0,0,0,0.0093677,1
21460,54.3,19.079,0,0.60102,0,21642,54.112,0,0,0,0,0.0093677,1
21460,54.3,19.079,0,0.60102,0,21642,54.112,0,0,0,0,0.0093677,1
21460,54.3,19.079,0,0.60102,0,21642,54.112,0,0,0,0,0.0093677,1
21460,54.3,19.079,0,0.60102,0,21642,54.112,0,0,0,0,0.0093677,1
21460,54.3,19.079,0,0.60102,0,21642,54.112,0,0,0,0,0.0093677,1
21460,54.3,19.079,0,0.60102,0,21642,54.112,0,0,0,0,0.0093677,1
21461,54.3,19.103,0,0.58901,0,21642,54.112,0,0,0,0,0.0094072,1
21461,54.3,19.103,0,0.58901,0,21642,54.112,0,0,0,0,0.0094072,1
21461,54.3,19.103,0,0.58901,0,21642,54.112,0,0,0,0,0.0094072,1
21463,54.3,19.182,0,0.54355,0,21642,54.112,0,0,0,0,0.0095484,1
21463,54.3,19.182,0,0.54355,0,21642,54.112,0,0,0,0,0.0095484,1
21465,54.3,19.214,0,0.52515,0,21642,54.112,0,0,0,0,0.0096104,1
21465,54.3,19.214,0,0.52515,0,21642,54.112,0,0,0,0,0.0096104,1
21465,54.3,19.214,0,0.52515,0,21642,54.112,0,0,0,0,0.0096104,1
21465,54.3,19.214,0,0.52515,0,21642,54.112,0,0,0,0,0.0096104,1
21465,54.3,19.214,0,0.52515,0,21642,54.112,0,0,0,0,0.0096104,1
21465,54.3,19.214,0,0.52515,0,21642,54.112,0,0,0,0,0.0096104,1
21465,54.3,19.214,0,0.52515,0,21642,54.112,0,0,0,0,0.0096104,1
21465,54.3,19.224,0,0.51916,0,21642,54.112,0,0,0,0,0.0096313,1
21465,54.3,19.224,0,0.51916,0,21642,54.112,0,0,0,0,0.0096313,1
21465,54.3,19.224,0,0.51916,0,21642,54.112,0,0,0,0,0.0096313,1
21465,54.3,19.224,0,0.51916,0,21642,54.112,0,0,0,0,0.0096313,1
21465,54.3,19.224,0,0.51916,0,21642,54.112,0,0,0,0,0.0096313,1
21465,54.3,19.224,0,0.51916,0,21642,54.112,0,0,0,0,0.0096313,1
21465,54.3,19.224,0,0.51916,0,21642,54.112,0,0,0,0,0.0096313,1
21465,54.3,19.235,0,0.51323,0,21642,54.112,0,0,0,0,0.0096522,1
21465,54.3,19.235,0,0.51323,0,21642,54.112,0,0,0,0,0.0096522,1
21465,54.3,19.235,0,0.51323,0,21642,54.112,0,0,0,0,0.0096522,1
21465,54.3,19.235,0,0.51323,0,21642,54.112,0,0,0,0,0.0096522,1
21465,54.3,19.235,0,0.51323,0,21642,54.112,0,0,0,0,0.0096522,1
21465,54.3,19.235,0,0.51323,0,21642,54.112,0,0,0,0,0.0096522,1
21465,54.3,19.235,0,0.51323,0,21642,54.112,0,0,0,0,0.0096522,1
21466,54.3,19.245,0,0.50737,0,21642,54.112,0,0,0,0,0.0096733,1
21466,54.3,19.245,0,0.50737,0,21642,54.112,0,0,0,0,0.0096733,1
21468,54.3,19.304,0,0.47359,0,21642,54.112,0,0,0,0,0.0098019,1
21468,54.3,19.304,0,0.47359,0,21642,54.112,0,0,0,0,0.0098019,1
21470,54.3,19.341,0,0.45233,0,21642,54.112,0,0,0,0,0.0098898,1
21470,54.3,19.341,0,0.45233,0,21642,54.112,0,0,0,0,0.0098898,1
21470,54.3,19.341,0,0.45233,0,21642,54.112,0,0,0,0,0.0098898,1
21470,54.3,19.341,0,0.45233,0,21642,54.112,0,0,0,0,0.0098898,1
21470,54.3,19.341,0,0.45233,0,21642,54.112,0,0,0,0,0.0098898,1
21470,54.3,19.341,0,0.45233,0,21642,54.112,0,0,0,0,0.0098898,1
21470,54.3,19.341,0,0.45233,0,21642,54.112,0,0,0,0,0.0098898,1
21470,54.3,19.341,0,0.45233,0,21642,54.112,0,0,0,0,0.0098898,1
21470,54.3,19.341,0,0.45233,0,21642,54.112,0,0,0,0,0.0098898,1
21470,54.3,19.341,0,0.45233,0,21642,54.112,0,0,0,0,0.0098898,1
21470,54.3,19.341,0,0.45233,0,21642,54.112,0,0,0,0,0.0098898,1
21470,54.3,19.341,0,0.45233,0,21642,54.112,0,0,0,0,0.0098898,1
21470,54.3,19.341,0,0.45233,0,21642,54.112,0,0,0,0,0.0098898,1
21470,54.3,19.341,0,0.45233,0,21642,54.112,0,0,0,0,0.0098898,1
21470,54.3,19.341,0,0.45233,0,21642,54.112,0,0,0,0,0.0098898,1
21470,54.3,19.341,0,0.45233,0,21642,54.112,0,0,0,0,0.0098898,1
21470,54.3,19.341,0,0.45233,0,21642,54.112,0,0,0,0,0.0098898,1
21470,54.3,19.341,0,0.45233,0,21642,54.112,0,0,0,0,0.0098898,1
21470,54.3,19.341,0,0.45233,0,21642,54.112,0,0,0,0,0.0098898,1
21470,54.3,19.341,0,0.45233,0,21642,54.112,0,0,0,0,0.0098898,1
21470,54.3,19.341,0,0.45233,0,21642,54.112,0,0,0,0,0.0098898,1
21470,54.3,19.341,0,0.45233,0,21642,54.112,0,0,0,0,0.0098898,1
21470,54.3,19.341,0,0.45233,0,21642,54.112,0,0,0,0,0.0098898,1
21470,54.3,19.341,0,0.45233,0,21642,54.112,0,0,0,0,0.0098898,1
21470,54.3,19.341,0,0.45233,0,21642,54.112,0,0,0,0,0.0098898,1
21472,54.3,19.393,0,0.42221,0,21642,54.112,0,0,0,0,0.010025,1
21472,54.3,19.393,0,0.42221,0,21642,54.112,0,0,0,0,0.010025,1
21473,54.3,19.418,0,0.40792,0,21642,54.112,0,0,0,0,0.010094,1
21474,54.3,19.442,0,0.39411,0,21642,54.112,0,0,0,0,0.010164,1
21474,54.3,19.442,0,0.39411,0,21642,54.112,0,0,0,0,0.010164,1
21474,54.3,19.442,0,0.39411,0,21642,54.112,0,0,0,0,0.010164,1
21474,54.3,19.442,0,0.39411,0,21642,54.112,0,0,0,0,0.010164,1
21474,54.3,19.442,0,0.39411,0,21642,54.112,0,0,0,0,0.010164,1
21475,54.3,19.465,0,0.38077,0,21642,54.112,0,0,0,0,0.010235,1
21475,54.3,19.465,0,0.38077,0,21642,54.112,0,0,0,0,0.010235,1
21476,54.3,19.473,0,0.37642,0,21642,54.112,0,0,0,0,0.010259,1
21476,54.3,19.473,0,0.37642,0,21642,54.112,0,0,0,0,0.010259,1
21476,54.3,19.473,0,0.37642,0,21642,54.112,0,0,0,0,0.010259,1
21476,54.3,19.473,0,0.37642,0,21642,54.112,0,0,0,0,0.010259,1
21476,54.3,19.473,0,0.37642,0,21642,54.112,0,0,0,0,0.010259,1
21476,54.3,19.473,0,0.37642,0,21642,54.112,0,0,0,0,0.010259,1
21476,54.3,19.473,0,0.37642,0,21642,54.112,0,0,0,0,0.010259,1
21476,54.3,19.473,0,0.37642,0,21642,54.112,0,0,0,0,0.010259,1
21476,54.3,19.473,0,0.37642,0,21642,54.112,0,0,0,0,0.010259,1
21476,54.3,19.473,0,0.37642,0,21642,54.112,0,0,0,0,0.010259,1
21477,54.3,19.488,0,0.36788,0,21642,54.112,0,0,0,0,0.010308,1
21477,54.3,19.495,0,0.36369,0,21642,54.112,0,0,0,0,0.010332,1
21477,54.3,19.495,0,0.36369,0,21642,54.112,0,0,0,0,0.010332,1
21477,54.3,19.502,0,0.35954,0,21642,54.112,0,0,0,0,0.010357,1
21479,54.3,19.53,0,0.34342,0,21642,54.112,0,0,0,0,0.010456,1
21479,54.3,19.53,0,0.34342,0,21642,54.112,0,0,0,0,0.010456,1
21479,54.3,19.53,0,0.34342,0,21642,54.112,0,0,0,0,0.010456,1
21479,54.3,19.53,0,0.34342,0,21642,54.112,0,0,0,0,0.010456,1
21479,54.3,19.537,0,0.3395,0,21642,54.112,0,0,0,0,0.010481,1
21479,54.3,19.537,0,0.3395,0,21642,54.112,0,0,0,0,0.010481,1
21479,54.3,19.537,0,0.3395,0,21642,54.112,0,0,0,0,0.010481,1
21479,54.3,19.537,0,0.3395,0,21642,54.112,0,0,0,0,0.010481,1
21480,54.3,19.544,0,0.33563,0,21642,54.112,0,0,0,0,0.010506,1
21480,54.3,19.544,0,0.33563,0,21642,54.112,0,0,0,0,0.010506,1
21480,54.3,19.544,0,0.33563,0,21642,54.112,0,0,0,0,0.010506,1
21480,54.3,19.544,0,0.33563,0,21642,54.112,0,0,0,0,0.010506,1
21480,54.3,19.544,0,0.33563,0,21642,54.112,0,0,0,0,0.010506,1
21480,54.3,19.544,0,0.33563,0,21642,54.112,0,0,0,0,0.010506,1
21480,54.3,19.544,0,0.33563,0,21642,54.112,0,0,0,0,0.010506,1
21480,54.3,19.544,0,0.33563,0,21642,54.112,0,0,0,0,0.010506,1
21480,54.3,19.544,0,0.33563,0,21642,54.112,0,0,0,0,0.010506,1
21480,54.3,19.544,0,0.33563,0,21642,54.112,0,0,0,0,0.010506,1
21480,54.3,19.557,0,0.32802,0,21642,54.112,0,0,0,0,0.010557,1
21480,54.3,19.557,0,0.32802,0,21642,54.112,0,0,0,0,0.010557,1
21480,54.3,19.557,0,0.32802,0,21642,54.112,0,0,0,0,0.010557,1
21481,54.3,19.57,0,0.32059,0,21642,54.112,0,0,0,0,0.010608,1
21483,54.3,19.595,0,0.30623,0,21642,54.112,0,0,0,0,0.010713,1
21483,54.3,19.595,0,0.30623,0,21642,54.112,0,0,0,0,0.010713,1
21484,54.3,19.607,0,0.2993,0,21642,54.112,0,0,0,0,0.010766,1
21484,54.3,19.613,0,0.29589,0,21642,54.112,0,0,0,0,0.010793,1
21484,54.3,19.613,0,0.29589,0,21642,54.112,0,0,0,0,0.010793,1
21484,54.3,19.613,0,0.29589,0,21642,54.112,0,0,0,0,0.010793,1
21484,54.3,19.613,0,0.29589,0,21642,54.112,0,0,0,0,0.010793,1
21484,54.3,19.613,0,0.29589,0,21642,54.112,0,0,0,0,0.010793,1
21484,54.3,19.613,0,0.29589,0,21642,54.112,0,0,0,0,0.010793,1
21484,54.3,19.613,0,0.29589,0,21642,54.112,0,0,0,0,0.010793,1
21484,54.3,19.613,0,0.29589,0,21642,54.112,0,0,0,0,0.010793,1
21484,54.3,19.613,0,0.29589,0,21642,54.112,0,0,0,0,0.010793,1
21484,54.3,19.619,0,0.29252,0,21642,54.112,0,0,0,0,0.010819,1
21484,54.3,19.619,0,0.29252,0,21642,54.112,0,0,0,0,0.010819,1
21484,54.3,19.619,0,0.29252,0,21642,54.112,0,0,0,0,0.010819,1
21484,54.3,19.619,0,0.29252,0,21642,54.112,0,0,0,0,0.010819,1
21484,54.3,19.619,0,0.29252,0,21642,54.112,0,0,0,0,0.010819,1
21484,54.3,19.619,0,0.29252,0,21642,54.112,0,0,0,0,0.010819,1
21484,54.3,19.619,0,0.29252,0,21642,54.112,0,0,0,0,0.010819,1
21484,54.3,19.619,0,0.29252,0,21642,54.112,0,0,0,0,0.010819,1
21484,54.3,19.619,0,0.29252,0,21642,54.112,0,0,0,0,0.010819,1
21484,54.3,19.619,0,0.29252,0,21642,54.112,0,0,0,0,0.010819,1
21484,54.3,19.619,0,0.29252,0,21642,54.112,0,0,0,0,0.010819,1
21484,54.3,19.619,0,0.29252,0,21642,54.112,0,0,0,0,0.010819,1
21484,54.3,19.619,0,0.29252,0,21642,54.112,0,0,0,0,0.010819,1
21484,54.3,19.619,0,0.29252,0,21642,54.112,0,0,0,0,0.010819,1
21484,54.3,19.619,0,0.29252,0,21642,54.112,0,0,0,0,0.010819,1
21484,54.3,19.619,0,0.29252,0,21642,54.112,0,0,0,0,0.010819,1
21484,54.3,19.619,0,0.29252,0,21642,54.112,0,0,0,0,0.010819,1
21486,54.3,19.648,0,0.27626,0,21642,54.112,0,0,0,0,0.010956,1
21488,54.3,19.669,0,0.26391,0,21642,54.112,0,0,0,0,0.011068,1
21488,54.3,19.669,0,0.26391,0,21642,54.112,0,0,0,0,0.011068,1
21490,54.3,19.69,0,0.25212,0,21642,54.112,0,0,0,0,0.011182,1
21490,54.3,19.69,0,0.25212,0,21642,54.112,0,0,0,0,0.011182,1
21490,54.3,19.69,0,0.25212,0,21642,54.112,0,0,0,0,0.011182,1
21490,54.3,19.69,0,0.25212,0,21642,54.112,0,0,0,0,0.011182,1
21490,54.3,19.69,0,0.25212,0,21642,54.112,0,0,0,0,0.011182,1
21490,54.3,19.69,0,0.25212,0,21642,54.112,0,0,0,0,0.011182,1
21490,54.3,19.69,0,0.25212,0,21642,54.112,0,0,0,0,0.011182,1
21490,54.3,19.69,0,0.25212,0,21642,54.112,0,0,0,0,0.011182,1
21490,54.3,19.69,0,0.25212,0,21642,54.112,0,0,0,0,0.011182,1
21490,54.3,19.69,0,0.25212,0,21642,54.112,0,0,0,0,0.011182,1
21490,54.3,19.69,0,0.25212,0,21642,54.112,0,0,0,0,0.011182,1
21490,54.3,19.7,0,0.24643,0,21642,54.112,0,0,0,0,0.01124,1
21490,54.3,19.7,0,0.24643,0,21642,54.112,0,0,0,0,0.01124,1
21490,54.3,19.7,0,0.24643,0,21642,54.112,0,0,0,0,0.01124,1
21490,54.3,19.7,0,0.24643,0,21642,54.112,0,0,0,0,0.01124,1
21490,54.3,19.7,0,0.24643,0,21642,54.112,0,0,0,0,0.01124,1
21490,54.3,19.7,0,0.24643,0,21642,54.112,0,0,0,0,0.01124,1
21490,54.3,19.7,0,0.24643,0,21642,54.112,0,0,0,0,0.01124,1
21490,54.3,19.7,0,0.24643,0,21642,54.112,0,0,0,0,0.01124,1
21490,54.3,19.7,0,0.24643,0,21642,54.112,0,0,0,0,0.01124,1
21490,54.3,19.7,0,0.24643,0,21642,54.112,0,0,0,0,0.01124,1
21490,54.3,19.7,0,0.24643,0,21642,54.112,0,0,0,0,0.01124,1
21490,54.3,19.7,0,0.24643,0,21642,54.112,0,0,0,0,0.01124,1
21490,54.3,19.7,0,0.24643,0,21642,54.112,0,0,0,0,0.01124,1
21490,54.3,19.7,0,0.24643,0,21642,54.112,0,0,0,0,0.01124,1
21490,54.3,19.7,0,0.24643,0,21642,54.112,0,0,0,0,0.01124,1
21490,54.3,19.7,0,0.24643,0,21642,54.112,0,0,0,0,0.01124,1
21493,54.3,19.728,0,0.23012,0,21642,54.112,0,0,0,0,0.011418,1
21493,54.3,19.728,0,0.23012,0,21642,54.112,0,0,0,0,0.011418,1
21493,54.3,19.728,0,0.23012,0,21642,54.112,0,0,0,0,0.011418,1
21494,54.3,19.746,0,0.21986,0,21642,54.112,0,0,0,0,0.01154,1
21496,54.3,19.764,0,0.21007,0,21642,54.112,0,0,0,0,0.011665,1
21496,54.3,19.764,0,0.21007,0,21642,54.112,0,0,0,0,0.011665,1
21496,54.3,19.764,0,0.21007,0,21642,54.112,0,0,0,0,0.011665,1
21496,54.3,19.764,0,0.21007,0,21642,54.112,0,0,0,0,0.011665,1
21496,54.3,19.764,0,0.21007,0,21642,54.112,0,0,0,0,0.011665,1
21496,54.3,19.764,0,0.21007,0,21642,54.112,0,0,0,0,0.011665,1
21496,54.3,19.764,0,0.21007,0,21642,54.112,0,0,0,0,0.011665,1
21496,54.3,19.764,0,0.21007,0,21642,54.112,0,0,0,0,0.011665,1
21496,54.3,19.768,0,0.20769,0,21642,54.112,0,0,0,0,0.011697,1
21496,54.3,19.768,0,0.20769,0,21642,54.112,0,0,0,0,0.011697,1
21496,54.3,19.768,0,0.20769,0,21642,54.112,0,0,0,0,0.011697,1
21496,54.3,19.768,0,0.20769,0,21642,54.112,0,0,0,0,0.011697,1
21496,54.3,19.768,0,0.20769,0,21642,54.112,0,0,0,0,0.011697,1
21496,54.3,19.768,0,0.20769,0,21642,54.112,0,0,0,0,0.011697,1
21496,54.3,19.768,0,0.20769,0,21642,54.112,0,0,0,0,0.011697,1
21496,54.3,19.768,0,0.20769,0,21642,54.112,0,0,0,0,0.011697,1
21496,54.3,19.768,0,0.20769,0,21642,54.112,0,0,0,0,0.011697,1
21496,54.3,19.768,0,0.20769,0,21642,54.112,0,0,0,0,0.011697,1
21496,54.3,19.768,0,0.20769,0,21642,54.112,0,0,0,0,0.011697,1
21496,54.3,19.768,0,0.20769,0,21642,54.112,0,0,0,0,0.011697,1
21496,54.3,19.768,0,0.20769,0,21642,54.112,0,0,0,0,0.011697,1
21496,54.3,19.768,0,0.20769,0,21642,54.112,0,0,0,0,0.011697,1
21496,54.3,19.768,0,0.20769,0,21642,54.112,0,0,0,0,0.011697,1
21498,54.3,19.788,0,0.1962,0,21642,54.112,0,0,0,0,0.011858,1
21498,54.3,19.788,0,0.1962,0,21642,54.112,0,0,0,0,0.011858,1
21499,54.3,19.796,0,0.19179,0,21642,54.112,0,0,0,0,0.011923,1
21500,54.3,19.803,0,0.18748,0,21642,54.112,0,0,0,0,0.01199,1
21501,54.3,19.811,0,0.18326,0,21642,54.112,0,0,0,0,0.012057,1
21501,54.3,19.811,0,0.18326,0,21642,54.112,0,0,0,0,0.012057,1
21501,54.3,19.811,0,0.18326,0,21642,54.112,0,0,0,0,0.012057,1
21501,54.3,19.811,0,0.18326,0,21642,54.112,0,0,0,0,0.012057,1
21501,54.3,19.811,0,0.18326,0,21642,54.112,0,0,0,0,0.012057,1
21501,54.3,19.811,0,0.18326,0,21642,54.112,0,0,0,0,0.012057,1
21501,54.3,19.811,0,0.18326,0,21642,54.112,0,0,0,0,0.012057,1
21501,54.3,19.811,0,0.18326,0,21642,54.112,0,0,0,0,0.012057,1
21501,54.3,19.811,0,0.18326,0,21642,54.112,0,0,0,0,0.012057,1
21501,54.3,19.811,0,0.18326,0,21642,54.112,0,0,0,0,0.012057,1
21501,54.3,19.811,0,0.18326,0,21642,54.112,0,0,0,0,0.012057,1
21501,54.3,19.811,0,0.18326,0,21642,54.112,0,0,0,0,0.012057,1
21501,54.3,19.811,0,0.18326,0,21642,54.112,0,0,0,0,0.012057,1
21501,54.3,19.811,0,0.18326,0,21642,54.112,0,0,0,0,0.012057,1
21501,54.3,19.811,0,0.18326,0,21642,54.112,0,0,0,0,0.012057,1
21501,54.3,19.811,0,0.18326,0,21642,54.112,0,0,0,0,0.012057,1
21501,54.3,19.811,0,0.18326,0,21642,54.112,0,0,0,0,0.012057,1
21501,54.3,19.811,0,0.18326,0,21642,54.112,0,0,0,0,0.012057,1
21501,54.3,19.811,0,0.18326,0,21642,54.112,0,0,0,0,0.012057,1
21501,54.3,19.811,0,0.18326,0,21642,54.112,0,0,0,0,0.012057,1
21501,54.3,19.811,0,0.18326,0,21642,54.112,0,0,0,0,0.012057,1
21501,54.3,19.811,0,0.18326,0,21642,54.112,0,0,0,0,0.012057,1
21501,54.3,19.811,0,0.18326,0,21642,54.112,0,0,0,0,0.012057,1
21503,54.3,19.832,0,0.17119,0,21642,54.112,0,0,0,0,0.012263,1
21503,54.3,19.832,0,0.17119,0,21642,54.112,0,0,0,0,0.012263,1
21504,54.3,19.842,0,0.16546,0,21642,54.112,0,0,0,0,0.012369,1
21505,54.3,19.849,0,0.16175,0,21642,54.112,0,0,0,0,0.012441,1
21506,54.3,19.858,0,0.15634,0,21642,54.112,0,0,0,0,0.01255,1
21506,54.3,19.858,0,0.15634,0,21642,54.112,0,0,0,0,0.01255,1
21506,54.3,19.858,0,0.15634,0,21642,54.112,0,0,0,0,0.01255,1
21506,54.3,19.858,0,0.15634,0,21642,54.112,0,0,0,0,0.01255,1
21506,54.3,19.858,0,0.15634,0,21642,54.112,0,0,0,0,0.01255,1
21506,54.3,19.858,0,0.15634,0,21642,54.112,0,0,0,0,0.01255,1
21506,54.3,19.858,0,0.15634,0,21642,54.112,0,0,0,0,0.01255,1
21506,54.3,19.858,0,0.15634,0,21642,54.112,0,0,0,0,0.01255,1
21506,54.3,19.858,0,0.15634,0,21642,54.112,0,0,0,0,0.01255,1
21506,54.3,19.858,0,0.15634,0,21642,54.112,0,0,0,0,0.01255,1
21506,54.3,19.858,0,0.15634,0,21642,54.112,0,0,0,0,0.01255,1
21507,54.3,19.867,0,0.15111,0,21642,54.112,0,0,0,0,0.012661,1
21507,54.3,19.867,0,0.15111,0,21642,54.112,0,0,0,0,0.012661,1
21507,54.3,19.867,0,0.15111,0,21642,54.112,0,0,0,0,0.012661,1
21507,54.3,19.867,0,0.15111,0,21642,54.112,0,0,0,0,0.012661,1
21507,54.3,19.867,0,0.15111,0,21642,54.112,0,0,0,0,0.012661,1
21507,54.3,19.867,0,0.15111,0,21642,54.112,0,0,0,0,0.012661,1
21507,54.3,19.867,0,0.15111,0,21642,54.112,0,0,0,0,0.012661,1
21507,54.3,19.867,0,0.15111,0,21642,54.112,0,0,0,0,0.012661,1
21507,54.3,19.867,0,0.15111,0,21642,54.112,0,0,0,0,0.012661,1
21507,54.3,19.867,0,0.15111,0,21642,54.112,0,0,0,0,0.012661,1
21508,54.3,19.87,0,0.14941,0,21642,54.112,0,0,0,0,0.012698,1
21508,54.3,19.87,0,0.14941,0,21642,54.112,0,0,0,0,0.012698,1
21508,54.3,19.87,0,0.14941,0,21642,54.112,0,0,0,0,0.012698,1
21509,54.3,19.879,0,0.14442,0,21642,54.112,0,0,0,0,0.012812,1
21509,54.3,19.879,0,0.14442,0,21642,54.112,0,0,0,0,0.012812,1
21511,54.3,19.893,0,0.13646,0,21642,54.112,0,0,0,0,0.013006,1
21511,54.3,19.893,0,0.13646,0,21642,54.112,0,0,0,0,0.013006,1
21512,54.3,19.899,0,0.13341,0,21642,54.112,0,0,0,0,0.013086,1
21512,54.3,19.899,0,0.13341,0,21642,54.112,0,0,0,0,0.013086,1
21512,54.3,19.899,0,0.13341,0,21642,54.112,0,0,0,0,0.013086,1
21512,54.3,19.899,0,0.13341,0,21642,54.112,0,0,0,0,0.013086,1
21512,54.3,19.899,0,0.13341,0,21642,54.112,0,0,0,0,0.013086,1
21512,54.3,19.899,0,0.13341,0,21642,54.112,0,0,0,0,0.013086,1
21512,54.3,19.899,0,0.13341,0,21642,54.112,0,0,0,0,0.013086,1
21512,54.3,19.899,0,0.13341,0,21642,54.112,0,0,0,0,0.013086,1
21512,54.3,19.899,0,0.13341,0,21642,54.112,0,0,0,0,0.013086,1
21512,54.3,19.899,0,0.13341,0,21642,54.112,0,0,0,0,0.013086,1
21512,54.3,19.899,0,0.13341,0,21642,54.112,0,0,0,0,0.013086,1
21512,54.3,19.899,0,0.13341,0,21642,54.112,0,0,0,0,0.013086,1
21512,54.3,19.899,0,0.13341,0,21642,54.112,0,0,0,0,0.013086,1
21512,54.3,19.899,0,0.13341,0,21642,54.112,0,0,0,0,0.013086,1
21512,54.3,19.899,0,0.13341,0,21642,54.112,0,0,0,0,0.013086,1
21512,54.3,19.899,0,0.13341,0,21642,54.112,0,0,0,0,0.013086,1
21512,54.3,19.899,0,0.13341,0,21642,54.112,0,0,0,0,0.013086,1
21512,54.3,19.899,0,0.13341,0,21642,54.112,0,0,0,0,0.013086,1
21514,54.3,19.917,0,0.12324,0,21642,54.112,0,0,0,0,0.013372,1
21514,54.3,19.917,0,0.12324,0,21642,54.112,0,0,0,0,0.013372,1
21514,54.3,19.917,0,0.12324,0,21642,54.112,0,0,0,0,0.013372,1
21514,54.3,19.917,0,0.12324,0,21642,54.112,0,0,0,0,0.013372,1
21515,54.3,19.919,0,0.12186,0,21642,54.112,0,0,0,0,0.013414,1
21515,54.3,19.919,0,0.12186,0,21642,54.112,0,0,0,0,0.013414,1
21515,54.3,19.919,0,0.12186,0,21642,54.112,0.24,2.2858e-05,8,0.0013475,0.013575,1
21515,54.3,19.919,0,0.12186,0,21642,54.112,0.24,2.2858e-05,8,0.0013475,0.013575,1
21515,54.3,19.919,0,0.12186,0,21642,54.112,0.4,0.00012486,8,0.0054347,0.013684,1
21515,54.3,19.919,0,0.12186,0,21642,54.112,0.4,0.00012486,8,0.0054347,0.013684,1
21515,54.3,19.919,0,0.12186,0,21642,54.112,0.4,0.00012486,8,0.0054347,0.013684,1
21515,54.3,19.919,0,0.12186,0,21642,54.112,0.4,0.00012486,8,0.0054347,0.013684,1
21515,54.3,19.919,0,0.12186,0,21642,54.112,0.4,0.00012486,8,0.0054347,0.013684,1
21515,54.3,19.919,0,0.12186,0,21642,54.112,0.4,0.00012486,8,0.0054347,0.013684,1
21517,54.3,19.931,0,0.11518,0,21642,54.112,0.4,0.00012486,8,0.0054347,0.013901,1
21517,54.3,19.931,0,0.11518,0,21642,54.112,0.4,0.00012486,8,0.0054347,0.013901,1
21517,54.3,19.931,0,0.11518,0,21642,54.112,0.72,0.0006933,8,0.018442,0.014123,1
21518,54.3,19.935,0,0.11264,0,21642,54.112,0.72,0.0006933,8,0.018442,0.014214,1
21518,54.3,19.938,0,0.11138,0,21642,54.112,0.72,0.0006933,8,0.018442,0.014259,1
21518,54.3,19.938,0,0.11138,0,21642,54.112,0.72,0.0006933,8,0.018442,0.014259,1
21519,54.3,19.944,0,0.10767,0,21642,54.112,0.72,0.0006933,8,0.018442,0.014398,1
21519,54.3,19.944,0,0.10767,0,21642,54.112,0.72,0.0006933,8,0.018442,0.014398,1
21519,54.3,19.944,0,0.10767,0,21642,54.112,0.72,0.0006933,8,0.018442,0.014398,1
21519,54.3,19.944,0,0.10767,0,21642,54.112,1.68,0.0074489,7.9997,0.090368,0.015089,1
21519,54.3,19.944,0,0.10767,0,21642,54.112,1.68,0.0074489,7.9997,0.090368,0.015089,1
21519,54.3,19.944,0,0.10767,0,21642,54.112,1.68,0.0074489,7.9997,0.090368,0.015089,1
21519,54.3,19.944,0,0.10767,0,21642,54.112,1.68,0.0074489,7.9997,0.090368,0.015089,1
21519,54.3,19.944,0,0.10767,0,21642,54.112,1.68,0.0074489,7.9997,0.090368,0.015089,1
21519,54.3,19.944,0,0.10767,0,21642,54.112,1.68,0.0074489,7.9997,0.090368,0.015089,1
21519,54.3,19.944,0,0.10767,0,21642,54.112,1.84,0.009519,7.9996,0.10503,0.015206,1
21519,54.3,19.944,0,0.10767,0,21642,54.112,1.84,0.009519,7.9996,0.10503,0.015206,1
21519,54.3,19.944,0,0.10767,0,21642,54.112,1.84,0.009519,7.9996,0.10503,0.015206,1
21519,54.3,19.944,0,0.10767,0,21642,54.112,1.84,0.009519,7.9996,0.10503,0.015206,1
21520,54.3,19.951,0,0.10409,0,21642,54.112,1.84,0.009519,7.9996,0.10503,0.015355,1
21521,54.3,19.953,0,0.10292,0,21642,54.112,1.84,0.009519,7.9996,0.10503,0.015406,1
21521,54.3,19.953,0,0.10292,0,21642,54.112,1.84,0.009519,7.9996,0.10503,0.015406,1
21521,54.3,19.955,0,0.10176,0,21642,54.112,1.84,0.009519,7.9996,0.10503,0.015456,1
21522,54.3,19.961,0,0.098376,0,21642,54.114,2.6399,0.024131,7.9988,0.17542,0.016218,1
21523,54.3,19.965,0,0.09618,0,21643,54.115,2.9598,0.031725,7.9984,0.19799,0.016574,1
21523,54.3,19.965,0,0.09618,0,21643,54.115,2.9598,0.031725,7.9984,0.19799,0.016574,1
21524,54.3,19.967,0,0.095099,0,21643,54.115,2.9598,0.031725,7.9984,0.19799,0.01663,1
21524,54.3,19.967,0,0.095099,0,21643,54.115,2.9598,0.031725,7.9984,0.19799,0.01663,1
21524,54.3,19.967,0,0.095099,0,21643,54.115,2.9598,0.031725,7.9984,0.19799,0.01663,1
21524,54.3,19.967,0,0.095099,0,21643,54.115,2.9598,0.031725,7.9984,0.19799,0.01663,1
21524,54.3,19.967,0,0.095099,0,21643,54.115,2.9598,0.031725,7.9984,0.19799,0.01663,1
21524,54.3,19.967,0,0.095099,0,21643,54.115,2.9598,0.031725,7.9984,0.19799,0.01663,1
21524,54.3,19.967,0,0.095099,0,21643,54.115,2.9598,0.031725,7.9984,0.19799,0.01663,1
21524,54.3,19.967,0,0.095099,0,21643,54.115,2.9598,0.031725,7.9984,0.19799,0.01663,1
21524,54.3,19.967,0,0.095099,0,21643,54.115,2.9598,0.031725,7.9984,0.19799,0.01663,1
21524,54.3,19.967,0,0.095099,0,21643,54.117,3.4397,0.044405,7.9979,0.22136,0.017006,1
21524,54.3,19.967,0,0.095099,0,21643,54.117,3.4397,0.044405,7.9979,0.22136,0.017006,1
21524,54.3,19.967,0,0.095099,0,21643,54.117,3.4397,0.044405,7.9979,0.22136,0.017006,1
21524,54.3,19.967,0,0.095099,0,21643,54.117,3.4397,0.044405,7.9979,0.22136,0.017006,1
21524,54.3,19.967,0,0.095099,0,21643,54.117,3.4397,0.044405,7.9979,0.22136,0.017006,1
21524,54.3,19.967,0,0.095099,0,21643,54.117,3.4397,0.044405,7.9979,0.22136,0.017006,1
21524,54.3,19.967,0,0.095099,0,21643,54.117,3.4397,0.044405,7.9979,0.22136,0.017006,1
21524,54.3,19.967,0,0.095099,0,21643,54.117,3.4397,0.044405,7.9979,0.22136,0.017006,1
21524,54.3,19.967,0,0.095099,0,21643,54.117,3.4397,0.044405,7.9979,0.22136,0.017006,1
21524,54.3,19.97,0,0.092975,0,21643,54.117,3.4397,0.044405,7.9979,0.22136,0.017121,1
21524,54.3,19.97,0,0.092975,0,21643,54.117,3.4397,0.044405,7.9979,0.22136,0.017121,1
21524,54.3,19.97,0,0.092975,0,21643,54.117,3.4397,0.044405,7.9979,0.22136,0.017121,1
21524,54.3,19.97,0,0.092975,0,21643,54.117,3.4397,0.044405,7.9979,0.22136,0.017121,1
21524,54.3,19.97,0,0.092975,0,21643,54.117,3.4397,0.044405,7.9979,0.22136,0.017121,1
21524,54.3,19.97,0,0.092975,0,21643,54.117,3.4397,0.044405,7.9979,0.22136,0.017121,1
21524,54.3,19.97,0,0.092975,0,21643,54.117,3.4397,0.044405,7.9979,0.22136,0.017121,1
21524,54.3,19.97,0,0.092975,0,21643,54.117,3.4397,0.044405,7.9979,0.22136,0.017121,1
21526,54.3,19.978,0,0.088865,0,21643,54.12,3.9196,0.057862,7.9975,0.22964,0.017744,1
21526,54.3,19.979,0,0.087866,0,21643,54.12,3.9196,0.057862,7.9975,0.22964,0.017804,1
21526,54.3,19.979,0,0.087866,0,21643,54.12,3.9196,0.057862,7.9975,0.22964,0.017804,1
21526,54.3,19.979,0,0.087866,0,21644,54.131,5.0392,0.087081,7.9979,0.18897,0.018729,1
21526,54.3,19.979,0,0.087866,0,21644,54.134,5.3592,0.09376,7.9983,0.16452,0.018997,1
21530,54.3,19.993,0,0.080256,0,21644,54.134,5.3592,0.09376,7.9983,0.16452,0.01953,1
21530,54.3,19.993,0,0.080256,0,21644,54.134,5.3592,0.09376,7.9983,0.16452,0.01953,1
21530,54.3,19.993,0,0.080256,0,21644,54.134,5.3592,0.09376,7.9983,0.16452,0.01953,1
21530,54.3,19.993,0,0.080256,0,21644,54.134,5.3592,0.09376,7.9983,0.16452,0.01953,1
21530,54.3,19.993,0,0.080256,0,21644,54.134,5.3592,0.09376,7.9983,0.16452,0.01953,1
21530,54.3,19.993,0,0.080256,0,21644,54.134,5.3592,0.09376,7.9983,0.16452,0.01953,1
21530,54.3,19.993,0,0.080256,0,21644,54.134,5.3592,0.09376,7.9983,0.16452,0.01953,1
21530,54.3,19.993,0,0.080256,0,21644,54.134,5.3592,0.09376,7.9983,0.16452,0.01953,1
21530,54.3,19.993,0,0.080256,0,21644,54.134,5.3592,0.09376,7.9983,0.16452,0.01953,1
21530,54.3,19.993,0,0.080256,0,21644,54.14,5.8391,0.1017,7.9991,0.1209,0.019945,1
21530,54.3,19.993,0,0.080256,0,21644,54.14,5.8391,0.1017,7.9991,0.1209,0.019945,1
21530,54.3,19.993,0,0.080256,0,21644,54.14,5.8391,0.1017,7.9991,0.1209,0.019945,1
21530,54.3,19.993,0,0.080256,0,21644,54.14,5.8391,0.1017,7.9991,0.1209,0.019945,1
21530,54.3,19.993,0,0.080256,0,21644,54.14,5.8391,0.1017,7.9991,0.1209,0.019945,1
21530,54.3,19.993,0,0.080256,0,21644,54.14,5.8391,0.1017,7.9991,0.1209,0.019945,1
21530,54.3,19.996,0,0.078457,0,21644,54.14,5.8391,0.1017,7.9991,0.1209,0.020086,1
21530,54.3,19.996,0,0.078457,0,21644,54.14,5.8391,0.1017,7.9991,0.1209,0.020086,1
21530,54.3,19.996,0,0.078457,0,21644,54.14,5.8391,0.1017,7.9991,0.1209,0.020086,1
21530,54.3,19.996,0,0.078457,0,21644,54.14,5.8391,0.1017,7.9991,0.1209,0.020086,1
21530,54.3,19.996,0,0.078457,0,21644,54.14,5.8391,0.1017,7.9991,0.1209,0.020086,1
21530,54.3,19.996,0,0.078457,0,21644,54.14,5.8391,0.1017,7.9991,0.1209,0.020086,1
21530,54.3,19.996,0,0.078457,0,21644,54.14,5.8391,0.1017,7.9991,0.1209,0.020086,1
21531,54.3,19.998,0,0.077572,0,21644,54.14,5.8391,0.1017,7.9991,0.1209,0.020156,1
21531,54.3,19.998,0,0.077572,0,21644,54.14,5.8391,0.1017,7.9991,0.1209,0.020156,1
21532,54.3,20.004,0,0.074128,0,21645,54.151,6.6391,0.10867,8.0004,0.03942,0.021162,1
21532,54.3,20.004,0,0.074128,0,21645,54.159,7.2792,0.10849,8.0013,-0.024042,0.021742,1
21532,54.3,20.004,0,0.074128,0,21645,54.159,7.2792,0.10849,8.0013,-0.024042,0.021742,1
21535,54.3,20.012,0,0.069234,0,21645,54.162,7.4392,0.1077,8.0014,-0.038746,0.022363,1
21535,54.3,20.012,0,0.069234,0,21646,54.168,7.9193,0.10374,8.0018,-0.078782,0.022812,1
21535,54.3,20.012,0,0.069234,0,21646,54.168,7.9193,0.10374,8.0018,-0.078782,0.022812,1
21535,54.3,20.012,0,0.069234,0,21646,54.168,7.9193,0.10374,8.0018,-0.078782,0.022812,1
21535,54.3,20.012,0,0.069234,0,21646,54.168,7.9193,0.10374,8.0018,-0.078782,0.022812,1
21535,54.3,20.012,0,0.069234,0,21646,54.168,7.9193,0.10374,8.0018,-0.078782,0.022812,1
21536,54.3,20.015,0,0.067673,0,21646,54.168,7.9193,0.10374,8.0018,-0.078782,0.022977,1
21536,54.3,20.015,0,0.067673,0,21646,54.168,7.9193,0.10374,8.0018,-0.078782,0.022977,1
21536,54.3,20.016,0,0.066905,0,21646,54.168,7.9193,0.10374,8.0018,-0.078782,0.023061,1
21536,54.3,20.016,0,0.066905,0,21646,54.168,7.9193,0.10374,8.0018,-0.078782,0.023061,1
21536,54.3,20.016,0,0.066905,0,21646,54.168,7.9193,0.10374,8.0018,-0.078782,0.023061,1
21536,54.3,20.016,0,0.066905,0,21646,54.168,7.9193,0.10374,8.0018,-0.078782,0.023061,1
21536,54.3,20.016,0,0.066905,0,21646,54.168,7.9193,0.10374,8.0018,-0.078782,0.023061,1
21536,54.3,20.016,0,0.066905,0,21646,54.168,7.9193,0.10374,8.0018,-0.078782,0.023061,1
21536,54.3,20.016,0,0.066905,0,21646,54.168,7.9193,0.10374,8.0018,-0.078782,0.023061,1
21536,54.3,20.016,0,0.066905,0,21646,54.168,7.9193,0.10374,8.0018,-0.078782,0.023061,1
21536,54.3,20.016,0,0.066905,0,21646,54.168,7.9193,0.10374,8.0018,-0.078782,0.023061,1
21536,54.3,20.016,0,0.066905,0,21646,54.174,8.3994,0.097581,8.0019,-0.11543,0.023517,1
21536,54.3,20.016,0,0.066905,0,21646,54.174,8.3994,0.097581,8.0019,-0.11543,0.023517,1
21537,54.3,20.02,0,0.064649,0,21647,54.176,8.5595,0.095092,8.0019,-0.12544,0.023929,1
21537,54.3,20.02,0,0.064649,0,21647,54.179,8.8795,0.089682,8.0019,-0.14022,0.024238,1
21539,54.3,20.026,0,0.061049,0,21647,54.181,9.0396,0.086817,8.0018,-0.14543,0.024846,1
21539,54.3,20.026,0,0.061049,0,21648,54.187,9.6797,0.074807,8.0015,-0.15535,0.025477,1
21539,54.3,20.026,0,0.061049,0,21648,54.187,9.6797,0.074807,8.0015,-0.15535,0.025477,1
21539,54.3,20.026,0,0.061049,0,21648,54.187,9.6797,0.074807,8.0015,-0.15535,0.025477,1
21539,54.3,20.026,0,0.061049,0,21648,54.187,9.6797,0.074807,8.0015,-0.15535,0.025477,1
21539,54.3,20.026,0,0.061049,0,21648,54.187,9.6797,0.074807,8.0015,-0.15535,0.025477,1
21539,54.3,20.026,0,0.061049,0,21648,54.187,9.6797,0.074807,8.0015,-0.15535,0.025477,1
21539,54.3,20.026,0,0.061049,0,21648,54.187,9.6797,0.074807,8.0015,-0.15535,0.025477,1
21539,54.3,20.026,0,0.061049,0,21648,54.187,9.6797,0.074807,8.0015,-0.15535,0.025477,1
21539,54.3,20.026,0,0.061049,0,21648,54.189,9.8397,0.071754,8.0014,-0.15569,0.025636,1
21539,54.3,20.026,0,0.061049,0,21648,54.189,9.8397,0.071754,8.0014,-0.15569,0.025636,1
21539,54.3,20.026,0,0.061049,0,21648,54.189,9.8397,0.071754,8.0014,-0.15569,0.025636,1
21539,54.3,20.026,0,0.061049,0,21648,54.189,9.8397,0.071754,8.0014,-0.15569,0.025636,1
21539,54.3,20.026,0,0.061049,0,21648,54.189,9.8397,0.071754,8.0014,-0.15569,0.025636,1
21539,54.3,20.026,0,0.061049,0,21648,54.189,9.8397,0.071754,8.0014,-0.15569,0.025636,1
21539,54.3,20.026,0,0.061049,0,21648,54.189,9.8397,0.071754,8.0014,-0.15569,0.025636,1
21539,54.3,20.026,0,0.061049,0,21648,54.189,9.8397,0.071754,8.0014,-0.15569,0.025636,1
21539,54.3,20.026,0,0.061049,0,21648,54.189,9.8397,0.071754,8.0014,-0.15569,0.025636,1
21540,54.3,20.03,0,0.05898,0,21648,54.189,9.8397,0.071754,8.0014,-0.15569,0.025922,1
21540,54.3,20.03,0,0.05898,0,21648,54.189,9.8397,0.071754,8.0014,-0.15569,0.025922,1
21540,54.3,20.03,0,0.05898,0,21648,54.189,9.8397,0.071754,8.0014,-0.15569,0.025922,1
21540,54.3,20.03,0,0.05898,0,21648,54.189,9.8397,0.071754,8.0014,-0.15569,0.025922,1
21540,54.3,20.03,0,0.05898,0,21648,54.189,9.8397,0.071754,8.0014,-0.15569,0.025922,1
21540,54.3,20.03,0,0.05898,0,21648,54.189,9.8397,0.071754,8.0014,-0.15569,0.025922,1
21540,54.3,20.03,0,0.05898,0,21648,54.189,9.8397,0.071754,8.0014,-0.15569,0.025922,1
21542,54.3,20.035,0,0.056322,0,21648,54.192,10.16,0.065684,8.0012,-0.15444,0.026638,1
21542,54.3,20.036,0,0.055675,0,21648,54.192,10.16,0.065684,8.0012,-0.15444,0.026739,1
21544,54.3,20.04,0,0.053155,0,21650,54.199,11.28,0.04576,8.0006,-0.13636,0.028307,1
21544,54.3,20.04,0,0.053155,0,21650,54.199,11.28,0.04576,8.0006,-0.13636,0.028307,1
21544,54.3,20.04,0,0.053155,0,21651,54.202,11.92,0.035845,8.0004,-0.12086,0.028973,1
21544,54.3,20.04,0,0.053155,0,21651,54.202,11.92,0.035845,8.0004,-0.12086,0.028973,1
21544,54.3,20.04,0,0.053155,0,21651,54.202,11.92,0.035845,8.0004,-0.12086,0.028973,1
21544,54.3,20.04,0,0.053155,0,21651,54.202,11.92,0.035845,8.0004,-0.12086,0.028973,1
21544,54.3,20.04,0,0.053155,0,21651,54.202,11.92,0.035845,8.0004,-0.12086,0.028973,1
21544,54.3,20.04,0,0.053155,0,21651,54.202,11.92,0.035845,8.0004,-0.12086,0.028973,1
21544,54.3,20.04,0,0.053155,0,21651,54.202,11.92,0.035845,8.0004,-0.12086,0.028973,1
21544,54.3,20.04,0,0.053155,0,21651,54.202,11.92,0.035845,8.0004,-0.12086,0.028973,1
21544,54.3,20.04,0,0.053155,0,21651,54.202,11.92,0.035845,8.0004,-0.12086,0.028973,1
21546,54.3,20.044,0,0.050738,0,21651,54.202,11.92,0.035845,8.0004,-0.12086,0.029415,1
21546,54.3,20.044,0,0.050738,0,21651,54.202,11.92,0.035845,8.0004,-0.12086,0.029415,1
21546,54.3,20.044,0,0.050738,0,21651,54.202,11.92,0.035845,8.0004,-0.12086,0.029415,1
21546,54.3,20.044,0,0.050738,0,21651,54.202,11.92,0.035845,8.0004,-0.12086,0.029415,1
21546,54.3,20.044,0,0.050738,0,21651,54.202,11.92,0.035845,8.0004,-0.12086,0.029415,1
21546,54.3,20.044,0,0.050738,0,21651,54.202,11.92,0.035845,8.0004,-0.12086,0.029415,1
21546,54.3,20.044,0,0.050738,0,21651,54.202,11.92,0.035845,8.0004,-0.12086,0.029415,1
21546,54.3,20.044,0,0.050738,0,21651,54.202,11.92,0.035845,8.0004,-0.12086,0.029415,1
21546,54.3,20.044,0,0.050738,0,21651,54.202,11.92,0.035845,8.0004,-0.12086,0.029415,1
21546,54.3,20.044,0,0.050738,0,21651,54.202,11.92,0.035845,8.0004,-0.12086,0.029415,1
21546,54.3,20.044,0,0.050738,0,21651,54.204,12.24,0.031366,8.0003,-0.11256,0.029753,1
21546,54.3,20.044,0,0.050738,0,21651,54.204,12.24,0.031366,8.0003,-0.11256,0.029753,1
21546,54.3,20.044,0,0.050738,0,21651,54.204,12.24,0.031366,8.0003,-0.11256,0.029753,1
21547,54.3,20.048,0,0.04842,0,21652,54.204,12.4,0.02925,8.0003,-0.10835,0.030382,1
21548,54.3,20.051,0,0.046743,0,21652,54.206,12.88,0.023398,8.0002,-0.095722,0.031253,1
21548,54.3,20.051,0,0.046743,0,21654,54.208,13.68,0.015257,8.0001,-0.075499,0.032118,1
21550,54.3,20.055,0,0.044587,0,21654,54.208,13.68,0.015257,8.0001,-0.075499,0.032616,1
21550,54.3,20.055,0,0.044587,0,21654,54.208,13.889,0.012431,7.154e-05,-0.075364,0.032783,1
21550,54.3,20.055,0,0.044587,0,21654,54.208,13.889,0.012431,7.154e-05,-0.075364,0.032783,1
21550,54.3,20.055,0,0.044587,0,21654,54.208,13.889,0.012431,7.154e-05,-0.075364,0.032783,1
21550,54.3,20.055,0,0.044587,0,21654,54.208,13.889,0.012431,7.154e-05,-0.075364,0.032783,1
21550,54.3,20.055,0,0.044587,0,21654,54.208,13.889,0.012431,7.154e-05,-0.075364,0.032783,1
21550,54.3,20.055,0,0.044587,0,21654,54.208,13.889,0.012431,7.154e-05,-0.075364,0.032783,1
21550,54.3,20.055,0,0.044587,0,21654,54.208,13.889,0.012431,7.154e-05,-0.075364,0.032783,1
21550,54.3,20.055,0,0.044587,0,21654,54.208,13.889,0.012431,7.154e-05,-0.075364,0.032783,1
21550,54.3,20.055,0,0.044587,0,21654,54.208,13.889,0.012431,7.154e-05,-0.075364,0.032783,1
21551,54.3,20.057,0,0.043542,0,21654,54.208,13.889,0.012431,7.154e-05,-0.075364,0.033038,1
21551,54.3,20.057,0,0.043542,0,21654,54.208,13.889,0.012431,7.154e-05,-0.075364,0.033038,1
21551,54.3,20.057,0,0.043542,0,21654,54.208,13.889,0.012431,7.154e-05,-0.075364,0.033038,1
21551,54.3,20.057,0,0.043542,0,21654,54.208,13.889,0.012431,7.154e-05,-0.075364,0.033038,1
21551,54.3,20.057,0,0.043542,0,21654,54.208,13.889,0.012431,7.154e-05,-0.075364,0.033038,1
21551,54.3,20.057,0,0.043542,0,21654,54.208,13.889,0.012431,7.154e-05,-0.075364,0.033038,1
21551,54.3,20.057,0,0.043542,0,21654,54.208,13.889,0.012431,7.154e-05,-0.075364,0.033038,1
21551,54.3,20.057,0,0.043542,0,21654,54.208,13.889,0.012431,7.154e-05,-0.075364,0.033038,1
21551,54.3,20.057,0,0.043542,0,21654,54.208,13.889,0.012431,7.154e-05,-0.075364,0.033038,1
21551,54.3,20.057,0,0.043542,0,21654,54.208,13.889,0.012431,7.154e-05,-0.075364,0.033038,1
21551,54.3,20.057,0,0.043542,0,21655,54.209,13.889,0.0097598,4.9303e-05,-0.065734,0.032861,1
21551,54.3,20.057,0,0.043542,0,21655,54.209,13.889,0.0097598,4.9303e-05,-0.065734,0.032861,1
21551,54.3,20.057,0,0.043542,0,21655,54.209,13.889,0.0097598,4.9303e-05,-0.065734,0.032861,1
21551,54.3,20.057,0,0.043542,0,21655,54.209,13.889,0.0097598,4.9303e-05,-0.065734,0.032861,1
21551,54.3,20.057,0,0.043542,0,21655,54.209,13.889,0.0097598,4.9303e-05,-0.065734,0.032861,1
21551,54.3,20.057,0,0.043542,0,21655,54.209,13.889,0.0097598,4.9303e-05,-0.065734,0.032861,1
21551,54.3,20.057,0,0.043542,0,21655,54.209,13.889,0.0097598,4.9303e-05,-0.065734,0.032861,1
21553,54.3,20.061,0,0.041021,0,21655,54.209,13.889,0.0085551,4.0498e-05,-0.061348,0.033417,1
21554,54.3,20.064,0,0.039094,0,21656,54.209,13.889,0.0045288,1.6393e-05,-0.04567,0.033579,1
21554,54.3,20.064,0,0.039094,0,21657,54.21,13.889,0.0015998,4.5556e-06,-0.032818,0.033216,1
21556,54.3,20.067,0,0.037243,0,21657,54.21,13.889,0.0015998,4.5556e-06,-0.032818,0.033743,1
21556,54.3,20.067,0,0.037243,0,21658,54.21,13.889,-0.00044359,-3.541e-07,-0.022522,0.033377,1
21556,54.3,20.067,0,0.037243,0,21658,54.21,13.889,-0.00044359,-3.541e-07,-0.022522,0.033377,1
21556,54.3,20.067,0,0.037243,0,21658,54.21,13.889,-0.00044359,-3.541e-07,-0.022522,0.033377,1
21556,54.3,20.067,0,0.037243,0,21658,54.21,13.889,-0.00044359,-3.541e-07,-0.022522,0.033377,1
21556,54.3,20.067,0,0.037243,0,21658,54.21,13.889,-0.00044359,-3.541e-07,-0.022522,0.033377,1
21556,54.3,20.067,0,0.037243,0,21658,54.21,13.889,-0.00044359,-3.541e-07,-0.022522,0.033377,1
21556,54.3,20.067,0,0.037243,0,21658,54.21,13.889,-0.00044359,-3.541e-07,-0.022522,0.033377,1
21556,54.3,20.067,0,0.037243,0,21658,54.21,13.889,-0.00044359,-3.541e-07,-0.022522,0.033377,1
21556,54.3,20.067,0,0.037243,0,21658,54.21,13.889,-0.00044359,-3.541e-07,-0.022522,0.033377,1
21557,54.3,20.069,0,0.036345,0,21658,54.21,13.889,-0.00044359,-3.541e-07,-0.022522,0.033641,1
21557,54.3,20.069,0,0.036345,0,21658,54.21,13.889,-0.00044359,-3.541e-07,-0.022522,0.033641,1
21557,54.3,20.069,0,0.036345,0,21658,54.21,13.889,-0.00044359,-3.541e-07,-0.022522,0.033641,1
21557,54.3,20.069,0,0.036345,0,21658,54.21,13.889,-0.00044359,-3.541e-07,-0.022522,0.033641,1
21557,54.3,20.069,0,0.036345,0,21658,54.21,13.889,-0.00044359,-3.541e-07,-0.022522,0.033641,1
21557,54.3,20.069,0,0.036345,0,21658,54.21,13.889,-0.00044359,-3.541e-07,-0.022522,0.033641,1
21557,54.3,20.069,0,0.036345,0,21658,54.21,13.889,-0.00044359,-3.541e-07,-0.022522,0.033641,1
21557,54.3,20.069,0,0.036345,0,21658,54.21,13.889,-0.00044359,-3.541e-07,-0.022522,0.033641,1
21557,54.3,20.069,0,0.036345,0,21658,54.21,13.889,-0.00044359,-3.541e-07,-0.022522,0.033641,1
21557,54.3,20.069,0,0.036345,0,21658,54.21,13.889,-0.00044359,-3.541e-07,-0.022522,0.033641,1
21557,54.3,20.069,0,0.036345,0,21659,54.21,13.889,-0.0011927,-1.3265e-06,-0.018234,0.033457,1
21557,54.3,20.069,0,0.036345,0,21659,54.21,13.889,-0.0011927,-1.3265e-06,-0.018234,0.033457,1
21557,54.3,20.069,0,0.036345,0,21659,54.21,13.889,-0.0011927,-1.3265e-06,-0.018234,0.033457,1
21557,54.3,20.069,0,0.036345,0,21659,54.21,13.889,-0.0011927,-1.3265e-06,-0.018234,0.033457,1
21557,54.3,20.069,0,0.036345,0,21659,54.21,13.889,-0.0011927,-1.3265e-06,-0.018234,0.033457,1
21557,54.3,20.069,0,0.036345,0,21659,54.21,13.889,-0.0011927,-1.3265e-06,-0.018234,0.033457,1
21557,54.3,20.069,0,0.036345,0,21659,54.21,13.889,-0.0011927,-1.3265e-06,-0.018234,0.033457,1
21559,54.3,20.072,0,0.034176,0,21659,54.21,13.889,-0.0015086,-1.5782e-06,-0.016288,0.034034,1
21561,54.3,20.075,0,0.032515,0,21660,54.209,13.889,-0.0024373,-1.6346e-06,-0.0097009,0.034203,1
21562,54.3,20.077,0,0.031311,0,21661,54.209,13.889,-0.0029333,-9.9523e-07,-0.0047905,0.034235,1
21563,54.3,20.078,0,0.030528,0,21661,54.209,13.889,-0.0029333,-9.9523e-07,-0.0047905,0.034513,1
21563,54.3,20.078,0,0.030528,0,21661,54.209,13.889,-0.0029333,-9.9523e-07,-0.0047905,0.034513,1
21563,54.3,20.078,0,0.030528,0,21661,54.209,13.889,-0.0029333,-9.9523e-07,-0.0047905,0.034513,1
21563,54.3,20.078,0,0.030528,0,21661,54.209,13.889,-0.0029333,-9.9523e-07,-0.0047905,0.034513,1
21563,54.3,20.078,0,0.030528,0,21661,54.209,13.889,-0.0029333,-9.9523e-07,-0.0047905,0.034513,1
21563,54.3,20.078,0,0.030528,0,21661,54.209,13.889,-0.0029333,-9.9523e-07,-0.0047905,0.034513,1
21563,54.3,20.078,0,0.030528,0,21661,54.209,13.889,-0.0029333,-9.9523e-07,-0.0047905,0.034513,1
21563,54.3,20.078,0,0.030528,0,21661,54.209,13.889,-0.0029333,-9.9523e-07,-0.0047905,0.034513,1
21563,54.3,20.078,0,0.030528,0,21661,54.209,13.889,-0.0029333,-9.9523e-07,-0.0047905,0.034513,1
21563,54.3,20.078,0,0.030142,0,21661,54.209,13.889,-0.0029333,-9.9523e-07,-0.0047905,0.034653,1
21563,54.3,20.078,0,0.030142,0,21661,54.209,13.889,-0.0029333,-9.9523e-07,-0.0047905,0.034653,1
21563,54.3,20.078,0,0.030142,0,21661,54.209,13.889,-0.0029333,-9.9523e-07,-0.0047905,0.034653,1
21563,54.3,20.078,0,0.030142,0,21661,54.209,13.889,-0.0029333,-9.9523e-07,-0.0047905,0.034653,1
21563,54.3,20.078,0,0.030142,0,21661,54.209,13.889,-0.0029333,-9.9523e-07,-0.0047905,0.034653,1
21563,54.3,20.078,0,0.030142,0,21661,54.209,13.889,-0.0029333,-9.9523e-07,-0.0047905,0.034653,1
21563,54.3,20.078,0,0.030142,0,21661,54.209,13.889,-0.0029333,-9.9523e-07,-0.0047905,0.034653,1
21563,54.3,20.078,0,0.030142,0,21661,54.209,13.889,-0.0029333,-9.9523e-07,-0.0047905,0.034653,1
21563,54.3,20.078,0,0.030142,0,21661,54.209,13.889,-0.0029333,-9.9523e-07,-0.0047905,0.034653,1
21563,54.3,20.078,0,0.030142,0,21661,54.209,13.889,-0.0029333,-9.9523e-07,-0.0047905,0.034653,1
21563,54.3,20.078,0,0.030142,0,21663,54.209,13.889,-0.0031167,1.8298e-08,8.152e-05,0.034077,1
21563,54.3,20.078,0,0.030142,0,21663,54.209,13.889,-0.0031167,1.8298e-08,8.152e-05,0.034077,1
21563,54.3,20.078,0,0.030142,0,21663,54.209,13.889,-0.0031167,1.8298e-08,8.152e-05,0.034077,1
21563,54.3,20.078,0,0.030142,0,21663,54.209,13.889,-0.0031167,1.8298e-08,8.152e-05,0.034077,1
21563,54.3,20.078,0,0.030142,0,21663,54.209,13.889,-0.0031167,1.8298e-08,8.152e-05,0.034077,1
21563,54.3,20.078,0,0.030142,0,21663,54.209,13.889,-0.0031167,1.8298e-08,8.152e-05,0.034077,1
21563,54.3,20.078,0,0.030142,0,21663,54.209,13.889,-0.0031167,1.8298e-08,8.152e-05,0.034077,1
21564,54.3,20.08,0,0.029006,0,21663,54.209,13.889,-0.0031167,1.8298e-08,8.152e-05,0.034492,1
21566,54.3,20.083,0,0.027541,0,21664,54.209,13.889,-0.0029961,4.4583e-07,0.0020526,0.034665,1
21566,54.3,20.083,0,0.027541,0,21665,54.208,13.889,-0.0027608,6.5696e-07,0.0032663,0.034279,1
21567,54.3,20.084,0,0.026477,0,21665,54.208,13.889,-0.0027608,6.5696e-07,0.0032663,0.034698,1
21567,54.3,20.084,0,0.026477,0,21665,54.208,13.889,-0.0027608,6.5696e-07,0.0032663,0.034698,1
21567,54.3,20.084,0,0.026477,0,21666,54.208,13.889,-0.0024609,7.0387e-07,0.0039104,0.034311,1
21567,54.3,20.084,0,0.026477,0,21666,54.208,13.889,-0.0024609,7.0387e-07,0.0039104,0.034311,1
21567,54.3,20.084,0,0.026477,0,21667,54.208,13.889,-0.0023804,6.9729e-07,0.0040012,0.034215,1
21567,54.3,20.084,0,0.026477,0,21667,54.208,13.889,-0.0023804,6.9729e-07,0.0040012,0.034215,1
21567,54.3,20.084,0,0.026477,0,21667,54.208,13.889,-0.0023804,6.9729e-07,0.0040012,0.034215,1
21567,54.3,20.084,0,0.026477,0,21667,54.208,13.889,-0.0023804,6.9729e-07,0.0040012,0.034215,1
21567,54.3,20.084,0,0.026477,0,21667,54.208,13.889,-0.0023804,6.9729e-07,0.0040012,0.034215,1
21567,54.3,20.084,0,0.026477,0,21667,54.208,13.889,-0.0023804,6.9729e-07,0.0040012,0.034215,1
21567,54.3,20.084,0,0.026477,0,21667,54.208,13.889,-0.0023804,6.9729e-07,0.0040012,0.034215,1
21567,54.3,20.084,0,0.026477,0,21667,54.208,13.889,-0.0023804,6.9729e-07,0.0040012,0.034215,1
21569,54.3,20.087,0,0.024769,0,21667,54.208,13.889,-0.0023804,6.9729e-07,0.0040012,0.034918,1
21569,54.3,20.087,0,0.024769,0,21667,54.208,13.889,-0.0023804,6.9729e-07,0.0040012,0.034918,1
21569,54.3,20.087,0,0.024437,0,21667,54.208,13.889,-0.0023804,6.9729e-07,0.0040012,0.035062,1
21569,54.3,20.087,0,0.024437,0,21667,54.208,13.889,-0.0023804,6.9729e-07,0.0040012,0.035062,1
21570,54.3,20.088,0,0.024108,0,21667,54.208,13.889,-0.0023804,6.9729e-07,0.0040012,0.035207,1
21570,54.3,20.088,0,0.024108,0,21667,54.208,13.889,-0.0023804,6.9729e-07,0.0040012,0.035207,1
21571,54.3,20.089,0,0.023458,0,21667,54.208,13.889,-0.0023804,6.9729e-07,0.0040012,0.035502,1
21571,54.3,20.09,0,0.022819,0,21667,54.208,13.889,-0.0023804,6.9729e-07,0.0040012,0.035801,1
21571,54.3,20.09,0,0.022819,0,21669,54.208,13.889,-0.0017233,5.1197e-07,0.0040318,0.034986,1
21571,54.3,20.09,0,0.022819,0,21669,54.208,13.889,-0.0017233,5.1197e-07,0.0040318,0.034986,1
21571,54.3,20.09,0,0.022819,0,21669,54.208,13.889,-0.0016441,4.8171e-07,0.0039732,0.034886,1
21571,54.3,20.09,0,0.022819,0,21669,54.208,13.889,-0.0016441,4.8171e-07,0.0039732,0.034886,1
21571,54.3,20.09,0,0.022819,0,21670,54.208,13.889,-0.0015664,4.5142e-07,0.0039053,0.034788,1
21571,54.3,20.09,0,0.022819,0,21670,54.208,13.889,-0.0015664,4.5142e-07,0.0039053,0.034788,1
21571,54.3,20.09,0,0.022819,0,21670,54.208,13.889,-0.0015664,4.5142e-07,0.0039053,0.034788,1
21571,54.3,20.09,0,0.022819,0,21670,54.208,13.889,-0.0015664,4.5142e-07,0.0039053,0.034788,1
21571,54.3,20.09,0,0.022819,0,21670,54.208,13.889,-0.0015664,4.5142e-07,0.0039053,0.034788,1
21571,54.3,20.09,0,0.022819,0,21670,54.208,13.889,-0.0015664,4.5142e-07,0.0039053,0.034788,1
21571,54.3,20.09,0,0.022819,0,21670,54.208,13.889,-0.0015664,4.5142e-07,0.0039053,0.034788,1
21571,54.3,20.09,0,0.022819,0,21670,54.208,13.889,-0.0014902,4.2141e-07,0.0038293,0.034689,1
21571,54.3,20.09,0,0.022819,0,21670,54.208,13.889,-0.0014902,4.2141e-07,0.0038293,0.034689,1
21573,54.3,20.092,0,0.021274,0,21670,54.208,13.889,-0.0014902,4.2141e-07,0.0038293,0.035412,1
21573,54.3,20.092,0,0.021274,0,21670,54.208,13.889,-0.0014902,4.2141e-07,0.0038293,0.035412,1
21573,54.3,20.092,0,0.021274,0,21670,54.208,13.889,-0.0013429,3.6323e-07,0.003657,0.035209,1
21575,54.3,20.093,0,0.020086,0,21671,54.208,13.889,-0.0012721,3.3546e-07,0.0035627,0.035699,1
21575,54.3,20.094,0,0.019796,0,21671,54.208,13.889,-0.0012721,3.3546e-07,0.0035627,0.035849,1
21575,54.3,20.094,0,0.019796,0,21671,54.208,13.889,-0.0012721,3.3546e-07,0.0035627,0.035849,1
21575,54.3,20.094,0,0.019796,0,21672,54.208,13.889,-0.0010096,2.3608e-07,0.0031496,0.035436,1
21575,54.3,20.094,0,0.019796,0,21672,54.208,13.889,-0.0010096,2.3608e-07,0.0031496,0.035436,1
21575,54.3,20.094,0,0.019796,0,21672,54.208,13.889,-0.0010096,2.3608e-07,0.0031496,0.035436,1
21575,54.3,20.094,0,0.019796,0,21672,54.208,13.889,-0.00094928,2.1449e-07,0.0030408,0.035334,1
21575,54.3,20.094,0,0.019796,0,21672,54.208,13.889,-0.00094928,2.1449e-07,0.0030408,0.035334,1
21575,54.3,20.094,0,0.019796,0,21672,54.208,13.889,-0.00094928,2.1449e-07,0.0030408,0.035334,1
21575,54.3,20.094,0,0.019796,0,21672,54.208,13.889,-0.00094928,2.1449e-07,0.0030408,0.035334,1
21575,54.3,20.094,0,0.019796,0,21672,54.208,13.889,-0.00094928,2.1449e-07,0.0030408,0.035334,1
21575,54.3,20.094,0,0.019796,0,21672,54.208,13.889,-0.00094928,2.1449e-07,0.0030408,0.035334,1
21575,54.3,20.094,0,0.019796,0,21672,54.208,13.889,-0.00094928,2.1449e-07,0.0030408,0.035334,1
21575,54.3,20.094,0,0.019796,0,21672,54.208,13.889,-0.00094928,2.1449e-07,0.0030408,0.035334,1
21575,54.3,20.094,0,0.019796,0,21672,54.208,13.889,-0.00094928,2.1449e-07,0.0030408,0.035334,1
21577,54.3,20.095,0,0.018939,0,21672,54.208,13.889,-0.00094928,2.1449e-07,0.0030408,0.035781,1
21577,54.3,20.095,0,0.018939,0,21672,54.208,13.889,-0.00094928,2.1449e-07,0.0030408,0.035781,1
21577,54.3,20.095,0,0.018939,0,21672,54.208,13.889,-0.00094928,2.1449e-07,0.0030408,0.035781,1
21577,54.3,20.095,0,0.018939,0,21672,54.208,13.889,-0.00094928,2.1449e-07,0.0030408,0.035781,1
21577,54.3,20.095,0,0.018939,0,21672,54.208,13.889,-0.00094928,2.1449e-07,0.0030408,0.035781,1
21577,54.3,20.095,0,0.018939,0,21672,54.208,13.889,-0.00094928,2.1449e-07,0.0030408,0.035781,1
21577,54.3,20.095,0,0.018939,0,21672,54.208,13.889,-0.00094928,2.1449e-07,0.0030408,0.035781,1
21577,54.3,20.095,0,0.018659,0,21672,54.208,13.889,-0.00094928,2.1449e-07,0.0030408,0.035932,1
21577,54.3,20.095,0,0.018659,0,21673,54.207,13.889,-0.00078169,1.5784e-07,0.0027105,0.03562,1
21577,54.3,20.095,0,0.018659,0,21673,54.207,13.889,-0.00078169,1.5784e-07,0.0027105,0.03562,1
21579,54.3,20.097,0,0.017292,0,21673,54.207,13.889,-0.00068094,1.2662e-07,0.0024915,0.036168,1
21581,54.3,20.098,0,0.016237,0,21674,54.207,13.889,-0.00054591,8.8758e-08,0.0021718,0.036467,1
21581,54.3,20.098,0,0.016237,0,21674,54.207,13.889,-0.00054591,8.8758e-08,0.0021718,0.036467,1
21581,54.3,20.098,0,0.016237,0,21674,54.207,13.889,-0.00054591,8.8758e-08,0.0021718,0.036467,1
21581,54.3,20.098,0,0.016237,0,21674,54.207,13.889,-0.00054591,8.8758e-08,0.0021718,0.036467,1
21581,54.3,20.098,0,0.016237,0,21674,54.207,13.889,-0.00054591,8.8758e-08,0.0021718,0.036467,1
21581,54.3,20.098,0,0.016237,0,21674,54.207,13.889,-0.00054591,8.8758e-08,0.0021718,0.036467,1
21581,54.3,20.098,0,0.016237,0,21674,54.207,13.889,-0.00054591,8.8758e-08,0.0021718,0.036467,1
21581,54.3,20.098,0,0.016237,0,21674,54.207,13.889,-0.00054591,8.8758e-08,0.0021718,0.036467,1
21581,54.3,20.098,0,0.016237,0,21674,54.207,13.889,-0.00054591,8.8758e-08,0.0021718,0.036467,1
21581,54.3,20.098,0,0.016237,0,21675,54.207,13.889,-0.00039435,5.2594e-08,0.0017727,0.03604,1
21581,54.3,20.098,0,0.016237,0,21675,54.207,13.889,-0.00039435,5.2594e-08,0.0017727,0.03604,1
21581,54.3,20.098,0,0.016237,0,21675,54.207,13.889,-0.00039435,5.2594e-08,0.0017727,0.03604,1
21581,54.3,20.098,0,0.016237,0,21675,54.207,13.889,-0.00039435,5.2594e-08,0.0017727,0.03604,1
21581,54.3,20.098,0,0.016237,0,21675,54.207,13.889,-0.00039435,5.2594e-08,0.0017727,0.03604,1
21581,54.3,20.098,0,0.016237,0,21675,54.207,13.889,-0.00039435,5.2594e-08,0.0017727,0.03604,1
21581,54.3,20.098,0,0.016237,0,21676,54.207,13.889,-0.00036125,4.5698e-08,0.0016789,0.035934,1
21581,54.3,20.098,0,0.016237,0,21676,54.207,13.889,-0.00036125,4.5698e-08,0.0016789,0.035934,1
21581,54.3,20.098,0,0.016237,0,21676,54.207,13.889,-0.00036125,4.5698e-08,0.0016789,0.035934,1
21581,54.3,20.098,0,0.016237,0,21676,54.207,13.889,-0.00036125,4.5698e-08,0.0016789,0.035934,1
21581,54.3,20.098,0,0.016237,0,21676,54.207,13.889,-0.00036125,4.5698e-08,0.0016789,0.035934,1
21581,54.3,20.098,0,0.016237,0,21676,54.207,13.889,-0.00036125,4.5698e-08,0.0016789,0.035934,1
21581,54.3,20.098,0,0.016237,0,21676,54.207,13.889,-0.00036125,4.5698e-08,0.0016789,0.035934,1
21581,54.3,20.098,0,0.016237,0,21676,54.207,13.889,-0.00036125,4.5698e-08,0.0016789,0.035934,1
21581,54.3,20.098,0,0.016237,0,21676,54.207,13.889,-0.0003004,3.4052e-08,0.0014995,0.035725,1
21583,54.3,20.1,0,0.014721,0,21676,54.207,13.889,-0.0003004,3.4052e-08,0.0014995,0.03665,1
21583,54.3,20.1,0,0.014721,0,21676,54.207,13.889,-0.0003004,3.4052e-08,0.0014995,0.03665,1
21584,54.3,20.101,0,0.01399,0,21676,54.207,13.889,-0.0003004,3.4052e-08,0.0014995,0.037131,1
21584,54.3,20.101,0,0.01399,0,21676,54.207,13.889,-0.0003004,3.4052e-08,0.0014995,0.037131,1
21584,54.3,20.101,0,0.01399,0,21676,54.207,13.889,-0.0003004,3.4052e-08,0.0014995,0.037131,1
21584,54.3,20.101,0,0.01399,0,21676,54.207,13.889,-0.0003004,3.4052e-08,0.0014995,0.037131,1
21584,54.3,20.101,0,0.01399,0,21676,54.207,13.889,-0.0003004,3.4052e-08,0.0014995,0.037131,1
21585,54.3,20.102,0,0.013512,0,21676,54.207,13.889,-0.0003004,3.4052e-08,0.0014995,0.037459,1
21585,54.3,20.102,0,0.013512,0,21679,54.207,13.889,-0.00010382,6.741e-09,0.00083465,0.036459,1
21586,54.3,20.103,0,0.012811,0,21679,54.207,13.889,-0.00010382,6.741e-09,0.00083465,0.036934,1
21587,54.3,20.103,0,0.01258,0,21679,54.207,13.889,-0.00010382,6.741e-09,0.00083465,0.037096,1
21587,54.3,20.103,0,0.01258,0,21679,54.207,13.889,-0.00010382,6.741e-09,0.00083465,0.037096,1
21587,54.3,20.103,0,0.01258,0,21680,54.207,13.889,-4.9513e-05,2.4572e-09,0.00061329,0.036653,1
21587,54.3,20.103,0,0.01258,0,21680,54.207,13.889,-4.9513e-05,2.4572e-09,0.00061329,0.036653,1
21587,54.3,20.103,0,0.01258,0,21680,54.207,13.889,-3.8468e-05,1.7933e-09,0.0005646,0.036544,1
21587,54.3,20.103,0,0.01258,0,21680,54.207,13.889,-3.8468e-05,1.7933e-09,0.0005646,0.036544,1
21587,54.3,20.103,0,0.01258,0,21680,54.207,13.889,-3.8468e-05,1.7933e-09,0.0005646,0.036544,1
21587,54.3,20.103,0,0.01258,0,21680,54.207,13.889,-3.8468e-05,1.7933e-09,0.0005646,0.036544,1
21587,54.3,20.103,0,0.01258,0,21680,54.207,13.889,-3.8468e-05,1.7933e-09,0.0005646,0.036544,1
21587,54.3,20.103,0,0.01258,0,21680,54.207,13.889,-3.8468e-05,1.7933e-09,0.0005646,0.036544,1
21587,54.3,20.103,0,0.01258,0,21680,54.207,13.889,-3.8468e-05,1.7933e-09,0.0005646,0.036544,1
21587,54.3,20.103,0,0.01258,0,21680,54.207,13.889,-2.8333e-05,1.2511e-09,0.00051844,0.036436,1
21587,54.3,20.103,0,0.01258,0,21680,54.207,13.889,-2.8333e-05,1.2511e-09,0.00051844,0.036436,1
21587,54.3,20.103,0,0.01258,0,21681,54.207,13.889,-1.9059e-05,8.1377e-10,0.00047475,0.036328,1
21587,54.3,20.103,0,0.01258,0,21681,54.207,13.889,-1.9059e-05,8.1377e-10,0.00047475,0.036328,1
21587,54.3,20.103,0,0.01258,0,21681,54.207,13.889,-1.06e-05,4.6608e-10,0.00043346,0.036221,1
21590,54.3,20.105,0,0.010585,0,21681,54.207,13.889,-2.9079e-06,1.9463e-10,0.00039448,0.037552,1
21590,54.3,20.105,0,0.010585,0,21681,54.207,13.889,-2.9079e-06,1.9463e-10,0.00039448,0.037552,1
21591,54.3,20.105,0,0.010372,0,21681,54.207,13.889,-2.9079e-06,1.9463e-10,0.00039448,0.037719,1
21591,54.3,20.105,0,0.01016,0,21681,54.207,13.889,-2.9079e-06,1.9463e-10,0.00039448,0.037887,1
21591,54.3,20.105,0,0.01016,0,21681,54.207,13.889,-2.9079e-06,1.9463e-10,0.00039448,0.037887,1
21591,54.3,20.105,0,0.01016,0,21681,54.207,13.889,-2.9079e-06,1.9463e-10,0.00039448,0.037887,1
21591,54.3,20.105,0,0.01016,0,21681,54.207,13.889,-2.9079e-06,1.9463e-10,0.00039448,0.037887,1
21591,54.3,20.105,0,0.01016,0,21681,54.207,13.889,-2.9079e-06,1.9463e-10,0.00039448,0.037887,1
21591,54.3,20.105,0,0.00995,0,21681,54.207,13.889,-2.9079e-06,1.9463e-10,0.00039448,0.038057,1
21591,54.3,20.105,0,0.00995,0,21681,54.207,13.889,-2.9079e-06,1.9463e-10,0.00039448,0.038057,1
21591,54.3,20.105,0,0.00995,0,21681,54.207,13.889,-2.9079e-06,1.9463e-10,0.00039448,0.038057,1
21591,54.3,20.105,0,0.00995,0,21681,54.207,13.889,-2.9079e-06,1.9463e-10,0.00039448,0.038057,1
21591,54.3,20.105,0,0.00995,0,21681,54.207,13.889,-2.9079e-06,1.9463e-10,0.00039448,0.038057,1
21591,54.3,20.105,0,0.00995,0,21681,54.207,13.889,-2.9079e-06,1.9463e-10,0.00039448,0.038057,1
21591,54.3,20.105,0,0.00995,0,21683,54.207,13.889,2.9503e-05,-4.0528e-10,0.00020504,0.037363,1
21591,54.3,20.105,0,0.00995,0,21683,54.207,13.889,2.9503e-05,-4.0528e-10,0.00020504,0.037363,1
21591,54.3,20.105,0,0.00995,0,21683,54.207,13.889,2.9503e-05,-4.0528e-10,0.00020504,0.037363,1
21591,54.3,20.105,0,0.00995,0,21683,54.207,13.889,2.9503e-05,-4.0528e-10,0.00020504,0.037363,1
21591,54.3,20.105,0,0.00995,0,21683,54.207,13.889,2.9503e-05,-4.0528e-10,0.00020504,0.037363,1
21591,54.3,20.105,0,0.00995,0,21683,54.207,13.889,2.9503e-05,-4.0528e-10,0.00020504,0.037363,1
21591,54.3,20.105,0,0.00995,0,21683,54.207,13.889,2.9503e-05,-4.0528e-10,0.00020504,0.037363,1
21591,54.3,20.105,0,0.00995,0,21683,54.207,13.889,2.9503e-05,-4.0528e-10,0.00020504,0.037363,1
21591,54.3,20.105,0,0.00995,0,21683,54.207,13.889,2.9503e-05,-4.0528e-10,0.00020504,0.037363,1
21592,54.3,20.106,0,0.0095345,0,21683,54.207,13.889,2.9503e-05,-4.0528e-10,0.00020504,0.037695,1
21592,54.3,20.106,0,0.0095345,0,21684,54.207,13.889,3.8598e-05,-3.6306e-10,0.00013539,0.037351,1
21592,54.3,20.106,0,0.0095345,0,21684,54.207,13.889,3.8598e-05,-3.6306e-10,0.00013539,0.037351,1
21592,54.3,20.106,0,0.0095345,0,21684,54.207,13.889,3.8598e-05,-3.6306e-10,0.00013539,0.037351,1
21592,54.3,20.106,0,0.0095345,0,21684,54.207,13.889,3.8598e-05,-3.6306e-10,0.00013539,0.037351,1
21594,54.3,20.107,0,0.0085212,0,21684,54.207,13.889,4.2646e-05,-2.9059e-10,9.684e-05,0.037955,1
21594,54.3,20.107,0,0.0085212,0,21685,54.207,13.889,4.6264e-05,-1.6278e-10,4.9395e-05,0.037607,1
21596,54.3,20.108,0,0.0075449,0,21686,54.207,13.889,4.7333e-05,-8.0997e-11,2.3887e-05,0.038219,1
21597,54.3,20.108,0,0.0073538,0,21686,54.207,13.889,4.7333e-05,-8.0997e-11,2.3887e-05,0.038392,1
21597,54.3,20.108,0,0.0073538,0,21686,54.207,13.889,4.7333e-05,-8.0997e-11,2.3887e-05,0.038392,1
21597,54.3,20.108,0,0.0073538,0,21686,54.207,13.889,4.7357e-05,2.2086e-11,-6.4686e-06,0.038036,1
21597,54.3,20.108,0,0.0073538,0,21686,54.207,13.889,4.7357e-05,2.2086e-11,-6.4686e-06,0.038036,1
21597,54.3,20.108,0,0.0073538,0,21686,54.207,13.889,4.7357e-05,2.2086e-11,-6.4686e-06,0.038036,1
21597,54.3,20.108,0,0.0073538,0,21686,54.207,13.889,4.7357e-05,2.2086e-11,-6.4686e-06,0.038036,1
21597,54.3,20.108,0,0.0073538,0,21686,54.207,13.889,4.7357e-05,2.2086e-11,-6.4686e-06,0.038036,1
21597,54.3,20.108,0,0.0073538,0,21686,54.207,13.889,4.7357e-05,2.2086e-11,-6.4686e-06,0.038036,1
21597,54.3,20.108,0,0.0073538,0,21686,54.207,13.889,4.7357e-05,2.2086e-11,-6.4686e-06,0.038036,1
21597,54.3,20.108,0,0.0073538,0,21686,54.207,13.889,4.7357e-05,2.2086e-11,-6.4686e-06,0.038036,1
21597,54.3,20.108,0,0.0073538,0,21687,54.207,13.889,4.7021e-05,4.9979e-11,-1.4717e-05,0.037918,1
21597,54.3,20.108,0,0.0073538,0,21687,54.207,13.889,4.7021e-05,4.9979e-11,-1.4717e-05,0.037918,1
21597,54.3,20.108,0,0.0073538,0,21687,54.207,13.889,4.7021e-05,4.9979e-11,-1.4717e-05,0.037918,1
21597,54.3,20.108,0,0.0073538,0,21687,54.207,13.889,4.7021e-05,4.9979e-11,-1.4717e-05,0.037918,1
21597,54.3,20.108,0,0.0073538,0,21687,54.207,13.889,4.7021e-05,4.9979e-11,-1.4717e-05,0.037918,1
21597,54.3,20.108,0,0.0073538,0,21687,54.207,13.889,4.7021e-05,4.9979e-11,-1.4717e-05,0.037918,1
21597,54.3,20.108,0,0.0073538,0,21687,54.207,13.889,4.7021e-05,4.9979e-11,-1.4717e-05,0.037918,1
21597,54.3,20.108,0,0.0073538,0,21687,54.207,13.889,4.7021e-05,4.9979e-11,-1.4717e-05,0.037918,1
21597,54.3,20.108,0,0.0073538,0,21687,54.207,13.889,4.7021e-05,4.9979e-11,-1.4717e-05,0.037918,1
21598,54.3,20.108,0,0.0067882,0,21687,54.207,13.889,4.7021e-05,4.9979e-11,-1.4717e-05,0.038433,1
21598,54.3,20.108,0,0.0067882,0,21687,54.207,13.889,4.7021e-05,4.9979e-11,-1.4717e-05,0.038433,1
21598,54.3,20.108,0,0.0067882,0,21687,54.207,13.889,4.7021e-05,4.9979e-11,-1.4717e-05,0.038433,1
21598,54.3,20.108,0,0.0067882,0,21687,54.207,13.889,4.7021e-05,4.9979e-11,-1.4717e-05,0.038433,1
21598,54.3,20.108,0,0.0067882,0,21687,54.207,13.889,4.7021e-05,4.9979e-11,-1.4717e-05,0.038433,1
21598,54.3,20.108,0,0.0067882,0,21687,54.207,13.889,4.7021e-05,4.9979e-11,-1.4717e-05,0.038433,1
21598,54.3,20.108,0,0.0067882,0,21687,54.207,13.889,4.7021e-05,4.9979e-11,-1.4717e-05,0.038433,1
21598,54.3,20.108,0,0.0067882,0,21687,54.207,13.889,4.7021e-05,4.9979e-11,-1.4717e-05,0.038433,1
21599,54.3,20.109,0,0.0062343,0,21687,54.207,13.889,4.7021e-05,4.9979e-11,-1.4717e-05,0.038962,1
21599,54.3,20.109,0,0.0062343,0,21687,54.207,13.889,4.7021e-05,4.9979e-11,-1.4717e-05,0.038962,1
21600,54.3,20.109,0,0.0058715,0,21688,54.207,13.889,4.3476e-05,1.4022e-10,-4.4343e-05,0.038704,1
21600,54.3,20.109,0,0.0058715,0,21690,54.207,13.889,3.7994e-05,1.6357e-10,-5.8882e-05,0.038104,1
21600,54.3,20.109,0,0.0058715,0,21690,54.207,13.889,3.6777e-05,1.6263e-10,-6.0426e-05,0.037987,1
21603,54.3,20.11,0,0.0044646,0,21690,54.207,13.889,3.6777e-05,1.6263e-10,-6.0426e-05,0.039397,1
21603,54.3,20.11,0,0.0044646,0,21691,54.207,13.889,3.1759e-05,1.4732e-10,-6.3169e-05,0.038898,1
21603,54.3,20.11,0,0.0044646,0,21691,54.207,13.889,3.1759e-05,1.4732e-10,-6.3169e-05,0.038898,1
21603,54.3,20.11,0,0.0044646,0,21691,54.207,13.889,3.1759e-05,1.4732e-10,-6.3169e-05,0.038898,1
21603,54.3,20.11,0,0.0044646,0,21691,54.207,13.889,3.1759e-05,1.4732e-10,-6.3169e-05,0.038898,1
21603,54.3,20.11,0,0.0044646,0,21691,54.207,13.889,3.1759e-05,1.4732e-10,-6.3169e-05,0.038898,1
21603,54.3,20.11,0,0.0044646,0,21691,54.207,13.889,3.1759e-05,1.4732e-10,-6.3169e-05,0.038898,1
21603,54.3,20.11,0,0.0044646,0,21691,54.207,13.889,3.1759e-05,1.4732e-10,-6.3169e-05,0.038898,1
21603,54.3,20.11,0,0.0044646,0,21691,54.207,13.889,3.1759e-05,1.4732e-10,-6.3169e-05,0.038898,1
21603,54.3,20.11,0,0.0044646,0,21691,54.207,13.889,3.1759e-05,1.4732e-10,-6.3169e-05,0.038898,1
21603,54.3,20.11,0,0.0044646,0,21691,54.207,13.889,3.1759e-05,1.4732e-10,-6.3169e-05,0.038898,1
21604,54.3,20.11,0,0.0041234,0,21691,54.207,13.889,3.1759e-05,1.4732e-10,-6.3169e-05,0.039258,1
21604,54.3,20.11,0,0.0041234,0,21691,54.207,13.889,3.1759e-05,1.4732e-10,-6.3169e-05,0.039258,1
21604,54.3,20.11,0,0.0041234,0,21691,54.207,13.889,3.1759e-05,1.4732e-10,-6.3169e-05,0.039258,1
21604,54.3,20.11,0,0.0041234,0,21691,54.207,13.889,3.1759e-05,1.4732e-10,-6.3169e-05,0.039258,1
21604,54.3,20.11,0,0.0041234,0,21691,54.207,13.889,3.1759e-05,1.4732e-10,-6.3169e-05,0.039258,1
21604,54.3,20.11,0,0.0041234,0,21691,54.207,13.889,3.1759e-05,1.4732e-10,-6.3169e-05,0.039258,1
21604,54.3,20.11,0,0.0041234,0,21691,54.207,13.889,3.1759e-05,1.4732e-10,-6.3169e-05,0.039258,1
21604,54.3,20.11,0,0.0041234,0,21691,54.207,13.889,3.1759e-05,1.4732e-10,-6.3169e-05,0.039258,1
21604,54.3,20.11,0,0.0041234,0,21691,54.207,13.889,3.1759e-05,1.4732e-10,-6.3169e-05,0.039258,1
21604,54.3,20.11,0,0.0041234,0,21691,54.207,13.889,2.9239e-05,1.3522e-10,-6.288e-05,0.039009,1
21604,54.3,20.11,0,0.0041234,0,21691,54.207,13.889,2.9239e-05,1.3522e-10,-6.288e-05,0.039009,1
21604,54.3,20.11,0,0.0041234,0,21691,54.207,13.889,2.9239e-05,1.3522e-10,-6.288e-05,0.039009,1
21604,54.3,20.11,0,0.0041234,0,21691,54.207,13.889,2.9239e-05,1.3522e-10,-6.288e-05,0.039009,1
21604,54.3,20.11,0,0.0041234,0,21691,54.207,13.889,2.9239e-05,1.3522e-10,-6.288e-05,0.039009,1
21604,54.3,20.11,0,0.0041234,0,21691,54.207,13.889,2.9239e-05,1.3522e-10,-6.288e-05,0.039009,1
21604,54.3,20.11,0,0.0041234,0,21691,54.207,13.889,2.9239e-05,1.3522e-10,-6.288e-05,0.039009,1
21604,54.3,20.11,0,0.0041234,0,21691,54.207,13.889,2.9239e-05,1.3522e-10,-6.288e-05,0.039009,1
21604,54.3,20.11,0,0.0041234,0,21691,54.207,13.889,2.9239e-05,1.3522e-10,-6.288e-05,0.039009,1
21606,54.3,20.11,0,0.0031276,0,21692,54.207,13.889,2.5547e-05,1.1473e-10,-6.0919e-05,0.039726,1
21606,54.3,20.11,0,0.0031276,0,21692,54.207,13.889,2.5547e-05,1.1473e-10,-6.0919e-05,0.039726,1
21606,54.3,20.11,0,0.0031276,0,21692,54.207,13.889,2.5547e-05,1.1473e-10,-6.0919e-05,0.039726,1
21608,54.3,20.11,0,0.0024843,0,21694,54.207,13.889,1.9826e-05,8.051e-11,-5.4882e-05,0.039828,1
21610,54.3,20.111,0,0.001855,0,21695,54.207,13.889,1.6737e-05,6.2418e-11,-5.0285e-05,0.040191,1
21610,54.3,20.111,0,0.001855,0,21695,54.207,13.889,1.3941e-05,4.7001e-11,-4.535e-05,0.039801,1
21610,54.3,20.111,0,0.001855,0,21695,54.207,13.889,1.3941e-05,4.7001e-11,-4.535e-05,0.039801,1
21610,54.3,20.111,0,0.001855,0,21696,54.207,13.889,1.3076e-05,4.249e-11,-4.3672e-05,0.039672,1
21610,54.3,20.111,0,0.001855,0,21696,54.207,13.889,1.3076e-05,4.249e-11,-4.3672e-05,0.039672,1
21610,54.3,20.111,0,0.001855,0,21696,54.207,13.889,1.3076e-05,4.249e-11,-4.3672e-05,0.039672,1
21610,54.3,20.111,0,0.001855,0,21696,54.207,13.889,1.3076e-05,4.249e-11,-4.3672e-05,0.039672,1
21610,54.3,20.111,0,0.001855,0,21696,54.207,13.889,1.3076e-05,4.249e-11,-4.3672e-05,0.039672,1
21610,54.3,20.111,0,0.001855,0,21696,54.207,13.889,1.3076e-05,4.249e-11,-4.3672e-05,0.039672,1
21610,54.3,20.111,0,0.001855,0,21696,54.207,13.889,1.3076e-05,4.249e-11,-4.3672e-05,0.039672,1
21610,54.3,20.111,0,0.001855,0,21696,54.207,13.889,1.2245e-05,3.829e-11,-4.1992e-05,0.039545,1
21610,54.3,20.111,0,0.001855,0,21696,54.207,13.889,1.2245e-05,3.829e-11,-4.1992e-05,0.039545,1
21610,54.3,20.111,0,0.001855,0,21696,54.207,13.889,1.2245e-05,3.829e-11,-4.1992e-05,0.039545,1
21610,54.3,20.111,0,0.001855,0,21696,54.207,13.889,1.2245e-05,3.829e-11,-4.1992e-05,0.039545,1
21610,54.3,20.111,0,0.001855,0,21696,54.207,13.889,1.2245e-05,3.829e-11,-4.1992e-05,0.039545,1
21610,54.3,20.111,0,0.001855,0,21696,54.207,13.889,1.2245e-05,3.829e-11,-4.1992e-05,0.039545,1
21610,54.3,20.111,0,0.001855,0,21696,54.207,13.889,1.2245e-05,3.829e-11,-4.1992e-05,0.039545,1
21610,54.3,20.111,0,0.001855,0,21696,54.207,13.889,1.2245e-05,3.829e-11,-4.1992e-05,0.039545,1
21610,54.3,20.111,0,0.001855,0,21696,54.207,13.889,1.2245e-05,3.829e-11,-4.1992e-05,0.039545,1
21610,54.3,20.111,0,0.001855,0,21696,54.207,13.889,1.2245e-05,3.829e-11,-4.1992e-05,0.039545,1
21611,54.3,20.111,0,0.001241,0,21696,54.207,13.889,1.2245e-05,3.829e-11,-4.1992e-05,0.040296,1
21611,54.3,20.111,0,0.001241,0,21696,54.207,13.889,1.2245e-05,3.829e-11,-4.1992e-05,0.040296,1
21611,54.3,20.111,0,0.001241,0,21696,54.207,13.889,1.2245e-05,3.829e-11,-4.1992e-05,0.040296,1
21611,54.3,20.111,0,0.001241,0,21696,54.207,13.889,1.2245e-05,3.829e-11,-4.1992e-05,0.040296,1
21611,54.3,20.111,0,0.001241,0,21696,54.207,13.889,1.2245e-05,3.829e-11,-4.1992e-05,0.040296,1
21611,54.3,20.111,0,0.001241,0,21696,54.207,13.889,1.2245e-05,3.829e-11,-4.1992e-05,0.040296,1
21611,54.3,20.111,0,0.001241,0,21696,54.207,13.889,1.2245e-05,3.829e-11,-4.1992e-05,0.040296,1
21612,54.3,20.111,0,0.0010902,0,21696,54.207,13.889,1.2245e-05,3.829e-11,-4.1992e-05,0.040488,1
21612,54.3,20.111,0,0.0010902,0,21696,54.207,13.889,1.2245e-05,3.829e-11,-4.1992e-05,0.040488,1
21613,54.3,20.111,0,0.00049337,0,21697,54.207,13.889,8.5847e-06,2.168e-11,-3.3748e-05,0.040594,1
21613,54.3,20.111,0,0.00049337,0,21699,54.207,13.889,5.7099e-06,1.125e-11,-2.6167e-05,0.039934,1
21613,54.3,20.111,0,0.00049337,0,21699,54.207,13.889,5.7099e-06,1.125e-11,-2.6167e-05,0.039934,1
21613,54.3,20.111,0,0.00049337,0,21699,54.207,13.889,5.7099e-06,1.125e-11,-2.6167e-05,0.039934,1
21613,54.3,20.111,0,0.00049337,0,21699,54.207,13.889,5.7099e-06,1.125e-11,-2.6167e-05,0.039934,1
21613,54.3,20.111,0,0.00049337,0,21699,54.207,13.889,5.7099e-06,1.125e-11,-2.6167e-05,0.039934,1
21613,54.3,20.111,0,0.00049337,0,21700,54.207,13.889,4.3256e-06,7.2273e-12,-2.2079e-05,0.039549,1
21613,54.3,20.111,0,0.00049337,0,21700,54.207,13.889,4.3256e-06,7.2273e-12,-2.2079e-05,0.039549,1
21613,54.3,20.111,0,0.00049337,0,21700,54.207,13.889,3.9161e-06,6.1767e-12,-2.0802e-05,0.039422,1
21613,54.3,20.111,0,0.00049337,0,21700,54.207,13.889,3.9161e-06,6.1767e-12,-2.0802e-05,0.039422,1
21613,54.3,20.111,0,0.00049337,0,21700,54.207,13.889,3.9161e-06,6.1767e-12,-2.0802e-05,0.039422,1
21613,54.3,20.111,0,0.00049337,0,21700,54.207,13.889,3.9161e-06,6.1767e-12,-2.0802e-05,0.039422,1
21613,54.3,20.111,0,0.00049337,0,21700,54.207,13.889,3.9161e-06,6.1767e-12,-2.0802e-05,0.039422,1
21613,54.3,20.111,0,0.00049337,0,21700,54.207,13.889,3.9161e-06,6.1767e-12,-2.0802e-05,0.039422,1
21613,54.3,20.111,0,0.00049337,0,21700,54.207,13.889,3.9161e-06,6.1767e-12,-2.0802e-05,0.039422,1
21613,54.3,20.111,0,0.00049337,0,21700,54.207,13.889,3.5309e-06,5.2505e-12,-1.9569e-05,0.039296,1
21617,54.3,20.111,0,-0.0021698,0,21700,54.207,13.889,3.5309e-06,5.2505e-12,-1.9569e-05,0.041203,1
21618,54.3,20.111,0,-0.002769,0,21701,54.207,13.889,2.8304e-06,3.7264e-12,-1.7236e-05,0.041327,1
21618,54.3,20.111,0,-0.0030598,0,21701,54.207,13.889,2.8304e-06,3.7264e-12,-1.7236e-05,0.041529,1
21618,54.3,20.111,0,-0.0030598,0,21702,54.207,13.889,1.4444e-06,1.3736e-12,-1.2182e-05,0.04084,1
21618,54.3,20.111,0,-0.0030598,0,21702,54.207,13.889,1.4444e-06,1.3736e-12,-1.2182e-05,0.04084,1
21618,54.3,20.111,0,-0.0030598,0,21702,54.207,13.889,1.4444e-06,1.3736e-12,-1.2182e-05,0.04084,1
21618,54.3,20.111,0,-0.0030598,0,21702,54.207,13.889,1.4444e-06,1.3736e-12,-1.2182e-05,0.04084,1
21618,54.3,20.111,0,-0.0030598,0,21702,54.207,13.889,1.4444e-06,1.3736e-12,-1.2182e-05,0.04084,1
21618,54.3,20.111,0,-0.0030598,0,21702,54.207,13.889,1.4444e-06,1.3736e-12,-1.2182e-05,0.04084,1
21618,54.3,20.111,0,-0.0030598,0,21702,54.207,13.889,1.4444e-06,1.3736e-12,-1.2182e-05,0.04084,1
21618,54.3,20.111,0,-0.0030598,0,21702,54.207,13.889,1.2228e-06,1.0869e-12,-1.1301e-05,0.040704,1
21618,54.3,20.111,0,-0.0030598,0,21702,54.207,13.889,1.2228e-06,1.0869e-12,-1.1301e-05,0.040704,1
21618,54.3,20.111,0,-0.0030598,0,21702,54.207,13.889,1.2228e-06,1.0869e-12,-1.1301e-05,0.040704,1
21618,54.3,20.111,0,-0.0030598,0,21702,54.207,13.889,1.2228e-06,1.0869e-12,-1.1301e-05,0.040704,1
21618,54.3,20.111,0,-0.0030598,0,21702,54.207,13.889,1.2228e-06,1.0869e-12,-1.1301e-05,0.040704,1
21618,54.3,20.111,0,-0.0030598,0,21702,54.207,13.889,1.2228e-06,1.0869e-12,-1.1301e-05,0.040704,1
21618,54.3,20.111,0,-0.0030598,0,21702,54.207,13.889,1.2228e-06,1.0869e-12,-1.1301e-05,0.040704,1
21618,54.3,20.111,0,-0.0030598,0,21702,54.207,13.889,1.2228e-06,1.0869e-12,-1.1301e-05,0.040704,1
21618,54.3,20.111,0,-0.0030598,0,21702,54.207,13.889,1.2228e-06,1.0869e-12,-1.1301e-05,0.040704,1
21618,54.3,20.111,0,-0.0030598,0,21702,54.207,13.889,1.2228e-06,1.0869e-12,-1.1301e-05,0.040704,1
21620,54.3,20.11,0,-0.0044177,0,21702,54.207,13.889,1.2228e-06,1.0869e-12,-1.1301e-05,0.041704,1
21620,54.3,20.11,0,-0.0044177,0,21702,54.207,13.889,1.2228e-06,1.0869e-12,-1.1301e-05,0.041704,1
21620,54.3,20.11,0,-0.0044177,0,21702,54.207,13.889,1.2228e-06,1.0869e-12,-1.1301e-05,0.041704,1
21620,54.3,20.11,0,-0.0044177,0,21702,54.207,13.889,1.2228e-06,1.0869e-12,-1.1301e-05,0.041704,1
21620,54.3,20.11,0,-0.0044177,0,21702,54.207,13.889,1.2228e-06,1.0869e-12,-1.1301e-05,0.041704,1
21620,54.3,20.11,0,-0.0044177,0,21702,54.207,13.889,1.2228e-06,1.0869e-12,-1.1301e-05,0.041704,1
21620,54.3,20.11,0,-0.0044177,0,21702,54.207,13.889,1.2228e-06,1.0869e-12,-1.1301e-05,0.041704,1
21622,54.3,20.11,0,-0.005167,0,21703,54.207,13.889,8.286e-07,6.4374e-13,-9.6634e-06,0.042038,1
21622,54.3,20.11,0,-0.0054077,0,21703,54.207,13.889,8.286e-07,6.4374e-13,-9.6634e-06,0.042248,1
21624,54.3,20.109,0,-0.0063228,0,21705,54.207,13.889,-1.8979e-08,1.546e-14,-5.6789e-06,0.042217,1
21625,54.3,20.109,0,-0.0071685,0,21706,54.207,13.889,-3.6159e-07,-8.6624e-14,-3.7074e-06,0.042479,1
21625,54.3,20.109,0,-0.0071685,0,21706,54.207,13.889,-3.6159e-07,-8.6624e-14,-3.7074e-06,0.042479,1
21625,54.3,20.109,0,-0.0071685,0,21706,54.207,13.889,-3.6159e-07,-8.6624e-14,-3.7074e-06,0.042479,1
21625,54.3,20.109,0,-0.0071685,0,21706,54.207,13.889,-3.6159e-07,-8.6624e-14,-3.7074e-06,0.042479,1
21625,54.3,20.109,0,-0.0071685,0,21706,54.207,13.889,-3.6159e-07,-8.6624e-14,-3.7074e-06,0.042479,1
21625,54.3,20.109,0,-0.0071685,0,21706,54.207,13.889,-3.6159e-07,-8.6624e-14,-3.7074e-06,0.042479,1
21625,54.3,20.109,0,-0.0071685,0,21706,54.207,13.889,-3.6159e-07,-8.6624e-14,-3.7074e-06,0.042479,1
21625,54.3,20.109,0,-0.0071685,0,21706,54.207,13.889,-3.6159e-07,-8.6624e-14,-3.7074e-06,0.042479,1
21625,54.3,20.109,0,-0.0071685,0,21706,54.207,13.889,-3.6159e-07,-8.6624e-14,-3.7074e-06,0.042479,1
21625,54.3,20.109,0,-0.0071685,0,21706,54.207,13.889,-3.6159e-07,-8.6624e-14,-3.7074e-06,0.042479,1
21625,54.3,20.109,0,-0.0071685,0,21706,54.207,13.889,-4.8125e-07,-9.44e-14,-2.899e-06,0.042187,1
21625,54.3,20.109,0,-0.0071685,0,21706,54.207,13.889,-4.8125e-07,-9.44e-14,-2.899e-06,0.042187,1
21625,54.3,20.109,0,-0.0071685,0,21706,54.207,13.889,-4.8125e-07,-9.44e-14,-2.899e-06,0.042187,1
21625,54.3,20.109,0,-0.0071685,0,21706,54.207,13.889,-4.8125e-07,-9.44e-14,-2.899e-06,0.042187,1
21625,54.3,20.109,0,-0.0071685,0,21706,54.207,13.889,-4.8125e-07,-9.44e-14,-2.899e-06,0.042187,1
21625,54.3,20.109,0,-0.0071685,0,21706,54.207,13.889,-4.8125e-07,-9.44e-14,-2.899e-06,0.042187,1
21625,54.3,20.109,0,-0.0071685,0,21706,54.207,13.889,-4.8125e-07,-9.44e-14,-2.899e-06,0.042187,1
21625,54.3,20.109,0,-0.0071685,0,21706,54.207,13.889,-4.8125e-07,-9.44e-14,-2.899e-06,0.042187,1
21625,54.3,20.109,0,-0.0071685,0,21706,54.207,13.889,-4.8125e-07,-9.44e-14,-2.899e-06,0.042187,1
21626,54.3,20.108,0,-0.0075682,0,21706,54.207,13.889,-4.8125e-07,-9.44e-14,-2.899e-06,0.042611,1
21626,54.3,20.108,0,-0.0075682,0,21706,54.207,13.889,-4.8125e-07,-9.44e-14,-2.899e-06,0.042611,1
21626,54.3,20.108,0,-0.0075682,0,21706,54.207,13.889,-4.8125e-07,-9.44e-14,-2.899e-06,0.042611,1
21626,54.3,20.108,0,-0.0075682,0,21706,54.207,13.889,-4.8125e-07,-9.44e-14,-2.899e-06,0.042611,1
21626,54.3,20.108,0,-0.0075682,0,21706,54.207,13.889,-4.8125e-07,-9.44e-14,-2.899e-06,0.042611,1
21626,54.3,20.108,0,-0.0075682,0,21706,54.207,13.889,-4.8125e-07,-9.44e-14,-2.899e-06,0.042611,1
21626,54.3,20.108,0,-0.0075682,0,21706,54.207,13.889,-4.8125e-07,-9.44e-14,-2.899e-06,0.042611,1
21626,54.3,20.108,0,-0.0075682,0,21706,54.207,13.889,-4.8125e-07,-9.44e-14,-2.899e-06,0.042611,1
21627,54.3,20.108,0,-0.0079553,0,21706,54.207,13.889,-4.8125e-07,-9.44e-14,-2.899e-06,0.043043,1
21628,54.3,20.108,0,-0.0085121,0,21708,54.207,13.889,-6.6368e-07,-6.184e-14,-1.3204e-06,0.042944,1
21628,54.3,20.108,0,-0.0085121,0,21708,54.207,13.889,-6.6368e-07,-6.184e-14,-1.3204e-06,0.042944,1
21628,54.3,20.108,0,-0.0085121,0,21709,54.207,13.889,-7.2324e-07,-1.3653e-14,-2.6315e-07,0.042207,1
21631,54.3,20.106,0,-0.0098628,0,21710,54.207,13.889,-7.2289e-07,2.2017e-15,4.2276e-08,0.043643,1
21631,54.3,20.106,0,-0.0098628,0,21710,54.207,13.889,-7.2289e-07,2.2017e-15,4.2276e-08,0.043643,1
21631,54.3,20.106,0,-0.0098628,0,21710,54.207,13.889,-7.2289e-07,2.2017e-15,4.2276e-08,0.043643,1
21631,54.3,20.106,0,-0.0098628,0,21710,54.207,13.889,-7.2289e-07,2.2017e-15,4.2276e-08,0.043643,1
21631,54.3,20.106,0,-0.0098628,0,21710,54.207,13.889,-7.2289e-07,2.2017e-15,4.2276e-08,0.043643,1
21631,54.3,20.106,0,-0.0098628,0,21710,54.207,13.889,-7.2289e-07,2.2017e-15,4.2276e-08,0.043643,1
21631,54.3,20.106,0,-0.0098628,0,21710,54.207,13.889,-7.2289e-07,2.2017e-15,4.2276e-08,0.043643,1
21631,54.3,20.106,0,-0.0098628,0,21710,54.207,13.889,-7.2289e-07,2.2017e-15,4.2276e-08,0.043643,1
21631,54.3,20.106,0,-0.0098628,0,21710,54.207,13.889,-7.2289e-07,2.2017e-15,4.2276e-08,0.043643,1
21631,54.3,20.106,0,-0.0098628,0,21710,54.207,13.889,-7.2289e-07,2.2017e-15,4.2276e-08,0.043643,1
21631,54.3,20.106,0,-0.0098628,0,21710,54.207,13.889,-7.0382e-07,2.0245e-14,3.9727e-07,0.043183,1
21631,54.3,20.106,0,-0.0098628,0,21710,54.207,13.889,-7.0382e-07,2.0245e-14,3.9727e-07,0.043183,1
21631,54.3,20.106,0,-0.0098628,0,21710,54.207,13.889,-7.0382e-07,2.0245e-14,3.9727e-07,0.043183,1
21631,54.3,20.106,0,-0.0098628,0,21710,54.207,13.889,-7.0382e-07,2.0245e-14,3.9727e-07,0.043183,1
21631,54.3,20.106,0,-0.0098628,0,21710,54.207,13.889,-7.0382e-07,2.0245e-14,3.9727e-07,0.043183,1
21631,54.3,20.106,0,-0.0098628,0,21710,54.207,13.889,-7.0382e-07,2.0245e-14,3.9727e-07,0.043183,1
21631,54.3,20.106,0,-0.0098628,0,21710,54.207,13.889,-7.0382e-07,2.0245e-14,3.9727e-07,0.043183,1
21632,54.3,20.106,0,-0.010173,0,21710,54.207,13.889,-7.0382e-07,2.0245e-14,3.9727e-07,0.043626,1
21632,54.3,20.106,0,-0.010173,0,21710,54.207,13.889,-7.0382e-07,2.0245e-14,3.9727e-07,0.043626,1
21632,54.3,20.106,0,-0.010173,0,21710,54.207,13.889,-7.0382e-07,2.0245e-14,3.9727e-07,0.043626,1
21632,54.3,20.106,0,-0.010173,0,21710,54.207,13.889,-7.0382e-07,2.0245e-14,3.9727e-07,0.043626,1
21632,54.3,20.106,0,-0.010173,0,21710,54.207,13.889,-7.0382e-07,2.0245e-14,3.9727e-07,0.043626,1
21632,54.3,20.106,0,-0.010173,0,21710,54.207,13.889,-7.0382e-07,2.0245e-14,3.9727e-07,0.043626,1
21632,54.3,20.106,0,-0.010173,0,21710,54.207,13.889,-7.0382e-07,2.0245e-14,3.9727e-07,0.043626,1
21634,54.3,20.105,0,-0.010771,0,21711,54.207,13.889,-6.8158e-07,2.844e-14,5.747e-07,0.044221,1
21634,54.3,20.105,0,-0.010914,0,21711,54.207,13.889,-6.8158e-07,2.844e-14,5.747e-07,0.044453,1
21634,54.3,20.105,0,-0.010914,0,21713,54.207,13.889,-5.6803e-07,3.7876e-14,9.1148e-07,0.043355,1
21637,54.3,20.103,0,-0.011736,0,21713,54.207,13.889,-5.4929e-07,3.7469e-14,9.3161e-07,0.044563,1
21637,54.3,20.103,0,-0.011736,0,21713,54.207,13.889,-5.4929e-07,3.7469e-14,9.3161e-07,0.044563,1
21637,54.3,20.103,0,-0.011736,0,21714,54.207,13.889,-4.9185e-07,3.4711e-14,9.6138e-07,0.044084,1
21637,54.3,20.103,0,-0.011736,0,21714,54.207,13.889,-4.9185e-07,3.4711e-14,9.6138e-07,0.044084,1
21637,54.3,20.103,0,-0.011736,0,21714,54.207,13.889,-4.9185e-07,3.4711e-14,9.6138e-07,0.044084,1
21637,54.3,20.103,0,-0.011736,0,21714,54.207,13.889,-4.9185e-07,3.4711e-14,9.6138e-07,0.044084,1
21637,54.3,20.103,0,-0.011736,0,21714,54.207,13.889,-4.9185e-07,3.4711e-14,9.6138e-07,0.044084,1
21637,54.3,20.103,0,-0.011736,0,21714,54.207,13.889,-4.9185e-07,3.4711e-14,9.6138e-07,0.044084,1
21637,54.3,20.103,0,-0.011736,0,21714,54.207,13.889,-4.7259e-07,3.3419e-14,9.6255e-07,0.043926,1
21637,54.3,20.103,0,-0.011736,0,21714,54.207,13.889,-4.7259e-07,3.3419e-14,9.6255e-07,0.043926,1
21637,54.3,20.103,0,-0.011736,0,21714,54.207,13.889,-4.7259e-07,3.3419e-14,9.6255e-07,0.043926,1
21637,54.3,20.103,0,-0.011736,0,21714,54.207,13.889,-4.7259e-07,3.3419e-14,9.6255e-07,0.043926,1
21637,54.3,20.103,0,-0.011736,0,21714,54.207,13.889,-4.7259e-07,3.3419e-14,9.6255e-07,0.043926,1
21637,54.3,20.103,0,-0.011736,0,21714,54.207,13.889,-4.7259e-07,3.3419e-14,9.6255e-07,0.043926,1
21637,54.3,20.103,0,-0.011736,0,21714,54.207,13.889,-4.7259e-07,3.3419e-14,9.6255e-07,0.043926,1
21637,54.3,20.103,0,-0.011736,0,21714,54.207,13.889,-4.7259e-07,3.3419e-14,9.6255e-07,0.043926,1
21637,54.3,20.103,0,-0.011736,0,21714,54.207,13.889,-4.7259e-07,3.3419e-14,9.6255e-07,0.043926,1
21638,54.3,20.103,0,-0.012126,0,21714,54.207,13.889,-4.7259e-07,3.3419e-14,9.6255e-07,0.044618,1
21638,54.3,20.103,0,-0.012126,0,21714,54.207,13.889,-4.7259e-07,3.3419e-14,9.6255e-07,0.044618,1
21638,54.3,20.103,0,-0.012126,0,21714,54.207,13.889,-4.7259e-07,3.3419e-14,9.6255e-07,0.044618,1
21638,54.3,20.103,0,-0.012126,0,21714,54.207,13.889,-4.7259e-07,3.3419e-14,9.6255e-07,0.044618,1
21638,54.3,20.103,0,-0.012126,0,21714,54.207,13.889,-4.7259e-07,3.3419e-14,9.6255e-07,0.044618,1
21638,54.3,20.103,0,-0.012126,0,21714,54.207,13.889,-4.7259e-07,3.3419e-14,9.6255e-07,0.044618,1
21638,54.3,20.103,0,-0.012126,0,21714,54.207,13.889,-4.7259e-07,3.3419e-14,9.6255e-07,0.044618,1
21638,54.3,20.103,0,-0.012126,0,21714,54.207,13.889,-4.7259e-07,3.3419e-14,9.6255e-07,0.044618,1
21639,54.3,20.102,0,-0.012504,0,21715,54.207,13.889,-4.3434e-07,3.0492e-14,9.541e-07,0.045001,1
21639,54.3,20.102,0,-0.012504,0,21715,54.207,13.889,-4.3434e-07,3.0492e-14,9.541e-07,0.045001,1
21639,54.3,20.102,0,-0.012627,0,21715,54.207,13.889,-4.3434e-07,3.0492e-14,9.541e-07,0.045241,1
21639,54.3,20.102,0,-0.012627,0,21717,54.207,13.889,-3.0889e-07,1.9311e-14,8.4516e-07,0.044104,1
21641,54.3,20.1,0,-0.013221,0,21717,54.207,13.889,-3.0889e-07,1.9311e-14,8.4516e-07,0.04528,1
21641,54.3,20.1,0,-0.013221,0,21717,54.207,13.889,-3.0889e-07,1.9311e-14,8.4516e-07,0.04528,1
21641,54.3,20.1,0,-0.013221,0,21718,54.207,13.889,-2.4633e-07,1.3739e-14,7.5171e-07,0.044623,1
21641,54.3,20.1,0,-0.013221,0,21718,54.207,13.889,-2.4633e-07,1.3739e-14,7.5171e-07,0.044623,1
21641,54.3,20.1,0,-0.013221,0,21718,54.207,13.889,-2.4633e-07,1.3739e-14,7.5171e-07,0.044623,1
21641,54.3,20.1,0,-0.013221,0,21718,54.207,13.889,-2.4633e-07,1.3739e-14,7.5171e-07,0.044623,1
21643,54.3,20.099,0,-0.013677,0,21718,54.207,13.889,-2.4633e-07,1.3739e-14,7.5171e-07,0.04558,1
21643,54.3,20.099,0,-0.013677,0,21718,54.207,13.889,-2.4633e-07,1.3739e-14,7.5171e-07,0.04558,1
21643,54.3,20.099,0,-0.013677,0,21718,54.207,13.889,-2.4633e-07,1.3739e-14,7.5171e-07,0.04558,1
21643,54.3,20.099,0,-0.013677,0,21718,54.207,13.889,-2.4633e-07,1.3739e-14,7.5171e-07,0.04558,1
21643,54.3,20.099,0,-0.013677,0,21718,54.207,13.889,-2.4633e-07,1.3739e-14,7.5171e-07,0.04558,1
21643,54.3,20.099,0,-0.013677,0,21718,54.207,13.889,-2.4633e-07,1.3739e-14,7.5171e-07,0.04558,1
21643,54.3,20.099,0,-0.013677,0,21718,54.207,13.889,-2.4633e-07,1.3739e-14,7.5171e-07,0.04558,1
21643,54.3,20.099,0,-0.013787,0,21718,54.207,13.889,-2.4633e-07,1.3739e-14,7.5171e-07,0.045826,1
21643,54.3,20.099,0,-0.013787,0,21718,54.207,13.889,-2.4633e-07,1.3739e-14,7.5171e-07,0.045826,1
21643,54.3,20.099,0,-0.013787,0,21718,54.207,13.889,-2.4633e-07,1.3739e-14,7.5171e-07,0.045826,1
21644,54.3,20.099,0,-0.013897,0,21718,54.207,13.889,-2.4633e-07,1.3739e-14,7.5171e-07,0.046075,1
21644,54.3,20.099,0,-0.013897,0,21718,54.207,13.889,-2.4633e-07,1.3739e-14,7.5171e-07,0.046075,1
21644,54.3,20.099,0,-0.013897,0,21718,54.207,13.889,-2.4633e-07,1.3739e-14,7.5171e-07,0.046075,1
21645,54.3,20.098,0,-0.014114,0,21718,54.207,13.889,-2.4633e-07,1.3739e-14,7.5171e-07,0.04658,1
21645,54.3,20.098,0,-0.014222,0,21718,54.207,13.889,-2.4633e-07,1.3739e-14,7.5171e-07,0.046837,1
21646,54.3,20.097,0,-0.014538,0,21720,54.207,13.889,-1.4531e-07,5.9608e-15,5.4899e-07,0.046193,1
21647,54.3,20.096,0,-0.014744,0,21721,54.207,13.889,-1.2507e-07,4.6826e-15,5e-07,0.046349,1
21647,54.3,20.096,0,-0.014847,0,21721,54.207,13.889,-1.2507e-07,4.6826e-15,5e-07,0.046603,1
21647,54.3,20.096,0,-0.014847,0,21721,54.207,13.889,-1.2507e-07,4.6826e-15,5e-07,0.046603,1
21647,54.3,20.096,0,-0.014847,0,21721,54.207,13.889,-1.2507e-07,4.6826e-15,5e-07,0.046603,1
21647,54.3,20.096,0,-0.014847,0,21721,54.207,13.889,-1.2507e-07,4.6826e-15,5e-07,0.046603,1
21647,54.3,20.096,0,-0.014847,0,21721,54.207,13.889,-1.2507e-07,4.6826e-15,5e-07,0.046603,1
21647,54.3,20.096,0,-0.014847,0,21721,54.207,13.889,-1.2507e-07,4.6826e-15,5e-07,0.046603,1
21647,54.3,20.096,0,-0.014847,0,21721,54.207,13.889,-1.2507e-07,4.6826e-15,5e-07,0.046603,1
21647,54.3,20.096,0,-0.014847,0,21721,54.207,13.889,-1.2507e-07,4.6826e-15,5e-07,0.046603,1
21647,54.3,20.096,0,-0.014847,0,21721,54.207,13.889,-1.2507e-07,4.6826e-15,5e-07,0.046603,1
21647,54.3,20.096,0,-0.014847,0,21721,54.207,13.889,-1.2507e-07,4.6826e-15,5e-07,0.046603,1
21647,54.3,20.096,0,-0.014847,0,21721,54.207,13.889,-9.8248e-08,3.1747e-15,4.2997e-07,0.046079,1
21647,54.3,20.096,0,-0.014847,0,21721,54.207,13.889,-9.8248e-08,3.1747e-15,4.2997e-07,0.046079,1
21647,54.3,20.096,0,-0.014847,0,21721,54.207,13.889,-9.8248e-08,3.1747e-15,4.2997e-07,0.046079,1
21647,54.3,20.096,0,-0.014847,0,21721,54.207,13.889,-9.8248e-08,3.1747e-15,4.2997e-07,0.046079,1
21647,54.3,20.096,0,-0.014847,0,21721,54.207,13.889,-9.8248e-08,3.1747e-15,4.2997e-07,0.046079,1
21647,54.3,20.096,0,-0.014847,0,21721,54.207,13.889,-9.8248e-08,3.1747e-15,4.2997e-07,0.046079,1
21647,54.3,20.096,0,-0.014847,0,21721,54.207,13.889,-9.8248e-08,3.1747e-15,4.2997e-07,0.046079,1
21647,54.3,20.096,0,-0.014847,0,21721,54.207,13.889,-9.8248e-08,3.1747e-15,4.2997e-07,0.046079,1
21647,54.3,20.096,0,-0.014847,0,21721,54.207,13.889,-9.8248e-08,3.1747e-15,4.2997e-07,0.046079,1
21648,54.3,20.095,0,-0.023356,0,21721,54.207,13.889,-9.8248e-08,3.1747e-15,4.2997e-07,0.046584,1
21648,54.3,20.095,0,-0.023356,0,21721,54.207,13.889,-9.8248e-08,3.1747e-15,4.2997e-07,0.046584,1
21648,54.3,20.095,0,-0.023356,0,21721,54.207,13.889,-9.8248e-08,3.1747e-15,4.2997e-07,0.046584,1
21648,54.3,20.095,0,-0.023356,0,21721,54.207,13.889,-9.8248e-08,3.1747e-15,4.2997e-07,0.046584,1
21648,54.3,20.095,0,-0.023356,0,21721,54.207,13.889,-9.8248e-08,3.1747e-15,4.2997e-07,0.046584,1
21648,54.3,20.095,0,-0.023356,0,21721,54.207,13.889,-9.8248e-08,3.1747e-15,4.2997e-07,0.046584,1
21648,54.3,20.095,0,-0.023356,0,21721,54.207,13.889,-9.8248e-08,3.1747e-15,4.2997e-07,0.046584,1
21648,54.3,20.095,0,-0.023356,0,21721,54.207,13.889,-9.8248e-08,3.1747e-15,4.2997e-07,0.046584,1
21650,54.3,20.093,0,-0.041703,0,21722,54.207,13.889,-7.5398e-08,2.0776e-15,3.6504e-07,0.047082,1
21650,54.3,20.093,0,-0.041703,0,21722,54.207,13.889,-7.5398e-08,2.0776e-15,3.6504e-07,0.047082,1
21652,54.3,20.088,0,-0.062271,0,21723,54.207,13.889,-5.0532e-08,1.1054e-15,2.8746e-07,0.047672,1
21652,54.3,20.088,0,-0.062271,0,21723,54.207,13.889,-5.0532e-08,1.1054e-15,2.8746e-07,0.047672,1
21652,54.3,20.088,0,-0.062271,0,21723,54.207,13.889,-5.0532e-08,1.1054e-15,2.8746e-07,0.047672,1
21653,54.3,20.082,0,-0.077064,0,21725,54.207,13.889,-2.3486e-08,3.4994e-16,1.9135e-07,0.047632,1
21653,54.3,20.082,0,-0.077064,0,21725,54.207,13.889,-2.3486e-08,3.4994e-16,1.9135e-07,0.047632,1
21653,54.3,20.082,0,-0.077064,0,21725,54.207,13.889,-2.3486e-08,3.4994e-16,1.9135e-07,0.047632,1
21653,54.3,20.082,0,-0.077064,0,21725,54.207,13.889,-2.3486e-08,3.4994e-16,1.9135e-07,0.047632,1
21653,54.3,20.082,0,-0.077064,0,21725,54.207,13.889,-2.3486e-08,3.4994e-16,1.9135e-07,0.047632,1
21653,54.3,20.082,0,-0.077064,0,21725,54.207,13.889,-2.3486e-08,3.4994e-16,1.9135e-07,0.047632,1
21653,54.3,20.082,0,-0.077064,0,21726,54.207,13.889,-1.6776e-08,2.1834e-16,1.6462e-07,0.047266,1
21653,54.3,20.082,0,-0.077064,0,21726,54.207,13.889,-1.6776e-08,2.1834e-16,1.6462e-07,0.047266,1
21653,54.3,20.082,0,-0.077064,0,21726,54.207,13.889,-1.6776e-08,2.1834e-16,1.6462e-07,0.047266,1
21653,54.3,20.082,0,-0.077064,0,21726,54.207,13.889,-1.6776e-08,2.1834e-16,1.6462e-07,0.047266,1
21653,54.3,20.082,0,-0.077064,0,21726,54.207,13.889,-1.6776e-08,2.1834e-16,1.6462e-07,0.047266,1
21653,54.3,20.082,0,-0.077064,0,21726,54.207,13.889,-1.6776e-08,2.1834e-16,1.6462e-07,0.047266,1
21654,54.3,20.079,0,-0.083974,0,21726,54.207,13.889,-1.6776e-08,2.1834e-16,1.6462e-07,0.047797,1
21654,54.3,20.079,0,-0.083974,0,21726,54.207,13.889,-1.6776e-08,2.1834e-16,1.6462e-07,0.047797,1
21654,54.3,20.079,0,-0.083974,0,21726,54.207,13.889,-1.6776e-08,2.1834e-16,1.6462e-07,0.047797,1
21654,54.3,20.079,0,-0.083974,0,21726,54.207,13.889,-1.6776e-08,2.1834e-16,1.6462e-07,0.047797,1
21654,54.3,20.079,0,-0.083974,0,21726,54.207,13.889,-1.6776e-08,2.1834e-16,1.6462e-07,0.047797,1
21654,54.3,20.079,0,-0.083974,0,21726,54.207,13.889,-1.6776e-08,2.1834e-16,1.6462e-07,0.047797,1
21654,54.3,20.079,0,-0.083974,0,21726,54.207,13.889,-1.6776e-08,2.1834e-16,1.6462e-07,0.047797,1
21655,54.3,20.077,0,-0.087317,0,21726,54.207,13.889,-1.6776e-08,2.1834e-16,1.6462e-07,0.048067,1
21655,54.3,20.077,0,-0.087317,0,21727,54.207,13.889,-6.2011e-09,6.307e-17,1.1858e-07,0.047327,1
21655,54.3,20.077,0,-0.087317,0,21727,54.207,13.889,-6.2011e-09,6.307e-17,1.1858e-07,0.047327,1
21655,54.3,20.077,0,-0.087317,0,21727,54.207,13.889,-6.2011e-09,6.307e-17,1.1858e-07,0.047327,1
21655,54.3,20.077,0,-0.087317,0,21727,54.207,13.889,-6.2011e-09,6.307e-17,1.1858e-07,0.047327,1
21657,54.3,20.067,0,-0.10787,0,21727,54.207,13.889,-6.2011e-09,6.307e-17,1.1858e-07,0.048682,1
21657,54.3,20.067,0,-0.10787,0,21727,54.207,13.889,-6.2011e-09,6.307e-17,1.1858e-07,0.048682,1
21657,54.3,20.067,0,-0.10787,0,21727,54.207,13.889,-6.2011e-09,6.307e-17,1.1858e-07,0.048682,1
21657,54.3,20.067,0,-0.10787,0,21727,54.207,13.889,-6.2011e-09,6.307e-17,1.1858e-07,0.048682,1
21658,54.3,20.058,0,-0.12438,0,21728,54.207,13.889,1.1979e-09,-2.2425e-18,8.1649e-08,0.049027,1
21658,54.3,20.058,0,-0.12438,0,21728,54.207,13.889,1.1979e-09,-2.2425e-18,8.1649e-08,0.049027,1
21658,54.3,20.058,0,-0.12438,0,21728,54.207,13.889,1.1979e-09,-2.2425e-18,8.1649e-08,0.049027,1
21659,54.3,20.056,0,-0.12843,0,21728,54.207,13.889,1.1979e-09,-2.2425e-18,8.1649e-08,0.049311,1
21659,54.3,20.056,0,-0.12843,0,21729,54.207,13.889,6.9902e-09,-2.1886e-17,4.659e-08,0.048341,1
21659,54.3,20.05,0,-0.13644,0,21729,54.207,13.889,6.9902e-09,-2.1886e-17,4.659e-08,0.048896,1
21659,54.3,20.05,0,-0.13644,0,21730,54.207,13.889,8.4629e-09,-2.0758e-17,3.5562e-08,0.048511,1
21659,54.3,20.05,0,-0.13644,0,21730,54.207,13.889,8.4629e-09,-2.0758e-17,3.5562e-08,0.048511,1
21659,54.3,20.05,0,-0.13644,0,21730,54.207,13.889,8.4629e-09,-2.0758e-17,3.5562e-08,0.048511,1
21659,54.3,20.05,0,-0.13644,0,21730,54.207,13.889,8.4629e-09,-2.0758e-17,3.5562e-08,0.048511,1
21659,54.3,20.05,0,-0.13644,0,21730,54.207,13.889,9.0501e-09,-1.9276e-17,3.0618e-08,0.04832,1
21661,54.3,20.042,0,-0.14823,0,21730,54.207,13.889,9.0501e-09,-1.9276e-17,3.0618e-08,0.049157,1
21661,54.3,20.039,0,-0.1521,0,21730,54.207,13.889,9.0501e-09,-1.9276e-17,3.0618e-08,0.049442,1
21661,54.3,20.039,0,-0.1521,0,21730,54.207,13.889,9.0501e-09,-1.9276e-17,3.0618e-08,0.049442,1
21661,54.3,20.039,0,-0.1521,0,21730,54.207,13.889,9.0501e-09,-1.9276e-17,3.0618e-08,0.049442,1
21661,54.3,20.039,0,-0.1521,0,21730,54.207,13.889,9.0501e-09,-1.9276e-17,3.0618e-08,0.049442,1
21661,54.3,20.039,0,-0.1521,0,21730,54.207,13.889,9.0501e-09,-1.9276e-17,3.0618e-08,0.049442,1
21661,54.3,20.039,0,-0.1521,0,21730,54.207,13.889,9.0501e-09,-1.9276e-17,3.0618e-08,0.049442,1
21661,54.3,20.039,0,-0.1521,0,21730,54.207,13.889,9.0501e-09,-1.9276e-17,3.0618e-08,0.049442,1
21662,54.3,20.032,0,-0.15975,0,21731,54.207,13.889,1.0299e-08,-1.3017e-17,1.7864e-08,0.049419,1
21662,54.3,20.032,0,-0.15975,0,21731,54.207,13.889,1.0767e-08,-8.3843e-18,1.0926e-08,0.049025,1
21662,54.3,20.032,0,-0.15975,0,21731,54.207,13.889,1.0767e-08,-8.3843e-18,1.0926e-08,0.049025,1
21662,54.3,20.032,0,-0.15975,0,21731,54.207,13.889,1.0767e-08,-8.3843e-18,1.0926e-08,0.049025,1
21662,54.3,20.032,0,-0.15975,0,21731,54.207,13.889,1.0767e-08,-8.3843e-18,1.0926e-08,0.049025,1
21662,54.3,20.032,0,-0.15975,0,21731,54.207,13.889,1.0767e-08,-8.3843e-18,1.0926e-08,0.049025,1
21662,54.3,20.032,0,-0.15975,0,21731,54.207,13.889,1.0767e-08,-8.3843e-18,1.0926e-08,0.049025,1
21662,54.3,20.032,0,-0.15975,0,21731,54.207,13.889,1.0767e-08,-8.3843e-18,1.0926e-08,0.049025,1
21662,54.3,20.032,0,-0.15975,0,21731,54.207,13.889,1.0767e-08,-8.3843e-18,1.0926e-08,0.049025,1
21663,54.3,20.019,0,-0.17472,0,21732,54.207,13.889,1.0909e-08,-6.1443e-18,7.8797e-09,0.049975,1
21663,54.3,20.019,0,-0.17472,0,21733,54.207,13.889,1.1028e-08,-1.9854e-19,2.5011e-10,0.049373,1
21663,54.3,20.019,0,-0.17472,0,21733,54.207,13.889,1.1028e-08,-1.9854e-19,2.5011e-10,0.049373,1
21663,54.3,20.019,0,-0.17472,0,21733,54.207,13.889,1.1028e-08,-1.9854e-19,2.5011e-10,0.049373,1
21663,54.3,20.019,0,-0.17472,0,21733,54.207,13.889,1.1028e-08,-1.9854e-19,2.5011e-10,0.049373,1
21663,54.3,20.019,0,-0.17472,0,21733,54.207,13.889,1.1028e-08,-1.9854e-19,2.5011e-10,0.049373,1
21663,54.3,20.019,0,-0.17472,0,21733,54.207,13.889,1.1028e-08,-1.9854e-19,2.5011e-10,0.049373,1
21664,54.3,20.012,0,-0.18204,0,21733,54.207,13.889,1.1028e-08,-1.9854e-19,2.5011e-10,0.049951,1
21665,54.3,20.001,0,-0.19281,0,21733,54.207,13.889,1.078e-08,4.2155e-18,-5.4043e-09,0.050221,1
21665,54.3,20.001,0,-0.19281,0,21733,54.207,13.889,1.078e-08,4.2155e-18,-5.4043e-09,0.050221,1
21665,54.3,20.001,0,-0.19281,0,21733,54.207,13.889,1.078e-08,4.2155e-18,-5.4043e-09,0.050221,1
21665,54.3,20.001,0,-0.19281,0,21734,54.207,13.889,1.0462e-08,6.2607e-18,-8.2465e-09,0.049814,1
21665,54.3,20.001,0,-0.19281,0,21734,54.207,13.889,1.0462e-08,6.2607e-18,-8.2465e-09,0.049814,1
21665,54.3,20.001,0,-0.19281,0,21735,54.207,13.889,9.8213e-09,8.1167e-18,-1.1347e-08,0.049215,1
21665,54.3,20.001,0,-0.19281,0,21735,54.207,13.889,9.8213e-09,8.1167e-18,-1.1347e-08,0.049215,1
21665,54.3,20.001,0,-0.19281,0,21735,54.207,13.889,9.8213e-09,8.1167e-18,-1.1347e-08,0.049215,1
21665,54.3,20.001,0,-0.19281,0,21735,54.207,13.889,9.8213e-09,8.1167e-18,-1.1347e-08,0.049215,1
21665,54.3,20.001,0,-0.19281,0,21735,54.207,13.889,9.8213e-09,8.1167e-18,-1.1347e-08,0.049215,1
21665,54.3,20.001,0,-0.19281,0,21735,54.207,13.889,9.8213e-09,8.1167e-18,-1.1347e-08,0.049215,1
21665,54.3,20.001,0,-0.19281,0,21735,54.207,13.889,9.8213e-09,8.1167e-18,-1.1347e-08,0.049215,1
21665,54.3,20.001,0,-0.19281,0,21735,54.207,13.889,9.8213e-09,8.1167e-18,-1.1347e-08,0.049215,1
21665,54.3,20.001,0,-0.19281,0,21735,54.207,13.889,9.8213e-09,8.1167e-18,-1.1347e-08,0.049215,1
21667,54.3,19.981,0,-0.21025,0,21735,54.207,13.889,9.8213e-09,8.1167e-18,-1.1347e-08,0.050676,1
21667,54.3,19.981,0,-0.21025,0,21735,54.207,13.889,9.8213e-09,8.1167e-18,-1.1347e-08,0.050676,1
21667,54.3,19.981,0,-0.21025,0,21735,54.207,13.889,9.8213e-09,8.1167e-18,-1.1347e-08,0.050676,1
21667,54.3,19.981,0,-0.21025,0,21735,54.207,13.889,9.3165e-09,8.6758e-18,-1.2759e-08,0.050261,1
21667,54.3,19.981,0,-0.21025,0,21735,54.207,13.889,9.3165e-09,8.6758e-18,-1.2759e-08,0.050261,1
21667,54.3,19.981,0,-0.21025,0,21736,54.207,13.889,9.0478e-09,8.7889e-18,-1.3296e-08,0.050056,1
21670,54.3,19.954,0,-0.23036,0,21736,54.207,13.889,8.7708e-09,8.8077e-18,-1.3732e-08,0.051661,1
21670,54.3,19.954,0,-0.23036,0,21736,54.207,13.889,8.7708e-09,8.8077e-18,-1.3732e-08,0.051661,1
21670,54.3,19.954,0,-0.23036,0,21737,54.207,13.889,7.6152e-09,8.1703e-18,-1.4621e-08,0.050807,1
21671,54.3,19.945,0,-0.23687,0,21737,54.207,13.889,7.6152e-09,8.1703e-18,-1.4621e-08,0.051417,1
21671,54.3,19.945,0,-0.23687,0,21738,54.207,13.889,7.0287e-09,7.5671e-18,-1.4648e-08,0.050991,1
21671,54.3,19.945,0,-0.23687,0,21738,54.207,13.889,7.0287e-09,7.5671e-18,-1.4648e-08,0.050991,1
21671,54.3,19.945,0,-0.23687,0,21738,54.207,13.889,7.0287e-09,7.5671e-18,-1.4648e-08,0.050991,1
21671,54.3,19.945,0,-0.23687,0,21738,54.207,13.889,7.0287e-09,7.5671e-18,-1.4648e-08,0.050991,1
21671,54.3,19.945,0,-0.23687,0,21738,54.207,13.889,7.0287e-09,7.5671e-18,-1.4648e-08,0.050991,1
21671,54.3,19.945,0,-0.23687,0,21738,54.207,13.889,7.0287e-09,7.5671e-18,-1.4648e-08,0.050991,1
21671,54.3,19.945,0,-0.23687,0,21738,54.207,13.889,7.0287e-09,7.5671e-18,-1.4648e-08,0.050991,1
21671,54.3,19.945,0,-0.23687,0,21738,54.207,13.889,7.0287e-09,7.5671e-18,-1.4648e-08,0.050991,1
21671,54.3,19.945,0,-0.23687,0,21738,54.207,13.889,7.0287e-09,7.5671e-18,-1.4648e-08,0.050991,1
21671,54.3,19.935,0,-0.24328,0,21738,54.207,13.889,7.0287e-09,7.5671e-18,-1.4648e-08,0.051605,1
21671,54.3,19.935,0,-0.24328,0,21738,54.207,13.889,7.0287e-09,7.5671e-18,-1.4648e-08,0.051605,1
21671,54.3,19.935,0,-0.24328,0,21738,54.207,13.889,7.0287e-09,7.5671e-18,-1.4648e-08,0.051605,1
21671,54.3,19.935,0,-0.24328,0,21738,54.207,13.889,7.0287e-09,7.5671e-18,-1.4648e-08,0.051605,1
21672,54.3,19.93,0,-0.24646,0,21738,54.207,13.889,7.0287e-09,7.5671e-18,-1.4648e-08,0.051918,1
21672,54.3,19.93,0,-0.24646,0,21738,54.207,13.889,7.0287e-09,7.5671e-18,-1.4648e-08,0.051918,1
21672,54.3,19.93,0,-0.24646,0,21738,54.207,13.889,7.0287e-09,7.5671e-18,-1.4648e-08,0.051918,1
21672,54.3,19.93,0,-0.24646,0,21738,54.207,13.889,7.0287e-09,7.5671e-18,-1.4648e-08,0.051918,1
21672,54.3,19.93,0,-0.24646,0,21738,54.207,13.889,7.0287e-09,7.5671e-18,-1.4648e-08,0.051918,1
21672,54.3,19.93,0,-0.24646,0,21738,54.207,13.889,7.0287e-09,7.5671e-18,-1.4648e-08,0.051918,1
21672,54.3,19.925,0,-0.24961,0,21738,54.207,13.889,7.0287e-09,7.5671e-18,-1.4648e-08,0.052235,1
21674,54.3,19.905,0,-0.262,0,21739,54.207,13.889,5.606e-09,5.7371e-18,-1.387e-08,0.052398,1
21675,54.3,19.894,0,-0.26806,0,21740,54.207,13.889,4.8114e-09,4.629e-18,-1.301e-08,0.052368,1
21675,54.3,19.894,0,-0.26806,0,21740,54.207,13.889,4.8114e-09,4.629e-18,-1.301e-08,0.052368,1
21676,54.3,19.878,0,-0.277,0,21741,54.207,13.889,4.0767e-09,3.6188e-18,-1.1977e-08,0.052659,1
21676,54.3,19.878,0,-0.277,0,21741,54.207,13.889,4.0767e-09,3.6188e-18,-1.1977e-08,0.052659,1
21676,54.3,19.878,0,-0.277,0,21741,54.207,13.889,4.0767e-09,3.6188e-18,-1.1977e-08,0.052659,1
21676,54.3,19.878,0,-0.277,0,21741,54.207,13.889,4.0767e-09,3.6188e-18,-1.1977e-08,0.052659,1
21676,54.3,19.878,0,-0.277,0,21741,54.207,13.889,4.0767e-09,3.6188e-18,-1.1977e-08,0.052659,1
21676,54.3,19.878,0,-0.277,0,21741,54.207,13.889,4.0767e-09,3.6188e-18,-1.1977e-08,0.052659,1
21676,54.3,19.878,0,-0.277,0,21741,54.207,13.889,4.0767e-09,3.6188e-18,-1.1977e-08,0.052659,1
21676,54.3,19.878,0,-0.277,0,21741,54.207,13.889,4.0767e-09,3.6188e-18,-1.1977e-08,0.052659,1
21676,54.3,19.878,0,-0.277,0,21741,54.207,13.889,3.6236e-09,3.0209e-18,-1.1231e-08,0.052212,1
21676,54.3,19.878,0,-0.277,0,21741,54.207,13.889,3.6236e-09,3.0209e-18,-1.1231e-08,0.052212,1
21676,54.3,19.878,0,-0.277,0,21741,54.207,13.889,3.6236e-09,3.0209e-18,-1.1231e-08,0.052212,1
21676,54.3,19.878,0,-0.277,0,21741,54.207,13.889,3.6236e-09,3.0209e-18,-1.1231e-08,0.052212,1
21676,54.3,19.878,0,-0.277,0,21741,54.207,13.889,3.6236e-09,3.0209e-18,-1.1231e-08,0.052212,1
21676,54.3,19.878,0,-0.277,0,21741,54.207,13.889,3.6236e-09,3.0209e-18,-1.1231e-08,0.052212,1
21676,54.3,19.878,0,-0.277,0,21741,54.207,13.889,3.6236e-09,3.0209e-18,-1.1231e-08,0.052212,1
21676,54.3,19.878,0,-0.277,0,21741,54.207,13.889,3.4086e-09,2.7468e-18,-1.0847e-08,0.051991,1
21676,54.3,19.878,0,-0.277,0,21741,54.207,13.889,3.4086e-09,2.7468e-18,-1.0847e-08,0.051991,1
21676,54.3,19.878,0,-0.277,0,21741,54.207,13.889,3.4086e-09,2.7468e-18,-1.0847e-08,0.051991,1
21676,54.3,19.878,0,-0.277,0,21741,54.207,13.889,3.4086e-09,2.7468e-18,-1.0847e-08,0.051991,1
21676,54.3,19.878,0,-0.277,0,21741,54.207,13.889,3.4086e-09,2.7468e-18,-1.0847e-08,0.051991,1
21676,54.3,19.878,0,-0.277,0,21741,54.207,13.889,3.4086e-09,2.7468e-18,-1.0847e-08,0.051991,1
21676,54.3,19.878,0,-0.277,0,21741,54.207,13.889,3.4086e-09,2.7468e-18,-1.0847e-08,0.051991,1
21677,54.3,19.861,0,-0.28576,0,21741,54.207,13.889,3.4086e-09,2.7468e-18,-1.0847e-08,0.052952,1
21677,54.3,19.861,0,-0.28576,0,21743,54.207,13.889,2.6263e-09,1.8191e-18,-9.2912e-09,0.052055,1
21677,54.3,19.861,0,-0.28576,0,21743,54.207,13.889,2.6263e-09,1.8191e-18,-9.2912e-09,0.052055,1
21679,54.3,19.826,0,-0.30272,0,21743,54.207,13.889,2.4502e-09,1.628e-18,-8.9046e-09,0.05378,1
21681,54.3,19.801,0,-0.31365,0,21744,54.207,13.889,1.8209e-09,1.0102e-18,-7.4041e-09,0.054184,1
21681,54.3,19.801,0,-0.31365,0,21744,54.207,13.889,1.8209e-09,1.0102e-18,-7.4041e-09,0.054184,1
21681,54.3,19.801,0,-0.31365,0,21744,54.207,13.889,1.8209e-09,1.0102e-18,-7.4041e-09,0.054184,1
21681,54.3,19.801,0,-0.31365,0,21744,54.207,13.889,1.8209e-09,1.0102e-18,-7.4041e-09,0.054184,1
21681,54.3,19.801,0,-0.31365,0,21744,54.207,13.889,1.8209e-09,1.0102e-18,-7.4041e-09,0.054184,1
21681,54.3,19.801,0,-0.31365,0,21744,54.207,13.889,1.8209e-09,1.0102e-18,-7.4041e-09,0.054184,1
21681,54.3,19.801,0,-0.31365,0,21744,54.207,13.889,1.8209e-09,1.0102e-18,-7.4041e-09,0.054184,1
21681,54.3,19.801,0,-0.31365,0,21744,54.207,13.889,1.8209e-09,1.0102e-18,-7.4041e-09,0.054184,1
21681,54.3,19.801,0,-0.31365,0,21745,54.207,13.889,1.4244e-09,6.8043e-19,-6.3514e-09,0.053477,1
21681,54.3,19.801,0,-0.31365,0,21745,54.207,13.889,1.4244e-09,6.8043e-19,-6.3514e-09,0.053477,1
21681,54.3,19.801,0,-0.31365,0,21745,54.207,13.889,1.4244e-09,6.8043e-19,-6.3514e-09,0.053477,1
21681,54.3,19.801,0,-0.31365,0,21745,54.207,13.889,1.4244e-09,6.8043e-19,-6.3514e-09,0.053477,1
21681,54.3,19.801,0,-0.31365,0,21745,54.207,13.889,1.4244e-09,6.8043e-19,-6.3514e-09,0.053477,1
21681,54.3,19.801,0,-0.31365,0,21745,54.207,13.889,1.4244e-09,6.8043e-19,-6.3514e-09,0.053477,1
21681,54.3,19.801,0,-0.31365,0,21745,54.207,13.889,1.4244e-09,6.8043e-19,-6.3514e-09,0.053477,1
21681,54.3,19.801,0,-0.31365,0,21745,54.207,13.889,1.4244e-09,6.8043e-19,-6.3514e-09,0.053477,1
21681,54.3,19.801,0,-0.31365,0,21745,54.207,13.889,1.3057e-09,5.9182e-19,-6.0177e-09,0.053245,1
21681,54.3,19.801,0,-0.31365,0,21745,54.207,13.889,1.3057e-09,5.9182e-19,-6.0177e-09,0.053245,1
21681,54.3,19.801,0,-0.31365,0,21745,54.207,13.889,1.3057e-09,5.9182e-19,-6.0177e-09,0.053245,1
21681,54.3,19.801,0,-0.31365,0,21745,54.207,13.889,1.3057e-09,5.9182e-19,-6.0177e-09,0.053245,1
21681,54.3,19.801,0,-0.31365,0,21745,54.207,13.889,1.3057e-09,5.9182e-19,-6.0177e-09,0.053245,1
21681,54.3,19.801,0,-0.31365,0,21745,54.207,13.889,1.3057e-09,5.9182e-19,-6.0177e-09,0.053245,1
21682,54.3,19.782,0,-0.32166,0,21745,54.207,13.889,1.3057e-09,5.9182e-19,-6.0177e-09,0.05425,1
21682,54.3,19.782,0,-0.32166,0,21745,54.207,13.889,1.3057e-09,5.9182e-19,-6.0177e-09,0.05425,1
21682,54.3,19.782,0,-0.32166,0,21746,54.207,13.889,8.9347e-10,3.2389e-19,-4.7792e-09,0.053309,1
21684,54.3,19.749,0,-0.33464,0,21746,54.207,13.889,8.9347e-10,3.2389e-19,-4.7792e-09,0.055006,1
21684,54.3,19.749,0,-0.33464,0,21747,54.207,13.889,5.7139e-10,1.6224e-19,-3.7035e-09,0.054039,1
21686,54.3,19.715,0,-0.34718,0,21748,54.207,13.889,4.4004e-10,1.0976e-19,-3.2275e-09,0.055279,1
21686,54.3,19.715,0,-0.34718,0,21748,54.207,13.889,3.263e-10,7.121e-20,-2.7921e-09,0.054787,1
21686,54.3,19.715,0,-0.34718,0,21748,54.207,13.889,3.263e-10,7.121e-20,-2.7921e-09,0.054787,1
21686,54.3,19.715,0,-0.34718,0,21748,54.207,13.889,3.263e-10,7.121e-20,-2.7921e-09,0.054787,1
21686,54.3,19.715,0,-0.34718,0,21748,54.207,13.889,3.263e-10,7.121e-20,-2.7921e-09,0.054787,1
21686,54.3,19.715,0,-0.34718,0,21748,54.207,13.889,3.263e-10,7.121e-20,-2.7921e-09,0.054787,1
21686,54.3,19.715,0,-0.34718,0,21748,54.207,13.889,3.263e-10,7.121e-20,-2.7921e-09,0.054787,1
21686,54.3,19.715,0,-0.34718,0,21748,54.207,13.889,3.263e-10,7.121e-20,-2.7921e-09,0.054787,1
21686,54.3,19.715,0,-0.34718,0,21749,54.207,13.889,2.7554e-10,5.6196e-20,-2.5893e-09,0.054543,1
21686,54.3,19.715,0,-0.34718,0,21749,54.207,13.889,2.7554e-10,5.6196e-20,-2.5893e-09,0.054543,1
21686,54.3,19.715,0,-0.34718,0,21749,54.207,13.889,2.7554e-10,5.6196e-20,-2.5893e-09,0.054543,1
21686,54.3,19.715,0,-0.34718,0,21749,54.207,13.889,2.7554e-10,5.6196e-20,-2.5893e-09,0.054543,1
21686,54.3,19.715,0,-0.34718,0,21749,54.207,13.889,2.7554e-10,5.6196e-20,-2.5893e-09,0.054543,1
21686,54.3,19.715,0,-0.34718,0,21749,54.207,13.889,2.7554e-10,5.6196e-20,-2.5893e-09,0.054543,1
21686,54.3,19.715,0,-0.34718,0,21749,54.207,13.889,2.7554e-10,5.6196e-20,-2.5893e-09,0.054543,1
21686,54.3,19.715,0,-0.34718,0,21749,54.207,13.889,2.7554e-10,5.6196e-20,-2.5893e-09,0.054543,1
21686,54.3,19.715,0,-0.34718,0,21749,54.207,13.889,2.7554e-10,5.6196e-20,-2.5893e-09,0.054543,1
21686,54.3,19.715,0,-0.34718,0,21749,54.207,13.889,2.7554e-10,5.6196e-20,-2.5893e-09,0.054543,1
21687,54.3,19.694,0,-0.35451,0,21749,54.207,13.889,2.7554e-10,5.6196e-20,-2.5893e-09,0.055593,1
21687,54.3,19.694,0,-0.35451,0,21749,54.207,13.889,2.7554e-10,5.6196e-20,-2.5893e-09,0.055593,1
21687,54.3,19.694,0,-0.35451,0,21749,54.207,13.889,2.7554e-10,5.6196e-20,-2.5893e-09,0.055593,1
21687,54.3,19.694,0,-0.35451,0,21749,54.207,13.889,2.7554e-10,5.6196e-20,-2.5893e-09,0.055593,1
21687,54.3,19.694,0,-0.35451,0,21749,54.207,13.889,2.7554e-10,5.6196e-20,-2.5893e-09,0.055593,1
21687,54.3,19.694,0,-0.35451,0,21749,54.207,13.889,2.7554e-10,5.6196e-20,-2.5893e-09,0.055593,1
21687,54.3,19.694,0,-0.35451,0,21749,54.207,13.889,2.7554e-10,5.6196e-20,-2.5893e-09,0.055593,1
21688,54.3,19.687,0,-0.35692,0,21749,54.207,13.889,2.7554e-10,5.6196e-20,-2.5893e-09,0.055952,1
21689,54.3,19.658,0,-0.3664,0,21750,54.207,13.889,1.0877e-10,1.7192e-20,-1.8728e-09,0.05638,1
21689,54.3,19.658,0,-0.3664,0,21751,54.207,13.889,-8.4845e-12,4.1817e-22,-1.2964e-09,0.055364,1
21690,54.3,19.636,0,-0.37334,0,21751,54.207,13.889,-8.4845e-12,4.1817e-22,-1.2964e-09,0.056443,1
21690,54.3,19.636,0,-0.37334,0,21751,54.207,13.889,-8.4845e-12,4.1817e-22,-1.2964e-09,0.056443,1
21690,54.3,19.636,0,-0.37334,0,21752,54.207,13.889,-8.6549e-11,-4.7452e-21,-8.4374e-10,0.055425,1
21692,54.3,19.605,0,-0.38237,0,21752,54.207,13.889,-8.6549e-11,-4.7452e-21,-8.4374e-10,0.056874,1
21692,54.3,19.605,0,-0.38237,0,21752,54.207,13.889,-8.6549e-11,-4.7452e-21,-8.4374e-10,0.056874,1
21692,54.3,19.605,0,-0.38237,0,21752,54.207,13.889,-8.6549e-11,-4.7452e-21,-8.4374e-10,0.056874,1
21692,54.3,19.605,0,-0.38237,0,21752,54.207,13.889,-8.6549e-11,-4.7452e-21,-8.4374e-10,0.056874,1
21692,54.3,19.605,0,-0.38237,0,21752,54.207,13.889,-8.6549e-11,-4.7452e-21,-8.4374e-10,0.056874,1
21692,54.3,19.605,0,-0.38237,0,21752,54.207,13.889,-8.6549e-11,-4.7452e-21,-8.4374e-10,0.056874,1
21692,54.3,19.598,0,-0.38459,0,21752,54.207,13.889,-8.6549e-11,-4.7452e-21,-8.4374e-10,0.057248,1
21692,54.3,19.598,0,-0.38459,0,21752,54.207,13.889,-8.6549e-11,-4.7452e-21,-8.4374e-10,0.057248,1
21692,54.3,19.598,0,-0.38459,0,21752,54.207,13.889,-8.6549e-11,-4.7452e-21,-8.4374e-10,0.057248,1
21692,54.3,19.598,0,-0.38459,0,21752,54.207,13.889,-8.6549e-11,-4.7452e-21,-8.4374e-10,0.057248,1
21692,54.3,19.598,0,-0.38459,0,21752,54.207,13.889,-8.6549e-11,-4.7452e-21,-8.4374e-10,0.057248,1
21692,54.3,19.598,0,-0.38459,0,21752,54.207,13.889,-8.6549e-11,-4.7452e-21,-8.4374e-10,0.057248,1
21692,54.3,19.598,0,-0.38459,0,21752,54.207,13.889,-8.6549e-11,-4.7452e-21,-8.4374e-10,0.057248,1
21693,54.3,19.59,0,-0.3868,0,21752,54.207,13.889,-8.6549e-11,-4.7452e-21,-8.4374e-10,0.057626,1
21693,54.3,19.582,0,-0.38899,0,21752,54.207,13.889,-8.6549e-11,-4.7452e-21,-8.4374e-10,0.05801,1
21693,54.3,19.582,0,-0.38899,0,21752,54.207,13.889,-8.6549e-11,-4.7452e-21,-8.4374e-10,0.05801,1
21693,54.3,19.582,0,-0.38899,0,21752,54.207,13.889,-8.6549e-11,-4.7452e-21,-8.4374e-10,0.05801,1
21693,54.3,19.582,0,-0.38899,0,21753,54.207,13.889,-1.4248e-10,-4.2296e-21,-4.2499e-10,0.056673,1
21695,54.3,19.543,0,-0.39973,0,21754,54.207,13.889,-1.5491e-10,-3.2428e-21,-2.9642e-10,0.058021,1
21696,54.3,19.527,0,-0.40392,0,21755,54.207,13.889,-1.6541e-10,-1.6405e-21,-1.3891e-10,0.05797,1
21696,54.3,19.527,0,-0.40392,0,21755,54.207,13.889,-1.6541e-10,-1.6405e-21,-1.3891e-10,0.05797,1
21696,54.3,19.527,0,-0.40392,0,21755,54.207,13.889,-1.6541e-10,-1.6405e-21,-1.3891e-10,0.05797,1
21696,54.3,19.519,0,-0.406,0,21755,54.207,13.889,-1.6541e-10,-1.6405e-21,-1.3891e-10,0.058357,1
21696,54.3,19.519,0,-0.406,0,21756,54.207,13.889,-1.6814e-10,-2.1757e-22,-1.7991e-11,0.057538,1
21696,54.3,19.519,0,-0.406,0,21756,54.207,13.889,-1.6814e-10,-2.1757e-22,-1.7991e-11,0.057538,1
21696,54.3,19.519,0,-0.406,0,21756,54.207,13.889,-1.6814e-10,-2.1757e-22,-1.7991e-11,0.057538,1
21696,54.3,19.519,0,-0.406,0,21756,54.207,13.889,-1.6814e-10,-2.1757e-22,-1.7991e-11,0.057538,1
21696,54.3,19.519,0,-0.406,0,21756,54.207,13.889,-1.6814e-10,-2.1757e-22,-1.7991e-11,0.057538,1
21696,54.3,19.519,0,-0.406,0,21756,54.207,13.889,-1.6814e-10,-2.1757e-22,-1.7991e-11,0.057538,1
21696,54.3,19.519,0,-0.406,0,21756,54.207,13.889,-1.6814e-10,-2.1757e-22,-1.7991e-11,0.057538,1
21696,54.3,19.519,0,-0.406,0,21756,54.207,13.889,-1.6814e-10,-2.1757e-22,-1.7991e-11,0.057538,1
21696,54.3,19.519,0,-0.406,0,21756,54.207,13.889,-1.6814e-10,-2.1757e-22,-1.7991e-11,0.057538,1
21697,54.3,19.502,0,-0.41011,0,21756,54.207,13.889,-1.6814e-10,-2.1757e-22,-1.7991e-11,0.058304,1
21697,54.3,19.502,0,-0.41011,0,21756,54.207,13.889,-1.6814e-10,-2.1757e-22,-1.7991e-11,0.058304,1
21697,54.3,19.502,0,-0.41011,0,21756,54.207,13.889,-1.6814e-10,-2.1757e-22,-1.7991e-11,0.058304,1
21697,54.3,19.502,0,-0.41011,0,21756,54.207,13.889,-1.6814e-10,-2.1757e-22,-1.7991e-11,0.058304,1
21697,54.3,19.494,0,-0.41214,0,21756,54.207,13.889,-1.6814e-10,-2.1757e-22,-1.7991e-11,0.058695,1
21697,54.3,19.494,0,-0.41214,0,21756,54.207,13.889,-1.6814e-10,-2.1757e-22,-1.7991e-11,0.058695,1
21697,54.3,19.494,0,-0.41214,0,21756,54.207,13.889,-1.6814e-10,-2.1757e-22,-1.7991e-11,0.058695,1
21697,54.3,19.494,0,-0.41214,0,21756,54.207,13.889,-1.6814e-10,-2.1757e-22,-1.7991e-11,0.058695,1
21697,54.3,19.494,0,-0.41214,0,21756,54.207,13.889,-1.6814e-10,-2.1757e-22,-1.7991e-11,0.058695,1
21697,54.3,19.494,0,-0.41214,0,21756,54.207,13.889,-1.6814e-10,-2.1757e-22,-1.7991e-11,0.058695,1
21697,54.3,19.494,0,-0.41214,0,21756,54.207,13.889,-1.6814e-10,-2.1757e-22,-1.7991e-11,0.058695,1
21698,54.3,19.486,0,-0.41416,0,21756,54.207,13.889,-1.6814e-10,-2.1757e-22,-1.7991e-11,0.059091,1
21699,54.3,19.452,0,-0.4221,0,21757,54.207,13.889,-1.6054e-10,1.3669e-21,1.174e-10,0.059264,1
21699,54.3,19.452,0,-0.4221,0,21757,54.207,13.889,-1.6054e-10,1.3669e-21,1.174e-10,0.059264,1
