21116,54.219,19.979,3.1198e-05,0.031648,4.9419e-08,21250,70.369,0,0,0,0,0.012569,1
21116,54.219,19.979,3.1198e-05,0.031648,4.9419e-08,21250,70.369,0,0,0,0,0.012569,1
21116,54.219,19.979,3.1198e-05,0.031648,4.9419e-08,21250,70.369,0,0,0,0,0.012569,1
21116,54.219,19.979,3.1198e-05,0.031648,4.9419e-08,21250,70.369,0,0,0,0,0.012569,1
21117,54.219,19.981,3.1201e-05,0.031471,4.9142e-08,21250,70.369,0,0,0,0,0.01268,1
21118,54.219,19.982,3.1203e-05,0.031353,4.8958e-08,21250,70.369,0,0,0,0,0.012755,1
21118,54.219,19.982,3.1203e-05,0.031353,4.8958e-08,21250,70.369,0,0,0,0,0.012755,1
21118,54.219,19.982,3.1203e-05,0.031353,4.8958e-08,21250,70.369,0,0,0,0,0.012755,1
21118,54.219,19.982,3.1203e-05,0.031353,4.8958e-08,21250,70.369,0,0,0,0,0.012755,1
21118,54.219,19.982,3.1203e-05,0.031353,4.8958e-08,21250,70.369,0,0,0,0,0.012755,1
21118,54.219,19.982,3.1203e-05,0.031353,4.8958e-08,21250,70.369,0,0,0,0,0.012755,1
21118,54.219,19.982,3.1203e-05,0.031353,4.8958e-08,21250,70.369,0,0,0,0,0.012755,1
21118,54.219,19.982,3.1203e-05,0.031353,4.8958e-08,21250,70.369,0,0,0,0,0.012755,1
21118,54.219,19.982,3.1203e-05,0.031353,4.8958e-08,21250,70.369,0,0,0,0,0.012755,1
21118,54.219,19.982,3.1203e-05,0.031353,4.8958e-08,21250,70.369,0,0,0,0,0.012755,1
21118,54.219,19.982,3.1203e-05,0.031353,4.8958e-08,21250,70.369,0,0,0,0,0.012755,1
21118,54.219,19.982,3.1203e-05,0.031353,4.8958e-08,21250,70.369,0,0,0,0,0.012755,1
21118,54.219,19.982,3.1203e-05,0.031353,4.8958e-08,21250,70.369,0,0,0,0,0.012755,1
21118,54.219,19.982,3.1203e-05,0.031353,4.8958e-08,21250,70.369,0,0,0,0,0.012755,1
21118,54.219,19.982,3.1203e-05,0.031353,4.8958e-08,21250,70.369,0,0,0,0,0.012755,1
21118,54.219,19.982,3.1203e-05,0.031353,4.8958e-08,21250,70.369,0,0,0,0,0.012755,1
21118,54.219,19.982,3.1203e-05,0.031353,4.8958e-08,21250,70.369,0,0,0,0,0.012755,1
21118,54.219,19.982,3.1203e-05,0.031353,4.8958e-08,21250,70.369,0,0,0,0,0.012755,1
21118,54.219,19.982,3.1203e-05,0.031353,4.8958e-08,21250,70.369,0,0,0,0,0.012755,1
21121,54.219,19.987,3.121e-05,0.030936,4.8307e-08,21250,70.369,0,0,0,0,0.013026,1
21121,54.219,19.987,3.121e-05,0.030936,4.8307e-08,21250,70.369,0,0,0,0,0.013026,1
21121,54.219,19.987,3.121e-05,0.030936,4.8307e-08,21250,70.369,0,0,0,0,0.013026,1
21122,54.219,19.988,3.1212e-05,0.030756,4.8026e-08,21250,70.369,0,0,0,0,0.013145,1
21122,54.219,19.989,3.1213e-05,0.030696,4.7933e-08,21250,70.369,0,0,0,0,0.013186,1
21124,54.219,19.992,3.1217e-05,0.030454,4.7554e-08,21250,70.369,0,0,0,0,0.01335,1
21124,54.219,19.992,3.1217e-05,0.030454,4.7554e-08,21250,70.369,0,0,0,0,0.01335,1
21124,54.219,19.992,3.1217e-05,0.030454,4.7554e-08,21250,70.369,0,0,0,0,0.01335,1
21124,54.219,19.992,3.1217e-05,0.030454,4.7554e-08,21250,70.369,0,0,0,0,0.01335,1
21124,54.219,19.992,3.1217e-05,0.030454,4.7554e-08,21250,70.369,0,0,0,0,0.01335,1
21124,54.219,19.992,3.1217e-05,0.030454,4.7554e-08,21250,70.369,0,0,0,0,0.01335,1
21124,54.219,19.992,3.1217e-05,0.030454,4.7554e-08,21250,70.369,0,0,0,0,0.01335,1
21124,54.219,19.992,3.1217e-05,0.030454,4.7554e-08,21250,70.369,0,0,0,0,0.01335,1
21124,54.219,19.992,3.1217e-05,0.030454,4.7554e-08,21250,70.369,0,0,0,0,0.01335,1
21124,54.219,19.992,3.1217e-05,0.030454,4.7554e-08,21250,70.369,0,0,0,0,0.01335,1
21124,54.219,19.992,3.1217e-05,0.030454,4.7554e-08,21250,70.369,0,0,0,0,0.01335,1
21124,54.219,19.992,3.1217e-05,0.030454,4.7554e-08,21250,70.369,0,0,0,0,0.01335,1
21124,54.219,19.992,3.1217e-05,0.030454,4.7554e-08,21250,70.369,0,0,0,0,0.01335,1
21125,54.219,19.993,3.122e-05,0.030272,4.727e-08,21250,70.369,0,0,0,0,0.013475,1
21125,54.219,19.993,3.122e-05,0.030272,4.727e-08,21250,70.369,0,0,0,0,0.013475,1
21125,54.219,19.993,3.122e-05,0.030272,4.727e-08,21250,70.369,0,0,0,0,0.013475,1
21125,54.219,19.993,3.122e-05,0.030272,4.727e-08,21250,70.369,0,0,0,0,0.013475,1
21125,54.219,19.993,3.122e-05,0.030272,4.727e-08,21250,70.369,0,0,0,0,0.013475,1
21125,54.219,19.993,3.122e-05,0.030272,4.727e-08,21250,70.369,0,0,0,0,0.013475,1
21125,54.219,19.993,3.122e-05,0.030272,4.727e-08,21250,70.369,0,0,0,0,0.013475,1
21125,54.219,19.994,3.1221e-05,0.030212,4.7176e-08,21250,70.369,0,0,0,0,0.013518,1
21125,54.219,19.994,3.1221e-05,0.030212,4.7176e-08,21250,70.369,0,0,0,0,0.013518,1
21125,54.219,19.994,3.1221e-05,0.030212,4.7176e-08,21250,70.369,0,0,0,0,0.013518,1
21126,54.219,19.995,3.1222e-05,0.03015,4.708e-08,21250,70.369,0,0,0,0,0.01356,1
21126,54.219,19.995,3.1222e-05,0.03015,4.708e-08,21250,70.369,0,0,0,0,0.01356,1
21129,54.219,19.999,3.1228e-05,0.029721,4.641e-08,21250,70.369,0,0,0,0,0.013866,1
21129,54.219,20,3.123e-05,0.029597,4.6216e-08,21250,70.369,0,0,0,0,0.013956,1
21129,54.219,20,3.123e-05,0.029597,4.6216e-08,21250,70.369,0,0,0,0,0.013956,1
21129,54.219,20,3.123e-05,0.029597,4.6216e-08,21250,70.369,0,0,0,0,0.013956,1
21129,54.219,20,3.123e-05,0.029597,4.6216e-08,21250,70.369,0,0,0,0,0.013956,1
21129,54.219,20,3.123e-05,0.029597,4.6216e-08,21250,70.369,0,0,0,0,0.013956,1
21129,54.219,20,3.123e-05,0.029597,4.6216e-08,21250,70.369,0,0,0,0,0.013956,1
21129,54.219,20,3.123e-05,0.029597,4.6216e-08,21250,70.369,0,0,0,0,0.013956,1
21129,54.219,20,3.123e-05,0.029597,4.6216e-08,21250,70.369,0,0,0,0,0.013956,1
21129,54.219,20,3.123e-05,0.029597,4.6216e-08,21250,70.369,0,0,0,0,0.013956,1
21129,54.219,20,3.123e-05,0.029597,4.6216e-08,21250,70.369,0,0,0,0,0.013956,1
21129,54.219,20,3.123e-05,0.029597,4.6216e-08,21250,70.369,0,0,0,0,0.013956,1
21129,54.219,20,3.123e-05,0.029597,4.6216e-08,21250,70.369,0,0,0,0,0.013956,1
21129,54.219,20,3.123e-05,0.029597,4.6216e-08,21250,70.369,0,0,0,0,0.013956,1
21129,54.219,20,3.123e-05,0.029597,4.6216e-08,21250,70.369,0,0,0,0,0.013956,1
21129,54.219,20,3.123e-05,0.029597,4.6216e-08,21250,70.369,0,0,0,0,0.013956,1
21129,54.219,20,3.123e-05,0.029597,4.6216e-08,21250,70.369,0,0,0,0,0.013956,1
21129,54.219,20,3.123e-05,0.029597,4.6216e-08,21250,70.369,0,0,0,0,0.013956,1
21129,54.219,20,3.123e-05,0.029597,4.6216e-08,21250,70.369,0,0,0,0,0.013956,1
21130,54.219,20.001,3.1232e-05,0.029474,4.6023e-08,21250,70.369,0,0,0,0,0.014047,1
21130,54.219,20.001,3.1232e-05,0.029474,4.6023e-08,21250,70.369,0,0,0,0,0.014047,1
21130,54.219,20.001,3.1232e-05,0.029474,4.6023e-08,21250,70.369,0,0,0,0,0.014047,1
21131,54.219,20.003,3.1235e-05,0.029287,4.5732e-08,21250,70.369,0,0,0,0,0.014186,1
21132,54.219,20.004,3.1237e-05,0.029163,4.5538e-08,21250,70.369,0,0,0,0,0.014281,1
21132,54.219,20.004,3.1237e-05,0.029163,4.5538e-08,21250,69.693,0.13021,-5.1241,1.0851,-42.701,0.014382,1
21132,54.219,20.004,3.1237e-05,0.029163,4.5538e-08,21250,69.633,0.13021,-5.1241,1.0851,-42.701,0.014383,1
21132,54.219,20.004,3.1237e-05,0.029163,4.5538e-08,21250,69.572,0.13021,-5.1241,1.0851,-42.701,0.014384,1
21132,54.219,20.004,3.1237e-05,0.029163,4.5538e-08,21250,69.572,0.13021,-5.1241,1.0851,-42.701,0.014384,1
21132,54.219,20.004,3.1237e-05,0.029163,4.5538e-08,21250,69.572,0.13021,-5.1241,1.0851,-42.701,0.014384,1
21132,54.219,20.004,3.1237e-05,0.029163,4.5538e-08,21250,69.572,0.13021,-5.1241,1.0851,-42.701,0.014384,1
21132,54.219,20.004,3.1237e-05,0.029163,4.5538e-08,21250,69.572,0.13021,-5.1241,1.0851,-42.701,0.014384,1
21132,54.219,20.004,3.1237e-05,0.029163,4.5538e-08,21250,69.572,0.13021,-5.1241,1.0851,-42.701,0.014384,1
21132,54.219,20.004,3.1237e-05,0.029163,4.5538e-08,21250,69.572,0.13021,-5.1241,1.0851,-42.701,0.014384,1
21132,54.219,20.004,3.1237e-05,0.029163,4.5538e-08,21250,69.511,0.13021,-5.1241,1.0851,-42.701,0.014385,1
21132,54.219,20.004,3.1237e-05,0.029163,4.5538e-08,21250,69.511,0.13021,-5.1241,1.0851,-42.701,0.014385,1
21132,54.219,20.004,3.1237e-05,0.029163,4.5538e-08,21250,69.511,0.13021,-5.1241,1.0851,-42.701,0.014385,1
21132,54.219,20.004,3.1237e-05,0.029163,4.5538e-08,21250,69.511,0.13021,-5.1241,1.0851,-42.701,0.014385,1
21132,54.219,20.004,3.1237e-05,0.029163,4.5538e-08,21250,69.511,0.13021,-5.1241,1.0851,-42.701,0.014385,1
21132,54.219,20.004,3.1237e-05,0.029163,4.5538e-08,21250,69.511,0.13021,-5.1241,1.0851,-42.701,0.014385,1
21132,54.219,20.004,3.1237e-05,0.029163,4.5538e-08,21250,69.511,0.13021,-5.1241,1.0851,-42.701,0.014385,1
21132,54.219,20.004,3.1237e-05,0.029163,4.5538e-08,21250,69.511,0.13021,-5.1241,1.0851,-42.701,0.014385,1
21132,54.219,20.004,3.1237e-05,0.029163,4.5538e-08,21250,69.511,0.13021,-5.1241,1.0851,-42.701,0.014385,1
21135,54.219,20.008,3.1243e-05,0.028723,4.4851e-08,21250,69.511,0.13021,-5.1241,1.0851,-42.701,0.014728,1
21135,54.219,20.008,3.1243e-05,0.028723,4.4851e-08,21250,69.511,0.13021,-5.1241,1.0851,-42.701,0.014728,1
21135,54.219,20.008,3.1243e-05,0.028723,4.4851e-08,21250,69.511,0.13021,-5.1241,1.0851,-42.701,0.014728,1
21135,54.219,20.008,3.1243e-05,0.028723,4.4851e-08,21250,69.511,0.13021,-5.1241,1.0851,-42.701,0.014728,1
21135,54.219,20.009,3.1244e-05,0.02866,4.4753e-08,21250,69.511,0.13021,-5.1241,1.0851,-42.701,0.014778,1
21135,54.219,20.009,3.1244e-05,0.02866,4.4753e-08,21250,69.269,0.016276,-3.0305,-0.94944,17.446,0.014699,1
21138,54.219,20.013,3.125e-05,0.028214,4.4057e-08,21250,69.208,0.016276,-3.0305,-0.94944,17.446,0.01506,1
21138,54.219,20.013,3.125e-05,0.028214,4.4057e-08,21250,69.208,0.016276,-3.0305,-0.94944,17.446,0.01506,1
21139,54.219,20.014,3.1252e-05,0.028087,4.3857e-08,21250,69.208,0.016276,-3.0305,-0.94944,17.446,0.015166,1
21139,54.219,20.014,3.1252e-05,0.028087,4.3857e-08,21250,69.208,0.016276,-3.0305,-0.94944,17.446,0.015166,1
21139,54.219,20.014,3.1252e-05,0.028087,4.3857e-08,21250,69.208,0.016276,-3.0305,-0.94944,17.446,0.015166,1
21139,54.219,20.014,3.1252e-05,0.028087,4.3857e-08,21250,69.208,0.016276,-3.0305,-0.94944,17.446,0.015166,1
21139,54.219,20.014,3.1252e-05,0.028087,4.3857e-08,21250,69.208,0.016276,-3.0305,-0.94944,17.446,0.015166,1
21139,54.219,20.014,3.1252e-05,0.028087,4.3857e-08,21250,69.208,0.016276,-3.0305,-0.94944,17.446,0.015166,1
21139,54.219,20.014,3.1252e-05,0.028087,4.3857e-08,21250,69.208,0.016276,-3.0305,-0.94944,17.446,0.015166,1
21139,54.219,20.014,3.1252e-05,0.028087,4.3857e-08,21250,69.208,0.016276,-3.0305,-0.94944,17.446,0.015166,1
21139,54.219,20.014,3.1252e-05,0.028087,4.3857e-08,21250,69.208,0.016276,-3.0305,-0.94944,17.446,0.015166,1
21139,54.219,20.014,3.1252e-05,0.028087,4.3857e-08,21250,68.784,0.016276,-3.0305,0,0,0.015173,1
21139,54.219,20.014,3.1252e-05,0.028087,4.3857e-08,21250,68.784,0.016276,-3.0305,0,0,0.015173,1
21139,54.219,20.014,3.1252e-05,0.028087,4.3857e-08,21250,68.784,0.016276,-3.0305,0,0,0.015173,1
21139,54.219,20.014,3.1252e-05,0.028087,4.3857e-08,21250,68.784,0.016276,-3.0305,0,0,0.015173,1
21139,54.219,20.014,3.1252e-05,0.028087,4.3857e-08,21250,68.784,0.016276,-3.0305,0,0,0.015173,1
21139,54.219,20.014,3.1252e-05,0.028087,4.3857e-08,21250,68.784,0.016276,-3.0305,0,0,0.015173,1
21139,54.219,20.014,3.1252e-05,0.028087,4.3857e-08,21250,68.784,0.016276,-3.0305,0,0,0.015173,1
21140,54.219,20.015,3.1254e-05,0.027958,4.3656e-08,21250,68.784,0.016276,-3.0305,0,0,0.015281,1
21140,54.219,20.015,3.1254e-05,0.027958,4.3656e-08,21250,68.784,0.016276,-3.0305,0,0,0.015281,1
21140,54.219,20.015,3.1254e-05,0.027958,4.3656e-08,21250,68.784,0.016276,-3.0305,0,0,0.015281,1
21141,54.219,20.017,3.1257e-05,0.027701,4.3256e-08,21250,68.663,0.016276,-3.0305,0,0,0.015504,1
21142,54.219,20.018,3.1259e-05,0.027573,4.3055e-08,21250,68.42,0.016276,-3.0305,0,0,0.015621,1
21142,54.219,20.018,3.1259e-05,0.027573,4.3055e-08,21250,68.239,0.016276,-3.0305,0,0,0.015624,1
21142,54.219,20.018,3.1259e-05,0.027573,4.3055e-08,21250,68.239,0.016276,-3.0305,0,0,0.015624,1
21142,54.219,20.018,3.1259e-05,0.027573,4.3055e-08,21250,68.178,0.016276,-3.0305,0,0,0.015625,1
21142,54.219,20.018,3.1259e-05,0.027573,4.3055e-08,21250,68.178,0.016276,-3.0305,0,0,0.015625,1
21142,54.219,20.018,3.1259e-05,0.027573,4.3055e-08,21250,68.117,0.016276,-3.0305,0,0,0.015626,1
21142,54.219,20.018,3.1259e-05,0.027573,4.3055e-08,21250,68.117,0.016276,-3.0305,0,0,0.015626,1
21142,54.219,20.018,3.1259e-05,0.027573,4.3055e-08,21250,68.117,0.016276,-3.0305,0,0,0.015626,1
21142,54.219,20.018,3.1259e-05,0.027573,4.3055e-08,21250,68.117,0.016276,-3.0305,0,0,0.015626,1
21142,54.219,20.018,3.1259e-05,0.027573,4.3055e-08,21250,68.117,0.016276,-3.0305,0,0,0.015626,1
21142,54.219,20.018,3.1259e-05,0.027573,4.3055e-08,21250,68.117,0.016276,-3.0305,0,0,0.015626,1
21142,54.219,20.018,3.1259e-05,0.027573,4.3055e-08,21250,68.117,0.016276,-3.0305,0,0,0.015626,1
21142,54.219,20.018,3.1259e-05,0.027573,4.3055e-08,21250,68.117,0.016276,-3.0305,0,0,0.015626,1
21142,54.219,20.018,3.1259e-05,0.027573,4.3055e-08,21250,68.117,0.016276,-3.0305,0,0,0.015626,1
21144,54.219,20.021,3.1263e-05,0.027249,4.2551e-08,21250,68.117,0.016276,-3.0305,0,0,0.015915,1
21144,54.219,20.021,3.1263e-05,0.027249,4.2551e-08,21250,68.117,0.016276,-3.0305,0,0,0.015915,1
21144,54.219,20.021,3.1263e-05,0.027249,4.2551e-08,21250,68.117,0.016276,-3.0305,0,0,0.015915,1
21144,54.219,20.021,3.1263e-05,0.027249,4.2551e-08,21250,68.117,0.016276,-3.0305,0,0,0.015915,1
21144,54.219,20.021,3.1263e-05,0.027249,4.2551e-08,21250,68.117,0.016276,-3.0305,0,0,0.015915,1
21144,54.219,20.021,3.1263e-05,0.027249,4.2551e-08,21250,68.117,0.016276,-3.0305,0,0,0.015915,1
21144,54.219,20.021,3.1263e-05,0.027249,4.2551e-08,21250,68.117,0.016276,-3.0305,0,0,0.015915,1
21145,54.219,20.022,3.1264e-05,0.027184,4.2449e-08,21250,68.117,0.016276,-3.0305,0,0,0.015975,1
21145,54.219,20.022,3.1265e-05,0.027119,4.2347e-08,21250,68.117,0.016276,-3.0305,0,0,0.016034,1
21147,54.219,20.024,3.1268e-05,0.026858,4.194e-08,21250,67.814,0,-3.0305,-0.13563,0,0.01627,1
21148,54.219,20.026,3.1271e-05,0.026661,4.1632e-08,21250,67.814,0,-3.0305,-0.13563,0,0.016457,1
21148,54.219,20.026,3.1271e-05,0.026661,4.1632e-08,21250,67.814,0,-3.0305,-0.13563,0,0.016457,1
21148,54.219,20.026,3.1272e-05,0.026594,4.1528e-08,21250,67.814,0,-3.0305,-0.13563,0,0.01652,1
21148,54.219,20.026,3.1272e-05,0.026594,4.1528e-08,21250,67.814,0,-3.0305,-0.13563,0,0.01652,1
21148,54.219,20.026,3.1272e-05,0.026594,4.1528e-08,21250,67.814,0,-3.0305,-0.13563,0,0.01652,1
21148,54.219,20.026,3.1272e-05,0.026594,4.1528e-08,21250,67.814,0,-3.0305,-0.13563,0,0.01652,1
21148,54.219,20.026,3.1272e-05,0.026594,4.1528e-08,21250,67.814,0,-3.0305,-0.13563,0,0.01652,1
21148,54.219,20.026,3.1272e-05,0.026594,4.1528e-08,21250,67.814,0,-3.0305,-0.13563,0,0.01652,1
21148,54.219,20.026,3.1272e-05,0.026594,4.1528e-08,21250,67.814,0,-3.0305,-0.13563,0,0.01652,1
21148,54.219,20.026,3.1272e-05,0.026594,4.1528e-08,21250,67.814,0,-3.0305,-0.13563,0,0.01652,1
21148,54.219,20.026,3.1272e-05,0.026594,4.1528e-08,21250,67.814,0,-3.0305,-0.13563,0,0.01652,1
21148,54.219,20.026,3.1272e-05,0.026594,4.1528e-08,21250,67.814,0,-3.0305,-0.13563,0,0.01652,1
21148,54.219,20.026,3.1272e-05,0.026594,4.1528e-08,21250,67.39,0.016276,-3.0305,0.13563,0,0.016542,1
21148,54.219,20.026,3.1272e-05,0.026594,4.1528e-08,21250,67.39,0.016276,-3.0305,0.13563,0,0.016542,1
21148,54.219,20.026,3.1272e-05,0.026594,4.1528e-08,21250,67.39,0.016276,-3.0305,0.13563,0,0.016542,1
21148,54.219,20.026,3.1272e-05,0.026594,4.1528e-08,21250,67.329,0.016276,-3.0305,0.13563,0,0.016543,1
21148,54.219,20.026,3.1272e-05,0.026594,4.1528e-08,21250,67.329,0.016276,-3.0305,0.13563,0,0.016543,1
21148,54.219,20.026,3.1272e-05,0.026594,4.1528e-08,21250,67.329,0.016276,-3.0305,0.13563,0,0.016543,1
21148,54.219,20.026,3.1272e-05,0.026594,4.1528e-08,21250,67.329,0.016276,-3.0305,0.13563,0,0.016543,1
21148,54.219,20.026,3.1272e-05,0.026594,4.1528e-08,21250,67.329,0.016276,-3.0305,0.13563,0,0.016543,1
21148,54.219,20.026,3.1272e-05,0.026594,4.1528e-08,21250,67.329,0.016276,-3.0305,0.13563,0,0.016543,1
21150,54.219,20.029,3.1276e-05,0.026264,4.1012e-08,21250,67.269,0.016276,-3.0305,0.13563,0,0.016869,1
21150,54.219,20.029,3.1276e-05,0.026264,4.1012e-08,21250,67.269,0.016276,-3.0305,0.13563,0,0.016869,1
21151,54.219,20.031,3.1278e-05,0.026065,4.0701e-08,21250,67.026,0.016276,-3.0305,0,0,0.017076,1
21151,54.219,20.031,3.1278e-05,0.026065,4.0701e-08,21250,67.026,0.016276,-3.0305,0,0,0.017076,1
21151,54.219,20.031,3.1278e-05,0.026065,4.0701e-08,21250,67.026,0.016276,-3.0305,0,0,0.017076,1
21153,54.219,20.032,3.1281e-05,0.025865,4.0389e-08,21250,66.905,0.016276,-3.0305,0,0,0.017284,1
21153,54.219,20.033,3.1281e-05,0.025798,4.0285e-08,21250,66.905,0.016276,-3.0305,0,0,0.017354,1
21153,54.219,20.033,3.1281e-05,0.025798,4.0285e-08,21250,66.905,0.016276,-3.0305,0,0,0.017354,1
21153,54.219,20.033,3.1281e-05,0.025798,4.0285e-08,21250,66.905,0.016276,-3.0305,0,0,0.017354,1
21153,54.219,20.033,3.1282e-05,0.025731,4.018e-08,21250,66.905,0.016276,-3.0305,0,0,0.017425,1
21153,54.219,20.033,3.1282e-05,0.025731,4.018e-08,21250,66.602,0.016276,-3.0305,0,0,0.017431,1
21153,54.219,20.033,3.1282e-05,0.025731,4.018e-08,21250,66.602,0.016276,-3.0305,0,0,0.017431,1
21153,54.219,20.033,3.1282e-05,0.025731,4.018e-08,21250,66.602,0.016276,-3.0305,0,0,0.017431,1
21153,54.219,20.033,3.1282e-05,0.025731,4.018e-08,21250,66.602,0.016276,-3.0305,0,0,0.017431,1
21153,54.219,20.033,3.1282e-05,0.025731,4.018e-08,21250,66.602,0.016276,-3.0305,0,0,0.017431,1
21153,54.219,20.033,3.1282e-05,0.025731,4.018e-08,21250,66.602,0.016276,-3.0305,0,0,0.017431,1
21153,54.219,20.033,3.1282e-05,0.025731,4.018e-08,21250,66.602,0.016276,-3.0305,0,0,0.017431,1
21153,54.219,20.033,3.1282e-05,0.025731,4.018e-08,21250,66.602,0.016276,-3.0305,0,0,0.017431,1
21153,54.219,20.033,3.1282e-05,0.025731,4.018e-08,21250,66.602,0.016276,-3.0305,0,0,0.017431,1
21154,54.219,20.034,3.1284e-05,0.025597,3.9971e-08,21250,66.602,0.016276,-3.0305,0,0,0.017574,1
21154,54.219,20.034,3.1284e-05,0.025597,3.9971e-08,21250,66.602,0.016276,-3.0305,0,0,0.017574,1
21155,54.219,20.035,3.1285e-05,0.02553,3.9867e-08,21250,66.602,0.016276,-3.0305,0,0,0.017646,1
21155,54.219,20.035,3.1285e-05,0.02553,3.9867e-08,21250,66.602,0.016276,-3.0305,0,0,0.017646,1
21155,54.219,20.035,3.1285e-05,0.02553,3.9867e-08,21250,66.602,0.016276,-3.0305,0,0,0.017646,1
21155,54.219,20.035,3.1285e-05,0.02553,3.9867e-08,21250,66.602,0.016276,-3.0305,0,0,0.017646,1
21155,54.219,20.035,3.1285e-05,0.02553,3.9867e-08,21250,66.602,0.016276,-3.0305,0,0,0.017646,1
21155,54.219,20.035,3.1285e-05,0.02553,3.9867e-08,21250,66.602,0.016276,-3.0305,0,0,0.017646,1
21155,54.219,20.035,3.1285e-05,0.02553,3.9867e-08,21250,66.602,0.016276,-3.0305,0,0,0.017646,1
21155,54.219,20.035,3.1285e-05,0.02553,3.9867e-08,21250,66.602,0.016276,-3.0305,0,0,0.017646,1
21155,54.219,20.035,3.1285e-05,0.025463,3.9761e-08,21250,66.602,0.016276,-3.0305,0,0,0.017719,1
21155,54.219,20.035,3.1285e-05,0.025463,3.9761e-08,21250,66.178,0.016276,-3.0305,0,0,0.017729,1
21155,54.219,20.035,3.1285e-05,0.025463,3.9761e-08,21250,66.178,0.016276,-3.0305,0,0,0.017729,1
21157,54.219,20.038,3.1289e-05,0.025126,3.9235e-08,21250,66.178,0.016276,-3.0305,0,0,0.018103,1
21157,54.219,20.038,3.1289e-05,0.025126,3.9235e-08,21250,66.178,0.016276,-3.0305,0,0,0.018103,1
21157,54.219,20.038,3.1289e-05,0.025126,3.9235e-08,21250,66.178,0.016276,-3.0305,0,0,0.018103,1
21157,54.219,20.038,3.1289e-05,0.025126,3.9235e-08,21250,66.178,0.016276,-3.0305,0,0,0.018103,1
21157,54.219,20.038,3.1289e-05,0.025126,3.9235e-08,21250,66.178,0.016276,-3.0305,0,0,0.018103,1
21157,54.219,20.038,3.129e-05,0.025057,3.9129e-08,21250,66.178,0.016276,-3.0305,0,0,0.018179,1
21159,54.219,20.04,3.1292e-05,0.024854,3.8811e-08,21250,65.935,0,-3.0306,-0.13563,-0.00052982,0.018404,1
21159,54.219,20.04,3.1292e-05,0.024854,3.8811e-08,21250,65.935,0,-3.0306,-0.13563,-0.00052982,0.018404,1
21159,54.219,20.04,3.1293e-05,0.024786,3.8705e-08,21250,65.935,0,-3.0306,-0.13563,-0.00052982,0.018483,1
21159,54.219,20.041,3.1294e-05,0.024718,3.8598e-08,21250,65.935,0,-3.0306,-0.13563,-0.00052982,0.018563,1
21159,54.219,20.041,3.1294e-05,0.024718,3.8598e-08,21250,65.935,0,-3.0306,-0.13563,-0.00052982,0.018563,1
21159,54.219,20.041,3.1294e-05,0.024718,3.8598e-08,21250,65.632,0.016276,-3.0305,0.13563,0.00052982,0.018586,1
21159,54.219,20.041,3.1294e-05,0.024718,3.8598e-08,21250,65.632,0.016276,-3.0305,0.13563,0.00052982,0.018586,1
21159,54.219,20.041,3.1294e-05,0.024718,3.8598e-08,21250,65.632,0.016276,-3.0305,0.13563,0.00052982,0.018586,1
21159,54.219,20.041,3.1294e-05,0.024718,3.8598e-08,21250,65.632,0.016276,-3.0305,0.13563,0.00052982,0.018586,1
21159,54.219,20.041,3.1294e-05,0.024718,3.8598e-08,21250,65.632,0.016276,-3.0305,0.13563,0.00052982,0.018586,1
21159,54.219,20.041,3.1294e-05,0.024718,3.8598e-08,21250,65.632,0.016276,-3.0305,0.13563,0.00052982,0.018586,1
21159,54.219,20.041,3.1294e-05,0.024718,3.8598e-08,21250,65.572,0.016276,-3.0305,0.13563,0.00052982,0.018587,1
21159,54.219,20.041,3.1294e-05,0.024718,3.8598e-08,21250,65.511,0.016276,-3.0305,0.13563,0.00052982,0.018589,1
21159,54.219,20.041,3.1294e-05,0.024718,3.8598e-08,21250,65.451,0.016276,-3.0305,0.13563,0.00052982,0.01859,1
21159,54.219,20.041,3.1294e-05,0.024718,3.8598e-08,21250,65.451,0.016276,-3.0305,0.13563,0.00052982,0.01859,1
21159,54.219,20.041,3.1294e-05,0.024718,3.8598e-08,21250,65.451,0.016276,-3.0305,0.13563,0.00052982,0.01859,1
21162,54.219,20.044,3.1299e-05,0.024239,3.7851e-08,21250,65.451,0.016276,-3.0305,0.13563,0.00052982,0.019172,1
21162,54.219,20.044,3.1299e-05,0.024239,3.7851e-08,21250,65.269,0.016276,-3.0305,0,0,0.019177,1
21162,54.219,20.044,3.1299e-05,0.024239,3.7851e-08,21250,65.269,0.016276,-3.0305,0,0,0.019177,1
21162,54.219,20.044,3.1299e-05,0.024239,3.7851e-08,21250,65.269,0.016276,-3.0305,0,0,0.019177,1
21162,54.219,20.044,3.1299e-05,0.024239,3.7851e-08,21250,65.269,0.016276,-3.0305,0,0,0.019177,1
21162,54.219,20.044,3.1299e-05,0.024239,3.7851e-08,21250,65.269,0.016276,-3.0305,0,0,0.019177,1
21162,54.219,20.044,3.1299e-05,0.024239,3.7851e-08,21250,65.269,0.016276,-3.0305,0,0,0.019177,1
21162,54.219,20.044,3.1299e-05,0.024239,3.7851e-08,21250,65.269,0.016276,-3.0305,0,0,0.019177,1
21162,54.219,20.044,3.1299e-05,0.024239,3.7851e-08,21250,65.208,0.016276,-3.0305,0,0,0.019178,1
21162,54.219,20.044,3.1299e-05,0.024239,3.7851e-08,21250,65.208,0.016276,-3.0305,0,0,0.019178,1
21162,54.219,20.044,3.1299e-05,0.024239,3.7851e-08,21250,65.208,0.016276,-3.0305,0,0,0.019178,1
21162,54.219,20.044,3.1299e-05,0.024239,3.7851e-08,21250,65.208,0.016276,-3.0305,0,0,0.019178,1
21164,54.219,20.046,3.1302e-05,0.023964,3.742e-08,21250,65.147,0.016276,-3.0305,0,0,0.019529,1
21164,54.219,20.046,3.1302e-05,0.023964,3.742e-08,21250,65.147,0.016276,-3.0305,0,0,0.019529,1
21164,54.219,20.047,3.1303e-05,0.023895,3.7313e-08,21250,65.147,0.016276,-3.0305,0,0,0.019618,1
21164,54.219,20.047,3.1303e-05,0.023895,3.7313e-08,21250,65.147,0.016276,-3.0305,0,0,0.019618,1
21166,54.219,20.048,3.1306e-05,0.023619,3.6882e-08,21250,64.905,0.016276,-3.0305,0,0,0.019991,1
21166,54.219,20.048,3.1306e-05,0.023619,3.6882e-08,21250,64.905,0.016276,-3.0305,0,0,0.019991,1
21166,54.219,20.048,3.1306e-05,0.023619,3.6882e-08,21250,64.905,0.016276,-3.0305,0,0,0.019991,1
21166,54.219,20.048,3.1306e-05,0.023619,3.6882e-08,21250,64.905,0.016276,-3.0305,0,0,0.019991,1
21166,54.219,20.048,3.1306e-05,0.023619,3.6882e-08,21250,64.905,0.016276,-3.0305,0,0,0.019991,1
21166,54.219,20.048,3.1306e-05,0.023619,3.6882e-08,21250,64.905,0.016276,-3.0305,0,0,0.019991,1
21166,54.219,20.048,3.1306e-05,0.023619,3.6882e-08,21250,64.905,0.016276,-3.0305,0,0,0.019991,1
21166,54.219,20.049,3.1307e-05,0.023549,3.6773e-08,21250,64.905,0.016276,-3.0305,0,0,0.020084,1
21166,54.219,20.049,3.1307e-05,0.023549,3.6773e-08,21250,64.905,0.016276,-3.0305,0,0,0.020084,1
21167,54.219,20.049,3.1308e-05,0.02348,3.6665e-08,21250,64.905,0.016276,-3.0305,0,0,0.020179,1
21167,54.219,20.049,3.1308e-05,0.02348,3.6665e-08,21250,64.905,0.016276,-3.0305,0,0,0.020179,1
21167,54.219,20.049,3.1308e-05,0.02348,3.6665e-08,21250,64.905,0.016276,-3.0305,0,0,0.020179,1
21167,54.219,20.049,3.1308e-05,0.02348,3.6665e-08,21250,64.905,0.016276,-3.0305,0,0,0.020179,1
21167,54.219,20.05,3.1308e-05,0.023411,3.6557e-08,21250,64.905,0.016276,-3.0305,0,0,0.020274,1
21168,54.219,20.051,3.1311e-05,0.023201,3.623e-08,21250,64.905,0.016276,-3.0305,0,0,0.020566,1
21168,54.219,20.051,3.1311e-05,0.023201,3.623e-08,21250,64.905,0.016276,-3.0305,0,0,0.020566,1
21169,54.219,20.052,3.1311e-05,0.023132,3.6121e-08,21250,64.905,0.016276,-3.0305,0,0,0.020665,1
21169,54.219,20.052,3.1311e-05,0.023132,3.6121e-08,21250,64.905,0.016276,-3.0305,0,0,0.020665,1
21169,54.219,20.052,3.1312e-05,0.023062,3.6012e-08,21250,64.905,0.016276,-3.0305,0,0,0.020765,1
21169,54.219,20.052,3.1312e-05,0.023062,3.6012e-08,21250,64.238,0,-3.0305,-0.13563,0,0.020768,1
21169,54.219,20.052,3.1312e-05,0.023062,3.6012e-08,21250,64.238,0,-3.0305,-0.13563,0,0.020768,1
21170,54.219,20.053,3.1313e-05,0.022922,3.5793e-08,21250,64.238,0,-3.0305,-0.13563,0,0.020972,1
21170,54.219,20.053,3.1313e-05,0.022922,3.5793e-08,21250,64.238,0,-3.0305,-0.13563,0,0.020972,1
21170,54.219,20.054,3.1314e-05,0.022853,3.5685e-08,21250,64.238,0,-3.0305,-0.13563,0,0.021075,1
21170,54.219,20.054,3.1314e-05,0.022853,3.5685e-08,21250,64.238,0,-3.0305,-0.13563,0,0.021075,1
21171,54.219,20.054,3.1315e-05,0.022782,3.5575e-08,21250,64.238,0,-3.0305,-0.13563,0,0.021179,1
21171,54.219,20.054,3.1315e-05,0.022782,3.5575e-08,21250,64.238,0,-3.0305,-0.13563,0,0.021179,1
21171,54.219,20.055,3.1316e-05,0.022712,3.5465e-08,21250,64.238,0,-3.0305,-0.13563,0,0.021284,1
21171,54.219,20.055,3.1316e-05,0.022712,3.5465e-08,21250,64.238,0,-3.0305,-0.13563,0,0.021284,1
21171,54.219,20.055,3.1316e-05,0.022712,3.5465e-08,21250,64.238,0,-3.0305,-0.13563,0,0.021284,1
21171,54.219,20.055,3.1316e-05,0.022642,3.5356e-08,21250,64.238,0,-3.0305,-0.13563,0,0.021391,1
21172,54.219,20.055,3.1317e-05,0.022571,3.5245e-08,21250,64.238,0,-3.0305,-0.13563,0,0.021498,1
21172,54.219,20.055,3.1317e-05,0.022571,3.5245e-08,21250,64.238,0,-3.0305,-0.13563,0,0.021498,1
21172,54.219,20.056,3.1318e-05,0.022501,3.5135e-08,21250,64.238,0,-3.0305,-0.13563,0,0.021606,1
21172,54.219,20.056,3.1318e-05,0.022501,3.5135e-08,21250,64.238,0,-3.0305,-0.13563,0,0.021606,1
21173,54.219,20.056,3.1318e-05,0.02243,3.5025e-08,21250,64.238,0,-3.0305,-0.13563,0,0.021716,1
21173,54.219,20.057,3.1319e-05,0.02236,3.4915e-08,21250,64.238,0,-3.0305,-0.13563,0,0.021826,1
21173,54.219,20.057,3.1319e-05,0.02236,3.4915e-08,21250,64.238,0,-3.0305,-0.13563,0,0.021826,1
21173,54.219,20.057,3.1319e-05,0.02236,3.4915e-08,21250,64.238,0,-3.0305,-0.13563,0,0.021826,1
21173,54.219,20.057,3.1319e-05,0.02236,3.4915e-08,21250,63.632,0.016276,-3.0305,0.13563,0,0.021865,1
21173,54.219,20.057,3.1319e-05,0.02236,3.4915e-08,21250,63.632,0.016276,-3.0305,0.13563,0,0.021865,1
21173,54.219,20.057,3.1319e-05,0.02236,3.4915e-08,21250,63.572,0.016276,-3.0305,0,0,0.021867,1
21173,54.219,20.057,3.1319e-05,0.02236,3.4915e-08,21250,63.572,0.016276,-3.0305,0,0,0.021867,1
21173,54.219,20.057,3.1319e-05,0.02236,3.4915e-08,21250,63.572,0.016276,-3.0305,0,0,0.021867,1
21173,54.219,20.057,3.1319e-05,0.02236,3.4915e-08,21250,63.572,0.016276,-3.0305,0,0,0.021867,1
21173,54.219,20.057,3.1319e-05,0.02236,3.4915e-08,21250,63.572,0.016276,-3.0305,0,0,0.021867,1
21173,54.219,20.057,3.1319e-05,0.02236,3.4915e-08,21250,63.572,0.016276,-3.0305,0,0,0.021867,1
21173,54.219,20.057,3.1319e-05,0.02236,3.4915e-08,21250,63.572,0.016276,-3.0305,0,0,0.021867,1
21173,54.219,20.057,3.1319e-05,0.02236,3.4915e-08,21250,63.572,0.016276,-3.0305,0,0,0.021867,1
21174,54.219,20.058,3.1321e-05,0.022147,3.4583e-08,21250,63.572,0.016276,-3.0305,0,0,0.022207,1
21174,54.219,20.058,3.1321e-05,0.022147,3.4583e-08,21250,63.45,0.016276,-3.0305,0,0,0.022211,1
21174,54.219,20.058,3.1321e-05,0.022147,3.4583e-08,21250,63.39,0.016276,-3.0305,0,0,0.022213,1
21174,54.219,20.058,3.1321e-05,0.022147,3.4583e-08,21250,63.39,0.016276,-3.0305,0,0,0.022213,1
21177,54.219,20.061,3.1325e-05,0.021721,3.3918e-08,21250,63.329,0.016276,-3.0305,0,0,0.022928,1
21177,54.219,20.061,3.1325e-05,0.021721,3.3918e-08,21250,63.329,0.016276,-3.0305,0,0,0.022928,1
21177,54.219,20.061,3.1325e-05,0.021721,3.3918e-08,21250,63.329,0.016276,-3.0305,0,0,0.022928,1
21177,54.219,20.061,3.1325e-05,0.021721,3.3918e-08,21250,63.329,0.016276,-3.0305,0,0,0.022928,1
21177,54.219,20.061,3.1325e-05,0.021721,3.3918e-08,21250,63.329,0.016276,-3.0305,0,0,0.022928,1
21177,54.219,20.061,3.1325e-05,0.021721,3.3918e-08,21250,63.329,0.016276,-3.0305,0,0,0.022928,1
21177,54.219,20.061,3.1325e-05,0.021721,3.3918e-08,21250,63.329,0.016276,-3.0305,0,0,0.022928,1
21177,54.219,20.061,3.1325e-05,0.021721,3.3918e-08,21250,63.329,0.016276,-3.0305,0,0,0.022928,1
21177,54.219,20.061,3.1325e-05,0.021721,3.3918e-08,21250,63.087,0.016276,-3.0305,0,0,0.022937,1
21177,54.219,20.061,3.1325e-05,0.021721,3.3918e-08,21250,63.087,0.016276,-3.0305,0,0,0.022937,1
21177,54.219,20.061,3.1325e-05,0.021721,3.3918e-08,21250,63.087,0.016276,-3.0305,0,0,0.022937,1
21177,54.219,20.061,3.1325e-05,0.021721,3.3918e-08,21250,63.087,0.016276,-3.0305,0,0,0.022937,1
21177,54.219,20.061,3.1325e-05,0.021721,3.3918e-08,21250,63.026,0.016276,-3.0305,0,0,0.022939,1
21177,54.219,20.061,3.1325e-05,0.021721,3.3918e-08,21250,63.026,0.016276,-3.0305,0,0,0.022939,1
21178,54.219,20.062,3.1327e-05,0.021508,3.3585e-08,21250,63.026,0.016276,-3.0305,0,0,0.023313,1
21178,54.219,20.062,3.1327e-05,0.021508,3.3585e-08,21250,63.026,0.016276,-3.0305,0,0,0.023313,1
21179,54.219,20.063,3.1329e-05,0.021293,3.3249e-08,21250,62.844,0.016276,-3.0305,0,0,0.023707,1
21180,54.219,20.064,3.1331e-05,0.02115,3.3026e-08,21250,62.723,0.016276,-3.0305,0,0,0.023977,1
21180,54.219,20.065,3.1331e-05,0.021078,3.2913e-08,21250,62.723,0.016276,-3.0305,0,0,0.024112,1
21181,54.219,20.065,3.1332e-05,0.021007,3.2802e-08,21250,62.723,0.016276,-3.0305,0,0,0.024249,1
21181,54.219,20.065,3.1332e-05,0.021007,3.2802e-08,21250,62.723,0.016276,-3.0305,0,0,0.024249,1
21181,54.219,20.065,3.1332e-05,0.021007,3.2802e-08,21250,62.723,0.016276,-3.0305,0,0,0.024249,1
21181,54.219,20.065,3.1332e-05,0.021007,3.2802e-08,21250,62.723,0.016276,-3.0305,0,0,0.024249,1
21181,54.219,20.065,3.1332e-05,0.021007,3.2802e-08,21250,62.723,0.016276,-3.0305,0,0,0.024249,1
21181,54.219,20.065,3.1332e-05,0.021007,3.2802e-08,21250,62.723,0.016276,-3.0305,0,0,0.024249,1
21181,54.219,20.065,3.1332e-05,0.021007,3.2802e-08,21250,62.723,0.016276,-3.0305,0,0,0.024249,1
21181,54.219,20.065,3.1332e-05,0.021007,3.2802e-08,21250,62.723,0.016276,-3.0305,0,0,0.024249,1
21181,54.219,20.065,3.1332e-05,0.021007,3.2802e-08,21250,62.723,0.016276,-3.0305,0,0,0.024249,1
21181,54.219,20.065,3.1332e-05,0.021007,3.2802e-08,21250,62.723,0.016276,-3.0305,0,0,0.024249,1
21181,54.219,20.065,3.1332e-05,0.021007,3.2802e-08,21250,62.481,0,-3.0305,-0.13563,0,0.024239,1
21181,54.219,20.065,3.1332e-05,0.021007,3.2802e-08,21250,62.481,0,-3.0305,-0.13563,0,0.024239,1
21181,54.219,20.065,3.1332e-05,0.021007,3.2802e-08,21250,62.481,0,-3.0305,-0.13563,0,0.024239,1
21181,54.219,20.065,3.1332e-05,0.021007,3.2802e-08,21250,62.481,0,-3.0305,-0.13563,0,0.024239,1
21181,54.219,20.065,3.1332e-05,0.021007,3.2802e-08,21250,62.481,0,-3.0305,-0.13563,0,0.024239,1
21181,54.219,20.065,3.1332e-05,0.021007,3.2802e-08,21250,62.481,0,-3.0305,-0.13563,0,0.024239,1
21181,54.219,20.065,3.1332e-05,0.021007,3.2802e-08,21250,62.481,0,-3.0305,-0.13563,0,0.024239,1
21181,54.219,20.065,3.1332e-05,0.021007,3.2802e-08,21250,62.481,0,-3.0305,-0.13563,0,0.024239,1
21181,54.219,20.065,3.1332e-05,0.021007,3.2802e-08,21250,62.481,0,-3.0305,-0.13563,0,0.024239,1
21181,54.219,20.066,3.1333e-05,0.020863,3.2577e-08,21250,62.481,0,-3.0305,-0.13563,0,0.024517,1
21181,54.219,20.066,3.1333e-05,0.020863,3.2577e-08,21250,62.481,0,-3.0305,-0.13563,0,0.024517,1
21182,54.219,20.066,3.1334e-05,0.020791,3.2464e-08,21250,62.481,0,-3.0305,-0.13563,0,0.024658,1
21182,54.219,20.066,3.1334e-05,0.020791,3.2464e-08,21250,62.178,0,-3.0305,-0.13563,0,0.02467,1
21185,54.219,20.069,3.1338e-05,0.020285,3.1675e-08,21250,62.117,0.016276,-3.0306,0.13563,-0.00026491,0.025732,1
21185,54.219,20.07,3.134e-05,0.02014,3.1448e-08,21251,61.875,0.016276,-3.0306,0.13563,-0.00026491,0.026055,1
21185,54.219,20.07,3.134e-05,0.02014,3.1448e-08,21251,61.875,0.016276,-3.0306,0.13563,-0.00026491,0.026055,1
21185,54.219,20.07,3.134e-05,0.02014,3.1448e-08,21251,61.875,0.016276,-3.0306,0.13563,-0.00026491,0.026055,1
21185,54.219,20.07,3.134e-05,0.02014,3.1448e-08,21251,61.875,0.016276,-3.0306,0.13563,-0.00026491,0.026055,1
21185,54.219,20.07,3.134e-05,0.02014,3.1448e-08,21251,61.875,0.016276,-3.0306,0.13563,-0.00026491,0.026055,1
21185,54.219,20.07,3.134e-05,0.02014,3.1448e-08,21251,61.875,0.016276,-3.0306,0.13563,-0.00026491,0.026055,1
21185,54.219,20.07,3.134e-05,0.02014,3.1448e-08,21251,61.875,0.016276,-3.0306,0.13563,-0.00026491,0.026055,1
21185,54.219,20.07,3.134e-05,0.02014,3.1448e-08,21251,61.875,0.016276,-3.0306,0.13563,-0.00026491,0.026055,1
21185,54.219,20.07,3.134e-05,0.02014,3.1448e-08,21251,61.753,0.016276,-3.0305,0,0.00026491,0.026061,1
21185,54.219,20.07,3.134e-05,0.02014,3.1448e-08,21251,61.753,0.016276,-3.0305,0,0.00026491,0.026061,1
21185,54.219,20.07,3.134e-05,0.02014,3.1448e-08,21251,61.753,0.016276,-3.0305,0,0.00026491,0.026061,1
21185,54.219,20.07,3.134e-05,0.02014,3.1448e-08,21251,61.753,0.016276,-3.0305,0,0.00026491,0.026061,1
21185,54.219,20.07,3.134e-05,0.02014,3.1448e-08,21251,61.753,0.016276,-3.0305,0,0.00026491,0.026061,1
21185,54.219,20.07,3.134e-05,0.02014,3.1448e-08,21251,61.753,0.016276,-3.0305,0,0.00026491,0.026061,1
21185,54.219,20.07,3.134e-05,0.02014,3.1448e-08,21251,61.753,0.016276,-3.0305,0,0.00026491,0.026061,1
21185,54.219,20.07,3.134e-05,0.02014,3.1448e-08,21251,61.753,0.016276,-3.0305,0,0.00026491,0.026061,1
21185,54.219,20.07,3.134e-05,0.02014,3.1448e-08,21251,61.753,0.016276,-3.0305,0,0.00026491,0.026061,1
21186,54.219,20.071,3.1341e-05,0.019994,3.1221e-08,21251,61.753,0.016276,-3.0305,0,0.00026491,0.026382,1
21186,54.219,20.071,3.1341e-05,0.019994,3.1221e-08,21251,61.753,0.016276,-3.0305,0,0.00026491,0.026382,1
21186,54.219,20.071,3.1341e-05,0.019994,3.1221e-08,21251,61.753,0.016276,-3.0305,0,0.00026491,0.026382,1
21186,54.219,20.071,3.1341e-05,0.019994,3.1221e-08,21251,61.632,0.016276,-3.0305,0,0.00026491,0.026388,1
21187,54.219,20.072,3.1343e-05,0.019776,3.088e-08,21251,61.632,0.016276,-3.0305,0,0.00026491,0.026885,1
21188,54.219,20.073,3.1344e-05,0.019629,3.065e-08,21251,61.632,0.016276,-3.0305,0,0.00026491,0.027227,1
21188,54.219,20.073,3.1344e-05,0.019629,3.065e-08,21251,61.208,0.016276,-3.0305,0,0,0.027248,1
21188,54.219,20.073,3.1344e-05,0.019629,3.065e-08,21251,61.147,0.016276,-3.0305,0,0,0.027251,1
21188,54.219,20.073,3.1344e-05,0.019629,3.065e-08,21251,61.087,0.016276,-3.0305,0,0,0.027253,1
21188,54.219,20.073,3.1344e-05,0.019629,3.065e-08,21251,61.087,0.016276,-3.0305,0,0,0.027253,1
21188,54.219,20.073,3.1344e-05,0.019629,3.065e-08,21251,61.087,0.016276,-3.0305,0,0,0.027253,1
21188,54.219,20.073,3.1344e-05,0.019629,3.065e-08,21251,61.087,0.016276,-3.0305,0,0,0.027253,1
21188,54.219,20.073,3.1344e-05,0.019629,3.065e-08,21251,61.087,0.016276,-3.0305,0,0,0.027253,1
21188,54.219,20.073,3.1344e-05,0.019629,3.065e-08,21251,61.087,0.016276,-3.0305,0,0,0.027253,1
21188,54.219,20.073,3.1344e-05,0.019629,3.065e-08,21251,61.087,0.016276,-3.0305,0,0,0.027253,1
21188,54.219,20.073,3.1344e-05,0.019629,3.065e-08,21251,61.026,0.016276,-3.0305,0,0,0.027255,1
21188,54.219,20.073,3.1344e-05,0.019629,3.065e-08,21251,61.026,0.016276,-3.0305,0,0,0.027255,1
21188,54.219,20.073,3.1344e-05,0.019629,3.065e-08,21251,61.026,0.016276,-3.0305,0,0,0.027255,1
21188,54.219,20.073,3.1344e-05,0.019629,3.065e-08,21251,61.026,0.016276,-3.0305,0,0,0.027255,1
21188,54.219,20.073,3.1344e-05,0.019629,3.065e-08,21251,61.026,0.016276,-3.0305,0,0,0.027255,1
21188,54.219,20.073,3.1344e-05,0.019629,3.065e-08,21251,61.026,0.016276,-3.0305,0,0,0.027255,1
21188,54.219,20.073,3.1344e-05,0.019629,3.065e-08,21251,61.026,0.016276,-3.0305,0,0,0.027255,1
21188,54.219,20.073,3.1344e-05,0.019629,3.065e-08,21251,61.026,0.016276,-3.0305,0,0,0.027255,1
21188,54.219,20.073,3.1344e-05,0.019629,3.065e-08,21251,61.026,0.016276,-3.0305,0,0,0.027255,1
21191,54.219,20.075,3.1348e-05,0.019117,2.9851e-08,21251,61.026,0.016276,-3.0305,0,0,0.028528,1
21191,54.219,20.075,3.1348e-05,0.019117,2.9851e-08,21251,61.026,0.016276,-3.0305,0,0,0.028528,1
21191,54.219,20.075,3.1348e-05,0.019117,2.9851e-08,21251,61.026,0.016276,-3.0305,0,0,0.028528,1
21192,54.219,20.077,3.135e-05,0.018896,2.9506e-08,21251,60.905,0.016276,-3.0305,0,0,0.029117,1
21193,54.219,20.077,3.1351e-05,0.018822,2.9391e-08,21251,60.905,0.016276,-3.0305,0,0,0.029317,1
21194,54.219,20.078,3.1353e-05,0.018526,2.8929e-08,21251,60.541,0.016276,-3.0305,0,0,0.030164,1
21194,54.219,20.078,3.1353e-05,0.018526,2.8929e-08,21251,60.42,0.016276,-3.0305,0,0,0.030172,1
21194,54.219,20.078,3.1353e-05,0.018526,2.8929e-08,21251,60.42,0.016276,-3.0305,0,0,0.030172,1
21194,54.219,20.078,3.1353e-05,0.018526,2.8929e-08,21251,60.42,0.016276,-3.0305,0,0,0.030172,1
21194,54.219,20.078,3.1353e-05,0.018526,2.8929e-08,21251,60.359,0.016276,-3.0305,0,0,0.030175,1
21194,54.219,20.078,3.1353e-05,0.018526,2.8929e-08,21251,60.359,0.016276,-3.0305,0,0,0.030175,1
21194,54.219,20.078,3.1353e-05,0.018526,2.8929e-08,21251,60.359,0.016276,-3.0305,0,0,0.030175,1
21194,54.219,20.078,3.1353e-05,0.018526,2.8929e-08,21251,60.359,0.016276,-3.0305,0,0,0.030175,1
21194,54.219,20.078,3.1353e-05,0.018526,2.8929e-08,21251,60.359,0.016276,-3.0305,0,0,0.030175,1
21194,54.219,20.078,3.1353e-05,0.018526,2.8929e-08,21251,60.359,0.016276,-3.0305,0,0,0.030175,1
21194,54.219,20.078,3.1353e-05,0.018526,2.8929e-08,21251,60.359,0.016276,-3.0305,0,0,0.030175,1
21194,54.219,20.078,3.1353e-05,0.018526,2.8929e-08,21251,60.359,0.016276,-3.0305,0,0,0.030175,1
21194,54.219,20.078,3.1353e-05,0.018526,2.8929e-08,21251,60.359,0.016276,-3.0305,0,0,0.030175,1
21195,54.219,20.08,3.1355e-05,0.018304,2.8582e-08,21251,60.359,0.016276,-3.0305,0,0,0.030828,1
21195,54.219,20.08,3.1355e-05,0.018304,2.8582e-08,21251,60.359,0.016276,-3.0305,0,0,0.030828,1
21195,54.219,20.08,3.1355e-05,0.018304,2.8582e-08,21251,60.359,0.016276,-3.0305,0,0,0.030828,1
21195,54.219,20.08,3.1355e-05,0.018304,2.8582e-08,21251,60.359,0.016276,-3.0305,0,0,0.030828,1
21195,54.219,20.08,3.1355e-05,0.018304,2.8582e-08,21251,60.359,0.016276,-3.0305,0,0,0.030828,1
21195,54.219,20.08,3.1355e-05,0.018304,2.8582e-08,21251,60.359,0.016276,-3.0305,0,0,0.030828,1
21195,54.219,20.08,3.1355e-05,0.018304,2.8582e-08,21251,60.359,0.016276,-3.0305,0,0,0.030828,1
21196,54.219,20.08,3.1355e-05,0.01823,2.8467e-08,21251,60.359,0.016276,-3.0305,0,0,0.031052,1
21196,54.219,20.08,3.1355e-05,0.01823,2.8467e-08,21251,60.359,0.016276,-3.0305,0,0,0.031052,1
21196,54.219,20.08,3.1356e-05,0.018156,2.8351e-08,21251,60.359,0.016276,-3.0305,0,0,0.031279,1
21198,54.219,20.082,3.1358e-05,0.017858,2.7886e-08,21251,59.996,0,-3.0305,-0.13563,0,0.032219,1
21199,54.219,20.083,3.136e-05,0.017635,2.7537e-08,21251,59.874,0.016276,-3.0305,0.13563,0,0.033,1
21199,54.219,20.083,3.136e-05,0.017635,2.7537e-08,21251,59.693,0.016276,-3.0305,0.13563,0,0.033012,1
21199,54.219,20.083,3.136e-05,0.017635,2.7537e-08,21251,59.693,0.016276,-3.0305,0.13563,0,0.033012,1
21199,54.219,20.083,3.136e-05,0.017635,2.7537e-08,21251,59.693,0.016276,-3.0305,0.13563,0,0.033012,1
21199,54.219,20.083,3.136e-05,0.017635,2.7537e-08,21251,59.632,0.016276,-3.0305,0.13563,0,0.033016,1
21199,54.219,20.083,3.136e-05,0.017635,2.7537e-08,21251,59.632,0.016276,-3.0305,0.13563,0,0.033016,1
21199,54.219,20.083,3.136e-05,0.017635,2.7537e-08,21251,59.632,0.016276,-3.0305,0.13563,0,0.033016,1
21199,54.219,20.083,3.136e-05,0.017635,2.7537e-08,21251,59.632,0.016276,-3.0305,0.13563,0,0.033016,1
21199,54.219,20.083,3.136e-05,0.017635,2.7537e-08,21251,59.632,0.016276,-3.0305,0.13563,0,0.033016,1
21199,54.219,20.083,3.136e-05,0.017635,2.7537e-08,21251,59.632,0.016276,-3.0305,0.13563,0,0.033016,1
21199,54.219,20.083,3.136e-05,0.017635,2.7537e-08,21251,59.632,0.016276,-3.0305,0.13563,0,0.033016,1
21199,54.219,20.083,3.136e-05,0.017635,2.7537e-08,21251,59.632,0.016276,-3.0305,0.13563,0,0.033016,1
21200,54.219,20.084,3.1361e-05,0.01741,2.7187e-08,21251,59.632,0.016276,-3.0305,0.13563,0,0.033799,1
21200,54.219,20.084,3.1361e-05,0.01741,2.7187e-08,21251,59.632,0.016276,-3.0305,0.13563,0,0.033799,1
21200,54.219,20.084,3.1361e-05,0.01741,2.7187e-08,21251,59.632,0.016276,-3.0305,0.13563,0,0.033799,1
21200,54.219,20.084,3.1361e-05,0.01741,2.7187e-08,21251,59.632,0.016276,-3.0305,0.13563,0,0.033799,1
21200,54.219,20.084,3.1361e-05,0.01741,2.7187e-08,21251,59.632,0.016276,-3.0305,0.13563,0,0.033799,1
21200,54.219,20.084,3.1361e-05,0.01741,2.7187e-08,21251,59.632,0.016276,-3.0305,0.13563,0,0.033799,1
21200,54.219,20.084,3.1361e-05,0.01741,2.7187e-08,21251,59.632,0.016276,-3.0305,0.13563,0,0.033799,1
21200,54.219,20.084,3.1361e-05,0.01741,2.7187e-08,21251,59.632,0.016276,-3.0305,0.13563,0,0.033799,1
21200,54.219,20.084,3.1361e-05,0.01741,2.7187e-08,21251,59.511,0.016276,-3.0305,0,0,0.033808,1
21200,54.219,20.084,3.1361e-05,0.01741,2.7187e-08,21251,59.511,0.016276,-3.0305,0,0,0.033808,1
21202,54.219,20.086,3.1364e-05,0.017036,2.6602e-08,21251,59.45,0.016276,-3.0305,0,0,0.035205,1
21202,54.219,20.086,3.1364e-05,0.017036,2.6602e-08,21251,59.208,0.016276,-3.0306,0,-0.00026491,0.035223,1
21202,54.219,20.086,3.1364e-05,0.017036,2.6602e-08,21251,59.026,0.016276,-3.0306,0,-0.00026491,0.035236,1
21202,54.219,20.086,3.1364e-05,0.017036,2.6602e-08,21251,59.026,0.016276,-3.0306,0,-0.00026491,0.035236,1
21202,54.219,20.086,3.1364e-05,0.017036,2.6602e-08,21251,58.965,0.016276,-3.0306,0,-0.00026491,0.03524,1
21202,54.219,20.086,3.1364e-05,0.017036,2.6602e-08,21251,58.965,0.016276,-3.0306,0,-0.00026491,0.03524,1
21202,54.219,20.086,3.1364e-05,0.017036,2.6602e-08,21251,58.965,0.016276,-3.0306,0,-0.00026491,0.03524,1
21202,54.219,20.086,3.1364e-05,0.017036,2.6602e-08,21251,58.965,0.016276,-3.0306,0,-0.00026491,0.03524,1
21202,54.219,20.086,3.1364e-05,0.017036,2.6602e-08,21251,58.965,0.016276,-3.0306,0,-0.00026491,0.03524,1
21202,54.219,20.086,3.1364e-05,0.017036,2.6602e-08,21251,58.905,0.016276,-3.0306,0,-0.00026491,0.035245,1
21202,54.219,20.086,3.1364e-05,0.017036,2.6602e-08,21251,58.905,0.016276,-3.0306,0,-0.00026491,0.035245,1
21202,54.219,20.086,3.1364e-05,0.017036,2.6602e-08,21251,58.905,0.016276,-3.0306,0,-0.00026491,0.035245,1
21202,54.219,20.086,3.1364e-05,0.017036,2.6602e-08,21251,58.905,0.016276,-3.0306,0,-0.00026491,0.035245,1
21202,54.219,20.086,3.1364e-05,0.017036,2.6602e-08,21251,58.905,0.016276,-3.0306,0,-0.00026491,0.035245,1
21202,54.219,20.086,3.1364e-05,0.017036,2.6602e-08,21251,58.905,0.016276,-3.0306,0,-0.00026491,0.035245,1
21202,54.219,20.086,3.1364e-05,0.017036,2.6602e-08,21251,58.905,0.016276,-3.0306,0,-0.00026491,0.035245,1
21202,54.219,20.086,3.1364e-05,0.017036,2.6602e-08,21251,58.905,0.016276,-3.0306,0,-0.00026491,0.035245,1
21202,54.219,20.086,3.1364e-05,0.017036,2.6602e-08,21251,58.905,0.016276,-3.0306,0,-0.00026491,0.035245,1
21205,54.219,20.088,3.1368e-05,0.016509,2.578e-08,21251,58.905,0.016276,-3.0306,0,-0.00026491,0.037407,1
21205,54.219,20.088,3.1368e-05,0.016509,2.578e-08,21251,58.905,0.016276,-3.0306,0,-0.00026491,0.037407,1
21205,54.219,20.088,3.1368e-05,0.016509,2.578e-08,21251,58.905,0.016276,-3.0306,0,-0.00026491,0.037407,1
21205,54.219,20.088,3.1368e-05,0.016509,2.578e-08,21251,58.905,0.016276,-3.0306,0,-0.00026491,0.037407,1
21205,54.219,20.088,3.1368e-05,0.016509,2.578e-08,21251,58.905,0.016276,-3.0306,0,-0.00026491,0.037407,1
21206,54.219,20.089,3.1369e-05,0.016282,2.5425e-08,21251,58.783,0.016276,-3.0305,0,0.00026491,0.038425,1
21207,54.219,20.089,3.137e-05,0.016206,2.5307e-08,21251,58.783,0.016276,-3.0305,0,0.00026491,0.038774,1
21208,54.219,20.09,3.1372e-05,0.015903,2.4833e-08,21251,58.42,0,-3.0305,-0.13563,0,0.040239,1
21209,54.219,20.091,3.1373e-05,0.015751,2.4596e-08,21251,58.298,0,-3.0305,-0.13563,0,0.041022,1
21209,54.219,20.091,3.1373e-05,0.015751,2.4596e-08,21251,58.298,0,-3.0305,-0.13563,0,0.041022,1
21209,54.219,20.091,3.1373e-05,0.015751,2.4596e-08,21251,58.298,0,-3.0305,-0.13563,0,0.041022,1
21209,54.219,20.091,3.1373e-05,0.015751,2.4596e-08,21251,58.298,0,-3.0305,-0.13563,0,0.041022,1
21209,54.219,20.091,3.1373e-05,0.015751,2.4596e-08,21251,58.298,0,-3.0305,-0.13563,0,0.041022,1
21209,54.219,20.091,3.1373e-05,0.015751,2.4596e-08,21251,58.298,0,-3.0305,-0.13563,0,0.041022,1
21209,54.219,20.091,3.1373e-05,0.015751,2.4596e-08,21251,58.298,0,-3.0305,-0.13563,0,0.041022,1
21209,54.219,20.091,3.1373e-05,0.015751,2.4596e-08,21251,58.298,0,-3.0305,-0.13563,0,0.041022,1
21209,54.219,20.091,3.1373e-05,0.015751,2.4596e-08,21251,58.177,0,-3.0305,-0.13563,0,0.041034,1
21209,54.219,20.091,3.1373e-05,0.015751,2.4596e-08,21251,58.177,0,-3.0305,-0.13563,0,0.041034,1
21209,54.219,20.091,3.1373e-05,0.015751,2.4596e-08,21251,58.177,0,-3.0305,-0.13563,0,0.041034,1
21209,54.219,20.091,3.1373e-05,0.015751,2.4596e-08,21251,58.177,0,-3.0305,-0.13563,0,0.041034,1
21209,54.219,20.091,3.1373e-05,0.015751,2.4596e-08,21251,58.177,0,-3.0305,-0.13563,0,0.041034,1
21209,54.219,20.091,3.1373e-05,0.015751,2.4596e-08,21251,58.177,0,-3.0305,-0.13563,0,0.041034,1
21209,54.219,20.091,3.1373e-05,0.015751,2.4596e-08,21251,58.177,0,-3.0305,-0.13563,0,0.041034,1
21209,54.219,20.091,3.1373e-05,0.015751,2.4596e-08,21251,58.177,0,-3.0305,-0.13563,0,0.041034,1
21209,54.219,20.091,3.1373e-05,0.015751,2.4596e-08,21251,58.177,0,-3.0305,-0.13563,0,0.041034,1
21210,54.219,20.092,3.1374e-05,0.015599,2.4359e-08,21251,58.177,0,-3.0305,-0.13563,0,0.04184,1
21210,54.219,20.092,3.1374e-05,0.015599,2.4359e-08,21251,58.177,0,-3.0305,-0.13563,0,0.04184,1
21210,54.219,20.092,3.1374e-05,0.015599,2.4359e-08,21251,58.177,0,-3.0305,-0.13563,0,0.04184,1
21211,54.219,20.093,3.1375e-05,0.015371,2.4002e-08,21251,58.056,0.016276,-3.0305,0.13563,0,0.043157,1
21212,54.219,20.093,3.1376e-05,0.015295,2.3884e-08,21251,58.056,0.016276,-3.0305,0.13563,0,0.043598,1
21212,54.219,20.093,3.1376e-05,0.015295,2.3884e-08,21251,57.692,0.016276,-3.0305,0,0,0.043633,1
21213,54.219,20.094,3.1378e-05,0.014989,2.3406e-08,21251,57.692,0.016276,-3.0305,0,0,0.045496,1
21213,54.219,20.094,3.1378e-05,0.014989,2.3406e-08,21251,57.692,0.016276,-3.0305,0,0,0.045496,1
21213,54.219,20.094,3.1378e-05,0.014989,2.3406e-08,21251,57.571,0.016276,-3.0305,0,0,0.045509,1
21213,54.219,20.094,3.1378e-05,0.014989,2.3406e-08,21251,57.511,0.016276,-3.0305,0,0,0.045513,1
21213,54.219,20.094,3.1378e-05,0.014989,2.3406e-08,21251,57.511,0.016276,-3.0305,0,0,0.045513,1
21213,54.219,20.094,3.1378e-05,0.014989,2.3406e-08,21251,57.511,0.016276,-3.0305,0,0,0.045513,1
21213,54.219,20.094,3.1378e-05,0.014989,2.3406e-08,21251,57.511,0.016276,-3.0305,0,0,0.045513,1
21213,54.219,20.094,3.1378e-05,0.014989,2.3406e-08,21251,57.511,0.016276,-3.0305,0,0,0.045513,1
21213,54.219,20.094,3.1378e-05,0.014989,2.3406e-08,21251,57.511,0.016276,-3.0305,0,0,0.045513,1
21213,54.219,20.094,3.1378e-05,0.014989,2.3406e-08,21251,57.511,0.016276,-3.0305,0,0,0.045513,1
21213,54.219,20.094,3.1378e-05,0.014989,2.3406e-08,21251,57.511,0.016276,-3.0305,0,0,0.045513,1
21213,54.219,20.094,3.1378e-05,0.014989,2.3406e-08,21251,57.45,0.016276,-3.0305,0,0,0.04552,1
21213,54.219,20.094,3.1378e-05,0.014989,2.3406e-08,21251,57.389,0.016276,-3.0305,0,0,0.045526,1
21213,54.219,20.094,3.1378e-05,0.014989,2.3406e-08,21251,57.389,0.016276,-3.0305,0,0,0.045526,1
21213,54.219,20.094,3.1378e-05,0.014989,2.3406e-08,21251,57.389,0.016276,-3.0305,0,0,0.045526,1
21213,54.219,20.094,3.1378e-05,0.014989,2.3406e-08,21251,57.389,0.016276,-3.0305,0,0,0.045526,1
21213,54.219,20.094,3.1378e-05,0.014989,2.3406e-08,21251,57.389,0.016276,-3.0305,0,0,0.045526,1
21213,54.219,20.094,3.1378e-05,0.014989,2.3406e-08,21251,57.389,0.016276,-3.0305,0,0,0.045526,1
21213,54.219,20.094,3.1378e-05,0.014989,2.3406e-08,21251,57.389,0.016276,-3.0305,0,0,0.045526,1
21215,54.219,20.096,3.138e-05,0.014606,2.2808e-08,21251,57.389,0.016276,-3.0305,0,0,0.048095,1
21215,54.219,20.096,3.138e-05,0.014606,2.2808e-08,21251,57.147,0.016276,-3.0305,0,0,0.048123,1
21215,54.219,20.096,3.138e-05,0.014606,2.2808e-08,21251,57.147,0.016276,-3.0305,0,0,0.048123,1
21215,54.219,20.096,3.138e-05,0.014606,2.2808e-08,21251,57.086,0.016276,-3.0305,0,0,0.04813,1
21215,54.219,20.096,3.138e-05,0.014606,2.2808e-08,21251,57.086,0.016276,-3.0305,0,0,0.04813,1
21218,54.219,20.098,3.1383e-05,0.014067,2.1967e-08,21251,57.026,0.016276,-3.0305,0,0,0.052268,1
21218,54.219,20.098,3.1383e-05,0.014067,2.1967e-08,21251,56.844,0.016276,-3.0305,0,0,0.052292,1
21218,54.219,20.098,3.1383e-05,0.014067,2.1967e-08,21251,56.844,0.016276,-3.0305,0,0,0.052292,1
21218,54.219,20.098,3.1383e-05,0.014067,2.1967e-08,21251,56.844,0.016276,-3.0305,0,0,0.052292,1
21218,54.219,20.098,3.1383e-05,0.014067,2.1967e-08,21251,56.844,0.016276,-3.0305,0,0,0.052292,1
21218,54.219,20.098,3.1383e-05,0.014067,2.1967e-08,21251,56.844,0.016276,-3.0305,0,0,0.052292,1
21218,54.219,20.098,3.1383e-05,0.014067,2.1967e-08,21251,56.783,0.016276,-3.0305,0,0,0.0523,1
21218,54.219,20.098,3.1383e-05,0.014067,2.1967e-08,21251,56.723,0.016276,-3.0305,0,0,0.052307,1
21218,54.219,20.098,3.1383e-05,0.014067,2.1967e-08,21251,56.723,0.016276,-3.0305,0,0,0.052307,1
21218,54.219,20.098,3.1383e-05,0.014067,2.1967e-08,21251,56.723,0.016276,-3.0305,0,0,0.052307,1
21218,54.219,20.098,3.1383e-05,0.014067,2.1967e-08,21251,56.723,0.016276,-3.0305,0,0,0.052307,1
21218,54.219,20.098,3.1383e-05,0.014067,2.1967e-08,21251,56.723,0.016276,-3.0305,0,0,0.052307,1
21218,54.219,20.098,3.1383e-05,0.014067,2.1967e-08,21251,56.723,0.016276,-3.0305,0,0,0.052307,1
21218,54.219,20.098,3.1383e-05,0.014067,2.1967e-08,21251,56.723,0.016276,-3.0305,0,0,0.052307,1
21220,54.219,20.099,3.1385e-05,0.013759,2.1485e-08,21251,56.723,0.016276,-3.0305,0,0,0.05501,1
21220,54.219,20.099,3.1385e-05,0.013682,2.1366e-08,21251,56.723,0.016276,-3.0305,0,0,0.05573,1
21220,54.219,20.099,3.1385e-05,0.013682,2.1366e-08,21251,56.541,0,-3.0306,-0.13563,-0.00026491,0.055707,1
21220,54.219,20.099,3.1385e-05,0.013682,2.1366e-08,21251,56.541,0,-3.0306,-0.13563,-0.00026491,0.055707,1
21220,54.219,20.099,3.1385e-05,0.013682,2.1366e-08,21251,56.541,0,-3.0306,-0.13563,-0.00026491,0.055707,1
21220,54.219,20.099,3.1385e-05,0.013682,2.1366e-08,21251,56.541,0,-3.0306,-0.13563,-0.00026491,0.055707,1
21220,54.219,20.099,3.1385e-05,0.013682,2.1366e-08,21251,56.541,0,-3.0306,-0.13563,-0.00026491,0.055707,1
21220,54.219,20.099,3.1385e-05,0.013682,2.1366e-08,21251,56.541,0,-3.0306,-0.13563,-0.00026491,0.055707,1
21220,54.219,20.099,3.1385e-05,0.013682,2.1366e-08,21251,56.541,0,-3.0306,-0.13563,-0.00026491,0.055707,1
21220,54.219,20.099,3.1385e-05,0.013682,2.1366e-08,21251,56.48,0,-3.0306,-0.13563,-0.00026491,0.055715,1
21222,54.219,20.1,3.1387e-05,0.013296,2.0762e-08,21251,56.48,0,-3.0306,-0.13563,-0.00026491,0.05962,1
21222,54.219,20.1,3.1387e-05,0.013296,2.0762e-08,21251,56.48,0,-3.0306,-0.13563,-0.00026491,0.05962,1
21222,54.219,20.1,3.1387e-05,0.013296,2.0762e-08,21251,56.238,0.016276,-3.0305,0.13563,0.00026491,0.059706,1
21222,54.219,20.1,3.1387e-05,0.013296,2.0762e-08,21251,56.238,0.016276,-3.0305,0.13563,0.00026491,0.059706,1
21224,54.219,20.101,3.1389e-05,0.012986,2.0277e-08,21251,56.177,0.016276,-3.0305,0.13563,0.00026491,0.063266,1
21224,54.219,20.101,3.1389e-05,0.012986,2.0277e-08,21251,55.995,0.016276,-3.0305,0.13563,0.00026491,0.063291,1
21224,54.219,20.101,3.1389e-05,0.012986,2.0277e-08,21251,55.995,0.016276,-3.0305,0.13563,0.00026491,0.063291,1
21224,54.219,20.101,3.1389e-05,0.012986,2.0277e-08,21251,55.995,0.016276,-3.0305,0.13563,0.00026491,0.063291,1
21224,54.219,20.101,3.1389e-05,0.012986,2.0277e-08,21251,55.935,0.016276,-3.0305,0,0,0.063301,1
21224,54.219,20.101,3.1389e-05,0.012986,2.0277e-08,21251,55.874,0.016276,-3.0305,0,0,0.063309,1
21224,54.219,20.101,3.1389e-05,0.012986,2.0277e-08,21251,55.874,0.016276,-3.0305,0,0,0.063309,1
21224,54.219,20.101,3.1389e-05,0.012986,2.0277e-08,21251,55.874,0.016276,-3.0305,0,0,0.063309,1
21224,54.219,20.101,3.1389e-05,0.012986,2.0277e-08,21251,55.874,0.016276,-3.0305,0,0,0.063309,1
21224,54.219,20.101,3.1389e-05,0.012986,2.0277e-08,21251,55.874,0.016276,-3.0305,0,0,0.063309,1
21224,54.219,20.101,3.1389e-05,0.012986,2.0277e-08,21251,55.874,0.016276,-3.0305,0,0,0.063309,1
21224,54.219,20.101,3.1389e-05,0.012986,2.0277e-08,21251,55.874,0.016276,-3.0305,0,0,0.063309,1
21224,54.219,20.101,3.1389e-05,0.012986,2.0277e-08,21251,55.874,0.016276,-3.0305,0,0,0.063309,1
21224,54.219,20.101,3.1389e-05,0.012986,2.0277e-08,21251,55.874,0.016276,-3.0305,0,0,0.063309,1
21225,54.219,20.103,3.139e-05,0.012674,1.9791e-08,21251,55.874,0.016276,-3.0305,0,0,0.067318,1
21226,54.219,20.103,3.1391e-05,0.012597,1.967e-08,21251,55.874,0.016276,-3.0305,0,0,0.0684,1
21226,54.219,20.103,3.1391e-05,0.012597,1.967e-08,21251,55.874,0.016276,-3.0305,0,0,0.0684,1
21226,54.219,20.103,3.1391e-05,0.012597,1.967e-08,21251,55.874,0.016276,-3.0305,0,0,0.0684,1
21226,54.219,20.103,3.1391e-05,0.012597,1.967e-08,21251,55.874,0.016276,-3.0305,0,0,0.0684,1
21226,54.219,20.103,3.1391e-05,0.012597,1.967e-08,21251,55.874,0.016276,-3.0305,0,0,0.0684,1
21226,54.219,20.103,3.1391e-05,0.012597,1.967e-08,21251,55.874,0.016276,-3.0305,0,0,0.0684,1
21226,54.219,20.103,3.1391e-05,0.012597,1.967e-08,21251,55.874,0.016276,-3.0305,0,0,0.0684,1
21226,54.219,20.103,3.1391e-05,0.012597,1.967e-08,21251,55.874,0.016276,-3.0305,0,0,0.0684,1
21227,54.219,20.104,3.1392e-05,0.012285,1.9184e-08,21251,55.692,0.016276,-3.0305,0,0,0.073134,1
21227,54.219,20.104,3.1392e-05,0.012285,1.9184e-08,21251,55.45,0.016276,-3.0305,0,0,0.073178,1
21227,54.219,20.104,3.1392e-05,0.012285,1.9184e-08,21251,55.45,0.016276,-3.0305,0,0,0.073178,1
21227,54.219,20.104,3.1392e-05,0.012285,1.9184e-08,21251,55.389,0.016276,-3.0305,0,0,0.073188,1
21227,54.219,20.104,3.1392e-05,0.012285,1.9184e-08,21251,55.207,0.016276,-3.0305,0,0,0.073208,1
21227,54.219,20.104,3.1392e-05,0.012285,1.9184e-08,21251,55.207,0.016276,-3.0305,0,0,0.073208,1
21227,54.219,20.104,3.1392e-05,0.012285,1.9184e-08,21251,55.207,0.016276,-3.0305,0,0,0.073208,1
21227,54.219,20.104,3.1392e-05,0.012285,1.9184e-08,21251,55.207,0.016276,-3.0305,0,0,0.073208,1
21227,54.219,20.104,3.1392e-05,0.012285,1.9184e-08,21251,55.207,0.016276,-3.0305,0,0,0.073208,1
21227,54.219,20.104,3.1392e-05,0.012285,1.9184e-08,21251,55.147,0.016276,-3.0305,0,0,0.073216,1
21227,54.219,20.104,3.1392e-05,0.012285,1.9184e-08,21251,55.147,0.016276,-3.0305,0,0,0.073216,1
21227,54.219,20.104,3.1392e-05,0.012285,1.9184e-08,21251,55.086,0.016276,-3.0305,0,0,0.073223,1
21227,54.219,20.104,3.1392e-05,0.012285,1.9184e-08,21251,55.086,0.016276,-3.0305,0,0,0.073223,1
21227,54.219,20.104,3.1392e-05,0.012285,1.9184e-08,21251,55.086,0.016276,-3.0305,0,0,0.073223,1
21227,54.219,20.104,3.1392e-05,0.012285,1.9184e-08,21251,55.086,0.016276,-3.0305,0,0,0.073223,1
21227,54.219,20.104,3.1392e-05,0.012285,1.9184e-08,21251,55.086,0.016276,-3.0305,0,0,0.073223,1
21227,54.219,20.104,3.1392e-05,0.012285,1.9184e-08,21251,55.086,0.016276,-3.0305,0,0,0.073223,1
21227,54.219,20.104,3.1392e-05,0.012285,1.9184e-08,21251,55.086,0.016276,-3.0305,0,0,0.073223,1
21227,54.219,20.104,3.1392e-05,0.012285,1.9184e-08,21251,55.086,0.016276,-3.0305,0,0,0.073223,1
21227,54.219,20.104,3.1392e-05,0.012285,1.9184e-08,21251,55.086,0.016276,-3.0305,0,0,0.073223,1
21230,54.219,18.804,2.9363e-05,-10,-1.5615e-05,21251,55.086,0.016276,-3.0305,0,0,0.084582,1
21230,54.219,18.804,2.9363e-05,-10,-1.5615e-05,21251,54.904,0.016276,-3.0305,0,0,0.084611,1
21230,54.219,18.804,2.9363e-05,-10,-1.5615e-05,21251,54.904,0.016276,-3.0305,0,0,0.084611,1
21230,54.219,18.804,2.9363e-05,-10,-1.5615e-05,21251,54.904,0.016276,-3.0305,0,0,0.084611,1
21230,54.219,18.804,2.9363e-05,-10,-1.5615e-05,21251,54.904,0.016276,-3.0305,0,0,0.084611,1
21230,54.219,18.804,2.9363e-05,-10,-1.5615e-05,21251,54.844,0,-3.0305,-0.13563,0,0.084551,1
21233,54.219,17.404,2.7177e-05,-10,-1.5615e-05,21251,54.783,0,-3.0305,-0.13563,0,0.096699,1
21233,54.219,17.404,2.7177e-05,-10,-1.5615e-05,21251,54.541,0,-3.0305,-0.13563,0,0.096732,1
21234,54.219,16.804,2.624e-05,-10,-1.5615e-05,21251,54.48,0.016276,-3.0305,0.13563,0,0.1028,1
21234,54.219,16.804,2.624e-05,-10,-1.5615e-05,21251,54.48,0.016276,-3.0305,0.13563,0,0.1028,1
21234,54.219,16.804,2.624e-05,-10,-1.5615e-05,21251,54.48,0.016276,-3.0305,0.13563,0,0.1028,1
21234,54.219,16.804,2.624e-05,-10,-1.5615e-05,21251,54.48,0.016276,-3.0305,0.13563,0,0.1028,1
21234,54.219,16.804,2.624e-05,-10,-1.5615e-05,21251,54.48,0.016276,-3.0305,0.13563,0,0.1028,1
21234,54.219,16.804,2.624e-05,-10,-1.5615e-05,21251,54.48,0.016276,-3.0305,0.13563,0,0.1028,1
21234,54.219,16.804,2.624e-05,-10,-1.5615e-05,21251,54.48,0.016276,-3.0305,0.13563,0,0.1028,1
21234,54.219,16.804,2.624e-05,-10,-1.5615e-05,21251,54.48,0.016276,-3.0305,0.13563,0,0.1028,1
21234,54.219,16.804,2.624e-05,-10,-1.5615e-05,21251,54.48,0.016276,-3.0305,0.13563,0,0.1028,1
21234,54.219,16.804,2.624e-05,-10,-1.5615e-05,21251,54.48,0.016276,-3.0305,0.13563,0,0.1028,1
21234,54.219,16.804,2.624e-05,-10,-1.5615e-05,21251,54.359,0.016276,-3.0305,0.13563,0,0.1028,1
21234,54.219,16.804,2.624e-05,-10,-1.5615e-05,21251,54.359,0.016276,-3.0305,0.13563,0,0.1028,1
21234,54.219,16.804,2.624e-05,-10,-1.5615e-05,21251,54.359,0.016276,-3.0305,0.13563,0,0.1028,1
21234,54.219,16.804,2.624e-05,-10,-1.5615e-05,21251,54.359,0.016276,-3.0305,0.13563,0,0.1028,1
21234,54.219,16.804,2.624e-05,-10,-1.5615e-05,21251,54.359,0.016276,-3.0305,0.13563,0,0.1028,1
21234,54.219,16.804,2.624e-05,-10,-1.5615e-05,21251,54.359,0.016276,-3.0305,0.13563,0,0.1028,1
21234,54.219,16.804,2.624e-05,-10,-1.5615e-05,21251,54.359,0.016276,-3.0305,0.13563,0,0.1028,1
21234,54.219,16.804,2.624e-05,-10,-1.5615e-05,21251,54.359,0.016276,-3.0305,0.13563,0,0.1028,1
21234,54.219,16.804,2.624e-05,-10,-1.5615e-05,21251,54.359,0.016276,-3.0305,0.13563,0,0.1028,1
21235,54.219,16.404,2.5615e-05,-10,-1.5615e-05,21251,54.359,0.016276,-3.0305,0.13563,0,0.10708,1
21235,54.219,16.404,2.5615e-05,-10,-1.5615e-05,21251,54.359,0.016276,-3.0305,0.13563,0,0.10708,1
21235,54.219,16.204,2.5303e-05,-10,-1.5615e-05,21251,54.359,0.016276,-3.0305,0.13563,0,0.10932,1
21235,54.219,16.204,2.5303e-05,-10,-1.5615e-05,21251,54.056,0.016276,-3.0306,0,-0.00026491,0.10932,1
21237,54.219,14.804,2.3117e-05,-10,-1.5615e-05,21251,53.995,0.016276,-3.0306,0,-0.00026491,0.12696,1
21238,54.219,14.404,2.2492e-05,-10,-1.5615e-05,21251,53.753,0.016276,-3.0305,0,0.00026491,0.13265,1
21238,54.219,14.404,2.2492e-05,-10,-1.5615e-05,21251,53.753,0.016276,-3.0305,0,0.00026491,0.13265,1
21238,54.219,14.404,2.2492e-05,-10,-1.5615e-05,21251,53.753,0.016276,-3.0305,0,0.00026491,0.13265,1
21238,54.219,14.404,2.2492e-05,-10,-1.5615e-05,21251,53.753,0.016276,-3.0305,0,0.00026491,0.13265,1
21238,54.219,14.404,2.2492e-05,-10,-1.5615e-05,21251,53.753,0.016276,-3.0305,0,0.00026491,0.13265,1
21238,54.219,14.404,2.2492e-05,-10,-1.5615e-05,21251,53.753,0.016276,-3.0305,0,0.00026491,0.13265,1
21238,54.219,14.404,2.2492e-05,-10,-1.5615e-05,21251,53.753,0.016276,-3.0305,0,0.00026491,0.13265,1
21238,54.219,14.404,2.2492e-05,-10,-1.5615e-05,21251,53.753,0.016276,-3.0305,0,0.00026491,0.13265,1
21238,54.219,14.404,2.2492e-05,-10,-1.5615e-05,21251,53.631,0.016276,-3.0305,0,0.00026491,0.13259,1
21238,54.219,14.404,2.2492e-05,-10,-1.5615e-05,21251,53.631,0.016276,-3.0305,0,0.00026491,0.13259,1
21238,54.219,14.404,2.2492e-05,-10,-1.5615e-05,21251,53.631,0.016276,-3.0305,0,0.00026491,0.13259,1
21238,54.219,14.404,2.2492e-05,-10,-1.5615e-05,21251,53.631,0.016276,-3.0305,0,0.00026491,0.13259,1
21238,54.219,14.404,2.2492e-05,-10,-1.5615e-05,21251,53.631,0.016276,-3.0305,0,0.00026491,0.13259,1
21238,54.219,14.404,2.2492e-05,-10,-1.5615e-05,21251,53.631,0.016276,-3.0305,0,0.00026491,0.13259,1
21238,54.219,14.404,2.2492e-05,-10,-1.5615e-05,21251,53.631,0.016276,-3.0305,0,0.00026491,0.13259,1
21238,54.219,14.404,2.2492e-05,-10,-1.5615e-05,21251,53.631,0.016276,-3.0305,0,0.00026491,0.13259,1
21238,54.219,14.404,2.2492e-05,-10,-1.5615e-05,21251,53.631,0.016276,-3.0305,0,0.00026491,0.13259,1
21238,54.219,14.004,2.1868e-05,-10,-1.5615e-05,21251,53.631,0.016276,-3.0305,0,0.00026491,0.13871,1
21238,54.219,14.004,2.1868e-05,-10,-1.5615e-05,21251,53.631,0.016276,-3.0305,0,0.00026491,0.13871,1
21238,54.219,14.004,2.1868e-05,-10,-1.5615e-05,21251,53.631,0.016276,-3.0305,0,0.00026491,0.13871,1
21238,54.219,14.004,2.1868e-05,-10,-1.5615e-05,21251,53.51,0.016276,-3.0305,0,0.00026491,0.13864,1
21239,54.219,13.404,2.0931e-05,-10,-1.5615e-05,21251,53.51,0.016276,-3.0305,0,0.00026491,0.14855,1
21240,54.219,13.004,2.0306e-05,-10,-1.5615e-05,21251,53.51,0.016276,-3.0305,0,0.00026491,0.15569,1
21240,54.219,13.004,2.0306e-05,-10,-1.5615e-05,21251,53.086,0.016276,-3.0305,0,0,0.15516,1
21240,54.219,13.004,2.0306e-05,-10,-1.5615e-05,21251,53.025,0,-3.0305,-0.13563,0,0.15494,1
21240,54.219,13.004,2.0306e-05,-10,-1.5615e-05,21251,52.965,0,-3.0305,-0.13563,0,0.15482,1
21240,54.219,13.004,2.0306e-05,-10,-1.5615e-05,21251,52.965,0,-3.0305,-0.13563,0,0.15482,1
21240,54.219,13.004,2.0306e-05,-10,-1.5615e-05,21251,52.965,0,-3.0305,-0.13563,0,0.15482,1
21240,54.219,13.004,2.0306e-05,-10,-1.5615e-05,21251,52.965,0,-3.0305,-0.13563,0,0.15482,1
21240,54.219,13.004,2.0306e-05,-10,-1.5615e-05,21251,52.965,0,-3.0305,-0.13563,0,0.15482,1
21240,54.219,13.004,2.0306e-05,-10,-1.5615e-05,21251,52.965,0,-3.0305,-0.13563,0,0.15482,1
21240,54.219,13.004,2.0306e-05,-10,-1.5615e-05,21251,52.965,0,-3.0305,-0.13563,0,0.15482,1
21240,54.219,13.004,2.0306e-05,-10,-1.5615e-05,21251,52.904,0,-3.0305,-0.13563,0,0.15472,1
21240,54.219,13.004,2.0306e-05,-10,-1.5615e-05,21251,52.904,0,-3.0305,-0.13563,0,0.15472,1
21240,54.219,13.004,2.0306e-05,-10,-1.5615e-05,21251,52.904,0,-3.0305,-0.13563,0,0.15472,1
21240,54.219,13.004,2.0306e-05,-10,-1.5615e-05,21251,52.904,0,-3.0305,-0.13563,0,0.15472,1
21240,54.219,13.004,2.0306e-05,-10,-1.5615e-05,21251,52.904,0,-3.0305,-0.13563,0,0.15472,1
21240,54.219,13.004,2.0306e-05,-10,-1.5615e-05,21251,52.904,0,-3.0305,-0.13563,0,0.15472,1
21240,54.219,13.004,2.0306e-05,-10,-1.5615e-05,21251,52.904,0,-3.0305,-0.13563,0,0.15472,1
21240,54.219,13.004,2.0306e-05,-10,-1.5615e-05,21251,52.904,0,-3.0305,-0.13563,0,0.15472,1
21240,54.219,13.004,2.0306e-05,-10,-1.5615e-05,21251,52.904,0,-3.0305,-0.13563,0,0.15472,1
21241,54.219,11.604,1.812e-05,-10,-1.5615e-05,21251,52.904,0,-3.0305,-0.13563,0,0.1831,1
21241,54.219,11.604,1.812e-05,-10,-1.5615e-05,21251,52.904,0,-3.0305,-0.13563,0,0.1831,1
21241,54.219,11.604,1.812e-05,-10,-1.5615e-05,21251,52.904,0,-3.0305,-0.13563,0,0.1831,1
21242,54.219,11.658,1.8204e-05,3.1017,4.8434e-06,21251,52.783,0,-3.0305,-0.13563,0,0.19725,1
21243,54.219,11.843,1.8494e-05,3.0731,4.7987e-06,21251,52.601,0.016276,-3.0305,0.13563,0,0.21371,1
21243,54.219,11.843,1.8494e-05,3.0731,4.7987e-06,21251,52.359,0.016276,-3.0305,0.13563,0,0.21226,1
21243,54.219,11.843,1.8494e-05,3.0731,4.7987e-06,21251,52.359,0.016276,-3.0305,0.13563,0,0.21226,1
21243,54.219,11.843,1.8494e-05,3.0731,4.7987e-06,21251,52.298,0.016276,-3.0305,0,0,0.21189,1
21243,54.219,11.843,1.8494e-05,3.0731,4.7987e-06,21251,52.298,0.016276,-3.0305,0,0,0.21189,1
21243,54.219,11.843,1.8494e-05,3.0731,4.7987e-06,21251,52.298,0.016276,-3.0305,0,0,0.21189,1
21243,54.219,11.843,1.8494e-05,3.0731,4.7987e-06,21251,52.298,0.016276,-3.0305,0,0,0.21189,1
21243,54.219,11.843,1.8494e-05,3.0731,4.7987e-06,21251,52.298,0.016276,-3.0305,0,0,0.21189,1
21243,54.219,11.843,1.8494e-05,3.0731,4.7987e-06,21251,52.298,0.016276,-3.0305,0,0,0.21189,1
21244,54.219,12.088,1.8875e-05,3.033,4.7361e-06,21251,52.298,0.016276,-3.0305,0,0,0.23941,1
21244,54.219,12.088,1.8875e-05,3.033,4.7361e-06,21251,52.298,0.016276,-3.0305,0,0,0.23941,1
21244,54.219,12.088,1.8875e-05,3.033,4.7361e-06,21251,52.298,0.016276,-3.0305,0,0,0.23941,1
21244,54.219,12.088,1.8875e-05,3.033,4.7361e-06,21251,52.298,0.016276,-3.0305,0,0,0.23941,1
21244,54.219,12.088,1.8875e-05,3.033,4.7361e-06,21251,52.298,0.016276,-3.0305,0,0,0.23941,1
21244,54.219,12.088,1.8875e-05,3.033,4.7361e-06,21251,52.298,0.016276,-3.0305,0,0,0.23941,1
21244,54.219,12.088,1.8875e-05,3.033,4.7361e-06,21251,52.298,0.016276,-3.0305,0,0,0.23941,1
21244,54.219,12.088,1.8875e-05,3.033,4.7361e-06,21251,52.298,0.016276,-3.0305,0,0,0.23941,1
21244,54.219,12.148,1.897e-05,3.0227,4.72e-06,21251,52.298,0.016276,-3.0305,0,0,0.24751,1
21244,54.219,12.209,1.9064e-05,3.0123,4.7037e-06,21251,52.298,0.016276,-3.0305,0,0,0.25618,1
21244,54.219,12.209,1.9064e-05,3.0123,4.7037e-06,21251,51.995,0.016276,-3.0305,0,0,0.25256,1
21245,54.219,12.388,1.9345e-05,2.9803,4.6537e-06,21251,51.995,0.016276,-3.0305,0,0,0.28137,1
21246,54.219,12.566,1.9622e-05,2.9472,4.6021e-06,21251,51.874,0.016276,-3.0305,0,0,0.31446,1
21246,54.219,12.566,1.9622e-05,2.9472,4.6021e-06,21251,51.692,0.016276,-3.0305,0,0,0.30983,1
21246,54.219,12.566,1.9622e-05,2.9472,4.6021e-06,21251,51.692,0.016276,-3.0305,0,0,0.30983,1
21246,54.219,12.566,1.9622e-05,2.9472,4.6021e-06,21251,51.692,0.016276,-3.0305,0,0,0.30983,1
21246,54.219,12.566,1.9622e-05,2.9472,4.6021e-06,21251,51.692,0.016276,-3.0305,0,0,0.30983,1
21246,54.219,12.566,1.9622e-05,2.9472,4.6021e-06,21251,51.692,0.016276,-3.0305,0,0,0.30983,1
21246,54.219,12.566,1.9622e-05,2.9472,4.6021e-06,21251,51.692,0.016276,-3.0305,0,0,0.30983,1
21246,54.219,12.566,1.9622e-05,2.9472,4.6021e-06,21251,51.692,0.016276,-3.0305,0,0,0.30983,1
21246,54.219,12.566,1.9622e-05,2.9472,4.6021e-06,21251,51.631,0.016276,-3.0305,0,0,0.30816,1
21246,54.219,12.566,1.9622e-05,2.9472,4.6021e-06,21251,51.631,0.016276,-3.0305,0,0,0.30816,1
21246,54.219,12.566,1.9622e-05,2.9472,4.6021e-06,21251,51.631,0.016276,-3.0305,0,0,0.30816,1
21246,54.219,12.566,1.9622e-05,2.9472,4.6021e-06,21251,51.631,0.016276,-3.0305,0,0,0.30816,1
21246,54.219,12.566,1.9622e-05,2.9472,4.6021e-06,21251,51.631,0.016276,-3.0305,0,0,0.30816,1
21246,54.219,12.566,1.9622e-05,2.9472,4.6021e-06,21251,51.631,0.016276,-3.0305,0,0,0.30816,1
21246,54.219,12.566,1.9622e-05,2.9472,4.6021e-06,21251,51.631,0.016276,-3.0305,0,0,0.30816,1
21246,54.219,12.566,1.9622e-05,2.9472,4.6021e-06,21251,51.631,0.016276,-3.0305,0,0,0.30816,1
21246,54.219,12.566,1.9622e-05,2.9472,4.6021e-06,21251,51.631,0.016276,-3.0305,0,0,0.30816,1
21246,54.219,12.742,1.9897e-05,2.9131,4.5488e-06,21251,51.631,0.016276,-3.0305,0,0,0.34973,1
21246,54.219,12.742,1.9897e-05,2.9131,4.5488e-06,21251,51.631,0.016276,-3.0305,0,0,0.34973,1
21246,54.219,12.742,1.9897e-05,2.9131,4.5488e-06,21251,51.631,0.016276,-3.0305,0,0,0.34973,1
21246,54.219,12.742,1.9897e-05,2.9131,4.5488e-06,21251,51.51,0.016276,-3.0305,0,0,0.3451,1
21247,54.219,12.916,2.0168e-05,2.878,4.494e-06,21251,51.51,0.016276,-3.0305,0,0,0.39486,1
21248,54.219,13.087,2.0436e-05,2.8419,4.4376e-06,21251,51.328,0.016276,-3.0305,0,0,0.43982,1
21248,54.219,13.087,2.0436e-05,2.8419,4.4376e-06,21251,51.086,0.016276,-3.0306,0,-0.00026491,0.41977,1
21249,54.219,13.313,2.0788e-05,2.7922,4.3602e-06,21251,51.025,0.016276,-3.0306,0,-0.00026491,0.48149,1
21249,54.219,13.313,2.0788e-05,2.7922,4.3602e-06,21251,51.025,0.016276,-3.0306,0,-0.00026491,0.48149,1
21249,54.219,13.313,2.0788e-05,2.7922,4.3602e-06,21251,51.025,0.016276,-3.0306,0,-0.00026491,0.48149,1
21249,54.219,13.313,2.0788e-05,2.7922,4.3602e-06,21251,51.025,0.016276,-3.0306,0,-0.00026491,0.48149,1
21249,54.219,13.313,2.0788e-05,2.7922,4.3602e-06,21251,51.025,0.016276,-3.0306,0,-0.00026491,0.48149,1
21249,54.219,13.313,2.0788e-05,2.7922,4.3602e-06,21251,51.025,0.016276,-3.0306,0,-0.00026491,0.48149,1
21249,54.219,13.313,2.0788e-05,2.7922,4.3602e-06,21251,51.025,0.016276,-3.0306,0,-0.00026491,0.48149,1
21249,54.219,13.313,2.0788e-05,2.7922,4.3602e-06,21251,51.025,0.016276,-3.0306,0,-0.00026491,0.48149,1
21249,54.219,13.313,2.0788e-05,2.7922,4.3602e-06,21251,51.025,0.016276,-3.0306,0,-0.00026491,0.48149,1
21249,54.219,13.313,2.0788e-05,2.7922,4.3602e-06,21251,51.025,0.016276,-3.0306,0,-0.00026491,0.48149,1
21249,54.219,13.313,2.0788e-05,2.7922,4.3602e-06,21251,50.904,0.016276,-3.0306,0,-0.00026491,0.46702,1
21249,54.219,13.313,2.0788e-05,2.7922,4.3602e-06,21251,50.904,0.016276,-3.0306,0,-0.00026491,0.46702,1
21249,54.219,13.313,2.0788e-05,2.7922,4.3602e-06,21251,50.904,0.016276,-3.0306,0,-0.00026491,0.46702,1
21249,54.219,13.313,2.0788e-05,2.7922,4.3602e-06,21251,50.904,0.016276,-3.0306,0,-0.00026491,0.46702,1
21249,54.219,13.313,2.0788e-05,2.7922,4.3602e-06,21251,50.904,0.016276,-3.0306,0,-0.00026491,0.46702,1
21249,54.219,13.313,2.0788e-05,2.7922,4.3602e-06,21251,50.904,0.016276,-3.0306,0,-0.00026491,0.46702,1
21249,54.219,13.313,2.0788e-05,2.7922,4.3602e-06,21251,50.904,0.016276,-3.0306,0,-0.00026491,0.46702,1
21249,54.219,13.313,2.0788e-05,2.7922,4.3602e-06,21251,50.904,0.016276,-3.0306,0,-0.00026491,0.46702,1
21249,54.219,13.313,2.0788e-05,2.7922,4.3602e-06,21251,50.904,0.016276,-3.0306,0,-0.00026491,0.46702,1
21250,54.219,13.424,2.0962e-05,2.7668,4.3204e-06,21251,50.904,0.016276,-3.0306,0,-0.00026491,0.49261,1
21250,54.219,13.424,2.0962e-05,2.7668,4.3204e-06,21251,50.904,0.016276,-3.0306,0,-0.00026491,0.49261,1
21250,54.219,13.479,2.1048e-05,2.754,4.3004e-06,21251,50.904,0.016276,-3.0306,0,-0.00026491,0.5024,1
21250,54.219,13.479,2.1048e-05,2.754,4.3004e-06,21251,50.601,0,-3.0305,-0.13563,0.00026491,0.4619,1
21252,54.219,13.858,2.164e-05,2.6612,4.1556e-06,21251,50.54,0,-3.0305,-0.13563,0.00026491,0.44116,1
21252,54.219,13.964,2.1805e-05,2.6339,4.1129e-06,21251,50.304,0.016276,-3.0305,0.13563,0,0.39815,1
21252,54.219,13.964,2.1805e-05,2.6339,4.1129e-06,21251,50.304,0.016276,-3.0305,0.13563,0,0.39815,1
21252,54.219,13.964,2.1805e-05,2.6339,4.1129e-06,21251,50.304,0.016276,-3.0305,0.13563,0,0.39815,1
21252,54.219,13.964,2.1805e-05,2.6339,4.1129e-06,21251,50.304,0.016276,-3.0305,0.13563,0,0.39815,1
21252,54.219,13.964,2.1805e-05,2.6339,4.1129e-06,21251,50.304,0.016276,-3.0305,0.13563,0,0.39815,1
21252,54.219,13.964,2.1805e-05,2.6339,4.1129e-06,21251,50.304,0.016276,-3.0305,0.13563,0,0.39815,1
21252,54.219,13.964,2.1805e-05,2.6339,4.1129e-06,21251,50.304,0.016276,-3.0305,0.13563,0,0.39815,1
21252,54.219,13.964,2.1805e-05,2.6339,4.1129e-06,21251,50.304,0.016276,-3.0305,0.13563,0,0.39815,1
21252,54.219,13.964,2.1805e-05,2.6339,4.1129e-06,21251,50.193,0.016276,-3.0305,0.13563,0,0.38892,1
21252,54.219,13.964,2.1805e-05,2.6339,4.1129e-06,21251,50.193,0.016276,-3.0305,0.13563,0,0.38892,1
21252,54.219,13.964,2.1805e-05,2.6339,4.1129e-06,21251,50.193,0.016276,-3.0305,0.13563,0,0.38892,1
21252,54.219,13.964,2.1805e-05,2.6339,4.1129e-06,21251,50.193,0.016276,-3.0305,0.13563,0,0.38892,1
21252,54.219,13.964,2.1805e-05,2.6339,4.1129e-06,21251,50.193,0.016276,-3.0305,0.13563,0,0.38892,1
21252,54.219,13.964,2.1805e-05,2.6339,4.1129e-06,21251,50.193,0.016276,-3.0305,0.13563,0,0.38892,1
21252,54.219,13.964,2.1805e-05,2.6339,4.1129e-06,21251,50.193,0.016276,-3.0305,0.13563,0,0.38892,1
21252,54.219,13.964,2.1805e-05,2.6339,4.1129e-06,21251,50.193,0.016276,-3.0305,0.13563,0,0.38892,1
21252,54.219,13.964,2.1805e-05,2.6339,4.1129e-06,21251,50.193,0.016276,-3.0305,0.13563,0,0.38892,1
21253,54.219,14.069,2.1969e-05,2.6063,4.0698e-06,21251,50.193,0.016276,-3.0305,0.13563,0,0.3679,1
21253,54.219,14.069,2.1969e-05,2.6063,4.0698e-06,21251,50.193,0.016276,-3.0305,0.13563,0,0.3679,1
21253,54.219,14.069,2.1969e-05,2.6063,4.0698e-06,21251,50.193,0.016276,-3.0305,0.13563,0,0.3679,1
21253,54.219,14.069,2.1969e-05,2.6063,4.0698e-06,21251,50.193,0.016276,-3.0305,0.13563,0,0.3679,1
21253,54.219,14.173,2.2131e-05,2.5783,4.0261e-06,21251,50.193,0.016276,-3.0305,0.13563,0,0.34525,1
21253,54.219,14.173,2.2131e-05,2.5783,4.0261e-06,21251,50.193,0.016276,-3.0305,0.13563,0,0.34525,1
21254,54.219,14.275,2.2291e-05,2.55,3.982e-06,21251,49.986,0.016276,-2.8335,0,1.6416,0.31299,1
21255,54.219,14.477,2.2606e-05,2.4926,3.8923e-06,21251,49.843,0.016276,-2.4699,0,3.0303,0.26929,1
21255,54.219,14.477,2.2606e-05,2.4926,3.8923e-06,21251,49.67,0.016276,-2.4699,0,3.0303,0.26424,1
21255,54.219,14.477,2.2606e-05,2.4926,3.8923e-06,21251,49.67,0.016276,-2.4699,0,3.0303,0.26424,1
21255,54.219,14.477,2.2606e-05,2.4926,3.8923e-06,21251,49.63,0.016276,-2.4699,0,3.0303,0.26308,1
21255,54.219,14.477,2.2606e-05,2.4926,3.8923e-06,21251,49.63,0.016276,-2.4699,0,3.0303,0.26308,1
21255,54.219,14.477,2.2606e-05,2.4926,3.8923e-06,21251,49.63,0.016276,-2.4699,0,3.0303,0.26308,1
21255,54.219,14.477,2.2606e-05,2.4926,3.8923e-06,21251,49.63,0.016276,-2.4699,0,3.0303,0.26308,1
21255,54.219,14.477,2.2606e-05,2.4926,3.8923e-06,21251,49.63,0.016276,-2.4699,0,3.0303,0.26308,1
21255,54.219,14.477,2.2606e-05,2.4926,3.8923e-06,21251,49.63,0.016276,-2.4699,0,3.0303,0.26308,1
21255,54.219,14.477,2.2606e-05,2.4926,3.8923e-06,21251,49.63,0.016276,-2.4699,0,3.0303,0.26308,1
21255,54.219,14.477,2.2606e-05,2.4926,3.8923e-06,21251,49.63,0.016276,-2.4699,0,3.0303,0.26308,1
21255,54.219,14.477,2.2606e-05,2.4926,3.8923e-06,21251,49.63,0.016276,-2.4699,0,3.0303,0.26308,1
21256,54.219,14.674,2.2914e-05,2.4341,3.801e-06,21251,49.63,0.016276,-2.4699,0,3.0303,0.23196,1
21256,54.219,14.674,2.2914e-05,2.4341,3.801e-06,21251,49.63,0.016276,-2.4699,0,3.0303,0.23196,1
21256,54.219,14.674,2.2914e-05,2.4341,3.801e-06,21251,49.63,0.016276,-2.4699,0,3.0303,0.23196,1
21256,54.219,14.674,2.2914e-05,2.4341,3.801e-06,21251,49.63,0.016276,-2.4699,0,3.0303,0.23196,1
21256,54.219,14.674,2.2914e-05,2.4341,3.801e-06,21251,49.63,0.016276,-2.4699,0,3.0303,0.23196,1
21256,54.219,14.674,2.2914e-05,2.4341,3.801e-06,21251,49.63,0.016276,-2.4699,0,3.0303,0.23196,1
21256,54.219,14.674,2.2914e-05,2.4341,3.801e-06,21251,49.63,0.016276,-2.4699,0,3.0303,0.23196,1
21256,54.219,14.674,2.2914e-05,2.4341,3.801e-06,21251,49.63,0.016276,-2.4699,0,3.0303,0.23196,1
21256,54.219,14.674,2.2914e-05,2.4341,3.801e-06,21251,49.553,0,-2.1062,-0.13563,3.0306,0.23031,1
21256,54.219,14.674,2.2914e-05,2.4341,3.801e-06,21251,49.553,0,-2.1062,-0.13563,3.0306,0.23031,1
21258,54.219,14.914,2.3288e-05,2.3597,3.6848e-06,21251,49.516,0,-2.1062,-0.13563,3.0306,0.19774,1
21258,54.219,14.914,2.3288e-05,2.3597,3.6848e-06,21251,49.381,0.016276,-1.7426,0.13563,3.0306,0.19623,1
21258,54.219,14.914,2.3288e-05,2.3597,3.6848e-06,21251,49.293,0.016276,-1.7426,0.13563,3.0306,0.19512,1
21258,54.219,14.914,2.3288e-05,2.3597,3.6848e-06,21251,49.293,0.016276,-1.7426,0.13563,3.0306,0.19512,1
21258,54.219,14.914,2.3288e-05,2.3597,3.6848e-06,21251,49.266,0.016276,-1.7426,0.13563,3.0306,0.19478,1
21258,54.219,14.914,2.3288e-05,2.3597,3.6848e-06,21251,49.266,0.016276,-1.7426,0.13563,3.0306,0.19478,1
21258,54.219,14.914,2.3288e-05,2.3597,3.6848e-06,21251,49.266,0.016276,-1.7426,0.13563,3.0306,0.19478,1
21258,54.219,14.914,2.3288e-05,2.3597,3.6848e-06,21251,49.266,0.016276,-1.7426,0.13563,3.0306,0.19478,1
21258,54.219,14.914,2.3288e-05,2.3597,3.6848e-06,21251,49.266,0.016276,-1.7426,0.13563,3.0306,0.19478,1
21258,54.219,14.914,2.3288e-05,2.3597,3.6848e-06,21251,49.241,0.016276,-1.7426,0.13563,3.0306,0.19445,1
21258,54.219,14.914,2.3288e-05,2.3597,3.6848e-06,21251,49.241,0.016276,-1.7426,0.13563,3.0306,0.19445,1
21258,54.219,14.914,2.3288e-05,2.3597,3.6848e-06,21251,49.241,0.016276,-1.7426,0.13563,3.0306,0.19445,1
21258,54.219,14.914,2.3288e-05,2.3597,3.6848e-06,21251,49.241,0.016276,-1.7426,0.13563,3.0306,0.19445,1
21258,54.219,14.914,2.3288e-05,2.3597,3.6848e-06,21251,49.241,0.016276,-1.7426,0.13563,3.0306,0.19445,1
21258,54.219,14.914,2.3288e-05,2.3597,3.6848e-06,21251,49.241,0.016276,-1.7426,0.13563,3.0306,0.19445,1
21258,54.219,14.914,2.3288e-05,2.3597,3.6848e-06,21251,49.241,0.016276,-1.7426,0.13563,3.0306,0.19445,1
21258,54.219,14.914,2.3288e-05,2.3597,3.6848e-06,21251,49.241,0.016276,-1.7426,0.13563,3.0306,0.19445,1
21258,54.219,14.914,2.3288e-05,2.3597,3.6848e-06,21251,49.241,0.016276,-1.7426,0.13563,3.0306,0.19445,1
21260,54.219,15.237,2.3792e-05,2.2536,3.5191e-06,21251,49.241,0.016276,-1.7426,0.13563,3.0306,0.16127,1
21260,54.219,15.237,2.3792e-05,2.2536,3.5191e-06,21251,49.241,0.016276,-1.7426,0.13563,3.0306,0.16127,1
21260,54.219,15.237,2.3792e-05,2.2536,3.5191e-06,21251,49.241,0.016276,-1.7426,0.13563,3.0306,0.16127,1
21260,54.219,15.237,2.3792e-05,2.2536,3.5191e-06,21251,49.241,0.016276,-1.7426,0.13563,3.0306,0.16127,1
21260,54.219,15.237,2.3792e-05,2.2536,3.5191e-06,21251,49.241,0.016276,-1.7426,0.13563,3.0306,0.16127,1
21261,54.219,15.37,2.4001e-05,2.2076,3.4472e-06,21251,49.193,0,-1.3789,-0.13563,3.0306,0.14931,1
21261,54.219,15.414,2.407e-05,2.1922,3.4231e-06,21251,49.193,0,-1.3789,-0.13563,3.0306,0.14577,1
21261,54.219,15.414,2.407e-05,2.1922,3.4231e-06,21251,49.193,0,-1.3789,-0.13563,3.0306,0.14577,1
21262,54.219,15.587,2.434e-05,2.1304,3.3266e-06,21251,49.193,0,-0.19445,0,9.8703,0.13292,1
21262,54.219,15.587,2.434e-05,2.1304,3.3266e-06,21251,49.193,0,-0.19445,0,9.8703,0.13292,1
21262,54.219,15.587,2.434e-05,2.1304,3.3266e-06,21251,49.193,0,-0.19445,0,9.8703,0.13292,1
21262,54.219,15.587,2.434e-05,2.1304,3.3266e-06,21251,49.193,0,-0.19445,0,9.8703,0.13292,1
21262,54.219,15.587,2.434e-05,2.1304,3.3266e-06,21251,49.193,0,-0.19445,0,9.8703,0.13292,1
21262,54.219,15.587,2.434e-05,2.1304,3.3266e-06,21251,49.193,0,-0.19445,0,9.8703,0.13292,1
21262,54.219,15.587,2.434e-05,2.1304,3.3266e-06,21251,49.193,0,-0.19445,0,9.8703,0.13292,1
21262,54.219,15.587,2.434e-05,2.1304,3.3266e-06,21251,49.193,0,-0.19445,0,9.8703,0.13292,1
21262,54.219,15.587,2.434e-05,2.1304,3.3266e-06,21251,49.193,0,-0.19445,0,9.8703,0.13292,1
21262,54.219,15.587,2.434e-05,2.1304,3.3266e-06,21251,49.193,0,-0.19445,0,9.8703,0.13292,1
21263,54.219,15.714,2.4537e-05,2.0838,3.254e-06,21251,49.193,0,-0.19445,0,9.8703,0.12449,1
21263,54.219,15.714,2.4537e-05,2.0838,3.254e-06,21251,49.193,0,-0.19445,0,9.8703,0.12449,1
21263,54.219,15.714,2.4537e-05,2.0838,3.254e-06,21251,49.193,0,-0.19445,0,9.8703,0.12449,1
21263,54.219,15.714,2.4537e-05,2.0838,3.254e-06,21251,49.193,0,-0.19445,0,9.8703,0.12449,1
21263,54.219,15.714,2.4537e-05,2.0838,3.254e-06,21251,49.193,0,-0.19445,0,9.8703,0.12449,1
21263,54.219,15.714,2.4537e-05,2.0838,3.254e-06,21251,49.193,0,-0.19445,0,9.8703,0.12449,1
21263,54.219,15.714,2.4537e-05,2.0838,3.254e-06,21251,49.193,0,-0.19445,0,9.8703,0.12449,1
21263,54.219,15.714,2.4537e-05,2.0838,3.254e-06,21251,49.193,0,-0.19445,0,9.8703,0.12449,1
21263,54.219,15.714,2.4537e-05,2.0838,3.254e-06,21251,49.193,0,0,0,1.6205,0.12449,1
21263,54.219,15.714,2.4537e-05,2.0838,3.254e-06,21251,49.193,0,0,0,1.6205,0.12449,1
21265,54.219,15.918,2.4857e-05,2.0061,3.1326e-06,21251,49.193,0,0,0,1.6205,0.11233,1
21266,54.219,15.998,2.4981e-05,1.975,3.0841e-06,21251,49.193,0,0,0,1.6205,0.10803,1
21266,54.219,15.998,2.4981e-05,1.975,3.0841e-06,21251,49.193,0,0,0,0,0.10803,1
21266,54.219,15.998,2.4981e-05,1.975,3.0841e-06,21251,49.193,0,0,0,0,0.10803,1
21266,54.219,15.998,2.4981e-05,1.975,3.0841e-06,21251,49.193,0,0,0,0,0.10803,1
21266,54.219,15.998,2.4981e-05,1.975,3.0841e-06,21251,49.193,0,0,0,0,0.10803,1
21266,54.219,15.998,2.4981e-05,1.975,3.0841e-06,21251,49.193,0,0,0,0,0.10803,1
21266,54.219,15.998,2.4981e-05,1.975,3.0841e-06,21251,49.193,0,0,0,0,0.10803,1
21266,54.219,15.998,2.4981e-05,1.975,3.0841e-06,21251,49.193,0,0,0,0,0.10803,1
21266,54.219,15.998,2.4981e-05,1.975,3.0841e-06,21251,49.193,0,0,0,0,0.10803,1
21266,54.219,15.998,2.4981e-05,1.975,3.0841e-06,21251,49.193,0,0,0,0,0.10803,1
21266,54.219,15.998,2.4981e-05,1.975,3.0841e-06,21251,49.193,0,0,0,0,0.10803,1
21266,54.219,15.998,2.4981e-05,1.975,3.0841e-06,21251,49.193,0,0,0,0,0.10803,1
21266,54.219,15.998,2.4981e-05,1.975,3.0841e-06,21251,49.193,0,0,0,0,0.10803,1
21266,54.219,15.998,2.4981e-05,1.975,3.0841e-06,21251,49.193,0,0,0,0,0.10803,1
21267,54.219,16.192,2.5283e-05,1.8975,2.9629e-06,21251,49.193,0,0,0,0,0.098465,1
21267,54.219,16.192,2.5283e-05,1.8975,2.9629e-06,21251,49.193,0,0,0,0,0.098465,1
21267,54.219,16.192,2.5283e-05,1.8975,2.9629e-06,21251,49.193,0,0,0,0,0.098465,1
21267,54.219,16.192,2.5283e-05,1.8975,2.9629e-06,21251,49.193,0,0,0,0,0.098465,1
21267,54.219,16.192,2.5283e-05,1.8975,2.9629e-06,21251,49.193,0,0,0,0,0.098465,1
21267,54.219,16.192,2.5283e-05,1.8975,2.9629e-06,21251,49.193,0,0,0,0,0.098465,1
21267,54.219,16.192,2.5283e-05,1.8975,2.9629e-06,21251,49.193,0,0,0,0,0.098465,1
21267,54.219,16.229,2.5342e-05,1.882,2.9388e-06,21251,49.193,0,0,0,0,0.096731,1
21268,54.219,16.267,2.5401e-05,1.8665,2.9146e-06,21251,49.193,0,0,0,0,0.09505,1
21268,54.219,16.267,2.5401e-05,1.8665,2.9146e-06,21251,49.193,0,0,0,0,0.09505,1
21269,54.219,16.414,2.563e-05,1.8049,2.8184e-06,21251,49.193,0,0,0,0,0.088819,1
21269,54.219,16.414,2.563e-05,1.8049,2.8184e-06,21251,49.193,0,0,0,0,0.088819,1
21270,54.219,16.521,2.5797e-05,1.759,2.7467e-06,21251,49.193,0,0,0,0,0.084609,1
21270,54.219,16.521,2.5797e-05,1.759,2.7467e-06,21251,49.193,0,0,0,0,0.084609,1
21270,54.219,16.521,2.5797e-05,1.759,2.7467e-06,21251,49.193,0,0,0,0,0.084609,1
21270,54.219,16.521,2.5797e-05,1.759,2.7467e-06,21251,49.193,0,0,0,0,0.084609,1
21270,54.219,16.521,2.5797e-05,1.759,2.7467e-06,21251,49.193,0,0,0,0,0.084609,1
21270,54.219,16.521,2.5797e-05,1.759,2.7467e-06,21251,49.193,0,0,0,0,0.084609,1
21270,54.219,16.521,2.5797e-05,1.759,2.7467e-06,21251,49.193,0,0,0,0,0.084609,1
21271,54.219,16.59,2.5906e-05,1.7285,2.6992e-06,21251,49.193,0,0,0,0,0.081997,1
21271,54.219,16.59,2.5906e-05,1.7285,2.6992e-06,21251,49.193,0,0,0,0,0.081997,1
21271,54.219,16.59,2.5906e-05,1.7285,2.6992e-06,21251,49.193,0,0,0,0,0.081997,1
21271,54.219,16.59,2.5906e-05,1.7285,2.6992e-06,21251,49.193,0,0,0,0,0.081997,1
21271,54.219,16.625,2.596e-05,1.7134,2.6755e-06,21251,49.193,0,0,0,0,0.080745,1
21271,54.219,16.625,2.596e-05,1.7134,2.6755e-06,21251,49.193,0,0,0,0,0.080745,1
21271,54.219,16.625,2.596e-05,1.7134,2.6755e-06,21251,49.193,0,0,0,0,0.080745,1
21271,54.219,16.625,2.596e-05,1.7134,2.6755e-06,21251,49.193,0,0,0,0,0.080745,1
21271,54.219,16.625,2.596e-05,1.7134,2.6755e-06,21251,49.193,0,0,0,0,0.080745,1
21271,54.219,16.625,2.596e-05,1.7134,2.6755e-06,21251,49.193,0,0,0,0,0.080745,1
21271,54.219,16.625,2.596e-05,1.7134,2.6755e-06,21251,49.193,0,0,0,0,0.080745,1
21271,54.219,16.625,2.596e-05,1.7134,2.6755e-06,21251,49.193,0,0,0,0,0.080745,1
21272,54.219,16.726,2.6118e-05,1.6681,2.6048e-06,21251,49.193,0,0,0,0,0.077188,1
21273,54.219,16.792,2.6222e-05,1.6381,2.558e-06,21251,49.193,0,0,0,0,0.07497,1
21273,54.219,16.857,2.6323e-05,1.6084,2.5115e-06,21251,49.193,0,0,0,0,0.072866,1
21273,54.219,16.857,2.6323e-05,1.6084,2.5115e-06,21251,49.193,0,0,0,0,0.072866,1
21273,54.219,16.857,2.6323e-05,1.6084,2.5115e-06,21251,49.193,0,0,0,0,0.072866,1
21273,54.219,16.857,2.6323e-05,1.6084,2.5115e-06,21251,49.193,0,0,0,0,0.072866,1
21273,54.219,16.857,2.6323e-05,1.6084,2.5115e-06,21251,49.193,0,0,0,0,0.072866,1
21273,54.219,16.857,2.6323e-05,1.6084,2.5115e-06,21251,49.193,0,0,0,0,0.072866,1
21273,54.219,16.857,2.6323e-05,1.6084,2.5115e-06,21251,49.193,0,0,0,0,0.072866,1
21273,54.219,16.857,2.6323e-05,1.6084,2.5115e-06,21251,49.193,0,0,0,0,0.072866,1
21273,54.219,16.857,2.6323e-05,1.6084,2.5115e-06,21251,49.193,0,0,0,0,0.072866,1
21273,54.219,16.857,2.6323e-05,1.6084,2.5115e-06,21251,49.193,0,0,0,0,0.072866,1
21273,54.219,16.857,2.6323e-05,1.6084,2.5115e-06,21251,49.193,0,0,0,0,0.072866,1
21273,54.219,16.857,2.6323e-05,1.6084,2.5115e-06,21251,49.193,0,0,0,0,0.072866,1
21275,54.219,16.984,2.652e-05,1.5494,2.4195e-06,21251,49.193,0,0,0,0,0.068964,1
21275,54.219,16.984,2.652e-05,1.5494,2.4195e-06,21251,49.193,0,0,0,0,0.068964,1
21275,54.219,16.984,2.652e-05,1.5494,2.4195e-06,21251,49.193,0,0,0,0,0.068964,1
21275,54.219,16.984,2.652e-05,1.5494,2.4195e-06,21251,49.193,0,0,0,0,0.068964,1
21275,54.219,16.984,2.652e-05,1.5494,2.4195e-06,21251,49.193,0,0,0,0,0.068964,1
21275,54.219,16.984,2.652e-05,1.5494,2.4195e-06,21251,49.193,0,0,0,0,0.068964,1
21275,54.219,16.984,2.652e-05,1.5494,2.4195e-06,21251,49.193,0,0,0,0,0.068964,1
21275,54.219,16.984,2.652e-05,1.5494,2.4195e-06,21251,49.193,0,0,0,0,0.068964,1
21275,54.219,16.984,2.652e-05,1.5494,2.4195e-06,21251,49.193,0,0,0,0,0.068964,1
21275,54.219,16.984,2.652e-05,1.5494,2.4195e-06,21251,49.193,0,0,0,0,0.068964,1
21276,54.219,17.135,2.6756e-05,1.4771,2.3065e-06,21251,49.193,0,0,0,0,0.064594,1
21276,54.219,17.135,2.6756e-05,1.4771,2.3065e-06,21251,49.193,0,0,0,0,0.064594,1
21276,54.219,17.135,2.6756e-05,1.4771,2.3065e-06,21251,49.193,0,0,0,0,0.064594,1
21276,54.219,17.135,2.6756e-05,1.4771,2.3065e-06,21251,49.193,0,0,0,0,0.064594,1
21276,54.219,17.135,2.6756e-05,1.4771,2.3065e-06,21251,49.193,0,0,0,0,0.064594,1
21276,54.219,17.135,2.6756e-05,1.4771,2.3065e-06,21251,49.193,0,0,0,0,0.064594,1
21276,54.219,17.135,2.6756e-05,1.4771,2.3065e-06,21251,49.193,0,0,0,0,0.064594,1
21276,54.219,17.135,2.6756e-05,1.4771,2.3065e-06,21251,49.193,0,0,0,0,0.064594,1
21276,54.219,17.135,2.6756e-05,1.4771,2.3065e-06,21251,49.193,0,0,0,0,0.064594,1
21276,54.219,17.135,2.6756e-05,1.4771,2.3065e-06,21251,49.193,0,0,0,0,0.064594,1
21276,54.219,17.135,2.6756e-05,1.4771,2.3065e-06,21251,49.193,0,0,0,0,0.064594,1
21276,54.219,17.135,2.6756e-05,1.4771,2.3065e-06,21251,49.193,0,0,0,0,0.064594,1
21276,54.219,17.135,2.6756e-05,1.4771,2.3065e-06,21251,49.193,0,0,0,0,0.064594,1
21276,54.219,17.135,2.6756e-05,1.4771,2.3065e-06,21251,49.193,0,0,0,0,0.064594,1
21276,54.219,17.135,2.6756e-05,1.4771,2.3065e-06,21251,49.193,0,0,0,0,0.064594,1
21276,54.219,17.135,2.6756e-05,1.4771,2.3065e-06,21251,49.193,0,0,0,0,0.064594,1
21276,54.219,17.135,2.6756e-05,1.4771,2.3065e-06,21251,49.193,0,0,0,0,0.064594,1
21276,54.219,17.135,2.6756e-05,1.4771,2.3065e-06,21251,49.193,0,0,0,0,0.064594,1
21276,54.219,17.135,2.6756e-05,1.4771,2.3065e-06,21251,49.193,0,0,0,0,0.064594,1
21276,54.219,17.135,2.6756e-05,1.4771,2.3065e-06,21251,49.193,0,0,0,0,0.064594,1
21279,54.219,17.362,2.7111e-05,1.3646,2.1309e-06,21251,49.193,0,0,0,0,0.058571,1
21279,54.219,17.362,2.7111e-05,1.3646,2.1309e-06,21251,49.193,0,0,0,0,0.058571,1
21279,54.219,17.362,2.7111e-05,1.3646,2.1309e-06,21251,49.193,0,0,0,0,0.058571,1
21279,54.219,17.362,2.7111e-05,1.3646,2.1309e-06,21251,49.193,0,0,0,0,0.058571,1
21279,54.219,17.362,2.7111e-05,1.3646,2.1309e-06,21251,49.193,0,0,0,0,0.058571,1
21282,54.219,17.547,2.7399e-05,1.27,1.9832e-06,21251,49.193,0,0,0,0,0.054093,1
21282,54.219,17.547,2.7399e-05,1.27,1.9832e-06,21251,49.193,0,0,0,0,0.054093,1
21282,54.219,17.547,2.7399e-05,1.27,1.9832e-06,21251,49.193,0,0,0,0,0.054093,1
21282,54.219,17.547,2.7399e-05,1.27,1.9832e-06,21251,49.193,0,0,0,0,0.054093,1
21282,54.219,17.547,2.7399e-05,1.27,1.9832e-06,21251,49.193,0,0,0,0,0.054093,1
21282,54.219,17.547,2.7399e-05,1.27,1.9832e-06,21251,49.193,0,0,0,0,0.054093,1
21282,54.219,17.547,2.7399e-05,1.27,1.9832e-06,21251,49.193,0,0,0,0,0.054093,1
21282,54.219,17.547,2.7399e-05,1.27,1.9832e-06,21251,49.193,0,0,0,0,0.054093,1
21282,54.219,17.547,2.7399e-05,1.27,1.9832e-06,21251,49.193,0,0,0,0,0.054093,1
21282,54.219,17.547,2.7399e-05,1.27,1.9832e-06,21251,49.193,0,0,0,0,0.054093,1
21282,54.219,17.547,2.7399e-05,1.27,1.9832e-06,21251,49.193,0,0,0,0,0.054093,1
21282,54.219,17.547,2.7399e-05,1.27,1.9832e-06,21251,49.193,0,0,0,0,0.054093,1
21282,54.219,17.547,2.7399e-05,1.27,1.9832e-06,21251,49.193,0,0,0,0,0.054093,1
21282,54.219,17.547,2.7399e-05,1.27,1.9832e-06,21251,49.193,0,0,0,0,0.054093,1
21283,54.219,17.646,2.7554e-05,1.211,1.891e-06,21251,49.193,0,0,0,0,0.051808,1
21283,54.219,17.646,2.7554e-05,1.211,1.891e-06,21251,49.193,0,0,0,0,0.051808,1
21283,54.219,17.646,2.7554e-05,1.211,1.891e-06,21251,49.193,0,0,0,0,0.051808,1
21283,54.219,17.646,2.7554e-05,1.211,1.891e-06,21251,49.193,0,0,0,0,0.051808,1
21283,54.219,17.646,2.7554e-05,1.211,1.891e-06,21251,49.193,0,0,0,0,0.051808,1
21283,54.219,17.646,2.7554e-05,1.211,1.891e-06,21251,49.193,0,0,0,0,0.051808,1
21283,54.219,17.646,2.7554e-05,1.211,1.891e-06,21251,49.193,0,0,0,0,0.051808,1
21283,54.219,17.646,2.7554e-05,1.211,1.891e-06,21251,49.193,0,0,0,0,0.051808,1
21283,54.219,17.67,2.7592e-05,1.1965,1.8684e-06,21251,49.193,0,0,0,0,0.051264,1
21284,54.219,17.694,2.7629e-05,1.1821,1.846e-06,21251,49.193,0,0,0,0,0.050731,1
21285,54.219,17.786,2.7773e-05,1.1263,1.7588e-06,21251,49.193,0,0,0,0,0.048697,1
21287,54.219,17.874,2.7911e-05,1.073,1.6756e-06,21251,49.193,0,0,0,0,0.046809,1
21287,54.219,17.874,2.7911e-05,1.073,1.6756e-06,21251,49.193,0,0,0,0,0.046809,1
21287,54.219,17.874,2.7911e-05,1.073,1.6756e-06,21251,49.193,0,0,0,0,0.046809,1
21287,54.219,17.874,2.7911e-05,1.073,1.6756e-06,21251,49.193,0,0,0,0,0.046809,1
21287,54.219,17.874,2.7911e-05,1.073,1.6756e-06,21251,49.193,0,0,0,0,0.046809,1
21287,54.219,17.874,2.7911e-05,1.073,1.6756e-06,21251,49.193,0,0,0,0,0.046809,1
21287,54.219,17.874,2.7911e-05,1.073,1.6756e-06,21251,49.193,0,0,0,0,0.046809,1
21287,54.219,17.874,2.7911e-05,1.073,1.6756e-06,21251,49.193,0,0,0,0,0.046809,1
21287,54.219,17.874,2.7911e-05,1.073,1.6756e-06,21251,49.193,0,0,0,0,0.046809,1
21287,54.219,17.874,2.7911e-05,1.073,1.6756e-06,21251,49.193,0,0,0,0,0.046809,1
21287,54.219,17.874,2.7911e-05,1.073,1.6756e-06,21251,49.193,0,0,0,0,0.046809,1
21287,54.219,17.874,2.7911e-05,1.073,1.6756e-06,21251,49.193,0,0,0,0,0.046809,1
21287,54.219,17.874,2.7911e-05,1.073,1.6756e-06,21251,49.193,0,0,0,0,0.046809,1
21287,54.219,17.874,2.7911e-05,1.073,1.6756e-06,21251,49.193,0,0,0,0,0.046809,1
21287,54.219,17.874,2.7911e-05,1.073,1.6756e-06,21251,49.193,0,0,0,0,0.046809,1
21287,54.219,17.874,2.7911e-05,1.073,1.6756e-06,21251,49.193,0,0,0,0,0.046809,1
21287,54.219,17.874,2.7911e-05,1.073,1.6756e-06,21251,49.193,0,0,0,0,0.046809,1
21287,54.219,17.874,2.7911e-05,1.073,1.6756e-06,21251,49.193,0,0,0,0,0.046809,1
21287,54.219,17.916,2.7977e-05,1.0473,1.6354e-06,21251,49.193,0,0,0,0,0.045915,1
21287,54.219,17.916,2.7977e-05,1.0473,1.6354e-06,21251,49.193,0,0,0,0,0.045915,1
21288,54.219,17.978,2.8073e-05,1.0097,1.5767e-06,21251,49.193,0,0,0,0,0.044632,1
21289,54.219,17.998,2.8104e-05,0.99752,1.5577e-06,21251,49.193,0,0,0,0,0.044219,1
21289,54.219,17.998,2.8104e-05,0.99752,1.5577e-06,21251,49.193,0,0,0,0,0.044219,1
21290,54.219,18.076,2.8226e-05,0.95,1.4834e-06,21251,49.193,0,0,0,0,0.042637,1
21290,54.219,18.076,2.8226e-05,0.95,1.4834e-06,21251,49.193,0,0,0,0,0.042637,1
21290,54.219,18.076,2.8226e-05,0.95,1.4834e-06,21251,49.193,0,0,0,0,0.042637,1
21290,54.219,18.076,2.8226e-05,0.95,1.4834e-06,21251,49.193,0,0,0,0,0.042637,1
21290,54.219,18.076,2.8226e-05,0.95,1.4834e-06,21251,49.193,0,0,0,0,0.042637,1
21290,54.219,18.076,2.8226e-05,0.95,1.4834e-06,21251,49.193,0,0,0,0,0.042637,1
21290,54.219,18.076,2.8226e-05,0.95,1.4834e-06,21251,49.193,0,0,0,0,0.042637,1
21290,54.219,18.076,2.8226e-05,0.95,1.4834e-06,21251,49.193,0,0,0,0,0.042637,1
21290,54.219,18.076,2.8226e-05,0.95,1.4834e-06,21251,49.193,0,0,0,0,0.042637,1
21290,54.219,18.076,2.8226e-05,0.95,1.4834e-06,21251,49.193,0,0,0,0,0.042637,1
21290,54.219,18.076,2.8226e-05,0.95,1.4834e-06,21251,49.193,0,0,0,0,0.042637,1
21290,54.219,18.076,2.8226e-05,0.95,1.4834e-06,21251,49.193,0,0,0,0,0.042637,1
21290,54.219,18.076,2.8226e-05,0.95,1.4834e-06,21251,49.193,0,0,0,0,0.042637,1
21290,54.219,18.076,2.8226e-05,0.95,1.4834e-06,21251,49.193,0,0,0,0,0.042637,1
21290,54.219,18.076,2.8226e-05,0.95,1.4834e-06,21251,49.193,0,0,0,0,0.042637,1
21290,54.219,18.076,2.8226e-05,0.95,1.4834e-06,21251,49.193,0,0,0,0,0.042637,1
21290,54.219,18.076,2.8226e-05,0.95,1.4834e-06,21251,49.193,0,0,0,0,0.042637,1
21292,54.219,18.15,2.8342e-05,0.90463,1.4126e-06,21251,49.193,0,0,0,0,0.041157,1
21292,54.219,18.15,2.8342e-05,0.90463,1.4126e-06,21251,49.193,0,0,0,0,0.041157,1
21292,54.219,18.168,2.837e-05,0.89362,1.3954e-06,21251,49.193,0,0,0,0,0.040802,1
21292,54.219,18.168,2.837e-05,0.89362,1.3954e-06,21251,49.193,0,0,0,0,0.040802,1
21292,54.219,18.168,2.837e-05,0.89362,1.3954e-06,21251,49.193,0,0,0,0,0.040802,1
21294,54.219,18.272,2.8531e-05,0.83015,1.2963e-06,21251,49.193,0,0,0,0,0.038786,1
21294,54.219,18.272,2.8531e-05,0.83015,1.2963e-06,21251,49.193,0,0,0,0,0.038786,1
21294,54.219,18.272,2.8531e-05,0.83015,1.2963e-06,21251,49.193,0,0,0,0,0.038786,1
21295,54.219,18.304,2.8583e-05,0.80997,1.2648e-06,21251,49.193,0,0,0,0,0.038155,1
21295,54.219,18.304,2.8583e-05,0.80997,1.2648e-06,21251,49.193,0,0,0,0,0.038155,1
21295,54.219,18.304,2.8583e-05,0.80997,1.2648e-06,21251,49.193,0,0,0,0,0.038155,1
21295,54.219,18.304,2.8583e-05,0.80997,1.2648e-06,21251,49.193,0,0,0,0,0.038155,1
21295,54.219,18.304,2.8583e-05,0.80997,1.2648e-06,21251,49.193,0,0,0,0,0.038155,1
21295,54.219,18.304,2.8583e-05,0.80997,1.2648e-06,21251,49.193,0,0,0,0,0.038155,1
21295,54.219,18.304,2.8583e-05,0.80997,1.2648e-06,21251,49.193,0,0,0,0,0.038155,1
21295,54.219,18.304,2.8583e-05,0.80997,1.2648e-06,21251,49.193,0,0,0,0,0.038155,1
21295,54.219,18.304,2.8583e-05,0.80997,1.2648e-06,21251,49.193,0,0,0,0,0.038155,1
21295,54.219,18.304,2.8583e-05,0.80997,1.2648e-06,21251,49.193,0,0,0,0,0.038155,1
21295,54.219,18.304,2.8583e-05,0.80997,1.2648e-06,21251,49.193,0,0,0,0,0.038155,1
21295,54.219,18.304,2.8583e-05,0.80997,1.2648e-06,21251,49.193,0,0,0,0,0.038155,1
21295,54.219,18.304,2.8583e-05,0.80997,1.2648e-06,21251,49.193,0,0,0,0,0.038155,1
21295,54.219,18.304,2.8583e-05,0.80997,1.2648e-06,21251,49.193,0,0,0,0,0.038155,1
21295,54.219,18.304,2.8583e-05,0.80997,1.2648e-06,21251,49.193,0,0,0,0,0.038155,1
21295,54.219,18.304,2.8583e-05,0.80997,1.2648e-06,21251,49.193,0,0,0,0,0.038155,1
21295,54.219,18.304,2.8583e-05,0.80997,1.2648e-06,21251,49.193,0,0,0,0,0.038155,1
21297,54.219,18.398,2.8729e-05,0.75219,1.1746e-06,21251,49.193,0,0,0,0,0.036374,1
21297,54.219,18.398,2.8729e-05,0.75219,1.1746e-06,21251,49.193,0,0,0,0,0.036374,1
21298,54.219,18.413,2.8752e-05,0.74295,1.1601e-06,21251,49.193,0,0,0,0,0.036092,1
21298,54.219,18.413,2.8752e-05,0.74295,1.1601e-06,21251,49.193,0,0,0,0,0.036092,1
21298,54.219,18.413,2.8752e-05,0.74295,1.1601e-06,21251,49.193,0,0,0,0,0.036092,1
21299,54.219,18.457,2.8821e-05,0.71588,1.1179e-06,21251,49.193,0,0,0,0,0.035271,1
