1.3057,-0.7169,0.204,-0.9356,1.1903,-0.2449,0.9485,-0.4208,1.284,-0.0314,1.306,-0.4338,0.7139,-0.3685,1.3457,-0.2685
1.3361,-0.7353,0.1998,-0.938,1.1656,-0.2423,0.9388,-0.4265,1.2563,-0.1073,1.3116,-0.4634,0.664,-0.3893,1.3135,-0.268
1.3361,-0.7353,0.1998,-0.938,1.1656,-0.2423,0.9388,-0.4265,1.2563,-0.1073,1.3116,-0.4634,0.664,-0.3893,1.3135,-0.268
1.3361,-0.7353,0.1998,-0.938,1.1656,-0.2423,0.9388,-0.4265,1.2563,-0.1073,1.3116,-0.4634,0.664,-0.3893,1.3135,-0.268
1.3266,-0.7089,0.1922,-0.9353,1.1429,-0.2425,0.9476,-0.4327,1.1896,-0.1263,1.307,-0.4784,0.626,-0.427,1.288,-0.2769
1.3103,-0.7109,0.1909,-0.9501,1.1062,-0.246,0.9352,-0.4344,1.1495,-0.1545,1.2872,-0.4714,0.6155,-0.4488,1.2457,-0.2691
1.3103,-0.7109,0.1909,-0.9501,1.1062,-0.246,0.9352,-0.4344,1.1495,-0.1545,1.2872,-0.4714,0.6155,-0.4488,1.2457,-0.2691
1.2895,-0.7188,0.1938,-0.9626,1.0653,-0.248,0.9167,-0.4339,1.1357,-0.192,1.2676,-0.4755,0.6219,-0.4765,1.2031,-0.2684
1.2895,-0.7188,0.1938,-0.9626,1.0653,-0.248,0.9167,-0.4339,1.1357,-0.192,1.2676,-0.4755,0.6219,-0.4765,1.2031,-0.2684
1.2895,-0.7188,0.1938,-0.9626,1.0653,-0.248,0.9167,-0.4339,1.1357,-0.192,1.2676,-0.4755,0.6219,-0.4765,1.2031,-0.2684
1.2662,-0.7106,0.1862,-0.9599,1.0331,-0.253,0.8982,-0.4335,1.2147,-0.2199,1.2431,-0.4723,0.5933,-0.4537,1.1745,-0.2726
1.2662,-0.7106,0.1862,-0.9599,1.0331,-0.253,0.8982,-0.4335,1.2147,-0.2199,1.2431,-0.4723,0.5933,-0.4537,1.1745,-0.2726
1.243,-0.7024,0.182,-0.9622,1.0138,-0.2625,0.8738,-0.431,1.2286,-0.1825,1.2334,-0.4799,0.5595,-0.4418,1.1668,-0.2842
1.243,-0.7024,0.182,-0.9622,1.0138,-0.2625,0.8738,-0.431,1.2286,-0.1825,1.2334,-0.4799,0.5595,-0.4418,1.1668,-0.2842
1.2268,-0.7043,0.1709,-0.9545,0.987,-0.2612,0.8614,-0.4327,1.216,-0.1356,1.219,-0.4914,0.5322,-0.4575,1.1452,-0.2909
1.2268,-0.7043,0.1709,-0.9545,0.987,-0.2612,0.8614,-0.4327,1.216,-0.1356,1.219,-0.4914,0.5322,-0.4575,1.1452,-0.2909
1.2384,-0.7084,0.1556,-0.9491,0.9627,-0.2588,0.855,-0.4365,1.1495,-0.1545,1.2296,-0.528,0.4727,-0.4998,1.0992,-0.2925
1.2243,-0.6881,0.1438,-0.9487,0.9397,-0.2629,0.8518,-0.4384,1.1232,-0.1452,1.2147,-0.5173,0.4456,-0.5154,1.0607,-0.2895
1.2243,-0.6881,0.1438,-0.9487,0.9397,-0.2629,0.8518,-0.4384,1.1232,-0.1452,1.2147,-0.5173,0.4456,-0.5154,1.0607,-0.2895
1.199,-0.7022,0.1315,-0.9558,0.8993,-0.2649,0.8303,-0.4399,1.1095,-0.1827,1.1902,-0.5141,0.4583,-0.5702,1.0182,-0.2959
1.199,-0.7022,0.1315,-0.9558,0.8993,-0.2649,0.8303,-0.4399,1.1095,-0.1827,1.1902,-0.5141,0.4583,-0.5702,1.0182,-0.2959
1.1667,-0.706,0.1156,-0.9578,0.8693,-0.2726,0.8147,-0.4435,1.1551,-0.2199,1.1706,-0.5072,0.4404,-0.5262,0.9933,-0.3049
1.1667,-0.706,0.1156,-0.9578,0.8693,-0.2726,0.8147,-0.4435,1.1551,-0.2199,1.1706,-0.5072,0.4404,-0.5262,0.9933,-0.3049
1.1667,-0.706,0.1156,-0.9578,0.8693,-0.2726,0.8147,-0.4435,1.1551,-0.2199,1.1706,-0.5072,0.4404,-0.5262,0.9933,-0.3049
1.1415,-0.72,0.0852,-0.9471,0.8417,-0.2792,0.7904,-0.441,1.1814,-0.2292,1.1509,-0.5002,0.4006,-0.4869,0.9857,-0.3164
1.1325,-0.7321,0.0693,-0.9491,0.8129,-0.2791,0.7689,-0.4425,1.1426,-0.1733,1.1266,-0.4971,0.3672,-0.4751,0.9648,-0.3161
1.1625,-0.7503,0.0542,-0.9437,0.7955,-0.277,0.7658,-0.4444,1.1426,-0.1733,1.1464,-0.5151,0.3288,-0.4741,0.9439,-0.3158
1.1625,-0.7503,0.0542,-0.9437,0.7955,-0.277,0.7658,-0.4444,1.1426,-0.1733,1.1464,-0.5151,0.3288,-0.4741,0.9439,-0.3158
1.1625,-0.7503,0.0542,-0.9437,0.7955,-0.277,0.7658,-0.4444,1.1426,-0.1733,1.1464,-0.5151,0.3288,-0.4741,0.9439,-0.3158
1.1601,-0.7342,0.0577,-0.9488,0.7988,-0.2681,0.7809,-0.4467,1.0969,-0.136,1.1266,-0.4971,0.3237,-0.4849,0.9302,-0.3109
1.1601,-0.7342,0.0577,-0.9488,0.7988,-0.2681,0.7809,-0.4467,1.0969,-0.136,1.1266,-0.4971,0.3237,-0.4849,0.9302,-0.3109
1.1531,-0.7241,0.0763,-0.9592,0.8372,-0.2633,0.7908,-0.435,1.0774,-0.1079,1.1409,-0.4857,0.3955,-0.4977,0.9409,-0.3041
1.1531,-0.7241,0.0763,-0.9592,0.8372,-0.2633,0.7908,-0.435,1.0774,-0.1079,1.1409,-0.4857,0.3955,-0.4977,0.9409,-0.3041
1.1692,-0.7222,0.1039,-0.9575,0.9013,-0.2493,0.8251,-0.4259,1.1037,-0.1172,1.165,-0.4778,0.4663,-0.4722,0.9904,-0.2932
1.1692,-0.7222,0.1039,-0.9575,0.9013,-0.2493,0.8251,-0.4259,1.1037,-0.1172,1.165,-0.4778,0.4663,-0.4722,0.9904,-0.2932
1.206,-0.7123,0.1397,-0.9511,0.9993,-0.2369,0.8686,-0.417,1.2229,-0.1168,1.1988,-0.4622,0.5478,-0.4249,1.0854,-0.2876
1.206,-0.7123,0.1397,-0.9511,0.9993,-0.2369,0.8686,-0.417,1.2229,-0.1168,1.1988,-0.4622,0.5478,-0.4249,1.0854,-0.2876
1.2408,-0.7246,0.1639,-0.9444,1.0906,-0.2282,0.9119,-0.414,1.2436,-0.06,1.2279,-0.4504,0.6247,-0.3883,1.1884,-0.2775
1.2408,-0.7246,0.1639,-0.9444,1.0906,-0.2282,0.9119,-0.414,1.2436,-0.06,1.2279,-0.4504,0.6247,-0.3883,1.1884,-0.2775
1.3198,-0.7372,0.1957,-0.9404,1.17,-0.2109,0.9553,-0.411,1.2563,-0.1073,1.2676,-0.4755,0.6587,-0.4003,1.2567,-0.2623
1.3198,-0.7372,0.1957,-0.9404,1.17,-0.2109,0.9553,-0.411,1.2563,-0.1073,1.2676,-0.4755,0.6587,-0.4003,1.2567,-0.2623
1.3663,-0.7153,0.2164,-0.9286,1.2338,-0.1942,1.0138,-0.4164,1.2494,-0.1261,1.307,-0.4784,0.681,-0.3953,1.3217,-0.2493
1.3663,-0.7153,0.2164,-0.9286,1.2338,-0.1942,1.0138,-0.4164,1.2494,-0.1261,1.307,-0.4784,0.681,-0.3953,1.3217,-0.2493
1.3849,-0.6911,0.2436,-0.9343,1.287,-0.1902,1.0421,-0.4111,1.2425,-0.145,1.3263,-0.4631,0.7151,-0.4074,1.3833,-0.2386
1.3849,-0.6911,0.2436,-0.9343,1.287,-0.1902,1.0421,-0.4111,1.2425,-0.145,1.3263,-0.4631,0.7151,-0.4074,1.3833,-0.2386
1.3849,-0.6911,0.2436,-0.9343,1.287,-0.1902,1.0421,-0.4111,1.2425,-0.145,1.3263,-0.4631,0.7151,-0.4074,1.3833,-0.2386
1.4012,-0.6892,0.2666,-0.9425,1.3242,-0.1868,1.0607,-0.4115,1.262,-0.1731,1.336,-0.4555,0.8005,-0.4376,1.4239,-0.2204
1.4012,-0.6892,0.2666,-0.9425,1.3242,-0.1868,1.0607,-0.4115,1.262,-0.1731,1.336,-0.4555,0.8005,-0.4376,1.4239,-0.2204
1.4012,-0.6892,0.2666,-0.9425,1.3242,-0.1868,1.0607,-0.4115,1.262,-0.1731,1.336,-0.4555,0.8005,-0.4376,1.4239,-0.2204
1.4247,-0.6975,0.2952,-0.9334,1.3809,-0.1923,1.0766,-0.408,1.3752,-0.1918,1.3508,-0.4552,0.8048,-0.3877,1.4893,-0.2145
1.4247,-0.6975,0.2952,-0.9334,1.3809,-0.1923,1.0766,-0.408,1.3752,-0.1918,1.3508,-0.4552,0.8048,-0.3877,1.4893,-0.2145
1.4247,-0.6975,0.2952,-0.9334,1.3809,-0.1923,1.0766,-0.408,1.3752,-0.1918,1.3508,-0.4552,0.8048,-0.3877,1.4893,-0.2145
1.4365,-0.7016,0.2958,-0.926,1.3878,-0.1926,1.0766,-0.408,1.3627,-0.1448,1.3559,-0.4625,0.7994,-0.3987,1.5072,-0.2172
1.4365,-0.7016,0.2958,-0.926,1.3878,-0.1926,1.0766,-0.408,1.3627,-0.1448,1.3559,-0.4625,0.7994,-0.3987,1.5072,-0.2172
1.4529,-0.6997,0.3,-0.9236,1.3809,-0.1923,1.0854,-0.4141,1.3556,-0.1637,1.3811,-0.488,0.7663,-0.4255,1.4997,-0.2218
1.4529,-0.6997,0.3,-0.9236,1.3809,-0.1923,1.0854,-0.4141,1.3556,-0.1637,1.3811,-0.488,0.7663,-0.4255,1.4997,-0.2218
1.427,-0.6751,0.2923,-0.9209,1.3661,-0.1995,1.0822,-0.4161,1.3415,-0.2012,1.376,-0.4807,0.7503,-0.4582,1.4776,-0.2285
1.427,-0.6751,0.2923,-0.9209,1.3661,-0.1995,1.0822,-0.4161,1.3415,-0.2012,1.376,-0.4807,0.7503,-0.4582,1.4776,-0.2285
1.3966,-0.6952,0.2904,-0.9432,1.3307,-0.2057,1.057,-0.4194,1.3539,-0.2479,1.3663,-0.4883,0.7855,-0.5089,1.448,-0.2398
1.3966,-0.6952,0.2904,-0.9432,1.3307,-0.2057,1.057,-0.4194,1.3539,-0.2479,1.3663,-0.4883,0.7855,-0.5089,1.448,-0.2398
1.3966,-0.6952,0.2904,-0.9432,1.3307,-0.2057,1.057,-0.4194,1.3539,-0.2479,1.3663,-0.4883,0.7855,-0.5089,1.448,-0.2398
1.3429,-0.707,0.2673,-0.935,1.2694,-0.2172,1.0254,-0.4266,1.3998,-0.2853,1.3515,-0.4886,0.7674,-0.4642,1.3965,-0.2577
1.3429,-0.707,0.2673,-0.935,1.2694,-0.2172,1.0254,-0.4266,1.3998,-0.2853,1.3515,-0.4886,0.7674,-0.4642,1.3965,-0.2577
1.3429,-0.707,0.2673,-0.935,1.2694,-0.2172,1.0254,-0.4266,1.3998,-0.2853,1.3515,-0.4886,0.7674,-0.4642,1.3965,-0.2577
1.3337,-0.7191,0.2554,-0.9347,1.2653,-0.2302,1.0069,-0.4262,1.3876,-0.2387,1.3266,-0.4742,0.7321,-0.4134,1.4032,-0.2672
1.3291,-0.7251,0.2554,-0.9347,1.2574,-0.2377,0.9944,-0.4278,1.3486,-0.1824,1.3169,-0.4819,0.7215,-0.4353,1.399,-0.2766
1.3594,-0.7435,0.2436,-0.9343,1.2345,-0.2379,0.9818,-0.4295,1.315,-0.1918,1.3222,-0.5003,0.6886,-0.4619,1.3704,-0.2737
1.3594,-0.7435,0.2436,-0.9343,1.2345,-0.2379,0.9818,-0.4295,1.315,-0.1918,1.3222,-0.5003,0.6886,-0.4619,1.3704,-0.2737
1.357,-0.7274,0.2318,-0.934,1.2136,-0.2408,0.9842,-0.4395,1.315,-0.1918,1.3171,-0.493,0.6663,-0.4668,1.349,-0.2733
1.357,-0.7274,0.2318,-0.934,1.2136,-0.2408,0.9842,-0.4395,1.315,-0.1918,1.3171,-0.493,0.6663,-0.4668,1.349,-0.2733
1.357,-0.7274,0.2318,-0.934,1.2136,-0.2408,0.9842,-0.4395,1.315,-0.1918,1.3171,-0.493,0.6663,-0.4668,1.349,-0.2733
1.3291,-0.7251,0.2228,-0.9461,1.1873,-0.25,0.9597,-0.4369,1.2494,-0.1261,1.322,-0.4892,0.6833,-0.4728,1.3312,-0.2706
1.3291,-0.7251,0.2228,-0.9461,1.1873,-0.25,0.9597,-0.4369,1.2494,-0.1261,1.322,-0.4892,0.6833,-0.4728,1.3312,-0.2706
1.3035,-0.7391,0.2215,-0.9609,1.148,-0.2546,0.9352,-0.4344,1.2229,-0.1168,1.3319,-0.4927,0.729,-0.5016,1.3028,-0.2678
1.3035,-0.7391,0.2215,-0.9609,1.148,-0.2546,0.9352,-0.4344,1.2229,-0.1168,1.3319,-0.4927,0.729,-0.5016,1.3028,-0.2678
1.2873,-0.741,0.2104,-0.9532,1.1199,-0.2611,0.9167,-0.4339,1.2759,-0.1355,1.3118,-0.4746,0.6992,-0.4401,1.2814,-0.2674
1.2594,-0.7388,0.1944,-0.9552,1.1024,-0.2734,0.8918,-0.4373,1.3627,-0.1448,1.3118,-0.4746,0.6927,-0.4123,1.2773,-0.2767
1.2594,-0.7388,0.1944,-0.9552,1.1024,-0.2734,0.8918,-0.4373,1.3627,-0.1448,1.3118,-0.4746,0.6927,-0.4123,1.2773,-0.2767
1.2594,-0.7388,0.1944,-0.9552,1.1024,-0.2734,0.8918,-0.4373,1.3627,-0.1448,1.3118,-0.4746,0.6927,-0.4123,1.2773,-0.2767
1.2316,-0.7366,0.1862,-0.9599,1.0792,-0.2775,0.8762,-0.4409,1.3164,-0.1071,1.2823,-0.4752,0.6587,-0.4003,1.2559,-0.2763
1.2316,-0.7366,0.1862,-0.9599,1.0792,-0.2775,0.8762,-0.4409,1.3164,-0.1071,1.2823,-0.4752,0.6587,-0.4003,1.2559,-0.2763
1.2619,-0.7549,0.1744,-0.9595,1.0481,-0.2746,0.8698,-0.4447,1.262,-0.1731,1.283,-0.5085,0.609,-0.421,1.2096,-0.2779
1.2619,-0.7549,0.1744,-0.9595,1.0481,-0.2746,0.8698,-0.4447,1.262,-0.1731,1.283,-0.5085,0.609,-0.421,1.2096,-0.2779
1.2619,-0.7549,0.1744,-0.9595,1.0481,-0.2746,0.8698,-0.4447,1.262,-0.1731,1.283,-0.5085,0.609,-0.421,1.2096,-0.2779
1.2594,-0.7388,0.1667,-0.9568,1.0231,-0.276,0.8846,-0.453,1.2216,-0.2012,1.2683,-0.5088,0.5478,-0.4249,1.1843,-0.2868
1.2313,-0.6983,0.155,-0.9565,0.9921,-0.2732,0.8818,-0.449,1.1883,-0.2106,1.2486,-0.5018,0.5206,-0.4407,1.1525,-0.2863
1.2313,-0.6983,0.155,-0.9565,0.9921,-0.2732,0.8818,-0.449,1.1883,-0.2106,1.2486,-0.5018,0.5206,-0.4407,1.1525,-0.2863
1.206,-0.7123,0.1419,-0.9709,0.951,-0.2791,0.8578,-0.4405,1.1745,-0.2478,1.2241,-0.4986,0.5439,-0.4743,1.1175,-0.2811
1.206,-0.7123,0.1419,-0.9709,0.951,-0.2791,0.8578,-0.4405,1.1745,-0.2478,1.2241,-0.4986,0.5439,-0.4743,1.1175,-0.2811
1.1969,-0.7243,0.1337,-0.9756,0.919,-0.2841,0.8394,-0.4401,1.1675,-0.2664,1.2046,-0.5027,0.5503,-0.5019,1.089,-0.2853
1.1969,-0.7243,0.1337,-0.9756,0.919,-0.2841,0.8394,-0.4401,1.1675,-0.2664,1.2046,-0.5027,0.5503,-0.5019,1.089,-0.2853
1.1692,-0.7222,0.1109,-0.9676,0.8895,-0.2879,0.8243,-0.4378,1.22,-0.2849,1.1751,-0.4923,0.4934,-0.4565,1.0574,-0.2848
1.1692,-0.7222,0.1109,-0.9676,0.8895,-0.2879,0.8243,-0.4378,1.22,-0.2849,1.1751,-0.4923,0.4934,-0.4565,1.0574,-0.2848
1.1692,-0.7222,0.1109,-0.9676,0.8895,-0.2879,0.8243,-0.4378,1.22,-0.2849,1.1751,-0.4923,0.4934,-0.4565,1.0574,-0.2848
1.1461,-0.714,0.1033,-0.9649,0.8752,-0.2951,0.8123,-0.4335,1.2077,-0.2385,1.1605,-0.4926,0.4598,-0.4446,1.0534,-0.2941
1.1461,-0.714,0.1033,-0.9649,0.8752,-0.2951,0.8123,-0.4335,1.2077,-0.2385,1.1605,-0.4926,0.4598,-0.4446,1.0534,-0.2941
1.13,-0.716,0.0915,-0.9645,0.8529,-0.2953,0.8,-0.4352,1.1883,-0.2106,1.1658,-0.511,0.416,-0.4544,1.0186,-0.2889
1.137,-0.7261,0.0763,-0.9592,0.8204,-0.2899,0.7876,-0.437,1.1413,-0.2571,1.1615,-0.5368,0.357,-0.4967,0.9799,-0.293
1.137,-0.7261,0.0763,-0.9592,0.8204,-0.2899,0.7876,-0.437,1.1413,-0.2571,1.1615,-0.5368,0.357,-0.4967,0.9799,-0.293
1.13,-0.716,0.057,-0.9562,0.7958,-0.2913,0.7932,-0.445,1.1344,-0.2756,1.1467,-0.5261,0.3301,-0.5123,0.9517,-0.2973
1.13,-0.716,0.057,-0.9562,0.7958,-0.2913,0.7932,-0.445,1.1344,-0.2756,1.1467,-0.5261,0.3301,-0.5123,0.9517,-0.2973
1.1139,-0.7179,0.0482,-0.9682,0.7736,-0.2916,0.7697,-0.4306,1.1013,-0.2849,1.1273,-0.5302,0.3429,-0.567,0.9269,-0.3062
1.1139,-0.7179,0.0482,-0.9682,0.7736,-0.2916,0.7697,-0.4306,1.1013,-0.2849,1.1273,-0.5302,0.3429,-0.567,0.9269,-0.3062
1.1139,-0.7179,0.0482,-0.9682,0.7736,-0.2916,0.7697,-0.4306,1.1013,-0.2849,1.1273,-0.5302,0.3429,-0.567,0.9269,-0.3062
1.1049,-0.7299,0.0587,-0.9833,0.7765,-0.2866,0.7669,-0.4266,1.0683,-0.2942,1.1128,-0.5305,0.3544,-0.5835,0.9125,-0.3153
1.1164,-0.734,0.0675,-0.9713,0.82,-0.2756,0.8067,-0.4255,1.1205,-0.3126,1.1175,-0.5268,0.3698,-0.5514,0.9266,-0.3132
1.137,-0.7261,0.0915,-0.9645,0.9059,-0.2652,0.8534,-0.4146,1.2464,-0.2942,1.1464,-0.5151,0.4006,-0.4869,0.9965,-0.3096
1.137,-0.7261,0.0915,-0.9645,0.9059,-0.2652,0.8534,-0.4146,1.2464,-0.2942,1.1464,-0.5151,0.4006,-0.4869,0.9965,-0.3096
1.1762,-0.7323,0.1156,-0.9578,1.0143,-0.2586,0.9035,-0.4019,1.216,-0.1356,1.1703,-0.4961,0.4817,-0.4397,1.1061,-0.2949
1.1762,-0.7323,0.1156,-0.9578,1.0143,-0.2586,0.9035,-0.4019,1.216,-0.1356,1.1703,-0.4961,0.4817,-0.4397,1.1061,-0.2949
1.1762,-0.7323,0.1156,-0.9578,1.0143,-0.2586,0.9035,-0.4019,1.216,-0.1356,1.1703,-0.4961,0.4817,-0.4397,1.1061,-0.2949
1.2432,-0.7407,0.1473,-0.9538,1.1048,-0.2394,0.9501,-0.3969,1.216,-0.1356,1.2145,-0.5062,0.5374,-0.4467,1.1851,-0.2728
1.2432,-0.7407,0.1473,-0.9538,1.1048,-0.2394,0.9501,-0.3969,1.216,-0.1356,1.2145,-0.5062,0.5374,-0.4467,1.1851,-0.2728
1.3082,-0.7331,0.1715,-0.9471,1.196,-0.2201,1.009,-0.3963,1.2955,-0.1637,1.2833,-0.5195,0.6102,-0.4597,1.2645,-0.2506
1.3082,-0.7331,0.1715,-0.9471,1.196,-0.2201,1.009,-0.3963,1.2955,-0.1637,1.2833,-0.5195,0.6102,-0.4597,1.2645,-0.2506
1.3242,-0.6927,0.1992,-0.9454,1.2662,-0.2077,1.0555,-0.3975,1.2829,-0.1166,1.3123,-0.4968,0.6494,-0.4608,1.344,-0.2355
1.3242,-0.6927,0.1992,-0.9454,1.2662,-0.2077,1.0555,-0.3975,1.2829,-0.1166,1.3123,-0.4968,0.6494,-0.4608,1.344,-0.2355
1.3359,-0.6969,0.218,-0.9559,1.3126,-0.2034,1.0681,-0.3958,1.2898,-0.0977,1.3414,-0.4739,0.762,-0.4751,1.4094,-0.2225
1.3359,-0.6969,0.218,-0.9559,1.3126,-0.2034,1.0681,-0.3958,1.2898,-0.0977,1.3414,-0.4739,0.762,-0.4751,1.4094,-0.2225
1.3592,-0.7051,0.2417,-0.9566,1.3524,-0.1988,1.0868,-0.3962,1.2898,-0.0977,1.3758,-0.4695,0.8294,-0.4606,1.4676,-0.2141
1.3592,-0.7051,0.2417,-0.9566,1.3524,-0.1988,1.0868,-0.3962,1.2898,-0.0977,1.3758,-0.4695,0.8294,-0.4606,1.4676,-0.2141
1.3592,-0.7051,0.2388,-0.9441,1.3891,-0.1993,1.0957,-0.4024,1.3964,-0.1354,1.3851,-0.4396,0.8326,-0.3718,1.526,-0.2057
1.3592,-0.7051,0.2388,-0.9441,1.3891,-0.1993,1.0957,-0.4024,1.3964,-0.1354,1.3851,-0.4396,0.8326,-0.3718,1.526,-0.2057
1.3663,-0.7153,0.2353,-0.9391,1.4205,-0.2063,1.0952,-0.4084,1.4374,-0.1071,1.3997,-0.4281,0.8659,-0.3449,1.609,-0.2168
1.3663,-0.7153,0.2353,-0.9391,1.4205,-0.2063,1.0952,-0.4084,1.4374,-0.1071,1.3997,-0.4281,0.8659,-0.3449,1.609,-0.2168
1.3968,-0.7337,0.243,-0.9418,1.4411,-0.2073,1.0948,-0.4144,1.4106,-0.0976,1.4048,-0.4354,0.8606,-0.3559,1.6314,-0.2101
1.4319,-0.7461,0.2471,-0.9394,1.4386,-0.2085,1.106,-0.4306,1.416,-0.1637,1.4301,-0.461,0.8498,-0.3779,1.6352,-0.2078
1.4319,-0.7461,0.2471,-0.9394,1.4386,-0.2085,1.106,-0.4306,1.416,-0.1637,1.4301,-0.461,0.8498,-0.3779,1.6352,-0.2078
1.4319,-0.7461,0.2471,-0.9394,1.4386,-0.2085,1.106,-0.4306,1.416,-0.1637,1.4301,-0.461,0.8498,-0.3779,1.6352,-0.2078
1.4225,-0.7198,0.2506,-0.9445,1.4287,-0.2133,1.1084,-0.4406,1.3823,-0.1731,1.4201,-0.4575,0.8166,-0.4048,1.6347,-0.215
1.4225,-0.7198,0.2506,-0.9445,1.4287,-0.2133,1.1084,-0.4406,1.3823,-0.1731,1.4201,-0.4575,0.8166,-0.4048,1.6347,-0.215
1.3895,-0.685,0.2583,-0.9472,1.4094,-0.219,1.0874,-0.4301,1.3556,-0.1637,1.4201,-0.4575,0.8455,-0.4278,1.62,-0.217
1.3895,-0.685,0.2583,-0.9472,1.4094,-0.219,1.0874,-0.4301,1.3556,-0.1637,1.4201,-0.4575,0.8455,-0.4278,1.62,-0.217
1.3895,-0.685,0.2583,-0.9472,1.4094,-0.219,1.0874,-0.4301,1.3556,-0.1637,1.4201,-0.4575,0.8455,-0.4278,1.62,-0.217
1.3919,-0.7013,0.2765,-0.9651,1.3783,-0.2266,1.0594,-0.4294,1.3486,-0.1824,1.4103,-0.4651,0.8863,-0.4679,1.5872,-0.2164
1.399,-0.7115,0.2702,-0.9475,1.3628,-0.2377,1.0436,-0.433,1.4213,-0.2294,1.3955,-0.4654,0.8799,-0.44,1.5578,-0.2205
1.3685,-0.693,0.2596,-0.9323,1.3543,-0.2492,1.0246,-0.4385,1.4819,-0.2295,1.3857,-0.473,0.8509,-0.4169,1.5532,-0.2371
1.3685,-0.693,0.2596,-0.9323,1.3543,-0.2492,1.0246,-0.4385,1.4819,-0.2295,1.3857,-0.473,0.8509,-0.4169,1.5532,-0.2371
1.3685,-0.693,0.2596,-0.9323,1.3543,-0.2492,1.0246,-0.4385,1.4819,-0.2295,1.3857,-0.473,0.8509,-0.4169,1.5532,-0.2371
1.3522,-0.6949,0.2638,-0.93,1.3419,-0.2552,1.0116,-0.4461,1.4695,-0.1826,1.376,-0.4807,0.8337,-0.4108,1.5381,-0.2462
1.3522,-0.6949,0.2638,-0.93,1.3419,-0.2552,1.0116,-0.4461,1.4695,-0.1826,1.376,-0.4807,0.8337,-0.4108,1.5381,-0.2462
1.3522,-0.6949,0.2638,-0.93,1.3419,-0.2552,1.0116,-0.4461,1.4695,-0.1826,1.376,-0.4807,0.8337,-0.4108,1.5381,-0.2462
1.3592,-0.7051,0.2526,-0.9222,1.3214,-0.2541,1.0047,-0.4559,1.416,-0.1637,1.3716,-0.5067,0.7781,-0.4424,1.5017,-0.2479
1.3592,-0.7051,0.2526,-0.9222,1.3214,-0.2541,1.0047,-0.4559,1.416,-0.1637,1.3716,-0.5067,0.7781,-0.4424,1.5017,-0.2479
1.3522,-0.6949,0.2407,-0.9218,1.3091,-0.2601,1.0131,-0.468,1.3752,-0.1918,1.3716,-0.5067,0.745,-0.4691,1.4796,-0.2545
1.3242,-0.6927,0.2318,-0.934,1.285,-0.2681,1.0006,-0.4697,1.3415,-0.2012,1.3566,-0.4959,0.7514,-0.4968,1.4542,-0.2564
1.2824,-0.7087,0.2375,-0.959,1.2455,-0.2726,0.9696,-0.4709,1.3009,-0.2292,1.3418,-0.4962,0.7747,-0.5305,1.4177,-0.2652
1.2824,-0.7087,0.2375,-0.959,1.2455,-0.2726,0.9696,-0.4709,1.3009,-0.2292,1.3418,-0.4962,0.7747,-0.5305,1.4177,-0.2652
1.2686,-0.7268,0.2292,-0.9637,1.2086,-0.276,0.9478,-0.4723,1.3203,-0.2572,1.327,-0.4965,0.7343,-0.4908,1.392,-0.2741
1.2686,-0.7268,0.2292,-0.9637,1.2086,-0.276,0.9478,-0.4723,1.3203,-0.2572,1.327,-0.4965,0.7343,-0.4908,1.392,-0.2741
1.2686,-0.7268,0.2292,-0.9637,1.2086,-0.276,0.9478,-0.4723,1.3203,-0.2572,1.327,-0.4965,0.7343,-0.4908,1.392,-0.2741
1.2432,-0.7407,0.2097,-0.9606,1.1798,-0.2864,0.929,-0.4778,1.453,-0.3041,1.3321,-0.5038,0.7162,-0.4462,1.3841,-0.2857
1.2432,-0.7407,0.2097,-0.9606,1.1798,-0.2864,0.929,-0.4778,1.453,-0.3041,1.3321,-0.5038,0.7162,-0.4462,1.3841,-0.2857
1.2432,-0.7407,0.2097,-0.9606,1.1798,-0.2864,0.929,-0.4778,1.453,-0.3041,1.3321,-0.5038,0.7162,-0.4462,1.3841,-0.2857
1.2271,-0.7426,0.1944,-0.9552,1.1646,-0.2974,0.8989,-0.4672,1.4285,-0.2107,1.3173,-0.5041,0.6757,-0.4063,1.3907,-0.2952
1.2295,-0.7587,0.1791,-0.9498,1.1433,-0.3042,0.8805,-0.4667,1.3501,-0.0976,1.3175,-0.5152,0.6365,-0.4052,1.3692,-0.2948
1.2295,-0.7587,0.1791,-0.9498,1.1433,-0.3042,0.8805,-0.4667,1.3501,-0.0976,1.3175,-0.5152,0.6365,-0.4052,1.3692,-0.2948
1.2295,-0.7587,0.1791,-0.9498,1.1433,-0.3042,0.8805,-0.4667,1.3501,-0.0976,1.3175,-0.5152,0.6365,-0.4052,1.3692,-0.2948
1.2667,-0.7871,0.1632,-0.9518,1.1139,-0.304,0.8621,-0.4663,1.3164,-0.1071,1.3377,-0.5443,0.5986,-0.4428,1.323,-0.2893
1.2667,-0.7871,0.1632,-0.9518,1.1139,-0.304,0.8621,-0.4663,1.3164,-0.1071,1.3377,-0.5443,0.5986,-0.4428,1.323,-0.2893
1.2667,-0.7871,0.1632,-0.9518,1.1139,-0.304,0.8621,-0.4663,1.3164,-0.1071,1.3377,-0.5443,0.5986,-0.4428,1.323,-0.2893
1.2295,-0.7587,0.1426,-0.9635,1.0414,-0.307,0.8457,-0.4817,1.2563,-0.1073,1.3129,-0.53,0.5607,-0.4803,1.2375,-0.2877
1.2295,-0.7587,0.1426,-0.9635,1.0414,-0.307,0.8457,-0.4817,1.2563,-0.1073,1.3129,-0.53,0.5607,-0.4803,1.2375,-0.2877
1.2295,-0.7587,0.1426,-0.9635,1.0414,-0.307,0.8457,-0.4817,1.2563,-0.1073,1.3129,-0.53,0.5607,-0.4803,1.2375,-0.2877
1.1811,-0.7645,0.1483,-0.9884,0.9977,-0.3139,0.8178,-0.487,1.2494,-0.1261,1.3079,-0.5227,0.6061,-0.509,1.2056,-0.2872
1.1811,-0.7645,0.1483,-0.9884,0.9977,-0.3139,0.8178,-0.487,1.2494,-0.1261,1.3079,-0.5227,0.6061,-0.509,1.2056,-0.2872
1.1604,-0.7724,0.1331,-0.983,0.9609,-0.3213,0.7963,-0.4885,1.2633,-0.0884,1.3026,-0.5044,0.5699,-0.42,1.1876,-0.2916
1.1604,-0.7724,0.1331,-0.983,0.9609,-0.3213,0.7963,-0.4885,1.2633,-0.0884,1.3026,-0.5044,0.5699,-0.42,1.1876,-0.2916
1.1604,-0.7724,0.1331,-0.983,0.9609,-0.3213,0.7963,-0.4885,1.2633,-0.0884,1.3026,-0.5044,0.5699,-0.42,1.1876,-0.2916
1.1077,-0.7841,0.0985,-0.9746,0.9164,-0.336,0.7503,-0.4933,1.3361,-0.1354,1.2633,-0.5015,0.5348,-0.3693,1.1689,-0.31
1.1077,-0.7841,0.0985,-0.9746,0.9164,-0.336,0.7503,-0.4933,1.3361,-0.1354,1.2633,-0.5015,0.5348,-0.3693,1.1689,-0.31
1.1077,-0.7841,0.0985,-0.9746,0.9164,-0.336,0.7503,-0.4933,1.3361,-0.1354,1.2633,-0.5015,0.5348,-0.3693,1.1689,-0.31
1.1077,-0.7841,0.0833,-0.9692,0.888,-0.332,0.7348,-0.4969,1.2885,-0.1824,1.2294,-0.517,0.5141,-0.413,1.1335,-0.3117
1.1077,-0.7841,0.0833,-0.9692,0.888,-0.332,0.7348,-0.4969,1.2885,-0.1824,1.2294,-0.517,0.5141,-0.413,1.1335,-0.3117
1.1307,-0.7922,0.0681,-0.9639,0.8578,-0.3254,0.7372,-0.5067,1.2147,-0.2199,1.2202,-0.5466,0.4714,-0.4614,1.081,-0.3039
1.1167,-0.7721,0.0599,-0.9686,0.829,-0.3253,0.7399,-0.5107,1.1551,-0.2199,1.1957,-0.5434,0.4276,-0.4712,1.0596,-0.3105
1.1167,-0.7721,0.0599,-0.9686,0.829,-0.3253,0.7399,-0.5107,1.1551,-0.2199,1.1957,-0.5434,0.4276,-0.4712,1.0596,-0.3105
1.1167,-0.7721,0.0599,-0.9686,0.829,-0.3253,0.7399,-0.5107,1.1551,-0.2199,1.1957,-0.5434,0.4276,-0.4712,1.0596,-0.3105
1.0983,-0.758,0.0593,-0.9759,0.7917,-0.3223,0.7281,-0.5065,1.122,-0.2293,1.1761,-0.5365,0.4121,-0.5036,1.0212,-0.3076
1.0983,-0.758,0.0593,-0.9759,0.7917,-0.3223,0.7281,-0.5065,1.122,-0.2293,1.1761,-0.5365,0.4121,-0.5036,1.0212,-0.3076
1.0983,-0.758,0.0593,-0.9759,0.7917,-0.3223,0.7281,-0.5065,1.122,-0.2293,1.1761,-0.5365,0.4121,-0.5036,1.0212,-0.3076
1.0798,-0.7439,0.0751,-0.9739,0.7691,-0.3264,0.7162,-0.5023,1.1606,-0.2849,1.1273,-0.5302,0.3788,-0.4918,0.972,-0.3115
1.0798,-0.7439,0.0751,-0.9739,0.7691,-0.3264,0.7162,-0.5023,1.1606,-0.2849,1.1273,-0.5302,0.3788,-0.4918,0.972,-0.3115
1.0773,-0.7278,0.0915,-0.9645,0.8224,-0.325,0.738,-0.495,1.2464,-0.2942,1.1175,-0.5268,0.4006,-0.4869,0.9825,-0.3117
1.0773,-0.7278,0.0915,-0.9645,0.8224,-0.325,0.738,-0.495,1.2464,-0.2942,1.1175,-0.5268,0.4006,-0.4869,0.9825,-0.3117
1.0979,-0.7199,0.1197,-0.9555,0.9039,-0.3133,0.7753,-0.484,1.2216,-0.2012,1.1321,-0.5264,0.4276,-0.4712,1.0317,-0.3078
1.0979,-0.7199,0.1197,-0.9555,0.9039,-0.3133,0.7753,-0.484,1.2216,-0.2012,1.1321,-0.5264,0.4276,-0.4712,1.0317,-0.3078
1.1601,-0.7342,0.1368,-0.9386,0.9966,-0.2891,0.8306,-0.4794,1.2077,-0.2385,1.1715,-0.5513,0.4392,-0.4879,1.0952,-0.3017
1.2176,-0.7164,0.1616,-0.9245,1.0986,-0.2679,0.9105,-0.4773,1.234,-0.2478,1.2154,-0.5504,0.5115,-0.5008,1.1704,-0.2819
1.2176,-0.7164,0.1616,-0.9245,1.0986,-0.2679,0.9105,-0.4773,1.234,-0.2478,1.2154,-0.5504,0.5115,-0.5008,1.1704,-0.2819
1.2176,-0.7164,0.1616,-0.9245,1.0986,-0.2679,0.9105,-0.4773,1.234,-0.2478,1.2154,-0.5504,0.5115,-0.5008,1.1704,-0.2819
1.2592,-0.7004,0.1817,-0.9201,1.2046,-0.2561,0.9756,-0.473,1.241,-0.2292,1.2392,-0.5205,0.5893,-0.503,1.267,-0.2695
1.2592,-0.7004,0.1817,-0.9201,1.2046,-0.2561,0.9756,-0.473,1.241,-0.2292,1.2392,-0.5205,0.5893,-0.503,1.267,-0.2695
1.2778,-0.7147,0.2005,-0.9306,1.2704,-0.2423,0.9982,-0.4597,1.2674,-0.2385,1.2734,-0.5161,0.7246,-0.5509,1.3461,-0.2615
1.2778,-0.7147,0.2005,-0.9306,1.2704,-0.2423,0.9982,-0.4597,1.2674,-0.2385,1.2734,-0.5161,0.7246,-0.5509,1.3461,-0.2615
1.2895,-0.7188,0.2193,-0.9411,1.3267,-0.2333,1.0265,-0.4545,1.2604,-0.2571,1.2879,-0.5047,0.7971,-0.5257,1.4256,-0.2535
1.2895,-0.7188,0.2193,-0.9411,1.3267,-0.2333,1.0265,-0.4545,1.2604,-0.2571,1.2879,-0.5047,0.7971,-0.5257,1.4256,-0.2535
1.3128,-0.7271,0.2394,-0.9367,1.3845,-0.2309,1.0576,-0.4533,1.4192,-0.3132,1.3222,-0.5003,0.8411,-0.4775,1.5051,-0.2527
1.3128,-0.7271,0.2394,-0.9367,1.3845,-0.2309,1.0576,-0.4533,1.4192,-0.3132,1.3222,-0.5003,0.8411,-0.4775,1.5051,-0.2527
1.3361,-0.7353,0.2513,-0.937,1.4351,-0.2322,1.0734,-0.4497,1.4285,-0.2107,1.3566,-0.4959,0.8627,-0.4339,1.5959,-0.2521
1.3361,-0.7353,0.2513,-0.937,1.4351,-0.2322,1.0734,-0.4497,1.4285,-0.2107,1.3566,-0.4959,0.8627,-0.4339,1.5959,-0.2521
1.3828,-0.7518,0.2708,-0.9401,1.4727,-0.2289,1.086,-0.448,1.4232,-0.1448,1.3912,-0.5026,0.8681,-0.423,1.6371,-0.234
1.3828,-0.7518,0.2708,-0.9401,1.4727,-0.2289,1.086,-0.448,1.4232,-0.1448,1.3912,-0.5026,0.8681,-0.423,1.6371,-0.234
1.4085,-0.7379,0.2862,-0.9456,1.4978,-0.2315,1.0982,-0.4523,1.4499,-0.1543,1.431,-0.5167,0.8627,-0.4339,1.6667,-0.2299
1.4085,-0.7379,0.2862,-0.9456,1.4978,-0.2315,1.0982,-0.4523,1.4499,-0.1543,1.431,-0.5167,0.8627,-0.4339,1.6667,-0.2299
1.4085,-0.7379,0.3009,-0.9584,1.4972,-0.2354,1.086,-0.448,1.4374,-0.1071,1.4457,-0.5053,0.8971,-0.4461,1.6819,-0.2207
1.4085,-0.7379,0.3009,-0.9584,1.4972,-0.2354,1.086,-0.448,1.4374,-0.1071,1.4457,-0.5053,0.8971,-0.4461,1.6819,-0.2207
1.4085,-0.7379,0.3009,-0.9584,1.4972,-0.2354,1.086,-0.448,1.4374,-0.1071,1.4457,-0.5053,0.8971,-0.4461,1.6819,-0.2207
1.3874,-0.7458,0.3003,-0.9658,1.4841,-0.2454,1.073,-0.4556,1.4106,-0.0976,1.4606,-0.505,0.9143,-0.4521,1.6891,-0.2232
1.3758,-0.7416,0.2897,-0.9506,1.4641,-0.2549,1.0572,-0.4592,1.4444,-0.0881,1.4604,-0.4939,0.9015,-0.3962,1.6963,-0.2258
1.3758,-0.7416,0.2897,-0.9506,1.4641,-0.2549,1.0572,-0.4592,1.4444,-0.0881,1.4604,-0.4939,0.9015,-0.3962,1.6963,-0.2258
1.3618,-0.7597,0.2779,-0.9503,1.4505,-0.2687,1.0409,-0.4687,1.5107,-0.1544,1.4553,-0.4866,0.9069,-0.3852,1.7101,-0.238
1.3618,-0.7597,0.2779,-0.9503,1.4505,-0.2687,1.0409,-0.4687,1.5107,-0.1544,1.4553,-0.4866,0.9069,-0.3852,1.7101,-0.238
1.3618,-0.7597,0.2779,-0.9503,1.4505,-0.2687,1.0409,-0.4687,1.5107,-0.1544,1.4553,-0.4866,0.9069,-0.3852,1.7101,-0.238
1.3362,-0.7736,0.2577,-0.9546,1.4344,-0.2837,1.0154,-0.478,1.4713,-0.0976,1.4405,-0.4868,0.8951,-0.3681,1.713,-0.2499
1.3362,-0.7736,0.2577,-0.9546,1.4344,-0.2837,1.0154,-0.478,1.4713,-0.0976,1.4405,-0.4868,0.8951,-0.3681,1.713,-0.2499
1.3386,-0.7897,0.2535,-0.957,1.4132,-0.2865,1.0053,-0.4896,1.4428,-0.1731,1.426,-0.5094,0.8735,-0.412,1.6695,-0.2418
1.3503,-0.7938,0.2417,-0.9566,1.3877,-0.2878,1.0132,-0.5075,1.3752,-0.1918,1.4164,-0.528,0.8284,-0.4218,1.64,-0.246
1.3503,-0.7938,0.2417,-0.9566,1.3877,-0.2878,1.0132,-0.5075,1.3752,-0.1918,1.4164,-0.528,0.8284,-0.4218,1.64,-0.246
1.3339,-0.7575,0.2382,-0.9515,1.3734,-0.291,1.0132,-0.5075,1.361,-0.2293,1.3965,-0.521,0.8059,-0.4267,1.6182,-0.2455
1.3339,-0.7575,0.2382,-0.9515,1.3734,-0.291,1.0132,-0.5075,1.361,-0.2293,1.3965,-0.521,0.8059,-0.4267,1.6182,-0.2455
1.3176,-0.7593,0.241,-0.964,1.3473,-0.2963,0.9919,-0.5031,1.361,-0.2293,1.3866,-0.5175,0.8294,-0.4606,1.5896,-0.2354
1.3176,-0.7593,0.241,-0.964,1.3473,-0.2963,0.9919,-0.5031,1.361,-0.2293,1.3866,-0.5175,0.8294,-0.4606,1.5896,-0.2354
1.3176,-0.7593,0.2522,-0.9718,1.3213,-0.3015,0.9646,-0.4964,1.3733,-0.2759,1.3768,-0.5251,0.8411,-0.4775,1.5603,-0.2396
1.3176,-0.7593,0.2522,-0.9718,1.3213,-0.3015,0.9646,-0.4964,1.3733,-0.2759,1.3768,-0.5251,0.8411,-0.4775,1.5603,-0.2396
1.3106,-0.7492,0.2529,-0.9644,1.3022,-0.307,0.9581,-0.5002,1.453,-0.3041,1.372,-0.5289,0.7834,-0.4315,1.5381,-0.2462
1.3106,-0.7492,0.2529,-0.9644,1.3022,-0.307,0.9581,-0.5002,1.453,-0.3041,1.372,-0.5289,0.7834,-0.4315,1.5381,-0.2462
1.2873,-0.741,0.2529,-0.9644,1.2893,-0.3169,0.9397,-0.4998,1.448,-0.2388,1.3721,-0.54,0.7663,-0.4255,1.5296,-0.265
1.2873,-0.741,0.2529,-0.9644,1.2893,-0.3169,0.9397,-0.4998,1.448,-0.2388,1.3721,-0.54,0.7663,-0.4255,1.5296,-0.265
1.2827,-0.747,0.2452,-0.9617,1.2597,-0.3166,0.9208,-0.5052,1.3681,-0.2106,1.3725,-0.5621,0.7279,-0.4631,1.4821,-0.2735
1.2827,-0.747,0.2452,-0.9617,1.2597,-0.3166,0.9208,-0.5052,1.3681,-0.2106,1.3725,-0.5621,0.7279,-0.4631,1.4821,-0.2735
1.2967,-0.7672,0.2298,-0.9562,1.2282,-0.3137,0.9051,-0.5088,1.3468,-0.2665,1.368,-0.5879,0.6727,-0.4945,1.4346,-0.282
1.2967,-0.7672,0.2298,-0.9562,1.2282,-0.3137,0.9051,-0.5088,1.3468,-0.2665,1.368,-0.5879,0.6727,-0.4945,1.4346,-0.282
1.2967,-0.7672,0.2298,-0.9562,1.2282,-0.3137,0.9051,-0.5088,1.3468,-0.2665,1.368,-0.5879,0.6727,-0.4945,1.4346,-0.282
1.2897,-0.7571,0.2187,-0.9485,1.203,-0.315,0.9167,-0.5189,1.3397,-0.2851,1.348,-0.5699,0.6452,-0.5101,1.4052,-0.2932
1.2573,-0.7609,0.1986,-0.9528,1.1724,-0.3226,0.9011,-0.5224,1.3397,-0.2851,1.3081,-0.5338,0.6569,-0.5269,1.3725,-0.2996
1.2573,-0.7609,0.1986,-0.9528,1.1724,-0.3226,0.9011,-0.5224,1.3397,-0.2851,1.3081,-0.5338,0.6569,-0.5269,1.3725,-0.2996
1.2573,-0.7609,0.1986,-0.9528,1.1724,-0.3226,0.9011,-0.5224,1.3397,-0.2851,1.3081,-0.5338,0.6569,-0.5269,1.3725,-0.2996
1.2273,-0.7808,0.182,-0.9622,1.1332,-0.3272,0.8795,-0.5239,1.299,-0.3128,1.2787,-0.5344,0.697,-0.5664,1.3324,-0.3105
1.2273,-0.7808,0.182,-0.9622,1.1332,-0.3272,0.8795,-0.5239,1.299,-0.3128,1.2787,-0.5344,0.697,-0.5664,1.3324,-0.3105
1.202,-0.7947,0.1661,-0.9642,1.096,-0.3344,0.8611,-0.5234,1.299,-0.3128,1.2589,-0.5274,0.6622,-0.5161,1.2999,-0.317
1.202,-0.7947,0.1661,-0.9642,1.096,-0.3344,0.8611,-0.5234,1.299,-0.3128,1.2589,-0.5274,0.6622,-0.5161,1.2999,-0.317
1.1628,-0.7884,0.1467,-0.9612,1.059,-0.3417,0.8579,-0.5253,1.359,-0.313,1.2541,-0.5312,0.5986,-0.4428,1.2818,-0.3213
1.1422,-0.7963,0.1273,-0.9582,1.022,-0.3489,0.8428,-0.523,1.4192,-0.3132,1.2445,-0.5388,0.5647,-0.4309,1.2884,-0.3308
1.1422,-0.7963,0.1273,-0.9582,1.022,-0.3489,0.8428,-0.523,1.4192,-0.3132,1.2445,-0.5388,0.5647,-0.4309,1.2884,-0.3308
1.1376,-0.8023,0.115,-0.9652,0.9856,-0.3523,0.8217,-0.5185,1.361,-0.2293,1.2495,-0.546,0.5426,-0.4358,1.2675,-0.3234
1.1376,-0.8023,0.115,-0.9652,0.9856,-0.3523,0.8217,-0.5185,1.361,-0.2293,1.2495,-0.546,0.5426,-0.4358,1.2675,-0.3234
1.1491,-0.8063,0.0956,-0.9622,0.9518,-0.3546,0.8094,-0.5202,1.3079,-0.2105,1.2547,-0.5643,0.4934,-0.4565,1.2322,-0.3181
1.1491,-0.8063,0.0956,-0.9622,0.9518,-0.3546,0.8094,-0.5202,1.3079,-0.2105,1.2547,-0.5643,0.4934,-0.4565,1.2322,-0.3181
1.1398,-0.7803,0.0833,-0.9692,0.9199,-0.3595,0.7938,-0.5238,1.262,-0.1731,1.2447,-0.5498,0.483,-0.4781,1.2007,-0.3105
1.1398,-0.7803,0.0833,-0.9692,0.9199,-0.3595,0.7938,-0.5238,1.262,-0.1731,1.2447,-0.5498,0.483,-0.4781,1.2007,-0.3105
1.1031,-0.7901,0.0856,-0.989,0.8814,-0.3641,0.766,-0.529,1.255,-0.1918,1.23,-0.5501,0.5178,-0.5283,1.1616,-0.3145
1.1031,-0.7901,0.0856,-0.989,0.8814,-0.3641,0.766,-0.529,1.255,-0.1918,1.23,-0.5501,0.5178,-0.5283,1.1616,-0.3145
1.0711,-0.7939,0.0698,-0.991,0.8449,-0.3714,0.7411,-0.5382,1.1827,-0.1451,1.2202,-0.5466,0.4947,-0.4949,1.1262,-0.3162
1.0711,-0.7939,0.0698,-0.991,0.8449,-0.3714,0.7411,-0.5382,1.1827,-0.1451,1.2202,-0.5466,0.4947,-0.4949,1.1262,-0.3162
1.0621,-0.8058,0.0435,-0.978,0.8132,-0.3763,0.7165,-0.5415,1.2286,-0.1825,1.2005,-0.5397,0.4546,-0.4555,1.0941,-0.3227
1.0621,-0.8058,0.0435,-0.978,0.8132,-0.3763,0.7165,-0.5415,1.2286,-0.1825,1.2005,-0.5397,0.4546,-0.4555,1.0941,-0.3227
1.0621,-0.8058,0.0435,-0.978,0.8132,-0.3763,0.7165,-0.5415,1.2286,-0.1825,1.2005,-0.5397,0.4546,-0.4555,1.0941,-0.3227
1.0416,-0.8137,0.0243,-0.9749,0.7924,-0.383,0.6921,-0.5449,1.2091,-0.1544,1.1761,-0.5365,0.4379,-0.4495,1.093,-0.3436
1.0416,-0.8137,0.0243,-0.9749,0.7924,-0.383,0.6921,-0.5449,1.2091,-0.1544,1.1761,-0.5365,0.4379,-0.4495,1.093,-0.3436
1.0645,-0.8218,0.0167,-0.9723,0.7893,-0.3738,0.7039,-0.5491,1.0833,-0.1734,1.1426,-0.5629,0.3672,-0.4751,1.0331,-0.3473
1.0645,-0.8218,0.0167,-0.9723,0.7893,-0.3738,0.7039,-0.5491,1.0833,-0.1734,1.1426,-0.5629,0.3672,-0.4751,1.0331,-0.3473
1.0645,-0.8218,0.0167,-0.9723,0.7893,-0.3738,0.7039,-0.5491,1.0833,-0.1734,1.1426,-0.5629,0.3672,-0.4751,1.0331,-0.3473
1.0711,-0.7939,0.0394,-0.9803,0.8327,-0.363,0.7379,-0.5401,1.0696,-0.2108,1.1278,-0.5522,0.3621,-0.4859,1.0367,-0.345
1.0711,-0.7939,0.0394,-0.9803,0.8327,-0.363,0.7379,-0.5401,1.0696,-0.2108,1.1278,-0.5522,0.3621,-0.4859,1.0367,-0.345
1.0986,-0.796,0.0849,-0.9964,0.9058,-0.3484,0.7696,-0.5212,1.0889,-0.2386,1.1326,-0.5485,0.4456,-0.5154,1.0657,-0.3269
1.0986,-0.796,0.0849,-0.9964,0.9058,-0.3484,0.7696,-0.5212,1.0889,-0.2386,1.1326,-0.5485,0.4456,-0.5154,1.0657,-0.3269
1.1467,-0.7903,0.1324,-0.9904,1.0089,-0.3301,0.8313,-0.5129,1.1675,-0.2664,1.1617,-0.5478,0.5167,-0.49,1.1371,-0.3094
1.1467,-0.7903,0.1324,-0.9904,1.0089,-0.3301,0.8313,-0.5129,1.1675,-0.2664,1.1617,-0.5478,0.5167,-0.49,1.1371,-0.3094
1.1467,-0.7903,0.1324,-0.9904,1.0089,-0.3301,0.8313,-0.5129,1.1675,-0.2664,1.1617,-0.5478,0.5167,-0.49,1.1371,-0.3094
1.1856,-0.7585,0.169,-0.9767,1.119,-0.316,0.8844,-0.4984,1.2868,-0.2664,1.1857,-0.529,0.5816,-0.4368,1.2408,-0.2925
1.1856,-0.7585,0.169,-0.9767,1.119,-0.316,0.8844,-0.4984,1.2868,-0.2664,1.1857,-0.529,0.5816,-0.4368,1.2408,-0.2925
1.1856,-0.7585,0.169,-0.9767,1.119,-0.316,0.8844,-0.4984,1.2868,-0.2664,1.1857,-0.529,0.5816,-0.4368,1.2408,-0.2925
1.2594,-0.7388,0.2257,-0.9586,1.2901,-0.2802,0.9775,-0.4889,1.3345,-0.2199,1.3038,-0.5707,0.6546,-0.4499,1.4098,-0.2768
1.2594,-0.7388,0.2257,-0.9586,1.2901,-0.2802,0.9775,-0.4889,1.3345,-0.2199,1.3038,-0.5707,0.6546,-0.4499,1.4098,-0.2768
1.2594,-0.7388,0.2257,-0.9586,1.2901,-0.2802,0.9775,-0.4889,1.3345,-0.2199,1.3038,-0.5707,0.6546,-0.4499,1.4098,-0.2768
1.2849,-0.7249,0.2346,-0.9465,1.3539,-0.2676,1.0238,-0.49,1.3345,-0.2199,1.328,-0.5518,0.7173,-0.4848,1.4821,-0.2735
1.2873,-0.741,0.234,-0.9539,1.3936,-0.2631,1.0424,-0.4905,1.3345,-0.2199,1.3574,-0.5402,0.7908,-0.498,1.5334,-0.2627
1.2873,-0.741,0.234,-0.9539,1.3936,-0.2631,1.0424,-0.4905,1.3345,-0.2199,1.3574,-0.5402,0.7908,-0.498,1.5334,-0.2627
1.3013,-0.7612,0.2487,-0.9667,1.4242,-0.2594,1.0577,-0.4929,1.3804,-0.2573,1.362,-0.5254,0.8646,-0.5113,1.5703,-0.254
1.3013,-0.7612,0.2487,-0.9667,1.4242,-0.2594,1.0577,-0.4929,1.3804,-0.2573,1.362,-0.5254,0.8646,-0.5113,1.5703,-0.254
1.3037,-0.7773,0.2452,-0.9617,1.4448,-0.2605,1.067,-0.4931,1.4602,-0.2855,1.3669,-0.5216,0.8745,-0.4509,1.6139,-0.2549
1.3037,-0.7773,0.2452,-0.9617,1.4448,-0.2605,1.067,-0.4931,1.4602,-0.2855,1.3669,-0.5216,0.8745,-0.4509,1.6139,-0.2549
1.3037,-0.7773,0.2452,-0.9617,1.4448,-0.2605,1.067,-0.4931,1.4602,-0.2855,1.3669,-0.5216,0.8745,-0.4509,1.6139,-0.2549
1.2991,-0.7833,0.241,-0.964,1.4599,-0.2679,1.0582,-0.487,1.5354,-0.2485,1.3766,-0.514,0.8735,-0.412,1.6681,-0.2632
1.2991,-0.7833,0.241,-0.964,1.4599,-0.2679,1.0582,-0.487,1.5354,-0.2485,1.3766,-0.514,0.8735,-0.412,1.6681,-0.2632
1.2991,-0.7833,0.241,-0.964,1.4599,-0.2679,1.0582,-0.487,1.5354,-0.2485,1.3766,-0.514,0.8735,-0.412,1.6681,-0.2632
1.3736,-0.802,0.2334,-0.9613,1.4392,-0.2668,1.0545,-0.4948,1.4767,-0.1638,1.4117,-0.5429,0.8284,-0.4218,1.6691,-0.2489
1.3736,-0.802,0.2334,-0.9613,1.4392,-0.2668,1.0545,-0.4948,1.4767,-0.1638,1.4117,-0.5429,0.8284,-0.4218,1.6691,-0.2489
1.3479,-0.7777,0.2174,-0.9633,1.415,-0.2748,1.0508,-0.5026,1.4303,-0.126,1.4016,-0.5283,0.8005,-0.4376,1.64,-0.246
1.3479,-0.7777,0.2174,-0.9633,1.415,-0.2748,1.0508,-0.5026,1.4303,-0.126,1.4016,-0.5283,0.8005,-0.4376,1.64,-0.246
1.32,-0.7755,0.2279,-0.9785,1.3814,-0.2836,1.0257,-0.5059,1.3768,-0.1071,1.4014,-0.5172,0.8411,-0.4775,1.6215,-0.2503
1.32,-0.7755,0.2279,-0.9785,1.3814,-0.2836,1.0257,-0.5059,1.3768,-0.1071,1.4014,-0.5172,0.8411,-0.4775,1.6215,-0.2503
1.2921,-0.7732,0.2279,-0.9785,1.3585,-0.2982,0.9974,-0.5111,1.3768,-0.1071,1.4062,-0.5134,0.8573,-0.4448,1.603,-0.2547
1.2921,-0.7732,0.2279,-0.9785,1.3585,-0.2982,0.9974,-0.5111,1.3768,-0.1071,1.4062,-0.5134,0.8573,-0.4448,1.603,-0.2547
1.2643,-0.771,0.2167,-0.9707,1.3518,-0.3122,0.9785,-0.5165,1.4106,-0.0976,1.4012,-0.5061,0.8391,-0.3999,1.5954,-0.2592
1.2643,-0.771,0.2167,-0.9707,1.3518,-0.3122,0.9785,-0.5165,1.4106,-0.0976,1.4012,-0.5061,0.8391,-0.3999,1.5954,-0.2592
1.2643,-0.771,0.2167,-0.9707,1.3518,-0.3122,0.9785,-0.5165,1.4106,-0.0976,1.4012,-0.5061,0.8391,-0.3999,1.5954,-0.2592
1.2505,-0.789,0.2085,-0.9754,1.3476,-0.3251,0.9503,-0.5217,1.3641,-0.0597,1.3815,-0.5102,0.8219,-0.3938,1.5945,-0.2734
1.2505,-0.789,0.2085,-0.9754,1.3476,-0.3251,0.9503,-0.5217,1.3641,-0.0597,1.3815,-0.5102,0.8219,-0.3938,1.5945,-0.2734
1.269,-0.8032,0.2008,-0.9727,1.3122,-0.3167,0.9366,-0.541,1.255,-0.1918,1.3678,-0.5769,0.7045,-0.4292,1.5146,-0.2741
1.269,-0.8032,0.2008,-0.9727,1.3122,-0.3167,0.9366,-0.541,1.255,-0.1918,1.3678,-0.5769,0.7045,-0.4292,1.5146,-0.2741
1.269,-0.8032,0.2008,-0.9727,1.3122,-0.3167,0.9366,-0.541,1.255,-0.1918,1.3678,-0.5769,0.7045,-0.4292,1.5146,-0.2741
1.2551,-0.783,0.1925,-0.9774,1.2869,-0.318,0.9389,-0.5509,1.234,-0.2478,1.3381,-0.5664,0.6769,-0.445,1.4925,-0.2808
1.2551,-0.783,0.1925,-0.9774,1.2869,-0.318,0.9389,-0.5509,1.234,-0.2478,1.3381,-0.5664,0.6769,-0.445,1.4925,-0.2808
1.2203,-0.7707,0.1989,-0.9949,1.2536,-0.3268,0.9113,-0.5502,1.2464,-0.2942,1.3234,-0.5666,0.712,-0.4956,1.4529,-0.2776
1.2203,-0.7707,0.1989,-0.9949,1.2536,-0.3268,0.9113,-0.5502,1.2464,-0.2942,1.3234,-0.5666,0.712,-0.4956,1.4529,-0.2776
1.2112,-0.7827,0.1982,-1.0022,1.2205,-0.3355,0.8865,-0.5535,1.2727,-0.3035,1.3036,-0.5597,0.7343,-0.4908,1.4276,-0.2795
1.2112,-0.7827,0.1982,-1.0022,1.2205,-0.3355,0.8865,-0.5535,1.2727,-0.3035,1.3036,-0.5597,0.7343,-0.4908,1.4276,-0.2795
1.1996,-0.7786,0.1801,-0.9844,1.196,-0.3473,0.8649,-0.5549,1.3855,-0.3224,1.274,-0.5492,0.6992,-0.4401,1.4093,-0.2838
1.1835,-0.7805,0.1801,-0.9844,1.1827,-0.361,0.8402,-0.5582,1.3876,-0.2387,1.2742,-0.5602,0.6822,-0.4341,1.4015,-0.2954
1.1835,-0.7805,0.1801,-0.9844,1.1827,-0.361,0.8402,-0.5582,1.3876,-0.2387,1.2742,-0.5602,0.6822,-0.4341,1.4015,-0.2954
1.1835,-0.7805,0.1801,-0.9844,1.1827,-0.361,0.8402,-0.5582,1.3876,-0.2387,1.2742,-0.5602,0.6822,-0.4341,1.4015,-0.2954
1.1604,-0.7724,0.1766,-0.9794,1.16,-0.3611,0.8247,-0.5617,1.3095,-0.126,1.2598,-0.5715,0.6494,-0.4608,1.3828,-0.3068
1.1604,-0.7724,0.1766,-0.9794,1.16,-0.3611,0.8247,-0.5617,1.3095,-0.126,1.2598,-0.5715,0.6494,-0.4608,1.3828,-0.3068
1.1604,-0.7724,0.1766,-0.9794,1.16,-0.3611,0.8247,-0.5617,1.3095,-0.126,1.2598,-0.5715,0.6494,-0.4608,1.3828,-0.3068
1.1789,-0.7865,0.1543,-0.9639,1.1245,-0.3567,0.8123,-0.5634,1.2229,-0.1168,1.28,-0.6115,0.5893,-0.503,1.3287,-0.3128
1.1489,-0.7683,0.1385,-0.9659,1.097,-0.3592,0.8206,-0.5753,1.2091,-0.1544,1.2553,-0.5973,0.5515,-0.5402,1.2925,-0.3215
1.1489,-0.7683,0.1385,-0.9659,1.097,-0.3592,0.8206,-0.5753,1.2091,-0.1544,1.2553,-0.5973,0.5515,-0.5402,1.2925,-0.3215
1.1007,-0.7741,0.1172,-0.985,1.0532,-0.3661,0.7904,-0.5706,1.1689,-0.1826,1.2357,-0.5903,0.5693,-0.5843,1.2494,-0.3277
1.1007,-0.7741,0.1172,-0.985,1.0532,-0.3661,0.7904,-0.5706,1.1689,-0.1826,1.2357,-0.5903,0.5693,-0.5843,1.2494,-0.3277
1.0621,-0.8058,0.1001,-1.0017,1.0096,-0.373,0.7631,-0.57,1.1551,-0.2199,1.2062,-0.5799,0.5977,-0.6069,1.2138,-0.3294
1.0621,-0.8058,0.1001,-1.0017,1.0096,-0.373,0.7631,-0.57,1.1551,-0.2199,1.2062,-0.5799,0.5977,-0.6069,1.2138,-0.3294
1.0485,-0.8237,0.0808,-0.9987,0.9733,-0.3763,0.7599,-0.5719,1.1938,-0.2756,1.1818,-0.5768,0.5346,-0.5343,1.1885,-0.3383
1.0485,-0.8237,0.0808,-0.9987,0.9733,-0.3763,0.7599,-0.5719,1.1938,-0.2756,1.1818,-0.5768,0.5346,-0.5343,1.1885,-0.3383
1.0281,-0.8315,0.0581,-0.9907,0.9462,-0.3789,0.7572,-0.5679,1.3255,-0.3222,1.167,-0.5661,0.4766,-0.4505,1.1881,-0.3453
1.0281,-0.8315,0.0581,-0.9907,0.9462,-0.3789,0.7572,-0.5679,1.3255,-0.3222,1.167,-0.5661,0.4766,-0.4505,1.1881,-0.3453
1.0167,-0.8275,0.0429,-0.9853,0.9257,-0.3817,0.7517,-0.5599,1.3468,-0.2665,1.1622,-0.5698,0.4365,-0.411,1.209,-0.3526
1.0167,-0.8275,0.0429,-0.9853,0.9257,-0.3817,0.7517,-0.5599,1.3468,-0.2665,1.1622,-0.5698,0.4365,-0.411,1.209,-0.3526
1.0236,-0.8375,0.0272,-0.9873,0.9053,-0.3846,0.7457,-0.5579,1.2815,-0.2012,1.1476,-0.5701,0.4094,-0.4268,1.1955,-0.3407
1.0236,-0.8375,0.0272,-0.9873,0.9053,-0.3846,0.7457,-0.5579,1.2815,-0.2012,1.1476,-0.5701,0.4094,-0.4268,1.1955,-0.3407
1.0464,-0.8455,0.0149,-0.9944,0.8727,-0.3791,0.7371,-0.5518,1.2815,-0.2012,1.1626,-0.5918,0.3774,-0.4535,1.1575,-0.3238
1.0464,-0.8455,0.0149,-0.9944,0.8727,-0.3791,0.7371,-0.5518,1.2815,-0.2012,1.1626,-0.5918,0.3774,-0.4535,1.1575,-0.3238
1.0669,-0.8377,0.0033,-0.994,0.851,-0.3755,0.7521,-0.5541,1.2674,-0.2385,1.1579,-0.5955,0.3403,-0.4908,1.1229,-0.3115
1.0669,-0.8377,0.0033,-0.994,0.851,-0.3755,0.7521,-0.5541,1.2674,-0.2385,1.1579,-0.5955,0.3403,-0.4908,1.1229,-0.3115
1.0416,-0.8137,0.0178,-1.0067,0.8515,-0.3717,0.7557,-0.5464,1.2022,-0.1732,1.1526,-0.5774,0.3685,-0.5133,1.1058,-0.3019
1.0416,-0.8137,0.0178,-1.0067,0.8515,-0.3717,0.7557,-0.5464,1.2022,-0.1732,1.1526,-0.5774,0.3685,-0.5133,1.1058,-0.3019
1.0302,-0.8096,0.037,-1.0097,0.8833,-0.3667,0.7743,-0.5409,1.1758,-0.1638,1.1572,-0.5626,0.407,-0.5144,1.1131,-0.2974
1.0302,-0.8096,0.037,-1.0097,0.8833,-0.3667,0.7743,-0.5409,1.1758,-0.1638,1.1572,-0.5626,0.407,-0.5144,1.1131,-0.2974
1.0302,-0.8096,0.037,-1.0097,0.8833,-0.3667,0.7743,-0.5409,1.1758,-0.1638,1.1572,-0.5626,0.407,-0.5144,1.1131,-0.2974
1.0506,-0.8018,0.0575,-0.998,0.9561,-0.3561,0.8085,-0.532,1.2286,-0.1825,1.1617,-0.5478,0.4611,-0.483,1.1697,-0.296
1.0506,-0.8018,0.0575,-0.998,0.9561,-0.3561,0.8085,-0.532,1.2286,-0.1825,1.1617,-0.5478,0.4611,-0.483,1.1697,-0.296
1.0506,-0.8018,0.0575,-0.998,0.9561,-0.3561,0.8085,-0.532,1.2286,-0.1825,1.1617,-0.5478,0.4611,-0.483,1.1697,-0.296
1.1446,-0.8123,0.1207,-0.99,1.1521,-0.3216,0.8983,-0.5184,1.2229,-0.1168,1.2152,-0.5394,0.5986,-0.4428,1.3485,-0.2803
1.1446,-0.8123,0.1207,-0.99,1.1521,-0.3216,0.8983,-0.5184,1.2229,-0.1168,1.2152,-0.5394,0.5986,-0.4428,1.3485,-0.2803
1.1446,-0.8123,0.1207,-0.99,1.1521,-0.3216,0.8983,-0.5184,1.2229,-0.1168,1.2152,-0.5394,0.5986,-0.4428,1.3485,-0.2803
1.1974,-0.8006,0.1448,-0.9834,1.2342,-0.3035,0.9568,-0.5179,1.2355,-0.1637,1.2396,-0.5425,0.6207,-0.4379,1.4247,-0.2676
1.2203,-0.7707,0.1642,-0.9864,1.2996,-0.2938,0.9914,-0.509,1.255,-0.1918,1.2589,-0.5274,0.6769,-0.445,1.5008,-0.262
1.2203,-0.7707,0.1642,-0.9864,1.2996,-0.2938,0.9914,-0.509,1.255,-0.1918,1.2589,-0.5274,0.6769,-0.445,1.5008,-0.262
1.2481,-0.7729,0.2024,-0.9999,1.3485,-0.2884,1.0044,-0.5014,1.255,-0.1918,1.2686,-0.5198,0.7791,-0.4811,1.5418,-0.2439
1.2481,-0.7729,0.2024,-0.9999,1.3485,-0.2884,1.0044,-0.5014,1.255,-0.1918,1.2686,-0.5198,0.7791,-0.4811,1.5418,-0.2439
1.2573,-0.7609,0.2113,-0.9878,1.382,-0.2796,1.0201,-0.4979,1.3274,-0.2386,1.2931,-0.523,0.8123,-0.4545,1.5825,-0.2329
1.2573,-0.7609,0.2113,-0.9878,1.382,-0.2796,1.0201,-0.4979,1.3274,-0.2386,1.2931,-0.523,0.8123,-0.4545,1.5825,-0.2329
1.2573,-0.7609,0.2113,-0.9878,1.382,-0.2796,1.0201,-0.4979,1.3274,-0.2386,1.2931,-0.523,0.8123,-0.4545,1.5825,-0.2329
1.2665,-0.7489,0.2237,-0.9808,1.4169,-0.2775,1.0326,-0.4962,1.4602,-0.2855,1.303,-0.5265,0.7887,-0.4206,1.6153,-0.2336
1.2665,-0.7489,0.2237,-0.9808,1.4169,-0.2775,1.0326,-0.4962,1.4602,-0.2855,1.303,-0.5265,0.7887,-0.4206,1.6153,-0.2336
1.2665,-0.7489,0.2362,-0.9738,1.4487,-0.2805,1.0326,-0.4962,1.4552,-0.2201,1.303,-0.5265,0.8005,-0.4376,1.6443,-0.2366
1.2897,-0.7571,0.2292,-0.9637,1.4518,-0.2754,1.0322,-0.5021,1.448,-0.2388,1.328,-0.5518,0.7556,-0.4473,1.6371,-0.234
1.2897,-0.7571,0.2292,-0.9637,1.4518,-0.2754,1.0322,-0.5021,1.448,-0.2388,1.328,-0.5518,0.7556,-0.4473,1.6371,-0.234
1.2989,-0.7451,0.2292,-0.9637,1.4512,-0.2793,1.0466,-0.5163,1.3876,-0.2387,1.328,-0.5518,0.7514,-0.4968,1.622,-0.2432
1.2781,-0.753,0.2244,-0.9734,1.4275,-0.2833,1.0276,-0.5217,1.3804,-0.2573,1.323,-0.5446,0.7577,-0.5245,1.6101,-0.2572
1.2781,-0.753,0.2244,-0.9734,1.4275,-0.2833,1.0276,-0.5217,1.3804,-0.2573,1.323,-0.5446,0.7577,-0.5245,1.6101,-0.2572
1.2781,-0.753,0.2244,-0.9734,1.4275,-0.2833,1.0276,-0.5217,1.3804,-0.2573,1.323,-0.5446,0.7577,-0.5245,1.6101,-0.2572
1.2365,-0.7688,0.2266,-0.9932,1.3939,-0.2921,0.9993,-0.5269,1.3203,-0.2572,1.3083,-0.5449,0.798,-0.5641,1.5803,-0.2684
1.2365,-0.7688,0.2266,-0.9932,1.3939,-0.2921,0.9993,-0.5269,1.3203,-0.2572,1.3083,-0.5449,0.798,-0.5641,1.5803,-0.2684
1.2365,-0.7688,0.2266,-0.9932,1.3939,-0.2921,0.9993,-0.5269,1.3203,-0.2572,1.3083,-0.5449,0.798,-0.5641,1.5803,-0.2684
1.2227,-0.7868,0.2072,-0.9902,1.3629,-0.2997,0.9892,-0.5384,1.3662,-0.2945,1.2984,-0.5414,0.7684,-0.5028,1.5543,-0.2773
1.2227,-0.7868,0.2072,-0.9902,1.3629,-0.2997,0.9892,-0.5384,1.3662,-0.2945,1.2984,-0.5414,0.7684,-0.5028,1.5543,-0.2773
1.2066,-0.7887,0.1919,-0.9848,1.3431,-0.3092,0.9735,-0.542,1.4458,-0.3226,1.2885,-0.5379,0.7333,-0.4522,1.5392,-0.2864
1.2066,-0.7887,0.1919,-0.9848,1.3431,-0.3092,0.9735,-0.542,1.4458,-0.3226,1.2885,-0.5379,0.7333,-0.4522,1.5392,-0.2864
1.1929,-0.8066,0.1759,-0.9868,1.3302,-0.319,0.949,-0.5394,1.4142,-0.2481,1.2837,-0.5417,0.7045,-0.4292,1.5491,-0.3008
1.1929,-0.8066,0.1759,-0.9868,1.3302,-0.319,0.949,-0.5394,1.4142,-0.2481,1.2837,-0.5417,0.7045,-0.4292,1.5491,-0.3008
1.2414,-0.8389,0.1636,-0.9938,1.2974,-0.3238,0.9237,-0.5485,1.3804,-0.2573,1.2941,-0.5782,0.6663,-0.4668,1.4991,-0.2903
1.2414,-0.8389,0.1636,-0.9938,1.2974,-0.3238,0.9237,-0.5485,1.3804,-0.2573,1.2941,-0.5782,0.6663,-0.4668,1.4991,-0.2903
1.2414,-0.8389,0.1636,-0.9938,1.2974,-0.3238,0.9237,-0.5485,1.3804,-0.2573,1.2941,-0.5782,0.6663,-0.4668,1.4991,-0.2903
1.2321,-0.8129,0.1559,-0.9911,1.277,-0.3228,0.9325,-0.5547,1.3345,-0.2199,1.2889,-0.56,0.678,-0.4836,1.4812,-0.2876
1.2321,-0.8129,0.1559,-0.9911,1.277,-0.3228,0.9325,-0.5547,1.3345,-0.2199,1.2889,-0.56,0.678,-0.4836,1.4812,-0.2876
1.2205,-0.8088,0.1588,-1.0035,1.2506,-0.3319,0.9136,-0.5601,1.315,-0.1918,1.274,-0.5492,0.678,-0.4836,1.4492,-0.2799
1.1974,-0.8006,0.1623,-1.0085,1.2248,-0.3371,0.8892,-0.5575,1.2759,-0.1355,1.2738,-0.5382,0.7003,-0.4788,1.4309,-0.2842
1.1974,-0.8006,0.1623,-1.0085,1.2248,-0.3371,0.8892,-0.5575,1.2759,-0.1355,1.2738,-0.5382,0.7003,-0.4788,1.4309,-0.2842
1.1652,-0.8044,0.1435,-0.9981,1.1879,-0.3404,0.8732,-0.5668,1.329,-0.1543,1.2688,-0.5309,0.6704,-0.4172,1.4093,-0.2838
1.1652,-0.8044,0.1435,-0.9981,1.1879,-0.3404,0.8732,-0.5668,1.329,-0.1543,1.2688,-0.5309,0.6704,-0.4172,1.4093,-0.2838
1.1652,-0.8044,0.1435,-0.9981,1.1879,-0.3404,0.8732,-0.5668,1.329,-0.1543,1.2688,-0.5309,0.6704,-0.4172,1.4093,-0.2838
1.1376,-0.8023,0.1359,-0.9954,1.177,-0.3529,0.8457,-0.5662,1.3095,-0.126,1.2392,-0.5205,0.6587,-0.4003,1.4048,-0.3002
1.1376,-0.8023,0.1359,-0.9954,1.177,-0.3529,0.8457,-0.5662,1.3095,-0.126,1.2392,-0.5205,0.6587,-0.4003,1.4048,-0.3002
1.1125,-0.8161,0.1236,-1.0024,1.1576,-0.3623,0.821,-0.5694,1.2633,-0.0884,1.2248,-0.5318,0.6365,-0.4052,1.3898,-0.3093
1.1125,-0.8161,0.1236,-1.0024,1.1576,-0.3623,0.821,-0.5694,1.2633,-0.0884,1.2248,-0.5318,0.6365,-0.4052,1.3898,-0.3093
1.1194,-0.8261,0.1084,-0.9971,1.1245,-0.3567,0.8087,-0.5711,1.1896,-0.1263,1.2156,-0.5614,0.5582,-0.4031,1.3399,-0.306
1.1194,-0.8261,0.1084,-0.9971,1.1245,-0.3567,0.8087,-0.5711,1.1896,-0.1263,1.2156,-0.5614,0.5582,-0.4031,1.3399,-0.306
1.1379,-0.8402,0.0966,-0.9967,1.0933,-0.3538,0.8083,-0.5769,1.1953,-0.1919,1.216,-0.5834,0.5258,-0.4298,1.304,-0.3077
1.1379,-0.8402,0.0966,-0.9967,1.0933,-0.3538,0.8083,-0.5769,1.1953,-0.1919,1.216,-0.5834,0.5258,-0.4298,1.304,-0.3077
1.1056,-0.8061,0.0884,-1.0014,1.064,-0.3536,0.8138,-0.5849,1.1551,-0.2199,1.1866,-0.573,0.505,-0.4733,1.2749,-0.3188
1.1056,-0.8061,0.0884,-1.0014,1.064,-0.3536,0.8138,-0.5849,1.1551,-0.2199,1.1866,-0.573,0.505,-0.4733,1.2749,-0.3188
1.0756,-0.7879,0.0802,-1.0061,1.0343,-0.3573,0.7991,-0.5767,1.122,-0.2293,1.1622,-0.5698,0.5115,-0.5008,1.2462,-0.323
1.0756,-0.7879,0.0802,-1.0061,1.0343,-0.3573,0.7991,-0.5767,1.122,-0.2293,1.1622,-0.5698,0.5115,-0.5008,1.2462,-0.323
1.0756,-0.7879,0.0802,-1.0061,1.0343,-0.3573,0.7991,-0.5767,1.122,-0.2293,1.1622,-0.5698,0.5115,-0.5008,1.2462,-0.323
1.0551,-0.7958,0.072,-1.0108,0.9979,-0.3607,0.7754,-0.5683,1.1082,-0.2664,1.1429,-0.5739,0.5346,-0.5343,1.2106,-0.3247
1.0253,-0.7777,0.0609,-1.0031,0.964,-0.3629,0.7572,-0.5679,1.1868,-0.2942,1.1185,-0.5708,0.4947,-0.4949,1.1751,-0.3264
1.0253,-0.7777,0.0609,-1.0031,0.964,-0.3629,0.7572,-0.5679,1.1868,-0.2942,1.1185,-0.5708,0.4947,-0.4949,1.1751,-0.3264
1.0024,-0.7696,0.0458,-0.9977,0.943,-0.3697,0.7449,-0.5695,1.2393,-0.3127,1.1043,-0.582,0.4443,-0.4771,1.1567,-0.3377
1.0024,-0.7696,0.0458,-0.9977,0.943,-0.3697,0.7449,-0.5695,1.2393,-0.3127,1.1043,-0.582,0.4443,-0.4771,1.1567,-0.3377
0.9865,-0.7716,0.0417,-1,0.9207,-0.3699,0.7326,-0.5712,1.1883,-0.2106,1.0897,-0.5823,0.4108,-0.4653,1.1388,-0.3421
0.9865,-0.7716,0.0417,-1,0.9207,-0.3699,0.7326,-0.5712,1.1883,-0.2106,1.0897,-0.5823,0.4108,-0.4653,1.1388,-0.3421
1.0094,-0.7796,0.0231,-0.9897,0.8928,-0.362,0.7208,-0.567,1.122,-0.2293,1.1099,-0.622,0.3352,-0.5016,1.0893,-0.3459
1.0094,-0.7796,0.0231,-0.9897,0.8928,-0.362,0.7208,-0.567,1.122,-0.2293,1.1099,-0.622,0.3352,-0.5016,1.0893,-0.3459
1.0094,-0.7796,0.0039,-0.9867,0.8645,-0.3581,0.7236,-0.571,1.1082,-0.2664,1.1149,-0.6292,0.2867,-0.5221,1.0472,-0.3452
1.0094,-0.7796,0.0039,-0.9867,0.8645,-0.3581,0.7236,-0.571,1.1082,-0.2664,1.1149,-0.6292,0.2867,-0.5221,1.0472,-0.3452
0.9865,-0.7716,-0.02,-0.9934,0.8465,-0.3598,0.7236,-0.571,1.056,-0.2479,1.0805,-0.6008,0.26,-0.5377,1.019,-0.3494
0.9731,-0.7895,-0.0218,-1.0154,0.8531,-0.3601,0.7271,-0.5633,1.0423,-0.285,1.061,-0.5939,0.311,-0.5932,0.9944,-0.3513
0.9731,-0.7895,-0.0218,-1.0154,0.8531,-0.3601,0.7271,-0.5633,1.0423,-0.285,1.061,-0.5939,0.311,-0.5932,0.9944,-0.3513
0.9686,-0.7954,-0.0073,-1.0281,0.8981,-0.3558,0.7489,-0.556,1.0615,-0.3126,1.056,-0.5867,0.3493,-0.5942,1.0117,-0.3539
0.9686,-0.7954,-0.0073,-1.0281,0.8981,-0.3558,0.7489,-0.556,1.0615,-0.3126,1.056,-0.5867,0.3493,-0.5942,1.0117,-0.3539
0.9686,-0.7954,-0.0073,-1.0281,0.8981,-0.3558,0.7489,-0.556,1.0615,-0.3126,1.056,-0.5867,0.3493,-0.5942,1.0117,-0.3539
1.0142,-0.8116,0.0125,-1.0237,0.9758,-0.3428,0.7953,-0.5453,1.1467,-0.3218,1.0655,-0.5792,0.3685,-0.5133,1.0646,-0.3478
1.0142,-0.8116,0.0125,-1.0237,0.9758,-0.3428,0.7953,-0.5453,1.1467,-0.3218,1.0655,-0.5792,0.3685,-0.5133,1.0646,-0.3478
1.0506,-0.8018,0.0323,-1.0194,1.0832,-0.3299,0.8543,-0.5331,1.22,-0.2849,1.099,-0.5639,0.4211,-0.4436,1.1743,-0.3404
1.0506,-0.8018,0.0323,-1.0194,1.0832,-0.3299,0.8543,-0.5331,1.22,-0.2849,1.099,-0.5639,0.4211,-0.4436,1.1743,-0.3404
1.1056,-0.8061,0.0597,-1.0178,1.1894,-0.3144,0.9103,-0.5227,1.2286,-0.1825,1.1376,-0.5557,0.4804,-0.4011,1.3032,-0.3217
1.1056,-0.8061,0.0597,-1.0178,1.1894,-0.3144,0.9103,-0.5227,1.2286,-0.1825,1.1376,-0.5557,0.4804,-0.4011,1.3032,-0.3217
1.1767,-0.8085,0.072,-1.0108,1.281,-0.2955,0.9632,-0.5142,1.248,-0.2105,1.1914,-0.5692,0.5478,-0.4249,1.3799,-0.295
1.1767,-0.8085,0.072,-1.0108,1.281,-0.2955,0.9632,-0.5142,1.248,-0.2105,1.1914,-0.5692,0.5478,-0.4249,1.3799,-0.295
1.2273,-0.7808,0.0878,-1.0088,1.3614,-0.2786,1.022,-0.5137,1.2286,-0.1825,1.2252,-0.5539,0.6038,-0.4319,1.4567,-0.2753
1.2273,-0.7808,0.0878,-1.0088,1.3614,-0.2786,1.022,-0.5137,1.2286,-0.1825,1.2252,-0.5539,0.6038,-0.4319,1.4567,-0.2753
1.2273,-0.7808,0.0878,-1.0088,1.3614,-0.2786,1.022,-0.5137,1.2286,-0.1825,1.2252,-0.5539,0.6038,-0.4319,1.4567,-0.2753
1.2387,-0.7467,0.1065,-1.0191,1.4205,-0.2685,1.0568,-0.5047,1.216,-0.1356,1.2493,-0.535,0.6482,-0.4221,1.5263,-0.2602
1.2387,-0.7467,0.1065,-1.0191,1.4205,-0.2685,1.0568,-0.5047,1.216,-0.1356,1.2493,-0.535,0.6482,-0.4221,1.5263,-0.2602
1.2341,-0.7527,0.1397,-1.0422,1.4555,-0.2663,1.0666,-0.4991,1.2425,-0.145,1.2784,-0.5233,0.7674,-0.4642,1.5745,-0.2446
1.2411,-0.7628,0.1583,-1.0526,1.4856,-0.2666,1.0731,-0.4953,1.2494,-0.1261,1.3127,-0.5189,0.823,-0.4327,1.6224,-0.2361
1.2411,-0.7628,0.1583,-1.0526,1.4856,-0.2666,1.0731,-0.4953,1.2494,-0.1261,1.3127,-0.5189,0.823,-0.4327,1.6224,-0.2361
1.2527,-0.7669,0.1638,-1.0356,1.5132,-0.2681,1.0917,-0.4958,1.3627,-0.1448,1.3222,-0.5003,0.8326,-0.3718,1.6595,-0.2274
1.2527,-0.7669,0.1638,-1.0356,1.5132,-0.2681,1.0917,-0.4958,1.3627,-0.1448,1.3222,-0.5003,0.8326,-0.3718,1.6595,-0.2274
1.2551,-0.783,0.1444,-1.0326,1.5346,-0.2798,1.0852,-0.4996,1.4035,-0.1165,1.3171,-0.493,0.8315,-0.3327,1.7101,-0.238
1.2551,-0.783,0.1444,-1.0326,1.5346,-0.2798,1.0852,-0.4996,1.4035,-0.1165,1.3171,-0.493,0.8315,-0.3327,1.7101,-0.238
1.2459,-0.795,0.1362,-1.0372,1.5447,-0.2896,1.0726,-0.5012,1.3444,-0.0312,1.3222,-0.5003,0.8433,-0.3498,1.7317,-0.2456
1.2459,-0.795,0.1362,-1.0372,1.5447,-0.2896,1.0726,-0.5012,1.3444,-0.0312,1.3222,-0.5003,0.8433,-0.3498,1.7317,-0.2456
1.276,-0.8132,0.1204,-1.0392,1.5309,-0.2888,1.0689,-0.509,1.2771,-0.0504,1.3277,-0.5297,0.7758,-0.3646,1.7058,-0.2474
1.276,-0.8132,0.1204,-1.0392,1.5309,-0.2888,1.0689,-0.509,1.2771,-0.0504,1.3277,-0.5297,0.7758,-0.3646,1.7058,-0.2474
1.2992,-0.8214,0.1087,-1.0388,1.5077,-0.2889,1.0833,-0.5232,1.2229,-0.1168,1.323,-0.5446,0.7374,-0.4025,1.6796,-0.2563
1.2992,-0.8214,0.1087,-1.0388,1.5077,-0.2889,1.0833,-0.5232,1.2229,-0.1168,1.323,-0.5446,0.7374,-0.4025,1.6796,-0.2563
1.2783,-0.7912,0.1004,-1.0435,1.4795,-0.2914,1.0861,-0.5272,1.2022,-0.1732,1.3032,-0.5376,0.6927,-0.4123,1.65,-0.2604
1.2783,-0.7912,0.1004,-1.0435,1.4795,-0.2914,1.0861,-0.5272,1.2022,-0.1732,1.3032,-0.5376,0.6927,-0.4123,1.65,-0.2604
1.269,-0.8032,0.1143,-1.0635,1.4527,-0.3005,1.0735,-0.5289,1.1883,-0.2106,1.2835,-0.5306,0.7162,-0.4462,1.6206,-0.2645
1.269,-0.8032,0.1143,-1.0635,1.4527,-0.3005,1.0735,-0.5289,1.1883,-0.2106,1.2835,-0.5306,0.7162,-0.4462,1.6206,-0.2645
1.2529,-0.805,0.1102,-1.0658,1.4284,-0.3084,1.061,-0.5305,1.227,-0.2664,1.2787,-0.5344,0.7333,-0.4522,1.5983,-0.2711
1.2529,-0.805,0.1102,-1.0658,1.4284,-0.3084,1.061,-0.5305,1.227,-0.2664,1.2787,-0.5344,0.7333,-0.4522,1.5983,-0.2711
1.2529,-0.805,0.1102,-1.0658,1.4284,-0.3084,1.061,-0.5305,1.227,-0.2664,1.2787,-0.5344,0.7333,-0.4522,1.5983,-0.2711
1.2343,-0.7909,0.1108,-1.0585,1.4116,-0.3128,1.0489,-0.5262,1.3326,-0.3037,1.2639,-0.5347,0.7098,-0.4183,1.5831,-0.2803
1.2343,-0.7909,0.1108,-1.0585,1.4116,-0.3128,1.0489,-0.5262,1.3326,-0.3037,1.2639,-0.5347,0.7098,-0.4183,1.5831,-0.2803
1.2343,-0.7909,0.1039,-1.0485,1.3986,-0.3226,1.0243,-0.5236,1.3539,-0.2479,1.2497,-0.557,0.6482,-0.4221,1.5746,-0.299
1.2343,-0.7909,0.1039,-1.0485,1.3986,-0.3226,1.0243,-0.5236,1.3539,-0.2479,1.2497,-0.557,0.6482,-0.4221,1.5746,-0.299
1.2505,-0.789,0.0928,-1.0408,1.3805,-0.3203,1.0243,-0.5236,1.2939,-0.2478,1.2648,-0.5788,0.5986,-0.4428,1.5416,-0.3053
1.2505,-0.789,0.0928,-1.0408,1.3805,-0.3203,1.0243,-0.5236,1.2939,-0.2478,1.2648,-0.5788,0.5986,-0.4428,1.5416,-0.3053
1.2505,-0.789,0.0928,-1.0408,1.3805,-0.3203,1.0243,-0.5236,1.2939,-0.2478,1.2648,-0.5788,0.5986,-0.4428,1.5416,-0.3053
1.2435,-0.7789,0.0846,-1.0455,1.3638,-0.3247,1.0359,-0.5338,1.241,-0.2292,1.2547,-0.5643,0.5829,-0.4754,1.5053,-0.3069
1.2435,-0.7789,0.0846,-1.0455,1.3638,-0.3247,1.0359,-0.5338,1.241,-0.2292,1.2547,-0.5643,0.5829,-0.4754,1.5053,-0.3069
1.2435,-0.7789,0.0846,-1.0455,1.3638,-0.3247,1.0359,-0.5338,1.241,-0.2292,1.2547,-0.5643,0.5829,-0.4754,1.5053,-0.3069
1.1972,-0.7626,0.0758,-1.0574,1.3309,-0.3295,1.0206,-0.5314,1.1883,-0.2106,1.2399,-0.5536,0.623,-0.5149,1.4653,-0.3108
1.1674,-0.7824,0.078,-1.077,1.2914,-0.334,0.9868,-0.5285,1.1745,-0.2478,1.2252,-0.5539,0.697,-0.5664,1.4184,-0.3122
1.1674,-0.7824,0.078,-1.077,1.2914,-0.334,0.9868,-0.5285,1.1745,-0.2478,1.2252,-0.5539,0.697,-0.5664,1.4184,-0.3122
1.1261,-0.7982,0.0622,-1.079,1.2538,-0.3412,0.9711,-0.5321,1.22,-0.2849,1.2154,-0.5504,0.6844,-0.5113,1.3857,-0.3186
1.101,-0.812,0.0436,-1.0687,1.2231,-0.3487,0.9582,-0.5396,1.299,-0.3128,1.1859,-0.54,0.6324,-0.4548,1.3741,-0.3324
1.101,-0.812,0.0436,-1.0687,1.2231,-0.3487,0.9582,-0.5396,1.299,-0.3128,1.1859,-0.54,0.6324,-0.4548,1.3741,-0.3324
1.101,-0.812,0.0436,-1.0687,1.2231,-0.3487,0.9582,-0.5396,1.299,-0.3128,1.1859,-0.54,0.6324,-0.4548,1.3741,-0.3324
1.0805,-0.8199,0.0285,-1.0633,1.2078,-0.3597,0.9278,-0.5349,1.3203,-0.2572,1.1861,-0.551,0.6038,-0.4319,1.3732,-0.3464
1.0805,-0.8199,0.0285,-1.0633,1.2078,-0.3597,0.9278,-0.5349,1.3203,-0.2572,1.1861,-0.551,0.6038,-0.4319,1.3732,-0.3464
1.0805,-0.8199,0.0285,-1.0633,1.2078,-0.3597,0.9278,-0.5349,1.3203,-0.2572,1.1861,-0.551,0.6038,-0.4319,1.3732,-0.3464
1.0943,-0.8399,0.0134,-1.058,1.1845,-0.3637,0.9122,-0.5384,1.2355,-0.1637,1.1668,-0.5551,0.5647,-0.4309,1.3555,-0.3437
1.0943,-0.8399,0.0134,-1.058,1.1845,-0.3637,0.9122,-0.5384,1.2355,-0.1637,1.1668,-0.5551,0.5647,-0.4309,1.3555,-0.3437
1.1197,-0.8639,-0.0133,-1.0523,1.1533,-0.3608,0.8938,-0.538,1.248,-0.2105,1.1918,-0.5912,0.5102,-0.4624,1.3131,-0.3359
1.1197,-0.8639,-0.0133,-1.0523,1.1533,-0.3608,0.8938,-0.538,1.248,-0.2105,1.1918,-0.5912,0.5102,-0.4624,1.3131,-0.3359
1.1218,-0.842,-0.0173,-1.0547,1.1153,-0.3575,0.9021,-0.55,1.2147,-0.2199,1.1722,-0.5843,0.4611,-0.483,1.274,-0.3328
1.1218,-0.842,-0.0173,-1.0547,1.1153,-0.3575,0.9021,-0.55,1.2147,-0.2199,1.1722,-0.5843,0.4611,-0.483,1.274,-0.3328
1.1218,-0.842,-0.0173,-1.0547,1.1153,-0.3575,0.9021,-0.55,1.2147,-0.2199,1.1722,-0.5843,0.4611,-0.483,1.274,-0.3328
1.06,-0.8277,-0.0267,-1.0739,1.0356,-0.3639,0.8538,-0.5389,1.1551,-0.2199,1.1524,-0.5664,0.4843,-0.5165,1.2102,-0.3317
1.06,-0.8277,-0.0267,-1.0739,1.0356,-0.3639,0.8538,-0.5389,1.1551,-0.2199,1.1524,-0.5664,0.4843,-0.5165,1.2102,-0.3317
1.06,-0.8277,-0.0267,-1.0739,1.0356,-0.3639,0.8538,-0.5389,1.1551,-0.2199,1.1524,-0.5664,0.4843,-0.5165,1.2102,-0.3317
1.0326,-0.8256,-0.0302,-1.0689,1.0096,-0.373,0.8355,-0.5385,1.2077,-0.2385,1.1278,-0.5522,0.4663,-0.4722,1.1922,-0.336
0.9938,-0.8194,-0.0411,-1.0613,0.9928,-0.3812,0.814,-0.5399,1.2147,-0.2199,1.1083,-0.5453,0.4379,-0.4495,1.1881,-0.3453
0.9938,-0.8194,-0.0411,-1.0613,0.9928,-0.3812,0.814,-0.5399,1.2147,-0.2199,1.1083,-0.5453,0.4379,-0.4495,1.1881,-0.3453
0.978,-0.8213,-0.0602,-1.0583,0.9741,-0.3867,0.7894,-0.5432,1.1563,-0.1358,1.084,-0.5422,0.4379,-0.4495,1.1739,-0.3473
0.978,-0.8213,-0.0602,-1.0583,0.9741,-0.3867,0.7894,-0.5432,1.1563,-0.1358,1.084,-0.5422,0.4379,-0.4495,1.1739,-0.3473
0.9849,-0.8313,-0.0793,-1.0553,0.9432,-0.3839,0.7767,-0.5508,1.0571,-0.1642,1.0703,-0.5755,0.3672,-0.4751,1.1312,-0.3536
0.9849,-0.8313,-0.0793,-1.0553,0.9432,-0.3839,0.7767,-0.5508,1.0571,-0.1642,1.0703,-0.5755,0.3672,-0.4751,1.1312,-0.3536
0.978,-0.8213,-0.0943,-1.05,0.9148,-0.3799,0.779,-0.5606,1.0106,-0.2109,1.051,-0.5795,0.302,-0.4898,1.0853,-0.3551
0.978,-0.8213,-0.0943,-1.05,0.9148,-0.3799,0.779,-0.5606,1.0106,-0.2109,1.051,-0.5795,0.302,-0.4898,1.0853,-0.3551
0.978,-0.8213,-0.0943,-1.05,0.9148,-0.3799,0.779,-0.5606,1.0106,-0.2109,1.051,-0.5795,0.302,-0.4898,1.0853,-0.3551
0.978,-0.8213,-0.0943,-1.05,0.9148,-0.3799,0.779,-0.5606,1.0106,-0.2109,1.051,-0.5795,0.302,-0.4898,1.0853,-0.3551
0.9483,-0.8033,-0.0955,-1.0646,0.8997,-0.3766,0.7913,-0.5589,0.9643,-0.2574,1.0022,-0.5514,0.3033,-0.5279,1.0468,-0.3521
0.9483,-0.8033,-0.0955,-1.0646,0.8997,-0.3766,0.7913,-0.5589,0.9643,-0.2574,1.0022,-0.5514,0.3033,-0.5279,1.0468,-0.3521
0.9552,-0.8133,-0.0765,-1.0676,0.9435,-0.3658,0.8132,-0.5517,1.0095,-0.2942,1.0069,-0.5476,0.3519,-0.5074,1.0614,-0.3431
0.98,-0.7995,-0.0521,-1.0536,1.0281,-0.3531,0.8566,-0.5429,1.1397,-0.3403,1.0163,-0.5401,0.3825,-0.4426,1.1217,-0.3325
0.98,-0.7995,-0.0521,-1.0536,1.0281,-0.3531,0.8566,-0.5429,1.1397,-0.3403,1.0163,-0.5401,0.3825,-0.4426,1.1217,-0.3325
1.0049,-0.7856,-0.0051,-1.0477,1.1426,-0.3407,0.9126,-0.5325,1.1868,-0.2942,1.055,-0.5429,0.4365,-0.411,1.2282,-0.3273
1.0049,-0.7856,-0.0051,-1.0477,1.1426,-0.3407,0.9126,-0.5325,1.1868,-0.2942,1.055,-0.5429,0.4365,-0.411,1.2282,-0.3273
1.0049,-0.7856,-0.0051,-1.0477,1.1426,-0.3407,0.9126,-0.5325,1.1868,-0.2942,1.055,-0.5429,0.4365,-0.411,1.2282,-0.3273
1.0642,-0.7839,0.0345,-1.0391,1.2504,-0.3175,0.966,-0.5182,1.1814,-0.2292,1.1135,-0.5635,0.4921,-0.4179,1.3395,-0.313
1.0642,-0.7839,0.0345,-1.0391,1.2504,-0.3175,0.966,-0.5182,1.1814,-0.2292,1.1135,-0.5635,0.4921,-0.4179,1.3395,-0.313
1.1583,-0.7944,0.0701,-1.0328,1.3473,-0.2963,1.0197,-0.5038,1.1675,-0.2664,1.1674,-0.588,0.5206,-0.4407,1.4127,-0.2886
1.2251,-0.8028,0.0941,-1.0261,1.4281,-0.2794,1.0847,-0.5055,1.1675,-0.2664,1.1964,-0.5765,0.5829,-0.4754,1.4891,-0.276
1.2251,-0.8028,0.0941,-1.0261,1.4281,-0.2794,1.0847,-0.5055,1.1675,-0.2664,1.1964,-0.5765,0.5829,-0.4754,1.4891,-0.276
1.2251,-0.8028,0.0941,-1.0261,1.4281,-0.2794,1.0847,-0.5055,1.1675,-0.2664,1.1964,-0.5765,0.5829,-0.4754,1.4891,-0.276
1.2435,-0.7789,0.1023,-1.0215,1.5076,-0.2744,1.129,-0.4968,1.1745,-0.2478,1.2154,-0.5504,0.6336,-0.4933,1.5585,-0.2679
1.2435,-0.7789,0.1023,-1.0215,1.5076,-0.2744,1.129,-0.4968,1.1745,-0.2478,1.2154,-0.5504,0.6336,-0.4933,1.5585,-0.2679
1.2435,-0.7789,0.1023,-1.0215,1.5076,-0.2744,1.129,-0.4968,1.1745,-0.2478,1.2154,-0.5504,0.6336,-0.4933,1.5585,-0.2679
1.2435,-0.7789,0.1432,-1.0472,1.5547,-0.2703,1.1454,-0.4873,1.1745,-0.2478,1.22,-0.5356,0.7353,-0.5293,1.6206,-0.2645
1.2435,-0.7789,0.159,-1.0453,1.5919,-0.271,1.1706,-0.484,1.227,-0.2664,1.2442,-0.5277,0.7738,-0.492,1.6758,-0.2586
1.2435,-0.7789,0.159,-1.0453,1.5919,-0.271,1.1706,-0.484,1.227,-0.2664,1.2442,-0.5277,0.7738,-0.492,1.6758,-0.2586
1.2435,-0.7789,0.1562,-1.0329,1.6197,-0.2725,1.1865,-0.4805,1.3468,-0.2665,1.2587,-0.5164,0.7834,-0.4315,1.7312,-0.2527
1.2435,-0.7789,0.1562,-1.0329,1.6197,-0.2725,1.1865,-0.4805,1.3468,-0.2665,1.2587,-0.5164,0.7834,-0.4315,1.7312,-0.2527
1.2389,-0.7849,0.1638,-1.0356,1.6438,-0.2831,1.1931,-0.4767,1.3415,-0.2012,1.2734,-0.5161,0.7823,-0.3926,1.8012,-0.2519
1.2389,-0.7849,0.1638,-1.0356,1.6438,-0.2831,1.1931,-0.4767,1.3415,-0.2012,1.2734,-0.5161,0.7823,-0.3926,1.8012,-0.2519
1.269,-0.8032,0.1562,-1.0329,1.6457,-0.2858,1.1964,-0.4748,1.322,-0.1731,1.2984,-0.5414,0.777,-0.4036,1.8243,-0.2381
1.269,-0.8032,0.1562,-1.0329,1.6457,-0.2858,1.1964,-0.4748,1.322,-0.1731,1.2984,-0.5414,0.777,-0.4036,1.8243,-0.2381
1.269,-0.8032,0.1562,-1.0329,1.6457,-0.2858,1.1964,-0.4748,1.322,-0.1731,1.2984,-0.5414,0.777,-0.4036,1.8243,-0.2381
1.269,-0.8032,0.1562,-1.0329,1.6457,-0.2858,1.1964,-0.4748,1.322,-0.1731,1.2984,-0.5414,0.777,-0.4036,1.8243,-0.2381
1.2621,-0.7931,0.1397,-1.0422,1.6084,-0.2997,1.2015,-0.4888,1.2955,-0.1637,1.2982,-0.5303,0.7727,-0.4533,1.8253,-0.2238
1.2621,-0.7931,0.1397,-1.0422,1.6084,-0.2997,1.2015,-0.4888,1.2955,-0.1637,1.2982,-0.5303,0.7727,-0.4533,1.8253,-0.2238
1.2321,-0.8129,0.1418,-1.0619,1.5713,-0.3135,1.1673,-0.4859,1.269,-0.1543,1.303,-0.5265,0.8015,-0.4763,1.8109,-0.2187
1.2321,-0.8129,0.1418,-1.0619,1.5713,-0.3135,1.1673,-0.4859,1.269,-0.1543,1.303,-0.5265,0.8015,-0.4763,1.8109,-0.2187
1.2183,-0.8308,0.1336,-1.0665,1.5374,-0.3222,1.1416,-0.4951,1.216,-0.1356,1.3228,-0.5335,0.8186,-0.4823,1.796,-0.2208
1.2183,-0.8308,0.1336,-1.0665,1.5374,-0.3222,1.1416,-0.4951,1.216,-0.1356,1.3228,-0.5335,0.8186,-0.4823,1.796,-0.2208
1.2022,-0.8326,0.1267,-1.0565,1.5148,-0.3328,1.128,-0.5086,1.315,-0.1918,1.3129,-0.53,0.7716,-0.4146,1.7772,-0.2252
1.2022,-0.8326,0.1267,-1.0565,1.5148,-0.3328,1.128,-0.5086,1.315,-0.1918,1.3129,-0.53,0.7716,-0.4146,1.7772,-0.2252
1.1861,-0.8345,0.1156,-1.0488,1.5017,-0.3426,1.0996,-0.5138,1.4213,-0.2294,1.3079,-0.5227,0.7652,-0.3866,1.7834,-0.242
1.1861,-0.8345,0.1156,-1.0488,1.5017,-0.3426,1.0996,-0.5138,1.4213,-0.2294,1.3079,-0.5227,0.7652,-0.3866,1.7834,-0.242
1.17,-0.8364,0.1121,-1.0438,1.4999,-0.3543,1.0828,-0.5291,1.3823,-0.1731,1.2883,-0.5268,0.7652,-0.3866,1.7786,-0.2585
1.17,-0.8364,0.1121,-1.0438,1.4999,-0.3543,1.0828,-0.5291,1.3823,-0.1731,1.2883,-0.5268,0.7652,-0.3866,1.7786,-0.2585
1.1885,-0.8505,0.1128,-1.0365,1.4792,-0.3531,1.0605,-0.5364,1.315,-0.1918,1.2839,-0.5527,0.7374,-0.4025,1.7379,-0.2623
1.1885,-0.8505,0.1128,-1.0365,1.4792,-0.3531,1.0605,-0.5364,1.315,-0.1918,1.2839,-0.5527,0.7374,-0.4025,1.7379,-0.2623
1.1907,-0.8286,0.1134,-1.0292,1.4611,-0.3508,1.0596,-0.5482,1.2744,-0.2199,1.2742,-0.5602,0.698,-0.4014,1.7077,-0.2735
1.1791,-0.8245,0.121,-1.0318,1.4349,-0.356,1.0406,-0.5536,1.234,-0.2478,1.2399,-0.5536,0.6704,-0.4172,1.6667,-0.2844
1.1791,-0.8245,0.121,-1.0318,1.4349,-0.356,1.0406,-0.5536,1.234,-0.2478,1.2399,-0.5536,0.6704,-0.4172,1.6667,-0.2844
1.163,-0.8264,0.1286,-1.0345,1.4044,-0.3596,1.0216,-0.559,1.1938,-0.2756,1.2154,-0.5504,0.6939,-0.451,1.6258,-0.2953
1.163,-0.8264,0.1286,-1.0345,1.4044,-0.3596,1.0216,-0.559,1.1938,-0.2756,1.2154,-0.5504,0.6939,-0.451,1.6258,-0.2953
1.163,-0.8264,0.1286,-1.0345,1.4044,-0.3596,1.0216,-0.559,1.1938,-0.2756,1.2154,-0.5504,0.6939,-0.451,1.6258,-0.2953
1.1331,-0.8082,0.1293,-1.0272,1.3759,-0.3659,1.0026,-0.5643,1.2727,-0.3035,1.2058,-0.5579,0.6822,-0.4341,1.578,-0.3037
1.1331,-0.8082,0.1293,-1.0272,1.3759,-0.3659,1.0026,-0.5643,1.2727,-0.3035,1.2058,-0.5579,0.6822,-0.4341,1.578,-0.3037
1.1101,-0.8001,0.1334,-1.0249,1.3629,-0.3756,0.9809,-0.5657,1.2604,-0.2571,1.1814,-0.5548,0.6482,-0.4221,1.5515,-0.3196
1.1101,-0.8001,0.1334,-1.0249,1.3629,-0.3756,0.9809,-0.5657,1.2604,-0.2571,1.1814,-0.5548,0.6482,-0.4221,1.5515,-0.3196
1.1056,-0.8061,0.1375,-1.0225,1.3413,-0.3823,0.9592,-0.5671,1.2091,-0.1544,1.1768,-0.5695,0.6429,-0.433,1.5185,-0.326
1.1056,-0.8061,0.1375,-1.0225,1.3413,-0.3823,0.9592,-0.5671,1.2091,-0.1544,1.1768,-0.5695,0.6429,-0.433,1.5185,-0.326
1.1125,-0.8161,0.134,-1.0175,1.3078,-0.3766,0.9435,-0.5706,1.1689,-0.1826,1.187,-0.595,0.5764,-0.4477,1.4639,-0.3319
1.1125,-0.8161,0.134,-1.0175,1.3078,-0.3766,0.9435,-0.5706,1.1689,-0.1826,1.187,-0.595,0.5764,-0.4477,1.4639,-0.3319
1.1309,-0.8301,0.1229,-1.0098,1.2757,-0.3775,0.9458,-0.5805,1.1357,-0.192,1.1822,-0.5987,0.5439,-0.4743,1.4166,-0.3403
1.1309,-0.8301,0.1229,-1.0098,1.2757,-0.3775,0.9458,-0.5805,1.1357,-0.192,1.1822,-0.5987,0.5439,-0.4743,1.4166,-0.3403
1.1309,-0.8301,0.1229,-1.0098,1.2757,-0.3775,0.9458,-0.5805,1.1357,-0.192,1.1822,-0.5987,0.5439,-0.4743,1.4166,-0.3403
1.108,-0.822,0.1112,-1.0095,1.2499,-0.3827,0.9394,-0.5842,1.1289,-0.2106,1.1576,-0.5846,0.5283,-0.5068,1.3802,-0.3489
1.108,-0.822,0.1112,-1.0095,1.2499,-0.3827,0.9394,-0.5842,1.1289,-0.2106,1.1576,-0.5846,0.5283,-0.5068,1.3802,-0.3489
1.0829,-0.8358,0.1099,-1.0242,1.2087,-0.3844,0.909,-0.5795,1.122,-0.2293,1.1381,-0.5777,0.5683,-0.5461,1.3402,-0.3598
1.0509,-0.8396,0.1128,-1.0365,1.1719,-0.3877,0.8934,-0.583,1.0889,-0.2386,1.1235,-0.578,0.5683,-0.5461,1.297,-0.3659
1.0509,-0.8396,0.1128,-1.0365,1.1719,-0.3877,0.8934,-0.583,1.0889,-0.2386,1.1235,-0.578,0.5683,-0.5461,1.297,-0.3659
1.0191,-0.8434,0.09,-1.0285,1.1371,-0.3937,0.8778,-0.5865,1.1938,-0.2756,1.109,-0.5783,0.505,-0.4733,1.2683,-0.37
1.0191,-0.8434,0.09,-1.0285,1.1371,-0.3937,0.8778,-0.5865,1.1938,-0.2756,1.109,-0.5783,0.505,-0.4733,1.2683,-0.37
1.0077,-0.8394,0.0748,-1.0231,1.1201,-0.4019,0.8627,-0.5842,1.227,-0.2664,1.1043,-0.582,0.4766,-0.4505,1.2605,-0.3815
1.0077,-0.8394,0.0748,-1.0231,1.1201,-0.4019,0.8627,-0.5842,1.227,-0.2664,1.1043,-0.582,0.4766,-0.4505,1.2605,-0.3815
1.0077,-0.8394,0.0748,-1.0231,1.1201,-0.4019,0.8627,-0.5842,1.227,-0.2664,1.1043,-0.582,0.4766,-0.4505,1.2605,-0.3815
0.9873,-0.8472,0.0521,-1.0151,1.1093,-0.4143,0.8384,-0.5816,1.1563,-0.1358,1.085,-0.5861,0.443,-0.4387,1.2355,-0.3833
1.0056,-0.8612,0.0405,-1.0147,1.0825,-0.4129,0.8202,-0.5811,1.0571,-0.1642,1.0807,-0.6117,0.4057,-0.4761,1.1898,-0.3778
1.0056,-0.8612,0.0405,-1.0147,1.0825,-0.4129,0.8202,-0.5811,1.0571,-0.1642,1.0807,-0.6117,0.4057,-0.4761,1.1898,-0.3778
1.0215,-0.8593,0.0288,-1.0144,1.0472,-0.4085,0.8197,-0.587,1.0367,-0.2202,1.0762,-0.6264,0.3685,-0.5133,1.1474,-0.3771
0.9873,-0.8472,0.0125,-1.0237,1.0108,-0.4118,0.8074,-0.5886,0.9913,-0.1831,1.0615,-0.6158,0.3532,-0.5456,1.1121,-0.3788
0.9873,-0.8472,0.0125,-1.0237,1.0108,-0.4118,0.8074,-0.5886,0.9913,-0.1831,1.0615,-0.6158,0.3532,-0.5456,1.1121,-0.3788
0.9556,-0.851,0.0106,-1.0457,0.9655,-0.416,0.7769,-0.5898,0.9653,-0.1739,1.0468,-0.6052,0.3813,-0.568,1.0805,-0.3782
0.9556,-0.851,0.0106,-1.0457,0.9655,-0.416,0.7769,-0.5898,0.9653,-0.1739,1.0468,-0.6052,0.3813,-0.568,1.0805,-0.3782
0.9556,-0.851,0.0106,-1.0457,0.9655,-0.416,0.7769,-0.5898,0.9653,-0.1739,1.0468,-0.6052,0.3813,-0.568,1.0805,-0.3782
0.9308,-0.8647,0.0059,-1.0553,0.9293,-0.4193,0.7468,-0.5852,0.9392,-0.1647,1.0565,-0.6086,0.3749,-0.5407,1.0595,-0.3778
0.9308,-0.8647,0.0059,-1.0553,0.9293,-0.4193,0.7468,-0.5852,0.9392,-0.1647,1.0565,-0.6086,0.3749,-0.5407,1.0595,-0.3778
0.915,-0.8666,-0.0086,-1.0427,0.9227,-0.419,0.7377,-0.585,1.0174,-0.1923,1.0269,-0.5764,0.3172,-0.4574,1.0421,-0.3752
0.915,-0.8666,-0.0086,-1.0427,0.9227,-0.419,0.7377,-0.585,1.0174,-0.1923,1.0269,-0.5764,0.3172,-0.4574,1.0421,-0.3752
0.9126,-0.8508,-0.0033,-1.0257,0.9636,-0.4133,0.7591,-0.5835,1.122,-0.2293,1.0119,-0.5548,0.3041,-0.4023,1.07,-0.378
0.9126,-0.8508,-0.0033,-1.0257,0.9636,-0.4133,0.7591,-0.5835,1.122,-0.2293,1.0119,-0.5548,0.3041,-0.4023,1.07,-0.378
0.9397,-0.8529,0.0131,-1.0164,1.0477,-0.4046,0.7932,-0.5746,1.0969,-0.136,1.0069,-0.5476,0.381,-0.4041,1.13,-0.3744
0.9397,-0.8529,0.0131,-1.0164,1.0477,-0.4046,0.7932,-0.5746,1.0969,-0.136,1.0069,-0.5476,0.381,-0.4041,1.13,-0.3744
0.9987,-0.8512,0.0446,-1.0124,1.1456,-0.3824,0.8485,-0.5701,1.0377,-0.1362,1.0266,-0.5655,0.4313,-0.4219,1.191,-0.3569
0.9987,-0.8512,0.0446,-1.0124,1.1456,-0.3824,0.8485,-0.5701,1.0377,-0.1362,1.0266,-0.5655,0.4313,-0.4219,1.191,-0.3569
1.0784,-0.8417,0.0802,-1.0061,1.2509,-0.3606,0.9224,-0.5662,1.0309,-0.1549,1.0655,-0.5792,0.4584,-0.406,1.2913,-0.3425
1.0784,-0.8417,0.0802,-1.0061,1.2509,-0.3606,0.9224,-0.5662,1.0309,-0.1549,1.0655,-0.5792,0.4584,-0.406,1.2913,-0.3425
1.1101,-0.8001,0.1194,-1.0048,1.3428,-0.3419,0.9846,-0.558,1.0435,-0.2015,1.0845,-0.5642,0.5141,-0.413,1.3993,-0.3306
1.1101,-0.8001,0.1194,-1.0048,1.3428,-0.3419,0.9846,-0.558,1.0435,-0.2015,1.0845,-0.5642,0.5141,-0.413,1.3993,-0.3306
1.1376,-0.8023,0.1616,-1.0159,1.4229,-0.3291,1.0225,-0.5472,1.0435,-0.2015,1.1231,-0.556,0.6377,-0.4439,1.4907,-0.309
1.1376,-0.8023,0.1616,-1.0159,1.4229,-0.3291,1.0225,-0.5472,1.0435,-0.2015,1.1231,-0.556,0.6377,-0.4439,1.4907,-0.309
1.1376,-0.8023,0.1616,-1.0159,1.4229,-0.3291,1.0225,-0.5472,1.0435,-0.2015,1.1231,-0.556,0.6377,-0.4439,1.4907,-0.309
1.1698,-0.7985,0.1858,-1.0092,1.4891,-0.3195,1.0573,-0.5383,1.122,-0.2293,1.157,-0.5516,0.7045,-0.4292,1.5571,-0.2892
1.1698,-0.7985,0.1858,-1.0092,1.4891,-0.3195,1.0573,-0.5383,1.122,-0.2293,1.157,-0.5516,0.7045,-0.4292,1.5571,-0.2892
1.1698,-0.7985,0.1858,-1.0092,1.4891,-0.3195,1.0573,-0.5383,1.122,-0.2293,1.157,-0.5516,0.7045,-0.4292,1.5571,-0.2892
1.1835,-0.7805,0.2065,-0.9976,1.5587,-0.3194,1.0917,-0.5353,1.234,-0.2478,1.1763,-0.5475,0.7086,-0.3794,1.6339,-0.2837
1.1996,-0.7786,0.2342,-0.9959,1.6148,-0.3185,1.114,-0.528,1.255,-0.1918,1.1957,-0.5434,0.7362,-0.3635,1.7034,-0.2829
1.1996,-0.7786,0.2342,-0.9959,1.6148,-0.3185,1.114,-0.528,1.255,-0.1918,1.1957,-0.5434,0.7362,-0.3635,1.7034,-0.2829
1.2319,-0.7748,0.2432,-0.9839,1.6533,-0.3114,1.136,-0.5266,1.2216,-0.2012,1.2256,-0.5759,0.7204,-0.3964,1.7297,-0.274
1.2597,-0.777,0.2474,-0.9815,1.6704,-0.307,1.1696,-0.5355,1.1814,-0.2292,1.2453,-0.5828,0.7215,-0.4353,1.7407,-0.2743
1.2597,-0.777,0.2474,-0.9815,1.6704,-0.307,1.1696,-0.5355,1.1814,-0.2292,1.2453,-0.5828,0.7215,-0.4353,1.7407,-0.2743
1.2341,-0.7527,0.2509,-0.9866,1.6723,-0.3098,1.1789,-0.5357,1.1814,-0.2292,1.2499,-0.5681,0.7333,-0.4522,1.7517,-0.2745
1.2341,-0.7527,0.2509,-0.9866,1.6723,-0.3098,1.1789,-0.5357,1.1814,-0.2292,1.2499,-0.5681,0.7333,-0.4522,1.7517,-0.2745
1.2042,-0.7726,0.2531,-1.0064,1.6458,-0.3149,1.1542,-0.5331,1.1675,-0.2664,1.2401,-0.5646,0.7855,-0.5089,1.7297,-0.274
1.2042,-0.7726,0.2531,-1.0064,1.6458,-0.3149,1.1542,-0.5331,1.1675,-0.2664,1.2401,-0.5646,0.7855,-0.5089,1.7297,-0.274
1.2042,-0.7726,0.2531,-1.0064,1.6458,-0.3149,1.1542,-0.5331,1.1675,-0.2664,1.2401,-0.5646,0.7855,-0.5089,1.7297,-0.274
1.1835,-0.7805,0.2412,-1.006,1.6186,-0.324,1.1383,-0.5366,1.1675,-0.2664,1.2401,-0.5646,0.7845,-0.4703,1.7144,-0.2831
1.1835,-0.7805,0.2412,-1.006,1.6186,-0.324,1.1383,-0.5366,1.1675,-0.2664,1.2401,-0.5646,0.7845,-0.4703,1.7144,-0.2831
1.1674,-0.7824,0.2412,-1.006,1.594,-0.3318,1.1345,-0.5443,1.3061,-0.2943,1.2351,-0.5573,0.7545,-0.4085,1.7029,-0.29
1.1674,-0.7824,0.2412,-1.006,1.594,-0.3318,1.1345,-0.5443,1.3061,-0.2943,1.2351,-0.5573,0.7545,-0.4085,1.7029,-0.29
1.1467,-0.7903,0.2218,-1.003,1.5758,-0.344,1.1126,-0.5457,1.315,-0.1918,1.2302,-0.5611,0.7309,-0.3745,1.7129,-0.3044
1.1467,-0.7903,0.2218,-1.003,1.5758,-0.344,1.1126,-0.5457,1.315,-0.1918,1.2302,-0.5611,0.7309,-0.3745,1.7129,-0.3044
1.1467,-0.7903,0.2218,-1.003,1.5758,-0.344,1.1126,-0.5457,1.315,-0.1918,1.2302,-0.5611,0.7309,-0.3745,1.7129,-0.3044
1.1722,-0.8145,0.2065,-0.9976,1.5563,-0.3495,1.094,-0.5452,1.262,-0.1731,1.2355,-0.5793,0.7033,-0.3904,1.691,-0.3039
1.1722,-0.8145,0.2065,-0.9976,1.5563,-0.3495,1.094,-0.5452,1.262,-0.1731,1.2355,-0.5793,0.7033,-0.3904,1.691,-0.3039
1.1789,-0.7865,0.1864,-1.0019,1.5156,-0.3578,1.1018,-0.5631,1.1827,-0.1451,1.2403,-0.5756,0.6886,-0.4619,1.6401,-0.3004
1.1789,-0.7865,0.1864,-1.0019,1.5156,-0.3578,1.1018,-0.5631,1.1827,-0.1451,1.2403,-0.5756,0.6886,-0.4619,1.6401,-0.3004
1.1698,-0.7985,0.1962,-1.0243,1.4868,-0.364,1.0772,-0.5605,1.1495,-0.1545,1.2254,-0.5649,0.729,-0.5016,1.6216,-0.3047
1.1698,-0.7985,0.1962,-1.0243,1.4868,-0.364,1.0772,-0.5605,1.1495,-0.1545,1.2254,-0.5649,0.729,-0.5016,1.6216,-0.3047
1.1446,-0.8123,0.188,-1.029,1.4556,-0.3715,1.0494,-0.5597,1.13,-0.1265,1.2401,-0.5646,0.7738,-0.492,1.614,-0.3092
1.1446,-0.8123,0.188,-1.029,1.4556,-0.3715,1.0494,-0.5597,1.13,-0.1265,1.2401,-0.5646,0.7738,-0.492,1.614,-0.3092
1.1171,-0.8101,0.1686,-1.0259,1.4332,-0.382,1.0216,-0.559,1.1896,-0.1263,1.2202,-0.5466,0.7492,-0.4194,1.6097,-0.3186
1.1171,-0.8101,0.1686,-1.0259,1.4332,-0.382,1.0216,-0.559,1.1896,-0.1263,1.2202,-0.5466,0.7492,-0.4194,1.6097,-0.3186
1.1171,-0.8101,0.1686,-1.0259,1.4332,-0.382,1.0216,-0.559,1.1896,-0.1263,1.2202,-0.5466,0.7492,-0.4194,1.6097,-0.3186
1.0989,-0.8339,0.1492,-1.0229,1.4196,-0.3957,0.9933,-0.5641,1.2425,-0.145,1.2056,-0.5469,0.7257,-0.3855,1.6158,-0.3352
1.0989,-0.8339,0.1492,-1.0229,1.4196,-0.3957,0.9933,-0.5641,1.2425,-0.145,1.2056,-0.5469,0.7257,-0.3855,1.6158,-0.3352
1.0898,-0.8458,0.1334,-1.0249,1.396,-0.3996,0.9712,-0.5714,1.1896,-0.1263,1.1912,-0.5582,0.6863,-0.3844,1.5832,-0.3344
1.0898,-0.8458,0.1334,-1.0249,1.396,-0.3996,0.9712,-0.5714,1.1896,-0.1263,1.1912,-0.5582,0.6863,-0.3844,1.5832,-0.3344
1.1197,-0.8639,0.1182,-1.0195,1.3643,-0.3966,0.961,-0.5828,1.1095,-0.1827,1.1772,-0.5915,0.6025,-0.3932,1.5289,-0.3333
1.1197,-0.8639,0.1182,-1.0195,1.3643,-0.3966,0.961,-0.5828,1.1095,-0.1827,1.1772,-0.5915,0.6025,-0.3932,1.5289,-0.3333
1.1197,-0.8639,0.1182,-1.0195,1.3643,-0.3966,0.961,-0.5828,1.1095,-0.1827,1.1772,-0.5915,0.6025,-0.3932,1.5289,-0.3333
1.1197,-0.8639,0.1182,-1.0195,1.3643,-0.3966,0.961,-0.5828,1.1095,-0.1827,1.1772,-0.5915,0.6025,-0.3932,1.5289,-0.3333
1.092,-0.8239,0.0982,-1.0238,1.3043,-0.3999,0.9541,-0.5924,1.0231,-0.2573,1.1285,-0.5852,0.5206,-0.4407,1.456,-0.3434
1.092,-0.8239,0.0982,-1.0238,1.3043,-0.3999,0.9541,-0.5924,1.0231,-0.2573,1.1285,-0.5852,0.5206,-0.4407,1.456,-0.3434
1.092,-0.8239,0.0982,-1.0238,1.3043,-0.3999,0.9541,-0.5924,1.0231,-0.2573,1.1285,-0.5852,0.5206,-0.4407,1.456,-0.3434
1.0485,-0.8237,0.1121,-1.0438,1.2624,-0.4054,0.9205,-0.5896,1.0163,-0.2758,1.1043,-0.582,0.5322,-0.4575,1.4063,-0.333
1.0395,-0.8356,0.108,-1.0462,1.2298,-0.4102,0.8994,-0.5851,1.0683,-0.2942,1.0848,-0.5751,0.5374,-0.4467,1.3671,-0.3299
1.0395,-0.8356,0.108,-1.0462,1.2298,-0.4102,0.8994,-0.5851,1.0683,-0.2942,1.0848,-0.5751,0.5374,-0.4467,1.3671,-0.3299
0.9983,-0.8135,0.0935,-1.0335,1.2041,-0.4153,0.8838,-0.5886,1.1536,-0.3034,1.08,-0.5789,0.5024,-0.3961,1.3382,-0.3341
0.9755,-0.8054,0.0824,-1.0258,1.1876,-0.4196,0.8655,-0.5882,1.1675,-0.2664,1.0657,-0.5902,0.4687,-0.3842,1.3266,-0.3478
0.9755,-0.8054,0.0824,-1.0258,1.1876,-0.4196,0.8655,-0.5882,1.1675,-0.2664,1.0657,-0.5902,0.4687,-0.3842,1.3266,-0.3478
0.9755,-0.8054,0.0824,-1.0258,1.1876,-0.4196,0.8655,-0.5882,1.1675,-0.2664,1.0657,-0.5902,0.4687,-0.3842,1.3266,-0.3478
0.971,-0.8114,0.0824,-1.0258,1.1778,-0.4243,0.8472,-0.5877,1.1095,-0.1827,1.0662,-0.612,0.4299,-0.3832,1.3048,-0.3544
0.971,-0.8114,0.0824,-1.0258,1.1778,-0.4243,0.8472,-0.5877,1.1095,-0.1827,1.0662,-0.612,0.4299,-0.3832,1.3048,-0.3544
0.971,-0.8114,0.0824,-1.0258,1.1778,-0.4243,0.8472,-0.5877,1.1095,-0.1827,1.0662,-0.612,0.4299,-0.3832,1.3048,-0.3544
0.9824,-0.8154,0.0568,-1.0054,1.1343,-0.413,0.8527,-0.5956,1.0038,-0.2295,1.0622,-0.6485,0.3621,-0.4859,1.2224,-0.3645
0.9824,-0.8154,0.0568,-1.0054,1.1343,-0.413,0.8527,-0.5956,1.0038,-0.2295,1.0622,-0.6485,0.3621,-0.4859,1.2224,-0.3645
0.9597,-0.8073,0.0294,-1.0071,1.1069,-0.4154,0.8376,-0.5933,0.9903,-0.2666,1.0378,-0.6344,0.3749,-0.5407,1.1833,-0.3684
0.9597,-0.8073,0.0294,-1.0071,1.1069,-0.4154,0.8376,-0.5933,0.9903,-0.2666,1.0378,-0.6344,0.3749,-0.5407,1.1833,-0.3684
0.9235,-0.8171,0.0282,-1.0217,1.0709,-0.4149,0.8225,-0.591,0.9508,-0.2944,1.0087,-0.6242,0.4095,-0.5905,1.1405,-0.3746
0.9235,-0.8171,0.0282,-1.0217,1.0709,-0.4149,0.8225,-0.591,0.9508,-0.2944,1.0087,-0.6242,0.4095,-0.5905,1.1405,-0.3746
0.8988,-0.8309,0.0049,-1.0211,1.0345,-0.4182,0.8102,-0.5926,0.9767,-0.3035,0.9893,-0.6173,0.3749,-0.5407,1.1085,-0.381
0.8988,-0.8309,0.0049,-1.0211,1.0345,-0.4182,0.8102,-0.5926,0.9767,-0.3035,0.9893,-0.6173,0.3749,-0.5407,1.1085,-0.381
0.883,-0.8329,-0.0067,-1.0207,1.014,-0.421,0.8042,-0.5905,1.0997,-0.3678,0.97,-0.6105,0.3352,-0.5016,1.1008,-0.3924
0.883,-0.8329,-0.0102,-1.0157,1.0316,-0.4232,0.8078,-0.5828,1.0821,-0.2572,0.97,-0.6105,0.3288,-0.4741,1.1215,-0.3997
0.883,-0.8329,-0.0102,-1.0157,1.0316,-0.4232,0.8078,-0.5828,1.0821,-0.2572,0.97,-0.6105,0.3288,-0.4741,1.1215,-0.3997
0.883,-0.8329,-0.0102,-1.0157,1.0316,-0.4232,0.8078,-0.5828,1.0821,-0.2572,0.97,-0.6105,0.3288,-0.4741,1.1215,-0.3997
0.9057,-0.8409,-0.002,-1.0111,1.0758,-0.4125,0.8238,-0.5734,1.0367,-0.2202,0.9799,-0.6248,0.3403,-0.4908,1.1259,-0.3836
0.9057,-0.8409,-0.002,-1.0111,1.0758,-0.4125,0.8238,-0.5734,1.0367,-0.2202,0.9799,-0.6248,0.3403,-0.4908,1.1259,-0.3836
0.9783,-0.859,0.0212,-1.0117,1.1439,-0.394,0.8668,-0.5706,1.0106,-0.2109,1.0333,-0.6491,0.3736,-0.5026,1.1657,-0.3658
0.9783,-0.859,0.0212,-1.0117,1.1439,-0.394,0.8668,-0.5706,1.0106,-0.2109,1.0333,-0.6491,0.3736,-0.5026,1.1657,-0.3658
1.0281,-0.8315,0.0527,-1.0077,1.2307,-0.3739,0.9283,-0.5683,1.0628,-0.2294,1.0764,-0.6373,0.434,-0.4987,1.2413,-0.3462
1.0281,-0.8315,0.0527,-1.0077,1.2307,-0.3739,0.9283,-0.5683,1.0628,-0.2294,1.0764,-0.6373,0.434,-0.4987,1.2413,-0.3462
1.0531,-0.8177,0.0906,-1.0211,1.3126,-0.3599,0.9661,-0.5575,1.0309,-0.1549,1.0902,-0.6042,0.5167,-0.49,1.3386,-0.327
1.0531,-0.8177,0.0906,-1.0211,1.3126,-0.3599,0.9661,-0.5575,1.0309,-0.1549,1.0902,-0.6042,0.5167,-0.49,1.3386,-0.327
1.076,-0.8258,0.1251,-1.0295,1.387,-0.3534,0.997,-0.5563,1.0309,-0.1549,1.1238,-0.5889,0.6452,-0.5101,1.4254,-0.3147
1.076,-0.8258,0.1251,-1.0295,1.387,-0.3534,0.997,-0.5563,1.0309,-0.1549,1.1238,-0.5889,0.6452,-0.5101,1.4254,-0.3147
1.0965,-0.818,0.1423,-1.0128,1.4554,-0.3427,1.0313,-0.5533,1.1163,-0.164,1.1524,-0.5664,0.6704,-0.4172,1.4986,-0.2974
1.0965,-0.818,0.1423,-1.0128,1.4554,-0.3427,1.0313,-0.5533,1.1163,-0.164,1.1524,-0.5664,0.6704,-0.4172,1.4986,-0.2974
1.1125,-0.8161,0.1546,-1.0058,1.518,-0.3421,1.0498,-0.5538,1.2286,-0.1825,1.1715,-0.5513,0.7309,-0.3745,1.5893,-0.2969
1.1194,-0.8261,0.1588,-1.0035,1.5645,-0.3421,1.0591,-0.5541,1.216,-0.1356,1.1713,-0.5403,0.7929,-0.3707,1.6586,-0.2961
1.1194,-0.8261,0.1588,-1.0035,1.5645,-0.3421,1.0591,-0.5541,1.216,-0.1356,1.1713,-0.5403,0.7929,-0.3707,1.6586,-0.2961
1.1194,-0.8261,0.1588,-1.0035,1.5645,-0.3421,1.0591,-0.5541,1.216,-0.1356,1.1713,-0.5403,0.7929,-0.3707,1.6586,-0.2961
1.1194,-0.8261,0.1588,-1.0035,1.5645,-0.3421,1.0591,-0.5541,1.216,-0.1356,1.1713,-0.5403,0.7929,-0.3707,1.6586,-0.2961
1.147,-0.8283,0.1747,-1.0015,1.5959,-0.3346,1.0684,-0.5543,1.1495,-0.1545,1.1816,-0.5658,0.7705,-0.3756,1.6777,-0.2847
1.147,-0.8283,0.1747,-1.0015,1.5959,-0.3346,1.0684,-0.5543,1.1495,-0.1545,1.1816,-0.5658,0.7705,-0.3756,1.6777,-0.2847
1.147,-0.8283,0.1747,-1.0015,1.5959,-0.3346,1.0684,-0.5543,1.1495,-0.1545,1.1816,-0.5658,0.7705,-0.3756,1.6777,-0.2847
1.2137,-0.8367,0.1864,-1.0019,1.606,-0.3299,1.0986,-0.565,1.122,-0.2293,1.1916,-0.5802,0.7139,-0.3685,1.7068,-0.2877
1.2137,-0.8367,0.1864,-1.0019,1.606,-0.3299,1.0986,-0.565,1.122,-0.2293,1.1916,-0.5802,0.7139,-0.3685,1.7068,-0.2877
1.1883,-0.8126,0.1899,-1.0069,1.5909,-0.3369,1.0893,-0.5647,1.122,-0.2293,1.1916,-0.5802,0.7257,-0.3855,1.6996,-0.2852
1.1883,-0.8126,0.1899,-1.0069,1.5909,-0.3369,1.0893,-0.5647,1.122,-0.2293,1.1916,-0.5802,0.7257,-0.3855,1.6996,-0.2852
1.1722,-0.8145,0.208,-1.0247,1.5639,-0.346,1.0707,-0.5642,1.1151,-0.2479,1.177,-0.5805,0.7492,-0.4194,1.6739,-0.287
1.1722,-0.8145,0.208,-1.0247,1.5639,-0.346,1.0707,-0.5642,1.1151,-0.2479,1.177,-0.5805,0.7492,-0.4194,1.6739,-0.287
1.1467,-0.7903,0.201,-1.0146,1.5375,-0.3511,1.0582,-0.5659,1.1675,-0.2664,1.1672,-0.5771,0.7321,-0.4134,1.6372,-0.2885
1.1467,-0.7903,0.201,-1.0146,1.5375,-0.3511,1.0582,-0.5659,1.1675,-0.2664,1.1672,-0.5771,0.7321,-0.4134,1.6372,-0.2885
1.1467,-0.7903,0.201,-1.0146,1.5375,-0.3511,1.0582,-0.5659,1.1675,-0.2664,1.1672,-0.5771,0.7321,-0.4134,1.6372,-0.2885
1.1167,-0.7721,0.2017,-1.0073,1.5262,-0.3636,1.0484,-0.5715,1.22,-0.2849,1.1479,-0.5811,0.6927,-0.4123,1.6111,-0.2974
1.1167,-0.7721,0.2017,-1.0073,1.5262,-0.3636,1.0484,-0.5715,1.22,-0.2849,1.1479,-0.5811,0.6927,-0.4123,1.6111,-0.2974
1.0823,-0.76,0.2017,-1.0073,1.5137,-0.3694,1.0391,-0.5712,1.162,-0.2013,1.1383,-0.5886,0.6704,-0.4172,1.5955,-0.3135
1.0823,-0.76,0.2017,-1.0073,1.5137,-0.3694,1.0391,-0.5712,1.162,-0.2013,1.1383,-0.5886,0.6704,-0.4172,1.5955,-0.3135
1.0823,-0.76,0.2017,-1.0073,1.5137,-0.3694,1.0391,-0.5712,1.162,-0.2013,1.1383,-0.5886,0.6704,-0.4172,1.5955,-0.3135
1.0823,-0.76,0.2017,-1.0073,1.5137,-0.3694,1.0391,-0.5712,1.162,-0.2013,1.1383,-0.5886,0.6704,-0.4172,1.5955,-0.3135
1.0962,-0.78,0.1788,-0.9992,1.4768,-0.3687,1.0322,-0.5808,1.0821,-0.2572,1.1633,-0.6246,0.6166,-0.4873,1.5364,-0.3287
1.0962,-0.78,0.1788,-0.9992,1.4768,-0.3687,1.0322,-0.5808,1.0821,-0.2572,1.1633,-0.6246,0.6166,-0.4873,1.5364,-0.3287
1.0962,-0.78,0.1788,-0.9992,1.4768,-0.3687,1.0322,-0.5808,1.0821,-0.2572,1.1633,-0.6246,0.6166,-0.4873,1.5364,-0.3287
1.0461,-0.8077,0.1457,-1.0179,1.4294,-0.3766,0.9957,-0.574,1.0231,-0.2573,1.1192,-0.6036,0.6463,-0.5485,1.4889,-0.3371
1.0461,-0.8077,0.1457,-1.0179,1.4294,-0.3766,0.9957,-0.574,1.0231,-0.2573,1.1192,-0.6036,0.6463,-0.5485,1.4889,-0.3371
1.0461,-0.8077,0.1457,-1.0179,1.4294,-0.3766,0.9957,-0.574,1.0231,-0.2573,1.1192,-0.6036,0.6463,-0.5485,1.4889,-0.3371
1.044,-0.8296,0.1444,-1.0326,1.4014,-0.379,0.9772,-0.5735,1.0491,-0.2665,1.1095,-0.6002,0.6283,-0.5041,1.4705,-0.3414
1.0236,-0.8375,0.1216,-1.0245,1.3754,-0.3841,0.9735,-0.5812,1.1467,-0.3218,1.0852,-0.597,0.5647,-0.4309,1.4518,-0.3527
1.0236,-0.8375,0.1216,-1.0245,1.3754,-0.3841,0.9735,-0.5812,1.1467,-0.3218,1.0852,-0.597,0.5647,-0.4309,1.4518,-0.3527
1.0008,-0.8294,0.1065,-1.0191,1.3537,-0.3908,0.9583,-0.5788,1.2586,-0.3405,1.0852,-0.597,0.5413,-0.3971,1.4617,-0.3669
1.0008,-0.8294,0.1065,-1.0191,1.3537,-0.3908,0.9583,-0.5788,1.2586,-0.3405,1.0852,-0.597,0.5413,-0.3971,1.4617,-0.3669
0.9963,-0.8353,0.0948,-1.0188,1.3302,-0.3947,0.9398,-0.5784,1.1814,-0.2292,1.0707,-0.5974,0.5361,-0.408,1.4542,-0.3715
0.9963,-0.8353,0.0948,-1.0188,1.3302,-0.3947,0.9398,-0.5784,1.1814,-0.2292,1.0707,-0.5974,0.5361,-0.408,1.4542,-0.3715
0.9963,-0.8353,0.0948,-1.0188,1.3302,-0.3947,0.9398,-0.5784,1.1814,-0.2292,1.0707,-0.5974,0.5361,-0.408,1.4542,-0.3715
1.0146,-0.8493,0.0831,-1.0184,1.3024,-0.3972,0.9155,-0.5758,1.1289,-0.2106,1.0662,-0.612,0.5089,-0.4239,1.4116,-0.3636
1.0146,-0.8493,0.0831,-1.0184,1.3024,-0.3972,0.9155,-0.5758,1.1289,-0.2106,1.0662,-0.612,0.5089,-0.4239,1.4116,-0.3636
1.0191,-0.8434,0.0714,-1.0181,1.2722,-0.4008,0.9058,-0.5814,1.1289,-0.2106,1.0859,-0.6298,0.4986,-0.4456,1.3793,-0.3629
1.0191,-0.8434,0.0714,-1.0181,1.2722,-0.4008,0.9058,-0.5814,1.1289,-0.2106,1.0859,-0.6298,0.4986,-0.4456,1.3793,-0.3629
0.9938,-0.8194,0.0666,-1.0278,1.2421,-0.4043,0.8902,-0.5849,1.0639,-0.1455,1.0662,-0.612,0.4934,-0.4565,1.3439,-0.3575
0.9938,-0.8194,0.0666,-1.0278,1.2421,-0.4043,0.8902,-0.5849,1.0639,-0.1455,1.0662,-0.612,0.4934,-0.4565,1.3439,-0.3575
0.9938,-0.8194,0.0666,-1.0278,1.2421,-0.4043,0.8902,-0.5849,1.0639,-0.1455,1.0662,-0.612,0.4934,-0.4565,1.3439,-0.3575
0.9759,-0.8432,0.0613,-1.0448,1.2004,-0.4099,0.8623,-0.59,1.0377,-0.1362,1.071,-0.6083,0.5387,-0.4851,1.3151,-0.3616
0.9759,-0.8432,0.0613,-1.0448,1.2004,-0.4099,0.8623,-0.59,1.0377,-0.1362,1.071,-0.6083,0.5387,-0.4851,1.3151,-0.3616
0.9373,-0.837,0.0461,-1.0394,1.1679,-0.4147,0.8435,-0.5954,1.0377,-0.1362,1.061,-0.5939,0.5206,-0.4407,1.29,-0.3634
0.9215,-0.839,0.0276,-1.0291,1.1442,-0.4225,0.8248,-0.6008,1.0639,-0.1455,1.0416,-0.587,0.4972,-0.407,1.2683,-0.37
0.9012,-0.8468,0.0159,-1.0287,1.1253,-0.428,0.8033,-0.6022,1.0706,-0.1267,1.0124,-0.5767,0.4687,-0.3842,1.2572,-0.3768
0.9012,-0.8468,0.0159,-1.0287,1.1253,-0.428,0.8033,-0.6022,1.0706,-0.1267,1.0124,-0.5767,0.4687,-0.3842,1.2572,-0.3768
0.9012,-0.8468,0.0008,-1.0234,1.0966,-0.4239,0.7879,-0.6057,0.9981,-0.1644,0.9938,-0.6027,0.4197,-0.4051,1.2045,-0.3688
0.9012,-0.8468,0.0008,-1.0234,1.0966,-0.4239,0.7879,-0.6057,0.9981,-0.1644,0.9938,-0.6027,0.4197,-0.4051,1.2045,-0.3688
0.9239,-0.8548,-0.0067,-1.0207,1.068,-0.4199,0.7934,-0.6136,0.9451,-0.2297,0.9799,-0.6248,0.3541,-0.4199,1.1657,-0.3658
0.9239,-0.8548,-0.0067,-1.0207,1.068,-0.4199,0.7934,-0.6136,0.9451,-0.2297,0.9799,-0.6248,0.3541,-0.4199,1.1657,-0.3658
0.9239,-0.8548,-0.0067,-1.0207,1.068,-0.4199,0.7934,-0.6136,0.9451,-0.2297,0.9799,-0.6248,0.3541,-0.4199,1.1657,-0.3658
0.9032,-0.825,-0.0149,-1.0254,1.0369,-0.417,0.7961,-0.6175,0.9249,-0.2852,0.9462,-0.6183,0.294,-0.424,1.1373,-0.3699
0.8667,-0.7971,-0.0306,-1.0274,1.0054,-0.418,0.7842,-0.6134,0.8923,-0.2945,0.9222,-0.6152,0.2788,-0.4565,1.1089,-0.3741
0.8667,-0.7971,-0.0306,-1.0274,1.0054,-0.418,0.7842,-0.6134,0.8923,-0.2945,0.9222,-0.6152,0.2788,-0.4565,1.1089,-0.3741
0.8667,-0.7971,-0.0306,-1.0274,1.0054,-0.418,0.7842,-0.6134,0.8923,-0.2945,0.9222,-0.6152,0.2788,-0.4565,1.1089,-0.3741
0.851,-0.799,-0.0167,-1.0473,0.9782,-0.4205,0.7637,-0.6031,0.8856,-0.3129,0.8982,-0.6121,0.3186,-0.4957,1.0671,-0.3664
0.8352,-0.801,-0.0202,-1.0424,0.971,-0.424,0.7578,-0.601,0.9114,-0.322,0.8839,-0.6125,0.2955,-0.4624,1.0461,-0.366
0.8352,-0.801,-0.0202,-1.0424,0.971,-0.424,0.7578,-0.601,0.9114,-0.322,0.8839,-0.6125,0.2955,-0.4624,1.0461,-0.366
0.8352,-0.801,-0.0202,-1.0424,0.971,-0.424,0.7578,-0.601,0.9114,-0.322,0.8839,-0.6125,0.2955,-0.4624,1.0461,-0.366
0.8441,-0.7891,-0.0073,-1.0281,1.0164,-0.4198,0.7764,-0.5957,1.0217,-0.3402,0.8889,-0.6196,0.2723,-0.429,1.053,-0.3685
0.8441,-0.7891,-0.0073,-1.0281,1.0164,-0.4198,0.7764,-0.5957,1.0217,-0.3402,0.8889,-0.6196,0.2723,-0.429,1.053,-0.3685
0.8643,-0.7812,0.0206,-1.0191,1.0964,-0.4097,0.8138,-0.5849,1.0038,-0.2295,0.8936,-0.6159,0.299,-0.4131,1.0987,-0.3669
0.8643,-0.7812,0.0206,-1.0191,1.0964,-0.4097,0.8138,-0.5849,1.0038,-0.2295,0.8936,-0.6159,0.299,-0.4131,1.0987,-0.3669
0.923,-0.7793,0.0493,-1.0027,1.1884,-0.3834,0.8664,-0.5765,0.9778,-0.2203,0.9321,-0.6295,0.344,-0.4417,1.1625,-0.3611
0.923,-0.7793,0.0493,-1.0027,1.1884,-0.3834,0.8664,-0.5765,0.9778,-0.2203,0.9321,-0.6295,0.344,-0.4417,1.1625,-0.3611
1.0004,-0.7916,0.0704,-0.9837,1.2854,-0.3585,0.9311,-0.5723,1.0038,-0.2295,0.9849,-0.632,0.3941,-0.4594,1.2413,-0.3462
1.0298,-0.7717,0.0903,-0.9793,1.3751,-0.341,0.9901,-0.566,1.0038,-0.2295,1.0082,-0.6024,0.4947,-0.4949,1.3275,-0.3338
1.0298,-0.7717,0.0903,-0.9793,1.3751,-0.341,0.9901,-0.566,1.0038,-0.2295,1.0082,-0.6024,0.4947,-0.4949,1.3275,-0.3338
1.0298,-0.7717,0.0903,-0.9793,1.3751,-0.341,0.9901,-0.566,1.0038,-0.2295,1.0082,-0.6024,0.4947,-0.4949,1.3275,-0.3338
1.0368,-0.7818,0.1166,-0.9924,1.4416,-0.3275,1.0216,-0.559,1.0163,-0.2758,1.0271,-0.5874,0.6009,-0.5198,1.4175,-0.3263
1.0368,-0.7818,0.1166,-0.9924,1.4416,-0.3275,1.0216,-0.559,1.0163,-0.2758,1.0271,-0.5874,0.6009,-0.5198,1.4175,-0.3263
1.0551,-0.7958,0.1359,-0.9954,1.5003,-0.3215,1.0498,-0.5538,1.0163,-0.2758,1.051,-0.5795,0.6558,-0.4885,1.4935,-0.3208
1.0735,-0.8099,0.1401,-0.9931,1.5587,-0.3194,1.0721,-0.5466,1.1205,-0.3126,1.0653,-0.5683,0.6822,-0.4341,1.5661,-0.3176
1.0735,-0.8099,0.1401,-0.9931,1.5587,-0.3194,1.0721,-0.5466,1.1205,-0.3126,1.0653,-0.5683,0.6822,-0.4341,1.5661,-0.3176
1.0895,-0.808,0.1559,-0.9911,1.6079,-0.3181,1.0912,-0.5412,1.122,-0.2293,1.0895,-0.5714,0.7033,-0.3904,1.6391,-0.3145
1.0895,-0.808,0.1559,-0.9911,1.6079,-0.3181,1.0912,-0.5412,1.122,-0.2293,1.0895,-0.5714,0.7033,-0.3904,1.6391,-0.3145
1.147,-0.8283,0.1712,-0.9965,1.6388,-0.3145,1.107,-0.5377,1.1095,-0.1827,1.1188,-0.5817,0.7086,-0.3794,1.6767,-0.2988
1.147,-0.8283,0.1712,-0.9965,1.6388,-0.3145,1.107,-0.5377,1.1095,-0.1827,1.1188,-0.5817,0.7086,-0.3794,1.6767,-0.2988
1.147,-0.8283,0.1712,-0.9965,1.6388,-0.3145,1.107,-0.5377,1.1095,-0.1827,1.1188,-0.5817,0.7086,-0.3794,1.6767,-0.2988
1.1722,-0.8145,0.1788,-0.9992,1.6508,-0.3126,1.1285,-0.5422,1.1495,-0.1545,1.1576,-0.5846,0.7257,-0.3855,1.6996,-0.2852
1.1722,-0.8145,0.1788,-0.9992,1.6508,-0.3126,1.1285,-0.5422,1.1495,-0.1545,1.1576,-0.5846,0.7257,-0.3855,1.6996,-0.2852
1.1722,-0.8145,0.1788,-0.9992,1.6508,-0.3126,1.1285,-0.5422,1.1495,-0.1545,1.1576,-0.5846,0.7257,-0.3855,1.6996,-0.2852
1.1628,-0.7884,0.1858,-1.0092,1.6502,-0.3165,1.1257,-0.5382,1.1105,-0.0983,1.167,-0.5661,0.7598,-0.3976,1.7144,-0.2831
1.1352,-0.7863,0.2074,-1.032,1.6237,-0.3216,1.101,-0.5355,1.0909,-0.0701,1.1766,-0.5585,0.8059,-0.4267,1.7001,-0.2781
1.1352,-0.7863,0.2074,-1.032,1.6237,-0.3216,1.101,-0.5355,1.0909,-0.0701,1.1766,-0.5585,0.8059,-0.4267,1.7001,-0.2781
1.1146,-0.7941,0.2039,-1.027,1.5984,-0.3334,1.0819,-0.5409,1.1368,-0.1076,1.1715,-0.5513,0.7876,-0.3817,1.6815,-0.2824
1.101,-0.812,0.1851,-1.0166,1.5846,-0.3471,1.0596,-0.5482,1.1632,-0.1169,1.152,-0.5444,0.7811,-0.3536,1.6805,-0.2966
1.101,-0.812,0.1851,-1.0166,1.5846,-0.3471,1.0596,-0.5482,1.1632,-0.1169,1.152,-0.5444,0.7811,-0.3536,1.6805,-0.2966
1.101,-0.812,0.1851,-1.0166,1.5846,-0.3471,1.0596,-0.5482,1.1632,-0.1169,1.152,-0.5444,0.7811,-0.3536,1.6805,-0.2966
1.1034,-0.828,0.1699,-1.0112,1.574,-0.3557,1.0406,-0.5536,1.1105,-0.0983,1.1278,-0.5522,0.7587,-0.3586,1.6653,-0.3057
1.1034,-0.828,0.1699,-1.0112,1.574,-0.3557,1.0406,-0.5536,1.1105,-0.0983,1.1278,-0.5522,0.7587,-0.3586,1.6653,-0.3057
1.1218,-0.842,0.1546,-1.0058,1.5557,-0.3534,1.0429,-0.5635,1.0639,-0.1455,1.1235,-0.578,0.7086,-0.3794,1.6358,-0.3097
1.1218,-0.842,0.1546,-1.0058,1.5557,-0.3534,1.0429,-0.5635,1.0639,-0.1455,1.1235,-0.578,0.7086,-0.3794,1.6358,-0.3097
1.101,-0.812,0.1505,-1.0082,1.5394,-0.3538,1.0545,-0.5736,1.0174,-0.1923,1.0945,-0.5786,0.6587,-0.4003,1.6097,-0.3186
1.101,-0.812,0.1505,-1.0082,1.5394,-0.3538,1.0545,-0.5736,1.0174,-0.1923,1.0945,-0.5786,0.6587,-0.4003,1.6097,-0.3186
1.0871,-0.792,0.1464,-1.0105,1.5181,-0.3566,1.0456,-0.5675,0.9846,-0.2017,1.0897,-0.5823,0.6704,-0.4172,1.5879,-0.3181
1.0642,-0.7839,0.1423,-1.0128,1.4962,-0.3632,1.0303,-0.5651,1.0231,-0.2573,1.0703,-0.5755,0.6992,-0.4401,1.5699,-0.3153
1.0642,-0.7839,0.1423,-1.0128,1.4962,-0.3632,1.0303,-0.5651,1.0231,-0.2573,1.0703,-0.5755,0.6992,-0.4401,1.5699,-0.3153
1.0527,-0.7798,0.1429,-1.0055,1.4793,-0.3676,1.0151,-0.5627,1.1467,-0.3218,1.0558,-0.5758,0.6875,-0.4232,1.5515,-0.3196
1.0527,-0.7798,0.1429,-1.0055,1.4793,-0.3676,1.0151,-0.5627,1.1467,-0.3218,1.0558,-0.5758,0.6875,-0.4232,1.5515,-0.3196
1.0527,-0.7798,0.1429,-1.0055,1.4793,-0.3676,1.0151,-0.5627,1.1467,-0.3218,1.0558,-0.5758,0.6875,-0.4232,1.5515,-0.3196
1.0368,-0.7818,0.1429,-1.0055,1.4687,-0.3761,0.9998,-0.5603,1.1938,-0.2756,1.0463,-0.5833,0.6417,-0.3943,1.5473,-0.329
1.0368,-0.7818,0.1429,-1.0055,1.4687,-0.3761,0.9998,-0.5603,1.1938,-0.2756,1.0463,-0.5833,0.6417,-0.3943,1.5473,-0.329
1.0413,-0.7758,0.147,-1.0031,1.4462,-0.3723,0.9846,-0.558,1.1413,-0.2571,1.0518,-0.6123,0.6038,-0.4319,1.511,-0.3305
1.0413,-0.7758,0.147,-1.0031,1.4462,-0.3723,0.9846,-0.558,1.1413,-0.2571,1.0518,-0.6123,0.6038,-0.4319,1.511,-0.3305
1.0458,-0.7698,0.1324,-0.9904,1.4213,-0.3696,0.9873,-0.562,1.0944,-0.3034,1.0766,-0.6482,0.527,-0.4684,1.4635,-0.3389
1.0343,-0.7657,0.1166,-0.9924,1.3908,-0.3732,0.9809,-0.5657,1.0683,-0.2942,1.057,-0.6304,0.5283,-0.5068,1.4237,-0.3428
1.0343,-0.7657,0.1166,-0.9924,1.3908,-0.3732,0.9809,-0.5657,1.0683,-0.2942,1.057,-0.6304,0.5283,-0.5068,1.4237,-0.3428
1.0343,-0.7657,0.1166,-0.9924,1.3908,-0.3732,0.9809,-0.5657,1.0683,-0.2942,1.057,-0.6304,0.5283,-0.5068,1.4237,-0.3428
0.9865,-0.7716,0.1036,-1.0068,1.3443,-0.3773,0.9532,-0.565,1.0217,-0.3402,1.0231,-0.6239,0.5578,-0.5676,1.3765,-0.3512
0.9865,-0.7716,0.1036,-1.0068,1.3443,-0.3773,0.9532,-0.565,1.0217,-0.3402,1.0231,-0.6239,0.5578,-0.5676,1.3765,-0.3512
0.9865,-0.7716,0.1036,-1.0068,1.3443,-0.3773,0.9532,-0.565,1.0217,-0.3402,1.0231,-0.6239,0.5578,-0.5676,1.3765,-0.3512
0.9438,-0.8093,0.0755,-1.0158,1.2783,-0.3907,0.9159,-0.5699,1.0737,-0.3586,0.9844,-0.6102,0.5218,-0.4792,1.3216,-0.3711
0.9438,-0.8093,0.0755,-1.0158,1.2783,-0.3907,0.9159,-0.5699,1.0737,-0.3586,0.9844,-0.6102,0.5218,-0.4792,1.3216,-0.3711
0.9438,-0.8093,0.0755,-1.0158,1.2783,-0.3907,0.9159,-0.5699,1.0737,-0.3586,0.9844,-0.6102,0.5218,-0.4792,1.3216,-0.3711
0.9235,-0.8171,0.0521,-1.0151,1.2568,-0.3973,0.8916,-0.5673,1.0875,-0.3218,0.97,-0.6105,0.4934,-0.4565,1.3175,-0.3803
0.9714,-0.8491,0.0329,-1.0121,1.2254,-0.3944,0.8792,-0.569,1.0944,-0.3034,0.9799,-0.6248,0.4546,-0.4555,1.2892,-0.3774
0.9714,-0.8491,0.0329,-1.0121,1.2254,-0.3944,0.8792,-0.569,1.0944,-0.3034,0.9799,-0.6248,0.4546,-0.4555,1.2892,-0.3774
0.9873,-0.8472,0.0172,-1.0141,1.1935,-0.3953,0.8696,-0.5746,1.0683,-0.2942,0.9653,-0.6142,0.4276,-0.4712,1.2572,-0.3768
0.9873,-0.8472,0.0172,-1.0141,1.1935,-0.3953,0.8696,-0.5746,1.0683,-0.2942,0.9653,-0.6142,0.4276,-0.4712,1.2572,-0.3768
0.9873,-0.8472,0.0172,-1.0141,1.1935,-0.3953,0.8696,-0.5746,1.0683,-0.2942,0.9653,-0.6142,0.4276,-0.4712,1.2572,-0.3768
0.9483,-0.8033,0.0049,-1.0211,1.1635,-0.3989,0.8572,-0.5762,1.0106,-0.2109,0.9504,-0.5928,0.3992,-0.4485,1.2327,-0.3717
0.9483,-0.8033,0.0049,-1.0211,1.1635,-0.3989,0.8572,-0.5762,1.0106,-0.2109,0.9504,-0.5928,0.3992,-0.4485,1.2327,-0.3717
0.9052,-0.8032,0.0106,-1.0457,1.1196,-0.4057,0.8178,-0.5713,0.9459,-0.146,0.9404,-0.5784,0.4327,-0.4604,1.2114,-0.3713
0.9052,-0.8032,0.0106,-1.0457,1.1196,-0.4057,0.8178,-0.5713,0.9459,-0.146,0.9404,-0.5784,0.4327,-0.4604,1.2114,-0.3713
0.885,-0.8111,-0.0045,-1.0404,1.0892,-0.4132,0.7964,-0.5727,0.9392,-0.1647,0.9501,-0.5818,0.443,-0.4387,1.1902,-0.3709
0.8648,-0.8189,-0.0196,-1.0351,1.068,-0.4199,0.7777,-0.5781,0.9981,-0.1644,0.9258,-0.5678,0.4029,-0.3991,1.1792,-0.3776
0.8648,-0.8189,-0.0196,-1.0351,1.068,-0.4199,0.7777,-0.5781,0.9981,-0.1644,0.9258,-0.5678,0.4029,-0.3991,1.1792,-0.3776
0.8648,-0.8189,-0.0196,-1.0351,1.068,-0.4199,0.7777,-0.5781,0.9981,-0.1644,0.9258,-0.5678,0.4029,-0.3991,1.1792,-0.3776
0.8559,-0.8308,-0.0422,-1.0271,1.0473,-0.4227,0.7591,-0.5835,0.9854,-0.1177,0.9114,-0.5682,0.4029,-0.3991,1.1719,-0.3821
0.8559,-0.8308,-0.0422,-1.0271,1.0473,-0.4227,0.7591,-0.5835,0.9854,-0.1177,0.9114,-0.5682,0.4029,-0.3991,1.1719,-0.3821
0.8559,-0.8308,-0.0422,-1.0271,1.0473,-0.4227,0.7591,-0.5835,0.9854,-0.1177,0.9114,-0.5682,0.4029,-0.3991,1.1719,-0.3821
0.8697,-0.8506,-0.0613,-1.0241,1.0206,-0.4213,0.7464,-0.591,0.9199,-0.1368,0.8977,-0.5904,0.3592,-0.4091,1.1263,-0.3767
0.8697,-0.8506,-0.0613,-1.0241,1.0206,-0.4213,0.7464,-0.591,0.9199,-0.1368,0.8977,-0.5904,0.3592,-0.4091,1.1263,-0.3767
0.8603,-0.8249,-0.0688,-1.0214,0.9988,-0.4177,0.7669,-0.6013,0.874,-0.1837,0.8691,-0.591,0.294,-0.424,1.1012,-0.3855
0.8421,-0.8109,-0.0653,-1.0264,0.9921,-0.4173,0.7733,-0.5975,0.8091,-0.2026,0.8452,-0.588,0.2788,-0.4565,1.0765,-0.3874
0.8421,-0.8109,-0.0653,-1.0264,0.9921,-0.4173,0.7733,-0.5975,0.8091,-0.2026,0.8452,-0.588,0.2788,-0.4565,1.0765,-0.3874
0.8466,-0.805,-0.0422,-1.0271,1.0138,-0.4068,0.7832,-0.5861,0.8217,-0.2487,0.8355,-0.5846,0.3121,-0.4682,1.0732,-0.3827
0.8466,-0.805,-0.0422,-1.0271,1.0138,-0.4068,0.7832,-0.5861,0.8217,-0.2487,0.8355,-0.5846,0.3121,-0.4682,1.0732,-0.3827
0.8466,-0.805,-0.0422,-1.0271,1.0138,-0.4068,0.7832,-0.5861,0.8217,-0.2487,0.8355,-0.5846,0.3121,-0.4682,1.0732,-0.3827
0.8712,-0.7911,-0.0287,-1.0054,1.0829,-0.3948,0.8206,-0.5753,0.9249,-0.2852,0.8452,-0.588,0.3389,-0.4525,1.0983,-0.3739
0.8712,-0.7911,-0.0287,-1.0054,1.0829,-0.3948,0.8206,-0.5753,0.9249,-0.2852,0.8452,-0.588,0.3389,-0.4525,1.0983,-0.3739
0.9364,-0.7614,0.0499,-0.9954,1.296,-0.3643,0.9177,-0.5464,0.9787,-0.1365,0.9073,-0.5938,0.4701,-0.4229,1.2839,-0.347
0.9364,-0.7614,0.0499,-0.9954,1.296,-0.3643,0.9177,-0.5464,0.9787,-0.1365,0.9073,-0.5938,0.4701,-0.4229,1.2839,-0.347
0.9364,-0.7614,0.0499,-0.9954,1.296,-0.3643,0.9177,-0.5464,0.9787,-0.1365,0.9073,-0.5938,0.4701,-0.4229,1.2839,-0.347
0.9955,-0.7596,0.0821,-0.984,1.3956,-0.3421,0.9707,-0.538,0.972,-0.1552,0.9606,-0.618,0.5154,-0.4516,1.3671,-0.3299
1.0408,-0.7377,0.1137,-0.98,1.4904,-0.3262,1.0387,-0.5378,0.972,-0.1552,1.0035,-0.6061,0.5543,-0.4526,1.4545,-0.3106
1.0408,-0.7377,0.1137,-0.98,1.4904,-0.3262,1.0387,-0.5378,0.972,-0.1552,1.0035,-0.6061,0.5543,-0.4526,1.4545,-0.3106
1.0408,-0.7377,0.1137,-0.98,1.4904,-0.3262,1.0387,-0.5378,0.972,-0.1552,1.0035,-0.6061,0.5543,-0.4526,1.4545,-0.3106
1.0453,-0.7317,0.1366,-0.9881,1.5543,-0.3178,1.0735,-0.5289,0.9913,-0.1831,1.0271,-0.5874,0.6219,-0.4765,1.5274,-0.3003
1.0453,-0.7317,0.1366,-0.9881,1.5543,-0.3178,1.0735,-0.5289,0.9913,-0.1831,1.0271,-0.5874,0.6219,-0.4765,1.5274,-0.3003
1.0798,-0.7439,0.1559,-0.9911,1.6066,-0.3114,1.1108,-0.5299,1.0299,-0.2387,1.0413,-0.5761,0.6833,-0.4728,1.5898,-0.2898
1.0983,-0.758,0.1677,-0.9914,1.6514,-0.3086,1.121,-0.5183,1.1413,-0.2571,1.0653,-0.5683,0.7215,-0.4353,1.6591,-0.289
1.0983,-0.758,0.1677,-0.9914,1.6514,-0.3086,1.121,-0.5183,1.1413,-0.2571,1.0653,-0.5683,0.7215,-0.4353,1.6591,-0.289
1.1213,-0.7662,0.1794,-0.9918,1.6888,-0.3094,1.1369,-0.5148,1.1357,-0.192,1.0845,-0.5642,0.7374,-0.4025,1.7392,-0.2955
1.1213,-0.7662,0.1794,-0.9918,1.6888,-0.3094,1.1369,-0.5148,1.1357,-0.192,1.0845,-0.5642,0.7374,-0.4025,1.7392,-0.2955
1.1213,-0.7662,0.1794,-0.9918,1.6888,-0.3094,1.1369,-0.5148,1.1357,-0.192,1.0845,-0.5642,0.7374,-0.4025,1.7392,-0.2955
1.1744,-0.7925,0.1759,-0.9868,1.706,-0.305,1.1495,-0.5132,1.1426,-0.1733,1.1235,-0.578,0.7427,-0.3915,1.7694,-0.2844
1.1744,-0.7925,0.1759,-0.9868,1.706,-0.305,1.1495,-0.5132,1.1426,-0.1733,1.1235,-0.578,0.7427,-0.3915,1.7694,-0.2844
1.1744,-0.7925,0.1759,-0.9868,1.706,-0.305,1.1495,-0.5132,1.1426,-0.1733,1.1235,-0.578,0.7427,-0.3915,1.7694,-0.2844
1.2066,-0.7887,0.1759,-0.9868,1.7123,-0.3094,1.1584,-0.5193,1.1563,-0.1358,1.1429,-0.5739,0.748,-0.3805,1.7881,-0.2801
1.2066,-0.7887,0.1759,-0.9868,1.7123,-0.3094,1.1584,-0.5193,1.1563,-0.1358,1.1429,-0.5739,0.748,-0.3805,1.7881,-0.2801
1.2066,-0.7887,0.1759,-0.9868,1.7123,-0.3094,1.1584,-0.5193,1.1563,-0.1358,1.1429,-0.5739,0.748,-0.3805,1.7881,-0.2801
1.1674,-0.7824,0.1781,-1.0065,1.6793,-0.3247,1.1243,-0.5164,1.0977,-0.0512,1.1472,-0.5482,0.8219,-0.3938,1.7915,-0.2849
1.1674,-0.7824,0.1781,-1.0065,1.6793,-0.3247,1.1243,-0.5164,1.0977,-0.0512,1.1472,-0.5482,0.8219,-0.3938,1.7915,-0.2849
1.1352,-0.7863,0.174,-1.0089,1.6521,-0.3337,1.1052,-0.5218,1.1105,-0.0983,1.1374,-0.5447,0.8219,-0.3938,1.7689,-0.2915
1.1352,-0.7863,0.174,-1.0089,1.6521,-0.3337,1.1052,-0.5218,1.1105,-0.0983,1.1374,-0.5447,0.8219,-0.3938,1.7689,-0.2915
1.1192,-0.7882,0.1594,-0.9961,1.6275,-0.3416,1.0921,-0.5294,1.1368,-0.1076,1.1226,-0.534,0.7693,-0.3365,1.7464,-0.2981
1.1192,-0.7882,0.1594,-0.9961,1.6275,-0.3416,1.0921,-0.5294,1.1368,-0.1076,1.1226,-0.534,0.7693,-0.3365,1.7464,-0.2981
1.0986,-0.796,0.1366,-0.9881,1.6136,-0.3553,1.0758,-0.5388,1.1368,-0.1076,1.1178,-0.5378,0.7574,-0.3194,1.7454,-0.3122
1.0986,-0.796,0.1366,-0.9881,1.6136,-0.3553,1.0758,-0.5388,1.1368,-0.1076,1.1178,-0.5378,0.7574,-0.3194,1.7454,-0.3122
1.0986,-0.796,0.1366,-0.9881,1.6136,-0.3553,1.0758,-0.5388,1.1368,-0.1076,1.1178,-0.5378,0.7574,-0.3194,1.7454,-0.3122
1.0941,-0.802,0.1324,-0.9904,1.6099,-0.3643,1.0633,-0.5404,1.1044,-0.0322,1.1033,-0.5381,0.7455,-0.3023,1.7449,-0.3193
1.0826,-0.798,0.1359,-0.9954,1.5916,-0.3619,1.0536,-0.5461,1.0579,-0.0797,1.0893,-0.5604,0.7126,-0.3294,1.6976,-0.3135
1.0826,-0.798,0.1359,-0.9954,1.5916,-0.3619,1.0536,-0.5461,1.0579,-0.0797,1.0893,-0.5604,0.7126,-0.3294,1.6976,-0.3135
1.1171,-0.8101,0.1359,-0.9954,1.5777,-0.3612,1.0596,-0.5482,1.0309,-0.1549,1.085,-0.5861,0.6509,-0.3334,1.6643,-0.3198
1.1171,-0.8101,0.1359,-0.9954,1.5777,-0.3612,1.0596,-0.5482,1.0309,-0.1549,1.085,-0.5861,0.6509,-0.3334,1.6643,-0.3198
1.0962,-0.78,0.1242,-0.9951,1.5589,-0.3628,1.0684,-0.5543,1.0367,-0.2202,1.0655,-0.5792,0.6352,-0.3663,1.642,-0.3263
1.0962,-0.78,0.1242,-0.9951,1.5589,-0.3628,1.0684,-0.5543,1.0367,-0.2202,1.0655,-0.5792,0.6352,-0.3663,1.642,-0.3263
1.0802,-0.782,0.1194,-1.0048,1.5325,-0.3679,1.0475,-0.5439,1.0491,-0.2665,1.0413,-0.5761,0.6757,-0.4063,1.6092,-0.3256
1.0802,-0.782,0.1194,-1.0048,1.5325,-0.3679,1.0475,-0.5439,1.0491,-0.2665,1.0413,-0.5761,0.6757,-0.4063,1.6092,-0.3256
1.0802,-0.782,0.1194,-1.0048,1.5325,-0.3679,1.0475,-0.5439,1.0491,-0.2665,1.0413,-0.5761,0.6757,-0.4063,1.6092,-0.3256
1.0895,-0.808,0.1258,-1.0222,1.4968,-0.3738,1.0202,-0.5373,1.0354,-0.3034,1.0318,-0.5836,0.7162,-0.4462,1.5766,-0.3249
1.0551,-0.7958,0.1258,-1.0222,1.4637,-0.3785,1.0077,-0.5389,1.1067,-0.3494,1.0321,-0.5945,0.6757,-0.4063,1.5506,-0.3337
1.0551,-0.7958,0.1258,-1.0222,1.4637,-0.3785,1.0077,-0.5389,1.1067,-0.3494,1.0321,-0.5945,0.6757,-0.4063,1.5506,-0.3337
1.0253,-0.7777,0.1001,-1.0017,1.4376,-0.3836,0.9924,-0.5366,1.2007,-0.2571,1.0177,-0.5949,0.6077,-0.3823,1.5204,-0.3518
1.0253,-0.7777,0.1001,-1.0017,1.4376,-0.3836,0.9924,-0.5366,1.2007,-0.2571,1.0177,-0.5949,0.6077,-0.3823,1.5204,-0.3518
1.0184,-0.7677,0.0966,-0.9967,1.4264,-0.396,0.9799,-0.5382,1.1163,-0.164,1.0035,-0.6061,0.5751,-0.4091,1.4875,-0.3581
1.0184,-0.7677,0.0966,-0.9967,1.4264,-0.396,0.9799,-0.5382,1.1163,-0.164,1.0035,-0.6061,0.5751,-0.4091,1.4875,-0.3581
1.0184,-0.7677,0.0966,-0.9967,1.4264,-0.396,0.9799,-0.5382,1.1163,-0.164,1.0035,-0.6061,0.5751,-0.4091,1.4875,-0.3581
0.9955,-0.7596,0.0966,-0.9967,1.4053,-0.3988,0.9675,-0.5399,1.0503,-0.1829,1.0137,-0.6313,0.5206,-0.4407,1.4335,-0.357
1.0024,-0.7696,0.0815,-0.9914,1.3692,-0.3942,0.949,-0.5394,1.0174,-0.1923,0.999,-0.6207,0.4882,-0.4673,1.3868,-0.3584
0.9955,-0.7596,0.0587,-0.9833,1.3395,-0.3939,0.9485,-0.5453,0.9846,-0.2017,0.9794,-0.603,0.5063,-0.5116,1.3472,-0.3622
0.9955,-0.7596,0.0587,-0.9833,1.3395,-0.3939,0.9485,-0.5453,0.9846,-0.2017,0.9794,-0.603,0.5063,-0.5116,1.3472,-0.3622
0.9751,-0.7675,0.0423,-0.9927,1.3086,-0.4014,0.9273,-0.5408,0.9451,-0.2297,0.9457,-0.5965,0.5294,-0.545,1.3072,-0.3731
0.9751,-0.7675,0.0423,-0.9927,1.3086,-0.4014,0.9273,-0.5408,0.9451,-0.2297,0.9457,-0.5965,0.5294,-0.545,1.3072,-0.3731
0.9389,-0.7774,0.037,-1.0097,1.2692,-0.4058,0.8998,-0.5401,0.9971,-0.2481,0.931,-0.5859,0.5115,-0.5008,1.2748,-0.3794
0.9389,-0.7774,0.037,-1.0097,1.2692,-0.4058,0.8998,-0.5401,0.9971,-0.2481,0.931,-0.5859,0.5115,-0.5008,1.2748,-0.3794
0.921,-0.8012,0.0137,-1.0091,1.2274,-0.4114,0.8782,-0.5415,1.0491,-0.2665,0.907,-0.5829,0.4714,-0.4614,1.267,-0.3909
0.921,-0.8012,0.0137,-1.0091,1.2274,-0.4114,0.8782,-0.5415,1.0491,-0.2665,0.907,-0.5829,0.4714,-0.4614,1.267,-0.3909
0.921,-0.8012,0.0137,-1.0091,1.2274,-0.4114,0.8782,-0.5415,1.0491,-0.2665,0.907,-0.5829,0.4714,-0.4614,1.267,-0.3909
0.8939,-0.7992,-0.0055,-1.0061,1.2035,-0.4192,0.8626,-0.545,0.9913,-0.1831,0.888,-0.5869,0.4495,-0.4663,1.2559,-0.3976
0.8939,-0.7992,-0.0055,-1.0061,1.2035,-0.4192,0.8626,-0.545,0.9913,-0.1831,0.888,-0.5869,0.4495,-0.4663,1.2559,-0.3976
0.8939,-0.7992,-0.0055,-1.0061,1.2035,-0.4192,0.8626,-0.545,0.9913,-0.1831,0.888,-0.5869,0.4495,-0.4663,1.2559,-0.3976
0.885,-0.8111,-0.0212,-1.0081,1.1717,-0.4201,0.8411,-0.5465,0.9846,-0.2017,0.8836,-0.6016,0.4057,-0.4761,1.2175,-0.3876
0.885,-0.8111,-0.0212,-1.0081,1.1717,-0.4201,0.8411,-0.5465,0.9846,-0.2017,0.8836,-0.6016,0.4057,-0.4761,1.2175,-0.3876
0.885,-0.8111,-0.0212,-1.0081,1.1717,-0.4201,0.8411,-0.5465,0.9846,-0.2017,0.8836,-0.6016,0.4057,-0.4761,1.2175,-0.3876
0.9259,-0.833,-0.052,-1.0047,1.1112,-0.4169,0.8251,-0.5559,0.9132,-0.1555,0.8641,-0.5839,0.3338,-0.4633,1.1474,-0.3771
0.9259,-0.833,-0.052,-1.0047,1.1112,-0.4169,0.8251,-0.5559,0.9132,-0.1555,0.8641,-0.5839,0.3338,-0.4633,1.1474,-0.3771
0.9121,-0.8131,-0.0717,-1.0091,1.0771,-0.4191,0.8155,-0.5615,0.8679,-0.1185,0.8545,-0.5805,0.3788,-0.4918,1.1121,-0.3788
0.9121,-0.8131,-0.0717,-1.0091,1.0771,-0.4191,0.8155,-0.5615,0.8679,-0.1185,0.8545,-0.5805,0.3788,-0.4918,1.1121,-0.3788
0.8623,-0.803,-0.0734,-1.0311,1.0334,-0.4259,0.7822,-0.5587,0.8354,-0.128,0.8498,-0.5842,0.3672,-0.4751,1.0841,-0.3759
0.8623,-0.803,-0.0734,-1.0311,1.0334,-0.4259,0.7822,-0.5587,0.8354,-0.128,0.8498,-0.5842,0.3672,-0.4751,1.0841,-0.3759
0.8195,-0.8029,-0.0747,-1.0457,0.9838,-0.4285,0.7457,-0.5579,0.9199,-0.1368,0.8449,-0.5771,0.3258,-0.3973,1.0595,-0.3778
0.8195,-0.8029,-0.0747,-1.0457,0.9838,-0.4285,0.7457,-0.5579,0.9199,-0.1368,0.8449,-0.5771,0.3258,-0.3973,1.0595,-0.3778
0.7994,-0.8108,-0.0897,-1.0404,0.9537,-0.436,0.7212,-0.5612,0.972,-0.1552,0.8256,-0.5703,0.2858,-0.3578,1.0518,-0.3893
0.7994,-0.8108,-0.0897,-1.0404,0.9537,-0.436,0.7212,-0.5612,0.972,-0.1552,0.8256,-0.5703,0.2858,-0.3578,1.0518,-0.3893
0.7881,-0.8068,-0.1075,-1.0228,0.955,-0.4425,0.7121,-0.561,0.9593,-0.1085,0.8114,-0.5707,0.2741,-0.3409,1.0587,-0.3917
0.7881,-0.8068,-0.1075,-1.0228,0.955,-0.4425,0.7121,-0.561,0.9593,-0.1085,0.8114,-0.5707,0.2741,-0.3409,1.0587,-0.3917
0.7994,-0.8108,-0.1029,-1.0131,0.9808,-0.4335,0.7276,-0.5574,0.9066,-0.1742,0.8312,-0.5992,0.2758,-0.3796,1.0728,-0.3896
0.7994,-0.8108,-0.1029,-1.0131,0.9808,-0.4335,0.7276,-0.5574,0.9066,-0.1742,0.8312,-0.5992,0.2758,-0.3796,1.0728,-0.3896
0.7994,-0.8108,-0.1029,-1.0131,0.9808,-0.4335,0.7276,-0.5574,0.9066,-0.1742,0.8312,-0.5992,0.2758,-0.3796,1.0728,-0.3896
0.8603,-0.8249,-0.0907,-1.0061,1.0399,-0.412,0.7699,-0.5604,0.9125,-0.2391,0.86,-0.6094,0.3208,-0.4082,1.1332,-0.3791
0.8603,-0.8249,-0.0907,-1.0061,1.0399,-0.412,0.7699,-0.5604,0.9125,-0.2391,0.86,-0.6094,0.3208,-0.4082,1.1332,-0.3791
0.9845,-0.7935,-0.0241,-0.9957,1.227,-0.3685,0.9081,-0.5521,0.9125,-0.2391,0.8921,-0.5614,0.5322,-0.4575,1.3229,-0.3501
0.9845,-0.7935,-0.0241,-0.9957,1.227,-0.3685,0.9081,-0.5521,0.9125,-0.2391,0.8921,-0.5614,0.5322,-0.4575,1.3229,-0.3501
0.9845,-0.7935,-0.0241,-0.9957,1.227,-0.3685,0.9081,-0.5521,0.9125,-0.2391,0.8921,-0.5614,0.5322,-0.4575,1.3229,-0.3501
1.0163,-0.7896,0.0219,-1.0044,1.3274,-0.3529,0.9587,-0.5337,0.9576,-0.2759,0.9062,-0.5501,0.6102,-0.4597,1.4133,-0.3355
1.0163,-0.7896,0.0219,-1.0044,1.3274,-0.3529,0.9587,-0.5337,0.9576,-0.2759,0.9062,-0.5501,0.6102,-0.4597,1.4133,-0.3355
1.0368,-0.7818,0.0568,-1.0054,1.4137,-0.3444,0.9965,-0.5229,1.0944,-0.3034,0.9252,-0.5459,0.6535,-0.4112,1.4898,-0.323
1.0368,-0.7818,0.0568,-1.0054,1.4137,-0.3444,0.9965,-0.5229,1.0944,-0.3034,0.9252,-0.5459,0.6535,-0.4112,1.4898,-0.323
1.0548,-0.7578,0.0815,-0.9914,1.491,-0.3367,1.0317,-0.508,1.213,-0.3034,0.9492,-0.549,0.6692,-0.3784,1.5732,-0.3201
1.0548,-0.7578,0.0815,-0.9914,1.491,-0.3367,1.0317,-0.508,1.213,-0.3034,0.9492,-0.549,0.6692,-0.3784,1.5732,-0.3201
1.0683,-0.7398,0.102,-0.9796,1.5657,-0.3342,1.0512,-0.4967,1.1883,-0.2106,0.9783,-0.5593,0.6745,-0.3674,1.6429,-0.3122
1.0683,-0.7398,0.102,-0.9796,1.5657,-0.3342,1.0512,-0.4967,1.1883,-0.2106,0.9783,-0.5593,0.6745,-0.3674,1.6429,-0.3122
1.0843,-0.7379,0.122,-0.9753,1.6205,-0.3267,1.0763,-0.4934,1.1551,-0.2199,1.0174,-0.5839,0.6469,-0.3833,1.6691,-0.3034
1.0843,-0.7379,0.122,-0.9753,1.6205,-0.3267,1.0763,-0.4934,1.1551,-0.2199,1.0174,-0.5839,0.6469,-0.3833,1.6691,-0.3034
1.0843,-0.7379,0.122,-0.9753,1.6205,-0.3267,1.0763,-0.4934,1.1551,-0.2199,1.0174,-0.5839,0.6469,-0.3833,1.6691,-0.3034
1.0843,-0.7379,0.122,-0.9753,1.6205,-0.3267,1.0763,-0.4934,1.1551,-0.2199,1.0174,-0.5839,0.6469,-0.3833,1.6691,-0.3034
1.1646,-0.7282,0.1461,-0.9686,1.6926,-0.3149,1.1383,-0.497,1.0696,-0.2108,1.046,-0.5723,0.6769,-0.445,1.6948,-0.3016
1.1646,-0.7282,0.1461,-0.9686,1.6926,-0.3149,1.1383,-0.497,1.0696,-0.2108,1.046,-0.5723,0.6769,-0.445,1.6948,-0.3016
1.1576,-0.7181,0.1378,-0.9733,1.6926,-0.3149,1.1388,-0.4911,1.0752,-0.2757,1.0411,-0.5651,0.7684,-0.5028,1.68,-0.3036
1.1576,-0.7181,0.1378,-0.9733,1.6926,-0.3149,1.1388,-0.4911,1.0752,-0.2757,1.0411,-0.5651,0.7684,-0.5028,1.68,-0.3036
1.1576,-0.7181,0.1378,-0.9733,1.6926,-0.3149,1.1388,-0.4911,1.0752,-0.2757,1.0411,-0.5651,0.7684,-0.5028,1.68,-0.3036
1.1119,-0.74,0.147,-1.0031,1.666,-0.32,1.1108,-0.4903,1.0752,-0.2757,1.0361,-0.5579,0.7962,-0.4872,1.6653,-0.3057
1.1119,-0.74,0.147,-1.0031,1.666,-0.32,1.1108,-0.4903,1.0752,-0.2757,1.0361,-0.5579,0.7962,-0.4872,1.6653,-0.3057
1.1119,-0.74,0.147,-1.0031,1.666,-0.32,1.1108,-0.4903,1.0752,-0.2757,1.0361,-0.5579,0.7962,-0.4872,1.6653,-0.3057
1.0642,-0.7839,0.1236,-1.0024,1.6054,-0.3338,1.0847,-0.5055,1.22,-0.2849,1.0311,-0.5507,0.6902,-0.3344,1.66,-0.3291
1.0642,-0.7839,0.1236,-1.0024,1.6054,-0.3338,1.0847,-0.5055,1.22,-0.2849,1.0311,-0.5507,0.6902,-0.3344,1.66,-0.3291
1.0482,-0.7858,0.1049,-0.992,1.5941,-0.3463,1.0633,-0.501,1.1689,-0.1826,1.0263,-0.5545,0.6732,-0.3284,1.6595,-0.3362
1.0482,-0.7858,0.1049,-0.992,1.5941,-0.3463,1.0633,-0.501,1.1689,-0.1826,1.0263,-0.5545,0.6732,-0.3284,1.6595,-0.3362
1.0482,-0.7858,0.1049,-0.992,1.5941,-0.3463,1.0633,-0.501,1.1689,-0.1826,1.0263,-0.5545,0.6732,-0.3284,1.6595,-0.3362
1.0392,-0.7977,0.0897,-0.9867,1.5828,-0.3588,1.0535,-0.5066,1.1357,-0.192,1.0366,-0.5799,0.6404,-0.3554,1.6201,-0.3259
1.0711,-0.7939,0.0786,-0.979,1.5689,-0.3581,1.0503,-0.5085,1.1551,-0.2199,1.0416,-0.587,0.6247,-0.3883,1.5912,-0.3229
1.1056,-0.8061,0.0634,-0.9736,1.5457,-0.3581,1.0559,-0.5166,1.1095,-0.1827,1.0269,-0.5764,0.6312,-0.4161,1.5766,-0.3249
1.1056,-0.8061,0.0634,-0.9736,1.5457,-0.3581,1.0559,-0.5166,1.1095,-0.1827,1.0269,-0.5764,0.6312,-0.4161,1.5766,-0.3249
1.1056,-0.8061,0.0634,-0.9736,1.5457,-0.3581,1.0559,-0.5166,1.1095,-0.1827,1.0269,-0.5764,0.6312,-0.4161,1.5766,-0.3249
1.0892,-0.77,0.0628,-0.981,1.5269,-0.3597,1.0647,-0.5227,1.0571,-0.1642,1.0316,-0.5727,0.6769,-0.445,1.5548,-0.3244
1.0892,-0.77,0.0628,-0.981,1.5269,-0.3597,1.0647,-0.5227,1.0571,-0.1642,1.0316,-0.5727,0.6769,-0.445,1.5548,-0.3244
1.0548,-0.7578,0.0691,-0.9984,1.4956,-0.3671,1.0429,-0.5241,1.0309,-0.1549,1.0169,-0.562,0.6704,-0.4172,1.5293,-0.3262
1.0548,-0.7578,0.0691,-0.9984,1.4956,-0.3671,1.0429,-0.5241,1.0309,-0.1549,1.0169,-0.562,0.6704,-0.4172,1.5293,-0.3262
1.0458,-0.7698,0.0685,-1.0057,1.4712,-0.375,1.0211,-0.5255,1.1163,-0.164,1.0166,-0.5511,0.6456,-0.3444,1.5147,-0.3283
1.0458,-0.7698,0.0685,-1.0057,1.4712,-0.375,1.0211,-0.5255,1.1163,-0.164,1.0166,-0.5511,0.6456,-0.3444,1.5147,-0.3283
1.0298,-0.7717,0.0575,-0.998,1.4469,-0.3828,0.9993,-0.5269,1.1495,-0.1545,0.9972,-0.5442,0.6338,-0.3273,1.5105,-0.3376
1.0298,-0.7717,0.0575,-0.998,1.4469,-0.3828,0.9993,-0.5269,1.1495,-0.1545,0.9972,-0.5442,0.6338,-0.3273,1.5105,-0.3376
0.9979,-0.7756,0.0382,-0.995,1.4245,-0.3933,0.9711,-0.5321,1.1105,-0.0983,0.9828,-0.5445,0.6286,-0.3383,1.4955,-0.3466
0.9979,-0.7756,0.0382,-0.995,1.4245,-0.3933,0.9711,-0.5321,1.1105,-0.0983,0.9828,-0.5445,0.6286,-0.3383,1.4955,-0.3466
0.982,-0.7775,0.0306,-0.9924,1.4096,-0.4003,0.9495,-0.5335,1.0503,-0.1829,0.9692,-0.5777,0.5282,-0.3414,1.4452,-0.3432
0.982,-0.7775,0.0306,-0.9924,1.4096,-0.4003,0.9495,-0.5335,1.0503,-0.1829,0.9692,-0.5777,0.5282,-0.3414,1.4452,-0.3432
0.989,-0.7875,0.0155,-0.987,1.3761,-0.3946,0.9338,-0.537,0.9518,-0.2111,0.9747,-0.6068,0.4621,-0.3564,1.4017,-0.3493
0.989,-0.7875,0.0155,-0.987,1.3761,-0.3946,0.9338,-0.537,0.9518,-0.2111,0.9747,-0.6068,0.4621,-0.3564,1.4017,-0.3493
1.0187,-0.8056,0.0039,-0.9867,1.3382,-0.3874,0.9273,-0.5408,0.9249,-0.2852,0.941,-0.6002,0.4248,-0.3942,1.3793,-0.3629
1.0163,-0.7896,-0.0002,-0.989,1.3066,-0.3844,0.9361,-0.5469,0.8991,-0.2761,0.9117,-0.5791,0.4262,-0.4327,1.3504,-0.367
1.0163,-0.7896,-0.0002,-0.989,1.3066,-0.3844,0.9361,-0.5469,0.8991,-0.2761,0.9117,-0.5791,0.4262,-0.4327,1.3504,-0.367
1.0163,-0.7896,-0.0002,-0.989,1.3066,-0.3844,0.9361,-0.5469,0.8991,-0.2761,0.9117,-0.5791,0.4262,-0.4327,1.3504,-0.367
1.0163,-0.7896,-0.0002,-0.989,1.3066,-0.3844,0.9361,-0.5469,0.8991,-0.2761,0.9117,-0.5791,0.4262,-0.4327,1.3504,-0.367
0.9865,-0.7716,-0.0084,-0.9937,1.274,-0.3892,0.9241,-0.5427,0.9182,-0.3036,0.8828,-0.5689,0.4714,-0.4614,1.3114,-0.3639
0.9865,-0.7716,-0.0084,-0.9937,1.274,-0.3892,0.9241,-0.5427,0.9182,-0.3036,0.8828,-0.5689,0.4714,-0.4614,1.3114,-0.3639
0.9865,-0.7716,-0.0084,-0.9937,1.274,-0.3892,0.9241,-0.5427,0.9182,-0.3036,0.8828,-0.5689,0.4714,-0.4614,1.3114,-0.3639
0.9369,-0.7993,-0.0108,-1.0231,1.1942,-0.4057,0.8603,-0.5352,1.0477,-0.3494,0.8542,-0.5696,0.4533,-0.4169,1.2539,-0.3721
0.9369,-0.7993,-0.0108,-1.0231,1.1942,-0.4057,0.8603,-0.5352,1.0477,-0.3494,0.8542,-0.5696,0.4533,-0.4169,1.2539,-0.3721
0.9072,-0.7813,-0.0253,-1.0104,1.1666,-0.4082,0.8479,-0.5368,1.0491,-0.2665,0.8449,-0.5771,0.4197,-0.4051,1.2461,-0.3835
0.9072,-0.7813,-0.0253,-1.0104,1.1666,-0.4082,0.8479,-0.5368,1.0491,-0.2665,0.8449,-0.5771,0.4197,-0.4051,1.2461,-0.3835
0.8845,-0.7732,-0.0328,-1.0077,1.1582,-0.4194,0.8328,-0.5345,0.9778,-0.2203,0.8455,-0.5989,0.3876,-0.4318,1.2143,-0.3829
0.8845,-0.7732,-0.0328,-1.0077,1.1582,-0.4194,0.8328,-0.5345,0.9778,-0.2203,0.8455,-0.5989,0.3876,-0.4318,1.2143,-0.3829
0.8731,-0.7692,-0.0473,-0.9951,1.1362,-0.4156,0.8177,-0.5322,0.9192,-0.2206,0.8603,-0.6203,0.3222,-0.4466,1.1751,-0.3868
0.8731,-0.7692,-0.0473,-0.9951,1.1362,-0.4156,0.8177,-0.5322,0.9192,-0.2206,0.8603,-0.6203,0.3222,-0.4466,1.1751,-0.3868
0.8958,-0.7773,-0.0693,-0.9797,1.1099,-0.4104,0.8145,-0.5341,0.874,-0.1837,0.8455,-0.5989,0.2839,-0.4457,1.1434,-0.3863
0.8958,-0.7773,-0.0693,-0.9797,1.1099,-0.4104,0.8145,-0.5341,0.874,-0.1837,0.8455,-0.5989,0.2839,-0.4457,1.1434,-0.3863
0.9003,-0.7713,-0.0884,-0.9768,1.0806,-0.4102,0.8168,-0.5439,0.8415,-0.1931,0.8166,-0.5887,0.3135,-0.5065,1.1044,-0.3902
0.9003,-0.7713,-0.0884,-0.9768,1.0806,-0.4102,0.8168,-0.5439,0.8415,-0.1931,0.8166,-0.5887,0.3135,-0.5065,1.1044,-0.3902
0.9003,-0.7713,-0.0884,-0.9768,1.0806,-0.4102,0.8168,-0.5439,0.8415,-0.1931,0.8166,-0.5887,0.3135,-0.5065,1.1044,-0.3902
0.8504,-0.7612,-0.1086,-0.9885,1.0399,-0.412,0.7926,-0.5414,0.7959,-0.2396,0.7882,-0.5894,0.3148,-0.5445,1.062,-0.3964
0.8101,-0.7771,-0.1214,-1.0028,0.9951,-0.4123,0.762,-0.5426,0.8666,-0.2854,0.769,-0.5827,0.2803,-0.4947,1.0373,-0.3983
0.8101,-0.7771,-0.1214,-1.0028,0.9951,-0.4123,0.762,-0.5426,0.8666,-0.2854,0.769,-0.5827,0.2803,-0.4947,1.0373,-0.3983
0.7944,-0.7791,-0.1364,-0.9975,0.9793,-0.4128,0.762,-0.5426,0.9249,-0.2852,0.7641,-0.5755,0.2788,-0.4565,1.0543,-0.4078
0.7944,-0.7791,-0.1364,-0.9975,0.9793,-0.4128,0.762,-0.5426,0.9249,-0.2852,0.7641,-0.5755,0.2788,-0.4565,1.0543,-0.4078
0.7831,-0.7751,-0.1323,-0.9952,1.0041,-0.4115,0.7656,-0.5348,0.9259,-0.202,0.7733,-0.568,0.299,-0.4131,1.0935,-0.3969
0.7831,-0.7751,-0.1323,-0.9952,1.0041,-0.4115,0.7656,-0.5348,0.9259,-0.202,0.7733,-0.568,0.299,-0.4131,1.0935,-0.3969
0.8057,-0.783,-0.1167,-0.9932,1.0702,-0.4045,0.7934,-0.5296,0.9192,-0.2206,0.8166,-0.5887,0.3375,-0.414,1.1442,-0.3724
0.8057,-0.783,-0.1167,-0.9932,1.0702,-0.4045,0.7934,-0.5296,0.9192,-0.2206,0.8166,-0.5887,0.3375,-0.414,1.1442,-0.3724
0.8057,-0.783,-0.1167,-0.9932,1.0702,-0.4045,0.7934,-0.5296,0.9192,-0.2206,0.8166,-0.5887,0.3375,-0.414,1.1442,-0.3724
0.8554,-0.7931,-0.0896,-0.9915,1.1499,-0.384,0.8336,-0.5228,0.9643,-0.2574,0.8548,-0.5914,0.3927,-0.4209,1.2126,-0.3504
0.9324,-0.8053,-0.0658,-0.9847,1.243,-0.368,0.8891,-0.5182,1.0038,-0.2295,0.8874,-0.5651,0.4584,-0.406,1.3131,-0.3359
0.9324,-0.8053,-0.0658,-0.9847,1.243,-0.368,0.8891,-0.5182,1.0038,-0.2295,0.8874,-0.5651,0.4584,-0.406,1.3131,-0.3359
0.9637,-0.7635,-0.0345,-0.9807,1.3373,-0.3482,0.9656,-0.5241,0.9913,-0.1831,0.9108,-0.5463,0.5413,-0.3971,1.3964,-0.3188
0.9637,-0.7635,-0.0345,-0.9807,1.3373,-0.3482,0.9656,-0.5241,0.9913,-0.1831,0.9108,-0.5463,0.5413,-0.3971,1.3964,-0.3188
0.9726,-0.7515,-0.0118,-0.9887,1.4055,-0.3374,0.9942,-0.513,0.9981,-0.1644,0.9393,-0.5346,0.6482,-0.4221,1.469,-0.3085
0.9726,-0.7515,-0.0118,-0.9887,1.4055,-0.3374,0.9942,-0.513,0.9981,-0.1644,0.9393,-0.5346,0.6482,-0.4221,1.469,-0.3085
0.984,-0.7556,0.0108,-0.9967,1.4572,-0.331,1.0132,-0.5075,1.0639,-0.1455,0.9678,-0.5229,0.6915,-0.3734,1.5312,-0.298
0.984,-0.7556,0.0108,-0.9967,1.4572,-0.331,1.0132,-0.5075,1.0639,-0.1455,0.9678,-0.5229,0.6915,-0.3734,1.5312,-0.298
1.0044,-0.7476,0.0272,-0.9873,1.5041,-0.3269,1.0322,-0.5021,1.1232,-0.1452,0.9819,-0.5116,0.7073,-0.3404,1.5926,-0.3017
1.0044,-0.7476,0.0272,-0.9873,1.5041,-0.3269,1.0322,-0.5021,1.1232,-0.1452,0.9819,-0.5116,0.7073,-0.3404,1.5926,-0.3017
1.0228,-0.7617,0.0278,-0.98,1.5412,-0.3276,1.0387,-0.4983,1.0909,-0.0701,0.9916,-0.515,0.7126,-0.3294,1.6472,-0.3029
1.0228,-0.7617,0.0278,-0.98,1.5412,-0.3276,1.0387,-0.4983,1.0909,-0.0701,0.9916,-0.515,0.7126,-0.3294,1.6472,-0.3029
1.0228,-0.7617,0.0394,-0.9803,1.5695,-0.3252,1.0387,-0.4983,1.0317,-0.0705,0.9919,-0.526,0.6902,-0.3344,1.6653,-0.3057
1.0228,-0.7617,0.0394,-0.9803,1.5695,-0.3252,1.0387,-0.4983,1.0317,-0.0705,0.9919,-0.526,0.6902,-0.3344,1.6653,-0.3057
1.0617,-0.7679,0.0511,-0.9806,1.5839,-0.3221,1.0508,-0.5026,1.0249,-0.0893,1.0066,-0.5367,0.6797,-0.3564,1.6724,-0.3082
1.0617,-0.7679,0.0511,-0.9806,1.5839,-0.3221,1.0508,-0.5026,1.0249,-0.0893,1.0066,-0.5367,0.6797,-0.3564,1.6724,-0.3082
1.0753,-0.7499,0.0552,-0.9783,1.5864,-0.3209,1.0689,-0.509,0.9921,-0.0989,1.0016,-0.5294,0.6456,-0.3444,1.6653,-0.3057
1.0753,-0.7499,0.0552,-0.9783,1.5864,-0.3209,1.0689,-0.509,0.9921,-0.0989,1.0016,-0.5294,0.6456,-0.3444,1.6653,-0.3057
1.0613,-0.7298,0.0552,-0.9783,1.5764,-0.3256,1.0689,-0.509,1.0048,-0.1457,0.9969,-0.5332,0.6863,-0.3844,1.6329,-0.2979
1.0613,-0.7298,0.0552,-0.9783,1.5764,-0.3256,1.0689,-0.509,1.0048,-0.1457,0.9969,-0.5332,0.6863,-0.3844,1.6329,-0.2979
1.0339,-0.7277,0.0622,-0.9883,1.55,-0.3307,1.0503,-0.5085,1.0503,-0.1829,0.9825,-0.5336,0.6915,-0.3734,1.5969,-0.2924
1.0339,-0.7277,0.0622,-0.9883,1.55,-0.3307,1.0503,-0.5085,1.0503,-0.1829,0.9825,-0.5336,0.6915,-0.3734,1.5969,-0.2924
1.0269,-0.7176,0.0552,-0.9783,1.5217,-0.3331,1.0322,-0.5021,1.1095,-0.1827,0.9631,-0.5267,0.6745,-0.3674,1.5817,-0.3015
1.0269,-0.7176,0.0552,-0.9783,1.5217,-0.3331,1.0322,-0.5021,1.1095,-0.1827,0.9631,-0.5267,0.6745,-0.3674,1.5817,-0.3015
1.0154,-0.7136,0.0441,-0.9706,1.5111,-0.3418,1.0169,-0.4997,1.1163,-0.164,0.9586,-0.5415,0.6522,-0.3724,1.5595,-0.3081
1.0154,-0.7136,0.0441,-0.9706,1.5111,-0.3418,1.0169,-0.4997,1.1163,-0.164,0.9586,-0.5415,0.6522,-0.3724,1.5595,-0.3081
0.988,-0.7115,0.0476,-0.9756,1.4986,-0.3476,0.9983,-0.4993,1.0958,-0.22,0.9592,-0.5634,0.5973,-0.4041,1.5265,-0.3144
0.988,-0.7115,0.0476,-0.9756,1.4986,-0.3476,0.9983,-0.4993,1.0958,-0.22,0.9592,-0.5634,0.5973,-0.4041,1.5265,-0.3144
0.988,-0.7115,0.0476,-0.9756,1.4986,-0.3476,0.9983,-0.4993,1.0958,-0.22,0.9592,-0.5634,0.5973,-0.4041,1.5265,-0.3144
1.0064,-0.7256,0.0366,-0.9679,1.4823,-0.3481,0.9891,-0.499,1.0889,-0.2386,0.9692,-0.5777,0.5764,-0.4477,1.5039,-0.328
1.0179,-0.7296,0.029,-0.9652,1.4661,-0.3485,0.9886,-0.5049,1.0628,-0.2294,0.9396,-0.5456,0.5712,-0.4586,1.4893,-0.3301
1.0179,-0.7296,0.029,-0.9652,1.4661,-0.3485,0.9886,-0.5049,1.0628,-0.2294,0.9396,-0.5456,0.5712,-0.4586,1.4893,-0.3301
0.988,-0.7115,0.0173,-0.9649,1.4492,-0.3528,0.9826,-0.5028,1.0491,-0.2665,0.9202,-0.5387,0.623,-0.5149,1.4705,-0.3414
0.988,-0.7115,0.0173,-0.9649,1.4492,-0.3528,0.9826,-0.5028,1.0491,-0.2665,0.9202,-0.5387,0.623,-0.5149,1.4705,-0.3414
0.9701,-0.7355,0.008,-0.9843,1.4162,-0.3576,0.9549,-0.5021,1.0231,-0.2573,0.9012,-0.5429,0.5881,-0.4646,1.4344,-0.343
0.9701,-0.7355,0.008,-0.9843,1.4162,-0.3576,0.9549,-0.5021,1.0231,-0.2573,0.9012,-0.5429,0.5881,-0.4646,1.4344,-0.343
0.9384,-0.7394,-0.0037,-0.984,1.3858,-0.3612,0.9512,-0.5099,1.1344,-0.2756,0.9012,-0.5429,0.553,-0.414,1.4302,-0.3523
0.9384,-0.7394,-0.0037,-0.984,1.3858,-0.3612,0.9512,-0.5099,1.1344,-0.2756,0.9012,-0.5429,0.553,-0.414,1.4302,-0.3523
0.9384,-0.7394,-0.0037,-0.984,1.3858,-0.3612,0.9512,-0.5099,1.1344,-0.2756,0.9012,-0.5429,0.553,-0.414,1.4302,-0.3523
0.9181,-0.7474,-0.0298,-0.971,1.3554,-0.3648,0.9388,-0.5116,1.0901,-0.1547,0.9012,-0.5429,0.5296,-0.3802,1.4331,-0.364
0.8864,-0.7513,-0.0455,-0.973,1.3375,-0.3769,0.9203,-0.5111,1.0317,-0.0705,0.8869,-0.5432,0.5127,-0.3743,1.4083,-0.3588
0.882,-0.7573,-0.0571,-0.9727,1.314,-0.3809,0.9019,-0.5107,0.9988,-0.0801,0.8924,-0.5723,0.4467,-0.3892,1.3653,-0.3579
0.882,-0.7573,-0.0571,-0.9727,1.314,-0.3809,0.9019,-0.5107,0.9988,-0.0801,0.8924,-0.5723,0.4467,-0.3892,1.3653,-0.3579
0.882,-0.7573,-0.0571,-0.9727,1.314,-0.3809,0.9019,-0.5107,0.9988,-0.0801,0.8924,-0.5723,0.4467,-0.3892,1.3653,-0.3579
0.9117,-0.7753,-0.0762,-0.9697,1.2763,-0.3737,0.8863,-0.5142,1.0115,-0.127,0.8731,-0.5655,0.4146,-0.4159,1.3225,-0.3571
0.9117,-0.7753,-0.0762,-0.9697,1.2763,-0.3737,0.8863,-0.5142,1.0115,-0.127,0.8731,-0.5655,0.4146,-0.4159,1.3225,-0.3571
0.9117,-0.7753,-0.0762,-0.9697,1.2763,-0.3737,0.8863,-0.5142,1.0115,-0.127,0.8731,-0.5655,0.4146,-0.4159,1.3225,-0.3571
