1.1195,-1.2618,4.1667,-1.652,2.0582,-1.2219,3.2878,-0.9321,2.4238,-1.0627,4.4048,-1.8496,0.1236,-1.493,1.8688,-1.5401
1.1195,-1.2618,4.1667,-1.652,2.0582,-1.2219,3.2878,-0.9321,2.4238,-1.0627,4.4048,-1.8496,0.1236,-1.493,1.8688,-1.5401
1.1833,-1.354,4.1023,-1.5981,2.0582,-1.2219,3.2541,-0.9446,2.3945,-1.0694,4.338,-1.8535,0.0769,-1.4952,1.8725,-1.5584
1.1833,-1.354,4.1023,-1.5981,2.0582,-1.2219,3.2541,-0.9446,2.3945,-1.0694,4.338,-1.8535,0.0769,-1.4952,1.8725,-1.5584
1.2649,-1.3828,4.0915,-1.6021,2.1416,-1.2398,3.2392,-0.9596,2.2892,-1.0151,4.3018,-1.8614,0.0559,-1.5066,1.8484,-1.5627
1.2649,-1.3828,4.0915,-1.6021,2.1416,-1.2398,3.2392,-0.9596,2.2892,-1.0151,4.3018,-1.8614,0.0559,-1.5066,1.8484,-1.5627
1.2649,-1.3828,4.0592,-1.614,2.2257,-1.2926,3.2093,-0.9652,2.0978,-0.9816,4.2298,-1.8771,0.0137,-1.5151,1.8143,-1.5656
1.3149,-1.3657,4.0448,-1.6322,2.2675,-1.2843,3.1796,-0.9708,1.8673,-0.9849,4.1707,-1.9109,-0.0495,-1.5208,1.7584,-1.5628
1.3149,-1.3657,4.0448,-1.6322,2.2675,-1.2843,3.1796,-0.9708,1.8673,-0.9849,4.1707,-1.9109,-0.0495,-1.5208,1.7584,-1.5628
1.233,-1.3368,4.0198,-1.6543,2.2147,-1.2425,3.1387,-0.9726,1.7112,-0.9971,4.1537,-1.9458,-0.104,-1.5249,1.7166,-1.5671
1.233,-1.3368,4.0198,-1.6543,2.2147,-1.2425,3.1387,-0.9726,1.7112,-0.9971,4.1537,-1.9458,-0.104,-1.5249,1.7166,-1.5671
1.233,-1.3368,4.0198,-1.6543,2.2147,-1.2425,3.1387,-0.9726,1.7112,-0.9971,4.1537,-1.9458,-0.104,-1.5249,1.7166,-1.5671
1.4289,-1.4407,4.0054,-1.6724,2.1091,-1.1588,3.0906,-0.9757,1.6276,-1.0179,4.1181,-1.9536,-0.129,-1.53,1.6887,-1.5721
1.4289,-1.4407,4.0054,-1.6724,2.1091,-1.1588,3.0906,-0.9757,1.6276,-1.0179,4.1181,-1.9536,-0.129,-1.53,1.6887,-1.5721
1.6258,-1.5449,3.9663,-1.674,2.057,-1.152,3.0759,-0.9906,1.6862,-1.0553,4.0819,-1.9408,-0.1374,-1.5317,1.6688,-1.5757
1.6258,-1.5449,3.9663,-1.674,2.057,-1.152,3.0759,-0.9906,1.6862,-1.0553,4.0819,-1.9408,-0.1374,-1.5317,1.6688,-1.5757
1.594,-1.4991,3.9272,-1.6756,2.0051,-1.1452,3.0722,-1.0094,1.7015,-1.0774,4.0277,-1.9217,-0.154,-1.5351,1.6509,-1.582
1.594,-1.4991,3.9272,-1.6756,2.0051,-1.1452,3.0722,-1.0094,1.7015,-1.0774,4.0277,-1.9217,-0.154,-1.5351,1.6509,-1.582
1.4474,-1.3777,3.8883,-1.6772,1.9639,-1.1539,3.0537,-1.0189,1.6862,-1.0553,3.9619,-1.9052,-0.1372,-1.5457,1.6311,-1.5856
1.4474,-1.3777,3.8883,-1.6772,1.9639,-1.1539,3.0537,-1.0189,1.6862,-1.0553,3.9619,-1.9052,-0.1372,-1.5457,1.6311,-1.5856
1.4474,-1.3777,3.8883,-1.6772,1.9639,-1.1539,3.0537,-1.0189,1.6862,-1.0553,3.9619,-1.9052,-0.1372,-1.5457,1.6311,-1.5856
1.4474,-1.3777,3.8883,-1.6772,1.9639,-1.1539,3.0537,-1.0189,1.6862,-1.0553,3.9619,-1.9052,-0.1372,-1.5457,1.6311,-1.5856
1.1514,-1.308,3.8353,-1.6969,1.9341,-1.2126,2.9509,-1.0026,1.6276,-1.0179,3.8619,-1.9173,-0.137,-1.5597,1.5817,-1.5914
1.1514,-1.308,3.8353,-1.6969,1.9341,-1.2126,2.9509,-1.0026,1.6276,-1.0179,3.8619,-1.9173,-0.137,-1.5597,1.5817,-1.5914
1.1514,-1.308,3.8353,-1.6969,1.9341,-1.2126,2.9509,-1.0026,1.6276,-1.0179,3.8619,-1.9173,-0.137,-1.5597,1.5817,-1.5914
1.102,-1.3252,3.8634,-1.7374,1.9038,-1.2364,2.8924,-1.002,1.6737,-1.0843,3.8277,-1.9457,-0.1913,-1.5498,1.5443,-1.595
1.102,-1.3252,3.8388,-1.7211,1.9038,-1.2364,2.8524,-1.0038,1.7754,-1.1369,3.8052,-1.9714,-0.2498,-1.5338,1.5128,-1.607
1.102,-1.3252,3.8388,-1.7211,1.9038,-1.2364,2.8524,-1.0038,1.7754,-1.1369,3.8052,-1.9714,-0.2498,-1.5338,1.5128,-1.607
1.1338,-1.3711,3.779,-1.6923,1.8524,-1.2298,2.8197,-1.0162,1.8188,-1.1522,3.7642,-1.9703,-0.3039,-1.5239,1.4852,-1.6183
1.233,-1.3368,3.7545,-1.6759,1.8728,-1.2255,2.798,-1.0205,1.7728,-1.0859,3.7233,-1.9693,-0.3578,-1.5142,1.4636,-1.6316
1.233,-1.3368,3.7545,-1.6759,1.8728,-1.2255,2.798,-1.0205,1.7728,-1.0859,3.7233,-1.9693,-0.3578,-1.5142,1.4636,-1.6316
1.233,-1.3368,3.7545,-1.6759,1.8728,-1.2255,2.798,-1.0205,1.7728,-1.0859,3.7233,-1.9693,-0.3578,-1.5142,1.4636,-1.6316
1.233,-1.3368,3.7545,-1.6759,1.8728,-1.2255,2.798,-1.0205,1.7728,-1.0859,3.7233,-1.9693,-0.3578,-1.5142,1.4636,-1.6316
1.2508,-1.2733,3.7369,-1.6697,1.9864,-1.2541,2.7872,-1.0286,1.7112,-0.9971,3.7002,-1.9745,-0.3743,-1.5176,1.4479,-1.6407
1.2508,-1.2733,3.7369,-1.6697,1.9864,-1.2541,2.7872,-1.0286,1.7112,-0.9971,3.7002,-1.9745,-0.3743,-1.5176,1.4479,-1.6407
1.2508,-1.2733,3.7369,-1.6697,1.9864,-1.2541,2.7872,-1.0286,1.7112,-0.9971,3.7002,-1.9745,-0.3743,-1.5176,1.4479,-1.6407
1.2508,-1.2733,3.765,-1.672,2.1946,-1.3162,2.8488,-1.0225,1.5138,-0.9944,3.7418,-1.9959,-0.3408,-1.5387,1.4344,-1.615
1.2508,-1.2733,3.765,-1.672,2.1946,-1.3162,2.8488,-1.0225,1.5138,-0.9944,3.7418,-1.9959,-0.3408,-1.5387,1.4344,-1.615
1.201,-1.2907,3.8388,-1.6828,2.184,-1.3009,2.9217,-1.0083,1.4741,-1.0304,3.8593,-2.0106,-0.3037,-1.5379,1.4717,-1.5988
1.201,-1.2907,3.8388,-1.6828,2.184,-1.3009,2.9217,-1.0083,1.4741,-1.0304,3.8593,-2.0106,-0.3037,-1.5379,1.4717,-1.5988
1.201,-1.2907,3.8388,-1.6828,2.184,-1.3009,2.9217,-1.0083,1.4741,-1.0304,3.8593,-2.0106,-0.3037,-1.5379,1.4717,-1.5988
1.1195,-1.2618,3.945,-1.6818,2.1624,-1.2356,3.0059,-0.986,1.5016,-1.0235,4.0364,-2.0127,-0.225,-1.5286,1.5444,-1.5824
1.1195,-1.2618,3.945,-1.6818,2.1624,-1.2356,3.0059,-0.986,1.5016,-1.0235,4.0364,-2.0127,-0.225,-1.5286,1.5444,-1.5824
1.1195,-1.2618,3.945,-1.6818,2.1624,-1.2356,3.0059,-0.986,1.5016,-1.0235,4.0364,-2.0127,-0.225,-1.5286,1.5444,-1.5824
1.6131,-1.4363,4.1237,-1.629,2.1186,-1.1038,3.2205,-0.9449,1.8263,-1.021,4.3219,-1.9302,-0.0879,-1.4792,1.7048,-1.5566
1.6131,-1.4363,4.1237,-1.629,2.1186,-1.1038,3.2205,-0.9449,1.8263,-1.021,4.3219,-1.9302,-0.0879,-1.4792,1.7048,-1.5566
1.6131,-1.4363,4.1237,-1.629,2.1186,-1.1038,3.2205,-0.9449,1.8263,-1.021,4.3219,-1.9302,-0.0879,-1.4792,1.7048,-1.5566
1.6321,-1.373,4.2067,-1.6116,2.1286,-1.084,3.3328,-0.948,1.999,-1.0314,4.3932,-1.8731,-0.0292,-1.4671,1.7706,-1.548
1.6321,-1.373,4.2067,-1.6116,2.1286,-1.084,3.3328,-0.948,1.999,-1.0314,4.3932,-1.8731,-0.0292,-1.4671,1.7706,-1.548
1.6321,-1.373,4.2067,-1.6116,2.1286,-1.084,3.3328,-0.948,1.999,-1.0314,4.3932,-1.8731,-0.0292,-1.4671,1.7706,-1.548
1.4518,-1.2037,4.2901,-1.5942,2.2133,-1.1373,3.4458,-0.9391,2.1866,-1.013,4.4835,-1.8221,0.1022,-1.476,1.8627,-1.5443
1.4518,-1.2037,4.2901,-1.5942,2.2133,-1.1373,3.4458,-0.9391,2.1866,-1.013,4.4835,-1.8221,0.1022,-1.476,1.8627,-1.5443
1.1864,-1.1804,4.3336,-1.6174,2.1608,-1.1304,3.4383,-0.9283,2.171,-0.9904,4.4894,-1.8102,0.1276,-1.4708,1.8789,-1.5415
1.1864,-1.1804,4.3336,-1.6174,2.1608,-1.1304,3.4383,-0.9283,2.171,-0.9904,4.4894,-1.8102,0.1276,-1.4708,1.8789,-1.5415
1.1864,-1.1804,4.3336,-1.6174,2.1608,-1.1304,3.4383,-0.9283,2.171,-0.9904,4.4894,-1.8102,0.1276,-1.4708,1.8789,-1.5415
1.0381,-1.2331,4.3661,-1.6445,2.1299,-1.1545,3.4157,-0.9203,2.2155,-1.0062,4.4957,-1.8194,0.1231,-1.4504,1.8869,-1.5401
1.0701,-1.2792,4.3843,-1.6509,2.0984,-1.1434,3.4044,-0.9163,2.334,-1.031,4.5143,-1.826,0.0973,-1.4271,1.8849,-1.5372
1.1514,-1.308,4.3517,-1.6238,2.1299,-1.1545,3.4006,-0.9231,2.4394,-1.0853,4.4899,-1.8312,0.076,-1.4243,1.8809,-1.5379
1.1514,-1.308,4.3517,-1.6238,2.1299,-1.1545,3.4006,-0.9231,2.4394,-1.0853,4.4899,-1.8312,0.076,-1.4243,1.8809,-1.5379
1.233,-1.3368,4.3264,-1.607,2.1614,-1.1656,3.4043,-0.9285,2.4394,-1.0853,4.4777,-1.8338,0.0591,-1.4278,1.8949,-1.545
1.233,-1.3368,4.3264,-1.607,2.1614,-1.1656,3.4043,-0.9285,2.4394,-1.0853,4.4777,-1.8338,0.0591,-1.4278,1.8949,-1.545
1.233,-1.3368,4.3264,-1.607,2.1614,-1.1656,3.4043,-0.9285,2.4394,-1.0853,4.4777,-1.8338,0.0591,-1.4278,1.8949,-1.545
1.333,-1.3024,4.3011,-1.5903,2.2347,-1.1682,3.4043,-0.9285,2.3924,-1.0174,4.4592,-1.8273,0.0506,-1.4295,1.9109,-1.5485
1.333,-1.3024,4.3011,-1.5903,2.2347,-1.1682,3.4043,-0.9285,2.3924,-1.0174,4.4592,-1.8273,0.0506,-1.4295,1.9109,-1.5485
1.333,-1.3024,4.3011,-1.5903,2.2347,-1.1682,3.4043,-0.9285,2.3924,-1.0174,4.4592,-1.8273,0.0506,-1.4295,1.9109,-1.5485
1.3832,-1.2851,4.2829,-1.5839,2.2981,-1.1906,3.4043,-0.9285,2.3026,-0.9857,4.4534,-1.8391,0.0337,-1.4329,1.899,-1.5379
1.3832,-1.2851,4.2829,-1.5839,2.2981,-1.1906,3.4043,-0.9285,2.3026,-0.9857,4.4534,-1.8391,0.0337,-1.4329,1.899,-1.5379
1.4154,-1.3315,4.2792,-1.5982,2.2766,-1.1597,3.3742,-0.9219,2.1422,-0.9973,4.5036,-1.8914,0.0086,-1.4523,1.8791,-1.5287
1.4154,-1.3315,4.2792,-1.5982,2.2766,-1.1597,3.3742,-0.9219,2.1422,-0.9973,4.5036,-1.8914,0.0086,-1.4523,1.8791,-1.5287
1.7156,-1.4025,4.2864,-1.6085,2.2336,-1.0977,3.3629,-0.9179,2.129,-1.0266,4.4978,-1.9031,0.0045,-1.4603,1.8731,-1.5266
1.7156,-1.4025,4.2864,-1.6085,2.2336,-1.0977,3.3629,-0.9179,2.129,-1.0266,4.4978,-1.9031,0.0045,-1.4603,1.8731,-1.5266
1.7156,-1.4025,4.2864,-1.6085,2.2336,-1.0977,3.3629,-0.9179,2.129,-1.0266,4.4978,-1.9031,0.0045,-1.4603,1.8731,-1.5266
1.7156,-1.4025,4.2864,-1.6085,2.2336,-1.0977,3.3629,-0.9179,2.129,-1.0266,4.4978,-1.9031,0.0045,-1.4603,1.8731,-1.5266
1.9679,-1.4917,4.3007,-1.6292,2.1804,-1.0554,3.3516,-0.9262,2.1734,-1.0423,4.4851,-1.8848,0.0214,-1.4568,1.8631,-1.5252
1.9679,-1.4917,4.3007,-1.6292,2.1804,-1.0554,3.3516,-0.9262,2.1734,-1.0423,4.4851,-1.8848,0.0214,-1.4568,1.8631,-1.5252
2.0848,-1.568,4.2537,-1.6204,2.1387,-1.0642,3.3441,-0.9398,2.2022,-1.0355,4.4539,-1.86,0.0129,-1.4585,1.855,-1.5266
1.9556,-1.3817,4.2356,-1.614,2.1179,-1.0685,3.3553,-0.9559,2.2155,-1.0062,4.4227,-1.8352,0.0129,-1.4585,1.8429,-1.5288
1.8057,-1.2578,4.1958,-1.6156,2.1078,-1.0884,3.3364,-0.9655,2.2155,-1.0062,4.3858,-1.8221,0.0512,-1.4721,1.8348,-1.5366
1.8057,-1.2578,4.1958,-1.6156,2.1078,-1.0884,3.3364,-0.9655,2.2155,-1.0062,4.3858,-1.8221,0.0512,-1.4721,1.8348,-1.5366
1.8057,-1.2578,4.1958,-1.6156,2.1078,-1.0884,3.3364,-0.9655,2.2155,-1.0062,4.3858,-1.8221,0.0512,-1.4721,1.8348,-1.5366
1.5534,-1.1686,4.1704,-1.6377,2.0877,-1.1279,3.2877,-0.9686,2.171,-0.9904,4.3495,-1.83,0.0769,-1.4952,1.8107,-1.5409
1.5534,-1.1686,4.1704,-1.6377,2.0877,-1.1279,3.2877,-0.9686,2.171,-0.9904,4.3495,-1.83,0.0769,-1.4952,1.8107,-1.5409
1.2362,-1.1628,4.1414,-1.674,2.0157,-1.1606,3.2093,-0.9652,2.1134,-1.0041,4.2892,-1.8432,0.0345,-1.4896,1.7826,-1.5459
1.2362,-1.1628,4.1414,-1.674,2.0157,-1.1606,3.2093,-0.9652,2.1134,-1.0041,4.2892,-1.8432,0.0345,-1.4896,1.7826,-1.5459
1.1368,-1.198,4.1198,-1.6819,2.0057,-1.1802,3.1387,-0.9605,2.129,-1.0266,4.2412,-1.8537,-0.0037,-1.4761,1.7546,-1.5509
1.1368,-1.198,4.1198,-1.6819,2.0057,-1.1802,3.1387,-0.9605,2.129,-1.0266,4.2412,-1.8537,-0.0037,-1.4761,1.7546,-1.5509
1.1195,-1.2618,4.0662,-1.6629,1.9851,-1.1845,3.0943,-0.969,2.189,-1.0647,4.2052,-1.8616,-0.0419,-1.4627,1.7366,-1.5572
1.1195,-1.2618,4.0662,-1.6629,1.9851,-1.1845,3.0943,-0.969,2.189,-1.0647,4.2052,-1.8616,-0.0419,-1.4627,1.7366,-1.5572
1.233,-1.3368,4.0305,-1.6503,1.9851,-1.1845,3.0722,-0.9853,2.1446,-1.049,4.1575,-1.8721,-0.0797,-1.4633,1.7265,-1.5685
1.233,-1.3368,4.0305,-1.6503,1.9851,-1.1845,3.0722,-0.9853,2.1446,-1.049,4.1575,-1.8721,-0.0797,-1.4633,1.7265,-1.5685
1.1514,-1.308,3.9842,-1.6417,2.027,-1.2108,3.0427,-1.003,2.0249,-0.9728,4.1162,-1.8917,-0.1049,-1.4685,1.7184,-1.5826
1.1514,-1.308,3.9842,-1.6417,2.027,-1.2108,3.0427,-1.003,2.0249,-0.9728,4.1162,-1.8917,-0.1049,-1.4685,1.7184,-1.5826
1.1514,-1.308,3.9379,-1.6331,2.1208,-1.244,3.0206,-1.0193,1.9083,-0.9486,4.0388,-1.8984,-0.1509,-1.471,1.6826,-1.5827
1.1514,-1.308,3.9379,-1.6331,2.1208,-1.244,3.0206,-1.0193,1.9083,-0.9486,4.0388,-1.8984,-0.1509,-1.471,1.6826,-1.5827
1.021,-1.2966,3.8883,-1.6387,2.1526,-1.2898,2.9803,-1.021,1.7083,-0.9456,3.9743,-1.9232,-0.1966,-1.4875,1.6391,-1.5779
1.021,-1.2966,3.8883,-1.6387,2.1526,-1.2898,2.9803,-1.021,1.7083,-0.9456,3.9743,-1.9232,-0.1966,-1.4875,1.6391,-1.5779
0.972,-1.3139,3.8565,-1.6506,2.1632,-1.3051,2.9437,-1.0281,1.5261,-0.9653,3.946,-1.9605,-0.2463,-1.4979,1.58,-1.5697
0.972,-1.3139,3.8565,-1.6506,2.1632,-1.3051,2.9437,-1.0281,1.5261,-0.9653,3.946,-1.9605,-0.2463,-1.4979,1.58,-1.5697
1.102,-1.3252,3.8283,-1.6483,2.1314,-1.2593,2.8998,-1.0246,1.4007,-0.9712,3.9411,-1.9925,-0.2919,-1.5003,1.5426,-1.5733
1.102,-1.3252,3.8283,-1.6483,2.1314,-1.2593,2.8998,-1.0246,1.4007,-0.9712,3.9411,-1.9925,-0.2919,-1.5003,1.5426,-1.5733
1.4289,-1.4407,3.8071,-1.6562,2.0789,-1.2176,2.8707,-1.0302,1.4039,-1.0223,3.8998,-1.9914,-0.321,-1.4994,1.513,-1.5819
1.4289,-1.4407,3.8071,-1.6562,2.0789,-1.2176,2.8707,-1.0302,1.4039,-1.0223,3.8998,-1.9914,-0.321,-1.4994,1.513,-1.5819
1.6451,-1.4824,3.786,-1.6641,2.037,-1.1913,2.8525,-1.0397,1.4496,-1.0882,3.8401,-1.9635,-0.3249,-1.5073,1.5011,-1.5966
1.6451,-1.4824,3.786,-1.6641,2.037,-1.1913,2.8525,-1.0397,1.4496,-1.0882,3.8401,-1.9635,-0.3249,-1.5073,1.5011,-1.5966
1.6451,-1.4824,3.786,-1.6641,2.037,-1.1913,2.8525,-1.0397,1.4496,-1.0882,3.8401,-1.9635,-0.3249,-1.5073,1.5011,-1.5966
1.5998,-1.3265,3.7579,-1.6619,1.9639,-1.1539,2.8417,-1.0598,1.4923,-1.1033,3.775,-1.9473,-0.3414,-1.5107,1.4736,-1.6079
1.4518,-1.2037,3.7194,-1.6636,1.954,-1.1735,2.8127,-1.0654,1.4771,-1.0813,3.6986,-1.9337,-0.3204,-1.5274,1.4462,-1.6129
1.2362,-1.1628,3.73,-1.6979,1.8925,-1.1864,2.7584,-1.0581,1.4496,-1.0882,3.6287,-1.9292,-0.3161,-1.5335,1.4227,-1.6172
1.2362,-1.1628,3.73,-1.6979,1.8925,-1.1864,2.7584,-1.0581,1.4496,-1.0882,3.6287,-1.9292,-0.3161,-1.5335,1.4227,-1.6172
1.1195,-1.2618,3.751,-1.7282,1.8524,-1.2298,2.7439,-1.049,1.4923,-1.1033,3.6349,-1.9381,-0.3207,-1.5134,1.4208,-1.6144
1.1195,-1.2618,3.751,-1.7282,1.8524,-1.2298,2.7439,-1.049,1.4923,-1.1033,3.6349,-1.9381,-0.3207,-1.5134,1.4208,-1.6144
1.1195,-1.2618,3.751,-1.7282,1.8524,-1.2298,2.7439,-1.049,1.4923,-1.1033,3.6349,-1.9381,-0.3207,-1.5134,1.4208,-1.6144
1.1195,-1.2618,3.751,-1.7282,1.8524,-1.2298,2.7439,-1.049,1.4923,-1.1033,3.6349,-1.9381,-0.3207,-1.5134,1.4208,-1.6144
1.0701,-1.2792,3.7966,-1.7367,1.8215,-1.2188,2.7727,-1.0314,1.6764,-1.1351,3.7341,-1.9463,-0.3048,-1.4819,1.4599,-1.6072
1.0701,-1.2792,3.7966,-1.7367,1.8215,-1.2188,2.7727,-1.0314,1.6764,-1.1351,3.7341,-1.9463,-0.3048,-1.4819,1.4599,-1.6072
1.3509,-1.2386,3.9735,-1.6456,1.9958,-1.1998,2.9839,-0.9902,2.0014,-1.0829,4.0034,-1.9063,-0.1934,-1.4373,1.6173,-1.585
1.3509,-1.2386,3.9735,-1.6456,1.9958,-1.1998,2.9839,-0.9902,2.0014,-1.0829,4.0034,-1.9063,-0.1934,-1.4373,1.6173,-1.585
1.3509,-1.2386,3.9735,-1.6456,1.9958,-1.1998,2.9839,-0.9902,2.0014,-1.0829,4.0034,-1.9063,-0.1934,-1.4373,1.6173,-1.585
1.3509,-1.2386,3.9735,-1.6456,1.9958,-1.1998,2.9839,-0.9902,2.0014,-1.0829,4.0034,-1.9063,-0.1934,-1.4373,1.6173,-1.585
1.4518,-1.2037,4.0879,-1.6163,2.2041,-1.2271,3.1239,-0.9754,2.0847,-1.0109,4.1638,-1.8812,-0.1266,-1.4233,1.7007,-1.57
1.4518,-1.2037,4.0879,-1.6163,2.2041,-1.2271,3.1239,-0.9754,2.0847,-1.0109,4.1638,-1.8812,-0.1266,-1.4233,1.7007,-1.57
1.4699,-1.1391,4.272,-1.5878,2.4679,-1.2622,3.2953,-0.9429,2.0119,-1.0022,4.3753,-1.8874,-0.038,-1.4405,1.7708,-1.5353
1.4699,-1.1391,4.272,-1.5878,2.4679,-1.2622,3.2953,-0.9429,2.0119,-1.0022,4.3753,-1.8874,-0.038,-1.4405,1.7708,-1.5353
1.4699,-1.1391,4.272,-1.5878,2.4679,-1.2622,3.2953,-0.9429,2.0119,-1.0022,4.3753,-1.8874,-0.038,-1.4405,1.7708,-1.5353
1.5025,-1.1862,4.312,-1.5863,2.4464,-1.2314,3.329,-0.9304,1.8956,-0.978,4.4549,-1.9017,-0.0296,-1.4388,1.7869,-1.5261
1.5025,-1.1862,4.312,-1.5863,2.4464,-1.2314,3.329,-0.9304,1.8956,-0.978,4.4549,-1.9017,-0.0296,-1.4388,1.7869,-1.5261
1.651,-1.3094,4.323,-1.5823,2.3505,-1.1624,3.3516,-0.9262,1.9394,-0.9935,4.5036,-1.8914,-0,-1.4399,1.807,-1.5225
1.651,-1.3094,4.323,-1.5823,2.3505,-1.1624,3.3516,-0.9262,1.9394,-0.9935,4.5036,-1.8914,-0,-1.4399,1.807,-1.5225
1.7348,-1.339,4.3158,-1.5719,2.3397,-1.1469,3.3817,-0.9327,1.9394,-0.9935,4.4904,-1.8522,0.0125,-1.4302,1.819,-1.5203
1.7348,-1.339,4.3158,-1.5719,2.3397,-1.1469,3.3817,-0.9327,1.9394,-0.9935,4.4904,-1.8522,0.0125,-1.4302,1.819,-1.5203
1.754,-1.275,4.3048,-1.5759,2.2761,-1.1244,3.4193,-0.9501,2.0119,-1.0022,4.4899,-1.8312,0.0337,-1.4329,1.835,-1.5239
1.754,-1.275,4.3048,-1.5759,2.2761,-1.1244,3.4193,-0.9501,2.0119,-1.0022,4.4899,-1.8312,0.0337,-1.4329,1.835,-1.5239
1.6229,-1.086,4.2867,-1.5695,2.3079,-1.1357,3.4343,-0.9595,2.0405,-0.9953,4.4713,-1.8247,0.0549,-1.4357,1.8389,-1.5295
1.6229,-1.086,4.2867,-1.5695,2.3079,-1.1357,3.4343,-0.9595,2.0405,-0.9953,4.4713,-1.8247,0.0549,-1.4357,1.8389,-1.5295
1.455,-1.0267,4.2539,-1.5814,2.2976,-1.1554,3.4155,-0.9569,2.0119,-1.0022,4.4285,-1.8234,0.0892,-1.4573,1.8328,-1.5338
1.455,-1.0267,4.2539,-1.5814,2.2976,-1.1554,3.4155,-0.9569,2.0119,-1.0022,4.4285,-1.8234,0.0892,-1.4573,1.8328,-1.5338
1.2536,-1.0982,4.2465,-1.6101,2.2031,-1.157,3.3628,-0.9424,2.0119,-1.0022,4.4042,-1.8286,0.0892,-1.4573,1.8269,-1.5316
1.2536,-1.0982,4.2465,-1.6101,2.2031,-1.157,3.3628,-0.9424,2.0119,-1.0022,4.4042,-1.8286,0.0892,-1.4573,1.8269,-1.5316
1.2536,-1.0982,4.2465,-1.6101,2.2031,-1.157,3.3628,-0.9424,2.0119,-1.0022,4.4042,-1.8286,0.0892,-1.4573,1.8269,-1.5316
0.9739,-1.1405,4.2642,-1.6553,2.1091,-1.1588,3.329,-0.9426,2.0275,-1.0246,4.38,-1.8339,0.0805,-1.4448,1.8209,-1.5295
0.9739,-1.1405,4.2642,-1.6553,2.1091,-1.1588,3.329,-0.9426,2.0275,-1.0246,4.38,-1.8339,0.0805,-1.4448,1.8209,-1.5295
0.9739,-1.1405,4.2642,-1.6553,2.1091,-1.1588,3.329,-0.9426,2.0275,-1.0246,4.38,-1.8339,0.0805,-1.4448,1.8209,-1.5295
1.1195,-1.2618,4.2932,-1.6578,2.0777,-1.1477,3.3065,-0.9347,2.2624,-1.0737,4.4233,-1.8561,0.0374,-1.3965,1.8389,-1.5295
1.1195,-1.2618,4.2932,-1.6578,2.0777,-1.1477,3.3065,-0.9347,2.2624,-1.0737,4.4233,-1.8561,0.0374,-1.3965,1.8389,-1.5295
1.1195,-1.2618,4.2932,-1.6578,2.0777,-1.1477,3.3065,-0.9347,2.2624,-1.0737,4.4233,-1.8561,0.0374,-1.3965,1.8389,-1.5295
1.2508,-1.2733,4.2646,-1.6165,2.1299,-1.1545,3.329,-0.9426,2.3653,-1.0761,4.4354,-1.8535,0.0374,-1.3965,1.8569,-1.5358
1.2508,-1.2733,4.2646,-1.6165,2.1299,-1.1545,3.329,-0.9426,2.3653,-1.0761,4.4354,-1.8535,0.0374,-1.3965,1.8569,-1.5358
1.2508,-1.2733,4.2646,-1.6165,2.1299,-1.1545,3.329,-0.9426,2.3653,-1.0761,4.4354,-1.8535,0.0374,-1.3965,1.8569,-1.5358
1.3008,-1.256,4.2032,-1.587,2.3088,-1.206,3.3103,-0.9401,2.1999,-0.9836,4.4175,-1.8678,0.0164,-1.408,1.8469,-1.5344
1.3008,-1.256,4.2032,-1.587,2.3088,-1.206,3.3103,-0.9401,2.1999,-0.9836,4.4175,-1.8678,0.0164,-1.408,1.8469,-1.5344
1.3008,-1.256,4.2032,-1.587,2.3088,-1.206,3.3103,-0.9401,2.1999,-0.9836,4.4175,-1.8678,0.0164,-1.408,1.8469,-1.5344
1.4336,-1.2678,4.2104,-1.5973,2.2873,-1.1751,3.299,-0.9483,2.171,-0.9904,4.4364,-1.8952,-0.0046,-1.4194,1.8228,-1.5324
1.4336,-1.2678,4.2104,-1.5973,2.2873,-1.1751,3.299,-0.9483,2.171,-0.9904,4.4364,-1.8952,-0.0046,-1.4194,1.8228,-1.5324
1.8836,-1.4619,4.1633,-1.6274,2.1394,-1.0995,3.2354,-0.9663,2.1134,-1.0041,4.3696,-1.8991,-0.0296,-1.4388,1.7668,-1.536
1.8836,-1.4619,4.1633,-1.6274,2.1394,-1.0995,3.2354,-0.9663,2.1134,-1.0041,4.3696,-1.8991,-0.0296,-1.4388,1.7668,-1.536
1.8836,-1.4619,4.1633,-1.6274,2.1394,-1.0995,3.2354,-0.9663,2.1134,-1.0041,4.3696,-1.8991,-0.0296,-1.4388,1.7668,-1.536
1.8836,-1.4619,4.1633,-1.6274,2.1394,-1.0995,3.2354,-0.9663,2.1134,-1.0041,4.3696,-1.8991,-0.0296,-1.4388,1.7668,-1.536
1.8836,-1.4619,4.1129,-1.6329,2.0978,-1.1082,3.2093,-0.9773,2.1134,-1.0041,4.3081,-1.8705,-0.0464,-1.4423,1.7467,-1.5459
1.8836,-1.4619,4.1129,-1.6329,2.0978,-1.1082,3.2093,-0.9773,2.1134,-1.0041,4.3081,-1.8705,-0.0464,-1.4423,1.7467,-1.5459
1.6372,-1.1983,4.027,-1.6259,2.0563,-1.1168,3.1684,-0.9911,2.0093,-0.9503,4.2172,-1.859,-0.0378,-1.4547,1.6989,-1.5545
1.6372,-1.1983,4.027,-1.6259,2.0563,-1.1168,3.1684,-0.9911,2.0093,-0.9503,4.2172,-1.859,-0.0378,-1.4547,1.6989,-1.5545
1.6372,-1.1983,4.027,-1.6259,2.0563,-1.1168,3.1684,-0.9911,2.0093,-0.9503,4.2172,-1.859,-0.0378,-1.4547,1.6989,-1.5545
1.3688,-1.1744,4.0091,-1.6582,1.9951,-1.1649,3.0906,-0.9878,1.9083,-0.9486,4.1876,-1.8759,-0.063,-1.4599,1.671,-1.5595
1.3688,-1.1744,4.0091,-1.6582,1.9951,-1.1649,3.0906,-0.9878,1.9083,-0.9486,4.1876,-1.8759,-0.063,-1.4599,1.671,-1.5595
1.3688,-1.1744,4.0091,-1.6582,1.9951,-1.1649,3.0906,-0.9878,1.9083,-0.9486,4.1876,-1.8759,-0.063,-1.4599,1.671,-1.5595
1.1368,-1.198,4.0089,-1.6967,1.9335,-1.1778,3.028,-0.9938,1.8517,-0.9625,4.1462,-1.8955,-0.1011,-1.4464,1.6432,-1.5645
1.1368,-1.198,4.0089,-1.6967,1.9335,-1.1778,3.028,-0.9938,1.8517,-0.9625,4.1462,-1.8955,-0.1011,-1.4464,1.6432,-1.5645
1.0874,-1.2156,3.9804,-1.6944,1.9024,-1.1668,2.9912,-1.0009,1.9266,-1.0227,4.0924,-1.8969,-0.1474,-1.4348,1.6096,-1.5674
1.0874,-1.2156,3.9804,-1.6944,1.9024,-1.1668,2.9912,-1.0009,1.9266,-1.0227,4.0924,-1.8969,-0.1474,-1.4348,1.6096,-1.5674
1.1514,-1.308,3.8458,-1.616,1.8819,-1.1711,2.9107,-1.0164,2.0323,-1.1274,3.9494,-1.8872,-0.2269,-1.4301,1.5641,-1.5851
1.1514,-1.308,3.8458,-1.616,1.8819,-1.1711,2.9107,-1.0164,2.0323,-1.1274,3.9494,-1.8872,-0.2269,-1.4301,1.5641,-1.5851
1.1514,-1.308,3.8458,-1.616,1.8819,-1.1711,2.9107,-1.0164,2.0323,-1.1274,3.9494,-1.8872,-0.2269,-1.4301,1.5641,-1.5851
1.233,-1.3368,3.8105,-1.6035,1.8819,-1.1711,2.8889,-1.0327,1.973,-1.0896,3.89,-1.8798,-0.2392,-1.4398,1.5541,-1.5964
1.233,-1.3368,3.8105,-1.6035,1.8819,-1.1711,2.8889,-1.0327,1.973,-1.0896,3.89,-1.8798,-0.2392,-1.4398,1.5541,-1.5964
1.2829,-1.3196,3.7823,-1.6013,1.9752,-1.2041,2.8744,-1.0474,1.8545,-1.0141,3.8371,-1.8814,-0.2346,-1.4601,1.5383,-1.6055
1.2829,-1.3196,3.7823,-1.6013,1.9752,-1.2041,2.8744,-1.0474,1.8545,-1.0141,3.8371,-1.8814,-0.2346,-1.4601,1.5383,-1.6055
1.2829,-1.3196,3.7823,-1.6013,1.9752,-1.2041,2.8744,-1.0474,1.8545,-1.0141,3.8371,-1.8814,-0.2346,-1.4601,1.5383,-1.6055
1.3149,-1.3657,3.7402,-1.6172,2.0794,-1.2525,2.8417,-1.0598,1.7112,-0.9971,3.7735,-1.9063,-0.2717,-1.4749,1.4951,-1.6071
1.3149,-1.3657,3.7402,-1.6172,2.0794,-1.2525,2.8417,-1.0598,1.7112,-0.9971,3.7735,-1.9063,-0.2717,-1.4749,1.4951,-1.6071
1.3149,-1.3657,3.7402,-1.6172,2.0794,-1.2525,2.8417,-1.0598,1.7112,-0.9971,3.7735,-1.9063,-0.2717,-1.4749,1.4951,-1.6071
1.1514,-1.308,3.7089,-1.6675,2.0064,-1.2151,2.7693,-1.0619,1.3886,-1.0002,3.7349,-1.9667,-0.3545,-1.4782,1.415,-1.6061
1.1514,-1.308,3.7089,-1.6675,2.0064,-1.2151,2.7693,-1.0619,1.3886,-1.0002,3.7349,-1.9667,-0.3545,-1.4782,1.415,-1.6061
1.4794,-1.4238,3.7439,-1.6799,1.9745,-1.1692,2.8018,-1.0615,1.4619,-1.0594,3.7465,-1.964,-0.363,-1.4659,1.417,-1.6026
1.4794,-1.4238,3.7439,-1.6799,1.9745,-1.1692,2.8018,-1.0615,1.4619,-1.0594,3.7465,-1.964,-0.363,-1.4659,1.417,-1.6026
1.5301,-1.4069,3.7825,-1.6782,1.9639,-1.1539,2.8744,-1.0594,1.5046,-1.0745,3.7921,-1.9331,-0.3469,-1.4484,1.458,-1.5982
1.5301,-1.4069,3.7825,-1.6782,1.9639,-1.1539,2.8744,-1.0594,1.5046,-1.0745,3.7921,-1.9331,-0.3469,-1.4484,1.458,-1.5982
1.5166,-1.2971,3.8459,-1.6545,1.9738,-1.1342,2.9803,-1.045,1.643,-1.0401,3.9087,-1.9068,-0.2475,-1.4415,1.5209,-1.5804
1.5166,-1.2971,3.8459,-1.6545,1.9738,-1.1342,2.9803,-1.045,1.643,-1.0401,3.9087,-1.9068,-0.2475,-1.4415,1.5209,-1.5804
1.4518,-1.2037,3.9273,-1.637,2.0363,-1.1563,3.0759,-1.0147,1.7982,-1.0279,4.0201,-1.8714,-0.1304,-1.4454,1.5939,-1.564
1.4518,-1.2037,3.9273,-1.637,2.0363,-1.1563,3.0759,-1.0147,1.7982,-1.0279,4.0201,-1.8714,-0.1304,-1.4454,1.5939,-1.564
1.3688,-1.1744,4.0341,-1.6361,2.099,-1.1784,3.1424,-0.9779,1.8828,-1.0072,4.1386,-1.8449,-0.0464,-1.4423,1.6593,-1.549
1.3688,-1.1744,4.0341,-1.6361,2.099,-1.1784,3.1424,-0.9779,1.8828,-1.0072,4.1386,-1.8449,-0.0464,-1.4423,1.6593,-1.549
1.3008,-1.256,4.1559,-1.6559,2.1097,-1.1938,3.2131,-0.9584,1.9679,-0.9866,4.2772,-1.8458,0.0125,-1.4302,1.711,-1.5397
1.3008,-1.256,4.1559,-1.6559,2.1097,-1.1938,3.2131,-0.9584,1.9679,-0.9866,4.2772,-1.8458,0.0125,-1.4302,1.711,-1.5397
1.333,-1.3024,4.2496,-1.6735,2.1305,-1.1895,3.2541,-0.9446,2.129,-1.0266,4.3927,-1.8522,0.0289,-1.3982,1.7529,-1.5353
1.333,-1.3024,4.2496,-1.6735,2.1305,-1.1895,3.2541,-0.9446,2.129,-1.0266,4.3927,-1.8522,0.0289,-1.3982,1.7529,-1.5353
1.5489,-1.3436,4.2932,-1.6578,2.1721,-1.181,3.3065,-0.9468,2.3205,-1.0603,4.4476,-1.8509,0.0328,-1.3759,1.7828,-1.5331
1.5489,-1.3436,4.2932,-1.6578,2.1721,-1.181,3.3065,-0.9468,2.3205,-1.0603,4.4476,-1.8509,0.0328,-1.3759,1.7828,-1.5331
1.7156,-1.4025,4.2936,-1.6189,2.1822,-1.1613,3.3215,-0.944,2.5452,-1.1396,4.4841,-1.843,0.0369,-1.3679,1.7948,-1.531
1.7348,-1.339,4.2757,-1.5735,2.224,-1.1528,3.3403,-0.9466,2.5139,-1.0945,4.4592,-1.8273,0.0284,-1.3697,1.8127,-1.5373
1.7348,-1.339,4.2757,-1.5735,2.224,-1.1528,3.3403,-0.9466,2.5139,-1.0945,4.4592,-1.8273,0.0284,-1.3697,1.8127,-1.5373
1.7214,-1.228,4.2613,-1.5527,2.2551,-1.1287,3.3553,-0.9559,2.4374,-1.0334,4.4221,-1.8142,0.0159,-1.3794,1.8167,-1.543
1.7214,-1.228,4.2613,-1.5527,2.2551,-1.1287,3.3553,-0.9559,2.4374,-1.0334,4.4221,-1.8142,0.0159,-1.3794,1.8167,-1.543
1.7214,-1.228,4.2613,-1.5527,2.2551,-1.1287,3.3553,-0.9559,2.4374,-1.0334,4.4221,-1.8142,0.0159,-1.3794,1.8167,-1.543
1.6558,-1.1335,4.2323,-1.5503,2.3823,-1.1737,3.3515,-0.9627,2.3317,-0.9789,4.3979,-1.8195,0.0289,-1.3982,1.8046,-1.5451
1.6558,-1.1335,4.2323,-1.5503,2.3823,-1.1737,3.3515,-0.9627,2.3317,-0.9789,4.3979,-1.8195,0.0289,-1.3982,1.8046,-1.5451
1.6229,-1.086,4.2214,-1.5543,2.4782,-1.2075,3.3439,-0.9641,2.1685,-0.9383,4.3616,-1.8274,0.0207,-1.4142,1.7747,-1.5409
1.6229,-1.086,4.2214,-1.5543,2.4782,-1.2075,3.3439,-0.9641,2.1685,-0.9383,4.3616,-1.8274,0.0207,-1.4142,1.7747,-1.5409
1.5207,-1.1215,4.2069,-1.5726,2.4357,-1.2159,3.3214,-0.9683,1.9964,-0.9797,4.3443,-1.8626,-0.0085,-1.4416,1.7468,-1.5396
1.4699,-1.1391,4.2104,-1.5973,2.372,-1.1934,3.3027,-0.9658,1.8545,-1.0141,4.3575,-1.9017,-0.0378,-1.4547,1.7229,-1.5375
1.4699,-1.1391,4.2104,-1.5973,2.372,-1.1934,3.3027,-0.9658,1.8545,-1.0141,4.3575,-1.9017,-0.0378,-1.4547,1.7229,-1.5375
1.4699,-1.1391,4.2104,-1.5973,2.372,-1.1934,3.3027,-0.9658,1.8545,-1.0141,4.3575,-1.9017,-0.0378,-1.4547,1.7229,-1.5375
1.4518,-1.2037,4.1886,-1.6052,2.2551,-1.1287,3.2989,-0.9726,1.87,-1.0364,4.4006,-1.9237,-0.0421,-1.4485,1.717,-1.5354
1.4518,-1.2037,4.1886,-1.6052,2.2551,-1.1287,3.2989,-0.9726,1.87,-1.0364,4.4006,-1.9237,-0.0421,-1.4485,1.717,-1.5354
1.4518,-1.2037,4.1886,-1.6052,2.2551,-1.1287,3.2989,-0.9726,1.87,-1.0364,4.4006,-1.9237,-0.0421,-1.4485,1.717,-1.5354
1.7348,-1.339,4.1635,-1.5885,2.181,-1.0908,3.2765,-0.9646,1.9421,-1.0451,4.3817,-1.8965,-0.0423,-1.4343,1.7131,-1.5298
1.7348,-1.339,4.1635,-1.5885,2.181,-1.0908,3.2765,-0.9646,1.9421,-1.0451,4.3817,-1.8965,-0.0423,-1.4343,1.7131,-1.5298
1.9033,-1.3985,4.1455,-1.5822,2.1494,-1.0797,3.2765,-0.9646,1.999,-1.0314,4.3437,-1.8418,-0.0255,-1.4309,1.719,-1.5319
1.988,-1.4284,4.1383,-1.5718,2.1494,-1.0797,3.2914,-0.974,2.0716,-1.0402,4.2936,-1.7896,-0.0171,-1.4291,1.721,-1.5347
1.9556,-1.3817,4.1095,-1.5695,2.1394,-1.0995,3.3213,-0.9926,2.0716,-1.0402,4.2505,-1.7674,-0.0426,-1.4201,1.7209,-1.5411
1.9556,-1.3817,4.1095,-1.5695,2.1394,-1.0995,3.3213,-0.9926,2.0716,-1.0402,4.2505,-1.7674,-0.0426,-1.4201,1.7209,-1.5411
1.9556,-1.3817,4.1095,-1.5695,2.1394,-1.0995,3.3213,-0.9926,2.0716,-1.0402,4.2505,-1.7674,-0.0426,-1.4201,1.7209,-1.5411
1.8057,-1.2578,4.088,-1.5775,2.1924,-1.1416,3.3399,-1.0194,2.1158,-1.0558,4.2202,-1.7636,-0.0255,-1.4309,1.7109,-1.546
1.8057,-1.2578,4.088,-1.5775,2.1924,-1.1416,3.3399,-1.0194,2.1158,-1.0558,4.2202,-1.7636,-0.0255,-1.4309,1.7109,-1.546
1.8057,-1.2578,4.088,-1.5775,2.1924,-1.1416,3.3399,-1.0194,2.1158,-1.0558,4.2202,-1.7636,-0.0255,-1.4309,1.7109,-1.546
1.8057,-1.2578,4.088,-1.5775,2.1924,-1.1416,3.3399,-1.0194,2.1158,-1.0558,4.2202,-1.7636,-0.0255,-1.4309,1.7109,-1.546
1.6558,-1.1335,4.0557,-1.5894,2.2031,-1.157,3.3099,-1.025,2.1003,-1.0334,4.1969,-1.7899,0.0002,-1.454,1.6949,-1.5552
1.6558,-1.1335,4.0557,-1.5894,2.2031,-1.157,3.3099,-1.025,2.1003,-1.0334,4.1969,-1.7899,0.0002,-1.454,1.6949,-1.5552
1.6558,-1.1335,4.0557,-1.5894,2.2031,-1.157,3.3099,-1.025,2.1003,-1.0334,4.1969,-1.7899,0.0002,-1.454,1.6949,-1.5552
1.0722,-1.1049,4.0091,-1.6582,2.0677,-1.1673,3.1535,-1.006,1.8828,-1.0072,4.0967,-1.8438,-0.0376,-1.4689,1.6353,-1.566
1.0722,-1.1049,4.0091,-1.6582,2.0677,-1.1673,3.1535,-1.006,1.8828,-1.0072,4.0967,-1.8438,-0.0376,-1.4689,1.6353,-1.566
1.0722,-1.1049,4.0091,-1.6582,2.0677,-1.1673,3.1535,-1.006,1.8828,-1.0072,4.0967,-1.8438,-0.0376,-1.4689,1.6353,-1.566
0.925,-1.1582,3.9841,-1.6802,2.0157,-1.1606,3.0869,-1.0066,1.8983,-1.0296,4.0681,-1.8815,-0.0884,-1.4509,1.6095,-1.5738
0.925,-1.1582,3.9841,-1.6802,2.0157,-1.1606,3.0869,-1.0066,1.8983,-1.0296,4.0681,-1.8815,-0.0884,-1.4509,1.6095,-1.5738
0.9891,-1.2506,3.9379,-1.6716,1.9845,-1.1495,3.0427,-1.015,2.0169,-1.1051,4.0208,-1.892,-0.1431,-1.441,1.5838,-1.5816
0.9891,-1.2506,3.9379,-1.6716,1.9845,-1.1495,3.0427,-1.015,2.0169,-1.1051,4.0208,-1.892,-0.1431,-1.441,1.5838,-1.5816
0.9891,-1.2506,3.9379,-1.6716,1.9845,-1.1495,3.0427,-1.015,2.0169,-1.1051,4.0208,-1.892,-0.1431,-1.441,1.5838,-1.5816
1.102,-1.3252,3.9025,-1.6591,1.9845,-1.1495,3.0317,-1.0352,2.0014,-1.0829,3.9854,-1.8999,-0.1724,-1.44,1.5837,-1.5942
1.102,-1.3252,3.9025,-1.6591,1.9845,-1.1495,3.0317,-1.0352,2.0014,-1.0829,3.9854,-1.8999,-0.1724,-1.44,1.5837,-1.5942
1.1833,-1.354,3.8565,-1.6506,1.9845,-1.1495,3.006,-1.0461,1.9705,-1.0382,3.9501,-1.9078,-0.2017,-1.439,1.5717,-1.6026
1.1833,-1.354,3.8565,-1.6506,1.9845,-1.1495,3.006,-1.0461,1.9705,-1.0382,3.9501,-1.9078,-0.2017,-1.439,1.5717,-1.6026
1.201,-1.2907,3.8035,-1.6319,2.0677,-1.1673,2.973,-1.0464,1.8673,-0.9849,3.8853,-1.912,-0.2306,-1.4522,1.5462,-1.6041
1.201,-1.2907,3.8035,-1.6319,2.0677,-1.1673,2.973,-1.0464,1.8673,-0.9849,3.8853,-1.912,-0.2306,-1.4522,1.5462,-1.6041
1.201,-1.2907,3.8035,-1.6319,2.0677,-1.1673,2.973,-1.0464,1.8673,-0.9849,3.8853,-1.912,-0.2306,-1.4522,1.5462,-1.6041
1.201,-1.2907,3.7685,-1.6579,2.0677,-1.1673,2.889,-1.0566,1.5814,-0.9513,3.8696,-1.9672,-0.2883,-1.4784,1.4561,-1.5954
1.201,-1.2907,3.7685,-1.6579,2.0677,-1.1673,2.889,-1.0566,1.5814,-0.9513,3.8696,-1.9672,-0.2883,-1.4784,1.4561,-1.5954
1.201,-1.2907,3.7685,-1.6579,2.0677,-1.1673,2.889,-1.0566,1.5814,-0.9513,3.8696,-1.9672,-0.2883,-1.4784,1.4561,-1.5954
1.397,-1.3947,3.7439,-1.6799,1.9944,-1.1299,2.8454,-1.065,1.5568,-1.0096,3.8408,-1.9839,-0.3213,-1.4853,1.4132,-1.597
1.397,-1.3947,3.7439,-1.6799,1.9944,-1.1299,2.8454,-1.065,1.5568,-1.0096,3.8408,-1.9839,-0.3213,-1.4853,1.4132,-1.597
1.397,-1.3947,3.7439,-1.6799,1.9944,-1.1299,2.8454,-1.065,1.5568,-1.0096,3.8408,-1.9839,-0.3213,-1.4853,1.4132,-1.597
1.7799,-1.4952,3.6775,-1.6794,1.9426,-1.1232,2.7947,-1.0868,1.6028,-1.0759,3.704,-1.9222,-0.3542,-1.4923,1.345,-1.6065
1.7799,-1.4952,3.6775,-1.6794,1.9426,-1.1232,2.7947,-1.0868,1.6028,-1.0759,3.704,-1.9222,-0.3542,-1.4923,1.345,-1.6065
1.5998,-1.3265,3.6566,-1.6872,1.8909,-1.1165,2.8056,-1.1025,1.5445,-1.0386,3.6509,-1.9034,-0.3499,-1.4984,1.3372,-1.6141
1.5998,-1.3265,3.6566,-1.6872,1.8909,-1.1165,2.8056,-1.1025,1.5445,-1.0386,3.6509,-1.9034,-0.3499,-1.4984,1.3372,-1.6141
1.5207,-1.1215,3.6496,-1.6771,1.8909,-1.1165,2.8382,-1.1021,1.5999,-1.0248,3.6562,-1.8918,-0.3045,-1.4959,1.3547,-1.614
1.5207,-1.1215,3.6496,-1.6771,1.8909,-1.1165,2.8382,-1.1021,1.5999,-1.0248,3.6562,-1.8918,-0.3045,-1.4959,1.3547,-1.614
1.5207,-1.1215,3.6496,-1.6771,1.8909,-1.1165,2.8382,-1.1021,1.5999,-1.0248,3.6562,-1.8918,-0.3045,-1.4959,1.3547,-1.614
1.3715,-0.9972,3.6879,-1.6754,1.9532,-1.1385,2.8963,-1.091,1.6987,-1.0263,3.7139,-1.8785,-0.2046,-1.5033,1.3994,-1.6089
1.1883,-1.004,3.7439,-1.6799,2.0057,-1.1802,2.9583,-1.0612,1.8109,-0.9987,3.8425,-1.8698,-0.0791,-1.5057,1.4639,-1.594
0.9739,-1.1405,3.8424,-1.707,1.9858,-1.2194,3.0096,-1.0274,1.8517,-0.9625,4.002,-1.865,0.0008,-1.4965,1.5347,-1.5748
0.9739,-1.1405,3.8424,-1.707,1.9858,-1.2194,3.0096,-1.0274,1.8517,-0.9625,4.002,-1.865,0.0008,-1.4965,1.5347,-1.5748
0.7794,-1.2113,3.9803,-1.7327,1.9652,-1.2236,3.0759,-1.0027,1.9523,-0.9641,4.1449,-1.854,0.0426,-1.4596,1.6097,-1.5611
0.7794,-1.2113,3.9803,-1.7327,1.9652,-1.2236,3.0759,-1.0027,1.9523,-0.9641,4.1449,-1.854,0.0426,-1.4596,1.6097,-1.5611
0.7794,-1.2113,3.9803,-1.7327,1.9652,-1.2236,3.0759,-1.0027,1.9523,-0.9641,4.1449,-1.854,0.0426,-1.4596,1.6097,-1.5611
0.8113,-1.2571,4.073,-1.7117,1.9958,-1.1998,3.1536,-0.9818,2.1265,-0.9747,4.2765,-1.8249,0.0673,-1.4118,1.6791,-1.5454
0.8113,-1.2571,4.073,-1.7117,1.9958,-1.1998,3.1536,-0.9818,2.1265,-0.9747,4.2765,-1.8249,0.0673,-1.4118,1.6791,-1.5454
0.8113,-1.2571,4.073,-1.7117,1.9958,-1.1998,3.1536,-0.9818,2.1265,-0.9747,4.2765,-1.8249,0.0673,-1.4118,1.6791,-1.5454
0.8915,-1.2855,4.1343,-1.6638,2.0264,-1.1759,3.2168,-0.9638,2.2735,-0.9925,4.3731,-1.8038,0.0925,-1.3923,1.7309,-1.5361
1.102,-1.3252,4.1598,-1.6029,2.0884,-1.1631,3.2728,-0.9593,2.3767,-0.9948,4.4337,-1.7906,0.1008,-1.3763,1.7867,-1.5388
1.1514,-1.308,4.1671,-1.5742,2.1721,-1.181,3.3177,-0.963,2.4037,-0.9356,4.4824,-1.78,0.1435,-1.3819,1.8287,-1.5408
1.1514,-1.308,4.1671,-1.5742,2.1721,-1.181,3.3177,-0.963,2.4037,-0.9356,4.4824,-1.78,0.1435,-1.3819,1.8287,-1.5408
1.233,-1.3368,4.1708,-1.5599,2.3512,-1.2327,3.3514,-0.9749,2.3269,-0.874,4.4946,-1.7773,0.1608,-1.3927,1.8508,-1.5401
1.233,-1.3368,4.1708,-1.5599,2.3512,-1.2327,3.3514,-0.9749,2.3269,-0.874,4.4946,-1.7773,0.1608,-1.3927,1.8508,-1.5401
1.233,-1.3368,4.1708,-1.5599,2.3512,-1.2327,3.3514,-0.9749,2.3269,-0.874,4.4946,-1.7773,0.1608,-1.3927,1.8508,-1.5401
1.2508,-1.2733,4.1528,-1.5535,2.436,-1.251,3.3626,-0.9789,2.1948,-0.879,4.4766,-1.7918,0.1396,-1.4042,1.8309,-1.5309
1.2508,-1.2733,4.1528,-1.5535,2.436,-1.251,3.3626,-0.9789,2.1948,-0.879,4.4766,-1.7918,0.1396,-1.4042,1.8309,-1.5309
1.2508,-1.2733,4.1528,-1.5535,2.436,-1.251,3.3626,-0.9789,2.1948,-0.879,4.4766,-1.7918,0.1396,-1.4042,1.8309,-1.5309
1.2508,-1.2733,4.1383,-1.5718,2.4572,-1.2468,3.3439,-0.9763,2.0065,-0.8982,4.4407,-1.8208,0.0971,-1.4128,1.8009,-1.5267
1.333,-1.3024,4.1418,-1.5965,2.3505,-1.1624,3.3401,-0.9831,1.9211,-0.9191,4.4476,-1.8509,0.0673,-1.4118,1.7829,-1.5268
1.333,-1.3024,4.1418,-1.5965,2.3505,-1.1624,3.3401,-0.9831,1.9211,-0.9191,4.4476,-1.8509,0.0673,-1.4118,1.7829,-1.5268
1.333,-1.3024,4.1418,-1.5965,2.3505,-1.1624,3.3401,-0.9831,1.9211,-0.9191,4.4476,-1.8509,0.0673,-1.4118,1.7829,-1.5268
1.6643,-1.4194,4.1382,-1.6108,2.2864,-1.1046,3.3326,-0.9845,1.9083,-0.9486,4.4233,-1.8561,0.0547,-1.4215,1.7649,-1.5268
1.6643,-1.4194,4.1382,-1.6108,2.2864,-1.1046,3.3326,-0.9845,1.9083,-0.9486,4.4233,-1.8561,0.0547,-1.4215,1.7649,-1.5268
1.6643,-1.4194,4.1382,-1.6108,2.2864,-1.1046,3.3326,-0.9845,1.9083,-0.9486,4.4233,-1.8561,0.0547,-1.4215,1.7649,-1.5268
1.9357,-1.4452,4.1237,-1.629,2.1703,-1.0753,3.3775,-1.0125,2.0275,-1.0246,4.3737,-1.8248,0.0675,-1.426,1.7669,-1.5296
1.9357,-1.4452,4.1237,-1.629,2.1703,-1.0753,3.3775,-1.0125,2.0275,-1.0246,4.3737,-1.8248,0.0675,-1.426,1.7669,-1.5296
1.8384,-1.3048,4.1308,-1.6393,2.1602,-1.0952,3.385,-1.0111,2.0561,-1.0178,4.3368,-1.8117,0.0973,-1.4271,1.7789,-1.5275
1.8384,-1.3048,4.1308,-1.6393,2.1602,-1.0952,3.385,-1.0111,2.0561,-1.0178,4.3368,-1.8117,0.0973,-1.4271,1.7789,-1.5275
1.7024,-1.2922,4.138,-1.6496,2.1293,-1.1193,3.3625,-1.0031,2.1003,-1.0334,4.3368,-1.8117,0.0973,-1.4271,1.773,-1.5254
1.7024,-1.2922,4.138,-1.6496,2.1293,-1.1193,3.3625,-1.0031,2.1003,-1.0334,4.3368,-1.8117,0.0973,-1.4271,1.773,-1.5254
1.5675,-1.2799,4.1702,-1.6764,2.0877,-1.1279,3.3362,-1.0019,2.2178,-1.058,4.3431,-1.8209,0.0929,-1.4208,1.7809,-1.5303
1.5675,-1.2799,4.1702,-1.6764,2.0877,-1.1279,3.3362,-1.0019,2.2178,-1.058,4.3431,-1.8209,0.0929,-1.4208,1.7809,-1.5303
1.5998,-1.3265,4.138,-1.6496,2.0984,-1.1434,3.3025,-1.0022,2.3517,-1.1053,4.319,-1.8261,0.0845,-1.4226,1.7729,-1.5318
1.5998,-1.3265,4.138,-1.6496,2.0984,-1.1434,3.3025,-1.0022,2.3517,-1.1053,4.319,-1.8261,0.0845,-1.4226,1.7729,-1.5318
1.5675,-1.2799,4.1166,-1.6187,2.0984,-1.1434,3.2913,-1.0103,2.3788,-1.0468,4.3069,-1.8288,0.0504,-1.4152,1.7747,-1.5409
1.5675,-1.2799,4.1166,-1.6187,2.0984,-1.1434,3.2913,-1.0103,2.3788,-1.0468,4.3069,-1.8288,0.0504,-1.4152,1.7747,-1.5409
1.586,-1.2157,4.0915,-1.6021,2.1822,-1.1613,3.2688,-1.0145,2.2869,-0.9631,4.2645,-1.8276,0.0251,-1.4205,1.7626,-1.5494
1.586,-1.2157,4.0915,-1.6021,2.1822,-1.1613,3.2688,-1.0145,2.2869,-0.9631,4.2645,-1.8276,0.0251,-1.4205,1.7626,-1.5494
1.5534,-1.1686,4.0628,-1.5997,2.2981,-1.1906,3.239,-1.0201,2.1528,-0.9157,4.2229,-1.8472,0.0084,-1.4381,1.7327,-1.5516
1.5534,-1.1686,4.0628,-1.5997,2.2981,-1.1906,3.239,-1.0201,2.1528,-0.9157,4.2229,-1.8472,0.0084,-1.4381,1.7327,-1.5516
1.5025,-1.1862,4.0413,-1.6077,2.3298,-1.2018,3.2017,-1.027,1.9495,-0.9122,4.2122,-1.8914,-0.0335,-1.4609,1.683,-1.551
1.5025,-1.1862,4.0413,-1.6077,2.3298,-1.2018,3.2017,-1.027,1.9495,-0.9122,4.2122,-1.8914,-0.0335,-1.4609,1.683,-1.551
1.5351,-1.2331,4.0092,-1.6196,2.2659,-1.1442,3.1683,-1.0393,1.8362,-0.9401,4.1707,-1.9109,-0.0754,-1.4696,1.6394,-1.5526
1.5351,-1.2331,4.0092,-1.6196,2.2659,-1.1442,3.1683,-1.0393,1.8362,-0.9401,4.1707,-1.9109,-0.0754,-1.4696,1.6394,-1.5526
1.5675,-1.2799,3.9486,-1.6291,2.1918,-1.1063,3.1164,-1.0491,1.7954,-0.9764,4.1287,-1.9097,-0.1049,-1.4685,1.6018,-1.5562
1.5675,-1.2799,3.9486,-1.6291,2.1918,-1.1063,3.1164,-1.0491,1.7954,-0.9764,4.1287,-1.9097,-0.1049,-1.4685,1.6018,-1.5562
1.5675,-1.2799,3.9486,-1.6291,2.1918,-1.1063,3.1164,-1.0491,1.7954,-0.9764,4.1287,-1.9097,-0.1049,-1.4685,1.6018,-1.5562
1.7348,-1.339,3.9202,-1.6268,2.1494,-1.0797,3.0869,-1.0547,1.7547,-1.0125,4.0625,-1.8932,-0.1299,-1.4737,1.5702,-1.562
1.7348,-1.339,3.9202,-1.6268,2.1494,-1.0797,3.0869,-1.0547,1.7547,-1.0125,4.0625,-1.8932,-0.1299,-1.4737,1.5702,-1.562
1.586,-1.2157,3.8141,-1.6279,2.0978,-1.1082,3.0573,-1.0842,1.7141,-1.0485,3.9127,-1.8538,-0.1211,-1.5002,1.5268,-1.5825
1.586,-1.2157,3.8141,-1.6279,2.0978,-1.1082,3.0573,-1.0842,1.7141,-1.0485,3.9127,-1.8538,-0.1211,-1.5002,1.5268,-1.5825
1.4518,-1.2037,3.7825,-1.6398,2.067,-1.1323,3.0169,-1.0859,1.6152,-1.0469,3.8425,-1.8698,-0.1166,-1.5204,1.4972,-1.591
1.4518,-1.2037,3.7825,-1.6398,2.067,-1.1323,3.0169,-1.0859,1.6152,-1.0469,3.8425,-1.8698,-0.1166,-1.5204,1.4972,-1.591
1.4518,-1.2037,3.7825,-1.6398,2.067,-1.1323,3.0169,-1.0859,1.6152,-1.0469,3.8425,-1.8698,-0.1166,-1.5204,1.4972,-1.591
1.0874,-1.2156,3.7369,-1.6697,1.9639,-1.1539,2.9474,-1.0812,1.5445,-1.0386,3.7781,-1.8741,-0.129,-1.53,1.4698,-1.596
1.0874,-1.2156,3.7369,-1.6697,1.9639,-1.1539,2.9474,-1.0812,1.5445,-1.0386,3.7781,-1.8741,-0.129,-1.53,1.4698,-1.596
1.0874,-1.2156,3.7369,-1.6697,1.9639,-1.1539,2.9474,-1.0812,1.5445,-1.0386,3.7781,-1.8741,-0.129,-1.53,1.4698,-1.596
0.763,-1.2746,3.716,-1.7159,1.8615,-1.1755,2.8636,-1.0794,1.5445,-1.0386,3.7495,-1.8911,-0.1543,-1.5211,1.4463,-1.6003
0.763,-1.2746,3.716,-1.7159,1.8615,-1.1755,2.8636,-1.0794,1.5445,-1.0386,3.7495,-1.8911,-0.1543,-1.5211,1.4463,-1.6003
0.5878,-1.2815,3.6916,-1.7377,1.8207,-1.1841,2.8019,-1.0854,1.6028,-1.0759,3.7094,-1.9106,-0.2215,-1.4927,1.415,-1.6061
0.7779,-1.3829,3.6497,-1.7153,1.7898,-1.1732,2.7694,-1.0976,1.7195,-1.1504,3.6748,-1.9186,-0.2549,-1.4855,1.3994,-1.6152
0.8093,-1.4282,3.6045,-1.7069,1.7898,-1.1732,2.7478,-1.1137,1.7322,-1.1216,3.6402,-1.9265,-0.309,-1.4757,1.3915,-1.6291
0.8093,-1.4282,3.6045,-1.7069,1.7898,-1.1732,2.7478,-1.1137,1.7322,-1.1216,3.6402,-1.9265,-0.309,-1.4757,1.3915,-1.6291
0.9062,-1.394,3.5454,-1.6784,1.8925,-1.1864,2.7334,-1.1165,1.643,-1.0401,3.5882,-1.9282,-0.3295,-1.4871,1.3739,-1.6355
0.9062,-1.394,3.5454,-1.6784,1.8925,-1.1864,2.7334,-1.1165,1.643,-1.0401,3.5882,-1.9282,-0.3295,-1.4871,1.3739,-1.6355
0.9062,-1.394,3.5454,-1.6784,1.8925,-1.1864,2.7334,-1.1165,1.643,-1.0401,3.5882,-1.9282,-0.3295,-1.4871,1.3739,-1.6355
1.0037,-1.3597,3.542,-1.6925,1.9341,-1.2126,2.719,-1.1193,1.5445,-1.0386,3.5776,-1.9513,-0.3624,-1.494,1.3429,-1.6287
1.0037,-1.3597,3.542,-1.6925,1.9341,-1.2126,2.719,-1.1193,1.5445,-1.0386,3.5776,-1.9513,-0.3624,-1.494,1.3429,-1.6287
1.0528,-1.3425,3.5594,-1.6986,1.9752,-1.2041,2.7334,-1.1165,1.5016,-1.0235,3.6365,-1.9788,-0.3456,-1.5046,1.3411,-1.6197
1.2967,-1.4287,3.6149,-1.703,1.9851,-1.1845,2.7803,-1.1014,1.5875,-1.0538,3.7295,-1.9782,-0.2962,-1.4942,1.3703,-1.6049
1.2967,-1.4287,3.6149,-1.703,1.9851,-1.1845,2.7803,-1.1014,1.5875,-1.0538,3.7295,-1.9782,-0.2962,-1.4942,1.3703,-1.6049
1.5621,-1.4531,3.702,-1.6956,2.0051,-1.1452,2.8818,-1.0818,1.7141,-1.0485,3.8448,-1.9315,-0.2217,-1.4786,1.4327,-1.5871
1.5621,-1.4531,3.702,-1.6956,2.0051,-1.1452,2.8818,-1.0818,1.7141,-1.0485,3.8448,-1.9315,-0.2217,-1.4786,1.4327,-1.5871
1.5621,-1.4531,3.702,-1.6956,2.0051,-1.1452,2.8818,-1.0818,1.7141,-1.0485,3.8448,-1.9315,-0.2217,-1.4786,1.4327,-1.5871
1.5621,-1.4531,3.702,-1.6956,2.0051,-1.1452,2.8818,-1.0818,1.7141,-1.0485,3.8448,-1.9315,-0.2217,-1.4786,1.4327,-1.5871
1.7283,-1.5118,3.7755,-1.6681,2.015,-1.1255,3.0133,-1.0686,1.87,-1.0364,3.9667,-1.8729,-0.1385,-1.4613,1.5073,-1.5672
1.7283,-1.5118,3.7755,-1.6681,2.015,-1.1255,3.0133,-1.0686,1.87,-1.0364,3.9667,-1.8729,-0.1385,-1.4613,1.5073,-1.5672
1.7348,-1.339,3.8777,-1.6427,2.0563,-1.1168,3.1571,-1.0595,1.9679,-0.9866,4.1204,-1.8385,-0.0421,-1.4485,1.592,-1.5549
1.5534,-1.1686,3.9771,-1.6314,2.1085,-1.1236,3.2538,-1.0414,2.0822,-0.959,4.2702,-1.8158,0.0892,-1.4573,1.6653,-1.5448
1.5534,-1.1686,3.9771,-1.6314,2.1085,-1.1236,3.2538,-1.0414,2.0822,-0.959,4.2702,-1.8158,0.0892,-1.4573,1.6653,-1.5448
1.4193,-1.1568,4.0448,-1.6322,2.1614,-1.1656,3.2875,-1.017,2.1842,-0.961,4.3731,-1.8038,0.183,-1.4668,1.721,-1.5347
1.4193,-1.1568,4.0448,-1.6322,2.1614,-1.1656,3.2875,-1.017,2.1842,-0.961,4.3731,-1.8038,0.183,-1.4668,1.721,-1.5347
1.1864,-1.1804,4.1164,-1.6574,2.1305,-1.1895,3.2913,-0.9982,2.1974,-0.9314,4.4586,-1.8063,0.2128,-1.4537,1.755,-1.5254
1.1864,-1.1804,4.1164,-1.6574,2.1305,-1.1895,3.2913,-0.9982,2.1974,-0.9314,4.4586,-1.8063,0.2128,-1.4537,1.755,-1.5254
1.0874,-1.2156,4.181,-1.6725,2.1305,-1.1895,3.3026,-0.9901,2.2578,-0.9699,4.483,-1.801,0.2083,-1.4332,1.775,-1.5219
1.0874,-1.2156,4.181,-1.6725,2.1305,-1.1895,3.3026,-0.9901,2.2578,-0.9699,4.483,-1.801,0.2083,-1.4332,1.775,-1.5219
1.0874,-1.2156,4.181,-1.6725,2.1305,-1.1895,3.3026,-0.9901,2.2578,-0.9699,4.483,-1.801,0.2083,-1.4332,1.775,-1.5219
1.1195,-1.2618,4.1776,-1.648,2.1305,-1.1895,3.3026,-0.9901,2.3767,-0.9948,4.4888,-1.7892,0.2082,-1.419,1.797,-1.5211
1.1514,-1.308,4.1453,-1.6211,2.1305,-1.1895,3.31,-1.0008,2.316,-0.9562,4.4766,-1.7918,0.1953,-1.4144,1.8209,-1.5295
1.201,-1.2907,4.1274,-1.6147,2.1827,-1.1964,3.3249,-1.0222,2.2844,-0.9107,4.4337,-1.7906,0.1782,-1.4178,1.8268,-1.538
1.201,-1.2907,4.1274,-1.6147,2.1827,-1.1964,3.3249,-1.0222,2.2844,-0.9107,4.4337,-1.7906,0.1782,-1.4178,1.8268,-1.538
1.201,-1.2907,4.1274,-1.6147,2.1827,-1.1964,3.3249,-1.0222,2.2844,-0.9107,4.4337,-1.7906,0.1782,-1.4178,1.8268,-1.538
1.2829,-1.3196,4.0986,-1.6124,2.2668,-1.2145,3.3248,-1.0343,2.1948,-0.879,4.3909,-1.7893,0.174,-1.4258,1.8247,-1.5415
1.2829,-1.3196,4.0986,-1.6124,2.2668,-1.2145,3.3248,-1.0343,2.1948,-0.879,4.3909,-1.7893,0.174,-1.4258,1.8247,-1.5415
1.233,-1.3368,4.0485,-1.6179,2.3091,-1.241,3.2911,-1.0345,2.0638,-0.8842,4.3489,-1.8091,0.1358,-1.4407,1.7928,-1.5345
1.233,-1.3368,4.0485,-1.6179,2.3091,-1.241,3.2911,-1.0345,2.0638,-0.8842,4.3489,-1.8091,0.1358,-1.4407,1.7928,-1.5345
1.169,-1.2444,4.0377,-1.6219,2.3619,-1.2481,3.2911,-1.0345,1.9211,-0.9191,4.3253,-1.8353,0.0933,-1.4493,1.7729,-1.5318
1.201,-1.2907,4.027,-1.6259,2.2981,-1.1906,3.2725,-1.0319,1.88,-0.9555,4.338,-1.8535,0.0721,-1.4465,1.761,-1.5275
1.201,-1.2907,4.027,-1.6259,2.2981,-1.1906,3.2725,-1.0319,1.88,-0.9555,4.338,-1.8535,0.0721,-1.4465,1.761,-1.5275
1.4981,-1.3607,4.0341,-1.6361,2.2234,-1.1175,3.2725,-1.0319,1.955,-1.0159,4.3196,-1.847,0.0636,-1.4482,1.761,-1.5275
1.4981,-1.3607,4.0341,-1.6361,2.2234,-1.1175,3.2725,-1.0319,1.955,-1.0159,4.3196,-1.847,0.0636,-1.4482,1.761,-1.5275
1.7156,-1.4025,4.0341,-1.6361,2.181,-1.0908,3.2985,-1.0451,2.0145,-1.0538,4.3069,-1.8288,0.0636,-1.4482,1.7629,-1.5304
1.7156,-1.4025,4.0341,-1.6361,2.181,-1.0908,3.2985,-1.0451,2.0145,-1.0538,4.3069,-1.8288,0.0636,-1.4482,1.7629,-1.5304
1.7156,-1.4025,4.0341,-1.6361,2.181,-1.0908,3.2985,-1.0451,2.0145,-1.0538,4.3069,-1.8288,0.0636,-1.4482,1.7629,-1.5304
1.754,-1.275,4.0341,-1.6361,2.181,-1.0908,3.3358,-1.0623,2.0585,-1.0693,4.2639,-1.8067,0.0636,-1.4482,1.7708,-1.5353
1.754,-1.275,4.0341,-1.6361,2.181,-1.0908,3.3358,-1.0623,2.0585,-1.0693,4.2639,-1.8067,0.0636,-1.4482,1.7708,-1.5353
1.6045,-1.1511,4.0234,-1.6401,2.1602,-1.0952,3.332,-1.0691,2.1158,-1.0558,4.2455,-1.8002,0.102,-1.4618,1.7668,-1.536
1.4699,-1.1391,4.0269,-1.6645,2.1608,-1.1304,3.2798,-1.0546,2.1003,-1.0334,4.2216,-1.8055,0.1106,-1.4743,1.7548,-1.5382
1.4699,-1.1391,4.0269,-1.6645,2.1608,-1.1304,3.2798,-1.0546,2.1003,-1.0334,4.2216,-1.8055,0.1106,-1.4743,1.7548,-1.5382
1.2862,-1.1451,4.0125,-1.6826,2.0984,-1.1434,3.2165,-1.0484,2.0847,-1.0109,4.2285,-1.8355,0.0978,-1.4697,1.7408,-1.5438
1.2862,-1.1451,4.0125,-1.6826,2.0984,-1.1434,3.2165,-1.0484,2.0847,-1.0109,4.2285,-1.8355,0.0978,-1.4697,1.7408,-1.5438
1.3186,-1.1919,4.016,-1.7069,2.0777,-1.1477,3.1756,-1.05,2.1446,-1.049,4.187,-1.8551,0.0595,-1.4562,1.7109,-1.546
1.3186,-1.1919,4.016,-1.7069,2.0777,-1.1477,3.1756,-1.05,2.1446,-1.049,4.187,-1.8551,0.0595,-1.4562,1.7109,-1.546
1.3186,-1.1919,4.016,-1.7069,2.0777,-1.1477,3.1756,-1.05,2.1446,-1.049,4.187,-1.8551,0.0595,-1.4562,1.7109,-1.546
1.4336,-1.2678,3.9982,-1.7006,2.0777,-1.1477,3.1275,-1.053,2.3226,-1.1119,4.1512,-1.8631,0.0211,-1.4426,1.687,-1.5503
1.4336,-1.2678,3.9982,-1.7006,2.0777,-1.1477,3.1275,-1.053,2.3226,-1.1119,4.1512,-1.8631,0.0211,-1.4426,1.687,-1.5503
1.4336,-1.2678,3.9486,-1.6677,2.0777,-1.1477,3.0942,-1.0653,2.3983,-1.1725,4.0855,-1.8672,-0.0296,-1.4388,1.671,-1.5595
1.4336,-1.2678,3.9486,-1.6677,2.0777,-1.1477,3.0942,-1.0653,2.3983,-1.1725,4.0855,-1.8672,-0.0296,-1.4388,1.671,-1.5595
1.4013,-1.2211,3.8954,-1.6489,2.0777,-1.1477,3.0574,-1.0722,2.2935,-1.1186,4.0319,-1.8687,-0.0843,-1.443,1.657,-1.5715
1.4013,-1.2211,3.8954,-1.6489,2.0777,-1.1477,3.0574,-1.0722,2.2935,-1.1186,4.0319,-1.8687,-0.0843,-1.443,1.657,-1.5715
1.4013,-1.2211,3.8494,-1.6404,2.0777,-1.1477,3.0243,-1.0845,2.1134,-1.0041,3.9667,-1.8729,-0.1135,-1.4561,1.643,-1.5835
1.4013,-1.2211,3.8494,-1.6404,2.0777,-1.1477,3.0243,-1.0845,2.1134,-1.0041,3.9667,-1.8729,-0.1135,-1.4561,1.643,-1.5835
1.3688,-1.1744,3.8035,-1.6319,2.1406,-1.1699,2.9986,-1.0953,1.9211,-0.9191,3.908,-1.8861,-0.1383,-1.4754,1.6094,-1.5864
1.3688,-1.1744,3.8035,-1.6319,2.1406,-1.1699,2.9986,-1.0953,1.9211,-0.9191,3.908,-1.8861,-0.1383,-1.4754,1.6094,-1.5864
1.2862,-1.1451,3.7895,-1.65,2.1827,-1.1964,2.9547,-1.1036,1.7208,-0.9162,3.8619,-1.9173,-0.1588,-1.5009,1.5582,-1.5831
1.2862,-1.1451,3.7895,-1.65,2.1827,-1.1964,2.9547,-1.1036,1.7208,-0.9162,3.8619,-1.9173,-0.1588,-1.5009,1.5582,-1.5831
1.2362,-1.1628,3.7579,-1.6619,2.1827,-1.1964,2.9218,-1.1158,1.5383,-0.936,3.8339,-1.9546,-0.2044,-1.5173,1.5071,-1.5861
1.2362,-1.1628,3.7579,-1.6619,2.1827,-1.1964,2.9218,-1.1158,1.5383,-0.936,3.8339,-1.9546,-0.2044,-1.5173,1.5071,-1.5861
1.4336,-1.2678,3.7194,-1.6636,2.1299,-1.1545,2.8745,-1.1189,1.4709,-0.9793,3.8168,-1.9688,-0.2293,-1.5225,1.4659,-1.5905
1.4336,-1.2678,3.7194,-1.6636,2.1299,-1.1545,2.8745,-1.1189,1.4709,-0.9793,3.8168,-1.9688,-0.2293,-1.5225,1.4659,-1.5905
1.5489,-1.3436,3.6809,-1.6653,2.067,-1.1323,2.8419,-1.1311,1.4894,-1.0525,3.7457,-1.9436,-0.2584,-1.5215,1.4249,-1.5949
1.5489,-1.3436,3.6809,-1.6653,2.067,-1.1323,2.8419,-1.1311,1.4894,-1.0525,3.7457,-1.9436,-0.2584,-1.5215,1.4249,-1.5949
1.5998,-1.3265,3.6321,-1.671,2.0357,-1.1212,2.831,-1.1509,1.4619,-1.0594,3.6986,-1.9337,-0.2706,-1.5311,1.3995,-1.6027
1.5998,-1.3265,3.6321,-1.671,2.0357,-1.1212,2.831,-1.1509,1.4619,-1.0594,3.6986,-1.9337,-0.2706,-1.5311,1.3995,-1.6027
1.4843,-1.2505,3.6009,-1.6828,2.0257,-1.1409,2.7984,-1.1631,1.4344,-1.0663,3.6226,-1.9203,-0.2579,-1.5495,1.378,-1.616
1.4843,-1.2505,3.6009,-1.6828,2.0257,-1.1409,2.7984,-1.1631,1.4344,-1.0663,3.6226,-1.9203,-0.2579,-1.5495,1.378,-1.616
1.3186,-1.1919,3.5664,-1.7087,1.9951,-1.1649,2.748,-1.161,1.4222,-1.0951,3.5415,-1.9185,-0.2409,-1.574,1.343,-1.6225
1.3186,-1.1919,3.5664,-1.7087,1.9951,-1.1649,2.748,-1.161,1.4222,-1.0951,3.5415,-1.9185,-0.2409,-1.574,1.343,-1.6225
1.0381,-1.2331,3.5389,-1.7444,1.9236,-1.1974,2.6653,-1.1592,1.3524,-1.0869,3.4907,-1.9406,-0.2699,-1.573,1.3158,-1.6275
1.0381,-1.2331,3.5389,-1.7444,1.9236,-1.1974,2.6653,-1.1592,1.3524,-1.0869,3.4907,-1.9406,-0.2699,-1.573,1.3158,-1.6275
0.8113,-1.2571,3.5148,-1.7662,1.8207,-1.1841,2.6331,-1.1596,1.4526,-1.1388,3.4627,-1.9574,-0.3116,-1.5536,1.2907,-1.629
0.8113,-1.2571,3.5148,-1.7662,1.8207,-1.1841,2.6331,-1.1596,1.4526,-1.1388,3.4627,-1.9574,-0.3116,-1.5536,1.2907,-1.629
0.9232,-1.3312,3.5251,-1.7623,1.8207,-1.1841,2.6474,-1.145,1.6512,-1.1925,3.4977,-1.9698,-0.3204,-1.5274,1.3004,-1.6241
0.9232,-1.3312,3.5251,-1.7623,1.8207,-1.1841,2.6474,-1.145,1.6512,-1.1925,3.4977,-1.9698,-0.3204,-1.5274,1.3004,-1.6241
0.9549,-1.3768,3.5076,-1.7183,1.8207,-1.1841,2.7011,-1.1287,1.8798,-1.2402,3.5661,-1.9539,-0.2917,-1.5144,1.343,-1.6162
0.9549,-1.3768,3.5076,-1.7183,1.8207,-1.1841,2.7011,-1.1287,1.8798,-1.2402,3.5661,-1.9539,-0.2917,-1.5144,1.343,-1.6162
1.0984,-1.4961,3.5558,-1.6745,1.8411,-1.1798,2.8129,-1.113,1.9798,-1.2424,3.6694,-1.9301,-0.2546,-1.4996,1.4209,-1.6081
1.0984,-1.4961,3.5558,-1.6745,1.8411,-1.1798,2.8129,-1.113,1.9798,-1.2424,3.6694,-1.9301,-0.2546,-1.4996,1.4209,-1.6081
1.0984,-1.4961,3.5558,-1.6745,1.8411,-1.1798,2.8129,-1.113,1.9798,-1.2424,3.6694,-1.9301,-0.2546,-1.4996,1.4209,-1.6081
1.1792,-1.5247,3.6319,-1.6327,1.913,-1.1821,2.9547,-1.0917,2.0785,-1.1939,3.82,-1.8957,-0.184,-1.492,1.5246,-1.5986
1.1792,-1.5247,3.6319,-1.6327,1.913,-1.1821,2.9547,-1.0917,2.0785,-1.1939,3.82,-1.8957,-0.184,-1.492,1.5246,-1.5986
1.0845,-1.3882,3.7823,-1.6013,2.1203,-1.2091,3.1645,-1.046,2.0405,-0.9953,4.0848,-1.8464,-0.0795,-1.4775,1.6808,-1.5735
1.0845,-1.3882,3.7823,-1.6013,2.1203,-1.2091,3.1645,-1.046,2.0405,-0.9953,4.0848,-1.8464,-0.0795,-1.4775,1.6808,-1.5735
1.0845,-1.3882,3.7823,-1.6013,2.1203,-1.2091,3.1645,-1.046,2.0405,-0.9953,4.0848,-1.8464,-0.0795,-1.4775,1.6808,-1.5735
1.1338,-1.3711,3.867,-1.608,2.2249,-1.2229,3.2427,-1.0254,2.0249,-0.9728,4.2046,-1.8408,-0.0458,-1.4847,1.7089,-1.5495
1.1338,-1.3711,3.867,-1.608,2.2249,-1.2229,3.2427,-1.0254,2.0249,-0.9728,4.2046,-1.8408,-0.0458,-1.4847,1.7089,-1.5495
1.1833,-1.354,3.9379,-1.6331,2.2668,-1.2145,3.2875,-1.017,1.9964,-0.9797,4.2772,-1.8458,-0.0204,-1.4937,1.7309,-1.5361
1.1833,-1.354,3.9379,-1.6331,2.2668,-1.2145,3.2875,-1.017,1.9964,-0.9797,4.2772,-1.8458,-0.0204,-1.4937,1.7309,-1.5361
1.4103,-1.5033,3.9628,-1.6496,2.2138,-1.1725,3.3024,-1.0143,1.9964,-0.9797,4.3501,-1.8509,0.0051,-1.5027,1.739,-1.5283
1.6576,-1.5907,3.9806,-1.6559,2.2031,-1.157,3.3099,-1.0129,2.0119,-1.0022,4.3495,-1.83,0.0094,-1.5089,1.743,-1.5276
1.6576,-1.5907,3.9806,-1.6559,2.2031,-1.157,3.3099,-1.0129,2.0119,-1.0022,4.3495,-1.83,0.0094,-1.5089,1.743,-1.5276
1.6892,-1.6363,3.9592,-1.6638,2.1192,-1.1391,3.3286,-1.0275,1.9808,-0.9572,4.3184,-1.8052,0.0009,-1.5106,1.745,-1.5304
1.6892,-1.6363,3.9592,-1.6638,2.1192,-1.1391,3.3286,-1.0275,1.9808,-0.9572,4.3184,-1.8052,0.0009,-1.5106,1.745,-1.5304
1.6892,-1.6363,3.9592,-1.6638,2.1192,-1.1391,3.3286,-1.0275,1.9808,-0.9572,4.3184,-1.8052,0.0009,-1.5106,1.745,-1.5304
1.5621,-1.4531,3.9592,-1.6638,2.0877,-1.1279,3.3547,-1.0408,1.9495,-0.9122,4.312,-1.7961,0.0009,-1.5106,1.7429,-1.5339
1.5621,-1.4531,3.9592,-1.6638,2.0877,-1.1279,3.3547,-1.0408,1.9495,-0.9122,4.312,-1.7961,0.0009,-1.5106,1.7429,-1.5339
1.4336,-1.2678,3.9379,-1.6716,2.0563,-1.1168,3.3546,-1.0529,1.9937,-0.9278,4.2696,-1.7949,0.0095,-1.523,1.7388,-1.541
1.4336,-1.2678,3.9379,-1.6716,2.0563,-1.1168,3.3546,-1.0529,1.9937,-0.9278,4.2696,-1.7949,0.0095,-1.523,1.7388,-1.541
1.2037,-1.116,3.9166,-1.6795,2.067,-1.1323,3.3359,-1.0503,2.0222,-0.9208,4.2575,-1.7975,0.0605,-1.541,1.7368,-1.5445
1.2037,-1.116,3.9166,-1.6795,2.067,-1.1323,3.3359,-1.0503,2.0222,-0.9208,4.2575,-1.7975,0.0605,-1.541,1.7368,-1.5445
1.0552,-1.1692,3.9201,-1.7038,2.0677,-1.1673,3.2836,-1.0359,2.0379,-0.9434,4.2702,-1.8158,0.0775,-1.5517,1.7368,-1.5445
1.0552,-1.1692,3.9201,-1.7038,2.0677,-1.1673,3.2836,-1.0359,2.0379,-0.9434,4.2702,-1.8158,0.0775,-1.5517,1.7368,-1.5445
0.9083,-1.2221,3.9589,-1.7405,2.0264,-1.1759,3.2427,-1.0254,2.0405,-0.9953,4.2525,-1.8302,0.0563,-1.5489,1.7269,-1.5432
0.9083,-1.2221,3.9589,-1.7405,2.0264,-1.1759,3.2427,-1.0254,2.0405,-0.9953,4.2525,-1.8302,0.0563,-1.5489,1.7269,-1.5432
0.972,-1.3139,3.9943,-1.753,2.0264,-1.1759,3.2352,-1.0268,2.2178,-1.058,4.2525,-1.8302,0.0264,-1.5196,1.7348,-1.5417
0.972,-1.3139,3.9943,-1.753,2.0264,-1.1759,3.2352,-1.0268,2.2178,-1.058,4.2525,-1.8302,0.0264,-1.5196,1.7348,-1.5417
0.972,-1.3139,3.9943,-1.753,2.0264,-1.1759,3.2352,-1.0268,2.2178,-1.058,4.2525,-1.8302,0.0264,-1.5196,1.7348,-1.5417
0.9232,-1.3312,3.9732,-1.7226,2.0157,-1.1606,3.2055,-1.0203,2.3226,-1.1119,4.2342,-1.8237,0.0137,-1.5151,1.7427,-1.5466
0.9232,-1.3312,3.9732,-1.7226,2.0157,-1.1606,3.2055,-1.0203,2.3226,-1.1119,4.2342,-1.8237,0.0137,-1.5151,1.7427,-1.5466
1.0037,-1.3597,3.9698,-1.6983,2.057,-1.152,3.2017,-1.027,2.2914,-1.067,4.2342,-1.8237,-0.0075,-1.5123,1.7526,-1.5544
1.0037,-1.3597,3.9698,-1.6983,2.057,-1.152,3.2017,-1.027,2.2914,-1.067,4.2342,-1.8237,-0.0075,-1.5123,1.7526,-1.5544
1.0845,-1.3882,3.8918,-1.6631,2.2352,-1.2033,3.1719,-1.0447,2.0561,-1.0178,4.1386,-1.8449,-0.0787,-1.5338,1.7008,-1.5573
1.0845,-1.3882,3.8918,-1.6631,2.2352,-1.2033,3.1719,-1.0447,2.0561,-1.0178,4.1386,-1.8449,-0.0787,-1.5338,1.7008,-1.5573
1.0845,-1.3882,3.8918,-1.6631,2.2352,-1.2033,3.1719,-1.0447,2.0561,-1.0178,4.1386,-1.8449,-0.0787,-1.5338,1.7008,-1.5573
1.1972,-1.4625,3.8706,-1.671,2.2138,-1.1725,3.146,-1.0555,1.8545,-1.0141,4.1218,-1.88,-0.1331,-1.5379,1.6591,-1.5617
1.1972,-1.4625,3.8706,-1.671,2.2138,-1.1725,3.146,-1.0555,1.8545,-1.0141,4.1218,-1.88,-0.1331,-1.5379,1.6591,-1.5617
1.3601,-1.52,3.8318,-1.6726,2.2031,-1.157,3.109,-1.0625,1.7982,-1.0279,4.0862,-1.8879,-0.1664,-1.5447,1.6215,-1.5653
1.3601,-1.52,3.8318,-1.6726,2.2031,-1.157,3.109,-1.0625,1.7982,-1.0279,4.0862,-1.8879,-0.1664,-1.5447,1.6215,-1.5653
1.3601,-1.52,3.8318,-1.6726,2.2031,-1.157,3.109,-1.0625,1.7982,-1.0279,4.0862,-1.8879,-0.1664,-1.5447,1.6215,-1.5653
1.5749,-1.5615,3.8036,-1.6703,2.1608,-1.1304,3.0942,-1.0773,1.7855,-1.0569,4.0201,-1.8714,-0.2039,-1.5454,1.6016,-1.5752
1.5749,-1.5615,3.8036,-1.6703,2.1608,-1.1304,3.0942,-1.0773,1.7855,-1.0569,4.0201,-1.8714,-0.2039,-1.5454,1.6016,-1.5752
1.365,-1.3486,3.751,-1.69,2.077,-1.1125,3.0573,-1.1081,1.6862,-1.0553,3.8596,-1.8555,-0.2035,-1.5733,1.5581,-1.5894
1.365,-1.3486,3.751,-1.69,2.077,-1.1125,3.0573,-1.1081,1.6862,-1.0553,3.8596,-1.8555,-0.2035,-1.5733,1.5581,-1.5894
1.201,-1.2907,3.744,-1.7181,2.0357,-1.1212,2.9949,-1.102,1.6583,-1.0622,3.813,-1.8661,-0.2033,-1.5873,1.5364,-1.5964
1.201,-1.2907,3.744,-1.7181,2.0357,-1.1212,2.9949,-1.102,1.6583,-1.0622,3.813,-1.8661,-0.2033,-1.5873,1.5364,-1.5964
1.201,-1.2907,3.744,-1.7181,2.0357,-1.1212,2.9949,-1.102,1.6583,-1.0622,3.813,-1.8661,-0.2033,-1.5873,1.5364,-1.5964
1.1833,-1.354,3.737,-1.7461,1.9944,-1.1299,2.9401,-1.1064,1.7042,-1.1284,3.7611,-1.8884,-0.2366,-1.5801,1.503,-1.5994
1.1833,-1.354,3.737,-1.7461,1.9944,-1.1299,2.9401,-1.1064,1.7042,-1.1284,3.7611,-1.8884,-0.2366,-1.5801,1.503,-1.5994
1.2152,-1.3998,3.7091,-1.7439,1.9738,-1.1342,2.8854,-1.1109,1.806,-1.1809,3.7387,-1.9142,-0.2699,-1.573,1.4795,-1.6037
1.1833,-1.354,3.6497,-1.7153,1.9426,-1.1232,2.8382,-1.114,1.8341,-1.1742,3.6925,-1.9248,-0.3196,-1.5693,1.4696,-1.6149
1.1833,-1.354,3.6497,-1.7153,1.9426,-1.1232,2.8382,-1.114,1.8341,-1.1742,3.6925,-1.9248,-0.3196,-1.5693,1.4696,-1.6149
1.1833,-1.354,3.6219,-1.7131,1.9738,-1.1342,2.8056,-1.1262,1.7295,-1.0706,3.6579,-1.9328,-0.3525,-1.5761,1.4539,-1.624
1.1833,-1.354,3.6219,-1.7131,1.9738,-1.1342,2.8056,-1.1262,1.7295,-1.0706,3.6579,-1.9328,-0.3525,-1.5761,1.4539,-1.624
1.1833,-1.354,3.6219,-1.7131,1.9738,-1.1342,2.8056,-1.1262,1.7295,-1.0706,3.6579,-1.9328,-0.3525,-1.5761,1.4539,-1.624
1.201,-1.2907,3.6045,-1.7069,2.099,-1.1784,2.7912,-1.1408,1.6276,-1.0179,3.5943,-1.9371,-0.3853,-1.5829,1.4265,-1.629
1.201,-1.2907,3.6045,-1.7069,2.099,-1.1784,2.7912,-1.1408,1.6276,-1.0179,3.5943,-1.9371,-0.3853,-1.5829,1.4265,-1.629
1.201,-1.2907,3.5837,-1.7148,2.1934,-1.2118,2.7551,-1.1478,1.5016,-1.0235,3.567,-1.9742,-0.4178,-1.6036,1.3759,-1.6257
1.201,-1.2907,3.5837,-1.7148,2.1934,-1.2118,2.7551,-1.1478,1.5016,-1.0235,3.567,-1.9742,-0.4178,-1.6036,1.3759,-1.6257
1.201,-1.2907,3.5837,-1.7148,2.1934,-1.2118,2.7551,-1.1478,1.5016,-1.0235,3.567,-1.9742,-0.4178,-1.6036,1.3759,-1.6257
1.102,-1.3252,3.5526,-1.7266,2.1832,-1.2314,2.6976,-1.1471,1.3645,-1.0581,3.5571,-2.0174,-0.4502,-1.6243,1.3333,-1.6274
1.0528,-1.3425,3.5216,-1.7383,2.1097,-1.1938,2.6725,-1.1461,1.2829,-1.0789,3.5579,-2.0376,-0.4707,-1.6216,1.3042,-1.6234
1.0528,-1.3425,3.5216,-1.7383,2.1097,-1.1938,2.6725,-1.1461,1.2829,-1.0789,3.5579,-2.0376,-0.4707,-1.6216,1.3042,-1.6234
1.2649,-1.3828,3.5249,-1.7244,2.0984,-1.1434,2.6975,-1.1353,1.2981,-1.1007,3.5571,-2.0174,-0.4586,-1.6121,1.312,-1.6219
1.2649,-1.3828,3.5249,-1.7244,2.0984,-1.1434,2.6975,-1.1353,1.2981,-1.1007,3.5571,-2.0174,-0.4586,-1.6121,1.312,-1.6219
1.3468,-1.4117,3.549,-1.7025,2.0877,-1.1279,2.7767,-1.1318,1.3949,-1.1019,3.6128,-1.9637,-0.4014,-1.6002,1.3605,-1.6161
1.333,-1.3024,3.6357,-1.6951,2.1501,-1.115,2.9145,-1.1291,1.5627,-1.1116,3.704,-1.9222,-0.3318,-1.5788,1.4307,-1.6032
1.333,-1.3024,3.6357,-1.6951,2.1501,-1.115,2.9145,-1.1291,1.5627,-1.1116,3.704,-1.9222,-0.3318,-1.5788,1.4307,-1.6032
1.333,-1.3024,3.6357,-1.6951,2.1501,-1.115,2.9145,-1.1291,1.5627,-1.1116,3.704,-1.9222,-0.3318,-1.5788,1.4307,-1.6032
1.2685,-1.2095,3.7159,-1.6776,2.2342,-1.133,3.0242,-1.1083,1.6737,-1.0843,3.8254,-1.8841,-0.2118,-1.575,1.5168,-1.5937
1.2685,-1.2095,3.7159,-1.6776,2.2342,-1.133,3.0242,-1.1083,1.6737,-1.0843,3.8254,-1.8841,-0.2118,-1.575,1.5168,-1.5937
1.2037,-1.116,3.8036,-1.6703,2.2761,-1.1244,3.1126,-1.0798,1.7882,-1.1081,3.9307,-1.8602,-0.1032,-1.5809,1.5838,-1.5816
0.9739,-1.1405,3.853,-1.6647,2.2342,-1.133,3.1571,-1.0474,1.829,-1.0723,4.0312,-1.848,-0.0192,-1.5921,1.6333,-1.5695
0.9739,-1.1405,3.853,-1.6647,2.2342,-1.133,3.1571,-1.0474,1.829,-1.0723,4.0312,-1.848,-0.0192,-1.5921,1.6333,-1.5695
0.9739,-1.1405,3.853,-1.6647,2.2342,-1.133,3.1571,-1.0474,1.829,-1.0723,4.0312,-1.848,-0.0192,-1.5921,1.6333,-1.5695
0.7794,-1.2113,3.8706,-1.671,2.1715,-1.1459,3.172,-1.0206,1.8854,-1.0587,4.1085,-1.8411,0.0271,-1.5898,1.671,-1.5595
0.7794,-1.2113,3.8706,-1.671,2.1715,-1.1459,3.172,-1.0206,1.8854,-1.0587,4.1085,-1.8411,0.0271,-1.5898,1.671,-1.5595
0.5878,-1.2815,3.9201,-1.7038,2.1091,-1.1588,3.1646,-1.0099,1.9137,-1.0519,4.1807,-1.8461,0.0354,-1.5741,1.6989,-1.5545
0.5878,-1.2815,3.9201,-1.7038,2.1091,-1.1588,3.1646,-1.0099,1.9137,-1.0519,4.1807,-1.8461,0.0354,-1.5741,1.6989,-1.5545
0.5716,-1.3442,3.9555,-1.7163,2.0777,-1.1477,3.1795,-1.0192,1.9421,-1.0451,4.2475,-1.8628,0.014,-1.5432,1.7108,-1.5524
0.5716,-1.3442,3.9555,-1.7163,2.0777,-1.1477,3.1795,-1.0192,1.9421,-1.0451,4.2475,-1.8628,0.014,-1.5432,1.7108,-1.5524
0.6506,-1.3721,3.9662,-1.7124,2.1192,-1.1391,3.1831,-1.0245,2.1181,-1.1073,4.2658,-1.8693,-0.0116,-1.5202,1.7089,-1.5495
0.6506,-1.3721,3.9662,-1.7124,2.1192,-1.1391,3.1831,-1.0245,2.1181,-1.1073,4.2658,-1.8693,-0.0116,-1.5202,1.7089,-1.5495
0.6506,-1.3721,3.9662,-1.7124,2.1192,-1.1391,3.1831,-1.0245,2.1181,-1.1073,4.2658,-1.8693,-0.0116,-1.5202,1.7089,-1.5495
0.8262,-1.3657,3.9627,-1.6881,2.1608,-1.1304,3.1905,-1.0352,2.2221,-1.1608,4.2601,-1.881,-0.0454,-1.5129,1.7088,-1.5559
0.8262,-1.3657,3.9627,-1.6881,2.1608,-1.1304,3.1905,-1.0352,2.2221,-1.1608,4.2601,-1.881,-0.0454,-1.5129,1.7088,-1.5559
0.8262,-1.3657,3.9627,-1.6881,2.1608,-1.1304,3.1905,-1.0352,2.2221,-1.1608,4.2601,-1.881,-0.0454,-1.5129,1.7088,-1.5559
1.2152,-1.3998,3.9308,-1.6614,2.2234,-1.1175,3.1904,-1.0592,2.1601,-1.0714,4.1876,-1.8759,-0.0662,-1.5242,1.7205,-1.5727
1.2152,-1.3998,3.9308,-1.6614,2.2234,-1.1175,3.1904,-1.0592,2.1601,-1.0714,4.1876,-1.8759,-0.0662,-1.5242,1.7205,-1.5727
1.2649,-1.3828,3.9025,-1.6591,2.3187,-1.1512,3.1756,-1.062,2.0561,-1.0178,4.1456,-1.8748,-0.0744,-1.54,1.7086,-1.5686
1.2649,-1.3828,3.9025,-1.6591,2.3187,-1.1512,3.1756,-1.062,2.0561,-1.0178,4.1456,-1.8748,-0.0744,-1.54,1.7086,-1.5686
1.2649,-1.3828,3.8918,-1.6631,2.3397,-1.1469,3.1682,-1.0634,1.9705,-1.0382,4.1343,-1.8981,-0.0952,-1.5512,1.6888,-1.5658
1.2649,-1.3828,3.8918,-1.6631,2.3397,-1.1469,3.1682,-1.0634,1.9705,-1.0382,4.1343,-1.8981,-0.0952,-1.5512,1.6888,-1.5658
1.2649,-1.3828,3.8918,-1.6631,2.3397,-1.1469,3.1682,-1.0634,1.9705,-1.0382,4.1343,-1.8981,-0.0952,-1.5512,1.6888,-1.5658
1.2649,-1.3828,3.8918,-1.6631,2.3397,-1.1469,3.1682,-1.0634,1.9705,-1.0382,4.1343,-1.8981,-0.0952,-1.5512,1.6888,-1.5658
1.4607,-1.4866,3.8918,-1.7015,2.2229,-1.0822,3.1459,-1.0675,1.9576,-1.0674,4.1707,-1.9109,-0.0993,-1.5591,1.673,-1.5623
1.4607,-1.4866,3.8918,-1.7015,2.2229,-1.0822,3.1459,-1.0675,1.9576,-1.0674,4.1707,-1.9109,-0.0993,-1.5591,1.673,-1.5623
1.7088,-1.5742,3.8812,-1.7054,2.1912,-1.071,3.1459,-1.0795,2.0014,-1.0829,4.1519,-1.8838,-0.0993,-1.5591,1.665,-1.5638
1.7088,-1.5742,3.8812,-1.7054,2.1912,-1.071,3.1459,-1.0795,2.0014,-1.0829,4.1519,-1.8838,-0.0993,-1.5591,1.665,-1.5638
1.7602,-1.5578,3.8918,-1.7015,2.1595,-1.0598,3.1606,-1.0887,1.986,-1.0606,4.1211,-1.8593,-0.0993,-1.5591,1.665,-1.5701
1.7602,-1.5578,3.8918,-1.7015,2.1595,-1.0598,3.1606,-1.0887,1.986,-1.0606,4.1211,-1.8593,-0.0993,-1.5591,1.665,-1.5701
1.581,-1.39,3.8812,-1.7054,2.1387,-1.0642,3.1642,-1.106,1.9266,-1.0227,4.0911,-1.8555,-0.1077,-1.5608,1.651,-1.5757
1.5351,-1.2331,3.8565,-1.689,2.1387,-1.0642,3.1531,-1.114,1.955,-1.0159,4.0792,-1.8581,-0.0782,-1.5759,1.643,-1.5835
1.5351,-1.2331,3.8565,-1.689,2.1387,-1.0642,3.1531,-1.114,1.955,-1.0159,4.0792,-1.8581,-0.0782,-1.5759,1.643,-1.5835
1.3866,-1.1097,3.8353,-1.6969,2.1918,-1.1063,3.1014,-1.1117,1.955,-1.0159,4.0437,-1.8661,-0.0444,-1.5971,1.6251,-1.5898
1.3866,-1.1097,3.8353,-1.6969,2.1918,-1.1063,3.1014,-1.1117,1.955,-1.0159,4.0437,-1.8661,-0.0444,-1.5971,1.6251,-1.5898
1.3866,-1.1097,3.8353,-1.6969,2.1918,-1.1063,3.1014,-1.1117,1.955,-1.0159,4.0437,-1.8661,-0.0444,-1.5971,1.6251,-1.5898
1.1864,-1.1804,3.8001,-1.7227,2.1507,-1.1502,3.0096,-1.0992,1.8828,-1.0072,4.0208,-1.892,-0.0526,-1.6127,1.5974,-1.5948
1.1864,-1.1804,3.8001,-1.7227,2.1507,-1.1502,3.0096,-1.0992,1.8828,-1.0072,4.0208,-1.892,-0.0526,-1.6127,1.5974,-1.5948
0.8597,-1.2396,3.772,-1.7585,2.089,-1.1981,2.9182,-1.0987,1.7827,-1.0056,3.9923,-1.9295,-0.0944,-1.6211,1.5678,-1.6033
0.8597,-1.2396,3.772,-1.7585,2.089,-1.1981,2.9182,-1.0987,1.7827,-1.0056,3.9923,-1.9295,-0.0944,-1.6211,1.5678,-1.6033
0.8597,-1.2396,3.772,-1.7585,2.089,-1.1981,2.9182,-1.0987,1.7827,-1.0056,3.9923,-1.9295,-0.0944,-1.6211,1.5678,-1.6033
0.6984,-1.3548,3.7649,-1.7864,2.0064,-1.2151,2.8418,-1.1074,1.6554,-1.011,3.8977,-1.9299,-0.1488,-1.6111,1.5265,-1.6076
0.6984,-1.3548,3.7649,-1.7864,2.0064,-1.2151,2.8418,-1.1074,1.6554,-1.011,3.8977,-1.9299,-0.1488,-1.6111,1.5265,-1.6076
0.6984,-1.3548,3.7649,-1.7864,2.0064,-1.2151,2.8418,-1.1074,1.6554,-1.011,3.8977,-1.9299,-0.1488,-1.6111,1.5265,-1.6076
0.6029,-1.3893,3.7579,-1.8143,1.9441,-1.1931,2.7984,-1.1157,1.643,-1.0401,3.8394,-1.9431,-0.2116,-1.589,1.4911,-1.6141
0.6029,-1.3893,3.7299,-1.812,1.9024,-1.1668,2.7551,-1.1241,1.7169,-1.0995,3.7812,-1.9562,-0.2784,-1.5607,1.4539,-1.6177
0.8576,-1.4111,3.6916,-1.7757,1.9327,-1.1429,2.7371,-1.1335,1.806,-1.1809,3.7287,-1.9578,-0.3156,-1.5615,1.4188,-1.6241
0.8576,-1.4111,3.6916,-1.7757,1.9327,-1.1429,2.7371,-1.1335,1.806,-1.1809,3.7287,-1.9578,-0.3156,-1.5615,1.4188,-1.6241
0.9864,-1.4223,3.6185,-1.7271,1.9532,-1.1385,2.7048,-1.1457,1.8646,-1.2182,3.6764,-1.9594,-0.3403,-1.5666,1.405,-1.636
0.9864,-1.4223,3.6185,-1.7271,1.9532,-1.1385,2.7048,-1.1457,1.8646,-1.2182,3.6764,-1.9594,-0.3403,-1.5666,1.405,-1.636
0.9864,-1.4223,3.6185,-1.7271,1.9532,-1.1385,2.7048,-1.1457,1.8646,-1.2182,3.6764,-1.9594,-0.3403,-1.5666,1.405,-1.636
1.0669,-1.4508,3.549,-1.7025,1.9327,-1.1429,2.6869,-1.1668,1.7779,-1.1876,3.6242,-1.9611,-0.3647,-1.5856,1.399,-1.6527
1.0669,-1.4508,3.549,-1.7025,1.9327,-1.1429,2.6869,-1.1668,1.7779,-1.1876,3.6242,-1.9611,-0.3647,-1.5856,1.399,-1.6527
1.1477,-1.4793,3.504,-1.6942,1.9639,-1.1539,2.6654,-1.1828,1.6764,-1.1351,3.5608,-1.9654,-0.3932,-1.5985,1.395,-1.6721
1.1477,-1.4793,3.504,-1.6942,1.9639,-1.1539,2.6654,-1.1828,1.6764,-1.1351,3.5608,-1.9654,-0.3932,-1.5985,1.395,-1.6721
1.1477,-1.4793,3.504,-1.6942,1.9639,-1.1539,2.6654,-1.1828,1.6764,-1.1351,3.5608,-1.9654,-0.3932,-1.5985,1.395,-1.6721
1.1338,-1.3711,3.4455,-1.7039,2.089,-1.1981,2.6119,-1.2107,1.3886,-1.0002,3.4583,-1.9891,-0.4254,-1.633,1.325,-1.6849
1.1338,-1.3711,3.4455,-1.7039,2.089,-1.1981,2.6119,-1.2107,1.3886,-1.0002,3.4583,-1.9891,-0.4254,-1.633,1.325,-1.6849
1.1338,-1.3711,3.4455,-1.7039,2.089,-1.1981,2.6119,-1.2107,1.3886,-1.0002,3.4583,-1.9891,-0.4254,-1.633,1.325,-1.6849
1.0845,-1.3882,3.4147,-1.7157,2.131,-1.2245,2.5763,-1.2176,1.2374,-1.0132,3.4078,-2.0111,-0.4662,-1.6415,1.2672,-1.6769
1.0354,-1.4053,3.384,-1.7275,2.089,-1.1981,2.5478,-1.2115,1.1296,-1.0412,3.3974,-2.0339,-0.4906,-1.6466,1.2325,-1.6709
1.2469,-1.4456,3.4183,-1.7397,2.1198,-1.1742,2.5584,-1.1918,1.1598,-1.0847,3.4374,-2.0348,-0.4785,-1.6371,1.2403,-1.6632
1.2469,-1.4456,3.4183,-1.7397,2.1198,-1.1742,2.5584,-1.1918,1.1598,-1.0847,3.4374,-2.0348,-0.4785,-1.6371,1.2403,-1.6632
1.2469,-1.4456,3.4183,-1.7397,2.1198,-1.1742,2.5584,-1.1918,1.1598,-1.0847,3.4374,-2.0348,-0.4785,-1.6371,1.2403,-1.6632
1.5749,-1.5615,3.4664,-1.734,2.0984,-1.1434,2.6404,-1.1817,1.259,-1.1362,3.4871,-1.9927,-0.4339,-1.6209,1.2847,-1.6519
1.5749,-1.5615,3.4664,-1.734,2.0984,-1.1434,2.6404,-1.1817,1.259,-1.1362,3.4871,-1.9927,-0.4339,-1.6209,1.2847,-1.6519
1.5749,-1.5615,3.4664,-1.734,2.0984,-1.1434,2.6404,-1.1817,1.259,-1.1362,3.4871,-1.9927,-0.4339,-1.6209,1.2847,-1.6519
1.594,-1.4991,3.5596,-1.7366,2.1085,-1.1236,2.784,-1.1658,1.4677,-1.1606,3.6066,-1.9549,-0.352,-1.6039,1.3642,-1.6404
1.594,-1.4991,3.5596,-1.7366,2.1085,-1.1236,2.784,-1.1658,1.4677,-1.1606,3.6066,-1.9549,-0.352,-1.6039,1.3642,-1.6404
1.4981,-1.3607,3.6567,-1.7254,2.1186,-1.1038,2.9181,-1.1462,1.6208,-1.1487,3.7387,-1.9142,-0.2489,-1.5896,1.448,-1.6219
1.3832,-1.2851,3.744,-1.7181,2.1394,-1.0995,3.0095,-1.1111,1.7754,-1.1369,3.8846,-1.8914,-0.124,-1.5921,1.5285,-1.6042
1.201,-1.2907,3.8458,-1.7312,2.1293,-1.1193,3.0721,-1.0814,1.888,-1.1099,4.002,-1.865,-0.0402,-1.5893,1.5955,-1.592
1.201,-1.2907,3.8458,-1.7312,2.1293,-1.1193,3.0721,-1.0814,1.888,-1.1099,4.002,-1.865,-0.0402,-1.5893,1.5955,-1.592
1.201,-1.2907,3.8458,-1.7312,2.1293,-1.1193,3.0721,-1.0814,1.888,-1.1099,4.002,-1.865,-0.0402,-1.5893,1.5955,-1.592
0.972,-1.3139,3.9517,-1.7686,2.0777,-1.1477,3.1016,-1.0639,1.9009,-1.0809,4.0974,-1.8645,-0.0109,-1.5764,1.6411,-1.5807
0.972,-1.3139,3.9517,-1.7686,2.0777,-1.1477,3.1016,-1.0639,1.9009,-1.0809,4.0974,-1.8645,-0.0109,-1.5764,1.6411,-1.5807
0.972,-1.3139,3.9517,-1.7686,2.0777,-1.1477,3.1016,-1.0639,1.9009,-1.0809,4.0974,-1.8645,-0.0109,-1.5764,1.6411,-1.5807
0.8746,-1.3485,4.0617,-1.7921,2.0777,-1.1477,3.1275,-1.053,1.986,-1.0606,4.1814,-1.8669,0.0099,-1.5511,1.6768,-1.5743
0.8746,-1.3485,4.0617,-1.7921,2.0777,-1.1477,3.1275,-1.053,1.986,-1.0606,4.1814,-1.8669,0.0099,-1.5511,1.6768,-1.5743
0.9864,-1.4223,4.1258,-1.8071,2.1091,-1.1588,3.146,-1.0555,2.0585,-1.0693,4.2481,-1.8836,0.0054,-1.5309,1.6986,-1.5735
1.0845,-1.3882,4.1084,-1.7626,2.14,-1.1348,3.1571,-1.0595,2.1912,-1.1162,4.2544,-1.8927,-0.0032,-1.5185,1.7145,-1.577
1.1833,-1.354,4.0623,-1.7156,2.1817,-1.1261,3.1644,-1.0701,2.2355,-1.1319,4.2544,-1.8927,-0.037,-1.5112,1.7283,-1.584
1.1833,-1.354,4.0623,-1.7156,2.1817,-1.1261,3.1644,-1.0701,2.2355,-1.1319,4.2544,-1.8927,-0.037,-1.5112,1.7283,-1.584
1.1833,-1.354,4.0623,-1.7156,2.1817,-1.1261,3.1644,-1.0701,2.2355,-1.1319,4.2544,-1.8927,-0.037,-1.5112,1.7283,-1.584
1.2508,-1.2733,4.0232,-1.6787,2.2761,-1.1244,3.1681,-1.0754,2.2178,-1.058,4.2424,-1.8953,-0.0538,-1.5146,1.7381,-1.5917
1.2508,-1.2733,4.0232,-1.6787,2.2761,-1.1244,3.1681,-1.0754,2.2178,-1.058,4.2424,-1.8953,-0.0538,-1.5146,1.7381,-1.5917
1.2508,-1.2733,4.0232,-1.6787,2.2761,-1.1244,3.1681,-1.0754,2.2178,-1.058,4.2424,-1.8953,-0.0538,-1.5146,1.7381,-1.5917
1.3832,-1.2851,3.9877,-1.6661,2.4247,-1.1652,3.1755,-1.086,2.1134,-1.0041,4.1883,-1.8967,-0.0577,-1.5366,1.7202,-1.5917
1.3832,-1.2851,3.9877,-1.6661,2.4247,-1.1652,3.1755,-1.086,2.1134,-1.0041,4.1883,-1.8967,-0.0577,-1.5366,1.7202,-1.5917
1.3509,-1.2386,3.9592,-1.6638,2.51,-1.1836,3.1717,-1.0927,1.955,-1.0159,4.165,-1.9226,-0.0741,-1.568,1.6885,-1.5848
1.3509,-1.2386,3.9592,-1.6638,2.51,-1.1836,3.1717,-1.0927,1.955,-1.0159,4.165,-1.9226,-0.0741,-1.568,1.6885,-1.5848
1.3832,-1.2851,3.9308,-1.6614,2.4884,-1.1525,3.1643,-1.094,1.8263,-1.021,4.19,-1.9586,-0.0949,-1.5793,1.6688,-1.582
1.3832,-1.2851,3.9025,-1.6591,2.4239,-1.0944,3.1532,-1.0901,1.7701,-1.0347,4.1963,-1.9676,-0.0906,-1.5854,1.653,-1.5785
1.7995,-1.4322,3.8954,-1.6489,2.3805,-1.0318,3.1496,-1.0848,1.7575,-1.0638,4.1656,-1.9432,-0.0906,-1.5854,1.651,-1.5757
1.7995,-1.4322,3.8954,-1.6489,2.3805,-1.0318,3.1496,-1.0848,1.7575,-1.0638,4.1656,-1.9432,-0.0906,-1.5854,1.651,-1.5757
1.7995,-1.4322,3.8954,-1.6489,2.3805,-1.0318,3.1496,-1.0848,1.7575,-1.0638,4.1656,-1.9432,-0.0906,-1.5854,1.651,-1.5757
2.0001,-1.5381,3.8954,-1.6489,2.3485,-1.0205,3.1606,-1.0887,1.7855,-1.0569,4.1588,-1.9135,-0.0739,-1.582,1.647,-1.5764
2.0001,-1.5381,3.8954,-1.6489,2.3485,-1.0205,3.1606,-1.0887,1.7855,-1.0569,4.1588,-1.9135,-0.0739,-1.582,1.647,-1.5764
2.0001,-1.5381,3.8671,-1.6466,2.3063,-1.0292,3.1827,-1.1085,1.8444,-1.0945,4.1218,-1.88,-0.0655,-1.5803,1.6509,-1.582
2.0001,-1.5381,3.8671,-1.6466,2.3063,-1.0292,3.1827,-1.1085,1.8444,-1.0945,4.1218,-1.88,-0.0655,-1.5803,1.6509,-1.582
1.8513,-1.4154,3.8636,-1.6608,2.3279,-1.0605,3.1753,-1.1099,1.8598,-1.1166,4.0799,-1.8789,-0.0486,-1.591,1.6469,-1.5891
1.8513,-1.4154,3.8636,-1.6608,2.3279,-1.0605,3.1753,-1.1099,1.8598,-1.1166,4.0799,-1.8789,-0.0486,-1.591,1.6469,-1.5891
1.5998,-1.3265,3.86,-1.6749,2.2966,-1.0847,3.131,-1.1062,1.8444,-1.0945,4.0381,-1.8777,-0.0191,-1.606,1.6428,-1.5961
1.5998,-1.3265,3.86,-1.6749,2.2966,-1.0847,3.131,-1.1062,1.8444,-1.0945,4.0381,-1.8777,-0.0191,-1.606,1.6428,-1.5961
1.3149,-1.3657,3.867,-1.7234,2.2019,-1.0865,3.0793,-1.1039,1.7728,-1.0859,3.9972,-1.8973,-0.0444,-1.5971,1.6171,-1.5976
1.3149,-1.3657,3.867,-1.7234,2.2019,-1.0865,3.0793,-1.1039,1.7728,-1.0859,3.9972,-1.8973,-0.0444,-1.5971,1.6171,-1.5976
0.972,-1.3139,3.8669,-1.7615,2.0971,-1.0729,3.0132,-1.1045,1.7728,-1.0859,3.9681,-1.9142,-0.0739,-1.582,1.5993,-1.6039
0.972,-1.3139,3.8669,-1.7615,2.0971,-1.0729,3.0132,-1.1045,1.7728,-1.0859,3.9681,-1.9142,-0.0739,-1.582,1.5993,-1.6039
0.9549,-1.3768,3.8633,-1.7755,2.0763,-1.0772,2.9693,-1.1128,1.8316,-1.1234,3.9212,-1.9247,-0.1412,-1.5536,1.5717,-1.6089
0.9549,-1.3768,3.8633,-1.7755,2.0763,-1.0772,2.9693,-1.1128,1.8316,-1.1234,3.9212,-1.9247,-0.1412,-1.5536,1.5717,-1.6089
0.9549,-1.3768,3.8282,-1.7631,2.1078,-1.0884,2.9364,-1.1249,2.0214,-1.2071,3.8984,-1.9504,-0.1747,-1.5464,1.55,-1.6159
0.9549,-1.3768,3.8282,-1.7631,2.1078,-1.0884,2.9364,-1.1249,2.0214,-1.2071,3.8984,-1.9504,-0.1747,-1.5464,1.55,-1.6159
1.1161,-1.4338,3.7685,-1.7344,2.1186,-1.1038,2.9036,-1.1371,2.1684,-1.2757,3.8455,-1.952,-0.1997,-1.5515,1.5341,-1.6251
1.1161,-1.4338,3.7685,-1.7344,2.1186,-1.1038,2.9036,-1.1371,2.1684,-1.2757,3.8455,-1.952,-0.1997,-1.5515,1.5341,-1.6251
1.1972,-1.4625,3.709,-1.7058,2.0871,-1.0927,2.8818,-1.1531,2.0958,-1.2667,3.799,-1.9625,-0.2368,-1.5662,1.5183,-1.6342
1.1972,-1.4625,3.709,-1.7058,2.0871,-1.0927,2.8818,-1.1531,2.0958,-1.2667,3.799,-1.9625,-0.2368,-1.5662,1.5183,-1.6342
1.1656,-1.4168,3.6392,-1.6811,2.1293,-1.1193,2.86,-1.1691,1.9777,-1.1917,3.7349,-1.9667,-0.2782,-1.5747,1.5005,-1.6467
1.1656,-1.4168,3.6392,-1.6811,2.1293,-1.1193,2.86,-1.1691,1.9777,-1.1917,3.7349,-1.9667,-0.2782,-1.5747,1.5005,-1.6467
1.2649,-1.3828,3.6113,-1.6789,2.2133,-1.1373,2.831,-1.1746,1.7882,-1.1081,3.671,-1.9709,-0.3069,-1.5876,1.4712,-1.6489
1.2649,-1.3828,3.6113,-1.6789,2.2133,-1.1373,2.831,-1.1746,1.7882,-1.1081,3.671,-1.9709,-0.3069,-1.5876,1.4712,-1.6489
1.2649,-1.3828,3.6113,-1.6789,2.2133,-1.1373,2.831,-1.1746,1.7882,-1.1081,3.671,-1.9709,-0.3069,-1.5876,1.4712,-1.6489
1.1514,-1.308,3.5871,-1.7008,2.224,-1.1528,2.7732,-1.1738,1.5903,-1.1047,3.6434,-2.0079,-0.3518,-1.6178,1.4146,-1.6499
1.1514,-1.308,3.5871,-1.7008,2.224,-1.1528,2.7732,-1.1738,1.5903,-1.1047,3.6434,-2.0079,-0.3518,-1.6178,1.4146,-1.6499
1.1514,-1.308,3.5871,-1.7008,2.224,-1.1528,2.7732,-1.1738,1.5903,-1.1047,3.6434,-2.0079,-0.3518,-1.6178,1.4146,-1.6499
1.3468,-1.4117,3.5562,-1.7506,2.1286,-1.084,2.669,-1.1762,1.4526,-1.1388,3.593,-2.05,-0.4049,-1.6357,1.3253,-1.6537
1.3468,-1.4117,3.5562,-1.7506,2.1286,-1.084,2.669,-1.1762,1.4526,-1.1388,3.593,-2.05,-0.4049,-1.6357,1.3253,-1.6537
1.6258,-1.5449,3.5078,-1.7562,2.0763,-1.0772,2.6404,-1.1935,1.4828,-1.1824,3.5229,-2.0252,-0.4294,-1.6408,1.2904,-1.6602
1.6258,-1.5449,3.5078,-1.7562,2.0763,-1.0772,2.6404,-1.1935,1.4828,-1.1824,3.5229,-2.0252,-0.4294,-1.6408,1.2904,-1.6602
1.6258,-1.5449,3.5078,-1.7562,2.0763,-1.0772,2.6404,-1.1935,1.4828,-1.1824,3.5229,-2.0252,-0.4294,-1.6408,1.2904,-1.6602
1.594,-1.4991,3.47,-1.7579,2.0242,-1.0705,2.6226,-1.2145,1.3979,-1.1524,3.4644,-1.9979,-0.4457,-1.6441,1.2614,-1.6686
1.594,-1.4991,3.47,-1.7579,2.0242,-1.0705,2.6226,-1.2145,1.3979,-1.1524,3.4644,-1.9979,-0.4457,-1.6441,1.2614,-1.6686
1.4474,-1.3777,3.415,-1.7536,1.9829,-1.0793,2.5977,-1.2252,1.3555,-1.1374,3.3895,-1.9847,-0.4415,-1.6502,1.2421,-1.6784
1.4474,-1.3777,3.415,-1.7536,1.9829,-1.0793,2.5977,-1.2252,1.3555,-1.1374,3.3895,-1.9847,-0.4415,-1.6502,1.2421,-1.6784
1.1833,-1.354,3.3843,-1.7653,1.9319,-1.1078,2.5621,-1.2204,1.2709,-1.1076,3.3731,-1.9988,-0.4126,-1.665,1.2325,-1.6833
1.1833,-1.354,3.3843,-1.7653,1.9319,-1.1078,2.5621,-1.2204,1.2709,-1.1076,3.3731,-1.9988,-0.4126,-1.665,1.2325,-1.6833
1.1833,-1.354,3.3843,-1.7653,1.9319,-1.1078,2.5621,-1.2204,1.2709,-1.1076,3.3731,-1.9988,-0.4126,-1.665,1.2325,-1.6833
0.8262,-1.3657,3.4565,-1.8134,1.8811,-1.1362,2.5762,-1.1942,1.3979,-1.1524,3.4592,-2.0094,-0.364,-1.6272,1.2711,-1.6699
0.8262,-1.3657,3.4565,-1.8134,1.8811,-1.1362,2.5762,-1.1942,1.3979,-1.1524,3.4592,-2.0094,-0.364,-1.6272,1.2711,-1.6699
0.8262,-1.3657,3.4565,-1.8134,1.8811,-1.1362,2.5762,-1.1942,1.3979,-1.1524,3.4592,-2.0094,-0.364,-1.6272,1.2711,-1.6699
0.8262,-1.3657,3.5114,-1.7801,1.9532,-1.1385,2.6475,-1.1686,1.6234,-1.1992,3.5502,-1.9883,-0.3191,-1.5971,1.3369,-1.6578
1.0669,-1.4508,3.5977,-1.7349,2.015,-1.1255,2.7479,-1.1373,1.7932,-1.2096,3.6879,-1.9568,-0.2574,-1.5774,1.4302,-1.647
1.2469,-1.4456,3.702,-1.6956,2.1293,-1.1193,2.9036,-1.1252,1.9187,-1.1542,3.8332,-1.9341,-0.1617,-1.5788,1.5261,-1.639
1.2469,-1.4456,3.702,-1.6956,2.1293,-1.1193,2.9036,-1.1252,1.9187,-1.1542,3.8332,-1.9341,-0.1617,-1.5788,1.5261,-1.639
1.3285,-1.4744,3.765,-1.672,2.2659,-1.1442,3.0022,-1.1125,1.9576,-1.0674,3.9619,-1.9052,-0.0782,-1.5759,1.601,-1.6256
1.3285,-1.4744,3.765,-1.672,2.2659,-1.1442,3.0022,-1.1125,1.9576,-1.0674,3.9619,-1.9052,-0.0782,-1.5759,1.601,-1.6256
1.3285,-1.4744,3.765,-1.672,2.2659,-1.1442,3.0022,-1.1125,1.9576,-1.0674,3.9619,-1.9052,-0.0782,-1.5759,1.601,-1.6256
1.2967,-1.4287,3.8424,-1.6687,2.3823,-1.1737,3.0867,-1.1025,1.9266,-1.0227,4.0687,-1.9022,-0.0361,-1.5814,1.6328,-1.6073
1.2967,-1.4287,3.8424,-1.6687,2.3823,-1.1737,3.0867,-1.1025,1.9266,-1.0227,4.0687,-1.9022,-0.0361,-1.5814,1.6328,-1.6073
1.2967,-1.4287,3.8424,-1.6687,2.3823,-1.1737,3.0867,-1.1025,1.9266,-1.0227,4.0687,-1.9022,-0.0361,-1.5814,1.6328,-1.6073
1.2649,-1.3828,3.8812,-1.667,2.3927,-1.1539,3.131,-1.0943,1.839,-0.9918,4.1588,-1.9135,-0.032,-1.5736,1.6586,-1.5996
1.5113,-1.4698,3.9166,-1.6795,2.3604,-1.1073,3.1496,-1.0848,1.8545,-1.0141,4.2008,-1.9148,-0.0279,-1.5657,1.6666,-1.5918
1.5113,-1.4698,3.9166,-1.6795,2.3604,-1.1073,3.1496,-1.0848,1.8545,-1.0141,4.2008,-1.9148,-0.0279,-1.5657,1.6666,-1.5918
1.5113,-1.4698,3.9166,-1.6795,2.3604,-1.1073,3.1496,-1.0848,1.8545,-1.0141,4.2008,-1.9148,-0.0279,-1.5657,1.6666,-1.5918
1.9276,-1.6169,3.9343,-1.6858,2.3388,-1.0761,3.157,-1.0834,1.9421,-1.0451,4.2184,-1.9005,-0.0322,-1.5596,1.6805,-1.5925
1.9276,-1.6169,3.9343,-1.6858,2.3388,-1.0761,3.157,-1.0834,1.9421,-1.0451,4.2184,-1.9005,-0.0322,-1.5596,1.6805,-1.5925
1.9276,-1.6169,3.9343,-1.6858,2.3388,-1.0761,3.157,-1.0834,1.9421,-1.0451,4.2184,-1.9005,-0.0322,-1.5596,1.6805,-1.5925
1.9276,-1.6169,3.9237,-1.6897,2.2966,-1.0847,3.1716,-1.1046,2.0038,-1.1341,4.1449,-1.854,-0.0616,-1.5585,1.6843,-1.6044
1.9276,-1.6169,3.9237,-1.6897,2.2966,-1.0847,3.1716,-1.1046,2.0038,-1.1341,4.1449,-1.854,-0.0616,-1.5585,1.6843,-1.6044
1.7283,-1.5118,3.913,-1.6936,2.2438,-1.0778,3.1937,-1.1244,1.9907,-1.1629,4.0785,-1.8374,-0.0741,-1.568,1.6762,-1.6121
1.7283,-1.5118,3.913,-1.6936,2.2438,-1.0778,3.1937,-1.1244,1.9907,-1.1629,4.0785,-1.8374,-0.0741,-1.568,1.6762,-1.6121
1.5998,-1.3265,3.8953,-1.6874,2.2438,-1.0778,3.2011,-1.135,1.9754,-1.1408,4.0548,-1.8427,-0.0655,-1.5803,1.6624,-1.6114
1.5998,-1.3265,3.8953,-1.6874,2.2438,-1.0778,3.2011,-1.135,1.9754,-1.1408,4.0548,-1.8427,-0.0655,-1.5803,1.6624,-1.6114
1.5998,-1.3265,3.8953,-1.6874,2.2438,-1.0778,3.2011,-1.135,1.9754,-1.1408,4.0548,-1.8427,-0.0655,-1.5803,1.6624,-1.6114
1.4013,-1.2211,3.8847,-1.6913,2.2546,-1.0934,3.1678,-1.1232,1.96,-1.1186,4.0374,-1.857,-0.036,-1.5954,1.6487,-1.6045
1.4013,-1.2211,3.8847,-1.6913,2.2546,-1.0934,3.1678,-1.1232,1.96,-1.1186,4.0374,-1.857,-0.036,-1.5954,1.6487,-1.6045
1.4013,-1.2211,3.8847,-1.6913,2.2546,-1.0934,3.1678,-1.1232,1.96,-1.1186,4.0374,-1.857,-0.036,-1.5954,1.6487,-1.6045
1.169,-1.2444,3.9023,-1.7358,2.2133,-1.1373,3.0757,-1.0987,1.8598,-1.1166,4.0513,-1.9164,-0.0444,-1.5971,1.6289,-1.6017
1.169,-1.2444,3.9023,-1.7358,2.2133,-1.1373,3.0757,-1.0987,1.8598,-1.1166,4.0513,-1.9164,-0.0444,-1.5971,1.6289,-1.6017
1.233,-1.3368,3.927,-1.7522,2.2133,-1.1373,3.0573,-1.0961,1.8751,-1.1388,4.052,-1.937,-0.0613,-1.5865,1.621,-1.6031
1.233,-1.3368,3.927,-1.7522,2.2133,-1.1373,3.0573,-1.0961,1.8751,-1.1388,4.052,-1.937,-0.0613,-1.5865,1.621,-1.6031
1.4794,-1.4238,3.9446,-1.7585,2.2551,-1.1287,3.0426,-1.0989,1.9777,-1.1917,4.0526,-1.9576,-0.0782,-1.5759,1.6091,-1.6053
1.4794,-1.4238,3.9446,-1.7585,2.2551,-1.1287,3.0426,-1.0989,1.9777,-1.1917,4.0526,-1.9576,-0.0782,-1.5759,1.6091,-1.6053
1.4794,-1.4238,3.9446,-1.7585,2.2551,-1.1287,3.0426,-1.0989,1.9777,-1.1917,4.0526,-1.9576,-0.0782,-1.5759,1.6091,-1.6053
1.6451,-1.4824,3.9199,-1.7421,2.2336,-1.0977,3.0316,-1.107,2.1091,-1.2381,4.029,-1.9628,-0.1034,-1.567,1.5992,-1.6102
1.6451,-1.4824,3.9199,-1.7421,2.2336,-1.0977,3.0316,-1.107,2.1091,-1.2381,4.029,-1.9628,-0.1034,-1.567,1.5992,-1.6102
1.6451,-1.4824,3.9199,-1.7421,2.2336,-1.0977,3.0316,-1.107,2.1091,-1.2381,4.029,-1.9628,-0.1034,-1.567,1.5992,-1.6102
1.6321,-1.373,3.8318,-1.6726,2.3074,-1.1003,2.9912,-1.1205,2.0477,-1.1496,3.9515,-1.9489,-0.1577,-1.571,1.5911,-1.6305
1.6321,-1.373,3.8318,-1.6726,2.3074,-1.1003,2.9912,-1.1205,2.0477,-1.1496,3.9515,-1.9489,-0.1577,-1.571,1.5911,-1.6305
1.6321,-1.373,3.8318,-1.6726,2.3074,-1.1003,2.9912,-1.1205,2.0477,-1.1496,3.9515,-1.9489,-0.1577,-1.571,1.5911,-1.6305
1.5998,-1.3265,3.8107,-1.6805,2.3923,-1.1186,2.9619,-1.126,1.9292,-1.0741,3.8984,-1.9504,-0.1616,-1.5928,1.5674,-1.6347
1.5675,-1.2799,3.7896,-1.6884,2.4992,-1.1681,2.9473,-1.1407,1.7575,-1.0638,3.8346,-1.975,-0.1946,-1.6134,1.5223,-1.6335
1.3509,-1.2386,3.7826,-1.7165,2.4887,-1.1878,2.8927,-1.1451,1.5751,-1.0827,3.7888,-2.0058,-0.2316,-1.6418,1.4694,-1.6337
1.3509,-1.2386,3.7826,-1.7165,2.4887,-1.1878,2.8927,-1.1451,1.5751,-1.0827,3.7888,-2.0058,-0.2316,-1.6418,1.4694,-1.6337
1.3509,-1.2386,3.7826,-1.7165,2.4887,-1.1878,2.8927,-1.1451,1.5751,-1.0827,3.7888,-2.0058,-0.2316,-1.6418,1.4694,-1.6337
1.2508,-1.2733,3.758,-1.7383,2.4354,-1.1807,2.8527,-1.1586,1.3949,-1.1019,3.7847,-2.0579,-0.2727,-1.6641,1.4187,-1.6366
1.2508,-1.2733,3.758,-1.7383,2.4354,-1.1807,2.8527,-1.1586,1.3949,-1.1019,3.7847,-2.0579,-0.2727,-1.6641,1.4187,-1.6366
1.2508,-1.2733,3.758,-1.7383,2.4354,-1.1807,2.8527,-1.1586,1.3949,-1.1019,3.7847,-2.0579,-0.2727,-1.6641,1.4187,-1.6366
1.201,-1.2907,3.744,-1.7562,2.3393,-1.1116,2.8057,-1.1617,1.286,-1.1293,3.7684,-2.092,-0.3263,-1.668,1.3739,-1.6417
1.201,-1.2907,3.744,-1.7562,2.3393,-1.1116,2.8057,-1.1617,1.286,-1.1293,3.7684,-2.092,-0.3263,-1.668,1.3739,-1.6417
1.2829,-1.3196,3.6811,-1.7416,2.2432,-1.0423,2.7516,-1.1662,1.274,-1.1579,3.7276,-2.0909,-0.3551,-1.667,1.3389,-1.6481
1.4474,-1.3777,3.6359,-1.7332,2.158,-0.9887,2.7264,-1.1769,1.3162,-1.1728,3.651,-2.0572,-0.3757,-1.6643,1.3175,-1.6614
1.4154,-1.3315,3.5803,-1.7288,2.148,-1.0087,2.7049,-1.1928,1.3857,-1.181,3.5747,-2.0236,-0.3715,-1.6704,1.3039,-1.6732
1.4154,-1.3315,3.5803,-1.7288,2.148,-1.0087,2.7049,-1.1928,1.3857,-1.181,3.5747,-2.0236,-0.3715,-1.6704,1.3039,-1.6732
1.3832,-1.2851,3.5249,-1.7244,2.1487,-1.0442,2.669,-1.1997,1.3162,-1.1728,3.4766,-2.0155,-0.3671,-1.6902,1.2806,-1.6899
1.3832,-1.2851,3.5249,-1.7244,2.1487,-1.0442,2.669,-1.1997,1.3162,-1.1728,3.4766,-2.0155,-0.3671,-1.6902,1.2806,-1.6899
1.3832,-1.2851,3.5249,-1.7244,2.1487,-1.0442,2.669,-1.1997,1.3162,-1.1728,3.4766,-2.0155,-0.3671,-1.6902,1.2806,-1.6899
1.1514,-1.308,3.4803,-1.754,2.0656,-1.0618,2.6012,-1.207,1.247,-1.1647,3.4026,-2.0225,-0.3835,-1.6935,1.2439,-1.6997
1.1514,-1.308,3.4803,-1.754,2.0656,-1.0618,2.6012,-1.207,1.247,-1.1647,3.4026,-2.0225,-0.3835,-1.6935,1.2439,-1.6997
0.9232,-1.3312,3.4702,-1.7957,1.9722,-1.0638,2.523,-1.2105,1.262,-1.1864,3.3462,-2.0356,-0.4329,-1.6761,1.2092,-1.7061
0.9232,-1.3312,3.4702,-1.7957,1.9722,-1.0638,2.523,-1.2105,1.262,-1.1864,3.3462,-2.0356,-0.4329,-1.6761,1.2092,-1.7061
0.8746,-1.3485,3.4324,-1.7974,1.9623,-1.0836,2.4699,-1.215,1.4035,-1.2527,3.3185,-2.0522,-0.4741,-1.657,1.1728,-1.7098
0.9864,-1.4223,3.3879,-1.7891,1.9213,-1.0924,2.4099,-1.221,1.5881,-1.3342,3.2737,-2.0626,-0.5027,-1.656,1.1421,-1.7154
0.9864,-1.4223,3.3879,-1.7891,1.9213,-1.0924,2.4099,-1.221,1.5881,-1.3342,3.2737,-2.0626,-0.5027,-1.656,1.1421,-1.7154
1.0179,-1.4677,3.3296,-1.761,1.9319,-1.1078,2.396,-1.2354,1.618,-1.3774,3.2058,-2.0584,-0.5516,-1.6524,1.1249,-1.7279
1.0179,-1.4677,3.3296,-1.761,1.9319,-1.1078,2.396,-1.2354,1.618,-1.3774,3.2058,-2.0584,-0.5516,-1.6524,1.1249,-1.7279
1.0179,-1.4677,3.3296,-1.761,1.9319,-1.1078,2.396,-1.2354,1.618,-1.3774,3.2058,-2.0584,-0.5516,-1.6524,1.1249,-1.7279
1.0179,-1.4677,3.3296,-1.761,1.9319,-1.1078,2.396,-1.2354,1.618,-1.3774,3.2058,-2.0584,-0.5516,-1.6524,1.1249,-1.7279
1.1298,-1.5414,3.2816,-1.7291,1.9319,-1.1078,2.3925,-1.2419,1.5755,-1.3623,3.1775,-2.0549,-0.5677,-1.6558,1.1324,-1.7388
1.1298,-1.5414,3.2816,-1.7291,1.9319,-1.1078,2.3925,-1.2419,1.5755,-1.3623,3.1775,-2.0549,-0.5677,-1.6558,1.1324,-1.7388
1.0805,-1.5581,3.2646,-1.723,1.9426,-1.1232,2.4171,-1.2429,1.4458,-1.2676,3.1715,-2.0462,-0.5677,-1.6558,1.1515,-1.7414
1.0492,-1.5129,3.3122,-1.7172,2.0357,-1.1212,2.4841,-1.2239,1.3979,-1.1524,3.2444,-2.0391,-0.5108,-1.6577,1.1994,-1.7357
1.0492,-1.5129,3.3122,-1.7172,2.0357,-1.1212,2.4841,-1.2239,1.3979,-1.1524,3.2444,-2.0391,-0.5108,-1.6577,1.1994,-1.7357
1.0354,-1.4053,3.3873,-1.7136,2.1715,-1.1459,2.5762,-1.2059,1.3797,-1.08,3.3627,-2.0216,-0.4415,-1.6502,1.2553,-1.71
1.0354,-1.4053,3.3873,-1.7136,2.1715,-1.1459,2.5762,-1.2059,1.3797,-1.08,3.3627,-2.0216,-0.4415,-1.6502,1.2553,-1.71
1.0845,-1.3882,3.48,-1.7161,2.2449,-1.1485,2.6761,-1.1748,1.3918,-1.0512,3.5343,-2.0226,-0.3677,-1.6488,1.3057,-1.6822
1.0845,-1.3882,3.48,-1.7161,2.2449,-1.1485,2.6761,-1.1748,1.3918,-1.0512,3.5343,-2.0226,-0.3677,-1.6488,1.3057,-1.6822
1.1656,-1.4168,3.5837,-1.7148,2.2761,-1.1244,2.7804,-1.1488,1.4344,-1.0663,3.7432,-2.0365,-0.3143,-1.6448,1.3562,-1.6605
1.1656,-1.4168,3.5837,-1.7148,2.2761,-1.1244,2.7804,-1.1488,1.4344,-1.0663,3.7432,-2.0365,-0.3143,-1.6448,1.3562,-1.6605
1.2152,-1.3998,3.7125,-1.7299,2.2756,-1.0891,2.8745,-1.1308,1.5474,-1.0896,3.919,-2.0384,-0.2773,-1.6303,1.4068,-1.6513
1.2152,-1.3998,3.7125,-1.7299,2.2756,-1.0891,2.8745,-1.1308,1.5474,-1.0896,3.919,-2.0384,-0.2773,-1.6303,1.4068,-1.6513
1.4925,-1.5323,3.7861,-1.7406,2.2432,-1.0423,2.9255,-1.1092,1.7042,-1.1284,4.037,-2.0331,-0.236,-1.6219,1.4361,-1.6428
1.4925,-1.5323,3.7861,-1.7406,2.2432,-1.0423,2.9255,-1.1092,1.7042,-1.1284,4.037,-2.0331,-0.236,-1.6219,1.4361,-1.6428
1.8238,-1.6494,3.8247,-1.739,2.1897,-0.9999,2.9729,-1.1061,1.8035,-1.1301,4.0775,-1.9934,-0.2071,-1.609,1.4634,-1.6441
2.0961,-1.6764,3.8564,-1.7273,2.1897,-0.9999,3.0169,-1.1097,1.8751,-1.1388,4.0763,-1.9524,-0.1865,-1.5978,1.4752,-1.642
2.0961,-1.6764,3.8564,-1.7273,2.1897,-0.9999,3.0169,-1.1097,1.8751,-1.1388,4.0763,-1.9524,-0.1865,-1.5978,1.4752,-1.642
2.0961,-1.6764,3.8564,-1.7273,2.1897,-0.9999,3.0169,-1.1097,1.8751,-1.1388,4.0763,-1.9524,-0.1865,-1.5978,1.4752,-1.642
1.9478,-1.5545,3.8564,-1.7273,2.1688,-1.0043,3.0279,-1.1136,1.888,-1.1099,4.0395,-1.919,-0.1656,-1.6006,1.4791,-1.6413
1.9478,-1.5545,3.8564,-1.7273,2.1688,-1.0043,3.0279,-1.1136,1.888,-1.1099,4.0395,-1.919,-0.1656,-1.6006,1.4791,-1.6413
1.7348,-1.339,3.8212,-1.7148,2.148,-1.0087,3.0278,-1.1255,1.9009,-1.0809,4.0152,-1.9037,-0.1196,-1.6122,1.4869,-1.6461
1.7348,-1.339,3.8212,-1.7148,2.148,-1.0087,3.0278,-1.1255,1.9009,-1.0809,4.0152,-1.9037,-0.1196,-1.6122,1.4869,-1.6461
1.5675,-1.2799,3.7896,-1.7266,2.1595,-1.0598,2.9948,-1.1258,1.9009,-1.0809,3.9916,-1.9089,-0.0733,-1.6378,1.481,-1.6503
1.2508,-1.2733,3.7895,-1.7647,2.1186,-1.1038,2.9328,-1.1197,1.8726,-1.0877,3.9626,-1.9258,-0.0732,-1.6517,1.4711,-1.6552
1.2508,-1.2733,3.7895,-1.7647,2.1186,-1.1038,2.9328,-1.1197,1.8726,-1.0877,3.9626,-1.9258,-0.0732,-1.6517,1.4711,-1.6552
0.972,-1.3139,3.7894,-1.8027,2.0463,-1.1366,2.8745,-1.1189,1.8444,-1.0945,3.9336,-1.9426,-0.1026,-1.6367,1.4652,-1.6594
0.972,-1.3139,3.7894,-1.8027,2.0463,-1.1366,2.8745,-1.1189,1.8444,-1.0945,3.9336,-1.9426,-0.1026,-1.6367,1.4652,-1.6594
0.843,-1.3029,3.7894,-1.8027,2.057,-1.152,2.8418,-1.1192,1.9033,-1.132,3.9219,-1.9452,-0.1362,-1.6156,1.4594,-1.6573
0.843,-1.3029,3.7894,-1.8027,2.057,-1.152,2.8418,-1.1192,1.9033,-1.132,3.9219,-1.9452,-0.1362,-1.6156,1.4594,-1.6573
0.843,-1.3029,3.7894,-1.8027,2.057,-1.152,2.8418,-1.1192,1.9033,-1.132,3.9219,-1.9452,-0.1362,-1.6156,1.4594,-1.6573
0.843,-1.3029,3.7615,-1.7624,2.0777,-1.1477,2.8346,-1.1206,1.934,-1.1763,3.8805,-1.9441,-0.1655,-1.6145,1.4613,-1.6601
0.843,-1.3029,3.7615,-1.7624,2.0777,-1.1477,2.8346,-1.1206,1.934,-1.1763,3.8805,-1.9441,-0.1655,-1.6145,1.4613,-1.6601
0.843,-1.3029,3.7615,-1.7624,2.0777,-1.1477,2.8346,-1.1206,1.934,-1.1763,3.8805,-1.9441,-0.1655,-1.6145,1.4613,-1.6601
0.9549,-1.3768,3.7335,-1.722,2.067,-1.1323,2.8274,-1.122,1.934,-1.1763,3.8627,-1.9378,-0.1738,-1.6162,1.4886,-1.6676
0.9549,-1.3768,3.7335,-1.722,2.067,-1.1323,2.8274,-1.122,1.934,-1.1763,3.8627,-1.9378,-0.1738,-1.6162,1.4886,-1.6676
0.9549,-1.3768,3.7335,-1.722,2.067,-1.1323,2.8274,-1.122,1.934,-1.1763,3.8627,-1.9378,-0.1738,-1.6162,1.4886,-1.6676
1.1656,-1.4168,3.702,-1.6956,2.2347,-1.1682,2.8419,-1.1429,1.7855,-1.0569,3.8455,-1.952,-0.1778,-1.624,1.51,-1.6731
1.1656,-1.4168,3.702,-1.6956,2.2347,-1.1682,2.8419,-1.1429,1.7855,-1.0569,3.8455,-1.952,-0.1778,-1.624,1.51,-1.6731
1.1477,-1.4793,3.6636,-1.6973,2.2981,-1.1906,2.8238,-1.1523,1.6862,-1.0553,3.8168,-1.9688,-0.1985,-1.6351,1.4808,-1.6628
1.1477,-1.4793,3.6636,-1.6973,2.2981,-1.1906,2.8238,-1.1523,1.6862,-1.0553,3.8168,-1.9688,-0.1985,-1.6351,1.4808,-1.6628
1.1477,-1.4793,3.6427,-1.7052,2.3616,-1.213,2.7984,-1.1513,1.5322,-1.0676,3.7765,-1.9881,-0.2399,-1.6435,1.4399,-1.6546
1.1477,-1.4793,3.6427,-1.7052,2.3616,-1.213,2.7984,-1.1513,1.5322,-1.0676,3.7765,-1.9881,-0.2399,-1.6435,1.4399,-1.6546
1.0669,-1.4508,3.6185,-1.7271,2.3191,-1.1864,2.766,-1.1516,1.3676,-1.1088,3.7248,-2.01,-0.3018,-1.6492,1.3932,-1.6506
1.0669,-1.4508,3.6185,-1.7271,2.3191,-1.1864,2.766,-1.1516,1.3676,-1.1088,3.7248,-2.01,-0.3018,-1.6492,1.3932,-1.6506
1.1972,-1.4625,3.615,-1.7411,2.2444,-1.1132,2.7443,-1.1557,1.2439,-1.1144,3.7024,-2.0355,-0.3513,-1.6455,1.3641,-1.6529
1.442,-1.5489,3.5838,-1.7528,2.1595,-1.0598,2.7156,-1.1613,1.259,-1.1362,3.6503,-2.037,-0.3677,-1.6488,1.3466,-1.6592
1.442,-1.5489,3.5838,-1.7528,2.1595,-1.0598,2.7156,-1.1613,1.259,-1.1362,3.6503,-2.037,-0.3677,-1.6488,1.3466,-1.6592
1.442,-1.5489,3.5838,-1.7528,2.1595,-1.0598,2.7156,-1.1613,1.259,-1.1362,3.6503,-2.037,-0.3677,-1.6488,1.3466,-1.6592
1.5749,-1.5615,3.5804,-1.7667,2.1171,-1.0331,2.6976,-1.1707,1.3312,-1.1945,3.5922,-2.0298,-0.4047,-1.6495,1.331,-1.6683
1.5749,-1.5615,3.5804,-1.7667,2.1171,-1.0331,2.6976,-1.1707,1.3312,-1.1945,3.5922,-2.0298,-0.4047,-1.6495,1.331,-1.6683
1.677,-1.5284,3.5528,-1.7645,2.054,-1.0108,2.712,-1.1914,1.4308,-1.246,3.5107,-2.0076,-0.4168,-1.6589,1.3115,-1.678
1.677,-1.5284,3.5528,-1.7645,2.054,-1.0108,2.712,-1.1914,1.4308,-1.246,3.5107,-2.0076,-0.4168,-1.6589,1.3115,-1.678
1.4981,-1.3607,3.4906,-1.7501,2.0441,-1.0307,2.6905,-1.2073,1.4158,-1.2244,3.4418,-2.0032,-0.4084,-1.671,1.2902,-1.685
1.4154,-1.3315,3.47,-1.7579,2.0027,-1.0395,2.6332,-1.1949,1.3584,-1.1877,3.3618,-2.0014,-0.4206,-1.6804,1.2555,-1.6914
1.4154,-1.3315,3.47,-1.7579,2.0027,-1.0395,2.6332,-1.1949,1.3584,-1.1877,3.3618,-2.0014,-0.4206,-1.6804,1.2555,-1.6914
1.1514,-1.308,3.4702,-1.7957,1.9623,-1.0836,2.5548,-1.1867,1.2891,-1.1796,3.3168,-2.012,-0.4408,-1.6915,1.2151,-1.6958
1.1514,-1.308,3.4702,-1.7957,1.9623,-1.0836,2.5548,-1.1867,1.2891,-1.1796,3.3168,-2.012,-0.4408,-1.6915,1.2151,-1.6958
1.1514,-1.308,3.4702,-1.7957,1.9623,-1.0836,2.5548,-1.1867,1.2891,-1.1796,3.3168,-2.012,-0.4408,-1.6915,1.2151,-1.6958
1.102,-1.3252,3.4737,-1.8195,1.9319,-1.1078,2.4803,-1.1837,1.3312,-1.1945,3.2952,-2.0374,-0.4694,-1.6905,1.1767,-1.7029
1.102,-1.3252,3.4737,-1.8195,1.9319,-1.1078,2.4803,-1.1837,1.3312,-1.1945,3.2952,-2.0374,-0.4694,-1.6905,1.1767,-1.7029
1.102,-1.3252,3.4737,-1.8195,1.9319,-1.1078,2.4803,-1.1837,1.3312,-1.1945,3.2952,-2.0374,-0.4694,-1.6905,1.1767,-1.7029
1.1338,-1.3711,3.4634,-1.8233,1.9426,-1.1232,2.4273,-1.1883,1.4308,-1.246,3.2625,-2.0653,-0.5184,-1.6868,1.1403,-1.7127
1.1656,-1.4168,3.405,-1.7952,1.8909,-1.1165,2.3816,-1.2033,1.5031,-1.3042,3.2178,-2.0757,-0.563,-1.6892,1.1077,-1.7218
1.102,-1.3252,3.3708,-1.7831,1.8803,-1.1011,2.3536,-1.2088,1.4158,-1.2244,3.1844,-2.0836,-0.6037,-1.684,1.0886,-1.7316
1.102,-1.3252,3.3708,-1.7831,1.8803,-1.1011,2.3536,-1.2088,1.4158,-1.2244,3.1844,-2.0836,-0.6037,-1.684,1.0886,-1.7316
1.1195,-1.2618,3.3467,-1.7671,1.9944,-1.1299,2.3501,-1.2154,1.286,-1.1293,3.1451,-2.0827,-0.6198,-1.6873,1.0791,-1.7364
1.1195,-1.2618,3.3467,-1.7671,1.9944,-1.1299,2.3501,-1.2154,1.286,-1.1293,3.1451,-2.0827,-0.6198,-1.6873,1.0791,-1.7364
1.1195,-1.2618,3.3467,-1.7671,1.9944,-1.1299,2.3501,-1.2154,1.286,-1.1293,3.1451,-2.0827,-0.6198,-1.6873,1.0791,-1.7364
1.1195,-1.2618,3.3741,-1.7692,2.1198,-1.1742,2.3888,-1.2135,1.1899,-1.1282,3.1853,-2.1035,-0.6034,-1.6977,1.0791,-1.7302
1.1195,-1.2618,3.3741,-1.7692,2.1198,-1.1742,2.3888,-1.2135,1.1899,-1.1282,3.1853,-2.1035,-0.6034,-1.6977,1.0791,-1.7302
1.201,-1.2907,3.4117,-1.7675,2.1507,-1.1502,2.4521,-1.201,1.0944,-1.1271,3.2702,-2.1139,-0.5914,-1.6883,1.1002,-1.7171
1.201,-1.2907,3.4117,-1.7675,2.1507,-1.1502,2.4521,-1.201,1.0944,-1.1271,3.2702,-2.1139,-0.5914,-1.6883,1.1002,-1.7171
1.3149,-1.3657,3.4528,-1.7518,2.1709,-1.1107,2.5477,-1.1881,1.1362,-1.1419,3.4059,-2.1028,-0.5348,-1.6765,1.1499,-1.7017
1.3149,-1.3657,3.4528,-1.7518,2.1709,-1.1107,2.5477,-1.1881,1.1362,-1.1419,3.4059,-2.1028,-0.5348,-1.6765,1.1499,-1.7017
1.4289,-1.4407,3.5319,-1.7344,2.1703,-1.0753,2.6582,-1.1606,1.274,-1.1579,3.5063,-2.0392,-0.4618,-1.6613,1.2171,-1.6861
1.4794,-1.4238,3.6115,-1.717,2.1804,-1.0554,2.7912,-1.1526,1.4403,-1.1674,3.6488,-1.9965,-0.3759,-1.6505,1.2923,-1.6754
1.4794,-1.4238,3.6115,-1.717,2.1804,-1.0554,2.7912,-1.1526,1.4403,-1.1674,3.6488,-1.9965,-0.3759,-1.6505,1.2923,-1.6754
1.4794,-1.4238,3.6115,-1.717,2.1804,-1.0554,2.7912,-1.1526,1.4403,-1.1674,3.6488,-1.9965,-0.3759,-1.6505,1.2923,-1.6754
1.3832,-1.2851,3.6915,-1.6996,2.254,-1.0579,2.8927,-1.1451,1.5227,-1.1471,3.7465,-1.964,-0.2852,-1.6597,1.3561,-1.673
1.2508,-1.2733,3.7195,-1.7018,2.233,-1.0623,2.9364,-1.1249,1.6208,-1.1487,3.8161,-1.9483,-0.1897,-1.675,1.4008,-1.6679
1.2508,-1.2733,3.7195,-1.7018,2.233,-1.0623,2.9364,-1.1249,1.6208,-1.1487,3.8161,-1.9483,-0.1897,-1.675,1.4008,-1.6679
1.2508,-1.2733,3.7195,-1.7018,2.233,-1.0623,2.9364,-1.1249,1.6208,-1.1487,3.8161,-1.9483,-0.1897,-1.675,1.4008,-1.6679
1.021,-1.2966,3.744,-1.7181,2.1703,-1.0753,2.9364,-1.1131,1.6333,-1.1199,3.851,-1.9404,-0.1565,-1.6684,1.4242,-1.6637
1.021,-1.2966,3.744,-1.7181,2.1703,-1.0753,2.9364,-1.1131,1.6333,-1.1199,3.851,-1.9404,-0.1565,-1.6684,1.4242,-1.6637
0.9232,-1.3312,3.7685,-1.7344,2.1387,-1.0642,2.9218,-1.1039,1.7322,-1.1216,3.9046,-1.9594,-0.1777,-1.6379,1.4359,-1.6616
0.9549,-1.3768,3.7755,-1.7445,2.1494,-1.0797,2.9036,-1.1015,1.8775,-1.1896,3.8929,-1.962,-0.2112,-1.6168,1.4281,-1.663
0.9549,-1.3768,3.7755,-1.7445,2.1494,-1.0797,2.9036,-1.1015,1.8775,-1.1896,3.8929,-1.962,-0.2112,-1.6168,1.4281,-1.663
1.1161,-1.4338,3.744,-1.7181,2.1387,-1.0642,2.8781,-1.1004,1.9646,-1.2204,3.8874,-1.9735,-0.2362,-1.608,1.4222,-1.6672
1.1161,-1.4338,3.744,-1.7181,2.1387,-1.0642,2.8781,-1.1004,1.9646,-1.2204,3.8874,-1.9735,-0.2362,-1.608,1.4222,-1.6672
1.1161,-1.4338,3.744,-1.7181,2.1387,-1.0642,2.8781,-1.1004,1.9646,-1.2204,3.8874,-1.9735,-0.2362,-1.608,1.4222,-1.6672
1.2287,-1.508,3.6775,-1.6794,2.1494,-1.0797,2.8709,-1.1137,1.9515,-1.2489,3.8284,-1.9661,-0.2817,-1.6103,1.4202,-1.6769
1.2287,-1.508,3.6775,-1.6794,2.1494,-1.0797,2.8709,-1.1137,1.9515,-1.2489,3.8284,-1.9661,-0.2817,-1.6103,1.4202,-1.6769
1.2287,-1.508,3.6775,-1.6794,2.1494,-1.0797,2.8709,-1.1137,1.9515,-1.2489,3.8284,-1.9661,-0.2817,-1.6103,1.4202,-1.6769
1.2785,-1.4912,3.66,-1.6732,2.1179,-1.0685,2.8636,-1.1269,1.9057,-1.1829,3.8052,-1.9714,-0.3065,-1.6154,1.4278,-1.6879
1.2785,-1.4912,3.66,-1.6732,2.1179,-1.0685,2.8636,-1.1269,1.9057,-1.1829,3.8052,-1.9714,-0.3065,-1.6154,1.4278,-1.6879
1.2649,-1.3828,3.6462,-1.6912,2.2127,-1.102,2.8346,-1.1206,1.6583,-1.0622,3.7533,-1.9933,-0.3225,-1.6465,1.3968,-1.6811
1.2649,-1.3828,3.6462,-1.6912,2.2127,-1.102,2.8346,-1.1206,1.6583,-1.0622,3.7533,-1.9933,-0.3225,-1.6465,1.3968,-1.6811
1.3468,-1.4117,3.6602,-1.7114,2.2127,-1.102,2.8274,-1.122,1.6028,-1.0759,3.7834,-2.0173,-0.3223,-1.6603,1.3736,-1.6729
1.3468,-1.4117,3.6602,-1.7114,2.2127,-1.102,2.8274,-1.122,1.6028,-1.0759,3.7834,-2.0173,-0.3223,-1.6603,1.3736,-1.6729
1.3468,-1.4117,3.6602,-1.7114,2.2127,-1.102,2.8274,-1.122,1.6028,-1.0759,3.7834,-2.0173,-0.3223,-1.6603,1.3736,-1.6729
1.4289,-1.4407,3.6742,-1.7315,2.1595,-1.0598,2.8165,-1.1182,1.6181,-1.0979,3.8073,-2.0324,-0.3223,-1.6603,1.362,-1.6688
1.4289,-1.4407,3.6742,-1.7315,2.1595,-1.0598,2.8165,-1.1182,1.6181,-1.0979,3.8073,-2.0324,-0.3223,-1.6603,1.362,-1.6688
1.4289,-1.4407,3.6742,-1.7315,2.1595,-1.0598,2.8165,-1.1182,1.6181,-1.0979,3.8073,-2.0324,-0.3223,-1.6603,1.362,-1.6688
1.6258,-1.5449,3.6707,-1.7455,2.1071,-1.053,2.7948,-1.1224,1.6611,-1.1131,3.8189,-2.0299,-0.3265,-1.6542,1.3581,-1.6695
1.7602,-1.5578,3.6707,-1.7455,2.0756,-1.0419,2.7912,-1.129,1.6611,-1.1131,3.7827,-1.997,-0.3265,-1.6542,1.3503,-1.6709
1.677,-1.5284,3.6533,-1.7394,2.0656,-1.0618,2.7912,-1.1408,1.6458,-1.0911,3.7588,-1.9818,-0.3513,-1.6455,1.3445,-1.6751
1.677,-1.5284,3.6533,-1.7394,2.0656,-1.0618,2.7912,-1.1408,1.6458,-1.0911,3.7588,-1.9818,-0.3513,-1.6455,1.3445,-1.6751
1.677,-1.5284,3.6533,-1.7394,2.0656,-1.0618,2.7912,-1.1408,1.6458,-1.0911,3.7588,-1.9818,-0.3513,-1.6455,1.3445,-1.6751
1.5166,-1.2971,3.6533,-1.7394,2.0341,-1.0506,2.7948,-1.1579,1.5875,-1.0538,3.7233,-1.9693,-0.3471,-1.6515,1.329,-1.6779
1.5166,-1.2971,3.6533,-1.7394,2.0341,-1.0506,2.7948,-1.1579,1.5875,-1.0538,3.7233,-1.9693,-0.3471,-1.6515,1.329,-1.6779
1.5166,-1.2971,3.6533,-1.7394,2.0341,-1.0506,2.7948,-1.1579,1.5875,-1.0538,3.7233,-1.9693,-0.3471,-1.6515,1.329,-1.6779
1.3037,-1.0804,3.6254,-1.7371,2.0242,-1.0705,2.7551,-1.1596,1.6152,-1.0469,3.6764,-1.9594,-0.3181,-1.6664,1.3154,-1.6835
1.1883,-1.004,3.5803,-1.7288,2.0349,-1.086,2.7084,-1.1627,1.5875,-1.0538,3.6365,-1.9788,-0.3013,-1.6906,1.2902,-1.6912
0.8768,-1.0005,3.5701,-1.7706,2.0257,-1.1409,2.626,-1.161,1.5199,-1.0964,3.5853,-2.0007,-0.3259,-1.6956,1.2497,-1.6956
0.8768,-1.0005,3.5701,-1.7706,2.0257,-1.1409,2.626,-1.161,1.5199,-1.0964,3.5853,-2.0007,-0.3259,-1.6956,1.2497,-1.6956
0.8121,-1.0833,3.5563,-1.7884,1.9738,-1.1342,2.5511,-1.158,1.48,-1.132,3.5282,-2.0138,-0.3795,-1.6858,1.2169,-1.7047
0.8121,-1.0833,3.5563,-1.7884,1.9738,-1.1342,2.5511,-1.158,1.48,-1.132,3.5282,-2.0138,-0.3795,-1.6858,1.2169,-1.7047
0.8121,-1.0833,3.5563,-1.7884,1.9738,-1.1342,2.5511,-1.158,1.48,-1.132,3.5282,-2.0138,-0.3795,-1.6858,1.2169,-1.7047
0.9083,-1.2221,3.5045,-1.7701,1.9114,-1.1121,2.5014,-1.1678,1.4828,-1.1824,3.4539,-2.0208,-0.4245,-1.6881,1.1785,-1.7118
0.9083,-1.2221,3.5045,-1.7701,1.9114,-1.1121,2.5014,-1.1678,1.4828,-1.1824,3.4539,-2.0208,-0.4245,-1.6881,1.1785,-1.7118
0.972,-1.3139,3.4356,-1.7457,1.8909,-1.1165,2.459,-1.1762,1.4828,-1.1824,3.4087,-2.0312,-0.4655,-1.6828,1.165,-1.7235
0.972,-1.3139,3.4356,-1.7457,1.8909,-1.1165,2.459,-1.1762,1.4828,-1.1824,3.4087,-2.0312,-0.4655,-1.6828,1.165,-1.7235
1.0845,-1.3882,3.384,-1.7275,1.9221,-1.1275,2.4309,-1.1935,1.3404,-1.1156,3.3462,-2.0356,-0.498,-1.6895,1.1458,-1.7394
1.0845,-1.3882,3.384,-1.7275,1.9221,-1.1275,2.4309,-1.1935,1.3404,-1.1156,3.3462,-2.0356,-0.498,-1.6895,1.1458,-1.7394
1.1161,-1.4338,3.3362,-1.7333,1.9951,-1.1649,2.3922,-1.207,1.1867,-1.0778,3.2444,-2.0391,-0.5343,-1.7039,1.1057,-1.7437
1.1161,-1.4338,3.3362,-1.7333,1.9951,-1.1649,2.3922,-1.207,1.1867,-1.0778,3.2444,-2.0391,-0.5343,-1.7039,1.1057,-1.7437
1.0669,-1.4508,3.2955,-1.749,2.0996,-1.2134,2.3501,-1.2154,1.011,-1.0977,3.1784,-2.0749,-0.599,-1.7173,1.0467,-1.7455
1.0669,-1.4508,3.2955,-1.749,2.0996,-1.2134,2.3501,-1.2154,1.011,-1.0977,3.1784,-2.0749,-0.599,-1.7173,1.0467,-1.7455
1.0669,-1.4508,3.2955,-1.749,2.0996,-1.2134,2.3501,-1.2154,1.011,-1.0977,3.1784,-2.0749,-0.599,-1.7173,1.0467,-1.7455
0.9376,-1.4393,3.2378,-1.7586,2.0476,-1.2066,2.2976,-1.22,0.811,-1.1247,3.1298,-2.1165,-0.6755,-1.7265,0.988,-1.7473
0.9376,-1.4393,3.2378,-1.7586,2.0476,-1.2066,2.2976,-1.22,0.811,-1.1247,3.1298,-2.1165,-0.6755,-1.7265,0.988,-1.7473
0.9864,-1.4223,3.2415,-1.7824,1.9845,-1.1495,2.2557,-1.2168,0.7065,-1.1524,3.0975,-2.1441,-0.7196,-1.7289,0.954,-1.7537
1.1792,-1.5247,3.2111,-1.7941,1.8803,-1.1011,2.2244,-1.2172,0.7917,-1.2309,3.0695,-2.1407,-0.7439,-1.7203,0.9351,-1.7572
1.1792,-1.5247,3.2111,-1.7941,1.8803,-1.1011,2.2244,-1.2172,0.7917,-1.2309,3.0695,-2.1407,-0.7439,-1.7203,0.9351,-1.7572
1.2785,-1.4912,3.2144,-1.7803,1.8385,-1.0748,2.2767,-1.2242,0.8474,-1.2666,3.0516,-2.1149,-0.74,-1.7127,0.9427,-1.7558
1.2785,-1.4912,3.2144,-1.7803,1.8385,-1.0748,2.2767,-1.2242,0.8474,-1.2666,3.0516,-2.1149,-0.74,-1.7127,0.9427,-1.7558
1.2649,-1.3828,3.2548,-1.7647,1.859,-1.0704,2.3713,-1.2228,0.9677,-1.2609,3.0948,-2.0846,-0.6962,-1.6966,0.9842,-1.748
1.2649,-1.3828,3.2548,-1.7647,1.859,-1.0704,2.3713,-1.2228,0.9677,-1.2609,3.0948,-2.0846,-0.6962,-1.6966,0.9842,-1.748
1.169,-1.2444,3.3125,-1.755,1.9106,-1.077,2.4662,-1.1982,1.1007,-1.227,3.1886,-2.0523,-0.5792,-1.6926,1.0487,-1.7298
1.169,-1.2444,3.3125,-1.755,1.9106,-1.077,2.4662,-1.1982,1.1007,-1.227,3.1886,-2.0523,-0.5792,-1.6926,1.0487,-1.7298
1.0874,-1.2156,3.415,-1.7536,1.9631,-1.1188,2.5511,-1.158,1.262,-1.1864,3.3514,-2.0242,-0.4655,-1.6828,1.1421,-1.7154
1.0874,-1.2156,3.415,-1.7536,1.9631,-1.1188,2.5511,-1.158,1.262,-1.1864,3.3514,-2.0242,-0.4655,-1.6828,1.1421,-1.7154
1.0874,-1.2156,3.415,-1.7536,1.9631,-1.1188,2.5511,-1.158,1.262,-1.1864,3.3514,-2.0242,-0.4655,-1.6828,1.1421,-1.7154
1.0701,-1.2792,3.5355,-1.7584,1.9837,-1.1145,2.6509,-1.1267,1.4403,-1.1674,3.5282,-2.0138,-0.3881,-1.6599,1.217,-1.6923
1.0701,-1.2792,3.5355,-1.7584,1.9837,-1.1145,2.6509,-1.1267,1.4403,-1.1674,3.5282,-2.0138,-0.3881,-1.6599,1.217,-1.6923
1.1514,-1.308,3.6428,-1.7433,2.0357,-1.1212,2.737,-1.098,1.722,-1.201,3.7071,-2.0037,-0.3227,-1.6326,1.2903,-1.6788
1.1514,-1.308,3.6428,-1.7433,2.0357,-1.1212,2.737,-1.098,1.722,-1.201,3.7071,-2.0037,-0.3227,-1.6326,1.2903,-1.6788
1.1514,-1.308,3.6428,-1.7433,2.0357,-1.1212,2.737,-1.098,1.722,-1.201,3.7071,-2.0037,-0.3227,-1.6326,1.2903,-1.6788
1.2508,-1.2733,3.7825,-1.6782,2.1078,-1.0884,2.8708,-1.0661,1.9907,-1.1629,3.8991,-1.9709,-0.2652,-1.6069,1.4144,-1.6748
1.2508,-1.2733,3.7825,-1.6782,2.1078,-1.0884,2.8708,-1.0661,1.9907,-1.1629,3.8991,-1.9709,-0.2652,-1.6069,1.4144,-1.6748
1.2508,-1.2733,3.7825,-1.6782,2.1078,-1.0884,2.8708,-1.0661,1.9907,-1.1629,3.8991,-1.9709,-0.2652,-1.6069,1.4144,-1.6748
1.2685,-1.2095,3.8247,-1.6624,2.2019,-1.0865,2.9182,-1.0629,1.9576,-1.0674,3.9522,-1.9694,-0.2487,-1.6035,1.4436,-1.6726
1.2685,-1.2095,3.8247,-1.6624,2.2019,-1.0865,2.9182,-1.0629,1.9576,-1.0674,3.9522,-1.9694,-0.2487,-1.6035,1.4436,-1.6726
1.3186,-1.1919,3.8459,-1.6545,2.2864,-1.1046,2.9474,-1.0693,1.8109,-0.9987,3.9584,-1.9784,-0.2485,-1.6175,1.4456,-1.6691
1.3186,-1.1919,3.8459,-1.6545,2.2864,-1.1046,2.9474,-1.0693,1.8109,-0.9987,3.9584,-1.9784,-0.2485,-1.6175,1.4456,-1.6691
1.5998,-1.3265,3.8353,-1.6585,2.275,-1.0536,2.9255,-1.0735,1.5845,-1.0027,3.9893,-2.023,-0.2813,-1.6381,1.399,-1.6589
1.5998,-1.3265,3.8353,-1.6585,2.275,-1.0536,2.9255,-1.0735,1.5845,-1.0027,3.9893,-2.023,-0.2813,-1.6381,1.399,-1.6589
1.7156,-1.4025,3.8071,-1.6562,2.2324,-1.0267,2.9145,-1.0815,1.5445,-1.0386,3.9473,-2.0014,-0.2978,-1.6414,1.3776,-1.6597
1.7156,-1.4025,3.8071,-1.6562,2.2324,-1.0267,2.9145,-1.0815,1.5445,-1.0386,3.9473,-2.0014,-0.2978,-1.6414,1.3776,-1.6597
1.7156,-1.4025,3.7755,-1.6681,2.1797,-1.0199,2.9145,-1.0934,1.5751,-1.0827,3.8991,-1.9709,-0.306,-1.6431,1.3717,-1.6639
1.7156,-1.4025,3.7755,-1.6681,2.1797,-1.0199,2.9145,-1.0934,1.5751,-1.0827,3.8991,-1.9709,-0.306,-1.6431,1.3717,-1.6639
1.7156,-1.4025,3.7755,-1.6681,2.1797,-1.0199,2.9145,-1.0934,1.5751,-1.0827,3.8991,-1.9709,-0.306,-1.6431,1.3717,-1.6639
1.5351,-1.2331,3.7474,-1.6658,2.1905,-1.0355,2.9328,-1.1078,1.5903,-1.1047,3.8517,-1.9609,-0.2811,-1.6519,1.3697,-1.6674
1.5351,-1.2331,3.7474,-1.6658,2.1905,-1.0355,2.9328,-1.1078,1.5903,-1.1047,3.8517,-1.9609,-0.2811,-1.6519,1.3697,-1.6674
1.5351,-1.2331,3.7474,-1.6658,2.1905,-1.0355,2.9328,-1.1078,1.5903,-1.1047,3.8517,-1.9609,-0.2811,-1.6519,1.3697,-1.6674
1.3866,-1.1097,3.7439,-1.6799,2.2013,-1.0511,2.9328,-1.1078,1.6333,-1.1199,3.8339,-1.9546,-0.2312,-1.6695,1.3736,-1.6729
1.3866,-1.1097,3.7439,-1.6799,2.2013,-1.0511,2.9328,-1.1078,1.6333,-1.1199,3.8339,-1.9546,-0.2312,-1.6695,1.3736,-1.6729
1.3866,-1.1097,3.7439,-1.6799,2.2013,-1.0511,2.9328,-1.1078,1.6333,-1.1199,3.8339,-1.9546,-0.2312,-1.6695,1.3736,-1.6729
0.8442,-1.1297,3.723,-1.726,2.0556,-1.0816,2.8527,-1.0874,1.6056,-1.1267,3.7928,-1.9536,-0.2064,-1.6645,1.3717,-1.6701
0.8442,-1.1297,3.723,-1.726,2.0556,-1.0816,2.8527,-1.0874,1.6056,-1.1267,3.7928,-1.9536,-0.2064,-1.6645,1.3717,-1.6701
0.7475,-1.1653,3.737,-1.7461,2.0035,-1.0749,2.8128,-1.0773,1.7195,-1.1504,3.799,-1.9625,-0.2275,-1.6341,1.3697,-1.6674
0.7475,-1.1653,3.737,-1.7461,2.0035,-1.0749,2.8128,-1.0773,1.7195,-1.1504,3.799,-1.9625,-0.2275,-1.6341,1.3697,-1.6674
0.7313,-1.2289,3.737,-1.7461,1.9829,-1.0793,2.7983,-1.0801,1.806,-1.1809,3.7936,-1.974,-0.265,-1.6208,1.3736,-1.6729
0.7313,-1.2289,3.737,-1.7461,1.9829,-1.0793,2.7983,-1.0801,1.806,-1.1809,3.7936,-1.974,-0.265,-1.6208,1.3736,-1.6729
0.9232,-1.3312,3.7055,-1.7198,1.9829,-1.0793,2.7983,-1.092,1.8188,-1.1522,3.782,-1.9766,-0.2858,-1.6181,1.3832,-1.6805
0.9232,-1.3312,3.7055,-1.7198,1.9829,-1.0793,2.7983,-1.092,1.8188,-1.1522,3.782,-1.9766,-0.2858,-1.6181,1.3832,-1.6805
0.9232,-1.3312,3.6706,-1.7074,2.0143,-1.0903,2.7766,-1.0962,1.7728,-1.0859,3.7704,-1.9792,-0.3147,-1.6171,1.385,-1.6894
0.9232,-1.3312,3.6706,-1.7074,2.0143,-1.0903,2.7766,-1.0962,1.7728,-1.0859,3.7704,-1.9792,-0.3147,-1.6171,1.385,-1.6894
1.0528,-1.3425,3.6287,-1.685,2.0978,-1.1082,2.7442,-1.0966,1.643,-1.0401,3.7241,-1.9897,-0.3433,-1.6299,1.3637,-1.6902
1.0528,-1.3425,3.6287,-1.685,2.0978,-1.1082,2.7442,-1.0966,1.643,-1.0401,3.7241,-1.9897,-0.3433,-1.6299,1.3637,-1.6902
1.0845,-1.3882,3.5975,-1.6968,2.0978,-1.1082,2.7082,-1.1036,1.5169,-1.0456,3.6902,-2.0178,-0.3883,-1.6461,1.3211,-1.6856
1.0845,-1.3882,3.5975,-1.6968,2.0978,-1.1082,2.7082,-1.1036,1.5169,-1.0456,3.6902,-2.0178,-0.3883,-1.6461,1.3211,-1.6856
1.2967,-1.4287,3.5767,-1.7047,2.0871,-1.0927,2.6579,-1.1016,1.4771,-1.0813,3.6679,-2.0432,-0.4168,-1.6589,1.2825,-1.6864
1.2967,-1.4287,3.5767,-1.7047,2.0871,-1.0927,2.6579,-1.1016,1.4771,-1.0813,3.6679,-2.0432,-0.4168,-1.6589,1.2825,-1.6864
1.5431,-1.5157,3.5526,-1.7266,2.0135,-1.055,2.6257,-1.1138,1.4496,-1.0882,3.6037,-2.0272,-0.4413,-1.664,1.2497,-1.6894
1.5431,-1.5157,3.5526,-1.7266,2.0135,-1.055,2.6257,-1.1138,1.4496,-1.0882,3.6037,-2.0272,-0.4413,-1.664,1.2497,-1.6894
1.6451,-1.4824,3.5249,-1.7244,1.9821,-1.0439,2.6223,-1.1323,1.3949,-1.1019,3.5282,-2.0138,-0.4657,-1.669,1.2151,-1.6958
1.6451,-1.4824,3.5249,-1.7244,1.9821,-1.0439,2.6223,-1.1323,1.3949,-1.1019,3.5282,-2.0138,-0.4657,-1.669,1.2151,-1.6958
1.5489,-1.3436,3.494,-1.7362,1.9302,-1.0373,2.6009,-1.1482,1.3524,-1.0869,3.488,-2.0129,-0.445,-1.6855,1.1882,-1.7007
1.5489,-1.3436,3.494,-1.7362,1.9302,-1.0373,2.6009,-1.1482,1.3524,-1.0869,3.488,-2.0129,-0.445,-1.6855,1.1882,-1.7007
1.333,-1.3024,3.4528,-1.7518,1.8794,-1.066,2.5368,-1.1491,1.2829,-1.0789,3.4365,-2.0146,-0.4366,-1.6975,1.1556,-1.7037
1.333,-1.3024,3.4528,-1.7518,1.8794,-1.066,2.5368,-1.1491,1.2829,-1.0789,3.4365,-2.0146,-0.4366,-1.6975,1.1556,-1.7037
1.102,-1.3252,3.453,-1.7896,1.7978,-1.0836,2.4801,-1.1603,1.3132,-1.1225,3.4087,-2.0312,-0.4613,-1.6888,1.1307,-1.7114
0.8915,-1.2855,3.4084,-1.7813,1.7571,-1.0924,2.4059,-1.1574,1.3434,-1.166,3.3462,-2.0356,-0.5022,-1.6835,1.0963,-1.7178
0.8915,-1.2855,3.4084,-1.7813,1.7571,-1.0924,2.4059,-1.1574,1.3434,-1.166,3.3462,-2.0356,-0.5022,-1.6835,1.0963,-1.7178
0.9549,-1.3768,3.3672,-1.7593,1.7166,-1.1012,2.3531,-1.1621,1.4007,-1.2027,3.2892,-2.0286,-0.5307,-1.6825,1.0811,-1.7268
0.9549,-1.3768,3.3672,-1.7593,1.7166,-1.1012,2.3531,-1.1621,1.4007,-1.2027,3.2892,-2.0286,-0.5307,-1.6825,1.0811,-1.7268
0.9549,-1.3768,3.326,-1.7372,1.7475,-1.1121,2.3181,-1.1692,1.3584,-1.1877,3.216,-2.0357,-0.5795,-1.6789,1.0677,-1.7385
0.9549,-1.3768,3.326,-1.7372,1.7475,-1.1121,2.3181,-1.1692,1.3584,-1.1877,3.216,-2.0357,-0.5795,-1.6789,1.0677,-1.7385
0.8746,-1.3485,3.2646,-1.723,1.8509,-1.1602,2.2832,-1.1762,1.274,-1.1579,3.1715,-2.0462,-0.6159,-1.6797,1.0449,-1.7428
0.8746,-1.3485,3.2646,-1.723,1.8509,-1.1602,2.2832,-1.1762,1.274,-1.1579,3.1715,-2.0462,-0.6159,-1.6797,1.0449,-1.7428
0.8746,-1.3485,3.2646,-1.723,1.8509,-1.1602,2.2832,-1.1762,1.274,-1.1579,3.1715,-2.0462,-0.6159,-1.6797,1.0449,-1.7428
0.9062,-1.394,3.2544,-1.727,1.9236,-1.1974,2.2726,-1.1725,1.0976,-1.1772,3.1391,-2.0741,-0.6481,-1.6864,1.024,-1.7375
0.9062,-1.394,3.2544,-1.727,1.9236,-1.1974,2.2726,-1.1725,1.0976,-1.1772,3.1391,-2.0741,-0.6481,-1.6864,1.024,-1.7375
0.9062,-1.394,3.2987,-1.7351,1.9122,-1.1472,2.311,-1.1589,0.9496,-1.1899,3.1853,-2.1035,-0.6644,-1.6761,1.0316,-1.7299
1.0354,-1.4053,3.3635,-1.7354,1.9213,-1.0924,2.3845,-1.1382,0.9347,-1.1684,3.3038,-2.1061,-0.6162,-1.6659,1.0773,-1.7152
1.0354,-1.4053,3.3635,-1.7354,1.9213,-1.0924,2.3845,-1.1382,0.9347,-1.1684,3.3038,-2.1061,-0.6162,-1.6659,1.0773,-1.7152
1.4103,-1.5033,3.4595,-1.724,1.9508,-1.0329,2.5116,-1.1128,1.0976,-1.1772,3.4329,-2.0662,-0.5396,-1.6429,1.1556,-1.6975
1.4103,-1.5033,3.4595,-1.724,1.9508,-1.0329,2.5116,-1.1128,1.0976,-1.1772,3.4329,-2.0662,-0.5396,-1.6429,1.1556,-1.6975
1.4103,-1.5033,3.4595,-1.724,1.9508,-1.0329,2.5116,-1.1128,1.0976,-1.1772,3.4329,-2.0662,-0.5396,-1.6429,1.1556,-1.6975
1.5749,-1.5615,3.556,-1.7126,1.9606,-1.0129,2.6579,-1.1016,1.3041,-1.2012,3.5739,-2.0034,-0.446,-1.6303,1.244,-1.6811
1.5749,-1.5615,3.556,-1.7126,1.9606,-1.0129,2.6579,-1.1016,1.3041,-1.2012,3.5739,-2.0034,-0.446,-1.6303,1.244,-1.6811
1.5749,-1.5615,3.556,-1.7126,1.9606,-1.0129,2.6579,-1.1016,1.3041,-1.2012,3.5739,-2.0034,-0.446,-1.6303,1.244,-1.6811
1.7283,-1.5118,3.6566,-1.6872,2.0333,-1.0152,2.8201,-1.0997,1.4979,-1.2042,3.6995,-1.9542,-0.3724,-1.6151,1.331,-1.6683
1.5998,-1.3265,3.7264,-1.6737,2.054,-1.0108,2.9401,-1.0945,1.6208,-1.1487,3.8091,-1.9189,-0.2775,-1.6164,1.3971,-1.6562
1.4518,-1.2037,3.7685,-1.6579,2.1279,-1.0486,2.9949,-1.0781,1.7169,-1.0995,3.9087,-1.9068,-0.1904,-1.6196,1.4479,-1.6407
1.4518,-1.2037,3.7685,-1.6579,2.1279,-1.0486,2.9949,-1.0781,1.7169,-1.0995,3.9087,-1.9068,-0.1904,-1.6196,1.4479,-1.6407
1.4518,-1.2037,3.7685,-1.6579,2.1279,-1.0486,2.9949,-1.0781,1.7169,-1.0995,3.9087,-1.9068,-0.1904,-1.6196,1.4479,-1.6407
1.3186,-1.1919,3.8212,-1.6765,2.1179,-1.0685,2.9913,-1.0489,1.7575,-1.0638,3.9556,-1.8962,-0.1194,-1.6262,1.4831,-1.6343
1.3186,-1.1919,3.8212,-1.6765,2.1179,-1.0685,2.9913,-1.0489,1.7575,-1.0638,3.9556,-1.8962,-0.1194,-1.6262,1.4831,-1.6343
1.169,-1.2444,3.8812,-1.7054,2.1078,-1.0884,2.9693,-1.0291,1.7421,-1.0416,4.0159,-1.9243,-0.0902,-1.6273,1.4988,-1.6315
1.169,-1.2444,3.8812,-1.7054,2.1078,-1.0884,2.9693,-1.0291,1.7421,-1.0416,4.0159,-1.9243,-0.0902,-1.6273,1.4988,-1.6315
1.169,-1.2444,3.8812,-1.7054,2.1078,-1.0884,2.9693,-1.0291,1.7421,-1.0416,4.0159,-1.9243,-0.0902,-1.6273,1.4988,-1.6315
1.1514,-1.308,3.9235,-1.728,2.0871,-1.0927,2.951,-1.0267,1.8726,-1.0877,4.0402,-1.9396,-0.1155,-1.6044,1.5046,-1.6335
1.1833,-1.354,3.9235,-1.728,2.0556,-1.0816,2.929,-1.0309,2.0631,-1.1718,4.0408,-1.9602,-0.1617,-1.5788,1.5007,-1.6342
1.1833,-1.354,3.9235,-1.728,2.0556,-1.0816,2.929,-1.0309,2.0631,-1.1718,4.0408,-1.9602,-0.1617,-1.5788,1.5007,-1.6342
1.233,-1.3368,3.8918,-1.7015,2.0449,-1.0661,2.9181,-1.039,2.1953,-1.2185,4.0172,-1.9654,-0.1909,-1.5778,1.4948,-1.6384
1.2829,-1.3196,3.8777,-1.6811,2.0863,-1.0574,2.9108,-1.0404,2.1203,-1.1585,3.9695,-1.9553,-0.2201,-1.5767,1.4947,-1.6447
1.2829,-1.3196,3.8777,-1.6811,2.0863,-1.0574,2.9108,-1.0404,2.1203,-1.1585,3.9695,-1.9553,-0.2201,-1.5767,1.4947,-1.6447
1.2829,-1.3196,3.8777,-1.6811,2.0863,-1.0574,2.9108,-1.0404,2.1203,-1.1585,3.9695,-1.9553,-0.2201,-1.5767,1.4947,-1.6447
1.3832,-1.2851,3.8706,-1.671,2.1703,-1.0753,2.9254,-1.0496,2.0014,-1.0829,3.946,-1.9605,-0.2199,-1.5907,1.4908,-1.6454
1.3832,-1.2851,3.8706,-1.671,2.1703,-1.0753,2.9254,-1.0496,2.0014,-1.0829,3.946,-1.9605,-0.2199,-1.5907,1.4908,-1.6454
1.3832,-1.2851,3.8706,-1.671,2.1703,-1.0753,2.9254,-1.0496,2.0014,-1.0829,3.946,-1.9605,-0.2199,-1.5907,1.4908,-1.6454
1.3509,-1.2386,3.8706,-1.671,2.1912,-1.071,2.9254,-1.0496,1.8572,-1.0655,3.9646,-1.9873,-0.2362,-1.608,1.4693,-1.6399
1.3509,-1.2386,3.8706,-1.671,2.1912,-1.071,2.9254,-1.0496,1.8572,-1.0655,3.9646,-1.9873,-0.2362,-1.608,1.4693,-1.6399
1.3509,-1.2386,3.8706,-1.671,2.1912,-1.071,2.9254,-1.0496,1.8572,-1.0655,3.9646,-1.9873,-0.2362,-1.608,1.4693,-1.6399
1.6321,-1.373,3.853,-1.6647,2.1163,-0.9975,2.8962,-1.0432,1.7141,-1.0485,3.9708,-1.9962,-0.2527,-1.6114,1.4538,-1.6365
1.6321,-1.373,3.853,-1.6647,2.1163,-0.9975,2.8962,-1.0432,1.7141,-1.0485,3.9708,-1.9962,-0.2527,-1.6114,1.4538,-1.6365
1.6321,-1.373,3.853,-1.6647,2.1163,-0.9975,2.8962,-1.0432,1.7141,-1.0485,3.9708,-1.9962,-0.2527,-1.6114,1.4538,-1.6365
1.7995,-1.4322,3.8424,-1.6687,2.0955,-1.0019,2.8999,-1.0485,1.7295,-1.0706,3.9577,-1.9579,-0.2527,-1.6114,1.4479,-1.6344
1.7995,-1.4322,3.8424,-1.6687,2.0955,-1.0019,2.8999,-1.0485,1.7295,-1.0706,3.9577,-1.9579,-0.2527,-1.6114,1.4479,-1.6344
1.7995,-1.4322,3.8424,-1.6687,2.0955,-1.0019,2.8999,-1.0485,1.7295,-1.0706,3.9577,-1.9579,-0.2527,-1.6114,1.4479,-1.6344
1.586,-1.2157,3.7895,-1.65,2.1379,-1.0287,2.9218,-1.0801,1.7448,-1.0927,3.8798,-1.9236,-0.2193,-1.6324,1.4439,-1.6477
1.586,-1.2157,3.7895,-1.65,2.1379,-1.0287,2.9218,-1.0801,1.7448,-1.0927,3.8798,-1.9236,-0.2193,-1.6324,1.4439,-1.6477
1.586,-1.2157,3.7895,-1.65,2.1379,-1.0287,2.9218,-1.0801,1.7448,-1.0927,3.8798,-1.9236,-0.2193,-1.6324,1.4439,-1.6477
1.4518,-1.2037,3.7579,-1.6619,2.1279,-1.0486,2.8745,-1.0713,1.6889,-1.1063,3.8153,-1.9278,-0.2191,-1.6463,1.4263,-1.654
1.4518,-1.2037,3.7579,-1.6619,2.1279,-1.0486,2.8745,-1.0713,1.6889,-1.1063,3.8153,-1.9278,-0.2191,-1.6463,1.4263,-1.654
0.843,-1.3029,3.737,-1.7461,1.9623,-1.0836,2.7332,-1.069,1.5474,-1.0896,3.7465,-1.964,-0.2646,-1.6485,1.3757,-1.657
0.843,-1.3029,3.737,-1.7461,1.9623,-1.0836,2.7332,-1.069,1.5474,-1.0896,3.7465,-1.964,-0.2646,-1.6485,1.3757,-1.657
0.843,-1.3029,3.737,-1.7461,1.9623,-1.0836,2.7332,-1.069,1.5474,-1.0896,3.7465,-1.964,-0.2646,-1.6485,1.3757,-1.657
0.5878,-1.2815,3.737,-1.7841,1.8794,-1.066,2.6613,-1.0712,1.5199,-1.0964,3.7064,-1.9834,-0.302,-1.6353,1.3485,-1.6619
0.5878,-1.2815,3.737,-1.7841,1.8794,-1.066,2.6613,-1.0712,1.5199,-1.0964,3.7064,-1.9834,-0.302,-1.6353,1.3485,-1.6619
0.667,-1.3095,3.709,-1.7819,1.8483,-1.055,2.6255,-1.0783,1.6056,-1.1267,3.6779,-2.0001,-0.3518,-1.6178,1.3271,-1.669
0.667,-1.3095,3.709,-1.7819,1.8483,-1.055,2.6255,-1.0783,1.6056,-1.1267,3.6779,-2.0001,-0.3518,-1.6178,1.3271,-1.669
0.8576,-1.4111,3.6324,-1.7472,1.8483,-1.055,2.6077,-1.0996,1.6208,-1.1487,3.6144,-2.0043,-0.3888,-1.6185,1.3096,-1.6815
0.9062,-1.394,3.5733,-1.7187,1.8483,-1.055,2.5792,-1.1053,1.5903,-1.1047,3.5625,-2.006,-0.4091,-1.6296,1.3056,-1.6946
0.9062,-1.394,3.5733,-1.7187,1.8483,-1.055,2.5792,-1.1053,1.5903,-1.1047,3.5625,-2.006,-0.4091,-1.6296,1.3056,-1.6946
1.0037,-1.3597,3.5213,-1.7004,1.9311,-1.0726,2.5507,-1.1109,1.5169,-1.0456,3.5107,-2.0076,-0.4336,-1.6347,1.2843,-1.7016
1.0037,-1.3597,3.5213,-1.7004,1.9311,-1.0726,2.5507,-1.1109,1.5169,-1.0456,3.5107,-2.0076,-0.4336,-1.6347,1.2843,-1.7016
1.0037,-1.3597,3.5213,-1.7004,1.9311,-1.0726,2.5507,-1.1109,1.5169,-1.0456,3.5107,-2.0076,-0.4336,-1.6347,1.2843,-1.7016
1.0528,-1.3425,3.4661,-1.696,1.9936,-1.0947,2.5259,-1.1217,1.4039,-1.0223,3.4539,-2.0208,-0.4578,-1.6536,1.2362,-1.695
1.0528,-1.3425,3.4661,-1.696,1.9936,-1.0947,2.5259,-1.1217,1.4039,-1.0223,3.4539,-2.0208,-0.4578,-1.6536,1.2362,-1.695
1.021,-1.2966,3.4455,-1.7039,2.025,-1.1058,2.4869,-1.1236,1.2255,-1.0421,3.4269,-2.0575,-0.5147,-1.6654,1.1901,-1.6973
1.021,-1.2966,3.4455,-1.7039,2.025,-1.1058,2.4869,-1.1236,1.2255,-1.0421,3.4269,-2.0575,-0.5147,-1.6654,1.1901,-1.6973
1.021,-1.2966,3.4455,-1.7039,2.025,-1.1058,2.4869,-1.1236,1.2255,-1.0421,3.4269,-2.0575,-0.5147,-1.6654,1.1901,-1.6973
1.0528,-1.3425,3.4319,-1.7218,2.0035,-1.0749,2.4409,-1.1269,1.2018,-1.0996,3.3938,-2.0854,-0.5471,-1.6722,1.148,-1.6989
1.0528,-1.3425,3.4319,-1.7218,2.0035,-1.0749,2.4409,-1.1269,1.2018,-1.0996,3.3938,-2.0854,-0.5471,-1.6722,1.148,-1.6989
1.5749,-1.5615,3.3774,-1.7553,1.8366,-1.0042,2.3423,-1.135,1.208,-1.1999,3.2858,-2.08,-0.5956,-1.6823,1.083,-1.7111
1.5749,-1.5615,3.3774,-1.7553,1.8366,-1.0042,2.3423,-1.135,1.208,-1.1999,3.2858,-2.08,-0.5956,-1.6823,1.083,-1.7111
1.5749,-1.5615,3.3774,-1.7553,1.8366,-1.0042,2.3423,-1.135,1.208,-1.1999,3.2858,-2.08,-0.5956,-1.6823,1.083,-1.7111
1.5749,-1.5615,3.3329,-1.7472,1.7647,-1.0022,2.3108,-1.1472,1.208,-1.1999,3.2221,-2.0444,-0.6361,-1.677,1.0545,-1.7195
1.5749,-1.5615,3.3329,-1.7472,1.7647,-1.0022,2.3108,-1.1472,1.208,-1.1999,3.2221,-2.0444,-0.6361,-1.677,1.0545,-1.7195
1.5749,-1.5615,3.3329,-1.7472,1.7647,-1.0022,2.3108,-1.1472,1.208,-1.1999,3.2221,-2.0444,-0.6361,-1.677,1.0545,-1.7195
1.4607,-1.4866,3.2886,-1.739,1.7241,-1.0111,2.3181,-1.1692,1.1512,-1.1636,3.1594,-2.0288,-0.6564,-1.6744,1.0317,-1.7238
1.4607,-1.4866,3.2886,-1.739,1.7241,-1.0111,2.3181,-1.1692,1.1512,-1.1636,3.1594,-2.0288,-0.6564,-1.6744,1.0317,-1.7238
1.3008,-1.256,3.2886,-1.739,1.7348,-1.0265,2.3287,-1.1729,1.178,-1.1567,3.1534,-2.0201,-0.6159,-1.6797,1.0392,-1.7285
1.1368,-1.198,3.3056,-1.745,1.7561,-1.0573,2.3496,-1.157,1.1899,-1.1282,3.1928,-2.0209,-0.5304,-1.6962,1.0697,-1.7228
0.9891,-1.2506,3.3945,-1.7614,1.7668,-1.0726,2.395,-1.1302,1.1749,-1.1065,3.3004,-2.026,-0.4901,-1.6741,1.1173,-1.7108
0.9891,-1.2506,3.3945,-1.7614,1.7668,-1.0726,2.395,-1.1302,1.1749,-1.1065,3.3004,-2.026,-0.4901,-1.6741,1.1173,-1.7108
0.9402,-1.2681,3.4975,-1.7601,1.7871,-1.0682,2.4689,-1.0977,1.3827,-1.1306,3.4365,-2.0146,-0.4294,-1.6408,1.1863,-1.6918
0.9402,-1.2681,3.4975,-1.7601,1.7871,-1.0682,2.4689,-1.0977,1.3827,-1.1306,3.4365,-2.0146,-0.4294,-1.6408,1.1863,-1.6918
0.9402,-1.2681,3.4975,-1.7601,1.7871,-1.0682,2.4689,-1.0977,1.3827,-1.1306,3.4365,-2.0146,-0.4294,-1.6408,1.1863,-1.6918
1.021,-1.2966,3.5977,-1.7349,1.859,-1.0704,2.561,-1.0674,1.6638,-1.1638,3.6021,-1.9867,-0.3518,-1.6178,1.2653,-1.6741
1.021,-1.2966,3.5977,-1.7349,1.859,-1.0704,2.561,-1.0674,1.6638,-1.1638,3.6021,-1.9867,-0.3518,-1.6178,1.2653,-1.6741
1.021,-1.2966,3.5977,-1.7349,1.859,-1.0704,2.561,-1.0674,1.6638,-1.1638,3.6021,-1.9867,-0.3518,-1.6178,1.2653,-1.6741
1.102,-1.3252,3.6775,-1.6794,1.9204,-1.0572,2.6754,-1.0446,1.8341,-1.1742,3.7465,-1.964,-0.286,-1.6042,1.3504,-1.6647
1.102,-1.3252,3.6775,-1.6794,1.9204,-1.0572,2.6754,-1.0446,1.8341,-1.1742,3.7465,-1.964,-0.286,-1.6042,1.3504,-1.6647
1.233,-1.3368,3.7859,-1.6256,2.0449,-1.0661,2.8416,-1.0359,1.9421,-1.0451,3.9453,-1.94,-0.1907,-1.5917,1.4945,-1.6634
1.233,-1.3368,3.7859,-1.6256,2.0449,-1.0661,2.8416,-1.0359,1.9421,-1.0451,3.9453,-1.94,-0.1907,-1.5917,1.4945,-1.6634
1.233,-1.3368,3.7859,-1.6256,2.0449,-1.0661,2.8416,-1.0359,1.9421,-1.0451,3.9453,-1.94,-0.1907,-1.5917,1.4945,-1.6634
1.2829,-1.3196,3.8247,-1.6239,2.1494,-1.0797,2.8962,-1.0432,1.8927,-0.9261,3.9923,-1.9295,-0.149,-1.5972,1.5219,-1.6585
1.2829,-1.3196,3.8247,-1.6239,2.1494,-1.0797,2.8962,-1.0432,1.8927,-0.9261,3.9923,-1.9295,-0.149,-1.5972,1.5219,-1.6585
1.2829,-1.3196,3.8247,-1.6239,2.1494,-1.0797,2.8962,-1.0432,1.8927,-0.9261,3.9923,-1.9295,-0.149,-1.5972,1.5219,-1.6585
1.2186,-1.2269,3.8353,-1.62,2.2971,-1.1201,2.9254,-1.0496,1.8741,-0.8514,4.0277,-1.9217,-0.1198,-1.5983,1.5357,-1.6529
1.2508,-1.2733,3.807,-1.6177,2.3716,-1.1582,2.9108,-1.0524,1.8176,-0.8656,4.0221,-1.9333,-0.1238,-1.6061,1.5202,-1.6432
1.201,-1.2907,3.7754,-1.6296,2.3823,-1.1737,2.8853,-1.0513,1.7052,-0.8938,3.9868,-1.9411,-0.1571,-1.6128,1.4909,-1.6329
1.201,-1.2907,3.7754,-1.6296,2.3823,-1.1737,2.8853,-1.0513,1.7052,-0.8938,3.9868,-1.9411,-0.1571,-1.6128,1.4909,-1.6329
1.0528,-1.3425,3.7509,-1.6517,2.3191,-1.1864,2.8453,-1.0531,1.5968,-0.9735,3.9522,-1.9694,-0.2069,-1.6229,1.4461,-1.6254
1.0528,-1.3425,3.7509,-1.6517,2.3191,-1.1864,2.8453,-1.0531,1.5968,-0.9735,3.9522,-1.9694,-0.2069,-1.6229,1.4461,-1.6254
1.0528,-1.3425,3.7509,-1.6517,2.3191,-1.1864,2.8453,-1.0531,1.5968,-0.9735,3.9522,-1.9694,-0.2069,-1.6229,1.4461,-1.6254
1.0528,-1.3425,3.7299,-1.6596,2.2133,-1.1373,2.8163,-1.0468,1.416,-0.9933,3.9535,-2.0103,-0.265,-1.6208,1.4188,-1.6241
1.0528,-1.3425,3.7299,-1.6596,2.2133,-1.1373,2.8163,-1.0468,1.416,-0.9933,3.9535,-2.0103,-0.265,-1.6208,1.4188,-1.6241
1.2152,-1.3998,3.7439,-1.6799,2.1179,-1.0685,2.7981,-1.0444,1.3493,-1.0362,3.9541,-2.0307,-0.2815,-1.6242,1.4032,-1.627
1.2152,-1.3998,3.7439,-1.6799,2.1179,-1.0685,2.7981,-1.0444,1.3493,-1.0362,3.9541,-2.0307,-0.2815,-1.6242,1.4032,-1.627
1.5431,-1.5157,3.7439,-1.6799,2.0648,-1.0263,2.7981,-1.0444,1.407,-1.0731,3.9658,-2.0281,-0.2858,-1.6181,1.4128,-1.6346
1.792,-1.6037,3.7545,-1.6759,2.0117,-0.9841,2.8199,-1.0521,1.5351,-1.1184,3.9349,-1.9836,-0.2775,-1.6164,1.4303,-1.6408
1.792,-1.6037,3.7545,-1.6759,2.0117,-0.9841,2.8199,-1.0521,1.5351,-1.1184,3.9349,-1.9836,-0.2775,-1.6164,1.4303,-1.6408
1.7602,-1.5578,3.7545,-1.6759,1.9911,-0.9885,2.8563,-1.0689,1.6638,-1.1638,3.9101,-1.9478,-0.2735,-1.6086,1.442,-1.6449
1.7602,-1.5578,3.7545,-1.6759,1.9911,-0.9885,2.8563,-1.0689,1.6638,-1.1638,3.9101,-1.9478,-0.2735,-1.6086,1.442,-1.6449
1.7602,-1.5578,3.7545,-1.6759,1.9911,-0.9885,2.8563,-1.0689,1.6638,-1.1638,3.9101,-1.9478,-0.2735,-1.6086,1.442,-1.6449
1.581,-1.39,3.7545,-1.6759,1.9704,-0.993,2.8708,-1.078,1.6916,-1.1571,3.886,-1.9326,-0.2485,-1.6175,1.4439,-1.6477
1.581,-1.39,3.7545,-1.6759,1.9704,-0.993,2.8708,-1.078,1.6916,-1.1571,3.886,-1.9326,-0.2485,-1.6175,1.4439,-1.6477
1.4518,-1.2037,3.7474,-1.6658,1.9704,-0.993,2.8745,-1.0832,1.7322,-1.1216,3.8619,-1.9173,-0.2027,-1.629,1.4439,-1.6477
1.4518,-1.2037,3.7474,-1.6658,1.9704,-0.993,2.8745,-1.0832,1.7322,-1.1216,3.8619,-1.9173,-0.2027,-1.629,1.4439,-1.6477
1.2862,-1.1451,3.7439,-1.6799,1.9606,-1.0129,2.8345,-1.0731,1.7322,-1.1216,3.8091,-1.9189,-0.186,-1.6396,1.4322,-1.6498
1.1368,-1.198,3.765,-1.7103,1.9097,-1.0417,2.7729,-1.0672,1.7169,-1.0995,3.8099,-1.9394,-0.1817,-1.6457,1.4166,-1.6526
1.1368,-1.198,3.765,-1.7103,1.9097,-1.0417,2.7729,-1.0672,1.7169,-1.0995,3.8099,-1.9394,-0.1817,-1.6457,1.4166,-1.6526
1.169,-1.2444,3.7685,-1.7344,1.8999,-1.0616,2.7224,-1.0652,1.7601,-1.1148,3.799,-1.9625,-0.2277,-1.6202,1.3971,-1.6562
1.169,-1.2444,3.7685,-1.7344,1.8999,-1.0616,2.7224,-1.0652,1.7601,-1.1148,3.799,-1.9625,-0.2277,-1.6202,1.3971,-1.6562
1.169,-1.2444,3.7685,-1.7344,1.8999,-1.0616,2.7224,-1.0652,1.7601,-1.1148,3.799,-1.9625,-0.2277,-1.6202,1.3971,-1.6562
