-5.1768,-1.6117,-0.0844,0.9112,-0.4928,-0.1853,4.6611,1.3838,-6.9221,-5.5942,-1.5409,-2.1139,-5.3661,-4.5768,-0.0738,-1.004
-5.218,-1.5971,-0.1006,0.9049,-0.4992,-0.1981,4.6611,1.3838,-7.038,-5.5876,-1.5817,-2.1221,-5.3661,-4.5898,-0.1167,-1.0139
-5.218,-1.5971,-0.1006,0.9049,-0.4992,-0.1981,4.6611,1.3838,-7.038,-5.5876,-1.5817,-2.1221,-5.3661,-4.5898,-0.1167,-1.0139
-5.2907,-1.6042,-0.1328,0.8922,-0.5655,-0.2122,4.527,1.4173,-7.08,-5.607,-1.6088,-2.1276,-5.3581,-4.6012,-0.1472,-1.0209
-5.2907,-1.6042,-0.1328,0.8922,-0.5655,-0.2122,4.527,1.4173,-7.08,-5.607,-1.6088,-2.1276,-5.3581,-4.6012,-0.1472,-1.0209
-5.2907,-1.6042,-0.1328,0.8922,-0.5655,-0.2122,4.527,1.4173,-7.08,-5.607,-1.6088,-2.1276,-5.3581,-4.6012,-0.1472,-1.0209
-5.3631,-1.6114,-0.147,0.8731,-0.6184,-0.2235,4.4191,1.4141,-7.1947,-5.6006,-1.6154,-2.1404,-5.3819,-4.5928,-0.1594,-1.0238
-5.3889,-1.6186,-0.1359,0.8572,-0.6516,-0.2193,4.3953,1.4088,-7.038,-5.5876,-1.6019,-2.1376,-5.378,-4.5726,-0.1289,-1.0167
-5.3889,-1.6186,-0.1359,0.8572,-0.6516,-0.2193,4.3953,1.4088,-7.038,-5.5876,-1.6019,-2.1376,-5.378,-4.5726,-0.1289,-1.0167
-5.3556,-1.6222,-0.1144,0.8656,-0.6385,-0.2165,4.4191,1.4141,-6.7738,-5.6466,-1.5747,-2.1321,-5.3622,-4.5565,-0.0521,-1.0045
-5.3372,-1.6042,-0.0767,0.8804,-0.6121,-0.2108,4.5158,1.3937,-6.5378,-5.6611,-1.4998,-2.1284,-5.3026,-4.5515,0.0813,-0.9905
-5.3372,-1.6042,-0.0767,0.8804,-0.6121,-0.2108,4.5158,1.3937,-6.5378,-5.6611,-1.4998,-2.1284,-5.3026,-4.5515,0.0813,-0.9905
-5.3372,-1.6042,-0.0767,0.8804,-0.6121,-0.2108,4.5158,1.3937,-6.5378,-5.6611,-1.4998,-2.1284,-5.3026,-4.5515,0.0813,-0.9905
-5.2722,-1.5862,-0.021,0.9089,-0.5327,-0.1938,4.6116,1.4151,-6.4386,-5.5571,-1.4244,-2.1247,-5.2468,-4.5407,0.2283,-0.9738
-5.2722,-1.5862,-0.021,0.9089,-0.5327,-0.1938,4.6116,1.4151,-6.4386,-5.5571,-1.4244,-2.1247,-5.2468,-4.5407,0.2283,-0.9738
-5.2722,-1.5862,-0.021,0.9089,-0.5327,-0.1938,4.6116,1.4151,-6.4386,-5.5571,-1.4244,-2.1247,-5.2468,-4.5407,0.2283,-0.9738
-5.2276,-1.5609,0.0516,0.9236,-0.4389,-0.1967,4.6839,1.4311,-6.4478,-5.378,-1.3349,-2.1184,-5.1867,-4.5358,0.3479,-0.947
-5.147,-1.5647,0.1044,0.9373,-0.3512,-0.2127,4.6953,1.4548,-6.4365,-5.3109,-1.2518,-2.1249,-5.1345,-4.5324,0.4329,-0.9113
-5.147,-1.5647,0.1044,0.9373,-0.3512,-0.2127,4.6953,1.4548,-6.4365,-5.3109,-1.2518,-2.1249,-5.1345,-4.5324,0.4329,-0.9113
-5.066,-1.5686,0.1649,0.9403,-0.2974,-0.2014,4.7196,1.4602,-6.3597,-5.3381,-1.1613,-2.1417,-5.1143,-4.522,0.4737,-0.8853
-4.9636,-1.5799,0.2016,0.9477,-0.2708,-0.1729,4.7681,1.4709,-6.327,-5.3852,-1.1333,-2.1363,-5.1103,-4.5146,0.5052,-0.8671
-4.9636,-1.5799,0.2016,0.9477,-0.2708,-0.1729,4.7681,1.4709,-6.327,-5.3852,-1.1333,-2.1363,-5.1103,-4.5146,0.5052,-0.8671
-4.9636,-1.5799,0.2016,0.9477,-0.2708,-0.1729,4.7681,1.4709,-6.327,-5.3852,-1.1333,-2.1363,-5.1103,-4.5146,0.5052,-0.8671
-4.9085,-1.5911,0.2181,0.954,-0.2778,-0.1628,4.8425,1.4446,-6.2827,-5.3653,-1.1124,-2.0978,-5.0861,-4.51,0.5274,-0.8565
-4.9085,-1.5911,0.2181,0.954,-0.2778,-0.1628,4.8425,1.4446,-6.2827,-5.3653,-1.1124,-2.0978,-5.0861,-4.51,0.5274,-0.8565
-4.9085,-1.5911,0.2181,0.954,-0.2778,-0.1628,4.8425,1.4446,-6.2827,-5.3653,-1.1124,-2.0978,-5.0861,-4.51,0.5274,-0.8565
-4.8684,-1.5804,0.2384,0.955,-0.2713,-0.1499,4.9416,1.4235,-6.3154,-5.318,-1.1055,-2.0849,-5.078,-4.5085,0.5372,-0.8599
-4.8836,-1.5584,0.2421,0.9496,-0.2848,-0.1528,4.9416,1.4235,-6.3154,-5.318,-1.0985,-2.072,-5.0335,-4.5198,0.5436,-0.8585
-4.918,-1.5546,0.2533,0.9334,-0.3048,-0.1685,4.8553,1.4261,-6.3925,-5.2908,-1.0774,-2.0795,-5.0416,-4.5082,0.5244,-0.8628
-4.918,-1.5546,0.2533,0.9334,-0.3048,-0.1685,4.8553,1.4261,-6.3925,-5.2908,-1.0774,-2.0795,-5.0416,-4.5082,0.5244,-0.8628
-4.958,-1.5654,0.246,0.9238,-0.3586,-0.1798,4.7196,1.4602,-6.3597,-5.3381,-1.0985,-2.072,-5.0456,-4.5024,0.4988,-0.8685
-4.958,-1.5654,0.246,0.9238,-0.3586,-0.1798,4.7196,1.4602,-6.3597,-5.3381,-1.0985,-2.072,-5.0456,-4.5024,0.4988,-0.8685
-4.958,-1.5654,0.246,0.9238,-0.3586,-0.1798,4.7196,1.4602,-6.3597,-5.3381,-1.0985,-2.072,-5.0456,-4.5024,0.4988,-0.8685
-4.9998,-1.5506,0.2275,0.9304,-0.3924,-0.1754,4.6826,1.4732,-6.2944,-5.4322,-1.1265,-2.0775,-5.078,-4.4953,0.4703,-0.8805
-4.9998,-1.5506,0.2275,0.9304,-0.3924,-0.1754,4.6826,1.4732,-6.2944,-5.4322,-1.1265,-2.0775,-5.078,-4.4953,0.4703,-0.8805
-5.0263,-1.5578,0.2035,0.9348,-0.3854,-0.1854,4.6826,1.4732,-6.327,-5.3852,-1.1475,-2.0701,-5.0658,-4.4996,0.474,-0.8965
-5.0263,-1.5578,0.2035,0.9348,-0.3854,-0.1854,4.6826,1.4732,-6.327,-5.3852,-1.1475,-2.0701,-5.0658,-4.4996,0.474,-0.8965
-5.0263,-1.5578,0.2035,0.9348,-0.3854,-0.1854,4.6826,1.4732,-6.327,-5.3852,-1.1475,-2.0701,-5.0658,-4.4996,0.474,-0.8965
-5.0527,-1.565,0.1815,0.9263,-0.3442,-0.2227,4.6102,1.4571,-6.4804,-5.331,-1.1894,-2.0783,-5.074,-4.5143,0.4388,-0.8987
-5.066,-1.5686,0.1613,0.9253,-0.3239,-0.2299,4.6102,1.4571,-6.5788,-5.4375,-1.238,-2.0993,-5.1143,-4.522,0.397,-0.8913
-5.066,-1.5686,0.1613,0.9253,-0.3239,-0.2299,4.6102,1.4571,-6.5788,-5.4375,-1.238,-2.0993,-5.1143,-4.522,0.397,-0.8913
-5.066,-1.5686,0.1613,0.9253,-0.3239,-0.2299,4.6102,1.4571,-6.5788,-5.4375,-1.238,-2.0993,-5.1143,-4.522,0.397,-0.8913
-5.0867,-1.5612,0.1449,0.919,-0.3442,-0.2227,4.5989,1.4334,-6.7086,-5.4966,-1.2588,-2.1149,-5.1626,-4.518,0.3586,-0.8887
-5.0867,-1.5612,0.1449,0.919,-0.3442,-0.2227,4.5989,1.4334,-6.7086,-5.4966,-1.2588,-2.1149,-5.1626,-4.518,0.3586,-0.8887
-5.0867,-1.5612,0.1449,0.919,-0.3442,-0.2227,4.5989,1.4334,-6.7086,-5.4966,-1.2588,-2.1149,-5.1626,-4.518,0.3586,-0.8887
-4.9959,-1.6016,0.1247,0.918,-0.3854,-0.1854,4.6852,1.3891,-6.7516,-5.5162,-1.2588,-2.1149,-5.1747,-4.5269,0.3556,-0.895
-4.9959,-1.6016,0.1247,0.918,-0.3854,-0.1854,4.6852,1.3891,-6.7516,-5.5162,-1.2588,-2.1149,-5.1747,-4.5269,0.3556,-0.895
-4.9959,-1.6016,0.1247,0.918,-0.3854,-0.1854,4.6852,1.3891,-6.7516,-5.5162,-1.2588,-2.1149,-5.1747,-4.5269,0.3556,-0.895
-4.9902,-1.5871,0.121,0.9234,-0.3854,-0.1854,4.7833,1.3682,-6.7836,-5.4702,-1.2588,-2.1149,-5.1747,-4.5269,0.3623,-0.9046
-4.9902,-1.5871,0.121,0.9234,-0.3854,-0.1854,4.7833,1.3682,-6.7836,-5.4702,-1.2588,-2.1149,-5.1747,-4.5269,0.3623,-0.9046
-5.0054,-1.5651,0.121,0.9234,-0.3854,-0.1854,4.8447,1.3604,-6.6655,-5.477,-1.2728,-2.0947,-5.1425,-4.5339,0.3784,-0.9066
-5.0054,-1.5651,0.121,0.9234,-0.3854,-0.1854,4.8447,1.3604,-6.6655,-5.477,-1.2728,-2.0947,-5.1425,-4.5339,0.3784,-0.9066
-5.0054,-1.5651,0.121,0.9234,-0.3854,-0.1854,4.8447,1.3604,-6.6655,-5.477,-1.2728,-2.0947,-5.1425,-4.5339,0.3784,-0.9066
-5.0395,-1.5614,0.1193,0.9159,-0.4256,-0.1939,4.7451,1.4233,-6.5145,-5.5303,-1.3007,-2.0772,-5.1345,-4.5324,0.353,-0.9123
-5.0395,-1.5614,0.1193,0.9159,-0.4256,-0.1939,4.7451,1.4233,-6.5145,-5.5303,-1.3007,-2.0772,-5.1345,-4.5324,0.353,-0.9123
-5.0395,-1.5614,0.1193,0.9159,-0.4256,-0.1939,4.7451,1.4233,-6.5145,-5.5303,-1.3007,-2.0772,-5.1345,-4.5324,0.353,-0.9123
-5.0187,-1.5687,0.121,0.9234,-0.4122,-0.1911,4.7323,1.4417,-6.2862,-5.611,-1.2798,-2.0845,-5.1425,-4.5208,0.3404,-0.9152
-5.0187,-1.5687,0.121,0.9234,-0.4122,-0.1911,4.7323,1.4417,-6.2862,-5.611,-1.2798,-2.0845,-5.1425,-4.5208,0.3404,-0.9152
-5.0395,-1.5614,0.1044,0.9373,-0.4053,-0.2011,4.7081,1.4364,-6.2418,-5.5917,-1.2937,-2.0873,-5.1506,-4.5223,0.3248,-0.9243
-5.0395,-1.5614,0.1044,0.9373,-0.4053,-0.2011,4.7081,1.4364,-6.2418,-5.5917,-1.2937,-2.0873,-5.1506,-4.5223,0.3248,-0.9243
-5.066,-1.5686,0.0843,0.9363,-0.3577,-0.2255,4.6839,1.4311,-6.4916,-5.3979,-1.2935,-2.1102,-5.1787,-4.5342,0.2744,-0.9356
-5.066,-1.5686,0.0843,0.9363,-0.3577,-0.2255,4.6839,1.4311,-6.4916,-5.3979,-1.2935,-2.1102,-5.1787,-4.5342,0.2744,-0.9356
-5.066,-1.5686,0.0843,0.9363,-0.3577,-0.2255,4.6839,1.4311,-6.4916,-5.3979,-1.2935,-2.1102,-5.1787,-4.5342,0.2744,-0.9356
-5.0792,-1.5721,0.0771,0.9267,-0.3577,-0.2255,4.647,1.4441,-6.6545,-5.4108,-1.2933,-2.1331,-5.2228,-4.5361,0.2272,-0.9407
-5.0792,-1.5721,0.0771,0.9267,-0.3577,-0.2255,4.647,1.4441,-6.6545,-5.4108,-1.2933,-2.1331,-5.2228,-4.5361,0.2272,-0.9407
-5.0792,-1.5721,0.0771,0.9267,-0.3577,-0.2255,4.647,1.4441,-6.6545,-5.4108,-1.2933,-2.1331,-5.2228,-4.5361,0.2272,-0.9407
-5.0848,-1.5867,0.057,0.9257,-0.3646,-0.2155,4.6229,1.4387,-6.7407,-5.4504,-1.3072,-2.1358,-5.2588,-4.5365,0.1834,-0.9506
-5.0848,-1.5867,0.057,0.9257,-0.3646,-0.2155,4.6229,1.4387,-6.7407,-5.4504,-1.3072,-2.1358,-5.2588,-4.5365,0.1834,-0.9506
-5.0772,-1.5976,0.0516,0.9236,-0.3919,-0.1983,4.6967,1.4127,-6.7407,-5.4504,-1.3141,-2.1257,-5.2627,-4.5438,0.1522,-0.9577
-5.0772,-1.5976,0.0516,0.9236,-0.3919,-0.1983,4.6967,1.4127,-6.7407,-5.4504,-1.3141,-2.1257,-5.2627,-4.5438,0.1522,-0.9577
-5.1318,-1.5865,0.019,0.9109,-0.4454,-0.2095,4.7094,1.3943,-6.8583,-5.4438,-1.3763,-2.1266,-5.2468,-4.5668,0.0709,-0.9652
-5.1318,-1.5865,0.019,0.9109,-0.4454,-0.2095,4.7094,1.3943,-6.8583,-5.4438,-1.3763,-2.1266,-5.2468,-4.5668,0.0709,-0.9652
-5.1318,-1.5865,0.019,0.9109,-0.4454,-0.2095,4.7094,1.3943,-6.8583,-5.4438,-1.3763,-2.1266,-5.2468,-4.5668,0.0709,-0.9652
-5.1581,-1.5937,0.0118,0.9014,-0.5056,-0.2109,4.6116,1.4151,-6.8903,-5.3976,-1.3832,-2.1165,-5.2228,-4.5753,0.0428,-0.9661
-5.1581,-1.5937,0.0118,0.9014,-0.5056,-0.2109,4.6116,1.4151,-6.8903,-5.3976,-1.3832,-2.1165,-5.2228,-4.5753,0.0428,-0.9661
-5.1581,-1.5937,0.0118,0.9014,-0.5056,-0.2109,4.6116,1.4151,-6.8903,-5.3976,-1.3832,-2.1165,-5.2228,-4.5753,0.0428,-0.9661
-5.1974,-1.6044,-0.0008,0.8897,-0.5655,-0.2122,4.5749,1.428,-6.8156,-5.424,-1.3763,-2.1266,-5.2308,-4.5638,0.0214,-0.9765
-5.2105,-1.608,-0.0153,0.8908,-0.6052,-0.2207,4.5382,1.441,-6.5261,-5.5959,-1.4107,-2.122,-5.2587,-4.5496,0,-0.987
-5.2105,-1.608,-0.0153,0.8908,-0.6052,-0.2207,4.5382,1.441,-6.5261,-5.5959,-1.4107,-2.122,-5.2587,-4.5496,0,-0.987
-5.2236,-1.6116,-0.0335,0.8973,-0.6316,-0.2264,4.5749,1.428,-6.3305,-5.6302,-1.4107,-2.122,-5.2827,-4.5411,0.0005,-0.9979
-5.2236,-1.6116,-0.0335,0.8973,-0.6316,-0.2264,4.5749,1.428,-6.3305,-5.6302,-1.4107,-2.122,-5.2827,-4.5411,0.0005,-0.9979
-5.2441,-1.6043,-0.0517,0.9037,-0.6178,-0.2462,4.5989,1.4334,-6.3183,-5.5647,-1.4244,-2.1247,-5.2907,-4.5426,-0.0053,-1.0102
-5.2572,-1.6079,-0.077,0.9006,-0.5973,-0.2759,4.5862,1.4517,-6.4708,-5.5108,-1.4655,-2.1329,-5.3225,-4.5488,-0.036,-1.0173
-5.2572,-1.6079,-0.077,0.9006,-0.5973,-0.2759,4.5862,1.4517,-6.4708,-5.5108,-1.4655,-2.1329,-5.3225,-4.5488,-0.036,-1.0173
-5.2572,-1.6079,-0.077,0.9006,-0.5973,-0.2759,4.5862,1.4517,-6.4708,-5.5108,-1.4655,-2.1329,-5.3225,-4.5488,-0.036,-1.0173
-5.2962,-1.6187,-0.0986,0.8921,-0.6168,-0.2913,4.5382,1.441,-6.6655,-5.477,-1.4584,-2.1657,-5.3662,-4.5507,-0.0795,-1.0163
-5.2962,-1.6187,-0.0986,0.8921,-0.6168,-0.2913,4.5382,1.441,-6.6655,-5.477,-1.4584,-2.1657,-5.3662,-4.5507,-0.0795,-1.0163
-5.2962,-1.6187,-0.0986,0.8921,-0.6168,-0.2913,4.5382,1.441,-6.6655,-5.477,-1.4584,-2.1657,-5.3662,-4.5507,-0.0795,-1.0163
-5.3017,-1.6331,-0.1238,0.889,-0.65,-0.2871,4.527,1.4173,-6.7197,-5.5622,-1.4307,-2.2056,-5.3939,-4.5626,-0.1411,-1.0195
-5.2812,-1.6403,-0.1399,0.8827,-0.6899,-0.2729,4.4666,1.4249,-6.7627,-5.5816,-1.4168,-2.2256,-5.4176,-4.5672,-0.1838,-1.0294
-5.2812,-1.6403,-0.1399,0.8827,-0.6899,-0.2729,4.4666,1.4249,-6.7627,-5.5816,-1.4168,-2.2256,-5.4176,-4.5672,-0.1838,-1.0294
-5.2662,-1.6619,-0.165,0.8795,-0.723,-0.2687,4.4555,1.4013,-6.7516,-5.5162,-1.4239,-2.193,-5.4136,-4.573,-0.2109,-1.0412
-5.2662,-1.6619,-0.165,0.8795,-0.723,-0.2687,4.4555,1.4013,-6.7516,-5.5162,-1.4239,-2.193,-5.4136,-4.573,-0.2109,-1.0412
-5.2812,-1.6403,-0.1757,0.8753,-0.7628,-0.2546,4.5158,1.3937,-6.8583,-5.4438,-1.4584,-2.1657,-5.3938,-4.5886,-0.2534,-1.0511
-5.2812,-1.6403,-0.1757,0.8753,-0.7628,-0.2546,4.5158,1.3937,-6.8583,-5.4438,-1.4584,-2.1657,-5.3938,-4.5886,-0.2534,-1.0511
-5.2962,-1.6187,-0.1901,0.8764,-0.7491,-0.2743,4.5397,1.3991,-6.8583,-5.4438,-1.4789,-2.1584,-5.366,-4.6027,-0.2716,-1.0553
-5.2962,-1.6187,-0.1901,0.8764,-0.7491,-0.2743,4.5397,1.3991,-6.8583,-5.4438,-1.4789,-2.1584,-5.366,-4.6027,-0.2716,-1.0553
-5.3426,-1.6186,-0.1972,0.8669,-0.7882,-0.2828,4.4064,1.4324,-6.8903,-5.3976,-1.4859,-2.1484,-5.3383,-4.6039,-0.2502,-1.0558
-5.3426,-1.6186,-0.1972,0.8669,-0.7882,-0.2828,4.4064,1.4324,-6.8903,-5.3976,-1.4859,-2.1484,-5.3383,-4.6039,-0.2502,-1.0558
-5.3426,-1.6186,-0.1647,0.8594,-0.7814,-0.2926,4.3701,1.4452,-6.8903,-5.3976,-1.4792,-2.1357,-5.3145,-4.5863,-0.2049,-1.0398
-5.3426,-1.6186,-0.1647,0.8594,-0.7814,-0.2926,4.3701,1.4452,-6.8903,-5.3976,-1.4792,-2.1357,-5.3145,-4.5863,-0.2049,-1.0398
-5.3037,-1.6078,-0.1218,0.8763,-0.7423,-0.2842,4.3701,1.4452,-6.6655,-5.477,-1.4314,-2.1147,-5.2627,-4.5699,-0.0979,-1.0205
-5.3037,-1.6078,-0.1218,0.8763,-0.7423,-0.2842,4.3701,1.4452,-6.6655,-5.477,-1.4314,-2.1147,-5.2627,-4.5699,-0.0979,-1.0205
-5.3037,-1.6078,-0.1218,0.8763,-0.7423,-0.2842,4.3701,1.4452,-6.6655,-5.477,-1.4314,-2.1147,-5.2627,-4.5699,-0.0979,-1.0205
-5.2311,-1.6007,-0.0679,0.8974,-0.703,-0.2757,4.4428,1.4195,-6.5466,-5.484,-1.4042,-2.0863,-5.2188,-4.555,0.0351,-1.0065
-5.2311,-1.6007,-0.0679,0.8974,-0.703,-0.2757,4.4428,1.4195,-6.5466,-5.484,-1.4042,-2.0863,-5.2188,-4.555,0.0351,-1.0065
-5.1808,-1.561,0.0061,0.9195,-0.6104,-0.2787,4.527,1.4173,-6.4269,-5.4912,-1.3421,-2.0854,-5.1707,-4.5458,0.1787,-0.996
-5.1808,-1.561,0.0061,0.9195,-0.6104,-0.2787,4.527,1.4173,-6.4269,-5.4912,-1.3421,-2.0854,-5.1707,-4.5458,0.1787,-0.996
-5.1019,-1.5393,0.0788,0.9342,-0.4972,-0.2888,4.6116,1.4151,-6.4478,-5.378,-1.266,-2.0818,-5.1305,-4.5382,0.2886,-0.9769
-5.1019,-1.5393,0.0788,0.9342,-0.4972,-0.2888,4.6116,1.4151,-6.4478,-5.378,-1.266,-2.0818,-5.1305,-4.5382,0.2886,-0.9769
-5.0547,-1.5394,0.1245,0.9383,-0.4031,-0.3146,4.6243,1.3968,-6.5567,-5.3041,-1.2382,-2.0763,-5.1023,-4.5394,0.3706,-0.9586
-5.0547,-1.5394,0.1245,0.9383,-0.4031,-0.3146,4.6243,1.3968,-6.5567,-5.3041,-1.2382,-2.0763,-5.1023,-4.5394,0.3706,-0.9586
-5.0074,-1.5396,0.1666,0.9478,-0.363,-0.3063,4.6357,1.4204,-6.6112,-5.3909,-1.1893,-2.1013,-5.1143,-4.5351,0.3825,-0.9337
-5.0074,-1.5396,0.1666,0.9478,-0.363,-0.3063,4.6357,1.4204,-6.6112,-5.3909,-1.1893,-2.1013,-5.1143,-4.5351,0.3825,-0.9337
-4.9808,-1.5324,0.2071,0.9498,-0.35,-0.2809,4.6598,1.4257,-6.7299,-5.3842,-1.1403,-2.1262,-5.1385,-4.5266,0.3851,-0.9163
-4.8855,-1.5328,0.2439,0.9571,-0.3577,-0.2255,4.7323,1.4417,-6.6976,-5.4306,-1.1053,-2.1309,-5.1546,-4.5165,0.4007,-0.9072
-4.8855,-1.5328,0.2439,0.9571,-0.3577,-0.2255,4.7323,1.4417,-6.6976,-5.4306,-1.1053,-2.1309,-5.1546,-4.5165,0.4007,-0.9072
-4.7186,-1.5668,0.266,0.9656,-0.3586,-0.1798,4.9299,1.3998,-6.7299,-5.3842,-1.0914,-2.1052,-5.1425,-4.5208,0.4168,-0.9093
-4.7186,-1.5668,0.266,0.9656,-0.3586,-0.1798,4.9299,1.3998,-6.7299,-5.3842,-1.0914,-2.1052,-5.1425,-4.5208,0.4168,-0.9093
-4.7357,-1.519,0.2715,0.9677,-0.3521,-0.1669,5.0541,1.3838,-6.6976,-5.4306,-1.1336,-2.0673,-5.1425,-4.5208,0.4396,-0.921
-4.7357,-1.519,0.2715,0.9677,-0.3521,-0.1669,5.0541,1.3838,-6.6976,-5.4306,-1.1336,-2.0673,-5.1425,-4.5208,0.4396,-0.921
-4.7723,-1.4893,0.2697,0.9602,-0.3521,-0.1669,5.1166,1.3757,-6.6545,-5.4108,-1.1266,-2.0544,-5.1184,-4.5293,0.4269,-0.9238
-4.7723,-1.4893,0.2697,0.9602,-0.3521,-0.1669,5.1166,1.3757,-6.6545,-5.4108,-1.1266,-2.0544,-5.1184,-4.5293,0.4269,-0.9238
-4.8127,-1.5001,0.2606,0.9431,-0.4058,-0.1783,5.0038,1.4156,-6.5901,-5.5036,-1.1756,-2.0525,-5.1103,-4.5409,0.3821,-0.9226
-4.8127,-1.5001,0.2606,0.9431,-0.4058,-0.1783,5.0038,1.4156,-6.5901,-5.5036,-1.1756,-2.0525,-5.1103,-4.5409,0.3821,-0.9226
-4.8127,-1.5001,0.2606,0.9431,-0.4058,-0.1783,5.0038,1.4156,-6.5901,-5.5036,-1.1756,-2.0525,-5.1103,-4.5409,0.3821,-0.9226
-4.8396,-1.5073,0.2663,0.9248,-0.4325,-0.1839,4.916,1.4606,-6.5145,-5.5303,-1.1896,-2.0552,-5.1023,-4.5525,0.3408,-0.9263
-4.8664,-1.5146,0.2497,0.9184,-0.4389,-0.1967,4.8786,1.4738,-6.3947,-5.5377,-1.1894,-2.0783,-5.1224,-4.5497,0.3126,-0.9382
-4.8875,-1.5071,0.2257,0.9229,-0.4523,-0.1996,4.8657,1.4923,-6.2096,-5.638,-1.2173,-2.0837,-5.1506,-4.5485,0.2845,-0.9501
-4.8875,-1.5071,0.2257,0.9229,-0.4523,-0.1996,4.8657,1.4923,-6.2096,-5.638,-1.2173,-2.0837,-5.1506,-4.5485,0.2845,-0.9501
-4.9085,-1.4997,0.2073,0.9294,-0.3914,-0.2211,4.8528,1.5109,-6.1525,-5.553,-1.2242,-2.0966,-5.1627,-4.5574,0.2848,-0.9611
-4.9085,-1.4997,0.2073,0.9294,-0.3914,-0.2211,4.8528,1.5109,-6.1525,-5.553,-1.2242,-2.0966,-5.1627,-4.5574,0.2848,-0.9611
-4.9085,-1.4997,0.2073,0.9294,-0.3914,-0.2211,4.8528,1.5109,-6.1525,-5.553,-1.2242,-2.0966,-5.1627,-4.5574,0.2848,-0.9611
-4.9219,-1.5033,0.211,0.924,-0.3373,-0.2327,4.8773,1.5163,-6.2944,-5.4322,-1.231,-2.1094,-5.1867,-4.5619,0.2756,-0.9687
-4.9219,-1.5033,0.211,0.924,-0.3373,-0.2327,4.8773,1.5163,-6.2944,-5.4322,-1.231,-2.1094,-5.1867,-4.5619,0.2756,-0.9687
-4.9352,-1.5069,0.2055,0.9219,-0.3239,-0.2299,4.9148,1.503,-6.4916,-5.3979,-1.2379,-2.1222,-5.2148,-4.5607,0.2597,-0.9667
-4.9276,-1.518,0.1962,0.9252,-0.3243,-0.207,4.9769,1.4951,-6.6222,-5.4573,-1.2169,-2.1525,-5.2468,-4.5668,0.228,-0.9628
-4.9276,-1.518,0.1962,0.9252,-0.3243,-0.207,4.9769,1.4951,-6.6222,-5.4573,-1.2169,-2.1525,-5.2468,-4.5668,0.228,-0.9628
-4.9276,-1.518,0.1962,0.9252,-0.3243,-0.207,4.9769,1.4951,-6.6222,-5.4573,-1.2169,-2.1525,-5.2468,-4.5668,0.228,-0.9628
-4.8855,-1.5328,0.187,0.9284,-0.3452,-0.177,5.0016,1.5005,-6.8156,-5.424,-1.203,-2.1726,-5.2587,-4.5757,0.2154,-0.9656
-4.8855,-1.5328,0.187,0.9284,-0.3452,-0.177,5.0016,1.5005,-6.8156,-5.424,-1.203,-2.1726,-5.2587,-4.5757,0.2154,-0.9656
-4.8702,-1.5548,0.1576,0.9307,-0.3656,-0.1698,5.0393,1.4872,-6.8903,-5.3976,-1.2308,-2.1552,-5.2667,-4.5772,0.2029,-0.9684
-4.8702,-1.5548,0.1576,0.9307,-0.3656,-0.1698,5.0393,1.4872,-6.8903,-5.3976,-1.2308,-2.1552,-5.2667,-4.5772,0.2029,-0.9684
-4.8702,-1.5548,0.1576,0.9307,-0.3656,-0.1698,5.0393,1.4872,-6.8903,-5.3976,-1.2308,-2.1552,-5.2667,-4.5772,0.2029,-0.9684
-4.8702,-1.5548,0.1412,0.9244,-0.3516,-0.1898,5.077,1.4739,-6.8903,-5.3976,-1.2378,-2.1451,-5.2707,-4.5714,0.2033,-0.9794
-4.918,-1.5546,0.123,0.9105,-0.4122,-0.1911,4.964,1.5138,-6.7836,-5.4702,-1.2795,-2.1304,-5.2428,-4.5856,0.1879,-0.9884
-4.918,-1.5546,0.123,0.9105,-0.4122,-0.1911,4.964,1.5138,-6.7836,-5.4702,-1.2795,-2.1304,-5.2428,-4.5856,0.1879,-0.9884
-4.918,-1.5546,0.123,0.9105,-0.4122,-0.1911,4.964,1.5138,-6.7836,-5.4702,-1.2795,-2.1304,-5.2428,-4.5856,0.1879,-0.9884
-4.958,-1.5654,0.114,0.8935,-0.4726,-0.1924,4.8773,1.5163,-6.7944,-5.5358,-1.3072,-2.1358,-5.2228,-4.6014,0.1629,-0.9941
-5.0054,-1.5651,0.0939,0.8925,-0.4992,-0.1981,4.8155,1.5241,-6.7197,-5.5622,-1.3348,-2.1412,-5.2188,-4.5941,0.1442,-0.9983
-5.0395,-1.5614,0.0793,0.8937,-0.5459,-0.1966,4.804,1.5001,-6.5696,-5.6152,-1.3623,-2.1467,-5.2388,-4.5784,0.1351,-1.0059
-5.0395,-1.5614,0.0793,0.8937,-0.5459,-0.1966,4.804,1.5001,-6.5696,-5.6152,-1.3623,-2.1467,-5.2388,-4.5784,0.1351,-1.0059
-5.0395,-1.5614,0.0793,0.8937,-0.5459,-0.1966,4.804,1.5001,-6.5696,-5.6152,-1.3623,-2.1467,-5.2388,-4.5784,0.1351,-1.0059
-5.0527,-1.565,0.061,0.9001,-0.5459,-0.1966,4.7668,1.5133,-6.3746,-5.6494,-1.3693,-2.1366,-5.2388,-4.5653,0.148,-1.014
-5.0527,-1.565,0.061,0.9001,-0.5459,-0.1966,4.7668,1.5133,-6.3746,-5.6494,-1.3693,-2.1366,-5.2388,-4.5653,0.148,-1.014
-5.0527,-1.565,0.0518,0.9034,-0.5189,-0.2137,4.7668,1.5133,-6.3947,-5.5377,-1.3763,-2.1266,-5.2428,-4.5596,0.1513,-1.0188
-5.0527,-1.565,0.0518,0.9034,-0.5189,-0.2137,4.7668,1.5133,-6.3947,-5.5377,-1.3763,-2.1266,-5.2428,-4.5596,0.1513,-1.0188
-5.066,-1.5686,0.0264,0.9003,-0.5252,-0.2265,4.7425,1.5079,-6.4708,-5.5108,-1.3968,-2.1421,-5.2667,-4.5641,0.1198,-1.0149
-5.066,-1.5686,0.0264,0.9003,-0.5252,-0.2265,4.7425,1.5079,-6.4708,-5.5108,-1.3968,-2.1421,-5.2667,-4.5641,0.1198,-1.0149
-5.0376,-1.5868,0.0064,0.8993,-0.5252,-0.2265,4.7425,1.5079,-6.5901,-5.5036,-1.3622,-2.1694,-5.2906,-4.5687,0.0726,-1.009
-5.0376,-1.5868,0.0064,0.8993,-0.5252,-0.2265,4.7425,1.5079,-6.5901,-5.5036,-1.3622,-2.1694,-5.2906,-4.5687,0.0726,-1.009
-5.0092,-1.6051,-0.0136,0.8983,-0.5454,-0.2193,4.7553,1.4894,-6.7086,-5.4966,-1.362,-2.1922,-5.3105,-4.5791,0.0322,-1.0127
-5.0092,-1.6051,-0.0136,0.8983,-0.5454,-0.2193,4.7553,1.4894,-6.7086,-5.4966,-1.362,-2.1922,-5.3105,-4.5791,0.0322,-1.0127
-5.0092,-1.6051,-0.0136,0.8983,-0.5454,-0.2193,4.7553,1.4894,-6.7086,-5.4966,-1.362,-2.1922,-5.3105,-4.5791,0.0322,-1.0127
-5.0168,-1.5942,-0.0244,0.894,-0.5586,-0.2222,4.8425,1.4446,-6.7516,-5.5162,-1.4034,-2.1776,-5.3343,-4.5836,-0.0048,-1.0212
-5.0395,-1.5614,-0.0353,0.8898,-0.565,-0.2349,4.8798,1.4314,-6.8903,-5.3976,-1.4447,-2.163,-5.3463,-4.5794,-0.02,-1.0301
-5.0395,-1.5614,-0.0353,0.8898,-0.565,-0.2349,4.8798,1.4314,-6.8903,-5.3976,-1.4447,-2.163,-5.3463,-4.5794,-0.02,-1.0301
-5.1019,-1.5393,-0.0424,0.8803,-0.5714,-0.2476,4.8425,1.4446,-7.007,-5.3912,-1.472,-2.1684,-5.3462,-4.5924,-0.0602,-1.0338
-5.1621,-1.5428,-0.033,0.8569,-0.6173,-0.2688,4.7566,1.4471,-7.007,-5.3912,-1.4445,-2.1857,-5.3343,-4.5966,-0.0847,-1.0395
-5.1621,-1.5428,-0.033,0.8569,-0.6173,-0.2688,4.7566,1.4471,-7.007,-5.3912,-1.4445,-2.1857,-5.3343,-4.5966,-0.0847,-1.0395
-5.1621,-1.5428,-0.033,0.8569,-0.6173,-0.2688,4.7566,1.4471,-7.007,-5.3912,-1.4445,-2.1857,-5.3343,-4.5966,-0.0847,-1.0395
-5.2145,-1.5573,-0.0493,0.8506,-0.6568,-0.2772,4.6712,1.4495,-7.007,-5.3912,-1.4376,-2.1956,-5.3264,-4.5951,-0.1092,-1.0451
-5.2145,-1.5573,-0.0493,0.8506,-0.6568,-0.2772,4.6712,1.4495,-7.007,-5.3912,-1.4376,-2.1956,-5.3264,-4.5951,-0.1092,-1.0451
-5.2331,-1.5754,-0.0765,0.8602,-0.6899,-0.2729,4.647,1.4441,-6.8583,-5.4438,-1.4582,-2.1884,-5.3264,-4.5821,-0.1304,-1.0554
-5.2331,-1.5754,-0.0765,0.8602,-0.6899,-0.2729,4.647,1.4441,-6.8583,-5.4438,-1.4582,-2.1884,-5.3264,-4.5821,-0.1304,-1.0554
-5.2517,-1.5935,-0.1091,0.8677,-0.7093,-0.2884,4.5989,1.4334,-6.6335,-5.5232,-1.4857,-2.1711,-5.3304,-4.5764,-0.1548,-1.0611
-5.2517,-1.5935,-0.1091,0.8677,-0.7093,-0.2884,4.5989,1.4334,-6.6335,-5.5232,-1.4857,-2.1711,-5.3304,-4.5764,-0.1548,-1.0611
-5.2983,-1.5934,-0.1433,0.8678,-0.6888,-0.3179,4.5509,1.4227,-6.6222,-5.4573,-1.5132,-2.1539,-5.3264,-4.5691,-0.1511,-1.0766
-5.2983,-1.5934,-0.1433,0.8678,-0.6888,-0.3179,4.5509,1.4227,-6.6222,-5.4573,-1.5132,-2.1539,-5.3264,-4.5691,-0.1511,-1.0766
-5.3037,-1.6078,-0.1594,0.8615,-0.6689,-0.325,4.5143,1.4356,-6.6545,-5.4108,-1.5473,-2.1493,-5.3224,-4.5748,-0.1694,-1.0808
-5.3037,-1.6078,-0.1594,0.8615,-0.6689,-0.325,4.5143,1.4356,-6.6545,-5.4108,-1.5473,-2.1493,-5.3224,-4.5748,-0.1694,-1.0808
-5.3167,-1.6114,-0.1701,0.8573,-0.6757,-0.3151,4.4904,1.4302,-6.8477,-5.3776,-1.5676,-2.1648,-5.3463,-4.5794,-0.2096,-1.0737
-5.3167,-1.6114,-0.1701,0.8573,-0.6757,-0.3151,4.4904,1.4302,-6.8477,-5.3776,-1.5676,-2.1648,-5.3463,-4.5794,-0.2096,-1.0737
-5.2552,-1.6332,-0.1503,0.8583,-0.6831,-0.2828,4.5382,1.441,-6.9751,-5.4373,-1.5809,-2.1901,-5.374,-4.5783,-0.2189,-1.0704
-5.2552,-1.6332,-0.1503,0.8583,-0.6831,-0.2828,4.5382,1.441,-6.9751,-5.4373,-1.5809,-2.1901,-5.374,-4.5783,-0.2189,-1.0704
-5.1673,-1.6478,-0.1108,0.8603,-0.6636,-0.2673,4.6357,1.4204,-6.9432,-5.4832,-1.5742,-2.1775,-5.3542,-4.581,-0.1796,-1.0558
-5.1673,-1.6478,-0.1108,0.8603,-0.6636,-0.2673,4.6357,1.4204,-6.9432,-5.4832,-1.5742,-2.1775,-5.3542,-4.581,-0.1796,-1.0558
-5.1148,-1.6336,-0.0549,0.8687,-0.631,-0.249,4.7949,1.3919,-6.9432,-5.4832,-1.5609,-2.1521,-5.3105,-4.5791,-0.0847,-1.0395
-5.1148,-1.6336,-0.0549,0.8687,-0.631,-0.249,4.7949,1.3919,-6.9432,-5.4832,-1.5609,-2.1521,-5.3105,-4.5791,-0.0847,-1.0395
-5.064,-1.594,0.0157,0.8758,-0.5714,-0.2476,4.9427,1.3813,-6.8263,-5.4898,-1.4998,-2.1284,-5.2547,-4.5684,0.0388,-1.0222
-5.064,-1.594,0.0157,0.8758,-0.5714,-0.2476,4.9427,1.3813,-6.8263,-5.4898,-1.4998,-2.1284,-5.2547,-4.5684,0.0388,-1.0222
-5.0054,-1.5651,0.0793,0.8937,-0.5114,-0.2463,4.9791,1.4103,-6.7836,-5.4702,-1.4451,-2.1174,-5.1867,-4.5619,0.1567,-0.9955
-5.0054,-1.5651,0.0793,0.8937,-0.5114,-0.2463,4.9791,1.4103,-6.7836,-5.4702,-1.4451,-2.1174,-5.1867,-4.5619,0.1567,-0.9955
-4.9656,-1.5544,0.1359,0.9019,-0.478,-0.2507,4.9277,1.4845,-6.6976,-5.4306,-1.3627,-2.101,-5.1023,-4.5525,0.2593,-0.9557
-4.9656,-1.5544,0.1359,0.9019,-0.478,-0.2507,4.9277,1.4845,-6.6976,-5.4306,-1.3627,-2.101,-5.1023,-4.5525,0.2593,-0.9557
-4.9656,-1.5544,0.1359,0.9019,-0.478,-0.2507,4.9277,1.4845,-6.6976,-5.4306,-1.3627,-2.101,-5.1023,-4.5525,0.2593,-0.9557
-4.9313,-1.5582,0.1854,0.9006,-0.4849,-0.2407,4.8644,1.5349,-6.6545,-5.4108,-1.2658,-2.1048,-5.0336,-4.5461,0.3441,-0.9311
-4.876,-1.5694,0.2184,0.9133,-0.4582,-0.2351,4.8644,1.5349,-6.4592,-5.4446,-1.1962,-2.1141,-5.0132,-4.5226,0.4138,-0.9155
-4.876,-1.5694,0.2184,0.9133,-0.4582,-0.2351,4.8644,1.5349,-6.4592,-5.4446,-1.1962,-2.1141,-5.0132,-4.5226,0.4138,-0.9155
-4.8779,-1.5438,0.2312,0.925,-0.438,-0.2423,4.8644,1.5349,-6.2619,-5.4791,-1.1683,-2.1087,-5.0051,-4.5079,0.4617,-0.9105
-4.8779,-1.5438,0.2312,0.925,-0.438,-0.2423,4.8644,1.5349,-6.2619,-5.4791,-1.1683,-2.1087,-5.0051,-4.5079,0.4617,-0.9105
-4.8779,-1.5438,0.2312,0.925,-0.438,-0.2423,4.8644,1.5349,-6.2619,-5.4791,-1.1683,-2.1087,-5.0051,-4.5079,0.4617,-0.9105
-4.8377,-1.533,0.2588,0.9356,-0.3503,-0.2582,4.8889,1.5403,-6.1525,-5.553,-1.1544,-2.1059,-5.0091,-4.5021,0.4939,-0.9145
-4.8377,-1.533,0.2588,0.9356,-0.3503,-0.2582,4.8889,1.5403,-6.1525,-5.553,-1.1544,-2.1059,-5.0091,-4.5021,0.4939,-0.9145
-4.8377,-1.533,0.2588,0.9356,-0.3503,-0.2582,4.8889,1.5403,-6.1525,-5.553,-1.1544,-2.1059,-5.0091,-4.5021,0.4939,-0.9145
-4.8377,-1.533,0.2756,0.9215,-0.2962,-0.2698,4.9019,1.5217,-6.271,-5.298,-1.1124,-2.0978,-5.005,-4.4947,0.5164,-0.9151
-4.8377,-1.533,0.2756,0.9215,-0.2962,-0.2698,4.9019,1.5217,-6.271,-5.298,-1.1124,-2.0978,-5.005,-4.4947,0.5164,-0.9151
-4.8511,-1.5366,0.2553,0.9206,-0.3304,-0.2426,4.8902,1.4977,-6.4365,-5.3109,-1.1194,-2.1106,-5.0254,-4.5051,0.4617,-0.9105
-4.8147,-1.5661,0.2257,0.9229,-0.3508,-0.2354,4.9031,1.4791,-6.5241,-5.351,-1.1194,-2.1336,-5.0578,-4.5113,0.4172,-0.9204
-4.8147,-1.5661,0.2257,0.9229,-0.3508,-0.2354,4.9031,1.4791,-6.5241,-5.351,-1.1194,-2.1336,-5.0578,-4.5113,0.4172,-0.9204
-4.8147,-1.5661,0.2257,0.9229,-0.3508,-0.2354,4.9031,1.4791,-6.5241,-5.351,-1.1194,-2.1336,-5.0578,-4.5113,0.4172,-0.9204
-4.8071,-1.5772,0.2092,0.9165,-0.3642,-0.2382,4.9909,1.4341,-6.5677,-5.371,-1.1403,-2.1262,-5.0699,-4.5201,0.3728,-0.9303
-4.8071,-1.5772,0.2092,0.9165,-0.3642,-0.2382,4.9909,1.4341,-6.5677,-5.371,-1.1403,-2.1262,-5.0699,-4.5201,0.3728,-0.9303
-4.8416,-1.5733,0.1835,0.9134,-0.3776,-0.241,5.0038,1.4156,-6.5677,-5.371,-1.1544,-2.1059,-5.082,-4.5159,0.3572,-0.9393
-4.8416,-1.5733,0.1835,0.9134,-0.3776,-0.241,5.0038,1.4156,-6.5677,-5.371,-1.1544,-2.1059,-5.082,-4.5159,0.3572,-0.9393
-4.9104,-1.5656,0.156,0.9029,-0.4108,-0.2594,4.9416,1.4235,-6.5788,-5.4375,-1.2032,-2.104,-5.0861,-4.5232,0.3386,-0.9546
-4.9104,-1.5656,0.156,0.9029,-0.4108,-0.2594,4.9416,1.4235,-6.5788,-5.4375,-1.2032,-2.104,-5.0861,-4.5232,0.3386,-0.9546
-4.9845,-1.5725,0.1378,0.8891,-0.4711,-0.2606,4.8553,1.4261,-6.6545,-5.4108,-1.2171,-2.1067,-5.0578,-4.5376,0.326,-0.9574
-4.9845,-1.5725,0.1378,0.8891,-0.4711,-0.2606,4.8553,1.4261,-6.6545,-5.4108,-1.2171,-2.1067,-5.0578,-4.5376,0.326,-0.9574
-4.9845,-1.5725,0.1507,0.8805,-0.4913,-0.2535,4.8553,1.4261,-6.6545,-5.4108,-1.2101,-2.1168,-5.0457,-4.5418,0.3134,-0.9603
-4.9845,-1.5725,0.1507,0.8805,-0.4913,-0.2535,4.8553,1.4261,-6.6545,-5.4108,-1.2101,-2.1168,-5.0457,-4.5418,0.3134,-0.9603
-4.9978,-1.5761,0.1599,0.8773,-0.4977,-0.2662,4.8553,1.4261,-6.5788,-5.4375,-1.231,-2.1094,-5.0578,-4.5244,0.31,-0.9555
-4.9978,-1.5761,0.1599,0.8773,-0.4977,-0.2662,4.8553,1.4261,-6.5788,-5.4375,-1.231,-2.1094,-5.0578,-4.5244,0.31,-0.9555
-5.0035,-1.5906,0.1415,0.8838,-0.5174,-0.2817,4.8437,1.4024,-6.3506,-5.5182,-1.231,-2.1094,-5.074,-4.5143,0.3197,-0.9589
-5.0035,-1.5906,0.1415,0.8838,-0.5174,-0.2817,4.8437,1.4024,-6.3506,-5.5182,-1.231,-2.1094,-5.074,-4.5143,0.3197,-0.9589
-5.0035,-1.5906,0.1415,0.8838,-0.5174,-0.2817,4.8437,1.4024,-6.3506,-5.5182,-1.231,-2.1094,-5.074,-4.5143,0.3197,-0.9589
-5.0035,-1.5906,0.1378,0.8891,-0.4972,-0.2888,4.8309,1.4208,-6.3829,-5.4716,-1.231,-2.1094,-5.0861,-4.51,0.3326,-0.9671
-5.0035,-1.5906,0.1378,0.8891,-0.4972,-0.2888,4.8309,1.4208,-6.3829,-5.4716,-1.231,-2.1094,-5.0861,-4.51,0.3326,-0.9671
-4.9826,-1.598,0.1323,0.887,-0.4432,-0.3228,4.8065,1.4155,-6.5021,-5.2163,-1.1823,-2.1114,-5.0901,-4.5042,0.3326,-0.9671
-4.9826,-1.598,0.1323,0.887,-0.4432,-0.3228,4.8065,1.4155,-6.5021,-5.2163,-1.1823,-2.1114,-5.0901,-4.5042,0.3326,-0.9671
-4.9694,-1.5944,0.1195,0.8956,-0.4638,-0.2931,4.8065,1.4155,-6.5458,-5.2366,-1.1473,-2.139,-5.1022,-4.5131,0.2878,-0.9549
-4.9694,-1.5944,0.1195,0.8956,-0.4638,-0.2931,4.8065,1.4155,-6.5458,-5.2366,-1.1473,-2.139,-5.1022,-4.5131,0.2878,-0.9549
-4.9694,-1.5944,0.1195,0.8956,-0.4638,-0.2931,4.8065,1.4155,-6.5458,-5.2366,-1.1473,-2.139,-5.1022,-4.5131,0.2878,-0.9549
-4.9142,-1.6056,0.1103,0.8989,-0.4711,-0.2606,4.8065,1.4155,-6.5241,-5.351,-1.1473,-2.1619,-5.1345,-4.5192,0.2526,-0.9461
-4.9142,-1.6056,0.1103,0.8989,-0.4711,-0.2606,4.8065,1.4155,-6.5241,-5.351,-1.1473,-2.1619,-5.1345,-4.5192,0.2526,-0.9461
-4.8723,-1.6204,0.1048,0.8967,-0.4982,-0.2435,4.8065,1.4155,-6.4916,-5.3979,-1.1542,-2.1746,-5.1506,-4.5223,0.2276,-0.9517
-4.8723,-1.6204,0.1048,0.8967,-0.4982,-0.2435,4.8065,1.4155,-6.4916,-5.3979,-1.1542,-2.1746,-5.1506,-4.5223,0.2276,-0.9517
-4.8589,-1.6169,0.0994,0.8946,-0.4982,-0.2435,4.8437,1.4024,-6.4916,-5.3979,-1.1682,-2.1545,-5.1465,-4.5281,0.2088,-0.956
-4.8589,-1.6169,0.0994,0.8946,-0.4982,-0.2435,4.8437,1.4024,-6.4916,-5.3979,-1.1682,-2.1545,-5.1465,-4.5281,0.2088,-0.956
-4.9027,-1.5766,0.0976,0.8872,-0.4982,-0.2435,4.9682,1.3445,-6.5241,-5.351,-1.224,-2.1195,-5.1707,-4.5196,0.1838,-0.9617
-4.9599,-1.5398,0.083,0.8883,-0.5046,-0.2563,4.9682,1.3445,-6.5567,-5.3041,-1.2171,-2.1067,-5.1626,-4.518,0.165,-0.9659
-4.9599,-1.5398,0.083,0.8883,-0.5046,-0.2563,4.9682,1.3445,-6.5567,-5.3041,-1.2171,-2.1067,-5.1626,-4.518,0.165,-0.9659
-4.9599,-1.5398,0.083,0.8883,-0.5046,-0.2563,4.9682,1.3445,-6.5567,-5.3041,-1.2171,-2.1067,-5.1626,-4.518,0.165,-0.9659
-5.0206,-1.5432,0.0649,0.8746,-0.5507,-0.2774,4.8692,1.3656,-6.6002,-5.3242,-1.2519,-2.102,-5.1546,-4.5296,0.1372,-0.9778
-5.0206,-1.5432,0.0649,0.8746,-0.5507,-0.2774,4.8692,1.3656,-6.6002,-5.3242,-1.2519,-2.102,-5.1546,-4.5296,0.1372,-0.9778
-5.0206,-1.5432,0.0649,0.8746,-0.5507,-0.2774,4.8692,1.3656,-6.6002,-5.3242,-1.2519,-2.102,-5.1546,-4.5296,0.1372,-0.9778
-5.0943,-1.5503,0.0651,0.8544,-0.5836,-0.2956,4.7706,1.3866,-6.6002,-5.3242,-1.2449,-2.1121,-5.1626,-4.5312,0.0966,-0.9815
-5.0943,-1.5503,0.0651,0.8544,-0.5836,-0.2956,4.7706,1.3866,-6.6002,-5.3242,-1.2449,-2.1121,-5.1626,-4.5312,0.0966,-0.9815
-5.1131,-1.5684,0.0505,0.8555,-0.5968,-0.2984,4.7094,1.3943,-6.6436,-5.3442,-1.2727,-2.1176,-5.1747,-4.5269,0.0594,-0.9899
-5.1131,-1.5684,0.0505,0.8555,-0.5968,-0.2984,4.7094,1.3943,-6.6436,-5.3442,-1.2727,-2.1176,-5.1747,-4.5269,0.0594,-0.9899
-5.1131,-1.5684,0.0505,0.8555,-0.5968,-0.2984,4.7094,1.3943,-6.6436,-5.3442,-1.2727,-2.1176,-5.1747,-4.5269,0.0594,-0.9899
-5.145,-1.5901,0.014,0.8684,-0.5831,-0.3181,4.6967,1.4127,-6.4592,-5.4446,-1.3419,-2.1083,-5.2108,-4.5273,0.0136,-1.0169
-5.145,-1.5901,0.014,0.8684,-0.5831,-0.3181,4.6967,1.4127,-6.4592,-5.4446,-1.3419,-2.1083,-5.2108,-4.5273,0.0136,-1.0169
-5.1506,-1.6046,-0.0151,0.8706,-0.5494,-0.3449,4.6229,1.4387,-6.5677,-5.371,-1.3557,-2.1111,-5.2028,-4.5388,0.0018,-1.0307
-5.1506,-1.6046,-0.0151,0.8706,-0.5494,-0.3449,4.6229,1.4387,-6.5677,-5.371,-1.3557,-2.1111,-5.2028,-4.5388,0.0018,-1.0307
-5.1561,-1.619,-0.0404,0.8675,-0.5694,-0.3378,4.5989,1.4334,-6.6545,-5.4108,-1.397,-2.1193,-5.2228,-4.5492,-0.0385,-1.0343
-5.1561,-1.619,-0.0404,0.8675,-0.5694,-0.3378,4.5989,1.4334,-6.6545,-5.4108,-1.397,-2.1193,-5.2228,-4.5492,-0.0385,-1.0343
-5.1486,-1.6299,-0.0603,0.8666,-0.5899,-0.3083,4.6116,1.4151,-6.8263,-5.4898,-1.4105,-2.1448,-5.2547,-4.5553,-0.0847,-1.0395
-5.079,-1.6627,-0.0748,0.8677,-0.6036,-0.2885,4.6116,1.4151,-6.9114,-5.5291,-1.431,-2.1603,-5.2787,-4.5599,-0.1247,-1.0432
-5.079,-1.6627,-0.0748,0.8677,-0.6036,-0.2885,4.6116,1.4151,-6.9114,-5.5291,-1.431,-2.1603,-5.2787,-4.5599,-0.1247,-1.0432
-5.079,-1.6627,-0.0748,0.8677,-0.6036,-0.2885,4.6116,1.4151,-6.9114,-5.5291,-1.431,-2.1603,-5.2787,-4.5599,-0.1247,-1.0432
-5.0847,-1.677,-0.0963,0.8592,-0.6368,-0.2843,4.6979,1.3708,-6.996,-5.5681,-1.4653,-2.1557,-5.2986,-4.5703,-0.1614,-1.0516
-5.0847,-1.677,-0.0963,0.8592,-0.6368,-0.2843,4.6979,1.3708,-6.996,-5.5681,-1.4653,-2.1557,-5.2986,-4.5703,-0.1614,-1.0516
-5.1129,-1.6589,-0.1252,0.8614,-0.6568,-0.2772,4.8331,1.3368,-6.996,-5.5681,-1.4928,-2.1384,-5.3026,-4.5775,-0.1792,-1.0667
-5.1129,-1.6589,-0.1252,0.8614,-0.6568,-0.2772,4.8331,1.3368,-6.996,-5.5681,-1.4928,-2.1384,-5.3026,-4.5775,-0.1792,-1.0667
-5.1598,-1.6587,-0.152,0.8509,-0.6894,-0.2954,4.8331,1.3368,-7.0276,-5.5225,-1.534,-2.1239,-5.3065,-4.5848,-0.2189,-1.0704
-5.1598,-1.6587,-0.152,0.8509,-0.6894,-0.2954,4.8331,1.3368,-7.0276,-5.5225,-1.534,-2.1239,-5.3065,-4.5848,-0.2189,-1.0704
-5.2066,-1.6585,-0.1518,0.8309,-0.7417,-0.3066,4.7348,1.3577,-7.1012,-5.4965,-1.5476,-2.1266,-5.2946,-4.602,-0.2553,-1.0788
-5.2066,-1.6585,-0.1518,0.8309,-0.7417,-0.3066,4.7348,1.3577,-7.1012,-5.4965,-1.5476,-2.1266,-5.2946,-4.602,-0.2553,-1.0788
-5.2327,-1.6656,-0.1588,0.8214,-0.7678,-0.3122,4.6979,1.3708,-7.1114,-5.5616,-1.5678,-2.1421,-5.3065,-4.6108,-0.2944,-1.0933
-5.2532,-1.6584,-0.1678,0.8246,-0.7809,-0.315,4.6738,1.3655,-6.9644,-5.6136,-1.5949,-2.1476,-5.3224,-4.6008,-0.3157,-1.0929
-5.2532,-1.6584,-0.1678,0.8246,-0.7809,-0.315,4.6738,1.3655,-6.9644,-5.6136,-1.5949,-2.1476,-5.3224,-4.6008,-0.3157,-1.0929
-5.2532,-1.6584,-0.1678,0.8246,-0.7809,-0.315,4.6738,1.3655,-6.9644,-5.6136,-1.5949,-2.1476,-5.3224,-4.6008,-0.3157,-1.0929
-5.2607,-1.6475,-0.1554,0.8362,-0.748,-0.3193,4.6243,1.3968,-6.7423,-5.6921,-1.6085,-2.1503,-5.3383,-4.5909,-0.3004,-1.0948
-5.2607,-1.6475,-0.1554,0.8362,-0.748,-0.3193,4.6243,1.3968,-6.7423,-5.6921,-1.6085,-2.1503,-5.3383,-4.5909,-0.3004,-1.0948
-5.2085,-1.6333,-0.1034,0.8497,-0.6558,-0.3222,4.6725,1.4074,-6.6879,-5.608,-1.5949,-2.1476,-5.3145,-4.5733,-0.2306,-1.084
-5.2085,-1.6333,-0.1034,0.8497,-0.6558,-0.3222,4.6725,1.4074,-6.6879,-5.608,-1.5949,-2.1476,-5.3145,-4.5733,-0.2306,-1.084
-5.2085,-1.6333,-0.1034,0.8497,-0.6558,-0.3222,4.6725,1.4074,-6.6879,-5.608,-1.5949,-2.1476,-5.3145,-4.5733,-0.2306,-1.084
-5.1692,-1.6226,-0.0475,0.858,-0.5899,-0.3083,4.6967,1.4127,-6.6767,-5.5427,-1.5404,-2.1593,-5.2866,-4.5615,-0.1365,-1.0568
-5.1692,-1.6226,-0.0475,0.858,-0.5899,-0.3083,4.6967,1.4127,-6.6767,-5.5427,-1.5404,-2.1593,-5.2866,-4.5615,-0.1365,-1.0568
-5.1692,-1.6226,-0.0475,0.858,-0.5899,-0.3083,4.6967,1.4127,-6.6767,-5.5427,-1.5404,-2.1593,-5.2866,-4.5615,-0.1365,-1.0568
-4.9883,-1.6125,0.0738,0.8915,-0.4844,-0.2634,4.8669,1.4499,-6.7407,-5.4504,-1.3346,-2.164,-5.2028,-4.5257,0.0813,-0.9905
-4.9883,-1.6125,0.0738,0.8915,-0.4844,-0.2634,4.8669,1.4499,-6.7407,-5.4504,-1.3346,-2.164,-5.2028,-4.5257,0.0813,-0.9905
-4.9351,-1.5982,0.1286,0.8924,-0.4444,-0.255,5.0038,1.4156,-6.5788,-5.4375,-1.2588,-2.1149,-5.1385,-4.5134,0.2063,-0.9732
-4.9351,-1.5982,0.1286,0.8924,-0.4444,-0.255,5.0038,1.4156,-6.5788,-5.4375,-1.2588,-2.1149,-5.1385,-4.5134,0.2063,-0.9732
-4.918,-1.5546,0.1652,0.8997,-0.3975,-0.2566,5.1037,1.3942,-6.4916,-5.3979,-1.1963,-2.0911,-5.0901,-4.5042,0.2845,-0.9501
-4.918,-1.5546,0.1652,0.8997,-0.3975,-0.2566,5.1037,1.3942,-6.4916,-5.3979,-1.1963,-2.0911,-5.0901,-4.5042,0.2845,-0.9501
-4.9046,-1.551,0.1799,0.8985,-0.3975,-0.2566,5.0532,1.4261,-6.4916,-5.3979,-1.1684,-2.0857,-5.0375,-4.514,0.3382,-0.9436
-4.9046,-1.551,0.1799,0.8985,-0.3975,-0.2566,5.0532,1.4261,-6.4916,-5.3979,-1.1684,-2.0857,-5.0375,-4.514,0.3382,-0.9436
-4.9313,-1.5582,0.1929,0.8899,-0.4311,-0.2522,4.978,1.4526,-6.4916,-5.3979,-1.1405,-2.0802,-4.993,-4.5254,0.3732,-0.9413
-4.937,-1.5728,0.2095,0.8759,-0.478,-0.2507,4.916,1.4606,-6.4592,-5.4446,-1.1265,-2.0775,-4.9605,-4.5325,0.3892,-0.9433
-4.937,-1.5728,0.2095,0.8759,-0.478,-0.2507,4.916,1.4606,-6.4592,-5.4446,-1.1265,-2.0775,-4.9605,-4.5325,0.3892,-0.9433
-4.937,-1.5728,0.2095,0.8759,-0.478,-0.2507,4.916,1.4606,-6.4592,-5.4446,-1.1265,-2.0775,-4.9605,-4.5325,0.3892,-0.9433
-4.9561,-1.5909,0.2077,0.8685,-0.4844,-0.2634,4.9043,1.4367,-6.4592,-5.4446,-1.1265,-2.0775,-4.9564,-4.5251,0.3989,-0.9468
-4.9561,-1.5909,0.2077,0.8685,-0.4844,-0.2634,4.9043,1.4367,-6.4592,-5.4446,-1.1265,-2.0775,-4.9564,-4.5251,0.3989,-0.9468
-4.9561,-1.5909,0.2077,0.8685,-0.4844,-0.2634,4.9043,1.4367,-6.4592,-5.4446,-1.1265,-2.0775,-4.9564,-4.5251,0.3989,-0.9468
-4.9351,-1.5982,0.2003,0.8792,-0.4642,-0.2705,4.9288,1.442,-6.2295,-5.5258,-1.1265,-2.0775,-4.9685,-4.5076,0.4022,-0.9516
-4.9351,-1.5982,0.2003,0.8792,-0.4642,-0.2705,4.9288,1.442,-6.2295,-5.5258,-1.1265,-2.0775,-4.9685,-4.5076,0.4022,-0.9516
-4.9485,-1.6018,0.1782,0.891,-0.4844,-0.2634,4.9288,1.442,-6.0429,-5.6269,-1.1545,-2.0829,-5.005,-4.4947,0.3929,-0.9592
-4.9618,-1.6054,0.1543,0.8954,-0.4573,-0.2805,4.9288,1.442,-5.9523,-5.5884,-1.1474,-2.0931,-5.0132,-4.4962,0.3899,-0.9655
-4.9959,-1.6016,0.1249,0.8977,-0.41,-0.3047,4.8786,1.4738,-6.1727,-5.4397,-1.1963,-2.0911,-5.0375,-4.5008,0.3743,-0.9745
-4.9959,-1.6016,0.1249,0.8977,-0.41,-0.3047,4.8786,1.4738,-6.1727,-5.4397,-1.1963,-2.0911,-5.0375,-4.5008,0.3743,-0.9745
-4.9959,-1.6016,0.1249,0.8977,-0.41,-0.3047,4.8786,1.4738,-6.1727,-5.4397,-1.1963,-2.0911,-5.0375,-4.5008,0.3743,-0.9745
-4.9883,-1.6125,0.1085,0.8914,-0.41,-0.3047,4.8914,1.4552,-6.2827,-5.3653,-1.1823,-2.1114,-5.0537,-4.5039,0.339,-0.9657
-4.9883,-1.6125,0.1085,0.8914,-0.41,-0.3047,4.8914,1.4552,-6.2827,-5.3653,-1.1823,-2.1114,-5.0537,-4.5039,0.339,-0.9657
-4.9675,-1.6199,0.1013,0.8818,-0.4238,-0.2848,4.8669,1.4499,-6.4592,-5.4446,-1.1821,-2.1572,-5.0982,-4.5189,0.2786,-0.9625
-4.9675,-1.6199,0.1013,0.8818,-0.4238,-0.2848,4.8669,1.4499,-6.4592,-5.4446,-1.1821,-2.1572,-5.0982,-4.5189,0.2786,-0.9625
-4.9675,-1.6199,0.1013,0.8818,-0.4238,-0.2848,4.8669,1.4499,-6.4592,-5.4446,-1.1821,-2.1572,-5.0982,-4.5189,0.2786,-0.9625
-4.9257,-1.6346,0.0996,0.8744,-0.4375,-0.265,4.9043,1.4367,-6.503,-5.4643,-1.1681,-2.2001,-5.1304,-4.525,0.2438,-0.9647
-4.9257,-1.6346,0.0996,0.8744,-0.4375,-0.265,4.9043,1.4367,-6.503,-5.4643,-1.1681,-2.2001,-5.1304,-4.525,0.2438,-0.9647
-4.9275,-1.6092,0.0923,0.8649,-0.478,-0.2507,5.0294,1.3786,-6.6112,-5.3909,-1.1751,-2.1673,-5.1345,-4.5324,0.2217,-0.9642
-4.9275,-1.6092,0.0923,0.8649,-0.478,-0.2507,5.0294,1.3786,-6.6112,-5.3909,-1.1751,-2.1673,-5.1345,-4.5324,0.2217,-0.9642
-4.9694,-1.5944,0.0906,0.8574,-0.4977,-0.2662,5.0294,1.3786,-6.5677,-5.371,-1.2031,-2.1269,-5.1063,-4.5336,0.2184,-0.9594
-4.9694,-1.5944,0.0906,0.8574,-0.4977,-0.2662,5.0294,1.3786,-6.5677,-5.371,-1.2031,-2.1269,-5.1063,-4.5336,0.2184,-0.9594
-4.9694,-1.5944,0.0906,0.8574,-0.4977,-0.2662,5.0294,1.3786,-6.5677,-5.371,-1.2031,-2.1269,-5.1063,-4.5336,0.2184,-0.9594
-5.0168,-1.5942,0.098,0.8468,-0.5375,-0.2746,4.9919,1.3918,-6.5241,-5.351,-1.1892,-2.1242,-5.0861,-4.5363,0.2313,-0.9676
-5.0168,-1.5942,0.098,0.8468,-0.5375,-0.2746,4.9919,1.3918,-6.5241,-5.351,-1.1892,-2.1242,-5.0861,-4.5363,0.2313,-0.9676
-5.0432,-1.6013,0.1054,0.8361,-0.564,-0.2802,4.9299,1.3998,-6.4478,-5.378,-1.1753,-2.1215,-5.07,-4.5333,0.2313,-0.9676
-5.0564,-1.6049,0.0888,0.85,-0.5841,-0.2731,4.8926,1.413,-6.2054,-5.3926,-1.1754,-2.0985,-5.0618,-4.5186,0.2313,-0.9676
-5.0564,-1.6049,0.0888,0.85,-0.5841,-0.2731,4.8926,1.413,-6.2054,-5.3926,-1.1754,-2.0985,-5.0618,-4.5186,0.2313,-0.9676
-5.0564,-1.6049,0.0888,0.85,-0.5841,-0.2731,4.8926,1.413,-6.2054,-5.3926,-1.1754,-2.0985,-5.0618,-4.5186,0.2313,-0.9676
-5.0621,-1.6194,0.0797,0.8532,-0.5703,-0.2928,4.8681,1.4077,-6.0952,-5.4671,-1.1963,-2.0911,-5.0659,-4.5128,0.2317,-0.9786
-5.0621,-1.6194,0.0797,0.8532,-0.5703,-0.2928,4.8681,1.4077,-6.0952,-5.4671,-1.1963,-2.0911,-5.0659,-4.5128,0.2317,-0.9786
-5.0753,-1.6229,0.0559,0.8576,-0.5366,-0.3197,4.7937,1.434,-6.0952,-5.4671,-1.2102,-2.0939,-5.0618,-4.5186,0.2417,-0.993
-5.0753,-1.6229,0.0559,0.8576,-0.5366,-0.3197,4.7937,1.434,-6.0952,-5.4671,-1.2102,-2.0939,-5.0618,-4.5186,0.2417,-0.993
-5.0753,-1.6229,0.0559,0.8576,-0.5366,-0.3197,4.7937,1.434,-6.0952,-5.4671,-1.2102,-2.0939,-5.0618,-4.5186,0.2417,-0.993
-5.0885,-1.6265,0.0414,0.8587,-0.5297,-0.3295,4.7822,1.4102,-6.25,-5.4124,-1.2519,-2.102,-5.074,-4.5275,0.2166,-0.9986
-5.0885,-1.6265,0.0414,0.8587,-0.5297,-0.3295,4.7822,1.4102,-6.25,-5.4124,-1.2519,-2.102,-5.074,-4.5275,0.2166,-0.9986
-5.0809,-1.6374,0.0396,0.8513,-0.5434,-0.3098,4.7579,1.4049,-6.4269,-5.4912,-1.2587,-2.1377,-5.1184,-4.5293,0.1629,-0.9941
-5.0526,-1.6556,0.0288,0.8471,-0.5503,-0.2999,4.7706,1.3866,-6.5901,-5.5036,-1.2586,-2.1606,-5.1345,-4.5324,0.1189,-0.993
-5.0244,-1.6738,0.0142,0.8482,-0.5571,-0.29,4.8447,1.3604,-6.6767,-5.5427,-1.2932,-2.1559,-5.1626,-4.5312,0.0974,-1.0034
-5.0244,-1.6738,0.0142,0.8482,-0.5571,-0.29,4.8447,1.3604,-6.6767,-5.5427,-1.2932,-2.1559,-5.1626,-4.5312,0.0974,-1.0034
-5.0244,-1.6738,0.0142,0.8482,-0.5571,-0.29,4.8447,1.3604,-6.6767,-5.5427,-1.2932,-2.1559,-5.1626,-4.5312,0.0974,-1.0034
-5.0187,-1.6594,0.0014,0.8568,-0.5772,-0.2829,4.9437,1.3393,-6.7516,-5.5162,-1.328,-2.1285,-5.1907,-4.53,0.0821,-1.0124
-5.0187,-1.6594,0.0014,0.8568,-0.5772,-0.2829,4.9437,1.3393,-6.7516,-5.5162,-1.328,-2.1285,-5.1907,-4.53,0.0821,-1.0124
-5.047,-1.6412,-0.0185,0.8558,-0.5904,-0.2857,4.9682,1.3445,-6.7836,-5.4702,-1.3627,-2.101,-5.1987,-4.5315,0.054,-1.0132
-5.047,-1.6412,-0.0185,0.8558,-0.5904,-0.2857,4.9682,1.3445,-6.7836,-5.4702,-1.3627,-2.101,-5.1987,-4.5315,0.054,-1.0132
-5.0734,-1.6483,-0.0311,0.8442,-0.63,-0.2941,4.9309,1.3577,-6.7516,-5.5162,-1.3695,-2.1138,-5.1787,-4.5473,0.0198,-1.0155
-5.0734,-1.6483,-0.0311,0.8442,-0.63,-0.2941,4.9309,1.3577,-6.7516,-5.5162,-1.3695,-2.1138,-5.1787,-4.5473,0.0198,-1.0155
-5.126,-1.6624,-0.049,0.8305,-0.6558,-0.3222,4.7833,1.3682,-6.7516,-5.5162,-1.3832,-2.1165,-5.1627,-4.5574,-0.0048,-1.0212
-5.1654,-1.6731,-0.0743,0.8275,-0.6888,-0.3179,4.7221,1.376,-6.7516,-5.5162,-1.39,-2.1293,-5.1867,-4.5489,-0.0262,-1.0315
-5.1654,-1.6731,-0.0743,0.8275,-0.6888,-0.3179,4.7221,1.376,-6.7516,-5.5162,-1.39,-2.1293,-5.1867,-4.5489,-0.0262,-1.0315
-5.2121,-1.6729,-0.0978,0.8318,-0.7218,-0.3137,4.6979,1.3708,-6.5261,-5.5959,-1.383,-2.1394,-5.2028,-4.5388,-0.0569,-1.0386
-5.2121,-1.6729,-0.0978,0.8318,-0.7218,-0.3137,4.6979,1.3708,-6.5261,-5.5959,-1.383,-2.1394,-5.2028,-4.5388,-0.0569,-1.0386
-5.2121,-1.6729,-0.0978,0.8318,-0.7218,-0.3137,4.6979,1.3708,-6.5261,-5.5959,-1.383,-2.1394,-5.2028,-4.5388,-0.0569,-1.0386
-5.2607,-1.6475,-0.1159,0.8382,-0.7417,-0.3066,4.6979,1.3708,-6.5261,-5.5959,-1.3898,-2.1521,-5.2268,-4.5303,-0.0593,-1.0556
-5.2607,-1.6475,-0.1159,0.8382,-0.7417,-0.3066,4.6979,1.3708,-6.5261,-5.5959,-1.3898,-2.1521,-5.2268,-4.5303,-0.0593,-1.0556
-5.2607,-1.6475,-0.1213,0.8361,-0.715,-0.3235,4.7106,1.3525,-6.5581,-5.5498,-1.4173,-2.1575,-5.2628,-4.5307,-0.0651,-1.0678
-5.2607,-1.6475,-0.1213,0.8361,-0.715,-0.3235,4.7106,1.3525,-6.5581,-5.5498,-1.4173,-2.1575,-5.2628,-4.5307,-0.0651,-1.0678
-5.2867,-1.6547,-0.1283,0.8266,-0.7014,-0.3431,4.6496,1.3602,-6.6545,-5.4108,-1.4447,-2.163,-5.2747,-4.5396,-0.0863,-1.0781
-5.2922,-1.669,-0.1391,0.8224,-0.6946,-0.3529,4.6256,1.3549,-6.7728,-5.4041,-1.4651,-2.1784,-5.3066,-4.5457,-0.1356,-1.0785
-5.2922,-1.669,-0.1391,0.8224,-0.6946,-0.3529,4.6256,1.3549,-6.7728,-5.4041,-1.4651,-2.1784,-5.3066,-4.5457,-0.1356,-1.0785
-5.2848,-1.6798,-0.1588,0.8214,-0.7077,-0.3557,4.6016,1.3497,-6.8903,-5.3976,-1.4649,-2.201,-5.3304,-4.5503,-0.1942,-1.0756
-5.2848,-1.6798,-0.1588,0.8214,-0.7077,-0.3557,4.6016,1.3497,-6.8903,-5.3976,-1.4649,-2.201,-5.3304,-4.5503,-0.1942,-1.0756
-5.2848,-1.6798,-0.1588,0.8214,-0.7077,-0.3557,4.6016,1.3497,-6.8903,-5.3976,-1.4649,-2.201,-5.3304,-4.5503,-0.1942,-1.0756
-5.2438,-1.6943,-0.1769,0.8278,-0.7145,-0.3459,4.6623,1.342,-6.9328,-5.4174,-1.4855,-2.1938,-5.3344,-4.5576,-0.2404,-1.0699
-5.2438,-1.6943,-0.1769,0.8278,-0.7145,-0.3459,4.6623,1.342,-6.9328,-5.4174,-1.4855,-2.1938,-5.3344,-4.5576,-0.2404,-1.0699
-5.2587,-1.6727,-0.1769,0.8278,-0.6946,-0.3529,4.6864,1.3472,-6.9008,-5.4635,-1.4924,-2.1838,-5.3185,-4.5676,-0.2557,-1.068
-5.2587,-1.6727,-0.1769,0.8278,-0.6946,-0.3529,4.6864,1.3472,-6.9008,-5.4635,-1.4924,-2.1838,-5.3185,-4.5676,-0.2557,-1.068
-5.2812,-1.6403,-0.1625,0.8267,-0.6815,-0.3501,4.7106,1.3525,-6.9008,-5.4635,-1.4787,-2.1811,-5.2866,-4.5745,-0.2348,-1.0577
-5.2812,-1.6403,-0.1625,0.8267,-0.6815,-0.3501,4.7106,1.3525,-6.9008,-5.4635,-1.4787,-2.1811,-5.2866,-4.5745,-0.2348,-1.0577
-5.2682,-1.6367,-0.123,0.8287,-0.6951,-0.3305,4.6484,1.4021,-6.8689,-5.5095,-1.472,-2.1684,-5.2268,-4.5696,-0.1805,-1.0342
-5.2682,-1.6367,-0.123,0.8287,-0.6951,-0.3305,4.6484,1.4021,-6.8689,-5.5095,-1.472,-2.1684,-5.2268,-4.5696,-0.1805,-1.0342
-5.2421,-1.6296,-0.0508,0.8231,-0.6757,-0.3151,4.6725,1.4074,-6.8689,-5.5095,-1.431,-2.1603,-5.1747,-4.5531,-0.0795,-1.0163
-5.2421,-1.6296,-0.0508,0.8231,-0.6757,-0.3151,4.6725,1.4074,-6.8689,-5.5095,-1.431,-2.1603,-5.1747,-4.5531,-0.0795,-1.0163
-5.1899,-1.6153,0.0107,0.8334,-0.6431,-0.2969,4.7209,1.418,-6.7516,-5.5162,-1.3761,-2.1494,-5.1304,-4.525,0.0346,-0.9956
-5.1899,-1.6153,0.0107,0.8334,-0.6431,-0.2969,4.7209,1.418,-6.7516,-5.5162,-1.3761,-2.1494,-5.1304,-4.525,0.0346,-0.9956
-5.1299,-1.6119,0.0596,0.8523,-0.5968,-0.2984,4.8193,1.3971,-6.5145,-5.5303,-1.321,-2.1385,-5.0861,-4.4969,0.1434,-0.9763
-5.1299,-1.6119,0.0596,0.8523,-0.5968,-0.2984,4.8193,1.3971,-6.5145,-5.5303,-1.321,-2.1385,-5.0861,-4.4969,0.1434,-0.9763
-5.1299,-1.6119,0.0596,0.8523,-0.5968,-0.2984,4.8193,1.3971,-6.5145,-5.5303,-1.321,-2.1385,-5.0861,-4.4969,0.1434,-0.9763
-5.0828,-1.612,0.0849,0.8755,-0.5635,-0.3027,4.8809,1.3893,-6.2096,-5.638,-1.2657,-2.1277,-5.0577,-4.4849,0.228,-0.9628
-5.0828,-1.612,0.0849,0.8755,-0.5635,-0.3027,4.8809,1.3893,-6.2096,-5.638,-1.2657,-2.1277,-5.0577,-4.4849,0.228,-0.9628
-5.0828,-1.612,0.0849,0.8755,-0.5635,-0.3027,4.8809,1.3893,-6.2096,-5.638,-1.2657,-2.1277,-5.0577,-4.4849,0.228,-0.9628
-5.0073,-1.6305,0.114,0.8935,-0.5302,-0.307,4.8681,1.4077,-6.1076,-5.5336,-1.1893,-2.1013,-5.0091,-4.4757,0.3929,-0.9592
-5.0073,-1.6305,0.114,0.8935,-0.5302,-0.307,4.8681,1.4077,-6.1076,-5.5336,-1.1893,-2.1013,-5.0091,-4.4757,0.3929,-0.9592
-4.9865,-1.6379,0.1323,0.887,-0.4629,-0.3382,4.8553,1.4261,-6.1606,-5.3727,-1.1684,-2.0857,-4.9888,-4.4784,0.4183,-0.9536
-4.9865,-1.6379,0.1323,0.887,-0.4629,-0.3382,4.8553,1.4261,-6.1606,-5.3727,-1.1684,-2.0857,-4.9888,-4.4784,0.4183,-0.9536
-4.9865,-1.6379,0.1306,0.8796,-0.4496,-0.3355,4.8681,1.4077,-6.3154,-5.318,-1.1404,-2.1032,-4.9928,-4.4858,0.4019,-0.9405
-4.9865,-1.6379,0.1306,0.8796,-0.4496,-0.3355,4.8681,1.4077,-6.3154,-5.318,-1.1404,-2.1032,-4.9928,-4.4858,0.4019,-0.9405
-4.9656,-1.6452,0.1251,0.8775,-0.4633,-0.3157,4.8309,1.4208,-6.327,-5.3852,-1.1264,-2.1235,-5.0132,-4.4962,0.3732,-0.9413
-4.9656,-1.6452,0.1251,0.8775,-0.4633,-0.3157,4.8309,1.4208,-6.327,-5.3852,-1.1264,-2.1235,-5.0132,-4.4962,0.3732,-0.9413
-4.9656,-1.6452,0.1251,0.8775,-0.4633,-0.3157,4.8309,1.4208,-6.327,-5.3852,-1.1264,-2.1235,-5.0132,-4.4962,0.3732,-0.9413
-4.9239,-1.66,0.1233,0.87,-0.4904,-0.2987,4.8309,1.4208,-6.3387,-5.4519,-1.1333,-2.1363,-5.0415,-4.495,0.3382,-0.9436
-4.9239,-1.66,0.1233,0.87,-0.4904,-0.2987,4.8309,1.4208,-6.3387,-5.4519,-1.1333,-2.1363,-5.0415,-4.495,0.3382,-0.9436
-4.9239,-1.66,0.1233,0.87,-0.4904,-0.2987,4.8309,1.4208,-6.3387,-5.4519,-1.1333,-2.1363,-5.0415,-4.495,0.3382,-0.9436
-4.9599,-1.6308,0.0997,0.8542,-0.5105,-0.2916,5.0303,1.3365,-6.4916,-5.3979,-1.2102,-2.0939,-5.0739,-4.5012,0.2882,-0.9659
-4.9599,-1.6308,0.0997,0.8542,-0.5105,-0.2916,5.0303,1.3365,-6.4916,-5.3979,-1.2102,-2.0939,-5.0739,-4.5012,0.2882,-0.9659
-4.9959,-1.6016,0.0888,0.85,-0.5238,-0.2944,5.1181,1.2915,-6.4916,-5.3979,-1.2312,-2.0865,-5.082,-4.5027,0.263,-0.9715
-4.9959,-1.6016,0.0888,0.85,-0.5238,-0.2944,5.1181,1.2915,-6.4916,-5.3979,-1.2312,-2.0865,-5.082,-4.5027,0.263,-0.9715
-5.0376,-1.5868,0.0725,0.8437,-0.5302,-0.307,5.0431,1.3181,-6.5241,-5.351,-1.2382,-2.0763,-5.0578,-4.5113,0.2505,-0.9744
-5.098,-1.5902,0.0653,0.8342,-0.5831,-0.3181,4.8936,1.3709,-6.6002,-5.3242,-1.2312,-2.0865,-5.0416,-4.5214,0.2346,-0.9724
-5.098,-1.5902,0.0653,0.8342,-0.5831,-0.3181,4.8936,1.3709,-6.6002,-5.3242,-1.2312,-2.0865,-5.0416,-4.5214,0.2346,-0.9724
-5.098,-1.5902,0.0653,0.8342,-0.5831,-0.3181,4.8936,1.3709,-6.6002,-5.3242,-1.2312,-2.0865,-5.0416,-4.5214,0.2346,-0.9724
-5.1167,-1.6083,0.0616,0.8395,-0.5963,-0.3209,4.7822,1.4102,-6.6002,-5.3242,-1.2171,-2.1067,-5.0376,-4.5272,0.225,-0.969
-5.1167,-1.6083,0.0616,0.8395,-0.5963,-0.3209,4.7822,1.4102,-6.6002,-5.3242,-1.2171,-2.1067,-5.0376,-4.5272,0.225,-0.969
-5.1299,-1.6119,0.0559,0.8576,-0.5895,-0.3307,4.7451,1.4233,-6.3712,-5.4051,-1.1893,-2.1013,-5.0497,-4.5097,0.2313,-0.9676
-5.1299,-1.6119,0.0559,0.8576,-0.5895,-0.3307,4.7451,1.4233,-6.3712,-5.4051,-1.1893,-2.1013,-5.0497,-4.5097,0.2313,-0.9676
-5.1299,-1.6119,0.0559,0.8576,-0.5895,-0.3307,4.7451,1.4233,-6.3712,-5.4051,-1.1893,-2.1013,-5.0497,-4.5097,0.2313,-0.9676
-5.1223,-1.6227,0.0449,0.8736,-0.6026,-0.3335,4.6967,1.4127,-6.0174,-5.4946,-1.1754,-2.0985,-5.0416,-4.5082,0.2376,-0.9662
-5.1148,-1.6336,0.0357,0.8768,-0.6026,-0.3335,4.6852,1.3891,-5.9394,-5.5221,-1.1893,-2.1013,-5.0416,-4.5082,0.2601,-0.9777
-5.1148,-1.6336,0.0357,0.8768,-0.6026,-0.3335,4.6852,1.3891,-5.9394,-5.5221,-1.1893,-2.1013,-5.0416,-4.5082,0.2601,-0.9777
-5.1204,-1.648,0.0249,0.8726,-0.5558,-0.3575,4.6611,1.3838,-6.0829,-5.4002,-1.2171,-2.1067,-5.0456,-4.5155,0.2764,-0.9907
-5.1204,-1.648,0.0286,0.8673,-0.5425,-0.3548,4.6611,1.3838,-6.2827,-5.3653,-1.2379,-2.1222,-5.0578,-4.5244,0.2509,-0.9854
-5.1204,-1.648,0.0286,0.8673,-0.5425,-0.3548,4.6611,1.3838,-6.2827,-5.3653,-1.2379,-2.1222,-5.0578,-4.5244,0.2509,-0.9854
-5.1204,-1.648,0.0286,0.8673,-0.5425,-0.3548,4.6611,1.3838,-6.2827,-5.3653,-1.2379,-2.1222,-5.0578,-4.5244,0.2509,-0.9854
-5.079,-1.6627,0.0359,0.8566,-0.5562,-0.3351,4.6979,1.3708,-6.4804,-5.331,-1.2308,-2.1552,-5.0942,-4.5247,0.2129,-0.9828
-5.079,-1.6627,0.0359,0.8566,-0.5562,-0.3351,4.6979,1.3708,-6.4804,-5.331,-1.2308,-2.1552,-5.0942,-4.5247,0.2129,-0.9828
-5.079,-1.6627,0.0359,0.8566,-0.5562,-0.3351,4.6979,1.3708,-6.4804,-5.331,-1.2308,-2.1552,-5.0942,-4.5247,0.2129,-0.9828
-5.0168,-1.6846,0.0305,0.8545,-0.5831,-0.3181,4.7348,1.3577,-6.5677,-5.371,-1.2169,-2.1753,-5.1224,-4.5235,0.1846,-0.9837
-5.0168,-1.6846,0.0305,0.8545,-0.5831,-0.3181,4.7348,1.3577,-6.5677,-5.371,-1.2169,-2.1753,-5.1224,-4.5235,0.1846,-0.9837
-5.0036,-1.6811,0.0251,0.8524,-0.5831,-0.3181,4.8087,1.3316,-6.6545,-5.4108,-1.2239,-2.1652,-5.1506,-4.5223,0.1563,-0.9845
-5.0036,-1.6811,0.0251,0.8524,-0.5831,-0.3181,4.8087,1.3316,-6.6545,-5.4108,-1.2239,-2.1652,-5.1506,-4.5223,0.1563,-0.9845
-5.0036,-1.6811,0.0251,0.8524,-0.5831,-0.3181,4.8087,1.3316,-6.6545,-5.4108,-1.2239,-2.1652,-5.1506,-4.5223,0.1563,-0.9845
-5.0036,-1.6811,0.0251,0.8524,-0.5831,-0.3181,4.8087,1.3316,-6.6545,-5.4108,-1.2239,-2.1652,-5.1506,-4.5223,0.1563,-0.9845
-5.096,-1.6156,-0.0094,0.8526,-0.6231,-0.304,4.8702,1.3237,-6.6976,-5.4306,-1.2725,-2.1405,-5.1787,-4.5211,0.1127,-0.9944
-5.096,-1.6156,-0.0094,0.8526,-0.6231,-0.304,4.8702,1.3237,-6.6976,-5.4306,-1.2725,-2.1405,-5.1787,-4.5211,0.1127,-0.9944
-5.1092,-1.6192,-0.0075,0.8399,-0.6426,-0.3194,4.7717,1.3447,-6.6976,-5.4306,-1.3072,-2.1358,-5.1586,-4.537,0.0751,-0.9919
-5.1486,-1.6299,-0.0183,0.8357,-0.7019,-0.3207,4.637,1.3785,-6.7407,-5.4504,-1.328,-2.1285,-5.1546,-4.5427,0.047,-0.9928
-5.1486,-1.6299,-0.0183,0.8357,-0.7019,-0.3207,4.637,1.3785,-6.7407,-5.4504,-1.328,-2.1285,-5.1546,-4.5427,0.047,-0.9928
-5.1411,-1.6407,-0.0183,0.8357,-0.715,-0.3235,4.6129,1.3732,-6.6976,-5.4306,-1.3349,-2.1184,-5.1466,-4.5412,0.0346,-0.9956
-5.1748,-1.637,-0.0402,0.8474,-0.7349,-0.3165,4.5889,1.3679,-6.4269,-5.4912,-1.3417,-2.1312,-5.1707,-4.5327,0.0099,-1.0012
-5.1748,-1.637,-0.0402,0.8474,-0.7349,-0.3165,4.5889,1.3679,-6.4269,-5.4912,-1.3417,-2.1312,-5.1707,-4.5327,0.0099,-1.0012
-5.1824,-1.6262,-0.0566,0.8612,-0.715,-0.3235,4.5889,1.3679,-6.3183,-5.5647,-1.383,-2.1394,-5.2108,-4.5273,-0.0081,-1.0164
-5.1824,-1.6262,-0.0566,0.8612,-0.715,-0.3235,4.5889,1.3679,-6.3183,-5.5647,-1.383,-2.1394,-5.2108,-4.5273,-0.0081,-1.0164
-5.1879,-1.6406,-0.062,0.8591,-0.6883,-0.3403,4.565,1.3626,-6.3506,-5.5182,-1.3898,-2.1521,-5.2268,-4.5303,-0.0139,-1.0287
-5.1879,-1.6406,-0.062,0.8591,-0.6883,-0.3403,4.565,1.3626,-6.3506,-5.5182,-1.3898,-2.1521,-5.2268,-4.5303,-0.0139,-1.0287
-5.1879,-1.6406,-0.062,0.8591,-0.6883,-0.3403,4.565,1.3626,-6.3506,-5.5182,-1.3898,-2.1521,-5.2268,-4.5303,-0.0139,-1.0287
-5.201,-1.6441,-0.0802,0.8656,-0.6752,-0.3376,4.5776,1.3444,-6.3829,-5.4716,-1.3829,-2.1621,-5.2548,-4.5292,-0.0418,-1.0296
-5.201,-1.6441,-0.0802,0.8656,-0.6752,-0.3376,4.5776,1.3444,-6.3829,-5.4716,-1.3829,-2.1621,-5.2548,-4.5292,-0.0418,-1.0296
-5.201,-1.6441,-0.0802,0.8656,-0.6752,-0.3376,4.5776,1.3444,-6.3829,-5.4716,-1.3829,-2.1621,-5.2548,-4.5292,-0.0418,-1.0296
-5.1729,-1.6622,-0.0946,0.8667,-0.6689,-0.325,4.541,1.3573,-6.6222,-5.4573,-1.3827,-2.1849,-5.2827,-4.5411,-0.088,-1.0347
-5.1729,-1.6622,-0.0946,0.8667,-0.6689,-0.325,4.541,1.3573,-6.6222,-5.4573,-1.3827,-2.1849,-5.2827,-4.5411,-0.088,-1.0347
-5.1729,-1.6622,-0.0946,0.8667,-0.6689,-0.325,4.541,1.3573,-6.6222,-5.4573,-1.3827,-2.1849,-5.2827,-4.5411,-0.088,-1.0347
-5.1785,-1.6766,-0.1379,0.8699,-0.7019,-0.3207,4.6635,1.3003,-6.9008,-5.4635,-1.424,-2.1703,-5.3145,-4.5603,-0.1801,-1.045
-5.1785,-1.6766,-0.1379,0.8699,-0.7019,-0.3207,4.6635,1.3003,-6.9008,-5.4635,-1.424,-2.1703,-5.3145,-4.5603,-0.1801,-1.045
-5.2066,-1.6585,-0.1433,0.8678,-0.682,-0.3277,4.7244,1.2925,-6.9008,-5.4635,-1.4516,-2.153,-5.3105,-4.566,-0.1983,-1.0492
-5.2066,-1.6585,-0.1433,0.8678,-0.682,-0.3277,4.7244,1.2925,-6.9008,-5.4635,-1.4516,-2.153,-5.3105,-4.566,-0.1983,-1.0492
-5.2066,-1.6585,-0.1433,0.8678,-0.682,-0.3277,4.7244,1.2925,-6.9008,-5.4635,-1.4516,-2.153,-5.3105,-4.566,-0.1983,-1.0492
-5.2141,-1.6477,-0.1379,0.8699,-0.682,-0.3277,4.7359,1.3159,-6.9114,-5.5291,-1.4789,-2.1584,-5.2946,-4.576,-0.2044,-1.0506
-5.2141,-1.6477,-0.0963,0.8592,-0.7087,-0.3109,4.6496,1.3602,-6.9538,-5.5486,-1.4926,-2.1611,-5.2667,-4.5772,-0.174,-1.0436
-5.1879,-1.6406,-0.0421,0.8601,-0.7156,-0.301,4.6496,1.3602,-6.8797,-5.5748,-1.4447,-2.163,-5.2228,-4.5623,-0.0946,-1.0252
-5.1879,-1.6406,-0.0421,0.8601,-0.7156,-0.301,4.6496,1.3602,-6.8797,-5.5748,-1.4447,-2.163,-5.2228,-4.5623,-0.0946,-1.0252
-5.1279,-1.6372,0.0103,0.8737,-0.6626,-0.3123,4.7106,1.3525,-6.613,-5.6345,-1.3898,-2.1521,-5.1707,-4.5327,0.0256,-1.0032
-5.1279,-1.6372,0.0103,0.8737,-0.6626,-0.3123,4.7106,1.3525,-6.613,-5.6345,-1.3898,-2.1521,-5.1707,-4.5327,0.0256,-1.0032
-5.1279,-1.6372,0.0103,0.8737,-0.6626,-0.3123,4.7106,1.3525,-6.613,-5.6345,-1.3898,-2.1521,-5.1707,-4.5327,0.0256,-1.0032
-5.1016,-1.6301,0.0629,0.8873,-0.6363,-0.3068,4.759,1.363,-6.4066,-5.6034,-1.3072,-2.1358,-5.1143,-4.5088,0.185,-0.9946
-5.1016,-1.6301,0.0629,0.8873,-0.6363,-0.3068,4.759,1.363,-6.4066,-5.6034,-1.3072,-2.1358,-5.1143,-4.5088,0.185,-0.9946
-5.1016,-1.6301,0.0629,0.8873,-0.6363,-0.3068,4.759,1.363,-6.4066,-5.6034,-1.3072,-2.1358,-5.1143,-4.5088,0.185,-0.9946
-5.0357,-1.6123,0.1157,0.901,-0.5567,-0.3126,4.832,1.3787,-6.3063,-5.4986,-1.217,-2.1296,-5.0618,-4.4923,0.3108,-0.9775
-4.9751,-1.6089,0.1578,0.9104,-0.4698,-0.3284,4.8309,1.4208,-6.3154,-5.318,-1.1544,-2.1059,-5.0253,-4.4787,0.3992,-0.9578
-4.9751,-1.6089,0.1578,0.9104,-0.4698,-0.3284,4.8309,1.4208,-6.3154,-5.318,-1.1544,-2.1059,-5.0253,-4.4787,0.3992,-0.9578
-4.9409,-1.6128,0.189,0.9156,-0.45,-0.3129,4.8681,1.4077,-6.4253,-5.2434,-1.1054,-2.1079,-5.0091,-4.4757,0.4467,-0.9418
-4.8589,-1.6169,0.2184,0.9133,-0.4302,-0.2975,4.8926,1.413,-6.3925,-5.2908,-1.0281,-2.1276,-5.0009,-4.4741,0.4654,-0.9264
-4.8589,-1.6169,0.2184,0.9133,-0.4302,-0.2975,4.8926,1.413,-6.3925,-5.2908,-1.0281,-2.1276,-5.0009,-4.4741,0.4654,-0.9264
-4.8589,-1.6169,0.2184,0.9133,-0.4302,-0.2975,4.8926,1.413,-6.3925,-5.2908,-1.0281,-2.1276,-5.0009,-4.4741,0.4654,-0.9264
-4.7824,-1.6356,0.2202,0.9207,-0.4238,-0.2848,4.9171,1.4182,-6.2827,-5.3653,-0.9788,-2.1297,-4.9806,-4.4769,0.4714,-0.9139
-4.7824,-1.6356,0.2202,0.9207,-0.4238,-0.2848,4.9171,1.4182,-6.2827,-5.3653,-0.9788,-2.1297,-4.9806,-4.4769,0.4714,-0.9139
-4.742,-1.6251,0.2312,0.925,-0.4173,-0.2721,5.0294,1.3786,-6.2827,-5.3653,-0.9576,-2.1141,-4.9969,-4.4667,0.4744,-0.9076
-4.786,-1.5846,0.2257,0.9229,-0.4306,-0.2749,5.067,1.3653,-6.3597,-5.3381,-1,-2.0761,-4.9969,-4.4667,0.4744,-0.9076
-4.786,-1.5846,0.2257,0.9229,-0.4306,-0.2749,5.067,1.3653,-6.3597,-5.3381,-1,-2.0761,-4.9969,-4.4667,0.4744,-0.9076
-4.786,-1.5846,0.2257,0.9229,-0.4306,-0.2749,5.067,1.3653,-6.3597,-5.3381,-1,-2.0761,-4.9969,-4.4667,0.4744,-0.9076
-4.8397,-1.5988,0.1982,0.9123,-0.4972,-0.2888,4.9427,1.3813,-6.327,-5.3852,-1.0141,-2.0788,-4.9847,-4.471,0.465,-0.9153
-4.8397,-1.5988,0.1982,0.9123,-0.4972,-0.2888,4.9427,1.3813,-6.327,-5.3852,-1.0141,-2.0788,-4.9847,-4.471,0.465,-0.9153
-4.8397,-1.5988,0.1982,0.9123,-0.4972,-0.2888,4.9427,1.3813,-6.327,-5.3852,-1.0141,-2.0788,-4.9847,-4.471,0.465,-0.9153
-4.9009,-1.6021,0.1929,0.8899,-0.537,-0.2971,4.8809,1.3893,-6.3597,-5.3381,-1.0141,-2.0788,-4.9684,-4.4812,0.4493,-0.9244
-4.9275,-1.6092,0.1764,0.8836,-0.5699,-0.3153,4.8193,1.3971,-6.2827,-5.3653,-1.0282,-2.0815,-4.9847,-4.471,0.4175,-0.9315
-4.9275,-1.6092,0.1764,0.8836,-0.5699,-0.3153,4.8193,1.3971,-6.2827,-5.3653,-1.0282,-2.0815,-4.9847,-4.471,0.4175,-0.9315
-4.9409,-1.6128,0.1543,0.8954,-0.5699,-0.3153,4.8193,1.3971,-6.0952,-5.4671,-1.0634,-2.0768,-5.005,-4.4683,0.3858,-0.9385
-4.9409,-1.6128,0.1543,0.8954,-0.5699,-0.3153,4.8193,1.3971,-6.0952,-5.4671,-1.0634,-2.0768,-5.005,-4.4683,0.3858,-0.9385
-4.9618,-1.6054,0.1359,0.9019,-0.5498,-0.3224,4.7949,1.3919,-6.0501,-5.4475,-1.0774,-2.0795,-5.0009,-4.4741,0.3959,-0.953
-4.9618,-1.6054,0.1359,0.9019,-0.5498,-0.3224,4.7949,1.3919,-6.0501,-5.4475,-1.0774,-2.0795,-5.0009,-4.4741,0.3959,-0.953
-4.9883,-1.6125,0.1249,0.8977,-0.5229,-0.3394,4.7463,1.3813,-6.2382,-5.3453,-1.1195,-2.0877,-5.005,-4.4815,0.3832,-0.9558
-4.9883,-1.6125,0.1157,0.901,-0.5165,-0.3268,4.759,1.363,-6.3154,-5.318,-1.1264,-2.1005,-5.0131,-4.483,0.3799,-0.951
-4.9883,-1.6125,0.1157,0.901,-0.5165,-0.3268,4.759,1.363,-6.3154,-5.318,-1.1264,-2.1005,-5.0131,-4.483,0.3799,-0.951
-4.9599,-1.6308,0.1157,0.901,-0.5101,-0.3141,4.7221,1.376,-6.5241,-5.351,-1.1403,-2.1262,-5.0537,-4.4775,0.3445,-0.9422
-4.9599,-1.6308,0.1157,0.901,-0.5101,-0.3141,4.7221,1.376,-6.5241,-5.351,-1.1403,-2.1262,-5.0537,-4.4775,0.3445,-0.9422
-4.9599,-1.6308,0.1157,0.901,-0.5101,-0.3141,4.7221,1.376,-6.5241,-5.351,-1.1403,-2.1262,-5.0537,-4.4775,0.3445,-0.9422
-4.9181,-1.6455,0.1103,0.8989,-0.5302,-0.307,4.7348,1.3577,-6.4916,-5.3979,-1.0983,-2.141,-5.0537,-4.4775,0.3445,-0.9422
-4.9181,-1.6455,0.1103,0.8989,-0.5302,-0.307,4.7348,1.3577,-6.4916,-5.3979,-1.0983,-2.141,-5.0537,-4.4775,0.3445,-0.9422
-4.8629,-1.6568,0.1157,0.901,-0.537,-0.2971,4.8204,1.3551,-6.5677,-5.371,-1.1053,-2.1309,-5.0618,-4.4791,0.3479,-0.947
-4.8781,-1.6349,0.1157,0.901,-0.537,-0.2971,4.9191,1.3341,-6.4153,-5.4249,-1.1054,-2.1079,-5.0658,-4.4732,0.3642,-0.9601
-4.8781,-1.6349,0.1157,0.901,-0.537,-0.2971,4.9191,1.3341,-6.4153,-5.4249,-1.1054,-2.1079,-5.0658,-4.4732,0.3642,-0.9601
-4.8781,-1.6349,0.1157,0.901,-0.537,-0.2971,4.9191,1.3341,-6.4153,-5.4249,-1.1054,-2.1079,-5.0658,-4.4732,0.3642,-0.9601
-4.8933,-1.613,0.1011,0.9021,-0.5503,-0.2999,4.9181,1.3761,-6.3712,-5.4051,-1.0773,-2.1025,-5.0537,-4.4775,0.3483,-0.958
-4.8933,-1.613,0.1011,0.9021,-0.5503,-0.2999,4.9181,1.3761,-6.3712,-5.4051,-1.0773,-2.1025,-5.0537,-4.4775,0.3483,-0.958
-4.9618,-1.6054,0.0976,0.8872,-0.6031,-0.311,4.8065,1.4155,-6.4478,-5.378,-1.1055,-2.0849,-5.0375,-4.4877,0.3163,-0.954
-4.9618,-1.6054,0.0976,0.8872,-0.6031,-0.311,4.8065,1.4155,-6.4478,-5.378,-1.1055,-2.0849,-5.0375,-4.4877,0.3163,-0.954
-4.9618,-1.6054,0.0976,0.8872,-0.6031,-0.311,4.8065,1.4155,-6.4478,-5.378,-1.1055,-2.0849,-5.0375,-4.4877,0.3163,-0.954
-4.9883,-1.6125,0.1087,0.8712,-0.6295,-0.3166,4.7323,1.4417,-6.4478,-5.378,-1.0984,-2.0951,-5.0172,-4.5036,0.2974,-0.9583
-4.9675,-1.6199,0.1087,0.8712,-0.6226,-0.3265,4.6826,1.4732,-6.4153,-5.4249,-1.1054,-2.1079,-5.0375,-4.5008,0.2564,-0.9619
-4.9808,-1.6234,0.0867,0.883,-0.6358,-0.3292,4.6584,1.4679,-6.3063,-5.4986,-1.1334,-2.1134,-5.0699,-4.4938,0.225,-0.969
-4.9808,-1.6234,0.0867,0.883,-0.6358,-0.3292,4.6584,1.4679,-6.3063,-5.4986,-1.1334,-2.1134,-5.0699,-4.4938,0.225,-0.969
-5.0092,-1.6051,0.0684,0.8894,-0.6489,-0.332,4.6953,1.4548,-6.2619,-5.4791,-1.1683,-2.1087,-5.0941,-4.4852,0.2192,-0.9814
-5.0092,-1.6051,0.0684,0.8894,-0.6489,-0.332,4.6953,1.4548,-6.2619,-5.4791,-1.1683,-2.1087,-5.0941,-4.4852,0.2192,-0.9814
-5.0092,-1.6051,0.0684,0.8894,-0.6489,-0.332,4.6953,1.4548,-6.2619,-5.4791,-1.1683,-2.1087,-5.0941,-4.4852,0.2192,-0.9814
-5.0489,-1.6158,0.0375,0.8843,-0.6154,-0.3587,4.6967,1.4127,-6.3597,-5.3381,-1.1613,-2.1188,-5.1062,-4.481,0.2133,-0.9938
-5.0489,-1.6158,0.0375,0.8843,-0.6154,-0.3587,4.6967,1.4127,-6.3597,-5.3381,-1.1613,-2.1188,-5.1062,-4.481,0.2133,-0.9938
-5.0809,-1.6374,0.0049,0.8716,-0.575,-0.3952,4.6116,1.4151,-6.3813,-5.2231,-1.1613,-2.1188,-5.1143,-4.4825,0.2041,-1.0014
-5.0809,-1.6374,0.0049,0.8716,-0.575,-0.3952,4.6116,1.4151,-6.3813,-5.2231,-1.1613,-2.1188,-5.1143,-4.4825,0.2041,-1.0014
-5.1336,-1.6516,-0.0294,0.8516,-0.6145,-0.4034,4.5763,1.3861,-6.655,-5.1623,-1.2101,-2.1168,-5.1385,-4.4871,0.1567,-0.9955
-5.1336,-1.6516,-0.0294,0.8516,-0.6145,-0.4034,4.5763,1.3861,-6.655,-5.1623,-1.2101,-2.1168,-5.1385,-4.4871,0.1567,-0.9955
-5.1523,-1.6695,-0.0762,0.8401,-0.6806,-0.3948,4.5171,1.352,-6.7086,-5.2504,-1.1891,-2.1471,-5.1707,-4.4933,0.1065,-0.9958
-5.1523,-1.6695,-0.0762,0.8401,-0.6806,-0.3948,4.5171,1.352,-6.7086,-5.2504,-1.1891,-2.1471,-5.1707,-4.4933,0.1065,-0.9958
-5.1523,-1.6695,-0.0762,0.8401,-0.6806,-0.3948,4.5171,1.352,-6.7086,-5.2504,-1.1891,-2.1471,-5.1707,-4.4933,0.1065,-0.9958
-5.1729,-1.6622,-0.1588,0.8214,-0.7585,-0.4335,4.604,1.2666,-6.7299,-5.3842,-1.2309,-2.1323,-5.2228,-4.4968,0.0412,-1.0051
-5.1729,-1.6622,-0.1588,0.8214,-0.7585,-0.4335,4.604,1.2666,-6.7299,-5.3842,-1.2309,-2.1323,-5.2228,-4.4968,0.0412,-1.0051
-5.1729,-1.6622,-0.1588,0.8214,-0.7585,-0.4335,4.604,1.2666,-6.7299,-5.3842,-1.2309,-2.1323,-5.2228,-4.4968,0.0412,-1.0051
-5.1935,-1.655,-0.1963,0.8068,-0.8038,-0.4541,4.58,1.2614,-6.7728,-5.4041,-1.2727,-2.1176,-5.2268,-4.5041,0.0071,-1.0074
-5.1935,-1.655,-0.1963,0.8068,-0.8038,-0.4541,4.58,1.2614,-6.7728,-5.4041,-1.2727,-2.1176,-5.2268,-4.5041,0.0071,-1.0074
-5.2532,-1.6584,-0.2353,0.7848,-0.914,-0.4663,4.4233,1.2895,-6.8156,-5.424,-1.3003,-2.123,-5.2068,-4.5199,-0.0332,-1.0111
-5.2532,-1.6584,-0.2353,0.7848,-0.914,-0.4663,4.4233,1.2895,-6.8156,-5.424,-1.3003,-2.123,-5.2068,-4.5199,-0.0332,-1.0111
-5.2848,-1.6798,-0.2636,0.7671,-1.0044,-0.4634,4.3399,1.2917,-6.8583,-5.4438,-1.3141,-2.1257,-5.2108,-4.5273,-0.0606,-1.0229
-5.2848,-1.6798,-0.2636,0.7671,-1.0044,-0.4634,4.3399,1.2917,-6.8583,-5.4438,-1.3141,-2.1257,-5.2108,-4.5273,-0.0606,-1.0229
-5.3052,-1.6726,-0.2921,0.7693,-1.0562,-0.4524,4.3399,1.2917,-6.8263,-5.4898,-1.3349,-2.1184,-5.2268,-4.5172,-0.1007,-1.0267
-5.3052,-1.6726,-0.2921,0.7693,-1.0562,-0.4524,4.3399,1.2917,-6.8263,-5.4898,-1.3349,-2.1184,-5.2268,-4.5172,-0.1007,-1.0267
-5.3386,-1.6689,-0.3153,0.7735,-1.0817,-0.4579,4.3885,1.261,-6.6015,-5.5693,-1.3349,-2.1184,-5.2388,-4.513,-0.1219,-1.037
-5.3386,-1.6689,-0.3153,0.7735,-1.0817,-0.4579,4.3885,1.261,-6.6015,-5.5693,-1.3349,-2.1184,-5.2388,-4.513,-0.1219,-1.037
-5.3386,-1.6689,-0.3332,0.7798,-1.0944,-0.4607,4.4121,1.2662,-6.3746,-5.6494,-1.3487,-2.1211,-5.2548,-4.5161,-0.1243,-1.054
-5.3386,-1.6689,-0.3332,0.7798,-1.0944,-0.4607,4.4121,1.2662,-6.3746,-5.6494,-1.3487,-2.1211,-5.2548,-4.5161,-0.1243,-1.054
-5.3386,-1.6689,-0.3332,0.7798,-1.0944,-0.4607,4.4121,1.2662,-6.3746,-5.6494,-1.3487,-2.1211,-5.2548,-4.5161,-0.1243,-1.054
-5.359,-1.6617,-0.3384,0.7777,-1.0684,-0.4771,4.3997,1.2842,-6.4066,-5.6034,-1.3763,-2.1266,-5.2867,-4.5222,-0.13,-1.0663
-5.359,-1.6617,-0.3332,0.7798,-1.01,-0.4977,4.3872,1.3022,-6.4592,-5.4446,-1.39,-2.1293,-5.2987,-4.5311,-0.1145,-1.0682
-5.359,-1.6617,-0.3332,0.7798,-1.01,-0.4977,4.3872,1.3022,-6.4592,-5.4446,-1.39,-2.1293,-5.2987,-4.5311,-0.1145,-1.0682
-5.2997,-1.6582,-0.2871,0.7913,-0.9654,-0.4772,4.4345,1.3128,-6.5353,-5.4177,-1.3623,-2.1467,-5.3026,-4.5384,-0.0904,-1.0517
-5.2997,-1.6582,-0.2871,0.7913,-0.9654,-0.4772,4.4345,1.3128,-6.5353,-5.4177,-1.3623,-2.1467,-5.3026,-4.5384,-0.0904,-1.0517
-5.1785,-1.6766,-0.2356,0.8048,-0.9336,-0.4593,4.4457,1.3361,-6.4916,-5.3979,-1.2863,-2.166,-5.2867,-4.5353,-0.0295,-1.0268
-5.1785,-1.6766,-0.2356,0.8048,-0.9336,-0.4593,4.4457,1.3361,-6.4916,-5.3979,-1.2863,-2.166,-5.2867,-4.5353,-0.0295,-1.0268
-5.1785,-1.6766,-0.2356,0.8048,-0.9336,-0.4593,4.4457,1.3361,-6.4916,-5.3979,-1.2863,-2.166,-5.2867,-4.5353,-0.0295,-1.0268
-5.0979,-1.6806,-0.1695,0.8172,-0.882,-0.4484,4.4695,1.3414,-6.4153,-5.4249,-1.21,-2.1626,-5.2468,-4.5276,0.0627,-0.9947
-5.0262,-1.6485,-0.0833,0.8307,-0.837,-0.4277,4.5776,1.3444,-6.3712,-5.4051,-1.1473,-2.139,-5.1988,-4.5184,0.1746,-0.9693
-4.9808,-1.6234,-0.0075,0.8399,-0.7913,-0.4292,4.637,1.3785,-6.2827,-5.3653,-1.0914,-2.1052,-5.1385,-4.5134,0.2811,-0.9452
-4.9808,-1.6234,-0.0075,0.8399,-0.7913,-0.4292,4.637,1.3785,-6.2827,-5.3653,-1.0914,-2.1052,-5.1385,-4.5134,0.2811,-0.9452
-4.9808,-1.6234,-0.0075,0.8399,-0.7913,-0.4292,4.637,1.3785,-6.2827,-5.3653,-1.0914,-2.1052,-5.1385,-4.5134,0.2811,-0.9452
-4.9883,-1.6125,0.0524,0.8428,-0.798,-0.4195,4.6116,1.4151,-6.2827,-5.3653,-1.0211,-2.0917,-5.0537,-4.5171,0.3758,-0.924
-4.9883,-1.6125,0.0524,0.8428,-0.798,-0.4195,4.6116,1.4151,-6.2827,-5.3653,-1.0211,-2.0917,-5.0537,-4.5171,0.3758,-0.924
-4.9883,-1.6125,0.0524,0.8428,-0.798,-0.4195,4.6116,1.4151,-6.2827,-5.3653,-1.0211,-2.0917,-5.0537,-4.5171,0.3758,-0.924
-4.9883,-1.6125,0.098,0.8468,-0.811,-0.4222,4.5876,1.4097,-6.2382,-5.3453,-0.9434,-2.0884,-5.0132,-4.5094,0.4523,-0.9181
-4.9883,-1.6125,0.098,0.8468,-0.811,-0.4222,4.5876,1.4097,-6.2382,-5.3453,-0.9434,-2.0884,-5.0132,-4.5094,0.4523,-0.9181
-4.9883,-1.6125,0.098,0.8468,-0.811,-0.4222,4.5876,1.4097,-6.2382,-5.3453,-0.9434,-2.0884,-5.0132,-4.5094,0.4523,-0.9181
-4.9485,-1.6018,0.147,0.8859,-0.7324,-0.428,4.6852,1.3891,-5.9595,-5.408,-0.9221,-2.0496,-4.9969,-4.48,0.5323,-0.906
-4.9485,-1.6018,0.147,0.8859,-0.7324,-0.428,4.6852,1.3891,-5.9595,-5.408,-0.9221,-2.0496,-4.9969,-4.48,0.5323,-0.906
-4.9351,-1.5982,0.1597,0.8975,-0.673,-0.449,4.6852,1.3891,-5.947,-5.3406,-0.9292,-2.0393,-4.9888,-4.4784,0.5778,-0.9185
-4.9351,-1.5982,0.1597,0.8975,-0.673,-0.449,4.6852,1.3891,-5.947,-5.3406,-0.9292,-2.0393,-4.9888,-4.4784,0.5778,-0.9185
-4.9351,-1.5982,0.156,0.9029,-0.6464,-0.4657,4.6611,1.3838,-6.0919,-5.2171,-0.9505,-2.0318,-4.9969,-4.48,0.5876,-0.9219
-4.9351,-1.5982,0.156,0.9029,-0.6464,-0.4657,4.6611,1.3838,-6.0919,-5.2171,-0.9505,-2.0318,-4.9969,-4.48,0.5876,-0.9219
-4.9351,-1.5982,0.1431,0.9115,-0.64,-0.4533,4.6738,1.3655,-6.2595,-5.2302,-0.9646,-2.0577,-5.0294,-4.4861,0.5518,-0.913
-4.9351,-1.5982,0.1431,0.9115,-0.64,-0.4533,4.6738,1.3655,-6.2595,-5.2302,-0.9646,-2.0577,-5.0294,-4.4861,0.5518,-0.913
-4.9351,-1.5982,0.1431,0.9115,-0.64,-0.4533,4.6738,1.3655,-6.2595,-5.2302,-0.9646,-2.0577,-5.0294,-4.4861,0.5518,-0.913
-4.9275,-1.6092,0.1322,0.9073,-0.6666,-0.4365,4.6738,1.3655,-6.4365,-5.3109,-0.9646,-2.104,-5.082,-4.4895,0.4939,-0.9145
-4.8915,-1.6385,0.1011,0.9021,-0.6996,-0.4323,4.6623,1.342,-6.5567,-5.3041,-0.9434,-2.1115,-5.0982,-4.4926,0.462,-0.9216
-4.8915,-1.6385,0.1011,0.9021,-0.6996,-0.4323,4.6623,1.342,-6.5567,-5.3041,-0.9434,-2.1115,-5.0982,-4.4926,0.462,-0.9216
-4.8781,-1.6349,0.081,0.9011,-0.7392,-0.4183,4.7728,1.3029,-6.5677,-5.371,-0.9717,-2.0938,-5.1183,-4.4899,0.4366,-0.9272
-4.9009,-1.6021,0.0756,0.899,-0.7194,-0.4253,4.7971,1.3081,-6.6112,-5.3909,-0.9929,-2.0863,-5.1264,-4.4914,0.4336,-0.9335
-4.9009,-1.6021,0.0756,0.899,-0.7194,-0.4253,4.7971,1.3081,-6.6112,-5.3909,-0.9929,-2.0863,-5.1264,-4.4914,0.4336,-0.9335
-4.9009,-1.6021,0.0756,0.899,-0.7194,-0.4253,4.7971,1.3081,-6.6112,-5.3909,-0.9929,-2.0863,-5.1264,-4.4914,0.4336,-0.9335
-4.9294,-1.5837,0.0793,0.8937,-0.7257,-0.4377,4.7971,1.3081,-6.5241,-5.351,-1.007,-2.0659,-5.0901,-4.5042,0.4175,-0.9315
-4.9294,-1.5837,0.0793,0.8937,-0.7257,-0.4377,4.7971,1.3081,-6.5241,-5.351,-1.007,-2.0659,-5.0901,-4.5042,0.4175,-0.9315
-4.9294,-1.5837,0.0793,0.8937,-0.7257,-0.4377,4.7971,1.3081,-6.5241,-5.351,-1.007,-2.0659,-5.0901,-4.5042,0.4175,-0.9315
-4.9427,-1.5873,0.0958,0.8797,-0.7585,-0.4335,4.7106,1.3525,-6.4804,-5.331,-1.0282,-2.0584,-5.0699,-4.507,0.3948,-0.9198
-4.9427,-1.5873,0.0958,0.8797,-0.7585,-0.4335,4.7106,1.3525,-6.4804,-5.331,-1.0282,-2.0584,-5.0699,-4.507,0.3948,-0.9198
-4.9218,-1.5947,0.1105,0.8786,-0.7653,-0.4237,4.6979,1.3708,-6.4804,-5.331,-1.0352,-2.0713,-5.0618,-4.5054,0.3884,-0.9212
-4.9085,-1.5911,0.1177,0.8882,-0.7455,-0.4307,4.6979,1.3708,-6.2054,-5.3926,-1.0352,-2.0713,-5.0658,-4.4864,0.3948,-0.9198
-4.9085,-1.5911,0.1177,0.8882,-0.7455,-0.4307,4.6979,1.3708,-6.2054,-5.3926,-1.0352,-2.0713,-5.0658,-4.4864,0.3948,-0.9198
-4.9161,-1.5801,0.1103,0.8989,-0.7324,-0.428,4.6979,1.3708,-6.0049,-5.4278,-1.0352,-2.0713,-5.0618,-4.4791,0.3981,-0.9246
-4.9161,-1.5801,0.1103,0.8989,-0.7324,-0.428,4.6979,1.3708,-6.0049,-5.4278,-1.0352,-2.0713,-5.0618,-4.4791,0.3981,-0.9246
-4.9161,-1.5801,0.0974,0.9074,-0.7126,-0.435,4.6979,1.3708,-6.0377,-5.3804,-1.0422,-2.0842,-5.086,-4.4705,0.3951,-0.9309
-4.9161,-1.5801,0.0974,0.9074,-0.7126,-0.435,4.6979,1.3708,-6.0377,-5.3804,-1.0422,-2.0842,-5.086,-4.4705,0.3951,-0.9309
-4.9294,-1.5837,0.0828,0.9086,-0.6531,-0.456,4.6979,1.3708,-6.0587,-5.265,-1.0352,-2.0944,-5.0941,-4.472,0.3922,-0.9371
-4.9294,-1.5837,0.0828,0.9086,-0.6531,-0.456,4.6979,1.3708,-6.0587,-5.265,-1.0352,-2.0944,-5.0941,-4.472,0.3922,-0.9371
-4.9561,-1.5909,0.0773,0.9065,-0.6333,-0.463,4.6738,1.3655,-6.1818,-5.2576,-1.0422,-2.1073,-5.1184,-4.4767,0.3572,-0.9393
-4.9142,-1.6056,0.0682,0.9097,-0.6603,-0.4241,4.7348,1.3577,-6.4253,-5.2434,-1.0422,-2.1303,-5.1385,-4.4871,0.3222,-0.9416
-4.9142,-1.6056,0.0682,0.9097,-0.6603,-0.4241,4.7348,1.3577,-6.4253,-5.2434,-1.0422,-2.1303,-5.1385,-4.4871,0.3222,-0.9416
-4.9142,-1.6056,0.0682,0.9097,-0.6603,-0.4241,4.7348,1.3577,-6.4253,-5.2434,-1.0422,-2.1303,-5.1385,-4.4871,0.3222,-0.9416
-4.8857,-1.624,0.0627,0.9076,-0.6738,-0.4046,4.8087,1.3316,-6.5131,-5.2839,-1.0141,-2.1479,-5.1546,-4.4902,0.2841,-0.939
-4.8857,-1.624,0.0627,0.9076,-0.6738,-0.4046,4.8087,1.3316,-6.5131,-5.2839,-1.0141,-2.1479,-5.1546,-4.4902,0.2841,-0.939
-4.8857,-1.624,0.0518,0.9034,-0.6869,-0.4073,4.8585,1.3002,-6.5567,-5.3041,-1.0352,-2.1174,-5.1546,-4.4902,0.2556,-0.9398
-4.8857,-1.624,0.0518,0.9034,-0.6869,-0.4073,4.8585,1.3002,-6.5567,-5.3041,-1.0352,-2.1174,-5.1546,-4.4902,0.2556,-0.9398
-4.8857,-1.624,0.0518,0.9034,-0.6869,-0.4073,4.8585,1.3002,-6.5567,-5.3041,-1.0352,-2.1174,-5.1546,-4.4902,0.2556,-0.9398
-4.9351,-1.5982,0.0446,0.8938,-0.7068,-0.4003,4.8585,1.3002,-6.5241,-5.351,-1.0422,-2.1073,-5.1304,-4.4988,0.2305,-0.9455
-4.9351,-1.5982,0.0446,0.8938,-0.7068,-0.4003,4.8585,1.3002,-6.5241,-5.351,-1.0422,-2.1073,-5.1304,-4.4988,0.2305,-0.9455
-5.0035,-1.5906,0.0229,0.8854,-0.7657,-0.4015,4.7475,1.3394,-6.6112,-5.3909,-1.0773,-2.1025,-5.1062,-4.5073,0.2054,-0.9512
-5.0489,-1.6158,0.0049,0.8716,-0.8178,-0.4125,4.6496,1.3602,-6.6545,-5.4108,-1.1124,-2.0978,-5.074,-4.5143,0.19,-0.9602
-5.0489,-1.6158,0.0049,0.8716,-0.8178,-0.4125,4.6496,1.3602,-6.6545,-5.4108,-1.1124,-2.0978,-5.074,-4.5143,0.19,-0.9602
-5.096,-1.6156,-0.006,0.8674,-0.8634,-0.4111,4.6003,1.3914,-6.6112,-5.3909,-1.1124,-2.0978,-5.078,-4.4953,0.1808,-0.9679
-5.096,-1.6156,-0.006,0.8674,-0.8634,-0.4111,4.6003,1.3914,-6.6112,-5.3909,-1.1124,-2.0978,-5.078,-4.4953,0.1808,-0.9679
-5.1561,-1.619,-0.0313,0.8643,-0.8954,-0.429,4.5523,1.3808,-6.3829,-5.4716,-1.1335,-2.0904,-5.082,-4.4763,0.1621,-0.9721
-5.1824,-1.6262,-0.064,0.8719,-0.8887,-0.4387,4.5158,1.3937,-6.1727,-5.4397,-1.0984,-2.0951,-5.0901,-4.4647,0.1783,-0.9851
-5.1824,-1.6262,-0.064,0.8719,-0.8887,-0.4387,4.5158,1.3937,-6.1727,-5.4397,-1.0984,-2.0951,-5.0901,-4.4647,0.1783,-0.9851
-5.1824,-1.6262,-0.064,0.8719,-0.8887,-0.4387,4.5158,1.3937,-6.1727,-5.4397,-1.0984,-2.0951,-5.0901,-4.4647,0.1783,-0.9851
-5.201,-1.6441,-0.0875,0.8762,-0.882,-0.4484,4.4666,1.4249,-6.1935,-5.3253,-1.1124,-2.0978,-5.0941,-4.4588,0.1787,-0.996
-5.201,-1.6441,-0.0875,0.8762,-0.882,-0.4484,4.4666,1.4249,-6.1935,-5.3253,-1.1124,-2.0978,-5.0941,-4.4588,0.1787,-0.996
-5.201,-1.6441,-0.0875,0.8762,-0.882,-0.4484,4.4666,1.4249,-6.1935,-5.3253,-1.1124,-2.0978,-5.0941,-4.4588,0.1787,-0.996
-5.2271,-1.6512,-0.1164,0.8784,-0.8753,-0.4581,4.4302,1.4378,-6.271,-5.298,-1.1404,-2.1032,-5.1184,-4.4635,0.1442,-0.9983
-5.2271,-1.6512,-0.1164,0.8784,-0.8753,-0.4581,4.4302,1.4378,-6.271,-5.298,-1.1404,-2.1032,-5.1184,-4.4635,0.1442,-0.9983
-5.2271,-1.6512,-0.1164,0.8784,-0.8753,-0.4581,4.4302,1.4378,-6.271,-5.298,-1.1404,-2.1032,-5.1184,-4.4635,0.1442,-0.9983
-5.1448,-1.6803,-0.1506,0.8784,-0.9021,-0.4193,4.4919,1.3884,-6.4478,-5.378,-1.1333,-2.1592,-5.1787,-4.4817,0.0346,-0.9956
-5.1448,-1.6803,-0.1506,0.8784,-0.9021,-0.4193,4.4919,1.3884,-6.4478,-5.378,-1.1333,-2.1592,-5.1787,-4.4817,0.0346,-0.9956
-5.1448,-1.6803,-0.1506,0.8784,-0.9021,-0.4193,4.4919,1.3884,-6.4478,-5.378,-1.1333,-2.1592,-5.1787,-4.4817,0.0346,-0.9956
-5.1523,-1.6695,-0.1614,0.8742,-0.9217,-0.4124,4.5536,1.3391,-6.5567,-5.3041,-1.1543,-2.1289,-5.1747,-4.4875,0.0066,-0.9965
-5.1673,-1.6478,-0.1721,0.87,-0.9414,-0.4055,4.5662,1.3209,-6.7086,-5.2504,-1.1823,-2.1114,-5.1908,-4.4906,-0.0275,-0.9988
-5.1673,-1.6478,-0.1721,0.87,-0.9414,-0.4055,4.5662,1.3209,-6.7086,-5.2504,-1.1823,-2.1114,-5.1908,-4.4906,-0.0275,-0.9988
-5.2216,-1.6369,-0.1881,0.8637,-0.9799,-0.4138,4.5059,1.3286,-6.7843,-5.2236,-1.2242,-2.0966,-5.1707,-4.5065,-0.0488,-1.0092
-5.2942,-1.6439,-0.1915,0.8489,-1.0312,-0.4249,4.3857,1.3437,-6.7946,-5.2909,-1.231,-2.1094,-5.1707,-4.5196,-0.0856,-1.0177
-5.2942,-1.6439,-0.1915,0.8489,-1.0312,-0.4249,4.3857,1.3437,-6.7946,-5.2909,-1.231,-2.1094,-5.1707,-4.5196,-0.0856,-1.0177
-5.2942,-1.6439,-0.1915,0.8489,-1.0312,-0.4249,4.3857,1.3437,-6.7946,-5.2909,-1.231,-2.1094,-5.1707,-4.5196,-0.0856,-1.0177
-5.3386,-1.6689,-0.1859,0.831,-1.0762,-0.4235,4.3385,1.3331,-6.7946,-5.2909,-1.224,-2.1195,-5.1907,-4.5169,-0.1007,-1.0267
-5.3386,-1.6689,-0.1859,0.831,-1.0762,-0.4235,4.3385,1.3331,-6.7946,-5.2909,-1.224,-2.1195,-5.1907,-4.5169,-0.1007,-1.0267
-5.3386,-1.6689,-0.1859,0.831,-1.0762,-0.4235,4.3385,1.3331,-6.7946,-5.2909,-1.224,-2.1195,-5.1907,-4.5169,-0.1007,-1.0267
-5.3645,-1.676,-0.1949,0.8342,-1.089,-0.4263,4.2789,1.3405,-6.6436,-5.3442,-1.238,-2.0993,-5.2028,-4.4995,-0.1129,-1.0295
-5.357,-1.6868,-0.2005,0.8521,-1.089,-0.4263,4.2914,1.3225,-6.5353,-5.4177,-1.266,-2.0818,-5.2108,-4.4879,-0.1223,-1.0262
-5.3182,-1.6761,-0.1794,0.8806,-1.0117,-0.4317,4.3385,1.3331,-6.4592,-5.4446,-1.273,-2.0717,-5.2068,-4.4805,-0.0762,-1.021
-5.3182,-1.6761,-0.1794,0.8806,-1.0117,-0.4317,4.3385,1.3331,-6.4592,-5.4446,-1.273,-2.0717,-5.2068,-4.4805,-0.0762,-1.021
-5.3182,-1.6761,-0.1794,0.8806,-1.0117,-0.4317,4.3385,1.3331,-6.4592,-5.4446,-1.273,-2.0717,-5.2068,-4.4805,-0.0762,-1.021
-5.2587,-1.6727,-0.1312,0.8996,-0.8949,-0.4511,4.3621,1.3383,-6.4478,-5.378,-1.2452,-2.0662,-5.1586,-4.4712,0.0227,-1.0094
-5.2587,-1.6727,-0.1312,0.8996,-0.8949,-0.4511,4.3621,1.3383,-6.4478,-5.378,-1.2452,-2.0662,-5.1586,-4.4712,0.0227,-1.0094
-5.1935,-1.655,-0.0591,0.9143,-0.8173,-0.4347,4.4331,1.3543,-6.5567,-5.3041,-1.1965,-2.0681,-5.1062,-4.4678,0.1343,-0.9839
-5.1935,-1.655,-0.0591,0.9143,-0.8173,-0.4347,4.4331,1.3543,-6.5567,-5.3041,-1.1965,-2.0681,-5.1062,-4.4678,0.1343,-0.9839
-5.1935,-1.655,-0.0591,0.9143,-0.8173,-0.4347,4.4331,1.3543,-6.5567,-5.3041,-1.1965,-2.0681,-5.1062,-4.4678,0.1343,-0.9839
-5.1073,-1.6445,0.0095,0.9344,-0.7657,-0.4015,4.4681,1.3831,-6.5567,-5.3041,-1.1195,-2.0877,-5.0699,-4.4542,0.2338,-0.9503
-5.1073,-1.6445,0.0095,0.9344,-0.7657,-0.4015,4.4681,1.3831,-6.5567,-5.3041,-1.1195,-2.0877,-5.0699,-4.4542,0.2338,-0.9503
-5.1073,-1.6445,0.0095,0.9344,-0.7657,-0.4015,4.4681,1.3831,-6.5567,-5.3041,-1.1195,-2.0877,-5.0699,-4.4542,0.2338,-0.9503
-4.92,-1.6201,0.1372,0.9501,-0.7009,-0.3655,4.6979,1.3708,-6.5241,-5.351,-1,-2.0761,-5.0171,-4.4242,0.4261,-0.9016
-4.92,-1.6201,0.1372,0.9501,-0.7009,-0.3655,4.6979,1.3708,-6.5241,-5.351,-1,-2.0761,-5.0171,-4.4242,0.4261,-0.9016
-4.92,-1.6201,0.1372,0.9501,-0.7009,-0.3655,4.6979,1.3708,-6.5241,-5.351,-1,-2.0761,-5.0171,-4.4242,0.4261,-0.9016
-4.8799,-1.6095,0.1629,0.9532,-0.7077,-0.3557,4.7833,1.3682,-6.4038,-5.3581,-0.9576,-2.0448,-4.9805,-4.4239,0.4962,-0.886
-4.8799,-1.6095,0.1629,0.9532,-0.7077,-0.3557,4.7833,1.3682,-6.4038,-5.3581,-0.9576,-2.0448,-4.9805,-4.4239,0.4962,-0.886
-4.8799,-1.6095,0.1629,0.9532,-0.7077,-0.3557,4.7833,1.3682,-6.4038,-5.3581,-0.9576,-2.0448,-4.9805,-4.4239,0.4962,-0.886
-4.9009,-1.6021,0.2128,0.9315,-0.7203,-0.3808,4.6712,1.4495,-6.271,-5.298,-0.8795,-2.0182,-4.8907,-4.4334,0.5632,-0.8654
-4.9009,-1.6021,0.2128,0.9315,-0.7203,-0.3808,4.6712,1.4495,-6.271,-5.298,-0.8795,-2.0182,-4.8907,-4.4334,0.5632,-0.8654
-4.9009,-1.6021,0.2128,0.9315,-0.7203,-0.3808,4.6712,1.4495,-6.271,-5.298,-0.8795,-2.0182,-4.8907,-4.4334,0.5632,-0.8654
-4.9085,-1.5911,0.222,0.9282,-0.7203,-0.3808,4.6712,1.4495,-6.1157,-5.3528,-0.8652,-2.0154,-4.8743,-4.4303,0.5795,-0.8675
-4.9085,-1.5911,0.222,0.9282,-0.7203,-0.3808,4.6712,1.4495,-6.1157,-5.3528,-0.8652,-2.0154,-4.8743,-4.4303,0.5795,-0.8675
-4.9294,-1.5837,0.2183,0.9336,-0.7135,-0.3905,4.6839,1.4311,-5.9266,-5.4554,-0.8581,-2.0257,-4.8947,-4.4142,0.573,-0.8689
-4.9294,-1.5837,0.2183,0.9336,-0.7135,-0.3905,4.6839,1.4311,-5.9266,-5.4554,-0.8581,-2.0257,-4.8947,-4.4142,0.573,-0.8689
-4.9294,-1.5837,0.2183,0.9336,-0.7135,-0.3905,4.6839,1.4311,-5.9266,-5.4554,-0.8581,-2.0257,-4.8947,-4.4142,0.573,-0.8689
-4.958,-1.5654,0.1906,0.9434,-0.6738,-0.4046,4.6967,1.4127,-5.8682,-5.3684,-0.8724,-2.0284,-4.9234,-4.413,0.5673,-0.8927
-4.958,-1.5654,0.1906,0.9434,-0.6738,-0.4046,4.6967,1.4127,-5.8682,-5.3684,-0.8724,-2.0284,-4.9234,-4.413,0.5673,-0.8927
-4.9427,-1.5873,0.1703,0.9424,-0.6806,-0.3948,4.6725,1.4074,-5.947,-5.3406,-0.8581,-2.049,-4.9479,-4.4176,0.5285,-0.89
-4.9427,-1.5873,0.1703,0.9424,-0.6806,-0.3948,4.6725,1.4074,-5.947,-5.3406,-0.8581,-2.049,-4.9479,-4.4176,0.5285,-0.89
-4.9427,-1.5873,0.1703,0.9424,-0.6806,-0.3948,4.6725,1.4074,-5.947,-5.3406,-0.8581,-2.049,-4.9479,-4.4176,0.5285,-0.89
-4.9142,-1.6056,0.1409,0.9447,-0.714,-0.3682,4.6725,1.4074,-6.0707,-5.3329,-0.8439,-2.0695,-4.9642,-4.4208,0.4898,-0.8874
-4.899,-1.6275,0.1153,0.9416,-0.7271,-0.371,4.7221,1.376,-6.1487,-5.3053,-0.8368,-2.0797,-4.9846,-4.418,0.4707,-0.8916
-4.9124,-1.6311,0.0952,0.9406,-0.7401,-0.3738,4.7348,1.3577,-6.2265,-5.2778,-0.851,-2.0592,-5.0009,-4.4211,0.4418,-0.8925
-4.9124,-1.6311,0.0952,0.9406,-0.7401,-0.3738,4.7348,1.3577,-6.2265,-5.2778,-0.851,-2.0592,-5.0009,-4.4211,0.4418,-0.8925
-4.9124,-1.6311,0.0952,0.9406,-0.7401,-0.3738,4.7348,1.3577,-6.2265,-5.2778,-0.851,-2.0592,-5.0009,-4.4211,0.4418,-0.8925
-4.9675,-1.6199,0.0788,0.9342,-0.7662,-0.3793,4.7106,1.3525,-6.304,-5.2504,-0.8937,-2.0441,-4.9927,-4.4328,0.4422,-0.9036
-4.9675,-1.6199,0.0788,0.9342,-0.7662,-0.3793,4.7106,1.3525,-6.304,-5.2504,-0.8937,-2.0441,-4.9927,-4.4328,0.4422,-0.9036
-5.0205,-1.6341,0.0699,0.9172,-0.825,-0.3806,4.6256,1.3549,-6.4693,-5.2637,-0.9221,-2.0496,-4.9724,-4.4489,0.4295,-0.9064
-5.0205,-1.6341,0.0699,0.9172,-0.825,-0.3806,4.6256,1.3549,-6.4693,-5.2637,-0.9221,-2.0496,-4.9724,-4.4489,0.4295,-0.9064
-5.0338,-1.6376,0.0736,0.9118,-0.838,-0.3834,4.5889,1.3679,-6.5131,-5.2839,-0.9363,-2.0523,-4.9643,-4.4473,0.4231,-0.9078
-5.0338,-1.6376,0.0736,0.9118,-0.838,-0.3834,4.5889,1.3679,-6.5131,-5.2839,-0.9363,-2.0523,-4.9643,-4.4473,0.4231,-0.9078
-5.0413,-1.6267,0.0791,0.9139,-0.8312,-0.3931,4.6256,1.3549,-6.2827,-5.3653,-0.9434,-2.0421,-4.9642,-4.434,0.4198,-0.903
-5.0621,-1.6194,0.0753,0.9193,-0.8312,-0.3931,4.6496,1.3602,-6.1279,-5.42,-0.9576,-2.0448,-4.9642,-4.434,0.4231,-0.9078
-5.0621,-1.6194,0.0753,0.9193,-0.8312,-0.3931,4.6496,1.3602,-6.1279,-5.42,-0.9576,-2.0448,-4.9642,-4.434,0.4231,-0.9078
-5.0621,-1.6194,0.0753,0.9193,-0.8312,-0.3931,4.6496,1.3602,-6.1279,-5.42,-0.9576,-2.0448,-4.9642,-4.434,0.4231,-0.9078
-5.0621,-1.6194,0.0625,0.9279,-0.8115,-0.4001,4.6738,1.3655,-6.0377,-5.3804,-0.9576,-2.0448,-4.9683,-4.4282,0.4459,-0.9196
-5.0621,-1.6194,0.0625,0.9279,-0.8115,-0.4001,4.6738,1.3655,-6.0377,-5.3804,-0.9576,-2.0448,-4.9683,-4.4282,0.4459,-0.9196
-5.0621,-1.6194,0.0625,0.9279,-0.8115,-0.4001,4.6738,1.3655,-6.0377,-5.3804,-0.9576,-2.0448,-4.9683,-4.4282,0.4459,-0.9196
-5.096,-1.6156,0.0516,0.9236,-0.7783,-0.4265,4.6003,1.3914,-6.1038,-5.2852,-0.9576,-2.0448,-4.9765,-4.4297,0.4459,-0.9196
-5.096,-1.6156,0.0516,0.9236,-0.7783,-0.4265,4.6003,1.3914,-6.1038,-5.2852,-0.9576,-2.0448,-4.9765,-4.4297,0.4459,-0.9196
-5.096,-1.6156,0.0479,0.929,-0.7918,-0.407,4.637,1.3785,-6.1038,-5.2852,-0.9505,-2.055,-4.9927,-4.4328,0.4202,-0.9141
-5.0677,-1.6338,0.037,0.9247,-0.8183,-0.3903,4.6003,1.3914,-6.1157,-5.3528,-0.9363,-2.0755,-5.0172,-4.4375,0.3881,-0.9101
-5.0677,-1.6338,0.037,0.9247,-0.8183,-0.3903,4.6003,1.3914,-6.1157,-5.3528,-0.9363,-2.0755,-5.0172,-4.4375,0.3881,-0.9101
-5.0187,-1.6594,0.0207,0.9184,-0.8577,-0.3764,4.5763,1.3861,-6.0377,-5.3804,-0.908,-2.0932,-5.0334,-4.4406,0.369,-0.9143
-5.0187,-1.6594,0.0207,0.9184,-0.8577,-0.3764,4.5763,1.3861,-6.0377,-5.3804,-0.908,-2.0932,-5.0334,-4.4406,0.369,-0.9143
-4.9979,-1.6667,0.0098,0.9142,-0.8706,-0.3792,4.6256,1.3549,-6.0377,-5.3804,-0.9434,-2.0652,-5.0415,-4.4421,0.3598,-0.922
-4.9979,-1.6667,0.0098,0.9142,-0.8706,-0.3792,4.6256,1.3549,-6.0377,-5.3804,-0.9434,-2.0652,-5.0415,-4.4421,0.3598,-0.922
-5.047,-1.6412,-0.0102,0.9132,-0.8836,-0.3819,4.6382,1.3367,-6.2265,-5.2778,-0.9859,-2.0502,-5.0577,-4.4452,0.3345,-0.9277
-5.047,-1.6412,-0.0102,0.9132,-0.8836,-0.3819,4.6382,1.3367,-6.2265,-5.2778,-0.9859,-2.0502,-5.0577,-4.4452,0.3345,-0.9277
-5.047,-1.6412,-0.0102,0.9132,-0.8836,-0.3819,4.6382,1.3367,-6.2265,-5.2778,-0.9859,-2.0502,-5.0577,-4.4452,0.3345,-0.9277
-5.0885,-1.6265,-0.0173,0.9036,-0.8898,-0.3944,4.6256,1.3549,-6.304,-5.2504,-1.0071,-2.0427,-5.0537,-4.4511,0.3155,-0.9319
-5.0885,-1.6265,-0.0173,0.9036,-0.8898,-0.3944,4.6256,1.3549,-6.304,-5.2504,-1.0071,-2.0427,-5.0537,-4.4511,0.3155,-0.9319
-5.1486,-1.6299,-0.0153,0.8908,-0.9156,-0.4,4.541,1.3573,-6.3813,-5.2231,-1.0141,-2.0557,-5.0456,-4.4628,0.2807,-0.9342
-5.1486,-1.6299,-0.0153,0.8908,-0.9156,-0.4,4.541,1.3573,-6.3813,-5.2231,-1.0141,-2.0557,-5.0456,-4.4628,0.2807,-0.9342
-5.1954,-1.6297,-0.0389,0.8951,-0.9217,-0.4124,4.4807,1.3649,-6.3597,-5.3381,-1.0352,-2.0713,-5.078,-4.4425,0.2113,-0.9387
-5.1954,-1.6297,-0.0389,0.8951,-0.9217,-0.4124,4.4807,1.3649,-6.3597,-5.3381,-1.0352,-2.0713,-5.078,-4.4425,0.2113,-0.9387
-5.1954,-1.6297,-0.0389,0.8951,-0.9217,-0.4124,4.4807,1.3649,-6.3597,-5.3381,-1.0352,-2.0713,-5.078,-4.4425,0.2113,-0.9387
-5.2085,-1.6333,-0.0571,0.9016,-0.9021,-0.4193,4.4443,1.3777,-6.2054,-5.3926,-1.0352,-2.0713,-5.0942,-4.4324,0.1925,-0.943
-5.2085,-1.6333,-0.0571,0.9016,-0.9021,-0.4193,4.4443,1.3777,-6.2054,-5.3926,-1.0352,-2.0713,-5.0942,-4.4324,0.1925,-0.943
-5.2085,-1.6333,-0.0571,0.9016,-0.9021,-0.4193,4.4443,1.3777,-6.2054,-5.3926,-1.0352,-2.0713,-5.0942,-4.4324,0.1925,-0.943
-5.2346,-1.6404,-0.0898,0.9091,-0.8561,-0.4429,4.4443,1.3777,-6.2827,-5.3653,-1.0845,-2.0693,-5.1063,-4.4413,0.1775,-0.9631
-5.2887,-1.6295,-0.115,0.906,-0.8365,-0.4499,4.4206,1.3724,-6.3925,-5.2908,-1.1125,-2.0748,-5.1103,-4.4487,0.143,-0.9653
-5.2942,-1.6439,-0.1456,0.9007,-0.8825,-0.4263,4.3968,1.3671,-6.5677,-5.371,-1.1614,-2.0958,-5.1466,-4.4623,0.0899,-0.9719
-5.2942,-1.6439,-0.1456,0.9007,-0.8825,-0.4263,4.3968,1.3671,-6.5677,-5.371,-1.1614,-2.0958,-5.1466,-4.4623,0.0899,-0.9719
-5.2942,-1.6439,-0.1456,0.9007,-0.8825,-0.4263,4.3968,1.3671,-6.5677,-5.371,-1.1614,-2.0958,-5.1466,-4.4623,0.0899,-0.9719
-5.2662,-1.6619,-0.1707,0.8975,-0.9156,-0.4,4.3968,1.3671,-6.6976,-5.4306,-1.1823,-2.1114,-5.1828,-4.4627,0.0371,-0.9785
-5.2662,-1.6619,-0.1707,0.8975,-0.9156,-0.4,4.3968,1.3671,-6.6976,-5.4306,-1.1823,-2.1114,-5.1828,-4.4627,0.0371,-0.9785
-5.2382,-1.6799,-0.1868,0.8912,-0.9419,-0.3833,4.4821,1.3233,-6.7836,-5.4702,-1.1962,-2.1141,-5.1989,-4.4658,0.0157,-0.9889
-5.2382,-1.6799,-0.1868,0.8912,-0.9419,-0.3833,4.4821,1.3233,-6.7836,-5.4702,-1.1962,-2.1141,-5.1989,-4.4658,0.0157,-0.9889
-5.2382,-1.6799,-0.1868,0.8912,-0.9419,-0.3833,4.4821,1.3233,-6.7836,-5.4702,-1.1962,-2.1141,-5.1989,-4.4658,0.0157,-0.9889
-5.2382,-1.6799,-0.2028,0.8849,-0.9744,-0.3792,4.5914,1.2847,-6.8263,-5.4898,-1.231,-2.1094,-5.2149,-4.4689,-0.0152,-0.996
-5.2382,-1.6799,-0.2028,0.8849,-0.9744,-0.3792,4.5914,1.2847,-6.8263,-5.4898,-1.231,-2.1094,-5.2149,-4.4689,-0.0152,-0.996
-5.2382,-1.6799,-0.2028,0.8849,-0.9744,-0.3792,4.5914,1.2847,-6.8263,-5.4898,-1.231,-2.1094,-5.2149,-4.4689,-0.0152,-0.996
-5.3516,-1.6725,-0.2239,0.8564,-1.0641,-0.3987,4.4457,1.3361,-6.7407,-5.4504,-1.238,-2.0993,-5.1948,-4.4848,-0.0648,-0.9964
-5.3516,-1.6725,-0.2239,0.8564,-1.0641,-0.3987,4.4457,1.3361,-6.7407,-5.4504,-1.238,-2.0993,-5.1948,-4.4848,-0.0648,-0.9964
-5.3774,-1.6796,-0.2255,0.849,-1.0896,-0.4042,4.4094,1.349,-6.7407,-5.4504,-1.2519,-2.102,-5.2068,-4.4805,-0.0865,-0.9959
-5.3774,-1.6796,-0.2255,0.849,-1.0896,-0.4042,4.4094,1.349,-6.7407,-5.4504,-1.2519,-2.102,-5.2068,-4.4805,-0.0865,-0.9959
-5.3774,-1.6796,-0.2255,0.849,-1.0896,-0.4042,4.4094,1.349,-6.7407,-5.4504,-1.2519,-2.102,-5.2068,-4.4805,-0.0865,-0.9959
-5.3699,-1.6903,-0.2275,0.8616,-1.0896,-0.4042,4.3732,1.3618,-6.5901,-5.5036,-1.2658,-2.1048,-5.2029,-4.4732,-0.0804,-0.9945
-5.3699,-1.6903,-0.2275,0.8616,-1.0896,-0.4042,4.3732,1.3618,-6.5901,-5.5036,-1.2658,-2.1048,-5.2029,-4.4732,-0.0804,-0.9945
-5.3645,-1.676,-0.2135,0.8806,-1.0513,-0.3959,4.3968,1.3671,-6.2862,-5.611,-1.2658,-2.1048,-5.1949,-4.4584,-0.0497,-0.9874
-5.3645,-1.676,-0.2135,0.8806,-1.0513,-0.3959,4.3968,1.3671,-6.2862,-5.611,-1.2658,-2.1048,-5.1949,-4.4584,-0.0497,-0.9874
-5.3256,-1.6653,-0.167,0.8922,-0.9609,-0.3986,4.4443,1.3777,-6.165,-5.6188,-1.2519,-2.102,-5.1748,-4.4479,0.0309,-0.9799
-5.3256,-1.6653,-0.167,0.8922,-0.9609,-0.3986,4.4443,1.3777,-6.165,-5.6188,-1.2519,-2.102,-5.1748,-4.4479,0.0309,-0.9799
-5.2662,-1.6619,-0.106,0.9028,-0.8437,-0.418,4.4919,1.3884,-6.1401,-5.4867,-1.2032,-2.104,-5.1265,-4.4386,0.1272,-0.9634
-5.2662,-1.6619,-0.106,0.9028,-0.8437,-0.418,4.4919,1.3884,-6.1401,-5.4867,-1.2032,-2.104,-5.1265,-4.4386,0.1272,-0.9634
-5.2662,-1.6619,-0.106,0.9028,-0.8437,-0.418,4.4919,1.3884,-6.1401,-5.4867,-1.2032,-2.104,-5.1265,-4.4386,0.1272,-0.9634
-5.1411,-1.6407,0.0207,0.9184,-0.7532,-0.3765,4.5636,1.4044,-6.4038,-5.3581,-1.0633,-2.0998,-5.0456,-4.423,0.2925,-0.9092
-5.1411,-1.6407,0.0207,0.9184,-0.7532,-0.3765,4.5636,1.4044,-6.4038,-5.3581,-1.0633,-2.0998,-5.0456,-4.423,0.2925,-0.9092
-5.1411,-1.6407,0.0207,0.9184,-0.7532,-0.3765,4.5636,1.4044,-6.4038,-5.3581,-1.0633,-2.0998,-5.0456,-4.423,0.2925,-0.9092
-5.0602,-1.6447,0.0625,0.9279,-0.7406,-0.3514,4.5876,1.4097,-6.3597,-5.3381,-0.9646,-2.104,-5.0049,-4.4152,0.3683,-0.8921
-5.0602,-1.6447,0.0625,0.9279,-0.7406,-0.3514,4.5876,1.4097,-6.3597,-5.3381,-0.9646,-2.104,-5.0049,-4.4152,0.3683,-0.8921
-5.013,-1.645,0.0972,0.9277,-0.7276,-0.3487,4.6611,1.3838,-6.3597,-5.3381,-0.9079,-2.0701,-4.9887,-4.3988,0.4254,-0.8793
-5.013,-1.645,0.0972,0.9277,-0.7276,-0.3487,4.6611,1.3838,-6.3597,-5.3381,-0.9079,-2.0701,-4.9887,-4.3988,0.4254,-0.8793
-5.013,-1.645,0.0972,0.9277,-0.7276,-0.3487,4.6611,1.3838,-6.3597,-5.3381,-0.9079,-2.0701,-4.9887,-4.3988,0.4254,-0.8793
-5.0016,-1.616,0.1228,0.9309,-0.7276,-0.3487,4.7094,1.3943,-6.3597,-5.3381,-0.9151,-2.0134,-4.9315,-4.4012,0.4763,-0.8679
-5.0016,-1.616,0.1228,0.9309,-0.7276,-0.3487,4.7094,1.3943,-6.3597,-5.3381,-0.9151,-2.0134,-4.9315,-4.4012,0.4763,-0.8679
-5.0489,-1.6158,0.1302,0.9201,-0.7537,-0.3542,4.6484,1.4021,-6.3154,-5.318,-0.8795,-2.0182,-4.8906,-4.4068,0.4924,-0.8699
-5.0489,-1.6158,0.1302,0.9201,-0.7537,-0.3542,4.6484,1.4021,-6.3154,-5.318,-0.8795,-2.0182,-4.8906,-4.4068,0.4924,-0.8699
-5.0489,-1.6158,0.1302,0.9201,-0.7537,-0.3542,4.6484,1.4021,-6.3154,-5.318,-0.8795,-2.0182,-4.8906,-4.4068,0.4924,-0.8699
-5.0545,-1.6303,0.1193,0.9159,-0.7996,-0.3528,4.5876,1.4097,-6.2382,-5.3453,-0.8581,-2.0257,-4.8906,-4.3934,0.5022,-0.8734
-5.0677,-1.6338,0.1009,0.9224,-0.8126,-0.3555,4.5749,1.428,-6.0829,-5.4002,-0.8937,-2.0209,-4.907,-4.3832,0.4831,-0.8776
-5.0941,-1.6409,0.0716,0.9246,-0.8188,-0.3681,4.6003,1.3914,-5.9595,-5.408,-0.8795,-2.0414,-4.9193,-4.3789,0.477,-0.8902
-5.0941,-1.6409,0.0716,0.9246,-0.8188,-0.3681,4.6003,1.3914,-5.9595,-5.408,-0.8795,-2.0414,-4.9193,-4.3789,0.477,-0.8902
-5.1148,-1.6336,0.0516,0.9236,-0.799,-0.375,4.5509,1.4227,-5.9139,-5.3882,-0.8937,-2.0441,-4.9274,-4.3804,0.4872,-0.9048
-5.1148,-1.6336,0.0516,0.9236,-0.799,-0.375,4.5509,1.4227,-5.9139,-5.3882,-0.8937,-2.0441,-4.9274,-4.3804,0.4872,-0.9048
-5.1148,-1.6336,0.0516,0.9236,-0.799,-0.375,4.5509,1.4227,-5.9139,-5.3882,-0.8937,-2.0441,-4.9274,-4.3804,0.4872,-0.9048
-5.1204,-1.648,0.0207,0.9184,-0.7855,-0.3945,4.5397,1.3991,-5.9925,-5.3605,-0.9576,-2.0448,-4.9479,-4.391,0.4714,-0.9139
-5.1204,-1.648,0.0207,0.9184,-0.7855,-0.3945,4.5397,1.3991,-5.9925,-5.3605,-0.9576,-2.0448,-4.9479,-4.391,0.4714,-0.9139
-5.1204,-1.648,0.0098,0.9142,-0.7923,-0.3848,4.5397,1.3991,-6.1487,-5.3053,-1.0141,-2.0557,-4.9887,-4.3988,0.4456,-0.9084
-5.079,-1.6627,-0.0047,0.9153,-0.8058,-0.3653,4.5158,1.3937,-6.2054,-5.3926,-0.9929,-2.0863,-5.0212,-4.405,0.4164,-0.8981
-5.079,-1.6627,-0.0047,0.9153,-0.8058,-0.3653,4.5158,1.3937,-6.2054,-5.3926,-0.9929,-2.0863,-5.0212,-4.405,0.4164,-0.8981
-5.079,-1.6627,-0.0047,0.9153,-0.8058,-0.3653,4.5158,1.3937,-6.2054,-5.3926,-0.9929,-2.0863,-5.0212,-4.405,0.4164,-0.8981
-5.0376,-1.6773,0.0044,0.9121,-0.8323,-0.3485,4.5523,1.3808,-6.2827,-5.3653,-0.9717,-2.0938,-5.0416,-4.4023,0.4101,-0.8996
-5.0376,-1.6773,0.0044,0.9121,-0.8323,-0.3485,4.5523,1.3808,-6.2827,-5.3653,-0.9717,-2.0938,-5.0416,-4.4023,0.4101,-0.8996
-5.0394,-1.652,0.0007,0.9174,-0.8058,-0.3653,4.6016,1.3497,-6.4253,-5.2434,-0.9717,-2.0707,-5.0416,-4.4023,0.4067,-0.8947
-5.0394,-1.652,0.0007,0.9174,-0.8058,-0.3653,4.6016,1.3497,-6.4253,-5.2434,-0.9717,-2.0707,-5.0416,-4.4023,0.4067,-0.8947
-5.0696,-1.6085,0.0135,0.9088,-0.8058,-0.3653,4.6382,1.3367,-6.5351,-5.1688,-0.9859,-2.0502,-5.0416,-4.4023,0.4004,-0.8961
-5.0696,-1.6085,0.0135,0.9088,-0.8058,-0.3653,4.6382,1.3367,-6.5351,-5.1688,-0.9859,-2.0502,-5.0416,-4.4023,0.4004,-0.8961
-5.0696,-1.6085,0.0135,0.9088,-0.8058,-0.3653,4.6382,1.3367,-6.5351,-5.1688,-0.9859,-2.0502,-5.0416,-4.4023,0.4004,-0.8961
-5.0923,-1.5757,0.019,0.9109,-0.799,-0.375,4.6382,1.3367,-6.5681,-5.1211,-1.0001,-2.0298,-5.0172,-4.4109,0.4004,-0.8961
-5.0923,-1.5757,0.019,0.9109,-0.799,-0.375,4.6382,1.3367,-6.5681,-5.1211,-1.0001,-2.0298,-5.0172,-4.4109,0.4004,-0.8961
-5.147,-1.5647,0.0209,0.8981,-0.838,-0.3834,4.565,1.3626,-6.5787,-5.1892,-0.9717,-2.0475,-4.9887,-4.4254,0.378,-0.8955
-5.1732,-1.5719,0.032,0.8821,-0.8768,-0.3917,4.4919,1.3884,-6.5458,-5.2366,-0.9717,-2.0475,-4.9642,-4.434,0.3813,-0.9004
-5.1732,-1.5719,0.032,0.8821,-0.8768,-0.3917,4.4919,1.3884,-6.5458,-5.2366,-0.9717,-2.0475,-4.9642,-4.434,0.3813,-0.9004
-5.1919,-1.59,0.0303,0.8747,-0.9027,-0.3972,4.4317,1.3959,-6.4693,-5.2637,-0.9505,-2.055,-4.9724,-4.4223,0.3784,-0.9066
-5.1919,-1.59,0.0303,0.8747,-0.9027,-0.3972,4.4317,1.3959,-6.4693,-5.2637,-0.9505,-2.055,-4.9724,-4.4223,0.3784,-0.9066
-5.1712,-1.5973,0.0209,0.8981,-0.8898,-0.3944,4.4681,1.3831,-6.2382,-5.3453,-0.9576,-2.0448,-4.9764,-4.4164,0.3657,-0.9095
-5.1712,-1.5973,0.0209,0.8981,-0.8898,-0.3944,4.4681,1.3831,-6.2382,-5.3453,-0.9576,-2.0448,-4.9764,-4.4164,0.3657,-0.9095
-5.1637,-1.6081,-0.0047,0.9153,-0.8898,-0.3944,4.4443,1.3777,-5.9595,-5.408,-0.9576,-2.0448,-4.9927,-4.4062,0.3497,-0.9075
-5.1637,-1.6081,-0.0047,0.9153,-0.8898,-0.3944,4.4443,1.3777,-5.9595,-5.408,-0.9576,-2.0448,-4.9927,-4.4062,0.3497,-0.9075
-5.1899,-1.6153,-0.023,0.9217,-0.8701,-0.4014,4.4206,1.3724,-5.947,-5.3406,-0.9717,-2.0475,-4.9887,-4.4121,0.3564,-0.9172
-5.2085,-1.6333,-0.052,0.9239,-0.8634,-0.4111,4.3968,1.3671,-6.0919,-5.2171,-0.9859,-2.0502,-4.9968,-4.4137,0.3438,-0.92
-5.2085,-1.6333,-0.052,0.9239,-0.8634,-0.4111,4.3968,1.3671,-6.0919,-5.2171,-0.9859,-2.0502,-4.9968,-4.4137,0.3438,-0.92
-5.2085,-1.6333,-0.052,0.9239,-0.8634,-0.4111,4.3968,1.3671,-6.0919,-5.2171,-0.9859,-2.0502,-4.9968,-4.4137,0.3438,-0.92
-5.2216,-1.6369,-0.0665,0.925,-0.8504,-0.4083,4.3968,1.3671,-6.2927,-5.1824,-1.0282,-2.0584,-5.0212,-4.4183,0.3055,-0.9174
-5.2216,-1.6369,-0.0665,0.925,-0.8504,-0.4083,4.3968,1.3671,-6.2927,-5.1824,-1.0282,-2.0584,-5.0212,-4.4183,0.3055,-0.9174
-5.1935,-1.655,-0.0736,0.9154,-0.8768,-0.3917,4.3732,1.3618,-6.5021,-5.2163,-1.0211,-2.0917,-5.0496,-4.4172,0.2673,-0.9149
-5.1935,-1.655,-0.0736,0.9154,-0.8768,-0.3917,4.3732,1.3618,-6.5021,-5.2163,-1.0211,-2.0917,-5.0496,-4.4172,0.2673,-0.9149
-5.1935,-1.655,-0.0736,0.9154,-0.8768,-0.3917,4.3732,1.3618,-6.5021,-5.2163,-1.0211,-2.0917,-5.0496,-4.4172,0.2673,-0.9149
-5.1654,-1.6731,-0.0844,0.9112,-0.9032,-0.375,4.4094,1.349,-6.5894,-5.2569,-1.0281,-2.1046,-5.0618,-4.4261,0.2326,-0.9172
-5.1654,-1.6731,-0.0915,0.9017,-0.9229,-0.368,4.5059,1.3286,-6.6328,-5.2772,-1.0563,-2.0869,-5.0739,-4.4351,0.2171,-0.9263
-5.1804,-1.6514,-0.106,0.9028,-0.9229,-0.368,4.6154,1.2899,-6.6436,-5.3442,-1.1056,-2.0619,-5.1023,-4.4339,0.1921,-0.932
-5.1804,-1.6514,-0.106,0.9028,-0.9229,-0.368,4.6154,1.2899,-6.6436,-5.3442,-1.1056,-2.0619,-5.1023,-4.4339,0.1921,-0.932
-5.1804,-1.6514,-0.106,0.9028,-0.9229,-0.368,4.6154,1.2899,-6.6436,-5.3442,-1.1056,-2.0619,-5.1023,-4.4339,0.1921,-0.932
-5.2236,-1.6116,-0.1204,0.9038,-0.9425,-0.3611,4.6887,1.264,-6.6436,-5.3442,-1.1337,-2.0442,-5.1144,-4.4296,0.1638,-0.9328
-5.2236,-1.6116,-0.1204,0.9038,-0.9425,-0.3611,4.6887,1.264,-6.6436,-5.3442,-1.1337,-2.0442,-5.1144,-4.4296,0.1638,-0.9328
-5.2572,-1.6079,-0.1365,0.8975,-0.9615,-0.3764,4.6154,1.2899,-6.6436,-5.3442,-1.1758,-2.0294,-5.0901,-4.4382,0.1417,-0.9323
-5.2572,-1.6079,-0.1365,0.8975,-0.9615,-0.3764,4.6154,1.2899,-6.6436,-5.3442,-1.1758,-2.0294,-5.0901,-4.4382,0.1417,-0.9323
-5.3037,-1.6078,-0.149,0.8858,-1.0001,-0.3847,4.5059,1.3286,-6.6436,-5.3442,-1.1897,-2.0321,-5.0658,-4.4468,0.1197,-0.9318
-5.3037,-1.6078,-0.149,0.8858,-1.0001,-0.3847,4.5059,1.3286,-6.6436,-5.3442,-1.1897,-2.0321,-5.0658,-4.4468,0.1197,-0.9318
-5.3092,-1.6222,-0.1506,0.8784,-1.0001,-0.3847,4.4331,1.3543,-6.7192,-5.3175,-1.1896,-2.0552,-5.0739,-4.4483,0.0887,-0.9389
-5.3092,-1.6222,-0.1506,0.8784,-1.0001,-0.3847,4.4331,1.3543,-6.7192,-5.3175,-1.1896,-2.0552,-5.0739,-4.4483,0.0887,-0.9389
-5.3147,-1.6366,-0.1687,0.8848,-1.0263,-0.3682,4.4094,1.349,-6.6112,-5.3909,-1.1965,-2.0681,-5.1023,-4.4339,0.0515,-0.9475
-5.3426,-1.6186,-0.1958,0.8944,-1.0263,-0.3682,4.4094,1.349,-6.4592,-5.4446,-1.2243,-2.0736,-5.1103,-4.4355,0.011,-0.9512
-5.3426,-1.6186,-0.1958,0.8944,-1.0263,-0.3682,4.4094,1.349,-6.4592,-5.4446,-1.2243,-2.0736,-5.1103,-4.4355,0.011,-0.9512
-5.3426,-1.6186,-0.1958,0.8944,-1.0263,-0.3682,4.4094,1.349,-6.4592,-5.4446,-1.2243,-2.0736,-5.1103,-4.4355,0.011,-0.9512
-5.3556,-1.6222,-0.2102,0.8955,-0.9872,-0.382,4.4094,1.349,-6.4153,-5.4249,-1.2382,-2.0763,-5.1265,-4.4386,0.0086,-0.9684
-5.3556,-1.6222,-0.2102,0.8955,-0.9872,-0.382,4.4094,1.349,-6.4153,-5.4249,-1.2382,-2.0763,-5.1265,-4.4386,0.0086,-0.9684
-5.3556,-1.6222,-0.2102,0.8955,-0.9872,-0.382,4.4094,1.349,-6.4153,-5.4249,-1.2382,-2.0763,-5.1265,-4.4386,0.0086,-0.9684
-5.3352,-1.6294,-0.1958,0.8944,-0.9223,-0.3903,4.3968,1.3671,-6.4693,-5.2637,-1.2382,-2.0763,-5.1386,-4.4343,0.0309,-0.9799
-5.3352,-1.6294,-0.1958,0.8944,-0.9223,-0.3903,4.3968,1.3671,-6.4693,-5.2637,-1.2382,-2.0763,-5.1386,-4.4343,0.0309,-0.9799
-5.3352,-1.6294,-0.1724,0.8901,-0.883,-0.4041,4.3732,1.3618,-6.5351,-5.1688,-1.2173,-2.0837,-5.1225,-4.4312,0.0775,-0.9747
-5.2887,-1.6295,-0.1221,0.8964,-0.838,-0.3834,4.408,1.3906,-6.5458,-5.2366,-1.1754,-2.0985,-5.1063,-4.4281,0.1268,-0.9524
-5.2887,-1.6295,-0.1221,0.8964,-0.838,-0.3834,4.408,1.3906,-6.5458,-5.2366,-1.1754,-2.0985,-5.1063,-4.4281,0.1268,-0.9524
-5.2085,-1.6333,-0.0699,0.9101,-0.8323,-0.3485,4.4317,1.3959,-6.5894,-5.2569,-1.0633,-2.1228,-5.0659,-4.4203,0.195,-0.9257
-5.2085,-1.6333,-0.0699,0.9101,-0.8323,-0.3485,4.4317,1.3959,-6.5894,-5.2569,-1.0633,-2.1228,-5.0659,-4.4203,0.195,-0.9257
-5.1073,-1.6445,-0.003,0.9227,-0.7871,-0.3276,4.5523,1.3808,-6.6002,-5.3242,-0.9999,-2.1222,-5.0172,-4.4109,0.2829,-0.9058
-5.1073,-1.6445,-0.003,0.9227,-0.7871,-0.3276,4.5523,1.3808,-6.6002,-5.3242,-0.9999,-2.1222,-5.0172,-4.4109,0.2829,-0.9058
-5.1073,-1.6445,-0.003,0.9227,-0.7871,-0.3276,4.5523,1.3808,-6.6002,-5.3242,-0.9999,-2.1222,-5.0172,-4.4109,0.2829,-0.9058
-5.0413,-1.6267,0.0496,0.9365,-0.761,-0.322,4.6496,1.3602,-6.5131,-5.2839,-0.9505,-2.0782,-4.9438,-4.3969,0.3742,-0.8796
-5.0413,-1.6267,0.0496,0.9365,-0.761,-0.322,4.6496,1.3602,-6.5131,-5.2839,-0.9505,-2.0782,-4.9438,-4.3969,0.3742,-0.8796
-5.03,-1.5978,0.1007,0.9427,-0.748,-0.3193,4.6979,1.3708,-6.3597,-5.3381,-0.8866,-2.0544,-4.8865,-4.386,0.4602,-0.8659
-5.03,-1.5978,0.1007,0.9427,-0.748,-0.3193,4.6979,1.3708,-6.3597,-5.3381,-0.8866,-2.0544,-4.8865,-4.386,0.4602,-0.8659
-5.03,-1.5978,0.1007,0.9427,-0.748,-0.3193,4.6979,1.3708,-6.3597,-5.3381,-0.8866,-2.0544,-4.8865,-4.386,0.4602,-0.8659
-5.03,-1.5978,0.1796,0.9392,-0.7877,-0.3052,4.6357,1.4204,-6.3597,-5.3381,-0.851,-2.0127,-4.7919,-4.3748,0.5463,-0.841
-5.03,-1.5978,0.1796,0.9392,-0.7877,-0.3052,4.6357,1.4204,-6.3597,-5.3381,-0.851,-2.0127,-4.7919,-4.3748,0.5463,-0.841
-5.0376,-1.5868,0.1998,0.9402,-0.7678,-0.3122,4.6357,1.4204,-6.3483,-5.2707,-0.8296,-1.9969,-4.7835,-4.3464,0.5784,-0.8339
-5.0376,-1.5868,0.1998,0.9402,-0.7678,-0.3122,4.6357,1.4204,-6.3483,-5.2707,-0.8296,-1.9969,-4.7835,-4.3464,0.5784,-0.8339
-5.0168,-1.5942,0.2108,0.9444,-0.7746,-0.3024,4.6967,1.4127,-6.1606,-5.3727,-0.8153,-1.9942,-4.7835,-4.3329,0.5912,-0.831
-5.0168,-1.5942,0.2108,0.9444,-0.7746,-0.3024,4.6967,1.4127,-6.1606,-5.3727,-0.8153,-1.9942,-4.7835,-4.3329,0.5912,-0.831
-5.0168,-1.5942,0.1923,0.9509,-0.7412,-0.3291,4.6598,1.4257,-6.0049,-5.4278,-0.7938,-2.0018,-4.7794,-4.3254,0.6173,-0.8365
-5.0243,-1.5833,0.1868,0.9488,-0.7014,-0.3431,4.6839,1.4311,-5.9925,-5.3605,-0.7938,-2.0018,-4.7917,-4.321,0.634,-0.8498
-5.0243,-1.5833,0.1868,0.9488,-0.7014,-0.3431,4.6839,1.4311,-5.9925,-5.3605,-0.7938,-2.0018,-4.7917,-4.321,0.634,-0.8498
-5.0243,-1.5833,0.1868,0.9488,-0.7014,-0.3431,4.6839,1.4311,-5.9925,-5.3605,-0.7938,-2.0018,-4.7917,-4.321,0.634,-0.8498
-5.0168,-1.5942,0.1611,0.9457,-0.6747,-0.3599,4.6839,1.4311,-5.968,-5.2246,-0.7723,-2.0094,-4.7917,-4.321,0.634,-0.8498
-5.0168,-1.5942,0.1611,0.9457,-0.6747,-0.3599,4.6839,1.4311,-5.968,-5.2246,-0.7723,-2.0094,-4.7917,-4.321,0.634,-0.8498
-5.0376,-1.5868,0.1392,0.9372,-0.6747,-0.3599,4.6598,1.4257,-6.0467,-5.1968,-0.7938,-2.0251,-4.8207,-4.3333,0.5984,-0.852
-5.0376,-1.5868,0.1392,0.9372,-0.6747,-0.3599,4.6598,1.4257,-6.0467,-5.1968,-0.7938,-2.0251,-4.8207,-4.3333,0.5984,-0.852
-4.9826,-1.598,0.119,0.9362,-0.6883,-0.3403,4.6598,1.4257,-6.1369,-5.2374,-0.7867,-2.0587,-4.8618,-4.3411,0.5531,-0.8508
-4.9826,-1.598,0.119,0.9362,-0.6883,-0.3403,4.6598,1.4257,-6.1369,-5.2374,-0.7867,-2.0587,-4.8618,-4.3411,0.5531,-0.8508
-4.9485,-1.6018,0.1081,0.932,-0.7014,-0.3431,4.6725,1.4074,-6.1818,-5.2576,-0.8153,-2.0641,-4.8988,-4.3549,0.5146,-0.8593
-4.9485,-1.6018,0.1081,0.932,-0.7014,-0.3431,4.6725,1.4074,-6.1818,-5.2576,-0.8153,-2.0641,-4.8988,-4.3549,0.5146,-0.8593
-4.9485,-1.6018,0.1081,0.932,-0.7014,-0.3431,4.6725,1.4074,-6.1818,-5.2576,-0.8153,-2.0641,-4.8988,-4.3549,0.5146,-0.8593
-4.9561,-1.5909,0.0972,0.9277,-0.7213,-0.3361,4.7221,1.376,-6.2149,-5.2098,-0.8296,-2.0436,-4.9111,-4.3639,0.4955,-0.8636
-4.9561,-1.5909,0.0972,0.9277,-0.7213,-0.3361,4.7221,1.376,-6.2149,-5.2098,-0.8296,-2.0436,-4.9111,-4.3639,0.4955,-0.8636
-4.9789,-1.558,0.1009,0.9224,-0.7542,-0.3318,4.8087,1.3316,-6.3259,-5.1344,-0.8652,-2.0154,-4.9233,-4.373,0.4797,-0.8728
-4.9789,-1.558,0.1009,0.9224,-0.7542,-0.3318,4.8087,1.3316,-6.3259,-5.1344,-0.8652,-2.0154,-4.9233,-4.373,0.4797,-0.8728
-5.0282,-1.5322,0.09,0.9182,-0.7871,-0.3276,4.8087,1.3316,-6.3927,-5.0381,-0.8724,-2.0051,-4.907,-4.3832,0.4733,-0.8742
-5.0282,-1.5322,0.09,0.9182,-0.7871,-0.3276,4.8087,1.3316,-6.3927,-5.0381,-0.8724,-2.0051,-4.907,-4.3832,0.4733,-0.8742
-5.0623,-1.5285,0.1011,0.9021,-0.8329,-0.3262,4.7106,1.3525,-6.3149,-5.0656,-0.8367,-2.01,-4.8824,-4.3919,0.4733,-0.8742
-5.0679,-1.5431,0.1048,0.8967,-0.8459,-0.329,4.637,1.3785,-6.3592,-5.0864,-0.8081,-2.0278,-4.866,-4.4021,0.4606,-0.877
-5.0679,-1.5431,0.1048,0.8967,-0.8459,-0.329,4.637,1.3785,-6.3592,-5.0864,-0.8081,-2.0278,-4.866,-4.4021,0.4606,-0.877
-5.0679,-1.5431,0.1048,0.8967,-0.8459,-0.329,4.637,1.3785,-6.3592,-5.0864,-0.8081,-2.0278,-4.866,-4.4021,0.4606,-0.877
-5.0811,-1.5467,0.0957,0.9,-0.8656,-0.322,4.6129,1.3732,-6.1701,-5.1895,-0.8296,-2.0203,-4.8701,-4.3962,0.4512,-0.8847
-5.0811,-1.5467,0.0882,0.9107,-0.8459,-0.329,4.6003,1.3914,-5.9346,-5.2727,-0.8367,-2.01,-4.8742,-4.3903,0.4385,-0.8876
-5.0811,-1.5467,0.0882,0.9107,-0.8459,-0.329,4.6003,1.3914,-5.9346,-5.2727,-0.8367,-2.01,-4.8742,-4.3903,0.4385,-0.8876
-5.0603,-1.554,0.0753,0.9193,-0.8063,-0.343,4.5636,1.4044,-5.8556,-5.3006,-0.8581,-2.0024,-4.8824,-4.3919,0.4422,-0.9036
-5.0603,-1.554,0.0753,0.9193,-0.8063,-0.343,4.5636,1.4044,-5.8556,-5.3006,-0.8581,-2.0024,-4.8824,-4.3919,0.4422,-0.9036
-5.0603,-1.554,0.0753,0.9193,-0.8063,-0.343,4.5636,1.4044,-5.8556,-5.3006,-0.8581,-2.0024,-4.8824,-4.3919,0.4422,-0.9036
-5.0527,-1.565,0.0607,0.9204,-0.76,-0.3667,4.5397,1.3991,-5.968,-5.2246,-0.8866,-2.0079,-4.8865,-4.3993,0.4426,-0.9147
-5.0527,-1.565,0.0607,0.9204,-0.76,-0.3667,4.5397,1.3991,-5.968,-5.2246,-0.8866,-2.0079,-4.8865,-4.3993,0.4426,-0.9147
-5.0943,-1.5503,0.0498,0.9162,-0.7401,-0.3738,4.5158,1.3937,-6.1587,-5.1208,-0.9151,-2.0134,-4.907,-4.4099,0.4138,-0.9155
-5.0943,-1.5503,0.0498,0.9162,-0.7401,-0.3738,4.5158,1.3937,-6.1587,-5.1208,-0.9151,-2.0134,-4.907,-4.4099,0.4138,-0.9155
-5.0943,-1.5503,0.0498,0.9162,-0.7401,-0.3738,4.5158,1.3937,-6.1587,-5.1208,-0.9151,-2.0134,-4.907,-4.4099,0.4138,-0.9155
-5.0527,-1.565,0.0353,0.9173,-0.7741,-0.3248,4.5031,1.412,-6.4583,-5.1959,-0.8866,-2.0776,-4.9846,-4.4047,0.3274,-0.9069
-5.0527,-1.565,0.0353,0.9173,-0.7741,-0.3248,4.5031,1.412,-6.4583,-5.1959,-0.8866,-2.0776,-4.9846,-4.4047,0.3274,-0.9069
-5.0243,-1.5833,0.0207,0.9184,-0.8137,-0.3108,4.4793,1.4066,-6.4693,-5.2637,-0.8724,-2.098,-5.005,-4.4019,0.3085,-0.9112
-5.0243,-1.5833,0.0207,0.9184,-0.8137,-0.3108,4.4793,1.4066,-6.4693,-5.2637,-0.8724,-2.098,-5.005,-4.4019,0.3085,-0.9112
-5.0243,-1.5833,0.0207,0.9184,-0.8137,-0.3108,4.4793,1.4066,-6.4693,-5.2637,-0.8724,-2.098,-5.005,-4.4019,0.3085,-0.9112
-4.9959,-1.6016,-0.003,0.9227,-0.8465,-0.3066,4.565,1.3626,-6.4693,-5.2637,-0.8866,-2.0776,-5.009,-4.396,0.2959,-0.914
-4.9959,-1.6016,-0.003,0.9227,-0.8465,-0.3066,4.565,1.3626,-6.4693,-5.2637,-0.8866,-2.0776,-5.009,-4.396,0.2959,-0.914
-4.9959,-1.6016,-0.003,0.9227,-0.8465,-0.3066,4.565,1.3626,-6.4693,-5.2637,-0.8866,-2.0776,-5.009,-4.396,0.2959,-0.914
-5.066,-1.5686,-0.0301,0.9122,-0.8521,-0.3416,4.5902,1.3262,-6.3925,-5.2908,-0.9718,-2.0243,-5.005,-4.4019,0.2581,-0.9226
-5.066,-1.5686,-0.0301,0.9122,-0.8521,-0.3416,4.5902,1.3262,-6.3925,-5.2908,-0.9718,-2.0243,-5.005,-4.4019,0.2581,-0.9226
-5.0923,-1.5757,-0.0372,0.9026,-0.8909,-0.35,4.5297,1.3338,-6.4365,-5.3109,-1.0213,-2.0223,-4.9887,-4.4254,0.2201,-0.92
-5.0923,-1.5757,-0.0372,0.9026,-0.8909,-0.35,4.5297,1.3338,-6.4365,-5.3109,-1.0213,-2.0223,-4.9887,-4.4254,0.2201,-0.92
-5.1318,-1.5865,-0.0534,0.8962,-0.9296,-0.3583,4.4695,1.3414,-6.5131,-5.2839,-1.0354,-2.025,-4.9887,-4.4254,0.195,-0.9257
-5.1318,-1.5865,-0.0534,0.8962,-0.9296,-0.3583,4.4695,1.3414,-6.5131,-5.2839,-1.0354,-2.025,-4.9887,-4.4254,0.195,-0.9257
-5.1318,-1.5865,-0.0534,0.8962,-0.9296,-0.3583,4.4695,1.3414,-6.5131,-5.2839,-1.0354,-2.025,-4.9887,-4.4254,0.195,-0.9257
-5.145,-1.5901,-0.0679,0.8974,-0.9229,-0.368,4.4331,1.3543,-6.4038,-5.3581,-1.0564,-2.0407,-5.0131,-4.4168,0.1542,-0.9295
-5.145,-1.5901,-0.0679,0.8974,-0.9229,-0.368,4.4331,1.3543,-6.4038,-5.3581,-1.0564,-2.0407,-5.0131,-4.4168,0.1542,-0.9295
-5.2276,-1.5609,-0.1063,0.923,-0.9161,-0.3778,4.4094,1.349,-6.1727,-5.4397,-1.0986,-2.0489,-5.0577,-4.4187,0.1368,-0.9668
-5.2276,-1.5609,-0.1063,0.923,-0.9161,-0.3778,4.4094,1.349,-6.1727,-5.4397,-1.0986,-2.0489,-5.0577,-4.4187,0.1368,-0.9668
-5.2276,-1.5609,-0.1063,0.923,-0.9161,-0.3778,4.4094,1.349,-6.1727,-5.4397,-1.0986,-2.0489,-5.0577,-4.4187,0.1368,-0.9668
-5.2276,-1.5609,-0.1116,0.9208,-0.8639,-0.3889,4.3968,1.3671,-6.3154,-5.318,-1.1337,-2.0442,-5.078,-4.416,0.131,-0.9792
-5.2276,-1.5609,-0.1116,0.9208,-0.8639,-0.3889,4.3968,1.3671,-6.3154,-5.318,-1.1337,-2.0442,-5.078,-4.416,0.131,-0.9792
-5.2276,-1.5609,-0.1116,0.9208,-0.8639,-0.3889,4.3968,1.3671,-6.3154,-5.318,-1.1337,-2.0442,-5.078,-4.416,0.131,-0.9792
-5.2537,-1.5681,-0.1133,0.9134,-0.8375,-0.4056,4.4094,1.349,-6.3925,-5.2908,-1.1617,-2.0497,-5.0982,-4.4265,0.0966,-0.9815
-5.2537,-1.5681,-0.1133,0.9134,-0.8375,-0.4056,4.4094,1.349,-6.3925,-5.2908,-1.1617,-2.0497,-5.0982,-4.4265,0.0966,-0.9815
-5.2537,-1.5681,-0.1133,0.9134,-0.8375,-0.4056,4.4094,1.349,-6.3925,-5.2908,-1.1617,-2.0497,-5.0982,-4.4265,0.0966,-0.9815
-5.218,-1.5971,-0.1385,0.9102,-0.8841,-0.3597,4.3732,1.3618,-6.7086,-5.2504,-1.1264,-2.1005,-5.1627,-4.439,-0.0165,-0.9631
-5.218,-1.5971,-0.1385,0.9102,-0.8841,-0.3597,4.3732,1.3618,-6.7086,-5.2504,-1.1264,-2.1005,-5.1627,-4.439,-0.0165,-0.9631
-5.1768,-1.6117,-0.1566,0.9166,-0.9106,-0.343,4.3606,1.3799,-6.7517,-5.2706,-1.1264,-2.1235,-5.1869,-4.4437,-0.0662,-0.9636
-5.1768,-1.6117,-0.1566,0.9166,-0.9106,-0.343,4.3606,1.3799,-6.7517,-5.2706,-1.1264,-2.1235,-5.1869,-4.4437,-0.0662,-0.9636
-5.1768,-1.6117,-0.1711,0.9177,-0.9302,-0.3361,4.4821,1.3233,-6.7517,-5.2706,-1.1544,-2.1059,-5.1909,-4.451,-0.0907,-0.9693
-5.1768,-1.6117,-0.1711,0.9177,-0.9302,-0.3361,4.4821,1.3233,-6.7517,-5.2706,-1.1544,-2.1059,-5.1909,-4.451,-0.0907,-0.9693
-5.1919,-1.59,-0.1674,0.9124,-0.8909,-0.35,4.5549,1.2976,-6.7517,-5.2706,-1.1755,-2.0755,-5.1868,-4.4569,-0.0874,-0.974
-5.1919,-1.59,-0.1674,0.9124,-0.8909,-0.35,4.5549,1.2976,-6.7517,-5.2706,-1.1755,-2.0755,-5.1868,-4.4569,-0.0874,-0.974
-5.1808,-1.561,-0.1422,0.9156,-0.8385,-0.3611,4.5662,1.3209,-6.7192,-5.3175,-1.1965,-2.0681,-5.1708,-4.4538,-0.0657,-0.9745
-5.1808,-1.561,-0.1422,0.9156,-0.8385,-0.3611,4.5662,1.3209,-6.7192,-5.3175,-1.1965,-2.0681,-5.1708,-4.4538,-0.0657,-0.9745
-5.1753,-1.5464,-0.0935,0.9144,-0.8453,-0.3513,4.5171,1.352,-6.7622,-5.3376,-1.1825,-2.0654,-5.1143,-4.4561,-0.0042,-0.9603
-5.1753,-1.5464,-0.0935,0.9144,-0.8453,-0.3513,4.5171,1.352,-6.7622,-5.3376,-1.1825,-2.0654,-5.1143,-4.4561,-0.0042,-0.9603
-5.1283,-1.5465,-0.0156,0.911,-0.8391,-0.3388,4.4919,1.3884,-6.7299,-5.3842,-1.1336,-2.0673,-5.0334,-4.4538,0.1015,-0.9471
-5.0679,-1.5431,0.0753,0.9193,-0.8199,-0.3234,4.5031,1.412,-6.5677,-5.371,-1.0494,-2.0509,-4.9683,-4.4282,0.2234,-0.9248
-5.0679,-1.5431,0.0753,0.9193,-0.8199,-0.3234,4.5031,1.412,-6.5677,-5.371,-1.0494,-2.0509,-4.9683,-4.4282,0.2234,-0.9248
-5.0679,-1.5431,0.0753,0.9193,-0.8199,-0.3234,4.5031,1.412,-6.5677,-5.371,-1.0494,-2.0509,-4.9683,-4.4282,0.2234,-0.9248
-5.0226,-1.5176,0.1392,0.9372,-0.7809,-0.315,4.5876,1.4097,-6.2827,-5.3653,-0.9505,-2.0318,-4.8947,-4.4009,0.3594,-0.9109
-5.0226,-1.5176,0.1392,0.9372,-0.7809,-0.315,4.5876,1.4097,-6.2827,-5.3653,-0.9505,-2.0318,-4.8947,-4.4009,0.3594,-0.9109
-4.9828,-1.5068,0.1794,0.9596,-0.748,-0.3193,4.6611,1.3838,-5.9595,-5.408,-0.8795,-2.0182,-4.8454,-4.3782,0.4677,-0.8979
-4.9828,-1.5068,0.1794,0.9596,-0.748,-0.3193,4.6611,1.3838,-5.9595,-5.408,-0.8795,-2.0182,-4.8454,-4.3782,0.4677,-0.8979
-4.9162,-1.4886,0.2271,0.9712,-0.682,-0.3277,4.6725,1.4074,-5.8224,-5.3485,-0.8224,-2.0072,-4.8125,-4.372,0.5609,-0.8941
-4.9162,-1.4886,0.2271,0.9712,-0.682,-0.3277,4.6725,1.4074,-5.8224,-5.3485,-0.8224,-2.0072,-4.8125,-4.372,0.5609,-0.8941
-4.8684,-1.4888,0.2547,0.9818,-0.609,-0.3461,4.7094,1.3943,-5.7972,-5.212,-0.7651,-1.9963,-4.7794,-4.3657,0.6286,-0.8848
-4.8684,-1.4888,0.2547,0.9818,-0.609,-0.3461,4.7094,1.3943,-5.7972,-5.212,-0.7651,-1.9963,-4.7794,-4.3657,0.6286,-0.8848
-4.8684,-1.4888,0.2547,0.9818,-0.609,-0.3461,4.7094,1.3943,-5.7972,-5.212,-0.7651,-1.9963,-4.7794,-4.3657,0.6286,-0.8848
-4.8684,-1.4888,0.2547,0.9818,-0.609,-0.3461,4.7094,1.3943,-5.7972,-5.212,-0.7651,-1.9963,-4.7794,-4.3657,0.6286,-0.8848
-4.78,-1.4782,0.2879,0.9946,-0.5767,-0.3055,4.6967,1.4127,-6.0134,-5.2448,-0.6789,-2.0268,-4.7794,-4.3657,0.6408,-0.8596
-4.78,-1.4782,0.2879,0.9946,-0.5767,-0.3055,4.6967,1.4127,-6.0134,-5.2448,-0.6789,-2.0268,-4.7794,-4.3657,0.6408,-0.8596
-4.78,-1.4782,0.2879,0.9946,-0.5767,-0.3055,4.6967,1.4127,-6.0134,-5.2448,-0.6789,-2.0268,-4.7794,-4.3657,0.6408,-0.8596
-4.6816,-1.5046,0.2897,1.0022,-0.5973,-0.2759,4.7209,1.418,-6.0255,-5.3128,-0.6285,-2.0524,-4.7753,-4.3717,0.6343,-0.861
-4.6408,-1.4938,0.2952,1.0043,-0.5909,-0.2632,4.832,1.3787,-6.0587,-5.265,-0.6284,-2.029,-4.7753,-4.3717,0.618,-0.859
-4.6349,-1.479,0.2804,1.0055,-0.6041,-0.266,4.8692,1.3656,-6.0587,-5.265,-0.6788,-2.0034,-4.7836,-4.3732,0.5953,-0.8583
-4.6349,-1.479,0.2804,1.0055,-0.6041,-0.266,4.8692,1.3656,-6.0587,-5.265,-0.6788,-2.0034,-4.7836,-4.3732,0.5953,-0.8583
-4.6349,-1.479,0.2804,1.0055,-0.6041,-0.266,4.8692,1.3656,-6.0587,-5.265,-0.6788,-2.0034,-4.7836,-4.3732,0.5953,-0.8583
-4.6911,-1.4676,0.2769,0.9904,-0.6568,-0.2772,4.8447,1.3604,-6.2149,-5.2098,-0.7148,-1.9985,-4.7795,-4.3791,0.5598,-0.8606
-4.7318,-1.4784,0.2695,0.9807,-0.7161,-0.2786,4.7706,1.3866,-6.2927,-5.1824,-0.7076,-2.0088,-4.7754,-4.3851,0.5342,-0.8663
-4.7318,-1.4784,0.2695,0.9807,-0.7161,-0.2786,4.7706,1.3866,-6.2927,-5.1824,-0.7076,-2.0088,-4.7754,-4.3851,0.5342,-0.8663
-4.7318,-1.4784,0.2695,0.9807,-0.7161,-0.2786,4.7706,1.3866,-6.2927,-5.1824,-0.7076,-2.0088,-4.7754,-4.3851,0.5342,-0.8663
-4.7665,-1.4746,0.2733,0.9753,-0.7622,-0.2772,4.6967,1.4127,-6.2149,-5.2098,-0.7076,-2.0088,-4.7795,-4.3791,0.5086,-0.8719
-4.7665,-1.4746,0.2733,0.9753,-0.7622,-0.2772,4.6967,1.4127,-6.2149,-5.2098,-0.7076,-2.0088,-4.7795,-4.3791,0.5086,-0.8719
-4.7877,-1.4671,0.2713,0.9882,-0.7622,-0.2772,4.6839,1.4311,-6.0134,-5.2448,-0.7436,-1.9805,-4.7877,-4.3673,0.4958,-0.8748
-4.7877,-1.4671,0.2713,0.9882,-0.7622,-0.2772,4.6839,1.4311,-6.0134,-5.2448,-0.7436,-1.9805,-4.7877,-4.3673,0.4958,-0.8748
-4.7877,-1.4671,0.2713,0.9882,-0.7622,-0.2772,4.6839,1.4311,-6.0134,-5.2448,-0.7436,-1.9805,-4.7877,-4.3673,0.4958,-0.8748
-4.7954,-1.4559,0.2711,1.0087,-0.7286,-0.3038,4.6839,1.4311,-5.9014,-5.3206,-0.7579,-1.9833,-4.796,-4.3689,0.4864,-0.8825
-4.7954,-1.4559,0.2711,1.0087,-0.7286,-0.3038,4.6839,1.4311,-5.9014,-5.3206,-0.7579,-1.9833,-4.796,-4.3689,0.4864,-0.8825
-4.7954,-1.4559,0.2711,1.0087,-0.7286,-0.3038,4.6839,1.4311,-5.9014,-5.3206,-0.7579,-1.9833,-4.796,-4.3689,0.4864,-0.8825
-4.83,-1.4521,0.2729,1.0163,-0.6417,-0.3642,4.6116,1.4151,-5.9896,-5.1075,-0.7938,-1.9784,-4.7588,-4.382,0.5289,-0.9012
-4.83,-1.4521,0.2729,1.0163,-0.6417,-0.3642,4.6116,1.4151,-5.9896,-5.1075,-0.7938,-1.9784,-4.7588,-4.382,0.5289,-0.9012
-4.83,-1.4521,0.2729,1.0163,-0.6417,-0.3642,4.6116,1.4151,-5.9896,-5.1075,-0.7938,-1.9784,-4.7588,-4.382,0.5289,-0.9012
-4.83,-1.4521,0.2877,1.0152,-0.6149,-0.3811,4.5622,1.4464,-6.1137,-5.1002,-0.8153,-1.9942,-4.7671,-4.3835,0.5157,-0.8929
-4.83,-1.4521,0.2895,1.0227,-0.6417,-0.3642,4.5622,1.4464,-6.2035,-5.1414,-0.8296,-2.0203,-4.796,-4.3822,0.4864,-0.8825
-4.83,-1.4521,0.2895,1.0227,-0.6417,-0.3642,4.5622,1.4464,-6.2035,-5.1414,-0.8296,-2.0203,-4.796,-4.3822,0.4864,-0.8825
-4.7588,-1.4857,0.2895,1.0227,-0.7014,-0.3431,4.6116,1.4151,-6.2927,-5.1824,-0.8082,-2.0511,-4.8166,-4.3794,0.4606,-0.877
-4.7318,-1.4784,0.3006,1.027,-0.7412,-0.3291,4.7094,1.3943,-6.337,-5.2028,-0.8296,-2.0436,-4.829,-4.3751,0.4542,-0.8785
-4.7318,-1.4784,0.3006,1.027,-0.7412,-0.3291,4.7094,1.3943,-6.337,-5.2028,-0.8296,-2.0436,-4.829,-4.3751,0.4542,-0.8785
-4.7318,-1.4784,0.3006,1.027,-0.7412,-0.3291,4.7094,1.3943,-6.337,-5.2028,-0.8296,-2.0436,-4.829,-4.3751,0.4542,-0.8785
-4.726,-1.4637,0.2968,1.0325,-0.7542,-0.3318,4.8575,1.342,-6.304,-5.2504,-0.8652,-2.0154,-4.8331,-4.3692,0.4542,-0.8785
-4.726,-1.4637,0.2968,1.0325,-0.7542,-0.3318,4.8575,1.342,-6.304,-5.2504,-0.8652,-2.0154,-4.8331,-4.3692,0.4542,-0.8785
-4.7627,-1.4339,0.2913,1.0303,-0.7933,-0.3402,4.9446,1.2974,-6.337,-5.2028,-0.8724,-2.0051,-4.8248,-4.3676,0.4576,-0.8833
-4.7627,-1.4339,0.2913,1.0303,-0.7933,-0.3402,4.9446,1.2974,-6.337,-5.2028,-0.8724,-2.0051,-4.8248,-4.3676,0.4576,-0.8833
-4.7627,-1.4339,0.2913,1.0303,-0.7933,-0.3402,4.9446,1.2974,-6.337,-5.2028,-0.8724,-2.0051,-4.8248,-4.3676,0.4576,-0.8833
-4.7994,-1.4041,0.282,1.0336,-0.8063,-0.343,4.9073,1.3106,-6.304,-5.2504,-0.9151,-1.99,-4.8207,-4.3735,0.4385,-0.8876
-4.8341,-1.4002,0.2616,1.0326,-0.8193,-0.3458,4.8204,1.3551,-6.3813,-5.2231,-0.9435,-1.9955,-4.8125,-4.3854,0.4097,-0.8884
-4.8666,-1.4224,0.2488,1.0207,-0.878,-0.3472,4.6979,1.3708,-6.4253,-5.2434,-0.9576,-2.0216,-4.8166,-4.3928,0.3712,-0.8858
-4.8666,-1.4224,0.2488,1.0207,-0.878,-0.3472,4.6979,1.3708,-6.4253,-5.2434,-0.9576,-2.0216,-4.8166,-4.3928,0.3712,-0.8858
-4.8666,-1.4224,0.2488,1.0207,-0.878,-0.3472,4.6979,1.3708,-6.4253,-5.2434,-0.9576,-2.0216,-4.8166,-4.3928,0.3712,-0.8858
-4.8914,-1.4556,0.2304,1.0068,-0.9167,-0.3555,4.5763,1.3861,-6.4253,-5.2434,-0.9505,-2.0318,-4.8125,-4.3987,0.3556,-0.895
-4.8914,-1.4556,0.2304,1.0068,-0.9167,-0.3555,4.5763,1.3861,-6.4253,-5.2434,-0.9505,-2.0318,-4.8125,-4.3987,0.3556,-0.895
-4.8914,-1.4556,0.2304,1.0068,-0.9167,-0.3555,4.5763,1.3861,-6.4253,-5.2434,-0.9505,-2.0318,-4.8125,-4.3987,0.3556,-0.895
-4.876,-1.4777,0.2009,1.009,-0.9296,-0.3583,4.5523,1.3808,-6.2382,-5.3453,-0.9788,-2.0373,-4.8413,-4.3841,0.324,-0.9021
-4.9028,-1.485,0.1676,1.0167,-0.9229,-0.368,4.5284,1.3755,-5.9394,-5.5221,-1.0071,-2.0427,-4.8906,-4.3667,0.2803,-0.9231
-4.9028,-1.485,0.1676,1.0167,-0.9229,-0.368,4.5284,1.3755,-5.9394,-5.5221,-1.0071,-2.0427,-4.8906,-4.3667,0.2803,-0.9231
-4.9238,-1.4776,0.1252,1.0276,-0.91,-0.3653,4.5523,1.3808,-6.0501,-5.4475,-1.0212,-2.0455,-4.907,-4.3698,0.2619,-0.9384
-4.9238,-1.4776,0.1252,1.0276,-0.91,-0.3653,4.5523,1.3808,-6.0501,-5.4475,-1.0212,-2.0455,-4.907,-4.3698,0.2619,-0.9384
-4.9449,-1.4702,0.1088,1.0212,-0.8971,-0.3625,4.5397,1.3991,-6.1487,-5.3053,-1.0282,-2.0584,-4.9274,-4.3671,0.2401,-0.9489
-4.9449,-1.4702,0.1088,1.0212,-0.8971,-0.3625,4.5397,1.3991,-6.1487,-5.3053,-1.0282,-2.0584,-4.9274,-4.3671,0.2401,-0.9489
-4.9449,-1.4702,0.1088,1.0212,-0.8971,-0.3625,4.5397,1.3991,-6.1487,-5.3053,-1.0282,-2.0584,-4.9274,-4.3671,0.2401,-0.9489
-4.9582,-1.4738,0.1053,1.0061,-0.8577,-0.3764,4.5763,1.3861,-6.3483,-5.2707,-1.0564,-2.0639,-4.9397,-4.3761,0.1959,-0.9478
-4.9582,-1.4738,0.1053,1.0061,-0.8577,-0.3764,4.5763,1.3861,-6.3483,-5.2707,-1.0564,-2.0639,-4.9397,-4.3761,0.1959,-0.9478
-4.9582,-1.4738,0.1053,1.0061,-0.8577,-0.3764,4.5763,1.3861,-6.3483,-5.2707,-1.0564,-2.0639,-4.9397,-4.3761,0.1959,-0.9478
-4.9904,-1.4957,0.0599,0.9814,-0.8903,-0.3722,4.4919,1.3884,-6.5677,-5.371,-1.0773,-2.1025,-4.9887,-4.3855,0.1019,-0.9581
-4.9904,-1.4957,0.0599,0.9814,-0.8903,-0.3722,4.4919,1.3884,-6.5677,-5.371,-1.0773,-2.1025,-4.9887,-4.3855,0.1019,-0.9581
-4.9904,-1.4957,0.0599,0.9814,-0.8903,-0.3722,4.4919,1.3884,-6.5677,-5.371,-1.0773,-2.1025,-4.9887,-4.3855,0.1019,-0.9581
-4.9884,-1.5214,0.0198,0.9794,-0.9229,-0.368,4.4807,1.3649,-6.6112,-5.3909,-1.1195,-2.0877,-4.9928,-4.3929,0.0585,-0.968
-4.9884,-1.5214,0.0198,0.9794,-0.9229,-0.368,4.4807,1.3649,-6.6112,-5.3909,-1.1195,-2.0877,-4.9928,-4.3929,0.0585,-0.968
-4.9884,-1.5214,0.0198,0.9794,-0.9229,-0.368,4.4807,1.3649,-6.6112,-5.3909,-1.1195,-2.0877,-4.9928,-4.3929,0.0585,-0.968
-5.015,-1.5286,-0.0256,0.9752,-0.9487,-0.3736,4.6028,1.308,-6.6436,-5.3442,-1.1827,-2.0423,-5.0172,-4.3843,0.0214,-0.9765
-5.015,-1.5286,-0.0256,0.9752,-0.9487,-0.3736,4.6028,1.308,-6.6436,-5.3442,-1.1827,-2.0423,-5.0172,-4.3843,0.0214,-0.9765
-5.0699,-1.5175,-0.0472,0.9666,-0.9548,-0.3861,4.652,1.2769,-6.6112,-5.3909,-1.1966,-2.045,-5.005,-4.3886,-0.0127,-0.9788
-5.0699,-1.5175,-0.0472,0.9666,-0.9548,-0.3861,4.652,1.2769,-6.6112,-5.3909,-1.1966,-2.045,-5.005,-4.3886,-0.0127,-0.9788
-5.0699,-1.5175,-0.0472,0.9666,-0.9548,-0.3861,4.652,1.2769,-6.6112,-5.3909,-1.1966,-2.045,-5.005,-4.3886,-0.0127,-0.9788
-5.1303,-1.521,-0.0689,0.9581,-0.9805,-0.3917,4.6028,1.308,-6.6868,-5.3642,-1.2174,-2.0607,-4.9887,-4.3988,-0.0312,-0.9831
-5.209,-1.5428,-0.0793,0.9336,-1.0513,-0.3959,4.4821,1.3233,-6.6112,-5.3909,-1.2104,-2.0709,-4.9765,-4.3898,-0.044,-0.975
-5.2482,-1.5536,-0.0719,0.9229,-1.0902,-0.3821,4.4457,1.3361,-6.3387,-5.4519,-1.1825,-2.0654,-4.952,-4.3718,-0.0103,-0.9617
-5.2482,-1.5536,-0.0719,0.9229,-1.0902,-0.3821,4.4457,1.3361,-6.3387,-5.4519,-1.1825,-2.0654,-4.952,-4.3718,-0.0103,-0.9617
-5.2482,-1.5536,-0.0719,0.9229,-1.0902,-0.3821,4.4457,1.3361,-6.3387,-5.4519,-1.1825,-2.0654,-4.952,-4.3718,-0.0103,-0.9617
-5.2276,-1.5609,-0.0557,0.9293,-1.0775,-0.3793,4.4821,1.3233,-6.1279,-5.42,-1.1196,-2.0646,-4.8988,-4.3549,0.0953,-0.9485
-5.2276,-1.5609,-0.0557,0.9293,-1.0775,-0.3793,4.4821,1.3233,-6.1279,-5.42,-1.1196,-2.0646,-4.8988,-4.3549,0.0953,-0.9485
-5.1939,-1.5646,-0.0233,0.942,-1.0324,-0.3806,4.4933,1.3467,-6.0255,-5.3128,-1.0423,-2.0611,-4.8371,-4.3364,0.2234,-0.9248
-5.1939,-1.5646,-0.0233,0.942,-1.0324,-0.3806,4.4933,1.3467,-6.0255,-5.3128,-1.0423,-2.0611,-4.8371,-4.3364,0.2234,-0.9248
-5.1207,-1.5575,0.0293,0.9558,-0.9615,-0.3764,4.541,1.3573,-6.0349,-5.128,-0.9717,-2.0475,-4.7711,-4.3238,0.356,-0.9061
-5.1207,-1.5575,0.0293,0.9558,-0.9615,-0.3764,4.541,1.3573,-6.0349,-5.128,-0.9717,-2.0475,-4.7711,-4.3238,0.356,-0.9061
-5.0547,-1.5394,0.095,0.9609,-0.8706,-0.3792,4.5763,1.3861,-6.1023,-5.0309,-0.9221,-2.0264,-4.713,-4.3129,0.4474,-0.8687
-4.9523,-1.5508,0.1609,0.9661,-0.8058,-0.3653,4.5876,1.4097,-6.1922,-5.0725,-0.8296,-2.0436,-4.6881,-4.3082,0.5142,-0.8481
-4.9523,-1.5508,0.1609,0.9661,-0.8058,-0.3653,4.5876,1.4097,-6.1922,-5.0725,-0.8296,-2.0436,-4.6881,-4.3082,0.5142,-0.8481
-4.9523,-1.5508,0.1609,0.9661,-0.8058,-0.3653,4.5876,1.4097,-6.1922,-5.0725,-0.8296,-2.0436,-4.6881,-4.3082,0.5142,-0.8481
-4.8779,-1.5438,0.2069,0.9702,-0.7673,-0.3346,4.6357,1.4204,-6.1137,-5.1002,-0.7294,-2.0479,-4.6548,-4.3019,0.5621,-0.8318
-4.8779,-1.5438,0.2069,0.9702,-0.7673,-0.3346,4.6357,1.4204,-6.1137,-5.1002,-0.7294,-2.0479,-4.6548,-4.3019,0.5621,-0.8318
-4.8779,-1.5438,0.2069,0.9702,-0.7673,-0.3346,4.6357,1.4204,-6.1137,-5.1002,-0.7294,-2.0479,-4.6548,-4.3019,0.5621,-0.8318
-4.8013,-1.5626,0.2364,0.9679,-0.748,-0.3193,4.6967,1.4127,-6.0014,-5.1764,-0.7076,-2.0088,-4.6339,-4.3047,0.5977,-0.8296
-4.8013,-1.5626,0.2364,0.9679,-0.748,-0.3193,4.6967,1.4127,-6.0014,-5.1764,-0.7076,-2.0088,-4.6339,-4.3047,0.5977,-0.8296
-4.8013,-1.5626,0.2364,0.9679,-0.748,-0.3193,4.6967,1.4127,-6.0014,-5.1764,-0.7076,-2.0088,-4.6339,-4.3047,0.5977,-0.8296
-4.7762,-1.5297,0.2678,0.9731,-0.7224,-0.2912,4.8936,1.3709,-6.0686,-5.0795,-0.7148,-1.928,-4.6339,-4.2912,0.6492,-0.8181
-4.7762,-1.5297,0.2678,0.9731,-0.7224,-0.2912,4.8936,1.3709,-6.0686,-5.0795,-0.7148,-1.928,-4.6339,-4.2912,0.6492,-0.8181
-4.7762,-1.5297,0.2678,0.9731,-0.7224,-0.2912,4.8936,1.3709,-6.0686,-5.0795,-0.7148,-1.928,-4.6339,-4.2912,0.6492,-0.8181
-4.7434,-1.5079,0.2881,0.9741,-0.7292,-0.2814,4.9555,1.3629,-6.0686,-5.0795,-0.7003,-1.9253,-4.6214,-4.2956,0.672,-0.8188
-4.7434,-1.5079,0.2881,0.9741,-0.7292,-0.2814,4.9555,1.3629,-6.0686,-5.0795,-0.7003,-1.9253,-4.6214,-4.2956,0.672,-0.8188
-4.7434,-1.5079,0.2881,0.9741,-0.7292,-0.2814,4.9555,1.3629,-6.0686,-5.0795,-0.7003,-1.9253,-4.6214,-4.2956,0.672,-0.8188
-4.8607,-1.4999,0.2752,0.9623,-0.8007,-0.308,4.7694,1.4286,-6.1137,-5.1002,-0.6498,-1.951,-4.5796,-4.3149,0.6489,-0.8069
-4.8607,-1.4999,0.2752,0.9623,-0.8007,-0.308,4.7694,1.4286,-6.1137,-5.1002,-0.6498,-1.951,-4.5796,-4.3149,0.6489,-0.8069
-4.9066,-1.5254,0.2624,0.9506,-0.8459,-0.329,4.647,1.4441,-6.0349,-5.128,-0.6498,-1.951,-4.5879,-4.3029,0.6424,-0.8083
-4.9066,-1.5254,0.2624,0.9506,-0.8459,-0.329,4.647,1.4441,-6.0349,-5.128,-0.6498,-1.951,-4.5879,-4.3029,0.6424,-0.8083
-4.9066,-1.5254,0.2624,0.9506,-0.8459,-0.329,4.647,1.4441,-6.0349,-5.128,-0.6498,-1.951,-4.5879,-4.3029,0.6424,-0.8083
